 #
 # Subroutine ELSEPA. Elastic scattering of electrons and positrons
 #                    by neutral atoms and positive ions
 #
 # Projectile: electron
 # Kinetic energy = 7.00000E+07 eV = 2.57245E+06 a.u.
 #
 # WARNING: High-energy factorization with free-atom DF screening.
 #          Absorption, polarization and exchange corrections are
 #          switched off.
 #          Phase shifts are calculated for the bare nucleus.
 #          Scattering amplitudes are not evaluated.
 #
 # Element:  V,  Z =  23,  atomic weight = 5.09415E+01 g/mol
 #
 # Nuclear model: Fermi distribution
 #                Average radius = 3.96650E-13 cm
 #                Skin thickness = 5.46000E-14 cm
 #
 # Number of electrons = 23
 #
 # Total elastic cross section = 1.92299E-18 cm**2 = 6.86711E-02 a0**2
 # 1st transport cross section = 2.20500E-25 cm**2 = 7.87421E-09 a0**2
 # 2nd transport cross section = 6.50335E-25 cm**2 = 2.32239E-08 a0**2
 #
 #
 # Differential cross section:                       MU=(1-COS(THETA))/2
 #
 #  THETA        MU          DCS          DCS        Sherman      error
 #  (deg)                 (cm**2/sr)   (a0**2/sr)    function
 #----------------------------------------------------------------------
0.00000E+00 1.30382E-10
7.61557E-13 1.30135E-10
1.18994E-12 1.29997E-10
1.71346E-12 1.29828E-10
2.33225E-12 1.29629E-10
3.04617E-12 1.29400E-10
3.85530E-12 1.29142E-10
4.75964E-12 1.28854E-10
5.75917E-12 1.28536E-10
6.85391E-12 1.28190E-10
8.04379E-12 1.27816E-10
9.32893E-12 1.27413E-10
1.07092E-11 1.26983E-10
1.21847E-11 1.26526E-10
1.37554E-11 1.26042E-10
1.54213E-11 1.25531E-10
1.71823E-11 1.24995E-10
1.90386E-11 1.24434E-10
2.09900E-11 1.23849E-10
2.30367E-11 1.23239E-10
2.51785E-11 1.22606E-10
2.74156E-11 1.21950E-10
2.97478E-11 1.21272E-10
3.21752E-11 1.20573E-10
3.46979E-11 1.19852E-10
3.73157E-11 1.19112E-10
4.00286E-11 1.18352E-10
4.28368E-11 1.17573E-10
4.57402E-11 1.16777E-10
4.87388E-11 1.15961E-10
5.18325E-11 1.15129E-10
5.50215E-11 1.14282E-10
5.83057E-11 1.13420E-10
6.16850E-11 1.12544E-10
6.51595E-11 1.11656E-10
6.87293E-11 1.10754E-10
7.23943E-11 1.09841E-10
7.61544E-11 1.08913E-10
1.18991E-10 9.91709E-11
1.71347E-10 8.90294E-11
2.33223E-10 7.90454E-11
3.04617E-10 6.96180E-11
3.85531E-10 6.10014E-11
4.75965E-10 5.33115E-11
5.75917E-10 4.65691E-11
6.85389E-10 4.07304E-11
8.04380E-10 3.57126E-11
9.32891E-10 3.14195E-11
1.07092E-09 2.77539E-11
1.21847E-09 2.46205E-11
1.37554E-09 2.19362E-11
1.54213E-09 1.96283E-11
1.71823E-09 1.76346E-11
1.90386E-09 1.59048E-11
2.09900E-09 1.43965E-11
2.30367E-09 1.30714E-11
2.51785E-09 1.19036E-11
2.74156E-09 1.08696E-11
2.97478E-09 9.94839E-12
3.21752E-09 9.12358E-12
3.46978E-09 8.38371E-12
3.73156E-09 7.71760E-12
4.00286E-09 7.11352E-12
4.28368E-09 6.56613E-12
4.57402E-09 6.06894E-12
4.87388E-09 5.58355E-12
5.18326E-09 5.14708E-12
5.50215E-09 4.75861E-12
5.83057E-09 4.41183E-12
6.16850E-09 4.10138E-12
6.51596E-09 3.82268E-12
6.87293E-09 3.57180E-12
7.23942E-09 3.34174E-12
7.61544E-09 3.09862E-12
1.18991E-08 1.57945E-12
1.71347E-08 8.65952E-13
2.33223E-08 5.08863E-13
3.04617E-08 3.18605E-13
3.85531E-08 2.11354E-13
4.75965E-08 1.46966E-13
5.75917E-08 1.06034E-13
6.85389E-08 7.87252E-14
8.04380E-08 5.98108E-14
9.32891E-08 4.62888E-14
1.07092E-07 3.63320E-14
1.21847E-07 2.88865E-14
1.37554E-07 2.32264E-14
1.54213E-07 1.88576E-14
1.71823E-07 1.54457E-14
1.90386E-07 1.27580E-14
2.09900E-07 1.06197E-14
2.30367E-07 8.90090E-15
2.51785E-07 7.51132E-15
2.74156E-07 6.37954E-15
2.97478E-07 5.45078E-15
3.21752E-07 4.68356E-15
3.46978E-07 4.04604E-15
3.73156E-07 3.51301E-15
4.00286E-07 3.06453E-15
4.28368E-07 2.68533E-15
4.57402E-07 2.36307E-15
4.87388E-07 2.08747E-15
5.18325E-07 1.85125E-15
5.50215E-07 1.64793E-15
5.83057E-07 1.47159E-15
6.16850E-07 1.31835E-15
6.51596E-07 1.18478E-15
6.87293E-07 1.06768E-15
7.23942E-07 9.64752E-16
7.61543E-07 8.74086E-16
1.18991E-06 3.66135E-16
1.71347E-06 1.79603E-16
2.33223E-06 9.81529E-17
3.04617E-06 5.80451E-17
3.85531E-06 3.64652E-17
4.75964E-06 2.40323E-17
5.75916E-06 1.64680E-17
6.85388E-06 1.16557E-17
8.04378E-06 8.47782E-18
9.32888E-06 6.31187E-18
1.07092E-05 4.79495E-18
1.21846E-05 3.70725E-18
1.37553E-05 2.91103E-18
1.54212E-05 2.31745E-18
1.71822E-05 1.86768E-18
1.90385E-05 1.52190E-18
2.09899E-05 1.25262E-18
2.30365E-05 1.04030E-18
2.51783E-05 8.71080E-19
2.74153E-05 7.34886E-19
2.97475E-05 6.24292E-19
3.21749E-05 5.33746E-19
3.46974E-05 4.59046E-19
3.73152E-05 3.96979E-19
4.00281E-05 3.45061E-19
4.28362E-05 3.01362E-19
4.57395E-05 2.64366E-19
4.87380E-05 2.32874E-19
5.18317E-05 2.05933E-19
5.50205E-05 1.82778E-19
5.83045E-05 1.62788E-19
6.16838E-05 1.45459E-19
6.51582E-05 1.30377E-19
6.87277E-05 1.17202E-19
7.23925E-05 1.05651E-19
7.61524E-05 9.54841E-20
9.21439E-05 6.52474E-20
1.09658E-04 4.60899E-20
1.28695E-04 3.34775E-20
1.49255E-04 2.48997E-20
1.71338E-04 1.89029E-20
1.94942E-04 1.46080E-20
2.20070E-04 1.14670E-20
2.46720E-04 9.12703E-21
2.74892E-04 7.35485E-21
3.04586E-04 5.99292E-21
3.35803E-04 4.93226E-21
3.68542E-04 4.09635E-21
4.02802E-04 3.43034E-21
4.38585E-04 2.89443E-21
4.75889E-04 2.45927E-21
5.14715E-04 2.10294E-21
5.55063E-04 1.80892E-21
5.96931E-04 1.56457E-21
6.40321E-04 1.36014E-21
6.85233E-04 1.18806E-21
7.31665E-04 1.04237E-21
7.79618E-04 9.18355E-22
8.29092E-04 8.12261E-22
8.80086E-04 7.21065E-22
9.32601E-04 6.42324E-22
9.86636E-04 5.74052E-22
1.04219E-03 5.14620E-22
1.09927E-03 4.62689E-22
1.15786E-03 4.17151E-22
1.21797E-03 3.77083E-22
1.27961E-03 3.41716E-22
1.34276E-03 3.10403E-22
1.40743E-03 2.82597E-22
1.47362E-03 2.57839E-22
1.54133E-03 2.35735E-22
1.61056E-03 2.15951E-22
1.68131E-03 1.98200E-22
1.75357E-03 1.82238E-22
1.82735E-03 1.67851E-22
1.90265E-03 1.54858E-22
1.97947E-03 1.43098E-22
2.05780E-03 1.32434E-22
2.13765E-03 1.22746E-22
2.21902E-03 1.13928E-22
2.30190E-03 1.05888E-22
2.38630E-03 9.85447E-23
2.47222E-03 9.18276E-23
2.55965E-03 8.56734E-23
2.64859E-03 8.00263E-23
2.73905E-03 7.48369E-23
2.83103E-03 7.00616E-23
2.92452E-03 6.56611E-23
3.01952E-03 6.16008E-23
3.11604E-03 5.78495E-23
3.21407E-03 5.43794E-23
3.31362E-03 5.11657E-23
3.41468E-03 4.81858E-23
3.51725E-03 4.54197E-23
3.62133E-03 4.28492E-23
3.72692E-03 4.04580E-23
3.83403E-03 3.82312E-23
3.94265E-03 3.61554E-23
4.05278E-03 3.42185E-23
4.16442E-03 3.24096E-23
4.27757E-03 3.07185E-23
4.39223E-03 2.91362E-23
4.50840E-03 2.76545E-23
4.62608E-03 2.62656E-23
4.74527E-03 2.49628E-23
4.86597E-03 2.37397E-23
4.98817E-03 2.25905E-23
5.11188E-03 2.15099E-23
5.23711E-03 2.04931E-23
5.36383E-03 1.95355E-23
5.49207E-03 1.86332E-23
5.62181E-03 1.77823E-23
5.75306E-03 1.69794E-23
5.88581E-03 1.62211E-23
6.02007E-03 1.55047E-23
6.15583E-03 1.48273E-23
6.29310E-03 1.41864E-23
6.43187E-03 1.35798E-23
6.57214E-03 1.30051E-23
6.71392E-03 1.24604E-23
6.85720E-03 1.19439E-23
7.00198E-03 1.14538E-23
7.14827E-03 1.09885E-23
7.29605E-03 1.05466E-23
7.44534E-03 1.01266E-23
7.59612E-03 9.72721E-24
7.97965E-03 8.81138E-24
8.37255E-03 8.00052E-24
8.77480E-03 7.28051E-24
9.18641E-03 6.63943E-24
9.60736E-03 6.06710E-24
1.00376E-02 5.55489E-24
1.04773E-02 5.09536E-24
1.09262E-02 4.68215E-24
1.13844E-02 4.30979E-24
1.18520E-02 3.97351E-24
1.23288E-02 3.66921E-24
1.28150E-02 3.39331E-24
1.33104E-02 3.14269E-24
1.38150E-02 2.91463E-24
1.43290E-02 2.70674E-24
1.48521E-02 2.51691E-24
1.53845E-02 2.34330E-24
1.59262E-02 2.18428E-24
1.64770E-02 2.03840E-24
1.70371E-02 1.90439E-24
1.76063E-02 1.78110E-24
1.81848E-02 1.66753E-24
1.87724E-02 1.56277E-24
1.93692E-02 1.46602E-24
1.99751E-02 1.37655E-24
2.05901E-02 1.29373E-24
2.12143E-02 1.21696E-24
2.18476E-02 1.14573E-24
2.24900E-02 1.07956E-24
2.31415E-02 1.01804E-24
2.38021E-02 9.60774E-25
2.44717E-02 9.07417E-25
2.51504E-02 8.57656E-25
2.58382E-02 8.11204E-25
2.65349E-02 7.67803E-25
2.72407E-02 7.27216E-25
2.79555E-02 6.89229E-25
2.86793E-02 6.53644E-25
2.94120E-02 6.20283E-25
3.01537E-02 5.88983E-25
3.09043E-02 5.59592E-25
3.16639E-02 5.31975E-25
3.24324E-02 5.06004E-25
3.32098E-02 4.81565E-25
3.39961E-02 4.58550E-25
3.47912E-02 4.36862E-25
3.55952E-02 4.16412E-25
3.64081E-02 3.97115E-25
3.72297E-02 3.78895E-25
3.80602E-02 3.61682E-25
3.88995E-02 3.45410E-25
3.97476E-02 3.30019E-25
4.06044E-02 3.15452E-25
4.14700E-02 3.01657E-25
4.23443E-02 2.88586E-25
4.32273E-02 2.76196E-25
4.41190E-02 2.64443E-25
4.50194E-02 2.53290E-25
4.59284E-02 2.42700E-25
4.68461E-02 2.32640E-25
4.87074E-02 2.13988E-25
5.06030E-02 1.97109E-25
5.25328E-02 1.81806E-25
5.44967E-02 1.67909E-25
5.64946E-02 1.55267E-25
5.85262E-02 1.43748E-25
6.05914E-02 1.33236E-25
6.26901E-02 1.23629E-25
6.48222E-02 1.14837E-25
6.69873E-02 1.06780E-25
6.91854E-02 9.93851E-26
7.14163E-02 9.25905E-26
7.36799E-02 8.63394E-26
7.59760E-02 8.05814E-26
7.83043E-02 7.52715E-26
8.06647E-02 7.03694E-26
8.30571E-02 6.58388E-26
8.54812E-02 6.16472E-26
8.79369E-02 5.77654E-26
9.04240E-02 5.41668E-26
9.29422E-02 5.08277E-26
9.54915E-02 4.77265E-26
9.80716E-02 4.48436E-26
1.00682E-01 4.21615E-26
1.03323E-01 3.96639E-26
1.05995E-01 3.73364E-26
1.08696E-01 3.51657E-26
1.11427E-01 3.31395E-26
1.14188E-01 3.12469E-26
1.16978E-01 2.94778E-26
1.19797E-01 2.78230E-26
1.22645E-01 2.62740E-26
1.25522E-01 2.48232E-26
1.28428E-01 2.34633E-26
1.31361E-01 2.21879E-26
1.34323E-01 2.09911E-26
1.37313E-01 1.98673E-26
1.40330E-01 1.88114E-26
1.43375E-01 1.78188E-26
1.46447E-01 1.68852E-26
1.49545E-01 1.60066E-26
1.52671E-01 1.51793E-26
1.55823E-01 1.44000E-26
1.59001E-01 1.36655E-26
1.62205E-01 1.29729E-26
1.65435E-01 1.23194E-26
1.68690E-01 1.17027E-26
1.71970E-01 1.11203E-26
1.75276E-01 1.05702E-26
1.78606E-01 1.00503E-26
1.81961E-01 9.55870E-27
1.85340E-01 9.09375E-27
1.88743E-01 8.65381E-27
1.92169E-01 8.23737E-27
1.95619E-01 7.84303E-27
1.99092E-01 7.46948E-27
2.02589E-01 7.11550E-27
2.06107E-01 6.77994E-27
2.09649E-01 6.46174E-27
2.13212E-01 6.15990E-27
2.16797E-01 5.87349E-27
2.20404E-01 5.60162E-27
2.24032E-01 5.34349E-27
2.27680E-01 5.09833E-27
2.31350E-01 4.86540E-27
2.35040E-01 4.64405E-27
2.38751E-01 4.43363E-27
2.42481E-01 4.23355E-27
2.46231E-01 4.04325E-27
2.50000E-01 3.86221E-27
2.53788E-01 3.68993E-27
2.57595E-01 3.52594E-27
2.61421E-01 3.36981E-27
2.65264E-01 3.22112E-27
2.69126E-01 3.07949E-27
2.73005E-01 2.94456E-27
2.76901E-01 2.81596E-27
2.80814E-01 2.69339E-27
2.84744E-01 2.57653E-27
2.88691E-01 2.46510E-27
2.92653E-01 2.35882E-27
2.96632E-01 2.25742E-27
3.00625E-01 2.16068E-27
3.04634E-01 2.06835E-27
3.08658E-01 1.98022E-27
3.12697E-01 1.89609E-27
3.16749E-01 1.81575E-27
3.20816E-01 1.73902E-27
3.24896E-01 1.66573E-27
3.28990E-01 1.59571E-27
3.33097E-01 1.52880E-27
3.37216E-01 1.46486E-27
3.41348E-01 1.40374E-27
3.45492E-01 1.34532E-27
3.49647E-01 1.28945E-27
3.53814E-01 1.23603E-27
3.57992E-01 1.18494E-27
3.62181E-01 1.13607E-27
3.66381E-01 1.08932E-27
3.70590E-01 1.04458E-27
3.74810E-01 1.00177E-27
3.79039E-01 9.60805E-28
3.83277E-01 9.21590E-28
3.87524E-01 8.84049E-28
3.91780E-01 8.48107E-28
3.96044E-01 8.13691E-28
4.00316E-01 7.80733E-28
4.04596E-01 7.49167E-28
4.08882E-01 7.18931E-28
4.13176E-01 6.89966E-28
4.17476E-01 6.62215E-28
4.21783E-01 6.35625E-28
4.26095E-01 6.10145E-28
4.30413E-01 5.85725E-28
4.34737E-01 5.62319E-28
4.39065E-01 5.39883E-28
4.43398E-01 5.18375E-28
4.47736E-01 4.97754E-28
4.52077E-01 4.77983E-28
4.56422E-01 4.59023E-28
4.60770E-01 4.40841E-28
4.65122E-01 4.23402E-28
4.69476E-01 4.06676E-28
4.73832E-01 3.90632E-28
4.78190E-01 3.75240E-28
4.82550E-01 3.60473E-28
4.86912E-01 3.46305E-28
4.91274E-01 3.32709E-28
4.95637E-01 3.19663E-28
5.00000E-01 3.07143E-28
5.04363E-01 2.95126E-28
5.08726E-01 2.83592E-28
5.13088E-01 2.72521E-28
5.17450E-01 2.61894E-28
5.21810E-01 2.51691E-28
5.26168E-01 2.41895E-28
5.30524E-01 2.32490E-28
5.34878E-01 2.23459E-28
5.39230E-01 2.14787E-28
5.43578E-01 2.06459E-28
5.47923E-01 1.98461E-28
5.52264E-01 1.90780E-28
5.56602E-01 1.83402E-28
5.60935E-01 1.76315E-28
5.65263E-01 1.69507E-28
5.69587E-01 1.62968E-28
5.73905E-01 1.56685E-28
5.78217E-01 1.50649E-28
5.82524E-01 1.44850E-28
5.86824E-01 1.39278E-28
5.91118E-01 1.33924E-28
5.95404E-01 1.28779E-28
5.99684E-01 1.23835E-28
6.03956E-01 1.19083E-28
6.08220E-01 1.14517E-28
6.12476E-01 1.10128E-28
6.16723E-01 1.05909E-28
6.20961E-01 1.01855E-28
6.25190E-01 9.79574E-29
6.29410E-01 9.42109E-29
6.33619E-01 9.06094E-29
6.37819E-01 8.71471E-29
6.42008E-01 8.38185E-29
6.46186E-01 8.06184E-29
6.50353E-01 7.75416E-29
6.54508E-01 7.45832E-29
6.58652E-01 7.17387E-29
6.62784E-01 6.90036E-29
6.66903E-01 6.63735E-29
6.71010E-01 6.38443E-29
6.75104E-01 6.14121E-29
6.79184E-01 5.90730E-29
6.83251E-01 5.68235E-29
6.87303E-01 5.46601E-29
6.91342E-01 5.25793E-29
6.95366E-01 5.05779E-29
6.99375E-01 4.86530E-29
7.03368E-01 4.68014E-29
7.07347E-01 4.50204E-29
7.11309E-01 4.33072E-29
7.15256E-01 4.16591E-29
7.19186E-01 4.00737E-29
7.23099E-01 3.85486E-29
7.26995E-01 3.70813E-29
7.30874E-01 3.56697E-29
7.34736E-01 3.43116E-29
7.38579E-01 3.30050E-29
7.42405E-01 3.17478E-29
7.46212E-01 3.05382E-29
7.50000E-01 2.93744E-29
7.53769E-01 2.82545E-29
7.57519E-01 2.71769E-29
7.61249E-01 2.61400E-29
7.64960E-01 2.51422E-29
7.68650E-01 2.41821E-29
7.72320E-01 2.32580E-29
7.75968E-01 2.23688E-29
7.79596E-01 2.15131E-29
7.83203E-01 2.06895E-29
7.86788E-01 1.98969E-29
7.90351E-01 1.91341E-29
7.93893E-01 1.83999E-29
7.97411E-01 1.76933E-29
8.00908E-01 1.70132E-29
8.04381E-01 1.63586E-29
8.07831E-01 1.57285E-29
8.11257E-01 1.51220E-29
8.14660E-01 1.45382E-29
8.18039E-01 1.39763E-29
8.21394E-01 1.34354E-29
8.24724E-01 1.29147E-29
8.28030E-01 1.24135E-29
8.31310E-01 1.19310E-29
8.34565E-01 1.14665E-29
8.37795E-01 1.10193E-29
8.40999E-01 1.05888E-29
8.44177E-01 1.01744E-29
8.47329E-01 9.77545E-30
8.50455E-01 9.39135E-30
8.53553E-01 9.02156E-30
8.56625E-01 8.66555E-30
8.59670E-01 8.32278E-30
8.62687E-01 7.99278E-30
8.65677E-01 7.67505E-30
8.68639E-01 7.36915E-30
8.71572E-01 7.07462E-30
8.74478E-01 6.79104E-30
8.77355E-01 6.51801E-30
8.80203E-01 6.25513E-30
8.83022E-01 6.00201E-30
8.85812E-01 5.75831E-30
8.88573E-01 5.52366E-30
8.91304E-01 5.29773E-30
8.94005E-01 5.08019E-30
8.96677E-01 4.87074E-30
8.99318E-01 4.66907E-30
9.01928E-01 4.47490E-30
9.04508E-01 4.28794E-30
9.07058E-01 4.10794E-30
9.09576E-01 3.93463E-30
9.12063E-01 3.76777E-30
9.14519E-01 3.60712E-30
9.16943E-01 3.45246E-30
9.19335E-01 3.30355E-30
9.21696E-01 3.16020E-30
9.24024E-01 3.02219E-30
9.26320E-01 2.88934E-30
9.28584E-01 2.76145E-30
9.30815E-01 2.63835E-30
9.33013E-01 2.51985E-30
9.35178E-01 2.40580E-30
9.37310E-01 2.29603E-30
9.39409E-01 2.19039E-30
9.41474E-01 2.08873E-30
9.43505E-01 1.99090E-30
9.45503E-01 1.89678E-30
9.47467E-01 1.80622E-30
9.49397E-01 1.71910E-30
9.51293E-01 1.63529E-30
9.53154E-01 1.55469E-30
9.54981E-01 1.47718E-30
9.56773E-01 1.40264E-30
9.58530E-01 1.33099E-30
9.60252E-01 1.26210E-30
9.61940E-01 1.19590E-30
9.63592E-01 1.13229E-30
9.65209E-01 1.07117E-30
9.66790E-01 1.01247E-30
9.68336E-01 9.56103E-31
9.69846E-01 9.01990E-31
9.71321E-01 8.50057E-31
9.72759E-01 8.00233E-31
9.74162E-01 7.52447E-31
9.75528E-01 7.06634E-31
9.76858E-01 6.62731E-31
9.78152E-01 6.20678E-31
9.79410E-01 5.80415E-31
9.80631E-01 5.41888E-31
9.81815E-01 5.05044E-31
9.82963E-01 4.69832E-31
9.84074E-01 4.36204E-31
9.85148E-01 4.04113E-31
9.86185E-01 3.73515E-31
9.87185E-01 3.44368E-31
9.88148E-01 3.16633E-31
9.89074E-01 2.90271E-31
9.89962E-01 2.65247E-31
9.90814E-01 2.41525E-31
9.91627E-01 2.19074E-31
9.92404E-01 1.97863E-31
9.93143E-01 1.77863E-31
9.93844E-01 1.59046E-31
9.94508E-01 1.41388E-31
9.95134E-01 1.24863E-31
9.95722E-01 1.09449E-31
9.96273E-01 9.51258E-32
9.96786E-01 8.18733E-32
9.97261E-01 6.96735E-32
9.97698E-01 5.85098E-32
9.98097E-01 4.83669E-32
9.98459E-01 3.92312E-32
9.98782E-01 3.10901E-32
9.99067E-01 2.39326E-32
9.99315E-01 1.77491E-32
9.99524E-01 1.25310E-32
9.99695E-01 8.27124E-33
9.99829E-01 4.96416E-33
9.99924E-01 2.60515E-33
9.99981E-01 1.19102E-33
1.00000E+00 7.19851E-34
