 #
 # Subroutine ELSEPA. Elastic scattering of electrons and positrons
 #                    by neutral atoms and positive ions
 #
 # Projectile: electron
 # Kinetic energy = 9.00000E+08 eV = 3.30744E+07 a.u.
 #
 # WARNING: High-energy factorization with free-atom DF screening.
 #          Absorption, polarization and exchange corrections are
 #          switched off.
 #          Phase shifts are calculated for the bare nucleus.
 #          Scattering amplitudes are not evaluated.
 #
 # Element:  V,  Z =  23,  atomic weight = 5.09415E+01 g/mol
 #
 # Nuclear model: Fermi distribution
 #                Average radius = 3.96650E-13 cm
 #                Skin thickness = 5.46000E-14 cm
 #
 # Number of electrons = 23
 #
 # Total elastic cross section = 1.90047E-18 cm**2 = 6.78669E-02 a0**2
 # 1st transport cross section = 1.36913E-27 cm**2 = 4.88927E-11 a0**2
 # 2nd transport cross section = 4.10676E-27 cm**2 = 1.46655E-10 a0**2
 #
 #
 # Differential cross section:                       MU=(1-COS(THETA))/2
 #
 #  THETA        MU          DCS          DCS        Sherman      error
 #  (deg)                 (cm**2/sr)   (a0**2/sr)    function
 #----------------------------------------------------------------------
0.00000E+00 2.12658E-08
7.61557E-13 1.59967E-08
1.18994E-12 1.38854E-08
1.71346E-12 1.18599E-08
2.33225E-12 1.00295E-08
3.04617E-12 8.44332E-09
3.85530E-12 7.10703E-09
4.75964E-12 6.00077E-09
5.75917E-12 5.09324E-09
6.85391E-12 4.35133E-09
8.04379E-12 3.74364E-09
9.32893E-12 3.24367E-09
1.07092E-11 2.82919E-09
1.21847E-11 2.48308E-09
1.37554E-11 2.19152E-09
1.54213E-11 1.94349E-09
1.71823E-11 1.73117E-09
1.90386E-11 1.54773E-09
2.09900E-11 1.38812E-09
2.30367E-11 1.24866E-09
2.51785E-11 1.12578E-09
2.74156E-11 1.01719E-09
2.97478E-11 9.16063E-10
3.21752E-11 8.25826E-10
3.46979E-11 7.48002E-10
3.73157E-11 6.80565E-10
4.00286E-11 6.21859E-10
4.28368E-11 5.70528E-10
4.57402E-11 5.21064E-10
4.87388E-11 4.74113E-10
5.18325E-11 4.32888E-10
5.50215E-11 3.96555E-10
5.83057E-11 3.64421E-10
6.16850E-11 3.35905E-10
6.51595E-11 3.09104E-10
6.87293E-11 2.83556E-10
7.23943E-11 2.60790E-10
7.61544E-11 2.40445E-10
1.18991E-10 1.14153E-10
1.71347E-10 6.04176E-11
2.33223E-10 3.52773E-11
3.04617E-10 2.22644E-11
3.85531E-10 1.48781E-11
4.75965E-10 1.03675E-11
5.75917E-10 7.45747E-12
6.85389E-10 5.49131E-12
8.04380E-10 4.12492E-12
9.32891E-10 3.15178E-12
1.07092E-09 2.44287E-12
1.21847E-09 1.91928E-12
1.37554E-09 1.52624E-12
1.54213E-09 1.22715E-12
1.71823E-09 9.97083E-13
1.90386E-09 8.17978E-13
2.09900E-09 6.77078E-13
2.30367E-09 5.65141E-13
2.51785E-09 4.75333E-13
2.74156E-09 4.02668E-13
2.97478E-09 3.43341E-13
3.21752E-09 2.94613E-13
3.46978E-09 2.54302E-13
3.73156E-09 2.20630E-13
4.00286E-09 1.92414E-13
4.28368E-09 1.68564E-13
4.57402E-09 1.48325E-13
4.87388E-09 1.31055E-13
5.18326E-09 1.16227E-13
5.50215E-09 1.03464E-13
5.83057E-09 9.23971E-14
6.16850E-09 8.27856E-14
6.51596E-09 7.43965E-14
6.87293E-09 6.70437E-14
7.23942E-09 6.05889E-14
7.61544E-09 5.48835E-14
1.18991E-08 2.29376E-14
1.71347E-08 1.12084E-14
2.33223E-08 6.10141E-15
3.04617E-08 3.59621E-15
3.85531E-08 2.25327E-15
4.75965E-08 1.48202E-15
5.75917E-08 1.01398E-15
6.85389E-08 7.16817E-16
8.04380E-08 5.20895E-16
9.32891E-08 3.87528E-16
1.07092E-07 2.94220E-16
1.21847E-07 2.27368E-16
1.37554E-07 1.78463E-16
1.54213E-07 1.42025E-16
1.71823E-07 1.14427E-16
1.90386E-07 9.32170E-17
2.09900E-07 7.67006E-17
2.30367E-07 6.36849E-17
2.51785E-07 5.33162E-17
2.74156E-07 4.49742E-17
2.97478E-07 3.82015E-17
3.21752E-07 3.26570E-17
3.46978E-07 2.80827E-17
3.73156E-07 2.42820E-17
4.00286E-07 2.11031E-17
4.28368E-07 1.84277E-17
4.57402E-07 1.61632E-17
4.87388E-07 1.42360E-17
5.18325E-07 1.25877E-17
5.50215E-07 1.11712E-17
5.83057E-07 9.94846E-18
6.16850E-07 8.88852E-18
6.51596E-07 7.96606E-18
6.87293E-07 7.16022E-18
7.23942E-07 6.45375E-18
7.61543E-07 5.83230E-18
1.18991E-06 2.38933E-18
1.71347E-06 1.15242E-18
2.33223E-06 6.22126E-19
3.04617E-06 3.64722E-19
3.85531E-06 2.27720E-19
4.75964E-06 1.49423E-19
5.75916E-06 1.02069E-19
6.85388E-06 7.20755E-20
8.04378E-06 5.23342E-20
9.32888E-06 3.89129E-20
1.07092E-05 2.95315E-20
1.21846E-05 2.28148E-20
1.37553E-05 1.79038E-20
1.54212E-05 1.42461E-20
1.71822E-05 1.14767E-20
1.90385E-05 9.34897E-21
2.09899E-05 7.69276E-21
2.30365E-05 6.38744E-21
2.51783E-05 5.34745E-21
2.74153E-05 4.51067E-21
2.97475E-05 3.83135E-21
3.21749E-05 3.27530E-21
3.46974E-05 2.81663E-21
3.73152E-05 2.43559E-21
4.00281E-05 2.11691E-21
4.28362E-05 1.84870E-21
4.57395E-05 1.62166E-21
4.87380E-05 1.42842E-21
5.18317E-05 1.26311E-21
5.50205E-05 1.12104E-21
5.83045E-05 9.98396E-22
6.16838E-05 8.92087E-22
6.51582E-05 7.99570E-22
6.87277E-05 7.18752E-22
7.23925E-05 6.47898E-22
7.61524E-05 5.72434E-22
9.21439E-05 3.89022E-22
1.09658E-04 2.73135E-22
1.28695E-04 1.97073E-22
1.49255E-04 1.45516E-22
1.71338E-04 1.09603E-22
1.94942E-04 8.39840E-23
2.20070E-04 6.53290E-23
2.46720E-04 5.14953E-23
2.74892E-04 4.10703E-23
3.04586E-04 3.31010E-23
3.35803E-04 2.69296E-23
3.68542E-04 2.20950E-23
4.02802E-04 1.82676E-23
4.38585E-04 1.52084E-23
4.75889E-04 1.27419E-23
5.14715E-04 1.07372E-23
5.55063E-04 9.09603E-24
5.96931E-04 7.74324E-24
6.40321E-04 6.62121E-24
6.85233E-04 5.68519E-24
7.31665E-04 4.90015E-24
7.79618E-04 4.23845E-24
8.29092E-04 3.67812E-24
8.80086E-04 3.20158E-24
9.32601E-04 2.79465E-24
9.86636E-04 2.44585E-24
1.04219E-03 2.14583E-24
1.09927E-03 1.88689E-24
1.15786E-03 1.66273E-24
1.21797E-03 1.46810E-24
1.27961E-03 1.29865E-24
1.34276E-03 1.15073E-24
1.40743E-03 1.02130E-24
1.47362E-03 9.07791E-25
1.54133E-03 8.08025E-25
1.61056E-03 7.20162E-25
1.68131E-03 6.42632E-25
1.75357E-03 5.74097E-25
1.82735E-03 5.13412E-25
1.90265E-03 4.59589E-25
1.97947E-03 4.11782E-25
2.05780E-03 3.69257E-25
2.13765E-03 3.31381E-25
2.21902E-03 2.97602E-25
2.30190E-03 2.67441E-25
2.38630E-03 2.40482E-25
2.47222E-03 2.16358E-25
2.55965E-03 1.94751E-25
2.64859E-03 1.75380E-25
2.73905E-03 1.57999E-25
2.83103E-03 1.42391E-25
2.92452E-03 1.28365E-25
3.01952E-03 1.15751E-25
3.11604E-03 1.04401E-25
3.21407E-03 9.41810E-26
3.31362E-03 8.49740E-26
3.41468E-03 7.66753E-26
3.51725E-03 6.91922E-26
3.62133E-03 6.24415E-26
3.72692E-03 5.63493E-26
3.83403E-03 5.08497E-26
3.94265E-03 4.58836E-26
4.05278E-03 4.13981E-26
4.16442E-03 3.73458E-26
4.27757E-03 3.36844E-26
4.39223E-03 3.03756E-26
4.50840E-03 2.73852E-26
4.62608E-03 2.46824E-26
4.74527E-03 2.22395E-26
4.86597E-03 2.00315E-26
4.98817E-03 1.80359E-26
5.11188E-03 1.62325E-26
5.23711E-03 1.46029E-26
5.36383E-03 1.31305E-26
5.49207E-03 1.18006E-26
5.62181E-03 1.05995E-26
5.75306E-03 9.51505E-27
5.88581E-03 8.53622E-27
6.02007E-03 7.65300E-27
6.15583E-03 6.85636E-27
6.29310E-03 6.13809E-27
6.43187E-03 5.49077E-27
6.57214E-03 4.90767E-27
6.71392E-03 4.38269E-27
6.85720E-03 3.91031E-27
7.00198E-03 3.48551E-27
7.14827E-03 3.10375E-27
7.29605E-03 2.76091E-27
7.44534E-03 2.45323E-27
7.59612E-03 2.17735E-27
7.97965E-03 1.60720E-27
8.37255E-03 1.17649E-27
8.77480E-03 8.53332E-28
9.18641E-03 6.12764E-28
9.60736E-03 4.35313E-28
1.00376E-02 3.05815E-28
1.04773E-02 2.12497E-28
1.09262E-02 1.46252E-28
1.13844E-02 1.00069E-28
1.18520E-02 6.85791E-29
1.23288E-02 4.76992E-29
1.28150E-02 3.43464E-29
1.33104E-02 2.62164E-29
1.38150E-02 2.16056E-29
1.43290E-02 1.92726E-29
1.48521E-02 1.83283E-29
1.53845E-02 1.81503E-29
1.59262E-02 1.83156E-29
1.64770E-02 1.85492E-29
1.70371E-02 1.86834E-29
1.76063E-02 1.86270E-29
1.81848E-02 1.83422E-29
1.87724E-02 1.78266E-29
1.93692E-02 1.71005E-29
1.99751E-02 1.61972E-29
2.05901E-02 1.51559E-29
2.12143E-02 1.40174E-29
2.18476E-02 1.28209E-29
2.24900E-02 1.16016E-29
2.31415E-02 1.03901E-29
2.38021E-02 9.21173E-30
2.44717E-02 8.08655E-30
2.51504E-02 7.02954E-30
2.58382E-02 6.05112E-30
2.65349E-02 5.15768E-30
2.72407E-02 4.35218E-30
2.79555E-02 3.63474E-30
2.86793E-02 3.00321E-30
2.94120E-02 2.45373E-30
3.01537E-02 1.98113E-30
3.09043E-02 1.57943E-30
3.16639E-02 1.24210E-30
3.24324E-02 9.62424E-31
3.32098E-02 7.33683E-31
3.39961E-02 5.49353E-31
3.47912E-02 4.03243E-31
3.55952E-02 2.89582E-31
3.64081E-02 2.03090E-31
3.72297E-02 1.39008E-31
3.80602E-02 9.31099E-32
3.88995E-02 6.16983E-32
3.97476E-02 4.15839E-32
4.06044E-02 3.00558E-32
4.14700E-02 2.48454E-32
4.23443E-02 2.40854E-32
4.32273E-02 2.62672E-32
4.41190E-02 3.01976E-32
4.50194E-02 3.49567E-32
4.59284E-02 3.98575E-32
4.68461E-02 4.44087E-32
4.87074E-02 5.12709E-32
5.06030E-02 5.43021E-32
5.25328E-02 5.35497E-32
5.44967E-02 4.97424E-32
5.64946E-02 4.38710E-32
5.85262E-02 3.69234E-32
6.05914E-02 2.97377E-32
6.26901E-02 2.29389E-32
6.48222E-02 1.69314E-32
6.69873E-02 1.19238E-32
6.91854E-02 7.96977E-33
7.14163E-02 5.01294E-33
7.36799E-02 2.92866E-33
7.59760E-02 1.55890E-33
7.83043E-02 7.38673E-34
8.06647E-02 3.14015E-34
8.30571E-02 1.52602E-34
8.54812E-02 1.48533E-34
8.79369E-02 2.22793E-34
9.04240E-02 3.20920E-34
9.29422E-02 4.09089E-34
9.54915E-02 4.69576E-34
9.80716E-02 4.96292E-34
1.00682E-01 4.90797E-34
1.03323E-01 4.59031E-34
1.05995E-01 4.08827E-34
1.08696E-01 3.48170E-34
1.11427E-01 2.84111E-34
1.14188E-01 2.22197E-34
1.16978E-01 1.66299E-34
1.19797E-01 1.18691E-34
1.22645E-01 8.02942E-35
1.25522E-01 5.09885E-35
1.28428E-01 2.99374E-35
1.31361E-01 1.58832E-35
1.34323E-01 7.39228E-36
1.37313E-01 3.03904E-36
1.40330E-01 1.53131E-36
1.43375E-01 1.78262E-36
1.46447E-01 2.94174E-36
1.49545E-01 4.39072E-36
1.52671E-01 5.72173E-36
1.55823E-01 6.70199E-36
1.59001E-01 7.23402E-36
1.62205E-01 7.31658E-36
1.65435E-01 7.00979E-36
1.68690E-01 6.40622E-36
1.71970E-01 5.60881E-36
1.75276E-01 4.71548E-36
1.78606E-01 3.80949E-36
1.81961E-01 2.95473E-36
1.85340E-01 2.19468E-36
1.88743E-01 1.55384E-36
1.92169E-01 1.04076E-36
1.95619E-01 6.51738E-37
1.99092E-01 3.74579E-37
2.02589E-01 1.92098E-37
2.06107E-01 8.50013E-38
2.09649E-01 3.41105E-38
2.13212E-01 2.19136E-38
2.16797E-01 3.35137E-38
2.20404E-01 5.70611E-38
2.24032E-01 8.38021E-38
2.27680E-01 1.07832E-37
2.31350E-01 1.25704E-37
2.35040E-01 1.35913E-37
2.38751E-01 1.38397E-37
2.42481E-01 1.34043E-37
2.46231E-01 1.24283E-37
2.50000E-01 1.10761E-37
2.53788E-01 9.50981E-38
2.57595E-01 7.87239E-38
2.61421E-01 6.28009E-38
2.65264E-01 4.81824E-38
2.69126E-01 3.54225E-38
2.73005E-01 2.48064E-38
2.76901E-01 1.63965E-38
2.80814E-01 1.00843E-38
2.84744E-01 1.00000E-45
2.88691E-01 1.00000E-45
2.92653E-01 1.00000E-45
2.96632E-01 1.00000E-45
3.00625E-01 1.00000E-45
3.04634E-01 1.00000E-45
3.08658E-01 1.00000E-45
3.12697E-01 1.00000E-45
3.16749E-01 1.00000E-45
3.20816E-01 1.00000E-45
3.24896E-01 1.00000E-45
3.28990E-01 1.00000E-45
3.33097E-01 1.00000E-45
3.37216E-01 1.00000E-45
3.41348E-01 1.00000E-45
3.45492E-01 1.00000E-45
3.49647E-01 1.00000E-45
3.53814E-01 1.00000E-45
3.57992E-01 1.00000E-45
3.62181E-01 1.00000E-45
3.66381E-01 1.00000E-45
3.70590E-01 1.00000E-45
3.74810E-01 1.00000E-45
3.79039E-01 1.00000E-45
3.83277E-01 1.00000E-45
3.87524E-01 1.00000E-45
3.91780E-01 1.00000E-45
3.96044E-01 1.00000E-45
4.00316E-01 1.00000E-45
4.04596E-01 1.00000E-45
4.08882E-01 1.00000E-45
4.13176E-01 1.00000E-45
4.17476E-01 1.00000E-45
4.21783E-01 1.00000E-45
4.26095E-01 1.00000E-45
4.30413E-01 1.00000E-45
4.34737E-01 1.00000E-45
4.39065E-01 1.00000E-45
4.43398E-01 1.00000E-45
4.47736E-01 1.00000E-45
4.52077E-01 1.00000E-45
4.56422E-01 1.00000E-45
4.60770E-01 1.00000E-45
4.65122E-01 1.00000E-45
4.69476E-01 1.00000E-45
4.73832E-01 1.00000E-45
4.78190E-01 1.00000E-45
4.82550E-01 1.00000E-45
4.86912E-01 1.00000E-45
4.91274E-01 1.00000E-45
4.95637E-01 1.00000E-45
5.00000E-01 1.00000E-45
5.04363E-01 1.00000E-45
5.08726E-01 1.00000E-45
5.13088E-01 1.00000E-45
5.17450E-01 1.00000E-45
5.21810E-01 1.00000E-45
5.26168E-01 1.00000E-45
5.30524E-01 1.00000E-45
5.34878E-01 1.00000E-45
5.39230E-01 1.00000E-45
5.43578E-01 1.00000E-45
5.47923E-01 1.00000E-45
5.52264E-01 1.00000E-45
5.56602E-01 1.00000E-45
5.60935E-01 1.00000E-45
5.65263E-01 1.00000E-45
5.69587E-01 1.00000E-45
5.73905E-01 1.00000E-45
5.78217E-01 1.00000E-45
5.82524E-01 1.00000E-45
5.86824E-01 1.00000E-45
5.91118E-01 1.00000E-45
5.95404E-01 1.00000E-45
5.99684E-01 1.00000E-45
6.03956E-01 1.00000E-45
6.08220E-01 1.00000E-45
6.12476E-01 1.00000E-45
6.16723E-01 1.00000E-45
6.20961E-01 1.00000E-45
6.25190E-01 1.00000E-45
6.29410E-01 1.00000E-45
6.33619E-01 1.00000E-45
6.37819E-01 1.00000E-45
6.42008E-01 1.00000E-45
6.46186E-01 1.00000E-45
6.50353E-01 1.00000E-45
6.54508E-01 1.00000E-45
6.58652E-01 1.00000E-45
6.62784E-01 1.00000E-45
6.66903E-01 1.00000E-45
6.71010E-01 1.00000E-45
6.75104E-01 1.00000E-45
6.79184E-01 1.00000E-45
6.83251E-01 1.00000E-45
6.87303E-01 1.00000E-45
6.91342E-01 1.00000E-45
6.95366E-01 1.00000E-45
6.99375E-01 1.00000E-45
7.03368E-01 1.00000E-45
7.07347E-01 1.00000E-45
7.11309E-01 1.00000E-45
7.15256E-01 1.00000E-45
7.19186E-01 1.00000E-45
7.23099E-01 1.00000E-45
7.26995E-01 1.00000E-45
7.30874E-01 1.00000E-45
7.34736E-01 1.00000E-45
7.38579E-01 1.00000E-45
7.42405E-01 1.00000E-45
7.46212E-01 1.00000E-45
7.50000E-01 1.00000E-45
7.53769E-01 1.00000E-45
7.57519E-01 1.00000E-45
7.61249E-01 1.00000E-45
7.64960E-01 1.00000E-45
7.68650E-01 1.00000E-45
7.72320E-01 1.00000E-45
7.75968E-01 1.00000E-45
7.79596E-01 1.00000E-45
7.83203E-01 1.00000E-45
7.86788E-01 1.00000E-45
7.90351E-01 1.00000E-45
7.93893E-01 1.00000E-45
7.97411E-01 1.00000E-45
8.00908E-01 1.00000E-45
8.04381E-01 1.00000E-45
8.07831E-01 1.00000E-45
8.11257E-01 1.00000E-45
8.14660E-01 1.00000E-45
8.18039E-01 1.00000E-45
8.21394E-01 1.00000E-45
8.24724E-01 1.00000E-45
8.28030E-01 1.00000E-45
8.31310E-01 1.00000E-45
8.34565E-01 1.00000E-45
8.37795E-01 1.00000E-45
8.40999E-01 1.00000E-45
8.44177E-01 1.00000E-45
8.47329E-01 1.00000E-45
8.50455E-01 1.00000E-45
8.53553E-01 1.00000E-45
8.56625E-01 1.00000E-45
8.59670E-01 1.00000E-45
8.62687E-01 1.00000E-45
8.65677E-01 1.00000E-45
8.68639E-01 1.00000E-45
8.71572E-01 1.00000E-45
8.74478E-01 1.00000E-45
8.77355E-01 1.00000E-45
8.80203E-01 1.00000E-45
8.83022E-01 1.00000E-45
8.85812E-01 1.00000E-45
8.88573E-01 1.00000E-45
8.91304E-01 1.00000E-45
8.94005E-01 1.00000E-45
8.96677E-01 1.00000E-45
8.99318E-01 1.00000E-45
9.01928E-01 1.00000E-45
9.04508E-01 1.00000E-45
9.07058E-01 1.00000E-45
9.09576E-01 1.00000E-45
9.12063E-01 1.00000E-45
9.14519E-01 1.00000E-45
9.16943E-01 1.00000E-45
9.19335E-01 1.00000E-45
9.21696E-01 1.00000E-45
9.24024E-01 1.00000E-45
9.26320E-01 1.00000E-45
9.28584E-01 1.00000E-45
9.30815E-01 1.00000E-45
9.33013E-01 1.00000E-45
9.35178E-01 1.00000E-45
9.37310E-01 1.00000E-45
9.39409E-01 1.00000E-45
9.41474E-01 1.00000E-45
9.43505E-01 1.00000E-45
9.45503E-01 1.00000E-45
9.47467E-01 1.00000E-45
9.49397E-01 1.00000E-45
9.51293E-01 1.00000E-45
9.53154E-01 1.00000E-45
9.54981E-01 1.00000E-45
9.56773E-01 1.00000E-45
9.58530E-01 1.00000E-45
9.60252E-01 1.00000E-45
9.61940E-01 1.00000E-45
9.63592E-01 1.00000E-45
9.65209E-01 1.00000E-45
9.66790E-01 1.00000E-45
9.68336E-01 1.00000E-45
9.69846E-01 1.00000E-45
9.71321E-01 1.00000E-45
9.72759E-01 1.00000E-45
9.74162E-01 1.00000E-45
9.75528E-01 1.00000E-45
9.76858E-01 1.00000E-45
9.78152E-01 1.00000E-45
9.79410E-01 1.00000E-45
9.80631E-01 1.00000E-45
9.81815E-01 1.00000E-45
9.82963E-01 1.00000E-45
9.84074E-01 1.00000E-45
9.85148E-01 1.00000E-45
9.86185E-01 1.00000E-45
9.87185E-01 1.00000E-45
9.88148E-01 1.00000E-45
9.89074E-01 1.00000E-45
9.89962E-01 1.00000E-45
9.90814E-01 1.00000E-45
9.91627E-01 1.00000E-45
9.92404E-01 1.00000E-45
9.93143E-01 1.00000E-45
9.93844E-01 1.00000E-45
9.94508E-01 1.00000E-45
9.95134E-01 1.00000E-45
9.95722E-01 1.00000E-45
9.96273E-01 1.00000E-45
9.96786E-01 1.00000E-45
9.97261E-01 1.00000E-45
9.97698E-01 1.00000E-45
9.98097E-01 1.00000E-45
9.98459E-01 1.00000E-45
9.98782E-01 1.00000E-45
9.99067E-01 1.00000E-45
9.99315E-01 1.00000E-45
9.99524E-01 1.00000E-45
9.99695E-01 1.00000E-45
9.99829E-01 1.00000E-45
9.99924E-01 1.00000E-45
9.99981E-01 1.00000E-45
1.00000E+00 1.00000E-45
