 #
 # Subroutine ELSEPA. Elastic scattering of electrons and positrons
 #                    by neutral atoms and positive ions
 #
 # Projectile: electron
 # Kinetic energy = 3.00000E+08 eV = 1.10248E+07 a.u.
 #
 # WARNING: High-energy factorization with free-atom DF screening.
 #          Absorption, polarization and exchange corrections are
 #          switched off.
 #          Phase shifts are calculated for the bare nucleus.
 #          Scattering amplitudes are not evaluated.
 #
 # Element:  V,  Z =  23,  atomic weight = 5.09415E+01 g/mol
 #
 # Nuclear model: Fermi distribution
 #                Average radius = 3.96650E-13 cm
 #                Skin thickness = 5.46000E-14 cm
 #
 # Number of electrons = 23
 #
 # Total elastic cross section = 1.92295E-18 cm**2 = 6.86699E-02 a0**2
 # 1st transport cross section = 1.22895E-26 cm**2 = 4.38867E-10 a0**2
 # 2nd transport cross section = 3.68183E-26 cm**2 = 1.31480E-09 a0**2
 #
 #
 # Differential cross section:                       MU=(1-COS(THETA))/2
 #
 #  THETA        MU          DCS          DCS        Sherman      error
 #  (deg)                 (cm**2/sr)   (a0**2/sr)    function
 #----------------------------------------------------------------------
0.00000E+00 2.36823E-09
7.61557E-13 2.28896E-09
1.18994E-12 2.24617E-09
1.71346E-12 2.19554E-09
2.33225E-12 2.13795E-09
3.04617E-12 2.07430E-09
3.85530E-12 2.00580E-09
4.75964E-12 1.93324E-09
5.75917E-12 1.85788E-09
6.85391E-12 1.78039E-09
8.04379E-12 1.70197E-09
9.32893E-12 1.62322E-09
1.07092E-11 1.54502E-09
1.21847E-11 1.46794E-09
1.37554E-11 1.39255E-09
1.54213E-11 1.31929E-09
1.71823E-11 1.24851E-09
1.90386E-11 1.18049E-09
2.09900E-11 1.11541E-09
2.30367E-11 1.05340E-09
2.51785E-11 9.94540E-10
2.74156E-11 9.38807E-10
2.97478E-11 8.86211E-10
3.21752E-11 8.36663E-10
3.46979E-11 7.90081E-10
3.73157E-11 7.46368E-10
4.00286E-11 7.05371E-10
4.28368E-11 6.67005E-10
4.57402E-11 6.31067E-10
4.87388E-11 5.97492E-10
5.18325E-11 5.66066E-10
5.50215E-11 5.36708E-10
5.83057E-11 5.09243E-10
6.16850E-11 4.83567E-10
6.51595E-11 4.59543E-10
6.87293E-11 4.37061E-10
7.23943E-11 4.16004E-10
7.61544E-11 3.96282E-10
1.18991E-10 2.53678E-10
1.71347E-10 1.71934E-10
2.33223E-10 1.20849E-10
3.04617E-10 8.57959E-11
3.85531E-10 6.33548E-11
4.75965E-10 4.66474E-11
5.75917E-10 3.53182E-11
6.85389E-10 2.66801E-11
8.04380E-10 2.06041E-11
9.32891E-10 1.60252E-11
1.07092E-09 1.26624E-11
1.21847E-09 1.01170E-11
1.37554E-09 8.18634E-12
1.54213E-09 6.70188E-12
1.71823E-09 5.54550E-12
1.90386E-09 4.63781E-12
2.09900E-09 3.91325E-12
2.30367E-09 3.33218E-12
2.51785E-09 2.85807E-12
2.74156E-09 2.46982E-12
2.97478E-09 2.14721E-12
3.21752E-09 1.87775E-12
3.46978E-09 1.65054E-12
3.73156E-09 1.45729E-12
4.00286E-09 1.29254E-12
4.28368E-09 1.15008E-12
4.57402E-09 1.02767E-12
4.87388E-09 9.20268E-13
5.18326E-09 8.27204E-13
5.50215E-09 7.44975E-13
5.83057E-09 6.72960E-13
6.16850E-09 6.09106E-13
6.51596E-09 5.52592E-13
6.87293E-09 5.02353E-13
7.23942E-09 4.57500E-13
7.61544E-09 4.17559E-13
1.18991E-08 1.82433E-13
1.71347E-08 9.06988E-14
2.33223E-08 4.98302E-14
3.04617E-08 2.95975E-14
3.85531E-08 1.86902E-14
4.75965E-08 1.23921E-14
5.75917E-08 8.54585E-15
6.85389E-08 6.08555E-15
8.04380E-08 4.45221E-15
9.32891E-08 3.33232E-15
1.07092E-07 2.54336E-15
1.21847E-07 1.97471E-15
1.37554E-07 1.55621E-15
1.54213E-07 1.24281E-15
1.71823E-07 1.00439E-15
1.90386E-07 8.20346E-16
2.09900E-07 6.76538E-16
2.30367E-07 5.62847E-16
2.51785E-07 4.72012E-16
2.74156E-07 3.98758E-16
2.97478E-07 3.39150E-16
3.21752E-07 2.90255E-16
3.46978E-07 2.49852E-16
3.73156E-07 2.16225E-16
4.00286E-07 1.88063E-16
4.28368E-07 1.64334E-16
4.57402E-07 1.44227E-16
4.87388E-07 1.27099E-16
5.18325E-07 1.12437E-16
5.50215E-07 9.98274E-17
5.83057E-07 8.89352E-17
6.16850E-07 7.94871E-17
6.51596E-07 7.12600E-17
6.87293E-07 6.40695E-17
7.23942E-07 5.77626E-17
7.61543E-07 5.22125E-17
1.18991E-06 2.14208E-17
1.71347E-06 1.03384E-17
2.33223E-06 5.58294E-18
3.04617E-06 3.27362E-18
3.85531E-06 2.04417E-18
4.75964E-06 1.34143E-18
5.75916E-06 9.16364E-19
6.85388E-06 6.47108E-19
8.04378E-06 4.69880E-19
9.32888E-06 3.49385E-19
1.07092E-05 2.65158E-19
1.21846E-05 2.04852E-19
1.37553E-05 1.60759E-19
1.54212E-05 1.27918E-19
1.71822E-05 1.03052E-19
1.90385E-05 8.39467E-20
2.09899E-05 6.90756E-20
2.30365E-05 5.73550E-20
2.51783E-05 4.80167E-20
2.74153E-05 4.05032E-20
2.97475E-05 3.44034E-20
3.21749E-05 2.94104E-20
3.46974E-05 2.52919E-20
3.73152E-05 2.18704E-20
4.00281E-05 1.90088E-20
4.28362E-05 1.66005E-20
4.57395E-05 1.45618E-20
4.87380E-05 1.28265E-20
5.18317E-05 1.13422E-20
5.50205E-05 1.00665E-20
5.83045E-05 8.96519E-21
6.16838E-05 8.01059E-21
6.51582E-05 7.17983E-21
6.87277E-05 6.45412E-21
7.23925E-05 5.81788E-21
7.61524E-05 5.24879E-21
9.21439E-05 3.58475E-21
1.09658E-04 2.53075E-21
1.28695E-04 1.83706E-21
1.49255E-04 1.36542E-21
1.71338E-04 1.03581E-21
1.94942E-04 7.99818E-22
2.20070E-04 6.27303E-22
2.46720E-04 4.98832E-22
2.74892E-04 4.01577E-22
3.04586E-04 3.26870E-22
3.35803E-04 2.68718E-22
3.68542E-04 2.22912E-22
4.02802E-04 1.86437E-22
4.38585E-04 1.57104E-22
4.75889E-04 1.33300E-22
5.14715E-04 1.13821E-22
5.55063E-04 9.77585E-23
5.96931E-04 8.44192E-23
6.40321E-04 7.32679E-23
6.85233E-04 6.38884E-23
7.31665E-04 5.59539E-23
7.79618E-04 4.92057E-23
8.29092E-04 4.34377E-23
8.80086E-04 3.84842E-23
9.32601E-04 3.42113E-23
9.86636E-04 3.05102E-23
1.04219E-03 2.72916E-23
1.09927E-03 2.44822E-23
1.15786E-03 2.20214E-23
1.21797E-03 1.98586E-23
1.27961E-03 1.79518E-23
1.34276E-03 1.62655E-23
1.40743E-03 1.47701E-23
1.47362E-03 1.34402E-23
1.54133E-03 1.22544E-23
1.61056E-03 1.11946E-23
1.68131E-03 1.02450E-23
1.75357E-03 9.39226E-24
1.82735E-03 8.62485E-24
1.90265E-03 7.93276E-24
1.97947E-03 7.30736E-24
2.05780E-03 6.74113E-24
2.13765E-03 6.22753E-24
2.21902E-03 5.76084E-24
2.30190E-03 5.33605E-24
2.38630E-03 4.94876E-24
2.47222E-03 4.59510E-24
2.55965E-03 4.27166E-24
2.64859E-03 3.97542E-24
2.73905E-03 3.70370E-24
2.83103E-03 3.45414E-24
2.92452E-03 3.22463E-24
3.01952E-03 3.01328E-24
3.11604E-03 2.81841E-24
3.21407E-03 2.63853E-24
3.31362E-03 2.47229E-24
3.41468E-03 2.31848E-24
3.51725E-03 2.17602E-24
3.62133E-03 2.04393E-24
3.72692E-03 1.92133E-24
3.83403E-03 1.80742E-24
3.94265E-03 1.70150E-24
4.05278E-03 1.60290E-24
4.16442E-03 1.51104E-24
4.27757E-03 1.42537E-24
4.39223E-03 1.34543E-24
4.50840E-03 1.27075E-24
4.62608E-03 1.20094E-24
4.74527E-03 1.13562E-24
4.86597E-03 1.07447E-24
4.98817E-03 1.01718E-24
5.11188E-03 9.63450E-25
5.23711E-03 9.13037E-25
5.36383E-03 8.65701E-25
5.49207E-03 8.21224E-25
5.62181E-03 7.79406E-25
5.75306E-03 7.40063E-25
5.88581E-03 7.03026E-25
6.02007E-03 6.68138E-25
6.15583E-03 6.35255E-25
6.29310E-03 6.04243E-25
6.43187E-03 5.74981E-25
6.57214E-03 5.47354E-25
6.71392E-03 5.21257E-25
6.85720E-03 4.96592E-25
7.00198E-03 4.73269E-25
7.14827E-03 4.51204E-25
7.29605E-03 4.30318E-25
7.44534E-03 4.10539E-25
7.59612E-03 3.91800E-25
7.97965E-03 3.49101E-25
8.37255E-03 3.11651E-25
8.77480E-03 2.78720E-25
9.18641E-03 2.49692E-25
9.60736E-03 2.24044E-25
1.00376E-02 2.01333E-25
1.04773E-02 1.81182E-25
1.09262E-02 1.63265E-25
1.13844E-02 1.47306E-25
1.18520E-02 1.33065E-25
1.23288E-02 1.20336E-25
1.28150E-02 1.08939E-25
1.33104E-02 9.87204E-26
1.38150E-02 8.95443E-26
1.43290E-02 8.12931E-26
1.48521E-02 7.38639E-26
1.53845E-02 6.71663E-26
1.59262E-02 6.11211E-26
1.64770E-02 5.56586E-26
1.70371E-02 5.07174E-26
1.76063E-02 4.62430E-26
1.81848E-02 4.21876E-26
1.87724E-02 3.85083E-26
1.93692E-02 3.51675E-26
1.99751E-02 3.21314E-26
2.05901E-02 2.93701E-26
2.12143E-02 2.68569E-26
2.18476E-02 2.45677E-26
2.24900E-02 2.24814E-26
2.31415E-02 2.05785E-26
2.38021E-02 1.88421E-26
2.44717E-02 1.72566E-26
2.51504E-02 1.58082E-26
2.58382E-02 1.44842E-26
2.65349E-02 1.32736E-26
2.72407E-02 1.21660E-26
2.79555E-02 1.11523E-26
2.86793E-02 1.02242E-26
2.94120E-02 9.37416E-27
3.01537E-02 8.59533E-27
3.09043E-02 7.88154E-27
3.16639E-02 7.22718E-27
3.24324E-02 6.62715E-27
3.32098E-02 6.07681E-27
3.39961E-02 5.57194E-27
3.47912E-02 5.10871E-27
3.55952E-02 4.68361E-27
3.64081E-02 4.29345E-27
3.72297E-02 3.93531E-27
3.80602E-02 3.60654E-27
3.88995E-02 3.30471E-27
3.97476E-02 3.02759E-27
4.06044E-02 2.77316E-27
4.14700E-02 2.53956E-27
4.23443E-02 2.32508E-27
4.32273E-02 2.12816E-27
4.41190E-02 1.94738E-27
4.50194E-02 1.78143E-27
4.59284E-02 1.62910E-27
4.68461E-02 1.48929E-27
4.87074E-02 1.24327E-27
5.06030E-02 1.03623E-27
5.25328E-02 8.62133E-28
5.44967E-02 7.15885E-28
5.64946E-02 5.93175E-28
5.85262E-02 4.90351E-28
6.05914E-02 4.04325E-28
6.26901E-02 3.32475E-28
6.48222E-02 2.72583E-28
6.69873E-02 2.22765E-28
6.91854E-02 1.81427E-28
7.14163E-02 1.47217E-28
7.36799E-02 1.18987E-28
7.59760E-02 9.57692E-29
7.83043E-02 7.67414E-29
8.06647E-02 6.12094E-29
8.30571E-02 4.85870E-29
8.54812E-02 3.83794E-29
8.79369E-02 3.01698E-29
9.04240E-02 2.36076E-29
9.29422E-02 1.83986E-29
9.54915E-02 1.42963E-29
9.80716E-02 1.10945E-29
1.00682E-01 8.62160E-30
1.03323E-01 6.73478E-30
1.05995E-01 5.31587E-30
1.08696E-01 4.26733E-30
1.11427E-01 3.50906E-30
1.14188E-01 2.97556E-30
1.16978E-01 2.61360E-30
1.19797E-01 2.38020E-30
1.22645E-01 2.24088E-30
1.25522E-01 2.16827E-30
1.28428E-01 2.14084E-30
1.31361E-01 2.14189E-30
1.34323E-01 2.15865E-30
1.37313E-01 2.18157E-30
1.40330E-01 2.20368E-30
1.43375E-01 2.22011E-30
1.46447E-01 2.22762E-30
1.49545E-01 2.22427E-30
1.52671E-01 2.20912E-30
1.55823E-01 2.18199E-30
1.59001E-01 2.14325E-30
1.62205E-01 2.09369E-30
1.65435E-01 2.03435E-30
1.68690E-01 1.96645E-30
1.71970E-01 1.89131E-30
1.75276E-01 1.81026E-30
1.78606E-01 1.72462E-30
1.81961E-01 1.63566E-30
1.85340E-01 1.54456E-30
1.88743E-01 1.45241E-30
1.92169E-01 1.36020E-30
1.95619E-01 1.26880E-30
1.99092E-01 1.17896E-30
2.02589E-01 1.09133E-30
2.06107E-01 1.00646E-30
2.09649E-01 9.24798E-31
2.13212E-01 8.46681E-31
2.16797E-01 7.72378E-31
2.20404E-01 7.02076E-31
2.24032E-01 6.35891E-31
2.27680E-01 5.73881E-31
2.31350E-01 5.16050E-31
2.35040E-01 4.62355E-31
2.38751E-01 4.12715E-31
2.42481E-01 3.67019E-31
2.46231E-01 3.25128E-31
2.50000E-01 2.86883E-31
2.53788E-01 2.52110E-31
2.57595E-01 2.20623E-31
2.61421E-01 1.92230E-31
2.65264E-01 1.66733E-31
2.69126E-01 1.43934E-31
2.73005E-01 1.23637E-31
2.76901E-01 1.05649E-31
2.80814E-01 8.97816E-32
2.84744E-01 7.58530E-32
2.88691E-01 6.36894E-32
2.92653E-01 5.31252E-32
2.96632E-01 4.40037E-32
3.00625E-01 3.61776E-32
3.04634E-01 2.95091E-32
3.08658E-01 2.38701E-32
3.12697E-01 1.91421E-32
3.16749E-01 1.52158E-32
3.20816E-01 1.19912E-32
3.24896E-01 9.37703E-33
3.28990E-01 7.29040E-33
3.33097E-01 5.65653E-33
3.37216E-01 4.40815E-33
3.41348E-01 3.48513E-33
3.45492E-01 2.83395E-33
3.49647E-01 2.40724E-33
3.53814E-01 2.16333E-33
3.57992E-01 2.06579E-33
3.62181E-01 2.08294E-33
3.66381E-01 2.18747E-33
3.70590E-01 2.35599E-33
3.74810E-01 2.56866E-33
3.79039E-01 2.80883E-33
3.83277E-01 3.06267E-33
3.87524E-01 3.31884E-33
3.91780E-01 3.56824E-33
3.96044E-01 3.80370E-33
4.00316E-01 4.01972E-33
4.04596E-01 4.21227E-33
4.08882E-01 4.37855E-33
4.13176E-01 4.51684E-33
4.17476E-01 4.62627E-33
4.21783E-01 4.70675E-33
4.26095E-01 4.75876E-33
4.30413E-01 4.78327E-33
4.34737E-01 4.78163E-33
4.39065E-01 4.75549E-33
4.43398E-01 4.70668E-33
4.47736E-01 4.63719E-33
4.52077E-01 4.54910E-33
4.56422E-01 4.44451E-33
4.60770E-01 4.32551E-33
4.65122E-01 4.19416E-33
4.69476E-01 4.05246E-33
4.73832E-01 3.90232E-33
4.78190E-01 3.74553E-33
4.82550E-01 3.58380E-33
4.86912E-01 3.41867E-33
4.91274E-01 3.25159E-33
4.95637E-01 3.08388E-33
5.00000E-01 2.91670E-33
5.04363E-01 2.75112E-33
5.08726E-01 2.58805E-33
5.13088E-01 2.42831E-33
5.17450E-01 2.27259E-33
5.21810E-01 2.12148E-33
5.26168E-01 1.97545E-33
5.30524E-01 1.83491E-33
5.34878E-01 1.70016E-33
5.39230E-01 1.57143E-33
5.43578E-01 1.44886E-33
5.47923E-01 1.33255E-33
5.52264E-01 1.22254E-33
5.56602E-01 1.11881E-33
5.60935E-01 1.02129E-33
5.65263E-01 9.29876E-34
5.69587E-01 8.44441E-34
5.73905E-01 7.64821E-34
5.78217E-01 6.90829E-34
5.82524E-01 6.22260E-34
5.86824E-01 5.58896E-34
5.91118E-01 5.00505E-34
5.95404E-01 4.46850E-34
5.99684E-01 3.97686E-34
6.03956E-01 3.52769E-34
6.08220E-01 3.11853E-34
6.12476E-01 2.74693E-34
6.16723E-01 2.41051E-34
6.20961E-01 2.10690E-34
6.25190E-01 1.83383E-34
6.29410E-01 1.58908E-34
6.33619E-01 1.37051E-34
6.37819E-01 1.17608E-34
6.42008E-01 1.00383E-34
6.46186E-01 8.51909E-35
6.50353E-01 7.18550E-35
6.54508E-01 6.02095E-35
6.58652E-01 5.00973E-35
6.62784E-01 4.13722E-35
6.66903E-01 3.38970E-35
6.71010E-01 2.75440E-35
6.75104E-01 2.21945E-35
6.79184E-01 1.77388E-35
6.83251E-01 1.40758E-35
6.87303E-01 1.11120E-35
6.91342E-01 8.76233E-36
6.95366E-01 6.94850E-36
6.99375E-01 5.59969E-36
7.03368E-01 4.65112E-36
7.07347E-01 4.04462E-36
7.11309E-01 3.72749E-36
7.15256E-01 3.65256E-36
7.19186E-01 3.77760E-36
7.23099E-01 4.06498E-36
7.26995E-01 4.48144E-36
7.30874E-01 4.99757E-36
7.34736E-01 5.58764E-36
7.38579E-01 6.22915E-36
7.42405E-01 6.90270E-36
7.46212E-01 7.59160E-36
7.50000E-01 8.28159E-36
7.53769E-01 8.96071E-36
7.57519E-01 9.61898E-36
7.61249E-01 1.02482E-35
7.64960E-01 1.08419E-35
7.68650E-01 1.13948E-35
7.72320E-01 1.19030E-35
7.75968E-01 1.23638E-35
7.79596E-01 1.27754E-35
7.83203E-01 1.31367E-35
7.86788E-01 1.34474E-35
7.90351E-01 1.37079E-35
7.93893E-01 1.39191E-35
7.97411E-01 1.40823E-35
8.00908E-01 1.41989E-35
8.04381E-01 1.42711E-35
8.07831E-01 1.43009E-35
8.11257E-01 1.42906E-35
8.14660E-01 1.42428E-35
8.18039E-01 1.41597E-35
8.21394E-01 1.40442E-35
8.24724E-01 1.38986E-35
8.28030E-01 1.37257E-35
8.31310E-01 1.35279E-35
8.34565E-01 1.33076E-35
8.37795E-01 1.30673E-35
8.40999E-01 1.28093E-35
8.44177E-01 1.25358E-35
8.47329E-01 1.22490E-35
8.50455E-01 1.19508E-35
8.53553E-01 1.16431E-35
8.56625E-01 1.13278E-35
8.59670E-01 1.10065E-35
8.62687E-01 1.06808E-35
8.65677E-01 1.03521E-35
8.68639E-01 1.00218E-35
8.71572E-01 9.69102E-36
8.74478E-01 9.36096E-36
8.77355E-01 9.03268E-36
8.80203E-01 8.70703E-36
8.83022E-01 8.38490E-36
8.85812E-01 8.06701E-36
8.88573E-01 7.75395E-36
8.91304E-01 7.44641E-36
8.94005E-01 7.14485E-36
8.96677E-01 6.84973E-36
8.99318E-01 6.56139E-36
9.01928E-01 6.28017E-36
9.04508E-01 6.00629E-36
9.07058E-01 5.73996E-36
9.09576E-01 5.48134E-36
9.12063E-01 5.23059E-36
9.14519E-01 4.98769E-36
9.16943E-01 4.75277E-36
9.19335E-01 4.52577E-36
9.21696E-01 4.30667E-36
9.24024E-01 4.09542E-36
9.26320E-01 3.89195E-36
9.28584E-01 3.69619E-36
9.30815E-01 3.50796E-36
9.33013E-01 3.32718E-36
9.35178E-01 3.15365E-36
9.37310E-01 2.98728E-36
9.39409E-01 2.82786E-36
9.41474E-01 2.67519E-36
9.43505E-01 2.52914E-36
9.45503E-01 2.38952E-36
9.47467E-01 2.25607E-36
9.49397E-01 2.12869E-36
9.51293E-01 2.00714E-36
9.53154E-01 1.89119E-36
9.54981E-01 1.78073E-36
9.56773E-01 1.67549E-36
9.58530E-01 1.57527E-36
9.60252E-01 1.47995E-36
9.61940E-01 1.38931E-36
9.63592E-01 1.30315E-36
9.65209E-01 1.22130E-36
9.66790E-01 1.14358E-36
9.68336E-01 1.06985E-36
9.69846E-01 9.99919E-37
9.71321E-01 9.33599E-37
9.72759E-01 8.70771E-37
9.74162E-01 8.11283E-37
9.75528E-01 7.54981E-37
9.76858E-01 7.01706E-37
9.78152E-01 6.51329E-37
9.79410E-01 6.03721E-37
9.80631E-01 5.58766E-37
9.81815E-01 5.16333E-37
9.82963E-01 4.76307E-37
9.84074E-01 4.38572E-37
9.85148E-01 4.03025E-37
9.86185E-01 3.69563E-37
9.87185E-01 3.38093E-37
9.88148E-01 3.08515E-37
9.89074E-01 2.80763E-37
9.89962E-01 2.54724E-37
9.90814E-01 2.30317E-37
9.91627E-01 2.07520E-37
9.92404E-01 1.86194E-37
9.93143E-01 1.66316E-37
9.93844E-01 1.47806E-37
9.94508E-01 1.30626E-37
9.95134E-01 1.14687E-37
9.95722E-01 9.99691E-38
9.96273E-01 8.64142E-38
9.96786E-01 7.39776E-38
9.97261E-01 6.26111E-38
9.97698E-01 5.22902E-38
9.98097E-01 4.29773E-38
9.98459E-01 3.46425E-38
9.98782E-01 2.72594E-38
9.99067E-01 2.07978E-38
9.99315E-01 1.52394E-38
9.99524E-01 1.05680E-38
9.99695E-01 6.77129E-39
9.99829E-01 3.82239E-39
9.99924E-01 1.72729E-39
9.99981E-01 4.71574E-40
1.00000E+00 5.52960E-41
