 #
 # Subroutine ELSEPA. Elastic scattering of electrons and positrons
 #                    by neutral atoms and positive ions
 #
 # Projectile: electron
 # Kinetic energy = 3.50000E+06 eV = 1.28623E+05 a.u.
 #
 # WARNING: High-energy factorization with free-atom DF screening.
 #          Absorption, polarization and exchange corrections are
 #          switched off.
 #          Phase shifts are calculated for the bare nucleus.
 #          Scattering amplitudes are not evaluated.
 #
 # Element:  V,  Z =  23,  atomic weight = 5.09415E+01 g/mol
 #
 # Nuclear model: Fermi distribution
 #                Average radius = 3.96650E-13 cm
 #                Skin thickness = 5.46000E-14 cm
 #
 # Number of electrons = 23
 #
 # Total elastic cross section = 1.95568E-18 cm**2 = 6.98388E-02 a0**2
 # 1st transport cross section = 5.02829E-23 cm**2 = 1.79563E-06 a0**2
 # 2nd transport cross section = 1.42569E-22 cm**2 = 5.09125E-06 a0**2
 #
 #
 # Differential cross section:                       MU=(1-COS(THETA))/2
 #
 #  THETA        MU          DCS          DCS        Sherman      error
 #  (deg)                 (cm**2/sr)   (a0**2/sr)    function
 #----------------------------------------------------------------------
0.00000E+00 4.21898E-13
7.61557E-13 4.21896E-13
1.18994E-12 4.21894E-13
1.71346E-12 4.21893E-13
2.33225E-12 4.21891E-13
3.04617E-12 4.21888E-13
3.85530E-12 4.21886E-13
4.75964E-12 4.21883E-13
5.75917E-12 4.21879E-13
6.85391E-12 4.21876E-13
8.04379E-12 4.21872E-13
9.32893E-12 4.21867E-13
1.07092E-11 4.21863E-13
1.21847E-11 4.21858E-13
1.37554E-11 4.21853E-13
1.54213E-11 4.21847E-13
1.71823E-11 4.21841E-13
1.90386E-11 4.21835E-13
2.09900E-11 4.21829E-13
2.30367E-11 4.21822E-13
2.51785E-11 4.21815E-13
2.74156E-11 4.21807E-13
2.97478E-11 4.21800E-13
3.21752E-11 4.21791E-13
3.46979E-11 4.21783E-13
3.73157E-11 4.21774E-13
4.00286E-11 4.21765E-13
4.28368E-11 4.21756E-13
4.57402E-11 4.21746E-13
4.87388E-11 4.21736E-13
5.18325E-11 4.21726E-13
5.50215E-11 4.21715E-13
5.83057E-11 4.21704E-13
6.16850E-11 4.21693E-13
6.51595E-11 4.21682E-13
6.87293E-11 4.21670E-13
7.23943E-11 4.21658E-13
7.61544E-11 4.21645E-13
1.18991E-10 4.21503E-13
1.71347E-10 4.21328E-13
2.33223E-10 4.21123E-13
3.04617E-10 4.20886E-13
3.85531E-10 4.20617E-13
4.75965E-10 4.20317E-13
5.75917E-10 4.19986E-13
6.85389E-10 4.19624E-13
8.04380E-10 4.19231E-13
9.32891E-10 4.18807E-13
1.07092E-09 4.18353E-13
1.21847E-09 4.17868E-13
1.37554E-09 4.17353E-13
1.54213E-09 4.16807E-13
1.71823E-09 4.16231E-13
1.90386E-09 4.15626E-13
2.09900E-09 4.14991E-13
2.30367E-09 4.14327E-13
2.51785E-09 4.13634E-13
2.74156E-09 4.12911E-13
2.97478E-09 4.12160E-13
3.21752E-09 4.11381E-13
3.46978E-09 4.10573E-13
3.73156E-09 4.09738E-13
4.00286E-09 4.08875E-13
4.28368E-09 4.07984E-13
4.57402E-09 4.07067E-13
4.87388E-09 4.06123E-13
5.18326E-09 4.05152E-13
5.50215E-09 4.04155E-13
5.83057E-09 4.03132E-13
6.16850E-09 4.02084E-13
6.51596E-09 4.01011E-13
6.87293E-09 3.99913E-13
7.23942E-09 3.98791E-13
7.61544E-09 3.97644E-13
1.18991E-08 3.84935E-13
1.71347E-08 3.70228E-13
2.33223E-08 3.53970E-13
3.04617E-08 3.36550E-13
3.85531E-08 3.18391E-13
4.75965E-08 2.99884E-13
5.75917E-08 2.81361E-13
6.85389E-08 2.63093E-13
8.04380E-08 2.45338E-13
9.32891E-08 2.28273E-13
1.07092E-07 2.12027E-13
1.21847E-07 1.96695E-13
1.37554E-07 1.82324E-13
1.54213E-07 1.68932E-13
1.71823E-07 1.56520E-13
1.90386E-07 1.45058E-13
2.09900E-07 1.34504E-13
2.30367E-07 1.24810E-13
2.51785E-07 1.15930E-13
2.74156E-07 1.07796E-13
2.97478E-07 1.00351E-13
3.21752E-07 9.35427E-14
3.46978E-07 8.73134E-14
3.73156E-07 8.16102E-14
4.00286E-07 7.63864E-14
4.28368E-07 7.15952E-14
4.57402E-07 6.71958E-14
4.87388E-07 6.31525E-14
5.18325E-07 5.94304E-14
5.50215E-07 5.59944E-14
5.83057E-07 5.28222E-14
6.16850E-07 4.98898E-14
6.51596E-07 4.71690E-14
6.87293E-07 4.46416E-14
7.23942E-07 4.22939E-14
7.61543E-07 4.01101E-14
1.18991E-06 2.45536E-14
1.71347E-06 1.55825E-14
2.33223E-06 1.04201E-14
3.04617E-06 7.03418E-15
3.85531E-06 4.86736E-15
4.75964E-06 3.45385E-15
5.75916E-06 2.50354E-15
6.85388E-06 1.84970E-15
8.04378E-06 1.39868E-15
9.32888E-06 1.07937E-15
1.07092E-05 8.48240E-16
1.21846E-05 6.77747E-16
1.37553E-05 5.49697E-16
1.54212E-05 4.51785E-16
1.71822E-05 3.75364E-16
1.90385E-05 3.14963E-16
2.09899E-05 2.66651E-16
2.30365E-05 2.27461E-16
2.51783E-05 1.95166E-16
2.74153E-05 1.68479E-16
2.97475E-05 1.46239E-16
3.21749E-05 1.27483E-16
3.46974E-05 1.11585E-16
3.73152E-05 9.80783E-17
4.00281E-05 8.65338E-17
4.28362E-05 7.65621E-17
4.57395E-05 6.79667E-17
4.87380E-05 6.05278E-17
5.18317E-05 5.40536E-17
5.50205E-05 4.83896E-17
5.83045E-05 4.34384E-17
6.16838E-05 3.90951E-17
6.51582E-05 3.52638E-17
6.87277E-05 3.18809E-17
7.23925E-05 2.88892E-17
7.61524E-05 2.62359E-17
9.21439E-05 1.81994E-17
1.09658E-04 1.29995E-17
1.28695E-04 9.52569E-18
1.49255E-04 7.13745E-18
1.71338E-04 5.45536E-18
1.94942E-04 4.24225E-18
2.20070E-04 3.35014E-18
2.46720E-04 2.68195E-18
2.74892E-04 2.17288E-18
3.04586E-04 1.77965E-18
3.35803E-04 1.47195E-18
3.68542E-04 1.22826E-18
4.02802E-04 1.03301E-18
4.38585E-04 8.75217E-19
4.75889E-04 7.46544E-19
5.14715E-04 6.40676E-19
5.55063E-04 5.52934E-19
5.96931E-04 4.79747E-19
6.40321E-04 4.18301E-19
6.85233E-04 3.66351E-19
7.31665E-04 3.22231E-19
7.79618E-04 2.84565E-19
8.29092E-04 2.52242E-19
8.80086E-04 2.24368E-19
9.32601E-04 2.00243E-19
9.86636E-04 1.79277E-19
1.04219E-03 1.60977E-19
1.09927E-03 1.44952E-19
1.15786E-03 1.30873E-19
1.21797E-03 1.18462E-19
1.27961E-03 1.07484E-19
1.34276E-03 9.77483E-20
1.40743E-03 8.90912E-20
1.47362E-03 8.13706E-20
1.54133E-03 7.44671E-20
1.61056E-03 6.82809E-20
1.68131E-03 6.27242E-20
1.75357E-03 5.77204E-20
1.82735E-03 5.32058E-20
1.90265E-03 4.91243E-20
1.97947E-03 4.54270E-20
2.05780E-03 4.20705E-20
2.13765E-03 3.90187E-20
2.21902E-03 3.62389E-20
2.30190E-03 3.37022E-20
2.38630E-03 3.13836E-20
2.47222E-03 2.92613E-20
2.55965E-03 2.73156E-20
2.64859E-03 2.55288E-20
2.73905E-03 2.38860E-20
2.83103E-03 2.23733E-20
2.92452E-03 2.09787E-20
3.01952E-03 1.96910E-20
3.11604E-03 1.85008E-20
3.21407E-03 1.73994E-20
3.31362E-03 1.63787E-20
3.41468E-03 1.54319E-20
3.51725E-03 1.45526E-20
3.62133E-03 1.37352E-20
3.72692E-03 1.29744E-20
3.83403E-03 1.22657E-20
3.94265E-03 1.16048E-20
4.05278E-03 1.09879E-20
4.16442E-03 1.04115E-20
4.27757E-03 9.87245E-21
4.39223E-03 9.36793E-21
4.50840E-03 8.89529E-21
4.62608E-03 8.45213E-21
4.74527E-03 8.03630E-21
4.86597E-03 7.64578E-21
4.98817E-03 7.27873E-21
5.11188E-03 6.93350E-21
5.23711E-03 6.60855E-21
5.36383E-03 6.30245E-21
5.49207E-03 6.01391E-21
5.62181E-03 5.74174E-21
5.75306E-03 5.48483E-21
5.88581E-03 5.24215E-21
6.02007E-03 5.01279E-21
6.15583E-03 4.79587E-21
6.29310E-03 4.59058E-21
6.43187E-03 4.39619E-21
6.57214E-03 4.21201E-21
6.71392E-03 4.03740E-21
6.85720E-03 3.87177E-21
7.00198E-03 3.71457E-21
7.14827E-03 3.56528E-21
7.29605E-03 3.42345E-21
7.44534E-03 3.28862E-21
7.59612E-03 3.16038E-21
7.97965E-03 2.86616E-21
8.37255E-03 2.60549E-21
8.77480E-03 2.37388E-21
9.18641E-03 2.16751E-21
9.60736E-03 1.98316E-21
1.00376E-02 1.81805E-21
1.04773E-02 1.66983E-21
1.09262E-02 1.53645E-21
1.13844E-02 1.41617E-21
1.18520E-02 1.30748E-21
1.23288E-02 1.20904E-21
1.28150E-02 1.11973E-21
1.33104E-02 1.03855E-21
1.38150E-02 9.64610E-22
1.43290E-02 8.97161E-22
1.48521E-02 8.35525E-22
1.53845E-02 7.79112E-22
1.59262E-02 7.27397E-22
1.64770E-02 6.79917E-22
1.70371E-02 6.36263E-22
1.76063E-02 5.96069E-22
1.81848E-02 5.59011E-22
1.87724E-02 5.24799E-22
1.93692E-02 4.93175E-22
1.99751E-02 4.63905E-22
2.05901E-02 4.36783E-22
2.12143E-02 4.11622E-22
2.18476E-02 3.88253E-22
2.24900E-02 3.66525E-22
2.31415E-02 3.46302E-22
2.38021E-02 3.27460E-22
2.44717E-02 3.09886E-22
2.51504E-02 2.93480E-22
2.58382E-02 2.78150E-22
2.65349E-02 2.63811E-22
2.72407E-02 2.50387E-22
2.79555E-02 2.37810E-22
2.86793E-02 2.26016E-22
2.94120E-02 2.14946E-22
3.01537E-02 2.04548E-22
3.09043E-02 1.94774E-22
3.16639E-02 1.85578E-22
3.24324E-02 1.76921E-22
3.32098E-02 1.68764E-22
3.39961E-02 1.61074E-22
3.47912E-02 1.53818E-22
3.55952E-02 1.46968E-22
3.64081E-02 1.40496E-22
3.72297E-02 1.34377E-22
3.80602E-02 1.28589E-22
3.88995E-02 1.23111E-22
3.97476E-02 1.17922E-22
4.06044E-02 1.13004E-22
4.14700E-02 1.08341E-22
4.23443E-02 1.03916E-22
4.32273E-02 9.97161E-23
4.41190E-02 9.57266E-23
4.50194E-02 9.19351E-23
4.59284E-02 8.83300E-23
4.68461E-02 8.49004E-23
4.87074E-02 7.85275E-23
5.06030E-02 7.27429E-23
5.25328E-02 6.74824E-23
5.44967E-02 6.26899E-23
5.64946E-02 5.83162E-23
5.85262E-02 5.43180E-23
6.05914E-02 5.06571E-23
6.26901E-02 4.73000E-23
6.48222E-02 4.42167E-23
6.69873E-02 4.13809E-23
6.91854E-02 3.87690E-23
7.14163E-02 3.63600E-23
7.36799E-02 3.41354E-23
7.59760E-02 3.20783E-23
7.83043E-02 3.01739E-23
8.06647E-02 2.84086E-23
8.30571E-02 2.67705E-23
8.54812E-02 2.52487E-23
8.79369E-02 2.38334E-23
9.04240E-02 2.25157E-23
9.29422E-02 2.12877E-23
9.54915E-02 2.01421E-23
9.80716E-02 1.90724E-23
1.00682E-01 1.80725E-23
1.03323E-01 1.71371E-23
1.05995E-01 1.62613E-23
1.08696E-01 1.54405E-23
1.11427E-01 1.46706E-23
1.14188E-01 1.39479E-23
1.16978E-01 1.32690E-23
1.19797E-01 1.26307E-23
1.22645E-01 1.20301E-23
1.25522E-01 1.14645E-23
1.28428E-01 1.09316E-23
1.31361E-01 1.04291E-23
1.34323E-01 9.95491E-24
1.37313E-01 9.50718E-24
1.40330E-01 9.08414E-24
1.43375E-01 8.68417E-24
1.46447E-01 8.30577E-24
1.49545E-01 7.94757E-24
1.52671E-01 7.60829E-24
1.55823E-01 7.28673E-24
1.59001E-01 6.98179E-24
1.62205E-01 6.69246E-24
1.65435E-01 6.41778E-24
1.68690E-01 6.15688E-24
1.71970E-01 5.90893E-24
1.75276E-01 5.67316E-24
1.78606E-01 5.44888E-24
1.81961E-01 5.23541E-24
1.85340E-01 5.03213E-24
1.88743E-01 4.83846E-24
1.92169E-01 4.65388E-24
1.95619E-01 4.47785E-24
1.99092E-01 4.30993E-24
2.02589E-01 4.14966E-24
2.06107E-01 3.99663E-24
2.09649E-01 3.85045E-24
2.13212E-01 3.71076E-24
2.16797E-01 3.57722E-24
2.20404E-01 3.44949E-24
2.24032E-01 3.32730E-24
2.27680E-01 3.21034E-24
2.31350E-01 3.09835E-24
2.35040E-01 2.99108E-24
2.38751E-01 2.88830E-24
2.42481E-01 2.78978E-24
2.46231E-01 2.69531E-24
2.50000E-01 2.60470E-24
2.53788E-01 2.51775E-24
2.57595E-01 2.43430E-24
2.61421E-01 2.35417E-24
2.65264E-01 2.27721E-24
2.69126E-01 2.20327E-24
2.73005E-01 2.13221E-24
2.76901E-01 2.06390E-24
2.80814E-01 1.99820E-24
2.84744E-01 1.93501E-24
2.88691E-01 1.87420E-24
2.92653E-01 1.81568E-24
2.96632E-01 1.75934E-24
3.00625E-01 1.70508E-24
3.04634E-01 1.65281E-24
3.08658E-01 1.60245E-24
3.12697E-01 1.55391E-24
3.16749E-01 1.50711E-24
3.20816E-01 1.46199E-24
3.24896E-01 1.41847E-24
3.28990E-01 1.37648E-24
3.33097E-01 1.33596E-24
3.37216E-01 1.29685E-24
3.41348E-01 1.25908E-24
3.45492E-01 1.22262E-24
3.49647E-01 1.18739E-24
3.53814E-01 1.15336E-24
3.57992E-01 1.12048E-24
3.62181E-01 1.08869E-24
3.66381E-01 1.05796E-24
3.70590E-01 1.02824E-24
3.74810E-01 9.99499E-25
3.79039E-01 9.71694E-25
3.83277E-01 9.44791E-25
3.87524E-01 9.18754E-25
3.91780E-01 8.93551E-25
3.96044E-01 8.69151E-25
4.00316E-01 8.45522E-25
4.04596E-01 8.22636E-25
4.08882E-01 8.00466E-25
4.13176E-01 7.78985E-25
4.17476E-01 7.58169E-25
4.21783E-01 7.37992E-25
4.26095E-01 7.18432E-25
4.30413E-01 6.99466E-25
4.34737E-01 6.81074E-25
4.39065E-01 6.63235E-25
4.43398E-01 6.45929E-25
4.47736E-01 6.29137E-25
4.52077E-01 6.12842E-25
4.56422E-01 5.97026E-25
4.60770E-01 5.81673E-25
4.65122E-01 5.66767E-25
4.69476E-01 5.52293E-25
4.73832E-01 5.38235E-25
4.78190E-01 5.24580E-25
4.82550E-01 5.11314E-25
4.86912E-01 4.98425E-25
4.91274E-01 4.85899E-25
4.95637E-01 4.73725E-25
5.00000E-01 4.61891E-25
5.04363E-01 4.50387E-25
5.08726E-01 4.39200E-25
5.13088E-01 4.28322E-25
5.17450E-01 4.17742E-25
5.21810E-01 4.07450E-25
5.26168E-01 3.97438E-25
5.30524E-01 3.87696E-25
5.34878E-01 3.78216E-25
5.39230E-01 3.68990E-25
5.43578E-01 3.60010E-25
5.47923E-01 3.51268E-25
5.52264E-01 3.42756E-25
5.56602E-01 3.34469E-25
5.60935E-01 3.26399E-25
5.65263E-01 3.18538E-25
5.69587E-01 3.10882E-25
5.73905E-01 3.03423E-25
5.78217E-01 2.96157E-25
5.82524E-01 2.89076E-25
5.86824E-01 2.82176E-25
5.91118E-01 2.75452E-25
5.95404E-01 2.68897E-25
5.99684E-01 2.62508E-25
6.03956E-01 2.56279E-25
6.08220E-01 2.50205E-25
6.12476E-01 2.44283E-25
6.16723E-01 2.38508E-25
6.20961E-01 2.32875E-25
6.25190E-01 2.27381E-25
6.29410E-01 2.22021E-25
6.33619E-01 2.16793E-25
6.37819E-01 2.11691E-25
6.42008E-01 2.06713E-25
6.46186E-01 2.01856E-25
6.50353E-01 1.97115E-25
6.54508E-01 1.92488E-25
6.58652E-01 1.87971E-25
6.62784E-01 1.83562E-25
6.66903E-01 1.79258E-25
6.71010E-01 1.75055E-25
6.75104E-01 1.70951E-25
6.79184E-01 1.66944E-25
6.83251E-01 1.63031E-25
6.87303E-01 1.59209E-25
6.91342E-01 1.55475E-25
6.95366E-01 1.51829E-25
6.99375E-01 1.48266E-25
7.03368E-01 1.44786E-25
7.07347E-01 1.41386E-25
7.11309E-01 1.38063E-25
7.15256E-01 1.34817E-25
7.19186E-01 1.31644E-25
7.23099E-01 1.28544E-25
7.26995E-01 1.25513E-25
7.30874E-01 1.22551E-25
7.34736E-01 1.19656E-25
7.38579E-01 1.16826E-25
7.42405E-01 1.14060E-25
7.46212E-01 1.11355E-25
7.50000E-01 1.08710E-25
7.53769E-01 1.06125E-25
7.57519E-01 1.03596E-25
7.61249E-01 1.01124E-25
7.64960E-01 9.87067E-26
7.68650E-01 9.63425E-26
7.72320E-01 9.40303E-26
7.75968E-01 9.17689E-26
7.79596E-01 8.95571E-26
7.83203E-01 8.73936E-26
7.86788E-01 8.52775E-26
7.90351E-01 8.32075E-26
7.93893E-01 8.11826E-26
7.97411E-01 7.92017E-26
8.00908E-01 7.72638E-26
8.04381E-01 7.53679E-26
8.07831E-01 7.35130E-26
8.11257E-01 7.16983E-26
8.14660E-01 6.99228E-26
8.18039E-01 6.81855E-26
8.21394E-01 6.64858E-26
8.24724E-01 6.48226E-26
8.28030E-01 6.31953E-26
8.31310E-01 6.16029E-26
8.34565E-01 6.00448E-26
8.37795E-01 5.85201E-26
8.40999E-01 5.70282E-26
8.44177E-01 5.55683E-26
8.47329E-01 5.41398E-26
8.50455E-01 5.27419E-26
8.53553E-01 5.13741E-26
8.56625E-01 5.00357E-26
8.59670E-01 4.87260E-26
8.62687E-01 4.74444E-26
8.65677E-01 4.61905E-26
8.68639E-01 4.49635E-26
8.71572E-01 4.37630E-26
8.74478E-01 4.25883E-26
8.77355E-01 4.14391E-26
8.80203E-01 4.03147E-26
8.83022E-01 3.92146E-26
8.85812E-01 3.81384E-26
8.88573E-01 3.70857E-26
8.91304E-01 3.60558E-26
8.94005E-01 3.50485E-26
8.96677E-01 3.40632E-26
8.99318E-01 3.30995E-26
9.01928E-01 3.21570E-26
9.04508E-01 3.12353E-26
9.07058E-01 3.03341E-26
9.09576E-01 2.94529E-26
9.12063E-01 2.85913E-26
9.14519E-01 2.77490E-26
9.16943E-01 2.69257E-26
9.19335E-01 2.61210E-26
9.21696E-01 2.53346E-26
9.24024E-01 2.45661E-26
9.26320E-01 2.38152E-26
9.28584E-01 2.30816E-26
9.30815E-01 2.23651E-26
9.33013E-01 2.16653E-26
9.35178E-01 2.09819E-26
9.37310E-01 2.03147E-26
9.39409E-01 1.96634E-26
9.41474E-01 1.90278E-26
9.43505E-01 1.84075E-26
9.45503E-01 1.78024E-26
9.47467E-01 1.72122E-26
9.49397E-01 1.66366E-26
9.51293E-01 1.60755E-26
9.53154E-01 1.55286E-26
9.54981E-01 1.49957E-26
9.56773E-01 1.44766E-26
9.58530E-01 1.39711E-26
9.60252E-01 1.34790E-26
9.61940E-01 1.30001E-26
9.63592E-01 1.25342E-26
9.65209E-01 1.20812E-26
9.66790E-01 1.16409E-26
9.68336E-01 1.12130E-26
9.69846E-01 1.07975E-26
9.71321E-01 1.03942E-26
9.72759E-01 1.00030E-26
9.74162E-01 9.62357E-27
9.75528E-01 9.25593E-27
9.76858E-01 8.89989E-27
9.78152E-01 8.55532E-27
9.79410E-01 8.22210E-27
9.80631E-01 7.90009E-27
9.81815E-01 7.58918E-27
9.82963E-01 7.28925E-27
9.84074E-01 7.00019E-27
9.85148E-01 6.72190E-27
9.86185E-01 6.45427E-27
9.87185E-01 6.19720E-27
9.88148E-01 5.95060E-27
9.89074E-01 5.71438E-27
9.89962E-01 5.48844E-27
9.90814E-01 5.27272E-27
9.91627E-01 5.06712E-27
9.92404E-01 4.87158E-27
9.93143E-01 4.68603E-27
9.93844E-01 4.51039E-27
9.94508E-01 4.34460E-27
9.95134E-01 4.18860E-27
9.95722E-01 4.04233E-27
9.96273E-01 3.90575E-27
9.96786E-01 3.77880E-27
9.97261E-01 3.66144E-27
9.97698E-01 3.55362E-27
9.98097E-01 3.45531E-27
9.98459E-01 3.36646E-27
9.98782E-01 3.28705E-27
9.99067E-01 3.21706E-27
9.99315E-01 3.15644E-27
9.99524E-01 3.10519E-27
9.99695E-01 3.06328E-27
9.99829E-01 3.03070E-27
9.99924E-01 3.00744E-27
9.99981E-01 2.99349E-27
1.00000E+00 2.98884E-27
