 #
 # Subroutine ELSEPA. Elastic scattering of electrons and positrons
 #                    by neutral atoms and positive ions
 #
 # Projectile: electron
 # Kinetic energy = 1.00000E+09 eV = 3.67493E+07 a.u.
 #
 # WARNING: High-energy factorization with free-atom DF screening.
 #          Absorption, polarization and exchange corrections are
 #          switched off.
 #          Phase shifts are calculated for the bare nucleus.
 #          Scattering amplitudes are not evaluated.
 #
 # Element:  V,  Z =  23,  atomic weight = 5.09415E+01 g/mol
 #
 # Nuclear model: Fermi distribution
 #                Average radius = 3.96650E-13 cm
 #                Skin thickness = 5.46000E-14 cm
 #
 # Number of electrons = 23
 #
 # Total elastic cross section = 1.89099E-18 cm**2 = 6.75285E-02 a0**2
 # 1st transport cross section = 1.10940E-27 cm**2 = 3.96173E-11 a0**2
 # 2nd transport cross section = 3.32777E-27 cm**2 = 1.18837E-10 a0**2
 #
 #
 # Differential cross section:                       MU=(1-COS(THETA))/2
 #
 #  THETA        MU          DCS          DCS        Sherman      error
 #  (deg)                 (cm**2/sr)   (a0**2/sr)    function
 #----------------------------------------------------------------------
0.00000E+00 2.62510E-08
7.61557E-13 1.85882E-08
1.18994E-12 1.57286E-08
1.71346E-12 1.31029E-08
2.33225E-12 1.08316E-08
3.04617E-12 8.94261E-09
3.85530E-12 7.40822E-09
4.75964E-12 6.17684E-09
5.75917E-12 5.19216E-09
6.85391E-12 4.40271E-09
8.04379E-12 3.76540E-09
9.32893E-12 3.24618E-09
1.07092E-11 2.81886E-09
1.21847E-11 2.46341E-09
1.37554E-11 2.16468E-09
1.54213E-11 1.91080E-09
1.71823E-11 1.69349E-09
1.90386E-11 1.50607E-09
2.09900E-11 1.34337E-09
2.30367E-11 1.20061E-09
2.51785E-11 1.06703E-09
2.74156E-11 9.53981E-10
2.97478E-11 8.57737E-10
3.21752E-11 7.75328E-10
3.46979E-11 7.04376E-10
3.73157E-11 6.36497E-10
4.00286E-11 5.73474E-10
4.28368E-11 5.18879E-10
4.57402E-11 4.71373E-10
4.87388E-11 4.29856E-10
5.18325E-11 3.93002E-10
5.50215E-11 3.56788E-10
5.83057E-11 3.24952E-10
6.16850E-11 2.96865E-10
6.51595E-11 2.72002E-10
6.87293E-11 2.49921E-10
7.23943E-11 2.29315E-10
7.61544E-11 2.10387E-10
1.18991E-10 9.77000E-11
1.71347E-10 5.16205E-11
2.33223E-10 3.02775E-11
3.04617E-10 1.91638E-11
3.85531E-10 1.28004E-11
4.75965E-10 8.88788E-12
5.75917E-10 6.35427E-12
6.85389E-10 4.64824E-12
8.04380E-10 3.46841E-12
9.32891E-10 2.63370E-12
1.07092E-09 2.03128E-12
1.21847E-09 1.58898E-12
1.37554E-09 1.25927E-12
1.54213E-09 1.00995E-12
1.71823E-09 8.19042E-13
1.90386E-09 6.71008E-13
2.09900E-09 5.54891E-13
2.30367E-09 4.62832E-13
2.51785E-09 3.89064E-13
2.74156E-09 3.29583E-13
2.97478E-09 2.81016E-13
3.21752E-09 2.41153E-13
3.46978E-09 2.08126E-13
3.73156E-09 1.80600E-13
4.00286E-09 1.57499E-13
4.28368E-09 1.37991E-13
4.57402E-09 1.21434E-13
4.87388E-09 1.07286E-13
5.18326E-09 9.51616E-14
5.50215E-09 8.46941E-14
5.83057E-09 7.56448E-14
6.16850E-09 6.77644E-14
6.51596E-09 6.08942E-14
6.87293E-09 5.48699E-14
7.23942E-09 4.95763E-14
7.61544E-09 4.49060E-14
1.18991E-08 1.87315E-14
1.71347E-08 9.13476E-15
2.33223E-08 4.96476E-15
3.04617E-08 2.92282E-15
3.85531E-08 1.82984E-15
4.75965E-08 1.20281E-15
5.75917E-08 8.22599E-16
6.85389E-08 5.81343E-16
8.04380E-08 4.22352E-16
9.32891E-08 3.14161E-16
1.07092E-07 2.38487E-16
1.21847E-07 1.84280E-16
1.37554E-07 1.44632E-16
1.54213E-07 1.15093E-16
1.71823E-07 9.27240E-17
1.90386E-07 7.55338E-17
2.09900E-07 6.21484E-17
2.30367E-07 5.16007E-17
2.51785E-07 4.31985E-17
2.74156E-07 3.64388E-17
2.97478E-07 3.09510E-17
3.21752E-07 2.64584E-17
3.46978E-07 2.27521E-17
3.73156E-07 1.96727E-17
4.00286E-07 1.70970E-17
4.28368E-07 1.49294E-17
4.57402E-07 1.30946E-17
4.87388E-07 1.15333E-17
5.18325E-07 1.01979E-17
5.50215E-07 9.05024E-18
5.83057E-07 8.05961E-18
6.16850E-07 7.20089E-18
6.51596E-07 6.45355E-18
6.87293E-07 5.80069E-18
7.23942E-07 5.22835E-18
7.61543E-07 4.72488E-18
1.18991E-06 1.93562E-18
1.71347E-06 9.33582E-19
2.33223E-06 5.03985E-19
3.04617E-06 2.95460E-19
3.85531E-06 1.84475E-19
4.75964E-06 1.21047E-19
5.75916E-06 8.26858E-20
6.85388E-06 5.83880E-20
8.04378E-06 4.23956E-20
9.32888E-06 3.15230E-20
1.07092E-05 2.39232E-20
1.21846E-05 1.84821E-20
1.37553E-05 1.45038E-20
1.54212E-05 1.15407E-20
1.71822E-05 9.29721E-21
1.90385E-05 7.57353E-21
2.09899E-05 6.23184E-21
2.30365E-05 5.17441E-21
2.51783E-05 4.33192E-21
2.74153E-05 3.65406E-21
2.97475E-05 3.10375E-21
3.21749E-05 2.65329E-21
3.46974E-05 2.28173E-21
3.73152E-05 1.97305E-21
4.00281E-05 1.71489E-21
4.28362E-05 1.49762E-21
4.57395E-05 1.31369E-21
4.87380E-05 1.15715E-21
5.18317E-05 1.02323E-21
5.50205E-05 9.08143E-22
5.83045E-05 8.08793E-22
6.16838E-05 7.22673E-22
6.51582E-05 6.47725E-22
6.87277E-05 5.82255E-22
7.23925E-05 5.24857E-22
7.61524E-05 4.60963E-22
9.21439E-05 3.12838E-22
1.09658E-04 2.19314E-22
1.28695E-04 1.57978E-22
1.49255E-04 1.16438E-22
1.71338E-04 8.75312E-23
1.94942E-04 6.69313E-23
2.20070E-04 5.19479E-23
2.46720E-04 4.08504E-23
2.74892E-04 3.24983E-23
3.04586E-04 2.61225E-23
3.35803E-04 2.11924E-23
3.68542E-04 1.73364E-23
4.02802E-04 1.42887E-23
4.38585E-04 1.18572E-23
4.75889E-04 9.90043E-24
5.14715E-04 8.31324E-24
5.55063E-04 7.01653E-24
5.96931E-04 5.95003E-24
6.40321E-04 5.06752E-24
6.85233E-04 4.33309E-24
7.31665E-04 3.71869E-24
7.79618E-04 3.20220E-24
8.29092E-04 2.76605E-24
8.80086E-04 2.39620E-24
9.32601E-04 2.08133E-24
9.86636E-04 1.81230E-24
1.04219E-03 1.58165E-24
1.09927E-03 1.38327E-24
1.15786E-03 1.21214E-24
1.21797E-03 1.06411E-24
1.27961E-03 9.35717E-25
1.34276E-03 8.24095E-25
1.40743E-03 7.26828E-25
1.47362E-03 6.41889E-25
1.54133E-03 5.67567E-25
1.61056E-03 5.02414E-25
1.68131E-03 4.45197E-25
1.75357E-03 3.94868E-25
1.82735E-03 3.50530E-25
1.90265E-03 3.11413E-25
1.97947E-03 2.76857E-25
2.05780E-03 2.46292E-25
2.13765E-03 2.19226E-25
2.21902E-03 1.95232E-25
2.30190E-03 1.73941E-25
2.38630E-03 1.55031E-25
2.47222E-03 1.38220E-25
2.55965E-03 1.23266E-25
2.64859E-03 1.09952E-25
2.73905E-03 9.80923E-26
2.83103E-03 8.75209E-26
2.92452E-03 7.80931E-26
3.01952E-03 6.96813E-26
3.11604E-03 6.21729E-26
3.21407E-03 5.54686E-26
3.31362E-03 4.94804E-26
3.41468E-03 4.41306E-26
3.51725E-03 3.93501E-26
3.62133E-03 3.50778E-26
3.72692E-03 3.12593E-26
3.83403E-03 2.78461E-26
3.94265E-03 2.47954E-26
4.05278E-03 2.20687E-26
4.16442E-03 1.96319E-26
4.27757E-03 1.74544E-26
4.39223E-03 1.55091E-26
4.50840E-03 1.37716E-26
4.62608E-03 1.22202E-26
4.74527E-03 1.08355E-26
4.86597E-03 9.59989E-27
4.98817E-03 8.49793E-27
5.11188E-03 7.51562E-27
5.23711E-03 6.64044E-27
5.36383E-03 5.86118E-27
5.49207E-03 5.16777E-27
5.62181E-03 4.55119E-27
5.75306E-03 4.00335E-27
5.88581E-03 3.51700E-27
6.02007E-03 3.08560E-27
6.15583E-03 2.70332E-27
6.29310E-03 2.36492E-27
6.43187E-03 2.06568E-27
6.57214E-03 1.80138E-27
6.71392E-03 1.56825E-27
6.85720E-03 1.36287E-27
7.00198E-03 1.18221E-27
7.14827E-03 1.02353E-27
7.29605E-03 8.84382E-28
7.44534E-03 7.62584E-28
7.59612E-03 6.56168E-28
7.97965E-03 4.46358E-28
8.37255E-03 2.99486E-28
8.77480E-03 1.98419E-28
9.18641E-03 1.30315E-28
9.60736E-03 8.56077E-29
1.00376E-02 5.72282E-29
1.04773E-02 4.00012E-29
1.09262E-02 3.01820E-29
1.13844E-02 2.51000E-29
1.18520E-02 2.28849E-29
1.23288E-02 2.22570E-29
1.28150E-02 2.23686E-29
1.33104E-02 2.26822E-29
1.38150E-02 2.28804E-29
1.43290E-02 2.27973E-29
1.48521E-02 2.23687E-29
1.53845E-02 2.15957E-29
1.59262E-02 2.05178E-29
1.64770E-02 1.91953E-29
1.70371E-02 1.76958E-29
1.76063E-02 1.60867E-29
1.81848E-02 1.44296E-29
1.87724E-02 1.27777E-29
1.93692E-02 1.11744E-29
1.99751E-02 9.65329E-30
2.05901E-02 8.23867E-30
2.12143E-02 6.94640E-30
2.18476E-02 5.78513E-30
2.24900E-02 4.75756E-30
2.31415E-02 3.86161E-30
2.38021E-02 3.09160E-30
2.44717E-02 2.43927E-30
2.51504E-02 1.89462E-30
2.58382E-02 1.44670E-30
2.65349E-02 1.08415E-30
2.72407E-02 7.95711E-31
2.79555E-02 5.70584E-31
2.86793E-02 3.98649E-31
2.94120E-02 2.70652E-31
3.01537E-02 1.78300E-31
3.09043E-02 1.14296E-31
3.16639E-02 7.23358E-32
3.24324E-02 4.70690E-32
3.32098E-02 3.40373E-32
3.39961E-02 2.95971E-32
3.47912E-02 3.08330E-32
3.55952E-02 3.54685E-32
3.64081E-02 4.17761E-32
3.72297E-02 4.84918E-32
3.80602E-02 5.47350E-32
3.88995E-02 5.99350E-32
3.97476E-02 6.37663E-32
4.06044E-02 6.60914E-32
4.14700E-02 6.69118E-32
4.23443E-02 6.63271E-32
4.32273E-02 6.45015E-32
4.41190E-02 6.16364E-32
4.50194E-02 5.79496E-32
4.59284E-02 5.36588E-32
4.68461E-02 4.89708E-32
4.87074E-02 3.91289E-32
5.06030E-02 2.96230E-32
5.25328E-02 2.12328E-32
5.44967E-02 1.43551E-32
5.64946E-02 9.08663E-33
5.85262E-02 5.31764E-33
6.05914E-02 2.81956E-33
6.26901E-02 1.31496E-33
6.48222E-02 5.27752E-34
6.69873E-02 2.14302E-34
6.91854E-02 1.78806E-34
7.14163E-02 2.77064E-34
7.36799E-02 4.12615E-34
7.59760E-02 5.28678E-34
7.83043E-02 5.98506E-34
8.06647E-02 6.15961E-34
8.30571E-02 5.87370E-34
8.54812E-02 5.25144E-34
8.79369E-02 4.43267E-34
9.04240E-02 3.54448E-34
9.29422E-02 2.68635E-34
9.54915E-02 1.92530E-34
9.80716E-02 1.29760E-34
1.00682E-01 8.14244E-35
1.03323E-01 4.67848E-35
1.05995E-01 2.39583E-35
1.08696E-01 1.05133E-35
1.11427E-01 3.92671E-36
1.14188E-01 1.89461E-36
1.16978E-01 2.50811E-36
1.19797E-01 4.32197E-36
1.22645E-01 6.34512E-36
1.25522E-01 7.98265E-36
1.28428E-01 8.95291E-36
1.31361E-01 9.19918E-36
1.34323E-01 8.80760E-36
1.37313E-01 7.93899E-36
1.40330E-01 6.77733E-36
1.43375E-01 5.49490E-36
1.46447E-01 4.23210E-36
1.49545E-01 3.08892E-36
1.52671E-01 2.12493E-36
1.55823E-01 1.36447E-36
1.59001E-01 8.04729E-37
1.62205E-01 4.24449E-37
1.65435E-01 1.92006E-37
1.68690E-01 7.20615E-38
1.71970E-01 3.04567E-38
1.75276E-01 3.73492E-38
1.78606E-01 6.88621E-38
1.81961E-01 1.07534E-37
1.85340E-01 1.41939E-37
1.88743E-01 1.65785E-37
1.92169E-01 1.76773E-37
1.95619E-01 1.75398E-37
1.99092E-01 1.63864E-37
2.02589E-01 1.45172E-37
2.06107E-01 1.22439E-37
2.09649E-01 9.84464E-38
2.13212E-01 7.53920E-38
2.16797E-01 5.48032E-38
2.20404E-01 3.75629E-38
2.24032E-01 2.40045E-38
2.27680E-01 1.40383E-38
2.31350E-01 1.00000E-45
2.35040E-01 1.00000E-45
2.38751E-01 1.00000E-45
2.42481E-01 1.00000E-45
2.46231E-01 1.00000E-45
2.50000E-01 1.00000E-45
2.53788E-01 1.00000E-45
2.57595E-01 1.00000E-45
2.61421E-01 1.00000E-45
2.65264E-01 1.00000E-45
2.69126E-01 1.00000E-45
2.73005E-01 1.00000E-45
2.76901E-01 1.00000E-45
2.80814E-01 1.00000E-45
2.84744E-01 1.00000E-45
2.88691E-01 1.00000E-45
2.92653E-01 1.00000E-45
2.96632E-01 1.00000E-45
3.00625E-01 1.00000E-45
3.04634E-01 1.00000E-45
3.08658E-01 1.00000E-45
3.12697E-01 1.00000E-45
3.16749E-01 1.00000E-45
3.20816E-01 1.00000E-45
3.24896E-01 1.00000E-45
3.28990E-01 1.00000E-45
3.33097E-01 1.00000E-45
3.37216E-01 1.00000E-45
3.41348E-01 1.00000E-45
3.45492E-01 1.00000E-45
3.49647E-01 1.00000E-45
3.53814E-01 1.00000E-45
3.57992E-01 1.00000E-45
3.62181E-01 1.00000E-45
3.66381E-01 1.00000E-45
3.70590E-01 1.00000E-45
3.74810E-01 1.00000E-45
3.79039E-01 1.00000E-45
3.83277E-01 1.00000E-45
3.87524E-01 1.00000E-45
3.91780E-01 1.00000E-45
3.96044E-01 1.00000E-45
4.00316E-01 1.00000E-45
4.04596E-01 1.00000E-45
4.08882E-01 1.00000E-45
4.13176E-01 1.00000E-45
4.17476E-01 1.00000E-45
4.21783E-01 1.00000E-45
4.26095E-01 1.00000E-45
4.30413E-01 1.00000E-45
4.34737E-01 1.00000E-45
4.39065E-01 1.00000E-45
4.43398E-01 1.00000E-45
4.47736E-01 1.00000E-45
4.52077E-01 1.00000E-45
4.56422E-01 1.00000E-45
4.60770E-01 1.00000E-45
4.65122E-01 1.00000E-45
4.69476E-01 1.00000E-45
4.73832E-01 1.00000E-45
4.78190E-01 1.00000E-45
4.82550E-01 1.00000E-45
4.86912E-01 1.00000E-45
4.91274E-01 1.00000E-45
4.95637E-01 1.00000E-45
5.00000E-01 1.00000E-45
5.04363E-01 1.00000E-45
5.08726E-01 1.00000E-45
5.13088E-01 1.00000E-45
5.17450E-01 1.00000E-45
5.21810E-01 1.00000E-45
5.26168E-01 1.00000E-45
5.30524E-01 1.00000E-45
5.34878E-01 1.00000E-45
5.39230E-01 1.00000E-45
5.43578E-01 1.00000E-45
5.47923E-01 1.00000E-45
5.52264E-01 1.00000E-45
5.56602E-01 1.00000E-45
5.60935E-01 1.00000E-45
5.65263E-01 1.00000E-45
5.69587E-01 1.00000E-45
5.73905E-01 1.00000E-45
5.78217E-01 1.00000E-45
5.82524E-01 1.00000E-45
5.86824E-01 1.00000E-45
5.91118E-01 1.00000E-45
5.95404E-01 1.00000E-45
5.99684E-01 1.00000E-45
6.03956E-01 1.00000E-45
6.08220E-01 1.00000E-45
6.12476E-01 1.00000E-45
6.16723E-01 1.00000E-45
6.20961E-01 1.00000E-45
6.25190E-01 1.00000E-45
6.29410E-01 1.00000E-45
6.33619E-01 1.00000E-45
6.37819E-01 1.00000E-45
6.42008E-01 1.00000E-45
6.46186E-01 1.00000E-45
6.50353E-01 1.00000E-45
6.54508E-01 1.00000E-45
6.58652E-01 1.00000E-45
6.62784E-01 1.00000E-45
6.66903E-01 1.00000E-45
6.71010E-01 1.00000E-45
6.75104E-01 1.00000E-45
6.79184E-01 1.00000E-45
6.83251E-01 1.00000E-45
6.87303E-01 1.00000E-45
6.91342E-01 1.00000E-45
6.95366E-01 1.00000E-45
6.99375E-01 1.00000E-45
7.03368E-01 1.00000E-45
7.07347E-01 1.00000E-45
7.11309E-01 1.00000E-45
7.15256E-01 1.00000E-45
7.19186E-01 1.00000E-45
7.23099E-01 1.00000E-45
7.26995E-01 1.00000E-45
7.30874E-01 1.00000E-45
7.34736E-01 1.00000E-45
7.38579E-01 1.00000E-45
7.42405E-01 1.00000E-45
7.46212E-01 1.00000E-45
7.50000E-01 1.00000E-45
7.53769E-01 1.00000E-45
7.57519E-01 1.00000E-45
7.61249E-01 1.00000E-45
7.64960E-01 1.00000E-45
7.68650E-01 1.00000E-45
7.72320E-01 1.00000E-45
7.75968E-01 1.00000E-45
7.79596E-01 1.00000E-45
7.83203E-01 1.00000E-45
7.86788E-01 1.00000E-45
7.90351E-01 1.00000E-45
7.93893E-01 1.00000E-45
7.97411E-01 1.00000E-45
8.00908E-01 1.00000E-45
8.04381E-01 1.00000E-45
8.07831E-01 1.00000E-45
8.11257E-01 1.00000E-45
8.14660E-01 1.00000E-45
8.18039E-01 1.00000E-45
8.21394E-01 1.00000E-45
8.24724E-01 1.00000E-45
8.28030E-01 1.00000E-45
8.31310E-01 1.00000E-45
8.34565E-01 1.00000E-45
8.37795E-01 1.00000E-45
8.40999E-01 1.00000E-45
8.44177E-01 1.00000E-45
8.47329E-01 1.00000E-45
8.50455E-01 1.00000E-45
8.53553E-01 1.00000E-45
8.56625E-01 1.00000E-45
8.59670E-01 1.00000E-45
8.62687E-01 1.00000E-45
8.65677E-01 1.00000E-45
8.68639E-01 1.00000E-45
8.71572E-01 1.00000E-45
8.74478E-01 1.00000E-45
8.77355E-01 1.00000E-45
8.80203E-01 1.00000E-45
8.83022E-01 1.00000E-45
8.85812E-01 1.00000E-45
8.88573E-01 1.00000E-45
8.91304E-01 1.00000E-45
8.94005E-01 1.00000E-45
8.96677E-01 1.00000E-45
8.99318E-01 1.00000E-45
9.01928E-01 1.00000E-45
9.04508E-01 1.00000E-45
9.07058E-01 1.00000E-45
9.09576E-01 1.00000E-45
9.12063E-01 1.00000E-45
9.14519E-01 1.00000E-45
9.16943E-01 1.00000E-45
9.19335E-01 1.00000E-45
9.21696E-01 1.00000E-45
9.24024E-01 1.00000E-45
9.26320E-01 1.00000E-45
9.28584E-01 1.00000E-45
9.30815E-01 1.00000E-45
9.33013E-01 1.00000E-45
9.35178E-01 1.00000E-45
9.37310E-01 1.00000E-45
9.39409E-01 1.00000E-45
9.41474E-01 1.00000E-45
9.43505E-01 1.00000E-45
9.45503E-01 1.00000E-45
9.47467E-01 1.00000E-45
9.49397E-01 1.00000E-45
9.51293E-01 1.00000E-45
9.53154E-01 1.00000E-45
9.54981E-01 1.00000E-45
9.56773E-01 1.00000E-45
9.58530E-01 1.00000E-45
9.60252E-01 1.00000E-45
9.61940E-01 1.00000E-45
9.63592E-01 1.00000E-45
9.65209E-01 1.00000E-45
9.66790E-01 1.00000E-45
9.68336E-01 1.00000E-45
9.69846E-01 1.00000E-45
9.71321E-01 1.00000E-45
9.72759E-01 1.00000E-45
9.74162E-01 1.00000E-45
9.75528E-01 1.00000E-45
9.76858E-01 1.00000E-45
9.78152E-01 1.00000E-45
9.79410E-01 1.00000E-45
9.80631E-01 1.00000E-45
9.81815E-01 1.00000E-45
9.82963E-01 1.00000E-45
9.84074E-01 1.00000E-45
9.85148E-01 1.00000E-45
9.86185E-01 1.00000E-45
9.87185E-01 1.00000E-45
9.88148E-01 1.00000E-45
9.89074E-01 1.00000E-45
9.89962E-01 1.00000E-45
9.90814E-01 1.00000E-45
9.91627E-01 1.00000E-45
9.92404E-01 1.00000E-45
9.93143E-01 1.00000E-45
9.93844E-01 1.00000E-45
9.94508E-01 1.00000E-45
9.95134E-01 1.00000E-45
9.95722E-01 1.00000E-45
9.96273E-01 1.00000E-45
9.96786E-01 1.00000E-45
9.97261E-01 1.00000E-45
9.97698E-01 1.00000E-45
9.98097E-01 1.00000E-45
9.98459E-01 1.00000E-45
9.98782E-01 1.00000E-45
9.99067E-01 1.00000E-45
9.99315E-01 1.00000E-45
9.99524E-01 1.00000E-45
9.99695E-01 1.00000E-45
9.99829E-01 1.00000E-45
9.99924E-01 1.00000E-45
9.99981E-01 1.00000E-45
1.00000E+00 1.00000E-45
