 #
 # Subroutine ELSEPA. Elastic scattering of electrons and positrons
 #                    by neutral atoms and positive ions
 #
 # Projectile: electron
 # Kinetic energy = 6.00000E+06 eV = 2.20496E+05 a.u.
 #
 # WARNING: High-energy factorization with free-atom DF screening.
 #          Absorption, polarization and exchange corrections are
 #          switched off.
 #          Phase shifts are calculated for the bare nucleus.
 #          Scattering amplitudes are not evaluated.
 #
 # Element:  V,  Z =  23,  atomic weight = 5.09415E+01 g/mol
 #
 # Nuclear model: Fermi distribution
 #                Average radius = 3.96650E-13 cm
 #                Skin thickness = 5.46000E-14 cm
 #
 # Number of electrons = 23
 #
 # Total elastic cross section = 1.93548E-18 cm**2 = 6.91174E-02 a0**2
 # 1st transport cross section = 2.02808E-23 cm**2 = 7.24242E-07 a0**2
 # 2nd transport cross section = 5.78066E-23 cm**2 = 2.06431E-06 a0**2
 #
 #
 # Differential cross section:                       MU=(1-COS(THETA))/2
 #
 #  THETA        MU          DCS          DCS        Sherman      error
 #  (deg)                 (cm**2/sr)   (a0**2/sr)    function
 #----------------------------------------------------------------------
0.00000E+00 1.11173E-12
7.61557E-13 1.11171E-12
1.18994E-12 1.11170E-12
1.71346E-12 1.11169E-12
2.33225E-12 1.11167E-12
3.04617E-12 1.11166E-12
3.85530E-12 1.11164E-12
4.75964E-12 1.11162E-12
5.75917E-12 1.11159E-12
6.85391E-12 1.11157E-12
8.04379E-12 1.11154E-12
9.32893E-12 1.11151E-12
1.07092E-11 1.11148E-12
1.21847E-11 1.11144E-12
1.37554E-11 1.11140E-12
1.54213E-11 1.11137E-12
1.71823E-11 1.11132E-12
1.90386E-11 1.11128E-12
2.09900E-11 1.11124E-12
2.30367E-11 1.11119E-12
2.51785E-11 1.11114E-12
2.74156E-11 1.11109E-12
2.97478E-11 1.11103E-12
3.21752E-11 1.11097E-12
3.46979E-11 1.11092E-12
3.73157E-11 1.11085E-12
4.00286E-11 1.11079E-12
4.28368E-11 1.11072E-12
4.57402E-11 1.11066E-12
4.87388E-11 1.11059E-12
5.18325E-11 1.11051E-12
5.50215E-11 1.11044E-12
5.83057E-11 1.11036E-12
6.16850E-11 1.11028E-12
6.51595E-11 1.11020E-12
6.87293E-11 1.11012E-12
7.23943E-11 1.11003E-12
7.61544E-11 1.10995E-12
1.18991E-10 1.10895E-12
1.71347E-10 1.10773E-12
2.33223E-10 1.10629E-12
3.04617E-10 1.10464E-12
3.85531E-10 1.10276E-12
4.75965E-10 1.10068E-12
5.75917E-10 1.09838E-12
6.85389E-10 1.09587E-12
8.04380E-10 1.09315E-12
9.32891E-10 1.09023E-12
1.07092E-09 1.08711E-12
1.21847E-09 1.08378E-12
1.37554E-09 1.08026E-12
1.54213E-09 1.07654E-12
1.71823E-09 1.07263E-12
1.90386E-09 1.06854E-12
2.09900E-09 1.06426E-12
2.30367E-09 1.05979E-12
2.51785E-09 1.05516E-12
2.74156E-09 1.05035E-12
2.97478E-09 1.04537E-12
3.21752E-09 1.04023E-12
3.46978E-09 1.03492E-12
3.73156E-09 1.02947E-12
4.00286E-09 1.02385E-12
4.28368E-09 1.01810E-12
4.57402E-09 1.01220E-12
4.87388E-09 1.00616E-12
5.18326E-09 9.99989E-13
5.50215E-09 9.93687E-13
5.83057E-09 9.87251E-13
6.16850E-09 9.80699E-13
6.51596E-09 9.74037E-13
6.87293E-09 9.67269E-13
7.23942E-09 9.60402E-13
7.61544E-09 9.53439E-13
1.18991E-08 8.79364E-13
1.71347E-08 8.00499E-13
2.33223E-08 7.20968E-13
3.04617E-08 6.44031E-13
3.85531E-08 5.71939E-13
4.75965E-08 5.06032E-13
5.75917E-08 4.46906E-13
6.85389E-08 3.94623E-13
8.04380E-08 3.48841E-13
9.32891E-08 3.09018E-13
1.07092E-07 2.74513E-13
1.21847E-07 2.44668E-13
1.37554E-07 2.18852E-13
1.54213E-07 1.96481E-13
1.71823E-07 1.77044E-13
1.90386E-07 1.60099E-13
2.09900E-07 1.45270E-13
2.30367E-07 1.32234E-13
2.51785E-07 1.20711E-13
2.74156E-07 1.10491E-13
2.97478E-07 1.01388E-13
3.21752E-07 9.32446E-14
3.46978E-07 8.59317E-14
3.73156E-07 7.93281E-14
4.00286E-07 7.33492E-14
4.28368E-07 6.79236E-14
4.57402E-07 6.29859E-14
4.87388E-07 5.84801E-14
5.18325E-07 5.43563E-14
5.50215E-07 5.05091E-14
5.83057E-07 4.67669E-14
6.16850E-07 4.34126E-14
6.51596E-07 4.03981E-14
6.87293E-07 3.76824E-14
7.23942E-07 3.52297E-14
7.61543E-07 3.30095E-14
1.18991E-06 1.75130E-14
1.71347E-06 9.78091E-15
2.33223E-06 5.78561E-15
3.04617E-06 3.63191E-15
3.85531E-06 2.40550E-15
4.75964E-06 1.66825E-15
5.75916E-06 1.20172E-15
6.85388E-06 8.91997E-16
8.04378E-06 6.78369E-16
9.32888E-06 5.26058E-16
1.07092E-05 4.14474E-16
1.21846E-05 3.30897E-16
1.37553E-05 2.67046E-16
1.54212E-05 2.17585E-16
1.71822E-05 1.78867E-16
1.90385E-05 1.48228E-16
2.09899E-05 1.23756E-16
2.30365E-05 1.04023E-16
2.51783E-05 8.79719E-17
2.74153E-05 7.48474E-17
2.97475E-05 6.40454E-17
3.21749E-05 5.51002E-17
3.46974E-05 4.76491E-17
3.73152E-05 4.14047E-17
4.00281E-05 3.61445E-17
4.28362E-05 3.16904E-17
4.57395E-05 2.78997E-17
4.87380E-05 2.46579E-17
5.18317E-05 2.18732E-17
5.50205E-05 1.94700E-17
5.83045E-05 1.73869E-17
6.16838E-05 1.55785E-17
6.51582E-05 1.40023E-17
6.87277E-05 1.26188E-17
7.23925E-05 1.14032E-17
7.61524E-05 1.03324E-17
9.21439E-05 7.12736E-18
1.09658E-04 5.07825E-18
1.28695E-04 3.71804E-18
1.49255E-04 2.78558E-18
1.71338E-04 2.12867E-18
1.94942E-04 1.65478E-18
2.20070E-04 1.30576E-18
2.46720E-04 1.04409E-18
2.74892E-04 8.44802E-19
3.04586E-04 6.90859E-19
3.35803E-04 5.70410E-19
3.68542E-04 4.75080E-19
4.02802E-04 3.98820E-19
4.38585E-04 3.37252E-19
4.75889E-04 2.87108E-19
5.14715E-04 2.45937E-19
5.55063E-04 2.11882E-19
5.96931E-04 1.83514E-19
6.40321E-04 1.59734E-19
6.85233E-04 1.39682E-19
7.31665E-04 1.22677E-19
7.79618E-04 1.08183E-19
8.29092E-04 9.57655E-20
8.80086E-04 8.50788E-20
9.32601E-04 7.58418E-20
9.86636E-04 6.78250E-20
1.04219E-03 6.08401E-20
1.09927E-03 5.47318E-20
1.15786E-03 4.93711E-20
1.21797E-03 4.46512E-20
1.27961E-03 4.04823E-20
1.34276E-03 3.67890E-20
1.40743E-03 3.35078E-20
1.47362E-03 3.05845E-20
1.54133E-03 2.79734E-20
1.61056E-03 2.56354E-20
1.68131E-03 2.35368E-20
1.75357E-03 2.16488E-20
1.82735E-03 1.99467E-20
1.90265E-03 1.84087E-20
1.97947E-03 1.70163E-20
2.05780E-03 1.57533E-20
2.13765E-03 1.46055E-20
2.21902E-03 1.35605E-20
2.30190E-03 1.26074E-20
2.38630E-03 1.17368E-20
2.47222E-03 1.09401E-20
2.55965E-03 1.02100E-20
2.64859E-03 9.53991E-21
2.73905E-03 8.92400E-21
2.83103E-03 8.35709E-21
2.92452E-03 7.83457E-21
3.01952E-03 7.35233E-21
3.11604E-03 6.90670E-21
3.21407E-03 6.49440E-21
3.31362E-03 6.11247E-21
3.41468E-03 5.75827E-21
3.51725E-03 5.42941E-21
3.62133E-03 5.12374E-21
3.72692E-03 4.83934E-21
3.83403E-03 4.57444E-21
3.94265E-03 4.32745E-21
4.05278E-03 4.09696E-21
4.16442E-03 3.88164E-21
4.27757E-03 3.68032E-21
4.39223E-03 3.49192E-21
4.50840E-03 3.31544E-21
4.62608E-03 3.15001E-21
4.74527E-03 2.99479E-21
4.86597E-03 2.84904E-21
4.98817E-03 2.71207E-21
5.11188E-03 2.58326E-21
5.23711E-03 2.46202E-21
5.36383E-03 2.34783E-21
5.49207E-03 2.24021E-21
5.62181E-03 2.13870E-21
5.75306E-03 2.04289E-21
5.88581E-03 1.95240E-21
6.02007E-03 1.86688E-21
6.15583E-03 1.78600E-21
6.29310E-03 1.70947E-21
6.43187E-03 1.63701E-21
6.57214E-03 1.56836E-21
6.71392E-03 1.50328E-21
6.85720E-03 1.44155E-21
7.00198E-03 1.38296E-21
7.14827E-03 1.32734E-21
7.29605E-03 1.27448E-21
7.44534E-03 1.22425E-21
7.59612E-03 1.17647E-21
7.97965E-03 1.06686E-21
8.37255E-03 9.69762E-22
8.77480E-03 8.83497E-22
9.18641E-03 8.06643E-22
9.60736E-03 7.37993E-22
1.00376E-02 6.76515E-22
1.04773E-02 6.21328E-22
1.09262E-02 5.71674E-22
1.13844E-02 5.26898E-22
1.18520E-02 4.86436E-22
1.23288E-02 4.49798E-22
1.28150E-02 4.16556E-22
1.33104E-02 3.86340E-22
1.38150E-02 3.58823E-22
1.43290E-02 3.33722E-22
1.48521E-02 3.10786E-22
1.53845E-02 2.89793E-22
1.59262E-02 2.70549E-22
1.64770E-02 2.52883E-22
1.70371E-02 2.36640E-22
1.76063E-02 2.21685E-22
1.81848E-02 2.07897E-22
1.87724E-02 1.95169E-22
1.93692E-02 1.83403E-22
1.99751E-02 1.72514E-22
2.05901E-02 1.62424E-22
2.12143E-02 1.53064E-22
2.18476E-02 1.44370E-22
2.24900E-02 1.36288E-22
2.31415E-02 1.28765E-22
2.38021E-02 1.21756E-22
2.44717E-02 1.15219E-22
2.51504E-02 1.09117E-22
2.58382E-02 1.03415E-22
2.65349E-02 9.80812E-23
2.72407E-02 9.30885E-23
2.79555E-02 8.84105E-23
2.86793E-02 8.40238E-23
2.94120E-02 7.99067E-23
3.01537E-02 7.60395E-23
3.09043E-02 7.24042E-23
3.16639E-02 6.89844E-23
3.24324E-02 6.57647E-23
3.32098E-02 6.27313E-23
3.39961E-02 5.98714E-23
3.47912E-02 5.71731E-23
3.55952E-02 5.46256E-23
3.64081E-02 5.22188E-23
3.72297E-02 4.99435E-23
3.80602E-02 4.77912E-23
3.88995E-02 4.57539E-23
3.97476E-02 4.38244E-23
4.06044E-02 4.19957E-23
4.14700E-02 4.02617E-23
4.23443E-02 3.86166E-23
4.32273E-02 3.70548E-23
4.41190E-02 3.55714E-23
4.50194E-02 3.41616E-23
4.59284E-02 3.28212E-23
4.68461E-02 3.15461E-23
4.87074E-02 2.91766E-23
5.06030E-02 2.70259E-23
5.25328E-02 2.50702E-23
5.44967E-02 2.32885E-23
5.64946E-02 2.16625E-23
5.85262E-02 2.01762E-23
6.05914E-02 1.88153E-23
6.26901E-02 1.75674E-23
6.48222E-02 1.64213E-23
6.69873E-02 1.53672E-23
6.91854E-02 1.43963E-23
7.14163E-02 1.35010E-23
7.36799E-02 1.26742E-23
7.59760E-02 1.19096E-23
7.83043E-02 1.12018E-23
8.06647E-02 1.05458E-23
8.30571E-02 9.93707E-24
8.54812E-02 9.37155E-24
8.79369E-02 8.84562E-24
9.04240E-02 8.35599E-24
9.29422E-02 7.89969E-24
9.54915E-02 7.47404E-24
9.80716E-02 7.07659E-24
1.00682E-01 6.70511E-24
1.03323E-01 6.35761E-24
1.05995E-01 6.03223E-24
1.08696E-01 5.72731E-24
1.11427E-01 5.44133E-24
1.14188E-01 5.17289E-24
1.16978E-01 4.92070E-24
1.19797E-01 4.68360E-24
1.22645E-01 4.46052E-24
1.25522E-01 4.25048E-24
1.28428E-01 4.05256E-24
1.31361E-01 3.86595E-24
1.34323E-01 3.68986E-24
1.37313E-01 3.52361E-24
1.40330E-01 3.36652E-24
1.43375E-01 3.21801E-24
1.46447E-01 3.07752E-24
1.49545E-01 2.94453E-24
1.52671E-01 2.81857E-24
1.55823E-01 2.69920E-24
1.59001E-01 2.58600E-24
1.62205E-01 2.47860E-24
1.65435E-01 2.37665E-24
1.68690E-01 2.27981E-24
1.71970E-01 2.18778E-24
1.75276E-01 2.10029E-24
1.78606E-01 2.01705E-24
1.81961E-01 1.93783E-24
1.85340E-01 1.86240E-24
1.88743E-01 1.79054E-24
1.92169E-01 1.72206E-24
1.95619E-01 1.65675E-24
1.99092E-01 1.59445E-24
2.02589E-01 1.53500E-24
2.06107E-01 1.47823E-24
2.09649E-01 1.42401E-24
2.13212E-01 1.37220E-24
2.16797E-01 1.32267E-24
2.20404E-01 1.27530E-24
2.24032E-01 1.22998E-24
2.27680E-01 1.18661E-24
2.31350E-01 1.14509E-24
2.35040E-01 1.10532E-24
2.38751E-01 1.06721E-24
2.42481E-01 1.03069E-24
2.46231E-01 9.95666E-25
2.50000E-01 9.62077E-25
2.53788E-01 9.29850E-25
2.57595E-01 8.98920E-25
2.61421E-01 8.69223E-25
2.65264E-01 8.40703E-25
2.69126E-01 8.13304E-25
2.73005E-01 7.86973E-25
2.76901E-01 7.61662E-25
2.80814E-01 7.37323E-25
2.84744E-01 7.13912E-25
2.88691E-01 6.91388E-25
2.92653E-01 6.69710E-25
2.96632E-01 6.48841E-25
3.00625E-01 6.28745E-25
3.04634E-01 6.09388E-25
3.08658E-01 5.90739E-25
3.12697E-01 5.72765E-25
3.16749E-01 5.55440E-25
3.20816E-01 5.38734E-25
3.24896E-01 5.22622E-25
3.28990E-01 5.07079E-25
3.33097E-01 4.92080E-25
3.37216E-01 4.77604E-25
3.41348E-01 4.63629E-25
3.45492E-01 4.50134E-25
3.49647E-01 4.37100E-25
3.53814E-01 4.24509E-25
3.57992E-01 4.12342E-25
3.62181E-01 4.00582E-25
3.66381E-01 3.89214E-25
3.70590E-01 3.78223E-25
3.74810E-01 3.67592E-25
3.79039E-01 3.57310E-25
3.83277E-01 3.47361E-25
3.87524E-01 3.37734E-25
3.91780E-01 3.28415E-25
3.96044E-01 3.19394E-25
4.00316E-01 3.10659E-25
4.04596E-01 3.02200E-25
4.08882E-01 2.94006E-25
4.13176E-01 2.86067E-25
4.17476E-01 2.78375E-25
4.21783E-01 2.70919E-25
4.26095E-01 2.63692E-25
4.30413E-01 2.56685E-25
4.34737E-01 2.49891E-25
4.39065E-01 2.43302E-25
4.43398E-01 2.36910E-25
4.47736E-01 2.30708E-25
4.52077E-01 2.24691E-25
4.56422E-01 2.18851E-25
4.60770E-01 2.13183E-25
4.65122E-01 2.07680E-25
4.69476E-01 2.02336E-25
4.73832E-01 1.97148E-25
4.78190E-01 1.92108E-25
4.82550E-01 1.87213E-25
4.86912E-01 1.82456E-25
4.91274E-01 1.77835E-25
4.95637E-01 1.73344E-25
5.00000E-01 1.68978E-25
5.04363E-01 1.64735E-25
5.08726E-01 1.60609E-25
5.13088E-01 1.56597E-25
5.17450E-01 1.52696E-25
5.21810E-01 1.48901E-25
5.26168E-01 1.45210E-25
5.30524E-01 1.41619E-25
5.34878E-01 1.38124E-25
5.39230E-01 1.34724E-25
5.43578E-01 1.31414E-25
5.47923E-01 1.28193E-25
5.52264E-01 1.25057E-25
5.56602E-01 1.22004E-25
5.60935E-01 1.19031E-25
5.65263E-01 1.16136E-25
5.69587E-01 1.13316E-25
5.73905E-01 1.10570E-25
5.78217E-01 1.07894E-25
5.82524E-01 1.05287E-25
5.86824E-01 1.02747E-25
5.91118E-01 1.00272E-25
5.95404E-01 9.78592E-26
5.99684E-01 9.55078E-26
6.03956E-01 9.32156E-26
6.08220E-01 9.09810E-26
6.12476E-01 8.88022E-26
6.16723E-01 8.66777E-26
6.20961E-01 8.46059E-26
6.25190E-01 8.25853E-26
6.29410E-01 8.06144E-26
6.33619E-01 7.86919E-26
6.37819E-01 7.68163E-26
6.42008E-01 7.49864E-26
6.46186E-01 7.32009E-26
6.50353E-01 7.14586E-26
6.54508E-01 6.97582E-26
6.58652E-01 6.80986E-26
6.62784E-01 6.64787E-26
6.66903E-01 6.48975E-26
6.71010E-01 6.33537E-26
6.75104E-01 6.18466E-26
6.79184E-01 6.03750E-26
6.83251E-01 5.89380E-26
6.87303E-01 5.75347E-26
6.91342E-01 5.61642E-26
6.95366E-01 5.48257E-26
6.99375E-01 5.35182E-26
7.03368E-01 5.22410E-26
7.07347E-01 5.09933E-26
7.11309E-01 4.97744E-26
7.15256E-01 4.85834E-26
7.19186E-01 4.74197E-26
7.23099E-01 4.62825E-26
7.26995E-01 4.51712E-26
7.30874E-01 4.40852E-26
7.34736E-01 4.30237E-26
7.38579E-01 4.19863E-26
7.42405E-01 4.09722E-26
7.46212E-01 3.99808E-26
7.50000E-01 3.90118E-26
7.53769E-01 3.80644E-26
7.57519E-01 3.71381E-26
7.61249E-01 3.62325E-26
7.64960E-01 3.53469E-26
7.68650E-01 3.44811E-26
7.72320E-01 3.36343E-26
7.75968E-01 3.28063E-26
7.79596E-01 3.19965E-26
7.83203E-01 3.12046E-26
7.86788E-01 3.04300E-26
7.90351E-01 2.96724E-26
7.93893E-01 2.89314E-26
7.97411E-01 2.82066E-26
8.00908E-01 2.74977E-26
8.04381E-01 2.68041E-26
8.07831E-01 2.61257E-26
8.11257E-01 2.54620E-26
8.14660E-01 2.48127E-26
8.18039E-01 2.41776E-26
8.21394E-01 2.35561E-26
8.24724E-01 2.29482E-26
8.28030E-01 2.23533E-26
8.31310E-01 2.17714E-26
8.34565E-01 2.12020E-26
8.37795E-01 2.06449E-26
8.40999E-01 2.00999E-26
8.44177E-01 1.95666E-26
8.47329E-01 1.90448E-26
8.50455E-01 1.85343E-26
8.53553E-01 1.80348E-26
8.56625E-01 1.75461E-26
8.59670E-01 1.70679E-26
8.62687E-01 1.66001E-26
8.65677E-01 1.61424E-26
8.68639E-01 1.56946E-26
8.71572E-01 1.52565E-26
8.74478E-01 1.48279E-26
8.77355E-01 1.44086E-26
8.80203E-01 1.39984E-26
8.83022E-01 1.35972E-26
8.85812E-01 1.32046E-26
8.88573E-01 1.28207E-26
8.91304E-01 1.24452E-26
8.94005E-01 1.20779E-26
8.96677E-01 1.17187E-26
8.99318E-01 1.13674E-26
9.01928E-01 1.10238E-26
9.04508E-01 1.06879E-26
9.07058E-01 1.03595E-26
9.09576E-01 1.00384E-26
9.12063E-01 9.72449E-27
9.14519E-01 9.41765E-27
9.16943E-01 9.11774E-27
9.19335E-01 8.82463E-27
9.21696E-01 8.53820E-27
9.24024E-01 8.25834E-27
9.26320E-01 7.98492E-27
9.28584E-01 7.71783E-27
9.30815E-01 7.45697E-27
9.33013E-01 7.20221E-27
9.35178E-01 6.95347E-27
9.37310E-01 6.71063E-27
9.39409E-01 6.47361E-27
9.41474E-01 6.24229E-27
9.43505E-01 6.01659E-27
9.45503E-01 5.79642E-27
9.47467E-01 5.58169E-27
9.49397E-01 5.37232E-27
9.51293E-01 5.16821E-27
9.53154E-01 4.96929E-27
9.54981E-01 4.77548E-27
9.56773E-01 4.58671E-27
9.58530E-01 4.40289E-27
9.60252E-01 4.22396E-27
9.61940E-01 4.04985E-27
9.63592E-01 3.88049E-27
9.65209E-01 3.71580E-27
9.66790E-01 3.55574E-27
9.68336E-01 3.40023E-27
9.69846E-01 3.24922E-27
9.71321E-01 3.10265E-27
9.72759E-01 2.96047E-27
9.74162E-01 2.82260E-27
9.75528E-01 2.68902E-27
9.76858E-01 2.55966E-27
9.78152E-01 2.43447E-27
9.79410E-01 2.31342E-27
9.80631E-01 2.19644E-27
9.81815E-01 2.08350E-27
9.82963E-01 1.97456E-27
9.84074E-01 1.86957E-27
9.85148E-01 1.76850E-27
9.86185E-01 1.67130E-27
9.87185E-01 1.57794E-27
9.88148E-01 1.48839E-27
9.89074E-01 1.40261E-27
9.89962E-01 1.32057E-27
9.90814E-01 1.24224E-27
9.91627E-01 1.16760E-27
9.92404E-01 1.09660E-27
9.93143E-01 1.02923E-27
9.93844E-01 9.65467E-28
9.94508E-01 9.05280E-28
9.95134E-01 8.48649E-28
9.95722E-01 7.95554E-28
9.96273E-01 7.45974E-28
9.96786E-01 6.99892E-28
9.97261E-01 6.57291E-28
9.97698E-01 6.18155E-28
9.98097E-01 5.82470E-28
9.98459E-01 5.50223E-28
9.98782E-01 5.21402E-28
9.99067E-01 4.95996E-28
9.99315E-01 4.73996E-28
9.99524E-01 4.55395E-28
9.99695E-01 4.40185E-28
9.99829E-01 4.28360E-28
9.99924E-01 4.19918E-28
9.99981E-01 4.14853E-28
1.00000E+00 4.13165E-28
