 #
 # Subroutine ELSEPA. Elastic scattering of electrons and positrons
 #                    by neutral atoms and positive ions
 #
 # Projectile: electron
 # Kinetic energy = 5.00000E+06 eV = 1.83747E+05 a.u.
 #
 # WARNING: High-energy factorization with free-atom DF screening.
 #          Absorption, polarization and exchange corrections are
 #          switched off.
 #          Phase shifts are calculated for the bare nucleus.
 #          Scattering amplitudes are not evaluated.
 #
 # Element:  V,  Z =  23,  atomic weight = 5.09415E+01 g/mol
 #
 # Nuclear model: Fermi distribution
 #                Average radius = 3.96650E-13 cm
 #                Skin thickness = 5.46000E-14 cm
 #
 # Number of electrons = 23
 #
 # Total elastic cross section = 1.94270E-18 cm**2 = 6.93752E-02 a0**2
 # 1st transport cross section = 2.76947E-23 cm**2 = 9.88996E-07 a0**2
 # 2nd transport cross section = 7.88053E-23 cm**2 = 2.81419E-06 a0**2
 #
 #
 # Differential cross section:                       MU=(1-COS(THETA))/2
 #
 #  THETA        MU          DCS          DCS        Sherman      error
 #  (deg)                 (cm**2/sr)   (a0**2/sr)    function
 #----------------------------------------------------------------------
0.00000E+00 7.96459E-13
7.61557E-13 7.96450E-13
1.18994E-12 7.96445E-13
1.71346E-12 7.96439E-13
2.33225E-12 7.96431E-13
3.04617E-12 7.96423E-13
3.85530E-12 7.96413E-13
4.75964E-12 7.96402E-13
5.75917E-12 7.96390E-13
6.85391E-12 7.96377E-13
8.04379E-12 7.96363E-13
9.32893E-12 7.96347E-13
1.07092E-11 7.96331E-13
1.21847E-11 7.96313E-13
1.37554E-11 7.96294E-13
1.54213E-11 7.96274E-13
1.71823E-11 7.96253E-13
1.90386E-11 7.96231E-13
2.09900E-11 7.96208E-13
2.30367E-11 7.96183E-13
2.51785E-11 7.96158E-13
2.74156E-11 7.96131E-13
2.97478E-11 7.96103E-13
3.21752E-11 7.96074E-13
3.46979E-11 7.96044E-13
3.73157E-11 7.96012E-13
4.00286E-11 7.95980E-13
4.28368E-11 7.95946E-13
4.57402E-11 7.95912E-13
4.87388E-11 7.95876E-13
5.18325E-11 7.95839E-13
5.50215E-11 7.95801E-13
5.83057E-11 7.95761E-13
6.16850E-11 7.95721E-13
6.51595E-11 7.95679E-13
6.87293E-11 7.95637E-13
7.23943E-11 7.95593E-13
7.61544E-11 7.95548E-13
1.18991E-10 7.95036E-13
1.71347E-10 7.94411E-13
2.33223E-10 7.93674E-13
3.04617E-10 7.92824E-13
3.85531E-10 7.91863E-13
4.75965E-10 7.90791E-13
5.75917E-10 7.89609E-13
6.85389E-10 7.88317E-13
8.04380E-10 7.86917E-13
9.32891E-10 7.85408E-13
1.07092E-09 7.83794E-13
1.21847E-09 7.82073E-13
1.37554E-09 7.80248E-13
1.54213E-09 7.78319E-13
1.71823E-09 7.76288E-13
1.90386E-09 7.74156E-13
2.09900E-09 7.71924E-13
2.30367E-09 7.69595E-13
2.51785E-09 7.67168E-13
2.74156E-09 7.64646E-13
2.97478E-09 7.62031E-13
3.21752E-09 7.59323E-13
3.46978E-09 7.56525E-13
3.73156E-09 7.53639E-13
4.00286E-09 7.50665E-13
4.28368E-09 7.47606E-13
4.57402E-09 7.44464E-13
4.87388E-09 7.41240E-13
5.18326E-09 7.37936E-13
5.50215E-09 7.34554E-13
5.83057E-09 7.31097E-13
6.16850E-09 7.27566E-13
6.51596E-09 7.23963E-13
6.87293E-09 7.20290E-13
7.23942E-09 7.16549E-13
7.61544E-09 7.12742E-13
1.18991E-08 6.71513E-13
1.71347E-08 6.26000E-13
2.33223E-08 5.78214E-13
3.04617E-08 5.29944E-13
3.85531E-08 4.82660E-13
4.75965E-08 4.37471E-13
5.75917E-08 3.95138E-13
6.85389E-08 3.56109E-13
8.04380E-08 3.20581E-13
9.32891E-08 2.88557E-13
1.07092E-07 2.59903E-13
1.21847E-07 2.34402E-13
1.37554E-07 2.11784E-13
1.54213E-07 1.91766E-13
1.71823E-07 1.74060E-13
1.90386E-07 1.58395E-13
2.09900E-07 1.44520E-13
2.30367E-07 1.32208E-13
2.51785E-07 1.21258E-13
2.74156E-07 1.11492E-13
2.97478E-07 1.02756E-13
3.21752E-07 9.49173E-14
3.46978E-07 8.78606E-14
3.73156E-07 8.14875E-14
4.00286E-07 7.57135E-14
4.28368E-07 7.04659E-14
4.57402E-07 6.56826E-14
4.87388E-07 6.13100E-14
5.18325E-07 5.73023E-14
5.50215E-07 5.36197E-14
5.83057E-07 5.02280E-14
6.16850E-07 4.70976E-14
6.51596E-07 4.42025E-14
6.87293E-07 4.15203E-14
7.23942E-07 3.90310E-14
7.61543E-07 3.67174E-14
1.18991E-06 2.05623E-14
1.71347E-06 1.20412E-14
2.33223E-06 7.34631E-15
3.04617E-06 4.67564E-15
3.85531E-06 3.10488E-15
4.75964E-06 2.14641E-15
5.75916E-06 1.53849E-15
6.85388E-06 1.13778E-15
8.04378E-06 8.63853E-16
9.32888E-06 6.70314E-16
1.07092E-05 5.29542E-16
1.21846E-05 4.24570E-16
1.37553E-05 3.44632E-16
1.54212E-05 2.82680E-16
1.71822E-05 2.33956E-16
1.90385E-05 1.95162E-16
2.09899E-05 1.63949E-16
2.30365E-05 1.38609E-16
2.51783E-05 1.17874E-16
2.74153E-05 1.00789E-16
2.97475E-05 8.66213E-17
3.21749E-05 7.48047E-17
3.46974E-05 6.48959E-17
3.73152E-05 5.65446E-17
4.00281E-05 4.94724E-17
4.28362E-05 4.34561E-17
4.57395E-05 3.83157E-17
4.87380E-05 3.39053E-17
5.18317E-05 3.01061E-17
5.50205E-05 2.68208E-17
5.83045E-05 2.39694E-17
6.16838E-05 2.14857E-17
6.51582E-05 1.93148E-17
6.87277E-05 1.74111E-17
7.23925E-05 1.57363E-17
7.61524E-05 1.42584E-17
9.21439E-05 9.83419E-18
1.09658E-04 7.00574E-18
1.28695E-04 5.12894E-18
1.49255E-04 3.84320E-18
1.71338E-04 2.93782E-18
1.94942E-04 2.28493E-18
2.20070E-04 1.80424E-18
2.46720E-04 1.44382E-18
2.74892E-04 1.16919E-18
3.04586E-04 9.56924E-19
3.35803E-04 7.90729E-19
3.68542E-04 6.59095E-19
4.02802E-04 5.53737E-19
4.38585E-04 4.68602E-19
4.75889E-04 3.99203E-19
5.14715E-04 3.42177E-19
5.55063E-04 2.94969E-19
5.96931E-04 2.55620E-19
6.40321E-04 2.22612E-19
6.85233E-04 1.94758E-19
7.31665E-04 1.71123E-19
7.79618E-04 1.50964E-19
8.29092E-04 1.33686E-19
8.80086E-04 1.18808E-19
9.32601E-04 1.05942E-19
9.86636E-04 9.47706E-20
1.04219E-03 8.50328E-20
1.09927E-03 7.65138E-20
1.15786E-03 6.90351E-20
1.21797E-03 6.24481E-20
1.27961E-03 5.66283E-20
1.34276E-03 5.14709E-20
1.40743E-03 4.68876E-20
1.47362E-03 4.28034E-20
1.54133E-03 3.91545E-20
1.61056E-03 3.58865E-20
1.68131E-03 3.29526E-20
1.75357E-03 3.03126E-20
1.82735E-03 2.79320E-20
1.90265E-03 2.57808E-20
1.97947E-03 2.38329E-20
2.05780E-03 2.20657E-20
2.13765E-03 2.04595E-20
2.21902E-03 1.89970E-20
2.30190E-03 1.76630E-20
2.38630E-03 1.64442E-20
2.47222E-03 1.53289E-20
2.55965E-03 1.43067E-20
2.64859E-03 1.33684E-20
2.73905E-03 1.25059E-20
2.83103E-03 1.17120E-20
2.92452E-03 1.09801E-20
3.01952E-03 1.03047E-20
3.11604E-03 9.68048E-21
3.21407E-03 9.10291E-21
3.31362E-03 8.56785E-21
3.41468E-03 8.07162E-21
3.51725E-03 7.61086E-21
3.62133E-03 7.18258E-21
3.72692E-03 6.78407E-21
3.83403E-03 6.41288E-21
3.94265E-03 6.06678E-21
4.05278E-03 5.74377E-21
4.16442E-03 5.44202E-21
4.27757E-03 5.15987E-21
4.39223E-03 4.89582E-21
4.50840E-03 4.64848E-21
4.62608E-03 4.41660E-21
4.74527E-03 4.19904E-21
4.86597E-03 3.99475E-21
4.98817E-03 3.80276E-21
5.11188E-03 3.62219E-21
5.23711E-03 3.45224E-21
5.36383E-03 3.29217E-21
5.49207E-03 3.14130E-21
5.62181E-03 2.99899E-21
5.75306E-03 2.86468E-21
5.88581E-03 2.73782E-21
6.02007E-03 2.61792E-21
6.15583E-03 2.50454E-21
6.29310E-03 2.39724E-21
6.43187E-03 2.29565E-21
6.57214E-03 2.19939E-21
6.71392E-03 2.10815E-21
6.85720E-03 2.02160E-21
7.00198E-03 1.93946E-21
7.14827E-03 1.86146E-21
7.29605E-03 1.78735E-21
7.44534E-03 1.71691E-21
7.59612E-03 1.64992E-21
7.97965E-03 1.49623E-21
8.37255E-03 1.36007E-21
8.77480E-03 1.23911E-21
9.18641E-03 1.13133E-21
9.60736E-03 1.03506E-21
1.00376E-02 9.48852E-22
1.04773E-02 8.71459E-22
1.09262E-02 8.01825E-22
1.13844E-02 7.39031E-22
1.18520E-02 6.82286E-22
1.23288E-02 6.30902E-22
1.28150E-02 5.84281E-22
1.33104E-02 5.41903E-22
1.38150E-02 5.03312E-22
1.43290E-02 4.68107E-22
1.48521E-02 4.35938E-22
1.53845E-02 4.06496E-22
1.59262E-02 3.79506E-22
1.64770E-02 3.54727E-22
1.70371E-02 3.31945E-22
1.76063E-02 3.10970E-22
1.81848E-02 2.91632E-22
1.87724E-02 2.73779E-22
1.93692E-02 2.57276E-22
1.99751E-02 2.42003E-22
2.05901E-02 2.27851E-22
2.12143E-02 2.14722E-22
2.18476E-02 2.02528E-22
2.24900E-02 1.91191E-22
2.31415E-02 1.80639E-22
2.38021E-02 1.70808E-22
2.44717E-02 1.61639E-22
2.51504E-02 1.53079E-22
2.58382E-02 1.45081E-22
2.65349E-02 1.37600E-22
2.72407E-02 1.30596E-22
2.79555E-02 1.24035E-22
2.86793E-02 1.17881E-22
2.94120E-02 1.12106E-22
3.01537E-02 1.06681E-22
3.09043E-02 1.01582E-22
3.16639E-02 9.67849E-23
3.24324E-02 9.22685E-23
3.32098E-02 8.80134E-23
3.39961E-02 8.40016E-23
3.47912E-02 8.02165E-23
3.55952E-02 7.66429E-23
3.64081E-02 7.32667E-23
3.72297E-02 7.00750E-23
3.80602E-02 6.70557E-23
3.88995E-02 6.41978E-23
3.97476E-02 6.14910E-23
4.06044E-02 5.89257E-23
4.14700E-02 5.64932E-23
4.23443E-02 5.41853E-23
4.32273E-02 5.19944E-23
4.41190E-02 4.99134E-23
4.50194E-02 4.79357E-23
4.59284E-02 4.60553E-23
4.68461E-02 4.42664E-23
4.87074E-02 4.09423E-23
5.06030E-02 3.79252E-23
5.25328E-02 3.51814E-23
5.44967E-02 3.26818E-23
5.64946E-02 3.04006E-23
5.85262E-02 2.83154E-23
6.05914E-02 2.64061E-23
6.26901E-02 2.46553E-23
6.48222E-02 2.30473E-23
6.69873E-02 2.15684E-23
6.91854E-02 2.02063E-23
7.14163E-02 1.89500E-23
7.36799E-02 1.77899E-23
7.59760E-02 1.67172E-23
7.83043E-02 1.57241E-23
8.06647E-02 1.48036E-23
8.30571E-02 1.39495E-23
8.54812E-02 1.31559E-23
8.79369E-02 1.24179E-23
9.04240E-02 1.17309E-23
9.29422E-02 1.10906E-23
9.54915E-02 1.04933E-23
9.80716E-02 9.93558E-24
1.00682E-01 9.41430E-24
1.03323E-01 8.92664E-24
1.05995E-01 8.47003E-24
1.08696E-01 8.04213E-24
1.11427E-01 7.64078E-24
1.14188E-01 7.26405E-24
1.16978E-01 6.91013E-24
1.19797E-01 6.57738E-24
1.22645E-01 6.26429E-24
1.25522E-01 5.96950E-24
1.28428E-01 5.69172E-24
1.31361E-01 5.42980E-24
1.34323E-01 5.18265E-24
1.37313E-01 4.94930E-24
1.40330E-01 4.72882E-24
1.43375E-01 4.52036E-24
1.46447E-01 4.32316E-24
1.49545E-01 4.13648E-24
1.52671E-01 3.95967E-24
1.55823E-01 3.79210E-24
1.59001E-01 3.63320E-24
1.62205E-01 3.48243E-24
1.65435E-01 3.33931E-24
1.68690E-01 3.20336E-24
1.71970E-01 3.07417E-24
1.75276E-01 2.95133E-24
1.78606E-01 2.83448E-24
1.81961E-01 2.72326E-24
1.85340E-01 2.61736E-24
1.88743E-01 2.51647E-24
1.92169E-01 2.42031E-24
1.95619E-01 2.32861E-24
1.99092E-01 2.24114E-24
2.02589E-01 2.15766E-24
2.06107E-01 2.07795E-24
2.09649E-01 2.00181E-24
2.13212E-01 1.92906E-24
2.16797E-01 1.85950E-24
2.20404E-01 1.79299E-24
2.24032E-01 1.72935E-24
2.27680E-01 1.66844E-24
2.31350E-01 1.61012E-24
2.35040E-01 1.55426E-24
2.38751E-01 1.50074E-24
2.42481E-01 1.44944E-24
2.46231E-01 1.40026E-24
2.50000E-01 1.35308E-24
2.53788E-01 1.30781E-24
2.57595E-01 1.26437E-24
2.61421E-01 1.22265E-24
2.65264E-01 1.18259E-24
2.69126E-01 1.14410E-24
2.73005E-01 1.10711E-24
2.76901E-01 1.07155E-24
2.80814E-01 1.03736E-24
2.84744E-01 1.00447E-24
2.88691E-01 9.72824E-25
2.92653E-01 9.42367E-25
2.96632E-01 9.13045E-25
3.00625E-01 8.84809E-25
3.04634E-01 8.57611E-25
3.08658E-01 8.31405E-25
3.12697E-01 8.06150E-25
3.16749E-01 7.81804E-25
3.20816E-01 7.58327E-25
3.24896E-01 7.35685E-25
3.28990E-01 7.13841E-25
3.33097E-01 6.92762E-25
3.37216E-01 6.72417E-25
3.41348E-01 6.52775E-25
3.45492E-01 6.33808E-25
3.49647E-01 6.15488E-25
3.53814E-01 5.97789E-25
3.57992E-01 5.80687E-25
3.62181E-01 5.64156E-25
3.66381E-01 5.48176E-25
3.70590E-01 5.32724E-25
3.74810E-01 5.17780E-25
3.79039E-01 5.03324E-25
3.83277E-01 4.89337E-25
3.87524E-01 4.75801E-25
3.91780E-01 4.62699E-25
3.96044E-01 4.50015E-25
4.00316E-01 4.37733E-25
4.04596E-01 4.25837E-25
4.08882E-01 4.14315E-25
4.13176E-01 4.03151E-25
4.17476E-01 3.92333E-25
4.21783E-01 3.81848E-25
4.26095E-01 3.71684E-25
4.30413E-01 3.61829E-25
4.34737E-01 3.52273E-25
4.39065E-01 3.43004E-25
4.43398E-01 3.34013E-25
4.47736E-01 3.25290E-25
4.52077E-01 3.16826E-25
4.56422E-01 3.08610E-25
4.60770E-01 3.00636E-25
4.65122E-01 2.92894E-25
4.69476E-01 2.85377E-25
4.73832E-01 2.78076E-25
4.78190E-01 2.70985E-25
4.82550E-01 2.64097E-25
4.86912E-01 2.57405E-25
4.91274E-01 2.50901E-25
4.95637E-01 2.44581E-25
5.00000E-01 2.38438E-25
5.04363E-01 2.32466E-25
5.08726E-01 2.26659E-25
5.13088E-01 2.21013E-25
5.17450E-01 2.15521E-25
5.21810E-01 2.10180E-25
5.26168E-01 2.04984E-25
5.30524E-01 1.99929E-25
5.34878E-01 1.95010E-25
5.39230E-01 1.90223E-25
5.43578E-01 1.85564E-25
5.47923E-01 1.81029E-25
5.52264E-01 1.76613E-25
5.56602E-01 1.72314E-25
5.60935E-01 1.68128E-25
5.65263E-01 1.64052E-25
5.69587E-01 1.60081E-25
5.73905E-01 1.56213E-25
5.78217E-01 1.52445E-25
5.82524E-01 1.48773E-25
5.86824E-01 1.45196E-25
5.91118E-01 1.41709E-25
5.95404E-01 1.38311E-25
5.99684E-01 1.34999E-25
6.03956E-01 1.31770E-25
6.08220E-01 1.28622E-25
6.12476E-01 1.25552E-25
6.16723E-01 1.22559E-25
6.20961E-01 1.19640E-25
6.25190E-01 1.16793E-25
6.29410E-01 1.14016E-25
6.33619E-01 1.11307E-25
6.37819E-01 1.08664E-25
6.42008E-01 1.06085E-25
6.46186E-01 1.03569E-25
6.50353E-01 1.01113E-25
6.54508E-01 9.87169E-26
6.58652E-01 9.63777E-26
6.62784E-01 9.40944E-26
6.66903E-01 9.18654E-26
6.71010E-01 8.96893E-26
6.75104E-01 8.75646E-26
6.79184E-01 8.54899E-26
6.83251E-01 8.34639E-26
6.87303E-01 8.14854E-26
6.91342E-01 7.95530E-26
6.95366E-01 7.76655E-26
6.99375E-01 7.58218E-26
7.03368E-01 7.40208E-26
7.07347E-01 7.22612E-26
7.11309E-01 7.05420E-26
7.15256E-01 6.88623E-26
7.19186E-01 6.72209E-26
7.23099E-01 6.56169E-26
7.26995E-01 6.40493E-26
7.30874E-01 6.25173E-26
7.34736E-01 6.10199E-26
7.38579E-01 5.95562E-26
7.42405E-01 5.81254E-26
7.46212E-01 5.67268E-26
7.50000E-01 5.53594E-26
7.53769E-01 5.40226E-26
7.57519E-01 5.27155E-26
7.61249E-01 5.14375E-26
7.64960E-01 5.01878E-26
7.68650E-01 4.89657E-26
7.72320E-01 4.77707E-26
7.75968E-01 4.66019E-26
7.79596E-01 4.54589E-26
7.83203E-01 4.43410E-26
7.86788E-01 4.32476E-26
7.90351E-01 4.21781E-26
7.93893E-01 4.11320E-26
7.97411E-01 4.01087E-26
8.00908E-01 3.91076E-26
8.04381E-01 3.81284E-26
8.07831E-01 3.71704E-26
8.11257E-01 3.62332E-26
8.14660E-01 3.53163E-26
8.18039E-01 3.44192E-26
8.21394E-01 3.35416E-26
8.24724E-01 3.26829E-26
8.28030E-01 3.18428E-26
8.31310E-01 3.10207E-26
8.34565E-01 3.02164E-26
8.37795E-01 2.94295E-26
8.40999E-01 2.86595E-26
8.44177E-01 2.79061E-26
8.47329E-01 2.71689E-26
8.50455E-01 2.64476E-26
8.53553E-01 2.57418E-26
8.56625E-01 2.50513E-26
8.59670E-01 2.43756E-26
8.62687E-01 2.37145E-26
8.65677E-01 2.30676E-26
8.68639E-01 2.24348E-26
8.71572E-01 2.18156E-26
8.74478E-01 2.12098E-26
8.77355E-01 2.06171E-26
8.80203E-01 2.00373E-26
8.83022E-01 1.94701E-26
8.85812E-01 1.89152E-26
8.88573E-01 1.83724E-26
8.91304E-01 1.78415E-26
8.94005E-01 1.73222E-26
8.96677E-01 1.68143E-26
8.99318E-01 1.63176E-26
9.01928E-01 1.58319E-26
9.04508E-01 1.53569E-26
9.07058E-01 1.48924E-26
9.09576E-01 1.44384E-26
9.12063E-01 1.39944E-26
9.14519E-01 1.35604E-26
9.16943E-01 1.31363E-26
9.19335E-01 1.27217E-26
9.21696E-01 1.23166E-26
9.24024E-01 1.19207E-26
9.26320E-01 1.15339E-26
9.28584E-01 1.11561E-26
9.30815E-01 1.07871E-26
9.33013E-01 1.04266E-26
9.35178E-01 1.00747E-26
9.37310E-01 9.73116E-27
9.39409E-01 9.39580E-27
9.41474E-01 9.06850E-27
9.43505E-01 8.74915E-27
9.45503E-01 8.43761E-27
9.47467E-01 8.13375E-27
9.49397E-01 7.83746E-27
9.51293E-01 7.54861E-27
9.53154E-01 7.26710E-27
9.54981E-01 6.99281E-27
9.56773E-01 6.72564E-27
9.58530E-01 6.46548E-27
9.60252E-01 6.21223E-27
9.61940E-01 5.96578E-27
9.63592E-01 5.72605E-27
9.65209E-01 5.49294E-27
9.66790E-01 5.26637E-27
9.68336E-01 5.04623E-27
9.69846E-01 4.83246E-27
9.71321E-01 4.62497E-27
9.72759E-01 4.42367E-27
9.74162E-01 4.22850E-27
9.75528E-01 4.03937E-27
9.76858E-01 3.85622E-27
9.78152E-01 3.67898E-27
9.79410E-01 3.50758E-27
9.80631E-01 3.34195E-27
9.81815E-01 3.18204E-27
9.82963E-01 3.02778E-27
9.84074E-01 2.87912E-27
9.85148E-01 2.73600E-27
9.86185E-01 2.59836E-27
9.87185E-01 2.46616E-27
9.88148E-01 2.33935E-27
9.89074E-01 2.21787E-27
9.89962E-01 2.10170E-27
9.90814E-01 1.99077E-27
9.91627E-01 1.88505E-27
9.92404E-01 1.78451E-27
9.93143E-01 1.68910E-27
9.93844E-01 1.59879E-27
9.94508E-01 1.51355E-27
9.95134E-01 1.43335E-27
9.95722E-01 1.35815E-27
9.96273E-01 1.28793E-27
9.96786E-01 1.22266E-27
9.97261E-01 1.16232E-27
9.97698E-01 1.10689E-27
9.98097E-01 1.05635E-27
9.98459E-01 1.01068E-27
9.98782E-01 9.69854E-28
9.99067E-01 9.33869E-28
9.99315E-01 9.02709E-28
9.99524E-01 8.76362E-28
9.99695E-01 8.54818E-28
9.99829E-01 8.38070E-28
9.99924E-01 8.26111E-28
9.99981E-01 8.18938E-28
1.00000E+00 8.16547E-28
