 #
 # Subroutine ELSEPA. Elastic scattering of electrons and positrons
 #                    by neutral atoms and positive ions
 #
 # Projectile: electron
 # Kinetic energy = 7.00000E+06 eV = 2.57245E+05 a.u.
 #
 # WARNING: High-energy factorization with free-atom DF screening.
 #          Absorption, polarization and exchange corrections are
 #          switched off.
 #          Phase shifts are calculated for the bare nucleus.
 #          Scattering amplitudes are not evaluated.
 #
 # Element:  V,  Z =  23,  atomic weight = 5.09415E+01 g/mol
 #
 # Nuclear model: Fermi distribution
 #                Average radius = 3.96650E-13 cm
 #                Skin thickness = 5.46000E-14 cm
 #
 # Number of electrons = 23
 #
 # Total elastic cross section = 1.93230E-18 cm**2 = 6.90037E-02 a0**2
 # 1st transport cross section = 1.55387E-23 cm**2 = 5.54898E-07 a0**2
 # 2nd transport cross section = 4.43522E-23 cm**2 = 1.58385E-06 a0**2
 #
 #
 # Differential cross section:                       MU=(1-COS(THETA))/2
 #
 #  THETA        MU          DCS          DCS        Sherman      error
 #  (deg)                 (cm**2/sr)   (a0**2/sr)    function
 #----------------------------------------------------------------------
0.00000E+00 1.47944E-12
7.61557E-13 1.47941E-12
1.18994E-12 1.47939E-12
1.71346E-12 1.47937E-12
2.33225E-12 1.47935E-12
3.04617E-12 1.47932E-12
3.85530E-12 1.47928E-12
4.75964E-12 1.47924E-12
5.75917E-12 1.47920E-12
6.85391E-12 1.47916E-12
8.04379E-12 1.47911E-12
9.32893E-12 1.47906E-12
1.07092E-11 1.47900E-12
1.21847E-11 1.47894E-12
1.37554E-11 1.47887E-12
1.54213E-11 1.47880E-12
1.71823E-11 1.47873E-12
1.90386E-11 1.47865E-12
2.09900E-11 1.47857E-12
2.30367E-11 1.47849E-12
2.51785E-11 1.47840E-12
2.74156E-11 1.47831E-12
2.97478E-11 1.47821E-12
3.21752E-11 1.47811E-12
3.46979E-11 1.47800E-12
3.73157E-11 1.47789E-12
4.00286E-11 1.47778E-12
4.28368E-11 1.47767E-12
4.57402E-11 1.47755E-12
4.87388E-11 1.47742E-12
5.18325E-11 1.47729E-12
5.50215E-11 1.47716E-12
5.83057E-11 1.47703E-12
6.16850E-11 1.47689E-12
6.51595E-11 1.47674E-12
6.87293E-11 1.47659E-12
7.23943E-11 1.47644E-12
7.61544E-11 1.47629E-12
1.18991E-10 1.47452E-12
1.71347E-10 1.47236E-12
2.33223E-10 1.46981E-12
3.04617E-10 1.46689E-12
3.85531E-10 1.46358E-12
4.75965E-10 1.45990E-12
5.75917E-10 1.45584E-12
6.85389E-10 1.45142E-12
8.04380E-10 1.44664E-12
9.32891E-10 1.44151E-12
1.07092E-09 1.43602E-12
1.21847E-09 1.43019E-12
1.37554E-09 1.42403E-12
1.54213E-09 1.41754E-12
1.71823E-09 1.41072E-12
1.90386E-09 1.40360E-12
2.09900E-09 1.39616E-12
2.30367E-09 1.38843E-12
2.51785E-09 1.38041E-12
2.74156E-09 1.37211E-12
2.97478E-09 1.36354E-12
3.21752E-09 1.35471E-12
3.46978E-09 1.34563E-12
3.73156E-09 1.33630E-12
4.00286E-09 1.32674E-12
4.28368E-09 1.31694E-12
4.57402E-09 1.30692E-12
4.87388E-09 1.29671E-12
5.18326E-09 1.28631E-12
5.50215E-09 1.27573E-12
5.83057E-09 1.26499E-12
6.16850E-09 1.25409E-12
6.51596E-09 1.24302E-12
6.87293E-09 1.23178E-12
7.23942E-09 1.22042E-12
7.61544E-09 1.20893E-12
1.18991E-08 1.08940E-12
1.71347E-08 9.67102E-13
2.33223E-08 8.48968E-13
3.04617E-08 7.39640E-13
3.85531E-08 6.41608E-13
4.75965E-08 5.55716E-13
5.75917E-08 4.81656E-13
6.85389E-08 4.18511E-13
8.04380E-08 3.64956E-13
9.32891E-08 3.19657E-13
1.07092E-07 2.81330E-13
1.21847E-07 2.48820E-13
1.37554E-07 2.21128E-13
1.54213E-07 1.97422E-13
1.71823E-07 1.77028E-13
1.90386E-07 1.59346E-13
2.09900E-07 1.43951E-13
2.30367E-07 1.30470E-13
2.51785E-07 1.18566E-13
2.74156E-07 1.08038E-13
2.97478E-07 9.86643E-14
3.21752E-07 9.02740E-14
3.46978E-07 8.27577E-14
3.73156E-07 7.59775E-14
4.00286E-07 6.98526E-14
4.28368E-07 6.39905E-14
4.57402E-07 5.86723E-14
4.87388E-07 5.39743E-14
5.18325E-07 4.98101E-14
5.50215E-07 4.61072E-14
5.83057E-07 4.28041E-14
6.16850E-07 3.98488E-14
6.51596E-07 3.70085E-14
6.87293E-07 3.41824E-14
7.23942E-07 3.16491E-14
7.61543E-07 2.93724E-14
1.18991E-06 1.47603E-14
1.71347E-06 7.98600E-15
2.33223E-06 4.66442E-15
3.04617E-06 2.92542E-15
3.85531E-06 1.94471E-15
4.75964E-06 1.35449E-15
5.75916E-06 9.78271E-16
6.85388E-06 7.25697E-16
8.04378E-06 5.50415E-16
9.32888E-06 4.24833E-16
1.07092E-05 3.32540E-16
1.21846E-05 2.63689E-16
1.37553E-05 2.11386E-16
1.54212E-05 1.71165E-16
1.71822E-05 1.39913E-16
1.90385E-05 1.15311E-16
2.09899E-05 9.58097E-17
2.30365E-05 8.02060E-17
2.51783E-05 6.76045E-17
2.74153E-05 5.73651E-17
2.97475E-05 4.89795E-17
3.21749E-05 4.20634E-17
3.46974E-05 3.63243E-17
3.73152E-05 3.15299E-17
4.00281E-05 2.75016E-17
4.28362E-05 2.40945E-17
4.57395E-05 2.12025E-17
4.87380E-05 1.87367E-17
5.18317E-05 1.66170E-17
5.50205E-05 1.47905E-17
5.83045E-05 1.32114E-17
6.16838E-05 1.18364E-17
6.51582E-05 1.06375E-17
6.87277E-05 9.58858E-18
7.23925E-05 8.66501E-18
7.61524E-05 7.85123E-18
9.21439E-05 5.41669E-18
1.09658E-04 3.85883E-18
1.28695E-04 2.82434E-18
1.49255E-04 2.11485E-18
1.71338E-04 1.61484E-18
1.94942E-04 1.25431E-18
2.20070E-04 9.88937E-19
2.46720E-04 7.90112E-19
2.74892E-04 6.38812E-19
3.04586E-04 5.21988E-19
3.35803E-04 4.30664E-19
3.68542E-04 3.58451E-19
4.02802E-04 3.00729E-19
4.38585E-04 2.54165E-19
4.75889E-04 2.16265E-19
5.14715E-04 1.85165E-19
5.55063E-04 1.59457E-19
5.96931E-04 1.38056E-19
6.40321E-04 1.20125E-19
6.85233E-04 1.05013E-19
7.31665E-04 9.22028E-20
7.79618E-04 8.12876E-20
8.29092E-04 7.19408E-20
8.80086E-04 6.38994E-20
9.32601E-04 5.69511E-20
9.86636E-04 5.09223E-20
1.04219E-03 4.56708E-20
1.09927E-03 4.10795E-20
1.15786E-03 3.70511E-20
1.21797E-03 3.35050E-20
1.27961E-03 3.03735E-20
1.34276E-03 2.75996E-20
1.40743E-03 2.51356E-20
1.47362E-03 2.29409E-20
1.54133E-03 2.09807E-20
1.61056E-03 1.92257E-20
1.68131E-03 1.76507E-20
1.75357E-03 1.62339E-20
1.82735E-03 1.49566E-20
1.90265E-03 1.38027E-20
1.97947E-03 1.27581E-20
2.05780E-03 1.18106E-20
2.13765E-03 1.09496E-20
2.21902E-03 1.01657E-20
2.30190E-03 9.45093E-21
2.38630E-03 8.79795E-21
2.47222E-03 8.20051E-21
2.55965E-03 7.65302E-21
2.64859E-03 7.15054E-21
2.73905E-03 6.68872E-21
2.83103E-03 6.26365E-21
2.92452E-03 5.87189E-21
3.01952E-03 5.51034E-21
3.11604E-03 5.17625E-21
3.21407E-03 4.86715E-21
3.31362E-03 4.58084E-21
3.41468E-03 4.31532E-21
3.51725E-03 4.06880E-21
3.62133E-03 3.83967E-21
3.72692E-03 3.62649E-21
3.83403E-03 3.42793E-21
3.94265E-03 3.24281E-21
4.05278E-03 3.07005E-21
4.16442E-03 2.90866E-21
4.27757E-03 2.75778E-21
4.39223E-03 2.61657E-21
4.50840E-03 2.48431E-21
4.62608E-03 2.36032E-21
4.74527E-03 2.24399E-21
4.86597E-03 2.13476E-21
4.98817E-03 2.03212E-21
5.11188E-03 1.93558E-21
5.23711E-03 1.84473E-21
5.36383E-03 1.75916E-21
5.49207E-03 1.67851E-21
5.62181E-03 1.60244E-21
5.75306E-03 1.53064E-21
5.88581E-03 1.46283E-21
6.02007E-03 1.39874E-21
6.15583E-03 1.33814E-21
6.29310E-03 1.28079E-21
6.43187E-03 1.22650E-21
6.57214E-03 1.17505E-21
6.71392E-03 1.12629E-21
6.85720E-03 1.08003E-21
7.00198E-03 1.03613E-21
7.14827E-03 9.94452E-22
7.29605E-03 9.54851E-22
7.44534E-03 9.17208E-22
7.59612E-03 8.81408E-22
7.97965E-03 7.99281E-22
8.37255E-03 7.26529E-22
8.77480E-03 6.61894E-22
9.18641E-03 6.04311E-22
9.60736E-03 5.52875E-22
1.00376E-02 5.06814E-22
1.04773E-02 4.65467E-22
1.09262E-02 4.28265E-22
1.13844E-02 3.94718E-22
1.18520E-02 3.64403E-22
1.23288E-02 3.36954E-22
1.28150E-02 3.12049E-22
1.33104E-02 2.89411E-22
1.38150E-02 2.68796E-22
1.43290E-02 2.49991E-22
1.48521E-02 2.32808E-22
1.53845E-02 2.17081E-22
1.59262E-02 2.02664E-22
1.64770E-02 1.89429E-22
1.70371E-02 1.77260E-22
1.76063E-02 1.66057E-22
1.81848E-02 1.55727E-22
1.87724E-02 1.46192E-22
1.93692E-02 1.37378E-22
1.99751E-02 1.29220E-22
2.05901E-02 1.21662E-22
2.12143E-02 1.14649E-22
2.18476E-02 1.08137E-22
2.24900E-02 1.02082E-22
2.31415E-02 9.64468E-23
2.38021E-02 9.11962E-23
2.44717E-02 8.62994E-23
2.51504E-02 8.17280E-23
2.58382E-02 7.74564E-23
2.65349E-02 7.34612E-23
2.72407E-02 6.97211E-23
2.79555E-02 6.62169E-23
2.86793E-02 6.29308E-23
2.94120E-02 5.98467E-23
3.01537E-02 5.69499E-23
3.09043E-02 5.42268E-23
3.16639E-02 5.16650E-23
3.24324E-02 4.92533E-23
3.32098E-02 4.69810E-23
3.39961E-02 4.48388E-23
3.47912E-02 4.28176E-23
3.55952E-02 4.09093E-23
3.64081E-02 3.91065E-23
3.72297E-02 3.74022E-23
3.80602E-02 3.57900E-23
3.88995E-02 3.42640E-23
3.97476E-02 3.28187E-23
4.06044E-02 3.14490E-23
4.14700E-02 3.01501E-23
4.23443E-02 2.89179E-23
4.32273E-02 2.77481E-23
4.41190E-02 2.66370E-23
4.50194E-02 2.55810E-23
4.59284E-02 2.45771E-23
4.68461E-02 2.36219E-23
4.87074E-02 2.18472E-23
5.06030E-02 2.02363E-23
5.25328E-02 1.87715E-23
5.44967E-02 1.74371E-23
5.64946E-02 1.62193E-23
5.85262E-02 1.51060E-23
6.05914E-02 1.40868E-23
6.26901E-02 1.31522E-23
6.48222E-02 1.22938E-23
6.69873E-02 1.15044E-23
6.91854E-02 1.07773E-23
7.14163E-02 1.01068E-23
7.36799E-02 9.48759E-24
7.59760E-02 8.91505E-24
7.83043E-02 8.38501E-24
8.06647E-02 7.89374E-24
8.30571E-02 7.43787E-24
8.54812E-02 7.01439E-24
8.79369E-02 6.62055E-24
9.04240E-02 6.25391E-24
9.29422E-02 5.91223E-24
9.54915E-02 5.59350E-24
9.80716E-02 5.29589E-24
1.00682E-01 5.01774E-24
1.03323E-01 4.75754E-24
1.05995E-01 4.51392E-24
1.08696E-01 4.28562E-24
1.11427E-01 4.07150E-24
1.14188E-01 3.87051E-24
1.16978E-01 3.68169E-24
1.19797E-01 3.50418E-24
1.22645E-01 3.33717E-24
1.25522E-01 3.17992E-24
1.28428E-01 3.03175E-24
1.31361E-01 2.89205E-24
1.34323E-01 2.76022E-24
1.37313E-01 2.63576E-24
1.40330E-01 2.51817E-24
1.43375E-01 2.40700E-24
1.46447E-01 2.30183E-24
1.49545E-01 2.20228E-24
1.52671E-01 2.10800E-24
1.55823E-01 2.01864E-24
1.59001E-01 1.93392E-24
1.62205E-01 1.85353E-24
1.65435E-01 1.77722E-24
1.68690E-01 1.70474E-24
1.71970E-01 1.63587E-24
1.75276E-01 1.57038E-24
1.78606E-01 1.50809E-24
1.81961E-01 1.44880E-24
1.85340E-01 1.39235E-24
1.88743E-01 1.33858E-24
1.92169E-01 1.28733E-24
1.95619E-01 1.23846E-24
1.99092E-01 1.19184E-24
2.02589E-01 1.14735E-24
2.06107E-01 1.10488E-24
2.09649E-01 1.06431E-24
2.13212E-01 1.02554E-24
2.16797E-01 9.88479E-25
2.20404E-01 9.53039E-25
2.24032E-01 9.19135E-25
2.27680E-01 8.86687E-25
2.31350E-01 8.55621E-25
2.35040E-01 8.25867E-25
2.38751E-01 7.97359E-25
2.42481E-01 7.70037E-25
2.46231E-01 7.43840E-25
2.50000E-01 7.18715E-25
2.53788E-01 6.94609E-25
2.57595E-01 6.71473E-25
2.61421E-01 6.49261E-25
2.65264E-01 6.27929E-25
2.69126E-01 6.07436E-25
2.73005E-01 5.87743E-25
2.76901E-01 5.68813E-25
2.80814E-01 5.50611E-25
2.84744E-01 5.33103E-25
2.88691E-01 5.16259E-25
2.92653E-01 5.00048E-25
2.96632E-01 4.84443E-25
3.00625E-01 4.69416E-25
3.04634E-01 4.54943E-25
3.08658E-01 4.40998E-25
3.12697E-01 4.27560E-25
3.16749E-01 4.14606E-25
3.20816E-01 4.02117E-25
3.24896E-01 3.90071E-25
3.28990E-01 3.78451E-25
3.33097E-01 3.67238E-25
3.37216E-01 3.56417E-25
3.41348E-01 3.45970E-25
3.45492E-01 3.35883E-25
3.49647E-01 3.26141E-25
3.53814E-01 3.16729E-25
3.57992E-01 3.07635E-25
3.62181E-01 2.98846E-25
3.66381E-01 2.90350E-25
3.70590E-01 2.82136E-25
3.74810E-01 2.74192E-25
3.79039E-01 2.66507E-25
3.83277E-01 2.59073E-25
3.87524E-01 2.51879E-25
3.91780E-01 2.44916E-25
3.96044E-01 2.38176E-25
4.00316E-01 2.31650E-25
4.04596E-01 2.25329E-25
4.08882E-01 2.19208E-25
4.13176E-01 2.13277E-25
4.17476E-01 2.07530E-25
4.21783E-01 2.01961E-25
4.26095E-01 1.96562E-25
4.30413E-01 1.91328E-25
4.34737E-01 1.86253E-25
4.39065E-01 1.81332E-25
4.43398E-01 1.76558E-25
4.47736E-01 1.71926E-25
4.52077E-01 1.67432E-25
4.56422E-01 1.63071E-25
4.60770E-01 1.58838E-25
4.65122E-01 1.54729E-25
4.69476E-01 1.50739E-25
4.73832E-01 1.46865E-25
4.78190E-01 1.43102E-25
4.82550E-01 1.39447E-25
4.86912E-01 1.35896E-25
4.91274E-01 1.32446E-25
4.95637E-01 1.29093E-25
5.00000E-01 1.25834E-25
5.04363E-01 1.22667E-25
5.08726E-01 1.19587E-25
5.13088E-01 1.16593E-25
5.17450E-01 1.13681E-25
5.21810E-01 1.10849E-25
5.26168E-01 1.08094E-25
5.30524E-01 1.05414E-25
5.34878E-01 1.02807E-25
5.39230E-01 1.00269E-25
5.43578E-01 9.77999E-26
5.47923E-01 9.53963E-26
5.52264E-01 9.30566E-26
5.56602E-01 9.07787E-26
5.60935E-01 8.85608E-26
5.65263E-01 8.64010E-26
5.69587E-01 8.42975E-26
5.73905E-01 8.22487E-26
5.78217E-01 8.02529E-26
5.82524E-01 7.83085E-26
5.86824E-01 7.64140E-26
5.91118E-01 7.45679E-26
5.95404E-01 7.27688E-26
5.99684E-01 7.10153E-26
6.03956E-01 6.93060E-26
6.08220E-01 6.76397E-26
6.12476E-01 6.60152E-26
6.16723E-01 6.44311E-26
6.20961E-01 6.28865E-26
6.25190E-01 6.13801E-26
6.29410E-01 5.99108E-26
6.33619E-01 5.84776E-26
6.37819E-01 5.70796E-26
6.42008E-01 5.57156E-26
6.46186E-01 5.43848E-26
6.50353E-01 5.30862E-26
6.54508E-01 5.18189E-26
6.58652E-01 5.05821E-26
6.62784E-01 4.93750E-26
6.66903E-01 4.81967E-26
6.71010E-01 4.70464E-26
6.75104E-01 4.59234E-26
6.79184E-01 4.48270E-26
6.83251E-01 4.37564E-26
6.87303E-01 4.27110E-26
6.91342E-01 4.16900E-26
6.95366E-01 4.06929E-26
6.99375E-01 3.97190E-26
7.03368E-01 3.87678E-26
7.07347E-01 3.78385E-26
7.11309E-01 3.69306E-26
7.15256E-01 3.60437E-26
7.19186E-01 3.51771E-26
7.23099E-01 3.43303E-26
7.26995E-01 3.35028E-26
7.30874E-01 3.26942E-26
7.34736E-01 3.19039E-26
7.38579E-01 3.11315E-26
7.42405E-01 3.03765E-26
7.46212E-01 2.96385E-26
7.50000E-01 2.89172E-26
7.53769E-01 2.82120E-26
7.57519E-01 2.75225E-26
7.61249E-01 2.68485E-26
7.64960E-01 2.61894E-26
7.68650E-01 2.55451E-26
7.72320E-01 2.49150E-26
7.75968E-01 2.42988E-26
7.79596E-01 2.36963E-26
7.83203E-01 2.31070E-26
7.86788E-01 2.25307E-26
7.90351E-01 2.19671E-26
7.93893E-01 2.14158E-26
7.97411E-01 2.08767E-26
8.00908E-01 2.03493E-26
8.04381E-01 1.98334E-26
8.07831E-01 1.93288E-26
8.11257E-01 1.88352E-26
8.14660E-01 1.83523E-26
8.18039E-01 1.78799E-26
8.21394E-01 1.74178E-26
8.24724E-01 1.69657E-26
8.28030E-01 1.65234E-26
8.31310E-01 1.60907E-26
8.34565E-01 1.56674E-26
8.37795E-01 1.52532E-26
8.40999E-01 1.48480E-26
8.44177E-01 1.44516E-26
8.47329E-01 1.40637E-26
8.50455E-01 1.36842E-26
8.53553E-01 1.33130E-26
8.56625E-01 1.29498E-26
8.59670E-01 1.25944E-26
8.62687E-01 1.22467E-26
8.65677E-01 1.19066E-26
8.68639E-01 1.15738E-26
8.71572E-01 1.12483E-26
8.74478E-01 1.09298E-26
8.77355E-01 1.06183E-26
8.80203E-01 1.03135E-26
8.83022E-01 1.00154E-26
8.85812E-01 9.72380E-27
8.88573E-01 9.43859E-27
8.91304E-01 9.15964E-27
8.94005E-01 8.88682E-27
8.96677E-01 8.62001E-27
8.99318E-01 8.35909E-27
9.01928E-01 8.10396E-27
9.04508E-01 7.85449E-27
9.07058E-01 7.61059E-27
9.09576E-01 7.37214E-27
9.12063E-01 7.13904E-27
9.14519E-01 6.91120E-27
9.16943E-01 6.68851E-27
9.19335E-01 6.47089E-27
9.21696E-01 6.25824E-27
9.24024E-01 6.05046E-27
9.26320E-01 5.84748E-27
9.28584E-01 5.64921E-27
9.30815E-01 5.45556E-27
9.33013E-01 5.26646E-27
9.35178E-01 5.08183E-27
9.37310E-01 4.90159E-27
9.39409E-01 4.72566E-27
9.41474E-01 4.55399E-27
9.43505E-01 4.38649E-27
9.45503E-01 4.22309E-27
9.47467E-01 4.06374E-27
9.49397E-01 3.90837E-27
9.51293E-01 3.75692E-27
9.53154E-01 3.60931E-27
9.54981E-01 3.46551E-27
9.56773E-01 3.32544E-27
9.58530E-01 3.18906E-27
9.60252E-01 3.05631E-27
9.61940E-01 2.92714E-27
9.63592E-01 2.80149E-27
9.65209E-01 2.67932E-27
9.66790E-01 2.56058E-27
9.68336E-01 2.44523E-27
9.69846E-01 2.33321E-27
9.71321E-01 2.22449E-27
9.72759E-01 2.11902E-27
9.74162E-01 2.01677E-27
9.75528E-01 1.91769E-27
9.76858E-01 1.82174E-27
9.78152E-01 1.72890E-27
9.79410E-01 1.63911E-27
9.80631E-01 1.55236E-27
9.81815E-01 1.46860E-27
9.82963E-01 1.38781E-27
9.84074E-01 1.30996E-27
9.85148E-01 1.23500E-27
9.86185E-01 1.16293E-27
9.87185E-01 1.09370E-27
9.88148E-01 1.02730E-27
9.89074E-01 9.63690E-28
9.89962E-01 9.02859E-28
9.90814E-01 8.44779E-28
9.91627E-01 7.89430E-28
9.92404E-01 7.36791E-28
9.93143E-01 6.86842E-28
9.93844E-01 6.39563E-28
9.94508E-01 5.94939E-28
9.95134E-01 5.52952E-28
9.95722E-01 5.13587E-28
9.96273E-01 4.76829E-28
9.96786E-01 4.42664E-28
9.97261E-01 4.11080E-28
9.97698E-01 3.82066E-28
9.98097E-01 3.55610E-28
9.98459E-01 3.31703E-28
9.98782E-01 3.10336E-28
9.99067E-01 2.91502E-28
9.99315E-01 2.75192E-28
9.99524E-01 2.61402E-28
9.99695E-01 2.50126E-28
9.99829E-01 2.41360E-28
9.99924E-01 2.35101E-28
9.99981E-01 2.31347E-28
1.00000E+00 2.30096E-28
