 #
 # Subroutine ELSEPA. Elastic scattering of electrons and positrons
 #                    by neutral atoms and positive ions
 #
 # Projectile: electron
 # Kinetic energy = 1.75000E+08 eV = 6.43113E+06 a.u.
 #
 # WARNING: High-energy factorization with free-atom DF screening.
 #          Absorption, polarization and exchange corrections are
 #          switched off.
 #          Phase shifts are calculated for the bare nucleus.
 #          Scattering amplitudes are not evaluated.
 #
 # Element:  V,  Z =  23,  atomic weight = 5.09415E+01 g/mol
 #
 # Nuclear model: Fermi distribution
 #                Average radius = 3.96650E-13 cm
 #                Skin thickness = 5.46000E-14 cm
 #
 # Number of electrons = 23
 #
 # Total elastic cross section = 1.92292E-18 cm**2 = 6.86688E-02 a0**2
 # 1st transport cross section = 3.60063E-26 cm**2 = 1.28581E-09 a0**2
 # 2nd transport cross section = 1.07610E-25 cm**2 = 3.84282E-09 a0**2
 #
 #
 # Differential cross section:                       MU=(1-COS(THETA))/2
 #
 #  THETA        MU          DCS          DCS        Sherman      error
 #  (deg)                 (cm**2/sr)   (a0**2/sr)    function
 #----------------------------------------------------------------------
0.00000E+00 8.07814E-10
7.61557E-13 7.98427E-10
1.18994E-12 7.93223E-10
1.71346E-12 7.86935E-10
2.33225E-12 7.79602E-10
3.04617E-12 7.71272E-10
3.85530E-12 7.61996E-10
4.75964E-12 7.51833E-10
5.75917E-12 7.40842E-10
6.85391E-12 7.29089E-10
8.04379E-12 7.16627E-10
9.32893E-12 7.03537E-10
1.07092E-11 6.89912E-10
1.21847E-11 6.75796E-10
1.37554E-11 6.61239E-10
1.54213E-11 6.46355E-10
1.71823E-11 6.31196E-10
1.90386E-11 6.15784E-10
2.09900E-11 6.00240E-10
2.30367E-11 5.84614E-10
2.51785E-11 5.68908E-10
2.74156E-11 5.53234E-10
2.97478E-11 5.37638E-10
3.21752E-11 5.22111E-10
3.46979E-11 5.06745E-10
3.73157E-11 4.91575E-10
4.00286E-11 4.76602E-10
4.28368E-11 4.61880E-10
4.57402E-11 4.47436E-10
4.87388E-11 4.33279E-10
5.18325E-11 4.19434E-10
5.50215E-11 4.05919E-10
5.83057E-11 3.92746E-10
6.16850E-11 3.79922E-10
6.51595E-11 3.67454E-10
6.87293E-11 3.55352E-10
7.23943E-11 3.43617E-10
7.61544E-11 3.32243E-10
1.18991E-10 2.37888E-10
1.71347E-10 1.73322E-10
2.33223E-10 1.29580E-10
3.04617E-10 9.94103E-11
3.85531E-10 7.79672E-11
4.75965E-10 6.22271E-11
5.75917E-10 5.03198E-11
6.85389E-10 4.11036E-11
8.04380E-10 3.35848E-11
9.32891E-10 2.76442E-11
1.07092E-09 2.31407E-11
1.21847E-09 1.94474E-11
1.37554E-09 1.62503E-11
1.54213E-09 1.37495E-11
1.71823E-09 1.17100E-11
1.90386E-09 9.92291E-12
2.09900E-09 8.48795E-12
2.30367E-09 7.31408E-12
2.51785E-09 6.28729E-12
2.74156E-09 5.44405E-12
2.97478E-09 4.74592E-12
3.21752E-09 4.13839E-12
3.46978E-09 3.62931E-12
3.73156E-09 3.20017E-12
4.00286E-09 2.82903E-12
4.28368E-09 2.51179E-12
4.57402E-09 2.24011E-12
4.87388E-09 2.00415E-12
5.18326E-09 1.79949E-12
5.50215E-09 1.62180E-12
5.83057E-09 1.46605E-12
6.16850E-09 1.32925E-12
6.51596E-09 1.20908E-12
6.87293E-09 1.10266E-12
7.23942E-09 1.00806E-12
7.61544E-09 9.24120E-13
1.18991E-08 4.30614E-13
1.71347E-08 2.28571E-13
2.33223E-08 1.31544E-13
3.04617E-08 8.03270E-14
3.85531E-08 5.14578E-14
4.75965E-08 3.43373E-14
5.75917E-08 2.37369E-14
6.85389E-08 1.69181E-14
8.04380E-08 1.23791E-14
9.32891E-08 9.27134E-15
1.07092E-07 7.08371E-15
1.21847E-07 5.50653E-15
1.37554E-07 4.34692E-15
1.54213E-07 3.47842E-15
1.71823E-07 2.81725E-15
1.90386E-07 2.30652E-15
2.09900E-07 1.90649E-15
2.30367E-07 1.58975E-15
2.51785E-07 1.33626E-15
2.74156E-07 1.13141E-15
2.97478E-07 9.64365E-16
3.21752E-07 8.26962E-16
3.46978E-07 7.13183E-16
3.73156E-07 6.18309E-16
4.00286E-07 5.38688E-16
4.28368E-07 4.71466E-16
4.57402E-07 4.14367E-16
4.87388E-07 3.65648E-16
5.18325E-07 3.23873E-16
5.50215E-07 2.87889E-16
5.83057E-07 2.56757E-16
6.16850E-07 2.29704E-16
6.51596E-07 2.06118E-16
6.87293E-07 1.85477E-16
7.23942E-07 1.67353E-16
7.61543E-07 1.51385E-16
1.18991E-06 6.24160E-17
1.71347E-06 3.01980E-17
2.33223E-06 1.63290E-17
3.04617E-06 9.58191E-18
3.85531E-06 5.98606E-18
4.75964E-06 3.92935E-18
5.75916E-06 2.68476E-18
6.85388E-06 1.89616E-18
8.04378E-06 1.37698E-18
9.32888E-06 1.02394E-18
1.07092E-05 7.77143E-19
1.21846E-05 6.00422E-19
1.37553E-05 4.71201E-19
1.54212E-05 3.74949E-19
1.71822E-05 3.02070E-19
1.90385E-05 2.46072E-19
2.09899E-05 2.02484E-19
2.30365E-05 1.68129E-19
2.51783E-05 1.40756E-19
2.74153E-05 1.18732E-19
2.97475E-05 1.00852E-19
3.21749E-05 8.62158E-20
3.46974E-05 7.41431E-20
3.73152E-05 6.41133E-20
4.00281E-05 5.57248E-20
4.28362E-05 4.86649E-20
4.57395E-05 4.26885E-20
4.87380E-05 3.76017E-20
5.18317E-05 3.32503E-20
5.50205E-05 2.95105E-20
5.83045E-05 2.62821E-20
6.16838E-05 2.34837E-20
6.51582E-05 2.10483E-20
6.87277E-05 1.89208E-20
7.23925E-05 1.70557E-20
7.61524E-05 1.54076E-20
9.21439E-05 1.05266E-20
1.09658E-04 7.43443E-21
1.28695E-04 5.39897E-21
1.49255E-04 4.01480E-21
1.71338E-04 3.04721E-21
1.94942E-04 2.35430E-21
2.20070E-04 1.84763E-21
2.46720E-04 1.47021E-21
2.74892E-04 1.18440E-21
3.04586E-04 9.64785E-22
3.35803E-04 7.93775E-22
3.68542E-04 6.59022E-22
4.02802E-04 5.51675E-22
4.38585E-04 4.65311E-22
4.75889E-04 3.95195E-22
5.14715E-04 3.37792E-22
5.55063E-04 2.90436E-22
5.96931E-04 2.51086E-22
6.40321E-04 2.18174E-22
6.85233E-04 1.90475E-22
7.31665E-04 1.67030E-22
7.79618E-04 1.47078E-22
8.29092E-04 1.30013E-22
8.80086E-04 1.15348E-22
9.32601E-04 1.02690E-22
9.86636E-04 9.17172E-23
1.04219E-03 8.21683E-23
1.09927E-03 7.38271E-23
1.15786E-03 6.65150E-23
1.21797E-03 6.00834E-23
1.27961E-03 5.44081E-23
1.34276E-03 4.93851E-23
1.40743E-03 4.49264E-23
1.47362E-03 4.09577E-23
1.54133E-03 3.74158E-23
1.61056E-03 3.42470E-23
1.68131E-03 3.14050E-23
1.75357E-03 2.88503E-23
1.82735E-03 2.65488E-23
1.90265E-03 2.44709E-23
1.97947E-03 2.25913E-23
2.05780E-03 2.08875E-23
2.13765E-03 1.93403E-23
2.21902E-03 1.79328E-23
2.30190E-03 1.66501E-23
2.38630E-03 1.54792E-23
2.47222E-03 1.44086E-23
2.55965E-03 1.34283E-23
2.64859E-03 1.25292E-23
2.73905E-03 1.17034E-23
2.83103E-03 1.09439E-23
2.92452E-03 1.02445E-23
3.01952E-03 9.59944E-24
3.11604E-03 9.00386E-24
3.21407E-03 8.45325E-24
3.31362E-03 7.94363E-24
3.41468E-03 7.47138E-24
3.51725E-03 7.03329E-24
3.62133E-03 6.62644E-24
3.72692E-03 6.24821E-24
3.83403E-03 5.89622E-24
3.94265E-03 5.56833E-24
4.05278E-03 5.26259E-24
4.16442E-03 4.97724E-24
4.27757E-03 4.71068E-24
4.39223E-03 4.46145E-24
4.50840E-03 4.22821E-24
4.62608E-03 4.00977E-24
4.74527E-03 3.80501E-24
4.86597E-03 3.61293E-24
4.98817E-03 3.43260E-24
5.11188E-03 3.26317E-24
5.23711E-03 3.10387E-24
5.36383E-03 2.95398E-24
5.49207E-03 2.81284E-24
5.62181E-03 2.67987E-24
5.75306E-03 2.55449E-24
5.88581E-03 2.43620E-24
6.02007E-03 2.32452E-24
6.15583E-03 2.21903E-24
6.29310E-03 2.11931E-24
6.43187E-03 2.02500E-24
6.57214E-03 1.93575E-24
6.71392E-03 1.85124E-24
6.85720E-03 1.77118E-24
7.00198E-03 1.69528E-24
7.14827E-03 1.62330E-24
7.29605E-03 1.55499E-24
7.44534E-03 1.49014E-24
7.59612E-03 1.42853E-24
7.97965E-03 1.28752E-24
8.37255E-03 1.16300E-24
8.77480E-03 1.05273E-24
9.18641E-03 9.54821E-25
9.60736E-03 8.67667E-25
1.00376E-02 7.89896E-25
1.04773E-02 7.20338E-25
1.09262E-02 6.57987E-25
1.13844E-02 6.01978E-25
1.18520E-02 5.51564E-25
1.23288E-02 5.06097E-25
1.28150E-02 4.65017E-25
1.33104E-02 4.27832E-25
1.38150E-02 3.94117E-25
1.43290E-02 3.63498E-25
1.48521E-02 3.35645E-25
1.53845E-02 3.10271E-25
1.59262E-02 2.87121E-25
1.64770E-02 2.65971E-25
1.70371E-02 2.46621E-25
1.76063E-02 2.28896E-25
1.81848E-02 2.12637E-25
1.87724E-02 1.97707E-25
1.93692E-02 1.83980E-25
1.99751E-02 1.71345E-25
2.05901E-02 1.59703E-25
2.12143E-02 1.48964E-25
2.18476E-02 1.39047E-25
2.24900E-02 1.29882E-25
2.31415E-02 1.21403E-25
2.38021E-02 1.13551E-25
2.44717E-02 1.06274E-25
2.51504E-02 9.95235E-26
2.58382E-02 9.32563E-26
2.65349E-02 8.74331E-26
2.72407E-02 8.20183E-26
2.79555E-02 7.69793E-26
2.86793E-02 7.22867E-26
2.94120E-02 6.79135E-26
3.01537E-02 6.38351E-26
3.09043E-02 6.00292E-26
3.16639E-02 5.64752E-26
3.24324E-02 5.31543E-26
3.32098E-02 5.00495E-26
3.39961E-02 4.71448E-26
3.47912E-02 4.44259E-26
3.55952E-02 4.18794E-26
3.64081E-02 3.94931E-26
3.72297E-02 3.72557E-26
3.80602E-02 3.51570E-26
3.88995E-02 3.31873E-26
3.97476E-02 3.13377E-26
4.06044E-02 2.96003E-26
4.14700E-02 2.79674E-26
4.23443E-02 2.64320E-26
4.32273E-02 2.49878E-26
4.41190E-02 2.36287E-26
4.50194E-02 2.23492E-26
4.59284E-02 2.11442E-26
4.68461E-02 2.00089E-26
4.87074E-02 1.79301E-26
5.06030E-02 1.60809E-26
5.25328E-02 1.44338E-26
5.44967E-02 1.29648E-26
5.64946E-02 1.16532E-26
5.85262E-02 1.04808E-26
6.05914E-02 9.43172E-27
6.26901E-02 8.49208E-27
6.48222E-02 7.64968E-27
6.69873E-02 6.89382E-27
6.91854E-02 6.21506E-27
7.14163E-02 5.60507E-27
7.36799E-02 5.05650E-27
7.59760E-02 4.56284E-27
7.83043E-02 4.11834E-27
8.06647E-02 3.71786E-27
8.30571E-02 3.35687E-27
8.54812E-02 3.03132E-27
8.79369E-02 2.73759E-27
9.04240E-02 2.47248E-27
9.29422E-02 2.23310E-27
9.54915E-02 2.01690E-27
9.80716E-02 1.82158E-27
1.00682E-01 1.64507E-27
1.03323E-01 1.48552E-27
1.05995E-01 1.34129E-27
1.08696E-01 1.21088E-27
1.11427E-01 1.09296E-27
1.14188E-01 9.86312E-28
1.16978E-01 8.89864E-28
1.19797E-01 8.02636E-28
1.22645E-01 7.23746E-28
1.25522E-01 6.52401E-28
1.28428E-01 5.87884E-28
1.31361E-01 5.29547E-28
1.34323E-01 4.76804E-28
1.37313E-01 4.29127E-28
1.40330E-01 3.86038E-28
1.43375E-01 3.47103E-28
1.46447E-01 3.11930E-28
1.49545E-01 2.80165E-28
1.52671E-01 2.51487E-28
1.55823E-01 2.25604E-28
1.59001E-01 2.02252E-28
1.62205E-01 1.81193E-28
1.65435E-01 1.62210E-28
1.68690E-01 1.45105E-28
1.71970E-01 1.29701E-28
1.75276E-01 1.15836E-28
1.78606E-01 1.03364E-28
1.81961E-01 9.21507E-29
1.85340E-01 8.20765E-29
1.88743E-01 7.30318E-29
1.92169E-01 6.49171E-29
1.95619E-01 5.76426E-29
1.99092E-01 5.11266E-29
2.02589E-01 4.52950E-29
2.06107E-01 4.00808E-29
2.09649E-01 3.54232E-29
2.13212E-01 3.12669E-29
2.16797E-01 2.75622E-29
2.20404E-01 2.42637E-29
2.24032E-01 2.13305E-29
2.27680E-01 1.87255E-29
2.31350E-01 1.64151E-29
2.35040E-01 1.43691E-29
2.38751E-01 1.25600E-29
2.42481E-01 1.09629E-29
2.46231E-01 9.55558E-30
2.50000E-01 8.31773E-30
2.53788E-01 7.23114E-30
2.57595E-01 6.27937E-30
2.61421E-01 5.44761E-30
2.65264E-01 4.72253E-30
2.69126E-01 4.09212E-30
2.73005E-01 3.54561E-30
2.76901E-01 3.07331E-30
2.80814E-01 2.66653E-30
2.84744E-01 2.31749E-30
2.88691E-01 2.01921E-30
2.92653E-01 1.76545E-30
2.96632E-01 1.55064E-30
3.00625E-01 1.36981E-30
3.04634E-01 1.21854E-30
3.08658E-01 1.09288E-30
3.12697E-01 9.89350E-31
3.16749E-01 9.04834E-31
3.20816E-01 8.36594E-31
3.24896E-01 7.82208E-31
3.28990E-01 7.39542E-31
3.33097E-01 7.06718E-31
3.37216E-01 6.82094E-31
3.41348E-01 6.64232E-31
3.45492E-01 6.51880E-31
3.49647E-01 6.43951E-31
3.53814E-01 6.39505E-31
3.57992E-01 6.37733E-31
3.62181E-01 6.37942E-31
3.66381E-01 6.39542E-31
3.70590E-01 6.42036E-31
3.74810E-01 6.45003E-31
3.79039E-01 6.48097E-31
3.83277E-01 6.51032E-31
3.87524E-01 6.53577E-31
3.91780E-01 6.55548E-31
3.96044E-01 6.56801E-31
4.00316E-01 6.57230E-31
4.04596E-01 6.56759E-31
4.08882E-01 6.55337E-31
4.13176E-01 6.52936E-31
4.17476E-01 6.49548E-31
4.21783E-01 6.45179E-31
4.26095E-01 6.39850E-31
4.30413E-01 6.33591E-31
4.34737E-01 6.26443E-31
4.39065E-01 6.18450E-31
4.43398E-01 6.09665E-31
4.47736E-01 6.00144E-31
4.52077E-01 5.89943E-31
4.56422E-01 5.79124E-31
4.60770E-01 5.67746E-31
4.65122E-01 5.55870E-31
4.69476E-01 5.43556E-31
4.73832E-01 5.30862E-31
4.78190E-01 5.17846E-31
4.82550E-01 5.04562E-31
4.86912E-01 4.91064E-31
4.91274E-01 4.77403E-31
4.95637E-01 4.63625E-31
5.00000E-01 4.49777E-31
5.04363E-01 4.35902E-31
5.08726E-01 4.22038E-31
5.13088E-01 4.08222E-31
5.17450E-01 3.94490E-31
5.21810E-01 3.80871E-31
5.26168E-01 3.67396E-31
5.30524E-01 3.54089E-31
5.34878E-01 3.40975E-31
5.39230E-01 3.28074E-31
5.43578E-01 3.15405E-31
5.47923E-01 3.02986E-31
5.52264E-01 2.90829E-31
5.56602E-01 2.78948E-31
5.60935E-01 2.67353E-31
5.65263E-01 2.56053E-31
5.69587E-01 2.45055E-31
5.73905E-01 2.34364E-31
5.78217E-01 2.23985E-31
5.82524E-01 2.13920E-31
5.86824E-01 2.04171E-31
5.91118E-01 1.94739E-31
5.95404E-01 1.85622E-31
5.99684E-01 1.76819E-31
6.03956E-01 1.68327E-31
6.08220E-01 1.60145E-31
6.12476E-01 1.52267E-31
6.16723E-01 1.44689E-31
6.20961E-01 1.37406E-31
6.25190E-01 1.30412E-31
6.29410E-01 1.23703E-31
6.33619E-01 1.17271E-31
6.37819E-01 1.11109E-31
6.42008E-01 1.05212E-31
6.46186E-01 9.95721E-32
6.50353E-01 9.41817E-32
6.54508E-01 8.90338E-32
6.58652E-01 8.41211E-32
6.62784E-01 7.94360E-32
6.66903E-01 7.49712E-32
6.71010E-01 7.07190E-32
6.75104E-01 6.66721E-32
6.79184E-01 6.28232E-32
6.83251E-01 5.91649E-32
6.87303E-01 5.56899E-32
6.91342E-01 5.23912E-32
6.95366E-01 4.92618E-32
6.99375E-01 4.62948E-32
7.03368E-01 4.34835E-32
7.07347E-01 4.08213E-32
7.11309E-01 3.83018E-32
7.15256E-01 3.59189E-32
7.19186E-01 3.36664E-32
7.23099E-01 3.15383E-32
7.26995E-01 2.95291E-32
7.30874E-01 2.76332E-32
7.34736E-01 2.58452E-32
7.38579E-01 2.41599E-32
7.42405E-01 2.25723E-32
7.46212E-01 2.10777E-32
7.50000E-01 1.96714E-32
7.53769E-01 1.83488E-32
7.57519E-01 1.71058E-32
7.61249E-01 1.59382E-32
7.64960E-01 1.48420E-32
7.68650E-01 1.38135E-32
7.72320E-01 1.28490E-32
7.75968E-01 1.19451E-32
7.79596E-01 1.10985E-32
7.83203E-01 1.03059E-32
7.86788E-01 9.56442E-33
7.90351E-01 8.87107E-33
7.93893E-01 8.22315E-33
7.97411E-01 7.61803E-33
8.00908E-01 7.05321E-33
8.04381E-01 6.52634E-33
8.07831E-01 6.03516E-33
8.11257E-01 5.57753E-33
8.14660E-01 5.15142E-33
8.18039E-01 4.75490E-33
8.21394E-01 4.38617E-33
8.24724E-01 4.04347E-33
8.28030E-01 3.72519E-33
8.31310E-01 3.42978E-33
8.34565E-01 3.15578E-33
8.37795E-01 2.90179E-33
8.40999E-01 2.66654E-33
8.44177E-01 2.44877E-33
8.47329E-01 2.24734E-33
8.50455E-01 2.06114E-33
8.53553E-01 1.88916E-33
8.56625E-01 1.73043E-33
8.59670E-01 1.58403E-33
8.62687E-01 1.44910E-33
8.65677E-01 1.32486E-33
8.68639E-01 1.21053E-33
8.71572E-01 1.10542E-33
8.74478E-01 1.00885E-33
8.77355E-01 9.20209E-34
8.80203E-01 8.38913E-34
8.83022E-01 7.64419E-34
8.85812E-01 6.96215E-34
8.88573E-01 6.33823E-34
8.91304E-01 5.76803E-34
8.94005E-01 5.24738E-34
8.96677E-01 4.77241E-34
8.99318E-01 4.33953E-34
9.01928E-01 3.94536E-34
9.04508E-01 3.58679E-34
9.07058E-01 3.26091E-34
9.09576E-01 2.96501E-34
9.12063E-01 2.69663E-34
9.14519E-01 2.45339E-34
9.16943E-01 2.23317E-34
9.19335E-01 2.03398E-34
9.21696E-01 1.85395E-34
9.24024E-01 1.69139E-34
9.26320E-01 1.54472E-34
9.28584E-01 1.41249E-34
9.30815E-01 1.29337E-34
9.33013E-01 1.18611E-34
9.35178E-01 1.08958E-34
9.37310E-01 1.00276E-34
9.39409E-01 9.24674E-35
9.41474E-01 8.54444E-35
9.43505E-01 7.91286E-35
9.45503E-01 7.34464E-35
9.47467E-01 6.83298E-35
9.49397E-01 6.37198E-35
9.51293E-01 5.95604E-35
9.53154E-01 5.58008E-35
9.54981E-01 5.23972E-35
9.56773E-01 4.93070E-35
9.58530E-01 4.64932E-35
9.60252E-01 4.39236E-35
9.61940E-01 4.15680E-35
9.63592E-01 3.93989E-35
9.65209E-01 3.73930E-35
9.66790E-01 3.55288E-35
9.68336E-01 3.37883E-35
9.69846E-01 3.21542E-35
9.71321E-01 3.06118E-35
9.72759E-01 2.91490E-35
9.74162E-01 2.77548E-35
9.75528E-01 2.64197E-35
9.76858E-01 2.51353E-35
9.78152E-01 2.38952E-35
9.79410E-01 2.26933E-35
9.80631E-01 2.15255E-35
9.81815E-01 2.03878E-35
9.82963E-01 1.92774E-35
9.84074E-01 1.81919E-35
9.85148E-01 1.71301E-35
9.86185E-01 1.60907E-35
9.87185E-01 1.50736E-35
9.88148E-01 1.40785E-35
9.89074E-01 1.31059E-35
9.89962E-01 1.21564E-35
9.90814E-01 1.12309E-35
9.91627E-01 1.03309E-35
9.92404E-01 9.45712E-36
9.93143E-01 8.61158E-36
9.93844E-01 7.79565E-36
9.94508E-01 7.01125E-36
9.95134E-01 6.25972E-36
9.95722E-01 5.54314E-36
9.96273E-01 4.86314E-36
9.96786E-01 4.22145E-36
9.97261E-01 3.61966E-36
9.97698E-01 3.05945E-36
9.98097E-01 2.54244E-36
9.98459E-01 2.07001E-36
9.98782E-01 1.64350E-36
9.99067E-01 1.26415E-36
9.99315E-01 9.33054E-37
9.99524E-01 6.51179E-37
9.99695E-01 4.19456E-37
9.99829E-01 2.38427E-37
9.99924E-01 1.08775E-37
9.99981E-01 3.08018E-38
1.00000E+00 4.80004E-39
