 #
 # Subroutine ELSEPA. Elastic scattering of electrons and positrons
 #                    by neutral atoms and positive ions
 #
 # Projectile: electron
 # Kinetic energy = 6.00000E+08 eV = 2.20496E+07 a.u.
 #
 # WARNING: High-energy factorization with free-atom DF screening.
 #          Absorption, polarization and exchange corrections are
 #          switched off.
 #          Phase shifts are calculated for the bare nucleus.
 #          Scattering amplitudes are not evaluated.
 #
 # Element:  V,  Z =  23,  atomic weight = 5.09415E+01 g/mol
 #
 # Nuclear model: Fermi distribution
 #                Average radius = 3.96650E-13 cm
 #                Skin thickness = 5.46000E-14 cm
 #
 # Number of electrons = 23
 #
 # Total elastic cross section = 1.91666E-18 cm**2 = 6.84450E-02 a0**2
 # 1st transport cross section = 3.07741E-27 cm**2 = 1.09896E-10 a0**2
 # 2nd transport cross section = 9.22900E-27 cm**2 = 3.29574E-10 a0**2
 #
 #
 # Differential cross section:                       MU=(1-COS(THETA))/2
 #
 #  THETA        MU          DCS          DCS        Sherman      error
 #  (deg)                 (cm**2/sr)   (a0**2/sr)    function
 #----------------------------------------------------------------------
0.00000E+00 9.45681E-09
7.61557E-13 8.28487E-09
1.18994E-12 7.72229E-09
1.71346E-12 7.11265E-09
2.33225E-12 6.48554E-09
3.04617E-12 5.86591E-09
3.85530E-12 5.27259E-09
4.75964E-12 4.71844E-09
5.75917E-12 4.21094E-09
6.85391E-12 3.75324E-09
8.04379E-12 3.34520E-09
9.32893E-12 2.98441E-09
1.07092E-11 2.66726E-09
1.21847E-11 2.38943E-09
1.37554E-11 2.14646E-09
1.54213E-11 1.93401E-09
1.71823E-11 1.74808E-09
1.90386E-11 1.58502E-09
2.09900E-11 1.44165E-09
2.30367E-11 1.31515E-09
2.51785E-11 1.20313E-09
2.74156E-11 1.10358E-09
2.97478E-11 1.01477E-09
3.21752E-11 9.35236E-10
3.46979E-11 8.63746E-10
3.73157E-11 7.99252E-10
4.00286E-11 7.40869E-10
4.28368E-11 6.87844E-10
4.57402E-11 6.39539E-10
4.87388E-11 5.95394E-10
5.18325E-11 5.54910E-10
5.50215E-11 5.17744E-10
5.83057E-11 4.83550E-10
6.16850E-11 4.52030E-10
6.51595E-11 4.21842E-10
6.87293E-11 3.93022E-10
7.23943E-11 3.66968E-10
7.61544E-11 3.43362E-10
1.18991E-10 1.86737E-10
1.71347E-10 1.06828E-10
2.33223E-10 6.41751E-11
3.04617E-10 4.05177E-11
3.85531E-10 2.68410E-11
4.75965E-10 1.85742E-11
5.75917E-10 1.33452E-11
6.85389E-10 9.89127E-12
8.04380E-10 7.52003E-12
9.32891E-10 5.83616E-12
1.07092E-09 4.60590E-12
1.21847E-09 3.68560E-12
1.37554E-09 2.98363E-12
1.54213E-09 2.43954E-12
1.71823E-09 2.01204E-12
1.90386E-09 1.67247E-12
2.09900E-09 1.40015E-12
2.30367E-09 1.17970E-12
2.51785E-09 1.00002E-12
2.74156E-09 8.52591E-13
2.97478E-09 7.30823E-13
3.21752E-09 6.29650E-13
3.46978E-09 5.45121E-13
3.73156E-09 4.74124E-13
4.00286E-09 4.14194E-13
4.28368E-09 3.63358E-13
4.57402E-09 3.20033E-13
4.87388E-09 2.82941E-13
5.18326E-09 2.51042E-13
5.50215E-09 2.23503E-13
5.83057E-09 1.99635E-13
6.16850E-09 1.78870E-13
6.51596E-09 1.60727E-13
6.87293E-09 1.44828E-13
7.23942E-09 1.30871E-13
7.61544E-09 1.18576E-13
1.18991E-08 4.96458E-14
1.71347E-08 2.43800E-14
2.33223E-08 1.33500E-14
3.04617E-08 7.91107E-15
3.85531E-08 4.97894E-15
4.75965E-08 3.28647E-15
5.75917E-08 2.25488E-15
6.85389E-08 1.59749E-15
8.04380E-08 1.16281E-15
9.32891E-08 8.66226E-16
1.07092E-07 6.58340E-16
1.21847E-07 5.09168E-16
1.37554E-07 3.99912E-16
1.54213E-07 3.18426E-16
1.71823E-07 2.56660E-16
1.90386E-07 2.09159E-16
2.09900E-07 1.72150E-16
2.30367E-07 1.42971E-16
2.51785E-07 1.19718E-16
2.74156E-07 1.01004E-16
2.97478E-07 8.58060E-17
3.21752E-07 7.33612E-17
3.46978E-07 6.30923E-17
3.73156E-07 5.45584E-17
4.00286E-07 4.74195E-17
4.28368E-07 4.14106E-17
4.57402E-07 3.63240E-17
4.87388E-07 3.19948E-17
5.18325E-07 2.82916E-17
5.50215E-07 2.51090E-17
5.83057E-07 2.23615E-17
6.16850E-07 1.99797E-17
6.51596E-07 1.79067E-17
6.87293E-07 1.60957E-17
7.23942E-07 1.45080E-17
7.61543E-07 1.31112E-17
1.18991E-06 5.37204E-18
1.71347E-06 2.59121E-18
2.33223E-06 1.39889E-18
3.04617E-06 8.20115E-19
3.85531E-06 5.12058E-19
4.75964E-06 3.36001E-19
5.75916E-06 2.29520E-19
6.85388E-06 1.62074E-19
8.04378E-06 1.17683E-19
9.32888E-06 8.75029E-20
1.07092E-05 6.64074E-20
1.21846E-05 5.13037E-20
1.37553E-05 4.02605E-20
1.54212E-05 3.20355E-20
1.71822E-05 2.58080E-20
1.90385E-05 2.10232E-20
2.09899E-05 1.72989E-20
2.30365E-05 1.43636E-20
2.51783E-05 1.20249E-20
2.74153E-05 1.01433E-20
2.97475E-05 8.61566E-21
3.21749E-05 7.36524E-21
3.46974E-05 6.33384E-21
3.73152E-05 5.47698E-21
4.00281E-05 4.76035E-21
4.28362E-05 4.15723E-21
4.57395E-05 3.64667E-21
4.87380E-05 3.21211E-21
5.18317E-05 2.84039E-21
5.50205E-05 2.52091E-21
5.83045E-05 2.24512E-21
6.16838E-05 2.00606E-21
6.51582E-05 1.79801E-21
6.87277E-05 1.61628E-21
7.23925E-05 1.45694E-21
7.61524E-05 1.30486E-21
9.21439E-05 8.89593E-22
1.09658E-04 6.26788E-22
1.28695E-04 4.53988E-22
1.49255E-04 3.36628E-22
1.71338E-04 2.54702E-22
1.94942E-04 1.96122E-22
2.20070E-04 1.53357E-22
2.46720E-04 1.21558E-22
2.74892E-04 9.75238E-23
3.04586E-04 7.90932E-23
3.35803E-04 6.47728E-23
3.68542E-04 5.35145E-23
4.02802E-04 4.45678E-23
4.38585E-04 3.73884E-23
4.75889E-04 3.15755E-23
5.14715E-04 2.68302E-23
5.55063E-04 2.29270E-23
5.96931E-04 1.96940E-23
6.40321E-04 1.69988E-23
6.85233E-04 1.47383E-23
7.31665E-04 1.28317E-23
7.79618E-04 1.12152E-23
8.29092E-04 9.83803E-24
8.80086E-04 8.65929E-24
9.32601E-04 7.64605E-24
9.86636E-04 6.77156E-24
1.04219E-03 6.01394E-24
1.09927E-03 5.35520E-24
1.15786E-03 4.78051E-24
1.21797E-03 4.27751E-24
1.27961E-03 3.83594E-24
1.34276E-03 3.44718E-24
1.40743E-03 3.10397E-24
1.47362E-03 2.80019E-24
1.54133E-03 2.53064E-24
1.61056E-03 2.29092E-24
1.68131E-03 2.07723E-24
1.75357E-03 1.88635E-24
1.82735E-03 1.71550E-24
1.90265E-03 1.56227E-24
1.97947E-03 1.42460E-24
2.05780E-03 1.30069E-24
2.13765E-03 1.18897E-24
2.21902E-03 1.08808E-24
2.30190E-03 9.96827E-25
2.38630E-03 9.14172E-25
2.47222E-03 8.39195E-25
2.55965E-03 7.71091E-25
2.64859E-03 7.09150E-25
2.73905E-03 6.52742E-25
2.83103E-03 6.01312E-25
2.92452E-03 5.54366E-25
3.01952E-03 5.11466E-25
3.11604E-03 4.72221E-25
3.21407E-03 4.36282E-25
3.31362E-03 4.03340E-25
3.41468E-03 3.73116E-25
3.51725E-03 3.45360E-25
3.62133E-03 3.19848E-25
3.72692E-03 2.96380E-25
3.83403E-03 2.74774E-25
3.94265E-03 2.54867E-25
4.05278E-03 2.36512E-25
4.16442E-03 2.19576E-25
4.27757E-03 2.03938E-25
4.39223E-03 1.89490E-25
4.50840E-03 1.76132E-25
4.62608E-03 1.63774E-25
4.74527E-03 1.52335E-25
4.86597E-03 1.41741E-25
4.98817E-03 1.31924E-25
5.11188E-03 1.22822E-25
5.23711E-03 1.14379E-25
5.36383E-03 1.06544E-25
5.49207E-03 9.92690E-26
5.62181E-03 9.25117E-26
5.75306E-03 8.62324E-26
5.88581E-03 8.03949E-26
6.02007E-03 7.49662E-26
6.15583E-03 6.99158E-26
6.29310E-03 6.52156E-26
6.43187E-03 6.08400E-26
6.57214E-03 5.67652E-26
6.71392E-03 5.29693E-26
6.85720E-03 4.94325E-26
7.00198E-03 4.61359E-26
7.14827E-03 4.30626E-26
7.29605E-03 4.01967E-26
7.44534E-03 3.75236E-26
7.59612E-03 3.50299E-26
7.97965E-03 2.95002E-26
8.37255E-03 2.48444E-26
8.77480E-03 2.09207E-26
9.18641E-03 1.76116E-26
9.60736E-03 1.48192E-26
1.00376E-02 1.24620E-26
1.04773E-02 1.04717E-26
1.09262E-02 8.79117E-27
1.13844E-02 7.37238E-27
1.18520E-02 6.17489E-27
1.23288E-02 5.16465E-27
1.28150E-02 4.31290E-27
1.33104E-02 3.59534E-27
1.38150E-02 2.99141E-27
1.43290E-02 2.48368E-27
1.48521E-02 2.05738E-27
1.53845E-02 1.69999E-27
1.59262E-02 1.40088E-27
1.64770E-02 1.15101E-27
1.70371E-02 9.42723E-28
1.76063E-02 7.69502E-28
1.81848E-02 6.25817E-28
1.87724E-02 5.06976E-28
1.93692E-02 4.08996E-28
1.99751E-02 3.28497E-28
2.05901E-02 2.62618E-28
2.12143E-02 2.08937E-28
2.18476E-02 1.65403E-28
2.24900E-02 1.30286E-28
2.31415E-02 1.02129E-28
2.38021E-02 7.97024E-29
2.44717E-02 6.19762E-29
2.51504E-02 4.80861E-29
2.58382E-02 3.73102E-29
2.65349E-02 2.90466E-29
2.72407E-02 2.27957E-29
2.79555E-02 1.81441E-29
2.86793E-02 1.47509E-29
2.94120E-02 1.23368E-29
3.01537E-02 1.06741E-29
3.09043E-02 9.57813E-30
3.16639E-02 8.90033E-30
3.24324E-02 8.52228E-30
3.32098E-02 8.35045E-30
3.39961E-02 8.31190E-30
3.47912E-02 8.35061E-30
3.55952E-02 8.42438E-30
3.64081E-02 8.50221E-30
3.72297E-02 8.56210E-30
3.80602E-02 8.58925E-30
3.88995E-02 8.57453E-30
3.97476E-02 8.51318E-30
4.06044E-02 8.40383E-30
4.14700E-02 8.24757E-30
4.23443E-02 8.04734E-30
4.32273E-02 7.80728E-30
4.41190E-02 7.53235E-30
4.50194E-02 7.22794E-30
4.59284E-02 6.89961E-30
4.68461E-02 6.55284E-30
4.87074E-02 5.82488E-30
5.06030E-02 5.08212E-30
5.25328E-02 4.35564E-30
5.44967E-02 3.66897E-30
5.64946E-02 3.03836E-30
5.85262E-02 2.47364E-30
6.05914E-02 1.97934E-30
6.26901E-02 1.55575E-30
6.48222E-02 1.20006E-30
6.69873E-02 9.07310E-31
6.91854E-02 6.71180E-31
7.14163E-02 4.84691E-31
7.36799E-02 3.40690E-31
7.59760E-02 2.32235E-31
7.83043E-02 1.52854E-31
8.06647E-02 9.67044E-32
8.30571E-02 5.86647E-32
8.54812E-02 3.43564E-32
8.79369E-02 2.01295E-32
9.04240E-02 1.30157E-32
9.29422E-02 1.06624E-32
9.54915E-02 1.12578E-32
9.80716E-02 1.34513E-32
1.00682E-01 1.62756E-32
1.03323E-01 1.90745E-32
1.05995E-01 2.14359E-32
1.08696E-01 2.31344E-32
1.11427E-01 2.40819E-32
1.14188E-01 2.42858E-32
1.16978E-01 2.38168E-32
1.19797E-01 2.27821E-32
1.22645E-01 2.13059E-32
1.25522E-01 1.95154E-32
1.28428E-01 1.75304E-32
1.31361E-01 1.54574E-32
1.34323E-01 1.33861E-32
1.37313E-01 1.13879E-32
1.40330E-01 9.51655E-33
1.43375E-01 7.80889E-33
1.46447E-01 6.28722E-33
1.49545E-01 4.96142E-33
1.52671E-01 3.83134E-33
1.55823E-01 2.88913E-33
1.59001E-01 2.12140E-33
1.62205E-01 1.51112E-33
1.65435E-01 1.03918E-33
1.68690E-01 6.85756E-34
1.71970E-01 4.31316E-34
1.75276E-01 2.57367E-34
1.78606E-01 1.46990E-34
1.81961E-01 8.51608E-35
1.85340E-01 5.89071E-35
1.88743E-01 5.73345E-35
1.92169E-01 7.15553E-35
1.95619E-01 9.45453E-35
1.99092E-01 1.20956E-34
2.02589E-01 1.46899E-34
2.06107E-01 1.69725E-34
2.09649E-01 1.87801E-34
2.13212E-01 2.00304E-34
2.16797E-01 2.07029E-34
2.20404E-01 2.08227E-34
2.24032E-01 2.04456E-34
2.27680E-01 1.96465E-34
2.31350E-01 1.85098E-34
2.35040E-01 1.71221E-34
2.38751E-01 1.55663E-34
2.42481E-01 1.39183E-34
2.46231E-01 1.22444E-34
2.50000E-01 1.05999E-34
2.53788E-01 9.02866E-35
2.57595E-01 7.56387E-35
2.61421E-01 6.22837E-35
2.65264E-01 5.03600E-35
2.69126E-01 3.99279E-35
2.73005E-01 3.09839E-35
2.76901E-01 2.34740E-35
2.80814E-01 1.73059E-35
2.84744E-01 1.23615E-35
2.88691E-01 8.50628E-36
2.92653E-01 5.59801E-36
2.96632E-01 3.49390E-36
3.00625E-01 2.05586E-36
3.04634E-01 1.15469E-36
3.08658E-01 6.72787E-37
3.12697E-01 5.05888E-37
3.16749E-01 5.63893E-37
3.20816E-01 7.70934E-37
3.24896E-01 1.06488E-36
3.28990E-01 1.39643E-36
3.33097E-01 1.72796E-36
3.37216E-01 2.03210E-36
3.41348E-01 2.29033E-36
3.45492E-01 2.49151E-36
3.49647E-01 2.63051E-36
3.53814E-01 2.70689E-36
3.57992E-01 2.72373E-36
3.62181E-01 2.68663E-36
3.66381E-01 2.60277E-36
3.70590E-01 2.48025E-36
3.74810E-01 2.32745E-36
3.79039E-01 2.15256E-36
3.83277E-01 1.96332E-36
3.87524E-01 1.76669E-36
3.91780E-01 1.56877E-36
3.96044E-01 1.37468E-36
4.00316E-01 1.18859E-36
4.04596E-01 1.01369E-36
4.08882E-01 8.52309E-37
4.13176E-01 7.05959E-37
4.17476E-01 5.75449E-37
4.21783E-01 4.60986E-37
4.26095E-01 3.62284E-37
4.30413E-01 2.78658E-37
4.34737E-01 2.09134E-37
4.39065E-01 1.52528E-37
4.43398E-01 1.07524E-37
4.47736E-01 7.27484E-38
4.52077E-01 4.68101E-38
4.56422E-01 2.83589E-38
4.60770E-01 1.61149E-38
4.65122E-01 8.89378E-39
4.69476E-01 5.61737E-39
4.73832E-01 5.33473E-39
4.78190E-01 7.21470E-39
4.82550E-01 1.05493E-38
4.86912E-01 1.47494E-38
4.91274E-01 1.93368E-38
4.95637E-01 2.39339E-38
5.00000E-01 2.82541E-38
5.04363E-01 3.20914E-38
5.08726E-01 3.53070E-38
5.13088E-01 3.78218E-38
5.17450E-01 3.96036E-38
5.21810E-01 4.06582E-38
5.26168E-01 4.10214E-38
5.30524E-01 4.07500E-38
5.34878E-01 3.99148E-38
5.39230E-01 3.85965E-38
5.43578E-01 3.68789E-38
5.47923E-01 3.48459E-38
5.52264E-01 3.25780E-38
5.56602E-01 3.01504E-38
5.60935E-01 2.76314E-38
5.65263E-01 2.50811E-38
5.69587E-01 2.25516E-38
5.73905E-01 2.00860E-38
5.78217E-01 1.77200E-38
5.82524E-01 1.54811E-38
5.86824E-01 1.33900E-38
5.91118E-01 1.14609E-38
5.95404E-01 9.70241E-39
5.99684E-01 8.11808E-39
6.03956E-01 6.70771E-39
6.08220E-01 5.46684E-39
6.12476E-01 4.38915E-39
6.16723E-01 3.46456E-39
6.20961E-01 2.68305E-39
6.25190E-01 2.03230E-39
6.29410E-01 1.49969E-39
6.33619E-01 1.00000E-45
6.37819E-01 1.00000E-45
6.42008E-01 1.00000E-45
6.46186E-01 1.00000E-45
6.50353E-01 1.00000E-45
6.54508E-01 1.00000E-45
6.58652E-01 1.00000E-45
6.62784E-01 1.00000E-45
6.66903E-01 1.00000E-45
6.71010E-01 1.00000E-45
6.75104E-01 1.00000E-45
6.79184E-01 1.00000E-45
6.83251E-01 1.00000E-45
6.87303E-01 1.00000E-45
6.91342E-01 1.00000E-45
6.95366E-01 1.00000E-45
6.99375E-01 1.00000E-45
7.03368E-01 1.00000E-45
7.07347E-01 1.00000E-45
7.11309E-01 1.00000E-45
7.15256E-01 1.00000E-45
7.19186E-01 1.00000E-45
7.23099E-01 1.00000E-45
7.26995E-01 1.00000E-45
7.30874E-01 1.00000E-45
7.34736E-01 1.00000E-45
7.38579E-01 1.00000E-45
7.42405E-01 1.00000E-45
7.46212E-01 1.00000E-45
7.50000E-01 1.00000E-45
7.53769E-01 1.00000E-45
7.57519E-01 1.00000E-45
7.61249E-01 1.00000E-45
7.64960E-01 1.00000E-45
7.68650E-01 1.00000E-45
7.72320E-01 1.00000E-45
7.75968E-01 1.00000E-45
7.79596E-01 1.00000E-45
7.83203E-01 1.00000E-45
7.86788E-01 1.00000E-45
7.90351E-01 1.00000E-45
7.93893E-01 1.00000E-45
7.97411E-01 1.00000E-45
8.00908E-01 1.00000E-45
8.04381E-01 1.00000E-45
8.07831E-01 1.00000E-45
8.11257E-01 1.00000E-45
8.14660E-01 1.00000E-45
8.18039E-01 1.00000E-45
8.21394E-01 1.00000E-45
8.24724E-01 1.00000E-45
8.28030E-01 1.00000E-45
8.31310E-01 1.00000E-45
8.34565E-01 1.00000E-45
8.37795E-01 1.00000E-45
8.40999E-01 1.00000E-45
8.44177E-01 1.00000E-45
8.47329E-01 1.00000E-45
8.50455E-01 1.00000E-45
8.53553E-01 1.00000E-45
8.56625E-01 1.00000E-45
8.59670E-01 1.00000E-45
8.62687E-01 1.00000E-45
8.65677E-01 1.00000E-45
8.68639E-01 1.00000E-45
8.71572E-01 1.00000E-45
8.74478E-01 1.00000E-45
8.77355E-01 1.00000E-45
8.80203E-01 1.00000E-45
8.83022E-01 1.00000E-45
8.85812E-01 1.00000E-45
8.88573E-01 1.00000E-45
8.91304E-01 1.00000E-45
8.94005E-01 1.00000E-45
8.96677E-01 1.00000E-45
8.99318E-01 1.00000E-45
9.01928E-01 1.00000E-45
9.04508E-01 1.00000E-45
9.07058E-01 1.00000E-45
9.09576E-01 1.00000E-45
9.12063E-01 1.00000E-45
9.14519E-01 1.00000E-45
9.16943E-01 1.00000E-45
9.19335E-01 1.00000E-45
9.21696E-01 1.00000E-45
9.24024E-01 1.00000E-45
9.26320E-01 1.00000E-45
9.28584E-01 1.00000E-45
9.30815E-01 1.00000E-45
9.33013E-01 1.00000E-45
9.35178E-01 1.00000E-45
9.37310E-01 1.00000E-45
9.39409E-01 1.00000E-45
9.41474E-01 1.00000E-45
9.43505E-01 1.00000E-45
9.45503E-01 1.00000E-45
9.47467E-01 1.00000E-45
9.49397E-01 1.00000E-45
9.51293E-01 1.00000E-45
9.53154E-01 1.00000E-45
9.54981E-01 1.00000E-45
9.56773E-01 1.00000E-45
9.58530E-01 1.00000E-45
9.60252E-01 1.00000E-45
9.61940E-01 1.00000E-45
9.63592E-01 1.00000E-45
9.65209E-01 1.00000E-45
9.66790E-01 1.00000E-45
9.68336E-01 1.00000E-45
9.69846E-01 1.00000E-45
9.71321E-01 1.00000E-45
9.72759E-01 1.00000E-45
9.74162E-01 1.00000E-45
9.75528E-01 1.00000E-45
9.76858E-01 1.00000E-45
9.78152E-01 1.00000E-45
9.79410E-01 1.00000E-45
9.80631E-01 1.00000E-45
9.81815E-01 1.00000E-45
9.82963E-01 1.00000E-45
9.84074E-01 1.00000E-45
9.85148E-01 1.00000E-45
9.86185E-01 1.00000E-45
9.87185E-01 1.00000E-45
9.88148E-01 1.00000E-45
9.89074E-01 1.00000E-45
9.89962E-01 1.00000E-45
9.90814E-01 1.00000E-45
9.91627E-01 1.00000E-45
9.92404E-01 1.00000E-45
9.93143E-01 1.00000E-45
9.93844E-01 1.00000E-45
9.94508E-01 1.00000E-45
9.95134E-01 1.00000E-45
9.95722E-01 1.00000E-45
9.96273E-01 1.00000E-45
9.96786E-01 1.00000E-45
9.97261E-01 1.00000E-45
9.97698E-01 1.00000E-45
9.98097E-01 1.00000E-45
9.98459E-01 1.00000E-45
9.98782E-01 1.00000E-45
9.99067E-01 1.00000E-45
9.99315E-01 1.00000E-45
9.99524E-01 1.00000E-45
9.99695E-01 1.00000E-45
9.99829E-01 1.00000E-45
9.99924E-01 1.00000E-45
9.99981E-01 1.00000E-45
1.00000E+00 1.00000E-45
