 #  Total cross section table (last run of 'elscata').
 #
 #  Z =  23,   projectile: electron
 #
 #   Energy         ECS         TCS1         TCS2         ABSCS      error
 #    (eV)        (cm**2)      (cm**2)      (cm**2)      (cm**2)
 #--------------------------------------------------------------------------
   1.00000E+02  7.44984E-16  1.76715E-16  1.73051E-16  8.67905E-16  1.7E-06
   1.25000E+02  6.77878E-16  1.61741E-16  1.42887E-16  7.36550E-16  3.4E-06
   1.50000E+02  6.21244E-16  1.46278E-16  1.21500E-16  6.41858E-16  1.8E-06
   1.75000E+02  5.73604E-16  1.31936E-16  1.06484E-16  5.70121E-16  6.4E-06
   2.00000E+02  5.33483E-16  1.19194E-16  9.56780E-17  5.13734E-16  2.2E-06
   2.50000E+02  4.70108E-16  9.83322E-17  8.12754E-17  4.30491E-16  1.1E-05
   3.00000E+02  4.22452E-16  8.24659E-17  7.17947E-17  3.71760E-16  1.5E-06
   3.50000E+02  3.85265E-16  7.02581E-17  6.47156E-17  3.27922E-16  1.5E-06
   4.00000E+02  3.55211E-16  6.06354E-17  5.89617E-17  2.93910E-16  6.5E-07
   4.50000E+02  3.30629E-16  5.30914E-17  5.42300E-17  2.66484E-16  3.1E-06
   5.00000E+02  3.10430E-16  4.71824E-17  5.03729E-17  2.43647E-16  7.6E-06
   6.00000E+02  2.78435E-16  3.83803E-17  4.41776E-17  2.07962E-16  1.1E-05
   7.00000E+02  2.52911E-16  3.20946E-17  3.92688E-17  1.81423E-16  4.4E-06
   8.00000E+02  2.32088E-16  2.73781E-17  3.52567E-17  1.60937E-16  8.7E-06
   9.00000E+02  2.15306E-16  2.37160E-17  3.18962E-17  1.44649E-16  7.5E-06
   1.00000E+03  2.01383E-16  2.07992E-17  2.90369E-17  1.31389E-16  3.2E-06
   1.25000E+03  1.74789E-16  1.56161E-17  2.34748E-17  1.06979E-16  3.0E-03
   1.50000E+03  1.55550E-16  1.22519E-17  1.94641E-17  9.02953E-17  1.0E+00
   1.75000E+03  1.40785E-16  9.92401E-18  1.64615E-17  7.81625E-17  5.0E-03
   2.00000E+03  1.28994E-16  8.23587E-18  1.41460E-17  6.89374E-17  6.1E-03
   2.50000E+03  1.11163E-16  5.98489E-18  1.08422E-17  5.58290E-17  6.8E-03
   3.00000E+03  9.81746E-17  4.57944E-18  8.62768E-18  4.69551E-17  5.5E-03
   3.50000E+03  8.82112E-17  3.63664E-18  7.06219E-18  4.05413E-17  3.8E-03
   4.00000E+03  8.02853E-17  2.97196E-18  5.91194E-18  3.56828E-17  6.8E-03
   4.50000E+03  7.37993E-17  2.48285E-18  5.03715E-18  3.18749E-17  6.9E-03
   5.00000E+03  6.83750E-17  2.11078E-18  4.35346E-18  2.88103E-17  9.0E-03
   6.00000E+03  5.97771E-17  1.58830E-18  3.36286E-18  2.41822E-17  1.2E-02
   7.00000E+03  5.32351E-17  1.24451E-18  2.68844E-18  2.08532E-17  2.3E-02
   8.00000E+03  4.80688E-17  1.00494E-18  2.20589E-18  1.83435E-17  2.6E-02
   9.00000E+03  4.38740E-17  8.30629E-19  1.84732E-18  1.63837E-17  1.3E-02
   1.00000E+04  4.03934E-17  6.99474E-19  1.57281E-18  1.48108E-17  1.3E-02
   1.25000E+04  3.34693E-17  4.84011E-19  1.11159E-18  1.19682E-17  1.2E-06
   1.50000E+04  2.89107E-17  3.56877E-19  8.32344E-19  1.00647E-17  1.7E-06
   1.75000E+04  2.55027E-17  2.75168E-19  6.49444E-19  8.70084E-18  2.0E-06
   2.00000E+04  2.28549E-17  2.19341E-19  5.22642E-19  7.67564E-18  1.0E-07
   2.50000E+04  1.90034E-17  1.49781E-19  3.62131E-19  6.23681E-18  1.0E-07
   3.00000E+04  1.63336E-17  1.09484E-19  2.67575E-19  5.27516E-18  2.8E-07
   3.50000E+04  1.43727E-17  8.39282E-20  2.06869E-19  4.58675E-18  8.9E-07
   4.00000E+04  1.28708E-17  6.66421E-20  1.65410E-19  4.07144E-18  1.0E-07
   4.50000E+04  1.16834E-17  5.43693E-20  1.35744E-19  3.66957E-18  1.0E-07
   5.00000E+04  1.07212E-17  4.53207E-20  1.13729E-19  3.34795E-18  1.0E-07
   6.00000E+04  9.25662E-18  3.30875E-20  8.37358E-20  2.86536E-18  1.3E-05
   7.00000E+04  8.19480E-18  2.53783E-20  6.46681E-20  2.52066E-18  1.2E-05
   8.00000E+04  7.38989E-18  2.01848E-20  5.17320E-20  2.26224E-18  1.2E-05
   9.00000E+04  6.75891E-18  1.65068E-20  4.25168E-20  2.06136E-18  1.9E-05
   1.00000E+05  6.25114E-18  1.37990E-20  3.56981E-20  1.90079E-18  5.2E-05
   1.25000E+05  5.33114E-18  9.46847E-21  2.47174E-20  1.61217E-18  3.8E-04
   1.50000E+05  4.71440E-18  6.98383E-21  1.83625E-20  1.41994E-18  1.6E-03
   1.75000E+05  4.27302E-18  5.41378E-21  1.43189E-20  1.28217E-18  5.1E-03
   2.00000E+05  3.94210E-18  4.35148E-21  1.15670E-20  1.17762E-18  1.3E-02
   2.50000E+05  3.48036E-18  3.03496E-21  8.13302E-21  1.02471E-18  4.7E-02
   3.00000E+05  3.17494E-18  2.27102E-21  6.12438E-21  9.48882E-19  2.2E-05
   3.50000E+05  2.95907E-18  1.78262E-21  4.83184E-21  8.83411E-19  2.6E-05
   4.00000E+05  2.79912E-18  1.44834E-21  3.94232E-21  8.35025E-19  1.0E-07
   4.50000E+05  2.67637E-18  1.20767E-21  3.29889E-21  7.97960E-19  1.0E-07
   5.00000E+05  2.57956E-18  1.02751E-21  2.81528E-21  7.68758E-19  2.2E-07
   6.00000E+05  2.43748E-18  7.78323E-22  2.14304E-21  7.25821E-19  1.4E-06
   7.00000E+05  2.33913E-18  6.16178E-22  1.70309E-21  6.96526E-19  1.0E-07
   8.00000E+05  2.26770E-18  5.03514E-22  1.39598E-21  6.75115E-19  1.0E-07
   9.00000E+05  2.21393E-18  4.21364E-22  1.17118E-21  6.59013E-19  1.0E-07
   1.00000E+06  2.17230E-18  3.59219E-22  1.00057E-21  6.46558E-19  1.0E-07
   1.25000E+06  2.10284E-18  2.56817E-22  7.18241E-22  0.00000E+00  1.4E-05
   1.50000E+06  2.05850E-18  1.94077E-22  5.44393E-22  0.00000E+00  1.4E-05
   1.75000E+06  2.02908E-18  1.52780E-22  4.29539E-22  0.00000E+00  1.5E-05
   2.00000E+06  2.00846E-18  1.23922E-22  3.49047E-22  0.00000E+00  1.6E-05
   2.50000E+06  1.98190E-18  8.69165E-23  2.45509E-22  0.00000E+00  1.6E-05
   3.00000E+06  1.96611E-18  6.47347E-23  1.83239E-22  0.00000E+00  1.7E-05
   3.50000E+06  1.95568E-18  5.02829E-23  1.42569E-22  0.00000E+00  1.7E-05
   4.00000E+06  1.94897E-18  4.02957E-23  1.14410E-22  0.00000E+00  1.8E-05
   4.50000E+06  1.94288E-18  3.30784E-23  9.40273E-23  0.00000E+00  1.8E-05
   5.00000E+06  1.94270E-18  2.76947E-23  7.88053E-23  0.00000E+00  1.8E-05
   6.00000E+06  1.93548E-18  2.02808E-23  5.78066E-23  0.00000E+00  1.9E-05
   7.00000E+06  1.93230E-18  1.55387E-23  4.43522E-23  0.00000E+00  1.9E-05
   8.00000E+06  1.93058E-18  1.23112E-23  3.51819E-23  0.00000E+00  1.9E-05
   9.00000E+06  1.92924E-18  1.00094E-23  2.86343E-23  0.00000E+00  1.9E-05
   1.00000E+07  1.92812E-18  8.30724E-24  2.37875E-23  0.00000E+00  1.9E-05
   1.25000E+07  1.92644E-18  5.57757E-24  1.60042E-23  0.00000E+00  2.0E-05
   1.50000E+07  1.92539E-18  4.01380E-24  1.15377E-23  0.00000E+00  2.0E-05
   1.75000E+07  1.92480E-18  3.03190E-24  8.72930E-24  0.00000E+00  2.0E-05
   2.00000E+07  1.92445E-18  2.37376E-24  6.84478E-24  0.00000E+00  2.0E-05
   2.50000E+07  1.92411E-18  1.57150E-24  4.54434E-24  0.00000E+00  2.0E-05
   3.00000E+07  1.92414E-18  1.11821E-24  3.24226E-24  0.00000E+00  2.0E-05
   3.50000E+07  1.92345E-18  8.36552E-25  2.43184E-24  0.00000E+00  2.0E-05
   4.00000E+07  1.92300E-18  6.49401E-25  1.89246E-24  0.00000E+00  2.0E-05
   4.50000E+07  1.92336E-18  5.18650E-25  1.51499E-24  0.00000E+00  2.0E-05
   5.00000E+07  1.92204E-18  4.23624E-25  1.24017E-24  0.00000E+00  2.0E-05
   6.00000E+07  1.92207E-18  2.97748E-25  8.75174E-25  0.00000E+00  2.0E-05
   7.00000E+07  1.92299E-18  2.20500E-25  6.50335E-25  0.00000E+00  2.0E-05
   8.00000E+07  1.92306E-18  1.69729E-25  5.02004E-25  0.00000E+00  2.0E-05
   9.00000E+07  1.92309E-18  1.34616E-25  3.99060E-25  0.00000E+00  2.0E-05
   1.00000E+08  1.92323E-18  1.09345E-25  3.24740E-25  0.00000E+00  2.0E-05
   1.25000E+08  1.92314E-18  7.02903E-26  2.09414E-25  0.00000E+00  2.0E-05
   1.50000E+08  1.92299E-18  4.89337E-26  1.46065E-25  0.00000E+00  2.0E-05
   1.75000E+08  1.92292E-18  3.60063E-26  1.07610E-25  0.00000E+00  2.0E-05
   2.00000E+08  1.92303E-18  2.75952E-26  8.25409E-26  0.00000E+00  2.0E-05
   2.50000E+08  1.92316E-18  1.76833E-26  5.29473E-26  0.00000E+00  2.0E-05
   3.00000E+08  1.92295E-18  1.22895E-26  3.68183E-26  0.00000E+00  2.1E-04
   3.50000E+08  1.92234E-18  9.03352E-27  2.70732E-26  0.00000E+00  3.3E-04
   4.00000E+08  1.92153E-18  6.91876E-27  2.07401E-26  0.00000E+00  5.0E-04
   4.50000E+08  1.92116E-18  5.46821E-27  1.63945E-26  0.00000E+00  1.0E+00
   5.00000E+08  1.91909E-18  4.42993E-27  1.32831E-26  0.00000E+00  1.0E+00
   6.00000E+08  1.91666E-18  3.07741E-27  9.22900E-27  0.00000E+00  1.0E+00
   7.00000E+08  1.91365E-18  2.26183E-27  6.78373E-27  0.00000E+00  1.0E+00
   8.00000E+08  1.90798E-18  1.73225E-27  5.19571E-27  0.00000E+00  1.0E+00
   9.00000E+08  1.90047E-18  1.36913E-27  4.10676E-27  0.00000E+00  1.0E+00
   1.00000E+09  1.89099E-18  1.10940E-27  3.32777E-27  0.00000E+00  1.0E+00
