 #
 # Subroutine ELSEPA. Elastic scattering of electrons and positrons
 #                    by neutral atoms and positive ions
 #
 # Projectile: electron
 # Kinetic energy = 9.00000E+05 eV = 3.30744E+04 a.u.
 #
 # Element: Nb,  Z =  41,  atomic weight = 9.29064E+01 g/mol
 #
 # Nuclear model: Fermi distribution
 #                Average radius = 4.84617E-13 cm
 #                Skin thickness = 5.46000E-14 cm
 #
 # Number of electrons = 41
 #
 # Electron density: Read from file Data/z_041.d
 #                   Number of data points =  793
 #                   Volume integral = 4.10000E+01
 #
 # Furness-McCarthy exchange potential
 #
 # LDA absorption potential (only electron-hole excitations):
 #                           Delta = 0.00000E+00 eV
 #                            Aabs = 2.00000E+00
 #
 # Total elastic cross section = 4.57783E-18 cm**2 = 1.63477E-01 a0**2
 # 1st transport cross section = 1.33881E-21 cm**2 = 4.78097E-05 a0**2
 # 2nd transport cross section = 3.65711E-21 cm**2 = 1.30598E-04 a0**2
 #
 #    Absorption cross section = 7.59693E-19 cm**2 = 2.71291E-02 a0**2
 #   Grand total cross section = 5.34191E-18 cm**2 = 1.90763E-01 a0**2
 #
 #
 # Differential cross section:                       MU=(1-COS(THETA))/2
 #
 #  THETA        MU          DCS          DCS        Sherman      error
 #  (deg)                 (cm**2/sr)   (a0**2/sr)    function
 #----------------------------------------------------------------------
0.00000E+00 8.55426E-14
7.61557E-13 8.55426E-14
1.18994E-12 8.55426E-14
1.71346E-12 8.55425E-14
2.33225E-12 8.55425E-14
3.04617E-12 8.55424E-14
3.85530E-12 8.55424E-14
4.75964E-12 8.55423E-14
5.75917E-12 8.55423E-14
6.85391E-12 8.55422E-14
8.04379E-12 8.55421E-14
9.32893E-12 8.55420E-14
1.07092E-11 8.55419E-14
1.21847E-11 8.55418E-14
1.37554E-11 8.55417E-14
1.54213E-11 8.55416E-14
1.71823E-11 8.55415E-14
1.90386E-11 8.55414E-14
2.09900E-11 8.55413E-14
2.30367E-11 8.55411E-14
2.51785E-11 8.55410E-14
2.74156E-11 8.55408E-14
2.97478E-11 8.55407E-14
3.21752E-11 8.55405E-14
3.46979E-11 8.55404E-14
3.73157E-11 8.55402E-14
4.00286E-11 8.55400E-14
4.28368E-11 8.55398E-14
4.57402E-11 8.55396E-14
4.87388E-11 8.55394E-14
5.18325E-11 8.55392E-14
5.50215E-11 8.55390E-14
5.83057E-11 8.55388E-14
6.16850E-11 8.55386E-14
6.51595E-11 8.55383E-14
6.87293E-11 8.55381E-14
7.23943E-11 8.55379E-14
7.61544E-11 8.55376E-14
1.18991E-10 8.55348E-14
1.71347E-10 8.55313E-14
2.33223E-10 8.55273E-14
3.04617E-10 8.55225E-14
3.85531E-10 8.55172E-14
4.75965E-10 8.55112E-14
5.75917E-10 8.55046E-14
6.85389E-10 8.54974E-14
8.04380E-10 8.54896E-14
9.32891E-10 8.54811E-14
1.07092E-09 8.54720E-14
1.21847E-09 8.54623E-14
1.37554E-09 8.54519E-14
1.54213E-09 8.54409E-14
1.71823E-09 8.54293E-14
1.90386E-09 8.54171E-14
2.09900E-09 8.54043E-14
2.30367E-09 8.53908E-14
2.51785E-09 8.53767E-14
2.74156E-09 8.53620E-14
2.97478E-09 8.53467E-14
3.21752E-09 8.53307E-14
3.46978E-09 8.53141E-14
3.73156E-09 8.52969E-14
4.00286E-09 8.52791E-14
4.28368E-09 8.52607E-14
4.57402E-09 8.52416E-14
4.87388E-09 8.52219E-14
5.18326E-09 8.52016E-14
5.50215E-09 8.51807E-14
5.83057E-09 8.51592E-14
6.16850E-09 8.51371E-14
6.51596E-09 8.51143E-14
6.87293E-09 8.50910E-14
7.23942E-09 8.50670E-14
7.61544E-09 8.50424E-14
1.18991E-08 8.47633E-14
1.71347E-08 8.44242E-14
2.33223E-08 8.40265E-14
3.04617E-08 8.35716E-14
3.85531E-08 8.30611E-14
4.75965E-08 8.24969E-14
5.75917E-08 8.18810E-14
6.85389E-08 8.12155E-14
8.04380E-08 8.05026E-14
9.32891E-08 7.97447E-14
1.07092E-07 7.89444E-14
1.21847E-07 7.81041E-14
1.37554E-07 7.72266E-14
1.54213E-07 7.63144E-14
1.71823E-07 7.53702E-14
1.90386E-07 7.43969E-14
2.09900E-07 7.33970E-14
2.30367E-07 7.23733E-14
2.51785E-07 7.13284E-14
2.74156E-07 7.02649E-14
2.97478E-07 6.91855E-14
3.21752E-07 6.80926E-14
3.46978E-07 6.69886E-14
3.73156E-07 6.58759E-14
4.00286E-07 6.47567E-14
4.28368E-07 6.36332E-14
4.57402E-07 6.25074E-14
4.87388E-07 6.13813E-14
5.18325E-07 6.02566E-14
5.50215E-07 5.91352E-14
5.83057E-07 5.80186E-14
6.16850E-07 5.69084E-14
6.51596E-07 5.58059E-14
6.87293E-07 5.47124E-14
7.23942E-07 5.36292E-14
7.61543E-07 5.25572E-14
1.18991E-06 4.26278E-14
1.71347E-06 3.43841E-14
2.33223E-06 2.78012E-14
3.04617E-06 2.26242E-14
3.85531E-06 1.85587E-14
4.75964E-06 1.53468E-14
5.75916E-06 1.27859E-14
6.85388E-06 1.07240E-14
8.04378E-06 9.04870E-15
9.32888E-06 7.67638E-15
1.07092E-05 6.54441E-15
1.21846E-05 5.60512E-15
1.37553E-05 4.82178E-15
1.54212E-05 4.16564E-15
1.71822E-05 3.61389E-15
1.90385E-05 3.14821E-15
2.09899E-05 2.75381E-15
2.30365E-05 2.41865E-15
2.51783E-05 2.13289E-15
2.74153E-05 1.88841E-15
2.97475E-05 1.67852E-15
3.21749E-05 1.49769E-15
3.46974E-05 1.34133E-15
3.73152E-05 1.20565E-15
4.00281E-05 1.08746E-15
4.28362E-05 9.84121E-16
4.57395E-05 8.93425E-16
4.87380E-05 8.13529E-16
5.18317E-05 7.42883E-16
5.50205E-05 6.80183E-16
5.83045E-05 6.24334E-16
6.16838E-05 5.74413E-16
6.51582E-05 5.29641E-16
6.87277E-05 4.89354E-16
7.23925E-05 4.52987E-16
7.61524E-05 4.20059E-16
9.21439E-05 3.15376E-16
1.09658E-04 2.41504E-16
1.28695E-04 1.87774E-16
1.49255E-04 1.47809E-16
1.71338E-04 1.17585E-16
1.94942E-04 9.44352E-17
2.20070E-04 7.65212E-17
2.46720E-04 6.25349E-17
2.74892E-04 5.15259E-17
3.04586E-04 4.27930E-17
3.35803E-04 3.58127E-17
3.68542E-04 3.01914E-17
4.02802E-04 2.56307E-17
4.38585E-04 2.19035E-17
4.75889E-04 1.88355E-17
5.14715E-04 1.62925E-17
5.55063E-04 1.41704E-17
5.96931E-04 1.23882E-17
6.40321E-04 1.08819E-17
6.85233E-04 9.60154E-18
7.31665E-04 8.50699E-18
7.79618E-04 7.56639E-18
8.29092E-04 6.75406E-18
8.80086E-04 6.04922E-18
9.32601E-04 5.43496E-18
9.86636E-04 4.89745E-18
1.04219E-03 4.42527E-18
1.09927E-03 4.00899E-18
1.15786E-03 3.64074E-18
1.21797E-03 3.31395E-18
1.27961E-03 3.02308E-18
1.34276E-03 2.76345E-18
1.40743E-03 2.53110E-18
1.47362E-03 2.32263E-18
1.54133E-03 2.13514E-18
1.61056E-03 1.96614E-18
1.68131E-03 1.81348E-18
1.75357E-03 1.67531E-18
1.82735E-03 1.54999E-18
1.90265E-03 1.43613E-18
1.97947E-03 1.33249E-18
2.05780E-03 1.23799E-18
2.13765E-03 1.15169E-18
2.21902E-03 1.07275E-18
2.30190E-03 1.00043E-18
2.38630E-03 9.34085E-19
2.47222E-03 8.73129E-19
2.55965E-03 8.17049E-19
2.64859E-03 7.65388E-19
2.73905E-03 7.17736E-19
2.83103E-03 6.73727E-19
2.92452E-03 6.33035E-19
3.01952E-03 5.95364E-19
3.11604E-03 5.60452E-19
3.21407E-03 5.28060E-19
3.31362E-03 4.97974E-19
3.41468E-03 4.70001E-19
3.51725E-03 4.43966E-19
3.62133E-03 4.19710E-19
3.72692E-03 3.97091E-19
3.83403E-03 3.75977E-19
3.94265E-03 3.56251E-19
4.05278E-03 3.37805E-19
4.16442E-03 3.20540E-19
4.27757E-03 3.04368E-19
4.39223E-03 2.89207E-19
4.50840E-03 2.74981E-19
4.62608E-03 2.61622E-19
4.74527E-03 2.49069E-19
4.86597E-03 2.37263E-19
4.98817E-03 2.26151E-19
5.11188E-03 2.15686E-19
5.23711E-03 2.05822E-19
5.36383E-03 1.96519E-19
5.49207E-03 1.87738E-19
5.62181E-03 1.79446E-19
5.75306E-03 1.71609E-19
5.88581E-03 1.64198E-19
6.02007E-03 1.57186E-19
6.15583E-03 1.50547E-19
6.29310E-03 1.44257E-19
6.43187E-03 1.38294E-19
6.57214E-03 1.32639E-19
6.71392E-03 1.27272E-19
6.85720E-03 1.22175E-19
7.00198E-03 1.17334E-19
7.14827E-03 1.12732E-19
7.29605E-03 1.08355E-19
7.44534E-03 1.04190E-19
7.59612E-03 1.00225E-19
7.97965E-03 9.11140E-20
8.37255E-03 8.30235E-20
8.77480E-03 7.58188E-20
9.18641E-03 6.93855E-20
9.60736E-03 6.36262E-20
1.00376E-02 5.84575E-20
1.04773E-02 5.38077E-20
1.09262E-02 4.96154E-20
1.13844E-02 4.58272E-20
1.18520E-02 4.23970E-20
1.23288E-02 3.92848E-20
1.28150E-02 3.64556E-20
1.33104E-02 3.38790E-20
1.38150E-02 3.15281E-20
1.43290E-02 2.93796E-20
1.48521E-02 2.74128E-20
1.53845E-02 2.56094E-20
1.59262E-02 2.39533E-20
1.64770E-02 2.24303E-20
1.70371E-02 2.10275E-20
1.76063E-02 1.97339E-20
1.81848E-02 1.85391E-20
1.87724E-02 1.74343E-20
1.93692E-02 1.64115E-20
1.99751E-02 1.54633E-20
2.05901E-02 1.45833E-20
2.12143E-02 1.37656E-20
2.18476E-02 1.30051E-20
2.24900E-02 1.22969E-20
2.31415E-02 1.16367E-20
2.38021E-02 1.10208E-20
2.44717E-02 1.04454E-20
2.51504E-02 9.90756E-21
2.58382E-02 9.40424E-21
2.65349E-02 8.93281E-21
2.72407E-02 8.49088E-21
2.79555E-02 8.07623E-21
2.86793E-02 7.68687E-21
2.94120E-02 7.32094E-21
3.01537E-02 6.97678E-21
3.09043E-02 6.65282E-21
3.16639E-02 6.34766E-21
3.24324E-02 6.05999E-21
3.32098E-02 5.78862E-21
3.39961E-02 5.53244E-21
3.47912E-02 5.29043E-21
3.55952E-02 5.06167E-21
3.64081E-02 4.84528E-21
3.72297E-02 4.64046E-21
3.80602E-02 4.44647E-21
3.88995E-02 4.26263E-21
3.97476E-02 4.08831E-21
4.06044E-02 3.92291E-21
4.14700E-02 3.76589E-21
4.23443E-02 3.61674E-21
4.32273E-02 3.47499E-21
4.41190E-02 3.34019E-21
4.50194E-02 3.21195E-21
4.59284E-02 3.08987E-21
4.68461E-02 2.97361E-21
4.87074E-02 2.75722E-21
5.06030E-02 2.56039E-21
5.25328E-02 2.38100E-21
5.44967E-02 2.21724E-21
5.64946E-02 2.06747E-21
5.85262E-02 1.93028E-21
6.05914E-02 1.80442E-21
6.26901E-02 1.68876E-21
6.48222E-02 1.58233E-21
6.69873E-02 1.48425E-21
6.91854E-02 1.39373E-21
7.14163E-02 1.31009E-21
7.36799E-02 1.23270E-21
7.59760E-02 1.16101E-21
7.83043E-02 1.09451E-21
8.06647E-02 1.03276E-21
8.30571E-02 9.75345E-22
8.54812E-02 9.21911E-22
8.79369E-02 8.72126E-22
9.04240E-02 8.25692E-22
9.29422E-02 7.82340E-22
9.54915E-02 7.41825E-22
9.80716E-02 7.03926E-22
1.00682E-01 6.68440E-22
1.03323E-01 6.35185E-22
1.05995E-01 6.03992E-22
1.08696E-01 5.74709E-22
1.11427E-01 5.47195E-22
1.14188E-01 5.21323E-22
1.16978E-01 4.96975E-22
1.19797E-01 4.74044E-22
1.22645E-01 4.52432E-22
1.25522E-01 4.32047E-22
1.28428E-01 4.12806E-22
1.31361E-01 3.94633E-22
1.34323E-01 3.77456E-22
1.37313E-01 3.61209E-22
1.40330E-01 3.45833E-22
1.43375E-01 3.31272E-22
1.46447E-01 3.17473E-22
1.49545E-01 3.04390E-22
1.52671E-01 2.91977E-22
1.55823E-01 2.80193E-22
1.59001E-01 2.69000E-22
1.62205E-01 2.58363E-22
1.65435E-01 2.48248E-22
1.68690E-01 2.38626E-22
1.71970E-01 2.29466E-22
1.75276E-01 2.20742E-22
1.78606E-01 2.12430E-22
1.81961E-01 2.04506E-22
1.85340E-01 1.96948E-22
1.88743E-01 1.89736E-22
1.92169E-01 1.82852E-22
1.95619E-01 1.76277E-22
1.99092E-01 1.69994E-22
2.02589E-01 1.63988E-22
2.06107E-01 1.58244E-22
2.09649E-01 1.52750E-22
2.13212E-01 1.47490E-22
2.16797E-01 1.42455E-22
2.20404E-01 1.37631E-22
2.24032E-01 1.33009E-22
2.27680E-01 1.28578E-22
2.31350E-01 1.24329E-22
2.35040E-01 1.20253E-22
2.38751E-01 1.16342E-22
2.42481E-01 1.12586E-22
2.46231E-01 1.08980E-22
2.50000E-01 1.05516E-22
2.53788E-01 1.02187E-22
2.57595E-01 9.89864E-23
2.61421E-01 9.59090E-23
2.65264E-01 9.29488E-23
2.69126E-01 9.01005E-23
2.73005E-01 8.73590E-23
2.76901E-01 8.47194E-23
2.80814E-01 8.21773E-23
2.84744E-01 7.97282E-23
2.88691E-01 7.73682E-23
2.92653E-01 7.50934E-23
2.96632E-01 7.29001E-23
3.00625E-01 7.07848E-23
3.04634E-01 6.87441E-23
3.08658E-01 6.67749E-23
3.12697E-01 6.48741E-23
3.16749E-01 6.30390E-23
3.20816E-01 6.12669E-23
3.24896E-01 5.95551E-23
3.28990E-01 5.79012E-23
3.33097E-01 5.63028E-23
3.37216E-01 5.47578E-23
3.41348E-01 5.32638E-23
3.45492E-01 5.18190E-23
3.49647E-01 5.04215E-23
3.53814E-01 4.90694E-23
3.57992E-01 4.77608E-23
3.62181E-01 4.64941E-23
3.66381E-01 4.52678E-23
3.70590E-01 4.40802E-23
3.74810E-01 4.29300E-23
3.79039E-01 4.18156E-23
3.83277E-01 4.07359E-23
3.87524E-01 3.96895E-23
3.91780E-01 3.86751E-23
3.96044E-01 3.76916E-23
4.00316E-01 3.67378E-23
4.04596E-01 3.58128E-23
4.08882E-01 3.49154E-23
4.13176E-01 3.40448E-23
4.17476E-01 3.31998E-23
4.21783E-01 3.23797E-23
4.26095E-01 3.15835E-23
4.30413E-01 3.08104E-23
4.34737E-01 3.00597E-23
4.39065E-01 2.93305E-23
4.43398E-01 2.86221E-23
4.47736E-01 2.79339E-23
4.52077E-01 2.72650E-23
4.56422E-01 2.66150E-23
4.60770E-01 2.59831E-23
4.65122E-01 2.53687E-23
4.69476E-01 2.47713E-23
4.73832E-01 2.41903E-23
4.78190E-01 2.36252E-23
4.82550E-01 2.30755E-23
4.86912E-01 2.25406E-23
4.91274E-01 2.20201E-23
4.95637E-01 2.15136E-23
5.00000E-01 2.10205E-23
5.04363E-01 2.05405E-23
5.08726E-01 2.00731E-23
5.13088E-01 1.96180E-23
5.17450E-01 1.91748E-23
5.21810E-01 1.87431E-23
5.26168E-01 1.83225E-23
5.30524E-01 1.79128E-23
5.34878E-01 1.75135E-23
5.39230E-01 1.71244E-23
5.43578E-01 1.67452E-23
5.47923E-01 1.63756E-23
5.52264E-01 1.60152E-23
5.56602E-01 1.56639E-23
5.60935E-01 1.53213E-23
5.65263E-01 1.49872E-23
5.69587E-01 1.46613E-23
5.73905E-01 1.43434E-23
5.78217E-01 1.40333E-23
5.82524E-01 1.37308E-23
5.86824E-01 1.34356E-23
5.91118E-01 1.31475E-23
5.95404E-01 1.28663E-23
5.99684E-01 1.25919E-23
6.03956E-01 1.23240E-23
6.08220E-01 1.20625E-23
6.12476E-01 1.18072E-23
6.16723E-01 1.15578E-23
6.20961E-01 1.13144E-23
6.25190E-01 1.10766E-23
6.29410E-01 1.08443E-23
6.33619E-01 1.06175E-23
6.37819E-01 1.03958E-23
6.42008E-01 1.01793E-23
6.46186E-01 9.96775E-24
6.50353E-01 9.76101E-24
6.54508E-01 9.55899E-24
6.58652E-01 9.36155E-24
6.62784E-01 9.16857E-24
6.66903E-01 8.97993E-24
6.71010E-01 8.79553E-24
6.75104E-01 8.61525E-24
6.79184E-01 8.43899E-24
6.83251E-01 8.26665E-24
6.87303E-01 8.09812E-24
6.91342E-01 7.93332E-24
6.95366E-01 7.77215E-24
6.99375E-01 7.61451E-24
7.03368E-01 7.46031E-24
7.07347E-01 7.30948E-24
7.11309E-01 7.16193E-24
7.15256E-01 7.01758E-24
7.19186E-01 6.87635E-24
7.23099E-01 6.73816E-24
7.26995E-01 6.60295E-24
7.30874E-01 6.47063E-24
7.34736E-01 6.34115E-24
7.38579E-01 6.21443E-24
7.42405E-01 6.09040E-24
7.46212E-01 5.96901E-24
7.50000E-01 5.85020E-24
7.53769E-01 5.73389E-24
7.57519E-01 5.62004E-24
7.61249E-01 5.50857E-24
7.64960E-01 5.39945E-24
7.68650E-01 5.29262E-24
7.72320E-01 5.18803E-24
7.75968E-01 5.08562E-24
7.79596E-01 4.98534E-24
7.83203E-01 4.88715E-24
7.86788E-01 4.79100E-24
7.90351E-01 4.69684E-24
7.93893E-01 4.60464E-24
7.97411E-01 4.51434E-24
8.00908E-01 4.42591E-24
8.04381E-01 4.33930E-24
8.07831E-01 4.25448E-24
8.11257E-01 4.17140E-24
8.14660E-01 4.09003E-24
8.18039E-01 4.01033E-24
8.21394E-01 3.93227E-24
8.24724E-01 3.85582E-24
8.28030E-01 3.78094E-24
8.31310E-01 3.70758E-24
8.34565E-01 3.63574E-24
8.37795E-01 3.56536E-24
8.40999E-01 3.49643E-24
8.44177E-01 3.42891E-24
8.47329E-01 3.36278E-24
8.50455E-01 3.29800E-24
8.53553E-01 3.23455E-24
8.56625E-01 3.17241E-24
8.59670E-01 3.11154E-24
8.62687E-01 3.05192E-24
8.65677E-01 2.99353E-24
8.68639E-01 2.93635E-24
8.71572E-01 2.88035E-24
8.74478E-01 2.82550E-24
8.77355E-01 2.77179E-24
8.80203E-01 2.71919E-24
8.83022E-01 2.66768E-24
8.85812E-01 2.61725E-24
8.88573E-01 2.56787E-24
8.91304E-01 2.51953E-24
8.94005E-01 2.47220E-24
8.96677E-01 2.42586E-24
8.99318E-01 2.38050E-24
9.01928E-01 2.33611E-24
9.04508E-01 2.29265E-24
9.07058E-01 2.25013E-24
9.09576E-01 2.20852E-24
9.12063E-01 2.16780E-24
9.14519E-01 2.12797E-24
9.16943E-01 2.08899E-24
9.19335E-01 2.05087E-24
9.21696E-01 2.01358E-24
9.24024E-01 1.97712E-24
9.26320E-01 1.94147E-24
9.28584E-01 1.90662E-24
9.30815E-01 1.87255E-24
9.33013E-01 1.83924E-24
9.35178E-01 1.80670E-24
9.37310E-01 1.77491E-24
9.39409E-01 1.74385E-24
9.41474E-01 1.71352E-24
9.43505E-01 1.68390E-24
9.45503E-01 1.65499E-24
9.47467E-01 1.62676E-24
9.49397E-01 1.59923E-24
9.51293E-01 1.57236E-24
9.53154E-01 1.54616E-24
9.54981E-01 1.52062E-24
9.56773E-01 1.49573E-24
9.58530E-01 1.47146E-24
9.60252E-01 1.44783E-24
9.61940E-01 1.42482E-24
9.63592E-01 1.40243E-24
9.65209E-01 1.38064E-24
9.66790E-01 1.35945E-24
9.68336E-01 1.33885E-24
9.69846E-01 1.31883E-24
9.71321E-01 1.29939E-24
9.72759E-01 1.28052E-24
9.74162E-01 1.26222E-24
9.75528E-01 1.24447E-24
9.76858E-01 1.22728E-24
9.78152E-01 1.21064E-24
9.79410E-01 1.19453E-24
9.80631E-01 1.17896E-24
9.81815E-01 1.16392E-24
9.82963E-01 1.14940E-24
9.84074E-01 1.13541E-24
9.85148E-01 1.12193E-24
9.86185E-01 1.10897E-24
9.87185E-01 1.09651E-24
9.88148E-01 1.08456E-24
9.89074E-01 1.07310E-24
9.89962E-01 1.06214E-24
9.90814E-01 1.05167E-24
9.91627E-01 1.04169E-24
9.92404E-01 1.03220E-24
9.93143E-01 1.02319E-24
9.93844E-01 1.01466E-24
9.94508E-01 1.00660E-24
9.95134E-01 9.99019E-25
9.95722E-01 9.91911E-25
9.96273E-01 9.85270E-25
9.96786E-01 9.79100E-25
9.97261E-01 9.73396E-25
9.97698E-01 9.68148E-25
9.98097E-01 9.63365E-25
9.98459E-01 9.59040E-25
9.98782E-01 9.55173E-25
9.99067E-01 9.51770E-25
9.99315E-01 9.48823E-25
9.99524E-01 9.46329E-25
9.99695E-01 9.44293E-25
9.99829E-01 9.42701E-25
9.99924E-01 9.41562E-25
9.99981E-01 9.40884E-25
1.00000E+00 9.40608E-25
