 #
 # Subroutine ELSEPA. Elastic scattering of electrons and positrons
 #                    by neutral atoms and positive ions
 #
 # Projectile: electron
 # Kinetic energy = 3.00000E+06 eV = 1.10248E+05 a.u.
 #
 # WARNING: High-energy factorization with free-atom DF screening.
 #          Absorption, polarization and exchange corrections are
 #          switched off.
 #          Phase shifts are calculated for the bare nucleus.
 #          Scattering amplitudes are not evaluated.
 #
 # Element: Nb,  Z =  41,  atomic weight = 9.29064E+01 g/mol
 #
 # Nuclear model: Fermi distribution
 #                Average radius = 4.84617E-13 cm
 #                Skin thickness = 5.46000E-14 cm
 #
 # Number of electrons = 41
 #
 # Total elastic cross section = 4.07818E-18 cm**2 = 1.45634E-01 a0**2
 # 1st transport cross section = 2.06890E-22 cm**2 = 7.38816E-06 a0**2
 # 2nd transport cross section = 5.77557E-22 cm**2 = 2.06249E-05 a0**2
 #
 #
 # Differential cross section:                       MU=(1-COS(THETA))/2
 #
 #  THETA        MU          DCS          DCS        Sherman      error
 #  (deg)                 (cm**2/sr)   (a0**2/sr)    function
 #----------------------------------------------------------------------
0.00000E+00 5.30331E-13
7.61557E-13 5.30329E-13
1.18994E-12 5.30327E-13
1.71346E-12 5.30326E-13
2.33225E-12 5.30324E-13
3.04617E-12 5.30322E-13
3.85530E-12 5.30320E-13
4.75964E-12 5.30317E-13
5.75917E-12 5.30315E-13
6.85391E-12 5.30311E-13
8.04379E-12 5.30308E-13
9.32893E-12 5.30305E-13
1.07092E-11 5.30301E-13
1.21847E-11 5.30296E-13
1.37554E-11 5.30292E-13
1.54213E-11 5.30287E-13
1.71823E-11 5.30282E-13
1.90386E-11 5.30277E-13
2.09900E-11 5.30272E-13
2.30367E-11 5.30266E-13
2.51785E-11 5.30260E-13
2.74156E-11 5.30253E-13
2.97478E-11 5.30247E-13
3.21752E-11 5.30240E-13
3.46979E-11 5.30233E-13
3.73157E-11 5.30225E-13
4.00286E-11 5.30218E-13
4.28368E-11 5.30210E-13
4.57402E-11 5.30202E-13
4.87388E-11 5.30193E-13
5.18325E-11 5.30184E-13
5.50215E-11 5.30175E-13
5.83057E-11 5.30166E-13
6.16850E-11 5.30156E-13
6.51595E-11 5.30147E-13
6.87293E-11 5.30136E-13
7.23943E-11 5.30126E-13
7.61544E-11 5.30115E-13
1.18991E-10 5.29994E-13
1.71347E-10 5.29846E-13
2.33223E-10 5.29671E-13
3.04617E-10 5.29469E-13
3.85531E-10 5.29240E-13
4.75965E-10 5.28984E-13
5.75917E-10 5.28702E-13
6.85389E-10 5.28393E-13
8.04380E-10 5.28057E-13
9.32891E-10 5.27696E-13
1.07092E-09 5.27307E-13
1.21847E-09 5.26893E-13
1.37554E-09 5.26452E-13
1.54213E-09 5.25985E-13
1.71823E-09 5.25493E-13
1.90386E-09 5.24974E-13
2.09900E-09 5.24430E-13
2.30367E-09 5.23861E-13
2.51785E-09 5.23266E-13
2.74156E-09 5.22645E-13
2.97478E-09 5.22000E-13
3.21752E-09 5.21330E-13
3.46978E-09 5.20635E-13
3.73156E-09 5.19916E-13
4.00286E-09 5.19172E-13
4.28368E-09 5.18404E-13
4.57402E-09 5.17612E-13
4.87388E-09 5.16796E-13
5.18326E-09 5.15957E-13
5.50215E-09 5.15094E-13
5.83057E-09 5.14208E-13
6.16850E-09 5.13299E-13
6.51596E-09 5.12368E-13
6.87293E-09 5.11414E-13
7.23942E-09 5.10437E-13
7.61544E-09 5.09439E-13
1.18991E-08 4.98297E-13
1.71347E-08 4.85240E-13
2.33223E-08 4.70544E-13
3.04617E-08 4.54541E-13
3.85531E-08 4.37504E-13
4.75965E-08 4.19751E-13
5.75917E-08 4.01567E-13
6.85389E-08 3.83167E-13
8.04380E-08 3.64815E-13
9.32891E-08 3.46687E-13
1.07092E-07 3.28926E-13
1.21847E-07 3.11690E-13
1.37554E-07 2.95043E-13
1.54213E-07 2.79069E-13
1.71823E-07 2.63834E-13
1.90386E-07 2.49315E-13
2.09900E-07 2.35567E-13
2.30367E-07 2.22583E-13
2.51785E-07 2.10312E-13
2.74156E-07 1.98780E-13
2.97478E-07 1.87934E-13
3.21752E-07 1.77736E-13
3.46978E-07 1.68187E-13
3.73156E-07 1.59207E-13
4.00286E-07 1.50789E-13
4.28368E-07 1.42917E-13
4.57402E-07 1.35494E-13
4.87388E-07 1.28551E-13
5.18325E-07 1.22039E-13
5.50215E-07 1.15902E-13
5.83057E-07 1.10157E-13
6.16850E-07 1.04744E-13
6.51596E-07 9.96471E-14
6.87293E-07 9.48690E-14
7.23942E-07 9.03421E-14
7.61543E-07 8.60853E-14
1.18991E-06 5.44604E-14
1.71347E-06 3.57664E-14
2.33223E-06 2.39509E-14
3.04617E-06 1.68604E-14
3.85531E-06 1.20478E-14
4.75964E-06 8.89574E-15
5.75916E-06 6.74458E-15
6.85388E-06 5.20829E-15
8.04378E-06 4.11510E-15
9.32888E-06 3.30648E-15
1.07092E-05 2.69061E-15
1.21846E-05 2.22053E-15
1.37553E-05 1.84719E-15
1.54212E-05 1.54936E-15
1.71822E-05 1.31111E-15
1.90385E-05 1.11233E-15
2.09899E-05 9.50531E-16
2.30365E-05 8.16436E-16
2.51783E-05 7.02952E-16
2.74153E-05 6.08498E-16
2.97475E-05 5.28457E-16
3.21749E-05 4.60517E-16
3.46974E-05 4.03122E-16
3.73152E-05 3.53850E-16
4.00281E-05 3.11803E-16
4.28362E-05 2.75801E-16
4.57395E-05 2.44614E-16
4.87380E-05 2.17728E-16
5.18317E-05 1.94372E-16
5.50205E-05 1.74022E-16
5.83045E-05 1.56303E-16
6.16838E-05 1.40783E-16
6.51582E-05 1.27164E-16
6.87277E-05 1.15188E-16
7.23925E-05 1.04596E-16
7.61524E-05 9.52184E-17
9.21439E-05 6.68613E-17
1.09658E-04 4.84207E-17
1.28695E-04 3.59937E-17
1.49255E-04 2.73405E-17
1.71338E-04 2.11512E-17
1.94942E-04 1.66108E-17
2.20070E-04 1.32257E-17
2.46720E-04 1.06589E-17
2.74892E-04 8.68777E-18
3.04586E-04 7.14221E-18
3.35803E-04 5.92641E-18
3.68542E-04 4.95778E-18
4.02802E-04 4.17634E-18
4.38585E-04 3.54339E-18
4.75889E-04 3.02514E-18
5.14715E-04 2.59782E-18
5.55063E-04 2.24357E-18
5.96931E-04 1.94728E-18
6.40321E-04 1.69843E-18
6.85233E-04 1.48822E-18
7.31665E-04 1.30938E-18
7.79618E-04 1.15677E-18
8.29092E-04 1.02581E-18
8.80086E-04 9.12877E-19
9.32601E-04 8.15152E-19
9.86636E-04 7.30185E-19
1.04219E-03 6.56046E-19
1.09927E-03 5.91140E-19
1.15786E-03 5.34072E-19
1.21797E-03 4.83768E-19
1.27961E-03 4.39285E-19
1.34276E-03 3.99804E-19
1.40743E-03 3.64692E-19
1.47362E-03 3.33367E-19
1.54133E-03 3.05345E-19
1.61056E-03 2.80227E-19
1.68131E-03 2.57646E-19
1.75357E-03 2.37306E-19
1.82735E-03 2.18947E-19
1.90265E-03 2.02331E-19
1.97947E-03 1.87273E-19
2.05780E-03 1.73597E-19
2.13765E-03 1.61149E-19
2.21902E-03 1.49805E-19
2.30190E-03 1.39445E-19
2.38630E-03 1.29968E-19
2.47222E-03 1.21289E-19
2.55965E-03 1.13323E-19
2.64859E-03 1.06004E-19
2.73905E-03 9.92700E-20
2.83103E-03 9.30627E-20
2.92452E-03 8.73364E-20
3.01952E-03 8.20457E-20
3.11604E-03 7.71506E-20
3.21407E-03 7.26176E-20
3.31362E-03 6.84135E-20
3.41468E-03 6.45106E-20
3.51725E-03 6.08840E-20
3.62133E-03 5.75088E-20
3.72692E-03 5.43658E-20
3.83403E-03 5.14357E-20
3.94265E-03 4.87008E-20
4.05278E-03 4.61464E-20
4.16442E-03 4.37580E-20
4.27757E-03 4.15226E-20
4.39223E-03 3.94292E-20
4.50840E-03 3.74663E-20
4.62608E-03 3.56247E-20
4.74527E-03 3.38957E-20
4.86597E-03 3.22704E-20
4.98817E-03 3.07420E-20
5.11188E-03 2.93036E-20
5.23711E-03 2.79485E-20
5.36383E-03 2.66714E-20
5.49207E-03 2.54667E-20
5.62181E-03 2.43296E-20
5.75306E-03 2.32558E-20
5.88581E-03 2.22406E-20
6.02007E-03 2.12806E-20
6.15583E-03 2.03722E-20
6.29310E-03 1.95119E-20
6.43187E-03 1.86969E-20
6.57214E-03 1.79242E-20
6.71392E-03 1.71911E-20
6.85720E-03 1.64955E-20
7.00198E-03 1.58348E-20
7.14827E-03 1.52071E-20
7.29605E-03 1.46104E-20
7.44534E-03 1.40428E-20
7.59612E-03 1.35027E-20
7.97965E-03 1.22625E-20
8.37255E-03 1.11622E-20
8.77480E-03 1.01834E-20
9.18641E-03 9.31017E-21
9.60736E-03 8.52919E-21
1.00376E-02 7.82892E-21
1.04773E-02 7.19956E-21
1.09262E-02 6.63261E-21
1.13844E-02 6.12078E-21
1.18520E-02 5.65774E-21
1.23288E-02 5.23799E-21
1.28150E-02 4.85675E-21
1.33104E-02 4.50983E-21
1.38150E-02 4.19359E-21
1.43290E-02 3.90481E-21
1.48521E-02 3.64066E-21
1.53845E-02 3.39867E-21
1.59262E-02 3.17662E-21
1.64770E-02 2.97257E-21
1.70371E-02 2.78479E-21
1.76063E-02 2.61173E-21
1.81848E-02 2.45203E-21
1.87724E-02 2.30447E-21
1.93692E-02 2.16794E-21
1.99751E-02 2.04147E-21
2.05901E-02 1.92418E-21
2.12143E-02 1.81527E-21
2.18476E-02 1.71404E-21
2.24900E-02 1.61983E-21
2.31415E-02 1.53208E-21
2.38021E-02 1.45024E-21
2.44717E-02 1.37386E-21
2.51504E-02 1.30249E-21
2.58382E-02 1.23574E-21
2.65349E-02 1.17326E-21
2.72407E-02 1.11472E-21
2.79555E-02 1.05982E-21
2.86793E-02 1.00830E-21
2.94120E-02 9.59904E-22
3.01537E-02 9.14409E-22
3.09043E-02 8.71608E-22
3.16639E-02 8.31310E-22
3.24324E-02 7.93339E-22
3.32098E-02 7.57537E-22
3.39961E-02 7.23753E-22
3.47912E-02 6.91853E-22
3.55952E-02 6.61712E-22
3.64081E-02 6.33212E-22
3.72297E-02 6.06248E-22
3.80602E-02 5.80720E-22
3.88995E-02 5.56538E-22
3.97476E-02 5.33615E-22
4.06044E-02 5.11874E-22
4.14700E-02 4.91242E-22
4.23443E-02 4.71651E-22
4.32273E-02 4.53038E-22
4.41190E-02 4.35346E-22
4.50194E-02 4.18518E-22
4.59284E-02 4.02505E-22
4.68461E-02 3.87259E-22
4.87074E-02 3.58897E-22
5.06030E-02 3.33113E-22
5.25328E-02 3.09629E-22
5.44967E-02 2.88201E-22
5.64946E-02 2.68615E-22
5.85262E-02 2.50683E-22
6.05914E-02 2.34238E-22
6.26901E-02 2.19135E-22
6.48222E-02 2.05242E-22
6.69873E-02 1.92445E-22
6.91854E-02 1.80640E-22
7.14163E-02 1.69736E-22
7.36799E-02 1.59651E-22
7.59760E-02 1.50311E-22
7.83043E-02 1.41651E-22
8.06647E-02 1.33612E-22
8.30571E-02 1.26140E-22
8.54812E-02 1.19189E-22
8.79369E-02 1.12714E-22
9.04240E-02 1.06676E-22
9.29422E-02 1.01041E-22
9.54915E-02 9.57764E-23
9.80716E-02 9.08528E-23
1.00682E-01 8.62441E-23
1.03323E-01 8.19261E-23
1.05995E-01 7.78770E-23
1.08696E-01 7.40766E-23
1.11427E-01 7.05067E-23
1.14188E-01 6.71507E-23
1.16978E-01 6.39931E-23
1.19797E-01 6.10200E-23
1.22645E-01 5.82184E-23
1.25522E-01 5.55765E-23
1.28428E-01 5.30834E-23
1.31361E-01 5.07291E-23
1.34323E-01 4.85043E-23
1.37313E-01 4.64005E-23
1.40330E-01 4.44098E-23
1.43375E-01 4.25250E-23
1.46447E-01 4.07392E-23
1.49545E-01 3.90464E-23
1.52671E-01 3.74405E-23
1.55823E-01 3.59164E-23
1.59001E-01 3.44690E-23
1.62205E-01 3.30937E-23
1.65435E-01 3.17862E-23
1.68690E-01 3.05425E-23
1.71970E-01 2.93588E-23
1.75276E-01 2.82318E-23
1.78606E-01 2.71581E-23
1.81961E-01 2.61347E-23
1.85340E-01 2.51588E-23
1.88743E-01 2.42278E-23
1.92169E-01 2.33391E-23
1.95619E-01 2.24906E-23
1.99092E-01 2.16799E-23
2.02589E-01 2.09051E-23
2.06107E-01 2.01643E-23
2.09649E-01 1.94556E-23
2.13212E-01 1.87775E-23
2.16797E-01 1.81284E-23
2.20404E-01 1.75067E-23
2.24032E-01 1.69110E-23
2.27680E-01 1.63401E-23
2.31350E-01 1.57928E-23
2.35040E-01 1.52678E-23
2.38751E-01 1.47641E-23
2.42481E-01 1.42806E-23
2.46231E-01 1.38164E-23
2.50000E-01 1.33705E-23
2.53788E-01 1.29421E-23
2.57595E-01 1.25304E-23
2.61421E-01 1.21346E-23
2.65264E-01 1.17539E-23
2.69126E-01 1.13876E-23
2.73005E-01 1.10352E-23
2.76901E-01 1.06959E-23
2.80814E-01 1.03692E-23
2.84744E-01 1.00546E-23
2.88691E-01 9.75141E-24
2.92653E-01 9.45925E-24
2.96632E-01 9.17760E-24
3.00625E-01 8.90602E-24
3.04634E-01 8.64409E-24
3.08658E-01 8.39138E-24
3.12697E-01 8.14751E-24
3.16749E-01 7.91211E-24
3.20816E-01 7.68483E-24
3.24896E-01 7.46533E-24
3.28990E-01 7.25329E-24
3.33097E-01 7.04841E-24
3.37216E-01 6.85041E-24
3.41348E-01 6.65900E-24
3.45492E-01 6.47393E-24
3.49647E-01 6.29494E-24
3.53814E-01 6.12181E-24
3.57992E-01 5.95429E-24
3.62181E-01 5.79218E-24
3.66381E-01 5.63526E-24
3.70590E-01 5.48333E-24
3.74810E-01 5.33621E-24
3.79039E-01 5.19372E-24
3.83277E-01 5.05567E-24
3.87524E-01 4.92191E-24
3.91780E-01 4.79227E-24
3.96044E-01 4.66661E-24
4.00316E-01 4.54479E-24
4.04596E-01 4.42665E-24
4.08882E-01 4.31208E-24
4.13176E-01 4.20093E-24
4.17476E-01 4.09310E-24
4.21783E-01 3.98846E-24
4.26095E-01 3.88690E-24
4.30413E-01 3.78831E-24
4.34737E-01 3.69259E-24
4.39065E-01 3.59964E-24
4.43398E-01 3.50936E-24
4.47736E-01 3.42166E-24
4.52077E-01 3.33646E-24
4.56422E-01 3.25368E-24
4.60770E-01 3.17322E-24
4.65122E-01 3.09502E-24
4.69476E-01 3.01899E-24
4.73832E-01 2.94508E-24
4.78190E-01 2.87320E-24
4.82550E-01 2.80329E-24
4.86912E-01 2.73529E-24
4.91274E-01 2.66913E-24
4.95637E-01 2.60476E-24
5.00000E-01 2.54212E-24
5.04363E-01 2.48116E-24
5.08726E-01 2.42181E-24
5.13088E-01 2.36404E-24
5.17450E-01 2.30779E-24
5.21810E-01 2.25301E-24
5.26168E-01 2.19966E-24
5.30524E-01 2.14770E-24
5.34878E-01 2.09708E-24
5.39230E-01 2.04777E-24
5.43578E-01 1.99972E-24
5.47923E-01 1.95289E-24
5.52264E-01 1.90725E-24
5.56602E-01 1.86277E-24
5.60935E-01 1.81940E-24
5.65263E-01 1.77712E-24
5.69587E-01 1.73589E-24
5.73905E-01 1.69568E-24
5.78217E-01 1.65647E-24
5.82524E-01 1.61823E-24
5.86824E-01 1.58092E-24
5.91118E-01 1.54452E-24
5.95404E-01 1.50901E-24
5.99684E-01 1.47435E-24
6.03956E-01 1.44054E-24
6.08220E-01 1.40753E-24
6.12476E-01 1.37532E-24
6.16723E-01 1.34387E-24
6.20961E-01 1.31316E-24
6.25190E-01 1.28319E-24
6.29410E-01 1.25392E-24
6.33619E-01 1.22533E-24
6.37819E-01 1.19741E-24
6.42008E-01 1.17015E-24
6.46186E-01 1.14351E-24
6.50353E-01 1.11749E-24
6.54508E-01 1.09207E-24
6.58652E-01 1.06724E-24
6.62784E-01 1.04297E-24
6.66903E-01 1.01926E-24
6.71010E-01 9.96081E-25
6.75104E-01 9.73431E-25
6.79184E-01 9.51292E-25
6.83251E-01 9.29651E-25
6.87303E-01 9.08495E-25
6.91342E-01 8.87812E-25
6.95366E-01 8.67590E-25
6.99375E-01 8.47818E-25
7.03368E-01 8.28482E-25
7.07347E-01 8.09574E-25
7.11309E-01 7.91083E-25
7.15256E-01 7.72997E-25
7.19186E-01 7.55308E-25
7.23099E-01 7.38005E-25
7.26995E-01 7.21079E-25
7.30874E-01 7.04521E-25
7.34736E-01 6.88322E-25
7.38579E-01 6.72473E-25
7.42405E-01 6.56967E-25
7.46212E-01 6.41794E-25
7.50000E-01 6.26946E-25
7.53769E-01 6.12417E-25
7.57519E-01 5.98198E-25
7.61249E-01 5.84282E-25
7.64960E-01 5.70662E-25
7.68650E-01 5.57332E-25
7.72320E-01 5.44284E-25
7.75968E-01 5.31511E-25
7.79596E-01 5.19009E-25
7.83203E-01 5.06770E-25
7.86788E-01 4.94789E-25
7.90351E-01 4.83059E-25
7.93893E-01 4.71576E-25
7.97411E-01 4.60334E-25
8.00908E-01 4.49327E-25
8.04381E-01 4.38551E-25
8.07831E-01 4.28000E-25
8.11257E-01 4.17669E-25
8.14660E-01 4.07553E-25
8.18039E-01 3.97648E-25
8.21394E-01 3.87950E-25
8.24724E-01 3.78453E-25
8.28030E-01 3.69153E-25
8.31310E-01 3.60047E-25
8.34565E-01 3.51129E-25
8.37795E-01 3.42397E-25
8.40999E-01 3.33846E-25
8.44177E-01 3.25472E-25
8.47329E-01 3.17272E-25
8.50455E-01 3.09243E-25
8.53553E-01 3.01380E-25
8.56625E-01 2.93681E-25
8.59670E-01 2.86142E-25
8.62687E-01 2.78761E-25
8.65677E-01 2.71533E-25
8.68639E-01 2.64457E-25
8.71572E-01 2.57528E-25
8.74478E-01 2.50745E-25
8.77355E-01 2.44103E-25
8.80203E-01 2.37601E-25
8.83022E-01 2.31236E-25
8.85812E-01 2.25005E-25
8.88573E-01 2.18905E-25
8.91304E-01 2.12934E-25
8.94005E-01 2.07090E-25
8.96677E-01 2.01371E-25
8.99318E-01 1.95773E-25
9.01928E-01 1.90296E-25
9.04508E-01 1.84936E-25
9.07058E-01 1.79692E-25
9.09576E-01 1.74561E-25
9.12063E-01 1.69542E-25
9.14519E-01 1.64632E-25
9.16943E-01 1.59831E-25
9.19335E-01 1.55135E-25
9.21696E-01 1.50543E-25
9.24024E-01 1.46054E-25
9.26320E-01 1.41665E-25
9.28584E-01 1.37376E-25
9.30815E-01 1.33183E-25
9.33013E-01 1.29087E-25
9.35178E-01 1.25085E-25
9.37310E-01 1.21175E-25
9.39409E-01 1.17357E-25
9.41474E-01 1.13629E-25
9.43505E-01 1.09989E-25
9.45503E-01 1.06436E-25
9.47467E-01 1.02970E-25
9.49397E-01 9.95876E-26
9.51293E-01 9.62888E-26
9.53154E-01 9.30723E-26
9.54981E-01 8.99368E-26
9.56773E-01 8.68812E-26
9.58530E-01 8.39043E-26
9.60252E-01 8.10052E-26
9.61940E-01 7.81829E-26
9.63592E-01 7.54362E-26
9.65209E-01 7.27642E-26
9.66790E-01 7.01660E-26
9.68336E-01 6.76407E-26
9.69846E-01 6.51874E-26
9.71321E-01 6.28052E-26
9.72759E-01 6.04932E-26
9.74162E-01 5.82508E-26
9.75528E-01 5.60770E-26
9.76858E-01 5.39712E-26
9.78152E-01 5.19327E-26
9.79410E-01 4.99606E-26
9.80631E-01 4.80543E-26
9.81815E-01 4.62133E-26
9.82963E-01 4.44367E-26
9.84074E-01 4.27241E-26
9.85148E-01 4.10749E-26
9.86185E-01 3.94885E-26
9.87185E-01 3.79642E-26
9.88148E-01 3.65018E-26
9.89074E-01 3.51005E-26
9.89962E-01 3.37600E-26
9.90814E-01 3.24799E-26
9.91627E-01 3.12595E-26
9.92404E-01 3.00987E-26
9.93143E-01 2.89969E-26
9.93844E-01 2.79538E-26
9.94508E-01 2.69691E-26
9.95134E-01 2.60423E-26
9.95722E-01 2.51733E-26
9.96273E-01 2.43617E-26
9.96786E-01 2.36073E-26
9.97261E-01 2.29097E-26
9.97698E-01 2.22688E-26
9.98097E-01 2.16843E-26
9.98459E-01 2.11561E-26
9.98782E-01 2.06839E-26
9.99067E-01 2.02677E-26
9.99315E-01 1.99072E-26
9.99524E-01 1.96024E-26
9.99695E-01 1.93532E-26
9.99829E-01 1.91594E-26
9.99924E-01 1.90211E-26
9.99981E-01 1.89381E-26
1.00000E+00 1.89104E-26
