 #
 # Subroutine ELSEPA. Elastic scattering of electrons and positrons
 #                    by neutral atoms and positive ions
 #
 # Projectile: electron
 # Kinetic energy = 7.00000E+06 eV = 2.57245E+05 a.u.
 #
 # WARNING: High-energy factorization with free-atom DF screening.
 #          Absorption, polarization and exchange corrections are
 #          switched off.
 #          Phase shifts are calculated for the bare nucleus.
 #          Scattering amplitudes are not evaluated.
 #
 # Element: Nb,  Z =  41,  atomic weight = 9.29064E+01 g/mol
 #
 # Nuclear model: Fermi distribution
 #                Average radius = 4.84617E-13 cm
 #                Skin thickness = 5.46000E-14 cm
 #
 # Number of electrons = 41
 #
 # Total elastic cross section = 4.00888E-18 cm**2 = 1.43160E-01 a0**2
 # 1st transport cross section = 4.95642E-23 cm**2 = 1.76997E-06 a0**2
 # 2nd transport cross section = 1.39861E-22 cm**2 = 4.99451E-06 a0**2
 #
 #
 # Differential cross section:                       MU=(1-COS(THETA))/2
 #
 #  THETA        MU          DCS          DCS        Sherman      error
 #  (deg)                 (cm**2/sr)   (a0**2/sr)    function
 #----------------------------------------------------------------------
0.00000E+00 2.42706E-12
7.61557E-13 2.42701E-12
1.18994E-12 2.42699E-12
1.71346E-12 2.42696E-12
2.33225E-12 2.42692E-12
3.04617E-12 2.42688E-12
3.85530E-12 2.42683E-12
4.75964E-12 2.42677E-12
5.75917E-12 2.42671E-12
6.85391E-12 2.42664E-12
8.04379E-12 2.42657E-12
9.32893E-12 2.42649E-12
1.07092E-11 2.42641E-12
1.21847E-11 2.42632E-12
1.37554E-11 2.42623E-12
1.54213E-11 2.42613E-12
1.71823E-11 2.42602E-12
1.90386E-11 2.42591E-12
2.09900E-11 2.42579E-12
2.30367E-11 2.42566E-12
2.51785E-11 2.42554E-12
2.74156E-11 2.42540E-12
2.97478E-11 2.42526E-12
3.21752E-11 2.42511E-12
3.46979E-11 2.42496E-12
3.73157E-11 2.42480E-12
4.00286E-11 2.42464E-12
4.28368E-11 2.42447E-12
4.57402E-11 2.42429E-12
4.87388E-11 2.42411E-12
5.18325E-11 2.42392E-12
5.50215E-11 2.42373E-12
5.83057E-11 2.42353E-12
6.16850E-11 2.42333E-12
6.51595E-11 2.42312E-12
6.87293E-11 2.42290E-12
7.23943E-11 2.42268E-12
7.61544E-11 2.42246E-12
1.18991E-10 2.41987E-12
1.71347E-10 2.41672E-12
2.33223E-10 2.41301E-12
3.04617E-10 2.40874E-12
3.85531E-10 2.40391E-12
4.75965E-10 2.39854E-12
5.75917E-10 2.39262E-12
6.85389E-10 2.38617E-12
8.04380E-10 2.37919E-12
9.32891E-10 2.37170E-12
1.07092E-09 2.36369E-12
1.21847E-09 2.35518E-12
1.37554E-09 2.34619E-12
1.54213E-09 2.33671E-12
1.71823E-09 2.32676E-12
1.90386E-09 2.31635E-12
2.09900E-09 2.30549E-12
2.30367E-09 2.29420E-12
2.51785E-09 2.28249E-12
2.74156E-09 2.27036E-12
2.97478E-09 2.25784E-12
3.21752E-09 2.24493E-12
3.46978E-09 2.23165E-12
3.73156E-09 2.21801E-12
4.00286E-09 2.20403E-12
4.28368E-09 2.18970E-12
4.57402E-09 2.17506E-12
4.87388E-09 2.16011E-12
5.18326E-09 2.14489E-12
5.50215E-09 2.12940E-12
5.83057E-09 2.11366E-12
6.16850E-09 2.09767E-12
6.51596E-09 2.08145E-12
6.87293E-09 2.06497E-12
7.23942E-09 2.04830E-12
7.61544E-09 2.03145E-12
1.18991E-08 1.85547E-12
1.71347E-08 1.67412E-12
2.33223E-08 1.49706E-12
3.04617E-08 1.33093E-12
3.85531E-08 1.17918E-12
4.75965E-08 1.04340E-12
5.75917E-08 9.23526E-13
6.85389E-08 8.18342E-13
8.04380E-08 7.26674E-13
9.32891E-08 6.46842E-13
1.07092E-07 5.77201E-13
1.21847E-07 5.16519E-13
1.37554E-07 4.63367E-13
1.54213E-07 4.16714E-13
1.71823E-07 3.75725E-13
1.90386E-07 3.39423E-13
2.09900E-07 3.07307E-13
2.30367E-07 2.78812E-13
2.51785E-07 2.53347E-13
2.74156E-07 2.30653E-13
2.97478E-07 2.10333E-13
3.21752E-07 1.92079E-13
3.46978E-07 1.75706E-13
3.73156E-07 1.60940E-13
4.00286E-07 1.47627E-13
4.28368E-07 1.35046E-13
4.57402E-07 1.23689E-13
4.87388E-07 1.13662E-13
5.18325E-07 1.04779E-13
5.50215E-07 9.68844E-14
5.83057E-07 8.98460E-14
6.16850E-07 8.35520E-14
6.51596E-07 7.76174E-14
6.87293E-07 7.18632E-14
7.23942E-07 6.66990E-14
7.61543E-07 6.20521E-14
1.18991E-06 3.26226E-14
1.71347E-06 1.90593E-14
2.33223E-06 1.20553E-14
3.04617E-06 8.06971E-15
3.85531E-06 5.58796E-15
4.75964E-06 3.97507E-15
5.75916E-06 2.89013E-15
6.85388E-06 2.13561E-15
8.04378E-06 1.60669E-15
9.32888E-06 1.22849E-15
1.07092E-05 9.53549E-16
1.21846E-05 7.51006E-16
1.37553E-05 5.99628E-16
1.54212E-05 4.84887E-16
1.71822E-05 3.96686E-16
1.90385E-05 3.27815E-16
2.09899E-05 2.73566E-16
2.30365E-05 2.30229E-16
2.51783E-05 1.95217E-16
2.74153E-05 1.66692E-16
2.97475E-05 1.43238E-16
3.21749E-05 1.23791E-16
3.46974E-05 1.07559E-16
3.73152E-05 9.39052E-17
4.00281E-05 8.23532E-17
4.28362E-05 7.24843E-17
4.57395E-05 6.40677E-17
4.87380E-05 5.68741E-17
5.18317E-05 5.06116E-17
5.50205E-05 4.51893E-17
5.83045E-05 4.04932E-17
6.16838E-05 3.63571E-17
6.51582E-05 3.27406E-17
6.87277E-05 2.95739E-17
7.23925E-05 2.67601E-17
7.61524E-05 2.42776E-17
9.21439E-05 1.68039E-17
1.09658E-04 1.19814E-17
1.28695E-04 8.76938E-18
1.49255E-04 6.56370E-18
1.71338E-04 5.00978E-18
1.94942E-04 3.89030E-18
2.20070E-04 3.06720E-18
2.46720E-04 2.45119E-18
2.74892E-04 1.98274E-18
3.04586E-04 1.62128E-18
3.35803E-04 1.33877E-18
3.68542E-04 1.11537E-18
4.02802E-04 9.36772E-19
4.38585E-04 7.92624E-19
4.75889E-04 6.75228E-19
5.14715E-04 5.78818E-19
5.55063E-04 4.99058E-19
5.96931E-04 4.32595E-19
6.40321E-04 3.76855E-19
6.85233E-04 3.29829E-19
7.31665E-04 2.89920E-19
7.79618E-04 2.55881E-19
8.29092E-04 2.26702E-19
8.80086E-04 2.01570E-19
9.32601E-04 1.79832E-19
9.86636E-04 1.60951E-19
1.04219E-03 1.44488E-19
1.09927E-03 1.30080E-19
1.15786E-03 1.17427E-19
1.21797E-03 1.06277E-19
1.27961E-03 9.64234E-20
1.34276E-03 8.76866E-20
1.40743E-03 7.99193E-20
1.47362E-03 7.29951E-20
1.54133E-03 6.68059E-20
1.61056E-03 6.12605E-20
1.68131E-03 5.62799E-20
1.75357E-03 5.17963E-20
1.82735E-03 4.77517E-20
1.90265E-03 4.40950E-20
1.97947E-03 4.07826E-20
2.05780E-03 3.77764E-20
2.13765E-03 3.50427E-20
2.21902E-03 3.25527E-20
2.30190E-03 3.02805E-20
2.38630E-03 2.82037E-20
2.47222E-03 2.63026E-20
2.55965E-03 2.45594E-20
2.64859E-03 2.29587E-20
2.73905E-03 2.14869E-20
2.83103E-03 2.01314E-20
2.92452E-03 1.88816E-20
3.01952E-03 1.77276E-20
3.11604E-03 1.66608E-20
3.21407E-03 1.56733E-20
3.31362E-03 1.47582E-20
3.41468E-03 1.39092E-20
3.51725E-03 1.31206E-20
3.62133E-03 1.23873E-20
3.72692E-03 1.17048E-20
3.83403E-03 1.10689E-20
3.94265E-03 1.04757E-20
4.05278E-03 9.92197E-21
4.16442E-03 9.40446E-21
4.27757E-03 8.92046E-21
4.39223E-03 8.46731E-21
4.50840E-03 8.04275E-21
4.62608E-03 7.64457E-21
4.74527E-03 7.27087E-21
4.86597E-03 6.91984E-21
4.98817E-03 6.58985E-21
5.11188E-03 6.27941E-21
5.23711E-03 5.98712E-21
5.36383E-03 5.71175E-21
5.49207E-03 5.45211E-21
5.62181E-03 5.20715E-21
5.75306E-03 4.97585E-21
5.88581E-03 4.75735E-21
6.02007E-03 4.55077E-21
6.15583E-03 4.35535E-21
6.29310E-03 4.17037E-21
6.43187E-03 3.99517E-21
6.57214E-03 3.82913E-21
6.71392E-03 3.67168E-21
6.85720E-03 3.52230E-21
7.00198E-03 3.38048E-21
7.14827E-03 3.24578E-21
7.29605E-03 3.11775E-21
7.44534E-03 2.99603E-21
7.59612E-03 2.88022E-21
7.97965E-03 2.61443E-21
8.37255E-03 2.37879E-21
8.77480E-03 2.16929E-21
9.18641E-03 1.98251E-21
9.60736E-03 1.81554E-21
1.00376E-02 1.66591E-21
1.04773E-02 1.53149E-21
1.09262E-02 1.41046E-21
1.13844E-02 1.30124E-21
1.18520E-02 1.20247E-21
1.23288E-02 1.11297E-21
1.28150E-02 1.03172E-21
1.33104E-02 9.57799E-22
1.38150E-02 8.90439E-22
1.43290E-02 8.28948E-22
1.48521E-02 7.72718E-22
1.53845E-02 7.21218E-22
1.59262E-02 6.73975E-22
1.64770E-02 6.30572E-22
1.70371E-02 5.90638E-22
1.76063E-02 5.53845E-22
1.81848E-02 5.19899E-22
1.87724E-02 4.88539E-22
1.93692E-02 4.59529E-22
1.99751E-02 4.32662E-22
2.05901E-02 4.07749E-22
2.12143E-02 3.84620E-22
2.18476E-02 3.63125E-22
2.24900E-02 3.43125E-22
2.31415E-02 3.24497E-22
2.38021E-02 3.07128E-22
2.44717E-02 2.90918E-22
2.51504E-02 2.75775E-22
2.58382E-02 2.61614E-22
2.65349E-02 2.48359E-22
2.72407E-02 2.35942E-22
2.79555E-02 2.24300E-22
2.86793E-02 2.13374E-22
2.94120E-02 2.03113E-22
3.01537E-02 1.93467E-22
3.09043E-02 1.84394E-22
3.16639E-02 1.75852E-22
3.24324E-02 1.67804E-22
3.32098E-02 1.60216E-22
3.39961E-02 1.53057E-22
3.47912E-02 1.46297E-22
3.55952E-02 1.39911E-22
3.64081E-02 1.33873E-22
3.72297E-02 1.28161E-22
3.80602E-02 1.22753E-22
3.88995E-02 1.17631E-22
3.97476E-02 1.12776E-22
4.06044E-02 1.08172E-22
4.14700E-02 1.03803E-22
4.23443E-02 9.96542E-23
4.32273E-02 9.57132E-23
4.41190E-02 9.19672E-23
4.50194E-02 8.84046E-23
4.59284E-02 8.50148E-23
4.68461E-02 8.17877E-23
4.87074E-02 7.57846E-23
5.06030E-02 7.03279E-23
5.25328E-02 6.53584E-23
5.44967E-02 6.08245E-23
5.64946E-02 5.66810E-23
5.85262E-02 5.28878E-23
6.05914E-02 4.94097E-23
6.26901E-02 4.62155E-23
6.48222E-02 4.32777E-23
6.69873E-02 4.05719E-23
6.91854E-02 3.80763E-23
7.14163E-02 3.57712E-23
7.36799E-02 3.36395E-23
7.59760E-02 3.16655E-23
7.83043E-02 2.98355E-23
8.06647E-02 2.81369E-23
8.30571E-02 2.65583E-23
8.54812E-02 2.50897E-23
8.79369E-02 2.37220E-23
9.04240E-02 2.24469E-23
9.29422E-02 2.12569E-23
9.54915E-02 2.01452E-23
9.80716E-02 1.91057E-23
1.00682E-01 1.81328E-23
1.03323E-01 1.72213E-23
1.05995E-01 1.63667E-23
1.08696E-01 1.55647E-23
1.11427E-01 1.48114E-23
1.14188E-01 1.41033E-23
1.16978E-01 1.34372E-23
1.19797E-01 1.28101E-23
1.22645E-01 1.22192E-23
1.25522E-01 1.16621E-23
1.28428E-01 1.11364E-23
1.31361E-01 1.06400E-23
1.34323E-01 1.01711E-23
1.37313E-01 9.72763E-24
1.40330E-01 9.30809E-24
1.43375E-01 8.91091E-24
1.46447E-01 8.53469E-24
1.49545E-01 8.17806E-24
1.52671E-01 7.83981E-24
1.55823E-01 7.51880E-24
1.59001E-01 7.21402E-24
1.62205E-01 6.92447E-24
1.65435E-01 6.64922E-24
1.68690E-01 6.38742E-24
1.71970E-01 6.13830E-24
1.75276E-01 5.90115E-24
1.78606E-01 5.67527E-24
1.81961E-01 5.45997E-24
1.85340E-01 5.25467E-24
1.88743E-01 5.05891E-24
1.92169E-01 4.87207E-24
1.95619E-01 4.69365E-24
1.99092E-01 4.52323E-24
2.02589E-01 4.36040E-24
2.06107E-01 4.20473E-24
2.09649E-01 4.05585E-24
2.13212E-01 3.91339E-24
2.16797E-01 3.77704E-24
2.20404E-01 3.64648E-24
2.24032E-01 3.52142E-24
2.27680E-01 3.40157E-24
2.31350E-01 3.28668E-24
2.35040E-01 3.17650E-24
2.38751E-01 3.07081E-24
2.42481E-01 2.96939E-24
2.46231E-01 2.87202E-24
2.50000E-01 2.77851E-24
2.53788E-01 2.68869E-24
2.57595E-01 2.60237E-24
2.61421E-01 2.51940E-24
2.65264E-01 2.43962E-24
2.69126E-01 2.36288E-24
2.73005E-01 2.28905E-24
2.76901E-01 2.21799E-24
2.80814E-01 2.14958E-24
2.84744E-01 2.08370E-24
2.88691E-01 2.02024E-24
2.92653E-01 1.95910E-24
2.96632E-01 1.90016E-24
3.00625E-01 1.84334E-24
3.04634E-01 1.78855E-24
3.08658E-01 1.73570E-24
3.12697E-01 1.68471E-24
3.16749E-01 1.63550E-24
3.20816E-01 1.58800E-24
3.24896E-01 1.54213E-24
3.28990E-01 1.49784E-24
3.33097E-01 1.45504E-24
3.37216E-01 1.41369E-24
3.41348E-01 1.37373E-24
3.45492E-01 1.33510E-24
3.49647E-01 1.29775E-24
3.53814E-01 1.26162E-24
3.57992E-01 1.22668E-24
3.62181E-01 1.19286E-24
3.66381E-01 1.16014E-24
3.70590E-01 1.12847E-24
3.74810E-01 1.09781E-24
3.79039E-01 1.06811E-24
3.83277E-01 1.03936E-24
3.87524E-01 1.01150E-24
3.91780E-01 9.84501E-25
3.96044E-01 9.58341E-25
4.00316E-01 9.32984E-25
4.04596E-01 9.08401E-25
4.08882E-01 8.84565E-25
4.13176E-01 8.61447E-25
4.17476E-01 8.39023E-25
4.21783E-01 8.17268E-25
4.26095E-01 7.96159E-25
4.30413E-01 7.75672E-25
4.34737E-01 7.55786E-25
4.39065E-01 7.36480E-25
4.43398E-01 7.17734E-25
4.47736E-01 6.99529E-25
4.52077E-01 6.81846E-25
4.56422E-01 6.64669E-25
4.60770E-01 6.47979E-25
4.65122E-01 6.31760E-25
4.69476E-01 6.15997E-25
4.73832E-01 6.00675E-25
4.78190E-01 5.85779E-25
4.82550E-01 5.71295E-25
4.86912E-01 5.57210E-25
4.91274E-01 5.43510E-25
4.95637E-01 5.30184E-25
5.00000E-01 5.17219E-25
5.04363E-01 5.04605E-25
5.08726E-01 4.92329E-25
5.13088E-01 4.80381E-25
5.17450E-01 4.68751E-25
5.21810E-01 4.57429E-25
5.26168E-01 4.46405E-25
5.30524E-01 4.35671E-25
5.34878E-01 4.25216E-25
5.39230E-01 4.15034E-25
5.43578E-01 4.05115E-25
5.47923E-01 3.95451E-25
5.52264E-01 3.86035E-25
5.56602E-01 3.76860E-25
5.60935E-01 3.67918E-25
5.65263E-01 3.59202E-25
5.69587E-01 3.50705E-25
5.73905E-01 3.42422E-25
5.78217E-01 3.34346E-25
5.82524E-01 3.26471E-25
5.86824E-01 3.18791E-25
5.91118E-01 3.11300E-25
5.95404E-01 3.03994E-25
5.99684E-01 2.96867E-25
6.03956E-01 2.89913E-25
6.08220E-01 2.83128E-25
6.12476E-01 2.76507E-25
6.16723E-01 2.70046E-25
6.20961E-01 2.63740E-25
6.25190E-01 2.57585E-25
6.29410E-01 2.51576E-25
6.33619E-01 2.45710E-25
6.37819E-01 2.39983E-25
6.42008E-01 2.34391E-25
6.46186E-01 2.28930E-25
6.50353E-01 2.23597E-25
6.54508E-01 2.18388E-25
6.58652E-01 2.13300E-25
6.62784E-01 2.08330E-25
6.66903E-01 2.03475E-25
6.71010E-01 1.98732E-25
6.75104E-01 1.94097E-25
6.79184E-01 1.89568E-25
6.83251E-01 1.85143E-25
6.87303E-01 1.80818E-25
6.91342E-01 1.76591E-25
6.95366E-01 1.72459E-25
6.99375E-01 1.68420E-25
7.03368E-01 1.64472E-25
7.07347E-01 1.60612E-25
7.11309E-01 1.56839E-25
7.15256E-01 1.53149E-25
7.19186E-01 1.49542E-25
7.23099E-01 1.46014E-25
7.26995E-01 1.42564E-25
7.30874E-01 1.39190E-25
7.34736E-01 1.35890E-25
7.38579E-01 1.32662E-25
7.42405E-01 1.29505E-25
7.46212E-01 1.26417E-25
7.50000E-01 1.23396E-25
7.53769E-01 1.20440E-25
7.57519E-01 1.17549E-25
7.61249E-01 1.14720E-25
7.64960E-01 1.11952E-25
7.68650E-01 1.09244E-25
7.72320E-01 1.06594E-25
7.75968E-01 1.04000E-25
7.79596E-01 1.01462E-25
7.83203E-01 9.89789E-26
7.86788E-01 9.65484E-26
7.90351E-01 9.41697E-26
7.93893E-01 9.18416E-26
7.97411E-01 8.95629E-26
8.00908E-01 8.73326E-26
8.04381E-01 8.51496E-26
8.07831E-01 8.30128E-26
8.11257E-01 8.09212E-26
8.14660E-01 7.88738E-26
8.18039E-01 7.68696E-26
8.21394E-01 7.49076E-26
8.24724E-01 7.29871E-26
8.28030E-01 7.11070E-26
8.31310E-01 6.92665E-26
8.34565E-01 6.74647E-26
8.37795E-01 6.57009E-26
8.40999E-01 6.39742E-26
8.44177E-01 6.22838E-26
8.47329E-01 6.06290E-26
8.50455E-01 5.90090E-26
8.53553E-01 5.74232E-26
8.56625E-01 5.58707E-26
8.59670E-01 5.43510E-26
8.62687E-01 5.28633E-26
8.65677E-01 5.14070E-26
8.68639E-01 4.99815E-26
8.71572E-01 4.85862E-26
8.74478E-01 4.72204E-26
8.77355E-01 4.58836E-26
8.80203E-01 4.45752E-26
8.83022E-01 4.32947E-26
8.85812E-01 4.20414E-26
8.88573E-01 4.08150E-26
8.91304E-01 3.96148E-26
8.94005E-01 3.84405E-26
8.96677E-01 3.72914E-26
8.99318E-01 3.61671E-26
9.01928E-01 3.50672E-26
9.04508E-01 3.39912E-26
9.07058E-01 3.29387E-26
9.09576E-01 3.19092E-26
9.12063E-01 3.09023E-26
9.14519E-01 2.99177E-26
9.16943E-01 2.89549E-26
9.19335E-01 2.80136E-26
9.21696E-01 2.70933E-26
9.24024E-01 2.61938E-26
9.26320E-01 2.53146E-26
9.28584E-01 2.44555E-26
9.30815E-01 2.36160E-26
9.33013E-01 2.27959E-26
9.35178E-01 2.19949E-26
9.37310E-01 2.12125E-26
9.39409E-01 2.04486E-26
9.41474E-01 1.97029E-26
9.43505E-01 1.89750E-26
9.45503E-01 1.82647E-26
9.47467E-01 1.75717E-26
9.49397E-01 1.68957E-26
9.51293E-01 1.62365E-26
9.53154E-01 1.55939E-26
9.54981E-01 1.49676E-26
9.56773E-01 1.43574E-26
9.58530E-01 1.37630E-26
9.60252E-01 1.31842E-26
9.61940E-01 1.26209E-26
9.63592E-01 1.20727E-26
9.65209E-01 1.15396E-26
9.66790E-01 1.10212E-26
9.68336E-01 1.05175E-26
9.69846E-01 1.00282E-26
9.71321E-01 9.55322E-27
9.72759E-01 9.09229E-27
9.74162E-01 8.64528E-27
9.75528E-01 8.21202E-27
9.76858E-01 7.79237E-27
9.78152E-01 7.38616E-27
9.79410E-01 6.99327E-27
9.80631E-01 6.61354E-27
9.81815E-01 6.24684E-27
9.82963E-01 5.89304E-27
9.84074E-01 5.55201E-27
9.85148E-01 5.22364E-27
9.86185E-01 4.90781E-27
9.87185E-01 4.60440E-27
9.88148E-01 4.31331E-27
9.89074E-01 4.03443E-27
9.89962E-01 3.76767E-27
9.90814E-01 3.51294E-27
9.91627E-01 3.27014E-27
9.92404E-01 3.03919E-27
9.93143E-01 2.82002E-27
9.93844E-01 2.61253E-27
9.94508E-01 2.41667E-27
9.95134E-01 2.23235E-27
9.95722E-01 2.05953E-27
9.96273E-01 1.89813E-27
9.96786E-01 1.74811E-27
9.97261E-01 1.60940E-27
9.97698E-01 1.48197E-27
9.98097E-01 1.36577E-27
9.98459E-01 1.26075E-27
9.98782E-01 1.16689E-27
9.99067E-01 1.08414E-27
9.99315E-01 1.01249E-27
9.99524E-01 9.51898E-28
9.99695E-01 9.02353E-28
9.99829E-01 8.63836E-28
9.99924E-01 8.36333E-28
9.99981E-01 8.19835E-28
1.00000E+00 8.14337E-28
