 #
 # Subroutine ELSEPA. Elastic scattering of electrons and positrons
 #                    by neutral atoms and positive ions
 #
 # Projectile: electron
 # Kinetic energy = 5.00000E+07 eV = 1.83747E+06 a.u.
 #
 # WARNING: High-energy factorization with free-atom DF screening.
 #          Absorption, polarization and exchange corrections are
 #          switched off.
 #          Phase shifts are calculated for the bare nucleus.
 #          Scattering amplitudes are not evaluated.
 #
 # Element: Nb,  Z =  41,  atomic weight = 9.29064E+01 g/mol
 #
 # Nuclear model: Fermi distribution
 #                Average radius = 4.84617E-13 cm
 #                Skin thickness = 5.46000E-14 cm
 #
 # Number of electrons = 41
 #
 # Total elastic cross section = 3.98687E-18 cm**2 = 1.42374E-01 a0**2
 # 1st transport cross section = 1.30943E-24 cm**2 = 4.67605E-08 a0**2
 # 2nd transport cross section = 3.83625E-24 cm**2 = 1.36995E-07 a0**2
 #
 #
 # Differential cross section:                       MU=(1-COS(THETA))/2
 #
 #  THETA        MU          DCS          DCS        Sherman      error
 #  (deg)                 (cm**2/sr)   (a0**2/sr)    function
 #----------------------------------------------------------------------
0.00000E+00 1.09763E-10
7.61557E-13 1.09668E-10
1.18994E-12 1.09615E-10
1.71346E-12 1.09550E-10
2.33225E-12 1.09473E-10
3.04617E-12 1.09385E-10
3.85530E-12 1.09285E-10
4.75964E-12 1.09173E-10
5.75917E-12 1.09050E-10
6.85391E-12 1.08915E-10
8.04379E-12 1.08769E-10
9.32893E-12 1.08612E-10
1.07092E-11 1.08444E-10
1.21847E-11 1.08264E-10
1.37554E-11 1.08073E-10
1.54213E-11 1.07872E-10
1.71823E-11 1.07660E-10
1.90386E-11 1.07437E-10
2.09900E-11 1.07203E-10
2.30367E-11 1.06959E-10
2.51785E-11 1.06705E-10
2.74156E-11 1.06440E-10
2.97478E-11 1.06166E-10
3.21752E-11 1.05881E-10
3.46979E-11 1.05587E-10
3.73157E-11 1.05283E-10
4.00286E-11 1.04970E-10
4.28368E-11 1.04647E-10
4.57402E-11 1.04315E-10
4.87388E-11 1.03975E-10
5.18325E-11 1.03625E-10
5.50215E-11 1.03267E-10
5.83057E-11 1.02900E-10
6.16850E-11 1.02525E-10
6.51595E-11 1.02142E-10
6.87293E-11 1.01751E-10
7.23943E-11 1.01353E-10
7.61544E-11 1.00946E-10
1.18991E-10 9.65080E-11
1.71347E-10 9.15282E-11
2.33223E-10 8.61970E-11
3.04617E-10 8.06916E-11
3.85531E-10 7.51651E-11
4.75965E-10 6.97416E-11
5.75917E-10 6.45152E-11
6.85389E-10 5.95518E-11
8.04380E-10 5.48916E-11
9.32891E-10 5.05552E-11
1.07092E-09 4.65495E-11
1.21847E-09 4.28684E-11
1.37554E-09 3.94985E-11
1.54213E-09 3.64213E-11
1.71823E-09 3.36157E-11
1.90386E-09 3.10596E-11
2.09900E-09 2.87312E-11
2.30367E-09 2.66094E-11
2.51785E-09 2.46743E-11
2.74156E-09 2.29077E-11
2.97478E-09 2.12929E-11
3.21752E-09 1.98128E-11
3.46978E-09 1.84557E-11
3.73156E-09 1.72099E-11
4.00286E-09 1.60648E-11
4.28368E-09 1.50105E-11
4.57402E-09 1.40387E-11
4.87388E-09 1.31416E-11
5.18326E-09 1.23125E-11
5.50215E-09 1.15453E-11
5.83057E-09 1.08344E-11
6.16850E-09 1.01751E-11
6.51596E-09 9.56308E-12
6.87293E-09 8.99401E-12
7.23942E-09 8.46406E-12
7.61544E-09 7.97083E-12
1.18991E-08 4.48203E-12
1.71347E-08 2.71882E-12
2.33223E-08 1.74533E-12
3.04617E-08 1.17973E-12
3.85531E-08 8.33438E-13
4.75965E-08 6.10101E-13
5.75917E-08 4.59023E-13
6.85389E-08 3.52597E-13
8.04380E-08 2.75026E-13
9.32891E-08 2.17105E-13
1.07092E-07 1.73218E-13
1.21847E-07 1.39498E-13
1.37554E-07 1.13305E-13
1.54213E-07 9.27707E-14
1.71823E-07 7.65430E-14
1.90386E-07 6.36237E-14
2.09900E-07 5.32688E-14
2.30367E-07 4.49094E-14
2.51785E-07 3.81054E-14
2.74156E-07 3.25418E-14
2.97478E-07 2.79629E-14
3.21752E-07 2.41683E-14
3.46978E-07 2.10040E-14
3.73156E-07 1.83480E-14
4.00286E-07 1.61045E-14
4.28368E-07 1.41983E-14
4.57402E-07 1.25698E-14
4.87388E-07 1.11713E-14
5.18325E-07 9.96481E-15
5.50215E-07 8.91913E-15
5.83057E-07 8.00895E-15
6.16850E-07 7.21343E-15
6.51596E-07 6.51532E-15
6.87293E-07 5.90029E-15
7.23942E-07 5.35637E-15
7.61543E-07 4.87388E-15
1.18991E-06 2.10370E-15
1.71347E-06 1.04694E-15
2.33223E-06 5.75770E-16
3.04617E-06 3.41647E-16
3.85531E-06 2.15250E-16
4.75964E-06 1.42287E-16
5.75916E-06 9.78077E-17
6.85388E-06 6.94517E-17
8.04378E-06 5.06802E-17
9.32888E-06 3.78496E-17
1.07092E-05 2.88379E-17
1.21846E-05 2.23574E-17
1.37553E-05 1.75998E-17
1.54212E-05 1.40430E-17
1.71822E-05 1.13411E-17
1.90385E-05 9.25712E-18
2.09899E-05 7.63330E-18
2.30365E-05 6.34994E-18
2.51783E-05 5.32464E-18
2.74153E-05 4.49757E-18
2.97475E-05 3.82471E-18
3.21749E-05 3.27302E-18
3.46974E-05 2.81735E-18
3.73152E-05 2.43838E-18
4.00281E-05 2.12113E-18
4.28362E-05 1.85386E-18
4.57395E-05 1.62737E-18
4.87380E-05 1.43439E-18
5.18317E-05 1.26913E-18
5.50205E-05 1.12696E-18
5.83045E-05 1.00413E-18
6.16838E-05 8.97583E-19
6.51582E-05 8.04814E-19
6.87277E-05 7.23742E-19
7.23925E-05 6.52637E-19
7.61524E-05 5.90167E-19
9.21439E-05 4.03737E-19
1.09658E-04 2.85444E-19
1.28695E-04 2.07495E-19
1.49255E-04 1.54428E-19
1.71338E-04 1.17305E-19
1.94942E-04 9.06998E-20
2.20070E-04 7.12326E-20
2.46720E-04 5.67233E-20
2.74892E-04 4.57294E-20
3.04586E-04 3.72775E-20
3.35803E-04 3.06926E-20
3.68542E-04 2.55013E-20
4.02802E-04 2.13638E-20
4.38585E-04 1.80333E-20
4.75889E-04 1.53282E-20
5.14715E-04 1.31124E-20
5.55063E-04 1.12835E-20
5.96931E-04 9.76313E-21
6.40321E-04 8.49080E-21
6.85233E-04 7.41949E-21
7.31665E-04 6.51221E-21
7.79618E-04 5.73971E-21
8.29092E-04 5.07864E-21
8.80086E-04 4.51025E-21
9.32601E-04 4.01934E-21
9.86636E-04 3.59357E-21
1.04219E-03 3.22284E-21
1.09927E-03 2.89880E-21
1.15786E-03 2.61457E-21
1.21797E-03 2.36441E-21
1.27961E-03 2.14354E-21
1.34276E-03 1.94793E-21
1.40743E-03 1.77418E-21
1.47362E-03 1.61942E-21
1.54133E-03 1.48122E-21
1.61056E-03 1.35749E-21
1.68131E-03 1.24644E-21
1.75357E-03 1.14655E-21
1.82735E-03 1.05650E-21
1.90265E-03 9.75136E-22
1.97947E-03 9.01480E-22
2.05780E-03 8.34668E-22
2.13765E-03 7.73948E-22
2.21902E-03 7.18665E-22
2.30190E-03 6.68247E-22
2.38630E-03 6.22186E-22
2.47222E-03 5.80035E-22
2.55965E-03 5.41407E-22
2.64859E-03 5.05950E-22
2.73905E-03 4.73356E-22
2.83103E-03 4.43354E-22
2.92452E-03 4.15699E-22
3.01952E-03 3.90172E-22
3.11604E-03 3.66581E-22
3.21407E-03 3.44752E-22
3.31362E-03 3.24529E-22
3.41468E-03 3.05771E-22
3.51725E-03 2.88354E-22
3.62133E-03 2.72163E-22
3.72692E-03 2.57095E-22
3.83403E-03 2.43059E-22
3.94265E-03 2.29973E-22
4.05278E-03 2.17755E-22
4.16442E-03 2.06343E-22
4.27757E-03 1.95670E-22
4.39223E-03 1.85680E-22
4.50840E-03 1.76322E-22
4.62608E-03 1.67548E-22
4.74527E-03 1.59314E-22
4.86597E-03 1.51582E-22
4.98817E-03 1.44314E-22
5.11188E-03 1.37478E-22
5.23711E-03 1.31043E-22
5.36383E-03 1.24982E-22
5.49207E-03 1.19267E-22
5.62181E-03 1.13877E-22
5.75306E-03 1.08789E-22
5.88581E-03 1.03982E-22
6.02007E-03 9.94388E-23
6.15583E-03 9.51416E-23
6.29310E-03 9.10746E-23
6.43187E-03 8.72232E-23
6.57214E-03 8.35737E-23
6.71392E-03 8.01136E-23
6.85720E-03 7.68311E-23
7.00198E-03 7.37154E-23
7.14827E-03 7.07565E-23
7.29605E-03 6.79449E-23
7.44534E-03 6.52719E-23
7.59612E-03 6.27293E-23
7.97965E-03 5.68951E-23
8.37255E-03 5.17250E-23
8.77480E-03 4.71300E-23
9.18641E-03 4.30349E-23
9.60736E-03 3.93757E-23
1.00376E-02 3.60978E-23
1.04773E-02 3.31543E-23
1.09262E-02 3.05051E-23
1.13844E-02 2.81155E-23
1.18520E-02 2.59554E-23
1.23288E-02 2.39989E-23
1.28150E-02 2.22234E-23
1.33104E-02 2.06089E-23
1.38150E-02 1.91384E-23
1.43290E-02 1.77967E-23
1.48521E-02 1.65703E-23
1.53845E-02 1.54477E-23
1.59262E-02 1.44184E-23
1.64770E-02 1.34732E-23
1.70371E-02 1.26041E-23
1.76063E-02 1.18037E-23
1.81848E-02 1.10657E-23
1.87724E-02 1.03843E-23
1.93692E-02 9.75435E-24
1.99751E-02 9.17127E-24
2.05901E-02 8.63092E-24
2.12143E-02 8.12960E-24
2.18476E-02 7.66398E-24
2.24900E-02 7.23103E-24
2.31415E-02 6.82805E-24
2.38021E-02 6.45257E-24
2.44717E-02 6.10239E-24
2.51504E-02 5.77546E-24
2.58382E-02 5.46998E-24
2.65349E-02 5.18427E-24
2.72407E-02 4.91681E-24
2.79555E-02 4.66623E-24
2.86793E-02 4.43125E-24
2.94120E-02 4.21074E-24
3.01537E-02 4.00363E-24
3.09043E-02 3.80897E-24
3.16639E-02 3.62586E-24
3.24324E-02 3.45349E-24
3.32098E-02 3.29112E-24
3.39961E-02 3.13805E-24
3.47912E-02 2.99366E-24
3.55952E-02 2.85737E-24
3.64081E-02 2.72864E-24
3.72297E-02 2.60696E-24
3.80602E-02 2.49189E-24
3.88995E-02 2.38299E-24
3.97476E-02 2.27988E-24
4.06044E-02 2.18219E-24
4.14700E-02 2.08959E-24
4.23443E-02 2.00175E-24
4.32273E-02 1.91840E-24
4.41190E-02 1.83925E-24
4.50194E-02 1.76407E-24
4.59284E-02 1.69260E-24
4.68461E-02 1.62464E-24
4.87074E-02 1.49844E-24
5.06030E-02 1.38400E-24
5.25328E-02 1.28002E-24
5.44967E-02 1.18539E-24
5.64946E-02 1.09912E-24
5.85262E-02 1.02035E-24
6.05914E-02 9.48320E-25
6.26901E-02 8.82347E-25
6.48222E-02 8.21838E-25
6.69873E-02 7.66263E-25
6.91854E-02 7.15152E-25
7.14163E-02 6.68086E-25
7.36799E-02 6.24691E-25
7.59760E-02 5.84633E-25
7.83043E-02 5.47611E-25
8.06647E-02 5.13358E-25
8.30571E-02 4.81631E-25
8.54812E-02 4.52214E-25
8.79369E-02 4.24911E-25
9.04240E-02 3.99544E-25
9.29422E-02 3.75954E-25
9.54915E-02 3.53996E-25
9.80716E-02 3.33539E-25
1.00682E-01 3.14464E-25
1.03323E-01 2.96662E-25
1.05995E-01 2.80035E-25
1.08696E-01 2.64492E-25
1.11427E-01 2.49952E-25
1.14188E-01 2.36340E-25
1.16978E-01 2.23588E-25
1.19797E-01 2.11632E-25
1.22645E-01 2.00415E-25
1.25522E-01 1.89884E-25
1.28428E-01 1.79991E-25
1.31361E-01 1.70692E-25
1.34323E-01 1.61945E-25
1.37313E-01 1.53713E-25
1.40330E-01 1.45960E-25
1.43375E-01 1.38655E-25
1.46447E-01 1.31768E-25
1.49545E-01 1.25272E-25
1.52671E-01 1.19141E-25
1.55823E-01 1.13351E-25
1.59001E-01 1.07881E-25
1.62205E-01 1.02711E-25
1.65435E-01 9.78223E-26
1.68690E-01 9.31967E-26
1.71970E-01 8.88184E-26
1.75276E-01 8.46724E-26
1.78606E-01 8.07446E-26
1.81961E-01 7.70219E-26
1.85340E-01 7.34923E-26
1.88743E-01 7.01444E-26
1.92169E-01 6.69675E-26
1.95619E-01 6.39517E-26
1.99092E-01 6.10879E-26
2.02589E-01 5.83673E-26
2.06107E-01 5.57819E-26
2.09649E-01 5.33241E-26
2.13212E-01 5.09868E-26
2.16797E-01 4.87633E-26
2.20404E-01 4.66475E-26
2.24032E-01 4.46334E-26
2.27680E-01 4.27156E-26
2.31350E-01 4.08889E-26
2.35040E-01 3.91484E-26
2.38751E-01 3.74897E-26
2.42481E-01 3.59084E-26
2.46231E-01 3.44004E-26
2.50000E-01 3.29621E-26
2.53788E-01 3.15897E-26
2.57595E-01 3.02800E-26
2.61421E-01 2.90297E-26
2.65264E-01 2.78359E-26
2.69126E-01 2.66957E-26
2.73005E-01 2.56065E-26
2.76901E-01 2.45657E-26
2.80814E-01 2.35710E-26
2.84744E-01 2.26200E-26
2.88691E-01 2.17108E-26
2.92653E-01 2.08411E-26
2.96632E-01 2.00093E-26
3.00625E-01 1.92134E-26
3.04634E-01 1.84517E-26
3.08658E-01 1.77226E-26
3.12697E-01 1.70246E-26
3.16749E-01 1.63563E-26
3.20816E-01 1.57162E-26
3.24896E-01 1.51031E-26
3.28990E-01 1.45156E-26
3.33097E-01 1.39527E-26
3.37216E-01 1.34132E-26
3.41348E-01 1.28961E-26
3.45492E-01 1.24003E-26
3.49647E-01 1.19249E-26
3.53814E-01 1.14690E-26
3.57992E-01 1.10316E-26
3.62181E-01 1.06121E-26
3.66381E-01 1.02095E-26
3.70590E-01 9.82325E-27
3.74810E-01 9.45250E-27
3.79039E-01 9.09663E-27
3.83277E-01 8.75497E-27
3.87524E-01 8.42693E-27
3.91780E-01 8.11192E-27
3.96044E-01 7.80938E-27
4.00316E-01 7.51877E-27
4.04596E-01 7.23960E-27
4.08882E-01 6.97137E-27
4.13176E-01 6.71364E-27
4.17476E-01 6.46595E-27
4.21783E-01 6.22789E-27
4.26095E-01 5.99906E-27
4.30413E-01 5.77908E-27
4.34737E-01 5.56758E-27
4.39065E-01 5.36420E-27
4.43398E-01 5.16863E-27
4.47736E-01 4.98053E-27
4.52077E-01 4.79961E-27
4.56422E-01 4.62557E-27
4.60770E-01 4.45814E-27
4.65122E-01 4.29705E-27
4.69476E-01 4.14203E-27
4.73832E-01 3.99286E-27
4.78190E-01 3.84930E-27
4.82550E-01 3.71111E-27
4.86912E-01 3.57810E-27
4.91274E-01 3.45005E-27
4.95637E-01 3.32678E-27
5.00000E-01 3.20808E-27
5.04363E-01 3.09378E-27
5.08726E-01 2.98372E-27
5.13088E-01 2.87771E-27
5.17450E-01 2.77562E-27
5.21810E-01 2.67728E-27
5.26168E-01 2.58254E-27
5.30524E-01 2.49128E-27
5.34878E-01 2.40336E-27
5.39230E-01 2.31864E-27
5.43578E-01 2.23701E-27
5.47923E-01 2.15834E-27
5.52264E-01 2.08253E-27
5.56602E-01 2.00947E-27
5.60935E-01 1.93904E-27
5.65263E-01 1.87116E-27
5.69587E-01 1.80573E-27
5.73905E-01 1.74265E-27
5.78217E-01 1.68183E-27
5.82524E-01 1.62319E-27
5.86824E-01 1.56665E-27
5.91118E-01 1.51214E-27
5.95404E-01 1.45956E-27
5.99684E-01 1.40886E-27
6.03956E-01 1.35996E-27
6.08220E-01 1.31280E-27
6.12476E-01 1.26731E-27
6.16723E-01 1.22343E-27
6.20961E-01 1.18111E-27
6.25190E-01 1.14027E-27
6.29410E-01 1.10088E-27
6.33619E-01 1.06287E-27
6.37819E-01 1.02620E-27
6.42008E-01 9.90813E-28
6.46186E-01 9.56669E-28
6.50353E-01 9.23719E-28
6.54508E-01 8.91921E-28
6.58652E-01 8.61233E-28
6.62784E-01 8.31615E-28
6.66903E-01 8.03029E-28
6.71010E-01 7.75436E-28
6.75104E-01 7.48802E-28
6.79184E-01 7.23091E-28
6.83251E-01 6.98271E-28
6.87303E-01 6.74310E-28
6.91342E-01 6.51177E-28
6.95366E-01 6.28843E-28
6.99375E-01 6.07278E-28
7.03368E-01 5.86456E-28
7.07347E-01 5.66350E-28
7.11309E-01 5.46935E-28
7.15256E-01 5.28186E-28
7.19186E-01 5.10080E-28
7.23099E-01 4.92594E-28
7.26995E-01 4.75705E-28
7.30874E-01 4.59394E-28
7.34736E-01 4.43639E-28
7.38579E-01 4.28421E-28
7.42405E-01 4.13722E-28
7.46212E-01 3.99522E-28
7.50000E-01 3.85805E-28
7.53769E-01 3.72553E-28
7.57519E-01 3.59751E-28
7.61249E-01 3.47383E-28
7.64960E-01 3.35433E-28
7.68650E-01 3.23886E-28
7.72320E-01 3.12730E-28
7.75968E-01 3.01951E-28
7.79596E-01 2.91534E-28
7.83203E-01 2.81468E-28
7.86788E-01 2.71741E-28
7.90351E-01 2.62341E-28
7.93893E-01 2.53256E-28
7.97411E-01 2.44476E-28
8.00908E-01 2.35991E-28
8.04381E-01 2.27789E-28
8.07831E-01 2.19862E-28
8.11257E-01 2.12200E-28
8.14660E-01 2.04793E-28
8.18039E-01 1.97634E-28
8.21394E-01 1.90713E-28
8.24724E-01 1.84023E-28
8.28030E-01 1.77556E-28
8.31310E-01 1.71304E-28
8.34565E-01 1.65259E-28
8.37795E-01 1.59415E-28
8.40999E-01 1.53765E-28
8.44177E-01 1.48303E-28
8.47329E-01 1.43021E-28
8.50455E-01 1.37914E-28
8.53553E-01 1.32977E-28
8.56625E-01 1.28202E-28
8.59670E-01 1.23585E-28
8.62687E-01 1.19121E-28
8.65677E-01 1.14804E-28
8.68639E-01 1.10630E-28
8.71572E-01 1.06593E-28
8.74478E-01 1.02690E-28
8.77355E-01 9.89147E-29
8.80203E-01 9.52640E-29
8.83022E-01 9.17336E-29
8.85812E-01 8.83194E-29
8.88573E-01 8.50176E-29
8.91304E-01 8.18245E-29
8.94005E-01 7.87365E-29
8.96677E-01 7.57500E-29
8.99318E-01 7.28619E-29
9.01928E-01 7.00688E-29
9.04508E-01 6.73677E-29
9.07058E-01 6.47555E-29
9.09576E-01 6.22293E-29
9.12063E-01 5.97864E-29
9.14519E-01 5.74241E-29
9.16943E-01 5.51397E-29
9.19335E-01 5.29307E-29
9.21696E-01 5.07948E-29
9.24024E-01 4.87295E-29
9.26320E-01 4.67326E-29
9.28584E-01 4.48020E-29
9.30815E-01 4.29354E-29
9.33013E-01 4.11310E-29
9.35178E-01 3.93867E-29
9.37310E-01 3.77006E-29
9.39409E-01 3.60710E-29
9.41474E-01 3.44960E-29
9.43505E-01 3.29740E-29
9.45503E-01 3.15034E-29
9.47467E-01 3.00825E-29
9.49397E-01 2.87098E-29
9.51293E-01 2.73839E-29
9.53154E-01 2.61034E-29
9.54981E-01 2.48669E-29
9.56773E-01 2.36731E-29
9.58530E-01 2.25206E-29
9.60252E-01 2.14084E-29
9.61940E-01 2.03352E-29
9.63592E-01 1.92999E-29
9.65209E-01 1.83014E-29
9.66790E-01 1.73387E-29
9.68336E-01 1.64107E-29
9.69846E-01 1.55165E-29
9.71321E-01 1.46551E-29
9.72759E-01 1.38257E-29
9.74162E-01 1.30273E-29
9.75528E-01 1.22593E-29
9.76858E-01 1.15206E-29
9.78152E-01 1.08107E-29
9.79410E-01 1.01287E-29
9.80631E-01 9.47394E-30
9.81815E-01 8.84578E-30
9.82963E-01 8.24356E-30
9.84074E-01 7.66664E-30
9.85148E-01 7.11445E-30
9.86185E-01 6.58641E-30
9.87185E-01 6.08198E-30
9.88148E-01 5.60066E-30
9.89074E-01 5.14194E-30
9.89962E-01 4.70537E-30
9.90814E-01 4.29049E-30
9.91627E-01 3.89689E-30
9.92404E-01 3.52416E-30
9.93143E-01 3.17193E-30
9.93844E-01 2.83984E-30
9.94508E-01 2.52756E-30
9.95134E-01 2.23476E-30
9.95722E-01 1.96116E-30
9.96273E-01 1.70648E-30
9.96786E-01 1.47045E-30
9.97261E-01 1.25285E-30
9.97698E-01 1.05345E-30
9.98097E-01 8.72055E-31
9.98459E-01 7.08479E-31
9.98782E-01 5.62560E-31
9.99067E-01 4.34151E-31
9.99315E-01 3.23121E-31
9.99524E-01 2.29361E-31
9.99695E-01 1.52777E-31
9.99829E-01 9.32901E-32
9.99924E-01 5.08423E-32
9.99981E-01 2.53907E-32
1.00000E+00 1.69096E-32
