 #
 # Subroutine ELSEPA. Elastic scattering of electrons and positrons
 #                    by neutral atoms and positive ions
 #
 # Projectile: electron
 # Kinetic energy = 9.00000E+07 eV = 3.30744E+06 a.u.
 #
 # WARNING: High-energy factorization with free-atom DF screening.
 #          Absorption, polarization and exchange corrections are
 #          switched off.
 #          Phase shifts are calculated for the bare nucleus.
 #          Scattering amplitudes are not evaluated.
 #
 # Element: Nb,  Z =  41,  atomic weight = 9.29064E+01 g/mol
 #
 # Nuclear model: Fermi distribution
 #                Average radius = 4.84617E-13 cm
 #                Skin thickness = 5.46000E-14 cm
 #
 # Number of electrons = 41
 #
 # Total elastic cross section = 3.98800E-18 cm**2 = 1.42414E-01 a0**2
 # 1st transport cross section = 4.11488E-25 cm**2 = 1.46945E-08 a0**2
 # 2nd transport cross section = 1.22194E-24 cm**2 = 4.36363E-08 a0**2
 #
 #
 # Differential cross section:                       MU=(1-COS(THETA))/2
 #
 #  THETA        MU          DCS          DCS        Sherman      error
 #  (deg)                 (cm**2/sr)   (a0**2/sr)    function
 #----------------------------------------------------------------------
0.00000E+00 3.52442E-10
7.61557E-13 3.51465E-10
1.18994E-12 3.50918E-10
1.71346E-12 3.50253E-10
2.33225E-12 3.49468E-10
3.04617E-12 3.48568E-10
3.85530E-12 3.47552E-10
4.75964E-12 3.46422E-10
5.75917E-12 3.45181E-10
6.85391E-12 3.43831E-10
8.04379E-12 3.42373E-10
9.32893E-12 3.40811E-10
1.07092E-11 3.39147E-10
1.21847E-11 3.37384E-10
1.37554E-11 3.35524E-10
1.54213E-11 3.33570E-10
1.71823E-11 3.31527E-10
1.90386E-11 3.29396E-10
2.09900E-11 3.27181E-10
2.30367E-11 3.24886E-10
2.51785E-11 3.22513E-10
2.74156E-11 3.20068E-10
2.97478E-11 3.17549E-10
3.21752E-11 3.14963E-10
3.46979E-11 3.12317E-10
3.73157E-11 3.09613E-10
4.00286E-11 3.06854E-10
4.28368E-11 3.04046E-10
4.57402E-11 3.01183E-10
4.87388E-11 2.98274E-10
5.18325E-11 2.95326E-10
5.50215E-11 2.92341E-10
5.83057E-11 2.89325E-10
6.16850E-11 2.86279E-10
6.51595E-11 2.83200E-10
6.87293E-11 2.80094E-10
7.23943E-11 2.76969E-10
7.61544E-11 2.73829E-10
1.18991E-10 2.42058E-10
1.71347E-10 2.11247E-10
2.33223E-10 1.82941E-10
3.04617E-10 1.57889E-10
3.85531E-10 1.36213E-10
4.75965E-10 1.17705E-10
5.75917E-10 1.02024E-10
6.85389E-10 8.87452E-11
8.04380E-10 7.74890E-11
9.32891E-10 6.79323E-11
1.07092E-09 5.97605E-11
1.21847E-09 5.27544E-11
1.37554E-09 4.67269E-11
1.54213E-09 4.14970E-11
1.71823E-09 3.69574E-11
1.90386E-09 3.30031E-11
2.09900E-09 2.95324E-11
2.30367E-09 2.64910E-11
2.51785E-09 2.38158E-11
2.74156E-09 2.14510E-11
2.97478E-09 1.92630E-11
3.21752E-09 1.73446E-11
3.46978E-09 1.56914E-11
3.73156E-09 1.42598E-11
4.00286E-09 1.30145E-11
4.28368E-09 1.19264E-11
4.57402E-09 1.08842E-11
4.87388E-09 9.93332E-12
5.18326E-09 9.09717E-12
5.50215E-09 8.35919E-12
5.83057E-09 7.70555E-12
6.16850E-09 7.12463E-12
6.51596E-09 6.57988E-12
6.87293E-09 6.07870E-12
7.23942E-09 5.63054E-12
7.61544E-09 5.22863E-12
1.18991E-08 2.71198E-12
1.71347E-08 1.57860E-12
2.33223E-08 9.85653E-13
3.04617E-08 6.45314E-13
3.85531E-08 4.36078E-13
4.75965E-08 3.02576E-13
5.75917E-08 2.15344E-13
6.85389E-08 1.56808E-13
8.04380E-08 1.16670E-13
9.32891E-08 8.86095E-14
1.07092E-07 6.85585E-14
1.21847E-07 5.39354E-14
1.37554E-07 4.30590E-14
1.54213E-07 3.48191E-14
1.71823E-07 2.84841E-14
1.90386E-07 2.35446E-14
2.09900E-07 1.96389E-14
2.30367E-07 1.65158E-14
2.51785E-07 1.39910E-14
2.74156E-07 1.19293E-14
2.97478E-07 1.02268E-14
3.21752E-07 8.82229E-15
3.46978E-07 7.65182E-15
3.73156E-07 6.66348E-15
4.00286E-07 5.83373E-15
4.28368E-07 5.12334E-15
4.57402E-07 4.51930E-15
4.87388E-07 4.00087E-15
5.18325E-07 3.55342E-15
5.50215E-07 3.16780E-15
5.83057E-07 2.83098E-15
6.16850E-07 2.53846E-15
6.51596E-07 2.28219E-15
6.87293E-07 2.05730E-15
7.23942E-07 1.85960E-15
7.61543E-07 1.68456E-15
1.18991E-06 7.02961E-16
1.71347E-06 3.43298E-16
2.33223E-06 1.87147E-16
3.04617E-06 1.10590E-16
3.85531E-06 6.94946E-17
4.75964E-06 4.58389E-17
5.75916E-06 3.14444E-17
6.85388E-06 2.22802E-17
8.04378E-06 1.62227E-17
9.32888E-06 1.20897E-17
1.07092E-05 9.19224E-18
1.21846E-05 7.11255E-18
1.37553E-05 5.58878E-18
1.54212E-05 4.45187E-18
1.71822E-05 3.58976E-18
1.90385E-05 2.92602E-18
2.09899E-05 2.40971E-18
2.30365E-05 2.00227E-18
2.51783E-05 1.67723E-18
2.74153E-05 1.41539E-18
2.97475E-05 1.20262E-18
3.21749E-05 1.02837E-18
3.46974E-05 8.84587E-19
3.73152E-05 7.65125E-19
4.00281E-05 6.65202E-19
4.28362E-05 5.81089E-19
4.57395E-05 5.09861E-19
4.87380E-05 4.49210E-19
5.18317E-05 3.97302E-19
5.50205E-05 3.52672E-19
5.83045E-05 3.14132E-19
6.16838E-05 2.80719E-19
6.51582E-05 2.51638E-19
6.87277E-05 2.26234E-19
7.23925E-05 2.03961E-19
7.61524E-05 1.84445E-19
9.21439E-05 1.26098E-19
1.09658E-04 8.91089E-20
1.28695E-04 6.47521E-20
1.49255E-04 4.81786E-20
1.71338E-04 3.65893E-20
1.94942E-04 2.82860E-20
2.20070E-04 2.22119E-20
2.46720E-04 1.76856E-20
2.74892E-04 1.42565E-20
3.04586E-04 1.16206E-20
3.35803E-04 9.56721E-21
3.68542E-04 7.94848E-21
4.02802E-04 6.65844E-21
4.38585E-04 5.62008E-21
4.75889E-04 4.77675E-21
5.14715E-04 4.08598E-21
5.55063E-04 3.51587E-21
5.96931E-04 3.04191E-21
6.40321E-04 2.64532E-21
6.85233E-04 2.31137E-21
7.31665E-04 2.02858E-21
7.79618E-04 1.78780E-21
8.29092E-04 1.58176E-21
8.80086E-04 1.40460E-21
9.32601E-04 1.25160E-21
9.86636E-04 1.11890E-21
1.04219E-03 1.00336E-21
1.09927E-03 9.02375E-22
1.15786E-03 8.13799E-22
1.21797E-03 7.35846E-22
1.27961E-03 6.67014E-22
1.34276E-03 6.06062E-22
1.40743E-03 5.51923E-22
1.47362E-03 5.03703E-22
1.54133E-03 4.60644E-22
1.61056E-03 4.22094E-22
1.68131E-03 3.87498E-22
1.75357E-03 3.56380E-22
1.82735E-03 3.28326E-22
1.90265E-03 3.02982E-22
1.97947E-03 2.80040E-22
2.05780E-03 2.59230E-22
2.13765E-03 2.40319E-22
2.21902E-03 2.23102E-22
2.30190E-03 2.07402E-22
2.38630E-03 1.93059E-22
2.47222E-03 1.79935E-22
2.55965E-03 1.67909E-22
2.64859E-03 1.56870E-22
2.73905E-03 1.46725E-22
2.83103E-03 1.37387E-22
2.92452E-03 1.28779E-22
3.01952E-03 1.20836E-22
3.11604E-03 1.13495E-22
3.21407E-03 1.06704E-22
3.31362E-03 1.00412E-22
3.41468E-03 9.45774E-23
3.51725E-03 8.91601E-23
3.62133E-03 8.41248E-23
3.72692E-03 7.94396E-23
3.83403E-03 7.50758E-23
3.94265E-03 7.10072E-23
4.05278E-03 6.72101E-23
4.16442E-03 6.36630E-23
4.27757E-03 6.03465E-23
4.39223E-03 5.72428E-23
4.50840E-03 5.43356E-23
4.62608E-03 5.16103E-23
4.74527E-03 4.90533E-23
4.86597E-03 4.66524E-23
4.98817E-03 4.43961E-23
5.11188E-03 4.22742E-23
5.23711E-03 4.02772E-23
5.36383E-03 3.83963E-23
5.49207E-03 3.66235E-23
5.62181E-03 3.49515E-23
5.75306E-03 3.33735E-23
5.88581E-03 3.18832E-23
6.02007E-03 3.04748E-23
6.15583E-03 2.91429E-23
6.29310E-03 2.78827E-23
6.43187E-03 2.66895E-23
6.57214E-03 2.55591E-23
6.71392E-03 2.44876E-23
6.85720E-03 2.34714E-23
7.00198E-03 2.25070E-23
7.14827E-03 2.15914E-23
7.29605E-03 2.07215E-23
7.44534E-03 1.98947E-23
7.59612E-03 1.91085E-23
7.97965E-03 1.73051E-23
8.37255E-03 1.57081E-23
8.77480E-03 1.42897E-23
9.18641E-03 1.30264E-23
9.60736E-03 1.18985E-23
1.00376E-02 1.08888E-23
1.04773E-02 9.98287E-24
1.09262E-02 9.16817E-24
1.13844E-02 8.43391E-24
1.18520E-02 7.77076E-24
1.23288E-02 7.17065E-24
1.28150E-02 6.62654E-24
1.33104E-02 6.13229E-24
1.38150E-02 5.68253E-24
1.43290E-02 5.27256E-24
1.48521E-02 4.89825E-24
1.53845E-02 4.55596E-24
1.59262E-02 4.24247E-24
1.64770E-02 3.95493E-24
1.70371E-02 3.69083E-24
1.76063E-02 3.44791E-24
1.81848E-02 3.22419E-24
1.87724E-02 3.01789E-24
1.93692E-02 2.82740E-24
1.99751E-02 2.65132E-24
2.05901E-02 2.48836E-24
2.12143E-02 2.33738E-24
2.18476E-02 2.19734E-24
2.24900E-02 2.06732E-24
2.31415E-02 1.94647E-24
2.38021E-02 1.83404E-24
2.44717E-02 1.72934E-24
2.51504E-02 1.63174E-24
2.58382E-02 1.54069E-24
2.65349E-02 1.45567E-24
2.72407E-02 1.37621E-24
2.79555E-02 1.30189E-24
2.86793E-02 1.23232E-24
2.94120E-02 1.16714E-24
3.01537E-02 1.10603E-24
3.09043E-02 1.04869E-24
3.16639E-02 9.94861E-25
3.24324E-02 9.44279E-25
3.32098E-02 8.96721E-25
3.39961E-02 8.51975E-25
3.47912E-02 8.09848E-25
3.55952E-02 7.70162E-25
3.64081E-02 7.32751E-25
3.72297E-02 6.97464E-25
3.80602E-02 6.64162E-25
3.88995E-02 6.32713E-25
3.97476E-02 6.02999E-25
4.06044E-02 5.74909E-25
4.14700E-02 5.48339E-25
4.23443E-02 5.23194E-25
4.32273E-02 4.99386E-25
4.41190E-02 4.76832E-25
4.50194E-02 4.55456E-25
4.59284E-02 4.35187E-25
4.68461E-02 4.15959E-25
4.87074E-02 3.80380E-25
5.06030E-02 3.48277E-25
5.25328E-02 3.19260E-25
5.44967E-02 2.92990E-25
5.64946E-02 2.69172E-25
5.85262E-02 2.47544E-25
6.05914E-02 2.27877E-25
6.26901E-02 2.09969E-25
6.48222E-02 1.93643E-25
6.69873E-02 1.78739E-25
6.91854E-02 1.65117E-25
7.14163E-02 1.52653E-25
7.36799E-02 1.41236E-25
7.59760E-02 1.30767E-25
7.83043E-02 1.21157E-25
8.06647E-02 1.12328E-25
8.30571E-02 1.04207E-25
8.54812E-02 9.67323E-26
8.79369E-02 8.98455E-26
9.04240E-02 8.34954E-26
9.29422E-02 7.76353E-26
9.54915E-02 7.22232E-26
9.80716E-02 6.72212E-26
1.00682E-01 6.25948E-26
1.03323E-01 5.83129E-26
1.05995E-01 5.43471E-26
1.08696E-01 5.06718E-26
1.11427E-01 4.72637E-26
1.14188E-01 4.41013E-26
1.16978E-01 4.11652E-26
1.19797E-01 3.84379E-26
1.22645E-01 3.59030E-26
1.25522E-01 3.35458E-26
1.28428E-01 3.13528E-26
1.31361E-01 2.93116E-26
1.34323E-01 2.74107E-26
1.37313E-01 2.56398E-26
1.40330E-01 2.39892E-26
1.43375E-01 2.24503E-26
1.46447E-01 2.10147E-26
1.49545E-01 1.96752E-26
1.52671E-01 1.84248E-26
1.55823E-01 1.72572E-26
1.59001E-01 1.61666E-26
1.62205E-01 1.51474E-26
1.65435E-01 1.41949E-26
1.68690E-01 1.33043E-26
1.71970E-01 1.24714E-26
1.75276E-01 1.16922E-26
1.78606E-01 1.09631E-26
1.81961E-01 1.02807E-26
1.85340E-01 9.64190E-27
1.88743E-01 9.04369E-27
1.92169E-01 8.48342E-27
1.95619E-01 7.95857E-27
1.99092E-01 7.46680E-27
2.02589E-01 7.00594E-27
2.06107E-01 6.57397E-27
2.09649E-01 6.16901E-27
2.13212E-01 5.78932E-27
2.16797E-01 5.43326E-27
2.20404E-01 5.09931E-27
2.24032E-01 4.78606E-27
2.27680E-01 4.49220E-27
2.31350E-01 4.21648E-27
2.35040E-01 3.95775E-27
2.38751E-01 3.71496E-27
2.42481E-01 3.48708E-27
2.46231E-01 3.27320E-27
2.50000E-01 3.07242E-27
2.53788E-01 2.88395E-27
2.57595E-01 2.70700E-27
2.61421E-01 2.54086E-27
2.65264E-01 2.38488E-27
2.69126E-01 2.23841E-27
2.73005E-01 2.10087E-27
2.76901E-01 1.97172E-27
2.80814E-01 1.85043E-27
2.84744E-01 1.73653E-27
2.88691E-01 1.62957E-27
2.92653E-01 1.52912E-27
2.96632E-01 1.43478E-27
3.00625E-01 1.34619E-27
3.04634E-01 1.26299E-27
3.08658E-01 1.18486E-27
3.12697E-01 1.11148E-27
3.16749E-01 1.04258E-27
3.20816E-01 9.77875E-28
3.24896E-01 9.17117E-28
3.28990E-01 8.60067E-28
3.33097E-01 8.06500E-28
3.37216E-01 7.56206E-28
3.41348E-01 7.08988E-28
3.45492E-01 6.64661E-28
3.49647E-01 6.23049E-28
3.53814E-01 5.83989E-28
3.57992E-01 5.47328E-28
3.62181E-01 5.12921E-28
3.66381E-01 4.80631E-28
3.70590E-01 4.50331E-28
3.74810E-01 4.21901E-28
3.79039E-01 3.95228E-28
3.83277E-01 3.70206E-28
3.87524E-01 3.46735E-28
3.91780E-01 3.24721E-28
3.96044E-01 3.04077E-28
4.00316E-01 2.84718E-28
4.04596E-01 2.66569E-28
4.08882E-01 2.49554E-28
4.13176E-01 2.33605E-28
4.17476E-01 2.18657E-28
4.21783E-01 2.04650E-28
4.26095E-01 1.91525E-28
4.30413E-01 1.79230E-28
4.34737E-01 1.67713E-28
4.39065E-01 1.56927E-28
4.43398E-01 1.46826E-28
4.47736E-01 1.37369E-28
4.52077E-01 1.28517E-28
4.56422E-01 1.20231E-28
4.60770E-01 1.12477E-28
4.65122E-01 1.05222E-28
4.69476E-01 9.84354E-29
4.73832E-01 9.20874E-29
4.78190E-01 8.61510E-29
4.82550E-01 8.06004E-29
4.86912E-01 7.54116E-29
4.91274E-01 7.05618E-29
4.95637E-01 6.60297E-29
5.00000E-01 6.17952E-29
5.04363E-01 5.78396E-29
5.08726E-01 5.41451E-29
5.13088E-01 5.06952E-29
5.17450E-01 4.74742E-29
5.21810E-01 4.44676E-29
5.26168E-01 4.16615E-29
5.30524E-01 3.90430E-29
5.34878E-01 3.66001E-29
5.39230E-01 3.43214E-29
5.43578E-01 3.21961E-29
5.47923E-01 3.02144E-29
5.52264E-01 2.83667E-29
5.56602E-01 2.66443E-29
5.60935E-01 2.50390E-29
5.65263E-01 2.35429E-29
5.69587E-01 2.21489E-29
5.73905E-01 2.08501E-29
5.78217E-01 1.96402E-29
5.82524E-01 1.85131E-29
5.86824E-01 1.74634E-29
5.91118E-01 1.64857E-29
5.95404E-01 1.55751E-29
5.99684E-01 1.47272E-29
6.03956E-01 1.39375E-29
6.08220E-01 1.32020E-29
6.12476E-01 1.25171E-29
6.16723E-01 1.18791E-29
6.20961E-01 1.12848E-29
6.25190E-01 1.07312E-29
6.29410E-01 1.02154E-29
6.33619E-01 9.73464E-30
6.37819E-01 9.28650E-30
6.42008E-01 8.86862E-30
6.46186E-01 8.47884E-30
6.50353E-01 8.11512E-30
6.54508E-01 7.77557E-30
6.58652E-01 7.45843E-30
6.62784E-01 7.16206E-30
6.66903E-01 6.88492E-30
6.71010E-01 6.62560E-30
6.75104E-01 6.38276E-30
6.79184E-01 6.15518E-30
6.83251E-01 5.94172E-30
6.87303E-01 5.74130E-30
6.91342E-01 5.55293E-30
6.95366E-01 5.37571E-30
6.99375E-01 5.20877E-30
7.03368E-01 5.05133E-30
7.07347E-01 4.90266E-30
7.11309E-01 4.76208E-30
7.15256E-01 4.62895E-30
7.19186E-01 4.50270E-30
7.23099E-01 4.38280E-30
7.26995E-01 4.26873E-30
7.30874E-01 4.16006E-30
7.34736E-01 4.05634E-30
7.38579E-01 3.95720E-30
7.42405E-01 3.86227E-30
7.46212E-01 3.77122E-30
7.50000E-01 3.68374E-30
7.53769E-01 3.59956E-30
7.57519E-01 3.51842E-30
7.61249E-01 3.44009E-30
7.64960E-01 3.36433E-30
7.68650E-01 3.29097E-30
7.72320E-01 3.21981E-30
7.75968E-01 3.15069E-30
7.79596E-01 3.08346E-30
7.83203E-01 3.01798E-30
7.86788E-01 2.95413E-30
7.90351E-01 2.89178E-30
7.93893E-01 2.83084E-30
7.97411E-01 2.77122E-30
8.00908E-01 2.71282E-30
8.04381E-01 2.65557E-30
8.07831E-01 2.59940E-30
8.11257E-01 2.54425E-30
8.14660E-01 2.49006E-30
8.18039E-01 2.43678E-30
8.21394E-01 2.38436E-30
8.24724E-01 2.33277E-30
8.28030E-01 2.28197E-30
8.31310E-01 2.23192E-30
8.34565E-01 2.18260E-30
8.37795E-01 2.13399E-30
8.40999E-01 2.08606E-30
8.44177E-01 2.03878E-30
8.47329E-01 1.99215E-30
8.50455E-01 1.94616E-30
8.53553E-01 1.90077E-30
8.56625E-01 1.85600E-30
8.59670E-01 1.81182E-30
8.62687E-01 1.76823E-30
8.65677E-01 1.72522E-30
8.68639E-01 1.68278E-30
8.71572E-01 1.64092E-30
8.74478E-01 1.59962E-30
8.77355E-01 1.55889E-30
8.80203E-01 1.51872E-30
8.83022E-01 1.47911E-30
8.85812E-01 1.44005E-30
8.88573E-01 1.40156E-30
8.91304E-01 1.36361E-30
8.94005E-01 1.32623E-30
8.96677E-01 1.28939E-30
8.99318E-01 1.25312E-30
9.01928E-01 1.21739E-30
9.04508E-01 1.18222E-30
9.07058E-01 1.14760E-30
9.09576E-01 1.11354E-30
9.12063E-01 1.08003E-30
9.14519E-01 1.04707E-30
9.16943E-01 1.01466E-30
9.19335E-01 9.82810E-31
9.21696E-01 9.51508E-31
9.24024E-01 9.20758E-31
9.26320E-01 8.90558E-31
9.28584E-01 8.60907E-31
9.30815E-01 8.31805E-31
9.33013E-01 8.03251E-31
9.35178E-01 7.75243E-31
9.37310E-01 7.47779E-31
9.39409E-01 7.20859E-31
9.41474E-01 6.94480E-31
9.43505E-01 6.68641E-31
9.45503E-01 6.43340E-31
9.47467E-01 6.18575E-31
9.49397E-01 5.94343E-31
9.51293E-01 5.70643E-31
9.53154E-01 5.47472E-31
9.54981E-01 5.24827E-31
9.56773E-01 5.02706E-31
9.58530E-01 4.81106E-31
9.60252E-01 4.60024E-31
9.61940E-01 4.39458E-31
9.63592E-01 4.19404E-31
9.65209E-01 3.99861E-31
9.66790E-01 3.80823E-31
9.68336E-01 3.62290E-31
9.69846E-01 3.44257E-31
9.71321E-01 3.26721E-31
9.72759E-01 3.09679E-31
9.74162E-01 2.93128E-31
9.75528E-01 2.77066E-31
9.76858E-01 2.61487E-31
9.78152E-01 2.46390E-31
9.79410E-01 2.31772E-31
9.80631E-01 2.17629E-31
9.81815E-01 2.03957E-31
9.82963E-01 1.90755E-31
9.84074E-01 1.78019E-31
9.85148E-01 1.65745E-31
9.86185E-01 1.53931E-31
9.87185E-01 1.42575E-31
9.88148E-01 1.31673E-31
9.89074E-01 1.21222E-31
9.89962E-01 1.11220E-31
9.90814E-01 1.01664E-31
9.91627E-01 9.25513E-32
9.92404E-01 8.38801E-32
9.93143E-01 7.56475E-32
9.93844E-01 6.78515E-32
9.94508E-01 6.04897E-32
9.95134E-01 5.35602E-32
9.95722E-01 4.70608E-32
9.96273E-01 4.09898E-32
9.96786E-01 3.53453E-32
9.97261E-01 3.01258E-32
9.97698E-01 2.53296E-32
9.98097E-01 2.09553E-32
9.98459E-01 1.70016E-32
9.98782E-01 1.34673E-32
9.99067E-01 1.03514E-32
9.99315E-01 7.65289E-33
9.99524E-01 5.37093E-33
9.99695E-01 3.50482E-33
9.99829E-01 2.05401E-33
9.99924E-01 1.01803E-33
9.99981E-01 3.96579E-34
1.00000E+00 1.89450E-34
