 #
 # Subroutine ELSEPA. Elastic scattering of electrons and positrons
 #                    by neutral atoms and positive ions
 #
 # Projectile: electron
 # Kinetic energy = 6.00000E+07 eV = 2.20496E+06 a.u.
 #
 # WARNING: High-energy factorization with free-atom DF screening.
 #          Absorption, polarization and exchange corrections are
 #          switched off.
 #          Phase shifts are calculated for the bare nucleus.
 #          Scattering amplitudes are not evaluated.
 #
 # Element: Nb,  Z =  41,  atomic weight = 9.29064E+01 g/mol
 #
 # Nuclear model: Fermi distribution
 #                Average radius = 4.84617E-13 cm
 #                Skin thickness = 5.46000E-14 cm
 #
 # Number of electrons = 41
 #
 # Total elastic cross section = 3.98742E-18 cm**2 = 1.42393E-01 a0**2
 # 1st transport cross section = 9.16411E-25 cm**2 = 3.27256E-08 a0**2
 # 2nd transport cross section = 2.69789E-24 cm**2 = 9.63433E-08 a0**2
 #
 #
 # Differential cross section:                       MU=(1-COS(THETA))/2
 #
 #  THETA        MU          DCS          DCS        Sherman      error
 #  (deg)                 (cm**2/sr)   (a0**2/sr)    function
 #----------------------------------------------------------------------
0.00000E+00 1.57527E-10
7.61557E-13 1.57331E-10
1.18994E-12 1.57221E-10
1.71346E-12 1.57087E-10
2.33225E-12 1.56930E-10
3.04617E-12 1.56748E-10
3.85530E-12 1.56542E-10
4.75964E-12 1.56313E-10
5.75917E-12 1.56061E-10
6.85391E-12 1.55785E-10
8.04379E-12 1.55487E-10
9.32893E-12 1.55165E-10
1.07092E-11 1.54821E-10
1.21847E-11 1.54455E-10
1.37554E-11 1.54067E-10
1.54213E-11 1.53657E-10
1.71823E-11 1.53225E-10
1.90386E-11 1.52773E-10
2.09900E-11 1.52300E-10
2.30367E-11 1.51806E-10
2.51785E-11 1.51293E-10
2.74156E-11 1.50760E-10
2.97478E-11 1.50207E-10
3.21752E-11 1.49636E-10
3.46979E-11 1.49047E-10
3.73157E-11 1.48439E-10
4.00286E-11 1.47814E-10
4.28368E-11 1.47171E-10
4.57402E-11 1.46512E-10
4.87388E-11 1.45837E-10
5.18325E-11 1.45146E-10
5.50215E-11 1.44439E-10
5.83057E-11 1.43718E-10
6.16850E-11 1.42982E-10
6.51595E-11 1.42231E-10
6.87293E-11 1.41467E-10
7.23943E-11 1.40690E-10
7.61544E-11 1.39901E-10
1.18991E-10 1.31431E-10
1.71347E-10 1.22232E-10
2.33223E-10 1.12736E-10
3.04617E-10 1.03301E-10
3.85531E-10 9.41957E-11
4.75965E-10 8.56044E-11
5.75917E-10 7.76337E-11
6.85389E-10 7.03358E-11
8.04380E-10 6.37160E-11
9.32891E-10 5.77503E-11
1.07092E-09 5.23966E-11
1.21847E-09 4.76037E-11
1.37554E-09 4.33172E-11
1.54213E-09 3.94836E-11
1.71823E-09 3.60522E-11
1.90386E-09 3.29739E-11
2.09900E-09 3.02077E-11
2.30367E-09 2.77192E-11
2.51785E-09 2.54759E-11
2.74156E-09 2.34494E-11
2.97478E-09 2.16149E-11
3.21752E-09 1.99511E-11
3.46978E-09 1.84389E-11
3.73156E-09 1.70623E-11
4.00286E-09 1.58068E-11
4.28368E-09 1.46581E-11
4.57402E-09 1.36072E-11
4.87388E-09 1.26446E-11
5.18326E-09 1.17620E-11
5.50215E-09 1.09517E-11
5.83057E-09 1.02069E-11
6.16850E-09 9.52159E-12
6.51596E-09 8.85916E-12
6.87293E-09 8.24751E-12
7.23942E-09 7.69484E-12
7.61544E-09 7.19438E-12
1.18991E-08 3.92039E-12
1.71347E-08 2.31808E-12
2.33223E-08 1.47364E-12
3.04617E-08 9.93424E-13
3.85531E-08 6.99835E-13
4.75965E-08 5.08686E-13
5.75917E-08 3.77924E-13
6.85389E-08 2.85789E-13
8.04380E-08 2.19266E-13
9.32891E-08 1.70367E-13
1.07092E-07 1.33920E-13
1.21847E-07 1.06436E-13
1.37554E-07 8.54915E-14
1.54213E-07 6.93798E-14
1.71823E-07 5.68359E-14
1.90386E-07 4.69911E-14
2.09900E-07 3.91980E-14
2.30367E-07 3.29718E-14
2.51785E-07 2.79493E-14
2.74156E-07 2.38602E-14
2.97478E-07 2.05020E-14
3.21752E-07 1.77221E-14
3.46978E-07 1.54039E-14
3.73156E-07 1.34579E-14
4.00286E-07 1.18138E-14
4.28368E-07 1.04160E-14
4.57402E-07 9.22099E-15
4.87388E-07 8.19382E-15
5.18325E-07 7.30640E-15
5.50215E-07 6.53613E-15
5.83057E-07 5.86471E-15
6.16850E-07 5.27721E-15
6.51596E-07 4.75899E-15
6.87293E-07 4.30339E-15
7.23942E-07 3.90270E-15
7.61543E-07 3.54851E-15
1.18991E-06 1.51198E-15
1.71347E-06 7.44974E-16
2.33223E-06 4.07553E-16
3.04617E-06 2.41265E-16
3.85531E-06 1.51829E-16
4.75964E-06 1.00301E-16
5.75916E-06 6.89180E-17
6.85388E-06 4.89162E-17
8.04378E-06 3.56768E-17
9.32888E-06 2.66301E-17
1.07092E-05 2.02781E-17
1.21846E-05 1.57119E-17
1.37553E-05 1.23612E-17
1.54212E-05 9.85752E-18
1.71822E-05 7.95654E-18
1.90385E-05 6.49117E-18
2.09899E-05 5.35001E-18
2.30365E-05 4.44855E-18
2.51783E-05 3.72872E-18
2.74153E-05 3.14837E-18
2.97475E-05 2.67644E-18
3.21749E-05 2.28964E-18
3.46974E-05 1.97031E-18
3.73152E-05 1.70483E-18
4.00281E-05 1.48266E-18
4.28362E-05 1.29555E-18
4.57395E-05 1.13705E-18
4.87380E-05 1.00202E-18
5.18317E-05 8.86426E-19
5.50205E-05 7.87002E-19
5.83045E-05 7.01123E-19
6.16838E-05 6.26648E-19
6.51582E-05 5.61813E-19
6.87277E-05 5.05164E-19
7.23925E-05 4.55486E-19
7.61524E-05 4.11872E-19
9.21439E-05 2.81678E-19
1.09658E-04 1.99103E-19
1.28695E-04 1.44707E-19
1.49255E-04 1.07684E-19
1.71338E-04 8.17896E-20
1.94942E-04 6.32344E-20
2.20070E-04 4.96590E-20
2.46720E-04 3.95420E-20
2.74892E-04 3.18768E-20
3.04586E-04 2.59843E-20
3.35803E-04 2.13936E-20
3.68542E-04 1.77747E-20
4.02802E-04 1.48904E-20
4.38585E-04 1.25689E-20
4.75889E-04 1.06833E-20
5.14715E-04 9.13877E-21
5.55063E-04 7.86399E-21
5.96931E-04 6.80426E-21
6.40321E-04 5.91744E-21
6.85233E-04 5.17073E-21
7.31665E-04 4.53837E-21
7.79618E-04 3.99996E-21
8.29092E-04 3.53920E-21
8.80086E-04 3.14305E-21
9.32601E-04 2.80090E-21
9.86636E-04 2.50415E-21
1.04219E-03 2.24577E-21
1.09927E-03 2.01993E-21
1.15786E-03 1.82183E-21
1.21797E-03 1.64749E-21
1.27961E-03 1.49355E-21
1.34276E-03 1.35722E-21
1.40743E-03 1.23613E-21
1.47362E-03 1.12828E-21
1.54133E-03 1.03196E-21
1.61056E-03 9.45730E-22
1.68131E-03 8.68340E-22
1.75357E-03 7.98724E-22
1.82735E-03 7.35966E-22
1.90265E-03 6.79264E-22
1.97947E-03 6.27932E-22
2.05780E-03 5.81373E-22
2.13765E-03 5.39057E-22
2.21902E-03 5.00533E-22
2.30190E-03 4.65399E-22
2.38630E-03 4.33299E-22
2.47222E-03 4.03928E-22
2.55965E-03 3.77010E-22
2.64859E-03 3.52301E-22
2.73905E-03 3.29592E-22
2.83103E-03 3.08683E-22
2.92452E-03 2.89414E-22
3.01952E-03 2.71627E-22
3.11604E-03 2.55189E-22
3.21407E-03 2.39980E-22
3.31362E-03 2.25889E-22
3.41468E-03 2.12820E-22
3.51725E-03 2.00684E-22
3.62133E-03 1.89404E-22
3.72692E-03 1.78907E-22
3.83403E-03 1.69128E-22
3.94265E-03 1.60010E-22
4.05278E-03 1.51500E-22
4.16442E-03 1.43549E-22
4.27757E-03 1.36114E-22
4.39223E-03 1.29155E-22
4.50840E-03 1.22636E-22
4.62608E-03 1.16524E-22
4.74527E-03 1.10789E-22
4.86597E-03 1.05403E-22
4.98817E-03 1.00341E-22
5.11188E-03 9.55793E-23
5.23711E-03 9.10975E-23
5.36383E-03 8.68758E-23
5.49207E-03 8.28962E-23
5.62181E-03 7.91423E-23
5.75306E-03 7.55987E-23
5.88581E-03 7.22515E-23
6.02007E-03 6.90878E-23
6.15583E-03 6.60956E-23
6.29310E-03 6.32638E-23
6.43187E-03 6.05822E-23
6.57214E-03 5.80414E-23
6.71392E-03 5.56324E-23
6.85720E-03 5.33473E-23
7.00198E-03 5.11784E-23
7.14827E-03 4.91186E-23
7.29605E-03 4.71615E-23
7.44534E-03 4.53010E-23
7.59612E-03 4.35313E-23
7.97965E-03 3.94709E-23
8.37255E-03 3.58731E-23
8.77480E-03 3.26759E-23
9.18641E-03 2.98269E-23
9.60736E-03 2.72816E-23
1.00376E-02 2.50017E-23
1.04773E-02 2.29548E-23
1.09262E-02 2.11127E-23
1.13844E-02 1.94514E-23
1.18520E-02 1.79500E-23
1.23288E-02 1.65903E-23
1.28150E-02 1.53565E-23
1.33104E-02 1.42349E-23
1.38150E-02 1.32135E-23
1.43290E-02 1.22817E-23
1.48521E-02 1.14302E-23
1.53845E-02 1.06509E-23
1.59262E-02 9.93649E-24
1.64770E-02 9.28064E-24
1.70371E-02 8.67768E-24
1.76063E-02 8.12256E-24
1.81848E-02 7.61081E-24
1.87724E-02 7.13841E-24
1.93692E-02 6.70180E-24
1.99751E-02 6.29777E-24
2.05901E-02 5.92344E-24
2.12143E-02 5.57625E-24
2.18476E-02 5.25386E-24
2.24900E-02 4.95418E-24
2.31415E-02 4.67531E-24
2.38021E-02 4.41556E-24
2.44717E-02 4.17337E-24
2.51504E-02 3.94734E-24
2.58382E-02 3.73620E-24
2.65349E-02 3.53878E-24
2.72407E-02 3.35403E-24
2.79555E-02 3.18100E-24
2.86793E-02 3.01880E-24
2.94120E-02 2.86663E-24
3.01537E-02 2.72376E-24
3.09043E-02 2.58952E-24
3.16639E-02 2.46329E-24
3.24324E-02 2.34451E-24
3.32098E-02 2.23266E-24
3.39961E-02 2.12726E-24
3.47912E-02 2.02787E-24
3.55952E-02 1.93409E-24
3.64081E-02 1.84555E-24
3.72297E-02 1.76189E-24
3.80602E-02 1.68281E-24
3.88995E-02 1.60800E-24
3.97476E-02 1.53720E-24
4.06044E-02 1.47014E-24
4.14700E-02 1.40661E-24
4.23443E-02 1.34637E-24
4.32273E-02 1.28923E-24
4.41190E-02 1.23500E-24
4.50194E-02 1.18350E-24
4.59284E-02 1.13458E-24
4.68461E-02 1.08808E-24
4.87074E-02 1.00179E-24
5.06030E-02 9.23611E-25
5.25328E-02 8.52654E-25
5.44967E-02 7.88143E-25
5.64946E-02 7.29395E-25
5.85262E-02 6.75811E-25
6.05914E-02 6.26862E-25
6.26901E-02 5.82082E-25
6.48222E-02 5.41058E-25
6.69873E-02 5.03424E-25
6.91854E-02 4.68855E-25
7.14163E-02 4.37060E-25
7.36799E-02 4.07783E-25
7.59760E-02 3.80791E-25
7.83043E-02 3.55879E-25
8.06647E-02 3.32860E-25
8.30571E-02 3.11568E-25
8.54812E-02 2.91854E-25
8.79369E-02 2.73582E-25
9.04240E-02 2.56631E-25
9.29422E-02 2.40891E-25
9.54915E-02 2.26262E-25
9.80716E-02 2.12653E-25
1.00682E-01 1.99984E-25
1.03323E-01 1.88178E-25
1.05995E-01 1.77170E-25
1.08696E-01 1.66897E-25
1.11427E-01 1.57303E-25
1.14188E-01 1.48336E-25
1.16978E-01 1.39950E-25
1.19797E-01 1.32101E-25
1.22645E-01 1.24751E-25
1.25522E-01 1.17863E-25
1.28428E-01 1.11405E-25
1.31361E-01 1.05345E-25
1.34323E-01 9.96556E-26
1.37313E-01 9.43115E-26
1.40330E-01 8.92887E-26
1.43375E-01 8.45653E-26
1.46447E-01 8.01213E-26
1.49545E-01 7.59378E-26
1.52671E-01 7.19976E-26
1.55823E-01 6.82849E-26
1.59001E-01 6.47847E-26
1.62205E-01 6.14835E-26
1.65435E-01 5.83686E-26
1.68690E-01 5.54280E-26
1.71970E-01 5.26510E-26
1.75276E-01 5.00272E-26
1.78606E-01 4.75474E-26
1.81961E-01 4.52026E-26
1.85340E-01 4.29846E-26
1.88743E-01 4.08858E-26
1.92169E-01 3.88991E-26
1.95619E-01 3.70179E-26
1.99092E-01 3.52358E-26
2.02589E-01 3.35472E-26
2.06107E-01 3.19466E-26
2.09649E-01 3.04289E-26
2.13212E-01 2.89894E-26
2.16797E-01 2.76236E-26
2.20404E-01 2.63274E-26
2.24032E-01 2.50969E-26
2.27680E-01 2.39284E-26
2.31350E-01 2.28185E-26
2.35040E-01 2.17640E-26
2.38751E-01 2.07618E-26
2.42481E-01 1.98091E-26
2.46231E-01 1.89033E-26
2.50000E-01 1.80418E-26
2.53788E-01 1.72222E-26
2.57595E-01 1.64424E-26
2.61421E-01 1.57003E-26
2.65264E-01 1.49938E-26
2.69126E-01 1.43211E-26
2.73005E-01 1.36805E-26
2.76901E-01 1.30702E-26
2.80814E-01 1.24889E-26
2.84744E-01 1.19349E-26
2.88691E-01 1.14069E-26
2.92653E-01 1.09035E-26
2.96632E-01 1.04236E-26
3.00625E-01 9.96602E-27
3.04634E-01 9.52955E-27
3.08658E-01 9.11318E-27
3.12697E-01 8.71593E-27
3.16749E-01 8.33686E-27
3.20816E-01 7.97507E-27
3.24896E-01 7.62974E-27
3.28990E-01 7.30006E-27
3.33097E-01 6.98527E-27
3.37216E-01 6.68467E-27
3.41348E-01 6.39757E-27
3.45492E-01 6.12333E-27
3.49647E-01 5.86133E-27
3.53814E-01 5.61101E-27
3.57992E-01 5.37181E-27
3.62181E-01 5.14320E-27
3.66381E-01 4.92470E-27
3.70590E-01 4.71582E-27
3.74810E-01 4.51614E-27
3.79039E-01 4.32521E-27
3.83277E-01 4.14264E-27
3.87524E-01 3.96804E-27
3.91780E-01 3.80104E-27
3.96044E-01 3.64131E-27
4.00316E-01 3.48850E-27
4.04596E-01 3.34231E-27
4.08882E-01 3.20243E-27
4.13176E-01 3.06858E-27
4.17476E-01 2.94049E-27
4.21783E-01 2.81790E-27
4.26095E-01 2.70056E-27
4.30413E-01 2.58825E-27
4.34737E-01 2.48073E-27
4.39065E-01 2.37780E-27
4.43398E-01 2.27924E-27
4.47736E-01 2.18487E-27
4.52077E-01 2.09451E-27
4.56422E-01 2.00797E-27
4.60770E-01 1.92510E-27
4.65122E-01 1.84572E-27
4.69476E-01 1.76968E-27
4.73832E-01 1.69685E-27
4.78190E-01 1.62708E-27
4.82550E-01 1.56024E-27
4.86912E-01 1.49621E-27
4.91274E-01 1.43485E-27
4.95637E-01 1.37606E-27
5.00000E-01 1.31972E-27
5.04363E-01 1.26574E-27
5.08726E-01 1.21400E-27
5.13088E-01 1.16441E-27
5.17450E-01 1.11689E-27
5.21810E-01 1.07134E-27
5.26168E-01 1.02768E-27
5.30524E-01 9.85831E-28
5.34878E-01 9.45712E-28
5.39230E-01 9.07252E-28
5.43578E-01 8.70381E-28
5.47923E-01 8.35031E-28
5.52264E-01 8.01138E-28
5.56602E-01 7.68642E-28
5.60935E-01 7.37483E-28
5.65263E-01 7.07606E-28
5.69587E-01 6.78956E-28
5.73905E-01 6.51481E-28
5.78217E-01 6.25134E-28
5.82524E-01 5.99867E-28
5.86824E-01 5.75634E-28
5.91118E-01 5.52393E-28
5.95404E-01 5.30103E-28
5.99684E-01 5.08723E-28
6.03956E-01 4.88216E-28
6.08220E-01 4.68545E-28
6.12476E-01 4.49677E-28
6.16723E-01 4.31578E-28
6.20961E-01 4.14215E-28
6.25190E-01 3.97559E-28
6.29410E-01 3.81580E-28
6.33619E-01 3.66251E-28
6.37819E-01 3.51544E-28
6.42008E-01 3.37434E-28
6.46186E-01 3.23897E-28
6.50353E-01 3.10908E-28
6.54508E-01 2.98446E-28
6.58652E-01 2.86488E-28
6.62784E-01 2.75014E-28
6.66903E-01 2.64004E-28
6.71010E-01 2.53439E-28
6.75104E-01 2.43301E-28
6.79184E-01 2.33572E-28
6.83251E-01 2.24236E-28
6.87303E-01 2.15276E-28
6.91342E-01 2.06677E-28
6.95366E-01 1.98425E-28
6.99375E-01 1.90505E-28
7.03368E-01 1.82904E-28
7.07347E-01 1.75608E-28
7.11309E-01 1.68606E-28
7.15256E-01 1.61885E-28
7.19186E-01 1.55433E-28
7.23099E-01 1.49241E-28
7.26995E-01 1.43297E-28
7.30874E-01 1.37591E-28
7.34736E-01 1.32113E-28
7.38579E-01 1.26855E-28
7.42405E-01 1.21807E-28
7.46212E-01 1.16961E-28
7.50000E-01 1.12309E-28
7.53769E-01 1.07842E-28
7.57519E-01 1.03553E-28
7.61249E-01 9.94360E-29
7.64960E-01 9.54827E-29
7.68650E-01 9.16867E-29
7.72320E-01 8.80419E-29
7.75968E-01 8.45419E-29
7.79596E-01 8.11811E-29
7.83203E-01 7.79537E-29
7.86788E-01 7.48544E-29
7.90351E-01 7.18780E-29
7.93893E-01 6.90196E-29
7.97411E-01 6.62742E-29
8.00908E-01 6.36375E-29
8.04381E-01 6.11051E-29
8.07831E-01 5.86726E-29
8.11257E-01 5.63361E-29
8.14660E-01 5.40918E-29
8.18039E-01 5.19358E-29
8.21394E-01 4.98648E-29
8.24724E-01 4.78751E-29
8.28030E-01 4.59637E-29
8.31310E-01 4.41272E-29
8.34565E-01 4.23628E-29
8.37795E-01 4.06675E-29
8.40999E-01 3.90385E-29
8.44177E-01 3.74732E-29
8.47329E-01 3.59691E-29
8.50455E-01 3.45236E-29
8.53553E-01 3.31345E-29
8.56625E-01 3.17995E-29
8.59670E-01 3.05164E-29
8.62687E-01 2.92832E-29
8.65677E-01 2.80978E-29
8.68639E-01 2.69584E-29
8.71572E-01 2.58631E-29
8.74478E-01 2.48102E-29
8.77355E-01 2.37979E-29
8.80203E-01 2.28247E-29
8.83022E-01 2.18891E-29
8.85812E-01 2.09895E-29
8.88573E-01 2.01245E-29
8.91304E-01 1.92927E-29
8.94005E-01 1.84928E-29
8.96677E-01 1.77237E-29
8.99318E-01 1.69840E-29
9.01928E-01 1.62726E-29
9.04508E-01 1.55883E-29
9.07058E-01 1.49303E-29
9.09576E-01 1.42973E-29
9.12063E-01 1.36885E-29
9.14519E-01 1.31028E-29
9.16943E-01 1.25394E-29
9.19335E-01 1.19975E-29
9.21696E-01 1.14762E-29
9.24024E-01 1.09746E-29
9.26320E-01 1.04921E-29
9.28584E-01 1.00279E-29
9.30815E-01 9.58136E-30
9.33013E-01 9.15172E-30
9.35178E-01 8.73838E-30
9.37310E-01 8.34071E-30
9.39409E-01 7.95813E-30
9.41474E-01 7.59006E-30
9.43505E-01 7.23598E-30
9.45503E-01 6.89534E-30
9.47467E-01 6.56767E-30
9.49397E-01 6.25247E-30
9.51293E-01 5.94929E-30
9.53154E-01 5.65768E-30
9.54981E-01 5.37724E-30
9.56773E-01 5.10756E-30
9.58530E-01 4.84825E-30
9.60252E-01 4.59893E-30
9.61940E-01 4.35927E-30
9.63592E-01 4.12891E-30
9.65209E-01 3.90754E-30
9.66790E-01 3.69485E-30
9.68336E-01 3.49053E-30
9.69846E-01 3.29430E-30
9.71321E-01 3.10590E-30
9.72759E-01 2.92506E-30
9.74162E-01 2.75154E-30
9.75528E-01 2.58509E-30
9.76858E-01 2.42549E-30
9.78152E-01 2.27253E-30
9.79410E-01 2.12600E-30
9.80631E-01 1.98570E-30
9.81815E-01 1.85144E-30
9.82963E-01 1.72305E-30
9.84074E-01 1.60035E-30
9.85148E-01 1.48318E-30
9.86185E-01 1.37140E-30
9.87185E-01 1.26484E-30
9.88148E-01 1.16338E-30
9.89074E-01 1.06687E-30
9.89962E-01 9.75200E-31
9.90814E-01 8.88246E-31
9.91627E-01 8.05895E-31
9.92404E-01 7.28043E-31
9.93143E-01 6.54589E-31
9.93844E-01 5.85440E-31
9.94508E-01 5.20508E-31
9.95134E-01 4.59710E-31
9.95722E-01 4.02969E-31
9.96273E-01 3.50214E-31
9.96786E-01 3.01378E-31
9.97261E-01 2.56400E-31
9.97698E-01 2.15224E-31
9.98097E-01 1.77797E-31
9.98459E-01 1.44074E-31
9.98782E-01 1.14012E-31
9.99067E-01 8.75745E-32
9.99315E-01 6.47275E-32
9.99524E-01 4.54431E-32
9.99695E-01 2.96975E-32
9.99829E-01 1.74711E-32
9.99924E-01 8.74865E-33
9.99981E-01 3.51954E-33
1.00000E+00 1.77721E-33
