 #
 # Subroutine ELSEPA. Elastic scattering of electrons and positrons
 #                    by neutral atoms and positive ions
 #
 # Projectile: electron
 # Kinetic energy = 9.00000E+06 eV = 3.30744E+05 a.u.
 #
 # WARNING: High-energy factorization with free-atom DF screening.
 #          Absorption, polarization and exchange corrections are
 #          switched off.
 #          Phase shifts are calculated for the bare nucleus.
 #          Scattering amplitudes are not evaluated.
 #
 # Element: Nb,  Z =  41,  atomic weight = 9.29064E+01 g/mol
 #
 # Nuclear model: Fermi distribution
 #                Average radius = 4.84617E-13 cm
 #                Skin thickness = 5.46000E-14 cm
 #
 # Number of electrons = 41
 #
 # Total elastic cross section = 4.00114E-18 cm**2 = 1.42883E-01 a0**2
 # 1st transport cross section = 3.18817E-23 cm**2 = 1.13852E-06 a0**2
 # 2nd transport cross section = 9.02461E-23 cm**2 = 3.22275E-06 a0**2
 #
 #
 # Differential cross section:                       MU=(1-COS(THETA))/2
 #
 #  THETA        MU          DCS          DCS        Sherman      error
 #  (deg)                 (cm**2/sr)   (a0**2/sr)    function
 #----------------------------------------------------------------------
0.00000E+00 3.89168E-12
7.61557E-13 3.89156E-12
1.18994E-12 3.89150E-12
1.71346E-12 3.89141E-12
2.33225E-12 3.89132E-12
3.04617E-12 3.89121E-12
3.85530E-12 3.89108E-12
4.75964E-12 3.89094E-12
5.75917E-12 3.89078E-12
6.85391E-12 3.89061E-12
8.04379E-12 3.89043E-12
9.32893E-12 3.89022E-12
1.07092E-11 3.89001E-12
1.21847E-11 3.88978E-12
1.37554E-11 3.88953E-12
1.54213E-11 3.88927E-12
1.71823E-11 3.88900E-12
1.90386E-11 3.88871E-12
2.09900E-11 3.88841E-12
2.30367E-11 3.88809E-12
2.51785E-11 3.88775E-12
2.74156E-11 3.88740E-12
2.97478E-11 3.88704E-12
3.21752E-11 3.88666E-12
3.46979E-11 3.88627E-12
3.73157E-11 3.88586E-12
4.00286E-11 3.88544E-12
4.28368E-11 3.88500E-12
4.57402E-11 3.88455E-12
4.87388E-11 3.88409E-12
5.18325E-11 3.88361E-12
5.50215E-11 3.88311E-12
5.83057E-11 3.88260E-12
6.16850E-11 3.88208E-12
6.51595E-11 3.88154E-12
6.87293E-11 3.88098E-12
7.23943E-11 3.88041E-12
7.61544E-11 3.87983E-12
1.18991E-10 3.87319E-12
1.71347E-10 3.86511E-12
2.33223E-10 3.85559E-12
3.04617E-10 3.84467E-12
3.85531E-10 3.83235E-12
4.75965E-10 3.81866E-12
5.75917E-10 3.80362E-12
6.85389E-10 3.78727E-12
8.04380E-10 3.76964E-12
9.32891E-10 3.75076E-12
1.07092E-09 3.73065E-12
1.21847E-09 3.70937E-12
1.37554E-09 3.68694E-12
1.54213E-09 3.66341E-12
1.71823E-09 3.63881E-12
1.90386E-09 3.61319E-12
2.09900E-09 3.58659E-12
2.30367E-09 3.55906E-12
2.51785E-09 3.53063E-12
2.74156E-09 3.50132E-12
2.97478E-09 3.47122E-12
3.21752E-09 3.44038E-12
3.46978E-09 3.40885E-12
3.73156E-09 3.37669E-12
4.00286E-09 3.34391E-12
4.28368E-09 3.31048E-12
4.57402E-09 3.27654E-12
4.87388E-09 3.24214E-12
5.18326E-09 3.20734E-12
5.50215E-09 3.17217E-12
5.83057E-09 3.13662E-12
6.16850E-09 3.10070E-12
6.51596E-09 3.06453E-12
6.87293E-09 3.02817E-12
7.23942E-09 2.99165E-12
7.61544E-09 2.95501E-12
1.18991E-08 2.58725E-12
1.71347E-08 2.23685E-12
2.33223E-08 1.92058E-12
3.04617E-08 1.64480E-12
3.85531E-08 1.40940E-12
4.75965E-08 1.21086E-12
5.75917E-08 1.04423E-12
6.85389E-08 9.04105E-13
8.04380E-08 7.86140E-13
9.32891E-08 6.86456E-13
1.07092E-07 6.01763E-13
1.21847E-07 5.29269E-13
1.37554E-07 4.67092E-13
1.54213E-07 4.13514E-13
1.71823E-07 3.67082E-13
1.90386E-07 3.26680E-13
2.09900E-07 2.91479E-13
2.30367E-07 2.60711E-13
2.51785E-07 2.33689E-13
2.74156E-07 2.08641E-13
2.97478E-07 1.87093E-13
3.21752E-07 1.68637E-13
3.46978E-07 1.52747E-13
3.73156E-07 1.38997E-13
4.00286E-07 1.26870E-13
4.28368E-07 1.15028E-13
4.57402E-07 1.04703E-13
4.87388E-07 9.56621E-14
5.18325E-07 8.77149E-14
5.50215E-07 8.07020E-14
5.83057E-07 7.43216E-14
6.16850E-07 6.83453E-14
6.51596E-07 6.30343E-14
6.87293E-07 5.82994E-14
7.23942E-07 5.40651E-14
7.61543E-07 5.02675E-14
1.18991E-06 2.59785E-14
1.71347E-06 1.50729E-14
2.33223E-06 9.38084E-15
3.04617E-06 6.09095E-15
3.85531E-06 4.08525E-15
4.75964E-06 2.82061E-15
5.75916E-06 1.99959E-15
6.85388E-06 1.45231E-15
8.04378E-06 1.07942E-15
9.32888E-06 8.19653E-16
1.07092E-05 6.34347E-16
1.21846E-05 4.99117E-16
1.37553E-05 3.98510E-16
1.54212E-05 3.22335E-16
1.71822E-05 2.63732E-16
1.90385E-05 2.17946E-16
2.09899E-05 1.81811E-16
2.30365E-05 1.52874E-16
2.51783E-05 1.29446E-16
2.74153E-05 1.10240E-16
2.97475E-05 9.45430E-17
3.21749E-05 8.15036E-17
3.46974E-05 7.06223E-17
3.73152E-05 6.15139E-17
4.00281E-05 5.37842E-17
4.28362E-05 4.72594E-17
4.57395E-05 4.16547E-17
4.87380E-05 3.68690E-17
5.18317E-05 3.27378E-17
5.50205E-05 2.91657E-17
5.83045E-05 2.60680E-17
6.16838E-05 2.33638E-17
6.51582E-05 2.10065E-17
6.87277E-05 1.89317E-17
7.23925E-05 1.71104E-17
7.61524E-05 1.55006E-17
9.21439E-05 1.06794E-17
1.09658E-04 7.59390E-18
1.28695E-04 5.54798E-18
1.49255E-04 4.14785E-18
1.71338E-04 3.16383E-18
1.94942E-04 2.45551E-18
2.20070E-04 1.93523E-18
2.46720E-04 1.54604E-18
2.74892E-04 1.25010E-18
3.04586E-04 1.02183E-18
3.35803E-04 8.43441E-19
3.68542E-04 7.02400E-19
4.02802E-04 5.89673E-19
4.38585E-04 4.98705E-19
4.75889E-04 4.24644E-19
5.14715E-04 3.63847E-19
5.55063E-04 3.13559E-19
5.96931E-04 2.71675E-19
6.40321E-04 2.36564E-19
6.85233E-04 2.06952E-19
7.31665E-04 1.81834E-19
7.79618E-04 1.60418E-19
8.29092E-04 1.42068E-19
8.80086E-04 1.26271E-19
9.32601E-04 1.12612E-19
9.86636E-04 1.00754E-19
1.04219E-03 9.04182E-20
1.09927E-03 8.13761E-20
1.15786E-03 7.34384E-20
1.21797E-03 6.64469E-20
1.27961E-03 6.02695E-20
1.34276E-03 5.47946E-20
1.40743E-03 4.99288E-20
1.47362E-03 4.55924E-20
1.54133E-03 4.17177E-20
1.61056E-03 3.82469E-20
1.68131E-03 3.51304E-20
1.75357E-03 3.23258E-20
1.82735E-03 2.97963E-20
1.90265E-03 2.75100E-20
1.97947E-03 2.54395E-20
2.05780E-03 2.35607E-20
2.13765E-03 2.18527E-20
2.21902E-03 2.02971E-20
2.30190E-03 1.88780E-20
2.38630E-03 1.75812E-20
2.47222E-03 1.63941E-20
2.55965E-03 1.53060E-20
2.64859E-03 1.43069E-20
2.73905E-03 1.33883E-20
2.83103E-03 1.25426E-20
2.92452E-03 1.17629E-20
3.01952E-03 1.10430E-20
3.11604E-03 1.03776E-20
3.21407E-03 9.76175E-21
3.31362E-03 9.19111E-21
3.41468E-03 8.66174E-21
3.51725E-03 8.17011E-21
3.62133E-03 7.71302E-21
3.72692E-03 7.28759E-21
3.83403E-03 6.89123E-21
3.94265E-03 6.52158E-21
4.05278E-03 6.17650E-21
4.16442E-03 5.85405E-21
4.27757E-03 5.55248E-21
4.39223E-03 5.27017E-21
4.50840E-03 5.00567E-21
4.62608E-03 4.75765E-21
4.74527E-03 4.52487E-21
4.86597E-03 4.30624E-21
4.98817E-03 4.10072E-21
5.11188E-03 3.90739E-21
5.23711E-03 3.72537E-21
5.36383E-03 3.55390E-21
5.49207E-03 3.39223E-21
5.62181E-03 3.23970E-21
5.75306E-03 3.09571E-21
5.88581E-03 2.95967E-21
6.02007E-03 2.83106E-21
6.15583E-03 2.70941E-21
6.29310E-03 2.59426E-21
6.43187E-03 2.48521E-21
6.57214E-03 2.38186E-21
6.71392E-03 2.28386E-21
6.85720E-03 2.19088E-21
7.00198E-03 2.10262E-21
7.14827E-03 2.01878E-21
7.29605E-03 1.93911E-21
7.44534E-03 1.86336E-21
7.59612E-03 1.79130E-21
7.97965E-03 1.62590E-21
8.37255E-03 1.47929E-21
8.77480E-03 1.34894E-21
9.18641E-03 1.23273E-21
9.60736E-03 1.12886E-21
1.00376E-02 1.03578E-21
1.04773E-02 9.52163E-22
1.09262E-02 8.76880E-22
1.13844E-02 8.08949E-22
1.18520E-02 7.47519E-22
1.23288E-02 6.91857E-22
1.28150E-02 6.41321E-22
1.33104E-02 5.95352E-22
1.38150E-02 5.53463E-22
1.43290E-02 5.15225E-22
1.48521E-02 4.80260E-22
1.53845E-02 4.48237E-22
1.59262E-02 4.18861E-22
1.64770E-02 3.91874E-22
1.70371E-02 3.67045E-22
1.76063E-02 3.44168E-22
1.81848E-02 3.23063E-22
1.87724E-02 3.03566E-22
1.93692E-02 2.85531E-22
1.99751E-02 2.68828E-22
2.05901E-02 2.53340E-22
2.12143E-02 2.38962E-22
2.18476E-02 2.25599E-22
2.24900E-02 2.13166E-22
2.31415E-02 2.01587E-22
2.38021E-02 1.90791E-22
2.44717E-02 1.80715E-22
2.51504E-02 1.71302E-22
2.58382E-02 1.62500E-22
2.65349E-02 1.54261E-22
2.72407E-02 1.46544E-22
2.79555E-02 1.39308E-22
2.86793E-02 1.32517E-22
2.94120E-02 1.26140E-22
3.01537E-02 1.20145E-22
3.09043E-02 1.14506E-22
3.16639E-02 1.09197E-22
3.24324E-02 1.04196E-22
3.32098E-02 9.94804E-23
3.39961E-02 9.50315E-23
3.47912E-02 9.08311E-23
3.55952E-02 8.68626E-23
3.64081E-02 8.31107E-23
3.72297E-02 7.95613E-23
3.80602E-02 7.62012E-23
3.88995E-02 7.30185E-23
3.97476E-02 7.00019E-23
4.06044E-02 6.71411E-23
4.14700E-02 6.44265E-23
4.23443E-02 6.18492E-23
4.32273E-02 5.94007E-23
4.41190E-02 5.70734E-23
4.50194E-02 5.48601E-23
4.59284E-02 5.27541E-23
4.68461E-02 5.07493E-23
4.87074E-02 4.70201E-23
5.06030E-02 4.36305E-23
5.25328E-02 4.05437E-23
5.44967E-02 3.77276E-23
5.64946E-02 3.51540E-23
5.85262E-02 3.27982E-23
6.05914E-02 3.06382E-23
6.26901E-02 2.86546E-23
6.48222E-02 2.68304E-23
6.69873E-02 2.51502E-23
6.91854E-02 2.36006E-23
7.14163E-02 2.21694E-23
7.36799E-02 2.08460E-23
7.59760E-02 1.96206E-23
7.83043E-02 1.84845E-23
8.06647E-02 1.74301E-23
8.30571E-02 1.64504E-23
8.54812E-02 1.55389E-23
8.79369E-02 1.46901E-23
9.04240E-02 1.38988E-23
9.29422E-02 1.31603E-23
9.54915E-02 1.24705E-23
9.80716E-02 1.18255E-23
1.00682E-01 1.12219E-23
1.03323E-01 1.06565E-23
1.05995E-01 1.01263E-23
1.08696E-01 9.62883E-24
1.11427E-01 9.16167E-24
1.14188E-01 8.72247E-24
1.16978E-01 8.30938E-24
1.19797E-01 7.92053E-24
1.22645E-01 7.55411E-24
1.25522E-01 7.20868E-24
1.28428E-01 6.88280E-24
1.31361E-01 6.57510E-24
1.34323E-01 6.28438E-24
1.37313E-01 6.00954E-24
1.40330E-01 5.74954E-24
1.43375E-01 5.50339E-24
1.46447E-01 5.27025E-24
1.49545E-01 5.04929E-24
1.52671E-01 4.83972E-24
1.55823E-01 4.64086E-24
1.59001E-01 4.45207E-24
1.62205E-01 4.27272E-24
1.65435E-01 4.10224E-24
1.68690E-01 3.94012E-24
1.71970E-01 3.78587E-24
1.75276E-01 3.63903E-24
1.78606E-01 3.49917E-24
1.81961E-01 3.36590E-24
1.85340E-01 3.23884E-24
1.88743E-01 3.11765E-24
1.92169E-01 3.00201E-24
1.95619E-01 2.89161E-24
1.99092E-01 2.78617E-24
2.02589E-01 2.68543E-24
2.06107E-01 2.58912E-24
2.09649E-01 2.49703E-24
2.13212E-01 2.40892E-24
2.16797E-01 2.32460E-24
2.20404E-01 2.24387E-24
2.24032E-01 2.16654E-24
2.27680E-01 2.09245E-24
2.31350E-01 2.02143E-24
2.35040E-01 1.95333E-24
2.38751E-01 1.88801E-24
2.42481E-01 1.82533E-24
2.46231E-01 1.76517E-24
2.50000E-01 1.70740E-24
2.53788E-01 1.65191E-24
2.57595E-01 1.59860E-24
2.61421E-01 1.54736E-24
2.65264E-01 1.49809E-24
2.69126E-01 1.45071E-24
2.73005E-01 1.40513E-24
2.76901E-01 1.36127E-24
2.80814E-01 1.31904E-24
2.84744E-01 1.27839E-24
2.88691E-01 1.23923E-24
2.92653E-01 1.20150E-24
2.96632E-01 1.16515E-24
3.00625E-01 1.13010E-24
3.04634E-01 1.09631E-24
3.08658E-01 1.06372E-24
3.12697E-01 1.03228E-24
3.16749E-01 1.00195E-24
3.20816E-01 9.72667E-25
3.24896E-01 9.44398E-25
3.28990E-01 9.17100E-25
3.33097E-01 8.90733E-25
3.37216E-01 8.65259E-25
3.41348E-01 8.40643E-25
3.45492E-01 8.16850E-25
3.49647E-01 7.93848E-25
3.53814E-01 7.71605E-25
3.57992E-01 7.50091E-25
3.62181E-01 7.29278E-25
3.66381E-01 7.09140E-25
3.70590E-01 6.89650E-25
3.74810E-01 6.70783E-25
3.79039E-01 6.52516E-25
3.83277E-01 6.34826E-25
3.87524E-01 6.17692E-25
3.91780E-01 6.01093E-25
3.96044E-01 5.85009E-25
4.00316E-01 5.69421E-25
4.04596E-01 5.54311E-25
4.08882E-01 5.39663E-25
4.13176E-01 5.25458E-25
4.17476E-01 5.11682E-25
4.21783E-01 4.98319E-25
4.26095E-01 4.85354E-25
4.30413E-01 4.72773E-25
4.34737E-01 4.60564E-25
4.39065E-01 4.48712E-25
4.43398E-01 4.37207E-25
4.47736E-01 4.26035E-25
4.52077E-01 4.15185E-25
4.56422E-01 4.04647E-25
4.60770E-01 3.94410E-25
4.65122E-01 3.84463E-25
4.69476E-01 3.74798E-25
4.73832E-01 3.65404E-25
4.78190E-01 3.56273E-25
4.82550E-01 3.47396E-25
4.86912E-01 3.38765E-25
4.91274E-01 3.30372E-25
4.95637E-01 3.22209E-25
5.00000E-01 3.14269E-25
5.04363E-01 3.06544E-25
5.08726E-01 2.99028E-25
5.13088E-01 2.91714E-25
5.17450E-01 2.84596E-25
5.21810E-01 2.77668E-25
5.26168E-01 2.70923E-25
5.30524E-01 2.64357E-25
5.34878E-01 2.57963E-25
5.39230E-01 2.51736E-25
5.43578E-01 2.45672E-25
5.47923E-01 2.39765E-25
5.52264E-01 2.34010E-25
5.56602E-01 2.28403E-25
5.60935E-01 2.22940E-25
5.65263E-01 2.17616E-25
5.69587E-01 2.12427E-25
5.73905E-01 2.07369E-25
5.78217E-01 2.02438E-25
5.82524E-01 1.97631E-25
5.86824E-01 1.92944E-25
5.91118E-01 1.88374E-25
5.95404E-01 1.83916E-25
5.99684E-01 1.79569E-25
6.03956E-01 1.75328E-25
6.08220E-01 1.71191E-25
6.12476E-01 1.67155E-25
6.16723E-01 1.63217E-25
6.20961E-01 1.59375E-25
6.25190E-01 1.55624E-25
6.29410E-01 1.51964E-25
6.33619E-01 1.48392E-25
6.37819E-01 1.44904E-25
6.42008E-01 1.41500E-25
6.46186E-01 1.38176E-25
6.50353E-01 1.34930E-25
6.54508E-01 1.31761E-25
6.58652E-01 1.28666E-25
6.62784E-01 1.25643E-25
6.66903E-01 1.22691E-25
6.71010E-01 1.19807E-25
6.75104E-01 1.16989E-25
6.79184E-01 1.14237E-25
6.83251E-01 1.11548E-25
6.87303E-01 1.08920E-25
6.91342E-01 1.06353E-25
6.95366E-01 1.03844E-25
6.99375E-01 1.01392E-25
7.03368E-01 9.89949E-26
7.07347E-01 9.66523E-26
7.11309E-01 9.43625E-26
7.15256E-01 9.21241E-26
7.19186E-01 8.99358E-26
7.23099E-01 8.77963E-26
7.26995E-01 8.57044E-26
7.30874E-01 8.36590E-26
7.34736E-01 8.16590E-26
7.38579E-01 7.97031E-26
7.42405E-01 7.77904E-26
7.46212E-01 7.59197E-26
7.50000E-01 7.40901E-26
7.53769E-01 7.23005E-26
7.57519E-01 7.05501E-26
7.61249E-01 6.88378E-26
7.64960E-01 6.71628E-26
7.68650E-01 6.55241E-26
7.72320E-01 6.39210E-26
7.75968E-01 6.23526E-26
7.79596E-01 6.08181E-26
7.83203E-01 5.93166E-26
7.86788E-01 5.78475E-26
7.90351E-01 5.64100E-26
7.93893E-01 5.50033E-26
7.97411E-01 5.36268E-26
8.00908E-01 5.22797E-26
8.04381E-01 5.09615E-26
8.07831E-01 4.96714E-26
8.11257E-01 4.84088E-26
8.14660E-01 4.71732E-26
8.18039E-01 4.59638E-26
8.21394E-01 4.47802E-26
8.24724E-01 4.36218E-26
8.28030E-01 4.24880E-26
8.31310E-01 4.13783E-26
8.34565E-01 4.02921E-26
8.37795E-01 3.92290E-26
8.40999E-01 3.81885E-26
8.44177E-01 3.71700E-26
8.47329E-01 3.61732E-26
8.50455E-01 3.51975E-26
8.53553E-01 3.42426E-26
8.56625E-01 3.33079E-26
8.59670E-01 3.23931E-26
8.62687E-01 3.14978E-26
8.65677E-01 3.06215E-26
8.68639E-01 2.97639E-26
8.71572E-01 2.89246E-26
8.74478E-01 2.81032E-26
8.77355E-01 2.72994E-26
8.80203E-01 2.65128E-26
8.83022E-01 2.57430E-26
8.85812E-01 2.49899E-26
8.88573E-01 2.42529E-26
8.91304E-01 2.35319E-26
8.94005E-01 2.28264E-26
8.96677E-01 2.21363E-26
8.99318E-01 2.14612E-26
9.01928E-01 2.08009E-26
9.04508E-01 2.01549E-26
9.07058E-01 1.95232E-26
9.09576E-01 1.89055E-26
9.12063E-01 1.83014E-26
9.14519E-01 1.77107E-26
9.16943E-01 1.71332E-26
9.19335E-01 1.65687E-26
9.21696E-01 1.60169E-26
9.24024E-01 1.54776E-26
9.26320E-01 1.49506E-26
9.28584E-01 1.44357E-26
9.30815E-01 1.39326E-26
9.33013E-01 1.34412E-26
9.35178E-01 1.29613E-26
9.37310E-01 1.24927E-26
9.39409E-01 1.20352E-26
9.41474E-01 1.15886E-26
9.43505E-01 1.11528E-26
9.45503E-01 1.07275E-26
9.47467E-01 1.03127E-26
9.49397E-01 9.90814E-27
9.51293E-01 9.51367E-27
9.53154E-01 9.12915E-27
9.54981E-01 8.75444E-27
9.56773E-01 8.38939E-27
9.58530E-01 8.03387E-27
9.60252E-01 7.68773E-27
9.61940E-01 7.35085E-27
9.63592E-01 7.02310E-27
9.65209E-01 6.70435E-27
9.66790E-01 6.39450E-27
9.68336E-01 6.09341E-27
9.69846E-01 5.80099E-27
9.71321E-01 5.51712E-27
9.72759E-01 5.24169E-27
9.74162E-01 4.97461E-27
9.75528E-01 4.71577E-27
9.76858E-01 4.46509E-27
9.78152E-01 4.22246E-27
9.79410E-01 3.98780E-27
9.80631E-01 3.76103E-27
9.81815E-01 3.54205E-27
9.82963E-01 3.33080E-27
9.84074E-01 3.12718E-27
9.85148E-01 2.93114E-27
9.86185E-01 2.74260E-27
9.87185E-01 2.56149E-27
9.88148E-01 2.38774E-27
9.89074E-01 2.22130E-27
9.89962E-01 2.06210E-27
9.90814E-01 1.91009E-27
9.91627E-01 1.76520E-27
9.92404E-01 1.62740E-27
9.93143E-01 1.49662E-27
9.93844E-01 1.37283E-27
9.94508E-01 1.25598E-27
9.95134E-01 1.14603E-27
9.95722E-01 1.04293E-27
9.96273E-01 9.46653E-28
9.96786E-01 8.57164E-28
9.97261E-01 7.74431E-28
9.97698E-01 6.98424E-28
9.98097E-01 6.29116E-28
9.98459E-01 5.66483E-28
9.98782E-01 5.10501E-28
9.99067E-01 4.61153E-28
9.99315E-01 4.18419E-28
9.99524E-01 3.82285E-28
9.99695E-01 3.52738E-28
9.99829E-01 3.29769E-28
9.99924E-01 3.13367E-28
9.99981E-01 3.03529E-28
1.00000E+00 3.00250E-28
