 #
 # Subroutine ELSEPA. Elastic scattering of electrons and positrons
 #                    by neutral atoms and positive ions
 #
 # Projectile: electron
 # Kinetic energy = 1.00000E+08 eV = 3.67493E+06 a.u.
 #
 # WARNING: High-energy factorization with free-atom DF screening.
 #          Absorption, polarization and exchange corrections are
 #          switched off.
 #          Phase shifts are calculated for the bare nucleus.
 #          Scattering amplitudes are not evaluated.
 #
 # Element: Nb,  Z =  41,  atomic weight = 9.29064E+01 g/mol
 #
 # Nuclear model: Fermi distribution
 #                Average radius = 4.84617E-13 cm
 #                Skin thickness = 5.46000E-14 cm
 #
 # Number of electrons = 41
 #
 # Total elastic cross section = 3.98785E-18 cm**2 = 1.42409E-01 a0**2
 # 1st transport cross section = 3.33844E-25 cm**2 = 1.19218E-08 a0**2
 # 2nd transport cross section = 9.92996E-25 cm**2 = 3.54605E-08 a0**2
 #
 #
 # Differential cross section:                       MU=(1-COS(THETA))/2
 #
 #  THETA        MU          DCS          DCS        Sherman      error
 #  (deg)                 (cm**2/sr)   (a0**2/sr)    function
 #----------------------------------------------------------------------
0.00000E+00 4.34623E-10
7.61557E-13 4.33138E-10
1.18994E-12 4.32308E-10
1.71346E-12 4.31298E-10
2.33225E-12 4.30109E-10
3.04617E-12 4.28744E-10
3.85530E-12 4.27207E-10
4.75964E-12 4.25500E-10
5.75917E-12 4.23627E-10
6.85391E-12 4.21592E-10
8.04379E-12 4.19399E-10
9.32893E-12 4.17053E-10
1.07092E-11 4.14558E-10
1.21847E-11 4.11920E-10
1.37554E-11 4.09142E-10
1.54213E-11 4.06232E-10
1.71823E-11 4.03194E-10
1.90386E-11 4.00035E-10
2.09900E-11 3.96759E-10
2.30367E-11 3.93372E-10
2.51785E-11 3.89877E-10
2.74156E-11 3.86286E-10
2.97478E-11 3.82605E-10
3.21752E-11 3.78841E-10
3.46979E-11 3.75000E-10
3.73157E-11 3.71077E-10
4.00286E-11 3.67085E-10
4.28368E-11 3.63035E-10
4.57402E-11 3.58931E-10
4.87388E-11 3.54780E-10
5.18325E-11 3.50584E-10
5.50215E-11 3.46339E-10
5.83057E-11 3.42065E-10
6.16850E-11 3.37765E-10
6.51595E-11 3.33447E-10
6.87293E-11 3.29113E-10
7.23943E-11 3.24756E-10
7.61544E-11 3.20389E-10
1.18991E-10 2.77213E-10
1.71347E-10 2.36955E-10
2.33223E-10 2.01339E-10
3.04617E-10 1.70864E-10
3.85531E-10 1.45268E-10
4.75965E-10 1.23959E-10
5.75917E-10 1.06257E-10
6.85389E-10 9.15191E-11
8.04380E-10 7.91801E-11
9.32891E-10 6.88086E-11
1.07092E-09 6.00412E-11
1.21847E-09 5.25882E-11
1.37554E-09 4.62194E-11
1.54213E-09 4.07492E-11
1.71823E-09 3.60259E-11
1.90386E-09 3.19397E-11
2.09900E-09 2.83930E-11
2.30367E-09 2.52722E-11
2.51785E-09 2.24300E-11
2.74156E-09 2.00267E-11
2.97478E-09 1.79823E-11
3.21752E-09 1.62332E-11
3.46978E-09 1.47284E-11
3.73156E-09 1.33057E-11
4.00286E-09 1.20282E-11
4.28368E-09 1.09198E-11
4.57402E-09 9.95381E-12
4.87388E-09 9.10822E-12
5.18326E-09 8.35029E-12
5.50215E-09 7.64014E-12
5.83057E-09 7.01342E-12
6.16850E-09 6.45833E-12
6.51596E-09 5.96502E-12
6.87293E-09 5.52517E-12
7.23942E-09 5.11410E-12
7.61544E-09 4.74145E-12
1.18991E-08 2.45263E-12
1.71347E-08 1.41813E-12
2.33223E-08 8.73346E-13
3.04617E-08 5.61719E-13
3.85531E-08 3.73863E-13
4.75965E-08 2.56539E-13
5.75917E-08 1.81138E-13
6.85389E-08 1.31265E-13
8.04380E-08 9.74824E-14
9.32891E-08 7.40059E-14
1.07092E-07 5.72680E-14
1.21847E-07 4.50587E-14
1.37554E-07 3.59743E-14
1.54213E-07 2.90942E-14
1.71823E-07 2.37968E-14
1.90386E-07 1.96581E-14
2.09900E-07 1.63823E-14
2.30367E-07 1.37580E-14
2.51785E-07 1.16326E-14
2.74156E-07 9.91378E-15
2.97478E-07 8.48744E-15
3.21752E-07 7.31447E-15
3.46978E-07 6.33129E-15
3.73156E-07 5.50898E-15
4.00286E-07 4.81398E-15
4.28368E-07 4.22462E-15
4.57402E-07 3.72239E-15
4.87388E-07 3.29149E-15
5.18325E-07 2.92150E-15
5.50215E-07 2.60105E-15
5.83057E-07 2.32387E-15
6.16850E-07 2.08179E-15
6.51596E-07 1.87081E-15
6.87293E-07 1.68545E-15
7.23942E-07 1.52266E-15
7.61543E-07 1.37890E-15
1.18991E-06 5.74220E-16
1.71347E-06 2.80248E-16
2.33223E-06 1.52711E-16
3.04617E-06 9.01920E-17
3.85531E-06 5.66444E-17
4.75964E-06 3.73410E-17
5.75916E-06 2.56008E-17
6.85388E-06 1.81306E-17
8.04378E-06 1.31954E-17
9.32888E-06 9.82990E-18
1.07092E-05 7.47153E-18
1.21846E-05 5.77950E-18
1.37553E-05 4.54022E-18
1.54212E-05 3.61586E-18
1.71822E-05 2.91513E-18
1.90385E-05 2.37576E-18
2.09899E-05 1.95628E-18
2.30365E-05 1.62532E-18
2.51783E-05 1.36134E-18
2.74153E-05 1.14871E-18
2.97475E-05 9.75960E-19
3.21749E-05 8.34489E-19
3.46974E-05 7.17775E-19
3.73152E-05 6.20808E-19
4.00281E-05 5.39707E-19
4.28362E-05 4.71443E-19
4.57395E-05 4.13639E-19
4.87380E-05 3.64422E-19
5.18317E-05 3.22302E-19
5.50205E-05 2.86089E-19
5.83045E-05 2.54819E-19
6.16838E-05 2.27710E-19
6.51582E-05 2.04117E-19
6.87277E-05 1.83507E-19
7.23925E-05 1.65437E-19
7.61524E-05 1.49614E-19
9.21439E-05 1.02281E-19
1.09658E-04 7.22760E-20
1.28695E-04 5.25190E-20
1.49255E-04 3.90759E-20
1.71338E-04 2.96757E-20
1.94942E-04 2.29411E-20
2.20070E-04 1.80145E-20
2.46720E-04 1.43434E-20
2.74892E-04 1.15622E-20
3.04586E-04 9.42436E-21
3.35803E-04 7.75893E-21
3.68542E-04 6.44606E-21
4.02802E-04 5.39978E-21
4.38585E-04 4.55763E-21
4.75889E-04 3.87364E-21
5.14715E-04 3.31342E-21
5.55063E-04 2.85103E-21
5.96931E-04 2.46665E-21
6.40321E-04 2.14499E-21
6.85233E-04 1.87416E-21
7.31665E-04 1.64481E-21
7.79618E-04 1.44953E-21
8.29092E-04 1.28243E-21
8.80086E-04 1.13876E-21
9.32601E-04 1.01468E-21
9.86636E-04 9.07066E-22
1.04219E-03 8.13360E-22
1.09927E-03 7.31466E-22
1.15786E-03 6.59637E-22
1.21797E-03 5.96419E-22
1.27961E-03 5.40604E-22
1.34276E-03 4.91175E-22
1.40743E-03 4.47273E-22
1.47362E-03 4.08173E-22
1.54133E-03 3.73257E-22
1.61056E-03 3.41998E-22
1.68131E-03 3.13946E-22
1.75357E-03 2.88713E-22
1.82735E-03 2.65967E-22
1.90265E-03 2.45418E-22
1.97947E-03 2.26816E-22
2.05780E-03 2.09945E-22
2.13765E-03 1.94613E-22
2.21902E-03 1.80656E-22
2.30190E-03 1.67928E-22
2.38630E-03 1.56301E-22
2.47222E-03 1.45663E-22
2.55965E-03 1.35914E-22
2.64859E-03 1.26967E-22
2.73905E-03 1.18744E-22
2.83103E-03 1.11175E-22
2.92452E-03 1.04199E-22
3.01952E-03 9.77611E-23
3.11604E-03 9.18123E-23
3.21407E-03 8.63084E-23
3.31362E-03 8.12102E-23
3.41468E-03 7.64823E-23
3.51725E-03 7.20928E-23
3.62133E-03 6.80131E-23
3.72692E-03 6.42173E-23
3.83403E-03 6.06819E-23
3.94265E-03 5.73859E-23
4.05278E-03 5.43100E-23
4.16442E-03 5.14368E-23
4.27757E-03 4.87505E-23
4.39223E-03 4.62367E-23
4.50840E-03 4.38823E-23
4.62608E-03 4.16752E-23
4.74527E-03 3.96046E-23
4.86597E-03 3.76604E-23
4.98817E-03 3.58336E-23
5.11188E-03 3.41156E-23
5.23711E-03 3.24989E-23
5.36383E-03 3.09763E-23
5.49207E-03 2.95413E-23
5.62181E-03 2.81880E-23
5.75306E-03 2.69108E-23
5.88581E-03 2.57047E-23
6.02007E-03 2.45649E-23
6.15583E-03 2.34872E-23
6.29310E-03 2.24676E-23
6.43187E-03 2.15022E-23
6.57214E-03 2.05878E-23
6.71392E-03 1.97211E-23
6.85720E-03 1.88991E-23
7.00198E-03 1.81191E-23
7.14827E-03 1.73786E-23
7.29605E-03 1.66752E-23
7.44534E-03 1.60067E-23
7.59612E-03 1.53710E-23
7.97965E-03 1.39133E-23
8.37255E-03 1.26226E-23
8.77480E-03 1.14765E-23
9.18641E-03 1.04562E-23
9.60736E-03 9.54529E-24
1.00376E-02 8.73016E-24
1.04773E-02 7.99900E-24
1.09262E-02 7.34165E-24
1.13844E-02 6.74939E-24
1.18520E-02 6.21466E-24
1.23288E-02 5.73091E-24
1.28150E-02 5.29245E-24
1.33104E-02 4.89430E-24
1.38150E-02 4.53212E-24
1.43290E-02 4.20211E-24
1.48521E-02 3.90091E-24
1.53845E-02 3.62558E-24
1.59262E-02 3.37351E-24
1.64770E-02 3.14241E-24
1.70371E-02 2.93022E-24
1.76063E-02 2.73514E-24
1.81848E-02 2.55556E-24
1.87724E-02 2.39002E-24
1.93692E-02 2.23726E-24
1.99751E-02 2.09610E-24
2.05901E-02 1.96553E-24
2.12143E-02 1.84461E-24
2.18476E-02 1.73251E-24
2.24900E-02 1.62848E-24
2.31415E-02 1.53184E-24
2.38021E-02 1.44198E-24
2.44717E-02 1.35834E-24
2.51504E-02 1.28042E-24
2.58382E-02 1.20777E-24
2.65349E-02 1.13996E-24
2.72407E-02 1.07663E-24
2.79555E-02 1.01742E-24
2.86793E-02 9.62035E-25
2.94120E-02 9.10177E-25
3.01537E-02 8.61588E-25
3.09043E-02 8.16027E-25
3.16639E-02 7.73276E-25
3.24324E-02 7.33134E-25
3.32098E-02 6.95416E-25
3.39961E-02 6.59952E-25
3.47912E-02 6.26587E-25
3.55952E-02 5.95177E-25
3.64081E-02 5.65588E-25
3.72297E-02 5.37700E-25
3.80602E-02 5.11398E-25
3.88995E-02 4.86580E-25
3.97476E-02 4.63147E-25
4.06044E-02 4.41012E-25
4.14700E-02 4.20092E-25
4.23443E-02 4.00309E-25
4.32273E-02 3.81592E-25
4.41190E-02 3.63876E-25
4.50194E-02 3.47099E-25
4.59284E-02 3.31204E-25
4.68461E-02 3.16137E-25
4.87074E-02 2.88296E-25
5.06030E-02 2.63218E-25
5.25328E-02 2.40591E-25
5.44967E-02 2.20145E-25
5.64946E-02 2.01642E-25
5.85262E-02 1.84873E-25
6.05914E-02 1.69656E-25
6.26901E-02 1.55828E-25
6.48222E-02 1.43247E-25
6.69873E-02 1.31788E-25
6.91854E-02 1.21337E-25
7.14163E-02 1.11797E-25
7.36799E-02 1.03077E-25
7.59760E-02 9.51010E-26
7.83043E-02 8.77970E-26
8.06647E-02 8.11026E-26
8.30571E-02 7.49614E-26
8.54812E-02 6.93229E-26
8.79369E-02 6.41418E-26
9.04240E-02 5.93773E-26
9.29422E-02 5.49925E-26
9.54915E-02 5.09543E-26
9.80716E-02 4.72327E-26
1.00682E-01 4.38006E-26
1.03323E-01 4.06336E-26
1.05995E-01 3.77093E-26
1.08696E-01 3.50075E-26
1.11427E-01 3.25101E-26
1.14188E-01 3.02001E-26
1.16978E-01 2.80626E-26
1.19797E-01 2.60836E-26
1.22645E-01 2.42505E-26
1.25522E-01 2.25518E-26
1.28428E-01 2.09770E-26
1.31361E-01 1.95164E-26
1.34323E-01 1.81613E-26
1.37313E-01 1.69035E-26
1.40330E-01 1.57356E-26
1.43375E-01 1.46508E-26
1.46447E-01 1.36429E-26
1.49545E-01 1.27062E-26
1.52671E-01 1.18353E-26
1.55823E-01 1.10255E-26
1.59001E-01 1.02722E-26
1.62205E-01 9.57129E-27
1.65435E-01 8.91901E-27
1.68690E-01 8.31184E-27
1.71970E-01 7.74654E-27
1.75276E-01 7.22011E-27
1.78606E-01 6.72980E-27
1.81961E-01 6.27304E-27
1.85340E-01 5.84747E-27
1.88743E-01 5.45091E-27
1.92169E-01 5.08132E-27
1.95619E-01 4.73683E-27
1.99092E-01 4.41568E-27
2.02589E-01 4.11628E-27
2.06107E-01 3.83712E-27
2.09649E-01 3.57681E-27
2.13212E-01 3.33405E-27
2.16797E-01 3.10766E-27
2.20404E-01 2.89650E-27
2.24032E-01 2.69956E-27
2.27680E-01 2.51586E-27
2.31350E-01 2.34451E-27
2.35040E-01 2.18468E-27
2.38751E-01 2.03558E-27
2.42481E-01 1.89651E-27
2.46231E-01 1.76678E-27
2.50000E-01 1.64576E-27
2.53788E-01 1.53289E-27
2.57595E-01 1.42760E-27
2.61421E-01 1.32940E-27
2.65264E-01 1.23782E-27
2.69126E-01 1.15240E-27
2.73005E-01 1.07275E-27
2.76901E-01 9.98468E-28
2.80814E-01 9.29210E-28
2.84744E-01 8.64638E-28
2.88691E-01 8.04440E-28
2.92653E-01 7.48326E-28
2.96632E-01 6.96024E-28
3.00625E-01 6.47281E-28
3.04634E-01 6.01860E-28
3.08658E-01 5.59541E-28
3.12697E-01 5.20116E-28
3.16749E-01 4.83393E-28
3.20816E-01 4.49192E-28
3.24896E-01 4.17346E-28
3.28990E-01 3.87695E-28
3.33097E-01 3.60095E-28
3.37216E-01 3.34408E-28
3.41348E-01 3.10505E-28
3.45492E-01 2.88268E-28
3.49647E-01 2.67583E-28
3.53814E-01 2.48347E-28
3.57992E-01 2.30462E-28
3.62181E-01 2.13837E-28
3.66381E-01 1.98386E-28
3.70590E-01 1.84030E-28
3.74810E-01 1.70694E-28
3.79039E-01 1.58310E-28
3.83277E-01 1.46811E-28
3.87524E-01 1.36138E-28
3.91780E-01 1.26234E-28
3.96044E-01 1.17046E-28
4.00316E-01 1.08524E-28
4.04596E-01 1.00623E-28
4.08882E-01 9.32984E-29
4.13176E-01 8.65114E-29
4.17476E-01 8.02239E-29
4.21783E-01 7.44010E-29
4.26095E-01 6.90100E-29
4.30413E-01 6.40203E-29
4.34737E-01 5.94036E-29
4.39065E-01 5.51332E-29
4.43398E-01 5.11846E-29
4.47736E-01 4.75345E-29
4.52077E-01 4.41615E-29
4.56422E-01 4.10456E-29
4.60770E-01 3.81680E-29
4.65122E-01 3.55114E-29
4.69476E-01 3.30595E-29
4.73832E-01 3.07973E-29
4.78190E-01 2.87107E-29
4.82550E-01 2.67866E-29
4.86912E-01 2.50130E-29
4.91274E-01 2.33784E-29
4.95637E-01 2.18723E-29
5.00000E-01 2.04851E-29
5.04363E-01 1.92075E-29
5.08726E-01 1.80311E-29
5.13088E-01 1.69481E-29
5.17450E-01 1.59513E-29
5.21810E-01 1.50338E-29
5.26168E-01 1.41895E-29
5.30524E-01 1.34124E-29
5.34878E-01 1.26973E-29
5.39230E-01 1.20391E-29
5.43578E-01 1.14332E-29
5.47923E-01 1.08753E-29
5.52264E-01 1.03615E-29
5.56602E-01 9.88821E-30
5.60935E-01 9.45193E-30
5.65263E-01 9.04959E-30
5.69587E-01 8.67831E-30
5.73905E-01 8.33544E-30
5.78217E-01 8.01851E-30
5.82524E-01 7.72529E-30
5.86824E-01 7.45368E-30
5.91118E-01 7.20179E-30
5.95404E-01 6.96784E-30
5.99684E-01 6.75024E-30
6.03956E-01 6.54749E-30
6.08220E-01 6.35824E-30
6.12476E-01 6.18124E-30
6.16723E-01 6.01536E-30
6.20961E-01 5.85954E-30
6.25190E-01 5.71284E-30
6.29410E-01 5.57439E-30
6.33619E-01 5.44340E-30
6.37819E-01 5.31914E-30
6.42008E-01 5.20095E-30
6.46186E-01 5.08825E-30
6.50353E-01 4.98049E-30
6.54508E-01 4.87718E-30
6.58652E-01 4.77787E-30
6.62784E-01 4.68218E-30
6.66903E-01 4.58973E-30
6.71010E-01 4.50020E-30
6.75104E-01 4.41331E-30
6.79184E-01 4.32880E-30
6.83251E-01 4.24642E-30
6.87303E-01 4.16598E-30
6.91342E-01 4.08729E-30
6.95366E-01 4.01018E-30
6.99375E-01 3.93452E-30
7.03368E-01 3.86018E-30
7.07347E-01 3.78704E-30
7.11309E-01 3.71502E-30
7.15256E-01 3.64402E-30
7.19186E-01 3.57397E-30
7.23099E-01 3.50482E-30
7.26995E-01 3.43652E-30
7.30874E-01 3.36901E-30
7.34736E-01 3.30226E-30
7.38579E-01 3.23624E-30
7.42405E-01 3.17094E-30
7.46212E-01 3.10632E-30
7.50000E-01 3.04238E-30
7.53769E-01 2.97910E-30
7.57519E-01 2.91649E-30
7.61249E-01 2.85453E-30
7.64960E-01 2.79322E-30
7.68650E-01 2.73257E-30
7.72320E-01 2.67258E-30
7.75968E-01 2.61325E-30
7.79596E-01 2.55459E-30
7.83203E-01 2.49660E-30
7.86788E-01 2.43929E-30
7.90351E-01 2.38268E-30
7.93893E-01 2.32676E-30
7.97411E-01 2.27155E-30
8.00908E-01 2.21705E-30
8.04381E-01 2.16327E-30
8.07831E-01 2.11023E-30
8.11257E-01 2.05792E-30
8.14660E-01 2.00635E-30
8.18039E-01 1.95554E-30
8.21394E-01 1.90548E-30
8.24724E-01 1.85619E-30
8.28030E-01 1.80767E-30
8.31310E-01 1.75991E-30
8.34565E-01 1.71294E-30
8.37795E-01 1.66674E-30
8.40999E-01 1.62133E-30
8.44177E-01 1.57670E-30
8.47329E-01 1.53286E-30
8.50455E-01 1.48980E-30
8.53553E-01 1.44753E-30
8.56625E-01 1.40604E-30
8.59670E-01 1.36534E-30
8.62687E-01 1.32542E-30
8.65677E-01 1.28628E-30
8.68639E-01 1.24791E-30
8.71572E-01 1.21032E-30
8.74478E-01 1.17349E-30
8.77355E-01 1.13743E-30
8.80203E-01 1.10213E-30
8.83022E-01 1.06758E-30
8.85812E-01 1.03377E-30
8.88573E-01 1.00071E-30
8.91304E-01 9.68378E-31
8.94005E-01 9.36773E-31
8.96677E-01 9.05887E-31
8.99318E-01 8.75711E-31
9.01928E-01 8.46238E-31
9.04508E-01 8.17458E-31
9.07058E-01 7.89363E-31
9.09576E-01 7.61945E-31
9.12063E-01 7.35195E-31
9.14519E-01 7.09102E-31
9.16943E-01 6.83658E-31
9.19335E-01 6.58854E-31
9.21696E-01 6.34679E-31
9.24024E-01 6.11123E-31
9.26320E-01 5.88178E-31
9.28584E-01 5.65834E-31
9.30815E-01 5.44079E-31
9.33013E-01 5.22905E-31
9.35178E-01 5.02302E-31
9.37310E-01 4.82260E-31
9.39409E-01 4.62768E-31
9.41474E-01 4.43818E-31
9.43505E-01 4.25398E-31
9.45503E-01 4.07500E-31
9.47467E-01 3.90114E-31
9.49397E-01 3.73231E-31
9.51293E-01 3.56840E-31
9.53154E-01 3.40932E-31
9.54981E-01 3.25499E-31
9.56773E-01 3.10530E-31
9.58530E-01 2.96018E-31
9.60252E-01 2.81952E-31
9.61940E-01 2.68324E-31
9.63592E-01 2.55127E-31
9.65209E-01 2.42350E-31
9.66790E-01 2.29986E-31
9.68336E-01 2.18026E-31
9.69846E-01 2.06463E-31
9.71321E-01 1.95289E-31
9.72759E-01 1.84496E-31
9.74162E-01 1.74077E-31
9.75528E-01 1.64024E-31
9.76858E-01 1.54330E-31
9.78152E-01 1.44988E-31
9.79410E-01 1.35992E-31
9.80631E-01 1.27334E-31
9.81815E-01 1.19009E-31
9.82963E-01 1.11011E-31
9.84074E-01 1.03332E-31
9.85148E-01 9.59684E-32
9.86185E-01 8.89134E-32
9.87185E-01 8.21619E-32
9.88148E-01 7.57086E-32
9.89074E-01 6.95485E-32
9.89962E-01 6.36768E-32
9.90814E-01 5.80889E-32
9.91627E-01 5.27803E-32
9.92404E-01 4.77469E-32
9.93143E-01 4.29844E-32
9.93844E-01 3.84892E-32
9.94508E-01 3.42576E-32
9.95134E-01 3.02862E-32
9.95722E-01 2.65717E-32
9.96273E-01 2.31110E-32
9.96786E-01 1.99013E-32
9.97261E-01 1.69400E-32
9.97698E-01 1.42246E-32
9.98097E-01 1.17529E-32
9.98459E-01 9.52278E-33
9.98782E-01 7.53240E-33
9.99067E-01 5.78010E-33
9.99315E-01 4.26440E-33
9.99524E-01 2.98404E-33
9.99695E-01 1.93793E-33
9.99829E-01 1.12522E-33
9.99924E-01 5.45188E-34
9.99981E-01 1.97369E-34
1.00000E+00 8.14627E-35
