 #  Total cross section table (last run of 'elscata').
 #
 #  Z =  41,   projectile: electron
 #
 #   Energy         ECS         TCS1         TCS2         ABSCS      error
 #    (eV)        (cm**2)      (cm**2)      (cm**2)      (cm**2)
 #--------------------------------------------------------------------------
   1.00000E+02  1.02058E-15  1.46713E-16  2.32017E-16  9.22639E-16  6.2E-06
   1.25000E+02  8.88003E-16  1.37380E-16  2.02936E-16  7.89354E-16  1.2E-06
   1.50000E+02  7.91881E-16  1.31535E-16  1.79097E-16  6.92353E-16  5.0E-06
   1.75000E+02  7.18606E-16  1.26144E-16  1.58969E-16  6.18346E-16  1.5E-05
   2.00000E+02  6.60916E-16  1.20643E-16  1.42058E-16  5.59829E-16  9.1E-06
   2.50000E+02  5.75738E-16  1.09616E-16  1.16021E-16  4.72725E-16  9.4E-06
   3.00000E+02  5.16055E-16  9.94289E-17  9.76390E-17  4.10359E-16  1.6E-06
   3.50000E+02  4.72671E-16  9.07239E-17  8.45930E-17  3.62698E-16  3.0E-06
   4.00000E+02  4.39422E-16  8.32108E-17  7.50112E-17  3.25021E-16  2.3E-06
   4.50000E+02  4.12740E-16  7.66232E-17  6.77186E-17  2.94518E-16  9.0E-07
   5.00000E+02  3.90564E-16  7.07919E-17  6.19955E-17  2.69336E-16  5.7E-06
   6.00000E+02  3.55222E-16  6.09803E-17  5.35984E-17  2.30188E-16  1.0E-06
   7.00000E+02  3.27632E-16  5.31112E-17  4.76474E-17  2.01159E-16  8.3E-07
   8.00000E+02  3.04128E-16  4.67385E-17  4.31380E-17  1.78752E-16  3.8E-06
   9.00000E+02  2.84002E-16  4.15068E-17  3.95748E-17  1.60931E-16  5.0E-07
   1.00000E+03  2.67212E-16  3.71585E-17  3.66454E-17  1.46411E-16  5.8E-06
   1.25000E+03  2.34887E-16  2.90137E-17  3.10381E-17  1.19645E-16  1.5E-03
   1.50000E+03  2.11287E-16  2.34193E-17  2.69093E-17  1.01309E-16  1.9E-03
   1.75000E+03  1.93058E-16  1.93898E-17  2.36775E-17  8.79462E-17  2.7E-03
   2.00000E+03  1.78425E-16  1.63762E-17  2.10584E-17  7.77667E-17  2.4E-03
   2.50000E+03  1.56180E-16  1.22300E-17  1.70755E-17  6.32512E-17  2.5E-03
   3.00000E+03  1.39949E-16  9.58885E-18  1.42446E-17  5.33297E-17  1.7E-03
   3.50000E+03  1.27430E-16  7.77830E-18  1.21300E-17  4.61182E-17  2.4E-03
   4.00000E+03  1.17390E-16  6.46993E-18  1.04934E-17  4.06414E-17  3.3E-03
   4.50000E+03  1.09105E-16  5.48716E-18  9.19311E-18  3.63409E-17  6.9E-03
   5.00000E+03  1.02120E-16  4.72659E-18  8.13877E-18  3.28747E-17  1.0E-02
   6.00000E+03  9.09210E-17  3.63645E-18  6.54258E-18  2.76313E-17  1.1E-02
   7.00000E+03  8.22727E-17  2.90229E-18  5.40144E-18  2.38527E-17  1.1E-02
   8.00000E+03  7.53483E-17  2.38078E-18  4.55248E-18  2.10001E-17  6.6E-03
   9.00000E+03  6.96532E-17  1.99502E-18  3.90086E-18  1.87700E-17  1.0E-02
   1.00000E+04  6.48713E-17  1.70073E-18  3.38834E-18  1.69782E-17  1.2E-02
   1.25000E+04  5.51612E-17  1.20825E-18  2.49557E-18  1.37341E-17  5.8E-07
   1.50000E+04  4.86240E-17  9.10285E-19  1.93008E-18  1.15579E-17  9.0E-07
   1.75000E+04  4.36276E-17  7.14586E-19  1.54599E-18  9.99674E-18  1.0E-07
   2.00000E+04  3.96690E-17  5.78334E-19  1.27155E-18  8.82211E-18  1.0E-07
   2.50000E+04  3.37662E-17  4.04637E-19  9.11695E-19  7.17216E-18  1.4E-07
   3.00000E+04  2.95543E-17  3.01300E-19  6.91163E-19  6.06825E-18  5.4E-07
   3.50000E+04  2.63859E-17  2.34376E-19  5.45181E-19  5.27938E-18  1.0E-07
   4.00000E+04  2.39101E-17  1.88327E-19  4.43013E-19  4.68622E-18  1.0E-07
   4.50000E+04  2.19195E-17  1.55166E-19  3.68426E-19  4.22441E-18  1.0E-07
   5.00000E+04  2.02825E-17  1.30422E-19  3.12138E-19  3.85469E-18  4.3E-06
   6.00000E+04  1.77466E-17  9.64915E-20  2.33925E-19  3.29978E-18  6.8E-06
   7.00000E+04  1.58714E-17  7.47693E-20  1.83112E-19  2.90325E-18  4.5E-06
   8.00000E+04  1.44276E-17  5.99539E-20  1.48053E-19  2.60592E-18  8.1E-06
   9.00000E+04  1.32814E-17  4.93563E-20  1.22739E-19  2.37472E-18  2.5E-05
   1.00000E+05  1.23493E-17  4.14891E-20  1.03798E-19  2.18986E-18  6.3E-05
   1.25000E+05  1.06372E-17  2.87705E-20  7.28554E-20  1.85738E-18  3.9E-04
   1.50000E+05  9.47163E-18  2.13811E-20  5.46497E-20  1.63553E-18  1.5E-03
   1.75000E+05  8.62813E-18  1.66686E-20  4.29251E-20  1.47600E-18  4.4E-03
   2.00000E+05  7.99042E-18  1.34574E-20  3.48721E-20  1.35429E-18  1.0E-02
   2.50000E+05  7.09263E-18  9.44722E-21  2.47235E-20  1.17509E-18  3.3E-02
   3.00000E+05  6.49349E-18  7.10147E-21  1.87257E-20  1.09369E-18  1.6E-05
   3.50000E+05  6.06733E-18  5.59302E-21  1.48373E-20  1.01827E-18  1.5E-05
   4.00000E+05  5.75012E-18  4.55591E-21  1.21459E-20  9.62516E-19  1.0E-07
   4.50000E+05  5.50579E-18  3.80656E-21  1.01903E-20  9.19792E-19  1.5E-07
   5.00000E+05  5.31254E-18  3.24399E-21  8.71494E-21  8.86108E-19  4.1E-07
   6.00000E+05  5.02799E-18  2.46328E-21  6.65544E-21  8.36944E-19  1.0E-07
   7.00000E+05  4.83033E-18  1.95347E-21  5.30150E-21  8.02919E-19  1.0E-07
   8.00000E+05  4.68641E-18  1.59830E-21  4.35312E-21  7.78246E-19  1.0E-07
   9.00000E+05  4.57783E-18  1.33881E-21  3.65711E-21  7.59693E-19  1.0E-07
   1.00000E+06  4.49360E-18  1.14219E-21  3.12776E-21  7.45328E-19  1.0E-07
   1.25000E+06  4.36443E-18  8.19893E-22  2.25600E-21  0.00000E+00  1.0E-05
   1.50000E+06  4.27149E-18  6.19923E-22  1.71173E-21  0.00000E+00  1.0E-05
   1.75000E+06  4.20984E-18  4.88166E-22  1.35160E-21  0.00000E+00  1.0E-05
   2.00000E+06  4.16650E-18  3.96026E-22  1.09891E-21  0.00000E+00  1.0E-05
   2.50000E+06  4.11089E-18  2.77796E-22  7.73489E-22  0.00000E+00  1.0E-05
   3.00000E+06  4.07818E-18  2.06890E-22  5.77557E-22  0.00000E+00  1.0E-05
   3.50000E+06  4.05691E-18  1.60680E-22  4.49493E-22  0.00000E+00  1.0E-05
   4.00000E+06  4.04326E-18  1.28742E-22  3.60774E-22  0.00000E+00  1.0E-05
   4.50000E+06  4.03156E-18  1.05665E-22  2.96549E-22  0.00000E+00  1.0E-05
   5.00000E+06  4.03012E-18  8.84359E-23  2.48525E-22  0.00000E+00  1.0E-05
   6.00000E+06  4.01549E-18  6.47287E-23  1.82308E-22  0.00000E+00  1.0E-05
   7.00000E+06  4.00888E-18  4.95642E-23  1.39861E-22  0.00000E+00  1.0E-05
   8.00000E+06  4.00457E-18  3.92419E-23  1.10916E-22  0.00000E+00  1.0E-05
   9.00000E+06  4.00114E-18  3.18817E-23  9.02461E-23  0.00000E+00  1.0E-05
   1.00000E+07  3.99822E-18  2.64400E-23  7.49444E-23  0.00000E+00  1.0E-05
   1.25000E+07  3.99403E-18  1.77179E-23  5.03747E-23  0.00000E+00  1.0E-05
   1.50000E+07  3.99165E-18  1.27253E-23  3.62786E-23  0.00000E+00  1.0E-05
   1.75000E+07  3.99033E-18  9.59303E-24  2.74182E-23  0.00000E+00  1.0E-05
   2.00000E+07  3.98953E-18  7.49547E-24  2.14746E-23  0.00000E+00  1.0E-05
   2.50000E+07  3.98864E-18  4.94176E-24  1.42223E-23  0.00000E+00  1.0E-05
   3.00000E+07  3.98870E-18  3.50207E-24  1.01213E-23  0.00000E+00  1.0E-05
   3.50000E+07  3.98785E-18  2.60992E-24  7.57229E-24  0.00000E+00  1.0E-05
   4.00000E+07  3.98742E-18  2.01896E-24  5.87869E-24  0.00000E+00  1.0E-05
   4.50000E+07  3.98841E-18  1.60740E-24  4.69554E-24  0.00000E+00  1.0E-05
   5.00000E+07  3.98687E-18  1.30943E-24  3.83625E-24  0.00000E+00  1.0E-05
   6.00000E+07  3.98742E-18  9.16411E-25  2.69789E-24  0.00000E+00  1.0E-05
   7.00000E+07  3.98871E-18  6.76553E-25  1.99917E-24  0.00000E+00  1.0E-05
   8.00000E+07  3.98836E-18  5.19636E-25  1.53981E-24  0.00000E+00  1.0E-05
   9.00000E+07  3.98800E-18  4.11488E-25  1.22194E-24  0.00000E+00  1.0E-05
   1.00000E+08  3.98785E-18  3.33844E-25  9.92996E-25  0.00000E+00  1.0E-05
   1.25000E+08  3.98669E-18  2.14177E-25  6.38800E-25  0.00000E+00  1.0E-05
   1.50000E+08  3.98624E-18  1.48927E-25  4.44909E-25  0.00000E+00  1.0E-05
   1.75000E+08  3.98612E-18  1.09501E-25  3.27466E-25  0.00000E+00  1.0E-05
   2.00000E+08  3.98628E-18  8.38782E-26  2.51015E-25  0.00000E+00  1.0E-05
   2.50000E+08  3.98644E-18  5.37127E-26  1.60878E-25  0.00000E+00  1.0E-04
   3.00000E+08  3.98623E-18  3.73108E-26  1.11806E-25  0.00000E+00  2.0E-04
   3.50000E+08  3.98564E-18  2.74149E-26  8.21755E-26  0.00000E+00  1.5E-04
   4.00000E+08  3.98481E-18  2.09906E-26  6.29309E-26  0.00000E+00  1.0E+00
   4.50000E+08  3.98484E-18  1.65854E-26  4.97307E-26  0.00000E+00  1.0E+00
   5.00000E+08  3.98220E-18  1.34343E-26  4.02860E-26  0.00000E+00  1.0E+00
   6.00000E+08  3.97926E-18  9.33005E-27  2.79820E-26  0.00000E+00  1.0E+00
   7.00000E+08  3.97482E-18  6.85556E-27  2.05622E-26  0.00000E+00  1.0E+00
   8.00000E+08  3.96612E-18  5.24941E-27  1.57456E-26  0.00000E+00  1.0E+00
   9.00000E+08  3.95469E-18  4.14836E-27  1.24435E-26  0.00000E+00  1.0E+00
   1.00000E+09  3.94034E-18  3.36090E-27  1.00816E-26  0.00000E+00  1.0E+00
