 #
 # Subroutine ELSEPA. Elastic scattering of electrons and positrons
 #                    by neutral atoms and positive ions
 #
 # Projectile: positron
 # Kinetic energy = 1.25000E+07 eV = 4.59367E+05 a.u.
 #
 # WARNING: High-energy factorization with free-atom DF screening.
 #          Absorption, polarization and exchange corrections are
 #          switched off.
 #          Phase shifts are calculated for the bare nucleus.
 #          Scattering amplitudes are not evaluated.
 #
 # Element: Th,  Z =  90,  atomic weight = 2.32038E+02 g/mol
 #
 # Nuclear model: Fermi distribution
 #                Average radius = 6.57512E-13 cm
 #                Skin thickness = 5.46000E-14 cm
 #
 # Number of electrons = 90
 #
 # Total elastic cross section = 1.18811E-17 cm**2 = 4.24283E-01 a0**2
 # 1st transport cross section = 6.60020E-23 cm**2 = 2.35697E-06 a0**2
 # 2nd transport cross section = 1.91108E-22 cm**2 = 6.82460E-06 a0**2
 #
 #
 # Differential cross section:                       MU=(1-COS(THETA))/2
 #
 #  THETA        MU          DCS          DCS        Sherman      error
 #  (deg)                 (cm**2/sr)   (a0**2/sr)    function
 #----------------------------------------------------------------------
0.00000E+00 2.47204E-11
7.61557E-13 2.47187E-11
1.18994E-12 2.47178E-11
1.71346E-12 2.47166E-11
2.33225E-12 2.47152E-11
3.04617E-12 2.47136E-11
3.85530E-12 2.47118E-11
4.75964E-12 2.47098E-11
5.75917E-12 2.47076E-11
6.85391E-12 2.47052E-11
8.04379E-12 2.47026E-11
9.32893E-12 2.46997E-11
1.07092E-11 2.46967E-11
1.21847E-11 2.46935E-11
1.37554E-11 2.46900E-11
1.54213E-11 2.46863E-11
1.71823E-11 2.46824E-11
1.90386E-11 2.46784E-11
2.09900E-11 2.46741E-11
2.30367E-11 2.46696E-11
2.51785E-11 2.46649E-11
2.74156E-11 2.46600E-11
2.97478E-11 2.46548E-11
3.21752E-11 2.46495E-11
3.46979E-11 2.46440E-11
3.73157E-11 2.46382E-11
4.00286E-11 2.46323E-11
4.28368E-11 2.46261E-11
4.57402E-11 2.46198E-11
4.87388E-11 2.46132E-11
5.18325E-11 2.46065E-11
5.50215E-11 2.45995E-11
5.83057E-11 2.45923E-11
6.16850E-11 2.45849E-11
6.51595E-11 2.45774E-11
6.87293E-11 2.45696E-11
7.23943E-11 2.45616E-11
7.61544E-11 2.45534E-11
1.18991E-10 2.44604E-11
1.71347E-10 2.43476E-11
2.33223E-10 2.42153E-11
3.04617E-10 2.40641E-11
3.85531E-10 2.38947E-11
4.75965E-10 2.37076E-11
5.75917E-10 2.35035E-11
6.85389E-10 2.32832E-11
8.04380E-10 2.30476E-11
9.32891E-10 2.27974E-11
1.07092E-09 2.25336E-11
1.21847E-09 2.22570E-11
1.37554E-09 2.19687E-11
1.54213E-09 2.16696E-11
1.71823E-09 2.13605E-11
1.90386E-09 2.10423E-11
2.09900E-09 2.07159E-11
2.30367E-09 2.03829E-11
2.51785E-09 2.00437E-11
2.74156E-09 1.96990E-11
2.97478E-09 1.93497E-11
3.21752E-09 1.89974E-11
3.46978E-09 1.86425E-11
3.73156E-09 1.82855E-11
4.00286E-09 1.79270E-11
4.28368E-09 1.75685E-11
4.57402E-09 1.72108E-11
4.87388E-09 1.68536E-11
5.18326E-09 1.64976E-11
5.50215E-09 1.61438E-11
5.83057E-09 1.57936E-11
6.16850E-09 1.54461E-11
6.51596E-09 1.51017E-11
6.87293E-09 1.47609E-11
7.23942E-09 1.44260E-11
7.61544E-09 1.40953E-11
1.18991E-08 1.10915E-11
1.71347E-08 8.69939E-12
2.33223E-08 6.86977E-12
3.04617E-08 5.48895E-12
3.85531E-08 4.44357E-12
4.75965E-08 3.64293E-12
5.75917E-08 3.02053E-12
6.85389E-08 2.52864E-12
8.04380E-08 2.13525E-12
9.32891E-08 1.81655E-12
1.07092E-07 1.55576E-12
1.21847E-07 1.34089E-12
1.37554E-07 1.16102E-12
1.54213E-07 1.00513E-12
1.71823E-07 8.78815E-13
1.90386E-07 7.75436E-13
2.09900E-07 6.90039E-13
2.30367E-07 6.10430E-13
2.51785E-07 5.43141E-13
2.74156E-07 4.86604E-13
2.97478E-07 4.38754E-13
3.21752E-07 3.94890E-13
3.46978E-07 3.56085E-13
3.73156E-07 3.22796E-13
4.00286E-07 2.94074E-13
4.28368E-07 2.68028E-13
4.57402E-07 2.44133E-13
4.87388E-07 2.23297E-13
5.18325E-07 2.05043E-13
5.50215E-07 1.88657E-13
5.83057E-07 1.73215E-13
6.16850E-07 1.59569E-13
6.51596E-07 1.47467E-13
6.87293E-07 1.36685E-13
7.23942E-07 1.26347E-13
7.61543E-07 1.17111E-13
1.18991E-06 5.94455E-14
1.71347E-06 3.34960E-14
2.33223E-06 2.03285E-14
3.04617E-06 1.30242E-14
3.85531E-06 8.69307E-15
4.75964E-06 6.01645E-15
5.75916E-06 4.30208E-15
6.85388E-06 3.15848E-15
8.04378E-06 2.37284E-15
9.32888E-06 1.81876E-15
1.07092E-05 1.41828E-15
1.21846E-05 1.12249E-15
1.37553E-05 8.99721E-16
1.54212E-05 7.29407E-16
1.71822E-05 5.98145E-16
1.90385E-05 4.94821E-16
2.09899E-05 4.13418E-16
2.30365E-05 3.48319E-16
2.51783E-05 2.95243E-16
2.74153E-05 2.51994E-16
2.97475E-05 2.16347E-16
3.21749E-05 1.86776E-16
3.46974E-05 1.62182E-16
3.73152E-05 1.41443E-16
4.00281E-05 1.23981E-16
4.28362E-05 1.09116E-16
4.57395E-05 9.64064E-17
4.87380E-05 8.55014E-17
5.18317E-05 7.60593E-17
5.50205E-05 6.78957E-17
5.83045E-05 6.07823E-17
6.16838E-05 5.45768E-17
6.51582E-05 4.91465E-17
6.87277E-05 4.43668E-17
7.23925E-05 4.01603E-17
7.61524E-05 3.64346E-17
9.21439E-05 2.52340E-17
1.09658E-04 1.80227E-17
1.28695E-04 1.32157E-17
1.49255E-04 9.91096E-18
1.71338E-04 7.57808E-18
1.94942E-04 5.89332E-18
2.20070E-04 4.65145E-18
2.46720E-04 3.71980E-18
2.74892E-04 3.00991E-18
3.04586E-04 2.46111E-18
3.35803E-04 2.03167E-18
3.68542E-04 1.69169E-18
4.02802E-04 1.41976E-18
4.38585E-04 1.20021E-18
4.75889E-04 1.02138E-18
5.14715E-04 8.74575E-19
5.55063E-04 7.53156E-19
5.96931E-04 6.52043E-19
6.40321E-04 5.67305E-19
6.85233E-04 4.95865E-19
7.31665E-04 4.35301E-19
7.79618E-04 3.83686E-19
8.29092E-04 3.39485E-19
8.80086E-04 3.01456E-19
9.32601E-04 2.68595E-19
9.86636E-04 2.40083E-19
1.04219E-03 2.15248E-19
1.09927E-03 1.93537E-19
1.15786E-03 1.74489E-19
1.21797E-03 1.57724E-19
1.27961E-03 1.42920E-19
1.34276E-03 1.29809E-19
1.40743E-03 1.18164E-19
1.47362E-03 1.07793E-19
1.54133E-03 9.85324E-20
1.61056E-03 9.02430E-20
1.68131E-03 8.28051E-20
1.75357E-03 7.61160E-20
1.82735E-03 7.00869E-20
1.90265E-03 6.46417E-20
1.97947E-03 5.97135E-20
2.05780E-03 5.52448E-20
2.13765E-03 5.11852E-20
2.21902E-03 4.74905E-20
2.30190E-03 4.41222E-20
2.38630E-03 4.10463E-20
2.47222E-03 3.82329E-20
2.55965E-03 3.56557E-20
2.64859E-03 3.32912E-20
2.73905E-03 3.11189E-20
2.83103E-03 2.91201E-20
2.92452E-03 2.72787E-20
3.01952E-03 2.55800E-20
3.11604E-03 2.40110E-20
3.21407E-03 2.25599E-20
3.31362E-03 2.12164E-20
3.41468E-03 1.99710E-20
3.51725E-03 1.88153E-20
3.62133E-03 1.77416E-20
3.72692E-03 1.67431E-20
3.83403E-03 1.58136E-20
3.94265E-03 1.49473E-20
4.05278E-03 1.41393E-20
4.16442E-03 1.33849E-20
4.27757E-03 1.26799E-20
4.39223E-03 1.20205E-20
4.50840E-03 1.14032E-20
4.62608E-03 1.08249E-20
4.74527E-03 1.02825E-20
4.86597E-03 9.77350E-21
4.98817E-03 9.29545E-21
5.11188E-03 8.84613E-21
5.23711E-03 8.42348E-21
5.36383E-03 8.02563E-21
5.49207E-03 7.65087E-21
5.62181E-03 7.29761E-21
5.75306E-03 6.96439E-21
5.88581E-03 6.64986E-21
6.02007E-03 6.35279E-21
6.15583E-03 6.07202E-21
6.29310E-03 5.80651E-21
6.43187E-03 5.55526E-21
6.57214E-03 5.31738E-21
6.71392E-03 5.09201E-21
6.85720E-03 4.87839E-21
7.00198E-03 4.67578E-21
7.14827E-03 4.48352E-21
7.29605E-03 4.30097E-21
7.44534E-03 4.12756E-21
7.59612E-03 3.96275E-21
7.97965E-03 3.58509E-21
8.37255E-03 3.25109E-21
8.77480E-03 2.95485E-21
9.18641E-03 2.69138E-21
9.60736E-03 2.45644E-21
1.00376E-02 2.24641E-21
1.04773E-02 2.05820E-21
1.09262E-02 1.88915E-21
1.13844E-02 1.73699E-21
1.18520E-02 1.59972E-21
1.23288E-02 1.47566E-21
1.28150E-02 1.36329E-21
1.33104E-02 1.26134E-21
1.38150E-02 1.16866E-21
1.43290E-02 1.08428E-21
1.48521E-02 1.00731E-21
1.53845E-02 9.36995E-22
1.59262E-02 8.72657E-22
1.64770E-02 8.13699E-22
1.70371E-02 7.59594E-22
1.76063E-02 7.09871E-22
1.81848E-02 6.64114E-22
1.87724E-02 6.21951E-22
1.93692E-02 5.83049E-22
1.99751E-02 5.47113E-22
2.05901E-02 5.13877E-22
2.12143E-02 4.83102E-22
2.18476E-02 4.54574E-22
2.24900E-02 4.28098E-22
2.31415E-02 4.03503E-22
2.38021E-02 3.80631E-22
2.44717E-02 3.59340E-22
2.51504E-02 3.39501E-22
2.58382E-02 3.20997E-22
2.65349E-02 3.03723E-22
2.72407E-02 2.87582E-22
2.79555E-02 2.72488E-22
2.86793E-02 2.58360E-22
2.94120E-02 2.45125E-22
3.01537E-02 2.32716E-22
3.09043E-02 2.21074E-22
3.16639E-02 2.10142E-22
3.24324E-02 1.99869E-22
3.32098E-02 1.90209E-22
3.39961E-02 1.81118E-22
3.47912E-02 1.72557E-22
3.55952E-02 1.64489E-22
3.64081E-02 1.56882E-22
3.72297E-02 1.49703E-22
3.80602E-02 1.42925E-22
3.88995E-02 1.36521E-22
3.97476E-02 1.30467E-22
4.06044E-02 1.24741E-22
4.14700E-02 1.19320E-22
4.23443E-02 1.14187E-22
4.32273E-02 1.09324E-22
4.41190E-02 1.04712E-22
4.50194E-02 1.00338E-22
4.59284E-02 9.61866E-23
4.68461E-02 9.22446E-23
4.87074E-02 8.49395E-23
5.06030E-02 7.83332E-23
5.25328E-02 7.23478E-23
5.44967E-02 6.69145E-23
5.64946E-02 6.19746E-23
5.85262E-02 5.74749E-23
6.05914E-02 5.33700E-23
6.26901E-02 4.96193E-23
6.48222E-02 4.61869E-23
6.69873E-02 4.30415E-23
6.91854E-02 4.01547E-23
7.14163E-02 3.75018E-23
7.36799E-02 3.50606E-23
7.59760E-02 3.28113E-23
7.83043E-02 3.07363E-23
8.06647E-02 2.88197E-23
8.30571E-02 2.70474E-23
8.54812E-02 2.54067E-23
8.79369E-02 2.38861E-23
9.04240E-02 2.24753E-23
9.29422E-02 2.11651E-23
9.54915E-02 1.99471E-23
9.80716E-02 1.88136E-23
1.00682E-01 1.77578E-23
1.03323E-01 1.67734E-23
1.05995E-01 1.58549E-23
1.08696E-01 1.49970E-23
1.11427E-01 1.41950E-23
1.14188E-01 1.34447E-23
1.16978E-01 1.27422E-23
1.19797E-01 1.20839E-23
1.22645E-01 1.14666E-23
1.25522E-01 1.08872E-23
1.28428E-01 1.03431E-23
1.31361E-01 9.83173E-24
1.34323E-01 9.35076E-24
1.37313E-01 8.89810E-24
1.40330E-01 8.47180E-24
1.43375E-01 8.07005E-24
1.46447E-01 7.69123E-24
1.49545E-01 7.33378E-24
1.52671E-01 6.99631E-24
1.55823E-01 6.67752E-24
1.59001E-01 6.37622E-24
1.62205E-01 6.09131E-24
1.65435E-01 5.82181E-24
1.68690E-01 5.56622E-24
1.71970E-01 5.32404E-24
1.75276E-01 5.09449E-24
1.78606E-01 4.87679E-24
1.81961E-01 4.67023E-24
1.85340E-01 4.47414E-24
1.88743E-01 4.28789E-24
1.92169E-01 4.11092E-24
1.95619E-01 3.94267E-24
1.99092E-01 3.78265E-24
2.02589E-01 3.63038E-24
2.06107E-01 3.48543E-24
2.09649E-01 3.34738E-24
2.13212E-01 3.21585E-24
2.16797E-01 3.09048E-24
2.20404E-01 2.97094E-24
2.24032E-01 2.85689E-24
2.27680E-01 2.74806E-24
2.31350E-01 2.64416E-24
2.35040E-01 2.54493E-24
2.38751E-01 2.45012E-24
2.42481E-01 2.35951E-24
2.46231E-01 2.27287E-24
2.50000E-01 2.19001E-24
2.53788E-01 2.11072E-24
2.57595E-01 2.03484E-24
2.61421E-01 1.96219E-24
2.65264E-01 1.89260E-24
2.69126E-01 1.82594E-24
2.73005E-01 1.76204E-24
2.76901E-01 1.70079E-24
2.80814E-01 1.64205E-24
2.84744E-01 1.58571E-24
2.88691E-01 1.53164E-24
2.92653E-01 1.47974E-24
2.96632E-01 1.42991E-24
3.00625E-01 1.38206E-24
3.04634E-01 1.33608E-24
3.08658E-01 1.29191E-24
3.12697E-01 1.24944E-24
3.16749E-01 1.20861E-24
3.20816E-01 1.16935E-24
3.24896E-01 1.13157E-24
3.28990E-01 1.09523E-24
3.33097E-01 1.06024E-24
3.37216E-01 1.02657E-24
3.41348E-01 9.94135E-25
3.45492E-01 9.62898E-25
3.49647E-01 9.32804E-25
3.53814E-01 9.03803E-25
3.57992E-01 8.75850E-25
3.62181E-01 8.48900E-25
3.66381E-01 8.22912E-25
3.70590E-01 7.97846E-25
3.74810E-01 7.73663E-25
3.79039E-01 7.50328E-25
3.83277E-01 7.27805E-25
3.87524E-01 7.06062E-25
3.91780E-01 6.85068E-25
3.96044E-01 6.64792E-25
4.00316E-01 6.45206E-25
4.04596E-01 6.26283E-25
4.08882E-01 6.07996E-25
4.13176E-01 5.90321E-25
4.17476E-01 5.73234E-25
4.21783E-01 5.56712E-25
4.26095E-01 5.40734E-25
4.30413E-01 5.25278E-25
4.34737E-01 5.10326E-25
4.39065E-01 4.95857E-25
4.43398E-01 4.81854E-25
4.47736E-01 4.68299E-25
4.52077E-01 4.55177E-25
4.56422E-01 4.42469E-25
4.60770E-01 4.30163E-25
4.65122E-01 4.18242E-25
4.69476E-01 4.06693E-25
4.73832E-01 3.95503E-25
4.78190E-01 3.84658E-25
4.82550E-01 3.74147E-25
4.86912E-01 3.63957E-25
4.91274E-01 3.54076E-25
4.95637E-01 3.44495E-25
5.00000E-01 3.35203E-25
5.04363E-01 3.26189E-25
5.08726E-01 3.17444E-25
5.13088E-01 3.08958E-25
5.17450E-01 3.00724E-25
5.21810E-01 2.92732E-25
5.26168E-01 2.84973E-25
5.30524E-01 2.77441E-25
5.34878E-01 2.70127E-25
5.39230E-01 2.63025E-25
5.43578E-01 2.56126E-25
5.47923E-01 2.49425E-25
5.52264E-01 2.42915E-25
5.56602E-01 2.36589E-25
5.60935E-01 2.30442E-25
5.65263E-01 2.24468E-25
5.69587E-01 2.18662E-25
5.73905E-01 2.13017E-25
5.78217E-01 2.07528E-25
5.82524E-01 2.02192E-25
5.86824E-01 1.97002E-25
5.91118E-01 1.91954E-25
5.95404E-01 1.87044E-25
5.99684E-01 1.82268E-25
6.03956E-01 1.77621E-25
6.08220E-01 1.73099E-25
6.12476E-01 1.68699E-25
6.16723E-01 1.64417E-25
6.20961E-01 1.60248E-25
6.25190E-01 1.56190E-25
6.29410E-01 1.52240E-25
6.33619E-01 1.48393E-25
6.37819E-01 1.44648E-25
6.42008E-01 1.41000E-25
6.46186E-01 1.37447E-25
6.50353E-01 1.33987E-25
6.54508E-01 1.30616E-25
6.58652E-01 1.27332E-25
6.62784E-01 1.24132E-25
6.66903E-01 1.21014E-25
6.71010E-01 1.17975E-25
6.75104E-01 1.15014E-25
6.79184E-01 1.12128E-25
6.83251E-01 1.09314E-25
6.87303E-01 1.06571E-25
6.91342E-01 1.03897E-25
6.95366E-01 1.01290E-25
6.99375E-01 9.87475E-26
7.03368E-01 9.62683E-26
7.07347E-01 9.38504E-26
7.11309E-01 9.14921E-26
7.15256E-01 8.91919E-26
7.19186E-01 8.69480E-26
7.23099E-01 8.47590E-26
7.26995E-01 8.26233E-26
7.30874E-01 8.05396E-26
7.34736E-01 7.85064E-26
7.38579E-01 7.65223E-26
7.42405E-01 7.45860E-26
7.46212E-01 7.26962E-26
7.50000E-01 7.08518E-26
7.53769E-01 6.90515E-26
7.57519E-01 6.72941E-26
7.61249E-01 6.55786E-26
7.64960E-01 6.39037E-26
7.68650E-01 6.22686E-26
7.72320E-01 6.06720E-26
7.75968E-01 5.91131E-26
7.79596E-01 5.75909E-26
7.83203E-01 5.61044E-26
7.86788E-01 5.46527E-26
7.90351E-01 5.32349E-26
7.93893E-01 5.18502E-26
7.97411E-01 5.04978E-26
8.00908E-01 4.91768E-26
8.04381E-01 4.78865E-26
8.07831E-01 4.66261E-26
8.11257E-01 4.53948E-26
8.14660E-01 4.41919E-26
8.18039E-01 4.30169E-26
8.21394E-01 4.18688E-26
8.24724E-01 4.07472E-26
8.28030E-01 3.96514E-26
8.31310E-01 3.85807E-26
8.34565E-01 3.75345E-26
8.37795E-01 3.65124E-26
8.40999E-01 3.55136E-26
8.44177E-01 3.45377E-26
8.47329E-01 3.35841E-26
8.50455E-01 3.26523E-26
8.53553E-01 3.17418E-26
8.56625E-01 3.08520E-26
8.59670E-01 2.99826E-26
8.62687E-01 2.91331E-26
8.65677E-01 2.83029E-26
8.68639E-01 2.74917E-26
8.71572E-01 2.66991E-26
8.74478E-01 2.59246E-26
8.77355E-01 2.51677E-26
8.80203E-01 2.44283E-26
8.83022E-01 2.37057E-26
8.85812E-01 2.29998E-26
8.88573E-01 2.23100E-26
8.91304E-01 2.16362E-26
8.94005E-01 2.09778E-26
8.96677E-01 2.03347E-26
8.99318E-01 1.97064E-26
9.01928E-01 1.90927E-26
9.04508E-01 1.84932E-26
9.07058E-01 1.79078E-26
9.09576E-01 1.73360E-26
9.12063E-01 1.67775E-26
9.14519E-01 1.62322E-26
9.16943E-01 1.56998E-26
9.19335E-01 1.51800E-26
9.21696E-01 1.46725E-26
9.24024E-01 1.41772E-26
9.26320E-01 1.36937E-26
9.28584E-01 1.32219E-26
9.30815E-01 1.27614E-26
9.33013E-01 1.23122E-26
9.35178E-01 1.18740E-26
9.37310E-01 1.14466E-26
9.39409E-01 1.10298E-26
9.41474E-01 1.06234E-26
9.43505E-01 1.02272E-26
9.45503E-01 9.84100E-27
9.47467E-01 9.46468E-27
9.49397E-01 9.09804E-27
9.51293E-01 8.74092E-27
9.53154E-01 8.39315E-27
9.54981E-01 8.05459E-27
9.56773E-01 7.72506E-27
9.58530E-01 7.40443E-27
9.60252E-01 7.09256E-27
9.61940E-01 6.78930E-27
9.63592E-01 6.49452E-27
9.65209E-01 6.20808E-27
9.66790E-01 5.92987E-27
9.68336E-01 5.65976E-27
9.69846E-01 5.39764E-27
9.71321E-01 5.14337E-27
9.72759E-01 4.89687E-27
9.74162E-01 4.65801E-27
9.75528E-01 4.42669E-27
9.76858E-01 4.20282E-27
9.78152E-01 3.98629E-27
9.79410E-01 3.77702E-27
9.80631E-01 3.57491E-27
9.81815E-01 3.37988E-27
9.82963E-01 3.19184E-27
9.84074E-01 3.01071E-27
9.85148E-01 2.83642E-27
9.86185E-01 2.66889E-27
9.87185E-01 2.50805E-27
9.88148E-01 2.35383E-27
9.89074E-01 2.20617E-27
9.89962E-01 2.06500E-27
9.90814E-01 1.93026E-27
9.91627E-01 1.80190E-27
9.92404E-01 1.67987E-27
9.93143E-01 1.56411E-27
9.93844E-01 1.45457E-27
9.94508E-01 1.35120E-27
9.95134E-01 1.25398E-27
9.95722E-01 1.16284E-27
9.96273E-01 1.07777E-27
9.96786E-01 9.98708E-28
9.97261E-01 9.25637E-28
9.97698E-01 8.58524E-28
9.98097E-01 7.97339E-28
9.98459E-01 7.42057E-28
9.98782E-01 6.92656E-28
9.99067E-01 6.49115E-28
9.99315E-01 6.11416E-28
9.99524E-01 5.79543E-28
9.99695E-01 5.53483E-28
9.99829E-01 5.33225E-28
9.99924E-01 5.18762E-28
9.99981E-01 5.10086E-28
1.00000E+00 5.07194E-28
