 #
 # Subroutine ELSEPA. Elastic scattering of electrons and positrons
 #                    by neutral atoms and positive ions
 #
 # Projectile: positron
 # Kinetic energy = 1.00000E+07 eV = 3.67493E+05 a.u.
 #
 # WARNING: High-energy factorization with free-atom DF screening.
 #          Absorption, polarization and exchange corrections are
 #          switched off.
 #          Phase shifts are calculated for the bare nucleus.
 #          Scattering amplitudes are not evaluated.
 #
 # Element: Th,  Z =  90,  atomic weight = 2.32038E+02 g/mol
 #
 # Nuclear model: Fermi distribution
 #                Average radius = 6.57512E-13 cm
 #                Skin thickness = 5.46000E-14 cm
 #
 # Number of electrons = 90
 #
 # Total elastic cross section = 1.18889E-17 cm**2 = 4.24559E-01 a0**2
 # 1st transport cross section = 9.72905E-23 cm**2 = 3.47431E-06 a0**2
 # 2nd transport cross section = 2.81206E-22 cm**2 = 1.00421E-05 a0**2
 #
 #
 # Differential cross section:                       MU=(1-COS(THETA))/2
 #
 #  THETA        MU          DCS          DCS        Sherman      error
 #  (deg)                 (cm**2/sr)   (a0**2/sr)    function
 #----------------------------------------------------------------------
0.00000E+00 1.61333E-11
7.61557E-13 1.61325E-11
1.18994E-12 1.61321E-11
1.71346E-12 1.61316E-11
2.33225E-12 1.61311E-11
3.04617E-12 1.61304E-11
3.85530E-12 1.61296E-11
4.75964E-12 1.61288E-11
5.75917E-12 1.61278E-11
6.85391E-12 1.61268E-11
8.04379E-12 1.61257E-11
9.32893E-12 1.61245E-11
1.07092E-11 1.61232E-11
1.21847E-11 1.61218E-11
1.37554E-11 1.61203E-11
1.54213E-11 1.61187E-11
1.71823E-11 1.61171E-11
1.90386E-11 1.61153E-11
2.09900E-11 1.61135E-11
2.30367E-11 1.61116E-11
2.51785E-11 1.61096E-11
2.74156E-11 1.61075E-11
2.97478E-11 1.61053E-11
3.21752E-11 1.61030E-11
3.46979E-11 1.61007E-11
3.73157E-11 1.60982E-11
4.00286E-11 1.60957E-11
4.28368E-11 1.60931E-11
4.57402E-11 1.60903E-11
4.87388E-11 1.60875E-11
5.18325E-11 1.60847E-11
5.50215E-11 1.60817E-11
5.83057E-11 1.60786E-11
6.16850E-11 1.60755E-11
6.51595E-11 1.60722E-11
6.87293E-11 1.60689E-11
7.23943E-11 1.60655E-11
7.61544E-11 1.60620E-11
1.18991E-10 1.60222E-11
1.71347E-10 1.59738E-11
2.33223E-10 1.59169E-11
3.04617E-10 1.58517E-11
3.85531E-10 1.57784E-11
4.75965E-10 1.56970E-11
5.75917E-10 1.56079E-11
6.85389E-10 1.55112E-11
8.04380E-10 1.54072E-11
9.32891E-10 1.52962E-11
1.07092E-09 1.51784E-11
1.21847E-09 1.50541E-11
1.37554E-09 1.49235E-11
1.54213E-09 1.47871E-11
1.71823E-09 1.46450E-11
1.90386E-09 1.44977E-11
2.09900E-09 1.43454E-11
2.30367E-09 1.41885E-11
2.51785E-09 1.40273E-11
2.74156E-09 1.38620E-11
2.97478E-09 1.36930E-11
3.21752E-09 1.35206E-11
3.46978E-09 1.33455E-11
3.73156E-09 1.31676E-11
4.00286E-09 1.29873E-11
4.28368E-09 1.28048E-11
4.57402E-09 1.26204E-11
4.87388E-09 1.24348E-11
5.18326E-09 1.22482E-11
5.50215E-09 1.20605E-11
5.83057E-09 1.18720E-11
6.16850E-09 1.16830E-11
6.51596E-09 1.14940E-11
6.87293E-09 1.13054E-11
7.23942E-09 1.11170E-11
7.61544E-09 1.09290E-11
1.18991E-08 9.11839E-12
1.71347E-08 7.51661E-12
2.33223E-08 6.17501E-12
3.04617E-08 5.08643E-12
3.85531E-08 4.21652E-12
4.75965E-08 3.52401E-12
5.75917E-08 2.97076E-12
6.85389E-08 2.52522E-12
8.04380E-08 2.16286E-12
9.32891E-08 1.86520E-12
1.07092E-07 1.61836E-12
1.21847E-07 1.41187E-12
1.37554E-07 1.23783E-12
1.54213E-07 1.09017E-12
1.71823E-07 9.64150E-13
1.90386E-07 8.56065E-13
2.09900E-07 7.62435E-13
2.30367E-07 6.77865E-13
2.51785E-07 6.06637E-13
2.74156E-07 5.46251E-13
2.97478E-07 4.94735E-13
3.21752E-07 4.50523E-13
3.46978E-07 4.07961E-13
3.73156E-07 3.70612E-13
4.00286E-07 3.38238E-13
4.28368E-07 3.10038E-13
4.57402E-07 2.85360E-13
4.87388E-07 2.62102E-13
5.18325E-07 2.40826E-13
5.50215E-07 2.22057E-13
5.83057E-07 2.05439E-13
6.16850E-07 1.90669E-13
6.51596E-07 1.76951E-13
6.87293E-07 1.63974E-13
7.23942E-07 1.52370E-13
7.61543E-07 1.41961E-13
1.18991E-06 7.43163E-14
1.71347E-06 4.27244E-14
2.33223E-06 2.64026E-14
3.04617E-06 1.72333E-14
3.85531E-06 1.17195E-14
4.75964E-06 8.23110E-15
5.75916E-06 5.93692E-15
6.85388E-06 4.38298E-15
8.04378E-06 3.30916E-15
9.32888E-06 2.54685E-15
1.07092E-05 1.99266E-15
1.21846E-05 1.58210E-15
1.37553E-05 1.27290E-15
1.54212E-05 1.03627E-15
1.71822E-05 8.52365E-16
1.90385E-05 7.07012E-16
2.09899E-05 5.92191E-16
2.30365E-05 4.99356E-16
2.51783E-05 4.24629E-16
2.74153E-05 3.62711E-16
2.97475E-05 3.12069E-16
3.21749E-05 2.69718E-16
3.46974E-05 2.34562E-16
3.73152E-05 2.04878E-16
4.00281E-05 1.79878E-16
4.28362E-05 1.58541E-16
4.57395E-05 1.40326E-16
4.87380E-05 1.24626E-16
5.18317E-05 1.11072E-16
5.50205E-05 9.93000E-17
5.83045E-05 8.90461E-17
6.16838E-05 8.00848E-17
6.51582E-05 7.22166E-17
6.87277E-05 6.52991E-17
7.23925E-05 5.91788E-17
7.61524E-05 5.37673E-17
9.21439E-05 3.73979E-17
1.09658E-04 2.67921E-17
1.28695E-04 1.96863E-17
1.49255E-04 1.47859E-17
1.71338E-04 1.13198E-17
1.94942E-04 8.81324E-18
2.20070E-04 6.96415E-18
2.46720E-04 5.57583E-18
2.74892E-04 4.51703E-18
3.04586E-04 3.69791E-18
3.35803E-04 3.05625E-18
3.68542E-04 2.54771E-18
4.02802E-04 2.14050E-18
4.38585E-04 1.81131E-18
4.75889E-04 1.54286E-18
5.14715E-04 1.32224E-18
5.55063E-04 1.13956E-18
5.96931E-04 9.87278E-19
6.40321E-04 8.59527E-19
6.85233E-04 7.51722E-19
7.31665E-04 6.60255E-19
7.79618E-04 5.82239E-19
8.29092E-04 5.15384E-19
8.80086E-04 4.57824E-19
9.32601E-04 4.08058E-19
9.86636E-04 3.64855E-19
1.04219E-03 3.27205E-19
1.09927E-03 2.94276E-19
1.15786E-03 2.65375E-19
1.21797E-03 2.39929E-19
1.27961E-03 2.17452E-19
1.34276E-03 1.97540E-19
1.40743E-03 1.79850E-19
1.47362E-03 1.64092E-19
1.54133E-03 1.50018E-19
1.61056E-03 1.37417E-19
1.68131E-03 1.26108E-19
1.75357E-03 1.15936E-19
1.82735E-03 1.06766E-19
1.90265E-03 9.84825E-20
1.97947E-03 9.09848E-20
2.05780E-03 8.41853E-20
2.13765E-03 7.80070E-20
2.21902E-03 7.23839E-20
2.30190E-03 6.72571E-20
2.38630E-03 6.25747E-20
2.47222E-03 5.82913E-20
2.55965E-03 5.43672E-20
2.64859E-03 5.07667E-20
2.73905E-03 4.74585E-20
2.83103E-03 4.44142E-20
2.92452E-03 4.16094E-20
3.01952E-03 3.90218E-20
3.11604E-03 3.66316E-20
3.21407E-03 3.44207E-20
3.31362E-03 3.23735E-20
3.41468E-03 3.04758E-20
3.51725E-03 2.87145E-20
3.62133E-03 2.70781E-20
3.72692E-03 2.55561E-20
3.83403E-03 2.41391E-20
3.94265E-03 2.28186E-20
4.05278E-03 2.15867E-20
4.16442E-03 2.04365E-20
4.27757E-03 1.93615E-20
4.39223E-03 1.83559E-20
4.50840E-03 1.74145E-20
4.62608E-03 1.65324E-20
4.74527E-03 1.57051E-20
4.86597E-03 1.49287E-20
4.98817E-03 1.41995E-20
5.11188E-03 1.35140E-20
5.23711E-03 1.28691E-20
5.36383E-03 1.22621E-20
5.49207E-03 1.16902E-20
5.62181E-03 1.11511E-20
5.75306E-03 1.06426E-20
5.88581E-03 1.01625E-20
6.02007E-03 9.70912E-21
6.15583E-03 9.28056E-21
6.29310E-03 8.87525E-21
6.43187E-03 8.49168E-21
6.57214E-03 8.12850E-21
6.71392E-03 7.78442E-21
6.85720E-03 7.45823E-21
7.00198E-03 7.14885E-21
7.14827E-03 6.85524E-21
7.29605E-03 6.57646E-21
7.44534E-03 6.31163E-21
7.59612E-03 6.05990E-21
7.97965E-03 5.48303E-21
8.37255E-03 4.97278E-21
8.77480E-03 4.52016E-21
9.18641E-03 4.11755E-21
9.60736E-03 3.75849E-21
1.00376E-02 3.43747E-21
1.04773E-02 3.14976E-21
1.09262E-02 2.89133E-21
1.13844E-02 2.65867E-21
1.18520E-02 2.44878E-21
1.23288E-02 2.25905E-21
1.28150E-02 2.08720E-21
1.33104E-02 1.93125E-21
1.38150E-02 1.78949E-21
1.43290E-02 1.66040E-21
1.48521E-02 1.54264E-21
1.53845E-02 1.43505E-21
1.59262E-02 1.33660E-21
1.64770E-02 1.24638E-21
1.70371E-02 1.16357E-21
1.76063E-02 1.08747E-21
1.81848E-02 1.01743E-21
1.87724E-02 9.52891E-22
1.93692E-02 8.93340E-22
1.99751E-02 8.38324E-22
2.05901E-02 7.87438E-22
2.12143E-02 7.40318E-22
2.18476E-02 6.96635E-22
2.24900E-02 6.56094E-22
2.31415E-02 6.18431E-22
2.38021E-02 5.83402E-22
2.44717E-02 5.50794E-22
2.51504E-02 5.20407E-22
2.58382E-02 4.92066E-22
2.65349E-02 4.65606E-22
2.72407E-02 4.40882E-22
2.79555E-02 4.17759E-22
2.86793E-02 3.96114E-22
2.94120E-02 3.75838E-22
3.01537E-02 3.56827E-22
3.09043E-02 3.38989E-22
3.16639E-02 3.22239E-22
3.24324E-02 3.06499E-22
3.32098E-02 2.91696E-22
3.39961E-02 2.77765E-22
3.47912E-02 2.64645E-22
3.55952E-02 2.52281E-22
3.64081E-02 2.40622E-22
3.72297E-02 2.29620E-22
3.80602E-02 2.19232E-22
3.88995E-02 2.09416E-22
3.97476E-02 2.00137E-22
4.06044E-02 1.91359E-22
4.14700E-02 1.83050E-22
4.23443E-02 1.75181E-22
4.32273E-02 1.67725E-22
4.41190E-02 1.60656E-22
4.50194E-02 1.53950E-22
4.59284E-02 1.47586E-22
4.68461E-02 1.41542E-22
4.87074E-02 1.30342E-22
5.06030E-02 1.20212E-22
5.25328E-02 1.11034E-22
5.44967E-02 1.02702E-22
5.64946E-02 9.51264E-23
5.85262E-02 8.82257E-23
6.05914E-02 8.19298E-23
6.26901E-02 7.61769E-23
6.48222E-02 7.09123E-23
6.69873E-02 6.60872E-23
6.91854E-02 6.16588E-23
7.14163E-02 5.75891E-23
7.36799E-02 5.38439E-23
7.59760E-02 5.03928E-23
7.83043E-02 4.72091E-23
8.06647E-02 4.42684E-23
8.30571E-02 4.15487E-23
8.54812E-02 3.90311E-23
8.79369E-02 3.66976E-23
9.04240E-02 3.45325E-23
9.29422E-02 3.25217E-23
9.54915E-02 3.06523E-23
9.80716E-02 2.89124E-23
1.00682E-01 2.72918E-23
1.03323E-01 2.57808E-23
1.05995E-01 2.43707E-23
1.08696E-01 2.30537E-23
1.11427E-01 2.18225E-23
1.14188E-01 2.06705E-23
1.16978E-01 1.95919E-23
1.19797E-01 1.85811E-23
1.22645E-01 1.76331E-23
1.25522E-01 1.67434E-23
1.28428E-01 1.59078E-23
1.31361E-01 1.51224E-23
1.34323E-01 1.43837E-23
1.37313E-01 1.36884E-23
1.40330E-01 1.30335E-23
1.43375E-01 1.24164E-23
1.46447E-01 1.18343E-23
1.49545E-01 1.12851E-23
1.52671E-01 1.07665E-23
1.55823E-01 1.02765E-23
1.59001E-01 9.81336E-24
1.62205E-01 9.37526E-24
1.65435E-01 8.96062E-24
1.68690E-01 8.56799E-24
1.71970E-01 8.19600E-24
1.75276E-01 7.84337E-24
1.78606E-01 7.50893E-24
1.81961E-01 7.19157E-24
1.85340E-01 6.89029E-24
1.88743E-01 6.60411E-24
1.92169E-01 6.33216E-24
1.95619E-01 6.07362E-24
1.99092E-01 5.82769E-24
2.02589E-01 5.59367E-24
2.06107E-01 5.37088E-24
2.09649E-01 5.15869E-24
2.13212E-01 4.95650E-24
2.16797E-01 4.76378E-24
2.20404E-01 4.58000E-24
2.24032E-01 4.40468E-24
2.27680E-01 4.23735E-24
2.31350E-01 4.07761E-24
2.35040E-01 3.92504E-24
2.38751E-01 3.77927E-24
2.42481E-01 3.63996E-24
2.46231E-01 3.50678E-24
2.50000E-01 3.37941E-24
2.53788E-01 3.25758E-24
2.57595E-01 3.14079E-24
2.61421E-01 3.02895E-24
2.65264E-01 2.92183E-24
2.69126E-01 2.81919E-24
2.73005E-01 2.72082E-24
2.76901E-01 2.62650E-24
2.80814E-01 2.53605E-24
2.84744E-01 2.44928E-24
2.88691E-01 2.36601E-24
2.92653E-01 2.28607E-24
2.96632E-01 2.20932E-24
3.00625E-01 2.13560E-24
3.04634E-01 2.06478E-24
3.08658E-01 1.99672E-24
3.12697E-01 1.93129E-24
3.16749E-01 1.86838E-24
3.20816E-01 1.80787E-24
3.24896E-01 1.74966E-24
3.28990E-01 1.69364E-24
3.33097E-01 1.63972E-24
3.37216E-01 1.58781E-24
3.41348E-01 1.53782E-24
3.45492E-01 1.48966E-24
3.49647E-01 1.44326E-24
3.53814E-01 1.39854E-24
3.57992E-01 1.35544E-24
3.62181E-01 1.31388E-24
3.66381E-01 1.27380E-24
3.70590E-01 1.23514E-24
3.74810E-01 1.19783E-24
3.79039E-01 1.16184E-24
3.83277E-01 1.12709E-24
3.87524E-01 1.09354E-24
3.91780E-01 1.06115E-24
3.96044E-01 1.02986E-24
4.00316E-01 9.99632E-25
4.04596E-01 9.70426E-25
4.08882E-01 9.42200E-25
4.13176E-01 9.14916E-25
4.17476E-01 8.88537E-25
4.21783E-01 8.63028E-25
4.26095E-01 8.38356E-25
4.30413E-01 8.14490E-25
4.34737E-01 7.91398E-25
4.39065E-01 7.69052E-25
4.43398E-01 7.47423E-25
4.47736E-01 7.26484E-25
4.52077E-01 7.06211E-25
4.56422E-01 6.86578E-25
4.60770E-01 6.67563E-25
4.65122E-01 6.49142E-25
4.69476E-01 6.31294E-25
4.73832E-01 6.13998E-25
4.78190E-01 5.97235E-25
4.82550E-01 5.80986E-25
4.86912E-01 5.65231E-25
4.91274E-01 5.49955E-25
4.95637E-01 5.35140E-25
5.00000E-01 5.20770E-25
5.04363E-01 5.06829E-25
5.08726E-01 4.93303E-25
5.13088E-01 4.80177E-25
5.17450E-01 4.67438E-25
5.21810E-01 4.55072E-25
5.26168E-01 4.43067E-25
5.30524E-01 4.31411E-25
5.34878E-01 4.20092E-25
5.39230E-01 4.09099E-25
5.43578E-01 3.98421E-25
5.47923E-01 3.88047E-25
5.52264E-01 3.77968E-25
5.56602E-01 3.68174E-25
5.60935E-01 3.58655E-25
5.65263E-01 3.49403E-25
5.69587E-01 3.40409E-25
5.73905E-01 3.31665E-25
5.78217E-01 3.23162E-25
5.82524E-01 3.14894E-25
5.86824E-01 3.06853E-25
5.91118E-01 2.99031E-25
5.95404E-01 2.91422E-25
5.99684E-01 2.84019E-25
6.03956E-01 2.76815E-25
6.08220E-01 2.69805E-25
6.12476E-01 2.62983E-25
6.16723E-01 2.56343E-25
6.20961E-01 2.49878E-25
6.25190E-01 2.43585E-25
6.29410E-01 2.37457E-25
6.33619E-01 2.31491E-25
6.37819E-01 2.25680E-25
6.42008E-01 2.20020E-25
6.46186E-01 2.14507E-25
6.50353E-01 2.09137E-25
6.54508E-01 2.03905E-25
6.58652E-01 1.98807E-25
6.62784E-01 1.93840E-25
6.66903E-01 1.88999E-25
6.71010E-01 1.84281E-25
6.75104E-01 1.79683E-25
6.79184E-01 1.75200E-25
6.83251E-01 1.70830E-25
6.87303E-01 1.66569E-25
6.91342E-01 1.62415E-25
6.95366E-01 1.58364E-25
6.99375E-01 1.54413E-25
7.03368E-01 1.50561E-25
7.07347E-01 1.46803E-25
7.11309E-01 1.43137E-25
7.15256E-01 1.39561E-25
7.19186E-01 1.36073E-25
7.23099E-01 1.32669E-25
7.26995E-01 1.29348E-25
7.30874E-01 1.26107E-25
7.34736E-01 1.22945E-25
7.38579E-01 1.19858E-25
7.42405E-01 1.16846E-25
7.46212E-01 1.13906E-25
7.50000E-01 1.11036E-25
7.53769E-01 1.08234E-25
7.57519E-01 1.05499E-25
7.61249E-01 1.02829E-25
7.64960E-01 1.00221E-25
7.68650E-01 9.76754E-26
7.72320E-01 9.51894E-26
7.75968E-01 9.27618E-26
7.79596E-01 9.03911E-26
7.83203E-01 8.80757E-26
7.86788E-01 8.58143E-26
7.90351E-01 8.36056E-26
7.93893E-01 8.14482E-26
7.97411E-01 7.93407E-26
8.00908E-01 7.72821E-26
8.04381E-01 7.52710E-26
8.07831E-01 7.33063E-26
8.11257E-01 7.13868E-26
8.14660E-01 6.95115E-26
8.18039E-01 6.76792E-26
8.21394E-01 6.58889E-26
8.24724E-01 6.41397E-26
8.28030E-01 6.24304E-26
8.31310E-01 6.07602E-26
8.34565E-01 5.91282E-26
8.37795E-01 5.75334E-26
8.40999E-01 5.59749E-26
8.44177E-01 5.44519E-26
8.47329E-01 5.29636E-26
8.50455E-01 5.15091E-26
8.53553E-01 5.00878E-26
8.56625E-01 4.86987E-26
8.59670E-01 4.73412E-26
8.62687E-01 4.60146E-26
8.65677E-01 4.47182E-26
8.68639E-01 4.34512E-26
8.71572E-01 4.22131E-26
8.74478E-01 4.10032E-26
8.77355E-01 3.98208E-26
8.80203E-01 3.86654E-26
8.83022E-01 3.75364E-26
8.85812E-01 3.64331E-26
8.88573E-01 3.53551E-26
8.91304E-01 3.43018E-26
8.94005E-01 3.32727E-26
8.96677E-01 3.22672E-26
8.99318E-01 3.12849E-26
9.01928E-01 3.03252E-26
9.04508E-01 2.93878E-26
9.07058E-01 2.84721E-26
9.09576E-01 2.75778E-26
9.12063E-01 2.67043E-26
9.14519E-01 2.58512E-26
9.16943E-01 2.50182E-26
9.19335E-01 2.42049E-26
9.21696E-01 2.34108E-26
9.24024E-01 2.26356E-26
9.26320E-01 2.18789E-26
9.28584E-01 2.11404E-26
9.30815E-01 2.04197E-26
9.33013E-01 1.97165E-26
9.35178E-01 1.90305E-26
9.37310E-01 1.83612E-26
9.39409E-01 1.77086E-26
9.41474E-01 1.70721E-26
9.43505E-01 1.64516E-26
9.45503E-01 1.58468E-26
9.47467E-01 1.52574E-26
9.49397E-01 1.46831E-26
9.51293E-01 1.41236E-26
9.53154E-01 1.35788E-26
9.54981E-01 1.30483E-26
9.56773E-01 1.25320E-26
9.58530E-01 1.20295E-26
9.60252E-01 1.15408E-26
9.61940E-01 1.10655E-26
9.63592E-01 1.06035E-26
9.65209E-01 1.01545E-26
9.66790E-01 9.71844E-27
9.68336E-01 9.29500E-27
9.69846E-01 8.88406E-27
9.71321E-01 8.48542E-27
9.72759E-01 8.09892E-27
9.74162E-01 7.72439E-27
9.75528E-01 7.36167E-27
9.76858E-01 7.01060E-27
9.78152E-01 6.67103E-27
9.79410E-01 6.34282E-27
9.80631E-01 6.02583E-27
9.81815E-01 5.71992E-27
9.82963E-01 5.42497E-27
9.84074E-01 5.14084E-27
9.85148E-01 4.86743E-27
9.86185E-01 4.60461E-27
9.87185E-01 4.35228E-27
9.88148E-01 4.11032E-27
9.89074E-01 3.87864E-27
9.89962E-01 3.65714E-27
9.90814E-01 3.44573E-27
9.91627E-01 3.24431E-27
9.92404E-01 3.05282E-27
9.93143E-01 2.87116E-27
9.93844E-01 2.69926E-27
9.94508E-01 2.53705E-27
9.95134E-01 2.38446E-27
9.95722E-01 2.24143E-27
9.96273E-01 2.10791E-27
9.96786E-01 1.98383E-27
9.97261E-01 1.86914E-27
9.97698E-01 1.76380E-27
9.98097E-01 1.66777E-27
9.98459E-01 1.58100E-27
9.98782E-01 1.50345E-27
9.99067E-01 1.43511E-27
9.99315E-01 1.37594E-27
9.99524E-01 1.32590E-27
9.99695E-01 1.28500E-27
9.99829E-01 1.25320E-27
9.99924E-01 1.23050E-27
9.99981E-01 1.21688E-27
1.00000E+00 1.21234E-27
