 #
 # Subroutine ELSEPA. Elastic scattering of electrons and positrons
 #                    by neutral atoms and positive ions
 #
 # Projectile: positron
 # Kinetic energy = 1.50000E+08 eV = 5.51240E+06 a.u.
 #
 # WARNING: High-energy factorization with free-atom DF screening.
 #          Absorption, polarization and exchange corrections are
 #          switched off.
 #          Phase shifts are calculated for the bare nucleus.
 #          Scattering amplitudes are not evaluated.
 #
 # Element: Th,  Z =  90,  atomic weight = 2.32038E+02 g/mol
 #
 # Nuclear model: Fermi distribution
 #                Average radius = 6.57512E-13 cm
 #                Skin thickness = 5.46000E-14 cm
 #
 # Number of electrons = 90
 #
 # Total elastic cross section = 1.18680E-17 cm**2 = 4.23813E-01 a0**2
 # 1st transport cross section = 6.49737E-25 cm**2 = 2.32025E-08 a0**2
 # 2nd transport cross section = 1.94050E-24 cm**2 = 6.92966E-08 a0**2
 #
 #
 # Differential cross section:                       MU=(1-COS(THETA))/2
 #
 #  THETA        MU          DCS          DCS        Sherman      error
 #  (deg)                 (cm**2/sr)   (a0**2/sr)    function
 #----------------------------------------------------------------------
0.00000E+00 3.30805E-09
7.61557E-13 3.27818E-09
1.18994E-12 3.26159E-09
1.71346E-12 3.24151E-09
2.33225E-12 3.21802E-09
3.04617E-12 3.19127E-09
3.85530E-12 3.16138E-09
4.75964E-12 3.12851E-09
5.75917E-12 3.09282E-09
6.85391E-12 3.05448E-09
8.04379E-12 3.01368E-09
9.32893E-12 2.97059E-09
1.07092E-11 2.92544E-09
1.21847E-11 2.87841E-09
1.37554E-11 2.82966E-09
1.54213E-11 2.77939E-09
1.71823E-11 2.72789E-09
1.90386E-11 2.67527E-09
2.09900E-11 2.62170E-09
2.30367E-11 2.56737E-09
2.51785E-11 2.51259E-09
2.74156E-11 2.45736E-09
2.97478E-11 2.40186E-09
3.21752E-11 2.34633E-09
3.46979E-11 2.29092E-09
3.73157E-11 2.23564E-09
4.00286E-11 2.18062E-09
4.28368E-11 2.12619E-09
4.57402E-11 2.07227E-09
4.87388E-11 2.01890E-09
5.18325E-11 1.96623E-09
5.50215E-11 1.91453E-09
5.83057E-11 1.86360E-09
6.16850E-11 1.81350E-09
6.51595E-11 1.76445E-09
6.87293E-11 1.71648E-09
7.23943E-11 1.66946E-09
7.61544E-11 1.62343E-09
1.18991E-10 1.22529E-09
1.71347E-10 9.30927E-10
2.33223E-10 7.18240E-10
3.04617E-10 5.63989E-10
3.85531E-10 4.50157E-10
4.75965E-10 3.64464E-10
5.75917E-10 2.98695E-10
6.85389E-10 2.47343E-10
8.04380E-10 2.06676E-10
9.32891E-10 1.74142E-10
1.07092E-09 1.47262E-10
1.21847E-09 1.25273E-10
1.37554E-09 1.07932E-10
1.54213E-09 9.40796E-11
1.71823E-09 8.17561E-11
1.90386E-09 7.14613E-11
2.09900E-09 6.30349E-11
2.30367E-09 5.59773E-11
2.51785E-09 4.95170E-11
2.74156E-09 4.41212E-11
2.97478E-09 3.95794E-11
3.21752E-09 3.55454E-11
3.46978E-09 3.19319E-11
3.73156E-09 2.88440E-11
4.00286E-09 2.61892E-11
4.28368E-09 2.37247E-11
4.57402E-09 2.15596E-11
4.87388E-09 1.96762E-11
5.18326E-09 1.80078E-11
5.50215E-09 1.64559E-11
5.83057E-09 1.50921E-11
6.16850E-09 1.38888E-11
6.51596E-09 1.27884E-11
6.87293E-09 1.17844E-11
7.23942E-09 1.08912E-11
7.61544E-09 1.00938E-11
1.18991E-08 5.02864E-12
1.71347E-08 2.79352E-12
2.33223E-08 1.67040E-12
3.04617E-08 1.05473E-12
3.85531E-08 6.98191E-13
4.75965E-08 4.81182E-13
5.75917E-08 3.42607E-13
6.85389E-08 2.50830E-13
8.04380E-08 1.88002E-13
9.32891E-08 1.43711E-13
1.07092E-07 1.11659E-13
1.21847E-07 8.82046E-14
1.37554E-07 7.05324E-14
1.54213E-07 5.71242E-14
1.71823E-07 4.67857E-14
1.90386E-07 3.86651E-14
2.09900E-07 3.22491E-14
2.30367E-07 2.71227E-14
2.51785E-07 2.29687E-14
2.74156E-07 1.95823E-14
2.97478E-07 1.68016E-14
3.21752E-07 1.44941E-14
3.46978E-07 1.25676E-14
3.73156E-07 1.09520E-14
4.00286E-07 9.58669E-15
4.28368E-07 8.42563E-15
4.57402E-07 7.43567E-15
4.87388E-07 6.58676E-15
5.18325E-07 5.85428E-15
5.50215E-07 5.22120E-15
5.83057E-07 4.67163E-15
6.16850E-07 4.19176E-15
6.51596E-07 3.77221E-15
6.87293E-07 3.40404E-15
7.23942E-07 3.07948E-15
7.61543E-07 2.79280E-15
1.18991E-06 1.17745E-15
1.71347E-06 5.79503E-16
2.33223E-06 3.17340E-16
3.04617E-06 1.87937E-16
3.85531E-06 1.18213E-16
4.75964E-06 7.80048E-17
5.75916E-06 5.35201E-17
6.85388E-06 3.79292E-17
8.04378E-06 2.76236E-17
9.32888E-06 2.05922E-17
1.07092E-05 1.56625E-17
1.21846E-05 1.21237E-17
1.37553E-05 9.53018E-18
1.54212E-05 7.59457E-18
1.71822E-05 6.12633E-18
1.90385E-05 4.99267E-18
2.09899E-05 4.11558E-18
2.30365E-05 3.42210E-18
2.51783E-05 2.86767E-18
2.74153E-05 2.42030E-18
2.97475E-05 2.05647E-18
3.21749E-05 1.75847E-18
3.46974E-05 1.51268E-18
3.73152E-05 1.30855E-18
4.00281E-05 1.13785E-18
4.28362E-05 9.94137E-19
4.57395E-05 8.72390E-19
4.87380E-05 7.68666E-19
5.18317E-05 6.79850E-19
5.50205E-05 6.03458E-19
5.83045E-05 5.37480E-19
6.16838E-05 4.80276E-19
6.51582E-05 4.30489E-19
6.87277E-05 3.86997E-19
7.23925E-05 3.48864E-19
7.61524E-05 3.15407E-19
9.21439E-05 2.15538E-19
1.09658E-04 1.52228E-19
1.28695E-04 1.10542E-19
1.49255E-04 8.21916E-20
1.71338E-04 6.23705E-20
1.94942E-04 4.81786E-20
2.20070E-04 3.78017E-20
2.46720E-04 3.00728E-20
2.74892E-04 2.42219E-20
3.04586E-04 1.97262E-20
3.35803E-04 1.62268E-20
3.68542E-04 1.34697E-20
4.02802E-04 1.12739E-20
4.38585E-04 9.50775E-21
4.75889E-04 8.07406E-21
5.14715E-04 6.90070E-21
5.55063E-04 5.93278E-21
5.96931E-04 5.12872E-21
6.40321E-04 4.45629E-21
6.85233E-04 3.89046E-21
7.31665E-04 3.41161E-21
7.79618E-04 3.00414E-21
8.29092E-04 2.65569E-21
8.80086E-04 2.35627E-21
9.32601E-04 2.09784E-21
9.86636E-04 1.87385E-21
1.04219E-03 1.67894E-21
1.09927E-03 1.50870E-21
1.15786E-03 1.35949E-21
1.21797E-03 1.22832E-21
1.27961E-03 1.11249E-21
1.34276E-03 1.00991E-21
1.40743E-03 9.18860E-22
1.47362E-03 8.37810E-22
1.54133E-03 7.65478E-22
1.61056E-03 7.00760E-22
1.68131E-03 6.42714E-22
1.75357E-03 5.90534E-22
1.82735E-03 5.43520E-22
1.90265E-03 5.01074E-22
1.97947E-03 4.62671E-22
2.05780E-03 4.27860E-22
2.13765E-03 3.96245E-22
2.21902E-03 3.67479E-22
2.30190E-03 3.41262E-22
2.38630E-03 3.17326E-22
2.47222E-03 2.95438E-22
2.55965E-03 2.75392E-22
2.64859E-03 2.57005E-22
2.73905E-03 2.40115E-22
2.83103E-03 2.24578E-22
2.92452E-03 2.10267E-22
3.01952E-03 1.97067E-22
3.11604E-03 1.84877E-22
3.21407E-03 1.73605E-22
3.31362E-03 1.63171E-22
3.41468E-03 1.53500E-22
3.51725E-03 1.44527E-22
3.62133E-03 1.36193E-22
3.72692E-03 1.28443E-22
3.83403E-03 1.21229E-22
3.94265E-03 1.14508E-22
4.05278E-03 1.08240E-22
4.16442E-03 1.02389E-22
4.27757E-03 9.69216E-23
4.39223E-03 9.18089E-23
4.50840E-03 8.70236E-23
4.62608E-03 8.25408E-23
4.74527E-03 7.83380E-23
4.86597E-03 7.43946E-23
4.98817E-03 7.06916E-23
5.11188E-03 6.72119E-23
5.23711E-03 6.39395E-23
5.36383E-03 6.08599E-23
5.49207E-03 5.79597E-23
5.62181E-03 5.52265E-23
5.75306E-03 5.26490E-23
5.88581E-03 5.02168E-23
6.02007E-03 4.79201E-23
6.15583E-03 4.57502E-23
6.29310E-03 4.36988E-23
6.43187E-03 4.17581E-23
6.57214E-03 3.99213E-23
6.71392E-03 3.81817E-23
6.85720E-03 3.65333E-23
7.00198E-03 3.49705E-23
7.14827E-03 3.34880E-23
7.29605E-03 3.20810E-23
7.44534E-03 3.07449E-23
7.59612E-03 2.94756E-23
7.97965E-03 2.65692E-23
8.37255E-03 2.40018E-23
8.77480E-03 2.17274E-23
9.18641E-03 1.97073E-23
9.60736E-03 1.79085E-23
1.00376E-02 1.63029E-23
1.04773E-02 1.48665E-23
1.09262E-02 1.35785E-23
1.13844E-02 1.24214E-23
1.18520E-02 1.13796E-23
1.23288E-02 1.04399E-23
1.28150E-02 9.59069E-24
1.33104E-02 8.82196E-24
1.38150E-02 8.12489E-24
1.43290E-02 7.49177E-24
1.48521E-02 6.91584E-24
1.53845E-02 6.39115E-24
1.59262E-02 5.91245E-24
1.64770E-02 5.47512E-24
1.70371E-02 5.07504E-24
1.76063E-02 4.70857E-24
1.81848E-02 4.37248E-24
1.87724E-02 4.06387E-24
1.93692E-02 3.78018E-24
1.99751E-02 3.51911E-24
2.05901E-02 3.27859E-24
2.12143E-02 3.05678E-24
2.18476E-02 2.85201E-24
2.24900E-02 2.66281E-24
2.31415E-02 2.48781E-24
2.38021E-02 2.32582E-24
2.44717E-02 2.17573E-24
2.51504E-02 2.03654E-24
2.58382E-02 1.90737E-24
2.65349E-02 1.78740E-24
2.72407E-02 1.67588E-24
2.79555E-02 1.57215E-24
2.86793E-02 1.47558E-24
2.94120E-02 1.38563E-24
3.01537E-02 1.30179E-24
3.09043E-02 1.22358E-24
3.16639E-02 1.15058E-24
3.24324E-02 1.08241E-24
3.32098E-02 1.01870E-24
3.39961E-02 9.59130E-25
3.47912E-02 9.03400E-25
3.55952E-02 8.51233E-25
3.64081E-02 8.02374E-25
3.72297E-02 7.56591E-25
3.80602E-02 7.13669E-25
3.88995E-02 6.73408E-25
3.97476E-02 6.35627E-25
4.06044E-02 6.00155E-25
4.14700E-02 5.66837E-25
4.23443E-02 5.35529E-25
4.32273E-02 5.06097E-25
4.41190E-02 4.78416E-25
4.50194E-02 4.52373E-25
4.59284E-02 4.27861E-25
4.68461E-02 4.04780E-25
4.87074E-02 3.62557E-25
5.06030E-02 3.25043E-25
5.25328E-02 2.91668E-25
5.44967E-02 2.61940E-25
5.64946E-02 2.35426E-25
5.85262E-02 2.11754E-25
6.05914E-02 1.90595E-25
6.26901E-02 1.71663E-25
6.48222E-02 1.54708E-25
6.69873E-02 1.39510E-25
6.91854E-02 1.25874E-25
7.14163E-02 1.13630E-25
7.36799E-02 1.02627E-25
7.59760E-02 9.27325E-26
7.83043E-02 8.38285E-26
8.06647E-02 7.58105E-26
8.30571E-02 6.85859E-26
8.54812E-02 6.20724E-26
8.79369E-02 5.61967E-26
9.04240E-02 5.08937E-26
9.29422E-02 4.61052E-26
9.54915E-02 4.17792E-26
9.80716E-02 3.78693E-26
1.00682E-01 3.43342E-26
1.03323E-01 3.11366E-26
1.05995E-01 2.82433E-26
1.08696E-01 2.56244E-26
1.11427E-01 2.32531E-26
1.14188E-01 2.11054E-26
1.16978E-01 1.91597E-26
1.19797E-01 1.73965E-26
1.22645E-01 1.57982E-26
1.25522E-01 1.43492E-26
1.28428E-01 1.30353E-26
1.31361E-01 1.18435E-26
1.34323E-01 1.07623E-26
1.37313E-01 9.78135E-27
1.40330E-01 8.89115E-27
1.43375E-01 8.08321E-27
1.46447E-01 7.34980E-27
1.49545E-01 6.68398E-27
1.52671E-01 6.07944E-27
1.55823E-01 5.53048E-27
1.59001E-01 5.03193E-27
1.62205E-01 4.57913E-27
1.65435E-01 4.16782E-27
1.68690E-01 3.79418E-27
1.71970E-01 3.45472E-27
1.75276E-01 3.14630E-27
1.78606E-01 2.86604E-27
1.81961E-01 2.61136E-27
1.85340E-01 2.37990E-27
1.88743E-01 2.16953E-27
1.92169E-01 1.97831E-27
1.95619E-01 1.80447E-27
1.99092E-01 1.64643E-27
2.02589E-01 1.50273E-27
2.06107E-01 1.37206E-27
2.09649E-01 1.25321E-27
2.13212E-01 1.14512E-27
2.16797E-01 1.04679E-27
2.20404E-01 9.57321E-28
2.24032E-01 8.75909E-28
2.27680E-01 8.01813E-28
2.31350E-01 7.34362E-28
2.35040E-01 6.72948E-28
2.38751E-01 6.17019E-28
2.42481E-01 5.66072E-28
2.46231E-01 5.19650E-28
2.50000E-01 4.77341E-28
2.53788E-01 4.38767E-28
2.57595E-01 4.03588E-28
2.61421E-01 3.71493E-28
2.65264E-01 3.42200E-28
2.69126E-01 3.15455E-28
2.73005E-01 2.91024E-28
2.76901E-01 2.68698E-28
2.80814E-01 2.48284E-28
2.84744E-01 2.29609E-28
2.88691E-01 2.12516E-28
2.92653E-01 1.96861E-28
2.96632E-01 1.82515E-28
3.00625E-01 1.69359E-28
3.04634E-01 1.57287E-28
3.08658E-01 1.46201E-28
3.12697E-01 1.36014E-28
3.16749E-01 1.26645E-28
3.20816E-01 1.18021E-28
3.24896E-01 1.10078E-28
3.28990E-01 1.02754E-28
3.33097E-01 9.59967E-29
3.37216E-01 8.97555E-29
3.41348E-01 8.39861E-29
3.45492E-01 7.86479E-29
3.49647E-01 7.37040E-29
3.53814E-01 6.91209E-29
3.57992E-01 6.48683E-29
3.62181E-01 6.09185E-29
3.66381E-01 5.72463E-29
3.70590E-01 5.38290E-29
3.74810E-01 5.06458E-29
3.79039E-01 4.76779E-29
3.83277E-01 4.49080E-29
3.87524E-01 4.23206E-29
3.91780E-01 3.99015E-29
3.96044E-01 3.76375E-29
4.00316E-01 3.55170E-29
4.04596E-01 3.35291E-29
4.08882E-01 3.16641E-29
4.13176E-01 2.99128E-29
4.17476E-01 2.82672E-29
4.21783E-01 2.67196E-29
4.26095E-01 2.52632E-29
4.30413E-01 2.38918E-29
4.34737E-01 2.25994E-29
4.39065E-01 2.13808E-29
4.43398E-01 2.02312E-29
4.47736E-01 1.91460E-29
4.52077E-01 1.81211E-29
4.56422E-01 1.71527E-29
4.60770E-01 1.62372E-29
4.65122E-01 1.53715E-29
4.69476E-01 1.45525E-29
4.73832E-01 1.37775E-29
4.78190E-01 1.30437E-29
4.82550E-01 1.23490E-29
4.86912E-01 1.16909E-29
4.91274E-01 1.10675E-29
4.95637E-01 1.04767E-29
5.00000E-01 9.91685E-30
5.04363E-01 9.38618E-30
5.08726E-01 8.88312E-30
5.13088E-01 8.40620E-30
5.17450E-01 7.95401E-30
5.21810E-01 7.52525E-30
5.26168E-01 7.11870E-30
5.30524E-01 6.73320E-30
5.34878E-01 6.36767E-30
5.39230E-01 6.02107E-30
5.43578E-01 5.69244E-30
5.47923E-01 5.38087E-30
5.52264E-01 5.08549E-30
5.56602E-01 4.80548E-30
5.60935E-01 4.54006E-30
5.65263E-01 4.28852E-30
5.69587E-01 4.05014E-30
5.73905E-01 3.82427E-30
5.78217E-01 3.61028E-30
5.82524E-01 3.40759E-30
5.86824E-01 3.21562E-30
5.91118E-01 3.03383E-30
5.95404E-01 2.86172E-30
5.99684E-01 2.69881E-30
6.03956E-01 2.54463E-30
6.08220E-01 2.39874E-30
6.12476E-01 2.26072E-30
6.16723E-01 2.13019E-30
6.20961E-01 2.00675E-30
6.25190E-01 1.89005E-30
6.29410E-01 1.77974E-30
6.33619E-01 1.67551E-30
6.37819E-01 1.57703E-30
6.42008E-01 1.48402E-30
6.46186E-01 1.39618E-30
6.50353E-01 1.31326E-30
6.54508E-01 1.23500E-30
6.58652E-01 1.16115E-30
6.62784E-01 1.09149E-30
6.66903E-01 1.02579E-30
6.71010E-01 9.63845E-31
6.75104E-01 9.05454E-31
6.79184E-01 8.50429E-31
6.83251E-01 7.98590E-31
6.87303E-01 7.49765E-31
6.91342E-01 7.03791E-31
6.95366E-01 6.60514E-31
6.99375E-01 6.19786E-31
7.03368E-01 5.81469E-31
7.07347E-01 5.45428E-31
7.11309E-01 5.11539E-31
7.15256E-01 4.79682E-31
7.19186E-01 4.49743E-31
7.23099E-01 4.21614E-31
7.26995E-01 3.95193E-31
7.30874E-01 3.70384E-31
7.34736E-01 3.47094E-31
7.38579E-01 3.25236E-31
7.42405E-01 3.04729E-31
7.46212E-01 2.85493E-31
7.50000E-01 2.67455E-31
7.53769E-01 2.50545E-31
7.57519E-01 2.34696E-31
7.61249E-01 2.19846E-31
7.64960E-01 2.05935E-31
7.68650E-01 1.92907E-31
7.72320E-01 1.80710E-31
7.75968E-01 1.69293E-31
7.79596E-01 1.58609E-31
7.83203E-01 1.48612E-31
7.86788E-01 1.39262E-31
7.90351E-01 1.30518E-31
7.93893E-01 1.22342E-31
7.97411E-01 1.14700E-31
8.00908E-01 1.07557E-31
8.04381E-01 1.00882E-31
8.07831E-01 9.46462E-32
8.11257E-01 8.88211E-32
8.14660E-01 8.33803E-32
8.18039E-01 7.82993E-32
8.21394E-01 7.35548E-32
8.24724E-01 6.91248E-32
8.28030E-01 6.49889E-32
8.31310E-01 6.11277E-32
8.34565E-01 5.75231E-32
8.37795E-01 5.41580E-32
8.40999E-01 5.10165E-32
8.44177E-01 4.80836E-32
8.47329E-01 4.53451E-32
8.50455E-01 4.27880E-32
8.53553E-01 4.03998E-32
8.56625E-01 3.81691E-32
8.59670E-01 3.60849E-32
8.62687E-01 3.41372E-32
8.65677E-01 3.23164E-32
8.68639E-01 3.06138E-32
8.71572E-01 2.90210E-32
8.74478E-01 2.75303E-32
8.77355E-01 2.61345E-32
8.80203E-01 2.48268E-32
8.83022E-01 2.36010E-32
8.85812E-01 2.24512E-32
8.88573E-01 2.13720E-32
8.91304E-01 2.03583E-32
8.94005E-01 1.94053E-32
8.96677E-01 1.85086E-32
8.99318E-01 1.76643E-32
9.01928E-01 1.68684E-32
9.04508E-01 1.61175E-32
9.07058E-01 1.54082E-32
9.09576E-01 1.47376E-32
9.12063E-01 1.41029E-32
9.14519E-01 1.35013E-32
9.16943E-01 1.29306E-32
9.19335E-01 1.23885E-32
9.21696E-01 1.18729E-32
9.24024E-01 1.13819E-32
9.26320E-01 1.09138E-32
9.28584E-01 1.04669E-32
9.30815E-01 1.00399E-32
9.33013E-01 9.63119E-33
9.35178E-01 9.23963E-33
9.37310E-01 8.86404E-33
9.39409E-01 8.50336E-33
9.41474E-01 8.15662E-33
9.43505E-01 7.82290E-33
9.45503E-01 7.50139E-33
9.47467E-01 7.19136E-33
9.49397E-01 6.89213E-33
9.51293E-01 6.60305E-33
9.53154E-01 6.32357E-33
9.54981E-01 6.05317E-33
9.56773E-01 5.79139E-33
9.58530E-01 5.53780E-33
9.60252E-01 5.29202E-33
9.61940E-01 5.05369E-33
9.63592E-01 4.82251E-33
9.65209E-01 4.59820E-33
9.66790E-01 4.38049E-33
9.68336E-01 4.16918E-33
9.69846E-01 3.96406E-33
9.71321E-01 3.76493E-33
9.72759E-01 3.57163E-33
9.74162E-01 3.38406E-33
9.75528E-01 3.20204E-33
9.76858E-01 3.02550E-33
9.78152E-01 2.85432E-33
9.79410E-01 2.68843E-33
9.80631E-01 2.52775E-33
9.81815E-01 2.37221E-33
9.82963E-01 2.22177E-33
9.84074E-01 2.07639E-33
9.85148E-01 1.93600E-33
9.86185E-01 1.80061E-33
9.87185E-01 1.67016E-33
9.88148E-01 1.54465E-33
9.89074E-01 1.42405E-33
9.89962E-01 1.30836E-33
9.90814E-01 1.19756E-33
9.91627E-01 1.09165E-33
9.92404E-01 9.90628E-34
9.93143E-01 8.94491E-34
9.93844E-01 8.03240E-34
9.94508E-01 7.16876E-34
9.95134E-01 6.35408E-34
9.95722E-01 5.58834E-34
9.96273E-01 4.87160E-34
9.96786E-01 4.20394E-34
9.97261E-01 3.58544E-34
9.97698E-01 3.01610E-34
9.98097E-01 2.49606E-34
9.98459E-01 2.02530E-34
9.98782E-01 1.60393E-34
9.99067E-01 1.23200E-34
9.99315E-01 9.09551E-35
9.99524E-01 6.36627E-35
9.99695E-01 4.13274E-35
9.99829E-01 2.39499E-35
9.99924E-01 1.15378E-35
9.99981E-01 4.08872E-36
1.00000E+00 1.60629E-36
