 #
 # Subroutine ELSEPA. Elastic scattering of electrons and positrons
 #                    by neutral atoms and positive ions
 #
 # Projectile: positron
 # Kinetic energy = 6.00000E+06 eV = 2.20496E+05 a.u.
 #
 # WARNING: High-energy factorization with free-atom DF screening.
 #          Absorption, polarization and exchange corrections are
 #          switched off.
 #          Phase shifts are calculated for the bare nucleus.
 #          Scattering amplitudes are not evaluated.
 #
 # Element: Th,  Z =  90,  atomic weight = 2.32038E+02 g/mol
 #
 # Nuclear model: Fermi distribution
 #                Average radius = 6.57512E-13 cm
 #                Skin thickness = 5.46000E-14 cm
 #
 # Number of electrons = 90
 #
 # Total elastic cross section = 1.19340E-17 cm**2 = 4.26172E-01 a0**2
 # 1st transport cross section = 2.31846E-22 cm**2 = 8.27936E-06 a0**2
 # 2nd transport cross section = 6.67147E-22 cm**2 = 2.38243E-05 a0**2
 #
 #
 # Differential cross section:                       MU=(1-COS(THETA))/2
 #
 #  THETA        MU          DCS          DCS        Sherman      error
 #  (deg)                 (cm**2/sr)   (a0**2/sr)    function
 #----------------------------------------------------------------------
0.00000E+00 6.19057E-12
7.61557E-13 6.19045E-12
1.18994E-12 6.19039E-12
1.71346E-12 6.19032E-12
2.33225E-12 6.19023E-12
3.04617E-12 6.19013E-12
3.85530E-12 6.19001E-12
4.75964E-12 6.18989E-12
5.75917E-12 6.18975E-12
6.85391E-12 6.18960E-12
8.04379E-12 6.18943E-12
9.32893E-12 6.18925E-12
1.07092E-11 6.18906E-12
1.21847E-11 6.18885E-12
1.37554E-11 6.18864E-12
1.54213E-11 6.18841E-12
1.71823E-11 6.18816E-12
1.90386E-11 6.18791E-12
2.09900E-11 6.18764E-12
2.30367E-11 6.18735E-12
2.51785E-11 6.18706E-12
2.74156E-11 6.18675E-12
2.97478E-11 6.18643E-12
3.21752E-11 6.18609E-12
3.46979E-11 6.18574E-12
3.73157E-11 6.18538E-12
4.00286E-11 6.18501E-12
4.28368E-11 6.18462E-12
4.57402E-11 6.18422E-12
4.87388E-11 6.18381E-12
5.18325E-11 6.18338E-12
5.50215E-11 6.18294E-12
5.83057E-11 6.18249E-12
6.16850E-11 6.18202E-12
6.51595E-11 6.18155E-12
6.87293E-11 6.18106E-12
7.23943E-11 6.18055E-12
7.61544E-11 6.18003E-12
1.18991E-10 6.17415E-12
1.71347E-10 6.16698E-12
2.33223E-10 6.15853E-12
3.04617E-10 6.14881E-12
3.85531E-10 6.13782E-12
4.75965E-10 6.12558E-12
5.75917E-10 6.11210E-12
6.85389E-10 6.09739E-12
8.04380E-10 6.08147E-12
9.32891E-10 6.06435E-12
1.07092E-09 6.04606E-12
1.21847E-09 6.02660E-12
1.37554E-09 6.00599E-12
1.54213E-09 5.98427E-12
1.71823E-09 5.96144E-12
1.90386E-09 5.93753E-12
2.09900E-09 5.91256E-12
2.30367E-09 5.88655E-12
2.51785E-09 5.85954E-12
2.74156E-09 5.83153E-12
2.97478E-09 5.80257E-12
3.21752E-09 5.77267E-12
3.46978E-09 5.74187E-12
3.73156E-09 5.71018E-12
4.00286E-09 5.67764E-12
4.28368E-09 5.64427E-12
4.57402E-09 5.61011E-12
4.87388E-09 5.57518E-12
5.18326E-09 5.53951E-12
5.50215E-09 5.50313E-12
5.83057E-09 5.46610E-12
6.16850E-09 5.42841E-12
6.51596E-09 5.39009E-12
6.87293E-09 5.35118E-12
7.23942E-09 5.31169E-12
7.61544E-09 5.27166E-12
1.18991E-08 4.84862E-12
1.71347E-08 4.40327E-12
2.33223E-08 3.95932E-12
3.04617E-08 3.53436E-12
3.85531E-08 3.13995E-12
4.75965E-08 2.78230E-12
5.75917E-08 2.46349E-12
6.85389E-08 2.18291E-12
8.04380E-08 1.93765E-12
9.32891E-08 1.72422E-12
1.07092E-07 1.53887E-12
1.21847E-07 1.37789E-12
1.37554E-07 1.23783E-12
1.54213E-07 1.11562E-12
1.71823E-07 1.00865E-12
1.90386E-07 9.14694E-13
2.09900E-07 8.31851E-13
2.30367E-07 7.58509E-13
2.51785E-07 6.93232E-13
2.74156E-07 6.35034E-13
2.97478E-07 5.82977E-13
3.21752E-07 5.36273E-13
3.46978E-07 4.94252E-13
3.73156E-07 4.56283E-13
4.00286E-07 4.21926E-13
4.28368E-07 3.90800E-13
4.57402E-07 3.62541E-13
4.87388E-07 3.36838E-13
5.18325E-07 3.13406E-13
5.50215E-07 2.91744E-13
5.83057E-07 2.71096E-13
6.16850E-07 2.52556E-13
6.51596E-07 2.35864E-13
6.87293E-07 2.20799E-13
7.23942E-07 2.07169E-13
7.61543E-07 1.94808E-13
1.18991E-06 1.10231E-13
1.71347E-06 6.73674E-14
2.33223E-06 4.35367E-14
3.04617E-06 2.94349E-14
3.85531E-06 2.06462E-14
4.75964E-06 1.49400E-14
5.75916E-06 1.10993E-14
6.85388E-06 8.41890E-15
8.04378E-06 6.50696E-15
9.32888E-06 5.10887E-15
1.07092E-05 4.06525E-15
1.21846E-05 3.27291E-15
1.37553E-05 2.66326E-15
1.54212E-05 2.18457E-15
1.71822E-05 1.80912E-15
1.90385E-05 1.51058E-15
2.09899E-05 1.27367E-15
2.30365E-05 1.08151E-15
2.51783E-05 9.23885E-16
2.74153E-05 7.93841E-16
2.97475E-05 6.85915E-16
3.21749E-05 5.95876E-16
3.46974E-05 5.20350E-16
3.73152E-05 4.56571E-16
4.00281E-05 4.02386E-16
4.28362E-05 3.56070E-16
4.57395E-05 3.16244E-16
4.87380E-05 2.81824E-16
5.18317E-05 2.51942E-16
5.50205E-05 2.25860E-16
5.83045E-05 2.02971E-16
6.16838E-05 1.83039E-16
6.51582E-05 1.65615E-16
6.87277E-05 1.50079E-16
7.23925E-05 1.36351E-16
7.61524E-05 1.24225E-16
9.21439E-05 8.73049E-17
1.09658E-04 6.31414E-17
1.28695E-04 4.68156E-17
1.49255E-04 3.54485E-17
1.71338E-04 2.73300E-17
1.94942E-04 2.14035E-17
2.20070E-04 1.69923E-17
2.46720E-04 1.36559E-17
2.74892E-04 1.10977E-17
3.04586E-04 9.10976E-18
3.35803E-04 7.54709E-18
3.68542E-04 6.30495E-18
4.02802E-04 5.30767E-18
4.38585E-04 4.50005E-18
4.75889E-04 3.84041E-18
5.14715E-04 3.29744E-18
5.55063E-04 2.84717E-18
5.96931E-04 2.47115E-18
6.40321E-04 2.15520E-18
6.85233E-04 1.88815E-18
7.31665E-04 1.66122E-18
7.79618E-04 1.46734E-18
8.29092E-04 1.30090E-18
8.80086E-04 1.15733E-18
9.32601E-04 1.03300E-18
9.86636E-04 9.24888E-19
1.04219E-03 8.30517E-19
1.09927E-03 7.47849E-19
1.15786E-03 6.75169E-19
1.21797E-03 6.11076E-19
1.27961E-03 5.54384E-19
1.34276E-03 5.04092E-19
1.40743E-03 4.59356E-19
1.47362E-03 4.19451E-19
1.54133E-03 3.83765E-19
1.61056E-03 3.51780E-19
1.68131E-03 3.23045E-19
1.75357E-03 2.97173E-19
1.82735E-03 2.73829E-19
1.90265E-03 2.52722E-19
1.97947E-03 2.33600E-19
2.05780E-03 2.16246E-19
2.13765E-03 2.00467E-19
2.21902E-03 1.86095E-19
2.30190E-03 1.72983E-19
2.38630E-03 1.61000E-19
2.47222E-03 1.50033E-19
2.55965E-03 1.39980E-19
2.64859E-03 1.30752E-19
2.73905E-03 1.22268E-19
2.83103E-03 1.14459E-19
2.92452E-03 1.07260E-19
3.01952E-03 1.00616E-19
3.11604E-03 9.44771E-20
3.21407E-03 8.87971E-20
3.31362E-03 8.35356E-20
3.41468E-03 7.86564E-20
3.51725E-03 7.41268E-20
3.62133E-03 6.99173E-20
3.72692E-03 6.60012E-20
3.83403E-03 6.23543E-20
3.94265E-03 5.89546E-20
4.05278E-03 5.57824E-20
4.16442E-03 5.28199E-20
4.27757E-03 5.00506E-20
4.39223E-03 4.74597E-20
4.50840E-03 4.50334E-20
4.62608E-03 4.27595E-20
4.74527E-03 4.06267E-20
4.86597E-03 3.86246E-20
4.98817E-03 3.67437E-20
5.11188E-03 3.49755E-20
5.23711E-03 3.33117E-20
5.36383E-03 3.17453E-20
5.49207E-03 3.02693E-20
5.62181E-03 2.88777E-20
5.75306E-03 2.75649E-20
5.88581E-03 2.63253E-20
6.02007E-03 2.51545E-20
6.15583E-03 2.40475E-20
6.29310E-03 2.30005E-20
6.43187E-03 2.20095E-20
6.57214E-03 2.10711E-20
6.71392E-03 2.01818E-20
6.85720E-03 1.93388E-20
7.00198E-03 1.85390E-20
7.14827E-03 1.77799E-20
7.29605E-03 1.70590E-20
7.44534E-03 1.63742E-20
7.59612E-03 1.57231E-20
7.97965E-03 1.42307E-20
8.37255E-03 1.29103E-20
8.77480E-03 1.17387E-20
9.18641E-03 1.06962E-20
9.60736E-03 9.76612E-21
1.00376E-02 8.93438E-21
1.04773E-02 8.18876E-21
1.09262E-02 7.51881E-21
1.13844E-02 6.91553E-21
1.18520E-02 6.37112E-21
1.23288E-02 5.87886E-21
1.28150E-02 5.43289E-21
1.33104E-02 5.02811E-21
1.38150E-02 4.66005E-21
1.43290E-02 4.32479E-21
1.48521E-02 4.01890E-21
1.53845E-02 3.73937E-21
1.59262E-02 3.48352E-21
1.64770E-02 3.24900E-21
1.70371E-02 3.03372E-21
1.76063E-02 2.83582E-21
1.81848E-02 2.65366E-21
1.87724E-02 2.48575E-21
1.93692E-02 2.33080E-21
1.99751E-02 2.18763E-21
2.05901E-02 2.05517E-21
2.12143E-02 1.93250E-21
2.18476E-02 1.81875E-21
2.24900E-02 1.71317E-21
2.31415E-02 1.61506E-21
2.38021E-02 1.52381E-21
2.44717E-02 1.43884E-21
2.51504E-02 1.35965E-21
2.58382E-02 1.28578E-21
2.65349E-02 1.21680E-21
2.72407E-02 1.15234E-21
2.79555E-02 1.09204E-21
2.86793E-02 1.03559E-21
2.94120E-02 9.82703E-22
3.01537E-02 9.33110E-22
3.09043E-02 8.86570E-22
3.16639E-02 8.42861E-22
3.24324E-02 8.01781E-22
3.32098E-02 7.63144E-22
3.39961E-02 7.26777E-22
3.47912E-02 6.92527E-22
3.55952E-02 6.60243E-22
3.64081E-02 6.29797E-22
3.72297E-02 6.01063E-22
3.80602E-02 5.73929E-22
3.88995E-02 5.48289E-22
3.97476E-02 5.24046E-22
4.06044E-02 5.01111E-22
4.14700E-02 4.79400E-22
4.23443E-02 4.58836E-22
4.32273E-02 4.39349E-22
4.41190E-02 4.20871E-22
4.50194E-02 4.03341E-22
4.59284E-02 3.86701E-22
4.68461E-02 3.70899E-22
4.87074E-02 3.41610E-22
5.06030E-02 3.15117E-22
5.25328E-02 2.91108E-22
5.44967E-02 2.69309E-22
5.64946E-02 2.49485E-22
5.85262E-02 2.31424E-22
6.05914E-02 2.14944E-22
6.26901E-02 1.99883E-22
6.48222E-02 1.86097E-22
6.69873E-02 1.73461E-22
6.91854E-02 1.61863E-22
7.14163E-02 1.51202E-22
7.36799E-02 1.41390E-22
7.59760E-02 1.32347E-22
7.83043E-02 1.24004E-22
8.06647E-02 1.16296E-22
8.30571E-02 1.09168E-22
8.54812E-02 1.02567E-22
8.79369E-02 9.64492E-23
9.04240E-02 9.07718E-23
9.29422E-02 8.54983E-23
9.54915E-02 8.05949E-23
9.80716E-02 7.60313E-23
1.00682E-01 7.17797E-23
1.03323E-01 6.78151E-23
1.05995E-01 6.41150E-23
1.08696E-01 6.06585E-23
1.11427E-01 5.74271E-23
1.14188E-01 5.44034E-23
1.16978E-01 5.15717E-23
1.19797E-01 4.89179E-23
1.22645E-01 4.64287E-23
1.25522E-01 4.40923E-23
1.28428E-01 4.18977E-23
1.31361E-01 3.98348E-23
1.34323E-01 3.78942E-23
1.37313E-01 3.60676E-23
1.40330E-01 3.43469E-23
1.43375E-01 3.27252E-23
1.46447E-01 3.11957E-23
1.49545E-01 2.97522E-23
1.52671E-01 2.83890E-23
1.55823E-01 2.71010E-23
1.59001E-01 2.58833E-23
1.62205E-01 2.47313E-23
1.65435E-01 2.36410E-23
1.68690E-01 2.26085E-23
1.71970E-01 2.16301E-23
1.75276E-01 2.07025E-23
1.78606E-01 1.98226E-23
1.81961E-01 1.89877E-23
1.85340E-01 1.81950E-23
1.88743E-01 1.74419E-23
1.92169E-01 1.67262E-23
1.95619E-01 1.60456E-23
1.99092E-01 1.53982E-23
2.02589E-01 1.47821E-23
2.06107E-01 1.41955E-23
2.09649E-01 1.36368E-23
2.13212E-01 1.31043E-23
2.16797E-01 1.25967E-23
2.20404E-01 1.21125E-23
2.24032E-01 1.16506E-23
2.27680E-01 1.12098E-23
2.31350E-01 1.07888E-23
2.35040E-01 1.03866E-23
2.38751E-01 1.00023E-23
2.42481E-01 9.63500E-24
2.46231E-01 9.28375E-24
2.50000E-01 8.94769E-24
2.53788E-01 8.62608E-24
2.57595E-01 8.31823E-24
2.61421E-01 8.02345E-24
2.65264E-01 7.74107E-24
2.69126E-01 7.47046E-24
2.73005E-01 7.21106E-24
2.76901E-01 6.96234E-24
2.80814E-01 6.72379E-24
2.84744E-01 6.49491E-24
2.88691E-01 6.27524E-24
2.92653E-01 6.06434E-24
2.96632E-01 5.86182E-24
3.00625E-01 5.66728E-24
3.04634E-01 5.48035E-24
3.08658E-01 5.30070E-24
3.12697E-01 5.12797E-24
3.16749E-01 4.96186E-24
3.20816E-01 4.80209E-24
3.24896E-01 4.64835E-24
3.28990E-01 4.50040E-24
3.33097E-01 4.35797E-24
3.37216E-01 4.22082E-24
3.41348E-01 4.08873E-24
3.45492E-01 3.96147E-24
3.49647E-01 3.83884E-24
3.53814E-01 3.72065E-24
3.57992E-01 3.60670E-24
3.62181E-01 3.49682E-24
3.66381E-01 3.39083E-24
3.70590E-01 3.28859E-24
3.74810E-01 3.18993E-24
3.79039E-01 3.09470E-24
3.83277E-01 3.00278E-24
3.87524E-01 2.91401E-24
3.91780E-01 2.82829E-24
3.96044E-01 2.74548E-24
4.00316E-01 2.66547E-24
4.04596E-01 2.58815E-24
4.08882E-01 2.51342E-24
4.13176E-01 2.44117E-24
4.17476E-01 2.37130E-24
4.21783E-01 2.30374E-24
4.26095E-01 2.23838E-24
4.30413E-01 2.17515E-24
4.34737E-01 2.11396E-24
4.39065E-01 2.05474E-24
4.43398E-01 1.99741E-24
4.47736E-01 1.94190E-24
4.52077E-01 1.88815E-24
4.56422E-01 1.83610E-24
4.60770E-01 1.78567E-24
4.65122E-01 1.73681E-24
4.69476E-01 1.68946E-24
4.73832E-01 1.64358E-24
4.78190E-01 1.59910E-24
4.82550E-01 1.55597E-24
4.86912E-01 1.51416E-24
4.91274E-01 1.47360E-24
4.95637E-01 1.43427E-24
5.00000E-01 1.39611E-24
5.04363E-01 1.35909E-24
5.08726E-01 1.32316E-24
5.13088E-01 1.28829E-24
5.17450E-01 1.25445E-24
5.21810E-01 1.22159E-24
5.26168E-01 1.18968E-24
5.30524E-01 1.15870E-24
5.34878E-01 1.12861E-24
5.39230E-01 1.09938E-24
5.43578E-01 1.07099E-24
5.47923E-01 1.04340E-24
5.52264E-01 1.01659E-24
5.56602E-01 9.90530E-25
5.60935E-01 9.65203E-25
5.65263E-01 9.40583E-25
5.69587E-01 9.16645E-25
5.73905E-01 8.93368E-25
5.78217E-01 8.70732E-25
5.82524E-01 8.48717E-25
5.86824E-01 8.27302E-25
5.91118E-01 8.06468E-25
5.95404E-01 7.86198E-25
5.99684E-01 7.66475E-25
6.03956E-01 7.47281E-25
6.08220E-01 7.28599E-25
6.12476E-01 7.10415E-25
6.16723E-01 6.92713E-25
6.20961E-01 6.75478E-25
6.25190E-01 6.58697E-25
6.29410E-01 6.42356E-25
6.33619E-01 6.26441E-25
6.37819E-01 6.10940E-25
6.42008E-01 5.95842E-25
6.46186E-01 5.81134E-25
6.50353E-01 5.66803E-25
6.54508E-01 5.52841E-25
6.58652E-01 5.39236E-25
6.62784E-01 5.25978E-25
6.66903E-01 5.13048E-25
6.71010E-01 5.00438E-25
6.75104E-01 4.88145E-25
6.79184E-01 4.76160E-25
6.83251E-01 4.64474E-25
6.87303E-01 4.53080E-25
6.91342E-01 4.41967E-25
6.95366E-01 4.31130E-25
6.99375E-01 4.20560E-25
7.03368E-01 4.10249E-25
7.07347E-01 4.00191E-25
7.11309E-01 3.90378E-25
7.15256E-01 3.80804E-25
7.19186E-01 3.71462E-25
7.23099E-01 3.62346E-25
7.26995E-01 3.53450E-25
7.30874E-01 3.44768E-25
7.34736E-01 3.36294E-25
7.38579E-01 3.28022E-25
7.42405E-01 3.19948E-25
7.46212E-01 3.12066E-25
7.50000E-01 3.04370E-25
7.53769E-01 2.96857E-25
7.57519E-01 2.89521E-25
7.61249E-01 2.82357E-25
7.64960E-01 2.75362E-25
7.68650E-01 2.68531E-25
7.72320E-01 2.61859E-25
7.75968E-01 2.55342E-25
7.79596E-01 2.48977E-25
7.83203E-01 2.42760E-25
7.86788E-01 2.36687E-25
7.90351E-01 2.30755E-25
7.93893E-01 2.24959E-25
7.97411E-01 2.19296E-25
8.00908E-01 2.13764E-25
8.04381E-01 2.08359E-25
8.07831E-01 2.03078E-25
8.11257E-01 1.97917E-25
8.14660E-01 1.92874E-25
8.18039E-01 1.87946E-25
8.21394E-01 1.83131E-25
8.24724E-01 1.78425E-25
8.28030E-01 1.73826E-25
8.31310E-01 1.69331E-25
8.34565E-01 1.64939E-25
8.37795E-01 1.60645E-25
8.40999E-01 1.56450E-25
8.44177E-01 1.52348E-25
8.47329E-01 1.48340E-25
8.50455E-01 1.44422E-25
8.53553E-01 1.40593E-25
8.56625E-01 1.36851E-25
8.59670E-01 1.33192E-25
8.62687E-01 1.29617E-25
8.65677E-01 1.26122E-25
8.68639E-01 1.22706E-25
8.71572E-01 1.19368E-25
8.74478E-01 1.16105E-25
8.77355E-01 1.12916E-25
8.80203E-01 1.09799E-25
8.83022E-01 1.06753E-25
8.85812E-01 1.03776E-25
8.88573E-01 1.00866E-25
8.91304E-01 9.80232E-26
8.94005E-01 9.52449E-26
8.96677E-01 9.25302E-26
8.99318E-01 8.98776E-26
9.01928E-01 8.72859E-26
9.04508E-01 8.47538E-26
9.07058E-01 8.22802E-26
9.09576E-01 7.98637E-26
9.12063E-01 7.75034E-26
9.14519E-01 7.51980E-26
9.16943E-01 7.29465E-26
9.19335E-01 7.07478E-26
9.21696E-01 6.86009E-26
9.24024E-01 6.65047E-26
9.26320E-01 6.44584E-26
9.28584E-01 6.24610E-26
9.30815E-01 6.05115E-26
9.33013E-01 5.86091E-26
9.35178E-01 5.67528E-26
9.37310E-01 5.49420E-26
9.39409E-01 5.31756E-26
9.41474E-01 5.14530E-26
9.43505E-01 4.97733E-26
9.45503E-01 4.81359E-26
9.47467E-01 4.65400E-26
9.49397E-01 4.49848E-26
9.51293E-01 4.34697E-26
9.53154E-01 4.19940E-26
9.54981E-01 4.05571E-26
9.56773E-01 3.91583E-26
9.58530E-01 3.77970E-26
9.60252E-01 3.64727E-26
9.61940E-01 3.51848E-26
9.63592E-01 3.39326E-26
9.65209E-01 3.27158E-26
9.66790E-01 3.15336E-26
9.68336E-01 3.03857E-26
9.69846E-01 2.92716E-26
9.71321E-01 2.81907E-26
9.72759E-01 2.71427E-26
9.74162E-01 2.61270E-26
9.75528E-01 2.51432E-26
9.76858E-01 2.41910E-26
9.78152E-01 2.32699E-26
9.79410E-01 2.23796E-26
9.80631E-01 2.15196E-26
9.81815E-01 2.06896E-26
9.82963E-01 1.98893E-26
9.84074E-01 1.91183E-26
9.85148E-01 1.83763E-26
9.86185E-01 1.76630E-26
9.87185E-01 1.69782E-26
9.88148E-01 1.63215E-26
9.89074E-01 1.56926E-26
9.89962E-01 1.50913E-26
9.90814E-01 1.45174E-26
9.91627E-01 1.39706E-26
9.92404E-01 1.34507E-26
9.93143E-01 1.29574E-26
9.93844E-01 1.24907E-26
9.94508E-01 1.20502E-26
9.95134E-01 1.16359E-26
9.95722E-01 1.12475E-26
9.96273E-01 1.08849E-26
9.96786E-01 1.05479E-26
9.97261E-01 1.02364E-26
9.97698E-01 9.95036E-27
9.98097E-01 9.68953E-27
9.98459E-01 9.45385E-27
9.98782E-01 9.24324E-27
9.99067E-01 9.05761E-27
9.99315E-01 8.89687E-27
9.99524E-01 8.76098E-27
9.99695E-01 8.64987E-27
9.99829E-01 8.56349E-27
9.99924E-01 8.50182E-27
9.99981E-01 8.46483E-27
1.00000E+00 8.45250E-27
