 #
 # Subroutine ELSEPA. Elastic scattering of electrons and positrons
 #                    by neutral atoms and positive ions
 #
 # Projectile: positron
 # Kinetic energy = 2.50000E+08 eV = 9.18733E+06 a.u.
 #
 # WARNING: High-energy factorization with free-atom DF screening.
 #          Absorption, polarization and exchange corrections are
 #          switched off.
 #          Phase shifts are calculated for the bare nucleus.
 #          Scattering amplitudes are not evaluated.
 #
 # Element: Eu,  Z =  63,  atomic weight = 1.51964E+02 g/mol
 #
 # Nuclear model: Fermi distribution
 #                Average radius = 5.70993E-13 cm
 #                Skin thickness = 5.46000E-14 cm
 #
 # Number of electrons = 63
 #
 # Total elastic cross section = 7.20167E-18 cm**2 = 2.57176E-01 a0**2
 # 1st transport cross section = 1.20698E-25 cm**2 = 4.31019E-09 a0**2
 # 2nd transport cross section = 3.61513E-25 cm**2 = 1.29099E-08 a0**2
 #
 #
 # Differential cross section:                       MU=(1-COS(THETA))/2
 #
 #  THETA        MU          DCS          DCS        Sherman      error
 #  (deg)                 (cm**2/sr)   (a0**2/sr)    function
 #----------------------------------------------------------------------
0.00000E+00 5.58456E-09
7.61557E-13 5.41271E-09
1.18994E-12 5.31990E-09
1.71346E-12 5.21004E-09
2.33225E-12 5.08500E-09
3.04617E-12 4.94689E-09
3.85530E-12 4.79821E-09
4.75964E-12 4.64107E-09
5.75917E-12 4.47589E-09
6.85391E-12 4.30827E-09
8.04379E-12 4.13607E-09
9.32893E-12 3.96511E-09
1.07092E-11 3.79336E-09
1.21847E-11 3.62504E-09
1.37554E-11 3.45942E-09
1.54213E-11 3.29835E-09
1.71823E-11 3.14281E-09
1.90386E-11 2.99213E-09
2.09900E-11 2.84902E-09
2.30367E-11 2.71055E-09
2.51785E-11 2.58092E-09
2.74156E-11 2.45582E-09
2.97478E-11 2.33930E-09
3.21752E-11 2.22778E-09
3.46979E-11 2.12352E-09
3.73157E-11 2.02476E-09
4.00286E-11 1.93199E-09
4.28368E-11 1.84484E-09
4.57402E-11 1.76257E-09
4.87388E-11 1.68576E-09
5.18325E-11 1.61293E-09
5.50215E-11 1.54517E-09
5.83057E-11 1.48076E-09
6.16850E-11 1.42078E-09
6.51595E-11 1.36386E-09
6.87293E-11 1.31046E-09
7.23943E-11 1.25996E-09
7.61544E-11 1.21231E-09
1.18991E-10 8.52474E-10
1.71347E-10 6.24970E-10
2.33223E-10 4.69039E-10
3.04617E-10 3.57194E-10
3.85531E-10 2.74053E-10
4.75965E-10 2.12428E-10
5.75917E-10 1.69912E-10
6.85389E-10 1.34970E-10
8.04380E-10 1.09965E-10
9.32891E-10 8.96747E-11
1.07092E-09 7.43182E-11
1.21847E-09 6.18990E-11
1.37554E-09 5.20408E-11
1.54213E-09 4.40497E-11
1.71823E-09 3.74597E-11
1.90386E-09 3.21082E-11
2.09900E-09 2.75632E-11
2.30367E-09 2.38646E-11
2.51785E-09 2.06587E-11
2.74156E-09 1.80260E-11
2.97478E-09 1.57392E-11
3.21752E-09 1.38256E-11
3.46978E-09 1.21745E-11
3.73156E-09 1.07663E-11
4.00286E-09 9.55377E-12
4.28368E-09 8.50527E-12
4.57402E-09 7.60091E-12
4.87388E-09 6.81077E-12
5.18326E-09 6.12647E-12
5.50215E-09 5.52351E-12
5.83057E-09 4.99827E-12
6.16850E-09 4.53249E-12
6.51596E-09 4.12339E-12
6.87293E-09 3.75949E-12
7.23942E-09 3.43689E-12
7.61544E-09 3.14887E-12
1.18991E-08 1.45424E-12
1.71347E-08 7.65941E-13
2.33223E-08 4.38734E-13
3.04617E-08 2.68100E-13
3.85531E-08 1.72522E-13
4.75965E-08 1.16041E-13
5.75917E-08 8.09361E-14
6.85389E-08 5.81915E-14
8.04380E-08 4.29233E-14
9.32891E-08 3.23603E-14
1.07092E-07 2.48550E-14
1.21847E-07 1.94057E-14
1.37554E-07 1.53716E-14
1.54213E-07 1.23328E-14
1.71823E-07 1.00084E-14
1.90386E-07 8.20594E-15
2.09900E-07 6.79087E-15
2.30367E-07 5.66711E-15
2.51785E-07 4.76597E-15
2.74156E-07 4.03670E-15
2.97478E-07 3.44148E-15
3.21752E-07 2.95184E-15
3.46978E-07 2.54613E-15
3.73156E-07 2.20768E-15
4.00286E-07 1.92352E-15
4.28368E-07 1.68359E-15
4.57402E-07 1.47990E-15
4.87388E-07 1.30608E-15
5.18325E-07 1.15704E-15
5.50215E-07 1.02865E-15
5.83057E-07 9.17586E-16
6.16850E-07 8.21104E-16
6.51596E-07 7.36974E-16
6.87293E-07 6.63351E-16
7.23942E-07 5.98698E-16
7.61543E-07 5.41735E-16
1.18991E-06 2.24188E-16
1.71347E-06 1.08883E-16
2.33223E-06 5.90707E-17
3.04617E-06 3.47534E-17
3.85531E-06 2.17549E-17
4.75964E-06 1.43020E-17
5.75916E-06 9.78314E-18
6.85388E-06 6.91542E-18
8.04378E-06 5.02510E-18
9.32888E-06 3.73846E-18
1.07092E-05 2.83831E-18
1.21846E-05 2.19336E-18
1.37553E-05 1.72155E-18
1.54212E-05 1.36999E-18
1.71822E-05 1.10372E-18
1.90385E-05 8.98711E-19
2.09899E-05 7.39794E-19
2.30365E-05 6.14407E-19
2.51783E-05 5.14369E-19
2.74153E-05 4.33786E-19
2.97475E-05 3.68331E-19
3.21749E-05 3.14758E-19
3.46974E-05 2.70597E-19
3.73152E-05 2.33939E-19
4.00281E-05 2.03301E-19
4.28362E-05 1.77527E-19
4.57395E-05 1.55707E-19
4.87380E-05 1.37131E-19
5.18317E-05 1.21234E-19
5.50205E-05 1.07569E-19
5.83045E-05 9.57722E-20
6.16838E-05 8.55490E-20
6.51582E-05 7.66557E-20
6.87277E-05 6.88905E-20
7.23925E-05 6.20855E-20
7.61524E-05 5.62439E-20
9.21439E-05 3.84084E-20
1.09658E-04 2.71113E-20
1.28695E-04 1.96794E-20
1.49255E-04 1.46261E-20
1.71338E-04 1.10954E-20
1.94942E-04 8.56776E-21
2.20070E-04 6.72012E-21
2.46720E-04 5.34435E-21
2.74892E-04 4.30285E-21
3.04586E-04 3.50288E-21
3.35803E-04 2.88016E-21
3.68542E-04 2.38966E-21
4.02802E-04 1.99903E-21
4.38585E-04 1.68484E-21
4.75889E-04 1.42986E-21
5.14715E-04 1.22119E-21
5.55063E-04 1.04911E-21
5.96931E-04 9.06181E-22
6.40321E-04 7.86683E-22
6.85233E-04 6.86157E-22
7.31665E-04 6.01104E-22
7.79618E-04 5.28757E-22
8.29092E-04 4.66906E-22
8.80086E-04 4.13781E-22
9.32601E-04 3.67946E-22
9.86636E-04 3.28236E-22
1.04219E-03 2.93696E-22
1.09927E-03 2.63541E-22
1.15786E-03 2.37122E-22
1.21797E-03 2.13897E-22
1.27961E-03 1.93417E-22
1.34276E-03 1.75301E-22
1.40743E-03 1.59231E-22
1.47362E-03 1.44937E-22
1.54133E-03 1.32189E-22
1.61056E-03 1.20791E-22
1.68131E-03 1.10577E-22
1.75357E-03 1.01403E-22
1.82735E-03 9.31441E-23
1.90265E-03 8.56942E-23
1.97947E-03 7.89605E-23
2.05780E-03 7.28624E-23
2.13765E-03 6.73297E-23
2.21902E-03 6.23010E-23
2.30190E-03 5.77227E-23
2.38630E-03 5.35475E-23
2.47222E-03 4.97339E-23
2.55965E-03 4.62453E-23
2.64859E-03 4.30493E-23
2.73905E-03 4.01172E-23
2.83103E-03 3.74235E-23
2.92452E-03 3.49455E-23
3.01952E-03 3.26631E-23
3.11604E-03 3.05583E-23
3.21407E-03 2.86148E-23
3.31362E-03 2.68183E-23
3.41468E-03 2.51557E-23
3.51725E-03 2.36154E-23
3.62133E-03 2.21870E-23
3.72692E-03 2.08608E-23
3.83403E-03 1.96285E-23
3.94265E-03 1.84822E-23
4.05278E-03 1.74150E-23
4.16442E-03 1.64205E-23
4.27757E-03 1.54929E-23
4.39223E-03 1.46270E-23
4.50840E-03 1.38180E-23
4.62608E-03 1.30616E-23
4.74527E-03 1.23538E-23
4.86597E-03 1.16909E-23
4.98817E-03 1.10697E-23
5.11188E-03 1.04871E-23
5.23711E-03 9.94037E-24
5.36383E-03 9.42687E-24
5.49207E-03 8.94429E-24
5.62181E-03 8.49048E-24
5.75306E-03 8.06345E-24
5.88581E-03 7.66138E-24
6.02007E-03 7.28257E-24
6.15583E-03 6.92546E-24
6.29310E-03 6.58863E-24
6.43187E-03 6.27075E-24
6.57214E-03 5.97057E-24
6.71392E-03 5.68697E-24
6.85720E-03 5.41890E-24
7.00198E-03 5.16536E-24
7.14827E-03 4.92546E-24
7.29605E-03 4.69835E-24
7.44534E-03 4.48324E-24
7.59612E-03 4.27941E-24
7.97965E-03 3.81484E-24
8.37255E-03 3.40723E-24
8.77480E-03 3.04868E-24
9.18641E-03 2.73251E-24
9.60736E-03 2.45307E-24
1.00376E-02 2.20555E-24
1.04773E-02 1.98585E-24
1.09262E-02 1.79045E-24
1.13844E-02 1.61635E-24
1.18520E-02 1.46094E-24
1.23288E-02 1.32198E-24
1.28150E-02 1.19753E-24
1.33104E-02 1.08591E-24
1.38150E-02 9.85648E-25
1.43290E-02 8.95460E-25
1.48521E-02 8.14230E-25
1.53845E-02 7.40974E-25
1.59262E-02 6.74832E-25
1.64770E-02 6.15043E-25
1.70371E-02 5.60939E-25
1.76063E-02 5.11929E-25
1.81848E-02 4.67488E-25
1.87724E-02 4.27154E-25
1.93692E-02 3.90514E-25
1.99751E-02 3.57200E-25
2.05901E-02 3.26887E-25
2.12143E-02 2.99284E-25
2.18476E-02 2.74128E-25
2.24900E-02 2.51188E-25
2.31415E-02 2.30253E-25
2.38021E-02 2.11138E-25
2.44717E-02 1.93673E-25
2.51504E-02 1.77706E-25
2.58382E-02 1.63102E-25
2.65349E-02 1.49737E-25
2.72407E-02 1.37501E-25
2.79555E-02 1.26292E-25
2.86793E-02 1.16020E-25
2.94120E-02 1.06604E-25
3.01537E-02 9.79678E-26
3.09043E-02 9.00449E-26
3.16639E-02 8.27737E-26
3.24324E-02 7.60986E-26
3.32098E-02 6.99690E-26
3.39961E-02 6.43388E-26
3.47912E-02 5.91659E-26
3.55952E-02 5.44122E-26
3.64081E-02 5.00429E-26
3.72297E-02 4.60260E-26
3.80602E-02 4.23324E-26
3.88995E-02 3.89358E-26
3.97476E-02 3.58117E-26
4.06044E-02 3.29379E-26
4.14700E-02 3.02941E-26
4.23443E-02 2.78617E-26
4.32273E-02 2.56237E-26
4.41190E-02 2.35643E-26
4.50194E-02 2.16693E-26
4.59284E-02 1.99254E-26
4.68461E-02 1.83207E-26
4.87074E-02 1.54850E-26
5.06030E-02 1.30838E-26
5.25328E-02 1.10510E-26
5.44967E-02 9.33054E-27
5.64946E-02 7.87492E-27
5.85262E-02 6.64398E-27
6.05914E-02 5.60359E-27
6.26901E-02 4.72480E-27
6.48222E-02 3.98302E-27
6.69873E-02 3.35736E-27
6.91854E-02 2.83005E-27
7.14163E-02 2.38600E-27
7.36799E-02 2.01240E-27
7.59760E-02 1.69834E-27
7.83043E-02 1.43456E-27
8.06647E-02 1.21320E-27
8.30571E-02 1.02759E-27
8.54812E-02 8.72058E-28
8.79369E-02 7.41819E-28
9.04240E-02 6.32807E-28
9.29422E-02 5.41587E-28
9.54915E-02 4.65256E-28
9.80716E-02 4.01366E-28
1.00682E-01 3.47854E-28
1.03323E-01 3.02984E-28
1.05995E-01 2.65300E-28
1.08696E-01 2.33581E-28
1.11427E-01 2.06805E-28
1.14188E-01 1.84120E-28
1.16978E-01 1.64818E-28
1.19797E-01 1.48310E-28
1.22645E-01 1.34107E-28
1.25522E-01 1.21807E-28
1.28428E-01 1.11079E-28
1.31361E-01 1.01651E-28
1.34323E-01 9.32996E-29
1.37313E-01 8.58443E-29
1.40330E-01 7.91377E-29
1.43375E-01 7.30604E-29
1.46447E-01 6.75164E-29
1.49545E-01 6.24282E-29
1.52671E-01 5.77338E-29
1.55823E-01 5.33836E-29
1.59001E-01 4.93377E-29
1.62205E-01 4.55644E-29
1.65435E-01 4.20382E-29
1.68690E-01 3.87384E-29
1.71970E-01 3.56484E-29
1.75276E-01 3.27543E-29
1.78606E-01 3.00445E-29
1.81961E-01 2.75091E-29
1.85340E-01 2.51394E-29
1.88743E-01 2.29276E-29
1.92169E-01 2.08666E-29
1.95619E-01 1.89495E-29
1.99092E-01 1.71700E-29
2.02589E-01 1.55216E-29
2.06107E-01 1.39982E-29
2.09649E-01 1.25937E-29
2.13212E-01 1.13022E-29
2.16797E-01 1.01174E-29
2.20404E-01 9.03362E-30
2.24032E-01 8.04486E-30
2.27680E-01 7.14535E-30
2.31350E-01 6.32940E-30
2.35040E-01 5.59144E-30
2.38751E-01 4.92605E-30
2.42481E-01 4.32796E-30
2.46231E-01 3.79210E-30
2.50000E-01 3.31357E-30
2.53788E-01 2.88771E-30
2.57595E-01 2.51006E-30
2.61421E-01 2.17639E-30
2.65264E-01 1.88269E-30
2.69126E-01 1.62520E-30
2.73005E-01 1.40040E-30
2.76901E-01 1.20499E-30
2.80814E-01 1.03590E-30
2.84744E-01 8.90299E-31
2.88691E-01 7.65558E-31
2.92653E-01 6.59273E-31
2.96632E-01 5.69238E-31
3.00625E-01 4.93442E-31
3.04634E-01 4.30059E-31
3.08658E-01 3.77437E-31
3.12697E-01 3.34089E-31
3.16749E-01 2.98679E-31
3.20816E-01 2.70018E-31
3.24896E-01 2.47046E-31
3.28990E-01 2.28829E-31
3.33097E-01 2.14543E-31
3.37216E-01 2.03469E-31
3.41348E-01 1.94981E-31
3.45492E-01 1.88540E-31
3.49647E-01 1.83681E-31
3.53814E-01 1.80013E-31
3.57992E-01 1.77201E-31
3.62181E-01 1.74971E-31
3.66381E-01 1.73095E-31
3.70590E-01 1.71388E-31
3.74810E-01 1.69703E-31
3.79039E-01 1.67925E-31
3.83277E-01 1.65969E-31
3.87524E-01 1.63772E-31
3.91780E-01 1.61295E-31
3.96044E-01 1.58511E-31
4.00316E-01 1.55412E-31
4.04596E-01 1.51999E-31
4.08882E-01 1.48283E-31
4.13176E-01 1.44284E-31
4.17476E-01 1.40025E-31
4.21783E-01 1.35534E-31
4.26095E-01 1.30844E-31
4.30413E-01 1.25985E-31
4.34737E-01 1.20993E-31
4.39065E-01 1.15900E-31
4.43398E-01 1.10739E-31
4.47736E-01 1.05541E-31
4.52077E-01 1.00338E-31
4.56422E-01 9.51563E-32
4.60770E-01 9.00224E-32
4.65122E-01 8.49601E-32
4.69476E-01 7.99908E-32
4.73832E-01 7.51336E-32
4.78190E-01 7.04049E-32
4.82550E-01 6.58193E-32
4.86912E-01 6.13887E-32
4.91274E-01 5.71231E-32
4.95637E-01 5.30302E-32
5.00000E-01 4.91162E-32
5.04363E-01 4.53850E-32
5.08726E-01 4.18393E-32
5.13088E-01 3.84801E-32
5.17450E-01 3.53070E-32
5.21810E-01 3.23185E-32
5.26168E-01 2.95119E-32
5.30524E-01 2.68837E-32
5.34878E-01 2.44297E-32
5.39230E-01 2.21446E-32
5.43578E-01 2.00229E-32
5.47923E-01 1.80585E-32
5.52264E-01 1.62449E-32
5.56602E-01 1.45754E-32
5.60935E-01 1.30431E-32
5.65263E-01 1.16409E-32
5.69587E-01 1.03617E-32
5.73905E-01 9.19837E-33
5.78217E-01 8.14388E-33
5.82524E-01 7.19127E-33
5.86824E-01 6.33373E-33
5.91118E-01 5.56463E-33
5.95404E-01 4.87755E-33
5.99684E-01 4.26627E-33
6.03956E-01 3.72483E-33
6.08220E-01 3.24753E-33
6.12476E-01 2.82894E-33
6.16723E-01 2.46390E-33
6.20961E-01 2.14753E-33
6.25190E-01 1.87524E-33
6.29410E-01 1.64269E-33
6.33619E-01 1.44586E-33
6.37819E-01 1.28097E-33
6.42008E-01 1.14451E-33
6.46186E-01 1.03324E-33
6.50353E-01 9.44154E-34
6.54508E-01 8.74490E-34
6.58652E-01 8.21718E-34
6.62784E-01 7.83521E-34
6.66903E-01 7.57788E-34
6.71010E-01 7.42613E-34
6.75104E-01 7.36263E-34
6.79184E-01 7.37186E-34
6.83251E-01 7.43987E-34
6.87303E-01 7.55428E-34
6.91342E-01 7.70405E-34
6.95366E-01 7.87950E-34
6.99375E-01 8.07213E-34
7.03368E-01 8.27455E-34
7.07347E-01 8.48036E-34
7.11309E-01 8.68411E-34
7.15256E-01 8.88120E-34
7.19186E-01 9.06779E-34
7.23099E-01 9.24070E-34
7.26995E-01 9.39743E-34
7.30874E-01 9.53596E-34
7.34736E-01 9.65484E-34
7.38579E-01 9.75300E-34
7.42405E-01 9.82979E-34
7.46212E-01 9.88487E-34
7.50000E-01 9.91822E-34
7.53769E-01 9.93006E-34
7.57519E-01 9.92081E-34
7.61249E-01 9.89109E-34
7.64960E-01 9.84166E-34
7.68650E-01 9.77341E-34
7.72320E-01 9.68733E-34
7.75968E-01 9.58446E-34
7.79596E-01 9.46593E-34
7.83203E-01 9.33288E-34
7.86788E-01 9.18649E-34
7.90351E-01 9.02792E-34
7.93893E-01 8.85837E-34
7.97411E-01 8.67900E-34
8.00908E-01 8.49094E-34
8.04381E-01 8.29530E-34
8.07831E-01 8.09316E-34
8.11257E-01 7.88554E-34
8.14660E-01 7.67346E-34
8.18039E-01 7.45783E-34
8.21394E-01 7.23956E-34
8.24724E-01 7.01949E-34
8.28030E-01 6.79839E-34
8.31310E-01 6.57701E-34
8.34565E-01 6.35602E-34
8.37795E-01 6.13606E-34
8.40999E-01 5.91771E-34
8.44177E-01 5.70149E-34
8.47329E-01 5.48788E-34
8.50455E-01 5.27731E-34
8.53553E-01 5.07018E-34
8.56625E-01 4.86682E-34
8.59670E-01 4.66752E-34
8.62687E-01 4.47258E-34
8.65677E-01 4.28218E-34
8.68639E-01 4.09655E-34
8.71572E-01 3.91582E-34
8.74478E-01 3.74012E-34
8.77355E-01 3.56958E-34
8.80203E-01 3.40423E-34
8.83022E-01 3.24414E-34
8.85812E-01 3.08933E-34
8.88573E-01 2.93980E-34
8.91304E-01 2.79555E-34
8.94005E-01 2.65654E-34
8.96677E-01 2.52273E-34
8.99318E-01 2.39404E-34
9.01928E-01 2.27041E-34
9.04508E-01 2.15177E-34
9.07058E-01 2.03801E-34
9.09576E-01 1.92903E-34
9.12063E-01 1.82472E-34
9.14519E-01 1.72498E-34
9.16943E-01 1.62968E-34
9.19335E-01 1.53869E-34
9.21696E-01 1.45190E-34
9.24024E-01 1.36917E-34
9.26320E-01 1.29038E-34
9.28584E-01 1.21539E-34
9.30815E-01 1.14406E-34
9.33013E-01 1.07627E-34
9.35178E-01 1.01189E-34
9.37310E-01 9.50791E-35
9.39409E-01 8.92837E-35
9.41474E-01 8.37897E-35
9.43505E-01 7.85869E-35
9.45503E-01 7.36603E-35
9.47467E-01 6.89997E-35
9.49397E-01 6.45930E-35
9.51293E-01 6.04279E-35
9.53154E-01 5.64951E-35
9.54981E-01 5.27827E-35
9.56773E-01 4.92806E-35
9.58530E-01 4.59782E-35
9.60252E-01 4.28666E-35
9.61940E-01 3.99355E-35
9.63592E-01 3.71767E-35
9.65209E-01 3.45807E-35
9.66790E-01 3.21403E-35
9.68336E-01 2.98457E-35
9.69846E-01 2.76906E-35
9.71321E-01 2.56667E-35
9.72759E-01 2.37675E-35
9.74162E-01 2.19863E-35
9.75528E-01 2.03163E-35
9.76858E-01 1.87513E-35
9.78152E-01 1.72859E-35
9.79410E-01 1.59144E-35
9.80631E-01 1.46312E-35
9.81815E-01 1.34313E-35
9.82963E-01 1.23104E-35
9.84074E-01 1.12634E-35
9.85148E-01 1.02861E-35
9.86185E-01 9.37506E-36
9.87185E-01 8.52610E-36
9.88148E-01 7.73522E-36
9.89074E-01 6.99960E-36
9.89962E-01 6.31549E-36
9.90814E-01 5.68054E-36
9.91627E-01 5.09166E-36
9.92404E-01 4.54598E-36
9.93143E-01 4.04139E-36
9.93844E-01 3.57536E-36
9.94508E-01 3.14576E-36
9.95134E-01 2.75066E-36
9.95722E-01 2.38829E-36
9.96273E-01 2.05672E-36
9.96786E-01 1.75467E-36
9.97261E-01 1.48035E-36
9.97698E-01 1.23273E-36
9.98097E-01 1.01058E-36
9.98459E-01 8.12775E-37
9.98782E-01 6.38169E-37
9.99067E-01 4.86071E-37
9.99315E-01 3.55818E-37
9.99524E-01 2.46729E-37
9.99695E-01 1.58202E-37
9.99829E-01 8.97366E-38
9.99924E-01 4.11310E-38
9.99981E-01 1.20726E-38
1.00000E+00 2.33808E-39
