 #
 # Subroutine ELSEPA. Elastic scattering of electrons and positrons
 #                    by neutral atoms and positive ions
 #
 # Projectile: positron
 # Kinetic energy = 7.00000E+08 eV = 2.57245E+07 a.u.
 #
 # WARNING: High-energy factorization with free-atom DF screening.
 #          Absorption, polarization and exchange corrections are
 #          switched off.
 #          Phase shifts are calculated for the bare nucleus.
 #          Scattering amplitudes are not evaluated.
 #
 # Element: Eu,  Z =  63,  atomic weight = 1.51964E+02 g/mol
 #
 # Nuclear model: Fermi distribution
 #                Average radius = 5.70993E-13 cm
 #                Skin thickness = 5.46000E-14 cm
 #
 # Number of electrons = 63
 #
 # Total elastic cross section = 7.16317E-18 cm**2 = 2.55801E-01 a0**2
 # 1st transport cross section = 1.55150E-26 cm**2 = 5.54050E-10 a0**2
 # 2nd transport cross section = 4.65355E-26 cm**2 = 1.66181E-09 a0**2
 #
 #
 # Differential cross section:                       MU=(1-COS(THETA))/2
 #
 #  THETA        MU          DCS          DCS        Sherman      error
 #  (deg)                 (cm**2/sr)   (a0**2/sr)    function
 #----------------------------------------------------------------------
0.00000E+00 4.36682E-08
7.61557E-13 3.47593E-08
1.18994E-12 3.10294E-08
1.71346E-12 2.73373E-08
2.33225E-12 2.38879E-08
3.04617E-12 2.08153E-08
3.85530E-12 1.81440E-08
4.75964E-12 1.58603E-08
5.75917E-12 1.39311E-08
6.85391E-12 1.23144E-08
8.04379E-12 1.09503E-08
9.32893E-12 9.79525E-09
1.07092E-11 8.81194E-09
1.21847E-11 7.96699E-09
1.37554E-11 7.23434E-09
1.54213E-11 6.59399E-09
1.71823E-11 6.02820E-09
1.90386E-11 5.52573E-09
2.09900E-11 5.07696E-09
2.30367E-11 4.67336E-09
2.51785E-11 4.30795E-09
2.74156E-11 3.97721E-09
2.97478E-11 3.67693E-09
3.21752E-11 3.40254E-09
3.46979E-11 3.15192E-09
3.73157E-11 2.92307E-09
4.00286E-11 2.71371E-09
4.28368E-11 2.52109E-09
4.57402E-11 2.34465E-09
4.87388E-11 2.17357E-09
5.18325E-11 2.01568E-09
5.50215E-11 1.87470E-09
5.83057E-11 1.74846E-09
6.16850E-11 1.63509E-09
6.51595E-11 1.53300E-09
6.87293E-11 1.44082E-09
7.23943E-11 1.35738E-09
7.61544E-11 1.27050E-09
1.18991E-10 7.03761E-10
1.71347E-10 4.22382E-10
2.33223E-10 2.68292E-10
3.04617E-10 1.76725E-10
3.85531E-10 1.20385E-10
4.75965E-10 8.45615E-11
5.75917E-10 6.10652E-11
6.85389E-10 4.52047E-11
8.04380E-10 3.42686E-11
9.32891E-10 2.65262E-11
1.07092E-09 2.09022E-11
1.21847E-09 1.67255E-11
1.37554E-09 1.35534E-11
1.54213E-09 1.11129E-11
1.71823E-09 9.20059E-12
1.90386E-09 7.68426E-12
2.09900E-09 6.46684E-12
2.30367E-09 5.47817E-12
2.51785E-09 4.66783E-12
2.74156E-09 4.00049E-12
2.97478E-09 3.44736E-12
3.21752E-09 2.98552E-12
3.46978E-09 2.59795E-12
3.73156E-09 2.27095E-12
4.00286E-09 1.99347E-12
4.28368E-09 1.75660E-12
4.57402E-09 1.55380E-12
4.87388E-09 1.37880E-12
5.18326E-09 1.22802E-12
5.50215E-09 1.09795E-12
5.83057E-09 9.84398E-13
6.16850E-09 8.84951E-13
6.51596E-09 7.98122E-13
6.87293E-09 7.21664E-13
7.23942E-09 6.53936E-13
7.61544E-09 5.94193E-13
1.18991E-08 2.54345E-13
1.71347E-08 1.26467E-13
2.33223E-08 6.97570E-14
3.04617E-08 4.15318E-14
3.85531E-08 2.62266E-14
4.75965E-08 1.73573E-14
5.75917E-08 1.19361E-14
6.85389E-08 8.47433E-15
8.04380E-08 6.18112E-15
9.32891E-08 4.61376E-15
1.07092E-07 3.51328E-15
1.21847E-07 2.72229E-15
1.37554E-07 2.14196E-15
1.54213E-07 1.70841E-15
1.71823E-07 1.37925E-15
1.90386E-07 1.12569E-15
2.09900E-07 9.27827E-16
2.30367E-07 7.71587E-16
2.51785E-07 6.46894E-16
2.74156E-07 5.46400E-16
2.97478E-07 4.64682E-16
3.21752E-07 3.97682E-16
3.46978E-07 3.42329E-16
3.73156E-07 2.96277E-16
4.00286E-07 2.57713E-16
4.28368E-07 2.25221E-16
4.57402E-07 1.97690E-16
4.87388E-07 1.74238E-16
5.18325E-07 1.54160E-16
5.50215E-07 1.36892E-16
5.83057E-07 1.21974E-16
6.16850E-07 1.09033E-16
6.51596E-07 9.77626E-17
6.87293E-07 8.79107E-17
7.23942E-07 7.92686E-17
7.61543E-07 7.16620E-17
1.18991E-06 2.94332E-17
1.71347E-06 1.42148E-17
2.33223E-06 7.67902E-18
3.04617E-06 4.50336E-18
3.85531E-06 2.81215E-18
4.75964E-06 1.84529E-18
5.75916E-06 1.26041E-18
6.85388E-06 8.89927E-19
8.04378E-06 6.46078E-19
9.32888E-06 4.80300E-19
1.07092E-05 3.64433E-19
1.21846E-05 2.81484E-19
1.37553E-05 2.20843E-19
1.54212E-05 1.75684E-19
1.71822E-05 1.41497E-19
1.90385E-05 1.15186E-19
2.09899E-05 9.47970E-20
2.30365E-05 7.87154E-20
2.51783E-05 6.58883E-20
2.74153E-05 5.55583E-20
2.97475E-05 4.71691E-20
3.21749E-05 4.03041E-20
3.46974E-05 3.46461E-20
3.73152E-05 2.99500E-20
4.00281E-05 2.60258E-20
4.28362E-05 2.27247E-20
4.57395E-05 1.99306E-20
4.87380E-05 1.75521E-20
5.18317E-05 1.55165E-20
5.50205E-05 1.37668E-20
5.83045E-05 1.22565E-20
6.16838E-05 1.09476E-20
6.51582E-05 9.80918E-21
6.87277E-05 8.81520E-21
7.23925E-05 7.94415E-21
7.61524E-05 7.22870E-21
9.21439E-05 4.92881E-21
1.09658E-04 3.47185E-21
1.28695E-04 2.51343E-21
1.49255E-04 1.86195E-21
1.71338E-04 1.40704E-21
1.94942E-04 1.08164E-21
2.20070E-04 8.44062E-22
2.46720E-04 6.67423E-22
2.74892E-04 5.33946E-22
3.04586E-04 4.31645E-22
3.35803E-04 3.52211E-22
3.68542E-04 2.89821E-22
4.02802E-04 2.40300E-22
4.38585E-04 2.00617E-22
4.75889E-04 1.68541E-22
5.14715E-04 1.42406E-22
5.55063E-04 1.20957E-22
5.96931E-04 1.03234E-22
6.40321E-04 8.84989E-23
6.85233E-04 7.61777E-23
7.31665E-04 6.58197E-23
7.79618E-04 5.70692E-23
8.29092E-04 4.96425E-23
8.80086E-04 4.33123E-23
9.32601E-04 3.78950E-23
9.86636E-04 3.32416E-23
1.04219E-03 2.92303E-23
1.09927E-03 2.57612E-23
1.15786E-03 2.27517E-23
1.21797E-03 2.01334E-23
1.27961E-03 1.78491E-23
1.34276E-03 1.58512E-23
1.40743E-03 1.40995E-23
1.47362E-03 1.25603E-23
1.54133E-03 1.12048E-23
1.61056E-03 1.00087E-23
1.68131E-03 8.95123E-24
1.75357E-03 8.01469E-24
1.82735E-03 7.18381E-24
1.90265E-03 6.44551E-24
1.97947E-03 5.78847E-24
2.05780E-03 5.20293E-24
2.13765E-03 4.68040E-24
2.21902E-03 4.21350E-24
2.30190E-03 3.79583E-24
2.38630E-03 3.42177E-24
2.47222E-03 3.08641E-24
2.55965E-03 2.78545E-24
2.64859E-03 2.51511E-24
2.73905E-03 2.27206E-24
2.83103E-03 2.05336E-24
2.92452E-03 1.85643E-24
3.01952E-03 1.67897E-24
3.11604E-03 1.51895E-24
3.21407E-03 1.37456E-24
3.31362E-03 1.24420E-24
3.41468E-03 1.12644E-24
3.51725E-03 1.02002E-24
3.62133E-03 9.23798E-25
3.72692E-03 8.36759E-25
3.83403E-03 7.57999E-25
3.94265E-03 6.86704E-25
4.05278E-03 6.22148E-25
4.16442E-03 5.63678E-25
4.27757E-03 5.10707E-25
4.39223E-03 4.62708E-25
4.50840E-03 4.19206E-25
4.62608E-03 3.79775E-25
4.74527E-03 3.44029E-25
4.86597E-03 3.11620E-25
4.98817E-03 2.82237E-25
5.11188E-03 2.55594E-25
5.23711E-03 2.31437E-25
5.36383E-03 2.09534E-25
5.49207E-03 1.89676E-25
5.62181E-03 1.71673E-25
5.75306E-03 1.55353E-25
5.88581E-03 1.40560E-25
6.02007E-03 1.27154E-25
6.15583E-03 1.15007E-25
6.29310E-03 1.04002E-25
6.43187E-03 9.40346E-26
6.57214E-03 8.50084E-26
6.71392E-03 7.68367E-26
6.85720E-03 6.94406E-26
7.00198E-03 6.27484E-26
7.14827E-03 5.66949E-26
7.29605E-03 5.12210E-26
7.44534E-03 4.62727E-26
7.59612E-03 4.18013E-26
7.97965E-03 3.24264E-26
8.37255E-03 2.51726E-26
8.77480E-03 1.95739E-26
9.18641E-03 1.52632E-26
9.60736E-03 1.19519E-26
1.00376E-02 9.41366E-27
1.04773E-02 7.47089E-27
1.09262E-02 5.98500E-27
1.13844E-02 4.84804E-27
1.18520E-02 3.97629E-27
1.23288E-02 3.30512E-27
1.28150E-02 2.78488E-27
1.33104E-02 2.37765E-27
1.38150E-02 2.05470E-27
1.43290E-02 1.79440E-27
1.48521E-02 1.58064E-27
1.53845E-02 1.40151E-27
1.59262E-02 1.24831E-27
1.64770E-02 1.11476E-27
1.70371E-02 9.96423E-28
1.76063E-02 8.90154E-28
1.81848E-02 7.93795E-28
1.87724E-02 7.05870E-28
1.93692E-02 6.25382E-28
1.99751E-02 5.51654E-28
2.05901E-02 4.84213E-28
2.12143E-02 4.22713E-28
2.18476E-02 3.66871E-28
2.24900E-02 3.16435E-28
2.31415E-02 2.71157E-28
2.38021E-02 2.30780E-28
2.44717E-02 1.95030E-28
2.51504E-02 1.63616E-28
2.58382E-02 1.36232E-28
2.65349E-02 1.12560E-28
2.72407E-02 9.22772E-29
2.79555E-02 7.50582E-29
2.86793E-02 6.05828E-29
2.94120E-02 4.85399E-29
3.01537E-02 3.86315E-29
3.09043E-02 3.05767E-29
3.16639E-02 2.41134E-29
3.24324E-02 1.90007E-29
3.32098E-02 1.50202E-29
3.39961E-02 1.19754E-29
3.47912E-02 9.69286E-30
3.55952E-02 8.02050E-30
3.64081E-02 6.82723E-30
3.72297E-02 6.00145E-30
3.80602E-02 5.44956E-30
3.88995E-02 5.09438E-30
3.97476E-02 4.87342E-30
4.06044E-02 4.73717E-30
4.14700E-02 4.64741E-30
4.23443E-02 4.57561E-30
4.32273E-02 4.50140E-30
4.41190E-02 4.41115E-30
4.50194E-02 4.29671E-30
4.59284E-02 4.15422E-30
4.68461E-02 3.98317E-30
4.87074E-02 3.56465E-30
5.06030E-02 3.07305E-30
5.25328E-02 2.55015E-30
5.44967E-02 2.03601E-30
5.64946E-02 1.56264E-30
5.85262E-02 1.15142E-30
6.05914E-02 8.13155E-31
6.26901E-02 5.49607E-31
6.48222E-02 3.55741E-31
6.69873E-02 2.22150E-31
6.91854E-02 1.37240E-31
7.14163E-02 8.89974E-32
7.36799E-02 6.62649E-32
7.59760E-02 5.95299E-32
7.83043E-02 6.12987E-32
8.06647E-02 6.61458E-32
8.30571E-02 7.05369E-32
8.54812E-02 7.25185E-32
8.79369E-02 7.13481E-32
9.04240E-02 6.71246E-32
9.29422E-02 6.04569E-32
9.54915E-02 5.21922E-32
9.80716E-02 4.32144E-32
1.00682E-01 3.43089E-32
1.03323E-01 2.60868E-32
1.05995E-01 1.89568E-32
1.08696E-01 1.31312E-32
1.11427E-01 8.65456E-33
1.14188E-01 5.44272E-33
1.16978E-01 3.32629E-33
1.19797E-01 2.09039E-33
1.22645E-01 1.50810E-33
1.25522E-01 1.36566E-33
1.28428E-01 1.47900E-33
1.31361E-01 1.70250E-33
1.34323E-01 1.93130E-33
1.37313E-01 2.09883E-33
1.40330E-01 2.17124E-33
1.43375E-01 2.14024E-33
1.46447E-01 2.01555E-33
1.49545E-01 1.81777E-33
1.52671E-01 1.57241E-33
1.55823E-01 1.30528E-33
1.59001E-01 1.03922E-33
1.62205E-01 7.92227E-34
1.65435E-01 5.76688E-34
1.68690E-01 3.99455E-34
1.71970E-01 2.62515E-34
1.75276E-01 1.64011E-34
1.78606E-01 9.93802E-35
1.81961E-01 6.24752E-35
1.85340E-01 4.65414E-35
1.88743E-01 4.49949E-35
1.92169E-01 5.19745E-35
1.95619E-01 6.26767E-35
1.99092E-01 7.34985E-35
2.02589E-01 8.20265E-35
2.06107E-01 8.69171E-35
2.09649E-01 8.77090E-35
2.13212E-01 8.46040E-35
2.16797E-01 7.82477E-35
2.20404E-01 6.95285E-35
2.24032E-01 5.94117E-35
2.27680E-01 4.88128E-35
2.31350E-01 3.85129E-35
2.35040E-01 2.91102E-35
2.38751E-01 2.10040E-35
2.42481E-01 1.44037E-35
2.46231E-01 9.35318E-36
2.50000E-01 5.76607E-36
2.53788E-01 3.46407E-36
2.57595E-01 2.21444E-36
2.61421E-01 1.76312E-36
2.65264E-01 1.86137E-36
2.69126E-01 2.28540E-36
2.73005E-01 2.84879E-36
2.76901E-01 3.40831E-36
2.80814E-01 3.86476E-36
2.84744E-01 4.15954E-36
2.88691E-01 4.26881E-36
2.92653E-01 4.19593E-36
2.96632E-01 3.96371E-36
3.00625E-01 3.60694E-36
3.04634E-01 3.16589E-36
3.08658E-01 2.68099E-36
3.12697E-01 2.18876E-36
3.16749E-01 1.71965E-36
3.20816E-01 1.29636E-36
3.24896E-01 9.33764E-37
3.28990E-01 6.39239E-37
3.33097E-01 4.13813E-37
3.37216E-01 2.53427E-37
3.41348E-01 1.50424E-37
3.45492E-01 9.49323E-38
3.49647E-01 7.61504E-38
3.53814E-01 8.33458E-38
3.57992E-01 1.06699E-37
3.62181E-01 1.37752E-37
3.66381E-01 1.69802E-37
3.70590E-01 1.97881E-37
3.74810E-01 2.18786E-37
3.79039E-01 2.30814E-37
3.83277E-01 2.33574E-37
3.87524E-01 2.27633E-37
3.91780E-01 2.14273E-37
3.96044E-01 1.95180E-37
4.00316E-01 1.72202E-37
4.04596E-01 1.47173E-37
4.08882E-01 1.21754E-37
4.13176E-01 9.73349E-38
4.17476E-01 7.49930E-38
4.21783E-01 5.54605E-38
4.26095E-01 3.91549E-38
4.30413E-01 2.62122E-38
4.34737E-01 1.65302E-38
4.39065E-01 1.00000E-45
4.43398E-01 1.00000E-45
4.47736E-01 1.00000E-45
4.52077E-01 1.00000E-45
4.56422E-01 1.00000E-45
4.60770E-01 1.00000E-45
4.65122E-01 1.00000E-45
4.69476E-01 1.00000E-45
4.73832E-01 1.00000E-45
4.78190E-01 1.00000E-45
4.82550E-01 1.00000E-45
4.86912E-01 1.00000E-45
4.91274E-01 1.00000E-45
4.95637E-01 1.00000E-45
5.00000E-01 1.00000E-45
5.04363E-01 1.00000E-45
5.08726E-01 1.00000E-45
5.13088E-01 1.00000E-45
5.17450E-01 1.00000E-45
5.21810E-01 1.00000E-45
5.26168E-01 1.00000E-45
5.30524E-01 1.00000E-45
5.34878E-01 1.00000E-45
5.39230E-01 1.00000E-45
5.43578E-01 1.00000E-45
5.47923E-01 1.00000E-45
5.52264E-01 1.00000E-45
5.56602E-01 1.00000E-45
5.60935E-01 1.00000E-45
5.65263E-01 1.00000E-45
5.69587E-01 1.00000E-45
5.73905E-01 1.00000E-45
5.78217E-01 1.00000E-45
5.82524E-01 1.00000E-45
5.86824E-01 1.00000E-45
5.91118E-01 1.00000E-45
5.95404E-01 1.00000E-45
5.99684E-01 1.00000E-45
6.03956E-01 1.00000E-45
6.08220E-01 1.00000E-45
6.12476E-01 1.00000E-45
6.16723E-01 1.00000E-45
6.20961E-01 1.00000E-45
6.25190E-01 1.00000E-45
6.29410E-01 1.00000E-45
6.33619E-01 1.00000E-45
6.37819E-01 1.00000E-45
6.42008E-01 1.00000E-45
6.46186E-01 1.00000E-45
6.50353E-01 1.00000E-45
6.54508E-01 1.00000E-45
6.58652E-01 1.00000E-45
6.62784E-01 1.00000E-45
6.66903E-01 1.00000E-45
6.71010E-01 1.00000E-45
6.75104E-01 1.00000E-45
6.79184E-01 1.00000E-45
6.83251E-01 1.00000E-45
6.87303E-01 1.00000E-45
6.91342E-01 1.00000E-45
6.95366E-01 1.00000E-45
6.99375E-01 1.00000E-45
7.03368E-01 1.00000E-45
7.07347E-01 1.00000E-45
7.11309E-01 1.00000E-45
7.15256E-01 1.00000E-45
7.19186E-01 1.00000E-45
7.23099E-01 1.00000E-45
7.26995E-01 1.00000E-45
7.30874E-01 1.00000E-45
7.34736E-01 1.00000E-45
7.38579E-01 1.00000E-45
7.42405E-01 1.00000E-45
7.46212E-01 1.00000E-45
7.50000E-01 1.00000E-45
7.53769E-01 1.00000E-45
7.57519E-01 1.00000E-45
7.61249E-01 1.00000E-45
7.64960E-01 1.00000E-45
7.68650E-01 1.00000E-45
7.72320E-01 1.00000E-45
7.75968E-01 1.00000E-45
7.79596E-01 1.00000E-45
7.83203E-01 1.00000E-45
7.86788E-01 1.00000E-45
7.90351E-01 1.00000E-45
7.93893E-01 1.00000E-45
7.97411E-01 1.00000E-45
8.00908E-01 1.00000E-45
8.04381E-01 1.00000E-45
8.07831E-01 1.00000E-45
8.11257E-01 1.00000E-45
8.14660E-01 1.00000E-45
8.18039E-01 1.00000E-45
8.21394E-01 1.00000E-45
8.24724E-01 1.00000E-45
8.28030E-01 1.00000E-45
8.31310E-01 1.00000E-45
8.34565E-01 1.00000E-45
8.37795E-01 1.00000E-45
8.40999E-01 1.00000E-45
8.44177E-01 1.00000E-45
8.47329E-01 1.00000E-45
8.50455E-01 1.00000E-45
8.53553E-01 1.00000E-45
8.56625E-01 1.00000E-45
8.59670E-01 1.00000E-45
8.62687E-01 1.00000E-45
8.65677E-01 1.00000E-45
8.68639E-01 1.00000E-45
8.71572E-01 1.00000E-45
8.74478E-01 1.00000E-45
8.77355E-01 1.00000E-45
8.80203E-01 1.00000E-45
8.83022E-01 1.00000E-45
8.85812E-01 1.00000E-45
8.88573E-01 1.00000E-45
8.91304E-01 1.00000E-45
8.94005E-01 1.00000E-45
8.96677E-01 1.00000E-45
8.99318E-01 1.00000E-45
9.01928E-01 1.00000E-45
9.04508E-01 1.00000E-45
9.07058E-01 1.00000E-45
9.09576E-01 1.00000E-45
9.12063E-01 1.00000E-45
9.14519E-01 1.00000E-45
9.16943E-01 1.00000E-45
9.19335E-01 1.00000E-45
9.21696E-01 1.00000E-45
9.24024E-01 1.00000E-45
9.26320E-01 1.00000E-45
9.28584E-01 1.00000E-45
9.30815E-01 1.00000E-45
9.33013E-01 1.00000E-45
9.35178E-01 1.00000E-45
9.37310E-01 1.00000E-45
9.39409E-01 1.00000E-45
9.41474E-01 1.00000E-45
9.43505E-01 1.00000E-45
9.45503E-01 1.00000E-45
9.47467E-01 1.00000E-45
9.49397E-01 1.00000E-45
9.51293E-01 1.00000E-45
9.53154E-01 1.00000E-45
9.54981E-01 1.00000E-45
9.56773E-01 1.00000E-45
9.58530E-01 1.00000E-45
9.60252E-01 1.00000E-45
9.61940E-01 1.00000E-45
9.63592E-01 1.00000E-45
9.65209E-01 1.00000E-45
9.66790E-01 1.00000E-45
9.68336E-01 1.00000E-45
9.69846E-01 1.00000E-45
9.71321E-01 1.00000E-45
9.72759E-01 1.00000E-45
9.74162E-01 1.00000E-45
9.75528E-01 1.00000E-45
9.76858E-01 1.00000E-45
9.78152E-01 1.00000E-45
9.79410E-01 1.00000E-45
9.80631E-01 1.00000E-45
9.81815E-01 1.00000E-45
9.82963E-01 1.00000E-45
9.84074E-01 1.00000E-45
9.85148E-01 1.00000E-45
9.86185E-01 1.00000E-45
9.87185E-01 1.00000E-45
9.88148E-01 1.00000E-45
9.89074E-01 1.00000E-45
9.89962E-01 1.00000E-45
9.90814E-01 1.00000E-45
9.91627E-01 1.00000E-45
9.92404E-01 1.00000E-45
9.93143E-01 1.00000E-45
9.93844E-01 1.00000E-45
9.94508E-01 1.00000E-45
9.95134E-01 1.00000E-45
9.95722E-01 1.00000E-45
9.96273E-01 1.00000E-45
9.96786E-01 1.00000E-45
9.97261E-01 1.00000E-45
9.97698E-01 1.00000E-45
9.98097E-01 1.00000E-45
9.98459E-01 1.00000E-45
9.98782E-01 1.00000E-45
9.99067E-01 1.00000E-45
9.99315E-01 1.00000E-45
9.99524E-01 1.00000E-45
9.99695E-01 1.00000E-45
9.99829E-01 1.00000E-45
9.99924E-01 1.00000E-45
9.99981E-01 1.00000E-45
1.00000E+00 1.00000E-45
