 #
 # Subroutine ELSEPA. Elastic scattering of electrons and positrons
 #                    by neutral atoms and positive ions
 #
 # Projectile: positron
 # Kinetic energy = 4.00000E+07 eV = 1.46997E+06 a.u.
 #
 # WARNING: High-energy factorization with free-atom DF screening.
 #          Absorption, polarization and exchange corrections are
 #          switched off.
 #          Phase shifts are calculated for the bare nucleus.
 #          Scattering amplitudes are not evaluated.
 #
 # Element: Eu,  Z =  63,  atomic weight = 1.51964E+02 g/mol
 #
 # Nuclear model: Fermi distribution
 #                Average radius = 5.70993E-13 cm
 #                Skin thickness = 5.46000E-14 cm
 #
 # Number of electrons = 63
 #
 # Total elastic cross section = 7.19924E-18 cm**2 = 2.57090E-01 a0**2
 # 1st transport cross section = 4.20296E-24 cm**2 = 1.50091E-07 a0**2
 # 2nd transport cross section = 1.23067E-23 cm**2 = 4.39482E-07 a0**2
 #
 #
 # Differential cross section:                       MU=(1-COS(THETA))/2
 #
 #  THETA        MU          DCS          DCS        Sherman      error
 #  (deg)                 (cm**2/sr)   (a0**2/sr)    function
 #----------------------------------------------------------------------
0.00000E+00 1.46043E-10
7.61557E-13 1.45922E-10
1.18994E-12 1.45854E-10
1.71346E-12 1.45771E-10
2.33225E-12 1.45674E-10
3.04617E-12 1.45561E-10
3.85530E-12 1.45434E-10
4.75964E-12 1.45291E-10
5.75917E-12 1.45135E-10
6.85391E-12 1.44963E-10
8.04379E-12 1.44777E-10
9.32893E-12 1.44577E-10
1.07092E-11 1.44362E-10
1.21847E-11 1.44133E-10
1.37554E-11 1.43890E-10
1.54213E-11 1.43633E-10
1.71823E-11 1.43363E-10
1.90386E-11 1.43078E-10
2.09900E-11 1.42780E-10
2.30367E-11 1.42469E-10
2.51785E-11 1.42144E-10
2.74156E-11 1.41806E-10
2.97478E-11 1.41455E-10
3.21752E-11 1.41091E-10
3.46979E-11 1.40715E-10
3.73157E-11 1.40326E-10
4.00286E-11 1.39926E-10
4.28368E-11 1.39512E-10
4.57402E-11 1.39088E-10
4.87388E-11 1.38651E-10
5.18325E-11 1.38203E-10
5.50215E-11 1.37744E-10
5.83057E-11 1.37274E-10
6.16850E-11 1.36792E-10
6.51595E-11 1.36301E-10
6.87293E-11 1.35798E-10
7.23943E-11 1.35286E-10
7.61544E-11 1.34764E-10
1.18991E-10 1.29045E-10
1.71347E-10 1.22618E-10
2.33223E-10 1.15666E-10
3.04617E-10 1.08453E-10
3.85531E-10 1.01210E-10
4.75965E-10 9.40587E-11
5.75917E-10 8.71300E-11
6.85389E-10 8.05670E-11
8.04380E-10 7.44262E-11
9.32891E-10 6.87062E-11
1.07092E-09 6.34245E-11
1.21847E-09 5.86240E-11
1.37554E-09 5.42536E-11
1.54213E-09 5.02755E-11
1.71823E-09 4.66656E-11
1.90386E-09 4.34224E-11
2.09900E-09 4.04809E-11
2.30367E-09 3.78113E-11
2.51785E-09 3.53894E-11
2.74156E-09 3.31963E-11
2.97478E-09 3.11941E-11
3.21752E-09 2.93639E-11
3.46978E-09 2.76883E-11
3.73156E-09 2.61482E-11
4.00286E-09 2.47281E-11
4.28368E-09 2.34164E-11
4.57402E-09 2.22001E-11
4.87388E-09 2.10673E-11
5.18326E-09 2.00128E-11
5.50215E-09 1.90294E-11
5.83057E-09 1.81064E-11
6.16850E-09 1.72394E-11
6.51596E-09 1.64262E-11
6.87293E-09 1.56624E-11
7.23942E-09 1.49387E-11
7.61544E-09 1.42559E-11
1.18991E-08 9.13310E-12
1.71347E-08 5.97060E-12
2.33223E-08 4.11605E-12
3.04617E-08 2.91127E-12
3.85531E-08 2.10860E-12
4.75965E-08 1.56978E-12
5.75917E-08 1.19409E-12
6.85389E-08 9.20396E-13
8.04380E-08 7.18428E-13
9.32891E-08 5.68542E-13
1.07092E-07 4.55194E-13
1.21847E-07 3.67380E-13
1.37554E-07 2.99514E-13
1.54213E-07 2.46655E-13
1.71823E-07 2.05004E-13
1.90386E-07 1.71695E-13
2.09900E-07 1.45032E-13
2.30367E-07 1.23483E-13
2.51785E-07 1.05901E-13
2.74156E-07 9.13855E-14
2.97478E-07 7.93580E-14
3.21752E-07 6.93167E-14
3.46978E-07 6.08706E-14
3.73156E-07 5.36540E-14
4.00286E-07 4.75024E-14
4.28368E-07 4.22305E-14
4.57402E-07 3.76792E-14
4.87388E-07 3.37276E-14
5.18325E-07 3.02887E-14
5.50215E-07 2.72817E-14
5.83057E-07 2.46327E-14
6.16850E-07 2.22932E-14
6.51596E-07 2.02240E-14
6.87293E-07 1.83879E-14
7.23942E-07 1.67479E-14
7.61543E-07 1.52847E-14
1.18991E-06 6.73607E-15
1.71347E-06 3.39950E-15
2.33223E-06 1.89775E-15
3.04617E-06 1.14234E-15
3.85531E-06 7.28675E-16
4.75964E-06 4.86545E-16
5.75916E-06 3.37117E-16
6.85388E-06 2.40841E-16
8.04378E-06 1.76555E-16
9.32888E-06 1.32307E-16
1.07092E-05 1.01067E-16
1.21846E-05 7.85102E-17
1.37553E-05 6.18993E-17
1.54212E-05 4.94518E-17
1.71822E-05 3.99779E-17
1.90385E-05 3.26519E-17
2.09899E-05 2.69521E-17
2.30365E-05 2.24401E-17
2.51783E-05 1.88295E-17
2.74153E-05 1.59133E-17
2.97475E-05 1.35387E-17
3.21749E-05 1.15908E-17
3.46974E-05 9.98167E-18
3.73152E-05 8.64334E-18
4.00281E-05 7.52277E-18
4.28362E-05 6.57842E-18
4.57395E-05 5.77769E-18
4.87380E-05 5.09491E-18
5.18317E-05 4.50976E-18
5.50205E-05 4.00601E-18
5.83045E-05 3.57057E-18
6.16838E-05 3.19272E-18
6.51582E-05 2.86363E-18
6.87277E-05 2.57595E-18
7.23925E-05 2.32355E-18
7.61524E-05 2.10141E-18
9.21439E-05 1.43873E-18
1.09658E-04 1.01765E-18
1.28695E-04 7.39908E-19
1.49255E-04 5.50644E-19
1.71338E-04 4.18175E-19
1.94942E-04 3.23199E-19
2.20070E-04 2.53690E-19
2.46720E-04 2.01882E-19
2.74892E-04 1.62630E-19
3.04586E-04 1.32460E-19
3.35803E-04 1.08961E-19
3.68542E-04 9.04433E-20
4.02802E-04 7.56915E-20
4.38585E-04 6.38236E-20
4.75889E-04 5.41897E-20
5.14715E-04 4.63038E-20
5.55063E-04 3.97992E-20
5.96931E-04 3.43958E-20
6.40321E-04 2.98774E-20
6.85233E-04 2.60758E-20
7.31665E-04 2.28589E-20
7.79618E-04 2.01223E-20
8.29092E-04 1.77823E-20
8.80086E-04 1.57721E-20
9.32601E-04 1.40375E-20
9.86636E-04 1.25345E-20
1.04219E-03 1.12269E-20
1.09927E-03 1.00850E-20
1.15786E-03 9.08437E-21
1.21797E-03 8.20451E-21
1.27961E-03 7.42839E-21
1.34276E-03 6.74169E-21
1.40743E-03 6.13233E-21
1.47362E-03 5.59010E-21
1.54133E-03 5.10634E-21
1.61056E-03 4.67365E-21
1.68131E-03 4.28572E-21
1.75357E-03 3.93709E-21
1.82735E-03 3.62309E-21
1.90265E-03 3.33969E-21
1.97947E-03 3.08339E-21
2.05780E-03 2.85113E-21
2.13765E-03 2.64026E-21
2.21902E-03 2.44846E-21
2.30190E-03 2.27372E-21
2.38630E-03 2.11424E-21
2.47222E-03 1.96845E-21
2.55965E-03 1.83496E-21
2.64859E-03 1.71256E-21
2.73905E-03 1.60017E-21
2.83103E-03 1.49681E-21
2.92452E-03 1.40163E-21
3.01952E-03 1.31386E-21
3.11604E-03 1.23284E-21
3.21407E-03 1.15794E-21
3.31362E-03 1.08862E-21
3.41468E-03 1.02438E-21
3.51725E-03 9.64801E-22
3.62133E-03 9.09470E-22
3.72692E-03 8.58031E-22
3.83403E-03 8.10161E-22
3.94265E-03 7.65569E-22
4.05278E-03 7.23990E-22
4.16442E-03 6.85183E-22
4.27757E-03 6.48928E-22
4.39223E-03 6.15029E-22
4.50840E-03 5.83304E-22
4.62608E-03 5.53589E-22
4.74527E-03 5.25732E-22
4.86597E-03 4.99597E-22
4.98817E-03 4.75058E-22
5.11188E-03 4.51999E-22
5.23711E-03 4.30315E-22
5.36383E-03 4.09908E-22
5.49207E-03 3.90692E-22
5.62181E-03 3.72582E-22
5.75306E-03 3.55502E-22
5.88581E-03 3.39385E-22
6.02007E-03 3.24167E-22
6.15583E-03 3.09786E-22
6.29310E-03 2.96190E-22
6.43187E-03 2.83326E-22
6.57214E-03 2.71151E-22
6.71392E-03 2.59617E-22
6.85720E-03 2.48686E-22
7.00198E-03 2.38322E-22
7.14827E-03 2.28488E-22
7.29605E-03 2.19153E-22
7.44534E-03 2.10287E-22
7.59612E-03 2.01862E-22
7.97965E-03 1.82562E-22
8.37255E-03 1.65499E-22
8.77480E-03 1.50372E-22
9.18641E-03 1.36923E-22
9.60736E-03 1.24934E-22
1.00376E-02 1.14219E-22
1.04773E-02 1.04621E-22
1.09262E-02 9.60027E-23
1.13844E-02 8.82470E-23
1.18520E-02 8.12529E-23
1.23288E-02 7.49325E-23
1.28150E-02 6.92099E-23
1.33104E-02 6.40188E-23
1.38150E-02 5.93012E-23
1.43290E-02 5.50065E-23
1.48521E-02 5.10898E-23
1.53845E-02 4.75120E-23
1.59262E-02 4.42390E-23
1.64770E-02 4.12403E-23
1.70371E-02 3.84889E-23
1.76063E-02 3.59608E-23
1.81848E-02 3.36348E-23
1.87724E-02 3.14918E-23
1.93692E-02 2.95149E-23
1.99751E-02 2.76890E-23
2.05901E-02 2.60006E-23
2.12143E-02 2.44374E-23
2.18476E-02 2.29885E-23
2.24900E-02 2.16442E-23
2.31415E-02 2.03955E-23
2.38021E-02 1.92344E-23
2.44717E-02 1.81538E-23
2.51504E-02 1.71470E-23
2.58382E-02 1.62081E-23
2.65349E-02 1.53317E-23
2.72407E-02 1.45129E-23
2.79555E-02 1.37474E-23
2.86793E-02 1.30309E-23
2.94120E-02 1.23598E-23
3.01537E-02 1.17307E-23
3.09043E-02 1.11406E-23
3.16639E-02 1.05865E-23
3.24324E-02 1.00660E-23
3.32098E-02 9.57649E-24
3.39961E-02 9.11594E-24
3.47912E-02 8.68229E-24
3.55952E-02 8.27370E-24
3.64081E-02 7.88847E-24
3.72297E-02 7.52501E-24
3.80602E-02 7.18189E-24
3.88995E-02 6.85776E-24
3.97476E-02 6.55138E-24
4.06044E-02 6.26162E-24
4.14700E-02 5.98740E-24
4.23443E-02 5.72776E-24
4.32273E-02 5.48177E-24
4.41190E-02 5.24860E-24
4.50194E-02 5.02745E-24
4.59284E-02 4.81760E-24
4.68461E-02 4.61836E-24
4.87074E-02 4.24926E-24
5.06030E-02 3.91559E-24
5.25328E-02 3.61338E-24
5.44967E-02 3.33917E-24
5.64946E-02 3.08993E-24
5.85262E-02 2.86302E-24
6.05914E-02 2.65609E-24
6.26901E-02 2.46710E-24
6.48222E-02 2.29422E-24
6.69873E-02 2.13587E-24
6.91854E-02 1.99061E-24
7.14163E-02 1.85718E-24
7.36799E-02 1.73446E-24
7.59760E-02 1.62144E-24
7.83043E-02 1.51724E-24
8.06647E-02 1.42104E-24
8.30571E-02 1.33213E-24
8.54812E-02 1.24987E-24
8.79369E-02 1.17367E-24
9.04240E-02 1.10303E-24
9.29422E-02 1.03745E-24
9.54915E-02 9.76529E-25
9.80716E-02 9.19870E-25
1.00682E-01 8.67129E-25
1.03323E-01 8.17991E-25
1.05995E-01 7.72167E-25
1.08696E-01 7.29398E-25
1.11427E-01 6.89447E-25
1.14188E-01 6.52097E-25
1.16978E-01 6.17152E-25
1.19797E-01 5.84430E-25
1.22645E-01 5.53768E-25
1.25522E-01 5.25014E-25
1.28428E-01 4.98030E-25
1.31361E-01 4.72690E-25
1.34323E-01 4.48877E-25
1.37313E-01 4.26484E-25
1.40330E-01 4.05413E-25
1.43375E-01 3.85573E-25
1.46447E-01 3.66880E-25
1.49545E-01 3.49258E-25
1.52671E-01 3.32634E-25
1.55823E-01 3.16944E-25
1.59001E-01 3.02127E-25
1.62205E-01 2.88126E-25
1.65435E-01 2.74889E-25
1.68690E-01 2.62367E-25
1.71970E-01 2.50517E-25
1.75276E-01 2.39295E-25
1.78606E-01 2.28664E-25
1.81961E-01 2.18587E-25
1.85340E-01 2.09032E-25
1.88743E-01 1.99966E-25
1.92169E-01 1.91361E-25
1.95619E-01 1.83189E-25
1.99092E-01 1.75426E-25
2.02589E-01 1.68047E-25
2.06107E-01 1.61031E-25
2.09649E-01 1.54358E-25
2.13212E-01 1.48007E-25
2.16797E-01 1.41960E-25
2.20404E-01 1.36202E-25
2.24032E-01 1.30715E-25
2.27680E-01 1.25486E-25
2.31350E-01 1.20500E-25
2.35040E-01 1.15745E-25
2.38751E-01 1.11207E-25
2.42481E-01 1.06876E-25
2.46231E-01 1.02740E-25
2.50000E-01 9.87900E-26
2.53788E-01 9.50157E-26
2.57595E-01 9.14083E-26
2.61421E-01 8.79592E-26
2.65264E-01 8.46606E-26
2.69126E-01 8.15047E-26
2.73005E-01 7.84846E-26
2.76901E-01 7.55935E-26
2.80814E-01 7.28250E-26
2.84744E-01 7.01733E-26
2.88691E-01 6.76326E-26
2.92653E-01 6.51976E-26
2.96632E-01 6.28633E-26
3.00625E-01 6.06249E-26
3.04634E-01 5.84779E-26
3.08658E-01 5.64180E-26
3.12697E-01 5.44412E-26
3.16749E-01 5.25435E-26
3.20816E-01 5.07215E-26
3.24896E-01 4.89716E-26
3.28990E-01 4.72905E-26
3.33097E-01 4.56753E-26
3.37216E-01 4.41229E-26
3.41348E-01 4.26305E-26
3.45492E-01 4.11955E-26
3.49647E-01 3.98154E-26
3.53814E-01 3.84877E-26
3.57992E-01 3.72102E-26
3.62181E-01 3.59808E-26
3.66381E-01 3.47974E-26
3.70590E-01 3.36579E-26
3.74810E-01 3.25607E-26
3.79039E-01 3.15038E-26
3.83277E-01 3.04855E-26
3.87524E-01 2.95044E-26
3.91780E-01 2.85588E-26
3.96044E-01 2.76472E-26
4.00316E-01 2.67684E-26
4.04596E-01 2.59209E-26
4.08882E-01 2.51034E-26
4.13176E-01 2.43149E-26
4.17476E-01 2.35540E-26
4.21783E-01 2.28197E-26
4.26095E-01 2.21110E-26
4.30413E-01 2.14269E-26
4.34737E-01 2.07663E-26
4.39065E-01 2.01284E-26
4.43398E-01 1.95122E-26
4.47736E-01 1.89170E-26
4.52077E-01 1.83420E-26
4.56422E-01 1.77863E-26
4.60770E-01 1.72492E-26
4.65122E-01 1.67300E-26
4.69476E-01 1.62281E-26
4.73832E-01 1.57428E-26
4.78190E-01 1.52735E-26
4.82550E-01 1.48196E-26
4.86912E-01 1.43805E-26
4.91274E-01 1.39556E-26
4.95637E-01 1.35445E-26
5.00000E-01 1.31467E-26
5.04363E-01 1.27616E-26
5.08726E-01 1.23888E-26
5.13088E-01 1.20279E-26
5.17450E-01 1.16785E-26
5.21810E-01 1.13400E-26
5.26168E-01 1.10123E-26
5.30524E-01 1.06947E-26
5.34878E-01 1.03871E-26
5.39230E-01 1.00891E-26
5.43578E-01 9.80027E-27
5.47923E-01 9.52035E-27
5.52264E-01 9.24903E-27
5.56602E-01 8.98602E-27
5.60935E-01 8.73103E-27
5.65263E-01 8.48378E-27
5.69587E-01 8.24402E-27
5.73905E-01 8.01149E-27
5.78217E-01 7.78594E-27
5.82524E-01 7.56714E-27
5.86824E-01 7.35488E-27
5.91118E-01 7.14892E-27
5.95404E-01 6.94906E-27
5.99684E-01 6.75510E-27
6.03956E-01 6.56685E-27
6.08220E-01 6.38411E-27
6.12476E-01 6.20671E-27
6.16723E-01 6.03448E-27
6.20961E-01 5.86725E-27
6.25190E-01 5.70486E-27
6.29410E-01 5.54714E-27
6.33619E-01 5.39396E-27
6.37819E-01 5.24517E-27
6.42008E-01 5.10063E-27
6.46186E-01 4.96020E-27
6.50353E-01 4.82375E-27
6.54508E-01 4.69116E-27
6.58652E-01 4.56232E-27
6.62784E-01 4.43709E-27
6.66903E-01 4.31538E-27
6.71010E-01 4.19707E-27
6.75104E-01 4.08205E-27
6.79184E-01 3.97023E-27
6.83251E-01 3.86151E-27
6.87303E-01 3.75579E-27
6.91342E-01 3.65298E-27
6.95366E-01 3.55300E-27
6.99375E-01 3.45576E-27
7.03368E-01 3.36117E-27
7.07347E-01 3.26916E-27
7.11309E-01 3.17965E-27
7.15256E-01 3.09257E-27
7.19186E-01 3.00784E-27
7.23099E-01 2.92539E-27
7.26995E-01 2.84516E-27
7.30874E-01 2.76708E-27
7.34736E-01 2.69110E-27
7.38579E-01 2.61714E-27
7.42405E-01 2.54515E-27
7.46212E-01 2.47507E-27
7.50000E-01 2.40686E-27
7.53769E-01 2.34044E-27
7.57519E-01 2.27578E-27
7.61249E-01 2.21282E-27
7.64960E-01 2.15151E-27
7.68650E-01 2.09182E-27
7.72320E-01 2.03368E-27
7.75968E-01 1.97706E-27
7.79596E-01 1.92192E-27
7.83203E-01 1.86821E-27
7.86788E-01 1.81589E-27
7.90351E-01 1.76493E-27
7.93893E-01 1.71529E-27
7.97411E-01 1.66693E-27
8.00908E-01 1.61982E-27
8.04381E-01 1.57392E-27
8.07831E-01 1.52919E-27
8.11257E-01 1.48562E-27
8.14660E-01 1.44316E-27
8.18039E-01 1.40178E-27
8.21394E-01 1.36147E-27
8.24724E-01 1.32218E-27
8.28030E-01 1.28389E-27
8.31310E-01 1.24658E-27
8.34565E-01 1.21021E-27
8.37795E-01 1.17477E-27
8.40999E-01 1.14023E-27
8.44177E-01 1.10656E-27
8.47329E-01 1.07374E-27
8.50455E-01 1.04176E-27
8.53553E-01 1.01058E-27
8.56625E-01 9.80192E-28
8.59670E-01 9.50571E-28
8.62687E-01 9.21699E-28
8.65677E-01 8.93555E-28
8.68639E-01 8.66121E-28
8.71572E-01 8.39380E-28
8.74478E-01 8.13314E-28
8.77355E-01 7.87906E-28
8.80203E-01 7.63139E-28
8.83022E-01 7.38998E-28
8.85812E-01 7.15467E-28
8.88573E-01 6.92531E-28
8.91304E-01 6.70175E-28
8.94005E-01 6.48386E-28
8.96677E-01 6.27149E-28
8.99318E-01 6.06451E-28
9.01928E-01 5.86280E-28
9.04508E-01 5.66622E-28
9.07058E-01 5.47466E-28
9.09576E-01 5.28799E-28
9.12063E-01 5.10611E-28
9.14519E-01 4.92889E-28
9.16943E-01 4.75623E-28
9.19335E-01 4.58803E-28
9.21696E-01 4.42417E-28
9.24024E-01 4.26457E-28
9.26320E-01 4.10913E-28
9.28584E-01 3.95775E-28
9.30815E-01 3.81035E-28
9.33013E-01 3.66682E-28
9.35178E-01 3.52710E-28
9.37310E-01 3.39109E-28
9.39409E-01 3.25872E-28
9.41474E-01 3.12991E-28
9.43505E-01 3.00457E-28
9.45503E-01 2.88265E-28
9.47467E-01 2.76406E-28
9.49397E-01 2.64874E-28
9.51293E-01 2.53661E-28
9.53154E-01 2.42763E-28
9.54981E-01 2.32171E-28
9.56773E-01 2.21881E-28
9.58530E-01 2.11886E-28
9.60252E-01 2.02181E-28
9.61940E-01 1.92759E-28
9.63592E-01 1.83616E-28
9.65209E-01 1.74747E-28
9.66790E-01 1.66146E-28
9.68336E-01 1.57808E-28
9.69846E-01 1.49729E-28
9.71321E-01 1.41904E-28
9.72759E-01 1.34329E-28
9.74162E-01 1.27000E-28
9.75528E-01 1.19912E-28
9.76858E-01 1.13062E-28
9.78152E-01 1.06445E-28
9.79410E-01 1.00059E-28
9.80631E-01 9.38984E-29
9.81815E-01 8.79613E-29
9.82963E-01 8.22440E-29
9.84074E-01 7.67433E-29
9.85148E-01 7.14562E-29
9.86185E-01 6.63797E-29
9.87185E-01 6.15112E-29
9.88148E-01 5.68478E-29
9.89074E-01 5.23872E-29
9.89962E-01 4.81267E-29
9.90814E-01 4.40642E-29
9.91627E-01 4.01973E-29
9.92404E-01 3.65241E-29
9.93143E-01 3.30424E-29
9.93844E-01 2.97504E-29
9.94508E-01 2.66463E-29
9.95134E-01 2.37285E-29
9.95722E-01 2.09953E-29
9.96273E-01 1.84452E-29
9.96786E-01 1.60770E-29
9.97261E-01 1.38892E-29
9.97698E-01 1.18808E-29
9.98097E-01 1.00506E-29
9.98459E-01 8.39769E-30
9.98782E-01 6.92115E-30
9.99067E-01 5.62017E-30
9.99315E-01 4.49407E-30
9.99524E-01 3.54224E-30
9.99695E-01 2.76417E-30
9.99829E-01 2.15943E-30
9.99924E-01 1.72771E-30
9.99981E-01 1.46877E-30
1.00000E+00 1.38248E-30
