 #
 # Subroutine ELSEPA. Elastic scattering of electrons and positrons
 #                    by neutral atoms and positive ions
 #
 # Projectile: positron
 # Kinetic energy = 3.00000E+08 eV = 1.10248E+07 a.u.
 #
 # WARNING: High-energy factorization with free-atom DF screening.
 #          Absorption, polarization and exchange corrections are
 #          switched off.
 #          Phase shifts are calculated for the bare nucleus.
 #          Scattering amplitudes are not evaluated.
 #
 # Element: Eu,  Z =  63,  atomic weight = 1.51964E+02 g/mol
 #
 # Nuclear model: Fermi distribution
 #                Average radius = 5.70993E-13 cm
 #                Skin thickness = 5.46000E-14 cm
 #
 # Number of electrons = 63
 #
 # Total elastic cross section = 7.19965E-18 cm**2 = 2.57104E-01 a0**2
 # 1st transport cross section = 8.40077E-26 cm**2 = 2.99997E-09 a0**2
 # 2nd transport cross section = 2.51743E-25 cm**2 = 8.98989E-09 a0**2
 #
 #
 # Differential cross section:                       MU=(1-COS(THETA))/2
 #
 #  THETA        MU          DCS          DCS        Sherman      error
 #  (deg)                 (cm**2/sr)   (a0**2/sr)    function
 #----------------------------------------------------------------------
0.00000E+00 8.03631E-09
7.61557E-13 7.68444E-09
1.18994E-12 7.49769E-09
1.71346E-12 7.27956E-09
2.33225E-12 7.03519E-09
3.04617E-12 6.77136E-09
3.85530E-12 6.48993E-09
4.75964E-12 6.20070E-09
5.75917E-12 5.90325E-09
6.85391E-12 5.60837E-09
8.04379E-12 5.31357E-09
9.32893E-12 5.02702E-09
1.07092E-11 4.74778E-09
1.21847E-11 4.47979E-09
1.37554E-11 4.22412E-09
1.54213E-11 3.98054E-09
1.71823E-11 3.75223E-09
1.90386E-11 3.53541E-09
2.09900E-11 3.33507E-09
2.30367E-11 3.14546E-09
2.51785E-11 2.97109E-09
2.74156E-11 2.80723E-09
2.97478E-11 2.65602E-09
3.21752E-11 2.51503E-09
3.46979E-11 2.38430E-09
3.73157E-11 2.26305E-09
4.00286E-11 2.15008E-09
4.28368E-11 2.04556E-09
4.57402E-11 1.94774E-09
4.87388E-11 1.85721E-09
5.18325E-11 1.77233E-09
5.50215E-11 1.69333E-09
5.83057E-11 1.61923E-09
6.16850E-11 1.54989E-09
6.51595E-11 1.48475E-09
6.87293E-11 1.42355E-09
7.23943E-11 1.36585E-09
7.61544E-11 1.31153E-09
1.18991E-10 8.99892E-10
1.71347E-10 6.38899E-10
2.33223E-10 4.62965E-10
3.04617E-10 3.37311E-10
3.85531E-10 2.55624E-10
4.75965E-10 1.94397E-10
5.75917E-10 1.52236E-10
6.85389E-10 1.19548E-10
8.04380E-10 9.59788E-11
9.32891E-10 7.75161E-11
1.07092E-09 6.34540E-11
1.21847E-09 5.23125E-11
1.37554E-09 4.34627E-11
1.54213E-09 3.63981E-11
1.71823E-09 3.06122E-11
1.90386E-09 2.59680E-11
2.09900E-09 2.20828E-11
2.30367E-09 1.89342E-11
2.51785E-09 1.62817E-11
2.74156E-09 1.40964E-11
2.97478E-09 1.22536E-11
3.21752E-09 1.07094E-11
3.46978E-09 9.40191E-12
3.73156E-09 8.29085E-12
4.00286E-09 7.34436E-12
4.28368E-09 6.53009E-12
4.57402E-09 5.83152E-12
4.87388E-09 5.22365E-12
5.18326E-09 4.69767E-12
5.50215E-09 4.23648E-12
5.83057E-09 3.83360E-12
6.16850E-09 3.47877E-12
6.51596E-09 3.16459E-12
6.87293E-09 2.88520E-12
7.23942E-09 2.63635E-12
7.61544E-09 2.41484E-12
1.18991E-08 1.10356E-12
1.71347E-08 5.70121E-13
2.33223E-08 3.22074E-13
3.04617E-08 1.95103E-13
3.85531E-08 1.25020E-13
4.75965E-08 8.38496E-14
5.75917E-08 5.83606E-14
6.85389E-08 4.18632E-14
8.04380E-08 3.08160E-14
9.32891E-08 2.31835E-14
1.07092E-07 1.77714E-14
1.21847E-07 1.38504E-14
1.37554E-07 1.09505E-14
1.54213E-07 8.77030E-15
1.71823E-07 7.10603E-15
1.90386E-07 5.81702E-15
2.09900E-07 4.80720E-15
2.30367E-07 4.00692E-15
2.51785E-07 3.36607E-15
2.74156E-07 2.84828E-15
2.97478E-07 2.42617E-15
3.21752E-07 2.07937E-15
3.46978E-07 1.79236E-15
3.73156E-07 1.55314E-15
4.00286E-07 1.35253E-15
4.28368E-07 1.18330E-15
4.57402E-07 1.03970E-15
4.87388E-07 9.17259E-16
5.18325E-07 8.12319E-16
5.50215E-07 7.21968E-16
5.83057E-07 6.43847E-16
6.16850E-07 5.76009E-16
6.51596E-07 5.16881E-16
6.87293E-07 4.65154E-16
7.23942E-07 4.19737E-16
7.61543E-07 3.79735E-16
1.18991E-06 1.56924E-16
1.71347E-06 7.61271E-17
2.33223E-06 4.12585E-17
3.04617E-06 2.42534E-17
3.85531E-06 1.51716E-17
4.75964E-06 9.96846E-18
5.75916E-06 6.81572E-18
6.85388E-06 4.81605E-18
8.04378E-06 3.49855E-18
9.32888E-06 2.60213E-18
1.07092E-05 1.97518E-18
1.21846E-05 1.52610E-18
1.37553E-05 1.19765E-18
1.54212E-05 9.52967E-19
1.71822E-05 7.67670E-19
1.90385E-05 6.25023E-19
2.09899E-05 5.14463E-19
2.30365E-05 4.27238E-19
2.51783E-05 3.57655E-19
2.74153E-05 3.01608E-19
2.97475E-05 2.56086E-19
3.21749E-05 2.18831E-19
3.46974E-05 1.88121E-19
3.73152E-05 1.62632E-19
4.00281E-05 1.41329E-19
4.28362E-05 1.23408E-19
4.57395E-05 1.08237E-19
4.87380E-05 9.53223E-20
5.18317E-05 8.42709E-20
5.50205E-05 7.47705E-20
5.83045E-05 6.65698E-20
6.16838E-05 5.94628E-20
6.51582E-05 5.32807E-20
6.87277E-05 4.78828E-20
7.23925E-05 4.31524E-20
7.61524E-05 3.91297E-20
9.21439E-05 2.67226E-20
1.09658E-04 1.88634E-20
1.28695E-04 1.36927E-20
1.49255E-04 1.01766E-20
1.71338E-04 7.71983E-21
1.94942E-04 5.96085E-21
2.20070E-04 4.67501E-21
2.46720E-04 3.71752E-21
2.74892E-04 2.99263E-21
3.04586E-04 2.43575E-21
3.35803E-04 2.00226E-21
3.68542E-04 1.66080E-21
4.02802E-04 1.38888E-21
4.38585E-04 1.17020E-21
4.75889E-04 9.92742E-22
5.14715E-04 8.47519E-22
5.55063E-04 7.27767E-22
5.96931E-04 6.28312E-22
6.40321E-04 5.45170E-22
6.85233E-04 4.75236E-22
7.31665E-04 4.16077E-22
7.79618E-04 3.65763E-22
8.29092E-04 3.22758E-22
8.80086E-04 2.85827E-22
9.32601E-04 2.53971E-22
9.86636E-04 2.26380E-22
1.04219E-03 2.02388E-22
1.09927E-03 1.81448E-22
1.15786E-03 1.63107E-22
1.21797E-03 1.46991E-22
1.27961E-03 1.32783E-22
1.34276E-03 1.20222E-22
1.40743E-03 1.09083E-22
1.47362E-03 9.91797E-23
1.54133E-03 9.03518E-23
1.61056E-03 8.24630E-23
1.68131E-03 7.53969E-23
1.75357E-03 6.90535E-23
1.82735E-03 6.33464E-23
1.90265E-03 5.82013E-23
1.97947E-03 5.35536E-23
2.05780E-03 4.93474E-23
2.13765E-03 4.55336E-23
2.21902E-03 4.20697E-23
2.30190E-03 3.89182E-23
2.38630E-03 3.60464E-23
2.47222E-03 3.34253E-23
2.55965E-03 3.10294E-23
2.64859E-03 2.88363E-23
2.73905E-03 2.68260E-23
2.83103E-03 2.49807E-23
2.92452E-03 2.32848E-23
3.01952E-03 2.17241E-23
3.11604E-03 2.02862E-23
3.21407E-03 1.89598E-23
3.31362E-03 1.77350E-23
3.41468E-03 1.66026E-23
3.51725E-03 1.55547E-23
3.62133E-03 1.45838E-23
3.72692E-03 1.36836E-23
3.83403E-03 1.28479E-23
3.94265E-03 1.20715E-23
4.05278E-03 1.13495E-23
4.16442E-03 1.06775E-23
4.27757E-03 1.00515E-23
4.39223E-03 9.46794E-24
4.50840E-03 8.92340E-24
4.62608E-03 8.41492E-24
4.74527E-03 7.93975E-24
4.86597E-03 7.49538E-24
4.98817E-03 7.07952E-24
5.11188E-03 6.69007E-24
5.23711E-03 6.32511E-24
5.36383E-03 5.98286E-24
5.49207E-03 5.66172E-24
5.62181E-03 5.36019E-24
5.75306E-03 5.07691E-24
5.88581E-03 4.81061E-24
6.02007E-03 4.56012E-24
6.15583E-03 4.32439E-24
6.29310E-03 4.10242E-24
6.43187E-03 3.89329E-24
6.57214E-03 3.69616E-24
6.71392E-03 3.51026E-24
6.85720E-03 3.33484E-24
7.00198E-03 3.16925E-24
7.14827E-03 3.01286E-24
7.29605E-03 2.86509E-24
7.44534E-03 2.72540E-24
7.59612E-03 2.59329E-24
7.97965E-03 2.29324E-24
8.37255E-03 2.03135E-24
8.77480E-03 1.80222E-24
9.18641E-03 1.60130E-24
9.60736E-03 1.42474E-24
1.00376E-02 1.26929E-24
1.04773E-02 1.13216E-24
1.09262E-02 1.01098E-24
1.13844E-02 9.03717E-25
1.18520E-02 8.08625E-25
1.23288E-02 7.24198E-25
1.28150E-02 6.49135E-25
1.33104E-02 5.82310E-25
1.38150E-02 5.22745E-25
1.43290E-02 4.69591E-25
1.48521E-02 4.22105E-25
1.53845E-02 3.79639E-25
1.59262E-02 3.41626E-25
1.64770E-02 3.07569E-25
1.70371E-02 2.77030E-25
1.76063E-02 2.49624E-25
1.81848E-02 2.25011E-25
1.87724E-02 2.02891E-25
1.93692E-02 1.83000E-25
1.99751E-02 1.65101E-25
2.05901E-02 1.48987E-25
2.12143E-02 1.34472E-25
2.18476E-02 1.21392E-25
2.24900E-02 1.09599E-25
2.31415E-02 9.89631E-26
2.38021E-02 8.93670E-26
2.44717E-02 8.07065E-26
2.51504E-02 7.28882E-26
2.58382E-02 6.58284E-26
2.65349E-02 5.94521E-26
2.72407E-02 5.36922E-26
2.79555E-02 4.84884E-26
2.86793E-02 4.37862E-26
2.94120E-02 3.95371E-26
3.01537E-02 3.56971E-26
3.09043E-02 3.22267E-26
3.16639E-02 2.90902E-26
3.24324E-02 2.62557E-26
3.32098E-02 2.36942E-26
3.39961E-02 2.13795E-26
3.47912E-02 1.92880E-26
3.55952E-02 1.73984E-26
3.64081E-02 1.56915E-26
3.72297E-02 1.41499E-26
3.80602E-02 1.27577E-26
3.88995E-02 1.15008E-26
3.97476E-02 1.03663E-26
4.06044E-02 9.34247E-27
4.14700E-02 8.41877E-27
4.23443E-02 7.58564E-27
4.32273E-02 6.83441E-27
4.41190E-02 6.15723E-27
4.50194E-02 5.54700E-27
4.59284E-02 4.99728E-27
4.68461E-02 4.50223E-27
4.87074E-02 3.65552E-27
5.06030E-02 2.97029E-27
5.25328E-02 2.41654E-27
5.44967E-02 1.96966E-27
5.64946E-02 1.60949E-27
5.85262E-02 1.31956E-27
6.05914E-02 1.08636E-27
6.26901E-02 8.98918E-28
6.48222E-02 7.48259E-28
6.69873E-02 6.27106E-28
6.91854E-02 5.29553E-28
7.14163E-02 4.50826E-28
7.36799E-02 3.87076E-28
7.59760E-02 3.35208E-28
7.83043E-02 2.92747E-28
8.06647E-02 2.57717E-28
8.30571E-02 2.28549E-28
8.54812E-02 2.04006E-28
8.79369E-02 1.83112E-28
9.04240E-02 1.65106E-28
9.29422E-02 1.49397E-28
9.54915E-02 1.35527E-28
9.80716E-02 1.23144E-28
1.00682E-01 1.11982E-28
1.03323E-01 1.01836E-28
1.05995E-01 9.25536E-29
1.08696E-01 8.40192E-29
1.11427E-01 7.61459E-29
1.14188E-01 6.88681E-29
1.16978E-01 6.21356E-29
1.19797E-01 5.59092E-29
1.22645E-01 5.01573E-29
1.25522E-01 4.48536E-29
1.28428E-01 3.99752E-29
1.31361E-01 3.55008E-29
1.34323E-01 3.14105E-29
1.37313E-01 2.76848E-29
1.40330E-01 2.43043E-29
1.43375E-01 2.12495E-29
1.46447E-01 1.85009E-29
1.49545E-01 1.60387E-29
1.52671E-01 1.38435E-29
1.55823E-01 1.18955E-29
1.59001E-01 1.01755E-29
1.62205E-01 8.66473E-30
1.65435E-01 7.34475E-30
1.68690E-01 6.19790E-30
1.71970E-01 5.20726E-30
1.75276E-01 4.35677E-30
1.78606E-01 3.63127E-30
1.81961E-01 3.01660E-30
1.85340E-01 2.49956E-30
1.88743E-01 2.06799E-30
1.92169E-01 1.71073E-30
1.95619E-01 1.41762E-30
1.99092E-01 1.17947E-30
2.02589E-01 9.88020E-31
2.06107E-01 8.35899E-31
2.09649E-01 7.16578E-31
2.13212E-01 6.24315E-31
2.16797E-01 5.54100E-31
2.20404E-01 5.01594E-31
2.24032E-01 4.63074E-31
2.27680E-01 4.35373E-31
2.31350E-01 4.15830E-31
2.35040E-01 4.02228E-31
2.38751E-01 3.92750E-31
2.42481E-01 3.85924E-31
2.46231E-01 3.80587E-31
2.50000E-01 3.75832E-31
2.53788E-01 3.70981E-31
2.57595E-01 3.65543E-31
2.61421E-01 3.59184E-31
2.65264E-01 3.51702E-31
2.69126E-01 3.42998E-31
2.73005E-01 3.33059E-31
2.76901E-01 3.21933E-31
2.80814E-01 3.09720E-31
2.84744E-01 2.96550E-31
2.88691E-01 2.82581E-31
2.92653E-01 2.67978E-31
2.96632E-01 2.52916E-31
3.00625E-01 2.37565E-31
3.04634E-01 2.22091E-31
3.08658E-01 2.06649E-31
3.12697E-01 1.91381E-31
3.16749E-01 1.76414E-31
3.20816E-01 1.61860E-31
3.24896E-01 1.47815E-31
3.28990E-01 1.34359E-31
3.33097E-01 1.21555E-31
3.37216E-01 1.09452E-31
3.41348E-01 9.80841E-32
3.45492E-01 8.74735E-32
3.49647E-01 7.76301E-32
3.53814E-01 6.85536E-32
3.57992E-01 6.02343E-32
3.62181E-01 5.26549E-32
3.66381E-01 4.57916E-32
3.70590E-01 3.96150E-32
3.74810E-01 3.40916E-32
3.79039E-01 2.91847E-32
3.83277E-01 2.48551E-32
3.87524E-01 2.10622E-32
3.91780E-01 1.77650E-32
3.96044E-01 1.49221E-32
4.00316E-01 1.24926E-32
4.04596E-01 1.04369E-32
4.08882E-01 8.71640E-33
4.13176E-01 7.29440E-33
4.17476E-01 6.13603E-33
4.21783E-01 5.20855E-33
4.26095E-01 4.48142E-33
4.30413E-01 3.92640E-33
4.34737E-01 3.51759E-33
4.39065E-01 3.23139E-33
4.43398E-01 3.04647E-33
4.47736E-01 2.94372E-33
4.52077E-01 2.90616E-33
4.56422E-01 2.91882E-33
4.60770E-01 2.96862E-33
4.65122E-01 3.04429E-33
4.69476E-01 3.13618E-33
4.73832E-01 3.23618E-33
4.78190E-01 3.33755E-33
4.82550E-01 3.43480E-33
4.86912E-01 3.52358E-33
4.91274E-01 3.60051E-33
4.95637E-01 3.66312E-33
5.00000E-01 3.70968E-33
5.04363E-01 3.73914E-33
5.08726E-01 3.75102E-33
5.13088E-01 3.74531E-33
5.17450E-01 3.72238E-33
5.21810E-01 3.68295E-33
5.26168E-01 3.62796E-33
5.30524E-01 3.55857E-33
5.34878E-01 3.47607E-33
5.39230E-01 3.38185E-33
5.43578E-01 3.27734E-33
5.47923E-01 3.16402E-33
5.52264E-01 3.04332E-33
5.56602E-01 2.91668E-33
5.60935E-01 2.78547E-33
5.65263E-01 2.65099E-33
5.69587E-01 2.51446E-33
5.73905E-01 2.37703E-33
5.78217E-01 2.23975E-33
5.82524E-01 2.10355E-33
5.86824E-01 1.96929E-33
5.91118E-01 1.83772E-33
5.95404E-01 1.70949E-33
5.99684E-01 1.58517E-33
6.03956E-01 1.46522E-33
6.08220E-01 1.35004E-33
6.12476E-01 1.23992E-33
6.16723E-01 1.13509E-33
6.20961E-01 1.03573E-33
6.25190E-01 9.41917E-34
6.29410E-01 8.53708E-34
6.33619E-01 7.71091E-34
6.37819E-01 6.94012E-34
6.42008E-01 6.22381E-34
6.46186E-01 5.56071E-34
6.50353E-01 4.94927E-34
6.54508E-01 4.38771E-34
6.58652E-01 3.87403E-34
6.62784E-01 3.40613E-34
6.66903E-01 2.98174E-34
6.71010E-01 2.59852E-34
6.75104E-01 2.25409E-34
6.79184E-01 1.94605E-34
6.83251E-01 1.67199E-34
6.87303E-01 1.42952E-34
6.91342E-01 1.21631E-34
6.95366E-01 1.03006E-34
6.99375E-01 8.68544E-35
7.03368E-01 7.29633E-35
7.07347E-01 6.11277E-35
7.11309E-01 5.11522E-35
7.15256E-01 4.28512E-35
7.19186E-01 3.60495E-35
7.23099E-01 3.05828E-35
7.26995E-01 2.62973E-35
7.30874E-01 2.30498E-35
7.34736E-01 2.07076E-35
7.38579E-01 1.91485E-35
7.42405E-01 1.82595E-35
7.46212E-01 1.79385E-35
7.50000E-01 1.80915E-35
7.53769E-01 1.86340E-35
7.57519E-01 1.94902E-35
7.61249E-01 2.05915E-35
7.64960E-01 2.18773E-35
7.68650E-01 2.32941E-35
7.72320E-01 2.47947E-35
7.75968E-01 2.63379E-35
7.79596E-01 2.78885E-35
7.83203E-01 2.94162E-35
7.86788E-01 3.08954E-35
7.90351E-01 3.23050E-35
7.93893E-01 3.36277E-35
7.97411E-01 3.48496E-35
8.00908E-01 3.59601E-35
8.04381E-01 3.69514E-35
8.07831E-01 3.78182E-35
8.11257E-01 3.85572E-35
8.14660E-01 3.91674E-35
8.18039E-01 3.96491E-35
8.21394E-01 4.00040E-35
8.24724E-01 4.02354E-35
8.28030E-01 4.03473E-35
8.31310E-01 4.03446E-35
8.34565E-01 4.02327E-35
8.37795E-01 4.00178E-35
8.40999E-01 3.97060E-35
8.44177E-01 3.93045E-35
8.47329E-01 3.88200E-35
8.50455E-01 3.82591E-35
8.53553E-01 3.76293E-35
8.56625E-01 3.69370E-35
8.59670E-01 3.61895E-35
8.62687E-01 3.53929E-35
8.65677E-01 3.45537E-35
8.68639E-01 3.36781E-35
8.71572E-01 3.27720E-35
8.74478E-01 3.18408E-35
8.77355E-01 3.08897E-35
8.80203E-01 2.99239E-35
8.83022E-01 2.89478E-35
8.85812E-01 2.79657E-35
8.88573E-01 2.69817E-35
8.91304E-01 2.59992E-35
8.94005E-01 2.50217E-35
8.96677E-01 2.40522E-35
8.99318E-01 2.30935E-35
9.01928E-01 2.21480E-35
9.04508E-01 2.12178E-35
9.07058E-01 2.03049E-35
9.09576E-01 1.94110E-35
9.12063E-01 1.85375E-35
9.14519E-01 1.76857E-35
9.16943E-01 1.68565E-35
9.19335E-01 1.60509E-35
9.21696E-01 1.52693E-35
9.24024E-01 1.45125E-35
9.26320E-01 1.37806E-35
9.28584E-01 1.30740E-35
9.30815E-01 1.23927E-35
9.33013E-01 1.17368E-35
9.35178E-01 1.11060E-35
9.37310E-01 1.05002E-35
9.39409E-01 9.91908E-36
9.41474E-01 9.36240E-36
9.43505E-01 8.82937E-36
9.45503E-01 8.31999E-36
9.47467E-01 7.83342E-36
9.49397E-01 7.36920E-36
9.51293E-01 6.92689E-36
9.53154E-01 6.50550E-36
9.54981E-01 6.10464E-36
9.56773E-01 5.72362E-36
9.58530E-01 5.36181E-36
9.60252E-01 5.01840E-36
9.61940E-01 4.69289E-36
9.63592E-01 4.38444E-36
9.65209E-01 4.09251E-36
9.66790E-01 3.81622E-36
9.68336E-01 3.55521E-36
9.69846E-01 3.30861E-36
9.71321E-01 3.07594E-36
9.72759E-01 2.85648E-36
9.74162E-01 2.64959E-36
9.75528E-01 2.45477E-36
9.76858E-01 2.27145E-36
9.78152E-01 2.09899E-36
9.79410E-01 1.93687E-36
9.80631E-01 1.78465E-36
9.81815E-01 1.64180E-36
9.82963E-01 1.50781E-36
9.84074E-01 1.38228E-36
9.85148E-01 1.26477E-36
9.86185E-01 1.15475E-36
9.87185E-01 1.05190E-36
9.88148E-01 9.55906E-37
9.89074E-01 8.66309E-37
9.89962E-01 7.82860E-37
9.90814E-01 7.05104E-37
9.91627E-01 6.32806E-37
9.92404E-01 5.65720E-37
9.93143E-01 5.03493E-37
9.93844E-01 4.45913E-37
9.94508E-01 3.92750E-37
9.95134E-01 3.43755E-37
9.95722E-01 2.98719E-37
9.96273E-01 2.57469E-37
9.96786E-01 2.19803E-37
9.97261E-01 1.85593E-37
9.97698E-01 1.54642E-37
9.98097E-01 1.26819E-37
9.98459E-01 1.02018E-37
9.98782E-01 8.01479E-38
9.99067E-01 6.10829E-38
9.99315E-01 4.47164E-38
9.99524E-01 3.09828E-38
9.99695E-01 1.98311E-38
9.99829E-01 1.12244E-38
9.99924E-01 5.09431E-39
9.99981E-01 1.42653E-39
1.00000E+00 2.17913E-40
