 #
 # Subroutine ELSEPA. Elastic scattering of electrons and positrons
 #                    by neutral atoms and positive ions
 #
 # Projectile: positron
 # Kinetic energy = 1.00000E+08 eV = 3.67493E+06 a.u.
 #
 # WARNING: High-energy factorization with free-atom DF screening.
 #          Absorption, polarization and exchange corrections are
 #          switched off.
 #          Phase shifts are calculated for the bare nucleus.
 #          Scattering amplitudes are not evaluated.
 #
 # Element: Eu,  Z =  63,  atomic weight = 1.51964E+02 g/mol
 #
 # Nuclear model: Fermi distribution
 #                Average radius = 5.70993E-13 cm
 #                Skin thickness = 5.46000E-14 cm
 #
 # Number of electrons = 63
 #
 # Total elastic cross section = 7.20145E-18 cm**2 = 2.57169E-01 a0**2
 # 1st transport cross section = 7.35254E-25 cm**2 = 2.62564E-08 a0**2
 # 2nd transport cross section = 2.18536E-24 cm**2 = 7.80406E-08 a0**2
 #
 #
 # Differential cross section:                       MU=(1-COS(THETA))/2
 #
 #  THETA        MU          DCS          DCS        Sherman      error
 #  (deg)                 (cm**2/sr)   (a0**2/sr)    function
 #----------------------------------------------------------------------
0.00000E+00 8.99007E-10
7.61557E-13 8.94448E-10
1.18994E-12 8.91905E-10
1.71346E-12 8.88813E-10
2.33225E-12 8.85182E-10
3.04617E-12 8.81024E-10
3.85530E-12 8.76351E-10
4.75964E-12 8.71176E-10
5.75917E-12 8.65515E-10
6.85391E-12 8.59386E-10
8.04379E-12 8.52805E-10
9.32893E-12 8.45792E-10
1.07092E-11 8.38366E-10
1.21847E-11 8.30548E-10
1.37554E-11 8.22358E-10
1.54213E-11 8.13819E-10
1.71823E-11 8.04955E-10
1.90386E-11 7.95785E-10
2.09900E-11 7.86334E-10
2.30367E-11 7.76640E-10
2.51785E-11 7.66780E-10
2.74156E-11 7.56669E-10
2.97478E-11 7.46326E-10
3.21752E-11 7.35772E-10
3.46979E-11 7.25026E-10
3.73157E-11 7.14292E-10
4.00286E-11 7.03485E-10
4.28368E-11 6.92543E-10
4.57402E-11 6.81484E-10
4.87388E-11 6.70325E-10
5.18325E-11 6.59161E-10
5.50215E-11 6.48170E-10
5.83057E-11 6.37127E-10
6.16850E-11 6.26047E-10
6.51595E-11 6.14945E-10
6.87293E-11 6.03833E-10
7.23943E-11 5.92999E-10
7.61544E-11 5.82253E-10
1.18991E-10 4.80250E-10
1.71347E-10 3.93892E-10
2.33223E-10 3.24621E-10
3.04617E-10 2.70199E-10
3.85531E-10 2.27687E-10
4.75965E-10 1.94252E-10
5.75917E-10 1.67580E-10
6.85389E-10 1.45921E-10
8.04380E-10 1.27990E-10
9.32891E-10 1.12911E-10
1.07092E-09 1.00062E-10
1.21847E-09 8.89965E-11
1.37554E-09 7.93904E-11
1.54213E-09 7.09968E-11
1.71823E-09 6.36195E-11
1.90386E-09 5.71293E-11
2.09900E-09 5.14058E-11
2.30367E-09 4.62793E-11
2.51785E-09 4.14940E-11
2.74156E-09 3.74271E-11
2.97478E-09 3.39500E-11
3.21752E-09 3.09599E-11
3.46978E-09 2.83744E-11
3.73156E-09 2.58527E-11
4.00286E-09 2.35560E-11
4.28368E-09 2.15554E-11
4.57402E-09 1.98049E-11
4.87388E-09 1.82665E-11
5.18326E-09 1.68680E-11
5.50215E-09 1.55132E-11
5.83057E-09 1.43146E-11
6.16850E-09 1.32502E-11
6.51596E-09 1.23017E-11
6.87293E-09 1.14539E-11
7.23942E-09 1.06309E-11
7.61544E-09 9.87670E-12
1.18991E-08 5.11918E-12
1.71347E-08 2.87370E-12
2.33223E-08 1.71539E-12
3.04617E-08 1.08488E-12
3.85531E-08 7.21922E-13
4.75965E-08 5.01536E-13
5.75917E-08 3.61019E-13
6.85389E-08 2.66966E-13
8.04380E-08 2.02006E-13
9.32891E-08 1.55758E-13
1.07092E-07 1.21949E-13
1.21847E-07 9.67285E-14
1.37554E-07 7.76295E-14
1.54213E-07 6.29803E-14
1.71823E-07 5.16020E-14
1.90386E-07 4.26643E-14
2.09900E-07 3.55680E-14
2.30367E-07 2.98772E-14
2.51785E-07 2.52711E-14
2.74156E-07 2.15453E-14
2.97478E-07 1.84618E-14
3.21752E-07 1.59252E-14
3.46978E-07 1.38030E-14
3.73156E-07 1.20280E-14
4.00286E-07 1.05287E-14
4.28368E-07 9.25727E-15
4.57402E-07 8.17311E-15
4.87388E-07 7.24236E-15
5.18325E-07 6.44225E-15
5.50215E-07 5.74824E-15
5.83057E-07 5.14722E-15
6.16850E-07 4.62097E-15
6.51596E-07 4.16185E-15
6.87293E-07 3.75724E-15
7.23942E-07 3.40140E-15
7.61543E-07 3.08628E-15
1.18991E-06 1.30483E-15
1.71347E-06 6.41738E-16
2.33223E-06 3.50909E-16
3.04617E-06 2.07572E-16
3.85531E-06 1.30478E-16
4.75964E-06 8.60747E-17
5.75916E-06 5.90552E-17
6.85388E-06 4.18558E-17
8.04378E-06 3.04872E-17
9.32888E-06 2.27298E-17
1.07092E-05 1.72901E-17
1.21846E-05 1.33844E-17
1.37553E-05 1.05216E-17
1.54212E-05 8.38459E-18
1.71822E-05 6.76339E-18
1.90385E-05 5.51326E-18
2.09899E-05 4.54290E-18
2.30365E-05 3.77631E-18
2.51783E-05 3.16402E-18
2.74153E-05 2.67029E-18
2.97475E-05 2.26885E-18
3.21749E-05 1.94001E-18
3.46974E-05 1.66872E-18
3.73152E-05 1.44337E-18
4.00281E-05 1.25490E-18
4.28362E-05 1.09625E-18
4.57395E-05 9.61868E-19
4.87380E-05 8.47402E-19
5.18317E-05 7.49404E-19
5.50205E-05 6.65123E-19
5.83045E-05 5.92338E-19
6.16838E-05 5.29237E-19
6.51582E-05 4.74327E-19
6.87277E-05 4.26367E-19
7.23925E-05 3.84325E-19
7.61524E-05 3.47453E-19
9.21439E-05 2.37335E-19
1.09658E-04 1.67551E-19
1.28695E-04 1.21627E-19
1.49255E-04 9.03958E-20
1.71338E-04 6.85730E-20
1.94942E-04 5.29495E-20
2.20070E-04 4.15296E-20
2.46720E-04 3.30268E-20
2.74892E-04 2.65907E-20
3.04586E-04 2.16476E-20
3.35803E-04 1.78003E-20
3.68542E-04 1.47702E-20
4.02802E-04 1.23575E-20
4.38585E-04 1.04174E-20
4.75889E-04 8.84310E-21
5.14715E-04 7.55487E-21
5.55063E-04 6.49259E-21
5.96931E-04 5.61037E-21
6.40321E-04 4.87280E-21
6.85233E-04 4.25237E-21
7.31665E-04 3.72745E-21
7.79618E-04 3.28094E-21
8.29092E-04 2.89922E-21
8.80086E-04 2.57132E-21
9.32601E-04 2.28840E-21
9.86636E-04 2.04327E-21
1.04219E-03 1.83002E-21
1.09927E-03 1.64382E-21
1.15786E-03 1.48066E-21
1.21797E-03 1.33719E-21
1.27961E-03 1.21064E-21
1.34276E-03 1.09868E-21
1.40743E-03 9.99324E-22
1.47362E-03 9.10919E-22
1.54133E-03 8.32048E-22
1.61056E-03 7.61504E-22
1.68131E-03 6.98256E-22
1.75357E-03 6.41417E-22
1.82735E-03 5.90226E-22
1.90265E-03 5.44022E-22
1.97947E-03 5.02236E-22
2.05780E-03 4.64369E-22
2.13765E-03 4.29991E-22
2.21902E-03 3.98723E-22
2.30190E-03 3.70235E-22
2.38630E-03 3.44234E-22
2.47222E-03 3.20462E-22
2.55965E-03 2.98696E-22
2.64859E-03 2.78739E-22
2.73905E-03 2.60412E-22
2.83103E-03 2.43559E-22
2.92452E-03 2.28040E-22
3.01952E-03 2.13730E-22
3.11604E-03 2.00519E-22
3.21407E-03 1.88306E-22
3.31362E-03 1.77004E-22
3.41468E-03 1.66532E-22
3.51725E-03 1.56817E-22
3.62133E-03 1.47796E-22
3.72692E-03 1.39410E-22
3.83403E-03 1.31606E-22
3.94265E-03 1.24337E-22
4.05278E-03 1.17558E-22
4.16442E-03 1.11232E-22
4.27757E-03 1.05322E-22
4.39223E-03 9.97969E-23
4.50840E-03 9.46259E-23
4.62608E-03 8.97826E-23
4.74527E-03 8.52426E-23
4.86597E-03 8.09833E-23
4.98817E-03 7.69843E-23
5.11188E-03 7.32268E-23
5.23711E-03 6.96936E-23
5.36383E-03 6.63687E-23
5.49207E-03 6.32378E-23
5.62181E-03 6.02875E-23
5.75306E-03 5.75053E-23
5.88581E-03 5.48801E-23
6.02007E-03 5.24013E-23
6.15583E-03 5.00594E-23
6.29310E-03 4.78453E-23
6.43187E-03 4.57508E-23
6.57214E-03 4.37683E-23
6.71392E-03 4.18907E-23
6.85720E-03 4.01114E-23
7.00198E-03 3.84244E-23
7.14827E-03 3.68241E-23
7.29605E-03 3.53050E-23
7.44534E-03 3.38624E-23
7.59612E-03 3.24918E-23
7.97965E-03 2.93526E-23
8.37255E-03 2.65784E-23
8.77480E-03 2.41197E-23
9.18641E-03 2.19347E-23
9.60736E-03 1.99877E-23
1.00376E-02 1.82485E-23
1.04773E-02 1.66912E-23
1.09262E-02 1.52936E-23
1.13844E-02 1.40366E-23
1.18520E-02 1.29037E-23
1.23288E-02 1.18805E-23
1.28150E-02 1.09547E-23
1.33104E-02 1.01154E-23
1.38150E-02 9.35318E-24
1.43290E-02 8.65977E-24
1.48521E-02 8.02793E-24
1.53845E-02 7.45126E-24
1.59262E-02 6.92414E-24
1.64770E-02 6.44161E-24
1.70371E-02 5.99925E-24
1.76063E-02 5.59316E-24
1.81848E-02 5.21988E-24
1.87724E-02 4.87631E-24
1.93692E-02 4.55968E-24
1.99751E-02 4.26755E-24
2.05901E-02 3.99768E-24
2.12143E-02 3.74812E-24
2.18476E-02 3.51707E-24
2.24900E-02 3.30293E-24
2.31415E-02 3.10427E-24
2.38021E-02 2.91977E-24
2.44717E-02 2.74827E-24
2.51504E-02 2.58870E-24
2.58382E-02 2.44009E-24
2.65349E-02 2.30156E-24
2.72407E-02 2.17232E-24
2.79555E-02 2.05165E-24
2.86793E-02 1.93888E-24
2.94120E-02 1.83342E-24
3.01537E-02 1.73471E-24
3.09043E-02 1.64225E-24
3.16639E-02 1.55558E-24
3.24324E-02 1.47429E-24
3.32098E-02 1.39797E-24
3.39961E-02 1.32629E-24
3.47912E-02 1.25892E-24
3.55952E-02 1.19555E-24
3.64081E-02 1.13591E-24
3.72297E-02 1.07974E-24
3.80602E-02 1.02682E-24
3.88995E-02 9.76916E-25
3.97476E-02 9.29841E-25
4.06044E-02 8.85406E-25
4.14700E-02 8.43441E-25
4.23443E-02 8.03786E-25
4.32273E-02 7.66295E-25
4.41190E-02 7.30832E-25
4.50194E-02 6.97271E-25
4.59284E-02 6.65493E-25
4.68461E-02 6.35390E-25
4.87074E-02 5.79809E-25
5.06030E-02 5.29796E-25
5.25328E-02 4.84715E-25
5.44967E-02 4.44012E-25
5.64946E-02 4.07203E-25
5.85262E-02 3.73865E-25
6.05914E-02 3.43626E-25
6.26901E-02 3.16160E-25
6.48222E-02 2.91177E-25
6.69873E-02 2.68425E-25
6.91854E-02 2.47677E-25
7.14163E-02 2.28734E-25
7.36799E-02 2.11420E-25
7.59760E-02 1.95575E-25
7.83043E-02 1.81061E-25
8.06647E-02 1.67750E-25
8.30571E-02 1.55532E-25
8.54812E-02 1.44305E-25
8.79369E-02 1.33979E-25
9.04240E-02 1.24474E-25
9.29422E-02 1.15716E-25
9.54915E-02 1.07640E-25
9.80716E-02 1.00187E-25
1.00682E-01 9.33027E-26
1.03323E-01 8.69396E-26
1.05995E-01 8.10535E-26
1.08696E-01 7.56049E-26
1.11427E-01 7.05576E-26
1.14188E-01 6.58790E-26
1.16978E-01 6.15394E-26
1.19797E-01 5.75115E-26
1.22645E-01 5.37708E-26
1.25522E-01 5.02947E-26
1.28428E-01 4.70626E-26
1.31361E-01 4.40557E-26
1.34323E-01 4.12568E-26
1.37313E-01 3.86502E-26
1.40330E-01 3.62213E-26
1.43375E-01 3.39571E-26
1.46447E-01 3.18452E-26
1.49545E-01 2.98745E-26
1.52671E-01 2.80348E-26
1.55823E-01 2.63166E-26
1.59001E-01 2.47111E-26
1.62205E-01 2.32104E-26
1.65435E-01 2.18071E-26
1.68690E-01 2.04943E-26
1.71970E-01 1.92657E-26
1.75276E-01 1.81155E-26
1.78606E-01 1.70383E-26
1.81961E-01 1.60292E-26
1.85340E-01 1.50834E-26
1.88743E-01 1.41967E-26
1.92169E-01 1.33653E-26
1.95619E-01 1.25853E-26
1.99092E-01 1.18533E-26
2.02589E-01 1.11663E-26
2.06107E-01 1.05213E-26
2.09649E-01 9.91548E-27
2.13212E-01 9.34636E-27
2.16797E-01 8.81157E-27
2.20404E-01 8.30892E-27
2.24032E-01 7.83634E-27
2.27680E-01 7.39193E-27
2.31350E-01 6.97391E-27
2.35040E-01 6.58062E-27
2.38751E-01 6.21052E-27
2.42481E-01 5.86216E-27
2.46231E-01 5.53419E-27
2.50000E-01 5.22536E-27
2.53788E-01 4.93449E-27
2.57595E-01 4.66048E-27
2.61421E-01 4.40230E-27
2.65264E-01 4.15900E-27
2.69126E-01 3.92966E-27
2.73005E-01 3.71346E-27
2.76901E-01 3.50960E-27
2.80814E-01 3.31735E-27
2.84744E-01 3.13601E-27
2.88691E-01 2.96494E-27
2.92653E-01 2.80353E-27
2.96632E-01 2.65121E-27
3.00625E-01 2.50745E-27
3.04634E-01 2.37174E-27
3.08658E-01 2.24362E-27
3.12697E-01 2.12265E-27
3.16749E-01 2.00840E-27
3.20816E-01 1.90050E-27
3.24896E-01 1.79857E-27
3.28990E-01 1.70228E-27
3.33097E-01 1.61129E-27
3.37216E-01 1.52531E-27
3.41348E-01 1.44406E-27
3.45492E-01 1.36725E-27
3.49647E-01 1.29465E-27
3.53814E-01 1.22600E-27
3.57992E-01 1.16110E-27
3.62181E-01 1.09973E-27
3.66381E-01 1.04169E-27
3.70590E-01 9.86788E-28
3.74810E-01 9.34858E-28
3.79039E-01 8.85732E-28
3.83277E-01 8.39252E-28
3.87524E-01 7.95273E-28
3.91780E-01 7.53656E-28
3.96044E-01 7.14271E-28
4.00316E-01 6.76994E-28
4.04596E-01 6.41709E-28
4.08882E-01 6.08307E-28
4.13176E-01 5.76684E-28
4.17476E-01 5.46744E-28
4.21783E-01 5.18395E-28
4.26095E-01 4.91549E-28
4.30413E-01 4.66125E-28
4.34737E-01 4.42045E-28
4.39065E-01 4.19238E-28
4.43398E-01 3.97633E-28
4.47736E-01 3.77167E-28
4.52077E-01 3.57777E-28
4.56422E-01 3.39405E-28
4.60770E-01 3.21997E-28
4.65122E-01 3.05502E-28
4.69476E-01 2.89869E-28
4.73832E-01 2.75054E-28
4.78190E-01 2.61011E-28
4.82550E-01 2.47701E-28
4.86912E-01 2.35084E-28
4.91274E-01 2.23123E-28
4.95637E-01 2.11783E-28
5.00000E-01 2.01031E-28
5.04363E-01 1.90837E-28
5.08726E-01 1.81170E-28
5.13088E-01 1.72003E-28
5.17450E-01 1.63309E-28
5.21810E-01 1.55064E-28
5.26168E-01 1.47243E-28
5.30524E-01 1.39825E-28
5.34878E-01 1.32788E-28
5.39230E-01 1.26113E-28
5.43578E-01 1.19780E-28
5.47923E-01 1.13772E-28
5.52264E-01 1.08071E-28
5.56602E-01 1.02661E-28
5.60935E-01 9.75282E-29
5.65263E-01 9.26569E-29
5.69587E-01 8.80339E-29
5.73905E-01 8.36462E-29
5.78217E-01 7.94817E-29
5.82524E-01 7.55287E-29
5.86824E-01 7.17764E-29
5.91118E-01 6.82143E-29
5.95404E-01 6.48326E-29
5.99684E-01 6.16220E-29
6.03956E-01 5.85736E-29
6.08220E-01 5.56792E-29
6.12476E-01 5.29307E-29
6.16723E-01 5.03207E-29
6.20961E-01 4.78421E-29
6.25190E-01 4.54881E-29
6.29410E-01 4.32524E-29
6.33619E-01 4.11288E-29
6.37819E-01 3.91117E-29
6.42008E-01 3.71956E-29
6.46186E-01 3.53753E-29
6.50353E-01 3.36460E-29
6.54508E-01 3.20030E-29
6.58652E-01 3.04420E-29
6.62784E-01 2.89587E-29
6.66903E-01 2.75492E-29
6.71010E-01 2.62098E-29
6.75104E-01 2.49369E-29
6.79184E-01 2.37271E-29
6.83251E-01 2.25773E-29
6.87303E-01 2.14844E-29
6.91342E-01 2.04456E-29
6.95366E-01 1.94580E-29
6.99375E-01 1.85192E-29
7.03368E-01 1.76267E-29
7.07347E-01 1.67781E-29
7.11309E-01 1.59712E-29
7.15256E-01 1.52040E-29
7.19186E-01 1.44745E-29
7.23099E-01 1.37807E-29
7.26995E-01 1.31208E-29
7.30874E-01 1.24933E-29
7.34736E-01 1.18963E-29
7.38579E-01 1.13286E-29
7.42405E-01 1.07885E-29
7.46212E-01 1.02747E-29
7.50000E-01 9.78582E-30
7.53769E-01 9.32074E-30
7.57519E-01 8.87821E-30
7.61249E-01 8.45712E-30
7.64960E-01 8.05642E-30
7.68650E-01 7.67508E-30
7.72320E-01 7.31214E-30
7.75968E-01 6.96671E-30
7.79596E-01 6.63791E-30
7.83203E-01 6.32492E-30
7.86788E-01 6.02696E-30
7.90351E-01 5.74330E-30
7.93893E-01 5.47322E-30
7.97411E-01 5.21606E-30
8.00908E-01 4.97119E-30
8.04381E-01 4.73800E-30
8.07831E-01 4.51592E-30
8.11257E-01 4.30441E-30
8.14660E-01 4.10294E-30
8.18039E-01 3.91104E-30
8.21394E-01 3.72822E-30
8.24724E-01 3.55406E-30
8.28030E-01 3.38812E-30
8.31310E-01 3.23001E-30
8.34565E-01 3.07935E-30
8.37795E-01 2.93577E-30
8.40999E-01 2.79893E-30
8.44177E-01 2.66851E-30
8.47329E-01 2.54419E-30
8.50455E-01 2.42568E-30
8.53553E-01 2.31271E-30
8.56625E-01 2.20499E-30
8.59670E-01 2.10229E-30
8.62687E-01 2.00436E-30
8.65677E-01 1.91096E-30
8.68639E-01 1.82189E-30
8.71572E-01 1.73693E-30
8.74478E-01 1.65590E-30
8.77355E-01 1.57859E-30
8.80203E-01 1.50484E-30
8.83022E-01 1.43448E-30
8.85812E-01 1.36734E-30
8.88573E-01 1.30327E-30
8.91304E-01 1.24212E-30
8.94005E-01 1.18376E-30
8.96677E-01 1.12806E-30
8.99318E-01 1.07489E-30
9.01928E-01 1.02413E-30
9.04508E-01 9.75666E-31
9.07058E-01 9.29394E-31
9.09576E-01 8.85209E-31
9.12063E-01 8.43015E-31
9.14519E-01 8.02718E-31
9.16943E-01 7.64231E-31
9.19335E-01 7.27468E-31
9.21696E-01 6.92352E-31
9.24024E-01 6.58804E-31
9.26320E-01 6.26754E-31
9.28584E-01 5.96132E-31
9.30815E-01 5.66873E-31
9.33013E-01 5.38914E-31
9.35178E-01 5.12196E-31
9.37310E-01 4.86663E-31
9.39409E-01 4.62262E-31
9.41474E-01 4.38940E-31
9.43505E-01 4.16649E-31
9.45503E-01 3.95344E-31
9.47467E-01 3.74980E-31
9.49397E-01 3.55515E-31
9.51293E-01 3.36909E-31
9.53154E-01 3.19125E-31
9.54981E-01 3.02126E-31
9.56773E-01 2.85877E-31
9.58530E-01 2.70347E-31
9.60252E-01 2.55504E-31
9.61940E-01 2.41319E-31
9.63592E-01 2.27763E-31
9.65209E-01 2.14809E-31
9.66790E-01 2.02433E-31
9.68336E-01 1.90609E-31
9.69846E-01 1.79316E-31
9.71321E-01 1.68530E-31
9.72759E-01 1.58232E-31
9.74162E-01 1.48401E-31
9.75528E-01 1.39019E-31
9.76858E-01 1.30067E-31
9.78152E-01 1.21529E-31
9.79410E-01 1.13389E-31
9.80631E-01 1.05631E-31
9.81815E-01 9.82408E-32
9.82963E-01 9.12048E-32
9.84074E-01 8.45099E-32
9.85148E-01 7.81436E-32
9.86185E-01 7.20944E-32
9.87185E-01 6.63509E-32
9.88148E-01 6.09030E-32
9.89074E-01 5.57405E-32
9.89962E-01 5.08543E-32
9.90814E-01 4.62354E-32
9.91627E-01 4.18756E-32
9.92404E-01 3.77670E-32
9.93143E-01 3.39024E-32
9.93844E-01 3.02749E-32
9.94508E-01 2.68780E-32
9.95134E-01 2.37058E-32
9.95722E-01 2.07526E-32
9.96273E-01 1.80133E-32
9.96786E-01 1.54830E-32
9.97261E-01 1.31574E-32
9.97698E-01 1.10324E-32
9.98097E-01 9.10428E-33
9.98459E-01 7.36965E-33
9.98782E-01 5.82559E-33
9.99067E-01 4.46939E-33
9.99315E-01 3.29870E-33
9.99524E-01 2.31151E-33
9.99695E-01 1.50612E-33
9.99829E-01 8.81138E-34
9.99924E-01 4.35484E-34
9.99981E-01 1.68396E-34
1.00000E+00 7.94315E-35
