 #
 # Subroutine ELSEPA. Elastic scattering of electrons and positrons
 #                    by neutral atoms and positive ions
 #
 # Projectile: positron
 # Kinetic energy = 9.00000E+08 eV = 3.30744E+07 a.u.
 #
 # WARNING: High-energy factorization with free-atom DF screening.
 #          Absorption, polarization and exchange corrections are
 #          switched off.
 #          Phase shifts are calculated for the bare nucleus.
 #          Scattering amplitudes are not evaluated.
 #
 # Element: Eu,  Z =  63,  atomic weight = 1.51964E+02 g/mol
 #
 # Nuclear model: Fermi distribution
 #                Average radius = 5.70993E-13 cm
 #                Skin thickness = 5.46000E-14 cm
 #
 # Number of electrons = 63
 #
 # Total elastic cross section = 7.11083E-18 cm**2 = 2.53932E-01 a0**2
 # 1st transport cross section = 9.39216E-27 cm**2 = 3.35400E-10 a0**2
 # 2nd transport cross section = 2.81730E-26 cm**2 = 1.00608E-09 a0**2
 #
 #
 # Differential cross section:                       MU=(1-COS(THETA))/2
 #
 #  THETA        MU          DCS          DCS        Sherman      error
 #  (deg)                 (cm**2/sr)   (a0**2/sr)    function
 #----------------------------------------------------------------------
0.00000E+00 7.21629E-08
7.61557E-13 5.03969E-08
1.18994E-12 4.26742E-08
1.71346E-12 3.57877E-08
2.33225E-12 2.99892E-08
3.04617E-12 2.52459E-08
3.85530E-12 2.14451E-08
4.75964E-12 1.83992E-08
5.75917E-12 1.59422E-08
6.85391E-12 1.39421E-08
8.04379E-12 1.22871E-08
9.32893E-12 1.08996E-08
1.07092E-11 9.71718E-09
1.21847E-11 8.70025E-09
1.37554E-11 7.81623E-09
1.54213E-11 7.03966E-09
1.71823E-11 6.35616E-09
1.90386E-11 5.74991E-09
2.09900E-11 5.21036E-09
2.30367E-11 4.73031E-09
2.51785E-11 4.30053E-09
2.74156E-11 3.91615E-09
2.97478E-11 3.55415E-09
3.21752E-11 3.22919E-09
3.46979E-11 2.94783E-09
3.73157E-11 2.70307E-09
4.00286E-11 2.48917E-09
4.28368E-11 2.30140E-09
4.57402E-11 2.12063E-09
4.87388E-11 1.94889E-09
5.18325E-11 1.79733E-09
5.50215E-11 1.66310E-09
5.83057E-11 1.54377E-09
6.16850E-11 1.43735E-09
6.51595E-11 1.33687E-09
6.87293E-11 1.24063E-09
7.23943E-11 1.15437E-09
7.61544E-11 1.07684E-09
1.18991E-10 5.71760E-10
1.71347E-10 3.27987E-10
2.33223E-10 1.99046E-10
3.04617E-10 1.27079E-10
3.85531E-10 8.47574E-11
4.75965E-10 5.88703E-11
5.75917E-10 4.23513E-11
6.85389E-10 3.13611E-11
8.04380E-10 2.37679E-11
9.32891E-10 1.83747E-11
1.07092E-09 1.44376E-11
1.21847E-09 1.15035E-11
1.37554E-09 9.27185E-12
1.54213E-09 7.54737E-12
1.71823E-09 6.20230E-12
1.90386E-09 5.14110E-12
2.09900E-09 4.29580E-12
2.30367E-09 3.61643E-12
2.51785E-09 3.06492E-12
2.74156E-09 2.61412E-12
2.97478E-09 2.24197E-12
3.21752E-09 1.93458E-12
3.46978E-09 1.67909E-12
3.73156E-09 1.46332E-12
4.00286E-09 1.28210E-12
4.28368E-09 1.12759E-12
4.57402E-09 9.95914E-13
4.87388E-09 8.83120E-13
5.18326E-09 7.85652E-13
5.50215E-09 7.01626E-13
5.83057E-09 6.28267E-13
6.16850E-09 5.64420E-13
6.51596E-09 5.08501E-13
6.87293E-09 4.59290E-13
7.23942E-09 4.16039E-13
7.61544E-09 3.77602E-13
1.18991E-08 1.60308E-13
1.71347E-08 7.91183E-14
2.33223E-08 4.33692E-14
3.04617E-08 2.56978E-14
3.85531E-08 1.61718E-14
4.75965E-08 1.06770E-14
5.75917E-08 7.32990E-15
6.85389E-08 5.19778E-15
8.04380E-08 3.78776E-15
9.32891E-08 2.82521E-15
1.07092E-07 2.14998E-15
1.21847E-07 1.66499E-15
1.37554E-07 1.30938E-15
1.54213E-07 1.04384E-15
1.71823E-07 8.42325E-16
1.90386E-07 6.87164E-16
2.09900E-07 5.66132E-16
2.30367E-07 4.70604E-16
2.51785E-07 3.94394E-16
2.74156E-07 3.32999E-16
2.97478E-07 2.83094E-16
3.21752E-07 2.42192E-16
3.46978E-07 2.08414E-16
3.73156E-07 1.80322E-16
4.00286E-07 1.56805E-16
4.28368E-07 1.36998E-16
4.57402E-07 1.20221E-16
4.87388E-07 1.05933E-16
5.18325E-07 9.37051E-17
5.50215E-07 8.31910E-17
5.83057E-07 7.41102E-17
6.16850E-07 6.62347E-17
6.51596E-07 5.93776E-17
6.87293E-07 5.33849E-17
7.23942E-07 4.81292E-17
7.61543E-07 4.35043E-17
1.18991E-06 1.78486E-17
1.71347E-06 8.61452E-18
2.33223E-06 4.65181E-18
3.04617E-06 2.72735E-18
3.85531E-06 1.70280E-18
4.75964E-06 1.11721E-18
5.75916E-06 7.63034E-19
6.85388E-06 5.38709E-19
8.04378E-06 3.91076E-19
9.32888E-06 2.90718E-19
1.07092E-05 2.20577E-19
1.21846E-05 1.70367E-19
1.37553E-05 1.33662E-19
1.54212E-05 1.06328E-19
1.71822E-05 8.56358E-20
1.90385E-05 6.97111E-20
2.09899E-05 5.73713E-20
2.30365E-05 4.76385E-20
2.51783E-05 3.98754E-20
2.74153E-05 3.36238E-20
2.97475E-05 2.85469E-20
3.21749E-05 2.43919E-20
3.46974E-05 2.09673E-20
3.73152E-05 1.81251E-20
4.00281E-05 1.57500E-20
4.28362E-05 1.37521E-20
4.57395E-05 1.20610E-20
4.87380E-05 1.06214E-20
5.18317E-05 9.38959E-21
5.50205E-05 8.33076E-21
5.83045E-05 7.41680E-21
6.16838E-05 6.62480E-21
6.51582E-05 5.93587E-21
6.87277E-05 5.33438E-21
7.23925E-05 4.80728E-21
7.61524E-05 4.35588E-21
9.21439E-05 2.96216E-21
1.09658E-04 2.07999E-21
1.28695E-04 1.50032E-21
1.49255E-04 1.10685E-21
1.71338E-04 8.32566E-22
1.94942E-04 6.36760E-22
2.20070E-04 4.94128E-22
2.46720E-04 3.88358E-22
2.74892E-04 3.08667E-22
3.04586E-04 2.47788E-22
3.35803E-04 2.00686E-22
3.68542E-04 1.63835E-22
4.02802E-04 1.34709E-22
4.38585E-04 1.11476E-22
4.75889E-04 9.27890E-23
5.14715E-04 7.76430E-23
5.55063E-04 6.52822E-23
5.96931E-04 5.51296E-23
6.40321E-04 4.67419E-23
6.85233E-04 3.97751E-23
7.31665E-04 3.39595E-23
7.79618E-04 2.90829E-23
8.29092E-04 2.49762E-23
8.80086E-04 2.15044E-23
9.32601E-04 1.85588E-23
9.86636E-04 1.60511E-23
1.04219E-03 1.39096E-23
1.09927E-03 1.20756E-23
1.15786E-03 1.05007E-23
1.21797E-03 9.14496E-24
1.27961E-03 7.97521E-24
1.34276E-03 6.96378E-24
1.40743E-03 6.08751E-24
1.47362E-03 5.32696E-24
1.54133E-03 4.66573E-24
1.61056E-03 4.08995E-24
1.68131E-03 3.58787E-24
1.75357E-03 3.14947E-24
1.82735E-03 2.76622E-24
1.90265E-03 2.43080E-24
1.97947E-03 2.13696E-24
2.05780E-03 1.87931E-24
2.13765E-03 1.65320E-24
2.21902E-03 1.45463E-24
2.30190E-03 1.28013E-24
2.38630E-03 1.12670E-24
2.47222E-03 9.91716E-25
2.55965E-03 8.72922E-25
2.64859E-03 7.68335E-25
2.73905E-03 6.76232E-25
2.83103E-03 5.95103E-25
2.92452E-03 5.23630E-25
3.01952E-03 4.60659E-25
3.11604E-03 4.05176E-25
3.21407E-03 3.56292E-25
3.31362E-03 3.13225E-25
3.41468E-03 2.75289E-25
3.51725E-03 2.41878E-25
3.62133E-03 2.12460E-25
3.72692E-03 1.86565E-25
3.83403E-03 1.63778E-25
3.94265E-03 1.43735E-25
4.05278E-03 1.26112E-25
4.16442E-03 1.10625E-25
4.27757E-03 9.70207E-26
4.39223E-03 8.50775E-26
4.50840E-03 7.45985E-26
4.62608E-03 6.54096E-26
4.74527E-03 5.73571E-26
4.86597E-03 5.03051E-26
4.98817E-03 4.41333E-26
5.11188E-03 3.87355E-26
5.23711E-03 3.40180E-26
5.36383E-03 2.98976E-26
5.49207E-03 2.63012E-26
5.62181E-03 2.31641E-26
5.75306E-03 2.04292E-26
5.88581E-03 1.80463E-26
6.02007E-03 1.59709E-26
6.15583E-03 1.41641E-26
6.29310E-03 1.25915E-26
6.43187E-03 1.12228E-26
6.57214E-03 1.00316E-26
6.71392E-03 8.99451E-27
6.85720E-03 8.09114E-27
7.00198E-03 7.30364E-27
7.14827E-03 6.61638E-27
7.29605E-03 6.01575E-27
7.44534E-03 5.48984E-27
7.59612E-03 5.02833E-27
7.97965E-03 4.10022E-27
8.37255E-03 3.41116E-27
8.77480E-03 2.88472E-27
9.18641E-03 2.46889E-27
9.60736E-03 2.12893E-27
1.00376E-02 1.84206E-27
1.04773E-02 1.59375E-27
1.09262E-02 1.37493E-27
1.13844E-02 1.18009E-27
1.18520E-02 1.00595E-27
1.23288E-02 8.50493E-28
1.28150E-02 7.12421E-28
1.33104E-02 5.90740E-28
1.38150E-02 4.84539E-28
1.43290E-02 3.92877E-28
1.48521E-02 3.14725E-28
1.53845E-02 2.48964E-28
1.59262E-02 1.94399E-28
1.64770E-02 1.49797E-28
1.70371E-02 1.13917E-28
1.76063E-02 8.55469E-29
1.81848E-02 6.35319E-29
1.87724E-02 4.67988E-29
1.93692E-02 3.43723E-29
1.99751E-02 2.53844E-29
2.05901E-02 1.90797E-29
2.12143E-02 1.48141E-29
2.18476E-02 1.20504E-29
2.24900E-02 1.03510E-29
2.31415E-02 9.36814E-30
2.38021E-02 8.83364E-30
2.44717E-02 8.54751E-30
2.51504E-02 8.36705E-30
2.58382E-02 8.19639E-30
2.65349E-02 7.97676E-30
2.72407E-02 7.67786E-30
2.79555E-02 7.29032E-30
2.86793E-02 6.81930E-30
2.94120E-02 6.27930E-30
3.01537E-02 5.68993E-30
3.09043E-02 5.07279E-30
3.16639E-02 4.44904E-30
3.24324E-02 3.83786E-30
3.32098E-02 3.25543E-30
3.39961E-02 2.71442E-30
3.47912E-02 2.22387E-30
3.55952E-02 1.78935E-30
3.64081E-02 1.41326E-30
3.72297E-02 1.09533E-30
3.80602E-02 8.33099E-31
3.88995E-02 6.22488E-31
3.97476E-02 4.58264E-31
4.06044E-02 3.34525E-31
4.14700E-02 2.45084E-31
4.23443E-02 1.83809E-31
4.32273E-02 1.44871E-31
4.41190E-02 1.22937E-31
4.50194E-02 1.13291E-31
4.59284E-02 1.11904E-31
4.68461E-02 1.15453E-31
4.87074E-02 1.27477E-31
5.06030E-02 1.35658E-31
5.25328E-02 1.34286E-31
5.44967E-02 1.23049E-31
5.64946E-02 1.04600E-31
5.85262E-02 8.26488E-32
6.05914E-02 6.06801E-32
6.26901E-02 4.12681E-32
6.48222E-02 2.58580E-32
6.69873E-02 1.48633E-32
6.91854E-02 7.92888E-33
7.14163E-02 4.24589E-33
7.36799E-02 2.83653E-33
7.59760E-02 2.76872E-33
7.83043E-02 3.28680E-33
8.06647E-02 3.86583E-33
8.30571E-02 4.20786E-33
8.54812E-02 4.20181E-33
8.79369E-02 3.86718E-33
9.04240E-02 3.29699E-33
9.29422E-02 2.60997E-33
9.54915E-02 1.91666E-33
9.80716E-02 1.30003E-33
1.00682E-01 8.08532E-34
1.03323E-01 4.58204E-34
1.05995E-01 2.39967E-34
1.08696E-01 1.29017E-34
1.11427E-01 9.38160E-35
1.14188E-01 1.03257E-34
1.16978E-01 1.31361E-34
1.19797E-01 1.59562E-34
1.22645E-01 1.77009E-34
1.25522E-01 1.79501E-34
1.28428E-01 1.67725E-34
1.31361E-01 1.45293E-34
1.34323E-01 1.17005E-34
1.37313E-01 8.75197E-35
1.40330E-01 6.05306E-35
1.43375E-01 3.83952E-35
1.46447E-01 2.21290E-35
1.49545E-01 1.16350E-35
1.52671E-01 6.05096E-36
1.55823E-01 4.11390E-36
1.59001E-01 4.47620E-36
1.62205E-01 5.93523E-36
1.65435E-01 7.56781E-36
1.68690E-01 8.77718E-36
1.71970E-01 9.27437E-36
1.75276E-01 9.01740E-36
1.78606E-01 8.13156E-36
1.81961E-01 6.83001E-36
1.85340E-01 5.34716E-36
1.88743E-01 3.89023E-36
1.92169E-01 2.61218E-36
1.95619E-01 1.60196E-36
1.99092E-01 8.88456E-37
2.02589E-01 4.53210E-37
2.06107E-01 2.46606E-37
2.09649E-01 2.04145E-37
2.13212E-01 2.60119E-37
2.16797E-01 3.57382E-37
2.20404E-01 4.52905E-37
2.24032E-01 5.19530E-37
2.27680E-01 5.44826E-37
2.31350E-01 5.28190E-37
2.35040E-01 4.76991E-37
2.38751E-01 4.02795E-37
2.42481E-01 3.18203E-37
2.46231E-01 2.34419E-37
2.50000E-01 1.59931E-37
2.53788E-01 9.99250E-38
2.57595E-01 5.64327E-38
2.61421E-01 1.00000E-45
2.65264E-01 1.00000E-45
2.69126E-01 1.00000E-45
2.73005E-01 1.00000E-45
2.76901E-01 1.00000E-45
2.80814E-01 1.00000E-45
2.84744E-01 1.00000E-45
2.88691E-01 1.00000E-45
2.92653E-01 1.00000E-45
2.96632E-01 1.00000E-45
3.00625E-01 1.00000E-45
3.04634E-01 1.00000E-45
3.08658E-01 1.00000E-45
3.12697E-01 1.00000E-45
3.16749E-01 1.00000E-45
3.20816E-01 1.00000E-45
3.24896E-01 1.00000E-45
3.28990E-01 1.00000E-45
3.33097E-01 1.00000E-45
3.37216E-01 1.00000E-45
3.41348E-01 1.00000E-45
3.45492E-01 1.00000E-45
3.49647E-01 1.00000E-45
3.53814E-01 1.00000E-45
3.57992E-01 1.00000E-45
3.62181E-01 1.00000E-45
3.66381E-01 1.00000E-45
3.70590E-01 1.00000E-45
3.74810E-01 1.00000E-45
3.79039E-01 1.00000E-45
3.83277E-01 1.00000E-45
3.87524E-01 1.00000E-45
3.91780E-01 1.00000E-45
3.96044E-01 1.00000E-45
4.00316E-01 1.00000E-45
4.04596E-01 1.00000E-45
4.08882E-01 1.00000E-45
4.13176E-01 1.00000E-45
4.17476E-01 1.00000E-45
4.21783E-01 1.00000E-45
4.26095E-01 1.00000E-45
4.30413E-01 1.00000E-45
4.34737E-01 1.00000E-45
4.39065E-01 1.00000E-45
4.43398E-01 1.00000E-45
4.47736E-01 1.00000E-45
4.52077E-01 1.00000E-45
4.56422E-01 1.00000E-45
4.60770E-01 1.00000E-45
4.65122E-01 1.00000E-45
4.69476E-01 1.00000E-45
4.73832E-01 1.00000E-45
4.78190E-01 1.00000E-45
4.82550E-01 1.00000E-45
4.86912E-01 1.00000E-45
4.91274E-01 1.00000E-45
4.95637E-01 1.00000E-45
5.00000E-01 1.00000E-45
5.04363E-01 1.00000E-45
5.08726E-01 1.00000E-45
5.13088E-01 1.00000E-45
5.17450E-01 1.00000E-45
5.21810E-01 1.00000E-45
5.26168E-01 1.00000E-45
5.30524E-01 1.00000E-45
5.34878E-01 1.00000E-45
5.39230E-01 1.00000E-45
5.43578E-01 1.00000E-45
5.47923E-01 1.00000E-45
5.52264E-01 1.00000E-45
5.56602E-01 1.00000E-45
5.60935E-01 1.00000E-45
5.65263E-01 1.00000E-45
5.69587E-01 1.00000E-45
5.73905E-01 1.00000E-45
5.78217E-01 1.00000E-45
5.82524E-01 1.00000E-45
5.86824E-01 1.00000E-45
5.91118E-01 1.00000E-45
5.95404E-01 1.00000E-45
5.99684E-01 1.00000E-45
6.03956E-01 1.00000E-45
6.08220E-01 1.00000E-45
6.12476E-01 1.00000E-45
6.16723E-01 1.00000E-45
6.20961E-01 1.00000E-45
6.25190E-01 1.00000E-45
6.29410E-01 1.00000E-45
6.33619E-01 1.00000E-45
6.37819E-01 1.00000E-45
6.42008E-01 1.00000E-45
6.46186E-01 1.00000E-45
6.50353E-01 1.00000E-45
6.54508E-01 1.00000E-45
6.58652E-01 1.00000E-45
6.62784E-01 1.00000E-45
6.66903E-01 1.00000E-45
6.71010E-01 1.00000E-45
6.75104E-01 1.00000E-45
6.79184E-01 1.00000E-45
6.83251E-01 1.00000E-45
6.87303E-01 1.00000E-45
6.91342E-01 1.00000E-45
6.95366E-01 1.00000E-45
6.99375E-01 1.00000E-45
7.03368E-01 1.00000E-45
7.07347E-01 1.00000E-45
7.11309E-01 1.00000E-45
7.15256E-01 1.00000E-45
7.19186E-01 1.00000E-45
7.23099E-01 1.00000E-45
7.26995E-01 1.00000E-45
7.30874E-01 1.00000E-45
7.34736E-01 1.00000E-45
7.38579E-01 1.00000E-45
7.42405E-01 1.00000E-45
7.46212E-01 1.00000E-45
7.50000E-01 1.00000E-45
7.53769E-01 1.00000E-45
7.57519E-01 1.00000E-45
7.61249E-01 1.00000E-45
7.64960E-01 1.00000E-45
7.68650E-01 1.00000E-45
7.72320E-01 1.00000E-45
7.75968E-01 1.00000E-45
7.79596E-01 1.00000E-45
7.83203E-01 1.00000E-45
7.86788E-01 1.00000E-45
7.90351E-01 1.00000E-45
7.93893E-01 1.00000E-45
7.97411E-01 1.00000E-45
8.00908E-01 1.00000E-45
8.04381E-01 1.00000E-45
8.07831E-01 1.00000E-45
8.11257E-01 1.00000E-45
8.14660E-01 1.00000E-45
8.18039E-01 1.00000E-45
8.21394E-01 1.00000E-45
8.24724E-01 1.00000E-45
8.28030E-01 1.00000E-45
8.31310E-01 1.00000E-45
8.34565E-01 1.00000E-45
8.37795E-01 1.00000E-45
8.40999E-01 1.00000E-45
8.44177E-01 1.00000E-45
8.47329E-01 1.00000E-45
8.50455E-01 1.00000E-45
8.53553E-01 1.00000E-45
8.56625E-01 1.00000E-45
8.59670E-01 1.00000E-45
8.62687E-01 1.00000E-45
8.65677E-01 1.00000E-45
8.68639E-01 1.00000E-45
8.71572E-01 1.00000E-45
8.74478E-01 1.00000E-45
8.77355E-01 1.00000E-45
8.80203E-01 1.00000E-45
8.83022E-01 1.00000E-45
8.85812E-01 1.00000E-45
8.88573E-01 1.00000E-45
8.91304E-01 1.00000E-45
8.94005E-01 1.00000E-45
8.96677E-01 1.00000E-45
8.99318E-01 1.00000E-45
9.01928E-01 1.00000E-45
9.04508E-01 1.00000E-45
9.07058E-01 1.00000E-45
9.09576E-01 1.00000E-45
9.12063E-01 1.00000E-45
9.14519E-01 1.00000E-45
9.16943E-01 1.00000E-45
9.19335E-01 1.00000E-45
9.21696E-01 1.00000E-45
9.24024E-01 1.00000E-45
9.26320E-01 1.00000E-45
9.28584E-01 1.00000E-45
9.30815E-01 1.00000E-45
9.33013E-01 1.00000E-45
9.35178E-01 1.00000E-45
9.37310E-01 1.00000E-45
9.39409E-01 1.00000E-45
9.41474E-01 1.00000E-45
9.43505E-01 1.00000E-45
9.45503E-01 1.00000E-45
9.47467E-01 1.00000E-45
9.49397E-01 1.00000E-45
9.51293E-01 1.00000E-45
9.53154E-01 1.00000E-45
9.54981E-01 1.00000E-45
9.56773E-01 1.00000E-45
9.58530E-01 1.00000E-45
9.60252E-01 1.00000E-45
9.61940E-01 1.00000E-45
9.63592E-01 1.00000E-45
9.65209E-01 1.00000E-45
9.66790E-01 1.00000E-45
9.68336E-01 1.00000E-45
9.69846E-01 1.00000E-45
9.71321E-01 1.00000E-45
9.72759E-01 1.00000E-45
9.74162E-01 1.00000E-45
9.75528E-01 1.00000E-45
9.76858E-01 1.00000E-45
9.78152E-01 1.00000E-45
9.79410E-01 1.00000E-45
9.80631E-01 1.00000E-45
9.81815E-01 1.00000E-45
9.82963E-01 1.00000E-45
9.84074E-01 1.00000E-45
9.85148E-01 1.00000E-45
9.86185E-01 1.00000E-45
9.87185E-01 1.00000E-45
9.88148E-01 1.00000E-45
9.89074E-01 1.00000E-45
9.89962E-01 1.00000E-45
9.90814E-01 1.00000E-45
9.91627E-01 1.00000E-45
9.92404E-01 1.00000E-45
9.93143E-01 1.00000E-45
9.93844E-01 1.00000E-45
9.94508E-01 1.00000E-45
9.95134E-01 1.00000E-45
9.95722E-01 1.00000E-45
9.96273E-01 1.00000E-45
9.96786E-01 1.00000E-45
9.97261E-01 1.00000E-45
9.97698E-01 1.00000E-45
9.98097E-01 1.00000E-45
9.98459E-01 1.00000E-45
9.98782E-01 1.00000E-45
9.99067E-01 1.00000E-45
9.99315E-01 1.00000E-45
9.99524E-01 1.00000E-45
9.99695E-01 1.00000E-45
9.99829E-01 1.00000E-45
9.99924E-01 1.00000E-45
9.99981E-01 1.00000E-45
1.00000E+00 1.00000E-45
