 #
 # Subroutine ELSEPA. Elastic scattering of electrons and positrons
 #                    by neutral atoms and positive ions
 #
 # Projectile: positron
 # Kinetic energy = 3.50000E+07 eV = 1.28623E+06 a.u.
 #
 # WARNING: High-energy factorization with free-atom DF screening.
 #          Absorption, polarization and exchange corrections are
 #          switched off.
 #          Phase shifts are calculated for the bare nucleus.
 #          Scattering amplitudes are not evaluated.
 #
 # Element: Eu,  Z =  63,  atomic weight = 1.51964E+02 g/mol
 #
 # Nuclear model: Fermi distribution
 #                Average radius = 5.70993E-13 cm
 #                Skin thickness = 5.46000E-14 cm
 #
 # Number of electrons = 63
 #
 # Total elastic cross section = 7.20024E-18 cm**2 = 2.57125E-01 a0**2
 # 1st transport cross section = 5.38031E-24 cm**2 = 1.92135E-07 a0**2
 # 2nd transport cross section = 1.57302E-23 cm**2 = 5.61737E-07 a0**2
 #
 #
 # Differential cross section:                       MU=(1-COS(THETA))/2
 #
 #  THETA        MU          DCS          DCS        Sherman      error
 #  (deg)                 (cm**2/sr)   (a0**2/sr)    function
 #----------------------------------------------------------------------
0.00000E+00 1.12218E-10
7.61557E-13 1.12146E-10
1.18994E-12 1.12106E-10
1.71346E-12 1.12057E-10
2.33225E-12 1.11999E-10
3.04617E-12 1.11933E-10
3.85530E-12 1.11857E-10
4.75964E-12 1.11773E-10
5.75917E-12 1.11680E-10
6.85391E-12 1.11579E-10
8.04379E-12 1.11469E-10
9.32893E-12 1.11350E-10
1.07092E-11 1.11223E-10
1.21847E-11 1.11087E-10
1.37554E-11 1.10943E-10
1.54213E-11 1.10790E-10
1.71823E-11 1.10629E-10
1.90386E-11 1.10460E-10
2.09900E-11 1.10282E-10
2.30367E-11 1.10097E-10
2.51785E-11 1.09903E-10
2.74156E-11 1.09702E-10
2.97478E-11 1.09492E-10
3.21752E-11 1.09274E-10
3.46979E-11 1.09049E-10
3.73157E-11 1.08816E-10
4.00286E-11 1.08576E-10
4.28368E-11 1.08328E-10
4.57402E-11 1.08072E-10
4.87388E-11 1.07810E-10
5.18325E-11 1.07540E-10
5.50215E-11 1.07263E-10
5.83057E-11 1.06979E-10
6.16850E-11 1.06688E-10
6.51595E-11 1.06390E-10
6.87293E-11 1.06085E-10
7.23943E-11 1.05774E-10
7.61544E-11 1.05456E-10
1.18991E-10 1.01947E-10
1.71347E-10 9.79172E-11
2.33223E-10 9.35112E-11
3.04617E-10 8.88087E-11
3.85531E-10 8.39590E-11
4.75965E-10 7.90757E-11
5.75917E-10 7.42076E-11
6.85389E-10 6.94841E-11
8.04380E-10 6.49373E-11
9.32891E-10 6.05801E-11
1.07092E-09 5.65107E-11
1.21847E-09 5.26885E-11
1.37554E-09 4.91108E-11
1.54213E-09 4.58437E-11
1.71823E-09 4.28105E-11
1.90386E-09 4.00151E-11
2.09900E-09 3.74730E-11
2.30367E-09 3.51286E-11
2.51785E-09 3.29826E-11
2.74156E-09 3.10246E-11
2.97478E-09 2.92211E-11
3.21752E-09 2.75698E-11
3.46978E-09 2.60527E-11
3.73156E-09 2.46522E-11
4.00286E-09 2.33629E-11
4.28368E-09 2.21694E-11
4.57402E-09 2.10630E-11
4.87388E-09 2.00354E-11
5.18326E-09 1.90781E-11
5.50215E-09 1.81863E-11
5.83057E-09 1.73493E-11
6.16850E-09 1.65662E-11
6.51596E-09 1.58320E-11
6.87293E-09 1.51379E-11
7.23942E-09 1.44858E-11
7.61544E-09 1.38703E-11
1.18991E-08 9.19734E-12
1.71347E-08 6.28651E-12
2.33223E-08 4.34852E-12
3.04617E-08 3.14775E-12
3.85531E-08 2.31735E-12
4.75965E-08 1.74139E-12
5.75917E-08 1.34084E-12
6.85389E-08 1.04400E-12
8.04380E-08 8.24700E-13
9.32891E-08 6.61241E-13
1.07092E-07 5.32959E-13
1.21847E-07 4.34339E-13
1.37554E-07 3.57566E-13
1.54213E-07 2.95591E-13
1.71823E-07 2.46714E-13
1.90386E-07 2.07486E-13
2.09900E-07 1.75500E-13
2.30367E-07 1.49603E-13
2.51785E-07 1.28344E-13
2.74156E-07 1.10752E-13
2.97478E-07 9.61796E-14
3.21752E-07 8.39714E-14
3.46978E-07 7.36862E-14
3.73156E-07 6.49932E-14
4.00286E-07 5.75672E-14
4.28368E-07 5.12115E-14
4.57402E-07 4.57473E-14
4.87388E-07 4.09715E-14
5.18325E-07 3.68217E-14
5.50215E-07 3.32029E-14
5.83057E-07 3.00126E-14
6.16850E-07 2.72086E-14
6.51596E-07 2.47313E-14
6.87293E-07 2.25235E-14
7.23942E-07 2.05617E-14
7.61543E-07 1.88081E-14
1.18991E-06 8.41905E-15
1.71347E-06 4.28504E-15
2.33223E-06 2.39941E-15
3.04617E-06 1.44820E-15
3.85531E-06 9.25482E-16
4.75964E-06 6.19275E-16
5.75916E-06 4.29915E-16
6.85388E-06 3.07701E-16
8.04378E-06 2.25989E-16
9.32888E-06 1.69617E-16
1.07092E-05 1.29758E-16
1.21846E-05 1.00927E-16
1.37553E-05 7.96548E-17
1.54212E-05 6.36958E-17
1.71822E-05 5.15310E-17
1.90385E-05 4.21147E-17
2.09899E-05 3.47826E-17
2.30365E-05 2.89722E-17
2.51783E-05 2.43201E-17
2.74153E-05 2.05602E-17
2.97475E-05 1.74969E-17
3.21749E-05 1.49832E-17
3.46974E-05 1.29058E-17
3.73152E-05 1.11776E-17
4.00281E-05 9.73027E-18
4.28362E-05 8.51014E-18
4.57395E-05 7.47544E-18
4.87380E-05 6.59296E-18
5.18317E-05 5.83656E-18
5.50205E-05 5.18532E-18
5.83045E-05 4.62228E-18
6.16838E-05 4.13366E-18
6.51582E-05 3.70804E-18
6.87277E-05 3.33592E-18
7.23925E-05 3.00942E-18
7.61524E-05 2.72199E-18
9.21439E-05 1.86444E-18
1.09658E-04 1.31930E-18
1.28695E-04 9.59591E-19
1.49255E-04 7.14377E-19
1.71338E-04 5.42683E-19
1.94942E-04 4.19540E-19
2.20070E-04 3.29392E-19
2.46720E-04 2.62179E-19
2.74892E-04 2.11243E-19
3.04586E-04 1.72083E-19
3.35803E-04 1.41577E-19
3.68542E-04 1.17532E-19
4.02802E-04 9.83729E-20
4.38585E-04 8.29574E-20
4.75889E-04 7.04420E-20
5.14715E-04 6.01959E-20
5.55063E-04 5.17438E-20
5.96931E-04 4.47217E-20
6.40321E-04 3.88492E-20
6.85233E-04 3.39079E-20
7.31665E-04 2.97263E-20
7.79618E-04 2.61687E-20
8.29092E-04 2.31266E-20
8.80086E-04 2.05130E-20
9.32601E-04 1.82576E-20
9.86636E-04 1.63032E-20
1.04219E-03 1.46028E-20
1.09927E-03 1.31180E-20
1.15786E-03 1.18167E-20
1.21797E-03 1.06724E-20
1.27961E-03 9.66305E-21
1.34276E-03 8.76993E-21
1.40743E-03 7.97739E-21
1.47362E-03 7.27214E-21
1.54133E-03 6.64292E-21
1.61056E-03 6.08011E-21
1.68131E-03 5.57550E-21
1.75357E-03 5.12202E-21
1.82735E-03 4.71359E-21
1.90265E-03 4.34493E-21
1.97947E-03 4.01152E-21
2.05780E-03 3.70938E-21
2.13765E-03 3.43507E-21
2.21902E-03 3.18558E-21
2.30190E-03 2.95825E-21
2.38630E-03 2.75077E-21
2.47222E-03 2.56110E-21
2.55965E-03 2.38745E-21
2.64859E-03 2.22822E-21
2.73905E-03 2.08199E-21
2.83103E-03 1.94752E-21
2.92452E-03 1.82369E-21
3.01952E-03 1.70952E-21
3.11604E-03 1.60410E-21
3.21407E-03 1.50666E-21
3.31362E-03 1.41647E-21
3.41468E-03 1.33290E-21
3.51725E-03 1.25538E-21
3.62133E-03 1.18339E-21
3.72692E-03 1.11647E-21
3.83403E-03 1.05419E-21
3.94265E-03 9.96172E-22
4.05278E-03 9.42076E-22
4.16442E-03 8.91585E-22
4.27757E-03 8.44415E-22
4.39223E-03 8.00309E-22
4.50840E-03 7.59033E-22
4.62608E-03 7.20371E-22
4.74527E-03 6.84128E-22
4.86597E-03 6.50123E-22
4.98817E-03 6.18195E-22
5.11188E-03 5.88193E-22
5.23711E-03 5.59980E-22
5.36383E-03 5.33430E-22
5.49207E-03 5.08426E-22
5.62181E-03 4.84862E-22
5.75306E-03 4.62640E-22
5.88581E-03 4.41671E-22
6.02007E-03 4.21869E-22
6.15583E-03 4.03158E-22
6.29310E-03 3.85467E-22
6.43187E-03 3.68730E-22
6.57214E-03 3.52887E-22
6.71392E-03 3.37881E-22
6.85720E-03 3.23658E-22
7.00198E-03 3.10172E-22
7.14827E-03 2.97377E-22
7.29605E-03 2.85231E-22
7.44534E-03 2.73695E-22
7.59612E-03 2.62732E-22
7.97965E-03 2.37619E-22
8.37255E-03 2.15418E-22
8.77480E-03 1.95734E-22
9.18641E-03 1.78234E-22
9.60736E-03 1.62633E-22
1.00376E-02 1.48691E-22
1.04773E-02 1.36201E-22
1.09262E-02 1.24986E-22
1.13844E-02 1.14894E-22
1.18520E-02 1.05792E-22
1.23288E-02 9.75675E-23
1.28150E-02 9.01203E-23
1.33104E-02 8.33646E-23
1.38150E-02 7.72250E-23
1.43290E-02 7.16356E-23
1.48521E-02 6.65385E-23
1.53845E-02 6.18828E-23
1.59262E-02 5.76236E-23
1.64770E-02 5.37213E-23
1.70371E-02 5.01407E-23
1.76063E-02 4.68506E-23
1.81848E-02 4.38235E-23
1.87724E-02 4.10346E-23
1.93692E-02 3.84615E-23
1.99751E-02 3.60847E-23
2.05901E-02 3.38867E-23
2.12143E-02 3.18518E-23
2.18476E-02 2.99656E-23
2.24900E-02 2.82155E-23
2.31415E-02 2.65898E-23
2.38021E-02 2.50782E-23
2.44717E-02 2.36712E-23
2.51504E-02 2.23603E-23
2.58382E-02 2.11378E-23
2.65349E-02 1.99966E-23
2.72407E-02 1.89305E-23
2.79555E-02 1.79336E-23
2.86793E-02 1.70005E-23
2.94120E-02 1.61266E-23
3.01537E-02 1.53073E-23
3.09043E-02 1.45387E-23
3.16639E-02 1.38170E-23
3.24324E-02 1.31390E-23
3.32098E-02 1.25014E-23
3.39961E-02 1.19015E-23
3.47912E-02 1.13366E-23
3.55952E-02 1.08043E-23
3.64081E-02 1.03024E-23
3.72297E-02 9.82881E-24
3.80602E-02 9.38173E-24
3.88995E-02 8.95938E-24
3.97476E-02 8.56014E-24
4.06044E-02 8.18253E-24
4.14700E-02 7.82516E-24
4.23443E-02 7.48676E-24
4.32273E-02 7.16614E-24
4.41190E-02 6.86221E-24
4.50194E-02 6.57393E-24
4.59284E-02 6.30036E-24
4.68461E-02 6.04061E-24
4.87074E-02 5.55937E-24
5.06030E-02 5.12426E-24
5.25328E-02 4.73011E-24
5.44967E-02 4.37244E-24
5.64946E-02 4.04730E-24
5.85262E-02 3.75123E-24
6.05914E-02 3.48119E-24
6.26901E-02 3.23453E-24
6.48222E-02 3.00886E-24
6.69873E-02 2.80212E-24
6.91854E-02 2.61243E-24
7.14163E-02 2.43817E-24
7.36799E-02 2.27786E-24
7.59760E-02 2.13019E-24
7.83043E-02 1.99402E-24
8.06647E-02 1.86828E-24
8.30571E-02 1.75205E-24
8.54812E-02 1.64449E-24
8.79369E-02 1.54484E-24
9.04240E-02 1.45242E-24
9.29422E-02 1.36662E-24
9.54915E-02 1.28689E-24
9.80716E-02 1.21273E-24
1.00682E-01 1.14367E-24
1.03323E-01 1.07932E-24
1.05995E-01 1.01929E-24
1.08696E-01 9.63253E-25
1.11427E-01 9.10894E-25
1.14188E-01 8.61931E-25
1.16978E-01 8.16108E-25
1.19797E-01 7.73189E-25
1.22645E-01 7.32961E-25
1.25522E-01 6.95227E-25
1.28428E-01 6.59806E-25
1.31361E-01 6.26533E-25
1.34323E-01 5.95256E-25
1.37313E-01 5.65836E-25
1.40330E-01 5.38144E-25
1.43375E-01 5.12062E-25
1.46447E-01 4.87481E-25
1.49545E-01 4.64300E-25
1.52671E-01 4.42426E-25
1.55823E-01 4.21775E-25
1.59001E-01 4.02265E-25
1.62205E-01 3.83824E-25
1.65435E-01 3.66384E-25
1.68690E-01 3.49881E-25
1.71970E-01 3.34257E-25
1.75276E-01 3.19457E-25
1.78606E-01 3.05431E-25
1.81961E-01 2.92132E-25
1.85340E-01 2.79516E-25
1.88743E-01 2.67542E-25
1.92169E-01 2.56172E-25
1.95619E-01 2.45372E-25
1.99092E-01 2.35107E-25
2.02589E-01 2.25347E-25
2.06107E-01 2.16063E-25
2.09649E-01 2.07229E-25
2.13212E-01 1.98819E-25
2.16797E-01 1.90809E-25
2.20404E-01 1.83177E-25
2.24032E-01 1.75903E-25
2.27680E-01 1.68967E-25
2.31350E-01 1.62351E-25
2.35040E-01 1.56038E-25
2.38751E-01 1.50011E-25
2.42481E-01 1.44257E-25
2.46231E-01 1.38760E-25
2.50000E-01 1.33507E-25
2.53788E-01 1.28486E-25
2.57595E-01 1.23685E-25
2.61421E-01 1.19092E-25
2.65264E-01 1.14698E-25
2.69126E-01 1.10492E-25
2.73005E-01 1.06465E-25
2.76901E-01 1.02608E-25
2.80814E-01 9.89138E-26
2.84744E-01 9.53732E-26
2.88691E-01 9.19793E-26
2.92653E-01 8.87251E-26
2.96632E-01 8.56039E-26
3.00625E-01 8.26094E-26
3.04634E-01 7.97359E-26
3.08658E-01 7.69775E-26
3.12697E-01 7.43290E-26
3.16749E-01 7.17855E-26
3.20816E-01 6.93420E-26
3.24896E-01 6.69940E-26
3.28990E-01 6.47374E-26
3.33097E-01 6.25679E-26
3.37216E-01 6.04817E-26
3.41348E-01 5.84752E-26
3.45492E-01 5.65448E-26
3.49647E-01 5.46872E-26
3.53814E-01 5.28993E-26
3.57992E-01 5.11781E-26
3.62181E-01 4.95207E-26
3.66381E-01 4.79244E-26
3.70590E-01 4.63867E-26
3.74810E-01 4.49050E-26
3.79039E-01 4.34771E-26
3.83277E-01 4.21006E-26
3.87524E-01 4.07736E-26
3.91780E-01 3.94939E-26
3.96044E-01 3.82595E-26
4.00316E-01 3.70688E-26
4.04596E-01 3.59199E-26
4.08882E-01 3.48111E-26
4.13176E-01 3.37409E-26
4.17476E-01 3.27076E-26
4.21783E-01 3.17099E-26
4.26095E-01 3.07464E-26
4.30413E-01 2.98157E-26
4.34737E-01 2.89165E-26
4.39065E-01 2.80476E-26
4.43398E-01 2.72079E-26
4.47736E-01 2.63963E-26
4.52077E-01 2.56116E-26
4.56422E-01 2.48529E-26
4.60770E-01 2.41192E-26
4.65122E-01 2.34095E-26
4.69476E-01 2.27230E-26
4.73832E-01 2.20588E-26
4.78190E-01 2.14160E-26
4.82550E-01 2.07940E-26
4.86912E-01 2.01918E-26
4.91274E-01 1.96089E-26
4.95637E-01 1.90445E-26
5.00000E-01 1.84979E-26
5.04363E-01 1.79685E-26
5.08726E-01 1.74557E-26
5.13088E-01 1.69589E-26
5.17450E-01 1.64776E-26
5.21810E-01 1.60111E-26
5.26168E-01 1.55591E-26
5.30524E-01 1.51209E-26
5.34878E-01 1.46961E-26
5.39230E-01 1.42842E-26
5.43578E-01 1.38848E-26
5.47923E-01 1.34975E-26
5.52264E-01 1.31218E-26
5.56602E-01 1.27574E-26
5.60935E-01 1.24038E-26
5.65263E-01 1.20608E-26
5.69587E-01 1.17279E-26
5.73905E-01 1.14048E-26
5.78217E-01 1.10913E-26
5.82524E-01 1.07869E-26
5.86824E-01 1.04914E-26
5.91118E-01 1.02045E-26
5.95404E-01 9.92586E-27
5.99684E-01 9.65529E-27
6.03956E-01 9.39249E-27
6.08220E-01 9.13723E-27
6.12476E-01 8.88925E-27
6.16723E-01 8.64832E-27
6.20961E-01 8.41422E-27
6.25190E-01 8.18674E-27
6.29410E-01 7.96566E-27
6.33619E-01 7.75078E-27
6.37819E-01 7.54191E-27
6.42008E-01 7.33887E-27
6.46186E-01 7.14146E-27
6.50353E-01 6.94952E-27
6.54508E-01 6.76288E-27
6.58652E-01 6.58137E-27
6.62784E-01 6.40485E-27
6.66903E-01 6.23314E-27
6.71010E-01 6.06612E-27
6.75104E-01 5.90364E-27
6.79184E-01 5.74556E-27
6.83251E-01 5.59174E-27
6.87303E-01 5.44207E-27
6.91342E-01 5.29642E-27
6.95366E-01 5.15467E-27
6.99375E-01 5.01671E-27
7.03368E-01 4.88241E-27
7.07347E-01 4.75168E-27
7.11309E-01 4.62442E-27
7.15256E-01 4.50051E-27
7.19186E-01 4.37986E-27
7.23099E-01 4.26239E-27
7.26995E-01 4.14799E-27
7.30874E-01 4.03658E-27
7.34736E-01 3.92807E-27
7.38579E-01 3.82238E-27
7.42405E-01 3.71943E-27
7.46212E-01 3.61915E-27
7.50000E-01 3.52145E-27
7.53769E-01 3.42627E-27
7.57519E-01 3.33354E-27
7.61249E-01 3.24318E-27
7.64960E-01 3.15513E-27
7.68650E-01 3.06933E-27
7.72320E-01 2.98571E-27
7.75968E-01 2.90422E-27
7.79596E-01 2.82479E-27
7.83203E-01 2.74738E-27
7.86788E-01 2.67192E-27
7.90351E-01 2.59836E-27
7.93893E-01 2.52665E-27
7.97411E-01 2.45674E-27
8.00908E-01 2.38859E-27
8.04381E-01 2.32215E-27
8.07831E-01 2.25736E-27
8.11257E-01 2.19419E-27
8.14660E-01 2.13260E-27
8.18039E-01 2.07254E-27
8.21394E-01 2.01397E-27
8.24724E-01 1.95685E-27
8.28030E-01 1.90115E-27
8.31310E-01 1.84683E-27
8.34565E-01 1.79385E-27
8.37795E-01 1.74219E-27
8.40999E-01 1.69180E-27
8.44177E-01 1.64265E-27
8.47329E-01 1.59471E-27
8.50455E-01 1.54795E-27
8.53553E-01 1.50235E-27
8.56625E-01 1.45786E-27
8.59670E-01 1.41447E-27
8.62687E-01 1.37215E-27
8.65677E-01 1.33087E-27
8.68639E-01 1.29060E-27
8.71572E-01 1.25133E-27
8.74478E-01 1.21302E-27
8.77355E-01 1.17565E-27
8.80203E-01 1.13920E-27
8.83022E-01 1.10365E-27
8.85812E-01 1.06897E-27
8.88573E-01 1.03515E-27
8.91304E-01 1.00217E-27
8.94005E-01 9.69995E-28
8.96677E-01 9.38619E-28
8.99318E-01 9.08021E-28
9.01928E-01 8.78183E-28
9.04508E-01 8.49086E-28
9.07058E-01 8.20713E-28
9.09576E-01 7.93049E-28
9.12063E-01 7.66076E-28
9.14519E-01 7.39780E-28
9.16943E-01 7.14146E-28
9.19335E-01 6.89157E-28
9.21696E-01 6.64801E-28
9.24024E-01 6.41064E-28
9.26320E-01 6.17931E-28
9.28584E-01 5.95390E-28
9.30815E-01 5.73428E-28
9.33013E-01 5.52032E-28
9.35178E-01 5.31192E-28
9.37310E-01 5.10894E-28
9.39409E-01 4.91128E-28
9.41474E-01 4.71883E-28
9.43505E-01 4.53148E-28
9.45503E-01 4.34913E-28
9.47467E-01 4.17168E-28
9.49397E-01 3.99903E-28
9.51293E-01 3.83109E-28
9.53154E-01 3.66776E-28
9.54981E-01 3.50896E-28
9.56773E-01 3.35460E-28
9.58530E-01 3.20460E-28
9.60252E-01 3.05887E-28
9.61940E-01 2.91734E-28
9.63592E-01 2.77994E-28
9.65209E-01 2.64658E-28
9.66790E-01 2.51720E-28
9.68336E-01 2.39173E-28
9.69846E-01 2.27011E-28
9.71321E-01 2.15226E-28
9.72759E-01 2.03813E-28
9.74162E-01 1.92766E-28
9.75528E-01 1.82079E-28
9.76858E-01 1.71745E-28
9.78152E-01 1.61761E-28
9.79410E-01 1.52120E-28
9.80631E-01 1.42818E-28
9.81815E-01 1.33850E-28
9.82963E-01 1.25211E-28
9.84074E-01 1.16896E-28
9.85148E-01 1.08902E-28
9.86185E-01 1.01224E-28
9.87185E-01 9.38582E-29
9.88148E-01 8.68011E-29
9.89074E-01 8.00488E-29
9.89962E-01 7.35979E-29
9.90814E-01 6.74452E-29
9.91627E-01 6.15874E-29
9.92404E-01 5.60215E-29
9.93143E-01 5.07448E-29
9.93844E-01 4.57546E-29
9.94508E-01 4.10483E-29
9.95134E-01 3.66234E-29
9.95722E-01 3.24779E-29
9.96273E-01 2.86095E-29
9.96786E-01 2.50164E-29
9.97261E-01 2.16966E-29
9.97698E-01 1.86485E-29
9.98097E-01 1.58706E-29
9.98459E-01 1.33615E-29
9.98782E-01 1.11199E-29
9.99067E-01 9.14463E-30
9.99315E-01 7.43476E-30
9.99524E-01 5.98939E-30
9.99695E-01 4.80781E-30
9.99829E-01 3.88943E-30
9.99924E-01 3.23376E-30
9.99981E-01 2.84050E-30
1.00000E+00 2.70944E-30
