 #
 # Subroutine ELSEPA. Elastic scattering of electrons and positrons
 #                    by neutral atoms and positive ions
 #
 # Projectile: positron
 # Kinetic energy = 4.50000E+06 eV = 1.65372E+05 a.u.
 #
 # WARNING: High-energy factorization with free-atom DF screening.
 #          Absorption, polarization and exchange corrections are
 #          switched off.
 #          Phase shifts are calculated for the bare nucleus.
 #          Scattering amplitudes are not evaluated.
 #
 # Element: Eu,  Z =  63,  atomic weight = 1.51964E+02 g/mol
 #
 # Nuclear model: Fermi distribution
 #                Average radius = 5.70993E-13 cm
 #                Skin thickness = 5.46000E-14 cm
 #
 # Number of electrons = 63
 #
 # Total elastic cross section = 7.26489E-18 cm**2 = 2.59434E-01 a0**2
 # 1st transport cross section = 1.96902E-22 cm**2 = 7.03150E-06 a0**2
 # 2nd transport cross section = 5.66178E-22 cm**2 = 2.02186E-05 a0**2
 #
 #
 # Differential cross section:                       MU=(1-COS(THETA))/2
 #
 #  THETA        MU          DCS          DCS        Sherman      error
 #  (deg)                 (cm**2/sr)   (a0**2/sr)    function
 #----------------------------------------------------------------------
0.00000E+00 2.23452E-12
7.61557E-13 2.23449E-12
1.18994E-12 2.23447E-12
1.71346E-12 2.23445E-12
2.33225E-12 2.23443E-12
3.04617E-12 2.23440E-12
3.85530E-12 2.23437E-12
4.75964E-12 2.23434E-12
5.75917E-12 2.23430E-12
6.85391E-12 2.23426E-12
8.04379E-12 2.23422E-12
9.32893E-12 2.23417E-12
1.07092E-11 2.23412E-12
1.21847E-11 2.23406E-12
1.37554E-11 2.23400E-12
1.54213E-11 2.23394E-12
1.71823E-11 2.23388E-12
1.90386E-11 2.23381E-12
2.09900E-11 2.23374E-12
2.30367E-11 2.23366E-12
2.51785E-11 2.23358E-12
2.74156E-11 2.23350E-12
2.97478E-11 2.23341E-12
3.21752E-11 2.23332E-12
3.46979E-11 2.23323E-12
3.73157E-11 2.23313E-12
4.00286E-11 2.23303E-12
4.28368E-11 2.23293E-12
4.57402E-11 2.23282E-12
4.87388E-11 2.23271E-12
5.18325E-11 2.23260E-12
5.50215E-11 2.23248E-12
5.83057E-11 2.23236E-12
6.16850E-11 2.23223E-12
6.51595E-11 2.23211E-12
6.87293E-11 2.23198E-12
7.23943E-11 2.23184E-12
7.61544E-11 2.23170E-12
1.18991E-10 2.23013E-12
1.71347E-10 2.22821E-12
2.33223E-10 2.22595E-12
3.04617E-10 2.22334E-12
3.85531E-10 2.22040E-12
4.75965E-10 2.21711E-12
5.75917E-10 2.21349E-12
6.85389E-10 2.20954E-12
8.04380E-10 2.20526E-12
9.32891E-10 2.20065E-12
1.07092E-09 2.19572E-12
1.21847E-09 2.19047E-12
1.37554E-09 2.18491E-12
1.54213E-09 2.17903E-12
1.71823E-09 2.17284E-12
1.90386E-09 2.16636E-12
2.09900E-09 2.15957E-12
2.30367E-09 2.15249E-12
2.51785E-09 2.14513E-12
2.74156E-09 2.13748E-12
2.97478E-09 2.12956E-12
3.21752E-09 2.12136E-12
3.46978E-09 2.11290E-12
3.73156E-09 2.10418E-12
4.00286E-09 2.09520E-12
4.28368E-09 2.08598E-12
4.57402E-09 2.07652E-12
4.87388E-09 2.06682E-12
5.18326E-09 2.05689E-12
5.50215E-09 2.04674E-12
5.83057E-09 2.03637E-12
6.16850E-09 2.02580E-12
6.51596E-09 2.01503E-12
6.87293E-09 2.00406E-12
7.23942E-09 1.99290E-12
7.61544E-09 1.98156E-12
1.18991E-08 1.86011E-12
1.71347E-08 1.72779E-12
2.33223E-08 1.59119E-12
3.04617E-08 1.45565E-12
3.85531E-08 1.32526E-12
4.75965E-08 1.20289E-12
5.75917E-08 1.09026E-12
6.85389E-08 9.88401E-13
8.04380E-08 8.96949E-13
9.32891E-08 8.15446E-13
1.07092E-07 7.43157E-13
1.21847E-07 6.79197E-13
1.37554E-07 6.22641E-13
1.54213E-07 5.72582E-13
1.71823E-07 5.28178E-13
1.90386E-07 4.88664E-13
2.09900E-07 4.53369E-13
2.30367E-07 4.21707E-13
2.51785E-07 3.93162E-13
2.74156E-07 3.67301E-13
2.97478E-07 3.43774E-13
3.21752E-07 3.22283E-13
3.46978E-07 3.02576E-13
3.73156E-07 2.84443E-13
4.00286E-07 2.67704E-13
4.28368E-07 2.52208E-13
4.57402E-07 2.37827E-13
4.87388E-07 2.24450E-13
5.18325E-07 2.11977E-13
5.50215E-07 2.00309E-13
5.83057E-07 1.89403E-13
6.16850E-07 1.79198E-13
6.51596E-07 1.69639E-13
6.87293E-07 1.60676E-13
7.23942E-07 1.52267E-13
7.61543E-07 1.44371E-13
1.18991E-06 8.59528E-14
1.71347E-06 5.46662E-14
2.33223E-06 3.63432E-14
3.04617E-06 2.50990E-14
3.85531E-06 1.78702E-14
4.75964E-06 1.30318E-14
5.75916E-06 9.68832E-15
6.85388E-06 7.31475E-15
8.04378E-06 5.61232E-15
9.32888E-06 4.37139E-15
1.07092E-05 3.45364E-15
1.21846E-05 2.76550E-15
1.37553E-05 2.24259E-15
1.54212E-05 1.83995E-15
1.71822E-05 1.52590E-15
1.90385E-05 1.27731E-15
2.09899E-05 1.07969E-15
2.30365E-05 9.20012E-16
2.51783E-05 7.88474E-16
2.74153E-05 6.79943E-16
2.97475E-05 5.89718E-16
3.21749E-05 5.14170E-16
3.46974E-05 4.50468E-16
3.73152E-05 3.96388E-16
4.00281E-05 3.50173E-16
4.28362E-05 3.10444E-16
4.57395E-05 2.76108E-16
4.87380E-05 2.46304E-16
5.18317E-05 2.20333E-16
5.50205E-05 1.97628E-16
5.83045E-05 1.77742E-16
6.16838E-05 1.60277E-16
6.51582E-05 1.44895E-16
6.87277E-05 1.31306E-16
7.23925E-05 1.19264E-16
7.61524E-05 1.08560E-16
9.21439E-05 7.60088E-17
1.09658E-04 5.47574E-17
1.28695E-04 4.04563E-17
1.49255E-04 3.05385E-17
1.71338E-04 2.34910E-17
1.94942E-04 1.83675E-17
2.20070E-04 1.45697E-17
2.46720E-04 1.17059E-17
2.74892E-04 9.51224E-18
3.04586E-04 7.80907E-18
3.35803E-04 6.47014E-18
3.68542E-04 5.40564E-18
4.02802E-04 4.55054E-18
4.38585E-04 3.85760E-18
4.75889E-04 3.29132E-18
5.14715E-04 2.82491E-18
5.55063E-04 2.43799E-18
5.96931E-04 2.11487E-18
6.40321E-04 1.84336E-18
6.85233E-04 1.61388E-18
7.31665E-04 1.41890E-18
7.79618E-04 1.25238E-18
8.29092E-04 1.10949E-18
8.80086E-04 9.86320E-19
9.32601E-04 8.79719E-19
9.86636E-04 7.87092E-19
1.04219E-03 7.06301E-19
1.09927E-03 6.35584E-19
1.15786E-03 5.73473E-19
1.21797E-03 5.18744E-19
1.27961E-03 4.70372E-19
1.34276E-03 4.27494E-19
1.40743E-03 3.89378E-19
1.47362E-03 3.55404E-19
1.54133E-03 3.25045E-19
1.61056E-03 2.97851E-19
1.68131E-03 2.73435E-19
1.75357E-03 2.51464E-19
1.82735E-03 2.31651E-19
1.90265E-03 2.13746E-19
1.97947E-03 1.97533E-19
2.05780E-03 1.82826E-19
2.13765E-03 1.69458E-19
2.21902E-03 1.57286E-19
2.30190E-03 1.46185E-19
2.38630E-03 1.36043E-19
2.47222E-03 1.26764E-19
2.55965E-03 1.18259E-19
2.64859E-03 1.10455E-19
2.73905E-03 1.03281E-19
2.83103E-03 9.66790E-20
2.92452E-03 9.05945E-20
3.01952E-03 8.49795E-20
3.11604E-03 7.97915E-20
3.21407E-03 7.49922E-20
3.31362E-03 7.05470E-20
3.41468E-03 6.64250E-20
3.51725E-03 6.25987E-20
3.62133E-03 5.90429E-20
3.72692E-03 5.57351E-20
3.83403E-03 5.26549E-20
3.94265E-03 4.97838E-20
4.05278E-03 4.71048E-20
4.16442E-03 4.46029E-20
4.27757E-03 4.22643E-20
4.39223E-03 4.00763E-20
4.50840E-03 3.80274E-20
4.62608E-03 3.61072E-20
4.74527E-03 3.43061E-20
4.86597E-03 3.26154E-20
4.98817E-03 3.10271E-20
5.11188E-03 2.95339E-20
5.23711E-03 2.81290E-20
5.36383E-03 2.68062E-20
5.49207E-03 2.55599E-20
5.62181E-03 2.43848E-20
5.75306E-03 2.32761E-20
5.88581E-03 2.22294E-20
6.02007E-03 2.12405E-20
6.15583E-03 2.03058E-20
6.29310E-03 1.94216E-20
6.43187E-03 1.85847E-20
6.57214E-03 1.77922E-20
6.71392E-03 1.70413E-20
6.85720E-03 1.63293E-20
7.00198E-03 1.56539E-20
7.14827E-03 1.50128E-20
7.29605E-03 1.44041E-20
7.44534E-03 1.38257E-20
7.59612E-03 1.32758E-20
7.97965E-03 1.20155E-20
8.37255E-03 1.09004E-20
8.77480E-03 9.91096E-21
9.18641E-03 9.03059E-21
9.60736E-03 8.24520E-21
1.00376E-02 7.54282E-21
1.04773E-02 6.91319E-21
1.09262E-02 6.34747E-21
1.13844E-02 5.83806E-21
1.18520E-02 5.37839E-21
1.23288E-02 4.96276E-21
1.28150E-02 4.58624E-21
1.33104E-02 4.24449E-21
1.38150E-02 3.93375E-21
1.43290E-02 3.65072E-21
1.48521E-02 3.39249E-21
1.53845E-02 3.15652E-21
1.59262E-02 2.94055E-21
1.64770E-02 2.74259E-21
1.70371E-02 2.56088E-21
1.76063E-02 2.39385E-21
1.81848E-02 2.24010E-21
1.87724E-02 2.09840E-21
1.93692E-02 1.96762E-21
1.99751E-02 1.84679E-21
2.05901E-02 1.73501E-21
2.12143E-02 1.63149E-21
2.18476E-02 1.53550E-21
2.24900E-02 1.44640E-21
2.31415E-02 1.36361E-21
2.38021E-02 1.28661E-21
2.44717E-02 1.21491E-21
2.51504E-02 1.14810E-21
2.58382E-02 1.08576E-21
2.65349E-02 1.02756E-21
2.72407E-02 9.73171E-22
2.79555E-02 9.22294E-22
2.86793E-02 8.74665E-22
2.94120E-02 8.30039E-22
3.01537E-02 7.88194E-22
3.09043E-02 7.48924E-22
3.16639E-02 7.12045E-22
3.24324E-02 6.77382E-22
3.32098E-02 6.44781E-22
3.39961E-02 6.14096E-22
3.47912E-02 5.85195E-22
3.55952E-02 5.57955E-22
3.64081E-02 5.32263E-22
3.72297E-02 5.08017E-22
3.80602E-02 4.85119E-22
3.88995E-02 4.63482E-22
3.97476E-02 4.43024E-22
4.06044E-02 4.23669E-22
4.14700E-02 4.05346E-22
4.23443E-02 3.87992E-22
4.32273E-02 3.71544E-22
4.41190E-02 3.55949E-22
4.50194E-02 3.41152E-22
4.59284E-02 3.27107E-22
4.68461E-02 3.13768E-22
4.87074E-02 2.89045E-22
5.06030E-02 2.66679E-22
5.25328E-02 2.46408E-22
5.44967E-02 2.28002E-22
5.64946E-02 2.11261E-22
5.85262E-02 1.96007E-22
6.05914E-02 1.82088E-22
6.26901E-02 1.69365E-22
6.48222E-02 1.57719E-22
6.69873E-02 1.47042E-22
6.91854E-02 1.37241E-22
7.14163E-02 1.28231E-22
7.36799E-02 1.19937E-22
7.59760E-02 1.12292E-22
7.83043E-02 1.05238E-22
8.06647E-02 9.87198E-23
8.30571E-02 9.26907E-23
8.54812E-02 8.71074E-23
8.79369E-02 8.19312E-23
9.04240E-02 7.71274E-23
9.29422E-02 7.26644E-23
9.54915E-02 6.85139E-23
9.80716E-02 6.46503E-23
1.00682E-01 6.10503E-23
1.03323E-01 5.76929E-23
1.05995E-01 5.45588E-23
1.08696E-01 5.16306E-23
1.11427E-01 4.88925E-23
1.14188E-01 4.63299E-23
1.16978E-01 4.39297E-23
1.19797E-01 4.16798E-23
1.22645E-01 3.95691E-23
1.25522E-01 3.75876E-23
1.28428E-01 3.57259E-23
1.31361E-01 3.39757E-23
1.34323E-01 3.23289E-23
1.37313E-01 3.07785E-23
1.40330E-01 2.93178E-23
1.43375E-01 2.79407E-23
1.46447E-01 2.66417E-23
1.49545E-01 2.54155E-23
1.52671E-01 2.42574E-23
1.55823E-01 2.31629E-23
1.59001E-01 2.21279E-23
1.62205E-01 2.11486E-23
1.65435E-01 2.02214E-23
1.68690E-01 1.93433E-23
1.71970E-01 1.85110E-23
1.75276E-01 1.77218E-23
1.78606E-01 1.69730E-23
1.81961E-01 1.62624E-23
1.85340E-01 1.55874E-23
1.88743E-01 1.49461E-23
1.92169E-01 1.43365E-23
1.95619E-01 1.37568E-23
1.99092E-01 1.32051E-23
2.02589E-01 1.26801E-23
2.06107E-01 1.21800E-23
2.09649E-01 1.17036E-23
2.13212E-01 1.12495E-23
2.16797E-01 1.08165E-23
2.20404E-01 1.04035E-23
2.24032E-01 1.00093E-23
2.27680E-01 9.63295E-24
2.31350E-01 9.27354E-24
2.35040E-01 8.93016E-24
2.38751E-01 8.60196E-24
2.42481E-01 8.28814E-24
2.46231E-01 7.98798E-24
2.50000E-01 7.70078E-24
2.53788E-01 7.42588E-24
2.57595E-01 7.16267E-24
2.61421E-01 6.91056E-24
2.65264E-01 6.66901E-24
2.69126E-01 6.43750E-24
2.73005E-01 6.21553E-24
2.76901E-01 6.00264E-24
2.80814E-01 5.79841E-24
2.84744E-01 5.60241E-24
2.88691E-01 5.41426E-24
2.92653E-01 5.23360E-24
2.96632E-01 5.06007E-24
3.00625E-01 4.89335E-24
3.04634E-01 4.73311E-24
3.08658E-01 4.57907E-24
3.12697E-01 4.43094E-24
3.16749E-01 4.28846E-24
3.20816E-01 4.15138E-24
3.24896E-01 4.01946E-24
3.28990E-01 3.89247E-24
3.33097E-01 3.77019E-24
3.37216E-01 3.65243E-24
3.41348E-01 3.53898E-24
3.45492E-01 3.42965E-24
3.49647E-01 3.32429E-24
3.53814E-01 3.22271E-24
3.57992E-01 3.12476E-24
3.62181E-01 3.03029E-24
3.66381E-01 2.93915E-24
3.70590E-01 2.85121E-24
3.74810E-01 2.76633E-24
3.79039E-01 2.68439E-24
3.83277E-01 2.60527E-24
3.87524E-01 2.52885E-24
3.91780E-01 2.45504E-24
3.96044E-01 2.38373E-24
4.00316E-01 2.31481E-24
4.04596E-01 2.24820E-24
4.08882E-01 2.18380E-24
4.13176E-01 2.12152E-24
4.17476E-01 2.06129E-24
4.21783E-01 2.00303E-24
4.26095E-01 1.94667E-24
4.30413E-01 1.89212E-24
4.34737E-01 1.83933E-24
4.39065E-01 1.78822E-24
4.43398E-01 1.73874E-24
4.47736E-01 1.69082E-24
4.52077E-01 1.64441E-24
4.56422E-01 1.59945E-24
4.60770E-01 1.55589E-24
4.65122E-01 1.51367E-24
4.69476E-01 1.47276E-24
4.73832E-01 1.43309E-24
4.78190E-01 1.39464E-24
4.82550E-01 1.35735E-24
4.86912E-01 1.32118E-24
4.91274E-01 1.28611E-24
4.95637E-01 1.25207E-24
5.00000E-01 1.21905E-24
5.04363E-01 1.18701E-24
5.08726E-01 1.15590E-24
5.13088E-01 1.12571E-24
5.17450E-01 1.09640E-24
5.21810E-01 1.06794E-24
5.26168E-01 1.04029E-24
5.30524E-01 1.01345E-24
5.34878E-01 9.87367E-25
5.39230E-01 9.62029E-25
5.43578E-01 9.37408E-25
5.47923E-01 9.13481E-25
5.52264E-01 8.90226E-25
5.56602E-01 8.67621E-25
5.60935E-01 8.45644E-25
5.65263E-01 8.24276E-25
5.69587E-01 8.03497E-25
5.73905E-01 7.83288E-25
5.78217E-01 7.63632E-25
5.82524E-01 7.44510E-25
5.86824E-01 7.25907E-25
5.91118E-01 7.07805E-25
5.95404E-01 6.90190E-25
5.99684E-01 6.73046E-25
6.03956E-01 6.56359E-25
6.08220E-01 6.40115E-25
6.12476E-01 6.24300E-25
6.16723E-01 6.08901E-25
6.20961E-01 5.93907E-25
6.25190E-01 5.79303E-25
6.29410E-01 5.65080E-25
6.33619E-01 5.51225E-25
6.37819E-01 5.37728E-25
6.42008E-01 5.24578E-25
6.46186E-01 5.11765E-25
6.50353E-01 4.99279E-25
6.54508E-01 4.87110E-25
6.58652E-01 4.75250E-25
6.62784E-01 4.63689E-25
6.66903E-01 4.52419E-25
6.71010E-01 4.41431E-25
6.75104E-01 4.30718E-25
6.79184E-01 4.20271E-25
6.83251E-01 4.10084E-25
6.87303E-01 4.00148E-25
6.91342E-01 3.90458E-25
6.95366E-01 3.81005E-25
6.99375E-01 3.71783E-25
7.03368E-01 3.62787E-25
7.07347E-01 3.54009E-25
7.11309E-01 3.45445E-25
7.15256E-01 3.37087E-25
7.19186E-01 3.28931E-25
7.23099E-01 3.20970E-25
7.26995E-01 3.13201E-25
7.30874E-01 3.05617E-25
7.34736E-01 2.98213E-25
7.38579E-01 2.90986E-25
7.42405E-01 2.83929E-25
7.46212E-01 2.77040E-25
7.50000E-01 2.70312E-25
7.53769E-01 2.63743E-25
7.57519E-01 2.57328E-25
7.61249E-01 2.51062E-25
7.64960E-01 2.44943E-25
7.68650E-01 2.38966E-25
7.72320E-01 2.33128E-25
7.75968E-01 2.27426E-25
7.79596E-01 2.21855E-25
7.83203E-01 2.16412E-25
7.86788E-01 2.11095E-25
7.90351E-01 2.05900E-25
7.93893E-01 2.00824E-25
7.97411E-01 1.95864E-25
8.00908E-01 1.91018E-25
8.04381E-01 1.86282E-25
8.07831E-01 1.81654E-25
8.11257E-01 1.77131E-25
8.14660E-01 1.72711E-25
8.18039E-01 1.68391E-25
8.21394E-01 1.64169E-25
8.24724E-01 1.60042E-25
8.28030E-01 1.56009E-25
8.31310E-01 1.52067E-25
8.34565E-01 1.48213E-25
8.37795E-01 1.44446E-25
8.40999E-01 1.40764E-25
8.44177E-01 1.37165E-25
8.47329E-01 1.33647E-25
8.50455E-01 1.30208E-25
8.53553E-01 1.26846E-25
8.56625E-01 1.23560E-25
8.59670E-01 1.20348E-25
8.62687E-01 1.17207E-25
8.65677E-01 1.14138E-25
8.68639E-01 1.11137E-25
8.71572E-01 1.08204E-25
8.74478E-01 1.05337E-25
8.77355E-01 1.02534E-25
8.80203E-01 9.97944E-26
8.83022E-01 9.71168E-26
8.85812E-01 9.44996E-26
8.88573E-01 9.19417E-26
8.91304E-01 8.94417E-26
8.94005E-01 8.69985E-26
8.96677E-01 8.46108E-26
8.99318E-01 8.22776E-26
9.01928E-01 7.99976E-26
9.04508E-01 7.77699E-26
9.07058E-01 7.55934E-26
9.09576E-01 7.34669E-26
9.12063E-01 7.13896E-26
9.14519E-01 6.93605E-26
9.16943E-01 6.73786E-26
9.19335E-01 6.54430E-26
9.21696E-01 6.35527E-26
9.24024E-01 6.17070E-26
9.26320E-01 5.99050E-26
9.28584E-01 5.81459E-26
9.30815E-01 5.64289E-26
9.33013E-01 5.47531E-26
9.35178E-01 5.31179E-26
9.37310E-01 5.15224E-26
9.39409E-01 4.99661E-26
9.41474E-01 4.84482E-26
9.43505E-01 4.69680E-26
9.45503E-01 4.55249E-26
9.47467E-01 4.41182E-26
9.49397E-01 4.27474E-26
9.51293E-01 4.14117E-26
9.53154E-01 4.01107E-26
9.54981E-01 3.88438E-26
9.56773E-01 3.76105E-26
9.58530E-01 3.64101E-26
9.60252E-01 3.52422E-26
9.61940E-01 3.41063E-26
9.63592E-01 3.30019E-26
9.65209E-01 3.19285E-26
9.66790E-01 3.08857E-26
9.68336E-01 2.98730E-26
9.69846E-01 2.88900E-26
9.71321E-01 2.79363E-26
9.72759E-01 2.70115E-26
9.74162E-01 2.61153E-26
9.75528E-01 2.52471E-26
9.76858E-01 2.44068E-26
9.78152E-01 2.35938E-26
9.79410E-01 2.28080E-26
9.80631E-01 2.20489E-26
9.81815E-01 2.13162E-26
9.82963E-01 2.06098E-26
9.84074E-01 1.99291E-26
9.85148E-01 1.92741E-26
9.86185E-01 1.86443E-26
9.87185E-01 1.80397E-26
9.88148E-01 1.74598E-26
9.89074E-01 1.69045E-26
9.89962E-01 1.63736E-26
9.90814E-01 1.58667E-26
9.91627E-01 1.53839E-26
9.92404E-01 1.49247E-26
9.93143E-01 1.44891E-26
9.93844E-01 1.40769E-26
9.94508E-01 1.36879E-26
9.95134E-01 1.33219E-26
9.95722E-01 1.29789E-26
9.96273E-01 1.26586E-26
9.96786E-01 1.23609E-26
9.97261E-01 1.20858E-26
9.97698E-01 1.18331E-26
9.98097E-01 1.16027E-26
9.98459E-01 1.13945E-26
9.98782E-01 1.12084E-26
9.99067E-01 1.10445E-26
9.99315E-01 1.09025E-26
9.99524E-01 1.07824E-26
9.99695E-01 1.06843E-26
9.99829E-01 1.06080E-26
9.99924E-01 1.05535E-26
9.99981E-01 1.05208E-26
1.00000E+00 1.05099E-26
