 #
 # Subroutine ELSEPA. Elastic scattering of electrons and positrons
 #                    by neutral atoms and positive ions
 #
 # Projectile: electron
 # Kinetic energy = 4.50000E+06 eV = 1.65372E+05 a.u.
 #
 # WARNING: High-energy factorization with free-atom DF screening.
 #          Absorption, polarization and exchange corrections are
 #          switched off.
 #          Phase shifts are calculated for the bare nucleus.
 #          Scattering amplitudes are not evaluated.
 #
 # Element: Cu,  Z =  29,  atomic weight = 6.35460E+01 g/mol
 #
 # Nuclear model: Fermi distribution
 #                Average radius = 4.26986E-13 cm
 #                Skin thickness = 5.46000E-14 cm
 #
 # Number of electrons = 29
 #
 # Total elastic cross section = 1.85950E-18 cm**2 = 6.64041E-02 a0**2
 # 1st transport cross section = 5.23539E-23 cm**2 = 1.86959E-06 a0**2
 # 2nd transport cross section = 1.48220E-22 cm**2 = 5.29302E-06 a0**2
 #
 #
 # Differential cross section:                       MU=(1-COS(THETA))/2
 #
 #  THETA        MU          DCS          DCS        Sherman      error
 #  (deg)                 (cm**2/sr)   (a0**2/sr)    function
 #----------------------------------------------------------------------
0.00000E+00 2.97278E-13
7.61557E-13 2.97276E-13
1.18994E-12 2.97275E-13
1.71346E-12 2.97274E-13
2.33225E-12 2.97273E-13
3.04617E-12 2.97271E-13
3.85530E-12 2.97269E-13
4.75964E-12 2.97267E-13
5.75917E-12 2.97264E-13
6.85391E-12 2.97262E-13
8.04379E-12 2.97259E-13
9.32893E-12 2.97256E-13
1.07092E-11 2.97253E-13
1.21847E-11 2.97249E-13
1.37554E-11 2.97246E-13
1.54213E-11 2.97242E-13
1.71823E-11 2.97238E-13
1.90386E-11 2.97233E-13
2.09900E-11 2.97229E-13
2.30367E-11 2.97224E-13
2.51785E-11 2.97219E-13
2.74156E-11 2.97214E-13
2.97478E-11 2.97208E-13
3.21752E-11 2.97202E-13
3.46979E-11 2.97197E-13
3.73157E-11 2.97190E-13
4.00286E-11 2.97184E-13
4.28368E-11 2.97177E-13
4.57402E-11 2.97171E-13
4.87388E-11 2.97164E-13
5.18325E-11 2.97156E-13
5.50215E-11 2.97149E-13
5.83057E-11 2.97141E-13
6.16850E-11 2.97133E-13
6.51595E-11 2.97125E-13
6.87293E-11 2.97117E-13
7.23943E-11 2.97108E-13
7.61544E-11 2.97099E-13
1.18991E-10 2.96999E-13
1.71347E-10 2.96876E-13
2.33223E-10 2.96731E-13
3.04617E-10 2.96564E-13
3.85531E-10 2.96375E-13
4.75965E-10 2.96164E-13
5.75917E-10 2.95931E-13
6.85389E-10 2.95677E-13
8.04380E-10 2.95400E-13
9.32891E-10 2.95102E-13
1.07092E-09 2.94783E-13
1.21847E-09 2.94442E-13
1.37554E-09 2.94080E-13
1.54213E-09 2.93698E-13
1.71823E-09 2.93294E-13
1.90386E-09 2.92869E-13
2.09900E-09 2.92425E-13
2.30367E-09 2.91959E-13
2.51785E-09 2.91474E-13
2.74156E-09 2.90969E-13
2.97478E-09 2.90444E-13
3.21752E-09 2.89899E-13
3.46978E-09 2.89335E-13
3.73156E-09 2.88752E-13
4.00286E-09 2.88150E-13
4.28368E-09 2.87530E-13
4.57402E-09 2.86891E-13
4.87388E-09 2.86234E-13
5.18326E-09 2.85560E-13
5.50215E-09 2.84867E-13
5.83057E-09 2.84158E-13
6.16850E-09 2.83431E-13
6.51596E-09 2.82687E-13
6.87293E-09 2.81927E-13
7.23942E-09 2.81151E-13
7.61544E-09 2.80359E-13
1.18991E-08 2.71609E-13
1.71347E-08 2.61618E-13
2.33223E-08 2.50694E-13
3.04617E-08 2.39151E-13
3.85531E-08 2.27274E-13
4.75965E-08 2.15314E-13
5.75917E-08 2.03478E-13
6.85389E-08 1.91911E-13
8.04380E-08 1.80760E-13
9.32891E-08 1.70111E-13
1.07092E-07 1.60019E-13
1.21847E-07 1.50511E-13
1.37554E-07 1.41593E-13
1.54213E-07 1.33258E-13
1.71823E-07 1.25485E-13
1.90386E-07 1.18248E-13
2.09900E-07 1.11516E-13
2.30367E-07 1.05253E-13
2.51785E-07 9.94144E-14
2.74156E-07 9.39817E-14
2.97478E-07 8.89227E-14
3.21752E-07 8.42073E-14
3.46978E-07 7.98074E-14
3.73156E-07 7.56971E-14
4.00286E-07 7.18526E-14
4.28368E-07 6.82521E-14
4.57402E-07 6.48761E-14
4.87388E-07 6.17064E-14
5.18325E-07 5.87249E-14
5.50215E-07 5.59124E-14
5.83057E-07 5.32632E-14
6.16850E-07 5.07652E-14
6.51596E-07 4.84074E-14
6.87293E-07 4.61799E-14
7.23942E-07 4.40736E-14
7.61543E-07 4.20803E-14
1.18991E-06 2.65307E-14
1.71347E-06 1.74852E-14
2.33223E-06 1.17536E-14
3.04617E-06 8.04458E-15
3.85531E-06 5.60653E-15
4.75964E-06 3.98114E-15
5.75916E-06 2.88153E-15
6.85388E-06 2.12483E-15
8.04378E-06 1.59825E-15
9.32888E-06 1.22482E-15
1.07092E-05 9.55072E-16
1.21846E-05 7.56686E-16
1.37553E-05 6.08246E-16
1.54212E-05 4.95340E-16
1.71822E-05 4.08123E-16
1.90385E-05 3.39751E-16
2.09899E-05 2.85516E-16
2.30365E-05 2.41918E-16
2.51783E-05 2.06401E-16
2.74153E-05 1.77248E-16
2.97475E-05 1.53110E-16
3.21749E-05 1.32968E-16
3.46974E-05 1.16040E-16
3.73152E-05 1.01718E-16
4.00281E-05 8.95277E-17
4.28362E-05 7.90931E-17
4.57395E-05 7.01164E-17
4.87380E-05 6.23591E-17
5.18317E-05 5.56270E-17
5.50205E-05 4.97612E-17
5.83045E-05 4.46373E-17
6.16838E-05 4.01470E-17
6.51582E-05 3.62000E-17
6.87277E-05 3.27199E-17
7.23925E-05 2.96427E-17
7.61524E-05 2.69140E-17
9.21439E-05 1.86639E-17
1.09658E-04 1.33238E-17
1.28695E-04 9.75919E-18
1.49255E-04 7.30920E-18
1.71338E-04 5.58273E-18
1.94942E-04 4.33813E-18
2.20070E-04 3.42281E-18
2.46720E-04 2.73752E-18
2.74892E-04 2.21608E-18
3.04586E-04 1.81357E-18
3.35803E-04 1.49877E-18
3.68542E-04 1.24962E-18
4.02802E-04 1.05029E-18
4.38585E-04 8.89276E-19
4.75889E-04 7.58046E-19
5.14715E-04 6.50204E-19
5.55063E-04 5.60911E-19
5.96931E-04 4.86456E-19
6.40321E-04 4.23971E-19
6.85233E-04 3.71215E-19
7.31665E-04 3.26421E-19
7.79618E-04 2.88190E-19
8.29092E-04 2.55396E-19
8.80086E-04 2.27137E-19
9.32601E-04 2.02682E-19
9.86636E-04 1.81432E-19
1.04219E-03 1.62897E-19
1.09927E-03 1.46670E-19
1.15786E-03 1.32414E-19
1.21797E-03 1.19850E-19
1.27961E-03 1.08742E-19
1.34276E-03 9.88918E-20
1.40743E-03 9.01325E-20
1.47362E-03 8.23221E-20
1.54133E-03 7.53397E-20
1.61056E-03 6.90827E-20
1.68131E-03 6.34624E-20
1.75357E-03 5.84026E-20
1.82735E-03 5.38375E-20
1.90265E-03 4.97103E-20
1.97947E-03 4.59715E-20
2.05780E-03 4.25781E-20
2.13765E-03 3.94924E-20
2.21902E-03 3.66816E-20
2.30190E-03 3.41167E-20
2.38630E-03 3.17724E-20
2.47222E-03 2.96263E-20
2.55965E-03 2.76587E-20
2.64859E-03 2.58520E-20
2.73905E-03 2.41907E-20
2.83103E-03 2.26610E-20
2.92452E-03 2.12505E-20
3.01952E-03 1.99482E-20
3.11604E-03 1.87445E-20
3.21407E-03 1.76303E-20
3.31362E-03 1.65979E-20
3.41468E-03 1.56401E-20
3.51725E-03 1.47506E-20
3.62133E-03 1.39236E-20
3.72692E-03 1.31538E-20
3.83403E-03 1.24367E-20
3.94265E-03 1.17679E-20
4.05278E-03 1.11436E-20
4.16442E-03 1.05603E-20
4.27757E-03 1.00147E-20
4.39223E-03 9.50401E-21
4.50840E-03 9.02555E-21
4.62608E-03 8.57692E-21
4.74527E-03 8.15590E-21
4.86597E-03 7.76049E-21
4.98817E-03 7.38882E-21
5.11188E-03 7.03921E-21
5.23711E-03 6.71010E-21
5.36383E-03 6.40007E-21
5.49207E-03 6.10780E-21
5.62181E-03 5.83208E-21
5.75306E-03 5.57180E-21
5.88581E-03 5.32593E-21
6.02007E-03 5.09352E-21
6.15583E-03 4.87369E-21
6.29310E-03 4.66564E-21
6.43187E-03 4.46862E-21
6.57214E-03 4.28193E-21
6.71392E-03 4.10492E-21
6.85720E-03 3.93700E-21
7.00198E-03 3.77762E-21
7.14827E-03 3.62625E-21
7.29605E-03 3.48241E-21
7.44534E-03 3.34567E-21
7.59612E-03 3.21560E-21
7.97965E-03 2.91715E-21
8.37255E-03 2.65266E-21
8.77480E-03 2.41760E-21
9.18641E-03 2.20812E-21
9.60736E-03 2.02094E-21
1.00376E-02 1.85326E-21
1.04773E-02 1.70269E-21
1.09262E-02 1.56718E-21
1.13844E-02 1.44494E-21
1.18520E-02 1.33445E-21
1.23288E-02 1.23437E-21
1.28150E-02 1.14355E-21
1.33104E-02 1.06096E-21
1.38150E-02 9.85737E-22
1.43290E-02 9.17095E-22
1.48521E-02 8.54355E-22
1.53845E-02 7.96917E-22
1.59262E-02 7.44250E-22
1.64770E-02 6.95886E-22
1.70371E-02 6.51408E-22
1.76063E-02 6.10446E-22
1.81848E-02 5.72670E-22
1.87724E-02 5.37788E-22
1.93692E-02 5.05536E-22
1.99751E-02 4.75679E-22
2.05901E-02 4.48006E-22
2.12143E-02 4.22328E-22
2.18476E-02 3.98473E-22
2.24900E-02 3.76288E-22
2.31415E-02 3.55635E-22
2.38021E-02 3.36387E-22
2.44717E-02 3.18431E-22
2.51504E-02 3.01665E-22
2.58382E-02 2.85993E-22
2.65349E-02 2.71332E-22
2.72407E-02 2.57604E-22
2.79555E-02 2.44738E-22
2.86793E-02 2.32670E-22
2.94120E-02 2.21341E-22
3.01537E-02 2.10697E-22
3.09043E-02 2.00688E-22
3.16639E-02 1.91271E-22
3.24324E-02 1.82402E-22
3.32098E-02 1.74045E-22
3.39961E-02 1.66163E-22
3.47912E-02 1.58725E-22
3.55952E-02 1.51701E-22
3.64081E-02 1.45063E-22
3.72297E-02 1.38787E-22
3.80602E-02 1.32848E-22
3.88995E-02 1.27225E-22
3.97476E-02 1.21898E-22
4.06044E-02 1.16848E-22
4.14700E-02 1.12059E-22
4.23443E-02 1.07514E-22
4.32273E-02 1.03198E-22
4.41190E-02 9.90978E-23
4.50194E-02 9.52002E-23
4.59284E-02 9.14933E-23
4.68461E-02 8.79660E-23
4.87074E-02 8.14094E-23
5.06030E-02 7.54552E-23
5.25328E-02 7.00380E-23
5.44967E-02 6.51005E-23
5.64946E-02 6.05924E-23
5.85262E-02 5.64694E-23
6.05914E-02 5.26926E-23
6.26901E-02 4.92275E-23
6.48222E-02 4.60436E-23
6.69873E-02 4.31139E-23
6.91854E-02 4.04144E-23
7.14163E-02 3.79234E-23
7.36799E-02 3.56220E-23
7.59760E-02 3.34930E-23
7.83043E-02 3.15211E-23
8.06647E-02 2.96925E-23
8.30571E-02 2.79949E-23
8.54812E-02 2.64170E-23
8.79369E-02 2.49489E-23
9.04240E-02 2.35815E-23
9.29422E-02 2.23066E-23
9.54915E-02 2.11167E-23
9.80716E-02 2.00052E-23
1.00682E-01 1.89658E-23
1.03323E-01 1.79930E-23
1.05995E-01 1.70817E-23
1.08696E-01 1.62273E-23
1.11427E-01 1.54256E-23
1.14188E-01 1.46727E-23
1.16978E-01 1.39651E-23
1.19797E-01 1.32995E-23
1.22645E-01 1.26730E-23
1.25522E-01 1.20828E-23
1.28428E-01 1.15264E-23
1.31361E-01 1.10016E-23
1.34323E-01 1.05061E-23
1.37313E-01 1.00381E-23
1.40330E-01 9.59570E-24
1.43375E-01 9.17725E-24
1.46447E-01 8.78122E-24
1.49545E-01 8.40616E-24
1.52671E-01 8.05077E-24
1.55823E-01 7.71381E-24
1.59001E-01 7.39413E-24
1.62205E-01 7.09070E-24
1.65435E-01 6.80251E-24
1.68690E-01 6.52867E-24
1.71970E-01 6.26832E-24
1.75276E-01 6.02067E-24
1.78606E-01 5.78498E-24
1.81961E-01 5.56057E-24
1.85340E-01 5.34679E-24
1.88743E-01 5.14304E-24
1.92169E-01 4.94876E-24
1.95619E-01 4.76343E-24
1.99092E-01 4.58656E-24
2.02589E-01 4.41768E-24
2.06107E-01 4.25638E-24
2.09649E-01 4.10223E-24
2.13212E-01 3.95487E-24
2.16797E-01 3.81394E-24
2.20404E-01 3.67911E-24
2.24032E-01 3.55005E-24
2.27680E-01 3.42649E-24
2.31350E-01 3.30813E-24
2.35040E-01 3.19473E-24
2.38751E-01 3.08602E-24
2.42481E-01 2.98178E-24
2.46231E-01 2.88180E-24
2.50000E-01 2.78586E-24
2.53788E-01 2.69377E-24
2.57595E-01 2.60534E-24
2.61421E-01 2.52041E-24
2.65264E-01 2.43882E-24
2.69126E-01 2.36039E-24
2.73005E-01 2.28499E-24
2.76901E-01 2.21248E-24
2.80814E-01 2.14273E-24
2.84744E-01 2.07560E-24
2.88691E-01 2.01100E-24
2.92653E-01 1.94879E-24
2.96632E-01 1.88889E-24
3.00625E-01 1.83118E-24
3.04634E-01 1.77557E-24
3.08658E-01 1.72196E-24
3.12697E-01 1.67028E-24
3.16749E-01 1.62045E-24
3.20816E-01 1.57237E-24
3.24896E-01 1.52599E-24
3.28990E-01 1.48122E-24
3.33097E-01 1.43801E-24
3.37216E-01 1.39629E-24
3.41348E-01 1.35599E-24
3.45492E-01 1.31706E-24
3.49647E-01 1.27945E-24
3.53814E-01 1.24310E-24
3.57992E-01 1.20796E-24
3.62181E-01 1.17399E-24
3.66381E-01 1.14113E-24
3.70590E-01 1.10935E-24
3.74810E-01 1.07860E-24
3.79039E-01 1.04885E-24
3.83277E-01 1.02005E-24
3.87524E-01 9.92165E-25
3.91780E-01 9.65169E-25
3.96044E-01 9.39025E-25
4.00316E-01 9.13701E-25
4.04596E-01 8.89165E-25
4.08882E-01 8.65389E-25
4.13176E-01 8.42346E-25
4.17476E-01 8.20008E-25
4.21783E-01 7.98351E-25
4.26095E-01 7.77350E-25
4.30413E-01 7.56981E-25
4.34737E-01 7.37222E-25
4.39065E-01 7.18051E-25
4.43398E-01 6.99448E-25
4.47736E-01 6.81393E-25
4.52077E-01 6.63867E-25
4.56422E-01 6.46852E-25
4.60770E-01 6.30330E-25
4.65122E-01 6.14285E-25
4.69476E-01 5.98699E-25
4.73832E-01 5.83559E-25
4.78190E-01 5.68848E-25
4.82550E-01 5.54553E-25
4.86912E-01 5.40659E-25
4.91274E-01 5.27154E-25
4.95637E-01 5.14025E-25
5.00000E-01 5.01259E-25
5.04363E-01 4.88845E-25
5.08726E-01 4.76771E-25
5.13088E-01 4.65026E-25
5.17450E-01 4.53601E-25
5.21810E-01 4.42484E-25
5.26168E-01 4.31666E-25
5.30524E-01 4.21138E-25
5.34878E-01 4.10890E-25
5.39230E-01 4.00914E-25
5.43578E-01 3.91201E-25
5.47923E-01 3.81744E-25
5.52264E-01 3.72534E-25
5.56602E-01 3.63564E-25
5.60935E-01 3.54827E-25
5.65263E-01 3.46315E-25
5.69587E-01 3.38022E-25
5.73905E-01 3.29941E-25
5.78217E-01 3.22067E-25
5.82524E-01 3.14392E-25
5.86824E-01 3.06911E-25
5.91118E-01 2.99618E-25
5.95404E-01 2.92509E-25
5.99684E-01 2.85576E-25
6.03956E-01 2.78817E-25
6.08220E-01 2.72224E-25
6.12476E-01 2.65794E-25
6.16723E-01 2.59523E-25
6.20961E-01 2.53404E-25
6.25190E-01 2.47435E-25
6.29410E-01 2.41611E-25
6.33619E-01 2.35928E-25
6.37819E-01 2.30382E-25
6.42008E-01 2.24969E-25
6.46186E-01 2.19686E-25
6.50353E-01 2.14528E-25
6.54508E-01 2.09494E-25
6.58652E-01 2.04578E-25
6.62784E-01 1.99779E-25
6.66903E-01 1.95092E-25
6.71010E-01 1.90515E-25
6.75104E-01 1.86045E-25
6.79184E-01 1.81679E-25
6.83251E-01 1.77415E-25
6.87303E-01 1.73249E-25
6.91342E-01 1.69179E-25
6.95366E-01 1.65203E-25
6.99375E-01 1.61318E-25
7.03368E-01 1.57522E-25
7.07347E-01 1.53812E-25
7.11309E-01 1.50186E-25
7.15256E-01 1.46643E-25
7.19186E-01 1.43180E-25
7.23099E-01 1.39794E-25
7.26995E-01 1.36485E-25
7.30874E-01 1.33250E-25
7.34736E-01 1.30087E-25
7.38579E-01 1.26995E-25
7.42405E-01 1.23971E-25
7.46212E-01 1.21015E-25
7.50000E-01 1.18123E-25
7.53769E-01 1.15296E-25
7.57519E-01 1.12531E-25
7.61249E-01 1.09827E-25
7.64960E-01 1.07182E-25
7.68650E-01 1.04595E-25
7.72320E-01 1.02064E-25
7.75968E-01 9.95888E-26
7.79596E-01 9.71672E-26
7.83203E-01 9.47983E-26
7.86788E-01 9.24807E-26
7.90351E-01 9.02133E-26
7.93893E-01 8.79948E-26
7.97411E-01 8.58243E-26
8.00908E-01 8.37005E-26
8.04381E-01 8.16225E-26
8.07831E-01 7.95891E-26
8.11257E-01 7.75993E-26
8.14660E-01 7.56523E-26
8.18039E-01 7.37469E-26
8.21394E-01 7.18823E-26
8.24724E-01 7.00577E-26
8.28030E-01 6.82720E-26
8.31310E-01 6.65244E-26
8.34565E-01 6.48142E-26
8.37795E-01 6.31405E-26
8.40999E-01 6.15024E-26
8.44177E-01 5.98994E-26
8.47329E-01 5.83305E-26
8.50455E-01 5.67951E-26
8.53553E-01 5.52924E-26
8.56625E-01 5.38218E-26
8.59670E-01 5.23826E-26
8.62687E-01 5.09742E-26
8.65677E-01 4.95959E-26
8.68639E-01 4.82471E-26
8.71572E-01 4.69271E-26
8.74478E-01 4.56355E-26
8.77355E-01 4.43716E-26
8.80203E-01 4.31349E-26
8.83022E-01 4.19248E-26
8.85812E-01 4.07408E-26
8.88573E-01 3.95824E-26
8.91304E-01 3.84492E-26
8.94005E-01 3.73405E-26
8.96677E-01 3.62560E-26
8.99318E-01 3.51951E-26
9.01928E-01 3.41575E-26
9.04508E-01 3.31427E-26
9.07058E-01 3.21502E-26
9.09576E-01 3.11797E-26
9.12063E-01 3.02307E-26
9.14519E-01 2.93029E-26
9.16943E-01 2.83959E-26
9.19335E-01 2.75092E-26
9.21696E-01 2.66426E-26
9.24024E-01 2.57957E-26
9.26320E-01 2.49681E-26
9.28584E-01 2.41596E-26
9.30815E-01 2.33697E-26
9.33013E-01 2.25981E-26
9.35178E-01 2.18447E-26
9.37310E-01 2.11090E-26
9.39409E-01 2.03907E-26
9.41474E-01 1.96897E-26
9.43505E-01 1.90055E-26
9.45503E-01 1.83380E-26
9.47467E-01 1.76869E-26
9.49397E-01 1.70519E-26
9.51293E-01 1.64328E-26
9.53154E-01 1.58293E-26
9.54981E-01 1.52412E-26
9.56773E-01 1.46683E-26
9.58530E-01 1.41104E-26
9.60252E-01 1.35672E-26
9.61940E-01 1.30386E-26
9.63592E-01 1.25243E-26
9.65209E-01 1.20241E-26
9.66790E-01 1.15379E-26
9.68336E-01 1.10655E-26
9.69846E-01 1.06067E-26
9.71321E-01 1.01613E-26
9.72759E-01 9.72919E-27
9.74162E-01 9.31016E-27
9.75528E-01 8.90408E-27
9.76858E-01 8.51080E-27
9.78152E-01 8.13016E-27
9.79410E-01 7.76204E-27
9.80631E-01 7.40628E-27
9.81815E-01 7.06277E-27
9.82963E-01 6.73138E-27
9.84074E-01 6.41198E-27
9.85148E-01 6.10447E-27
9.86185E-01 5.80872E-27
9.87185E-01 5.52463E-27
9.88148E-01 5.25209E-27
9.89074E-01 4.99102E-27
9.89962E-01 4.74131E-27
9.90814E-01 4.50287E-27
9.91627E-01 4.27562E-27
9.92404E-01 4.05948E-27
9.93143E-01 3.85436E-27
9.93844E-01 3.66020E-27
9.94508E-01 3.47692E-27
9.95134E-01 3.30447E-27
9.95722E-01 3.14277E-27
9.96273E-01 2.99177E-27
9.96786E-01 2.85141E-27
9.97261E-01 2.72166E-27
9.97698E-01 2.60245E-27
9.98097E-01 2.49375E-27
9.98459E-01 2.39552E-27
9.98782E-01 2.30772E-27
9.99067E-01 2.23032E-27
9.99315E-01 2.16330E-27
9.99524E-01 2.10663E-27
9.99695E-01 2.06029E-27
9.99829E-01 2.02427E-27
9.99924E-01 1.99854E-27
9.99981E-01 1.98311E-27
1.00000E+00 1.97797E-27
