 #
 # Subroutine ELSEPA. Elastic scattering of electrons and positrons
 #                    by neutral atoms and positive ions
 #
 # Projectile: electron
 # Kinetic energy = 9.00000E+08 eV = 3.30744E+07 a.u.
 #
 # WARNING: High-energy factorization with free-atom DF screening.
 #          Absorption, polarization and exchange corrections are
 #          switched off.
 #          Phase shifts are calculated for the bare nucleus.
 #          Scattering amplitudes are not evaluated.
 #
 # Element: Cu,  Z =  29,  atomic weight = 6.35460E+01 g/mol
 #
 # Nuclear model: Fermi distribution
 #                Average radius = 4.26986E-13 cm
 #                Skin thickness = 5.46000E-14 cm
 #
 # Number of electrons = 29
 #
 # Total elastic cross section = 1.83345E-18 cm**2 = 6.54736E-02 a0**2
 # 1st transport cross section = 2.13311E-27 cm**2 = 7.61749E-11 a0**2
 # 2nd transport cross section = 6.39840E-27 cm**2 = 2.28491E-10 a0**2
 #
 #
 # Differential cross section:                       MU=(1-COS(THETA))/2
 #
 #  THETA        MU          DCS          DCS        Sherman      error
 #  (deg)                 (cm**2/sr)   (a0**2/sr)    function
 #----------------------------------------------------------------------
0.00000E+00 9.60046E-09
7.61557E-13 8.01244E-09
1.18994E-12 7.32624E-09
1.71346E-12 6.63095E-09
2.33225E-12 5.96209E-09
3.04617E-12 5.34357E-09
3.85530E-12 4.78377E-09
4.75964E-12 4.28568E-09
5.75917E-12 3.84728E-09
6.85391E-12 3.46122E-09
8.04379E-12 3.12285E-09
9.32893E-12 2.82593E-09
1.07092E-11 2.56321E-09
1.21847E-11 2.33129E-09
1.37554E-11 2.12534E-09
1.54213E-11 1.94117E-09
1.71823E-11 1.77667E-09
1.90386E-11 1.62868E-09
2.09900E-11 1.49514E-09
2.30367E-11 1.37468E-09
2.51785E-11 1.26520E-09
2.74156E-11 1.16578E-09
2.97478E-11 1.06878E-09
3.21752E-11 9.80090E-10
3.46979E-11 9.02947E-10
3.73157E-11 8.35531E-10
4.00286E-11 7.76347E-10
4.28368E-11 7.24165E-10
4.57402E-11 6.71382E-10
4.87388E-11 6.19372E-10
5.18325E-11 5.73389E-10
5.50215E-11 5.32581E-10
5.83057E-11 4.96239E-10
6.16850E-11 4.63765E-10
6.51595E-11 4.32088E-10
6.87293E-11 4.00643E-10
7.23943E-11 3.72472E-10
7.61544E-11 3.47160E-10
1.18991E-10 1.78746E-10
1.71347E-10 9.76618E-11
2.33223E-10 5.68628E-11
3.04617E-10 3.52223E-11
3.85531E-10 2.30211E-11
4.75965E-10 1.57565E-11
5.75917E-10 1.12022E-11
6.85389E-10 8.20999E-12
8.04380E-10 6.16764E-12
9.32891E-10 4.72922E-12
1.07092E-09 3.68686E-12
1.21847E-09 2.91621E-12
1.37554E-09 2.33510E-12
1.54213E-09 1.88969E-12
1.71823E-09 1.54439E-12
1.90386E-09 1.27335E-12
2.09900E-09 1.05842E-12
2.30367E-09 8.86465E-13
2.51785E-09 7.47558E-13
2.74156E-09 6.34529E-13
2.97478E-09 5.41673E-13
3.21752E-09 4.65225E-13
3.46978E-09 4.01888E-13
3.73156E-09 3.48722E-13
4.00286E-09 3.04169E-13
4.28368E-09 2.66422E-13
4.57402E-09 2.34365E-13
4.87388E-09 2.07007E-13
5.18326E-09 1.83502E-13
5.50215E-09 1.63276E-13
5.83057E-09 1.45741E-13
6.16850E-09 1.30515E-13
6.51596E-09 1.17233E-13
6.87293E-09 1.05599E-13
7.23942E-09 9.53882E-14
7.61544E-09 8.63743E-14
1.18991E-08 3.60256E-14
1.71347E-08 1.76139E-14
2.33223E-08 9.60337E-15
3.04617E-08 5.66992E-15
3.85531E-08 3.55798E-15
4.75965E-08 2.34309E-15
5.75917E-08 1.60472E-15
6.85389E-08 1.13534E-15
8.04380E-08 8.25548E-16
9.32891E-08 6.14489E-16
1.07092E-07 4.66723E-16
1.21847E-07 3.60793E-16
1.37554E-07 2.83266E-16
1.54213E-07 2.25478E-16
1.71823E-07 1.81697E-16
1.90386E-07 1.48040E-16
2.09900E-07 1.21826E-16
2.30367E-07 1.01163E-16
2.51785E-07 8.47007E-17
2.74156E-07 7.14538E-17
2.97478E-07 6.06978E-17
3.21752E-07 5.18913E-17
3.46978E-07 4.46253E-17
3.73156E-07 3.85875E-17
4.00286E-07 3.35371E-17
4.28368E-07 2.92864E-17
4.57402E-07 2.56883E-17
4.87388E-07 2.26261E-17
5.18325E-07 2.00069E-17
5.50215E-07 1.77560E-17
5.83057E-07 1.58128E-17
6.16850E-07 1.41284E-17
6.51596E-07 1.26623E-17
6.87293E-07 1.13816E-17
7.23942E-07 1.02588E-17
7.61543E-07 9.27108E-18
1.18991E-06 3.79848E-18
1.71347E-06 1.83220E-18
2.33223E-06 9.89140E-19
3.04617E-06 5.79903E-19
3.85531E-06 3.62082E-19
4.75964E-06 2.37595E-19
5.75916E-06 1.62302E-19
6.85388E-06 1.14611E-19
8.04378E-06 8.32213E-20
9.32888E-06 6.18803E-20
1.07092E-05 4.69629E-20
1.21846E-05 3.62824E-20
1.37553E-05 2.84731E-20
1.54212E-05 2.26566E-20
1.71822E-05 1.82526E-20
1.90385E-05 1.48676E-20
2.09899E-05 1.22347E-20
2.30365E-05 1.01595E-20
2.51783E-05 8.50581E-21
2.74153E-05 7.17504E-21
2.97475E-05 6.09450E-21
3.21749E-05 5.20994E-21
3.46974E-05 4.48033E-21
3.73152E-05 3.87423E-21
4.00281E-05 3.36737E-21
4.28362E-05 2.94083E-21
4.57395E-05 2.57976E-21
4.87380E-05 2.27243E-21
5.18317E-05 2.00952E-21
5.50205E-05 1.78353E-21
5.83045E-05 1.58843E-21
6.16838E-05 1.41931E-21
6.51582E-05 1.27213E-21
6.87277E-05 1.14357E-21
7.23925E-05 1.03086E-21
7.61524E-05 9.11870E-22
9.21439E-05 6.19643E-22
1.09658E-04 4.34967E-22
1.28695E-04 3.13757E-22
1.49255E-04 2.31590E-22
1.71338E-04 1.74358E-22
1.94942E-04 1.33534E-22
2.20070E-04 1.03809E-22
2.46720E-04 8.17711E-23
2.74892E-04 6.51663E-23
3.04586E-04 5.24763E-23
3.35803E-04 4.26522E-23
3.68542E-04 3.49590E-23
4.02802E-04 2.88709E-23
4.38585E-04 2.40072E-23
4.75889E-04 2.00879E-23
5.14715E-04 1.69043E-23
5.55063E-04 1.42996E-23
5.96931E-04 1.21542E-23
6.40321E-04 1.03761E-23
6.85233E-04 8.89405E-24
7.31665E-04 7.65214E-24
7.79618E-04 6.60637E-24
8.29092E-04 5.72170E-24
8.80086E-04 4.97015E-24
9.32601E-04 4.32913E-24
9.86636E-04 3.78036E-24
1.04219E-03 3.30894E-24
1.09927E-03 2.90265E-24
1.15786E-03 2.55142E-24
1.21797E-03 2.24693E-24
1.27961E-03 1.98225E-24
1.34276E-03 1.75160E-24
1.40743E-03 1.55013E-24
1.47362E-03 1.37376E-24
1.54133E-03 1.21905E-24
1.61056E-03 1.08306E-24
1.68131E-03 9.63322E-25
1.75357E-03 8.57702E-25
1.82735E-03 7.64388E-25
1.90265E-03 6.81822E-25
1.97947E-03 6.08662E-25
2.05780E-03 5.43750E-25
2.13765E-03 4.86084E-25
2.21902E-03 4.34797E-25
2.30190E-03 3.89132E-25
2.38630E-03 3.48433E-25
2.47222E-03 3.12125E-25
2.55965E-03 2.79706E-25
2.64859E-03 2.50735E-25
2.73905E-03 2.24828E-25
2.83103E-03 2.01643E-25
2.92452E-03 1.80882E-25
3.01952E-03 1.62281E-25
3.11604E-03 1.45605E-25
3.21407E-03 1.30650E-25
3.31362E-03 1.17231E-25
3.41468E-03 1.05187E-25
3.51725E-03 9.43723E-26
3.62133E-03 8.46598E-26
3.72692E-03 7.59350E-26
3.83403E-03 6.80959E-26
3.94265E-03 6.10515E-26
4.05278E-03 5.47209E-26
4.16442E-03 4.90312E-26
4.27757E-03 4.39176E-26
4.39223E-03 3.93219E-26
4.50840E-03 3.51920E-26
4.62608E-03 3.14810E-26
4.74527E-03 2.81471E-26
4.86597E-03 2.51524E-26
4.98817E-03 2.24631E-26
5.11188E-03 2.00488E-26
5.23711E-03 1.78820E-26
5.36383E-03 1.59381E-26
5.49207E-03 1.41949E-26
5.62181E-03 1.26323E-26
5.75306E-03 1.12324E-26
5.88581E-03 9.97883E-27
6.02007E-03 8.85705E-27
6.15583E-03 7.85382E-27
6.29310E-03 6.95724E-27
6.43187E-03 6.15655E-27
6.57214E-03 5.44207E-27
6.71392E-03 4.80506E-27
6.85720E-03 4.23763E-27
7.00198E-03 3.73268E-27
7.14827E-03 3.28379E-27
7.29605E-03 2.88516E-27
7.44534E-03 2.53158E-27
7.59612E-03 2.21835E-27
7.97965E-03 1.58500E-27
8.37255E-03 1.12287E-27
8.77480E-03 7.89226E-28
9.18641E-03 5.51290E-28
9.60736E-03 3.84036E-28
1.00376E-02 2.68447E-28
1.04773E-02 1.90155E-28
1.09262E-02 1.38383E-28
1.13844E-02 1.05118E-28
1.18520E-02 8.44665E-29
1.23288E-02 7.21457E-29
1.28150E-02 6.50963E-29
1.33104E-02 6.11758E-29
1.38150E-02 5.89235E-29
1.43290E-02 5.73800E-29
1.48521E-02 5.59477E-29
1.53845E-02 5.42859E-29
1.59262E-02 5.22317E-29
1.64770E-02 4.97400E-29
1.70371E-02 4.68409E-29
1.76063E-02 4.36079E-29
1.81848E-02 4.01355E-29
1.87724E-02 3.65244E-29
1.93692E-02 3.28712E-29
1.99751E-02 2.92622E-29
2.05901E-02 2.57707E-29
2.12143E-02 2.24549E-29
2.18476E-02 1.93583E-29
2.24900E-02 1.65107E-29
2.31415E-02 1.39296E-29
2.38021E-02 1.16219E-29
2.44717E-02 9.58558E-30
2.51504E-02 7.81184E-30
2.58382E-02 6.28657E-30
2.65349E-02 4.99192E-30
2.72407E-02 3.90764E-30
2.79555E-02 3.01218E-30
2.86793E-02 2.28363E-30
2.94120E-02 1.70042E-30
3.01537E-02 1.24193E-30
3.09043E-02 8.88826E-31
3.16639E-02 6.23403E-31
3.24324E-02 4.29694E-31
3.32098E-02 2.93559E-31
3.39961E-02 2.02678E-31
3.47912E-02 1.46496E-31
3.55952E-02 1.16119E-31
3.64081E-02 1.04187E-31
3.72297E-02 1.04726E-31
3.80602E-02 1.12994E-31
3.88995E-02 1.25326E-31
3.97476E-02 1.38976E-31
4.06044E-02 1.51976E-31
4.14700E-02 1.62994E-31
4.23443E-02 1.71218E-31
4.32273E-02 1.76243E-31
4.41190E-02 1.77971E-31
4.50194E-02 1.76538E-31
4.59284E-02 1.72234E-31
4.68461E-02 1.65453E-31
4.87074E-02 1.46270E-31
5.06030E-02 1.22647E-31
5.25328E-02 9.78312E-32
5.44967E-02 7.42935E-32
5.64946E-02 5.36377E-32
5.85262E-02 3.66762E-32
6.05914E-02 2.35921E-32
6.26901E-02 1.41271E-32
6.48222E-02 7.75861E-33
6.69873E-02 3.84700E-33
6.91854E-02 1.74488E-33
7.14163E-02 8.68261E-34
7.36799E-02 7.35451E-34
7.59760E-02 9.80448E-34
7.83043E-02 1.34871E-33
8.06647E-02 1.68214E-33
8.30571E-02 1.89892E-33
8.54812E-02 1.97239E-33
8.79369E-02 1.91176E-33
9.04240E-02 1.74599E-33
9.29422E-02 1.51177E-33
9.54915E-02 1.24510E-33
9.80716E-02 9.76381E-34
1.00682E-01 7.28104E-34
1.03323E-01 5.14434E-34
1.05995E-01 3.42076E-34
1.08696E-01 2.11786E-34
1.11427E-01 1.20117E-34
1.14188E-01 6.10936E-35
1.16978E-01 2.76320E-35
1.19797E-01 1.26268E-35
1.22645E-01 9.68329E-36
1.25522E-01 1.35342E-35
1.28428E-01 2.01966E-35
1.31361E-01 2.69401E-35
1.34323E-01 3.21314E-35
1.37313E-01 3.50149E-35
1.40330E-01 3.54743E-35
1.43375E-01 3.38078E-35
1.46447E-01 3.05367E-35
1.49545E-01 2.62574E-35
1.52671E-01 2.15369E-35
1.55823E-01 1.68493E-35
1.59001E-01 1.25456E-35
1.62205E-01 8.84876E-36
1.65435E-01 5.86548E-36
1.68690E-01 3.60827E-36
1.71970E-01 2.02122E-36
1.75276E-01 1.00547E-36
1.78606E-01 4.41716E-37
1.81961E-01 2.07960E-37
1.85340E-01 1.92140E-37
1.88743E-01 2.99905E-37
1.92169E-01 4.58117E-37
1.95619E-01 6.15142E-37
1.99092E-01 7.38857E-37
2.02589E-01 8.13339E-37
2.06107E-01 8.34993E-37
2.09649E-01 8.08684E-37
2.13212E-01 7.44287E-37
2.16797E-01 6.53852E-37
2.20404E-01 5.49473E-37
2.24032E-01 4.41851E-37
2.27680E-01 3.39474E-37
2.31350E-01 2.48297E-37
2.35040E-01 1.71809E-37
2.38751E-01 1.11341E-37
2.42481E-01 6.65226E-38
2.46231E-01 3.57867E-38
2.50000E-01 1.00000E-45
2.53788E-01 1.00000E-45
2.57595E-01 1.00000E-45
2.61421E-01 1.00000E-45
2.65264E-01 1.00000E-45
2.69126E-01 1.00000E-45
2.73005E-01 1.00000E-45
2.76901E-01 1.00000E-45
2.80814E-01 1.00000E-45
2.84744E-01 1.00000E-45
2.88691E-01 1.00000E-45
2.92653E-01 1.00000E-45
2.96632E-01 1.00000E-45
3.00625E-01 1.00000E-45
3.04634E-01 1.00000E-45
3.08658E-01 1.00000E-45
3.12697E-01 1.00000E-45
3.16749E-01 1.00000E-45
3.20816E-01 1.00000E-45
3.24896E-01 1.00000E-45
3.28990E-01 1.00000E-45
3.33097E-01 1.00000E-45
3.37216E-01 1.00000E-45
3.41348E-01 1.00000E-45
3.45492E-01 1.00000E-45
3.49647E-01 1.00000E-45
3.53814E-01 1.00000E-45
3.57992E-01 1.00000E-45
3.62181E-01 1.00000E-45
3.66381E-01 1.00000E-45
3.70590E-01 1.00000E-45
3.74810E-01 1.00000E-45
3.79039E-01 1.00000E-45
3.83277E-01 1.00000E-45
3.87524E-01 1.00000E-45
3.91780E-01 1.00000E-45
3.96044E-01 1.00000E-45
4.00316E-01 1.00000E-45
4.04596E-01 1.00000E-45
4.08882E-01 1.00000E-45
4.13176E-01 1.00000E-45
4.17476E-01 1.00000E-45
4.21783E-01 1.00000E-45
4.26095E-01 1.00000E-45
4.30413E-01 1.00000E-45
4.34737E-01 1.00000E-45
4.39065E-01 1.00000E-45
4.43398E-01 1.00000E-45
4.47736E-01 1.00000E-45
4.52077E-01 1.00000E-45
4.56422E-01 1.00000E-45
4.60770E-01 1.00000E-45
4.65122E-01 1.00000E-45
4.69476E-01 1.00000E-45
4.73832E-01 1.00000E-45
4.78190E-01 1.00000E-45
4.82550E-01 1.00000E-45
4.86912E-01 1.00000E-45
4.91274E-01 1.00000E-45
4.95637E-01 1.00000E-45
5.00000E-01 1.00000E-45
5.04363E-01 1.00000E-45
5.08726E-01 1.00000E-45
5.13088E-01 1.00000E-45
5.17450E-01 1.00000E-45
5.21810E-01 1.00000E-45
5.26168E-01 1.00000E-45
5.30524E-01 1.00000E-45
5.34878E-01 1.00000E-45
5.39230E-01 1.00000E-45
5.43578E-01 1.00000E-45
5.47923E-01 1.00000E-45
5.52264E-01 1.00000E-45
5.56602E-01 1.00000E-45
5.60935E-01 1.00000E-45
5.65263E-01 1.00000E-45
5.69587E-01 1.00000E-45
5.73905E-01 1.00000E-45
5.78217E-01 1.00000E-45
5.82524E-01 1.00000E-45
5.86824E-01 1.00000E-45
5.91118E-01 1.00000E-45
5.95404E-01 1.00000E-45
5.99684E-01 1.00000E-45
6.03956E-01 1.00000E-45
6.08220E-01 1.00000E-45
6.12476E-01 1.00000E-45
6.16723E-01 1.00000E-45
6.20961E-01 1.00000E-45
6.25190E-01 1.00000E-45
6.29410E-01 1.00000E-45
6.33619E-01 1.00000E-45
6.37819E-01 1.00000E-45
6.42008E-01 1.00000E-45
6.46186E-01 1.00000E-45
6.50353E-01 1.00000E-45
6.54508E-01 1.00000E-45
6.58652E-01 1.00000E-45
6.62784E-01 1.00000E-45
6.66903E-01 1.00000E-45
6.71010E-01 1.00000E-45
6.75104E-01 1.00000E-45
6.79184E-01 1.00000E-45
6.83251E-01 1.00000E-45
6.87303E-01 1.00000E-45
6.91342E-01 1.00000E-45
6.95366E-01 1.00000E-45
6.99375E-01 1.00000E-45
7.03368E-01 1.00000E-45
7.07347E-01 1.00000E-45
7.11309E-01 1.00000E-45
7.15256E-01 1.00000E-45
7.19186E-01 1.00000E-45
7.23099E-01 1.00000E-45
7.26995E-01 1.00000E-45
7.30874E-01 1.00000E-45
7.34736E-01 1.00000E-45
7.38579E-01 1.00000E-45
7.42405E-01 1.00000E-45
7.46212E-01 1.00000E-45
7.50000E-01 1.00000E-45
7.53769E-01 1.00000E-45
7.57519E-01 1.00000E-45
7.61249E-01 1.00000E-45
7.64960E-01 1.00000E-45
7.68650E-01 1.00000E-45
7.72320E-01 1.00000E-45
7.75968E-01 1.00000E-45
7.79596E-01 1.00000E-45
7.83203E-01 1.00000E-45
7.86788E-01 1.00000E-45
7.90351E-01 1.00000E-45
7.93893E-01 1.00000E-45
7.97411E-01 1.00000E-45
8.00908E-01 1.00000E-45
8.04381E-01 1.00000E-45
8.07831E-01 1.00000E-45
8.11257E-01 1.00000E-45
8.14660E-01 1.00000E-45
8.18039E-01 1.00000E-45
8.21394E-01 1.00000E-45
8.24724E-01 1.00000E-45
8.28030E-01 1.00000E-45
8.31310E-01 1.00000E-45
8.34565E-01 1.00000E-45
8.37795E-01 1.00000E-45
8.40999E-01 1.00000E-45
8.44177E-01 1.00000E-45
8.47329E-01 1.00000E-45
8.50455E-01 1.00000E-45
8.53553E-01 1.00000E-45
8.56625E-01 1.00000E-45
8.59670E-01 1.00000E-45
8.62687E-01 1.00000E-45
8.65677E-01 1.00000E-45
8.68639E-01 1.00000E-45
8.71572E-01 1.00000E-45
8.74478E-01 1.00000E-45
8.77355E-01 1.00000E-45
8.80203E-01 1.00000E-45
8.83022E-01 1.00000E-45
8.85812E-01 1.00000E-45
8.88573E-01 1.00000E-45
8.91304E-01 1.00000E-45
8.94005E-01 1.00000E-45
8.96677E-01 1.00000E-45
8.99318E-01 1.00000E-45
9.01928E-01 1.00000E-45
9.04508E-01 1.00000E-45
9.07058E-01 1.00000E-45
9.09576E-01 1.00000E-45
9.12063E-01 1.00000E-45
9.14519E-01 1.00000E-45
9.16943E-01 1.00000E-45
9.19335E-01 1.00000E-45
9.21696E-01 1.00000E-45
9.24024E-01 1.00000E-45
9.26320E-01 1.00000E-45
9.28584E-01 1.00000E-45
9.30815E-01 1.00000E-45
9.33013E-01 1.00000E-45
9.35178E-01 1.00000E-45
9.37310E-01 1.00000E-45
9.39409E-01 1.00000E-45
9.41474E-01 1.00000E-45
9.43505E-01 1.00000E-45
9.45503E-01 1.00000E-45
9.47467E-01 1.00000E-45
9.49397E-01 1.00000E-45
9.51293E-01 1.00000E-45
9.53154E-01 1.00000E-45
9.54981E-01 1.00000E-45
9.56773E-01 1.00000E-45
9.58530E-01 1.00000E-45
9.60252E-01 1.00000E-45
9.61940E-01 1.00000E-45
9.63592E-01 1.00000E-45
9.65209E-01 1.00000E-45
9.66790E-01 1.00000E-45
9.68336E-01 1.00000E-45
9.69846E-01 1.00000E-45
9.71321E-01 1.00000E-45
9.72759E-01 1.00000E-45
9.74162E-01 1.00000E-45
9.75528E-01 1.00000E-45
9.76858E-01 1.00000E-45
9.78152E-01 1.00000E-45
9.79410E-01 1.00000E-45
9.80631E-01 1.00000E-45
9.81815E-01 1.00000E-45
9.82963E-01 1.00000E-45
9.84074E-01 1.00000E-45
9.85148E-01 1.00000E-45
9.86185E-01 1.00000E-45
9.87185E-01 1.00000E-45
9.88148E-01 1.00000E-45
9.89074E-01 1.00000E-45
9.89962E-01 1.00000E-45
9.90814E-01 1.00000E-45
9.91627E-01 1.00000E-45
9.92404E-01 1.00000E-45
9.93143E-01 1.00000E-45
9.93844E-01 1.00000E-45
9.94508E-01 1.00000E-45
9.95134E-01 1.00000E-45
9.95722E-01 1.00000E-45
9.96273E-01 1.00000E-45
9.96786E-01 1.00000E-45
9.97261E-01 1.00000E-45
9.97698E-01 1.00000E-45
9.98097E-01 1.00000E-45
9.98459E-01 1.00000E-45
9.98782E-01 1.00000E-45
9.99067E-01 1.00000E-45
9.99315E-01 1.00000E-45
9.99524E-01 1.00000E-45
9.99695E-01 1.00000E-45
9.99829E-01 1.00000E-45
9.99924E-01 1.00000E-45
9.99981E-01 1.00000E-45
1.00000E+00 1.00000E-45
