 #
 # Subroutine ELSEPA. Elastic scattering of electrons and positrons
 #                    by neutral atoms and positive ions
 #
 # Projectile: electron
 # Kinetic energy = 1.25000E+08 eV = 4.59367E+06 a.u.
 #
 # WARNING: High-energy factorization with free-atom DF screening.
 #          Absorption, polarization and exchange corrections are
 #          switched off.
 #          Phase shifts are calculated for the bare nucleus.
 #          Scattering amplitudes are not evaluated.
 #
 # Element: Cu,  Z =  29,  atomic weight = 6.35460E+01 g/mol
 #
 # Nuclear model: Fermi distribution
 #                Average radius = 4.26986E-13 cm
 #                Skin thickness = 5.46000E-14 cm
 #
 # Number of electrons = 29
 #
 # Total elastic cross section = 1.84127E-18 cm**2 = 6.57530E-02 a0**2
 # 1st transport cross section = 1.09729E-25 cm**2 = 3.91851E-09 a0**2
 # 2nd transport cross section = 3.27057E-25 cm**2 = 1.16794E-08 a0**2
 #
 #
 # Differential cross section:                       MU=(1-COS(THETA))/2
 #
 #  THETA        MU          DCS          DCS        Sherman      error
 #  (deg)                 (cm**2/sr)   (a0**2/sr)    function
 #----------------------------------------------------------------------
0.00000E+00 1.86500E-10
7.61557E-13 1.85789E-10
1.18994E-12 1.85392E-10
1.71346E-12 1.84909E-10
2.33225E-12 1.84341E-10
3.04617E-12 1.83690E-10
3.85530E-12 1.82958E-10
4.75964E-12 1.82147E-10
5.75917E-12 1.81257E-10
6.85391E-12 1.80293E-10
8.04379E-12 1.79256E-10
9.32893E-12 1.78148E-10
1.07092E-11 1.76973E-10
1.21847E-11 1.75733E-10
1.37554E-11 1.74432E-10
1.54213E-11 1.73067E-10
1.71823E-11 1.71645E-10
1.90386E-11 1.70175E-10
2.09900E-11 1.68660E-10
2.30367E-11 1.67102E-10
2.51785E-11 1.65485E-10
2.74156E-11 1.63834E-10
2.97478E-11 1.62152E-10
3.21752E-11 1.60444E-10
3.46979E-11 1.58689E-10
3.73157E-11 1.56908E-10
4.00286E-11 1.55109E-10
4.28368E-11 1.53297E-10
4.57402E-11 1.51461E-10
4.87388E-11 1.49596E-10
5.18325E-11 1.47727E-10
5.50215E-11 1.45856E-10
5.83057E-11 1.43986E-10
6.16850E-11 1.42082E-10
6.51595E-11 1.40185E-10
6.87293E-11 1.38295E-10
7.23943E-11 1.36416E-10
7.61544E-11 1.34525E-10
1.18991E-10 1.16213E-10
1.71347E-10 9.97189E-11
2.33223E-10 8.55179E-11
3.04617E-10 7.35408E-11
3.85531E-10 6.35565E-11
4.75965E-10 5.52325E-11
5.75917E-10 4.82439E-11
6.85389E-10 4.23366E-11
8.04380E-10 3.73127E-11
9.32891E-10 3.30062E-11
1.07092E-09 2.92774E-11
1.21847E-09 2.60423E-11
1.37554E-09 2.32208E-11
1.54213E-09 2.06014E-11
1.71823E-09 1.82924E-11
1.90386E-09 1.63855E-11
2.09900E-09 1.47965E-11
2.30367E-09 1.34131E-11
2.51785E-09 1.19788E-11
2.74156E-09 1.07704E-11
2.97478E-09 9.74510E-12
3.21752E-09 8.86928E-12
3.46978E-09 8.00032E-12
3.73156E-09 7.22275E-12
4.00286E-09 6.55291E-12
4.28368E-09 5.97280E-12
4.57402E-09 5.43910E-12
4.87388E-09 4.93363E-12
5.18326E-09 4.49252E-12
5.50215E-09 4.10592E-12
5.83057E-09 3.76490E-12
6.16850E-09 3.43293E-12
6.51596E-09 3.13995E-12
6.87293E-09 2.88047E-12
7.23942E-09 2.64990E-12
7.61544E-09 2.43476E-12
1.18991E-08 1.12241E-12
1.71347E-08 5.82994E-13
2.33223E-08 3.34527E-13
3.04617E-08 2.07317E-13
3.85531E-08 1.36148E-13
4.75965E-08 9.33589E-14
5.75917E-08 6.61819E-14
6.85389E-08 4.81661E-14
8.04380E-08 3.58270E-14
9.32891E-08 2.71521E-14
1.07092E-07 2.09163E-14
1.21847E-07 1.63523E-14
1.37554E-07 1.29546E-14
1.54213E-07 1.03824E-14
1.71823E-07 8.41922E-15
1.90386E-07 6.89473E-15
2.09900E-07 5.70145E-15
2.30367E-07 4.75273E-15
2.51785E-07 3.99457E-15
2.74156E-07 3.38145E-15
2.97478E-07 2.88191E-15
3.21752E-07 2.47157E-15
3.46978E-07 2.13180E-15
3.73156E-07 1.84885E-15
4.00286E-07 1.61126E-15
4.28368E-07 1.41090E-15
4.57402E-07 1.24078E-15
4.87388E-07 1.09565E-15
5.18325E-07 9.71224E-16
5.50215E-07 8.63971E-16
5.83057E-07 7.71221E-16
6.16850E-07 6.90555E-16
6.51596E-07 6.20230E-16
6.87293E-07 5.58629E-16
7.23942E-07 5.04507E-16
7.61543E-07 4.56800E-16
1.18991E-06 1.89967E-16
1.71347E-06 9.24983E-17
2.33223E-06 5.02345E-17
3.04617E-06 2.95637E-17
3.85531E-06 1.85059E-17
4.75964E-06 1.21644E-17
5.75916E-06 8.31966E-18
6.85388E-06 5.88014E-18
8.04378E-06 4.27243E-18
9.32888E-06 3.17836E-18
1.07092E-05 2.41305E-18
1.21846E-05 1.86481E-18
1.37553E-05 1.46377E-18
1.54212E-05 1.16497E-18
1.71822E-05 9.38663E-19
1.90385E-05 7.64682E-19
2.09899E-05 6.29328E-19
2.30365E-05 5.22629E-19
2.51783E-05 4.37594E-19
2.74153E-05 3.69154E-19
2.97475E-05 3.13578E-19
3.21749E-05 2.68078E-19
3.46974E-05 2.30545E-19
3.73152E-05 1.99364E-19
4.00281E-05 1.73287E-19
4.28362E-05 1.51341E-19
4.57395E-05 1.32763E-19
4.87380E-05 1.16950E-19
5.18317E-05 1.03421E-19
5.50205E-05 9.17920E-20
5.83045E-05 8.17525E-20
6.16838E-05 7.30494E-20
6.51582E-05 6.54752E-20
6.87277E-05 5.88589E-20
7.23925E-05 5.30584E-20
7.61524E-05 4.79569E-20
9.21439E-05 3.27724E-20
1.09658E-04 2.31507E-20
1.28695E-04 1.68165E-20
1.49255E-04 1.25082E-20
1.71338E-04 9.49611E-21
1.94942E-04 7.33875E-21
2.20070E-04 5.76095E-21
2.46720E-04 4.58547E-21
2.74892E-04 3.69516E-21
3.04586E-04 3.01093E-21
3.35803E-04 2.47804E-21
3.68542E-04 2.05804E-21
4.02802E-04 1.72340E-21
4.38585E-04 1.45412E-21
4.75889E-04 1.23546E-21
5.14715E-04 1.05640E-21
5.55063E-04 9.08649E-22
5.96931E-04 7.85855E-22
6.40321E-04 6.83124E-22
6.85233E-04 5.96646E-22
7.31665E-04 5.23429E-22
7.79618E-04 4.61108E-22
8.29092E-04 4.07790E-22
8.80086E-04 3.61960E-22
9.32601E-04 3.22390E-22
9.86636E-04 2.88081E-22
1.04219E-03 2.58216E-22
1.09927E-03 2.32120E-22
1.15786E-03 2.09238E-22
1.21797E-03 1.89105E-22
1.27961E-03 1.71334E-22
1.34276E-03 1.55601E-22
1.40743E-03 1.41631E-22
1.47362E-03 1.29193E-22
1.54133E-03 1.18089E-22
1.61056E-03 1.08151E-22
1.68131E-03 9.92355E-23
1.75357E-03 9.12184E-23
1.82735E-03 8.39934E-23
1.90265E-03 7.74683E-23
1.97947E-03 7.15634E-23
2.05780E-03 6.62093E-23
2.13765E-03 6.13455E-23
2.21902E-03 5.69190E-23
2.30190E-03 5.28836E-23
2.38630E-03 4.91985E-23
2.47222E-03 4.58278E-23
2.55965E-03 4.27400E-23
2.64859E-03 3.99070E-23
2.73905E-03 3.73040E-23
2.83103E-03 3.49090E-23
2.92452E-03 3.27023E-23
3.01952E-03 3.06665E-23
3.11604E-03 2.87860E-23
3.21407E-03 2.70467E-23
3.31362E-03 2.54362E-23
3.41468E-03 2.39432E-23
3.51725E-03 2.25575E-23
3.62133E-03 2.12700E-23
3.72692E-03 2.00726E-23
3.83403E-03 1.89577E-23
3.94265E-03 1.79186E-23
4.05278E-03 1.69493E-23
4.16442E-03 1.60442E-23
4.27757E-03 1.51983E-23
4.39223E-03 1.44069E-23
4.50840E-03 1.36660E-23
4.62608E-03 1.29718E-23
4.74527E-03 1.23206E-23
4.86597E-03 1.17095E-23
4.98817E-03 1.11355E-23
5.11188E-03 1.05959E-23
5.23711E-03 1.00882E-23
5.36383E-03 9.61033E-24
5.49207E-03 9.16011E-24
5.62181E-03 8.73566E-24
5.75306E-03 8.33525E-24
5.88581E-03 7.95726E-24
6.02007E-03 7.60021E-24
6.15583E-03 7.26272E-24
6.29310E-03 6.94353E-24
6.43187E-03 6.64146E-24
6.57214E-03 6.35543E-24
6.71392E-03 6.08443E-24
6.85720E-03 5.82752E-24
7.00198E-03 5.58384E-24
7.14827E-03 5.35258E-24
7.29605E-03 5.13300E-24
7.44534E-03 4.92439E-24
7.59612E-03 4.72610E-24
7.97965E-03 4.27170E-24
8.37255E-03 3.86979E-24
8.77480E-03 3.51327E-24
9.18641E-03 3.19618E-24
9.60736E-03 2.91341E-24
1.00376E-02 2.66063E-24
1.04773E-02 2.43412E-24
1.09262E-02 2.23070E-24
1.13844E-02 2.04761E-24
1.18520E-02 1.88249E-24
1.23288E-02 1.73328E-24
1.28150E-02 1.59818E-24
1.33104E-02 1.47563E-24
1.38150E-02 1.36429E-24
1.43290E-02 1.26294E-24
1.48521E-02 1.17055E-24
1.53845E-02 1.08618E-24
1.59262E-02 1.00904E-24
1.64770E-02 9.38390E-25
1.70371E-02 8.73600E-25
1.76063E-02 8.14104E-25
1.81848E-02 7.59396E-25
1.87724E-02 7.09028E-25
1.93692E-02 6.62601E-25
1.99751E-02 6.19754E-25
2.05901E-02 5.80166E-25
2.12143E-02 5.43551E-25
2.18476E-02 5.09647E-25
2.24900E-02 4.78223E-25
2.31415E-02 4.49067E-25
2.38021E-02 4.21989E-25
2.44717E-02 3.96819E-25
2.51504E-02 3.73399E-25
2.58382E-02 3.51589E-25
2.65349E-02 3.31261E-25
2.72407E-02 3.12298E-25
2.79555E-02 2.94595E-25
2.86793E-02 2.78054E-25
2.94120E-02 2.62588E-25
3.01537E-02 2.48116E-25
3.09043E-02 2.34564E-25
3.16639E-02 2.21864E-25
3.24324E-02 2.09956E-25
3.32098E-02 1.98782E-25
3.39961E-02 1.88290E-25
3.47912E-02 1.78433E-25
3.55952E-02 1.69166E-25
3.64081E-02 1.60449E-25
3.72297E-02 1.52244E-25
3.80602E-02 1.44517E-25
3.88995E-02 1.37236E-25
3.97476E-02 1.30371E-25
4.06044E-02 1.23896E-25
4.14700E-02 1.17785E-25
4.23443E-02 1.12015E-25
4.32273E-02 1.06564E-25
4.41190E-02 1.01412E-25
4.50194E-02 9.65404E-26
4.59284E-02 9.19317E-26
4.68461E-02 8.75699E-26
4.87074E-02 7.95280E-26
5.06030E-02 7.23066E-26
5.25328E-02 6.58116E-26
5.44967E-02 5.99612E-26
5.64946E-02 5.46838E-26
5.85262E-02 4.99167E-26
6.05914E-02 4.56049E-26
6.26901E-02 4.17000E-26
6.48222E-02 3.81594E-26
6.69873E-02 3.49455E-26
6.91854E-02 3.20248E-26
7.14163E-02 2.93679E-26
7.36799E-02 2.69486E-26
7.59760E-02 2.47434E-26
7.83043E-02 2.27317E-26
8.06647E-02 2.08947E-26
8.30571E-02 1.92161E-26
8.54812E-02 1.76808E-26
8.79369E-02 1.62756E-26
9.04240E-02 1.49886E-26
9.29422E-02 1.38089E-26
9.54915E-02 1.27269E-26
9.80716E-02 1.17339E-26
1.00682E-01 1.08221E-26
1.03323E-01 9.98425E-27
1.05995E-01 9.21399E-27
1.08696E-01 8.50551E-27
1.11427E-01 7.85352E-27
1.14188E-01 7.25323E-27
1.16978E-01 6.70030E-27
1.19797E-01 6.19078E-27
1.22645E-01 5.72107E-27
1.25522E-01 5.28789E-27
1.28428E-01 4.88826E-27
1.31361E-01 4.51946E-27
1.34323E-01 4.17899E-27
1.37313E-01 3.86459E-27
1.40330E-01 3.57418E-27
1.43375E-01 3.30586E-27
1.46447E-01 3.05788E-27
1.49545E-01 2.82866E-27
1.52671E-01 2.61672E-27
1.55823E-01 2.42072E-27
1.59001E-01 2.23944E-27
1.62205E-01 2.07173E-27
1.65435E-01 1.91657E-27
1.68690E-01 1.77298E-27
1.71970E-01 1.64010E-27
1.75276E-01 1.51710E-27
1.78606E-01 1.40325E-27
1.81961E-01 1.29785E-27
1.85340E-01 1.20028E-27
1.88743E-01 1.10993E-27
1.92169E-01 1.02629E-27
1.95619E-01 9.48836E-28
1.99092E-01 8.77121E-28
2.02589E-01 8.10717E-28
2.06107E-01 7.49231E-28
2.09649E-01 6.92300E-28
2.13212E-01 6.39588E-28
2.16797E-01 5.90786E-28
2.20404E-01 5.45604E-28
2.24032E-01 5.03779E-28
2.27680E-01 4.65062E-28
2.31350E-01 4.29227E-28
2.35040E-01 3.96063E-28
2.38751E-01 3.65373E-28
2.42481E-01 3.36977E-28
2.46231E-01 3.10708E-28
2.50000E-01 2.86409E-28
2.53788E-01 2.63936E-28
2.57595E-01 2.43155E-28
2.61421E-01 2.23944E-28
2.65264E-01 2.06186E-28
2.69126E-01 1.89775E-28
2.73005E-01 1.74613E-28
2.76901E-01 1.60607E-28
2.80814E-01 1.47673E-28
2.84744E-01 1.35732E-28
2.88691E-01 1.24710E-28
2.92653E-01 1.14540E-28
2.96632E-01 1.05158E-28
3.00625E-01 9.65069E-29
3.04634E-01 8.85313E-29
3.08658E-01 8.11813E-29
3.12697E-01 7.44103E-29
3.16749E-01 6.81749E-29
3.20816E-01 6.24349E-29
3.24896E-01 5.71532E-29
3.28990E-01 5.22950E-29
3.33097E-01 4.78285E-29
3.37216E-01 4.37238E-29
3.41348E-01 3.99534E-29
3.45492E-01 3.64917E-29
3.49647E-01 3.33151E-29
3.53814E-01 3.04016E-29
3.57992E-01 2.77308E-29
3.62181E-01 2.52839E-29
3.66381E-01 2.30435E-29
3.70590E-01 2.09933E-29
3.74810E-01 1.91183E-29
3.79039E-01 1.74048E-29
3.83277E-01 1.58397E-29
3.87524E-01 1.44114E-29
3.91780E-01 1.31087E-29
3.96044E-01 1.19216E-29
4.00316E-01 1.08405E-29
4.04596E-01 9.85685E-30
4.08882E-01 8.96259E-30
4.13176E-01 8.15030E-30
4.17476E-01 7.41313E-30
4.21783E-01 6.74475E-30
4.26095E-01 6.13933E-30
4.30413E-01 5.59150E-30
4.34737E-01 5.09628E-30
4.39065E-01 4.64911E-30
4.43398E-01 4.24577E-30
4.47736E-01 3.88240E-30
4.52077E-01 3.55541E-30
4.56422E-01 3.26154E-30
4.60770E-01 2.99776E-30
4.65122E-01 2.76130E-30
4.69476E-01 2.54963E-30
4.73832E-01 2.36040E-30
4.78190E-01 2.19148E-30
4.82550E-01 2.04090E-30
4.86912E-01 1.90688E-30
4.91274E-01 1.78777E-30
4.95637E-01 1.68206E-30
5.00000E-01 1.58840E-30
5.04363E-01 1.50552E-30
5.08726E-01 1.43230E-30
5.13088E-01 1.36768E-30
5.17450E-01 1.31073E-30
5.21810E-01 1.26060E-30
5.26168E-01 1.21649E-30
5.30524E-01 1.17771E-30
5.34878E-01 1.14361E-30
5.39230E-01 1.11363E-30
5.43578E-01 1.08724E-30
5.47923E-01 1.06397E-30
5.52264E-01 1.04340E-30
5.56602E-01 1.02515E-30
5.60935E-01 1.00888E-30
5.65263E-01 9.94297E-31
5.69587E-01 9.81124E-31
5.73905E-01 9.69123E-31
5.78217E-01 9.58083E-31
5.82524E-01 9.47816E-31
5.86824E-01 9.38158E-31
5.91118E-01 9.28965E-31
5.95404E-01 9.20111E-31
5.99684E-01 9.11487E-31
6.03956E-01 9.03000E-31
6.08220E-01 8.94571E-31
6.12476E-01 8.86130E-31
6.16723E-01 8.77623E-31
6.20961E-01 8.69002E-31
6.25190E-01 8.60228E-31
6.29410E-01 8.51273E-31
6.33619E-01 8.42112E-31
6.37819E-01 8.32728E-31
6.42008E-01 8.23111E-31
6.46186E-01 8.13253E-31
6.50353E-01 8.03152E-31
6.54508E-01 7.92808E-31
6.58652E-01 7.82225E-31
6.62784E-01 7.71411E-31
6.66903E-01 7.60374E-31
6.71010E-01 7.49125E-31
6.75104E-01 7.37676E-31
6.79184E-01 7.26042E-31
6.83251E-01 7.14236E-31
6.87303E-01 7.02275E-31
6.91342E-01 6.90175E-31
6.95366E-01 6.77951E-31
6.99375E-01 6.65621E-31
7.03368E-01 6.53202E-31
7.07347E-01 6.40709E-31
7.11309E-01 6.28160E-31
7.15256E-01 6.15571E-31
7.19186E-01 6.02958E-31
7.23099E-01 5.90337E-31
7.26995E-01 5.77721E-31
7.30874E-01 5.65127E-31
7.34736E-01 5.52568E-31
7.38579E-01 5.40058E-31
7.42405E-01 5.27609E-31
7.46212E-01 5.15233E-31
7.50000E-01 5.02942E-31
7.53769E-01 4.90748E-31
7.57519E-01 4.78660E-31
7.61249E-01 4.66688E-31
7.64960E-01 4.54840E-31
7.68650E-01 4.43126E-31
7.72320E-01 4.31553E-31
7.75968E-01 4.20128E-31
7.79596E-01 4.08858E-31
7.83203E-01 3.97748E-31
7.86788E-01 3.86804E-31
7.90351E-01 3.76030E-31
7.93893E-01 3.65432E-31
7.97411E-01 3.55012E-31
8.00908E-01 3.44775E-31
8.04381E-01 3.34722E-31
8.07831E-01 3.24856E-31
8.11257E-01 3.15180E-31
8.14660E-01 3.05695E-31
8.18039E-01 2.96401E-31
8.21394E-01 2.87300E-31
8.24724E-01 2.78393E-31
8.28030E-01 2.69679E-31
8.31310E-01 2.61158E-31
8.34565E-01 2.52829E-31
8.37795E-01 2.44693E-31
8.40999E-01 2.36748E-31
8.44177E-01 2.28992E-31
8.47329E-01 2.21425E-31
8.50455E-01 2.14045E-31
8.53553E-01 2.06850E-31
8.56625E-01 1.99838E-31
8.59670E-01 1.93007E-31
8.62687E-01 1.86355E-31
8.65677E-01 1.79879E-31
8.68639E-01 1.73577E-31
8.71572E-01 1.67446E-31
8.74478E-01 1.61484E-31
8.77355E-01 1.55688E-31
8.80203E-01 1.50054E-31
8.83022E-01 1.44581E-31
8.85812E-01 1.39265E-31
8.88573E-01 1.34104E-31
8.91304E-01 1.29093E-31
8.94005E-01 1.24231E-31
8.96677E-01 1.19513E-31
8.99318E-01 1.14938E-31
9.01928E-01 1.10502E-31
9.04508E-01 1.06202E-31
9.07058E-01 1.02034E-31
9.09576E-01 9.79961E-32
9.12063E-01 9.40850E-32
9.14519E-01 9.02976E-32
9.16943E-01 8.66308E-32
9.19335E-01 8.30818E-32
9.21696E-01 7.96475E-32
9.24024E-01 7.63251E-32
9.26320E-01 7.31116E-32
9.28584E-01 7.00043E-32
9.30815E-01 6.70003E-32
9.33013E-01 6.40969E-32
9.35178E-01 6.12915E-32
9.37310E-01 5.85812E-32
9.39409E-01 5.59635E-32
9.41474E-01 5.34359E-32
9.43505E-01 5.09958E-32
9.45503E-01 4.86409E-32
9.47467E-01 4.63686E-32
9.49397E-01 4.41766E-32
9.51293E-01 4.20626E-32
9.53154E-01 4.00244E-32
9.54981E-01 3.80597E-32
9.56773E-01 3.61665E-32
9.58530E-01 3.43426E-32
9.60252E-01 3.25861E-32
9.61940E-01 3.08948E-32
9.63592E-01 2.92670E-32
9.65209E-01 2.77007E-32
9.66790E-01 2.61942E-32
9.68336E-01 2.47456E-32
9.69846E-01 2.33532E-32
9.71321E-01 2.20154E-32
9.72759E-01 2.07306E-32
9.74162E-01 1.94972E-32
9.75528E-01 1.83137E-32
9.76858E-01 1.71787E-32
9.78152E-01 1.60908E-32
9.79410E-01 1.50485E-32
9.80631E-01 1.40506E-32
9.81815E-01 1.30958E-32
9.82963E-01 1.21829E-32
9.84074E-01 1.13108E-32
9.85148E-01 1.04783E-32
9.86185E-01 9.68426E-33
9.87185E-01 8.92776E-33
9.88148E-01 8.20779E-33
9.89074E-01 7.52335E-33
9.89962E-01 6.87358E-33
9.90814E-01 6.25761E-33
9.91627E-01 5.67460E-33
9.92404E-01 5.12380E-33
9.93143E-01 4.60443E-33
9.93844E-01 4.11583E-33
9.94508E-01 3.65732E-33
9.95134E-01 3.22827E-33
9.95722E-01 2.82810E-33
9.96273E-01 2.45628E-33
9.96786E-01 2.11229E-33
9.97261E-01 1.79565E-33
9.97698E-01 1.50592E-33
9.98097E-01 1.24272E-33
9.98459E-01 1.00568E-33
9.98782E-01 7.94459E-34
9.99067E-01 6.08776E-34
9.99315E-01 4.48371E-34
9.99524E-01 3.13015E-34
9.99695E-01 2.02531E-34
9.99829E-01 1.16756E-34
9.99924E-01 5.55749E-35
9.99981E-01 1.89012E-35
1.00000E+00 6.68214E-36
