 #
 # Subroutine ELSEPA. Elastic scattering of electrons and positrons
 #                    by neutral atoms and positive ions
 #
 # Projectile: electron
 # Kinetic energy = 2.00000E+06 eV = 7.34987E+04 a.u.
 #
 # WARNING: High-energy factorization with free-atom DF screening.
 #          Absorption, polarization and exchange corrections are
 #          switched off.
 #          Phase shifts are calculated for the bare nucleus.
 #          Scattering amplitudes are not evaluated.
 #
 # Element: Cu,  Z =  29,  atomic weight = 6.35460E+01 g/mol
 #
 # Nuclear model: Fermi distribution
 #                Average radius = 4.26986E-13 cm
 #                Skin thickness = 5.46000E-14 cm
 #
 # Number of electrons = 29
 #
 # Total elastic cross section = 1.92365E-18 cm**2 = 6.86946E-02 a0**2
 # 1st transport cross section = 1.95998E-22 cm**2 = 6.99920E-06 a0**2
 # 2nd transport cross section = 5.49442E-22 cm**2 = 1.96209E-05 a0**2
 #
 #
 # Differential cross section:                       MU=(1-COS(THETA))/2
 #
 #  THETA        MU          DCS          DCS        Sherman      error
 #  (deg)                 (cm**2/sr)   (a0**2/sr)    function
 #----------------------------------------------------------------------
0.00000E+00 7.46461E-14
7.61557E-13 7.46460E-14
1.18994E-12 7.46460E-14
1.71346E-12 7.46459E-14
2.33225E-12 7.46458E-14
3.04617E-12 7.46457E-14
3.85530E-12 7.46456E-14
4.75964E-12 7.46455E-14
5.75917E-12 7.46453E-14
6.85391E-12 7.46452E-14
8.04379E-12 7.46450E-14
9.32893E-12 7.46448E-14
1.07092E-11 7.46446E-14
1.21847E-11 7.46444E-14
1.37554E-11 7.46442E-14
1.54213E-11 7.46440E-14
1.71823E-11 7.46437E-14
1.90386E-11 7.46435E-14
2.09900E-11 7.46432E-14
2.30367E-11 7.46429E-14
2.51785E-11 7.46426E-14
2.74156E-11 7.46423E-14
2.97478E-11 7.46420E-14
3.21752E-11 7.46416E-14
3.46979E-11 7.46413E-14
3.73157E-11 7.46409E-14
4.00286E-11 7.46405E-14
4.28368E-11 7.46401E-14
4.57402E-11 7.46397E-14
4.87388E-11 7.46393E-14
5.18325E-11 7.46388E-14
5.50215E-11 7.46384E-14
5.83057E-11 7.46379E-14
6.16850E-11 7.46374E-14
6.51595E-11 7.46369E-14
6.87293E-11 7.46364E-14
7.23943E-11 7.46359E-14
7.61544E-11 7.46354E-14
1.18991E-10 7.46293E-14
1.71347E-10 7.46218E-14
2.33223E-10 7.46130E-14
3.04617E-10 7.46028E-14
3.85531E-10 7.45913E-14
4.75965E-10 7.45784E-14
5.75917E-10 7.45641E-14
6.85389E-10 7.45485E-14
8.04380E-10 7.45315E-14
9.32891E-10 7.45132E-14
1.07092E-09 7.44935E-14
1.21847E-09 7.44725E-14
1.37554E-09 7.44501E-14
1.54213E-09 7.44264E-14
1.71823E-09 7.44013E-14
1.90386E-09 7.43749E-14
2.09900E-09 7.43472E-14
2.30367E-09 7.43181E-14
2.51785E-09 7.42877E-14
2.74156E-09 7.42559E-14
2.97478E-09 7.42229E-14
3.21752E-09 7.41885E-14
3.46978E-09 7.41528E-14
3.73156E-09 7.41158E-14
4.00286E-09 7.40774E-14
4.28368E-09 7.40378E-14
4.57402E-09 7.39968E-14
4.87388E-09 7.39546E-14
5.18326E-09 7.39111E-14
5.50215E-09 7.38663E-14
5.83057E-09 7.38201E-14
6.16850E-09 7.37728E-14
6.51596E-09 7.37241E-14
6.87293E-09 7.36742E-14
7.23942E-09 7.36229E-14
7.61544E-09 7.35705E-14
1.18991E-08 7.29777E-14
1.71347E-08 7.22653E-14
2.33223E-08 7.14402E-14
3.04617E-08 7.05101E-14
3.85531E-08 6.94831E-14
4.75965E-08 6.83651E-14
5.75917E-08 6.71766E-14
6.85389E-08 6.59120E-14
8.04380E-08 6.45951E-14
9.32891E-08 6.32250E-14
1.07092E-07 6.18169E-14
1.21847E-07 6.03796E-14
1.37554E-07 5.89154E-14
1.54213E-07 5.74456E-14
1.71823E-07 5.59571E-14
1.90386E-07 5.44819E-14
2.09900E-07 5.29988E-14
2.30367E-07 5.15383E-14
2.51785E-07 5.00872E-14
2.74156E-07 4.86607E-14
2.97478E-07 4.72585E-14
3.21752E-07 4.58806E-14
3.46978E-07 4.45393E-14
3.73156E-07 4.32202E-14
4.00286E-07 4.19472E-14
4.28368E-07 4.06939E-14
4.57402E-07 3.94877E-14
4.87388E-07 3.83093E-14
5.18325E-07 3.71721E-14
5.50215E-07 3.60690E-14
5.83057E-07 3.50009E-14
6.16850E-07 3.39718E-14
6.51596E-07 3.29711E-14
6.87293E-07 3.20134E-14
7.23942E-07 3.10775E-14
7.61543E-07 3.01839E-14
1.18991E-06 2.27571E-14
1.71347E-06 1.75086E-14
2.33223E-06 1.36915E-14
3.04617E-06 1.08420E-14
3.85531E-06 8.64726E-15
4.75964E-06 6.86394E-15
5.75916E-06 5.62633E-15
6.85388E-06 4.54645E-15
8.04378E-06 3.73680E-15
9.32888E-06 3.06982E-15
1.07092E-05 2.53480E-15
1.21846E-05 2.10896E-15
1.37553E-05 1.75324E-15
1.54212E-05 1.47414E-15
1.71822E-05 1.23597E-15
1.90385E-05 1.04790E-15
2.09899E-05 8.88125E-16
2.30365E-05 7.58852E-16
2.51783E-05 6.50509E-16
2.74153E-05 5.60549E-16
2.97475E-05 4.85439E-16
3.21749E-05 4.22051E-16
3.46974E-05 3.68952E-16
3.73152E-05 3.23637E-16
4.00281E-05 2.85387E-16
4.28362E-05 2.52462E-16
4.57395E-05 2.24354E-16
4.87380E-05 2.00062E-16
5.18317E-05 1.79070E-16
5.50205E-05 1.60821E-16
5.83045E-05 1.44894E-16
6.16838E-05 1.30965E-16
6.51582E-05 1.18698E-16
6.87277E-05 1.07908E-16
7.23925E-05 9.83214E-17
7.61524E-05 8.98355E-17
9.21439E-05 6.39499E-17
1.09658E-04 4.68788E-17
1.28695E-04 3.51953E-17
1.49255E-04 2.69455E-17
1.71338E-04 2.09650E-17
1.94942E-04 1.65384E-17
2.20070E-04 1.32076E-17
2.46720E-04 1.06646E-17
2.74892E-04 8.69781E-18
3.04586E-04 7.15823E-18
3.35803E-04 5.94072E-18
3.68542E-04 4.96888E-18
4.02802E-04 4.18446E-18
4.38585E-04 3.54968E-18
4.75889E-04 3.03060E-18
5.14715E-04 2.60214E-18
5.55063E-04 2.24734E-18
5.96931E-04 1.95031E-18
6.40321E-04 1.70136E-18
6.85233E-04 1.49053E-18
7.31665E-04 1.31173E-18
7.79618E-04 1.15891E-18
8.29092E-04 1.02785E-18
8.80086E-04 9.14882E-19
9.32601E-04 8.17077E-19
9.86636E-04 7.32102E-19
1.04219E-03 6.57901E-19
1.09927E-03 5.92973E-19
1.15786E-03 5.35840E-19
1.21797E-03 4.85510E-19
1.27961E-03 4.40950E-19
1.34276E-03 4.01435E-19
1.40743E-03 3.66260E-19
1.47362E-03 3.34874E-19
1.54133E-03 3.06802E-19
1.61056E-03 2.81613E-19
1.68131E-03 2.58985E-19
1.75357E-03 2.38574E-19
1.82735E-03 2.20160E-19
1.90265E-03 2.03481E-19
1.97947E-03 1.88367E-19
2.05780E-03 1.74631E-19
2.13765E-03 1.62131E-19
2.21902E-03 1.50733E-19
2.30190E-03 1.40320E-19
2.38630E-03 1.30799E-19
2.47222E-03 1.22067E-19
2.55965E-03 1.14061E-19
2.64859E-03 1.06695E-19
2.73905E-03 9.99207E-20
2.83103E-03 9.36740E-20
2.92452E-03 8.79106E-20
3.01952E-03 8.25844E-20
3.11604E-03 7.76557E-20
3.21407E-03 7.30917E-20
3.31362E-03 6.88565E-20
3.41468E-03 6.49271E-20
3.51725E-03 6.12715E-20
3.62133E-03 5.78724E-20
3.72692E-03 5.47047E-20
3.83403E-03 5.17521E-20
3.94265E-03 4.89961E-20
4.05278E-03 4.64214E-20
4.16442E-03 4.40145E-20
4.27757E-03 4.17611E-20
4.39223E-03 3.96513E-20
4.50840E-03 3.76722E-20
4.62608E-03 3.58163E-20
4.74527E-03 3.40727E-20
4.86597E-03 3.24347E-20
4.98817E-03 3.08939E-20
5.11188E-03 2.94438E-20
5.23711E-03 2.80780E-20
5.36383E-03 2.67905E-20
5.49207E-03 2.55764E-20
5.62181E-03 2.44301E-20
5.75306E-03 2.33478E-20
5.88581E-03 2.23246E-20
6.02007E-03 2.13572E-20
6.15583E-03 2.04416E-20
6.29310E-03 1.95747E-20
6.43187E-03 1.87535E-20
6.57214E-03 1.79749E-20
6.71392E-03 1.72365E-20
6.85720E-03 1.65356E-20
7.00198E-03 1.58702E-20
7.14827E-03 1.52379E-20
7.29605E-03 1.46370E-20
7.44534E-03 1.40654E-20
7.59612E-03 1.35215E-20
7.97965E-03 1.22729E-20
8.37255E-03 1.11656E-20
8.77480E-03 1.01807E-20
9.18641E-03 9.30239E-21
9.60736E-03 8.51710E-21
1.00376E-02 7.81322E-21
1.04773E-02 7.18083E-21
1.09262E-02 6.61138E-21
1.13844E-02 6.09748E-21
1.18520E-02 5.63274E-21
1.23288E-02 5.21162E-21
1.28150E-02 4.82928E-21
1.33104E-02 4.48151E-21
1.38150E-02 4.16463E-21
1.43290E-02 3.87538E-21
1.48521E-02 3.61093E-21
1.53845E-02 3.36875E-21
1.59262E-02 3.14664E-21
1.64770E-02 2.94261E-21
1.70371E-02 2.75494E-21
1.76063E-02 2.58206E-21
1.81848E-02 2.42260E-21
1.87724E-02 2.27532E-21
1.93692E-02 2.13912E-21
1.99751E-02 2.01302E-21
2.05901E-02 1.89612E-21
2.12143E-02 1.78762E-21
2.18476E-02 1.68682E-21
2.24900E-02 1.59306E-21
2.31415E-02 1.50576E-21
2.38021E-02 1.42439E-21
2.44717E-02 1.34847E-21
2.51504E-02 1.27758E-21
2.58382E-02 1.21130E-21
2.65349E-02 1.14930E-21
2.72407E-02 1.09123E-21
2.79555E-02 1.03680E-21
2.86793E-02 9.85746E-22
2.94120E-02 9.37812E-22
3.01537E-02 8.92773E-22
3.09043E-02 8.50420E-22
3.16639E-02 8.10564E-22
3.24324E-02 7.73029E-22
3.32098E-02 7.37654E-22
3.39961E-02 7.04291E-22
3.47912E-02 6.72804E-22
3.55952E-02 6.43067E-22
3.64081E-02 6.14964E-22
3.72297E-02 5.88388E-22
3.80602E-02 5.63241E-22
3.88995E-02 5.39430E-22
3.97476E-02 5.16872E-22
4.06044E-02 4.95487E-22
4.14700E-02 4.75203E-22
4.23443E-02 4.55952E-22
4.32273E-02 4.37671E-22
4.41190E-02 4.20303E-22
4.50194E-02 4.03792E-22
4.59284E-02 3.88089E-22
4.68461E-02 3.73146E-22
4.87074E-02 3.45367E-22
5.06030E-02 3.20139E-22
5.25328E-02 2.97184E-22
5.44967E-02 2.76260E-22
5.64946E-02 2.57154E-22
5.85262E-02 2.39680E-22
6.05914E-02 2.23671E-22
6.26901E-02 2.08983E-22
6.48222E-02 1.95486E-22
6.69873E-02 1.83065E-22
6.91854E-02 1.71620E-22
7.14163E-02 1.61058E-22
7.36799E-02 1.51299E-22
7.59760E-02 1.42271E-22
7.83043E-02 1.33909E-22
8.06647E-02 1.26154E-22
8.30571E-02 1.18953E-22
8.54812E-02 1.12261E-22
8.79369E-02 1.06034E-22
9.04240E-02 1.00233E-22
9.29422E-02 9.48245E-23
9.54915E-02 8.97764E-23
9.80716E-02 8.50602E-23
1.00682E-01 8.06500E-23
1.03323E-01 7.65222E-23
1.05995E-01 7.26552E-23
1.08696E-01 6.90294E-23
1.11427E-01 6.56270E-23
1.14188E-01 6.24315E-23
1.16978E-01 5.94279E-23
1.19797E-01 5.66027E-23
1.22645E-01 5.39430E-23
1.25522E-01 5.14375E-23
1.28428E-01 4.90754E-23
1.31361E-01 4.68469E-23
1.34323E-01 4.47432E-23
1.37313E-01 4.27558E-23
1.40330E-01 4.08771E-23
1.43375E-01 3.91000E-23
1.46447E-01 3.74179E-23
1.49545E-01 3.58249E-23
1.52671E-01 3.43153E-23
1.55823E-01 3.28838E-23
1.59001E-01 3.15257E-23
1.62205E-01 3.02366E-23
1.65435E-01 2.90121E-23
1.68690E-01 2.78485E-23
1.71970E-01 2.67421E-23
1.75276E-01 2.56897E-23
1.78606E-01 2.46880E-23
1.81961E-01 2.37341E-23
1.85340E-01 2.28254E-23
1.88743E-01 2.19593E-23
1.92169E-01 2.11333E-23
1.95619E-01 2.03453E-23
1.99092E-01 1.95933E-23
2.02589E-01 1.88752E-23
2.06107E-01 1.81892E-23
2.09649E-01 1.75336E-23
2.13212E-01 1.69068E-23
2.16797E-01 1.63074E-23
2.20404E-01 1.57338E-23
2.24032E-01 1.51847E-23
2.27680E-01 1.46590E-23
2.31350E-01 1.41554E-23
2.35040E-01 1.36728E-23
2.38751E-01 1.32102E-23
2.42481E-01 1.27665E-23
2.46231E-01 1.23409E-23
2.50000E-01 1.19325E-23
2.53788E-01 1.15405E-23
2.57595E-01 1.11640E-23
2.61421E-01 1.08024E-23
2.65264E-01 1.04549E-23
2.69126E-01 1.01209E-23
2.73005E-01 9.79974E-24
2.76901E-01 9.49087E-24
2.80814E-01 9.19373E-24
2.84744E-01 8.90776E-24
2.88691E-01 8.63249E-24
2.92653E-01 8.36742E-24
2.96632E-01 8.11212E-24
3.00625E-01 7.86615E-24
3.04634E-01 7.62911E-24
3.08658E-01 7.40061E-24
3.12697E-01 7.18029E-24
3.16749E-01 6.96780E-24
3.20816E-01 6.76280E-24
3.24896E-01 6.56499E-24
3.28990E-01 6.37407E-24
3.33097E-01 6.18974E-24
3.37216E-01 6.01175E-24
3.41348E-01 5.83983E-24
3.45492E-01 5.67373E-24
3.49647E-01 5.51323E-24
3.53814E-01 5.35809E-24
3.57992E-01 5.20811E-24
3.62181E-01 5.06308E-24
3.66381E-01 4.92281E-24
3.70590E-01 4.78711E-24
3.74810E-01 4.65581E-24
3.79039E-01 4.52874E-24
3.83277E-01 4.40573E-24
3.87524E-01 4.28663E-24
3.91780E-01 4.17130E-24
3.96044E-01 4.05960E-24
4.00316E-01 3.95138E-24
4.04596E-01 3.84652E-24
4.08882E-01 3.74490E-24
4.13176E-01 3.64640E-24
4.17476E-01 3.55090E-24
4.21783E-01 3.45830E-24
4.26095E-01 3.36850E-24
4.30413E-01 3.28139E-24
4.34737E-01 3.19687E-24
4.39065E-01 3.11486E-24
4.43398E-01 3.03527E-24
4.47736E-01 2.95802E-24
4.52077E-01 2.88302E-24
4.56422E-01 2.81020E-24
4.60770E-01 2.73947E-24
4.65122E-01 2.67078E-24
4.69476E-01 2.60405E-24
4.73832E-01 2.53922E-24
4.78190E-01 2.47621E-24
4.82550E-01 2.41498E-24
4.86912E-01 2.35547E-24
4.91274E-01 2.29760E-24
4.95637E-01 2.24134E-24
5.00000E-01 2.18663E-24
5.04363E-01 2.13342E-24
5.08726E-01 2.08166E-24
5.13088E-01 2.03131E-24
5.17450E-01 1.98232E-24
5.21810E-01 1.93464E-24
5.26168E-01 1.88824E-24
5.30524E-01 1.84308E-24
5.34878E-01 1.79911E-24
5.39230E-01 1.75631E-24
5.43578E-01 1.71462E-24
5.47923E-01 1.67403E-24
5.52264E-01 1.63449E-24
5.56602E-01 1.59598E-24
5.60935E-01 1.55846E-24
5.65263E-01 1.52191E-24
5.69587E-01 1.48628E-24
5.73905E-01 1.45157E-24
5.78217E-01 1.41774E-24
5.82524E-01 1.38476E-24
5.86824E-01 1.35260E-24
5.91118E-01 1.32126E-24
5.95404E-01 1.29069E-24
5.99684E-01 1.26088E-24
6.03956E-01 1.23181E-24
6.08220E-01 1.20346E-24
6.12476E-01 1.17580E-24
6.16723E-01 1.14881E-24
6.20961E-01 1.12249E-24
6.25190E-01 1.09680E-24
6.29410E-01 1.07173E-24
6.33619E-01 1.04726E-24
6.37819E-01 1.02338E-24
6.42008E-01 1.00007E-24
6.46186E-01 9.77316E-25
6.50353E-01 9.55099E-25
6.54508E-01 9.33407E-25
6.58652E-01 9.12225E-25
6.62784E-01 8.91540E-25
6.66903E-01 8.71338E-25
6.71010E-01 8.51606E-25
6.75104E-01 8.32333E-25
6.79184E-01 8.13505E-25
6.83251E-01 7.95111E-25
6.87303E-01 7.77140E-25
6.91342E-01 7.59580E-25
6.95366E-01 7.42422E-25
6.99375E-01 7.25654E-25
7.03368E-01 7.09266E-25
7.07347E-01 6.93250E-25
7.11309E-01 6.77594E-25
7.15256E-01 6.62291E-25
7.19186E-01 6.47331E-25
7.23099E-01 6.32705E-25
7.26995E-01 6.18406E-25
7.30874E-01 6.04425E-25
7.34736E-01 5.90754E-25
7.38579E-01 5.77386E-25
7.42405E-01 5.64313E-25
7.46212E-01 5.51527E-25
7.50000E-01 5.39023E-25
7.53769E-01 5.26792E-25
7.57519E-01 5.14829E-25
7.61249E-01 5.03127E-25
7.64960E-01 4.91679E-25
7.68650E-01 4.80481E-25
7.72320E-01 4.69525E-25
7.75968E-01 4.58806E-25
7.79596E-01 4.48319E-25
7.83203E-01 4.38058E-25
7.86788E-01 4.28017E-25
7.90351E-01 4.18193E-25
7.93893E-01 4.08579E-25
7.97411E-01 3.99171E-25
8.00908E-01 3.89964E-25
8.04381E-01 3.80954E-25
8.07831E-01 3.72137E-25
8.11257E-01 3.63507E-25
8.14660E-01 3.55061E-25
8.18039E-01 3.46794E-25
8.21394E-01 3.38703E-25
8.24724E-01 3.30784E-25
8.28030E-01 3.23033E-25
8.31310E-01 3.15447E-25
8.34565E-01 3.08021E-25
8.37795E-01 3.00753E-25
8.40999E-01 2.93638E-25
8.44177E-01 2.86674E-25
8.47329E-01 2.79858E-25
8.50455E-01 2.73186E-25
8.53553E-01 2.66655E-25
8.56625E-01 2.60263E-25
8.59670E-01 2.54006E-25
8.62687E-01 2.47882E-25
8.65677E-01 2.41888E-25
8.68639E-01 2.36021E-25
8.71572E-01 2.30279E-25
8.74478E-01 2.24660E-25
8.77355E-01 2.19160E-25
8.80203E-01 2.13778E-25
8.83022E-01 2.08511E-25
8.85812E-01 2.03356E-25
8.88573E-01 1.98313E-25
8.91304E-01 1.93378E-25
8.94005E-01 1.88549E-25
8.96677E-01 1.83825E-25
8.99318E-01 1.79204E-25
9.01928E-01 1.74682E-25
9.04508E-01 1.70260E-25
9.07058E-01 1.65935E-25
9.09576E-01 1.61704E-25
9.12063E-01 1.57567E-25
9.14519E-01 1.53522E-25
9.16943E-01 1.49566E-25
9.19335E-01 1.45699E-25
9.21696E-01 1.41919E-25
9.24024E-01 1.38225E-25
9.26320E-01 1.34614E-25
9.28584E-01 1.31086E-25
9.30815E-01 1.27639E-25
9.33013E-01 1.24271E-25
9.35178E-01 1.20982E-25
9.37310E-01 1.17770E-25
9.39409E-01 1.14634E-25
9.41474E-01 1.11573E-25
9.43505E-01 1.08585E-25
9.45503E-01 1.05669E-25
9.47467E-01 1.02825E-25
9.49397E-01 1.00051E-25
9.51293E-01 9.73455E-26
9.53154E-01 9.47084E-26
9.54981E-01 9.21383E-26
9.56773E-01 8.96344E-26
9.58530E-01 8.71955E-26
9.60252E-01 8.48209E-26
9.61940E-01 8.25097E-26
9.63592E-01 8.02609E-26
9.65209E-01 7.80738E-26
9.66790E-01 7.59475E-26
9.68336E-01 7.38812E-26
9.69846E-01 7.18743E-26
9.71321E-01 6.99259E-26
9.72759E-01 6.80354E-26
9.74162E-01 6.62020E-26
9.75528E-01 6.44251E-26
9.76858E-01 6.27041E-26
9.78152E-01 6.10382E-26
9.79410E-01 5.94270E-26
9.80631E-01 5.78699E-26
9.81815E-01 5.63662E-26
9.82963E-01 5.49154E-26
9.84074E-01 5.35171E-26
9.85148E-01 5.21707E-26
9.86185E-01 5.08757E-26
9.87185E-01 4.96317E-26
9.88148E-01 4.84382E-26
9.89074E-01 4.72948E-26
9.89962E-01 4.62012E-26
9.90814E-01 4.51569E-26
9.91627E-01 4.41615E-26
9.92404E-01 4.32147E-26
9.93143E-01 4.23161E-26
9.93844E-01 4.14656E-26
9.94508E-01 4.06626E-26
9.95134E-01 3.99071E-26
9.95722E-01 3.91986E-26
9.96273E-01 3.85370E-26
9.96786E-01 3.79221E-26
9.97261E-01 3.73535E-26
9.97698E-01 3.68311E-26
9.98097E-01 3.63548E-26
9.98459E-01 3.59243E-26
9.98782E-01 3.55396E-26
9.99067E-01 3.52004E-26
9.99315E-01 3.49067E-26
9.99524E-01 3.46584E-26
9.99695E-01 3.44553E-26
9.99829E-01 3.42974E-26
9.99924E-01 3.41847E-26
9.99981E-01 3.41170E-26
1.00000E+00 3.40945E-26
