 #
 # Subroutine ELSEPA. Elastic scattering of electrons and positrons
 #                    by neutral atoms and positive ions
 #
 # Projectile: electron
 # Kinetic energy = 1.50000E+08 eV = 5.51240E+06 a.u.
 #
 # WARNING: High-energy factorization with free-atom DF screening.
 #          Absorption, polarization and exchange corrections are
 #          switched off.
 #          Phase shifts are calculated for the bare nucleus.
 #          Scattering amplitudes are not evaluated.
 #
 # Element: Cu,  Z =  29,  atomic weight = 6.35460E+01 g/mol
 #
 # Nuclear model: Fermi distribution
 #                Average radius = 4.26986E-13 cm
 #                Skin thickness = 5.46000E-14 cm
 #
 # Number of electrons = 29
 #
 # Total elastic cross section = 1.84131E-18 cm**2 = 6.57545E-02 a0**2
 # 1st transport cross section = 7.63610E-26 cm**2 = 2.72690E-09 a0**2
 # 2nd transport cross section = 2.28010E-25 cm**2 = 8.14238E-09 a0**2
 #
 #
 # Differential cross section:                       MU=(1-COS(THETA))/2
 #
 #  THETA        MU          DCS          DCS        Sherman      error
 #  (deg)                 (cm**2/sr)   (a0**2/sr)    function
 #----------------------------------------------------------------------
0.00000E+00 2.68195E-10
7.61557E-13 2.66728E-10
1.18994E-12 2.65910E-10
1.71346E-12 2.64918E-10
2.33225E-12 2.63754E-10
3.04617E-12 2.62423E-10
3.85530E-12 2.60930E-10
4.75964E-12 2.59281E-10
5.75917E-12 2.57481E-10
6.85391E-12 2.55537E-10
8.04379E-12 2.53456E-10
9.32893E-12 2.51244E-10
1.07092E-11 2.48903E-10
1.21847E-11 2.46443E-10
1.37554E-11 2.43885E-10
1.54213E-11 2.41239E-10
1.71823E-11 2.38480E-10
1.90386E-11 2.35639E-10
2.09900E-11 2.32736E-10
2.30367E-11 2.29772E-10
2.51785E-11 2.26716E-10
2.74156E-11 2.23623E-10
2.97478E-11 2.20501E-10
3.21752E-11 2.17328E-10
3.46979E-11 2.14110E-10
3.73157E-11 2.10885E-10
4.00286E-11 2.07660E-10
4.28368E-11 2.04387E-10
4.57402E-11 2.01116E-10
4.87388E-11 1.97863E-10
5.18325E-11 1.94620E-10
5.50215E-11 1.91351E-10
5.83057E-11 1.88115E-10
6.16850E-11 1.84917E-10
6.51595E-11 1.81722E-10
6.87293E-11 1.78542E-10
7.23943E-11 1.75409E-10
7.61544E-11 1.72327E-10
1.18991E-10 1.43489E-10
1.71347E-10 1.19354E-10
2.33223E-10 9.97842E-11
3.04617E-10 8.40440E-11
3.85531E-10 7.13154E-11
4.75965E-10 6.09454E-11
5.75917E-10 5.24017E-11
6.85389E-10 4.52800E-11
8.04380E-10 3.92826E-11
9.32891E-10 3.42029E-11
1.07092E-09 2.96702E-11
1.21847E-09 2.57526E-11
1.37554E-09 2.26320E-11
1.54213E-09 2.01146E-11
1.71823E-09 1.76404E-11
1.90386E-09 1.55142E-11
2.09900E-09 1.37686E-11
2.30367E-09 1.22868E-11
2.51785E-09 1.08342E-11
2.74156E-09 9.62288E-12
2.97478E-09 8.60489E-12
3.21752E-09 7.68406E-12
3.46978E-09 6.84485E-12
3.73156E-09 6.13070E-12
4.00286E-09 5.51934E-12
4.28368E-09 4.94760E-12
4.57402E-09 4.44684E-12
4.87388E-09 4.01365E-12
5.18326E-09 3.63221E-12
5.50215E-09 3.27998E-12
5.83057E-09 2.97231E-12
6.16850E-09 2.70248E-12
6.51596E-09 2.45875E-12
6.87293E-09 2.23890E-12
7.23942E-09 2.04446E-12
7.61544E-09 1.87194E-12
1.18991E-08 8.40407E-13
1.71347E-08 4.35749E-13
2.33223E-08 2.51084E-13
3.04617E-08 1.55815E-13
3.85531E-08 1.01957E-13
4.75965E-08 6.94359E-14
5.75917E-08 4.87954E-14
6.85389E-08 3.51992E-14
8.04380E-08 2.59717E-14
9.32891E-08 1.95479E-14
1.07092E-07 1.49691E-14
1.21847E-07 1.16565E-14
1.37554E-07 9.20234E-15
1.54213E-07 7.36215E-15
1.71823E-07 5.95991E-15
1.90386E-07 4.87532E-15
2.09900E-07 4.02737E-15
2.30367E-07 3.35664E-15
2.51785E-07 2.82006E-15
2.74156E-07 2.38692E-15
2.97478E-07 2.03421E-15
3.21752E-07 1.74444E-15
3.46978E-07 1.50461E-15
3.73156E-07 1.30480E-15
4.00286E-07 1.13715E-15
4.28368E-07 9.95612E-16
4.57402E-07 8.75504E-16
4.87388E-07 7.73014E-16
5.18325E-07 6.85073E-16
5.50215E-07 6.09325E-16
5.83057E-07 5.43790E-16
6.16850E-07 4.86801E-16
6.51596E-07 4.37103E-16
6.87293E-07 3.93599E-16
7.23942E-07 3.55358E-16
7.61543E-07 3.21652E-16
1.18991E-06 1.33357E-16
1.71347E-06 6.47652E-17
2.33223E-06 3.51065E-17
3.04617E-06 2.06335E-17
3.85531E-06 1.29040E-17
4.75964E-06 8.47665E-18
5.75916E-06 5.79478E-18
6.85388E-06 4.09424E-18
8.04378E-06 2.97407E-18
9.32888E-06 2.21206E-18
1.07092E-05 1.67918E-18
1.21846E-05 1.29752E-18
1.37553E-05 1.01839E-18
1.54212E-05 8.10449E-19
1.71822E-05 6.52975E-19
1.90385E-05 5.31920E-19
2.09899E-05 4.37749E-19
2.30365E-05 3.63520E-19
2.51783E-05 3.04364E-19
2.74153E-05 2.56755E-19
2.97475E-05 2.18096E-19
3.21749E-05 1.86447E-19
3.46974E-05 1.60341E-19
3.73152E-05 1.38653E-19
4.00281E-05 1.20516E-19
4.28362E-05 1.05252E-19
4.57395E-05 9.23309E-20
4.87380E-05 8.13327E-20
5.18317E-05 7.19235E-20
5.50205E-05 6.38359E-20
5.83045E-05 5.68537E-20
6.16838E-05 5.08009E-20
6.51582E-05 4.55334E-20
6.87277E-05 4.09320E-20
7.23925E-05 3.68981E-20
7.61524E-05 3.33485E-20
9.21439E-05 2.27886E-20
1.09658E-04 1.60974E-20
1.28695E-04 1.16925E-20
1.49255E-04 8.69655E-21
1.71338E-04 6.60201E-21
1.94942E-04 5.10186E-21
2.20070E-04 4.00473E-21
2.46720E-04 3.18738E-21
2.74892E-04 2.56834E-21
3.04586E-04 2.09260E-21
3.35803E-04 1.72210E-21
3.68542E-04 1.43010E-21
4.02802E-04 1.19745E-21
4.38585E-04 1.01024E-21
4.75889E-04 8.58236E-22
5.14715E-04 7.33767E-22
5.55063E-04 6.31064E-22
5.96931E-04 5.45713E-22
6.40321E-04 4.74311E-22
6.85233E-04 4.14210E-22
7.31665E-04 3.63328E-22
7.79618E-04 3.20021E-22
8.29092E-04 2.82972E-22
8.80086E-04 2.51129E-22
9.32601E-04 2.23638E-22
9.86636E-04 1.99803E-22
1.04219E-03 1.79056E-22
1.09927E-03 1.60930E-22
1.15786E-03 1.45037E-22
1.21797E-03 1.31055E-22
1.27961E-03 1.18715E-22
1.34276E-03 1.07790E-22
1.40743E-03 9.80913E-23
1.47362E-03 8.94563E-23
1.54133E-03 8.17484E-23
1.61056E-03 7.48507E-23
1.68131E-03 6.86632E-23
1.75357E-03 6.30999E-23
1.82735E-03 5.80869E-23
1.90265E-03 5.35600E-23
1.97947E-03 4.94640E-23
2.05780E-03 4.57504E-23
2.13765E-03 4.23773E-23
2.21902E-03 3.93080E-23
2.30190E-03 3.65102E-23
2.38630E-03 3.39556E-23
2.47222E-03 3.16194E-23
2.55965E-03 2.94794E-23
2.64859E-03 2.75164E-23
2.73905E-03 2.57131E-23
2.83103E-03 2.40541E-23
2.92452E-03 2.25258E-23
3.01952E-03 2.11160E-23
3.11604E-03 1.98141E-23
3.21407E-03 1.86101E-23
3.31362E-03 1.74954E-23
3.41468E-03 1.64622E-23
3.51725E-03 1.55035E-23
3.62133E-03 1.46130E-23
3.72692E-03 1.37848E-23
3.83403E-03 1.30139E-23
3.94265E-03 1.22955E-23
4.05278E-03 1.16256E-23
4.16442E-03 1.10001E-23
4.27757E-03 1.04156E-23
4.39223E-03 9.86898E-24
4.50840E-03 9.35731E-24
4.62608E-03 8.87794E-24
4.74527E-03 8.42847E-24
4.86597E-03 8.00670E-24
4.98817E-03 7.61062E-24
5.11188E-03 7.23837E-24
5.23711E-03 6.88827E-24
5.36383E-03 6.55875E-24
5.49207E-03 6.24839E-24
5.62181E-03 5.95588E-24
5.75306E-03 5.68000E-24
5.88581E-03 5.41963E-24
6.02007E-03 5.17375E-24
6.15583E-03 4.94141E-24
6.29310E-03 4.72172E-24
6.43187E-03 4.51387E-24
6.57214E-03 4.31711E-24
6.71392E-03 4.13074E-24
6.85720E-03 3.95412E-24
7.00198E-03 3.78663E-24
7.14827E-03 3.62773E-24
7.29605E-03 3.47690E-24
7.44534E-03 3.33364E-24
7.59612E-03 3.19752E-24
7.97965E-03 2.88575E-24
8.37255E-03 2.61020E-24
8.77480E-03 2.36597E-24
9.18641E-03 2.14894E-24
9.60736E-03 1.95556E-24
1.00376E-02 1.78285E-24
1.04773E-02 1.62823E-24
1.09262E-02 1.48950E-24
1.13844E-02 1.36476E-24
1.18520E-02 1.25237E-24
1.23288E-02 1.15091E-24
1.28150E-02 1.05915E-24
1.33104E-02 9.76002E-25
1.38150E-02 9.00535E-25
1.43290E-02 8.31925E-25
1.48521E-02 7.69448E-25
1.53845E-02 7.12469E-25
1.59262E-02 6.60427E-25
1.64770E-02 6.12827E-25
1.70371E-02 5.69230E-25
1.76063E-02 5.29246E-25
1.81848E-02 4.92529E-25
1.87724E-02 4.58771E-25
1.93692E-02 4.27697E-25
1.99751E-02 3.99060E-25
2.05901E-02 3.72639E-25
2.12143E-02 3.48238E-25
2.18476E-02 3.25678E-25
2.24900E-02 3.04800E-25
2.31415E-02 2.85459E-25
2.38021E-02 2.67525E-25
2.44717E-02 2.50882E-25
2.51504E-02 2.35421E-25
2.58382E-02 2.21048E-25
2.65349E-02 2.07674E-25
2.72407E-02 1.95221E-25
2.79555E-02 1.83615E-25
2.86793E-02 1.72791E-25
2.94120E-02 1.62689E-25
3.01537E-02 1.53253E-25
3.09043E-02 1.44435E-25
3.16639E-02 1.36188E-25
3.24324E-02 1.28469E-25
3.32098E-02 1.21241E-25
3.39961E-02 1.14469E-25
3.47912E-02 1.08119E-25
3.55952E-02 1.02161E-25
3.64081E-02 9.65697E-26
3.72297E-02 9.13182E-26
3.80602E-02 8.63835E-26
3.88995E-02 8.17441E-26
3.97476E-02 7.73802E-26
4.06044E-02 7.32733E-26
4.14700E-02 6.94065E-26
4.23443E-02 6.57641E-26
4.32273E-02 6.23316E-26
4.41190E-02 5.90953E-26
4.50194E-02 5.60428E-26
4.59284E-02 5.31624E-26
4.68461E-02 5.04434E-26
4.87074E-02 4.54499E-26
5.06030E-02 4.09900E-26
5.25328E-02 3.70010E-26
5.44967E-02 3.34283E-26
5.64946E-02 3.02244E-26
5.85262E-02 2.73477E-26
6.05914E-02 2.47619E-26
6.26901E-02 2.24349E-26
6.48222E-02 2.03387E-26
6.69873E-02 1.84486E-26
6.91854E-02 1.67428E-26
7.14163E-02 1.52020E-26
7.36799E-02 1.38089E-26
7.59760E-02 1.25486E-26
7.83043E-02 1.14076E-26
8.06647E-02 1.03737E-26
8.30571E-02 9.43643E-27
8.54812E-02 8.58616E-27
8.79369E-02 7.81441E-27
9.04240E-02 7.11355E-27
9.29422E-02 6.47675E-27
9.54915E-02 5.89789E-27
9.80716E-02 5.37147E-27
1.00682E-01 4.89257E-27
1.03323E-01 4.45672E-27
1.05995E-01 4.05993E-27
1.08696E-01 3.69859E-27
1.11427E-01 3.36944E-27
1.14188E-01 3.06954E-27
1.16978E-01 2.79623E-27
1.19797E-01 2.54711E-27
1.22645E-01 2.32000E-27
1.25522E-01 2.11292E-27
1.28428E-01 1.92408E-27
1.31361E-01 1.75187E-27
1.34323E-01 1.59481E-27
1.37313E-01 1.45156E-27
1.40330E-01 1.32090E-27
1.43375E-01 1.20172E-27
1.46447E-01 1.09303E-27
1.49545E-01 9.93904E-28
1.52671E-01 9.03504E-28
1.55823E-01 8.21071E-28
1.59001E-01 7.45913E-28
1.62205E-01 6.77397E-28
1.65435E-01 6.14946E-28
1.68690E-01 5.58034E-28
1.71970E-01 5.06181E-28
1.75276E-01 4.58946E-28
1.78606E-01 4.15931E-28
1.81961E-01 3.76769E-28
1.85340E-01 3.41125E-28
1.88743E-01 3.08694E-28
1.92169E-01 2.79196E-28
1.95619E-01 2.52376E-28
1.99092E-01 2.28001E-28
2.02589E-01 2.05856E-28
2.06107E-01 1.85748E-28
2.09649E-01 1.67496E-28
2.13212E-01 1.50939E-28
2.16797E-01 1.35926E-28
2.20404E-01 1.22322E-28
2.24032E-01 1.10000E-28
2.27680E-01 9.88479E-29
2.31350E-01 8.87603E-29
2.35040E-01 7.96419E-29
2.38751E-01 7.14056E-29
2.42481E-01 6.39715E-29
2.46231E-01 5.72668E-29
2.50000E-01 5.12250E-29
2.53788E-01 4.57852E-29
2.57595E-01 4.08918E-29
2.61421E-01 3.64943E-29
2.65264E-01 3.25462E-29
2.69126E-01 2.90054E-29
2.73005E-01 2.58334E-29
2.76901E-01 2.29950E-29
2.80814E-01 2.04582E-29
2.84744E-01 1.81939E-29
2.88691E-01 1.61755E-29
2.92653E-01 1.43788E-29
2.96632E-01 1.27819E-29
3.00625E-01 1.13647E-29
3.04634E-01 1.01091E-29
3.08658E-01 8.99861E-30
3.12697E-01 8.01823E-30
3.16749E-01 7.15438E-30
3.20816E-01 6.39476E-30
3.24896E-01 5.72822E-30
3.28990E-01 5.14467E-30
3.33097E-01 4.63501E-30
3.37216E-01 4.19100E-30
3.41348E-01 3.80520E-30
3.45492E-01 3.47093E-30
3.49647E-01 3.18215E-30
3.53814E-01 2.93344E-30
3.57992E-01 2.71994E-30
3.62181E-01 2.53728E-30
3.66381E-01 2.38155E-30
3.70590E-01 2.24924E-30
3.74810E-01 2.13725E-30
3.79039E-01 2.04278E-30
3.83277E-01 1.96336E-30
3.87524E-01 1.89679E-30
3.91780E-01 1.84114E-30
3.96044E-01 1.79468E-30
4.00316E-01 1.75590E-30
4.04596E-01 1.72347E-30
4.08882E-01 1.69623E-30
4.13176E-01 1.67317E-30
4.17476E-01 1.65339E-30
4.21783E-01 1.63615E-30
4.26095E-01 1.62078E-30
4.30413E-01 1.60673E-30
4.34737E-01 1.59351E-30
4.39065E-01 1.58074E-30
4.43398E-01 1.56807E-30
4.47736E-01 1.55524E-30
4.52077E-01 1.54201E-30
4.56422E-01 1.52821E-30
4.60770E-01 1.51371E-30
4.65122E-01 1.49840E-30
4.69476E-01 1.48221E-30
4.73832E-01 1.46510E-30
4.78190E-01 1.44703E-30
4.82550E-01 1.42801E-30
4.86912E-01 1.40804E-30
4.91274E-01 1.38715E-30
4.95637E-01 1.36538E-30
5.00000E-01 1.34277E-30
5.04363E-01 1.31937E-30
5.08726E-01 1.29525E-30
5.13088E-01 1.27045E-30
5.17450E-01 1.24505E-30
5.21810E-01 1.21912E-30
5.26168E-01 1.19271E-30
5.30524E-01 1.16591E-30
5.34878E-01 1.13877E-30
5.39230E-01 1.11137E-30
5.43578E-01 1.08377E-30
5.47923E-01 1.05603E-30
5.52264E-01 1.02821E-30
5.56602E-01 1.00038E-30
5.60935E-01 9.72579E-31
5.65263E-01 9.44871E-31
5.69587E-01 9.17304E-31
5.73905E-01 8.89923E-31
5.78217E-01 8.62773E-31
5.82524E-01 8.35893E-31
5.86824E-01 8.09323E-31
5.91118E-01 7.83095E-31
5.95404E-01 7.57241E-31
5.99684E-01 7.31790E-31
6.03956E-01 7.06768E-31
6.08220E-01 6.82197E-31
6.12476E-01 6.58099E-31
6.16723E-01 6.34489E-31
6.20961E-01 6.11385E-31
6.25190E-01 5.88798E-31
6.29410E-01 5.66740E-31
6.33619E-01 5.45219E-31
6.37819E-01 5.24243E-31
6.42008E-01 5.03816E-31
6.46186E-01 4.83942E-31
6.50353E-01 4.64622E-31
6.54508E-01 4.45857E-31
6.58652E-01 4.27645E-31
6.62784E-01 4.09984E-31
6.66903E-01 3.92871E-31
6.71010E-01 3.76300E-31
6.75104E-01 3.60266E-31
6.79184E-01 3.44763E-31
6.83251E-01 3.29783E-31
6.87303E-01 3.15318E-31
6.91342E-01 3.01361E-31
6.95366E-01 2.87900E-31
6.99375E-01 2.74928E-31
7.03368E-01 2.62433E-31
7.07347E-01 2.50405E-31
7.11309E-01 2.38834E-31
7.15256E-01 2.27709E-31
7.19186E-01 2.17017E-31
7.23099E-01 2.06749E-31
7.26995E-01 1.96892E-31
7.30874E-01 1.87435E-31
7.34736E-01 1.78366E-31
7.38579E-01 1.69674E-31
7.42405E-01 1.61347E-31
7.46212E-01 1.53374E-31
7.50000E-01 1.45743E-31
7.53769E-01 1.38443E-31
7.57519E-01 1.31463E-31
7.61249E-01 1.24793E-31
7.64960E-01 1.18420E-31
7.68650E-01 1.12335E-31
7.72320E-01 1.06526E-31
7.75968E-01 1.00985E-31
7.79596E-01 9.57000E-32
7.83203E-01 9.06622E-32
7.86788E-01 8.58617E-32
7.90351E-01 8.12894E-32
7.93893E-01 7.69359E-32
7.97411E-01 7.27926E-32
8.00908E-01 6.88508E-32
8.04381E-01 6.51021E-32
8.07831E-01 6.15385E-32
8.11257E-01 5.81521E-32
8.14660E-01 5.49352E-32
8.18039E-01 5.18805E-32
8.21394E-01 4.89810E-32
8.24724E-01 4.62296E-32
8.28030E-01 4.36198E-32
8.31310E-01 4.11452E-32
8.34565E-01 3.87996E-32
8.37795E-01 3.65770E-32
8.40999E-01 3.44717E-32
8.44177E-01 3.24782E-32
8.47329E-01 3.05912E-32
8.50455E-01 2.88056E-32
8.53553E-01 2.71166E-32
8.56625E-01 2.55193E-32
8.59670E-01 2.40095E-32
8.62687E-01 2.25826E-32
8.65677E-01 2.12346E-32
8.68639E-01 1.99616E-32
8.71572E-01 1.87597E-32
8.74478E-01 1.76254E-32
8.77355E-01 1.65551E-32
8.80203E-01 1.55456E-32
8.83022E-01 1.45937E-32
8.85812E-01 1.36964E-32
8.88573E-01 1.28508E-32
8.91304E-01 1.20542E-32
8.94005E-01 1.13039E-32
8.96677E-01 1.05975E-32
8.99318E-01 9.93262E-33
9.01928E-01 9.30695E-33
9.04508E-01 8.71839E-33
9.07058E-01 8.16487E-33
9.09576E-01 7.64445E-33
9.12063E-01 7.15530E-33
9.14519E-01 6.69565E-33
9.16943E-01 6.26384E-33
9.19335E-01 5.85830E-33
9.21696E-01 5.47752E-33
9.24024E-01 5.12009E-33
9.26320E-01 4.78466E-33
9.28584E-01 4.46994E-33
9.30815E-01 4.17475E-33
9.33013E-01 3.89792E-33
9.35178E-01 3.63839E-33
9.37310E-01 3.39512E-33
9.39409E-01 3.16715E-33
9.41474E-01 2.95356E-33
9.43505E-01 2.75349E-33
9.45503E-01 2.56612E-33
9.47467E-01 2.39069E-33
9.49397E-01 2.22646E-33
9.51293E-01 2.07275E-33
9.53154E-01 1.92891E-33
9.54981E-01 1.79434E-33
9.56773E-01 1.66846E-33
9.58530E-01 1.55072E-33
9.60252E-01 1.44063E-33
9.61940E-01 1.33770E-33
9.63592E-01 1.24148E-33
9.65209E-01 1.15155E-33
9.66790E-01 1.06751E-33
9.68336E-01 9.88992E-34
9.69846E-01 9.15633E-34
9.71321E-01 8.47114E-34
9.72759E-01 7.83121E-34
9.74162E-01 7.23368E-34
9.75528E-01 6.67579E-34
9.76858E-01 6.15504E-34
9.78152E-01 5.66902E-34
9.79410E-01 5.21553E-34
9.80631E-01 4.79246E-34
9.81815E-01 4.39789E-34
9.82963E-01 4.02997E-34
9.84074E-01 3.68702E-34
9.85148E-01 3.36744E-34
9.86185E-01 3.06976E-34
9.87185E-01 2.79260E-34
9.88148E-01 2.53469E-34
9.89074E-01 2.29480E-34
9.89962E-01 2.07186E-34
9.90814E-01 1.86481E-34
9.91627E-01 1.67271E-34
9.92404E-01 1.49467E-34
9.93143E-01 1.32986E-34
9.93844E-01 1.17753E-34
9.94508E-01 1.03698E-34
9.95134E-01 9.07569E-35
9.95722E-01 7.88701E-35
9.96273E-01 6.79834E-35
9.96786E-01 5.80483E-35
9.97261E-01 4.90177E-35
9.97698E-01 4.08515E-35
9.98097E-01 3.35131E-35
9.98459E-01 2.69699E-35
9.98782E-01 2.11914E-35
9.99067E-01 1.61518E-35
9.99315E-01 1.18290E-35
9.99524E-01 8.20283E-36
9.99695E-01 5.25830E-36
9.99829E-01 2.98135E-36
9.99924E-01 1.36234E-36
9.99981E-01 3.93874E-37
1.00000E+00 7.14884E-38
