 #
 # Subroutine ELSEPA. Elastic scattering of electrons and positrons
 #                    by neutral atoms and positive ions
 #
 # Projectile: electron
 # Kinetic energy = 6.00000E+06 eV = 2.20496E+05 a.u.
 #
 # WARNING: High-energy factorization with free-atom DF screening.
 #          Absorption, polarization and exchange corrections are
 #          switched off.
 #          Phase shifts are calculated for the bare nucleus.
 #          Scattering amplitudes are not evaluated.
 #
 # Element: Cu,  Z =  29,  atomic weight = 6.35460E+01 g/mol
 #
 # Nuclear model: Fermi distribution
 #                Average radius = 4.26986E-13 cm
 #                Skin thickness = 5.46000E-14 cm
 #
 # Number of electrons = 29
 #
 # Total elastic cross section = 1.85288E-18 cm**2 = 6.61675E-02 a0**2
 # 1st transport cross section = 3.20992E-23 cm**2 = 1.14628E-06 a0**2
 # 2nd transport cross section = 9.11477E-23 cm**2 = 3.25494E-06 a0**2
 #
 #
 # Differential cross section:                       MU=(1-COS(THETA))/2
 #
 #  THETA        MU          DCS          DCS        Sherman      error
 #  (deg)                 (cm**2/sr)   (a0**2/sr)    function
 #----------------------------------------------------------------------
0.00000E+00 5.01891E-13
7.61557E-13 5.01886E-13
1.18994E-12 5.01883E-13
1.71346E-12 5.01879E-13
2.33225E-12 5.01875E-13
3.04617E-12 5.01870E-13
3.85530E-12 5.01865E-13
4.75964E-12 5.01859E-13
5.75917E-12 5.01852E-13
6.85391E-12 5.01845E-13
8.04379E-12 5.01837E-13
9.32893E-12 5.01828E-13
1.07092E-11 5.01819E-13
1.21847E-11 5.01809E-13
1.37554E-11 5.01798E-13
1.54213E-11 5.01787E-13
1.71823E-11 5.01775E-13
1.90386E-11 5.01763E-13
2.09900E-11 5.01750E-13
2.30367E-11 5.01736E-13
2.51785E-11 5.01721E-13
2.74156E-11 5.01706E-13
2.97478E-11 5.01691E-13
3.21752E-11 5.01674E-13
3.46979E-11 5.01657E-13
3.73157E-11 5.01640E-13
4.00286E-11 5.01622E-13
4.28368E-11 5.01603E-13
4.57402E-11 5.01583E-13
4.87388E-11 5.01563E-13
5.18325E-11 5.01542E-13
5.50215E-11 5.01521E-13
5.83057E-11 5.01499E-13
6.16850E-11 5.01476E-13
6.51595E-11 5.01453E-13
6.87293E-11 5.01429E-13
7.23943E-11 5.01404E-13
7.61544E-11 5.01379E-13
1.18991E-10 5.01092E-13
1.71347E-10 5.00741E-13
2.33223E-10 5.00327E-13
3.04617E-10 4.99850E-13
3.85531E-10 4.99310E-13
4.75965E-10 4.98709E-13
5.75917E-10 4.98045E-13
6.85389E-10 4.97321E-13
8.04380E-10 4.96536E-13
9.32891E-10 4.95690E-13
1.07092E-09 4.94785E-13
1.21847E-09 4.93821E-13
1.37554E-09 4.92799E-13
1.54213E-09 4.91719E-13
1.71823E-09 4.90583E-13
1.90386E-09 4.89390E-13
2.09900E-09 4.88142E-13
2.30367E-09 4.86840E-13
2.51785E-09 4.85484E-13
2.74156E-09 4.84075E-13
2.97478E-09 4.82615E-13
3.21752E-09 4.81105E-13
3.46978E-09 4.79544E-13
3.73156E-09 4.77935E-13
4.00286E-09 4.76278E-13
4.28368E-09 4.74575E-13
4.57402E-09 4.72826E-13
4.87388E-09 4.71032E-13
5.18326E-09 4.69195E-13
5.50215E-09 4.67314E-13
5.83057E-09 4.65382E-13
6.16850E-09 4.63413E-13
6.51596E-09 4.61409E-13
6.87293E-09 4.59370E-13
7.23942E-09 4.57298E-13
7.61544E-09 4.55195E-13
1.18991E-08 4.32454E-13
1.71347E-08 4.07477E-13
2.33223E-08 3.81360E-13
3.04617E-08 3.55080E-13
3.85531E-08 3.29376E-13
4.75965E-08 3.04776E-13
5.75917E-08 2.81612E-13
6.85389E-08 2.60007E-13
8.04380E-08 2.40098E-13
9.32891E-08 2.21865E-13
1.07092E-07 2.05233E-13
1.21847E-07 1.90093E-13
1.37554E-07 1.76292E-13
1.54213E-07 1.63717E-13
1.71823E-07 1.52269E-13
1.90386E-07 1.41831E-13
2.09900E-07 1.32297E-13
2.30367E-07 1.23565E-13
2.51785E-07 1.15524E-13
2.74156E-07 1.08134E-13
2.97478E-07 1.01329E-13
3.21752E-07 9.50494E-14
3.46978E-07 8.92436E-14
3.73156E-07 8.38488E-14
4.00286E-07 7.88366E-14
4.28368E-07 7.41807E-14
4.57402E-07 6.98492E-14
4.87388E-07 6.58142E-14
5.18325E-07 6.20472E-14
5.50215E-07 5.84388E-14
5.83057E-07 5.47804E-14
6.16850E-07 5.14809E-14
6.51596E-07 4.84975E-14
6.87293E-07 4.57932E-14
7.23942E-07 4.33359E-14
7.61543E-07 4.10980E-14
1.18991E-06 2.41950E-14
1.71347E-06 1.46041E-14
2.33223E-06 9.07910E-15
3.04617E-06 5.84560E-15
3.85531E-06 3.89466E-15
4.75964E-06 2.68174E-15
5.75916E-06 1.90456E-15
6.85388E-06 1.39099E-15
8.04378E-06 1.04230E-15
9.32888E-06 7.98670E-16
1.07092E-05 6.23918E-16
1.21846E-05 4.95558E-16
1.37553E-05 3.99199E-16
1.54212E-05 3.25431E-16
1.71822E-05 2.68139E-16
1.90385E-05 2.22991E-16
2.09899E-05 1.87013E-16
2.30365E-05 1.57974E-16
2.51783E-05 1.34275E-16
2.74153E-05 1.14804E-16
2.97475E-05 9.86908E-17
3.21749E-05 8.52693E-17
3.46974E-05 7.40242E-17
3.73152E-05 6.45437E-17
4.00281E-05 5.65130E-17
4.28362E-05 4.96782E-17
4.57395E-05 4.38331E-17
4.87380E-05 3.88119E-17
5.18317E-05 3.44803E-17
5.50205E-05 3.07257E-17
5.83045E-05 2.74566E-17
6.16838E-05 2.46174E-17
6.51582E-05 2.21420E-17
6.87277E-05 1.99589E-17
7.23925E-05 1.80385E-17
7.61524E-05 1.63468E-17
9.21439E-05 1.12700E-17
1.09658E-04 8.01978E-18
1.28695E-04 5.86412E-18
1.49255E-04 4.38855E-18
1.71338E-04 3.35087E-18
1.94942E-04 2.60354E-18
2.20070E-04 2.05394E-18
2.46720E-04 1.64238E-18
2.74892E-04 1.32915E-18
3.04586E-04 1.08731E-18
3.35803E-04 8.98134E-19
3.68542E-04 7.48416E-19
4.02802E-04 6.28632E-19
4.38585E-04 5.31898E-19
4.75889E-04 4.53084E-19
5.14715E-04 3.88345E-19
5.55063E-04 3.34768E-19
5.96931E-04 2.90115E-19
6.40321E-04 2.52662E-19
6.85233E-04 2.21063E-19
7.31665E-04 1.94252E-19
7.79618E-04 1.71386E-19
8.29092E-04 1.51787E-19
8.80086E-04 1.34910E-19
9.32601E-04 1.20315E-19
9.86636E-04 1.07641E-19
1.04219E-03 9.65940E-20
1.09927E-03 8.69288E-20
1.15786E-03 7.84427E-20
1.21797E-03 7.09678E-20
1.27961E-03 6.43630E-20
1.34276E-03 5.85095E-20
1.40743E-03 5.33071E-20
1.47362E-03 4.86707E-20
1.54133E-03 4.45279E-20
1.61056E-03 4.08171E-20
1.68131E-03 3.74854E-20
1.75357E-03 3.44873E-20
1.82735E-03 3.17833E-20
1.90265E-03 2.93396E-20
1.97947E-03 2.71266E-20
2.05780E-03 2.51187E-20
2.13765E-03 2.32935E-20
2.21902E-03 2.16314E-20
2.30190E-03 2.01152E-20
2.38630E-03 1.87297E-20
2.47222E-03 1.74618E-20
2.55965E-03 1.62995E-20
2.64859E-03 1.52326E-20
2.73905E-03 1.42518E-20
2.83103E-03 1.33488E-20
2.92452E-03 1.25164E-20
3.01952E-03 1.17480E-20
3.11604E-03 1.10378E-20
3.21407E-03 1.03806E-20
3.31362E-03 9.77177E-21
3.41468E-03 9.20702E-21
3.51725E-03 8.68259E-21
3.62133E-03 8.19508E-21
3.72692E-03 7.74140E-21
3.83403E-03 7.31879E-21
3.94265E-03 6.92470E-21
4.05278E-03 6.55686E-21
4.16442E-03 6.21320E-21
4.27757E-03 5.89183E-21
4.39223E-03 5.59104E-21
4.50840E-03 5.30927E-21
4.62608E-03 5.04508E-21
4.74527E-03 4.79717E-21
4.86597E-03 4.56436E-21
4.98817E-03 4.34555E-21
5.11188E-03 4.13974E-21
5.23711E-03 3.94602E-21
5.36383E-03 3.76353E-21
5.49207E-03 3.59151E-21
5.62181E-03 3.42925E-21
5.75306E-03 3.27608E-21
5.88581E-03 3.13140E-21
6.02007E-03 2.99465E-21
6.15583E-03 2.86531E-21
6.29310E-03 2.74291E-21
6.43187E-03 2.62699E-21
6.57214E-03 2.51717E-21
6.71392E-03 2.41304E-21
6.85720E-03 2.31427E-21
7.00198E-03 2.22051E-21
7.14827E-03 2.13148E-21
7.29605E-03 2.04689E-21
7.44534E-03 1.96647E-21
7.59612E-03 1.88997E-21
7.97965E-03 1.71446E-21
8.37255E-03 1.55894E-21
8.77480E-03 1.42073E-21
9.18641E-03 1.29757E-21
9.60736E-03 1.18752E-21
1.00376E-02 1.08895E-21
1.04773E-02 1.00044E-21
1.09262E-02 9.20790E-22
1.13844E-02 8.48944E-22
1.18520E-02 7.84003E-22
1.23288E-02 7.25185E-22
1.28150E-02 6.71806E-22
1.33104E-02 6.23274E-22
1.38150E-02 5.79067E-22
1.43290E-02 5.38731E-22
1.48521E-02 5.01863E-22
1.53845E-02 4.68113E-22
1.59262E-02 4.37167E-22
1.64770E-02 4.08749E-22
1.70371E-02 3.82616E-22
1.76063E-02 3.58549E-22
1.81848E-02 3.36355E-22
1.87724E-02 3.15861E-22
1.93692E-02 2.96912E-22
1.99751E-02 2.79372E-22
2.05901E-02 2.63114E-22
2.12143E-02 2.48029E-22
2.18476E-02 2.34015E-22
2.24900E-02 2.20983E-22
2.31415E-02 2.08850E-22
2.38021E-02 1.97543E-22
2.44717E-02 1.86995E-22
2.51504E-02 1.77146E-22
2.58382E-02 1.67941E-22
2.65349E-02 1.59329E-22
2.72407E-02 1.51265E-22
2.79555E-02 1.43707E-22
2.86793E-02 1.36619E-22
2.94120E-02 1.29964E-22
3.01537E-02 1.23713E-22
3.09043E-02 1.17834E-22
3.16639E-02 1.12303E-22
3.24324E-02 1.07094E-22
3.32098E-02 1.02185E-22
3.39961E-02 9.75560E-23
3.47912E-02 9.31875E-23
3.55952E-02 8.90621E-23
3.64081E-02 8.51637E-23
3.72297E-02 8.14774E-23
3.80602E-02 7.79895E-23
3.88995E-02 7.46872E-23
3.97476E-02 7.15588E-23
4.06044E-02 6.85934E-23
4.14700E-02 6.57807E-23
4.23443E-02 6.31115E-23
4.32273E-02 6.05770E-23
4.41190E-02 5.81691E-23
4.50194E-02 5.58803E-23
4.59284E-02 5.37034E-23
4.68461E-02 5.16321E-23
4.87074E-02 4.77818E-23
5.06030E-02 4.42855E-23
5.25328E-02 4.11045E-23
5.44967E-02 3.82053E-23
5.64946E-02 3.55582E-23
5.85262E-02 3.31373E-23
6.05914E-02 3.09197E-23
6.26901E-02 2.88853E-23
6.48222E-02 2.70159E-23
6.69873E-02 2.52959E-23
6.91854E-02 2.37110E-23
7.14163E-02 2.22486E-23
7.36799E-02 2.08975E-23
7.59760E-02 1.96477E-23
7.83043E-02 1.84901E-23
8.06647E-02 1.74166E-23
8.30571E-02 1.64201E-23
8.54812E-02 1.54939E-23
8.79369E-02 1.46321E-23
9.04240E-02 1.38295E-23
9.29422E-02 1.30812E-23
9.54915E-02 1.23828E-23
9.80716E-02 1.17304E-23
1.00682E-01 1.11203E-23
1.03323E-01 1.05494E-23
1.05995E-01 1.00146E-23
1.08696E-01 9.51320E-24
1.11427E-01 9.04272E-24
1.14188E-01 8.60090E-24
1.16978E-01 8.18565E-24
1.19797E-01 7.79509E-24
1.22645E-01 7.42746E-24
1.25522E-01 7.08116E-24
1.28428E-01 6.75471E-24
1.31361E-01 6.44676E-24
1.34323E-01 6.15608E-24
1.37313E-01 5.88149E-24
1.40330E-01 5.62195E-24
1.43375E-01 5.37647E-24
1.46447E-01 5.14414E-24
1.49545E-01 4.92413E-24
1.52671E-01 4.71565E-24
1.55823E-01 4.51800E-24
1.59001E-01 4.33050E-24
1.62205E-01 4.15252E-24
1.65435E-01 3.98350E-24
1.68690E-01 3.82289E-24
1.71970E-01 3.67020E-24
1.75276E-01 3.52497E-24
1.78606E-01 3.38676E-24
1.81961E-01 3.25516E-24
1.85340E-01 3.12980E-24
1.88743E-01 3.01033E-24
1.92169E-01 2.89641E-24
1.95619E-01 2.78775E-24
1.99092E-01 2.68406E-24
2.02589E-01 2.58505E-24
2.06107E-01 2.49048E-24
2.09649E-01 2.40011E-24
2.13212E-01 2.31373E-24
2.16797E-01 2.23113E-24
2.20404E-01 2.15209E-24
2.24032E-01 2.07645E-24
2.27680E-01 2.00402E-24
2.31350E-01 1.93466E-24
2.35040E-01 1.86820E-24
2.38751E-01 1.80449E-24
2.42481E-01 1.74341E-24
2.46231E-01 1.68482E-24
2.50000E-01 1.62860E-24
2.53788E-01 1.57464E-24
2.57595E-01 1.52284E-24
2.61421E-01 1.47308E-24
2.65264E-01 1.42527E-24
2.69126E-01 1.37933E-24
2.73005E-01 1.33516E-24
2.76901E-01 1.29269E-24
2.80814E-01 1.25183E-24
2.84744E-01 1.21252E-24
2.88691E-01 1.17468E-24
2.92653E-01 1.13825E-24
2.96632E-01 1.10317E-24
3.00625E-01 1.06937E-24
3.04634E-01 1.03681E-24
3.08658E-01 1.00542E-24
3.12697E-01 9.75162E-25
3.16749E-01 9.45983E-25
3.20816E-01 9.17839E-25
3.24896E-01 8.90685E-25
3.28990E-01 8.64481E-25
3.33097E-01 8.39186E-25
3.37216E-01 8.14764E-25
3.41348E-01 7.91179E-25
3.45492E-01 7.68397E-25
3.49647E-01 7.46385E-25
3.53814E-01 7.25113E-25
3.57992E-01 7.04551E-25
3.62181E-01 6.84672E-25
3.66381E-01 6.65448E-25
3.70590E-01 6.46854E-25
3.74810E-01 6.28865E-25
3.79039E-01 6.11458E-25
3.83277E-01 5.94612E-25
3.87524E-01 5.78304E-25
3.91780E-01 5.62514E-25
3.96044E-01 5.47223E-25
4.00316E-01 5.32413E-25
4.04596E-01 5.18065E-25
4.08882E-01 5.04162E-25
4.13176E-01 4.90688E-25
4.17476E-01 4.77628E-25
4.21783E-01 4.64966E-25
4.26095E-01 4.52689E-25
4.30413E-01 4.40782E-25
4.34737E-01 4.29232E-25
4.39065E-01 4.18027E-25
4.43398E-01 4.07154E-25
4.47736E-01 3.96603E-25
4.52077E-01 3.86361E-25
4.56422E-01 3.76418E-25
4.60770E-01 3.66764E-25
4.65122E-01 3.57390E-25
4.69476E-01 3.48284E-25
4.73832E-01 3.39439E-25
4.78190E-01 3.30846E-25
4.82550E-01 3.22496E-25
4.86912E-01 3.14381E-25
4.91274E-01 3.06494E-25
4.95637E-01 2.98826E-25
5.00000E-01 2.91371E-25
5.04363E-01 2.84123E-25
5.08726E-01 2.77073E-25
5.13088E-01 2.70216E-25
5.17450E-01 2.63546E-25
5.21810E-01 2.57056E-25
5.26168E-01 2.50742E-25
5.30524E-01 2.44597E-25
5.34878E-01 2.38616E-25
5.39230E-01 2.32794E-25
5.43578E-01 2.27126E-25
5.47923E-01 2.21607E-25
5.52264E-01 2.16234E-25
5.56602E-01 2.11001E-25
5.60935E-01 2.05903E-25
5.65263E-01 2.00938E-25
5.69587E-01 1.96101E-25
5.73905E-01 1.91388E-25
5.78217E-01 1.86795E-25
5.82524E-01 1.82319E-25
5.86824E-01 1.77957E-25
5.91118E-01 1.73705E-25
5.95404E-01 1.69560E-25
5.99684E-01 1.65518E-25
6.03956E-01 1.61578E-25
6.08220E-01 1.57735E-25
6.12476E-01 1.53987E-25
6.16723E-01 1.50332E-25
6.20961E-01 1.46767E-25
6.25190E-01 1.43288E-25
6.29410E-01 1.39895E-25
6.33619E-01 1.36583E-25
6.37819E-01 1.33352E-25
6.42008E-01 1.30199E-25
6.46186E-01 1.27122E-25
6.50353E-01 1.24118E-25
6.54508E-01 1.21185E-25
6.58652E-01 1.18323E-25
6.62784E-01 1.15528E-25
6.66903E-01 1.12799E-25
6.71010E-01 1.10134E-25
6.75104E-01 1.07532E-25
6.79184E-01 1.04990E-25
6.83251E-01 1.02508E-25
6.87303E-01 1.00083E-25
6.91342E-01 9.77149E-26
6.95366E-01 9.54009E-26
6.99375E-01 9.31402E-26
7.03368E-01 9.09313E-26
7.07347E-01 8.87730E-26
7.11309E-01 8.66638E-26
7.15256E-01 8.46025E-26
7.19186E-01 8.25880E-26
7.23099E-01 8.06190E-26
7.26995E-01 7.86944E-26
7.30874E-01 7.68131E-26
7.34736E-01 7.49740E-26
7.38579E-01 7.31760E-26
7.42405E-01 7.14181E-26
7.46212E-01 6.96993E-26
7.50000E-01 6.80188E-26
7.53769E-01 6.63754E-26
7.57519E-01 6.47684E-26
7.61249E-01 6.31968E-26
7.64960E-01 6.16598E-26
7.68650E-01 6.01566E-26
7.72320E-01 5.86863E-26
7.75968E-01 5.72482E-26
7.79596E-01 5.58415E-26
7.83203E-01 5.44655E-26
7.86788E-01 5.31194E-26
7.90351E-01 5.18025E-26
7.93893E-01 5.05142E-26
7.97411E-01 4.92539E-26
8.00908E-01 4.80207E-26
8.04381E-01 4.68142E-26
8.07831E-01 4.56338E-26
8.11257E-01 4.44788E-26
8.14660E-01 4.33486E-26
8.18039E-01 4.22427E-26
8.21394E-01 4.11606E-26
8.24724E-01 4.01018E-26
8.28030E-01 3.90656E-26
8.31310E-01 3.80517E-26
8.34565E-01 3.70595E-26
8.37795E-01 3.60885E-26
8.40999E-01 3.51383E-26
8.44177E-01 3.42085E-26
8.47329E-01 3.32986E-26
8.50455E-01 3.24081E-26
8.53553E-01 3.15367E-26
8.56625E-01 3.06840E-26
8.59670E-01 2.98496E-26
8.62687E-01 2.90330E-26
8.65677E-01 2.82340E-26
8.68639E-01 2.74521E-26
8.71572E-01 2.66870E-26
8.74478E-01 2.59384E-26
8.77355E-01 2.52059E-26
8.80203E-01 2.44893E-26
8.83022E-01 2.37881E-26
8.85812E-01 2.31021E-26
8.88573E-01 2.24309E-26
8.91304E-01 2.17744E-26
8.94005E-01 2.11322E-26
8.96677E-01 2.05040E-26
8.99318E-01 1.98895E-26
9.01928E-01 1.92886E-26
9.04508E-01 1.87009E-26
9.07058E-01 1.81261E-26
9.09576E-01 1.75642E-26
9.12063E-01 1.70147E-26
9.14519E-01 1.64775E-26
9.16943E-01 1.59524E-26
9.19335E-01 1.54392E-26
9.21696E-01 1.49375E-26
9.24024E-01 1.44473E-26
9.26320E-01 1.39684E-26
9.28584E-01 1.35004E-26
9.30815E-01 1.30433E-26
9.33013E-01 1.25969E-26
9.35178E-01 1.21609E-26
9.37310E-01 1.17352E-26
9.39409E-01 1.13197E-26
9.41474E-01 1.09141E-26
9.43505E-01 1.05183E-26
9.45503E-01 1.01322E-26
9.47467E-01 9.75556E-27
9.49397E-01 9.38828E-27
9.51293E-01 9.03021E-27
9.53154E-01 8.68120E-27
9.54981E-01 8.34112E-27
9.56773E-01 8.00984E-27
9.58530E-01 7.68722E-27
9.60252E-01 7.37315E-27
9.61940E-01 7.06751E-27
9.63592E-01 6.77017E-27
9.65209E-01 6.48102E-27
9.66790E-01 6.19996E-27
9.68336E-01 5.92688E-27
9.69846E-01 5.66167E-27
9.71321E-01 5.40423E-27
9.72759E-01 5.15447E-27
9.74162E-01 4.91229E-27
9.75528E-01 4.67761E-27
9.76858E-01 4.45032E-27
9.78152E-01 4.23036E-27
9.79410E-01 4.01763E-27
9.80631E-01 3.81206E-27
9.81815E-01 3.61357E-27
9.82963E-01 3.42210E-27
9.84074E-01 3.23755E-27
9.85148E-01 3.05988E-27
9.86185E-01 2.88901E-27
9.87185E-01 2.72489E-27
9.88148E-01 2.56744E-27
9.89074E-01 2.41662E-27
9.89962E-01 2.27237E-27
9.90814E-01 2.13464E-27
9.91627E-01 2.00337E-27
9.92404E-01 1.87852E-27
9.93143E-01 1.76004E-27
9.93844E-01 1.64789E-27
9.94508E-01 1.54203E-27
9.95134E-01 1.44243E-27
9.95722E-01 1.34903E-27
9.96273E-01 1.26182E-27
9.96786E-01 1.18076E-27
9.97261E-01 1.10582E-27
9.97698E-01 1.03698E-27
9.98097E-01 9.74199E-28
9.98459E-01 9.17469E-28
9.98782E-01 8.66764E-28
9.99067E-01 8.22068E-28
9.99315E-01 7.83363E-28
9.99524E-01 7.50637E-28
9.99695E-01 7.23876E-28
9.99829E-01 7.03072E-28
9.99924E-01 6.88218E-28
9.99981E-01 6.79307E-28
1.00000E+00 6.76337E-28
