 #
 # Subroutine ELSEPA. Elastic scattering of electrons and positrons
 #                    by neutral atoms and positive ions
 #
 # Projectile: electron
 # Kinetic energy = 3.50000E+07 eV = 1.28623E+06 a.u.
 #
 # WARNING: High-energy factorization with free-atom DF screening.
 #          Absorption, polarization and exchange corrections are
 #          switched off.
 #          Phase shifts are calculated for the bare nucleus.
 #          Scattering amplitudes are not evaluated.
 #
 # Element: Cu,  Z =  29,  atomic weight = 6.35460E+01 g/mol
 #
 # Nuclear model: Fermi distribution
 #                Average radius = 4.26986E-13 cm
 #                Skin thickness = 5.46000E-14 cm
 #
 # Number of electrons = 29
 #
 # Total elastic cross section = 1.84072E-18 cm**2 = 6.57331E-02 a0**2
 # 1st transport cross section = 1.31681E-24 cm**2 = 4.70240E-08 a0**2
 # 2nd transport cross section = 3.82488E-24 cm**2 = 1.36589E-07 a0**2
 #
 #
 # Differential cross section:                       MU=(1-COS(THETA))/2
 #
 #  THETA        MU          DCS          DCS        Sherman      error
 #  (deg)                 (cm**2/sr)   (a0**2/sr)    function
 #----------------------------------------------------------------------
0.00000E+00 1.49293E-11
7.61557E-13 1.49247E-11
1.18994E-12 1.49221E-11
1.71346E-12 1.49190E-11
2.33225E-12 1.49153E-11
3.04617E-12 1.49110E-11
3.85530E-12 1.49062E-11
4.75964E-12 1.49008E-11
5.75917E-12 1.48948E-11
6.85391E-12 1.48883E-11
8.04379E-12 1.48812E-11
9.32893E-12 1.48735E-11
1.07092E-11 1.48653E-11
1.21847E-11 1.48566E-11
1.37554E-11 1.48472E-11
1.54213E-11 1.48374E-11
1.71823E-11 1.48270E-11
1.90386E-11 1.48160E-11
2.09900E-11 1.48045E-11
2.30367E-11 1.47924E-11
2.51785E-11 1.47798E-11
2.74156E-11 1.47667E-11
2.97478E-11 1.47530E-11
3.21752E-11 1.47388E-11
3.46979E-11 1.47241E-11
3.73157E-11 1.47088E-11
4.00286E-11 1.46930E-11
4.28368E-11 1.46767E-11
4.57402E-11 1.46599E-11
4.87388E-11 1.46426E-11
5.18325E-11 1.46248E-11
5.50215E-11 1.46064E-11
5.83057E-11 1.45876E-11
6.16850E-11 1.45682E-11
6.51595E-11 1.45484E-11
6.87293E-11 1.45281E-11
7.23943E-11 1.45073E-11
7.61544E-11 1.44860E-11
1.18991E-10 1.42475E-11
1.71347E-10 1.39661E-11
2.33223E-10 1.36460E-11
3.04617E-10 1.32951E-11
3.85531E-10 1.29176E-11
4.75965E-10 1.25189E-11
5.75917E-10 1.21068E-11
6.85389E-10 1.16837E-11
8.04380E-10 1.12557E-11
9.32891E-10 1.08287E-11
1.07092E-09 1.04026E-11
1.21847E-09 9.98355E-12
1.37554E-09 9.57498E-12
1.54213E-09 9.17424E-12
1.71823E-09 8.78759E-12
1.90386E-09 8.41535E-12
2.09900E-09 8.05539E-12
2.30367E-09 7.71177E-12
2.51785E-09 7.38323E-12
2.74156E-09 7.06842E-12
2.97478E-09 6.76974E-12
3.21752E-09 6.48493E-12
3.46978E-09 6.21356E-12
3.73156E-09 5.95688E-12
4.00286E-09 5.71201E-12
4.28368E-09 5.47949E-12
4.57402E-09 5.25977E-12
4.87388E-09 5.04962E-12
5.18326E-09 4.85049E-12
5.50215E-09 4.66226E-12
5.83057E-09 4.48149E-12
6.16850E-09 4.31048E-12
6.51596E-09 4.14821E-12
6.87293E-09 3.99245E-12
7.23942E-09 3.84489E-12
7.61544E-09 3.70424E-12
1.18991E-08 2.59580E-12
1.71347E-08 1.86432E-12
2.33223E-08 1.33958E-12
3.04617E-08 9.98874E-13
3.85531E-08 7.46461E-13
4.75965E-08 5.61840E-13
5.75917E-08 4.30307E-13
6.85389E-08 3.30212E-13
8.04380E-08 2.56354E-13
9.32891E-08 2.01634E-13
1.07092E-07 1.59435E-13
1.21847E-07 1.27615E-13
1.37554E-07 1.03273E-13
1.54213E-07 8.41938E-14
1.71823E-07 6.93824E-14
1.90386E-07 5.77003E-14
2.09900E-07 4.83705E-14
2.30367E-07 4.08971E-14
2.51785E-07 3.48395E-14
2.74156E-07 2.98842E-14
2.97478E-07 2.58073E-14
3.21752E-07 2.24197E-14
3.46978E-07 1.95839E-14
3.73156E-07 1.71980E-14
4.00286E-07 1.51714E-14
4.28368E-07 1.34420E-14
4.57402E-07 1.19600E-14
4.87388E-07 1.06759E-14
5.18325E-07 9.56324E-15
5.50215E-07 8.59546E-15
5.83057E-07 7.74506E-15
6.16850E-07 6.99938E-15
6.51596E-07 6.34230E-15
6.87293E-07 5.75879E-15
7.23942E-07 5.24173E-15
7.61543E-07 4.78106E-15
1.18991E-06 2.09143E-15
1.71347E-06 1.04364E-15
2.33223E-06 5.73971E-16
3.04617E-06 3.40831E-16
3.85531E-06 2.14919E-16
4.75964E-06 1.42258E-16
5.75916E-06 9.79359E-17
6.85388E-06 6.96474E-17
8.04378E-06 5.08975E-17
9.32888E-06 3.80598E-17
1.07092E-05 2.90314E-17
1.21846E-05 2.25295E-17
1.37553E-05 1.77495E-17
1.54212E-05 1.41726E-17
1.71822E-05 1.14521E-17
1.90385E-05 9.35292E-18
2.09899E-05 7.71455E-18
2.30365E-05 6.41895E-18
2.51783E-05 5.38377E-18
2.74153E-05 4.54859E-18
2.97475E-05 3.86892E-18
3.21749E-05 3.31145E-18
3.46974E-05 2.85077E-18
3.73152E-05 2.46749E-18
4.00281E-05 2.14651E-18
4.28362E-05 1.87604E-18
4.57395E-05 1.64683E-18
4.87380E-05 1.45153E-18
5.18317E-05 1.28429E-18
5.50205E-05 1.14043E-18
5.83045E-05 1.01613E-18
6.16838E-05 9.08308E-19
6.51582E-05 8.14416E-19
6.87277E-05 7.32352E-19
7.23925E-05 6.60372E-19
7.61524E-05 5.97034E-19
9.21439E-05 4.08358E-19
1.09658E-04 2.88656E-19
1.28695E-04 2.09783E-19
1.49255E-04 1.56100E-19
1.71338E-04 1.18549E-19
1.94942E-04 9.16427E-20
2.20070E-04 7.19583E-20
2.46720E-04 5.72893E-20
2.74892E-04 4.61764E-20
3.04586E-04 3.76342E-20
3.35803E-04 3.09801E-20
3.68542E-04 2.57350E-20
4.02802E-04 2.15552E-20
4.38585E-04 1.81913E-20
4.75889E-04 1.54594E-20
5.14715E-04 1.32220E-20
5.55063E-04 1.13756E-20
5.96931E-04 9.84085E-21
6.40321E-04 8.55671E-21
6.85233E-04 7.47561E-21
7.31665E-04 6.56017E-21
7.79618E-04 5.78086E-21
8.29092E-04 5.11404E-21
8.80086E-04 4.54080E-21
9.32601E-04 4.04578E-21
9.86636E-04 3.61650E-21
1.04219E-03 3.24277E-21
1.09927E-03 2.91616E-21
1.15786E-03 2.62973E-21
1.21797E-03 2.37766E-21
1.27961E-03 2.15514E-21
1.34276E-03 1.95809E-21
1.40743E-03 1.78310E-21
1.47362E-03 1.62726E-21
1.54133E-03 1.48811E-21
1.61056E-03 1.36354E-21
1.68131E-03 1.25177E-21
1.75357E-03 1.15124E-21
1.82735E-03 1.06062E-21
1.90265E-03 9.78761E-22
1.97947E-03 9.04665E-22
2.05780E-03 8.37464E-22
2.13765E-03 7.76402E-22
2.21902E-03 7.20816E-22
2.30190E-03 6.70127E-22
2.38630E-03 6.23826E-22
2.47222E-03 5.81464E-22
2.55965E-03 5.42645E-22
2.64859E-03 5.07020E-22
2.73905E-03 4.74277E-22
2.83103E-03 4.44141E-22
2.92452E-03 4.16366E-22
3.01952E-03 3.90734E-22
3.11604E-03 3.67049E-22
3.21407E-03 3.45136E-22
3.31362E-03 3.24838E-22
3.41468E-03 3.06014E-22
3.51725E-03 2.88537E-22
3.62133E-03 2.72293E-22
3.72692E-03 2.57179E-22
3.83403E-03 2.43102E-22
3.94265E-03 2.29977E-22
4.05278E-03 2.17728E-22
4.16442E-03 2.06286E-22
4.27757E-03 1.95588E-22
4.39223E-03 1.85576E-22
4.50840E-03 1.76198E-22
4.62608E-03 1.67407E-22
4.74527E-03 1.59159E-22
4.86597E-03 1.51413E-22
4.98817E-03 1.44134E-22
5.11188E-03 1.37289E-22
5.23711E-03 1.30846E-22
5.36383E-03 1.24778E-22
5.49207E-03 1.19058E-22
5.62181E-03 1.13663E-22
5.75306E-03 1.08571E-22
5.88581E-03 1.03762E-22
6.02007E-03 9.92170E-23
6.15583E-03 9.49185E-23
6.29310E-03 9.08509E-23
6.43187E-03 8.69995E-23
6.57214E-03 8.33506E-23
6.71392E-03 7.98914E-23
6.85720E-03 7.66102E-23
7.00198E-03 7.34962E-23
7.14827E-03 7.05393E-23
7.29605E-03 6.77300E-23
7.44534E-03 6.50594E-23
7.59612E-03 6.25195E-23
7.97965E-03 5.66928E-23
8.37255E-03 5.15307E-23
8.77480E-03 4.69443E-23
9.18641E-03 4.28581E-23
9.60736E-03 3.92080E-23
1.00376E-02 3.59390E-23
1.04773E-02 3.30045E-23
1.09262E-02 3.03640E-23
1.13844E-02 2.79829E-23
1.18520E-02 2.58311E-23
1.23288E-02 2.38826E-23
1.28150E-02 2.21147E-23
1.33104E-02 2.05077E-23
1.38150E-02 1.90442E-23
1.43290E-02 1.77092E-23
1.48521E-02 1.64893E-23
1.53845E-02 1.53728E-23
1.59262E-02 1.43493E-23
1.64770E-02 1.34097E-23
1.70371E-02 1.25458E-23
1.76063E-02 1.17504E-23
1.81848E-02 1.10171E-23
1.87724E-02 1.03401E-23
1.93692E-02 9.71442E-24
1.99751E-02 9.13534E-24
2.05901E-02 8.59877E-24
2.12143E-02 8.10102E-24
2.18476E-02 7.63876E-24
2.24900E-02 7.20900E-24
2.31415E-02 6.80902E-24
2.38021E-02 6.43638E-24
2.44717E-02 6.08887E-24
2.51504E-02 5.76447E-24
2.58382E-02 5.46137E-24
2.65349E-02 5.17790E-24
2.72407E-02 4.91255E-24
2.79555E-02 4.66395E-24
2.86793E-02 4.43086E-24
2.94120E-02 4.21211E-24
3.01537E-02 4.00666E-24
3.09043E-02 3.81355E-24
3.16639E-02 3.63191E-24
3.24324E-02 3.46092E-24
3.32098E-02 3.29984E-24
3.39961E-02 3.14799E-24
3.47912E-02 3.00474E-24
3.55952E-02 2.86952E-24
3.64081E-02 2.74179E-24
3.72297E-02 2.62105E-24
3.80602E-02 2.50685E-24
3.88995E-02 2.39878E-24
3.97476E-02 2.29644E-24
4.06044E-02 2.19946E-24
4.14700E-02 2.10753E-24
4.23443E-02 2.02031E-24
4.32273E-02 1.93754E-24
4.41190E-02 1.85893E-24
4.50194E-02 1.78424E-24
4.59284E-02 1.71324E-24
4.68461E-02 1.64571E-24
4.87074E-02 1.52026E-24
5.06030E-02 1.40645E-24
5.25328E-02 1.30301E-24
5.44967E-02 1.20881E-24
5.64946E-02 1.12290E-24
5.85262E-02 1.04440E-24
6.05914E-02 9.72570E-25
6.26901E-02 9.06739E-25
6.48222E-02 8.46318E-25
6.69873E-02 7.90781E-25
6.91854E-02 7.39665E-25
7.14163E-02 6.92554E-25
7.36799E-02 6.49078E-25
7.59760E-02 6.08908E-25
7.83043E-02 5.71747E-25
8.06647E-02 5.37329E-25
8.30571E-02 5.05416E-25
8.54812E-02 4.75794E-25
8.79369E-02 4.48268E-25
9.04240E-02 4.22665E-25
9.29422E-02 3.98825E-25
9.54915E-02 3.76606E-25
9.80716E-02 3.55878E-25
1.00682E-01 3.36523E-25
1.03323E-01 3.18435E-25
1.05995E-01 3.01515E-25
1.08696E-01 2.85676E-25
1.11427E-01 2.70835E-25
1.14188E-01 2.56919E-25
1.16978E-01 2.43860E-25
1.19797E-01 2.31597E-25
1.22645E-01 2.20071E-25
1.25522E-01 2.09231E-25
1.28428E-01 1.99030E-25
1.31361E-01 1.89422E-25
1.34323E-01 1.80368E-25
1.37313E-01 1.71829E-25
1.40330E-01 1.63772E-25
1.43375E-01 1.56165E-25
1.46447E-01 1.48977E-25
1.49545E-01 1.42183E-25
1.52671E-01 1.35757E-25
1.55823E-01 1.29675E-25
1.59001E-01 1.23916E-25
1.62205E-01 1.18460E-25
1.65435E-01 1.13288E-25
1.68690E-01 1.08382E-25
1.71970E-01 1.03728E-25
1.75276E-01 9.93095E-26
1.78606E-01 9.51128E-26
1.81961E-01 9.11249E-26
1.85340E-01 8.73337E-26
1.88743E-01 8.37279E-26
1.92169E-01 8.02969E-26
1.95619E-01 7.70309E-26
1.99092E-01 7.39205E-26
2.02589E-01 7.09572E-26
2.06107E-01 6.81329E-26
2.09649E-01 6.54399E-26
2.13212E-01 6.28712E-26
2.16797E-01 6.04201E-26
2.20404E-01 5.80804E-26
2.24032E-01 5.58461E-26
2.27680E-01 5.37118E-26
2.31350E-01 5.16723E-26
2.35040E-01 4.97226E-26
2.38751E-01 4.78582E-26
2.42481E-01 4.60748E-26
2.46231E-01 4.43683E-26
2.50000E-01 4.27349E-26
2.53788E-01 4.11709E-26
2.57595E-01 3.96729E-26
2.61421E-01 3.82377E-26
2.65264E-01 3.68623E-26
2.69126E-01 3.55438E-26
2.73005E-01 3.42795E-26
2.76901E-01 3.30668E-26
2.80814E-01 3.19033E-26
2.84744E-01 3.07866E-26
2.88691E-01 2.97147E-26
2.92653E-01 2.86854E-26
2.96632E-01 2.76969E-26
3.00625E-01 2.67472E-26
3.04634E-01 2.58345E-26
3.08658E-01 2.49574E-26
3.12697E-01 2.41140E-26
3.16749E-01 2.33031E-26
3.20816E-01 2.25230E-26
3.24896E-01 2.17726E-26
3.28990E-01 2.10504E-26
3.33097E-01 2.03554E-26
3.37216E-01 1.96862E-26
3.41348E-01 1.90419E-26
3.45492E-01 1.84213E-26
3.49647E-01 1.78235E-26
3.53814E-01 1.72476E-26
3.57992E-01 1.66925E-26
3.62181E-01 1.61574E-26
3.66381E-01 1.56416E-26
3.70590E-01 1.51442E-26
3.74810E-01 1.46645E-26
3.79039E-01 1.42018E-26
3.83277E-01 1.37553E-26
3.87524E-01 1.33245E-26
3.91780E-01 1.29087E-26
3.96044E-01 1.25074E-26
4.00316E-01 1.21199E-26
4.04596E-01 1.17457E-26
4.08882E-01 1.13843E-26
4.13176E-01 1.10352E-26
4.17476E-01 1.06979E-26
4.21783E-01 1.03720E-26
4.26095E-01 1.00571E-26
4.30413E-01 9.75267E-27
4.34737E-01 9.45839E-27
4.39065E-01 9.17387E-27
4.43398E-01 8.89873E-27
4.47736E-01 8.63264E-27
4.52077E-01 8.37525E-27
4.56422E-01 8.12626E-27
4.60770E-01 7.88534E-27
4.65122E-01 7.65221E-27
4.69476E-01 7.42658E-27
4.73832E-01 7.20819E-27
4.78190E-01 6.99677E-27
4.82550E-01 6.79208E-27
4.86912E-01 6.59387E-27
4.91274E-01 6.40192E-27
4.95637E-01 6.21600E-27
5.00000E-01 6.03591E-27
5.04363E-01 5.86144E-27
5.08726E-01 5.69240E-27
5.13088E-01 5.52859E-27
5.17450E-01 5.36984E-27
5.21810E-01 5.21597E-27
5.26168E-01 5.06682E-27
5.30524E-01 4.92222E-27
5.34878E-01 4.78202E-27
5.39230E-01 4.64608E-27
5.43578E-01 4.51424E-27
5.47923E-01 4.38638E-27
5.52264E-01 4.26236E-27
5.56602E-01 4.14205E-27
5.60935E-01 4.02532E-27
5.65263E-01 3.91207E-27
5.69587E-01 3.80218E-27
5.73905E-01 3.69553E-27
5.78217E-01 3.59202E-27
5.82524E-01 3.49155E-27
5.86824E-01 3.39403E-27
5.91118E-01 3.29935E-27
5.95404E-01 3.20742E-27
5.99684E-01 3.11816E-27
6.03956E-01 3.03148E-27
6.08220E-01 2.94730E-27
6.12476E-01 2.86555E-27
6.16723E-01 2.78613E-27
6.20961E-01 2.70899E-27
6.25190E-01 2.63405E-27
6.29410E-01 2.56124E-27
6.33619E-01 2.49049E-27
6.37819E-01 2.42175E-27
6.42008E-01 2.35494E-27
6.46186E-01 2.29001E-27
6.50353E-01 2.22691E-27
6.54508E-01 2.16557E-27
6.58652E-01 2.10594E-27
6.62784E-01 2.04797E-27
6.66903E-01 1.99161E-27
6.71010E-01 1.93682E-27
6.75104E-01 1.88354E-27
6.79184E-01 1.83173E-27
6.83251E-01 1.78134E-27
6.87303E-01 1.73234E-27
6.91342E-01 1.68468E-27
6.95366E-01 1.63832E-27
6.99375E-01 1.59322E-27
7.03368E-01 1.54935E-27
7.07347E-01 1.50667E-27
7.11309E-01 1.46515E-27
7.15256E-01 1.42475E-27
7.19186E-01 1.38544E-27
7.23099E-01 1.34718E-27
7.26995E-01 1.30995E-27
7.30874E-01 1.27373E-27
7.34736E-01 1.23847E-27
7.38579E-01 1.20415E-27
7.42405E-01 1.17074E-27
7.46212E-01 1.13823E-27
7.50000E-01 1.10657E-27
7.53769E-01 1.07576E-27
7.57519E-01 1.04576E-27
7.61249E-01 1.01656E-27
7.64960E-01 9.88120E-28
7.68650E-01 9.60432E-28
7.72320E-01 9.33471E-28
7.75968E-01 9.07218E-28
7.79596E-01 8.81653E-28
7.83203E-01 8.56756E-28
7.86788E-01 8.32509E-28
7.90351E-01 8.08895E-28
7.93893E-01 7.85896E-28
7.97411E-01 7.63495E-28
8.00908E-01 7.41676E-28
8.04381E-01 7.20423E-28
8.07831E-01 6.99721E-28
8.11257E-01 6.79555E-28
8.14660E-01 6.59910E-28
8.18039E-01 6.40773E-28
8.21394E-01 6.22129E-28
8.24724E-01 6.03966E-28
8.28030E-01 5.86271E-28
8.31310E-01 5.69032E-28
8.34565E-01 5.52235E-28
8.37795E-01 5.35871E-28
8.40999E-01 5.19926E-28
8.44177E-01 5.04391E-28
8.47329E-01 4.89255E-28
8.50455E-01 4.74507E-28
8.53553E-01 4.60137E-28
8.56625E-01 4.46135E-28
8.59670E-01 4.32492E-28
8.62687E-01 4.19199E-28
8.65677E-01 4.06247E-28
8.68639E-01 3.93626E-28
8.71572E-01 3.81329E-28
8.74478E-01 3.69347E-28
8.77355E-01 3.57673E-28
8.80203E-01 3.46298E-28
8.83022E-01 3.35215E-28
8.85812E-01 3.24417E-28
8.88573E-01 3.13896E-28
8.91304E-01 3.03646E-28
8.94005E-01 2.93661E-28
8.96677E-01 2.83933E-28
8.99318E-01 2.74456E-28
9.01928E-01 2.65225E-28
9.04508E-01 2.56233E-28
9.07058E-01 2.47474E-28
9.09576E-01 2.38943E-28
9.12063E-01 2.30635E-28
9.14519E-01 2.22543E-28
9.16943E-01 2.14664E-28
9.19335E-01 2.06991E-28
9.21696E-01 1.99521E-28
9.24024E-01 1.92248E-28
9.26320E-01 1.85168E-28
9.28584E-01 1.78276E-28
9.30815E-01 1.71568E-28
9.33013E-01 1.65041E-28
9.35178E-01 1.58689E-28
9.37310E-01 1.52509E-28
9.39409E-01 1.46497E-28
9.41474E-01 1.40649E-28
9.43505E-01 1.34963E-28
9.45503E-01 1.29433E-28
9.47467E-01 1.24057E-28
9.49397E-01 1.18832E-28
9.51293E-01 1.13755E-28
9.53154E-01 1.08822E-28
9.54981E-01 1.04030E-28
9.56773E-01 9.93759E-29
9.58530E-01 9.48579E-29
9.60252E-01 9.04728E-29
9.61940E-01 8.62178E-29
9.63592E-01 8.20905E-29
9.65209E-01 7.80884E-29
9.66790E-01 7.42090E-29
9.68336E-01 7.04501E-29
9.69846E-01 6.68094E-29
9.71321E-01 6.32847E-29
9.72759E-01 5.98740E-29
9.74162E-01 5.65752E-29
9.75528E-01 5.33863E-29
9.76858E-01 5.03055E-29
9.78152E-01 4.73309E-29
9.79410E-01 4.44608E-29
9.80631E-01 4.16935E-29
9.81815E-01 3.90274E-29
9.82963E-01 3.64609E-29
9.84074E-01 3.39924E-29
9.85148E-01 3.16206E-29
9.86185E-01 2.93440E-29
9.87185E-01 2.71613E-29
9.88148E-01 2.50713E-29
9.89074E-01 2.30727E-29
9.89962E-01 2.11644E-29
9.90814E-01 1.93452E-29
9.91627E-01 1.76141E-29
9.92404E-01 1.59701E-29
9.93143E-01 1.44122E-29
9.93844E-01 1.29395E-29
9.94508E-01 1.15512E-29
9.95134E-01 1.02464E-29
9.95722E-01 9.02447E-30
9.96273E-01 7.88463E-30
9.96786E-01 6.82622E-30
9.97261E-01 5.84865E-30
9.97698E-01 4.95135E-30
9.98097E-01 4.13379E-30
9.98459E-01 3.39550E-30
9.98782E-01 2.73607E-30
9.99067E-01 2.15511E-30
9.99315E-01 1.65229E-30
9.99524E-01 1.22731E-30
9.99695E-01 8.79934E-31
9.99829E-01 6.09960E-31
9.99924E-01 4.17231E-31
9.99981E-01 3.01638E-31
1.00000E+00 2.63115E-31
