 #
 # Subroutine ELSEPA. Elastic scattering of electrons and positrons
 #                    by neutral atoms and positive ions
 #
 # Projectile: electron
 # Kinetic energy = 8.00000E+08 eV = 2.93995E+07 a.u.
 #
 # WARNING: High-energy factorization with free-atom DF screening.
 #          Absorption, polarization and exchange corrections are
 #          switched off.
 #          Phase shifts are calculated for the bare nucleus.
 #          Scattering amplitudes are not evaluated.
 #
 # Element: Cu,  Z =  29,  atomic weight = 6.35460E+01 g/mol
 #
 # Nuclear model: Fermi distribution
 #                Average radius = 4.26986E-13 cm
 #                Skin thickness = 5.46000E-14 cm
 #
 # Number of electrons = 29
 #
 # Total elastic cross section = 1.83561E-18 cm**2 = 6.55507E-02 a0**2
 # 1st transport cross section = 2.69892E-27 cm**2 = 9.63801E-11 a0**2
 # 2nd transport cross section = 8.09526E-27 cm**2 = 2.89087E-10 a0**2
 #
 #
 # Differential cross section:                       MU=(1-COS(THETA))/2
 #
 #  THETA        MU          DCS          DCS        Sherman      error
 #  (deg)                 (cm**2/sr)   (a0**2/sr)    function
 #----------------------------------------------------------------------
0.00000E+00 7.58663E-09
7.61557E-13 6.56070E-09
1.18994E-12 6.09371E-09
1.71346E-12 5.60516E-09
2.33225E-12 5.11962E-09
3.04617E-12 4.65482E-09
3.85530E-12 4.22242E-09
4.75964E-12 3.82656E-09
5.75917E-12 3.47025E-09
6.85391E-12 3.15021E-09
8.04379E-12 2.86587E-09
9.32893E-12 2.61174E-09
1.07092E-11 2.38610E-09
1.21847E-11 2.18424E-09
1.37554E-11 2.00399E-09
1.54213E-11 1.84207E-09
1.71823E-11 1.69635E-09
1.90386E-11 1.56484E-09
2.09900E-11 1.44553E-09
2.30367E-11 1.33741E-09
2.51785E-11 1.23860E-09
2.74156E-11 1.14875E-09
2.97478E-11 1.06611E-09
3.21752E-11 9.90671E-10
3.46979E-11 9.21115E-10
3.73157E-11 8.52876E-10
4.00286E-11 7.89108E-10
4.28368E-11 7.32830E-10
4.57402E-11 6.82974E-10
4.87388E-11 6.38644E-10
5.18325E-11 5.99093E-10
5.50215E-11 5.63684E-10
5.83057E-11 5.25629E-10
6.16850E-11 4.89363E-10
6.51595E-11 4.56856E-10
6.87293E-11 4.27633E-10
7.23943E-11 4.01289E-10
7.61544E-11 3.77475E-10
1.18991E-10 2.02808E-10
1.71347E-10 1.14544E-10
2.33223E-10 6.80466E-11
3.04617E-10 4.24729E-11
3.85531E-10 2.78268E-11
4.75965E-10 1.90197E-11
5.75917E-10 1.34966E-11
6.85389E-10 9.87796E-12
8.04380E-10 7.42226E-12
9.32891E-10 5.69615E-12
1.07092E-09 4.45084E-12
1.21847E-09 3.52986E-12
1.37554E-09 2.83613E-12
1.54213E-09 2.30390E-12
1.71823E-09 1.88973E-12
1.90386E-09 1.56351E-12
2.09900E-09 1.30363E-12
2.30367E-09 1.09495E-12
2.51785E-09 9.25709E-13
2.74156E-09 7.87610E-13
2.97478E-09 6.73882E-13
3.21752E-09 5.79765E-13
3.46978E-09 5.01292E-13
3.73156E-09 4.35401E-13
4.00286E-09 3.79971E-13
4.28368E-09 3.33217E-13
4.57402E-09 2.93237E-13
4.87388E-09 2.59098E-13
5.18326E-09 2.29831E-13
5.50215E-09 2.04489E-13
5.83057E-09 1.82583E-13
6.16850E-09 1.63539E-13
6.51596E-09 1.46897E-13
6.87293E-09 1.32342E-13
7.23942E-09 1.19539E-13
7.61544E-09 1.08249E-13
1.18991E-08 4.51589E-14
1.71347E-08 2.20973E-14
2.33223E-08 1.20618E-14
3.04617E-08 7.13032E-15
3.85531E-08 4.47938E-15
4.75965E-08 2.95261E-15
5.75917E-08 2.02373E-15
6.85389E-08 1.43265E-15
8.04380E-08 1.04224E-15
9.32891E-08 7.76086E-16
1.07092E-07 5.89642E-16
1.21847E-07 4.55929E-16
1.37554E-07 3.58032E-16
1.54213E-07 2.85038E-16
1.71823E-07 2.29724E-16
1.90386E-07 1.87192E-16
2.09900E-07 1.54059E-16
2.30367E-07 1.27940E-16
2.51785E-07 1.07127E-16
2.74156E-07 9.03782E-17
2.97478E-07 7.67773E-17
3.21752E-07 6.56406E-17
3.46978E-07 5.64515E-17
3.73156E-07 4.88152E-17
4.00286E-07 4.24273E-17
4.28368E-07 3.70507E-17
4.57402E-07 3.24994E-17
4.87388E-07 2.86259E-17
5.18325E-07 2.53126E-17
5.50215E-07 2.24650E-17
5.83057E-07 2.00068E-17
6.16850E-07 1.78758E-17
6.51596E-07 1.60211E-17
6.87293E-07 1.44008E-17
7.23942E-07 1.29802E-17
7.61543E-07 1.17306E-17
1.18991E-06 4.80644E-18
1.71347E-06 2.31844E-18
2.33223E-06 1.25166E-18
3.04617E-06 7.33819E-19
3.85531E-06 4.58187E-19
4.75964E-06 3.00659E-19
5.75916E-06 2.05382E-19
6.85388E-06 1.45033E-19
8.04378E-06 1.05311E-19
9.32888E-06 7.83056E-20
1.07092E-05 5.94286E-20
1.21846E-05 4.59131E-20
1.37553E-05 3.60310E-20
1.54212E-05 2.86706E-20
1.71822E-05 2.30976E-20
1.90385E-05 1.88141E-20
2.09899E-05 1.54823E-20
2.30365E-05 1.28562E-20
2.51783E-05 1.07636E-20
2.74153E-05 9.07963E-21
2.97475E-05 7.71226E-21
3.21749E-05 6.59290E-21
3.46974E-05 5.66961E-21
3.73152E-05 4.90262E-21
4.00281E-05 4.26122E-21
4.28362E-05 3.72146E-21
4.57395E-05 3.26455E-21
4.87380E-05 2.87564E-21
5.18317E-05 2.54293E-21
5.50205E-05 2.25696E-21
5.83045E-05 2.01008E-21
6.16838E-05 1.79606E-21
6.51582E-05 1.60982E-21
6.87277E-05 1.44713E-21
7.23925E-05 1.30450E-21
7.61524E-05 1.16013E-21
9.21439E-05 7.89382E-22
1.09658E-04 5.54927E-22
1.28695E-04 4.00932E-22
1.49255E-04 2.96456E-22
1.71338E-04 2.23619E-22
1.94942E-04 1.71612E-22
2.20070E-04 1.33704E-22
2.46720E-04 1.05567E-22
2.74892E-04 8.43394E-23
3.04586E-04 6.80952E-23
3.35803E-04 5.55013E-23
3.68542E-04 4.56240E-23
4.02802E-04 3.77949E-23
4.38585E-04 3.15294E-23
4.75889E-04 2.64712E-23
5.14715E-04 2.23547E-23
5.55063E-04 1.89798E-23
5.96931E-04 1.61940E-23
6.40321E-04 1.38800E-23
6.85233E-04 1.19467E-23
7.31665E-04 1.03226E-23
7.79618E-04 8.95146E-24
8.29092E-04 7.78842E-24
8.80086E-04 6.79757E-24
9.32601E-04 5.94996E-24
9.86636E-04 5.22209E-24
1.04219E-03 4.59481E-24
1.09927E-03 4.05238E-24
1.15786E-03 3.58184E-24
1.21797E-03 3.17243E-24
1.27961E-03 2.81523E-24
1.34276E-03 2.50274E-24
1.40743E-03 2.22868E-24
1.47362E-03 1.98777E-24
1.54133E-03 1.77551E-24
1.61056E-03 1.58812E-24
1.68131E-03 1.42235E-24
1.75357E-03 1.27542E-24
1.82735E-03 1.14498E-24
1.90265E-03 1.02896E-24
1.97947E-03 9.25623E-25
2.05780E-03 8.33432E-25
2.13765E-03 7.51072E-25
2.21902E-03 6.77396E-25
2.30190E-03 6.11404E-25
2.38630E-03 5.52225E-25
2.47222E-03 4.99095E-25
2.55965E-03 4.51344E-25
2.64859E-03 4.08386E-25
2.73905E-03 3.69701E-25
2.83103E-03 3.34835E-25
2.92452E-03 3.03383E-25
3.01952E-03 2.74989E-25
3.11604E-03 2.49336E-25
3.21407E-03 2.26145E-25
3.31362E-03 2.05165E-25
3.41468E-03 1.86173E-25
3.51725E-03 1.68973E-25
3.62133E-03 1.53386E-25
3.72692E-03 1.39255E-25
3.83403E-03 1.26438E-25
3.94265E-03 1.14808E-25
4.05278E-03 1.04252E-25
4.16442E-03 9.46662E-26
4.27757E-03 8.59600E-26
4.39223E-03 7.80504E-26
4.50840E-03 7.08627E-26
4.62608E-03 6.43298E-26
4.74527E-03 5.83911E-26
4.86597E-03 5.29919E-26
4.98817E-03 4.80825E-26
5.11188E-03 4.36184E-26
5.23711E-03 3.95588E-26
5.36383E-03 3.58672E-26
5.49207E-03 3.25102E-26
5.62181E-03 2.94577E-26
5.75306E-03 2.66822E-26
5.88581E-03 2.41590E-26
6.02007E-03 2.18653E-26
6.15583E-03 1.97806E-26
6.29310E-03 1.78863E-26
6.43187E-03 1.61654E-26
6.57214E-03 1.46024E-26
6.71392E-03 1.31832E-26
6.85720E-03 1.18950E-26
7.00198E-03 1.07261E-26
7.14827E-03 9.66586E-27
7.29605E-03 8.70457E-27
7.44534E-03 7.83340E-27
7.59612E-03 7.04425E-27
7.97965E-03 5.38357E-27
8.37255E-03 4.09291E-27
8.77480E-03 3.09399E-27
9.18641E-03 2.32456E-27
9.60736E-03 1.73516E-27
1.00376E-02 1.28650E-27
1.04773E-02 9.47428E-28
1.09262E-02 6.93278E-28
1.13844E-02 5.04569E-28
1.18520E-02 3.65962E-28
1.23288E-02 2.65422E-28
1.28150E-02 1.93545E-28
1.33104E-02 1.43023E-28
1.38150E-02 1.08210E-28
1.43290E-02 8.47751E-29
1.48521E-02 6.94262E-29
1.53845E-02 5.96841E-29
1.59262E-02 5.37067E-29
1.64770E-02 5.01452E-29
1.70371E-02 4.80315E-29
1.76063E-02 4.66876E-29
1.81848E-02 4.56551E-29
1.87724E-02 4.46391E-29
1.93692E-02 4.34643E-29
1.99751E-02 4.20413E-29
2.05901E-02 4.03407E-29
2.12143E-02 3.83728E-29
2.18476E-02 3.61731E-29
2.24900E-02 3.37914E-29
2.31415E-02 3.12835E-29
2.38021E-02 2.87056E-29
2.44717E-02 2.61112E-29
2.51504E-02 2.35480E-29
2.58382E-02 2.10569E-29
2.65349E-02 1.86715E-29
2.72407E-02 1.64180E-29
2.79555E-02 1.43155E-29
2.86793E-02 1.23766E-29
2.94120E-02 1.06084E-29
3.01537E-02 9.01283E-30
3.09043E-02 7.58784E-30
3.16639E-02 6.32806E-30
3.24324E-02 5.22556E-30
3.32098E-02 4.27050E-30
3.39961E-02 3.45177E-30
3.47912E-02 2.75746E-30
3.55952E-02 2.17532E-30
3.64081E-02 1.69312E-30
3.72297E-02 1.29893E-30
3.80602E-02 9.81341E-31
3.88995E-02 7.29629E-31
3.97476E-02 5.33872E-31
4.06044E-02 3.85021E-31
4.14700E-02 2.74928E-31
4.23443E-02 1.96356E-31
4.32273E-02 1.42958E-31
4.41190E-02 1.09242E-31
4.50194E-02 9.05152E-32
4.59284E-02 8.28298E-32
4.68461E-02 8.29141E-32
4.87074E-02 9.62758E-32
5.06030E-02 1.15350E-31
5.25328E-02 1.31404E-31
5.44967E-02 1.40343E-31
5.64946E-02 1.41139E-31
5.85262E-02 1.34602E-31
6.05914E-02 1.22470E-31
6.26901E-02 1.06778E-31
6.48222E-02 8.94568E-32
6.69873E-02 7.21135E-32
6.91854E-02 5.59380E-32
7.14163E-02 4.16981E-32
7.36799E-02 2.97870E-32
7.59760E-02 2.02970E-32
7.83043E-02 1.31021E-32
8.06647E-02 7.93572E-33
8.30571E-02 4.45762E-33
8.54812E-02 2.30646E-33
8.79369E-02 1.13725E-33
9.04240E-02 6.45318E-34
9.29422E-02 5.78878E-34
9.54915E-02 7.42679E-34
9.80716E-02 9.95493E-34
1.00682E-01 1.24361E-33
1.03323E-01 1.43229E-33
1.05995E-01 1.53670E-33
1.08696E-01 1.55319E-33
1.11427E-01 1.49169E-33
1.14188E-01 1.36957E-33
1.16978E-01 1.20690E-33
1.19797E-01 1.02317E-33
1.22645E-01 8.35233E-34
1.25522E-01 6.56252E-34
1.28428E-01 4.95407E-34
1.31361E-01 3.58106E-34
1.34323E-01 2.46533E-34
1.37313E-01 1.60340E-34
1.40330E-01 9.73902E-35
1.43375E-01 5.44347E-35
1.46447E-01 2.77020E-35
1.49545E-01 1.33555E-35
1.52671E-01 7.82314E-36
1.55823E-01 8.00629E-36
1.59001E-01 1.13862E-35
1.62205E-01 1.60492E-35
1.65435E-01 2.06529E-35
1.68690E-01 2.43549E-35
1.71970E-01 2.67214E-35
1.75276E-01 2.76294E-35
1.78606E-01 2.71730E-35
1.81961E-01 2.55813E-35
1.85340E-01 2.31503E-35
1.88743E-01 2.01910E-35
1.92169E-01 1.69927E-35
1.95619E-01 1.38001E-35
1.99092E-01 1.08022E-35
2.02589E-01 8.12936E-36
2.06107E-01 5.85734E-36
2.09649E-01 4.01482E-36
2.13212E-01 2.59325E-36
2.16797E-01 1.55725E-36
2.20404E-01 8.54392E-37
2.24032E-01 4.23757E-37
2.27680E-01 2.02842E-37
2.31350E-01 1.32682E-37
2.35040E-01 1.61258E-37
2.38751E-01 2.45437E-37
2.42481E-01 3.51633E-37
2.46231E-01 4.55559E-37
2.50000E-01 5.41327E-37
2.53788E-01 6.00151E-37
2.57595E-01 6.28883E-37
2.61421E-01 6.28530E-37
2.65264E-01 6.02885E-37
2.69126E-01 5.57334E-37
2.73005E-01 4.97892E-37
2.76901E-01 4.30467E-37
2.80814E-01 3.60352E-37
2.84744E-01 2.91919E-37
2.88691E-01 2.28481E-37
2.92653E-01 1.72283E-37
2.96632E-01 1.24590E-37
3.00625E-01 8.58288E-38
3.04634E-01 5.57627E-38
3.08658E-01 3.36747E-38
3.12697E-01 1.85357E-38
3.16749E-01 1.00000E-45
3.20816E-01 1.00000E-45
3.24896E-01 1.00000E-45
3.28990E-01 1.00000E-45
3.33097E-01 1.00000E-45
3.37216E-01 1.00000E-45
3.41348E-01 1.00000E-45
3.45492E-01 1.00000E-45
3.49647E-01 1.00000E-45
3.53814E-01 1.00000E-45
3.57992E-01 1.00000E-45
3.62181E-01 1.00000E-45
3.66381E-01 1.00000E-45
3.70590E-01 1.00000E-45
3.74810E-01 1.00000E-45
3.79039E-01 1.00000E-45
3.83277E-01 1.00000E-45
3.87524E-01 1.00000E-45
3.91780E-01 1.00000E-45
3.96044E-01 1.00000E-45
4.00316E-01 1.00000E-45
4.04596E-01 1.00000E-45
4.08882E-01 1.00000E-45
4.13176E-01 1.00000E-45
4.17476E-01 1.00000E-45
4.21783E-01 1.00000E-45
4.26095E-01 1.00000E-45
4.30413E-01 1.00000E-45
4.34737E-01 1.00000E-45
4.39065E-01 1.00000E-45
4.43398E-01 1.00000E-45
4.47736E-01 1.00000E-45
4.52077E-01 1.00000E-45
4.56422E-01 1.00000E-45
4.60770E-01 1.00000E-45
4.65122E-01 1.00000E-45
4.69476E-01 1.00000E-45
4.73832E-01 1.00000E-45
4.78190E-01 1.00000E-45
4.82550E-01 1.00000E-45
4.86912E-01 1.00000E-45
4.91274E-01 1.00000E-45
4.95637E-01 1.00000E-45
5.00000E-01 1.00000E-45
5.04363E-01 1.00000E-45
5.08726E-01 1.00000E-45
5.13088E-01 1.00000E-45
5.17450E-01 1.00000E-45
5.21810E-01 1.00000E-45
5.26168E-01 1.00000E-45
5.30524E-01 1.00000E-45
5.34878E-01 1.00000E-45
5.39230E-01 1.00000E-45
5.43578E-01 1.00000E-45
5.47923E-01 1.00000E-45
5.52264E-01 1.00000E-45
5.56602E-01 1.00000E-45
5.60935E-01 1.00000E-45
5.65263E-01 1.00000E-45
5.69587E-01 1.00000E-45
5.73905E-01 1.00000E-45
5.78217E-01 1.00000E-45
5.82524E-01 1.00000E-45
5.86824E-01 1.00000E-45
5.91118E-01 1.00000E-45
5.95404E-01 1.00000E-45
5.99684E-01 1.00000E-45
6.03956E-01 1.00000E-45
6.08220E-01 1.00000E-45
6.12476E-01 1.00000E-45
6.16723E-01 1.00000E-45
6.20961E-01 1.00000E-45
6.25190E-01 1.00000E-45
6.29410E-01 1.00000E-45
6.33619E-01 1.00000E-45
6.37819E-01 1.00000E-45
6.42008E-01 1.00000E-45
6.46186E-01 1.00000E-45
6.50353E-01 1.00000E-45
6.54508E-01 1.00000E-45
6.58652E-01 1.00000E-45
6.62784E-01 1.00000E-45
6.66903E-01 1.00000E-45
6.71010E-01 1.00000E-45
6.75104E-01 1.00000E-45
6.79184E-01 1.00000E-45
6.83251E-01 1.00000E-45
6.87303E-01 1.00000E-45
6.91342E-01 1.00000E-45
6.95366E-01 1.00000E-45
6.99375E-01 1.00000E-45
7.03368E-01 1.00000E-45
7.07347E-01 1.00000E-45
7.11309E-01 1.00000E-45
7.15256E-01 1.00000E-45
7.19186E-01 1.00000E-45
7.23099E-01 1.00000E-45
7.26995E-01 1.00000E-45
7.30874E-01 1.00000E-45
7.34736E-01 1.00000E-45
7.38579E-01 1.00000E-45
7.42405E-01 1.00000E-45
7.46212E-01 1.00000E-45
7.50000E-01 1.00000E-45
7.53769E-01 1.00000E-45
7.57519E-01 1.00000E-45
7.61249E-01 1.00000E-45
7.64960E-01 1.00000E-45
7.68650E-01 1.00000E-45
7.72320E-01 1.00000E-45
7.75968E-01 1.00000E-45
7.79596E-01 1.00000E-45
7.83203E-01 1.00000E-45
7.86788E-01 1.00000E-45
7.90351E-01 1.00000E-45
7.93893E-01 1.00000E-45
7.97411E-01 1.00000E-45
8.00908E-01 1.00000E-45
8.04381E-01 1.00000E-45
8.07831E-01 1.00000E-45
8.11257E-01 1.00000E-45
8.14660E-01 1.00000E-45
8.18039E-01 1.00000E-45
8.21394E-01 1.00000E-45
8.24724E-01 1.00000E-45
8.28030E-01 1.00000E-45
8.31310E-01 1.00000E-45
8.34565E-01 1.00000E-45
8.37795E-01 1.00000E-45
8.40999E-01 1.00000E-45
8.44177E-01 1.00000E-45
8.47329E-01 1.00000E-45
8.50455E-01 1.00000E-45
8.53553E-01 1.00000E-45
8.56625E-01 1.00000E-45
8.59670E-01 1.00000E-45
8.62687E-01 1.00000E-45
8.65677E-01 1.00000E-45
8.68639E-01 1.00000E-45
8.71572E-01 1.00000E-45
8.74478E-01 1.00000E-45
8.77355E-01 1.00000E-45
8.80203E-01 1.00000E-45
8.83022E-01 1.00000E-45
8.85812E-01 1.00000E-45
8.88573E-01 1.00000E-45
8.91304E-01 1.00000E-45
8.94005E-01 1.00000E-45
8.96677E-01 1.00000E-45
8.99318E-01 1.00000E-45
9.01928E-01 1.00000E-45
9.04508E-01 1.00000E-45
9.07058E-01 1.00000E-45
9.09576E-01 1.00000E-45
9.12063E-01 1.00000E-45
9.14519E-01 1.00000E-45
9.16943E-01 1.00000E-45
9.19335E-01 1.00000E-45
9.21696E-01 1.00000E-45
9.24024E-01 1.00000E-45
9.26320E-01 1.00000E-45
9.28584E-01 1.00000E-45
9.30815E-01 1.00000E-45
9.33013E-01 1.00000E-45
9.35178E-01 1.00000E-45
9.37310E-01 1.00000E-45
9.39409E-01 1.00000E-45
9.41474E-01 1.00000E-45
9.43505E-01 1.00000E-45
9.45503E-01 1.00000E-45
9.47467E-01 1.00000E-45
9.49397E-01 1.00000E-45
9.51293E-01 1.00000E-45
9.53154E-01 1.00000E-45
9.54981E-01 1.00000E-45
9.56773E-01 1.00000E-45
9.58530E-01 1.00000E-45
9.60252E-01 1.00000E-45
9.61940E-01 1.00000E-45
9.63592E-01 1.00000E-45
9.65209E-01 1.00000E-45
9.66790E-01 1.00000E-45
9.68336E-01 1.00000E-45
9.69846E-01 1.00000E-45
9.71321E-01 1.00000E-45
9.72759E-01 1.00000E-45
9.74162E-01 1.00000E-45
9.75528E-01 1.00000E-45
9.76858E-01 1.00000E-45
9.78152E-01 1.00000E-45
9.79410E-01 1.00000E-45
9.80631E-01 1.00000E-45
9.81815E-01 1.00000E-45
9.82963E-01 1.00000E-45
9.84074E-01 1.00000E-45
9.85148E-01 1.00000E-45
9.86185E-01 1.00000E-45
9.87185E-01 1.00000E-45
9.88148E-01 1.00000E-45
9.89074E-01 1.00000E-45
9.89962E-01 1.00000E-45
9.90814E-01 1.00000E-45
9.91627E-01 1.00000E-45
9.92404E-01 1.00000E-45
9.93143E-01 1.00000E-45
9.93844E-01 1.00000E-45
9.94508E-01 1.00000E-45
9.95134E-01 1.00000E-45
9.95722E-01 1.00000E-45
9.96273E-01 1.00000E-45
9.96786E-01 1.00000E-45
9.97261E-01 1.00000E-45
9.97698E-01 1.00000E-45
9.98097E-01 1.00000E-45
9.98459E-01 1.00000E-45
9.98782E-01 1.00000E-45
9.99067E-01 1.00000E-45
9.99315E-01 1.00000E-45
9.99524E-01 1.00000E-45
9.99695E-01 1.00000E-45
9.99829E-01 1.00000E-45
9.99924E-01 1.00000E-45
9.99981E-01 1.00000E-45
1.00000E+00 1.00000E-45
