 #
 # Subroutine ELSEPA. Elastic scattering of electrons and positrons
 #                    by neutral atoms and positive ions
 #
 # Projectile: electron
 # Kinetic energy = 1.75000E+08 eV = 6.43113E+06 a.u.
 #
 # WARNING: High-energy factorization with free-atom DF screening.
 #          Absorption, polarization and exchange corrections are
 #          switched off.
 #          Phase shifts are calculated for the bare nucleus.
 #          Scattering amplitudes are not evaluated.
 #
 # Element: Cu,  Z =  29,  atomic weight = 6.35460E+01 g/mol
 #
 # Nuclear model: Fermi distribution
 #                Average radius = 4.26986E-13 cm
 #                Skin thickness = 5.46000E-14 cm
 #
 # Number of electrons = 29
 #
 # Total elastic cross section = 1.84116E-18 cm**2 = 6.57491E-02 a0**2
 # 1st transport cross section = 5.61737E-26 cm**2 = 2.00600E-09 a0**2
 # 2nd transport cross section = 1.67925E-25 cm**2 = 5.99672E-09 a0**2
 #
 #
 # Differential cross section:                       MU=(1-COS(THETA))/2
 #
 #  THETA        MU          DCS          DCS        Sherman      error
 #  (deg)                 (cm**2/sr)   (a0**2/sr)    function
 #----------------------------------------------------------------------
0.00000E+00 3.64689E-10
7.61557E-13 3.61982E-10
1.18994E-12 3.60478E-10
1.71346E-12 3.58656E-10
2.33225E-12 3.56525E-10
3.04617E-12 3.54097E-10
3.85530E-12 3.51382E-10
4.75964E-12 3.48395E-10
5.75917E-12 3.45149E-10
6.85391E-12 3.41660E-10
8.04379E-12 3.37932E-10
9.32893E-12 3.33993E-10
1.07092E-11 3.29879E-10
1.21847E-11 3.25583E-10
1.37554E-11 3.21107E-10
1.54213E-11 3.16512E-10
1.71823E-11 3.11797E-10
1.90386E-11 3.06937E-10
2.09900E-11 3.02013E-10
2.30367E-11 2.97030E-10
2.51785E-11 2.91932E-10
2.74156E-11 2.86819E-10
2.97478E-11 2.81705E-10
3.21752E-11 2.76504E-10
3.46979E-11 2.71327E-10
3.73157E-11 2.66188E-10
4.00286E-11 2.61008E-10
4.28368E-11 2.55872E-10
4.57402E-11 2.50804E-10
4.87388E-11 2.45734E-10
5.18325E-11 2.40721E-10
5.50215E-11 2.35798E-10
5.83057E-11 2.30907E-10
6.16850E-11 2.26078E-10
6.51595E-11 2.21354E-10
6.87293E-11 2.16690E-10
7.23943E-11 2.12087E-10
7.61544E-11 2.07598E-10
1.18991E-10 1.67433E-10
1.71347E-10 1.35767E-10
2.33223E-10 1.11196E-10
3.04617E-10 9.20226E-11
3.85531E-10 7.68530E-11
4.75965E-10 6.46688E-11
5.75917E-10 5.47319E-11
6.85389E-10 4.65520E-11
8.04380E-10 3.94102E-11
9.32891E-10 3.35327E-11
1.07092E-09 2.90028E-11
1.21847E-09 2.51213E-11
1.37554E-09 2.15644E-11
1.54213E-09 1.87442E-11
1.71823E-09 1.63746E-11
1.90386E-09 1.41694E-11
2.09900E-09 1.23799E-11
2.30367E-09 1.08895E-11
2.51785E-09 9.49899E-12
2.74156E-09 8.34859E-12
2.97478E-09 7.38898E-12
3.21752E-09 6.49967E-12
3.46978E-09 5.75070E-12
3.73156E-09 5.11652E-12
4.00286E-09 4.54290E-12
4.28368E-09 4.04832E-12
4.57402E-09 3.62397E-12
4.87388E-09 3.24506E-12
5.18326E-09 2.91314E-12
5.50215E-09 2.62499E-12
5.83057E-09 2.36891E-12
6.16850E-09 2.14212E-12
6.51596E-09 1.94316E-12
6.87293E-09 1.76624E-12
7.23942E-09 1.60828E-12
7.61544E-09 1.46840E-12
1.18991E-08 6.56866E-13
1.71347E-08 3.42009E-13
2.33223E-08 1.97082E-13
3.04617E-08 1.21711E-13
3.85531E-08 7.90123E-14
4.75965E-08 5.33241E-14
5.75917E-08 3.71662E-14
6.85389E-08 2.66300E-14
8.04380E-08 1.95364E-14
9.32891E-08 1.46529E-14
1.07092E-07 1.11986E-14
1.21847E-07 8.70054E-15
1.37554E-07 6.86281E-15
1.54213E-07 5.48656E-15
1.71823E-07 4.43946E-15
1.90386E-07 3.63143E-15
2.09900E-07 2.99944E-15
2.30367E-07 2.49963E-15
2.51785E-07 2.10009E-15
2.74156E-07 1.77754E-15
2.97478E-07 1.51477E-15
3.21752E-07 1.29884E-15
3.46978E-07 1.12014E-15
3.73156E-07 9.71202E-16
4.00286E-07 8.46258E-16
4.28368E-07 7.40799E-16
4.57402E-07 6.51241E-16
4.87388E-07 5.74829E-16
5.18325E-07 5.09308E-16
5.50215E-07 4.52863E-16
5.83057E-07 4.04024E-16
6.16850E-07 3.61577E-16
6.51596E-07 3.24558E-16
6.87293E-07 2.92157E-16
7.23942E-07 2.63696E-16
7.61543E-07 2.38615E-16
1.18991E-06 9.86593E-17
1.71347E-06 4.78234E-17
2.33223E-06 2.58910E-17
3.04617E-06 1.52049E-17
3.85531E-06 9.50393E-18
4.75964E-06 6.24085E-18
5.75916E-06 4.26526E-18
6.85388E-06 3.01301E-18
8.04378E-06 2.18837E-18
9.32888E-06 1.62750E-18
1.07092E-05 1.23535E-18
1.21846E-05 9.54510E-19
1.37553E-05 7.49135E-19
1.54212E-05 5.96147E-19
1.71822E-05 4.80298E-19
1.90385E-05 3.91246E-19
2.09899E-05 3.21973E-19
2.30365E-05 2.67371E-19
2.51783E-05 2.23858E-19
2.74153E-05 1.88840E-19
2.97475E-05 1.60405E-19
3.21749E-05 1.37126E-19
3.46974E-05 1.17925E-19
3.73152E-05 1.01974E-19
4.00281E-05 8.86338E-20
4.28362E-05 7.74077E-20
4.57395E-05 6.79045E-20
4.87380E-05 5.98156E-20
5.18317E-05 5.28955E-20
5.50205E-05 4.69473E-20
5.83045E-05 4.18122E-20
6.16838E-05 3.73607E-20
6.51582E-05 3.34867E-20
6.87277E-05 3.01026E-20
7.23925E-05 2.71359E-20
7.61524E-05 2.45233E-20
9.21439E-05 1.67572E-20
1.09658E-04 1.18364E-20
1.28695E-04 8.59709E-21
1.49255E-04 6.39389E-21
1.71338E-04 4.85364E-21
1.94942E-04 3.75051E-21
2.20070E-04 2.94376E-21
2.46720E-04 2.34276E-21
2.74892E-04 1.88759E-21
3.04586E-04 1.53780E-21
3.35803E-04 1.26539E-21
3.68542E-04 1.05072E-21
4.02802E-04 8.79681E-22
4.38585E-04 7.42061E-22
4.75889E-04 6.30323E-22
5.14715E-04 5.38833E-22
5.55063E-04 4.63347E-22
5.96931E-04 4.00618E-22
6.40321E-04 3.48145E-22
6.85233E-04 3.03979E-22
7.31665E-04 2.66591E-22
7.79618E-04 2.34772E-22
8.29092E-04 2.07553E-22
8.80086E-04 1.84160E-22
9.32601E-04 1.63966E-22
9.86636E-04 1.46460E-22
1.04219E-03 1.31223E-22
1.09927E-03 1.17912E-22
1.15786E-03 1.06242E-22
1.21797E-03 9.59769E-23
1.27961E-03 8.69178E-23
1.34276E-03 7.88990E-23
1.40743E-03 7.17805E-23
1.47362E-03 6.54437E-23
1.54133E-03 5.97880E-23
1.61056E-03 5.47274E-23
1.68131E-03 5.01885E-23
1.75357E-03 4.61081E-23
1.82735E-03 4.24317E-23
1.90265E-03 3.91124E-23
1.97947E-03 3.61094E-23
2.05780E-03 3.33873E-23
2.13765E-03 3.09151E-23
2.21902E-03 2.86660E-23
2.30190E-03 2.66161E-23
2.38630E-03 2.47448E-23
2.47222E-03 2.30337E-23
2.55965E-03 2.14666E-23
2.64859E-03 2.00294E-23
2.73905E-03 1.87093E-23
2.83103E-03 1.74952E-23
2.92452E-03 1.63769E-23
3.01952E-03 1.53455E-23
3.11604E-03 1.43932E-23
3.21407E-03 1.35128E-23
3.31362E-03 1.26978E-23
3.41468E-03 1.19426E-23
3.51725E-03 1.12420E-23
3.62133E-03 1.05913E-23
3.72692E-03 9.98636E-24
3.83403E-03 9.42337E-24
3.94265E-03 8.89890E-24
4.05278E-03 8.40985E-24
4.16442E-03 7.95339E-24
4.27757E-03 7.52698E-24
4.39223E-03 7.12828E-24
4.50840E-03 6.75516E-24
4.62608E-03 6.40570E-24
4.74527E-03 6.07813E-24
4.86597E-03 5.77082E-24
4.98817E-03 5.48231E-24
5.11188E-03 5.21124E-24
5.23711E-03 4.95637E-24
5.36383E-03 4.71655E-24
5.49207E-03 4.49075E-24
5.62181E-03 4.27799E-24
5.75306E-03 4.07739E-24
5.88581E-03 3.88814E-24
6.02007E-03 3.70946E-24
6.15583E-03 3.54068E-24
6.29310E-03 3.38114E-24
6.43187E-03 3.23026E-24
6.57214E-03 3.08747E-24
6.71392E-03 2.95226E-24
6.85720E-03 2.82417E-24
7.00198E-03 2.70275E-24
7.14827E-03 2.58759E-24
7.29605E-03 2.47832E-24
7.44534E-03 2.37458E-24
7.59612E-03 2.27604E-24
7.97965E-03 2.05048E-24
8.37255E-03 1.85133E-24
8.77480E-03 1.67499E-24
9.18641E-03 1.51844E-24
9.60736E-03 1.37910E-24
1.00376E-02 1.25479E-24
1.04773E-02 1.14362E-24
1.09262E-02 1.04400E-24
1.13844E-02 9.54523E-25
1.18520E-02 8.74006E-25
1.23288E-02 8.01409E-25
1.28150E-02 7.35833E-25
1.33104E-02 6.76494E-25
1.38150E-02 6.22708E-25
1.43290E-02 5.73876E-25
1.48521E-02 5.29472E-25
1.53845E-02 4.89034E-25
1.59262E-02 4.52155E-25
1.64770E-02 4.18475E-25
1.70371E-02 3.87674E-25
1.76063E-02 3.59472E-25
1.81848E-02 3.33616E-25
1.87724E-02 3.09884E-25
1.93692E-02 2.88074E-25
1.99751E-02 2.68011E-25
2.05901E-02 2.49533E-25
2.12143E-02 2.32498E-25
2.18476E-02 2.16778E-25
2.24900E-02 2.02257E-25
2.31415E-02 1.88832E-25
2.38021E-02 1.76407E-25
2.44717E-02 1.64900E-25
2.51504E-02 1.54232E-25
2.58382E-02 1.44336E-25
2.65349E-02 1.35147E-25
2.72407E-02 1.26609E-25
2.79555E-02 1.18669E-25
2.86793E-02 1.11281E-25
2.94120E-02 1.04402E-25
3.01537E-02 9.79917E-26
3.09043E-02 9.20148E-26
3.16639E-02 8.64384E-26
3.24324E-02 8.12325E-26
3.32098E-02 7.63697E-26
3.39961E-02 7.18248E-26
3.47912E-02 6.75745E-26
3.55952E-02 6.35978E-26
3.64081E-02 5.98751E-26
3.72297E-02 5.63884E-26
3.80602E-02 5.31211E-26
3.88995E-02 5.00581E-26
3.97476E-02 4.71851E-26
4.06044E-02 4.44893E-26
4.14700E-02 4.19586E-26
4.23443E-02 3.95820E-26
4.32273E-02 3.73491E-26
4.41190E-02 3.52505E-26
4.50194E-02 3.32772E-26
4.59284E-02 3.14213E-26
4.68461E-02 2.96750E-26
4.87074E-02 2.64838E-26
5.06030E-02 2.36529E-26
5.25328E-02 2.11388E-26
5.44967E-02 1.89033E-26
5.64946E-02 1.69134E-26
5.85262E-02 1.51405E-26
6.05914E-02 1.35594E-26
6.26901E-02 1.21481E-26
6.48222E-02 1.08874E-26
6.69873E-02 9.76037E-27
6.91854E-02 8.75217E-27
7.14163E-02 7.84971E-27
7.36799E-02 7.04142E-27
7.59760E-02 6.31712E-27
7.83043E-02 5.66776E-27
8.06647E-02 5.08534E-27
8.30571E-02 4.56278E-27
8.54812E-02 4.09375E-27
8.79369E-02 3.67267E-27
9.04240E-02 3.29453E-27
9.29422E-02 2.95489E-27
9.54915E-02 2.64978E-27
9.80716E-02 2.37565E-27
1.00682E-01 2.12935E-27
1.03323E-01 1.90803E-27
1.05995E-01 1.70917E-27
1.08696E-01 1.53048E-27
1.11427E-01 1.36995E-27
1.14188E-01 1.22573E-27
1.16978E-01 1.09618E-27
1.19797E-01 9.79850E-28
1.22645E-01 8.75399E-28
1.25522E-01 7.81642E-28
1.28428E-01 6.97509E-28
1.31361E-01 6.22038E-28
1.34323E-01 5.54362E-28
1.37313E-01 4.93701E-28
1.40330E-01 4.39352E-28
1.43375E-01 3.90683E-28
1.46447E-01 3.47123E-28
1.49545E-01 3.08159E-28
1.52671E-01 2.73327E-28
1.55823E-01 2.42209E-28
1.59001E-01 2.14429E-28
1.62205E-01 1.89649E-28
1.65435E-01 1.67561E-28
1.68690E-01 1.47890E-28
1.71970E-01 1.30387E-28
1.75276E-01 1.14829E-28
1.78606E-01 1.01013E-28
1.81961E-01 8.87584E-29
1.85340E-01 7.79004E-29
1.88743E-01 6.82918E-29
1.92169E-01 5.97997E-29
1.95619E-01 5.23047E-29
1.99092E-01 4.56992E-29
2.02589E-01 3.98866E-29
2.06107E-01 3.47801E-29
2.09649E-01 3.03015E-29
2.13212E-01 2.63810E-29
2.16797E-01 2.29556E-29
2.20404E-01 1.99689E-29
2.24032E-01 1.73706E-29
2.27680E-01 1.51154E-29
2.31350E-01 1.31629E-29
2.35040E-01 1.14769E-29
2.38751E-01 1.00253E-29
2.42481E-01 8.77931E-30
2.46231E-01 7.71323E-30
2.50000E-01 6.80430E-30
2.53788E-01 6.03226E-30
2.57595E-01 5.37912E-30
2.61421E-01 4.82896E-30
2.65264E-01 4.36768E-30
2.69126E-01 3.98283E-30
2.73005E-01 3.66344E-30
2.76901E-01 3.39985E-30
2.80814E-01 3.18359E-30
2.84744E-01 3.00724E-30
2.88691E-01 2.86432E-30
2.92653E-01 2.74917E-30
2.96632E-01 2.65691E-30
3.00625E-01 2.58329E-30
3.04634E-01 2.52466E-30
3.08658E-01 2.47788E-30
3.12697E-01 2.44028E-30
3.16749E-01 2.40958E-30
3.20816E-01 2.38387E-30
3.24896E-01 2.36155E-30
3.28990E-01 2.34129E-30
3.33097E-01 2.32199E-30
3.37216E-01 2.30278E-30
3.41348E-01 2.28294E-30
3.45492E-01 2.26192E-30
3.49647E-01 2.23933E-30
3.53814E-01 2.21484E-30
3.57992E-01 2.18827E-30
3.62181E-01 2.15948E-30
3.66381E-01 2.12843E-30
3.70590E-01 2.09512E-30
3.74810E-01 2.05960E-30
3.79039E-01 2.02197E-30
3.83277E-01 1.98233E-30
3.87524E-01 1.94083E-30
3.91780E-01 1.89763E-30
3.96044E-01 1.85290E-30
4.00316E-01 1.80683E-30
4.04596E-01 1.75959E-30
4.08882E-01 1.71137E-30
4.13176E-01 1.66236E-30
4.17476E-01 1.61273E-30
4.21783E-01 1.56266E-30
4.26095E-01 1.51232E-30
4.30413E-01 1.46187E-30
4.34737E-01 1.41147E-30
4.39065E-01 1.36125E-30
4.43398E-01 1.31136E-30
4.47736E-01 1.26190E-30
4.52077E-01 1.21301E-30
4.56422E-01 1.16478E-30
4.60770E-01 1.11731E-30
4.65122E-01 1.07068E-30
4.69476E-01 1.02497E-30
4.73832E-01 9.80241E-31
4.78190E-01 9.36557E-31
4.82550E-01 8.93965E-31
4.86912E-01 8.52507E-31
4.91274E-01 8.12217E-31
4.95637E-01 7.73122E-31
5.00000E-01 7.35244E-31
5.04363E-01 6.98597E-31
5.08726E-01 6.63190E-31
5.13088E-01 6.29027E-31
5.17450E-01 5.96108E-31
5.21810E-01 5.64427E-31
5.26168E-01 5.33974E-31
5.30524E-01 5.04738E-31
5.34878E-01 4.76703E-31
5.39230E-01 4.49849E-31
5.43578E-01 4.24156E-31
5.47923E-01 3.99599E-31
5.52264E-01 3.76155E-31
5.56602E-01 3.53795E-31
5.60935E-01 3.32492E-31
5.65263E-01 3.12216E-31
5.69587E-01 2.92937E-31
5.73905E-01 2.74623E-31
5.78217E-01 2.57244E-31
5.82524E-01 2.40766E-31
5.86824E-01 2.25159E-31
5.91118E-01 2.10390E-31
5.95404E-01 1.96426E-31
5.99684E-01 1.83236E-31
6.03956E-01 1.70789E-31
6.08220E-01 1.59054E-31
6.12476E-01 1.47998E-31
6.16723E-01 1.37594E-31
6.20961E-01 1.27811E-31
6.25190E-01 1.18619E-31
6.29410E-01 1.09993E-31
6.33619E-01 1.01902E-31
6.37819E-01 9.43227E-32
6.42008E-01 8.72276E-32
6.46186E-01 8.05920E-32
6.50353E-01 7.43920E-32
6.54508E-01 6.86043E-32
6.58652E-01 6.32066E-32
6.62784E-01 5.81772E-32
6.66903E-01 5.34956E-32
6.71010E-01 4.91419E-32
6.75104E-01 4.50972E-32
6.79184E-01 4.13431E-32
6.83251E-01 3.78624E-32
6.87303E-01 3.46385E-32
6.91342E-01 3.16555E-32
6.95366E-01 2.88985E-32
6.99375E-01 2.63530E-32
7.03368E-01 2.40056E-32
7.07347E-01 2.18433E-32
7.11309E-01 1.98538E-32
7.15256E-01 1.80255E-32
7.19186E-01 1.63476E-32
7.23099E-01 1.48096E-32
7.26995E-01 1.34018E-32
7.30874E-01 1.21149E-32
7.34736E-01 1.09402E-32
7.38579E-01 9.86957E-33
7.42405E-01 8.89527E-33
7.46212E-01 8.01008E-33
7.50000E-01 7.20721E-33
7.53769E-01 6.48031E-33
7.57519E-01 5.82341E-33
7.61249E-01 5.23095E-33
7.64960E-01 4.69769E-33
7.68650E-01 4.21878E-33
7.72320E-01 3.78969E-33
7.75968E-01 3.40617E-33
7.79596E-01 3.06429E-33
7.83203E-01 2.76040E-33
7.86788E-01 2.49109E-33
7.90351E-01 2.25321E-33
7.93893E-01 2.04383E-33
7.97411E-01 1.86026E-33
8.00908E-01 1.69999E-33
8.04381E-01 1.56071E-33
8.07831E-01 1.44030E-33
8.11257E-01 1.33681E-33
8.14660E-01 1.24842E-33
8.18039E-01 1.17348E-33
8.21394E-01 1.11049E-33
8.24724E-01 1.05805E-33
8.28030E-01 1.01489E-33
8.31310E-01 9.79863E-34
8.34565E-01 9.51916E-34
8.37795E-01 9.30093E-34
8.40999E-01 9.13527E-34
8.44177E-01 9.01434E-34
8.47329E-01 8.93109E-34
8.50455E-01 8.87916E-34
8.53553E-01 8.85284E-34
8.56625E-01 8.84702E-34
8.59670E-01 8.85717E-34
8.62687E-01 8.87923E-34
8.65677E-01 8.90965E-34
8.68639E-01 8.94528E-34
8.71572E-01 8.98336E-34
8.74478E-01 9.02152E-34
8.77355E-01 9.05768E-34
8.80203E-01 9.09008E-34
8.83022E-01 9.11722E-34
8.85812E-01 9.13785E-34
8.88573E-01 9.15093E-34
8.91304E-01 9.15563E-34
8.94005E-01 9.15130E-34
8.96677E-01 9.13745E-34
8.99318E-01 9.11371E-34
9.01928E-01 9.07989E-34
9.04508E-01 9.03584E-34
9.07058E-01 8.98157E-34
9.09576E-01 8.91716E-34
9.12063E-01 8.84276E-34
9.14519E-01 8.75858E-34
9.16943E-01 8.66491E-34
9.19335E-01 8.56206E-34
9.21696E-01 8.45040E-34
9.24024E-01 8.33034E-34
9.26320E-01 8.20228E-34
9.28584E-01 8.06670E-34
9.30815E-01 7.92404E-34
9.33013E-01 7.77479E-34
9.35178E-01 7.61943E-34
9.37310E-01 7.45846E-34
9.39409E-01 7.29235E-34
9.41474E-01 7.12159E-34
9.43505E-01 6.94669E-34
9.45503E-01 6.76811E-34
9.47467E-01 6.58632E-34
9.49397E-01 6.40180E-34
9.51293E-01 6.21498E-34
9.53154E-01 6.02631E-34
9.54981E-01 5.83620E-34
9.56773E-01 5.64509E-34
9.58530E-01 5.45336E-34
9.60252E-01 5.26138E-34
9.61940E-01 5.06955E-34
9.63592E-01 4.87819E-34
9.65209E-01 4.68765E-34
9.66790E-01 4.49826E-34
9.68336E-01 4.31031E-34
9.69846E-01 4.12412E-34
9.71321E-01 3.93993E-34
9.72759E-01 3.75803E-34
9.74162E-01 3.57864E-34
9.75528E-01 3.40203E-34
9.76858E-01 3.22839E-34
9.78152E-01 3.05794E-34
9.79410E-01 2.89086E-34
9.80631E-01 2.72736E-34
9.81815E-01 2.56758E-34
9.82963E-01 2.41171E-34
9.84074E-01 2.25986E-34
9.85148E-01 2.11221E-34
9.86185E-01 1.96886E-34
9.87185E-01 1.82993E-34
9.88148E-01 1.69554E-34
9.89074E-01 1.56579E-34
9.89962E-01 1.44077E-34
9.90814E-01 1.32058E-34
9.91627E-01 1.20528E-34
9.92404E-01 1.09494E-34
9.93143E-01 9.89654E-35
9.93844E-01 8.89462E-35
9.94508E-01 7.94419E-35
9.95134E-01 7.04584E-35
9.95722E-01 6.19996E-35
9.96273E-01 5.40699E-35
9.96786E-01 4.66723E-35
9.97261E-01 3.98114E-35
9.97698E-01 3.34897E-35
9.98097E-01 2.77095E-35
9.98459E-01 2.24728E-35
9.98782E-01 1.77825E-35
9.99067E-01 1.36402E-35
9.99315E-01 1.00471E-35
9.99524E-01 7.00507E-36
9.99695E-01 4.51430E-36
9.99829E-01 2.57632E-36
9.99924E-01 1.19147E-36
9.99981E-01 3.60327E-37
1.00000E+00 8.32144E-38
