 #
 # Subroutine ELSEPA. Elastic scattering of electrons and positrons
 #                    by neutral atoms and positive ions
 #
 # Projectile: electron
 # Kinetic energy = 6.00000E+08 eV = 2.20496E+07 a.u.
 #
 # WARNING: High-energy factorization with free-atom DF screening.
 #          Absorption, polarization and exchange corrections are
 #          switched off.
 #          Phase shifts are calculated for the bare nucleus.
 #          Scattering amplitudes are not evaluated.
 #
 # Element: Cu,  Z =  29,  atomic weight = 6.35460E+01 g/mol
 #
 # Nuclear model: Fermi distribution
 #                Average radius = 4.26986E-13 cm
 #                Skin thickness = 5.46000E-14 cm
 #
 # Number of electrons = 29
 #
 # Total elastic cross section = 1.83706E-18 cm**2 = 6.56028E-02 a0**2
 # 1st transport cross section = 4.79533E-27 cm**2 = 1.71244E-10 a0**2
 # 2nd transport cross section = 1.43813E-26 cm**2 = 5.13565E-10 a0**2
 #
 #
 # Differential cross section:                       MU=(1-COS(THETA))/2
 #
 #  THETA        MU          DCS          DCS        Sherman      error
 #  (deg)                 (cm**2/sr)   (a0**2/sr)    function
 #----------------------------------------------------------------------
0.00000E+00 4.26929E-09
7.61557E-13 3.92464E-09
1.18994E-12 3.75336E-09
1.71346E-12 3.56279E-09
2.33225E-12 3.36064E-09
3.04617E-12 3.15389E-09
3.85530E-12 2.94824E-09
4.75964E-12 2.74815E-09
5.75917E-12 2.55662E-09
6.85391E-12 2.37567E-09
8.04379E-12 2.20661E-09
9.32893E-12 2.04984E-09
1.07092E-11 1.90524E-09
1.21847E-11 1.77232E-09
1.37554E-11 1.65039E-09
1.54213E-11 1.53865E-09
1.71823E-11 1.43626E-09
1.90386E-11 1.34238E-09
2.09900E-11 1.25620E-09
2.30367E-11 1.17682E-09
2.51785E-11 1.10371E-09
2.74156E-11 1.03628E-09
2.97478E-11 9.73974E-10
3.21752E-11 9.16308E-10
3.46979E-11 8.62838E-10
3.73157E-11 8.13174E-10
4.00286E-11 7.66971E-10
4.28368E-11 7.23921E-10
4.57402E-11 6.83751E-10
4.87388E-11 6.46196E-10
5.18325E-11 6.10992E-10
5.50215E-11 5.78027E-10
5.83057E-11 5.47127E-10
6.16850E-11 5.18133E-10
6.51595E-11 4.89427E-10
6.87293E-11 4.61219E-10
7.23943E-11 4.35572E-10
7.61544E-11 4.12203E-10
1.18991E-10 2.48522E-10
1.71347E-10 1.54260E-10
2.33223E-10 9.83408E-11
3.04617E-10 6.44148E-11
3.85531E-10 4.33886E-11
4.75965E-10 3.00622E-11
5.75917E-10 2.14068E-11
6.85389E-10 1.56472E-11
8.04380E-10 1.17192E-11
9.32891E-10 8.97053E-12
1.07092E-09 6.99979E-12
1.21847E-09 5.55452E-12
1.37554E-09 4.47247E-12
1.54213E-09 3.64730E-12
1.71823E-09 3.00689E-12
1.90386E-09 2.50278E-12
2.09900E-09 2.10096E-12
2.30367E-09 1.77673E-12
2.51785E-09 1.51260E-12
2.74156E-09 1.29550E-12
2.97478E-09 1.11561E-12
3.21752E-09 9.65505E-13
3.46978E-09 8.39462E-13
3.73156E-09 7.33030E-13
4.00286E-09 6.42695E-13
4.28368E-09 5.65655E-13
4.57402E-09 4.99655E-13
4.87388E-09 4.42864E-13
5.18326E-09 3.93785E-13
5.50215E-09 3.51231E-13
5.83057E-09 3.14200E-13
6.16850E-09 2.81869E-13
6.51596E-09 2.53498E-13
6.87293E-09 2.28560E-13
7.23942E-09 2.06660E-13
7.61544E-09 1.87363E-13
1.18991E-08 7.83701E-14
1.71347E-08 3.83687E-14
2.33223E-08 2.09734E-14
3.04617E-08 1.24249E-14
3.85531E-08 7.82442E-15
4.75965E-08 5.16989E-15
5.75917E-08 3.55117E-15
6.85389E-08 2.51870E-15
8.04380E-08 1.83525E-15
9.32891E-08 1.36842E-15
1.07092E-07 1.04086E-15
1.21847E-07 8.05570E-16
1.37554E-07 6.33090E-16
1.54213E-07 5.04349E-16
1.71823E-07 4.06699E-16
1.90386E-07 3.31555E-16
2.09900E-07 2.72976E-16
2.30367E-07 2.26772E-16
2.51785E-07 1.89935E-16
2.74156E-07 1.60278E-16
2.97478E-07 1.36187E-16
3.21752E-07 1.16454E-16
3.46978E-07 1.00167E-16
3.73156E-07 8.66292E-17
4.00286E-07 7.53022E-17
4.28368E-07 6.57667E-17
4.57402E-07 5.76933E-17
4.87388E-07 5.08213E-17
5.18325E-07 4.49423E-17
5.50215E-07 3.98891E-17
5.83057E-07 3.55264E-17
6.16850E-07 3.17440E-17
6.51596E-07 2.84518E-17
6.87293E-07 2.55754E-17
7.23942E-07 2.30535E-17
7.61543E-07 2.08348E-17
1.18991E-06 8.53868E-18
1.71347E-06 4.11917E-18
2.33223E-06 2.22395E-18
3.04617E-06 1.30389E-18
3.85531E-06 8.14152E-19
4.75964E-06 5.34248E-19
5.75916E-06 3.64952E-19
6.85388E-06 2.57717E-19
8.04378E-06 1.87135E-19
9.32888E-06 1.39147E-19
1.07092E-05 1.05604E-19
1.21846E-05 8.15869E-20
1.37553E-05 6.40267E-20
1.54212E-05 5.09475E-20
1.71822E-05 4.10445E-20
1.90385E-05 3.34328E-20
2.09899E-05 2.75122E-20
2.30365E-05 2.28457E-20
2.51783E-05 1.91272E-20
2.74153E-05 1.61347E-20
2.97475E-05 1.37049E-20
3.21749E-05 1.17157E-20
3.46974E-05 1.00750E-20
3.73152E-05 8.71207E-21
4.00281E-05 7.57229E-21
4.28362E-05 6.61312E-21
4.57395E-05 5.80117E-21
4.87380E-05 5.11008E-21
5.18317E-05 4.51885E-21
5.50205E-05 4.01067E-21
5.83045E-05 3.57195E-21
6.16838E-05 3.19165E-21
6.51582E-05 2.86068E-21
6.87277E-05 2.57157E-21
7.23925E-05 2.31812E-21
7.61524E-05 2.07883E-21
9.21439E-05 1.41745E-21
1.09658E-04 9.98779E-22
1.28695E-04 7.23477E-22
1.49255E-04 5.36462E-22
1.71338E-04 4.05899E-22
1.94942E-04 3.12532E-22
2.20070E-04 2.44363E-22
2.46720E-04 1.93671E-22
2.74892E-04 1.55354E-22
3.04586E-04 1.25970E-22
3.35803E-04 1.03138E-22
3.68542E-04 8.51881E-23
4.02802E-04 7.09242E-23
4.38585E-04 5.94782E-23
4.75889E-04 5.02116E-23
5.14715E-04 4.26472E-23
5.55063E-04 3.64262E-23
5.96931E-04 3.12738E-23
6.40321E-04 2.69791E-23
6.85233E-04 2.33778E-23
7.31665E-04 2.03409E-23
7.79618E-04 1.77667E-23
8.29092E-04 1.55741E-23
8.80086E-04 1.36980E-23
9.32601E-04 1.20857E-23
9.86636E-04 1.06947E-23
1.04219E-03 9.49002E-24
1.09927E-03 8.44297E-24
1.15786E-03 7.52986E-24
1.21797E-03 6.73103E-24
1.27961E-03 6.03007E-24
1.34276E-03 5.41324E-24
1.40743E-03 4.86896E-24
1.47362E-03 4.38748E-24
1.54133E-03 3.96051E-24
1.61056E-03 3.58099E-24
1.68131E-03 3.24292E-24
1.75357E-03 2.94113E-24
1.82735E-03 2.67119E-24
1.90265E-03 2.42927E-24
1.97947E-03 2.21208E-24
2.05780E-03 2.01675E-24
2.13765E-03 1.84078E-24
2.21902E-03 1.68200E-24
2.30190E-03 1.53852E-24
2.38630E-03 1.40868E-24
2.47222E-03 1.29101E-24
2.55965E-03 1.18423E-24
2.64859E-03 1.08721E-24
2.73905E-03 9.98955E-25
2.83103E-03 9.18573E-25
2.92452E-03 8.45281E-25
3.01952E-03 7.78384E-25
3.11604E-03 7.17259E-25
3.21407E-03 6.61354E-25
3.31362E-03 6.10174E-25
3.41468E-03 5.63278E-25
3.51725E-03 5.20269E-25
3.62133E-03 4.80793E-25
3.72692E-03 4.44531E-25
3.83403E-03 4.11194E-25
3.94265E-03 3.80526E-25
4.05278E-03 3.52291E-25
4.16442E-03 3.26281E-25
4.27757E-03 3.02303E-25
4.39223E-03 2.80185E-25
4.50840E-03 2.59772E-25
4.62608E-03 2.40920E-25
4.74527E-03 2.23502E-25
4.86597E-03 2.07399E-25
4.98817E-03 1.92506E-25
5.11188E-03 1.78724E-25
5.23711E-03 1.65965E-25
5.36383E-03 1.54148E-25
5.49207E-03 1.43199E-25
5.62181E-03 1.33051E-25
5.75306E-03 1.23641E-25
5.88581E-03 1.14912E-25
6.02007E-03 1.06813E-25
6.15583E-03 9.92953E-26
6.29310E-03 9.23158E-26
6.43187E-03 8.58338E-26
6.57214E-03 7.98124E-26
6.71392E-03 7.42174E-26
6.85720E-03 6.90175E-26
7.00198E-03 6.41837E-26
7.14827E-03 5.96894E-26
7.29605E-03 5.55098E-26
7.44534E-03 5.16224E-26
7.59612E-03 4.80062E-26
7.97965E-03 4.00282E-26
8.37255E-03 3.33625E-26
8.77480E-03 2.77903E-26
9.18641E-03 2.31308E-26
9.60736E-03 1.92342E-26
1.00376E-02 1.59757E-26
1.04773E-02 1.32518E-26
1.09262E-02 1.09757E-26
1.13844E-02 9.07526E-27
1.18520E-02 7.48976E-27
1.23288E-02 6.16846E-27
1.28150E-02 5.06875E-27
1.33104E-02 4.15485E-27
1.38150E-02 3.39665E-27
1.43290E-02 2.76887E-27
1.48521E-02 2.25019E-27
1.53845E-02 1.82272E-27
1.59262E-02 1.47138E-27
1.64770E-02 1.18347E-27
1.70371E-02 9.48342E-28
1.76063E-02 7.57027E-28
1.81848E-02 6.01999E-28
1.87724E-02 4.76944E-28
1.93692E-02 3.76572E-28
1.99751E-02 2.96460E-28
2.05901E-02 2.32912E-28
2.12143E-02 1.82852E-28
2.18476E-02 1.43718E-28
2.24900E-02 1.13390E-28
2.31415E-02 9.01143E-29
2.38021E-02 7.24453E-29
2.44717E-02 5.91983E-29
2.51504E-02 4.94053E-29
2.58382E-02 4.22797E-29
2.65349E-02 3.71862E-29
2.72407E-02 3.36151E-29
2.79555E-02 3.11604E-29
2.86793E-02 2.95023E-29
2.94120E-02 2.83913E-29
3.01537E-02 2.76354E-29
3.09043E-02 2.70895E-29
3.16639E-02 2.66462E-29
3.24324E-02 2.62284E-29
3.32098E-02 2.57827E-29
3.39961E-02 2.52748E-29
3.47912E-02 2.46848E-29
3.55952E-02 2.40038E-29
3.64081E-02 2.32312E-29
3.72297E-02 2.23721E-29
3.80602E-02 2.14360E-29
3.88995E-02 2.04347E-29
3.97476E-02 1.93815E-29
4.06044E-02 1.82903E-29
4.14700E-02 1.71751E-29
4.23443E-02 1.60490E-29
4.32273E-02 1.49243E-29
4.41190E-02 1.38124E-29
4.50194E-02 1.27230E-29
4.59284E-02 1.16647E-29
4.68461E-02 1.06446E-29
4.87074E-02 8.74116E-30
5.06030E-02 7.04463E-30
5.25328E-02 5.56953E-30
5.44967E-02 4.31652E-30
5.64946E-02 3.27592E-30
5.85262E-02 2.43091E-30
6.05914E-02 1.76030E-30
6.26901E-02 1.24086E-30
6.48222E-02 8.48984E-31
6.69873E-02 5.62040E-31
6.91854E-02 3.59182E-31
7.14163E-02 2.21883E-31
7.36799E-02 1.34178E-31
7.59760E-02 8.27014E-32
7.83043E-02 5.65774E-32
8.06647E-02 4.72130E-32
8.30571E-02 4.80337E-32
8.54812E-02 5.41927E-32
8.79369E-02 6.22776E-32
9.04240E-02 7.00307E-32
9.29422E-02 7.60938E-32
9.54915E-02 7.97843E-32
9.80716E-02 8.09045E-32
1.00682E-01 7.95846E-32
1.03323E-01 7.61577E-32
1.05995E-01 7.10631E-32
1.08696E-01 6.47759E-32
1.11427E-01 5.77566E-32
1.14188E-01 5.04196E-32
1.16978E-01 4.31141E-32
1.19797E-01 3.61167E-32
1.22645E-01 2.96310E-32
1.25522E-01 2.37924E-32
1.28428E-01 1.86765E-32
1.31361E-01 1.43090E-32
1.34323E-01 1.06758E-32
1.37313E-01 7.73363E-33
1.40330E-01 5.41890E-33
1.43375E-01 3.65599E-33
1.46447E-01 2.36381E-33
1.49545E-01 1.46115E-33
1.52671E-01 8.70643E-34
1.55823E-01 5.21482E-34
1.59001E-01 3.51173E-34
1.62205E-01 3.06370E-34
1.65435E-01 3.43048E-34
1.68690E-01 4.26154E-34
1.71970E-01 5.28901E-34
1.75276E-01 6.31828E-34
1.78606E-01 7.21741E-34
1.81961E-01 7.90620E-34
1.85340E-01 8.34553E-34
1.88743E-01 8.52756E-34
1.92169E-01 8.46688E-34
1.95619E-01 8.19305E-34
1.99092E-01 7.74432E-34
2.02589E-01 7.16267E-34
2.06107E-01 6.49004E-34
2.09649E-01 5.76564E-34
2.13212E-01 5.02412E-34
2.16797E-01 4.29455E-34
2.20404E-01 3.60001E-34
2.24032E-01 2.95762E-34
2.27680E-01 2.37894E-34
2.31350E-01 1.87054E-34
2.35040E-01 1.43479E-34
2.38751E-01 1.07062E-34
2.42481E-01 7.74301E-35
2.46231E-01 5.40217E-35
2.50000E-01 3.61513E-35
2.53788E-01 2.30682E-35
2.57595E-01 1.40035E-35
2.61421E-01 8.20805E-36
2.65264E-01 4.98046E-36
2.69126E-01 3.68635E-36
2.73005E-01 3.77017E-36
2.76901E-01 4.76073E-36
2.80814E-01 6.27141E-36
2.84744E-01 7.99666E-36
2.88691E-01 9.70556E-36
2.92653E-01 1.12336E-35
2.96632E-01 1.24735E-35
3.00625E-01 1.33655E-35
3.04634E-01 1.38877E-35
3.08658E-01 1.40479E-35
3.12697E-01 1.38748E-35
3.16749E-01 1.34113E-35
3.20816E-01 1.27089E-35
3.24896E-01 1.18220E-35
3.28990E-01 1.08051E-35
3.33097E-01 9.70914E-36
3.37216E-01 8.58005E-36
3.41348E-01 7.45729E-36
3.45492E-01 6.37327E-36
3.49647E-01 5.35333E-36
3.53814E-01 4.41587E-36
3.57992E-01 3.57303E-36
3.62181E-01 2.83135E-36
3.66381E-01 2.19259E-36
3.70590E-01 1.65461E-36
3.74810E-01 1.21225E-36
3.79039E-01 8.58116E-37
3.83277E-01 5.83302E-37
3.87524E-01 3.78044E-37
3.91780E-01 2.32267E-37
3.96044E-01 1.36014E-37
4.00316E-01 7.97904E-38
4.04596E-01 5.48170E-38
4.08882E-01 5.32029E-38
4.13176E-01 6.80438E-38
4.17476E-01 9.34609E-38
4.21783E-01 1.24598E-37
4.26095E-01 1.57571E-37
4.30413E-01 1.89402E-37
4.34737E-01 2.17920E-37
4.39065E-01 2.41666E-37
4.43398E-01 2.59779E-37
4.47736E-01 2.71894E-37
4.52077E-01 2.78038E-37
4.56422E-01 2.78534E-37
4.60770E-01 2.73922E-37
4.65122E-01 2.64882E-37
4.69476E-01 2.52168E-37
4.73832E-01 2.36568E-37
4.78190E-01 2.18851E-37
4.82550E-01 1.99748E-37
4.86912E-01 1.79923E-37
4.91274E-01 1.59958E-37
4.95637E-01 1.40357E-37
5.00000E-01 1.21526E-37
5.04363E-01 1.03786E-37
5.08726E-01 8.73729E-38
5.13088E-01 7.24471E-38
5.17450E-01 5.91010E-38
5.21810E-01 4.73628E-38
5.26168E-01 3.72156E-38
5.30524E-01 2.85994E-38
5.34878E-01 2.14238E-38
5.39230E-01 1.55760E-38
5.43578E-01 1.09280E-38
5.47923E-01 7.34357E-39
5.52264E-01 4.68424E-39
5.56602E-01 1.00000E-45
5.60935E-01 1.00000E-45
5.65263E-01 1.00000E-45
5.69587E-01 1.00000E-45
5.73905E-01 1.00000E-45
5.78217E-01 1.00000E-45
5.82524E-01 1.00000E-45
5.86824E-01 1.00000E-45
5.91118E-01 1.00000E-45
5.95404E-01 1.00000E-45
5.99684E-01 1.00000E-45
6.03956E-01 1.00000E-45
6.08220E-01 1.00000E-45
6.12476E-01 1.00000E-45
6.16723E-01 1.00000E-45
6.20961E-01 1.00000E-45
6.25190E-01 1.00000E-45
6.29410E-01 1.00000E-45
6.33619E-01 1.00000E-45
6.37819E-01 1.00000E-45
6.42008E-01 1.00000E-45
6.46186E-01 1.00000E-45
6.50353E-01 1.00000E-45
6.54508E-01 1.00000E-45
6.58652E-01 1.00000E-45
6.62784E-01 1.00000E-45
6.66903E-01 1.00000E-45
6.71010E-01 1.00000E-45
6.75104E-01 1.00000E-45
6.79184E-01 1.00000E-45
6.83251E-01 1.00000E-45
6.87303E-01 1.00000E-45
6.91342E-01 1.00000E-45
6.95366E-01 1.00000E-45
6.99375E-01 1.00000E-45
7.03368E-01 1.00000E-45
7.07347E-01 1.00000E-45
7.11309E-01 1.00000E-45
7.15256E-01 1.00000E-45
7.19186E-01 1.00000E-45
7.23099E-01 1.00000E-45
7.26995E-01 1.00000E-45
7.30874E-01 1.00000E-45
7.34736E-01 1.00000E-45
7.38579E-01 1.00000E-45
7.42405E-01 1.00000E-45
7.46212E-01 1.00000E-45
7.50000E-01 1.00000E-45
7.53769E-01 1.00000E-45
7.57519E-01 1.00000E-45
7.61249E-01 1.00000E-45
7.64960E-01 1.00000E-45
7.68650E-01 1.00000E-45
7.72320E-01 1.00000E-45
7.75968E-01 1.00000E-45
7.79596E-01 1.00000E-45
7.83203E-01 1.00000E-45
7.86788E-01 1.00000E-45
7.90351E-01 1.00000E-45
7.93893E-01 1.00000E-45
7.97411E-01 1.00000E-45
8.00908E-01 1.00000E-45
8.04381E-01 1.00000E-45
8.07831E-01 1.00000E-45
8.11257E-01 1.00000E-45
8.14660E-01 1.00000E-45
8.18039E-01 1.00000E-45
8.21394E-01 1.00000E-45
8.24724E-01 1.00000E-45
8.28030E-01 1.00000E-45
8.31310E-01 1.00000E-45
8.34565E-01 1.00000E-45
8.37795E-01 1.00000E-45
8.40999E-01 1.00000E-45
8.44177E-01 1.00000E-45
8.47329E-01 1.00000E-45
8.50455E-01 1.00000E-45
8.53553E-01 1.00000E-45
8.56625E-01 1.00000E-45
8.59670E-01 1.00000E-45
8.62687E-01 1.00000E-45
8.65677E-01 1.00000E-45
8.68639E-01 1.00000E-45
8.71572E-01 1.00000E-45
8.74478E-01 1.00000E-45
8.77355E-01 1.00000E-45
8.80203E-01 1.00000E-45
8.83022E-01 1.00000E-45
8.85812E-01 1.00000E-45
8.88573E-01 1.00000E-45
8.91304E-01 1.00000E-45
8.94005E-01 1.00000E-45
8.96677E-01 1.00000E-45
8.99318E-01 1.00000E-45
9.01928E-01 1.00000E-45
9.04508E-01 1.00000E-45
9.07058E-01 1.00000E-45
9.09576E-01 1.00000E-45
9.12063E-01 1.00000E-45
9.14519E-01 1.00000E-45
9.16943E-01 1.00000E-45
9.19335E-01 1.00000E-45
9.21696E-01 1.00000E-45
9.24024E-01 1.00000E-45
9.26320E-01 1.00000E-45
9.28584E-01 1.00000E-45
9.30815E-01 1.00000E-45
9.33013E-01 1.00000E-45
9.35178E-01 1.00000E-45
9.37310E-01 1.00000E-45
9.39409E-01 1.00000E-45
9.41474E-01 1.00000E-45
9.43505E-01 1.00000E-45
9.45503E-01 1.00000E-45
9.47467E-01 1.00000E-45
9.49397E-01 1.00000E-45
9.51293E-01 1.00000E-45
9.53154E-01 1.00000E-45
9.54981E-01 1.00000E-45
9.56773E-01 1.00000E-45
9.58530E-01 1.00000E-45
9.60252E-01 1.00000E-45
9.61940E-01 1.00000E-45
9.63592E-01 1.00000E-45
9.65209E-01 1.00000E-45
9.66790E-01 1.00000E-45
9.68336E-01 1.00000E-45
9.69846E-01 1.00000E-45
9.71321E-01 1.00000E-45
9.72759E-01 1.00000E-45
9.74162E-01 1.00000E-45
9.75528E-01 1.00000E-45
9.76858E-01 1.00000E-45
9.78152E-01 1.00000E-45
9.79410E-01 1.00000E-45
9.80631E-01 1.00000E-45
9.81815E-01 1.00000E-45
9.82963E-01 1.00000E-45
9.84074E-01 1.00000E-45
9.85148E-01 1.00000E-45
9.86185E-01 1.00000E-45
9.87185E-01 1.00000E-45
9.88148E-01 1.00000E-45
9.89074E-01 1.00000E-45
9.89962E-01 1.00000E-45
9.90814E-01 1.00000E-45
9.91627E-01 1.00000E-45
9.92404E-01 1.00000E-45
9.93143E-01 1.00000E-45
9.93844E-01 1.00000E-45
9.94508E-01 1.00000E-45
9.95134E-01 1.00000E-45
9.95722E-01 1.00000E-45
9.96273E-01 1.00000E-45
9.96786E-01 1.00000E-45
9.97261E-01 1.00000E-45
9.97698E-01 1.00000E-45
9.98097E-01 1.00000E-45
9.98459E-01 1.00000E-45
9.98782E-01 1.00000E-45
9.99067E-01 1.00000E-45
9.99315E-01 1.00000E-45
9.99524E-01 1.00000E-45
9.99695E-01 1.00000E-45
9.99829E-01 1.00000E-45
9.99924E-01 1.00000E-45
9.99981E-01 1.00000E-45
1.00000E+00 1.00000E-45
