 #
 # Subroutine ELSEPA. Elastic scattering of electrons and positrons
 #                    by neutral atoms and positive ions
 #
 # Projectile: electron
 # Kinetic energy = 1.00000E+08 eV = 3.67493E+06 a.u.
 #
 # WARNING: High-energy factorization with free-atom DF screening.
 #          Absorption, polarization and exchange corrections are
 #          switched off.
 #          Phase shifts are calculated for the bare nucleus.
 #          Scattering amplitudes are not evaluated.
 #
 # Element: Cu,  Z =  29,  atomic weight = 6.35460E+01 g/mol
 #
 # Nuclear model: Fermi distribution
 #                Average radius = 4.26986E-13 cm
 #                Skin thickness = 5.46000E-14 cm
 #
 # Number of electrons = 29
 #
 # Total elastic cross section = 1.84097E-18 cm**2 = 6.57424E-02 a0**2
 # 1st transport cross section = 1.70819E-25 cm**2 = 6.10004E-09 a0**2
 # 2nd transport cross section = 5.07612E-25 cm**2 = 1.81272E-08 a0**2
 #
 #
 # Differential cross section:                       MU=(1-COS(THETA))/2
 #
 #  THETA        MU          DCS          DCS        Sherman      error
 #  (deg)                 (cm**2/sr)   (a0**2/sr)    function
 #----------------------------------------------------------------------
0.00000E+00 1.19603E-10
7.61557E-13 1.19310E-10
1.18994E-12 1.19146E-10
1.71346E-12 1.18946E-10
2.33225E-12 1.18711E-10
3.04617E-12 1.18441E-10
3.85530E-12 1.18137E-10
4.75964E-12 1.17798E-10
5.75917E-12 1.17426E-10
6.85391E-12 1.17020E-10
8.04379E-12 1.16583E-10
9.32893E-12 1.16114E-10
1.07092E-11 1.15615E-10
1.21847E-11 1.15085E-10
1.37554E-11 1.14527E-10
1.54213E-11 1.13940E-10
1.71823E-11 1.13326E-10
1.90386E-11 1.12685E-10
2.09900E-11 1.12019E-10
2.30367E-11 1.11328E-10
2.51785E-11 1.10611E-10
2.74156E-11 1.09872E-10
2.97478E-11 1.09114E-10
3.21752E-11 1.08338E-10
3.46979E-11 1.07545E-10
3.73157E-11 1.06728E-10
4.00286E-11 1.05891E-10
4.28368E-11 1.05041E-10
4.57402E-11 1.04179E-10
4.87388E-11 1.03305E-10
5.18325E-11 1.02418E-10
5.50215E-11 1.01509E-10
5.83057E-11 1.00593E-10
6.16850E-11 9.96697E-11
6.51595E-11 9.87408E-11
6.87293E-11 9.78071E-11
7.23943E-11 9.68557E-11
7.61544E-11 9.58978E-11
1.18991E-10 8.62220E-11
1.71347E-10 7.67579E-11
2.33223E-10 6.79574E-11
3.04617E-10 6.00631E-11
3.85531E-10 5.31283E-11
4.75965E-10 4.71051E-11
5.75917E-10 4.18981E-11
6.85389E-10 3.73962E-11
8.04380E-10 3.34859E-11
9.32891E-10 3.00835E-11
1.07092E-09 2.71083E-11
1.21847E-09 2.44937E-11
1.37554E-09 2.21845E-11
1.54213E-09 2.01350E-11
1.71823E-09 1.83052E-11
1.90386E-09 1.66699E-11
2.09900E-09 1.52037E-11
2.30367E-09 1.38601E-11
2.51785E-09 1.25564E-11
2.74156E-09 1.14427E-11
2.97478E-09 1.04856E-11
3.21752E-09 9.65845E-12
3.46978E-09 8.93965E-12
3.73156E-09 8.19336E-12
4.00286E-09 7.49740E-12
4.28368E-09 6.88988E-12
4.57402E-09 6.35714E-12
4.87388E-09 5.88798E-12
5.18326E-09 5.45311E-12
5.50215E-09 5.01044E-12
5.83057E-09 4.61894E-12
6.16850E-09 4.27146E-12
6.51596E-09 3.96199E-12
6.87293E-09 3.68548E-12
7.23942E-09 3.40901E-12
7.61544E-09 3.15420E-12
1.18991E-08 1.55604E-12
1.71347E-08 8.29938E-13
2.33223E-08 4.77854E-13
3.04617E-08 2.95105E-13
3.85531E-08 1.93157E-13
4.75965E-08 1.32476E-13
5.75917E-08 9.42830E-14
6.85389E-08 6.90726E-14
8.04380E-08 5.17993E-14
9.32891E-08 3.96053E-14
1.07092E-07 3.07754E-14
1.21847E-07 2.42484E-14
1.37554E-07 1.93415E-14
1.54213E-07 1.55989E-14
1.71823E-07 1.27067E-14
1.90386E-07 1.04467E-14
2.09900E-07 8.66172E-15
2.30367E-07 7.23750E-15
2.51785E-07 6.09038E-15
2.74156E-07 5.16492E-15
2.97478E-07 4.40446E-15
3.21752E-07 3.78045E-15
3.46978E-07 3.26193E-15
3.73156E-07 2.82972E-15
4.00286E-07 2.46667E-15
4.28368E-07 2.16012E-15
4.57402E-07 1.89989E-15
4.87388E-07 1.67767E-15
5.18325E-07 1.48723E-15
5.50215E-07 1.32302E-15
5.83057E-07 1.18108E-15
6.16850E-07 1.05760E-15
6.51596E-07 9.50004E-16
6.87293E-07 8.55715E-16
7.23942E-07 7.72937E-16
7.61543E-07 6.99932E-16
1.18991E-06 2.91823E-16
1.71347E-06 1.42527E-16
2.33223E-06 7.76158E-17
3.04617E-06 4.57752E-17
3.85531E-06 2.87000E-17
4.75964E-06 1.88878E-17
5.75916E-06 1.29295E-17
6.85388E-06 9.14444E-18
8.04378E-06 6.64759E-18
9.32888E-06 4.94723E-18
1.07092E-05 3.75715E-18
1.21846E-05 2.90421E-18
1.37553E-05 2.28008E-18
1.54212E-05 1.81492E-18
1.71822E-05 1.46254E-18
1.90385E-05 1.19158E-18
2.09899E-05 9.80749E-19
2.30365E-05 8.14526E-19
2.51783E-05 6.82039E-19
2.74153E-05 5.75397E-19
2.97475E-05 4.88791E-19
3.21749E-05 4.17883E-19
3.46974E-05 3.59388E-19
3.73152E-05 3.10790E-19
4.00281E-05 2.70145E-19
4.28362E-05 2.35938E-19
4.57395E-05 2.06979E-19
4.87380E-05 1.82329E-19
5.18317E-05 1.61239E-19
5.50205E-05 1.43111E-19
5.83045E-05 1.27460E-19
6.16838E-05 1.13893E-19
6.51582E-05 1.02085E-19
6.87277E-05 9.17697E-20
7.23925E-05 8.27266E-20
7.61524E-05 7.47750E-20
9.21439E-05 5.11013E-20
1.09658E-04 3.60998E-20
1.28695E-04 2.62237E-20
1.49255E-04 1.95060E-20
1.71338E-04 1.48094E-20
1.94942E-04 1.14455E-20
2.20070E-04 8.98520E-21
2.46720E-04 7.15221E-21
2.74892E-04 5.76388E-21
3.04586E-04 4.69687E-21
3.35803E-04 3.86583E-21
3.68542E-04 3.21085E-21
4.02802E-04 2.68896E-21
4.38585E-04 2.26899E-21
4.75889E-04 1.92795E-21
5.14715E-04 1.64868E-21
5.55063E-04 1.41822E-21
5.96931E-04 1.22669E-21
6.40321E-04 1.06644E-21
6.85233E-04 9.31537E-22
7.31665E-04 8.17319E-22
7.79618E-04 7.20092E-22
8.29092E-04 6.36909E-22
8.80086E-04 5.65403E-22
9.32601E-04 5.03661E-22
9.86636E-04 4.50125E-22
1.04219E-03 4.03519E-22
1.09927E-03 3.62793E-22
1.15786E-03 3.27080E-22
1.21797E-03 2.95656E-22
1.27961E-03 2.67918E-22
1.34276E-03 2.43358E-22
1.40743E-03 2.21549E-22
1.47362E-03 2.02129E-22
1.54133E-03 1.84791E-22
1.61056E-03 1.69273E-22
1.68131E-03 1.55349E-22
1.75357E-03 1.42828E-22
1.82735E-03 1.31543E-22
1.90265E-03 1.21350E-22
1.97947E-03 1.12125E-22
2.05780E-03 1.03760E-22
2.13765E-03 9.61599E-23
2.21902E-03 8.92426E-23
2.30190E-03 8.29356E-23
2.38630E-03 7.71756E-23
2.47222E-03 7.19065E-23
2.55965E-03 6.70789E-23
2.64859E-03 6.26492E-23
2.73905E-03 5.85787E-23
2.83103E-03 5.48329E-23
2.92452E-03 5.13813E-23
3.01952E-03 4.81965E-23
3.11604E-03 4.52543E-23
3.21407E-03 4.25327E-23
3.31362E-03 4.00122E-23
3.41468E-03 3.76752E-23
3.51725E-03 3.55059E-23
3.62133E-03 3.34901E-23
3.72692E-03 3.16150E-23
3.83403E-03 2.98689E-23
3.94265E-03 2.82413E-23
4.05278E-03 2.67227E-23
4.16442E-03 2.53044E-23
4.27757E-03 2.39787E-23
4.39223E-03 2.27384E-23
4.50840E-03 2.15768E-23
4.62608E-03 2.04882E-23
4.74527E-03 1.94671E-23
4.86597E-03 1.85086E-23
4.98817E-03 1.76080E-23
5.11188E-03 1.67613E-23
5.23711E-03 1.59646E-23
5.36383E-03 1.52144E-23
5.49207E-03 1.45075E-23
5.62181E-03 1.38410E-23
5.75306E-03 1.32121E-23
5.88581E-03 1.26183E-23
6.02007E-03 1.20573E-23
6.15583E-03 1.15269E-23
6.29310E-03 1.10251E-23
6.43187E-03 1.05502E-23
6.57214E-03 1.01003E-23
6.71392E-03 9.67406E-24
6.85720E-03 9.26986E-24
7.00198E-03 8.88638E-24
7.14827E-03 8.52236E-24
7.29605E-03 8.17663E-24
7.44534E-03 7.84811E-24
7.59612E-03 7.53577E-24
7.97965E-03 6.81970E-24
8.37255E-03 6.18594E-24
8.77480E-03 5.62340E-24
9.18641E-03 5.12272E-24
9.60736E-03 4.67594E-24
1.00376E-02 4.27625E-24
1.04773E-02 3.91785E-24
1.09262E-02 3.59573E-24
1.13844E-02 3.30559E-24
1.18520E-02 3.04371E-24
1.23288E-02 2.80686E-24
1.28150E-02 2.59225E-24
1.33104E-02 2.39741E-24
1.38150E-02 2.22022E-24
1.43290E-02 2.05880E-24
1.48521E-02 1.91150E-24
1.53845E-02 1.77688E-24
1.59262E-02 1.65366E-24
1.64770E-02 1.54070E-24
1.70371E-02 1.43701E-24
1.76063E-02 1.34169E-24
1.81848E-02 1.25395E-24
1.87724E-02 1.17309E-24
1.93692E-02 1.09847E-24
1.99751E-02 1.02953E-24
2.05901E-02 9.65755E-25
2.12143E-02 9.06703E-25
2.18476E-02 8.51960E-25
2.24900E-02 8.01159E-25
2.31415E-02 7.53967E-25
2.38021E-02 7.10084E-25
2.44717E-02 6.69239E-25
2.51504E-02 6.31186E-25
2.58382E-02 5.95702E-25
2.65349E-02 5.62584E-25
2.72407E-02 5.31648E-25
2.79555E-02 5.02726E-25
2.86793E-02 4.75665E-25
2.94120E-02 4.50326E-25
3.01537E-02 4.26579E-25
3.09043E-02 4.04310E-25
3.16639E-02 3.83410E-25
3.24324E-02 3.63782E-25
3.32098E-02 3.45335E-25
3.39961E-02 3.27986E-25
3.47912E-02 3.11661E-25
3.55952E-02 2.96287E-25
3.64081E-02 2.81802E-25
3.72297E-02 2.68144E-25
3.80602E-02 2.55260E-25
3.88995E-02 2.43098E-25
3.97476E-02 2.31612E-25
4.06044E-02 2.20758E-25
4.14700E-02 2.10495E-25
4.23443E-02 2.00786E-25
4.32273E-02 1.91597E-25
4.41190E-02 1.82896E-25
4.50194E-02 1.74652E-25
4.59284E-02 1.66838E-25
4.68461E-02 1.59428E-25
4.87074E-02 1.45724E-25
5.06030E-02 1.33367E-25
5.25328E-02 1.22205E-25
5.44967E-02 1.12107E-25
5.64946E-02 1.02957E-25
5.85262E-02 9.46540E-26
6.05914E-02 8.71079E-26
6.26901E-02 8.02408E-26
6.48222E-02 7.39833E-26
6.69873E-02 6.82741E-26
6.91854E-02 6.30587E-26
7.14163E-02 5.82889E-26
7.36799E-02 5.39218E-26
7.59760E-02 4.99189E-26
7.83043E-02 4.62462E-26
8.06647E-02 4.28730E-26
8.30571E-02 3.97719E-26
8.54812E-02 3.69182E-26
8.79369E-02 3.42901E-26
9.04240E-02 3.18674E-26
9.29422E-02 2.96324E-26
9.54915E-02 2.75687E-26
9.80716E-02 2.56619E-26
1.00682E-01 2.38987E-26
1.03323E-01 2.22671E-26
1.05995E-01 2.07563E-26
1.08696E-01 1.93564E-26
1.11427E-01 1.80583E-26
1.14188E-01 1.68541E-26
1.16978E-01 1.57361E-26
1.19797E-01 1.46977E-26
1.22645E-01 1.37326E-26
1.25522E-01 1.28352E-26
1.28428E-01 1.20003E-26
1.31361E-01 1.12232E-26
1.34323E-01 1.04995E-26
1.37313E-01 9.82528E-27
1.40330E-01 9.19682E-27
1.43375E-01 8.61078E-27
1.46447E-01 8.06408E-27
1.49545E-01 7.55386E-27
1.52671E-01 7.07752E-27
1.55823E-01 6.63265E-27
1.59001E-01 6.21700E-27
1.62205E-01 5.82854E-27
1.65435E-01 5.46536E-27
1.68690E-01 5.12571E-27
1.71970E-01 4.80797E-27
1.75276E-01 4.51063E-27
1.78606E-01 4.23232E-27
1.81961E-01 3.97174E-27
1.85340E-01 3.72770E-27
1.88743E-01 3.49909E-27
1.92169E-01 3.28489E-27
1.95619E-01 3.08414E-27
1.99092E-01 2.89596E-27
2.02589E-01 2.71952E-27
2.06107E-01 2.55405E-27
2.09649E-01 2.39885E-27
2.13212E-01 2.25325E-27
2.16797E-01 2.11663E-27
2.20404E-01 1.98843E-27
2.24032E-01 1.86809E-27
2.27680E-01 1.75512E-27
2.31350E-01 1.64906E-27
2.35040E-01 1.54946E-27
2.38751E-01 1.45593E-27
2.42481E-01 1.36809E-27
2.46231E-01 1.28557E-27
2.50000E-01 1.20805E-27
2.53788E-01 1.13521E-27
2.57595E-01 1.06678E-27
2.61421E-01 1.00247E-27
2.65264E-01 9.42030E-28
2.69126E-01 8.85229E-28
2.73005E-01 8.31842E-28
2.76901E-01 7.81660E-28
2.80814E-01 7.34488E-28
2.84744E-01 6.90143E-28
2.88691E-01 6.48455E-28
2.92653E-01 6.09263E-28
2.96632E-01 5.72415E-28
3.00625E-01 5.37772E-28
3.04634E-01 5.05200E-28
3.08658E-01 4.74575E-28
3.12697E-01 4.45781E-28
3.16749E-01 4.18707E-28
3.20816E-01 3.93252E-28
3.24896E-01 3.69318E-28
3.28990E-01 3.46815E-28
3.33097E-01 3.25657E-28
3.37216E-01 3.05765E-28
3.41348E-01 2.87063E-28
3.45492E-01 2.69481E-28
3.49647E-01 2.52952E-28
3.53814E-01 2.37413E-28
3.57992E-01 2.22807E-28
3.62181E-01 2.09077E-28
3.66381E-01 1.96172E-28
3.70590E-01 1.84043E-28
3.74810E-01 1.72644E-28
3.79039E-01 1.61932E-28
3.83277E-01 1.51866E-28
3.87524E-01 1.42408E-28
3.91780E-01 1.33521E-28
3.96044E-01 1.25173E-28
4.00316E-01 1.17331E-28
4.04596E-01 1.09965E-28
4.08882E-01 1.03047E-28
4.13176E-01 9.65499E-29
4.17476E-01 9.04494E-29
4.21783E-01 8.47218E-29
4.26095E-01 7.93448E-29
4.30413E-01 7.42976E-29
4.34737E-01 6.95605E-29
4.39065E-01 6.51151E-29
4.43398E-01 6.09440E-29
4.47736E-01 5.70308E-29
4.52077E-01 5.33600E-29
4.56422E-01 4.99172E-29
4.60770E-01 4.66887E-29
4.65122E-01 4.36616E-29
4.69476E-01 4.08238E-29
4.73832E-01 3.81639E-29
4.78190E-01 3.56713E-29
4.82550E-01 3.33357E-29
4.86912E-01 3.11476E-29
4.91274E-01 2.90983E-29
4.95637E-01 2.71791E-29
5.00000E-01 2.53822E-29
5.04363E-01 2.37002E-29
5.08726E-01 2.21259E-29
5.13088E-01 2.06529E-29
5.17450E-01 1.92748E-29
5.21810E-01 1.79859E-29
5.26168E-01 1.67807E-29
5.30524E-01 1.56539E-29
5.34878E-01 1.46008E-29
5.39230E-01 1.36166E-29
5.43578E-01 1.26972E-29
5.47923E-01 1.18385E-29
5.52264E-01 1.10367E-29
5.56602E-01 1.02882E-29
5.60935E-01 9.58960E-30
5.65263E-01 8.93781E-30
5.69587E-01 8.32983E-30
5.73905E-01 7.76288E-30
5.78217E-01 7.23433E-30
5.82524E-01 6.74173E-30
5.86824E-01 6.28276E-30
5.91118E-01 5.85524E-30
5.95404E-01 5.45715E-30
5.99684E-01 5.08656E-30
6.03956E-01 4.74168E-30
6.08220E-01 4.42083E-30
6.12476E-01 4.12242E-30
6.16723E-01 3.84496E-30
6.20961E-01 3.58708E-30
6.25190E-01 3.34745E-30
6.29410E-01 3.12486E-30
6.33619E-01 2.91817E-30
6.37819E-01 2.72629E-30
6.42008E-01 2.54822E-30
6.46186E-01 2.38302E-30
6.50353E-01 2.22980E-30
6.54508E-01 2.08774E-30
6.58652E-01 1.95606E-30
6.62784E-01 1.83405E-30
6.66903E-01 1.72101E-30
6.71010E-01 1.61632E-30
6.75104E-01 1.51939E-30
6.79184E-01 1.42966E-30
6.83251E-01 1.34662E-30
6.87303E-01 1.26978E-30
6.91342E-01 1.19869E-30
6.95366E-01 1.13293E-30
6.99375E-01 1.07211E-30
7.03368E-01 1.01586E-30
7.07347E-01 9.63842E-31
7.11309E-01 9.15736E-31
7.15256E-01 8.71245E-31
7.19186E-01 8.30093E-31
7.23099E-01 7.92024E-31
7.26995E-01 7.56798E-31
7.30874E-01 7.24193E-31
7.34736E-01 6.94001E-31
7.38579E-01 6.66032E-31
7.42405E-01 6.40107E-31
7.46212E-01 6.16061E-31
7.50000E-01 5.93739E-31
7.53769E-01 5.73000E-31
7.57519E-01 5.53712E-31
7.61249E-01 5.35754E-31
7.64960E-01 5.19012E-31
7.68650E-01 5.03381E-31
7.72320E-01 4.88767E-31
7.75968E-01 4.75079E-31
7.79596E-01 4.62236E-31
7.83203E-01 4.50162E-31
7.86788E-01 4.38788E-31
7.90351E-01 4.28049E-31
7.93893E-01 4.17887E-31
7.97411E-01 4.08248E-31
8.00908E-01 3.99082E-31
8.04381E-01 3.90344E-31
8.07831E-01 3.81993E-31
8.11257E-01 3.73990E-31
8.14660E-01 3.66301E-31
8.18039E-01 3.58895E-31
8.21394E-01 3.51743E-31
8.24724E-01 3.44818E-31
8.28030E-01 3.38099E-31
8.31310E-01 3.31562E-31
8.34565E-01 3.25189E-31
8.37795E-01 3.18963E-31
8.40999E-01 3.12869E-31
8.44177E-01 3.06891E-31
8.47329E-01 3.01018E-31
8.50455E-01 2.95240E-31
8.53553E-01 2.89545E-31
8.56625E-01 2.83926E-31
8.59670E-01 2.78376E-31
8.62687E-01 2.72886E-31
8.65677E-01 2.67453E-31
8.68639E-01 2.62070E-31
8.71572E-01 2.56734E-31
8.74478E-01 2.51442E-31
8.77355E-01 2.46190E-31
8.80203E-01 2.40976E-31
8.83022E-01 2.35798E-31
8.85812E-01 2.30656E-31
8.88573E-01 2.25547E-31
8.91304E-01 2.20471E-31
8.94005E-01 2.15429E-31
8.96677E-01 2.10419E-31
8.99318E-01 2.05442E-31
9.01928E-01 2.00498E-31
9.04508E-01 1.95589E-31
9.07058E-01 1.90715E-31
9.09576E-01 1.85876E-31
9.12063E-01 1.81074E-31
9.14519E-01 1.76310E-31
9.16943E-01 1.71584E-31
9.19335E-01 1.66900E-31
9.21696E-01 1.62257E-31
9.24024E-01 1.57657E-31
9.26320E-01 1.53102E-31
9.28584E-01 1.48592E-31
9.30815E-01 1.44130E-31
9.33013E-01 1.39717E-31
9.35178E-01 1.35354E-31
9.37310E-01 1.31043E-31
9.39409E-01 1.26784E-31
9.41474E-01 1.22581E-31
9.43505E-01 1.18433E-31
9.45503E-01 1.14342E-31
9.47467E-01 1.10310E-31
9.49397E-01 1.06337E-31
9.51293E-01 1.02426E-31
9.53154E-01 9.85764E-32
9.54981E-01 9.47902E-32
9.56773E-01 9.10682E-32
9.58530E-01 8.74117E-32
9.60252E-01 8.38215E-32
9.61940E-01 8.02987E-32
9.63592E-01 7.68442E-32
9.65209E-01 7.34588E-32
9.66790E-01 7.01433E-32
9.68336E-01 6.68986E-32
9.69846E-01 6.37254E-32
9.71321E-01 6.06243E-32
9.72759E-01 5.75961E-32
9.74162E-01 5.46414E-32
9.75528E-01 5.17608E-32
9.76858E-01 4.89547E-32
9.78152E-01 4.62238E-32
9.79410E-01 4.35684E-32
9.80631E-01 4.09891E-32
9.81815E-01 3.84862E-32
9.82963E-01 3.60602E-32
9.84074E-01 3.37114E-32
9.85148E-01 3.14400E-32
9.86185E-01 2.92465E-32
9.87185E-01 2.71311E-32
9.88148E-01 2.50940E-32
9.89074E-01 2.31355E-32
9.89962E-01 2.12557E-32
9.90814E-01 1.94550E-32
9.91627E-01 1.77334E-32
9.92404E-01 1.60911E-32
9.93143E-01 1.45282E-32
9.93844E-01 1.30449E-32
9.94508E-01 1.16413E-32
9.95134E-01 1.03175E-32
9.95722E-01 9.07355E-33
9.96273E-01 7.90957E-33
9.96786E-01 6.82563E-33
9.97261E-01 5.82177E-33
9.97698E-01 4.89805E-33
9.98097E-01 4.05452E-33
9.98459E-01 3.29123E-33
9.98782E-01 2.60820E-33
9.99067E-01 2.00546E-33
9.99315E-01 1.48304E-33
9.99524E-01 1.04095E-33
9.99695E-01 6.79235E-34
9.99829E-01 3.97880E-34
9.99924E-01 1.96908E-34
9.99981E-01 7.63237E-35
1.00000E+00 3.61286E-35
