 #
 # Subroutine ELSEPA. Elastic scattering of electrons and positrons
 #                    by neutral atoms and positive ions
 #
 # Projectile: electron
 # Kinetic energy = 1.50000E+08 eV = 5.51240E+06 a.u.
 #
 # WARNING: High-energy factorization with free-atom DF screening.
 #          Absorption, polarization and exchange corrections are
 #          switched off.
 #          Phase shifts are calculated for the bare nucleus.
 #          Scattering amplitudes are not evaluated.
 #
 # Element: Pm,  Z =  61,  atomic weight = 1.44913E+02 g/mol
 #
 # Nuclear model: Fermi distribution
 #                Average radius = 5.62021E-13 cm
 #                Skin thickness = 5.46000E-14 cm
 #
 # Number of electrons = 61
 #
 # Total elastic cross section = 7.24893E-18 cm**2 = 2.58864E-01 a0**2
 # 1st transport cross section = 3.20133E-25 cm**2 = 1.14322E-08 a0**2
 # 2nd transport cross section = 9.56682E-25 cm**2 = 3.41637E-08 a0**2
 #
 #
 # Differential cross section:                       MU=(1-COS(THETA))/2
 #
 #  THETA        MU          DCS          DCS        Sherman      error
 #  (deg)                 (cm**2/sr)   (a0**2/sr)    function
 #----------------------------------------------------------------------
0.00000E+00 2.20296E-09
7.61557E-13 2.17681E-09
1.18994E-12 2.16234E-09
1.71346E-12 2.14487E-09
2.33225E-12 2.12452E-09
3.04617E-12 2.10143E-09
3.85530E-12 2.07576E-09
4.75964E-12 2.04769E-09
5.75917E-12 2.01737E-09
6.85391E-12 1.98502E-09
8.04379E-12 1.95084E-09
9.32893E-12 1.91500E-09
1.07092E-11 1.87790E-09
1.21847E-11 1.83964E-09
1.37554E-11 1.80008E-09
1.54213E-11 1.75938E-09
1.71823E-11 1.71860E-09
1.90386E-11 1.67728E-09
2.09900E-11 1.63531E-09
2.30367E-11 1.59302E-09
2.51785E-11 1.55155E-09
2.74156E-11 1.50985E-09
2.97478E-11 1.46804E-09
3.21752E-11 1.42695E-09
3.46979E-11 1.38672E-09
3.73157E-11 1.34669E-09
4.00286E-11 1.30693E-09
4.28368E-11 1.26877E-09
4.57402E-11 1.23127E-09
4.87388E-11 1.19423E-09
5.18325E-11 1.15798E-09
5.50215E-11 1.12345E-09
5.83057E-11 1.08950E-09
6.16850E-11 1.05616E-09
6.51595E-11 1.02418E-09
6.87293E-11 9.93443E-10
7.23943E-11 9.63356E-10
7.61544E-11 9.33943E-10
1.18991E-10 6.95157E-10
1.71347E-10 5.31410E-10
2.33223E-10 4.17940E-10
3.04617E-10 3.36420E-10
3.85531E-10 2.75299E-10
4.75965E-10 2.27888E-10
5.75917E-10 1.90202E-10
6.85389E-10 1.59736E-10
8.04380E-10 1.34843E-10
9.32891E-10 1.14410E-10
1.07092E-09 9.70557E-11
1.21847E-09 8.26296E-11
1.37554E-09 7.12482E-11
1.54213E-09 6.21533E-11
1.71823E-09 5.39197E-11
1.90386E-09 4.70151E-11
2.09900E-09 4.13704E-11
2.30367E-09 3.66464E-11
2.51785E-09 3.23154E-11
2.74156E-09 2.87037E-11
2.97478E-09 2.56684E-11
3.21752E-09 2.29776E-11
3.46978E-09 2.05723E-11
3.73156E-09 1.85202E-11
4.00286E-09 1.67589E-11
4.28368E-09 1.51239E-11
4.57402E-09 1.36899E-11
4.87388E-09 1.24449E-11
5.18326E-09 1.13433E-11
5.50215E-09 1.03168E-11
5.83057E-09 9.41697E-12
6.16850E-09 8.62491E-12
6.51596E-09 7.90074E-12
6.87293E-09 7.24064E-12
7.23942E-09 6.65493E-12
7.61544E-09 6.13354E-12
1.18991E-08 2.88522E-12
1.71347E-08 1.54111E-12
2.33223E-08 9.07784E-13
3.04617E-08 5.72918E-13
3.85531E-08 3.79913E-13
4.75965E-08 2.61484E-13
5.75917E-08 1.85281E-13
6.85389E-08 1.34652E-13
8.04380E-08 1.00090E-13
9.32891E-08 7.58885E-14
1.07092E-07 5.85354E-14
1.21847E-07 4.59224E-14
1.37554E-07 3.65122E-14
1.54213E-07 2.94132E-14
1.71823E-07 2.39702E-14
1.90386E-07 1.97251E-14
2.09900E-07 1.63852E-14
2.30367E-07 1.37275E-14
2.51785E-07 1.15854E-14
2.74156E-07 9.84615E-15
2.97478E-07 8.42286E-15
3.21752E-07 7.24670E-15
3.46978E-07 6.26845E-15
3.73156E-07 5.45037E-15
4.00286E-07 4.76111E-15
4.28368E-07 4.17684E-15
4.57402E-07 3.67970E-15
4.87388E-07 3.25429E-15
5.18325E-07 2.88809E-15
5.50215E-07 2.57207E-15
5.83057E-07 2.29814E-15
6.16850E-07 2.05935E-15
6.51596E-07 1.85083E-15
6.87293E-07 1.66806E-15
7.23942E-07 1.50714E-15
7.61543E-07 1.36515E-15
1.18991E-06 5.68923E-16
1.71347E-06 2.77419E-16
2.33223E-06 1.50957E-16
3.04617E-06 8.90467E-17
3.85531E-06 5.58736E-17
4.75964E-06 3.68107E-17
5.75916E-06 2.52281E-17
6.85388E-06 1.78634E-17
8.04378E-06 1.30001E-17
9.32888E-06 9.68460E-18
1.07092E-05 7.36158E-18
1.21846E-05 5.69503E-18
1.37553E-05 4.47438E-18
1.54212E-05 3.56387E-18
1.71822E-05 2.87358E-18
1.90385E-05 2.34162E-18
2.09899E-05 1.92887E-18
2.30365E-05 1.60299E-18
2.51783E-05 1.34283E-18
2.74153E-05 1.13315E-18
2.97475E-05 9.62723E-19
3.21749E-05 8.23158E-19
3.46974E-05 7.08045E-19
3.73152E-05 6.12438E-19
4.00281E-05 5.32492E-19
4.28362E-05 4.65202E-19
4.57395E-05 4.08214E-19
4.87380E-05 3.59676E-19
5.18317E-05 3.18124E-19
5.50205E-05 2.82390E-19
5.83045E-05 2.51531E-19
6.16838E-05 2.24777E-19
6.51582E-05 2.01495E-19
6.87277E-05 1.81159E-19
7.23925E-05 1.63331E-19
7.61524E-05 1.47918E-19
9.21439E-05 1.01170E-19
1.09658E-04 7.15246E-20
1.28695E-04 5.19989E-20
1.49255E-04 3.87074E-20
1.71338E-04 2.94105E-20
1.94942E-04 2.27472E-20
2.20070E-04 1.78712E-20
2.46720E-04 1.42365E-20
2.74892E-04 1.14818E-20
3.04586E-04 9.36349E-21
3.35803E-04 7.71267E-21
3.68542E-04 6.41083E-21
4.02802E-04 5.37291E-21
4.38585E-04 4.53717E-21
4.75889E-04 3.85812E-21
5.14715E-04 3.30170E-21
5.55063E-04 2.84226E-21
5.96931E-04 2.46018E-21
6.40321E-04 2.14032E-21
6.85233E-04 1.87089E-21
7.31665E-04 1.64263E-21
7.79618E-04 1.44820E-21
8.29092E-04 1.28175E-21
8.80086E-04 1.13858E-21
9.32601E-04 1.01489E-21
9.86636E-04 9.07564E-22
1.04219E-03 8.14079E-22
1.09927E-03 7.32328E-22
1.15786E-03 6.60595E-22
1.21797E-03 5.97439E-22
1.27961E-03 5.41657E-22
1.34276E-03 4.92237E-22
1.40743E-03 4.48328E-22
1.47362E-03 4.09205E-22
1.54133E-03 3.74257E-22
1.61056E-03 3.42958E-22
1.68131E-03 3.14860E-22
1.75357E-03 2.89578E-22
1.82735E-03 2.66778E-22
1.90265E-03 2.46175E-22
1.97947E-03 2.27518E-22
2.05780E-03 2.10591E-22
2.13765E-03 1.95204E-22
2.21902E-03 1.81192E-22
2.30190E-03 1.68410E-22
2.38630E-03 1.56731E-22
2.47222E-03 1.46043E-22
2.55965E-03 1.36245E-22
2.64859E-03 1.27251E-22
2.73905E-03 1.18982E-22
2.83103E-03 1.11370E-22
2.92452E-03 1.04353E-22
3.01952E-03 9.78751E-23
3.11604E-03 9.18885E-23
3.21407E-03 8.63488E-23
3.31362E-03 8.12165E-23
3.41468E-03 7.64562E-23
3.51725E-03 7.20361E-23
3.62133E-03 6.79273E-23
3.72692E-03 6.41041E-23
3.83403E-03 6.05428E-23
3.94265E-03 5.72224E-23
4.05278E-03 5.41234E-23
4.16442E-03 5.12286E-23
4.27757E-03 4.85219E-23
4.39223E-03 4.59890E-23
4.50840E-03 4.36166E-23
4.62608E-03 4.13927E-23
4.74527E-03 3.93063E-23
4.86597E-03 3.73474E-23
4.98817E-03 3.55068E-23
5.11188E-03 3.37760E-23
5.23711E-03 3.21473E-23
5.36383E-03 3.06135E-23
5.49207E-03 2.91682E-23
5.62181E-03 2.78054E-23
5.75306E-03 2.65193E-23
5.88581E-03 2.53051E-23
6.02007E-03 2.41578E-23
6.15583E-03 2.30732E-23
6.29310E-03 2.20472E-23
6.43187E-03 2.10761E-23
6.57214E-03 2.01565E-23
6.71392E-03 1.92850E-23
6.85720E-03 1.84587E-23
7.00198E-03 1.76750E-23
7.14827E-03 1.69311E-23
7.29605E-03 1.62247E-23
7.44534E-03 1.55535E-23
7.59612E-03 1.49156E-23
7.97965E-03 1.34536E-23
8.37255E-03 1.21606E-23
8.77480E-03 1.10138E-23
9.18641E-03 9.99402E-24
9.60736E-03 9.08498E-24
1.00376E-02 8.27273E-24
1.04773E-02 7.54531E-24
1.09262E-02 6.89248E-24
1.13844E-02 6.30539E-24
1.18520E-02 5.77637E-24
1.23288E-02 5.29880E-24
1.28150E-02 4.86690E-24
1.33104E-02 4.47563E-24
1.38150E-02 4.12060E-24
1.43290E-02 3.79792E-24
1.48521E-02 3.50423E-24
1.53845E-02 3.23652E-24
1.59262E-02 2.99216E-24
1.64770E-02 2.76881E-24
1.70371E-02 2.56442E-24
1.76063E-02 2.37713E-24
1.81848E-02 2.20531E-24
1.87724E-02 2.04751E-24
1.93692E-02 1.90243E-24
1.99751E-02 1.76890E-24
2.05901E-02 1.64587E-24
2.12143E-02 1.53241E-24
2.18476E-02 1.42768E-24
2.24900E-02 1.33091E-24
2.31415E-02 1.24143E-24
2.38021E-02 1.15861E-24
2.44717E-02 1.08190E-24
2.51504E-02 1.01078E-24
2.58382E-02 9.44815E-25
2.65349E-02 8.83570E-25
2.72407E-02 8.26673E-25
2.79555E-02 7.73779E-25
2.86793E-02 7.24573E-25
2.94120E-02 6.78770E-25
3.01537E-02 6.36108E-25
3.09043E-02 5.96349E-25
3.16639E-02 5.59274E-25
3.24324E-02 5.24683E-25
3.32098E-02 4.92392E-25
3.39961E-02 4.62234E-25
3.47912E-02 4.34053E-25
3.55952E-02 4.07707E-25
3.64081E-02 3.83065E-25
3.72297E-02 3.60008E-25
3.80602E-02 3.38423E-25
3.88995E-02 3.18209E-25
3.97476E-02 2.99271E-25
4.06044E-02 2.81521E-25
4.14700E-02 2.64879E-25
4.23443E-02 2.49271E-25
4.32273E-02 2.34627E-25
4.41190E-02 2.20882E-25
4.50194E-02 2.07979E-25
4.59284E-02 1.95860E-25
4.68461E-02 1.84476E-25
4.87074E-02 1.63725E-25
5.06030E-02 1.45382E-25
5.25328E-02 1.29154E-25
5.44967E-02 1.14782E-25
5.64946E-02 1.02045E-25
5.85262E-02 9.07471E-26
6.05914E-02 8.07199E-26
6.26901E-02 7.18148E-26
6.48222E-02 6.39018E-26
6.69873E-02 5.68669E-26
6.91854E-02 5.06101E-26
7.14163E-02 4.50433E-26
7.36799E-02 4.00887E-26
7.59760E-02 3.56779E-26
7.83043E-02 3.17504E-26
8.06647E-02 2.82526E-26
8.30571E-02 2.51372E-26
8.54812E-02 2.23622E-26
8.79369E-02 1.98903E-26
9.04240E-02 1.76885E-26
9.29422E-02 1.57274E-26
9.54915E-02 1.39808E-26
9.80716E-02 1.24255E-26
1.00682E-01 1.10408E-26
1.03323E-01 9.80835E-27
1.05995E-01 8.71157E-27
1.08696E-01 7.73586E-27
1.11427E-01 6.86813E-27
1.14188E-01 6.09671E-27
1.16978E-01 5.41118E-27
1.19797E-01 4.80223E-27
1.22645E-01 4.26154E-27
1.25522E-01 3.78169E-27
1.28428E-01 3.35604E-27
1.31361E-01 2.97867E-27
1.34323E-01 2.64428E-27
1.37313E-01 2.34814E-27
1.40330E-01 2.08601E-27
1.43375E-01 1.85413E-27
1.46447E-01 1.64911E-27
1.49545E-01 1.46795E-27
1.52671E-01 1.30796E-27
1.55823E-01 1.16674E-27
1.59001E-01 1.04214E-27
1.62205E-01 9.32273E-28
1.65435E-01 8.35426E-28
1.68690E-01 7.50087E-28
1.71970E-01 6.74910E-28
1.75276E-01 6.08695E-28
1.78606E-01 5.50378E-28
1.81961E-01 4.99013E-28
1.85340E-01 4.53759E-28
1.88743E-01 4.13873E-28
1.92169E-01 3.78696E-28
1.95619E-01 3.47644E-28
1.99092E-01 3.20201E-28
2.02589E-01 2.95914E-28
2.06107E-01 2.74381E-28
2.09649E-01 2.55248E-28
2.13212E-01 2.38207E-28
2.16797E-01 2.22984E-28
2.20404E-01 2.09340E-28
2.24032E-01 1.97068E-28
2.27680E-01 1.85984E-28
2.31350E-01 1.75931E-28
2.35040E-01 1.66770E-28
2.38751E-01 1.58382E-28
2.42481E-01 1.50663E-28
2.46231E-01 1.43523E-28
2.50000E-01 1.36887E-28
2.53788E-01 1.30688E-28
2.57595E-01 1.24869E-28
2.61421E-01 1.19383E-28
2.65264E-01 1.14189E-28
2.69126E-01 1.09252E-28
2.73005E-01 1.04543E-28
2.76901E-01 1.00038E-28
2.80814E-01 9.57158E-29
2.84744E-01 9.15606E-29
2.88691E-01 8.75578E-29
2.92653E-01 8.36960E-29
2.96632E-01 7.99659E-29
3.00625E-01 7.63596E-29
3.04634E-01 7.28712E-29
3.08658E-01 6.94956E-29
3.12697E-01 6.62287E-29
3.16749E-01 6.30674E-29
3.20816E-01 6.00090E-29
3.24896E-01 5.70514E-29
3.28990E-01 5.41929E-29
3.33097E-01 5.14320E-29
3.37216E-01 4.87673E-29
3.41348E-01 4.61977E-29
3.45492E-01 4.37221E-29
3.49647E-01 4.13392E-29
3.53814E-01 3.90481E-29
3.57992E-01 3.68474E-29
3.62181E-01 3.47360E-29
3.66381E-01 3.27125E-29
3.70590E-01 3.07754E-29
3.74810E-01 2.89234E-29
3.79039E-01 2.71546E-29
3.83277E-01 2.54674E-29
3.87524E-01 2.38601E-29
3.91780E-01 2.23306E-29
3.96044E-01 2.08771E-29
4.00316E-01 1.94974E-29
4.04596E-01 1.81895E-29
4.08882E-01 1.69511E-29
4.13176E-01 1.57800E-29
4.17476E-01 1.46740E-29
4.21783E-01 1.36308E-29
4.26095E-01 1.26480E-29
4.30413E-01 1.17234E-29
4.34737E-01 1.08547E-29
4.39065E-01 1.00394E-29
4.43398E-01 9.27542E-30
4.47736E-01 8.56035E-30
4.52077E-01 7.89199E-30
4.56422E-01 7.26812E-30
4.60770E-01 6.68656E-30
4.65122E-01 6.14520E-30
4.69476E-01 5.64195E-30
4.73832E-01 5.17478E-30
4.78190E-01 4.74173E-30
4.82550E-01 4.34088E-30
4.86912E-01 3.97039E-30
4.91274E-01 3.62847E-30
4.95637E-01 3.31339E-30
5.00000E-01 3.02350E-30
5.04363E-01 2.75721E-30
5.08726E-01 2.51299E-30
5.13088E-01 2.28938E-30
5.17450E-01 2.08500E-30
5.21810E-01 1.89850E-30
5.26168E-01 1.72864E-30
5.30524E-01 1.57421E-30
5.34878E-01 1.43407E-30
5.39230E-01 1.30715E-30
5.43578E-01 1.19242E-30
5.47923E-01 1.08894E-30
5.52264E-01 9.95792E-31
5.56602E-01 9.12132E-31
5.60935E-01 8.37162E-31
5.65263E-01 7.70136E-31
5.69587E-01 7.10355E-31
5.73905E-01 6.57167E-31
5.78217E-01 6.09966E-31
5.82524E-01 5.68185E-31
5.86824E-01 5.31301E-31
5.91118E-01 4.98826E-31
5.95404E-01 4.70313E-31
5.99684E-01 4.45344E-31
6.03956E-01 4.23539E-31
6.08220E-01 4.04544E-31
6.12476E-01 3.88039E-31
6.16723E-01 3.73727E-31
6.20961E-01 3.61339E-31
6.25190E-01 3.50631E-31
6.29410E-01 3.41378E-31
6.33619E-01 3.33379E-31
6.37819E-01 3.26452E-31
6.42008E-01 3.20433E-31
6.46186E-01 3.15174E-31
6.50353E-01 3.10545E-31
6.54508E-01 3.06427E-31
6.58652E-01 3.02718E-31
6.62784E-01 2.99325E-31
6.66903E-01 2.96169E-31
6.71010E-01 2.93180E-31
6.75104E-01 2.90297E-31
6.79184E-01 2.87468E-31
6.83251E-01 2.84649E-31
6.87303E-01 2.81804E-31
6.91342E-01 2.78901E-31
6.95366E-01 2.75916E-31
6.99375E-01 2.72829E-31
7.03368E-01 2.69625E-31
7.07347E-01 2.66292E-31
7.11309E-01 2.62824E-31
7.15256E-01 2.59216E-31
7.19186E-01 2.55466E-31
7.23099E-01 2.51576E-31
7.26995E-01 2.47548E-31
7.30874E-01 2.43386E-31
7.34736E-01 2.39099E-31
7.38579E-01 2.34691E-31
7.42405E-01 2.30173E-31
7.46212E-01 2.25553E-31
7.50000E-01 2.20841E-31
7.53769E-01 2.16048E-31
7.57519E-01 2.11183E-31
7.61249E-01 2.06258E-31
7.64960E-01 2.01284E-31
7.68650E-01 1.96271E-31
7.72320E-01 1.91229E-31
7.75968E-01 1.86170E-31
7.79596E-01 1.81103E-31
7.83203E-01 1.76038E-31
7.86788E-01 1.70985E-31
7.90351E-01 1.65952E-31
7.93893E-01 1.60948E-31
7.97411E-01 1.55981E-31
8.00908E-01 1.51059E-31
8.04381E-01 1.46189E-31
8.07831E-01 1.41377E-31
8.11257E-01 1.36629E-31
8.14660E-01 1.31952E-31
8.18039E-01 1.27350E-31
8.21394E-01 1.22827E-31
8.24724E-01 1.18389E-31
8.28030E-01 1.14038E-31
8.31310E-01 1.09778E-31
8.34565E-01 1.05612E-31
8.37795E-01 1.01542E-31
8.40999E-01 9.75708E-32
8.44177E-01 9.36989E-32
8.47329E-01 8.99280E-32
8.50455E-01 8.62592E-32
8.53553E-01 8.26931E-32
8.56625E-01 7.92299E-32
8.59670E-01 7.58697E-32
8.62687E-01 7.26123E-32
8.65677E-01 6.94572E-32
8.68639E-01 6.64037E-32
8.71572E-01 6.34511E-32
8.74478E-01 6.05980E-32
8.77355E-01 5.78434E-32
8.80203E-01 5.51859E-32
8.83022E-01 5.26238E-32
8.85812E-01 5.01556E-32
8.88573E-01 4.77794E-32
8.91304E-01 4.54933E-32
8.94005E-01 4.32956E-32
8.96677E-01 4.11840E-32
8.99318E-01 3.91565E-32
9.01928E-01 3.72110E-32
9.04508E-01 3.53454E-32
9.07058E-01 3.35573E-32
9.09576E-01 3.18447E-32
9.12063E-01 3.02052E-32
9.14519E-01 2.86366E-32
9.16943E-01 2.71367E-32
9.19335E-01 2.57033E-32
9.21696E-01 2.43340E-32
9.24024E-01 2.30269E-32
9.26320E-01 2.17795E-32
9.28584E-01 2.05899E-32
9.30815E-01 1.94559E-32
9.33013E-01 1.83754E-32
9.35178E-01 1.73464E-32
9.37310E-01 1.63669E-32
9.39409E-01 1.54349E-32
9.41474E-01 1.45486E-32
9.43505E-01 1.37060E-32
9.45503E-01 1.29053E-32
9.47467E-01 1.21448E-32
9.49397E-01 1.14228E-32
9.51293E-01 1.07376E-32
9.53154E-01 1.00876E-32
9.54981E-01 9.47114E-33
9.56773E-01 8.88685E-33
9.58530E-01 8.33322E-33
9.60252E-01 7.80884E-33
9.61940E-01 7.31236E-33
9.63592E-01 6.84246E-33
9.65209E-01 6.39790E-33
9.66790E-01 5.97747E-33
9.68336E-01 5.58001E-33
9.69846E-01 5.20440E-33
9.71321E-01 4.84959E-33
9.72759E-01 4.51454E-33
9.74162E-01 4.19828E-33
9.75528E-01 3.89989E-33
9.76858E-01 3.61846E-33
9.78152E-01 3.35315E-33
9.79410E-01 3.10315E-33
9.80631E-01 2.86768E-33
9.81815E-01 2.64602E-33
9.82963E-01 2.43745E-33
9.84074E-01 2.24132E-33
9.85148E-01 2.05700E-33
9.86185E-01 1.88390E-33
9.87185E-01 1.72143E-33
9.88148E-01 1.56909E-33
9.89074E-01 1.42634E-33
9.89962E-01 1.29274E-33
9.90814E-01 1.16781E-33
9.91627E-01 1.05114E-33
9.92404E-01 9.42342E-34
9.93143E-01 8.41032E-34
9.93844E-01 7.46868E-34
9.94508E-01 6.59523E-34
9.95134E-01 5.78695E-34
9.95722E-01 5.04102E-34
9.96273E-01 4.35484E-34
9.96786E-01 3.72601E-34
9.97261E-01 3.15231E-34
9.97698E-01 2.63171E-34
9.98097E-01 2.16237E-34
9.98459E-01 1.74264E-34
9.98782E-01 1.37101E-34
9.99067E-01 1.04616E-34
9.99315E-01 7.66947E-35
9.99524E-01 5.32346E-35
9.99695E-01 3.41547E-35
9.99829E-01 1.93847E-35
9.99924E-01 8.87270E-36
9.99981E-01 2.58021E-36
1.00000E+00 4.84750E-37
