 #
 # Subroutine ELSEPA. Elastic scattering of electrons and positrons
 #                    by neutral atoms and positive ions
 #
 # Projectile: electron
 # Kinetic energy = 2.00000E+07 eV = 7.34987E+05 a.u.
 #
 # WARNING: High-energy factorization with free-atom DF screening.
 #          Absorption, polarization and exchange corrections are
 #          switched off.
 #          Phase shifts are calculated for the bare nucleus.
 #          Scattering amplitudes are not evaluated.
 #
 # Element: Pm,  Z =  61,  atomic weight = 1.44913E+02 g/mol
 #
 # Nuclear model: Fermi distribution
 #                Average radius = 5.62021E-13 cm
 #                Skin thickness = 5.46000E-14 cm
 #
 # Number of electrons = 61
 #
 # Total elastic cross section = 7.25511E-18 cm**2 = 2.59085E-01 a0**2
 # 1st transport cross section = 1.66913E-23 cm**2 = 5.96056E-07 a0**2
 # 2nd transport cross section = 4.74206E-23 cm**2 = 1.69342E-06 a0**2
 #
 #
 # Differential cross section:                       MU=(1-COS(THETA))/2
 #
 #  THETA        MU          DCS          DCS        Sherman      error
 #  (deg)                 (cm**2/sr)   (a0**2/sr)    function
 #----------------------------------------------------------------------
0.00000E+00 4.09113E-11
7.61557E-13 4.09021E-11
1.18994E-12 4.08970E-11
1.71346E-12 4.08907E-11
2.33225E-12 4.08833E-11
3.04617E-12 4.08748E-11
3.85530E-12 4.08651E-11
4.75964E-12 4.08544E-11
5.75917E-12 4.08424E-11
6.85391E-12 4.08294E-11
8.04379E-12 4.08152E-11
9.32893E-12 4.07999E-11
1.07092E-11 4.07835E-11
1.21847E-11 4.07660E-11
1.37554E-11 4.07474E-11
1.54213E-11 4.07276E-11
1.71823E-11 4.07067E-11
1.90386E-11 4.06848E-11
2.09900E-11 4.06617E-11
2.30367E-11 4.06375E-11
2.51785E-11 4.06122E-11
2.74156E-11 4.05859E-11
2.97478E-11 4.05584E-11
3.21752E-11 4.05298E-11
3.46979E-11 4.05002E-11
3.73157E-11 4.04695E-11
4.00286E-11 4.04377E-11
4.28368E-11 4.04048E-11
4.57402E-11 4.03709E-11
4.87388E-11 4.03359E-11
5.18325E-11 4.02998E-11
5.50215E-11 4.02627E-11
5.83057E-11 4.02245E-11
6.16850E-11 4.01853E-11
6.51595E-11 4.01451E-11
6.87293E-11 4.01038E-11
7.23943E-11 4.00615E-11
7.61544E-11 4.00182E-11
1.18991E-10 3.95300E-11
1.71347E-10 3.89466E-11
2.33223E-10 3.82752E-11
3.04617E-10 3.75241E-11
3.85531E-10 3.67020E-11
4.75965E-10 3.58181E-11
5.75917E-10 3.48852E-11
6.85389E-10 3.39116E-11
8.04380E-10 3.28951E-11
9.32891E-10 3.18615E-11
1.07092E-09 3.08117E-11
1.21847E-09 2.97419E-11
1.37554E-09 2.86911E-11
1.54213E-09 2.76350E-11
1.71823E-09 2.65872E-11
1.90386E-09 2.55698E-11
2.09900E-09 2.45597E-11
2.30367E-09 2.35833E-11
2.51785E-09 2.26361E-11
2.74156E-09 2.17057E-11
2.97478E-09 2.08273E-11
3.21752E-09 1.99720E-11
3.46978E-09 1.91463E-11
3.73156E-09 1.83680E-11
4.00286E-09 1.76123E-11
4.28368E-09 1.68963E-11
4.57402E-09 1.62158E-11
4.87388E-09 1.55581E-11
5.18326E-09 1.49449E-11
5.50215E-09 1.43563E-11
5.83057E-09 1.37937E-11
6.16850E-09 1.32676E-11
6.51596E-09 1.27616E-11
6.87293E-09 1.22837E-11
7.23942E-09 1.18318E-11
7.61544E-09 1.13979E-11
1.18991E-08 8.10548E-12
1.71347E-08 6.02740E-12
2.33223E-08 4.61510E-12
3.04617E-08 3.59703E-12
3.85531E-08 2.83685E-12
4.75965E-08 2.25940E-12
5.75917E-08 1.80704E-12
6.85389E-08 1.45561E-12
8.04380E-08 1.19969E-12
9.32891E-08 9.91300E-13
1.07092E-07 8.25154E-13
1.21847E-07 6.98184E-13
1.37554E-07 5.88746E-13
1.54213E-07 5.02570E-13
1.71823E-07 4.32490E-13
1.90386E-07 3.72195E-13
2.09900E-07 3.23538E-13
2.30367E-07 2.81779E-13
2.51785E-07 2.46243E-13
2.74156E-07 2.16871E-13
2.97478E-07 1.90628E-13
3.21752E-07 1.68533E-13
3.46978E-07 1.49648E-13
3.73156E-07 1.32859E-13
4.00286E-07 1.18585E-13
4.28368E-07 1.06038E-13
4.57402E-07 9.50248E-14
4.87388E-07 8.55297E-14
5.18325E-07 7.70287E-14
5.50215E-07 6.96096E-14
5.83057E-07 6.30992E-14
6.16850E-07 5.72711E-14
6.51596E-07 5.21512E-14
6.87293E-07 4.75878E-14
7.23942E-07 4.35126E-14
7.61543E-07 3.98978E-14
1.18991E-06 1.85243E-14
1.71347E-06 9.88112E-15
2.33223E-06 5.75828E-15
3.04617E-06 3.56326E-15
3.85531E-06 2.31259E-15
4.75964E-06 1.56318E-15
5.75916E-06 1.09281E-15
6.85388E-06 7.87537E-16
8.04378E-06 5.82086E-16
9.32888E-06 4.39660E-16
1.07092E-05 3.38414E-16
1.21846E-05 2.64736E-16
1.37553E-05 2.10103E-16
1.54212E-05 1.68880E-16
1.71822E-05 1.37293E-16
1.90385E-05 1.12710E-16
2.09899E-05 9.34668E-17
2.30365E-05 7.81461E-17
2.51783E-05 6.58211E-17
2.74153E-05 5.58172E-17
2.97475E-05 4.76344E-17
3.21749E-05 4.08941E-17
3.46974E-05 3.53050E-17
3.73152E-05 3.06406E-17
4.00281E-05 2.67228E-17
4.28362E-05 2.34119E-17
4.57395E-05 2.05971E-17
4.87380E-05 1.81914E-17
5.18317E-05 1.61255E-17
5.50205E-05 1.43438E-17
5.83045E-05 1.28011E-17
6.16838E-05 1.14603E-17
6.51582E-05 1.02909E-17
6.87277E-05 9.26719E-18
7.23925E-05 8.36797E-18
7.61524E-05 7.57573E-18
9.21439E-05 5.20644E-18
1.09658E-04 3.69547E-18
1.28695E-04 2.69571E-18
1.49255E-04 2.01248E-18
1.71338E-04 1.53297E-18
1.94942E-04 1.18825E-18
2.20070E-04 9.35316E-19
2.46720E-04 7.46325E-19
2.74892E-04 6.02790E-19
3.04586E-04 4.92203E-19
3.35803E-04 4.05876E-19
3.68542E-04 3.37695E-19
4.02802E-04 2.83264E-19
4.38585E-04 2.39384E-19
4.75889E-04 2.03692E-19
5.14715E-04 1.74419E-19
5.55063E-04 1.50227E-19
5.96931E-04 1.30095E-19
6.40321E-04 1.13230E-19
6.85233E-04 9.90168E-20
7.31665E-04 8.69686E-20
7.79618E-04 7.67022E-20
8.29092E-04 6.79097E-20
8.80086E-04 6.03446E-20
9.32601E-04 5.38064E-20
9.86636E-04 4.81324E-20
1.04219E-03 4.31888E-20
1.09927E-03 3.88655E-20
1.15786E-03 3.50713E-20
1.21797E-03 3.17305E-20
1.27961E-03 2.87792E-20
1.34276E-03 2.61643E-20
1.40743E-03 2.38407E-20
1.47362E-03 2.17704E-20
1.54133E-03 1.99207E-20
1.61056E-03 1.82641E-20
1.68131E-03 1.67768E-20
1.75357E-03 1.54384E-20
1.82735E-03 1.42314E-20
1.90265E-03 1.31406E-20
1.97947E-03 1.21528E-20
2.05780E-03 1.12565E-20
2.13765E-03 1.04417E-20
2.21902E-03 9.69963E-21
2.30190E-03 9.02266E-21
2.38630E-03 8.40402E-21
2.47222E-03 7.83778E-21
2.55965E-03 7.31868E-21
2.64859E-03 6.84208E-21
2.73905E-03 6.40386E-21
2.83103E-03 6.00037E-21
2.92452E-03 5.62834E-21
3.01952E-03 5.28488E-21
3.11604E-03 4.96738E-21
3.21407E-03 4.67351E-21
3.31362E-03 4.40119E-21
3.41468E-03 4.14855E-21
3.51725E-03 3.91389E-21
3.62133E-03 3.69570E-21
3.72692E-03 3.49261E-21
3.83403E-03 3.30338E-21
3.94265E-03 3.12688E-21
4.05278E-03 2.96210E-21
4.16442E-03 2.80811E-21
4.27757E-03 2.66407E-21
4.39223E-03 2.52922E-21
4.50840E-03 2.40286E-21
4.62608E-03 2.28435E-21
4.74527E-03 2.17312E-21
4.86597E-03 2.06863E-21
4.98817E-03 1.97039E-21
5.11188E-03 1.87797E-21
5.23711E-03 1.79095E-21
5.36383E-03 1.70896E-21
5.49207E-03 1.63164E-21
5.62181E-03 1.55869E-21
5.75306E-03 1.48980E-21
5.88581E-03 1.42471E-21
6.02007E-03 1.36317E-21
6.15583E-03 1.30495E-21
6.29310E-03 1.24983E-21
6.43187E-03 1.19762E-21
6.57214E-03 1.14813E-21
6.71392E-03 1.10120E-21
6.85720E-03 1.05666E-21
7.00198E-03 1.01438E-21
7.14827E-03 9.74207E-22
7.29605E-03 9.36026E-22
7.44534E-03 8.99718E-22
7.59612E-03 8.65171E-22
7.97965E-03 7.85857E-22
8.37255E-03 7.15515E-22
8.77480E-03 6.52949E-22
9.18641E-03 5.97146E-22
9.60736E-03 5.47241E-22
1.00376E-02 5.02497E-22
1.04773E-02 4.62286E-22
1.09262E-02 4.26063E-22
1.13844E-02 3.93359E-22
1.18520E-02 3.63770E-22
1.23288E-02 3.36945E-22
1.28150E-02 3.12577E-22
1.33104E-02 2.90400E-22
1.38150E-02 2.70180E-22
1.43290E-02 2.51711E-22
1.48521E-02 2.34814E-22
1.53845E-02 2.19330E-22
1.59262E-02 2.05118E-22
1.64770E-02 1.92054E-22
1.70371E-02 1.80028E-22
1.76063E-02 1.68941E-22
1.81848E-02 1.58706E-22
1.87724E-02 1.49246E-22
1.93692E-02 1.40489E-22
1.99751E-02 1.32375E-22
2.05901E-02 1.24846E-22
2.12143E-02 1.17853E-22
2.18476E-02 1.11350E-22
2.24900E-02 1.05295E-22
2.31415E-02 9.96522E-23
2.38021E-02 9.43883E-23
2.44717E-02 8.94719E-23
2.51504E-02 8.48765E-23
2.58382E-02 8.05768E-23
2.65349E-02 7.65496E-23
2.72407E-02 7.27748E-23
2.79555E-02 6.92333E-23
2.86793E-02 6.59076E-23
2.94120E-02 6.27823E-23
3.01537E-02 5.98428E-23
3.09043E-02 5.70758E-23
3.16639E-02 5.44693E-23
3.24324E-02 5.20121E-23
3.32098E-02 4.96939E-23
3.39961E-02 4.75053E-23
3.47912E-02 4.54377E-23
3.55952E-02 4.34829E-23
3.64081E-02 4.16337E-23
3.72297E-02 3.98832E-23
3.80602E-02 3.82250E-23
3.88995E-02 3.66533E-23
3.97476E-02 3.51627E-23
4.06044E-02 3.37482E-23
4.14700E-02 3.24051E-23
4.23443E-02 3.11291E-23
4.32273E-02 2.99161E-23
4.41190E-02 2.87625E-23
4.50194E-02 2.76646E-23
4.59284E-02 2.66194E-23
4.68461E-02 2.56237E-23
4.87074E-02 2.37699E-23
5.06030E-02 2.20827E-23
5.25328E-02 2.05444E-23
5.44967E-02 1.91393E-23
5.64946E-02 1.78535E-23
5.85262E-02 1.66750E-23
6.05914E-02 1.55931E-23
6.26901E-02 1.45984E-23
6.48222E-02 1.36825E-23
6.69873E-02 1.28379E-23
6.91854E-02 1.20581E-23
7.14163E-02 1.13370E-23
7.36799E-02 1.06695E-23
7.59760E-02 1.00506E-23
7.83043E-02 9.47632E-24
8.06647E-02 8.94267E-24
8.30571E-02 8.44624E-24
8.54812E-02 7.98393E-24
8.79369E-02 7.55294E-24
9.04240E-02 7.15073E-24
9.29422E-02 6.77501E-24
9.54915E-02 6.42367E-24
9.80716E-02 6.09484E-24
1.00682E-01 5.78678E-24
1.03323E-01 5.49794E-24
1.05995E-01 5.22686E-24
1.08696E-01 4.97226E-24
1.11427E-01 4.73292E-24
1.14188E-01 4.50776E-24
1.16978E-01 4.29576E-24
1.19797E-01 4.09602E-24
1.22645E-01 3.90768E-24
1.25522E-01 3.72997E-24
1.28428E-01 3.56216E-24
1.31361E-01 3.40361E-24
1.34323E-01 3.25369E-24
1.37313E-01 3.11185E-24
1.40330E-01 2.97756E-24
1.43375E-01 2.85035E-24
1.46447E-01 2.72978E-24
1.49545E-01 2.61542E-24
1.52671E-01 2.50689E-24
1.55823E-01 2.40385E-24
1.59001E-01 2.30595E-24
1.62205E-01 2.21290E-24
1.65435E-01 2.12441E-24
1.68690E-01 2.04020E-24
1.71970E-01 1.96004E-24
1.75276E-01 1.88369E-24
1.78606E-01 1.81094E-24
1.81961E-01 1.74158E-24
1.85340E-01 1.67543E-24
1.88743E-01 1.61230E-24
1.92169E-01 1.55204E-24
1.95619E-01 1.49449E-24
1.99092E-01 1.43951E-24
2.02589E-01 1.38695E-24
2.06107E-01 1.33670E-24
2.09649E-01 1.28862E-24
2.13212E-01 1.24262E-24
2.16797E-01 1.19858E-24
2.20404E-01 1.15641E-24
2.24032E-01 1.11600E-24
2.27680E-01 1.07728E-24
2.31350E-01 1.04016E-24
2.35040E-01 1.00456E-24
2.38751E-01 9.70402E-25
2.42481E-01 9.37626E-25
2.46231E-01 9.06163E-25
2.50000E-01 8.75949E-25
2.53788E-01 8.46927E-25
2.57595E-01 8.19041E-25
2.61421E-01 7.92238E-25
2.65264E-01 7.66469E-25
2.69126E-01 7.41686E-25
2.73005E-01 7.17846E-25
2.76901E-01 6.94906E-25
2.80814E-01 6.72825E-25
2.84744E-01 6.51567E-25
2.88691E-01 6.31094E-25
2.92653E-01 6.11374E-25
2.96632E-01 5.92373E-25
3.00625E-01 5.74060E-25
3.04634E-01 5.56406E-25
3.08658E-01 5.39384E-25
3.12697E-01 5.22967E-25
3.16749E-01 5.07130E-25
3.20816E-01 4.91848E-25
3.24896E-01 4.77099E-25
3.28990E-01 4.62861E-25
3.33097E-01 4.49114E-25
3.37216E-01 4.35837E-25
3.41348E-01 4.23012E-25
3.45492E-01 4.10621E-25
3.49647E-01 3.98647E-25
3.53814E-01 3.87073E-25
3.57992E-01 3.75884E-25
3.62181E-01 3.65064E-25
3.66381E-01 3.54601E-25
3.70590E-01 3.44479E-25
3.74810E-01 3.34686E-25
3.79039E-01 3.25210E-25
3.83277E-01 3.16039E-25
3.87524E-01 3.07161E-25
3.91780E-01 2.98565E-25
3.96044E-01 2.90241E-25
4.00316E-01 2.82179E-25
4.04596E-01 2.74370E-25
4.08882E-01 2.66804E-25
4.13176E-01 2.59473E-25
4.17476E-01 2.52367E-25
4.21783E-01 2.45480E-25
4.26095E-01 2.38803E-25
4.30413E-01 2.32329E-25
4.34737E-01 2.26051E-25
4.39065E-01 2.19961E-25
4.43398E-01 2.14054E-25
4.47736E-01 2.08324E-25
4.52077E-01 2.02763E-25
4.56422E-01 1.97366E-25
4.60770E-01 1.92129E-25
4.65122E-01 1.87044E-25
4.69476E-01 1.82108E-25
4.73832E-01 1.77315E-25
4.78190E-01 1.72660E-25
4.82550E-01 1.68139E-25
4.86912E-01 1.63748E-25
4.91274E-01 1.59482E-25
4.95637E-01 1.55337E-25
5.00000E-01 1.51309E-25
5.04363E-01 1.47394E-25
5.08726E-01 1.43590E-25
5.13088E-01 1.39891E-25
5.17450E-01 1.36296E-25
5.21810E-01 1.32799E-25
5.26168E-01 1.29400E-25
5.30524E-01 1.26094E-25
5.34878E-01 1.22878E-25
5.39230E-01 1.19750E-25
5.43578E-01 1.16707E-25
5.47923E-01 1.13747E-25
5.52264E-01 1.10866E-25
5.56602E-01 1.08062E-25
5.60935E-01 1.05334E-25
5.65263E-01 1.02678E-25
5.69587E-01 1.00093E-25
5.73905E-01 9.75764E-26
5.78217E-01 9.51262E-26
5.82524E-01 9.27403E-26
5.86824E-01 9.04169E-26
5.91118E-01 8.81542E-26
5.95404E-01 8.59503E-26
5.99684E-01 8.38036E-26
6.03956E-01 8.17124E-26
6.08220E-01 7.96750E-26
6.12476E-01 7.76900E-26
6.16723E-01 7.57557E-26
6.20961E-01 7.38708E-26
6.25190E-01 7.20338E-26
6.29410E-01 7.02434E-26
6.33619E-01 6.84982E-26
6.37819E-01 6.67970E-26
6.42008E-01 6.51385E-26
6.46186E-01 6.35215E-26
6.50353E-01 6.19450E-26
6.54508E-01 6.04076E-26
6.58652E-01 5.89084E-26
6.62784E-01 5.74464E-26
6.66903E-01 5.60204E-26
6.71010E-01 5.46295E-26
6.75104E-01 5.32728E-26
6.79184E-01 5.19492E-26
6.83251E-01 5.06580E-26
6.87303E-01 4.93982E-26
6.91342E-01 4.81690E-26
6.95366E-01 4.69696E-26
6.99375E-01 4.57992E-26
7.03368E-01 4.46569E-26
7.07347E-01 4.35422E-26
7.11309E-01 4.24541E-26
7.15256E-01 4.13921E-26
7.19186E-01 4.03555E-26
7.23099E-01 3.93435E-26
7.26995E-01 3.83556E-26
7.30874E-01 3.73911E-26
7.34736E-01 3.64494E-26
7.38579E-01 3.55300E-26
7.42405E-01 3.46322E-26
7.46212E-01 3.37555E-26
7.50000E-01 3.28994E-26
7.53769E-01 3.20633E-26
7.57519E-01 3.12468E-26
7.61249E-01 3.04493E-26
7.64960E-01 2.96704E-26
7.68650E-01 2.89096E-26
7.72320E-01 2.81665E-26
7.75968E-01 2.74406E-26
7.79596E-01 2.67314E-26
7.83203E-01 2.60387E-26
7.86788E-01 2.53619E-26
7.90351E-01 2.47007E-26
7.93893E-01 2.40547E-26
7.97411E-01 2.34235E-26
8.00908E-01 2.28068E-26
8.04381E-01 2.22043E-26
8.07831E-01 2.16155E-26
8.11257E-01 2.10402E-26
8.14660E-01 2.04780E-26
8.18039E-01 1.99287E-26
8.21394E-01 1.93919E-26
8.24724E-01 1.88673E-26
8.28030E-01 1.83546E-26
8.31310E-01 1.78536E-26
8.34565E-01 1.73640E-26
8.37795E-01 1.68856E-26
8.40999E-01 1.64180E-26
8.44177E-01 1.59610E-26
8.47329E-01 1.55144E-26
8.50455E-01 1.50780E-26
8.53553E-01 1.46514E-26
8.56625E-01 1.42346E-26
8.59670E-01 1.38272E-26
8.62687E-01 1.34291E-26
8.65677E-01 1.30401E-26
8.68639E-01 1.26598E-26
8.71572E-01 1.22883E-26
8.74478E-01 1.19252E-26
8.77355E-01 1.15704E-26
8.80203E-01 1.12237E-26
8.83022E-01 1.08850E-26
8.85812E-01 1.05540E-26
8.88573E-01 1.02306E-26
8.91304E-01 9.91459E-27
8.94005E-01 9.60589E-27
8.96677E-01 9.30430E-27
8.99318E-01 9.00970E-27
9.01928E-01 8.72191E-27
9.04508E-01 8.44082E-27
9.07058E-01 8.16628E-27
9.09576E-01 7.89815E-27
9.12063E-01 7.63631E-27
9.14519E-01 7.38063E-27
9.16943E-01 7.13099E-27
9.19335E-01 6.88726E-27
9.21696E-01 6.64934E-27
9.24024E-01 6.41711E-27
9.26320E-01 6.19045E-27
9.28584E-01 5.96927E-27
9.30815E-01 5.75345E-27
9.33013E-01 5.54290E-27
9.35178E-01 5.33752E-27
9.37310E-01 5.13720E-27
9.39409E-01 4.94187E-27
9.41474E-01 4.75142E-27
9.43505E-01 4.56577E-27
9.45503E-01 4.38484E-27
9.47467E-01 4.20854E-27
9.49397E-01 4.03678E-27
9.51293E-01 3.86950E-27
9.53154E-01 3.70661E-27
9.54981E-01 3.54805E-27
9.56773E-01 3.39373E-27
9.58530E-01 3.24359E-27
9.60252E-01 3.09757E-27
9.61940E-01 2.95559E-27
9.63592E-01 2.81759E-27
9.65209E-01 2.68351E-27
9.66790E-01 2.55329E-27
9.68336E-01 2.42688E-27
9.69846E-01 2.30421E-27
9.71321E-01 2.18523E-27
9.72759E-01 2.06989E-27
9.74162E-01 1.95815E-27
9.75528E-01 1.84993E-27
9.76858E-01 1.74521E-27
9.78152E-01 1.64394E-27
9.79410E-01 1.54607E-27
9.80631E-01 1.45155E-27
9.81815E-01 1.36035E-27
9.82963E-01 1.27243E-27
9.84074E-01 1.18775E-27
9.85148E-01 1.10627E-27
9.86185E-01 1.02796E-27
9.87185E-01 9.52774E-28
9.88148E-01 8.80694E-28
9.89074E-01 8.11682E-28
9.89962E-01 7.45710E-28
9.90814E-01 6.82750E-28
9.91627E-01 6.22773E-28
9.92404E-01 5.65754E-28
9.93143E-01 5.11669E-28
9.93844E-01 4.60495E-28
9.94508E-01 4.12209E-28
9.95134E-01 3.66792E-28
9.95722E-01 3.24223E-28
9.96273E-01 2.84484E-28
9.96786E-01 2.47559E-28
9.97261E-01 2.13432E-28
9.97698E-01 1.82088E-28
9.98097E-01 1.53514E-28
9.98459E-01 1.27698E-28
9.98782E-01 1.04629E-28
9.99067E-01 8.42963E-29
9.99315E-01 6.66924E-29
9.99524E-01 5.18093E-29
9.99695E-01 3.96409E-29
9.99829E-01 3.01819E-29
9.99924E-01 2.34284E-29
9.99981E-01 1.93774E-29
1.00000E+00 1.80272E-29
