 #
 # Subroutine ELSEPA. Elastic scattering of electrons and positrons
 #                    by neutral atoms and positive ions
 #
 # Projectile: electron
 # Kinetic energy = 9.00000E+06 eV = 3.30744E+05 a.u.
 #
 # WARNING: High-energy factorization with free-atom DF screening.
 #          Absorption, polarization and exchange corrections are
 #          switched off.
 #          Phase shifts are calculated for the bare nucleus.
 #          Scattering amplitudes are not evaluated.
 #
 # Element: Pm,  Z =  61,  atomic weight = 1.44913E+02 g/mol
 #
 # Nuclear model: Fermi distribution
 #                Average radius = 5.62021E-13 cm
 #                Skin thickness = 5.46000E-14 cm
 #
 # Number of electrons = 61
 #
 # Total elastic cross section = 7.27234E-18 cm**2 = 2.59700E-01 a0**2
 # 1st transport cross section = 7.21557E-23 cm**2 = 2.57673E-06 a0**2
 # 2nd transport cross section = 2.01048E-22 cm**2 = 7.17957E-06 a0**2
 #
 #
 # Differential cross section:                       MU=(1-COS(THETA))/2
 #
 #  THETA        MU          DCS          DCS        Sherman      error
 #  (deg)                 (cm**2/sr)   (a0**2/sr)    function
 #----------------------------------------------------------------------
0.00000E+00 8.79674E-12
7.61557E-13 8.79631E-12
1.18994E-12 8.79608E-12
1.71346E-12 8.79579E-12
2.33225E-12 8.79545E-12
3.04617E-12 8.79505E-12
3.85530E-12 8.79461E-12
4.75964E-12 8.79411E-12
5.75917E-12 8.79356E-12
6.85391E-12 8.79295E-12
8.04379E-12 8.79230E-12
9.32893E-12 8.79159E-12
1.07092E-11 8.79083E-12
1.21847E-11 8.79002E-12
1.37554E-11 8.78915E-12
1.54213E-11 8.78824E-12
1.71823E-11 8.78727E-12
1.90386E-11 8.78625E-12
2.09900E-11 8.78517E-12
2.30367E-11 8.78405E-12
2.51785E-11 8.78287E-12
2.74156E-11 8.78164E-12
2.97478E-11 8.78036E-12
3.21752E-11 8.77903E-12
3.46979E-11 8.77765E-12
3.73157E-11 8.77621E-12
4.00286E-11 8.77472E-12
4.28368E-11 8.77318E-12
4.57402E-11 8.77159E-12
4.87388E-11 8.76995E-12
5.18325E-11 8.76825E-12
5.50215E-11 8.76650E-12
5.83057E-11 8.76471E-12
6.16850E-11 8.76286E-12
6.51595E-11 8.76096E-12
6.87293E-11 8.75900E-12
7.23943E-11 8.75700E-12
7.61544E-11 8.75495E-12
1.18991E-10 8.73159E-12
1.71347E-10 8.70319E-12
2.33223E-10 8.66983E-12
3.04617E-10 8.63159E-12
3.85531E-10 8.58858E-12
4.75965E-10 8.54094E-12
5.75917E-10 8.48878E-12
6.85389E-10 8.43225E-12
8.04380E-10 8.37152E-12
9.32891E-10 8.30672E-12
1.07092E-09 8.23805E-12
1.21847E-09 8.16568E-12
1.37554E-09 8.08979E-12
1.54213E-09 8.01056E-12
1.71823E-09 7.92821E-12
1.90386E-09 7.84293E-12
2.09900E-09 7.75490E-12
2.30367E-09 7.66434E-12
2.51785E-09 7.57147E-12
2.74156E-09 7.47737E-12
2.97478E-09 7.38111E-12
3.21752E-09 7.28272E-12
3.46978E-09 7.18236E-12
3.73156E-09 7.08020E-12
4.00286E-09 6.97673E-12
4.28368E-09 6.87438E-12
4.57402E-09 6.77073E-12
4.87388E-09 6.66596E-12
5.18326E-09 6.56020E-12
5.50215E-09 6.45361E-12
5.83057E-09 6.34747E-12
6.16850E-09 6.24306E-12
6.51596E-09 6.13822E-12
6.87293E-09 6.03308E-12
7.23942E-09 5.92777E-12
7.61544E-09 5.82240E-12
1.18991E-08 4.83542E-12
1.71347E-08 3.98436E-12
2.33223E-08 3.28892E-12
3.04617E-08 2.73845E-12
3.85531E-08 2.30596E-12
4.75965E-08 1.96436E-12
5.75917E-08 1.69176E-12
6.85389E-08 1.47084E-12
8.04380E-08 1.28849E-12
9.32891E-08 1.13574E-12
1.07092E-07 1.00601E-12
1.21847E-07 8.94297E-13
1.37554E-07 7.97550E-13
1.54213E-07 7.13226E-13
1.71823E-07 6.39237E-13
1.90386E-07 5.74060E-13
2.09900E-07 5.16626E-13
2.30367E-07 4.65899E-13
2.51785E-07 4.20905E-13
2.74156E-07 3.78511E-13
2.97478E-07 3.41860E-13
3.21752E-07 3.10357E-13
3.46978E-07 2.83136E-13
3.73156E-07 2.59497E-13
4.00286E-07 2.38518E-13
4.28368E-07 2.17567E-13
4.57402E-07 1.99244E-13
4.87388E-07 1.83152E-13
5.18325E-07 1.68963E-13
5.50215E-07 1.56404E-13
5.83057E-07 1.44817E-13
6.16850E-07 1.33708E-13
6.51596E-07 1.23816E-13
6.87293E-07 1.14979E-13
7.23942E-07 1.07060E-13
7.61543E-07 9.99441E-14
1.18991E-06 5.18882E-14
1.71347E-06 2.92915E-14
2.33223E-06 1.76029E-14
3.04617E-06 1.11664E-14
3.85531E-06 7.44636E-15
4.75964E-06 5.18422E-15
5.75916E-06 3.73888E-15
6.85388E-06 2.77223E-15
8.04378E-06 2.10125E-15
9.32888E-06 1.62320E-15
1.07092E-05 1.27348E-15
1.21846E-05 1.01167E-15
1.37553E-05 8.12913E-16
1.54212E-05 6.60081E-16
1.71822E-05 5.41191E-16
1.90385E-05 4.47529E-16
2.09899E-05 3.73507E-16
2.30365E-05 3.14067E-16
2.51783E-05 2.65885E-16
2.74153E-05 2.26435E-16
2.97475E-05 1.94192E-16
3.21749E-05 1.67471E-16
3.46974E-05 1.45213E-16
3.73152E-05 1.26601E-16
4.00281E-05 1.10846E-16
4.28362E-05 9.75401E-17
4.57395E-05 8.61284E-17
4.87380E-05 7.63743E-17
5.18317E-05 6.79482E-17
5.50205E-05 6.06561E-17
5.83045E-05 5.43243E-17
6.16838E-05 4.87893E-17
6.51582E-05 4.39598E-17
6.87277E-05 3.96983E-17
7.23925E-05 3.59541E-17
7.61524E-05 3.26359E-17
9.21439E-05 2.26503E-17
1.09658E-04 1.62018E-17
1.28695E-04 1.18927E-17
1.49255E-04 8.92344E-18
1.71338E-04 6.82492E-18
1.94942E-04 5.30735E-18
2.20070E-04 4.18892E-18
2.46720E-04 3.35014E-18
2.74892E-04 2.71109E-18
3.04586E-04 2.21746E-18
3.35803E-04 1.83132E-18
3.68542E-04 1.52579E-18
4.02802E-04 1.28147E-18
4.38585E-04 1.08423E-18
4.75889E-04 9.23601E-19
5.14715E-04 7.91704E-19
5.55063E-04 6.82579E-19
5.96931E-04 5.91669E-19
6.40321E-04 5.15442E-19
6.85233E-04 4.51135E-19
7.31665E-04 3.96575E-19
7.79618E-04 3.50043E-19
8.29092E-04 3.10159E-19
8.80086E-04 2.75813E-19
9.32601E-04 2.46105E-19
9.86636E-04 2.20303E-19
1.04219E-03 1.97806E-19
1.09927E-03 1.78118E-19
1.15786E-03 1.60826E-19
1.21797E-03 1.45589E-19
1.27961E-03 1.32122E-19
1.34276E-03 1.20180E-19
1.40743E-03 1.09562E-19
1.47362E-03 1.00095E-19
1.54133E-03 9.16331E-20
1.61056E-03 8.40495E-20
1.68131E-03 7.72374E-20
1.75357E-03 7.11043E-20
1.82735E-03 6.55703E-20
1.90265E-03 6.05664E-20
1.97947E-03 5.60329E-20
2.05780E-03 5.19174E-20
2.13765E-03 4.81745E-20
2.21902E-03 4.47644E-20
2.30190E-03 4.16521E-20
2.38630E-03 3.88069E-20
2.47222E-03 3.62016E-20
2.55965E-03 3.38123E-20
2.64859E-03 3.16180E-20
2.73905E-03 2.95996E-20
2.83103E-03 2.77407E-20
2.92452E-03 2.60263E-20
3.01952E-03 2.44428E-20
3.11604E-03 2.29787E-20
3.21407E-03 2.16233E-20
3.31362E-03 2.03669E-20
3.41468E-03 1.92009E-20
3.51725E-03 1.81178E-20
3.62133E-03 1.71104E-20
3.72692E-03 1.61725E-20
3.83403E-03 1.52984E-20
3.94265E-03 1.44830E-20
4.05278E-03 1.37215E-20
4.16442E-03 1.30098E-20
4.27757E-03 1.23440E-20
4.39223E-03 1.17205E-20
4.50840E-03 1.11362E-20
4.62608E-03 1.05882E-20
4.74527E-03 1.00736E-20
4.86597E-03 9.59022E-21
4.98817E-03 9.13571E-21
5.11188E-03 8.70802E-21
5.23711E-03 8.30526E-21
5.36383E-03 7.92572E-21
5.49207E-03 7.56780E-21
5.62181E-03 7.23002E-21
5.75306E-03 6.91105E-21
5.88581E-03 6.60964E-21
6.02007E-03 6.32463E-21
6.15583E-03 6.05495E-21
6.29310E-03 5.79963E-21
6.43187E-03 5.55776E-21
6.57214E-03 5.32848E-21
6.71392E-03 5.11102E-21
6.85720E-03 4.90466E-21
7.00198E-03 4.70870E-21
7.14827E-03 4.52254E-21
7.29605E-03 4.34558E-21
7.44534E-03 4.17728E-21
7.59612E-03 4.01714E-21
7.97965E-03 3.64944E-21
8.37255E-03 3.32330E-21
8.77480E-03 3.03317E-21
9.18641E-03 2.77436E-21
9.60736E-03 2.54289E-21
1.00376E-02 2.33534E-21
1.04773E-02 2.14879E-21
1.09262E-02 1.98073E-21
1.13844E-02 1.82900E-21
1.18520E-02 1.69170E-21
1.23288E-02 1.56721E-21
1.28150E-02 1.45413E-21
1.33104E-02 1.35120E-21
1.38150E-02 1.25735E-21
1.43290E-02 1.17163E-21
1.48521E-02 1.09319E-21
1.53845E-02 1.02132E-21
1.59262E-02 9.55338E-22
1.64770E-02 8.94687E-22
1.70371E-02 8.38851E-22
1.76063E-02 7.87374E-22
1.81848E-02 7.39851E-22
1.87724E-02 6.95921E-22
1.93692E-02 6.55259E-22
1.99751E-02 6.17576E-22
2.05901E-02 5.82611E-22
2.12143E-02 5.50129E-22
2.18476E-02 5.19921E-22
2.24900E-02 4.91797E-22
2.31415E-02 4.65584E-22
2.38021E-02 4.41128E-22
2.44717E-02 4.18288E-22
2.51504E-02 3.96936E-22
2.58382E-02 3.76955E-22
2.65349E-02 3.58241E-22
2.72407E-02 3.40697E-22
2.79555E-02 3.24236E-22
2.86793E-02 3.08777E-22
2.94120E-02 2.94248E-22
3.01537E-02 2.80582E-22
3.09043E-02 2.67717E-22
3.16639E-02 2.55596E-22
3.24324E-02 2.44168E-22
3.32098E-02 2.33385E-22
3.39961E-02 2.23204E-22
3.47912E-02 2.13585E-22
3.55952E-02 2.04489E-22
3.64081E-02 1.95884E-22
3.72297E-02 1.87737E-22
3.80602E-02 1.80018E-22
3.88995E-02 1.72701E-22
3.97476E-02 1.65760E-22
4.06044E-02 1.59173E-22
4.14700E-02 1.52917E-22
4.23443E-02 1.46973E-22
4.32273E-02 1.41321E-22
4.41190E-02 1.35945E-22
4.50194E-02 1.30828E-22
4.59284E-02 1.25955E-22
4.68461E-02 1.21312E-22
4.87074E-02 1.12666E-22
5.06030E-02 1.04794E-22
5.25328E-02 9.76131E-23
5.44967E-02 9.10508E-23
5.64946E-02 8.50436E-23
5.85262E-02 7.95352E-23
6.05914E-02 7.44757E-23
6.26901E-02 6.98215E-23
6.48222E-02 6.55338E-23
6.69873E-02 6.15777E-23
6.91854E-02 5.79225E-23
7.14163E-02 5.45408E-23
7.36799E-02 5.14080E-23
7.59760E-02 4.85020E-23
7.83043E-02 4.58030E-23
8.06647E-02 4.32935E-23
8.30571E-02 4.09574E-23
8.54812E-02 3.87801E-23
8.79369E-02 3.67488E-23
9.04240E-02 3.48517E-23
9.29422E-02 3.30780E-23
9.54915E-02 3.14181E-23
9.80716E-02 2.98632E-23
1.00682E-01 2.84053E-23
1.03323E-01 2.70370E-23
1.05995E-01 2.57518E-23
1.08696E-01 2.45435E-23
1.11427E-01 2.34066E-23
1.14188E-01 2.23360E-23
1.16978E-01 2.13270E-23
1.19797E-01 2.03754E-23
1.22645E-01 1.94771E-23
1.25522E-01 1.86286E-23
1.28428E-01 1.78266E-23
1.31361E-01 1.70679E-23
1.34323E-01 1.63498E-23
1.37313E-01 1.56696E-23
1.40330E-01 1.50249E-23
1.43375E-01 1.44134E-23
1.46447E-01 1.38332E-23
1.49545E-01 1.32822E-23
1.52671E-01 1.27586E-23
1.55823E-01 1.22609E-23
1.59001E-01 1.17874E-23
1.62205E-01 1.13368E-23
1.65435E-01 1.09077E-23
1.68690E-01 1.04988E-23
1.71970E-01 1.01091E-23
1.75276E-01 9.73740E-24
1.78606E-01 9.38271E-24
1.81961E-01 9.04409E-24
1.85340E-01 8.72066E-24
1.88743E-01 8.41160E-24
1.92169E-01 8.11613E-24
1.95619E-01 7.83354E-24
1.99092E-01 7.56313E-24
2.02589E-01 7.30429E-24
2.06107E-01 7.05640E-24
2.09649E-01 6.81890E-24
2.13212E-01 6.59128E-24
2.16797E-01 6.37303E-24
2.20404E-01 6.16368E-24
2.24032E-01 5.96280E-24
2.27680E-01 5.76997E-24
2.31350E-01 5.58481E-24
2.35040E-01 5.40694E-24
2.38751E-01 5.23601E-24
2.42481E-01 5.07170E-24
2.46231E-01 4.91370E-24
2.50000E-01 4.76172E-24
2.53788E-01 4.61548E-24
2.57595E-01 4.47471E-24
2.61421E-01 4.33916E-24
2.65264E-01 4.20860E-24
2.69126E-01 4.08280E-24
2.73005E-01 3.96157E-24
2.76901E-01 3.84470E-24
2.80814E-01 3.73201E-24
2.84744E-01 3.62330E-24
2.88691E-01 3.51842E-24
2.92653E-01 3.41720E-24
2.96632E-01 3.31948E-24
3.00625E-01 3.22512E-24
3.04634E-01 3.13398E-24
3.08658E-01 3.04593E-24
3.12697E-01 2.96085E-24
3.16749E-01 2.87860E-24
3.20816E-01 2.79908E-24
3.24896E-01 2.72218E-24
3.28990E-01 2.64779E-24
3.33097E-01 2.57582E-24
3.37216E-01 2.50616E-24
3.41348E-01 2.43874E-24
3.45492E-01 2.37347E-24
3.49647E-01 2.31026E-24
3.53814E-01 2.24903E-24
3.57992E-01 2.18971E-24
3.62181E-01 2.13223E-24
3.66381E-01 2.07652E-24
3.70590E-01 2.02251E-24
3.74810E-01 1.97015E-24
3.79039E-01 1.91937E-24
3.83277E-01 1.87011E-24
3.87524E-01 1.82232E-24
3.91780E-01 1.77595E-24
3.96044E-01 1.73094E-24
4.00316E-01 1.68726E-24
4.04596E-01 1.64484E-24
4.08882E-01 1.60366E-24
4.13176E-01 1.56366E-24
4.17476E-01 1.52480E-24
4.21783E-01 1.48705E-24
4.26095E-01 1.45037E-24
4.30413E-01 1.41472E-24
4.34737E-01 1.38007E-24
4.39065E-01 1.34638E-24
4.43398E-01 1.31362E-24
4.47736E-01 1.28176E-24
4.52077E-01 1.25078E-24
4.56422E-01 1.22064E-24
4.60770E-01 1.19131E-24
4.65122E-01 1.16277E-24
4.69476E-01 1.13500E-24
4.73832E-01 1.10797E-24
4.78190E-01 1.08166E-24
4.82550E-01 1.05603E-24
4.86912E-01 1.03109E-24
4.91274E-01 1.00679E-24
4.95637E-01 9.83122E-25
5.00000E-01 9.60068E-25
5.04363E-01 9.37606E-25
5.08726E-01 9.15720E-25
5.13088E-01 8.94391E-25
5.17450E-01 8.73604E-25
5.21810E-01 8.53340E-25
5.26168E-01 8.33586E-25
5.30524E-01 8.14326E-25
5.34878E-01 7.95545E-25
5.39230E-01 7.77229E-25
5.43578E-01 7.59365E-25
5.47923E-01 7.41940E-25
5.52264E-01 7.24941E-25
5.56602E-01 7.08355E-25
5.60935E-01 6.92172E-25
5.65263E-01 6.76379E-25
5.69587E-01 6.60965E-25
5.73905E-01 6.45920E-25
5.78217E-01 6.31234E-25
5.82524E-01 6.16896E-25
5.86824E-01 6.02897E-25
5.91118E-01 5.89227E-25
5.95404E-01 5.75878E-25
5.99684E-01 5.62841E-25
6.03956E-01 5.50106E-25
6.08220E-01 5.37667E-25
6.12476E-01 5.25515E-25
6.16723E-01 5.13642E-25
6.20961E-01 5.02042E-25
6.25190E-01 4.90706E-25
6.29410E-01 4.79627E-25
6.33619E-01 4.68800E-25
6.37819E-01 4.58217E-25
6.42008E-01 4.47873E-25
6.46186E-01 4.37760E-25
6.50353E-01 4.27873E-25
6.54508E-01 4.18206E-25
6.58652E-01 4.08754E-25
6.62784E-01 3.99511E-25
6.66903E-01 3.90472E-25
6.71010E-01 3.81631E-25
6.75104E-01 3.72984E-25
6.79184E-01 3.64526E-25
6.83251E-01 3.56253E-25
6.87303E-01 3.48158E-25
6.91342E-01 3.40239E-25
6.95366E-01 3.32491E-25
6.99375E-01 3.24910E-25
7.03368E-01 3.17491E-25
7.07347E-01 3.10231E-25
7.11309E-01 3.03126E-25
7.15256E-01 2.96173E-25
7.19186E-01 2.89367E-25
7.23099E-01 2.82705E-25
7.26995E-01 2.76184E-25
7.30874E-01 2.69800E-25
7.34736E-01 2.63551E-25
7.38579E-01 2.57432E-25
7.42405E-01 2.51442E-25
7.46212E-01 2.45577E-25
7.50000E-01 2.39834E-25
7.53769E-01 2.34211E-25
7.57519E-01 2.28705E-25
7.61249E-01 2.23312E-25
7.64960E-01 2.18031E-25
7.68650E-01 2.12860E-25
7.72320E-01 2.07794E-25
7.75968E-01 2.02834E-25
7.79596E-01 1.97975E-25
7.83203E-01 1.93215E-25
7.86788E-01 1.88554E-25
7.90351E-01 1.83987E-25
7.93893E-01 1.79514E-25
7.97411E-01 1.75133E-25
8.00908E-01 1.70841E-25
8.04381E-01 1.66636E-25
8.07831E-01 1.62517E-25
8.11257E-01 1.58481E-25
8.14660E-01 1.54528E-25
8.18039E-01 1.50655E-25
8.21394E-01 1.46861E-25
8.24724E-01 1.43144E-25
8.28030E-01 1.39502E-25
8.31310E-01 1.35934E-25
8.34565E-01 1.32438E-25
8.37795E-01 1.29014E-25
8.40999E-01 1.25659E-25
8.44177E-01 1.22372E-25
8.47329E-01 1.19152E-25
8.50455E-01 1.15997E-25
8.53553E-01 1.12906E-25
8.56625E-01 1.09879E-25
8.59670E-01 1.06913E-25
8.62687E-01 1.04007E-25
8.65677E-01 1.01161E-25
8.68639E-01 9.83728E-26
8.71572E-01 9.56419E-26
8.74478E-01 9.29670E-26
8.77355E-01 9.03471E-26
8.80203E-01 8.77811E-26
8.83022E-01 8.52681E-26
8.85812E-01 8.28070E-26
8.88573E-01 8.03970E-26
8.91304E-01 7.80371E-26
8.94005E-01 7.57264E-26
8.96677E-01 7.34641E-26
8.99318E-01 7.12492E-26
9.01928E-01 6.90810E-26
9.04508E-01 6.69586E-26
9.07058E-01 6.48813E-26
9.09576E-01 6.28483E-26
9.12063E-01 6.08588E-26
9.14519E-01 5.89120E-26
9.16943E-01 5.70074E-26
9.19335E-01 5.51441E-26
9.21696E-01 5.33216E-26
9.24024E-01 5.15391E-26
9.26320E-01 4.97960E-26
9.28584E-01 4.80917E-26
9.30815E-01 4.64256E-26
9.33013E-01 4.47970E-26
9.35178E-01 4.32055E-26
9.37310E-01 4.16504E-26
9.39409E-01 4.01311E-26
9.41474E-01 3.86472E-26
9.43505E-01 3.71982E-26
9.45503E-01 3.57835E-26
9.47467E-01 3.44026E-26
9.49397E-01 3.30550E-26
9.51293E-01 3.17404E-26
9.53154E-01 3.04582E-26
9.54981E-01 2.92079E-26
9.56773E-01 2.79893E-26
9.58530E-01 2.68018E-26
9.60252E-01 2.56450E-26
9.61940E-01 2.45186E-26
9.63592E-01 2.34222E-26
9.65209E-01 2.23554E-26
9.66790E-01 2.13178E-26
9.68336E-01 2.03091E-26
9.69846E-01 1.93290E-26
9.71321E-01 1.83771E-26
9.72759E-01 1.74531E-26
9.74162E-01 1.65567E-26
9.75528E-01 1.56876E-26
9.76858E-01 1.48455E-26
9.78152E-01 1.40302E-26
9.79410E-01 1.32413E-26
9.80631E-01 1.24787E-26
9.81815E-01 1.17420E-26
9.82963E-01 1.10310E-26
9.84074E-01 1.03456E-26
9.85148E-01 9.68535E-27
9.86185E-01 9.05018E-27
9.87185E-01 8.43985E-27
9.88148E-01 7.85417E-27
9.89074E-01 7.29294E-27
9.89962E-01 6.75599E-27
9.90814E-01 6.24313E-27
9.91627E-01 5.75420E-27
9.92404E-01 5.28905E-27
9.93143E-01 4.84753E-27
9.93844E-01 4.42949E-27
9.94508E-01 4.03480E-27
9.95134E-01 3.66333E-27
9.95722E-01 3.31496E-27
9.96273E-01 2.98959E-27
9.96786E-01 2.68710E-27
9.97261E-01 2.40741E-27
9.97698E-01 2.15042E-27
9.98097E-01 1.91605E-27
9.98459E-01 1.70422E-27
9.98782E-01 1.51487E-27
9.99067E-01 1.34794E-27
9.99315E-01 1.20338E-27
9.99524E-01 1.08113E-27
9.99695E-01 9.81163E-28
9.99829E-01 9.03443E-28
9.99924E-01 8.47947E-28
9.99981E-01 8.14656E-28
1.00000E+00 8.03561E-28
