 #
 # Subroutine ELSEPA. Elastic scattering of electrons and positrons
 #                    by neutral atoms and positive ions
 #
 # Projectile: electron
 # Kinetic energy = 8.00000E+06 eV = 2.93995E+05 a.u.
 #
 # WARNING: High-energy factorization with free-atom DF screening.
 #          Absorption, polarization and exchange corrections are
 #          switched off.
 #          Phase shifts are calculated for the bare nucleus.
 #          Scattering amplitudes are not evaluated.
 #
 # Element: Pm,  Z =  61,  atomic weight = 1.44913E+02 g/mol
 #
 # Nuclear model: Fermi distribution
 #                Average radius = 5.62021E-13 cm
 #                Skin thickness = 5.46000E-14 cm
 #
 # Number of electrons = 61
 #
 # Total elastic cross section = 7.27805E-18 cm**2 = 2.59904E-01 a0**2
 # 1st transport cross section = 8.89602E-23 cm**2 = 3.17683E-06 a0**2
 # 2nd transport cross section = 2.47304E-22 cm**2 = 8.83139E-06 a0**2
 #
 #
 # Differential cross section:                       MU=(1-COS(THETA))/2
 #
 #  THETA        MU          DCS          DCS        Sherman      error
 #  (deg)                 (cm**2/sr)   (a0**2/sr)    function
 #----------------------------------------------------------------------
0.00000E+00 7.04418E-12
7.61557E-13 7.04391E-12
1.18994E-12 7.04376E-12
1.71346E-12 7.04357E-12
2.33225E-12 7.04335E-12
3.04617E-12 7.04310E-12
3.85530E-12 7.04281E-12
4.75964E-12 7.04249E-12
5.75917E-12 7.04214E-12
6.85391E-12 7.04176E-12
8.04379E-12 7.04133E-12
9.32893E-12 7.04088E-12
1.07092E-11 7.04039E-12
1.21847E-11 7.03987E-12
1.37554E-11 7.03932E-12
1.54213E-11 7.03873E-12
1.71823E-11 7.03811E-12
1.90386E-11 7.03746E-12
2.09900E-11 7.03677E-12
2.30367E-11 7.03605E-12
2.51785E-11 7.03529E-12
2.74156E-11 7.03451E-12
2.97478E-11 7.03368E-12
3.21752E-11 7.03283E-12
3.46979E-11 7.03194E-12
3.73157E-11 7.03102E-12
4.00286E-11 7.03007E-12
4.28368E-11 7.02908E-12
4.57402E-11 7.02806E-12
4.87388E-11 7.02700E-12
5.18325E-11 7.02592E-12
5.50215E-11 7.02480E-12
5.83057E-11 7.02364E-12
6.16850E-11 7.02246E-12
6.51595E-11 7.02124E-12
6.87293E-11 7.01999E-12
7.23943E-11 7.01870E-12
7.61544E-11 7.01738E-12
1.18991E-10 7.00239E-12
1.71347E-10 6.98414E-12
2.33223E-10 6.96267E-12
3.04617E-10 6.93803E-12
3.85531E-10 6.91028E-12
4.75965E-10 6.87949E-12
5.75917E-10 6.84571E-12
6.85389E-10 6.80903E-12
8.04380E-10 6.76952E-12
9.32891E-10 6.72728E-12
1.07092E-09 6.68239E-12
1.21847E-09 6.63495E-12
1.37554E-09 6.58506E-12
1.54213E-09 6.53281E-12
1.71823E-09 6.47833E-12
1.90386E-09 6.42171E-12
2.09900E-09 6.36308E-12
2.30367E-09 6.30253E-12
2.51785E-09 6.24020E-12
2.74156E-09 6.17618E-12
2.97478E-09 6.11060E-12
3.21752E-09 6.04371E-12
3.46978E-09 5.97606E-12
3.73156E-09 5.90695E-12
4.00286E-09 5.83648E-12
4.28368E-09 5.76474E-12
4.57402E-09 5.69183E-12
4.87388E-09 5.61784E-12
5.18326E-09 5.54435E-12
5.50215E-09 5.47058E-12
5.83057E-09 5.39603E-12
6.16850E-09 5.32079E-12
6.51596E-09 5.24493E-12
6.87293E-09 5.16856E-12
7.23942E-09 5.09234E-12
7.61544E-09 5.01761E-12
1.18991E-08 4.27811E-12
1.71347E-08 3.60726E-12
2.33223E-08 3.03236E-12
3.04617E-08 2.55840E-12
3.85531E-08 2.17294E-12
4.75965E-08 1.86345E-12
5.75917E-08 1.61246E-12
6.85389E-08 1.40826E-12
8.04380E-08 1.23939E-12
9.32891E-08 1.09806E-12
1.07092E-07 9.78168E-13
1.21847E-07 8.75228E-13
1.37554E-07 7.85895E-13
1.54213E-07 7.07832E-13
1.71823E-07 6.38954E-13
1.90386E-07 5.78156E-13
2.09900E-07 5.23927E-13
2.30367E-07 4.75761E-13
2.51785E-07 4.32597E-13
2.74156E-07 3.94059E-13
2.97478E-07 3.59470E-13
3.21752E-07 3.28061E-13
3.46978E-07 2.98343E-13
3.73156E-07 2.72494E-13
4.00286E-07 2.49913E-13
4.28368E-07 2.30103E-13
4.57402E-07 2.12654E-13
4.87388E-07 1.97226E-13
5.18325E-07 1.82006E-13
5.50215E-07 1.67919E-13
5.83057E-07 1.55403E-13
6.16850E-07 1.44247E-13
6.51596E-07 1.34272E-13
6.87293E-07 1.25325E-13
7.23942E-07 1.17047E-13
7.61543E-07 1.08934E-13
1.18991E-06 5.79392E-14
1.71347E-06 3.34331E-14
2.33223E-06 2.04263E-14
3.04617E-06 1.30757E-14
3.85531E-06 8.75257E-15
4.75964E-06 6.09019E-15
5.75916E-06 4.38994E-15
6.85388E-06 3.25568E-15
8.04378E-06 2.47479E-15
9.32888E-06 1.91568E-15
1.07092E-05 1.50786E-15
1.21846E-05 1.20335E-15
1.37553E-05 9.71495E-16
1.54212E-05 7.92246E-16
1.71822E-05 6.51719E-16
1.90385E-05 5.40486E-16
2.09899E-05 4.52069E-16
2.30365E-05 3.80923E-16
2.51783E-05 3.23041E-16
2.74153E-05 2.75655E-16
2.97475E-05 2.36566E-16
3.21749E-05 2.04134E-16
3.46974E-05 1.77033E-16
3.73152E-05 1.54432E-16
4.00281E-05 1.35314E-16
4.28362E-05 1.19071E-16
4.57395E-05 1.05264E-16
4.87380E-05 9.33271E-17
5.18317E-05 8.30759E-17
5.50205E-05 7.41975E-17
5.83045E-05 6.64633E-17
6.16838E-05 5.97392E-17
6.51582E-05 5.38258E-17
6.87277E-05 4.86392E-17
7.23925E-05 4.40717E-17
7.61524E-05 4.00182E-17
9.21439E-05 2.78251E-17
1.09658E-04 1.99360E-17
1.28695E-04 1.46588E-17
1.49255E-04 1.10139E-17
1.71338E-04 8.43442E-18
1.94942E-04 6.56644E-18
2.20070E-04 5.18752E-18
2.46720E-04 4.15207E-18
2.74892E-04 3.36219E-18
3.04586E-04 2.75163E-18
3.35803E-04 2.27344E-18
3.68542E-04 1.89489E-18
4.02802E-04 1.59196E-18
4.38585E-04 1.34731E-18
4.75889E-04 1.14796E-18
5.14715E-04 9.84221E-19
5.55063E-04 8.48718E-19
5.96931E-04 7.35797E-19
6.40321E-04 6.41096E-19
6.85233E-04 5.61184E-19
7.31665E-04 4.93382E-19
7.79618E-04 4.35540E-19
8.29092E-04 3.85959E-19
8.80086E-04 3.43256E-19
9.32601E-04 3.06317E-19
9.86636E-04 2.74231E-19
1.04219E-03 2.46252E-19
1.09927E-03 2.21764E-19
1.15786E-03 2.00255E-19
1.21797E-03 1.81301E-19
1.27961E-03 1.64544E-19
1.34276E-03 1.49687E-19
1.40743E-03 1.36474E-19
1.47362E-03 1.24694E-19
1.54133E-03 1.14162E-19
1.61056E-03 1.04723E-19
1.68131E-03 9.62434E-20
1.75357E-03 8.86083E-20
1.82735E-03 8.17188E-20
1.90265E-03 7.54885E-20
1.97947E-03 6.98435E-20
2.05780E-03 6.47184E-20
2.13765E-03 6.00572E-20
2.21902E-03 5.58098E-20
2.30190E-03 5.19332E-20
2.38630E-03 4.83890E-20
2.47222E-03 4.51434E-20
2.55965E-03 4.21668E-20
2.64859E-03 3.94327E-20
2.73905E-03 3.69178E-20
2.83103E-03 3.46013E-20
2.92452E-03 3.24646E-20
3.01952E-03 3.04912E-20
3.11604E-03 2.86664E-20
3.21407E-03 2.69767E-20
3.31362E-03 2.54106E-20
3.41468E-03 2.39570E-20
3.51725E-03 2.26067E-20
3.62133E-03 2.13507E-20
3.72692E-03 2.01812E-20
3.83403E-03 1.90914E-20
3.94265E-03 1.80745E-20
4.05278E-03 1.71249E-20
4.16442E-03 1.62374E-20
4.27757E-03 1.54069E-20
4.39223E-03 1.46293E-20
4.50840E-03 1.39005E-20
4.62608E-03 1.32168E-20
4.74527E-03 1.25750E-20
4.86597E-03 1.19719E-20
4.98817E-03 1.14049E-20
5.11188E-03 1.08713E-20
5.23711E-03 1.03688E-20
5.36383E-03 9.89527E-21
5.49207E-03 9.44866E-21
5.62181E-03 9.02719E-21
5.75306E-03 8.62918E-21
5.88581E-03 8.25304E-21
6.02007E-03 7.89737E-21
6.15583E-03 7.56082E-21
6.29310E-03 7.24217E-21
6.43187E-03 6.94031E-21
6.57214E-03 6.65414E-21
6.71392E-03 6.38272E-21
6.85720E-03 6.12515E-21
7.00198E-03 5.88055E-21
7.14827E-03 5.64817E-21
7.29605E-03 5.42728E-21
7.44534E-03 5.21719E-21
7.59612E-03 5.01728E-21
7.97965E-03 4.55824E-21
8.37255E-03 4.15106E-21
8.77480E-03 3.78882E-21
9.18641E-03 3.46568E-21
9.60736E-03 3.17665E-21
1.00376E-02 2.91748E-21
1.04773E-02 2.68452E-21
1.09262E-02 2.47464E-21
1.13844E-02 2.28514E-21
1.18520E-02 2.11366E-21
1.23288E-02 1.95819E-21
1.28150E-02 1.81694E-21
1.33104E-02 1.68838E-21
1.38150E-02 1.57116E-21
1.43290E-02 1.46408E-21
1.48521E-02 1.36610E-21
1.53845E-02 1.27631E-21
1.59262E-02 1.19390E-21
1.64770E-02 1.11813E-21
1.70371E-02 1.04837E-21
1.76063E-02 9.84065E-22
1.81848E-02 9.24695E-22
1.87724E-02 8.69812E-22
1.93692E-02 8.19011E-22
1.99751E-02 7.71930E-22
2.05901E-02 7.28244E-22
2.12143E-02 6.87662E-22
2.18476E-02 6.49919E-22
2.24900E-02 6.14779E-22
2.31415E-02 5.82027E-22
2.38021E-02 5.51470E-22
2.44717E-02 5.22931E-22
2.51504E-02 4.96250E-22
2.58382E-02 4.71284E-22
2.65349E-02 4.47899E-22
2.72407E-02 4.25977E-22
2.79555E-02 4.05407E-22
2.86793E-02 3.86090E-22
2.94120E-02 3.67934E-22
3.01537E-02 3.50856E-22
3.09043E-02 3.34779E-22
3.16639E-02 3.19632E-22
3.24324E-02 3.05350E-22
3.32098E-02 2.91875E-22
3.39961E-02 2.79152E-22
3.47912E-02 2.67130E-22
3.55952E-02 2.55763E-22
3.64081E-02 2.45008E-22
3.72297E-02 2.34826E-22
3.80602E-02 2.25179E-22
3.88995E-02 2.16034E-22
3.97476E-02 2.07360E-22
4.06044E-02 1.99126E-22
4.14700E-02 1.91307E-22
4.23443E-02 1.83877E-22
4.32273E-02 1.76814E-22
4.41190E-02 1.70094E-22
4.50194E-02 1.63698E-22
4.59284E-02 1.57607E-22
4.68461E-02 1.51804E-22
4.87074E-02 1.40996E-22
5.06030E-02 1.31155E-22
5.25328E-02 1.22179E-22
5.44967E-02 1.13975E-22
5.64946E-02 1.06465E-22
5.85262E-02 9.95779E-23
6.05914E-02 9.32524E-23
6.26901E-02 8.74334E-23
6.48222E-02 8.20721E-23
6.69873E-02 7.71252E-23
6.91854E-02 7.25546E-23
7.14163E-02 6.83258E-23
7.36799E-02 6.44080E-23
7.59760E-02 6.07736E-23
7.83043E-02 5.73981E-23
8.06647E-02 5.42593E-23
8.30571E-02 5.13373E-23
8.54812E-02 4.86138E-23
8.79369E-02 4.60727E-23
9.04240E-02 4.36994E-23
9.29422E-02 4.14805E-23
9.54915E-02 3.94037E-23
9.80716E-02 3.74581E-23
1.00682E-01 3.56338E-23
1.03323E-01 3.39217E-23
1.05995E-01 3.23133E-23
1.08696E-01 3.08011E-23
1.11427E-01 2.93781E-23
1.14188E-01 2.80381E-23
1.16978E-01 2.67751E-23
1.19797E-01 2.55838E-23
1.22645E-01 2.44592E-23
1.25522E-01 2.33969E-23
1.28428E-01 2.23927E-23
1.31361E-01 2.14427E-23
1.34323E-01 2.05434E-23
1.37313E-01 1.96915E-23
1.40330E-01 1.88840E-23
1.43375E-01 1.81181E-23
1.46447E-01 1.73912E-23
1.49545E-01 1.67009E-23
1.52671E-01 1.60450E-23
1.55823E-01 1.54213E-23
1.59001E-01 1.48280E-23
1.62205E-01 1.42633E-23
1.65435E-01 1.37255E-23
1.68690E-01 1.32130E-23
1.71970E-01 1.27245E-23
1.75276E-01 1.22585E-23
1.78606E-01 1.18138E-23
1.81961E-01 1.13892E-23
1.85340E-01 1.09836E-23
1.88743E-01 1.05960E-23
1.92169E-01 1.02254E-23
1.95619E-01 9.87091E-24
1.99092E-01 9.53169E-24
2.02589E-01 9.20693E-24
2.06107E-01 8.89589E-24
2.09649E-01 8.59786E-24
2.13212E-01 8.31219E-24
2.16797E-01 8.03825E-24
2.20404E-01 7.77546E-24
2.24032E-01 7.52327E-24
2.27680E-01 7.28116E-24
2.31350E-01 7.04865E-24
2.35040E-01 6.82526E-24
2.38751E-01 6.61058E-24
2.42481E-01 6.40419E-24
2.46231E-01 6.20570E-24
2.50000E-01 6.01474E-24
2.53788E-01 5.83097E-24
2.57595E-01 5.65406E-24
2.61421E-01 5.48370E-24
2.65264E-01 5.31960E-24
2.69126E-01 5.16148E-24
2.73005E-01 5.00908E-24
2.76901E-01 4.86214E-24
2.80814E-01 4.72043E-24
2.84744E-01 4.58372E-24
2.88691E-01 4.45180E-24
2.92653E-01 4.32447E-24
2.96632E-01 4.20153E-24
3.00625E-01 4.08281E-24
3.04634E-01 3.96812E-24
3.08658E-01 3.85730E-24
3.12697E-01 3.75020E-24
3.16749E-01 3.64666E-24
3.20816E-01 3.54654E-24
3.24896E-01 3.44970E-24
3.28990E-01 3.35601E-24
3.33097E-01 3.26534E-24
3.37216E-01 3.17759E-24
3.41348E-01 3.09263E-24
3.45492E-01 3.01037E-24
3.49647E-01 2.93069E-24
3.53814E-01 2.85351E-24
3.57992E-01 2.77872E-24
3.62181E-01 2.70624E-24
3.66381E-01 2.63598E-24
3.70590E-01 2.56786E-24
3.74810E-01 2.50181E-24
3.79039E-01 2.43774E-24
3.83277E-01 2.37558E-24
3.87524E-01 2.31527E-24
3.91780E-01 2.25674E-24
3.96044E-01 2.19992E-24
4.00316E-01 2.14477E-24
4.04596E-01 2.09121E-24
4.08882E-01 2.03919E-24
4.13176E-01 1.98866E-24
4.17476E-01 1.93957E-24
4.21783E-01 1.89188E-24
4.26095E-01 1.84552E-24
4.30413E-01 1.80046E-24
4.34737E-01 1.75665E-24
4.39065E-01 1.71406E-24
4.43398E-01 1.67264E-24
4.47736E-01 1.63235E-24
4.52077E-01 1.59316E-24
4.56422E-01 1.55502E-24
4.60770E-01 1.51792E-24
4.65122E-01 1.48181E-24
4.69476E-01 1.44666E-24
4.73832E-01 1.41244E-24
4.78190E-01 1.37912E-24
4.82550E-01 1.34667E-24
4.86912E-01 1.31508E-24
4.91274E-01 1.28430E-24
4.95637E-01 1.25432E-24
5.00000E-01 1.22510E-24
5.04363E-01 1.19664E-24
5.08726E-01 1.16890E-24
5.13088E-01 1.14186E-24
5.17450E-01 1.11550E-24
5.21810E-01 1.08980E-24
5.26168E-01 1.06475E-24
5.30524E-01 1.04032E-24
5.34878E-01 1.01649E-24
5.39230E-01 9.93246E-25
5.43578E-01 9.70573E-25
5.47923E-01 9.48454E-25
5.52264E-01 9.26871E-25
5.56602E-01 9.05811E-25
5.60935E-01 8.85257E-25
5.65263E-01 8.65196E-25
5.69587E-01 8.45613E-25
5.73905E-01 8.26496E-25
5.78217E-01 8.07831E-25
5.82524E-01 7.89606E-25
5.86824E-01 7.71809E-25
5.91118E-01 7.54428E-25
5.95404E-01 7.37451E-25
5.99684E-01 7.20868E-25
6.03956E-01 7.04667E-25
6.08220E-01 6.88840E-25
6.12476E-01 6.73375E-25
6.16723E-01 6.58263E-25
6.20961E-01 6.43494E-25
6.25190E-01 6.29061E-25
6.29410E-01 6.14953E-25
6.33619E-01 6.01162E-25
6.37819E-01 5.87680E-25
6.42008E-01 5.74500E-25
6.46186E-01 5.61612E-25
6.50353E-01 5.49011E-25
6.54508E-01 5.36688E-25
6.58652E-01 5.24636E-25
6.62784E-01 5.12849E-25
6.66903E-01 5.01320E-25
6.71010E-01 4.90042E-25
6.75104E-01 4.79010E-25
6.79184E-01 4.68216E-25
6.83251E-01 4.57656E-25
6.87303E-01 4.47323E-25
6.91342E-01 4.37212E-25
6.95366E-01 4.27318E-25
6.99375E-01 4.17635E-25
7.03368E-01 4.08158E-25
7.07347E-01 3.98882E-25
7.11309E-01 3.89803E-25
7.15256E-01 3.80916E-25
7.19186E-01 3.72216E-25
7.23099E-01 3.63699E-25
7.26995E-01 3.55360E-25
7.30874E-01 3.47195E-25
7.34736E-01 3.39201E-25
7.38579E-01 3.31374E-25
7.42405E-01 3.23709E-25
7.46212E-01 3.16202E-25
7.50000E-01 3.08852E-25
7.53769E-01 3.01652E-25
7.57519E-01 2.94601E-25
7.61249E-01 2.87695E-25
7.64960E-01 2.80931E-25
7.68650E-01 2.74306E-25
7.72320E-01 2.67815E-25
7.75968E-01 2.61458E-25
7.79596E-01 2.55230E-25
7.83203E-01 2.49129E-25
7.86788E-01 2.43152E-25
7.90351E-01 2.37296E-25
7.93893E-01 2.31559E-25
7.97411E-01 2.25938E-25
8.00908E-01 2.20431E-25
8.04381E-01 2.15036E-25
8.07831E-01 2.09749E-25
8.11257E-01 2.04569E-25
8.14660E-01 1.99494E-25
8.18039E-01 1.94521E-25
8.21394E-01 1.89648E-25
8.24724E-01 1.84873E-25
8.28030E-01 1.80195E-25
8.31310E-01 1.75610E-25
8.34565E-01 1.71119E-25
8.37795E-01 1.66717E-25
8.40999E-01 1.62404E-25
8.44177E-01 1.58178E-25
8.47329E-01 1.54038E-25
8.50455E-01 1.49981E-25
8.53553E-01 1.46005E-25
8.56625E-01 1.42111E-25
8.59670E-01 1.38294E-25
8.62687E-01 1.34556E-25
8.65677E-01 1.30893E-25
8.68639E-01 1.27304E-25
8.71572E-01 1.23788E-25
8.74478E-01 1.20344E-25
8.77355E-01 1.16970E-25
8.80203E-01 1.13666E-25
8.83022E-01 1.10429E-25
8.85812E-01 1.07258E-25
8.88573E-01 1.04153E-25
8.91304E-01 1.01112E-25
8.94005E-01 9.81337E-26
8.96677E-01 9.52175E-26
8.99318E-01 9.23622E-26
9.01928E-01 8.95667E-26
9.04508E-01 8.68298E-26
9.07058E-01 8.41508E-26
9.09576E-01 8.15285E-26
9.12063E-01 7.89620E-26
9.14519E-01 7.64504E-26
9.16943E-01 7.39928E-26
9.19335E-01 7.15883E-26
9.21696E-01 6.92360E-26
9.24024E-01 6.69351E-26
9.26320E-01 6.46849E-26
9.28584E-01 6.24844E-26
9.30815E-01 6.03330E-26
9.33013E-01 5.82299E-26
9.35178E-01 5.61743E-26
9.37310E-01 5.41655E-26
9.39409E-01 5.22029E-26
9.41474E-01 5.02858E-26
9.43505E-01 4.84134E-26
9.45503E-01 4.65852E-26
9.47467E-01 4.48005E-26
9.49397E-01 4.30588E-26
9.51293E-01 4.13594E-26
9.53154E-01 3.97018E-26
9.54981E-01 3.80853E-26
9.56773E-01 3.65095E-26
9.58530E-01 3.49739E-26
9.60252E-01 3.34779E-26
9.61940E-01 3.20210E-26
9.63592E-01 3.06027E-26
9.65209E-01 2.92227E-26
9.66790E-01 2.78803E-26
9.68336E-01 2.65752E-26
9.69846E-01 2.53069E-26
9.71321E-01 2.40751E-26
9.72759E-01 2.28793E-26
9.74162E-01 2.17191E-26
9.75528E-01 2.05942E-26
9.76858E-01 1.95041E-26
9.78152E-01 1.84486E-26
9.79410E-01 1.74274E-26
9.80631E-01 1.64399E-26
9.81815E-01 1.54861E-26
9.82963E-01 1.45654E-26
9.84074E-01 1.36777E-26
9.85148E-01 1.28227E-26
9.86185E-01 1.20001E-26
9.87185E-01 1.12096E-26
9.88148E-01 1.04510E-26
9.89074E-01 9.72398E-27
9.89962E-01 9.02840E-27
9.90814E-01 8.36400E-27
9.91627E-01 7.73058E-27
9.92404E-01 7.12794E-27
9.93143E-01 6.55588E-27
9.93844E-01 6.01423E-27
9.94508E-01 5.50281E-27
9.95134E-01 5.02146E-27
9.95722E-01 4.57003E-27
9.96273E-01 4.14839E-27
9.96786E-01 3.75640E-27
9.97261E-01 3.39393E-27
9.97698E-01 3.06087E-27
9.98097E-01 2.75712E-27
9.98459E-01 2.48259E-27
9.98782E-01 2.23718E-27
9.99067E-01 2.02082E-27
9.99315E-01 1.83345E-27
9.99524E-01 1.67500E-27
9.99695E-01 1.54543E-27
9.99829E-01 1.44470E-27
9.99924E-01 1.37276E-27
9.99981E-01 1.32961E-27
1.00000E+00 1.31523E-27
