 #
 # Subroutine ELSEPA. Elastic scattering of electrons and positrons
 #                    by neutral atoms and positive ions
 #
 # Projectile: electron
 # Kinetic energy = 2.50000E+08 eV = 9.18733E+06 a.u.
 #
 # WARNING: High-energy factorization with free-atom DF screening.
 #          Absorption, polarization and exchange corrections are
 #          switched off.
 #          Phase shifts are calculated for the bare nucleus.
 #          Scattering amplitudes are not evaluated.
 #
 # Element: Pm,  Z =  61,  atomic weight = 1.44913E+02 g/mol
 #
 # Nuclear model: Fermi distribution
 #                Average radius = 5.62021E-13 cm
 #                Skin thickness = 5.46000E-14 cm
 #
 # Number of electrons = 61
 #
 # Total elastic cross section = 7.24727E-18 cm**2 = 2.58805E-01 a0**2
 # 1st transport cross section = 1.15248E-25 cm**2 = 4.11559E-09 a0**2
 # 2nd transport cross section = 3.45231E-25 cm**2 = 1.23284E-08 a0**2
 #
 #
 # Differential cross section:                       MU=(1-COS(THETA))/2
 #
 #  THETA        MU          DCS          DCS        Sherman      error
 #  (deg)                 (cm**2/sr)   (a0**2/sr)    function
 #----------------------------------------------------------------------
0.00000E+00 6.10271E-09
7.61557E-13 5.90559E-09
1.18994E-12 5.79932E-09
1.71346E-12 5.67367E-09
2.33225E-12 5.53088E-09
3.04617E-12 5.37344E-09
3.85530E-12 5.20434E-09
4.75964E-12 5.02604E-09
5.75917E-12 4.83880E-09
6.85391E-12 4.64958E-09
8.04379E-12 4.45536E-09
9.32893E-12 4.26335E-09
1.07092E-11 4.07074E-09
1.21847E-11 3.88267E-09
1.37554E-11 3.69806E-09
1.54213E-11 3.51905E-09
1.71823E-11 3.34674E-09
1.90386E-11 3.18016E-09
2.09900E-11 3.02259E-09
2.30367E-11 2.87031E-09
2.51785E-11 2.72842E-09
2.74156E-11 2.59160E-09
2.97478E-11 2.46473E-09
3.21752E-11 2.34343E-09
3.46979E-11 2.23040E-09
3.73157E-11 2.12352E-09
4.00286E-11 2.02335E-09
4.28368E-11 1.92947E-09
4.57402E-11 1.84097E-09
4.87388E-11 1.75855E-09
5.18325E-11 1.68045E-09
5.50215E-11 1.60799E-09
5.83057E-11 1.53914E-09
6.16850E-11 1.47516E-09
6.51595E-11 1.41449E-09
6.87293E-11 1.35766E-09
7.23943E-11 1.30394E-09
7.61544E-11 1.25332E-09
1.18991E-10 8.72344E-10
1.71347E-10 6.32882E-10
2.33223E-10 4.70037E-10
3.04617E-10 3.54491E-10
3.85531E-10 2.69783E-10
4.75965E-10 2.07773E-10
5.75917E-10 1.65159E-10
6.85389E-10 1.30709E-10
8.04380E-10 1.06102E-10
9.32891E-10 8.63112E-11
1.07092E-09 7.13683E-11
1.21847E-09 5.93262E-11
1.37554E-09 4.97881E-11
1.54213E-09 4.20699E-11
1.71823E-09 3.57163E-11
1.90386E-09 3.05639E-11
2.09900E-09 2.61976E-11
2.30367E-09 2.26481E-11
2.51785E-09 1.95816E-11
2.74156E-09 1.70650E-11
2.97478E-09 1.48872E-11
3.21752E-09 1.30664E-11
3.46978E-09 1.15000E-11
3.73156E-09 1.01659E-11
4.00286E-09 9.01933E-12
4.28368E-09 8.02954E-12
4.57402E-09 7.17653E-12
4.87388E-09 6.43250E-12
5.18326E-09 5.78817E-12
5.50215E-09 5.22112E-12
5.83057E-09 4.72703E-12
6.16850E-09 4.28901E-12
6.51596E-09 3.90421E-12
6.87293E-09 3.56174E-12
7.23942E-09 3.25805E-12
7.61544E-09 2.98668E-12
1.18991E-08 1.38366E-12
1.71347E-08 7.27851E-13
2.33223E-08 4.15834E-13
3.04617E-08 2.53565E-13
3.85531E-08 1.62971E-13
4.75965E-08 1.09549E-13
5.75917E-08 7.63885E-14
6.85389E-08 5.49169E-14
8.04380E-08 4.05060E-14
9.32891E-08 3.05358E-14
1.07092E-07 2.34510E-14
1.21847E-07 1.83065E-14
1.37554E-07 1.44979E-14
1.54213E-07 1.16291E-14
1.71823E-07 9.43493E-15
1.90386E-07 7.73370E-15
2.09900E-07 6.39840E-15
2.30367E-07 5.33827E-15
2.51785E-07 4.48840E-15
2.74156E-07 3.80080E-15
2.97478E-07 3.23976E-15
3.21752E-07 2.77836E-15
3.46978E-07 2.39614E-15
3.73156E-07 2.07737E-15
4.00286E-07 1.80980E-15
4.28368E-07 1.58392E-15
4.57402E-07 1.39219E-15
4.87388E-07 1.22860E-15
5.18325E-07 1.08835E-15
5.50215E-07 9.67558E-16
5.83057E-07 8.63069E-16
6.16850E-07 7.72308E-16
6.51596E-07 6.93173E-16
6.87293E-07 6.23923E-16
7.23942E-07 5.63114E-16
7.61543E-07 5.09541E-16
1.18991E-06 2.10900E-16
1.71347E-06 1.02451E-16
2.33223E-06 5.55915E-17
3.04617E-06 3.27128E-17
3.85531E-06 2.04817E-17
4.75964E-06 1.34680E-17
5.75916E-06 9.21488E-18
6.85388E-06 6.51542E-18
8.04378E-06 4.73574E-18
9.32888E-06 3.52420E-18
1.07092E-05 2.67643E-18
1.21846E-05 2.06891E-18
1.37553E-05 1.62437E-18
1.54212E-05 1.29307E-18
1.71822E-05 1.04209E-18
1.90385E-05 8.48803E-19
2.09899E-05 6.98922E-19
2.30365E-05 5.80646E-19
2.51783E-05 4.86264E-19
2.74153E-05 4.10226E-19
2.97475E-05 3.48448E-19
3.21749E-05 2.97872E-19
3.46974E-05 2.56169E-19
3.73152E-05 2.21542E-19
4.00281E-05 1.92594E-19
4.28362E-05 1.68234E-19
4.57395E-05 1.47607E-19
4.87380E-05 1.30041E-19
5.18317E-05 1.15007E-19
5.50205E-05 1.02079E-19
5.83045E-05 9.09162E-20
6.16838E-05 8.12400E-20
6.51582E-05 7.28201E-20
6.87277E-05 6.54664E-20
7.23925E-05 5.90203E-20
7.61524E-05 5.35662E-20
9.21439E-05 3.66407E-20
1.09658E-04 2.59069E-20
1.28695E-04 1.88367E-20
1.49255E-04 1.40232E-20
1.71338E-04 1.06559E-20
1.94942E-04 8.24209E-21
2.20070E-04 6.47539E-21
2.46720E-04 5.15820E-21
2.74892E-04 4.15976E-21
3.04586E-04 3.39187E-21
3.35803E-04 2.79335E-21
3.68542E-04 2.32130E-21
4.02802E-04 1.94486E-21
4.38585E-04 1.64172E-21
4.75889E-04 1.39539E-21
5.14715E-04 1.19353E-21
5.55063E-04 1.02686E-21
5.96931E-04 8.88250E-22
6.40321E-04 7.72214E-22
6.85233E-04 6.74479E-22
7.31665E-04 5.91683E-22
7.79618E-04 5.21169E-22
8.29092E-04 4.60812E-22
8.80086E-04 4.08905E-22
9.32601E-04 3.64068E-22
9.86636E-04 3.25175E-22
1.04219E-03 2.91307E-22
1.09927E-03 2.61703E-22
1.15786E-03 2.35736E-22
1.21797E-03 2.12883E-22
1.27961E-03 1.92707E-22
1.34276E-03 1.74840E-22
1.40743E-03 1.58974E-22
1.47362E-03 1.44845E-22
1.54133E-03 1.32231E-22
1.61056E-03 1.20941E-22
1.68131E-03 1.10813E-22
1.75357E-03 1.01706E-22
1.82735E-03 9.34997E-23
1.90265E-03 8.60897E-23
1.97947E-03 7.93854E-23
2.05780E-03 7.33079E-23
2.13765E-03 6.77886E-23
2.21902E-03 6.27675E-23
2.30190E-03 5.81917E-23
2.38630E-03 5.40151E-23
2.47222E-03 5.01968E-23
2.55965E-03 4.67008E-23
2.64859E-03 4.34953E-23
2.73905E-03 4.05520E-23
2.83103E-03 3.78459E-23
2.92452E-03 3.53544E-23
3.01952E-03 3.30578E-23
3.11604E-03 3.09382E-23
3.21407E-03 2.89797E-23
3.31362E-03 2.71679E-23
3.41468E-03 2.54901E-23
3.51725E-03 2.39346E-23
3.62133E-03 2.24911E-23
3.72692E-03 2.11501E-23
3.83403E-03 1.99031E-23
3.94265E-03 1.87426E-23
4.05278E-03 1.76614E-23
4.16442E-03 1.66533E-23
4.27757E-03 1.57126E-23
4.39223E-03 1.48339E-23
4.50840E-03 1.40126E-23
4.62608E-03 1.32443E-23
4.74527E-03 1.25250E-23
4.86597E-03 1.18510E-23
4.98817E-03 1.12192E-23
5.11188E-03 1.06264E-23
5.23711E-03 1.00699E-23
5.36383E-03 9.54699E-24
5.49207E-03 9.05543E-24
5.62181E-03 8.59303E-24
5.75306E-03 8.15779E-24
5.88581E-03 7.74787E-24
6.02007E-03 7.36158E-24
6.15583E-03 6.99733E-24
6.29310E-03 6.65370E-24
6.43187E-03 6.32933E-24
6.57214E-03 6.02298E-24
6.71392E-03 5.73351E-24
6.85720E-03 5.45985E-24
7.00198E-03 5.20102E-24
7.14827E-03 4.95608E-24
7.29605E-03 4.72419E-24
7.44534E-03 4.50456E-24
7.59612E-03 4.29644E-24
7.97965E-03 3.82211E-24
8.37255E-03 3.40603E-24
8.77480E-03 3.04015E-24
9.18641E-03 2.71768E-24
9.60736E-03 2.43286E-24
1.00376E-02 2.18078E-24
1.04773E-02 1.95724E-24
1.09262E-02 1.75866E-24
1.13844E-02 1.58194E-24
1.18520E-02 1.42443E-24
1.23288E-02 1.28382E-24
1.28150E-02 1.15812E-24
1.33104E-02 1.04558E-24
1.38150E-02 9.44715E-25
1.43290E-02 8.54191E-25
1.48521E-02 7.72856E-25
1.53845E-02 6.99699E-25
1.59262E-02 6.33831E-25
1.64770E-02 5.74468E-25
1.70371E-02 5.20919E-25
1.76063E-02 4.72574E-25
1.81848E-02 4.28892E-25
1.87724E-02 3.89393E-25
1.93692E-02 3.53653E-25
1.99751E-02 3.21291E-25
2.05901E-02 2.91971E-25
2.12143E-02 2.65391E-25
2.18476E-02 2.41282E-25
2.24900E-02 2.19405E-25
2.31415E-02 1.99543E-25
2.38021E-02 1.81503E-25
2.44717E-02 1.65112E-25
2.51504E-02 1.50214E-25
2.58382E-02 1.36669E-25
2.65349E-02 1.24350E-25
2.72407E-02 1.13143E-25
2.79555E-02 1.02946E-25
2.86793E-02 9.36658E-26
2.94120E-02 8.52190E-26
3.01537E-02 7.75294E-26
3.09043E-02 7.05284E-26
3.16639E-02 6.41540E-26
3.24324E-02 5.83495E-26
3.32098E-02 5.30641E-26
3.39961E-02 4.82511E-26
3.47912E-02 4.38685E-26
3.55952E-02 3.98780E-26
3.64081E-02 3.62447E-26
3.72297E-02 3.29370E-26
3.80602E-02 2.99259E-26
3.88995E-02 2.71854E-26
3.97476E-02 2.46914E-26
4.06044E-02 2.24222E-26
4.14700E-02 2.03579E-26
4.23443E-02 1.84805E-26
4.32273E-02 1.67734E-26
4.41190E-02 1.52216E-26
4.50194E-02 1.38114E-26
4.59284E-02 1.25301E-26
4.68461E-02 1.13664E-26
4.87074E-02 9.35093E-27
5.06030E-02 7.69175E-27
5.25328E-02 6.32795E-27
5.44967E-02 5.20874E-27
5.64946E-02 4.29178E-27
5.85262E-02 3.54179E-27
6.05914E-02 2.92941E-27
6.26901E-02 2.43020E-27
6.48222E-02 2.02386E-27
6.69873E-02 1.69353E-27
6.91854E-02 1.42528E-27
7.14163E-02 1.20754E-27
7.36799E-02 1.03079E-27
7.59760E-02 8.87203E-28
7.83043E-02 7.70336E-28
8.06647E-02 6.74926E-28
8.30571E-02 5.96681E-28
8.54812E-02 5.32115E-28
8.79369E-02 4.78410E-28
9.04240E-02 4.33300E-28
9.29422E-02 3.94970E-28
9.54915E-02 3.61978E-28
9.80716E-02 3.33186E-28
1.00682E-01 3.07702E-28
1.03323E-01 2.84833E-28
1.05995E-01 2.64047E-28
1.08696E-01 2.44938E-28
1.11427E-01 2.27203E-28
1.14188E-01 2.10617E-28
1.16978E-01 1.95018E-28
1.19797E-01 1.80287E-28
1.22645E-01 1.66346E-28
1.25522E-01 1.53137E-28
1.28428E-01 1.40624E-28
1.31361E-01 1.28783E-28
1.34323E-01 1.17597E-28
1.37313E-01 1.07056E-28
1.40330E-01 9.71494E-29
1.43375E-01 8.78689E-29
1.46447E-01 7.92046E-29
1.49545E-01 7.11453E-29
1.52671E-01 6.36772E-29
1.55823E-01 5.67845E-29
1.59001E-01 5.04487E-29
1.62205E-01 4.46491E-29
1.65435E-01 3.93632E-29
1.68690E-01 3.45665E-29
1.71970E-01 3.02332E-29
1.75276E-01 2.63364E-29
1.78606E-01 2.28488E-29
1.81961E-01 1.97424E-29
1.85340E-01 1.69893E-29
1.88743E-01 1.45621E-29
1.92169E-01 1.24335E-29
1.95619E-01 1.05774E-29
1.99092E-01 8.96842E-30
2.02589E-01 7.58221E-30
2.06107E-01 6.39581E-30
2.09649E-01 5.38751E-30
2.13212E-01 4.53698E-30
2.16797E-01 3.82534E-30
2.20404E-01 3.23512E-30
2.24032E-01 2.75028E-30
2.27680E-01 2.35622E-30
2.31350E-01 2.03968E-30
2.35040E-01 1.78874E-30
2.38751E-01 1.59273E-30
2.42481E-01 1.44220E-30
2.46231E-01 1.32878E-30
2.50000E-01 1.24520E-30
2.53788E-01 1.18513E-30
2.57595E-01 1.14313E-30
2.61421E-01 1.11458E-30
2.65264E-01 1.09561E-30
2.69126E-01 1.08298E-30
2.73005E-01 1.07406E-30
2.76901E-01 1.06675E-30
2.80814E-01 1.05938E-30
2.84744E-01 1.05071E-30
2.88691E-01 1.03982E-30
2.92653E-01 1.02608E-30
2.96632E-01 1.00913E-30
3.00625E-01 9.88792E-31
3.04634E-01 9.65051E-31
3.08658E-01 9.38035E-31
3.12697E-01 9.07970E-31
3.16749E-01 8.75156E-31
3.20816E-01 8.39950E-31
3.24896E-01 8.02740E-31
3.28990E-01 7.63935E-31
3.33097E-01 7.23946E-31
3.37216E-01 6.83180E-31
3.41348E-01 6.42026E-31
3.45492E-01 6.00854E-31
3.49647E-01 5.60002E-31
3.53814E-01 5.19782E-31
3.57992E-01 4.80468E-31
3.62181E-01 4.42304E-31
3.66381E-01 4.05493E-31
3.70590E-01 3.70210E-31
3.74810E-01 3.36591E-31
3.79039E-01 3.04744E-31
3.83277E-01 2.74744E-31
3.87524E-01 2.46641E-31
3.91780E-01 2.20458E-31
3.96044E-01 1.96196E-31
4.00316E-01 1.73835E-31
4.04596E-01 1.53338E-31
4.08882E-01 1.34653E-31
4.13176E-01 1.17716E-31
4.17476E-01 1.02450E-31
4.21783E-01 8.87739E-32
4.26095E-01 7.65969E-32
4.30413E-01 6.58254E-32
4.34737E-01 5.63628E-32
4.39065E-01 4.81114E-32
4.43398E-01 4.09734E-32
4.47736E-01 3.48523E-32
4.52077E-01 2.96537E-32
4.56422E-01 2.52865E-32
4.60770E-01 2.16629E-32
4.65122E-01 1.86995E-32
4.69476E-01 1.63175E-32
4.73832E-01 1.44432E-32
4.78190E-01 1.30075E-32
4.82550E-01 1.19471E-32
4.86912E-01 1.12036E-32
4.91274E-01 1.07239E-32
4.95637E-01 1.04599E-32
5.00000E-01 1.03685E-32
5.04363E-01 1.04115E-32
5.08726E-01 1.05549E-32
5.13088E-01 1.07693E-32
5.17450E-01 1.10291E-32
5.21810E-01 1.13125E-32
5.26168E-01 1.16010E-32
5.30524E-01 1.18796E-32
5.34878E-01 1.21358E-32
5.39230E-01 1.23598E-32
5.43578E-01 1.25443E-32
5.47923E-01 1.26837E-32
5.52264E-01 1.27746E-32
5.56602E-01 1.28149E-32
5.60935E-01 1.28039E-32
5.65263E-01 1.27420E-32
5.69587E-01 1.26308E-32
5.73905E-01 1.24723E-32
5.78217E-01 1.22693E-32
5.82524E-01 1.20253E-32
5.86824E-01 1.17438E-32
5.91118E-01 1.14287E-32
5.95404E-01 1.10840E-32
5.99684E-01 1.07140E-32
6.03956E-01 1.03225E-32
6.08220E-01 9.91365E-33
6.12476E-01 9.49131E-33
6.16723E-01 9.05918E-33
6.20961E-01 8.62076E-33
6.25190E-01 8.17933E-33
6.29410E-01 7.73792E-33
6.33619E-01 7.29930E-33
6.37819E-01 6.86598E-33
6.42008E-01 6.44021E-33
6.46186E-01 6.02396E-33
6.50353E-01 5.61896E-33
6.54508E-01 5.22666E-33
6.58652E-01 4.84832E-33
6.62784E-01 4.48492E-33
6.66903E-01 4.13725E-33
6.71010E-01 3.80590E-33
6.75104E-01 3.49129E-33
6.79184E-01 3.19363E-33
6.83251E-01 2.91303E-33
6.87303E-01 2.64942E-33
6.91342E-01 2.40263E-33
6.95366E-01 2.17237E-33
6.99375E-01 1.95827E-33
7.03368E-01 1.75988E-33
7.07347E-01 1.57667E-33
7.11309E-01 1.40807E-33
7.15256E-01 1.25346E-33
7.19186E-01 1.11218E-33
7.23099E-01 9.83568E-34
7.26995E-01 8.66918E-34
7.30874E-01 7.61534E-34
7.34736E-01 6.66716E-34
7.38579E-01 5.81767E-34
7.42405E-01 5.06000E-34
7.46212E-01 4.38745E-34
7.50000E-01 3.79348E-34
7.53769E-01 3.27177E-34
7.57519E-01 2.81624E-34
7.61249E-01 2.42109E-34
7.64960E-01 2.08077E-34
7.68650E-01 1.79004E-34
7.72320E-01 1.54395E-34
7.75968E-01 1.33784E-34
7.79596E-01 1.16736E-34
7.83203E-01 1.02846E-34
7.86788E-01 9.17371E-35
7.90351E-01 8.30627E-35
7.93893E-01 7.65028E-35
7.97411E-01 7.17646E-35
8.00908E-01 6.85811E-35
8.04381E-01 6.67099E-35
8.07831E-01 6.59321E-35
8.11257E-01 6.60507E-35
8.14660E-01 6.68896E-35
8.18039E-01 6.82923E-35
8.21394E-01 7.01202E-35
8.24724E-01 7.22519E-35
8.28030E-01 7.45813E-35
8.31310E-01 7.70168E-35
8.34565E-01 7.94801E-35
8.37795E-01 8.19047E-35
8.40999E-01 8.42351E-35
8.44177E-01 8.64255E-35
8.47329E-01 8.84394E-35
8.50455E-01 9.02476E-35
8.53553E-01 9.18285E-35
8.56625E-01 9.31664E-35
8.59670E-01 9.42513E-35
8.62687E-01 9.50777E-35
8.65677E-01 9.56444E-35
8.68639E-01 9.59536E-35
8.71572E-01 9.60108E-35
8.74478E-01 9.58235E-35
8.77355E-01 9.54015E-35
8.80203E-01 9.47563E-35
8.83022E-01 9.39005E-35
8.85812E-01 9.28478E-35
8.88573E-01 9.16124E-35
8.91304E-01 9.02092E-35
8.94005E-01 8.86530E-35
8.96677E-01 8.69590E-35
8.99318E-01 8.51417E-35
9.01928E-01 8.32159E-35
9.04508E-01 8.11956E-35
9.07058E-01 7.90946E-35
9.09576E-01 7.69260E-35
9.12063E-01 7.47022E-35
9.14519E-01 7.24352E-35
9.16943E-01 7.01361E-35
9.19335E-01 6.78153E-35
9.21696E-01 6.54826E-35
9.24024E-01 6.31469E-35
9.26320E-01 6.08165E-35
9.28584E-01 5.84990E-35
9.30815E-01 5.62012E-35
9.33013E-01 5.39294E-35
9.35178E-01 5.16890E-35
9.37310E-01 4.94852E-35
9.39409E-01 4.73221E-35
9.41474E-01 4.52035E-35
9.43505E-01 4.31328E-35
9.45503E-01 4.11128E-35
9.47467E-01 3.91456E-35
9.49397E-01 3.72332E-35
9.51293E-01 3.53770E-35
9.53154E-01 3.35782E-35
9.54981E-01 3.18375E-35
9.56773E-01 3.01555E-35
9.58530E-01 2.85322E-35
9.60252E-01 2.69677E-35
9.61940E-01 2.54617E-35
9.63592E-01 2.40137E-35
9.65209E-01 2.26229E-35
9.66790E-01 2.12887E-35
9.68336E-01 2.00101E-35
9.69846E-01 1.87860E-35
9.71321E-01 1.76153E-35
9.72759E-01 1.64967E-35
9.74162E-01 1.54289E-35
9.75528E-01 1.44106E-35
9.76858E-01 1.34403E-35
9.78152E-01 1.25166E-35
9.79410E-01 1.16382E-35
9.80631E-01 1.08035E-35
9.81815E-01 1.00111E-35
9.82963E-01 9.25961E-36
9.84074E-01 8.54752E-36
9.85148E-01 7.87344E-36
9.86185E-01 7.23601E-36
9.87185E-01 6.63386E-36
9.88148E-01 6.06568E-36
9.89074E-01 5.53021E-36
9.89962E-01 5.02622E-36
9.90814E-01 4.55248E-36
9.91627E-01 4.10787E-36
9.92404E-01 3.69129E-36
9.93143E-01 3.30165E-36
9.93844E-01 2.93801E-36
9.94508E-01 2.59938E-36
9.95134E-01 2.28489E-36
9.95722E-01 1.99365E-36
9.96273E-01 1.72490E-36
9.96786E-01 1.47788E-36
9.97261E-01 1.25192E-36
9.97698E-01 1.04636E-36
9.98097E-01 8.60620E-37
9.98459E-01 6.94181E-37
9.98782E-01 5.46547E-37
9.99067E-01 4.17272E-37
9.99315E-01 3.06021E-37
9.99524E-01 2.12414E-37
9.99695E-01 1.36219E-37
9.99829E-01 7.71830E-38
9.99924E-01 3.51449E-38
9.99981E-01 9.96787E-39
1.00000E+00 1.57328E-39
