 #
 # Subroutine ELSEPA. Elastic scattering of electrons and positrons
 #                    by neutral atoms and positive ions
 #
 # Projectile: electron
 # Kinetic energy = 8.00000E+08 eV = 2.93995E+07 a.u.
 #
 # WARNING: High-energy factorization with free-atom DF screening.
 #          Absorption, polarization and exchange corrections are
 #          switched off.
 #          Phase shifts are calculated for the bare nucleus.
 #          Scattering amplitudes are not evaluated.
 #
 # Element: Pm,  Z =  61,  atomic weight = 1.44913E+02 g/mol
 #
 # Nuclear model: Fermi distribution
 #                Average radius = 5.62021E-13 cm
 #                Skin thickness = 5.46000E-14 cm
 #
 # Number of electrons = 61
 #
 # Total elastic cross section = 7.17771E-18 cm**2 = 2.56321E-01 a0**2
 # 1st transport cross section = 1.12327E-26 cm**2 = 4.01127E-10 a0**2
 # 2nd transport cross section = 3.36929E-26 cm**2 = 1.20320E-09 a0**2
 #
 #
 # Differential cross section:                       MU=(1-COS(THETA))/2
 #
 #  THETA        MU          DCS          DCS        Sherman      error
 #  (deg)                 (cm**2/sr)   (a0**2/sr)    function
 #----------------------------------------------------------------------
0.00000E+00 6.23166E-08
7.61557E-13 4.59302E-08
1.18994E-12 3.96891E-08
1.71346E-12 3.38737E-08
2.33225E-12 2.87695E-08
3.04617E-12 2.44628E-08
3.85530E-12 2.08983E-08
4.75964E-12 1.79938E-08
5.75917E-12 1.56153E-08
6.85391E-12 1.36702E-08
8.04379E-12 1.20561E-08
9.32893E-12 1.07052E-08
1.07092E-11 9.55996E-09
1.21847E-11 8.57670E-09
1.37554E-11 7.72509E-09
1.54213E-11 6.97958E-09
1.71823E-11 6.32266E-09
1.90386E-11 5.74048E-09
2.09900E-11 5.22119E-09
2.30367E-11 4.75785E-09
2.51785E-11 4.34123E-09
2.74156E-11 3.96815E-09
2.97478E-11 3.63096E-09
3.21752E-11 3.32808E-09
3.46979E-11 3.05396E-09
3.73157E-11 2.79571E-09
4.00286E-11 2.56015E-09
4.28368E-11 2.35333E-09
4.57402E-11 2.17104E-09
4.87388E-11 2.00977E-09
5.18325E-11 1.86661E-09
5.50215E-11 1.73907E-09
5.83057E-11 1.61196E-09
6.16850E-11 1.49388E-09
6.51595E-11 1.38828E-09
6.87293E-11 1.29357E-09
7.23943E-11 1.20838E-09
7.61544E-11 1.13155E-09
1.18991E-10 6.08275E-10
1.71347E-10 3.54932E-10
2.33223E-10 2.18974E-10
3.04617E-10 1.41115E-10
3.85531E-10 9.47747E-11
4.75965E-10 6.59986E-11
5.75917E-10 4.75571E-11
6.85389E-10 3.52517E-11
8.04380E-10 2.67887E-11
9.32891E-10 2.07644E-11
1.07092E-09 1.63593E-11
1.21847E-09 1.30708E-11
1.37554E-09 1.05730E-11
1.54213E-09 8.63978E-12
1.71823E-09 7.12297E-12
1.90386E-09 5.91983E-12
2.09900E-09 4.95607E-12
2.30367E-09 4.17921E-12
2.51785E-09 3.54712E-12
2.74156E-09 3.02988E-12
2.97478E-09 2.60254E-12
3.21752E-09 2.24781E-12
3.46978E-09 1.95111E-12
3.73156E-09 1.70116E-12
4.00286E-09 1.49037E-12
4.28368E-09 1.31223E-12
4.57402E-09 1.15914E-12
4.87388E-09 1.02810E-12
5.18326E-09 9.15484E-13
5.50215E-09 8.17357E-13
5.83057E-09 7.32387E-13
6.16850E-09 6.58251E-13
6.51596E-09 5.93131E-13
6.87293E-09 5.36085E-13
7.23942E-09 4.85648E-13
7.61544E-09 4.41002E-13
1.18991E-08 1.87908E-13
1.71347E-08 9.30000E-14
2.33223E-08 5.10754E-14
3.04617E-08 3.03047E-14
3.85531E-08 1.90880E-14
4.75965E-08 1.26102E-14
5.75917E-08 8.66124E-15
6.85389E-08 6.14414E-15
8.04380E-08 4.47881E-15
9.32891E-08 3.34161E-15
1.07092E-07 2.54361E-15
1.21847E-07 1.97031E-15
1.37554E-07 1.54985E-15
1.54213E-07 1.23581E-15
1.71823E-07 9.97442E-16
1.90386E-07 8.13872E-16
2.09900E-07 6.70649E-16
2.30367E-07 5.57584E-16
2.51785E-07 4.67368E-16
2.74156E-07 3.94676E-16
2.97478E-07 3.35578E-16
3.21752E-07 2.87135E-16
3.46978E-07 2.47122E-16
3.73156E-07 2.13839E-16
4.00286E-07 1.85973E-16
4.28368E-07 1.62501E-16
4.57402E-07 1.42615E-16
4.87388E-07 1.25679E-16
5.18325E-07 1.11183E-16
5.50215E-07 9.87168E-17
5.83057E-07 8.79493E-17
6.16850E-07 7.86099E-17
6.51596E-07 7.04775E-17
6.87293E-07 6.33695E-17
7.23942E-07 5.71352E-17
7.61543E-07 5.16486E-17
1.18991E-06 2.12032E-17
1.71347E-06 1.02387E-17
2.33223E-06 5.53134E-18
3.04617E-06 3.24436E-18
3.85531E-06 2.02639E-18
4.75964E-06 1.33002E-18
5.75916E-06 9.08722E-19
6.85388E-06 6.41805E-19
8.04378E-06 4.66090E-19
9.32888E-06 3.46608E-19
1.07092E-05 2.63079E-19
1.21846E-05 2.03267E-19
1.37553E-05 1.59531E-19
1.54212E-05 1.26952E-19
1.71822E-05 1.02283E-19
1.90385E-05 8.32923E-20
2.09899E-05 6.85710E-20
2.30365E-05 5.69572E-20
2.51783E-05 4.76921E-20
2.74153E-05 4.02292E-20
2.97475E-05 3.41671E-20
3.21749E-05 2.92051E-20
3.46974E-05 2.51143E-20
3.73152E-05 2.17180E-20
4.00281E-05 1.88787E-20
4.28362E-05 1.64896E-20
4.57395E-05 1.44670E-20
4.87380E-05 1.27447E-20
5.18317E-05 1.12706E-20
5.50205E-05 1.00032E-20
5.83045E-05 8.90895E-21
6.16838E-05 7.96045E-21
6.51582E-05 7.13516E-21
6.87277E-05 6.41441E-21
7.23925E-05 5.78264E-21
7.61524E-05 5.25752E-21
9.21439E-05 3.58477E-21
1.09658E-04 2.52431E-21
1.28695E-04 1.82632E-21
1.49255E-04 1.35167E-21
1.71338E-04 1.02015E-21
1.94942E-04 7.83000E-22
2.20070E-04 6.09875E-22
2.46720E-04 4.81196E-22
2.74892E-04 3.84008E-22
3.04586E-04 3.09572E-22
3.35803E-04 2.51825E-22
3.68542E-04 2.06518E-22
4.02802E-04 1.70603E-22
4.38585E-04 1.41866E-22
4.75889E-04 1.18677E-22
5.14715E-04 9.98197E-23
5.55063E-04 8.43758E-23
5.96931E-04 7.16447E-23
6.40321E-04 6.10871E-23
6.85233E-04 5.22835E-23
7.31665E-04 4.49049E-23
7.79618E-04 3.86915E-23
8.29092E-04 3.34364E-23
8.80086E-04 2.89737E-23
9.32601E-04 2.51696E-23
9.86636E-04 2.19156E-23
1.04219E-03 1.91230E-23
1.09927E-03 1.67191E-23
1.15786E-03 1.46439E-23
1.21797E-03 1.28477E-23
1.27961E-03 1.12893E-23
1.34276E-03 9.93394E-24
1.40743E-03 8.75273E-24
1.47362E-03 7.72121E-24
1.54133E-03 6.81873E-24
1.61056E-03 6.02778E-24
1.68131E-03 5.33345E-24
1.75357E-03 4.72302E-24
1.82735E-03 4.18561E-24
1.90265E-03 3.71186E-24
1.97947E-03 3.29373E-24
2.05780E-03 2.92429E-24
2.13765E-03 2.59752E-24
2.21902E-03 2.30823E-24
2.30190E-03 2.05189E-24
2.38630E-03 1.82458E-24
2.47222E-03 1.62286E-24
2.55965E-03 1.44373E-24
2.64859E-03 1.28457E-24
2.73905E-03 1.14309E-24
2.83103E-03 1.01726E-24
2.92452E-03 9.05302E-25
3.01952E-03 8.05657E-25
3.11604E-03 7.16946E-25
3.21407E-03 6.37949E-25
3.31362E-03 5.67591E-25
3.41468E-03 5.04919E-25
3.51725E-03 4.49089E-25
3.62133E-03 3.99352E-25
3.72692E-03 3.55045E-25
3.83403E-03 3.15577E-25
3.94265E-03 2.80423E-25
4.05278E-03 2.49117E-25
4.16442E-03 2.21243E-25
4.27757E-03 1.96430E-25
4.39223E-03 1.74349E-25
4.50840E-03 1.54704E-25
4.62608E-03 1.37234E-25
4.74527E-03 1.21703E-25
4.86597E-03 1.07902E-25
4.98817E-03 9.56449E-26
5.11188E-03 8.47633E-26
5.23711E-03 7.51082E-26
5.36383E-03 6.65461E-26
5.49207E-03 5.89577E-26
5.62181E-03 5.22364E-26
5.75306E-03 4.62868E-26
5.88581E-03 4.10236E-26
6.02007E-03 3.63708E-26
6.15583E-03 3.22602E-26
6.29310E-03 2.86312E-26
6.43187E-03 2.54293E-26
6.57214E-03 2.26063E-26
6.71392E-03 2.01187E-26
6.85720E-03 1.79281E-26
7.00198E-03 1.60001E-26
7.14827E-03 1.43041E-26
7.29605E-03 1.28127E-26
7.44534E-03 1.15018E-26
7.59612E-03 1.03497E-26
7.97965E-03 8.04403E-27
8.37255E-03 6.37243E-27
8.77480E-03 5.15442E-27
9.18641E-03 4.25798E-27
9.60736E-03 3.58751E-27
1.00376E-02 3.07450E-27
1.04773E-02 2.67054E-27
1.09262E-02 2.34198E-27
1.13844E-02 2.06582E-27
1.18520E-02 1.82674E-27
1.23288E-02 1.61477E-27
1.28150E-02 1.42368E-27
1.33104E-02 1.24970E-27
1.38150E-02 1.09065E-27
1.43290E-02 9.45321E-28
1.48521E-02 8.13057E-28
1.53845E-02 6.93444E-28
1.59262E-02 5.86139E-28
1.64770E-02 4.90765E-28
1.70371E-02 4.06850E-28
1.76063E-02 3.33815E-28
1.81848E-02 2.70971E-28
1.87724E-02 2.17542E-28
1.93692E-02 1.72689E-28
1.99751E-02 1.35532E-28
2.05901E-02 1.05186E-28
2.12143E-02 8.07768E-29
2.18476E-02 6.14647E-29
2.24900E-02 4.64612E-29
2.31415E-02 3.50394E-29
2.38021E-02 2.65425E-29
2.44717E-02 2.03879E-29
2.51504E-02 1.60679E-29
2.58382E-02 1.31485E-29
2.65349E-02 1.12658E-29
2.72407E-02 1.01206E-29
2.79555E-02 9.47312E-30
2.86793E-02 9.13551E-30
2.94120E-02 8.96565E-30
3.01537E-02 8.86004E-30
3.09043E-02 8.74741E-30
3.16639E-02 8.58254E-30
3.24324E-02 8.34081E-30
3.32098E-02 8.01326E-30
3.39961E-02 7.60231E-30
3.47912E-02 7.11821E-30
3.55952E-02 6.57606E-30
3.64081E-02 5.99340E-30
3.72297E-02 5.38839E-30
3.80602E-02 4.77846E-30
3.88995E-02 4.17934E-30
3.97476E-02 3.60444E-30
4.06044E-02 3.06457E-30
4.14700E-02 2.56780E-30
4.23443E-02 2.11956E-30
4.32273E-02 1.72284E-30
4.41190E-02 1.37849E-30
4.50194E-02 1.08552E-30
4.59284E-02 8.41469E-31
4.68461E-02 6.42779E-31
4.87074E-02 3.63605E-31
5.06030E-02 2.09047E-31
5.25328E-02 1.40017E-31
5.44967E-02 1.22396E-31
5.64946E-02 1.29656E-31
5.85262E-02 1.43487E-31
6.05914E-02 1.53067E-31
6.26901E-02 1.53572E-31
6.48222E-02 1.44402E-31
6.69873E-02 1.27490E-31
6.91854E-02 1.05902E-31
7.14163E-02 8.28161E-32
7.36799E-02 6.08867E-32
7.59760E-02 4.19457E-32
7.83043E-02 2.69516E-32
8.06647E-02 1.61046E-32
8.30571E-02 9.04542E-33
8.54812E-02 5.07642E-33
8.79369E-02 3.36205E-33
9.04240E-02 3.08469E-33
9.29422E-02 3.54732E-33
9.54915E-02 4.22552E-33
9.80716E-02 4.77801E-33
1.00682E-01 5.02827E-33
1.03323E-01 4.92924E-33
1.05995E-01 4.52208E-33
1.08696E-01 3.89671E-33
1.11427E-01 3.15912E-33
1.14188E-01 2.40791E-33
1.16978E-01 1.72017E-33
1.19797E-01 1.14560E-33
1.22645E-01 7.06868E-34
1.25522E-01 4.04031E-34
1.28428E-01 2.21014E-34
1.31361E-01 1.32456E-34
1.34323E-01 1.09817E-34
1.37313E-01 1.26069E-34
1.40330E-01 1.58747E-34
1.43375E-01 1.91434E-34
1.46447E-01 2.13963E-34
1.49545E-01 2.21707E-34
1.52671E-01 2.14344E-34
1.55823E-01 1.94425E-34
1.59001E-01 1.66015E-34
1.62205E-01 1.33562E-34
1.65435E-01 1.01080E-34
1.68690E-01 7.16623E-35
1.71970E-01 4.72803E-35
1.75276E-01 2.88120E-35
1.78606E-01 1.62182E-35
1.81961E-01 8.79843E-36
1.85340E-01 5.46311E-36
1.88743E-01 4.98114E-36
1.92169E-01 6.17464E-36
1.95619E-01 8.05033E-36
1.99092E-01 9.86869E-36
2.02589E-01 1.11597E-35
2.06107E-01 1.16994E-35
2.09649E-01 1.14611E-35
2.13212E-01 1.05563E-35
2.16797E-01 9.17500E-36
2.20404E-01 7.53404E-36
2.24032E-01 5.83790E-36
2.27680E-01 4.25280E-36
2.31350E-01 2.89399E-36
2.35040E-01 1.82378E-36
2.38751E-01 1.05713E-36
2.42481E-01 5.72168E-37
2.46231E-01 3.22467E-37
2.50000E-01 2.49141E-37
2.53788E-01 2.91173E-37
2.57595E-01 3.93159E-37
2.61421E-01 5.10249E-37
2.65264E-01 6.10410E-37
2.69126E-01 6.74515E-37
2.73005E-01 6.94844E-37
2.76901E-01 6.72628E-37
2.80814E-01 6.15183E-37
2.84744E-01 5.33170E-37
2.88691E-01 4.38181E-37
2.92653E-01 3.40956E-37
2.96632E-01 2.50196E-37
3.00625E-01 1.71989E-37
3.04634E-01 1.09719E-37
3.08658E-01 1.00000E-45
3.12697E-01 1.00000E-45
3.16749E-01 1.00000E-45
3.20816E-01 1.00000E-45
3.24896E-01 1.00000E-45
3.28990E-01 1.00000E-45
3.33097E-01 1.00000E-45
3.37216E-01 1.00000E-45
3.41348E-01 1.00000E-45
3.45492E-01 1.00000E-45
3.49647E-01 1.00000E-45
3.53814E-01 1.00000E-45
3.57992E-01 1.00000E-45
3.62181E-01 1.00000E-45
3.66381E-01 1.00000E-45
3.70590E-01 1.00000E-45
3.74810E-01 1.00000E-45
3.79039E-01 1.00000E-45
3.83277E-01 1.00000E-45
3.87524E-01 1.00000E-45
3.91780E-01 1.00000E-45
3.96044E-01 1.00000E-45
4.00316E-01 1.00000E-45
4.04596E-01 1.00000E-45
4.08882E-01 1.00000E-45
4.13176E-01 1.00000E-45
4.17476E-01 1.00000E-45
4.21783E-01 1.00000E-45
4.26095E-01 1.00000E-45
4.30413E-01 1.00000E-45
4.34737E-01 1.00000E-45
4.39065E-01 1.00000E-45
4.43398E-01 1.00000E-45
4.47736E-01 1.00000E-45
4.52077E-01 1.00000E-45
4.56422E-01 1.00000E-45
4.60770E-01 1.00000E-45
4.65122E-01 1.00000E-45
4.69476E-01 1.00000E-45
4.73832E-01 1.00000E-45
4.78190E-01 1.00000E-45
4.82550E-01 1.00000E-45
4.86912E-01 1.00000E-45
4.91274E-01 1.00000E-45
4.95637E-01 1.00000E-45
5.00000E-01 1.00000E-45
5.04363E-01 1.00000E-45
5.08726E-01 1.00000E-45
5.13088E-01 1.00000E-45
5.17450E-01 1.00000E-45
5.21810E-01 1.00000E-45
5.26168E-01 1.00000E-45
5.30524E-01 1.00000E-45
5.34878E-01 1.00000E-45
5.39230E-01 1.00000E-45
5.43578E-01 1.00000E-45
5.47923E-01 1.00000E-45
5.52264E-01 1.00000E-45
5.56602E-01 1.00000E-45
5.60935E-01 1.00000E-45
5.65263E-01 1.00000E-45
5.69587E-01 1.00000E-45
5.73905E-01 1.00000E-45
5.78217E-01 1.00000E-45
5.82524E-01 1.00000E-45
5.86824E-01 1.00000E-45
5.91118E-01 1.00000E-45
5.95404E-01 1.00000E-45
5.99684E-01 1.00000E-45
6.03956E-01 1.00000E-45
6.08220E-01 1.00000E-45
6.12476E-01 1.00000E-45
6.16723E-01 1.00000E-45
6.20961E-01 1.00000E-45
6.25190E-01 1.00000E-45
6.29410E-01 1.00000E-45
6.33619E-01 1.00000E-45
6.37819E-01 1.00000E-45
6.42008E-01 1.00000E-45
6.46186E-01 1.00000E-45
6.50353E-01 1.00000E-45
6.54508E-01 1.00000E-45
6.58652E-01 1.00000E-45
6.62784E-01 1.00000E-45
6.66903E-01 1.00000E-45
6.71010E-01 1.00000E-45
6.75104E-01 1.00000E-45
6.79184E-01 1.00000E-45
6.83251E-01 1.00000E-45
6.87303E-01 1.00000E-45
6.91342E-01 1.00000E-45
6.95366E-01 1.00000E-45
6.99375E-01 1.00000E-45
7.03368E-01 1.00000E-45
7.07347E-01 1.00000E-45
7.11309E-01 1.00000E-45
7.15256E-01 1.00000E-45
7.19186E-01 1.00000E-45
7.23099E-01 1.00000E-45
7.26995E-01 1.00000E-45
7.30874E-01 1.00000E-45
7.34736E-01 1.00000E-45
7.38579E-01 1.00000E-45
7.42405E-01 1.00000E-45
7.46212E-01 1.00000E-45
7.50000E-01 1.00000E-45
7.53769E-01 1.00000E-45
7.57519E-01 1.00000E-45
7.61249E-01 1.00000E-45
7.64960E-01 1.00000E-45
7.68650E-01 1.00000E-45
7.72320E-01 1.00000E-45
7.75968E-01 1.00000E-45
7.79596E-01 1.00000E-45
7.83203E-01 1.00000E-45
7.86788E-01 1.00000E-45
7.90351E-01 1.00000E-45
7.93893E-01 1.00000E-45
7.97411E-01 1.00000E-45
8.00908E-01 1.00000E-45
8.04381E-01 1.00000E-45
8.07831E-01 1.00000E-45
8.11257E-01 1.00000E-45
8.14660E-01 1.00000E-45
8.18039E-01 1.00000E-45
8.21394E-01 1.00000E-45
8.24724E-01 1.00000E-45
8.28030E-01 1.00000E-45
8.31310E-01 1.00000E-45
8.34565E-01 1.00000E-45
8.37795E-01 1.00000E-45
8.40999E-01 1.00000E-45
8.44177E-01 1.00000E-45
8.47329E-01 1.00000E-45
8.50455E-01 1.00000E-45
8.53553E-01 1.00000E-45
8.56625E-01 1.00000E-45
8.59670E-01 1.00000E-45
8.62687E-01 1.00000E-45
8.65677E-01 1.00000E-45
8.68639E-01 1.00000E-45
8.71572E-01 1.00000E-45
8.74478E-01 1.00000E-45
8.77355E-01 1.00000E-45
8.80203E-01 1.00000E-45
8.83022E-01 1.00000E-45
8.85812E-01 1.00000E-45
8.88573E-01 1.00000E-45
8.91304E-01 1.00000E-45
8.94005E-01 1.00000E-45
8.96677E-01 1.00000E-45
8.99318E-01 1.00000E-45
9.01928E-01 1.00000E-45
9.04508E-01 1.00000E-45
9.07058E-01 1.00000E-45
9.09576E-01 1.00000E-45
9.12063E-01 1.00000E-45
9.14519E-01 1.00000E-45
9.16943E-01 1.00000E-45
9.19335E-01 1.00000E-45
9.21696E-01 1.00000E-45
9.24024E-01 1.00000E-45
9.26320E-01 1.00000E-45
9.28584E-01 1.00000E-45
9.30815E-01 1.00000E-45
9.33013E-01 1.00000E-45
9.35178E-01 1.00000E-45
9.37310E-01 1.00000E-45
9.39409E-01 1.00000E-45
9.41474E-01 1.00000E-45
9.43505E-01 1.00000E-45
9.45503E-01 1.00000E-45
9.47467E-01 1.00000E-45
9.49397E-01 1.00000E-45
9.51293E-01 1.00000E-45
9.53154E-01 1.00000E-45
9.54981E-01 1.00000E-45
9.56773E-01 1.00000E-45
9.58530E-01 1.00000E-45
9.60252E-01 1.00000E-45
9.61940E-01 1.00000E-45
9.63592E-01 1.00000E-45
9.65209E-01 1.00000E-45
9.66790E-01 1.00000E-45
9.68336E-01 1.00000E-45
9.69846E-01 1.00000E-45
9.71321E-01 1.00000E-45
9.72759E-01 1.00000E-45
9.74162E-01 1.00000E-45
9.75528E-01 1.00000E-45
9.76858E-01 1.00000E-45
9.78152E-01 1.00000E-45
9.79410E-01 1.00000E-45
9.80631E-01 1.00000E-45
9.81815E-01 1.00000E-45
9.82963E-01 1.00000E-45
9.84074E-01 1.00000E-45
9.85148E-01 1.00000E-45
9.86185E-01 1.00000E-45
9.87185E-01 1.00000E-45
9.88148E-01 1.00000E-45
9.89074E-01 1.00000E-45
9.89962E-01 1.00000E-45
9.90814E-01 1.00000E-45
9.91627E-01 1.00000E-45
9.92404E-01 1.00000E-45
9.93143E-01 1.00000E-45
9.93844E-01 1.00000E-45
9.94508E-01 1.00000E-45
9.95134E-01 1.00000E-45
9.95722E-01 1.00000E-45
9.96273E-01 1.00000E-45
9.96786E-01 1.00000E-45
9.97261E-01 1.00000E-45
9.97698E-01 1.00000E-45
9.98097E-01 1.00000E-45
9.98459E-01 1.00000E-45
9.98782E-01 1.00000E-45
9.99067E-01 1.00000E-45
9.99315E-01 1.00000E-45
9.99524E-01 1.00000E-45
9.99695E-01 1.00000E-45
9.99829E-01 1.00000E-45
9.99924E-01 1.00000E-45
9.99981E-01 1.00000E-45
1.00000E+00 1.00000E-45
