 #
 # Subroutine ELSEPA. Elastic scattering of electrons and positrons
 #                    by neutral atoms and positive ions
 #
 # Projectile: electron
 # Kinetic energy = 3.50000E+06 eV = 1.28623E+05 a.u.
 #
 # WARNING: High-energy factorization with free-atom DF screening.
 #          Absorption, polarization and exchange corrections are
 #          switched off.
 #          Phase shifts are calculated for the bare nucleus.
 #          Scattering amplitudes are not evaluated.
 #
 # Element: Pm,  Z =  61,  atomic weight = 1.44913E+02 g/mol
 #
 # Nuclear model: Fermi distribution
 #                Average radius = 5.62021E-13 cm
 #                Skin thickness = 5.46000E-14 cm
 #
 # Number of electrons = 61
 #
 # Total elastic cross section = 7.37521E-18 cm**2 = 2.63373E-01 a0**2
 # 1st transport cross section = 3.67199E-22 cm**2 = 1.31129E-05 a0**2
 # 2nd transport cross section = 1.00586E-21 cm**2 = 3.59199E-05 a0**2
 #
 #
 # Differential cross section:                       MU=(1-COS(THETA))/2
 #
 #  THETA        MU          DCS          DCS        Sherman      error
 #  (deg)                 (cm**2/sr)   (a0**2/sr)    function
 #----------------------------------------------------------------------
0.00000E+00 1.56450E-12
7.61557E-13 1.56448E-12
1.18994E-12 1.56448E-12
1.71346E-12 1.56447E-12
2.33225E-12 1.56446E-12
3.04617E-12 1.56444E-12
3.85530E-12 1.56443E-12
4.75964E-12 1.56441E-12
5.75917E-12 1.56440E-12
6.85391E-12 1.56438E-12
8.04379E-12 1.56436E-12
9.32893E-12 1.56434E-12
1.07092E-11 1.56431E-12
1.21847E-11 1.56429E-12
1.37554E-11 1.56426E-12
1.54213E-11 1.56423E-12
1.71823E-11 1.56420E-12
1.90386E-11 1.56417E-12
2.09900E-11 1.56414E-12
2.30367E-11 1.56410E-12
2.51785E-11 1.56407E-12
2.74156E-11 1.56403E-12
2.97478E-11 1.56399E-12
3.21752E-11 1.56395E-12
3.46979E-11 1.56390E-12
3.73157E-11 1.56386E-12
4.00286E-11 1.56381E-12
4.28368E-11 1.56376E-12
4.57402E-11 1.56371E-12
4.87388E-11 1.56366E-12
5.18325E-11 1.56361E-12
5.50215E-11 1.56355E-12
5.83057E-11 1.56350E-12
6.16850E-11 1.56344E-12
6.51595E-11 1.56338E-12
6.87293E-11 1.56332E-12
7.23943E-11 1.56326E-12
7.61544E-11 1.56319E-12
1.18991E-10 1.56246E-12
1.71347E-10 1.56156E-12
2.33223E-10 1.56050E-12
3.04617E-10 1.55928E-12
3.85531E-10 1.55790E-12
4.75965E-10 1.55636E-12
5.75917E-10 1.55466E-12
6.85389E-10 1.55281E-12
8.04380E-10 1.55079E-12
9.32891E-10 1.54862E-12
1.07092E-09 1.54629E-12
1.21847E-09 1.54381E-12
1.37554E-09 1.54117E-12
1.54213E-09 1.53839E-12
1.71823E-09 1.53545E-12
1.90386E-09 1.53236E-12
2.09900E-09 1.52913E-12
2.30367E-09 1.52575E-12
2.51785E-09 1.52223E-12
2.74156E-09 1.51856E-12
2.97478E-09 1.51476E-12
3.21752E-09 1.51081E-12
3.46978E-09 1.50673E-12
3.73156E-09 1.50252E-12
4.00286E-09 1.49817E-12
4.28368E-09 1.49369E-12
4.57402E-09 1.48908E-12
4.87388E-09 1.48434E-12
5.18326E-09 1.47948E-12
5.50215E-09 1.47450E-12
5.83057E-09 1.46940E-12
6.16850E-09 1.46418E-12
6.51596E-09 1.45885E-12
6.87293E-09 1.45340E-12
7.23942E-09 1.44784E-12
7.61544E-09 1.44218E-12
1.18991E-08 1.38016E-12
1.71347E-08 1.31049E-12
2.33223E-08 1.23505E-12
3.04617E-08 1.15715E-12
3.85531E-08 1.07869E-12
4.75965E-08 1.00120E-12
5.75917E-08 9.26210E-13
6.85389E-08 8.55658E-13
8.04380E-08 7.89255E-13
9.32891E-08 7.27417E-13
1.07092E-07 6.70730E-13
1.21847E-07 6.19143E-13
1.37554E-07 5.72028E-13
1.54213E-07 5.29188E-13
1.71823E-07 4.90740E-13
1.90386E-07 4.55920E-13
2.09900E-07 4.24351E-13
2.30367E-07 3.95796E-13
2.51785E-07 3.70039E-13
2.74156E-07 3.46586E-13
2.97478E-07 3.25218E-13
3.21752E-07 3.05750E-13
3.46978E-07 2.87926E-13
3.73156E-07 2.71552E-13
4.00286E-07 2.56487E-13
4.28368E-07 2.42559E-13
4.57402E-07 2.29656E-13
4.87388E-07 2.17687E-13
5.18325E-07 2.06548E-13
5.50215E-07 1.96119E-13
5.83057E-07 1.86382E-13
6.16850E-07 1.77276E-13
6.51596E-07 1.68702E-13
6.87293E-07 1.60631E-13
7.23942E-07 1.53049E-13
7.61543E-07 1.45919E-13
1.18991E-06 9.24651E-14
1.71347E-06 6.00391E-14
2.33223E-06 4.11923E-14
3.04617E-06 2.88978E-14
3.85531E-06 2.09210E-14
4.75964E-06 1.55724E-14
5.75916E-06 1.18370E-14
6.85388E-06 9.09320E-15
8.04378E-06 7.10164E-15
9.32888E-06 5.62182E-15
1.07092E-05 4.49281E-15
1.21846E-05 3.62519E-15
1.37553E-05 2.95777E-15
1.54212E-05 2.43742E-15
1.71822E-05 2.02495E-15
1.90385E-05 1.69710E-15
2.09899E-05 1.43596E-15
2.30365E-05 1.22431E-15
2.51783E-05 1.05072E-15
2.74153E-05 9.07774E-16
2.97475E-05 7.89122E-16
3.21749E-05 6.89658E-16
3.46974E-05 6.05898E-16
3.73152E-05 5.34812E-16
4.00281E-05 4.73993E-16
4.28362E-05 4.21565E-16
4.57395E-05 3.76328E-16
4.87380E-05 3.37098E-16
5.18317E-05 3.02856E-16
5.50205E-05 2.72764E-16
5.83045E-05 2.46330E-16
6.16838E-05 2.23025E-16
6.51582E-05 2.02334E-16
6.87277E-05 1.83946E-16
7.23925E-05 1.67591E-16
7.61524E-05 1.52998E-16
9.21439E-05 1.08111E-16
1.09658E-04 7.84433E-17
1.28695E-04 5.82511E-17
1.49255E-04 4.41252E-17
1.71338E-04 3.40555E-17
1.94942E-04 2.67043E-17
2.20070E-04 2.12481E-17
2.46720E-04 1.71258E-17
2.74892E-04 1.39556E-17
3.04586E-04 1.14899E-17
3.35803E-04 9.54883E-18
3.68542E-04 8.00243E-18
4.02802E-04 6.75565E-18
4.38585E-04 5.74367E-18
4.75889E-04 4.91504E-18
5.14715E-04 4.23025E-18
5.55063E-04 3.66052E-18
5.96931E-04 3.18386E-18
6.40321E-04 2.78251E-18
6.85233E-04 2.44202E-18
7.31665E-04 2.15216E-18
7.79618E-04 1.90416E-18
8.29092E-04 1.69085E-18
8.80086E-04 1.50647E-18
9.32601E-04 1.34662E-18
9.86636E-04 1.20747E-18
1.04219E-03 1.08578E-18
1.09927E-03 9.79052E-19
1.15786E-03 8.85158E-19
1.21797E-03 8.02284E-19
1.27961E-03 7.28853E-19
1.34276E-03 6.63665E-19
1.40743E-03 6.05631E-19
1.47362E-03 5.53812E-19
1.54133E-03 5.07423E-19
1.61056E-03 4.65812E-19
1.68131E-03 4.28399E-19
1.75357E-03 3.94670E-19
1.82735E-03 3.64210E-19
1.90265E-03 3.36647E-19
1.97947E-03 3.11655E-19
2.05780E-03 2.88944E-19
2.13765E-03 2.68276E-19
2.21902E-03 2.49435E-19
2.30190E-03 2.32225E-19
2.38630E-03 2.16481E-19
2.47222E-03 2.02057E-19
2.55965E-03 1.88823E-19
2.64859E-03 1.76658E-19
2.73905E-03 1.65464E-19
2.83103E-03 1.55149E-19
2.92452E-03 1.45630E-19
3.01952E-03 1.36834E-19
3.11604E-03 1.28697E-19
3.21407E-03 1.21161E-19
3.31362E-03 1.14171E-19
3.41468E-03 1.07681E-19
3.51725E-03 1.01650E-19
3.62133E-03 9.60390E-20
3.72692E-03 9.08116E-20
3.83403E-03 8.59380E-20
3.94265E-03 8.13898E-20
4.05278E-03 7.71409E-20
4.16442E-03 7.31675E-20
4.27757E-03 6.94489E-20
4.39223E-03 6.59657E-20
4.50840E-03 6.26997E-20
4.62608E-03 5.96351E-20
4.74527E-03 5.67571E-20
4.86597E-03 5.40523E-20
4.98817E-03 5.15078E-20
5.11188E-03 4.91128E-20
5.23711E-03 4.68567E-20
5.36383E-03 4.47298E-20
5.49207E-03 4.27232E-20
5.62181E-03 4.08291E-20
5.75306E-03 3.90398E-20
5.88581E-03 3.73483E-20
6.02007E-03 3.57483E-20
6.15583E-03 3.42340E-20
6.29310E-03 3.27998E-20
6.43187E-03 3.14406E-20
6.57214E-03 3.01519E-20
6.71392E-03 2.89292E-20
6.85720E-03 2.77685E-20
7.00198E-03 2.66660E-20
7.14827E-03 2.56183E-20
7.29605E-03 2.46222E-20
7.44534E-03 2.36744E-20
7.59612E-03 2.27723E-20
7.97965E-03 2.07002E-20
8.37255E-03 1.88609E-20
8.77480E-03 1.72237E-20
9.18641E-03 1.57623E-20
9.60736E-03 1.44544E-20
1.00376E-02 1.32810E-20
1.04773E-02 1.22257E-20
1.09262E-02 1.12745E-20
1.13844E-02 1.04152E-20
1.18520E-02 9.63734E-21
1.23288E-02 8.93170E-21
1.28150E-02 8.29038E-21
1.33104E-02 7.70641E-21
1.38150E-02 7.17369E-21
1.43290E-02 6.68691E-21
1.48521E-02 6.24131E-21
1.53845E-02 5.83283E-21
1.59262E-02 5.45777E-21
1.64770E-02 5.11282E-21
1.70371E-02 4.79515E-21
1.76063E-02 4.50221E-21
1.81848E-02 4.23167E-21
1.87724E-02 3.98150E-21
1.93692E-02 3.74988E-21
1.99751E-02 3.53517E-21
2.05901E-02 3.33588E-21
2.12143E-02 3.15070E-21
2.18476E-02 2.97844E-21
2.24900E-02 2.81803E-21
2.31415E-02 2.66847E-21
2.38021E-02 2.52891E-21
2.44717E-02 2.39854E-21
2.51504E-02 2.27663E-21
2.58382E-02 2.16253E-21
2.65349E-02 2.05564E-21
2.72407E-02 1.95542E-21
2.79555E-02 1.86136E-21
2.86793E-02 1.77301E-21
2.94120E-02 1.68996E-21
3.01537E-02 1.61183E-21
3.09043E-02 1.53826E-21
3.16639E-02 1.46894E-21
3.24324E-02 1.40357E-21
3.32098E-02 1.34188E-21
3.39961E-02 1.28363E-21
3.47912E-02 1.22857E-21
3.55952E-02 1.17651E-21
3.64081E-02 1.12725E-21
3.72297E-02 1.08060E-21
3.80602E-02 1.03640E-21
3.88995E-02 9.94489E-22
3.97476E-02 9.54732E-22
4.06044E-02 9.16993E-22
4.14700E-02 8.81149E-22
4.23443E-02 8.47083E-22
4.32273E-02 8.14692E-22
4.41190E-02 7.83875E-22
4.50194E-02 7.54540E-22
4.59284E-02 7.26600E-22
4.68461E-02 6.99977E-22
4.87074E-02 6.50384E-22
5.06030E-02 6.05219E-22
5.25328E-02 5.64010E-22
5.44967E-02 5.26342E-22
5.64946E-02 4.91850E-22
5.85262E-02 4.60215E-22
6.05914E-02 4.31151E-22
6.26901E-02 4.04408E-22
6.48222E-02 3.79764E-22
6.69873E-02 3.57020E-22
6.91854E-02 3.36001E-22
7.14163E-02 3.16549E-22
7.36799E-02 2.98524E-22
7.59760E-02 2.81799E-22
7.83043E-02 2.66263E-22
8.06647E-02 2.51812E-22
8.30571E-02 2.38356E-22
8.54812E-02 2.25812E-22
8.79369E-02 2.14106E-22
9.04240E-02 2.03169E-22
9.29422E-02 1.92941E-22
9.54915E-02 1.83367E-22
9.80716E-02 1.74395E-22
1.00682E-01 1.65980E-22
1.03323E-01 1.58081E-22
1.05995E-01 1.50658E-22
1.08696E-01 1.43678E-22
1.11427E-01 1.37108E-22
1.14188E-01 1.30919E-22
1.16978E-01 1.25084E-22
1.19797E-01 1.19579E-22
1.22645E-01 1.14381E-22
1.25522E-01 1.09470E-22
1.28428E-01 1.04825E-22
1.31361E-01 1.00431E-22
1.34323E-01 9.62693E-23
1.37313E-01 9.23262E-23
1.40330E-01 8.85874E-23
1.43375E-01 8.50401E-23
1.46447E-01 8.16724E-23
1.49545E-01 7.84733E-23
1.52671E-01 7.54324E-23
1.55823E-01 7.25403E-23
1.59001E-01 6.97881E-23
1.62205E-01 6.71677E-23
1.65435E-01 6.46713E-23
1.68690E-01 6.22919E-23
1.71970E-01 6.00227E-23
1.75276E-01 5.78575E-23
1.78606E-01 5.57905E-23
1.81961E-01 5.38162E-23
1.85340E-01 5.19298E-23
1.88743E-01 5.01262E-23
1.92169E-01 4.84013E-23
1.95619E-01 4.67508E-23
1.99092E-01 4.51707E-23
2.02589E-01 4.36575E-23
2.06107E-01 4.22076E-23
2.09649E-01 4.08179E-23
2.13212E-01 3.94852E-23
2.16797E-01 3.82068E-23
2.20404E-01 3.69799E-23
2.24032E-01 3.58021E-23
2.27680E-01 3.46709E-23
2.31350E-01 3.35841E-23
2.35040E-01 3.25396E-23
2.38751E-01 3.15354E-23
2.42481E-01 3.05696E-23
2.46231E-01 2.96403E-23
2.50000E-01 2.87459E-23
2.53788E-01 2.78848E-23
2.57595E-01 2.70555E-23
2.61421E-01 2.62566E-23
2.65264E-01 2.54867E-23
2.69126E-01 2.47445E-23
2.73005E-01 2.40289E-23
2.76901E-01 2.33386E-23
2.80814E-01 2.26726E-23
2.84744E-01 2.20298E-23
2.88691E-01 2.14093E-23
2.92653E-01 2.08100E-23
2.96632E-01 2.02312E-23
3.00625E-01 1.96719E-23
3.04634E-01 1.91314E-23
3.08658E-01 1.86089E-23
3.12697E-01 1.81036E-23
3.16749E-01 1.76150E-23
3.20816E-01 1.71423E-23
3.24896E-01 1.66848E-23
3.28990E-01 1.62421E-23
3.33097E-01 1.58134E-23
3.37216E-01 1.53983E-23
3.41348E-01 1.49962E-23
3.45492E-01 1.46067E-23
3.49647E-01 1.42293E-23
3.53814E-01 1.38635E-23
3.57992E-01 1.35088E-23
3.62181E-01 1.31650E-23
3.66381E-01 1.28315E-23
3.70590E-01 1.25080E-23
3.74810E-01 1.21941E-23
3.79039E-01 1.18895E-23
3.83277E-01 1.15939E-23
3.87524E-01 1.13068E-23
3.91780E-01 1.10281E-23
3.96044E-01 1.07575E-23
4.00316E-01 1.04946E-23
4.04596E-01 1.02391E-23
4.08882E-01 9.99094E-24
4.13176E-01 9.74973E-24
4.17476E-01 9.51525E-24
4.21783E-01 9.28729E-24
4.26095E-01 9.06563E-24
4.30413E-01 8.85004E-24
4.34737E-01 8.64034E-24
4.39065E-01 8.43632E-24
4.43398E-01 8.23781E-24
4.47736E-01 8.04462E-24
4.52077E-01 7.85659E-24
4.56422E-01 7.67355E-24
4.60770E-01 7.49534E-24
4.65122E-01 7.32180E-24
4.69476E-01 7.15279E-24
4.73832E-01 6.98816E-24
4.78190E-01 6.82778E-24
4.82550E-01 6.67151E-24
4.86912E-01 6.51923E-24
4.91274E-01 6.37082E-24
4.95637E-01 6.22616E-24
5.00000E-01 6.08513E-24
5.04363E-01 5.94764E-24
5.08726E-01 5.81356E-24
5.13088E-01 5.68281E-24
5.17450E-01 5.55527E-24
5.21810E-01 5.43086E-24
5.26168E-01 5.30949E-24
5.30524E-01 5.19106E-24
5.34878E-01 5.07549E-24
5.39230E-01 4.96270E-24
5.43578E-01 4.85261E-24
5.47923E-01 4.74513E-24
5.52264E-01 4.64021E-24
5.56602E-01 4.53776E-24
5.60935E-01 4.43773E-24
5.65263E-01 4.34003E-24
5.69587E-01 4.24461E-24
5.73905E-01 4.15139E-24
5.78217E-01 4.06033E-24
5.82524E-01 3.97137E-24
5.86824E-01 3.88443E-24
5.91118E-01 3.79948E-24
5.95404E-01 3.71645E-24
5.99684E-01 3.63530E-24
6.03956E-01 3.55598E-24
6.08220E-01 3.47843E-24
6.12476E-01 3.40262E-24
6.16723E-01 3.32849E-24
6.20961E-01 3.25601E-24
6.25190E-01 3.18512E-24
6.29410E-01 3.11580E-24
6.33619E-01 3.04799E-24
6.37819E-01 2.98166E-24
6.42008E-01 2.91677E-24
6.46186E-01 2.85328E-24
6.50353E-01 2.79116E-24
6.54508E-01 2.73039E-24
6.58652E-01 2.67091E-24
6.62784E-01 2.61271E-24
6.66903E-01 2.55574E-24
6.71010E-01 2.49999E-24
6.75104E-01 2.44541E-24
6.79184E-01 2.39199E-24
6.83251E-01 2.33968E-24
6.87303E-01 2.28847E-24
6.91342E-01 2.23833E-24
6.95366E-01 2.18924E-24
6.99375E-01 2.14116E-24
7.03368E-01 2.09408E-24
7.07347E-01 2.04797E-24
7.11309E-01 2.00281E-24
7.15256E-01 1.95858E-24
7.19186E-01 1.91526E-24
7.23099E-01 1.87282E-24
7.26995E-01 1.83125E-24
7.30874E-01 1.79052E-24
7.34736E-01 1.75061E-24
7.38579E-01 1.71151E-24
7.42405E-01 1.67321E-24
7.46212E-01 1.63567E-24
7.50000E-01 1.59889E-24
7.53769E-01 1.56285E-24
7.57519E-01 1.52752E-24
7.61249E-01 1.49291E-24
7.64960E-01 1.45898E-24
7.68650E-01 1.42573E-24
7.72320E-01 1.39314E-24
7.75968E-01 1.36120E-24
7.79596E-01 1.32989E-24
7.83203E-01 1.29921E-24
7.86788E-01 1.26912E-24
7.90351E-01 1.23964E-24
7.93893E-01 1.21073E-24
7.97411E-01 1.18239E-24
8.00908E-01 1.15461E-24
8.04381E-01 1.12738E-24
8.07831E-01 1.10068E-24
8.11257E-01 1.07451E-24
8.14660E-01 1.04885E-24
8.18039E-01 1.02369E-24
8.21394E-01 9.99028E-25
8.24724E-01 9.74848E-25
8.28030E-01 9.51143E-25
8.31310E-01 9.27902E-25
8.34565E-01 9.05117E-25
8.37795E-01 8.82779E-25
8.40999E-01 8.60879E-25
8.44177E-01 8.39409E-25
8.47329E-01 8.18361E-25
8.50455E-01 7.97726E-25
8.53553E-01 7.77497E-25
8.56625E-01 7.57667E-25
8.59670E-01 7.38228E-25
8.62687E-01 7.19172E-25
8.65677E-01 7.00493E-25
8.68639E-01 6.82185E-25
8.71572E-01 6.64239E-25
8.74478E-01 6.46650E-25
8.77355E-01 6.29411E-25
8.80203E-01 6.12517E-25
8.83022E-01 5.95961E-25
8.85812E-01 5.79737E-25
8.88573E-01 5.63840E-25
8.91304E-01 5.48264E-25
8.94005E-01 5.33003E-25
8.96677E-01 5.18053E-25
8.99318E-01 5.03407E-25
9.01928E-01 4.89062E-25
9.04508E-01 4.75011E-25
9.07058E-01 4.61251E-25
9.09576E-01 4.47776E-25
9.12063E-01 4.34582E-25
9.14519E-01 4.21665E-25
9.16943E-01 4.09019E-25
9.19335E-01 3.96642E-25
9.21696E-01 3.84528E-25
9.24024E-01 3.72675E-25
9.26320E-01 3.61077E-25
9.28584E-01 3.49731E-25
9.30815E-01 3.38633E-25
9.33013E-01 3.27781E-25
9.35178E-01 3.17169E-25
9.37310E-01 3.06795E-25
9.39409E-01 2.96655E-25
9.41474E-01 2.86747E-25
9.43505E-01 2.77066E-25
9.45503E-01 2.67611E-25
9.47467E-01 2.58377E-25
9.49397E-01 2.49362E-25
9.51293E-01 2.40563E-25
9.53154E-01 2.31977E-25
9.54981E-01 2.23602E-25
9.56773E-01 2.15435E-25
9.58530E-01 2.07473E-25
9.60252E-01 1.99714E-25
9.61940E-01 1.92156E-25
9.63592E-01 1.84796E-25
9.65209E-01 1.77631E-25
9.66790E-01 1.70661E-25
9.68336E-01 1.63882E-25
9.69846E-01 1.57292E-25
9.71321E-01 1.50890E-25
9.72759E-01 1.44674E-25
9.74162E-01 1.38641E-25
9.75528E-01 1.32790E-25
9.76858E-01 1.27119E-25
9.78152E-01 1.21626E-25
9.79410E-01 1.16310E-25
9.80631E-01 1.11169E-25
9.81815E-01 1.06202E-25
9.82963E-01 1.01406E-25
9.84074E-01 9.67815E-26
9.85148E-01 9.23260E-26
9.86185E-01 8.80385E-26
9.87185E-01 8.39176E-26
9.88148E-01 7.99622E-26
9.89074E-01 7.61710E-26
9.89962E-01 7.25430E-26
9.90814E-01 6.90771E-26
9.91627E-01 6.57722E-26
9.92404E-01 6.26275E-26
9.93143E-01 5.96419E-26
9.93844E-01 5.68146E-26
9.94508E-01 5.41447E-26
9.95134E-01 5.16316E-26
9.95722E-01 4.92744E-26
9.96273E-01 4.70724E-26
9.96786E-01 4.50251E-26
9.97261E-01 4.31319E-26
9.97698E-01 4.13920E-26
9.98097E-01 3.98052E-26
9.98459E-01 3.83709E-26
9.98782E-01 3.70887E-26
9.99067E-01 3.59582E-26
9.99315E-01 3.49791E-26
9.99524E-01 3.41511E-26
9.99695E-01 3.34739E-26
9.99829E-01 3.29475E-26
9.99924E-01 3.25716E-26
9.99981E-01 3.23460E-26
1.00000E+00 3.22709E-26
