 #
 # Subroutine ELSEPA. Elastic scattering of electrons and positrons
 #                    by neutral atoms and positive ions
 #
 # Projectile: electron
 # Kinetic energy = 5.00000E+06 eV = 1.83747E+05 a.u.
 #
 # WARNING: High-energy factorization with free-atom DF screening.
 #          Absorption, polarization and exchange corrections are
 #          switched off.
 #          Phase shifts are calculated for the bare nucleus.
 #          Scattering amplitudes are not evaluated.
 #
 # Element: Pm,  Z =  61,  atomic weight = 1.44913E+02 g/mol
 #
 # Nuclear model: Fermi distribution
 #                Average radius = 5.62021E-13 cm
 #                Skin thickness = 5.46000E-14 cm
 #
 # Number of electrons = 61
 #
 # Total elastic cross section = 7.32642E-18 cm**2 = 2.61631E-01 a0**2
 # 1st transport cross section = 2.01532E-22 cm**2 = 7.19685E-06 a0**2
 # 2nd transport cross section = 5.55523E-22 cm**2 = 1.98381E-05 a0**2
 #
 #
 # Differential cross section:                       MU=(1-COS(THETA))/2
 #
 #  THETA        MU          DCS          DCS        Sherman      error
 #  (deg)                 (cm**2/sr)   (a0**2/sr)    function
 #----------------------------------------------------------------------
0.00000E+00 2.95345E-12
7.61557E-13 2.95341E-12
1.18994E-12 2.95338E-12
1.71346E-12 2.95335E-12
2.33225E-12 2.95331E-12
3.04617E-12 2.95326E-12
3.85530E-12 2.95321E-12
4.75964E-12 2.95316E-12
5.75917E-12 2.95310E-12
6.85391E-12 2.95303E-12
8.04379E-12 2.95296E-12
9.32893E-12 2.95288E-12
1.07092E-11 2.95279E-12
1.21847E-11 2.95270E-12
1.37554E-11 2.95260E-12
1.54213E-11 2.95250E-12
1.71823E-11 2.95239E-12
1.90386E-11 2.95228E-12
2.09900E-11 2.95216E-12
2.30367E-11 2.95203E-12
2.51785E-11 2.95190E-12
2.74156E-11 2.95176E-12
2.97478E-11 2.95162E-12
3.21752E-11 2.95147E-12
3.46979E-11 2.95131E-12
3.73157E-11 2.95115E-12
4.00286E-11 2.95099E-12
4.28368E-11 2.95081E-12
4.57402E-11 2.95063E-12
4.87388E-11 2.95045E-12
5.18325E-11 2.95026E-12
5.50215E-11 2.95006E-12
5.83057E-11 2.94986E-12
6.16850E-11 2.94965E-12
6.51595E-11 2.94944E-12
6.87293E-11 2.94922E-12
7.23943E-11 2.94899E-12
7.61544E-11 2.94876E-12
1.18991E-10 2.94613E-12
1.71347E-10 2.94291E-12
2.33223E-10 2.93912E-12
3.04617E-10 2.93476E-12
3.85531E-10 2.92983E-12
4.75965E-10 2.92433E-12
5.75917E-10 2.91828E-12
6.85389E-10 2.91167E-12
8.04380E-10 2.90451E-12
9.32891E-10 2.89682E-12
1.07092E-09 2.88859E-12
1.21847E-09 2.87983E-12
1.37554E-09 2.87056E-12
1.54213E-09 2.86078E-12
1.71823E-09 2.85050E-12
1.90386E-09 2.83973E-12
2.09900E-09 2.82849E-12
2.30367E-09 2.81677E-12
2.51785E-09 2.80459E-12
2.74156E-09 2.79196E-12
2.97478E-09 2.77890E-12
3.21752E-09 2.76541E-12
3.46978E-09 2.75150E-12
3.73156E-09 2.73719E-12
4.00286E-09 2.72249E-12
4.28368E-09 2.70741E-12
4.57402E-09 2.69197E-12
4.87388E-09 2.67617E-12
5.18326E-09 2.66004E-12
5.50215E-09 2.64357E-12
5.83057E-09 2.62679E-12
6.16850E-09 2.60971E-12
6.51596E-09 2.59235E-12
6.87293E-09 2.57470E-12
7.23942E-09 2.55680E-12
7.61544E-09 2.53864E-12
1.18991E-08 2.34628E-12
1.71347E-08 2.14288E-12
2.33223E-08 1.93923E-12
3.04617E-08 1.74360E-12
3.85531E-08 1.56151E-12
4.75965E-08 1.39604E-12
5.75917E-08 1.24832E-12
6.85389E-08 1.11807E-12
8.04380E-08 1.00414E-12
9.32891E-08 9.04935E-13
1.07092E-07 8.18661E-13
1.21847E-07 7.43562E-13
1.37554E-07 6.78005E-13
1.54213E-07 6.20538E-13
1.71823E-07 5.69908E-13
1.90386E-07 5.25053E-13
2.09900E-07 4.85086E-13
2.30367E-07 4.49272E-13
2.51785E-07 4.17005E-13
2.74156E-07 3.87789E-13
2.97478E-07 3.61216E-13
3.21752E-07 3.36948E-13
3.46978E-07 3.14707E-13
3.73156E-07 2.94263E-13
4.00286E-07 2.75421E-13
4.28368E-07 2.58019E-13
4.57402E-07 2.41917E-13
4.87388E-07 2.26995E-13
5.18325E-07 2.13149E-13
5.50215E-07 2.00287E-13
5.83057E-07 1.88329E-13
6.16850E-07 1.77203E-13
6.51596E-07 1.66843E-13
6.87293E-07 1.57192E-13
7.23942E-07 1.48196E-13
7.61543E-07 1.39806E-13
1.18991E-06 8.09557E-14
1.71347E-06 4.99896E-14
2.33223E-06 3.25889E-14
3.04617E-06 2.21388E-14
3.85531E-06 1.55115E-14
4.75964E-06 1.11385E-14
5.75916E-06 8.17045E-15
6.85388E-06 6.11240E-15
8.04378E-06 4.65898E-15
9.32888E-06 3.61465E-15
1.07092E-05 2.85126E-15
1.21846E-05 2.28354E-15
1.37553E-05 1.85408E-15
1.54212E-05 1.52383E-15
1.71822E-05 1.26591E-15
1.90385E-05 1.06157E-15
2.09899E-05 8.97578E-16
2.30365E-05 7.64435E-16
2.51783E-05 6.55227E-16
2.74153E-05 5.64844E-16
2.97475E-05 4.89448E-16
3.21749E-05 4.26116E-16
3.46974E-05 3.72589E-16
3.73152E-05 3.27101E-16
4.00281E-05 2.88253E-16
4.28362E-05 2.54926E-16
4.57395E-05 2.26216E-16
4.87380E-05 2.01388E-16
5.18317E-05 1.79838E-16
5.50205E-05 1.61068E-16
5.83045E-05 1.44667E-16
6.16838E-05 1.30288E-16
6.51582E-05 1.17646E-16
6.87277E-05 1.06496E-16
7.23925E-05 9.66345E-17
7.61524E-05 8.78892E-17
9.21439E-05 6.14288E-17
1.09658E-04 4.42461E-17
1.28695E-04 3.26946E-17
1.49255E-04 2.46924E-17
1.71338E-04 1.90029E-17
1.94942E-04 1.48656E-17
2.20070E-04 1.17973E-17
2.46720E-04 9.48203E-18
2.74892E-04 7.70805E-18
3.04586E-04 6.33012E-18
3.35803E-04 5.24663E-18
3.68542E-04 4.38517E-18
4.02802E-04 3.69332E-18
4.38585E-04 3.13256E-18
4.75889E-04 2.67421E-18
5.14715E-04 2.29665E-18
5.55063E-04 1.98340E-18
5.96931E-04 1.72176E-18
6.40321E-04 1.50188E-18
6.85233E-04 1.31602E-18
7.31665E-04 1.15806E-18
7.79618E-04 1.02313E-18
8.29092E-04 9.07309E-19
8.80086E-04 8.07451E-19
9.32601E-04 7.20987E-19
9.86636E-04 6.45818E-19
1.04219E-03 5.80218E-19
1.09927E-03 5.22762E-19
1.15786E-03 4.72266E-19
1.21797E-03 4.27742E-19
1.27961E-03 3.88361E-19
1.34276E-03 3.53426E-19
1.40743E-03 3.22347E-19
1.47362E-03 2.94624E-19
1.54133E-03 2.69830E-19
1.61056E-03 2.47601E-19
1.68131E-03 2.27625E-19
1.75357E-03 2.09633E-19
1.82735E-03 1.93392E-19
1.90265E-03 1.78702E-19
1.97947E-03 1.65387E-19
2.05780E-03 1.53296E-19
2.13765E-03 1.42295E-19
2.21902E-03 1.32269E-19
2.30190E-03 1.23115E-19
2.38630E-03 1.14744E-19
2.47222E-03 1.07077E-19
2.55965E-03 1.00043E-19
2.64859E-03 9.35801E-20
2.73905E-03 8.76341E-20
2.83103E-03 8.21557E-20
2.92452E-03 7.71015E-20
3.01952E-03 7.24324E-20
3.11604E-03 6.81136E-20
3.21407E-03 6.41141E-20
3.31362E-03 6.04057E-20
3.41468E-03 5.69632E-20
3.51725E-03 5.37643E-20
3.62133E-03 5.07883E-20
3.72692E-03 4.80167E-20
3.83403E-03 4.54331E-20
3.94265E-03 4.30219E-20
4.05278E-03 4.07699E-20
4.16442E-03 3.86644E-20
4.27757E-03 3.66940E-20
4.39223E-03 3.48486E-20
4.50840E-03 3.31186E-20
4.62608E-03 3.14954E-20
4.74527E-03 2.99713E-20
4.86597E-03 2.85389E-20
4.98817E-03 2.71918E-20
5.11188E-03 2.59240E-20
5.23711E-03 2.47297E-20
5.36383E-03 2.36041E-20
5.49207E-03 2.25423E-20
5.62181E-03 2.15401E-20
5.75306E-03 2.05934E-20
5.88581E-03 1.96986E-20
6.02007E-03 1.88524E-20
6.15583E-03 1.80515E-20
6.29310E-03 1.72931E-20
6.43187E-03 1.65745E-20
6.57214E-03 1.58932E-20
6.71392E-03 1.52469E-20
6.85720E-03 1.46335E-20
7.00198E-03 1.40509E-20
7.14827E-03 1.34972E-20
7.29605E-03 1.29709E-20
7.44534E-03 1.24703E-20
7.59612E-03 1.19938E-20
7.97965E-03 1.08994E-20
8.37255E-03 9.92839E-21
8.77480E-03 9.06424E-21
9.18641E-03 8.29310E-21
9.60736E-03 7.60318E-21
1.00376E-02 6.98435E-21
1.04773E-02 6.42797E-21
1.09262E-02 5.92658E-21
1.13844E-02 5.47375E-21
1.18520E-02 5.06391E-21
1.23288E-02 4.69223E-21
1.28150E-02 4.35450E-21
1.33104E-02 4.04704E-21
1.38150E-02 3.76663E-21
1.43290E-02 3.51044E-21
1.48521E-02 3.27600E-21
1.53845E-02 3.06111E-21
1.59262E-02 2.86382E-21
1.64770E-02 2.68243E-21
1.70371E-02 2.51541E-21
1.76063E-02 2.36141E-21
1.81848E-02 2.21922E-21
1.87724E-02 2.08775E-21
1.93692E-02 1.96605E-21
1.99751E-02 1.85324E-21
2.05901E-02 1.74856E-21
2.12143E-02 1.65131E-21
2.18476E-02 1.56085E-21
2.24900E-02 1.47662E-21
2.31415E-02 1.39811E-21
2.38021E-02 1.32485E-21
2.44717E-02 1.25642E-21
2.51504E-02 1.19244E-21
2.58382E-02 1.13257E-21
2.65349E-02 1.07648E-21
2.72407E-02 1.02390E-21
2.79555E-02 9.74563E-22
2.86793E-02 9.28224E-22
2.94120E-02 8.84667E-22
3.01537E-02 8.43692E-22
3.09043E-02 8.05115E-22
3.16639E-02 7.68768E-22
3.24324E-02 7.34497E-22
3.32098E-02 7.02158E-22
3.39961E-02 6.71622E-22
3.47912E-02 6.42766E-22
3.55952E-02 6.15481E-22
3.64081E-02 5.89662E-22
3.72297E-02 5.65217E-22
3.80602E-02 5.42056E-22
3.88995E-02 5.20099E-22
3.97476E-02 4.99270E-22
4.06044E-02 4.79499E-22
4.14700E-02 4.60722E-22
4.23443E-02 4.42879E-22
4.32273E-02 4.25913E-22
4.41190E-02 4.09773E-22
4.50194E-02 3.94410E-22
4.59284E-02 3.79779E-22
4.68461E-02 3.65838E-22
4.87074E-02 3.39871E-22
5.06030E-02 3.16226E-22
5.25328E-02 2.94654E-22
5.44967E-02 2.74937E-22
5.64946E-02 2.56886E-22
5.85262E-02 2.40330E-22
6.05914E-02 2.25122E-22
6.26901E-02 2.11130E-22
6.48222E-02 1.98236E-22
6.69873E-02 1.86339E-22
6.91854E-02 1.75344E-22
7.14163E-02 1.65171E-22
7.36799E-02 1.55744E-22
7.59760E-02 1.46998E-22
7.83043E-02 1.38874E-22
8.06647E-02 1.31319E-22
8.30571E-02 1.24284E-22
8.54812E-02 1.17727E-22
8.79369E-02 1.11608E-22
9.04240E-02 1.05892E-22
9.29422E-02 1.00547E-22
9.54915E-02 9.55432E-23
9.80716E-02 9.08553E-23
1.00682E-01 8.64587E-23
1.03323E-01 8.23317E-23
1.05995E-01 7.84543E-23
1.08696E-01 7.48082E-23
1.11427E-01 7.13767E-23
1.14188E-01 6.81444E-23
1.16978E-01 6.50973E-23
1.19797E-01 6.22228E-23
1.22645E-01 5.95088E-23
1.25522E-01 5.69447E-23
1.28428E-01 5.45203E-23
1.31361E-01 5.22263E-23
1.34323E-01 5.00543E-23
1.37313E-01 4.79964E-23
1.40330E-01 4.60453E-23
1.43375E-01 4.41944E-23
1.46447E-01 4.24374E-23
1.49545E-01 4.07685E-23
1.52671E-01 3.91823E-23
1.55823E-01 3.76738E-23
1.59001E-01 3.62384E-23
1.62205E-01 3.48719E-23
1.65435E-01 3.35702E-23
1.68690E-01 3.23296E-23
1.71970E-01 3.11466E-23
1.75276E-01 3.00179E-23
1.78606E-01 2.89405E-23
1.81961E-01 2.79116E-23
1.85340E-01 2.69285E-23
1.88743E-01 2.59888E-23
1.92169E-01 2.50901E-23
1.95619E-01 2.42303E-23
1.99092E-01 2.34073E-23
2.02589E-01 2.26191E-23
2.06107E-01 2.18640E-23
2.09649E-01 2.11403E-23
2.13212E-01 2.04465E-23
2.16797E-01 1.97809E-23
2.20404E-01 1.91423E-23
2.24032E-01 1.85293E-23
2.27680E-01 1.79406E-23
2.31350E-01 1.73751E-23
2.35040E-01 1.68316E-23
2.38751E-01 1.63092E-23
2.42481E-01 1.58067E-23
2.46231E-01 1.53234E-23
2.50000E-01 1.48583E-23
2.53788E-01 1.44105E-23
2.57595E-01 1.39794E-23
2.61421E-01 1.35640E-23
2.65264E-01 1.31639E-23
2.69126E-01 1.27781E-23
2.73005E-01 1.24062E-23
2.76901E-01 1.20476E-23
2.80814E-01 1.17015E-23
2.84744E-01 1.13676E-23
2.88691E-01 1.10453E-23
2.92653E-01 1.07341E-23
2.96632E-01 1.04335E-23
3.00625E-01 1.01432E-23
3.04634E-01 9.86259E-24
3.08658E-01 9.59138E-24
3.12697E-01 9.32916E-24
3.16749E-01 9.07558E-24
3.20816E-01 8.83030E-24
3.24896E-01 8.59299E-24
3.28990E-01 8.36333E-24
3.33097E-01 8.14103E-24
3.37216E-01 7.92577E-24
3.41348E-01 7.71730E-24
3.45492E-01 7.51536E-24
3.49647E-01 7.31973E-24
3.53814E-01 7.13015E-24
3.57992E-01 6.94639E-24
3.62181E-01 6.76822E-24
3.66381E-01 6.59545E-24
3.70590E-01 6.42788E-24
3.74810E-01 6.26532E-24
3.79039E-01 6.10760E-24
3.83277E-01 5.95454E-24
3.87524E-01 5.80596E-24
3.91780E-01 5.66171E-24
3.96044E-01 5.52164E-24
4.00316E-01 5.38560E-24
4.04596E-01 5.25346E-24
4.08882E-01 5.12507E-24
4.13176E-01 5.00031E-24
4.17476E-01 4.87906E-24
4.21783E-01 4.76120E-24
4.26095E-01 4.64660E-24
4.30413E-01 4.53517E-24
4.34737E-01 4.42679E-24
4.39065E-01 4.32138E-24
4.43398E-01 4.21882E-24
4.47736E-01 4.11903E-24
4.52077E-01 4.02192E-24
4.56422E-01 3.92740E-24
4.60770E-01 3.83538E-24
4.65122E-01 3.74579E-24
4.69476E-01 3.65856E-24
4.73832E-01 3.57360E-24
4.78190E-01 3.49084E-24
4.82550E-01 3.41023E-24
4.86912E-01 3.33168E-24
4.91274E-01 3.25514E-24
4.95637E-01 3.18055E-24
5.00000E-01 3.10784E-24
5.04363E-01 3.03696E-24
5.08726E-01 2.96786E-24
5.13088E-01 2.90048E-24
5.17450E-01 2.83477E-24
5.21810E-01 2.77068E-24
5.26168E-01 2.70816E-24
5.30524E-01 2.64717E-24
5.34878E-01 2.58767E-24
5.39230E-01 2.52960E-24
5.43578E-01 2.47294E-24
5.47923E-01 2.41763E-24
5.52264E-01 2.36364E-24
5.56602E-01 2.31094E-24
5.60935E-01 2.25948E-24
5.65263E-01 2.20924E-24
5.69587E-01 2.16017E-24
5.73905E-01 2.11225E-24
5.78217E-01 2.06544E-24
5.82524E-01 2.01971E-24
5.86824E-01 1.97504E-24
5.91118E-01 1.93139E-24
5.95404E-01 1.88875E-24
5.99684E-01 1.84707E-24
6.03956E-01 1.80634E-24
6.08220E-01 1.76652E-24
6.12476E-01 1.72760E-24
6.16723E-01 1.68956E-24
6.20961E-01 1.65236E-24
6.25190E-01 1.61599E-24
6.29410E-01 1.58043E-24
6.33619E-01 1.54565E-24
6.37819E-01 1.51163E-24
6.42008E-01 1.47836E-24
6.46186E-01 1.44582E-24
6.50353E-01 1.41398E-24
6.54508E-01 1.38284E-24
6.58652E-01 1.35236E-24
6.62784E-01 1.32255E-24
6.66903E-01 1.29337E-24
6.71010E-01 1.26482E-24
6.75104E-01 1.23687E-24
6.79184E-01 1.20952E-24
6.83251E-01 1.18275E-24
6.87303E-01 1.15654E-24
6.91342E-01 1.13089E-24
6.95366E-01 1.10577E-24
6.99375E-01 1.08118E-24
7.03368E-01 1.05710E-24
7.07347E-01 1.03353E-24
7.11309E-01 1.01044E-24
7.15256E-01 9.87829E-25
7.19186E-01 9.65687E-25
7.23099E-01 9.44001E-25
7.26995E-01 9.22760E-25
7.30874E-01 9.01954E-25
7.34736E-01 8.81574E-25
7.38579E-01 8.61610E-25
7.42405E-01 8.42051E-25
7.46212E-01 8.22890E-25
7.50000E-01 8.04118E-25
7.53769E-01 7.85725E-25
7.57519E-01 7.67703E-25
7.61249E-01 7.50044E-25
7.64960E-01 7.32740E-25
7.68650E-01 7.15784E-25
7.72320E-01 6.99168E-25
7.75968E-01 6.82884E-25
7.79596E-01 6.66925E-25
7.83203E-01 6.51283E-25
7.86788E-01 6.35954E-25
7.90351E-01 6.20930E-25
7.93893E-01 6.06204E-25
7.97411E-01 5.91771E-25
8.00908E-01 5.77624E-25
8.04381E-01 5.63757E-25
8.07831E-01 5.50165E-25
8.11257E-01 5.36842E-25
8.14660E-01 5.23783E-25
8.18039E-01 5.10982E-25
8.21394E-01 4.98434E-25
8.24724E-01 4.86134E-25
8.28030E-01 4.74077E-25
8.31310E-01 4.62258E-25
8.34565E-01 4.50672E-25
8.37795E-01 4.39316E-25
8.40999E-01 4.28184E-25
8.44177E-01 4.17272E-25
8.47329E-01 4.06576E-25
8.50455E-01 3.96092E-25
8.53553E-01 3.85816E-25
8.56625E-01 3.75743E-25
8.59670E-01 3.65871E-25
8.62687E-01 3.56194E-25
8.65677E-01 3.46711E-25
8.68639E-01 3.37417E-25
8.71572E-01 3.28308E-25
8.74478E-01 3.19382E-25
8.77355E-01 3.10634E-25
8.80203E-01 3.02063E-25
8.83022E-01 2.93664E-25
8.85812E-01 2.85435E-25
8.88573E-01 2.77373E-25
8.91304E-01 2.69475E-25
8.94005E-01 2.61737E-25
8.96677E-01 2.54158E-25
8.99318E-01 2.46735E-25
9.01928E-01 2.39464E-25
9.04508E-01 2.32344E-25
9.07058E-01 2.25372E-25
9.09576E-01 2.18545E-25
9.12063E-01 2.11862E-25
9.14519E-01 2.05319E-25
9.16943E-01 1.98915E-25
9.19335E-01 1.92647E-25
9.21696E-01 1.86514E-25
9.24024E-01 1.80513E-25
9.26320E-01 1.74642E-25
9.28584E-01 1.68900E-25
9.30815E-01 1.63284E-25
9.33013E-01 1.57792E-25
9.35178E-01 1.52423E-25
9.37310E-01 1.47174E-25
9.39409E-01 1.42045E-25
9.41474E-01 1.37033E-25
9.43505E-01 1.32137E-25
9.45503E-01 1.27356E-25
9.47467E-01 1.22687E-25
9.49397E-01 1.18129E-25
9.51293E-01 1.13680E-25
9.53154E-01 1.09340E-25
9.54981E-01 1.05107E-25
9.56773E-01 1.00979E-25
9.58530E-01 9.69558E-26
9.60252E-01 9.30352E-26
9.61940E-01 8.92162E-26
9.63592E-01 8.54977E-26
9.65209E-01 8.18784E-26
9.66790E-01 7.83573E-26
9.68336E-01 7.49333E-26
9.69846E-01 7.16052E-26
9.71321E-01 6.83721E-26
9.72759E-01 6.52328E-26
9.74162E-01 6.21866E-26
9.75528E-01 5.92324E-26
9.76858E-01 5.63692E-26
9.78152E-01 5.35963E-26
9.79410E-01 5.09128E-26
9.80631E-01 4.83178E-26
9.81815E-01 4.58106E-26
9.82963E-01 4.33904E-26
9.84074E-01 4.10564E-26
9.85148E-01 3.88080E-26
9.86185E-01 3.66445E-26
9.87185E-01 3.45651E-26
9.88148E-01 3.25694E-26
9.89074E-01 3.06566E-26
9.89962E-01 2.88262E-26
9.90814E-01 2.70777E-26
9.91627E-01 2.54105E-26
9.92404E-01 2.38241E-26
9.93143E-01 2.23181E-26
9.93844E-01 2.08920E-26
9.94508E-01 1.95454E-26
9.95134E-01 1.82778E-26
9.95722E-01 1.70890E-26
9.96273E-01 1.59785E-26
9.96786E-01 1.49460E-26
9.97261E-01 1.39911E-26
9.97698E-01 1.31138E-26
9.98097E-01 1.23136E-26
9.98459E-01 1.15903E-26
9.98782E-01 1.09437E-26
9.99067E-01 1.03736E-26
9.99315E-01 9.87989E-27
9.99524E-01 9.46238E-27
9.99695E-01 9.12094E-27
9.99829E-01 8.85549E-27
9.99924E-01 8.66593E-27
9.99981E-01 8.55222E-27
1.00000E+00 8.51432E-27
