 #
 # Subroutine ELSEPA. Elastic scattering of electrons and positrons
 #                    by neutral atoms and positive ions
 #
 # Projectile: electron
 # Kinetic energy = 8.00000E+07 eV = 2.93995E+06 a.u.
 #
 # WARNING: High-energy factorization with free-atom DF screening.
 #          Absorption, polarization and exchange corrections are
 #          switched off.
 #          Phase shifts are calculated for the bare nucleus.
 #          Scattering amplitudes are not evaluated.
 #
 # Element: Pm,  Z =  61,  atomic weight = 1.44913E+02 g/mol
 #
 # Nuclear model: Fermi distribution
 #                Average radius = 5.62021E-13 cm
 #                Skin thickness = 5.46000E-14 cm
 #
 # Number of electrons = 61
 #
 # Total elastic cross section = 7.24774E-18 cm**2 = 2.58822E-01 a0**2
 # 1st transport cross section = 1.12158E-24 cm**2 = 4.00523E-08 a0**2
 # 2nd transport cross section = 3.32614E-24 cm**2 = 1.18778E-07 a0**2
 #
 #
 # Differential cross section:                       MU=(1-COS(THETA))/2
 #
 #  THETA        MU          DCS          DCS        Sherman      error
 #  (deg)                 (cm**2/sr)   (a0**2/sr)    function
 #----------------------------------------------------------------------
0.00000E+00 6.30347E-10
7.61557E-13 6.28189E-10
1.18994E-12 6.26982E-10
1.71346E-12 6.25513E-10
2.33225E-12 6.23784E-10
3.04617E-12 6.21798E-10
3.85530E-12 6.19561E-10
4.75964E-12 6.17077E-10
5.75917E-12 6.14349E-10
6.85391E-12 6.11386E-10
8.04379E-12 6.08190E-10
9.32893E-12 6.04771E-10
1.07092E-11 6.01132E-10
1.21847E-11 5.97284E-10
1.37554E-11 5.93231E-10
1.54213E-11 5.88982E-10
1.71823E-11 5.84545E-10
1.90386E-11 5.79928E-10
2.09900E-11 5.75139E-10
2.30367E-11 5.70187E-10
2.51785E-11 5.65080E-10
2.74156E-11 5.59827E-10
2.97478E-11 5.54437E-10
3.21752E-11 5.48918E-10
3.46979E-11 5.43281E-10
3.73157E-11 5.37580E-10
4.00286E-11 5.31779E-10
4.28368E-11 5.25864E-10
4.57402E-11 5.19843E-10
4.87388E-11 5.13723E-10
5.18325E-11 5.07512E-10
5.50215E-11 5.01216E-10
5.83057E-11 4.95006E-10
6.16850E-11 4.88740E-10
6.51595E-11 4.82412E-10
6.87293E-11 4.76029E-10
7.23943E-11 4.69597E-10
7.61544E-11 4.63122E-10
1.18991E-10 3.99720E-10
1.71347E-10 3.40720E-10
2.33223E-10 2.89133E-10
3.04617E-10 2.45627E-10
3.85531E-10 2.09747E-10
4.75965E-10 1.80499E-10
5.75917E-10 1.56610E-10
6.85389E-10 1.37059E-10
8.04380E-10 1.20852E-10
9.32891E-10 1.07290E-10
1.07092E-09 9.57933E-11
1.21847E-09 8.59163E-11
1.37554E-09 7.73709E-11
1.54213E-09 6.98761E-11
1.71823E-09 6.32869E-11
1.90386E-09 5.74324E-11
2.09900E-09 5.22268E-11
2.30367E-09 4.75684E-11
2.51785E-09 4.33950E-11
2.74156E-09 3.96465E-11
2.97478E-09 3.62715E-11
3.21752E-09 3.32340E-11
3.46978E-09 3.04895E-11
3.73156E-09 2.78770E-11
4.00286E-09 2.55315E-11
4.28368E-09 2.34723E-11
4.57402E-09 2.16575E-11
4.87388E-09 2.00521E-11
5.18326E-09 1.86270E-11
5.50215E-09 1.73575E-11
5.83057E-09 1.60559E-11
6.16850E-09 1.48819E-11
6.51596E-09 1.38320E-11
6.87293E-09 1.28903E-11
7.23942E-09 1.20433E-11
7.61544E-09 1.12794E-11
1.18991E-08 6.05150E-12
1.71347E-08 3.52989E-12
2.33223E-08 2.17418E-12
3.04617E-08 1.40078E-12
3.85531E-08 9.40126E-13
4.75965E-08 6.54738E-13
5.75917E-08 4.71726E-13
6.85389E-08 3.49728E-13
8.04380E-08 2.65766E-13
9.32891E-08 2.05983E-13
1.07092E-07 1.62293E-13
1.21847E-07 1.29638E-13
1.37554E-07 1.04864E-13
1.54213E-07 8.56587E-14
1.71823E-07 7.06156E-14
1.90386E-07 5.86683E-14
2.09900E-07 4.91150E-14
2.30367E-07 4.14073E-14
2.51785E-07 3.51441E-14
2.74156E-07 3.00146E-14
2.97478E-07 2.57811E-14
3.21752E-07 2.22651E-14
3.46978E-07 1.93256E-14
3.73156E-07 1.68483E-14
4.00286E-07 1.47621E-14
4.28368E-07 1.29986E-14
4.57402E-07 1.14801E-14
4.87388E-07 1.01832E-14
5.18325E-07 9.06628E-15
5.50215E-07 8.09514E-15
5.83057E-07 7.25417E-15
6.16850E-07 6.51901E-15
6.51596E-07 5.87452E-15
6.87293E-07 5.30991E-15
7.23942E-07 4.80968E-15
7.61543E-07 4.36782E-15
1.18991E-06 1.86092E-15
1.71347E-06 9.21056E-16
2.33223E-06 5.05833E-16
3.04617E-06 3.00138E-16
3.85531E-06 1.89070E-16
4.75964E-06 1.24918E-16
5.75916E-06 8.58102E-17
6.85388E-06 6.08814E-17
8.04378E-06 4.43860E-17
9.32888E-06 3.31207E-17
1.07092E-05 2.52151E-17
1.21846E-05 1.95348E-17
1.37553E-05 1.53683E-17
1.54212E-05 1.22562E-17
1.71822E-05 9.89362E-18
1.90385E-05 8.07061E-18
2.09899E-05 6.65455E-18
2.30365E-05 5.53523E-18
2.51783E-05 4.64069E-18
2.74153E-05 3.91900E-18
2.97475E-05 3.33190E-18
3.21749E-05 2.85069E-18
3.46974E-05 2.45347E-18
3.73152E-05 2.12332E-18
4.00281E-05 1.84705E-18
4.28362E-05 1.61438E-18
4.57395E-05 1.41721E-18
4.87380E-05 1.24918E-18
5.18317E-05 1.10526E-18
5.50205E-05 9.81438E-19
5.83045E-05 8.74453E-19
6.16838E-05 7.81666E-19
6.51582E-05 7.00886E-19
6.87277E-05 6.30303E-19
7.23925E-05 5.68403E-19
7.61524E-05 5.14240E-19
9.21439E-05 3.51891E-19
1.09658E-04 2.48856E-19
1.28695E-04 1.80955E-19
1.49255E-04 1.34715E-19
1.71338E-04 1.02363E-19
1.94942E-04 7.91713E-20
2.20070E-04 6.21983E-20
2.46720E-04 4.95451E-20
2.74892E-04 3.99556E-20
3.04586E-04 3.25816E-20
3.35803E-04 2.68352E-20
3.68542E-04 2.23039E-20
4.02802E-04 1.86915E-20
4.38585E-04 1.57831E-20
4.75889E-04 1.34202E-20
5.14715E-04 1.14844E-20
5.55063E-04 9.88607E-21
5.96931E-04 8.55708E-21
6.40321E-04 7.44462E-21
6.85233E-04 6.50769E-21
7.31665E-04 5.71401E-21
7.79618E-04 5.03806E-21
8.29092E-04 4.45946E-21
8.80086E-04 3.96183E-21
9.32601E-04 3.53193E-21
9.86636E-04 3.15897E-21
1.04219E-03 2.83413E-21
1.09927E-03 2.55012E-21
1.15786E-03 2.30094E-21
1.21797E-03 2.08156E-21
1.27961E-03 1.88782E-21
1.34276E-03 1.71617E-21
1.40743E-03 1.56367E-21
1.47362E-03 1.42780E-21
1.54133E-03 1.30643E-21
1.61056E-03 1.19772E-21
1.68131E-03 1.10014E-21
1.75357E-03 1.01234E-21
1.82735E-03 9.33151E-22
1.90265E-03 8.61589E-22
1.97947E-03 7.96783E-22
2.05780E-03 7.37981E-22
2.13765E-03 6.84525E-22
2.21902E-03 6.35841E-22
2.30190E-03 5.91426E-22
2.38630E-03 5.50838E-22
2.47222E-03 5.13685E-22
2.55965E-03 4.79624E-22
2.64859E-03 4.48351E-22
2.73905E-03 4.19595E-22
2.83103E-03 3.93116E-22
2.92452E-03 3.68702E-22
3.01952E-03 3.46160E-22
3.11604E-03 3.25321E-22
3.21407E-03 3.06032E-22
3.31362E-03 2.88157E-22
3.41468E-03 2.71572E-22
3.51725E-03 2.56168E-22
3.62133E-03 2.41844E-22
3.72692E-03 2.28508E-22
3.83403E-03 2.16082E-22
3.94265E-03 2.04491E-22
4.05278E-03 1.93670E-22
4.16442E-03 1.83556E-22
4.27757E-03 1.74096E-22
4.39223E-03 1.65239E-22
4.50840E-03 1.56939E-22
4.62608E-03 1.49155E-22
4.74527E-03 1.41848E-22
4.86597E-03 1.34984E-22
4.98817E-03 1.28531E-22
5.11188E-03 1.22460E-22
5.23711E-03 1.16743E-22
5.36383E-03 1.11357E-22
5.49207E-03 1.06277E-22
5.62181E-03 1.01485E-22
5.75306E-03 9.69592E-23
5.88581E-03 9.26833E-23
6.02007E-03 8.86405E-23
6.15583E-03 8.48158E-23
6.29310E-03 8.11951E-23
6.43187E-03 7.77654E-23
6.57214E-03 7.45148E-23
6.71392E-03 7.14321E-23
6.85720E-03 6.85070E-23
7.00198E-03 6.57298E-23
7.14827E-03 6.30918E-23
7.29605E-03 6.05845E-23
7.44534E-03 5.82002E-23
7.59612E-03 5.59318E-23
7.97965E-03 5.07248E-23
8.37255E-03 4.61079E-23
8.77480E-03 4.20026E-23
9.18641E-03 3.83422E-23
9.60736E-03 3.50699E-23
1.00376E-02 3.21373E-23
1.04773E-02 2.95029E-23
1.09262E-02 2.71310E-23
1.13844E-02 2.49908E-23
1.18520E-02 2.30555E-23
1.23288E-02 2.13022E-23
1.28150E-02 1.97106E-23
1.33104E-02 1.82632E-23
1.38150E-02 1.69445E-23
1.43290E-02 1.57411E-23
1.48521E-02 1.46412E-23
1.53845E-02 1.36341E-23
1.59262E-02 1.27107E-23
1.64770E-02 1.18628E-23
1.70371E-02 1.10831E-23
1.76063E-02 1.03652E-23
1.81848E-02 9.70328E-24
1.87724E-02 9.09218E-24
1.93692E-02 8.52734E-24
1.99751E-02 8.00463E-24
2.05901E-02 7.52035E-24
2.12143E-02 7.07117E-24
2.18476E-02 6.65411E-24
2.24900E-02 6.26646E-24
2.31415E-02 5.90578E-24
2.38021E-02 5.56988E-24
2.44717E-02 5.25674E-24
2.51504E-02 4.96457E-24
2.58382E-02 4.69170E-24
2.65349E-02 4.43665E-24
2.72407E-02 4.19805E-24
2.79555E-02 3.97465E-24
2.86793E-02 3.76532E-24
2.94120E-02 3.56903E-24
3.01537E-02 3.38482E-24
3.09043E-02 3.21182E-24
3.16639E-02 3.04923E-24
3.24324E-02 2.89632E-24
3.32098E-02 2.75243E-24
3.39961E-02 2.61692E-24
3.47912E-02 2.48923E-24
3.55952E-02 2.36883E-24
3.64081E-02 2.25523E-24
3.72297E-02 2.14799E-24
3.80602E-02 2.04670E-24
3.88995E-02 1.95097E-24
3.97476E-02 1.86044E-24
4.06044E-02 1.77479E-24
4.14700E-02 1.69371E-24
4.23443E-02 1.61692E-24
4.32273E-02 1.54416E-24
4.41190E-02 1.47518E-24
4.50194E-02 1.40975E-24
4.59284E-02 1.34766E-24
4.68461E-02 1.28872E-24
4.87074E-02 1.17954E-24
5.06030E-02 1.08089E-24
5.25328E-02 9.91600E-25
5.44967E-02 9.10663E-25
5.64946E-02 8.37187E-25
5.85262E-02 7.70388E-25
6.05914E-02 7.09576E-25
6.26901E-02 6.54144E-25
6.48222E-02 6.03551E-25
6.69873E-02 5.57320E-25
6.91854E-02 5.15026E-25
7.14163E-02 4.76292E-25
7.36799E-02 4.40781E-25
7.59760E-02 4.08190E-25
7.83043E-02 3.78252E-25
8.06647E-02 3.50724E-25
8.30571E-02 3.25390E-25
8.54812E-02 3.02055E-25
8.79369E-02 2.80543E-25
9.04240E-02 2.60697E-25
9.29422E-02 2.42372E-25
9.54915E-02 2.25442E-25
9.80716E-02 2.09787E-25
1.00682E-01 1.95302E-25
1.03323E-01 1.81892E-25
1.05995E-01 1.69468E-25
1.08696E-01 1.57952E-25
1.11427E-01 1.47270E-25
1.14188E-01 1.37357E-25
1.16978E-01 1.28153E-25
1.19797E-01 1.19602E-25
1.22645E-01 1.11655E-25
1.25522E-01 1.04265E-25
1.28428E-01 9.73898E-26
1.31361E-01 9.09911E-26
1.34323E-01 8.50332E-26
1.37313E-01 7.94837E-26
1.40330E-01 7.43125E-26
1.43375E-01 6.94921E-26
1.46447E-01 6.49971E-26
1.49545E-01 6.08041E-26
1.52671E-01 5.68916E-26
1.55823E-01 5.32397E-26
1.59001E-01 4.98300E-26
1.62205E-01 4.66455E-26
1.65435E-01 4.36707E-26
1.68690E-01 4.08909E-26
1.71970E-01 3.82927E-26
1.75276E-01 3.58638E-26
1.78606E-01 3.35925E-26
1.81961E-01 3.14682E-26
1.85340E-01 2.94810E-26
1.88743E-01 2.76217E-26
1.92169E-01 2.58818E-26
1.95619E-01 2.42532E-26
1.99092E-01 2.27287E-26
2.02589E-01 2.13013E-26
2.06107E-01 1.99647E-26
2.09649E-01 1.87130E-26
2.13212E-01 1.75406E-26
2.16797E-01 1.64423E-26
2.20404E-01 1.54133E-26
2.24032E-01 1.44493E-26
2.27680E-01 1.35459E-26
2.31350E-01 1.26994E-26
2.35040E-01 1.19060E-26
2.38751E-01 1.11624E-26
2.42481E-01 1.04654E-26
2.46231E-01 9.81206E-27
2.50000E-01 9.19960E-27
2.53788E-01 8.62544E-27
2.57595E-01 8.08717E-27
2.61421E-01 7.58252E-27
2.65264E-01 7.10939E-27
2.69126E-01 6.66579E-27
2.73005E-01 6.24987E-27
2.76901E-01 5.85991E-27
2.80814E-01 5.49428E-27
2.84744E-01 5.15146E-27
2.88691E-01 4.83003E-27
2.92653E-01 4.52867E-27
2.96632E-01 4.24611E-27
3.00625E-01 3.98120E-27
3.04634E-01 3.73283E-27
3.08658E-01 3.49999E-27
3.12697E-01 3.28169E-27
3.16749E-01 3.07706E-27
3.20816E-01 2.88523E-27
3.24896E-01 2.70541E-27
3.28990E-01 2.53686E-27
3.33097E-01 2.37888E-27
3.37216E-01 2.23081E-27
3.41348E-01 2.09205E-27
3.45492E-01 1.96201E-27
3.49647E-01 1.84014E-27
3.53814E-01 1.72596E-27
3.57992E-01 1.61897E-27
3.62181E-01 1.51873E-27
3.66381E-01 1.42482E-27
3.70590E-01 1.33684E-27
3.74810E-01 1.25444E-27
3.79039E-01 1.17725E-27
3.83277E-01 1.10496E-27
3.87524E-01 1.03725E-27
3.91780E-01 9.73845E-28
3.96044E-01 9.14472E-28
4.00316E-01 8.58879E-28
4.04596E-01 8.06827E-28
4.08882E-01 7.58094E-28
4.13176E-01 7.12471E-28
4.17476E-01 6.69762E-28
4.21783E-01 6.29783E-28
4.26095E-01 5.92362E-28
4.30413E-01 5.57335E-28
4.34737E-01 5.24552E-28
4.39065E-01 4.93870E-28
4.43398E-01 4.65154E-28
4.47736E-01 4.38279E-28
4.52077E-01 4.13128E-28
4.56422E-01 3.89589E-28
4.60770E-01 3.67560E-28
4.65122E-01 3.46944E-28
4.69476E-01 3.27648E-28
4.73832E-01 3.09589E-28
4.78190E-01 2.92685E-28
4.82550E-01 2.76862E-28
4.86912E-01 2.62050E-28
4.91274E-01 2.48183E-28
4.95637E-01 2.35198E-28
5.00000E-01 2.23039E-28
5.04363E-01 2.11651E-28
5.08726E-01 2.00983E-28
5.13088E-01 1.90988E-28
5.17450E-01 1.81622E-28
5.21810E-01 1.72842E-28
5.26168E-01 1.64611E-28
5.30524E-01 1.56891E-28
5.34878E-01 1.49649E-28
5.39230E-01 1.42852E-28
5.43578E-01 1.36472E-28
5.47923E-01 1.30479E-28
5.52264E-01 1.24849E-28
5.56602E-01 1.19556E-28
5.60935E-01 1.14579E-28
5.65263E-01 1.09895E-28
5.69587E-01 1.05485E-28
5.73905E-01 1.01331E-28
5.78217E-01 9.74147E-29
5.82524E-01 9.37208E-29
5.86824E-01 9.02340E-29
5.91118E-01 8.69403E-29
5.95404E-01 8.38267E-29
5.99684E-01 8.08808E-29
6.03956E-01 7.80915E-29
6.08220E-01 7.54481E-29
6.12476E-01 7.29408E-29
6.16723E-01 7.05603E-29
6.20961E-01 6.82982E-29
6.25190E-01 6.61466E-29
6.29410E-01 6.40979E-29
6.33619E-01 6.21455E-29
6.37819E-01 6.02828E-29
6.42008E-01 5.85039E-29
6.46186E-01 5.68033E-29
6.50353E-01 5.51759E-29
6.54508E-01 5.36169E-29
6.58652E-01 5.21220E-29
6.62784E-01 5.06869E-29
6.66903E-01 4.93079E-29
6.71010E-01 4.79815E-29
6.75104E-01 4.67043E-29
6.79184E-01 4.54734E-29
6.83251E-01 4.42860E-29
6.87303E-01 4.31394E-29
6.91342E-01 4.20312E-29
6.95366E-01 4.09591E-29
6.99375E-01 3.99212E-29
7.03368E-01 3.89154E-29
7.07347E-01 3.79401E-29
7.11309E-01 3.69935E-29
7.15256E-01 3.60742E-29
7.19186E-01 3.51807E-29
7.23099E-01 3.43117E-29
7.26995E-01 3.34660E-29
7.30874E-01 3.26426E-29
7.34736E-01 3.18403E-29
7.38579E-01 3.10583E-29
7.42405E-01 3.02955E-29
7.46212E-01 2.95513E-29
7.50000E-01 2.88248E-29
7.53769E-01 2.81154E-29
7.57519E-01 2.74224E-29
7.61249E-01 2.67451E-29
7.64960E-01 2.60831E-29
7.68650E-01 2.54358E-29
7.72320E-01 2.48026E-29
7.75968E-01 2.41832E-29
7.79596E-01 2.35772E-29
7.83203E-01 2.29841E-29
7.86788E-01 2.24036E-29
7.90351E-01 2.18353E-29
7.93893E-01 2.12788E-29
7.97411E-01 2.07340E-29
8.00908E-01 2.02005E-29
8.04381E-01 1.96781E-29
8.07831E-01 1.91664E-29
8.11257E-01 1.86653E-29
8.14660E-01 1.81745E-29
8.18039E-01 1.76938E-29
8.21394E-01 1.72230E-29
8.24724E-01 1.67619E-29
8.28030E-01 1.63103E-29
8.31310E-01 1.58681E-29
8.34565E-01 1.54350E-29
8.37795E-01 1.50109E-29
8.40999E-01 1.45957E-29
8.44177E-01 1.41891E-29
8.47329E-01 1.37911E-29
8.50455E-01 1.34014E-29
8.53553E-01 1.30200E-29
8.56625E-01 1.26467E-29
8.59670E-01 1.22814E-29
8.62687E-01 1.19238E-29
8.65677E-01 1.15740E-29
8.68639E-01 1.12318E-29
8.71572E-01 1.08970E-29
8.74478E-01 1.05696E-29
8.77355E-01 1.02494E-29
8.80203E-01 9.93625E-30
8.83022E-01 9.63010E-30
8.85812E-01 9.33081E-30
8.88573E-01 9.03827E-30
8.91304E-01 8.75236E-30
8.94005E-01 8.47299E-30
8.96677E-01 8.20004E-30
8.99318E-01 7.93340E-30
9.01928E-01 7.67297E-30
9.04508E-01 7.41864E-30
9.07058E-01 7.17031E-30
9.09576E-01 6.92788E-30
9.12063E-01 6.69125E-30
9.14519E-01 6.46031E-30
9.16943E-01 6.23497E-30
9.19335E-01 6.01513E-30
9.21696E-01 5.80070E-30
9.24024E-01 5.59158E-30
9.26320E-01 5.38768E-30
9.28584E-01 5.18890E-30
9.30815E-01 4.99516E-30
9.33013E-01 4.80637E-30
9.35178E-01 4.62243E-30
9.37310E-01 4.44327E-30
9.39409E-01 4.26879E-30
9.41474E-01 4.09892E-30
9.43505E-01 3.93356E-30
9.45503E-01 3.77264E-30
9.47467E-01 3.61608E-30
9.49397E-01 3.46380E-30
9.51293E-01 3.31573E-30
9.53154E-01 3.17178E-30
9.54981E-01 3.03188E-30
9.56773E-01 2.89597E-30
9.58530E-01 2.76396E-30
9.60252E-01 2.63579E-30
9.61940E-01 2.51140E-30
9.63592E-01 2.39071E-30
9.65209E-01 2.27365E-30
9.66790E-01 2.16018E-30
9.68336E-01 2.05021E-30
9.69846E-01 1.94370E-30
9.71321E-01 1.84058E-30
9.72759E-01 1.74079E-30
9.74162E-01 1.64428E-30
9.75528E-01 1.55100E-30
9.76858E-01 1.46088E-30
9.78152E-01 1.37389E-30
9.79410E-01 1.28996E-30
9.80631E-01 1.20905E-30
9.81815E-01 1.13112E-30
9.82963E-01 1.05611E-30
9.84074E-01 9.83983E-31
9.85148E-01 9.14696E-31
9.86185E-01 8.48208E-31
9.87185E-01 7.84480E-31
9.88148E-01 7.23471E-31
9.89074E-01 6.65147E-31
9.89962E-01 6.09471E-31
9.90814E-01 5.56411E-31
9.91627E-01 5.05933E-31
9.92404E-01 4.58007E-31
9.93143E-01 4.12604E-31
9.93844E-01 3.69696E-31
9.94508E-01 3.29256E-31
9.95134E-01 2.91259E-31
9.95722E-01 2.55683E-31
9.96273E-01 2.22504E-31
9.96786E-01 1.91703E-31
9.97261E-01 1.63260E-31
9.97698E-01 1.37157E-31
9.98097E-01 1.13379E-31
9.98459E-01 9.19100E-32
9.98782E-01 7.27368E-32
9.99067E-01 5.58476E-32
9.99315E-01 4.12316E-32
9.99524E-01 2.88799E-32
9.99695E-01 1.87844E-32
9.99829E-01 1.09389E-32
9.99924E-01 5.33857E-33
9.99981E-01 1.97976E-33
1.00000E+00 8.60445E-34
