 #
 # Subroutine ELSEPA. Elastic scattering of electrons and positrons
 #                    by neutral atoms and positive ions
 #
 # Projectile: positron
 # Kinetic energy = 7.00000E+08 eV = 2.57245E+07 a.u.
 #
 # WARNING: High-energy factorization with free-atom DF screening.
 #          Absorption, polarization and exchange corrections are
 #          switched off.
 #          Phase shifts are calculated for the bare nucleus.
 #          Scattering amplitudes are not evaluated.
 #
 # Element: Na,  Z =  11,  atomic weight = 2.29898E+01 g/mol
 #
 # Nuclear model: Fermi distribution
 #                Average radius = 3.04249E-13 cm
 #                Skin thickness = 5.46000E-14 cm
 #
 # Number of electrons = 11
 #
 # Total elastic cross section = 4.62074E-19 cm**2 = 1.65010E-02 a0**2
 # 1st transport cross section = 5.39698E-28 cm**2 = 1.92730E-11 a0**2
 # 2nd transport cross section = 1.61853E-27 cm**2 = 5.77986E-11 a0**2
 #
 #
 # Differential cross section:                       MU=(1-COS(THETA))/2
 #
 #  THETA        MU          DCS          DCS        Sherman      error
 #  (deg)                 (cm**2/sr)   (a0**2/sr)    function
 #----------------------------------------------------------------------
0.00000E+00 4.28556E-09
7.61557E-13 3.23551E-09
1.18994E-12 2.80643E-09
1.71346E-12 2.39091E-09
2.33225E-12 2.01286E-09
3.04617E-12 1.68431E-09
3.85530E-12 1.41561E-09
4.75964E-12 1.18241E-09
5.75917E-12 1.00106E-09
6.85391E-12 8.48812E-10
8.04379E-12 7.30606E-10
9.32893E-12 6.32153E-10
1.07092E-11 5.54302E-10
1.21847E-11 4.89247E-10
1.37554E-11 4.36324E-10
1.54213E-11 3.91651E-10
1.71823E-11 3.54167E-10
1.90386E-11 3.22089E-10
2.09900E-11 2.94389E-10
2.30367E-11 2.70325E-10
2.51785E-11 2.49045E-10
2.74156E-11 2.30284E-10
2.97478E-11 2.13389E-10
3.21752E-11 1.98292E-10
3.46979E-11 1.84522E-10
3.73157E-11 1.72073E-10
4.00286E-11 1.60621E-10
4.28368E-11 1.50164E-10
4.57402E-11 1.40495E-10
4.87388E-11 1.31593E-10
5.18325E-11 1.23338E-10
5.50215E-11 1.15688E-10
5.83057E-11 1.08582E-10
6.16850E-11 1.01962E-10
6.51595E-11 9.58089E-11
6.87293E-11 9.00521E-11
7.23943E-11 8.47016E-11
7.61544E-11 7.96785E-11
1.18991E-10 4.42280E-11
1.71347E-10 2.54969E-11
2.33223E-10 1.52989E-11
3.04617E-10 9.56242E-12
3.85531E-10 6.21632E-12
4.75965E-10 4.19216E-12
5.75917E-10 2.92351E-12
6.85389E-10 2.09992E-12
8.04380E-10 1.54798E-12
9.32891E-10 1.16719E-12
1.07092E-09 8.97778E-13
1.21847E-09 7.02686E-13
1.37554E-09 5.58458E-13
1.54213E-09 4.49805E-13
1.71823E-09 3.66617E-13
1.90386E-09 3.01996E-13
2.09900E-09 2.51133E-13
2.30367E-09 2.10610E-13
2.51785E-09 1.77977E-13
2.74156E-09 1.51456E-13
2.97478E-09 1.29712E-13
3.21752E-09 1.11742E-13
3.46978E-09 9.67719E-14
3.73156E-09 8.42273E-14
4.00286E-09 7.36495E-14
4.28368E-09 6.46787E-14
4.57402E-09 5.70261E-14
4.87388E-09 5.04688E-14
5.18326E-09 4.48244E-14
5.50215E-09 3.99447E-14
5.83057E-09 3.57076E-14
6.16850E-09 3.20145E-14
6.51596E-09 2.87847E-14
6.87293E-09 2.59503E-14
7.23942E-09 2.34546E-14
7.61544E-09 2.12497E-14
1.18991E-08 8.85498E-15
1.71347E-08 4.30612E-15
2.33223E-08 2.33443E-15
3.04617E-08 1.37169E-15
3.85531E-08 8.57548E-16
4.75965E-08 5.63128E-16
5.75917E-08 3.84839E-16
6.85389E-08 2.71824E-16
8.04380E-08 1.97401E-16
9.32891E-08 1.46788E-16
1.07092E-07 1.11402E-16
1.21847E-07 8.60637E-17
1.37554E-07 6.75359E-17
1.54213E-07 5.37358E-17
1.71823E-07 4.32868E-17
1.90386E-07 3.52575E-17
2.09900E-07 2.90064E-17
2.30367E-07 2.40814E-17
2.51785E-07 2.01586E-17
2.74156E-07 1.70030E-17
2.97478E-07 1.44415E-17
3.21752E-07 1.23446E-17
3.46978E-07 1.06149E-17
3.73156E-07 9.17775E-18
4.00286E-07 7.97581E-18
4.28368E-07 6.96435E-18
4.57402E-07 6.10826E-18
4.87388E-07 5.37976E-18
5.18325E-07 4.75670E-18
5.50215E-07 4.22128E-18
5.83057E-07 3.75912E-18
6.16850E-07 3.35851E-18
6.51596E-07 3.00987E-18
6.87293E-07 2.70532E-18
7.23942E-07 2.43833E-18
7.61543E-07 2.20348E-18
1.18991E-06 9.02503E-19
1.71347E-06 4.35213E-19
2.33223E-06 2.34905E-19
3.04617E-06 1.37690E-19
3.85531E-06 8.59547E-20
4.75964E-06 5.63919E-20
5.75916E-06 3.85144E-20
6.85388E-06 2.71923E-20
8.04378E-06 1.97413E-20
9.32888E-06 1.46762E-20
1.07092E-05 1.11362E-20
1.21846E-05 8.60201E-21
1.37553E-05 6.74934E-21
1.54212E-05 5.36963E-21
1.71822E-05 4.32511E-21
1.90385E-05 3.52250E-21
2.09899E-05 2.89787E-21
2.30365E-05 2.40575E-21
2.51783E-05 2.01379E-21
2.74153E-05 1.69847E-21
2.97475E-05 1.44250E-21
3.21749E-05 1.23298E-21
3.46974E-05 1.06015E-21
3.73152E-05 9.16564E-22
4.00281E-05 7.96489E-22
4.28362E-05 6.95449E-22
4.57395E-05 6.09935E-22
4.87380E-05 5.37168E-22
5.18317E-05 4.74933E-22
5.50205E-05 4.21454E-22
5.83045E-05 3.75292E-22
6.16838E-05 3.35279E-22
6.51582E-05 3.00458E-22
6.87277E-05 2.70043E-22
7.23925E-05 2.43380E-22
7.61524E-05 2.17493E-22
9.21439E-05 1.48161E-22
1.09658E-04 1.04310E-22
1.28695E-04 7.54964E-23
1.49255E-04 5.59405E-23
1.71338E-04 4.22968E-23
1.94942E-04 3.25478E-23
2.20070E-04 2.54347E-23
2.46720E-04 2.01488E-23
2.74892E-04 1.61560E-23
3.04586E-04 1.30958E-23
3.35803E-04 1.07195E-23
3.68542E-04 8.85219E-24
4.02802E-04 7.36910E-24
4.38585E-04 6.17957E-24
4.75889E-04 5.21692E-24
5.14715E-04 4.43144E-24
5.55063E-04 3.78565E-24
5.96931E-04 3.25098E-24
6.40321E-04 2.80541E-24
6.85233E-04 2.43187E-24
7.31665E-04 2.11693E-24
7.79618E-04 1.85002E-24
8.29092E-04 1.62269E-24
8.80086E-04 1.42818E-24
9.32601E-04 1.26103E-24
9.86636E-04 1.11681E-24
1.04219E-03 9.91896E-25
1.09927E-03 8.83314E-25
1.15786E-03 7.88605E-25
1.21797E-03 7.05730E-25
1.27961E-03 6.32988E-25
1.34276E-03 5.68956E-25
1.40743E-03 5.12434E-25
1.47362E-03 4.62411E-25
1.54133E-03 4.18031E-25
1.61056E-03 3.78563E-25
1.68131E-03 3.43384E-25
1.75357E-03 3.11960E-25
1.82735E-03 2.83833E-25
1.90265E-03 2.58608E-25
1.97947E-03 2.35943E-25
2.05780E-03 2.15541E-25
2.13765E-03 1.97145E-25
2.21902E-03 1.80531E-25
2.30190E-03 1.65502E-25
2.38630E-03 1.51886E-25
2.47222E-03 1.39533E-25
2.55965E-03 1.28310E-25
2.64859E-03 1.18100E-25
2.73905E-03 1.08799E-25
2.83103E-03 1.00317E-25
2.92452E-03 9.25718E-26
3.01952E-03 8.54916E-26
3.11604E-03 7.90123E-26
3.21407E-03 7.30765E-26
3.31362E-03 6.76332E-26
3.41468E-03 6.26366E-26
3.51725E-03 5.80458E-26
3.62133E-03 5.38241E-26
3.72692E-03 4.99383E-26
3.83403E-03 4.63588E-26
3.94265E-03 4.30588E-26
4.05278E-03 4.00140E-26
4.16442E-03 3.72027E-26
4.27757E-03 3.46050E-26
4.39223E-03 3.22030E-26
4.50840E-03 2.99806E-26
4.62608E-03 2.79230E-26
4.74527E-03 2.60167E-26
4.86597E-03 2.42496E-26
4.98817E-03 2.26106E-26
5.11188E-03 2.10895E-26
5.23711E-03 1.96772E-26
5.36383E-03 1.83651E-26
5.49207E-03 1.71455E-26
5.62181E-03 1.60114E-26
5.75306E-03 1.49563E-26
5.88581E-03 1.39743E-26
6.02007E-03 1.30599E-26
6.15583E-03 1.22080E-26
6.29310E-03 1.14142E-26
6.43187E-03 1.06742E-26
6.57214E-03 9.98408E-27
6.71392E-03 9.34024E-27
6.85720E-03 8.73939E-27
7.00198E-03 8.17848E-27
7.14827E-03 7.65471E-27
7.29605E-03 7.16546E-27
7.44534E-03 6.70832E-27
7.59612E-03 6.28109E-27
7.97965E-03 5.33069E-27
8.37255E-03 4.52646E-27
8.77480E-03 3.84506E-27
9.18641E-03 3.26705E-27
9.60736E-03 2.77627E-27
1.00376E-02 2.35922E-27
1.04773E-02 2.00457E-27
1.09262E-02 1.70281E-27
1.13844E-02 1.44596E-27
1.18520E-02 1.22727E-27
1.23288E-02 1.04103E-27
1.28150E-02 8.82435E-28
1.33104E-02 7.47379E-28
1.38150E-02 6.32396E-28
1.43290E-02 5.34532E-28
1.48521E-02 4.51275E-28
1.53845E-02 3.80483E-28
1.59262E-02 3.20331E-28
1.64770E-02 2.69260E-28
1.70371E-02 2.25938E-28
1.76063E-02 1.89228E-28
1.81848E-02 1.58157E-28
1.87724E-02 1.31894E-28
1.93692E-02 1.09726E-28
1.99751E-02 9.10445E-29
2.05901E-02 7.53297E-29
2.12143E-02 6.21357E-29
2.18476E-02 5.10816E-29
2.24900E-02 4.18420E-29
2.31415E-02 3.41386E-29
2.38021E-02 2.77339E-29
2.44717E-02 2.24253E-29
2.51504E-02 1.80399E-29
2.58382E-02 1.44306E-29
2.65349E-02 1.14723E-29
2.72407E-02 9.05845E-30
2.79555E-02 7.09891E-30
2.86793E-02 5.51721E-30
2.94120E-02 4.24866E-30
3.01537E-02 3.23871E-30
3.09043E-02 2.44139E-30
3.16639E-02 1.81808E-30
3.24324E-02 1.33643E-30
3.32098E-02 9.69398E-31
3.39961E-02 6.94463E-31
3.47912E-02 4.92940E-31
3.55952E-02 3.49385E-31
3.64081E-02 2.51093E-31
3.72297E-02 1.87664E-31
3.80602E-02 1.50635E-31
3.88995E-02 1.33167E-31
3.97476E-02 1.29773E-31
4.06044E-02 1.36096E-31
4.14700E-02 1.48711E-31
4.23443E-02 1.64961E-31
4.32273E-02 1.82823E-31
4.41190E-02 2.00786E-31
4.50194E-02 2.17756E-31
4.59284E-02 2.32974E-31
4.68461E-02 2.45945E-31
4.87074E-02 2.64167E-31
5.06030E-02 2.71850E-31
5.25328E-02 2.69924E-31
5.44967E-02 2.60061E-31
5.64946E-02 2.44193E-31
5.85262E-02 2.24215E-31
6.05914E-02 2.01824E-31
6.26901E-02 1.78440E-31
6.48222E-02 1.55184E-31
6.69873E-02 1.32891E-31
6.91854E-02 1.12140E-31
7.14163E-02 9.32920E-32
7.36799E-02 7.65317E-32
7.59760E-02 6.19083E-32
7.83043E-02 4.93703E-32
8.06647E-02 3.87956E-32
8.30571E-02 3.00175E-32
8.54812E-02 2.28445E-32
8.79369E-02 1.70754E-32
9.04240E-02 1.25114E-32
9.29422E-02 8.96306E-33
9.54915E-02 6.25640E-33
9.80716E-02 4.23520E-33
1.00682E-01 2.76254E-33
1.03323E-01 1.72079E-33
1.05995E-01 1.01082E-33
1.08696E-01 5.50575E-34
1.11427E-01 2.73399E-34
1.14188E-01 1.26153E-34
1.16978E-01 6.73270E-35
1.19797E-01 6.52157E-35
1.22645E-01 9.62239E-35
1.25522E-01 1.43338E-34
1.28428E-01 1.94779E-34
1.31361E-01 2.42841E-34
1.34323E-01 2.82908E-34
1.37313E-01 3.12656E-34
1.40330E-01 3.31374E-34
1.43375E-01 3.39459E-34
1.46447E-01 3.37999E-34
1.49545E-01 3.28475E-34
1.52671E-01 3.12522E-34
1.55823E-01 2.91785E-34
1.59001E-01 2.67799E-34
1.62205E-01 2.41936E-34
1.65435E-01 2.15357E-34
1.68690E-01 1.89016E-34
1.71970E-01 1.63653E-34
1.75276E-01 1.39815E-34
1.78606E-01 1.17873E-34
1.81961E-01 9.80527E-35
1.85340E-01 8.04540E-35
1.88743E-01 6.50807E-35
1.92169E-01 5.18604E-35
1.95619E-01 4.06659E-35
1.99092E-01 3.13335E-35
2.02589E-01 2.36787E-35
2.06107E-01 1.75055E-35
2.09649E-01 1.26179E-35
2.13212E-01 8.82665E-36
2.16797E-01 5.95467E-36
2.20404E-01 3.83935E-36
2.24032E-01 2.33534E-36
2.27680E-01 1.31518E-36
2.31350E-01 6.68889E-37
2.35040E-01 3.03761E-37
2.38751E-01 1.42795E-37
2.42481E-01 1.23404E-37
2.46231E-01 1.95862E-37
2.50000E-01 3.21480E-37
2.53788E-01 4.71223E-37
2.57595E-01 6.24019E-37
2.61421E-01 7.65113E-37
2.65264E-01 8.85302E-37
2.69126E-01 9.79344E-37
2.73005E-01 1.04518E-36
2.76901E-01 1.08306E-36
2.80814E-01 1.09480E-36
2.84744E-01 1.08328E-36
2.88691E-01 1.05201E-36
2.92653E-01 1.00463E-36
2.96632E-01 9.45062E-37
3.00625E-01 8.76661E-37
3.04634E-01 8.02672E-37
3.08658E-01 7.25903E-37
3.12697E-01 6.48764E-37
3.16749E-01 5.73168E-37
3.20816E-01 5.00671E-37
3.24896E-01 4.32434E-37
3.28990E-01 3.69292E-37
3.33097E-01 3.11711E-37
3.37216E-01 2.59936E-37
3.41348E-01 2.14065E-37
3.45492E-01 1.73925E-37
3.49647E-01 1.39287E-37
3.53814E-01 1.09822E-37
3.57992E-01 8.50810E-38
3.62181E-01 6.46338E-38
3.66381E-01 4.79925E-38
3.70590E-01 3.47039E-38
3.74810E-01 2.42919E-38
3.79039E-01 1.63388E-38
3.83277E-01 1.04412E-38
3.87524E-01 6.22907E-39
3.91780E-01 3.38314E-39
3.96044E-01 1.61413E-39
4.00316E-01 1.00000E-45
4.04596E-01 1.00000E-45
4.08882E-01 1.00000E-45
4.13176E-01 1.00000E-45
4.17476E-01 1.00000E-45
4.21783E-01 1.00000E-45
4.26095E-01 1.00000E-45
4.30413E-01 1.00000E-45
4.34737E-01 1.00000E-45
4.39065E-01 1.00000E-45
4.43398E-01 1.00000E-45
4.47736E-01 1.00000E-45
4.52077E-01 1.00000E-45
4.56422E-01 1.00000E-45
4.60770E-01 1.00000E-45
4.65122E-01 1.00000E-45
4.69476E-01 1.00000E-45
4.73832E-01 1.00000E-45
4.78190E-01 1.00000E-45
4.82550E-01 1.00000E-45
4.86912E-01 1.00000E-45
4.91274E-01 1.00000E-45
4.95637E-01 1.00000E-45
5.00000E-01 1.00000E-45
5.04363E-01 1.00000E-45
5.08726E-01 1.00000E-45
5.13088E-01 1.00000E-45
5.17450E-01 1.00000E-45
5.21810E-01 1.00000E-45
5.26168E-01 1.00000E-45
5.30524E-01 1.00000E-45
5.34878E-01 1.00000E-45
5.39230E-01 1.00000E-45
5.43578E-01 1.00000E-45
5.47923E-01 1.00000E-45
5.52264E-01 1.00000E-45
5.56602E-01 1.00000E-45
5.60935E-01 1.00000E-45
5.65263E-01 1.00000E-45
5.69587E-01 1.00000E-45
5.73905E-01 1.00000E-45
5.78217E-01 1.00000E-45
5.82524E-01 1.00000E-45
5.86824E-01 1.00000E-45
5.91118E-01 1.00000E-45
5.95404E-01 1.00000E-45
5.99684E-01 1.00000E-45
6.03956E-01 1.00000E-45
6.08220E-01 1.00000E-45
6.12476E-01 1.00000E-45
6.16723E-01 1.00000E-45
6.20961E-01 1.00000E-45
6.25190E-01 1.00000E-45
6.29410E-01 1.00000E-45
6.33619E-01 1.00000E-45
6.37819E-01 1.00000E-45
6.42008E-01 1.00000E-45
6.46186E-01 1.00000E-45
6.50353E-01 1.00000E-45
6.54508E-01 1.00000E-45
6.58652E-01 1.00000E-45
6.62784E-01 1.00000E-45
6.66903E-01 1.00000E-45
6.71010E-01 1.00000E-45
6.75104E-01 1.00000E-45
6.79184E-01 1.00000E-45
6.83251E-01 1.00000E-45
6.87303E-01 1.00000E-45
6.91342E-01 1.00000E-45
6.95366E-01 1.00000E-45
6.99375E-01 1.00000E-45
7.03368E-01 1.00000E-45
7.07347E-01 1.00000E-45
7.11309E-01 1.00000E-45
7.15256E-01 1.00000E-45
7.19186E-01 1.00000E-45
7.23099E-01 1.00000E-45
7.26995E-01 1.00000E-45
7.30874E-01 1.00000E-45
7.34736E-01 1.00000E-45
7.38579E-01 1.00000E-45
7.42405E-01 1.00000E-45
7.46212E-01 1.00000E-45
7.50000E-01 1.00000E-45
7.53769E-01 1.00000E-45
7.57519E-01 1.00000E-45
7.61249E-01 1.00000E-45
7.64960E-01 1.00000E-45
7.68650E-01 1.00000E-45
7.72320E-01 1.00000E-45
7.75968E-01 1.00000E-45
7.79596E-01 1.00000E-45
7.83203E-01 1.00000E-45
7.86788E-01 1.00000E-45
7.90351E-01 1.00000E-45
7.93893E-01 1.00000E-45
7.97411E-01 1.00000E-45
8.00908E-01 1.00000E-45
8.04381E-01 1.00000E-45
8.07831E-01 1.00000E-45
8.11257E-01 1.00000E-45
8.14660E-01 1.00000E-45
8.18039E-01 1.00000E-45
8.21394E-01 1.00000E-45
8.24724E-01 1.00000E-45
8.28030E-01 1.00000E-45
8.31310E-01 1.00000E-45
8.34565E-01 1.00000E-45
8.37795E-01 1.00000E-45
8.40999E-01 1.00000E-45
8.44177E-01 1.00000E-45
8.47329E-01 1.00000E-45
8.50455E-01 1.00000E-45
8.53553E-01 1.00000E-45
8.56625E-01 1.00000E-45
8.59670E-01 1.00000E-45
8.62687E-01 1.00000E-45
8.65677E-01 1.00000E-45
8.68639E-01 1.00000E-45
8.71572E-01 1.00000E-45
8.74478E-01 1.00000E-45
8.77355E-01 1.00000E-45
8.80203E-01 1.00000E-45
8.83022E-01 1.00000E-45
8.85812E-01 1.00000E-45
8.88573E-01 1.00000E-45
8.91304E-01 1.00000E-45
8.94005E-01 1.00000E-45
8.96677E-01 1.00000E-45
8.99318E-01 1.00000E-45
9.01928E-01 1.00000E-45
9.04508E-01 1.00000E-45
9.07058E-01 1.00000E-45
9.09576E-01 1.00000E-45
9.12063E-01 1.00000E-45
9.14519E-01 1.00000E-45
9.16943E-01 1.00000E-45
9.19335E-01 1.00000E-45
9.21696E-01 1.00000E-45
9.24024E-01 1.00000E-45
9.26320E-01 1.00000E-45
9.28584E-01 1.00000E-45
9.30815E-01 1.00000E-45
9.33013E-01 1.00000E-45
9.35178E-01 1.00000E-45
9.37310E-01 1.00000E-45
9.39409E-01 1.00000E-45
9.41474E-01 1.00000E-45
9.43505E-01 1.00000E-45
9.45503E-01 1.00000E-45
9.47467E-01 1.00000E-45
9.49397E-01 1.00000E-45
9.51293E-01 1.00000E-45
9.53154E-01 1.00000E-45
9.54981E-01 1.00000E-45
9.56773E-01 1.00000E-45
9.58530E-01 1.00000E-45
9.60252E-01 1.00000E-45
9.61940E-01 1.00000E-45
9.63592E-01 1.00000E-45
9.65209E-01 1.00000E-45
9.66790E-01 1.00000E-45
9.68336E-01 1.00000E-45
9.69846E-01 1.00000E-45
9.71321E-01 1.00000E-45
9.72759E-01 1.00000E-45
9.74162E-01 1.00000E-45
9.75528E-01 1.00000E-45
9.76858E-01 1.00000E-45
9.78152E-01 1.00000E-45
9.79410E-01 1.00000E-45
9.80631E-01 1.00000E-45
9.81815E-01 1.00000E-45
9.82963E-01 1.00000E-45
9.84074E-01 1.00000E-45
9.85148E-01 1.00000E-45
9.86185E-01 1.00000E-45
9.87185E-01 1.00000E-45
9.88148E-01 1.00000E-45
9.89074E-01 1.00000E-45
9.89962E-01 1.00000E-45
9.90814E-01 1.00000E-45
9.91627E-01 1.00000E-45
9.92404E-01 1.00000E-45
9.93143E-01 1.00000E-45
9.93844E-01 1.00000E-45
9.94508E-01 1.00000E-45
9.95134E-01 1.00000E-45
9.95722E-01 1.00000E-45
9.96273E-01 1.00000E-45
9.96786E-01 1.00000E-45
9.97261E-01 1.00000E-45
9.97698E-01 1.00000E-45
9.98097E-01 1.00000E-45
9.98459E-01 1.00000E-45
9.98782E-01 1.00000E-45
9.99067E-01 1.00000E-45
9.99315E-01 1.00000E-45
9.99524E-01 1.00000E-45
9.99695E-01 1.00000E-45
9.99829E-01 1.00000E-45
9.99924E-01 1.00000E-45
9.99981E-01 1.00000E-45
1.00000E+00 1.00000E-45
