 #
 # Subroutine ELSEPA. Elastic scattering of electrons and positrons
 #                    by neutral atoms and positive ions
 #
 # Projectile: positron
 # Kinetic energy = 1.00000E+07 eV = 3.67493E+05 a.u.
 #
 # WARNING: High-energy factorization with free-atom DF screening.
 #          Absorption, polarization and exchange corrections are
 #          switched off.
 #          Phase shifts are calculated for the bare nucleus.
 #          Scattering amplitudes are not evaluated.
 #
 # Element: Na,  Z =  11,  atomic weight = 2.29898E+01 g/mol
 #
 # Nuclear model: Fermi distribution
 #                Average radius = 3.04249E-13 cm
 #                Skin thickness = 5.46000E-14 cm
 #
 # Number of electrons = 11
 #
 # Total elastic cross section = 4.67867E-19 cm**2 = 1.67078E-02 a0**2
 # 1st transport cross section = 1.84177E-24 cm**2 = 6.57708E-08 a0**2
 # 2nd transport cross section = 5.32750E-24 cm**2 = 1.90249E-07 a0**2
 #
 #
 # Differential cross section:                       MU=(1-COS(THETA))/2
 #
 #  THETA        MU          DCS          DCS        Sherman      error
 #  (deg)                 (cm**2/sr)   (a0**2/sr)    function
 #----------------------------------------------------------------------
0.00000E+00 9.64864E-13
7.61557E-13 9.64797E-13
1.18994E-12 9.64760E-13
1.71346E-12 9.64715E-13
2.33225E-12 9.64662E-13
3.04617E-12 9.64600E-13
3.85530E-12 9.64531E-13
4.75964E-12 9.64453E-13
5.75917E-12 9.64367E-13
6.85391E-12 9.64273E-13
8.04379E-12 9.64171E-13
9.32893E-12 9.64061E-13
1.07092E-11 9.63942E-13
1.21847E-11 9.63816E-13
1.37554E-11 9.63682E-13
1.54213E-11 9.63539E-13
1.71823E-11 9.63388E-13
1.90386E-11 9.63229E-13
2.09900E-11 9.63062E-13
2.30367E-11 9.62887E-13
2.51785E-11 9.62704E-13
2.74156E-11 9.62513E-13
2.97478E-11 9.62314E-13
3.21752E-11 9.62107E-13
3.46979E-11 9.61892E-13
3.73157E-11 9.61668E-13
4.00286E-11 9.61437E-13
4.28368E-11 9.61198E-13
4.57402E-11 9.60950E-13
4.87388E-11 9.60695E-13
5.18325E-11 9.60432E-13
5.50215E-11 9.60161E-13
5.83057E-11 9.59881E-13
6.16850E-11 9.59594E-13
6.51595E-11 9.59299E-13
6.87293E-11 9.58996E-13
7.23943E-11 9.58685E-13
7.61544E-11 9.58366E-13
1.18991E-10 9.54744E-13
1.71347E-10 9.50346E-13
2.33223E-10 9.45185E-13
3.04617E-10 9.39282E-13
3.85531E-10 9.32660E-13
4.75965E-10 9.25338E-13
5.75917E-10 9.17341E-13
6.85389E-10 9.08700E-13
8.04380E-10 8.99446E-13
9.32891E-10 8.89604E-13
1.07092E-09 8.79205E-13
1.21847E-09 8.68292E-13
1.37554E-09 8.56894E-13
1.54213E-09 8.45042E-13
1.71823E-09 8.32767E-13
1.90386E-09 8.20129E-13
2.09900E-09 8.07144E-13
2.30367E-09 7.93845E-13
2.51785E-09 7.80268E-13
2.74156E-09 7.66476E-13
2.97478E-09 7.52475E-13
3.21752E-09 7.38298E-13
3.46978E-09 7.23985E-13
3.73156E-09 7.09589E-13
4.00286E-09 6.95113E-13
4.28368E-09 6.80585E-13
4.57402E-09 6.66051E-13
4.87388E-09 6.51546E-13
5.18326E-09 6.37070E-13
5.50215E-09 6.22648E-13
5.83057E-09 6.08330E-13
6.16850E-09 5.94127E-13
6.51596E-09 5.80042E-13
6.87293E-09 5.66092E-13
7.23942E-09 5.52332E-13
7.61544E-09 5.38751E-13
1.18991E-08 4.15181E-13
1.71347E-08 3.19143E-13
2.33223E-08 2.44985E-13
3.04617E-08 1.91425E-13
3.85531E-08 1.53213E-13
4.75965E-08 1.24996E-13
5.75917E-08 1.04025E-13
6.85389E-08 8.83172E-14
8.04380E-08 7.61142E-14
9.32891E-08 6.63802E-14
1.07092E-07 5.84903E-14
1.21847E-07 5.19245E-14
1.37554E-07 4.63613E-14
1.54213E-07 4.16095E-14
1.71823E-07 3.75084E-14
1.90386E-07 3.38625E-14
2.09900E-07 3.06527E-14
2.30367E-07 2.78174E-14
2.51785E-07 2.52947E-14
2.74156E-07 2.29971E-14
2.97478E-07 2.09456E-14
3.21752E-07 1.91075E-14
3.46978E-07 1.74469E-14
3.73156E-07 1.59304E-14
4.00286E-07 1.45658E-14
4.28368E-07 1.33350E-14
4.57402E-07 1.22146E-14
4.87388E-07 1.11930E-14
5.18325E-07 1.02694E-14
5.50215E-07 9.43273E-15
5.83057E-07 8.66772E-15
6.16850E-07 7.97069E-15
6.51596E-07 7.33816E-15
6.87293E-07 6.76317E-15
7.23942E-07 6.23576E-15
7.61543E-07 5.75507E-15
1.18991E-06 2.71725E-15
1.71347E-06 1.40365E-15
2.33223E-06 7.87571E-16
3.04617E-06 4.74142E-16
3.85531E-06 3.02665E-16
4.75964E-06 2.02688E-16
5.75916E-06 1.41164E-16
6.85388E-06 1.01539E-16
8.04378E-06 7.50205E-17
9.32888E-06 5.66843E-17
1.07092E-05 4.36573E-17
1.21846E-05 3.41826E-17
1.37553E-05 2.71507E-17
1.54212E-05 2.18391E-17
1.71822E-05 1.77643E-17
1.90385E-05 1.45944E-17
2.09899E-05 1.20996E-17
2.30365E-05 1.01140E-17
2.51783E-05 8.51788E-18
2.74153E-05 7.22312E-18
2.97475E-05 6.16410E-18
3.21749E-05 5.29128E-18
3.46974E-05 4.56675E-18
3.73152E-05 3.96152E-18
4.00281E-05 3.45285E-18
4.28362E-05 3.02290E-18
4.57395E-05 2.65753E-18
4.87380E-05 2.34548E-18
5.18317E-05 2.07771E-18
5.50205E-05 1.84690E-18
5.83045E-05 1.64714E-18
6.16838E-05 1.47356E-18
6.51582E-05 1.32218E-18
6.87277E-05 1.18967E-18
7.23925E-05 1.07331E-18
7.61524E-05 9.70780E-19
9.21439E-05 6.64858E-19
1.09658E-04 4.70283E-19
1.28695E-04 3.41857E-19
1.49255E-04 2.54367E-19
1.71338E-04 1.93130E-19
1.94942E-04 1.49242E-19
2.20070E-04 1.17131E-19
2.46720E-04 9.32040E-20
2.74892E-04 7.50814E-20
3.04586E-04 6.11541E-20
3.35803E-04 5.03094E-20
3.68542E-04 4.17640E-20
4.02802E-04 3.49573E-20
4.38585E-04 2.94816E-20
4.75889E-04 2.50367E-20
5.14715E-04 2.13983E-20
5.55063E-04 1.83970E-20
5.96931E-04 1.59037E-20
6.40321E-04 1.38185E-20
6.85233E-04 1.20640E-20
7.31665E-04 1.05791E-20
7.79618E-04 9.31557E-21
8.29092E-04 8.23499E-21
8.80086E-04 7.30654E-21
9.32601E-04 6.50525E-21
9.86636E-04 5.81078E-21
1.04219E-03 5.20651E-21
1.09927E-03 4.67872E-21
1.15786E-03 4.21610E-21
1.21797E-03 3.80923E-21
1.27961E-03 3.45024E-21
1.34276E-03 3.13253E-21
1.40743E-03 2.85053E-21
1.47362E-03 2.59954E-21
1.54133E-03 2.37555E-21
1.61056E-03 2.17516E-21
1.68131E-03 1.99543E-21
1.75357E-03 1.83388E-21
1.82735E-03 1.68833E-21
1.90265E-03 1.55693E-21
1.97947E-03 1.43805E-21
2.05780E-03 1.33030E-21
2.13765E-03 1.23244E-21
2.21902E-03 1.14340E-21
2.30190E-03 1.06226E-21
2.38630E-03 9.88178E-22
2.47222E-03 9.20436E-22
2.55965E-03 8.58395E-22
2.64859E-03 8.01488E-22
2.73905E-03 7.49214E-22
2.83103E-03 7.01127E-22
2.92452E-03 6.56833E-22
3.01952E-03 6.15978E-22
3.11604E-03 5.78246E-22
3.21407E-03 5.43356E-22
3.31362E-03 5.11055E-22
3.41468E-03 4.81115E-22
3.51725E-03 4.53333E-22
3.62133E-03 4.27525E-22
3.72692E-03 4.03525E-22
3.83403E-03 3.81183E-22
3.94265E-03 3.60365E-22
4.05278E-03 3.40946E-22
4.16442E-03 3.22815E-22
4.27757E-03 3.05872E-22
4.39223E-03 2.90025E-22
4.50840E-03 2.75189E-22
4.62608E-03 2.61288E-22
4.74527E-03 2.48252E-22
4.86597E-03 2.36018E-22
4.98817E-03 2.24527E-22
5.11188E-03 2.13726E-22
5.23711E-03 2.03565E-22
5.36383E-03 1.94001E-22
5.49207E-03 1.84990E-22
5.62181E-03 1.76495E-22
5.75306E-03 1.68482E-22
5.88581E-03 1.60917E-22
6.02007E-03 1.53772E-22
6.15583E-03 1.47017E-22
6.29310E-03 1.40629E-22
6.43187E-03 1.34584E-22
6.57214E-03 1.28859E-22
6.71392E-03 1.23435E-22
6.85720E-03 1.18293E-22
7.00198E-03 1.13415E-22
7.14827E-03 1.08785E-22
7.29605E-03 1.04389E-22
7.44534E-03 1.00212E-22
7.59612E-03 9.62414E-23
7.97965E-03 8.71406E-23
8.37255E-03 7.90883E-23
8.77480E-03 7.19430E-23
9.18641E-03 6.55849E-23
9.60736E-03 5.99123E-23
1.00376E-02 5.48385E-23
1.04773E-02 5.02893E-23
1.09262E-02 4.62010E-23
1.13844E-02 4.25188E-23
1.18520E-02 3.91952E-23
1.23288E-02 3.61893E-23
1.28150E-02 3.34652E-23
1.33104E-02 3.09920E-23
1.38150E-02 2.87424E-23
1.43290E-02 2.66926E-23
1.48521E-02 2.48218E-23
1.53845E-02 2.31115E-23
1.59262E-02 2.15456E-23
1.64770E-02 2.01096E-23
1.70371E-02 1.87909E-23
1.76063E-02 1.75781E-23
1.81848E-02 1.64613E-23
1.87724E-02 1.54314E-23
1.93692E-02 1.44806E-23
1.99751E-02 1.36016E-23
2.05901E-02 1.27880E-23
2.12143E-02 1.20341E-23
2.18476E-02 1.13347E-23
2.24900E-02 1.06852E-23
2.31415E-02 1.00814E-23
2.38021E-02 9.51940E-24
2.44717E-02 8.99587E-24
2.51504E-02 8.50768E-24
2.58382E-02 8.05202E-24
2.65349E-02 7.62631E-24
2.72407E-02 7.22823E-24
2.79555E-02 6.85566E-24
2.86793E-02 6.50667E-24
2.94120E-02 6.17950E-24
3.01537E-02 5.87252E-24
3.09043E-02 5.58428E-24
3.16639E-02 5.31341E-24
3.24324E-02 5.05867E-24
3.32098E-02 4.81894E-24
3.39961E-02 4.59316E-24
3.47912E-02 4.38037E-24
3.55952E-02 4.17969E-24
3.64081E-02 3.99031E-24
3.72297E-02 3.81146E-24
3.80602E-02 3.64246E-24
3.88995E-02 3.48267E-24
3.97476E-02 3.33149E-24
4.06044E-02 3.18837E-24
4.14700E-02 3.05280E-24
4.23443E-02 2.92432E-24
4.32273E-02 2.80247E-24
4.41190E-02 2.68687E-24
4.50194E-02 2.57712E-24
4.59284E-02 2.47288E-24
4.68461E-02 2.37381E-24
4.87074E-02 2.19003E-24
5.06030E-02 2.02356E-24
5.25328E-02 1.87250E-24
5.44967E-02 1.73516E-24
5.64946E-02 1.61009E-24
5.85262E-02 1.49600E-24
6.05914E-02 1.39175E-24
6.26901E-02 1.29635E-24
6.48222E-02 1.20891E-24
6.69873E-02 1.12865E-24
6.91854E-02 1.05488E-24
7.14163E-02 9.86984E-25
7.36799E-02 9.24408E-25
7.59760E-02 8.66662E-25
7.83043E-02 8.13308E-25
8.06647E-02 7.63952E-25
8.30571E-02 7.18243E-25
8.54812E-02 6.75863E-25
8.79369E-02 6.36526E-25
9.04240E-02 5.99975E-25
9.29422E-02 5.65978E-25
9.54915E-02 5.34325E-25
9.80716E-02 5.04825E-25
1.00682E-01 4.77305E-25
1.03323E-01 4.51610E-25
1.05995E-01 4.27597E-25
1.08696E-01 4.05135E-25
1.11427E-01 3.84108E-25
1.14188E-01 3.64406E-25
1.16978E-01 3.45932E-25
1.19797E-01 3.28596E-25
1.22645E-01 3.12314E-25
1.25522E-01 2.97011E-25
1.28428E-01 2.82618E-25
1.31361E-01 2.69072E-25
1.34323E-01 2.56313E-25
1.37313E-01 2.44287E-25
1.40330E-01 2.32945E-25
1.43375E-01 2.22241E-25
1.46447E-01 2.12133E-25
1.49545E-01 2.02582E-25
1.52671E-01 1.93551E-25
1.55823E-01 1.85007E-25
1.59001E-01 1.76920E-25
1.62205E-01 1.69260E-25
1.65435E-01 1.62000E-25
1.68690E-01 1.55117E-25
1.71970E-01 1.48587E-25
1.75276E-01 1.42389E-25
1.78606E-01 1.36502E-25
1.81961E-01 1.30910E-25
1.85340E-01 1.25593E-25
1.88743E-01 1.20537E-25
1.92169E-01 1.15725E-25
1.95619E-01 1.11145E-25
1.99092E-01 1.06783E-25
2.02589E-01 1.02627E-25
2.06107E-01 9.86651E-26
2.09649E-01 9.48870E-26
2.13212E-01 9.12826E-26
2.16797E-01 8.78425E-26
2.20404E-01 8.45578E-26
2.24032E-01 8.14204E-26
2.27680E-01 7.84223E-26
2.31350E-01 7.55564E-26
2.35040E-01 7.28158E-26
2.38751E-01 7.01940E-26
2.42481E-01 6.76850E-26
2.46231E-01 6.52831E-26
2.50000E-01 6.29829E-26
2.53788E-01 6.07793E-26
2.57595E-01 5.86676E-26
2.61421E-01 5.66432E-26
2.65264E-01 5.47019E-26
2.69126E-01 5.28397E-26
2.73005E-01 5.10529E-26
2.76901E-01 4.93377E-26
2.80814E-01 4.76909E-26
2.84744E-01 4.61093E-26
2.88691E-01 4.45898E-26
2.92653E-01 4.31295E-26
2.96632E-01 4.17258E-26
3.00625E-01 4.03760E-26
3.04634E-01 3.90777E-26
3.08658E-01 3.78287E-26
3.12697E-01 3.66267E-26
3.16749E-01 3.54697E-26
3.20816E-01 3.43557E-26
3.24896E-01 3.32827E-26
3.28990E-01 3.22491E-26
3.33097E-01 3.12531E-26
3.37216E-01 3.02932E-26
3.41348E-01 2.93677E-26
3.45492E-01 2.84753E-26
3.49647E-01 2.76146E-26
3.53814E-01 2.67842E-26
3.57992E-01 2.59829E-26
3.62181E-01 2.52095E-26
3.66381E-01 2.44629E-26
3.70590E-01 2.37420E-26
3.74810E-01 2.30457E-26
3.79039E-01 2.23730E-26
3.83277E-01 2.17231E-26
3.87524E-01 2.10950E-26
3.91780E-01 2.04879E-26
3.96044E-01 1.99009E-26
4.00316E-01 1.93333E-26
4.04596E-01 1.87843E-26
4.08882E-01 1.82532E-26
4.13176E-01 1.77393E-26
4.17476E-01 1.72420E-26
4.21783E-01 1.67606E-26
4.26095E-01 1.62946E-26
4.30413E-01 1.58433E-26
4.34737E-01 1.54063E-26
4.39065E-01 1.49830E-26
4.43398E-01 1.45729E-26
4.47736E-01 1.41755E-26
4.52077E-01 1.37904E-26
4.56422E-01 1.34172E-26
4.60770E-01 1.30553E-26
4.65122E-01 1.27044E-26
4.69476E-01 1.23641E-26
4.73832E-01 1.20341E-26
4.78190E-01 1.17139E-26
4.82550E-01 1.14033E-26
4.86912E-01 1.11018E-26
4.91274E-01 1.08093E-26
4.95637E-01 1.05253E-26
5.00000E-01 1.02496E-26
5.04363E-01 9.98197E-27
5.08726E-01 9.72204E-27
5.13088E-01 9.46958E-27
5.17450E-01 9.22436E-27
5.21810E-01 8.98612E-27
5.26168E-01 8.75464E-27
5.30524E-01 8.52970E-27
5.34878E-01 8.31108E-27
5.39230E-01 8.09857E-27
5.43578E-01 7.89199E-27
5.47923E-01 7.69113E-27
5.52264E-01 7.49582E-27
5.56602E-01 7.30587E-27
5.60935E-01 7.12112E-27
5.65263E-01 6.94141E-27
5.69587E-01 6.76657E-27
5.73905E-01 6.59645E-27
5.78217E-01 6.43091E-27
5.82524E-01 6.26980E-27
5.86824E-01 6.11298E-27
5.91118E-01 5.96034E-27
5.95404E-01 5.81173E-27
5.99684E-01 5.66703E-27
6.03956E-01 5.52614E-27
6.08220E-01 5.38892E-27
6.12476E-01 5.25528E-27
6.16723E-01 5.12510E-27
6.20961E-01 4.99829E-27
6.25190E-01 4.87473E-27
6.29410E-01 4.75435E-27
6.33619E-01 4.63704E-27
6.37819E-01 4.52271E-27
6.42008E-01 4.41128E-27
6.46186E-01 4.30267E-27
6.50353E-01 4.19678E-27
6.54508E-01 4.09356E-27
6.58652E-01 3.99291E-27
6.62784E-01 3.89477E-27
6.66903E-01 3.79906E-27
6.71010E-01 3.70572E-27
6.75104E-01 3.61468E-27
6.79184E-01 3.52587E-27
6.83251E-01 3.43924E-27
6.87303E-01 3.35472E-27
6.91342E-01 3.27226E-27
6.95366E-01 3.19179E-27
6.99375E-01 3.11327E-27
7.03368E-01 3.03665E-27
7.07347E-01 2.96186E-27
7.11309E-01 2.88886E-27
7.15256E-01 2.81761E-27
7.19186E-01 2.74805E-27
7.23099E-01 2.68014E-27
7.26995E-01 2.61385E-27
7.30874E-01 2.54911E-27
7.34736E-01 2.48590E-27
7.38579E-01 2.42417E-27
7.42405E-01 2.36389E-27
7.46212E-01 2.30502E-27
7.50000E-01 2.24752E-27
7.53769E-01 2.19135E-27
7.57519E-01 2.13649E-27
7.61249E-01 2.08290E-27
7.64960E-01 2.03054E-27
7.68650E-01 1.97939E-27
7.72320E-01 1.92941E-27
7.75968E-01 1.88058E-27
7.79596E-01 1.83286E-27
7.83203E-01 1.78624E-27
7.86788E-01 1.74068E-27
7.90351E-01 1.69615E-27
7.93893E-01 1.65264E-27
7.97411E-01 1.61011E-27
8.00908E-01 1.56854E-27
8.04381E-01 1.52792E-27
8.07831E-01 1.48821E-27
8.11257E-01 1.44939E-27
8.14660E-01 1.41145E-27
8.18039E-01 1.37436E-27
8.21394E-01 1.33810E-27
8.24724E-01 1.30266E-27
8.28030E-01 1.26801E-27
8.31310E-01 1.23413E-27
8.34565E-01 1.20101E-27
8.37795E-01 1.16864E-27
8.40999E-01 1.13698E-27
8.44177E-01 1.10604E-27
8.47329E-01 1.07578E-27
8.50455E-01 1.04620E-27
8.53553E-01 1.01727E-27
8.56625E-01 9.88997E-28
8.59670E-01 9.61350E-28
8.62687E-01 9.34320E-28
8.65677E-01 9.07894E-28
8.68639E-01 8.82057E-28
8.71572E-01 8.56798E-28
8.74478E-01 8.32103E-28
8.77355E-01 8.07961E-28
8.80203E-01 7.84359E-28
8.83022E-01 7.61287E-28
8.85812E-01 7.38733E-28
8.88573E-01 7.16687E-28
8.91304E-01 6.95137E-28
8.94005E-01 6.74073E-28
8.96677E-01 6.53486E-28
8.99318E-01 6.33365E-28
9.01928E-01 6.13702E-28
9.04508E-01 5.94487E-28
9.07058E-01 5.75710E-28
9.09576E-01 5.57364E-28
9.12063E-01 5.39440E-28
9.14519E-01 5.21929E-28
9.16943E-01 5.04824E-28
9.19335E-01 4.88117E-28
9.21696E-01 4.71800E-28
9.24024E-01 4.55866E-28
9.26320E-01 4.40307E-28
9.28584E-01 4.25117E-28
9.30815E-01 4.10289E-28
9.33013E-01 3.95816E-28
9.35178E-01 3.81692E-28
9.37310E-01 3.67911E-28
9.39409E-01 3.54466E-28
9.41474E-01 3.41352E-28
9.43505E-01 3.28562E-28
9.45503E-01 3.16092E-28
9.47467E-01 3.03936E-28
9.49397E-01 2.92088E-28
9.51293E-01 2.80544E-28
9.53154E-01 2.69299E-28
9.54981E-01 2.58348E-28
9.56773E-01 2.47685E-28
9.58530E-01 2.37307E-28
9.60252E-01 2.27210E-28
9.61940E-01 2.17388E-28
9.63592E-01 2.07838E-28
9.65209E-01 1.98556E-28
9.66790E-01 1.89537E-28
9.68336E-01 1.80779E-28
9.69846E-01 1.72277E-28
9.71321E-01 1.64028E-28
9.72759E-01 1.56029E-28
9.74162E-01 1.48276E-28
9.75528E-01 1.40765E-28
9.76858E-01 1.33495E-28
9.78152E-01 1.26462E-28
9.79410E-01 1.19663E-28
9.80631E-01 1.13095E-28
9.81815E-01 1.06755E-28
9.82963E-01 1.00642E-28
9.84074E-01 9.47519E-29
9.85148E-01 8.90832E-29
9.86185E-01 8.36334E-29
9.87185E-01 7.84002E-29
9.88148E-01 7.33815E-29
9.89074E-01 6.85754E-29
9.89962E-01 6.39799E-29
9.90814E-01 5.95932E-29
9.91627E-01 5.54134E-29
9.92404E-01 5.14391E-29
9.93143E-01 4.76684E-29
9.93844E-01 4.41000E-29
9.94508E-01 4.07324E-29
9.95134E-01 3.75643E-29
9.95722E-01 3.45945E-29
9.96273E-01 3.18217E-29
9.96786E-01 2.92449E-29
9.97261E-01 2.68630E-29
9.97698E-01 2.46751E-29
9.98097E-01 2.26803E-29
9.98459E-01 2.08779E-29
9.98782E-01 1.92671E-29
9.99067E-01 1.78472E-29
9.99315E-01 1.66179E-29
9.99524E-01 1.55784E-29
9.99695E-01 1.47286E-29
9.99829E-01 1.40679E-29
9.99924E-01 1.35962E-29
9.99981E-01 1.33132E-29
1.00000E+00 1.32190E-29
