 #
 # Subroutine ELSEPA. Elastic scattering of electrons and positrons
 #                    by neutral atoms and positive ions
 #
 # Projectile: positron
 # Kinetic energy = 3.00000E+06 eV = 1.10248E+05 a.u.
 #
 # WARNING: High-energy factorization with free-atom DF screening.
 #          Absorption, polarization and exchange corrections are
 #          switched off.
 #          Phase shifts are calculated for the bare nucleus.
 #          Scattering amplitudes are not evaluated.
 #
 # Element: Na,  Z =  11,  atomic weight = 2.29898E+01 g/mol
 #
 # Nuclear model: Fermi distribution
 #                Average radius = 3.04249E-13 cm
 #                Skin thickness = 5.46000E-14 cm
 #
 # Number of electrons = 11
 #
 # Total elastic cross section = 4.76862E-19 cm**2 = 1.70290E-02 a0**2
 # 1st transport cross section = 1.42435E-23 cm**2 = 5.08644E-07 a0**2
 # 2nd transport cross section = 4.08331E-23 cm**2 = 1.45818E-06 a0**2
 #
 #
 # Differential cross section:                       MU=(1-COS(THETA))/2
 #
 #  THETA        MU          DCS          DCS        Sherman      error
 #  (deg)                 (cm**2/sr)   (a0**2/sr)    function
 #----------------------------------------------------------------------
0.00000E+00 1.07656E-13
7.61557E-13 1.07655E-13
1.18994E-12 1.07655E-13
1.71346E-12 1.07654E-13
2.33225E-12 1.07654E-13
3.04617E-12 1.07653E-13
3.85530E-12 1.07652E-13
4.75964E-12 1.07651E-13
5.75917E-12 1.07650E-13
6.85391E-12 1.07649E-13
8.04379E-12 1.07648E-13
9.32893E-12 1.07646E-13
1.07092E-11 1.07645E-13
1.21847E-11 1.07643E-13
1.37554E-11 1.07642E-13
1.54213E-11 1.07640E-13
1.71823E-11 1.07638E-13
1.90386E-11 1.07636E-13
2.09900E-11 1.07634E-13
2.30367E-11 1.07632E-13
2.51785E-11 1.07630E-13
2.74156E-11 1.07627E-13
2.97478E-11 1.07625E-13
3.21752E-11 1.07622E-13
3.46979E-11 1.07620E-13
3.73157E-11 1.07617E-13
4.00286E-11 1.07614E-13
4.28368E-11 1.07611E-13
4.57402E-11 1.07608E-13
4.87388E-11 1.07605E-13
5.18325E-11 1.07602E-13
5.50215E-11 1.07598E-13
5.83057E-11 1.07595E-13
6.16850E-11 1.07591E-13
6.51595E-11 1.07588E-13
6.87293E-11 1.07584E-13
7.23943E-11 1.07580E-13
7.61544E-11 1.07576E-13
1.18991E-10 1.07531E-13
1.71347E-10 1.07476E-13
2.33223E-10 1.07412E-13
3.04617E-10 1.07337E-13
3.85531E-10 1.07253E-13
4.75965E-10 1.07159E-13
5.75917E-10 1.07055E-13
6.85389E-10 1.06941E-13
8.04380E-10 1.06818E-13
9.32891E-10 1.06685E-13
1.07092E-09 1.06543E-13
1.21847E-09 1.06391E-13
1.37554E-09 1.06230E-13
1.54213E-09 1.06059E-13
1.71823E-09 1.05879E-13
1.90386E-09 1.05690E-13
2.09900E-09 1.05492E-13
2.30367E-09 1.05284E-13
2.51785E-09 1.05068E-13
2.74156E-09 1.04842E-13
2.97478E-09 1.04608E-13
3.21752E-09 1.04365E-13
3.46978E-09 1.04114E-13
3.73156E-09 1.03853E-13
4.00286E-09 1.03585E-13
4.28368E-09 1.03308E-13
4.57402E-09 1.03023E-13
4.87388E-09 1.02729E-13
5.18326E-09 1.02428E-13
5.50215E-09 1.02119E-13
5.83057E-09 1.01802E-13
6.16850E-09 1.01477E-13
6.51596E-09 1.01144E-13
6.87293E-09 1.00805E-13
7.23942E-09 1.00458E-13
7.61544E-09 1.00104E-13
1.18991E-08 9.61949E-14
1.71347E-08 9.17169E-14
2.33223E-08 8.68124E-14
3.04617E-08 8.16278E-14
3.85531E-08 7.62940E-14
4.75965E-08 7.09404E-14
5.75917E-08 6.56640E-14
6.85389E-08 6.05560E-14
8.04380E-08 5.56776E-14
9.32891E-08 5.10769E-14
1.07092E-07 4.67840E-14
1.21847E-07 4.28108E-14
1.37554E-07 3.92735E-14
1.54213E-07 3.60269E-14
1.71823E-07 3.29860E-14
1.90386E-07 3.01520E-14
2.09900E-07 2.76814E-14
2.30367E-07 2.55227E-14
2.51785E-07 2.35221E-14
2.74156E-07 2.16725E-14
2.97478E-07 2.00457E-14
3.21752E-07 1.86408E-14
3.46978E-07 1.73425E-14
3.73156E-07 1.61438E-14
4.00286E-07 1.50718E-14
4.28368E-07 1.41432E-14
4.57402E-07 1.32843E-14
4.87388E-07 1.24897E-14
5.18325E-07 1.17665E-14
5.50215E-07 1.11304E-14
5.83057E-07 1.05405E-14
6.16850E-07 9.99306E-15
6.51596E-07 9.48769E-15
6.87293E-07 9.03250E-15
7.23942E-07 8.60900E-15
7.61543E-07 8.21470E-15
1.18991E-06 5.44351E-15
1.71347E-06 3.83333E-15
2.33223E-06 2.77806E-15
3.04617E-06 2.04107E-15
3.85531E-06 1.51739E-15
4.75964E-06 1.13692E-15
5.75916E-06 8.60526E-16
6.85388E-06 6.57242E-16
8.04378E-06 5.07056E-16
9.32888E-06 3.95140E-16
1.07092E-05 3.11021E-16
1.21846E-05 2.47298E-16
1.37553E-05 1.98287E-16
1.54212E-05 1.60915E-16
1.71822E-05 1.31512E-16
1.90385E-05 1.08543E-16
2.09899E-05 9.02998E-17
2.30365E-05 7.57032E-17
2.51783E-05 6.39514E-17
2.74153E-05 5.43759E-17
2.97475E-05 4.65428E-17
3.21749E-05 4.00794E-17
3.46974E-05 3.47069E-17
3.73152E-05 3.02174E-17
4.00281E-05 2.64374E-17
4.28362E-05 2.32386E-17
4.57395E-05 2.05166E-17
4.87380E-05 1.81857E-17
5.18317E-05 1.61823E-17
5.50205E-05 1.44505E-17
5.83045E-05 1.29474E-17
6.16838E-05 1.16381E-17
6.51582E-05 1.04910E-17
6.87277E-05 9.48437E-18
7.23925E-05 8.59685E-18
7.61524E-05 7.81159E-18
9.21439E-05 5.44680E-18
1.09658E-04 3.91646E-18
1.28695E-04 2.88908E-18
1.49255E-04 2.17762E-18
1.71338E-04 1.67197E-18
1.94942E-04 1.30461E-18
2.20070E-04 1.03242E-18
2.46720E-04 8.27410E-19
2.74892E-04 6.70588E-19
3.04586E-04 5.49065E-19
3.35803E-04 4.53722E-19
3.68542E-04 3.78109E-19
4.02802E-04 3.17536E-19
4.38585E-04 2.68564E-19
4.75889E-04 2.28640E-19
5.14715E-04 1.95832E-19
5.55063E-04 1.68681E-19
5.96931E-04 1.46057E-19
6.40321E-04 1.27088E-19
6.85233E-04 1.11091E-19
7.31665E-04 9.75242E-20
7.79618E-04 8.59603E-20
8.29092E-04 7.60555E-20
8.80086E-04 6.75330E-20
9.32601E-04 6.01681E-20
9.86636E-04 5.37779E-20
1.04219E-03 4.82116E-20
1.09927E-03 4.33456E-20
1.15786E-03 3.90768E-20
1.21797E-03 3.53197E-20
1.27961E-03 3.20024E-20
1.34276E-03 2.90649E-20
1.40743E-03 2.64561E-20
1.47362E-03 2.41329E-20
1.54133E-03 2.20588E-20
1.61056E-03 2.02024E-20
1.68131E-03 1.85369E-20
1.75357E-03 1.70392E-20
1.82735E-03 1.56895E-20
1.90265E-03 1.44706E-20
1.97947E-03 1.33676E-20
2.05780E-03 1.23675E-20
2.13765E-03 1.14591E-20
2.21902E-03 1.06325E-20
2.30190E-03 9.87890E-21
2.38630E-03 9.19083E-21
2.47222E-03 8.56153E-21
2.55965E-03 7.98510E-21
2.64859E-03 7.45630E-21
2.73905E-03 6.97049E-21
2.83103E-03 6.52355E-21
2.92452E-03 6.11180E-21
3.01952E-03 5.73198E-21
3.11604E-03 5.38117E-21
3.21407E-03 5.05674E-21
3.31362E-03 4.75637E-21
3.41468E-03 4.47793E-21
3.51725E-03 4.21954E-21
3.62133E-03 3.97949E-21
3.72692E-03 3.75624E-21
3.83403E-03 3.54840E-21
3.94265E-03 3.35472E-21
4.05278E-03 3.17405E-21
4.16442E-03 3.00537E-21
4.27757E-03 2.84772E-21
4.39223E-03 2.70026E-21
4.50840E-03 2.56220E-21
4.62608E-03 2.43284E-21
4.74527E-03 2.31153E-21
4.86597E-03 2.19767E-21
4.98817E-03 2.09072E-21
5.11188E-03 1.99019E-21
5.23711E-03 1.89562E-21
5.36383E-03 1.80659E-21
5.49207E-03 1.72272E-21
5.62181E-03 1.64365E-21
5.75306E-03 1.56905E-21
5.88581E-03 1.49863E-21
6.02007E-03 1.43211E-21
6.15583E-03 1.36923E-21
6.29310E-03 1.30976E-21
6.43187E-03 1.25348E-21
6.57214E-03 1.20018E-21
6.71392E-03 1.14968E-21
6.85720E-03 1.10180E-21
7.00198E-03 1.05638E-21
7.14827E-03 1.01327E-21
7.29605E-03 9.72333E-22
7.44534E-03 9.33436E-22
7.59612E-03 8.96461E-22
7.97965E-03 8.11711E-22
8.37255E-03 7.36723E-22
8.77480E-03 6.70180E-22
9.18641E-03 6.10967E-22
9.60736E-03 5.58138E-22
1.00376E-02 5.10884E-22
1.04773E-02 4.68516E-22
1.09262E-02 4.30439E-22
1.13844E-02 3.96144E-22
1.18520E-02 3.65188E-22
1.23288E-02 3.37191E-22
1.28150E-02 3.11818E-22
1.33104E-02 2.88782E-22
1.38150E-02 2.67828E-22
1.43290E-02 2.48735E-22
1.48521E-02 2.31309E-22
1.53845E-02 2.15378E-22
1.59262E-02 2.00791E-22
1.64770E-02 1.87414E-22
1.70371E-02 1.75129E-22
1.76063E-02 1.63832E-22
1.81848E-02 1.53428E-22
1.87724E-02 1.43833E-22
1.93692E-02 1.34975E-22
1.99751E-02 1.26786E-22
2.05901E-02 1.19206E-22
2.12143E-02 1.12182E-22
2.18476E-02 1.05666E-22
2.24900E-02 9.96150E-23
2.31415E-02 9.39889E-23
2.38021E-02 8.87528E-23
2.44717E-02 8.38748E-23
2.51504E-02 7.93260E-23
2.58382E-02 7.50801E-23
2.65349E-02 7.11133E-23
2.72407E-02 6.74038E-23
2.79555E-02 6.39321E-23
2.86793E-02 6.06799E-23
2.94120E-02 5.76310E-23
3.01537E-02 5.47703E-23
3.09043E-02 5.20840E-23
3.16639E-02 4.95597E-23
3.24324E-02 4.71856E-23
3.32098E-02 4.49513E-23
3.39961E-02 4.28470E-23
3.47912E-02 4.08637E-23
3.55952E-02 3.89933E-23
3.64081E-02 3.72281E-23
3.72297E-02 3.55611E-23
3.80602E-02 3.39858E-23
3.88995E-02 3.24963E-23
3.97476E-02 3.10870E-23
4.06044E-02 2.97529E-23
4.14700E-02 2.84891E-23
4.23443E-02 2.72913E-23
4.32273E-02 2.61555E-23
4.41190E-02 2.50777E-23
4.50194E-02 2.40545E-23
4.59284E-02 2.30826E-23
4.68461E-02 2.21590E-23
4.87074E-02 2.04454E-23
5.06030E-02 1.88932E-23
5.25328E-02 1.74846E-23
5.44967E-02 1.62039E-23
5.64946E-02 1.50375E-23
5.85262E-02 1.39734E-23
6.05914E-02 1.30011E-23
6.26901E-02 1.21113E-23
6.48222E-02 1.12956E-23
6.69873E-02 1.05469E-23
6.91854E-02 9.85874E-24
7.14163E-02 9.22527E-24
7.36799E-02 8.64141E-24
7.59760E-02 8.10259E-24
7.83043E-02 7.60472E-24
8.06647E-02 7.14414E-24
8.30571E-02 6.71755E-24
8.54812E-02 6.32200E-24
8.79369E-02 5.95483E-24
9.04240E-02 5.61364E-24
9.29422E-02 5.29627E-24
9.54915E-02 5.00075E-24
9.80716E-02 4.72532E-24
1.00682E-01 4.46837E-24
1.03323E-01 4.22843E-24
1.05995E-01 4.00418E-24
1.08696E-01 3.79440E-24
1.11427E-01 3.59800E-24
1.14188E-01 3.41397E-24
1.16978E-01 3.24139E-24
1.19797E-01 3.07943E-24
1.22645E-01 2.92731E-24
1.25522E-01 2.78432E-24
1.28428E-01 2.64983E-24
1.31361E-01 2.52323E-24
1.34323E-01 2.40398E-24
1.37313E-01 2.29158E-24
1.40330E-01 2.18555E-24
1.43375E-01 2.08549E-24
1.46447E-01 1.99098E-24
1.49545E-01 1.90167E-24
1.52671E-01 1.81723E-24
1.55823E-01 1.73732E-24
1.59001E-01 1.66168E-24
1.62205E-01 1.59003E-24
1.65435E-01 1.52212E-24
1.68690E-01 1.45773E-24
1.71970E-01 1.39663E-24
1.75276E-01 1.33863E-24
1.78606E-01 1.28354E-24
1.81961E-01 1.23120E-24
1.85340E-01 1.18143E-24
1.88743E-01 1.13410E-24
1.92169E-01 1.08905E-24
1.95619E-01 1.04617E-24
1.99092E-01 1.00532E-24
2.02589E-01 9.66398E-25
2.06107E-01 9.29292E-25
2.09649E-01 8.93902E-25
2.13212E-01 8.60135E-25
2.16797E-01 8.27903E-25
2.20404E-01 7.97125E-25
2.24032E-01 7.67722E-25
2.27680E-01 7.39623E-25
2.31350E-01 7.12760E-25
2.35040E-01 6.87067E-25
2.38751E-01 6.62486E-25
2.42481E-01 6.38960E-25
2.46231E-01 6.16435E-25
2.50000E-01 5.94860E-25
2.53788E-01 5.74190E-25
2.57595E-01 5.54379E-25
2.61421E-01 5.35385E-25
2.65264E-01 5.17169E-25
2.69126E-01 4.99692E-25
2.73005E-01 4.82920E-25
2.76901E-01 4.66820E-25
2.80814E-01 4.51358E-25
2.84744E-01 4.36507E-25
2.88691E-01 4.22237E-25
2.92653E-01 4.08522E-25
2.96632E-01 3.95335E-25
3.00625E-01 3.82654E-25
3.04634E-01 3.70456E-25
3.08658E-01 3.58718E-25
3.12697E-01 3.47421E-25
3.16749E-01 3.36545E-25
3.20816E-01 3.26071E-25
3.24896E-01 3.15983E-25
3.28990E-01 3.06262E-25
3.33097E-01 2.96895E-25
3.37216E-01 2.87864E-25
3.41348E-01 2.79158E-25
3.45492E-01 2.70760E-25
3.49647E-01 2.62660E-25
3.53814E-01 2.54844E-25
3.57992E-01 2.47301E-25
3.62181E-01 2.40019E-25
3.66381E-01 2.32988E-25
3.70590E-01 2.26198E-25
3.74810E-01 2.19639E-25
3.79039E-01 2.13302E-25
3.83277E-01 2.07178E-25
3.87524E-01 2.01259E-25
3.91780E-01 1.95536E-25
3.96044E-01 1.90002E-25
4.00316E-01 1.84650E-25
4.04596E-01 1.79473E-25
4.08882E-01 1.74463E-25
4.13176E-01 1.69616E-25
4.17476E-01 1.64923E-25
4.21783E-01 1.60381E-25
4.26095E-01 1.55982E-25
4.30413E-01 1.51723E-25
4.34737E-01 1.47597E-25
4.39065E-01 1.43599E-25
4.43398E-01 1.39726E-25
4.47736E-01 1.35972E-25
4.52077E-01 1.32334E-25
4.56422E-01 1.28806E-25
4.60770E-01 1.25386E-25
4.65122E-01 1.22069E-25
4.69476E-01 1.18851E-25
4.73832E-01 1.15730E-25
4.78190E-01 1.12702E-25
4.82550E-01 1.09763E-25
4.86912E-01 1.06911E-25
4.91274E-01 1.04143E-25
4.95637E-01 1.01455E-25
5.00000E-01 9.88447E-26
5.04363E-01 9.63101E-26
5.08726E-01 9.38482E-26
5.13088E-01 9.14568E-26
5.17450E-01 8.91333E-26
5.21810E-01 8.68757E-26
5.26168E-01 8.46816E-26
5.30524E-01 8.25491E-26
5.34878E-01 8.04761E-26
5.39230E-01 7.84607E-26
5.43578E-01 7.65011E-26
5.47923E-01 7.45954E-26
5.52264E-01 7.27419E-26
5.56602E-01 7.09390E-26
5.60935E-01 6.91850E-26
5.65263E-01 6.74785E-26
5.69587E-01 6.58180E-26
5.73905E-01 6.42019E-26
5.78217E-01 6.26290E-26
5.82524E-01 6.10979E-26
5.86824E-01 5.96074E-26
5.91118E-01 5.81561E-26
5.95404E-01 5.67429E-26
5.99684E-01 5.53666E-26
6.03956E-01 5.40262E-26
6.08220E-01 5.27205E-26
6.12476E-01 5.14485E-26
6.16723E-01 5.02093E-26
6.20961E-01 4.90018E-26
6.25190E-01 4.78251E-26
6.29410E-01 4.66783E-26
6.33619E-01 4.55605E-26
6.37819E-01 4.44710E-26
6.42008E-01 4.34088E-26
6.46186E-01 4.23732E-26
6.50353E-01 4.13634E-26
6.54508E-01 4.03788E-26
6.58652E-01 3.94185E-26
6.62784E-01 3.84819E-26
6.66903E-01 3.75684E-26
6.71010E-01 3.66772E-26
6.75104E-01 3.58078E-26
6.79184E-01 3.49596E-26
6.83251E-01 3.41319E-26
6.87303E-01 3.33242E-26
6.91342E-01 3.25360E-26
6.95366E-01 3.17668E-26
6.99375E-01 3.10159E-26
7.03368E-01 3.02830E-26
7.07347E-01 2.95675E-26
7.11309E-01 2.88689E-26
7.15256E-01 2.81869E-26
7.19186E-01 2.75210E-26
7.23099E-01 2.68707E-26
7.26995E-01 2.62357E-26
7.30874E-01 2.56155E-26
7.34736E-01 2.50097E-26
7.38579E-01 2.44181E-26
7.42405E-01 2.38401E-26
7.46212E-01 2.32756E-26
7.50000E-01 2.27240E-26
7.53769E-01 2.21851E-26
7.57519E-01 2.16586E-26
7.61249E-01 2.11442E-26
7.64960E-01 2.06415E-26
7.68650E-01 2.01503E-26
7.72320E-01 1.96702E-26
7.75968E-01 1.92010E-26
7.79596E-01 1.87425E-26
7.83203E-01 1.82943E-26
7.86788E-01 1.78562E-26
7.90351E-01 1.74280E-26
7.93893E-01 1.70095E-26
7.97411E-01 1.66003E-26
8.00908E-01 1.62002E-26
8.04381E-01 1.58091E-26
8.07831E-01 1.54268E-26
8.11257E-01 1.50530E-26
8.14660E-01 1.46875E-26
8.18039E-01 1.43301E-26
8.21394E-01 1.39807E-26
8.24724E-01 1.36390E-26
8.28030E-01 1.33049E-26
8.31310E-01 1.29782E-26
8.34565E-01 1.26587E-26
8.37795E-01 1.23463E-26
8.40999E-01 1.20408E-26
8.44177E-01 1.17420E-26
8.47329E-01 1.14499E-26
8.50455E-01 1.11642E-26
8.53553E-01 1.08848E-26
8.56625E-01 1.06115E-26
8.59670E-01 1.03443E-26
8.62687E-01 1.00830E-26
8.65677E-01 9.82751E-27
8.68639E-01 9.57763E-27
8.71572E-01 9.33329E-27
8.74478E-01 9.09435E-27
8.77355E-01 8.86070E-27
8.80203E-01 8.63224E-27
8.83022E-01 8.40885E-27
8.85812E-01 8.19043E-27
8.88573E-01 7.97688E-27
8.91304E-01 7.76809E-27
8.94005E-01 7.56397E-27
8.96677E-01 7.36442E-27
8.99318E-01 7.16935E-27
9.01928E-01 6.97868E-27
9.04508E-01 6.79231E-27
9.07058E-01 6.61016E-27
9.09576E-01 6.43215E-27
9.12063E-01 6.25820E-27
9.14519E-01 6.08822E-27
9.16943E-01 5.92215E-27
9.19335E-01 5.75991E-27
9.21696E-01 5.60142E-27
9.24024E-01 5.44662E-27
9.26320E-01 5.29544E-27
9.28584E-01 5.14782E-27
9.30815E-01 5.00368E-27
9.33013E-01 4.86297E-27
9.35178E-01 4.72563E-27
9.37310E-01 4.59159E-27
9.39409E-01 4.46080E-27
9.41474E-01 4.33320E-27
9.43505E-01 4.20875E-27
9.45503E-01 4.08737E-27
9.47467E-01 3.96904E-27
9.49397E-01 3.85368E-27
9.51293E-01 3.74127E-27
9.53154E-01 3.63174E-27
9.54981E-01 3.52506E-27
9.56773E-01 3.42118E-27
9.58530E-01 3.32005E-27
9.60252E-01 3.22164E-27
9.61940E-01 3.12590E-27
9.63592E-01 3.03280E-27
9.65209E-01 2.94229E-27
9.66790E-01 2.85435E-27
9.68336E-01 2.76892E-27
9.69846E-01 2.68599E-27
9.71321E-01 2.60551E-27
9.72759E-01 2.52746E-27
9.74162E-01 2.45180E-27
9.75528E-01 2.37850E-27
9.76858E-01 2.30754E-27
9.78152E-01 2.23888E-27
9.79410E-01 2.17249E-27
9.80631E-01 2.10836E-27
9.81815E-01 2.04645E-27
9.82963E-01 1.98674E-27
9.84074E-01 1.92921E-27
9.85148E-01 1.87383E-27
9.86185E-01 1.82059E-27
9.87185E-01 1.76945E-27
9.88148E-01 1.72041E-27
9.89074E-01 1.67344E-27
9.89962E-01 1.62853E-27
9.90814E-01 1.58565E-27
9.91627E-01 1.54479E-27
9.92404E-01 1.50594E-27
9.93143E-01 1.46908E-27
9.93844E-01 1.43419E-27
9.94508E-01 1.40126E-27
9.95134E-01 1.37028E-27
9.95722E-01 1.34124E-27
9.96273E-01 1.31412E-27
9.96786E-01 1.28892E-27
9.97261E-01 1.26562E-27
9.97698E-01 1.24422E-27
9.98097E-01 1.22471E-27
9.98459E-01 1.20708E-27
9.98782E-01 1.19132E-27
9.99067E-01 1.17743E-27
9.99315E-01 1.16541E-27
9.99524E-01 1.15524E-27
9.99695E-01 1.14692E-27
9.99829E-01 1.14046E-27
9.99924E-01 1.13585E-27
9.99981E-01 1.13308E-27
1.00000E+00 1.13216E-27
