 #
 # Subroutine ELSEPA. Elastic scattering of electrons and positrons
 #                    by neutral atoms and positive ions
 #
 # Projectile: positron
 # Kinetic energy = 8.00000E+07 eV = 2.93995E+06 a.u.
 #
 # WARNING: High-energy factorization with free-atom DF screening.
 #          Absorption, polarization and exchange corrections are
 #          switched off.
 #          Phase shifts are calculated for the bare nucleus.
 #          Scattering amplitudes are not evaluated.
 #
 # Element: Na,  Z =  11,  atomic weight = 2.29898E+01 g/mol
 #
 # Nuclear model: Fermi distribution
 #                Average radius = 3.04249E-13 cm
 #                Skin thickness = 5.46000E-14 cm
 #
 # Number of electrons = 11
 #
 # Total elastic cross section = 4.66659E-19 cm**2 = 1.66647E-02 a0**2
 # 1st transport cross section = 3.95440E-26 cm**2 = 1.41214E-09 a0**2
 # 2nd transport cross section = 1.16660E-25 cm**2 = 4.16601E-09 a0**2
 #
 #
 # Differential cross section:                       MU=(1-COS(THETA))/2
 #
 #  THETA        MU          DCS          DCS        Sherman      error
 #  (deg)                 (cm**2/sr)   (a0**2/sr)    function
 #----------------------------------------------------------------------
0.00000E+00 5.66094E-11
7.61557E-13 5.63846E-11
1.18994E-12 5.62590E-11
1.71346E-12 5.61060E-11
2.33225E-12 5.59260E-11
3.04617E-12 5.57195E-11
3.85530E-12 5.54867E-11
4.75964E-12 5.52283E-11
5.75917E-12 5.49447E-11
6.85391E-12 5.46365E-11
8.04379E-12 5.43045E-11
9.32893E-12 5.39490E-11
1.07092E-11 5.35713E-11
1.21847E-11 5.31714E-11
1.37554E-11 5.27510E-11
1.54213E-11 5.23102E-11
1.71823E-11 5.18501E-11
1.90386E-11 5.13717E-11
2.09900E-11 5.08754E-11
2.30367E-11 5.03630E-11
2.51785E-11 4.98341E-11
2.74156E-11 4.92914E-11
2.97478E-11 4.87342E-11
3.21752E-11 4.81645E-11
3.46979E-11 4.75827E-11
3.73157E-11 4.69898E-11
4.00286E-11 4.63874E-11
4.28368E-11 4.57748E-11
4.57402E-11 4.51557E-11
4.87388E-11 4.45280E-11
5.18325E-11 4.38949E-11
5.50215E-11 4.32560E-11
5.83057E-11 4.26124E-11
6.16850E-11 4.19656E-11
6.51595E-11 4.13148E-11
6.87293E-11 4.06637E-11
7.23943E-11 4.00096E-11
7.61544E-11 3.93565E-11
1.18991E-10 3.29363E-11
1.71347E-10 2.70788E-11
2.33223E-10 2.20693E-11
3.04617E-10 1.80658E-11
3.85531E-10 1.47235E-11
4.75965E-10 1.21919E-11
5.75917E-10 1.01690E-11
6.85389E-10 8.60431E-12
8.04380E-10 7.37710E-12
9.32891E-10 6.39156E-12
1.07092E-09 5.61401E-12
1.21847E-09 4.96914E-12
1.37554E-09 4.44275E-12
1.54213E-09 3.99737E-12
1.71823E-09 3.61980E-12
1.90386E-09 3.29341E-12
2.09900E-09 3.01076E-12
2.30367E-09 2.75939E-12
2.51785E-09 2.53974E-12
2.74156E-09 2.33911E-12
2.97478E-09 2.16144E-12
3.21752E-09 1.99907E-12
3.46978E-09 1.85197E-12
3.73156E-09 1.71839E-12
4.00286E-09 1.59467E-12
4.28368E-09 1.48343E-12
4.57402E-09 1.37828E-12
4.87388E-09 1.28355E-12
5.18326E-09 1.19482E-12
5.50215E-09 1.11356E-12
5.83057E-09 1.03840E-12
6.16850E-09 9.68419E-13
6.51596E-09 9.04449E-13
6.87293E-09 8.44047E-13
7.23942E-09 7.89021E-13
7.61544E-09 7.37196E-13
1.18991E-08 3.85855E-13
1.71347E-08 2.12766E-13
2.33223E-08 1.23779E-13
3.04617E-08 7.58136E-14
3.85531E-08 4.87494E-14
4.75965E-08 3.26941E-14
5.75917E-08 2.27389E-14
6.85389E-08 1.63239E-14
8.04380E-08 1.20378E-14
9.32891E-08 9.08586E-15
1.07092E-07 6.99561E-15
1.21847E-07 5.47978E-15
1.37554E-07 4.35750E-15
1.54213E-07 3.51047E-15
1.71823E-07 2.86135E-15
1.90386E-07 2.35620E-15
2.09900E-07 1.95826E-15
2.30367E-07 1.64113E-15
2.51785E-07 1.38567E-15
2.74156E-07 1.17812E-15
2.97478E-07 1.00787E-15
3.21752E-07 8.67284E-16
3.46978E-07 7.50292E-16
3.73156E-07 6.52304E-16
4.00286E-07 5.69760E-16
4.28368E-07 4.99786E-16
4.57402E-07 4.40201E-16
4.87388E-07 3.89183E-16
5.18325E-07 3.45313E-16
5.50215E-07 3.07425E-16
5.83057E-07 2.74562E-16
6.16850E-07 2.45960E-16
6.51596E-07 2.20961E-16
6.87293E-07 1.99047E-16
7.23942E-07 1.79769E-16
7.61543E-07 1.62758E-16
1.18991E-06 6.74780E-17
1.71347E-06 3.27229E-17
2.33223E-06 1.77121E-17
3.04617E-06 1.03979E-17
3.85531E-06 6.49684E-18
4.75964E-06 4.26468E-18
5.75916E-06 2.91371E-18
6.85388E-06 2.05765E-18
8.04378E-06 1.49407E-18
9.32888E-06 1.11086E-18
1.07092E-05 8.42983E-19
1.21846E-05 6.51192E-19
1.37553E-05 5.10954E-19
1.54212E-05 4.06507E-19
1.71822E-05 3.27434E-19
1.90385E-05 2.66674E-19
2.09899E-05 2.19387E-19
2.30365E-05 1.82132E-19
2.51783E-05 1.52458E-19
2.74153E-05 1.28586E-19
2.97475E-05 1.09208E-19
3.21749E-05 9.33459E-20
3.46974E-05 8.02614E-20
3.73152E-05 6.93912E-20
4.00281E-05 6.03007E-20
4.28362E-05 5.26512E-20
4.57395E-05 4.61772E-20
4.87380E-05 4.06682E-20
5.18317E-05 3.59565E-20
5.50205E-05 3.19077E-20
5.83045E-05 2.84129E-20
6.16838E-05 2.53836E-20
6.51582E-05 2.27474E-20
6.87277E-05 2.04447E-20
7.23925E-05 1.84261E-20
7.61524E-05 1.66487E-20
9.21439E-05 1.13687E-20
1.09658E-04 8.02509E-21
1.28695E-04 5.82504E-21
1.49255E-04 4.32965E-21
1.71338E-04 3.28468E-21
1.94942E-04 2.53670E-21
2.20070E-04 1.98995E-21
2.46720E-04 1.58284E-21
2.74892E-04 1.27468E-21
3.04586E-04 1.03796E-21
3.35803E-04 8.53709E-22
3.68542E-04 7.08566E-22
4.02802E-04 5.92983E-22
4.38585E-04 5.00023E-22
4.75889E-04 4.24576E-22
5.14715E-04 3.62828E-22
5.55063E-04 3.11901E-22
5.96931E-04 2.69598E-22
6.40321E-04 2.34224E-22
6.85233E-04 2.04462E-22
7.31665E-04 1.79277E-22
7.79618E-04 1.57849E-22
8.29092E-04 1.39527E-22
8.80086E-04 1.23784E-22
9.32601E-04 1.10199E-22
9.86636E-04 9.84251E-23
1.04219E-03 8.81809E-23
1.09927E-03 7.92339E-23
1.15786E-03 7.13920E-23
1.21797E-03 6.44955E-23
1.27961E-03 5.84110E-23
1.34276E-03 5.30263E-23
1.40743E-03 4.82472E-23
1.47362E-03 4.39939E-23
1.54133E-03 4.01983E-23
1.61056E-03 3.68028E-23
1.68131E-03 3.37577E-23
1.75357E-03 3.10206E-23
1.82735E-03 2.85549E-23
1.90265E-03 2.63290E-23
1.97947E-03 2.43154E-23
2.05780E-03 2.24903E-23
2.13765E-03 2.08329E-23
2.21902E-03 1.93251E-23
2.30190E-03 1.79510E-23
2.38630E-03 1.66966E-23
2.47222E-03 1.55496E-23
2.55965E-03 1.44992E-23
2.64859E-03 1.35359E-23
2.73905E-03 1.26510E-23
2.83103E-03 1.18371E-23
2.92452E-03 1.10874E-23
3.01952E-03 1.03960E-23
3.11604E-03 9.75753E-24
3.21407E-03 9.16718E-24
3.31362E-03 8.62068E-24
3.41468E-03 8.11418E-24
3.51725E-03 7.64422E-24
3.62133E-03 7.20770E-24
3.72692E-03 6.80180E-24
3.83403E-03 6.42397E-24
3.94265E-03 6.07194E-24
4.05278E-03 5.74360E-24
4.16442E-03 5.43709E-24
4.27757E-03 5.15068E-24
4.39223E-03 4.88281E-24
4.50840E-03 4.63207E-24
4.62608E-03 4.39715E-24
4.74527E-03 4.17688E-24
4.86597E-03 3.97018E-24
4.98817E-03 3.77606E-24
5.11188E-03 3.59360E-24
5.23711E-03 3.42199E-24
5.36383E-03 3.26045E-24
5.49207E-03 3.10830E-24
5.62181E-03 2.96487E-24
5.75306E-03 2.82959E-24
5.88581E-03 2.70189E-24
6.02007E-03 2.58129E-24
6.15583E-03 2.46730E-24
6.29310E-03 2.35951E-24
6.43187E-03 2.25751E-24
6.57214E-03 2.16094E-24
6.71392E-03 2.06944E-24
6.85720E-03 1.98271E-24
7.00198E-03 1.90046E-24
7.14827E-03 1.82240E-24
7.29605E-03 1.74828E-24
7.44534E-03 1.67787E-24
7.59612E-03 1.61095E-24
7.97965E-03 1.45760E-24
8.37255E-03 1.32197E-24
8.77480E-03 1.20165E-24
9.18641E-03 1.09463E-24
9.60736E-03 9.99189E-25
1.00376E-02 9.13852E-25
1.04773E-02 8.37370E-25
1.09262E-02 7.68665E-25
1.13844E-02 7.06810E-25
1.18520E-02 6.51004E-25
1.23288E-02 6.00552E-25
1.28150E-02 5.54853E-25
1.33104E-02 5.13380E-25
1.38150E-02 4.75675E-25
1.43290E-02 4.41336E-25
1.48521E-02 4.10009E-25
1.53845E-02 3.81386E-25
1.59262E-02 3.55190E-25
1.64770E-02 3.31181E-25
1.70371E-02 3.09144E-25
1.76063E-02 2.88889E-25
1.81848E-02 2.70246E-25
1.87724E-02 2.53064E-25
1.93692E-02 2.37210E-25
1.99751E-02 2.22561E-25
2.05901E-02 2.09011E-25
2.12143E-02 1.96462E-25
2.18476E-02 1.84828E-25
2.24900E-02 1.74030E-25
2.31415E-02 1.63997E-25
2.38021E-02 1.54666E-25
2.44717E-02 1.45979E-25
2.51504E-02 1.37884E-25
2.58382E-02 1.30332E-25
2.65349E-02 1.23282E-25
2.72407E-02 1.16694E-25
2.79555E-02 1.10533E-25
2.86793E-02 1.04765E-25
2.94120E-02 9.93617E-26
3.01537E-02 9.42957E-26
3.09043E-02 8.95422E-26
3.16639E-02 8.50786E-26
3.24324E-02 8.08840E-26
3.32098E-02 7.69395E-26
3.39961E-02 7.32273E-26
3.47912E-02 6.97316E-26
3.55952E-02 6.64373E-26
3.64081E-02 6.33310E-26
3.72297E-02 6.03999E-26
3.80602E-02 5.76324E-26
3.88995E-02 5.50179E-26
3.97476E-02 5.25463E-26
4.06044E-02 5.02086E-26
4.14700E-02 4.79961E-26
4.23443E-02 4.59010E-26
4.32273E-02 4.39160E-26
4.41190E-02 4.20342E-26
4.50194E-02 4.02495E-26
4.59284E-02 3.85558E-26
4.68461E-02 3.69478E-26
4.87074E-02 3.39687E-26
5.06030E-02 3.12754E-26
5.25328E-02 2.88362E-26
5.44967E-02 2.66231E-26
5.64946E-02 2.46117E-26
5.85262E-02 2.27806E-26
6.05914E-02 2.11111E-26
6.26901E-02 1.95866E-26
6.48222E-02 1.81924E-26
6.69873E-02 1.69157E-26
6.91854E-02 1.57448E-26
7.14163E-02 1.46697E-26
7.36799E-02 1.36811E-26
7.59760E-02 1.27712E-26
7.83043E-02 1.19325E-26
8.06647E-02 1.11586E-26
8.30571E-02 1.04437E-26
8.54812E-02 9.78263E-27
8.79369E-02 9.17065E-27
9.04240E-02 8.60355E-27
9.29422E-02 8.07753E-27
9.54915E-02 7.58913E-27
9.80716E-02 7.13525E-27
1.00682E-01 6.71307E-27
1.03323E-01 6.32002E-27
1.05995E-01 5.95380E-27
1.08696E-01 5.61227E-27
1.11427E-01 5.29353E-27
1.14188E-01 4.99583E-27
1.16978E-01 4.71755E-27
1.19797E-01 4.45724E-27
1.22645E-01 4.21357E-27
1.25522E-01 3.98531E-27
1.28428E-01 3.77133E-27
1.31361E-01 3.57063E-27
1.34323E-01 3.38224E-27
1.37313E-01 3.20530E-27
1.40330E-01 3.03901E-27
1.43375E-01 2.88264E-27
1.46447E-01 2.73551E-27
1.49545E-01 2.59700E-27
1.52671E-01 2.46652E-27
1.55823E-01 2.34354E-27
1.59001E-01 2.22758E-27
1.62205E-01 2.11817E-27
1.65435E-01 2.01490E-27
1.68690E-01 1.91736E-27
1.71970E-01 1.82520E-27
1.75276E-01 1.73808E-27
1.78606E-01 1.65568E-27
1.81961E-01 1.57771E-27
1.85340E-01 1.50391E-27
1.88743E-01 1.43402E-27
1.92169E-01 1.36781E-27
1.95619E-01 1.30505E-27
1.99092E-01 1.24554E-27
2.02589E-01 1.18909E-27
2.06107E-01 1.13553E-27
2.09649E-01 1.08468E-27
2.13212E-01 1.03639E-27
2.16797E-01 9.90522E-28
2.20404E-01 9.46928E-28
2.24032E-01 9.05485E-28
2.27680E-01 8.66074E-28
2.31350E-01 8.28582E-28
2.35040E-01 7.92905E-28
2.38751E-01 7.58943E-28
2.42481E-01 7.26603E-28
2.46231E-01 6.95800E-28
2.50000E-01 6.66451E-28
2.53788E-01 6.38479E-28
2.57595E-01 6.11811E-28
2.61421E-01 5.86381E-28
2.65264E-01 5.62123E-28
2.69126E-01 5.38977E-28
2.73005E-01 5.16886E-28
2.76901E-01 4.95797E-28
2.80814E-01 4.75659E-28
2.84744E-01 4.56424E-28
2.88691E-01 4.38047E-28
2.92653E-01 4.20485E-28
2.96632E-01 4.03699E-28
3.00625E-01 3.87650E-28
3.04634E-01 3.72303E-28
3.08658E-01 3.57622E-28
3.12697E-01 3.43577E-28
3.16749E-01 3.30137E-28
3.20816E-01 3.17273E-28
3.24896E-01 3.04957E-28
3.28990E-01 2.93164E-28
3.33097E-01 2.81870E-28
3.37216E-01 2.71050E-28
3.41348E-01 2.60684E-28
3.45492E-01 2.50749E-28
3.49647E-01 2.41227E-28
3.53814E-01 2.32099E-28
3.57992E-01 2.23346E-28
3.62181E-01 2.14951E-28
3.66381E-01 2.06900E-28
3.70590E-01 1.99175E-28
3.74810E-01 1.91763E-28
3.79039E-01 1.84649E-28
3.83277E-01 1.77822E-28
3.87524E-01 1.71267E-28
3.91780E-01 1.64973E-28
3.96044E-01 1.58929E-28
4.00316E-01 1.53124E-28
4.04596E-01 1.47547E-28
4.08882E-01 1.42189E-28
4.13176E-01 1.37041E-28
4.17476E-01 1.32093E-28
4.21783E-01 1.27337E-28
4.26095E-01 1.22765E-28
4.30413E-01 1.18369E-28
4.34737E-01 1.14142E-28
4.39065E-01 1.10077E-28
4.43398E-01 1.06166E-28
4.47736E-01 1.02405E-28
4.52077E-01 9.87857E-29
4.56422E-01 9.53031E-29
4.60770E-01 9.19517E-29
4.65122E-01 8.87260E-29
4.69476E-01 8.56209E-29
4.73832E-01 8.26316E-29
4.78190E-01 7.97534E-29
4.82550E-01 7.69818E-29
4.86912E-01 7.43126E-29
4.91274E-01 7.17416E-29
4.95637E-01 6.92651E-29
5.00000E-01 6.68792E-29
5.04363E-01 6.45805E-29
5.08726E-01 6.23653E-29
5.13088E-01 6.02306E-29
5.17450E-01 5.81732E-29
5.21810E-01 5.61899E-29
5.26168E-01 5.42781E-29
5.30524E-01 5.24349E-29
5.34878E-01 5.06576E-29
5.39230E-01 4.89438E-29
5.43578E-01 4.72910E-29
5.47923E-01 4.56969E-29
5.52264E-01 4.41593E-29
5.56602E-01 4.26759E-29
5.60935E-01 4.12449E-29
5.65263E-01 3.98641E-29
5.69587E-01 3.85317E-29
5.73905E-01 3.72460E-29
5.78217E-01 3.60050E-29
5.82524E-01 3.48073E-29
5.86824E-01 3.36511E-29
5.91118E-01 3.25350E-29
5.95404E-01 3.14574E-29
5.99684E-01 3.04170E-29
6.03956E-01 2.94124E-29
6.08220E-01 2.84422E-29
6.12476E-01 2.75052E-29
6.16723E-01 2.66003E-29
6.20961E-01 2.57261E-29
6.25190E-01 2.48817E-29
6.29410E-01 2.40660E-29
6.33619E-01 2.32778E-29
6.37819E-01 2.25163E-29
6.42008E-01 2.17804E-29
6.46186E-01 2.10693E-29
6.50353E-01 2.03821E-29
6.54508E-01 1.97178E-29
6.58652E-01 1.90758E-29
6.62784E-01 1.84552E-29
6.66903E-01 1.78552E-29
6.71010E-01 1.72752E-29
6.75104E-01 1.67144E-29
6.79184E-01 1.61722E-29
6.83251E-01 1.56478E-29
6.87303E-01 1.51408E-29
6.91342E-01 1.46504E-29
6.95366E-01 1.41761E-29
6.99375E-01 1.37174E-29
7.03368E-01 1.32737E-29
7.07347E-01 1.28444E-29
7.11309E-01 1.24292E-29
7.15256E-01 1.20274E-29
7.19186E-01 1.16387E-29
7.23099E-01 1.12626E-29
7.26995E-01 1.08987E-29
7.30874E-01 1.05465E-29
7.34736E-01 1.02057E-29
7.38579E-01 9.87580E-30
7.42405E-01 9.55654E-30
7.46212E-01 9.24751E-30
7.50000E-01 8.94838E-30
7.53769E-01 8.65882E-30
7.57519E-01 8.37849E-30
7.61249E-01 8.10710E-30
7.64960E-01 7.84434E-30
7.68650E-01 7.58993E-30
7.72320E-01 7.34359E-30
7.75968E-01 7.10504E-30
7.79596E-01 6.87404E-30
7.83203E-01 6.65033E-30
7.86788E-01 6.43368E-30
7.90351E-01 6.22384E-30
7.93893E-01 6.02060E-30
7.97411E-01 5.82374E-30
8.00908E-01 5.63305E-30
8.04381E-01 5.44833E-30
8.07831E-01 5.26939E-30
8.11257E-01 5.09603E-30
8.14660E-01 4.92808E-30
8.18039E-01 4.76535E-30
8.21394E-01 4.60769E-30
8.24724E-01 4.45493E-30
8.28030E-01 4.30690E-30
8.31310E-01 4.16347E-30
8.34565E-01 4.02448E-30
8.37795E-01 3.88978E-30
8.40999E-01 3.75925E-30
8.44177E-01 3.63275E-30
8.47329E-01 3.51014E-30
8.50455E-01 3.39132E-30
8.53553E-01 3.27615E-30
8.56625E-01 3.16453E-30
8.59670E-01 3.05633E-30
8.62687E-01 2.95146E-30
8.65677E-01 2.84981E-30
8.68639E-01 2.75128E-30
8.71572E-01 2.65577E-30
8.74478E-01 2.56318E-30
8.77355E-01 2.47343E-30
8.80203E-01 2.38643E-30
8.83022E-01 2.30209E-30
8.85812E-01 2.22033E-30
8.88573E-01 2.14108E-30
8.91304E-01 2.06424E-30
8.94005E-01 1.98976E-30
8.96677E-01 1.91756E-30
8.99318E-01 1.84757E-30
9.01928E-01 1.77972E-30
9.04508E-01 1.71395E-30
9.07058E-01 1.65020E-30
9.09576E-01 1.58839E-30
9.12063E-01 1.52849E-30
9.14519E-01 1.47043E-30
9.16943E-01 1.41415E-30
9.19335E-01 1.35960E-30
9.21696E-01 1.30673E-30
9.24024E-01 1.25550E-30
9.26320E-01 1.20585E-30
9.28584E-01 1.15774E-30
9.30815E-01 1.11112E-30
9.33013E-01 1.06595E-30
9.35178E-01 1.02219E-30
9.37310E-01 9.79797E-31
9.39409E-01 9.38734E-31
9.41474E-01 8.98962E-31
9.43505E-01 8.60445E-31
9.45503E-01 8.23147E-31
9.47467E-01 7.87036E-31
9.49397E-01 7.52078E-31
9.51293E-01 7.18241E-31
9.53154E-01 6.85495E-31
9.54981E-01 6.53810E-31
9.56773E-01 6.23159E-31
9.58530E-01 5.93512E-31
9.60252E-01 5.64843E-31
9.61940E-01 5.37128E-31
9.63592E-01 5.10341E-31
9.65209E-01 4.84458E-31
9.66790E-01 4.59456E-31
9.68336E-01 4.35313E-31
9.69846E-01 4.12007E-31
9.71321E-01 3.89519E-31
9.72759E-01 3.67827E-31
9.74162E-01 3.46914E-31
9.75528E-01 3.26760E-31
9.76858E-01 3.07348E-31
9.78152E-01 2.88660E-31
9.79410E-01 2.70681E-31
9.80631E-01 2.53394E-31
9.81815E-01 2.36785E-31
9.82963E-01 2.20839E-31
9.84074E-01 2.05541E-31
9.85148E-01 1.90880E-31
9.86185E-01 1.76842E-31
9.87185E-01 1.63414E-31
9.88148E-01 1.50586E-31
9.89074E-01 1.38346E-31
9.89962E-01 1.26684E-31
9.90814E-01 1.15588E-31
9.91627E-01 1.05051E-31
9.92404E-01 9.50628E-32
9.93143E-01 8.56146E-32
9.93844E-01 7.66984E-32
9.94508E-01 6.83067E-32
9.95134E-01 6.04320E-32
9.95722E-01 5.30679E-32
9.96273E-01 4.62079E-32
9.96786E-01 3.98462E-32
9.97261E-01 3.39772E-32
9.97698E-01 2.85961E-32
9.98097E-01 2.36980E-32
9.98459E-01 1.92791E-32
9.98782E-01 1.53354E-32
9.99067E-01 1.18635E-32
9.99315E-01 8.86050E-33
9.99524E-01 6.32375E-33
9.99695E-01 4.25124E-33
9.99829E-01 2.64107E-33
9.99924E-01 1.49198E-33
9.99981E-01 8.02886E-34
1.00000E+00 5.73301E-34
