 #
 # Subroutine ELSEPA. Elastic scattering of electrons and positrons
 #                    by neutral atoms and positive ions
 #
 # Projectile: positron
 # Kinetic energy = 2.00000E+08 eV = 7.34987E+06 a.u.
 #
 # WARNING: High-energy factorization with free-atom DF screening.
 #          Absorption, polarization and exchange corrections are
 #          switched off.
 #          Phase shifts are calculated for the bare nucleus.
 #          Scattering amplitudes are not evaluated.
 #
 # Element: Na,  Z =  11,  atomic weight = 2.29898E+01 g/mol
 #
 # Nuclear model: Fermi distribution
 #                Average radius = 3.04249E-13 cm
 #                Skin thickness = 5.46000E-14 cm
 #
 # Number of electrons = 11
 #
 # Total elastic cross section = 4.67143E-19 cm**2 = 1.66820E-02 a0**2
 # 1st transport cross section = 6.54839E-27 cm**2 = 2.33847E-10 a0**2
 # 2nd transport cross section = 1.95651E-26 cm**2 = 6.98681E-10 a0**2
 #
 #
 # Differential cross section:                       MU=(1-COS(THETA))/2
 #
 #  THETA        MU          DCS          DCS        Sherman      error
 #  (deg)                 (cm**2/sr)   (a0**2/sr)    function
 #----------------------------------------------------------------------
0.00000E+00 3.51119E-10
7.61557E-13 3.42616E-10
1.18994E-12 3.37967E-10
1.71346E-12 3.32413E-10
2.33225E-12 3.26016E-10
3.04617E-12 3.18861E-10
3.85530E-12 3.11028E-10
4.75964E-12 3.02604E-10
5.75917E-12 2.93685E-10
6.85391E-12 2.84353E-10
8.04379E-12 2.74711E-10
9.32893E-12 2.64835E-10
1.07092E-11 2.54811E-10
1.21847E-11 2.44724E-10
1.37554E-11 2.34631E-10
1.54213E-11 2.24620E-10
1.71823E-11 2.14728E-10
1.90386E-11 2.05016E-10
2.09900E-11 1.95530E-10
2.30367E-11 1.86294E-10
2.51785E-11 1.77362E-10
2.74156E-11 1.68732E-10
2.97478E-11 1.60438E-10
3.21752E-11 1.52486E-10
3.46979E-11 1.44879E-10
3.73157E-11 1.37637E-10
4.00286E-11 1.30963E-10
4.28368E-11 1.24671E-10
4.57402E-11 1.18599E-10
4.87388E-11 1.12750E-10
5.18325E-11 1.07127E-10
5.50215E-11 1.01728E-10
5.83057E-11 9.65529E-11
6.16850E-11 9.19078E-11
6.51595E-11 8.77124E-11
6.87293E-11 8.36929E-11
7.23943E-11 7.98455E-11
7.61544E-11 7.61662E-11
1.18991E-10 4.96010E-11
1.71347E-10 3.50708E-11
2.33223E-10 2.63001E-11
3.04617E-10 2.05715E-11
3.85531E-10 1.65278E-11
4.75965E-10 1.35091E-11
5.75917E-10 1.11463E-11
6.85389E-10 9.27536E-12
8.04380E-10 7.74637E-12
9.32891E-10 6.49964E-12
1.07092E-09 5.47242E-12
1.21847E-09 4.61916E-12
1.37554E-09 3.91457E-12
1.54213E-09 3.32395E-12
1.71823E-09 2.83302E-12
1.90386E-09 2.42193E-12
2.09900E-09 2.07691E-12
2.30367E-09 1.78764E-12
2.51785E-09 1.54297E-12
2.74156E-09 1.33677E-12
2.97478E-09 1.16185E-12
3.21752E-09 1.01323E-12
3.46978E-09 8.86673E-13
3.73156E-09 7.78330E-13
4.00286E-09 6.84904E-13
4.28368E-09 6.04942E-13
4.57402E-09 5.36694E-13
4.87388E-09 4.76959E-13
5.18326E-09 4.25256E-13
5.50215E-09 3.80550E-13
5.83057E-09 3.41112E-13
6.16850E-09 3.06734E-13
6.51596E-09 2.76635E-13
6.87293E-09 2.49975E-13
7.23942E-09 2.26510E-13
7.61544E-09 2.05750E-13
1.18991E-08 8.79376E-14
1.71347E-08 4.40215E-14
2.33223E-08 2.45726E-14
3.04617E-08 1.48273E-14
3.85531E-08 9.48167E-15
4.75965E-08 6.34342E-15
5.75917E-08 4.40082E-15
6.85389E-08 3.14611E-15
8.04380E-08 2.30685E-15
9.32891E-08 1.72860E-15
1.07092E-07 1.32000E-15
1.21847E-07 1.02481E-15
1.37554E-07 8.07416E-16
1.54213E-07 6.44514E-16
1.71823E-07 5.20570E-16
1.90386E-07 4.24942E-16
2.09900E-07 3.50239E-16
2.30367E-07 2.91211E-16
2.51785E-07 2.44082E-16
2.74156E-07 2.06092E-16
2.97478E-07 1.75200E-16
3.21752E-07 1.49875E-16
3.46978E-07 1.28957E-16
3.73156E-07 1.11560E-16
4.00286E-07 9.69958E-17
4.28368E-07 8.47297E-17
4.57402E-07 7.43408E-17
4.87388E-07 6.54949E-17
5.18325E-07 5.79251E-17
5.50215E-07 5.14173E-17
5.83057E-07 4.57974E-17
6.16850E-07 4.09243E-17
6.51596E-07 3.66820E-17
6.87293E-07 3.29752E-17
7.23942E-07 2.97247E-17
7.61543E-07 2.68648E-17
1.18991E-06 1.10107E-17
1.71347E-06 5.31116E-18
2.33223E-06 2.86696E-18
3.04617E-06 1.68050E-18
3.85531E-06 1.04908E-18
4.75964E-06 6.88273E-19
5.75916E-06 4.70078E-19
6.85388E-06 3.31890E-19
8.04378E-06 2.40949E-19
9.32888E-06 1.79128E-19
1.07092E-05 1.35922E-19
1.21846E-05 1.04991E-19
1.37553E-05 8.23787E-20
1.54212E-05 6.55388E-20
1.71822E-05 5.27900E-20
1.90385E-05 4.29938E-20
2.09899E-05 3.53700E-20
2.30365E-05 2.93634E-20
2.51783E-05 2.45793E-20
2.74153E-05 2.07307E-20
2.97475E-05 1.76065E-20
3.21749E-05 1.50492E-20
3.46974E-05 1.29397E-20
3.73152E-05 1.11872E-20
4.00281E-05 9.72157E-21
4.28362E-05 8.48833E-21
4.57395E-05 7.44459E-21
4.87380E-05 6.55643E-21
5.18317E-05 5.79682E-21
5.50205E-05 5.14407E-21
5.83045E-05 4.58064E-21
6.16838E-05 4.09226E-21
6.51582E-05 3.66726E-21
6.87277E-05 3.29602E-21
7.23925E-05 2.97059E-21
7.61524E-05 2.68223E-21
9.21439E-05 1.83130E-21
1.09658E-04 1.29249E-21
1.28695E-04 9.37988E-22
1.49255E-04 6.97052E-22
1.71338E-04 5.28704E-22
1.94942E-04 4.08216E-22
2.20070E-04 3.20153E-22
2.46720E-04 2.54590E-22
2.74892E-04 2.04967E-22
3.04586E-04 1.66855E-22
3.35803E-04 1.37193E-22
3.68542E-04 1.13832E-22
4.02802E-04 9.52310E-23
4.38585E-04 8.02735E-23
4.75889E-04 6.81360E-23
5.14715E-04 5.82042E-23
5.55063E-04 5.00145E-23
5.96931E-04 4.32129E-23
6.40321E-04 3.75267E-23
6.85233E-04 3.27436E-23
7.31665E-04 2.86969E-23
7.79618E-04 2.52548E-23
8.29092E-04 2.23122E-23
8.80086E-04 1.97846E-23
9.32601E-04 1.76039E-23
9.86636E-04 1.57145E-23
1.04219E-03 1.40710E-23
1.09927E-03 1.26360E-23
1.15786E-03 1.13786E-23
1.21797E-03 1.02731E-23
1.27961E-03 9.29813E-24
1.34276E-03 8.43555E-24
1.40743E-03 7.67023E-24
1.47362E-03 6.98931E-24
1.54133E-03 6.38189E-24
1.61056E-03 5.83868E-24
1.68131E-03 5.35171E-24
1.75357E-03 4.91416E-24
1.82735E-03 4.52013E-24
1.90265E-03 4.16455E-24
1.97947E-03 3.84302E-24
2.05780E-03 3.55170E-24
2.13765E-03 3.28726E-24
2.21902E-03 3.04679E-24
2.30190E-03 2.82773E-24
2.38630E-03 2.62785E-24
2.47222E-03 2.44516E-24
2.55965E-03 2.27794E-24
2.64859E-03 2.12463E-24
2.73905E-03 1.98389E-24
2.83103E-03 1.85449E-24
2.92452E-03 1.73536E-24
3.01952E-03 1.62554E-24
3.11604E-03 1.52418E-24
3.21407E-03 1.43051E-24
3.31362E-03 1.34385E-24
3.41468E-03 1.26356E-24
3.51725E-03 1.18911E-24
3.62133E-03 1.12000E-24
3.72692E-03 1.05577E-24
3.83403E-03 9.96012E-25
3.94265E-03 9.40368E-25
4.05278E-03 8.88500E-25
4.16442E-03 8.40107E-25
4.27757E-03 7.94915E-25
4.39223E-03 7.52675E-25
4.50840E-03 7.13160E-25
4.62608E-03 6.76162E-25
4.74527E-03 6.41493E-25
4.86597E-03 6.08979E-25
4.98817E-03 5.78464E-25
5.11188E-03 5.49803E-25
5.23711E-03 5.22863E-25
5.36383E-03 4.97521E-25
5.49207E-03 4.73668E-25
5.62181E-03 4.51199E-25
5.75306E-03 4.30020E-25
5.88581E-03 4.10044E-25
6.02007E-03 3.91191E-25
6.15583E-03 3.73385E-25
6.29310E-03 3.56560E-25
6.43187E-03 3.40650E-25
6.57214E-03 3.25598E-25
6.71392E-03 3.11349E-25
6.85720E-03 2.97852E-25
7.00198E-03 2.85062E-25
7.14827E-03 2.72934E-25
7.29605E-03 2.61428E-25
7.44534E-03 2.50506E-25
7.59612E-03 2.40134E-25
7.97965E-03 2.16401E-25
8.37255E-03 1.95454E-25
8.77480E-03 1.76915E-25
9.18641E-03 1.60462E-25
9.60736E-03 1.45822E-25
1.00376E-02 1.32764E-25
1.04773E-02 1.21090E-25
1.09262E-02 1.10628E-25
1.13844E-02 1.01235E-25
1.18520E-02 9.27817E-26
1.23288E-02 8.51605E-26
1.28150E-02 7.82762E-26
1.33104E-02 7.20463E-26
1.38150E-02 6.63987E-26
1.43290E-02 6.12705E-26
1.48521E-02 5.66063E-26
1.53845E-02 5.23576E-26
1.59262E-02 4.84817E-26
1.64770E-02 4.49406E-26
1.70371E-02 4.17011E-26
1.76063E-02 3.87335E-26
1.81848E-02 3.60114E-26
1.87724E-02 3.35115E-26
1.93692E-02 3.12128E-26
1.99751E-02 2.90966E-26
2.05901E-02 2.71464E-26
2.12143E-02 2.53471E-26
2.18476E-02 2.36853E-26
2.24900E-02 2.21490E-26
2.31415E-02 2.07272E-26
2.38021E-02 1.94102E-26
2.44717E-02 1.81892E-26
2.51504E-02 1.70560E-26
2.58382E-02 1.60036E-26
2.65349E-02 1.50252E-26
2.72407E-02 1.41150E-26
2.79555E-02 1.32676E-26
2.86793E-02 1.24779E-26
2.94120E-02 1.17415E-26
3.01537E-02 1.10544E-26
3.09043E-02 1.04127E-26
3.16639E-02 9.81312E-27
3.24324E-02 9.25243E-27
3.32098E-02 8.72779E-27
3.39961E-02 8.23659E-27
3.47912E-02 7.77640E-27
3.55952E-02 7.34502E-27
3.64081E-02 6.94041E-27
3.72297E-02 6.56068E-27
3.80602E-02 6.20413E-27
3.88995E-02 5.86914E-27
3.97476E-02 5.55427E-27
4.06044E-02 5.25814E-27
4.14700E-02 4.97950E-27
4.23443E-02 4.71721E-27
4.32273E-02 4.47017E-27
4.41190E-02 4.23741E-27
4.50194E-02 4.01799E-27
4.59284E-02 3.81107E-27
4.68461E-02 3.61585E-27
4.87074E-02 3.25761E-27
5.06030E-02 2.93798E-27
5.25328E-02 2.65236E-27
5.44967E-02 2.39678E-27
5.64946E-02 2.16776E-27
5.85262E-02 1.96229E-27
6.05914E-02 1.77771E-27
6.26901E-02 1.61170E-27
6.48222E-02 1.46224E-27
6.69873E-02 1.32753E-27
6.91854E-02 1.20599E-27
7.14163E-02 1.09624E-27
7.36799E-02 9.97031E-28
7.59760E-02 9.07282E-28
7.83043E-02 8.26023E-28
8.06647E-02 7.52393E-28
8.30571E-02 6.85627E-28
8.54812E-02 6.25042E-28
8.79369E-02 5.70030E-28
9.04240E-02 5.20046E-28
9.29422E-02 4.74604E-28
9.54915E-02 4.33267E-28
9.80716E-02 3.95644E-28
1.00682E-01 3.61384E-28
1.03323E-01 3.30172E-28
1.05995E-01 3.01723E-28
1.08696E-01 2.75782E-28
1.11427E-01 2.52118E-28
1.14188E-01 2.30523E-28
1.16978E-01 2.10809E-28
1.19797E-01 1.92806E-28
1.22645E-01 1.76361E-28
1.25522E-01 1.61335E-28
1.28428E-01 1.47601E-28
1.31361E-01 1.35045E-28
1.34323E-01 1.23563E-28
1.37313E-01 1.13062E-28
1.40330E-01 1.03455E-28
1.43375E-01 9.46658E-29
1.46447E-01 8.66223E-29
1.49545E-01 7.92605E-29
1.52671E-01 7.25219E-29
1.55823E-01 6.63530E-29
1.59001E-01 6.07051E-29
1.62205E-01 5.55338E-29
1.65435E-01 5.07985E-29
1.68690E-01 4.64623E-29
1.71970E-01 4.24914E-29
1.75276E-01 3.88549E-29
1.78606E-01 3.55247E-29
1.81961E-01 3.24750E-29
1.85340E-01 2.96821E-29
1.88743E-01 2.71246E-29
1.92169E-01 2.47827E-29
1.95619E-01 2.26384E-29
1.99092E-01 2.06751E-29
2.02589E-01 1.88777E-29
2.06107E-01 1.72323E-29
2.09649E-01 1.57263E-29
2.13212E-01 1.43480E-29
2.16797E-01 1.30868E-29
2.20404E-01 1.19329E-29
2.24032E-01 1.08773E-29
2.27680E-01 9.91176E-30
2.31350E-01 9.02885E-30
2.35040E-01 8.22163E-30
2.38751E-01 7.48376E-30
2.42481E-01 6.80945E-30
2.46231E-01 6.19336E-30
2.50000E-01 5.63060E-30
2.53788E-01 5.11671E-30
2.57595E-01 4.64757E-30
2.61421E-01 4.21942E-30
2.65264E-01 3.82878E-30
2.69126E-01 3.47250E-30
2.73005E-01 3.14766E-30
2.76901E-01 2.85160E-30
2.80814E-01 2.58186E-30
2.84744E-01 2.33621E-30
2.88691E-01 2.11258E-30
2.92653E-01 1.90909E-30
2.96632E-01 1.72402E-30
3.00625E-01 1.55576E-30
3.04634E-01 1.40287E-30
3.08658E-01 1.26403E-30
3.12697E-01 1.13799E-30
3.16749E-01 1.02366E-30
3.20816E-01 9.19995E-31
3.24896E-01 8.26068E-31
3.28990E-01 7.41015E-31
3.33097E-01 6.64050E-31
3.37216E-01 5.94454E-31
3.41348E-01 5.31567E-31
3.45492E-01 4.74787E-31
3.49647E-01 4.23562E-31
3.53814E-01 3.77389E-31
3.57992E-01 3.35806E-31
3.62181E-01 2.98392E-31
3.66381E-01 2.64763E-31
3.70590E-01 2.34568E-31
3.74810E-01 2.07487E-31
3.79039E-01 1.83225E-31
3.83277E-01 1.61518E-31
3.87524E-01 1.42121E-31
3.91780E-01 1.24813E-31
3.96044E-01 1.09391E-31
4.00316E-01 9.56731E-32
4.04596E-01 8.34902E-32
4.08882E-01 7.26908E-32
4.13176E-01 6.31363E-32
4.17476E-01 5.47011E-32
4.21783E-01 4.72710E-32
4.26095E-01 4.07424E-32
4.30413E-01 3.50213E-32
4.34737E-01 3.00227E-32
4.39065E-01 2.56694E-32
4.43398E-01 2.18917E-32
4.47736E-01 1.86265E-32
4.52077E-01 1.58168E-32
4.56422E-01 1.34112E-32
4.60770E-01 1.13634E-32
4.65122E-01 9.63151E-33
4.69476E-01 8.17804E-33
4.73832E-01 6.96917E-33
4.78190E-01 5.97461E-33
4.82550E-01 5.16712E-33
4.86912E-01 4.52241E-33
4.91274E-01 4.01871E-33
4.95637E-01 3.63658E-33
5.00000E-01 3.35871E-33
5.04363E-01 3.16973E-33
5.08726E-01 3.05596E-33
5.13088E-01 3.00530E-33
5.17450E-01 3.00704E-33
5.21810E-01 3.05178E-33
5.26168E-01 3.13121E-33
5.30524E-01 3.23809E-33
5.34878E-01 3.36607E-33
5.39230E-01 3.50966E-33
5.43578E-01 3.66407E-33
5.47923E-01 3.82518E-33
5.52264E-01 3.98950E-33
5.56602E-01 4.15402E-33
5.60935E-01 4.31621E-33
5.65263E-01 4.47400E-33
5.69587E-01 4.62559E-33
5.73905E-01 4.76961E-33
5.78217E-01 4.90487E-33
5.82524E-01 5.03057E-33
5.86824E-01 5.14599E-33
5.91118E-01 5.25068E-33
5.95404E-01 5.34433E-33
5.99684E-01 5.42677E-33
6.03956E-01 5.49798E-33
6.08220E-01 5.55803E-33
6.12476E-01 5.60705E-33
6.16723E-01 5.64531E-33
6.20961E-01 5.67307E-33
6.25190E-01 5.69069E-33
6.29410E-01 5.69856E-33
6.33619E-01 5.69709E-33
6.37819E-01 5.68671E-33
6.42008E-01 5.66789E-33
6.46186E-01 5.64111E-33
6.50353E-01 5.60683E-33
6.54508E-01 5.56555E-33
6.58652E-01 5.51772E-33
6.62784E-01 5.46382E-33
6.66903E-01 5.40434E-33
6.71010E-01 5.33970E-33
6.75104E-01 5.27035E-33
6.79184E-01 5.19675E-33
6.83251E-01 5.11926E-33
6.87303E-01 5.03834E-33
6.91342E-01 4.95434E-33
6.95366E-01 4.86763E-33
6.99375E-01 4.77856E-33
7.03368E-01 4.68747E-33
7.07347E-01 4.59466E-33
7.11309E-01 4.50043E-33
7.15256E-01 4.40508E-33
7.19186E-01 4.30885E-33
7.23099E-01 4.21199E-33
7.26995E-01 4.11476E-33
7.30874E-01 4.01733E-33
7.34736E-01 3.91994E-33
7.38579E-01 3.82275E-33
7.42405E-01 3.72594E-33
7.46212E-01 3.62968E-33
7.50000E-01 3.53409E-33
7.53769E-01 3.43933E-33
7.57519E-01 3.34550E-33
7.61249E-01 3.25272E-33
7.64960E-01 3.16109E-33
7.68650E-01 3.07069E-33
7.72320E-01 2.98161E-33
7.75968E-01 2.89392E-33
7.79596E-01 2.80767E-33
7.83203E-01 2.72293E-33
7.86788E-01 2.63975E-33
7.90351E-01 2.55814E-33
7.93893E-01 2.47816E-33
7.97411E-01 2.39983E-33
8.00908E-01 2.32317E-33
8.04381E-01 2.24821E-33
8.07831E-01 2.17493E-33
8.11257E-01 2.10337E-33
8.14660E-01 2.03351E-33
8.18039E-01 1.96536E-33
8.21394E-01 1.89892E-33
8.24724E-01 1.83416E-33
8.28030E-01 1.77109E-33
8.31310E-01 1.70969E-33
8.34565E-01 1.64995E-33
8.37795E-01 1.59185E-33
8.40999E-01 1.53535E-33
8.44177E-01 1.48046E-33
8.47329E-01 1.42714E-33
8.50455E-01 1.37537E-33
8.53553E-01 1.32510E-33
8.56625E-01 1.27635E-33
8.59670E-01 1.22906E-33
8.62687E-01 1.18321E-33
8.65677E-01 1.13877E-33
8.68639E-01 1.09570E-33
8.71572E-01 1.05399E-33
8.74478E-01 1.01360E-33
8.77355E-01 9.74500E-34
8.80203E-01 9.36655E-34
8.83022E-01 9.00040E-34
8.85812E-01 8.64626E-34
8.88573E-01 8.30375E-34
8.91304E-01 7.97267E-34
8.94005E-01 7.65264E-34
8.96677E-01 7.34342E-34
8.99318E-01 7.04468E-34
9.01928E-01 6.75610E-34
9.04508E-01 6.47744E-34
9.07058E-01 6.20843E-34
9.09576E-01 5.94876E-34
9.12063E-01 5.69817E-34
9.14519E-01 5.45640E-34
9.16943E-01 5.22320E-34
9.19335E-01 4.99826E-34
9.21696E-01 4.78133E-34
9.24024E-01 4.57223E-34
9.26320E-01 4.37064E-34
9.28584E-01 4.17640E-34
9.30815E-01 3.98922E-34
9.33013E-01 3.80889E-34
9.35178E-01 3.63518E-34
9.37310E-01 3.46791E-34
9.39409E-01 3.30688E-34
9.41474E-01 3.15183E-34
9.43505E-01 3.00260E-34
9.45503E-01 2.85901E-34
9.47467E-01 2.72087E-34
9.49397E-01 2.58796E-34
9.51293E-01 2.46014E-34
9.53154E-01 2.33723E-34
9.54981E-01 2.21913E-34
9.56773E-01 2.10556E-34
9.58530E-01 1.99644E-34
9.60252E-01 1.89165E-34
9.61940E-01 1.79096E-34
9.63592E-01 1.69431E-34
9.65209E-01 1.60151E-34
9.66790E-01 1.51247E-34
9.68336E-01 1.42705E-34
9.69846E-01 1.34512E-34
9.71321E-01 1.26656E-34
9.72759E-01 1.19129E-34
9.74162E-01 1.11916E-34
9.75528E-01 1.05009E-34
9.76858E-01 9.83965E-35
9.78152E-01 9.20717E-35
9.79410E-01 8.60239E-35
9.80631E-01 8.02434E-35
9.81815E-01 7.47205E-35
9.82963E-01 6.94507E-35
9.84074E-01 6.44233E-35
9.85148E-01 5.96322E-35
9.86185E-01 5.50688E-35
9.87185E-01 5.07283E-35
9.88148E-01 4.66033E-35
9.89074E-01 4.26853E-35
9.89962E-01 3.89721E-35
9.90814E-01 3.54565E-35
9.91627E-01 3.21328E-35
9.92404E-01 2.89955E-35
9.93143E-01 2.60414E-35
9.93844E-01 2.32649E-35
9.94508E-01 2.06612E-35
9.95134E-01 1.82289E-35
9.95722E-01 1.59607E-35
9.96273E-01 1.38553E-35
9.96786E-01 1.19088E-35
9.97261E-01 1.01188E-35
9.97698E-01 8.48153E-36
9.98097E-01 6.99591E-36
9.98459E-01 5.65723E-36
9.98782E-01 4.46566E-36
9.99067E-01 3.41835E-36
9.99315E-01 2.51396E-36
9.99524E-01 1.75172E-36
9.99695E-01 1.12913E-36
9.99829E-01 6.46281E-37
9.99924E-01 3.01337E-37
9.99981E-01 9.50423E-38
1.00000E+00 2.60200E-38
