 #
 # Subroutine ELSEPA. Elastic scattering of electrons and positrons
 #                    by neutral atoms and positive ions
 #
 # Projectile: positron
 # Kinetic energy = 6.00000E+07 eV = 2.20496E+06 a.u.
 #
 # WARNING: High-energy factorization with free-atom DF screening.
 #          Absorption, polarization and exchange corrections are
 #          switched off.
 #          Phase shifts are calculated for the bare nucleus.
 #          Scattering amplitudes are not evaluated.
 #
 # Element: Na,  Z =  11,  atomic weight = 2.29898E+01 g/mol
 #
 # Nuclear model: Fermi distribution
 #                Average radius = 3.04249E-13 cm
 #                Skin thickness = 5.46000E-14 cm
 #
 # Number of electrons = 11
 #
 # Total elastic cross section = 4.66622E-19 cm**2 = 1.66634E-02 a0**2
 # 1st transport cross section = 6.86505E-26 cm**2 = 2.45155E-09 a0**2
 # 2nd transport cross section = 2.01605E-25 cm**2 = 7.19944E-09 a0**2
 #
 #
 # Differential cross section:                       MU=(1-COS(THETA))/2
 #
 #  THETA        MU          DCS          DCS        Sherman      error
 #  (deg)                 (cm**2/sr)   (a0**2/sr)    function
 #----------------------------------------------------------------------
0.00000E+00 3.19777E-11
7.61557E-13 3.19058E-11
1.18994E-12 3.18655E-11
1.71346E-12 3.18165E-11
2.33225E-12 3.17587E-11
3.04617E-12 3.16921E-11
3.85530E-12 3.16170E-11
4.75964E-12 3.15333E-11
5.75917E-12 3.14413E-11
6.85391E-12 3.13408E-11
8.04379E-12 3.12323E-11
9.32893E-12 3.11155E-11
1.07092E-11 3.09910E-11
1.21847E-11 3.08586E-11
1.37554E-11 3.07186E-11
1.54213E-11 3.05712E-11
1.71823E-11 3.04163E-11
1.90386E-11 3.02546E-11
2.09900E-11 3.00856E-11
2.30367E-11 2.99102E-11
2.51785E-11 2.97280E-11
2.74156E-11 2.95395E-11
2.97478E-11 2.93449E-11
3.21752E-11 2.91441E-11
3.46979E-11 2.89380E-11
3.73157E-11 2.87260E-11
4.00286E-11 2.85091E-11
4.28368E-11 2.82868E-11
4.57402E-11 2.80597E-11
4.87388E-11 2.78282E-11
5.18325E-11 2.75918E-11
5.50215E-11 2.73519E-11
5.83057E-11 2.71075E-11
6.16850E-11 2.68598E-11
6.51595E-11 2.66084E-11
6.87293E-11 2.63538E-11
7.23943E-11 2.60963E-11
7.61544E-11 2.58355E-11
1.18991E-10 2.31253E-11
1.71347E-10 2.03604E-11
2.33223E-10 1.77016E-11
3.04617E-10 1.52576E-11
3.85531E-10 1.30875E-11
4.75965E-10 1.12546E-11
5.75917E-10 9.65880E-12
6.85389E-10 8.28763E-12
8.04380E-10 7.19315E-12
9.32891E-10 6.23696E-12
1.07092E-09 5.48606E-12
1.21847E-09 4.84019E-12
1.37554E-09 4.30580E-12
1.54213E-09 3.86054E-12
1.71823E-09 3.47664E-12
1.90386E-09 3.15874E-12
2.09900E-09 2.87974E-12
2.30367E-09 2.64184E-12
2.51785E-09 2.43321E-12
2.74156E-09 2.24934E-12
2.97478E-09 2.08692E-12
3.21752E-09 1.94218E-12
3.46978E-09 1.81117E-12
3.73156E-09 1.69421E-12
4.00286E-09 1.58629E-12
4.28368E-09 1.48878E-12
4.57402E-09 1.39910E-12
4.87388E-09 1.31601E-12
5.18326E-09 1.24063E-12
5.50215E-09 1.16867E-12
5.83057E-09 1.10358E-12
6.16850E-09 1.04160E-12
6.51596E-09 9.84418E-13
6.87293E-09 9.31015E-13
7.23942E-09 8.80397E-13
7.61544E-09 8.34098E-13
1.18991E-08 4.90785E-13
1.71347E-08 2.97553E-13
2.33223E-08 1.85634E-13
3.04617E-08 1.19328E-13
3.85531E-08 7.90644E-14
4.75965E-08 5.39174E-14
5.75917E-08 3.78868E-14
6.85389E-08 2.73205E-14
8.04380E-08 2.01720E-14
9.32891E-08 1.52149E-14
1.07092E-07 1.16973E-14
1.21847E-07 9.14749E-15
1.37554E-07 7.26284E-15
1.54213E-07 5.84506E-15
1.71823E-07 4.76114E-15
1.90386E-07 3.92031E-15
2.09900E-07 3.25936E-15
2.30367E-07 2.73356E-15
2.51785E-07 2.31071E-15
2.74156E-07 1.96727E-15
2.97478E-07 1.68583E-15
3.21752E-07 1.45327E-15
3.46978E-07 1.25967E-15
3.73156E-07 1.09739E-15
4.00286E-07 9.60478E-16
4.28368E-07 8.44300E-16
4.57402E-07 7.45176E-16
4.87388E-07 6.60160E-16
5.18325E-07 5.86909E-16
5.50215E-07 5.23522E-16
5.83057E-07 4.68444E-16
6.16850E-07 4.20400E-16
6.51596E-07 3.78337E-16
6.87293E-07 3.41386E-16
7.23942E-07 3.08817E-16
7.61543E-07 2.80024E-16
1.18991E-06 1.17450E-16
1.71347E-06 5.73352E-17
2.33223E-06 3.11521E-17
3.04617E-06 1.83290E-17
3.85531E-06 1.14681E-17
4.75964E-06 7.53445E-18
5.75916E-06 5.15063E-18
6.85388E-06 3.63875E-18
8.04378E-06 2.64282E-18
9.32888E-06 1.96535E-18
1.07092E-05 1.49163E-18
1.21846E-05 1.15238E-18
1.37553E-05 9.04296E-19
1.54212E-05 7.19509E-19
1.71822E-05 5.79591E-19
1.90385E-05 4.72065E-19
2.09899E-05 3.88375E-19
2.30365E-05 3.22432E-19
2.51783E-05 2.69900E-19
2.74153E-05 2.27641E-19
2.97475E-05 1.93336E-19
3.21749E-05 1.65254E-19
3.46974E-05 1.42091E-19
3.73152E-05 1.22847E-19
4.00281E-05 1.06753E-19
4.28362E-05 9.32114E-20
4.57395E-05 8.17501E-20
4.87380E-05 7.19973E-20
5.18317E-05 6.36561E-20
5.50205E-05 5.64882E-20
5.83045E-05 5.03011E-20
6.16838E-05 4.49382E-20
6.51582E-05 4.02712E-20
6.87277E-05 3.61946E-20
7.23925E-05 3.26210E-20
7.61524E-05 2.94759E-20
9.21439E-05 2.01281E-20
1.09658E-04 1.42085E-20
1.28695E-04 1.03134E-20
1.49255E-04 7.66592E-21
1.71338E-04 5.81582E-21
1.94942E-04 4.49155E-21
2.20070E-04 3.52353E-21
2.46720E-04 2.80273E-21
2.74892E-04 2.25711E-21
3.04586E-04 1.83800E-21
3.35803E-04 1.51176E-21
3.68542E-04 1.25477E-21
4.02802E-04 1.05012E-21
4.38585E-04 8.85517E-22
4.75889E-04 7.51925E-22
5.14715E-04 6.42589E-22
5.55063E-04 5.52412E-22
5.96931E-04 4.77503E-22
6.40321E-04 4.14865E-22
6.85233E-04 3.62162E-22
7.31665E-04 3.17562E-22
7.79618E-04 2.79617E-22
8.29092E-04 2.47170E-22
8.80086E-04 2.19291E-22
9.32601E-04 1.95232E-22
9.86636E-04 1.74380E-22
1.04219E-03 1.56237E-22
1.09927E-03 1.40392E-22
1.15786E-03 1.26503E-22
1.21797E-03 1.14288E-22
1.27961E-03 1.03511E-22
1.34276E-03 9.39734E-23
1.40743E-03 8.55082E-23
1.47362E-03 7.79741E-23
1.54133E-03 7.12507E-23
1.61056E-03 6.52357E-23
1.68131E-03 5.98415E-23
1.75357E-03 5.49927E-23
1.82735E-03 5.06246E-23
1.90265E-03 4.66810E-23
1.97947E-03 4.31135E-23
2.05780E-03 3.98799E-23
2.13765E-03 3.69434E-23
2.21902E-03 3.42718E-23
2.30190E-03 3.18370E-23
2.38630E-03 2.96143E-23
2.47222E-03 2.75819E-23
2.55965E-03 2.57205E-23
2.64859E-03 2.40133E-23
2.73905E-03 2.24451E-23
2.83103E-03 2.10027E-23
2.92452E-03 1.96740E-23
3.01952E-03 1.84486E-23
3.11604E-03 1.73169E-23
3.21407E-03 1.62704E-23
3.31362E-03 1.53017E-23
3.41468E-03 1.44038E-23
3.51725E-03 1.35707E-23
3.62133E-03 1.27969E-23
3.72692E-03 1.20772E-23
3.83403E-03 1.14074E-23
3.94265E-03 1.07832E-23
4.05278E-03 1.02010E-23
4.16442E-03 9.65749E-24
4.27757E-03 9.14960E-24
4.39223E-03 8.67457E-24
4.50840E-03 8.22989E-24
4.62608E-03 7.81326E-24
4.74527E-03 7.42259E-24
4.86597E-03 7.05596E-24
4.98817E-03 6.71162E-24
5.11188E-03 6.38797E-24
5.23711E-03 6.08353E-24
5.36383E-03 5.79696E-24
5.49207E-03 5.52701E-24
5.62181E-03 5.27253E-24
5.75306E-03 5.03249E-24
5.88581E-03 4.80591E-24
6.02007E-03 4.59189E-24
6.15583E-03 4.38961E-24
6.29310E-03 4.19831E-24
6.43187E-03 4.01728E-24
6.57214E-03 3.84586E-24
6.71392E-03 3.68345E-24
6.85720E-03 3.52950E-24
7.00198E-03 3.38347E-24
7.14827E-03 3.24489E-24
7.29605E-03 3.11330E-24
7.44534E-03 2.98828E-24
7.59612E-03 2.86945E-24
7.97965E-03 2.59712E-24
8.37255E-03 2.35621E-24
8.77480E-03 2.14248E-24
9.18641E-03 1.95233E-24
9.60736E-03 1.78272E-24
1.00376E-02 1.63105E-24
1.04773E-02 1.49509E-24
1.09262E-02 1.37293E-24
1.13844E-02 1.26293E-24
1.18520E-02 1.16366E-24
1.23288E-02 1.07391E-24
1.28150E-02 9.92586E-25
1.33104E-02 9.18773E-25
1.38150E-02 8.51651E-25
1.43290E-02 7.90507E-25
1.48521E-02 7.34716E-25
1.53845E-02 6.83727E-25
1.59262E-02 6.37053E-25
1.64770E-02 5.94264E-25
1.70371E-02 5.54981E-25
1.76063E-02 5.18865E-25
1.81848E-02 4.85615E-25
1.87724E-02 4.54964E-25
1.93692E-02 4.26673E-25
1.99751E-02 4.00527E-25
2.05901E-02 3.76335E-25
2.12143E-02 3.53926E-25
2.18476E-02 3.33143E-25
2.24900E-02 3.13849E-25
2.31415E-02 2.95918E-25
2.38021E-02 2.79235E-25
2.44717E-02 2.63699E-25
2.51504E-02 2.49217E-25
2.58382E-02 2.35705E-25
2.65349E-02 2.23085E-25
2.72407E-02 2.11289E-25
2.79555E-02 2.00253E-25
2.86793E-02 1.89919E-25
2.94120E-02 1.80235E-25
3.01537E-02 1.71153E-25
3.09043E-02 1.62628E-25
3.16639E-02 1.54620E-25
3.24324E-02 1.47092E-25
3.32098E-02 1.40010E-25
3.39961E-02 1.33343E-25
3.47912E-02 1.27063E-25
3.55952E-02 1.21142E-25
3.64081E-02 1.15557E-25
3.72297E-02 1.10285E-25
3.80602E-02 1.05306E-25
3.88995E-02 1.00600E-25
3.97476E-02 9.61497E-26
4.06044E-02 9.19386E-26
4.14700E-02 8.79516E-26
4.23443E-02 8.41746E-26
4.32273E-02 8.05946E-26
4.41190E-02 7.71994E-26
4.50194E-02 7.39779E-26
4.59284E-02 7.09195E-26
4.68461E-02 6.80145E-26
4.87074E-02 6.26291E-26
5.06030E-02 5.77562E-26
5.25328E-02 5.33389E-26
5.44967E-02 4.93274E-26
5.64946E-02 4.56780E-26
5.85262E-02 4.23527E-26
6.05914E-02 3.93178E-26
6.26901E-02 3.65436E-26
6.48222E-02 3.40040E-26
6.69873E-02 3.16759E-26
6.91854E-02 2.95386E-26
7.14163E-02 2.75738E-26
7.36799E-02 2.57654E-26
7.59760E-02 2.40988E-26
7.83043E-02 2.25609E-26
8.06647E-02 2.11403E-26
8.30571E-02 1.98263E-26
8.54812E-02 1.86098E-26
8.79369E-02 1.74822E-26
9.04240E-02 1.64361E-26
9.29422E-02 1.54644E-26
9.54915E-02 1.45611E-26
9.80716E-02 1.37205E-26
1.00682E-01 1.29375E-26
1.03323E-01 1.22076E-26
1.05995E-01 1.15265E-26
1.08696E-01 1.08905E-26
1.11427E-01 1.02961E-26
1.14188E-01 9.74005E-27
1.16978E-01 9.21954E-27
1.19797E-01 8.73191E-27
1.22645E-01 8.27474E-27
1.25522E-01 7.84583E-27
1.28428E-01 7.44313E-27
1.31361E-01 7.06480E-27
1.34323E-01 6.70911E-27
1.37313E-01 6.37449E-27
1.40330E-01 6.05949E-27
1.43375E-01 5.76277E-27
1.46447E-01 5.48312E-27
1.49545E-01 5.21938E-27
1.52671E-01 4.97050E-27
1.55823E-01 4.73553E-27
1.59001E-01 4.51355E-27
1.62205E-01 4.30373E-27
1.65435E-01 4.10531E-27
1.68690E-01 3.91756E-27
1.71970E-01 3.73983E-27
1.75276E-01 3.57149E-27
1.78606E-01 3.41197E-27
1.81961E-01 3.26074E-27
1.85340E-01 3.11730E-27
1.88743E-01 2.98119E-27
1.92169E-01 2.85197E-27
1.95619E-01 2.72924E-27
1.99092E-01 2.61263E-27
2.02589E-01 2.50179E-27
2.06107E-01 2.39638E-27
2.09649E-01 2.29610E-27
2.13212E-01 2.20067E-27
2.16797E-01 2.10981E-27
2.20404E-01 2.02327E-27
2.24032E-01 1.94082E-27
2.27680E-01 1.86223E-27
2.31350E-01 1.78729E-27
2.35040E-01 1.71582E-27
2.38751E-01 1.64763E-27
2.42481E-01 1.58254E-27
2.46231E-01 1.52040E-27
2.50000E-01 1.46104E-27
2.53788E-01 1.40434E-27
2.57595E-01 1.35015E-27
2.61421E-01 1.29834E-27
2.65264E-01 1.24880E-27
2.69126E-01 1.20141E-27
2.73005E-01 1.15607E-27
2.76901E-01 1.11267E-27
2.80814E-01 1.07113E-27
2.84744E-01 1.03134E-27
2.88691E-01 9.93228E-28
2.92653E-01 9.56711E-28
2.96632E-01 9.21713E-28
3.00625E-01 8.88163E-28
3.04634E-01 8.55991E-28
3.08658E-01 8.25135E-28
3.12697E-01 7.95532E-28
3.16749E-01 7.67126E-28
3.20816E-01 7.39861E-28
3.24896E-01 7.13685E-28
3.28990E-01 6.88549E-28
3.33097E-01 6.64407E-28
3.37216E-01 6.41213E-28
3.41348E-01 6.18927E-28
3.45492E-01 5.97507E-28
3.49647E-01 5.76916E-28
3.53814E-01 5.57117E-28
3.57992E-01 5.38076E-28
3.62181E-01 5.19761E-28
3.66381E-01 5.02140E-28
3.70590E-01 4.85184E-28
3.74810E-01 4.68864E-28
3.79039E-01 4.53153E-28
3.83277E-01 4.38027E-28
3.87524E-01 4.23460E-28
3.91780E-01 4.09430E-28
3.96044E-01 3.95914E-28
4.00316E-01 3.82890E-28
4.04596E-01 3.70340E-28
4.08882E-01 3.58244E-28
4.13176E-01 3.46583E-28
4.17476E-01 3.35339E-28
4.21783E-01 3.24497E-28
4.26095E-01 3.14040E-28
4.30413E-01 3.03952E-28
4.34737E-01 2.94220E-28
4.39065E-01 2.84829E-28
4.43398E-01 2.75766E-28
4.47736E-01 2.67018E-28
4.52077E-01 2.58573E-28
4.56422E-01 2.50420E-28
4.60770E-01 2.42546E-28
4.65122E-01 2.34942E-28
4.69476E-01 2.27597E-28
4.73832E-01 2.20501E-28
4.78190E-01 2.13646E-28
4.82550E-01 2.07021E-28
4.86912E-01 2.00619E-28
4.91274E-01 1.94430E-28
4.95637E-01 1.88448E-28
5.00000E-01 1.82665E-28
5.04363E-01 1.77072E-28
5.08726E-01 1.71664E-28
5.13088E-01 1.66434E-28
5.17450E-01 1.61374E-28
5.21810E-01 1.56480E-28
5.26168E-01 1.51744E-28
5.30524E-01 1.47162E-28
5.34878E-01 1.42728E-28
5.39230E-01 1.38436E-28
5.43578E-01 1.34282E-28
5.47923E-01 1.30260E-28
5.52264E-01 1.26367E-28
5.56602E-01 1.22597E-28
5.60935E-01 1.18946E-28
5.65263E-01 1.15411E-28
5.69587E-01 1.11986E-28
5.73905E-01 1.08669E-28
5.78217E-01 1.05455E-28
5.82524E-01 1.02342E-28
5.86824E-01 9.93252E-29
5.91118E-01 9.64018E-29
5.95404E-01 9.35686E-29
5.99684E-01 9.08226E-29
6.03956E-01 8.81608E-29
6.08220E-01 8.55804E-29
6.12476E-01 8.30787E-29
6.16723E-01 8.06532E-29
6.20961E-01 7.83012E-29
6.25190E-01 7.60203E-29
6.29410E-01 7.38082E-29
6.33619E-01 7.16626E-29
6.37819E-01 6.95815E-29
6.42008E-01 6.75625E-29
6.46186E-01 6.56038E-29
6.50353E-01 6.37034E-29
6.54508E-01 6.18594E-29
6.58652E-01 6.00700E-29
6.62784E-01 5.83335E-29
6.66903E-01 5.66480E-29
6.71010E-01 5.50121E-29
6.75104E-01 5.34242E-29
6.79184E-01 5.18827E-29
6.83251E-01 5.03861E-29
6.87303E-01 4.89331E-29
6.91342E-01 4.75222E-29
6.95366E-01 4.61522E-29
6.99375E-01 4.48218E-29
7.03368E-01 4.35297E-29
7.07347E-01 4.22748E-29
7.11309E-01 4.10559E-29
7.15256E-01 3.98719E-29
7.19186E-01 3.87218E-29
7.23099E-01 3.76044E-29
7.26995E-01 3.65188E-29
7.30874E-01 3.54640E-29
7.34736E-01 3.44391E-29
7.38579E-01 3.34432E-29
7.42405E-01 3.24754E-29
7.46212E-01 3.15348E-29
7.50000E-01 3.06207E-29
7.53769E-01 2.97322E-29
7.57519E-01 2.88686E-29
7.61249E-01 2.80291E-29
7.64960E-01 2.72131E-29
7.68650E-01 2.64197E-29
7.72320E-01 2.56484E-29
7.75968E-01 2.48985E-29
7.79596E-01 2.41694E-29
7.83203E-01 2.34605E-29
7.86788E-01 2.27711E-29
7.90351E-01 2.21007E-29
7.93893E-01 2.14488E-29
7.97411E-01 2.08148E-29
8.00908E-01 2.01981E-29
8.04381E-01 1.95984E-29
8.07831E-01 1.90151E-29
8.11257E-01 1.84477E-29
8.14660E-01 1.78958E-29
8.18039E-01 1.73590E-29
8.21394E-01 1.68367E-29
8.24724E-01 1.63287E-29
8.28030E-01 1.58345E-29
8.31310E-01 1.53537E-29
8.34565E-01 1.48859E-29
8.37795E-01 1.44307E-29
8.40999E-01 1.39879E-29
8.44177E-01 1.35571E-29
8.47329E-01 1.31379E-29
8.50455E-01 1.27300E-29
8.53553E-01 1.23331E-29
8.56625E-01 1.19469E-29
8.59670E-01 1.15712E-29
8.62687E-01 1.12055E-29
8.65677E-01 1.08497E-29
8.68639E-01 1.05035E-29
8.71572E-01 1.01666E-29
8.74478E-01 9.83871E-30
8.77355E-01 9.51969E-30
8.80203E-01 9.20926E-30
8.83022E-01 8.90718E-30
8.85812E-01 8.61325E-30
8.88573E-01 8.32723E-30
8.91304E-01 8.04892E-30
8.94005E-01 7.77812E-30
8.96677E-01 7.51462E-30
8.99318E-01 7.25825E-30
9.01928E-01 7.00882E-30
9.04508E-01 6.76613E-30
9.07058E-01 6.53003E-30
9.09576E-01 6.30034E-30
9.12063E-01 6.07690E-30
9.14519E-01 5.85955E-30
9.16943E-01 5.64813E-30
9.19335E-01 5.44250E-30
9.21696E-01 5.24250E-30
9.24024E-01 5.04801E-30
9.26320E-01 4.85888E-30
9.28584E-01 4.67499E-30
9.30815E-01 4.49619E-30
9.33013E-01 4.32238E-30
9.35178E-01 4.15342E-30
9.37310E-01 3.98921E-30
9.39409E-01 3.82963E-30
9.41474E-01 3.67456E-30
9.43505E-01 3.52391E-30
9.45503E-01 3.37756E-30
9.47467E-01 3.23543E-30
9.49397E-01 3.09741E-30
9.51293E-01 2.96340E-30
9.53154E-01 2.83333E-30
9.54981E-01 2.70709E-30
9.56773E-01 2.58461E-30
9.58530E-01 2.46581E-30
9.60252E-01 2.35059E-30
9.61940E-01 2.23890E-30
9.63592E-01 2.13064E-30
9.65209E-01 2.02575E-30
9.66790E-01 1.92416E-30
9.68336E-01 1.82580E-30
9.69846E-01 1.73061E-30
9.71321E-01 1.63852E-30
9.72759E-01 1.54948E-30
9.74162E-01 1.46342E-30
9.75528E-01 1.38028E-30
9.76858E-01 1.30002E-30
9.78152E-01 1.22257E-30
9.79410E-01 1.14790E-30
9.80631E-01 1.07595E-30
9.81815E-01 1.00667E-30
9.82963E-01 9.40012E-31
9.84074E-01 8.75944E-31
9.85148E-01 8.14418E-31
9.86185E-01 7.55396E-31
9.87185E-01 6.98838E-31
9.88148E-01 6.44709E-31
9.89074E-01 5.92973E-31
9.89962E-01 5.43596E-31
9.90814E-01 4.96547E-31
9.91627E-01 4.51796E-31
9.92404E-01 4.09314E-31
9.93143E-01 3.69073E-31
9.93844E-01 3.31048E-31
9.94508E-01 2.95214E-31
9.95134E-01 2.61548E-31
9.95722E-01 2.30030E-31
9.96273E-01 2.00637E-31
9.96786E-01 1.73353E-31
9.97261E-01 1.48159E-31
9.97698E-01 1.25039E-31
9.98097E-01 1.03978E-31
9.98459E-01 8.49635E-32
9.98782E-01 6.79828E-32
9.99067E-01 5.30253E-32
9.99315E-01 4.00813E-32
9.99524E-01 2.91424E-32
9.99695E-01 2.02021E-32
9.99829E-01 1.32543E-32
9.99924E-01 8.29487E-33
9.99981E-01 5.32040E-33
1.00000E+00 4.32928E-33
