 #
 # Subroutine ELSEPA. Elastic scattering of electrons and positrons
 #                    by neutral atoms and positive ions
 #
 # Projectile: positron
 # Kinetic energy = 3.00000E+07 eV = 1.10248E+06 a.u.
 #
 # WARNING: High-energy factorization with free-atom DF screening.
 #          Absorption, polarization and exchange corrections are
 #          switched off.
 #          Phase shifts are calculated for the bare nucleus.
 #          Scattering amplitudes are not evaluated.
 #
 # Element: Na,  Z =  11,  atomic weight = 2.29898E+01 g/mol
 #
 # Nuclear model: Fermi distribution
 #                Average radius = 3.04249E-13 cm
 #                Skin thickness = 5.46000E-14 cm
 #
 # Number of electrons = 11
 #
 # Total elastic cross section = 4.67187E-19 cm**2 = 1.66835E-02 a0**2
 # 1st transport cross section = 2.52071E-25 cm**2 = 9.00163E-09 a0**2
 # 2nd transport cross section = 7.34562E-25 cm**2 = 2.62317E-08 a0**2
 #
 #
 # Differential cross section:                       MU=(1-COS(THETA))/2
 #
 #  THETA        MU          DCS          DCS        Sherman      error
 #  (deg)                 (cm**2/sr)   (a0**2/sr)    function
 #----------------------------------------------------------------------
0.00000E+00 8.13001E-12
7.61557E-13 8.12534E-12
1.18994E-12 8.12273E-12
1.71346E-12 8.11954E-12
2.33225E-12 8.11577E-12
3.04617E-12 8.11143E-12
3.85530E-12 8.10651E-12
4.75964E-12 8.10103E-12
5.75917E-12 8.09497E-12
6.85391E-12 8.08834E-12
8.04379E-12 8.08115E-12
9.32893E-12 8.07340E-12
1.07092E-11 8.06508E-12
1.21847E-11 8.05620E-12
1.37554E-11 8.04677E-12
1.54213E-11 8.03678E-12
1.71823E-11 8.02625E-12
1.90386E-11 8.01517E-12
2.09900E-11 8.00354E-12
2.30367E-11 7.99137E-12
2.51785E-11 7.97866E-12
2.74156E-11 7.96543E-12
2.97478E-11 7.95167E-12
3.21752E-11 7.93738E-12
3.46979E-11 7.92256E-12
3.73157E-11 7.90722E-12
4.00286E-11 7.89140E-12
4.28368E-11 7.87506E-12
4.57402E-11 7.85821E-12
4.87388E-11 7.84085E-12
5.18325E-11 7.82301E-12
5.50215E-11 7.80471E-12
5.83057E-11 7.78591E-12
6.16850E-11 7.76662E-12
6.51595E-11 7.74686E-12
6.87293E-11 7.72666E-12
7.23943E-11 7.70600E-12
7.61544E-11 7.68488E-12
1.18991E-10 7.45012E-12
1.71347E-10 7.17728E-12
2.33223E-10 6.87348E-12
3.04617E-10 6.54622E-12
3.85531E-10 6.20276E-12
4.75965E-10 5.85004E-12
5.75917E-10 5.49446E-12
6.85389E-10 5.14162E-12
8.04380E-10 4.79629E-12
9.32891E-10 4.46238E-12
1.07092E-09 4.14300E-12
1.21847E-09 3.84013E-12
1.37554E-09 3.55519E-12
1.54213E-09 3.28893E-12
1.71823E-09 3.04608E-12
1.90386E-09 2.82572E-12
2.09900E-09 2.61723E-12
2.30367E-09 2.42080E-12
2.51785E-09 2.23639E-12
2.74156E-09 2.07753E-12
2.97478E-09 1.93454E-12
3.21752E-09 1.80077E-12
3.46978E-09 1.67587E-12
3.73156E-09 1.55985E-12
4.00286E-09 1.46319E-12
4.28368E-09 1.37296E-12
4.57402E-09 1.28879E-12
4.87388E-09 1.21033E-12
5.18326E-09 1.13967E-12
5.50215E-09 1.07770E-12
5.83057E-09 1.01983E-12
6.16850E-09 9.65791E-13
6.51596E-09 9.15328E-13
6.87293E-09 8.70369E-13
7.23942E-09 8.29163E-13
7.61544E-09 7.90590E-13
1.18991E-08 5.22563E-13
1.71347E-08 3.72706E-13
2.33223E-08 2.75994E-13
3.04617E-08 2.08121E-13
3.85531E-08 1.58752E-13
4.75965E-08 1.22111E-13
5.75917E-08 9.46183E-14
6.85389E-08 7.38404E-14
8.04380E-08 5.80433E-14
9.32891E-08 4.59619E-14
1.07092E-07 3.66668E-14
1.21847E-07 2.94827E-14
1.37554E-07 2.38925E-14
1.54213E-07 1.95126E-14
1.71823E-07 1.60439E-14
1.90386E-07 1.32976E-14
2.09900E-07 1.11067E-14
2.30367E-07 9.33861E-15
2.51785E-07 7.90307E-15
2.74156E-07 6.73169E-15
2.97478E-07 5.76644E-15
3.21752E-07 4.96930E-15
3.46978E-07 4.30388E-15
3.73156E-07 3.74767E-15
4.00286E-07 3.27814E-15
4.28368E-07 2.88101E-15
4.57402E-07 2.54249E-15
4.87388E-07 2.25301E-15
5.18325E-07 2.00397E-15
5.50215E-07 1.78891E-15
5.83057E-07 1.60232E-15
6.16850E-07 1.43977E-15
6.51596E-07 1.29764E-15
6.87293E-07 1.17283E-15
7.23942E-07 1.06295E-15
7.61543E-07 9.65738E-16
1.18991E-06 4.15303E-16
1.71347E-06 2.07938E-16
2.33223E-06 1.15338E-16
3.04617E-06 6.89286E-17
3.85531E-06 4.36208E-17
4.75964E-06 2.88968E-17
5.75916E-06 1.98737E-17
6.85388E-06 1.41022E-17
8.04378E-06 1.02761E-17
9.32888E-06 7.66068E-18
1.07092E-05 5.82503E-18
1.21846E-05 4.50667E-18
1.37553E-05 3.54041E-18
1.54212E-05 2.81941E-18
1.71822E-05 2.27270E-18
1.90385E-05 1.85210E-18
2.09899E-05 1.52443E-18
2.30365E-05 1.26606E-18
2.51783E-05 1.06013E-18
2.74153E-05 8.94381E-19
2.97475E-05 7.59767E-19
3.21749E-05 6.49535E-19
3.46974E-05 5.58577E-19
3.73152E-05 4.82991E-19
4.00281E-05 4.19765E-19
4.28362E-05 3.66552E-19
4.57395E-05 3.21508E-19
4.87380E-05 2.83172E-19
5.18317E-05 2.50381E-19
5.50205E-05 2.22200E-19
5.83045E-05 1.97872E-19
6.16838E-05 1.76783E-19
6.51582E-05 1.58429E-19
6.87277E-05 1.42397E-19
7.23925E-05 1.28341E-19
7.61524E-05 1.15976E-19
9.21439E-05 7.92025E-20
1.09658E-04 5.59105E-20
1.28695E-04 4.05843E-20
1.49255E-04 3.01666E-20
1.71338E-04 2.28867E-20
1.94942E-04 1.76757E-20
2.20070E-04 1.38665E-20
2.46720E-04 1.10301E-20
2.74892E-04 8.88304E-21
3.04586E-04 7.23373E-21
3.35803E-04 5.94991E-21
3.68542E-04 4.93858E-21
4.02802E-04 4.13321E-21
4.38585E-04 3.48544E-21
4.75889E-04 2.95970E-21
5.14715E-04 2.52941E-21
5.55063E-04 2.17451E-21
5.96931E-04 1.87970E-21
6.40321E-04 1.63317E-21
6.85233E-04 1.42575E-21
7.31665E-04 1.25021E-21
7.79618E-04 1.10086E-21
8.29092E-04 9.73151E-22
8.80086E-04 8.63421E-22
9.32601E-04 7.68720E-22
9.86636E-04 6.86646E-22
1.04219E-03 6.15230E-22
1.09927E-03 5.52856E-22
1.15786E-03 4.98183E-22
1.21797E-03 4.50100E-22
1.27961E-03 4.07675E-22
1.34276E-03 3.70129E-22
1.40743E-03 3.36804E-22
1.47362E-03 3.07143E-22
1.54133E-03 2.80674E-22
1.61056E-03 2.56992E-22
1.68131E-03 2.35755E-22
1.75357E-03 2.16664E-22
1.82735E-03 1.99465E-22
1.90265E-03 1.83937E-22
1.97947E-03 1.69890E-22
2.05780E-03 1.57157E-22
2.13765E-03 1.45593E-22
2.21902E-03 1.35073E-22
2.30190E-03 1.25485E-22
2.38630E-03 1.16731E-22
2.47222E-03 1.08727E-22
2.55965E-03 1.01396E-22
2.64859E-03 9.46722E-23
2.73905E-03 8.84958E-23
2.83103E-03 8.28142E-23
2.92452E-03 7.75807E-23
3.01952E-03 7.27536E-23
3.11604E-03 6.82956E-23
3.21407E-03 6.41733E-23
3.31362E-03 6.03570E-23
3.41468E-03 5.68198E-23
3.51725E-03 5.35375E-23
3.62133E-03 5.04884E-23
3.72692E-03 4.76530E-23
3.83403E-03 4.50136E-23
3.94265E-03 4.25541E-23
4.05278E-03 4.02600E-23
4.16442E-03 3.81181E-23
4.27757E-03 3.61166E-23
4.39223E-03 3.42445E-23
4.50840E-03 3.24919E-23
4.62608E-03 3.08497E-23
4.74527E-03 2.93099E-23
4.86597E-03 2.78647E-23
4.98817E-03 2.65073E-23
5.11188E-03 2.52315E-23
5.23711E-03 2.40313E-23
5.36383E-03 2.29015E-23
5.49207E-03 2.18371E-23
5.62181E-03 2.08338E-23
5.75306E-03 1.98873E-23
5.88581E-03 1.89938E-23
6.02007E-03 1.81498E-23
6.15583E-03 1.73521E-23
6.29310E-03 1.65976E-23
6.43187E-03 1.58836E-23
6.57214E-03 1.52075E-23
6.71392E-03 1.45669E-23
6.85720E-03 1.39596E-23
7.00198E-03 1.33835E-23
7.14827E-03 1.28368E-23
7.29605E-03 1.23176E-23
7.44534E-03 1.18243E-23
7.59612E-03 1.13555E-23
7.97965E-03 1.02808E-23
8.37255E-03 9.32994E-24
8.77480E-03 8.48625E-24
9.18641E-03 7.73554E-24
9.60736E-03 7.06580E-24
1.00376E-02 6.46679E-24
1.04773E-02 5.92974E-24
1.09262E-02 5.44713E-24
1.13844E-02 5.01247E-24
1.18520E-02 4.62017E-24
1.23288E-02 4.26538E-24
1.28150E-02 3.94388E-24
1.33104E-02 3.65200E-24
1.38150E-02 3.38653E-24
1.43290E-02 3.14465E-24
1.48521E-02 2.92390E-24
1.53845E-02 2.72211E-24
1.59262E-02 2.53736E-24
1.64770E-02 2.36795E-24
1.70371E-02 2.21238E-24
1.76063E-02 2.06933E-24
1.81848E-02 1.93760E-24
1.87724E-02 1.81613E-24
1.93692E-02 1.70400E-24
1.99751E-02 1.60034E-24
2.05901E-02 1.50440E-24
2.12143E-02 1.41551E-24
2.18476E-02 1.33305E-24
2.24900E-02 1.25648E-24
2.31415E-02 1.18530E-24
2.38021E-02 1.11906E-24
2.44717E-02 1.05735E-24
2.51504E-02 9.99815E-25
2.58382E-02 9.46116E-25
2.65349E-02 8.95952E-25
2.72407E-02 8.49047E-25
2.79555E-02 8.05152E-25
2.86793E-02 7.64039E-25
2.94120E-02 7.25499E-25
3.01537E-02 6.89341E-25
3.09043E-02 6.55392E-25
3.16639E-02 6.23493E-25
3.24324E-02 5.93497E-25
3.32098E-02 5.65269E-25
3.39961E-02 5.38687E-25
3.47912E-02 5.13637E-25
3.55952E-02 4.90015E-25
3.64081E-02 4.67725E-25
3.72297E-02 4.46677E-25
3.80602E-02 4.26789E-25
3.88995E-02 4.07987E-25
3.97476E-02 3.90200E-25
4.06044E-02 3.73364E-25
4.14700E-02 3.57417E-25
4.23443E-02 3.42305E-25
4.32273E-02 3.27976E-25
4.41190E-02 3.14381E-25
4.50194E-02 3.01477E-25
4.59284E-02 2.89222E-25
4.68461E-02 2.77577E-25
4.87074E-02 2.55976E-25
5.06030E-02 2.36415E-25
5.25328E-02 2.18668E-25
5.44967E-02 2.02538E-25
5.64946E-02 1.87852E-25
5.85262E-02 1.74458E-25
6.05914E-02 1.62223E-25
6.26901E-02 1.51029E-25
6.48222E-02 1.40772E-25
6.69873E-02 1.31361E-25
6.91854E-02 1.22712E-25
7.14163E-02 1.14754E-25
7.36799E-02 1.07422E-25
7.59760E-02 1.00657E-25
7.83043E-02 9.44092E-26
8.06647E-02 8.86311E-26
8.30571E-02 8.32815E-26
8.54812E-02 7.83231E-26
8.79369E-02 7.37222E-26
9.04240E-02 6.94485E-26
9.29422E-02 6.54746E-26
9.54915E-02 6.17760E-26
9.80716E-02 5.83301E-26
1.00682E-01 5.51166E-26
1.03323E-01 5.21172E-26
1.05995E-01 4.93151E-26
1.08696E-01 4.66950E-26
1.11427E-01 4.42430E-26
1.14188E-01 4.19465E-26
1.16978E-01 3.97939E-26
1.19797E-01 3.77746E-26
1.22645E-01 3.58788E-26
1.25522E-01 3.40978E-26
1.28428E-01 3.24233E-26
1.31361E-01 3.08479E-26
1.34323E-01 2.93646E-26
1.37313E-01 2.79672E-26
1.40330E-01 2.66498E-26
1.43375E-01 2.54070E-26
1.46447E-01 2.42339E-26
1.49545E-01 2.31258E-26
1.52671E-01 2.20786E-26
1.55823E-01 2.10883E-26
1.59001E-01 2.01513E-26
1.62205E-01 1.92642E-26
1.65435E-01 1.84240E-26
1.68690E-01 1.76276E-26
1.71970E-01 1.68724E-26
1.75276E-01 1.61560E-26
1.78606E-01 1.54759E-26
1.81961E-01 1.48300E-26
1.85340E-01 1.42164E-26
1.88743E-01 1.36330E-26
1.92169E-01 1.30782E-26
1.95619E-01 1.25504E-26
1.99092E-01 1.20479E-26
2.02589E-01 1.15694E-26
2.06107E-01 1.11135E-26
2.09649E-01 1.06789E-26
2.13212E-01 1.02646E-26
2.16797E-01 9.86935E-27
2.20404E-01 9.49217E-27
2.24032E-01 9.13210E-27
2.27680E-01 8.78822E-27
2.31350E-01 8.45967E-27
2.35040E-01 8.14567E-27
2.38751E-01 7.84545E-27
2.42481E-01 7.55832E-27
2.46231E-01 7.28359E-27
2.50000E-01 7.02066E-27
2.53788E-01 6.76891E-27
2.57595E-01 6.52781E-27
2.61421E-01 6.29682E-27
2.65264E-01 6.07544E-27
2.69126E-01 5.86322E-27
2.73005E-01 5.65970E-27
2.76901E-01 5.46448E-27
2.80814E-01 5.27716E-27
2.84744E-01 5.09735E-27
2.88691E-01 4.92473E-27
2.92653E-01 4.75894E-27
2.96632E-01 4.59967E-27
3.00625E-01 4.44663E-27
3.04634E-01 4.29953E-27
3.08658E-01 4.15810E-27
3.12697E-01 4.02209E-27
3.16749E-01 3.89125E-27
3.20816E-01 3.76536E-27
3.24896E-01 3.64420E-27
3.28990E-01 3.52757E-27
3.33097E-01 3.41526E-27
3.37216E-01 3.30709E-27
3.41348E-01 3.20288E-27
3.45492E-01 3.10246E-27
3.49647E-01 3.00568E-27
3.53814E-01 2.91238E-27
3.57992E-01 2.82242E-27
3.62181E-01 2.73565E-27
3.66381E-01 2.65195E-27
3.70590E-01 2.57119E-27
3.74810E-01 2.49324E-27
3.79039E-01 2.41801E-27
3.83277E-01 2.34537E-27
3.87524E-01 2.27523E-27
3.91780E-01 2.20747E-27
3.96044E-01 2.14202E-27
4.00316E-01 2.07878E-27
4.04596E-01 2.01766E-27
4.08882E-01 1.95859E-27
4.13176E-01 1.90147E-27
4.17476E-01 1.84624E-27
4.21783E-01 1.79283E-27
4.26095E-01 1.74116E-27
4.30413E-01 1.69117E-27
4.34737E-01 1.64280E-27
4.39065E-01 1.59599E-27
4.43398E-01 1.55067E-27
4.47736E-01 1.50680E-27
4.52077E-01 1.46432E-27
4.56422E-01 1.42318E-27
4.60770E-01 1.38333E-27
4.65122E-01 1.34473E-27
4.69476E-01 1.30732E-27
4.73832E-01 1.27107E-27
4.78190E-01 1.23594E-27
4.82550E-01 1.20189E-27
4.86912E-01 1.16887E-27
4.91274E-01 1.13686E-27
4.95637E-01 1.10581E-27
5.00000E-01 1.07570E-27
5.04363E-01 1.04649E-27
5.08726E-01 1.01815E-27
5.13088E-01 9.90651E-28
5.17450E-01 9.63964E-28
5.21810E-01 9.38063E-28
5.26168E-01 9.12920E-28
5.30524E-01 8.88511E-28
5.34878E-01 8.64810E-28
5.39230E-01 8.41795E-28
5.43578E-01 8.19442E-28
5.47923E-01 7.97731E-28
5.52264E-01 7.76639E-28
5.56602E-01 7.56147E-28
5.60935E-01 7.36235E-28
5.65263E-01 7.16886E-28
5.69587E-01 6.98079E-28
5.73905E-01 6.79799E-28
5.78217E-01 6.62029E-28
5.82524E-01 6.44752E-28
5.86824E-01 6.27953E-28
5.91118E-01 6.11617E-28
5.95404E-01 5.95729E-28
5.99684E-01 5.80276E-28
6.03956E-01 5.65244E-28
6.08220E-01 5.50620E-28
6.12476E-01 5.36391E-28
6.16723E-01 5.22546E-28
6.20961E-01 5.09072E-28
6.25190E-01 4.95959E-28
6.29410E-01 4.83196E-28
6.33619E-01 4.70772E-28
6.37819E-01 4.58676E-28
6.42008E-01 4.46900E-28
6.46186E-01 4.35434E-28
6.50353E-01 4.24268E-28
6.54508E-01 4.13394E-28
6.58652E-01 4.02803E-28
6.62784E-01 3.92487E-28
6.66903E-01 3.82437E-28
6.71010E-01 3.72647E-28
6.75104E-01 3.63109E-28
6.79184E-01 3.53815E-28
6.83251E-01 3.44759E-28
6.87303E-01 3.35933E-28
6.91342E-01 3.27331E-28
6.95366E-01 3.18947E-28
6.99375E-01 3.10775E-28
7.03368E-01 3.02809E-28
7.07347E-01 2.95043E-28
7.11309E-01 2.87471E-28
7.15256E-01 2.80088E-28
7.19186E-01 2.72889E-28
7.23099E-01 2.65869E-28
7.26995E-01 2.59023E-28
7.30874E-01 2.52346E-28
7.34736E-01 2.45833E-28
7.38579E-01 2.39481E-28
7.42405E-01 2.33284E-28
7.46212E-01 2.27239E-28
7.50000E-01 2.21342E-28
7.53769E-01 2.15588E-28
7.57519E-01 2.09973E-28
7.61249E-01 2.04495E-28
7.64960E-01 1.99150E-28
7.68650E-01 1.93933E-28
7.72320E-01 1.88842E-28
7.75968E-01 1.83874E-28
7.79596E-01 1.79025E-28
7.83203E-01 1.74292E-28
7.86788E-01 1.69672E-28
7.90351E-01 1.65162E-28
7.93893E-01 1.60760E-28
7.97411E-01 1.56462E-28
8.00908E-01 1.52266E-28
8.04381E-01 1.48170E-28
8.07831E-01 1.44171E-28
8.11257E-01 1.40266E-28
8.14660E-01 1.36454E-28
8.18039E-01 1.32732E-28
8.21394E-01 1.29097E-28
8.24724E-01 1.25547E-28
8.28030E-01 1.22081E-28
8.31310E-01 1.18697E-28
8.34565E-01 1.15392E-28
8.37795E-01 1.12164E-28
8.40999E-01 1.09012E-28
8.44177E-01 1.05934E-28
8.47329E-01 1.02928E-28
8.50455E-01 9.99919E-29
8.53553E-01 9.71247E-29
8.56625E-01 9.43245E-29
8.59670E-01 9.15898E-29
8.62687E-01 8.89190E-29
8.65677E-01 8.63107E-29
8.68639E-01 8.37634E-29
8.71572E-01 8.12757E-29
8.74478E-01 7.88463E-29
8.77355E-01 7.64737E-29
8.80203E-01 7.41568E-29
8.83022E-01 7.18942E-29
8.85812E-01 6.96848E-29
8.88573E-01 6.75274E-29
8.91304E-01 6.54208E-29
8.94005E-01 6.33639E-29
8.96677E-01 6.13555E-29
8.99318E-01 5.93947E-29
9.01928E-01 5.74805E-29
9.04508E-01 5.56117E-29
9.07058E-01 5.37875E-29
9.09576E-01 5.20068E-29
9.12063E-01 5.02689E-29
9.14519E-01 4.85727E-29
9.16943E-01 4.69174E-29
9.19335E-01 4.53022E-29
9.21696E-01 4.37262E-29
9.24024E-01 4.21886E-29
9.26320E-01 4.06887E-29
9.28584E-01 3.92257E-29
9.30815E-01 3.77989E-29
9.33013E-01 3.64076E-29
9.35178E-01 3.50510E-29
9.37310E-01 3.37285E-29
9.39409E-01 3.24394E-29
9.41474E-01 3.11831E-29
9.43505E-01 2.99591E-29
9.45503E-01 2.87666E-29
9.47467E-01 2.76051E-29
9.49397E-01 2.64740E-29
9.51293E-01 2.53728E-29
9.53154E-01 2.43010E-29
9.54981E-01 2.32580E-29
9.56773E-01 2.22433E-29
9.58530E-01 2.12565E-29
9.60252E-01 2.02970E-29
9.61940E-01 1.93645E-29
9.63592E-01 1.84584E-29
9.65209E-01 1.75784E-29
9.66790E-01 1.67240E-29
9.68336E-01 1.58948E-29
9.69846E-01 1.50905E-29
9.71321E-01 1.43106E-29
9.72759E-01 1.35547E-29
9.74162E-01 1.28226E-29
9.75528E-01 1.21139E-29
9.76858E-01 1.14283E-29
9.78152E-01 1.07654E-29
9.79410E-01 1.01249E-29
9.80631E-01 9.50658E-30
9.81815E-01 8.91010E-30
9.82963E-01 8.33518E-30
9.84074E-01 7.78157E-30
9.85148E-01 7.24902E-30
9.86185E-01 6.73728E-30
9.87185E-01 6.24612E-30
9.88148E-01 5.77530E-30
9.89074E-01 5.32463E-30
9.89962E-01 4.89388E-30
9.90814E-01 4.48287E-30
9.91627E-01 4.09141E-30
9.92404E-01 3.71932E-30
9.93143E-01 3.36642E-30
9.93844E-01 3.03257E-30
9.94508E-01 2.71761E-30
9.95134E-01 2.42140E-30
9.95722E-01 2.14380E-30
9.96273E-01 1.88469E-30
9.96786E-01 1.64395E-30
9.97261E-01 1.42148E-30
9.97698E-01 1.21717E-30
9.98097E-01 1.03093E-30
9.98459E-01 8.62678E-31
9.98782E-01 7.12340E-31
9.99067E-01 5.79847E-31
9.99315E-01 4.65140E-31
9.99524E-01 3.68166E-31
9.99695E-01 2.88884E-31
9.99829E-01 2.27257E-31
9.99924E-01 1.83257E-31
9.99981E-01 1.56865E-31
1.00000E+00 1.48071E-31
