 #
 # Subroutine ELSEPA. Elastic scattering of electrons and positrons
 #                    by neutral atoms and positive ions
 #
 # Projectile: positron
 # Kinetic energy = 2.50000E+07 eV = 9.18733E+05 a.u.
 #
 # WARNING: High-energy factorization with free-atom DF screening.
 #          Absorption, polarization and exchange corrections are
 #          switched off.
 #          Phase shifts are calculated for the bare nucleus.
 #          Scattering amplitudes are not evaluated.
 #
 # Element: Na,  Z =  11,  atomic weight = 2.29898E+01 g/mol
 #
 # Nuclear model: Fermi distribution
 #                Average radius = 3.04249E-13 cm
 #                Skin thickness = 5.46000E-14 cm
 #
 # Number of electrons = 11
 #
 # Total elastic cross section = 4.67299E-19 cm**2 = 1.66876E-02 a0**2
 # 1st transport cross section = 3.52816E-25 cm**2 = 1.25993E-08 a0**2
 # 2nd transport cross section = 1.02667E-24 cm**2 = 3.66631E-08 a0**2
 #
 #
 # Differential cross section:                       MU=(1-COS(THETA))/2
 #
 #  THETA        MU          DCS          DCS        Sherman      error
 #  (deg)                 (cm**2/sr)   (a0**2/sr)    function
 #----------------------------------------------------------------------
0.00000E+00 5.68372E-12
7.61557E-13 5.68144E-12
1.18994E-12 5.68016E-12
1.71346E-12 5.67860E-12
2.33225E-12 5.67676E-12
3.04617E-12 5.67463E-12
3.85530E-12 5.67223E-12
4.75964E-12 5.66954E-12
5.75917E-12 5.66658E-12
6.85391E-12 5.66333E-12
8.04379E-12 5.65981E-12
9.32893E-12 5.65600E-12
1.07092E-11 5.65193E-12
1.21847E-11 5.64757E-12
1.37554E-11 5.64294E-12
1.54213E-11 5.63803E-12
1.71823E-11 5.63286E-12
1.90386E-11 5.62741E-12
2.09900E-11 5.62169E-12
2.30367E-11 5.61569E-12
2.51785E-11 5.60944E-12
2.74156E-11 5.60292E-12
2.97478E-11 5.59613E-12
3.21752E-11 5.58907E-12
3.46979E-11 5.58175E-12
3.73157E-11 5.57416E-12
4.00286E-11 5.56633E-12
4.28368E-11 5.55824E-12
4.57402E-11 5.54988E-12
4.87388E-11 5.54127E-12
5.18325E-11 5.53241E-12
5.50215E-11 5.52330E-12
5.83057E-11 5.51394E-12
6.16850E-11 5.50434E-12
6.51595E-11 5.49449E-12
6.87293E-11 5.48439E-12
7.23943E-11 5.47404E-12
7.61544E-11 5.46348E-12
1.18991E-10 5.34508E-12
1.71347E-10 5.20548E-12
2.33223E-10 5.04731E-12
3.04617E-10 4.87347E-12
3.85531E-10 4.68697E-12
4.75965E-10 4.49087E-12
5.75917E-10 4.28819E-12
6.85389E-10 4.08162E-12
8.04380E-10 3.87373E-12
9.32891E-10 3.66682E-12
1.07092E-09 3.46302E-12
1.21847E-09 3.26406E-12
1.37554E-09 3.07125E-12
1.54213E-09 2.88569E-12
1.71823E-09 2.70822E-12
1.90386E-09 2.53956E-12
2.09900E-09 2.38002E-12
2.30367E-09 2.22967E-12
2.51785E-09 2.09342E-12
2.74156E-09 1.96562E-12
2.97478E-09 1.84365E-12
3.21752E-09 1.72756E-12
3.46978E-09 1.61736E-12
3.73156E-09 1.51449E-12
4.00286E-09 1.42719E-12
4.28368E-09 1.34451E-12
4.57402E-09 1.26633E-12
4.87388E-09 1.19249E-12
5.18326E-09 1.12285E-12
5.50215E-09 1.06111E-12
5.83057E-09 1.00593E-12
6.16850E-09 9.53847E-13
6.51596E-09 9.04710E-13
6.87293E-09 8.58376E-13
7.23942E-09 8.14701E-13
7.61544E-09 7.77188E-13
1.18991E-08 5.08318E-13
1.71347E-08 3.63136E-13
2.33223E-08 2.72928E-13
3.04617E-08 2.11144E-13
3.85531E-08 1.66069E-13
4.75965E-08 1.31870E-13
5.75917E-08 1.05342E-13
6.85389E-08 8.46439E-14
8.04380E-08 6.83734E-14
9.32891E-08 5.55116E-14
1.07092E-07 4.52811E-14
1.21847E-07 3.71176E-14
1.37554E-07 3.05924E-14
1.54213E-07 2.53531E-14
1.71823E-07 2.11268E-14
1.90386E-07 1.76981E-14
2.09900E-07 1.49058E-14
2.30367E-07 1.26221E-14
2.51785E-07 1.07327E-14
2.74156E-07 9.18546E-15
2.97478E-07 7.90157E-15
3.21752E-07 6.82636E-15
3.46978E-07 5.92906E-15
3.73156E-07 5.16863E-15
4.00286E-07 4.52868E-15
4.28368E-07 3.98129E-15
4.57402E-07 3.51564E-15
4.87388E-07 3.11536E-15
5.18325E-07 2.77096E-15
5.50215E-07 2.47304E-15
5.83057E-07 2.21433E-15
6.16850E-07 1.98899E-15
6.51596E-07 1.79173E-15
6.87293E-07 1.61878E-15
7.23942E-07 1.46628E-15
7.61543E-07 1.33170E-15
1.18991E-06 5.71350E-16
1.71347E-06 2.86746E-16
2.33223E-06 1.59798E-16
3.04617E-06 9.60025E-17
3.85531E-06 6.10502E-17
4.75964E-06 4.06120E-17
5.75916E-06 2.80256E-17
6.85388E-06 1.99416E-17
8.04378E-06 1.45629E-17
9.32888E-06 1.08753E-17
1.07092E-05 8.28081E-18
1.21846E-05 6.41371E-18
1.37553E-05 5.04304E-18
1.54212E-05 4.01889E-18
1.71822E-05 3.24149E-18
1.90385E-05 2.64283E-18
2.09899E-05 2.17611E-18
2.30365E-05 1.80787E-18
2.51783E-05 1.51422E-18
2.74153E-05 1.27776E-18
2.97475E-05 1.08565E-18
3.21749E-05 9.28278E-19
3.46974E-05 7.98393E-19
3.73152E-05 6.90436E-19
4.00281E-05 6.00114E-19
4.28362E-05 5.24082E-19
4.57395E-05 4.59713E-19
4.87380E-05 4.04924E-19
5.18317E-05 3.58054E-19
5.50205E-05 3.17769E-19
5.83045E-05 2.82990E-19
6.16838E-05 2.52839E-19
6.51582E-05 2.26596E-19
6.87277E-05 2.03671E-19
7.23925E-05 1.83572E-19
7.61524E-05 1.65890E-19
9.21439E-05 1.13299E-19
1.09658E-04 7.99875E-20
1.28695E-04 5.80648E-20
1.49255E-04 4.31603E-20
1.71338E-04 3.27448E-20
1.94942E-04 2.52893E-20
2.20070E-04 1.98394E-20
2.46720E-04 1.57814E-20
2.74892E-04 1.27095E-20
3.04586E-04 1.03497E-20
3.35803E-04 8.51293E-21
3.68542E-04 7.06597E-21
4.02802E-04 5.91368E-21
4.38585E-04 4.98690E-21
4.75889E-04 4.23469E-21
5.14715E-04 3.61904E-21
5.55063E-04 3.11127E-21
5.96931E-04 2.68947E-21
6.40321E-04 2.33674E-21
6.85233E-04 2.03997E-21
7.31665E-04 1.78882E-21
7.79618E-04 1.57513E-21
8.29092E-04 1.39241E-21
8.80086E-04 1.23541E-21
9.32601E-04 1.09991E-21
9.86636E-04 9.82480E-22
1.04219E-03 8.80300E-22
1.09927E-03 7.91055E-22
1.15786E-03 7.12830E-22
1.21797E-03 6.44032E-22
1.27961E-03 5.83331E-22
1.34276E-03 5.29610E-22
1.40743E-03 4.81928E-22
1.47362E-03 4.39489E-22
1.54133E-03 4.01616E-22
1.61056E-03 3.67732E-22
1.68131E-03 3.37345E-22
1.75357E-03 3.10029E-22
1.82735E-03 2.85420E-22
1.90265E-03 2.63203E-22
1.97947E-03 2.43103E-22
2.05780E-03 2.24884E-22
2.13765E-03 2.08339E-22
2.21902E-03 1.93286E-22
2.30190E-03 1.79566E-22
2.38630E-03 1.67041E-22
2.47222E-03 1.55588E-22
2.55965E-03 1.45099E-22
2.64859E-03 1.35478E-22
2.73905E-03 1.26640E-22
2.83103E-03 1.18510E-22
2.92452E-03 1.11022E-22
3.01952E-03 1.04115E-22
3.11604E-03 9.77356E-23
3.21407E-03 9.18371E-23
3.31362E-03 8.63763E-23
3.41468E-03 8.13148E-23
3.51725E-03 7.66181E-23
3.62133E-03 7.22551E-23
3.72692E-03 6.81979E-23
3.83403E-03 6.44210E-23
3.94265E-03 6.09016E-23
4.05278E-03 5.76188E-23
4.16442E-03 5.45539E-23
4.27757E-03 5.16898E-23
4.39223E-03 4.90109E-23
4.50840E-03 4.65029E-23
4.62608E-03 4.41531E-23
4.74527E-03 4.19496E-23
4.86597E-03 3.98816E-23
4.98817E-03 3.79392E-23
5.11188E-03 3.61134E-23
5.23711E-03 3.43959E-23
5.36383E-03 3.27791E-23
5.49207E-03 3.12560E-23
5.62181E-03 2.98202E-23
5.75306E-03 2.84657E-23
5.88581E-03 2.71871E-23
6.02007E-03 2.59793E-23
6.15583E-03 2.48377E-23
6.29310E-03 2.37580E-23
6.43187E-03 2.27362E-23
6.57214E-03 2.17686E-23
6.71392E-03 2.08519E-23
6.85720E-03 1.99827E-23
7.00198E-03 1.91583E-23
7.14827E-03 1.83759E-23
7.29605E-03 1.76329E-23
7.44534E-03 1.69270E-23
7.59612E-03 1.62559E-23
7.97965E-03 1.47179E-23
8.37255E-03 1.33571E-23
8.77480E-03 1.21496E-23
9.18641E-03 1.10752E-23
9.60736E-03 1.01166E-23
1.00376E-02 9.25930E-24
1.04773E-02 8.49063E-24
1.09262E-02 7.79985E-24
1.13844E-02 7.17771E-24
1.18520E-02 6.61619E-24
1.23288E-02 6.10835E-24
1.28150E-02 5.64815E-24
1.33104E-02 5.23034E-24
1.38150E-02 4.85032E-24
1.43290E-02 4.50407E-24
1.48521E-02 4.18807E-24
1.53845E-02 3.89919E-24
1.59262E-02 3.63470E-24
1.64770E-02 3.39217E-24
1.70371E-02 3.16946E-24
1.76063E-02 2.96465E-24
1.81848E-02 2.77605E-24
1.87724E-02 2.60214E-24
1.93692E-02 2.44158E-24
1.99751E-02 2.29316E-24
2.05901E-02 2.15580E-24
2.12143E-02 2.02851E-24
2.18476E-02 1.91044E-24
2.24900E-02 1.80079E-24
2.31415E-02 1.69886E-24
2.38021E-02 1.60400E-24
2.44717E-02 1.51564E-24
2.51504E-02 1.43324E-24
2.58382E-02 1.35633E-24
2.65349E-02 1.28449E-24
2.72407E-02 1.21731E-24
2.79555E-02 1.15444E-24
2.86793E-02 1.09555E-24
2.94120E-02 1.04035E-24
3.01537E-02 9.88560E-25
3.09043E-02 9.39931E-25
3.16639E-02 8.94236E-25
3.24324E-02 8.51265E-25
3.32098E-02 8.10827E-25
3.39961E-02 7.72746E-25
3.47912E-02 7.36858E-25
3.55952E-02 7.03014E-25
3.64081E-02 6.71077E-25
3.72297E-02 6.40920E-25
3.80602E-02 6.12424E-25
3.88995E-02 5.85483E-25
3.97476E-02 5.59995E-25
4.06044E-02 5.35868E-25
4.14700E-02 5.13016E-25
4.23443E-02 4.91358E-25
4.32273E-02 4.70822E-25
4.41190E-02 4.51339E-25
4.50194E-02 4.32844E-25
4.59284E-02 4.15278E-25
4.68461E-02 3.98587E-25
4.87074E-02 3.67623E-25
5.06030E-02 3.39581E-25
5.25328E-02 3.14138E-25
5.44967E-02 2.91011E-25
5.64946E-02 2.69952E-25
5.85262E-02 2.50745E-25
6.05914E-02 2.33198E-25
6.26901E-02 2.17143E-25
6.48222E-02 2.02430E-25
6.69873E-02 1.88929E-25
6.91854E-02 1.76521E-25
7.14163E-02 1.65102E-25
7.36799E-02 1.54581E-25
7.59760E-02 1.44873E-25
7.83043E-02 1.35906E-25
8.06647E-02 1.27612E-25
8.30571E-02 1.19933E-25
8.54812E-02 1.12814E-25
8.79369E-02 1.06208E-25
9.04240E-02 1.00070E-25
9.29422E-02 9.43634E-26
9.54915E-02 8.90510E-26
9.80716E-02 8.41010E-26
1.00682E-01 7.94844E-26
1.03323E-01 7.51747E-26
1.05995E-01 7.11481E-26
1.08696E-01 6.73826E-26
1.11427E-01 6.38583E-26
1.14188E-01 6.05570E-26
1.16978E-01 5.74622E-26
1.19797E-01 5.45586E-26
1.22645E-01 5.18323E-26
1.25522E-01 4.92707E-26
1.28428E-01 4.68620E-26
1.31361E-01 4.45955E-26
1.34323E-01 4.24613E-26
1.37313E-01 4.04503E-26
1.40330E-01 3.85542E-26
1.43375E-01 3.67652E-26
1.46447E-01 3.50763E-26
1.49545E-01 3.34809E-26
1.52671E-01 3.19728E-26
1.55823E-01 3.05464E-26
1.59001E-01 2.91967E-26
1.62205E-01 2.79186E-26
1.65435E-01 2.67078E-26
1.68690E-01 2.55600E-26
1.71970E-01 2.44715E-26
1.75276E-01 2.34386E-26
1.78606E-01 2.24580E-26
1.81961E-01 2.15265E-26
1.85340E-01 2.06414E-26
1.88743E-01 1.97998E-26
1.92169E-01 1.89993E-26
1.95619E-01 1.82375E-26
1.99092E-01 1.75123E-26
2.02589E-01 1.68214E-26
2.06107E-01 1.61632E-26
2.09649E-01 1.55356E-26
2.13212E-01 1.49371E-26
2.16797E-01 1.43661E-26
2.20404E-01 1.38211E-26
2.24032E-01 1.33007E-26
2.27680E-01 1.28037E-26
2.31350E-01 1.23287E-26
2.35040E-01 1.18746E-26
2.38751E-01 1.14404E-26
2.42481E-01 1.10250E-26
2.46231E-01 1.06275E-26
2.50000E-01 1.02469E-26
2.53788E-01 9.88253E-27
2.57595E-01 9.53346E-27
2.61421E-01 9.19895E-27
2.65264E-01 8.87831E-27
2.69126E-01 8.57086E-27
2.73005E-01 8.27596E-27
2.76901E-01 7.99301E-27
2.80814E-01 7.72145E-27
2.84744E-01 7.46074E-27
2.88691E-01 7.21038E-27
2.92653E-01 6.96988E-27
2.96632E-01 6.73879E-27
3.00625E-01 6.51668E-27
3.04634E-01 6.30315E-27
3.08658E-01 6.09780E-27
3.12697E-01 5.90027E-27
3.16749E-01 5.71022E-27
3.20816E-01 5.52730E-27
3.24896E-01 5.35122E-27
3.28990E-01 5.18167E-27
3.33097E-01 5.01836E-27
3.37216E-01 4.86104E-27
3.41348E-01 4.70945E-27
3.45492E-01 4.56333E-27
3.49647E-01 4.42247E-27
3.53814E-01 4.28664E-27
3.57992E-01 4.15564E-27
3.62181E-01 4.02925E-27
3.66381E-01 3.90730E-27
3.70590E-01 3.78961E-27
3.74810E-01 3.67599E-27
3.79039E-01 3.56629E-27
3.83277E-01 3.46035E-27
3.87524E-01 3.35801E-27
3.91780E-01 3.25915E-27
3.96044E-01 3.16361E-27
4.00316E-01 3.07127E-27
4.04596E-01 2.98201E-27
4.08882E-01 2.89571E-27
4.13176E-01 2.81225E-27
4.17476E-01 2.73152E-27
4.21783E-01 2.65342E-27
4.26095E-01 2.57786E-27
4.30413E-01 2.50473E-27
4.34737E-01 2.43394E-27
4.39065E-01 2.36542E-27
4.43398E-01 2.29907E-27
4.47736E-01 2.23481E-27
4.52077E-01 2.17258E-27
4.56422E-01 2.11228E-27
4.60770E-01 2.05387E-27
4.65122E-01 1.99726E-27
4.69476E-01 1.94239E-27
4.73832E-01 1.88921E-27
4.78190E-01 1.83765E-27
4.82550E-01 1.78765E-27
4.86912E-01 1.73916E-27
4.91274E-01 1.69213E-27
4.95637E-01 1.64650E-27
5.00000E-01 1.60224E-27
5.04363E-01 1.55928E-27
5.08726E-01 1.51760E-27
5.13088E-01 1.47713E-27
5.17450E-01 1.43786E-27
5.21810E-01 1.39972E-27
5.26168E-01 1.36269E-27
5.30524E-01 1.32672E-27
5.34878E-01 1.29179E-27
5.39230E-01 1.25786E-27
5.43578E-01 1.22490E-27
5.47923E-01 1.19287E-27
5.52264E-01 1.16174E-27
5.56602E-01 1.13149E-27
5.60935E-01 1.10208E-27
5.65263E-01 1.07350E-27
5.69587E-01 1.04571E-27
5.73905E-01 1.01868E-27
5.78217E-01 9.92405E-28
5.82524E-01 9.66847E-28
5.86824E-01 9.41988E-28
5.91118E-01 9.17805E-28
5.95404E-01 8.94277E-28
5.99684E-01 8.71385E-28
6.03956E-01 8.49109E-28
6.08220E-01 8.27430E-28
6.12476E-01 8.06330E-28
6.16723E-01 7.85791E-28
6.20961E-01 7.65796E-28
6.25190E-01 7.46329E-28
6.29410E-01 7.27375E-28
6.33619E-01 7.08917E-28
6.37819E-01 6.90942E-28
6.42008E-01 6.73434E-28
6.46186E-01 6.56381E-28
6.50353E-01 6.39769E-28
6.54508E-01 6.23584E-28
6.58652E-01 6.07815E-28
6.62784E-01 5.92450E-28
6.66903E-01 5.77477E-28
6.71010E-01 5.62885E-28
6.75104E-01 5.48662E-28
6.79184E-01 5.34799E-28
6.83251E-01 5.21285E-28
6.87303E-01 5.08110E-28
6.91342E-01 4.95265E-28
6.95366E-01 4.82740E-28
6.99375E-01 4.70528E-28
7.03368E-01 4.58618E-28
7.07347E-01 4.47002E-28
7.11309E-01 4.35674E-28
7.15256E-01 4.24624E-28
7.19186E-01 4.13845E-28
7.23099E-01 4.03329E-28
7.26995E-01 3.93070E-28
7.30874E-01 3.83061E-28
7.34736E-01 3.73295E-28
7.38579E-01 3.63765E-28
7.42405E-01 3.54465E-28
7.46212E-01 3.45390E-28
7.50000E-01 3.36532E-28
7.53769E-01 3.27887E-28
7.57519E-01 3.19448E-28
7.61249E-01 3.11211E-28
7.64960E-01 3.03170E-28
7.68650E-01 2.95320E-28
7.72320E-01 2.87656E-28
7.75968E-01 2.80173E-28
7.79596E-01 2.72867E-28
7.83203E-01 2.65734E-28
7.86788E-01 2.58768E-28
7.90351E-01 2.51966E-28
7.93893E-01 2.45323E-28
7.97411E-01 2.38836E-28
8.00908E-01 2.32500E-28
8.04381E-01 2.26312E-28
8.07831E-01 2.20268E-28
8.11257E-01 2.14365E-28
8.14660E-01 2.08599E-28
8.18039E-01 2.02967E-28
8.21394E-01 1.97465E-28
8.24724E-01 1.92091E-28
8.28030E-01 1.86841E-28
8.31310E-01 1.81712E-28
8.34565E-01 1.76702E-28
8.37795E-01 1.71807E-28
8.40999E-01 1.67026E-28
8.44177E-01 1.62354E-28
8.47329E-01 1.57790E-28
8.50455E-01 1.53331E-28
8.53553E-01 1.48975E-28
8.56625E-01 1.44719E-28
8.59670E-01 1.40560E-28
8.62687E-01 1.36498E-28
8.65677E-01 1.32529E-28
8.68639E-01 1.28652E-28
8.71572E-01 1.24864E-28
8.74478E-01 1.21163E-28
8.77355E-01 1.17547E-28
8.80203E-01 1.14015E-28
8.83022E-01 1.10565E-28
8.85812E-01 1.07195E-28
8.88573E-01 1.03902E-28
8.91304E-01 1.00686E-28
8.94005E-01 9.75451E-29
8.96677E-01 9.44770E-29
8.99318E-01 9.14805E-29
9.01928E-01 8.85540E-29
9.04508E-01 8.56962E-29
9.07058E-01 8.29055E-29
9.09576E-01 8.01806E-29
9.12063E-01 7.75200E-29
9.14519E-01 7.49226E-29
9.16943E-01 7.23869E-29
9.19335E-01 6.99118E-29
9.21696E-01 6.74961E-29
9.24024E-01 6.51385E-29
9.26320E-01 6.28379E-29
9.28584E-01 6.05931E-29
9.30815E-01 5.84033E-29
9.33013E-01 5.62671E-29
9.35178E-01 5.41837E-29
9.37310E-01 5.21521E-29
9.39409E-01 5.01711E-29
9.41474E-01 4.82401E-29
9.43505E-01 4.63579E-29
9.45503E-01 4.45238E-29
9.47467E-01 4.27368E-29
9.49397E-01 4.09962E-29
9.51293E-01 3.93011E-29
9.53154E-01 3.76507E-29
9.54981E-01 3.60443E-29
9.56773E-01 3.44811E-29
9.58530E-01 3.29604E-29
9.60252E-01 3.14815E-29
9.61940E-01 3.00437E-29
9.63592E-01 2.86464E-29
9.65209E-01 2.72889E-29
9.66790E-01 2.59706E-29
9.68336E-01 2.46909E-29
9.69846E-01 2.34492E-29
9.71321E-01 2.22450E-29
9.72759E-01 2.10778E-29
9.74162E-01 1.99469E-29
9.75528E-01 1.88519E-29
9.76858E-01 1.77924E-29
9.78152E-01 1.67678E-29
9.79410E-01 1.57776E-29
9.80631E-01 1.48215E-29
9.81815E-01 1.38990E-29
9.82963E-01 1.30097E-29
9.84074E-01 1.21532E-29
9.85148E-01 1.13292E-29
9.86185E-01 1.05372E-29
9.87185E-01 9.77691E-30
9.88148E-01 9.04803E-30
9.89074E-01 8.35023E-30
9.89962E-01 7.68318E-30
9.90814E-01 7.04661E-30
9.91627E-01 6.44024E-30
9.92404E-01 5.86380E-30
9.93143E-01 5.31703E-30
9.93844E-01 4.79971E-30
9.94508E-01 4.31161E-30
9.95134E-01 3.85251E-30
9.95722E-01 3.42222E-30
9.96273E-01 3.02055E-30
9.96786E-01 2.64733E-30
9.97261E-01 2.30240E-30
9.97698E-01 1.98560E-30
9.98097E-01 1.69681E-30
9.98459E-01 1.43590E-30
9.98782E-01 1.20275E-30
9.99067E-01 9.97262E-31
9.99315E-01 8.19353E-31
9.99524E-01 6.68942E-31
9.99695E-01 5.45968E-31
9.99829E-01 4.50376E-31
9.99924E-01 3.82125E-31
9.99981E-01 3.41187E-31
1.00000E+00 3.27546E-31
