 #
 # Subroutine ELSEPA. Elastic scattering of electrons and positrons
 #                    by neutral atoms and positive ions
 #
 # Projectile: positron
 # Kinetic energy = 4.00000E+06 eV = 1.46997E+05 a.u.
 #
 # WARNING: High-energy factorization with free-atom DF screening.
 #          Absorption, polarization and exchange corrections are
 #          switched off.
 #          Phase shifts are calculated for the bare nucleus.
 #          Scattering amplitudes are not evaluated.
 #
 # Element: Na,  Z =  11,  atomic weight = 2.29898E+01 g/mol
 #
 # Nuclear model: Fermi distribution
 #                Average radius = 3.04249E-13 cm
 #                Skin thickness = 5.46000E-14 cm
 #
 # Number of electrons = 11
 #
 # Total elastic cross section = 4.72638E-19 cm**2 = 1.68782E-02 a0**2
 # 1st transport cross section = 8.87885E-24 cm**2 = 3.17069E-07 a0**2
 # 2nd transport cross section = 2.55177E-23 cm**2 = 9.11254E-07 a0**2
 #
 #
 # Differential cross section:                       MU=(1-COS(THETA))/2
 #
 #  THETA        MU          DCS          DCS        Sherman      error
 #  (deg)                 (cm**2/sr)   (a0**2/sr)    function
 #----------------------------------------------------------------------
0.00000E+00 1.77715E-13
7.61557E-13 1.77712E-13
1.18994E-12 1.77711E-13
1.71346E-12 1.77710E-13
2.33225E-12 1.77708E-13
3.04617E-12 1.77706E-13
3.85530E-12 1.77703E-13
4.75964E-12 1.77701E-13
5.75917E-12 1.77698E-13
6.85391E-12 1.77695E-13
8.04379E-12 1.77691E-13
9.32893E-12 1.77687E-13
1.07092E-11 1.77683E-13
1.21847E-11 1.77679E-13
1.37554E-11 1.77675E-13
1.54213E-11 1.77670E-13
1.71823E-11 1.77665E-13
1.90386E-11 1.77659E-13
2.09900E-11 1.77654E-13
2.30367E-11 1.77648E-13
2.51785E-11 1.77642E-13
2.74156E-11 1.77635E-13
2.97478E-11 1.77628E-13
3.21752E-11 1.77621E-13
3.46979E-11 1.77614E-13
3.73157E-11 1.77607E-13
4.00286E-11 1.77599E-13
4.28368E-11 1.77591E-13
4.57402E-11 1.77582E-13
4.87388E-11 1.77574E-13
5.18325E-11 1.77565E-13
5.50215E-11 1.77556E-13
5.83057E-11 1.77546E-13
6.16850E-11 1.77536E-13
6.51595E-11 1.77526E-13
6.87293E-11 1.77516E-13
7.23943E-11 1.77506E-13
7.61544E-11 1.77495E-13
1.18991E-10 1.77372E-13
1.71347E-10 1.77222E-13
2.33223E-10 1.77044E-13
3.04617E-10 1.76840E-13
3.85531E-10 1.76609E-13
4.75965E-10 1.76352E-13
5.75917E-10 1.76068E-13
6.85389E-10 1.75758E-13
8.04380E-10 1.75422E-13
9.32891E-10 1.75060E-13
1.07092E-09 1.74673E-13
1.21847E-09 1.74260E-13
1.37554E-09 1.73822E-13
1.54213E-09 1.73360E-13
1.71823E-09 1.72873E-13
1.90386E-09 1.72362E-13
2.09900E-09 1.71827E-13
2.30367E-09 1.71268E-13
2.51785E-09 1.70687E-13
2.74156E-09 1.70083E-13
2.97478E-09 1.69456E-13
3.21752E-09 1.68807E-13
3.46978E-09 1.68137E-13
3.73156E-09 1.67445E-13
4.00286E-09 1.66733E-13
4.28368E-09 1.66001E-13
4.57402E-09 1.65249E-13
4.87388E-09 1.64477E-13
5.18326E-09 1.63687E-13
5.50215E-09 1.62877E-13
5.83057E-09 1.62049E-13
6.16850E-09 1.61206E-13
6.51596E-09 1.60344E-13
6.87293E-09 1.59465E-13
7.23942E-09 1.58572E-13
7.61544E-09 1.57662E-13
1.18991E-08 1.47822E-13
1.71347E-08 1.36990E-13
2.33223E-08 1.25662E-13
3.04617E-08 1.14277E-13
3.85531E-08 1.03192E-13
4.75965E-08 9.26759E-14
5.75917E-08 8.29084E-14
6.85389E-08 7.39924E-14
8.04380E-08 6.60913E-14
9.32891E-08 5.91413E-14
1.07092E-07 5.27566E-14
1.21847E-07 4.70275E-14
1.37554E-07 4.23570E-14
1.54213E-07 3.81215E-14
1.71823E-07 3.42963E-14
1.90386E-07 3.12088E-14
2.09900E-07 2.84322E-14
2.30367E-07 2.59276E-14
2.51785E-07 2.38306E-14
2.74156E-07 2.19751E-14
2.97478E-07 2.02971E-14
3.21752E-07 1.88397E-14
3.46978E-07 1.75535E-14
3.73156E-07 1.63859E-14
4.00286E-07 1.53416E-14
4.28368E-07 1.44106E-14
4.57402E-07 1.35618E-14
4.87388E-07 1.27884E-14
5.18325E-07 1.20850E-14
5.50215E-07 1.14412E-14
5.83057E-07 1.08499E-14
6.16850E-07 1.02979E-14
6.51596E-07 9.79078E-15
6.87293E-07 9.32415E-15
7.23942E-07 8.87862E-15
7.61543E-07 8.46671E-15
1.18991E-06 5.45876E-15
1.71347E-06 3.64659E-15
2.33223E-06 2.48142E-15
3.04617E-06 1.71427E-15
3.85531E-06 1.20300E-15
4.75964E-06 8.58077E-16
5.75916E-06 6.22393E-16
6.85388E-06 4.59074E-16
8.04378E-06 3.43867E-16
9.32888E-06 2.62199E-16
1.07092E-05 2.02705E-16
1.21846E-05 1.59007E-16
1.37553E-05 1.26415E-16
1.54212E-05 1.01743E-16
1.71822E-05 8.28121E-17
1.90385E-05 6.80960E-17
2.09899E-05 5.65401E-17
2.30365E-05 4.73601E-17
2.51783E-05 3.99916E-17
2.74153E-05 3.40186E-17
2.97475E-05 2.91334E-17
3.21749E-05 2.51063E-17
3.46974E-05 2.17612E-17
3.73152E-05 1.89627E-17
4.00281E-05 1.66045E-17
4.28362E-05 1.46058E-17
4.57395E-05 1.29024E-17
4.87380E-05 1.14429E-17
5.18317E-05 1.01860E-17
5.50205E-05 9.09736E-18
5.83045E-05 8.15142E-18
6.16838E-05 7.32611E-18
6.51582E-05 6.60325E-18
6.87277E-05 5.96765E-18
7.23925E-05 5.40657E-18
7.61524E-05 4.91013E-18
9.21439E-05 3.41345E-18
1.09658E-04 2.44522E-18
1.28695E-04 1.79632E-18
1.49255E-04 1.34828E-18
1.71338E-04 1.03105E-18
1.94942E-04 8.01477E-19
2.20070E-04 6.32107E-19
2.46720E-04 5.05015E-19
2.74892E-04 4.08184E-19
3.04586E-04 3.33395E-19
3.35803E-04 2.74910E-19
3.68542E-04 2.28661E-19
4.02802E-04 1.91709E-19
4.38585E-04 1.61906E-19
4.75889E-04 1.37659E-19
5.14715E-04 1.17773E-19
5.55063E-04 1.01342E-19
5.96931E-04 8.76730E-20
6.40321E-04 7.62273E-20
6.85233E-04 6.65860E-20
7.31665E-04 5.84188E-20
7.79618E-04 5.14637E-20
8.29092E-04 4.55119E-20
8.80086E-04 4.03947E-20
9.32601E-04 3.59756E-20
9.86636E-04 3.21436E-20
1.04219E-03 2.88078E-20
1.09927E-03 2.58931E-20
1.15786E-03 2.33372E-20
1.21797E-03 2.10887E-20
1.27961E-03 1.91042E-20
1.34276E-03 1.73474E-20
1.40743E-03 1.57877E-20
1.47362E-03 1.43992E-20
1.54133E-03 1.31598E-20
1.61056E-03 1.20508E-20
1.68131E-03 1.10560E-20
1.75357E-03 1.01617E-20
1.82735E-03 9.35588E-21
1.90265E-03 8.62827E-21
1.97947E-03 7.96995E-21
2.05780E-03 7.37315E-21
2.13765E-03 6.83111E-21
2.21902E-03 6.33792E-21
2.30190E-03 5.88838E-21
2.38630E-03 5.47795E-21
2.47222E-03 5.10263E-21
2.55965E-03 4.75885E-21
2.64859E-03 4.44351E-21
2.73905E-03 4.15383E-21
2.83103E-03 3.88734E-21
2.92452E-03 3.64186E-21
3.01952E-03 3.41542E-21
3.11604E-03 3.20629E-21
3.21407E-03 3.01290E-21
3.31362E-03 2.83385E-21
3.41468E-03 2.66789E-21
3.51725E-03 2.51388E-21
3.62133E-03 2.37081E-21
3.72692E-03 2.23776E-21
3.83403E-03 2.11390E-21
3.94265E-03 1.99848E-21
4.05278E-03 1.89082E-21
4.16442E-03 1.79030E-21
4.27757E-03 1.69635E-21
4.39223E-03 1.60847E-21
4.50840E-03 1.52620E-21
4.62608E-03 1.44911E-21
4.74527E-03 1.37683E-21
4.86597E-03 1.30898E-21
4.98817E-03 1.24526E-21
5.11188E-03 1.18536E-21
5.23711E-03 1.12902E-21
5.36383E-03 1.07598E-21
5.49207E-03 1.02601E-21
5.62181E-03 9.78901E-22
5.75306E-03 9.34462E-22
5.88581E-03 8.92512E-22
6.02007E-03 8.52885E-22
6.15583E-03 8.15429E-22
6.29310E-03 7.80003E-22
6.43187E-03 7.46477E-22
6.57214E-03 7.14729E-22
6.71392E-03 6.84648E-22
6.85720E-03 6.56129E-22
7.00198E-03 6.29078E-22
7.14827E-03 6.03403E-22
7.29605E-03 5.79022E-22
7.44534E-03 5.55858E-22
7.59612E-03 5.33838E-22
7.97965E-03 4.83365E-22
8.37255E-03 4.38708E-22
8.77480E-03 3.99079E-22
9.18641E-03 3.63816E-22
9.60736E-03 3.32355E-22
1.00376E-02 3.04215E-22
1.04773E-02 2.78983E-22
1.09262E-02 2.56308E-22
1.13844E-02 2.35885E-22
1.18520E-02 2.17451E-22
1.23288E-02 2.00778E-22
1.28150E-02 1.85669E-22
1.33104E-02 1.71951E-22
1.38150E-02 1.59473E-22
1.43290E-02 1.48103E-22
1.48521E-02 1.37726E-22
1.53845E-02 1.28239E-22
1.59262E-02 1.19553E-22
1.64770E-02 1.11587E-22
1.70371E-02 1.04272E-22
1.76063E-02 9.75446E-23
1.81848E-02 9.13492E-23
1.87724E-02 8.56362E-23
1.93692E-02 8.03614E-23
1.99751E-02 7.54850E-23
2.05901E-02 7.09716E-23
2.12143E-02 6.67893E-23
2.18476E-02 6.29093E-23
2.24900E-02 5.93060E-23
2.31415E-02 5.59559E-23
2.38021E-02 5.28381E-23
2.44717E-02 4.99336E-23
2.51504E-02 4.72251E-23
2.58382E-02 4.46969E-23
2.65349E-02 4.23350E-23
2.72407E-02 4.01263E-23
2.79555E-02 3.80591E-23
2.86793E-02 3.61227E-23
2.94120E-02 3.43073E-23
3.01537E-02 3.26040E-23
3.09043E-02 3.10046E-23
3.16639E-02 2.95016E-23
3.24324E-02 2.80881E-23
3.32098E-02 2.67578E-23
3.39961E-02 2.55049E-23
3.47912E-02 2.43241E-23
3.55952E-02 2.32104E-23
3.64081E-02 2.21595E-23
3.72297E-02 2.11670E-23
3.80602E-02 2.02291E-23
3.88995E-02 1.93423E-23
3.97476E-02 1.85032E-23
4.06044E-02 1.77089E-23
4.14700E-02 1.69565E-23
4.23443E-02 1.62434E-23
4.32273E-02 1.55672E-23
4.41190E-02 1.49255E-23
4.50194E-02 1.43164E-23
4.59284E-02 1.37378E-23
4.68461E-02 1.31879E-23
4.87074E-02 1.21678E-23
5.06030E-02 1.12437E-23
5.25328E-02 1.04051E-23
5.44967E-02 9.64274E-24
5.64946E-02 8.94839E-24
5.85262E-02 8.31495E-24
6.05914E-02 7.73615E-24
6.26901E-02 7.20644E-24
6.48222E-02 6.72092E-24
6.69873E-02 6.27527E-24
6.91854E-02 5.86562E-24
7.14163E-02 5.48856E-24
7.36799E-02 5.14103E-24
7.59760E-02 4.82032E-24
7.83043E-02 4.52398E-24
8.06647E-02 4.24984E-24
8.30571E-02 3.99594E-24
8.54812E-02 3.76052E-24
8.79369E-02 3.54200E-24
9.04240E-02 3.33894E-24
9.29422E-02 3.15006E-24
9.54915E-02 2.97419E-24
9.80716E-02 2.81027E-24
1.00682E-01 2.65735E-24
1.03323E-01 2.51456E-24
1.05995E-01 2.38111E-24
1.08696E-01 2.25628E-24
1.11427E-01 2.13941E-24
1.14188E-01 2.02990E-24
1.16978E-01 1.92721E-24
1.19797E-01 1.83084E-24
1.22645E-01 1.74032E-24
1.25522E-01 1.65525E-24
1.28428E-01 1.57522E-24
1.31361E-01 1.49990E-24
1.34323E-01 1.42895E-24
1.37313E-01 1.36207E-24
1.40330E-01 1.29900E-24
1.43375E-01 1.23946E-24
1.46447E-01 1.18324E-24
1.49545E-01 1.13011E-24
1.52671E-01 1.07987E-24
1.55823E-01 1.03234E-24
1.59001E-01 9.87344E-25
1.62205E-01 9.44722E-25
1.65435E-01 9.04327E-25
1.68690E-01 8.66023E-25
1.71970E-01 8.29681E-25
1.75276E-01 7.95183E-25
1.78606E-01 7.62419E-25
1.81961E-01 7.31287E-25
1.85340E-01 7.01689E-25
1.88743E-01 6.73538E-25
1.92169E-01 6.46749E-25
1.95619E-01 6.21245E-25
1.99092E-01 5.96954E-25
2.02589E-01 5.73807E-25
2.06107E-01 5.51742E-25
2.09649E-01 5.30697E-25
2.13212E-01 5.10619E-25
2.16797E-01 4.91453E-25
2.20404E-01 4.73153E-25
2.24032E-01 4.55671E-25
2.27680E-01 4.38964E-25
2.31350E-01 4.22993E-25
2.35040E-01 4.07718E-25
2.38751E-01 3.93104E-25
2.42481E-01 3.79118E-25
2.46231E-01 3.65727E-25
2.50000E-01 3.52902E-25
2.53788E-01 3.40615E-25
2.57595E-01 3.28839E-25
2.61421E-01 3.17549E-25
2.65264E-01 3.06721E-25
2.69126E-01 2.96334E-25
2.73005E-01 2.86366E-25
2.76901E-01 2.76797E-25
2.80814E-01 2.67608E-25
2.84744E-01 2.58782E-25
2.88691E-01 2.50301E-25
2.92653E-01 2.42151E-25
2.96632E-01 2.34315E-25
3.00625E-01 2.26780E-25
3.04634E-01 2.19532E-25
3.08658E-01 2.12558E-25
3.12697E-01 2.05845E-25
3.16749E-01 1.99383E-25
3.20816E-01 1.93161E-25
3.24896E-01 1.87167E-25
3.28990E-01 1.81393E-25
3.33097E-01 1.75828E-25
3.37216E-01 1.70464E-25
3.41348E-01 1.65292E-25
3.45492E-01 1.60304E-25
3.49647E-01 1.55493E-25
3.53814E-01 1.50850E-25
3.57992E-01 1.46370E-25
3.62181E-01 1.42046E-25
3.66381E-01 1.37870E-25
3.70590E-01 1.33838E-25
3.74810E-01 1.29943E-25
3.79039E-01 1.26180E-25
3.83277E-01 1.22543E-25
3.87524E-01 1.19029E-25
3.91780E-01 1.15631E-25
3.96044E-01 1.12345E-25
4.00316E-01 1.09168E-25
4.04596E-01 1.06094E-25
4.08882E-01 1.03120E-25
4.13176E-01 1.00243E-25
4.17476E-01 9.74573E-26
4.21783E-01 9.47610E-26
4.26095E-01 9.21503E-26
4.30413E-01 8.96220E-26
4.34737E-01 8.71732E-26
4.39065E-01 8.48008E-26
4.43398E-01 8.25022E-26
4.47736E-01 8.02746E-26
4.52077E-01 7.81154E-26
4.56422E-01 7.60223E-26
4.60770E-01 7.39928E-26
4.65122E-01 7.20248E-26
4.69476E-01 7.01159E-26
4.73832E-01 6.82642E-26
4.78190E-01 6.64677E-26
4.82550E-01 6.47244E-26
4.86912E-01 6.30325E-26
4.91274E-01 6.13903E-26
4.95637E-01 5.97959E-26
5.00000E-01 5.82479E-26
5.04363E-01 5.67447E-26
5.08726E-01 5.52847E-26
5.13088E-01 5.38665E-26
5.17450E-01 5.24887E-26
5.21810E-01 5.11499E-26
5.26168E-01 4.98490E-26
5.30524E-01 4.85846E-26
5.34878E-01 4.73555E-26
5.39230E-01 4.61606E-26
5.43578E-01 4.49989E-26
5.47923E-01 4.38692E-26
5.52264E-01 4.27705E-26
5.56602E-01 4.17018E-26
5.60935E-01 4.06622E-26
5.65263E-01 3.96508E-26
5.69587E-01 3.86666E-26
5.73905E-01 3.77089E-26
5.78217E-01 3.67768E-26
5.82524E-01 3.58695E-26
5.86824E-01 3.49863E-26
5.91118E-01 3.41264E-26
5.95404E-01 3.32891E-26
5.99684E-01 3.24737E-26
6.03956E-01 3.16796E-26
6.08220E-01 3.09061E-26
6.12476E-01 3.01527E-26
6.16723E-01 2.94186E-26
6.20961E-01 2.87034E-26
6.25190E-01 2.80065E-26
6.29410E-01 2.73273E-26
6.33619E-01 2.66654E-26
6.37819E-01 2.60202E-26
6.42008E-01 2.53912E-26
6.46186E-01 2.47780E-26
6.50353E-01 2.41802E-26
6.54508E-01 2.35972E-26
6.58652E-01 2.30287E-26
6.62784E-01 2.24743E-26
6.66903E-01 2.19335E-26
6.71010E-01 2.14060E-26
6.75104E-01 2.08914E-26
6.79184E-01 2.03894E-26
6.83251E-01 1.98996E-26
6.87303E-01 1.94216E-26
6.91342E-01 1.89552E-26
6.95366E-01 1.85000E-26
6.99375E-01 1.80557E-26
7.03368E-01 1.76220E-26
7.07347E-01 1.71987E-26
7.11309E-01 1.67855E-26
7.15256E-01 1.63820E-26
7.19186E-01 1.59881E-26
7.23099E-01 1.56035E-26
7.26995E-01 1.52279E-26
7.30874E-01 1.48611E-26
7.34736E-01 1.45028E-26
7.38579E-01 1.41530E-26
7.42405E-01 1.38112E-26
7.46212E-01 1.34774E-26
7.50000E-01 1.31513E-26
7.53769E-01 1.28327E-26
7.57519E-01 1.25214E-26
7.61249E-01 1.22173E-26
7.64960E-01 1.19202E-26
7.68650E-01 1.16298E-26
7.72320E-01 1.13460E-26
7.75968E-01 1.10688E-26
7.79596E-01 1.07978E-26
7.83203E-01 1.05329E-26
7.86788E-01 1.02740E-26
7.90351E-01 1.00210E-26
7.93893E-01 9.77369E-27
7.97411E-01 9.53192E-27
8.00908E-01 9.29559E-27
8.04381E-01 9.06455E-27
8.07831E-01 8.83869E-27
8.11257E-01 8.61788E-27
8.14660E-01 8.40199E-27
8.18039E-01 8.19092E-27
8.21394E-01 7.98454E-27
8.24724E-01 7.78276E-27
8.28030E-01 7.58547E-27
8.31310E-01 7.39255E-27
8.34565E-01 7.20391E-27
8.37795E-01 7.01946E-27
8.40999E-01 6.83909E-27
8.44177E-01 6.66272E-27
8.47329E-01 6.49025E-27
8.50455E-01 6.32160E-27
8.53553E-01 6.15669E-27
8.56625E-01 5.99542E-27
8.59670E-01 5.83772E-27
8.62687E-01 5.68351E-27
8.65677E-01 5.53272E-27
8.68639E-01 5.38527E-27
8.71572E-01 5.24109E-27
8.74478E-01 5.10011E-27
8.77355E-01 4.96226E-27
8.80203E-01 4.82747E-27
8.83022E-01 4.69568E-27
8.85812E-01 4.56684E-27
8.88573E-01 4.44086E-27
8.91304E-01 4.31771E-27
8.94005E-01 4.19732E-27
8.96677E-01 4.07963E-27
8.99318E-01 3.96458E-27
9.01928E-01 3.85214E-27
9.04508E-01 3.74224E-27
9.07058E-01 3.63483E-27
9.09576E-01 3.52987E-27
9.12063E-01 3.42730E-27
9.14519E-01 3.32709E-27
9.16943E-01 3.22918E-27
9.19335E-01 3.13353E-27
9.21696E-01 3.04011E-27
9.24024E-01 2.94886E-27
9.26320E-01 2.85975E-27
9.28584E-01 2.77273E-27
9.30815E-01 2.68778E-27
9.33013E-01 2.60485E-27
9.35178E-01 2.52391E-27
9.37310E-01 2.44492E-27
9.39409E-01 2.36785E-27
9.41474E-01 2.29266E-27
9.43505E-01 2.21933E-27
9.45503E-01 2.14781E-27
9.47467E-01 2.07809E-27
9.49397E-01 2.01013E-27
9.51293E-01 1.94390E-27
9.53154E-01 1.87938E-27
9.54981E-01 1.81653E-27
9.56773E-01 1.75534E-27
9.58530E-01 1.69577E-27
9.60252E-01 1.63781E-27
9.61940E-01 1.58142E-27
9.63592E-01 1.52658E-27
9.65209E-01 1.47328E-27
9.66790E-01 1.42148E-27
9.68336E-01 1.37118E-27
9.69846E-01 1.32234E-27
9.71321E-01 1.27495E-27
9.72759E-01 1.22898E-27
9.74162E-01 1.18443E-27
9.75528E-01 1.14127E-27
9.76858E-01 1.09949E-27
9.78152E-01 1.05906E-27
9.79410E-01 1.01998E-27
9.80631E-01 9.82217E-28
9.81815E-01 9.45768E-28
9.82963E-01 9.10617E-28
9.84074E-01 8.76747E-28
9.85148E-01 8.44147E-28
9.86185E-01 8.12803E-28
9.87185E-01 7.82703E-28
9.88148E-01 7.53835E-28
9.89074E-01 7.26188E-28
9.89962E-01 6.99750E-28
9.90814E-01 6.74512E-28
9.91627E-01 6.50463E-28
9.92404E-01 6.27594E-28
9.93143E-01 6.05897E-28
9.93844E-01 5.85362E-28
9.94508E-01 5.65982E-28
9.95134E-01 5.47749E-28
9.95722E-01 5.30656E-28
9.96273E-01 5.14697E-28
9.96786E-01 4.99865E-28
9.97261E-01 4.86154E-28
9.97698E-01 4.73560E-28
9.98097E-01 4.62077E-28
9.98459E-01 4.51701E-28
9.98782E-01 4.42428E-28
9.99067E-01 4.34254E-28
9.99315E-01 4.27176E-28
9.99524E-01 4.21192E-28
9.99695E-01 4.16299E-28
9.99829E-01 4.12495E-28
9.99924E-01 4.09779E-28
9.99981E-01 4.08150E-28
1.00000E+00 4.07608E-28
