 #
 # Subroutine ELSEPA. Elastic scattering of electrons and positrons
 #                    by neutral atoms and positive ions
 #
 # Projectile: electron
 # Kinetic energy = 6.00000E+06 eV = 2.20496E+05 a.u.
 #
 # WARNING: High-energy factorization with free-atom DF screening.
 #          Absorption, polarization and exchange corrections are
 #          switched off.
 #          Phase shifts are calculated for the bare nucleus.
 #          Scattering amplitudes are not evaluated.
 #
 # Element: Zn,  Z =  30,  atomic weight = 6.53900E+01 g/mol
 #
 # Nuclear model: Fermi distribution
 #                Average radius = 4.31076E-13 cm
 #                Skin thickness = 5.46000E-14 cm
 #
 # Number of electrons = 30
 #
 # Total elastic cross section = 1.98695E-18 cm**2 = 7.09552E-02 a0**2
 # 1st transport cross section = 3.43496E-23 cm**2 = 1.22665E-06 a0**2
 # 2nd transport cross section = 9.74751E-23 cm**2 = 3.48090E-06 a0**2
 #
 #
 # Differential cross section:                       MU=(1-COS(THETA))/2
 #
 #  THETA        MU          DCS          DCS        Sherman      error
 #  (deg)                 (cm**2/sr)   (a0**2/sr)    function
 #----------------------------------------------------------------------
0.00000E+00 5.88456E-13
7.61557E-13 5.88450E-13
1.18994E-12 5.88447E-13
1.71346E-12 5.88443E-13
2.33225E-12 5.88438E-13
3.04617E-12 5.88432E-13
3.85530E-12 5.88426E-13
4.75964E-12 5.88419E-13
5.75917E-12 5.88412E-13
6.85391E-12 5.88404E-13
8.04379E-12 5.88395E-13
9.32893E-12 5.88385E-13
1.07092E-11 5.88374E-13
1.21847E-11 5.88363E-13
1.37554E-11 5.88351E-13
1.54213E-11 5.88339E-13
1.71823E-11 5.88325E-13
1.90386E-11 5.88311E-13
2.09900E-11 5.88297E-13
2.30367E-11 5.88281E-13
2.51785E-11 5.88265E-13
2.74156E-11 5.88248E-13
2.97478E-11 5.88230E-13
3.21752E-11 5.88212E-13
3.46979E-11 5.88193E-13
3.73157E-11 5.88173E-13
4.00286E-11 5.88153E-13
4.28368E-11 5.88132E-13
4.57402E-11 5.88110E-13
4.87388E-11 5.88087E-13
5.18325E-11 5.88064E-13
5.50215E-11 5.88039E-13
5.83057E-11 5.88015E-13
6.16850E-11 5.87989E-13
6.51595E-11 5.87963E-13
6.87293E-11 5.87936E-13
7.23943E-11 5.87908E-13
7.61544E-11 5.87880E-13
1.18991E-10 5.87557E-13
1.71347E-10 5.87162E-13
2.33223E-10 5.86696E-13
3.04617E-10 5.86160E-13
3.85531E-10 5.85553E-13
4.75965E-10 5.84875E-13
5.75917E-10 5.84128E-13
6.85389E-10 5.83312E-13
8.04380E-10 5.82427E-13
9.32891E-10 5.81473E-13
1.07092E-09 5.80452E-13
1.21847E-09 5.79364E-13
1.37554E-09 5.78210E-13
1.54213E-09 5.76989E-13
1.71823E-09 5.75704E-13
1.90386E-09 5.74355E-13
2.09900E-09 5.72942E-13
2.30367E-09 5.71467E-13
2.51785E-09 5.69929E-13
2.74156E-09 5.68331E-13
2.97478E-09 5.66673E-13
3.21752E-09 5.64956E-13
3.46978E-09 5.63181E-13
3.73156E-09 5.61349E-13
4.00286E-09 5.59461E-13
4.28368E-09 5.57518E-13
4.57402E-09 5.55522E-13
4.87388E-09 5.53472E-13
5.18326E-09 5.51372E-13
5.50215E-09 5.49216E-13
5.83057E-09 5.46993E-13
6.16850E-09 5.44727E-13
6.51596E-09 5.42420E-13
6.87293E-09 5.40074E-13
7.23942E-09 5.37690E-13
7.61544E-09 5.35270E-13
1.18991E-08 5.08890E-13
1.71347E-08 4.79527E-13
2.33223E-08 4.48393E-13
3.04617E-08 4.16658E-13
3.85531E-08 3.85246E-13
4.75965E-08 3.54869E-13
5.75917E-08 3.26022E-13
6.85389E-08 2.98926E-13
8.04380E-08 2.73881E-13
9.32891E-08 2.50935E-13
1.07092E-07 2.30048E-13
1.21847E-07 2.11122E-13
1.37554E-07 1.93991E-13
1.54213E-07 1.78525E-13
1.71823E-07 1.64593E-13
1.90386E-07 1.52038E-13
2.09900E-07 1.40714E-13
2.30367E-07 1.30481E-13
2.51785E-07 1.21194E-13
2.74156E-07 1.12772E-13
2.97478E-07 1.05119E-13
3.21752E-07 9.81452E-14
3.46978E-07 9.17757E-14
3.73156E-07 8.59295E-14
4.00286E-07 8.05573E-14
4.28368E-07 7.56155E-14
4.57402E-07 7.10591E-14
4.87388E-07 6.68490E-14
5.18325E-07 6.29480E-14
5.50215E-07 5.92483E-14
5.83057E-07 5.55540E-14
6.16850E-07 5.22218E-14
6.51596E-07 4.92083E-14
6.87293E-07 4.64765E-14
7.23942E-07 4.39939E-14
7.61543E-07 4.17326E-14
1.18991E-06 2.48201E-14
1.71347E-06 1.51899E-14
2.33223E-06 9.55633E-15
3.04617E-06 6.20698E-15
3.85531E-06 4.15862E-15
4.75964E-06 2.87175E-15
5.75916E-06 2.04113E-15
6.85388E-06 1.48969E-15
8.04378E-06 1.11469E-15
9.32888E-06 8.52694E-16
1.07092E-05 6.64997E-16
1.21846E-05 5.27396E-16
1.37553E-05 4.24342E-16
1.54212E-05 3.45636E-16
1.71822E-05 2.84639E-16
1.90385E-05 2.36659E-16
2.09899E-05 1.98477E-16
2.30365E-05 1.67691E-16
2.51783E-05 1.42583E-16
2.74153E-05 1.21962E-16
2.97475E-05 1.04896E-16
3.21749E-05 9.06799E-17
3.46974E-05 7.87655E-17
3.73152E-05 6.87161E-17
4.00281E-05 6.01987E-17
4.28362E-05 5.29450E-17
4.57395E-05 4.67375E-17
4.87380E-05 4.14013E-17
5.18317E-05 3.67949E-17
5.50205E-05 3.27990E-17
5.83045E-05 2.93168E-17
6.16838E-05 2.62922E-17
6.51582E-05 2.36548E-17
6.87277E-05 2.13262E-17
7.23925E-05 1.92772E-17
7.61524E-05 1.74719E-17
9.21439E-05 1.20496E-17
1.09658E-04 8.57508E-18
1.28695E-04 6.26976E-18
1.49255E-04 4.69159E-18
1.71338E-04 3.58180E-18
1.94942E-04 2.78266E-18
2.20070E-04 2.19506E-18
2.46720E-04 1.75512E-18
2.74892E-04 1.42034E-18
3.04586E-04 1.16191E-18
3.35803E-04 9.59768E-19
3.68542E-04 7.99801E-19
4.02802E-04 6.71824E-19
4.38585E-04 5.68475E-19
4.75889E-04 4.84273E-19
5.14715E-04 4.15105E-19
5.55063E-04 3.57863E-19
5.96931E-04 3.10152E-19
6.40321E-04 2.70132E-19
6.85233E-04 2.36366E-19
7.31665E-04 2.07715E-19
7.79618E-04 1.83278E-19
8.29092E-04 1.62330E-19
8.80086E-04 1.44290E-19
9.32601E-04 1.28689E-19
9.86636E-04 1.15141E-19
1.04219E-03 1.03331E-19
1.09927E-03 9.29972E-20
1.15786E-03 8.39237E-20
1.21797E-03 7.59308E-20
1.27961E-03 6.88679E-20
1.34276E-03 6.26080E-20
1.40743E-03 5.70441E-20
1.47362E-03 5.20852E-20
1.54133E-03 4.76541E-20
1.61056E-03 4.36848E-20
1.68131E-03 4.01208E-20
1.75357E-03 3.69134E-20
1.82735E-03 3.40207E-20
1.90265E-03 3.14062E-20
1.97947E-03 2.90385E-20
2.05780E-03 2.68901E-20
2.13765E-03 2.49371E-20
2.21902E-03 2.31586E-20
2.30190E-03 2.15361E-20
2.38630E-03 2.00535E-20
2.47222E-03 1.86965E-20
2.55965E-03 1.74527E-20
2.64859E-03 1.63108E-20
2.73905E-03 1.52610E-20
2.83103E-03 1.42946E-20
2.92452E-03 1.34036E-20
3.01952E-03 1.25811E-20
3.11604E-03 1.18209E-20
3.21407E-03 1.11174E-20
3.31362E-03 1.04657E-20
3.41468E-03 9.86107E-21
3.51725E-03 9.29965E-21
3.62133E-03 8.77773E-21
3.72692E-03 8.29203E-21
3.83403E-03 7.83956E-21
3.94265E-03 7.41763E-21
4.05278E-03 7.02379E-21
4.16442E-03 6.65583E-21
4.27757E-03 6.31173E-21
4.39223E-03 5.98966E-21
4.50840E-03 5.68794E-21
4.62608E-03 5.40504E-21
4.74527E-03 5.13958E-21
4.86597E-03 4.89027E-21
4.98817E-03 4.65595E-21
5.11188E-03 4.43555E-21
5.23711E-03 4.22809E-21
5.36383E-03 4.03266E-21
5.49207E-03 3.84843E-21
5.62181E-03 3.67464E-21
5.75306E-03 3.51059E-21
5.88581E-03 3.35563E-21
6.02007E-03 3.20917E-21
6.15583E-03 3.07063E-21
6.29310E-03 2.93953E-21
6.43187E-03 2.81537E-21
6.57214E-03 2.69774E-21
6.71392E-03 2.58620E-21
6.85720E-03 2.48039E-21
7.00198E-03 2.37997E-21
7.14827E-03 2.28460E-21
7.29605E-03 2.19397E-21
7.44534E-03 2.10782E-21
7.59612E-03 2.02587E-21
7.97965E-03 1.83784E-21
8.37255E-03 1.67122E-21
8.77480E-03 1.52314E-21
9.18641E-03 1.39118E-21
9.60736E-03 1.27327E-21
1.00376E-02 1.16765E-21
1.04773E-02 1.07280E-21
1.09262E-02 9.87442E-22
1.13844E-02 9.10445E-22
1.18520E-02 8.40846E-22
1.23288E-02 7.77805E-22
1.28150E-02 7.20593E-22
1.33104E-02 6.68573E-22
1.38150E-02 6.21187E-22
1.43290E-02 5.77948E-22
1.48521E-02 5.38426E-22
1.53845E-02 5.02244E-22
1.59262E-02 4.69067E-22
1.64770E-02 4.38600E-22
1.70371E-02 4.10580E-22
1.76063E-02 3.84775E-22
1.81848E-02 3.60977E-22
1.87724E-02 3.39001E-22
1.93692E-02 3.18682E-22
1.99751E-02 2.99871E-22
2.05901E-02 2.82436E-22
2.12143E-02 2.66257E-22
2.18476E-02 2.51227E-22
2.24900E-02 2.37249E-22
2.31415E-02 2.24235E-22
2.38021E-02 2.12106E-22
2.44717E-02 2.00792E-22
2.51504E-02 1.90226E-22
2.58382E-02 1.80351E-22
2.65349E-02 1.71111E-22
2.72407E-02 1.62460E-22
2.79555E-02 1.54351E-22
2.86793E-02 1.46746E-22
2.94120E-02 1.39605E-22
3.01537E-02 1.32897E-22
3.09043E-02 1.26589E-22
3.16639E-02 1.20653E-22
3.24324E-02 1.15062E-22
3.32098E-02 1.09794E-22
3.39961E-02 1.04826E-22
3.47912E-02 1.00137E-22
3.55952E-02 9.57091E-23
3.64081E-02 9.15246E-23
3.72297E-02 8.75676E-23
3.80602E-02 8.38233E-23
3.88995E-02 8.02782E-23
3.97476E-02 7.69196E-23
4.06044E-02 7.37358E-23
4.14700E-02 7.07160E-23
4.23443E-02 6.78500E-23
4.32273E-02 6.51286E-23
4.41190E-02 6.25430E-23
4.50194E-02 6.00851E-23
4.59284E-02 5.77475E-23
4.68461E-02 5.55230E-23
4.87074E-02 5.13878E-23
5.06030E-02 4.76325E-23
5.25328E-02 4.42156E-23
5.44967E-02 4.11010E-23
5.64946E-02 3.82572E-23
5.85262E-02 3.56561E-23
6.05914E-02 3.32733E-23
6.26901E-02 3.10870E-23
6.48222E-02 2.90781E-23
6.69873E-02 2.72294E-23
6.91854E-02 2.55259E-23
7.14163E-02 2.39539E-23
7.36799E-02 2.25014E-23
7.59760E-02 2.11577E-23
7.83043E-02 1.99130E-23
8.06647E-02 1.87588E-23
8.30571E-02 1.76871E-23
8.54812E-02 1.66910E-23
8.79369E-02 1.57641E-23
9.04240E-02 1.49008E-23
9.29422E-02 1.40958E-23
9.54915E-02 1.33445E-23
9.80716E-02 1.26426E-23
1.00682E-01 1.19862E-23
1.03323E-01 1.13719E-23
1.05995E-01 1.07963E-23
1.08696E-01 1.02567E-23
1.11427E-01 9.75034E-24
1.14188E-01 9.27476E-24
1.16978E-01 8.82777E-24
1.19797E-01 8.40730E-24
1.22645E-01 8.01150E-24
1.25522E-01 7.63863E-24
1.28428E-01 7.28711E-24
1.31361E-01 6.95549E-24
1.34323E-01 6.64243E-24
1.37313E-01 6.34669E-24
1.40330E-01 6.06713E-24
1.43375E-01 5.80270E-24
1.46447E-01 5.55241E-24
1.49545E-01 5.31538E-24
1.52671E-01 5.09076E-24
1.55823E-01 4.87778E-24
1.59001E-01 4.67573E-24
1.62205E-01 4.48392E-24
1.65435E-01 4.30176E-24
1.68690E-01 4.12865E-24
1.71970E-01 3.96406E-24
1.75276E-01 3.80750E-24
1.78606E-01 3.65849E-24
1.81961E-01 3.51661E-24
1.85340E-01 3.38144E-24
1.88743E-01 3.25261E-24
1.92169E-01 3.12977E-24
1.95619E-01 3.01259E-24
1.99092E-01 2.90074E-24
2.02589E-01 2.79395E-24
2.06107E-01 2.69194E-24
2.09649E-01 2.59446E-24
2.13212E-01 2.50126E-24
2.16797E-01 2.41214E-24
2.20404E-01 2.32686E-24
2.24032E-01 2.24523E-24
2.27680E-01 2.16708E-24
2.31350E-01 2.09222E-24
2.35040E-01 2.02048E-24
2.38751E-01 1.95173E-24
2.42481E-01 1.88579E-24
2.46231E-01 1.82254E-24
2.50000E-01 1.76185E-24
2.53788E-01 1.70359E-24
2.57595E-01 1.64765E-24
2.61421E-01 1.59393E-24
2.65264E-01 1.54230E-24
2.69126E-01 1.49268E-24
2.73005E-01 1.44498E-24
2.76901E-01 1.39910E-24
2.80814E-01 1.35497E-24
2.84744E-01 1.31250E-24
2.88691E-01 1.27163E-24
2.92653E-01 1.23227E-24
2.96632E-01 1.19436E-24
3.00625E-01 1.15785E-24
3.04634E-01 1.12266E-24
3.08658E-01 1.08874E-24
3.12697E-01 1.05604E-24
3.16749E-01 1.02450E-24
3.20816E-01 9.94084E-25
3.24896E-01 9.64732E-25
3.28990E-01 9.36405E-25
3.33097E-01 9.09060E-25
3.37216E-01 8.82657E-25
3.41348E-01 8.57156E-25
3.45492E-01 8.32523E-25
3.49647E-01 8.08721E-25
3.53814E-01 7.85717E-25
3.57992E-01 7.63480E-25
3.62181E-01 7.41980E-25
3.66381E-01 7.21187E-25
3.70590E-01 7.01074E-25
3.74810E-01 6.81616E-25
3.79039E-01 6.62785E-25
3.83277E-01 6.44560E-25
3.87524E-01 6.26916E-25
3.91780E-01 6.09831E-25
3.96044E-01 5.93286E-25
4.00316E-01 5.77259E-25
4.04596E-01 5.61732E-25
4.08882E-01 5.46686E-25
4.13176E-01 5.32103E-25
4.17476E-01 5.17967E-25
4.21783E-01 5.04262E-25
4.26095E-01 4.90972E-25
4.30413E-01 4.78082E-25
4.34737E-01 4.65578E-25
4.39065E-01 4.53446E-25
4.43398E-01 4.41674E-25
4.47736E-01 4.30249E-25
4.52077E-01 4.19159E-25
4.56422E-01 4.08391E-25
4.60770E-01 3.97936E-25
4.65122E-01 3.87783E-25
4.69476E-01 3.77921E-25
4.73832E-01 3.68341E-25
4.78190E-01 3.59032E-25
4.82550E-01 3.49987E-25
4.86912E-01 3.41196E-25
4.91274E-01 3.32650E-25
4.95637E-01 3.24343E-25
5.00000E-01 3.16266E-25
5.04363E-01 3.08411E-25
5.08726E-01 3.00772E-25
5.13088E-01 2.93341E-25
5.17450E-01 2.86112E-25
5.21810E-01 2.79079E-25
5.26168E-01 2.72235E-25
5.30524E-01 2.65574E-25
5.34878E-01 2.59091E-25
5.39230E-01 2.52780E-25
5.43578E-01 2.46636E-25
5.47923E-01 2.40653E-25
5.52264E-01 2.34827E-25
5.56602E-01 2.29153E-25
5.60935E-01 2.23626E-25
5.65263E-01 2.18242E-25
5.69587E-01 2.12996E-25
5.73905E-01 2.07885E-25
5.78217E-01 2.02905E-25
5.82524E-01 1.98050E-25
5.86824E-01 1.93319E-25
5.91118E-01 1.88707E-25
5.95404E-01 1.84210E-25
5.99684E-01 1.79826E-25
6.03956E-01 1.75551E-25
6.08220E-01 1.71382E-25
6.12476E-01 1.67316E-25
6.16723E-01 1.63351E-25
6.20961E-01 1.59482E-25
6.25190E-01 1.55707E-25
6.29410E-01 1.52025E-25
6.33619E-01 1.48432E-25
6.37819E-01 1.44925E-25
6.42008E-01 1.41503E-25
6.46186E-01 1.38163E-25
6.50353E-01 1.34902E-25
6.54508E-01 1.31719E-25
6.58652E-01 1.28612E-25
6.62784E-01 1.25578E-25
6.66903E-01 1.22616E-25
6.71010E-01 1.19723E-25
6.75104E-01 1.16897E-25
6.79184E-01 1.14138E-25
6.83251E-01 1.11443E-25
6.87303E-01 1.08810E-25
6.91342E-01 1.06238E-25
6.95366E-01 1.03725E-25
6.99375E-01 1.01270E-25
7.03368E-01 9.88713E-26
7.07347E-01 9.65272E-26
7.11309E-01 9.42363E-26
7.15256E-01 9.19975E-26
7.19186E-01 8.98093E-26
7.23099E-01 8.76705E-26
7.26995E-01 8.55798E-26
7.30874E-01 8.35361E-26
7.34736E-01 8.15381E-26
7.38579E-01 7.95847E-26
7.42405E-01 7.76748E-26
7.46212E-01 7.58073E-26
7.50000E-01 7.39813E-26
7.53769E-01 7.21956E-26
7.57519E-01 7.04493E-26
7.61249E-01 6.87415E-26
7.64960E-01 6.70712E-26
7.68650E-01 6.54376E-26
7.72320E-01 6.38396E-26
7.75968E-01 6.22766E-26
7.79596E-01 6.07477E-26
7.83203E-01 5.92520E-26
7.86788E-01 5.77888E-26
7.90351E-01 5.63573E-26
7.93893E-01 5.49569E-26
7.97411E-01 5.35867E-26
8.00908E-01 5.22461E-26
8.04381E-01 5.09345E-26
8.07831E-01 4.96510E-26
8.11257E-01 4.83952E-26
8.14660E-01 4.71664E-26
8.18039E-01 4.59640E-26
8.21394E-01 4.47873E-26
8.24724E-01 4.36359E-26
8.28030E-01 4.25091E-26
8.31310E-01 4.14064E-26
8.34565E-01 4.03274E-26
8.37795E-01 3.92714E-26
8.40999E-01 3.82379E-26
8.44177E-01 3.72266E-26
8.47329E-01 3.62369E-26
8.50455E-01 3.52684E-26
8.53553E-01 3.43205E-26
8.56625E-01 3.33930E-26
8.59670E-01 3.24852E-26
8.62687E-01 3.15969E-26
8.65677E-01 3.07277E-26
8.68639E-01 2.98771E-26
8.71572E-01 2.90447E-26
8.74478E-01 2.82302E-26
8.77355E-01 2.74333E-26
8.80203E-01 2.66535E-26
8.83022E-01 2.58905E-26
8.85812E-01 2.51441E-26
8.88573E-01 2.44138E-26
8.91304E-01 2.36993E-26
8.94005E-01 2.30005E-26
8.96677E-01 2.23168E-26
8.99318E-01 2.16481E-26
9.01928E-01 2.09941E-26
9.04508E-01 2.03545E-26
9.07058E-01 1.97290E-26
9.09576E-01 1.91173E-26
9.12063E-01 1.85193E-26
9.14519E-01 1.79346E-26
9.16943E-01 1.73630E-26
9.19335E-01 1.68043E-26
9.21696E-01 1.62583E-26
9.24024E-01 1.57247E-26
9.26320E-01 1.52033E-26
9.28584E-01 1.46938E-26
9.30815E-01 1.41962E-26
9.33013E-01 1.37102E-26
9.35178E-01 1.32355E-26
9.37310E-01 1.27721E-26
9.39409E-01 1.23197E-26
9.41474E-01 1.18781E-26
9.43505E-01 1.14472E-26
9.45503E-01 1.10268E-26
9.47467E-01 1.06167E-26
9.49397E-01 1.02168E-26
9.51293E-01 9.82688E-27
9.53154E-01 9.44684E-27
9.54981E-01 9.07652E-27
9.56773E-01 8.71577E-27
9.58530E-01 8.36445E-27
9.60252E-01 8.02243E-27
9.61940E-01 7.68958E-27
9.63592E-01 7.36578E-27
9.65209E-01 7.05088E-27
9.66790E-01 6.74479E-27
9.68336E-01 6.44738E-27
9.69846E-01 6.15854E-27
9.71321E-01 5.87816E-27
9.72759E-01 5.60614E-27
9.74162E-01 5.34237E-27
9.75528E-01 5.08675E-27
9.76858E-01 4.83920E-27
9.78152E-01 4.59962E-27
9.79410E-01 4.36791E-27
9.80631E-01 4.14400E-27
9.81815E-01 3.92780E-27
9.82963E-01 3.71923E-27
9.84074E-01 3.51821E-27
9.85148E-01 3.32468E-27
9.86185E-01 3.13855E-27
9.87185E-01 2.95977E-27
9.88148E-01 2.78826E-27
9.89074E-01 2.62397E-27
9.89962E-01 2.46683E-27
9.90814E-01 2.31679E-27
9.91627E-01 2.17379E-27
9.92404E-01 2.03778E-27
9.93143E-01 1.90871E-27
9.93844E-01 1.78654E-27
9.94508E-01 1.67122E-27
9.95134E-01 1.56271E-27
9.95722E-01 1.46096E-27
9.96273E-01 1.36596E-27
9.96786E-01 1.27765E-27
9.97261E-01 1.19600E-27
9.97698E-01 1.12100E-27
9.98097E-01 1.05261E-27
9.98459E-01 9.90804E-28
9.98782E-01 9.35564E-28
9.99067E-01 8.86870E-28
9.99315E-01 8.44703E-28
9.99524E-01 8.09048E-28
9.99695E-01 7.79894E-28
9.99829E-01 7.57229E-28
9.99924E-01 7.41046E-28
9.99981E-01 7.31338E-28
1.00000E+00 7.28102E-28
