 #
 # Subroutine ELSEPA. Elastic scattering of electrons and positrons
 #                    by neutral atoms and positive ions
 #
 # Projectile: electron
 # Kinetic energy = 9.00000E+08 eV = 3.30744E+07 a.u.
 #
 # WARNING: High-energy factorization with free-atom DF screening.
 #          Absorption, polarization and exchange corrections are
 #          switched off.
 #          Phase shifts are calculated for the bare nucleus.
 #          Scattering amplitudes are not evaluated.
 #
 # Element: Zn,  Z =  30,  atomic weight = 6.53900E+01 g/mol
 #
 # Nuclear model: Fermi distribution
 #                Average radius = 4.31076E-13 cm
 #                Skin thickness = 5.46000E-14 cm
 #
 # Number of electrons = 30
 #
 # Total elastic cross section = 1.96517E-18 cm**2 = 7.01776E-02 a0**2
 # 1st transport cross section = 2.27662E-27 cm**2 = 8.12995E-11 a0**2
 # 2nd transport cross section = 6.82886E-27 cm**2 = 2.43863E-10 a0**2
 #
 #
 # Differential cross section:                       MU=(1-COS(THETA))/2
 #
 #  THETA        MU          DCS          DCS        Sherman      error
 #  (deg)                 (cm**2/sr)   (a0**2/sr)    function
 #----------------------------------------------------------------------
0.00000E+00 1.12563E-08
7.61557E-13 9.42942E-09
1.18994E-12 8.61483E-09
1.71346E-12 7.77414E-09
2.33225E-12 6.95174E-09
3.04617E-12 6.18208E-09
3.85530E-12 5.47944E-09
4.75964E-12 4.85259E-09
5.75917E-12 4.30220E-09
6.85391E-12 3.82108E-09
8.04379E-12 3.40421E-09
9.32893E-12 3.04361E-09
1.07092E-11 2.73024E-09
1.21847E-11 2.45851E-09
1.37554E-11 2.22171E-09
1.54213E-11 2.01403E-09
1.71823E-11 1.83172E-09
1.90386E-11 1.67048E-09
2.09900E-11 1.52722E-09
2.30367E-11 1.39970E-09
2.51785E-11 1.28525E-09
2.74156E-11 1.18239E-09
2.97478E-11 1.08377E-09
3.21752E-11 9.94203E-10
3.46979E-11 9.16281E-10
3.73157E-11 8.48173E-10
4.00286E-11 7.88371E-10
4.28368E-11 7.35634E-10
4.57402E-11 6.82760E-10
4.87388E-11 6.30971E-10
5.18325E-11 5.85143E-10
5.50215E-11 5.44437E-10
5.83057E-11 5.08155E-10
6.16850E-11 4.75706E-10
6.51595E-11 4.44013E-10
6.87293E-11 4.12508E-10
7.23943E-11 3.84255E-10
7.61544E-11 3.58845E-10
1.18991E-10 1.88021E-10
1.71347E-10 1.03935E-10
2.33223E-10 6.08507E-11
3.04617E-10 3.77446E-11
3.85531E-10 2.46381E-11
4.75965E-10 1.68254E-11
5.75917E-10 1.19341E-11
6.85389E-10 8.73012E-12
8.04380E-10 6.55008E-12
9.32891E-10 5.01917E-12
1.07092E-09 3.91254E-12
1.21847E-09 3.09554E-12
1.37554E-09 2.48000E-12
1.54213E-09 2.00833E-12
1.71823E-09 1.64260E-12
1.90386E-09 1.35536E-12
2.09900E-09 1.12742E-12
2.30367E-09 9.44906E-13
2.51785E-09 7.97321E-13
2.74156E-09 6.77122E-13
2.97478E-09 5.78263E-13
3.21752E-09 4.96830E-13
3.46978E-09 4.29336E-13
3.73156E-09 3.72614E-13
4.00286E-09 3.25077E-13
4.28368E-09 2.84769E-13
4.57402E-09 2.50528E-13
4.87388E-09 2.21299E-13
5.18326E-09 1.96176E-13
5.50215E-09 1.74556E-13
5.83057E-09 1.55807E-13
6.16850E-09 1.39527E-13
6.51596E-09 1.25324E-13
6.87293E-09 1.12883E-13
7.23942E-09 1.01963E-13
7.61544E-09 9.23236E-14
1.18991E-08 3.84913E-14
1.71347E-08 1.88174E-14
2.33223E-08 1.02606E-14
3.04617E-08 6.05908E-15
3.85531E-08 3.80296E-15
4.75965E-08 2.50489E-15
5.75917E-08 1.71581E-15
6.85389E-08 1.21410E-15
8.04380E-08 8.82916E-16
9.32891E-08 6.57251E-16
1.07092E-07 4.99240E-16
1.21847E-07 3.85954E-16
1.37554E-07 3.03036E-16
1.54213E-07 2.41225E-16
1.71823E-07 1.94394E-16
1.90386E-07 1.58390E-16
2.09900E-07 1.30346E-16
2.30367E-07 1.08241E-16
2.51785E-07 9.06284E-17
2.74156E-07 7.64557E-17
2.97478E-07 6.49477E-17
3.21752E-07 5.55252E-17
3.46978E-07 4.77509E-17
3.73156E-07 4.12907E-17
4.00286E-07 3.58867E-17
4.28368E-07 3.13385E-17
4.57402E-07 2.74885E-17
4.87388E-07 2.42119E-17
5.18325E-07 2.14092E-17
5.50215E-07 1.90006E-17
5.83057E-07 1.69213E-17
6.16850E-07 1.51188E-17
6.51596E-07 1.35501E-17
6.87293E-07 1.21796E-17
7.23942E-07 1.09781E-17
7.61543E-07 9.92117E-18
1.18991E-06 4.06492E-18
1.71347E-06 1.96074E-18
2.33223E-06 1.05854E-18
3.04617E-06 6.20595E-19
3.85531E-06 3.87492E-19
4.75964E-06 2.54269E-19
5.75916E-06 1.73693E-19
6.85388E-06 1.22656E-19
8.04378E-06 8.90629E-20
9.32888E-06 6.62241E-20
1.07092E-05 5.02597E-20
1.21846E-05 3.88296E-20
1.37553E-05 3.04722E-20
1.54212E-05 2.42474E-20
1.71822E-05 1.95342E-20
1.90385E-05 1.59117E-20
2.09899E-05 1.30940E-20
2.30365E-05 1.08731E-20
2.51783E-05 9.10325E-21
2.74153E-05 7.67898E-21
2.97475E-05 6.52253E-21
3.21749E-05 5.57585E-21
3.46974E-05 4.79501E-21
3.73152E-05 4.14637E-21
4.00281E-05 3.60393E-21
4.28362E-05 3.14744E-21
4.57395E-05 2.76102E-21
4.87380E-05 2.43211E-21
5.18317E-05 2.15072E-21
5.50205E-05 1.90885E-21
5.83045E-05 1.70005E-21
6.16838E-05 1.51905E-21
6.51582E-05 1.36154E-21
6.87277E-05 1.22394E-21
7.23925E-05 1.10332E-21
7.61524E-05 9.76336E-22
9.21439E-05 6.63456E-22
1.09658E-04 4.65722E-22
1.28695E-04 3.35938E-22
1.49255E-04 2.47956E-22
1.71338E-04 1.86673E-22
1.94942E-04 1.42958E-22
2.20070E-04 1.11128E-22
2.46720E-04 8.75298E-23
2.74892E-04 6.97494E-23
3.04586E-04 5.61613E-23
3.35803E-04 4.56421E-23
3.68542E-04 3.74049E-23
4.02802E-04 3.08866E-23
4.38585E-04 2.56794E-23
4.75889E-04 2.14836E-23
5.14715E-04 1.80756E-23
5.55063E-04 1.52876E-23
5.96931E-04 1.29913E-23
6.40321E-04 1.10884E-23
6.85233E-04 9.50244E-24
7.31665E-04 8.17362E-24
7.79618E-04 7.05480E-24
8.29092E-04 6.10847E-24
8.80086E-04 5.30465E-24
9.32601E-04 4.61915E-24
9.86636E-04 4.03240E-24
1.04219E-03 3.52845E-24
1.09927E-03 3.09418E-24
1.15786E-03 2.71885E-24
1.21797E-03 2.39353E-24
1.27961E-03 2.11081E-24
1.34276E-03 1.86449E-24
1.40743E-03 1.64939E-24
1.47362E-03 1.46114E-24
1.54133E-03 1.29604E-24
1.61056E-03 1.15096E-24
1.68131E-03 1.02326E-24
1.75357E-03 9.10644E-25
1.82735E-03 8.11184E-25
1.90265E-03 7.23208E-25
1.97947E-03 6.45281E-25
2.05780E-03 5.76163E-25
2.13765E-03 5.14785E-25
2.21902E-03 4.60215E-25
2.30190E-03 4.11648E-25
2.38630E-03 3.68379E-25
2.47222E-03 3.29795E-25
2.55965E-03 2.95359E-25
2.64859E-03 2.64600E-25
2.73905E-03 2.37106E-25
2.83103E-03 2.12514E-25
2.92452E-03 1.90503E-25
3.01952E-03 1.70792E-25
3.11604E-03 1.53132E-25
3.21407E-03 1.37301E-25
3.31362E-03 1.23106E-25
3.41468E-03 1.10372E-25
3.51725E-03 9.89455E-26
3.62133E-03 8.86896E-26
3.72692E-03 7.94826E-26
3.83403E-03 7.12158E-26
3.94265E-03 6.37923E-26
4.05278E-03 5.71256E-26
4.16442E-03 5.11383E-26
4.27757E-03 4.57613E-26
4.39223E-03 4.09327E-26
4.50840E-03 3.65969E-26
4.62608E-03 3.27042E-26
4.74527E-03 2.92100E-26
4.86597E-03 2.60741E-26
4.98817E-03 2.32606E-26
5.11188E-03 2.07372E-26
5.23711E-03 1.84746E-26
5.36383E-03 1.64468E-26
5.49207E-03 1.46303E-26
5.62181E-03 1.30037E-26
5.75306E-03 1.15480E-26
5.88581E-03 1.02461E-26
6.02007E-03 9.08235E-27
6.15583E-03 8.04286E-27
6.29310E-03 7.11504E-27
6.43187E-03 6.28753E-27
6.57214E-03 5.55010E-27
6.71392E-03 4.89355E-27
6.85720E-03 4.30957E-27
7.00198E-03 3.79065E-27
7.14827E-03 3.33005E-27
7.29605E-03 2.92168E-27
7.44534E-03 2.56007E-27
7.59612E-03 2.24028E-27
7.97965E-03 1.59563E-27
8.37255E-03 1.12757E-27
8.77480E-03 7.91460E-28
9.18641E-03 5.53190E-28
9.60736E-03 3.86799E-28
1.00376E-02 2.72633E-28
1.04773E-02 1.95908E-28
1.09262E-02 1.45589E-28
1.13844E-02 1.13517E-28
1.18520E-02 9.37294E-29
1.23288E-02 8.19298E-29
1.28150E-02 7.50761E-29
1.33104E-02 7.10638E-29
1.38150E-02 6.84806E-29
1.43290E-02 6.64182E-29
1.48521E-02 6.43296E-29
1.53845E-02 6.19207E-29
1.59262E-02 5.90689E-29
1.64770E-02 5.57641E-29
1.70371E-02 5.20641E-29
1.76063E-02 4.80639E-29
1.81848E-02 4.38742E-29
1.87724E-02 3.96062E-29
1.93692E-02 3.53631E-29
1.99751E-02 3.12341E-29
2.05901E-02 2.72923E-29
2.12143E-02 2.35936E-29
2.18476E-02 2.01776E-29
2.24900E-02 1.70689E-29
2.31415E-02 1.42792E-29
2.38021E-02 1.18091E-29
2.44717E-02 9.65052E-30
2.51504E-02 7.78851E-30
2.58382E-02 6.20321E-30
2.65349E-02 4.87150E-30
2.72407E-02 3.76831E-30
2.79555E-02 2.86788E-30
2.86793E-02 2.14463E-30
2.94120E-02 1.57390E-30
3.01537E-02 1.13248E-30
3.09043E-02 7.98974E-31
3.16639E-02 5.54011E-31
3.24324E-02 3.80382E-31
3.32098E-02 2.63043E-31
3.39961E-02 1.89056E-31
3.47912E-02 1.47492E-31
3.55952E-02 1.29274E-31
3.64081E-02 1.27017E-31
3.72297E-02 1.34835E-31
3.80602E-02 1.48161E-31
3.88995E-02 1.63559E-31
3.97476E-02 1.78546E-31
4.06044E-02 1.91431E-31
4.14700E-02 2.01161E-31
4.23443E-02 2.07189E-31
4.32273E-02 2.09356E-31
4.41190E-02 2.07787E-31
4.50194E-02 2.02809E-31
4.59284E-02 1.94878E-31
4.68461E-02 1.84520E-31
4.87074E-02 1.58735E-31
5.06030E-02 1.29653E-31
5.25328E-02 1.00735E-31
5.44967E-02 7.44230E-32
5.64946E-02 5.21459E-32
5.85262E-02 3.44677E-32
6.05914E-02 2.13071E-32
6.26901E-02 1.21625E-32
6.48222E-02 6.31142E-33
6.69873E-02 2.96538E-33
6.91854E-02 1.37851E-33
7.14163E-02 9.12105E-34
7.36799E-02 1.06401E-33
7.59760E-02 1.47194E-33
7.83043E-02 1.89984E-33
8.06647E-02 2.21515E-33
8.30571E-02 2.36285E-33
8.54812E-02 2.34050E-33
8.79369E-02 2.17677E-33
9.04240E-02 1.91461E-33
9.29422E-02 1.59925E-33
9.54915E-02 1.27071E-33
9.80716E-02 9.59857E-34
1.00682E-01 6.87208E-34
1.03323E-01 4.63597E-34
1.05995E-01 2.91857E-34
1.08696E-01 1.68965E-34
1.11427E-01 8.81875E-35
1.14188E-01 4.09718E-35
1.16978E-01 1.84263E-35
1.19797E-01 1.23563E-35
1.22645E-01 1.58830E-35
1.25522E-01 2.37137E-35
1.28428E-01 3.21489E-35
1.31361E-01 3.89148E-35
1.34323E-01 4.28970E-35
1.37313E-01 4.38404E-35
1.40330E-01 4.20580E-35
1.43375E-01 3.81792E-35
1.46447E-01 3.29520E-35
1.49545E-01 2.71015E-35
1.52671E-01 2.12420E-35
1.55823E-01 1.58334E-35
1.59001E-01 1.11717E-35
1.62205E-01 7.40279E-36
1.65435E-01 4.54957E-36
1.68690E-01 2.54499E-36
1.71970E-01 1.26523E-36
1.75276E-01 5.58905E-37
1.78606E-01 2.70407E-37
1.81961E-01 2.56568E-37
1.85340E-01 3.96866E-37
1.88743E-01 5.98162E-37
1.92169E-01 7.95073E-37
1.95619E-01 9.47395E-37
1.99092E-01 1.03575E-36
2.02589E-01 1.05649E-36
2.06107E-01 1.01665E-36
2.09649E-01 9.29462E-37
2.13212E-01 8.10671E-37
2.16797E-01 6.75841E-37
2.20404E-01 5.38552E-37
2.24032E-01 4.09401E-37
2.27680E-01 2.95659E-37
2.31350E-01 2.01402E-37
2.35040E-01 1.27956E-37
2.38751E-01 7.45081E-38
2.42481E-01 3.87786E-38
2.46231E-01 1.00000E-45
2.50000E-01 1.00000E-45
2.53788E-01 1.00000E-45
2.57595E-01 1.00000E-45
2.61421E-01 1.00000E-45
2.65264E-01 1.00000E-45
2.69126E-01 1.00000E-45
2.73005E-01 1.00000E-45
2.76901E-01 1.00000E-45
2.80814E-01 1.00000E-45
2.84744E-01 1.00000E-45
2.88691E-01 1.00000E-45
2.92653E-01 1.00000E-45
2.96632E-01 1.00000E-45
3.00625E-01 1.00000E-45
3.04634E-01 1.00000E-45
3.08658E-01 1.00000E-45
3.12697E-01 1.00000E-45
3.16749E-01 1.00000E-45
3.20816E-01 1.00000E-45
3.24896E-01 1.00000E-45
3.28990E-01 1.00000E-45
3.33097E-01 1.00000E-45
3.37216E-01 1.00000E-45
3.41348E-01 1.00000E-45
3.45492E-01 1.00000E-45
3.49647E-01 1.00000E-45
3.53814E-01 1.00000E-45
3.57992E-01 1.00000E-45
3.62181E-01 1.00000E-45
3.66381E-01 1.00000E-45
3.70590E-01 1.00000E-45
3.74810E-01 1.00000E-45
3.79039E-01 1.00000E-45
3.83277E-01 1.00000E-45
3.87524E-01 1.00000E-45
3.91780E-01 1.00000E-45
3.96044E-01 1.00000E-45
4.00316E-01 1.00000E-45
4.04596E-01 1.00000E-45
4.08882E-01 1.00000E-45
4.13176E-01 1.00000E-45
4.17476E-01 1.00000E-45
4.21783E-01 1.00000E-45
4.26095E-01 1.00000E-45
4.30413E-01 1.00000E-45
4.34737E-01 1.00000E-45
4.39065E-01 1.00000E-45
4.43398E-01 1.00000E-45
4.47736E-01 1.00000E-45
4.52077E-01 1.00000E-45
4.56422E-01 1.00000E-45
4.60770E-01 1.00000E-45
4.65122E-01 1.00000E-45
4.69476E-01 1.00000E-45
4.73832E-01 1.00000E-45
4.78190E-01 1.00000E-45
4.82550E-01 1.00000E-45
4.86912E-01 1.00000E-45
4.91274E-01 1.00000E-45
4.95637E-01 1.00000E-45
5.00000E-01 1.00000E-45
5.04363E-01 1.00000E-45
5.08726E-01 1.00000E-45
5.13088E-01 1.00000E-45
5.17450E-01 1.00000E-45
5.21810E-01 1.00000E-45
5.26168E-01 1.00000E-45
5.30524E-01 1.00000E-45
5.34878E-01 1.00000E-45
5.39230E-01 1.00000E-45
5.43578E-01 1.00000E-45
5.47923E-01 1.00000E-45
5.52264E-01 1.00000E-45
5.56602E-01 1.00000E-45
5.60935E-01 1.00000E-45
5.65263E-01 1.00000E-45
5.69587E-01 1.00000E-45
5.73905E-01 1.00000E-45
5.78217E-01 1.00000E-45
5.82524E-01 1.00000E-45
5.86824E-01 1.00000E-45
5.91118E-01 1.00000E-45
5.95404E-01 1.00000E-45
5.99684E-01 1.00000E-45
6.03956E-01 1.00000E-45
6.08220E-01 1.00000E-45
6.12476E-01 1.00000E-45
6.16723E-01 1.00000E-45
6.20961E-01 1.00000E-45
6.25190E-01 1.00000E-45
6.29410E-01 1.00000E-45
6.33619E-01 1.00000E-45
6.37819E-01 1.00000E-45
6.42008E-01 1.00000E-45
6.46186E-01 1.00000E-45
6.50353E-01 1.00000E-45
6.54508E-01 1.00000E-45
6.58652E-01 1.00000E-45
6.62784E-01 1.00000E-45
6.66903E-01 1.00000E-45
6.71010E-01 1.00000E-45
6.75104E-01 1.00000E-45
6.79184E-01 1.00000E-45
6.83251E-01 1.00000E-45
6.87303E-01 1.00000E-45
6.91342E-01 1.00000E-45
6.95366E-01 1.00000E-45
6.99375E-01 1.00000E-45
7.03368E-01 1.00000E-45
7.07347E-01 1.00000E-45
7.11309E-01 1.00000E-45
7.15256E-01 1.00000E-45
7.19186E-01 1.00000E-45
7.23099E-01 1.00000E-45
7.26995E-01 1.00000E-45
7.30874E-01 1.00000E-45
7.34736E-01 1.00000E-45
7.38579E-01 1.00000E-45
7.42405E-01 1.00000E-45
7.46212E-01 1.00000E-45
7.50000E-01 1.00000E-45
7.53769E-01 1.00000E-45
7.57519E-01 1.00000E-45
7.61249E-01 1.00000E-45
7.64960E-01 1.00000E-45
7.68650E-01 1.00000E-45
7.72320E-01 1.00000E-45
7.75968E-01 1.00000E-45
7.79596E-01 1.00000E-45
7.83203E-01 1.00000E-45
7.86788E-01 1.00000E-45
7.90351E-01 1.00000E-45
7.93893E-01 1.00000E-45
7.97411E-01 1.00000E-45
8.00908E-01 1.00000E-45
8.04381E-01 1.00000E-45
8.07831E-01 1.00000E-45
8.11257E-01 1.00000E-45
8.14660E-01 1.00000E-45
8.18039E-01 1.00000E-45
8.21394E-01 1.00000E-45
8.24724E-01 1.00000E-45
8.28030E-01 1.00000E-45
8.31310E-01 1.00000E-45
8.34565E-01 1.00000E-45
8.37795E-01 1.00000E-45
8.40999E-01 1.00000E-45
8.44177E-01 1.00000E-45
8.47329E-01 1.00000E-45
8.50455E-01 1.00000E-45
8.53553E-01 1.00000E-45
8.56625E-01 1.00000E-45
8.59670E-01 1.00000E-45
8.62687E-01 1.00000E-45
8.65677E-01 1.00000E-45
8.68639E-01 1.00000E-45
8.71572E-01 1.00000E-45
8.74478E-01 1.00000E-45
8.77355E-01 1.00000E-45
8.80203E-01 1.00000E-45
8.83022E-01 1.00000E-45
8.85812E-01 1.00000E-45
8.88573E-01 1.00000E-45
8.91304E-01 1.00000E-45
8.94005E-01 1.00000E-45
8.96677E-01 1.00000E-45
8.99318E-01 1.00000E-45
9.01928E-01 1.00000E-45
9.04508E-01 1.00000E-45
9.07058E-01 1.00000E-45
9.09576E-01 1.00000E-45
9.12063E-01 1.00000E-45
9.14519E-01 1.00000E-45
9.16943E-01 1.00000E-45
9.19335E-01 1.00000E-45
9.21696E-01 1.00000E-45
9.24024E-01 1.00000E-45
9.26320E-01 1.00000E-45
9.28584E-01 1.00000E-45
9.30815E-01 1.00000E-45
9.33013E-01 1.00000E-45
9.35178E-01 1.00000E-45
9.37310E-01 1.00000E-45
9.39409E-01 1.00000E-45
9.41474E-01 1.00000E-45
9.43505E-01 1.00000E-45
9.45503E-01 1.00000E-45
9.47467E-01 1.00000E-45
9.49397E-01 1.00000E-45
9.51293E-01 1.00000E-45
9.53154E-01 1.00000E-45
9.54981E-01 1.00000E-45
9.56773E-01 1.00000E-45
9.58530E-01 1.00000E-45
9.60252E-01 1.00000E-45
9.61940E-01 1.00000E-45
9.63592E-01 1.00000E-45
9.65209E-01 1.00000E-45
9.66790E-01 1.00000E-45
9.68336E-01 1.00000E-45
9.69846E-01 1.00000E-45
9.71321E-01 1.00000E-45
9.72759E-01 1.00000E-45
9.74162E-01 1.00000E-45
9.75528E-01 1.00000E-45
9.76858E-01 1.00000E-45
9.78152E-01 1.00000E-45
9.79410E-01 1.00000E-45
9.80631E-01 1.00000E-45
9.81815E-01 1.00000E-45
9.82963E-01 1.00000E-45
9.84074E-01 1.00000E-45
9.85148E-01 1.00000E-45
9.86185E-01 1.00000E-45
9.87185E-01 1.00000E-45
9.88148E-01 1.00000E-45
9.89074E-01 1.00000E-45
9.89962E-01 1.00000E-45
9.90814E-01 1.00000E-45
9.91627E-01 1.00000E-45
9.92404E-01 1.00000E-45
9.93143E-01 1.00000E-45
9.93844E-01 1.00000E-45
9.94508E-01 1.00000E-45
9.95134E-01 1.00000E-45
9.95722E-01 1.00000E-45
9.96273E-01 1.00000E-45
9.96786E-01 1.00000E-45
9.97261E-01 1.00000E-45
9.97698E-01 1.00000E-45
9.98097E-01 1.00000E-45
9.98459E-01 1.00000E-45
9.98782E-01 1.00000E-45
9.99067E-01 1.00000E-45
9.99315E-01 1.00000E-45
9.99524E-01 1.00000E-45
9.99695E-01 1.00000E-45
9.99829E-01 1.00000E-45
9.99924E-01 1.00000E-45
9.99981E-01 1.00000E-45
1.00000E+00 1.00000E-45
