 #
 # Subroutine ELSEPA. Elastic scattering of electrons and positrons
 #                    by neutral atoms and positive ions
 #
 # Projectile: electron
 # Kinetic energy = 4.00000E+06 eV = 1.46997E+05 a.u.
 #
 # WARNING: High-energy factorization with free-atom DF screening.
 #          Absorption, polarization and exchange corrections are
 #          switched off.
 #          Phase shifts are calculated for the bare nucleus.
 #          Scattering amplitudes are not evaluated.
 #
 # Element: Zn,  Z =  30,  atomic weight = 6.53900E+01 g/mol
 #
 # Nuclear model: Fermi distribution
 #                Average radius = 4.31076E-13 cm
 #                Skin thickness = 5.46000E-14 cm
 #
 # Number of electrons = 30
 #
 # Total elastic cross section = 2.00118E-18 cm**2 = 7.14635E-02 a0**2
 # 1st transport cross section = 6.82458E-23 cm**2 = 2.43710E-06 a0**2
 # 2nd transport cross section = 1.92831E-22 cm**2 = 6.88611E-06 a0**2
 #
 #
 # Differential cross section:                       MU=(1-COS(THETA))/2
 #
 #  THETA        MU          DCS          DCS        Sherman      error
 #  (deg)                 (cm**2/sr)   (a0**2/sr)    function
 #----------------------------------------------------------------------
0.00000E+00 2.82465E-13
7.61557E-13 2.82463E-13
1.18994E-12 2.82462E-13
1.71346E-12 2.82462E-13
2.33225E-12 2.82461E-13
3.04617E-12 2.82459E-13
3.85530E-12 2.82458E-13
4.75964E-12 2.82456E-13
5.75917E-12 2.82455E-13
6.85391E-12 2.82453E-13
8.04379E-12 2.82451E-13
9.32893E-12 2.82448E-13
1.07092E-11 2.82446E-13
1.21847E-11 2.82444E-13
1.37554E-11 2.82441E-13
1.54213E-11 2.82438E-13
1.71823E-11 2.82435E-13
1.90386E-11 2.82432E-13
2.09900E-11 2.82428E-13
2.30367E-11 2.82425E-13
2.51785E-11 2.82421E-13
2.74156E-11 2.82417E-13
2.97478E-11 2.82413E-13
3.21752E-11 2.82409E-13
3.46979E-11 2.82405E-13
3.73157E-11 2.82400E-13
4.00286E-11 2.82395E-13
4.28368E-11 2.82391E-13
4.57402E-11 2.82386E-13
4.87388E-11 2.82380E-13
5.18325E-11 2.82375E-13
5.50215E-11 2.82370E-13
5.83057E-11 2.82364E-13
6.16850E-11 2.82358E-13
6.51595E-11 2.82352E-13
6.87293E-11 2.82346E-13
7.23943E-11 2.82340E-13
7.61544E-11 2.82333E-13
1.18991E-10 2.82259E-13
1.71347E-10 2.82169E-13
2.33223E-10 2.82062E-13
3.04617E-10 2.81939E-13
3.85531E-10 2.81800E-13
4.75965E-10 2.81644E-13
5.75917E-10 2.81472E-13
6.85389E-10 2.81284E-13
8.04380E-10 2.81080E-13
9.32891E-10 2.80859E-13
1.07092E-09 2.80623E-13
1.21847E-09 2.80371E-13
1.37554E-09 2.80103E-13
1.54213E-09 2.79819E-13
1.71823E-09 2.79520E-13
1.90386E-09 2.79205E-13
2.09900E-09 2.78874E-13
2.30367E-09 2.78528E-13
2.51785E-09 2.78167E-13
2.74156E-09 2.77790E-13
2.97478E-09 2.77398E-13
3.21752E-09 2.76992E-13
3.46978E-09 2.76570E-13
3.73156E-09 2.76134E-13
4.00286E-09 2.75683E-13
4.28368E-09 2.75217E-13
4.57402E-09 2.74738E-13
4.87388E-09 2.74243E-13
5.18326E-09 2.73735E-13
5.50215E-09 2.73213E-13
5.83057E-09 2.72677E-13
6.16850E-09 2.72127E-13
6.51596E-09 2.71564E-13
6.87293E-09 2.70988E-13
7.23942E-09 2.70398E-13
7.61544E-09 2.69795E-13
1.18991E-08 2.63077E-13
1.71347E-08 2.55251E-13
2.33223E-08 2.46485E-13
3.04617E-08 2.37004E-13
3.85531E-08 2.27009E-13
4.75965E-08 2.16692E-13
5.75917E-08 2.06221E-13
6.85389E-08 1.95683E-13
8.04380E-08 1.85280E-13
9.32891E-08 1.75121E-13
1.07092E-07 1.65291E-13
1.21847E-07 1.55851E-13
1.37554E-07 1.46809E-13
1.54213E-07 1.38215E-13
1.71823E-07 1.30105E-13
1.90386E-07 1.22480E-13
2.09900E-07 1.15333E-13
2.30367E-07 1.08643E-13
2.51785E-07 1.02372E-13
2.74156E-07 9.65311E-14
2.97478E-07 9.10943E-14
3.21752E-07 8.60362E-14
3.46978E-07 8.13313E-14
3.73156E-07 7.69399E-14
4.00286E-07 7.28489E-14
4.28368E-07 6.90414E-14
4.57402E-07 6.54951E-14
4.87388E-07 6.21894E-14
5.18325E-07 5.91011E-14
5.50215E-07 5.62061E-14
5.83057E-07 5.34996E-14
6.16850E-07 5.09665E-14
6.51596E-07 4.85928E-14
6.87293E-07 4.63658E-14
7.23942E-07 4.42653E-14
7.61543E-07 4.22880E-14
1.18991E-06 2.74912E-14
1.71347E-06 1.86460E-14
2.33223E-06 1.29018E-14
3.04617E-06 9.12569E-15
3.85531E-06 6.56605E-15
4.75964E-06 4.79396E-15
5.75916E-06 3.54676E-15
6.85388E-06 2.65202E-15
8.04378E-06 2.01532E-15
9.32888E-06 1.55473E-15
1.07092E-05 1.21662E-15
1.21846E-05 9.64996E-16
1.37553E-05 7.75008E-16
1.54212E-05 6.30022E-16
1.71822E-05 5.18010E-16
1.90385E-05 4.30322E-16
2.09899E-05 3.60947E-16
2.30365E-05 3.05347E-16
2.51783E-05 2.60263E-16
2.74153E-05 2.23404E-16
2.97475E-05 1.92975E-16
3.21749E-05 1.67650E-16
3.46974E-05 1.46425E-16
3.73152E-05 1.28485E-16
4.00281E-05 1.13236E-16
4.28362E-05 1.00203E-16
4.57395E-05 8.90002E-17
4.87380E-05 7.93191E-17
5.18317E-05 7.09086E-17
5.50205E-05 6.35634E-17
5.83045E-05 5.71375E-17
6.16838E-05 5.14959E-17
6.51582E-05 4.65269E-17
6.87277E-05 4.21367E-17
7.23925E-05 3.82413E-17
7.61524E-05 3.47798E-17
9.21439E-05 2.42664E-17
1.09658E-04 1.74015E-17
1.28695E-04 1.27761E-17
1.49255E-04 9.58794E-18
1.71338E-04 7.33208E-18
1.94942E-04 5.70112E-18
2.20070E-04 4.49914E-18
2.46720E-04 3.59832E-18
2.74892E-04 2.91277E-18
3.04586E-04 2.38359E-18
3.35803E-04 1.96975E-18
3.68542E-04 1.64229E-18
4.02802E-04 1.38034E-18
4.38585E-04 1.16880E-18
4.75889E-04 9.96445E-19
5.14715E-04 8.54833E-19
5.55063E-04 7.37594E-19
5.96931E-04 6.39816E-19
6.40321E-04 5.57755E-19
6.85233E-04 4.88473E-19
7.31665E-04 4.29647E-19
7.79618E-04 3.79437E-19
8.29092E-04 3.36359E-19
8.80086E-04 2.99227E-19
9.32601E-04 2.67088E-19
9.86636E-04 2.39157E-19
1.04219E-03 2.14789E-19
1.09927E-03 1.93450E-19
1.15786E-03 1.74694E-19
1.21797E-03 1.58160E-19
1.27961E-03 1.43538E-19
1.34276E-03 1.30569E-19
1.40743E-03 1.19034E-19
1.47362E-03 1.08745E-19
1.54133E-03 9.95443E-20
1.61056E-03 9.12972E-20
1.68131E-03 8.38876E-20
1.75357E-03 7.72155E-20
1.82735E-03 7.11944E-20
1.90265E-03 6.57487E-20
1.97947E-03 6.08144E-20
2.05780E-03 5.63350E-20
2.13765E-03 5.22611E-20
2.21902E-03 4.85494E-20
2.30190E-03 4.51616E-20
2.38630E-03 4.20645E-20
2.47222E-03 3.92288E-20
2.55965E-03 3.66285E-20
2.64859E-03 3.42404E-20
2.73905E-03 3.20442E-20
2.83103E-03 3.00214E-20
2.92452E-03 2.81560E-20
3.01952E-03 2.64335E-20
3.11604E-03 2.48411E-20
3.21407E-03 2.33670E-20
3.31362E-03 2.20008E-20
3.41468E-03 2.07332E-20
3.51725E-03 1.95559E-20
3.62133E-03 1.84611E-20
3.72692E-03 1.74421E-20
3.83403E-03 1.64925E-20
3.94265E-03 1.56069E-20
4.05278E-03 1.47800E-20
4.16442E-03 1.40074E-20
4.27757E-03 1.32847E-20
4.39223E-03 1.26082E-20
4.50840E-03 1.19743E-20
4.62608E-03 1.13799E-20
4.74527E-03 1.08220E-20
4.86597E-03 1.02979E-20
4.98817E-03 9.80536E-21
5.11188E-03 9.34197E-21
5.23711E-03 8.90572E-21
5.36383E-03 8.49472E-21
5.49207E-03 8.10724E-21
5.62181E-03 7.74168E-21
5.75306E-03 7.39657E-21
5.88581E-03 7.07054E-21
6.02007E-03 6.76234E-21
6.15583E-03 6.47081E-21
6.29310E-03 6.19488E-21
6.43187E-03 5.93357E-21
6.57214E-03 5.68593E-21
6.71392E-03 5.45113E-21
6.85720E-03 5.22838E-21
7.00198E-03 5.01693E-21
7.14827E-03 4.81611E-21
7.29605E-03 4.62528E-21
7.44534E-03 4.44384E-21
7.59612E-03 4.27125E-21
7.97965E-03 3.87520E-21
8.37255E-03 3.52419E-21
8.77480E-03 3.21220E-21
9.18641E-03 2.93413E-21
9.60736E-03 2.68563E-21
1.00376E-02 2.46301E-21
1.04773E-02 2.26309E-21
1.09262E-02 2.08315E-21
1.13844E-02 1.92082E-21
1.18520E-02 1.77407E-21
1.23288E-02 1.64114E-21
1.28150E-02 1.52050E-21
1.33104E-02 1.41080E-21
1.38150E-02 1.31086E-21
1.43290E-02 1.21966E-21
1.48521E-02 1.13630E-21
1.53845E-02 1.05998E-21
1.59262E-02 9.89999E-22
1.64770E-02 9.25727E-22
1.70371E-02 8.66617E-22
1.76063E-02 8.12175E-22
1.81848E-02 7.61967E-22
1.87724E-02 7.15601E-22
1.93692E-02 6.72729E-22
1.99751E-02 6.33038E-22
2.05901E-02 5.96249E-22
2.12143E-02 5.62109E-22
2.18476E-02 5.30392E-22
2.24900E-02 5.00895E-22
2.31415E-02 4.73432E-22
2.38021E-02 4.47837E-22
2.44717E-02 4.23958E-22
2.51504E-02 4.01660E-22
2.58382E-02 3.80817E-22
2.65349E-02 3.61317E-22
2.72407E-02 3.43057E-22
2.79555E-02 3.25943E-22
2.86793E-02 3.09890E-22
2.94120E-02 2.94818E-22
3.01537E-02 2.80658E-22
3.09043E-02 2.67343E-22
3.16639E-02 2.54813E-22
3.24324E-02 2.43012E-22
3.32098E-02 2.31892E-22
3.39961E-02 2.21404E-22
3.47912E-02 2.11505E-22
3.55952E-02 2.02158E-22
3.64081E-02 1.93324E-22
3.72297E-02 1.84970E-22
3.80602E-02 1.77065E-22
3.88995E-02 1.69581E-22
3.97476E-02 1.62490E-22
4.06044E-02 1.55769E-22
4.14700E-02 1.49393E-22
4.23443E-02 1.43342E-22
4.32273E-02 1.37596E-22
4.41190E-02 1.32137E-22
4.50194E-02 1.26947E-22
4.59284E-02 1.22011E-22
4.68461E-02 1.17314E-22
4.87074E-02 1.08583E-22
5.06030E-02 1.00653E-22
5.25328E-02 9.34375E-23
5.44967E-02 8.68604E-23
5.64946E-02 8.08548E-23
5.85262E-02 7.53617E-23
6.05914E-02 7.03294E-23
6.26901E-02 6.57121E-23
6.48222E-02 6.14691E-23
6.69873E-02 5.75645E-23
6.91854E-02 5.39662E-23
7.14163E-02 5.06458E-23
7.36799E-02 4.75777E-23
7.59760E-02 4.47392E-23
7.83043E-02 4.21099E-23
8.06647E-02 3.96715E-23
8.30571E-02 3.74075E-23
8.54812E-02 3.53031E-23
8.79369E-02 3.33449E-23
9.04240E-02 3.15209E-23
9.29422E-02 2.98200E-23
9.54915E-02 2.82325E-23
9.80716E-02 2.67493E-23
1.00682E-01 2.53623E-23
1.03323E-01 2.40640E-23
1.05995E-01 2.28478E-23
1.08696E-01 2.17074E-23
1.11427E-01 2.06372E-23
1.14188E-01 1.96321E-23
1.16978E-01 1.86873E-23
1.19797E-01 1.77986E-23
1.22645E-01 1.69619E-23
1.25522E-01 1.61738E-23
1.28428E-01 1.54307E-23
1.31361E-01 1.47296E-23
1.34323E-01 1.40678E-23
1.37313E-01 1.34425E-23
1.40330E-01 1.28514E-23
1.43375E-01 1.22923E-23
1.46447E-01 1.17631E-23
1.49545E-01 1.12619E-23
1.52671E-01 1.07869E-23
1.55823E-01 1.03365E-23
1.59001E-01 9.90915E-24
1.62205E-01 9.50350E-24
1.65435E-01 9.11821E-24
1.68690E-01 8.75205E-24
1.71970E-01 8.40391E-24
1.75276E-01 8.07272E-24
1.78606E-01 7.75749E-24
1.81961E-01 7.45733E-24
1.85340E-01 7.17136E-24
1.88743E-01 6.89879E-24
1.92169E-01 6.63887E-24
1.95619E-01 6.39089E-24
1.99092E-01 6.15421E-24
2.02589E-01 5.92822E-24
2.06107E-01 5.71233E-24
2.09649E-01 5.50601E-24
2.13212E-01 5.30876E-24
2.16797E-01 5.12009E-24
2.20404E-01 4.93958E-24
2.24032E-01 4.76679E-24
2.27680E-01 4.60133E-24
2.31350E-01 4.44283E-24
2.35040E-01 4.29095E-24
2.38751E-01 4.14535E-24
2.42481E-01 4.00573E-24
2.46231E-01 3.87179E-24
2.50000E-01 3.74325E-24
2.53788E-01 3.61987E-24
2.57595E-01 3.50139E-24
2.61421E-01 3.38759E-24
2.65264E-01 3.27823E-24
2.69126E-01 3.17312E-24
2.73005E-01 3.07205E-24
2.76901E-01 2.97485E-24
2.80814E-01 2.88134E-24
2.84744E-01 2.79135E-24
2.88691E-01 2.70473E-24
2.92653E-01 2.62132E-24
2.96632E-01 2.54098E-24
3.00625E-01 2.46358E-24
3.04634E-01 2.38899E-24
3.08658E-01 2.31709E-24
3.12697E-01 2.24776E-24
3.16749E-01 2.18090E-24
3.20816E-01 2.11640E-24
3.24896E-01 2.05416E-24
3.28990E-01 1.99409E-24
3.33097E-01 1.93610E-24
3.37216E-01 1.88010E-24
3.41348E-01 1.82601E-24
3.45492E-01 1.77376E-24
3.49647E-01 1.72326E-24
3.53814E-01 1.67446E-24
3.57992E-01 1.62728E-24
3.62181E-01 1.58166E-24
3.66381E-01 1.53754E-24
3.70590E-01 1.49486E-24
3.74810E-01 1.45356E-24
3.79039E-01 1.41359E-24
3.83277E-01 1.37490E-24
3.87524E-01 1.33744E-24
3.91780E-01 1.30117E-24
3.96044E-01 1.26604E-24
4.00316E-01 1.23201E-24
4.04596E-01 1.19904E-24
4.08882E-01 1.16709E-24
4.13176E-01 1.13612E-24
4.17476E-01 1.10609E-24
4.21783E-01 1.07698E-24
4.26095E-01 1.04874E-24
4.30413E-01 1.02136E-24
4.34737E-01 9.94788E-25
4.39065E-01 9.69009E-25
4.43398E-01 9.43992E-25
4.47736E-01 9.19710E-25
4.52077E-01 8.96138E-25
4.56422E-01 8.73251E-25
4.60770E-01 8.51025E-25
4.65122E-01 8.29438E-25
4.69476E-01 8.08468E-25
4.73832E-01 7.88095E-25
4.78190E-01 7.68298E-25
4.82550E-01 7.49060E-25
4.86912E-01 7.30361E-25
4.91274E-01 7.12185E-25
4.95637E-01 6.94512E-25
5.00000E-01 6.77328E-25
5.04363E-01 6.60614E-25
5.08726E-01 6.44358E-25
5.13088E-01 6.28544E-25
5.17450E-01 6.13158E-25
5.21810E-01 5.98186E-25
5.26168E-01 5.83617E-25
5.30524E-01 5.69436E-25
5.34878E-01 5.55631E-25
5.39230E-01 5.42192E-25
5.43578E-01 5.29107E-25
5.47923E-01 5.16365E-25
5.52264E-01 5.03955E-25
5.56602E-01 4.91868E-25
5.60935E-01 4.80093E-25
5.65263E-01 4.68621E-25
5.69587E-01 4.57443E-25
5.73905E-01 4.46551E-25
5.78217E-01 4.35935E-25
5.82524E-01 4.25588E-25
5.86824E-01 4.15502E-25
5.91118E-01 4.05669E-25
5.95404E-01 3.96082E-25
5.99684E-01 3.86733E-25
6.03956E-01 3.77617E-25
6.08220E-01 3.68725E-25
6.12476E-01 3.60052E-25
6.16723E-01 3.51592E-25
6.20961E-01 3.43338E-25
6.25190E-01 3.35284E-25
6.29410E-01 3.27426E-25
6.33619E-01 3.19757E-25
6.37819E-01 3.12273E-25
6.42008E-01 3.04968E-25
6.46186E-01 2.97837E-25
6.50353E-01 2.90876E-25
6.54508E-01 2.84080E-25
6.58652E-01 2.77444E-25
6.62784E-01 2.70964E-25
6.66903E-01 2.64636E-25
6.71010E-01 2.58457E-25
6.75104E-01 2.52421E-25
6.79184E-01 2.46525E-25
6.83251E-01 2.40765E-25
6.87303E-01 2.35139E-25
6.91342E-01 2.29642E-25
6.95366E-01 2.24270E-25
6.99375E-01 2.19022E-25
7.03368E-01 2.13893E-25
7.07347E-01 2.08880E-25
7.11309E-01 2.03982E-25
7.15256E-01 1.99193E-25
7.19186E-01 1.94513E-25
7.23099E-01 1.89937E-25
7.26995E-01 1.85465E-25
7.30874E-01 1.81092E-25
7.34736E-01 1.76816E-25
7.38579E-01 1.72636E-25
7.42405E-01 1.68548E-25
7.46212E-01 1.64550E-25
7.50000E-01 1.60641E-25
7.53769E-01 1.56818E-25
7.57519E-01 1.53078E-25
7.61249E-01 1.49421E-25
7.64960E-01 1.45843E-25
7.68650E-01 1.42344E-25
7.72320E-01 1.38921E-25
7.75968E-01 1.35572E-25
7.79596E-01 1.32296E-25
7.83203E-01 1.29091E-25
7.86788E-01 1.25955E-25
7.90351E-01 1.22887E-25
7.93893E-01 1.19885E-25
7.97411E-01 1.16947E-25
8.00908E-01 1.14073E-25
8.04381E-01 1.11260E-25
8.07831E-01 1.08508E-25
8.11257E-01 1.05814E-25
8.14660E-01 1.03178E-25
8.18039E-01 1.00598E-25
8.21394E-01 9.80739E-26
8.24724E-01 9.56032E-26
8.28030E-01 9.31852E-26
8.31310E-01 9.08186E-26
8.34565E-01 8.85024E-26
8.37795E-01 8.62356E-26
8.40999E-01 8.40169E-26
8.44177E-01 8.18455E-26
8.47329E-01 7.97202E-26
8.50455E-01 7.76402E-26
8.53553E-01 7.56044E-26
8.56625E-01 7.36119E-26
8.59670E-01 7.16619E-26
8.62687E-01 6.97534E-26
8.65677E-01 6.78857E-26
8.68639E-01 6.60577E-26
8.71572E-01 6.42689E-26
8.74478E-01 6.25183E-26
8.77355E-01 6.08052E-26
8.80203E-01 5.91288E-26
8.83022E-01 5.74884E-26
8.85812E-01 5.58834E-26
8.88573E-01 5.43130E-26
8.91304E-01 5.27765E-26
8.94005E-01 5.12733E-26
8.96677E-01 4.98027E-26
8.99318E-01 4.83642E-26
9.01928E-01 4.69571E-26
9.04508E-01 4.55808E-26
9.07058E-01 4.42348E-26
9.09576E-01 4.29185E-26
9.12063E-01 4.16314E-26
9.14519E-01 4.03729E-26
9.16943E-01 3.91425E-26
9.19335E-01 3.79397E-26
9.21696E-01 3.67641E-26
9.24024E-01 3.56151E-26
9.26320E-01 3.44922E-26
9.28584E-01 3.33952E-26
9.30815E-01 3.23234E-26
9.33013E-01 3.12765E-26
9.35178E-01 3.02540E-26
9.37310E-01 2.92556E-26
9.39409E-01 2.82809E-26
9.41474E-01 2.73294E-26
9.43505E-01 2.64009E-26
9.45503E-01 2.54949E-26
9.47467E-01 2.46111E-26
9.49397E-01 2.37491E-26
9.51293E-01 2.29087E-26
9.53154E-01 2.20895E-26
9.54981E-01 2.12911E-26
9.56773E-01 2.05133E-26
9.58530E-01 1.97559E-26
9.60252E-01 1.90184E-26
9.61940E-01 1.83006E-26
9.63592E-01 1.76023E-26
9.65209E-01 1.69232E-26
9.66790E-01 1.62630E-26
9.68336E-01 1.56215E-26
9.69846E-01 1.49984E-26
9.71321E-01 1.43935E-26
9.72759E-01 1.38067E-26
9.74162E-01 1.32376E-26
9.75528E-01 1.26861E-26
9.76858E-01 1.21519E-26
9.78152E-01 1.16349E-26
9.79410E-01 1.11349E-26
9.80631E-01 1.06517E-26
9.81815E-01 1.01851E-26
9.82963E-01 9.73494E-27
9.84074E-01 9.30107E-27
9.85148E-01 8.88333E-27
9.86185E-01 8.48156E-27
9.87185E-01 8.09562E-27
9.88148E-01 7.72538E-27
9.89074E-01 7.37070E-27
9.89962E-01 7.03144E-27
9.90814E-01 6.70750E-27
9.91627E-01 6.39875E-27
9.92404E-01 6.10509E-27
9.93143E-01 5.82640E-27
9.93844E-01 5.56259E-27
9.94508E-01 5.31357E-27
9.95134E-01 5.07925E-27
9.95722E-01 4.85954E-27
9.96273E-01 4.65436E-27
9.96786E-01 4.46365E-27
9.97261E-01 4.28734E-27
9.97698E-01 4.12536E-27
9.98097E-01 3.97765E-27
9.98459E-01 3.84417E-27
9.98782E-01 3.72486E-27
9.99067E-01 3.61969E-27
9.99315E-01 3.52862E-27
9.99524E-01 3.45161E-27
9.99695E-01 3.38864E-27
9.99829E-01 3.33969E-27
9.99924E-01 3.30473E-27
9.99981E-01 3.28377E-27
1.00000E+00 3.27678E-27
