 #
 # Subroutine ELSEPA. Elastic scattering of electrons and positrons
 #                    by neutral atoms and positive ions
 #
 # Projectile: electron
 # Kinetic energy = 2.50000E+07 eV = 9.18733E+05 a.u.
 #
 # WARNING: High-energy factorization with free-atom DF screening.
 #          Absorption, polarization and exchange corrections are
 #          switched off.
 #          Phase shifts are calculated for the bare nucleus.
 #          Scattering amplitudes are not evaluated.
 #
 # Element: Zn,  Z =  30,  atomic weight = 6.53900E+01 g/mol
 #
 # Nuclear model: Fermi distribution
 #                Average radius = 4.31076E-13 cm
 #                Skin thickness = 5.46000E-14 cm
 #
 # Number of electrons = 30
 #
 # Total elastic cross section = 1.97505E-18 cm**2 = 7.05305E-02 a0**2
 # 1st transport cross section = 2.65167E-24 cm**2 = 9.46927E-08 a0**2
 # 2nd transport cross section = 7.65287E-24 cm**2 = 2.73289E-07 a0**2
 #
 #
 # Differential cross section:                       MU=(1-COS(THETA))/2
 #
 #  THETA        MU          DCS          DCS        Sherman      error
 #  (deg)                 (cm**2/sr)   (a0**2/sr)    function
 #----------------------------------------------------------------------
0.00000E+00 9.03386E-12
7.61557E-13 9.03248E-12
1.18994E-12 9.03171E-12
1.71346E-12 9.03077E-12
2.33225E-12 9.02965E-12
3.04617E-12 9.02837E-12
3.85530E-12 9.02692E-12
4.75964E-12 9.02530E-12
5.75917E-12 9.02351E-12
6.85391E-12 9.02155E-12
8.04379E-12 9.01941E-12
9.32893E-12 9.01711E-12
1.07092E-11 9.01465E-12
1.21847E-11 9.01201E-12
1.37554E-11 9.00920E-12
1.54213E-11 9.00623E-12
1.71823E-11 9.00309E-12
1.90386E-11 8.99978E-12
2.09900E-11 8.99630E-12
2.30367E-11 8.99266E-12
2.51785E-11 8.98884E-12
2.74156E-11 8.98487E-12
2.97478E-11 8.98072E-12
3.21752E-11 8.97642E-12
3.46979E-11 8.97194E-12
3.73157E-11 8.96731E-12
4.00286E-11 8.96250E-12
4.28368E-11 8.95754E-12
4.57402E-11 8.95241E-12
4.87388E-11 8.94711E-12
5.18325E-11 8.94166E-12
5.50215E-11 8.93604E-12
5.83057E-11 8.93027E-12
6.16850E-11 8.92433E-12
6.51595E-11 8.91823E-12
6.87293E-11 8.91197E-12
7.23943E-11 8.90555E-12
7.61544E-11 8.89898E-12
1.18991E-10 8.82464E-12
1.71347E-10 8.73522E-12
2.33223E-10 8.63150E-12
3.04617E-10 8.51440E-12
3.85531E-10 8.38442E-12
4.75965E-10 8.24332E-12
5.75917E-10 8.09276E-12
6.85389E-10 7.93208E-12
8.04380E-10 7.76521E-12
9.32891E-10 7.58956E-12
1.07092E-09 7.41083E-12
1.21847E-09 7.22509E-12
1.37554E-09 7.03843E-12
1.54213E-09 6.84756E-12
1.71823E-09 6.65698E-12
1.90386E-09 6.46493E-12
2.09900E-09 6.27400E-12
2.30367E-09 6.08412E-12
2.51785E-09 5.89584E-12
2.74156E-09 5.71081E-12
2.97478E-09 5.52762E-12
3.21752E-09 5.34947E-12
3.46978E-09 5.17323E-12
3.73156E-09 5.00340E-12
4.00286E-09 4.83546E-12
4.28368E-09 4.67435E-12
4.57402E-09 4.51611E-12
4.87388E-09 4.36422E-12
5.18326E-09 4.21617E-12
5.50215E-09 4.07381E-12
5.83057E-09 3.93598E-12
6.16850E-09 3.80317E-12
6.51596E-09 3.67534E-12
6.87293E-09 3.55190E-12
7.23942E-09 3.43368E-12
7.61544E-09 3.31926E-12
1.18991E-08 2.39942E-12
1.71347E-08 1.78419E-12
2.33223E-08 1.36201E-12
3.04617E-08 1.06181E-12
3.85531E-08 8.33285E-13
4.75965E-08 6.64573E-13
5.75917E-08 5.41192E-13
6.85389E-08 4.37361E-13
8.04380E-08 3.61236E-13
9.32891E-08 2.94876E-13
1.07092E-07 2.45512E-13
1.21847E-07 2.02680E-13
1.37554E-07 1.69679E-13
1.54213E-07 1.41836E-13
1.71823E-07 1.19560E-13
1.90386E-07 1.01060E-13
2.09900E-07 8.58777E-14
2.30367E-07 7.33393E-14
2.51785E-07 6.28724E-14
2.74156E-07 5.42147E-14
2.97478E-07 4.69020E-14
3.21752E-07 4.08160E-14
3.46978E-07 3.56300E-14
3.73156E-07 3.12764E-14
4.00286E-07 2.75390E-14
4.28368E-07 2.43672E-14
4.57402E-07 2.16325E-14
4.87388E-07 1.92843E-14
5.18325E-07 1.72485E-14
5.50215E-07 1.54825E-14
5.83057E-07 1.39414E-14
6.16850E-07 1.25926E-14
6.51596E-07 1.14079E-14
6.87293E-07 1.03624E-14
7.23942E-07 9.43841E-15
7.61543E-07 8.61656E-15
1.18991E-06 3.86672E-15
1.71347E-06 1.99428E-15
2.33223E-06 1.12486E-15
3.04617E-06 6.78214E-16
3.85531E-06 4.30874E-16
4.75964E-06 2.86313E-16
5.75916E-06 1.97426E-16
6.85388E-06 1.40484E-16
8.04378E-06 1.02678E-16
9.32888E-06 7.68010E-17
1.07092E-05 5.86080E-17
1.21846E-05 4.55124E-17
1.37553E-05 3.58885E-17
1.54212E-05 2.86856E-17
1.71822E-05 2.32055E-17
1.90385E-05 1.89743E-17
2.09899E-05 1.56692E-17
2.30365E-05 1.30537E-17
2.51783E-05 1.09615E-17
2.74153E-05 9.27183E-18
2.97475E-05 7.89513E-18
3.21749E-05 6.76447E-18
3.46974E-05 5.82921E-18
3.73152E-05 5.05020E-18
4.00281E-05 4.39712E-18
4.28362E-05 3.84625E-18
4.57395E-05 3.37891E-18
4.87380E-05 2.98029E-18
5.18317E-05 2.63864E-18
5.50205E-05 2.34449E-18
5.83045E-05 2.09015E-18
6.16838E-05 1.86935E-18
6.51582E-05 1.67695E-18
6.87277E-05 1.50865E-18
7.23925E-05 1.36094E-18
7.61524E-05 1.23089E-18
9.21439E-05 8.43006E-19
1.09658E-04 5.96484E-19
1.28695E-04 4.33826E-19
1.49255E-04 3.23000E-19
1.71338E-04 2.45413E-19
1.94942E-04 1.89783E-19
2.20070E-04 1.49063E-19
2.46720E-04 1.18705E-19
2.74892E-04 9.56979E-20
3.04586E-04 7.80080E-20
3.35803E-04 6.42247E-20
3.68542E-04 5.33578E-20
4.02802E-04 4.46966E-20
4.38585E-04 3.77249E-20
4.75889E-04 3.20623E-20
5.14715E-04 2.74242E-20
5.55063E-04 2.35963E-20
5.96931E-04 2.04141E-20
6.40321E-04 1.77514E-20
6.85233E-04 1.55095E-20
7.31665E-04 1.36110E-20
7.79618E-04 1.19947E-20
8.29092E-04 1.06117E-20
8.80086E-04 9.42267E-21
9.32601E-04 8.39586E-21
9.86636E-04 7.50538E-21
1.04219E-03 6.73009E-21
1.09927E-03 6.05252E-21
1.15786E-03 5.45826E-21
1.21797E-03 4.93530E-21
1.27961E-03 4.47361E-21
1.34276E-03 4.06477E-21
1.40743E-03 3.70166E-21
1.47362E-03 3.37829E-21
1.54133E-03 3.08955E-21
1.61056E-03 2.83106E-21
1.68131E-03 2.59911E-21
1.75357E-03 2.39048E-21
1.82735E-03 2.20242E-21
1.90265E-03 2.03253E-21
1.97947E-03 1.87875E-21
2.05780E-03 1.73927E-21
2.13765E-03 1.61253E-21
2.21902E-03 1.49715E-21
2.30190E-03 1.39194E-21
2.38630E-03 1.29583E-21
2.47222E-03 1.20789E-21
2.55965E-03 1.12731E-21
2.64859E-03 1.05336E-21
2.73905E-03 9.85383E-22
2.83103E-03 9.22819E-22
2.92452E-03 8.65156E-22
3.01952E-03 8.11940E-22
3.11604E-03 7.62764E-22
3.21407E-03 7.17265E-22
3.31362E-03 6.75119E-22
3.41468E-03 6.36032E-22
3.51725E-03 5.99742E-22
3.62133E-03 5.66010E-22
3.72692E-03 5.34624E-22
3.83403E-03 5.05390E-22
3.94265E-03 4.78133E-22
4.05278E-03 4.52695E-22
4.16442E-03 4.28932E-22
4.27757E-03 4.06712E-22
4.39223E-03 3.85917E-22
4.50840E-03 3.66439E-22
4.62608E-03 3.48177E-22
4.74527E-03 3.31043E-22
4.86597E-03 3.14954E-22
4.98817E-03 2.99833E-22
5.11188E-03 2.85612E-22
5.23711E-03 2.72227E-22
5.36383E-03 2.59620E-22
5.49207E-03 2.47736E-22
5.62181E-03 2.36527E-22
5.75306E-03 2.25947E-22
5.88581E-03 2.15954E-22
6.02007E-03 2.06509E-22
6.15583E-03 1.97577E-22
6.29310E-03 1.89124E-22
6.43187E-03 1.81120E-22
6.57214E-03 1.73536E-22
6.71392E-03 1.66347E-22
6.85720E-03 1.59527E-22
7.00198E-03 1.53055E-22
7.14827E-03 1.46908E-22
7.29605E-03 1.41069E-22
7.44534E-03 1.35517E-22
7.59612E-03 1.30237E-22
7.97965E-03 1.18123E-22
8.37255E-03 1.07390E-22
8.77480E-03 9.78529E-23
9.18641E-03 8.93550E-23
9.60736E-03 8.17629E-23
1.00376E-02 7.49630E-23
1.04773E-02 6.88581E-23
1.09262E-02 6.33641E-23
1.13844E-02 5.84093E-23
1.18520E-02 5.39311E-23
1.23288E-02 4.98754E-23
1.28150E-02 4.61952E-23
1.33104E-02 4.28494E-23
1.38150E-02 3.98021E-23
1.43290E-02 3.70219E-23
1.48521E-02 3.44809E-23
1.53845E-02 3.21552E-23
1.59262E-02 3.00228E-23
1.64770E-02 2.80648E-23
1.70371E-02 2.62644E-23
1.76063E-02 2.46065E-23
1.81848E-02 2.30778E-23
1.87724E-02 2.16664E-23
1.93692E-02 2.03615E-23
1.99751E-02 1.91537E-23
2.05901E-02 1.80344E-23
2.12143E-02 1.69959E-23
2.18476E-02 1.60313E-23
2.24900E-02 1.51344E-23
2.31415E-02 1.42994E-23
2.38021E-02 1.35214E-23
2.44717E-02 1.27958E-23
2.51504E-02 1.21182E-23
2.58382E-02 1.14851E-23
2.65349E-02 1.08928E-23
2.72407E-02 1.03383E-23
2.79555E-02 9.81869E-24
2.86793E-02 9.33139E-24
2.94120E-02 8.87400E-24
3.01537E-02 8.44434E-24
3.09043E-02 8.04041E-24
3.16639E-02 7.66037E-24
3.24324E-02 7.30255E-24
3.32098E-02 6.96541E-24
3.39961E-02 6.64751E-24
3.47912E-02 6.34756E-24
3.55952E-02 6.06435E-24
3.64081E-02 5.79677E-24
3.72297E-02 5.54379E-24
3.80602E-02 5.30446E-24
3.88995E-02 5.07791E-24
3.97476E-02 4.86333E-24
4.06044E-02 4.65996E-24
4.14700E-02 4.46710E-24
4.23443E-02 4.28411E-24
4.32273E-02 4.11039E-24
4.41190E-02 3.94538E-24
4.50194E-02 3.78856E-24
4.59284E-02 3.63944E-24
4.68461E-02 3.49757E-24
4.87074E-02 3.23395E-24
5.06030E-02 2.99466E-24
5.25328E-02 2.77704E-24
5.44967E-02 2.57879E-24
5.64946E-02 2.39786E-24
5.85262E-02 2.23246E-24
6.05914E-02 2.08103E-24
6.26901E-02 1.94216E-24
6.48222E-02 1.81463E-24
6.69873E-02 1.69735E-24
6.91854E-02 1.58933E-24
7.14163E-02 1.48971E-24
7.36799E-02 1.39773E-24
7.59760E-02 1.31269E-24
7.83043E-02 1.23396E-24
8.06647E-02 1.16101E-24
8.30571E-02 1.09331E-24
8.54812E-02 1.03044E-24
8.79369E-02 9.71971E-25
9.04240E-02 9.17550E-25
9.29422E-02 8.66843E-25
9.54915E-02 8.19550E-25
9.80716E-02 7.75398E-25
1.00682E-01 7.34143E-25
1.03323E-01 6.95557E-25
1.05995E-01 6.59438E-25
1.08696E-01 6.25599E-25
1.11427E-01 5.93870E-25
1.14188E-01 5.64094E-25
1.16978E-01 5.36130E-25
1.19797E-01 5.09848E-25
1.22645E-01 4.85128E-25
1.25522E-01 4.61859E-25
1.28428E-01 4.39943E-25
1.31361E-01 4.19284E-25
1.34323E-01 3.99799E-25
1.37313E-01 3.81409E-25
1.40330E-01 3.64040E-25
1.43375E-01 3.47626E-25
1.46447E-01 3.32105E-25
1.49545E-01 3.17419E-25
1.52671E-01 3.03516E-25
1.55823E-01 2.90346E-25
1.59001E-01 2.77863E-25
1.62205E-01 2.66026E-25
1.65435E-01 2.54794E-25
1.68690E-01 2.44132E-25
1.71970E-01 2.34005E-25
1.75276E-01 2.24381E-25
1.78606E-01 2.15232E-25
1.81961E-01 2.06529E-25
1.85340E-01 1.98247E-25
1.88743E-01 1.90362E-25
1.92169E-01 1.82851E-25
1.95619E-01 1.75694E-25
1.99092E-01 1.68871E-25
2.02589E-01 1.62363E-25
2.06107E-01 1.56155E-25
2.09649E-01 1.50228E-25
2.13212E-01 1.44569E-25
2.16797E-01 1.39162E-25
2.20404E-01 1.33996E-25
2.24032E-01 1.29057E-25
2.27680E-01 1.24333E-25
2.31350E-01 1.19814E-25
2.35040E-01 1.15489E-25
2.38751E-01 1.11349E-25
2.42481E-01 1.07383E-25
2.46231E-01 1.03584E-25
2.50000E-01 9.99435E-26
2.53788E-01 9.64533E-26
2.57595E-01 9.31064E-26
2.61421E-01 8.98958E-26
2.65264E-01 8.68152E-26
2.69126E-01 8.38582E-26
2.73005E-01 8.10191E-26
2.76901E-01 7.82925E-26
2.80814E-01 7.56731E-26
2.84744E-01 7.31559E-26
2.88691E-01 7.07364E-26
2.92653E-01 6.84101E-26
2.96632E-01 6.61728E-26
3.00625E-01 6.40206E-26
3.04634E-01 6.19496E-26
3.08658E-01 5.99563E-26
3.12697E-01 5.80374E-26
3.16749E-01 5.61895E-26
3.20816E-01 5.44096E-26
3.24896E-01 5.26948E-26
3.28990E-01 5.10424E-26
3.33097E-01 4.94497E-26
3.37216E-01 4.79141E-26
3.41348E-01 4.64334E-26
3.45492E-01 4.50052E-26
3.49647E-01 4.36274E-26
3.53814E-01 4.22979E-26
3.57992E-01 4.10147E-26
3.62181E-01 3.97761E-26
3.66381E-01 3.85801E-26
3.70590E-01 3.74251E-26
3.74810E-01 3.63095E-26
3.79039E-01 3.52317E-26
3.83277E-01 3.41902E-26
3.87524E-01 3.31836E-26
3.91780E-01 3.22106E-26
3.96044E-01 3.12699E-26
4.00316E-01 3.03602E-26
4.04596E-01 2.94804E-26
4.08882E-01 2.86293E-26
4.13176E-01 2.78058E-26
4.17476E-01 2.70090E-26
4.21783E-01 2.62378E-26
4.26095E-01 2.54912E-26
4.30413E-01 2.47684E-26
4.34737E-01 2.40686E-26
4.39065E-01 2.33907E-26
4.43398E-01 2.27342E-26
4.47736E-01 2.20981E-26
4.52077E-01 2.14819E-26
4.56422E-01 2.08846E-26
4.60770E-01 2.03058E-26
4.65122E-01 1.97447E-26
4.69476E-01 1.92007E-26
4.73832E-01 1.86733E-26
4.78190E-01 1.81618E-26
4.82550E-01 1.76657E-26
4.86912E-01 1.71844E-26
4.91274E-01 1.67175E-26
4.95637E-01 1.62645E-26
5.00000E-01 1.58249E-26
5.04363E-01 1.53982E-26
5.08726E-01 1.49841E-26
5.13088E-01 1.45820E-26
5.17450E-01 1.41916E-26
5.21810E-01 1.38126E-26
5.26168E-01 1.34445E-26
5.30524E-01 1.30869E-26
5.34878E-01 1.27396E-26
5.39230E-01 1.24022E-26
5.43578E-01 1.20744E-26
5.47923E-01 1.17559E-26
5.52264E-01 1.14463E-26
5.56602E-01 1.11454E-26
5.60935E-01 1.08529E-26
5.65263E-01 1.05686E-26
5.69587E-01 1.02922E-26
5.73905E-01 1.00234E-26
5.78217E-01 9.76206E-27
5.82524E-01 9.50787E-27
5.86824E-01 9.26063E-27
5.91118E-01 9.02014E-27
5.95404E-01 8.78618E-27
5.99684E-01 8.55856E-27
6.03956E-01 8.33708E-27
6.08220E-01 8.12155E-27
6.12476E-01 7.91180E-27
6.16723E-01 7.70766E-27
6.20961E-01 7.50895E-27
6.25190E-01 7.31552E-27
6.29410E-01 7.12721E-27
6.33619E-01 6.94386E-27
6.37819E-01 6.76533E-27
6.42008E-01 6.59149E-27
6.46186E-01 6.42218E-27
6.50353E-01 6.25729E-27
6.54508E-01 6.09668E-27
6.58652E-01 5.94023E-27
6.62784E-01 5.78781E-27
6.66903E-01 5.63933E-27
6.71010E-01 5.49465E-27
6.75104E-01 5.35368E-27
6.79184E-01 5.21630E-27
6.83251E-01 5.08243E-27
6.87303E-01 4.95195E-27
6.91342E-01 4.82478E-27
6.95366E-01 4.70082E-27
6.99375E-01 4.57998E-27
7.03368E-01 4.46217E-27
7.07347E-01 4.34732E-27
7.11309E-01 4.23534E-27
7.15256E-01 4.12616E-27
7.19186E-01 4.01969E-27
7.23099E-01 3.91586E-27
7.26995E-01 3.81460E-27
7.30874E-01 3.71584E-27
7.34736E-01 3.61952E-27
7.38579E-01 3.52557E-27
7.42405E-01 3.43392E-27
7.46212E-01 3.34452E-27
7.50000E-01 3.25730E-27
7.53769E-01 3.17221E-27
7.57519E-01 3.08919E-27
7.61249E-01 3.00818E-27
7.64960E-01 2.92914E-27
7.68650E-01 2.85202E-27
7.72320E-01 2.77675E-27
7.75968E-01 2.70330E-27
7.79596E-01 2.63162E-27
7.83203E-01 2.56166E-27
7.86788E-01 2.49338E-27
7.90351E-01 2.42674E-27
7.93893E-01 2.36169E-27
7.97411E-01 2.29820E-27
8.00908E-01 2.23622E-27
8.04381E-01 2.17571E-27
8.07831E-01 2.11665E-27
8.11257E-01 2.05899E-27
8.14660E-01 2.00270E-27
8.18039E-01 1.94774E-27
8.21394E-01 1.89409E-27
8.24724E-01 1.84171E-27
8.28030E-01 1.79056E-27
8.31310E-01 1.74063E-27
8.34565E-01 1.69187E-27
8.37795E-01 1.64427E-27
8.40999E-01 1.59779E-27
8.44177E-01 1.55240E-27
8.47329E-01 1.50808E-27
8.50455E-01 1.46481E-27
8.53553E-01 1.42256E-27
8.56625E-01 1.38131E-27
8.59670E-01 1.34103E-27
8.62687E-01 1.30169E-27
8.65677E-01 1.26329E-27
8.68639E-01 1.22579E-27
8.71572E-01 1.18917E-27
8.74478E-01 1.15342E-27
8.77355E-01 1.11852E-27
8.80203E-01 1.08444E-27
8.83022E-01 1.05116E-27
8.85812E-01 1.01868E-27
8.88573E-01 9.86966E-28
8.91304E-01 9.56006E-28
8.94005E-01 9.25784E-28
8.96677E-01 8.96282E-28
8.99318E-01 8.67485E-28
9.01928E-01 8.39378E-28
9.04508E-01 8.11945E-28
9.07058E-01 7.85173E-28
9.09576E-01 7.59046E-28
9.12063E-01 7.33551E-28
9.14519E-01 7.08674E-28
9.16943E-01 6.84404E-28
9.19335E-01 6.60726E-28
9.21696E-01 6.37628E-28
9.24024E-01 6.15100E-28
9.26320E-01 5.93128E-28
9.28584E-01 5.71702E-28
9.30815E-01 5.50811E-28
9.33013E-01 5.30443E-28
9.35178E-01 5.10589E-28
9.37310E-01 4.91239E-28
9.39409E-01 4.72382E-28
9.41474E-01 4.54009E-28
9.43505E-01 4.36111E-28
9.45503E-01 4.18678E-28
9.47467E-01 4.01703E-28
9.49397E-01 3.85176E-28
9.51293E-01 3.69090E-28
9.53154E-01 3.53436E-28
9.54981E-01 3.38206E-28
9.56773E-01 3.23393E-28
9.58530E-01 3.08990E-28
9.60252E-01 2.94989E-28
9.61940E-01 2.81384E-28
9.63592E-01 2.68168E-28
9.65209E-01 2.55334E-28
9.66790E-01 2.42877E-28
9.68336E-01 2.30789E-28
9.69846E-01 2.19066E-28
9.71321E-01 2.07702E-28
9.72759E-01 1.96690E-28
9.74162E-01 1.86027E-28
9.75528E-01 1.75706E-28
9.76858E-01 1.65722E-28
9.78152E-01 1.56071E-28
9.79410E-01 1.46749E-28
9.80631E-01 1.37750E-28
9.81815E-01 1.29071E-28
9.82963E-01 1.20707E-28
9.84074E-01 1.12654E-28
9.85148E-01 1.04909E-28
9.86185E-01 9.74673E-29
9.87185E-01 9.03260E-29
9.88148E-01 8.34816E-29
9.89074E-01 7.69308E-29
9.89962E-01 7.06705E-29
9.90814E-01 6.46978E-29
9.91627E-01 5.90098E-29
9.92404E-01 5.36039E-29
9.93143E-01 4.84776E-29
9.93844E-01 4.36284E-29
9.94508E-01 3.90540E-29
9.95134E-01 3.47523E-29
9.95722E-01 3.07213E-29
9.96273E-01 2.69591E-29
9.96786E-01 2.34639E-29
9.97261E-01 2.02341E-29
9.97698E-01 1.72683E-29
9.98097E-01 1.45649E-29
9.98459E-01 1.21228E-29
9.98782E-01 9.94080E-30
9.99067E-01 8.01788E-30
9.99315E-01 6.35316E-30
9.99524E-01 4.94587E-30
9.99695E-01 3.79533E-30
9.99829E-01 2.90103E-30
9.99924E-01 2.26254E-30
9.99981E-01 1.87956E-30
1.00000E+00 1.75191E-30
