 #
 # Subroutine ELSEPA. Elastic scattering of electrons and positrons
 #                    by neutral atoms and positive ions
 #
 # Projectile: electron
 # Kinetic energy = 1.25000E+08 eV = 4.59367E+06 a.u.
 #
 # WARNING: High-energy factorization with free-atom DF screening.
 #          Absorption, polarization and exchange corrections are
 #          switched off.
 #          Phase shifts are calculated for the bare nucleus.
 #          Scattering amplitudes are not evaluated.
 #
 # Element: Zn,  Z =  30,  atomic weight = 6.53900E+01 g/mol
 #
 # Nuclear model: Fermi distribution
 #                Average radius = 4.31076E-13 cm
 #                Skin thickness = 5.46000E-14 cm
 #
 # Number of electrons = 30
 #
 # Total elastic cross section = 1.97407E-18 cm**2 = 7.04954E-02 a0**2
 # 1st transport cross section = 1.17148E-25 cm**2 = 4.18345E-09 a0**2
 # 2nd transport cross section = 3.49187E-25 cm**2 = 1.24697E-08 a0**2
 #
 #
 # Differential cross section:                       MU=(1-COS(THETA))/2
 #
 #  THETA        MU          DCS          DCS        Sherman      error
 #  (deg)                 (cm**2/sr)   (a0**2/sr)    function
 #----------------------------------------------------------------------
0.00000E+00 2.18666E-10
7.61557E-13 2.17867E-10
1.18994E-12 2.17420E-10
1.71346E-12 2.16876E-10
2.33225E-12 2.16236E-10
3.04617E-12 2.15502E-10
3.85530E-12 2.14675E-10
4.75964E-12 2.13757E-10
5.75917E-12 2.12751E-10
6.85391E-12 2.11657E-10
8.04379E-12 2.10480E-10
9.32893E-12 2.09220E-10
1.07092E-11 2.07882E-10
1.21847E-11 2.06467E-10
1.37554E-11 2.04979E-10
1.54213E-11 2.03413E-10
1.71823E-11 2.01776E-10
1.90386E-11 2.00085E-10
2.09900E-11 1.98342E-10
2.30367E-11 1.96545E-10
2.51785E-11 1.94665E-10
2.74156E-11 1.92746E-10
2.97478E-11 1.90792E-10
3.21752E-11 1.88806E-10
3.46979E-11 1.86748E-10
3.73157E-11 1.84654E-10
4.00286E-11 1.82540E-10
4.28368E-11 1.80410E-10
4.57402E-11 1.78242E-10
4.87388E-11 1.76026E-10
5.18325E-11 1.73804E-10
5.50215E-11 1.71580E-10
5.83057E-11 1.69356E-10
6.16850E-11 1.67066E-10
6.51595E-11 1.64784E-10
6.87293E-11 1.62513E-10
7.23943E-11 1.60254E-10
7.61544E-11 1.57963E-10
1.18991E-10 1.35532E-10
1.71347E-10 1.14972E-10
2.33223E-10 9.71176E-11
3.04617E-10 8.20781E-11
3.85531E-10 6.96797E-11
4.75965E-10 5.95309E-11
5.75917E-10 5.12103E-11
6.85389E-10 4.43589E-11
8.04380E-10 3.86814E-11
9.32891E-10 3.39332E-11
1.07092E-09 2.99158E-11
1.21847E-09 2.64961E-11
1.37554E-09 2.35610E-11
1.54213E-09 2.08911E-11
1.71823E-09 1.85591E-11
1.90386E-09 1.66327E-11
2.09900E-09 1.50271E-11
2.30367E-09 1.36323E-11
2.51785E-09 1.22043E-11
2.74156E-09 1.09998E-11
2.97478E-09 9.97646E-12
3.21752E-09 9.10130E-12
3.46978E-09 8.23131E-12
3.73156E-09 7.45162E-12
4.00286E-09 6.77904E-12
4.28368E-09 6.19575E-12
4.57402E-09 5.65675E-12
4.87388E-09 5.14345E-12
5.18326E-09 4.69496E-12
5.50215E-09 4.30142E-12
5.83057E-09 3.95376E-12
6.16850E-09 3.61193E-12
6.51596E-09 3.30995E-12
6.87293E-09 3.04226E-12
7.23942E-09 2.80415E-12
7.61544E-09 2.58046E-12
1.18991E-08 1.20102E-12
1.71347E-08 6.24558E-13
2.33223E-08 3.57428E-13
3.04617E-08 2.20797E-13
3.85531E-08 1.44663E-13
4.75965E-08 9.90861E-14
5.75917E-08 7.02365E-14
6.85389E-08 5.11470E-14
8.04380E-08 3.80799E-14
9.32891E-08 2.88903E-14
1.07092E-07 2.22786E-14
1.21847E-07 1.74336E-14
1.37554E-07 1.38222E-14
1.54213E-07 1.10841E-14
1.71823E-07 8.99283E-15
1.90386E-07 7.36696E-15
2.09900E-07 6.09370E-15
2.30367E-07 5.08036E-15
2.51785E-07 4.27039E-15
2.74156E-07 3.61504E-15
2.97478E-07 3.08100E-15
3.21752E-07 2.64223E-15
3.46978E-07 2.27889E-15
3.73156E-07 1.97630E-15
4.00286E-07 1.72222E-15
4.28368E-07 1.50796E-15
4.57402E-07 1.32605E-15
4.87388E-07 1.17088E-15
5.18325E-07 1.03784E-15
5.50215E-07 9.23186E-16
5.83057E-07 8.24039E-16
6.16850E-07 7.37822E-16
6.51596E-07 6.62661E-16
6.87293E-07 5.96830E-16
7.23942E-07 5.38996E-16
7.61543E-07 4.88021E-16
1.18991E-06 2.02969E-16
1.71347E-06 9.88558E-17
2.33223E-06 5.37021E-17
3.04617E-06 3.16116E-17
3.85531E-06 1.97914E-17
4.75964E-06 1.30112E-17
5.75916E-06 8.89975E-18
6.85388E-06 6.29064E-18
8.04378E-06 4.57099E-18
9.32888E-06 3.40064E-18
1.07092E-05 2.58192E-18
1.21846E-05 1.99537E-18
1.37553E-05 1.56630E-18
1.54212E-05 1.24659E-18
1.71822E-05 1.00445E-18
1.90385E-05 8.18298E-19
2.09899E-05 6.73468E-19
2.30365E-05 5.59293E-19
2.51783E-05 4.68295E-19
2.74153E-05 3.95055E-19
2.97475E-05 3.35581E-19
3.21749E-05 2.86890E-19
3.46974E-05 2.46725E-19
3.73152E-05 2.13358E-19
4.00281E-05 1.85453E-19
4.28362E-05 1.61968E-19
4.57395E-05 1.42086E-19
4.87380E-05 1.25163E-19
5.18317E-05 1.10684E-19
5.50205E-05 9.82391E-20
5.83045E-05 8.74948E-20
6.16838E-05 7.81807E-20
6.51582E-05 7.00749E-20
6.87277E-05 6.29941E-20
7.23925E-05 5.67865E-20
7.61524E-05 5.13291E-20
9.21439E-05 3.50777E-20
1.09658E-04 2.47798E-20
1.28695E-04 1.80003E-20
1.49255E-04 1.33890E-20
1.71338E-04 1.01651E-20
1.94942E-04 7.85590E-21
2.20070E-04 6.16706E-21
2.46720E-04 4.90883E-21
2.74892E-04 3.95583E-21
3.04586E-04 3.22341E-21
3.35803E-04 2.65297E-21
3.68542E-04 2.20337E-21
4.02802E-04 1.84515E-21
4.38585E-04 1.55688E-21
4.75889E-04 1.32279E-21
5.14715E-04 1.13111E-21
5.55063E-04 9.72929E-22
5.96931E-04 8.41467E-22
6.40321E-04 7.31483E-22
6.85233E-04 6.38898E-22
7.31665E-04 5.60509E-22
7.79618E-04 4.93783E-22
8.29092E-04 4.36697E-22
8.80086E-04 3.87627E-22
9.32601E-04 3.45259E-22
9.86636E-04 3.08523E-22
1.04219E-03 2.76544E-22
1.09927E-03 2.48601E-22
1.15786E-03 2.24098E-22
1.21797E-03 2.02540E-22
1.27961E-03 1.83511E-22
1.34276E-03 1.66663E-22
1.40743E-03 1.51703E-22
1.47362E-03 1.38383E-22
1.54133E-03 1.26492E-22
1.61056E-03 1.15849E-22
1.68131E-03 1.06301E-22
1.75357E-03 9.77145E-23
1.82735E-03 8.99766E-23
1.90265E-03 8.29882E-23
1.97947E-03 7.66639E-23
2.05780E-03 7.09295E-23
2.13765E-03 6.57200E-23
2.21902E-03 6.09789E-23
2.30190E-03 5.66566E-23
2.38630E-03 5.27094E-23
2.47222E-03 4.90990E-23
2.55965E-03 4.57915E-23
2.64859E-03 4.27569E-23
2.73905E-03 3.99686E-23
2.83103E-03 3.74031E-23
2.92452E-03 3.50393E-23
3.01952E-03 3.28585E-23
3.11604E-03 3.08439E-23
3.21407E-03 2.89807E-23
3.31362E-03 2.72554E-23
3.41468E-03 2.56559E-23
3.51725E-03 2.41714E-23
3.62133E-03 2.27921E-23
3.72692E-03 2.15092E-23
3.83403E-03 2.03147E-23
3.94265E-03 1.92015E-23
4.05278E-03 1.81630E-23
4.16442E-03 1.71933E-23
4.27757E-03 1.62869E-23
4.39223E-03 1.54390E-23
4.50840E-03 1.46452E-23
4.62608E-03 1.39013E-23
4.74527E-03 1.32036E-23
4.86597E-03 1.25488E-23
4.98817E-03 1.19337E-23
5.11188E-03 1.13555E-23
5.23711E-03 1.08116E-23
5.36383E-03 1.02995E-23
5.49207E-03 9.81703E-24
5.62181E-03 9.36220E-24
5.75306E-03 8.93312E-24
5.88581E-03 8.52806E-24
6.02007E-03 8.14544E-24
6.15583E-03 7.78377E-24
6.29310E-03 7.44172E-24
6.43187E-03 7.11800E-24
6.57214E-03 6.81147E-24
6.71392E-03 6.52104E-24
6.85720E-03 6.24572E-24
7.00198E-03 5.98457E-24
7.14827E-03 5.73672E-24
7.29605E-03 5.50139E-24
7.44534E-03 5.27781E-24
7.59612E-03 5.06530E-24
7.97965E-03 4.57829E-24
8.37255E-03 4.14752E-24
8.77480E-03 3.76541E-24
9.18641E-03 3.42553E-24
9.60736E-03 3.12244E-24
1.00376E-02 2.85149E-24
1.04773E-02 2.60870E-24
1.09262E-02 2.39065E-24
1.13844E-02 2.19440E-24
1.18520E-02 2.01740E-24
1.23288E-02 1.85745E-24
1.28150E-02 1.71263E-24
1.33104E-02 1.58127E-24
1.38150E-02 1.46191E-24
1.43290E-02 1.35327E-24
1.48521E-02 1.25422E-24
1.53845E-02 1.16379E-24
1.59262E-02 1.08109E-24
1.64770E-02 1.00536E-24
1.70371E-02 9.35902E-25
1.76063E-02 8.72123E-25
1.81848E-02 8.13477E-25
1.87724E-02 7.59485E-25
1.93692E-02 7.09717E-25
1.99751E-02 6.63787E-25
2.05901E-02 6.21352E-25
2.12143E-02 5.82103E-25
2.18476E-02 5.45762E-25
2.24900E-02 5.12078E-25
2.31415E-02 4.80827E-25
2.38021E-02 4.51804E-25
2.44717E-02 4.24825E-25
2.51504E-02 3.99723E-25
2.58382E-02 3.76348E-25
2.65349E-02 3.54562E-25
2.72407E-02 3.34239E-25
2.79555E-02 3.15266E-25
2.86793E-02 2.97540E-25
2.94120E-02 2.80966E-25
3.01537E-02 2.65458E-25
3.09043E-02 2.50936E-25
3.16639E-02 2.37329E-25
3.24324E-02 2.24570E-25
3.32098E-02 2.12598E-25
3.39961E-02 2.01357E-25
3.47912E-02 1.90796E-25
3.55952E-02 1.80869E-25
3.64081E-02 1.71531E-25
3.72297E-02 1.62742E-25
3.80602E-02 1.54465E-25
3.88995E-02 1.46667E-25
3.97476E-02 1.39315E-25
4.06044E-02 1.32380E-25
4.14700E-02 1.25836E-25
4.23443E-02 1.19657E-25
4.32273E-02 1.13820E-25
4.41190E-02 1.08304E-25
4.50194E-02 1.03088E-25
4.59284E-02 9.81544E-26
4.68461E-02 9.34851E-26
4.87074E-02 8.48773E-26
5.06030E-02 7.71489E-26
5.25328E-02 7.01990E-26
5.44967E-02 6.39398E-26
5.64946E-02 5.82946E-26
5.85262E-02 5.31962E-26
6.05914E-02 4.85856E-26
6.26901E-02 4.44109E-26
6.48222E-02 4.06265E-26
6.69873E-02 3.71918E-26
6.91854E-02 3.40714E-26
7.14163E-02 3.12333E-26
7.36799E-02 2.86496E-26
7.59760E-02 2.62952E-26
7.83043E-02 2.41478E-26
8.06647E-02 2.21876E-26
8.30571E-02 2.03967E-26
8.54812E-02 1.87593E-26
8.79369E-02 1.72610E-26
9.04240E-02 1.58890E-26
9.29422E-02 1.46319E-26
9.54915E-02 1.34793E-26
9.80716E-02 1.24218E-26
1.00682E-01 1.14511E-26
1.03323E-01 1.05594E-26
1.05995E-01 9.73993E-27
1.08696E-01 8.98645E-27
1.11427E-01 8.29330E-27
1.14188E-01 7.65536E-27
1.16978E-01 7.06798E-27
1.19797E-01 6.52691E-27
1.22645E-01 6.02833E-27
1.25522E-01 5.56871E-27
1.28428E-01 5.14487E-27
1.31361E-01 4.75389E-27
1.34323E-01 4.39311E-27
1.37313E-01 4.06011E-27
1.40330E-01 3.75266E-27
1.43375E-01 3.46872E-27
1.46447E-01 3.20644E-27
1.49545E-01 2.96412E-27
1.52671E-01 2.74018E-27
1.55823E-01 2.53320E-27
1.59001E-01 2.34186E-27
1.62205E-01 2.16494E-27
1.65435E-01 2.00134E-27
1.68690E-01 1.85004E-27
1.71970E-01 1.71010E-27
1.75276E-01 1.58064E-27
1.78606E-01 1.46089E-27
1.81961E-01 1.35009E-27
1.85340E-01 1.24758E-27
1.88743E-01 1.15273E-27
1.92169E-01 1.06497E-27
1.95619E-01 9.83764E-28
1.99092E-01 9.08624E-28
2.02589E-01 8.39097E-28
2.06107E-01 7.74765E-28
2.09649E-01 7.15243E-28
2.13212E-01 6.60174E-28
2.16797E-01 6.09227E-28
2.20404E-01 5.62097E-28
2.24032E-01 5.18502E-28
2.27680E-01 4.78181E-28
2.31350E-01 4.40892E-28
2.35040E-01 4.06410E-28
2.38751E-01 3.74530E-28
2.42481E-01 3.45058E-28
2.46231E-01 3.17817E-28
2.50000E-01 2.92643E-28
2.53788E-01 2.69383E-28
2.57595E-01 2.47896E-28
2.61421E-01 2.28050E-28
2.65264E-01 2.09724E-28
2.69126E-01 1.92806E-28
2.73005E-01 1.77191E-28
2.76901E-01 1.62783E-28
2.80814E-01 1.49492E-28
2.84744E-01 1.37234E-28
2.88691E-01 1.25934E-28
2.92653E-01 1.15518E-28
2.96632E-01 1.05922E-28
3.00625E-01 9.70834E-29
3.04634E-01 8.89456E-29
3.08658E-01 8.14557E-29
3.12697E-01 7.45647E-29
3.16749E-01 6.82274E-29
3.20816E-01 6.24016E-29
3.24896E-01 5.70484E-29
3.28990E-01 5.21316E-29
3.33097E-01 4.76178E-29
3.37216E-01 4.34759E-29
3.41348E-01 3.96772E-29
3.45492E-01 3.61951E-29
3.49647E-01 3.30049E-29
3.53814E-01 3.00838E-29
3.57992E-01 2.74106E-29
3.62181E-01 2.49658E-29
3.66381E-01 2.27312E-29
3.70590E-01 2.06901E-29
3.74810E-01 1.88270E-29
3.79039E-01 1.71275E-29
3.83277E-01 1.55785E-29
3.87524E-01 1.41675E-29
3.91780E-01 1.28834E-29
3.96044E-01 1.17157E-29
4.00316E-01 1.06546E-29
4.04596E-01 9.69130E-30
4.08882E-01 8.81754E-30
4.13176E-01 8.02574E-30
4.17476E-01 7.30888E-30
4.21783E-01 6.66052E-30
4.26095E-01 6.07470E-30
4.30413E-01 5.54597E-30
4.34737E-01 5.06926E-30
4.39065E-01 4.63995E-30
4.43398E-01 4.25378E-30
4.47736E-01 3.90681E-30
4.52077E-01 3.59547E-30
4.56422E-01 3.31643E-30
4.60770E-01 3.06667E-30
4.65122E-01 2.84341E-30
4.69476E-01 2.64410E-30
4.73832E-01 2.46641E-30
4.78190E-01 2.30822E-30
4.82550E-01 2.16757E-30
4.86912E-01 2.04267E-30
4.91274E-01 1.93192E-30
4.95637E-01 1.83382E-30
5.00000E-01 1.74704E-30
5.04363E-01 1.67033E-30
5.08726E-01 1.60259E-30
5.13088E-01 1.54281E-30
5.17450E-01 1.49007E-30
5.21810E-01 1.44353E-30
5.26168E-01 1.40246E-30
5.30524E-01 1.36616E-30
5.34878E-01 1.33404E-30
5.39230E-01 1.30554E-30
5.43578E-01 1.28017E-30
5.47923E-01 1.25749E-30
5.52264E-01 1.23710E-30
5.56602E-01 1.21865E-30
5.60935E-01 1.20182E-30
5.65263E-01 1.18635E-30
5.69587E-01 1.17198E-30
5.73905E-01 1.15850E-30
5.78217E-01 1.14572E-30
5.82524E-01 1.13347E-30
5.86824E-01 1.12161E-30
5.91118E-01 1.11002E-30
5.95404E-01 1.09858E-30
5.99684E-01 1.08721E-30
6.03956E-01 1.07583E-30
6.08220E-01 1.06438E-30
6.12476E-01 1.05281E-30
6.16723E-01 1.04107E-30
6.20961E-01 1.02913E-30
6.25190E-01 1.01696E-30
6.29410E-01 1.00456E-30
6.33619E-01 9.91898E-31
6.37819E-01 9.78978E-31
6.42008E-01 9.65797E-31
6.46186E-01 9.52356E-31
6.50353E-01 9.38664E-31
6.54508E-01 9.24728E-31
6.58652E-01 9.10560E-31
6.62784E-01 8.96174E-31
6.66903E-01 8.81586E-31
6.71010E-01 8.66811E-31
6.75104E-01 8.51869E-31
6.79184E-01 8.36778E-31
6.83251E-01 8.21556E-31
6.87303E-01 8.06224E-31
6.91342E-01 7.90801E-31
6.95366E-01 7.75307E-31
6.99375E-01 7.59762E-31
7.03368E-01 7.44185E-31
7.07347E-01 7.28594E-31
7.11309E-01 7.13009E-31
7.15256E-01 6.97448E-31
7.19186E-01 6.81926E-31
7.23099E-01 6.66462E-31
7.26995E-01 6.51072E-31
7.30874E-01 6.35769E-31
7.34736E-01 6.20570E-31
7.38579E-01 6.05488E-31
7.42405E-01 5.90535E-31
7.46212E-01 5.75724E-31
7.50000E-01 5.61066E-31
7.53769E-01 5.46572E-31
7.57519E-01 5.32252E-31
7.61249E-01 5.18114E-31
7.64960E-01 5.04168E-31
7.68650E-01 4.90419E-31
7.72320E-01 4.76877E-31
7.75968E-01 4.63546E-31
7.79596E-01 4.50432E-31
7.83203E-01 4.37540E-31
7.86788E-01 4.24874E-31
7.90351E-01 4.12438E-31
7.93893E-01 4.00236E-31
7.97411E-01 3.88269E-31
8.00908E-01 3.76539E-31
8.04381E-01 3.65049E-31
8.07831E-01 3.53799E-31
8.11257E-01 3.42790E-31
8.14660E-01 3.32022E-31
8.18039E-01 3.21496E-31
8.21394E-01 3.11210E-31
8.24724E-01 3.01163E-31
8.28030E-01 2.91355E-31
8.31310E-01 2.81784E-31
8.34565E-01 2.72449E-31
8.37795E-01 2.63346E-31
8.40999E-01 2.54475E-31
8.44177E-01 2.45832E-31
8.47329E-01 2.37415E-31
8.50455E-01 2.29221E-31
8.53553E-01 2.21248E-31
8.56625E-01 2.13491E-31
8.59670E-01 2.05948E-31
8.62687E-01 1.98616E-31
8.65677E-01 1.91490E-31
8.68639E-01 1.84567E-31
8.71572E-01 1.77844E-31
8.74478E-01 1.71317E-31
8.77355E-01 1.64982E-31
8.80203E-01 1.58835E-31
8.83022E-01 1.52873E-31
8.85812E-01 1.47091E-31
8.88573E-01 1.41486E-31
8.91304E-01 1.36054E-31
8.94005E-01 1.30790E-31
8.96677E-01 1.25692E-31
8.99318E-01 1.20754E-31
9.01928E-01 1.15974E-31
9.04508E-01 1.11347E-31
9.07058E-01 1.06869E-31
9.09576E-01 1.02538E-31
9.12063E-01 9.83481E-32
9.14519E-01 9.42968E-32
9.16943E-01 9.03802E-32
9.19335E-01 8.65947E-32
9.21696E-01 8.29368E-32
9.24024E-01 7.94029E-32
9.26320E-01 7.59897E-32
9.28584E-01 7.26937E-32
9.30815E-01 6.95116E-32
9.33013E-01 6.64403E-32
9.35178E-01 6.34764E-32
9.37310E-01 6.06170E-32
9.39409E-01 5.78588E-32
9.41474E-01 5.51990E-32
9.43505E-01 5.26346E-32
9.45503E-01 5.01628E-32
9.47467E-01 4.77808E-32
9.49397E-01 4.54858E-32
9.51293E-01 4.32752E-32
9.53154E-01 4.11465E-32
9.54981E-01 3.90970E-32
9.56773E-01 3.71245E-32
9.58530E-01 3.52265E-32
9.60252E-01 3.34006E-32
9.61940E-01 3.16447E-32
9.63592E-01 2.99565E-32
9.65209E-01 2.83340E-32
9.66790E-01 2.67751E-32
9.68336E-01 2.52778E-32
9.69846E-01 2.38402E-32
9.71321E-01 2.24604E-32
9.72759E-01 2.11367E-32
9.74162E-01 1.98672E-32
9.75528E-01 1.86503E-32
9.76858E-01 1.74845E-32
9.78152E-01 1.63680E-32
9.79410E-01 1.52995E-32
9.80631E-01 1.42774E-32
9.81815E-01 1.33004E-32
9.82963E-01 1.23671E-32
9.84074E-01 1.14762E-32
9.85148E-01 1.06265E-32
9.86185E-01 9.81684E-33
9.87185E-01 9.04601E-33
9.88148E-01 8.31297E-33
9.89074E-01 7.61667E-33
9.89962E-01 6.95610E-33
9.90814E-01 6.33035E-33
9.91627E-01 5.73849E-33
9.92404E-01 5.17969E-33
9.93143E-01 4.65313E-33
9.93844E-01 4.15805E-33
9.94508E-01 3.69373E-33
9.95134E-01 3.25949E-33
9.95722E-01 2.85469E-33
9.96273E-01 2.47874E-33
9.96786E-01 2.13108E-33
9.97261E-01 1.81122E-33
9.97698E-01 1.51866E-33
9.98097E-01 1.25297E-33
9.98459E-01 1.01377E-33
9.98782E-01 8.00702E-34
9.99067E-01 6.13441E-34
9.99315E-01 4.51709E-34
9.99524E-01 3.15265E-34
9.99695E-01 2.03907E-34
9.99829E-01 1.17467E-34
9.99924E-01 5.58168E-35
9.99981E-01 1.88636E-35
1.00000E+00 6.55797E-36
