 #
 # Subroutine ELSEPA. Elastic scattering of electrons and positrons
 #                    by neutral atoms and positive ions
 #
 # Projectile: electron
 # Kinetic energy = 2.00000E+06 eV = 7.34987E+04 a.u.
 #
 # WARNING: High-energy factorization with free-atom DF screening.
 #          Absorption, polarization and exchange corrections are
 #          switched off.
 #          Phase shifts are calculated for the bare nucleus.
 #          Scattering amplitudes are not evaluated.
 #
 # Element: Zn,  Z =  30,  atomic weight = 6.53900E+01 g/mol
 #
 # Nuclear model: Fermi distribution
 #                Average radius = 4.31076E-13 cm
 #                Skin thickness = 5.46000E-14 cm
 #
 # Number of electrons = 30
 #
 # Total elastic cross section = 2.06286E-18 cm**2 = 7.36661E-02 a0**2
 # 1st transport cross section = 2.09740E-22 cm**2 = 7.48995E-06 a0**2
 # 2nd transport cross section = 5.87493E-22 cm**2 = 2.09797E-05 a0**2
 #
 #
 # Differential cross section:                       MU=(1-COS(THETA))/2
 #
 #  THETA        MU          DCS          DCS        Sherman      error
 #  (deg)                 (cm**2/sr)   (a0**2/sr)    function
 #----------------------------------------------------------------------
0.00000E+00 8.75208E-14
7.61557E-13 8.75208E-14
1.18994E-12 8.75207E-14
1.71346E-12 8.75206E-14
2.33225E-12 8.75205E-14
3.04617E-12 8.75204E-14
3.85530E-12 8.75203E-14
4.75964E-12 8.75201E-14
5.75917E-12 8.75200E-14
6.85391E-12 8.75198E-14
8.04379E-12 8.75196E-14
9.32893E-12 8.75194E-14
1.07092E-11 8.75192E-14
1.21847E-11 8.75190E-14
1.37554E-11 8.75187E-14
1.54213E-11 8.75185E-14
1.71823E-11 8.75182E-14
1.90386E-11 8.75179E-14
2.09900E-11 8.75176E-14
2.30367E-11 8.75173E-14
2.51785E-11 8.75169E-14
2.74156E-11 8.75166E-14
2.97478E-11 8.75162E-14
3.21752E-11 8.75158E-14
3.46979E-11 8.75154E-14
3.73157E-11 8.75150E-14
4.00286E-11 8.75146E-14
4.28368E-11 8.75141E-14
4.57402E-11 8.75136E-14
4.87388E-11 8.75132E-14
5.18325E-11 8.75127E-14
5.50215E-11 8.75122E-14
5.83057E-11 8.75116E-14
6.16850E-11 8.75111E-14
6.51595E-11 8.75106E-14
6.87293E-11 8.75100E-14
7.23943E-11 8.75094E-14
7.61544E-11 8.75088E-14
1.18991E-10 8.75019E-14
1.71347E-10 8.74936E-14
2.33223E-10 8.74837E-14
3.04617E-10 8.74722E-14
3.85531E-10 8.74592E-14
4.75965E-10 8.74447E-14
5.75917E-10 8.74287E-14
6.85389E-10 8.74111E-14
8.04380E-10 8.73921E-14
9.32891E-10 8.73714E-14
1.07092E-09 8.73493E-14
1.21847E-09 8.73257E-14
1.37554E-09 8.73005E-14
1.54213E-09 8.72738E-14
1.71823E-09 8.72456E-14
1.90386E-09 8.72159E-14
2.09900E-09 8.71847E-14
2.30367E-09 8.71520E-14
2.51785E-09 8.71177E-14
2.74156E-09 8.70820E-14
2.97478E-09 8.70448E-14
3.21752E-09 8.70061E-14
3.46978E-09 8.69659E-14
3.73156E-09 8.69242E-14
4.00286E-09 8.68810E-14
4.28368E-09 8.68364E-14
4.57402E-09 8.67903E-14
4.87388E-09 8.67427E-14
5.18326E-09 8.66936E-14
5.50215E-09 8.66431E-14
5.83057E-09 8.65911E-14
6.16850E-09 8.65377E-14
6.51596E-09 8.64828E-14
6.87293E-09 8.64265E-14
7.23942E-09 8.63687E-14
7.61544E-09 8.63095E-14
1.18991E-08 8.56398E-14
1.71347E-08 8.48330E-14
2.33223E-08 8.38959E-14
3.04617E-08 8.28363E-14
3.85531E-08 8.16615E-14
4.75965E-08 8.03750E-14
5.75917E-08 7.90071E-14
6.85389E-08 7.75395E-14
8.04380E-08 7.60086E-14
9.32891E-08 7.44050E-14
1.07092E-07 7.27500E-14
1.21847E-07 7.10533E-14
1.37554E-07 6.93127E-14
1.54213E-07 6.75624E-14
1.71823E-07 6.57724E-14
1.90386E-07 6.39990E-14
2.09900E-07 6.21976E-14
2.30367E-07 6.04227E-14
2.51785E-07 5.86466E-14
2.74156E-07 5.68957E-14
2.97478E-07 5.51677E-14
3.21752E-07 5.34615E-14
3.46978E-07 5.17988E-14
3.73156E-07 5.01535E-14
4.00286E-07 4.85674E-14
4.28368E-07 4.69956E-14
4.57402E-07 4.54848E-14
4.87388E-07 4.40036E-14
5.18325E-07 4.25741E-14
5.50215E-07 4.11861E-14
5.83057E-07 3.98412E-14
6.16850E-07 3.85464E-14
6.51596E-07 3.72869E-14
6.87293E-07 3.60833E-14
7.23942E-07 3.49079E-14
7.61543E-07 3.37876E-14
1.18991E-06 2.46123E-14
1.71347E-06 1.83999E-14
2.33223E-06 1.41073E-14
3.04617E-06 1.10446E-14
3.85531E-06 8.76738E-15
4.75964E-06 6.96625E-15
5.75916E-06 5.71567E-15
6.85388E-06 4.63788E-15
8.04378E-06 3.82986E-15
9.32888E-06 3.16223E-15
1.07092E-05 2.62511E-15
1.21846E-05 2.19525E-15
1.37553E-05 1.83366E-15
1.54212E-05 1.54891E-15
1.71822E-05 1.30350E-15
1.90385E-05 1.10935E-15
2.09899E-05 9.42769E-16
2.30365E-05 8.07702E-16
2.51783E-05 6.93754E-16
2.74153E-05 5.98807E-16
2.97475E-05 5.19245E-16
3.21749E-05 4.51819E-16
3.46974E-05 3.95257E-16
3.73152E-05 3.46786E-16
4.00281E-05 3.05868E-16
4.28362E-05 2.70524E-16
4.57395E-05 2.40352E-16
4.87380E-05 2.14238E-16
5.18317E-05 1.91664E-16
5.50205E-05 1.72036E-16
5.83045E-05 1.54902E-16
6.16838E-05 1.39921E-16
6.51582E-05 1.26733E-16
6.87277E-05 1.15136E-16
7.23925E-05 1.04842E-16
7.61524E-05 9.57336E-17
9.21439E-05 6.80090E-17
1.09658E-04 4.97884E-17
1.28695E-04 3.73576E-17
1.49255E-04 2.86007E-17
1.71338E-04 2.22623E-17
1.94942E-04 1.75737E-17
2.20070E-04 1.40457E-17
2.46720E-04 1.13511E-17
2.74892E-04 9.26547E-18
3.04586E-04 7.63129E-18
3.35803E-04 6.33765E-18
3.68542E-04 5.30398E-18
4.02802E-04 4.46864E-18
4.38585E-04 3.79230E-18
4.75889E-04 3.23885E-18
5.14715E-04 2.78161E-18
5.55063E-04 2.40285E-18
5.96931E-04 2.08551E-18
6.40321E-04 1.81951E-18
6.85233E-04 1.59411E-18
7.31665E-04 1.40294E-18
7.79618E-04 1.23950E-18
8.29092E-04 1.09932E-18
8.80086E-04 9.78478E-19
9.32601E-04 8.73850E-19
9.86636E-04 7.82946E-19
1.04219E-03 7.03566E-19
1.09927E-03 6.34109E-19
1.15786E-03 5.72992E-19
1.21797E-03 5.19153E-19
1.27961E-03 4.71491E-19
1.34276E-03 4.29227E-19
1.40743E-03 3.91607E-19
1.47362E-03 3.58042E-19
1.54133E-03 3.28021E-19
1.61056E-03 3.01087E-19
1.68131E-03 2.76890E-19
1.75357E-03 2.55068E-19
1.82735E-03 2.35380E-19
1.90265E-03 2.17549E-19
1.97947E-03 2.01392E-19
2.05780E-03 1.86708E-19
2.13765E-03 1.73345E-19
2.21902E-03 1.61162E-19
2.30190E-03 1.50031E-19
2.38630E-03 1.39853E-19
2.47222E-03 1.30521E-19
2.55965E-03 1.21963E-19
2.64859E-03 1.14090E-19
2.73905E-03 1.06850E-19
2.83103E-03 1.00173E-19
2.92452E-03 9.40127E-20
3.01952E-03 8.83199E-20
3.11604E-03 8.30519E-20
3.21407E-03 7.81735E-20
3.31362E-03 7.36467E-20
3.41468E-03 6.94465E-20
3.51725E-03 6.55390E-20
3.62133E-03 6.19056E-20
3.72692E-03 5.85195E-20
3.83403E-03 5.53632E-20
3.94265E-03 5.24170E-20
4.05278E-03 4.96647E-20
4.16442E-03 4.70915E-20
4.27757E-03 4.46824E-20
4.39223E-03 4.24268E-20
4.50840E-03 4.03109E-20
4.62608E-03 3.83265E-20
4.74527E-03 3.64623E-20
4.86597E-03 3.47108E-20
4.98817E-03 3.30633E-20
5.11188E-03 3.15126E-20
5.23711E-03 3.00521E-20
5.36383E-03 2.86752E-20
5.49207E-03 2.73769E-20
5.62181E-03 2.61509E-20
5.75306E-03 2.49934E-20
5.88581E-03 2.38990E-20
6.02007E-03 2.28643E-20
6.15583E-03 2.18849E-20
6.29310E-03 2.09577E-20
6.43187E-03 2.00792E-20
6.57214E-03 1.92463E-20
6.71392E-03 1.84564E-20
6.85720E-03 1.77065E-20
7.00198E-03 1.69947E-20
7.14827E-03 1.63182E-20
7.29605E-03 1.56752E-20
7.44534E-03 1.50637E-20
7.59612E-03 1.44818E-20
7.97965E-03 1.31457E-20
8.37255E-03 1.19607E-20
8.77480E-03 1.09066E-20
9.18641E-03 9.96649E-21
9.60736E-03 9.12589E-21
1.00376E-02 8.37239E-21
1.04773E-02 7.69536E-21
1.09262E-02 7.08567E-21
1.13844E-02 6.53541E-21
1.18520E-02 6.03776E-21
1.23288E-02 5.58678E-21
1.28150E-02 5.17730E-21
1.33104E-02 4.80482E-21
1.38150E-02 4.46540E-21
1.43290E-02 4.15556E-21
1.48521E-02 3.87226E-21
1.53845E-02 3.61281E-21
1.59262E-02 3.37483E-21
1.64770E-02 3.15623E-21
1.70371E-02 2.95513E-21
1.76063E-02 2.76987E-21
1.81848E-02 2.59898E-21
1.87724E-02 2.44114E-21
1.93692E-02 2.29516E-21
1.99751E-02 2.16000E-21
2.05901E-02 2.03469E-21
2.12143E-02 1.91839E-21
2.18476E-02 1.81033E-21
2.24900E-02 1.70981E-21
2.31415E-02 1.61621E-21
2.38021E-02 1.52897E-21
2.44717E-02 1.44756E-21
2.51504E-02 1.37154E-21
2.58382E-02 1.30047E-21
2.65349E-02 1.23397E-21
2.72407E-02 1.17170E-21
2.79555E-02 1.11332E-21
2.86793E-02 1.05856E-21
2.94120E-02 1.00714E-21
3.01537E-02 9.58832E-22
3.09043E-02 9.13399E-22
3.16639E-02 8.70642E-22
3.24324E-02 8.30372E-22
3.32098E-02 7.92419E-22
3.39961E-02 7.56622E-22
3.47912E-02 7.22836E-22
3.55952E-02 6.90927E-22
3.64081E-02 6.60770E-22
3.72297E-02 6.32250E-22
3.80602E-02 6.05262E-22
3.88995E-02 5.79707E-22
3.97476E-02 5.55496E-22
4.06044E-02 5.32542E-22
4.14700E-02 5.10769E-22
4.23443E-02 4.90104E-22
4.32273E-02 4.70480E-22
4.41190E-02 4.51835E-22
4.50194E-02 4.34109E-22
4.59284E-02 4.17250E-22
4.68461E-02 4.01205E-22
4.87074E-02 3.71378E-22
5.06030E-02 3.44286E-22
5.25328E-02 3.19634E-22
5.44967E-02 2.97161E-22
5.64946E-02 2.76639E-22
5.85262E-02 2.57867E-22
6.05914E-02 2.40669E-22
6.26901E-02 2.24887E-22
6.48222E-02 2.10385E-22
6.69873E-02 1.97038E-22
6.91854E-02 1.84737E-22
7.14163E-02 1.73386E-22
7.36799E-02 1.62897E-22
7.59760E-02 1.53192E-22
7.83043E-02 1.44202E-22
8.06647E-02 1.35864E-22
8.30571E-02 1.28122E-22
8.54812E-02 1.20926E-22
8.79369E-02 1.14229E-22
9.04240E-02 1.07991E-22
9.29422E-02 1.02173E-22
9.54915E-02 9.67432E-23
9.80716E-02 9.16697E-23
1.00682E-01 8.69251E-23
1.03323E-01 8.24838E-23
1.05995E-01 7.83229E-23
1.08696E-01 7.44212E-23
1.11427E-01 7.07595E-23
1.14188E-01 6.73203E-23
1.16978E-01 6.40874E-23
1.19797E-01 6.10462E-23
1.22645E-01 5.81830E-23
1.25522E-01 5.54855E-23
1.28428E-01 5.29422E-23
1.31361E-01 5.05427E-23
1.34323E-01 4.82772E-23
1.37313E-01 4.61369E-23
1.40330E-01 4.41134E-23
1.43375E-01 4.21993E-23
1.46447E-01 4.03874E-23
1.49545E-01 3.86713E-23
1.52671E-01 3.70448E-23
1.55823E-01 3.55025E-23
1.59001E-01 3.40392E-23
1.62205E-01 3.26499E-23
1.65435E-01 3.13303E-23
1.68690E-01 3.00762E-23
1.71970E-01 2.88838E-23
1.75276E-01 2.77493E-23
1.78606E-01 2.66694E-23
1.81961E-01 2.56411E-23
1.85340E-01 2.46613E-23
1.88743E-01 2.37274E-23
1.92169E-01 2.28367E-23
1.95619E-01 2.19870E-23
1.99092E-01 2.11759E-23
2.02589E-01 2.04014E-23
2.06107E-01 1.96614E-23
2.09649E-01 1.89542E-23
2.13212E-01 1.82781E-23
2.16797E-01 1.76313E-23
2.20404E-01 1.70124E-23
2.24032E-01 1.64200E-23
2.27680E-01 1.58527E-23
2.31350E-01 1.53092E-23
2.35040E-01 1.47883E-23
2.38751E-01 1.42890E-23
2.42481E-01 1.38101E-23
2.46231E-01 1.33507E-23
2.50000E-01 1.29098E-23
2.53788E-01 1.24865E-23
2.57595E-01 1.20800E-23
2.61421E-01 1.16895E-23
2.65264E-01 1.13143E-23
2.69126E-01 1.09536E-23
2.73005E-01 1.06067E-23
2.76901E-01 1.02731E-23
2.80814E-01 9.95215E-24
2.84744E-01 9.64324E-24
2.88691E-01 9.34586E-24
2.92653E-01 9.05948E-24
2.96632E-01 8.78364E-24
3.00625E-01 8.51786E-24
3.04634E-01 8.26171E-24
3.08658E-01 8.01478E-24
3.12697E-01 7.77667E-24
3.16749E-01 7.54700E-24
3.20816E-01 7.32543E-24
3.24896E-01 7.11160E-24
3.28990E-01 6.90521E-24
3.33097E-01 6.70593E-24
3.37216E-01 6.51349E-24
3.41348E-01 6.32760E-24
3.45492E-01 6.14800E-24
3.49647E-01 5.97443E-24
3.53814E-01 5.80666E-24
3.57992E-01 5.64445E-24
3.62181E-01 5.48759E-24
3.66381E-01 5.33587E-24
3.70590E-01 5.18908E-24
3.74810E-01 5.04704E-24
3.79039E-01 4.90957E-24
3.83277E-01 4.77648E-24
3.87524E-01 4.64762E-24
3.91780E-01 4.52283E-24
3.96044E-01 4.40195E-24
4.00316E-01 4.28483E-24
4.04596E-01 4.17135E-24
4.08882E-01 4.06137E-24
4.13176E-01 3.95475E-24
4.17476E-01 3.85138E-24
4.21783E-01 3.75114E-24
4.26095E-01 3.65391E-24
4.30413E-01 3.55960E-24
4.34737E-01 3.46810E-24
4.39065E-01 3.37930E-24
4.43398E-01 3.29312E-24
4.47736E-01 3.20946E-24
4.52077E-01 3.12824E-24
4.56422E-01 3.04937E-24
4.60770E-01 2.97277E-24
4.65122E-01 2.89836E-24
4.69476E-01 2.82608E-24
4.73832E-01 2.75584E-24
4.78190E-01 2.68759E-24
4.82550E-01 2.62125E-24
4.86912E-01 2.55677E-24
4.91274E-01 2.49407E-24
4.95637E-01 2.43311E-24
5.00000E-01 2.37382E-24
5.04363E-01 2.31616E-24
5.08726E-01 2.26006E-24
5.13088E-01 2.20549E-24
5.17450E-01 2.15239E-24
5.21810E-01 2.10071E-24
5.26168E-01 2.05041E-24
5.30524E-01 2.00145E-24
5.34878E-01 1.95378E-24
5.39230E-01 1.90737E-24
5.43578E-01 1.86218E-24
5.47923E-01 1.81816E-24
5.52264E-01 1.77529E-24
5.56602E-01 1.73353E-24
5.60935E-01 1.69284E-24
5.65263E-01 1.65319E-24
5.69587E-01 1.61456E-24
5.73905E-01 1.57690E-24
5.78217E-01 1.54020E-24
5.82524E-01 1.50443E-24
5.86824E-01 1.46955E-24
5.91118E-01 1.43554E-24
5.95404E-01 1.40238E-24
5.99684E-01 1.37004E-24
6.03956E-01 1.33849E-24
6.08220E-01 1.30773E-24
6.12476E-01 1.27771E-24
6.16723E-01 1.24843E-24
6.20961E-01 1.21986E-24
6.25190E-01 1.19198E-24
6.29410E-01 1.16477E-24
6.33619E-01 1.13821E-24
6.37819E-01 1.11229E-24
6.42008E-01 1.08698E-24
6.46186E-01 1.06228E-24
6.50353E-01 1.03816E-24
6.54508E-01 1.01461E-24
6.58652E-01 9.91612E-25
6.62784E-01 9.69152E-25
6.66903E-01 9.47216E-25
6.71010E-01 9.25790E-25
6.75104E-01 9.04860E-25
6.79184E-01 8.84413E-25
6.83251E-01 8.64436E-25
6.87303E-01 8.44917E-25
6.91342E-01 8.25845E-25
6.95366E-01 8.07207E-25
6.99375E-01 7.88993E-25
7.03368E-01 7.71191E-25
7.07347E-01 7.53791E-25
7.11309E-01 7.36783E-25
7.15256E-01 7.20157E-25
7.19186E-01 7.03903E-25
7.23099E-01 6.88012E-25
7.26995E-01 6.72474E-25
7.30874E-01 6.57282E-25
7.34736E-01 6.42426E-25
7.38579E-01 6.27898E-25
7.42405E-01 6.13690E-25
7.46212E-01 5.99795E-25
7.50000E-01 5.86204E-25
7.53769E-01 5.72910E-25
7.57519E-01 5.59906E-25
7.61249E-01 5.47186E-25
7.64960E-01 5.34742E-25
7.68650E-01 5.22568E-25
7.72320E-01 5.10657E-25
7.75968E-01 4.99004E-25
7.79596E-01 4.87602E-25
7.83203E-01 4.76445E-25
7.86788E-01 4.65528E-25
7.90351E-01 4.54845E-25
7.93893E-01 4.44390E-25
7.97411E-01 4.34160E-25
8.00908E-01 4.24148E-25
8.04381E-01 4.14349E-25
8.07831E-01 4.04759E-25
8.11257E-01 3.95373E-25
8.14660E-01 3.86186E-25
8.18039E-01 3.77195E-25
8.21394E-01 3.68394E-25
8.24724E-01 3.59780E-25
8.28030E-01 3.51348E-25
8.31310E-01 3.43095E-25
8.34565E-01 3.35016E-25
8.37795E-01 3.27108E-25
8.40999E-01 3.19368E-25
8.44177E-01 3.11791E-25
8.47329E-01 3.04374E-25
8.50455E-01 2.97115E-25
8.53553E-01 2.90008E-25
8.56625E-01 2.83052E-25
8.59670E-01 2.76244E-25
8.62687E-01 2.69579E-25
8.65677E-01 2.63056E-25
8.68639E-01 2.56671E-25
8.71572E-01 2.50422E-25
8.74478E-01 2.44305E-25
8.77355E-01 2.38319E-25
8.80203E-01 2.32461E-25
8.83022E-01 2.26728E-25
8.85812E-01 2.21117E-25
8.88573E-01 2.15627E-25
8.91304E-01 2.10254E-25
8.94005E-01 2.04998E-25
8.96677E-01 1.99855E-25
8.99318E-01 1.94823E-25
9.01928E-01 1.89901E-25
9.04508E-01 1.85086E-25
9.07058E-01 1.80377E-25
9.09576E-01 1.75770E-25
9.12063E-01 1.71266E-25
9.14519E-01 1.66861E-25
9.16943E-01 1.62554E-25
9.19335E-01 1.58343E-25
9.21696E-01 1.54226E-25
9.24024E-01 1.50203E-25
9.26320E-01 1.46271E-25
9.28584E-01 1.42428E-25
9.30815E-01 1.38674E-25
9.33013E-01 1.35006E-25
9.35178E-01 1.31424E-25
9.37310E-01 1.27926E-25
9.39409E-01 1.24510E-25
9.41474E-01 1.21176E-25
9.43505E-01 1.17921E-25
9.45503E-01 1.14745E-25
9.47467E-01 1.11647E-25
9.49397E-01 1.08625E-25
9.51293E-01 1.05678E-25
9.53154E-01 1.02805E-25
9.54981E-01 1.00005E-25
9.56773E-01 9.72775E-26
9.58530E-01 9.46206E-26
9.60252E-01 9.20335E-26
9.61940E-01 8.95155E-26
9.63592E-01 8.70654E-26
9.65209E-01 8.46825E-26
9.66790E-01 8.23658E-26
9.68336E-01 8.01146E-26
9.69846E-01 7.79279E-26
9.71321E-01 7.58049E-26
9.72759E-01 7.37450E-26
9.74162E-01 7.17473E-26
9.75528E-01 6.98111E-26
9.76858E-01 6.79357E-26
9.78152E-01 6.61205E-26
9.79410E-01 6.43648E-26
9.80631E-01 6.26679E-26
9.81815E-01 6.10293E-26
9.82963E-01 5.94483E-26
9.84074E-01 5.79245E-26
9.85148E-01 5.64572E-26
9.86185E-01 5.50460E-26
9.87185E-01 5.36902E-26
9.88148E-01 5.23896E-26
9.89074E-01 5.11435E-26
9.89962E-01 4.99516E-26
9.90814E-01 4.88135E-26
9.91627E-01 4.77286E-26
9.92404E-01 4.66968E-26
9.93143E-01 4.57175E-26
9.93844E-01 4.47905E-26
9.94508E-01 4.39153E-26
9.95134E-01 4.30919E-26
9.95722E-01 4.23197E-26
9.96273E-01 4.15986E-26
9.96786E-01 4.09284E-26
9.97261E-01 4.03087E-26
9.97698E-01 3.97393E-26
9.98097E-01 3.92202E-26
9.98459E-01 3.87510E-26
9.98782E-01 3.83316E-26
9.99067E-01 3.79619E-26
9.99315E-01 3.76418E-26
9.99524E-01 3.73711E-26
9.99695E-01 3.71498E-26
9.99829E-01 3.69777E-26
9.99924E-01 3.68548E-26
9.99981E-01 3.67811E-26
1.00000E+00 3.67565E-26
