 #
 # Subroutine ELSEPA. Elastic scattering of electrons and positrons
 #                    by neutral atoms and positive ions
 #
 # Projectile: electron
 # Kinetic energy = 3.50000E+07 eV = 1.28623E+06 a.u.
 #
 # WARNING: High-energy factorization with free-atom DF screening.
 #          Absorption, polarization and exchange corrections are
 #          switched off.
 #          Phase shifts are calculated for the bare nucleus.
 #          Scattering amplitudes are not evaluated.
 #
 # Element: Zn,  Z =  30,  atomic weight = 6.53900E+01 g/mol
 #
 # Nuclear model: Fermi distribution
 #                Average radius = 4.31076E-13 cm
 #                Skin thickness = 5.46000E-14 cm
 #
 # Number of electrons = 30
 #
 # Total elastic cross section = 1.97425E-18 cm**2 = 7.05017E-02 a0**2
 # 1st transport cross section = 1.40764E-24 cm**2 = 5.02676E-08 a0**2
 # 2nd transport cross section = 4.08814E-24 cm**2 = 1.45990E-07 a0**2
 #
 #
 # Differential cross section:                       MU=(1-COS(THETA))/2
 #
 #  THETA        MU          DCS          DCS        Sherman      error
 #  (deg)                 (cm**2/sr)   (a0**2/sr)    function
 #----------------------------------------------------------------------
0.00000E+00 1.75043E-11
7.61557E-13 1.74991E-11
1.18994E-12 1.74962E-11
1.71346E-12 1.74927E-11
2.33225E-12 1.74885E-11
3.04617E-12 1.74837E-11
3.85530E-12 1.74783E-11
4.75964E-12 1.74722E-11
5.75917E-12 1.74655E-11
6.85391E-12 1.74581E-11
8.04379E-12 1.74501E-11
9.32893E-12 1.74415E-11
1.07092E-11 1.74323E-11
1.21847E-11 1.74224E-11
1.37554E-11 1.74119E-11
1.54213E-11 1.74008E-11
1.71823E-11 1.73891E-11
1.90386E-11 1.73767E-11
2.09900E-11 1.73638E-11
2.30367E-11 1.73502E-11
2.51785E-11 1.73360E-11
2.74156E-11 1.73212E-11
2.97478E-11 1.73058E-11
3.21752E-11 1.72897E-11
3.46979E-11 1.72731E-11
3.73157E-11 1.72559E-11
4.00286E-11 1.72381E-11
4.28368E-11 1.72197E-11
4.57402E-11 1.72007E-11
4.87388E-11 1.71811E-11
5.18325E-11 1.71609E-11
5.50215E-11 1.71402E-11
5.83057E-11 1.71189E-11
6.16850E-11 1.70970E-11
6.51595E-11 1.70746E-11
6.87293E-11 1.70515E-11
7.23943E-11 1.70280E-11
7.61544E-11 1.70038E-11
1.18991E-10 1.67330E-11
1.71347E-10 1.64119E-11
2.33223E-10 1.60439E-11
3.04617E-10 1.56388E-11
3.85531E-10 1.52000E-11
4.75965E-10 1.47327E-11
5.75917E-10 1.42473E-11
6.85389E-10 1.37443E-11
8.04380E-10 1.32317E-11
9.32891E-10 1.27179E-11
1.07092E-09 1.21999E-11
1.21847E-09 1.16878E-11
1.37554E-09 1.11864E-11
1.54213E-09 1.06901E-11
1.71823E-09 1.02098E-11
1.90386E-09 9.74590E-12
2.09900E-09 9.29482E-12
2.30367E-09 8.86372E-12
2.51785E-09 8.45074E-12
2.74156E-09 8.05436E-12
2.97478E-09 7.67854E-12
3.21752E-09 7.32026E-12
3.46978E-09 6.97944E-12
3.73156E-09 6.65779E-12
4.00286E-09 6.35185E-12
4.28368E-09 6.06248E-12
4.57402E-09 5.79003E-12
4.87388E-09 5.53095E-12
5.18326E-09 5.28673E-12
5.50215E-09 5.05694E-12
5.83057E-09 4.83812E-12
6.16850E-09 4.63223E-12
6.51596E-09 4.43805E-12
6.87293E-09 4.25337E-12
7.23942E-09 4.07942E-12
7.61544E-09 3.91482E-12
1.18991E-08 2.66609E-12
1.71347E-08 1.89174E-12
2.33223E-08 1.35965E-12
3.04617E-08 1.01677E-12
3.85531E-08 7.65020E-13
4.75965E-08 5.80105E-13
5.75917E-08 4.47656E-13
6.85389E-08 3.45892E-13
8.04380E-08 2.70119E-13
9.32891E-08 2.13589E-13
1.07092E-07 1.69533E-13
1.21847E-07 1.36113E-13
1.37554E-07 1.10417E-13
1.54213E-07 9.01261E-14
1.71823E-07 7.43310E-14
1.90386E-07 6.18347E-14
2.09900E-07 5.18228E-14
2.30367E-07 4.37958E-14
2.51785E-07 3.72823E-14
2.74156E-07 3.19519E-14
2.97478E-07 2.75675E-14
3.21752E-07 2.39260E-14
3.46978E-07 2.08806E-14
3.73156E-07 1.83204E-14
4.00286E-07 1.61487E-14
4.28368E-07 1.42978E-14
4.57402E-07 1.27132E-14
4.87388E-07 1.13426E-14
5.18325E-07 1.01562E-14
5.50215E-07 9.12529E-15
5.83057E-07 8.22083E-15
6.16850E-07 7.42829E-15
6.51596E-07 6.73044E-15
6.87293E-07 6.11135E-15
7.23942E-07 5.56298E-15
7.61543E-07 5.07466E-15
1.18991E-06 2.22568E-15
1.71347E-06 1.11353E-15
2.33223E-06 6.13258E-16
3.04617E-06 3.64363E-16
3.85531E-06 2.29767E-16
4.75964E-06 1.52065E-16
5.75916E-06 1.04668E-16
6.85388E-06 7.44230E-17
8.04378E-06 5.43813E-17
9.32888E-06 4.06626E-17
1.07092E-05 3.10162E-17
1.21846E-05 2.40703E-17
1.37553E-05 1.89642E-17
1.54212E-05 1.51435E-17
1.71822E-05 1.22375E-17
1.90385E-05 9.99528E-18
2.09899E-05 8.24512E-18
2.30365E-05 6.86100E-18
2.51783E-05 5.75497E-18
2.74153E-05 4.86256E-18
2.97475E-05 4.13626E-18
3.21749E-05 3.54052E-18
3.46974E-05 3.04818E-18
3.73152E-05 2.63853E-18
4.00281E-05 2.29545E-18
4.28362E-05 2.00633E-18
4.57395E-05 1.76129E-18
4.87380E-05 1.55249E-18
5.18317E-05 1.37368E-18
5.50205E-05 1.21985E-18
5.83045E-05 1.08694E-18
6.16838E-05 9.71635E-19
6.51582E-05 8.71228E-19
6.87277E-05 7.83464E-19
7.23925E-05 7.06482E-19
7.61524E-05 6.38744E-19
9.21439E-05 4.36928E-19
1.09658E-04 3.08874E-19
1.28695E-04 2.24491E-19
1.49255E-04 1.67052E-19
1.71338E-04 1.26872E-19
1.94942E-04 9.80806E-20
2.20070E-04 7.70160E-20
2.46720E-04 6.13178E-20
2.74892E-04 4.94249E-20
3.04586E-04 4.02829E-20
3.35803E-04 3.31613E-20
3.68542E-04 2.75475E-20
4.02802E-04 2.30739E-20
4.38585E-04 1.94734E-20
4.75889E-04 1.65493E-20
5.14715E-04 1.41545E-20
5.55063E-04 1.21781E-20
5.96931E-04 1.05353E-20
6.40321E-04 9.16072E-21
6.85233E-04 8.00347E-21
7.31665E-04 7.02353E-21
7.79618E-04 6.18929E-21
8.29092E-04 5.47547E-21
8.80086E-04 4.86181E-21
9.32601E-04 4.33188E-21
9.86636E-04 3.87232E-21
1.04219E-03 3.47222E-21
1.09927E-03 3.12256E-21
1.15786E-03 2.81591E-21
1.21797E-03 2.54605E-21
1.27961E-03 2.30781E-21
1.34276E-03 2.09684E-21
1.40743E-03 1.90949E-21
1.47362E-03 1.74263E-21
1.54133E-03 1.59365E-21
1.61056E-03 1.46028E-21
1.68131E-03 1.34060E-21
1.75357E-03 1.23296E-21
1.82735E-03 1.13593E-21
1.90265E-03 1.04828E-21
1.97947E-03 9.68937E-22
2.05780E-03 8.96979E-22
2.13765E-03 8.31593E-22
2.21902E-03 7.72071E-22
2.30190E-03 7.17791E-22
2.38630E-03 6.68210E-22
2.47222E-03 6.22846E-22
2.55965E-03 5.81276E-22
2.64859E-03 5.43125E-22
2.73905E-03 5.08060E-22
2.83103E-03 4.75787E-22
2.92452E-03 4.46042E-22
3.01952E-03 4.18591E-22
3.11604E-03 3.93225E-22
3.21407E-03 3.69756E-22
3.31362E-03 3.48017E-22
3.41468E-03 3.27856E-22
3.51725E-03 3.09137E-22
3.62133E-03 2.91739E-22
3.72692E-03 2.75551E-22
3.83403E-03 2.60473E-22
3.94265E-03 2.46416E-22
4.05278E-03 2.33296E-22
4.16442E-03 2.21040E-22
4.27757E-03 2.09581E-22
4.39223E-03 1.98857E-22
4.50840E-03 1.88811E-22
4.62608E-03 1.79394E-22
4.74527E-03 1.70558E-22
4.86597E-03 1.62261E-22
4.98817E-03 1.54464E-22
5.11188E-03 1.47131E-22
5.23711E-03 1.40229E-22
5.36383E-03 1.33728E-22
5.49207E-03 1.27600E-22
5.62181E-03 1.21821E-22
5.75306E-03 1.16366E-22
5.88581E-03 1.11213E-22
6.02007E-03 1.06344E-22
6.15583E-03 1.01738E-22
6.29310E-03 9.73805E-23
6.43187E-03 9.32540E-23
6.57214E-03 8.93445E-23
6.71392E-03 8.56382E-23
6.85720E-03 8.21225E-23
7.00198E-03 7.87860E-23
7.14827E-03 7.56177E-23
7.29605E-03 7.26075E-23
7.44534E-03 6.97459E-23
7.59612E-03 6.70242E-23
7.97965E-03 6.07807E-23
8.37255E-03 5.52490E-23
8.77480E-03 5.03340E-23
9.18641E-03 4.59549E-23
9.60736E-03 4.20429E-23
1.00376E-02 3.85393E-23
1.04773E-02 3.53941E-23
1.09262E-02 3.25639E-23
1.13844E-02 3.00116E-23
1.18520E-02 2.77051E-23
1.23288E-02 2.56164E-23
1.28150E-02 2.37212E-23
1.33104E-02 2.19984E-23
1.38150E-02 2.04294E-23
1.43290E-02 1.89981E-23
1.48521E-02 1.76902E-23
1.53845E-02 1.64931E-23
1.59262E-02 1.53956E-23
1.64770E-02 1.43881E-23
1.70371E-02 1.34617E-23
1.76063E-02 1.26088E-23
1.81848E-02 1.18224E-23
1.87724E-02 1.10965E-23
1.93692E-02 1.04254E-23
1.99751E-02 9.80433E-24
2.05901E-02 9.22883E-24
2.12143E-02 8.69496E-24
2.18476E-02 8.19913E-24
2.24900E-02 7.73814E-24
2.31415E-02 7.30909E-24
2.38021E-02 6.90935E-24
2.44717E-02 6.53655E-24
2.51504E-02 6.18853E-24
2.58382E-02 5.86334E-24
2.65349E-02 5.55921E-24
2.72407E-02 5.27452E-24
2.79555E-02 5.00779E-24
2.86793E-02 4.75767E-24
2.94120E-02 4.52295E-24
3.01537E-02 4.30249E-24
3.09043E-02 4.09527E-24
3.16639E-02 3.90034E-24
3.24324E-02 3.71683E-24
3.32098E-02 3.54396E-24
3.39961E-02 3.38099E-24
3.47912E-02 3.22725E-24
3.55952E-02 3.08211E-24
3.64081E-02 2.94501E-24
3.72297E-02 2.81541E-24
3.80602E-02 2.69283E-24
3.88995E-02 2.57682E-24
3.97476E-02 2.46696E-24
4.06044E-02 2.36286E-24
4.14700E-02 2.26416E-24
4.23443E-02 2.17053E-24
4.32273E-02 2.08166E-24
4.41190E-02 1.99726E-24
4.50194E-02 1.91706E-24
4.59284E-02 1.84083E-24
4.68461E-02 1.76832E-24
4.87074E-02 1.63361E-24
5.06030E-02 1.51140E-24
5.25328E-02 1.40030E-24
5.44967E-02 1.29914E-24
5.64946E-02 1.20686E-24
5.85262E-02 1.12255E-24
6.05914E-02 1.04539E-24
6.26901E-02 9.74675E-25
6.48222E-02 9.09765E-25
6.69873E-02 8.50100E-25
6.91854E-02 7.95180E-25
7.14163E-02 7.44561E-25
7.36799E-02 6.97846E-25
7.59760E-02 6.54681E-25
7.83043E-02 6.14747E-25
8.06647E-02 5.77760E-25
8.30571E-02 5.43463E-25
8.54812E-02 5.11626E-25
8.79369E-02 4.82041E-25
9.04240E-02 4.54520E-25
9.29422E-02 4.28894E-25
9.54915E-02 4.05010E-25
9.80716E-02 3.82727E-25
1.00682E-01 3.61920E-25
1.03323E-01 3.42474E-25
1.05995E-01 3.24283E-25
1.08696E-01 3.07253E-25
1.11427E-01 2.91296E-25
1.14188E-01 2.76333E-25
1.16978E-01 2.62291E-25
1.19797E-01 2.49104E-25
1.22645E-01 2.36710E-25
1.25522E-01 2.25053E-25
1.28428E-01 2.14081E-25
1.31361E-01 2.03749E-25
1.34323E-01 1.94011E-25
1.37313E-01 1.84827E-25
1.40330E-01 1.76162E-25
1.43375E-01 1.67979E-25
1.46447E-01 1.60248E-25
1.49545E-01 1.52940E-25
1.52671E-01 1.46028E-25
1.55823E-01 1.39485E-25
1.59001E-01 1.33290E-25
1.62205E-01 1.27421E-25
1.65435E-01 1.21857E-25
1.68690E-01 1.16580E-25
1.71970E-01 1.11573E-25
1.75276E-01 1.06819E-25
1.78606E-01 1.02304E-25
1.81961E-01 9.80139E-26
1.85340E-01 9.39350E-26
1.88743E-01 9.00556E-26
1.92169E-01 8.63641E-26
1.95619E-01 8.28501E-26
1.99092E-01 7.95036E-26
2.02589E-01 7.63153E-26
2.06107E-01 7.32764E-26
2.09649E-01 7.03789E-26
2.13212E-01 6.76150E-26
2.16797E-01 6.49777E-26
2.20404E-01 6.24601E-26
2.24032E-01 6.00561E-26
2.27680E-01 5.77596E-26
2.31350E-01 5.55650E-26
2.35040E-01 5.34671E-26
2.38751E-01 5.14610E-26
2.42481E-01 4.95421E-26
2.46231E-01 4.77058E-26
2.50000E-01 4.59482E-26
2.53788E-01 4.42654E-26
2.57595E-01 4.26535E-26
2.61421E-01 4.11093E-26
2.65264E-01 3.96294E-26
2.69126E-01 3.82107E-26
2.73005E-01 3.68503E-26
2.76901E-01 3.55454E-26
2.80814E-01 3.42935E-26
2.84744E-01 3.30920E-26
2.88691E-01 3.19387E-26
2.92653E-01 3.08313E-26
2.96632E-01 2.97676E-26
3.00625E-01 2.87458E-26
3.04634E-01 2.77639E-26
3.08658E-01 2.68202E-26
3.12697E-01 2.59128E-26
3.16749E-01 2.50404E-26
3.20816E-01 2.42012E-26
3.24896E-01 2.33938E-26
3.28990E-01 2.26169E-26
3.33097E-01 2.18692E-26
3.37216E-01 2.11493E-26
3.41348E-01 2.04562E-26
3.45492E-01 1.97887E-26
3.49647E-01 1.91456E-26
3.53814E-01 1.85260E-26
3.57992E-01 1.79289E-26
3.62181E-01 1.73534E-26
3.66381E-01 1.67986E-26
3.70590E-01 1.62636E-26
3.74810E-01 1.57477E-26
3.79039E-01 1.52500E-26
3.83277E-01 1.47699E-26
3.87524E-01 1.43066E-26
3.91780E-01 1.38594E-26
3.96044E-01 1.34278E-26
4.00316E-01 1.30111E-26
4.04596E-01 1.26087E-26
4.08882E-01 1.22201E-26
4.13176E-01 1.18447E-26
4.17476E-01 1.14821E-26
4.21783E-01 1.11317E-26
4.26095E-01 1.07931E-26
4.30413E-01 1.04658E-26
4.34737E-01 1.01494E-26
4.39065E-01 9.84356E-27
4.43398E-01 9.54780E-27
4.47736E-01 9.26176E-27
4.52077E-01 8.98509E-27
4.56422E-01 8.71746E-27
4.60770E-01 8.45851E-27
4.65122E-01 8.20795E-27
4.69476E-01 7.96546E-27
4.73832E-01 7.73076E-27
4.78190E-01 7.50356E-27
4.82550E-01 7.28360E-27
4.86912E-01 7.07062E-27
4.91274E-01 6.86437E-27
4.95637E-01 6.66462E-27
5.00000E-01 6.47113E-27
5.04363E-01 6.28369E-27
5.08726E-01 6.10208E-27
5.13088E-01 5.92611E-27
5.17450E-01 5.75559E-27
5.21810E-01 5.59031E-27
5.26168E-01 5.43011E-27
5.30524E-01 5.27481E-27
5.34878E-01 5.12424E-27
5.39230E-01 4.97825E-27
5.43578E-01 4.83668E-27
5.47923E-01 4.69938E-27
5.52264E-01 4.56621E-27
5.56602E-01 4.43704E-27
5.60935E-01 4.31172E-27
5.65263E-01 4.19014E-27
5.69587E-01 4.07217E-27
5.73905E-01 3.95768E-27
5.78217E-01 3.84658E-27
5.82524E-01 3.73875E-27
5.86824E-01 3.63408E-27
5.91118E-01 3.53247E-27
5.95404E-01 3.43382E-27
5.99684E-01 3.33804E-27
6.03956E-01 3.24503E-27
6.08220E-01 3.15471E-27
6.12476E-01 3.06700E-27
6.16723E-01 2.98180E-27
6.20961E-01 2.89905E-27
6.25190E-01 2.81866E-27
6.29410E-01 2.74057E-27
6.33619E-01 2.66469E-27
6.37819E-01 2.59096E-27
6.42008E-01 2.51932E-27
6.46186E-01 2.44969E-27
6.50353E-01 2.38203E-27
6.54508E-01 2.31626E-27
6.58652E-01 2.25234E-27
6.62784E-01 2.19019E-27
6.66903E-01 2.12978E-27
6.71010E-01 2.07105E-27
6.75104E-01 2.01394E-27
6.79184E-01 1.95841E-27
6.83251E-01 1.90441E-27
6.87303E-01 1.85190E-27
6.91342E-01 1.80083E-27
6.95366E-01 1.75116E-27
6.99375E-01 1.70284E-27
7.03368E-01 1.65585E-27
7.07347E-01 1.61013E-27
7.11309E-01 1.56565E-27
7.15256E-01 1.52238E-27
7.19186E-01 1.48027E-27
7.23099E-01 1.43931E-27
7.26995E-01 1.39944E-27
7.30874E-01 1.36065E-27
7.34736E-01 1.32290E-27
7.38579E-01 1.28616E-27
7.42405E-01 1.25040E-27
7.46212E-01 1.21559E-27
7.50000E-01 1.18171E-27
7.53769E-01 1.14873E-27
7.57519E-01 1.11663E-27
7.61249E-01 1.08537E-27
7.64960E-01 1.05495E-27
7.68650E-01 1.02532E-27
7.72320E-01 9.96476E-28
7.75968E-01 9.68390E-28
7.79596E-01 9.41043E-28
7.83203E-01 9.14412E-28
7.86788E-01 8.88479E-28
7.90351E-01 8.63224E-28
7.93893E-01 8.38629E-28
7.97411E-01 8.14676E-28
8.00908E-01 7.91346E-28
8.04381E-01 7.68623E-28
8.07831E-01 7.46491E-28
8.11257E-01 7.24934E-28
8.14660E-01 7.03936E-28
8.18039E-01 6.83481E-28
8.21394E-01 6.63556E-28
8.24724E-01 6.44146E-28
8.28030E-01 6.25238E-28
8.31310E-01 6.06817E-28
8.34565E-01 5.88872E-28
8.37795E-01 5.71389E-28
8.40999E-01 5.54357E-28
8.44177E-01 5.37763E-28
8.47329E-01 5.21596E-28
8.50455E-01 5.05845E-28
8.53553E-01 4.90499E-28
8.56625E-01 4.75548E-28
8.59670E-01 4.60980E-28
8.62687E-01 4.46788E-28
8.65677E-01 4.32960E-28
8.68639E-01 4.19487E-28
8.71572E-01 4.06361E-28
8.74478E-01 3.93572E-28
8.77355E-01 3.81112E-28
8.80203E-01 3.68973E-28
8.83022E-01 3.57146E-28
8.85812E-01 3.45624E-28
8.88573E-01 3.34399E-28
8.91304E-01 3.23464E-28
8.94005E-01 3.12812E-28
8.96677E-01 3.02435E-28
8.99318E-01 2.92327E-28
9.01928E-01 2.82481E-28
9.04508E-01 2.72891E-28
9.07058E-01 2.63550E-28
9.09576E-01 2.54453E-28
9.12063E-01 2.45594E-28
9.14519E-01 2.36968E-28
9.16943E-01 2.28567E-28
9.19335E-01 2.20388E-28
9.21696E-01 2.12425E-28
9.24024E-01 2.04673E-28
9.26320E-01 1.97127E-28
9.28584E-01 1.89782E-28
9.30815E-01 1.82634E-28
9.33013E-01 1.75678E-28
9.35178E-01 1.68910E-28
9.37310E-01 1.62325E-28
9.39409E-01 1.55920E-28
9.41474E-01 1.49691E-28
9.43505E-01 1.43633E-28
9.45503E-01 1.37743E-28
9.47467E-01 1.32017E-28
9.49397E-01 1.26453E-28
9.51293E-01 1.21045E-28
9.53154E-01 1.15791E-28
9.54981E-01 1.10688E-28
9.56773E-01 1.05733E-28
9.58530E-01 1.00923E-28
9.60252E-01 9.62540E-29
9.61940E-01 9.17240E-29
9.63592E-01 8.73303E-29
9.65209E-01 8.30700E-29
9.66790E-01 7.89406E-29
9.68336E-01 7.49396E-29
9.69846E-01 7.10647E-29
9.71321E-01 6.73134E-29
9.72759E-01 6.36836E-29
9.74162E-01 6.01730E-29
9.75528E-01 5.67796E-29
9.76858E-01 5.35014E-29
9.78152E-01 5.03363E-29
9.79410E-01 4.72826E-29
9.80631E-01 4.43383E-29
9.81815E-01 4.15018E-29
9.82963E-01 3.87714E-29
9.84074E-01 3.61454E-29
9.85148E-01 3.36223E-29
9.86185E-01 3.12006E-29
9.87185E-01 2.88789E-29
9.88148E-01 2.66559E-29
9.89074E-01 2.45301E-29
9.89962E-01 2.25004E-29
9.90814E-01 2.05656E-29
9.91627E-01 1.87245E-29
9.92404E-01 1.69761E-29
9.93143E-01 1.53193E-29
9.93844E-01 1.37532E-29
9.94508E-01 1.22768E-29
9.95134E-01 1.08894E-29
9.95722E-01 9.59001E-30
9.96273E-01 8.37796E-30
9.96786E-01 7.25254E-30
9.97261E-01 6.21308E-30
9.97698E-01 5.25899E-30
9.98097E-01 4.38970E-30
9.98459E-01 3.60472E-30
9.98782E-01 2.90358E-30
9.99067E-01 2.28589E-30
9.99315E-01 1.75127E-30
9.99524E-01 1.29943E-30
9.99695E-01 9.30098E-31
9.99829E-01 6.43062E-31
9.99924E-01 4.38154E-31
9.99981E-01 3.15257E-31
1.00000E+00 2.74296E-31
