 #
 # Subroutine ELSEPA. Elastic scattering of electrons and positrons
 #                    by neutral atoms and positive ions
 #
 # Projectile: positron
 # Kinetic energy = 3.50000E+08 eV = 1.28623E+07 a.u.
 #
 # WARNING: High-energy factorization with free-atom DF screening.
 #          Absorption, polarization and exchange corrections are
 #          switched off.
 #          Phase shifts are calculated for the bare nucleus.
 #          Scattering amplitudes are not evaluated.
 #
 # Element:  I,  Z =  53,  atomic weight = 1.26904E+02 g/mol
 #
 # Nuclear model: Fermi distribution
 #                Average radius = 5.37703E-13 cm
 #                Skin thickness = 5.46000E-14 cm
 #
 # Number of electrons = 53
 #
 # Total elastic cross section = 5.70390E-18 cm**2 = 2.03690E-01 a0**2
 # 1st transport cross section = 4.44465E-26 cm**2 = 1.58721E-09 a0**2
 # 2nd transport cross section = 1.33229E-25 cm**2 = 4.75770E-09 a0**2
 #
 #
 # Differential cross section:                       MU=(1-COS(THETA))/2
 #
 #  THETA        MU          DCS          DCS        Sherman      error
 #  (deg)                 (cm**2/sr)   (a0**2/sr)    function
 #----------------------------------------------------------------------
0.00000E+00 5.42161E-09
7.61557E-13 5.30135E-09
1.18994E-12 5.23551E-09
1.71346E-12 5.15671E-09
2.33225E-12 5.06512E-09
3.04617E-12 4.96360E-09
3.85530E-12 4.85141E-09
4.75964E-12 4.73050E-09
5.75917E-12 4.60345E-09
6.85391E-12 4.46799E-09
8.04379E-12 4.32852E-09
9.32893E-12 4.18616E-09
1.07092E-11 4.03883E-09
1.21847E-11 3.89150E-09
1.37554E-11 3.74341E-09
1.54213E-11 3.59437E-09
1.71823E-11 3.44811E-09
1.90386E-11 3.30247E-09
2.09900E-11 3.15925E-09
2.30367E-11 3.02059E-09
2.51785E-11 2.88339E-09
2.74156E-11 2.75097E-09
2.97478E-11 2.62368E-09
3.21752E-11 2.49893E-09
3.46979E-11 2.38000E-09
3.73157E-11 2.26585E-09
4.00286E-11 2.15561E-09
4.28368E-11 2.05108E-09
4.57402E-11 1.95082E-09
4.87388E-11 1.85512E-09
5.18325E-11 1.76469E-09
5.50215E-11 1.67800E-09
5.83057E-11 1.59594E-09
6.16850E-11 1.51857E-09
6.51595E-11 1.44444E-09
6.87293E-11 1.37468E-09
7.23943E-11 1.30875E-09
7.61544E-11 1.24602E-09
1.18991E-10 7.81590E-10
1.71347E-10 5.14775E-10
2.33223E-10 3.51735E-10
3.04617E-10 2.53079E-10
3.85531E-10 1.85331E-10
4.75965E-10 1.38758E-10
5.75917E-10 1.06191E-10
6.85389E-10 8.15337E-11
8.04380E-10 6.37174E-11
9.32891E-10 5.04313E-11
1.07092E-09 4.02411E-11
1.21847E-09 3.25660E-11
1.37554E-09 2.66333E-11
1.54213E-09 2.20057E-11
1.71823E-09 1.83832E-11
1.90386E-09 1.54925E-11
2.09900E-09 1.31703E-11
2.30367E-09 1.12906E-11
2.51785E-09 9.73997E-12
2.74156E-09 8.45831E-12
2.97478E-09 7.39022E-12
3.21752E-09 6.48341E-12
3.46978E-09 5.71694E-12
3.73156E-09 5.06174E-12
4.00286E-09 4.49548E-12
4.28368E-09 4.00835E-12
4.57402E-09 3.58416E-12
4.87388E-09 3.21244E-12
5.18326E-09 2.88781E-12
5.50215E-09 2.60094E-12
5.83057E-09 2.34861E-12
6.16850E-09 2.12629E-12
6.51596E-09 1.92793E-12
6.87293E-09 1.75233E-12
7.23942E-09 1.59598E-12
7.61544E-09 1.45587E-12
1.18991E-08 6.37868E-13
1.71347E-08 3.21607E-13
2.33223E-08 1.79805E-13
3.04617E-08 1.08505E-13
3.85531E-08 6.93396E-14
4.75965E-08 4.63535E-14
5.75917E-08 3.21169E-14
6.85389E-08 2.29403E-14
8.04380E-08 1.68078E-14
9.32891E-08 1.25890E-14
1.07092E-07 9.61232E-15
1.21847E-07 7.46356E-15
1.37554E-07 5.88277E-15
1.54213E-07 4.69881E-15
1.71823E-07 3.79823E-15
1.90386E-07 3.10352E-15
2.09900E-07 2.56060E-15
2.30367E-07 2.13149E-15
2.51785E-07 1.78865E-15
2.74156E-07 1.51210E-15
2.97478E-07 1.28704E-15
3.21752E-07 1.10235E-15
3.46978E-07 9.49662E-16
3.73156E-07 8.22527E-16
4.00286E-07 7.15985E-16
4.28368E-07 6.26157E-16
4.57402E-07 5.49985E-16
4.87388E-07 4.85057E-16
5.18325E-07 4.29433E-16
5.50215E-07 3.81560E-16
5.83057E-07 3.40175E-16
6.16850E-07 3.04251E-16
6.51596E-07 2.72946E-16
6.87293E-07 2.45564E-16
7.23942E-07 2.21530E-16
7.61543E-07 2.00365E-16
1.18991E-06 8.25895E-17
1.71347E-06 3.99760E-17
2.33223E-06 2.16263E-17
3.04617E-06 1.26947E-17
3.85531E-06 7.93245E-18
4.75964E-06 5.20755E-18
5.75916E-06 3.55820E-18
6.85388E-06 2.51294E-18
8.04378E-06 1.82473E-18
9.32888E-06 1.35673E-18
1.07092E-05 1.02956E-18
1.21846E-05 7.95306E-19
1.37553E-05 6.24024E-19
1.54212E-05 4.96456E-19
1.71822E-05 3.99872E-19
1.90385E-05 3.25571E-19
2.09899E-05 2.67920E-19
2.30365E-05 2.22460E-19
2.51783E-05 1.86211E-19
2.74153E-05 1.57026E-19
2.97475E-05 1.33327E-19
3.21749E-05 1.13932E-19
3.46974E-05 9.79428E-20
3.73152E-05 8.46697E-20
4.00281E-05 7.35754E-20
4.28362E-05 6.42425E-20
4.57395E-05 5.63425E-20
4.87380E-05 4.96182E-20
5.18317E-05 4.38647E-20
5.50205E-05 3.89196E-20
5.83045E-05 3.46509E-20
6.16838E-05 3.09517E-20
6.51582E-05 2.77336E-20
6.87277E-05 2.49238E-20
7.23925E-05 2.24613E-20
7.61524E-05 2.03510E-20
9.21439E-05 1.38931E-20
1.09658E-04 9.80327E-21
1.28695E-04 7.11293E-21
1.49255E-04 5.28393E-21
1.71338E-04 4.00624E-21
1.94942E-04 3.09162E-21
2.20070E-04 2.42321E-21
2.46720E-04 1.92563E-21
2.74892E-04 1.54905E-21
3.04586E-04 1.25990E-21
3.35803E-04 1.03489E-21
3.68542E-04 8.57718E-22
4.02802E-04 7.16693E-22
4.38585E-04 6.03326E-22
4.75889E-04 5.11370E-22
5.14715E-04 4.36155E-22
5.55063E-04 3.74165E-22
5.96931E-04 3.22708E-22
6.40321E-04 2.79715E-22
6.85233E-04 2.43574E-22
7.31665E-04 2.13018E-22
7.79618E-04 1.87048E-22
8.29092E-04 1.64864E-22
8.80086E-04 1.45826E-22
9.32601E-04 1.29415E-22
9.86636E-04 1.15212E-22
1.04219E-03 1.02870E-22
1.09927E-03 9.21059E-23
1.15786E-03 8.26857E-23
1.21797E-03 7.44140E-23
1.27961E-03 6.71281E-23
1.34276E-03 6.06914E-23
1.40743E-03 5.49887E-23
1.47362E-03 4.99228E-23
1.54133E-03 4.54110E-23
1.61056E-03 4.13829E-23
1.68131E-03 3.77781E-23
1.75357E-03 3.45450E-23
1.82735E-03 3.16390E-23
1.90265E-03 2.90218E-23
1.97947E-03 2.66599E-23
2.05780E-03 2.45245E-23
2.13765E-03 2.25904E-23
2.21902E-03 2.08356E-23
2.30190E-03 1.92408E-23
2.38630E-03 1.77890E-23
2.47222E-03 1.64655E-23
2.55965E-03 1.52571E-23
2.64859E-03 1.41522E-23
2.73905E-03 1.31406E-23
2.83103E-03 1.22132E-23
2.92452E-03 1.13618E-23
3.01952E-03 1.05794E-23
3.11604E-03 9.85933E-24
3.21407E-03 9.19600E-24
3.31362E-03 8.58422E-24
3.41468E-03 8.01939E-24
3.51725E-03 7.49735E-24
3.62133E-03 7.01439E-24
3.72692E-03 6.56714E-24
3.83403E-03 6.15257E-24
3.94265E-03 5.76794E-24
4.05278E-03 5.41078E-24
4.16442E-03 5.07884E-24
4.27757E-03 4.77008E-24
4.39223E-03 4.48266E-24
4.50840E-03 4.21489E-24
4.62608E-03 3.96523E-24
4.74527E-03 3.73229E-24
4.86597E-03 3.51480E-24
4.98817E-03 3.31160E-24
5.11188E-03 3.12160E-24
5.23711E-03 2.94385E-24
5.36383E-03 2.77745E-24
5.49207E-03 2.62157E-24
5.62181E-03 2.47546E-24
5.75306E-03 2.33844E-24
5.88581E-03 2.20985E-24
6.02007E-03 2.08913E-24
6.15583E-03 1.97572E-24
6.29310E-03 1.86913E-24
6.43187E-03 1.76889E-24
6.57214E-03 1.67459E-24
6.71392E-03 1.58582E-24
6.85720E-03 1.50223E-24
7.00198E-03 1.42347E-24
7.14827E-03 1.34924E-24
7.29605E-03 1.27924E-24
7.44534E-03 1.21321E-24
7.59612E-03 1.15090E-24
7.97965E-03 1.00987E-24
8.37255E-03 8.87452E-25
8.77480E-03 7.80945E-25
9.18641E-03 6.88092E-25
9.60736E-03 6.06987E-25
1.00376E-02 5.36016E-25
1.04773E-02 4.73808E-25
1.09262E-02 4.19196E-25
1.13844E-02 3.71182E-25
1.18520E-02 3.28911E-25
1.23288E-02 2.91650E-25
1.28150E-02 2.58766E-25
1.33104E-02 2.29713E-25
1.38150E-02 2.04019E-25
1.43290E-02 1.81275E-25
1.48521E-02 1.61125E-25
1.53845E-02 1.43259E-25
1.59262E-02 1.27406E-25
1.64770E-02 1.13331E-25
1.70371E-02 1.00827E-25
1.76063E-02 8.97131E-26
1.81848E-02 7.98297E-26
1.87724E-02 7.10372E-26
1.93692E-02 6.32124E-26
1.99751E-02 5.62466E-26
2.05901E-02 5.00441E-26
2.12143E-02 4.45200E-26
2.18476E-02 3.95995E-26
2.24900E-02 3.52161E-26
2.31415E-02 3.13110E-26
2.38021E-02 2.78320E-26
2.44717E-02 2.47327E-26
2.51504E-02 2.19718E-26
2.58382E-02 1.95128E-26
2.65349E-02 1.73229E-26
2.72407E-02 1.53731E-26
2.79555E-02 1.36375E-26
2.86793E-02 1.20930E-26
2.94120E-02 1.07190E-26
3.01537E-02 9.49719E-27
3.09043E-02 8.41108E-27
3.16639E-02 7.44605E-27
3.24324E-02 6.58900E-27
3.32098E-02 5.82824E-27
3.39961E-02 5.15332E-27
3.47912E-02 4.55491E-27
3.55952E-02 4.02465E-27
3.64081E-02 3.55509E-27
3.72297E-02 3.13957E-27
3.80602E-02 2.77212E-27
3.88995E-02 2.44741E-27
3.97476E-02 2.16070E-27
4.06044E-02 1.90774E-27
4.14700E-02 1.68472E-27
4.23443E-02 1.48827E-27
4.32273E-02 1.31535E-27
4.41190E-02 1.16328E-27
4.50194E-02 1.02965E-27
4.59284E-02 9.12313E-28
4.68461E-02 8.09367E-28
4.87074E-02 6.40042E-28
5.06030E-02 5.10225E-28
5.25328E-02 4.10892E-28
5.44967E-02 3.34952E-28
5.64946E-02 2.76859E-28
5.85262E-02 2.32297E-28
6.05914E-02 1.97924E-28
6.26901E-02 1.71172E-28
6.48222E-02 1.50080E-28
6.69873E-02 1.33163E-28
6.91854E-02 1.19311E-28
7.14163E-02 1.07699E-28
7.36799E-02 9.77250E-29
7.59760E-02 8.89557E-29
7.83043E-02 8.10849E-29
8.06647E-02 7.39009E-29
8.30571E-02 6.72616E-29
8.54812E-02 6.10745E-29
8.79369E-02 5.52822E-29
9.04240E-02 4.98508E-29
9.29422E-02 4.47617E-29
9.54915E-02 4.00052E-29
9.80716E-02 3.55767E-29
1.00682E-01 3.14732E-29
1.03323E-01 2.76912E-29
1.05995E-01 2.42262E-29
1.08696E-01 2.10712E-29
1.11427E-01 1.82170E-29
1.14188E-01 1.56521E-29
1.16978E-01 1.33629E-29
1.19797E-01 1.13339E-29
1.22645E-01 9.54852E-30
1.25522E-01 7.98891E-30
1.28428E-01 6.63686E-30
1.31361E-01 5.47394E-30
1.34323E-01 4.48186E-30
1.37313E-01 3.64279E-30
1.40330E-01 2.93958E-30
1.43375E-01 2.35594E-30
1.46447E-01 1.87662E-30
1.49545E-01 1.48744E-30
1.52671E-01 1.17541E-30
1.55823E-01 9.28760E-31
1.59001E-01 7.36878E-31
1.62205E-01 5.90343E-31
1.65435E-01 4.80852E-31
1.68690E-01 4.01172E-31
1.71970E-01 3.45063E-31
1.75276E-01 3.07208E-31
1.78606E-01 2.83125E-31
1.81961E-01 2.69091E-31
1.85340E-01 2.62058E-31
1.88743E-01 2.59571E-31
1.92169E-01 2.59694E-31
1.95619E-01 2.60938E-31
1.99092E-01 2.62192E-31
2.02589E-01 2.62666E-31
2.06107E-01 2.61831E-31
2.09649E-01 2.59373E-31
2.13212E-01 2.55149E-31
2.16797E-01 2.49146E-31
2.20404E-01 2.41452E-31
2.24032E-01 2.32225E-31
2.27680E-01 2.21670E-31
2.31350E-01 2.10024E-31
2.35040E-01 1.97532E-31
2.38751E-01 1.84444E-31
2.42481E-01 1.70998E-31
2.46231E-01 1.57419E-31
2.50000E-01 1.43909E-31
2.53788E-01 1.30648E-31
2.57595E-01 1.17787E-31
2.61421E-01 1.05457E-31
2.65264E-01 9.37571E-32
2.69126E-01 8.27667E-32
2.73005E-01 7.25403E-32
2.76901E-01 6.31123E-32
2.80814E-01 5.44985E-32
2.84744E-01 4.66986E-32
2.88691E-01 3.96988E-32
2.92653E-01 3.34737E-32
2.96632E-01 2.79888E-32
3.00625E-01 2.32025E-32
3.04634E-01 1.90679E-32
3.08658E-01 1.55349E-32
3.12697E-01 1.25510E-32
3.16749E-01 1.00633E-32
3.20816E-01 8.01907E-33
3.24896E-01 6.36713E-33
3.28990E-01 5.05820E-33
3.33097E-01 4.04566E-33
3.37216E-01 3.28597E-33
3.41348E-01 2.73888E-33
3.45492E-01 2.36770E-33
3.49647E-01 2.13932E-33
3.53814E-01 2.02421E-33
3.57992E-01 1.99637E-33
3.62181E-01 2.03316E-33
3.66381E-01 2.11517E-33
3.70590E-01 2.22598E-33
3.74810E-01 2.35194E-33
3.79039E-01 2.48192E-33
3.83277E-01 2.60708E-33
3.87524E-01 2.72060E-33
3.91780E-01 2.81745E-33
3.96044E-01 2.89416E-33
4.00316E-01 2.94855E-33
4.04596E-01 2.97958E-33
4.08882E-01 2.98712E-33
4.13176E-01 2.97179E-33
4.17476E-01 2.93480E-33
4.21783E-01 2.87779E-33
4.26095E-01 2.80271E-33
4.30413E-01 2.71175E-33
4.34737E-01 2.60718E-33
4.39065E-01 2.49136E-33
4.43398E-01 2.36657E-33
4.47736E-01 2.23506E-33
4.52077E-01 2.09893E-33
4.56422E-01 1.96016E-33
4.60770E-01 1.82054E-33
4.65122E-01 1.68171E-33
4.69476E-01 1.54508E-33
4.73832E-01 1.41190E-33
4.78190E-01 1.28321E-33
4.82550E-01 1.15988E-33
4.86912E-01 1.04260E-33
4.91274E-01 9.31902E-34
4.95637E-01 8.28155E-34
5.00000E-01 7.31601E-34
5.04363E-01 6.42359E-34
5.08726E-01 5.60434E-34
5.13088E-01 4.85743E-34
5.17450E-01 4.18118E-34
5.21810E-01 3.57325E-34
5.26168E-01 3.03078E-34
5.30524E-01 2.55042E-34
5.34878E-01 2.12855E-34
5.39230E-01 1.76130E-34
5.43578E-01 1.44464E-34
5.47923E-01 1.17450E-34
5.52264E-01 9.46791E-35
5.56602E-01 7.57481E-35
5.60935E-01 6.02643E-35
5.65263E-01 4.78490E-35
5.69587E-01 3.81405E-35
5.73905E-01 3.07968E-35
5.78217E-01 2.54973E-35
5.82524E-01 2.19442E-35
5.86824E-01 1.98625E-35
5.91118E-01 1.90010E-35
5.95404E-01 1.91319E-35
5.99684E-01 2.00506E-35
6.03956E-01 2.15741E-35
6.08220E-01 2.35414E-35
6.12476E-01 2.58116E-35
6.16723E-01 2.82628E-35
6.20961E-01 3.07912E-35
6.25190E-01 3.33091E-35
6.29410E-01 3.57448E-35
6.33619E-01 3.80385E-35
6.37819E-01 4.01452E-35
6.42008E-01 4.20289E-35
6.46186E-01 4.36652E-35
6.50353E-01 4.50368E-35
6.54508E-01 4.61350E-35
6.58652E-01 4.69569E-35
6.62784E-01 4.75053E-35
6.66903E-01 4.77875E-35
6.71010E-01 4.78141E-35
6.75104E-01 4.75996E-35
6.79184E-01 4.71595E-35
6.83251E-01 4.65121E-35
6.87303E-01 4.56758E-35
6.91342E-01 4.46707E-35
6.95366E-01 4.35160E-35
6.99375E-01 4.22318E-35
7.03368E-01 4.08373E-35
7.07347E-01 3.93518E-35
7.11309E-01 3.77925E-35
7.15256E-01 3.61770E-35
7.19186E-01 3.45207E-35
7.23099E-01 3.28391E-35
7.26995E-01 3.11455E-35
7.30874E-01 2.94523E-35
7.34736E-01 2.77707E-35
7.38579E-01 2.61107E-35
7.42405E-01 2.44814E-35
7.46212E-01 2.28897E-35
7.50000E-01 2.13430E-35
7.53769E-01 1.98464E-35
7.57519E-01 1.84045E-35
7.61249E-01 1.70208E-35
7.64960E-01 1.56983E-35
7.68650E-01 1.44387E-35
7.72320E-01 1.32435E-35
7.75968E-01 1.21133E-35
7.79596E-01 1.10483E-35
7.83203E-01 1.00479E-35
7.86788E-01 9.11123E-36
7.90351E-01 8.23713E-36
7.93893E-01 7.42399E-36
7.97411E-01 6.66991E-36
8.00908E-01 5.97296E-36
8.04381E-01 5.33077E-36
8.07831E-01 4.74093E-36
8.11257E-01 4.20099E-36
8.14660E-01 3.70831E-36
8.18039E-01 3.26041E-36
8.21394E-01 2.85458E-36
8.24724E-01 2.48821E-36
8.28030E-01 2.15874E-36
8.31310E-01 1.86361E-36
8.34565E-01 1.60041E-36
8.37795E-01 1.36669E-36
8.40999E-01 1.16017E-36
8.44177E-01 9.78602E-37
8.47329E-01 8.19894E-37
8.50455E-01 6.82026E-37
8.53553E-01 5.63080E-37
8.56625E-01 4.61265E-37
8.59670E-01 3.74881E-37
8.62687E-01 3.02346E-37
8.65677E-01 2.42182E-37
8.68639E-01 1.93016E-37
8.71572E-01 1.53570E-37
8.74478E-01 1.22671E-37
8.77355E-01 9.92426E-38
8.80203E-01 8.22908E-38
8.83022E-01 7.09164E-38
8.85812E-01 6.43002E-38
8.88573E-01 6.16880E-38
8.91304E-01 6.24222E-38
8.94005E-01 6.58986E-38
8.96677E-01 7.15969E-38
8.99318E-01 7.89768E-38
9.01928E-01 8.77089E-38
9.04508E-01 9.73459E-38
9.07058E-01 1.07605E-37
9.09576E-01 1.18174E-37
9.12063E-01 1.28846E-37
9.14519E-01 1.39383E-37
9.16943E-01 1.49633E-37
9.19335E-01 1.59463E-37
9.21696E-01 1.68699E-37
9.24024E-01 1.77322E-37
9.26320E-01 1.85226E-37
9.28584E-01 1.92314E-37
9.30815E-01 1.98632E-37
9.33013E-01 2.04070E-37
9.35178E-01 2.08709E-37
9.37310E-01 2.12457E-37
9.39409E-01 2.15384E-37
9.41474E-01 2.17479E-37
9.43505E-01 2.18762E-37
9.45503E-01 2.19300E-37
9.47467E-01 2.19085E-37
9.49397E-01 2.18182E-37
9.51293E-01 2.16610E-37
9.53154E-01 2.14434E-37
9.54981E-01 2.11670E-37
9.56773E-01 2.08383E-37
9.58530E-01 2.04598E-37
9.60252E-01 2.00371E-37
9.61940E-01 1.95756E-37
9.63592E-01 1.90788E-37
9.65209E-01 1.85500E-37
9.66790E-01 1.79937E-37
9.68336E-01 1.74131E-37
9.69846E-01 1.68129E-37
9.71321E-01 1.61979E-37
9.72759E-01 1.55672E-37
9.74162E-01 1.49286E-37
9.75528E-01 1.42820E-37
9.76858E-01 1.36307E-37
9.78152E-01 1.29809E-37
9.79410E-01 1.23324E-37
9.80631E-01 1.16857E-37
9.81815E-01 1.10438E-37
9.82963E-01 1.04111E-37
9.84074E-01 9.78857E-38
9.85148E-01 9.17542E-38
9.86185E-01 8.57315E-38
9.87185E-01 7.98690E-38
9.88148E-01 7.41553E-38
9.89074E-01 6.85971E-38
9.89962E-01 6.32230E-38
9.90814E-01 5.80255E-38
9.91627E-01 5.30212E-38
9.92404E-01 4.82225E-38
9.93143E-01 4.36064E-38
9.93844E-01 3.92337E-38
9.94508E-01 3.50555E-38
9.95134E-01 3.10995E-38
9.95722E-01 2.73830E-38
9.96273E-01 2.38785E-38
9.96786E-01 2.06116E-38
9.97261E-01 1.75793E-38
9.97698E-01 1.47882E-38
9.98097E-01 1.22383E-38
9.98459E-01 9.91584E-39
9.98782E-01 7.84855E-39
9.99067E-01 6.00986E-39
9.99315E-01 4.42355E-39
9.99524E-01 3.07637E-39
9.99695E-01 1.97543E-39
9.99829E-01 1.11562E-39
9.99924E-01 5.08412E-40
9.99981E-01 1.38235E-40
1.00000E+00 1.49108E-41
