 #
 # Subroutine ELSEPA. Elastic scattering of electrons and positrons
 #                    by neutral atoms and positive ions
 #
 # Projectile: positron
 # Kinetic energy = 4.00000E+08 eV = 1.46997E+07 a.u.
 #
 # WARNING: High-energy factorization with free-atom DF screening.
 #          Absorption, polarization and exchange corrections are
 #          switched off.
 #          Phase shifts are calculated for the bare nucleus.
 #          Scattering amplitudes are not evaluated.
 #
 # Element:  I,  Z =  53,  atomic weight = 1.26904E+02 g/mol
 #
 # Nuclear model: Fermi distribution
 #                Average radius = 5.37703E-13 cm
 #                Skin thickness = 5.46000E-14 cm
 #
 # Number of electrons = 53
 #
 # Total elastic cross section = 5.70388E-18 cm**2 = 2.03689E-01 a0**2
 # 1st transport cross section = 3.40661E-26 cm**2 = 1.21652E-09 a0**2
 # 2nd transport cross section = 1.02134E-25 cm**2 = 3.64726E-09 a0**2
 #
 #
 # Differential cross section:                       MU=(1-COS(THETA))/2
 #
 #  THETA        MU          DCS          DCS        Sherman      error
 #  (deg)                 (cm**2/sr)   (a0**2/sr)    function
 #----------------------------------------------------------------------
0.00000E+00 7.07871E-09
7.61557E-13 6.87478E-09
1.18994E-12 6.76400E-09
1.71346E-12 6.63135E-09
2.33225E-12 6.48090E-09
3.04617E-12 6.31294E-09
3.85530E-12 6.12977E-09
4.75964E-12 5.93525E-09
5.75917E-12 5.73214E-09
6.85391E-12 5.51897E-09
8.04379E-12 5.30117E-09
9.32893E-12 5.08150E-09
1.07092E-11 4.86111E-09
1.21847E-11 4.63883E-09
1.37554E-11 4.42003E-09
1.54213E-11 4.20600E-09
1.71823E-11 3.99577E-09
1.90386E-11 3.79034E-09
2.09900E-11 3.59254E-09
2.30367E-11 3.40276E-09
2.51785E-11 3.21881E-09
2.74156E-11 3.04304E-09
2.97478E-11 2.87612E-09
3.21752E-11 2.71771E-09
3.46979E-11 2.56593E-09
3.73157E-11 2.42284E-09
4.00286E-11 2.28808E-09
4.28368E-11 2.16069E-09
4.57402E-11 2.04019E-09
4.87388E-11 1.92719E-09
5.18325E-11 1.82124E-09
5.50215E-11 1.72128E-09
5.83057E-11 1.62744E-09
6.16850E-11 1.53965E-09
6.51595E-11 1.45749E-09
6.87293E-11 1.37999E-09
7.23943E-11 1.30752E-09
7.61544E-11 1.23974E-09
1.18991E-10 7.53764E-10
1.71347E-10 4.83526E-10
2.33223E-10 3.30595E-10
3.04617E-10 2.32467E-10
3.85531E-10 1.67372E-10
4.75965E-10 1.23416E-10
5.75917E-10 9.26773E-11
6.85389E-10 7.02758E-11
8.04380E-10 5.42409E-11
9.32891E-10 4.25457E-11
1.07092E-09 3.38505E-11
1.21847E-09 2.72807E-11
1.37554E-09 2.22882E-11
1.54213E-09 1.84321E-11
1.71823E-09 1.54021E-11
1.90386E-09 1.29894E-11
2.09900E-09 1.10503E-11
2.30367E-09 9.47335E-12
2.51785E-09 8.16868E-12
2.74156E-09 7.08427E-12
2.97478E-09 6.17690E-12
3.21752E-09 5.41104E-12
3.46978E-09 4.75665E-12
3.73156E-09 4.19699E-12
4.00286E-09 3.71605E-12
4.28368E-09 3.30030E-12
4.57402E-09 2.93919E-12
4.87388E-09 2.62580E-12
5.18326E-09 2.35266E-12
5.50215E-09 2.11282E-12
5.83057E-09 1.90212E-12
6.16850E-09 1.71676E-12
6.51596E-09 1.55314E-12
6.87293E-09 1.40775E-12
7.23942E-09 1.27886E-12
7.61544E-09 1.16430E-12
1.18991E-08 5.04903E-13
1.71347E-08 2.53982E-13
2.33223E-08 1.41769E-13
3.04617E-08 8.53139E-14
3.85531E-08 5.43440E-14
4.75965E-08 3.62059E-14
5.75917E-08 2.50217E-14
6.85389E-08 1.78287E-14
8.04380E-08 1.30386E-14
9.32891E-08 9.75206E-15
1.07092E-07 7.43784E-15
1.21847E-07 5.77081E-15
1.37554E-07 4.54569E-15
1.54213E-07 3.62909E-15
1.71823E-07 2.93242E-15
1.90386E-07 2.39529E-15
2.09900E-07 1.97579E-15
2.30367E-07 1.64430E-15
2.51785E-07 1.37954E-15
2.74156E-07 1.16602E-15
2.97478E-07 9.92275E-16
3.21752E-07 8.49735E-16
3.46978E-07 7.31904E-16
3.73156E-07 6.33813E-16
4.00286E-07 5.51619E-16
4.28368E-07 4.82326E-16
4.57402E-07 4.23579E-16
4.87388E-07 3.73510E-16
5.18325E-07 3.30623E-16
5.50215E-07 2.93716E-16
5.83057E-07 2.61817E-16
6.16850E-07 2.34130E-16
6.51596E-07 2.10007E-16
6.87293E-07 1.88911E-16
7.23942E-07 1.70396E-16
7.61543E-07 1.54095E-16
1.18991E-06 6.34414E-17
1.71347E-06 3.06827E-17
2.33223E-06 1.65897E-17
3.04617E-06 9.73462E-18
3.85531E-06 6.08118E-18
4.75964E-06 3.99147E-18
5.75916E-06 2.72689E-18
6.85388E-06 1.92564E-18
8.04378E-06 1.39816E-18
9.32888E-06 1.03950E-18
1.07092E-05 7.88789E-19
1.21846E-05 6.09290E-19
1.37553E-05 4.78054E-19
1.54212E-05 3.80315E-19
1.71822E-05 3.06320E-19
1.90385E-05 2.49396E-19
2.09899E-05 2.05231E-19
2.30365E-05 1.70405E-19
2.51783E-05 1.42637E-19
2.74153E-05 1.20280E-19
2.97475E-05 1.02126E-19
3.21749E-05 8.72688E-20
3.46974E-05 7.50211E-20
3.73152E-05 6.48539E-20
4.00281E-05 5.63557E-20
4.28362E-05 4.92068E-20
4.57395E-05 4.31557E-20
4.87380E-05 3.80049E-20
5.18317E-05 3.35981E-20
5.50205E-05 2.98101E-20
5.83045E-05 2.65406E-20
6.16838E-05 2.37071E-20
6.51582E-05 2.12422E-20
6.87277E-05 1.90900E-20
7.23925E-05 1.72039E-20
7.61524E-05 1.55918E-20
9.21439E-05 1.06430E-20
1.09658E-04 7.50876E-21
1.28695E-04 5.44710E-21
1.49255E-04 4.04543E-21
1.71338E-04 3.06631E-21
1.94942E-04 2.36551E-21
2.20070E-04 1.85340E-21
2.46720E-04 1.47221E-21
2.74892E-04 1.18375E-21
3.04586E-04 9.62292E-22
3.35803E-04 7.89990E-22
3.68542E-04 6.54348E-22
4.02802E-04 5.46402E-22
4.38585E-04 4.59648E-22
4.75889E-04 3.89298E-22
5.14715E-04 3.31772E-22
5.55063E-04 2.84376E-22
5.96931E-04 2.45048E-22
6.40321E-04 2.12201E-22
6.85233E-04 1.84600E-22
7.31665E-04 1.61274E-22
7.79618E-04 1.41459E-22
8.29092E-04 1.24540E-22
8.80086E-04 1.10028E-22
9.32601E-04 9.75266E-23
9.86636E-04 8.67121E-23
1.04219E-03 7.73208E-23
1.09927E-03 6.91355E-23
1.15786E-03 6.19768E-23
1.21797E-03 5.56952E-23
1.27961E-03 5.01663E-23
1.34276E-03 4.52855E-23
1.40743E-03 4.09648E-23
1.47362E-03 3.71296E-23
1.54133E-03 3.37169E-23
1.61056E-03 3.06727E-23
1.68131E-03 2.79509E-23
1.75357E-03 2.55121E-23
1.82735E-03 2.33222E-23
1.90265E-03 2.13518E-23
1.97947E-03 1.95756E-23
2.05780E-03 1.79715E-23
2.13765E-03 1.65201E-23
2.21902E-03 1.52048E-23
2.30190E-03 1.40108E-23
2.38630E-03 1.29253E-23
2.47222E-03 1.19369E-23
2.55965E-03 1.10356E-23
2.64859E-03 1.02126E-23
2.73905E-03 9.46011E-24
2.83103E-03 8.77118E-24
2.92452E-03 8.13966E-24
3.01952E-03 7.56007E-24
3.11604E-03 7.02753E-24
3.21407E-03 6.53768E-24
3.31362E-03 6.08661E-24
3.41468E-03 5.67081E-24
3.51725E-03 5.28715E-24
3.62133E-03 4.93280E-24
3.72692E-03 4.60522E-24
3.83403E-03 4.30210E-24
3.94265E-03 4.02138E-24
4.05278E-03 3.76118E-24
4.16442E-03 3.51980E-24
4.27757E-03 3.29571E-24
4.39223E-03 3.08751E-24
4.50840E-03 2.89393E-24
4.62608E-03 2.71380E-24
4.74527E-03 2.54609E-24
4.86597E-03 2.38983E-24
4.98817E-03 2.24414E-24
5.11188E-03 2.10823E-24
5.23711E-03 1.98135E-24
5.36383E-03 1.86284E-24
5.49207E-03 1.75209E-24
5.62181E-03 1.64852E-24
5.75306E-03 1.55162E-24
5.88581E-03 1.46091E-24
6.02007E-03 1.37596E-24
6.15583E-03 1.29635E-24
6.29310E-03 1.22173E-24
6.43187E-03 1.15173E-24
6.57214E-03 1.08605E-24
6.71392E-03 1.02440E-24
6.85720E-03 9.66500E-25
7.00198E-03 9.12102E-25
7.14827E-03 8.60973E-25
7.29605E-03 8.12900E-25
7.44534E-03 7.67683E-25
7.59612E-03 7.25137E-25
7.97965E-03 6.29361E-25
8.37255E-03 5.46869E-25
8.77480E-03 4.75686E-25
9.18641E-03 4.14152E-25
9.60736E-03 3.60876E-25
1.00376E-02 3.14679E-25
1.04773E-02 2.74569E-25
1.09262E-02 2.39700E-25
1.13844E-02 2.09354E-25
1.18520E-02 1.82918E-25
1.23288E-02 1.59867E-25
1.28150E-02 1.39751E-25
1.33104E-02 1.22185E-25
1.38150E-02 1.06835E-25
1.43290E-02 9.34159E-26
1.48521E-02 8.16785E-26
1.53845E-02 7.14085E-26
1.59262E-02 6.24199E-26
1.64770E-02 5.45513E-26
1.70371E-02 4.76620E-26
1.76063E-02 4.16300E-26
1.81848E-02 3.63484E-26
1.87724E-02 3.17244E-26
1.93692E-02 2.76766E-26
1.99751E-02 2.41339E-26
2.05901E-02 2.10342E-26
2.12143E-02 1.83230E-26
2.18476E-02 1.59525E-26
2.24900E-02 1.38809E-26
2.31415E-02 1.20714E-26
2.38021E-02 1.04918E-26
2.44717E-02 9.11379E-27
2.51504E-02 7.91240E-27
2.58382E-02 6.86582E-27
2.65349E-02 5.95481E-27
2.72407E-02 5.16250E-27
2.79555E-02 4.47405E-27
2.86793E-02 3.87640E-27
2.94120E-02 3.35809E-27
3.01537E-02 2.90905E-27
3.09043E-02 2.52044E-27
3.16639E-02 2.18449E-27
3.24324E-02 1.89439E-27
3.32098E-02 1.64416E-27
3.39961E-02 1.42855E-27
3.47912E-02 1.24299E-27
3.55952E-02 1.08345E-27
3.64081E-02 9.46417E-28
3.72297E-02 8.28829E-28
3.80602E-02 7.28004E-28
3.88995E-02 6.41610E-28
3.97476E-02 5.67614E-28
4.06044E-02 5.04249E-28
4.14700E-02 4.49982E-28
4.23443E-02 4.03486E-28
4.32273E-02 3.63609E-28
4.41190E-02 3.29362E-28
4.50194E-02 2.99887E-28
4.59284E-02 2.74452E-28
4.68461E-02 2.52425E-28
4.87074E-02 2.16523E-28
5.06030E-02 1.88761E-28
5.25328E-02 1.66686E-28
5.44967E-02 1.48562E-28
5.64946E-02 1.33185E-28
5.85262E-02 1.19738E-28
6.05914E-02 1.07682E-28
6.26901E-02 9.66751E-29
6.48222E-02 8.65085E-29
6.69873E-02 7.70638E-29
6.91854E-02 6.82792E-29
7.14163E-02 6.01266E-29
7.36799E-02 5.25952E-29
7.59760E-02 4.56810E-29
7.83043E-02 3.93802E-29
8.06647E-02 3.36846E-29
8.30571E-02 2.85804E-29
8.54812E-02 2.40471E-29
8.79369E-02 2.00581E-29
9.04240E-02 1.65814E-29
9.29422E-02 1.35810E-29
9.54915E-02 1.10177E-29
9.80716E-02 8.85081E-30
1.00682E-01 7.03925E-30
1.03323E-01 5.54229E-30
1.05995E-01 4.32063E-30
1.08696E-01 3.33695E-30
1.11427E-01 2.55647E-30
1.14188E-01 1.94725E-30
1.16978E-01 1.48041E-30
1.19797E-01 1.13021E-30
1.22645E-01 8.73998E-31
1.25522E-01 6.92174E-31
1.28428E-01 5.67971E-31
1.31361E-01 4.87285E-31
1.34323E-01 4.38432E-31
1.37313E-01 4.11908E-31
1.40330E-01 4.00126E-31
1.43375E-01 3.97179E-31
1.46447E-01 3.98587E-31
1.49545E-01 4.01079E-31
1.52671E-01 4.02383E-31
1.55823E-01 4.01033E-31
1.59001E-01 3.96208E-31
1.62205E-01 3.87579E-31
1.65435E-01 3.75188E-31
1.68690E-01 3.59338E-31
1.71970E-01 3.40507E-31
1.75276E-01 3.19273E-31
1.78606E-01 2.96262E-31
1.81961E-01 2.72103E-31
1.85340E-01 2.47391E-31
1.88743E-01 2.22672E-31
1.92169E-01 1.98424E-31
1.95619E-01 1.75049E-31
1.99092E-01 1.52873E-31
2.02589E-01 1.32143E-31
2.06107E-01 1.13036E-31
2.09649E-01 9.56604E-32
2.13212E-01 8.00666E-32
2.16797E-01 6.62546E-32
2.20404E-01 5.41822E-32
2.24032E-01 4.37734E-32
2.27680E-01 3.49264E-32
2.31350E-01 2.75208E-32
2.35040E-01 2.14239E-32
2.38751E-01 1.64969E-32
2.42481E-01 1.25992E-32
2.46231E-01 9.59271E-33
2.50000E-01 7.34488E-33
2.53788E-01 5.73109E-33
2.57595E-01 4.63642E-33
2.61421E-01 3.95678E-33
2.65264E-01 3.59955E-33
2.69126E-01 3.48372E-33
2.73005E-01 3.53973E-33
2.76901E-01 3.70901E-33
2.80814E-01 3.94333E-33
2.84744E-01 4.20392E-33
2.88691E-01 4.46064E-33
2.92653E-01 4.69094E-33
2.96632E-01 4.87887E-33
3.00625E-01 5.01415E-33
3.04634E-01 5.09123E-33
3.08658E-01 5.10836E-33
3.12697E-01 5.06688E-33
3.16749E-01 4.97042E-33
3.20816E-01 4.82431E-33
3.24896E-01 4.63501E-33
3.28990E-01 4.40962E-33
3.33097E-01 4.15553E-33
3.37216E-01 3.88008E-33
3.41348E-01 3.59031E-33
3.45492E-01 3.29277E-33
3.49647E-01 2.99341E-33
3.53814E-01 2.69747E-33
3.57992E-01 2.40946E-33
3.62181E-01 2.13310E-33
3.66381E-01 1.87139E-33
3.70590E-01 1.62661E-33
3.74810E-01 1.40036E-33
3.79039E-01 1.19366E-33
3.83277E-01 1.00697E-33
3.87524E-01 8.40310E-34
3.91780E-01 6.93275E-34
3.96044E-01 5.65155E-34
4.00316E-01 4.54973E-34
4.04596E-01 3.61556E-34
4.08882E-01 2.83595E-34
4.13176E-01 2.19688E-34
4.17476E-01 1.68391E-34
4.21783E-01 1.28254E-34
4.26095E-01 9.78521E-35
4.30413E-01 7.58127E-35
4.34737E-01 6.08360E-35
4.39065E-01 5.17102E-35
4.43398E-01 4.73225E-35
4.47736E-01 4.66646E-35
4.52077E-01 4.88384E-35
4.56422E-01 5.30539E-35
4.60770E-01 5.86279E-35
4.65122E-01 6.49802E-35
4.69476E-01 7.16271E-35
4.73832E-01 7.81752E-35
4.78190E-01 8.43128E-35
4.82550E-01 8.98035E-35
4.86912E-01 9.44758E-35
4.91274E-01 9.82166E-35
4.95637E-01 1.00962E-34
5.00000E-01 1.02689E-34
5.04363E-01 1.03411E-34
5.08726E-01 1.03167E-34
5.13088E-01 1.02020E-34
5.17450E-01 1.00048E-34
5.21810E-01 9.73386E-35
5.26168E-01 9.39886E-35
5.30524E-01 9.00978E-35
5.34878E-01 8.57659E-35
5.39230E-01 8.10903E-35
5.43578E-01 7.61639E-35
5.47923E-01 7.10748E-35
5.52264E-01 6.59034E-35
5.56602E-01 6.07225E-35
5.60935E-01 5.55967E-35
5.65263E-01 5.05822E-35
5.69587E-01 4.57273E-35
5.73905E-01 4.10712E-35
5.78217E-01 3.66460E-35
5.82524E-01 3.24766E-35
5.86824E-01 2.85801E-35
5.91118E-01 2.49684E-35
5.95404E-01 2.16474E-35
5.99684E-01 1.86183E-35
6.03956E-01 1.58775E-35
6.08220E-01 1.34184E-35
6.12476E-01 1.12310E-35
6.16723E-01 9.30316E-36
6.20961E-01 7.62056E-36
6.25190E-01 6.16755E-36
6.29410E-01 4.92761E-36
6.33619E-01 3.88340E-36
6.37819E-01 3.01765E-36
6.42008E-01 2.31289E-36
6.46186E-01 1.75211E-36
6.50353E-01 1.31880E-36
6.54508E-01 9.97110E-37
6.58652E-01 7.72059E-37
6.62784E-01 6.29578E-37
6.66903E-01 5.56599E-37
6.71010E-01 5.41138E-37
6.75104E-01 5.72183E-37
6.79184E-01 6.39915E-37
6.83251E-01 7.35426E-37
6.87303E-01 8.50968E-37
6.91342E-01 9.79630E-37
6.95366E-01 1.11561E-36
6.99375E-01 1.25379E-36
7.03368E-01 1.39004E-36
7.07347E-01 1.52071E-36
7.11309E-01 1.64325E-36
7.15256E-01 1.75531E-36
7.19186E-01 1.85540E-36
7.23099E-01 1.94226E-36
7.26995E-01 2.01528E-36
7.30874E-01 2.07408E-36
7.34736E-01 2.11866E-36
7.38579E-01 2.14929E-36
7.42405E-01 2.16634E-36
7.46212E-01 2.17064E-36
7.50000E-01 2.16277E-36
7.53769E-01 2.14364E-36
7.57519E-01 2.11426E-36
7.61249E-01 2.07566E-36
7.64960E-01 2.02878E-36
7.68650E-01 1.97471E-36
7.72320E-01 1.91443E-36
7.75968E-01 1.84891E-36
7.79596E-01 1.77906E-36
7.83203E-01 1.70588E-36
7.86788E-01 1.63014E-36
7.90351E-01 1.55265E-36
7.93893E-01 1.47415E-36
7.97411E-01 1.39530E-36
8.00908E-01 1.31663E-36
8.04381E-01 1.23874E-36
8.07831E-01 1.16210E-36
8.11257E-01 1.08709E-36
8.14660E-01 1.01410E-36
8.18039E-01 9.43341E-37
8.21394E-01 8.75118E-37
8.24724E-01 8.09635E-37
8.28030E-01 7.47016E-37
8.31310E-01 6.87375E-37
8.34565E-01 6.30766E-37
8.37795E-01 5.77252E-37
8.40999E-01 5.26815E-37
8.44177E-01 4.79474E-37
8.47329E-01 4.35155E-37
8.50455E-01 3.93802E-37
8.53553E-01 3.55366E-37
8.56625E-01 3.19724E-37
8.59670E-01 2.86790E-37
8.62687E-01 2.56440E-37
8.65677E-01 2.28568E-37
8.68639E-01 2.03059E-37
8.71572E-01 1.79765E-37
8.74478E-01 1.58574E-37
8.77355E-01 1.39357E-37
8.80203E-01 1.21997E-37
8.83022E-01 1.06358E-37
8.85812E-01 9.23270E-38
8.88573E-01 7.97744E-38
8.91304E-01 6.85974E-38
8.94005E-01 5.86816E-38
8.96677E-01 4.99303E-38
8.99318E-01 4.22222E-38
9.01928E-01 3.54898E-38
9.04508E-01 2.96244E-38
9.07058E-01 2.45531E-38
9.09576E-01 2.01877E-38
9.12063E-01 1.64630E-38
9.14519E-01 1.33067E-38
9.16943E-01 1.06577E-38
9.19335E-01 8.45729E-39
9.21696E-01 6.65062E-39
9.24024E-01 5.19136E-39
9.26320E-01 4.03276E-39
9.28584E-01 3.13632E-39
9.30815E-01 2.46313E-39
9.33013E-01 1.98300E-39
9.35178E-01 1.66206E-39
9.37310E-01 1.47825E-39
9.39409E-01 1.40461E-39
9.41474E-01 1.42208E-39
9.43505E-01 1.51184E-39
9.45503E-01 1.65492E-39
9.47467E-01 1.84022E-39
9.49397E-01 2.05330E-39
9.51293E-01 2.28479E-39
9.53154E-01 2.52335E-39
9.54981E-01 2.76395E-39
9.56773E-01 2.99835E-39
9.58530E-01 3.22351E-39
9.60252E-01 3.43364E-39
9.61940E-01 3.62346E-39
9.63592E-01 3.79177E-39
9.65209E-01 3.93851E-39
9.66790E-01 4.06135E-39
9.68336E-01 4.16075E-39
9.69846E-01 4.23543E-39
9.71321E-01 4.28281E-39
9.72759E-01 4.31139E-39
9.74162E-01 4.31315E-39
9.75528E-01 4.29568E-39
9.76858E-01 4.25876E-39
9.78152E-01 4.19722E-39
9.79410E-01 4.11677E-39
9.80631E-01 4.02342E-39
9.81815E-01 3.91618E-39
9.82963E-01 3.79190E-39
9.84074E-01 3.65380E-39
9.85148E-01 3.50844E-39
9.86185E-01 3.35702E-39
9.87185E-01 3.19403E-39
9.88148E-01 3.02488E-39
9.89074E-01 2.85261E-39
9.89962E-01 2.67438E-39
9.90814E-01 2.49581E-39
9.91627E-01 2.31557E-39
9.92404E-01 2.13433E-39
9.93143E-01 1.95963E-39
9.93844E-01 1.78055E-39
9.94508E-01 1.61019E-39
9.95134E-01 1.44440E-39
9.95722E-01 1.28133E-39
9.96273E-01 1.12884E-39
9.96786E-01 9.82489E-40
9.97261E-01 8.44185E-40
9.97698E-01 7.13811E-40
9.98097E-01 5.92569E-40
9.98459E-01 4.84158E-40
9.98782E-01 3.82960E-40
9.99067E-01 2.95865E-40
9.99315E-01 2.17916E-40
9.99524E-01 1.52491E-40
9.99695E-01 9.83036E-41
9.99829E-01 5.66505E-41
9.99924E-01 2.51924E-41
9.99981E-01 7.62192E-42
1.00000E+00 2.24608E-42
