 #
 # Subroutine ELSEPA. Elastic scattering of electrons and positrons
 #                    by neutral atoms and positive ions
 #
 # Projectile: positron
 # Kinetic energy = 4.00000E+06 eV = 1.46997E+05 a.u.
 #
 # WARNING: High-energy factorization with free-atom DF screening.
 #          Absorption, polarization and exchange corrections are
 #          switched off.
 #          Phase shifts are calculated for the bare nucleus.
 #          Scattering amplitudes are not evaluated.
 #
 # Element:  I,  Z =  53,  atomic weight = 1.26904E+02 g/mol
 #
 # Nuclear model: Fermi distribution
 #                Average radius = 5.37703E-13 cm
 #                Skin thickness = 5.46000E-14 cm
 #
 # Number of electrons = 53
 #
 # Total elastic cross section = 5.77312E-18 cm**2 = 2.06162E-01 a0**2
 # 1st transport cross section = 1.74117E-22 cm**2 = 6.21784E-06 a0**2
 # 2nd transport cross section = 5.00328E-22 cm**2 = 1.78670E-05 a0**2
 #
 #
 # Differential cross section:                       MU=(1-COS(THETA))/2
 #
 #  THETA        MU          DCS          DCS        Sherman      error
 #  (deg)                 (cm**2/sr)   (a0**2/sr)    function
 #----------------------------------------------------------------------
0.00000E+00 8.97988E-13
7.61557E-13 8.97984E-13
1.18994E-12 8.97982E-13
1.71346E-12 8.97979E-13
2.33225E-12 8.97976E-13
3.04617E-12 8.97973E-13
3.85530E-12 8.97969E-13
4.75964E-12 8.97965E-13
5.75917E-12 8.97960E-13
6.85391E-12 8.97955E-13
8.04379E-12 8.97950E-13
9.32893E-12 8.97944E-13
1.07092E-11 8.97938E-13
1.21847E-11 8.97931E-13
1.37554E-11 8.97924E-13
1.54213E-11 8.97916E-13
1.71823E-11 8.97908E-13
1.90386E-11 8.97900E-13
2.09900E-11 8.97891E-13
2.30367E-11 8.97882E-13
2.51785E-11 8.97873E-13
2.74156E-11 8.97863E-13
2.97478E-11 8.97852E-13
3.21752E-11 8.97841E-13
3.46979E-11 8.97830E-13
3.73157E-11 8.97819E-13
4.00286E-11 8.97806E-13
4.28368E-11 8.97794E-13
4.57402E-11 8.97781E-13
4.87388E-11 8.97768E-13
5.18325E-11 8.97754E-13
5.50215E-11 8.97740E-13
5.83057E-11 8.97726E-13
6.16850E-11 8.97711E-13
6.51595E-11 8.97695E-13
6.87293E-11 8.97680E-13
7.23943E-11 8.97663E-13
7.61544E-11 8.97647E-13
1.18991E-10 8.97458E-13
1.71347E-10 8.97228E-13
2.33223E-10 8.96958E-13
3.04617E-10 8.96646E-13
3.85531E-10 8.96292E-13
4.75965E-10 8.95898E-13
5.75917E-10 8.95463E-13
6.85389E-10 8.94988E-13
8.04380E-10 8.94471E-13
9.32891E-10 8.93914E-13
1.07092E-09 8.93317E-13
1.21847E-09 8.92679E-13
1.37554E-09 8.92001E-13
1.54213E-09 8.91283E-13
1.71823E-09 8.90525E-13
1.90386E-09 8.89727E-13
2.09900E-09 8.88889E-13
2.30367E-09 8.88012E-13
2.51785E-09 8.87096E-13
2.74156E-09 8.86140E-13
2.97478E-09 8.85146E-13
3.21752E-09 8.84113E-13
3.46978E-09 8.83042E-13
3.73156E-09 8.81932E-13
4.00286E-09 8.80784E-13
4.28368E-09 8.79598E-13
4.57402E-09 8.78375E-13
4.87388E-09 8.77114E-13
5.18326E-09 8.75816E-13
5.50215E-09 8.74482E-13
5.83057E-09 8.73110E-13
6.16850E-09 8.71703E-13
6.51596E-09 8.70259E-13
6.87293E-09 8.68780E-13
7.23942E-09 8.67265E-13
7.61544E-09 8.65715E-13
1.18991E-08 8.48314E-13
1.71347E-08 8.27781E-13
2.33223E-08 8.04387E-13
3.04617E-08 7.78637E-13
3.85531E-08 7.50983E-13
4.75965E-08 7.21871E-13
5.75917E-08 6.91695E-13
6.85389E-08 6.60511E-13
8.04380E-08 6.29035E-13
9.32891E-08 5.97610E-13
1.07092E-07 5.66531E-13
1.21847E-07 5.36044E-13
1.37554E-07 5.06129E-13
1.54213E-07 4.77071E-13
1.71823E-07 4.49137E-13
1.90386E-07 4.22416E-13
2.09900E-07 3.96963E-13
2.30367E-07 3.72772E-13
2.51785E-07 3.49727E-13
2.74156E-07 3.28027E-13
2.97478E-07 3.07642E-13
3.21752E-07 2.88531E-13
3.46978E-07 2.70644E-13
3.73156E-07 2.53849E-13
4.00286E-07 2.38159E-13
4.28368E-07 2.23545E-13
4.57402E-07 2.09944E-13
4.87388E-07 1.97289E-13
5.18325E-07 1.85505E-13
5.50215E-07 1.74510E-13
5.83057E-07 1.64296E-13
6.16850E-07 1.54804E-13
6.51596E-07 1.45980E-13
6.87293E-07 1.37775E-13
7.23942E-07 1.30119E-13
7.61543E-07 1.22990E-13
1.18991E-06 7.30281E-14
1.71347E-06 4.65863E-14
2.33223E-06 3.10981E-14
3.04617E-06 2.15227E-14
3.85531E-06 1.52976E-14
4.75964E-06 1.11074E-14
5.75916E-06 8.21695E-15
6.85388E-06 6.17865E-15
8.04378E-06 4.73993E-15
9.32888E-06 3.70341E-15
1.07092E-05 2.94245E-15
1.21846E-05 2.37371E-15
1.37553E-05 1.94022E-15
1.54212E-05 1.60460E-15
1.71822E-05 1.34096E-15
1.90385E-05 1.13049E-15
2.09899E-05 9.61223E-16
2.30365E-05 8.22685E-16
2.51783E-05 7.07718E-16
2.74153E-05 6.12105E-16
2.97475E-05 5.31799E-16
3.21749E-05 4.63934E-16
3.46974E-05 4.06412E-16
3.73152E-05 3.57288E-16
4.00281E-05 3.15239E-16
4.28362E-05 2.79114E-16
4.57395E-05 2.47930E-16
4.87380E-05 2.20893E-16
5.18317E-05 1.97348E-16
5.50205E-05 1.76762E-16
5.83045E-05 1.58755E-16
6.16838E-05 1.42962E-16
6.51582E-05 1.29075E-16
6.87277E-05 1.16830E-16
7.23925E-05 1.05996E-16
7.61524E-05 9.63936E-17
9.21439E-05 6.73632E-17
1.09658E-04 4.85131E-17
1.28695E-04 3.58384E-17
1.49255E-04 2.70771E-17
1.71338E-04 2.08500E-17
1.94942E-04 1.63183E-17
2.20070E-04 1.29514E-17
2.46720E-04 1.04075E-17
2.74892E-04 8.45783E-18
3.04586E-04 6.94312E-18
3.35803E-04 5.75153E-18
3.68542E-04 4.80368E-18
4.02802E-04 4.04171E-18
4.38585E-04 3.42442E-18
4.75889E-04 2.92018E-18
5.14715E-04 2.50504E-18
5.55063E-04 2.16082E-18
5.96931E-04 1.87337E-18
6.40321E-04 1.63198E-18
6.85233E-04 1.42814E-18
7.31665E-04 1.25506E-18
7.79618E-04 1.10736E-18
8.29092E-04 9.80693E-19
8.80086E-04 8.71560E-19
9.32601E-04 7.77168E-19
9.86636E-04 6.95193E-19
1.04219E-03 6.23729E-19
1.09927E-03 5.61203E-19
1.15786E-03 5.06294E-19
1.21797E-03 4.57928E-19
1.27961E-03 4.15195E-19
1.34276E-03 3.77326E-19
1.40743E-03 3.43672E-19
1.47362E-03 3.13680E-19
1.54133E-03 2.86882E-19
1.61056E-03 2.62881E-19
1.68131E-03 2.41336E-19
1.75357E-03 2.21949E-19
1.82735E-03 2.04468E-19
1.90265E-03 1.88669E-19
1.97947E-03 1.74364E-19
2.05780E-03 1.61387E-19
2.13765E-03 1.49593E-19
2.21902E-03 1.38854E-19
2.30190E-03 1.29060E-19
2.38630E-03 1.20111E-19
2.47222E-03 1.11923E-19
2.55965E-03 1.04419E-19
2.64859E-03 9.75324E-20
2.73905E-03 9.12025E-20
2.83103E-03 8.53757E-20
2.92452E-03 8.00056E-20
3.01952E-03 7.50499E-20
3.11604E-03 7.04708E-20
3.21407E-03 6.62346E-20
3.31362E-03 6.23107E-20
3.41468E-03 5.86720E-20
3.51725E-03 5.52941E-20
3.62133E-03 5.21550E-20
3.72692E-03 4.92347E-20
3.83403E-03 4.65151E-20
3.94265E-03 4.39798E-20
4.05278E-03 4.16143E-20
4.16442E-03 3.94050E-20
4.27757E-03 3.73398E-20
4.39223E-03 3.54076E-20
4.50840E-03 3.35981E-20
4.62608E-03 3.19022E-20
4.74527E-03 3.03115E-20
4.86597E-03 2.88182E-20
4.98817E-03 2.74154E-20
5.11188E-03 2.60964E-20
5.23711E-03 2.48554E-20
5.36383E-03 2.36869E-20
5.49207E-03 2.25860E-20
5.62181E-03 2.15480E-20
5.75306E-03 2.05686E-20
5.88581E-03 1.96439E-20
6.02007E-03 1.87703E-20
6.15583E-03 1.79445E-20
6.29310E-03 1.71633E-20
6.43187E-03 1.64240E-20
6.57214E-03 1.57238E-20
6.71392E-03 1.50603E-20
6.85720E-03 1.44313E-20
7.00198E-03 1.38346E-20
7.14827E-03 1.32682E-20
7.29605E-03 1.27303E-20
7.44534E-03 1.22193E-20
7.59612E-03 1.17335E-20
7.97965E-03 1.06199E-20
8.37255E-03 9.63459E-21
8.77480E-03 8.76029E-21
9.18641E-03 7.98237E-21
9.60736E-03 7.28839E-21
1.00376E-02 6.66776E-21
1.04773E-02 6.11138E-21
1.09262E-02 5.61147E-21
1.13844E-02 5.16132E-21
1.18520E-02 4.75510E-21
1.23288E-02 4.38781E-21
1.28150E-02 4.05507E-21
1.33104E-02 3.75307E-21
1.38150E-02 3.47846E-21
1.43290E-02 3.22834E-21
1.48521E-02 3.00013E-21
1.53845E-02 2.79159E-21
1.59262E-02 2.60072E-21
1.64770E-02 2.42577E-21
1.70371E-02 2.26517E-21
1.76063E-02 2.11754E-21
1.81848E-02 1.98165E-21
1.87724E-02 1.85640E-21
1.93692E-02 1.74081E-21
1.99751E-02 1.63400E-21
2.05901E-02 1.53520E-21
2.12143E-02 1.44368E-21
2.18476E-02 1.35883E-21
2.24900E-02 1.28007E-21
2.31415E-02 1.20688E-21
2.38021E-02 1.13880E-21
2.44717E-02 1.07542E-21
2.51504E-02 1.01634E-21
2.58382E-02 9.61226E-22
2.65349E-02 9.09765E-22
2.72407E-02 8.61669E-22
2.79555E-02 8.16679E-22
2.86793E-02 7.74560E-22
2.94120E-02 7.35095E-22
3.01537E-02 6.98087E-22
3.09043E-02 6.63357E-22
3.16639E-02 6.30738E-22
3.24324E-02 6.00078E-22
3.32098E-02 5.71241E-22
3.39961E-02 5.44098E-22
3.47912E-02 5.18530E-22
3.55952E-02 4.94432E-22
3.64081E-02 4.71701E-22
3.72297E-02 4.50249E-22
3.80602E-02 4.29989E-22
3.88995E-02 4.10843E-22
3.97476E-02 3.92739E-22
4.06044E-02 3.75610E-22
4.14700E-02 3.59395E-22
4.23443E-02 3.44035E-22
4.32273E-02 3.29477E-22
4.41190E-02 3.15673E-22
4.50194E-02 3.02575E-22
4.59284E-02 2.90142E-22
4.68461E-02 2.78333E-22
4.87074E-02 2.56443E-22
5.06030E-02 2.36639E-22
5.25328E-02 2.18687E-22
5.44967E-02 2.02385E-22
5.64946E-02 1.87555E-22
5.85262E-02 1.74042E-22
6.05914E-02 1.61709E-22
6.26901E-02 1.50435E-22
6.48222E-02 1.40114E-22
6.69873E-02 1.30651E-22
6.91854E-02 1.21962E-22
7.14163E-02 1.13974E-22
7.36799E-02 1.06620E-22
7.59760E-02 9.98405E-23
7.83043E-02 9.35837E-23
8.06647E-02 8.78021E-23
8.30571E-02 8.24533E-23
8.54812E-02 7.74994E-23
8.79369E-02 7.29061E-23
9.04240E-02 6.86426E-23
9.29422E-02 6.46811E-23
9.54915E-02 6.09966E-23
9.80716E-02 5.75662E-23
1.00682E-01 5.43695E-23
1.03323E-01 5.13877E-23
1.05995E-01 4.86039E-23
1.08696E-01 4.60027E-23
1.11427E-01 4.35700E-23
1.14188E-01 4.12930E-23
1.16978E-01 3.91599E-23
1.19797E-01 3.71602E-23
1.22645E-01 3.52839E-23
1.25522E-01 3.35222E-23
1.28428E-01 3.18669E-23
1.31361E-01 3.03104E-23
1.34323E-01 2.88458E-23
1.37313E-01 2.74666E-23
1.40330E-01 2.61672E-23
1.43375E-01 2.49419E-23
1.46447E-01 2.37859E-23
1.49545E-01 2.26946E-23
1.52671E-01 2.16637E-23
1.55823E-01 2.06894E-23
1.59001E-01 1.97678E-23
1.62205E-01 1.88958E-23
1.65435E-01 1.80701E-23
1.68690E-01 1.72879E-23
1.71970E-01 1.65465E-23
1.75276E-01 1.58434E-23
1.78606E-01 1.51762E-23
1.81961E-01 1.45429E-23
1.85340E-01 1.39413E-23
1.88743E-01 1.33697E-23
1.92169E-01 1.28262E-23
1.95619E-01 1.23093E-23
1.99092E-01 1.18174E-23
2.02589E-01 1.13491E-23
2.06107E-01 1.09031E-23
2.09649E-01 1.04781E-23
2.13212E-01 1.00729E-23
2.16797E-01 9.68656E-24
2.20404E-01 9.31796E-24
2.24032E-01 8.96615E-24
2.27680E-01 8.63024E-24
2.31350E-01 8.30937E-24
2.35040E-01 8.00277E-24
2.38751E-01 7.70968E-24
2.42481E-01 7.42942E-24
2.46231E-01 7.16132E-24
2.50000E-01 6.90477E-24
2.53788E-01 6.65918E-24
2.57595E-01 6.42400E-24
2.61421E-01 6.19871E-24
2.65264E-01 5.98282E-24
2.69126E-01 5.77588E-24
2.73005E-01 5.57744E-24
2.76901E-01 5.38711E-24
2.80814E-01 5.20449E-24
2.84744E-01 5.02922E-24
2.88691E-01 4.86095E-24
2.92653E-01 4.69936E-24
2.96632E-01 4.54412E-24
3.00625E-01 4.39495E-24
3.04634E-01 4.25157E-24
3.08658E-01 4.11371E-24
3.12697E-01 3.98114E-24
3.16749E-01 3.85360E-24
3.20816E-01 3.73089E-24
3.24896E-01 3.61278E-24
3.28990E-01 3.49907E-24
3.33097E-01 3.38957E-24
3.37216E-01 3.28410E-24
3.41348E-01 3.18247E-24
3.45492E-01 3.08454E-24
3.49647E-01 2.99014E-24
3.53814E-01 2.89912E-24
3.57992E-01 2.81135E-24
3.62181E-01 2.72668E-24
3.66381E-01 2.64499E-24
3.70590E-01 2.56616E-24
3.74810E-01 2.49007E-24
3.79039E-01 2.41660E-24
3.83277E-01 2.34565E-24
3.87524E-01 2.27712E-24
3.91780E-01 2.21092E-24
3.96044E-01 2.14694E-24
4.00316E-01 2.08512E-24
4.04596E-01 2.02535E-24
4.08882E-01 1.96757E-24
4.13176E-01 1.91169E-24
4.17476E-01 1.85764E-24
4.21783E-01 1.80534E-24
4.26095E-01 1.75474E-24
4.30413E-01 1.70577E-24
4.34737E-01 1.65837E-24
4.39065E-01 1.61248E-24
4.43398E-01 1.56804E-24
4.47736E-01 1.52501E-24
4.52077E-01 1.48332E-24
4.56422E-01 1.44293E-24
4.60770E-01 1.40379E-24
4.65122E-01 1.36586E-24
4.69476E-01 1.32910E-24
4.73832E-01 1.29345E-24
4.78190E-01 1.25889E-24
4.82550E-01 1.22537E-24
4.86912E-01 1.19286E-24
4.91274E-01 1.16133E-24
4.95637E-01 1.13073E-24
5.00000E-01 1.10104E-24
5.04363E-01 1.07222E-24
5.08726E-01 1.04424E-24
5.13088E-01 1.01708E-24
5.17450E-01 9.90713E-25
5.21810E-01 9.65108E-25
5.26168E-01 9.40241E-25
5.30524E-01 9.16086E-25
5.34878E-01 8.92617E-25
5.39230E-01 8.69813E-25
5.43578E-01 8.47652E-25
5.47923E-01 8.26113E-25
5.52264E-01 8.05177E-25
5.56602E-01 7.84825E-25
5.60935E-01 7.65037E-25
5.65263E-01 7.45797E-25
5.69587E-01 7.27084E-25
5.73905E-01 7.08884E-25
5.78217E-01 6.91180E-25
5.82524E-01 6.73955E-25
5.86824E-01 6.57195E-25
5.91118E-01 6.40886E-25
5.95404E-01 6.25014E-25
5.99684E-01 6.09565E-25
6.03956E-01 5.94526E-25
6.08220E-01 5.79886E-25
6.12476E-01 5.65631E-25
6.16723E-01 5.51751E-25
6.20961E-01 5.38233E-25
6.25190E-01 5.25067E-25
6.29410E-01 5.12242E-25
6.33619E-01 4.99749E-25
6.37819E-01 4.87577E-25
6.42008E-01 4.75716E-25
6.46186E-01 4.64159E-25
6.50353E-01 4.52896E-25
6.54508E-01 4.41919E-25
6.58652E-01 4.31218E-25
6.62784E-01 4.20787E-25
6.66903E-01 4.10618E-25
6.71010E-01 4.00703E-25
6.75104E-01 3.91034E-25
6.79184E-01 3.81606E-25
6.83251E-01 3.72410E-25
6.87303E-01 3.63441E-25
6.91342E-01 3.54692E-25
6.95366E-01 3.46158E-25
6.99375E-01 3.37832E-25
7.03368E-01 3.29708E-25
7.07347E-01 3.21782E-25
7.11309E-01 3.14047E-25
7.15256E-01 3.06498E-25
7.19186E-01 2.99131E-25
7.23099E-01 2.91940E-25
7.26995E-01 2.84921E-25
7.30874E-01 2.78069E-25
7.34736E-01 2.71380E-25
7.38579E-01 2.64849E-25
7.42405E-01 2.58472E-25
7.46212E-01 2.52246E-25
7.50000E-01 2.46165E-25
7.53769E-01 2.40228E-25
7.57519E-01 2.34429E-25
7.61249E-01 2.28765E-25
7.64960E-01 2.23233E-25
7.68650E-01 2.17829E-25
7.72320E-01 2.12551E-25
7.75968E-01 2.07394E-25
7.79596E-01 2.02356E-25
7.83203E-01 1.97434E-25
7.86788E-01 1.92625E-25
7.90351E-01 1.87926E-25
7.93893E-01 1.83334E-25
7.97411E-01 1.78848E-25
8.00908E-01 1.74463E-25
8.04381E-01 1.70179E-25
8.07831E-01 1.65991E-25
8.11257E-01 1.61899E-25
8.14660E-01 1.57899E-25
8.18039E-01 1.53989E-25
8.21394E-01 1.50168E-25
8.24724E-01 1.46433E-25
8.28030E-01 1.42782E-25
8.31310E-01 1.39214E-25
8.34565E-01 1.35725E-25
8.37795E-01 1.32315E-25
8.40999E-01 1.28982E-25
8.44177E-01 1.25723E-25
8.47329E-01 1.22537E-25
8.50455E-01 1.19423E-25
8.53553E-01 1.16379E-25
8.56625E-01 1.13402E-25
8.59670E-01 1.10493E-25
8.62687E-01 1.07649E-25
8.65677E-01 1.04868E-25
8.68639E-01 1.02150E-25
8.71572E-01 9.94927E-26
8.74478E-01 9.68952E-26
8.77355E-01 9.43560E-26
8.80203E-01 9.18738E-26
8.83022E-01 8.94476E-26
8.85812E-01 8.70761E-26
8.88573E-01 8.47581E-26
8.91304E-01 8.24925E-26
8.94005E-01 8.02783E-26
8.96677E-01 7.81143E-26
8.99318E-01 7.59995E-26
9.01928E-01 7.39329E-26
9.04508E-01 7.19135E-26
9.07058E-01 6.99404E-26
9.09576E-01 6.80127E-26
9.12063E-01 6.61294E-26
9.14519E-01 6.42897E-26
9.16943E-01 6.24927E-26
9.19335E-01 6.07376E-26
9.21696E-01 5.90236E-26
9.24024E-01 5.73499E-26
9.26320E-01 5.57157E-26
9.28584E-01 5.41204E-26
9.30815E-01 5.25631E-26
9.33013E-01 5.10433E-26
9.35178E-01 4.95601E-26
9.37310E-01 4.81130E-26
9.39409E-01 4.67013E-26
9.41474E-01 4.53243E-26
9.43505E-01 4.39816E-26
9.45503E-01 4.26724E-26
9.47467E-01 4.13962E-26
9.49397E-01 4.01525E-26
9.51293E-01 3.89407E-26
9.53154E-01 3.77603E-26
9.54981E-01 3.66108E-26
9.56773E-01 3.54916E-26
9.58530E-01 3.44024E-26
9.60252E-01 3.33426E-26
9.61940E-01 3.23118E-26
9.63592E-01 3.13095E-26
9.65209E-01 3.03354E-26
9.66790E-01 2.93890E-26
9.68336E-01 2.84699E-26
9.69846E-01 2.75777E-26
9.71321E-01 2.67121E-26
9.72759E-01 2.58727E-26
9.74162E-01 2.50592E-26
9.75528E-01 2.42712E-26
9.76858E-01 2.35084E-26
9.78152E-01 2.27704E-26
9.79410E-01 2.20570E-26
9.80631E-01 2.13679E-26
9.81815E-01 2.07028E-26
9.82963E-01 2.00614E-26
9.84074E-01 1.94435E-26
9.85148E-01 1.88488E-26
9.86185E-01 1.82771E-26
9.87185E-01 1.77281E-26
9.88148E-01 1.72016E-26
9.89074E-01 1.66974E-26
9.89962E-01 1.62153E-26
9.90814E-01 1.57551E-26
9.91627E-01 1.53167E-26
9.92404E-01 1.48998E-26
9.93143E-01 1.45042E-26
9.93844E-01 1.41299E-26
9.94508E-01 1.37766E-26
9.95134E-01 1.34443E-26
9.95722E-01 1.31328E-26
9.96273E-01 1.28420E-26
9.96786E-01 1.25717E-26
9.97261E-01 1.23218E-26
9.97698E-01 1.20923E-26
9.98097E-01 1.18831E-26
9.98459E-01 1.16940E-26
9.98782E-01 1.15251E-26
9.99067E-01 1.13761E-26
9.99315E-01 1.12472E-26
9.99524E-01 1.11382E-26
9.99695E-01 1.10490E-26
9.99829E-01 1.09797E-26
9.99924E-01 1.09302E-26
9.99981E-01 1.09006E-26
1.00000E+00 1.08907E-26
