 #
 # Subroutine ELSEPA. Elastic scattering of electrons and positrons
 #                    by neutral atoms and positive ions
 #
 # Projectile: positron
 # Kinetic energy = 9.00000E+06 eV = 3.30744E+05 a.u.
 #
 # WARNING: High-energy factorization with free-atom DF screening.
 #          Absorption, polarization and exchange corrections are
 #          switched off.
 #          Phase shifts are calculated for the bare nucleus.
 #          Scattering amplitudes are not evaluated.
 #
 # Element:  I,  Z =  53,  atomic weight = 1.26904E+02 g/mol
 #
 # Nuclear model: Fermi distribution
 #                Average radius = 5.37703E-13 cm
 #                Skin thickness = 5.46000E-14 cm
 #
 # Number of electrons = 53
 #
 # Total elastic cross section = 5.71777E-18 cm**2 = 2.04185E-01 a0**2
 # 1st transport cross section = 4.43664E-23 cm**2 = 1.58435E-06 a0**2
 # 2nd transport cross section = 1.28355E-22 cm**2 = 4.58362E-06 a0**2
 #
 #
 # Differential cross section:                       MU=(1-COS(THETA))/2
 #
 #  THETA        MU          DCS          DCS        Sherman      error
 #  (deg)                 (cm**2/sr)   (a0**2/sr)    function
 #----------------------------------------------------------------------
0.00000E+00 3.99188E-12
7.61557E-13 3.99181E-12
1.18994E-12 3.99177E-12
1.71346E-12 3.99172E-12
2.33225E-12 3.99166E-12
3.04617E-12 3.99160E-12
3.85530E-12 3.99153E-12
4.75964E-12 3.99145E-12
5.75917E-12 3.99136E-12
6.85391E-12 3.99126E-12
8.04379E-12 3.99116E-12
9.32893E-12 3.99105E-12
1.07092E-11 3.99092E-12
1.21847E-11 3.99079E-12
1.37554E-11 3.99066E-12
1.54213E-11 3.99051E-12
1.71823E-11 3.99036E-12
1.90386E-11 3.99019E-12
2.09900E-11 3.99002E-12
2.30367E-11 3.98984E-12
2.51785E-11 3.98966E-12
2.74156E-11 3.98946E-12
2.97478E-11 3.98926E-12
3.21752E-11 3.98905E-12
3.46979E-11 3.98883E-12
3.73157E-11 3.98860E-12
4.00286E-11 3.98836E-12
4.28368E-11 3.98812E-12
4.57402E-11 3.98786E-12
4.87388E-11 3.98760E-12
5.18325E-11 3.98733E-12
5.50215E-11 3.98705E-12
5.83057E-11 3.98677E-12
6.16850E-11 3.98647E-12
6.51595E-11 3.98617E-12
6.87293E-11 3.98586E-12
7.23943E-11 3.98554E-12
7.61544E-11 3.98522E-12
1.18991E-10 3.98150E-12
1.71347E-10 3.97697E-12
2.33223E-10 3.97162E-12
3.04617E-10 3.96547E-12
3.85531E-10 3.95852E-12
4.75965E-10 3.95078E-12
5.75917E-10 3.94225E-12
6.85389E-10 3.93294E-12
8.04380E-10 3.92285E-12
9.32891E-10 3.91201E-12
1.07092E-09 3.90042E-12
1.21847E-09 3.88808E-12
1.37554E-09 3.87501E-12
1.54213E-09 3.86122E-12
1.71823E-09 3.84673E-12
1.90386E-09 3.83154E-12
2.09900E-09 3.81567E-12
2.30367E-09 3.79913E-12
2.51785E-09 3.78193E-12
2.74156E-09 3.76384E-12
2.97478E-09 3.74519E-12
3.21752E-09 3.72604E-12
3.46978E-09 3.70643E-12
3.73156E-09 3.68639E-12
4.00286E-09 3.66583E-12
4.28368E-09 3.64410E-12
4.57402E-09 3.62201E-12
4.87388E-09 3.59956E-12
5.18326E-09 3.57680E-12
5.50215E-09 3.55375E-12
5.83057E-09 3.53006E-12
6.16850E-09 3.50537E-12
6.51596E-09 3.48047E-12
6.87293E-09 3.45537E-12
7.23942E-09 3.43010E-12
7.61544E-09 3.40469E-12
1.18991E-08 3.12921E-12
1.71347E-08 2.83658E-12
2.33223E-08 2.54216E-12
3.04617E-08 2.25643E-12
3.85531E-08 1.98832E-12
4.75965E-08 1.74380E-12
5.75917E-08 1.52493E-12
6.85389E-08 1.33092E-12
8.04380E-08 1.16169E-12
9.32891E-08 1.01527E-12
1.07092E-07 8.89117E-13
1.21847E-07 7.80505E-13
1.37554E-07 6.87443E-13
1.54213E-07 6.07654E-13
1.71823E-07 5.39064E-13
1.90386E-07 4.79963E-13
2.09900E-07 4.28958E-13
2.30367E-07 3.84776E-13
2.51785E-07 3.46296E-13
2.74156E-07 3.11141E-13
2.97478E-07 2.80852E-13
3.21752E-07 2.54824E-13
3.46978E-07 2.32340E-13
3.73156E-07 2.12821E-13
4.00286E-07 1.95525E-13
4.28368E-07 1.78414E-13
4.57402E-07 1.63446E-13
4.87388E-07 1.50298E-13
5.18325E-07 1.38703E-13
5.50215E-07 1.28439E-13
5.83057E-07 1.18896E-13
6.16850E-07 1.09623E-13
6.51596E-07 1.01372E-13
6.87293E-07 9.40056E-14
7.23942E-07 8.74096E-14
7.61543E-07 8.14859E-14
1.18991E-06 4.11257E-14
1.71347E-06 2.27126E-14
2.33223E-06 1.35992E-14
3.04617E-06 8.71894E-15
3.85531E-06 5.89774E-15
4.75964E-06 4.15274E-15
5.75916E-06 3.01253E-15
6.85388E-06 2.23385E-15
8.04378E-06 1.68699E-15
9.32888E-06 1.29537E-15
1.07092E-05 1.00921E-15
1.21846E-05 7.96329E-16
1.37553E-05 6.36063E-16
1.54212E-05 5.13899E-16
1.71822E-05 4.19669E-16
1.90385E-05 3.46037E-16
2.09899E-05 2.88134E-16
2.30365E-05 2.41885E-16
2.51783E-05 2.04559E-16
2.74153E-05 1.74111E-16
2.97475E-05 1.49244E-16
3.21749E-05 1.28661E-16
3.46974E-05 1.11531E-16
3.73152E-05 9.72076E-17
4.00281E-05 8.50830E-17
4.28362E-05 7.48446E-17
4.57395E-05 6.60580E-17
4.87380E-05 5.85502E-17
5.18317E-05 5.20624E-17
5.50205E-05 4.64477E-17
5.83045E-05 4.15727E-17
6.16838E-05 3.73099E-17
6.51582E-05 3.35918E-17
6.87277E-05 3.03100E-17
7.23925E-05 2.74280E-17
7.61524E-05 2.48742E-17
9.21439E-05 1.71990E-17
1.09658E-04 1.22560E-17
1.28695E-04 8.96376E-18
1.49255E-04 6.70328E-18
1.71338E-04 5.11134E-18
1.94942E-04 3.96406E-18
2.20070E-04 3.12108E-18
2.46720E-04 2.49060E-18
2.74892E-04 2.01143E-18
3.04586E-04 1.64211E-18
3.35803E-04 1.35376E-18
3.68542E-04 1.12600E-18
4.02802E-04 9.44157E-19
4.38585E-04 7.97563E-19
4.75889E-04 6.78338E-19
5.14715E-04 5.80565E-19
5.55063E-04 4.99771E-19
5.96931E-04 4.32541E-19
6.40321E-04 3.76233E-19
6.85233E-04 3.28786E-19
7.31665E-04 2.88574E-19
7.79618E-04 2.54317E-19
8.29092E-04 2.24987E-19
8.80086E-04 1.99758E-19
9.32601E-04 1.77960E-19
9.86636E-04 1.59050E-19
1.04219E-03 1.42581E-19
1.09927E-03 1.28184E-19
1.15786E-03 1.15554E-19
1.21797E-03 1.04439E-19
1.27961E-03 9.46245E-20
1.34276E-03 8.59330E-20
1.40743E-03 7.82141E-20
1.47362E-03 7.13403E-20
1.54133E-03 6.52030E-20
1.61056E-03 5.97095E-20
1.68131E-03 5.47808E-20
1.75357E-03 5.03487E-20
1.82735E-03 4.63543E-20
1.90265E-03 4.27470E-20
1.97947E-03 3.94827E-20
2.05780E-03 3.65231E-20
2.13765E-03 3.38346E-20
2.21902E-03 3.13881E-20
2.30190E-03 2.91580E-20
2.38630E-03 2.71218E-20
2.47222E-03 2.52595E-20
2.55965E-03 2.35538E-20
2.64859E-03 2.19891E-20
2.73905E-03 2.05517E-20
2.83103E-03 1.92294E-20
2.92452E-03 1.80114E-20
3.01952E-03 1.68878E-20
3.11604E-03 1.58502E-20
3.21407E-03 1.48907E-20
3.31362E-03 1.40024E-20
3.41468E-03 1.31791E-20
3.51725E-03 1.24153E-20
3.62133E-03 1.17057E-20
3.72692E-03 1.10458E-20
3.83403E-03 1.04316E-20
3.94265E-03 9.85934E-21
4.05278E-03 9.32558E-21
4.16442E-03 8.82731E-21
4.27757E-03 8.36173E-21
4.39223E-03 7.92628E-21
4.50840E-03 7.51869E-21
4.62608E-03 7.13686E-21
4.74527E-03 6.77883E-21
4.86597E-03 6.44286E-21
4.98817E-03 6.12736E-21
5.11188E-03 5.83084E-21
5.23711E-03 5.55195E-21
5.36383E-03 5.28946E-21
5.49207E-03 5.04222E-21
5.62181E-03 4.80918E-21
5.75306E-03 4.58938E-21
5.88581E-03 4.38194E-21
6.02007E-03 4.18602E-21
6.15583E-03 4.00087E-21
6.29310E-03 3.82580E-21
6.43187E-03 3.66014E-21
6.57214E-03 3.50331E-21
6.71392E-03 3.35474E-21
6.85720E-03 3.21392E-21
7.00198E-03 3.08038E-21
7.14827E-03 2.95366E-21
7.29605E-03 2.83335E-21
7.44534E-03 2.71907E-21
7.59612E-03 2.61046E-21
7.97965E-03 2.36163E-21
8.37255E-03 2.14158E-21
8.77480E-03 1.94644E-21
9.18641E-03 1.77290E-21
9.60736E-03 1.61817E-21
1.00376E-02 1.47986E-21
1.04773E-02 1.35592E-21
1.09262E-02 1.24462E-21
1.13844E-02 1.14444E-21
1.18520E-02 1.05407E-21
1.23288E-02 9.72387E-22
1.28150E-02 8.98416E-22
1.33104E-02 8.31301E-22
1.38150E-02 7.70295E-22
1.43290E-02 7.14745E-22
1.48521E-02 6.64079E-22
1.53845E-02 6.17793E-22
1.59262E-02 5.75439E-22
1.64770E-02 5.36627E-22
1.70371E-02 5.01009E-22
1.76063E-02 4.68275E-22
1.81848E-02 4.38150E-22
1.87724E-02 4.10391E-22
1.93692E-02 3.84778E-22
1.99751E-02 3.61116E-22
2.05901E-02 3.39231E-22
2.12143E-02 3.18965E-22
2.18476E-02 3.00177E-22
2.24900E-02 2.82740E-22
2.31415E-02 2.66540E-22
2.38021E-02 2.51475E-22
2.44717E-02 2.37449E-22
2.51504E-02 2.24378E-22
2.58382E-02 2.12187E-22
2.65349E-02 2.00804E-22
2.72407E-02 1.90168E-22
2.79555E-02 1.80220E-22
2.86793E-02 1.70908E-22
2.94120E-02 1.62183E-22
3.01537E-02 1.54003E-22
3.09043E-02 1.46327E-22
3.16639E-02 1.39119E-22
3.24324E-02 1.32344E-22
3.32098E-02 1.25973E-22
3.39961E-02 1.19976E-22
3.47912E-02 1.14328E-22
3.55952E-02 1.09005E-22
3.64081E-02 1.03985E-22
3.72297E-02 9.92479E-23
3.80602E-02 9.47740E-23
3.88995E-02 9.05466E-23
3.97476E-02 8.65496E-23
4.06044E-02 8.27682E-23
4.14700E-02 7.91888E-23
4.23443E-02 7.57986E-23
4.32273E-02 7.25857E-23
4.41190E-02 6.95392E-23
4.50194E-02 6.66488E-23
4.59284E-02 6.39053E-23
4.68461E-02 6.12997E-23
4.87074E-02 5.64704E-23
5.06030E-02 5.21018E-23
5.25328E-02 4.81423E-23
5.44967E-02 4.45471E-23
5.64946E-02 4.12772E-23
5.85262E-02 3.82980E-23
6.05914E-02 3.55791E-23
6.26901E-02 3.30940E-23
6.48222E-02 3.08192E-23
6.69873E-02 2.87337E-23
6.91854E-02 2.68191E-23
7.14163E-02 2.50591E-23
7.36799E-02 2.34389E-23
7.59760E-02 2.19456E-23
7.83043E-02 2.05675E-23
8.06647E-02 1.92941E-23
8.30571E-02 1.81163E-23
8.54812E-02 1.70254E-23
8.79369E-02 1.60141E-23
9.04240E-02 1.50755E-23
9.29422E-02 1.42035E-23
9.54915E-02 1.33924E-23
9.80716E-02 1.26374E-23
1.00682E-01 1.19340E-23
1.03323E-01 1.12779E-23
1.05995E-01 1.06653E-23
1.08696E-01 1.00931E-23
1.11427E-01 9.55796E-24
1.14188E-01 9.05705E-24
1.16978E-01 8.58790E-24
1.19797E-01 8.14816E-24
1.22645E-01 7.73554E-24
1.25522E-01 7.34819E-24
1.28428E-01 6.98427E-24
1.31361E-01 6.64208E-24
1.34323E-01 6.32012E-24
1.37313E-01 6.01701E-24
1.40330E-01 5.73142E-24
1.43375E-01 5.46217E-24
1.46447E-01 5.20817E-24
1.49545E-01 4.96841E-24
1.52671E-01 4.74193E-24
1.55823E-01 4.52789E-24
1.59001E-01 4.32549E-24
1.62205E-01 4.13397E-24
1.65435E-01 3.95265E-24
1.68690E-01 3.78090E-24
1.71970E-01 3.61812E-24
1.75276E-01 3.46376E-24
1.78606E-01 3.31731E-24
1.81961E-01 3.17830E-24
1.85340E-01 3.04628E-24
1.88743E-01 2.92084E-24
1.92169E-01 2.80160E-24
1.95619E-01 2.68818E-24
1.99092E-01 2.58028E-24
2.02589E-01 2.47756E-24
2.06107E-01 2.37973E-24
2.09649E-01 2.28653E-24
2.13212E-01 2.19769E-24
2.16797E-01 2.11298E-24
2.20404E-01 2.03217E-24
2.24032E-01 1.95506E-24
2.27680E-01 1.88143E-24
2.31350E-01 1.81111E-24
2.35040E-01 1.74393E-24
2.38751E-01 1.67971E-24
2.42481E-01 1.61831E-24
2.46231E-01 1.55958E-24
2.50000E-01 1.50338E-24
2.53788E-01 1.44959E-24
2.57595E-01 1.39809E-24
2.61421E-01 1.34876E-24
2.65264E-01 1.30149E-24
2.69126E-01 1.25619E-24
2.73005E-01 1.21276E-24
2.76901E-01 1.17111E-24
2.80814E-01 1.13115E-24
2.84744E-01 1.09280E-24
2.88691E-01 1.05598E-24
2.92653E-01 1.02063E-24
2.96632E-01 9.86681E-25
3.00625E-01 9.54060E-25
3.04634E-01 9.22709E-25
3.08658E-01 8.92571E-25
3.12697E-01 8.63590E-25
3.16749E-01 8.35715E-25
3.20816E-01 8.08897E-25
3.24896E-01 7.83088E-25
3.28990E-01 7.58244E-25
3.33097E-01 7.34323E-25
3.37216E-01 7.11285E-25
3.41348E-01 6.89092E-25
3.45492E-01 6.67707E-25
3.49647E-01 6.47097E-25
3.53814E-01 6.27228E-25
3.57992E-01 6.08069E-25
3.62181E-01 5.89591E-25
3.66381E-01 5.71766E-25
3.70590E-01 5.54566E-25
3.74810E-01 5.37966E-25
3.79039E-01 5.21941E-25
3.83277E-01 5.06469E-25
3.87524E-01 4.91527E-25
3.91780E-01 4.77094E-25
3.96044E-01 4.63149E-25
4.00316E-01 4.49674E-25
4.04596E-01 4.36650E-25
4.08882E-01 4.24059E-25
4.13176E-01 4.11885E-25
4.17476E-01 4.00111E-25
4.21783E-01 3.88723E-25
4.26095E-01 3.77705E-25
4.30413E-01 3.67044E-25
4.34737E-01 3.56725E-25
4.39065E-01 3.46737E-25
4.43398E-01 3.37067E-25
4.47736E-01 3.27703E-25
4.52077E-01 3.18634E-25
4.56422E-01 3.09849E-25
4.60770E-01 3.01338E-25
4.65122E-01 2.93091E-25
4.69476E-01 2.85098E-25
4.73832E-01 2.77350E-25
4.78190E-01 2.69839E-25
4.82550E-01 2.62556E-25
4.86912E-01 2.55493E-25
4.91274E-01 2.48642E-25
4.95637E-01 2.41997E-25
5.00000E-01 2.35549E-25
5.04363E-01 2.29293E-25
5.08726E-01 2.23221E-25
5.13088E-01 2.17327E-25
5.17450E-01 2.11605E-25
5.21810E-01 2.06050E-25
5.26168E-01 2.00655E-25
5.30524E-01 1.95416E-25
5.34878E-01 1.90326E-25
5.39230E-01 1.85383E-25
5.43578E-01 1.80579E-25
5.47923E-01 1.75911E-25
5.52264E-01 1.71375E-25
5.56602E-01 1.66966E-25
5.60935E-01 1.62680E-25
5.65263E-01 1.58513E-25
5.69587E-01 1.54461E-25
5.73905E-01 1.50521E-25
5.78217E-01 1.46689E-25
5.82524E-01 1.42961E-25
5.86824E-01 1.39335E-25
5.91118E-01 1.35807E-25
5.95404E-01 1.32374E-25
5.99684E-01 1.29034E-25
6.03956E-01 1.25783E-25
6.08220E-01 1.22618E-25
6.12476E-01 1.19537E-25
6.16723E-01 1.16538E-25
6.20961E-01 1.13617E-25
6.25190E-01 1.10774E-25
6.29410E-01 1.08004E-25
6.33619E-01 1.05307E-25
6.37819E-01 1.02679E-25
6.42008E-01 1.00120E-25
6.46186E-01 9.76259E-26
6.50353E-01 9.51960E-26
6.54508E-01 9.28282E-26
6.58652E-01 9.05207E-26
6.62784E-01 8.82717E-26
6.66903E-01 8.60795E-26
6.71010E-01 8.39425E-26
6.75104E-01 8.18592E-26
6.79184E-01 7.98279E-26
6.83251E-01 7.78473E-26
6.87303E-01 7.59158E-26
6.91342E-01 7.40322E-26
6.95366E-01 7.21951E-26
6.99375E-01 7.04032E-26
7.03368E-01 6.86552E-26
7.07347E-01 6.69500E-26
7.11309E-01 6.52863E-26
7.15256E-01 6.36631E-26
7.19186E-01 6.20791E-26
7.23099E-01 6.05334E-26
7.26995E-01 5.90250E-26
7.30874E-01 5.75528E-26
7.34736E-01 5.61158E-26
7.38579E-01 5.47131E-26
7.42405E-01 5.33439E-26
7.46212E-01 5.20072E-26
7.50000E-01 5.07021E-26
7.53769E-01 4.94279E-26
7.57519E-01 4.81837E-26
7.61249E-01 4.69688E-26
7.64960E-01 4.57824E-26
7.68650E-01 4.46238E-26
7.72320E-01 4.34922E-26
7.75968E-01 4.23870E-26
7.79596E-01 4.13074E-26
7.83203E-01 4.02529E-26
7.86788E-01 3.92229E-26
7.90351E-01 3.82166E-26
7.93893E-01 3.72336E-26
7.97411E-01 3.62732E-26
8.00908E-01 3.53348E-26
8.04381E-01 3.44180E-26
8.07831E-01 3.35222E-26
8.11257E-01 3.26469E-26
8.14660E-01 3.17916E-26
8.18039E-01 3.09558E-26
8.21394E-01 3.01390E-26
8.24724E-01 2.93409E-26
8.28030E-01 2.85608E-26
8.31310E-01 2.77985E-26
8.34565E-01 2.70535E-26
8.37795E-01 2.63253E-26
8.40999E-01 2.56137E-26
8.44177E-01 2.49181E-26
8.47329E-01 2.42383E-26
8.50455E-01 2.35739E-26
8.53553E-01 2.29245E-26
8.56625E-01 2.22897E-26
8.59670E-01 2.16694E-26
8.62687E-01 2.10630E-26
8.65677E-01 2.04704E-26
8.68639E-01 1.98911E-26
8.71572E-01 1.93250E-26
8.74478E-01 1.87717E-26
8.77355E-01 1.82309E-26
8.80203E-01 1.77024E-26
8.83022E-01 1.71858E-26
8.85812E-01 1.66811E-26
8.88573E-01 1.61878E-26
8.91304E-01 1.57057E-26
8.94005E-01 1.52347E-26
8.96677E-01 1.47744E-26
8.99318E-01 1.43247E-26
9.01928E-01 1.38853E-26
9.04508E-01 1.34561E-26
9.07058E-01 1.30367E-26
9.09576E-01 1.26271E-26
9.12063E-01 1.22270E-26
9.14519E-01 1.18362E-26
9.16943E-01 1.14546E-26
9.19335E-01 1.10819E-26
9.21696E-01 1.07180E-26
9.24024E-01 1.03627E-26
9.26320E-01 1.00159E-26
9.28584E-01 9.67737E-27
9.30815E-01 9.34698E-27
9.33013E-01 9.02458E-27
9.35178E-01 8.71001E-27
9.37310E-01 8.40314E-27
9.39409E-01 8.10383E-27
9.41474E-01 7.81193E-27
9.43505E-01 7.52732E-27
9.45503E-01 7.24988E-27
9.47467E-01 6.97947E-27
9.49397E-01 6.71597E-27
9.51293E-01 6.45928E-27
9.53154E-01 6.20927E-27
9.54981E-01 5.96584E-27
9.56773E-01 5.72887E-27
9.58530E-01 5.49827E-27
9.60252E-01 5.27393E-27
9.61940E-01 5.05576E-27
9.63592E-01 4.84367E-27
9.65209E-01 4.63755E-27
9.66790E-01 4.43732E-27
9.68336E-01 4.24289E-27
9.69846E-01 4.05419E-27
9.71321E-01 3.87113E-27
9.72759E-01 3.69363E-27
9.74162E-01 3.52161E-27
9.75528E-01 3.35501E-27
9.76858E-01 3.19376E-27
9.78152E-01 3.03778E-27
9.79410E-01 2.88700E-27
9.80631E-01 2.74138E-27
9.81815E-01 2.60084E-27
9.82963E-01 2.46532E-27
9.84074E-01 2.33478E-27
9.85148E-01 2.20915E-27
9.86185E-01 2.08838E-27
9.87185E-01 1.97242E-27
9.88148E-01 1.86123E-27
9.89074E-01 1.75476E-27
9.89962E-01 1.65296E-27
9.90814E-01 1.55580E-27
9.91627E-01 1.46323E-27
9.92404E-01 1.37521E-27
9.93143E-01 1.29171E-27
9.93844E-01 1.21269E-27
9.94508E-01 1.13813E-27
9.95134E-01 1.06799E-27
9.95722E-01 1.00224E-27
9.96273E-01 9.40858E-28
9.96786E-01 8.83816E-28
9.97261E-01 8.31092E-28
9.97698E-01 7.82664E-28
9.98097E-01 7.38513E-28
9.98459E-01 6.98620E-28
9.98782E-01 6.62970E-28
9.99067E-01 6.31548E-28
9.99315E-01 6.04341E-28
9.99524E-01 5.81339E-28
9.99695E-01 5.62531E-28
9.99829E-01 5.47911E-28
9.99924E-01 5.37472E-28
9.99981E-01 5.31211E-28
1.00000E+00 5.29123E-28
