 #
 # Subroutine ELSEPA. Elastic scattering of electrons and positrons
 #                    by neutral atoms and positive ions
 #
 # Projectile: positron
 # Kinetic energy = 3.00000E+06 eV = 1.10248E+05 a.u.
 #
 # WARNING: High-energy factorization with free-atom DF screening.
 #          Absorption, polarization and exchange corrections are
 #          switched off.
 #          Phase shifts are calculated for the bare nucleus.
 #          Scattering amplitudes are not evaluated.
 #
 # Element:  I,  Z =  53,  atomic weight = 1.26904E+02 g/mol
 #
 # Nuclear model: Fermi distribution
 #                Average radius = 5.37703E-13 cm
 #                Skin thickness = 5.46000E-14 cm
 #
 # Number of electrons = 53
 #
 # Total elastic cross section = 5.81920E-18 cm**2 = 2.07808E-01 a0**2
 # 1st transport cross section = 2.77147E-22 cm**2 = 9.89710E-06 a0**2
 # 2nd transport cross section = 7.93953E-22 cm**2 = 2.83526E-05 a0**2
 #
 #
 # Differential cross section:                       MU=(1-COS(THETA))/2
 #
 #  THETA        MU          DCS          DCS        Sherman      error
 #  (deg)                 (cm**2/sr)   (a0**2/sr)    function
 #----------------------------------------------------------------------
0.00000E+00 5.43985E-13
7.61557E-13 5.43983E-13
1.18994E-12 5.43982E-13
1.71346E-12 5.43981E-13
2.33225E-12 5.43980E-13
3.04617E-12 5.43979E-13
3.85530E-12 5.43977E-13
4.75964E-12 5.43976E-13
5.75917E-12 5.43974E-13
6.85391E-12 5.43972E-13
8.04379E-12 5.43970E-13
9.32893E-12 5.43968E-13
1.07092E-11 5.43965E-13
1.21847E-11 5.43963E-13
1.37554E-11 5.43960E-13
1.54213E-11 5.43958E-13
1.71823E-11 5.43955E-13
1.90386E-11 5.43952E-13
2.09900E-11 5.43948E-13
2.30367E-11 5.43945E-13
2.51785E-11 5.43941E-13
2.74156E-11 5.43938E-13
2.97478E-11 5.43934E-13
3.21752E-11 5.43930E-13
3.46979E-11 5.43926E-13
3.73157E-11 5.43921E-13
4.00286E-11 5.43917E-13
4.28368E-11 5.43912E-13
4.57402E-11 5.43908E-13
4.87388E-11 5.43903E-13
5.18325E-11 5.43898E-13
5.50215E-11 5.43893E-13
5.83057E-11 5.43887E-13
6.16850E-11 5.43882E-13
6.51595E-11 5.43876E-13
6.87293E-11 5.43870E-13
7.23943E-11 5.43864E-13
7.61544E-11 5.43858E-13
1.18991E-10 5.43789E-13
1.71347E-10 5.43705E-13
2.33223E-10 5.43606E-13
3.04617E-10 5.43492E-13
3.85531E-10 5.43363E-13
4.75965E-10 5.43219E-13
5.75917E-10 5.43060E-13
6.85389E-10 5.42886E-13
8.04380E-10 5.42697E-13
9.32891E-10 5.42493E-13
1.07092E-09 5.42275E-13
1.21847E-09 5.42041E-13
1.37554E-09 5.41793E-13
1.54213E-09 5.41530E-13
1.71823E-09 5.41253E-13
1.90386E-09 5.40960E-13
2.09900E-09 5.40653E-13
2.30367E-09 5.40332E-13
2.51785E-09 5.39996E-13
2.74156E-09 5.39645E-13
2.97478E-09 5.39280E-13
3.21752E-09 5.38900E-13
3.46978E-09 5.38506E-13
3.73156E-09 5.38097E-13
4.00286E-09 5.37674E-13
4.28368E-09 5.37237E-13
4.57402E-09 5.36786E-13
4.87388E-09 5.36321E-13
5.18326E-09 5.35841E-13
5.50215E-09 5.35347E-13
5.83057E-09 5.34840E-13
6.16850E-09 5.34319E-13
6.51596E-09 5.33783E-13
6.87293E-09 5.33234E-13
7.23942E-09 5.32671E-13
7.61544E-09 5.32095E-13
1.18991E-08 5.25594E-13
1.71347E-08 5.17811E-13
2.33223E-08 5.08766E-13
3.04617E-08 4.98746E-13
3.85531E-08 4.87632E-13
4.75965E-08 4.75689E-13
5.75917E-08 4.63105E-13
6.85389E-08 4.49682E-13
8.04380E-08 4.35891E-13
9.32891E-08 4.21712E-13
1.07092E-07 4.07123E-13
1.21847E-07 3.92532E-13
1.37554E-07 3.77729E-13
1.54213E-07 3.62943E-13
1.71823E-07 3.48428E-13
1.90386E-07 3.33819E-13
2.09900E-07 3.19579E-13
2.30367E-07 3.05699E-13
2.51785E-07 2.91973E-13
2.74156E-07 2.78774E-13
2.97478E-07 2.65937E-13
3.21752E-07 2.53480E-13
3.46978E-07 2.41593E-13
3.73156E-07 2.30046E-13
4.00286E-07 2.19009E-13
4.28368E-07 2.08526E-13
4.57402E-07 1.98365E-13
4.87388E-07 1.88757E-13
5.18325E-07 1.79613E-13
5.50215E-07 1.70857E-13
5.83057E-07 1.62598E-13
6.16850E-07 1.54724E-13
6.51596E-07 1.47252E-13
6.87293E-07 1.40213E-13
7.23942E-07 1.33492E-13
7.61543E-07 1.27155E-13
1.18991E-06 7.99264E-14
1.71347E-06 5.27125E-14
2.33223E-06 3.60462E-14
3.04617E-06 2.59858E-14
3.85531E-06 1.90067E-14
4.75964E-06 1.42614E-14
5.75916E-06 1.09159E-14
6.85388E-06 8.38851E-15
8.04378E-06 6.56589E-15
9.32888E-06 5.19272E-15
1.07092E-05 4.14806E-15
1.21846E-05 3.35879E-15
1.37553E-05 2.74519E-15
1.54212E-05 2.26876E-15
1.71822E-05 1.89533E-15
1.90385E-05 1.59589E-15
2.09899E-05 1.35717E-15
2.30365E-05 1.16337E-15
2.51783E-05 1.00343E-15
2.74153E-05 8.71362E-16
2.97475E-05 7.60775E-16
3.21749E-05 6.67407E-16
3.46974E-05 5.88567E-16
3.73152E-05 5.20852E-16
4.00281E-05 4.62750E-16
4.28362E-05 4.12740E-16
4.57395E-05 3.68951E-16
4.87380E-05 3.30857E-16
5.18317E-05 2.97388E-16
5.50205E-05 2.67840E-16
5.83045E-05 2.41904E-16
6.16838E-05 2.18914E-16
6.51582E-05 1.98535E-16
6.87277E-05 1.80492E-16
7.23925E-05 1.64340E-16
7.61524E-05 1.49948E-16
9.21439E-05 1.05741E-16
1.09658E-04 7.64920E-17
1.28695E-04 5.66682E-17
1.49255E-04 4.28777E-17
1.71338E-04 3.30567E-17
1.94942E-04 2.58972E-17
2.20070E-04 2.05889E-17
2.46720E-04 1.65820E-17
2.74892E-04 1.35141E-17
3.04586E-04 1.11175E-17
3.35803E-04 9.23338E-18
3.68542E-04 7.73328E-18
4.02802E-04 6.52232E-18
4.38585E-04 5.54064E-18
4.75889E-04 4.73573E-18
5.14715E-04 4.07077E-18
5.55063E-04 3.51882E-18
5.96931E-04 3.05604E-18
6.40321E-04 2.66674E-18
6.85233E-04 2.33752E-18
7.31665E-04 2.05671E-18
7.79618E-04 1.81690E-18
8.29092E-04 1.61087E-18
8.80086E-04 1.43295E-18
9.32601E-04 1.27893E-18
9.86636E-04 1.14490E-18
1.04219E-03 1.02789E-18
1.09927E-03 9.25456E-19
1.15786E-03 8.35341E-19
1.21797E-03 7.55923E-19
1.27961E-03 6.85709E-19
1.34276E-03 6.23393E-19
1.40743E-03 5.68002E-19
1.47362E-03 5.18605E-19
1.54133E-03 4.74439E-19
1.61056E-03 4.34877E-19
1.68131E-03 3.99332E-19
1.75357E-03 3.67339E-19
1.82735E-03 3.38487E-19
1.90265E-03 3.12393E-19
1.97947E-03 2.88767E-19
2.05780E-03 2.67329E-19
2.13765E-03 2.47835E-19
2.21902E-03 2.30085E-19
2.30190E-03 2.13891E-19
2.38630E-03 1.99094E-19
2.47222E-03 1.85554E-19
2.55965E-03 1.73139E-19
2.64859E-03 1.61745E-19
2.73905E-03 1.51272E-19
2.83103E-03 1.41628E-19
2.92452E-03 1.32740E-19
3.01952E-03 1.24537E-19
3.11604E-03 1.16955E-19
3.21407E-03 1.09942E-19
3.31362E-03 1.03443E-19
3.41468E-03 9.74169E-20
3.51725E-03 9.18226E-20
3.62133E-03 8.66216E-20
3.72692E-03 8.17832E-20
3.83403E-03 7.72772E-20
3.94265E-03 7.30755E-20
4.05278E-03 6.91551E-20
4.16442E-03 6.54930E-20
4.27757E-03 6.20691E-20
4.39223E-03 5.88657E-20
4.50840E-03 5.58651E-20
4.62608E-03 5.30526E-20
4.74527E-03 5.04146E-20
4.86597E-03 4.79373E-20
4.98817E-03 4.56100E-20
5.11188E-03 4.34216E-20
5.23711E-03 4.13622E-20
5.36383E-03 3.94231E-20
5.49207E-03 3.75957E-20
5.62181E-03 3.58724E-20
5.75306E-03 3.42465E-20
5.88581E-03 3.27110E-20
6.02007E-03 3.12603E-20
6.15583E-03 2.98888E-20
6.29310E-03 2.85912E-20
6.43187E-03 2.73630E-20
6.57214E-03 2.61996E-20
6.71392E-03 2.50971E-20
6.85720E-03 2.40518E-20
7.00198E-03 2.30599E-20
7.14827E-03 2.21184E-20
7.29605E-03 2.12242E-20
7.44534E-03 2.03744E-20
7.59612E-03 1.95666E-20
7.97965E-03 1.77144E-20
8.37255E-03 1.60751E-20
8.77480E-03 1.46201E-20
9.18641E-03 1.33251E-20
9.60736E-03 1.21695E-20
1.00376E-02 1.11357E-20
1.04773E-02 1.02088E-20
1.09262E-02 9.37571E-21
1.13844E-02 8.62534E-21
1.18520E-02 7.94808E-21
1.23288E-02 7.33555E-21
1.28150E-02 6.78051E-21
1.33104E-02 6.27662E-21
1.38150E-02 5.81835E-21
1.43290E-02 5.40085E-21
1.48521E-02 5.01986E-21
1.53845E-02 4.67164E-21
1.59262E-02 4.35286E-21
1.64770E-02 4.06061E-21
1.70371E-02 3.79229E-21
1.76063E-02 3.54560E-21
1.81848E-02 3.31848E-21
1.87724E-02 3.10912E-21
1.93692E-02 2.91586E-21
1.99751E-02 2.73728E-21
2.05901E-02 2.57204E-21
2.12143E-02 2.41898E-21
2.18476E-02 2.27705E-21
2.24900E-02 2.14527E-21
2.31415E-02 2.02282E-21
2.38021E-02 1.90889E-21
2.44717E-02 1.80281E-21
2.51504E-02 1.70393E-21
2.58382E-02 1.61166E-21
2.65349E-02 1.52551E-21
2.72407E-02 1.44498E-21
2.79555E-02 1.36964E-21
2.86793E-02 1.29910E-21
2.94120E-02 1.23301E-21
3.01537E-02 1.17102E-21
3.09043E-02 1.11284E-21
3.16639E-02 1.05819E-21
3.24324E-02 1.00682E-21
3.32098E-02 9.58505E-22
3.39961E-02 9.13017E-22
3.47912E-02 8.70170E-22
3.55952E-02 8.29781E-22
3.64081E-02 7.91682E-22
3.72297E-02 7.55723E-22
3.80602E-02 7.21759E-22
3.88995E-02 6.89661E-22
3.97476E-02 6.59309E-22
4.06044E-02 6.30589E-22
4.14700E-02 6.03399E-22
4.23443E-02 5.77642E-22
4.32273E-02 5.53228E-22
4.41190E-02 5.30077E-22
4.50194E-02 5.08109E-22
4.59284E-02 4.87254E-22
4.68461E-02 4.67446E-22
4.87074E-02 4.30725E-22
5.06030E-02 3.97498E-22
5.25328E-02 3.67377E-22
5.44967E-02 3.40021E-22
5.64946E-02 3.15135E-22
5.85262E-02 2.92455E-22
6.05914E-02 2.71754E-22
6.26901E-02 2.52829E-22
6.48222E-02 2.35501E-22
6.69873E-02 2.19613E-22
6.91854E-02 2.05025E-22
7.14163E-02 1.91611E-22
7.36799E-02 1.79261E-22
7.59760E-02 1.67876E-22
7.83043E-02 1.57368E-22
8.06647E-02 1.47657E-22
8.30571E-02 1.38672E-22
8.54812E-02 1.30351E-22
8.79369E-02 1.22634E-22
9.04240E-02 1.15471E-22
9.29422E-02 1.08815E-22
9.54915E-02 1.02624E-22
9.80716E-02 9.68597E-23
1.00682E-01 9.14877E-23
1.03323E-01 8.64767E-23
1.05995E-01 8.17982E-23
1.08696E-01 7.74262E-23
1.11427E-01 7.33373E-23
1.14188E-01 6.95098E-23
1.16978E-01 6.59241E-23
1.19797E-01 6.25622E-23
1.22645E-01 5.94079E-23
1.25522E-01 5.64460E-23
1.28428E-01 5.36628E-23
1.31361E-01 5.10456E-23
1.34323E-01 4.85827E-23
1.37313E-01 4.62636E-23
1.40330E-01 4.40782E-23
1.43375E-01 4.20177E-23
1.46447E-01 4.00735E-23
1.49545E-01 3.82380E-23
1.52671E-01 3.65040E-23
1.55823E-01 3.48650E-23
1.59001E-01 3.33148E-23
1.62205E-01 3.18477E-23
1.65435E-01 3.04586E-23
1.68690E-01 2.91426E-23
1.71970E-01 2.78951E-23
1.75276E-01 2.67121E-23
1.78606E-01 2.55894E-23
1.81961E-01 2.45237E-23
1.85340E-01 2.35113E-23
1.88743E-01 2.25493E-23
1.92169E-01 2.16346E-23
1.95619E-01 2.07646E-23
1.99092E-01 1.99366E-23
2.02589E-01 1.91483E-23
2.06107E-01 1.83975E-23
2.09649E-01 1.76820E-23
2.13212E-01 1.70000E-23
2.16797E-01 1.63495E-23
2.20404E-01 1.57289E-23
2.24032E-01 1.51365E-23
2.27680E-01 1.45709E-23
2.31350E-01 1.40306E-23
2.35040E-01 1.35142E-23
2.38751E-01 1.30206E-23
2.42481E-01 1.25486E-23
2.46231E-01 1.20971E-23
2.50000E-01 1.16649E-23
2.53788E-01 1.12512E-23
2.57595E-01 1.08550E-23
2.61421E-01 1.04755E-23
2.65264E-01 1.01118E-23
2.69126E-01 9.76317E-24
2.73005E-01 9.42884E-24
2.76901E-01 9.10813E-24
2.80814E-01 8.80041E-24
2.84744E-01 8.50504E-24
2.88691E-01 8.22145E-24
2.92653E-01 7.94910E-24
2.96632E-01 7.68745E-24
3.00625E-01 7.43602E-24
3.04634E-01 7.19434E-24
3.08658E-01 6.96196E-24
3.12697E-01 6.73847E-24
3.16749E-01 6.52347E-24
3.20816E-01 6.31658E-24
3.24896E-01 6.11743E-24
3.28990E-01 5.92569E-24
3.33097E-01 5.74104E-24
3.37216E-01 5.56317E-24
3.41348E-01 5.39179E-24
3.45492E-01 5.22662E-24
3.49647E-01 5.06740E-24
3.53814E-01 4.91388E-24
3.57992E-01 4.76582E-24
3.62181E-01 4.62299E-24
3.66381E-01 4.48518E-24
3.70590E-01 4.35217E-24
3.74810E-01 4.22378E-24
3.79039E-01 4.09982E-24
3.83277E-01 3.98010E-24
3.87524E-01 3.86446E-24
3.91780E-01 3.75273E-24
3.96044E-01 3.64476E-24
4.00316E-01 3.54040E-24
4.04596E-01 3.43952E-24
4.08882E-01 3.34197E-24
4.13176E-01 3.24763E-24
4.17476E-01 3.15638E-24
4.21783E-01 3.06809E-24
4.26095E-01 2.98266E-24
4.30413E-01 2.89997E-24
4.34737E-01 2.81993E-24
4.39065E-01 2.74243E-24
4.43398E-01 2.66737E-24
4.47736E-01 2.59468E-24
4.52077E-01 2.52426E-24
4.56422E-01 2.45604E-24
4.60770E-01 2.38992E-24
4.65122E-01 2.32584E-24
4.69476E-01 2.26372E-24
4.73832E-01 2.20349E-24
4.78190E-01 2.14509E-24
4.82550E-01 2.08845E-24
4.86912E-01 2.03351E-24
4.91274E-01 1.98021E-24
4.95637E-01 1.92849E-24
5.00000E-01 1.87830E-24
5.04363E-01 1.82958E-24
5.08726E-01 1.78229E-24
5.13088E-01 1.73637E-24
5.17450E-01 1.69179E-24
5.21810E-01 1.64849E-24
5.26168E-01 1.60643E-24
5.30524E-01 1.56557E-24
5.34878E-01 1.52588E-24
5.39230E-01 1.48731E-24
5.43578E-01 1.44982E-24
5.47923E-01 1.41339E-24
5.52264E-01 1.37797E-24
5.56602E-01 1.34354E-24
5.60935E-01 1.31006E-24
5.65263E-01 1.27750E-24
5.69587E-01 1.24583E-24
5.73905E-01 1.21503E-24
5.78217E-01 1.18506E-24
5.82524E-01 1.15590E-24
5.86824E-01 1.12753E-24
5.91118E-01 1.09992E-24
5.95404E-01 1.07305E-24
5.99684E-01 1.04689E-24
6.03956E-01 1.02143E-24
6.08220E-01 9.96638E-25
6.12476E-01 9.72497E-25
6.16723E-01 9.48987E-25
6.20961E-01 9.26090E-25
6.25190E-01 9.03788E-25
6.29410E-01 8.82061E-25
6.33619E-01 8.60895E-25
6.37819E-01 8.40271E-25
6.42008E-01 8.20174E-25
6.46186E-01 8.00589E-25
6.50353E-01 7.81500E-25
6.54508E-01 7.62894E-25
6.58652E-01 7.44757E-25
6.62784E-01 7.27075E-25
6.66903E-01 7.09835E-25
6.71010E-01 6.93024E-25
6.75104E-01 6.76631E-25
6.79184E-01 6.60643E-25
6.83251E-01 6.45050E-25
6.87303E-01 6.29839E-25
6.91342E-01 6.15001E-25
6.95366E-01 6.00524E-25
6.99375E-01 5.86400E-25
7.03368E-01 5.72618E-25
7.07347E-01 5.59169E-25
7.11309E-01 5.46044E-25
7.15256E-01 5.33234E-25
7.19186E-01 5.20731E-25
7.23099E-01 5.08527E-25
7.26995E-01 4.96613E-25
7.30874E-01 4.84982E-25
7.34736E-01 4.73626E-25
7.38579E-01 4.62538E-25
7.42405E-01 4.51712E-25
7.46212E-01 4.41139E-25
7.50000E-01 4.30814E-25
7.53769E-01 4.20730E-25
7.57519E-01 4.10881E-25
7.61249E-01 4.01260E-25
7.64960E-01 3.91863E-25
7.68650E-01 3.82682E-25
7.72320E-01 3.73714E-25
7.75968E-01 3.64951E-25
7.79596E-01 3.56390E-25
7.83203E-01 3.48025E-25
7.86788E-01 3.39852E-25
7.90351E-01 3.31865E-25
7.93893E-01 3.24060E-25
7.97411E-01 3.16432E-25
8.00908E-01 3.08978E-25
8.04381E-01 3.01693E-25
8.07831E-01 2.94572E-25
8.11257E-01 2.87613E-25
8.14660E-01 2.80810E-25
8.18039E-01 2.74161E-25
8.21394E-01 2.67662E-25
8.24724E-01 2.61308E-25
8.28030E-01 2.55097E-25
8.31310E-01 2.49026E-25
8.34565E-01 2.43090E-25
8.37795E-01 2.37287E-25
8.40999E-01 2.31614E-25
8.44177E-01 2.26068E-25
8.47329E-01 2.20645E-25
8.50455E-01 2.15344E-25
8.53553E-01 2.10161E-25
8.56625E-01 2.05094E-25
8.59670E-01 2.00140E-25
8.62687E-01 1.95296E-25
8.65677E-01 1.90561E-25
8.68639E-01 1.85932E-25
8.71572E-01 1.81407E-25
8.74478E-01 1.76983E-25
8.77355E-01 1.72657E-25
8.80203E-01 1.68429E-25
8.83022E-01 1.64296E-25
8.85812E-01 1.60255E-25
8.88573E-01 1.56306E-25
8.91304E-01 1.52445E-25
8.94005E-01 1.48671E-25
8.96677E-01 1.44983E-25
8.99318E-01 1.41378E-25
9.01928E-01 1.37856E-25
9.04508E-01 1.34413E-25
9.07058E-01 1.31049E-25
9.09576E-01 1.27762E-25
9.12063E-01 1.24551E-25
9.14519E-01 1.21414E-25
9.16943E-01 1.18350E-25
9.19335E-01 1.15356E-25
9.21696E-01 1.12433E-25
9.24024E-01 1.09578E-25
9.26320E-01 1.06791E-25
9.28584E-01 1.04069E-25
9.30815E-01 1.01413E-25
9.33013E-01 9.88195E-26
9.35178E-01 9.62889E-26
9.37310E-01 9.38197E-26
9.39409E-01 9.14107E-26
9.41474E-01 8.90609E-26
9.43505E-01 8.67693E-26
9.45503E-01 8.45348E-26
9.47467E-01 8.23566E-26
9.49397E-01 8.02336E-26
9.51293E-01 7.81650E-26
9.53154E-01 7.61499E-26
9.54981E-01 7.41873E-26
9.56773E-01 7.22765E-26
9.58530E-01 7.04167E-26
9.60252E-01 6.86071E-26
9.61940E-01 6.68468E-26
9.63592E-01 6.51352E-26
9.65209E-01 6.34716E-26
9.66790E-01 6.18553E-26
9.68336E-01 6.02855E-26
9.69846E-01 5.87616E-26
9.71321E-01 5.72830E-26
9.72759E-01 5.58492E-26
9.74162E-01 5.44594E-26
9.75528E-01 5.31132E-26
9.76858E-01 5.18099E-26
9.78152E-01 5.05491E-26
9.79410E-01 4.93302E-26
9.80631E-01 4.81528E-26
9.81815E-01 4.70163E-26
9.82963E-01 4.59203E-26
9.84074E-01 4.48643E-26
9.85148E-01 4.38480E-26
9.86185E-01 4.28709E-26
9.87185E-01 4.19326E-26
9.88148E-01 4.10328E-26
9.89074E-01 4.01711E-26
9.89962E-01 3.93471E-26
9.90814E-01 3.85605E-26
9.91627E-01 3.78111E-26
9.92404E-01 3.70984E-26
9.93143E-01 3.64223E-26
9.93844E-01 3.57824E-26
9.94508E-01 3.51786E-26
9.95134E-01 3.46105E-26
9.95722E-01 3.40779E-26
9.96273E-01 3.35807E-26
9.96786E-01 3.31186E-26
9.97261E-01 3.26914E-26
9.97698E-01 3.22991E-26
9.98097E-01 3.19414E-26
9.98459E-01 3.16181E-26
9.98782E-01 3.13293E-26
9.99067E-01 3.10746E-26
9.99315E-01 3.08542E-26
9.99524E-01 3.06678E-26
9.99695E-01 3.05153E-26
9.99829E-01 3.03969E-26
9.99924E-01 3.03123E-26
9.99981E-01 3.02615E-26
1.00000E+00 3.02446E-26
