 #
 # Subroutine ELSEPA. Elastic scattering of electrons and positrons
 #                    by neutral atoms and positive ions
 #
 # Projectile: positron
 # Kinetic energy = 7.00000E+08 eV = 2.57245E+07 a.u.
 #
 # WARNING: High-energy factorization with free-atom DF screening.
 #          Absorption, polarization and exchange corrections are
 #          switched off.
 #          Phase shifts are calculated for the bare nucleus.
 #          Scattering amplitudes are not evaluated.
 #
 # Element:  I,  Z =  53,  atomic weight = 1.26904E+02 g/mol
 #
 # Nuclear model: Fermi distribution
 #                Average radius = 5.37703E-13 cm
 #                Skin thickness = 5.46000E-14 cm
 #
 # Number of electrons = 53
 #
 # Total elastic cross section = 5.69622E-18 cm**2 = 2.03416E-01 a0**2
 # 1st transport cross section = 1.11560E-26 cm**2 = 3.98388E-10 a0**2
 # 2nd transport cross section = 3.34611E-26 cm**2 = 1.19492E-09 a0**2
 #
 #
 # Differential cross section:                       MU=(1-COS(THETA))/2
 #
 #  THETA        MU          DCS          DCS        Sherman      error
 #  (deg)                 (cm**2/sr)   (a0**2/sr)    function
 #----------------------------------------------------------------------
0.00000E+00 2.16548E-08
7.61557E-13 1.98280E-08
1.18994E-12 1.88980E-08
1.71346E-12 1.78507E-08
2.33225E-12 1.67260E-08
3.04617E-12 1.55504E-08
3.85530E-12 1.43643E-08
4.75964E-12 1.31989E-08
5.75917E-12 1.20738E-08
6.85391E-12 1.09970E-08
8.04379E-12 9.99035E-09
9.32893E-12 9.05918E-09
1.07092E-11 8.20146E-09
1.21847E-11 7.41837E-09
1.37554E-11 6.71049E-09
1.54213E-11 6.07325E-09
1.71823E-11 5.49829E-09
1.90386E-11 4.98391E-09
2.09900E-11 4.52460E-09
2.30367E-11 4.11412E-09
2.51785E-11 3.74686E-09
2.74156E-11 3.41928E-09
2.97478E-11 3.12682E-09
3.21752E-11 2.86475E-09
3.46979E-11 2.62996E-09
3.73157E-11 2.41948E-09
4.00286E-11 2.23036E-09
4.28368E-11 2.05965E-09
4.57402E-11 1.90569E-09
4.87388E-11 1.76124E-09
5.18325E-11 1.62969E-09
5.50215E-11 1.51237E-09
5.83057E-11 1.40743E-09
6.16850E-11 1.31329E-09
6.51595E-11 1.22861E-09
6.87293E-11 1.15223E-09
7.23943E-11 1.08316E-09
7.61544E-11 1.01284E-09
1.18991E-10 5.55379E-10
1.71347E-10 3.26374E-10
2.33223E-10 2.01892E-10
3.04617E-10 1.30393E-10
3.85531E-10 8.81099E-11
4.75965E-10 6.20303E-11
5.75917E-10 4.52076E-11
6.85389E-10 3.38666E-11
8.04380E-10 2.59592E-11
9.32891E-10 2.02670E-11
1.07092E-09 1.60504E-11
1.21847E-09 1.28638E-11
1.37554E-09 1.04154E-11
1.54213E-09 8.51481E-12
1.71823E-09 7.01774E-12
1.90386E-09 5.83058E-12
2.09900E-09 4.88022E-12
2.30367E-09 4.11240E-12
2.51785E-09 3.48727E-12
2.74156E-09 2.97588E-12
2.97478E-09 2.55480E-12
3.21752E-09 2.20564E-12
3.46978E-09 1.91440E-12
3.73156E-09 1.66998E-12
4.00286E-09 1.46356E-12
4.28368E-09 1.28815E-12
4.57402E-09 1.13844E-12
4.87388E-09 1.00972E-12
5.18326E-09 8.98973E-13
5.50215E-09 8.03451E-13
5.83057E-09 7.20199E-13
6.16850E-09 6.47396E-13
6.51596E-09 5.83832E-13
6.87293E-09 5.27873E-13
7.23942E-09 4.78321E-13
7.61544E-09 4.34611E-13
1.18991E-08 1.85675E-13
1.71347E-08 9.18967E-14
2.33223E-08 5.04319E-14
3.04617E-08 2.99001E-14
3.85531E-08 1.88246E-14
4.75965E-08 1.24337E-14
5.75917E-08 8.53963E-15
6.85389E-08 6.05822E-15
8.04380E-08 4.41664E-15
9.32891E-08 3.29557E-15
1.07092E-07 2.50883E-15
1.21847E-07 1.94353E-15
1.37554E-07 1.52886E-15
1.54213E-07 1.21912E-15
1.71823E-07 9.83978E-16
1.90386E-07 8.02880E-16
2.09900E-07 6.61578E-16
2.30367E-07 5.50022E-16
2.51785E-07 4.61008E-16
2.74156E-07 3.89285E-16
2.97478E-07 3.30974E-16
3.21752E-07 2.83178E-16
3.46978E-07 2.43700E-16
3.73156E-07 2.10864E-16
4.00286E-07 1.83373E-16
4.28368E-07 1.60217E-16
4.57402E-07 1.40601E-16
4.87388E-07 1.23895E-16
5.18325E-07 1.09596E-16
5.50215E-07 9.73012E-17
5.83057E-07 8.66820E-17
6.16850E-07 7.74720E-17
6.51596E-07 6.94523E-17
6.87293E-07 6.24436E-17
7.23942E-07 5.62967E-17
7.61543E-07 5.08873E-17
1.18991E-06 2.08783E-17
1.71347E-06 1.00767E-17
2.33223E-06 5.44132E-18
3.04617E-06 3.19020E-18
3.85531E-06 1.99177E-18
4.75964E-06 1.30679E-18
5.75916E-06 8.92515E-19
6.85388E-06 6.30125E-19
8.04378E-06 4.57441E-19
9.32888E-06 3.40052E-19
1.07092E-05 2.58011E-19
1.21846E-05 1.99280E-19
1.37553E-05 1.56346E-19
1.54212E-05 1.24374E-19
1.71822E-05 1.00170E-19
1.90385E-05 8.15525E-20
2.09899E-05 6.71080E-20
2.30365E-05 5.57187E-20
2.51783E-05 4.66380E-20
2.74153E-05 3.93273E-20
2.97475E-05 3.33909E-20
3.21749E-05 2.85328E-20
3.46974E-05 2.45281E-20
3.73152E-05 2.12037E-20
4.00281E-05 1.84251E-20
4.28362E-05 1.60878E-20
4.57395E-05 1.41092E-20
4.87380E-05 1.24251E-20
5.18317E-05 1.09842E-20
5.50205E-05 9.74572E-21
5.83045E-05 8.67672E-21
6.16838E-05 7.75032E-21
6.51582E-05 6.94445E-21
6.87277E-05 6.24080E-21
7.23925E-05 5.62416E-21
7.61524E-05 5.08398E-21
9.21439E-05 3.46336E-21
1.09658E-04 2.43754E-21
1.28695E-04 1.76324E-21
1.49255E-04 1.30526E-21
1.71338E-04 9.85711E-22
1.94942E-04 7.57307E-22
2.20070E-04 5.90667E-22
2.46720E-04 4.66856E-22
2.74892E-04 3.73359E-22
3.04586E-04 3.01745E-22
3.35803E-04 2.46170E-22
3.68542E-04 2.02543E-22
4.02802E-04 1.67932E-22
4.38585E-04 1.40208E-22
4.75889E-04 1.17808E-22
5.14715E-04 9.95621E-23
5.55063E-04 8.45918E-23
5.96931E-04 7.22247E-23
6.40321E-04 6.19443E-23
6.85233E-04 5.33488E-23
7.31665E-04 4.61231E-23
7.79618E-04 4.00188E-23
8.29092E-04 3.48374E-23
8.80086E-04 3.04205E-23
9.32601E-04 2.66398E-23
9.86636E-04 2.33913E-23
1.04219E-03 2.05902E-23
1.09927E-03 1.81668E-23
1.15786E-03 1.60635E-23
1.21797E-03 1.42326E-23
1.27961E-03 1.26344E-23
1.34276E-03 1.12357E-23
1.40743E-03 1.00085E-23
1.47362E-03 8.92935E-24
1.54133E-03 7.97821E-24
1.61056E-03 7.13818E-24
1.68131E-03 6.39483E-24
1.75357E-03 5.73579E-24
1.82735E-03 5.15049E-24
1.90265E-03 4.62981E-24
1.97947E-03 4.16589E-24
2.05780E-03 3.75192E-24
2.13765E-03 3.38201E-24
2.21902E-03 3.05103E-24
2.30190E-03 2.75451E-24
2.38630E-03 2.48855E-24
2.47222E-03 2.24973E-24
2.55965E-03 2.03506E-24
2.64859E-03 1.84190E-24
2.73905E-03 1.66793E-24
2.83103E-03 1.51110E-24
2.92452E-03 1.36961E-24
3.01952E-03 1.24187E-24
3.11604E-03 1.12644E-24
3.21407E-03 1.02207E-24
3.31362E-03 9.27637E-25
3.41468E-03 8.42147E-25
3.51725E-03 7.64708E-25
3.62133E-03 6.94526E-25
3.72692E-03 6.30890E-25
3.83403E-03 5.73163E-25
3.94265E-03 5.20775E-25
4.05278E-03 4.73216E-25
4.16442E-03 4.30024E-25
4.27757E-03 3.90788E-25
4.39223E-03 3.55135E-25
4.50840E-03 3.22730E-25
4.62608E-03 2.93271E-25
4.74527E-03 2.66485E-25
4.86597E-03 2.42127E-25
4.98817E-03 2.19973E-25
5.11188E-03 1.99821E-25
5.23711E-03 1.81491E-25
5.36383E-03 1.64816E-25
5.49207E-03 1.49647E-25
5.62181E-03 1.35848E-25
5.75306E-03 1.23296E-25
5.88581E-03 1.11878E-25
6.02007E-03 1.01494E-25
6.15583E-03 9.20506E-26
6.29310E-03 8.34639E-26
6.43187E-03 7.56576E-26
6.57214E-03 6.85619E-26
6.71392E-03 6.21137E-26
6.85720E-03 5.62551E-26
7.00198E-03 5.09337E-26
7.14827E-03 4.61015E-26
7.29605E-03 4.17149E-26
7.44534E-03 3.77342E-26
7.59612E-03 3.41229E-26
7.97965E-03 2.65014E-26
8.37255E-03 2.05480E-26
8.77480E-03 1.59107E-26
9.18641E-03 1.23102E-26
9.60736E-03 9.52399E-27
1.00376E-02 7.37584E-27
1.04773E-02 5.72583E-27
1.09262E-02 4.46324E-27
1.13844E-02 3.50065E-27
1.18520E-02 2.76920E-27
1.23288E-02 2.21485E-27
1.28150E-02 1.79536E-27
1.33104E-02 1.47788E-27
1.38150E-02 1.23697E-27
1.43290E-02 1.05308E-27
1.48521E-02 9.11293E-28
1.53845E-02 8.00325E-28
1.59262E-02 7.11717E-28
1.64770E-02 6.39209E-28
1.70371E-02 5.78231E-28
1.76063E-02 5.25500E-28
1.81848E-02 4.78707E-28
1.87724E-02 4.36269E-28
1.93692E-02 3.97132E-28
1.99751E-02 3.60626E-28
2.05901E-02 3.26348E-28
2.12143E-02 2.94080E-28
2.18476E-02 2.63717E-28
2.24900E-02 2.35227E-28
2.31415E-02 2.08611E-28
2.38021E-02 1.83886E-28
2.44717E-02 1.61063E-28
2.51504E-02 1.40142E-28
2.58382E-02 1.21105E-28
2.65349E-02 1.03916E-28
2.72407E-02 8.85150E-29
2.79555E-02 7.48292E-29
2.86793E-02 6.27681E-29
2.94120E-02 5.22295E-29
3.01537E-02 4.31026E-29
3.09043E-02 3.52708E-29
3.16639E-02 2.86149E-29
3.24324E-02 2.30157E-29
3.32098E-02 1.83562E-29
3.39961E-02 1.45237E-29
3.47912E-02 1.14112E-29
3.55952E-02 8.91854E-30
3.64081E-02 6.95328E-30
3.72297E-02 5.43112E-30
3.80602E-02 4.27620E-30
3.88995E-02 3.42104E-30
3.97476E-02 2.80639E-30
4.06044E-02 2.38090E-30
4.14700E-02 2.10061E-30
4.23443E-02 1.92849E-30
4.32273E-02 1.83379E-30
4.41190E-02 1.79144E-30
4.50194E-02 1.78140E-30
4.59284E-02 1.78809E-30
4.68461E-02 1.79971E-30
4.87074E-02 1.80634E-30
5.06030E-02 1.76270E-30
5.25328E-02 1.65919E-30
5.44967E-02 1.50344E-30
5.64946E-02 1.31158E-30
5.85262E-02 1.10214E-30
6.05914E-02 8.92290E-31
6.26901E-02 6.95683E-31
6.48222E-02 5.21722E-31
6.69873E-02 3.75607E-31
6.91854E-02 2.58927E-31
7.14163E-02 1.70489E-31
7.36799E-02 1.07214E-31
7.59760E-02 6.49584E-32
7.83043E-02 3.92009E-32
8.06647E-02 2.55534E-32
8.30571E-02 2.01070E-32
8.54812E-02 1.96251E-32
8.79369E-02 2.16125E-32
9.04240E-02 2.42946E-32
9.29422E-02 2.65356E-32
9.54915E-02 2.77234E-32
9.80716E-02 2.76434E-32
1.00682E-01 2.63559E-32
1.03323E-01 2.40884E-32
1.05995E-01 2.11481E-32
1.08696E-01 1.78558E-32
1.11427E-01 1.45020E-32
1.14188E-01 1.13206E-32
1.16978E-01 8.47805E-33
1.19797E-01 6.07340E-33
1.22645E-01 4.14612E-33
1.25522E-01 2.68768E-33
1.28428E-01 1.65504E-33
1.31361E-01 9.83668E-34
1.34323E-01 5.99079E-34
1.37313E-01 4.26078E-34
1.40330E-01 3.95445E-34
1.43375E-01 4.48199E-34
1.46447E-01 5.37694E-34
1.49545E-01 6.30012E-34
1.52671E-01 7.03072E-34
1.55823E-01 7.44947E-34
1.59001E-01 7.51747E-34
1.62205E-01 7.25412E-34
1.65435E-01 6.71627E-34
1.68690E-01 5.98027E-34
1.71970E-01 5.12765E-34
1.75276E-01 4.23466E-34
1.78606E-01 3.36559E-34
1.81961E-01 2.56922E-34
1.85340E-01 1.87792E-34
1.88743E-01 1.30863E-34
1.92169E-01 8.65076E-35
1.95619E-01 5.40725E-35
1.99092E-01 3.21842E-35
2.02589E-01 1.90447E-35
2.06107E-01 1.26881E-35
2.09649E-01 1.11835E-35
2.13212E-01 1.27827E-35
2.16797E-01 1.60125E-35
2.20404E-01 1.97199E-35
2.24032E-01 2.30773E-35
2.27680E-01 2.55599E-35
2.31350E-01 2.69030E-35
2.35040E-01 2.70491E-35
2.38751E-01 2.60929E-35
2.42481E-01 2.42280E-35
2.46231E-01 2.16994E-35
2.50000E-01 1.87661E-35
2.53788E-01 1.56727E-35
2.57595E-01 1.26286E-35
2.61421E-01 9.79863E-36
2.65264E-01 7.29804E-36
2.69126E-01 5.19446E-36
2.73005E-01 3.51309E-36
2.76901E-01 2.24457E-36
2.80814E-01 1.35362E-36
2.84744E-01 7.87722E-37
2.88691E-01 4.85258E-37
2.92653E-01 3.82234E-37
2.96632E-01 4.17574E-37
3.00625E-01 5.36903E-37
3.04634E-01 6.94851E-37
3.08658E-01 8.56148E-37
3.12697E-01 9.95551E-37
3.16749E-01 1.09722E-36
3.20816E-01 1.15339E-36
3.24896E-01 1.16277E-36
3.28990E-01 1.12904E-36
3.33097E-01 1.05909E-36
3.37216E-01 9.61695E-37
3.41348E-01 8.46185E-37
3.45492E-01 7.21673E-37
3.49647E-01 5.96181E-37
3.53814E-01 4.76361E-37
3.57992E-01 3.67207E-37
3.62181E-01 2.72066E-37
3.66381E-01 1.92714E-37
3.70590E-01 1.29656E-37
3.74810E-01 8.22188E-38
3.79039E-01 4.90166E-38
3.83277E-01 2.80721E-38
3.87524E-01 1.71481E-38
3.91780E-01 1.39234E-38
3.96044E-01 1.61723E-38
4.00316E-01 2.18787E-38
4.04596E-01 2.93176E-38
4.08882E-01 3.71042E-38
4.13176E-01 4.41904E-38
4.17476E-01 4.98745E-38
4.21783E-01 5.37400E-38
4.26095E-01 5.56227E-38
4.30413E-01 5.55817E-38
4.34737E-01 5.37909E-38
4.39065E-01 5.05551E-38
4.43398E-01 4.62080E-38
4.47736E-01 4.11255E-38
4.52077E-01 3.56335E-38
4.56422E-01 3.00501E-38
4.60770E-01 2.46363E-38
4.65122E-01 1.95950E-38
4.69476E-01 1.50772E-38
4.73832E-01 1.11731E-38
4.78190E-01 7.93038E-39
4.82550E-01 1.00000E-45
4.86912E-01 1.00000E-45
4.91274E-01 1.00000E-45
4.95637E-01 1.00000E-45
5.00000E-01 1.00000E-45
5.04363E-01 1.00000E-45
5.08726E-01 1.00000E-45
5.13088E-01 1.00000E-45
5.17450E-01 1.00000E-45
5.21810E-01 1.00000E-45
5.26168E-01 1.00000E-45
5.30524E-01 1.00000E-45
5.34878E-01 1.00000E-45
5.39230E-01 1.00000E-45
5.43578E-01 1.00000E-45
5.47923E-01 1.00000E-45
5.52264E-01 1.00000E-45
5.56602E-01 1.00000E-45
5.60935E-01 1.00000E-45
5.65263E-01 1.00000E-45
5.69587E-01 1.00000E-45
5.73905E-01 1.00000E-45
5.78217E-01 1.00000E-45
5.82524E-01 1.00000E-45
5.86824E-01 1.00000E-45
5.91118E-01 1.00000E-45
5.95404E-01 1.00000E-45
5.99684E-01 1.00000E-45
6.03956E-01 1.00000E-45
6.08220E-01 1.00000E-45
6.12476E-01 1.00000E-45
6.16723E-01 1.00000E-45
6.20961E-01 1.00000E-45
6.25190E-01 1.00000E-45
6.29410E-01 1.00000E-45
6.33619E-01 1.00000E-45
6.37819E-01 1.00000E-45
6.42008E-01 1.00000E-45
6.46186E-01 1.00000E-45
6.50353E-01 1.00000E-45
6.54508E-01 1.00000E-45
6.58652E-01 1.00000E-45
6.62784E-01 1.00000E-45
6.66903E-01 1.00000E-45
6.71010E-01 1.00000E-45
6.75104E-01 1.00000E-45
6.79184E-01 1.00000E-45
6.83251E-01 1.00000E-45
6.87303E-01 1.00000E-45
6.91342E-01 1.00000E-45
6.95366E-01 1.00000E-45
6.99375E-01 1.00000E-45
7.03368E-01 1.00000E-45
7.07347E-01 1.00000E-45
7.11309E-01 1.00000E-45
7.15256E-01 1.00000E-45
7.19186E-01 1.00000E-45
7.23099E-01 1.00000E-45
7.26995E-01 1.00000E-45
7.30874E-01 1.00000E-45
7.34736E-01 1.00000E-45
7.38579E-01 1.00000E-45
7.42405E-01 1.00000E-45
7.46212E-01 1.00000E-45
7.50000E-01 1.00000E-45
7.53769E-01 1.00000E-45
7.57519E-01 1.00000E-45
7.61249E-01 1.00000E-45
7.64960E-01 1.00000E-45
7.68650E-01 1.00000E-45
7.72320E-01 1.00000E-45
7.75968E-01 1.00000E-45
7.79596E-01 1.00000E-45
7.83203E-01 1.00000E-45
7.86788E-01 1.00000E-45
7.90351E-01 1.00000E-45
7.93893E-01 1.00000E-45
7.97411E-01 1.00000E-45
8.00908E-01 1.00000E-45
8.04381E-01 1.00000E-45
8.07831E-01 1.00000E-45
8.11257E-01 1.00000E-45
8.14660E-01 1.00000E-45
8.18039E-01 1.00000E-45
8.21394E-01 1.00000E-45
8.24724E-01 1.00000E-45
8.28030E-01 1.00000E-45
8.31310E-01 1.00000E-45
8.34565E-01 1.00000E-45
8.37795E-01 1.00000E-45
8.40999E-01 1.00000E-45
8.44177E-01 1.00000E-45
8.47329E-01 1.00000E-45
8.50455E-01 1.00000E-45
8.53553E-01 1.00000E-45
8.56625E-01 1.00000E-45
8.59670E-01 1.00000E-45
8.62687E-01 1.00000E-45
8.65677E-01 1.00000E-45
8.68639E-01 1.00000E-45
8.71572E-01 1.00000E-45
8.74478E-01 1.00000E-45
8.77355E-01 1.00000E-45
8.80203E-01 1.00000E-45
8.83022E-01 1.00000E-45
8.85812E-01 1.00000E-45
8.88573E-01 1.00000E-45
8.91304E-01 1.00000E-45
8.94005E-01 1.00000E-45
8.96677E-01 1.00000E-45
8.99318E-01 1.00000E-45
9.01928E-01 1.00000E-45
9.04508E-01 1.00000E-45
9.07058E-01 1.00000E-45
9.09576E-01 1.00000E-45
9.12063E-01 1.00000E-45
9.14519E-01 1.00000E-45
9.16943E-01 1.00000E-45
9.19335E-01 1.00000E-45
9.21696E-01 1.00000E-45
9.24024E-01 1.00000E-45
9.26320E-01 1.00000E-45
9.28584E-01 1.00000E-45
9.30815E-01 1.00000E-45
9.33013E-01 1.00000E-45
9.35178E-01 1.00000E-45
9.37310E-01 1.00000E-45
9.39409E-01 1.00000E-45
9.41474E-01 1.00000E-45
9.43505E-01 1.00000E-45
9.45503E-01 1.00000E-45
9.47467E-01 1.00000E-45
9.49397E-01 1.00000E-45
9.51293E-01 1.00000E-45
9.53154E-01 1.00000E-45
9.54981E-01 1.00000E-45
9.56773E-01 1.00000E-45
9.58530E-01 1.00000E-45
9.60252E-01 1.00000E-45
9.61940E-01 1.00000E-45
9.63592E-01 1.00000E-45
9.65209E-01 1.00000E-45
9.66790E-01 1.00000E-45
9.68336E-01 1.00000E-45
9.69846E-01 1.00000E-45
9.71321E-01 1.00000E-45
9.72759E-01 1.00000E-45
9.74162E-01 1.00000E-45
9.75528E-01 1.00000E-45
9.76858E-01 1.00000E-45
9.78152E-01 1.00000E-45
9.79410E-01 1.00000E-45
9.80631E-01 1.00000E-45
9.81815E-01 1.00000E-45
9.82963E-01 1.00000E-45
9.84074E-01 1.00000E-45
9.85148E-01 1.00000E-45
9.86185E-01 1.00000E-45
9.87185E-01 1.00000E-45
9.88148E-01 1.00000E-45
9.89074E-01 1.00000E-45
9.89962E-01 1.00000E-45
9.90814E-01 1.00000E-45
9.91627E-01 1.00000E-45
9.92404E-01 1.00000E-45
9.93143E-01 1.00000E-45
9.93844E-01 1.00000E-45
9.94508E-01 1.00000E-45
9.95134E-01 1.00000E-45
9.95722E-01 1.00000E-45
9.96273E-01 1.00000E-45
9.96786E-01 1.00000E-45
9.97261E-01 1.00000E-45
9.97698E-01 1.00000E-45
9.98097E-01 1.00000E-45
9.98459E-01 1.00000E-45
9.98782E-01 1.00000E-45
9.99067E-01 1.00000E-45
9.99315E-01 1.00000E-45
9.99524E-01 1.00000E-45
9.99695E-01 1.00000E-45
9.99829E-01 1.00000E-45
9.99924E-01 1.00000E-45
9.99981E-01 1.00000E-45
1.00000E+00 1.00000E-45
