 #
 # Subroutine ELSEPA. Elastic scattering of electrons and positrons
 #                    by neutral atoms and positive ions
 #
 # Projectile: positron
 # Kinetic energy = 1.00000E+09 eV = 3.67493E+07 a.u.
 #
 # WARNING: High-energy factorization with free-atom DF screening.
 #          Absorption, polarization and exchange corrections are
 #          switched off.
 #          Phase shifts are calculated for the bare nucleus.
 #          Scattering amplitudes are not evaluated.
 #
 # Element:  I,  Z =  53,  atomic weight = 1.26904E+02 g/mol
 #
 # Nuclear model: Fermi distribution
 #                Average radius = 5.37703E-13 cm
 #                Skin thickness = 5.46000E-14 cm
 #
 # Number of electrons = 53
 #
 # Total elastic cross section = 5.67328E-18 cm**2 = 2.02597E-01 a0**2
 # 1st transport cross section = 5.47390E-27 cm**2 = 1.95476E-10 a0**2
 # 2nd transport cross section = 1.64200E-26 cm**2 = 5.86370E-10 a0**2
 #
 #
 # Differential cross section:                       MU=(1-COS(THETA))/2
 #
 #  THETA        MU          DCS          DCS        Sherman      error
 #  (deg)                 (cm**2/sr)   (a0**2/sr)    function
 #----------------------------------------------------------------------
0.00000E+00 4.41742E-08
7.61557E-13 3.70481E-08
1.18994E-12 3.37830E-08
1.71346E-12 3.03510E-08
2.33225E-12 2.69298E-08
3.04617E-12 2.36726E-08
3.85530E-12 2.06695E-08
4.75964E-12 1.79680E-08
5.75917E-12 1.55827E-08
6.85391E-12 1.35012E-08
8.04379E-12 1.17066E-08
9.32893E-12 1.01711E-08
1.07092E-11 8.86256E-09
1.21847E-11 7.74917E-09
1.37554E-11 6.80182E-09
1.54213E-11 5.99349E-09
1.71823E-11 5.30341E-09
1.90386E-11 4.71221E-09
2.09900E-11 4.20372E-09
2.30367E-11 3.76294E-09
2.51785E-11 3.36277E-09
2.74156E-11 3.02318E-09
2.97478E-11 2.73326E-09
3.21752E-11 2.48433E-09
3.46979E-11 2.26942E-09
3.73157E-11 2.06734E-09
4.00286E-11 1.88139E-09
4.28368E-11 1.71950E-09
4.57402E-11 1.57792E-09
4.87388E-11 1.45356E-09
5.18325E-11 1.34248E-09
5.50215E-11 1.23161E-09
5.83057E-11 1.13364E-09
6.16850E-11 1.04674E-09
6.51595E-11 9.69402E-10
6.87293E-11 9.00349E-10
7.23943E-11 8.34039E-10
7.61544E-11 7.71970E-10
1.18991E-10 3.86026E-10
1.71347E-10 2.11777E-10
2.33223E-10 1.26629E-10
3.04617E-10 8.12667E-11
3.85531E-10 5.49789E-11
4.75965E-10 3.86478E-11
5.75917E-10 2.79578E-11
6.85389E-10 2.06509E-11
8.04380E-10 1.55472E-11
9.32891E-10 1.19035E-11
1.07092E-09 9.25043E-12
1.21847E-09 7.28677E-12
1.37554E-09 5.81340E-12
1.54213E-09 4.69353E-12
1.71823E-09 3.83184E-12
1.90386E-09 3.16006E-12
2.09900E-09 2.62993E-12
2.30367E-09 2.20701E-12
2.51785E-09 1.86565E-12
2.74156E-09 1.58961E-12
2.97478E-09 1.36216E-12
3.21752E-09 1.17481E-12
3.46978E-09 1.01836E-12
3.73156E-09 8.87324E-13
4.00286E-09 7.76751E-13
4.28368E-09 6.82828E-13
4.57402E-09 6.02822E-13
4.87388E-09 5.33995E-13
5.18326E-09 4.74903E-13
5.50215E-09 4.23540E-13
5.83057E-09 3.79090E-13
6.16850E-09 3.40161E-13
6.51596E-09 3.06176E-13
6.87293E-09 2.76262E-13
7.23942E-09 2.49924E-13
7.61544E-09 2.26634E-13
1.18991E-08 9.51550E-14
1.71347E-08 4.65623E-14
2.33223E-08 2.53869E-14
3.04617E-08 1.49959E-14
3.85531E-08 9.42033E-15
4.75965E-08 6.21257E-15
5.75917E-08 4.26166E-15
6.85389E-08 3.01998E-15
8.04380E-08 2.19934E-15
9.32891E-08 1.63940E-15
1.07092E-07 1.24679E-15
1.21847E-07 9.64940E-16
1.37554E-07 7.58377E-16
1.54213E-07 6.04218E-16
1.71823E-07 4.87291E-16
1.90386E-07 3.97313E-16
2.09900E-07 3.27165E-16
2.30367E-07 2.71827E-16
2.51785E-07 2.27705E-16
2.74156E-07 1.92176E-16
2.97478E-07 1.63311E-16
3.21752E-07 1.39665E-16
3.46978E-07 1.20145E-16
3.73156E-07 1.03918E-16
4.00286E-07 9.03392E-17
4.28368E-07 7.89063E-17
4.57402E-07 6.92254E-17
4.87388E-07 6.09841E-17
5.18325E-07 5.39330E-17
5.50215E-07 4.78717E-17
5.83057E-07 4.26382E-17
6.16850E-07 3.81005E-17
6.51596E-07 3.41504E-17
6.87293E-07 3.06991E-17
7.23942E-07 2.76729E-17
7.61543E-07 2.50104E-17
1.18991E-06 1.02512E-17
1.71347E-06 4.94506E-18
2.33223E-06 2.66946E-18
3.04617E-06 1.56477E-18
3.85531E-06 9.76824E-19
4.75964E-06 6.40833E-19
5.75916E-06 4.37647E-19
6.85388E-06 3.08969E-19
8.04378E-06 2.24288E-19
9.32888E-06 1.66727E-19
1.07092E-05 1.26499E-19
1.21846E-05 9.77024E-20
1.37553E-05 7.66518E-20
1.54212E-05 6.09762E-20
1.71822E-05 4.91097E-20
1.90385E-05 3.99819E-20
2.09899E-05 3.29004E-20
2.30365E-05 2.73163E-20
2.51783E-05 2.28642E-20
2.74153E-05 1.92799E-20
2.97475E-05 1.63695E-20
3.21749E-05 1.39877E-20
3.46974E-05 1.20244E-20
3.73152E-05 1.03946E-20
4.00281E-05 9.03237E-21
4.28362E-05 7.88645E-21
4.57395E-05 6.91653E-21
4.87380E-05 6.09095E-21
5.18317E-05 5.38461E-21
5.50205E-05 4.77749E-21
5.83045E-05 4.25345E-21
6.16838E-05 3.79932E-21
6.51582E-05 3.40427E-21
6.87277E-05 3.05933E-21
7.23925E-05 2.75704E-21
7.61524E-05 2.46213E-21
9.21439E-05 1.66973E-21
1.09658E-04 1.16908E-21
1.28695E-04 8.40733E-22
1.49255E-04 6.18306E-22
1.71338E-04 4.63579E-22
1.94942E-04 3.53367E-22
2.20070E-04 2.73269E-22
2.46720E-04 2.14013E-22
2.74892E-04 1.69476E-22
3.04586E-04 1.35540E-22
3.35803E-04 1.09352E-22
3.68542E-04 8.89186E-23
4.02802E-04 7.28136E-23
4.38585E-04 6.00039E-23
4.75889E-04 4.97313E-23
5.14715E-04 4.14305E-23
5.55063E-04 3.46774E-23
5.96931E-04 2.91485E-23
6.40321E-04 2.45959E-23
6.85233E-04 2.08275E-23
7.31665E-04 1.76928E-23
7.79618E-04 1.50739E-23
8.29092E-04 1.28767E-23
8.80086E-04 1.10263E-23
9.32601E-04 9.46259E-24
9.86636E-04 8.13684E-24
1.04219E-03 7.00950E-24
1.09927E-03 6.04824E-24
1.15786E-03 5.22651E-24
1.21797E-03 4.52242E-24
1.27961E-03 3.91784E-24
1.34276E-03 3.39768E-24
1.40743E-03 2.94933E-24
1.47362E-03 2.56225E-24
1.54133E-03 2.22756E-24
1.61056E-03 1.93776E-24
1.68131E-03 1.68653E-24
1.75357E-03 1.46848E-24
1.82735E-03 1.27905E-24
1.90265E-03 1.11433E-24
1.97947E-03 9.70987E-25
2.05780E-03 8.46158E-25
2.13765E-03 7.37389E-25
2.21902E-03 6.42569E-25
2.30190E-03 5.59874E-25
2.38630E-03 4.87733E-25
2.47222E-03 4.24784E-25
2.55965E-03 3.69848E-25
2.64859E-03 3.21903E-25
2.73905E-03 2.80059E-25
2.83103E-03 2.43544E-25
2.92452E-03 2.11685E-25
3.01952E-03 1.83895E-25
3.11604E-03 1.59663E-25
3.21407E-03 1.38540E-25
3.31362E-03 1.20137E-25
3.41468E-03 1.04113E-25
3.51725E-03 9.01672E-26
3.62133E-03 7.80394E-26
3.72692E-03 6.75003E-26
3.83403E-03 5.83490E-26
3.94265E-03 5.04098E-26
4.05278E-03 4.35285E-26
4.16442E-03 3.75702E-26
4.27757E-03 3.24165E-26
4.39223E-03 2.79636E-26
4.50840E-03 2.41207E-26
4.62608E-03 2.08083E-26
4.74527E-03 1.79566E-26
4.86597E-03 1.55046E-26
4.98817E-03 1.33991E-26
5.11188E-03 1.15934E-26
5.23711E-03 1.00468E-26
5.36383E-03 8.72378E-27
5.49207E-03 7.59334E-27
5.62181E-03 6.62853E-27
5.75306E-03 5.80585E-27
5.88581E-03 5.10494E-27
6.02007E-03 4.50810E-27
6.15583E-03 4.00001E-27
6.29310E-03 3.56743E-27
6.43187E-03 3.19894E-27
6.57214E-03 2.88468E-27
6.71392E-03 2.61621E-27
6.85720E-03 2.38626E-27
7.00198E-03 2.18865E-27
7.14827E-03 2.01809E-27
7.29605E-03 1.87009E-27
7.44534E-03 1.74084E-27
7.59612E-03 1.62715E-27
7.97965E-03 1.39435E-27
8.37255E-03 1.21188E-27
8.77480E-03 1.06042E-27
9.18641E-03 9.28561E-28
9.60736E-03 8.09988E-28
1.00376E-02 7.01548E-28
1.04773E-02 6.01923E-28
1.09262E-02 5.10757E-28
1.13844E-02 4.28112E-28
1.18520E-02 3.54134E-28
1.23288E-02 2.88871E-28
1.28150E-02 2.32196E-28
1.33104E-02 1.83785E-28
1.38150E-02 1.43139E-28
1.43290E-02 1.09617E-28
1.48521E-02 8.24852E-29
1.53845E-02 6.09600E-29
1.59262E-02 4.42466E-29
1.64770E-02 3.15734E-29
1.70371E-02 2.22170E-29
1.76063E-02 1.55191E-29
1.81848E-02 1.08980E-29
1.87724E-02 7.85242E-30
1.93692E-02 5.96220E-30
1.99751E-02 4.88406E-30
2.05901E-02 4.34572E-30
2.12143E-02 4.13794E-30
2.18476E-02 4.10598E-30
2.24900E-02 4.14073E-30
2.31415E-02 4.17015E-30
2.38021E-02 4.15134E-30
2.44717E-02 4.06348E-30
2.51504E-02 3.90163E-30
2.58382E-02 3.67161E-30
2.65349E-02 3.38587E-30
2.72407E-02 3.06014E-30
2.79555E-02 2.71112E-30
2.86793E-02 2.35465E-30
2.94120E-02 2.00467E-30
3.01537E-02 1.67255E-30
3.09043E-02 1.36686E-30
3.16639E-02 1.09336E-30
3.24324E-02 8.55264E-31
3.32098E-02 6.53537E-31
3.39961E-02 4.87340E-31
3.47912E-02 3.54440E-31
3.55952E-02 2.51625E-31
3.64081E-02 1.75084E-31
3.72297E-02 1.20726E-31
3.80602E-02 8.44537E-32
3.88995E-02 6.23630E-32
3.97476E-02 5.08934E-32
4.06044E-02 4.69226E-32
4.14700E-02 4.78158E-32
4.23443E-02 5.14381E-32
4.32273E-02 5.61375E-32
4.41190E-02 6.07061E-32
4.50194E-02 6.43282E-32
4.59284E-02 6.65197E-32
4.68461E-02 6.70648E-32
4.87074E-02 6.33293E-32
5.06030E-02 5.45430E-32
5.25328E-02 4.30699E-32
5.44967E-02 3.12131E-32
5.64946E-02 2.06801E-32
5.85262E-02 1.24158E-32
6.05914E-02 6.67604E-33
6.26901E-02 3.22048E-33
6.48222E-02 1.53483E-33
6.69873E-02 1.02348E-33
6.91854E-02 1.14521E-33
7.14163E-02 1.48704E-33
7.36799E-02 1.78603E-33
7.59760E-02 1.91489E-33
7.83043E-02 1.84835E-33
8.06647E-02 1.62400E-33
8.30571E-02 1.30720E-33
8.54812E-02 9.65007E-34
8.79369E-02 6.50523E-34
9.04240E-02 3.96379E-34
9.29422E-02 2.15076E-34
9.54915E-02 1.03329E-34
9.80716E-02 4.79947E-35
1.00682E-01 3.17959E-35
1.03323E-01 3.77954E-35
1.05995E-01 5.22065E-35
1.08696E-01 6.56190E-35
1.11427E-01 7.29857E-35
1.14188E-01 7.28272E-35
1.16978E-01 6.60869E-35
1.19797E-01 5.49742E-35
1.22645E-01 4.20157E-35
1.25522E-01 2.94064E-35
1.28428E-01 1.86724E-35
1.31361E-01 1.05889E-35
1.34323E-01 5.27556E-36
1.37313E-01 2.38476E-36
1.40330E-01 1.31369E-36
1.43375E-01 1.39150E-36
1.46447E-01 2.01550E-36
1.49545E-01 2.72883E-36
1.52671E-01 3.24581E-36
1.55823E-01 3.43858E-36
1.59001E-01 3.30095E-36
1.62205E-01 2.90375E-36
1.65435E-01 2.35276E-36
1.68690E-01 1.75524E-36
1.71970E-01 1.19863E-36
1.75276E-01 7.40004E-37
1.78606E-01 4.05220E-37
1.81961E-01 1.93756E-37
1.85340E-01 8.69619E-38
1.88743E-01 5.67573E-38
1.92169E-01 7.32117E-38
1.95619E-01 1.09993E-37
1.99092E-01 1.47395E-37
2.02589E-01 1.73290E-37
2.06107E-01 1.82480E-37
2.09649E-01 1.75087E-37
2.13212E-01 1.54679E-37
2.16797E-01 1.26386E-37
2.20404E-01 9.54518E-38
2.24032E-01 6.62360E-38
2.27680E-01 4.17204E-38
2.31350E-01 1.00000E-45
2.35040E-01 1.00000E-45
2.38751E-01 1.00000E-45
2.42481E-01 1.00000E-45
2.46231E-01 1.00000E-45
2.50000E-01 1.00000E-45
2.53788E-01 1.00000E-45
2.57595E-01 1.00000E-45
2.61421E-01 1.00000E-45
2.65264E-01 1.00000E-45
2.69126E-01 1.00000E-45
2.73005E-01 1.00000E-45
2.76901E-01 1.00000E-45
2.80814E-01 1.00000E-45
2.84744E-01 1.00000E-45
2.88691E-01 1.00000E-45
2.92653E-01 1.00000E-45
2.96632E-01 1.00000E-45
3.00625E-01 1.00000E-45
3.04634E-01 1.00000E-45
3.08658E-01 1.00000E-45
3.12697E-01 1.00000E-45
3.16749E-01 1.00000E-45
3.20816E-01 1.00000E-45
3.24896E-01 1.00000E-45
3.28990E-01 1.00000E-45
3.33097E-01 1.00000E-45
3.37216E-01 1.00000E-45
3.41348E-01 1.00000E-45
3.45492E-01 1.00000E-45
3.49647E-01 1.00000E-45
3.53814E-01 1.00000E-45
3.57992E-01 1.00000E-45
3.62181E-01 1.00000E-45
3.66381E-01 1.00000E-45
3.70590E-01 1.00000E-45
3.74810E-01 1.00000E-45
3.79039E-01 1.00000E-45
3.83277E-01 1.00000E-45
3.87524E-01 1.00000E-45
3.91780E-01 1.00000E-45
3.96044E-01 1.00000E-45
4.00316E-01 1.00000E-45
4.04596E-01 1.00000E-45
4.08882E-01 1.00000E-45
4.13176E-01 1.00000E-45
4.17476E-01 1.00000E-45
4.21783E-01 1.00000E-45
4.26095E-01 1.00000E-45
4.30413E-01 1.00000E-45
4.34737E-01 1.00000E-45
4.39065E-01 1.00000E-45
4.43398E-01 1.00000E-45
4.47736E-01 1.00000E-45
4.52077E-01 1.00000E-45
4.56422E-01 1.00000E-45
4.60770E-01 1.00000E-45
4.65122E-01 1.00000E-45
4.69476E-01 1.00000E-45
4.73832E-01 1.00000E-45
4.78190E-01 1.00000E-45
4.82550E-01 1.00000E-45
4.86912E-01 1.00000E-45
4.91274E-01 1.00000E-45
4.95637E-01 1.00000E-45
5.00000E-01 1.00000E-45
5.04363E-01 1.00000E-45
5.08726E-01 1.00000E-45
5.13088E-01 1.00000E-45
5.17450E-01 1.00000E-45
5.21810E-01 1.00000E-45
5.26168E-01 1.00000E-45
5.30524E-01 1.00000E-45
5.34878E-01 1.00000E-45
5.39230E-01 1.00000E-45
5.43578E-01 1.00000E-45
5.47923E-01 1.00000E-45
5.52264E-01 1.00000E-45
5.56602E-01 1.00000E-45
5.60935E-01 1.00000E-45
5.65263E-01 1.00000E-45
5.69587E-01 1.00000E-45
5.73905E-01 1.00000E-45
5.78217E-01 1.00000E-45
5.82524E-01 1.00000E-45
5.86824E-01 1.00000E-45
5.91118E-01 1.00000E-45
5.95404E-01 1.00000E-45
5.99684E-01 1.00000E-45
6.03956E-01 1.00000E-45
6.08220E-01 1.00000E-45
6.12476E-01 1.00000E-45
6.16723E-01 1.00000E-45
6.20961E-01 1.00000E-45
6.25190E-01 1.00000E-45
6.29410E-01 1.00000E-45
6.33619E-01 1.00000E-45
6.37819E-01 1.00000E-45
6.42008E-01 1.00000E-45
6.46186E-01 1.00000E-45
6.50353E-01 1.00000E-45
6.54508E-01 1.00000E-45
6.58652E-01 1.00000E-45
6.62784E-01 1.00000E-45
6.66903E-01 1.00000E-45
6.71010E-01 1.00000E-45
6.75104E-01 1.00000E-45
6.79184E-01 1.00000E-45
6.83251E-01 1.00000E-45
6.87303E-01 1.00000E-45
6.91342E-01 1.00000E-45
6.95366E-01 1.00000E-45
6.99375E-01 1.00000E-45
7.03368E-01 1.00000E-45
7.07347E-01 1.00000E-45
7.11309E-01 1.00000E-45
7.15256E-01 1.00000E-45
7.19186E-01 1.00000E-45
7.23099E-01 1.00000E-45
7.26995E-01 1.00000E-45
7.30874E-01 1.00000E-45
7.34736E-01 1.00000E-45
7.38579E-01 1.00000E-45
7.42405E-01 1.00000E-45
7.46212E-01 1.00000E-45
7.50000E-01 1.00000E-45
7.53769E-01 1.00000E-45
7.57519E-01 1.00000E-45
7.61249E-01 1.00000E-45
7.64960E-01 1.00000E-45
7.68650E-01 1.00000E-45
7.72320E-01 1.00000E-45
7.75968E-01 1.00000E-45
7.79596E-01 1.00000E-45
7.83203E-01 1.00000E-45
7.86788E-01 1.00000E-45
7.90351E-01 1.00000E-45
7.93893E-01 1.00000E-45
7.97411E-01 1.00000E-45
8.00908E-01 1.00000E-45
8.04381E-01 1.00000E-45
8.07831E-01 1.00000E-45
8.11257E-01 1.00000E-45
8.14660E-01 1.00000E-45
8.18039E-01 1.00000E-45
8.21394E-01 1.00000E-45
8.24724E-01 1.00000E-45
8.28030E-01 1.00000E-45
8.31310E-01 1.00000E-45
8.34565E-01 1.00000E-45
8.37795E-01 1.00000E-45
8.40999E-01 1.00000E-45
8.44177E-01 1.00000E-45
8.47329E-01 1.00000E-45
8.50455E-01 1.00000E-45
8.53553E-01 1.00000E-45
8.56625E-01 1.00000E-45
8.59670E-01 1.00000E-45
8.62687E-01 1.00000E-45
8.65677E-01 1.00000E-45
8.68639E-01 1.00000E-45
8.71572E-01 1.00000E-45
8.74478E-01 1.00000E-45
8.77355E-01 1.00000E-45
8.80203E-01 1.00000E-45
8.83022E-01 1.00000E-45
8.85812E-01 1.00000E-45
8.88573E-01 1.00000E-45
8.91304E-01 1.00000E-45
8.94005E-01 1.00000E-45
8.96677E-01 1.00000E-45
8.99318E-01 1.00000E-45
9.01928E-01 1.00000E-45
9.04508E-01 1.00000E-45
9.07058E-01 1.00000E-45
9.09576E-01 1.00000E-45
9.12063E-01 1.00000E-45
9.14519E-01 1.00000E-45
9.16943E-01 1.00000E-45
9.19335E-01 1.00000E-45
9.21696E-01 1.00000E-45
9.24024E-01 1.00000E-45
9.26320E-01 1.00000E-45
9.28584E-01 1.00000E-45
9.30815E-01 1.00000E-45
9.33013E-01 1.00000E-45
9.35178E-01 1.00000E-45
9.37310E-01 1.00000E-45
9.39409E-01 1.00000E-45
9.41474E-01 1.00000E-45
9.43505E-01 1.00000E-45
9.45503E-01 1.00000E-45
9.47467E-01 1.00000E-45
9.49397E-01 1.00000E-45
9.51293E-01 1.00000E-45
9.53154E-01 1.00000E-45
9.54981E-01 1.00000E-45
9.56773E-01 1.00000E-45
9.58530E-01 1.00000E-45
9.60252E-01 1.00000E-45
9.61940E-01 1.00000E-45
9.63592E-01 1.00000E-45
9.65209E-01 1.00000E-45
9.66790E-01 1.00000E-45
9.68336E-01 1.00000E-45
9.69846E-01 1.00000E-45
9.71321E-01 1.00000E-45
9.72759E-01 1.00000E-45
9.74162E-01 1.00000E-45
9.75528E-01 1.00000E-45
9.76858E-01 1.00000E-45
9.78152E-01 1.00000E-45
9.79410E-01 1.00000E-45
9.80631E-01 1.00000E-45
9.81815E-01 1.00000E-45
9.82963E-01 1.00000E-45
9.84074E-01 1.00000E-45
9.85148E-01 1.00000E-45
9.86185E-01 1.00000E-45
9.87185E-01 1.00000E-45
9.88148E-01 1.00000E-45
9.89074E-01 1.00000E-45
9.89962E-01 1.00000E-45
9.90814E-01 1.00000E-45
9.91627E-01 1.00000E-45
9.92404E-01 1.00000E-45
9.93143E-01 1.00000E-45
9.93844E-01 1.00000E-45
9.94508E-01 1.00000E-45
9.95134E-01 1.00000E-45
9.95722E-01 1.00000E-45
9.96273E-01 1.00000E-45
9.96786E-01 1.00000E-45
9.97261E-01 1.00000E-45
9.97698E-01 1.00000E-45
9.98097E-01 1.00000E-45
9.98459E-01 1.00000E-45
9.98782E-01 1.00000E-45
9.99067E-01 1.00000E-45
9.99315E-01 1.00000E-45
9.99524E-01 1.00000E-45
9.99695E-01 1.00000E-45
9.99829E-01 1.00000E-45
9.99924E-01 1.00000E-45
9.99981E-01 1.00000E-45
1.00000E+00 1.00000E-45
