 #
 # Subroutine ELSEPA. Elastic scattering of electrons and positrons
 #                    by neutral atoms and positive ions
 #
 # Projectile: positron
 # Kinetic energy = 4.00000E+08 eV = 1.46997E+07 a.u.
 #
 # WARNING: High-energy factorization with free-atom DF screening.
 #          Absorption, polarization and exchange corrections are
 #          switched off.
 #          Phase shifts are calculated for the bare nucleus.
 #          Scattering amplitudes are not evaluated.
 #
 # Element: Ag,  Z =  47,  atomic weight = 1.07868E+02 g/mol
 #
 # Nuclear model: Fermi distribution
 #                Average radius = 5.09348E-13 cm
 #                Skin thickness = 5.46000E-14 cm
 #
 # Number of electrons = 47
 #
 # Total elastic cross section = 4.27689E-18 cm**2 = 1.52731E-01 a0**2
 # 1st transport cross section = 2.70799E-26 cm**2 = 9.67040E-10 a0**2
 # 2nd transport cross section = 8.11862E-26 cm**2 = 2.89921E-09 a0**2
 #
 #
 # Differential cross section:                       MU=(1-COS(THETA))/2
 #
 #  THETA        MU          DCS          DCS        Sherman      error
 #  (deg)                 (cm**2/sr)   (a0**2/sr)    function
 #----------------------------------------------------------------------
0.00000E+00 4.46938E-09
7.61557E-13 4.32104E-09
1.18994E-12 4.24192E-09
1.71346E-12 4.14882E-09
2.33225E-12 4.04440E-09
3.04617E-12 3.93012E-09
3.85530E-12 3.80806E-09
4.75964E-12 3.68071E-09
5.75917E-12 3.55002E-09
6.85391E-12 3.41654E-09
8.04379E-12 3.28273E-09
9.32893E-12 3.15005E-09
1.07092E-11 3.01934E-09
1.21847E-11 2.89050E-09
1.37554E-11 2.76538E-09
1.54213E-11 2.64449E-09
1.71823E-11 2.52746E-09
1.90386E-11 2.41447E-09
2.09900E-11 2.30639E-09
2.30367E-11 2.20323E-09
2.51785E-11 2.10390E-09
2.74156E-11 2.00909E-09
2.97478E-11 1.91898E-09
3.21752E-11 1.83328E-09
3.46979E-11 1.75086E-09
3.73157E-11 1.67264E-09
4.00286E-11 1.59844E-09
4.28368E-11 1.52764E-09
4.57402E-11 1.45987E-09
4.87388E-11 1.39558E-09
5.18325E-11 1.33459E-09
5.50215E-11 1.27611E-09
5.83057E-11 1.22036E-09
6.16850E-11 1.16745E-09
6.51595E-11 1.11719E-09
6.87293E-11 1.06879E-09
7.23943E-11 1.02280E-09
7.61544E-11 9.79112E-10
1.18991E-10 6.37378E-10
1.71347E-10 4.15307E-10
2.33223E-10 2.83007E-10
3.04617E-10 1.94604E-10
3.85531E-10 1.37057E-10
4.75965E-10 9.92499E-11
5.75917E-10 7.36445E-11
6.85389E-10 5.57538E-11
8.04380E-10 4.31844E-11
9.32891E-10 3.41205E-11
1.07092E-09 2.74202E-11
1.21847E-09 2.23308E-11
1.37554E-09 1.84214E-11
1.54213E-09 1.53642E-11
1.71823E-09 1.29202E-11
1.90386E-09 1.09399E-11
2.09900E-09 9.32829E-12
2.30367E-09 8.00271E-12
2.51785E-09 6.89207E-12
2.74156E-09 5.96339E-12
2.97478E-09 5.18361E-12
3.21752E-09 4.52402E-12
3.46978E-09 3.96013E-12
3.73156E-09 3.47936E-12
4.00286E-09 3.06765E-12
4.28368E-09 2.71326E-12
4.57402E-09 2.40717E-12
4.87388E-09 2.14284E-12
5.18326E-09 1.91361E-12
5.50215E-09 1.71364E-12
5.83057E-09 1.53895E-12
6.16850E-09 1.38599E-12
6.51596E-09 1.25158E-12
6.87293E-09 1.13286E-12
7.23942E-09 1.02797E-12
7.61544E-09 9.35044E-13
1.18991E-08 4.05279E-13
1.71347E-08 2.04345E-13
2.33223E-08 1.14022E-13
3.04617E-08 6.84575E-14
3.85531E-08 4.34742E-14
4.75965E-08 2.88791E-14
5.75917E-08 1.99093E-14
6.85389E-08 1.41596E-14
8.04380E-08 1.03416E-14
9.32891E-08 7.72776E-15
1.07092E-07 5.89031E-15
1.21847E-07 4.56832E-15
1.37554E-07 3.59759E-15
1.54213E-07 2.87173E-15
1.71823E-07 2.32022E-15
1.90386E-07 1.89509E-15
2.09900E-07 1.56310E-15
2.30367E-07 1.30077E-15
2.51785E-07 1.09126E-15
2.74156E-07 9.22285E-16
2.97478E-07 7.84793E-16
3.21752E-07 6.71994E-16
3.46978E-07 5.78750E-16
3.73156E-07 5.01128E-16
4.00286E-07 4.36089E-16
4.28368E-07 3.81260E-16
4.57402E-07 3.34780E-16
4.87388E-07 2.95167E-16
5.18325E-07 2.61241E-16
5.50215E-07 2.32048E-16
5.83057E-07 2.06818E-16
6.16850E-07 1.84923E-16
6.51596E-07 1.65848E-16
6.87293E-07 1.49168E-16
7.23942E-07 1.34532E-16
7.61543E-07 1.21646E-16
1.18991E-06 5.00293E-17
1.71347E-06 2.41784E-17
2.33223E-06 1.30665E-17
3.04617E-06 7.66462E-18
3.85531E-06 4.78692E-18
4.75964E-06 3.14142E-18
5.75916E-06 2.14589E-18
6.85388E-06 1.51521E-18
8.04378E-06 1.10008E-18
9.32888E-06 8.17838E-19
1.07092E-05 6.20564E-19
1.21846E-05 4.79330E-19
1.37553E-05 3.76077E-19
1.54212E-05 2.99181E-19
1.71822E-05 2.40968E-19
1.90385E-05 1.96198E-19
2.09899E-05 1.61441E-19
2.30365E-05 1.34038E-19
2.51783E-05 1.12194E-19
2.74153E-05 9.46104E-20
2.97475E-05 8.03331E-20
3.21749E-05 6.86488E-20
3.46974E-05 5.90155E-20
3.73152E-05 5.10177E-20
4.00281E-05 4.43321E-20
4.28362E-05 3.87079E-20
4.57395E-05 3.39474E-20
4.87380E-05 2.98954E-20
5.18317E-05 2.64291E-20
5.50205E-05 2.34496E-20
5.83045E-05 2.08780E-20
6.16838E-05 1.86493E-20
6.51582E-05 1.67104E-20
6.87277E-05 1.50175E-20
7.23925E-05 1.35337E-20
7.61524E-05 1.22472E-20
9.21439E-05 8.35806E-21
1.09658E-04 5.89549E-21
1.28695E-04 4.27578E-21
1.49255E-04 3.17488E-21
1.71338E-04 2.40597E-21
1.94942E-04 1.85574E-21
2.20070E-04 1.45373E-21
2.46720E-04 1.15454E-21
2.74892E-04 9.28184E-22
3.04586E-04 7.54431E-22
3.35803E-04 6.19267E-22
3.68542E-04 5.12881E-22
4.02802E-04 4.28231E-22
4.38585E-04 3.60210E-22
4.75889E-04 3.05060E-22
5.14715E-04 2.59969E-22
5.55063E-04 2.22824E-22
5.96931E-04 1.92006E-22
6.40321E-04 1.66269E-22
6.85233E-04 1.44646E-22
7.31665E-04 1.26374E-22
7.79618E-04 1.10853E-22
8.29092E-04 9.76021E-23
8.80086E-04 8.62375E-23
9.32601E-04 7.64476E-23
9.86636E-04 6.79793E-23
1.04219E-03 6.06260E-23
1.09927E-03 5.42171E-23
1.15786E-03 4.86122E-23
1.21797E-03 4.36941E-23
1.27961E-03 3.93653E-23
1.34276E-03 3.55439E-23
1.40743E-03 3.21609E-23
1.47362E-03 2.91581E-23
1.54133E-03 2.64858E-23
1.61056E-03 2.41020E-23
1.68131E-03 2.19705E-23
1.75357E-03 2.00605E-23
1.82735E-03 1.83453E-23
1.90265E-03 1.68018E-23
1.97947E-03 1.54103E-23
2.05780E-03 1.41534E-23
2.13765E-03 1.30161E-23
2.21902E-03 1.19852E-23
2.30190E-03 1.10492E-23
2.38630E-03 1.01981E-23
2.47222E-03 9.42299E-24
2.55965E-03 8.71605E-24
2.64859E-03 8.07038E-24
2.73905E-03 7.47988E-24
2.83103E-03 6.93912E-24
2.92452E-03 6.44329E-24
3.01952E-03 5.98812E-24
3.11604E-03 5.56977E-24
3.21407E-03 5.18484E-24
3.31362E-03 4.83027E-24
3.41468E-03 4.50332E-24
3.51725E-03 4.20153E-24
3.62133E-03 3.92270E-24
3.72692E-03 3.66483E-24
3.83403E-03 3.42613E-24
3.94265E-03 3.20498E-24
4.05278E-03 2.99991E-24
4.16442E-03 2.80959E-24
4.27757E-03 2.63283E-24
4.39223E-03 2.46852E-24
4.50840E-03 2.31567E-24
4.62608E-03 2.17338E-24
4.74527E-03 2.04083E-24
4.86597E-03 1.91727E-24
4.98817E-03 1.80200E-24
5.11188E-03 1.69441E-24
5.23711E-03 1.59392E-24
5.36383E-03 1.50000E-24
5.49207E-03 1.41217E-24
5.62181E-03 1.32999E-24
5.75306E-03 1.25306E-24
5.88581E-03 1.18100E-24
6.02007E-03 1.11346E-24
6.15583E-03 1.05013E-24
6.29310E-03 9.90723E-25
6.43187E-03 9.34965E-25
6.57214E-03 8.82608E-25
6.71392E-03 8.33422E-25
6.85720E-03 7.87196E-25
7.00198E-03 7.43733E-25
7.14827E-03 7.02851E-25
7.29605E-03 6.64381E-25
7.44534E-03 6.28167E-25
7.59612E-03 5.94065E-25
7.97965E-03 5.17183E-25
8.37255E-03 4.50820E-25
8.77480E-03 3.93421E-25
9.18641E-03 3.43684E-25
9.60736E-03 3.00512E-25
1.00376E-02 2.62979E-25
1.04773E-02 2.30302E-25
1.09262E-02 2.01813E-25
1.13844E-02 1.76947E-25
1.18520E-02 1.55218E-25
1.23288E-02 1.36210E-25
1.28150E-02 1.19569E-25
1.33104E-02 1.04987E-25
1.38150E-02 9.21993E-26
1.43290E-02 8.09788E-26
1.48521E-02 7.11274E-26
1.53845E-02 6.24739E-26
1.59262E-02 5.48695E-26
1.64770E-02 4.81846E-26
1.70371E-02 4.23066E-26
1.76063E-02 3.71370E-26
1.81848E-02 3.25898E-26
1.87724E-02 2.85899E-26
1.93692E-02 2.50713E-26
1.99751E-02 2.19765E-26
2.05901E-02 1.92546E-26
2.12143E-02 1.68612E-26
2.18476E-02 1.47572E-26
2.24900E-02 1.29082E-26
2.31415E-02 1.12839E-26
2.38021E-02 9.85762E-27
2.44717E-02 8.60579E-27
2.51504E-02 7.50771E-27
2.58382E-02 6.54508E-27
2.65349E-02 5.70176E-27
2.72407E-02 4.96349E-27
2.79555E-02 4.31770E-27
2.86793E-02 3.75329E-27
2.94120E-02 3.26044E-27
3.01537E-02 2.83049E-27
3.09043E-02 2.45579E-27
3.16639E-02 2.12960E-27
3.24324E-02 1.84595E-27
3.32098E-02 1.59959E-27
3.39961E-02 1.38587E-27
3.47912E-02 1.20072E-27
3.55952E-02 1.04051E-27
3.64081E-02 9.02074E-28
3.72297E-02 7.82622E-28
3.80602E-02 6.79691E-28
3.88995E-02 5.91121E-28
3.97476E-02 5.15014E-28
4.06044E-02 4.49706E-28
4.14700E-02 3.93737E-28
4.23443E-02 3.45831E-28
4.32273E-02 3.04870E-28
4.41190E-02 2.69882E-28
4.50194E-02 2.40016E-28
4.59284E-02 2.14533E-28
4.68461E-02 1.92792E-28
4.87074E-02 1.58381E-28
5.06030E-02 1.33178E-28
5.25328E-02 1.14508E-28
5.44967E-02 1.00410E-28
5.64946E-02 8.94626E-29
5.85262E-02 8.06561E-29
6.05914E-02 7.32843E-29
6.26901E-02 6.68667E-29
6.48222E-02 6.10868E-29
6.69873E-02 5.57449E-29
6.91854E-02 5.07232E-29
7.14163E-02 4.59594E-29
7.36799E-02 4.14269E-29
7.59760E-02 3.71213E-29
7.83043E-02 3.30498E-29
8.06647E-02 2.92246E-29
8.30571E-02 2.56584E-29
8.54812E-02 2.23617E-29
8.79369E-02 1.93408E-29
9.04240E-02 1.65977E-29
9.29422E-02 1.41296E-29
9.54915E-02 1.19294E-29
9.80716E-02 9.98632E-30
1.00682E-01 8.28649E-30
1.03323E-01 6.81371E-30
1.05995E-01 5.55017E-30
1.08696E-01 4.47714E-30
1.11427E-01 3.57552E-30
1.14188E-01 2.82633E-30
1.16978E-01 2.21118E-30
1.19797E-01 1.71254E-30
1.22645E-01 1.31396E-30
1.25522E-01 1.00032E-30
1.28428E-01 7.57849E-31
1.31361E-01 5.74192E-31
1.34323E-01 4.38430E-31
1.37313E-01 3.41022E-31
1.40330E-01 2.73746E-31
1.43375E-01 2.29612E-31
1.46447E-01 2.02766E-31
1.49545E-01 1.88378E-31
1.52671E-01 1.82532E-31
1.55823E-01 1.82120E-31
1.59001E-01 1.84726E-31
1.62205E-01 1.88532E-31
1.65435E-01 1.92217E-31
1.68690E-01 1.94876E-31
1.71970E-01 1.95935E-31
1.75276E-01 1.95087E-31
1.78606E-01 1.92230E-31
1.81961E-01 1.87414E-31
1.85340E-01 1.80798E-31
1.88743E-01 1.72616E-31
1.92169E-01 1.63142E-31
1.95619E-01 1.52671E-31
1.99092E-01 1.41499E-31
2.02589E-01 1.29909E-31
2.06107E-01 1.18163E-31
2.09649E-01 1.06494E-31
2.13212E-01 9.51020E-32
2.16797E-01 8.41528E-32
2.20404E-01 7.37791E-32
2.24032E-01 6.40808E-32
2.27680E-01 5.51278E-32
2.31350E-01 4.69624E-32
2.35040E-01 3.96032E-32
2.38751E-01 3.30480E-32
2.42481E-01 2.72776E-32
2.46231E-01 2.22593E-32
2.50000E-01 1.79497E-32
2.53788E-01 1.42975E-32
2.57595E-01 1.12467E-32
2.61421E-01 8.73818E-33
2.65264E-01 6.71197E-33
2.69126E-01 5.10878E-33
2.73005E-01 3.87126E-33
2.76901E-01 2.94504E-33
2.80814E-01 2.27941E-33
2.84744E-01 1.82789E-33
2.88691E-01 1.54850E-33
2.92653E-01 1.40391E-33
2.96632E-01 1.36144E-33
3.00625E-01 1.39290E-33
3.04634E-01 1.47444E-33
3.08658E-01 1.58624E-33
3.12697E-01 1.71218E-33
3.16749E-01 1.83949E-33
3.20816E-01 1.95842E-33
3.24896E-01 2.06179E-33
3.28990E-01 2.14471E-33
3.33097E-01 2.20420E-33
3.37216E-01 2.23882E-33
3.41348E-01 2.24846E-33
3.45492E-01 2.23399E-33
3.49647E-01 2.19704E-33
3.53814E-01 2.13980E-33
3.57992E-01 2.06483E-33
3.62181E-01 1.97487E-33
3.66381E-01 1.87279E-33
3.70590E-01 1.76138E-33
3.74810E-01 1.64335E-33
3.79039E-01 1.52123E-33
3.83277E-01 1.39734E-33
3.87524E-01 1.27374E-33
3.91780E-01 1.15225E-33
3.96044E-01 1.03438E-33
4.00316E-01 9.21410E-34
4.04596E-01 8.14348E-34
4.08882E-01 7.13954E-34
4.13176E-01 6.20768E-34
4.17476E-01 5.35126E-34
4.21783E-01 4.57184E-34
4.26095E-01 3.86940E-34
4.30413E-01 3.24261E-34
4.34737E-01 2.68900E-34
4.39065E-01 2.20525E-34
4.43398E-01 1.78730E-34
4.47736E-01 1.43065E-34
4.52077E-01 1.13039E-34
4.56422E-01 8.81474E-35
4.60770E-01 6.78745E-35
4.65122E-01 5.17109E-35
4.69476E-01 3.91596E-35
4.73832E-01 2.97432E-35
4.78190E-01 2.30102E-35
4.82550E-01 1.85388E-35
4.86912E-01 1.59403E-35
4.91274E-01 1.48599E-35
4.95637E-01 1.49788E-35
5.00000E-01 1.60132E-35
5.04363E-01 1.77137E-35
5.08726E-01 1.98646E-35
5.13088E-01 2.22818E-35
5.17450E-01 2.48108E-35
5.21810E-01 2.73245E-35
5.26168E-01 2.97213E-35
5.30524E-01 3.19211E-35
5.34878E-01 3.38653E-35
5.39230E-01 3.55121E-35
5.43578E-01 3.68353E-35
5.47923E-01 3.78214E-35
5.52264E-01 3.84688E-35
5.56602E-01 3.87845E-35
5.60935E-01 3.87824E-35
5.65263E-01 3.84828E-35
5.69587E-01 3.79092E-35
5.73905E-01 3.70895E-35
5.78217E-01 3.60518E-35
5.82524E-01 3.48265E-35
5.86824E-01 3.34437E-35
5.91118E-01 3.19326E-35
5.95404E-01 3.03213E-35
5.99684E-01 2.86372E-35
6.03956E-01 2.69052E-35
6.08220E-01 2.51481E-35
6.12476E-01 2.33869E-35
6.16723E-01 2.16399E-35
6.20961E-01 1.99237E-35
6.25190E-01 1.82522E-35
6.29410E-01 1.66372E-35
6.33619E-01 1.50884E-35
6.37819E-01 1.36134E-35
6.42008E-01 1.22183E-35
6.46186E-01 1.09073E-35
6.50353E-01 9.68315E-36
6.54508E-01 8.54694E-36
6.58652E-01 7.49903E-36
6.62784E-01 6.53826E-36
6.66903E-01 5.66302E-36
6.71010E-01 4.87071E-36
6.75104E-01 4.15800E-36
6.79184E-01 3.52132E-36
6.83251E-01 2.95648E-36
6.87303E-01 2.45920E-36
6.91342E-01 2.02494E-36
6.95366E-01 1.64911E-36
6.99375E-01 1.32697E-36
7.03368E-01 1.05393E-36
7.07347E-01 8.25479E-37
7.11309E-01 6.37201E-37
7.15256E-01 4.84849E-37
7.19186E-01 3.64413E-37
7.23099E-01 2.72053E-37
7.26995E-01 2.04195E-37
7.30874E-01 1.57514E-37
7.34736E-01 1.28913E-37
7.38579E-01 1.15562E-37
7.42405E-01 1.14870E-37
7.46212E-01 1.24503E-37
7.50000E-01 1.42372E-37
7.53769E-01 1.66582E-37
7.57519E-01 1.95466E-37
7.61249E-01 2.27583E-37
7.64960E-01 2.61715E-37
7.68650E-01 2.96653E-37
7.72320E-01 3.31577E-37
7.75968E-01 3.65709E-37
7.79596E-01 3.98383E-37
7.83203E-01 4.29087E-37
7.86788E-01 4.57478E-37
7.90351E-01 4.83160E-37
7.93893E-01 5.06025E-37
7.97411E-01 5.25860E-37
8.00908E-01 5.42635E-37
8.04381E-01 5.56348E-37
8.07831E-01 5.67049E-37
8.11257E-01 5.74713E-37
8.14660E-01 5.79605E-37
8.18039E-01 5.81732E-37
8.21394E-01 5.81314E-37
8.24724E-01 5.78535E-37
8.28030E-01 5.73510E-37
8.31310E-01 5.66531E-37
8.34565E-01 5.57697E-37
8.37795E-01 5.47236E-37
8.40999E-01 5.35348E-37
8.44177E-01 5.22157E-37
8.47329E-01 5.07919E-37
8.50455E-01 4.92810E-37
8.53553E-01 4.76927E-37
8.56625E-01 4.60460E-37
8.59670E-01 4.43516E-37
8.62687E-01 4.26288E-37
8.65677E-01 4.08853E-37
8.68639E-01 3.91318E-37
8.71572E-01 3.73797E-37
8.74478E-01 3.56409E-37
8.77355E-01 3.39189E-37
8.80203E-01 3.22235E-37
8.83022E-01 3.05604E-37
8.85812E-01 2.89364E-37
8.88573E-01 2.73514E-37
8.91304E-01 2.58163E-37
8.94005E-01 2.43268E-37
8.96677E-01 2.28915E-37
8.99318E-01 2.15074E-37
9.01928E-01 2.01817E-37
9.04508E-01 1.89103E-37
9.07058E-01 1.76952E-37
9.09576E-01 1.65348E-37
9.12063E-01 1.54328E-37
9.14519E-01 1.43850E-37
9.16943E-01 1.33938E-37
9.19335E-01 1.24539E-37
9.21696E-01 1.15656E-37
9.24024E-01 1.07282E-37
9.26320E-01 9.94127E-38
9.28584E-01 9.20070E-38
9.30815E-01 8.50486E-38
9.33013E-01 7.85420E-38
9.35178E-01 7.24421E-38
9.37310E-01 6.67462E-38
9.39409E-01 6.14330E-38
9.41474E-01 5.64816E-38
9.43505E-01 5.18729E-38
9.45503E-01 4.75872E-38
9.47467E-01 4.36238E-38
9.49397E-01 3.99355E-38
9.51293E-01 3.65259E-38
9.53154E-01 3.33627E-38
9.54981E-01 3.04535E-38
9.56773E-01 2.77639E-38
9.58530E-01 2.52993E-38
9.60252E-01 2.30059E-38
9.61940E-01 2.09218E-38
9.63592E-01 1.89961E-38
9.65209E-01 1.72379E-38
9.66790E-01 1.56195E-38
9.68336E-01 1.41354E-38
9.69846E-01 1.27823E-38
9.71321E-01 1.15496E-38
9.72759E-01 1.04184E-38
9.74162E-01 9.39323E-39
9.75528E-01 8.45131E-39
9.76858E-01 7.59984E-39
9.78152E-01 6.82523E-39
9.79410E-01 6.12403E-39
9.80631E-01 5.48069E-39
9.81815E-01 4.90247E-39
9.82963E-01 4.37870E-39
9.84074E-01 3.90199E-39
9.85148E-01 3.47409E-39
9.86185E-01 3.08626E-39
9.87185E-01 2.73636E-39
9.88148E-01 2.42276E-39
9.89074E-01 2.14048E-39
9.89962E-01 1.88622E-39
9.90814E-01 1.65645E-39
9.91627E-01 1.45170E-39
9.92404E-01 1.26514E-39
9.93143E-01 1.10256E-39
9.93844E-01 9.56890E-40
9.94508E-01 8.24861E-40
9.95134E-01 7.07135E-40
9.95722E-01 6.02145E-40
9.96273E-01 5.10116E-40
9.96786E-01 4.29299E-40
9.97261E-01 3.56783E-40
9.97698E-01 2.92693E-40
9.98097E-01 2.37034E-40
9.98459E-01 1.87809E-40
9.98782E-01 1.46218E-40
9.99067E-01 1.09728E-40
9.99315E-01 7.89445E-41
9.99524E-01 5.49701E-41
9.99695E-01 3.50462E-41
9.99829E-01 1.95070E-41
9.99924E-01 9.19984E-42
9.99981E-01 2.17577E-42
1.00000E+00 2.10052E-43
