 #
 # Subroutine ELSEPA. Elastic scattering of electrons and positrons
 #                    by neutral atoms and positive ions
 #
 # Projectile: positron
 # Kinetic energy = 1.75000E+07 eV = 6.43113E+05 a.u.
 #
 # WARNING: High-energy factorization with free-atom DF screening.
 #          Absorption, polarization and exchange corrections are
 #          switched off.
 #          Phase shifts are calculated for the bare nucleus.
 #          Scattering amplitudes are not evaluated.
 #
 # Element: Ag,  Z =  47,  atomic weight = 1.07868E+02 g/mol
 #
 # Nuclear model: Fermi distribution
 #                Average radius = 5.09348E-13 cm
 #                Skin thickness = 5.46000E-14 cm
 #
 # Number of electrons = 47
 #
 # Total elastic cross section = 4.28167E-18 cm**2 = 1.52901E-01 a0**2
 # 1st transport cross section = 1.09406E-23 cm**2 = 3.90695E-07 a0**2
 # 2nd transport cross section = 3.18000E-23 cm**2 = 1.13560E-06 a0**2
 #
 #
 # Differential cross section:                       MU=(1-COS(THETA))/2
 #
 #  THETA        MU          DCS          DCS        Sherman      error
 #  (deg)                 (cm**2/sr)   (a0**2/sr)    function
 #----------------------------------------------------------------------
0.00000E+00 9.03845E-12
7.61557E-13 9.03780E-12
1.18994E-12 9.03744E-12
1.71346E-12 9.03701E-12
2.33225E-12 9.03649E-12
3.04617E-12 9.03590E-12
3.85530E-12 9.03523E-12
4.75964E-12 9.03448E-12
5.75917E-12 9.03365E-12
6.85391E-12 9.03275E-12
8.04379E-12 9.03176E-12
9.32893E-12 9.03070E-12
1.07092E-11 9.02956E-12
1.21847E-11 9.02835E-12
1.37554E-11 9.02705E-12
1.54213E-11 9.02568E-12
1.71823E-11 9.02423E-12
1.90386E-11 9.02270E-12
2.09900E-11 9.02110E-12
2.30367E-11 9.01942E-12
2.51785E-11 9.01766E-12
2.74156E-11 9.01582E-12
2.97478E-11 9.01391E-12
3.21752E-11 9.01192E-12
3.46979E-11 9.00985E-12
3.73157E-11 9.00770E-12
4.00286E-11 9.00548E-12
4.28368E-11 9.00318E-12
4.57402E-11 9.00081E-12
4.87388E-11 8.99836E-12
5.18325E-11 8.99583E-12
5.50215E-11 8.99323E-12
5.83057E-11 8.99055E-12
6.16850E-11 8.98780E-12
6.51595E-11 8.98497E-12
6.87293E-11 8.98206E-12
7.23943E-11 8.97908E-12
7.61544E-11 8.97603E-12
1.18991E-10 8.94136E-12
1.71347E-10 8.89937E-12
2.33223E-10 8.85027E-12
3.04617E-10 8.79429E-12
3.85531E-10 8.73170E-12
4.75965E-10 8.66281E-12
5.75917E-10 8.58793E-12
6.85389E-10 8.50740E-12
8.04380E-10 8.42112E-12
9.32891E-10 8.33023E-12
1.07092E-09 8.23535E-12
1.21847E-09 8.13549E-12
1.37554E-09 8.03204E-12
1.54213E-09 7.92591E-12
1.71823E-09 7.81584E-12
1.90386E-09 7.70325E-12
2.09900E-09 7.58924E-12
2.30367E-09 7.47235E-12
2.51785E-09 7.35387E-12
2.74156E-09 7.23511E-12
2.97478E-09 7.11448E-12
3.21752E-09 6.99304E-12
3.46978E-09 6.87228E-12
3.73156E-09 6.75057E-12
4.00286E-09 6.62864E-12
4.28368E-09 6.50819E-12
4.57402E-09 6.38757E-12
4.87388E-09 6.26716E-12
5.18326E-09 6.14882E-12
5.50215E-09 6.03098E-12
5.83057E-09 5.91362E-12
6.16850E-09 5.79876E-12
6.51596E-09 5.68493E-12
6.87293E-09 5.57173E-12
7.23942E-09 5.46131E-12
7.61544E-09 5.35232E-12
1.18991E-08 4.35784E-12
1.71347E-08 3.54507E-12
2.33223E-08 2.89128E-12
3.04617E-08 2.36470E-12
3.85531E-08 1.94050E-12
4.75965E-08 1.59764E-12
5.75917E-08 1.31937E-12
6.85389E-08 1.09282E-12
8.04380E-08 8.96849E-13
9.32891E-08 7.46466E-13
1.07092E-07 6.31977E-13
1.21847E-07 5.29691E-13
1.37554E-07 4.46615E-13
1.54213E-07 3.81386E-13
1.71823E-07 3.24827E-13
1.90386E-07 2.77978E-13
2.09900E-07 2.40193E-13
2.30367E-07 2.07840E-13
2.51785E-07 1.80632E-13
2.74156E-07 1.58172E-13
2.97478E-07 1.38940E-13
3.21752E-07 1.22545E-13
3.46978E-07 1.08738E-13
3.73156E-07 9.68220E-14
4.00286E-07 8.65245E-14
4.28368E-07 7.77048E-14
4.57402E-07 7.00037E-14
4.87388E-07 6.32543E-14
5.18325E-07 5.73912E-14
5.50215E-07 5.22080E-14
5.83057E-07 4.76002E-14
6.16850E-07 4.35503E-14
6.51596E-07 3.99299E-14
6.87293E-07 3.66672E-14
7.23942E-07 3.37713E-14
7.61543E-07 3.11591E-14
1.18991E-06 1.50452E-14
1.71347E-06 8.03119E-15
2.33223E-06 4.60511E-15
3.04617E-06 2.81056E-15
3.85531E-06 1.80960E-15
4.75964E-06 1.21914E-15
5.75916E-06 8.53022E-16
6.85388E-06 6.15433E-16
8.04378E-06 4.55271E-16
9.32888E-06 3.44278E-16
1.07092E-05 2.65173E-16
1.21846E-05 2.07502E-16
1.37553E-05 1.64620E-16
1.54212E-05 1.32173E-16
1.71822E-05 1.07313E-16
1.90385E-05 8.79870E-17
2.09899E-05 7.28406E-17
2.30365E-05 6.07984E-17
2.51783E-05 5.11219E-17
2.74153E-05 4.32832E-17
2.97475E-05 3.68851E-17
3.21749E-05 3.16242E-17
3.46974E-05 2.72685E-17
3.73152E-05 2.36380E-17
4.00281E-05 2.05920E-17
4.28362E-05 1.80218E-17
4.57395E-05 1.58405E-17
4.87380E-05 1.39790E-17
5.18317E-05 1.23827E-17
5.50205E-05 1.10074E-17
5.83045E-05 9.81769E-18
6.16838E-05 8.78464E-18
6.51582E-05 7.88427E-18
6.87277E-05 7.09667E-18
7.23925E-05 6.40520E-18
7.61524E-05 5.79598E-18
9.21439E-05 3.97724E-18
1.09658E-04 2.81913E-18
1.28695E-04 2.05365E-18
1.49255E-04 1.53103E-18
1.71338E-04 1.16454E-18
1.94942E-04 9.01314E-19
2.20070E-04 7.08364E-19
2.46720E-04 5.64334E-19
2.74892E-04 4.55060E-19
3.04586E-04 3.70968E-19
3.35803E-04 3.05399E-19
3.68542E-04 2.53675E-19
4.02802E-04 2.12433E-19
4.38585E-04 1.79226E-19
4.75889E-04 1.52250E-19
5.14715E-04 1.30153E-19
5.55063E-04 1.11917E-19
5.96931E-04 9.67584E-20
6.40321E-04 8.40767E-20
6.85233E-04 7.34020E-20
7.31665E-04 6.43652E-20
7.79618E-04 5.66747E-20
8.29092E-04 5.00964E-20
8.80086E-04 4.44436E-20
9.32601E-04 3.95643E-20
9.86636E-04 3.53350E-20
1.04219E-03 3.16548E-20
1.09927E-03 2.84404E-20
1.15786E-03 2.56228E-20
1.21797E-03 2.31449E-20
1.27961E-03 2.09586E-20
1.34276E-03 1.90239E-20
1.40743E-03 1.73068E-20
1.47362E-03 1.57786E-20
1.54133E-03 1.44150E-20
1.61056E-03 1.31952E-20
1.68131E-03 1.21014E-20
1.75357E-03 1.11182E-20
1.82735E-03 1.02327E-20
1.90265E-03 9.43334E-21
1.97947E-03 8.71031E-21
2.05780E-03 8.05504E-21
2.13765E-03 7.46006E-21
2.21902E-03 6.91887E-21
2.30190E-03 6.42571E-21
2.38630E-03 5.97558E-21
2.47222E-03 5.56407E-21
2.55965E-03 5.18726E-21
2.64859E-03 4.84171E-21
2.73905E-03 4.52437E-21
2.83103E-03 4.23252E-21
2.92452E-03 3.96375E-21
3.01952E-03 3.71591E-21
3.11604E-03 3.48707E-21
3.21407E-03 3.27551E-21
3.31362E-03 3.07970E-21
3.41468E-03 2.89826E-21
3.51725E-03 2.72993E-21
3.62133E-03 2.57360E-21
3.72692E-03 2.42826E-21
3.83403E-03 2.29300E-21
3.94265E-03 2.16699E-21
4.05278E-03 2.04948E-21
4.16442E-03 1.93980E-21
4.27757E-03 1.83734E-21
4.39223E-03 1.74152E-21
4.50840E-03 1.65184E-21
4.62608E-03 1.56783E-21
4.74527E-03 1.48908E-21
4.86597E-03 1.41518E-21
4.98817E-03 1.34580E-21
5.11188E-03 1.28059E-21
5.23711E-03 1.21928E-21
5.36383E-03 1.16157E-21
5.49207E-03 1.10722E-21
5.62181E-03 1.05600E-21
5.75306E-03 1.00769E-21
5.88581E-03 9.62096E-22
6.02007E-03 9.19043E-22
6.15583E-03 8.78359E-22
6.29310E-03 8.39892E-22
6.43187E-03 8.03497E-22
6.57214E-03 7.69043E-22
6.71392E-03 7.36407E-22
6.85720E-03 7.05475E-22
7.00198E-03 6.76142E-22
7.14827E-03 6.48309E-22
7.29605E-03 6.21887E-22
7.44534E-03 5.96789E-22
7.59612E-03 5.72939E-22
7.97965E-03 5.18297E-22
8.37255E-03 4.69986E-22
8.77480E-03 4.27145E-22
9.18641E-03 3.89049E-22
9.60736E-03 3.55085E-22
1.00376E-02 3.24728E-22
1.04773E-02 2.97528E-22
1.09262E-02 2.73100E-22
1.13844E-02 2.51114E-22
1.18520E-02 2.31284E-22
1.23288E-02 2.13360E-22
1.28150E-02 1.97129E-22
1.33104E-02 1.82402E-22
1.38150E-02 1.69017E-22
1.43290E-02 1.56828E-22
1.48521E-02 1.45711E-22
1.53845E-02 1.35555E-22
1.59262E-02 1.26263E-22
1.64770E-02 1.17748E-22
1.70371E-02 1.09933E-22
1.76063E-02 1.02751E-22
1.81848E-02 9.61418E-23
1.87724E-02 9.00513E-23
1.93692E-02 8.44316E-23
1.99751E-02 7.92401E-23
2.05901E-02 7.44385E-23
2.12143E-02 6.99920E-23
2.18476E-02 6.58697E-23
2.24900E-02 6.20440E-23
2.31415E-02 5.84897E-23
2.38021E-02 5.51840E-23
2.44717E-02 5.21064E-23
2.51504E-02 4.92386E-23
2.58382E-02 4.65636E-23
2.65349E-02 4.40660E-23
2.72407E-02 4.17320E-23
2.79555E-02 3.95492E-23
2.86793E-02 3.75059E-23
2.94120E-02 3.55913E-23
3.01537E-02 3.37963E-23
3.09043E-02 3.21120E-23
3.16639E-02 3.05300E-23
3.24324E-02 2.90433E-23
3.32098E-02 2.76452E-23
3.39961E-02 2.63291E-23
3.47912E-02 2.50896E-23
3.55952E-02 2.39216E-23
3.64081E-02 2.28198E-23
3.72297E-02 2.17800E-23
3.80602E-02 2.07982E-23
3.88995E-02 1.98704E-23
3.97476E-02 1.89932E-23
4.06044E-02 1.81632E-23
4.14700E-02 1.73776E-23
4.23443E-02 1.66335E-23
4.32273E-02 1.59283E-23
4.41190E-02 1.52596E-23
4.50194E-02 1.46252E-23
4.59284E-02 1.40230E-23
4.68461E-02 1.34511E-23
4.87074E-02 1.23911E-23
5.06030E-02 1.14321E-23
5.25328E-02 1.05630E-23
5.44967E-02 9.77378E-24
5.64946E-02 9.05597E-24
5.85262E-02 8.40194E-24
6.05914E-02 7.80505E-24
6.26901E-02 7.25949E-24
6.48222E-02 6.76007E-24
6.69873E-02 6.30222E-24
6.91854E-02 5.88190E-24
7.14163E-02 5.49549E-24
7.36799E-02 5.13980E-24
7.59760E-02 4.81195E-24
7.83043E-02 4.50940E-24
8.06647E-02 4.22985E-24
8.30571E-02 3.97126E-24
8.54812E-02 3.73179E-24
8.79369E-02 3.50977E-24
9.04240E-02 3.30371E-24
9.29422E-02 3.11228E-24
9.54915E-02 2.93425E-24
9.80716E-02 2.76852E-24
1.00682E-01 2.61410E-24
1.03323E-01 2.47008E-24
1.05995E-01 2.33564E-24
1.08696E-01 2.21003E-24
1.11427E-01 2.09257E-24
1.14188E-01 1.98264E-24
1.16978E-01 1.87968E-24
1.19797E-01 1.78316E-24
1.22645E-01 1.69262E-24
1.25522E-01 1.60762E-24
1.28428E-01 1.52777E-24
1.31361E-01 1.45269E-24
1.34323E-01 1.38205E-24
1.37313E-01 1.31555E-24
1.40330E-01 1.25289E-24
1.43375E-01 1.19383E-24
1.46447E-01 1.13811E-24
1.49545E-01 1.08553E-24
1.52671E-01 1.03586E-24
1.55823E-01 9.88915E-25
1.59001E-01 9.44529E-25
1.62205E-01 9.02535E-25
1.65435E-01 8.62780E-25
1.68690E-01 8.25125E-25
1.71970E-01 7.89440E-25
1.75276E-01 7.55605E-25
1.78606E-01 7.23506E-25
1.81961E-01 6.93040E-25
1.85340E-01 6.64109E-25
1.88743E-01 6.36623E-25
1.92169E-01 6.10496E-25
1.95619E-01 5.85651E-25
1.99092E-01 5.62013E-25
2.02589E-01 5.39515E-25
2.06107E-01 5.18091E-25
2.09649E-01 4.97681E-25
2.13212E-01 4.78230E-25
2.16797E-01 4.59684E-25
2.20404E-01 4.41995E-25
2.24032E-01 4.25116E-25
2.27680E-01 4.09003E-25
2.31350E-01 3.93616E-25
2.35040E-01 3.78916E-25
2.38751E-01 3.64869E-25
2.42481E-01 3.51439E-25
2.46231E-01 3.38595E-25
2.50000E-01 3.26307E-25
2.53788E-01 3.14548E-25
2.57595E-01 3.03289E-25
2.61421E-01 2.92508E-25
2.65264E-01 2.82179E-25
2.69126E-01 2.72281E-25
2.73005E-01 2.62792E-25
2.76901E-01 2.53694E-25
2.80814E-01 2.44966E-25
2.84744E-01 2.36593E-25
2.88691E-01 2.28555E-25
2.92653E-01 2.20839E-25
2.96632E-01 2.13429E-25
3.00625E-01 2.06311E-25
3.04634E-01 1.99471E-25
3.08658E-01 1.92897E-25
3.12697E-01 1.86576E-25
3.16749E-01 1.80498E-25
3.20816E-01 1.74651E-25
3.24896E-01 1.69026E-25
3.28990E-01 1.63612E-25
3.33097E-01 1.58400E-25
3.37216E-01 1.53381E-25
3.41348E-01 1.48547E-25
3.45492E-01 1.43891E-25
3.49647E-01 1.39404E-25
3.53814E-01 1.35079E-25
3.57992E-01 1.30909E-25
3.62181E-01 1.26889E-25
3.66381E-01 1.23012E-25
3.70590E-01 1.19271E-25
3.74810E-01 1.15661E-25
3.79039E-01 1.12178E-25
3.83277E-01 1.08815E-25
3.87524E-01 1.05569E-25
3.91780E-01 1.02433E-25
3.96044E-01 9.94046E-26
4.00316E-01 9.64787E-26
4.04596E-01 9.36514E-26
4.08882E-01 9.09188E-26
4.13176E-01 8.82772E-26
4.17476E-01 8.57232E-26
4.21783E-01 8.32534E-26
4.26095E-01 8.08645E-26
4.30413E-01 7.85535E-26
4.34737E-01 7.63174E-26
4.39065E-01 7.41534E-26
4.43398E-01 7.20589E-26
4.47736E-01 7.00312E-26
4.52077E-01 6.80679E-26
4.56422E-01 6.61666E-26
4.60770E-01 6.43251E-26
4.65122E-01 6.25411E-26
4.69476E-01 6.08126E-26
4.73832E-01 5.91376E-26
4.78190E-01 5.75142E-26
4.82550E-01 5.59406E-26
4.86912E-01 5.44149E-26
4.91274E-01 5.29355E-26
4.95637E-01 5.15009E-26
5.00000E-01 5.01093E-26
5.04363E-01 4.87594E-26
5.08726E-01 4.74496E-26
5.13088E-01 4.61787E-26
5.17450E-01 4.49453E-26
5.21810E-01 4.37480E-26
5.26168E-01 4.25858E-26
5.30524E-01 4.14574E-26
5.34878E-01 4.03616E-26
5.39230E-01 3.92975E-26
5.43578E-01 3.82639E-26
5.47923E-01 3.72599E-26
5.52264E-01 3.62844E-26
5.56602E-01 3.53365E-26
5.60935E-01 3.44154E-26
5.65263E-01 3.35202E-26
5.69587E-01 3.26500E-26
5.73905E-01 3.18041E-26
5.78217E-01 3.09816E-26
5.82524E-01 3.01818E-26
5.86824E-01 2.94041E-26
5.91118E-01 2.86476E-26
5.95404E-01 2.79118E-26
5.99684E-01 2.71960E-26
6.03956E-01 2.64996E-26
6.08220E-01 2.58220E-26
6.12476E-01 2.51626E-26
6.16723E-01 2.45208E-26
6.20961E-01 2.38961E-26
6.25190E-01 2.32880E-26
6.29410E-01 2.26960E-26
6.33619E-01 2.21196E-26
6.37819E-01 2.15584E-26
6.42008E-01 2.10118E-26
6.46186E-01 2.04795E-26
6.50353E-01 1.99610E-26
6.54508E-01 1.94560E-26
6.58652E-01 1.89640E-26
6.62784E-01 1.84846E-26
6.66903E-01 1.80175E-26
6.71010E-01 1.75623E-26
6.75104E-01 1.71188E-26
6.79184E-01 1.66864E-26
6.83251E-01 1.62650E-26
6.87303E-01 1.58543E-26
6.91342E-01 1.54538E-26
6.95366E-01 1.50634E-26
6.99375E-01 1.46827E-26
7.03368E-01 1.43115E-26
7.07347E-01 1.39495E-26
7.11309E-01 1.35965E-26
7.15256E-01 1.32521E-26
7.19186E-01 1.29163E-26
7.23099E-01 1.25886E-26
7.26995E-01 1.22690E-26
7.30874E-01 1.19572E-26
7.34736E-01 1.16530E-26
7.38579E-01 1.13561E-26
7.42405E-01 1.10664E-26
7.46212E-01 1.07837E-26
7.50000E-01 1.05078E-26
7.53769E-01 1.02386E-26
7.57519E-01 9.97578E-27
7.61249E-01 9.71925E-27
7.64960E-01 9.46883E-27
7.68650E-01 9.22437E-27
7.72320E-01 8.98571E-27
7.75968E-01 8.75270E-27
7.79596E-01 8.52520E-27
7.83203E-01 8.30306E-27
7.86788E-01 8.08616E-27
7.90351E-01 7.87434E-27
7.93893E-01 7.66749E-27
7.97411E-01 7.46549E-27
8.00908E-01 7.26820E-27
8.04381E-01 7.07552E-27
8.07831E-01 6.88732E-27
8.11257E-01 6.70350E-27
8.14660E-01 6.52395E-27
8.18039E-01 6.34856E-27
8.21394E-01 6.17723E-27
8.24724E-01 6.00987E-27
8.28030E-01 5.84637E-27
8.31310E-01 5.68665E-27
8.34565E-01 5.53061E-27
8.37795E-01 5.37817E-27
8.40999E-01 5.22924E-27
8.44177E-01 5.08373E-27
8.47329E-01 4.94158E-27
8.50455E-01 4.80269E-27
8.53553E-01 4.66699E-27
8.56625E-01 4.53441E-27
8.59670E-01 4.40487E-27
8.62687E-01 4.27831E-27
8.65677E-01 4.15466E-27
8.68639E-01 4.03385E-27
8.71572E-01 3.91582E-27
8.74478E-01 3.80050E-27
8.77355E-01 3.68784E-27
8.80203E-01 3.57778E-27
8.83022E-01 3.47025E-27
8.85812E-01 3.36520E-27
8.88573E-01 3.26258E-27
8.91304E-01 3.16234E-27
8.94005E-01 3.06442E-27
8.96677E-01 2.96878E-27
8.99318E-01 2.87536E-27
9.01928E-01 2.78412E-27
9.04508E-01 2.69501E-27
9.07058E-01 2.60800E-27
9.09576E-01 2.52302E-27
9.12063E-01 2.44005E-27
9.14519E-01 2.35904E-27
9.16943E-01 2.27995E-27
9.19335E-01 2.20275E-27
9.21696E-01 2.12739E-27
9.24024E-01 2.05384E-27
9.26320E-01 1.98207E-27
9.28584E-01 1.91203E-27
9.30815E-01 1.84370E-27
9.33013E-01 1.77704E-27
9.35178E-01 1.71202E-27
9.37310E-01 1.64861E-27
9.39409E-01 1.58678E-27
9.41474E-01 1.52651E-27
9.43505E-01 1.46775E-27
9.45503E-01 1.41049E-27
9.47467E-01 1.35470E-27
9.49397E-01 1.30035E-27
9.51293E-01 1.24742E-27
9.53154E-01 1.19588E-27
9.54981E-01 1.14572E-27
9.56773E-01 1.09689E-27
9.58530E-01 1.04940E-27
9.60252E-01 1.00320E-27
9.61940E-01 9.58286E-28
9.63592E-01 9.14633E-28
9.65209E-01 8.72220E-28
9.66790E-01 8.31031E-28
9.68336E-01 7.91044E-28
9.69846E-01 7.52244E-28
9.71321E-01 7.14612E-28
9.72759E-01 6.78132E-28
9.74162E-01 6.42787E-28
9.75528E-01 6.08562E-28
9.76858E-01 5.75442E-28
9.78152E-01 5.43412E-28
9.79410E-01 5.12457E-28
9.80631E-01 4.82565E-28
9.81815E-01 4.53723E-28
9.82963E-01 4.25917E-28
9.84074E-01 3.99135E-28
9.85148E-01 3.73366E-28
9.86185E-01 3.48599E-28
9.87185E-01 3.24823E-28
9.88148E-01 3.02027E-28
9.89074E-01 2.80202E-28
9.89962E-01 2.59338E-28
9.90814E-01 2.39427E-28
9.91627E-01 2.20459E-28
9.92404E-01 2.02427E-28
9.93143E-01 1.85322E-28
9.93844E-01 1.69138E-28
9.94508E-01 1.53868E-28
9.95134E-01 1.39504E-28
9.95722E-01 1.26042E-28
9.96273E-01 1.13474E-28
9.96786E-01 1.01797E-28
9.97261E-01 9.10040E-29
9.97698E-01 8.10914E-29
9.98097E-01 7.20548E-29
9.98459E-01 6.38903E-29
9.98782E-01 5.65945E-29
9.99067E-01 5.01643E-29
9.99315E-01 4.45969E-29
9.99524E-01 3.98901E-29
9.99695E-01 3.60418E-29
9.99829E-01 3.30503E-29
9.99924E-01 3.09144E-29
9.99981E-01 2.96333E-29
1.00000E+00 2.92063E-29
