 #
 # Subroutine ELSEPA. Elastic scattering of electrons and positrons
 #                    by neutral atoms and positive ions
 #
 # Projectile: positron
 # Kinetic energy = 2.50000E+07 eV = 9.18733E+05 a.u.
 #
 # WARNING: High-energy factorization with free-atom DF screening.
 #          Absorption, polarization and exchange corrections are
 #          switched off.
 #          Phase shifts are calculated for the bare nucleus.
 #          Scattering amplitudes are not evaluated.
 #
 # Element: Ag,  Z =  47,  atomic weight = 1.07868E+02 g/mol
 #
 # Nuclear model: Fermi distribution
 #                Average radius = 5.09348E-13 cm
 #                Skin thickness = 5.46000E-14 cm
 #
 # Number of electrons = 47
 #
 # Total elastic cross section = 4.27915E-18 cm**2 = 1.52811E-01 a0**2
 # 1st transport cross section = 5.73857E-24 cm**2 = 2.04928E-07 a0**2
 # 2nd transport cross section = 1.67253E-23 cm**2 = 5.97271E-07 a0**2
 #
 #
 # Differential cross section:                       MU=(1-COS(THETA))/2
 #
 #  THETA        MU          DCS          DCS        Sherman      error
 #  (deg)                 (cm**2/sr)   (a0**2/sr)    function
 #----------------------------------------------------------------------
0.00000E+00 1.81332E-11
7.61557E-13 1.81306E-11
1.18994E-12 1.81291E-11
1.71346E-12 1.81274E-11
2.33225E-12 1.81253E-11
3.04617E-12 1.81229E-11
3.85530E-12 1.81203E-11
4.75964E-12 1.81173E-11
5.75917E-12 1.81139E-11
6.85391E-12 1.81103E-11
8.04379E-12 1.81064E-11
9.32893E-12 1.81021E-11
1.07092E-11 1.80975E-11
1.21847E-11 1.80926E-11
1.37554E-11 1.80875E-11
1.54213E-11 1.80820E-11
1.71823E-11 1.80761E-11
1.90386E-11 1.80700E-11
2.09900E-11 1.80636E-11
2.30367E-11 1.80569E-11
2.51785E-11 1.80498E-11
2.74156E-11 1.80425E-11
2.97478E-11 1.80348E-11
3.21752E-11 1.80268E-11
3.46979E-11 1.80186E-11
3.73157E-11 1.80100E-11
4.00286E-11 1.80011E-11
4.28368E-11 1.79920E-11
4.57402E-11 1.79825E-11
4.87388E-11 1.79727E-11
5.18325E-11 1.79626E-11
5.50215E-11 1.79523E-11
5.83057E-11 1.79416E-11
6.16850E-11 1.79306E-11
6.51595E-11 1.79194E-11
6.87293E-11 1.79078E-11
7.23943E-11 1.78960E-11
7.61544E-11 1.78839E-11
1.18991E-10 1.77468E-11
1.71347E-10 1.75822E-11
2.33223E-10 1.73916E-11
3.04617E-10 1.71767E-11
3.85531E-10 1.69389E-11
4.75965E-10 1.66812E-11
5.75917E-10 1.64063E-11
6.85389E-10 1.61141E-11
8.04380E-10 1.58105E-11
9.32891E-10 1.54924E-11
1.07092E-09 1.51682E-11
1.21847E-09 1.48329E-11
1.37554E-09 1.44954E-11
1.54213E-09 1.41513E-11
1.71823E-09 1.38075E-11
1.90386E-09 1.34613E-11
2.09900E-09 1.31170E-11
2.30367E-09 1.27744E-11
2.51785E-09 1.24343E-11
2.74156E-09 1.20995E-11
2.97478E-09 1.17674E-11
3.21752E-09 1.14436E-11
3.46978E-09 1.11222E-11
3.73156E-09 1.08117E-11
4.00286E-09 1.05028E-11
4.28368E-09 1.02058E-11
4.57402E-09 9.91174E-12
4.87388E-09 9.62861E-12
5.18326E-09 9.35031E-12
5.50215E-09 9.08144E-12
5.83057E-09 8.81892E-12
6.16850E-09 8.56427E-12
6.51596E-09 8.31728E-12
6.87293E-09 8.07656E-12
7.23942E-09 7.84459E-12
7.61544E-09 7.61733E-12
1.18991E-08 5.70250E-12
1.71347E-08 4.29649E-12
2.33223E-08 3.25692E-12
3.04617E-08 2.48491E-12
3.85531E-08 1.88921E-12
4.75965E-08 1.45496E-12
5.75917E-08 1.14560E-12
6.85389E-08 8.96027E-13
8.04380E-08 7.17090E-13
9.32891E-08 5.71973E-13
1.07092E-07 4.65273E-13
1.21847E-07 3.79427E-13
1.37554E-07 3.13952E-13
1.54213E-07 2.61592E-13
1.71823E-07 2.20301E-13
1.90386E-07 1.87006E-13
2.09900E-07 1.60080E-13
2.30367E-07 1.38060E-13
2.51785E-07 1.19854E-13
2.74156E-07 1.04751E-13
2.97478E-07 9.19945E-14
3.21752E-07 8.12873E-14
3.46978E-07 7.20535E-14
3.73156E-07 6.42378E-14
4.00286E-07 5.73634E-14
4.28368E-07 5.14879E-14
4.57402E-07 4.62747E-14
4.87388E-07 4.17570E-14
5.18325E-07 3.77352E-14
5.50215E-07 3.42013E-14
5.83057E-07 3.10515E-14
6.16850E-07 2.82495E-14
6.51596E-07 2.57518E-14
6.87293E-07 2.35065E-14
7.23942E-07 2.15050E-14
7.61543E-07 1.96904E-14
1.18991E-06 8.84733E-15
1.71347E-06 4.49855E-15
2.33223E-06 2.52474E-15
3.04617E-06 1.53083E-15
3.85531E-06 9.83066E-16
4.75964E-06 6.60904E-16
5.75916E-06 4.60541E-16
6.85388E-06 3.30505E-16
8.04378E-06 2.43036E-16
9.32888E-06 1.82544E-16
1.07092E-05 1.39678E-16
1.21846E-05 1.08641E-16
1.37553E-05 8.57384E-17
1.54212E-05 6.85501E-17
1.71822E-05 5.54506E-17
1.90385E-05 4.53203E-17
2.09899E-05 3.74196E-17
2.30365E-05 3.11655E-17
2.51783E-05 2.61620E-17
2.74153E-05 2.21211E-17
2.97475E-05 1.88300E-17
3.21749E-05 1.61288E-17
3.46974E-05 1.38962E-17
3.73152E-05 1.20381E-17
4.00281E-05 1.04814E-17
4.28362E-05 9.16887E-18
4.57395E-05 8.05562E-18
4.87380E-05 7.10608E-18
5.18317E-05 6.29221E-18
5.50205E-05 5.59141E-18
5.83045E-05 4.98546E-18
6.16838E-05 4.45944E-18
6.51582E-05 4.00109E-18
6.87277E-05 3.60019E-18
7.23925E-05 3.24832E-18
7.61524E-05 2.93846E-18
9.21439E-05 2.01378E-18
1.09658E-04 1.42555E-18
1.28695E-04 1.03715E-18
1.49255E-04 7.72275E-19
1.71338E-04 5.86745E-19
1.94942E-04 4.53648E-19
2.20070E-04 3.56193E-19
2.46720E-04 2.83524E-19
2.74892E-04 2.28447E-19
3.04586E-04 1.86102E-19
3.35803E-04 1.53112E-19
3.68542E-04 1.27109E-19
4.02802E-04 1.06390E-19
4.38585E-04 8.97193E-20
4.75889E-04 7.61846E-20
5.14715E-04 6.51039E-20
5.55063E-04 5.59635E-20
5.96931E-04 4.83695E-20
6.40321E-04 4.20187E-20
6.85233E-04 3.66750E-20
7.31665E-04 3.21529E-20
7.79618E-04 2.83055E-20
8.29092E-04 2.50156E-20
8.80086E-04 2.21891E-20
9.32601E-04 1.97501E-20
9.86636E-04 1.76365E-20
1.04219E-03 1.57976E-20
1.09927E-03 1.41917E-20
1.15786E-03 1.27844E-20
1.21797E-03 1.15469E-20
1.27961E-03 1.04552E-20
1.34276E-03 9.48924E-21
1.40743E-03 8.63205E-21
1.47362E-03 7.86927E-21
1.54133E-03 7.18870E-21
1.61056E-03 6.57996E-21
1.68131E-03 6.03415E-21
1.75357E-03 5.54362E-21
1.82735E-03 5.10181E-21
1.90265E-03 4.70303E-21
1.97947E-03 4.34236E-21
2.05780E-03 4.01551E-21
2.13765E-03 3.71876E-21
2.21902E-03 3.44884E-21
2.30190E-03 3.20289E-21
2.38630E-03 2.97842E-21
2.47222E-03 2.77321E-21
2.55965E-03 2.58532E-21
2.64859E-03 2.41303E-21
2.73905E-03 2.25481E-21
2.83103E-03 2.10930E-21
2.92452E-03 1.97530E-21
3.01952E-03 1.85174E-21
3.11604E-03 1.73766E-21
3.21407E-03 1.63220E-21
3.31362E-03 1.53459E-21
3.41468E-03 1.44414E-21
3.51725E-03 1.36024E-21
3.62133E-03 1.28232E-21
3.72692E-03 1.20988E-21
3.83403E-03 1.14246E-21
3.94265E-03 1.07965E-21
4.05278E-03 1.02109E-21
4.16442E-03 9.66427E-22
4.27757E-03 9.15360E-22
4.39223E-03 8.67606E-22
4.50840E-03 8.22913E-22
4.62608E-03 7.81049E-22
4.74527E-03 7.41803E-22
4.86597E-03 7.04981E-22
4.98817E-03 6.70406E-22
5.11188E-03 6.37915E-22
5.23711E-03 6.07359E-22
5.36383E-03 5.78602E-22
5.49207E-03 5.51520E-22
5.62181E-03 5.25997E-22
5.75306E-03 5.01926E-22
5.88581E-03 4.79211E-22
6.02007E-03 4.57759E-22
6.15583E-03 4.37489E-22
6.29310E-03 4.18322E-22
6.43187E-03 4.00188E-22
6.57214E-03 3.83022E-22
6.71392E-03 3.66762E-22
6.85720E-03 3.51351E-22
7.00198E-03 3.36737E-22
7.14827E-03 3.22870E-22
7.29605E-03 3.09706E-22
7.44534E-03 2.97203E-22
7.59612E-03 2.85321E-22
7.97965E-03 2.58100E-22
8.37255E-03 2.34032E-22
8.77480E-03 2.12690E-22
9.18641E-03 1.93714E-22
9.60736E-03 1.76795E-22
1.00376E-02 1.61673E-22
1.04773E-02 1.48125E-22
1.09262E-02 1.35957E-22
1.13844E-02 1.25007E-22
1.18520E-02 1.15129E-22
1.23288E-02 1.06202E-22
1.28150E-02 9.81187E-23
1.33104E-02 9.07841E-23
1.38150E-02 8.41177E-23
1.43290E-02 7.80479E-23
1.48521E-02 7.25114E-23
1.53845E-02 6.74544E-23
1.59262E-02 6.28265E-23
1.64770E-02 5.85866E-23
1.70371E-02 5.46950E-23
1.76063E-02 5.11190E-23
1.81848E-02 4.78280E-23
1.87724E-02 4.47955E-23
1.93692E-02 4.19976E-23
1.99751E-02 3.94128E-23
2.05901E-02 3.70222E-23
2.12143E-02 3.48085E-23
2.18476E-02 3.27563E-23
2.24900E-02 3.08518E-23
2.31415E-02 2.90824E-23
2.38021E-02 2.74369E-23
2.44717E-02 2.59050E-23
2.51504E-02 2.44775E-23
2.58382E-02 2.31460E-23
2.65349E-02 2.19029E-23
2.72407E-02 2.07413E-23
2.79555E-02 1.96549E-23
2.86793E-02 1.86380E-23
2.94120E-02 1.76852E-23
3.01537E-02 1.67919E-23
3.09043E-02 1.59537E-23
3.16639E-02 1.51665E-23
3.24324E-02 1.44268E-23
3.32098E-02 1.37310E-23
3.39961E-02 1.30763E-23
3.47912E-02 1.24596E-23
3.55952E-02 1.18784E-23
3.64081E-02 1.13303E-23
3.72297E-02 1.08131E-23
3.80602E-02 1.03247E-23
3.88995E-02 9.86316E-24
3.97476E-02 9.42683E-24
4.06044E-02 9.01404E-24
4.14700E-02 8.62331E-24
4.23443E-02 8.25323E-24
4.32273E-02 7.90253E-24
4.41190E-02 7.57000E-24
4.50194E-02 7.25454E-24
4.59284E-02 6.95511E-24
4.68461E-02 6.67076E-24
4.87074E-02 6.14373E-24
5.06030E-02 5.66702E-24
5.25328E-02 5.23500E-24
5.44967E-02 4.84278E-24
5.64946E-02 4.48606E-24
5.85262E-02 4.16108E-24
6.05914E-02 3.86455E-24
6.26901E-02 3.59354E-24
6.48222E-02 3.34549E-24
6.69873E-02 3.11811E-24
6.91854E-02 2.90940E-24
7.14163E-02 2.71755E-24
7.36799E-02 2.54098E-24
7.59760E-02 2.37825E-24
7.83043E-02 2.22810E-24
8.06647E-02 2.08939E-24
8.30571E-02 1.96109E-24
8.54812E-02 1.84230E-24
8.79369E-02 1.73218E-24
9.04240E-02 1.63000E-24
9.29422E-02 1.53508E-24
9.54915E-02 1.44683E-24
9.80716E-02 1.36468E-24
1.00682E-01 1.28816E-24
1.03323E-01 1.21680E-24
1.05995E-01 1.15019E-24
1.08696E-01 1.08798E-24
1.11427E-01 1.02981E-24
1.14188E-01 9.75385E-25
1.16978E-01 9.24416E-25
1.19797E-01 8.76648E-25
1.22645E-01 8.31846E-25
1.25522E-01 7.89793E-25
1.28428E-01 7.50292E-25
1.31361E-01 7.13163E-25
1.34323E-01 6.78238E-25
1.37313E-01 6.45364E-25
1.40330E-01 6.14400E-25
1.43375E-01 5.85216E-25
1.46447E-01 5.57692E-25
1.49545E-01 5.31719E-25
1.52671E-01 5.07193E-25
1.55823E-01 4.84020E-25
1.59001E-01 4.62113E-25
1.62205E-01 4.41392E-25
1.65435E-01 4.21780E-25
1.68690E-01 4.03209E-25
1.71970E-01 3.85614E-25
1.75276E-01 3.68934E-25
1.78606E-01 3.53115E-25
1.81961E-01 3.38105E-25
1.85340E-01 3.23854E-25
1.88743E-01 3.10319E-25
1.92169E-01 2.97456E-25
1.95619E-01 2.85228E-25
1.99092E-01 2.73597E-25
2.02589E-01 2.62530E-25
2.06107E-01 2.51994E-25
2.09649E-01 2.41960E-25
2.13212E-01 2.32400E-25
2.16797E-01 2.23287E-25
2.20404E-01 2.14598E-25
2.24032E-01 2.06309E-25
2.27680E-01 1.98398E-25
2.31350E-01 1.90847E-25
2.35040E-01 1.83635E-25
2.38751E-01 1.76745E-25
2.42481E-01 1.70160E-25
2.46231E-01 1.63864E-25
2.50000E-01 1.57843E-25
2.53788E-01 1.52082E-25
2.57595E-01 1.46569E-25
2.61421E-01 1.41290E-25
2.65264E-01 1.36236E-25
2.69126E-01 1.31393E-25
2.73005E-01 1.26753E-25
2.76901E-01 1.22304E-25
2.80814E-01 1.18039E-25
2.84744E-01 1.13948E-25
2.88691E-01 1.10022E-25
2.92653E-01 1.06255E-25
2.96632E-01 1.02638E-25
3.00625E-01 9.91654E-26
3.04634E-01 9.58295E-26
3.08658E-01 9.26243E-26
3.12697E-01 8.95440E-26
3.16749E-01 8.65828E-26
3.20816E-01 8.37354E-26
3.24896E-01 8.09967E-26
3.28990E-01 7.83619E-26
3.33097E-01 7.58265E-26
3.37216E-01 7.33860E-26
3.41348E-01 7.10364E-26
3.45492E-01 6.87738E-26
3.49647E-01 6.65943E-26
3.53814E-01 6.44946E-26
3.57992E-01 6.24711E-26
3.62181E-01 6.05207E-26
3.66381E-01 5.86403E-26
3.70590E-01 5.68271E-26
3.74810E-01 5.50781E-26
3.79039E-01 5.33909E-26
3.83277E-01 5.17629E-26
3.87524E-01 5.01917E-26
3.91780E-01 4.86749E-26
3.96044E-01 4.72105E-26
4.00316E-01 4.57963E-26
4.04596E-01 4.44303E-26
4.08882E-01 4.31107E-26
4.13176E-01 4.18356E-26
4.17476E-01 4.06033E-26
4.21783E-01 3.94121E-26
4.26095E-01 3.82604E-26
4.30413E-01 3.71468E-26
4.34737E-01 3.60698E-26
4.39065E-01 3.50280E-26
4.43398E-01 3.40201E-26
4.47736E-01 3.30448E-26
4.52077E-01 3.21009E-26
4.56422E-01 3.11872E-26
4.60770E-01 3.03026E-26
4.65122E-01 2.94461E-26
4.69476E-01 2.86166E-26
4.73832E-01 2.78132E-26
4.78190E-01 2.70349E-26
4.82550E-01 2.62808E-26
4.86912E-01 2.55500E-26
4.91274E-01 2.48418E-26
4.95637E-01 2.41552E-26
5.00000E-01 2.34897E-26
5.04363E-01 2.28443E-26
5.08726E-01 2.22185E-26
5.13088E-01 2.16115E-26
5.17450E-01 2.10228E-26
5.21810E-01 2.04516E-26
5.26168E-01 1.98973E-26
5.30524E-01 1.93595E-26
5.34878E-01 1.88375E-26
5.39230E-01 1.83308E-26
5.43578E-01 1.78389E-26
5.47923E-01 1.73613E-26
5.52264E-01 1.68975E-26
5.56602E-01 1.64471E-26
5.60935E-01 1.60097E-26
5.65263E-01 1.55847E-26
5.69587E-01 1.51719E-26
5.73905E-01 1.47707E-26
5.78217E-01 1.43809E-26
5.82524E-01 1.40021E-26
5.86824E-01 1.36339E-26
5.91118E-01 1.32759E-26
5.95404E-01 1.29279E-26
5.99684E-01 1.25896E-26
6.03956E-01 1.22606E-26
6.08220E-01 1.19406E-26
6.12476E-01 1.16294E-26
6.16723E-01 1.13267E-26
6.20961E-01 1.10323E-26
6.25190E-01 1.07458E-26
6.29410E-01 1.04670E-26
6.33619E-01 1.01958E-26
6.37819E-01 9.93177E-27
6.42008E-01 9.67483E-27
6.46186E-01 9.42473E-27
6.50353E-01 9.18126E-27
6.54508E-01 8.94423E-27
6.58652E-01 8.71344E-27
6.62784E-01 8.48871E-27
6.66903E-01 8.26987E-27
6.71010E-01 8.05673E-27
6.75104E-01 7.84913E-27
6.79184E-01 7.64692E-27
6.83251E-01 7.44993E-27
6.87303E-01 7.25801E-27
6.91342E-01 7.07103E-27
6.95366E-01 6.88883E-27
6.99375E-01 6.71127E-27
7.03368E-01 6.53824E-27
7.07347E-01 6.36960E-27
7.11309E-01 6.20522E-27
7.15256E-01 6.04500E-27
7.19186E-01 5.88880E-27
7.23099E-01 5.73652E-27
7.26995E-01 5.58805E-27
7.30874E-01 5.44328E-27
7.34736E-01 5.30212E-27
7.38579E-01 5.16446E-27
7.42405E-01 5.03021E-27
7.46212E-01 4.89928E-27
7.50000E-01 4.77157E-27
7.53769E-01 4.64700E-27
7.57519E-01 4.52548E-27
7.61249E-01 4.40694E-27
7.64960E-01 4.29129E-27
7.68650E-01 4.17845E-27
7.72320E-01 4.06836E-27
7.75968E-01 3.96094E-27
7.79596E-01 3.85611E-27
7.83203E-01 3.75382E-27
7.86788E-01 3.65399E-27
7.90351E-01 3.55657E-27
7.93893E-01 3.46148E-27
7.97411E-01 3.36868E-27
8.00908E-01 3.27809E-27
8.04381E-01 3.18967E-27
8.07831E-01 3.10336E-27
8.11257E-01 3.01910E-27
8.14660E-01 2.93685E-27
8.18039E-01 2.85655E-27
8.21394E-01 2.77816E-27
8.24724E-01 2.70162E-27
8.28030E-01 2.62690E-27
8.31310E-01 2.55394E-27
8.34565E-01 2.48270E-27
8.37795E-01 2.41315E-27
8.40999E-01 2.34524E-27
8.44177E-01 2.27892E-27
8.47329E-01 2.21417E-27
8.50455E-01 2.15094E-27
8.53553E-01 2.08920E-27
8.56625E-01 2.02892E-27
8.59670E-01 1.97005E-27
8.62687E-01 1.91256E-27
8.65677E-01 1.85643E-27
8.68639E-01 1.80161E-27
8.71572E-01 1.74809E-27
8.74478E-01 1.69583E-27
8.77355E-01 1.64479E-27
8.80203E-01 1.59496E-27
8.83022E-01 1.54631E-27
8.85812E-01 1.49880E-27
8.88573E-01 1.45241E-27
8.91304E-01 1.40713E-27
8.94005E-01 1.36291E-27
8.96677E-01 1.31975E-27
8.99318E-01 1.27761E-27
9.01928E-01 1.23648E-27
9.04508E-01 1.19633E-27
9.07058E-01 1.15713E-27
9.09576E-01 1.11888E-27
9.12063E-01 1.08155E-27
9.14519E-01 1.04512E-27
9.16943E-01 1.00957E-27
9.19335E-01 9.74890E-28
9.21696E-01 9.41051E-28
9.24024E-01 9.08040E-28
9.26320E-01 8.75840E-28
9.28584E-01 8.44435E-28
9.30815E-01 8.13809E-28
9.33013E-01 7.83946E-28
9.35178E-01 7.54832E-28
9.37310E-01 7.26452E-28
9.39409E-01 6.98790E-28
9.41474E-01 6.71835E-28
9.43505E-01 6.45572E-28
9.45503E-01 6.19988E-28
9.47467E-01 5.95071E-28
9.49397E-01 5.70809E-28
9.51293E-01 5.47189E-28
9.53154E-01 5.24200E-28
9.54981E-01 5.01830E-28
9.56773E-01 4.80070E-28
9.58530E-01 4.58907E-28
9.60252E-01 4.38333E-28
9.61940E-01 4.18337E-28
9.63592E-01 3.98910E-28
9.65209E-01 3.80042E-28
9.66790E-01 3.61724E-28
9.68336E-01 3.43948E-28
9.69846E-01 3.26704E-28
9.71321E-01 3.09986E-28
9.72759E-01 2.93784E-28
9.74162E-01 2.78092E-28
9.75528E-01 2.62902E-28
9.76858E-01 2.48206E-28
9.78152E-01 2.33999E-28
9.79410E-01 2.20272E-28
9.80631E-01 2.07021E-28
9.81815E-01 1.94238E-28
9.82963E-01 1.81918E-28
9.84074E-01 1.70055E-28
9.85148E-01 1.58643E-28
9.86185E-01 1.47678E-28
9.87185E-01 1.37153E-28
9.88148E-01 1.27066E-28
9.89074E-01 1.17409E-28
9.89962E-01 1.08180E-28
9.90814E-01 9.93746E-29
9.91627E-01 9.09876E-29
9.92404E-01 8.30159E-29
9.93143E-01 7.54556E-29
9.93844E-01 6.83034E-29
9.94508E-01 6.15560E-29
9.95134E-01 5.52104E-29
9.95722E-01 4.92636E-29
9.96273E-01 4.37130E-29
9.96786E-01 3.85560E-29
9.97261E-01 3.37903E-29
9.97698E-01 2.94137E-29
9.98097E-01 2.54243E-29
9.98459E-01 2.18202E-29
9.98782E-01 1.85999E-29
9.99067E-01 1.57619E-29
9.99315E-01 1.33048E-29
9.99524E-01 1.12276E-29
9.99695E-01 9.52937E-30
9.99829E-01 8.20931E-30
9.99924E-01 7.26684E-30
9.99981E-01 6.70153E-30
1.00000E+00 6.51312E-30
