 #
 # Subroutine ELSEPA. Elastic scattering of electrons and positrons
 #                    by neutral atoms and positive ions
 #
 # Projectile: positron
 # Kinetic energy = 4.00000E+07 eV = 1.46997E+06 a.u.
 #
 # WARNING: High-energy factorization with free-atom DF screening.
 #          Absorption, polarization and exchange corrections are
 #          switched off.
 #          Phase shifts are calculated for the bare nucleus.
 #          Scattering amplitudes are not evaluated.
 #
 # Element: Ag,  Z =  47,  atomic weight = 1.07868E+02 g/mol
 #
 # Nuclear model: Fermi distribution
 #                Average radius = 5.09348E-13 cm
 #                Skin thickness = 5.46000E-14 cm
 #
 # Number of electrons = 47
 #
 # Total elastic cross section = 4.27762E-18 cm**2 = 1.52757E-01 a0**2
 # 1st transport cross section = 2.41526E-24 cm**2 = 8.62504E-08 a0**2
 # 2nd transport cross section = 7.07211E-24 cm**2 = 2.52550E-07 a0**2
 #
 #
 # Differential cross section:                       MU=(1-COS(THETA))/2
 #
 #  THETA        MU          DCS          DCS        Sherman      error
 #  (deg)                 (cm**2/sr)   (a0**2/sr)    function
 #----------------------------------------------------------------------
0.00000E+00 4.57261E-11
7.61557E-13 4.57099E-11
1.18994E-12 4.57008E-11
1.71346E-12 4.56897E-11
2.33225E-12 4.56766E-11
3.04617E-12 4.56616E-11
3.85530E-12 4.56445E-11
4.75964E-12 4.56255E-11
5.75917E-12 4.56045E-11
6.85391E-12 4.55815E-11
8.04379E-12 4.55566E-11
9.32893E-12 4.55297E-11
1.07092E-11 4.55008E-11
1.21847E-11 4.54700E-11
1.37554E-11 4.54373E-11
1.54213E-11 4.54026E-11
1.71823E-11 4.53660E-11
1.90386E-11 4.53275E-11
2.09900E-11 4.52871E-11
2.30367E-11 4.52448E-11
2.51785E-11 4.52007E-11
2.74156E-11 4.51546E-11
2.97478E-11 4.51067E-11
3.21752E-11 4.50570E-11
3.46979E-11 4.50054E-11
3.73157E-11 4.49520E-11
4.00286E-11 4.48968E-11
4.28368E-11 4.48398E-11
4.57402E-11 4.47810E-11
4.87388E-11 4.47205E-11
5.18325E-11 4.46582E-11
5.50215E-11 4.45942E-11
5.83057E-11 4.45285E-11
6.16850E-11 4.44610E-11
6.51595E-11 4.43919E-11
6.87293E-11 4.43212E-11
7.23943E-11 4.42487E-11
7.61544E-11 4.41746E-11
1.18991E-10 4.33482E-11
1.71347E-10 4.23764E-11
2.33223E-10 4.12871E-11
3.04617E-10 4.00985E-11
3.85531E-10 3.88285E-11
4.75965E-10 3.75047E-11
5.75917E-10 3.61476E-11
6.85389E-10 3.47685E-11
8.04380E-10 3.33828E-11
9.32891E-10 3.20105E-11
1.07092E-09 3.06627E-11
1.21847E-09 2.93376E-11
1.37554E-09 2.80481E-11
1.54213E-09 2.68033E-11
1.71823E-09 2.56065E-11
1.90386E-09 2.44469E-11
2.09900E-09 2.33371E-11
2.30367E-09 2.22786E-11
2.51785E-09 2.12696E-11
2.74156E-09 2.02983E-11
2.97478E-09 1.93755E-11
3.21752E-09 1.84995E-11
3.46978E-09 1.76651E-11
3.73156E-09 1.68655E-11
4.00286E-09 1.61071E-11
4.28368E-09 1.53879E-11
4.57402E-09 1.47014E-11
4.87388E-09 1.40453E-11
5.18326E-09 1.34229E-11
5.50215E-09 1.28324E-11
5.83057E-09 1.22670E-11
6.16850E-09 1.17277E-11
6.51596E-09 1.12158E-11
6.87293E-09 1.07296E-11
7.23942E-09 1.02628E-11
7.61544E-09 9.81822E-12
1.18991E-08 6.36681E-12
1.71347E-08 4.13077E-12
2.33223E-08 2.80299E-12
3.04617E-08 1.92986E-12
3.85531E-08 1.35500E-12
4.75965E-08 9.79536E-13
5.75917E-08 7.26242E-13
6.85389E-08 5.50276E-13
8.04380E-08 4.26068E-13
9.32891E-08 3.36584E-13
1.07092E-07 2.70545E-13
1.21847E-07 2.20407E-13
1.37554E-07 1.81748E-13
1.54213E-07 1.51502E-13
1.71823E-07 1.27459E-13
1.90386E-07 1.07866E-13
2.09900E-07 9.19003E-14
2.30367E-07 7.87744E-14
2.51785E-07 6.78738E-14
2.74156E-07 5.86761E-14
2.97478E-07 5.09619E-14
3.21752E-07 4.44520E-14
3.46978E-07 3.89189E-14
3.73156E-07 3.41667E-14
4.00286E-07 3.01073E-14
4.28368E-07 2.66249E-14
4.57402E-07 2.36195E-14
4.87388E-07 2.10182E-14
5.18325E-07 1.87643E-14
5.50215E-07 1.68036E-14
5.83057E-07 1.50888E-14
6.16850E-07 1.35862E-14
6.51596E-07 1.22665E-14
6.87293E-07 1.11037E-14
7.23942E-07 1.00747E-14
7.61543E-07 9.16294E-15
1.18991E-06 3.97111E-15
1.71347E-06 2.00138E-15
2.33223E-06 1.11638E-15
3.04617E-06 6.69802E-16
3.85531E-06 4.25117E-16
4.75964E-06 2.82270E-16
5.75916E-06 1.94530E-16
6.85388E-06 1.38321E-16
8.04378E-06 1.01005E-16
9.32888E-06 7.54594E-17
1.07092E-05 5.75058E-17
1.21846E-05 4.45913E-17
1.37553E-05 3.51098E-17
1.54212E-05 2.80217E-17
1.71822E-05 2.26366E-17
1.90385E-05 1.84815E-17
2.09899E-05 1.52458E-17
2.30365E-05 1.26875E-17
2.51783E-05 1.06427E-17
2.74153E-05 8.99261E-18
2.97475E-05 7.64961E-18
3.21749E-05 6.54808E-18
3.46974E-05 5.63800E-18
3.73152E-05 4.88095E-18
4.00281E-05 4.24701E-18
4.28362E-05 3.71277E-18
4.57395E-05 3.25988E-18
4.87380E-05 2.87382E-18
5.18317E-05 2.54308E-18
5.50205E-05 2.25844E-18
5.83045E-05 2.01245E-18
6.16838E-05 1.79903E-18
6.51582E-05 1.61316E-18
6.87277E-05 1.45070E-18
7.23925E-05 1.30819E-18
7.61524E-05 1.18279E-18
9.21439E-05 8.08958E-19
1.09658E-04 5.71665E-19
1.28695E-04 4.15290E-19
1.49255E-04 3.08836E-19
1.71338E-04 2.34388E-19
1.94942E-04 1.81053E-19
2.20070E-04 1.42047E-19
2.46720E-04 1.12991E-19
2.74892E-04 9.09896E-20
3.04586E-04 7.40871E-20
3.35803E-04 6.09279E-20
3.68542E-04 5.05617E-20
4.02802E-04 4.23065E-20
4.38585E-04 3.56672E-20
4.75889E-04 3.02790E-20
5.14715E-04 2.58694E-20
5.55063E-04 2.22331E-20
5.96931E-04 1.92128E-20
6.40321E-04 1.66877E-20
6.85233E-04 1.45634E-20
7.31665E-04 1.27661E-20
7.79618E-04 1.12373E-20
8.29092E-04 9.93019E-21
8.80086E-04 8.80740E-21
9.32601E-04 7.83862E-21
9.86636E-04 6.99919E-21
1.04219E-03 6.26898E-21
1.09927E-03 5.63135E-21
1.15786E-03 5.07261E-21
1.21797E-03 4.58133E-21
1.27961E-03 4.14798E-21
1.34276E-03 3.76457E-21
1.40743E-03 3.42435E-21
1.47362E-03 3.12161E-21
1.54133E-03 2.85152E-21
1.61056E-03 2.60996E-21
1.68131E-03 2.39337E-21
1.75357E-03 2.19873E-21
1.82735E-03 2.02343E-21
1.90265E-03 1.86521E-21
1.97947E-03 1.72212E-21
2.05780E-03 1.59244E-21
2.13765E-03 1.47471E-21
2.21902E-03 1.36763E-21
2.30190E-03 1.27007E-21
2.38630E-03 1.18103E-21
2.47222E-03 1.09963E-21
2.55965E-03 1.02509E-21
2.64859E-03 9.56754E-22
2.73905E-03 8.93996E-22
2.83103E-03 8.36283E-22
2.92452E-03 7.83135E-22
3.01952E-03 7.34128E-22
3.11604E-03 6.88883E-22
3.21407E-03 6.47058E-22
3.31362E-03 6.08346E-22
3.41468E-03 5.72475E-22
3.51725E-03 5.39201E-22
3.62133E-03 5.08300E-22
3.72692E-03 4.79572E-22
3.83403E-03 4.52836E-22
3.94265E-03 4.27931E-22
4.05278E-03 4.04708E-22
4.16442E-03 3.83032E-22
4.27757E-03 3.62781E-22
4.39223E-03 3.43845E-22
4.50840E-03 3.26124E-22
4.62608E-03 3.09525E-22
4.74527E-03 2.93963E-22
4.86597E-03 2.79362E-22
4.98817E-03 2.65653E-22
5.11188E-03 2.52771E-22
5.23711E-03 2.40656E-22
5.36383E-03 2.29254E-22
5.49207E-03 2.18517E-22
5.62181E-03 2.08398E-22
5.75306E-03 1.98855E-22
5.88581E-03 1.89848E-22
6.02007E-03 1.81344E-22
6.15583E-03 1.73309E-22
6.29310E-03 1.65709E-22
6.43187E-03 1.58521E-22
6.57214E-03 1.51716E-22
6.71392E-03 1.45270E-22
6.85720E-03 1.39160E-22
7.00198E-03 1.33367E-22
7.14827E-03 1.27871E-22
7.29605E-03 1.22652E-22
7.44534E-03 1.17696E-22
7.59612E-03 1.12986E-22
7.97965E-03 1.02196E-22
8.37255E-03 9.26570E-23
8.77480E-03 8.41985E-23
9.18641E-03 7.66775E-23
9.60736E-03 6.99726E-23
1.00376E-02 6.39801E-23
1.04773E-02 5.86112E-23
1.09262E-02 5.37900E-23
1.13844E-02 4.94510E-23
1.18520E-02 4.55375E-23
1.23288E-02 4.20007E-23
1.28150E-02 3.87980E-23
1.33104E-02 3.58925E-23
1.38150E-02 3.32518E-23
1.43290E-02 3.08475E-23
1.48521E-02 2.86548E-23
1.53845E-02 2.66518E-23
1.59262E-02 2.48193E-23
1.64770E-02 2.31401E-23
1.70371E-02 2.15993E-23
1.76063E-02 2.01834E-23
1.81848E-02 1.88806E-23
1.87724E-02 1.76801E-23
1.93692E-02 1.65726E-23
1.99751E-02 1.55496E-23
2.05901E-02 1.46034E-23
2.12143E-02 1.37274E-23
2.18476E-02 1.29154E-23
2.24900E-02 1.21619E-23
2.31415E-02 1.14619E-23
2.38021E-02 1.08109E-23
2.44717E-02 1.02050E-23
2.51504E-02 9.64043E-24
2.58382E-02 9.11388E-24
2.65349E-02 8.62235E-24
2.72407E-02 8.16309E-24
2.79555E-02 7.73361E-24
2.86793E-02 7.33163E-24
2.94120E-02 6.95508E-24
3.01537E-02 6.60207E-24
3.09043E-02 6.27086E-24
3.16639E-02 5.95987E-24
3.24324E-02 5.66764E-24
3.32098E-02 5.39285E-24
3.39961E-02 5.13426E-24
3.47912E-02 4.89075E-24
3.55952E-02 4.66129E-24
3.64081E-02 4.44492E-24
3.72297E-02 4.24076E-24
3.80602E-02 4.04800E-24
3.88995E-02 3.86589E-24
3.97476E-02 3.69374E-24
4.06044E-02 3.53090E-24
4.14700E-02 3.37678E-24
4.23443E-02 3.23084E-24
4.32273E-02 3.09255E-24
4.41190E-02 2.96146E-24
4.50194E-02 2.83711E-24
4.59284E-02 2.71910E-24
4.68461E-02 2.60705E-24
4.87074E-02 2.39943E-24
5.06030E-02 2.21169E-24
5.25328E-02 2.04162E-24
5.44967E-02 1.88727E-24
5.64946E-02 1.74694E-24
5.85262E-02 1.61915E-24
6.05914E-02 1.50259E-24
6.26901E-02 1.39611E-24
6.48222E-02 1.29869E-24
6.69873E-02 1.20942E-24
6.91854E-02 1.12752E-24
7.14163E-02 1.05227E-24
7.36799E-02 9.83045E-25
7.59760E-02 9.19277E-25
7.83043E-02 8.60465E-25
8.06647E-02 8.06160E-25
8.30571E-02 7.55958E-25
8.54812E-02 7.09497E-25
8.79369E-02 6.66453E-25
9.04240E-02 6.26531E-25
9.29422E-02 5.89468E-25
9.54915E-02 5.55024E-25
9.80716E-02 5.22984E-25
1.00682E-01 4.93151E-25
1.03323E-01 4.65349E-25
1.05995E-01 4.39416E-25
1.08696E-01 4.15206E-25
1.11427E-01 3.92584E-25
1.14188E-01 3.71431E-25
1.16978E-01 3.51634E-25
1.19797E-01 3.33092E-25
1.22645E-01 3.15712E-25
1.25522E-01 2.99410E-25
1.28428E-01 2.84108E-25
1.31361E-01 2.69734E-25
1.34323E-01 2.56223E-25
1.37313E-01 2.43514E-25
1.40330E-01 2.31552E-25
1.43375E-01 2.20286E-25
1.46447E-01 2.09669E-25
1.49545E-01 1.99657E-25
1.52671E-01 1.90210E-25
1.55823E-01 1.81291E-25
1.59001E-01 1.72866E-25
1.62205E-01 1.64904E-25
1.65435E-01 1.57373E-25
1.68690E-01 1.50248E-25
1.71970E-01 1.43503E-25
1.75276E-01 1.37114E-25
1.78606E-01 1.31060E-25
1.81961E-01 1.25320E-25
1.85340E-01 1.19876E-25
1.88743E-01 1.14709E-25
1.92169E-01 1.09803E-25
1.95619E-01 1.05144E-25
1.99092E-01 1.00716E-25
2.02589E-01 9.65061E-26
2.06107E-01 9.25023E-26
2.09649E-01 8.86927E-26
2.13212E-01 8.50664E-26
2.16797E-01 8.16132E-26
2.20404E-01 7.83236E-26
2.24032E-01 7.51886E-26
2.27680E-01 7.21998E-26
2.31350E-01 6.93492E-26
2.35040E-01 6.66296E-26
2.38751E-01 6.40340E-26
2.42481E-01 6.15559E-26
2.46231E-01 5.91890E-26
2.50000E-01 5.69277E-26
2.53788E-01 5.47666E-26
2.57595E-01 5.27004E-26
2.61421E-01 5.07245E-26
2.65264E-01 4.88342E-26
2.69126E-01 4.70253E-26
2.73005E-01 4.52938E-26
2.76901E-01 4.36358E-26
2.80814E-01 4.20478E-26
2.84744E-01 4.05263E-26
2.88691E-01 3.90682E-26
2.92653E-01 3.76704E-26
2.96632E-01 3.63300E-26
3.00625E-01 3.50444E-26
3.04634E-01 3.38110E-26
3.08658E-01 3.26274E-26
3.12697E-01 3.14911E-26
3.16749E-01 3.04002E-26
3.20816E-01 2.93524E-26
3.24896E-01 2.83459E-26
3.28990E-01 2.73788E-26
3.33097E-01 2.64493E-26
3.37216E-01 2.55557E-26
3.41348E-01 2.46965E-26
3.45492E-01 2.38701E-26
3.49647E-01 2.30752E-26
3.53814E-01 2.23103E-26
3.57992E-01 2.15741E-26
3.62181E-01 2.08655E-26
3.66381E-01 2.01832E-26
3.70590E-01 1.95261E-26
3.74810E-01 1.88932E-26
3.79039E-01 1.82834E-26
3.83277E-01 1.76958E-26
3.87524E-01 1.71295E-26
3.91780E-01 1.65836E-26
3.96044E-01 1.60572E-26
4.00316E-01 1.55496E-26
4.04596E-01 1.50600E-26
4.08882E-01 1.45876E-26
4.13176E-01 1.41319E-26
4.17476E-01 1.36920E-26
4.21783E-01 1.32675E-26
4.26095E-01 1.28576E-26
4.30413E-01 1.24619E-26
4.34737E-01 1.20797E-26
4.39065E-01 1.17105E-26
4.43398E-01 1.13539E-26
4.47736E-01 1.10093E-26
4.52077E-01 1.06763E-26
4.56422E-01 1.03544E-26
4.60770E-01 1.00433E-26
4.65122E-01 9.74252E-27
4.69476E-01 9.45166E-27
4.73832E-01 9.17036E-27
4.78190E-01 8.89827E-27
4.82550E-01 8.63505E-27
4.86912E-01 8.38037E-27
4.91274E-01 8.13393E-27
4.95637E-01 7.89542E-27
5.00000E-01 7.66455E-27
5.04363E-01 7.44105E-27
5.08726E-01 7.22465E-27
5.13088E-01 7.01511E-27
5.17450E-01 6.81217E-27
5.21810E-01 6.61560E-27
5.26168E-01 6.42518E-27
5.30524E-01 6.24069E-27
5.34878E-01 6.06193E-27
5.39230E-01 5.88869E-27
5.43578E-01 5.72079E-27
5.47923E-01 5.55804E-27
5.52264E-01 5.40026E-27
5.56602E-01 5.24728E-27
5.60935E-01 5.09895E-27
5.65263E-01 4.95510E-27
5.69587E-01 4.81557E-27
5.73905E-01 4.68024E-27
5.78217E-01 4.54895E-27
5.82524E-01 4.42157E-27
5.86824E-01 4.29797E-27
5.91118E-01 4.17803E-27
5.95404E-01 4.06162E-27
5.99684E-01 3.94863E-27
6.03956E-01 3.83895E-27
6.08220E-01 3.73246E-27
6.12476E-01 3.62908E-27
6.16723E-01 3.52869E-27
6.20961E-01 3.43120E-27
6.25190E-01 3.33652E-27
6.29410E-01 3.24455E-27
6.33619E-01 3.15521E-27
6.37819E-01 3.06843E-27
6.42008E-01 2.98411E-27
6.46186E-01 2.90217E-27
6.50353E-01 2.82256E-27
6.54508E-01 2.74518E-27
6.58652E-01 2.66998E-27
6.62784E-01 2.59688E-27
6.66903E-01 2.52583E-27
6.71010E-01 2.45675E-27
6.75104E-01 2.38959E-27
6.79184E-01 2.32428E-27
6.83251E-01 2.26078E-27
6.87303E-01 2.19903E-27
6.91342E-01 2.13897E-27
6.95366E-01 2.08055E-27
6.99375E-01 2.02373E-27
7.03368E-01 1.96845E-27
7.07347E-01 1.91467E-27
7.11309E-01 1.86235E-27
7.15256E-01 1.81145E-27
7.19186E-01 1.76191E-27
7.23099E-01 1.71370E-27
7.26995E-01 1.66679E-27
7.30874E-01 1.62113E-27
7.34736E-01 1.57669E-27
7.38579E-01 1.53343E-27
7.42405E-01 1.49132E-27
7.46212E-01 1.45032E-27
7.50000E-01 1.41041E-27
7.53769E-01 1.37155E-27
7.57519E-01 1.33371E-27
7.61249E-01 1.29687E-27
7.64960E-01 1.26099E-27
7.68650E-01 1.22604E-27
7.72320E-01 1.19201E-27
7.75968E-01 1.15887E-27
7.79596E-01 1.12659E-27
7.83203E-01 1.09514E-27
7.86788E-01 1.06451E-27
7.90351E-01 1.03467E-27
7.93893E-01 1.00560E-27
7.97411E-01 9.77273E-28
8.00908E-01 9.49679E-28
8.04381E-01 9.22793E-28
8.07831E-01 8.96596E-28
8.11257E-01 8.71069E-28
8.14660E-01 8.46195E-28
8.18039E-01 8.21955E-28
8.21394E-01 7.98333E-28
8.24724E-01 7.75312E-28
8.28030E-01 7.52876E-28
8.31310E-01 7.31010E-28
8.34565E-01 7.09699E-28
8.37795E-01 6.88927E-28
8.40999E-01 6.68682E-28
8.44177E-01 6.48948E-28
8.47329E-01 6.29714E-28
8.50455E-01 6.10965E-28
8.53553E-01 5.92689E-28
8.56625E-01 5.74875E-28
8.59670E-01 5.57509E-28
8.62687E-01 5.40582E-28
8.65677E-01 5.24081E-28
8.68639E-01 5.07996E-28
8.71572E-01 4.92317E-28
8.74478E-01 4.77033E-28
8.77355E-01 4.62134E-28
8.80203E-01 4.47610E-28
8.83022E-01 4.33453E-28
8.85812E-01 4.19654E-28
8.88573E-01 4.06202E-28
8.91304E-01 3.93091E-28
8.94005E-01 3.80312E-28
8.96677E-01 3.67856E-28
8.99318E-01 3.55717E-28
9.01928E-01 3.43885E-28
9.04508E-01 3.32355E-28
9.07058E-01 3.21118E-28
9.09576E-01 3.10169E-28
9.12063E-01 2.99499E-28
9.14519E-01 2.89103E-28
9.16943E-01 2.78975E-28
9.19335E-01 2.69107E-28
9.21696E-01 2.59495E-28
9.24024E-01 2.50132E-28
9.26320E-01 2.41013E-28
9.28584E-01 2.32132E-28
9.30815E-01 2.23484E-28
9.33013E-01 2.15063E-28
9.35178E-01 2.06866E-28
9.37310E-01 1.98886E-28
9.39409E-01 1.91119E-28
9.41474E-01 1.83562E-28
9.43505E-01 1.76208E-28
9.45503E-01 1.69054E-28
9.47467E-01 1.62096E-28
9.49397E-01 1.55329E-28
9.51293E-01 1.48751E-28
9.53154E-01 1.42356E-28
9.54981E-01 1.36141E-28
9.56773E-01 1.30103E-28
9.58530E-01 1.24238E-28
9.60252E-01 1.18543E-28
9.61940E-01 1.13015E-28
9.63592E-01 1.07650E-28
9.65209E-01 1.02446E-28
9.66790E-01 9.73984E-29
9.68336E-01 9.25059E-29
9.69846E-01 8.77652E-29
9.71321E-01 8.31737E-29
9.72759E-01 7.87287E-29
9.74162E-01 7.44279E-29
9.75528E-01 7.02687E-29
9.76858E-01 6.62489E-29
9.78152E-01 6.23662E-29
9.79410E-01 5.86184E-29
9.80631E-01 5.50036E-29
9.81815E-01 5.15196E-29
9.82963E-01 4.81647E-29
9.84074E-01 4.49368E-29
9.85148E-01 4.18342E-29
9.86185E-01 3.88553E-29
9.87185E-01 3.59984E-29
9.88148E-01 3.32619E-29
9.89074E-01 3.06443E-29
9.89962E-01 2.81442E-29
9.90814E-01 2.57603E-29
9.91627E-01 2.34911E-29
9.92404E-01 2.13356E-29
9.93143E-01 1.92925E-29
9.93844E-01 1.73607E-29
9.94508E-01 1.55392E-29
9.95134E-01 1.38270E-29
9.95722E-01 1.22231E-29
9.96273E-01 1.07267E-29
9.96786E-01 9.33698E-30
9.97261E-01 8.05319E-30
9.97698E-01 6.87462E-30
9.98097E-01 5.80065E-30
9.98459E-01 4.83070E-30
9.98782E-01 3.96424E-30
9.99067E-01 3.20082E-30
9.99315E-01 2.54001E-30
9.99524E-01 1.98146E-30
9.99695E-01 1.52488E-30
9.99829E-01 1.17001E-30
9.99924E-01 9.16675E-31
9.99981E-01 7.64726E-31
1.00000E+00 7.14085E-31
