 #
 # Subroutine ELSEPA. Elastic scattering of electrons and positrons
 #                    by neutral atoms and positive ions
 #
 # Projectile: positron
 # Kinetic energy = 9.00000E+07 eV = 3.30744E+06 a.u.
 #
 # WARNING: High-energy factorization with free-atom DF screening.
 #          Absorption, polarization and exchange corrections are
 #          switched off.
 #          Phase shifts are calculated for the bare nucleus.
 #          Scattering amplitudes are not evaluated.
 #
 # Element: Ag,  Z =  47,  atomic weight = 1.07868E+02 g/mol
 #
 # Nuclear model: Fermi distribution
 #                Average radius = 5.09348E-13 cm
 #                Skin thickness = 5.46000E-14 cm
 #
 # Number of electrons = 47
 #
 # Total elastic cross section = 4.28155E-18 cm**2 = 1.52897E-01 a0**2
 # 1st transport cross section = 5.16858E-25 cm**2 = 1.84573E-08 a0**2
 # 2nd transport cross section = 1.53312E-24 cm**2 = 5.47486E-08 a0**2
 #
 #
 # Differential cross section:                       MU=(1-COS(THETA))/2
 #
 #  THETA        MU          DCS          DCS        Sherman      error
 #  (deg)                 (cm**2/sr)   (a0**2/sr)    function
 #----------------------------------------------------------------------
0.00000E+00 2.28256E-10
7.61557E-13 2.27854E-10
1.18994E-12 2.27630E-10
1.71346E-12 2.27356E-10
2.33225E-12 2.27034E-10
3.04617E-12 2.26663E-10
3.85530E-12 2.26245E-10
4.75964E-12 2.25779E-10
5.75917E-12 2.25266E-10
6.85391E-12 2.24707E-10
8.04379E-12 2.24103E-10
9.32893E-12 2.23454E-10
1.07092E-11 2.22762E-10
1.21847E-11 2.22026E-10
1.37554E-11 2.21249E-10
1.54213E-11 2.20430E-10
1.71823E-11 2.19571E-10
1.90386E-11 2.18673E-10
2.09900E-11 2.17736E-10
2.30367E-11 2.16763E-10
2.51785E-11 2.15754E-10
2.74156E-11 2.14710E-10
2.97478E-11 2.13626E-10
3.21752E-11 2.12510E-10
3.46979E-11 2.11366E-10
3.73157E-11 2.10195E-10
4.00286E-11 2.08998E-10
4.28368E-11 2.07778E-10
4.57402E-11 2.06519E-10
4.87388E-11 2.05232E-10
5.18325E-11 2.03924E-10
5.50215E-11 2.02598E-10
5.83057E-11 2.01256E-10
6.16850E-11 1.99898E-10
6.51595E-11 1.98507E-10
6.87293E-11 1.97092E-10
7.23943E-11 1.95666E-10
7.61544E-11 1.94229E-10
1.18991E-10 1.79255E-10
1.71347E-10 1.63869E-10
2.33223E-10 1.48790E-10
3.04617E-10 1.34571E-10
3.85531E-10 1.21426E-10
4.75965E-10 1.09439E-10
5.75917E-10 9.86497E-11
6.85389E-10 8.89392E-11
8.04380E-10 8.02321E-11
9.32891E-10 7.24559E-11
1.07092E-09 6.54657E-11
1.21847E-09 5.92037E-11
1.37554E-09 5.35997E-11
1.54213E-09 4.85437E-11
1.71823E-09 4.40076E-11
1.90386E-09 3.99354E-11
2.09900E-09 3.62523E-11
2.30367E-09 3.29430E-11
2.51785E-09 2.99629E-11
2.74156E-09 2.72674E-11
2.97478E-09 2.46623E-11
3.21752E-09 2.23465E-11
3.46978E-09 2.03447E-11
3.73156E-09 1.86057E-11
4.00286E-09 1.70882E-11
4.28368E-09 1.57581E-11
4.57402E-09 1.44202E-11
4.87388E-09 1.31748E-11
5.18326E-09 1.20792E-11
5.50215E-09 1.11116E-11
5.83057E-09 1.02542E-11
6.16850E-09 9.49171E-12
6.51596E-09 8.75652E-12
6.87293E-09 8.07003E-12
7.23942E-09 7.45691E-12
7.61544E-09 6.90774E-12
1.18991E-08 3.44909E-12
1.71347E-08 1.92976E-12
2.33223E-08 1.18210E-12
3.04617E-08 7.73583E-13
3.85531E-08 5.29160E-13
4.75965E-08 3.73315E-13
5.75917E-08 2.69992E-13
6.85389E-08 1.99135E-13
8.04380E-08 1.49452E-13
9.32891E-08 1.14100E-13
1.07092E-07 8.84780E-14
1.21847E-07 6.96258E-14
1.37554E-07 5.55321E-14
1.54213E-07 4.48309E-14
1.71823E-07 3.66076E-14
1.90386E-07 3.02074E-14
2.09900E-07 2.51612E-14
2.30367E-07 2.11375E-14
2.51785E-07 1.78936E-14
2.74156E-07 1.52519E-14
2.97478E-07 1.30772E-14
3.21752E-07 1.12843E-14
3.46978E-07 9.79142E-15
3.73156E-07 8.53325E-15
4.00286E-07 7.47657E-15
4.28368E-07 6.57249E-15
4.57402E-07 5.80348E-15
4.87388E-07 5.14307E-15
5.18325E-07 4.57274E-15
5.50215E-07 4.08093E-15
5.83057E-07 3.65062E-15
6.16850E-07 3.27673E-15
6.51596E-07 2.94867E-15
6.87293E-07 2.66044E-15
7.23942E-07 2.40686E-15
7.61543E-07 2.18191E-15
1.18991E-06 9.14779E-16
1.71347E-06 4.47251E-16
2.33223E-06 2.43789E-16
3.04617E-06 1.44012E-16
3.85531E-06 9.04748E-17
4.75964E-06 5.96717E-17
5.75916E-06 4.09338E-17
6.85388E-06 2.90063E-17
8.04378E-06 2.11222E-17
9.32888E-06 1.57426E-17
1.07092E-05 1.19707E-17
1.21846E-05 9.26291E-18
1.37553E-05 7.27865E-18
1.54212E-05 5.79793E-18
1.71822E-05 4.67500E-18
1.90385E-05 3.81009E-18
2.09899E-05 3.13771E-18
2.30365E-05 2.60700E-18
2.51783E-05 2.18351E-18
2.74153E-05 1.84231E-18
2.97475E-05 1.56505E-18
3.21749E-05 1.33799E-18
3.46974E-05 1.15067E-18
3.73152E-05 9.95058E-19
4.00281E-05 8.64926E-19
4.28362E-05 7.55396E-19
4.57395E-05 6.62655E-19
4.87380E-05 5.83689E-19
5.18317E-05 5.16110E-19
5.50205E-05 4.58011E-19
5.83045E-05 4.07848E-19
6.16838E-05 3.64365E-19
6.51582E-05 3.26528E-19
6.87277E-05 2.93482E-19
7.23925E-05 2.64516E-19
7.61524E-05 2.39087E-19
9.21439E-05 1.63259E-19
1.09658E-04 1.15228E-19
1.28695E-04 8.36275E-20
1.49255E-04 6.21437E-20
1.71338E-04 4.71350E-20
1.94942E-04 3.63917E-20
2.20070E-04 2.85402E-20
2.46720E-04 2.26949E-20
2.74892E-04 1.82708E-20
3.04586E-04 1.48734E-20
3.35803E-04 1.22293E-20
3.68542E-04 1.01469E-20
4.02802E-04 8.48905E-21
4.38585E-04 7.15591E-21
4.75889E-04 6.07423E-21
5.14715E-04 5.18910E-21
5.55063E-04 4.45931E-21
5.96931E-04 3.85320E-21
6.40321E-04 3.34652E-21
6.85233E-04 2.92031E-21
7.31665E-04 2.55973E-21
7.79618E-04 2.25302E-21
8.29092E-04 1.99083E-21
8.80086E-04 1.76561E-21
9.32601E-04 1.57130E-21
9.86636E-04 1.40293E-21
1.04219E-03 1.25648E-21
1.09927E-03 1.12861E-21
1.15786E-03 1.01655E-21
1.21797E-03 9.18037E-22
1.27961E-03 8.31131E-22
1.34276E-03 7.54251E-22
1.40743E-03 6.86031E-22
1.47362E-03 6.25329E-22
1.54133E-03 5.71177E-22
1.61056E-03 5.22741E-22
1.68131E-03 4.79318E-22
1.75357E-03 4.40296E-22
1.82735E-03 4.05151E-22
1.90265E-03 3.73432E-22
1.97947E-03 3.44746E-22
2.05780E-03 3.18752E-22
2.13765E-03 2.95153E-22
2.21902E-03 2.73689E-22
2.30190E-03 2.54133E-22
2.38630E-03 2.36285E-22
2.47222E-03 2.19970E-22
2.55965E-03 2.05033E-22
2.64859E-03 1.91336E-22
2.73905E-03 1.78759E-22
2.83103E-03 1.67193E-22
2.92452E-03 1.56543E-22
3.01952E-03 1.46723E-22
3.11604E-03 1.37658E-22
3.21407E-03 1.29277E-22
3.31362E-03 1.21522E-22
3.41468E-03 1.14336E-22
3.51725E-03 1.07670E-22
3.62133E-03 1.01480E-22
3.72692E-03 9.57263E-23
3.83403E-03 9.03717E-23
3.94265E-03 8.53839E-23
4.05278E-03 8.07332E-23
4.16442E-03 7.63927E-23
4.27757E-03 7.23380E-23
4.39223E-03 6.85469E-23
4.50840E-03 6.49991E-23
4.62608E-03 6.16762E-23
4.74527E-03 5.85613E-23
4.86597E-03 5.56391E-23
4.98817E-03 5.28955E-23
5.11188E-03 5.03175E-23
5.23711E-03 4.78934E-23
5.36383E-03 4.56123E-23
5.49207E-03 4.34642E-23
5.62181E-03 4.14400E-23
5.75306E-03 3.95312E-23
5.88581E-03 3.77301E-23
6.02007E-03 3.60294E-23
6.15583E-03 3.44226E-23
6.29310E-03 3.29034E-23
6.43187E-03 3.14664E-23
6.57214E-03 3.01061E-23
6.71392E-03 2.88178E-23
6.85720E-03 2.75970E-23
7.00198E-03 2.64395E-23
7.14827E-03 2.53413E-23
7.29605E-03 2.42990E-23
7.44534E-03 2.33091E-23
7.59612E-03 2.23685E-23
7.97965E-03 2.02142E-23
8.37255E-03 1.83103E-23
8.77480E-03 1.66228E-23
9.18641E-03 1.51229E-23
9.60736E-03 1.37863E-23
1.00376E-02 1.25922E-23
1.04773E-02 1.15229E-23
1.09262E-02 1.05631E-23
1.13844E-02 9.69972E-24
1.18520E-02 8.92143E-24
1.23288E-02 8.21842E-24
1.28150E-02 7.58218E-24
1.33104E-02 7.00529E-24
1.38150E-02 6.48127E-24
1.43290E-02 6.00446E-24
1.48521E-02 5.56988E-24
1.53845E-02 5.17315E-24
1.59262E-02 4.81042E-24
1.64770E-02 4.47828E-24
1.70371E-02 4.17371E-24
1.76063E-02 3.89403E-24
1.81848E-02 3.63686E-24
1.87724E-02 3.40009E-24
1.93692E-02 3.18181E-24
1.99751E-02 2.98035E-24
2.05901E-02 2.79418E-24
2.12143E-02 2.62195E-24
2.18476E-02 2.46244E-24
2.24900E-02 2.31454E-24
2.31415E-02 2.17728E-24
2.38021E-02 2.04975E-24
2.44717E-02 1.93115E-24
2.51504E-02 1.82075E-24
2.58382E-02 1.71789E-24
2.65349E-02 1.62196E-24
2.72407E-02 1.53242E-24
2.79555E-02 1.44877E-24
2.86793E-02 1.37056E-24
2.94120E-02 1.29738E-24
3.01537E-02 1.22885E-24
3.09043E-02 1.16462E-24
3.16639E-02 1.10438E-24
3.24324E-02 1.04784E-24
3.32098E-02 9.94741E-25
3.39961E-02 9.44830E-25
3.47912E-02 8.97887E-25
3.55952E-02 8.53707E-25
3.64081E-02 8.12099E-25
3.72297E-02 7.72890E-25
3.80602E-02 7.35919E-25
3.88995E-02 7.01037E-25
3.97476E-02 6.68107E-25
4.06044E-02 6.37001E-25
4.14700E-02 6.07602E-25
4.23443E-02 5.79801E-25
4.32273E-02 5.53498E-25
4.41190E-02 5.28598E-25
4.50194E-02 5.05015E-25
4.59284E-02 4.82667E-25
4.68461E-02 4.61480E-25
4.87074E-02 4.22313E-25
5.06030E-02 3.87009E-25
5.25328E-02 3.55131E-25
5.44967E-02 3.26297E-25
5.64946E-02 3.00172E-25
5.85262E-02 2.76466E-25
6.05914E-02 2.54921E-25
6.26901E-02 2.35311E-25
6.48222E-02 2.17438E-25
6.69873E-02 2.01126E-25
6.91854E-02 1.86218E-25
7.14163E-02 1.72577E-25
7.36799E-02 1.60079E-25
7.59760E-02 1.48616E-25
7.83043E-02 1.38090E-25
8.06647E-02 1.28413E-25
8.30571E-02 1.19508E-25
8.54812E-02 1.11305E-25
8.79369E-02 1.03741E-25
9.04240E-02 9.67585E-26
9.29422E-02 9.03081E-26
9.54915E-02 8.43434E-26
9.80716E-02 7.88230E-26
1.00682E-01 7.37096E-26
1.03323E-01 6.89693E-26
1.05995E-01 6.45713E-26
1.08696E-01 6.04879E-26
1.11427E-01 5.66936E-26
1.14188E-01 5.31654E-26
1.16978E-01 4.98824E-26
1.19797E-01 4.68254E-26
1.22645E-01 4.39771E-26
1.25522E-01 4.13214E-26
1.28428E-01 3.88437E-26
1.31361E-01 3.65308E-26
1.34323E-01 3.43703E-26
1.37313E-01 3.23512E-26
1.40330E-01 3.04630E-26
1.43375E-01 2.86964E-26
1.46447E-01 2.70426E-26
1.49545E-01 2.54936E-26
1.52671E-01 2.40421E-26
1.55823E-01 2.26812E-26
1.59001E-01 2.14048E-26
1.62205E-01 2.02069E-26
1.65435E-01 1.90823E-26
1.68690E-01 1.80260E-26
1.71970E-01 1.70335E-26
1.75276E-01 1.61004E-26
1.78606E-01 1.52230E-26
1.81961E-01 1.43975E-26
1.85340E-01 1.36205E-26
1.88743E-01 1.28890E-26
1.92169E-01 1.22001E-26
1.95619E-01 1.15509E-26
1.99092E-01 1.09391E-26
2.02589E-01 1.03622E-26
2.06107E-01 9.81810E-27
2.09649E-01 9.30477E-27
2.13212E-01 8.82031E-27
2.16797E-01 8.36294E-27
2.20404E-01 7.93103E-27
2.24032E-01 7.52304E-27
2.27680E-01 7.13753E-27
2.31350E-01 6.77317E-27
2.35040E-01 6.42868E-27
2.38751E-01 6.10292E-27
2.42481E-01 5.79477E-27
2.46231E-01 5.50321E-27
2.50000E-01 5.22727E-27
2.53788E-01 4.96606E-27
2.57595E-01 4.71873E-27
2.61421E-01 4.48449E-27
2.65264E-01 4.26260E-27
2.69126E-01 4.05235E-27
2.73005E-01 3.85309E-27
2.76901E-01 3.66421E-27
2.80814E-01 3.48513E-27
2.84744E-01 3.31530E-27
2.88691E-01 3.15422E-27
2.92653E-01 3.00140E-27
2.96632E-01 2.85640E-27
3.00625E-01 2.71878E-27
3.04634E-01 2.58815E-27
3.08658E-01 2.46413E-27
3.12697E-01 2.34636E-27
3.16749E-01 2.23451E-27
3.20816E-01 2.12827E-27
3.24896E-01 2.02733E-27
3.28990E-01 1.93142E-27
3.33097E-01 1.84027E-27
3.37216E-01 1.75362E-27
3.41348E-01 1.67126E-27
3.45492E-01 1.59294E-27
3.49647E-01 1.51847E-27
3.53814E-01 1.44764E-27
3.57992E-01 1.38026E-27
3.62181E-01 1.31616E-27
3.66381E-01 1.25518E-27
3.70590E-01 1.19714E-27
3.74810E-01 1.14190E-27
3.79039E-01 1.08932E-27
3.83277E-01 1.03927E-27
3.87524E-01 9.91613E-28
3.91780E-01 9.46233E-28
3.96044E-01 9.03015E-28
4.00316E-01 8.61853E-28
4.04596E-01 8.22643E-28
4.08882E-01 7.85288E-28
4.13176E-01 7.49697E-28
4.17476E-01 7.15782E-28
4.21783E-01 6.83462E-28
4.26095E-01 6.52657E-28
4.30413E-01 6.23294E-28
4.34737E-01 5.95302E-28
4.39065E-01 5.68614E-28
4.43398E-01 5.43167E-28
4.47736E-01 5.18901E-28
4.52077E-01 4.95758E-28
4.56422E-01 4.73685E-28
4.60770E-01 4.52631E-28
4.65122E-01 4.32545E-28
4.69476E-01 4.13382E-28
4.73832E-01 3.95098E-28
4.78190E-01 3.77651E-28
4.82550E-01 3.61000E-28
4.86912E-01 3.45109E-28
4.91274E-01 3.29941E-28
4.95637E-01 3.15462E-28
5.00000E-01 3.01640E-28
5.04363E-01 2.88444E-28
5.08726E-01 2.75843E-28
5.13088E-01 2.63812E-28
5.17450E-01 2.52322E-28
5.21810E-01 2.41348E-28
5.26168E-01 2.30867E-28
5.30524E-01 2.20855E-28
5.34878E-01 2.11292E-28
5.39230E-01 2.02155E-28
5.43578E-01 1.93426E-28
5.47923E-01 1.85085E-28
5.52264E-01 1.77115E-28
5.56602E-01 1.69498E-28
5.60935E-01 1.62219E-28
5.65263E-01 1.55262E-28
5.69587E-01 1.48611E-28
5.73905E-01 1.42254E-28
5.78217E-01 1.36177E-28
5.82524E-01 1.30367E-28
5.86824E-01 1.24812E-28
5.91118E-01 1.19501E-28
5.95404E-01 1.14421E-28
5.99684E-01 1.09564E-28
6.03956E-01 1.04919E-28
6.08220E-01 1.00475E-28
6.12476E-01 9.62256E-29
6.16723E-01 9.21603E-29
6.20961E-01 8.82713E-29
6.25190E-01 8.45508E-29
6.29410E-01 8.09911E-29
6.33619E-01 7.75851E-29
6.37819E-01 7.43260E-29
6.42008E-01 7.12073E-29
6.46186E-01 6.82226E-29
6.50353E-01 6.53661E-29
6.54508E-01 6.26321E-29
6.58652E-01 6.00152E-29
6.62784E-01 5.75101E-29
6.66903E-01 5.51120E-29
6.71010E-01 5.28162E-29
6.75104E-01 5.06182E-29
6.79184E-01 4.85136E-29
6.83251E-01 4.64984E-29
6.87303E-01 4.45687E-29
6.91342E-01 4.27207E-29
6.95366E-01 4.09508E-29
6.99375E-01 3.92558E-29
7.03368E-01 3.76322E-29
7.07347E-01 3.60771E-29
7.11309E-01 3.45873E-29
7.15256E-01 3.31602E-29
7.19186E-01 3.17929E-29
7.23099E-01 3.04830E-29
7.26995E-01 2.92279E-29
7.30874E-01 2.80252E-29
7.34736E-01 2.68727E-29
7.38579E-01 2.57683E-29
7.42405E-01 2.47099E-29
7.46212E-01 2.36955E-29
7.50000E-01 2.27232E-29
7.53769E-01 2.17912E-29
7.57519E-01 2.08979E-29
7.61249E-01 2.00415E-29
7.64960E-01 1.92205E-29
7.68650E-01 1.84334E-29
7.72320E-01 1.76787E-29
7.75968E-01 1.69551E-29
7.79596E-01 1.62612E-29
7.83203E-01 1.55958E-29
7.86788E-01 1.49577E-29
7.90351E-01 1.43457E-29
7.93893E-01 1.37588E-29
7.97411E-01 1.31959E-29
8.00908E-01 1.26559E-29
8.04381E-01 1.21380E-29
8.07831E-01 1.16411E-29
8.11257E-01 1.11644E-29
8.14660E-01 1.07071E-29
8.18039E-01 1.02683E-29
8.21394E-01 9.84737E-30
8.24724E-01 9.44343E-30
8.28030E-01 9.05581E-30
8.31310E-01 8.68385E-30
8.34565E-01 8.32689E-30
8.37795E-01 7.98431E-30
8.40999E-01 7.65551E-30
8.44177E-01 7.33993E-30
8.47329E-01 7.03702E-30
8.50455E-01 6.74626E-30
8.53553E-01 6.46715E-30
8.56625E-01 6.19921E-30
8.59670E-01 5.94198E-30
8.62687E-01 5.69503E-30
8.65677E-01 5.45793E-30
8.68639E-01 5.23028E-30
8.71572E-01 5.01170E-30
8.74478E-01 4.80181E-30
8.77355E-01 4.60026E-30
8.80203E-01 4.40672E-30
8.83022E-01 4.22086E-30
8.85812E-01 4.04236E-30
8.88573E-01 3.87093E-30
8.91304E-01 3.70629E-30
8.94005E-01 3.54816E-30
8.96677E-01 3.39629E-30
8.99318E-01 3.25040E-30
9.01928E-01 3.11028E-30
9.04508E-01 2.97569E-30
9.07058E-01 2.84640E-30
9.09576E-01 2.72220E-30
9.12063E-01 2.60290E-30
9.14519E-01 2.48829E-30
9.16943E-01 2.37820E-30
9.19335E-01 2.27244E-30
9.21696E-01 2.17084E-30
9.24024E-01 2.07324E-30
9.26320E-01 1.97948E-30
9.28584E-01 1.88941E-30
9.30815E-01 1.80288E-30
9.33013E-01 1.71977E-30
9.35178E-01 1.63992E-30
9.37310E-01 1.56322E-30
9.39409E-01 1.48955E-30
9.41474E-01 1.41879E-30
9.43505E-01 1.35082E-30
9.45503E-01 1.28554E-30
9.47467E-01 1.22285E-30
9.49397E-01 1.16265E-30
9.51293E-01 1.10483E-30
9.53154E-01 1.04933E-30
9.54981E-01 9.96034E-31
9.56773E-01 9.44875E-31
9.58530E-01 8.95769E-31
9.60252E-01 8.48640E-31
9.61940E-01 8.03415E-31
9.63592E-01 7.60024E-31
9.65209E-01 7.18401E-31
9.66790E-01 6.78481E-31
9.68336E-01 6.40202E-31
9.69846E-01 6.03506E-31
9.71321E-01 5.68337E-31
9.72759E-01 5.34640E-31
9.74162E-01 5.02365E-31
9.75528E-01 4.71462E-31
9.76858E-01 4.41885E-31
9.78152E-01 4.13588E-31
9.79410E-01 3.86528E-31
9.80631E-01 3.60665E-31
9.81815E-01 3.35959E-31
9.82963E-01 3.12373E-31
9.84074E-01 2.89872E-31
9.85148E-01 2.68422E-31
9.86185E-01 2.47990E-31
9.87185E-01 2.28545E-31
9.88148E-01 2.10060E-31
9.89074E-01 1.92506E-31
9.89962E-01 1.75856E-31
9.90814E-01 1.60087E-31
9.91627E-01 1.45174E-31
9.92404E-01 1.31095E-31
9.93143E-01 1.17830E-31
9.93844E-01 1.05358E-31
9.94508E-01 9.36614E-32
9.95134E-01 8.27225E-32
9.95722E-01 7.25253E-32
9.96273E-01 6.30546E-32
9.96786E-01 5.42964E-32
9.97261E-01 4.62377E-32
9.97698E-01 3.88667E-32
9.98097E-01 3.21725E-32
9.98459E-01 2.61452E-32
9.98782E-01 2.07759E-32
9.99067E-01 1.60567E-32
9.99315E-01 1.19807E-32
9.99524E-01 8.54192E-33
9.99695E-01 5.73521E-33
9.99829E-01 3.55646E-33
9.99924E-01 2.00253E-33
9.99981E-01 1.07105E-33
1.00000E+00 7.60721E-34
