 #
 # Subroutine ELSEPA. Elastic scattering of electrons and positrons
 #                    by neutral atoms and positive ions
 #
 # Projectile: positron
 # Kinetic energy = 1.25000E+07 eV = 4.59367E+05 a.u.
 #
 # WARNING: High-energy factorization with free-atom DF screening.
 #          Absorption, polarization and exchange corrections are
 #          switched off.
 #          Phase shifts are calculated for the bare nucleus.
 #          Scattering amplitudes are not evaluated.
 #
 # Element: Ag,  Z =  47,  atomic weight = 1.07868E+02 g/mol
 #
 # Nuclear model: Fermi distribution
 #                Average radius = 5.09348E-13 cm
 #                Skin thickness = 5.46000E-14 cm
 #
 # Number of electrons = 47
 #
 # Total elastic cross section = 4.28613E-18 cm**2 = 1.53060E-01 a0**2
 # 1st transport cross section = 1.99246E-23 cm**2 = 7.11519E-07 a0**2
 # 2nd transport cross section = 5.77770E-23 cm**2 = 2.06325E-06 a0**2
 #
 #
 # Differential cross section:                       MU=(1-COS(THETA))/2
 #
 #  THETA        MU          DCS          DCS        Sherman      error
 #  (deg)                 (cm**2/sr)   (a0**2/sr)    function
 #----------------------------------------------------------------------
0.00000E+00 4.71672E-12
7.61557E-13 4.71654E-12
1.18994E-12 4.71644E-12
1.71346E-12 4.71632E-12
2.33225E-12 4.71618E-12
3.04617E-12 4.71602E-12
3.85530E-12 4.71583E-12
4.75964E-12 4.71563E-12
5.75917E-12 4.71540E-12
6.85391E-12 4.71515E-12
8.04379E-12 4.71488E-12
9.32893E-12 4.71459E-12
1.07092E-11 4.71428E-12
1.21847E-11 4.71395E-12
1.37554E-11 4.71360E-12
1.54213E-11 4.71322E-12
1.71823E-11 4.71283E-12
1.90386E-11 4.71241E-12
2.09900E-11 4.71197E-12
2.30367E-11 4.71151E-12
2.51785E-11 4.71103E-12
2.74156E-11 4.71053E-12
2.97478E-11 4.71001E-12
3.21752E-11 4.70946E-12
3.46979E-11 4.70890E-12
3.73157E-11 4.70831E-12
4.00286E-11 4.70770E-12
4.28368E-11 4.70708E-12
4.57402E-11 4.70643E-12
4.87388E-11 4.70576E-12
5.18325E-11 4.70506E-12
5.50215E-11 4.70435E-12
5.83057E-11 4.70362E-12
6.16850E-11 4.70286E-12
6.51595E-11 4.70209E-12
6.87293E-11 4.70129E-12
7.23943E-11 4.70048E-12
7.61544E-11 4.69964E-12
1.18991E-10 4.69012E-12
1.71347E-10 4.67854E-12
2.33223E-10 4.66493E-12
3.04617E-10 4.64933E-12
3.85531E-10 4.63179E-12
4.75965E-10 4.61233E-12
5.75917E-10 4.59102E-12
6.85389E-10 4.56791E-12
8.04380E-10 4.54306E-12
9.32891E-10 4.51652E-12
1.07092E-09 4.48836E-12
1.21847E-09 4.45865E-12
1.37554E-09 4.42742E-12
1.54213E-09 4.39460E-12
1.71823E-09 4.36058E-12
1.90386E-09 4.32543E-12
2.09900E-09 4.28924E-12
2.30367E-09 4.25148E-12
2.51785E-09 4.21277E-12
2.74156E-09 4.17328E-12
2.97478E-09 4.13311E-12
3.21752E-09 4.09173E-12
3.46978E-09 4.04953E-12
3.73156E-09 4.00689E-12
4.00286E-09 3.96388E-12
4.28368E-09 3.92011E-12
4.57402E-09 3.87556E-12
4.87388E-09 3.83087E-12
5.18326E-09 3.78612E-12
5.50215E-09 3.74109E-12
5.83057E-09 3.69522E-12
6.16850E-09 3.64948E-12
6.51596E-09 3.60393E-12
6.87293E-09 3.55860E-12
7.23942E-09 3.51231E-12
7.61544E-09 3.46637E-12
1.18991E-08 3.01973E-12
1.71347E-08 2.60968E-12
2.33223E-08 2.24839E-12
3.04617E-08 1.93721E-12
3.85531E-08 1.67011E-12
4.75965E-08 1.44243E-12
5.75917E-08 1.24815E-12
6.85389E-08 1.08142E-12
8.04380E-08 9.38798E-13
9.32891E-08 8.16229E-13
1.07092E-07 7.10718E-13
1.21847E-07 6.20022E-13
1.37554E-07 5.40771E-13
1.54213E-07 4.68140E-13
1.71823E-07 4.09286E-13
1.90386E-07 3.61121E-13
2.09900E-07 3.21335E-13
2.30367E-07 2.82025E-13
2.51785E-07 2.48729E-13
2.74156E-07 2.20876E-13
2.97478E-07 1.97407E-13
3.21752E-07 1.75777E-13
3.46978E-07 1.56659E-13
3.73156E-07 1.40355E-13
4.00286E-07 1.26370E-13
4.28368E-07 1.13889E-13
4.57402E-07 1.02636E-13
4.87388E-07 9.28746E-14
5.18325E-07 8.43695E-14
5.50215E-07 7.68456E-14
5.83057E-07 6.99957E-14
6.16850E-07 6.39671E-14
6.51596E-07 5.86417E-14
6.87293E-07 5.39189E-14
7.23942E-07 4.95835E-14
7.61543E-07 4.57204E-14
1.18991E-06 2.25123E-14
1.71347E-06 1.25735E-14
2.33223E-06 7.56638E-15
3.04617E-06 4.78819E-15
3.85531E-06 3.14736E-15
4.75964E-06 2.14221E-15
5.75916E-06 1.50535E-15
6.85388E-06 1.08769E-15
8.04378E-06 8.05801E-16
9.32888E-06 6.10324E-16
1.07092E-05 4.71265E-16
1.21846E-05 3.69973E-16
1.37553E-05 2.94594E-16
1.54212E-05 2.37510E-16
1.71822E-05 1.93742E-16
1.90385E-05 1.59580E-16
2.09899E-05 1.32637E-16
2.30365E-05 1.11190E-16
2.51783E-05 9.38106E-17
2.74153E-05 7.97073E-17
2.97475E-05 6.81279E-17
3.21749E-05 5.85599E-17
3.46974E-05 5.06230E-17
3.73152E-05 4.39617E-17
4.00281E-05 3.83690E-17
4.28362E-05 3.36304E-17
4.57395E-05 2.95981E-17
4.87380E-05 2.61521E-17
5.18317E-05 2.31857E-17
5.50205E-05 2.06291E-17
5.83045E-05 1.84125E-17
6.16838E-05 1.64855E-17
6.51582E-05 1.48045E-17
6.87277E-05 1.33314E-17
7.23925E-05 1.20379E-17
7.61524E-05 1.08969E-17
9.21439E-05 7.48674E-18
1.09658E-04 5.31170E-18
1.28695E-04 3.87280E-18
1.49255E-04 2.88971E-18
1.71338E-04 2.19988E-18
1.94942E-04 1.70413E-18
2.20070E-04 1.34047E-18
2.46720E-04 1.06882E-18
2.74892E-04 8.62582E-19
3.04586E-04 7.03735E-19
3.35803E-04 5.79784E-19
3.68542E-04 4.81931E-19
4.02802E-04 4.03846E-19
4.38585E-04 3.40930E-19
4.75889E-04 2.89783E-19
5.14715E-04 2.47858E-19
5.55063E-04 2.13235E-19
5.96931E-04 1.84439E-19
6.40321E-04 1.60333E-19
6.85233E-04 1.40032E-19
7.31665E-04 1.22837E-19
7.79618E-04 1.08196E-19
8.29092E-04 9.56677E-20
8.80086E-04 8.48970E-20
9.32601E-04 7.55966E-20
9.86636E-04 6.75323E-20
1.04219E-03 6.05125E-20
1.09927E-03 5.43792E-20
1.15786E-03 4.90016E-20
1.21797E-03 4.42709E-20
1.27961E-03 4.00959E-20
1.34276E-03 3.64004E-20
1.40743E-03 3.31197E-20
1.47362E-03 3.01995E-20
1.54133E-03 2.75932E-20
1.61056E-03 2.52613E-20
1.68131E-03 2.31699E-20
1.75357E-03 2.12898E-20
1.82735E-03 1.95961E-20
1.90265E-03 1.80670E-20
1.97947E-03 1.66837E-20
2.05780E-03 1.54299E-20
2.13765E-03 1.42913E-20
2.21902E-03 1.32555E-20
2.30190E-03 1.23116E-20
2.38630E-03 1.14499E-20
2.47222E-03 1.06621E-20
2.55965E-03 9.94064E-21
2.64859E-03 9.27897E-21
2.73905E-03 8.67127E-21
2.83103E-03 8.11234E-21
2.92452E-03 7.59756E-21
3.01952E-03 7.12284E-21
3.11604E-03 6.68448E-21
3.21407E-03 6.27921E-21
3.31362E-03 5.90408E-21
3.41468E-03 5.55644E-21
3.51725E-03 5.23393E-21
3.62133E-03 4.93438E-21
3.72692E-03 4.65588E-21
3.83403E-03 4.39668E-21
3.94265E-03 4.15519E-21
4.05278E-03 3.93000E-21
4.16442E-03 3.71979E-21
4.27757E-03 3.52339E-21
4.39223E-03 3.33973E-21
4.50840E-03 3.16784E-21
4.62608E-03 3.00681E-21
4.74527E-03 2.85584E-21
4.86597E-03 2.71419E-21
4.98817E-03 2.58118E-21
5.11188E-03 2.45618E-21
5.23711E-03 2.33862E-21
5.36383E-03 2.22798E-21
5.49207E-03 2.12377E-21
5.62181E-03 2.02556E-21
5.75306E-03 1.93294E-21
5.88581E-03 1.84552E-21
6.02007E-03 1.76297E-21
6.15583E-03 1.68496E-21
6.29310E-03 1.61119E-21
6.43187E-03 1.54140E-21
6.57214E-03 1.47533E-21
6.71392E-03 1.41274E-21
6.85720E-03 1.35343E-21
7.00198E-03 1.29717E-21
7.14827E-03 1.24379E-21
7.29605E-03 1.19312E-21
7.44534E-03 1.14499E-21
7.59612E-03 1.09925E-21
7.97965E-03 9.94448E-22
8.37255E-03 9.01784E-22
8.77480E-03 8.19610E-22
9.18641E-03 7.46538E-22
9.60736E-03 6.81387E-22
1.00376E-02 6.23153E-22
1.04773E-02 5.70974E-22
1.09262E-02 5.24113E-22
1.13844E-02 4.81934E-22
1.18520E-02 4.43888E-22
1.23288E-02 4.09502E-22
1.28150E-02 3.78361E-22
1.33104E-02 3.50106E-22
1.38150E-02 3.24423E-22
1.43290E-02 3.01037E-22
1.48521E-02 2.79706E-22
1.53845E-02 2.60219E-22
1.59262E-02 2.42389E-22
1.64770E-02 2.26049E-22
1.70371E-02 2.11053E-22
1.76063E-02 1.97271E-22
1.81848E-02 1.84587E-22
1.87724E-02 1.72899E-22
1.93692E-02 1.62115E-22
1.99751E-02 1.52152E-22
2.05901E-02 1.42937E-22
2.12143E-02 1.34403E-22
2.18476E-02 1.26492E-22
2.24900E-02 1.19149E-22
2.31415E-02 1.12327E-22
2.38021E-02 1.05983E-22
2.44717E-02 1.00076E-22
2.51504E-02 9.45710E-23
2.58382E-02 8.94364E-23
2.65349E-02 8.46425E-23
2.72407E-02 8.01626E-23
2.79555E-02 7.59723E-23
2.86793E-02 7.20497E-23
2.94120E-02 6.83747E-23
3.01537E-02 6.49289E-23
3.09043E-02 6.16953E-23
3.16639E-02 5.86584E-23
3.24324E-02 5.58043E-23
3.32098E-02 5.31198E-23
3.39961E-02 5.05933E-23
3.47912E-02 4.82138E-23
3.55952E-02 4.59709E-23
3.64081E-02 4.38556E-23
3.72297E-02 4.18592E-23
3.80602E-02 3.99739E-23
3.88995E-02 3.81924E-23
3.97476E-02 3.65080E-23
4.06044E-02 3.49144E-23
4.14700E-02 3.34057E-23
4.23443E-02 3.19767E-23
4.32273E-02 3.06225E-23
4.41190E-02 2.93384E-23
4.50194E-02 2.81201E-23
4.59284E-02 2.69635E-23
4.68461E-02 2.58651E-23
4.87074E-02 2.38292E-23
5.06030E-02 2.19873E-23
5.25328E-02 2.03177E-23
5.44967E-02 1.88018E-23
5.64946E-02 1.74228E-23
5.85262E-02 1.61663E-23
6.05914E-02 1.50196E-23
6.26901E-02 1.39714E-23
6.48222E-02 1.30118E-23
6.69873E-02 1.21320E-23
6.91854E-02 1.13243E-23
7.14163E-02 1.05817E-23
7.36799E-02 9.89808E-24
7.59760E-02 9.26793E-24
7.83043E-02 8.68636E-24
8.06647E-02 8.14898E-24
8.30571E-02 7.65184E-24
8.54812E-02 7.19142E-24
8.79369E-02 6.76452E-24
9.04240E-02 6.36831E-24
9.29422E-02 6.00016E-24
9.54915E-02 5.65777E-24
9.80716E-02 5.33902E-24
1.00682E-01 5.04198E-24
1.03323E-01 4.76493E-24
1.05995E-01 4.50628E-24
1.08696E-01 4.26460E-24
1.11427E-01 4.03859E-24
1.14188E-01 3.82704E-24
1.16978E-01 3.62888E-24
1.19797E-01 3.44311E-24
1.22645E-01 3.26883E-24
1.25522E-01 3.10519E-24
1.28428E-01 2.95144E-24
1.31361E-01 2.80687E-24
1.34323E-01 2.67085E-24
1.37313E-01 2.54277E-24
1.40330E-01 2.42210E-24
1.43375E-01 2.30832E-24
1.46447E-01 2.20099E-24
1.49545E-01 2.09967E-24
1.52671E-01 2.00396E-24
1.55823E-01 1.91350E-24
1.59001E-01 1.82796E-24
1.62205E-01 1.74701E-24
1.65435E-01 1.67038E-24
1.68690E-01 1.59778E-24
1.71970E-01 1.52898E-24
1.75276E-01 1.46373E-24
1.78606E-01 1.40182E-24
1.81961E-01 1.34306E-24
1.85340E-01 1.28725E-24
1.88743E-01 1.23422E-24
1.92169E-01 1.18381E-24
1.95619E-01 1.13586E-24
1.99092E-01 1.09024E-24
2.02589E-01 1.04681E-24
2.06107E-01 1.00545E-24
2.09649E-01 9.66048E-25
2.13212E-01 9.28488E-25
2.16797E-01 8.92671E-25
2.20404E-01 8.58503E-25
2.24032E-01 8.25895E-25
2.27680E-01 7.94764E-25
2.31350E-01 7.65031E-25
2.35040E-01 7.36623E-25
2.38751E-01 7.09471E-25
2.42481E-01 6.83508E-25
2.46231E-01 6.58676E-25
2.50000E-01 6.34915E-25
2.53788E-01 6.12171E-25
2.57595E-01 5.90395E-25
2.61421E-01 5.69537E-25
2.65264E-01 5.49552E-25
2.69126E-01 5.30397E-25
2.73005E-01 5.12032E-25
2.76901E-01 4.94420E-25
2.80814E-01 4.77523E-25
2.84744E-01 4.61308E-25
2.88691E-01 4.45742E-25
2.92653E-01 4.30796E-25
2.96632E-01 4.16440E-25
3.00625E-01 4.02647E-25
3.04634E-01 3.89392E-25
3.08658E-01 3.76649E-25
3.12697E-01 3.64396E-25
3.16749E-01 3.52611E-25
3.20816E-01 3.41272E-25
3.24896E-01 3.30361E-25
3.28990E-01 3.19857E-25
3.33097E-01 3.09744E-25
3.37216E-01 3.00005E-25
3.41348E-01 2.90623E-25
3.45492E-01 2.81583E-25
3.49647E-01 2.72870E-25
3.53814E-01 2.64471E-25
3.57992E-01 2.56372E-25
3.62181E-01 2.48562E-25
3.66381E-01 2.41027E-25
3.70590E-01 2.33757E-25
3.74810E-01 2.26741E-25
3.79039E-01 2.19968E-25
3.83277E-01 2.13429E-25
3.87524E-01 2.07115E-25
3.91780E-01 2.01015E-25
3.96044E-01 1.95122E-25
4.00316E-01 1.89428E-25
4.04596E-01 1.83924E-25
4.08882E-01 1.78604E-25
4.13176E-01 1.73460E-25
4.17476E-01 1.68486E-25
4.21783E-01 1.63674E-25
4.26095E-01 1.59019E-25
4.30413E-01 1.54516E-25
4.34737E-01 1.50157E-25
4.39065E-01 1.45938E-25
4.43398E-01 1.41853E-25
4.47736E-01 1.37898E-25
4.52077E-01 1.34068E-25
4.56422E-01 1.30357E-25
4.60770E-01 1.26763E-25
4.65122E-01 1.23280E-25
4.69476E-01 1.19905E-25
4.73832E-01 1.16634E-25
4.78190E-01 1.13462E-25
4.82550E-01 1.10388E-25
4.86912E-01 1.07406E-25
4.91274E-01 1.04514E-25
4.95637E-01 1.01709E-25
5.00000E-01 9.89872E-26
5.04363E-01 9.63465E-26
5.08726E-01 9.37838E-26
5.13088E-01 9.12965E-26
5.17450E-01 8.88820E-26
5.21810E-01 8.65379E-26
5.26168E-01 8.42617E-26
5.30524E-01 8.20513E-26
5.34878E-01 7.99043E-26
5.39230E-01 7.78188E-26
5.43578E-01 7.57926E-26
5.47923E-01 7.38239E-26
5.52264E-01 7.19107E-26
5.56602E-01 7.00513E-26
5.60935E-01 6.82439E-26
5.65263E-01 6.64869E-26
5.69587E-01 6.47786E-26
5.73905E-01 6.31174E-26
5.78217E-01 6.15020E-26
5.82524E-01 5.99308E-26
5.86824E-01 5.84024E-26
5.91118E-01 5.69155E-26
5.95404E-01 5.54689E-26
5.99684E-01 5.40612E-26
6.03956E-01 5.26913E-26
6.08220E-01 5.13579E-26
6.12476E-01 5.00601E-26
6.16723E-01 4.87967E-26
6.20961E-01 4.75667E-26
6.25190E-01 4.63690E-26
6.29410E-01 4.52027E-26
6.33619E-01 4.40668E-26
6.37819E-01 4.29605E-26
6.42008E-01 4.18829E-26
6.46186E-01 4.08330E-26
6.50353E-01 3.98102E-26
6.54508E-01 3.88136E-26
6.58652E-01 3.78425E-26
6.62784E-01 3.68961E-26
6.66903E-01 3.59737E-26
6.71010E-01 3.50746E-26
6.75104E-01 3.41981E-26
6.79184E-01 3.33437E-26
6.83251E-01 3.25106E-26
6.87303E-01 3.16983E-26
6.91342E-01 3.09062E-26
6.95366E-01 3.01337E-26
6.99375E-01 2.93803E-26
7.03368E-01 2.86455E-26
7.07347E-01 2.79287E-26
7.11309E-01 2.72294E-26
7.15256E-01 2.65472E-26
7.19186E-01 2.58816E-26
7.23099E-01 2.52322E-26
7.26995E-01 2.45984E-26
7.30874E-01 2.39800E-26
7.34736E-01 2.33764E-26
7.38579E-01 2.27873E-26
7.42405E-01 2.22123E-26
7.46212E-01 2.16510E-26
7.50000E-01 2.11030E-26
7.53769E-01 2.05681E-26
7.57519E-01 2.00458E-26
7.61249E-01 1.95359E-26
7.64960E-01 1.90380E-26
7.68650E-01 1.85518E-26
7.72320E-01 1.80770E-26
7.75968E-01 1.76133E-26
7.79596E-01 1.71605E-26
7.83203E-01 1.67182E-26
7.86788E-01 1.62862E-26
7.90351E-01 1.58642E-26
7.93893E-01 1.54520E-26
7.97411E-01 1.50493E-26
8.00908E-01 1.46560E-26
8.04381E-01 1.42717E-26
8.07831E-01 1.38963E-26
8.11257E-01 1.35294E-26
8.14660E-01 1.31711E-26
8.18039E-01 1.28209E-26
8.21394E-01 1.24787E-26
8.24724E-01 1.21444E-26
8.28030E-01 1.18177E-26
8.31310E-01 1.14984E-26
8.34565E-01 1.11865E-26
8.37795E-01 1.08816E-26
8.40999E-01 1.05837E-26
8.44177E-01 1.02926E-26
8.47329E-01 1.00080E-26
8.50455E-01 9.72997E-27
8.53553E-01 9.45823E-27
8.56625E-01 9.19267E-27
8.59670E-01 8.93313E-27
8.62687E-01 8.67949E-27
8.65677E-01 8.43162E-27
8.68639E-01 8.18938E-27
8.71572E-01 7.95264E-27
8.74478E-01 7.72129E-27
8.77355E-01 7.49521E-27
8.80203E-01 7.27428E-27
8.83022E-01 7.05839E-27
8.85812E-01 6.84743E-27
8.88573E-01 6.64129E-27
8.91304E-01 6.43988E-27
8.94005E-01 6.24308E-27
8.96677E-01 6.05081E-27
8.99318E-01 5.86297E-27
9.01928E-01 5.67946E-27
9.04508E-01 5.50019E-27
9.07058E-01 5.32509E-27
9.09576E-01 5.15406E-27
9.12063E-01 4.98702E-27
9.14519E-01 4.82390E-27
9.16943E-01 4.66460E-27
9.19335E-01 4.50906E-27
9.21696E-01 4.35721E-27
9.24024E-01 4.20897E-27
9.26320E-01 4.06427E-27
9.28584E-01 3.92304E-27
9.30815E-01 3.78522E-27
9.33013E-01 3.65075E-27
9.35178E-01 3.51956E-27
9.37310E-01 3.39158E-27
9.39409E-01 3.26678E-27
9.41474E-01 3.14507E-27
9.43505E-01 3.02642E-27
9.45503E-01 2.91076E-27
9.47467E-01 2.79805E-27
9.49397E-01 2.68823E-27
9.51293E-01 2.58125E-27
9.53154E-01 2.47707E-27
9.54981E-01 2.37563E-27
9.56773E-01 2.27690E-27
9.58530E-01 2.18083E-27
9.60252E-01 2.08738E-27
9.61940E-01 1.99650E-27
9.63592E-01 1.90816E-27
9.65209E-01 1.82232E-27
9.66790E-01 1.73893E-27
9.68336E-01 1.65797E-27
9.69846E-01 1.57940E-27
9.71321E-01 1.50318E-27
9.72759E-01 1.42928E-27
9.74162E-01 1.35767E-27
9.75528E-01 1.28832E-27
9.76858E-01 1.22120E-27
9.78152E-01 1.15628E-27
9.79410E-01 1.09353E-27
9.80631E-01 1.03293E-27
9.81815E-01 9.74441E-28
9.82963E-01 9.18052E-28
9.84074E-01 8.63733E-28
9.85148E-01 8.11462E-28
9.86185E-01 7.61217E-28
9.87185E-01 7.12977E-28
9.88148E-01 6.66721E-28
9.89074E-01 6.22431E-28
9.89962E-01 5.80087E-28
9.90814E-01 5.39671E-28
9.91627E-01 5.01168E-28
9.92404E-01 4.64560E-28
9.93143E-01 4.29833E-28
9.93844E-01 3.96973E-28
9.94508E-01 3.65964E-28
9.95134E-01 3.36796E-28
9.95722E-01 3.09455E-28
9.96273E-01 2.83930E-28
9.96786E-01 2.60211E-28
9.97261E-01 2.38288E-28
9.97698E-01 2.18152E-28
9.98097E-01 1.99795E-28
9.98459E-01 1.83208E-28
9.98782E-01 1.68386E-28
9.99067E-01 1.55322E-28
9.99315E-01 1.44010E-28
9.99524E-01 1.34447E-28
9.99695E-01 1.26628E-28
9.99829E-01 1.20550E-28
9.99924E-01 1.16210E-28
9.99981E-01 1.13606E-28
1.00000E+00 1.12739E-28
