 #
 # Subroutine ELSEPA. Elastic scattering of electrons and positrons
 #                    by neutral atoms and positive ions
 #
 # Projectile: positron
 # Kinetic energy = 8.00000E+06 eV = 2.93995E+05 a.u.
 #
 # WARNING: High-energy factorization with free-atom DF screening.
 #          Absorption, polarization and exchange corrections are
 #          switched off.
 #          Phase shifts are calculated for the bare nucleus.
 #          Scattering amplitudes are not evaluated.
 #
 # Element: As,  Z =  33,  atomic weight = 7.49216E+01 g/mol
 #
 # Nuclear model: Fermi distribution
 #                Average radius = 4.51079E-13 cm
 #                Skin thickness = 5.46000E-14 cm
 #
 # Number of electrons = 33
 #
 # Total elastic cross section = 2.49393E-18 cm**2 = 8.90597E-02 a0**2
 # 1st transport cross section = 2.23264E-23 cm**2 = 7.97289E-07 a0**2
 # 2nd transport cross section = 6.45295E-23 cm**2 = 2.30439E-06 a0**2
 #
 #
 # Differential cross section:                       MU=(1-COS(THETA))/2
 #
 #  THETA        MU          DCS          DCS        Sherman      error
 #  (deg)                 (cm**2/sr)   (a0**2/sr)    function
 #----------------------------------------------------------------------
0.00000E+00 1.47272E-12
7.61557E-13 1.47269E-12
1.18994E-12 1.47268E-12
1.71346E-12 1.47266E-12
2.33225E-12 1.47264E-12
3.04617E-12 1.47262E-12
3.85530E-12 1.47260E-12
4.75964E-12 1.47257E-12
5.75917E-12 1.47254E-12
6.85391E-12 1.47251E-12
8.04379E-12 1.47247E-12
9.32893E-12 1.47243E-12
1.07092E-11 1.47239E-12
1.21847E-11 1.47235E-12
1.37554E-11 1.47230E-12
1.54213E-11 1.47225E-12
1.71823E-11 1.47220E-12
1.90386E-11 1.47214E-12
2.09900E-11 1.47208E-12
2.30367E-11 1.47202E-12
2.51785E-11 1.47196E-12
2.74156E-11 1.47189E-12
2.97478E-11 1.47182E-12
3.21752E-11 1.47175E-12
3.46979E-11 1.47167E-12
3.73157E-11 1.47159E-12
4.00286E-11 1.47151E-12
4.28368E-11 1.47143E-12
4.57402E-11 1.47134E-12
4.87388E-11 1.47125E-12
5.18325E-11 1.47116E-12
5.50215E-11 1.47107E-12
5.83057E-11 1.47097E-12
6.16850E-11 1.47087E-12
6.51595E-11 1.47076E-12
6.87293E-11 1.47066E-12
7.23943E-11 1.47055E-12
7.61544E-11 1.47044E-12
1.18991E-10 1.46916E-12
1.71347E-10 1.46761E-12
2.33223E-10 1.46578E-12
3.04617E-10 1.46367E-12
3.85531E-10 1.46128E-12
4.75965E-10 1.45863E-12
5.75917E-10 1.45570E-12
6.85389E-10 1.45250E-12
8.04380E-10 1.44904E-12
9.32891E-10 1.44532E-12
1.07092E-09 1.44134E-12
1.21847E-09 1.43710E-12
1.37554E-09 1.43261E-12
1.54213E-09 1.42787E-12
1.71823E-09 1.42289E-12
1.90386E-09 1.41767E-12
2.09900E-09 1.41221E-12
2.30367E-09 1.40652E-12
2.51785E-09 1.40060E-12
2.74156E-09 1.39446E-12
2.97478E-09 1.38810E-12
3.21752E-09 1.38152E-12
3.46978E-09 1.37465E-12
3.73156E-09 1.36762E-12
4.00286E-09 1.36042E-12
4.28368E-09 1.35306E-12
4.57402E-09 1.34556E-12
4.87388E-09 1.33793E-12
5.18326E-09 1.32996E-12
5.50215E-09 1.32179E-12
5.83057E-09 1.31351E-12
6.16850E-09 1.30511E-12
6.51596E-09 1.29662E-12
6.87293E-09 1.28803E-12
7.23942E-09 1.27927E-12
7.61544E-09 1.27017E-12
1.18991E-08 1.17453E-12
1.71347E-08 1.07206E-12
2.33223E-08 9.68057E-13
3.04617E-08 8.66274E-13
3.85531E-08 7.70359E-13
4.75965E-08 6.81377E-13
5.75917E-08 6.01205E-13
6.85389E-08 5.29295E-13
8.04380E-08 4.66080E-13
9.32891E-08 4.10612E-13
1.07092E-07 3.62408E-13
1.21847E-07 3.20586E-13
1.37554E-07 2.84388E-13
1.54213E-07 2.53104E-13
1.71823E-07 2.26002E-13
1.90386E-07 2.02557E-13
2.09900E-07 1.82159E-13
2.30367E-07 1.64432E-13
2.51785E-07 1.48927E-13
2.74156E-07 1.35356E-13
2.97478E-07 1.23412E-13
3.21752E-07 1.12786E-13
3.46978E-07 1.03033E-13
3.73156E-07 9.45312E-14
4.00286E-07 8.70873E-14
4.28368E-07 8.05423E-14
4.57402E-07 7.47647E-14
4.87388E-07 6.96448E-14
5.18325E-07 6.46407E-14
5.50215E-07 6.00156E-14
5.83057E-07 5.58936E-14
6.16850E-07 5.22078E-14
6.51596E-07 4.89018E-14
6.87293E-07 4.59273E-14
7.23942E-07 4.31441E-14
7.61543E-07 4.03449E-14
1.18991E-06 2.22748E-14
1.71347E-06 1.29943E-14
2.33223E-06 7.90363E-15
3.04617E-06 4.99489E-15
3.85531E-06 3.28535E-15
4.75964E-06 2.24020E-15
5.75916E-06 1.58137E-15
6.85388E-06 1.15001E-15
8.04378E-06 8.58744E-16
9.32888E-06 6.55478E-16
1.07092E-05 5.10050E-16
1.21846E-05 4.03408E-16
1.37553E-05 3.23504E-16
1.54212E-05 2.62542E-16
1.71822E-05 2.15250E-16
1.90385E-05 1.78113E-16
2.09899E-05 1.48611E-16
2.30365E-05 1.24940E-16
2.51783E-05 1.05729E-16
2.74153E-05 9.00310E-17
2.97475E-05 7.70957E-17
3.21749E-05 6.63652E-17
3.46974E-05 5.73934E-17
3.73152E-05 4.99186E-17
4.00281E-05 4.35983E-17
4.28362E-05 3.82336E-17
4.57395E-05 3.36823E-17
4.87380E-05 2.97597E-17
5.18317E-05 2.63984E-17
5.50205E-05 2.34963E-17
5.83045E-05 2.09767E-17
6.16838E-05 1.87898E-17
6.51582E-05 1.68760E-17
6.87277E-05 1.52010E-17
7.23925E-05 1.37298E-17
7.61524E-05 1.24306E-17
9.21439E-05 8.54986E-18
1.09658E-04 6.07285E-18
1.28695E-04 4.43327E-18
1.49255E-04 3.31211E-18
1.71338E-04 2.52462E-18
1.94942E-04 1.95805E-18
2.20070E-04 1.54195E-18
2.46720E-04 1.23078E-18
2.74892E-04 9.94226E-19
3.04586E-04 8.11866E-19
3.35803E-04 6.69386E-19
3.68542E-04 5.56814E-19
4.02802E-04 4.66891E-19
4.38585E-04 3.94383E-19
4.75889E-04 3.35390E-19
5.14715E-04 2.87003E-19
5.55063E-04 2.47017E-19
5.96931E-04 2.13741E-19
6.40321E-04 1.85872E-19
6.85233E-04 1.62388E-19
7.31665E-04 1.42491E-19
7.79618E-04 1.25541E-19
8.29092E-04 1.11033E-19
8.80086E-04 9.85550E-20
9.32601E-04 8.77777E-20
9.86636E-04 7.84300E-20
1.04219E-03 7.02911E-20
1.09927E-03 6.31783E-20
1.15786E-03 5.69405E-20
1.21797E-03 5.14519E-20
1.27961E-03 4.66071E-20
1.34276E-03 4.23181E-20
1.40743E-03 3.85098E-20
1.47362E-03 3.51193E-20
1.54133E-03 3.20929E-20
1.61056E-03 2.93847E-20
1.68131E-03 2.69555E-20
1.75357E-03 2.47715E-20
1.82735E-03 2.28037E-20
1.90265E-03 2.10269E-20
1.97947E-03 1.94194E-20
2.05780E-03 1.79622E-20
2.13765E-03 1.66387E-20
2.21902E-03 1.54346E-20
2.30190E-03 1.43372E-20
2.38630E-03 1.33353E-20
2.47222E-03 1.24191E-20
2.55965E-03 1.15801E-20
2.64859E-03 1.08105E-20
2.73905E-03 1.01037E-20
2.83103E-03 9.45347E-21
2.92452E-03 8.85458E-21
3.01952E-03 8.30223E-21
3.11604E-03 7.79215E-21
3.21407E-03 7.32052E-21
3.31362E-03 6.88394E-21
3.41468E-03 6.47931E-21
3.51725E-03 6.10390E-21
3.62133E-03 5.75519E-21
3.72692E-03 5.43095E-21
3.83403E-03 5.12916E-21
3.94265E-03 4.84796E-21
4.05278E-03 4.58571E-21
4.16442E-03 4.34090E-21
4.27757E-03 4.11215E-21
4.39223E-03 3.89822E-21
4.50840E-03 3.69798E-21
4.62608E-03 3.51038E-21
4.74527E-03 3.33449E-21
4.86597E-03 3.16943E-21
4.98817E-03 3.01443E-21
5.11188E-03 2.86876E-21
5.23711E-03 2.73174E-21
5.36383E-03 2.60278E-21
5.49207E-03 2.48131E-21
5.62181E-03 2.36682E-21
5.75306E-03 2.25883E-21
5.88581E-03 2.15690E-21
6.02007E-03 2.06064E-21
6.15583E-03 1.96967E-21
6.29310E-03 1.88364E-21
6.43187E-03 1.80224E-21
6.57214E-03 1.72517E-21
6.71392E-03 1.65216E-21
6.85720E-03 1.58295E-21
7.00198E-03 1.51732E-21
7.14827E-03 1.45504E-21
7.29605E-03 1.39591E-21
7.44534E-03 1.33974E-21
7.59612E-03 1.28635E-21
7.97965E-03 1.16402E-21
8.37255E-03 1.05583E-21
8.77480E-03 9.59874E-22
9.18641E-03 8.74526E-22
9.60736E-03 7.98416E-22
1.00376E-02 7.30370E-22
1.04773E-02 6.69388E-22
1.09262E-02 6.14610E-22
1.13844E-02 5.65296E-22
1.18520E-02 5.20805E-22
1.23288E-02 4.80584E-22
1.28150E-02 4.44153E-22
1.33104E-02 4.11091E-22
1.38150E-02 3.81033E-22
1.43290E-02 3.53657E-22
1.48521E-02 3.28683E-22
1.53845E-02 3.05862E-22
1.59262E-02 2.84977E-22
1.64770E-02 2.65834E-22
1.70371E-02 2.48262E-22
1.76063E-02 2.32110E-22
1.81848E-02 2.17242E-22
1.87724E-02 2.03538E-22
1.93692E-02 1.90891E-22
1.99751E-02 1.79205E-22
2.05901E-02 1.68393E-22
2.12143E-02 1.58380E-22
2.18476E-02 1.49095E-22
2.24900E-02 1.40475E-22
2.31415E-02 1.32466E-22
2.38021E-02 1.25015E-22
2.44717E-02 1.18077E-22
2.51504E-02 1.11610E-22
2.58382E-02 1.05576E-22
2.65349E-02 9.99419E-23
2.72407E-02 9.46756E-23
2.79555E-02 8.97490E-23
2.86793E-02 8.51361E-23
2.94120E-02 8.08136E-23
3.01537E-02 7.67597E-23
3.09043E-02 7.29547E-23
3.16639E-02 6.93807E-23
3.24324E-02 6.60210E-23
3.32098E-02 6.28605E-23
3.39961E-02 5.98852E-23
3.47912E-02 5.70824E-23
3.55952E-02 5.44402E-23
3.64081E-02 5.19478E-23
3.72297E-02 4.95950E-23
3.80602E-02 4.73728E-23
3.88995E-02 4.52725E-23
3.97476E-02 4.32861E-23
4.06044E-02 4.14066E-23
4.14700E-02 3.96269E-23
4.23443E-02 3.79409E-23
4.32273E-02 3.63427E-23
4.41190E-02 3.48270E-23
4.50194E-02 3.33887E-23
4.59284E-02 3.20231E-23
4.68461E-02 3.07258E-23
4.87074E-02 2.83206E-23
5.06030E-02 2.61438E-23
5.25328E-02 2.41701E-23
5.44967E-02 2.23771E-23
5.64946E-02 2.07456E-23
5.85262E-02 1.92584E-23
6.05914E-02 1.79006E-23
6.26901E-02 1.66590E-23
6.48222E-02 1.55219E-23
6.69873E-02 1.44790E-23
6.91854E-02 1.35212E-23
7.14163E-02 1.26403E-23
7.36799E-02 1.18290E-23
7.59760E-02 1.10809E-23
7.83043E-02 1.03902E-23
8.06647E-02 9.75181E-24
8.30571E-02 9.16098E-24
8.54812E-02 8.61357E-24
8.79369E-02 8.10584E-24
9.04240E-02 7.63443E-24
9.29422E-02 7.19626E-24
9.54915E-02 6.78859E-24
9.80716E-02 6.40891E-24
1.00682E-01 6.05499E-24
1.03323E-01 5.72476E-24
1.05995E-01 5.41635E-24
1.08696E-01 5.12807E-24
1.11427E-01 4.85838E-24
1.14188E-01 4.60588E-24
1.16978E-01 4.36927E-24
1.19797E-01 4.14736E-24
1.22645E-01 3.93910E-24
1.25522E-01 3.74351E-24
1.28428E-01 3.55966E-24
1.31361E-01 3.38673E-24
1.34323E-01 3.22395E-24
1.37313E-01 3.07065E-24
1.40330E-01 2.92615E-24
1.43375E-01 2.78985E-24
1.46447E-01 2.66124E-24
1.49545E-01 2.53979E-24
1.52671E-01 2.42501E-24
1.55823E-01 2.31650E-24
1.59001E-01 2.21386E-24
1.62205E-01 2.11669E-24
1.65435E-01 2.02466E-24
1.68690E-01 1.93746E-24
1.71970E-01 1.85478E-24
1.75276E-01 1.77634E-24
1.78606E-01 1.70190E-24
1.81961E-01 1.63121E-24
1.85340E-01 1.56406E-24
1.88743E-01 1.50022E-24
1.92169E-01 1.43952E-24
1.95619E-01 1.38177E-24
1.99092E-01 1.32679E-24
2.02589E-01 1.27445E-24
2.06107E-01 1.22457E-24
2.09649E-01 1.17704E-24
2.13212E-01 1.13172E-24
2.16797E-01 1.08849E-24
2.20404E-01 1.04723E-24
2.24032E-01 1.00785E-24
2.27680E-01 9.70236E-25
2.31350E-01 9.34300E-25
2.35040E-01 8.99953E-25
2.38751E-01 8.67113E-25
2.42481E-01 8.35702E-25
2.46231E-01 8.05648E-25
2.50000E-01 7.76881E-25
2.53788E-01 7.49337E-25
2.57595E-01 7.22955E-25
2.61421E-01 6.97677E-25
2.65264E-01 6.73450E-25
2.69126E-01 6.50221E-25
2.73005E-01 6.27944E-25
2.76901E-01 6.06571E-25
2.80814E-01 5.86060E-25
2.84744E-01 5.66370E-25
2.88691E-01 5.47463E-25
2.92653E-01 5.29302E-25
2.96632E-01 5.11852E-25
3.00625E-01 4.95082E-25
3.04634E-01 4.78959E-25
3.08658E-01 4.63455E-25
3.12697E-01 4.48542E-25
3.16749E-01 4.34194E-25
3.20816E-01 4.20385E-25
3.24896E-01 4.07092E-25
3.28990E-01 3.94291E-25
3.33097E-01 3.81963E-25
3.37216E-01 3.70086E-25
3.41348E-01 3.58641E-25
3.45492E-01 3.47610E-25
3.49647E-01 3.36975E-25
3.53814E-01 3.26719E-25
3.57992E-01 3.16827E-25
3.62181E-01 3.07284E-25
3.66381E-01 2.98075E-25
3.70590E-01 2.89187E-25
3.74810E-01 2.80606E-25
3.79039E-01 2.72320E-25
3.83277E-01 2.64318E-25
3.87524E-01 2.56587E-25
3.91780E-01 2.49117E-25
3.96044E-01 2.41899E-25
4.00316E-01 2.34921E-25
4.04596E-01 2.28175E-25
4.08882E-01 2.21652E-25
4.13176E-01 2.15343E-25
4.17476E-01 2.09239E-25
4.21783E-01 2.03334E-25
4.26095E-01 1.97619E-25
4.30413E-01 1.92088E-25
4.34737E-01 1.86733E-25
4.39065E-01 1.81548E-25
4.43398E-01 1.76527E-25
4.47736E-01 1.71663E-25
4.52077E-01 1.66952E-25
4.56422E-01 1.62387E-25
4.60770E-01 1.57963E-25
4.65122E-01 1.53675E-25
4.69476E-01 1.49518E-25
4.73832E-01 1.45487E-25
4.78190E-01 1.41579E-25
4.82550E-01 1.37788E-25
4.86912E-01 1.34111E-25
4.91274E-01 1.30544E-25
4.95637E-01 1.27082E-25
5.00000E-01 1.23723E-25
5.04363E-01 1.20463E-25
5.08726E-01 1.17297E-25
5.13088E-01 1.14224E-25
5.17450E-01 1.11240E-25
5.21810E-01 1.08342E-25
5.26168E-01 1.05527E-25
5.30524E-01 1.02793E-25
5.34878E-01 1.00136E-25
5.39230E-01 9.75548E-26
5.43578E-01 9.50460E-26
5.47923E-01 9.26076E-26
5.52264E-01 9.02372E-26
5.56602E-01 8.79327E-26
5.60935E-01 8.56920E-26
5.65263E-01 8.35131E-26
5.69587E-01 8.13939E-26
5.73905E-01 7.93326E-26
5.78217E-01 7.73273E-26
5.82524E-01 7.53764E-26
5.86824E-01 7.34781E-26
5.91118E-01 7.16307E-26
5.95404E-01 6.98328E-26
5.99684E-01 6.80828E-26
6.03956E-01 6.63791E-26
6.08220E-01 6.47205E-26
6.12476E-01 6.31056E-26
6.16723E-01 6.15330E-26
6.20961E-01 6.00014E-26
6.25190E-01 5.85097E-26
6.29410E-01 5.70566E-26
6.33619E-01 5.56411E-26
6.37819E-01 5.42619E-26
6.42008E-01 5.29181E-26
6.46186E-01 5.16086E-26
6.50353E-01 5.03323E-26
6.54508E-01 4.90884E-26
6.58652E-01 4.78759E-26
6.62784E-01 4.66939E-26
6.66903E-01 4.55416E-26
6.71010E-01 4.44180E-26
6.75104E-01 4.33224E-26
6.79184E-01 4.22540E-26
6.83251E-01 4.12120E-26
6.87303E-01 4.01957E-26
6.91342E-01 3.92044E-26
6.95366E-01 3.82373E-26
6.99375E-01 3.72938E-26
7.03368E-01 3.63733E-26
7.07347E-01 3.54752E-26
7.11309E-01 3.45987E-26
7.15256E-01 3.37434E-26
7.19186E-01 3.29086E-26
7.23099E-01 3.20939E-26
7.26995E-01 3.12986E-26
7.30874E-01 3.05222E-26
7.34736E-01 2.97644E-26
7.38579E-01 2.90244E-26
7.42405E-01 2.83020E-26
7.46212E-01 2.75966E-26
7.50000E-01 2.69078E-26
7.53769E-01 2.62352E-26
7.57519E-01 2.55782E-26
7.61249E-01 2.49367E-26
7.64960E-01 2.43100E-26
7.68650E-01 2.36980E-26
7.72320E-01 2.31001E-26
7.75968E-01 2.25160E-26
7.79596E-01 2.19454E-26
7.83203E-01 2.13880E-26
7.86788E-01 2.08434E-26
7.90351E-01 2.03112E-26
7.93893E-01 1.97913E-26
7.97411E-01 1.92833E-26
8.00908E-01 1.87868E-26
8.04381E-01 1.83017E-26
8.07831E-01 1.78276E-26
8.11257E-01 1.73642E-26
8.14660E-01 1.69114E-26
8.18039E-01 1.64688E-26
8.21394E-01 1.60363E-26
8.24724E-01 1.56135E-26
8.28030E-01 1.52003E-26
8.31310E-01 1.47964E-26
8.34565E-01 1.44016E-26
8.37795E-01 1.40156E-26
8.40999E-01 1.36384E-26
8.44177E-01 1.32697E-26
8.47329E-01 1.29092E-26
8.50455E-01 1.25569E-26
8.53553E-01 1.22124E-26
8.56625E-01 1.18757E-26
8.59670E-01 1.15466E-26
8.62687E-01 1.12248E-26
8.65677E-01 1.09103E-26
8.68639E-01 1.06029E-26
8.71572E-01 1.03024E-26
8.74478E-01 1.00086E-26
8.77355E-01 9.72145E-27
8.80203E-01 9.44078E-27
8.83022E-01 9.16644E-27
8.85812E-01 8.89831E-27
8.88573E-01 8.63624E-27
8.91304E-01 8.38012E-27
8.94005E-01 8.12981E-27
8.96677E-01 7.88520E-27
8.99318E-01 7.64616E-27
9.01928E-01 7.41259E-27
9.04508E-01 7.18437E-27
9.07058E-01 6.96140E-27
9.09576E-01 6.74356E-27
9.12063E-01 6.53076E-27
9.14519E-01 6.32290E-27
9.16943E-01 6.11988E-27
9.19335E-01 5.92160E-27
9.21696E-01 5.72798E-27
9.24024E-01 5.53892E-27
9.26320E-01 5.35434E-27
9.28584E-01 5.17416E-27
9.30815E-01 4.99829E-27
9.33013E-01 4.82665E-27
9.35178E-01 4.65917E-27
9.37310E-01 4.49576E-27
9.39409E-01 4.33637E-27
9.41474E-01 4.18091E-27
9.43505E-01 4.02932E-27
9.45503E-01 3.88152E-27
9.47467E-01 3.73747E-27
9.49397E-01 3.59708E-27
9.51293E-01 3.46031E-27
9.53154E-01 3.32708E-27
9.54981E-01 3.19735E-27
9.56773E-01 3.07105E-27
9.58530E-01 2.94814E-27
9.60252E-01 2.82855E-27
9.61940E-01 2.71225E-27
9.63592E-01 2.59917E-27
9.65209E-01 2.48927E-27
9.66790E-01 2.38250E-27
9.68336E-01 2.27882E-27
9.69846E-01 2.17818E-27
9.71321E-01 2.08055E-27
9.72759E-01 1.98587E-27
9.74162E-01 1.89412E-27
9.75528E-01 1.80525E-27
9.76858E-01 1.71922E-27
9.78152E-01 1.63600E-27
9.79410E-01 1.55555E-27
9.80631E-01 1.47785E-27
9.81815E-01 1.40286E-27
9.82963E-01 1.33054E-27
9.84074E-01 1.26087E-27
9.85148E-01 1.19382E-27
9.86185E-01 1.12937E-27
9.87185E-01 1.06747E-27
9.88148E-01 1.00812E-27
9.89074E-01 9.51289E-28
9.89962E-01 8.96948E-28
9.90814E-01 8.45077E-28
9.91627E-01 7.95655E-28
9.92404E-01 7.48664E-28
9.93143E-01 7.04083E-28
9.93844E-01 6.61895E-28
9.94508E-01 6.22083E-28
9.95134E-01 5.84630E-28
9.95722E-01 5.49522E-28
9.96273E-01 5.16745E-28
9.96786E-01 4.86284E-28
9.97261E-01 4.58129E-28
9.97698E-01 4.32267E-28
9.98097E-01 4.08688E-28
9.98459E-01 3.87384E-28
9.98782E-01 3.68345E-28
9.99067E-01 3.51563E-28
9.99315E-01 3.37033E-28
9.99524E-01 3.24748E-28
9.99695E-01 3.14703E-28
9.99829E-01 3.06895E-28
9.99924E-01 3.01320E-28
9.99981E-01 2.97975E-28
1.00000E+00 2.96860E-28
