 #
 # Subroutine ELSEPA. Elastic scattering of electrons and positrons
 #                    by neutral atoms and positive ions
 #
 # Projectile: positron
 # Kinetic energy = 5.00000E+08 eV = 1.83747E+07 a.u.
 #
 # WARNING: High-energy factorization with free-atom DF screening.
 #          Absorption, polarization and exchange corrections are
 #          switched off.
 #          Phase shifts are calculated for the bare nucleus.
 #          Scattering amplitudes are not evaluated.
 #
 # Element: As,  Z =  33,  atomic weight = 7.49216E+01 g/mol
 #
 # Nuclear model: Fermi distribution
 #                Average radius = 4.51079E-13 cm
 #                Skin thickness = 5.46000E-14 cm
 #
 # Number of electrons = 33
 #
 # Total elastic cross section = 2.48548E-18 cm**2 = 8.87581E-02 a0**2
 # 1st transport cross section = 8.80060E-27 cm**2 = 3.14275E-10 a0**2
 # 2nd transport cross section = 2.63897E-26 cm**2 = 9.42393E-10 a0**2
 #
 #
 # Differential cross section:                       MU=(1-COS(THETA))/2
 #
 #  THETA        MU          DCS          DCS        Sherman      error
 #  (deg)                 (cm**2/sr)   (a0**2/sr)    function
 #----------------------------------------------------------------------
0.00000E+00 5.09313E-09
7.61557E-13 4.83196E-09
1.18994E-12 4.69339E-09
1.71346E-12 4.53269E-09
2.33225E-12 4.35352E-09
3.04617E-12 4.16018E-09
3.85530E-12 3.95683E-09
4.75964E-12 3.74741E-09
5.75917E-12 3.53551E-09
6.85391E-12 3.32372E-09
8.04379E-12 3.11499E-09
9.32893E-12 2.91195E-09
1.07092E-11 2.71635E-09
1.21847E-11 2.52948E-09
1.37554E-11 2.35224E-09
1.54213E-11 2.18518E-09
1.71823E-11 2.02852E-09
1.90386E-11 1.88229E-09
2.09900E-11 1.74630E-09
2.30367E-11 1.62024E-09
2.51785E-11 1.50360E-09
2.74156E-11 1.39581E-09
2.97478E-11 1.29658E-09
3.21752E-11 1.20533E-09
3.46979E-11 1.12150E-09
3.73157E-11 1.04453E-09
4.00286E-11 9.73880E-10
4.28368E-11 9.09029E-10
4.57402E-11 8.49494E-10
4.87388E-11 7.94818E-10
5.18325E-11 7.44580E-10
5.50215E-11 6.98387E-10
5.83057E-11 6.55834E-10
6.16850E-11 6.16643E-10
6.51595E-11 5.80517E-10
6.87293E-11 5.47180E-10
7.23943E-11 5.16380E-10
7.61544E-11 4.87890E-10
1.18991E-10 2.90592E-10
1.71347E-10 1.88787E-10
2.33223E-10 1.28886E-10
3.04617E-10 9.07554E-11
3.85531E-10 6.52465E-11
4.75965E-10 4.76622E-11
5.75917E-10 3.53094E-11
6.85389E-10 2.64871E-11
8.04380E-10 2.01411E-11
9.32891E-10 1.55323E-11
1.07092E-09 1.21426E-11
1.21847E-09 9.61811E-12
1.37554E-09 7.71433E-12
1.54213E-09 6.26076E-12
1.71823E-09 5.13732E-12
1.90386E-09 4.25865E-12
2.09900E-09 3.56356E-12
2.30367E-09 3.00776E-12
2.51785E-09 2.55796E-12
2.74156E-09 2.19087E-12
2.97478E-09 1.88872E-12
3.21752E-09 1.63790E-12
3.46978E-09 1.42805E-12
3.73156E-09 1.25117E-12
4.00286E-09 1.10108E-12
4.28368E-09 9.72945E-13
4.57402E-09 8.62940E-13
4.87388E-09 7.68030E-13
5.18326E-09 6.85771E-13
5.50215E-09 6.14182E-13
5.83057E-09 5.51599E-13
6.16850E-09 4.96726E-13
6.51596E-09 4.48451E-13
6.87293E-09 4.05841E-13
7.23942E-09 3.68116E-13
7.61544E-09 3.34618E-13
1.18991E-08 1.42471E-13
1.71347E-08 7.01150E-14
2.33223E-08 3.83447E-14
3.04617E-08 2.27061E-14
3.85531E-08 1.42997E-14
4.75965E-08 9.45438E-15
5.75917E-08 6.50095E-15
6.85389E-08 4.61676E-15
8.04380E-08 3.36869E-15
9.32891E-08 2.51529E-15
1.07092E-07 1.91567E-15
1.21847E-07 1.48442E-15
1.37554E-07 1.16788E-15
1.54213E-07 9.31307E-16
1.71823E-07 7.51640E-16
1.90386E-07 6.13238E-16
2.09900E-07 5.05240E-16
2.30367E-07 4.19974E-16
2.51785E-07 3.51939E-16
2.74156E-07 2.97125E-16
2.97478E-07 2.52568E-16
3.21752E-07 2.16050E-16
3.46978E-07 1.85893E-16
3.73156E-07 1.60815E-16
4.00286E-07 1.39823E-16
4.28368E-07 1.22144E-16
4.57402E-07 1.07171E-16
4.87388E-07 9.44214E-17
5.18325E-07 8.35114E-17
5.50215E-07 7.41317E-17
5.83057E-07 6.60319E-17
6.16850E-07 5.90080E-17
6.51596E-07 5.28932E-17
6.87293E-07 4.75499E-17
7.23942E-07 4.28643E-17
7.61543E-07 3.87416E-17
1.18991E-06 1.58828E-17
1.71347E-06 7.66230E-18
2.33223E-06 4.13649E-18
3.04617E-06 2.42481E-18
3.85531E-06 1.51375E-18
4.75964E-06 9.93112E-19
5.75916E-06 6.78253E-19
6.85388E-06 4.78846E-19
8.04378E-06 3.47617E-19
9.32888E-06 2.58413E-19
1.07092E-05 1.96070E-19
1.21846E-05 1.51441E-19
1.37553E-05 1.18816E-19
1.54212E-05 9.45204E-20
1.71822E-05 7.61283E-20
1.90385E-05 6.19926E-20
2.09899E-05 5.10028E-20
2.30365E-05 4.23416E-20
2.51783E-05 3.54406E-20
2.74153E-05 2.98877E-20
2.97475E-05 2.53796E-20
3.21749E-05 2.16901E-20
3.46974E-05 1.86476E-20
3.73152E-05 1.61208E-20
4.00281E-05 1.40083E-20
4.28362E-05 1.22308E-20
4.57395E-05 1.07264E-20
4.87380E-05 9.44615E-21
5.18317E-05 8.35105E-21
5.50205E-05 7.40992E-21
5.83045E-05 6.59761E-21
6.16838E-05 5.89359E-21
6.51582E-05 5.28104E-21
6.87277E-05 4.74610E-21
7.23925E-05 4.27722E-21
7.61524E-05 3.85134E-21
9.21439E-05 2.62595E-21
1.09658E-04 1.85046E-21
1.28695E-04 1.34066E-21
1.49255E-04 9.94391E-22
1.71338E-04 7.52682E-22
1.94942E-04 5.79838E-22
2.20070E-04 4.53643E-22
2.46720E-04 3.59796E-22
2.74892E-04 2.88851E-22
3.04586E-04 2.34436E-22
3.35803E-04 1.92144E-22
3.68542E-04 1.58886E-22
4.02802E-04 1.32447E-22
4.38585E-04 1.11223E-22
4.75889E-04 9.40319E-23
5.14715E-04 7.99912E-23
5.55063E-04 6.84368E-23
5.96931E-04 5.88611E-23
6.40321E-04 5.08734E-23
6.85233E-04 4.41700E-23
7.31665E-04 3.85124E-23
7.79618E-04 3.37125E-23
8.29092E-04 2.96199E-23
8.80086E-04 2.61143E-23
9.32601E-04 2.30985E-23
9.86636E-04 2.04933E-23
1.04219E-03 1.82343E-23
1.09927E-03 1.62682E-23
1.15786E-03 1.45513E-23
1.21797E-03 1.30470E-23
1.27961E-03 1.17250E-23
1.34276E-03 1.05598E-23
1.40743E-03 9.52983E-24
1.47362E-03 8.61712E-24
1.54133E-03 7.80624E-24
1.61056E-03 7.08410E-24
1.68131E-03 6.43953E-24
1.75357E-03 5.86294E-24
1.82735E-03 5.34609E-24
1.90265E-03 4.88185E-24
1.97947E-03 4.46410E-24
2.05780E-03 4.08748E-24
2.13765E-03 3.74735E-24
2.21902E-03 3.43966E-24
2.30190E-03 3.16087E-24
2.38630E-03 2.90789E-24
2.47222E-03 2.67797E-24
2.55965E-03 2.46872E-24
2.64859E-03 2.27803E-24
2.73905E-03 2.10402E-24
2.83103E-03 1.94502E-24
2.92452E-03 1.79958E-24
3.01952E-03 1.66637E-24
3.11604E-03 1.54423E-24
3.21407E-03 1.43212E-24
3.31362E-03 1.32911E-24
3.41468E-03 1.23436E-24
3.51725E-03 1.14714E-24
3.62133E-03 1.06675E-24
3.72692E-03 9.92608E-25
3.83403E-03 9.24162E-25
3.94265E-03 8.60923E-25
4.05278E-03 8.02446E-25
4.16442E-03 7.48331E-25
4.27757E-03 6.98214E-25
4.39223E-03 6.51767E-25
4.50840E-03 6.08690E-25
4.62608E-03 5.68711E-25
4.74527E-03 5.31584E-25
4.86597E-03 4.97083E-25
4.98817E-03 4.65002E-25
5.11188E-03 4.35155E-25
5.23711E-03 4.07369E-25
5.36383E-03 3.81489E-25
5.49207E-03 3.57370E-25
5.62181E-03 3.34881E-25
5.75306E-03 3.13902E-25
5.88581E-03 2.94322E-25
6.02007E-03 2.76038E-25
6.15583E-03 2.58959E-25
6.29310E-03 2.42996E-25
6.43187E-03 2.28072E-25
6.57214E-03 2.14113E-25
6.71392E-03 2.01051E-25
6.85720E-03 1.88825E-25
7.00198E-03 1.77377E-25
7.14827E-03 1.66653E-25
7.29605E-03 1.56604E-25
7.44534E-03 1.47186E-25
7.59612E-03 1.38354E-25
7.97965E-03 1.18598E-25
8.37255E-03 1.01740E-25
8.77480E-03 8.73316E-26
9.18641E-03 7.50009E-26
9.60736E-03 6.44348E-26
1.00376E-02 5.53711E-26
1.04773E-02 4.75887E-26
1.09262E-02 4.09011E-26
1.13844E-02 3.51504E-26
1.18520E-02 3.02025E-26
1.23288E-02 2.59436E-26
1.28150E-02 2.22765E-26
1.33104E-02 1.91184E-26
1.38150E-02 1.63984E-26
1.43290E-02 1.40557E-26
1.48521E-02 1.20383E-26
1.53845E-02 1.03015E-26
1.59262E-02 8.80663E-27
1.64770E-02 7.52068E-27
1.70371E-02 6.41504E-27
1.76063E-02 5.46507E-27
1.81848E-02 4.64950E-27
1.87724E-02 3.94992E-27
1.93692E-02 3.35046E-27
1.99751E-02 2.83735E-27
2.05901E-02 2.39871E-27
2.12143E-02 2.02423E-27
2.18476E-02 1.70503E-27
2.24900E-02 1.43337E-27
2.31415E-02 1.20260E-27
2.38021E-02 1.00693E-27
2.44717E-02 8.41375E-28
2.51504E-02 7.01613E-28
2.58382E-02 5.83913E-28
2.65349E-02 4.85052E-28
2.72407E-02 4.02249E-28
2.79555E-02 3.33105E-28
2.86793E-02 2.75556E-28
2.94120E-02 2.27826E-28
3.01537E-02 1.88388E-28
3.09043E-02 1.55933E-28
3.16639E-02 1.29340E-28
3.24324E-02 1.07651E-28
3.32098E-02 9.00481E-29
3.39961E-02 7.58357E-29
3.47912E-02 6.44232E-29
3.55952E-02 5.53106E-29
3.64081E-02 4.80760E-29
3.72297E-02 4.23645E-29
3.80602E-02 3.78787E-29
3.88995E-02 3.43707E-29
3.97476E-02 3.16345E-29
4.06044E-02 2.95002E-29
4.14700E-02 2.78283E-29
4.23443E-02 2.65052E-29
4.32273E-02 2.54393E-29
4.41190E-02 2.45572E-29
4.50194E-02 2.38009E-29
4.59284E-02 2.31254E-29
4.68461E-02 2.24961E-29
4.87074E-02 2.12806E-29
5.06030E-02 2.00267E-29
5.25328E-02 1.86822E-29
5.44967E-02 1.72419E-29
5.64946E-02 1.57272E-29
5.85262E-02 1.41721E-29
6.05914E-02 1.26148E-29
6.26901E-02 1.10913E-29
6.48222E-02 9.63304E-30
6.69873E-02 8.26473E-30
6.91854E-02 7.00424E-30
7.14163E-02 5.86283E-30
7.36799E-02 4.84583E-30
7.59760E-02 3.95361E-30
7.83043E-02 3.18258E-30
8.06647E-02 2.52610E-30
8.30571E-02 1.97547E-30
8.54812E-02 1.52063E-30
8.79369E-02 1.15086E-30
9.04240E-02 8.55301E-31
9.29422E-02 6.23384E-31
9.54915E-02 4.45105E-31
9.80716E-02 3.11249E-31
1.00682E-01 2.13511E-31
1.03323E-01 1.44564E-31
1.05995E-01 9.80628E-32
1.08696E-01 6.86172E-32
1.11427E-01 5.17377E-32
1.14188E-01 4.37577E-32
1.16978E-01 4.17479E-32
1.19797E-01 4.34248E-32
1.22645E-01 4.70594E-32
1.25522E-01 5.13883E-32
1.28428E-01 5.55320E-32
1.31361E-01 5.89198E-32
1.34323E-01 6.12229E-32
1.37313E-01 6.22970E-32
1.40330E-01 6.21325E-32
1.43375E-01 6.08142E-32
1.46447E-01 5.84874E-32
1.49545E-01 5.53316E-32
1.52671E-01 5.15403E-32
1.55823E-01 4.73057E-32
1.59001E-01 4.28082E-32
1.62205E-01 3.82089E-32
1.65435E-01 3.36464E-32
1.68690E-01 2.92339E-32
1.71970E-01 2.50601E-32
1.75276E-01 2.11899E-32
1.78606E-01 1.76667E-32
1.81961E-01 1.45147E-32
1.85340E-01 1.17422E-32
1.88743E-01 9.34409E-33
1.92169E-01 7.30506E-33
1.95619E-01 5.60196E-33
1.99092E-01 4.20631E-33
2.02589E-01 3.08634E-33
2.06107E-01 2.20873E-33
2.09649E-01 1.54009E-33
2.13212E-01 1.04800E-33
2.16797E-01 7.01954E-34
2.20404E-01 4.73860E-34
2.24032E-01 3.38496E-34
2.27680E-01 2.73666E-34
2.31350E-01 2.60265E-34
2.35040E-01 2.82208E-34
2.38751E-01 3.26270E-34
2.42481E-01 3.81870E-34
2.46231E-01 4.40809E-34
2.50000E-01 4.96984E-34
2.53788E-01 5.46099E-34
2.57595E-01 5.85381E-34
2.61421E-01 6.13299E-34
2.65264E-01 6.29319E-34
2.69126E-01 6.33671E-34
2.73005E-01 6.27148E-34
2.76901E-01 6.10928E-34
2.80814E-01 5.86435E-34
2.84744E-01 5.55213E-34
2.88691E-01 5.18828E-34
2.92653E-01 4.78800E-34
2.96632E-01 4.36540E-34
3.00625E-01 3.93323E-34
3.04634E-01 3.50258E-34
3.08658E-01 3.08276E-34
3.12697E-01 2.68134E-34
3.16749E-01 2.30414E-34
3.20816E-01 1.95542E-34
3.24896E-01 1.63794E-34
3.28990E-01 1.35320E-34
3.33097E-01 1.10158E-34
3.37216E-01 8.82539E-35
3.41348E-01 6.94824E-35
3.45492E-01 5.36593E-35
3.49647E-01 4.05608E-35
3.53814E-01 2.99346E-35
3.57992E-01 2.15147E-35
3.62181E-01 1.50290E-35
3.66381E-01 1.02100E-35
3.70590E-01 6.80026E-36
3.74810E-01 4.55726E-36
3.79039E-01 3.25791E-36
3.83277E-01 2.70036E-36
3.87524E-01 2.70554E-36
3.91780E-01 3.11736E-36
3.96044E-01 3.80255E-36
4.00316E-01 4.64960E-36
4.04596E-01 5.56747E-36
4.08882E-01 6.48390E-36
4.13176E-01 7.34349E-36
4.17476E-01 8.10588E-36
4.21783E-01 8.74370E-36
4.26095E-01 9.24029E-36
4.30413E-01 9.58847E-36
4.34737E-01 9.78829E-36
4.39065E-01 9.84549E-36
4.43398E-01 9.77028E-36
4.47736E-01 9.57604E-36
4.52077E-01 9.27782E-36
4.56422E-01 8.89221E-36
4.60770E-01 8.43571E-36
4.65122E-01 7.92468E-36
4.69476E-01 7.37481E-36
4.73832E-01 6.80043E-36
4.78190E-01 6.21462E-36
4.82550E-01 5.62897E-36
4.86912E-01 5.05346E-36
4.91274E-01 4.49639E-36
4.95637E-01 3.96458E-36
5.00000E-01 3.46329E-36
5.04363E-01 2.99633E-36
5.08726E-01 2.56633E-36
5.13088E-01 2.17481E-36
5.17450E-01 1.82228E-36
5.21810E-01 1.50839E-36
5.26168E-01 1.23211E-36
5.30524E-01 9.91837E-37
5.34878E-01 7.85532E-37
5.39230E-01 6.10892E-37
5.43578E-01 4.65346E-37
5.47923E-01 3.46184E-37
5.52264E-01 2.50650E-37
5.56602E-01 1.76024E-37
5.60935E-01 1.19649E-37
5.65263E-01 7.89661E-38
5.69587E-01 5.15728E-38
5.73905E-01 3.52412E-38
5.78217E-01 2.79057E-38
5.82524E-01 2.77312E-38
5.86824E-01 3.30617E-38
5.91118E-01 4.24480E-38
5.95404E-01 5.46269E-38
5.99684E-01 6.85288E-38
6.03956E-01 8.32480E-38
6.08220E-01 9.80462E-38
6.12476E-01 1.12315E-37
6.16723E-01 1.25606E-37
6.20961E-01 1.37561E-37
6.25190E-01 1.47935E-37
6.29410E-01 1.56583E-37
6.33619E-01 1.63406E-37
6.37819E-01 1.68405E-37
6.42008E-01 1.71582E-37
6.46186E-01 1.73047E-37
6.50353E-01 1.72903E-37
6.54508E-01 1.71250E-37
6.58652E-01 1.68266E-37
6.62784E-01 1.64099E-37
6.66903E-01 1.58915E-37
6.71010E-01 1.52875E-37
6.75104E-01 1.46147E-37
6.79184E-01 1.38866E-37
6.83251E-01 1.31182E-37
6.87303E-01 1.23231E-37
6.91342E-01 1.15139E-37
6.95366E-01 1.07000E-37
6.99375E-01 9.89161E-38
7.03368E-01 9.09745E-38
7.07347E-01 8.32300E-38
7.11309E-01 7.57628E-38
7.15256E-01 6.86024E-38
7.19186E-01 6.17954E-38
7.23099E-01 5.53690E-38
7.26995E-01 4.93405E-38
7.30874E-01 4.37226E-38
7.34736E-01 3.85071E-38
7.38579E-01 3.37180E-38
7.42405E-01 2.93400E-38
7.46212E-01 2.53490E-38
7.50000E-01 2.17495E-38
7.53769E-01 1.85114E-38
7.57519E-01 1.56314E-38
7.61249E-01 1.30807E-38
7.64960E-01 1.08373E-38
7.68650E-01 8.88259E-39
7.72320E-01 7.19489E-39
7.75968E-01 5.74329E-39
7.79596E-01 4.51538E-39
7.83203E-01 3.48696E-39
7.86788E-01 2.63442E-39
7.90351E-01 1.94223E-39
7.93893E-01 1.39008E-39
7.97411E-01 9.61736E-40
8.00908E-01 1.00000E-45
8.04381E-01 1.00000E-45
8.07831E-01 1.00000E-45
8.11257E-01 1.00000E-45
8.14660E-01 1.00000E-45
8.18039E-01 1.00000E-45
8.21394E-01 1.00000E-45
8.24724E-01 1.00000E-45
8.28030E-01 1.00000E-45
8.31310E-01 1.00000E-45
8.34565E-01 1.00000E-45
8.37795E-01 1.00000E-45
8.40999E-01 1.00000E-45
8.44177E-01 1.00000E-45
8.47329E-01 1.00000E-45
8.50455E-01 1.00000E-45
8.53553E-01 1.00000E-45
8.56625E-01 1.00000E-45
8.59670E-01 1.00000E-45
8.62687E-01 1.00000E-45
8.65677E-01 1.00000E-45
8.68639E-01 1.00000E-45
8.71572E-01 1.00000E-45
8.74478E-01 1.00000E-45
8.77355E-01 1.00000E-45
8.80203E-01 1.00000E-45
8.83022E-01 1.00000E-45
8.85812E-01 1.00000E-45
8.88573E-01 1.00000E-45
8.91304E-01 1.00000E-45
8.94005E-01 1.00000E-45
8.96677E-01 1.00000E-45
8.99318E-01 1.00000E-45
9.01928E-01 1.00000E-45
9.04508E-01 1.00000E-45
9.07058E-01 1.00000E-45
9.09576E-01 1.00000E-45
9.12063E-01 1.00000E-45
9.14519E-01 1.00000E-45
9.16943E-01 1.00000E-45
9.19335E-01 1.00000E-45
9.21696E-01 1.00000E-45
9.24024E-01 1.00000E-45
9.26320E-01 1.00000E-45
9.28584E-01 1.00000E-45
9.30815E-01 1.00000E-45
9.33013E-01 1.00000E-45
9.35178E-01 1.00000E-45
9.37310E-01 1.00000E-45
9.39409E-01 1.00000E-45
9.41474E-01 1.00000E-45
9.43505E-01 1.00000E-45
9.45503E-01 1.00000E-45
9.47467E-01 1.00000E-45
9.49397E-01 1.00000E-45
9.51293E-01 1.00000E-45
9.53154E-01 1.00000E-45
9.54981E-01 1.00000E-45
9.56773E-01 1.00000E-45
9.58530E-01 1.00000E-45
9.60252E-01 1.00000E-45
9.61940E-01 1.00000E-45
9.63592E-01 1.00000E-45
9.65209E-01 1.00000E-45
9.66790E-01 1.00000E-45
9.68336E-01 1.00000E-45
9.69846E-01 1.00000E-45
9.71321E-01 1.00000E-45
9.72759E-01 1.00000E-45
9.74162E-01 1.00000E-45
9.75528E-01 1.00000E-45
9.76858E-01 1.00000E-45
9.78152E-01 1.00000E-45
9.79410E-01 1.00000E-45
9.80631E-01 1.00000E-45
9.81815E-01 1.00000E-45
9.82963E-01 1.00000E-45
9.84074E-01 1.00000E-45
9.85148E-01 1.00000E-45
9.86185E-01 1.00000E-45
9.87185E-01 1.00000E-45
9.88148E-01 1.00000E-45
9.89074E-01 1.00000E-45
9.89962E-01 1.00000E-45
9.90814E-01 1.00000E-45
9.91627E-01 1.00000E-45
9.92404E-01 1.00000E-45
9.93143E-01 1.00000E-45
9.93844E-01 1.00000E-45
9.94508E-01 1.00000E-45
9.95134E-01 1.00000E-45
9.95722E-01 1.00000E-45
9.96273E-01 1.00000E-45
9.96786E-01 1.00000E-45
9.97261E-01 1.00000E-45
9.97698E-01 1.00000E-45
9.98097E-01 1.00000E-45
9.98459E-01 1.00000E-45
9.98782E-01 1.00000E-45
9.99067E-01 1.00000E-45
9.99315E-01 1.00000E-45
9.99524E-01 1.00000E-45
9.99695E-01 1.00000E-45
9.99829E-01 1.00000E-45
9.99924E-01 1.00000E-45
9.99981E-01 1.00000E-45
1.00000E+00 1.00000E-45
