 #
 # Subroutine ELSEPA. Elastic scattering of electrons and positrons
 #                    by neutral atoms and positive ions
 #
 # Projectile: positron
 # Kinetic energy = 4.00000E+06 eV = 1.46997E+05 a.u.
 #
 # WARNING: High-energy factorization with free-atom DF screening.
 #          Absorption, polarization and exchange corrections are
 #          switched off.
 #          Phase shifts are calculated for the bare nucleus.
 #          Scattering amplitudes are not evaluated.
 #
 # Element: As,  Z =  33,  atomic weight = 7.49216E+01 g/mol
 #
 # Nuclear model: Fermi distribution
 #                Average radius = 4.51079E-13 cm
 #                Skin thickness = 5.46000E-14 cm
 #
 # Number of electrons = 33
 #
 # Total elastic cross section = 2.51770E-18 cm**2 = 8.99088E-02 a0**2
 # 1st transport cross section = 7.19973E-23 cm**2 = 2.57107E-06 a0**2
 # 2nd transport cross section = 2.06945E-22 cm**2 = 7.39014E-06 a0**2
 #
 #
 # Differential cross section:                       MU=(1-COS(THETA))/2
 #
 #  THETA        MU          DCS          DCS        Sherman      error
 #  (deg)                 (cm**2/sr)   (a0**2/sr)    function
 #----------------------------------------------------------------------
0.00000E+00 4.13717E-13
7.61557E-13 4.13715E-13
1.18994E-12 4.13714E-13
1.71346E-12 4.13712E-13
2.33225E-12 4.13711E-13
3.04617E-12 4.13709E-13
3.85530E-12 4.13707E-13
4.75964E-12 4.13705E-13
5.75917E-12 4.13702E-13
6.85391E-12 4.13700E-13
8.04379E-12 4.13697E-13
9.32893E-12 4.13694E-13
1.07092E-11 4.13691E-13
1.21847E-11 4.13687E-13
1.37554E-11 4.13683E-13
1.54213E-11 4.13679E-13
1.71823E-11 4.13675E-13
1.90386E-11 4.13671E-13
2.09900E-11 4.13666E-13
2.30367E-11 4.13661E-13
2.51785E-11 4.13656E-13
2.74156E-11 4.13651E-13
2.97478E-11 4.13645E-13
3.21752E-11 4.13640E-13
3.46979E-11 4.13634E-13
3.73157E-11 4.13627E-13
4.00286E-11 4.13621E-13
4.28368E-11 4.13614E-13
4.57402E-11 4.13608E-13
4.87388E-11 4.13600E-13
5.18325E-11 4.13593E-13
5.50215E-11 4.13586E-13
5.83057E-11 4.13578E-13
6.16850E-11 4.13570E-13
6.51595E-11 4.13562E-13
6.87293E-11 4.13553E-13
7.23943E-11 4.13545E-13
7.61544E-11 4.13536E-13
1.18991E-10 4.13436E-13
1.71347E-10 4.13313E-13
2.33223E-10 4.13169E-13
3.04617E-10 4.13002E-13
3.85531E-10 4.12814E-13
4.75965E-10 4.12603E-13
5.75917E-10 4.12371E-13
6.85389E-10 4.12117E-13
8.04380E-10 4.11841E-13
9.32891E-10 4.11544E-13
1.07092E-09 4.11225E-13
1.21847E-09 4.10885E-13
1.37554E-09 4.10523E-13
1.54213E-09 4.10140E-13
1.71823E-09 4.09735E-13
1.90386E-09 4.09310E-13
2.09900E-09 4.08863E-13
2.30367E-09 4.08396E-13
2.51785E-09 4.07907E-13
2.74156E-09 4.07398E-13
2.97478E-09 4.06868E-13
3.21752E-09 4.06318E-13
3.46978E-09 4.05748E-13
3.73156E-09 4.05157E-13
4.00286E-09 4.04546E-13
4.28368E-09 4.03915E-13
4.57402E-09 4.03265E-13
4.87388E-09 4.02595E-13
5.18326E-09 4.01906E-13
5.50215E-09 4.01197E-13
5.83057E-09 4.00469E-13
6.16850E-09 3.99722E-13
6.51596E-09 3.98956E-13
6.87293E-09 3.98172E-13
7.23942E-09 3.97369E-13
7.61544E-09 3.96548E-13
1.18991E-08 3.87362E-13
1.71347E-08 3.76585E-13
2.33223E-08 3.64401E-13
3.04617E-08 3.51094E-13
3.85531E-08 3.36925E-13
4.75965E-08 3.22143E-13
5.75917E-08 3.06970E-13
6.85389E-08 2.91479E-13
8.04380E-08 2.76007E-13
9.32891E-08 2.60725E-13
1.07092E-07 2.45772E-13
1.21847E-07 2.31261E-13
1.37554E-07 2.17193E-13
1.54213E-07 2.03683E-13
1.71823E-07 1.90829E-13
1.90386E-07 1.78654E-13
2.09900E-07 1.67169E-13
2.30367E-07 1.56359E-13
2.51785E-07 1.46168E-13
2.74156E-07 1.36653E-13
2.97478E-07 1.27785E-13
3.21752E-07 1.19533E-13
3.46978E-07 1.11866E-13
3.73156E-07 1.04722E-13
4.00286E-07 9.80920E-14
4.28368E-07 9.19521E-14
4.57402E-07 8.62676E-14
4.87388E-07 8.10051E-14
5.18325E-07 7.61283E-14
5.50215E-07 7.16010E-14
5.83057E-07 6.74105E-14
6.16850E-07 6.35299E-14
6.51596E-07 5.99340E-14
6.87293E-07 5.65997E-14
7.23942E-07 5.34984E-14
7.61543E-07 5.06178E-14
1.18991E-06 3.05934E-14
1.71347E-06 2.00361E-14
2.33223E-06 1.37940E-14
3.04617E-06 9.85166E-15
3.85531E-06 7.21285E-15
4.75964E-06 5.37368E-15
5.75916E-06 4.05469E-15
6.85388E-06 3.08162E-15
8.04378E-06 2.37266E-15
9.32888E-06 1.84871E-15
1.07092E-05 1.45677E-15
1.21846E-05 1.16043E-15
1.37553E-05 9.33543E-16
1.54212E-05 7.58851E-16
1.71822E-05 6.23176E-16
1.90385E-05 5.16605E-16
2.09899E-05 4.32206E-16
2.30365E-05 3.64578E-16
2.51783E-05 3.09844E-16
2.74153E-05 2.65223E-16
2.97475E-05 2.28504E-16
3.21749E-05 1.98048E-16
3.46974E-05 1.72622E-16
3.73152E-05 1.51226E-16
4.00281E-05 1.33109E-16
4.28362E-05 1.17674E-16
4.57395E-05 1.04446E-16
4.87380E-05 9.30438E-17
5.18317E-05 8.31613E-17
5.50205E-05 7.45485E-17
5.83045E-05 6.70234E-17
6.16838E-05 6.04239E-17
6.51582E-05 5.46158E-17
6.87277E-05 4.94872E-17
7.23925E-05 4.49382E-17
7.61524E-05 4.08961E-17
9.21439E-05 2.86087E-17
1.09658E-04 2.05626E-17
1.28695E-04 1.51203E-17
1.49255E-04 1.13587E-17
1.71338E-04 8.69000E-18
1.94942E-04 6.75640E-18
2.20070E-04 5.32906E-18
2.46720E-04 4.25856E-18
2.74892E-04 3.44376E-18
3.04586E-04 2.81495E-18
3.35803E-04 2.32343E-18
3.68542E-04 1.93476E-18
4.02802E-04 1.62412E-18
4.38585E-04 1.37351E-18
4.75889E-04 1.16952E-18
5.14715E-04 1.00209E-18
5.55063E-04 8.63634E-19
5.96931E-04 7.48283E-19
6.40321E-04 6.51576E-19
6.85233E-04 5.70012E-19
7.31665E-04 5.00826E-19
7.79618E-04 4.41829E-19
8.29092E-04 3.91262E-19
8.80086E-04 3.47714E-19
9.32601E-04 3.10057E-19
9.86636E-04 2.77356E-19
1.04219E-03 2.48851E-19
1.09927E-03 2.23910E-19
1.15786E-03 2.02007E-19
1.21797E-03 1.82712E-19
1.27961E-03 1.65662E-19
1.34276E-03 1.50551E-19
1.40743E-03 1.37120E-19
1.47362E-03 1.25149E-19
1.54133E-03 1.14452E-19
1.61056E-03 1.04871E-19
1.68131E-03 9.62684E-20
1.75357E-03 8.85277E-20
1.82735E-03 8.15474E-20
1.90265E-03 7.52384E-20
1.97947E-03 6.95259E-20
2.05780E-03 6.43437E-20
2.13765E-03 5.96338E-20
2.21902E-03 5.53457E-20
2.30190E-03 5.14346E-20
2.38630E-03 4.78614E-20
2.47222E-03 4.45922E-20
2.55965E-03 4.15963E-20
2.64859E-03 3.88471E-20
2.73905E-03 3.63203E-20
2.83103E-03 3.39948E-20
2.92452E-03 3.18517E-20
3.01952E-03 2.98742E-20
3.11604E-03 2.80473E-20
3.21407E-03 2.63574E-20
3.31362E-03 2.47923E-20
3.41468E-03 2.33411E-20
3.51725E-03 2.19942E-20
3.62133E-03 2.07427E-20
3.72692E-03 1.95786E-20
3.83403E-03 1.84947E-20
3.94265E-03 1.74844E-20
4.05278E-03 1.65419E-20
4.16442E-03 1.56618E-20
4.27757E-03 1.48392E-20
4.39223E-03 1.40697E-20
4.50840E-03 1.33493E-20
4.62608E-03 1.26741E-20
4.74527E-03 1.20409E-20
4.86597E-03 1.14466E-20
4.98817E-03 1.08884E-20
5.11188E-03 1.03636E-20
5.23711E-03 9.86995E-21
5.36383E-03 9.40520E-21
5.49207E-03 8.96737E-21
5.62181E-03 8.55461E-21
5.75306E-03 8.16523E-21
5.88581E-03 7.79764E-21
6.02007E-03 7.45041E-21
6.15583E-03 7.12222E-21
6.29310E-03 6.81182E-21
6.43187E-03 6.51807E-21
6.57214E-03 6.23991E-21
6.71392E-03 5.97636E-21
6.85720E-03 5.72651E-21
7.00198E-03 5.48953E-21
7.14827E-03 5.26462E-21
7.29605E-03 5.05106E-21
7.44534E-03 4.84817E-21
7.59612E-03 4.65531E-21
7.97965E-03 4.21332E-21
8.37255E-03 3.82233E-21
8.77480E-03 3.47546E-21
9.18641E-03 3.16687E-21
9.60736E-03 2.89162E-21
1.00376E-02 2.64550E-21
1.04773E-02 2.42489E-21
1.09262E-02 2.22669E-21
1.13844E-02 2.04823E-21
1.18520E-02 1.88720E-21
1.23288E-02 1.74161E-21
1.28150E-02 1.60972E-21
1.33104E-02 1.49002E-21
1.38150E-02 1.38118E-21
1.43290E-02 1.28204E-21
1.48521E-02 1.19159E-21
1.53845E-02 1.10893E-21
1.59262E-02 1.03327E-21
1.64770E-02 9.63925E-22
1.70371E-02 9.00262E-22
1.76063E-02 8.41738E-22
1.81848E-02 7.87863E-22
1.87724E-02 7.38204E-22
1.93692E-02 6.92372E-22
1.99751E-02 6.50020E-22
2.05901E-02 6.10835E-22
2.12143E-02 5.74539E-22
2.18476E-02 5.40882E-22
2.24900E-02 5.09637E-22
2.31415E-02 4.80600E-22
2.38021E-02 4.53588E-22
2.44717E-02 4.28433E-22
2.51504E-02 4.04986E-22
2.58382E-02 3.83109E-22
2.65349E-02 3.62679E-22
2.72407E-02 3.43583E-22
2.79555E-02 3.25717E-22
2.86793E-02 3.08989E-22
2.94120E-02 2.93313E-22
3.01537E-02 2.78610E-22
3.09043E-02 2.64810E-22
3.16639E-02 2.51847E-22
3.24324E-02 2.39661E-22
3.32098E-02 2.28197E-22
3.39961E-02 2.17405E-22
3.47912E-02 2.07238E-22
3.55952E-02 1.97653E-22
3.64081E-02 1.88611E-22
3.72297E-02 1.80075E-22
3.80602E-02 1.72013E-22
3.88995E-02 1.64393E-22
3.97476E-02 1.57186E-22
4.06044E-02 1.50367E-22
4.14700E-02 1.43909E-22
4.23443E-02 1.37792E-22
4.32273E-02 1.31993E-22
4.41190E-02 1.26492E-22
4.50194E-02 1.21273E-22
4.59284E-02 1.16317E-22
4.68461E-02 1.11610E-22
4.87074E-02 1.02881E-22
5.06030E-02 9.49805E-23
5.25328E-02 8.78166E-23
5.44967E-02 8.13086E-23
5.64946E-02 7.53862E-23
5.85262E-02 6.99876E-23
6.05914E-02 6.50584E-23
6.26901E-02 6.05508E-23
6.48222E-02 5.64224E-23
6.69873E-02 5.26359E-23
6.91854E-02 4.91579E-23
7.14163E-02 4.59590E-23
7.36799E-02 4.30130E-23
7.59760E-02 4.02962E-23
7.83043E-02 3.77878E-23
8.06647E-02 3.54690E-23
8.30571E-02 3.33230E-23
8.54812E-02 3.13346E-23
8.79369E-02 2.94903E-23
9.04240E-02 2.77777E-23
9.29422E-02 2.61859E-23
9.54915E-02 2.47048E-23
9.80716E-02 2.33253E-23
1.00682E-01 2.20393E-23
1.03323E-01 2.08393E-23
1.05995E-01 1.97185E-23
1.08696E-01 1.86709E-23
1.11427E-01 1.76908E-23
1.14188E-01 1.67730E-23
1.16978E-01 1.59130E-23
1.19797E-01 1.51064E-23
1.22645E-01 1.43493E-23
1.25522E-01 1.36382E-23
1.28428E-01 1.29698E-23
1.31361E-01 1.23411E-23
1.34323E-01 1.17493E-23
1.37313E-01 1.11918E-23
1.40330E-01 1.06663E-23
1.43375E-01 1.01707E-23
1.46447E-01 9.70290E-24
1.49545E-01 9.26112E-24
1.52671E-01 8.84366E-24
1.55823E-01 8.44895E-24
1.59001E-01 8.07552E-24
1.62205E-01 7.72202E-24
1.65435E-01 7.38720E-24
1.68690E-01 7.06989E-24
1.71970E-01 6.76903E-24
1.75276E-01 6.48361E-24
1.78606E-01 6.21269E-24
1.81961E-01 5.95542E-24
1.85340E-01 5.71098E-24
1.88743E-01 5.47863E-24
1.92169E-01 5.25765E-24
1.95619E-01 5.04740E-24
1.99092E-01 4.84725E-24
2.02589E-01 4.65665E-24
2.06107E-01 4.47505E-24
2.09649E-01 4.30195E-24
2.13212E-01 4.13690E-24
2.16797E-01 3.97944E-24
2.20404E-01 3.82917E-24
2.24032E-01 3.68571E-24
2.27680E-01 3.54868E-24
2.31350E-01 3.41775E-24
2.35040E-01 3.29260E-24
2.38751E-01 3.17294E-24
2.42481E-01 3.05847E-24
2.46231E-01 2.94894E-24
2.50000E-01 2.84409E-24
2.53788E-01 2.74369E-24
2.57595E-01 2.64752E-24
2.61421E-01 2.55537E-24
2.65264E-01 2.46703E-24
2.69126E-01 2.38233E-24
2.73005E-01 2.30109E-24
2.76901E-01 2.22315E-24
2.80814E-01 2.14834E-24
2.84744E-01 2.07652E-24
2.88691E-01 2.00755E-24
2.92653E-01 1.94129E-24
2.96632E-01 1.87763E-24
3.00625E-01 1.81644E-24
3.04634E-01 1.75760E-24
3.08658E-01 1.70102E-24
3.12697E-01 1.64659E-24
3.16749E-01 1.59421E-24
3.20816E-01 1.54380E-24
3.24896E-01 1.49527E-24
3.28990E-01 1.44854E-24
3.33097E-01 1.40352E-24
3.37216E-01 1.36014E-24
3.41348E-01 1.31834E-24
3.45492E-01 1.27805E-24
3.49647E-01 1.23920E-24
3.53814E-01 1.20173E-24
3.57992E-01 1.16559E-24
3.62181E-01 1.13072E-24
3.66381E-01 1.09706E-24
3.70590E-01 1.06458E-24
3.74810E-01 1.03321E-24
3.79039E-01 1.00292E-24
3.83277E-01 9.73663E-25
3.87524E-01 9.45396E-25
3.91780E-01 9.18081E-25
3.96044E-01 8.91681E-25
4.00316E-01 8.66160E-25
4.04596E-01 8.41484E-25
4.08882E-01 8.17620E-25
4.13176E-01 7.94536E-25
4.17476E-01 7.72202E-25
4.21783E-01 7.50591E-25
4.26095E-01 7.29675E-25
4.30413E-01 7.09427E-25
4.34737E-01 6.89824E-25
4.39065E-01 6.70840E-25
4.43398E-01 6.52455E-25
4.47736E-01 6.34645E-25
4.52077E-01 6.17389E-25
4.56422E-01 6.00667E-25
4.60770E-01 5.84460E-25
4.65122E-01 5.68749E-25
4.69476E-01 5.53517E-25
4.73832E-01 5.38746E-25
4.78190E-01 5.24421E-25
4.82550E-01 5.10526E-25
4.86912E-01 4.97046E-25
4.91274E-01 4.83968E-25
4.95637E-01 4.71275E-25
5.00000E-01 4.58956E-25
5.04363E-01 4.46997E-25
5.08726E-01 4.35385E-25
5.13088E-01 4.24110E-25
5.17450E-01 4.13160E-25
5.21810E-01 4.02525E-25
5.26168E-01 3.92195E-25
5.30524E-01 3.82159E-25
5.34878E-01 3.72406E-25
5.39230E-01 3.62928E-25
5.43578E-01 3.53715E-25
5.47923E-01 3.44759E-25
5.52264E-01 3.36052E-25
5.56602E-01 3.27587E-25
5.60935E-01 3.19354E-25
5.65263E-01 3.11348E-25
5.69587E-01 3.03560E-25
5.73905E-01 2.95984E-25
5.78217E-01 2.88613E-25
5.82524E-01 2.81440E-25
5.86824E-01 2.74460E-25
5.91118E-01 2.67666E-25
5.95404E-01 2.61053E-25
5.99684E-01 2.54615E-25
6.03956E-01 2.48348E-25
6.08220E-01 2.42245E-25
6.12476E-01 2.36302E-25
6.16723E-01 2.30514E-25
6.20961E-01 2.24876E-25
6.25190E-01 2.19384E-25
6.29410E-01 2.14033E-25
6.33619E-01 2.08820E-25
6.37819E-01 2.03740E-25
6.42008E-01 1.98790E-25
6.46186E-01 1.93965E-25
6.50353E-01 1.89263E-25
6.54508E-01 1.84678E-25
6.58652E-01 1.80209E-25
6.62784E-01 1.75852E-25
6.66903E-01 1.71603E-25
6.71010E-01 1.67460E-25
6.75104E-01 1.63419E-25
6.79184E-01 1.59478E-25
6.83251E-01 1.55634E-25
6.87303E-01 1.51884E-25
6.91342E-01 1.48226E-25
6.95366E-01 1.44656E-25
6.99375E-01 1.41174E-25
7.03368E-01 1.37775E-25
7.07347E-01 1.34459E-25
7.11309E-01 1.31222E-25
7.15256E-01 1.28062E-25
7.19186E-01 1.24979E-25
7.23099E-01 1.21968E-25
7.26995E-01 1.19030E-25
7.30874E-01 1.16160E-25
7.34736E-01 1.13359E-25
7.38579E-01 1.10623E-25
7.42405E-01 1.07952E-25
7.46212E-01 1.05343E-25
7.50000E-01 1.02796E-25
7.53769E-01 1.00307E-25
7.57519E-01 9.78768E-26
7.61249E-01 9.55027E-26
7.64960E-01 9.31835E-26
7.68650E-01 9.09178E-26
7.72320E-01 8.87044E-26
7.75968E-01 8.65417E-26
7.79596E-01 8.44287E-26
7.83203E-01 8.23640E-26
7.86788E-01 8.03465E-26
7.90351E-01 7.83750E-26
7.93893E-01 7.64483E-26
7.97411E-01 7.45654E-26
8.00908E-01 7.27252E-26
8.04381E-01 7.09266E-26
8.07831E-01 6.91687E-26
8.11257E-01 6.74504E-26
8.14660E-01 6.57709E-26
8.18039E-01 6.41292E-26
8.21394E-01 6.25243E-26
8.24724E-01 6.09555E-26
8.28030E-01 5.94219E-26
8.31310E-01 5.79227E-26
8.34565E-01 5.64570E-26
8.37795E-01 5.50241E-26
8.40999E-01 5.36232E-26
8.44177E-01 5.22536E-26
8.47329E-01 5.09147E-26
8.50455E-01 4.96056E-26
8.53553E-01 4.83257E-26
8.56625E-01 4.70744E-26
8.59670E-01 4.58511E-26
8.62687E-01 4.46550E-26
8.65677E-01 4.34856E-26
8.68639E-01 4.23424E-26
8.71572E-01 4.12247E-26
8.74478E-01 4.01320E-26
8.77355E-01 3.90638E-26
8.80203E-01 3.80195E-26
8.83022E-01 3.69986E-26
8.85812E-01 3.60007E-26
8.88573E-01 3.50252E-26
8.91304E-01 3.40717E-26
8.94005E-01 3.31397E-26
8.96677E-01 3.22288E-26
8.99318E-01 3.13386E-26
9.01928E-01 3.04685E-26
9.04508E-01 2.96183E-26
9.07058E-01 2.87875E-26
9.09576E-01 2.79758E-26
9.12063E-01 2.71827E-26
9.14519E-01 2.64079E-26
9.16943E-01 2.56510E-26
9.19335E-01 2.49118E-26
9.21696E-01 2.41898E-26
9.24024E-01 2.34847E-26
9.26320E-01 2.27963E-26
9.28584E-01 2.21241E-26
9.30815E-01 2.14680E-26
9.33013E-01 2.08276E-26
9.35178E-01 2.02026E-26
9.37310E-01 1.95927E-26
9.39409E-01 1.89978E-26
9.41474E-01 1.84174E-26
9.43505E-01 1.78515E-26
9.45503E-01 1.72996E-26
9.47467E-01 1.67617E-26
9.49397E-01 1.62374E-26
9.51293E-01 1.57265E-26
9.53154E-01 1.52288E-26
9.54981E-01 1.47442E-26
9.56773E-01 1.42723E-26
9.58530E-01 1.38130E-26
9.60252E-01 1.33661E-26
9.61940E-01 1.29314E-26
9.63592E-01 1.25087E-26
9.65209E-01 1.20979E-26
9.66790E-01 1.16987E-26
9.68336E-01 1.13110E-26
9.69846E-01 1.09347E-26
9.71321E-01 1.05696E-26
9.72759E-01 1.02155E-26
9.74162E-01 9.87236E-27
9.75528E-01 9.53992E-27
9.76858E-01 9.21810E-27
9.78152E-01 8.90676E-27
9.79410E-01 8.60578E-27
9.80631E-01 8.31503E-27
9.81815E-01 8.03440E-27
9.82963E-01 7.76377E-27
9.84074E-01 7.50303E-27
9.85148E-01 7.25208E-27
9.86185E-01 7.01082E-27
9.87185E-01 6.77914E-27
9.88148E-01 6.55696E-27
9.89074E-01 6.34418E-27
9.89962E-01 6.14073E-27
9.90814E-01 5.94651E-27
9.91627E-01 5.76146E-27
9.92404E-01 5.58550E-27
9.93143E-01 5.41856E-27
9.93844E-01 5.26057E-27
9.94508E-01 5.11147E-27
9.95134E-01 4.97120E-27
9.95722E-01 4.83971E-27
9.96273E-01 4.71694E-27
9.96786E-01 4.60285E-27
9.97261E-01 4.49738E-27
9.97698E-01 4.40051E-27
9.98097E-01 4.31219E-27
9.98459E-01 4.23238E-27
9.98782E-01 4.16106E-27
9.99067E-01 4.09819E-27
9.99315E-01 4.04376E-27
9.99524E-01 3.99773E-27
9.99695E-01 3.96010E-27
9.99829E-01 3.93085E-27
9.99924E-01 3.90996E-27
9.99981E-01 3.89743E-27
1.00000E+00 3.89325E-27
