 #
 # Subroutine ELSEPA. Elastic scattering of electrons and positrons
 #                    by neutral atoms and positive ions
 #
 # Projectile: positron
 # Kinetic energy = 1.25000E+07 eV = 4.59367E+05 a.u.
 #
 # WARNING: High-energy factorization with free-atom DF screening.
 #          Absorption, polarization and exchange corrections are
 #          switched off.
 #          Phase shifts are calculated for the bare nucleus.
 #          Scattering amplitudes are not evaluated.
 #
 # Element: As,  Z =  33,  atomic weight = 7.49216E+01 g/mol
 #
 # Nuclear model: Fermi distribution
 #                Average radius = 4.51079E-13 cm
 #                Skin thickness = 5.46000E-14 cm
 #
 # Number of electrons = 33
 #
 # Total elastic cross section = 2.48918E-18 cm**2 = 8.88902E-02 a0**2
 # 1st transport cross section = 1.02151E-23 cm**2 = 3.64786E-07 a0**2
 # 2nd transport cross section = 2.96153E-23 cm**2 = 1.05758E-06 a0**2
 #
 #
 # Differential cross section:                       MU=(1-COS(THETA))/2
 #
 #  THETA        MU          DCS          DCS        Sherman      error
 #  (deg)                 (cm**2/sr)   (a0**2/sr)    function
 #----------------------------------------------------------------------
0.00000E+00 3.44175E-12
7.61557E-13 3.44162E-12
1.18994E-12 3.44155E-12
1.71346E-12 3.44146E-12
2.33225E-12 3.44136E-12
3.04617E-12 3.44124E-12
3.85530E-12 3.44111E-12
4.75964E-12 3.44096E-12
5.75917E-12 3.44079E-12
6.85391E-12 3.44062E-12
8.04379E-12 3.44042E-12
9.32893E-12 3.44021E-12
1.07092E-11 3.43998E-12
1.21847E-11 3.43974E-12
1.37554E-11 3.43949E-12
1.54213E-11 3.43921E-12
1.71823E-11 3.43893E-12
1.90386E-11 3.43862E-12
2.09900E-11 3.43830E-12
2.30367E-11 3.43797E-12
2.51785E-11 3.43762E-12
2.74156E-11 3.43726E-12
2.97478E-11 3.43688E-12
3.21752E-11 3.43648E-12
3.46979E-11 3.43607E-12
3.73157E-11 3.43564E-12
4.00286E-11 3.43520E-12
4.28368E-11 3.43475E-12
4.57402E-11 3.43427E-12
4.87388E-11 3.43379E-12
5.18325E-11 3.43328E-12
5.50215E-11 3.43277E-12
5.83057E-11 3.43223E-12
6.16850E-11 3.43168E-12
6.51595E-11 3.43112E-12
6.87293E-11 3.43054E-12
7.23943E-11 3.42995E-12
7.61544E-11 3.42934E-12
1.18991E-10 3.42240E-12
1.71347E-10 3.41396E-12
2.33223E-10 3.40403E-12
3.04617E-10 3.39263E-12
3.85531E-10 3.37978E-12
4.75965E-10 3.36550E-12
5.75917E-10 3.34984E-12
6.85389E-10 3.33281E-12
8.04380E-10 3.31445E-12
9.32891E-10 3.29480E-12
1.07092E-09 3.27388E-12
1.21847E-09 3.25176E-12
1.37554E-09 3.22842E-12
1.54213E-09 3.20369E-12
1.71823E-09 3.17806E-12
1.90386E-09 3.15158E-12
2.09900E-09 3.12433E-12
2.30367E-09 3.09549E-12
2.51785E-09 3.06588E-12
2.74156E-09 3.03569E-12
2.97478E-09 3.00498E-12
3.21752E-09 2.97296E-12
3.46978E-09 2.94015E-12
3.73156E-09 2.90701E-12
4.00286E-09 2.87359E-12
4.28368E-09 2.83930E-12
4.57402E-09 2.80407E-12
4.87388E-09 2.76875E-12
5.18326E-09 2.73339E-12
5.50215E-09 2.69767E-12
5.83057E-09 2.66079E-12
6.16850E-09 2.62404E-12
6.51596E-09 2.58747E-12
6.87293E-09 2.55109E-12
7.23942E-09 2.51329E-12
7.61544E-09 2.47581E-12
1.18991E-08 2.10654E-12
1.71347E-08 1.76099E-12
2.33223E-08 1.45664E-12
3.04617E-08 1.19972E-12
3.85531E-08 9.87556E-13
4.75965E-08 8.15858E-13
5.75917E-08 6.78001E-13
6.85389E-08 5.67426E-13
8.04380E-08 4.78841E-13
9.32891E-08 4.07479E-13
1.07092E-07 3.49620E-13
1.21847E-07 3.02395E-13
1.37554E-07 2.63241E-13
1.54213E-07 2.29648E-13
1.71823E-07 2.02321E-13
1.90386E-07 1.79872E-13
2.09900E-07 1.61259E-13
2.30367E-07 1.43742E-13
2.51785E-07 1.28871E-13
2.74156E-07 1.16329E-13
2.97478E-07 1.05674E-13
3.21752E-07 9.56350E-14
3.46978E-07 8.66355E-14
3.73156E-07 7.88974E-14
4.00286E-07 7.22056E-14
4.28368E-07 6.60088E-14
4.57402E-07 6.01960E-14
4.87388E-07 5.51240E-14
5.18325E-07 5.06782E-14
5.50215E-07 4.66511E-14
5.83057E-07 4.27565E-14
6.16850E-07 3.93182E-14
6.51596E-07 3.62715E-14
6.87293E-07 3.35584E-14
7.23942E-07 3.08925E-14
7.61543E-07 2.85157E-14
1.18991E-06 1.36455E-14
1.71347E-06 7.14405E-15
2.33223E-06 4.07353E-15
3.04617E-06 2.49983E-15
3.85531E-06 1.62692E-15
4.75964E-06 1.10918E-15
5.75916E-06 7.84354E-16
6.85388E-06 5.70620E-16
8.04378E-06 4.24929E-16
9.32888E-06 3.22671E-16
1.07092E-05 2.49155E-16
1.21846E-05 1.95232E-16
1.37553E-05 1.54937E-16
1.54212E-05 1.24381E-16
1.71822E-05 1.01003E-16
1.90385E-05 8.28071E-17
2.09899E-05 6.85048E-17
2.30365E-05 5.71643E-17
2.51783E-05 4.80437E-17
2.74153E-05 4.06749E-17
2.97475E-05 3.46599E-17
3.21749E-05 2.97157E-17
3.46974E-05 2.56265E-17
3.73152E-05 2.22149E-17
4.00281E-05 1.93562E-17
4.28362E-05 1.69434E-17
4.57395E-05 1.48959E-17
4.87380E-05 1.31497E-17
5.18317E-05 1.16514E-17
5.50205E-05 1.03614E-17
5.83045E-05 9.24520E-18
6.16838E-05 8.27573E-18
6.51582E-05 7.43060E-18
6.87277E-05 6.69064E-18
7.23925E-05 6.04107E-18
7.61524E-05 5.46839E-18
9.21439E-05 3.75778E-18
1.09658E-04 2.66678E-18
1.28695E-04 1.94458E-18
1.49255E-04 1.45089E-18
1.71338E-04 1.10425E-18
1.94942E-04 8.55093E-19
2.20070E-04 6.72291E-19
2.46720E-04 5.35755E-19
2.74892E-04 4.32122E-19
3.04586E-04 3.52333E-19
3.35803E-04 2.90102E-19
3.68542E-04 2.40999E-19
4.02802E-04 2.01839E-19
4.38585E-04 1.70303E-19
4.75889E-04 1.44682E-19
5.14715E-04 1.23693E-19
5.55063E-04 1.06369E-19
5.96931E-04 9.19677E-20
6.40321E-04 7.99190E-20
6.85233E-04 6.97767E-20
7.31665E-04 6.11902E-20
7.79618E-04 5.38824E-20
8.29092E-04 4.76314E-20
8.80086E-04 4.22595E-20
9.32601E-04 3.76226E-20
9.86636E-04 3.36032E-20
1.04219E-03 3.01055E-20
1.09927E-03 2.70504E-20
1.15786E-03 2.43723E-20
1.21797E-03 2.20170E-20
1.27961E-03 1.99388E-20
1.34276E-03 1.80997E-20
1.40743E-03 1.64673E-20
1.47362E-03 1.50145E-20
1.54133E-03 1.37181E-20
1.61056E-03 1.25583E-20
1.68131E-03 1.15183E-20
1.75357E-03 1.05835E-20
1.82735E-03 9.74138E-21
1.90265E-03 8.98121E-21
1.97947E-03 8.29359E-21
2.05780E-03 7.67038E-21
2.13765E-03 7.10447E-21
2.21902E-03 6.58968E-21
2.30190E-03 6.12057E-21
2.38630E-03 5.69236E-21
2.47222E-03 5.30086E-21
2.55965E-03 4.94235E-21
2.64859E-03 4.61357E-21
2.73905E-03 4.31160E-21
2.83103E-03 4.03387E-21
2.92452E-03 3.77809E-21
3.01952E-03 3.54220E-21
3.11604E-03 3.32439E-21
3.21407E-03 3.12302E-21
3.31362E-03 2.93662E-21
3.41468E-03 2.76388E-21
3.51725E-03 2.60362E-21
3.62133E-03 2.45478E-21
3.72692E-03 2.31638E-21
3.83403E-03 2.18758E-21
3.94265E-03 2.06757E-21
4.05278E-03 1.95566E-21
4.16442E-03 1.85119E-21
4.27757E-03 1.75358E-21
4.39223E-03 1.66230E-21
4.50840E-03 1.57686E-21
4.62608E-03 1.49683E-21
4.74527E-03 1.42178E-21
4.86597E-03 1.35137E-21
4.98817E-03 1.28525E-21
5.11188E-03 1.22311E-21
5.23711E-03 1.16466E-21
5.36383E-03 1.10965E-21
5.49207E-03 1.05784E-21
5.62181E-03 1.00901E-21
5.75306E-03 9.62952E-22
5.88581E-03 9.19482E-22
6.02007E-03 8.78428E-22
6.15583E-03 8.39631E-22
6.29310E-03 8.02944E-22
6.43187E-03 7.68231E-22
6.57214E-03 7.35366E-22
6.71392E-03 7.04233E-22
6.85720E-03 6.74723E-22
7.00198E-03 6.46736E-22
7.14827E-03 6.20180E-22
7.29605E-03 5.94966E-22
7.44534E-03 5.71016E-22
7.59612E-03 5.48254E-22
7.97965E-03 4.96098E-22
8.37255E-03 4.49973E-22
8.77480E-03 4.09064E-22
9.18641E-03 3.72680E-22
9.60736E-03 3.40235E-22
1.00376E-02 3.11229E-22
1.04773E-02 2.85235E-22
1.09262E-02 2.61886E-22
1.13844E-02 2.40866E-22
1.18520E-02 2.21903E-22
1.23288E-02 2.04761E-22
1.28150E-02 1.89233E-22
1.33104E-02 1.75143E-22
1.38150E-02 1.62332E-22
1.43290E-02 1.50666E-22
1.48521E-02 1.40022E-22
1.53845E-02 1.30297E-22
1.59262E-02 1.21397E-22
1.64770E-02 1.13240E-22
1.70371E-02 1.05752E-22
1.76063E-02 9.88689E-23
1.81848E-02 9.25333E-23
1.87724E-02 8.66941E-23
1.93692E-02 8.13053E-23
1.99751E-02 7.63260E-23
2.05901E-02 7.17194E-23
2.12143E-02 6.74529E-23
2.18476E-02 6.34967E-23
2.24900E-02 5.98244E-23
2.31415E-02 5.64119E-23
2.38021E-02 5.32374E-23
2.44717E-02 5.02814E-23
2.51504E-02 4.75263E-23
2.58382E-02 4.49559E-23
2.65349E-02 4.25556E-23
2.72407E-02 4.03121E-23
2.79555E-02 3.82133E-23
2.86793E-02 3.62482E-23
2.94120E-02 3.44069E-23
3.01537E-02 3.26800E-23
3.09043E-02 3.10592E-23
3.16639E-02 2.95367E-23
3.24324E-02 2.81056E-23
3.32098E-02 2.67594E-23
3.39961E-02 2.54921E-23
3.47912E-02 2.42983E-23
3.55952E-02 2.31729E-23
3.64081E-02 2.21113E-23
3.72297E-02 2.11092E-23
3.80602E-02 2.01627E-23
3.88995E-02 1.92682E-23
3.97476E-02 1.84222E-23
4.06044E-02 1.76217E-23
4.14700E-02 1.68638E-23
4.23443E-02 1.61457E-23
4.32273E-02 1.54651E-23
4.41190E-02 1.48197E-23
4.50194E-02 1.42071E-23
4.59284E-02 1.36256E-23
4.68461E-02 1.30732E-23
4.87074E-02 1.20490E-23
5.06030E-02 1.11221E-23
5.25328E-02 1.02817E-23
5.44967E-02 9.51830E-24
5.64946E-02 8.82363E-24
5.85262E-02 8.19050E-24
6.05914E-02 7.61245E-24
6.26901E-02 7.08389E-24
6.48222E-02 6.59986E-24
6.69873E-02 6.15593E-24
6.91854E-02 5.74824E-24
7.14163E-02 5.37327E-24
7.36799E-02 5.02799E-24
7.59760E-02 4.70961E-24
7.83043E-02 4.41567E-24
8.06647E-02 4.14398E-24
8.30571E-02 3.89256E-24
8.54812E-02 3.65963E-24
8.79369E-02 3.44360E-24
9.04240E-02 3.24302E-24
9.29422E-02 3.05660E-24
9.54915E-02 2.88316E-24
9.80716E-02 2.72165E-24
1.00682E-01 2.57110E-24
1.03323E-01 2.43063E-24
1.05995E-01 2.29945E-24
1.08696E-01 2.17684E-24
1.11427E-01 2.06215E-24
1.14188E-01 1.95477E-24
1.16978E-01 1.85415E-24
1.19797E-01 1.75980E-24
1.22645E-01 1.67125E-24
1.25522E-01 1.58809E-24
1.28428E-01 1.50993E-24
1.31361E-01 1.43641E-24
1.34323E-01 1.36722E-24
1.37313E-01 1.30206E-24
1.40330E-01 1.24064E-24
1.43375E-01 1.18272E-24
1.46447E-01 1.12806E-24
1.49545E-01 1.07645E-24
1.52671E-01 1.02768E-24
1.55823E-01 9.81578E-25
1.59001E-01 9.37967E-25
1.62205E-01 8.96688E-25
1.65435E-01 8.57596E-25
1.68690E-01 8.20555E-25
1.71970E-01 7.85439E-25
1.75276E-01 7.52129E-25
1.78606E-01 7.20517E-25
1.81961E-01 6.90501E-25
1.85340E-01 6.61986E-25
1.88743E-01 6.34885E-25
1.92169E-01 6.09115E-25
1.95619E-01 5.84599E-25
1.99092E-01 5.61265E-25
2.02589E-01 5.39047E-25
2.06107E-01 5.17883E-25
2.09649E-01 4.97712E-25
2.13212E-01 4.78481E-25
2.16797E-01 4.60139E-25
2.20404E-01 4.42637E-25
2.24032E-01 4.25929E-25
2.27680E-01 4.09974E-25
2.31350E-01 3.94732E-25
2.35040E-01 3.80166E-25
2.38751E-01 3.66240E-25
2.42481E-01 3.52921E-25
2.46231E-01 3.40178E-25
2.50000E-01 3.27983E-25
2.53788E-01 3.16307E-25
2.57595E-01 3.05124E-25
2.61421E-01 2.94411E-25
2.65264E-01 2.84144E-25
2.69126E-01 2.74301E-25
2.73005E-01 2.64862E-25
2.76901E-01 2.55807E-25
2.80814E-01 2.47118E-25
2.84744E-01 2.38778E-25
2.88691E-01 2.30770E-25
2.92653E-01 2.23079E-25
2.96632E-01 2.15690E-25
3.00625E-01 2.08589E-25
3.04634E-01 2.01764E-25
3.08658E-01 1.95201E-25
3.12697E-01 1.88889E-25
3.16749E-01 1.82816E-25
3.20816E-01 1.76973E-25
3.24896E-01 1.71348E-25
3.28990E-01 1.65932E-25
3.33097E-01 1.60717E-25
3.37216E-01 1.55693E-25
3.41348E-01 1.50853E-25
3.45492E-01 1.46188E-25
3.49647E-01 1.41691E-25
3.53814E-01 1.37355E-25
3.57992E-01 1.33173E-25
3.62181E-01 1.29139E-25
3.66381E-01 1.25247E-25
3.70590E-01 1.21491E-25
3.74810E-01 1.17865E-25
3.79039E-01 1.14364E-25
3.83277E-01 1.10984E-25
3.87524E-01 1.07718E-25
3.91780E-01 1.04564E-25
3.96044E-01 1.01515E-25
4.00316E-01 9.85691E-26
4.04596E-01 9.57211E-26
4.08882E-01 9.29675E-26
4.13176E-01 9.03045E-26
4.17476E-01 8.77288E-26
4.21783E-01 8.52370E-26
4.26095E-01 8.28259E-26
4.30413E-01 8.04925E-26
4.34737E-01 7.82339E-26
4.39065E-01 7.60472E-26
4.43398E-01 7.39299E-26
4.47736E-01 7.18793E-26
4.52077E-01 6.98931E-26
4.56422E-01 6.79688E-26
4.60770E-01 6.61043E-26
4.65122E-01 6.42973E-26
4.69476E-01 6.25459E-26
4.73832E-01 6.08480E-26
4.78190E-01 5.92017E-26
4.82550E-01 5.76053E-26
4.86912E-01 5.60569E-26
4.91274E-01 5.45549E-26
4.95637E-01 5.30977E-26
5.00000E-01 5.16838E-26
5.04363E-01 5.03116E-26
5.08726E-01 4.89797E-26
5.13088E-01 4.76868E-26
5.17450E-01 4.64315E-26
5.21810E-01 4.52126E-26
5.26168E-01 4.40289E-26
5.30524E-01 4.28791E-26
5.34878E-01 4.17622E-26
5.39230E-01 4.06770E-26
5.43578E-01 3.96226E-26
5.47923E-01 3.85980E-26
5.52264E-01 3.76020E-26
5.56602E-01 3.66340E-26
5.60935E-01 3.56928E-26
5.65263E-01 3.47777E-26
5.69587E-01 3.38879E-26
5.73905E-01 3.30225E-26
5.78217E-01 3.21808E-26
5.82524E-01 3.13620E-26
5.86824E-01 3.05655E-26
5.91118E-01 2.97904E-26
5.95404E-01 2.90362E-26
5.99684E-01 2.83022E-26
6.03956E-01 2.75878E-26
6.08220E-01 2.68924E-26
6.12476E-01 2.62154E-26
6.16723E-01 2.55562E-26
6.20961E-01 2.49144E-26
6.25190E-01 2.42894E-26
6.29410E-01 2.36806E-26
6.33619E-01 2.30877E-26
6.37819E-01 2.25101E-26
6.42008E-01 2.19474E-26
6.46186E-01 2.13992E-26
6.50353E-01 2.08650E-26
6.54508E-01 2.03444E-26
6.58652E-01 1.98371E-26
6.62784E-01 1.93426E-26
6.66903E-01 1.88606E-26
6.71010E-01 1.83907E-26
6.75104E-01 1.79325E-26
6.79184E-01 1.74859E-26
6.83251E-01 1.70503E-26
6.87303E-01 1.66256E-26
6.91342E-01 1.62113E-26
6.95366E-01 1.58073E-26
6.99375E-01 1.54132E-26
7.03368E-01 1.50288E-26
7.07347E-01 1.46538E-26
7.11309E-01 1.42878E-26
7.15256E-01 1.39308E-26
7.19186E-01 1.35824E-26
7.23099E-01 1.32425E-26
7.26995E-01 1.29107E-26
7.30874E-01 1.25869E-26
7.34736E-01 1.22708E-26
7.38579E-01 1.19623E-26
7.42405E-01 1.16611E-26
7.46212E-01 1.13671E-26
7.50000E-01 1.10801E-26
7.53769E-01 1.07998E-26
7.57519E-01 1.05261E-26
7.61249E-01 1.02589E-26
7.64960E-01 9.99796E-27
7.68650E-01 9.74311E-27
7.72320E-01 9.49422E-27
7.75968E-01 9.25113E-27
7.79596E-01 9.01369E-27
7.83203E-01 8.78176E-27
7.86788E-01 8.55521E-27
7.90351E-01 8.33389E-27
7.93893E-01 8.11768E-27
7.97411E-01 7.90646E-27
8.00908E-01 7.70009E-27
8.04381E-01 7.49846E-27
8.07831E-01 7.30146E-27
8.11257E-01 7.10896E-27
8.14660E-01 6.92086E-27
8.18039E-01 6.73706E-27
8.21394E-01 6.55745E-27
8.24724E-01 6.38193E-27
8.28030E-01 6.21041E-27
8.31310E-01 6.04278E-27
8.34565E-01 5.87896E-27
8.37795E-01 5.71886E-27
8.40999E-01 5.56239E-27
8.44177E-01 5.40946E-27
8.47329E-01 5.26000E-27
8.50455E-01 5.11392E-27
8.53553E-01 4.97115E-27
8.56625E-01 4.83162E-27
8.59670E-01 4.69524E-27
8.62687E-01 4.56194E-27
8.65677E-01 4.43167E-27
8.68639E-01 4.30435E-27
8.71572E-01 4.17991E-27
8.74478E-01 4.05829E-27
8.77355E-01 3.93943E-27
8.80203E-01 3.82328E-27
8.83022E-01 3.70976E-27
8.85812E-01 3.59883E-27
8.88573E-01 3.49042E-27
8.91304E-01 3.38450E-27
8.94005E-01 3.28099E-27
8.96677E-01 3.17986E-27
8.99318E-01 3.08105E-27
9.01928E-01 2.98451E-27
9.04508E-01 2.89020E-27
9.07058E-01 2.79807E-27
9.09576E-01 2.70808E-27
9.12063E-01 2.62018E-27
9.14519E-01 2.53434E-27
9.16943E-01 2.45051E-27
9.19335E-01 2.36865E-27
9.21696E-01 2.28872E-27
9.24024E-01 2.21069E-27
9.26320E-01 2.13452E-27
9.28584E-01 2.06017E-27
9.30815E-01 1.98762E-27
9.33013E-01 1.91682E-27
9.35178E-01 1.84774E-27
9.37310E-01 1.78036E-27
9.39409E-01 1.71464E-27
9.41474E-01 1.65055E-27
9.43505E-01 1.58806E-27
9.45503E-01 1.52715E-27
9.47467E-01 1.46779E-27
9.49397E-01 1.40994E-27
9.51293E-01 1.35359E-27
9.53154E-01 1.29871E-27
9.54981E-01 1.24528E-27
9.56773E-01 1.19327E-27
9.58530E-01 1.14265E-27
9.60252E-01 1.09342E-27
9.61940E-01 1.04553E-27
9.63592E-01 9.98987E-28
9.65209E-01 9.53753E-28
9.66790E-01 9.09814E-28
9.68336E-01 8.67150E-28
9.69846E-01 8.25743E-28
9.71321E-01 7.85575E-28
9.72759E-01 7.46629E-28
9.74162E-01 7.08888E-28
9.75528E-01 6.72336E-28
9.76858E-01 6.36957E-28
9.78152E-01 6.02737E-28
9.79410E-01 5.69661E-28
9.80631E-01 5.37714E-28
9.81815E-01 5.06884E-28
9.82963E-01 4.77158E-28
9.84074E-01 4.48522E-28
9.85148E-01 4.20965E-28
9.86185E-01 3.94476E-28
9.87185E-01 3.69042E-28
9.88148E-01 3.44655E-28
9.89074E-01 3.21303E-28
9.89962E-01 2.98976E-28
9.90814E-01 2.77666E-28
9.91627E-01 2.57364E-28
9.92404E-01 2.38061E-28
9.93143E-01 2.19750E-28
9.93844E-01 2.02422E-28
9.94508E-01 1.86071E-28
9.95134E-01 1.70689E-28
9.95722E-01 1.56271E-28
9.96273E-01 1.42811E-28
9.96786E-01 1.30303E-28
9.97261E-01 1.18742E-28
9.97698E-01 1.08123E-28
9.98097E-01 9.84413E-29
9.98459E-01 8.96940E-29
9.98782E-01 8.18771E-29
9.99067E-01 7.49872E-29
9.99315E-01 6.90217E-29
9.99524E-01 6.39780E-29
9.99695E-01 5.98542E-29
9.99829E-01 5.66486E-29
9.99924E-01 5.43598E-29
9.99981E-01 5.29868E-29
1.00000E+00 5.25292E-29
