 #
 # Subroutine ELSEPA. Elastic scattering of electrons and positrons
 #                    by neutral atoms and positive ions
 #
 # Projectile: positron
 # Kinetic energy = 1.50000E+08 eV = 5.51240E+06 a.u.
 #
 # WARNING: High-energy factorization with free-atom DF screening.
 #          Absorption, polarization and exchange corrections are
 #          switched off.
 #          Phase shifts are calculated for the bare nucleus.
 #          Scattering amplitudes are not evaluated.
 #
 # Element: As,  Z =  33,  atomic weight = 7.49216E+01 g/mol
 #
 # Nuclear model: Fermi distribution
 #                Average radius = 4.51079E-13 cm
 #                Skin thickness = 5.46000E-14 cm
 #
 # Number of electrons = 33
 #
 # Total elastic cross section = 2.48624E-18 cm**2 = 8.87851E-02 a0**2
 # 1st transport cross section = 9.63586E-26 cm**2 = 3.44103E-09 a0**2
 # 2nd transport cross section = 2.87659E-25 cm**2 = 1.02725E-08 a0**2
 #
 #
 # Differential cross section:                       MU=(1-COS(THETA))/2
 #
 #  THETA        MU          DCS          DCS        Sherman      error
 #  (deg)                 (cm**2/sr)   (a0**2/sr)    function
 #----------------------------------------------------------------------
0.00000E+00 4.60569E-10
7.61557E-13 4.58349E-10
1.18994E-12 4.57109E-10
1.71346E-12 4.55602E-10
2.33225E-12 4.53830E-10
3.04617E-12 4.51800E-10
3.85530E-12 4.49515E-10
4.75964E-12 4.46983E-10
5.75917E-12 4.44210E-10
6.85391E-12 4.41203E-10
8.04379E-12 4.37970E-10
9.32893E-12 4.34519E-10
1.07092E-11 4.30836E-10
1.21847E-11 4.26943E-10
1.37554E-11 4.22893E-10
1.54213E-11 4.18700E-10
1.71823E-11 4.14259E-10
1.90386E-11 4.09666E-10
2.09900E-11 4.04970E-10
2.30367E-11 4.00160E-10
2.51785E-11 3.95103E-10
2.74156E-11 3.89983E-10
2.97478E-11 3.84812E-10
3.21752E-11 3.79495E-10
3.46979E-11 3.74034E-10
3.73157E-11 3.68559E-10
4.00286E-11 3.63083E-10
4.28368E-11 3.57406E-10
4.57402E-11 3.51708E-10
4.87388E-11 3.46042E-10
5.18325E-11 3.40365E-10
5.50215E-11 3.34523E-10
5.83057E-11 3.28741E-10
6.16850E-11 3.23026E-10
6.51595E-11 3.17238E-10
6.87293E-11 3.11410E-10
7.23943E-11 3.05673E-10
7.61544E-11 3.00029E-10
1.18991E-10 2.45025E-10
1.71347E-10 1.96976E-10
2.33223E-10 1.57319E-10
3.04617E-10 1.25695E-10
3.85531E-10 1.00953E-10
4.75965E-10 8.18020E-11
5.75917E-10 6.69887E-11
6.85389E-10 5.54735E-11
8.04380E-10 4.64484E-11
9.32891E-10 3.93074E-11
1.07092E-09 3.34802E-11
1.21847E-09 2.87337E-11
1.37554E-09 2.49740E-11
1.54213E-09 2.19576E-11
1.71823E-09 1.92492E-11
1.90386E-09 1.69736E-11
2.09900E-09 1.51028E-11
2.30367E-09 1.35219E-11
2.51785E-09 1.20254E-11
2.74156E-09 1.07721E-11
2.97478E-09 9.71434E-12
3.21752E-09 8.75384E-12
3.46978E-09 7.87479E-12
3.73156E-09 7.12305E-12
4.00286E-09 6.47632E-12
4.28368E-09 5.85814E-12
4.57402E-09 5.31253E-12
4.87388E-09 4.83841E-12
5.18326E-09 4.41676E-12
5.50215E-09 4.01684E-12
5.83057E-09 3.66625E-12
6.16850E-09 3.35767E-12
6.51596E-09 3.07350E-12
6.87293E-09 2.81304E-12
7.23942E-09 2.58209E-12
7.61544E-09 2.37663E-12
1.18991E-08 1.08871E-12
1.71347E-08 5.61226E-13
2.33223E-08 3.19445E-13
3.04617E-08 1.96405E-13
3.85531E-08 1.28019E-13
4.75965E-08 8.72136E-14
5.75917E-08 6.14651E-14
6.85389E-08 4.45191E-14
8.04380E-08 3.29886E-14
9.32891E-08 2.49256E-14
1.07092E-07 1.91457E-14
1.21847E-07 1.49492E-14
1.37554E-07 1.18225E-14
1.54213E-07 9.47124E-15
1.71823E-07 7.67465E-15
1.90386E-07 6.28078E-15
2.09900E-07 5.18964E-15
2.30367E-07 4.32564E-15
2.51785E-07 3.63376E-15
2.74156E-07 3.07507E-15
2.97478E-07 2.62007E-15
3.21752E-07 2.24625E-15
3.46978E-07 1.93692E-15
3.73156E-07 1.67926E-15
4.00286E-07 1.46314E-15
4.28368E-07 1.28075E-15
4.57402E-07 1.12603E-15
4.87388E-07 9.94042E-16
5.18325E-07 8.80840E-16
5.50215E-07 7.83361E-16
5.83057E-07 6.99045E-16
6.16850E-07 6.25753E-16
6.51596E-07 5.61848E-16
6.87293E-07 5.05920E-16
7.23942E-07 4.56767E-16
7.61543E-07 4.13451E-16
1.18991E-06 1.71534E-16
1.71347E-06 8.33813E-17
2.33223E-06 4.52298E-17
3.04617E-06 2.65961E-17
3.85531E-06 1.66378E-17
4.75964E-06 1.09310E-17
5.75916E-06 7.47291E-18
6.85388E-06 5.27973E-18
8.04378E-06 3.83489E-18
9.32888E-06 2.85197E-18
1.07092E-05 2.16461E-18
1.21846E-05 1.67233E-18
1.37553E-05 1.31232E-18
1.54212E-05 1.04415E-18
1.71822E-05 8.41085E-19
1.90385E-05 6.84986E-19
2.09899E-05 5.63605E-19
2.30365E-05 4.67932E-19
2.51783E-05 3.91692E-19
2.74153E-05 3.30339E-19
2.97475E-05 2.80527E-19
3.21749E-05 2.39756E-19
3.46974E-05 2.06132E-19
3.73152E-05 1.78207E-19
4.00281E-05 1.54858E-19
4.28362E-05 1.35212E-19
4.57395E-05 1.18584E-19
4.87380E-05 1.04432E-19
5.18317E-05 9.23270E-20
5.50205E-05 8.19237E-20
5.83045E-05 7.29439E-20
6.16838E-05 6.51612E-20
6.51582E-05 5.83895E-20
6.87277E-05 5.24755E-20
7.23925E-05 4.72919E-20
7.61524E-05 4.27366E-20
9.21439E-05 2.91747E-20
1.09658E-04 2.05878E-20
1.28695E-04 1.49394E-20
1.49255E-04 1.11005E-20
1.71338E-04 8.41868E-21
1.94942E-04 6.49936E-21
2.20070E-04 5.09673E-21
2.46720E-04 4.05259E-21
2.74892E-04 3.26236E-21
3.04586E-04 2.65553E-21
3.35803E-04 2.18328E-21
3.68542E-04 1.81137E-21
4.02802E-04 1.51527E-21
4.38585E-04 1.27719E-21
4.75889E-04 1.08402E-21
5.14715E-04 9.25950E-22
5.55063E-04 7.95622E-22
5.96931E-04 6.87391E-22
6.40321E-04 5.96915E-22
6.85233E-04 5.20813E-22
7.31665E-04 4.56431E-22
7.79618E-04 4.01673E-22
8.29092E-04 3.54862E-22
8.80086E-04 3.14657E-22
9.32601E-04 2.79970E-22
9.86636E-04 2.49918E-22
1.04219E-03 2.23779E-22
1.09927E-03 2.00957E-22
1.15786E-03 1.80961E-22
1.21797E-03 1.63381E-22
1.27961E-03 1.47876E-22
1.34276E-03 1.34160E-22
1.40743E-03 1.21990E-22
1.47362E-03 1.11163E-22
1.54133E-03 1.01504E-22
1.61056E-03 9.28670E-23
1.68131E-03 8.51242E-23
1.75357E-03 7.81672E-23
1.82735E-03 7.19024E-23
1.90265E-03 6.62489E-23
1.97947E-03 6.11368E-23
2.05780E-03 5.65051E-23
2.13765E-03 5.23008E-23
2.21902E-03 4.84775E-23
2.30190E-03 4.49947E-23
2.38630E-03 4.18168E-23
2.47222E-03 3.89122E-23
2.55965E-03 3.62535E-23
2.64859E-03 3.38160E-23
2.73905E-03 3.15782E-23
2.83103E-03 2.95208E-23
2.92452E-03 2.76267E-23
3.01952E-03 2.58806E-23
3.11604E-03 2.42689E-23
3.21407E-03 2.27795E-23
3.31362E-03 2.14014E-23
3.41468E-03 2.01248E-23
3.51725E-03 1.89409E-23
3.62133E-03 1.78418E-23
3.72692E-03 1.68203E-23
3.83403E-03 1.58700E-23
3.94265E-03 1.49850E-23
4.05278E-03 1.41601E-23
4.16442E-03 1.33904E-23
4.27757E-03 1.26716E-23
4.39223E-03 1.19997E-23
4.50840E-03 1.13711E-23
4.62608E-03 1.07826E-23
4.74527E-03 1.02311E-23
4.86597E-03 9.71380E-24
4.98817E-03 9.22830E-24
5.11188E-03 8.77227E-24
5.23711E-03 8.34361E-24
5.36383E-03 7.94037E-24
5.49207E-03 7.56077E-24
5.62181E-03 7.20319E-24
5.75306E-03 6.86613E-24
5.88581E-03 6.54818E-24
6.02007E-03 6.24808E-24
6.15583E-03 5.96465E-24
6.29310E-03 5.69679E-24
6.43187E-03 5.44350E-24
6.57214E-03 5.20385E-24
6.71392E-03 4.97696E-24
6.85720E-03 4.76205E-24
7.00198E-03 4.55835E-24
7.14827E-03 4.36520E-24
7.29605E-03 4.18193E-24
7.44534E-03 4.00796E-24
7.59612E-03 3.84274E-24
7.97965E-03 3.46460E-24
8.37255E-03 3.13080E-24
8.77480E-03 2.83528E-24
9.18641E-03 2.57296E-24
9.60736E-03 2.33949E-24
1.00376E-02 2.13119E-24
1.04773E-02 1.94490E-24
1.09262E-02 1.77794E-24
1.13844E-02 1.62796E-24
1.18520E-02 1.49296E-24
1.23288E-02 1.37121E-24
1.28150E-02 1.26119E-24
1.33104E-02 1.16160E-24
1.38150E-02 1.07128E-24
1.43290E-02 9.89242E-25
1.48521E-02 9.14598E-25
1.53845E-02 8.46577E-25
1.59262E-02 7.84499E-25
1.64770E-02 7.27762E-25
1.70371E-02 6.75835E-25
1.76063E-02 6.28245E-25
1.81848E-02 5.84573E-25
1.87724E-02 5.44447E-25
1.93692E-02 5.07533E-25
1.99751E-02 4.73535E-25
2.05901E-02 4.42187E-25
2.12143E-02 4.13251E-25
2.18476E-02 3.86512E-25
2.24900E-02 3.61779E-25
2.31415E-02 3.38877E-25
2.38021E-02 3.17652E-25
2.44717E-02 2.97961E-25
2.51504E-02 2.79678E-25
2.58382E-02 2.62686E-25
2.65349E-02 2.46881E-25
2.72407E-02 2.32168E-25
2.79555E-02 2.18461E-25
2.86793E-02 2.05680E-25
2.94120E-02 1.93754E-25
3.01537E-02 1.82617E-25
3.09043E-02 1.72211E-25
3.16639E-02 1.62479E-25
3.24324E-02 1.53373E-25
3.32098E-02 1.44846E-25
3.39961E-02 1.36857E-25
3.47912E-02 1.29366E-25
3.55952E-02 1.22339E-25
3.64081E-02 1.15743E-25
3.72297E-02 1.09547E-25
3.80602E-02 1.03725E-25
3.88995E-02 9.82506E-26
3.97476E-02 9.31003E-26
4.06044E-02 8.82526E-26
4.14700E-02 8.36872E-26
4.23443E-02 7.93858E-26
4.32273E-02 7.53309E-26
4.41190E-02 7.15068E-26
4.50194E-02 6.78986E-26
4.59284E-02 6.44926E-26
4.68461E-02 6.12762E-26
4.87074E-02 5.53651E-26
5.06030E-02 5.00805E-26
5.25328E-02 4.53485E-26
5.44967E-02 4.11050E-26
5.64946E-02 3.72942E-26
5.85262E-02 3.38674E-26
6.05914E-02 3.07818E-26
6.26901E-02 2.80002E-26
6.48222E-02 2.54896E-26
6.69873E-02 2.32210E-26
6.91854E-02 2.11691E-26
7.14163E-02 1.93111E-26
7.36799E-02 1.76272E-26
7.59760E-02 1.60996E-26
7.83043E-02 1.47125E-26
8.06647E-02 1.34520E-26
8.30571E-02 1.23057E-26
8.54812E-02 1.12623E-26
8.79369E-02 1.03120E-26
9.04240E-02 9.44577E-27
9.29422E-02 8.65573E-27
9.54915E-02 7.93470E-27
9.80716E-02 7.27625E-27
1.00682E-01 6.67462E-27
1.03323E-01 6.12460E-27
1.05995E-01 5.62149E-27
1.08696E-01 5.16109E-27
1.11427E-01 4.73955E-27
1.14188E-01 4.35343E-27
1.16978E-01 3.99961E-27
1.19797E-01 3.67526E-27
1.22645E-01 3.37781E-27
1.25522E-01 3.10493E-27
1.28428E-01 2.85451E-27
1.31361E-01 2.62463E-27
1.34323E-01 2.41354E-27
1.37313E-01 2.21965E-27
1.40330E-01 2.04152E-27
1.43375E-01 1.87782E-27
1.46447E-01 1.72736E-27
1.49545E-01 1.58902E-27
1.52671E-01 1.46182E-27
1.55823E-01 1.34484E-27
1.59001E-01 1.23723E-27
1.62205E-01 1.13823E-27
1.65435E-01 1.04714E-27
1.68690E-01 9.63322E-28
1.71970E-01 8.86183E-28
1.75276E-01 8.15185E-28
1.78606E-01 7.49834E-28
1.81961E-01 6.89678E-28
1.85340E-01 6.34301E-28
1.88743E-01 5.83320E-28
1.92169E-01 5.36387E-28
1.95619E-01 4.93178E-28
1.99092E-01 4.53398E-28
2.02589E-01 4.16776E-28
2.06107E-01 3.83061E-28
2.09649E-01 3.52024E-28
2.13212E-01 3.23452E-28
2.16797E-01 2.97153E-28
2.20404E-01 2.72945E-28
2.24032E-01 2.50666E-28
2.27680E-01 2.30162E-28
2.31350E-01 2.11294E-28
2.35040E-01 1.93934E-28
2.38751E-01 1.77963E-28
2.42481E-01 1.63271E-28
2.46231E-01 1.49758E-28
2.50000E-01 1.37331E-28
2.53788E-01 1.25905E-28
2.57595E-01 1.15401E-28
2.61421E-01 1.05746E-28
2.65264E-01 9.68735E-29
2.69126E-01 8.87211E-29
2.73005E-01 8.12322E-29
2.76901E-01 7.43544E-29
2.80814E-01 6.80391E-29
2.84744E-01 6.22418E-29
2.88691E-01 5.69213E-29
2.92653E-01 5.20396E-29
2.96632E-01 4.75618E-29
3.00625E-01 4.34557E-29
3.04634E-01 3.96914E-29
3.08658E-01 3.62415E-29
3.12697E-01 3.30809E-29
3.16749E-01 3.01861E-29
3.20816E-01 2.75357E-29
3.24896E-01 2.51099E-29
3.28990E-01 2.28905E-29
3.33097E-01 2.08606E-29
3.37216E-01 1.90049E-29
3.41348E-01 1.73089E-29
3.45492E-01 1.57596E-29
3.49647E-01 1.43450E-29
3.53814E-01 1.30537E-29
3.57992E-01 1.18757E-29
3.62181E-01 1.08014E-29
3.66381E-01 9.82222E-30
3.70590E-01 8.93011E-30
3.74810E-01 8.11775E-30
3.79039E-01 7.37838E-30
3.83277E-01 6.70579E-30
3.87524E-01 6.09427E-30
3.91780E-01 5.53857E-30
3.96044E-01 5.03388E-30
4.00316E-01 4.57577E-30
4.04596E-01 4.16019E-30
4.08882E-01 3.78340E-30
4.13176E-01 3.44199E-30
4.17476E-01 3.13282E-30
4.21783E-01 2.85302E-30
4.26095E-01 2.59995E-30
4.30413E-01 2.37121E-30
4.34737E-01 2.16458E-30
4.39065E-01 1.97804E-30
4.43398E-01 1.80974E-30
4.47736E-01 1.65799E-30
4.52077E-01 1.52126E-30
4.56422E-01 1.39811E-30
4.60770E-01 1.28728E-30
4.65122E-01 1.18757E-30
4.69476E-01 1.09793E-30
4.73832E-01 1.01737E-30
4.78190E-01 9.44999E-31
4.82550E-01 8.80012E-31
4.86912E-01 8.21671E-31
4.91274E-01 7.69307E-31
4.95637E-01 7.22311E-31
5.00000E-01 6.80132E-31
5.04363E-01 6.42270E-31
5.08726E-01 6.08270E-31
5.13088E-01 5.77722E-31
5.17450E-01 5.50257E-31
5.21810E-01 5.25537E-31
5.26168E-01 5.03262E-31
5.30524E-01 4.83158E-31
5.34878E-01 4.64979E-31
5.39230E-01 4.48505E-31
5.43578E-01 4.33538E-31
5.47923E-01 4.19899E-31
5.52264E-01 4.07430E-31
5.56602E-01 3.95988E-31
5.60935E-01 3.85446E-31
5.65263E-01 3.75691E-31
5.69587E-01 3.66622E-31
5.73905E-01 3.58150E-31
5.78217E-01 3.50195E-31
5.82524E-01 3.42689E-31
5.86824E-01 3.35568E-31
5.91118E-01 3.28780E-31
5.95404E-01 3.22276E-31
5.99684E-01 3.16016E-31
6.03956E-01 3.09964E-31
6.08220E-01 3.04088E-31
6.12476E-01 2.98363E-31
6.16723E-01 2.92764E-31
6.20961E-01 2.87274E-31
6.25190E-01 2.81874E-31
6.29410E-01 2.76553E-31
6.33619E-01 2.71297E-31
6.37819E-01 2.66099E-31
6.42008E-01 2.60950E-31
6.46186E-01 2.55845E-31
6.50353E-01 2.50779E-31
6.54508E-01 2.45749E-31
6.58652E-01 2.40754E-31
6.62784E-01 2.35790E-31
6.66903E-01 2.30859E-31
6.71010E-01 2.25960E-31
6.75104E-01 2.21093E-31
6.79184E-01 2.16260E-31
6.83251E-01 2.11462E-31
6.87303E-01 2.06700E-31
6.91342E-01 2.01977E-31
6.95366E-01 1.97294E-31
6.99375E-01 1.92654E-31
7.03368E-01 1.88058E-31
7.07347E-01 1.83509E-31
7.11309E-01 1.79009E-31
7.15256E-01 1.74560E-31
7.19186E-01 1.70164E-31
7.23099E-01 1.65824E-31
7.26995E-01 1.61541E-31
7.30874E-01 1.57316E-31
7.34736E-01 1.53153E-31
7.38579E-01 1.49051E-31
7.42405E-01 1.45013E-31
7.46212E-01 1.41041E-31
7.50000E-01 1.37134E-31
7.53769E-01 1.33295E-31
7.57519E-01 1.29524E-31
7.61249E-01 1.25822E-31
7.64960E-01 1.22190E-31
7.68650E-01 1.18628E-31
7.72320E-01 1.15137E-31
7.75968E-01 1.11717E-31
7.79596E-01 1.08367E-31
7.83203E-01 1.05090E-31
7.86788E-01 1.01883E-31
7.90351E-01 9.87475E-32
7.93893E-01 9.56828E-32
7.97411E-01 9.26888E-32
8.00908E-01 8.97649E-32
8.04381E-01 8.69107E-32
8.07831E-01 8.41257E-32
8.11257E-01 8.14092E-32
8.14660E-01 7.87606E-32
8.18039E-01 7.61791E-32
8.21394E-01 7.36638E-32
8.24724E-01 7.12142E-32
8.28030E-01 6.88290E-32
8.31310E-01 6.65076E-32
8.34565E-01 6.42489E-32
8.37795E-01 6.20518E-32
8.40999E-01 5.99155E-32
8.44177E-01 5.78388E-32
8.47329E-01 5.58207E-32
8.50455E-01 5.38600E-32
8.53553E-01 5.19557E-32
8.56625E-01 5.01067E-32
8.59670E-01 4.83118E-32
8.62687E-01 4.65699E-32
8.65677E-01 4.48798E-32
8.68639E-01 4.32405E-32
8.71572E-01 4.16508E-32
8.74478E-01 4.01095E-32
8.77355E-01 3.86156E-32
8.80203E-01 3.71678E-32
8.83022E-01 3.57652E-32
8.85812E-01 3.44065E-32
8.88573E-01 3.30907E-32
8.91304E-01 3.18167E-32
8.94005E-01 3.05834E-32
8.96677E-01 2.93898E-32
8.99318E-01 2.82348E-32
9.01928E-01 2.71173E-32
9.04508E-01 2.60365E-32
9.07058E-01 2.49912E-32
9.09576E-01 2.39804E-32
9.12063E-01 2.30033E-32
9.14519E-01 2.20589E-32
9.16943E-01 2.11462E-32
9.19335E-01 2.02643E-32
9.21696E-01 1.94124E-32
9.24024E-01 1.85896E-32
9.26320E-01 1.77950E-32
9.28584E-01 1.70278E-32
9.30815E-01 1.62872E-32
9.33013E-01 1.55723E-32
9.35178E-01 1.48825E-32
9.37310E-01 1.42169E-32
9.39409E-01 1.35749E-32
9.41474E-01 1.29557E-32
9.43505E-01 1.23585E-32
9.45503E-01 1.17828E-32
9.47467E-01 1.12278E-32
9.49397E-01 1.06930E-32
9.51293E-01 1.01777E-32
9.53154E-01 9.68131E-33
9.54981E-01 9.20321E-33
9.56773E-01 8.74284E-33
9.58530E-01 8.29968E-33
9.60252E-01 7.87314E-33
9.61940E-01 7.46276E-33
9.63592E-01 7.06797E-33
9.65209E-01 6.68837E-33
9.66790E-01 6.32342E-33
9.68336E-01 5.97269E-33
9.69846E-01 5.63573E-33
9.71321E-01 5.31212E-33
9.72759E-01 5.00145E-33
9.74162E-01 4.70333E-33
9.75528E-01 4.41738E-33
9.76858E-01 4.14323E-33
9.78152E-01 3.88050E-33
9.79410E-01 3.62888E-33
9.80631E-01 3.38803E-33
9.81815E-01 3.15765E-33
9.82963E-01 2.93740E-33
9.84074E-01 2.72703E-33
9.85148E-01 2.52626E-33
9.86185E-01 2.33480E-33
9.87185E-01 2.15240E-33
9.88148E-01 1.97881E-33
9.89074E-01 1.81382E-33
9.89962E-01 1.65721E-33
9.90814E-01 1.50875E-33
9.91627E-01 1.36824E-33
9.92404E-01 1.23548E-33
9.93143E-01 1.11032E-33
9.93844E-01 9.92579E-34
9.94508E-01 8.82093E-34
9.95134E-01 7.78696E-34
9.95722E-01 6.82267E-34
9.96273E-01 5.92667E-34
9.96786E-01 5.09768E-34
9.97261E-01 4.33465E-34
9.97698E-01 3.63651E-34
9.98097E-01 3.00221E-34
9.98459E-01 2.43100E-34
9.98782E-01 1.92195E-34
9.99067E-01 1.47451E-34
9.99315E-01 1.08791E-34
9.99524E-01 7.61739E-35
9.99695E-01 4.95448E-35
9.99829E-01 2.88724E-35
9.99924E-01 1.41255E-35
9.99981E-01 5.28775E-36
1.00000E+00 2.34384E-36
