 #
 # Subroutine ELSEPA. Elastic scattering of electrons and positrons
 #                    by neutral atoms and positive ions
 #
 # Projectile: positron
 # Kinetic energy = 9.00000E+07 eV = 3.30744E+06 a.u.
 #
 # WARNING: High-energy factorization with free-atom DF screening.
 #          Absorption, polarization and exchange corrections are
 #          switched off.
 #          Phase shifts are calculated for the bare nucleus.
 #          Scattering amplitudes are not evaluated.
 #
 # Element: As,  Z =  33,  atomic weight = 7.49216E+01 g/mol
 #
 # Nuclear model: Fermi distribution
 #                Average radius = 4.51079E-13 cm
 #                Skin thickness = 5.46000E-14 cm
 #
 # Number of electrons = 33
 #
 # Total elastic cross section = 2.48593E-18 cm**2 = 8.87742E-02 a0**2
 # 1st transport cross section = 2.62512E-25 cm**2 = 9.37447E-09 a0**2
 # 2nd transport cross section = 7.78257E-25 cm**2 = 2.77921E-08 a0**2
 #
 #
 # Differential cross section:                       MU=(1-COS(THETA))/2
 #
 #  THETA        MU          DCS          DCS        Sherman      error
 #  (deg)                 (cm**2/sr)   (a0**2/sr)    function
 #----------------------------------------------------------------------
0.00000E+00 1.66556E-10
7.61557E-13 1.66264E-10
1.18994E-12 1.66101E-10
1.71346E-12 1.65902E-10
2.33225E-12 1.65667E-10
3.04617E-12 1.65397E-10
3.85530E-12 1.65092E-10
4.75964E-12 1.64752E-10
5.75917E-12 1.64377E-10
6.85391E-12 1.63968E-10
8.04379E-12 1.63526E-10
9.32893E-12 1.63050E-10
1.07092E-11 1.62541E-10
1.21847E-11 1.62000E-10
1.37554E-11 1.61427E-10
1.54213E-11 1.60822E-10
1.71823E-11 1.60187E-10
1.90386E-11 1.59522E-10
2.09900E-11 1.58827E-10
2.30367E-11 1.58104E-10
2.51785E-11 1.57352E-10
2.74156E-11 1.56572E-10
2.97478E-11 1.55757E-10
3.21752E-11 1.54916E-10
3.46979E-11 1.54054E-10
3.73157E-11 1.53172E-10
4.00286E-11 1.52271E-10
4.28368E-11 1.51352E-10
4.57402E-11 1.50394E-10
4.87388E-11 1.49409E-10
5.18325E-11 1.48409E-10
5.50215E-11 1.47395E-10
5.83057E-11 1.46368E-10
6.16850E-11 1.45330E-10
6.51595E-11 1.44255E-10
6.87293E-11 1.43155E-10
7.23943E-11 1.42046E-10
7.61544E-11 1.40929E-10
1.18991E-10 1.29109E-10
1.71347E-10 1.16649E-10
2.33223E-10 1.04155E-10
3.04617E-10 9.22136E-11
3.85531E-10 8.11067E-11
4.75965E-10 7.10176E-11
5.75917E-10 6.20609E-11
6.85389E-10 5.41817E-11
8.04380E-10 4.73324E-11
9.32891E-10 4.14312E-11
1.07092E-09 3.63492E-11
1.21847E-09 3.19952E-11
1.37554E-09 2.82695E-11
1.54213E-09 2.50693E-11
1.71823E-09 2.23239E-11
1.90386E-09 1.99624E-11
2.09900E-09 1.79194E-11
2.30367E-09 1.61505E-11
2.51785E-09 1.46117E-11
2.74156E-09 1.32653E-11
2.97478E-09 1.20423E-11
3.21752E-09 1.09702E-11
3.46978E-09 1.00409E-11
3.73156E-09 9.23146E-12
4.00286E-09 8.52327E-12
4.28368E-09 7.90090E-12
4.57402E-09 7.29890E-12
4.87388E-09 6.74528E-12
5.18326E-09 6.25541E-12
5.50215E-09 5.82034E-12
5.83057E-09 5.43258E-12
6.16850E-09 5.08580E-12
6.51596E-09 4.74518E-12
6.87293E-09 4.42306E-12
7.23942E-09 4.13372E-12
7.61544E-09 3.87309E-12
1.18991E-08 2.10418E-12
1.71347E-08 1.20574E-12
2.33223E-08 7.21295E-13
3.04617E-08 4.52120E-13
3.85531E-08 2.95686E-13
4.75965E-08 2.01282E-13
5.75917E-08 1.42045E-13
6.85389E-08 1.03385E-13
8.04380E-08 7.72303E-14
9.32891E-08 5.89963E-14
1.07092E-07 4.59154E-14
1.21847E-07 3.63040E-14
1.37554E-07 2.90951E-14
1.54213E-07 2.35835E-14
1.71823E-07 1.93139E-14
1.90386E-07 1.59638E-14
2.09900E-07 1.33012E-14
2.30367E-07 1.11665E-14
2.51785E-07 9.43838E-15
2.74156E-07 8.02710E-15
2.97478E-07 6.86314E-15
3.21752E-07 5.90427E-15
3.46978E-07 5.10705E-15
3.73156E-07 4.43614E-15
4.00286E-07 3.87362E-15
4.28368E-07 3.39466E-15
4.57402E-07 2.98804E-15
4.87388E-07 2.64024E-15
5.18325E-07 2.34113E-15
5.50215E-07 2.08364E-15
5.83057E-07 1.85992E-15
6.16850E-07 1.66574E-15
6.51596E-07 1.49615E-15
6.87293E-07 1.34761E-15
7.23942E-07 1.21717E-15
7.61543E-07 1.10203E-15
1.18991E-06 4.58962E-16
1.71347E-06 2.24227E-16
2.33223E-06 1.22252E-16
3.04617E-06 7.22074E-17
3.85531E-06 4.53341E-17
4.75964E-06 2.98694E-17
5.75916E-06 2.04658E-17
6.85388E-06 1.44847E-17
8.04378E-06 1.05353E-17
9.32888E-06 7.84346E-18
1.07092E-05 5.95823E-18
1.21846E-05 4.60638E-18
1.37553E-05 3.61677E-18
1.54212E-05 2.87900E-18
1.71822E-05 2.31998E-18
1.90385E-05 1.89000E-18
2.09899E-05 1.55550E-18
2.30365E-05 1.29174E-18
2.51783E-05 1.08148E-18
2.74153E-05 9.12228E-19
2.97475E-05 7.74779E-19
3.21749E-05 6.62254E-19
3.46974E-05 5.69439E-19
3.73152E-05 4.92340E-19
4.00281E-05 4.27868E-19
4.28362E-05 3.73613E-19
4.57395E-05 3.27687E-19
4.87380E-05 2.88598E-19
5.18317E-05 2.55158E-19
5.50205E-05 2.26417E-19
5.83045E-05 2.01607E-19
6.16838E-05 1.80103E-19
6.51582E-05 1.61392E-19
6.87277E-05 1.45049E-19
7.23925E-05 1.30725E-19
7.61524E-05 1.18133E-19
9.21439E-05 8.06532E-20
1.09658E-04 5.69198E-20
1.28695E-04 4.13069E-20
1.49255E-04 3.06947E-20
1.71338E-04 2.32809E-20
1.94942E-04 1.79747E-20
2.20070E-04 1.40968E-20
2.46720E-04 1.12099E-20
2.74892E-04 9.02496E-21
3.04586E-04 7.34700E-21
3.35803E-04 6.04112E-21
3.68542E-04 5.01265E-21
4.02802E-04 4.19382E-21
4.38585E-04 3.53537E-21
4.75889E-04 3.00109E-21
5.14715E-04 2.56390E-21
5.55063E-04 2.20340E-21
5.96931E-04 1.90401E-21
6.40321E-04 1.65371E-21
6.85233E-04 1.44317E-21
7.31665E-04 1.26503E-21
7.79618E-04 1.11351E-21
8.29092E-04 9.83972E-22
8.80086E-04 8.72699E-22
9.32601E-04 7.76692E-22
9.86636E-04 6.93503E-22
1.04219E-03 6.21139E-22
1.09927E-03 5.57951E-22
1.15786E-03 5.02579E-22
1.21797E-03 4.53895E-22
1.27961E-03 4.10948E-22
1.34276E-03 3.72953E-22
1.40743E-03 3.39237E-22
1.47362E-03 3.09235E-22
1.54133E-03 2.82469E-22
1.61056E-03 2.58529E-22
1.68131E-03 2.37064E-22
1.75357E-03 2.17775E-22
1.82735E-03 2.00402E-22
1.90265E-03 1.84722E-22
1.97947E-03 1.70540E-22
2.05780E-03 1.57689E-22
2.13765E-03 1.46021E-22
2.21902E-03 1.35409E-22
2.30190E-03 1.25740E-22
2.38630E-03 1.16915E-22
2.47222E-03 1.08848E-22
2.55965E-03 1.01462E-22
2.64859E-03 9.46895E-23
2.73905E-03 8.84700E-23
2.83103E-03 8.27506E-23
2.92452E-03 7.74838E-23
3.01952E-03 7.26274E-23
3.11604E-03 6.81437E-23
3.21407E-03 6.39989E-23
3.31362E-03 6.01630E-23
3.41468E-03 5.66086E-23
3.51725E-03 5.33114E-23
3.62133E-03 5.02495E-23
3.72692E-03 4.74031E-23
3.83403E-03 4.47542E-23
3.94265E-03 4.22866E-23
4.05278E-03 3.99858E-23
4.16442E-03 3.78383E-23
4.27757E-03 3.58322E-23
4.39223E-03 3.39563E-23
4.50840E-03 3.22009E-23
4.62608E-03 3.05566E-23
4.74527E-03 2.90152E-23
4.86597E-03 2.75691E-23
4.98817E-03 2.62114E-23
5.11188E-03 2.49355E-23
5.23711E-03 2.37358E-23
5.36383E-03 2.26068E-23
5.49207E-03 2.15436E-23
5.62181E-03 2.05417E-23
5.75306E-03 1.95968E-23
5.88581E-03 1.87052E-23
6.02007E-03 1.78633E-23
6.15583E-03 1.70679E-23
6.29310E-03 1.63158E-23
6.43187E-03 1.56043E-23
6.57214E-03 1.49308E-23
6.71392E-03 1.42930E-23
6.85720E-03 1.36885E-23
7.00198E-03 1.31153E-23
7.14827E-03 1.25715E-23
7.29605E-03 1.20553E-23
7.44534E-03 1.15651E-23
7.59612E-03 1.10992E-23
7.97965E-03 1.00322E-23
8.37255E-03 9.08915E-24
8.77480E-03 8.25314E-24
9.18641E-03 7.51002E-24
9.60736E-03 6.84772E-24
1.00376E-02 6.25597E-24
1.04773E-02 5.72599E-24
1.09262E-02 5.25023E-24
1.13844E-02 4.82221E-24
1.18520E-02 4.43633E-24
1.23288E-02 4.08772E-24
1.28150E-02 3.77218E-24
1.33104E-02 3.48604E-24
1.38150E-02 3.22609E-24
1.43290E-02 2.98952E-24
1.48521E-02 2.77388E-24
1.53845E-02 2.57699E-24
1.59262E-02 2.39694E-24
1.64770E-02 2.23206E-24
1.70371E-02 2.08083E-24
1.76063E-02 1.94195E-24
1.81848E-02 1.81422E-24
1.87724E-02 1.69660E-24
1.93692E-02 1.58816E-24
1.99751E-02 1.48805E-24
2.05901E-02 1.39552E-24
2.12143E-02 1.30991E-24
2.18476E-02 1.23061E-24
2.24900E-02 1.15706E-24
2.31415E-02 1.08880E-24
2.38021E-02 1.02536E-24
2.44717E-02 9.66349E-25
2.51504E-02 9.11410E-25
2.58382E-02 8.60212E-25
2.65349E-02 8.12456E-25
2.72407E-02 7.67871E-25
2.79555E-02 7.26212E-25
2.86793E-02 6.87253E-25
2.94120E-02 6.50791E-25
3.01537E-02 6.16638E-25
3.09043E-02 5.84623E-25
3.16639E-02 5.54591E-25
3.24324E-02 5.26396E-25
3.32098E-02 4.99909E-25
3.39961E-02 4.75008E-25
3.47912E-02 4.51582E-25
3.55952E-02 4.29530E-25
3.64081E-02 4.08757E-25
3.72297E-02 3.89177E-25
3.80602E-02 3.70709E-25
3.88995E-02 3.53281E-25
3.97476E-02 3.36824E-25
4.06044E-02 3.21275E-25
4.14700E-02 3.06575E-25
4.23443E-02 2.92670E-25
4.32273E-02 2.79511E-25
4.41190E-02 2.67051E-25
4.50194E-02 2.55247E-25
4.59284E-02 2.44057E-25
4.68461E-02 2.33446E-25
4.87074E-02 2.13822E-25
5.06030E-02 1.96124E-25
5.25328E-02 1.80133E-25
5.44967E-02 1.65660E-25
5.64946E-02 1.52540E-25
5.85262E-02 1.40627E-25
6.05914E-02 1.29792E-25
6.26901E-02 1.19925E-25
6.48222E-02 1.10925E-25
6.69873E-02 1.02706E-25
6.91854E-02 9.51895E-26
7.14163E-02 8.83066E-26
7.36799E-02 8.19963E-26
7.59760E-02 7.62041E-26
7.83043E-02 7.08814E-26
8.06647E-02 6.59846E-26
8.30571E-02 6.14748E-26
8.54812E-02 5.73172E-26
8.79369E-02 5.34804E-26
9.04240E-02 4.99362E-26
9.29422E-02 4.66591E-26
9.54915E-02 4.36264E-26
9.80716E-02 4.08173E-26
1.00682E-01 3.82130E-26
1.03323E-01 3.57967E-26
1.05995E-01 3.35530E-26
1.08696E-01 3.14679E-26
1.11427E-01 2.95288E-26
1.14188E-01 2.77240E-26
1.16978E-01 2.60431E-26
1.19797E-01 2.44766E-26
1.22645E-01 2.30155E-26
1.25522E-01 2.16520E-26
1.28428E-01 2.03787E-26
1.31361E-01 1.91889E-26
1.34323E-01 1.80765E-26
1.37313E-01 1.70358E-26
1.40330E-01 1.60617E-26
1.43375E-01 1.51493E-26
1.46447E-01 1.42944E-26
1.49545E-01 1.34928E-26
1.52671E-01 1.27409E-26
1.55823E-01 1.20352E-26
1.59001E-01 1.13726E-26
1.62205E-01 1.07501E-26
1.65435E-01 1.01651E-26
1.68690E-01 9.61502E-27
1.71970E-01 9.09758E-27
1.75276E-01 8.61063E-27
1.78606E-01 8.15218E-27
1.81961E-01 7.72039E-27
1.85340E-01 7.31356E-27
1.88743E-01 6.93008E-27
1.92169E-01 6.56849E-27
1.95619E-01 6.22740E-27
1.99092E-01 5.90555E-27
2.02589E-01 5.60174E-27
2.06107E-01 5.31487E-27
2.09649E-01 5.04389E-27
2.13212E-01 4.78785E-27
2.16797E-01 4.54584E-27
2.20404E-01 4.31703E-27
2.24032E-01 4.10063E-27
2.27680E-01 3.89590E-27
2.31350E-01 3.70217E-27
2.35040E-01 3.51878E-27
2.38751E-01 3.34515E-27
2.42481E-01 3.18070E-27
2.46231E-01 3.02490E-27
2.50000E-01 2.87728E-27
2.53788E-01 2.73736E-27
2.57595E-01 2.60470E-27
2.61421E-01 2.47891E-27
2.65264E-01 2.35959E-27
2.69126E-01 2.24639E-27
2.73005E-01 2.13897E-27
2.76901E-01 2.03701E-27
2.80814E-01 1.94022E-27
2.84744E-01 1.84831E-27
2.88691E-01 1.76102E-27
2.92653E-01 1.67809E-27
2.96632E-01 1.59931E-27
3.00625E-01 1.52444E-27
3.04634E-01 1.45327E-27
3.08658E-01 1.38562E-27
3.12697E-01 1.32129E-27
3.16749E-01 1.26011E-27
3.20816E-01 1.20192E-27
3.24896E-01 1.14656E-27
3.28990E-01 1.09389E-27
3.33097E-01 1.04376E-27
3.37216E-01 9.96054E-28
3.41348E-01 9.50635E-28
3.45492E-01 9.07392E-28
3.49647E-01 8.66214E-28
3.53814E-01 8.26996E-28
3.57992E-01 7.89640E-28
3.62181E-01 7.54052E-28
3.66381E-01 7.20144E-28
3.70590E-01 6.87832E-28
3.74810E-01 6.57036E-28
3.79039E-01 6.27683E-28
3.83277E-01 5.99700E-28
3.87524E-01 5.73020E-28
3.91780E-01 5.47579E-28
3.96044E-01 5.23317E-28
4.00316E-01 5.00176E-28
4.04596E-01 4.78102E-28
4.08882E-01 4.57043E-28
4.13176E-01 4.36951E-28
4.17476E-01 4.17778E-28
4.21783E-01 3.99480E-28
4.26095E-01 3.82016E-28
4.30413E-01 3.65346E-28
4.34737E-01 3.49432E-28
4.39065E-01 3.34239E-28
4.43398E-01 3.19731E-28
4.47736E-01 3.05877E-28
4.52077E-01 2.92647E-28
4.56422E-01 2.80010E-28
4.60770E-01 2.67938E-28
4.65122E-01 2.56407E-28
4.69476E-01 2.45389E-28
4.73832E-01 2.34862E-28
4.78190E-01 2.24803E-28
4.82550E-01 2.15190E-28
4.86912E-01 2.06002E-28
4.91274E-01 1.97220E-28
4.95637E-01 1.88826E-28
5.00000E-01 1.80800E-28
5.04363E-01 1.73128E-28
5.08726E-01 1.65792E-28
5.13088E-01 1.58776E-28
5.17450E-01 1.52068E-28
5.21810E-01 1.45652E-28
5.26168E-01 1.39516E-28
5.30524E-01 1.33646E-28
5.34878E-01 1.28031E-28
5.39230E-01 1.22659E-28
5.43578E-01 1.17520E-28
5.47923E-01 1.12602E-28
5.52264E-01 1.07897E-28
5.56602E-01 1.03394E-28
5.60935E-01 9.90849E-29
5.65263E-01 9.49605E-29
5.69587E-01 9.10128E-29
5.73905E-01 8.72340E-29
5.78217E-01 8.36165E-29
5.82524E-01 8.01533E-29
5.86824E-01 7.68376E-29
5.91118E-01 7.36629E-29
5.95404E-01 7.06229E-29
5.99684E-01 6.77118E-29
6.03956E-01 6.49240E-29
6.08220E-01 6.22539E-29
6.12476E-01 5.96966E-29
6.16723E-01 5.72470E-29
6.20961E-01 5.49006E-29
6.25190E-01 5.26527E-29
6.29410E-01 5.04992E-29
6.33619E-01 4.84359E-29
6.37819E-01 4.64590E-29
6.42008E-01 4.45647E-29
6.46186E-01 4.27495E-29
6.50353E-01 4.10099E-29
6.54508E-01 3.93427E-29
6.58652E-01 3.77448E-29
6.62784E-01 3.62132E-29
6.66903E-01 3.47451E-29
6.71010E-01 3.33378E-29
6.75104E-01 3.19887E-29
6.79184E-01 3.06953E-29
6.83251E-01 2.94552E-29
6.87303E-01 2.82662E-29
6.91342E-01 2.71260E-29
6.95366E-01 2.60328E-29
6.99375E-01 2.49843E-29
7.03368E-01 2.39788E-29
7.07347E-01 2.30145E-29
7.11309E-01 2.20895E-29
7.15256E-01 2.12023E-29
7.19186E-01 2.03513E-29
7.23099E-01 1.95349E-29
7.26995E-01 1.87517E-29
7.30874E-01 1.80003E-29
7.34736E-01 1.72793E-29
7.38579E-01 1.65876E-29
7.42405E-01 1.59239E-29
7.46212E-01 1.52869E-29
7.50000E-01 1.46757E-29
7.53769E-01 1.40891E-29
7.57519E-01 1.35262E-29
7.61249E-01 1.29858E-29
7.64960E-01 1.24672E-29
7.68650E-01 1.19694E-29
7.72320E-01 1.14915E-29
7.75968E-01 1.10327E-29
7.79596E-01 1.05923E-29
7.83203E-01 1.01694E-29
7.86788E-01 9.76342E-30
7.90351E-01 9.37360E-30
7.93893E-01 8.99928E-30
7.97411E-01 8.63984E-30
8.00908E-01 8.29466E-30
8.04381E-01 7.96317E-30
8.07831E-01 7.64480E-30
8.11257E-01 7.33902E-30
8.14660E-01 7.04533E-30
8.18039E-01 6.76322E-30
8.21394E-01 6.49223E-30
8.24724E-01 6.23191E-30
8.28030E-01 5.98184E-30
8.31310E-01 5.74158E-30
8.34565E-01 5.51076E-30
8.37795E-01 5.28898E-30
8.40999E-01 5.07589E-30
8.44177E-01 4.87114E-30
8.47329E-01 4.67438E-30
8.50455E-01 4.48531E-30
8.53553E-01 4.30362E-30
8.56625E-01 4.12900E-30
8.59670E-01 3.96118E-30
8.62687E-01 3.79989E-30
8.65677E-01 3.64486E-30
8.68639E-01 3.49585E-30
8.71572E-01 3.35263E-30
8.74478E-01 3.21495E-30
8.77355E-01 3.08260E-30
8.80203E-01 2.95537E-30
8.83022E-01 2.83306E-30
8.85812E-01 2.71547E-30
8.88573E-01 2.60242E-30
8.91304E-01 2.49373E-30
8.94005E-01 2.38923E-30
8.96677E-01 2.28876E-30
8.99318E-01 2.19216E-30
9.01928E-01 2.09927E-30
9.04508E-01 2.00995E-30
9.07058E-01 1.92407E-30
9.09576E-01 1.84149E-30
9.12063E-01 1.76208E-30
9.14519E-01 1.68573E-30
9.16943E-01 1.61230E-30
9.19335E-01 1.54170E-30
9.21696E-01 1.47380E-30
9.24024E-01 1.40852E-30
9.26320E-01 1.34574E-30
9.28584E-01 1.28537E-30
9.30815E-01 1.22732E-30
9.33013E-01 1.17151E-30
9.35178E-01 1.11784E-30
9.37310E-01 1.06624E-30
9.39409E-01 1.01663E-30
9.41474E-01 9.68936E-31
9.43505E-01 9.23082E-31
9.45503E-01 8.79002E-31
9.47467E-01 8.36630E-31
9.49397E-01 7.95903E-31
9.51293E-01 7.56760E-31
9.53154E-01 7.19144E-31
9.54981E-01 6.82997E-31
9.56773E-01 6.48268E-31
9.58530E-01 6.14904E-31
9.60252E-01 5.82857E-31
9.61940E-01 5.52078E-31
9.63592E-01 5.22524E-31
9.65209E-01 4.94150E-31
9.66790E-01 4.66915E-31
9.68336E-01 4.40780E-31
9.69846E-01 4.15706E-31
9.71321E-01 3.91657E-31
9.72759E-01 3.68597E-31
9.74162E-01 3.46494E-31
9.75528E-01 3.25316E-31
9.76858E-01 3.05031E-31
9.78152E-01 2.85610E-31
9.79410E-01 2.67027E-31
9.80631E-01 2.49252E-31
9.81815E-01 2.32263E-31
9.82963E-01 2.16033E-31
9.84074E-01 2.00540E-31
9.85148E-01 1.85761E-31
9.86185E-01 1.71675E-31
9.87185E-01 1.58263E-31
9.88148E-01 1.45505E-31
9.89074E-01 1.33384E-31
9.89962E-01 1.21880E-31
9.90814E-01 1.10980E-31
9.91627E-01 1.00666E-31
9.92404E-01 9.09253E-32
9.93143E-01 8.17428E-32
9.93844E-01 7.31061E-32
9.94508E-01 6.50027E-32
9.95134E-01 5.74217E-32
9.95722E-01 5.03519E-32
9.96273E-01 4.37835E-32
9.96786E-01 3.77074E-32
9.97261E-01 3.21149E-32
9.97698E-01 2.69981E-32
9.98097E-01 2.23500E-32
9.98459E-01 1.81640E-32
9.98782E-01 1.44342E-32
9.99067E-01 1.11554E-32
9.99315E-01 8.32302E-33
9.99524E-01 5.93303E-33
9.99695E-01 3.98216E-33
9.99829E-01 2.46764E-33
9.99924E-01 1.38736E-33
9.99981E-01 7.39767E-34
1.00000E+00 5.23990E-34
