 #
 # Subroutine ELSEPA. Elastic scattering of electrons and positrons
 #                    by neutral atoms and positive ions
 #
 # Projectile: positron
 # Kinetic energy = 6.00000E+08 eV = 2.20496E+07 a.u.
 #
 # WARNING: High-energy factorization with free-atom DF screening.
 #          Absorption, polarization and exchange corrections are
 #          switched off.
 #          Phase shifts are calculated for the bare nucleus.
 #          Scattering amplitudes are not evaluated.
 #
 # Element: As,  Z =  33,  atomic weight = 7.49216E+01 g/mol
 #
 # Nuclear model: Fermi distribution
 #                Average radius = 4.51079E-13 cm
 #                Skin thickness = 5.46000E-14 cm
 #
 # Number of electrons = 33
 #
 # Total elastic cross section = 2.48374E-18 cm**2 = 8.86958E-02 a0**2
 # 1st transport cross section = 6.11720E-27 cm**2 = 2.18449E-10 a0**2
 # 2nd transport cross section = 1.83458E-26 cm**2 = 6.55139E-10 a0**2
 #
 #
 # Differential cross section:                       MU=(1-COS(THETA))/2
 #
 #  THETA        MU          DCS          DCS        Sherman      error
 #  (deg)                 (cm**2/sr)   (a0**2/sr)    function
 #----------------------------------------------------------------------
0.00000E+00 7.33162E-09
7.61557E-13 6.79891E-09
1.18994E-12 6.52508E-09
1.71346E-12 6.21301E-09
2.33225E-12 5.87317E-09
3.04617E-12 5.51584E-09
3.85530E-12 5.15042E-09
4.75964E-12 4.78514E-09
5.75917E-12 4.42624E-09
6.85391E-12 4.07899E-09
8.04379E-12 3.74829E-09
9.32893E-12 3.43685E-09
1.07092E-11 3.14630E-09
1.21847E-11 2.87733E-09
1.37554E-11 2.62993E-09
1.54213E-11 2.40355E-09
1.71823E-11 2.19726E-09
1.90386E-11 2.00989E-09
2.09900E-11 1.84012E-09
2.30367E-11 1.68635E-09
2.51785E-11 1.54745E-09
2.74156E-11 1.42210E-09
2.97478E-11 1.30901E-09
3.21752E-11 1.20696E-09
3.46979E-11 1.11481E-09
3.73157E-11 1.03155E-09
4.00286E-11 9.56221E-10
4.28368E-11 8.87994E-10
4.57402E-11 8.26109E-10
4.87388E-11 7.69875E-10
5.18325E-11 7.18663E-10
5.50215E-11 6.71982E-10
5.83057E-11 6.29353E-10
6.16850E-11 5.90349E-10
6.51595E-11 5.53784E-10
6.87293E-11 5.19508E-10
7.23943E-11 4.88413E-10
7.61544E-11 4.60143E-10
1.18991E-10 2.71873E-10
1.71347E-10 1.72602E-10
2.33223E-10 1.14185E-10
3.04617E-10 7.75991E-11
3.85531E-10 5.38756E-11
4.75965E-10 3.81497E-11
5.75917E-10 2.75301E-11
6.85389E-10 2.02501E-11
8.04380E-10 1.51874E-11
9.32891E-10 1.16025E-11
1.07092E-09 9.01808E-12
1.21847E-09 7.12154E-12
1.37554E-09 5.70573E-12
1.54213E-09 4.63165E-12
1.71823E-09 3.80331E-12
1.90386E-09 3.15574E-12
2.09900E-09 2.64310E-12
2.30367E-09 2.23215E-12
2.51785E-09 1.89914E-12
2.74156E-09 1.62657E-12
2.97478E-09 1.40144E-12
3.21752E-09 1.21400E-12
3.46978E-09 1.05681E-12
3.73156E-09 9.24162E-13
4.00286E-09 8.11573E-13
4.28368E-09 7.15500E-13
4.57402E-09 6.33109E-13
4.87388E-09 5.62112E-13
5.18326E-09 5.00649E-13
5.50215E-09 4.47254E-13
5.83057E-09 4.00696E-13
6.16850E-09 3.59963E-13
6.51596E-09 3.24121E-13
6.87293E-09 2.92543E-13
7.23942E-09 2.64798E-13
7.61544E-09 2.40336E-13
1.18991E-08 1.01000E-13
1.71347E-08 4.94541E-14
2.33223E-08 2.70077E-14
3.04617E-08 1.59877E-14
3.85531E-08 1.00649E-14
4.75965E-08 6.65050E-15
5.75917E-08 4.56940E-15
6.85389E-08 3.24215E-15
8.04380E-08 2.36344E-15
9.32891E-08 1.76304E-15
1.07092E-07 1.34158E-15
1.21847E-07 1.03872E-15
1.37554E-07 8.16614E-16
1.54213E-07 6.50759E-16
1.71823E-07 5.24908E-16
1.90386E-07 4.28027E-16
2.09900E-07 3.52480E-16
2.30367E-07 2.92873E-16
2.51785E-07 2.45339E-16
2.74156E-07 2.07060E-16
2.97478E-07 1.75958E-16
3.21752E-07 1.50479E-16
3.46978E-07 1.29445E-16
3.73156E-07 1.11959E-16
4.00286E-07 9.73267E-17
4.28368E-07 8.50072E-17
4.57402E-07 7.45756E-17
4.87388E-07 6.56954E-17
5.18325E-07 5.80978E-17
5.50215E-07 5.15670E-17
5.83057E-07 4.59283E-17
6.16850E-07 4.10393E-17
6.51596E-07 3.67835E-17
6.87293E-07 3.30653E-17
7.23942E-07 2.98051E-17
7.61543E-07 2.69368E-17
1.18991E-06 1.10389E-17
1.71347E-06 5.32452E-18
2.33223E-06 2.87415E-18
3.04617E-06 1.68473E-18
3.85531E-06 1.05170E-18
4.75964E-06 6.89958E-19
5.75916E-06 4.71203E-19
6.85388E-06 3.32664E-19
8.04378E-06 2.41495E-19
9.32888E-06 1.79522E-19
1.07092E-05 1.36211E-19
1.21846E-05 1.05206E-19
1.37553E-05 8.25412E-20
1.54212E-05 6.56630E-20
1.71822E-05 5.28860E-20
1.90385E-05 4.30659E-20
2.09899E-05 3.54313E-20
2.30365E-05 2.94144E-20
2.51783E-05 2.46203E-20
2.74153E-05 2.07627E-20
2.97475E-05 1.76310E-20
3.21749E-05 1.50679E-20
3.46974E-05 1.29543E-20
3.73152E-05 1.11989E-20
4.00281E-05 9.73131E-21
4.28362E-05 8.49653E-21
4.57395E-05 7.45145E-21
4.87380E-05 6.56206E-21
5.18317E-05 5.80131E-21
5.50205E-05 5.14753E-21
5.83045E-05 4.58323E-21
6.16838E-05 4.09416E-21
6.51582E-05 3.66864E-21
6.87277E-05 3.29702E-21
7.23925E-05 2.97130E-21
7.61524E-05 2.66838E-21
9.21439E-05 1.81801E-21
1.09658E-04 1.28004E-21
1.28695E-04 9.26513E-22
1.49255E-04 6.86496E-22
1.71338E-04 5.19035E-22
1.94942E-04 3.99349E-22
2.20070E-04 3.12016E-22
2.46720E-04 2.47112E-22
2.74892E-04 1.98080E-22
3.04586E-04 1.60501E-22
3.35803E-04 1.31318E-22
3.68542E-04 1.08389E-22
4.02802E-04 9.01776E-23
4.38585E-04 7.55726E-23
4.75889E-04 6.37551E-23
5.14715E-04 5.41139E-23
5.55063E-04 4.61891E-23
5.96931E-04 3.96295E-23
6.40321E-04 3.41647E-23
6.85233E-04 2.95847E-23
7.31665E-04 2.57247E-23
7.79618E-04 2.24547E-23
8.29092E-04 1.96708E-23
8.80086E-04 1.72901E-23
9.32601E-04 1.52454E-23
9.86636E-04 1.34822E-23
1.04219E-03 1.19560E-23
1.09927E-03 1.06302E-23
1.15786E-03 9.47469E-24
1.21797E-03 8.46432E-24
1.27961E-03 7.57821E-24
1.34276E-03 6.79886E-24
1.40743E-03 6.11156E-24
1.47362E-03 5.50389E-24
1.54133E-03 4.96529E-24
1.61056E-03 4.48682E-24
1.68131E-03 4.06082E-24
1.75357E-03 3.68075E-24
1.82735E-03 3.34097E-24
1.90265E-03 3.03663E-24
1.97947E-03 2.76353E-24
2.05780E-03 2.51805E-24
2.13765E-03 2.29703E-24
2.21902E-03 2.09770E-24
2.30190E-03 1.91767E-24
2.38630E-03 1.75484E-24
2.47222E-03 1.60735E-24
2.55965E-03 1.47359E-24
2.64859E-03 1.35212E-24
2.73905E-03 1.24167E-24
2.83103E-03 1.14113E-24
2.92452E-03 1.04951E-24
3.01952E-03 9.65923E-25
3.11604E-03 8.89591E-25
3.21407E-03 8.19814E-25
3.31362E-03 7.55968E-25
3.41468E-03 6.97497E-25
3.51725E-03 6.43900E-25
3.62133E-03 5.94732E-25
3.72692E-03 5.49589E-25
3.83403E-03 5.08111E-25
3.94265E-03 4.69972E-25
4.05278E-03 4.34878E-25
4.16442E-03 4.02565E-25
4.27757E-03 3.72792E-25
4.39223E-03 3.45344E-25
4.50840E-03 3.20023E-25
4.62608E-03 2.96653E-25
4.74527E-03 2.75069E-25
4.86597E-03 2.55127E-25
4.98817E-03 2.36691E-25
5.11188E-03 2.19640E-25
5.23711E-03 2.03863E-25
5.36383E-03 1.89258E-25
5.49207E-03 1.75733E-25
5.62181E-03 1.63202E-25
5.75306E-03 1.51590E-25
5.88581E-03 1.40823E-25
6.02007E-03 1.30839E-25
6.15583E-03 1.21576E-25
6.29310E-03 1.12980E-25
6.43187E-03 1.05001E-25
6.57214E-03 9.75928E-26
6.71392E-03 9.07125E-26
6.85720E-03 8.43213E-26
7.00198E-03 7.83829E-26
7.14827E-03 7.28644E-26
7.29605E-03 6.77349E-26
7.44534E-03 6.29663E-26
7.59612E-03 5.85325E-26
7.97965E-03 4.87590E-26
8.37255E-03 4.06029E-26
8.77480E-03 3.37931E-26
9.18641E-03 2.81053E-26
9.60736E-03 2.33542E-26
1.00376E-02 1.93857E-26
1.04773E-02 1.60719E-26
1.09262E-02 1.33059E-26
1.13844E-02 1.09988E-26
1.18520E-02 9.07589E-27
1.23288E-02 7.47495E-27
1.28150E-02 6.14369E-27
1.33104E-02 5.03825E-27
1.38150E-02 4.12182E-27
1.43290E-02 3.36350E-27
1.48521E-02 2.73731E-27
1.53845E-02 2.22143E-27
1.59262E-02 1.79750E-27
1.64770E-02 1.45013E-27
1.70371E-02 1.16637E-27
1.76063E-02 9.35361E-28
1.81848E-02 7.48006E-28
1.87724E-02 5.96675E-28
1.93692E-02 4.74987E-28
1.99751E-02 3.77613E-28
2.05901E-02 3.00112E-28
2.12143E-02 2.38784E-28
2.18476E-02 1.90562E-28
2.24900E-02 1.52904E-28
2.31415E-02 1.23713E-28
2.38021E-02 1.01263E-28
2.44717E-02 8.41406E-29
2.51504E-02 7.11929E-29
2.58382E-02 6.14834E-29
2.65349E-02 5.42564E-29
2.72407E-02 4.89061E-29
2.79555E-02 4.49505E-29
2.86793E-02 4.20092E-29
2.94120E-02 3.97857E-29
3.01537E-02 3.80513E-29
3.09043E-02 3.66327E-29
3.16639E-02 3.54010E-29
3.24324E-02 3.42628E-29
3.32098E-02 3.31528E-29
3.39961E-02 3.20277E-29
3.47912E-02 3.08614E-29
3.55952E-02 2.96404E-29
3.64081E-02 2.83608E-29
3.72297E-02 2.70257E-29
3.80602E-02 2.56429E-29
3.88995E-02 2.42232E-29
3.97476E-02 2.27790E-29
4.06044E-02 2.13237E-29
4.14700E-02 1.98706E-29
4.23443E-02 1.84321E-29
4.32273E-02 1.70201E-29
4.41190E-02 1.56449E-29
4.50194E-02 1.43155E-29
4.59284E-02 1.30397E-29
4.68461E-02 1.18234E-29
4.87074E-02 9.58735E-30
5.06030E-02 7.62988E-30
5.25328E-02 5.95570E-30
5.44967E-02 4.55564E-30
5.64946E-02 3.41060E-30
5.85262E-02 2.49505E-30
6.05914E-02 1.78006E-30
6.26901E-02 1.23569E-30
6.48222E-02 8.32738E-31
6.69873E-02 5.43995E-31
6.91854E-02 3.45045E-31
7.14163E-02 2.14660E-31
7.36799E-02 1.34926E-31
7.59760E-02 9.11514E-32
7.83043E-02 7.16387E-32
8.06647E-02 6.73603E-32
8.30571E-02 7.15939E-32
8.54812E-02 7.95448E-32
8.79369E-02 8.79812E-32
9.04240E-02 9.48980E-32
9.29422E-02 9.92187E-32
9.54915E-02 1.00540E-31
9.80716E-02 9.89219E-32
1.00682E-01 9.47139E-32
1.03323E-01 8.84285E-32
1.05995E-01 8.06404E-32
1.08696E-01 7.19192E-32
1.11427E-01 6.27831E-32
1.14188E-01 5.36730E-32
1.16978E-01 4.49398E-32
1.19797E-01 3.68429E-32
1.22645E-01 2.95556E-32
1.25522E-01 2.31749E-32
1.28428E-01 1.77339E-32
1.31361E-01 1.32154E-32
1.34323E-01 9.56421E-33
1.37313E-01 6.69967E-33
1.40330E-01 4.52560E-33
1.43375E-01 2.93905E-33
1.46447E-01 1.83708E-33
1.49545E-01 1.12180E-33
1.52671E-01 7.03911E-34
1.55823E-01 5.04849E-34
1.59001E-01 4.57837E-34
1.62205E-01 5.08038E-34
1.65435E-01 6.12077E-34
1.68690E-01 7.37077E-34
1.71970E-01 8.59421E-34
1.75276E-01 9.63371E-34
1.78606E-01 1.03965E-33
1.81961E-01 1.08405E-33
1.85340E-01 1.09620E-33
1.88743E-01 1.07845E-33
1.92169E-01 1.03488E-33
1.95619E-01 9.70562E-34
1.99092E-01 8.90921E-34
2.02589E-01 8.01286E-34
2.06107E-01 7.06561E-34
2.09649E-01 6.11012E-34
2.13212E-01 5.18160E-34
2.16797E-01 4.30740E-34
2.20404E-01 3.50723E-34
2.24032E-01 2.79376E-34
2.27680E-01 2.17346E-34
2.31350E-01 1.64762E-34
2.35040E-01 1.21339E-34
2.38751E-01 8.64830E-35
2.42481E-01 5.93831E-35
2.46231E-01 3.90970E-35
2.50000E-01 2.46221E-35
2.53788E-01 1.49539E-35
2.57595E-01 9.13108E-36
2.61421E-01 6.26678E-36
2.65264E-01 5.57115E-36
2.69126E-01 6.36280E-36
2.73005E-01 8.07308E-36
2.76901E-01 1.02440E-35
2.80814E-01 1.25217E-35
2.84744E-01 1.46465E-35
2.88691E-01 1.64414E-35
2.92653E-01 1.77989E-35
2.96632E-01 1.86690E-35
3.00625E-01 1.90458E-35
3.04634E-01 1.89571E-35
3.08658E-01 1.84536E-35
3.12697E-01 1.76009E-35
3.16749E-01 1.64716E-35
3.20816E-01 1.51397E-35
3.24896E-01 1.36766E-35
3.28990E-01 1.21475E-35
3.33097E-01 1.06096E-35
3.37216E-01 9.11053E-36
3.41348E-01 7.68848E-36
3.45492E-01 6.37200E-36
3.49647E-01 5.18048E-36
3.53814E-01 4.12562E-36
3.57992E-01 3.21181E-36
3.62181E-01 2.43792E-36
3.66381E-01 1.79803E-36
3.70590E-01 1.28281E-36
3.74810E-01 8.80590E-37
3.79039E-01 5.78139E-37
3.83277E-01 3.61599E-37
3.87524E-01 2.17045E-37
3.91780E-01 1.31094E-37
3.96044E-01 9.12310E-38
4.00316E-01 8.61187E-38
4.04596E-01 1.05748E-37
4.08882E-01 1.41538E-37
4.13176E-01 1.86337E-37
4.17476E-01 2.34379E-37
4.21783E-01 2.81183E-37
4.26095E-01 3.23471E-37
4.30413E-01 3.58973E-37
4.34737E-01 3.86316E-37
4.39065E-01 4.04882E-37
4.43398E-01 4.14630E-37
4.47736E-01 4.15963E-37
4.52077E-01 4.09661E-37
4.56422E-01 3.96660E-37
4.60770E-01 3.78090E-37
4.65122E-01 3.55102E-37
4.69476E-01 3.28828E-37
4.73832E-01 3.00380E-37
4.78190E-01 2.70755E-37
4.82550E-01 2.40840E-37
4.86912E-01 2.11387E-37
4.91274E-01 1.83034E-37
4.95637E-01 1.56268E-37
5.00000E-01 1.31461E-37
5.04363E-01 1.08882E-37
5.08726E-01 8.86732E-38
5.13088E-01 7.08942E-38
5.17450E-01 5.55236E-38
5.21810E-01 4.24840E-38
5.26168E-01 3.16443E-38
5.30524E-01 2.28416E-38
5.34878E-01 1.58842E-38
5.39230E-01 1.05601E-38
5.43578E-01 6.65866E-39
5.47923E-01 3.97130E-39
5.52264E-01 1.00000E-45
5.56602E-01 1.00000E-45
5.60935E-01 1.00000E-45
5.65263E-01 1.00000E-45
5.69587E-01 1.00000E-45
5.73905E-01 1.00000E-45
5.78217E-01 1.00000E-45
5.82524E-01 1.00000E-45
5.86824E-01 1.00000E-45
5.91118E-01 1.00000E-45
5.95404E-01 1.00000E-45
5.99684E-01 1.00000E-45
6.03956E-01 1.00000E-45
6.08220E-01 1.00000E-45
6.12476E-01 1.00000E-45
6.16723E-01 1.00000E-45
6.20961E-01 1.00000E-45
6.25190E-01 1.00000E-45
6.29410E-01 1.00000E-45
6.33619E-01 1.00000E-45
6.37819E-01 1.00000E-45
6.42008E-01 1.00000E-45
6.46186E-01 1.00000E-45
6.50353E-01 1.00000E-45
6.54508E-01 1.00000E-45
6.58652E-01 1.00000E-45
6.62784E-01 1.00000E-45
6.66903E-01 1.00000E-45
6.71010E-01 1.00000E-45
6.75104E-01 1.00000E-45
6.79184E-01 1.00000E-45
6.83251E-01 1.00000E-45
6.87303E-01 1.00000E-45
6.91342E-01 1.00000E-45
6.95366E-01 1.00000E-45
6.99375E-01 1.00000E-45
7.03368E-01 1.00000E-45
7.07347E-01 1.00000E-45
7.11309E-01 1.00000E-45
7.15256E-01 1.00000E-45
7.19186E-01 1.00000E-45
7.23099E-01 1.00000E-45
7.26995E-01 1.00000E-45
7.30874E-01 1.00000E-45
7.34736E-01 1.00000E-45
7.38579E-01 1.00000E-45
7.42405E-01 1.00000E-45
7.46212E-01 1.00000E-45
7.50000E-01 1.00000E-45
7.53769E-01 1.00000E-45
7.57519E-01 1.00000E-45
7.61249E-01 1.00000E-45
7.64960E-01 1.00000E-45
7.68650E-01 1.00000E-45
7.72320E-01 1.00000E-45
7.75968E-01 1.00000E-45
7.79596E-01 1.00000E-45
7.83203E-01 1.00000E-45
7.86788E-01 1.00000E-45
7.90351E-01 1.00000E-45
7.93893E-01 1.00000E-45
7.97411E-01 1.00000E-45
8.00908E-01 1.00000E-45
8.04381E-01 1.00000E-45
8.07831E-01 1.00000E-45
8.11257E-01 1.00000E-45
8.14660E-01 1.00000E-45
8.18039E-01 1.00000E-45
8.21394E-01 1.00000E-45
8.24724E-01 1.00000E-45
8.28030E-01 1.00000E-45
8.31310E-01 1.00000E-45
8.34565E-01 1.00000E-45
8.37795E-01 1.00000E-45
8.40999E-01 1.00000E-45
8.44177E-01 1.00000E-45
8.47329E-01 1.00000E-45
8.50455E-01 1.00000E-45
8.53553E-01 1.00000E-45
8.56625E-01 1.00000E-45
8.59670E-01 1.00000E-45
8.62687E-01 1.00000E-45
8.65677E-01 1.00000E-45
8.68639E-01 1.00000E-45
8.71572E-01 1.00000E-45
8.74478E-01 1.00000E-45
8.77355E-01 1.00000E-45
8.80203E-01 1.00000E-45
8.83022E-01 1.00000E-45
8.85812E-01 1.00000E-45
8.88573E-01 1.00000E-45
8.91304E-01 1.00000E-45
8.94005E-01 1.00000E-45
8.96677E-01 1.00000E-45
8.99318E-01 1.00000E-45
9.01928E-01 1.00000E-45
9.04508E-01 1.00000E-45
9.07058E-01 1.00000E-45
9.09576E-01 1.00000E-45
9.12063E-01 1.00000E-45
9.14519E-01 1.00000E-45
9.16943E-01 1.00000E-45
9.19335E-01 1.00000E-45
9.21696E-01 1.00000E-45
9.24024E-01 1.00000E-45
9.26320E-01 1.00000E-45
9.28584E-01 1.00000E-45
9.30815E-01 1.00000E-45
9.33013E-01 1.00000E-45
9.35178E-01 1.00000E-45
9.37310E-01 1.00000E-45
9.39409E-01 1.00000E-45
9.41474E-01 1.00000E-45
9.43505E-01 1.00000E-45
9.45503E-01 1.00000E-45
9.47467E-01 1.00000E-45
9.49397E-01 1.00000E-45
9.51293E-01 1.00000E-45
9.53154E-01 1.00000E-45
9.54981E-01 1.00000E-45
9.56773E-01 1.00000E-45
9.58530E-01 1.00000E-45
9.60252E-01 1.00000E-45
9.61940E-01 1.00000E-45
9.63592E-01 1.00000E-45
9.65209E-01 1.00000E-45
9.66790E-01 1.00000E-45
9.68336E-01 1.00000E-45
9.69846E-01 1.00000E-45
9.71321E-01 1.00000E-45
9.72759E-01 1.00000E-45
9.74162E-01 1.00000E-45
9.75528E-01 1.00000E-45
9.76858E-01 1.00000E-45
9.78152E-01 1.00000E-45
9.79410E-01 1.00000E-45
9.80631E-01 1.00000E-45
9.81815E-01 1.00000E-45
9.82963E-01 1.00000E-45
9.84074E-01 1.00000E-45
9.85148E-01 1.00000E-45
9.86185E-01 1.00000E-45
9.87185E-01 1.00000E-45
9.88148E-01 1.00000E-45
9.89074E-01 1.00000E-45
9.89962E-01 1.00000E-45
9.90814E-01 1.00000E-45
9.91627E-01 1.00000E-45
9.92404E-01 1.00000E-45
9.93143E-01 1.00000E-45
9.93844E-01 1.00000E-45
9.94508E-01 1.00000E-45
9.95134E-01 1.00000E-45
9.95722E-01 1.00000E-45
9.96273E-01 1.00000E-45
9.96786E-01 1.00000E-45
9.97261E-01 1.00000E-45
9.97698E-01 1.00000E-45
9.98097E-01 1.00000E-45
9.98459E-01 1.00000E-45
9.98782E-01 1.00000E-45
9.99067E-01 1.00000E-45
9.99315E-01 1.00000E-45
9.99524E-01 1.00000E-45
9.99695E-01 1.00000E-45
9.99829E-01 1.00000E-45
9.99924E-01 1.00000E-45
9.99981E-01 1.00000E-45
1.00000E+00 1.00000E-45
