 #
 # Subroutine ELSEPA. Elastic scattering of electrons and positrons
 #                    by neutral atoms and positive ions
 #
 # Projectile: positron
 # Kinetic energy = 3.00000E+07 eV = 1.10248E+06 a.u.
 #
 # WARNING: High-energy factorization with free-atom DF screening.
 #          Absorption, polarization and exchange corrections are
 #          switched off.
 #          Phase shifts are calculated for the bare nucleus.
 #          Scattering amplitudes are not evaluated.
 #
 # Element: As,  Z =  33,  atomic weight = 7.49216E+01 g/mol
 #
 # Nuclear model: Fermi distribution
 #                Average radius = 4.51079E-13 cm
 #                Skin thickness = 5.46000E-14 cm
 #
 # Number of electrons = 33
 #
 # Total elastic cross section = 2.48767E-18 cm**2 = 8.88364E-02 a0**2
 # 1st transport cross section = 2.09718E-24 cm**2 = 7.48915E-08 a0**2
 # 2nd transport cross section = 6.12021E-24 cm**2 = 2.18557E-07 a0**2
 #
 #
 # Differential cross section:                       MU=(1-COS(THETA))/2
 #
 #  THETA        MU          DCS          DCS        Sherman      error
 #  (deg)                 (cm**2/sr)   (a0**2/sr)    function
 #----------------------------------------------------------------------
0.00000E+00 1.89265E-11
7.61557E-13 1.89227E-11
1.18994E-12 1.89206E-11
1.71346E-12 1.89180E-11
2.33225E-12 1.89149E-11
3.04617E-12 1.89114E-11
3.85530E-12 1.89074E-11
4.75964E-12 1.89029E-11
5.75917E-12 1.88980E-11
6.85391E-12 1.88926E-11
8.04379E-12 1.88868E-11
9.32893E-12 1.88804E-11
1.07092E-11 1.88736E-11
1.21847E-11 1.88664E-11
1.37554E-11 1.88587E-11
1.54213E-11 1.88505E-11
1.71823E-11 1.88419E-11
1.90386E-11 1.88328E-11
2.09900E-11 1.88232E-11
2.30367E-11 1.88132E-11
2.51785E-11 1.88028E-11
2.74156E-11 1.87919E-11
2.97478E-11 1.87805E-11
3.21752E-11 1.87687E-11
3.46979E-11 1.87564E-11
3.73157E-11 1.87437E-11
4.00286E-11 1.87305E-11
4.28368E-11 1.87169E-11
4.57402E-11 1.87028E-11
4.87388E-11 1.86883E-11
5.18325E-11 1.86734E-11
5.50215E-11 1.86580E-11
5.83057E-11 1.86421E-11
6.16850E-11 1.86259E-11
6.51595E-11 1.86092E-11
6.87293E-11 1.85920E-11
7.23943E-11 1.85745E-11
7.61544E-11 1.85565E-11
1.18991E-10 1.83534E-11
1.71347E-10 1.81098E-11
2.33223E-10 1.78282E-11
3.04617E-10 1.75093E-11
3.85531E-10 1.71632E-11
4.75965E-10 1.67831E-11
5.75917E-10 1.63827E-11
6.85389E-10 1.59573E-11
8.04380E-10 1.55163E-11
9.32891E-10 1.50605E-11
1.07092E-09 1.45924E-11
1.21847E-09 1.41202E-11
1.37554E-09 1.36376E-11
1.54213E-09 1.31612E-11
1.71823E-09 1.26759E-11
1.90386E-09 1.22013E-11
2.09900E-09 1.17270E-11
2.30367E-09 1.12629E-11
2.51785E-09 1.08070E-11
2.74156E-09 1.03601E-11
2.97478E-09 9.92784E-12
3.21752E-09 9.50310E-12
3.46978E-09 9.09748E-12
3.73156E-09 8.69852E-12
4.00286E-09 8.31884E-12
4.28368E-09 7.95014E-12
4.57402E-09 7.59774E-12
4.87388E-09 7.25933E-12
5.18326E-09 6.93454E-12
5.50215E-09 6.62563E-12
5.83057E-09 6.32801E-12
6.16850E-09 6.04704E-12
6.51596E-09 5.77579E-12
6.87293E-09 5.51989E-12
7.23942E-09 5.27479E-12
7.61544E-09 5.04248E-12
1.18991E-08 3.27036E-12
1.71347E-08 2.21333E-12
2.33223E-08 1.56705E-12
3.04617E-08 1.14441E-12
3.85531E-08 8.75775E-13
4.75965E-08 6.75296E-13
5.75917E-08 5.36236E-13
6.85389E-08 4.27789E-13
8.04380E-08 3.46392E-13
9.32891E-08 2.82203E-13
1.07092E-07 2.31265E-13
1.21847E-07 1.91199E-13
1.37554E-07 1.58221E-13
1.54213E-07 1.32337E-13
1.71823E-07 1.10587E-13
1.90386E-07 9.32870E-14
2.09900E-07 7.88943E-14
2.30367E-07 6.71616E-14
2.51785E-07 5.74319E-14
2.74156E-07 4.93553E-14
2.97478E-07 4.26432E-14
3.21752E-07 3.69939E-14
3.46978E-07 3.22704E-14
3.73156E-07 2.82527E-14
4.00286E-07 2.48588E-14
4.28368E-07 2.19567E-14
4.57402E-07 1.94753E-14
4.87388E-07 1.73394E-14
5.18325E-07 1.54935E-14
5.50215E-07 1.38934E-14
5.83057E-07 1.24978E-14
6.16850E-07 1.12796E-14
6.51596E-07 1.02059E-14
6.87293E-07 9.26165E-15
7.23942E-07 8.42572E-15
7.61543E-07 7.68472E-15
1.18991E-06 3.41142E-15
1.71347E-06 1.73936E-15
2.33223E-06 9.72875E-16
3.04617E-06 5.82893E-16
3.85531E-06 3.69133E-16
4.75964E-06 2.44733E-16
5.75916E-06 1.68484E-16
6.85388E-06 1.19763E-16
8.04378E-06 8.74722E-17
9.32888E-06 6.53825E-17
1.07092E-05 4.98626E-17
1.21846E-05 3.86940E-17
1.37553E-05 3.04897E-17
1.54212E-05 2.43528E-17
1.71822E-05 1.96855E-17
1.90385E-05 1.60841E-17
2.09899E-05 1.32732E-17
2.30365E-05 1.10498E-17
2.51783E-05 9.27237E-18
2.74153E-05 7.83738E-18
2.97475E-05 6.66915E-18
3.21749E-05 5.71045E-18
3.46974E-05 4.91783E-18
3.73152E-05 4.25813E-18
4.00281E-05 3.70535E-18
4.28362E-05 3.23937E-18
4.57395E-05 2.84428E-18
4.87380E-05 2.50747E-18
5.18317E-05 2.21895E-18
5.50205E-05 1.97064E-18
5.83045E-05 1.75604E-18
6.16838E-05 1.56984E-18
6.51582E-05 1.40764E-18
6.87277E-05 1.26585E-18
7.23925E-05 1.14146E-18
7.61524E-05 1.03197E-18
9.21439E-05 7.05716E-19
1.09658E-04 4.98652E-19
1.28695E-04 3.62204E-19
1.49255E-04 2.69339E-19
1.71338E-04 2.04397E-19
1.94942E-04 1.57880E-19
2.20070E-04 1.23863E-19
2.46720E-04 9.85259E-20
2.74892E-04 7.93415E-20
3.04586E-04 6.46038E-20
3.35803E-04 5.31306E-20
3.68542E-04 4.40928E-20
4.02802E-04 3.68955E-20
4.38585E-04 3.11069E-20
4.75889E-04 2.64092E-20
5.14715E-04 2.25647E-20
5.55063E-04 1.93942E-20
5.96931E-04 1.67608E-20
6.40321E-04 1.45590E-20
6.85233E-04 1.27068E-20
7.31665E-04 1.11395E-20
7.79618E-04 9.80629E-21
8.29092E-04 8.66639E-21
8.80086E-04 7.68718E-21
9.32601E-04 6.84223E-21
9.86636E-04 6.11007E-21
1.04219E-03 5.47312E-21
1.09927E-03 4.91691E-21
1.15786E-03 4.42948E-21
1.21797E-03 4.00087E-21
1.27961E-03 3.62278E-21
1.34276E-03 3.28824E-21
1.40743E-03 2.99136E-21
1.47362E-03 2.72718E-21
1.54133E-03 2.49147E-21
1.61056E-03 2.28064E-21
1.68131E-03 2.09159E-21
1.75357E-03 1.92170E-21
1.82735E-03 1.76867E-21
1.90265E-03 1.63054E-21
1.97947E-03 1.50560E-21
2.05780E-03 1.39238E-21
2.13765E-03 1.28958E-21
2.21902E-03 1.19607E-21
2.30190E-03 1.11086E-21
2.38630E-03 1.03309E-21
2.47222E-03 9.61990E-22
2.55965E-03 8.96886E-22
2.64859E-03 8.37183E-22
2.73905E-03 7.82352E-22
2.83103E-03 7.31927E-22
2.92452E-03 6.85486E-22
3.01952E-03 6.42663E-22
3.11604E-03 6.03120E-22
3.21407E-03 5.66564E-22
3.31362E-03 5.32728E-22
3.41468E-03 5.01372E-22
3.51725E-03 4.72284E-22
3.62133E-03 4.45267E-22
3.72692E-03 4.20149E-22
3.83403E-03 3.96771E-22
3.94265E-03 3.74992E-22
4.05278E-03 3.54682E-22
4.16442E-03 3.35723E-22
4.27757E-03 3.18011E-22
4.39223E-03 3.01446E-22
4.50840E-03 2.85943E-22
4.62608E-03 2.71420E-22
4.74527E-03 2.57804E-22
4.86597E-03 2.45028E-22
4.98817E-03 2.33031E-22
5.11188E-03 2.21756E-22
5.23711E-03 2.11152E-22
5.36383E-03 2.01173E-22
5.49207E-03 1.91773E-22
5.62181E-03 1.82914E-22
5.75306E-03 1.74559E-22
5.88581E-03 1.66673E-22
6.02007E-03 1.59225E-22
6.15583E-03 1.52188E-22
6.29310E-03 1.45533E-22
6.43187E-03 1.39236E-22
6.57214E-03 1.33275E-22
6.71392E-03 1.27628E-22
6.85720E-03 1.22275E-22
7.00198E-03 1.17199E-22
7.14827E-03 1.12383E-22
7.29605E-03 1.07810E-22
7.44534E-03 1.03466E-22
7.59612E-03 9.93380E-23
7.97965E-03 8.98795E-23
8.37255E-03 8.15151E-23
8.77480E-03 7.40970E-23
9.18641E-03 6.74997E-23
9.60736E-03 6.16169E-23
1.00376E-02 5.63581E-23
1.04773E-02 5.16454E-23
1.09262E-02 4.74128E-23
1.13844E-02 4.36024E-23
1.18520E-02 4.01651E-23
1.23288E-02 3.70580E-23
1.28150E-02 3.42438E-23
1.33104E-02 3.16901E-23
1.38150E-02 2.93686E-23
1.43290E-02 2.72544E-23
1.48521E-02 2.53259E-23
1.53845E-02 2.35638E-23
1.59262E-02 2.19513E-23
1.64770E-02 2.04734E-23
1.70371E-02 1.91170E-23
1.76063E-02 1.78702E-23
1.81848E-02 1.67227E-23
1.87724E-02 1.56651E-23
1.93692E-02 1.46892E-23
1.99751E-02 1.37875E-23
2.05901E-02 1.29534E-23
2.12143E-02 1.21809E-23
2.18476E-02 1.14646E-23
2.24900E-02 1.07998E-23
2.31415E-02 1.01821E-23
2.38021E-02 9.60748E-24
2.44717E-02 9.07249E-24
2.51504E-02 8.57389E-24
2.58382E-02 8.10875E-24
2.65349E-02 7.67443E-24
2.72407E-02 7.26852E-24
2.79555E-02 6.88883E-24
2.86793E-02 6.53337E-24
2.94120E-02 6.20031E-24
3.01537E-02 5.88798E-24
3.09043E-02 5.59487E-24
3.16639E-02 5.31957E-24
3.24324E-02 5.06082E-24
3.32098E-02 4.81744E-24
3.39961E-02 4.58835E-24
3.47912E-02 4.37256E-24
3.55952E-02 4.16916E-24
3.64081E-02 3.97731E-24
3.72297E-02 3.79624E-24
3.80602E-02 3.62524E-24
3.88995E-02 3.46364E-24
3.97476E-02 3.31082E-24
4.06044E-02 3.16624E-24
4.14700E-02 3.02937E-24
4.23443E-02 2.89971E-24
4.32273E-02 2.77682E-24
4.41190E-02 2.66029E-24
4.50194E-02 2.54973E-24
4.59284E-02 2.44477E-24
4.68461E-02 2.34508E-24
4.87074E-02 2.16028E-24
5.06030E-02 1.99309E-24
5.25328E-02 1.84153E-24
5.44967E-02 1.70390E-24
5.64946E-02 1.57870E-24
5.85262E-02 1.46461E-24
6.05914E-02 1.36048E-24
6.26901E-02 1.26530E-24
6.48222E-02 1.17816E-24
6.69873E-02 1.09827E-24
6.91854E-02 1.02491E-24
7.14163E-02 9.57475E-25
7.36799E-02 8.95392E-25
7.59760E-02 8.38166E-25
7.83043E-02 7.85353E-25
8.06647E-02 7.36553E-25
8.30571E-02 6.91410E-25
8.54812E-02 6.49602E-25
8.79369E-02 6.10841E-25
9.04240E-02 5.74866E-25
9.29422E-02 5.41444E-25
9.54915E-02 5.10361E-25
9.80716E-02 4.81426E-25
1.00682E-01 4.54465E-25
1.03323E-01 4.29321E-25
1.05995E-01 4.05849E-25
1.08696E-01 3.83920E-25
1.11427E-01 3.63415E-25
1.14188E-01 3.44226E-25
1.16978E-01 3.26253E-25
1.19797E-01 3.09407E-25
1.22645E-01 2.93604E-25
1.25522E-01 2.78769E-25
1.28428E-01 2.64833E-25
1.31361E-01 2.51732E-25
1.34323E-01 2.39407E-25
1.37313E-01 2.27805E-25
1.40330E-01 2.16875E-25
1.43375E-01 2.06573E-25
1.46447E-01 1.96856E-25
1.49545E-01 1.87685E-25
1.52671E-01 1.79025E-25
1.55823E-01 1.70841E-25
1.59001E-01 1.63104E-25
1.62205E-01 1.55785E-25
1.65435E-01 1.48858E-25
1.68690E-01 1.42297E-25
1.71970E-01 1.36081E-25
1.75276E-01 1.30188E-25
1.78606E-01 1.24598E-25
1.81961E-01 1.19294E-25
1.85340E-01 1.14258E-25
1.88743E-01 1.09475E-25
1.92169E-01 1.04929E-25
1.95619E-01 1.00607E-25
1.99092E-01 9.64963E-26
2.02589E-01 9.25844E-26
2.06107E-01 8.88603E-26
2.09649E-01 8.53134E-26
2.13212E-01 8.19338E-26
2.16797E-01 7.87125E-26
2.20404E-01 7.56408E-26
2.24032E-01 7.27105E-26
2.27680E-01 6.99140E-26
2.31350E-01 6.72444E-26
2.35040E-01 6.46947E-26
2.38751E-01 6.22589E-26
2.42481E-01 5.99309E-26
2.46231E-01 5.77052E-26
2.50000E-01 5.55766E-26
2.53788E-01 5.35401E-26
2.57595E-01 5.15911E-26
2.61421E-01 4.97253E-26
2.65264E-01 4.79384E-26
2.69126E-01 4.62267E-26
2.73005E-01 4.45865E-26
2.76901E-01 4.30142E-26
2.80814E-01 4.15066E-26
2.84744E-01 4.00607E-26
2.88691E-01 3.86734E-26
2.92653E-01 3.73421E-26
2.96632E-01 3.60641E-26
3.00625E-01 3.48370E-26
3.04634E-01 3.36583E-26
3.08658E-01 3.25259E-26
3.12697E-01 3.14377E-26
3.16749E-01 3.03916E-26
3.20816E-01 2.93858E-26
3.24896E-01 2.84186E-26
3.28990E-01 2.74880E-26
3.33097E-01 2.65927E-26
3.37216E-01 2.57310E-26
3.41348E-01 2.49014E-26
3.45492E-01 2.41026E-26
3.49647E-01 2.33333E-26
3.53814E-01 2.25922E-26
3.57992E-01 2.18781E-26
3.62181E-01 2.11898E-26
3.66381E-01 2.05264E-26
3.70590E-01 1.98867E-26
3.74810E-01 1.92697E-26
3.79039E-01 1.86747E-26
3.83277E-01 1.81005E-26
3.87524E-01 1.75465E-26
3.91780E-01 1.70118E-26
3.96044E-01 1.64955E-26
4.00316E-01 1.59971E-26
4.04596E-01 1.55157E-26
4.08882E-01 1.50508E-26
4.13176E-01 1.46016E-26
4.17476E-01 1.41675E-26
4.21783E-01 1.37480E-26
4.26095E-01 1.33425E-26
4.30413E-01 1.29504E-26
4.34737E-01 1.25713E-26
4.39065E-01 1.22047E-26
4.43398E-01 1.18500E-26
4.47736E-01 1.15069E-26
4.52077E-01 1.11749E-26
4.56422E-01 1.08536E-26
4.60770E-01 1.05426E-26
4.65122E-01 1.02415E-26
4.69476E-01 9.95000E-27
4.73832E-01 9.66770E-27
4.78190E-01 9.39427E-27
4.82550E-01 9.12940E-27
4.86912E-01 8.87279E-27
4.91274E-01 8.62415E-27
4.95637E-01 8.38318E-27
5.00000E-01 8.14962E-27
5.04363E-01 7.92321E-27
5.08726E-01 7.70370E-27
5.13088E-01 7.49085E-27
5.17450E-01 7.28443E-27
5.21810E-01 7.08422E-27
5.26168E-01 6.89001E-27
5.30524E-01 6.70158E-27
5.34878E-01 6.51876E-27
5.39230E-01 6.34134E-27
5.43578E-01 6.16915E-27
5.47923E-01 6.00200E-27
5.52264E-01 5.83974E-27
5.56602E-01 5.68220E-27
5.60935E-01 5.52923E-27
5.65263E-01 5.38067E-27
5.69587E-01 5.23638E-27
5.73905E-01 5.09623E-27
5.78217E-01 4.96007E-27
5.82524E-01 4.82778E-27
5.86824E-01 4.69924E-27
5.91118E-01 4.57432E-27
5.95404E-01 4.45291E-27
5.99684E-01 4.33490E-27
6.03956E-01 4.22018E-27
6.08220E-01 4.10866E-27
6.12476E-01 4.00021E-27
6.16723E-01 3.89476E-27
6.20961E-01 3.79221E-27
6.25190E-01 3.69247E-27
6.29410E-01 3.59545E-27
6.33619E-01 3.50108E-27
6.37819E-01 3.40926E-27
6.42008E-01 3.31992E-27
6.46186E-01 3.23299E-27
6.50353E-01 3.14839E-27
6.54508E-01 3.06606E-27
6.58652E-01 2.98592E-27
6.62784E-01 2.90791E-27
6.66903E-01 2.83197E-27
6.71010E-01 2.75804E-27
6.75104E-01 2.68605E-27
6.79184E-01 2.61595E-27
6.83251E-01 2.54769E-27
6.87303E-01 2.48121E-27
6.91342E-01 2.41646E-27
6.95366E-01 2.35339E-27
6.99375E-01 2.29195E-27
7.03368E-01 2.23210E-27
7.07347E-01 2.17378E-27
7.11309E-01 2.11696E-27
7.15256E-01 2.06160E-27
7.19186E-01 2.00765E-27
7.23099E-01 1.95507E-27
7.26995E-01 1.90382E-27
7.30874E-01 1.85387E-27
7.34736E-01 1.80519E-27
7.38579E-01 1.75773E-27
7.42405E-01 1.71146E-27
7.46212E-01 1.66635E-27
7.50000E-01 1.62237E-27
7.53769E-01 1.57949E-27
7.57519E-01 1.53767E-27
7.61249E-01 1.49689E-27
7.64960E-01 1.45713E-27
7.68650E-01 1.41834E-27
7.72320E-01 1.38052E-27
7.75968E-01 1.34362E-27
7.79596E-01 1.30763E-27
7.83203E-01 1.27253E-27
7.86788E-01 1.23828E-27
7.90351E-01 1.20487E-27
7.93893E-01 1.17228E-27
7.97411E-01 1.14048E-27
8.00908E-01 1.10945E-27
8.04381E-01 1.07918E-27
8.07831E-01 1.04964E-27
8.11257E-01 1.02081E-27
8.14660E-01 9.92686E-28
8.18039E-01 9.65237E-28
8.21394E-01 9.38450E-28
8.24724E-01 9.12307E-28
8.28030E-01 8.86794E-28
8.31310E-01 8.61893E-28
8.34565E-01 8.37591E-28
8.37795E-01 8.13871E-28
8.40999E-01 7.90719E-28
8.44177E-01 7.68123E-28
8.47329E-01 7.46067E-28
8.50455E-01 7.24538E-28
8.53553E-01 7.03525E-28
8.56625E-01 6.83014E-28
8.59670E-01 6.62993E-28
8.62687E-01 6.43450E-28
8.65677E-01 6.24375E-28
8.68639E-01 6.05755E-28
8.71572E-01 5.87581E-28
8.74478E-01 5.69841E-28
8.77355E-01 5.52526E-28
8.80203E-01 5.35626E-28
8.83022E-01 5.19130E-28
8.85812E-01 5.03030E-28
8.88573E-01 4.87316E-28
8.91304E-01 4.71980E-28
8.94005E-01 4.57014E-28
8.96677E-01 4.42407E-28
8.99318E-01 4.28154E-28
9.01928E-01 4.14245E-28
9.04508E-01 4.00674E-28
9.07058E-01 3.87432E-28
9.09576E-01 3.74513E-28
9.12063E-01 3.61909E-28
9.14519E-01 3.49613E-28
9.16943E-01 3.37620E-28
9.19335E-01 3.25922E-28
9.21696E-01 3.14513E-28
9.24024E-01 3.03387E-28
9.26320E-01 2.92539E-28
9.28584E-01 2.81962E-28
9.30815E-01 2.71651E-28
9.33013E-01 2.61600E-28
9.35178E-01 2.51804E-28
9.37310E-01 2.42259E-28
9.39409E-01 2.32959E-28
9.41474E-01 2.23899E-28
9.43505E-01 2.15074E-28
9.45503E-01 2.06480E-28
9.47467E-01 1.98113E-28
9.49397E-01 1.89969E-28
9.51293E-01 1.82042E-28
9.53154E-01 1.74330E-28
9.54981E-01 1.66827E-28
9.56773E-01 1.59532E-28
9.58530E-01 1.52438E-28
9.60252E-01 1.45544E-28
9.61940E-01 1.38846E-28
9.63592E-01 1.32339E-28
9.65209E-01 1.26022E-28
9.66790E-01 1.19891E-28
9.68336E-01 1.13942E-28
9.69846E-01 1.08174E-28
9.71321E-01 1.02582E-28
9.72759E-01 9.71645E-29
9.74162E-01 9.19187E-29
9.75528E-01 8.68419E-29
9.76858E-01 8.19315E-29
9.78152E-01 7.71853E-29
9.79410E-01 7.26009E-29
9.80631E-01 6.81760E-29
9.81815E-01 6.39085E-29
9.82963E-01 5.97963E-29
9.84074E-01 5.58374E-29
9.85148E-01 5.20300E-29
9.86185E-01 4.83721E-29
9.87185E-01 4.48620E-29
9.88148E-01 4.14981E-29
9.89074E-01 3.82786E-29
9.89962E-01 3.52021E-29
9.90814E-01 3.22670E-29
9.91627E-01 2.94721E-29
9.92404E-01 2.68158E-29
9.93143E-01 2.42970E-29
9.93844E-01 2.19145E-29
9.94508E-01 1.96671E-29
9.95134E-01 1.75538E-29
9.95722E-01 1.55735E-29
9.96273E-01 1.37253E-29
9.96786E-01 1.20084E-29
9.97261E-01 1.04219E-29
9.97698E-01 8.96502E-30
9.98097E-01 7.63715E-30
9.98459E-01 6.43762E-30
9.98782E-01 5.36588E-30
9.99067E-01 4.42141E-30
9.99315E-01 3.60377E-30
9.99524E-01 2.91257E-30
9.99695E-01 2.34749E-30
9.99829E-01 1.90826E-30
9.99924E-01 1.59467E-30
9.99981E-01 1.40657E-30
1.00000E+00 1.34388E-30
