 #
 # Subroutine ELSEPA. Elastic scattering of electrons and positrons
 #                    by neutral atoms and positive ions
 #
 # Projectile: positron
 # Kinetic energy = 1.00000E+08 eV = 3.67493E+06 a.u.
 #
 # WARNING: High-energy factorization with free-atom DF screening.
 #          Absorption, polarization and exchange corrections are
 #          switched off.
 #          Phase shifts are calculated for the bare nucleus.
 #          Scattering amplitudes are not evaluated.
 #
 # Element: As,  Z =  33,  atomic weight = 7.49216E+01 g/mol
 #
 # Nuclear model: Fermi distribution
 #                Average radius = 4.51079E-13 cm
 #                Skin thickness = 5.46000E-14 cm
 #
 # Number of electrons = 33
 #
 # Total elastic cross section = 2.48620E-18 cm**2 = 8.87837E-02 a0**2
 # 1st transport cross section = 2.13785E-25 cm**2 = 7.63442E-09 a0**2
 # 2nd transport cross section = 6.34920E-25 cm**2 = 2.26734E-08 a0**2
 #
 #
 # Differential cross section:                       MU=(1-COS(THETA))/2
 #
 #  THETA        MU          DCS          DCS        Sherman      error
 #  (deg)                 (cm**2/sr)   (a0**2/sr)    function
 #----------------------------------------------------------------------
0.00000E+00 2.05393E-10
7.61557E-13 2.04950E-10
1.18994E-12 2.04702E-10
1.71346E-12 2.04399E-10
2.33225E-12 2.04043E-10
3.04617E-12 2.03633E-10
3.85530E-12 2.03170E-10
4.75964E-12 2.02655E-10
5.75917E-12 2.02087E-10
6.85391E-12 2.01469E-10
8.04379E-12 2.00800E-10
9.32893E-12 2.00081E-10
1.07092E-11 1.99314E-10
1.21847E-11 1.98499E-10
1.37554E-11 1.97636E-10
1.54213E-11 1.96728E-10
1.71823E-11 1.95775E-10
1.90386E-11 1.94778E-10
2.09900E-11 1.93738E-10
2.30367E-11 1.92654E-10
2.51785E-11 1.91518E-10
2.74156E-11 1.90349E-10
2.97478E-11 1.89149E-10
3.21752E-11 1.87920E-10
3.46979E-11 1.86663E-10
3.73157E-11 1.85349E-10
4.00286E-11 1.83997E-10
4.28368E-11 1.82622E-10
4.57402E-11 1.81227E-10
4.87388E-11 1.79814E-10
5.18325E-11 1.78370E-10
5.50215E-11 1.76866E-10
5.83057E-11 1.75350E-10
6.16850E-11 1.73821E-10
6.51595E-11 1.72283E-10
6.87293E-11 1.70737E-10
7.23943E-11 1.69130E-10
7.61544E-11 1.67505E-10
1.18991E-10 1.50769E-10
1.71347E-10 1.33630E-10
2.33223E-10 1.16979E-10
3.04617E-10 1.01531E-10
3.85531E-10 8.76432E-11
4.75965E-10 7.54413E-11
5.75917E-10 6.48972E-11
6.85389E-10 5.58879E-11
8.04380E-10 4.82379E-11
9.32891E-10 4.17859E-11
1.07092E-09 3.63533E-11
1.21847E-09 3.17774E-11
1.37554E-09 2.79161E-11
1.54213E-09 2.46474E-11
1.71823E-09 2.18679E-11
1.90386E-09 1.94961E-11
2.09900E-09 1.74621E-11
2.30367E-09 1.56946E-11
2.51785E-09 1.41110E-11
2.74156E-09 1.27632E-11
2.97478E-09 1.16093E-11
3.21752E-09 1.06157E-11
3.46978E-09 9.75537E-12
3.73156E-09 8.93325E-12
4.00286E-09 8.18883E-12
4.28368E-09 7.53843E-12
4.57402E-09 6.96761E-12
4.87388E-09 6.46447E-12
5.18326E-09 6.00302E-12
5.50215E-09 5.54720E-12
5.83057E-09 5.14292E-12
6.16850E-09 4.78308E-12
6.51596E-09 4.46169E-12
6.87293E-09 4.17371E-12
7.23942E-09 3.88517E-12
7.61544E-09 3.61841E-12
1.18991E-08 1.89728E-12
1.71347E-08 1.05402E-12
2.33223E-08 6.17470E-13
3.04617E-08 3.82174E-13
3.85531E-08 2.48729E-13
4.75965E-08 1.69186E-13
5.75917E-08 1.19493E-13
6.85389E-08 8.70483E-14
8.04380E-08 6.50775E-14
9.32891E-08 4.97090E-14
1.07092E-07 3.86512E-14
1.21847E-07 3.05070E-14
1.37554E-07 2.43929E-14
1.54213E-07 1.97278E-14
1.71823E-07 1.61161E-14
1.90386E-07 1.32860E-14
2.09900E-07 1.10435E-14
2.30367E-07 9.24770E-15
2.51785E-07 7.79559E-15
2.74156E-07 6.62303E-15
2.97478E-07 5.65432E-15
3.21752E-07 4.85887E-15
3.46978E-07 4.19554E-15
3.73156E-07 3.64198E-15
4.00286E-07 3.17607E-15
4.28368E-07 2.78217E-15
4.57402E-07 2.44746E-15
4.87388E-07 2.16131E-15
5.18325E-07 1.91601E-15
5.50215E-07 1.70432E-15
5.83057E-07 1.52133E-15
6.16850E-07 1.36207E-15
6.51596E-07 1.22331E-15
6.87293E-07 1.10169E-15
7.23942E-07 9.94936E-16
7.61543E-07 9.00796E-16
1.18991E-06 3.75034E-16
1.71347E-06 1.83109E-16
2.33223E-06 9.97469E-17
3.04617E-06 5.88579E-17
3.85531E-06 3.69213E-17
4.75964E-06 2.43084E-17
5.75916E-06 1.66453E-17
6.85388E-06 1.17749E-17
8.04378E-06 8.56085E-18
9.32888E-06 6.37144E-18
1.07092E-05 4.83873E-18
1.21846E-05 3.74008E-18
1.37553E-05 2.93606E-18
1.54212E-05 2.33681E-18
1.71822E-05 1.88284E-18
1.90385E-05 1.53372E-18
2.09899E-05 1.26217E-18
2.30365E-05 1.04807E-18
2.51783E-05 8.77421E-19
2.74153E-05 7.40066E-19
2.97475E-05 6.28529E-19
3.21749E-05 5.37223E-19
3.46974E-05 4.61916E-19
3.73152E-05 3.99363E-19
4.00281E-05 3.47057E-19
4.28362E-05 3.03042E-19
4.57395E-05 2.65786E-19
4.87380E-05 2.34076E-19
5.18317E-05 2.06950E-19
5.50205E-05 1.83637E-19
5.83045E-05 1.63512E-19
6.16838E-05 1.46070E-19
6.51582E-05 1.30893E-19
6.87277E-05 1.17638E-19
7.23925E-05 1.06019E-19
7.61524E-05 9.58072E-20
9.21439E-05 6.54090E-20
1.09658E-04 4.61605E-20
1.28695E-04 3.34982E-20
1.49255E-04 2.48918E-20
1.71338E-04 1.88794E-20
1.94942E-04 1.45762E-20
2.20070E-04 1.14314E-20
2.46720E-04 9.09021E-21
2.74892E-04 7.31833E-21
3.04586E-04 5.95759E-21
3.35803E-04 4.89860E-21
3.68542E-04 4.06458E-21
4.02802E-04 3.40057E-21
4.38585E-04 2.86661E-21
4.75889E-04 2.43336E-21
5.14715E-04 2.07884E-21
5.55063E-04 1.78651E-21
5.96931E-04 1.54373E-21
6.40321E-04 1.34077E-21
6.85233E-04 1.17004E-21
7.31665E-04 1.02559E-21
7.79618E-04 9.02727E-22
8.29092E-04 7.97689E-22
8.80086E-04 7.07462E-22
9.32601E-04 6.29615E-22
9.86636E-04 5.62164E-22
1.04219E-03 5.03487E-22
1.09927E-03 4.52253E-22
1.15786E-03 4.07358E-22
1.21797E-03 3.67884E-22
1.27961E-03 3.33064E-22
1.34276E-03 3.02257E-22
1.40743E-03 2.74921E-22
1.47362E-03 2.50597E-22
1.54133E-03 2.28897E-22
1.61056E-03 2.09488E-22
1.68131E-03 1.92087E-22
1.75357E-03 1.76449E-22
1.82735E-03 1.62365E-22
1.90265E-03 1.49654E-22
1.97947E-03 1.38157E-22
2.05780E-03 1.27740E-22
2.13765E-03 1.18282E-22
2.21902E-03 1.09680E-22
2.30190E-03 1.01842E-22
2.38630E-03 9.46896E-23
2.47222E-03 8.81510E-23
2.55965E-03 8.21645E-23
2.64859E-03 7.66752E-23
2.73905E-03 7.16344E-23
2.83103E-03 6.69991E-23
2.92452E-03 6.27307E-23
3.01952E-03 5.87951E-23
3.11604E-03 5.51616E-23
3.21407E-03 5.18028E-23
3.31362E-03 4.86944E-23
3.41468E-03 4.58143E-23
3.51725E-03 4.31427E-23
3.62133E-03 4.06617E-23
3.72692E-03 3.83554E-23
3.83403E-03 3.62093E-23
3.94265E-03 3.42101E-23
4.05278E-03 3.23461E-23
4.16442E-03 3.06064E-23
4.27757E-03 2.89813E-23
4.39223E-03 2.74618E-23
4.50840E-03 2.60398E-23
4.62608E-03 2.47079E-23
4.74527E-03 2.34595E-23
4.86597E-03 2.22882E-23
4.98817E-03 2.11886E-23
5.11188E-03 2.01553E-23
5.23711E-03 1.91838E-23
5.36383E-03 1.82695E-23
5.49207E-03 1.74086E-23
5.62181E-03 1.65973E-23
5.75306E-03 1.58323E-23
5.88581E-03 1.51104E-23
6.02007E-03 1.44288E-23
6.15583E-03 1.37848E-23
6.29310E-03 1.31760E-23
6.43187E-03 1.26001E-23
6.57214E-03 1.20549E-23
6.71392E-03 1.15387E-23
6.85720E-03 1.10494E-23
7.00198E-03 1.05855E-23
7.14827E-03 1.01454E-23
7.29605E-03 9.72772E-24
7.44534E-03 9.33103E-24
7.59612E-03 8.95411E-24
7.97965E-03 8.09087E-24
8.37255E-03 7.32796E-24
8.77480E-03 6.65178E-24
9.18641E-03 6.05083E-24
9.60736E-03 5.51532E-24
1.00376E-02 5.03694E-24
1.04773E-02 4.60857E-24
1.09262E-02 4.22410E-24
1.13844E-02 3.87826E-24
1.18520E-02 3.56653E-24
1.23288E-02 3.28497E-24
1.28150E-02 3.03017E-24
1.33104E-02 2.79915E-24
1.38150E-02 2.58933E-24
1.43290E-02 2.39841E-24
1.48521E-02 2.22443E-24
1.53845E-02 2.06560E-24
1.59262E-02 1.92041E-24
1.64770E-02 1.78746E-24
1.70371E-02 1.66557E-24
1.76063E-02 1.55364E-24
1.81848E-02 1.45074E-24
1.87724E-02 1.35600E-24
1.93692E-02 1.26868E-24
1.99751E-02 1.18808E-24
2.05901E-02 1.11362E-24
2.12143E-02 1.04474E-24
2.18476E-02 9.80947E-25
2.24900E-02 9.21811E-25
2.31415E-02 8.66931E-25
2.38021E-02 8.15950E-25
2.44717E-02 7.68545E-25
2.51504E-02 7.24422E-25
2.58382E-02 6.83316E-25
2.65349E-02 6.44987E-25
2.72407E-02 6.09215E-25
2.79555E-02 5.75802E-25
2.86793E-02 5.44565E-25
2.94120E-02 5.15341E-25
3.01537E-02 4.87977E-25
3.09043E-02 4.62335E-25
3.16639E-02 4.38290E-25
3.24324E-02 4.15725E-25
3.32098E-02 3.94534E-25
3.39961E-02 3.74620E-25
3.47912E-02 3.55894E-25
3.55952E-02 3.38272E-25
3.64081E-02 3.21680E-25
3.72297E-02 3.06047E-25
3.80602E-02 2.91308E-25
3.88995E-02 2.77405E-25
3.97476E-02 2.64281E-25
4.06044E-02 2.51888E-25
4.14700E-02 2.40176E-25
4.23443E-02 2.29104E-25
4.32273E-02 2.18629E-25
4.41190E-02 2.08716E-25
4.50194E-02 1.99328E-25
4.59284E-02 1.90434E-25
4.68461E-02 1.82004E-25
4.87074E-02 1.66424E-25
5.06030E-02 1.52387E-25
5.25328E-02 1.39718E-25
5.44967E-02 1.28264E-25
5.64946E-02 1.17891E-25
5.85262E-02 1.08483E-25
6.05914E-02 9.99365E-26
6.26901E-02 9.21620E-26
6.48222E-02 8.50797E-26
6.69873E-02 7.86193E-26
6.91854E-02 7.27185E-26
7.14163E-02 6.73222E-26
7.36799E-02 6.23812E-26
7.59760E-02 5.78520E-26
7.83043E-02 5.36954E-26
8.06647E-02 4.98768E-26
8.30571E-02 4.63651E-26
8.54812E-02 4.31322E-26
8.79369E-02 4.01531E-26
9.04240E-02 3.74054E-26
9.29422E-02 3.48687E-26
9.54915E-02 3.25247E-26
9.80716E-02 3.03571E-26
1.00682E-01 2.83508E-26
1.03323E-01 2.64924E-26
1.05995E-01 2.47695E-26
1.08696E-01 2.31713E-26
1.11427E-01 2.16875E-26
1.14188E-01 2.03089E-26
1.16978E-01 1.90273E-26
1.19797E-01 1.78351E-26
1.22645E-01 1.67252E-26
1.25522E-01 1.56914E-26
1.28428E-01 1.47278E-26
1.31361E-01 1.38292E-26
1.34323E-01 1.29907E-26
1.37313E-01 1.22078E-26
1.40330E-01 1.14765E-26
1.43375E-01 1.07930E-26
1.46447E-01 1.01538E-26
1.49545E-01 9.55585E-27
1.52671E-01 8.99615E-27
1.55823E-01 8.47201E-27
1.59001E-01 7.98096E-27
1.62205E-01 7.52071E-27
1.65435E-01 7.08913E-27
1.68690E-01 6.68428E-27
1.71970E-01 6.30434E-27
1.75276E-01 5.94765E-27
1.78606E-01 5.61264E-27
1.81961E-01 5.29789E-27
1.85340E-01 5.00207E-27
1.88743E-01 4.72393E-27
1.92169E-01 4.46232E-27
1.95619E-01 4.21620E-27
1.99092E-01 3.98455E-27
2.02589E-01 3.76647E-27
2.06107E-01 3.56109E-27
2.09649E-01 3.36762E-27
2.13212E-01 3.18531E-27
2.16797E-01 3.01346E-27
2.20404E-01 2.85145E-27
2.24032E-01 2.69865E-27
2.27680E-01 2.55451E-27
2.31350E-01 2.41850E-27
2.35040E-01 2.29013E-27
2.38751E-01 2.16894E-27
2.42481E-01 2.05451E-27
2.46231E-01 1.94643E-27
2.50000E-01 1.84433E-27
2.53788E-01 1.74785E-27
2.57595E-01 1.65666E-27
2.61421E-01 1.57047E-27
2.65264E-01 1.48896E-27
2.69126E-01 1.41189E-27
2.73005E-01 1.33898E-27
2.76901E-01 1.27001E-27
2.80814E-01 1.20475E-27
2.84744E-01 1.14298E-27
2.88691E-01 1.08452E-27
2.92653E-01 1.02917E-27
2.96632E-01 9.76755E-28
3.00625E-01 9.27119E-28
3.04634E-01 8.80104E-28
3.08658E-01 8.35564E-28
3.12697E-01 7.93363E-28
3.16749E-01 7.53372E-28
3.20816E-01 7.15470E-28
3.24896E-01 6.79543E-28
3.28990E-01 6.45482E-28
3.33097E-01 6.13188E-28
3.37216E-01 5.82564E-28
3.41348E-01 5.53519E-28
3.45492E-01 5.25970E-28
3.49647E-01 4.99836E-28
3.53814E-01 4.75041E-28
3.57992E-01 4.51513E-28
3.62181E-01 4.29187E-28
3.66381E-01 4.07997E-28
3.70590E-01 3.87884E-28
3.74810E-01 3.68790E-28
3.79039E-01 3.50664E-28
3.83277E-01 3.33453E-28
3.87524E-01 3.17110E-28
3.91780E-01 3.01589E-28
3.96044E-01 2.86848E-28
4.00316E-01 2.72846E-28
4.04596E-01 2.59546E-28
4.08882E-01 2.46910E-28
4.13176E-01 2.34904E-28
4.17476E-01 2.23497E-28
4.21783E-01 2.12657E-28
4.26095E-01 2.02355E-28
4.30413E-01 1.92563E-28
4.34737E-01 1.83257E-28
4.39065E-01 1.74410E-28
4.43398E-01 1.66001E-28
4.47736E-01 1.58005E-28
4.52077E-01 1.50403E-28
4.56422E-01 1.43175E-28
4.60770E-01 1.36301E-28
4.65122E-01 1.29765E-28
4.69476E-01 1.23548E-28
4.73832E-01 1.17635E-28
4.78190E-01 1.12011E-28
4.82550E-01 1.06661E-28
4.86912E-01 1.01572E-28
4.91274E-01 9.67303E-29
4.95637E-01 9.21238E-29
5.00000E-01 8.77409E-29
5.04363E-01 8.35704E-29
5.08726E-01 7.96018E-29
5.13088E-01 7.58251E-29
5.17450E-01 7.22310E-29
5.21810E-01 6.88102E-29
5.26168E-01 6.55543E-29
5.30524E-01 6.24553E-29
5.34878E-01 5.95053E-29
5.39230E-01 5.66970E-29
5.43578E-01 5.40236E-29
5.47923E-01 5.14784E-29
5.52264E-01 4.90551E-29
5.56602E-01 4.67478E-29
5.60935E-01 4.45508E-29
5.65263E-01 4.24588E-29
5.69587E-01 4.04666E-29
5.73905E-01 3.85694E-29
5.78217E-01 3.67626E-29
5.82524E-01 3.50418E-29
5.86824E-01 3.34028E-29
5.91118E-01 3.18416E-29
5.95404E-01 3.03546E-29
5.99684E-01 2.89381E-29
6.03956E-01 2.75886E-29
6.08220E-01 2.63031E-29
6.12476E-01 2.50784E-29
6.16723E-01 2.39115E-29
6.20961E-01 2.27997E-29
6.25190E-01 2.17404E-29
6.29410E-01 2.07310E-29
6.33619E-01 1.97692E-29
6.37819E-01 1.88526E-29
6.42008E-01 1.79792E-29
6.46186E-01 1.71467E-29
6.50353E-01 1.63533E-29
6.54508E-01 1.55972E-29
6.58652E-01 1.48765E-29
6.62784E-01 1.41895E-29
6.66903E-01 1.35347E-29
6.71010E-01 1.29105E-29
6.75104E-01 1.23155E-29
6.79184E-01 1.17482E-29
6.83251E-01 1.12074E-29
6.87303E-01 1.06918E-29
6.91342E-01 1.02002E-29
6.95366E-01 9.73154E-30
6.99375E-01 9.28463E-30
7.03368E-01 8.85848E-30
7.07347E-01 8.45211E-30
7.11309E-01 8.06460E-30
7.15256E-01 7.69505E-30
7.19186E-01 7.34262E-30
7.23099E-01 7.00650E-30
7.26995E-01 6.68592E-30
7.30874E-01 6.38016E-30
7.34736E-01 6.08851E-30
7.38579E-01 5.81033E-30
7.42405E-01 5.54496E-30
7.46212E-01 5.29182E-30
7.50000E-01 5.05034E-30
7.53769E-01 4.81996E-30
7.57519E-01 4.60017E-30
7.61249E-01 4.39047E-30
7.64960E-01 4.19039E-30
7.68650E-01 3.99949E-30
7.72320E-01 3.81734E-30
7.75968E-01 3.64352E-30
7.79596E-01 3.47766E-30
7.83203E-01 3.31938E-30
7.86788E-01 3.16832E-30
7.90351E-01 3.02416E-30
7.93893E-01 2.88658E-30
7.97411E-01 2.75526E-30
8.00908E-01 2.62992E-30
8.04381E-01 2.51029E-30
8.07831E-01 2.39609E-30
8.11257E-01 2.28708E-30
8.14660E-01 2.18302E-30
8.18039E-01 2.08367E-30
8.21394E-01 1.98883E-30
8.24724E-01 1.89828E-30
8.28030E-01 1.81183E-30
8.31310E-01 1.72929E-30
8.34565E-01 1.65048E-30
8.37795E-01 1.57522E-30
8.40999E-01 1.50335E-30
8.44177E-01 1.43473E-30
8.47329E-01 1.36919E-30
8.50455E-01 1.30661E-30
8.53553E-01 1.24683E-30
8.56625E-01 1.18974E-30
8.59670E-01 1.13522E-30
8.62687E-01 1.08314E-30
8.65677E-01 1.03339E-30
8.68639E-01 9.85871E-31
8.71572E-01 9.40478E-31
8.74478E-01 8.97114E-31
8.77355E-01 8.55688E-31
8.80203E-01 8.16111E-31
8.83022E-01 7.78300E-31
8.85812E-01 7.42174E-31
8.88573E-01 7.07658E-31
8.91304E-01 6.74678E-31
8.94005E-01 6.43165E-31
8.96677E-01 6.13053E-31
8.99318E-01 5.84279E-31
9.01928E-01 5.56782E-31
9.04508E-01 5.30505E-31
9.07058E-01 5.05393E-31
9.09576E-01 4.81394E-31
9.12063E-01 4.58459E-31
9.14519E-01 4.36538E-31
9.16943E-01 4.15588E-31
9.19335E-01 3.95565E-31
9.21696E-01 3.76426E-31
9.24024E-01 3.58134E-31
9.26320E-01 3.40650E-31
9.28584E-01 3.23938E-31
9.30815E-01 3.07965E-31
9.33013E-01 2.92697E-31
9.35178E-01 2.78104E-31
9.37310E-01 2.64155E-31
9.39409E-01 2.50822E-31
9.41474E-01 2.38078E-31
9.43505E-01 2.25898E-31
9.45503E-01 2.14257E-31
9.47467E-01 2.03130E-31
9.49397E-01 1.92497E-31
9.51293E-01 1.82335E-31
9.53154E-01 1.72623E-31
9.54981E-01 1.63343E-31
9.56773E-01 1.54477E-31
9.58530E-01 1.46005E-31
9.60252E-01 1.37912E-31
9.61940E-01 1.30181E-31
9.63592E-01 1.22796E-31
9.65209E-01 1.15744E-31
9.66790E-01 1.09011E-31
9.68336E-01 1.02582E-31
9.69846E-01 9.64452E-32
9.71321E-01 9.05889E-32
9.72759E-01 8.50013E-32
9.74162E-01 7.96713E-32
9.75528E-01 7.45887E-32
9.76858E-01 6.97433E-32
9.78152E-01 6.51260E-32
9.79410E-01 6.07275E-32
9.80631E-01 5.65393E-32
9.81815E-01 5.25533E-32
9.82963E-01 4.87618E-32
9.84074E-01 4.51574E-32
9.85148E-01 4.17331E-32
9.86185E-01 3.84824E-32
9.87185E-01 3.53990E-32
9.88148E-01 3.24770E-32
9.89074E-01 2.97106E-32
9.89962E-01 2.70947E-32
9.90814E-01 2.46241E-32
9.91627E-01 2.22943E-32
9.92404E-01 2.01007E-32
9.93143E-01 1.80390E-32
9.93844E-01 1.61055E-32
9.94508E-01 1.42964E-32
9.95134E-01 1.26083E-32
9.95722E-01 1.10379E-32
9.96273E-01 9.58233E-33
9.96786E-01 8.23877E-33
9.97261E-01 7.00466E-33
9.97698E-01 5.87767E-33
9.98097E-01 4.85570E-33
9.98459E-01 3.93676E-33
9.98782E-01 3.11919E-33
9.99067E-01 2.40136E-33
9.99315E-01 1.78198E-33
9.99524E-01 1.25984E-33
9.99695E-01 8.33981E-34
9.99829E-01 5.03588E-34
9.99924E-01 2.68039E-34
9.99981E-01 1.26877E-34
1.00000E+00 7.98482E-35
