 #
 # Subroutine ELSEPA. Elastic scattering of electrons and positrons
 #                    by neutral atoms and positive ions
 #
 # Projectile: positron
 # Kinetic energy = 1.50000E+07 eV = 5.51240E+05 a.u.
 #
 # WARNING: High-energy factorization with free-atom DF screening.
 #          Absorption, polarization and exchange corrections are
 #          switched off.
 #          Phase shifts are calculated for the bare nucleus.
 #          Scattering amplitudes are not evaluated.
 #
 # Element: Os,  Z =  76,  atomic weight = 1.90230E+02 g/mol
 #
 # Nuclear model: Fermi distribution
 #                Average radius = 6.15380E-13 cm
 #                Skin thickness = 5.46000E-14 cm
 #
 # Number of electrons = 76
 #
 # Total elastic cross section = 7.68132E-18 cm**2 = 2.74305E-01 a0**2
 # 1st transport cross section = 3.51516E-23 cm**2 = 1.25529E-06 a0**2
 # 2nd transport cross section = 1.01993E-22 cm**2 = 3.64224E-06 a0**2
 #
 #
 # Differential cross section:                       MU=(1-COS(THETA))/2
 #
 #  THETA        MU          DCS          DCS        Sherman      error
 #  (deg)                 (cm**2/sr)   (a0**2/sr)    function
 #----------------------------------------------------------------------
0.00000E+00 1.23926E-11
7.61557E-13 1.23919E-11
1.18994E-12 1.23916E-11
1.71346E-12 1.23911E-11
2.33225E-12 1.23906E-11
3.04617E-12 1.23900E-11
3.85530E-12 1.23893E-11
4.75964E-12 1.23885E-11
5.75917E-12 1.23877E-11
6.85391E-12 1.23868E-11
8.04379E-12 1.23858E-11
9.32893E-12 1.23847E-11
1.07092E-11 1.23835E-11
1.21847E-11 1.23823E-11
1.37554E-11 1.23810E-11
1.54213E-11 1.23796E-11
1.71823E-11 1.23781E-11
1.90386E-11 1.23765E-11
2.09900E-11 1.23749E-11
2.30367E-11 1.23732E-11
2.51785E-11 1.23714E-11
2.74156E-11 1.23695E-11
2.97478E-11 1.23675E-11
3.21752E-11 1.23655E-11
3.46979E-11 1.23634E-11
3.73157E-11 1.23612E-11
4.00286E-11 1.23589E-11
4.28368E-11 1.23566E-11
4.57402E-11 1.23541E-11
4.87388E-11 1.23516E-11
5.18325E-11 1.23490E-11
5.50215E-11 1.23464E-11
5.83057E-11 1.23436E-11
6.16850E-11 1.23408E-11
6.51595E-11 1.23379E-11
6.87293E-11 1.23349E-11
7.23943E-11 1.23319E-11
7.61544E-11 1.23288E-11
1.18991E-10 1.22932E-11
1.71347E-10 1.22500E-11
2.33223E-10 1.21993E-11
3.04617E-10 1.21412E-11
3.85531E-10 1.20760E-11
4.75965E-10 1.20038E-11
5.75917E-10 1.19249E-11
6.85389E-10 1.18396E-11
8.04380E-10 1.17480E-11
9.32891E-10 1.16504E-11
1.07092E-09 1.15463E-11
1.21847E-09 1.14373E-11
1.37554E-09 1.13240E-11
1.54213E-09 1.12059E-11
1.71823E-09 1.10820E-11
1.90386E-09 1.09549E-11
2.09900E-09 1.08252E-11
2.30367E-09 1.06900E-11
2.51785E-09 1.05518E-11
2.74156E-09 1.04121E-11
2.97478E-09 1.02701E-11
3.21752E-09 1.01234E-11
3.46978E-09 9.97630E-12
3.73156E-09 9.82903E-12
4.00286E-09 9.67822E-12
4.28368E-09 9.52619E-12
4.57402E-09 9.37493E-12
4.87388E-09 9.22387E-12
5.18326E-09 9.06924E-12
5.50215E-09 8.91617E-12
5.83057E-09 8.76486E-12
6.16850E-09 8.61201E-12
6.51596E-09 8.45908E-12
6.87293E-09 8.30850E-12
7.23942E-09 8.16003E-12
7.61544E-09 8.00891E-12
1.18991E-08 6.60260E-12
1.71347E-08 5.39782E-12
2.33223E-08 4.40985E-12
3.04617E-08 3.61832E-12
3.85531E-08 2.98878E-12
4.75965E-08 2.48749E-12
5.75917E-08 2.08609E-12
6.85389E-08 1.76193E-12
8.04380E-08 1.49807E-12
9.32891E-08 1.28168E-12
1.07092E-07 1.09274E-12
1.21847E-07 9.42359E-13
1.37554E-07 8.23122E-13
1.54213E-07 7.22189E-13
1.71823E-07 6.30053E-13
1.90386E-07 5.55180E-13
2.09900E-07 4.93696E-13
2.30367E-07 4.37199E-13
2.51785E-07 3.88705E-13
2.74156E-07 3.48120E-13
2.97478E-07 3.13059E-13
3.21752E-07 2.80712E-13
3.46978E-07 2.53201E-13
3.73156E-07 2.29651E-13
4.00286E-07 2.08079E-13
4.28368E-07 1.88911E-13
4.57402E-07 1.72295E-13
4.87388E-07 1.57652E-13
5.18325E-07 1.43935E-13
5.50215E-07 1.31917E-13
5.83057E-07 1.21342E-13
6.16850E-07 1.11585E-13
6.51596E-07 1.02697E-13
6.87293E-07 9.48108E-14
7.23942E-07 8.77586E-14
7.61543E-07 8.10639E-14
1.18991E-06 3.97247E-14
1.71347E-06 2.13834E-14
2.33223E-06 1.24744E-14
3.04617E-06 7.77746E-15
3.85531E-06 5.12828E-15
4.75964E-06 3.52774E-15
5.75916E-06 2.50781E-15
6.85388E-06 1.83251E-15
8.04378E-06 1.37012E-15
9.32888E-06 1.04437E-15
1.07092E-05 8.09077E-16
1.21846E-05 6.37079E-16
1.37553E-05 5.08587E-16
1.54212E-05 4.10451E-16
1.71822E-05 3.35013E-16
1.90385E-05 2.76044E-16
2.09899E-05 2.29686E-16
2.30365E-05 1.92611E-16
2.51783E-05 1.62703E-16
2.74153E-05 1.38345E-16
2.97475E-05 1.18325E-16
3.21749E-05 1.01812E-16
3.46974E-05 8.80996E-17
3.73152E-05 7.66172E-17
4.00281E-05 6.69573E-17
4.28362E-05 5.87823E-17
4.57395E-05 5.18169E-17
4.87380E-05 4.58477E-17
5.18317E-05 4.07141E-17
5.50205E-05 3.62794E-17
5.83045E-05 3.24279E-17
6.16838E-05 2.90760E-17
6.51582E-05 2.61484E-17
6.87277E-05 2.35802E-17
7.23925E-05 2.13198E-17
7.61524E-05 1.93247E-17
9.21439E-05 1.33373E-17
1.09658E-04 9.49605E-18
1.28695E-04 6.94175E-18
1.49255E-04 5.18952E-18
1.71338E-04 3.95603E-18
1.94942E-04 3.06746E-18
2.20070E-04 2.41452E-18
2.46720E-04 1.92614E-18
2.74892E-04 1.55504E-18
3.04586E-04 1.26905E-18
3.35803E-04 1.04581E-18
3.68542E-04 8.69508E-19
4.02802E-04 7.28802E-19
4.38585E-04 6.15409E-19
4.75889E-04 5.23211E-19
5.14715E-04 4.47632E-19
5.55063E-04 3.85203E-19
5.96931E-04 3.33275E-19
6.40321E-04 2.89798E-19
6.85233E-04 2.53174E-19
7.31665E-04 2.22149E-19
7.79618E-04 1.95725E-19
8.29092E-04 1.73110E-19
8.80086E-04 1.53663E-19
9.32601E-04 1.36866E-19
9.86636E-04 1.22297E-19
1.04219E-03 1.09613E-19
1.09927E-03 9.85278E-20
1.15786E-03 8.88053E-20
1.21797E-03 8.02501E-20
1.27961E-03 7.26983E-20
1.34276E-03 6.60118E-20
1.40743E-03 6.00747E-20
1.47362E-03 5.47884E-20
1.54133E-03 5.00694E-20
1.61056E-03 4.58460E-20
1.68131E-03 4.20573E-20
1.75357E-03 3.86508E-20
1.82735E-03 3.55812E-20
1.90265E-03 3.28094E-20
1.97947E-03 3.03014E-20
2.05780E-03 2.80277E-20
2.13765E-03 2.59625E-20
2.21902E-03 2.40834E-20
2.30190E-03 2.23706E-20
2.38630E-03 2.08069E-20
2.47222E-03 1.93769E-20
2.55965E-03 1.80672E-20
2.64859E-03 1.68659E-20
2.73905E-03 1.57624E-20
2.83103E-03 1.47473E-20
2.92452E-03 1.38123E-20
3.01952E-03 1.29499E-20
3.11604E-03 1.21535E-20
3.21407E-03 1.14171E-20
3.31362E-03 1.07354E-20
3.41468E-03 1.01036E-20
3.51725E-03 9.51741E-21
3.62133E-03 8.97292E-21
3.72692E-03 8.46663E-21
3.83403E-03 7.99539E-21
3.94265E-03 7.55633E-21
4.05278E-03 7.14686E-21
4.16442E-03 6.76461E-21
4.27757E-03 6.40745E-21
4.39223E-03 6.07344E-21
4.50840E-03 5.76080E-21
4.62608E-03 5.46792E-21
4.74527E-03 5.19332E-21
4.86597E-03 4.93565E-21
4.98817E-03 4.69369E-21
5.11188E-03 4.46629E-21
5.23711E-03 4.25242E-21
5.36383E-03 4.05114E-21
5.49207E-03 3.86156E-21
5.62181E-03 3.68287E-21
5.75306E-03 3.51435E-21
5.88581E-03 3.35530E-21
6.02007E-03 3.20509E-21
6.15583E-03 3.06315E-21
6.29310E-03 2.92894E-21
6.43187E-03 2.80195E-21
6.57214E-03 2.68173E-21
6.71392E-03 2.56785E-21
6.85720E-03 2.45991E-21
7.00198E-03 2.35755E-21
7.14827E-03 2.26043E-21
7.29605E-03 2.16823E-21
7.44534E-03 2.08065E-21
7.59612E-03 1.99742E-21
7.97965E-03 1.80673E-21
8.37255E-03 1.63813E-21
8.77480E-03 1.48863E-21
9.18641E-03 1.35569E-21
9.60736E-03 1.23717E-21
1.00376E-02 1.13124E-21
1.04773E-02 1.03633E-21
1.09262E-02 9.51099E-22
1.13844E-02 8.74393E-22
1.18520E-02 8.05210E-22
1.23288E-02 7.42686E-22
1.28150E-02 6.86070E-22
1.33104E-02 6.34707E-22
1.38150E-02 5.88024E-22
1.43290E-02 5.45522E-22
1.48521E-02 5.06760E-22
1.53845E-02 4.71353E-22
1.59262E-02 4.38959E-22
1.64770E-02 4.09278E-22
1.70371E-02 3.82041E-22
1.76063E-02 3.57014E-22
1.81848E-02 3.33984E-22
1.87724E-02 3.12766E-22
1.93692E-02 2.93190E-22
1.99751E-02 2.75108E-22
2.05901E-02 2.58386E-22
2.12143E-02 2.42902E-22
2.18476E-02 2.28551E-22
2.24900E-02 2.15233E-22
2.31415E-02 2.02862E-22
2.38021E-02 1.91357E-22
2.44717E-02 1.80649E-22
2.51504E-02 1.70671E-22
2.58382E-02 1.61366E-22
2.65349E-02 1.52679E-22
2.72407E-02 1.44563E-22
2.79555E-02 1.36973E-22
2.86793E-02 1.29869E-22
2.94120E-02 1.23215E-22
3.01537E-02 1.16976E-22
3.09043E-02 1.11123E-22
3.16639E-02 1.05627E-22
3.24324E-02 1.00463E-22
3.32098E-02 9.56065E-23
3.39961E-02 9.10365E-23
3.47912E-02 8.67329E-23
3.55952E-02 8.26776E-23
3.64081E-02 7.88536E-23
3.72297E-02 7.52452E-23
3.80602E-02 7.18382E-23
3.88995E-02 6.86195E-23
3.97476E-02 6.55767E-23
4.06044E-02 6.26984E-23
4.14700E-02 5.99740E-23
4.23443E-02 5.73941E-23
4.32273E-02 5.49498E-23
4.41190E-02 5.26320E-23
4.50194E-02 5.04336E-23
4.59284E-02 4.83473E-23
4.68461E-02 4.63661E-23
4.87074E-02 4.26947E-23
5.06030E-02 3.93747E-23
5.25328E-02 3.63666E-23
5.44967E-02 3.36361E-23
5.64946E-02 3.11534E-23
5.85262E-02 2.88921E-23
6.05914E-02 2.68292E-23
6.26901E-02 2.49442E-23
6.48222E-02 2.32192E-23
6.69873E-02 2.16384E-23
6.91854E-02 2.01876E-23
7.14163E-02 1.88543E-23
7.36799E-02 1.76274E-23
7.59760E-02 1.64969E-23
7.83043E-02 1.54540E-23
8.06647E-02 1.44907E-23
8.30571E-02 1.35999E-23
8.54812E-02 1.27752E-23
8.79369E-02 1.20109E-23
9.04240E-02 1.13018E-23
9.29422E-02 1.06433E-23
9.54915E-02 1.00310E-23
9.80716E-02 9.46128E-24
1.00682E-01 8.93058E-24
1.03323E-01 8.43580E-24
1.05995E-01 7.97411E-24
1.08696E-01 7.54292E-24
1.11427E-01 7.13973E-24
1.14188E-01 6.76242E-24
1.16978E-01 6.40914E-24
1.19797E-01 6.07808E-24
1.22645E-01 5.76762E-24
1.25522E-01 5.47624E-24
1.28428E-01 5.20258E-24
1.31361E-01 4.94537E-24
1.34323E-01 4.70345E-24
1.37313E-01 4.47577E-24
1.40330E-01 4.26133E-24
1.43375E-01 4.05924E-24
1.46447E-01 3.86866E-24
1.49545E-01 3.68883E-24
1.52671E-01 3.51903E-24
1.55823E-01 3.35862E-24
1.59001E-01 3.20697E-24
1.62205E-01 3.06354E-24
1.65435E-01 2.92780E-24
1.68690E-01 2.79926E-24
1.71970E-01 2.67749E-24
1.75276E-01 2.56206E-24
1.78606E-01 2.45258E-24
1.81961E-01 2.34871E-24
1.85340E-01 2.25009E-24
1.88743E-01 2.15643E-24
1.92169E-01 2.06742E-24
1.95619E-01 1.98280E-24
1.99092E-01 1.90232E-24
2.02589E-01 1.82573E-24
2.06107E-01 1.75282E-24
2.09649E-01 1.68339E-24
2.13212E-01 1.61723E-24
2.16797E-01 1.55417E-24
2.20404E-01 1.49403E-24
2.24032E-01 1.43667E-24
2.27680E-01 1.38192E-24
2.31350E-01 1.32965E-24
2.35040E-01 1.27973E-24
2.38751E-01 1.23204E-24
2.42481E-01 1.18645E-24
2.46231E-01 1.14286E-24
2.50000E-01 1.10118E-24
2.53788E-01 1.06129E-24
2.57595E-01 1.02311E-24
2.61421E-01 9.86560E-25
2.65264E-01 9.51551E-25
2.69126E-01 9.18009E-25
2.73005E-01 8.85863E-25
2.76901E-01 8.55046E-25
2.80814E-01 8.25492E-25
2.84744E-01 7.97141E-25
2.88691E-01 7.69937E-25
2.92653E-01 7.43825E-25
2.96632E-01 7.18753E-25
3.00625E-01 6.94675E-25
3.04634E-01 6.71543E-25
3.08658E-01 6.49314E-25
3.12697E-01 6.27948E-25
3.16749E-01 6.07404E-25
3.20816E-01 5.87647E-25
3.24896E-01 5.68642E-25
3.28990E-01 5.50354E-25
3.33097E-01 5.32752E-25
3.37216E-01 5.15807E-25
3.41348E-01 4.99489E-25
3.45492E-01 4.83772E-25
3.49647E-01 4.68630E-25
3.53814E-01 4.54039E-25
3.57992E-01 4.39975E-25
3.62181E-01 4.26415E-25
3.66381E-01 4.13340E-25
3.70590E-01 4.00729E-25
3.74810E-01 3.88562E-25
3.79039E-01 3.76821E-25
3.83277E-01 3.65490E-25
3.87524E-01 3.54551E-25
3.91780E-01 3.43989E-25
3.96044E-01 3.33789E-25
4.00316E-01 3.23936E-25
4.04596E-01 3.14416E-25
4.08882E-01 3.05217E-25
4.13176E-01 2.96326E-25
4.17476E-01 2.87731E-25
4.21783E-01 2.79420E-25
4.26095E-01 2.71382E-25
4.30413E-01 2.63608E-25
4.34737E-01 2.56087E-25
4.39065E-01 2.48810E-25
4.43398E-01 2.41767E-25
4.47736E-01 2.34950E-25
4.52077E-01 2.28350E-25
4.56422E-01 2.21959E-25
4.60770E-01 2.15770E-25
4.65122E-01 2.09776E-25
4.69476E-01 2.03968E-25
4.73832E-01 1.98341E-25
4.78190E-01 1.92888E-25
4.82550E-01 1.87603E-25
4.86912E-01 1.82479E-25
4.91274E-01 1.77511E-25
4.95637E-01 1.72694E-25
5.00000E-01 1.68023E-25
5.04363E-01 1.63491E-25
5.08726E-01 1.59095E-25
5.13088E-01 1.54830E-25
5.17450E-01 1.50691E-25
5.21810E-01 1.46673E-25
5.26168E-01 1.42774E-25
5.30524E-01 1.38988E-25
5.34878E-01 1.35313E-25
5.39230E-01 1.31743E-25
5.43578E-01 1.28277E-25
5.47923E-01 1.24909E-25
5.52264E-01 1.21638E-25
5.56602E-01 1.18460E-25
5.60935E-01 1.15372E-25
5.65263E-01 1.12370E-25
5.69587E-01 1.09453E-25
5.73905E-01 1.06618E-25
5.78217E-01 1.03861E-25
5.82524E-01 1.01180E-25
5.86824E-01 9.85737E-26
5.91118E-01 9.60387E-26
5.95404E-01 9.35731E-26
5.99684E-01 9.11746E-26
6.03956E-01 8.88412E-26
6.08220E-01 8.65708E-26
6.12476E-01 8.43615E-26
6.16723E-01 8.22115E-26
6.20961E-01 8.01189E-26
6.25190E-01 7.80820E-26
6.29410E-01 7.60991E-26
6.33619E-01 7.41685E-26
6.37819E-01 7.22887E-26
6.42008E-01 7.04582E-26
6.46186E-01 6.86754E-26
6.50353E-01 6.69391E-26
6.54508E-01 6.52477E-26
6.58652E-01 6.36001E-26
6.62784E-01 6.19948E-26
6.66903E-01 6.04308E-26
6.71010E-01 5.89067E-26
6.75104E-01 5.74214E-26
6.79184E-01 5.59739E-26
6.83251E-01 5.45629E-26
6.87303E-01 5.31876E-26
6.91342E-01 5.18468E-26
6.95366E-01 5.05396E-26
6.99375E-01 4.92651E-26
7.03368E-01 4.80223E-26
7.07347E-01 4.68104E-26
7.11309E-01 4.56284E-26
7.15256E-01 4.44756E-26
7.19186E-01 4.33512E-26
7.23099E-01 4.22543E-26
7.26995E-01 4.11843E-26
7.30874E-01 4.01403E-26
7.34736E-01 3.91218E-26
7.38579E-01 3.81279E-26
7.42405E-01 3.71581E-26
7.46212E-01 3.62117E-26
7.50000E-01 3.52880E-26
7.53769E-01 3.43865E-26
7.57519E-01 3.35066E-26
7.61249E-01 3.26477E-26
7.64960E-01 3.18093E-26
7.68650E-01 3.09908E-26
7.72320E-01 3.01917E-26
7.75968E-01 2.94115E-26
7.79596E-01 2.86497E-26
7.83203E-01 2.79059E-26
7.86788E-01 2.71795E-26
7.90351E-01 2.64703E-26
7.93893E-01 2.57776E-26
7.97411E-01 2.51011E-26
8.00908E-01 2.44404E-26
8.04381E-01 2.37951E-26
8.07831E-01 2.31648E-26
8.11257E-01 2.25491E-26
8.14660E-01 2.19477E-26
8.18039E-01 2.13603E-26
8.21394E-01 2.07864E-26
8.24724E-01 2.02258E-26
8.28030E-01 1.96781E-26
8.31310E-01 1.91430E-26
8.34565E-01 1.86203E-26
8.37795E-01 1.81096E-26
8.40999E-01 1.76106E-26
8.44177E-01 1.71231E-26
8.47329E-01 1.66467E-26
8.50455E-01 1.61813E-26
8.53553E-01 1.57266E-26
8.56625E-01 1.52823E-26
8.59670E-01 1.48482E-26
8.62687E-01 1.44241E-26
8.65677E-01 1.40096E-26
8.68639E-01 1.36047E-26
8.71572E-01 1.32091E-26
8.74478E-01 1.28225E-26
8.77355E-01 1.24448E-26
8.80203E-01 1.20758E-26
8.83022E-01 1.17153E-26
8.85812E-01 1.13631E-26
8.88573E-01 1.10190E-26
8.91304E-01 1.06829E-26
8.94005E-01 1.03546E-26
8.96677E-01 1.00338E-26
8.99318E-01 9.72051E-27
9.01928E-01 9.41450E-27
9.04508E-01 9.11562E-27
9.07058E-01 8.82374E-27
9.09576E-01 8.53869E-27
9.12063E-01 8.26035E-27
9.14519E-01 7.98858E-27
9.16943E-01 7.72323E-27
9.19335E-01 7.46419E-27
9.21696E-01 7.21133E-27
9.24024E-01 6.96453E-27
9.26320E-01 6.72366E-27
9.28584E-01 6.48862E-27
9.30815E-01 6.25928E-27
9.33013E-01 6.03555E-27
9.35178E-01 5.81731E-27
9.37310E-01 5.60446E-27
9.39409E-01 5.39691E-27
9.41474E-01 5.19455E-27
9.43505E-01 4.99729E-27
9.45503E-01 4.80504E-27
9.47467E-01 4.61771E-27
9.49397E-01 4.43522E-27
9.51293E-01 4.25747E-27
9.53154E-01 4.08440E-27
9.54981E-01 3.91591E-27
9.56773E-01 3.75194E-27
9.58530E-01 3.59240E-27
9.60252E-01 3.43723E-27
9.61940E-01 3.28636E-27
9.63592E-01 3.13971E-27
9.65209E-01 2.99723E-27
9.66790E-01 2.85885E-27
9.68336E-01 2.72450E-27
9.69846E-01 2.59413E-27
9.71321E-01 2.46769E-27
9.72759E-01 2.34510E-27
9.74162E-01 2.22633E-27
9.75528E-01 2.11131E-27
9.76858E-01 2.00001E-27
9.78152E-01 1.89236E-27
9.79410E-01 1.78832E-27
9.80631E-01 1.68785E-27
9.81815E-01 1.59090E-27
9.82963E-01 1.49743E-27
9.84074E-01 1.40741E-27
9.85148E-01 1.32078E-27
9.86185E-01 1.23752E-27
9.87185E-01 1.15758E-27
9.88148E-01 1.08094E-27
9.89074E-01 1.00757E-27
9.89962E-01 9.37417E-28
9.90814E-01 8.70468E-28
9.91627E-01 8.06690E-28
9.92404E-01 7.46056E-28
9.93143E-01 6.88541E-28
9.93844E-01 6.34119E-28
9.94508E-01 5.82768E-28
9.95134E-01 5.34466E-28
9.95722E-01 4.89192E-28
9.96273E-01 4.46928E-28
9.96786E-01 4.07655E-28
9.97261E-01 3.71358E-28
9.97698E-01 3.38020E-28
9.98097E-01 3.07627E-28
9.98459E-01 2.80168E-28
9.98782E-01 2.55630E-28
9.99067E-01 2.34003E-28
9.99315E-01 2.15278E-28
9.99524E-01 1.99446E-28
9.99695E-01 1.86503E-28
9.99829E-01 1.76441E-28
9.99924E-01 1.69257E-28
9.99981E-01 1.64948E-28
1.00000E+00 1.63512E-28
