 #
 # Subroutine ELSEPA. Elastic scattering of electrons and positrons
 #                    by neutral atoms and positive ions
 #
 # Projectile: positron
 # Kinetic energy = 2.50000E+08 eV = 9.18733E+06 a.u.
 #
 # WARNING: High-energy factorization with free-atom DF screening.
 #          Absorption, polarization and exchange corrections are
 #          switched off.
 #          Phase shifts are calculated for the bare nucleus.
 #          Scattering amplitudes are not evaluated.
 #
 # Element: Os,  Z =  76,  atomic weight = 1.90230E+02 g/mol
 #
 # Nuclear model: Fermi distribution
 #                Average radius = 6.15380E-13 cm
 #                Skin thickness = 5.46000E-14 cm
 #
 # Number of electrons = 76
 #
 # Total elastic cross section = 7.67682E-18 cm**2 = 2.74144E-01 a0**2
 # 1st transport cross section = 1.71841E-25 cm**2 = 6.13654E-09 a0**2
 # 2nd transport cross section = 5.14698E-25 cm**2 = 1.83802E-08 a0**2
 #
 #
 # Differential cross section:                       MU=(1-COS(THETA))/2
 #
 #  THETA        MU          DCS          DCS        Sherman      error
 #  (deg)                 (cm**2/sr)   (a0**2/sr)    function
 #----------------------------------------------------------------------
0.00000E+00 3.23249E-09
7.61557E-13 3.18943E-09
1.18994E-12 3.16567E-09
1.71346E-12 3.13705E-09
2.33225E-12 3.10380E-09
3.04617E-12 3.06619E-09
3.85530E-12 3.02439E-09
4.75964E-12 2.97874E-09
5.75917E-12 2.93018E-09
6.85391E-12 2.87784E-09
8.04379E-12 2.82351E-09
9.32893E-12 2.76607E-09
1.07092E-11 2.70724E-09
1.21847E-11 2.64627E-09
1.37554E-11 2.58425E-09
1.54213E-11 2.52115E-09
1.71823E-11 2.45719E-09
1.90386E-11 2.39320E-09
2.09900E-11 2.32843E-09
2.30367E-11 2.26462E-09
2.51785E-11 2.20003E-09
2.74156E-11 2.13706E-09
2.97478E-11 2.07369E-09
3.21752E-11 2.01205E-09
3.46979E-11 1.95079E-09
3.73157E-11 1.89104E-09
4.00286E-11 1.83235E-09
4.28368E-11 1.77492E-09
4.57402E-11 1.71912E-09
4.87388E-11 1.66431E-09
5.18325E-11 1.61157E-09
5.50215E-11 1.55957E-09
5.83057E-11 1.50989E-09
6.16850E-11 1.46088E-09
6.51595E-11 1.41406E-09
6.87293E-11 1.36826E-09
7.23943E-11 1.32428E-09
7.61544E-11 1.28162E-09
1.18991E-10 9.29519E-10
1.71347E-10 6.85674E-10
2.33223E-10 5.15977E-10
3.04617E-10 3.95372E-10
3.85531E-10 3.06449E-10
4.75965E-10 2.40434E-10
5.75917E-10 1.94589E-10
6.85389E-10 1.56283E-10
8.04380E-10 1.28719E-10
9.32891E-10 1.05932E-10
1.07092E-09 8.85697E-11
1.21847E-09 7.43943E-11
1.37554E-09 6.30661E-11
1.54213E-09 5.38392E-11
1.71823E-09 4.61919E-11
1.90386E-09 3.99517E-11
2.09900E-09 3.46226E-11
2.30367E-09 3.02628E-11
2.51785E-09 2.64452E-11
2.74156E-09 2.32954E-11
2.97478E-09 2.05166E-11
3.21752E-09 1.81786E-11
3.46978E-09 1.61283E-11
3.73156E-09 1.43647E-11
4.00286E-09 1.28254E-11
4.28368E-09 1.14781E-11
4.57402E-09 1.03055E-11
4.87388E-09 9.26541E-12
5.18326E-09 8.36094E-12
5.50215E-09 7.55088E-12
5.83057E-09 6.84464E-12
6.16850E-09 6.20945E-12
6.51596E-09 5.65108E-12
6.87293E-09 5.15049E-12
7.23942E-09 4.70573E-12
7.61544E-09 4.30736E-12
1.18991E-08 1.96165E-12
1.71347E-08 1.02896E-12
2.33223E-08 5.92770E-13
3.04617E-08 3.65556E-13
3.85531E-08 2.37193E-13
4.75965E-08 1.60596E-13
5.75917E-08 1.12557E-13
6.85389E-08 8.12060E-14
8.04380E-08 6.00451E-14
9.32891E-08 4.53466E-14
1.07092E-07 3.48733E-14
1.21847E-07 2.72562E-14
1.37554E-07 2.16111E-14
1.54213E-07 1.73558E-14
1.71823E-07 1.40993E-14
1.90386E-07 1.15729E-14
2.09900E-07 9.58851E-15
2.30367E-07 8.01171E-15
2.51785E-07 6.74631E-15
2.74156E-07 5.72134E-15
2.97478E-07 4.88391E-15
3.21752E-07 4.19425E-15
3.46978E-07 3.62209E-15
3.73156E-07 3.14419E-15
4.00286E-07 2.74241E-15
4.28368E-07 2.40271E-15
4.57402E-07 2.11396E-15
4.87388E-07 1.86725E-15
5.18325E-07 1.65545E-15
5.50215E-07 1.47280E-15
5.83057E-07 1.31463E-15
6.16850E-07 1.17708E-15
6.51596E-07 1.05702E-15
6.87293E-07 9.51872E-16
7.23942E-07 8.59462E-16
7.61543E-07 7.77985E-16
1.18991E-06 3.22687E-16
1.71347E-06 1.56893E-16
2.33223E-06 8.51905E-17
3.04617E-06 5.01630E-17
3.85531E-06 3.14268E-17
4.75964E-06 2.06763E-17
5.75916E-06 1.41533E-17
6.85388E-06 1.00108E-17
8.04378E-06 7.27839E-18
9.32888E-06 5.41743E-18
1.07092E-05 4.11474E-18
1.21846E-05 3.18093E-18
1.37553E-05 2.49749E-18
1.54212E-05 1.98803E-18
1.71822E-05 1.60204E-18
1.90385E-05 1.30455E-18
2.09899E-05 1.07425E-18
2.30365E-05 8.92429E-19
2.51783E-05 7.47258E-19
2.74153E-05 6.30253E-19
2.97475E-05 5.35182E-19
3.21749E-05 4.57364E-19
3.46974E-05 3.93218E-19
3.73152E-05 3.39977E-19
4.00281E-05 2.95480E-19
4.28362E-05 2.58043E-19
4.57395E-05 2.26347E-19
4.87380E-05 1.99356E-19
5.18317E-05 1.76256E-19
5.50205E-05 1.56395E-19
5.83045E-05 1.39249E-19
6.16838E-05 1.24389E-19
6.51582E-05 1.11462E-19
6.87277E-05 1.00174E-19
7.23925E-05 9.02816E-20
7.61524E-05 8.18209E-20
9.21439E-05 5.58927E-20
1.09658E-04 3.94659E-20
1.28695E-04 2.86567E-20
1.49255E-04 2.13058E-20
1.71338E-04 1.61684E-20
1.94942E-04 1.24898E-20
2.20070E-04 9.80015E-21
2.46720E-04 7.79688E-21
2.74892E-04 6.28004E-21
3.04586E-04 5.11457E-21
3.35803E-04 4.20714E-21
3.68542E-04 3.49214E-21
4.02802E-04 2.92265E-21
4.38585E-04 2.46447E-21
4.75889E-04 2.09239E-21
5.14715E-04 1.78781E-21
5.55063E-04 1.53654E-21
5.96931E-04 1.32777E-21
6.40321E-04 1.15317E-21
6.85233E-04 1.00623E-21
7.31665E-04 8.81876E-22
7.79618E-04 7.76055E-22
8.29092E-04 6.85557E-22
8.80086E-04 6.07795E-22
9.32601E-04 5.40682E-22
9.86636E-04 4.82515E-22
1.04219E-03 4.31903E-22
1.09927E-03 3.87701E-22
1.15786E-03 3.48959E-22
1.21797E-03 3.14891E-22
1.27961E-03 2.84837E-22
1.34276E-03 2.58243E-22
1.40743E-03 2.34644E-22
1.47362E-03 2.13645E-22
1.54133E-03 1.94911E-22
1.61056E-03 1.78156E-22
1.68131E-03 1.63136E-22
1.75357E-03 1.49639E-22
1.82735E-03 1.37486E-22
1.90265E-03 1.26520E-22
1.97947E-03 1.16604E-22
2.05780E-03 1.07621E-22
2.13765E-03 9.94688E-23
2.21902E-03 9.20568E-23
2.30190E-03 8.53066E-23
2.38630E-03 7.91488E-23
2.47222E-03 7.35228E-23
2.55965E-03 6.83748E-23
2.64859E-03 6.36572E-23
2.73905E-03 5.93279E-23
2.83103E-03 5.53497E-23
2.92452E-03 5.16891E-23
3.01952E-03 4.83166E-23
3.11604E-03 4.52057E-23
3.21407E-03 4.23326E-23
3.31362E-03 3.96761E-23
3.41468E-03 3.72172E-23
3.51725E-03 3.49388E-23
3.62133E-03 3.28253E-23
3.72692E-03 3.08628E-23
3.83403E-03 2.90388E-23
3.94265E-03 2.73418E-23
4.05278E-03 2.57617E-23
4.16442E-03 2.42889E-23
4.27757E-03 2.29151E-23
4.39223E-03 2.16324E-23
4.50840E-03 2.04339E-23
4.62608E-03 1.93132E-23
4.74527E-03 1.82643E-23
4.86597E-03 1.72820E-23
4.98817E-03 1.63612E-23
5.11188E-03 1.54977E-23
5.23711E-03 1.46872E-23
5.36383E-03 1.39259E-23
5.49207E-03 1.32105E-23
5.62181E-03 1.25376E-23
5.75306E-03 1.19045E-23
5.88581E-03 1.13083E-23
6.02007E-03 1.07466E-23
6.15583E-03 1.02171E-23
6.29310E-03 9.71769E-24
6.43187E-03 9.24633E-24
6.57214E-03 8.80125E-24
6.71392E-03 8.38075E-24
6.85720E-03 7.98328E-24
7.00198E-03 7.60739E-24
7.14827E-03 7.25173E-24
7.29605E-03 6.91505E-24
7.44534E-03 6.59620E-24
7.59612E-03 6.29409E-24
7.97965E-03 5.60561E-24
8.37255E-03 5.00173E-24
8.77480E-03 4.47071E-24
9.18641E-03 4.00264E-24
9.60736E-03 3.58914E-24
1.00376E-02 3.22305E-24
1.04773E-02 2.89830E-24
1.09262E-02 2.60966E-24
1.13844E-02 2.35264E-24
1.18520E-02 2.12339E-24
1.23288E-02 1.91858E-24
1.28150E-02 1.73531E-24
1.33104E-02 1.57108E-24
1.38150E-02 1.42370E-24
1.43290E-02 1.29127E-24
1.48521E-02 1.17211E-24
1.53845E-02 1.06478E-24
1.59262E-02 9.67978E-25
1.64770E-02 8.80586E-25
1.70371E-02 8.01604E-25
1.76063E-02 7.30154E-25
1.81848E-02 6.65456E-25
1.87724E-02 6.06820E-25
1.93692E-02 5.53633E-25
1.99751E-02 5.05351E-25
2.05901E-02 4.61487E-25
2.12143E-02 4.21609E-25
2.18476E-02 3.85329E-25
2.24900E-02 3.52301E-25
2.31415E-02 3.22215E-25
2.38021E-02 2.94794E-25
2.44717E-02 2.69787E-25
2.51504E-02 2.46970E-25
2.58382E-02 2.26142E-25
2.65349E-02 2.07119E-25
2.72407E-02 1.89738E-25
2.79555E-02 1.73851E-25
2.86793E-02 1.59323E-25
2.94120E-02 1.46034E-25
3.01537E-02 1.33874E-25
3.09043E-02 1.22744E-25
3.16639E-02 1.12553E-25
3.24324E-02 1.03219E-25
3.32098E-02 9.46694E-26
3.39961E-02 8.68351E-26
3.47912E-02 7.96551E-26
3.55952E-02 7.30737E-26
3.64081E-02 6.70398E-26
3.72297E-02 6.15070E-26
3.80602E-02 5.64331E-26
3.88995E-02 5.17794E-26
3.97476E-02 4.75106E-26
4.06044E-02 4.35946E-26
4.14700E-02 4.00019E-26
4.23443E-02 3.67057E-26
4.32273E-02 3.36813E-26
4.41190E-02 3.09062E-26
4.50194E-02 2.83598E-26
4.59284E-02 2.60233E-26
4.68461E-02 2.38794E-26
4.87074E-02 2.01071E-26
5.06030E-02 1.69315E-26
5.25328E-02 1.42586E-26
5.44967E-02 1.20095E-26
5.64946E-02 1.01175E-26
5.85262E-02 8.52645E-27
6.05914E-02 7.18907E-27
6.26901E-02 6.06533E-27
6.48222E-02 5.12149E-27
6.69873E-02 4.32904E-27
6.91854E-02 3.66392E-27
7.14163E-02 3.10584E-27
7.36799E-02 2.63765E-27
7.59760E-02 2.24490E-27
7.83043E-02 1.91540E-27
8.06647E-02 1.63890E-27
8.30571E-02 1.40675E-27
8.54812E-02 1.21169E-27
8.79369E-02 1.04760E-27
9.04240E-02 9.09372E-28
9.29422E-02 7.92708E-28
9.54915E-02 6.94015E-28
9.80716E-02 6.10290E-28
1.00682E-01 5.39028E-28
1.03323E-01 4.78140E-28
1.05995E-01 4.25892E-28
1.08696E-01 3.80843E-28
1.11427E-01 3.41799E-28
1.14188E-01 3.07771E-28
1.16978E-01 2.77945E-28
1.19797E-01 2.51649E-28
1.22645E-01 2.28328E-28
1.25522E-01 2.07529E-28
1.28428E-01 1.88879E-28
1.31361E-01 1.72070E-28
1.34323E-01 1.56851E-28
1.37313E-01 1.43017E-28
1.40330E-01 1.30396E-28
1.43375E-01 1.18849E-28
1.46447E-01 1.08260E-28
1.49545E-01 9.85327E-29
1.52671E-01 8.95853E-29
1.55823E-01 8.13495E-29
1.59001E-01 7.37666E-29
1.62205E-01 6.67858E-29
1.65435E-01 6.03626E-29
1.68690E-01 5.44574E-29
1.71970E-01 4.90346E-29
1.75276E-01 4.40618E-29
1.78606E-01 3.95089E-29
1.81961E-01 3.53483E-29
1.85340E-01 3.15536E-29
1.88743E-01 2.81002E-29
1.92169E-01 2.49648E-29
1.95619E-01 2.21250E-29
1.99092E-01 1.95596E-29
2.02589E-01 1.72484E-29
2.06107E-01 1.51719E-29
2.09649E-01 1.33118E-29
2.13212E-01 1.16507E-29
2.16797E-01 1.01719E-29
2.20404E-01 8.85962E-30
2.24032E-01 7.69913E-30
2.27680E-01 6.67645E-30
2.31350E-01 5.77849E-30
2.35040E-01 4.99301E-30
2.38751E-01 4.30862E-30
2.42481E-01 3.71473E-30
2.46231E-01 3.20156E-30
2.50000E-01 2.76011E-30
2.53788E-01 2.38209E-30
2.57595E-01 2.05995E-30
2.61421E-01 1.78678E-30
2.65264E-01 1.55634E-30
2.69126E-01 1.36299E-30
2.73005E-01 1.20164E-30
2.76901E-01 1.06775E-30
2.80814E-01 9.57265E-31
2.84744E-01 8.66579E-31
2.88691E-01 7.92521E-31
2.92653E-01 7.32303E-31
2.96632E-01 6.83490E-31
3.00625E-01 6.43969E-31
3.04634E-01 6.11919E-31
3.08658E-01 5.85781E-31
3.12697E-01 5.64231E-31
3.16749E-01 5.46155E-31
3.20816E-01 5.30627E-31
3.24896E-01 5.16883E-31
3.28990E-01 5.04303E-31
3.33097E-01 4.92393E-31
3.37216E-01 4.80768E-31
3.41348E-01 4.69136E-31
3.45492E-01 4.57283E-31
3.49647E-01 4.45062E-31
3.53814E-01 4.32382E-31
3.57992E-01 4.19198E-31
3.62181E-01 4.05501E-31
3.66381E-01 3.91312E-31
3.70590E-01 3.76675E-31
3.74810E-01 3.61650E-31
3.79039E-01 3.46308E-31
3.83277E-01 3.30731E-31
3.87524E-01 3.15003E-31
3.91780E-01 2.99210E-31
3.96044E-01 2.83436E-31
4.00316E-01 2.67763E-31
4.04596E-01 2.52270E-31
4.08882E-01 2.37028E-31
4.13176E-01 2.22103E-31
4.17476E-01 2.07555E-31
4.21783E-01 1.93436E-31
4.26095E-01 1.79791E-31
4.30413E-01 1.66656E-31
4.34737E-01 1.54063E-31
4.39065E-01 1.42037E-31
4.43398E-01 1.30593E-31
4.47736E-01 1.19745E-31
4.52077E-01 1.09497E-31
4.56422E-01 9.98517E-32
4.60770E-01 9.08043E-32
4.65122E-01 8.23472E-32
4.69476E-01 7.44693E-32
4.73832E-01 6.71561E-32
4.78190E-01 6.03904E-32
4.82550E-01 5.41531E-32
4.86912E-01 4.84228E-32
4.91274E-01 4.31772E-32
4.95637E-01 3.83926E-32
5.00000E-01 3.40445E-32
5.04363E-01 3.01083E-32
5.08726E-01 2.65589E-32
5.13088E-01 2.33714E-32
5.17450E-01 2.05210E-32
5.21810E-01 1.79836E-32
5.26168E-01 1.57355E-32
5.30524E-01 1.37538E-32
5.34878E-01 1.20162E-32
5.39230E-01 1.05016E-32
5.43578E-01 9.18979E-33
5.47923E-01 8.06150E-33
5.52264E-01 7.09859E-33
5.56602E-01 6.28396E-33
5.60935E-01 5.60163E-33
5.65263E-01 5.03667E-33
5.69587E-01 4.57522E-33
5.73905E-01 4.20447E-33
5.78217E-01 3.91264E-33
5.82524E-01 3.68892E-33
5.86824E-01 3.52345E-33
5.91118E-01 3.40728E-33
5.95404E-01 3.33231E-33
5.99684E-01 3.29128E-33
6.03956E-01 3.27766E-33
6.08220E-01 3.28568E-33
6.12476E-01 3.31022E-33
6.16723E-01 3.34678E-33
6.20961E-01 3.39146E-33
6.25190E-01 3.44087E-33
6.29410E-01 3.49212E-33
6.33619E-01 3.54276E-33
6.37819E-01 3.59076E-33
6.42008E-01 3.63443E-33
6.46186E-01 3.67242E-33
6.50353E-01 3.70369E-33
6.54508E-01 3.72744E-33
6.58652E-01 3.74311E-33
6.62784E-01 3.75035E-33
6.66903E-01 3.74896E-33
6.71010E-01 3.73892E-33
6.75104E-01 3.72033E-33
6.79184E-01 3.69341E-33
6.83251E-01 3.65845E-33
6.87303E-01 3.61583E-33
6.91342E-01 3.56598E-33
6.95366E-01 3.50938E-33
6.99375E-01 3.44656E-33
7.03368E-01 3.37805E-33
7.07347E-01 3.30439E-33
7.11309E-01 3.22616E-33
7.15256E-01 3.14390E-33
7.19186E-01 3.05818E-33
7.23099E-01 2.96952E-33
7.26995E-01 2.87844E-33
7.30874E-01 2.78546E-33
7.34736E-01 2.69105E-33
7.38579E-01 2.59566E-33
7.42405E-01 2.49972E-33
7.46212E-01 2.40363E-33
7.50000E-01 2.30776E-33
7.53769E-01 2.21245E-33
7.57519E-01 2.11802E-33
7.61249E-01 2.02475E-33
7.64960E-01 1.93290E-33
7.68650E-01 1.84271E-33
7.72320E-01 1.75436E-33
7.75968E-01 1.66804E-33
7.79596E-01 1.58391E-33
7.83203E-01 1.50210E-33
7.86788E-01 1.42270E-33
7.90351E-01 1.34583E-33
7.93893E-01 1.27153E-33
7.97411E-01 1.19987E-33
8.00908E-01 1.13088E-33
8.04381E-01 1.06458E-33
8.07831E-01 1.00098E-33
8.11257E-01 9.40065E-34
8.14660E-01 8.81824E-34
8.18039E-01 8.26226E-34
8.21394E-01 7.73240E-34
8.24724E-01 7.22815E-34
8.28030E-01 6.74902E-34
8.31310E-01 6.29441E-34
8.34565E-01 5.86370E-34
8.37795E-01 5.45622E-34
8.40999E-01 5.07125E-34
8.44177E-01 4.70805E-34
8.47329E-01 4.36584E-34
8.50455E-01 4.04386E-34
8.53553E-01 3.74132E-34
8.56625E-01 3.45742E-34
8.59670E-01 3.19136E-34
8.62687E-01 2.94234E-34
8.65677E-01 2.70958E-34
8.68639E-01 2.49232E-34
8.71572E-01 2.28976E-34
8.74478E-01 2.10116E-34
8.77355E-01 1.92580E-34
8.80203E-01 1.76295E-34
8.83022E-01 1.61193E-34
8.85812E-01 1.47204E-34
8.88573E-01 1.34265E-34
8.91304E-01 1.22312E-34
8.94005E-01 1.11286E-34
8.96677E-01 1.01128E-34
8.99318E-01 9.17832E-35
9.01928E-01 8.31978E-35
9.04508E-01 7.53215E-35
9.07058E-01 6.81064E-35
9.09576E-01 6.15058E-35
9.12063E-01 5.54759E-35
9.14519E-01 4.99771E-35
9.16943E-01 4.49689E-35
9.19335E-01 4.04156E-35
9.21696E-01 3.62811E-35
9.24024E-01 3.25335E-35
9.26320E-01 2.91425E-35
9.28584E-01 2.60787E-35
9.30815E-01 2.33159E-35
9.33013E-01 2.08278E-35
9.35178E-01 1.85916E-35
9.37310E-01 1.65853E-35
9.39409E-01 1.47888E-35
9.41474E-01 1.31826E-35
9.43505E-01 1.17495E-35
9.45503E-01 1.04729E-35
9.47467E-01 9.33813E-36
9.49397E-01 8.33107E-36
9.51293E-01 7.43894E-36
9.53154E-01 6.65027E-36
9.54981E-01 5.95400E-36
9.56773E-01 5.34036E-36
9.58530E-01 4.80044E-36
9.60252E-01 4.32583E-36
9.61940E-01 3.90918E-36
9.63592E-01 3.54359E-36
9.65209E-01 3.22305E-36
9.66790E-01 2.94191E-36
9.68336E-01 2.69517E-36
9.69846E-01 2.47839E-36
9.71321E-01 2.28752E-36
9.72759E-01 2.11898E-36
9.74162E-01 1.96960E-36
9.75528E-01 1.83654E-36
9.76858E-01 1.71733E-36
9.78152E-01 1.60981E-36
9.79410E-01 1.51205E-36
9.80631E-01 1.42245E-36
9.81815E-01 1.33956E-36
9.82963E-01 1.26223E-36
9.84074E-01 1.18946E-36
9.85148E-01 1.12032E-36
9.86185E-01 1.05419E-36
9.87185E-01 9.90543E-37
9.88148E-01 9.28843E-37
9.89074E-01 8.68892E-37
9.89962E-01 8.10419E-37
9.90814E-01 7.53178E-37
9.91627E-01 6.97187E-37
9.92404E-01 6.42394E-37
9.93143E-01 5.88772E-37
9.93844E-01 5.36565E-37
9.94508E-01 4.85745E-37
9.95134E-01 4.36471E-37
9.95722E-01 3.88876E-37
9.96273E-01 3.43230E-37
9.96786E-01 2.99666E-37
9.97261E-01 2.58319E-37
9.97698E-01 2.19412E-37
9.98097E-01 1.83214E-37
9.98459E-01 1.49803E-37
9.98782E-01 1.19364E-37
9.99067E-01 9.21441E-38
9.99315E-01 6.82318E-38
9.99524E-01 4.77313E-38
9.99695E-01 3.08074E-38
9.99829E-01 1.75671E-38
9.99924E-01 8.04609E-39
9.99981E-01 2.28759E-39
1.00000E+00 3.68247E-40
