 #
 # Subroutine ELSEPA. Elastic scattering of electrons and positrons
 #                    by neutral atoms and positive ions
 #
 # Projectile: positron
 # Kinetic energy = 1.00000E+08 eV = 3.67493E+06 a.u.
 #
 # WARNING: High-energy factorization with free-atom DF screening.
 #          Absorption, polarization and exchange corrections are
 #          switched off.
 #          Phase shifts are calculated for the bare nucleus.
 #          Scattering amplitudes are not evaluated.
 #
 # Element: Os,  Z =  76,  atomic weight = 1.90230E+02 g/mol
 #
 # Nuclear model: Fermi distribution
 #                Average radius = 6.15380E-13 cm
 #                Skin thickness = 5.46000E-14 cm
 #
 # Number of electrons = 76
 #
 # Total elastic cross section = 7.67757E-18 cm**2 = 2.74171E-01 a0**2
 # 1st transport cross section = 1.04526E-24 cm**2 = 3.73268E-08 a0**2
 # 2nd transport cross section = 3.10662E-24 cm**2 = 1.10940E-07 a0**2
 #
 #
 # Differential cross section:                       MU=(1-COS(THETA))/2
 #
 #  THETA        MU          DCS          DCS        Sherman      error
 #  (deg)                 (cm**2/sr)   (a0**2/sr)    function
 #----------------------------------------------------------------------
0.00000E+00 5.20368E-10
7.61557E-13 5.19237E-10
1.18994E-12 5.18605E-10
1.71346E-12 5.17834E-10
2.33225E-12 5.16927E-10
3.04617E-12 5.15883E-10
3.85530E-12 5.14705E-10
4.75964E-12 5.13394E-10
5.75917E-12 5.11952E-10
6.85391E-12 5.10380E-10
8.04379E-12 5.08682E-10
9.32893E-12 5.06858E-10
1.07092E-11 5.04912E-10
1.21847E-11 5.02847E-10
1.37554E-11 5.00664E-10
1.54213E-11 4.98367E-10
1.71823E-11 4.95958E-10
1.90386E-11 4.93440E-10
2.09900E-11 4.90818E-10
2.30367E-11 4.88088E-10
2.51785E-11 4.85235E-10
2.74156E-11 4.82300E-10
2.97478E-11 4.79287E-10
3.21752E-11 4.76200E-10
3.46979E-11 4.73045E-10
3.73157E-11 4.69761E-10
4.00286E-11 4.66388E-10
4.28368E-11 4.62960E-10
4.57402E-11 4.59481E-10
4.87388E-11 4.55955E-10
5.18325E-11 4.52358E-10
5.50215E-11 4.48637E-10
5.83057E-11 4.44882E-10
6.16850E-11 4.41097E-10
6.51595E-11 4.37288E-10
6.87293E-11 4.33457E-10
7.23943E-11 4.29505E-10
7.61544E-11 4.25510E-10
1.18991E-10 3.84616E-10
1.71347E-10 3.43291E-10
2.33223E-10 3.03614E-10
3.04617E-10 2.67079E-10
3.85531E-10 2.34326E-10
4.75965E-10 2.05487E-10
5.75917E-10 1.80381E-10
6.85389E-10 1.58660E-10
8.04380E-10 1.39893E-10
9.32891E-10 1.23728E-10
1.07092E-09 1.09785E-10
1.21847E-09 9.77313E-11
1.37554E-09 8.72783E-11
1.54213E-09 7.81791E-11
1.71823E-09 7.02203E-11
1.90386E-09 6.32481E-11
2.09900E-09 5.71191E-11
2.30367E-09 5.16405E-11
2.51785E-09 4.65281E-11
2.74156E-09 4.21727E-11
2.97478E-09 3.84398E-11
3.21752E-09 3.52220E-11
3.46978E-09 3.24331E-11
3.73156E-09 2.96839E-11
4.00286E-09 2.71667E-11
4.28368E-09 2.49691E-11
4.57402E-09 2.30420E-11
4.87388E-09 2.13447E-11
5.18326E-09 1.97921E-11
5.50215E-09 1.82675E-11
5.83057E-09 1.69161E-11
6.16850E-09 1.57139E-11
6.51596E-09 1.46408E-11
6.87293E-09 1.36799E-11
7.23942E-09 1.27396E-11
7.61544E-09 1.18753E-11
1.18991E-08 6.37335E-12
1.71347E-08 3.71633E-12
2.33223E-08 2.29011E-12
3.04617E-08 1.47636E-12
3.85531E-08 9.89062E-13
4.75965E-08 6.85953E-13
5.75917E-08 4.91091E-13
6.85389E-08 3.60922E-13
8.04380E-08 2.71933E-13
9.32891E-08 2.09255E-13
1.07092E-07 1.63832E-13
1.21847E-07 1.30151E-13
1.37554E-07 1.04732E-13
1.54213E-07 8.52567E-14
1.71823E-07 7.01132E-14
1.90386E-07 5.81857E-14
2.09900E-07 4.86815E-14
2.30367E-07 4.10267E-14
2.51785E-07 3.48006E-14
2.74156E-07 2.97572E-14
2.97478E-07 2.55545E-14
3.21752E-07 2.20928E-14
3.46978E-07 1.91824E-14
3.73156E-07 1.67435E-14
4.00286E-07 1.46766E-14
4.28368E-07 1.29198E-14
4.57402E-07 1.14190E-14
4.87388E-07 1.01275E-14
5.18325E-07 9.01624E-15
5.50215E-07 8.05017E-15
5.83057E-07 7.21320E-15
6.16850E-07 6.47900E-15
6.51596E-07 5.83829E-15
6.87293E-07 5.27300E-15
7.23942E-07 4.77568E-15
7.61543E-07 4.33498E-15
1.18991E-06 1.84031E-15
1.71347E-06 9.09625E-16
2.33223E-06 4.99805E-16
3.04617E-06 2.96774E-16
3.85531E-06 1.87050E-16
4.75964E-06 1.23614E-16
5.75916E-06 8.49091E-17
6.85388E-06 6.02269E-17
8.04378E-06 4.38929E-17
9.32888E-06 3.27389E-17
1.07092E-05 2.49132E-17
1.21846E-05 1.92923E-17
1.37553E-05 1.51710E-17
1.54212E-05 1.20938E-17
1.71822E-05 9.75868E-18
1.90385E-05 7.95631E-18
2.09899E-05 6.55925E-18
2.30365E-05 5.45477E-18
2.51783E-05 4.57191E-18
2.74153E-05 3.85954E-18
2.97475E-05 3.28008E-18
3.21749E-05 2.80531E-18
3.46974E-05 2.41359E-18
3.73152E-05 2.08818E-18
4.00281E-05 1.81600E-18
4.28362E-05 1.58683E-18
4.57395E-05 1.39266E-18
4.87380E-05 1.22720E-18
5.18317E-05 1.08550E-18
5.50205E-05 9.63601E-19
5.83045E-05 8.58304E-19
6.16838E-05 7.66998E-19
6.51582E-05 6.87530E-19
6.87277E-05 6.18108E-19
7.23925E-05 5.57240E-19
7.61524E-05 5.03792E-19
9.21439E-05 3.44295E-19
1.09658E-04 2.43158E-19
1.28695E-04 1.76568E-19
1.49255E-04 1.31266E-19
1.71338E-04 9.95988E-20
1.94942E-04 7.69223E-20
2.20070E-04 6.03426E-20
2.46720E-04 4.79953E-20
2.74892E-04 3.86478E-20
3.04586E-04 3.14672E-20
3.35803E-04 2.58779E-20
3.68542E-04 2.14750E-20
4.02802E-04 1.79690E-20
4.38585E-04 1.51495E-20
4.75889E-04 1.28612E-20
5.14715E-04 1.09887E-20
5.55063E-04 9.44447E-21
5.96931E-04 8.16187E-21
6.40321E-04 7.08952E-21
6.85233E-04 6.18738E-21
7.31665E-04 5.42408E-21
7.79618E-04 4.77475E-21
8.29092E-04 4.21960E-21
8.80086E-04 3.74270E-21
9.32601E-04 3.33119E-21
9.86636E-04 2.97462E-21
1.04219E-03 2.66441E-21
1.09927E-03 2.39353E-21
1.15786E-03 2.15614E-21
1.21797E-03 1.94740E-21
1.27961E-03 1.76327E-21
1.34276E-03 1.60034E-21
1.40743E-03 1.45575E-21
1.47362E-03 1.32709E-21
1.54133E-03 1.21230E-21
1.61056E-03 1.10962E-21
1.68131E-03 1.01755E-21
1.75357E-03 9.34814E-22
1.82735E-03 8.60287E-22
1.90265E-03 7.93018E-22
1.97947E-03 7.32175E-22
2.05780E-03 6.77037E-22
2.13765E-03 6.26975E-22
2.21902E-03 5.81439E-22
2.30190E-03 5.39947E-22
2.38630E-03 5.02078E-22
2.47222E-03 4.67459E-22
2.55965E-03 4.35764E-22
2.64859E-03 4.06695E-22
2.73905E-03 3.79990E-22
2.83103E-03 3.55430E-22
2.92452E-03 3.32812E-22
3.01952E-03 3.11956E-22
3.11604E-03 2.92700E-22
3.21407E-03 2.74898E-22
3.31362E-03 2.58422E-22
3.41468E-03 2.43154E-22
3.51725E-03 2.28990E-22
3.62133E-03 2.15836E-22
3.72692E-03 2.03607E-22
3.83403E-03 1.92226E-22
3.94265E-03 1.81624E-22
4.05278E-03 1.71738E-22
4.16442E-03 1.62510E-22
4.27757E-03 1.53889E-22
4.39223E-03 1.45828E-22
4.50840E-03 1.38283E-22
4.62608E-03 1.31216E-22
4.74527E-03 1.24591E-22
4.86597E-03 1.18375E-22
4.98817E-03 1.12539E-22
5.11188E-03 1.07055E-22
5.23711E-03 1.01897E-22
5.36383E-03 9.70435E-23
5.49207E-03 9.24727E-23
5.62181E-03 8.81650E-23
5.75306E-03 8.41027E-23
5.88581E-03 8.02692E-23
6.02007E-03 7.66493E-23
6.15583E-03 7.32289E-23
6.29310E-03 6.99950E-23
6.43187E-03 6.69356E-23
6.57214E-03 6.40395E-23
6.71392E-03 6.12965E-23
6.85720E-03 5.86969E-23
7.00198E-03 5.62320E-23
7.14827E-03 5.38934E-23
7.29605E-03 5.16735E-23
7.44534E-03 4.95652E-23
7.59612E-03 4.75619E-23
7.97965E-03 4.29731E-23
8.37255E-03 3.89172E-23
8.77480E-03 3.53218E-23
9.18641E-03 3.21260E-23
9.60736E-03 2.92779E-23
1.00376E-02 2.67334E-23
1.04773E-02 2.44546E-23
1.09262E-02 2.24092E-23
1.13844E-02 2.05692E-23
1.18520E-02 1.89106E-23
1.23288E-02 1.74124E-23
1.28150E-02 1.60566E-23
1.33104E-02 1.48273E-23
1.38150E-02 1.37107E-23
1.43290E-02 1.26948E-23
1.48521E-02 1.17690E-23
1.53845E-02 1.09239E-23
1.59262E-02 1.01514E-23
1.64770E-02 9.44408E-24
1.70371E-02 8.79561E-24
1.76063E-02 8.20024E-24
1.81848E-02 7.65291E-24
1.87724E-02 7.14909E-24
1.93692E-02 6.68476E-24
1.99751E-02 6.25629E-24
2.05901E-02 5.86046E-24
2.12143E-02 5.49438E-24
2.18476E-02 5.15543E-24
2.24900E-02 4.84127E-24
2.31415E-02 4.54980E-24
2.38021E-02 4.27910E-24
2.44717E-02 4.02745E-24
2.51504E-02 3.79330E-24
2.58382E-02 3.57521E-24
2.65349E-02 3.37193E-24
2.72407E-02 3.18227E-24
2.79555E-02 3.00517E-24
2.86793E-02 2.83967E-24
2.94120E-02 2.68489E-24
3.01537E-02 2.54002E-24
3.09043E-02 2.40433E-24
3.16639E-02 2.27713E-24
3.24324E-02 2.15782E-24
3.32098E-02 2.04583E-24
3.39961E-02 1.94063E-24
3.47912E-02 1.84176E-24
3.55952E-02 1.74876E-24
3.64081E-02 1.66124E-24
3.72297E-02 1.57883E-24
3.80602E-02 1.50117E-24
3.88995E-02 1.42796E-24
3.97476E-02 1.35889E-24
4.06044E-02 1.29370E-24
4.14700E-02 1.23214E-24
4.23443E-02 1.17397E-24
4.32273E-02 1.11898E-24
4.41190E-02 1.06697E-24
4.50194E-02 1.01775E-24
4.59284E-02 9.71154E-25
4.68461E-02 9.27016E-25
4.87074E-02 8.45532E-25
5.06030E-02 7.72227E-25
5.25328E-02 7.06167E-25
5.44967E-02 6.46537E-25
5.64946E-02 5.92627E-25
5.85262E-02 5.43814E-25
6.05914E-02 4.99552E-25
6.26901E-02 4.59361E-25
6.48222E-02 4.22817E-25
6.69873E-02 3.89547E-25
6.91854E-02 3.59220E-25
7.14163E-02 3.31542E-25
7.36799E-02 3.06253E-25
7.59760E-02 2.83120E-25
7.83043E-02 2.61939E-25
8.06647E-02 2.42523E-25
8.30571E-02 2.24708E-25
8.54812E-02 2.08347E-25
8.79369E-02 1.93306E-25
9.04240E-02 1.79468E-25
9.29422E-02 1.66724E-25
9.54915E-02 1.54978E-25
9.80716E-02 1.44144E-25
1.00682E-01 1.34143E-25
1.03323E-01 1.24904E-25
1.05995E-01 1.16362E-25
1.08696E-01 1.08460E-25
1.11427E-01 1.01144E-25
1.14188E-01 9.43664E-26
1.16978E-01 8.80837E-26
1.19797E-01 8.22562E-26
1.22645E-01 7.68474E-26
1.25522E-01 7.18244E-26
1.28428E-01 6.71570E-26
1.31361E-01 6.28178E-26
1.34323E-01 5.87813E-26
1.37313E-01 5.50246E-26
1.40330E-01 5.15266E-26
1.43375E-01 4.82678E-26
1.46447E-01 4.52304E-26
1.49545E-01 4.23981E-26
1.52671E-01 3.97558E-26
1.55823E-01 3.72898E-26
1.59001E-01 3.49873E-26
1.62205E-01 3.28366E-26
1.65435E-01 3.08269E-26
1.68690E-01 2.89482E-26
1.71970E-01 2.71914E-26
1.75276E-01 2.55478E-26
1.78606E-01 2.40097E-26
1.81961E-01 2.25698E-26
1.85340E-01 2.12214E-26
1.88743E-01 1.99582E-26
1.92169E-01 1.87746E-26
1.95619E-01 1.76650E-26
1.99092E-01 1.66247E-26
2.02589E-01 1.56489E-26
2.06107E-01 1.47335E-26
2.09649E-01 1.38743E-26
2.13212E-01 1.30679E-26
2.16797E-01 1.23107E-26
2.20404E-01 1.15995E-26
2.24032E-01 1.09314E-26
2.27680E-01 1.03036E-26
2.31350E-01 9.71355E-27
2.35040E-01 9.15884E-27
2.38751E-01 8.63725E-27
2.42481E-01 8.14667E-27
2.46231E-01 7.68518E-27
2.50000E-01 7.25094E-27
2.53788E-01 6.84228E-27
2.57595E-01 6.45760E-27
2.61421E-01 6.09544E-27
2.65264E-01 5.75439E-27
2.69126E-01 5.43319E-27
2.73005E-01 5.13060E-27
2.76901E-01 4.84551E-27
2.80814E-01 4.57686E-27
2.84744E-01 4.32366E-27
2.88691E-01 4.08497E-27
2.92653E-01 3.85993E-27
2.96632E-01 3.64773E-27
3.00625E-01 3.44760E-27
3.04634E-01 3.25882E-27
3.08658E-01 3.08074E-27
3.12697E-01 2.91271E-27
3.16749E-01 2.75414E-27
3.20816E-01 2.60449E-27
3.24896E-01 2.46322E-27
3.28990E-01 2.32987E-27
3.33097E-01 2.20395E-27
3.37216E-01 2.08505E-27
3.41348E-01 1.97276E-27
3.45492E-01 1.86670E-27
3.49647E-01 1.76651E-27
3.53814E-01 1.67186E-27
3.57992E-01 1.58242E-27
3.62181E-01 1.49790E-27
3.66381E-01 1.41803E-27
3.70590E-01 1.34254E-27
3.74810E-01 1.27117E-27
3.79039E-01 1.20370E-27
3.83277E-01 1.13992E-27
3.87524E-01 1.07960E-27
3.91780E-01 1.02256E-27
3.96044E-01 9.68609E-28
4.00316E-01 9.17582E-28
4.04596E-01 8.69313E-28
4.08882E-01 8.23649E-28
4.13176E-01 7.80444E-28
4.17476E-01 7.39563E-28
4.21783E-01 7.00878E-28
4.26095E-01 6.64266E-28
4.30413E-01 6.29614E-28
4.34737E-01 5.96815E-28
4.39065E-01 5.65766E-28
4.43398E-01 5.36372E-28
4.47736E-01 5.08541E-28
4.52077E-01 4.82190E-28
4.56422E-01 4.57237E-28
4.60770E-01 4.33605E-28
4.65122E-01 4.11224E-28
4.69476E-01 3.90026E-28
4.73832E-01 3.69946E-28
4.78190E-01 3.50924E-28
4.82550E-01 3.32903E-28
4.86912E-01 3.15829E-28
4.91274E-01 2.99651E-28
4.95637E-01 2.84321E-28
5.00000E-01 2.69793E-28
5.04363E-01 2.56025E-28
5.08726E-01 2.42975E-28
5.13088E-01 2.30606E-28
5.17450E-01 2.18881E-28
5.21810E-01 2.07766E-28
5.26168E-01 1.97228E-28
5.30524E-01 1.87237E-28
5.34878E-01 1.77763E-28
5.39230E-01 1.68780E-28
5.43578E-01 1.60262E-28
5.47923E-01 1.52182E-28
5.52264E-01 1.44520E-28
5.56602E-01 1.37252E-28
5.60935E-01 1.30358E-28
5.65263E-01 1.23819E-28
5.69587E-01 1.17615E-28
5.73905E-01 1.11729E-28
5.78217E-01 1.06144E-28
5.82524E-01 1.00845E-28
5.86824E-01 9.58165E-29
5.91118E-01 9.10446E-29
5.95404E-01 8.65159E-29
5.99684E-01 8.22178E-29
6.03956E-01 7.81382E-29
6.08220E-01 7.42657E-29
6.12476E-01 7.05897E-29
6.16723E-01 6.71000E-29
6.20961E-01 6.37868E-29
6.25190E-01 6.06412E-29
6.29410E-01 5.76543E-29
6.33619E-01 5.48181E-29
6.37819E-01 5.21248E-29
6.42008E-01 4.95670E-29
6.46186E-01 4.71378E-29
6.50353E-01 4.48305E-29
6.54508E-01 4.26389E-29
6.58652E-01 4.05570E-29
6.62784E-01 3.85794E-29
6.66903E-01 3.67005E-29
6.71010E-01 3.49154E-29
6.75104E-01 3.32192E-29
6.79184E-01 3.16076E-29
6.83251E-01 3.00760E-29
6.87303E-01 2.86206E-29
6.91342E-01 2.72373E-29
6.95366E-01 2.59226E-29
6.99375E-01 2.46730E-29
7.03368E-01 2.34851E-29
7.07347E-01 2.23559E-29
7.11309E-01 2.12823E-29
7.15256E-01 2.02617E-29
7.19186E-01 1.92912E-29
7.23099E-01 1.83684E-29
7.26995E-01 1.74908E-29
7.30874E-01 1.66563E-29
7.34736E-01 1.58626E-29
7.38579E-01 1.51077E-29
7.42405E-01 1.43896E-29
7.46212E-01 1.37065E-29
7.50000E-01 1.30567E-29
7.53769E-01 1.24385E-29
7.57519E-01 1.18502E-29
7.61249E-01 1.12905E-29
7.64960E-01 1.07579E-29
7.68650E-01 1.02510E-29
7.72320E-01 9.76862E-30
7.75968E-01 9.30946E-30
7.79596E-01 8.87240E-30
7.83203E-01 8.45635E-30
7.86788E-01 8.06026E-30
7.90351E-01 7.68315E-30
7.93893E-01 7.32408E-30
7.97411E-01 6.98216E-30
8.00908E-01 6.65655E-30
8.04381E-01 6.34645E-30
8.07831E-01 6.05108E-30
8.11257E-01 5.76974E-30
8.14660E-01 5.50173E-30
8.18039E-01 5.24640E-30
8.21394E-01 5.00312E-30
8.24724E-01 4.77132E-30
8.28030E-01 4.55043E-30
8.31310E-01 4.33992E-30
8.34565E-01 4.13928E-30
8.37795E-01 3.94803E-30
8.40999E-01 3.76572E-30
8.44177E-01 3.59192E-30
8.47329E-01 3.42621E-30
8.50455E-01 3.26820E-30
8.53553E-01 3.11753E-30
8.56625E-01 2.97383E-30
8.59670E-01 2.83677E-30
8.62687E-01 2.70603E-30
8.65677E-01 2.58132E-30
8.68639E-01 2.46233E-30
8.71572E-01 2.34880E-30
8.74478E-01 2.24046E-30
8.77355E-01 2.13708E-30
8.80203E-01 2.03840E-30
8.83022E-01 1.94421E-30
8.85812E-01 1.85430E-30
8.88573E-01 1.76847E-30
8.91304E-01 1.68651E-30
8.94005E-01 1.60825E-30
8.96677E-01 1.53351E-30
8.99318E-01 1.46213E-30
9.01928E-01 1.39396E-30
9.04508E-01 1.32883E-30
9.07058E-01 1.26661E-30
9.09576E-01 1.20716E-30
9.12063E-01 1.15036E-30
9.14519E-01 1.09608E-30
9.16943E-01 1.04421E-30
9.19335E-01 9.94623E-31
9.21696E-01 9.47229E-31
9.24024E-01 9.01923E-31
9.26320E-01 8.58609E-31
9.28584E-01 8.17197E-31
9.30815E-01 7.77600E-31
9.33013E-01 7.39735E-31
9.35178E-01 7.03525E-31
9.37310E-01 6.68894E-31
9.39409E-01 6.35773E-31
9.41474E-01 6.04093E-31
9.43505E-01 5.73791E-31
9.45503E-01 5.44805E-31
9.47467E-01 5.17077E-31
9.49397E-01 4.90552E-31
9.51293E-01 4.65177E-31
9.53154E-01 4.40902E-31
9.54981E-01 4.17680E-31
9.56773E-01 3.95465E-31
9.58530E-01 3.74215E-31
9.60252E-01 3.53887E-31
9.61940E-01 3.34443E-31
9.63592E-01 3.15846E-31
9.65209E-01 2.98060E-31
9.66790E-01 2.81052E-31
9.68336E-01 2.64790E-31
9.69846E-01 2.49244E-31
9.71321E-01 2.34384E-31
9.72759E-01 2.20183E-31
9.74162E-01 2.06615E-31
9.75528E-01 1.93655E-31
9.76858E-01 1.81280E-31
9.78152E-01 1.69466E-31
9.79410E-01 1.58194E-31
9.80631E-01 1.47443E-31
9.81815E-01 1.37193E-31
9.82963E-01 1.27426E-31
9.84074E-01 1.18125E-31
9.85148E-01 1.09274E-31
9.86185E-01 1.00857E-31
9.87185E-01 9.28605E-32
9.88148E-01 8.52694E-32
9.89074E-01 7.80710E-32
9.89962E-01 7.12529E-32
9.90814E-01 6.48037E-32
9.91627E-01 5.87122E-32
9.92404E-01 5.29682E-32
9.93143E-01 4.75620E-32
9.93844E-01 4.24844E-32
9.94508E-01 3.77270E-32
9.95134E-01 3.32819E-32
9.95722E-01 2.91417E-32
9.96273E-01 2.52994E-32
9.96786E-01 2.17487E-32
9.97261E-01 1.84839E-32
9.97698E-01 1.54995E-32
9.98097E-01 1.27906E-32
9.98459E-01 1.03528E-32
9.98782E-01 8.18218E-33
9.99067E-01 6.27508E-33
9.99315E-01 4.62848E-33
9.99524E-01 3.23971E-33
9.99695E-01 2.10649E-33
9.99829E-01 1.22698E-33
9.99924E-01 5.99777E-34
9.99981E-01 2.23879E-34
1.00000E+00 9.86439E-35
