 #
 # Subroutine ELSEPA. Elastic scattering of electrons and positrons
 #                    by neutral atoms and positive ions
 #
 # Projectile: positron
 # Kinetic energy = 2.50000E+06 eV = 9.18733E+04 a.u.
 #
 # WARNING: High-energy factorization with free-atom DF screening.
 #          Absorption, polarization and exchange corrections are
 #          switched off.
 #          Phase shifts are calculated for the bare nucleus.
 #          Scattering amplitudes are not evaluated.
 #
 # Element: Os,  Z =  76,  atomic weight = 1.90230E+02 g/mol
 #
 # Nuclear model: Fermi distribution
 #                Average radius = 6.15380E-13 cm
 #                Skin thickness = 5.46000E-14 cm
 #
 # Number of electrons = 76
 #
 # Total elastic cross section = 7.88661E-18 cm**2 = 2.81636E-01 a0**2
 # 1st transport cross section = 7.05315E-22 cm**2 = 2.51873E-05 a0**2
 # 2nd transport cross section = 2.01160E-21 cm**2 = 7.18355E-05 a0**2
 #
 #
 # Differential cross section:                       MU=(1-COS(THETA))/2
 #
 #  THETA        MU          DCS          DCS        Sherman      error
 #  (deg)                 (cm**2/sr)   (a0**2/sr)    function
 #----------------------------------------------------------------------
0.00000E+00 4.66987E-13
7.61557E-13 4.66986E-13
1.18994E-12 4.66985E-13
1.71346E-12 4.66984E-13
2.33225E-12 4.66983E-13
3.04617E-12 4.66982E-13
3.85530E-12 4.66981E-13
4.75964E-12 4.66980E-13
5.75917E-12 4.66979E-13
6.85391E-12 4.66977E-13
8.04379E-12 4.66976E-13
9.32893E-12 4.66974E-13
1.07092E-11 4.66973E-13
1.21847E-11 4.66971E-13
1.37554E-11 4.66969E-13
1.54213E-11 4.66967E-13
1.71823E-11 4.66965E-13
1.90386E-11 4.66962E-13
2.09900E-11 4.66960E-13
2.30367E-11 4.66957E-13
2.51785E-11 4.66955E-13
2.74156E-11 4.66952E-13
2.97478E-11 4.66949E-13
3.21752E-11 4.66946E-13
3.46979E-11 4.66943E-13
3.73157E-11 4.66940E-13
4.00286E-11 4.66937E-13
4.28368E-11 4.66933E-13
4.57402E-11 4.66930E-13
4.87388E-11 4.66926E-13
5.18325E-11 4.66923E-13
5.50215E-11 4.66919E-13
5.83057E-11 4.66915E-13
6.16850E-11 4.66911E-13
6.51595E-11 4.66907E-13
6.87293E-11 4.66903E-13
7.23943E-11 4.66898E-13
7.61544E-11 4.66894E-13
1.18991E-10 4.66843E-13
1.71347E-10 4.66781E-13
2.33223E-10 4.66708E-13
3.04617E-10 4.66625E-13
3.85531E-10 4.66530E-13
4.75965E-10 4.66424E-13
5.75917E-10 4.66308E-13
6.85389E-10 4.66180E-13
8.04380E-10 4.66042E-13
9.32891E-10 4.65892E-13
1.07092E-09 4.65732E-13
1.21847E-09 4.65561E-13
1.37554E-09 4.65379E-13
1.54213E-09 4.65186E-13
1.71823E-09 4.64983E-13
1.90386E-09 4.64768E-13
2.09900E-09 4.64543E-13
2.30367E-09 4.64308E-13
2.51785E-09 4.64061E-13
2.74156E-09 4.63804E-13
2.97478E-09 4.63536E-13
3.21752E-09 4.63258E-13
3.46978E-09 4.62969E-13
3.73156E-09 4.62670E-13
4.00286E-09 4.62360E-13
4.28368E-09 4.62040E-13
4.57402E-09 4.61709E-13
4.87388E-09 4.61368E-13
5.18326E-09 4.61016E-13
5.50215E-09 4.60654E-13
5.83057E-09 4.60282E-13
6.16850E-09 4.59900E-13
6.51596E-09 4.59508E-13
6.87293E-09 4.59105E-13
7.23942E-09 4.58693E-13
7.61544E-09 4.58270E-13
1.18991E-08 4.53504E-13
1.71347E-08 4.47796E-13
2.33223E-08 4.41211E-13
3.04617E-08 4.33779E-13
3.85531E-08 4.25676E-13
4.75965E-08 4.16870E-13
5.75917E-08 4.07587E-13
6.85389E-08 3.97714E-13
8.04380E-08 3.87576E-13
9.32891E-08 3.76984E-13
1.07092E-07 3.66281E-13
1.21847E-07 3.55323E-13
1.37554E-07 3.44346E-13
1.54213E-07 3.33305E-13
1.71823E-07 3.22308E-13
1.90386E-07 3.11416E-13
2.09900E-07 3.00605E-13
2.30367E-07 2.90043E-13
2.51785E-07 2.79578E-13
2.74156E-07 2.69478E-13
2.97478E-07 2.59477E-13
3.21752E-07 2.49888E-13
3.46978E-07 2.40465E-13
3.73156E-07 2.31431E-13
4.00286E-07 2.22637E-13
4.28368E-07 2.14190E-13
4.57402E-07 2.06035E-13
4.87388E-07 1.98181E-13
5.18325E-07 1.90655E-13
5.50215E-07 1.83385E-13
5.83057E-07 1.76465E-13
6.16850E-07 1.69759E-13
6.51596E-07 1.63408E-13
6.87293E-07 1.57240E-13
7.23942E-07 1.51399E-13
7.61543E-07 1.45758E-13
1.18991E-06 1.01276E-13
1.71347E-06 7.22994E-14
2.33223E-06 5.29601E-14
3.04617E-06 3.92128E-14
3.85531E-06 3.00914E-14
4.75964E-06 2.32759E-14
5.75916E-06 1.84598E-14
6.85388E-06 1.46741E-14
8.04378E-06 1.19309E-14
9.32888E-06 9.71909E-15
1.07092E-05 8.05279E-15
1.21846E-05 6.70158E-15
1.37553E-05 5.63962E-15
1.54212E-05 4.77176E-15
1.71822E-05 4.06592E-15
1.90385E-05 3.48309E-15
2.09899E-05 2.99987E-15
2.30365E-05 2.59937E-15
2.51783E-05 2.25636E-15
2.74153E-05 1.97085E-15
2.97475E-05 1.72276E-15
3.21749E-05 1.51497E-15
3.46974E-05 1.33435E-15
3.73152E-05 1.18106E-15
4.00281E-05 1.04790E-15
4.28362E-05 9.33270E-16
4.57395E-05 8.33485E-16
4.87380E-05 7.46563E-16
5.18317E-05 6.70695E-16
5.50205E-05 6.04015E-16
5.83045E-05 5.45657E-16
6.16838E-05 4.94133E-16
6.51582E-05 4.48884E-16
6.87277E-05 4.08293E-16
7.23925E-05 3.72428E-16
7.61524E-05 3.40411E-16
9.21439E-05 2.42857E-16
1.09658E-04 1.78433E-16
1.28695E-04 1.34187E-16
1.49255E-04 1.02876E-16
1.71338E-04 8.02249E-17
1.94942E-04 6.34976E-17
2.20070E-04 5.09070E-17
2.46720E-04 4.12747E-17
2.74892E-04 3.37819E-17
3.04586E-04 2.79372E-17
3.35803E-04 2.32940E-17
3.68542E-04 1.95848E-17
4.02802E-04 1.65719E-17
4.38585E-04 1.41267E-17
4.75889E-04 1.21050E-17
5.14715E-04 1.04395E-17
5.55063E-04 9.04442E-18
5.96931E-04 7.87793E-18
6.40321E-04 6.89106E-18
6.85233E-04 6.05481E-18
7.31665E-04 5.34092E-18
7.79618E-04 4.72899E-18
8.29092E-04 4.20236E-18
8.80086E-04 3.74643E-18
9.32601E-04 3.35117E-18
9.86636E-04 3.00597E-18
1.04219E-03 2.70467E-18
1.09927E-03 2.43951E-18
1.15786E-03 2.20647E-18
1.21797E-03 2.00027E-18
1.27961E-03 1.81777E-18
1.34276E-03 1.65548E-18
1.40743E-03 1.51094E-18
1.47362E-03 1.38180E-18
1.54133E-03 1.26612E-18
1.61056E-03 1.16233E-18
1.68131E-03 1.06887E-18
1.75357E-03 9.84679E-19
1.82735E-03 9.08505E-19
1.90265E-03 8.39629E-19
1.97947E-03 7.77056E-19
2.05780E-03 7.20248E-19
2.13765E-03 6.68480E-19
2.21902E-03 6.21292E-19
2.30190E-03 5.78166E-19
2.38630E-03 5.38707E-19
2.47222E-03 5.02547E-19
2.55965E-03 4.69349E-19
2.64859E-03 4.38850E-19
2.73905E-03 4.10758E-19
2.83103E-03 3.84888E-19
2.92452E-03 3.60990E-19
3.01952E-03 3.38929E-19
3.11604E-03 3.18502E-19
3.21407E-03 2.99594E-19
3.31362E-03 2.82053E-19
3.41468E-03 2.65775E-19
3.51725E-03 2.50646E-19
3.62133E-03 2.36572E-19
3.72692E-03 2.23468E-19
3.83403E-03 2.11250E-19
3.94265E-03 1.99855E-19
4.05278E-03 1.89209E-19
4.16442E-03 1.79263E-19
4.27757E-03 1.69952E-19
4.39223E-03 1.61240E-19
4.50840E-03 1.53071E-19
4.62608E-03 1.45412E-19
4.74527E-03 1.38222E-19
4.86597E-03 1.31469E-19
4.98817E-03 1.25121E-19
5.11188E-03 1.19148E-19
5.23711E-03 1.13526E-19
5.36383E-03 1.08229E-19
5.49207E-03 1.03237E-19
5.62181E-03 9.85252E-20
5.75306E-03 9.40798E-20
5.88581E-03 8.98787E-20
6.02007E-03 8.59096E-20
6.15583E-03 8.21547E-20
6.29310E-03 7.86023E-20
6.43187E-03 7.52381E-20
6.57214E-03 7.20511E-20
6.71392E-03 6.90300E-20
6.85720E-03 6.61645E-20
7.00198E-03 6.34455E-20
7.14827E-03 6.08634E-20
7.29605E-03 5.84111E-20
7.44534E-03 5.60797E-20
7.59612E-03 5.38633E-20
7.97965E-03 4.87792E-20
8.37255E-03 4.42779E-20
8.77480E-03 4.02811E-20
9.18641E-03 3.67223E-20
9.60736E-03 3.35458E-20
1.00376E-02 3.07035E-20
1.04773E-02 2.81539E-20
1.09262E-02 2.58620E-20
1.13844E-02 2.37972E-20
1.18520E-02 2.19330E-20
1.23288E-02 2.02467E-20
1.28150E-02 1.87183E-20
1.33104E-02 1.73305E-20
1.38150E-02 1.60680E-20
1.43290E-02 1.49177E-20
1.48521E-02 1.38677E-20
1.53845E-02 1.29079E-20
1.59262E-02 1.20290E-20
1.64770E-02 1.12232E-20
1.70371E-02 1.04832E-20
1.76063E-02 9.80269E-21
1.81848E-02 9.17610E-21
1.87724E-02 8.59839E-21
1.93692E-02 8.06505E-21
1.99751E-02 7.57209E-21
2.05901E-02 7.11592E-21
2.12143E-02 6.69327E-21
2.18476E-02 6.30128E-21
2.24900E-02 5.93732E-21
2.31415E-02 5.59901E-21
2.38021E-02 5.28424E-21
2.44717E-02 4.99109E-21
2.51504E-02 4.71778E-21
2.58382E-02 4.46276E-21
2.65349E-02 4.22454E-21
2.72407E-02 4.00190E-21
2.79555E-02 3.79354E-21
2.86793E-02 3.59847E-21
2.94120E-02 3.41562E-21
3.01537E-02 3.24414E-21
3.09043E-02 3.08315E-21
3.16639E-02 2.93194E-21
3.24324E-02 2.78977E-21
3.32098E-02 2.65603E-21
3.39961E-02 2.53012E-21
3.47912E-02 2.41150E-21
3.55952E-02 2.29967E-21
3.64081E-02 2.19417E-21
3.72297E-02 2.09459E-21
3.80602E-02 2.00052E-21
3.88995E-02 1.91162E-21
3.97476E-02 1.82754E-21
4.06044E-02 1.74798E-21
4.14700E-02 1.67264E-21
4.23443E-02 1.60128E-21
4.32273E-02 1.53363E-21
4.41190E-02 1.46947E-21
4.50194E-02 1.40859E-21
4.59284E-02 1.35079E-21
4.68461E-02 1.29588E-21
4.87074E-02 1.19409E-21
5.06030E-02 1.10197E-21
5.25328E-02 1.01846E-21
5.44967E-02 9.42603E-22
5.64946E-02 8.73587E-22
5.85262E-02 8.10689E-22
6.05914E-02 7.53273E-22
6.26901E-02 7.00781E-22
6.48222E-02 6.52718E-22
6.69873E-02 6.08646E-22
6.91854E-02 5.68178E-22
7.14163E-02 5.30968E-22
7.36799E-02 4.96709E-22
7.59760E-02 4.65127E-22
7.83043E-02 4.35976E-22
8.06647E-02 4.09037E-22
8.30571E-02 3.84114E-22
8.54812E-02 3.61029E-22
8.79369E-02 3.39625E-22
9.04240E-02 3.19756E-22
9.29422E-02 3.01295E-22
9.54915E-02 2.84124E-22
9.80716E-02 2.68137E-22
1.00682E-01 2.53239E-22
1.03323E-01 2.39343E-22
1.05995E-01 2.26370E-22
1.08696E-01 2.14248E-22
1.11427E-01 2.02911E-22
1.14188E-01 1.92299E-22
1.16978E-01 1.82359E-22
1.19797E-01 1.73040E-22
1.22645E-01 1.64298E-22
1.25522E-01 1.56089E-22
1.28428E-01 1.48376E-22
1.31361E-01 1.41124E-22
1.34323E-01 1.34300E-22
1.37313E-01 1.27875E-22
1.40330E-01 1.21821E-22
1.43375E-01 1.16113E-22
1.46447E-01 1.10728E-22
1.49545E-01 1.05645E-22
1.52671E-01 1.00844E-22
1.55823E-01 9.63058E-23
1.59001E-01 9.20141E-23
1.62205E-01 8.79530E-23
1.65435E-01 8.41082E-23
1.68690E-01 8.04661E-23
1.71970E-01 7.70141E-23
1.75276E-01 7.37405E-23
1.78606E-01 7.06346E-23
1.81961E-01 6.76863E-23
1.85340E-01 6.48862E-23
1.88743E-01 6.22255E-23
1.92169E-01 5.96961E-23
1.95619E-01 5.72905E-23
1.99092E-01 5.50014E-23
2.02589E-01 5.28223E-23
2.06107E-01 5.07470E-23
2.09649E-01 4.87697E-23
2.13212E-01 4.68849E-23
2.16797E-01 4.50875E-23
2.20404E-01 4.33729E-23
2.24032E-01 4.17365E-23
2.27680E-01 4.01742E-23
2.31350E-01 3.86820E-23
2.35040E-01 3.72562E-23
2.38751E-01 3.58934E-23
2.42481E-01 3.45902E-23
2.46231E-01 3.33437E-23
2.50000E-01 3.21510E-23
2.53788E-01 3.10093E-23
2.57595E-01 2.99160E-23
2.61421E-01 2.88689E-23
2.65264E-01 2.78654E-23
2.69126E-01 2.69037E-23
2.73005E-01 2.59815E-23
2.76901E-01 2.50970E-23
2.80814E-01 2.42484E-23
2.84744E-01 2.34341E-23
2.88691E-01 2.26522E-23
2.92653E-01 2.19015E-23
2.96632E-01 2.11803E-23
3.00625E-01 2.04873E-23
3.04634E-01 1.98213E-23
3.08658E-01 1.91811E-23
3.12697E-01 1.85653E-23
3.16749E-01 1.79730E-23
3.20816E-01 1.74031E-23
3.24896E-01 1.68546E-23
3.28990E-01 1.63266E-23
3.33097E-01 1.58181E-23
3.37216E-01 1.53284E-23
3.41348E-01 1.48565E-23
3.45492E-01 1.44019E-23
3.49647E-01 1.39636E-23
3.53814E-01 1.35411E-23
3.57992E-01 1.31336E-23
3.62181E-01 1.27406E-23
3.66381E-01 1.23614E-23
3.70590E-01 1.19955E-23
3.74810E-01 1.16423E-23
3.79039E-01 1.13013E-23
3.83277E-01 1.09720E-23
3.87524E-01 1.06540E-23
3.91780E-01 1.03468E-23
3.96044E-01 1.00499E-23
4.00316E-01 9.76299E-24
4.04596E-01 9.48565E-24
4.08882E-01 9.21750E-24
4.13176E-01 8.95819E-24
4.17476E-01 8.70738E-24
4.21783E-01 8.46474E-24
4.26095E-01 8.22997E-24
4.30413E-01 8.00276E-24
4.34737E-01 7.78283E-24
4.39065E-01 7.56991E-24
4.43398E-01 7.36374E-24
4.47736E-01 7.16406E-24
4.52077E-01 6.97065E-24
4.56422E-01 6.78326E-24
4.60770E-01 6.60169E-24
4.65122E-01 6.42572E-24
4.69476E-01 6.25515E-24
4.73832E-01 6.08978E-24
4.78190E-01 5.92944E-24
4.82550E-01 5.77394E-24
4.86912E-01 5.62311E-24
4.91274E-01 5.47680E-24
4.95637E-01 5.33484E-24
5.00000E-01 5.19708E-24
5.04363E-01 5.06338E-24
5.08726E-01 4.93360E-24
5.13088E-01 4.80760E-24
5.17450E-01 4.68527E-24
5.21810E-01 4.56646E-24
5.26168E-01 4.45107E-24
5.30524E-01 4.33899E-24
5.34878E-01 4.23009E-24
5.39230E-01 4.12428E-24
5.43578E-01 4.02146E-24
5.47923E-01 3.92152E-24
5.52264E-01 3.82437E-24
5.56602E-01 3.72993E-24
5.60935E-01 3.63811E-24
5.65263E-01 3.54882E-24
5.69587E-01 3.46197E-24
5.73905E-01 3.37750E-24
5.78217E-01 3.29533E-24
5.82524E-01 3.21539E-24
5.86824E-01 3.13760E-24
5.91118E-01 3.06190E-24
5.95404E-01 2.98823E-24
5.99684E-01 2.91652E-24
6.03956E-01 2.84671E-24
6.08220E-01 2.77874E-24
6.12476E-01 2.71256E-24
6.16723E-01 2.64812E-24
6.20961E-01 2.58535E-24
6.25190E-01 2.52422E-24
6.29410E-01 2.46467E-24
6.33619E-01 2.40665E-24
6.37819E-01 2.35013E-24
6.42008E-01 2.29505E-24
6.46186E-01 2.24137E-24
6.50353E-01 2.18906E-24
6.54508E-01 2.13807E-24
6.58652E-01 2.08836E-24
6.62784E-01 2.03990E-24
6.66903E-01 1.99266E-24
6.71010E-01 1.94659E-24
6.75104E-01 1.90166E-24
6.79184E-01 1.85785E-24
6.83251E-01 1.81512E-24
6.87303E-01 1.77344E-24
6.91342E-01 1.73278E-24
6.95366E-01 1.69311E-24
6.99375E-01 1.65441E-24
7.03368E-01 1.61664E-24
7.07347E-01 1.57979E-24
7.11309E-01 1.54383E-24
7.15256E-01 1.50873E-24
7.19186E-01 1.47447E-24
7.23099E-01 1.44103E-24
7.26995E-01 1.40839E-24
7.30874E-01 1.37652E-24
7.34736E-01 1.34540E-24
7.38579E-01 1.31502E-24
7.42405E-01 1.28535E-24
7.46212E-01 1.25638E-24
7.50000E-01 1.22809E-24
7.53769E-01 1.20046E-24
7.57519E-01 1.17347E-24
7.61249E-01 1.14711E-24
7.64960E-01 1.12135E-24
7.68650E-01 1.09620E-24
7.72320E-01 1.07162E-24
7.75968E-01 1.04761E-24
7.79596E-01 1.02415E-24
7.83203E-01 1.00123E-24
7.86788E-01 9.78833E-25
7.90351E-01 9.56946E-25
7.93893E-01 9.35557E-25
7.97411E-01 9.14654E-25
8.00908E-01 8.94226E-25
8.04381E-01 8.74260E-25
8.07831E-01 8.54746E-25
8.11257E-01 8.35672E-25
8.14660E-01 8.17028E-25
8.18039E-01 7.98804E-25
8.21394E-01 7.80989E-25
8.24724E-01 7.63575E-25
8.28030E-01 7.46551E-25
8.31310E-01 7.29908E-25
8.34565E-01 7.13638E-25
8.37795E-01 6.97732E-25
8.40999E-01 6.82181E-25
8.44177E-01 6.66978E-25
8.47329E-01 6.52114E-25
8.50455E-01 6.37581E-25
8.53553E-01 6.23374E-25
8.56625E-01 6.09482E-25
8.59670E-01 5.95901E-25
8.62687E-01 5.82623E-25
8.65677E-01 5.69641E-25
8.68639E-01 5.56949E-25
8.71572E-01 5.44540E-25
8.74478E-01 5.32409E-25
8.77355E-01 5.20549E-25
8.80203E-01 5.08954E-25
8.83022E-01 4.97619E-25
8.85812E-01 4.86539E-25
8.88573E-01 4.75707E-25
8.91304E-01 4.65119E-25
8.94005E-01 4.54770E-25
8.96677E-01 4.44655E-25
8.99318E-01 4.34769E-25
9.01928E-01 4.25107E-25
9.04508E-01 4.15665E-25
9.07058E-01 4.06438E-25
9.09576E-01 3.97423E-25
9.12063E-01 3.88614E-25
9.14519E-01 3.80009E-25
9.16943E-01 3.71602E-25
9.19335E-01 3.63391E-25
9.21696E-01 3.55371E-25
9.24024E-01 3.47539E-25
9.26320E-01 3.39891E-25
9.28584E-01 3.32424E-25
9.30815E-01 3.25134E-25
9.33013E-01 3.18019E-25
9.35178E-01 3.11075E-25
9.37310E-01 3.04299E-25
9.39409E-01 2.97689E-25
9.41474E-01 2.91240E-25
9.43505E-01 2.84951E-25
9.45503E-01 2.78819E-25
9.47467E-01 2.72841E-25
9.49397E-01 2.67014E-25
9.51293E-01 2.61337E-25
9.53154E-01 2.55806E-25
9.54981E-01 2.50419E-25
9.56773E-01 2.45174E-25
9.58530E-01 2.40069E-25
9.60252E-01 2.35101E-25
9.61940E-01 2.30269E-25
9.63592E-01 2.25570E-25
9.65209E-01 2.21003E-25
9.66790E-01 2.16566E-25
9.68336E-01 2.12256E-25
9.69846E-01 2.08072E-25
9.71321E-01 2.04013E-25
9.72759E-01 2.00076E-25
9.74162E-01 1.96260E-25
9.75528E-01 1.92564E-25
9.76858E-01 1.88985E-25
9.78152E-01 1.85523E-25
9.79410E-01 1.82176E-25
9.80631E-01 1.78943E-25
9.81815E-01 1.75822E-25
9.82963E-01 1.72812E-25
9.84074E-01 1.69913E-25
9.85148E-01 1.67121E-25
9.86185E-01 1.64438E-25
9.87185E-01 1.61861E-25
9.88148E-01 1.59390E-25
9.89074E-01 1.57023E-25
9.89962E-01 1.54760E-25
9.90814E-01 1.52600E-25
9.91627E-01 1.50541E-25
9.92404E-01 1.48584E-25
9.93143E-01 1.46727E-25
9.93844E-01 1.44969E-25
9.94508E-01 1.43311E-25
9.95134E-01 1.41750E-25
9.95722E-01 1.40287E-25
9.96273E-01 1.38922E-25
9.96786E-01 1.37652E-25
9.97261E-01 1.36479E-25
9.97698E-01 1.35401E-25
9.98097E-01 1.34418E-25
9.98459E-01 1.33531E-25
9.98782E-01 1.32737E-25
9.99067E-01 1.32038E-25
9.99315E-01 1.31432E-25
9.99524E-01 1.30920E-25
9.99695E-01 1.30501E-25
9.99829E-01 1.30176E-25
9.99924E-01 1.29943E-25
9.99981E-01 1.29804E-25
1.00000E+00 1.29757E-25
