 #
 # Subroutine ELSEPA. Elastic scattering of electrons and positrons
 #                    by neutral atoms and positive ions
 #
 # Projectile: positron
 # Kinetic energy = 8.00000E+07 eV = 2.93995E+06 a.u.
 #
 # WARNING: High-energy factorization with free-atom DF screening.
 #          Absorption, polarization and exchange corrections are
 #          switched off.
 #          Phase shifts are calculated for the bare nucleus.
 #          Scattering amplitudes are not evaluated.
 #
 # Element: Os,  Z =  76,  atomic weight = 1.90230E+02 g/mol
 #
 # Nuclear model: Fermi distribution
 #                Average radius = 6.15380E-13 cm
 #                Skin thickness = 5.46000E-14 cm
 #
 # Number of electrons = 76
 #
 # Total elastic cross section = 7.67718E-18 cm**2 = 2.74157E-01 a0**2
 # 1st transport cross section = 1.61032E-24 cm**2 = 5.75055E-08 a0**2
 # 2nd transport cross section = 4.76703E-24 cm**2 = 1.70234E-07 a0**2
 #
 #
 # Differential cross section:                       MU=(1-COS(THETA))/2
 #
 #  THETA        MU          DCS          DCS        Sherman      error
 #  (deg)                 (cm**2/sr)   (a0**2/sr)    function
 #----------------------------------------------------------------------
0.00000E+00 3.33883E-10
7.61557E-13 3.33416E-10
1.18994E-12 3.33155E-10
1.71346E-12 3.32837E-10
2.33225E-12 3.32462E-10
3.04617E-12 3.32030E-10
3.85530E-12 3.31542E-10
4.75964E-12 3.30998E-10
5.75917E-12 3.30398E-10
6.85391E-12 3.29744E-10
8.04379E-12 3.29036E-10
9.32893E-12 3.28273E-10
1.07092E-11 3.27458E-10
1.21847E-11 3.26591E-10
1.37554E-11 3.25672E-10
1.54213E-11 3.24702E-10
1.71823E-11 3.23682E-10
1.90386E-11 3.22613E-10
2.09900E-11 3.21495E-10
2.30367E-11 3.20331E-10
2.51785E-11 3.19120E-10
2.74156E-11 3.17864E-10
2.97478E-11 3.16563E-10
3.21752E-11 3.15219E-10
3.46979E-11 3.13833E-10
3.73157E-11 3.12393E-10
4.00286E-11 3.10913E-10
4.28368E-11 3.09399E-10
4.57402E-11 3.07853E-10
4.87388E-11 3.06277E-10
5.18325E-11 3.04671E-10
5.50215E-11 3.03038E-10
5.83057E-11 3.01335E-10
6.16850E-11 2.99604E-10
6.51595E-11 2.97849E-10
6.87293E-11 2.96073E-10
7.23943E-11 2.94276E-10
7.61544E-11 2.92461E-10
1.18991E-10 2.72889E-10
1.71347E-10 2.51943E-10
2.33223E-10 2.30576E-10
3.04617E-10 2.09644E-10
3.85531E-10 1.89720E-10
4.75965E-10 1.71141E-10
5.75917E-10 1.54150E-10
6.85389E-10 1.38728E-10
8.04380E-10 1.24927E-10
9.32891E-10 1.12560E-10
1.07092E-09 1.01606E-10
1.21847E-09 9.18291E-11
1.37554E-09 8.31878E-11
1.54213E-09 7.54851E-11
1.71823E-09 6.86565E-11
1.90386E-09 6.25607E-11
2.09900E-09 5.71301E-11
2.30367E-09 5.22683E-11
2.51785E-09 4.79128E-11
2.74156E-09 4.40005E-11
2.97478E-09 4.04761E-11
3.21752E-09 3.72996E-11
3.46978E-09 3.44229E-11
3.73156E-09 3.16628E-11
4.00286E-09 2.91731E-11
4.28368E-09 2.69808E-11
4.57402E-09 2.50428E-11
4.87388E-09 2.33235E-11
5.18326E-09 2.17927E-11
5.50215E-09 2.04251E-11
5.83057E-09 1.89847E-11
6.16850E-09 1.76799E-11
6.51596E-09 1.65103E-11
6.87293E-09 1.54589E-11
7.23942E-09 1.45109E-11
7.61544E-09 1.36539E-11
1.18991E-08 7.59286E-12
1.71347E-08 4.57818E-12
2.33223E-08 2.92003E-12
3.04617E-08 1.94309E-12
3.85531E-08 1.33603E-12
4.75965E-08 9.43259E-13
5.75917E-08 6.82859E-13
6.85389E-08 5.05239E-13
8.04380E-08 3.81978E-13
9.32891E-08 2.94262E-13
1.07092E-07 2.30534E-13
1.21847E-07 1.83462E-13
1.37554E-07 1.48104E-13
1.54213E-07 1.20963E-13
1.71823E-07 9.98323E-14
1.90386E-07 8.31254E-14
2.09900E-07 6.97930E-14
2.30367E-07 5.90403E-14
2.51785E-07 5.02917E-14
2.74156E-07 4.31082E-14
2.97478E-07 3.71589E-14
3.21752E-07 3.21988E-14
3.46978E-07 2.80343E-14
3.73156E-07 2.45044E-14
4.00286E-07 2.15245E-14
4.28368E-07 1.90022E-14
4.57402E-07 1.68131E-14
4.87388E-07 1.49416E-14
5.18325E-07 1.33260E-14
5.50215E-07 1.19144E-14
5.83057E-07 1.06912E-14
6.16850E-07 9.61860E-15
6.51596E-07 8.67592E-15
6.87293E-07 7.84969E-15
7.23942E-07 7.11542E-15
7.61543E-07 6.46627E-15
1.18991E-06 2.76752E-15
1.71347E-06 1.37490E-15
2.33223E-06 7.58419E-16
3.04617E-06 4.52025E-16
3.85531E-06 2.85846E-16
4.75964E-06 1.89411E-16
5.75916E-06 1.30382E-16
6.85388E-06 9.26327E-17
8.04378E-06 6.75929E-17
9.32888E-06 5.04639E-17
1.07092E-05 3.84300E-17
1.21846E-05 2.97770E-17
1.37553E-05 2.34275E-17
1.54212E-05 1.86837E-17
1.71822E-05 1.50819E-17
1.90385E-05 1.23007E-17
2.09899E-05 1.01441E-17
2.30365E-05 8.43868E-18
2.51783E-05 7.07495E-18
2.74153E-05 5.97426E-18
2.97475E-05 5.07869E-18
3.21749E-05 4.34472E-18
3.46974E-05 3.73901E-18
3.73152E-05 3.23568E-18
4.00281E-05 2.81457E-18
4.28362E-05 2.45994E-18
4.57395E-05 2.15938E-18
4.87380E-05 1.90323E-18
5.18317E-05 1.68380E-18
5.50205E-05 1.49500E-18
5.83045E-05 1.33186E-18
6.16838E-05 1.19039E-18
6.51582E-05 1.06722E-18
6.87277E-05 9.59612E-19
7.23925E-05 8.65241E-19
7.61524E-05 7.82274E-19
9.21439E-05 5.34859E-19
1.09658E-04 3.77886E-19
1.28695E-04 2.74482E-19
1.49255E-04 2.04108E-19
1.71338E-04 1.54898E-19
1.94942E-04 1.19649E-19
2.20070E-04 9.38717E-20
2.46720E-04 7.46707E-20
2.74892E-04 6.01323E-20
3.04586E-04 4.89626E-20
3.35803E-04 4.02673E-20
3.68542E-04 3.34171E-20
4.02802E-04 2.79619E-20
4.38585E-04 2.35745E-20
4.75889E-04 2.00137E-20
5.14715E-04 1.70997E-20
5.55063E-04 1.46965E-20
5.96931E-04 1.27004E-20
6.40321E-04 1.10315E-20
6.85233E-04 9.62757E-21
7.31665E-04 8.43967E-21
7.79618E-04 7.42914E-21
8.29092E-04 6.56519E-21
8.80086E-04 5.82303E-21
9.32601E-04 5.18264E-21
9.86636E-04 4.62776E-21
1.04219E-03 4.14503E-21
1.09927E-03 3.72352E-21
1.15786E-03 3.35413E-21
1.21797E-03 3.02934E-21
1.27961E-03 2.74284E-21
1.34276E-03 2.48934E-21
1.40743E-03 2.26439E-21
1.47362E-03 2.06423E-21
1.54133E-03 1.88564E-21
1.61056E-03 1.72591E-21
1.68131E-03 1.58268E-21
1.75357E-03 1.45398E-21
1.82735E-03 1.33805E-21
1.90265E-03 1.23342E-21
1.97947E-03 1.13878E-21
2.05780E-03 1.05302E-21
2.13765E-03 9.75160E-22
2.21902E-03 9.04338E-22
2.30190E-03 8.39809E-22
2.38630E-03 7.80912E-22
2.47222E-03 7.27071E-22
2.55965E-03 6.77773E-22
2.64859E-03 6.32567E-22
2.73905E-03 5.91053E-22
2.83103E-03 5.52875E-22
2.92452E-03 5.17717E-22
3.01952E-03 4.85299E-22
3.11604E-03 4.55367E-22
3.21407E-03 4.27697E-22
3.31362E-03 4.02088E-22
3.41468E-03 3.78358E-22
3.51725E-03 3.56344E-22
3.62133E-03 3.35901E-22
3.72692E-03 3.16896E-22
3.83403E-03 2.99211E-22
3.94265E-03 2.82736E-22
4.05278E-03 2.67375E-22
4.16442E-03 2.53032E-22
4.27757E-03 2.39630E-22
4.39223E-03 2.27098E-22
4.50840E-03 2.15370E-22
4.62608E-03 2.04385E-22
4.74527E-03 1.94086E-22
4.86597E-03 1.84424E-22
4.98817E-03 1.75352E-22
5.11188E-03 1.66826E-22
5.23711E-03 1.58809E-22
5.36383E-03 1.51264E-22
5.49207E-03 1.44159E-22
5.62181E-03 1.37462E-22
5.75306E-03 1.31147E-22
5.88581E-03 1.25188E-22
6.02007E-03 1.19560E-22
6.15583E-03 1.14243E-22
6.29310E-03 1.09215E-22
6.43187E-03 1.04459E-22
6.57214E-03 9.99562E-23
6.71392E-03 9.56914E-23
6.85720E-03 9.16496E-23
7.00198E-03 8.78169E-23
7.14827E-03 8.41806E-23
7.29605E-03 8.07287E-23
7.44534E-03 7.74502E-23
7.59612E-03 7.43348E-23
7.97965E-03 6.71982E-23
8.37255E-03 6.08894E-23
8.77480E-03 5.52963E-23
9.18641E-03 5.03239E-23
9.60736E-03 4.58918E-23
1.00376E-02 4.19313E-23
1.04773E-02 3.83837E-23
1.09262E-02 3.51986E-23
1.13844E-02 3.23328E-23
1.18520E-02 2.97488E-23
1.23288E-02 2.74141E-23
1.28150E-02 2.53006E-23
1.33104E-02 2.33837E-23
1.38150E-02 2.16421E-23
1.43290E-02 2.00569E-23
1.48521E-02 1.86118E-23
1.53845E-02 1.72922E-23
1.59262E-02 1.60854E-23
1.64770E-02 1.49800E-23
1.70371E-02 1.39661E-23
1.76063E-02 1.30349E-23
1.81848E-02 1.21784E-23
1.87724E-02 1.13895E-23
1.93692E-02 1.06622E-23
1.99751E-02 9.99063E-24
2.05901E-02 9.36991E-24
2.12143E-02 8.79551E-24
2.18476E-02 8.26337E-24
2.24900E-02 7.76987E-24
2.31415E-02 7.31172E-24
2.38021E-02 6.88595E-24
2.44717E-02 6.48988E-24
2.51504E-02 6.12109E-24
2.58382E-02 5.77739E-24
2.65349E-02 5.45678E-24
2.72407E-02 5.15743E-24
2.79555E-02 4.87771E-24
2.86793E-02 4.61611E-24
2.94120E-02 4.37126E-24
3.01537E-02 4.14190E-24
3.09043E-02 3.92689E-24
3.16639E-02 3.72518E-24
3.24324E-02 3.53581E-24
3.32098E-02 3.35790E-24
3.39961E-02 3.19063E-24
3.47912E-02 3.03327E-24
3.55952E-02 2.88513E-24
3.64081E-02 2.74558E-24
3.72297E-02 2.61404E-24
3.80602E-02 2.48998E-24
3.88995E-02 2.37289E-24
3.97476E-02 2.26232E-24
4.06044E-02 2.15785E-24
4.14700E-02 2.05909E-24
4.23443E-02 1.96567E-24
4.32273E-02 1.87726E-24
4.41190E-02 1.79354E-24
4.50194E-02 1.71422E-24
4.59284E-02 1.63905E-24
4.68461E-02 1.56775E-24
4.87074E-02 1.43590E-24
5.06030E-02 1.31699E-24
5.25328E-02 1.20956E-24
5.44967E-02 1.11233E-24
5.64946E-02 1.02418E-24
5.85262E-02 9.44155E-25
6.05914E-02 8.71379E-25
6.26901E-02 8.05103E-25
6.48222E-02 7.44659E-25
6.69873E-02 6.89460E-25
6.91854E-02 6.38985E-25
7.14163E-02 5.92769E-25
7.36799E-02 5.50402E-25
7.59760E-02 5.11518E-25
7.83043E-02 4.75788E-25
8.06647E-02 4.42921E-25
8.30571E-02 4.12655E-25
8.54812E-02 3.84756E-25
8.79369E-02 3.59012E-25
9.04240E-02 3.35233E-25
9.29422E-02 3.13250E-25
9.54915E-02 2.92908E-25
9.80716E-02 2.74068E-25
1.00682E-01 2.56604E-25
1.03323E-01 2.40402E-25
1.05995E-01 2.25359E-25
1.08696E-01 2.11381E-25
1.11427E-01 1.98382E-25
1.14188E-01 1.86286E-25
1.16978E-01 1.75020E-25
1.19797E-01 1.64522E-25
1.22645E-01 1.54732E-25
1.25522E-01 1.45596E-25
1.28428E-01 1.37066E-25
1.31361E-01 1.29095E-25
1.34323E-01 1.21643E-25
1.37313E-01 1.14672E-25
1.40330E-01 1.08147E-25
1.43375E-01 1.02036E-25
1.46447E-01 9.63094E-26
1.49545E-01 9.09407E-26
1.52671E-01 8.59046E-26
1.55823E-01 8.11782E-26
1.59001E-01 7.67401E-26
1.62205E-01 7.25709E-26
1.65435E-01 6.86524E-26
1.68690E-01 6.49678E-26
1.71970E-01 6.15015E-26
1.75276E-01 5.82393E-26
1.78606E-01 5.51678E-26
1.81961E-01 5.22746E-26
1.85340E-01 4.95484E-26
1.88743E-01 4.69783E-26
1.92169E-01 4.45546E-26
1.95619E-01 4.22680E-26
1.99092E-01 4.01100E-26
2.02589E-01 3.80726E-26
2.06107E-01 3.61483E-26
2.09649E-01 3.43303E-26
2.13212E-01 3.26121E-26
2.16797E-01 3.09877E-26
2.20404E-01 2.94515E-26
2.24032E-01 2.79982E-26
2.27680E-01 2.66229E-26
2.31350E-01 2.53210E-26
2.35040E-01 2.40882E-26
2.38751E-01 2.29206E-26
2.42481E-01 2.18144E-26
2.46231E-01 2.07659E-26
2.50000E-01 1.97721E-26
2.53788E-01 1.88296E-26
2.57595E-01 1.79357E-26
2.61421E-01 1.70877E-26
2.65264E-01 1.62829E-26
2.69126E-01 1.55190E-26
2.73005E-01 1.47937E-26
2.76901E-01 1.41050E-26
2.80814E-01 1.34507E-26
2.84744E-01 1.28291E-26
2.88691E-01 1.22383E-26
2.92653E-01 1.16768E-26
2.96632E-01 1.11429E-26
3.00625E-01 1.06352E-26
3.04634E-01 1.01523E-26
3.08658E-01 9.69283E-27
3.12697E-01 9.25567E-27
3.16749E-01 8.83960E-27
3.20816E-01 8.44353E-27
3.24896E-01 8.06642E-27
3.28990E-01 7.70730E-27
3.33097E-01 7.36525E-27
3.37216E-01 7.03939E-27
3.41348E-01 6.72891E-27
3.45492E-01 6.43302E-27
3.49647E-01 6.15098E-27
3.53814E-01 5.88211E-27
3.57992E-01 5.62575E-27
3.62181E-01 5.38126E-27
3.66381E-01 5.14807E-27
3.70590E-01 4.92562E-27
3.74810E-01 4.71337E-27
3.79039E-01 4.51083E-27
3.83277E-01 4.31752E-27
3.87524E-01 4.13299E-27
3.91780E-01 3.95683E-27
3.96044E-01 3.78861E-27
4.00316E-01 3.62797E-27
4.04596E-01 3.47454E-27
4.08882E-01 3.32797E-27
4.13176E-01 3.18794E-27
4.17476E-01 3.05414E-27
4.21783E-01 2.92627E-27
4.26095E-01 2.80406E-27
4.30413E-01 2.68723E-27
4.34737E-01 2.57554E-27
4.39065E-01 2.46875E-27
4.43398E-01 2.36662E-27
4.47736E-01 2.26895E-27
4.52077E-01 2.17552E-27
4.56422E-01 2.08615E-27
4.60770E-01 2.00063E-27
4.65122E-01 1.91881E-27
4.69476E-01 1.84051E-27
4.73832E-01 1.76556E-27
4.78190E-01 1.69383E-27
4.82550E-01 1.62515E-27
4.86912E-01 1.55940E-27
4.91274E-01 1.49644E-27
4.95637E-01 1.43615E-27
5.00000E-01 1.37841E-27
5.04363E-01 1.32310E-27
5.08726E-01 1.27011E-27
5.13088E-01 1.21935E-27
5.17450E-01 1.17071E-27
5.21810E-01 1.12411E-27
5.26168E-01 1.07944E-27
5.30524E-01 1.03664E-27
5.34878E-01 9.95602E-28
5.39230E-01 9.56265E-28
5.43578E-01 9.18553E-28
5.47923E-01 8.82393E-28
5.52264E-01 8.47719E-28
5.56602E-01 8.14467E-28
5.60935E-01 7.82574E-28
5.65263E-01 7.51984E-28
5.69587E-01 7.22639E-28
5.73905E-01 6.94487E-28
5.78217E-01 6.67477E-28
5.82524E-01 6.41560E-28
5.86824E-01 6.16689E-28
5.91118E-01 5.92820E-28
5.95404E-01 5.69912E-28
5.99684E-01 5.47923E-28
6.03956E-01 5.26814E-28
6.08220E-01 5.06549E-28
6.12476E-01 4.87092E-28
6.16723E-01 4.68410E-28
6.20961E-01 4.50470E-28
6.25190E-01 4.33242E-28
6.29410E-01 4.16695E-28
6.33619E-01 4.00801E-28
6.37819E-01 3.85535E-28
6.42008E-01 3.70868E-28
6.46186E-01 3.56778E-28
6.50353E-01 3.43240E-28
6.54508E-01 3.30231E-28
6.58652E-01 3.17730E-28
6.62784E-01 3.05717E-28
6.66903E-01 2.94171E-28
6.71010E-01 2.83073E-28
6.75104E-01 2.72405E-28
6.79184E-01 2.62150E-28
6.83251E-01 2.52291E-28
6.87303E-01 2.42811E-28
6.91342E-01 2.33697E-28
6.95366E-01 2.24933E-28
6.99375E-01 2.16505E-28
7.03368E-01 2.08399E-28
7.07347E-01 2.00603E-28
7.11309E-01 1.93104E-28
7.15256E-01 1.85891E-28
7.19186E-01 1.78952E-28
7.23099E-01 1.72277E-28
7.26995E-01 1.65854E-28
7.30874E-01 1.59674E-28
7.34736E-01 1.53728E-28
7.38579E-01 1.48005E-28
7.42405E-01 1.42499E-28
7.46212E-01 1.37199E-28
7.50000E-01 1.32097E-28
7.53769E-01 1.27187E-28
7.57519E-01 1.22461E-28
7.61249E-01 1.17910E-28
7.64960E-01 1.13530E-28
7.68650E-01 1.09312E-28
7.72320E-01 1.05252E-28
7.75968E-01 1.01342E-28
7.79596E-01 9.75764E-29
7.83203E-01 9.39505E-29
7.86788E-01 9.04585E-29
7.90351E-01 8.70952E-29
7.93893E-01 8.38559E-29
7.97411E-01 8.07356E-29
8.00908E-01 7.77300E-29
8.04381E-01 7.48346E-29
8.07831E-01 7.20452E-29
8.11257E-01 6.93578E-29
8.14660E-01 6.67685E-29
8.18039E-01 6.42737E-29
8.21394E-01 6.18697E-29
8.24724E-01 5.95532E-29
8.28030E-01 5.73208E-29
8.31310E-01 5.51694E-29
8.34565E-01 5.30960E-29
8.37795E-01 5.10976E-29
8.40999E-01 4.91714E-29
8.44177E-01 4.73148E-29
8.47329E-01 4.55251E-29
8.50455E-01 4.37999E-29
8.53553E-01 4.21367E-29
8.56625E-01 4.05333E-29
8.59670E-01 3.89875E-29
8.62687E-01 3.74972E-29
8.65677E-01 3.60602E-29
8.68639E-01 3.46747E-29
8.71572E-01 3.33387E-29
8.74478E-01 3.20504E-29
8.77355E-01 3.08082E-29
8.80203E-01 2.96102E-29
8.83022E-01 2.84550E-29
8.85812E-01 2.73409E-29
8.88573E-01 2.62664E-29
8.91304E-01 2.52302E-29
8.94005E-01 2.42308E-29
8.96677E-01 2.32669E-29
8.99318E-01 2.23373E-29
9.01928E-01 2.14407E-29
9.04508E-01 2.05759E-29
9.07058E-01 1.97418E-29
9.09576E-01 1.89373E-29
9.12063E-01 1.81613E-29
9.14519E-01 1.74129E-29
9.16943E-01 1.66910E-29
9.19335E-01 1.59947E-29
9.21696E-01 1.53232E-29
9.24024E-01 1.46755E-29
9.26320E-01 1.40508E-29
9.28584E-01 1.34484E-29
9.30815E-01 1.28674E-29
9.33013E-01 1.23070E-29
9.35178E-01 1.17667E-29
9.37310E-01 1.12457E-29
9.39409E-01 1.07433E-29
9.41474E-01 1.02589E-29
9.43505E-01 9.79190E-30
9.45503E-01 9.34169E-30
9.47467E-01 8.90772E-30
9.49397E-01 8.48942E-30
9.51293E-01 8.08629E-30
9.53154E-01 7.69782E-30
9.54981E-01 7.32352E-30
9.56773E-01 6.96293E-30
9.58530E-01 6.61560E-30
9.60252E-01 6.28109E-30
9.61940E-01 5.95900E-30
9.63592E-01 5.64892E-30
9.65209E-01 5.35048E-30
9.66790E-01 5.06330E-30
9.68336E-01 4.78703E-30
9.69846E-01 4.52134E-30
9.71321E-01 4.26590E-30
9.72759E-01 4.02040E-30
9.74162E-01 3.78453E-30
9.75528E-01 3.55802E-30
9.76858E-01 3.34058E-30
9.78152E-01 3.13195E-30
9.79410E-01 2.93188E-30
9.80631E-01 2.74012E-30
9.81815E-01 2.55645E-30
9.82963E-01 2.38065E-30
9.84074E-01 2.21249E-30
9.85148E-01 2.05179E-30
9.86185E-01 1.89834E-30
9.87185E-01 1.75196E-30
9.88148E-01 1.61248E-30
9.89074E-01 1.47973E-30
9.89962E-01 1.35355E-30
9.90814E-01 1.23379E-30
9.91627E-01 1.12031E-30
9.92404E-01 1.01298E-30
9.93143E-01 9.11653E-31
9.93844E-01 8.16225E-31
9.94508E-01 7.26577E-31
9.95134E-01 6.42605E-31
9.95722E-01 5.64208E-31
9.96273E-01 4.91293E-31
9.96786E-01 4.23774E-31
9.97261E-01 3.61572E-31
9.97698E-01 3.04612E-31
9.98097E-01 2.52828E-31
9.98459E-01 2.06157E-31
9.98782E-01 1.64546E-31
9.99067E-01 1.27945E-31
9.99315E-01 9.63110E-32
9.99524E-01 6.96065E-32
9.99695E-01 4.78000E-32
9.99829E-01 3.08660E-32
9.99924E-01 1.87845E-32
9.99981E-01 1.15414E-32
1.00000E+00 9.12790E-33
