 #
 # Subroutine ELSEPA. Elastic scattering of electrons and positrons
 #                    by neutral atoms and positive ions
 #
 # Projectile: positron
 # Kinetic energy = 6.00000E+08 eV = 2.20496E+07 a.u.
 #
 # WARNING: High-energy factorization with free-atom DF screening.
 #          Absorption, polarization and exchange corrections are
 #          switched off.
 #          Phase shifts are calculated for the bare nucleus.
 #          Scattering amplitudes are not evaluated.
 #
 # Element: Ce,  Z =  58,  atomic weight = 1.40116E+02 g/mol
 #
 # Nuclear model: Fermi distribution
 #                Average radius = 5.55750E-13 cm
 #                Skin thickness = 5.46000E-14 cm
 #
 # Number of electrons = 58
 #
 # Total elastic cross section = 7.25066E-18 cm**2 = 2.58926E-01 a0**2
 # 1st transport cross section = 1.80374E-26 cm**2 = 6.44129E-10 a0**2
 # 2nd transport cross section = 5.40973E-26 cm**2 = 1.93185E-09 a0**2
 #
 #
 # Differential cross section:                       MU=(1-COS(THETA))/2
 #
 #  THETA        MU          DCS          DCS        Sherman      error
 #  (deg)                 (cm**2/sr)   (a0**2/sr)    function
 #----------------------------------------------------------------------
0.00000E+00 4.03965E-08
7.61557E-13 3.32492E-08
1.18994E-12 3.01010E-08
1.71346E-12 2.68874E-08
2.33225E-12 2.37892E-08
3.04617E-12 2.09273E-08
3.85530E-12 1.83648E-08
4.75964E-12 1.61211E-08
5.75917E-12 1.41887E-08
6.85391E-12 1.25396E-08
8.04379E-12 1.11339E-08
9.32893E-12 9.93564E-09
1.07092E-11 8.91150E-09
1.21847E-11 8.03181E-09
1.37554E-11 7.27149E-09
1.54213E-11 6.60974E-09
1.71823E-11 6.02965E-09
1.90386E-11 5.51752E-09
2.09900E-11 5.06243E-09
2.30367E-11 4.65517E-09
2.51785E-11 4.28898E-09
2.74156E-11 3.95833E-09
2.97478E-11 3.65867E-09
3.21752E-11 3.38625E-09
3.46979E-11 3.13794E-09
3.73157E-11 2.91114E-09
4.00286E-11 2.70360E-09
4.28368E-11 2.51342E-09
4.57402E-11 2.33892E-09
4.87388E-11 2.17858E-09
5.18325E-11 2.03098E-09
5.50215E-11 1.89521E-09
5.83057E-11 1.77023E-09
6.16850E-11 1.65509E-09
6.51595E-11 1.54584E-09
6.87293E-11 1.44252E-09
7.23943E-11 1.34905E-09
7.61544E-11 1.26429E-09
1.18991E-10 7.08304E-10
1.71347E-10 4.29200E-10
2.33223E-10 2.75466E-10
3.04617E-10 1.84142E-10
3.85531E-10 1.27003E-10
4.75965E-10 8.99961E-11
5.75917E-10 6.53805E-11
6.85389E-10 4.86444E-11
8.04380E-10 3.70221E-11
9.32891E-10 2.87566E-11
1.07092E-09 2.27401E-11
1.21847E-09 1.82627E-11
1.37554E-09 1.48623E-11
1.54213E-09 1.22356E-11
1.71823E-09 1.01658E-11
1.90386E-09 8.51583E-12
2.09900E-09 7.18769E-12
2.30367E-09 6.10638E-12
2.51785E-09 5.21869E-12
2.74156E-09 4.48409E-12
2.97478E-09 3.87184E-12
3.21752E-09 3.35853E-12
3.46978E-09 2.92600E-12
3.73156E-09 2.55991E-12
4.00286E-09 2.24874E-12
4.28368E-09 1.98313E-12
4.57402E-09 1.75544E-12
4.87388E-09 1.55938E-12
5.18326E-09 1.38980E-12
5.50215E-09 1.24261E-12
5.83057E-09 1.11437E-12
6.16850E-09 1.00226E-12
6.51596E-09 9.03771E-13
6.87293E-09 8.17073E-13
7.23942E-09 7.40832E-13
7.61544E-09 6.73558E-13
1.18991E-08 2.89235E-13
1.71347E-08 1.44315E-13
2.33223E-08 7.98060E-14
3.04617E-08 4.75887E-14
3.85531E-08 3.00796E-14
4.75965E-08 1.99204E-14
5.75917E-08 1.37056E-14
6.85389E-08 9.73430E-15
8.04380E-08 7.10230E-15
9.32891E-08 5.30281E-15
1.07092E-07 4.03899E-15
1.21847E-07 3.13034E-15
1.37554E-07 2.46355E-15
1.54213E-07 1.96531E-15
1.71823E-07 1.58695E-15
1.90386E-07 1.29543E-15
2.09900E-07 1.06790E-15
2.30367E-07 8.88211E-16
2.51785E-07 7.44777E-16
2.74156E-07 6.29157E-16
2.97478E-07 5.35126E-16
3.21752E-07 4.58020E-16
3.46978E-07 3.94310E-16
3.73156E-07 3.41298E-16
4.00286E-07 2.96899E-16
4.28368E-07 2.59488E-16
4.57402E-07 2.27785E-16
4.87388E-07 2.00776E-16
5.18325E-07 1.77652E-16
5.50215E-07 1.57762E-16
5.83057E-07 1.40577E-16
6.16850E-07 1.25668E-16
6.51596E-07 1.12683E-16
6.87293E-07 1.01332E-16
7.23942E-07 9.13737E-17
7.61543E-07 8.26087E-17
1.18991E-06 3.39375E-17
1.71347E-06 1.63921E-17
2.33223E-06 8.85580E-18
3.04617E-06 5.19369E-18
3.85531E-06 3.24330E-18
4.75964E-06 2.12824E-18
5.75916E-06 1.45370E-18
6.85388E-06 1.02641E-18
8.04378E-06 7.45169E-19
9.32888E-06 5.53970E-19
1.07092E-05 4.20333E-19
1.21846E-05 3.24662E-19
1.37553E-05 2.54720E-19
1.54212E-05 2.02634E-19
1.71822E-05 1.63204E-19
1.90385E-05 1.32865E-19
2.09899E-05 1.09340E-19
2.30365E-05 9.07878E-20
2.51783E-05 7.59927E-20
2.74153E-05 6.40796E-20
2.97475E-05 5.44054E-20
3.21749E-05 4.64887E-20
3.46974E-05 3.99631E-20
3.73152E-05 3.45465E-20
4.00281E-05 3.00198E-20
4.28362E-05 2.62118E-20
4.57395E-05 2.29885E-20
4.87380E-05 2.02447E-20
5.18317E-05 1.78971E-20
5.50205E-05 1.58792E-20
5.83045E-05 1.41374E-20
6.16838E-05 1.26280E-20
6.51582E-05 1.13149E-20
6.87277E-05 1.01684E-20
7.23925E-05 9.16367E-21
7.61524E-05 8.31978E-21
9.21439E-05 5.67502E-21
1.09658E-04 3.99991E-21
1.28695E-04 2.89808E-21
1.49255E-04 2.14911E-21
1.71338E-04 1.62608E-21
1.94942E-04 1.25186E-21
2.20070E-04 9.78550E-22
2.46720E-04 7.75249E-22
2.74892E-04 6.21534E-22
3.04586E-04 5.03637E-22
3.35803E-04 4.12014E-22
3.68542E-04 3.39980E-22
4.02802E-04 2.82739E-22
4.38585E-04 2.36811E-22
4.75889E-04 1.99635E-22
5.14715E-04 1.69297E-22
5.55063E-04 1.44355E-22
5.96931E-04 1.23707E-22
6.40321E-04 1.06506E-22
6.85233E-04 9.20912E-23
7.31665E-04 7.99448E-23
7.79618E-04 6.96579E-23
8.29092E-04 6.09039E-23
8.80086E-04 5.34214E-23
9.32601E-04 4.69988E-23
9.86636E-04 4.14645E-23
1.04219E-03 3.66781E-23
1.09927E-03 3.25241E-23
1.15786E-03 2.89073E-23
1.21797E-03 2.57485E-23
1.27961E-03 2.29817E-23
1.34276E-03 2.05517E-23
1.40743E-03 1.84119E-23
1.47362E-03 1.65230E-23
1.54133E-03 1.48517E-23
1.61056E-03 1.33697E-23
1.68131E-03 1.20529E-23
1.75357E-03 1.08804E-23
1.82735E-03 9.83459E-24
1.90265E-03 8.90000E-24
1.97947E-03 8.06340E-24
2.05780E-03 7.31332E-24
2.13765E-03 6.63977E-24
2.21902E-03 6.03406E-24
2.30190E-03 5.48859E-24
2.38630E-03 4.99672E-24
2.47222E-03 4.55262E-24
2.55965E-03 4.15117E-24
2.64859E-03 3.78786E-24
2.73905E-03 3.45870E-24
2.83103E-03 3.16018E-24
2.92452E-03 2.88917E-24
3.01952E-03 2.64291E-24
3.11604E-03 2.41893E-24
3.21407E-03 2.21504E-24
3.31362E-03 2.02930E-24
3.41468E-03 1.85995E-24
3.51725E-03 1.70544E-24
3.62133E-03 1.56437E-24
3.72692E-03 1.43548E-24
3.83403E-03 1.31764E-24
3.94265E-03 1.20985E-24
4.05278E-03 1.11120E-24
4.16442E-03 1.02085E-24
4.27757E-03 9.38072E-25
4.39223E-03 8.62194E-25
4.50840E-03 7.92610E-25
4.62608E-03 7.28769E-25
4.74527E-03 6.70175E-25
4.86597E-03 6.16377E-25
4.98817E-03 5.66966E-25
5.11188E-03 5.21569E-25
5.23711E-03 4.79847E-25
5.36383E-03 4.41494E-25
5.49207E-03 4.06227E-25
5.62181E-03 3.73791E-25
5.75306E-03 3.43952E-25
5.88581E-03 3.16498E-25
6.02007E-03 2.91233E-25
6.15583E-03 2.67980E-25
6.29310E-03 2.46575E-25
6.43187E-03 2.26869E-25
6.57214E-03 2.08726E-25
6.71392E-03 1.92021E-25
6.85720E-03 1.76638E-25
7.00198E-03 1.62473E-25
7.14827E-03 1.49428E-25
7.29605E-03 1.37416E-25
7.44534E-03 1.26354E-25
7.59612E-03 1.16167E-25
7.97965E-03 9.40926E-26
8.37255E-03 7.61400E-26
8.77480E-03 6.15492E-26
9.18641E-03 4.97012E-26
9.60736E-03 4.00912E-26
1.00376E-02 3.23065E-26
1.04773E-02 2.60101E-26
1.09262E-02 2.09259E-26
1.13844E-02 1.68283E-26
1.18520E-02 1.35323E-26
1.23288E-02 1.08868E-26
1.28150E-02 8.76802E-27
1.33104E-02 7.07487E-27
1.38150E-02 5.72481E-27
1.43290E-02 4.65053E-27
1.48521E-02 3.79727E-27
1.53845E-02 3.12053E-27
1.59262E-02 2.58427E-27
1.64770E-02 2.15938E-27
1.70371E-02 1.82240E-27
1.76063E-02 1.55451E-27
1.81848E-02 1.34066E-27
1.87724E-02 1.16891E-27
1.93692E-02 1.02978E-27
1.99751E-02 9.15823E-28
2.05901E-02 8.21235E-28
2.12143E-02 7.41500E-28
2.18476E-02 6.73152E-28
2.24900E-02 6.13549E-28
2.31415E-02 5.60704E-28
2.38021E-02 5.13135E-28
2.44717E-02 4.69758E-28
2.51504E-02 4.29790E-28
2.58382E-02 3.92676E-28
2.65349E-02 3.58030E-28
2.72407E-02 3.25591E-28
2.79555E-02 2.95184E-28
2.86793E-02 2.66695E-28
2.94120E-02 2.40049E-28
3.01537E-02 2.15194E-28
3.09043E-02 1.92088E-28
3.16639E-02 1.70695E-28
3.24324E-02 1.50978E-28
3.32098E-02 1.32893E-28
3.39961E-02 1.16389E-28
3.47912E-02 1.01410E-28
3.55952E-02 8.78903E-29
3.64081E-02 7.57579E-29
3.72297E-02 6.49356E-29
3.80602E-02 5.53413E-29
3.88995E-02 4.68899E-29
3.97476E-02 3.94947E-29
4.06044E-02 3.30682E-29
4.14700E-02 2.75241E-29
4.23443E-02 2.27776E-29
4.32273E-02 1.87467E-29
4.41190E-02 1.53530E-29
4.50194E-02 1.25222E-29
4.59284E-02 1.01845E-29
4.68461E-02 8.27518E-30
4.87074E-02 5.50808E-30
5.06030E-02 3.80585E-30
5.25328E-02 2.83460E-30
5.44967E-02 2.33565E-30
5.64946E-02 2.11667E-30
5.85262E-02 2.04146E-30
6.05914E-02 2.01936E-30
6.26901E-02 1.99512E-30
6.48222E-02 1.93977E-30
6.69873E-02 1.84273E-30
6.91854E-02 1.70544E-30
7.14163E-02 1.53624E-30
7.36799E-02 1.34669E-30
7.59760E-02 1.14888E-30
7.83043E-02 9.53774E-31
8.06647E-02 7.70240E-31
8.30571E-02 6.04670E-31
8.54812E-02 4.60975E-31
8.79369E-02 3.40838E-31
9.04240E-02 2.44116E-31
9.29422E-02 1.69289E-31
9.54915E-02 1.13911E-31
9.80716E-02 7.50145E-32
1.00682E-01 4.94524E-32
1.03323E-01 3.41561E-32
1.05995E-01 2.63228E-32
1.08696E-01 2.35307E-32
1.11427E-01 2.37951E-32
1.14188E-01 2.55776E-32
1.16978E-01 2.77605E-32
1.19797E-01 2.95988E-32
1.22645E-01 3.06582E-32
1.25522E-01 3.07498E-32
1.28428E-01 2.98651E-32
1.31361E-01 2.81178E-32
1.34323E-01 2.56934E-32
1.37313E-01 2.28088E-32
1.40330E-01 1.96819E-32
1.43375E-01 1.65104E-32
1.46447E-01 1.34584E-32
1.49545E-01 1.06508E-32
1.52671E-01 8.17165E-33
1.55823E-01 6.06710E-33
1.59001E-01 4.35071E-33
1.62205E-01 3.00980E-33
1.65435E-01 2.01248E-33
1.68690E-01 1.31429E-33
1.71970E-01 8.64149E-34
1.75276E-01 6.09365E-34
1.78606E-01 4.99450E-34
1.81961E-01 4.88873E-34
1.85340E-01 5.38763E-34
1.88743E-01 6.17729E-34
1.92169E-01 7.01948E-34
1.95619E-01 7.74730E-34
1.99092E-01 8.25691E-34
2.02589E-01 8.49721E-34
2.06107E-01 8.45860E-34
2.09649E-01 8.16184E-34
2.13212E-01 7.64775E-34
2.16797E-01 6.96833E-34
2.20404E-01 6.17945E-34
2.24032E-01 5.33521E-34
2.27680E-01 4.48401E-34
2.31350E-01 3.66608E-34
2.35040E-01 2.91222E-34
2.38751E-01 2.24369E-34
2.42481E-01 1.67270E-34
2.46231E-01 1.20357E-34
2.50000E-01 8.34104E-35
2.53788E-01 5.57151E-35
2.57595E-01 3.62108E-35
2.61421E-01 2.36332E-35
2.65264E-01 1.66355E-35
2.69126E-01 1.38882E-35
2.73005E-01 1.41536E-35
2.76901E-01 1.63385E-35
2.80814E-01 1.95251E-35
2.84744E-01 2.29833E-35
2.88691E-01 2.61699E-35
2.92653E-01 2.87145E-35
2.96632E-01 3.03999E-35
3.00625E-01 3.11371E-35
3.04634E-01 3.09375E-35
3.08658E-01 2.98872E-35
3.12697E-01 2.81221E-35
3.16749E-01 2.58057E-35
3.20816E-01 2.31109E-35
3.24896E-01 2.02063E-35
3.28990E-01 1.72444E-35
3.33097E-01 1.43558E-35
3.37216E-01 1.16449E-35
3.41348E-01 9.18816E-36
3.45492E-01 7.03587E-36
3.49647E-01 5.21364E-36
3.53814E-01 3.72626E-36
3.57992E-01 2.56136E-36
3.62181E-01 1.69359E-36
3.66381E-01 1.08859E-36
3.70590E-01 7.06684E-37
3.74810E-01 5.06017E-37
3.79039E-01 4.45226E-37
3.83277E-01 4.85495E-37
3.87524E-01 5.91931E-37
3.91780E-01 7.34631E-37
3.96044E-01 8.89061E-37
4.00316E-01 1.03620E-36
4.04596E-01 1.16225E-36
4.08882E-01 1.25824E-36
4.13176E-01 1.31929E-36
4.17476E-01 1.34411E-36
4.21783E-01 1.33405E-36
4.26095E-01 1.29269E-36
4.30413E-01 1.22466E-36
4.34737E-01 1.13568E-36
4.39065E-01 1.03155E-36
4.43398E-01 9.18037E-37
4.47736E-01 8.00469E-37
4.52077E-01 6.83562E-37
4.56422E-01 5.71197E-37
4.60770E-01 4.66480E-37
4.65122E-01 3.71651E-37
4.69476E-01 2.88185E-37
4.73832E-01 2.16806E-37
4.78190E-01 1.57641E-37
4.82550E-01 1.10298E-37
4.86912E-01 7.39797E-38
4.91274E-01 4.76018E-38
4.95637E-01 2.98895E-38
5.00000E-01 1.94703E-38
5.04363E-01 1.49526E-38
5.08726E-01 1.49901E-38
5.13088E-01 1.83302E-38
5.17450E-01 2.38507E-38
5.21810E-01 3.05738E-38
5.26168E-01 3.76978E-38
5.30524E-01 4.45727E-38
5.34878E-01 5.07190E-38
5.39230E-01 5.57844E-38
5.43578E-01 5.95716E-38
5.47923E-01 6.19715E-38
5.52264E-01 6.29939E-38
5.56602E-01 6.26923E-38
5.60935E-01 6.12028E-38
5.65263E-01 5.86705E-38
5.69587E-01 5.52959E-38
5.73905E-01 5.12649E-38
5.78217E-01 4.67729E-38
5.82524E-01 4.20016E-38
5.86824E-01 3.71208E-38
5.91118E-01 3.22818E-38
5.95404E-01 2.76073E-38
5.99684E-01 2.31939E-38
6.03956E-01 1.91249E-38
6.08220E-01 1.54513E-38
6.12476E-01 1.22040E-38
6.16723E-01 9.39849E-39
6.20961E-01 7.03154E-39
6.25190E-01 5.08638E-39
6.29410E-01 1.00000E-45
6.33619E-01 1.00000E-45
6.37819E-01 1.00000E-45
6.42008E-01 1.00000E-45
6.46186E-01 1.00000E-45
6.50353E-01 1.00000E-45
6.54508E-01 1.00000E-45
6.58652E-01 1.00000E-45
6.62784E-01 1.00000E-45
6.66903E-01 1.00000E-45
6.71010E-01 1.00000E-45
6.75104E-01 1.00000E-45
6.79184E-01 1.00000E-45
6.83251E-01 1.00000E-45
6.87303E-01 1.00000E-45
6.91342E-01 1.00000E-45
6.95366E-01 1.00000E-45
6.99375E-01 1.00000E-45
7.03368E-01 1.00000E-45
7.07347E-01 1.00000E-45
7.11309E-01 1.00000E-45
7.15256E-01 1.00000E-45
7.19186E-01 1.00000E-45
7.23099E-01 1.00000E-45
7.26995E-01 1.00000E-45
7.30874E-01 1.00000E-45
7.34736E-01 1.00000E-45
7.38579E-01 1.00000E-45
7.42405E-01 1.00000E-45
7.46212E-01 1.00000E-45
7.50000E-01 1.00000E-45
7.53769E-01 1.00000E-45
7.57519E-01 1.00000E-45
7.61249E-01 1.00000E-45
7.64960E-01 1.00000E-45
7.68650E-01 1.00000E-45
7.72320E-01 1.00000E-45
7.75968E-01 1.00000E-45
7.79596E-01 1.00000E-45
7.83203E-01 1.00000E-45
7.86788E-01 1.00000E-45
7.90351E-01 1.00000E-45
7.93893E-01 1.00000E-45
7.97411E-01 1.00000E-45
8.00908E-01 1.00000E-45
8.04381E-01 1.00000E-45
8.07831E-01 1.00000E-45
8.11257E-01 1.00000E-45
8.14660E-01 1.00000E-45
8.18039E-01 1.00000E-45
8.21394E-01 1.00000E-45
8.24724E-01 1.00000E-45
8.28030E-01 1.00000E-45
8.31310E-01 1.00000E-45
8.34565E-01 1.00000E-45
8.37795E-01 1.00000E-45
8.40999E-01 1.00000E-45
8.44177E-01 1.00000E-45
8.47329E-01 1.00000E-45
8.50455E-01 1.00000E-45
8.53553E-01 1.00000E-45
8.56625E-01 1.00000E-45
8.59670E-01 1.00000E-45
8.62687E-01 1.00000E-45
8.65677E-01 1.00000E-45
8.68639E-01 1.00000E-45
8.71572E-01 1.00000E-45
8.74478E-01 1.00000E-45
8.77355E-01 1.00000E-45
8.80203E-01 1.00000E-45
8.83022E-01 1.00000E-45
8.85812E-01 1.00000E-45
8.88573E-01 1.00000E-45
8.91304E-01 1.00000E-45
8.94005E-01 1.00000E-45
8.96677E-01 1.00000E-45
8.99318E-01 1.00000E-45
9.01928E-01 1.00000E-45
9.04508E-01 1.00000E-45
9.07058E-01 1.00000E-45
9.09576E-01 1.00000E-45
9.12063E-01 1.00000E-45
9.14519E-01 1.00000E-45
9.16943E-01 1.00000E-45
9.19335E-01 1.00000E-45
9.21696E-01 1.00000E-45
9.24024E-01 1.00000E-45
9.26320E-01 1.00000E-45
9.28584E-01 1.00000E-45
9.30815E-01 1.00000E-45
9.33013E-01 1.00000E-45
9.35178E-01 1.00000E-45
9.37310E-01 1.00000E-45
9.39409E-01 1.00000E-45
9.41474E-01 1.00000E-45
9.43505E-01 1.00000E-45
9.45503E-01 1.00000E-45
9.47467E-01 1.00000E-45
9.49397E-01 1.00000E-45
9.51293E-01 1.00000E-45
9.53154E-01 1.00000E-45
9.54981E-01 1.00000E-45
9.56773E-01 1.00000E-45
9.58530E-01 1.00000E-45
9.60252E-01 1.00000E-45
9.61940E-01 1.00000E-45
9.63592E-01 1.00000E-45
9.65209E-01 1.00000E-45
9.66790E-01 1.00000E-45
9.68336E-01 1.00000E-45
9.69846E-01 1.00000E-45
9.71321E-01 1.00000E-45
9.72759E-01 1.00000E-45
9.74162E-01 1.00000E-45
9.75528E-01 1.00000E-45
9.76858E-01 1.00000E-45
9.78152E-01 1.00000E-45
9.79410E-01 1.00000E-45
9.80631E-01 1.00000E-45
9.81815E-01 1.00000E-45
9.82963E-01 1.00000E-45
9.84074E-01 1.00000E-45
9.85148E-01 1.00000E-45
9.86185E-01 1.00000E-45
9.87185E-01 1.00000E-45
9.88148E-01 1.00000E-45
9.89074E-01 1.00000E-45
9.89962E-01 1.00000E-45
9.90814E-01 1.00000E-45
9.91627E-01 1.00000E-45
9.92404E-01 1.00000E-45
9.93143E-01 1.00000E-45
9.93844E-01 1.00000E-45
9.94508E-01 1.00000E-45
9.95134E-01 1.00000E-45
9.95722E-01 1.00000E-45
9.96273E-01 1.00000E-45
9.96786E-01 1.00000E-45
9.97261E-01 1.00000E-45
9.97698E-01 1.00000E-45
9.98097E-01 1.00000E-45
9.98459E-01 1.00000E-45
9.98782E-01 1.00000E-45
9.99067E-01 1.00000E-45
9.99315E-01 1.00000E-45
9.99524E-01 1.00000E-45
9.99695E-01 1.00000E-45
9.99829E-01 1.00000E-45
9.99924E-01 1.00000E-45
9.99981E-01 1.00000E-45
1.00000E+00 1.00000E-45
