 #
 # Subroutine ELSEPA. Elastic scattering of electrons and positrons
 #                    by neutral atoms and positive ions
 #
 # Projectile: positron
 # Kinetic energy = 4.50000E+06 eV = 1.65372E+05 a.u.
 #
 # WARNING: High-energy factorization with free-atom DF screening.
 #          Absorption, polarization and exchange corrections are
 #          switched off.
 #          Phase shifts are calculated for the bare nucleus.
 #          Scattering amplitudes are not evaluated.
 #
 # Element: Ce,  Z =  58,  atomic weight = 1.40116E+02 g/mol
 #
 # Nuclear model: Fermi distribution
 #                Average radius = 5.55750E-13 cm
 #                Skin thickness = 5.46000E-14 cm
 #
 # Number of electrons = 58
 #
 # Total elastic cross section = 7.35036E-18 cm**2 = 2.62486E-01 a0**2
 # 1st transport cross section = 1.69525E-22 cm**2 = 6.05386E-06 a0**2
 # 2nd transport cross section = 4.87609E-22 cm**2 = 1.74128E-05 a0**2
 #
 #
 # Differential cross section:                       MU=(1-COS(THETA))/2
 #
 #  THETA        MU          DCS          DCS        Sherman      error
 #  (deg)                 (cm**2/sr)   (a0**2/sr)    function
 #----------------------------------------------------------------------
0.00000E+00 2.81287E-12
7.61557E-13 2.81283E-12
1.18994E-12 2.81280E-12
1.71346E-12 2.81278E-12
2.33225E-12 2.81274E-12
3.04617E-12 2.81270E-12
3.85530E-12 2.81266E-12
4.75964E-12 2.81261E-12
5.75917E-12 2.81256E-12
6.85391E-12 2.81250E-12
8.04379E-12 2.81244E-12
9.32893E-12 2.81237E-12
1.07092E-11 2.81229E-12
1.21847E-11 2.81221E-12
1.37554E-11 2.81213E-12
1.54213E-11 2.81204E-12
1.71823E-11 2.81195E-12
1.90386E-11 2.81185E-12
2.09900E-11 2.81174E-12
2.30367E-11 2.81164E-12
2.51785E-11 2.81152E-12
2.74156E-11 2.81140E-12
2.97478E-11 2.81128E-12
3.21752E-11 2.81115E-12
3.46979E-11 2.81102E-12
3.73157E-11 2.81088E-12
4.00286E-11 2.81073E-12
4.28368E-11 2.81058E-12
4.57402E-11 2.81043E-12
4.87388E-11 2.81027E-12
5.18325E-11 2.81011E-12
5.50215E-11 2.80994E-12
5.83057E-11 2.80976E-12
6.16850E-11 2.80959E-12
6.51595E-11 2.80940E-12
6.87293E-11 2.80921E-12
7.23943E-11 2.80902E-12
7.61544E-11 2.80882E-12
1.18991E-10 2.80656E-12
1.71347E-10 2.80380E-12
2.33223E-10 2.80054E-12
3.04617E-10 2.79679E-12
3.85531E-10 2.79256E-12
4.75965E-10 2.78784E-12
5.75917E-10 2.78264E-12
6.85389E-10 2.77696E-12
8.04380E-10 2.77081E-12
9.32891E-10 2.76419E-12
1.07092E-09 2.75712E-12
1.21847E-09 2.74958E-12
1.37554E-09 2.74160E-12
1.54213E-09 2.73318E-12
1.71823E-09 2.72432E-12
1.90386E-09 2.71503E-12
2.09900E-09 2.70532E-12
2.30367E-09 2.69520E-12
2.51785E-09 2.68467E-12
2.74156E-09 2.67375E-12
2.97478E-09 2.66244E-12
3.21752E-09 2.65075E-12
3.46978E-09 2.63869E-12
3.73156E-09 2.62627E-12
4.00286E-09 2.61350E-12
4.28368E-09 2.60038E-12
4.57402E-09 2.58694E-12
4.87388E-09 2.57317E-12
5.18326E-09 2.55909E-12
5.50215E-09 2.54471E-12
5.83057E-09 2.53004E-12
6.16850E-09 2.51509E-12
6.51596E-09 2.49987E-12
6.87293E-09 2.48438E-12
7.23942E-09 2.46865E-12
7.61544E-09 2.45268E-12
1.18991E-08 2.28292E-12
1.71347E-08 2.10011E-12
2.33223E-08 1.91398E-12
3.04617E-08 1.73203E-12
3.85531E-08 1.55973E-12
4.75965E-08 1.40056E-12
5.75917E-08 1.25636E-12
6.85389E-08 1.12805E-12
8.04380E-08 1.01446E-12
9.32891E-08 9.14538E-13
1.07092E-07 8.26960E-13
1.21847E-07 7.50293E-13
1.37554E-07 6.83131E-13
1.54213E-07 6.24166E-13
1.71823E-07 5.72223E-13
1.90386E-07 5.26275E-13
2.09900E-07 4.85438E-13
2.30367E-07 4.48965E-13
2.51785E-07 4.16210E-13
2.74156E-07 3.86639E-13
2.97478E-07 3.59828E-13
3.21752E-07 3.35421E-13
3.46978E-07 3.13121E-13
3.73156E-07 2.92680E-13
4.00286E-07 2.73888E-13
4.28368E-07 2.56568E-13
4.57402E-07 2.40570E-13
4.87388E-07 2.25765E-13
5.18325E-07 2.12035E-13
5.50215E-07 1.99268E-13
5.83057E-07 1.87407E-13
6.16850E-07 1.76376E-13
6.51596E-07 1.66109E-13
6.87293E-07 1.56546E-13
7.23942E-07 1.47632E-13
7.61543E-07 1.39319E-13
1.18991E-06 8.00775E-14
1.71347E-06 4.97885E-14
2.33223E-06 3.26698E-14
3.04617E-06 2.23606E-14
3.85531E-06 1.57932E-14
4.75964E-06 1.14268E-14
5.75916E-06 8.43410E-15
6.85388E-06 6.33302E-15
8.04378E-06 4.84258E-15
9.32888E-06 3.76700E-15
1.07092E-05 2.97782E-15
1.21846E-05 2.38923E-15
1.37553E-05 1.94308E-15
1.54212E-05 1.59952E-15
1.71822E-05 1.33094E-15
1.90385E-05 1.11759E-15
2.09899E-05 9.47034E-16
2.30365E-05 8.08460E-16
2.51783E-05 6.93759E-16
2.74153E-05 5.98672E-16
2.97475E-05 5.19294E-16
3.21749E-05 4.52599E-16
3.46974E-05 3.96216E-16
3.73152E-05 3.48266E-16
4.00281E-05 3.07256E-16
4.28362E-05 2.71998E-16
4.57395E-05 2.41545E-16
4.87380E-05 2.15140E-16
5.18317E-05 1.92165E-16
5.50205E-05 1.72114E-16
5.83045E-05 1.54584E-16
6.16838E-05 1.39217E-16
6.51582E-05 1.25707E-16
6.87277E-05 1.13796E-16
7.23925E-05 1.03260E-16
7.61524E-05 9.39123E-17
9.21439E-05 6.55930E-17
1.09658E-04 4.71972E-17
1.28695E-04 3.48511E-17
1.49255E-04 2.63014E-17
1.71338E-04 2.02293E-17
1.94942E-04 1.58152E-17
2.20070E-04 1.25428E-17
2.46720E-04 1.00744E-17
2.74892E-04 8.18332E-18
3.04586E-04 6.71490E-18
3.35803E-04 5.56055E-18
3.68542E-04 4.64294E-18
4.02802E-04 3.90607E-18
4.38585E-04 3.30919E-18
4.75889E-04 2.82166E-18
5.14715E-04 2.42035E-18
5.55063E-04 2.08764E-18
5.96931E-04 1.80997E-18
6.40321E-04 1.57680E-18
6.85233E-04 1.37986E-18
7.31665E-04 1.21263E-18
7.79618E-04 1.06991E-18
8.29092E-04 9.47506E-19
8.80086E-04 8.42058E-19
9.32601E-04 7.50842E-19
9.86636E-04 6.71621E-19
1.04219E-03 6.02553E-19
1.09927E-03 5.42121E-19
1.15786E-03 4.89062E-19
1.21797E-03 4.42325E-19
1.27961E-03 4.01028E-19
1.34276E-03 3.64431E-19
1.40743E-03 3.31907E-19
1.47362E-03 3.02923E-19
1.54133E-03 2.77028E-19
1.61056E-03 2.53836E-19
1.68131E-03 2.33016E-19
1.75357E-03 2.14283E-19
1.82735E-03 1.97391E-19
1.90265E-03 1.82128E-19
1.97947E-03 1.68309E-19
2.05780E-03 1.55773E-19
2.13765E-03 1.44380E-19
2.21902E-03 1.34007E-19
2.30190E-03 1.24547E-19
2.38630E-03 1.15904E-19
2.47222E-03 1.07996E-19
2.55965E-03 1.00750E-19
2.64859E-03 9.40992E-20
2.73905E-03 8.79868E-20
2.83103E-03 8.23612E-20
2.92452E-03 7.71766E-20
3.01952E-03 7.23924E-20
3.11604E-03 6.79719E-20
3.21407E-03 6.38826E-20
3.31362E-03 6.00950E-20
3.41468E-03 5.65830E-20
3.51725E-03 5.33228E-20
3.62133E-03 5.02932E-20
3.72692E-03 4.74749E-20
3.83403E-03 4.48505E-20
3.94265E-03 4.24042E-20
4.05278E-03 4.01217E-20
4.16442E-03 3.79901E-20
4.27757E-03 3.59976E-20
4.39223E-03 3.41334E-20
4.50840E-03 3.23878E-20
4.62608E-03 3.07519E-20
4.74527E-03 2.92174E-20
4.86597E-03 2.77770E-20
4.98817E-03 2.64239E-20
5.11188E-03 2.51517E-20
5.23711E-03 2.39548E-20
5.36383E-03 2.28280E-20
5.49207E-03 2.17662E-20
5.62181E-03 2.07652E-20
5.75306E-03 1.98207E-20
5.88581E-03 1.89290E-20
6.02007E-03 1.80867E-20
6.15583E-03 1.72904E-20
6.29310E-03 1.65372E-20
6.43187E-03 1.58244E-20
6.57214E-03 1.51493E-20
6.71392E-03 1.45097E-20
6.85720E-03 1.39032E-20
7.00198E-03 1.33280E-20
7.14827E-03 1.27820E-20
7.29605E-03 1.22635E-20
7.44534E-03 1.17709E-20
7.59612E-03 1.13026E-20
7.97965E-03 1.02292E-20
8.37255E-03 9.27957E-21
8.77480E-03 8.43696E-21
9.18641E-03 7.68728E-21
9.60736E-03 7.01851E-21
1.00376E-02 6.42047E-21
1.04773E-02 5.88438E-21
1.09262E-02 5.40273E-21
1.13844E-02 4.96903E-21
1.18520E-02 4.57770E-21
1.23288E-02 4.22388E-21
1.28150E-02 3.90336E-21
1.33104E-02 3.61245E-21
1.38150E-02 3.34795E-21
1.43290E-02 3.10704E-21
1.48521E-02 2.88725E-21
1.53845E-02 2.68641E-21
1.59262E-02 2.50260E-21
1.64770E-02 2.33412E-21
1.70371E-02 2.17947E-21
1.76063E-02 2.03731E-21
1.81848E-02 1.90647E-21
1.87724E-02 1.78588E-21
1.93692E-02 1.67459E-21
1.99751E-02 1.57176E-21
2.05901E-02 1.47664E-21
2.12143E-02 1.38854E-21
2.18476E-02 1.30686E-21
2.24900E-02 1.23105E-21
2.31415E-02 1.16060E-21
2.38021E-02 1.09507E-21
2.44717E-02 1.03407E-21
2.51504E-02 9.77209E-22
2.58382E-02 9.24169E-22
2.65349E-02 8.74645E-22
2.72407E-02 8.28363E-22
2.79555E-02 7.85070E-22
2.86793E-02 7.44542E-22
2.94120E-02 7.06569E-22
3.01537E-02 6.70962E-22
3.09043E-02 6.37547E-22
3.16639E-02 6.06164E-22
3.24324E-02 5.76669E-22
3.32098E-02 5.48928E-22
3.39961E-02 5.22816E-22
3.47912E-02 4.98223E-22
3.55952E-02 4.75042E-22
3.64081E-02 4.53180E-22
3.72297E-02 4.32547E-22
3.80602E-02 4.13061E-22
3.88995E-02 3.94649E-22
3.97476E-02 3.77239E-22
4.06044E-02 3.60767E-22
4.14700E-02 3.45174E-22
4.23443E-02 3.30405E-22
4.32273E-02 3.16407E-22
4.41190E-02 3.03135E-22
4.50194E-02 2.90542E-22
4.59284E-02 2.78588E-22
4.68461E-02 2.67236E-22
4.87074E-02 2.46193E-22
5.06030E-02 2.27156E-22
5.25328E-02 2.09902E-22
5.44967E-02 1.94235E-22
5.64946E-02 1.79984E-22
5.85262E-02 1.66999E-22
6.05914E-02 1.55149E-22
6.26901E-02 1.44317E-22
6.48222E-02 1.34402E-22
6.69873E-02 1.25312E-22
6.91854E-02 1.16966E-22
7.14163E-02 1.09294E-22
7.36799E-02 1.02231E-22
7.59760E-02 9.57216E-23
7.83043E-02 8.97138E-23
8.06647E-02 8.41627E-23
8.30571E-02 7.90277E-23
8.54812E-02 7.42721E-23
8.79369E-02 6.98631E-23
9.04240E-02 6.57710E-23
9.29422E-02 6.19691E-23
9.54915E-02 5.84333E-23
9.80716E-02 5.51416E-23
1.00682E-01 5.20744E-23
1.03323E-01 4.92136E-23
1.05995E-01 4.65431E-23
1.08696E-01 4.40479E-23
1.11427E-01 4.17145E-23
1.14188E-01 3.95306E-23
1.16978E-01 3.74849E-23
1.19797E-01 3.55673E-23
1.22645E-01 3.37682E-23
1.25522E-01 3.20791E-23
1.28428E-01 3.04922E-23
1.31361E-01 2.90001E-23
1.34323E-01 2.75961E-23
1.37313E-01 2.62742E-23
1.40330E-01 2.50288E-23
1.43375E-01 2.38546E-23
1.46447E-01 2.27469E-23
1.49545E-01 2.17012E-23
1.52671E-01 2.07136E-23
1.55823E-01 1.97801E-23
1.59001E-01 1.88973E-23
1.62205E-01 1.80620E-23
1.65435E-01 1.72712E-23
1.68690E-01 1.65220E-23
1.71970E-01 1.58120E-23
1.75276E-01 1.51387E-23
1.78606E-01 1.44999E-23
1.81961E-01 1.38935E-23
1.85340E-01 1.33176E-23
1.88743E-01 1.27704E-23
1.92169E-01 1.22502E-23
1.95619E-01 1.17554E-23
1.99092E-01 1.12846E-23
2.02589E-01 1.08365E-23
2.06107E-01 1.04097E-23
2.09649E-01 1.00030E-23
2.13212E-01 9.61539E-24
2.16797E-01 9.24575E-24
2.20404E-01 8.89312E-24
2.24032E-01 8.55658E-24
2.27680E-01 8.23528E-24
2.31350E-01 7.92841E-24
2.35040E-01 7.63520E-24
2.38751E-01 7.35494E-24
2.42481E-01 7.08695E-24
2.46231E-01 6.83061E-24
2.50000E-01 6.58533E-24
2.53788E-01 6.35053E-24
2.57595E-01 6.12572E-24
2.61421E-01 5.91037E-24
2.65264E-01 5.70404E-24
2.69126E-01 5.50626E-24
2.73005E-01 5.31664E-24
2.76901E-01 5.13476E-24
2.80814E-01 4.96026E-24
2.84744E-01 4.79280E-24
2.88691E-01 4.63203E-24
2.92653E-01 4.47766E-24
2.96632E-01 4.32937E-24
3.00625E-01 4.18689E-24
3.04634E-01 4.04995E-24
3.08658E-01 3.91830E-24
3.12697E-01 3.79169E-24
3.16749E-01 3.66991E-24
3.20816E-01 3.55273E-24
3.24896E-01 3.43997E-24
3.28990E-01 3.33141E-24
3.33097E-01 3.22688E-24
3.37216E-01 3.12620E-24
3.41348E-01 3.02920E-24
3.45492E-01 2.93573E-24
3.49647E-01 2.84564E-24
3.53814E-01 2.75878E-24
3.57992E-01 2.67502E-24
3.62181E-01 2.59424E-24
3.66381E-01 2.51630E-24
3.70590E-01 2.44109E-24
3.74810E-01 2.36849E-24
3.79039E-01 2.29841E-24
3.83277E-01 2.23073E-24
3.87524E-01 2.16537E-24
3.91780E-01 2.10223E-24
3.96044E-01 2.04123E-24
4.00316E-01 1.98228E-24
4.04596E-01 1.92529E-24
4.08882E-01 1.87019E-24
4.13176E-01 1.81691E-24
4.17476E-01 1.76537E-24
4.21783E-01 1.71552E-24
4.26095E-01 1.66730E-24
4.30413E-01 1.62062E-24
4.34737E-01 1.57545E-24
4.39065E-01 1.53171E-24
4.43398E-01 1.48936E-24
4.47736E-01 1.44835E-24
4.52077E-01 1.40863E-24
4.56422E-01 1.37015E-24
4.60770E-01 1.33286E-24
4.65122E-01 1.29673E-24
4.69476E-01 1.26170E-24
4.73832E-01 1.22775E-24
4.78190E-01 1.19483E-24
4.82550E-01 1.16291E-24
4.86912E-01 1.13195E-24
4.91274E-01 1.10191E-24
4.95637E-01 1.07278E-24
5.00000E-01 1.04450E-24
5.04363E-01 1.01707E-24
5.08726E-01 9.90434E-25
5.13088E-01 9.64581E-25
5.17450E-01 9.39479E-25
5.21810E-01 9.15105E-25
5.26168E-01 8.91433E-25
5.30524E-01 8.68441E-25
5.34878E-01 8.46105E-25
5.39230E-01 8.24404E-25
5.43578E-01 8.03317E-25
5.47923E-01 7.82823E-25
5.52264E-01 7.62904E-25
5.56602E-01 7.43541E-25
5.60935E-01 7.24716E-25
5.65263E-01 7.06411E-25
5.69587E-01 6.88611E-25
5.73905E-01 6.71299E-25
5.78217E-01 6.54459E-25
5.82524E-01 6.38077E-25
5.86824E-01 6.22138E-25
5.91118E-01 6.06629E-25
5.95404E-01 5.91536E-25
5.99684E-01 5.76847E-25
6.03956E-01 5.62549E-25
6.08220E-01 5.48629E-25
6.12476E-01 5.35078E-25
6.16723E-01 5.21882E-25
6.20961E-01 5.09033E-25
6.25190E-01 4.96518E-25
6.29410E-01 4.84329E-25
6.33619E-01 4.72455E-25
6.37819E-01 4.60887E-25
6.42008E-01 4.49617E-25
6.46186E-01 4.38635E-25
6.50353E-01 4.27933E-25
6.54508E-01 4.17503E-25
6.58652E-01 4.07336E-25
6.62784E-01 3.97427E-25
6.66903E-01 3.87766E-25
6.71010E-01 3.78347E-25
6.75104E-01 3.69163E-25
6.79184E-01 3.60208E-25
6.83251E-01 3.51474E-25
6.87303E-01 3.42956E-25
6.91342E-01 3.34648E-25
6.95366E-01 3.26544E-25
6.99375E-01 3.18638E-25
7.03368E-01 3.10925E-25
7.07347E-01 3.03399E-25
7.11309E-01 2.96055E-25
7.15256E-01 2.88889E-25
7.19186E-01 2.81895E-25
7.23099E-01 2.75069E-25
7.26995E-01 2.68407E-25
7.30874E-01 2.61903E-25
7.34736E-01 2.55554E-25
7.38579E-01 2.49356E-25
7.42405E-01 2.43305E-25
7.46212E-01 2.37396E-25
7.50000E-01 2.31627E-25
7.53769E-01 2.25993E-25
7.57519E-01 2.20491E-25
7.61249E-01 2.15117E-25
7.64960E-01 2.09869E-25
7.68650E-01 2.04743E-25
7.72320E-01 1.99736E-25
7.75968E-01 1.94844E-25
7.79596E-01 1.90066E-25
7.83203E-01 1.85397E-25
7.86788E-01 1.80836E-25
7.90351E-01 1.76380E-25
7.93893E-01 1.72026E-25
7.97411E-01 1.67771E-25
8.00908E-01 1.63614E-25
8.04381E-01 1.59551E-25
8.07831E-01 1.55581E-25
8.11257E-01 1.51701E-25
8.14660E-01 1.47909E-25
8.18039E-01 1.44203E-25
8.21394E-01 1.40581E-25
8.24724E-01 1.37040E-25
8.28030E-01 1.33580E-25
8.31310E-01 1.30197E-25
8.34565E-01 1.26891E-25
8.37795E-01 1.23659E-25
8.40999E-01 1.20500E-25
8.44177E-01 1.17412E-25
8.47329E-01 1.14393E-25
8.50455E-01 1.11443E-25
8.53553E-01 1.08558E-25
8.56625E-01 1.05738E-25
8.59670E-01 1.02981E-25
8.62687E-01 1.00287E-25
8.65677E-01 9.76527E-26
8.68639E-01 9.50777E-26
8.71572E-01 9.25607E-26
8.74478E-01 9.01002E-26
8.77355E-01 8.76951E-26
8.80203E-01 8.53442E-26
8.83022E-01 8.30463E-26
8.85812E-01 8.08003E-26
8.88573E-01 7.86051E-26
8.91304E-01 7.64596E-26
8.94005E-01 7.43628E-26
8.96677E-01 7.23136E-26
8.99318E-01 7.03112E-26
9.01928E-01 6.83544E-26
9.04508E-01 6.64425E-26
9.07058E-01 6.45744E-26
9.09576E-01 6.27494E-26
9.12063E-01 6.09664E-26
9.14519E-01 5.92248E-26
9.16943E-01 5.75237E-26
9.19335E-01 5.58623E-26
9.21696E-01 5.42398E-26
9.24024E-01 5.26556E-26
9.26320E-01 5.11088E-26
9.28584E-01 4.95989E-26
9.30815E-01 4.81250E-26
9.33013E-01 4.66866E-26
9.35178E-01 4.52829E-26
9.37310E-01 4.39134E-26
9.39409E-01 4.25775E-26
9.41474E-01 4.12745E-26
9.43505E-01 4.00039E-26
9.45503E-01 3.87651E-26
9.47467E-01 3.75576E-26
9.49397E-01 3.63808E-26
9.51293E-01 3.52343E-26
9.53154E-01 3.41175E-26
9.54981E-01 3.30299E-26
9.56773E-01 3.19711E-26
9.58530E-01 3.09407E-26
9.60252E-01 2.99381E-26
9.61940E-01 2.89630E-26
9.63592E-01 2.80149E-26
9.65209E-01 2.70934E-26
9.66790E-01 2.61982E-26
9.68336E-01 2.53288E-26
9.69846E-01 2.44850E-26
9.71321E-01 2.36663E-26
9.72759E-01 2.28724E-26
9.74162E-01 2.21029E-26
9.75528E-01 2.13576E-26
9.76858E-01 2.06362E-26
9.78152E-01 1.99383E-26
9.79410E-01 1.92636E-26
9.80631E-01 1.86120E-26
9.81815E-01 1.79830E-26
9.82963E-01 1.73764E-26
9.84074E-01 1.67921E-26
9.85148E-01 1.62297E-26
9.86185E-01 1.56891E-26
9.87185E-01 1.51700E-26
9.88148E-01 1.46721E-26
9.89074E-01 1.41954E-26
9.89962E-01 1.37396E-26
9.90814E-01 1.33044E-26
9.91627E-01 1.28899E-26
9.92404E-01 1.24957E-26
9.93143E-01 1.21217E-26
9.93844E-01 1.17678E-26
9.94508E-01 1.14338E-26
9.95134E-01 1.11196E-26
9.95722E-01 1.08251E-26
9.96273E-01 1.05501E-26
9.96786E-01 1.02945E-26
9.97261E-01 1.00583E-26
9.97698E-01 9.84134E-27
9.98097E-01 9.64352E-27
9.98459E-01 9.46478E-27
9.98782E-01 9.30505E-27
9.99067E-01 9.16425E-27
9.99315E-01 9.04234E-27
9.99524E-01 8.93927E-27
9.99695E-01 8.85500E-27
9.99829E-01 8.78948E-27
9.99924E-01 8.74271E-27
9.99981E-01 8.71465E-27
1.00000E+00 8.70530E-27
