 #
 # Subroutine ELSEPA. Elastic scattering of electrons and positrons
 #                    by neutral atoms and positive ions
 #
 # Projectile: positron
 # Kinetic energy = 1.50000E+06 eV = 5.51240E+04 a.u.
 #
 # WARNING: High-energy factorization with free-atom DF screening.
 #          Absorption, polarization and exchange corrections are
 #          switched off.
 #          Phase shifts are calculated for the bare nucleus.
 #          Scattering amplitudes are not evaluated.
 #
 # Element: Ce,  Z =  58,  atomic weight = 1.40116E+02 g/mol
 #
 # Nuclear model: Fermi distribution
 #                Average radius = 5.55750E-13 cm
 #                Skin thickness = 5.46000E-14 cm
 #
 # Number of electrons = 58
 #
 # Total elastic cross section = 7.76917E-18 cm**2 = 2.77442E-01 a0**2
 # 1st transport cross section = 9.59518E-22 cm**2 = 3.42650E-05 a0**2
 # 2nd transport cross section = 2.71992E-21 cm**2 = 9.71299E-05 a0**2
 #
 #
 # Differential cross section:                       MU=(1-COS(THETA))/2
 #
 #  THETA        MU          DCS          DCS        Sherman      error
 #  (deg)                 (cm**2/sr)   (a0**2/sr)    function
 #----------------------------------------------------------------------
0.00000E+00 4.53028E-13
7.61557E-13 4.53027E-13
1.18994E-12 4.53026E-13
1.71346E-12 4.53025E-13
2.33225E-12 4.53024E-13
3.04617E-12 4.53023E-13
3.85530E-12 4.53022E-13
4.75964E-12 4.53021E-13
5.75917E-12 4.53019E-13
6.85391E-12 4.53018E-13
8.04379E-12 4.53016E-13
9.32893E-12 4.53014E-13
1.07092E-11 4.53013E-13
1.21847E-11 4.53011E-13
1.37554E-11 4.53008E-13
1.54213E-11 4.53006E-13
1.71823E-11 4.53004E-13
1.90386E-11 4.53001E-13
2.09900E-11 4.52999E-13
2.30367E-11 4.52996E-13
2.51785E-11 4.52993E-13
2.74156E-11 4.52990E-13
2.97478E-11 4.52987E-13
3.21752E-11 4.52984E-13
3.46979E-11 4.52980E-13
3.73157E-11 4.52977E-13
4.00286E-11 4.52973E-13
4.28368E-11 4.52969E-13
4.57402E-11 4.52966E-13
4.87388E-11 4.52962E-13
5.18325E-11 4.52958E-13
5.50215E-11 4.52953E-13
5.83057E-11 4.52949E-13
6.16850E-11 4.52944E-13
6.51595E-11 4.52940E-13
6.87293E-11 4.52935E-13
7.23943E-11 4.52930E-13
7.61544E-11 4.52925E-13
1.18991E-10 4.52869E-13
1.71347E-10 4.52800E-13
2.33223E-10 4.52719E-13
3.04617E-10 4.52626E-13
3.85531E-10 4.52520E-13
4.75965E-10 4.52402E-13
5.75917E-10 4.52272E-13
6.85389E-10 4.52130E-13
8.04380E-10 4.51976E-13
9.32891E-10 4.51809E-13
1.07092E-09 4.51630E-13
1.21847E-09 4.51439E-13
1.37554E-09 4.51236E-13
1.54213E-09 4.51021E-13
1.71823E-09 4.50794E-13
1.90386E-09 4.50555E-13
2.09900E-09 4.50303E-13
2.30367E-09 4.50040E-13
2.51785E-09 4.49765E-13
2.74156E-09 4.49478E-13
2.97478E-09 4.49179E-13
3.21752E-09 4.48868E-13
3.46978E-09 4.48546E-13
3.73156E-09 4.48212E-13
4.00286E-09 4.47866E-13
4.28368E-09 4.47508E-13
4.57402E-09 4.47139E-13
4.87388E-09 4.46759E-13
5.18326E-09 4.46366E-13
5.50215E-09 4.45963E-13
5.83057E-09 4.45548E-13
6.16850E-09 4.45121E-13
6.51596E-09 4.44683E-13
6.87293E-09 4.44234E-13
7.23942E-09 4.43774E-13
7.61544E-09 4.43303E-13
1.18991E-08 4.37992E-13
1.71347E-08 4.31641E-13
2.33223E-08 4.24327E-13
3.04617E-08 4.16137E-13
3.85531E-08 4.07163E-13
4.75965E-08 3.97505E-13
5.75917E-08 3.87261E-13
6.85389E-08 3.76625E-13
8.04380E-08 3.65543E-13
9.32891E-08 3.54047E-13
1.07092E-07 3.42570E-13
1.21847E-07 3.30881E-13
1.37554E-07 3.19043E-13
1.54213E-07 3.07514E-13
1.71823E-07 2.95929E-13
1.90386E-07 2.84467E-13
2.09900E-07 2.73417E-13
2.30367E-07 2.62454E-13
2.51785E-07 2.51827E-13
2.74156E-07 2.41628E-13
2.97478E-07 2.31606E-13
3.21752E-07 2.22063E-13
3.46978E-07 2.12908E-13
3.73156E-07 2.03977E-13
4.00286E-07 1.95603E-13
4.28368E-07 1.87548E-13
4.57402E-07 1.79732E-13
4.87388E-07 1.72497E-13
5.18325E-07 1.65505E-13
5.50215E-07 1.58791E-13
5.83057E-07 1.52553E-13
6.16850E-07 1.46535E-13
6.51596E-07 1.40811E-13
6.87293E-07 1.35451E-13
7.23942E-07 1.30292E-13
7.61543E-07 1.25420E-13
1.18991E-06 8.82428E-14
1.71347E-06 6.49790E-14
2.33223E-06 4.93402E-14
3.04617E-06 3.81853E-14
3.85531E-06 2.99455E-14
4.75964E-06 2.37290E-14
5.75916E-06 1.89973E-14
6.85388E-06 1.52326E-14
8.04378E-06 1.24224E-14
9.32888E-06 1.03337E-14
1.07092E-05 8.56607E-15
1.21846E-05 7.19723E-15
1.37553E-05 6.12762E-15
1.54212E-05 5.20338E-15
1.71822E-05 4.47139E-15
1.90385E-05 3.86915E-15
2.09899E-05 3.34887E-15
2.30365E-05 2.92456E-15
2.51783E-05 2.56192E-15
2.74153E-05 2.24605E-15
2.97475E-05 1.98300E-15
3.21749E-05 1.75246E-15
3.46974E-05 1.55270E-15
3.73152E-05 1.38375E-15
4.00281E-05 1.23323E-15
4.28362E-05 1.10298E-15
4.57395E-05 9.91082E-16
4.87380E-05 8.90286E-16
5.18317E-05 8.02835E-16
5.50205E-05 7.26406E-16
5.83045E-05 6.57842E-16
6.16838E-05 5.97807E-16
6.51582E-05 5.44667E-16
6.87277E-05 4.97083E-16
7.23925E-05 4.55002E-16
7.61524E-05 4.17331E-16
9.21439E-05 3.01356E-16
1.09658E-04 2.24110E-16
1.28695E-04 1.70582E-16
1.49255E-04 1.32485E-16
1.71338E-04 1.04437E-16
1.94942E-04 8.34385E-17
2.20070E-04 6.74541E-17
2.46720E-04 5.50607E-17
2.74892E-04 4.53545E-17
3.04586E-04 3.76408E-17
3.35803E-04 3.14741E-17
3.68542E-04 2.65022E-17
4.02802E-04 2.24641E-17
4.38585E-04 1.91643E-17
4.75889E-04 1.64437E-17
5.14715E-04 1.41886E-17
5.55063E-04 1.23052E-17
5.96931E-04 1.07240E-17
6.40321E-04 9.38547E-18
6.85233E-04 8.25299E-18
7.31665E-04 7.29100E-18
7.79618E-04 6.46019E-18
8.29092E-04 5.74713E-18
8.80086E-04 5.13157E-18
9.32601E-04 4.59364E-18
9.86636E-04 4.12614E-18
1.04219E-03 3.71700E-18
1.09927E-03 3.35636E-18
1.15786E-03 3.03947E-18
1.21797E-03 2.75879E-18
1.27961E-03 2.50937E-18
1.34276E-03 2.28817E-18
1.40743E-03 2.09028E-18
1.47362E-03 1.91332E-18
1.54133E-03 1.75510E-18
1.61056E-03 1.61231E-18
1.68131E-03 1.48388E-18
1.75357E-03 1.36823E-18
1.82735E-03 1.26311E-18
1.90265E-03 1.16807E-18
1.97947E-03 1.08187E-18
2.05780E-03 1.00320E-18
2.13765E-03 9.31673E-19
2.21902E-03 8.66368E-19
2.30190E-03 8.06548E-19
2.38630E-03 7.51883E-19
2.47222E-03 7.01694E-19
2.55965E-03 6.55571E-19
2.64859E-03 6.13231E-19
2.73905E-03 5.74160E-19
2.83103E-03 5.38142E-19
2.92452E-03 5.04942E-19
3.01952E-03 4.74171E-19
3.11604E-03 4.45724E-19
3.21407E-03 4.19395E-19
3.31362E-03 3.94914E-19
3.41468E-03 3.72211E-19
3.51725E-03 3.51115E-19
3.62133E-03 3.31455E-19
3.72692E-03 3.13164E-19
3.83403E-03 2.96106E-19
3.94265E-03 2.80176E-19
4.05278E-03 2.65311E-19
4.16442E-03 2.51404E-19
4.27757E-03 2.38388E-19
4.39223E-03 2.26209E-19
4.50840E-03 2.14782E-19
4.62608E-03 2.04067E-19
4.74527E-03 1.94016E-19
4.86597E-03 1.84559E-19
4.98817E-03 1.75674E-19
5.11188E-03 1.67319E-19
5.23711E-03 1.59443E-19
5.36383E-03 1.52028E-19
5.49207E-03 1.45037E-19
5.62181E-03 1.38437E-19
5.75306E-03 1.32210E-19
5.88581E-03 1.26326E-19
6.02007E-03 1.20762E-19
6.15583E-03 1.15503E-19
6.29310E-03 1.10523E-19
6.43187E-03 1.05807E-19
6.57214E-03 1.01341E-19
6.71392E-03 9.71039E-20
6.85720E-03 9.30858E-20
7.00198E-03 8.92742E-20
7.14827E-03 8.56517E-20
7.29605E-03 8.22116E-20
7.44534E-03 7.89424E-20
7.59612E-03 7.58314E-20
7.97965E-03 6.86979E-20
8.37255E-03 6.23799E-20
8.77480E-03 5.67684E-20
9.18641E-03 5.17706E-20
9.60736E-03 4.73081E-20
1.00376E-02 4.33139E-20
1.04773E-02 3.97304E-20
1.09262E-02 3.65081E-20
1.13844E-02 3.36043E-20
1.18520E-02 3.09820E-20
1.23288E-02 2.86093E-20
1.28150E-02 2.64582E-20
1.33104E-02 2.45042E-20
1.38150E-02 2.27263E-20
1.43290E-02 2.11059E-20
1.48521E-02 1.96265E-20
1.53845E-02 1.82737E-20
1.59262E-02 1.70347E-20
1.64770E-02 1.58983E-20
1.70371E-02 1.48545E-20
1.76063E-02 1.38944E-20
1.81848E-02 1.30101E-20
1.87724E-02 1.21945E-20
1.93692E-02 1.14414E-20
1.99751E-02 1.07452E-20
2.05901E-02 1.01007E-20
2.12143E-02 9.50347E-21
2.18476E-02 8.94940E-21
2.24900E-02 8.43480E-21
2.31415E-02 7.95636E-21
2.38021E-02 7.51110E-21
2.44717E-02 7.09630E-21
2.51504E-02 6.70951E-21
2.58382E-02 6.34850E-21
2.65349E-02 6.01124E-21
2.72407E-02 5.69588E-21
2.79555E-02 5.40076E-21
2.86793E-02 5.12432E-21
2.94120E-02 4.86519E-21
3.01537E-02 4.62209E-21
3.09043E-02 4.39384E-21
3.16639E-02 4.17937E-21
3.24324E-02 3.97771E-21
3.32098E-02 3.78795E-21
3.39961E-02 3.60926E-21
3.47912E-02 3.44088E-21
3.55952E-02 3.28210E-21
3.64081E-02 3.13229E-21
3.72297E-02 2.99084E-21
3.80602E-02 2.85721E-21
3.88995E-02 2.73088E-21
3.97476E-02 2.61138E-21
4.06044E-02 2.49827E-21
4.14700E-02 2.39116E-21
4.23443E-02 2.28966E-21
4.32273E-02 2.19344E-21
4.41190E-02 2.10216E-21
4.50194E-02 2.01552E-21
4.59284E-02 1.93326E-21
4.68461E-02 1.85510E-21
4.87074E-02 1.71015E-21
5.06030E-02 1.57893E-21
5.25328E-02 1.45992E-21
5.44967E-02 1.35178E-21
5.64946E-02 1.25336E-21
5.85262E-02 1.16363E-21
6.05914E-02 1.08169E-21
6.26901E-02 1.00675E-21
6.48222E-02 9.38110E-22
6.69873E-02 8.75150E-22
6.91854E-02 8.17315E-22
7.14163E-02 7.64118E-22
7.36799E-02 7.15125E-22
7.59760E-02 6.69943E-22
7.83043E-02 6.28224E-22
8.06647E-02 5.89660E-22
8.30571E-02 5.53970E-22
8.54812E-02 5.20900E-22
8.79369E-02 4.90227E-22
9.04240E-02 4.61747E-22
9.29422E-02 4.35273E-22
9.54915E-02 4.10643E-22
9.80716E-02 3.87705E-22
1.00682E-01 3.66321E-22
1.03323E-01 3.46369E-22
1.05995E-01 3.27737E-22
1.08696E-01 3.10319E-22
1.11427E-01 2.94026E-22
1.14188E-01 2.78771E-22
1.16978E-01 2.64476E-22
1.19797E-01 2.51070E-22
1.22645E-01 2.38489E-22
1.25522E-01 2.26672E-22
1.28428E-01 2.15566E-22
1.31361E-01 2.05120E-22
1.34323E-01 1.95288E-22
1.37313E-01 1.86027E-22
1.40330E-01 1.77299E-22
1.43375E-01 1.69067E-22
1.46447E-01 1.61299E-22
1.49545E-01 1.53963E-22
1.52671E-01 1.47032E-22
1.55823E-01 1.40478E-22
1.59001E-01 1.34279E-22
1.62205E-01 1.28411E-22
1.65435E-01 1.22854E-22
1.68690E-01 1.17588E-22
1.71970E-01 1.12595E-22
1.75276E-01 1.07859E-22
1.78606E-01 1.03364E-22
1.81961E-01 9.90956E-23
1.85340E-01 9.50406E-23
1.88743E-01 9.11864E-23
1.92169E-01 8.75212E-23
1.95619E-01 8.40341E-23
1.99092E-01 8.07151E-23
2.02589E-01 7.75544E-23
2.06107E-01 7.45434E-23
2.09649E-01 7.16736E-23
2.13212E-01 6.89372E-23
2.16797E-01 6.63271E-23
2.20404E-01 6.38361E-23
2.24032E-01 6.14582E-23
2.27680E-01 5.91871E-23
2.31350E-01 5.70173E-23
2.35040E-01 5.49434E-23
2.38751E-01 5.29605E-23
2.42481E-01 5.10638E-23
2.46231E-01 4.92490E-23
2.50000E-01 4.75119E-23
2.53788E-01 4.58486E-23
2.57595E-01 4.42554E-23
2.61421E-01 4.27288E-23
2.65264E-01 4.12656E-23
2.69126E-01 3.98627E-23
2.73005E-01 3.85170E-23
2.76901E-01 3.72260E-23
2.80814E-01 3.59870E-23
2.84744E-01 3.47975E-23
2.88691E-01 3.36553E-23
2.92653E-01 3.25580E-23
2.96632E-01 3.15036E-23
3.00625E-01 3.04902E-23
3.04634E-01 2.95159E-23
3.08658E-01 2.85789E-23
3.12697E-01 2.76775E-23
3.16749E-01 2.68102E-23
3.20816E-01 2.59754E-23
3.24896E-01 2.51717E-23
3.28990E-01 2.43978E-23
3.33097E-01 2.36523E-23
3.37216E-01 2.29340E-23
3.41348E-01 2.22417E-23
3.45492E-01 2.15744E-23
3.49647E-01 2.09310E-23
3.53814E-01 2.03105E-23
3.57992E-01 1.97119E-23
3.62181E-01 1.91344E-23
3.66381E-01 1.85769E-23
3.70590E-01 1.80389E-23
3.74810E-01 1.75193E-23
3.79039E-01 1.70175E-23
3.83277E-01 1.65329E-23
3.87524E-01 1.60646E-23
3.91780E-01 1.56121E-23
3.96044E-01 1.51747E-23
4.00316E-01 1.47518E-23
4.04596E-01 1.43429E-23
4.08882E-01 1.39474E-23
4.13176E-01 1.35648E-23
4.17476E-01 1.31947E-23
4.21783E-01 1.28365E-23
4.26095E-01 1.24898E-23
4.30413E-01 1.21541E-23
4.34737E-01 1.18291E-23
4.39065E-01 1.15144E-23
4.43398E-01 1.12095E-23
4.47736E-01 1.09141E-23
4.52077E-01 1.06279E-23
4.56422E-01 1.03505E-23
4.60770E-01 1.00817E-23
4.65122E-01 9.82104E-24
4.69476E-01 9.56830E-24
4.73832E-01 9.32320E-24
4.78190E-01 9.08546E-24
4.82550E-01 8.85483E-24
4.86912E-01 8.63105E-24
4.91274E-01 8.41389E-24
4.95637E-01 8.20312E-24
5.00000E-01 7.99852E-24
5.04363E-01 7.79988E-24
5.08726E-01 7.60701E-24
5.13088E-01 7.41969E-24
5.17450E-01 7.23775E-24
5.21810E-01 7.06100E-24
5.26168E-01 6.88928E-24
5.30524E-01 6.72242E-24
5.34878E-01 6.56025E-24
5.39230E-01 6.40263E-24
5.43578E-01 6.24940E-24
5.47923E-01 6.10042E-24
5.52264E-01 5.95556E-24
5.56602E-01 5.81468E-24
5.60935E-01 5.67766E-24
5.65263E-01 5.54437E-24
5.69587E-01 5.41470E-24
5.73905E-01 5.28852E-24
5.78217E-01 5.16574E-24
5.82524E-01 5.04625E-24
5.86824E-01 4.92993E-24
5.91118E-01 4.81670E-24
5.95404E-01 4.70647E-24
5.99684E-01 4.59913E-24
6.03956E-01 4.49460E-24
6.08220E-01 4.39280E-24
6.12476E-01 4.29364E-24
6.16723E-01 4.19705E-24
6.20961E-01 4.10294E-24
6.25190E-01 4.01125E-24
6.29410E-01 3.92190E-24
6.33619E-01 3.83482E-24
6.37819E-01 3.74996E-24
6.42008E-01 3.66723E-24
6.46186E-01 3.58658E-24
6.50353E-01 3.50796E-24
6.54508E-01 3.43130E-24
6.58652E-01 3.35654E-24
6.62784E-01 3.28364E-24
6.66903E-01 3.21253E-24
6.71010E-01 3.14317E-24
6.75104E-01 3.07552E-24
6.79184E-01 3.00951E-24
6.83251E-01 2.94511E-24
6.87303E-01 2.88228E-24
6.91342E-01 2.82096E-24
6.95366E-01 2.76111E-24
6.99375E-01 2.70271E-24
7.03368E-01 2.64570E-24
7.07347E-01 2.59005E-24
7.11309E-01 2.53572E-24
7.15256E-01 2.48268E-24
7.19186E-01 2.43089E-24
7.23099E-01 2.38033E-24
7.26995E-01 2.33094E-24
7.30874E-01 2.28272E-24
7.34736E-01 2.23562E-24
7.38579E-01 2.18961E-24
7.42405E-01 2.14468E-24
7.46212E-01 2.10078E-24
7.50000E-01 2.05789E-24
7.53769E-01 2.01600E-24
7.57519E-01 1.97506E-24
7.61249E-01 1.93506E-24
7.64960E-01 1.89598E-24
7.68650E-01 1.85778E-24
7.72320E-01 1.82046E-24
7.75968E-01 1.78398E-24
7.79596E-01 1.74833E-24
7.83203E-01 1.71348E-24
7.86788E-01 1.67941E-24
7.90351E-01 1.64612E-24
7.93893E-01 1.61357E-24
7.97411E-01 1.58175E-24
8.00908E-01 1.55064E-24
8.04381E-01 1.52023E-24
8.07831E-01 1.49049E-24
8.11257E-01 1.46142E-24
8.14660E-01 1.43299E-24
8.18039E-01 1.40520E-24
8.21394E-01 1.37802E-24
8.24724E-01 1.35144E-24
8.28030E-01 1.32545E-24
8.31310E-01 1.30003E-24
8.34565E-01 1.27518E-24
8.37795E-01 1.25087E-24
8.40999E-01 1.22710E-24
8.44177E-01 1.20386E-24
8.47329E-01 1.18112E-24
8.50455E-01 1.15889E-24
8.53553E-01 1.13715E-24
8.56625E-01 1.11588E-24
8.59670E-01 1.09508E-24
8.62687E-01 1.07474E-24
8.65677E-01 1.05485E-24
8.68639E-01 1.03540E-24
8.71572E-01 1.01637E-24
8.74478E-01 9.97766E-25
8.77355E-01 9.79572E-25
8.80203E-01 9.61779E-25
8.83022E-01 9.44381E-25
8.85812E-01 9.27368E-25
8.88573E-01 9.10732E-25
8.91304E-01 8.94466E-25
8.94005E-01 8.78563E-25
8.96677E-01 8.63014E-25
8.99318E-01 8.47814E-25
9.01928E-01 8.32954E-25
9.04508E-01 8.18428E-25
9.07058E-01 8.04231E-25
9.09576E-01 7.90354E-25
9.12063E-01 7.76792E-25
9.14519E-01 7.63540E-25
9.16943E-01 7.50590E-25
9.19335E-01 7.37938E-25
9.21696E-01 7.25578E-25
9.24024E-01 7.13504E-25
9.26320E-01 7.01711E-25
9.28584E-01 6.90195E-25
9.30815E-01 6.78950E-25
9.33013E-01 6.67971E-25
9.35178E-01 6.57253E-25
9.37310E-01 6.46793E-25
9.39409E-01 6.36585E-25
9.41474E-01 6.26625E-25
9.43505E-01 6.16910E-25
9.45503E-01 6.07435E-25
9.47467E-01 5.98195E-25
9.49397E-01 5.89188E-25
9.51293E-01 5.80410E-25
9.53154E-01 5.71856E-25
9.54981E-01 5.63524E-25
9.56773E-01 5.55409E-25
9.58530E-01 5.47509E-25
9.60252E-01 5.39821E-25
9.61940E-01 5.32341E-25
9.63592E-01 5.25066E-25
9.65209E-01 5.17994E-25
9.66790E-01 5.11120E-25
9.68336E-01 5.04444E-25
9.69846E-01 4.97962E-25
9.71321E-01 4.91671E-25
9.72759E-01 4.85569E-25
9.74162E-01 4.79654E-25
9.75528E-01 4.73923E-25
9.76858E-01 4.68374E-25
9.78152E-01 4.63005E-25
9.79410E-01 4.57813E-25
9.80631E-01 4.52797E-25
9.81815E-01 4.47955E-25
9.82963E-01 4.43284E-25
9.84074E-01 4.38784E-25
9.85148E-01 4.34452E-25
9.86185E-01 4.30286E-25
9.87185E-01 4.26286E-25
9.88148E-01 4.22449E-25
9.89074E-01 4.18773E-25
9.89962E-01 4.15259E-25
9.90814E-01 4.11903E-25
9.91627E-01 4.08706E-25
9.92404E-01 4.05665E-25
9.93143E-01 4.02780E-25
9.93844E-01 4.00049E-25
9.94508E-01 3.97471E-25
9.95134E-01 3.95047E-25
9.95722E-01 3.92773E-25
9.96273E-01 3.90650E-25
9.96786E-01 3.88677E-25
9.97261E-01 3.86854E-25
9.97698E-01 3.85178E-25
9.98097E-01 3.83651E-25
9.98459E-01 3.82270E-25
9.98782E-01 3.81036E-25
9.99067E-01 3.79949E-25
9.99315E-01 3.79007E-25
9.99524E-01 3.78211E-25
9.99695E-01 3.77560E-25
9.99829E-01 3.77054E-25
9.99924E-01 3.76693E-25
9.99981E-01 3.76476E-25
1.00000E+00 3.76404E-25
