 #
 # Subroutine ELSEPA. Elastic scattering of electrons and positrons
 #                    by neutral atoms and positive ions
 #
 # Projectile: positron
 # Kinetic energy = 1.25000E+08 eV = 4.59367E+06 a.u.
 #
 # WARNING: High-energy factorization with free-atom DF screening.
 #          Absorption, polarization and exchange corrections are
 #          switched off.
 #          Phase shifts are calculated for the bare nucleus.
 #          Scattering amplitudes are not evaluated.
 #
 # Element: Ce,  Z =  58,  atomic weight = 1.40116E+02 g/mol
 #
 # Nuclear model: Fermi distribution
 #                Average radius = 5.55750E-13 cm
 #                Skin thickness = 5.46000E-14 cm
 #
 # Number of electrons = 58
 #
 # Total elastic cross section = 7.28411E-18 cm**2 = 2.60120E-01 a0**2
 # 1st transport cross section = 4.06252E-25 cm**2 = 1.45075E-08 a0**2
 # 2nd transport cross section = 1.21123E-24 cm**2 = 4.32538E-08 a0**2
 #
 #
 # Differential cross section:                       MU=(1-COS(THETA))/2
 #
 #  THETA        MU          DCS          DCS        Sherman      error
 #  (deg)                 (cm**2/sr)   (a0**2/sr)    function
 #----------------------------------------------------------------------
0.00000E+00 1.76468E-09
7.61557E-13 1.74878E-09
1.18994E-12 1.73994E-09
1.71346E-12 1.72925E-09
2.33225E-12 1.71674E-09
3.04617E-12 1.70250E-09
3.85530E-12 1.68659E-09
4.75964E-12 1.66908E-09
5.75917E-12 1.65008E-09
6.85391E-12 1.62967E-09
8.04379E-12 1.60794E-09
9.32893E-12 1.58501E-09
1.07092E-11 1.56097E-09
1.21847E-11 1.53593E-09
1.37554E-11 1.50999E-09
1.54213E-11 1.48345E-09
1.71823E-11 1.45628E-09
1.90386E-11 1.42833E-09
2.09900E-11 1.39970E-09
2.30367E-11 1.37061E-09
2.51785E-11 1.34185E-09
2.74156E-11 1.31267E-09
2.97478E-11 1.28312E-09
3.21752E-11 1.25330E-09
3.46979E-11 1.22415E-09
3.73157E-11 1.19513E-09
4.00286E-11 1.16601E-09
4.28368E-11 1.13688E-09
4.57402E-11 1.10826E-09
4.87388E-11 1.08046E-09
5.18325E-11 1.05277E-09
5.50215E-11 1.02525E-09
5.83057E-11 9.97953E-10
6.16850E-11 9.72086E-10
6.51595E-11 9.46469E-10
6.87293E-11 9.21134E-10
7.23943E-11 8.96109E-10
7.61544E-11 8.72168E-10
1.18991E-10 6.64972E-10
1.71347E-10 5.13440E-10
2.33223E-10 4.04909E-10
3.04617E-10 3.26450E-10
3.85531E-10 2.67951E-10
4.75965E-10 2.23013E-10
5.75917E-10 1.87500E-10
6.85389E-10 1.58819E-10
8.04380E-10 1.35326E-10
9.32891E-10 1.15880E-10
1.07092E-09 9.96346E-11
1.21847E-09 8.60375E-11
1.37554E-09 7.46129E-11
1.54213E-09 6.46706E-11
1.71823E-09 5.62610E-11
1.90386E-09 4.93861E-11
2.09900E-09 4.37146E-11
2.30367E-09 3.89120E-11
2.51785E-09 3.44308E-11
2.74156E-09 3.06729E-11
2.97478E-09 2.74988E-11
3.21752E-09 2.48000E-11
3.46978E-09 2.23029E-11
3.73156E-09 2.01114E-11
4.00286E-09 1.82246E-11
4.28368E-09 1.65916E-11
4.57402E-09 1.51167E-11
4.87388E-09 1.37544E-11
5.18326E-09 1.25638E-11
5.50215E-09 1.15187E-11
5.83057E-09 1.05956E-11
6.16850E-09 9.70688E-12
6.51596E-09 8.92067E-12
6.87293E-09 8.22272E-12
7.23942E-09 7.60103E-12
7.61544E-09 7.01805E-12
1.18991E-08 3.39018E-12
1.71347E-08 1.82818E-12
2.33223E-08 1.08160E-12
3.04617E-08 6.86864E-13
3.85531E-08 4.59560E-13
4.75965E-08 3.19147E-13
5.75917E-08 2.28271E-13
6.85389E-08 1.67150E-13
8.04380E-08 1.24880E-13
9.32891E-08 9.50197E-14
1.07092E-07 7.35159E-14
1.21847E-07 5.77517E-14
1.37554E-07 4.59894E-14
1.54213E-07 3.70615E-14
1.71823E-07 3.02281E-14
1.90386E-07 2.48977E-14
2.09900E-07 2.07106E-14
2.30367E-07 1.73577E-14
2.51785E-07 1.46674E-14
2.74156E-07 1.24774E-14
2.97478E-07 1.06833E-14
3.21752E-07 9.20160E-15
3.46978E-07 7.96661E-15
3.73156E-07 6.93463E-15
4.00286E-07 6.06164E-15
4.28368E-07 5.32332E-15
4.57402E-07 4.69310E-15
4.87388E-07 4.15352E-15
5.18325E-07 3.68936E-15
5.50215E-07 3.28761E-15
5.83057E-07 2.93952E-15
6.16850E-07 2.63554E-15
6.51596E-07 2.37014E-15
6.87293E-07 2.13702E-15
7.23942E-07 1.93184E-15
7.61543E-07 1.75069E-15
1.18991E-06 7.31682E-16
1.71347E-06 3.57236E-16
2.33223E-06 1.94510E-16
3.04617E-06 1.14779E-16
3.85531E-06 7.20382E-17
4.75964E-06 4.74696E-17
5.75916E-06 3.25379E-17
6.85388E-06 2.30413E-17
8.04378E-06 1.67692E-17
9.32888E-06 1.24924E-17
1.07092E-05 9.49550E-18
1.21846E-05 7.34525E-18
1.37553E-05 5.77025E-18
1.54212E-05 4.59536E-18
1.71822E-05 3.70465E-18
1.90385E-05 3.01845E-18
2.09899E-05 2.48579E-18
2.30365E-05 2.06529E-18
2.51783E-05 1.72968E-18
2.74153E-05 1.45923E-18
2.97475E-05 1.23945E-18
3.21749E-05 1.05950E-18
3.46974E-05 9.11088E-19
3.73152E-05 7.87838E-19
4.00281E-05 6.84790E-19
4.28362E-05 5.98071E-19
4.57395E-05 5.24642E-19
4.87380E-05 4.62115E-19
5.18317E-05 4.08601E-19
5.50205E-05 3.62590E-19
5.83045E-05 3.22864E-19
6.16838E-05 2.88431E-19
6.51582E-05 2.58473E-19
6.87277E-05 2.32310E-19
7.23925E-05 2.09379E-19
7.61524E-05 1.89315E-19
9.21439E-05 1.29275E-19
1.09658E-04 9.12425E-20
1.28695E-04 6.62224E-20
1.49255E-04 4.92113E-20
1.71338E-04 3.73273E-20
1.94942E-04 2.88204E-20
2.20070E-04 2.26031E-20
2.46720E-04 1.79745E-20
2.74892E-04 1.44711E-20
3.04586E-04 1.17806E-20
3.35803E-04 9.68660E-21
3.68542E-04 8.03745E-21
4.02802E-04 6.72439E-21
4.38585E-04 5.66853E-21
4.75889E-04 4.81177E-21
5.14715E-04 4.11068E-21
5.55063E-04 3.53258E-21
5.96931E-04 3.05248E-21
6.40321E-04 2.65110E-21
6.85233E-04 2.31346E-21
7.31665E-04 2.02779E-21
7.79618E-04 1.78480E-21
8.29092E-04 1.57707E-21
8.80086E-04 1.39863E-21
9.32601E-04 1.24467E-21
9.86636E-04 1.11127E-21
1.04219E-03 9.95225E-22
1.09927E-03 8.93898E-22
1.15786E-03 8.05108E-22
1.21797E-03 7.27039E-22
1.27961E-03 6.58177E-22
1.34276E-03 5.97252E-22
1.40743E-03 5.43191E-22
1.47362E-03 4.95086E-22
1.54133E-03 4.52166E-22
1.61056E-03 4.13780E-22
1.68131E-03 3.79364E-22
1.75357E-03 3.48437E-22
1.82735E-03 3.20583E-22
1.90265E-03 2.95445E-22
1.97947E-03 2.72710E-22
2.05780E-03 2.52109E-22
2.13765E-03 2.33406E-22
2.21902E-03 2.16396E-22
2.30190E-03 2.00899E-22
2.38630E-03 1.86756E-22
2.47222E-03 1.73827E-22
2.55965E-03 1.61991E-22
2.64859E-03 1.51139E-22
2.73905E-03 1.41173E-22
2.83103E-03 1.32010E-22
2.92452E-03 1.23573E-22
3.01952E-03 1.15793E-22
3.11604E-03 1.08611E-22
3.21407E-03 1.01973E-22
3.31362E-03 9.58303E-23
3.41468E-03 9.01388E-23
3.51725E-03 8.48597E-23
3.62133E-03 7.99578E-23
3.72692E-03 7.54013E-23
3.83403E-03 7.11615E-23
3.94265E-03 6.72125E-23
4.05278E-03 6.35307E-23
4.16442E-03 6.00949E-23
4.27757E-03 5.68856E-23
4.39223E-03 5.38852E-23
4.50840E-03 5.10777E-23
4.62608E-03 4.84484E-23
4.74527E-03 4.59840E-23
4.86597E-03 4.36724E-23
4.98817E-03 4.15022E-23
5.11188E-03 3.94634E-23
5.23711E-03 3.75465E-23
5.36383E-03 3.57430E-23
5.49207E-03 3.40449E-23
5.62181E-03 3.24449E-23
5.75306E-03 3.09364E-23
5.88581E-03 2.95132E-23
6.02007E-03 2.81696E-23
6.15583E-03 2.69003E-23
6.29310E-03 2.57006E-23
6.43187E-03 2.45659E-23
6.57214E-03 2.34920E-23
6.71392E-03 2.24751E-23
6.85720E-03 2.15116E-23
7.00198E-03 2.05983E-23
7.14827E-03 1.97320E-23
7.29605E-03 1.89099E-23
7.44534E-03 1.81293E-23
7.59612E-03 1.73878E-23
7.97965E-03 1.56902E-23
8.37255E-03 1.41907E-23
8.77480E-03 1.28625E-23
9.18641E-03 1.16827E-23
9.60736E-03 1.06321E-23
1.00376E-02 9.69423E-24
1.04773E-02 8.85498E-24
1.09262E-02 8.10229E-24
1.13844E-02 7.42578E-24
1.18520E-02 6.81646E-24
1.23288E-02 6.26658E-24
1.28150E-02 5.76939E-24
1.33104E-02 5.31901E-24
1.38150E-02 4.91033E-24
1.43290E-02 4.53885E-24
1.48521E-02 4.20064E-24
1.53845E-02 3.89223E-24
1.59262E-02 3.61057E-24
1.64770E-02 3.35298E-24
1.70371E-02 3.11705E-24
1.76063E-02 2.90068E-24
1.81848E-02 2.70199E-24
1.87724E-02 2.51929E-24
1.93692E-02 2.35111E-24
1.99751E-02 2.19609E-24
2.05901E-02 2.05306E-24
2.12143E-02 1.92092E-24
2.18476E-02 1.79873E-24
2.24900E-02 1.68562E-24
2.31415E-02 1.58081E-24
2.38021E-02 1.48359E-24
2.44717E-02 1.39333E-24
2.51504E-02 1.30946E-24
2.58382E-02 1.23144E-24
2.65349E-02 1.15882E-24
2.72407E-02 1.09116E-24
2.79555E-02 1.02807E-24
2.86793E-02 9.69194E-25
2.94120E-02 9.14211E-25
3.01537E-02 8.62823E-25
3.09043E-02 8.14761E-25
3.16639E-02 7.69778E-25
3.24324E-02 7.27647E-25
3.32098E-02 6.88161E-25
3.39961E-02 6.51130E-25
3.47912E-02 6.16379E-25
3.55952E-02 5.83747E-25
3.64081E-02 5.53087E-25
3.72297E-02 5.24262E-25
3.80602E-02 4.97148E-25
3.88995E-02 4.71628E-25
3.97476E-02 4.47595E-25
4.06044E-02 4.24951E-25
4.14700E-02 4.03605E-25
4.23443E-02 3.83471E-25
4.32273E-02 3.64472E-25
4.41190E-02 3.46535E-25
4.50194E-02 3.29593E-25
4.59284E-02 3.13583E-25
4.68461E-02 2.98447E-25
4.87074E-02 2.70584E-25
5.06030E-02 2.45618E-25
5.25328E-02 2.23209E-25
5.44967E-02 2.03066E-25
5.64946E-02 1.84932E-25
5.85262E-02 1.68584E-25
6.05914E-02 1.53826E-25
6.26901E-02 1.40486E-25
6.48222E-02 1.28413E-25
6.69873E-02 1.17474E-25
6.91854E-02 1.07550E-25
7.14163E-02 9.85387E-26
7.36799E-02 9.03467E-26
7.59760E-02 8.28923E-26
7.83043E-02 7.61024E-26
8.06647E-02 6.99122E-26
8.30571E-02 6.42638E-26
8.54812E-02 5.91053E-26
8.79369E-02 5.43904E-26
9.04240E-02 5.00777E-26
9.29422E-02 4.61298E-26
9.54915E-02 4.25134E-26
9.80716E-02 3.91982E-26
1.00682E-01 3.61573E-26
1.03323E-01 3.33660E-26
1.05995E-01 3.08025E-26
1.08696E-01 2.84466E-26
1.11427E-01 2.62805E-26
1.14188E-01 2.42876E-26
1.16978E-01 2.24533E-26
1.19797E-01 2.07640E-26
1.22645E-01 1.92076E-26
1.25522E-01 1.77729E-26
1.28428E-01 1.64499E-26
1.31361E-01 1.52293E-26
1.34323E-01 1.41028E-26
1.37313E-01 1.30626E-26
1.40330E-01 1.21019E-26
1.43375E-01 1.12143E-26
1.46447E-01 1.03938E-26
1.49545E-01 9.63526E-27
1.52671E-01 8.93368E-27
1.55823E-01 8.28462E-27
1.59001E-01 7.68397E-27
1.62205E-01 7.12797E-27
1.65435E-01 6.61317E-27
1.68690E-01 6.13640E-27
1.71970E-01 5.69475E-27
1.75276E-01 5.28553E-27
1.78606E-01 4.90628E-27
1.81961E-01 4.55474E-27
1.85340E-01 4.22882E-27
1.88743E-01 3.92660E-27
1.92169E-01 3.64629E-27
1.95619E-01 3.38628E-27
1.99092E-01 3.14506E-27
2.02589E-01 2.92122E-27
2.06107E-01 2.71350E-27
2.09649E-01 2.52070E-27
2.13212E-01 2.34173E-27
2.16797E-01 2.17559E-27
2.20404E-01 2.02132E-27
2.24032E-01 1.87808E-27
2.27680E-01 1.74505E-27
2.31350E-01 1.62151E-27
2.35040E-01 1.50675E-27
2.38751E-01 1.40016E-27
2.42481E-01 1.30114E-27
2.46231E-01 1.20915E-27
2.50000E-01 1.12369E-27
2.53788E-01 1.04428E-27
2.57595E-01 9.70502E-28
2.61421E-01 9.01944E-28
2.65264E-01 8.38237E-28
2.69126E-01 7.79036E-28
2.73005E-01 7.24020E-28
2.76901E-01 6.72893E-28
2.80814E-01 6.25379E-28
2.84744E-01 5.81221E-28
2.88691E-01 5.40182E-28
2.92653E-01 5.02042E-28
2.96632E-01 4.66595E-28
3.00625E-01 4.33651E-28
3.04634E-01 4.03034E-28
3.08658E-01 3.74579E-28
3.12697E-01 3.48134E-28
3.16749E-01 3.23556E-28
3.20816E-01 3.00716E-28
3.24896E-01 2.79489E-28
3.28990E-01 2.59763E-28
3.33097E-01 2.41431E-28
3.37216E-01 2.24395E-28
3.41348E-01 2.08565E-28
3.45492E-01 1.93855E-28
3.49647E-01 1.80187E-28
3.53814E-01 1.67486E-28
3.57992E-01 1.55685E-28
3.62181E-01 1.44720E-28
3.66381E-01 1.34533E-28
3.70590E-01 1.25069E-28
3.74810E-01 1.16276E-28
3.79039E-01 1.08107E-28
3.83277E-01 1.00518E-28
3.87524E-01 9.34685E-29
3.91780E-01 8.69200E-29
3.96044E-01 8.08372E-29
4.00316E-01 7.51870E-29
4.04596E-01 6.99389E-29
4.08882E-01 6.50644E-29
4.13176E-01 6.05370E-29
4.17476E-01 5.63320E-29
4.21783E-01 5.24266E-29
4.26095E-01 4.87996E-29
4.30413E-01 4.54310E-29
4.34737E-01 4.23026E-29
4.39065E-01 3.93973E-29
4.43398E-01 3.66990E-29
4.47736E-01 3.41932E-29
4.52077E-01 3.18660E-29
4.56422E-01 2.97047E-29
4.60770E-01 2.76974E-29
4.65122E-01 2.58331E-29
4.69476E-01 2.41016E-29
4.73832E-01 2.24933E-29
4.78190E-01 2.09995E-29
4.82550E-01 1.96118E-29
4.86912E-01 1.83227E-29
4.91274E-01 1.71252E-29
4.95637E-01 1.60125E-29
5.00000E-01 1.49786E-29
5.04363E-01 1.40178E-29
5.08726E-01 1.31248E-29
5.13088E-01 1.22948E-29
5.17450E-01 1.15232E-29
5.21810E-01 1.08058E-29
5.26168E-01 1.01386E-29
5.30524E-01 9.51809E-30
5.34878E-01 8.94081E-30
5.39230E-01 8.40365E-30
5.43578E-01 7.90372E-30
5.47923E-01 7.43830E-30
5.52264E-01 7.00491E-30
5.56602E-01 6.60122E-30
5.60935E-01 6.22508E-30
5.65263E-01 5.87449E-30
5.69587E-01 5.54761E-30
5.73905E-01 5.24271E-30
5.78217E-01 4.95820E-30
5.82524E-01 4.69262E-30
5.86824E-01 4.44458E-30
5.91118E-01 4.21283E-30
5.95404E-01 3.99619E-30
5.99684E-01 3.79357E-30
6.03956E-01 3.60395E-30
6.08220E-01 3.42641E-30
6.12476E-01 3.26008E-30
6.16723E-01 3.10416E-30
6.20961E-01 2.95789E-30
6.25190E-01 2.82060E-30
6.29410E-01 2.69163E-30
6.33619E-01 2.57042E-30
6.37819E-01 2.45639E-30
6.42008E-01 2.34906E-30
6.46186E-01 2.24794E-30
6.50353E-01 2.15261E-30
6.54508E-01 2.06266E-30
6.58652E-01 1.97772E-30
6.62784E-01 1.89744E-30
6.66903E-01 1.82151E-30
6.71010E-01 1.74962E-30
6.75104E-01 1.68151E-30
6.79184E-01 1.61692E-30
6.83251E-01 1.55561E-30
6.87303E-01 1.49737E-30
6.91342E-01 1.44199E-30
6.95366E-01 1.38930E-30
6.99375E-01 1.33911E-30
7.03368E-01 1.29126E-30
7.07347E-01 1.24562E-30
7.11309E-01 1.20203E-30
7.15256E-01 1.16038E-30
7.19186E-01 1.12054E-30
7.23099E-01 1.08240E-30
7.26995E-01 1.04587E-30
7.30874E-01 1.01085E-30
7.34736E-01 9.77249E-31
7.38579E-01 9.44989E-31
7.42405E-01 9.13995E-31
7.46212E-01 8.84195E-31
7.50000E-01 8.55526E-31
7.53769E-01 8.27926E-31
7.57519E-01 8.01339E-31
7.61249E-01 7.75713E-31
7.64960E-01 7.51000E-31
7.68650E-01 7.27153E-31
7.72320E-01 7.04130E-31
7.75968E-01 6.81892E-31
7.79596E-01 6.60402E-31
7.83203E-01 6.39626E-31
7.86788E-01 6.19531E-31
7.90351E-01 6.00087E-31
7.93893E-01 5.81267E-31
7.97411E-01 5.63042E-31
8.00908E-01 5.45390E-31
8.04381E-01 5.28286E-31
8.07831E-01 5.11708E-31
8.11257E-01 4.95636E-31
8.14660E-01 4.80051E-31
8.18039E-01 4.64934E-31
8.21394E-01 4.50268E-31
8.24724E-01 4.36036E-31
8.28030E-01 4.22224E-31
8.31310E-01 4.08816E-31
8.34565E-01 3.95799E-31
8.37795E-01 3.83159E-31
8.40999E-01 3.70884E-31
8.44177E-01 3.58963E-31
8.47329E-01 3.47383E-31
8.50455E-01 3.36135E-31
8.53553E-01 3.25207E-31
8.56625E-01 3.14590E-31
8.59670E-01 3.04274E-31
8.62687E-01 2.94251E-31
8.65677E-01 2.84512E-31
8.68639E-01 2.75048E-31
8.71572E-01 2.65852E-31
8.74478E-01 2.56916E-31
8.77355E-01 2.48232E-31
8.80203E-01 2.39794E-31
8.83022E-01 2.31594E-31
8.85812E-01 2.23626E-31
8.88573E-01 2.15884E-31
8.91304E-01 2.08362E-31
8.94005E-01 2.01053E-31
8.96677E-01 1.93952E-31
8.99318E-01 1.87053E-31
9.01928E-01 1.80351E-31
9.04508E-01 1.73841E-31
9.07058E-01 1.67517E-31
9.09576E-01 1.61376E-31
9.12063E-01 1.55411E-31
9.14519E-01 1.49619E-31
9.16943E-01 1.43994E-31
9.19335E-01 1.38533E-31
9.21696E-01 1.33232E-31
9.24024E-01 1.28086E-31
9.26320E-01 1.23091E-31
9.28584E-01 1.18243E-31
9.30815E-01 1.13539E-31
9.33013E-01 1.08975E-31
9.35178E-01 1.04548E-31
9.37310E-01 1.00254E-31
9.39409E-01 9.60889E-32
9.41474E-01 9.20505E-32
9.43505E-01 8.81354E-32
9.45503E-01 8.43404E-32
9.47467E-01 8.06625E-32
9.49397E-01 7.70988E-32
9.51293E-01 7.36465E-32
9.53154E-01 7.03029E-32
9.54981E-01 6.70652E-32
9.56773E-01 6.39309E-32
9.58530E-01 6.08975E-32
9.60252E-01 5.79624E-32
9.61940E-01 5.51234E-32
9.63592E-01 5.23781E-32
9.65209E-01 4.97243E-32
9.66790E-01 4.71598E-32
9.68336E-01 4.46825E-32
9.69846E-01 4.22904E-32
9.71321E-01 3.99815E-32
9.72759E-01 3.77539E-32
9.74162E-01 3.56057E-32
9.75528E-01 3.35351E-32
9.76858E-01 3.15405E-32
9.78152E-01 2.96201E-32
9.79410E-01 2.77724E-32
9.80631E-01 2.59957E-32
9.81815E-01 2.42886E-32
9.82963E-01 2.26496E-32
9.84074E-01 2.10774E-32
9.85148E-01 1.95705E-32
9.86185E-01 1.81277E-32
9.87185E-01 1.67478E-32
9.88148E-01 1.54296E-32
9.89074E-01 1.41719E-32
9.89962E-01 1.29737E-32
9.90814E-01 1.18339E-32
9.91627E-01 1.07516E-32
9.92404E-01 9.72576E-33
9.93143E-01 8.75550E-33
9.93844E-01 7.84001E-33
9.94508E-01 6.97848E-33
9.95134E-01 6.17016E-33
9.95722E-01 5.41434E-33
9.96273E-01 4.71033E-33
9.96786E-01 4.05755E-33
9.97261E-01 3.45541E-33
9.97698E-01 2.90339E-33
9.98097E-01 2.40097E-33
9.98459E-01 1.94775E-33
9.98782E-01 1.54329E-33
9.99067E-01 1.18726E-33
9.99315E-01 8.79347E-34
9.99524E-01 6.19251E-34
9.99695E-01 4.06776E-34
9.99829E-01 2.41702E-34
9.99924E-01 1.23896E-34
9.99981E-01 5.32556E-35
1.00000E+00 2.97077E-35
