 #
 # Subroutine ELSEPA. Elastic scattering of electrons and positrons
 #                    by neutral atoms and positive ions
 #
 # Projectile: positron
 # Kinetic energy = 9.00000E+07 eV = 3.30744E+06 a.u.
 #
 # WARNING: High-energy factorization with free-atom DF screening.
 #          Absorption, polarization and exchange corrections are
 #          switched off.
 #          Phase shifts are calculated for the bare nucleus.
 #          Scattering amplitudes are not evaluated.
 #
 # Element: Ce,  Z =  58,  atomic weight = 1.40116E+02 g/mol
 #
 # Nuclear model: Fermi distribution
 #                Average radius = 5.55750E-13 cm
 #                Skin thickness = 5.46000E-14 cm
 #
 # Number of electrons = 58
 #
 # Total elastic cross section = 7.28288E-18 cm**2 = 2.60076E-01 a0**2
 # 1st transport cross section = 7.71962E-25 cm**2 = 2.75673E-08 a0**2
 # 2nd transport cross section = 2.29053E-24 cm**2 = 8.17962E-08 a0**2
 #
 #
 # Differential cross section:                       MU=(1-COS(THETA))/2
 #
 #  THETA        MU          DCS          DCS        Sherman      error
 #  (deg)                 (cm**2/sr)   (a0**2/sr)    function
 #----------------------------------------------------------------------
0.00000E+00 9.17707E-10
7.61557E-13 9.13389E-10
1.18994E-12 9.10978E-10
1.71346E-12 9.08046E-10
2.33225E-12 9.04601E-10
3.04617E-12 9.00652E-10
3.85530E-12 8.96211E-10
4.75964E-12 8.91289E-10
5.75917E-12 8.85900E-10
6.85391E-12 8.80058E-10
8.04379E-12 8.73779E-10
9.32893E-12 8.67079E-10
1.07092E-11 8.59975E-10
1.21847E-11 8.52486E-10
1.37554E-11 8.44629E-10
1.54213E-11 8.36426E-10
1.71823E-11 8.27895E-10
1.90386E-11 8.19054E-10
2.09900E-11 8.09928E-10
2.30367E-11 8.00534E-10
2.51785E-11 7.90893E-10
2.74156E-11 7.81030E-10
2.97478E-11 7.71061E-10
3.21752E-11 7.60904E-10
3.46979E-11 7.50532E-10
3.73157E-11 7.39963E-10
4.00286E-11 7.29213E-10
4.28368E-11 7.18299E-10
4.57402E-11 7.07491E-10
4.87388E-11 6.96669E-10
5.18325E-11 6.85732E-10
5.50215E-11 6.74695E-10
5.83057E-11 6.63573E-10
6.16850E-11 6.52380E-10
6.51595E-11 6.41399E-10
6.87293E-11 6.30534E-10
7.23943E-11 6.19637E-10
7.61544E-11 6.08719E-10
1.18991E-10 5.04766E-10
1.71347E-10 4.14803E-10
2.33223E-10 3.41419E-10
3.04617E-10 2.82905E-10
3.85531E-10 2.37002E-10
4.75965E-10 2.00903E-10
5.75917E-10 1.72142E-10
6.85389E-10 1.48945E-10
8.04380E-10 1.29895E-10
9.32891E-10 1.14019E-10
1.07092E-09 1.00585E-10
1.21847E-09 8.90992E-11
1.37554E-09 7.92063E-11
1.54213E-09 7.05912E-11
1.71823E-09 6.30804E-11
1.90386E-09 5.65095E-11
2.09900E-09 5.07182E-11
2.30367E-09 4.56281E-11
2.51785E-09 4.11403E-11
2.74156E-09 3.71669E-11
2.97478E-09 3.34941E-11
3.21752E-09 3.02705E-11
3.46978E-09 2.74874E-11
3.73156E-09 2.50730E-11
4.00286E-09 2.29687E-11
4.28368E-09 2.11267E-11
4.57402E-09 1.93595E-11
4.87388E-09 1.77439E-11
5.18326E-09 1.63202E-11
5.50215E-09 1.50610E-11
5.83057E-09 1.39432E-11
6.16850E-09 1.29477E-11
6.51596E-09 1.19991E-11
6.87293E-09 1.11178E-11
7.23942E-09 1.03287E-11
7.61544E-09 9.61990E-12
1.18991E-08 5.02333E-12
1.71347E-08 2.84170E-12
2.33223E-08 1.70740E-12
3.04617E-08 1.08693E-12
3.85531E-08 7.27458E-13
4.75965E-08 5.08166E-13
5.75917E-08 3.67670E-13
6.85389E-08 2.73427E-13
8.04380E-08 2.07618E-13
9.32891E-08 1.60529E-13
1.07092E-07 1.25958E-13
1.21847E-07 1.00104E-13
1.37554E-07 8.04570E-14
1.54213E-07 6.52968E-14
1.71823E-07 5.35067E-14
1.90386E-07 4.42455E-14
2.09900E-07 3.68902E-14
2.30367E-07 3.09998E-14
2.51785E-07 2.62373E-14
2.74156E-07 2.23534E-14
2.97478E-07 1.91569E-14
3.21752E-07 1.65224E-14
3.46978E-07 1.43309E-14
3.73156E-07 1.24873E-14
4.00286E-07 1.09390E-14
4.28368E-07 9.61799E-15
4.57402E-07 8.49458E-15
4.87388E-07 7.53092E-15
5.18325E-07 6.69971E-15
5.50215E-07 5.98280E-15
5.83057E-07 5.35638E-15
6.16850E-07 4.81187E-15
6.51596E-07 4.33414E-15
6.87293E-07 3.91436E-15
7.23942E-07 3.54485E-15
7.61543E-07 3.21689E-15
1.18991E-06 1.36193E-15
1.71347E-06 6.70069E-16
2.33223E-06 3.66401E-16
3.04617E-06 2.16749E-16
3.85531E-06 1.36259E-16
4.75964E-06 8.99009E-17
5.75916E-06 6.16903E-17
6.85388E-06 4.37302E-17
8.04378E-06 3.18572E-17
9.32888E-06 2.37543E-17
1.07092E-05 1.80713E-17
1.21846E-05 1.39904E-17
1.37553E-05 1.09987E-17
1.54212E-05 8.76535E-18
1.71822E-05 7.07085E-18
1.90385E-05 5.76444E-18
2.09899E-05 4.74970E-18
2.30365E-05 3.94814E-18
2.51783E-05 3.30799E-18
2.74153E-05 2.79186E-18
2.97475E-05 2.37223E-18
3.21749E-05 2.02848E-18
3.46974E-05 1.74485E-18
3.73152E-05 1.50922E-18
4.00281E-05 1.31215E-18
4.28362E-05 1.14624E-18
4.57395E-05 1.00572E-18
4.87380E-05 8.86027E-19
5.18317E-05 7.83559E-19
5.50205E-05 6.95438E-19
5.83045E-05 6.19338E-19
6.16838E-05 5.53362E-19
6.51582E-05 4.95948E-19
6.87277E-05 4.45801E-19
7.23925E-05 4.01839E-19
7.61524E-05 3.63261E-19
9.21439E-05 2.48125E-19
1.09658E-04 1.75163E-19
1.28695E-04 1.27149E-19
1.49255E-04 9.44969E-20
1.71338E-04 7.16821E-20
1.94942E-04 5.53485E-20
2.20070E-04 4.34101E-20
2.46720E-04 3.45213E-20
2.74892E-04 2.77932E-20
3.04586E-04 2.26260E-20
3.35803E-04 1.86043E-20
3.68542E-04 1.54369E-20
4.02802E-04 1.29150E-20
4.38585E-04 1.08871E-20
4.75889E-04 9.24160E-21
5.14715E-04 7.89509E-21
5.55063E-04 6.78484E-21
5.96931E-04 5.86275E-21
6.40321E-04 5.09190E-21
6.85233E-04 4.44347E-21
7.31665E-04 3.89488E-21
7.79618E-04 3.42824E-21
8.29092E-04 3.02932E-21
8.80086E-04 2.68665E-21
9.32601E-04 2.39101E-21
9.86636E-04 2.13484E-21
1.04219E-03 1.91201E-21
1.09927E-03 1.71744E-21
1.15786E-03 1.54695E-21
1.21797E-03 1.39705E-21
1.27961E-03 1.26481E-21
1.34276E-03 1.14783E-21
1.40743E-03 1.04402E-21
1.47362E-03 9.51656E-22
1.54133E-03 8.69254E-22
1.61056E-03 7.95551E-22
1.68131E-03 7.29473E-22
1.75357E-03 6.70093E-22
1.82735E-03 6.16612E-22
1.90265E-03 5.68344E-22
1.97947E-03 5.24691E-22
2.05780E-03 4.85133E-22
2.13765E-03 4.49220E-22
2.21902E-03 4.16556E-22
2.30190E-03 3.86796E-22
2.38630E-03 3.59635E-22
2.47222E-03 3.34807E-22
2.55965E-03 3.12075E-22
2.64859E-03 2.91232E-22
2.73905E-03 2.72092E-22
2.83103E-03 2.54489E-22
2.92452E-03 2.38280E-22
3.01952E-03 2.23334E-22
3.11604E-03 2.09535E-22
3.21407E-03 1.96780E-22
3.31362E-03 1.84975E-22
3.41468E-03 1.74038E-22
3.51725E-03 1.63892E-22
3.62133E-03 1.54470E-22
3.72692E-03 1.45711E-22
3.83403E-03 1.37561E-22
3.94265E-03 1.29968E-22
4.05278E-03 1.22889E-22
4.16442E-03 1.16282E-22
4.27757E-03 1.10110E-22
4.39223E-03 1.04339E-22
4.50840E-03 9.89385E-23
4.62608E-03 9.38801E-23
4.74527E-03 8.91385E-23
4.86597E-03 8.46900E-23
4.98817E-03 8.05134E-23
5.11188E-03 7.65890E-23
5.23711E-03 7.28987E-23
5.36383E-03 6.94261E-23
5.49207E-03 6.61560E-23
5.62181E-03 6.30744E-23
5.75306E-03 6.01686E-23
5.88581E-03 5.74266E-23
6.02007E-03 5.48375E-23
6.15583E-03 5.23912E-23
6.29310E-03 5.00785E-23
6.43187E-03 4.78907E-23
6.57214E-03 4.58198E-23
6.71392E-03 4.38585E-23
6.85720E-03 4.19998E-23
7.00198E-03 4.02375E-23
7.14827E-03 3.85656E-23
7.29605E-03 3.69787E-23
7.44534E-03 3.54716E-23
7.59612E-03 3.40396E-23
7.97965E-03 3.07598E-23
8.37255E-03 2.78611E-23
8.77480E-03 2.52918E-23
9.18641E-03 2.30082E-23
9.60736E-03 2.09732E-23
1.00376E-02 1.91552E-23
1.04773E-02 1.75272E-23
1.09262E-02 1.60659E-23
1.13844E-02 1.47515E-23
1.18520E-02 1.35666E-23
1.23288E-02 1.24963E-23
1.28150E-02 1.15277E-23
1.33104E-02 1.06495E-23
1.38150E-02 9.85173E-24
1.43290E-02 9.12588E-24
1.48521E-02 8.46435E-24
1.53845E-02 7.86045E-24
1.59262E-02 7.30832E-24
1.64770E-02 6.80278E-24
1.70371E-02 6.33921E-24
1.76063E-02 5.91355E-24
1.81848E-02 5.52218E-24
1.87724E-02 5.16185E-24
1.93692E-02 4.82970E-24
1.99751E-02 4.52315E-24
2.05901E-02 4.23989E-24
2.12143E-02 3.97785E-24
2.18476E-02 3.73518E-24
2.24900E-02 3.51020E-24
2.31415E-02 3.30140E-24
2.38021E-02 3.10743E-24
2.44717E-02 2.92706E-24
2.51504E-02 2.75917E-24
2.58382E-02 2.60275E-24
2.65349E-02 2.45690E-24
2.72407E-02 2.32077E-24
2.79555E-02 2.19361E-24
2.86793E-02 2.07473E-24
2.94120E-02 1.96350E-24
3.01537E-02 1.85935E-24
3.09043E-02 1.76176E-24
3.16639E-02 1.67023E-24
3.24324E-02 1.58434E-24
3.32098E-02 1.50368E-24
3.39961E-02 1.42787E-24
3.47912E-02 1.35658E-24
3.55952E-02 1.28950E-24
3.64081E-02 1.22633E-24
3.72297E-02 1.16681E-24
3.80602E-02 1.11069E-24
3.88995E-02 1.05776E-24
3.97476E-02 1.00779E-24
4.06044E-02 9.60600E-25
4.14700E-02 9.16005E-25
4.23443E-02 8.73842E-25
4.32273E-02 8.33955E-25
4.41190E-02 7.96203E-25
4.50194E-02 7.60453E-25
4.59284E-02 7.26582E-25
4.68461E-02 6.94475E-25
4.87074E-02 6.35137E-25
5.06030E-02 5.81673E-25
5.25328E-02 5.33414E-25
5.44967E-02 4.89780E-25
5.64946E-02 4.50264E-25
5.85262E-02 4.14419E-25
6.05914E-02 3.81857E-25
6.26901E-02 3.52233E-25
6.48222E-02 3.25245E-25
6.69873E-02 3.00625E-25
6.91854E-02 2.78135E-25
7.14163E-02 2.57567E-25
7.36799E-02 2.38732E-25
7.59760E-02 2.21465E-25
7.83043E-02 2.05618E-25
8.06647E-02 1.91057E-25
8.30571E-02 1.77665E-25
8.54812E-02 1.65336E-25
8.79369E-02 1.53972E-25
9.04240E-02 1.43490E-25
9.29422E-02 1.33812E-25
9.54915E-02 1.24868E-25
9.80716E-02 1.16595E-25
1.00682E-01 1.08937E-25
1.03323E-01 1.01843E-25
1.05995E-01 9.52644E-26
1.08696E-01 8.91606E-26
1.11427E-01 8.34929E-26
1.14188E-01 7.82263E-26
1.16978E-01 7.33290E-26
1.19797E-01 6.87720E-26
1.22645E-01 6.45290E-26
1.25522E-01 6.05758E-26
1.28428E-01 5.68903E-26
1.31361E-01 5.34524E-26
1.34323E-01 5.02435E-26
1.37313E-01 4.72467E-26
1.40330E-01 4.44464E-26
1.43375E-01 4.18284E-26
1.46447E-01 3.93794E-26
1.49545E-01 3.70876E-26
1.52671E-01 3.49416E-26
1.55823E-01 3.29312E-26
1.59001E-01 3.10471E-26
1.62205E-01 2.92804E-26
1.65435E-01 2.76231E-26
1.68690E-01 2.60678E-26
1.71970E-01 2.46076E-26
1.75276E-01 2.32361E-26
1.78606E-01 2.19474E-26
1.81961E-01 2.07360E-26
1.85340E-01 1.95969E-26
1.88743E-01 1.85253E-26
1.92169E-01 1.75169E-26
1.95619E-01 1.65677E-26
1.99092E-01 1.56738E-26
2.02589E-01 1.48317E-26
2.06107E-01 1.40382E-26
2.09649E-01 1.32903E-26
2.13212E-01 1.25851E-26
2.16797E-01 1.19199E-26
2.20404E-01 1.12923E-26
2.24032E-01 1.07001E-26
2.27680E-01 1.01410E-26
2.31350E-01 9.61304E-27
2.35040E-01 9.11439E-27
2.38751E-01 8.64328E-27
2.42481E-01 8.19807E-27
2.46231E-01 7.77724E-27
2.50000E-01 7.37935E-27
2.53788E-01 7.00306E-27
2.57595E-01 6.64711E-27
2.61421E-01 6.31033E-27
2.65264E-01 5.99161E-27
2.69126E-01 5.68992E-27
2.73005E-01 5.40429E-27
2.76901E-01 5.13380E-27
2.80814E-01 4.87760E-27
2.84744E-01 4.63488E-27
2.88691E-01 4.40490E-27
2.92653E-01 4.18693E-27
2.96632E-01 3.98032E-27
3.00625E-01 3.78444E-27
3.04634E-01 3.59868E-27
3.08658E-01 3.42251E-27
3.12697E-01 3.25539E-27
3.16749E-01 3.09684E-27
3.20816E-01 2.94638E-27
3.24896E-01 2.80359E-27
3.28990E-01 2.66804E-27
3.33097E-01 2.53936E-27
3.37216E-01 2.41717E-27
3.41348E-01 2.30113E-27
3.45492E-01 2.19092E-27
3.49647E-01 2.08622E-27
3.53814E-01 1.98674E-27
3.57992E-01 1.89222E-27
3.62181E-01 1.80239E-27
3.66381E-01 1.71701E-27
3.70590E-01 1.63584E-27
3.74810E-01 1.55867E-27
3.79039E-01 1.48530E-27
3.83277E-01 1.41552E-27
3.87524E-01 1.34915E-27
3.91780E-01 1.28602E-27
3.96044E-01 1.22596E-27
4.00316E-01 1.16882E-27
4.04596E-01 1.11445E-27
4.08882E-01 1.06270E-27
4.13176E-01 1.01345E-27
4.17476E-01 9.66566E-28
4.21783E-01 9.21936E-28
4.26095E-01 8.79443E-28
4.30413E-01 8.38981E-28
4.34737E-01 8.00450E-28
4.39065E-01 7.63753E-28
4.43398E-01 7.28800E-28
4.47736E-01 6.95503E-28
4.52077E-01 6.63782E-28
4.56422E-01 6.33559E-28
4.60770E-01 6.04761E-28
4.65122E-01 5.77317E-28
4.69476E-01 5.51161E-28
4.73832E-01 5.26231E-28
4.78190E-01 5.02467E-28
4.82550E-01 4.79813E-28
4.86912E-01 4.58214E-28
4.91274E-01 4.37620E-28
4.95637E-01 4.17982E-28
5.00000E-01 3.99254E-28
5.04363E-01 3.81393E-28
5.08726E-01 3.64356E-28
5.13088E-01 3.48105E-28
5.17450E-01 3.32603E-28
5.21810E-01 3.17812E-28
5.26168E-01 3.03700E-28
5.30524E-01 2.90234E-28
5.34878E-01 2.77384E-28
5.39230E-01 2.65120E-28
5.43578E-01 2.53415E-28
5.47923E-01 2.42242E-28
5.52264E-01 2.31577E-28
5.56602E-01 2.21396E-28
5.60935E-01 2.11675E-28
5.65263E-01 2.02394E-28
5.69587E-01 1.93532E-28
5.73905E-01 1.85070E-28
5.78217E-01 1.76988E-28
5.82524E-01 1.69269E-28
5.86824E-01 1.61896E-28
5.91118E-01 1.54853E-28
5.95404E-01 1.48126E-28
5.99684E-01 1.41699E-28
6.03956E-01 1.35558E-28
6.08220E-01 1.29691E-28
6.12476E-01 1.24085E-28
6.16723E-01 1.18727E-28
6.20961E-01 1.13607E-28
6.25190E-01 1.08714E-28
6.29410E-01 1.04037E-28
6.33619E-01 9.95661E-29
6.37819E-01 9.52924E-29
6.42008E-01 9.12068E-29
6.46186E-01 8.73008E-29
6.50353E-01 8.35661E-29
6.54508E-01 7.99952E-29
6.58652E-01 7.65805E-29
6.62784E-01 7.33150E-29
6.66903E-01 7.01920E-29
6.71010E-01 6.72051E-29
6.75104E-01 6.43482E-29
6.79184E-01 6.16155E-29
6.83251E-01 5.90014E-29
6.87303E-01 5.65005E-29
6.91342E-01 5.41079E-29
6.95366E-01 5.18187E-29
6.99375E-01 4.96284E-29
7.03368E-01 4.75324E-29
7.07347E-01 4.55267E-29
7.11309E-01 4.36072E-29
7.15256E-01 4.17702E-29
7.19186E-01 4.00119E-29
7.23099E-01 3.83289E-29
7.26995E-01 3.67178E-29
7.30874E-01 3.51756E-29
7.34736E-01 3.36992E-29
7.38579E-01 3.22856E-29
7.42405E-01 3.09322E-29
7.46212E-01 2.96363E-29
7.50000E-01 2.83954E-29
7.53769E-01 2.72071E-29
7.57519E-01 2.60690E-29
7.61249E-01 2.49791E-29
7.64960E-01 2.39352E-29
7.68650E-01 2.29353E-29
7.72320E-01 2.19775E-29
7.75968E-01 2.10599E-29
7.79596E-01 2.01810E-29
7.83203E-01 1.93389E-29
7.86788E-01 1.85320E-29
7.90351E-01 1.77590E-29
7.93893E-01 1.70182E-29
7.97411E-01 1.63084E-29
8.00908E-01 1.56282E-29
8.04381E-01 1.49762E-29
8.07831E-01 1.43514E-29
8.11257E-01 1.37526E-29
8.14660E-01 1.31786E-29
8.18039E-01 1.26284E-29
8.21394E-01 1.21010E-29
8.24724E-01 1.15953E-29
8.28030E-01 1.11106E-29
8.31310E-01 1.06458E-29
8.34565E-01 1.02002E-29
8.37795E-01 9.77297E-30
8.40999E-01 9.36327E-30
8.44177E-01 8.97039E-30
8.47329E-01 8.59362E-30
8.50455E-01 8.23229E-30
8.53553E-01 7.88574E-30
8.56625E-01 7.55336E-30
8.59670E-01 7.23456E-30
8.62687E-01 6.92876E-30
8.65677E-01 6.63542E-30
8.68639E-01 6.35402E-30
8.71572E-01 6.08407E-30
8.74478E-01 5.82508E-30
8.77355E-01 5.57661E-30
8.80203E-01 5.33822E-30
8.83022E-01 5.10948E-30
8.85812E-01 4.89000E-30
8.88573E-01 4.67940E-30
8.91304E-01 4.47732E-30
8.94005E-01 4.28339E-30
8.96677E-01 4.09729E-30
8.99318E-01 3.91869E-30
9.01928E-01 3.74728E-30
9.04508E-01 3.58278E-30
9.07058E-01 3.42490E-30
9.09576E-01 3.27337E-30
9.12063E-01 3.12794E-30
9.14519E-01 2.98834E-30
9.16943E-01 2.85436E-30
9.19335E-01 2.72575E-30
9.21696E-01 2.60231E-30
9.24024E-01 2.48382E-30
9.26320E-01 2.37009E-30
9.28584E-01 2.26093E-30
9.30815E-01 2.15614E-30
9.33013E-01 2.05557E-30
9.35178E-01 1.95903E-30
9.37310E-01 1.86637E-30
9.39409E-01 1.77744E-30
9.41474E-01 1.69209E-30
9.43505E-01 1.61018E-30
9.45503E-01 1.53156E-30
9.47467E-01 1.45612E-30
9.49397E-01 1.38373E-30
9.51293E-01 1.31427E-30
9.53154E-01 1.24763E-30
9.54981E-01 1.18369E-30
9.56773E-01 1.12236E-30
9.58530E-01 1.06354E-30
9.60252E-01 1.00712E-30
9.61940E-01 9.53020E-31
9.63592E-01 9.01152E-31
9.65209E-01 8.51431E-31
9.66790E-01 8.03778E-31
9.68336E-01 7.58115E-31
9.69846E-01 7.14370E-31
9.71321E-01 6.72473E-31
9.72759E-01 6.32357E-31
9.74162E-01 5.93957E-31
9.75528E-01 5.57213E-31
9.76858E-01 5.22067E-31
9.78152E-01 4.88463E-31
9.79410E-01 4.56347E-31
9.80631E-01 4.25669E-31
9.81815E-01 3.96381E-31
9.82963E-01 3.68436E-31
9.84074E-01 3.41791E-31
9.85148E-01 3.16403E-31
9.86185E-01 2.92234E-31
9.87185E-01 2.69244E-31
9.88148E-01 2.47399E-31
9.89074E-01 2.26663E-31
9.89962E-01 2.07006E-31
9.90814E-01 1.88395E-31
9.91627E-01 1.70803E-31
9.92404E-01 1.54202E-31
9.93143E-01 1.38566E-31
9.93844E-01 1.23871E-31
9.94508E-01 1.10094E-31
9.95134E-01 9.72140E-32
9.95722E-01 8.52110E-32
9.96273E-01 7.40666E-32
9.96786E-01 6.37635E-32
9.97261E-01 5.42859E-32
9.97698E-01 4.56190E-32
9.98097E-01 3.77498E-32
9.98459E-01 3.06658E-32
9.98782E-01 2.43566E-32
9.99067E-01 1.88122E-32
9.99315E-01 1.40240E-32
9.99524E-01 9.98490E-33
9.99695E-01 6.68846E-33
9.99829E-01 4.12991E-33
9.99924E-01 2.30515E-33
9.99981E-01 1.21140E-33
1.00000E+00 8.47085E-34
