 #
 # Subroutine ELSEPA. Elastic scattering of electrons and positrons
 #                    by neutral atoms and positive ions
 #
 # Projectile: positron
 # Kinetic energy = 7.00000E+08 eV = 2.57245E+07 a.u.
 #
 # WARNING: High-energy factorization with free-atom DF screening.
 #          Absorption, polarization and exchange corrections are
 #          switched off.
 #          Phase shifts are calculated for the bare nucleus.
 #          Scattering amplitudes are not evaluated.
 #
 # Element: Ce,  Z =  58,  atomic weight = 1.40116E+02 g/mol
 #
 # Nuclear model: Fermi distribution
 #                Average radius = 5.55750E-13 cm
 #                Skin thickness = 5.46000E-14 cm
 #
 # Number of electrons = 58
 #
 # Total elastic cross section = 7.23008E-18 cm**2 = 2.58191E-01 a0**2
 # 1st transport cross section = 1.32602E-26 cm**2 = 4.73529E-10 a0**2
 # 2nd transport cross section = 3.97724E-26 cm**2 = 1.42030E-09 a0**2
 #
 #
 # Differential cross section:                       MU=(1-COS(THETA))/2
 #
 #  THETA        MU          DCS          DCS        Sherman      error
 #  (deg)                 (cm**2/sr)   (a0**2/sr)    function
 #----------------------------------------------------------------------
0.00000E+00 5.49707E-08
7.61557E-13 4.24055E-08
1.18994E-12 3.73134E-08
1.71346E-12 3.23756E-08
2.33225E-12 2.78608E-08
3.04617E-12 2.39320E-08
3.85530E-12 2.05868E-08
4.75964E-12 1.77797E-08
5.75917E-12 1.54477E-08
6.85391E-12 1.35228E-08
8.04379E-12 1.19168E-08
9.32893E-12 1.05693E-08
1.07092E-11 9.43096E-09
1.21847E-11 8.45869E-09
1.37554E-11 7.61993E-09
1.54213E-11 6.89034E-09
1.71823E-11 6.24892E-09
1.90386E-11 5.68227E-09
2.09900E-11 5.17907E-09
2.30367E-11 4.72945E-09
2.51785E-11 4.32538E-09
2.74156E-11 3.96242E-09
2.97478E-11 3.63556E-09
3.21752E-11 3.33959E-09
3.46979E-11 3.07174E-09
3.73157E-11 2.82937E-09
4.00286E-11 2.60967E-09
4.28368E-11 2.40959E-09
4.57402E-11 2.22797E-09
4.87388E-11 2.05574E-09
5.18325E-11 1.89838E-09
5.50215E-11 1.75818E-09
5.83057E-11 1.63290E-09
6.16850E-11 1.52062E-09
6.51595E-11 1.41973E-09
6.87293E-11 1.32883E-09
7.23943E-11 1.24670E-09
7.61544E-11 1.16398E-09
1.18991E-10 6.32456E-10
1.71347E-10 3.74982E-10
2.33223E-10 2.35529E-10
3.04617E-10 1.53638E-10
3.85531E-10 1.03985E-10
4.75965E-10 7.28636E-11
5.75917E-10 5.26817E-11
6.85389E-10 3.91478E-11
8.04380E-10 2.98162E-11
9.32891E-10 2.31849E-11
1.07092E-09 1.83356E-11
1.21847E-09 1.47064E-11
1.37554E-09 1.19323E-11
1.54213E-09 9.78503E-12
1.71823E-09 8.09395E-12
1.90386E-09 6.74970E-12
2.09900E-09 5.66948E-12
2.30367E-09 4.79258E-12
2.51785E-09 4.07489E-12
2.74156E-09 3.48505E-12
2.97478E-09 2.99732E-12
3.21752E-09 2.59122E-12
3.46978E-09 2.25135E-12
3.73156E-09 1.96534E-12
4.00286E-09 1.72325E-12
4.28368E-09 1.51711E-12
4.57402E-09 1.34096E-12
4.87388E-09 1.18934E-12
5.18326E-09 1.05883E-12
5.50215E-09 9.46276E-13
5.83057E-09 8.48159E-13
6.16850E-09 7.62345E-13
6.51596E-09 6.87426E-13
6.87293E-09 6.21491E-13
7.23942E-09 5.63129E-13
7.61544E-09 5.11650E-13
1.18991E-08 2.18878E-13
1.71347E-08 1.08651E-13
2.33223E-08 5.97977E-14
3.04617E-08 3.55282E-14
3.85531E-08 2.23986E-14
4.75965E-08 1.48065E-14
5.75917E-08 1.01741E-14
6.85389E-08 7.21968E-15
8.04380E-08 5.26426E-15
9.32891E-08 3.92853E-15
1.07092E-07 2.99102E-15
1.21847E-07 2.31732E-15
1.37554E-07 1.82312E-15
1.54213E-07 1.45395E-15
1.71823E-07 1.17369E-15
1.90386E-07 9.57814E-16
2.09900E-07 7.89363E-16
2.30367E-07 6.56361E-16
2.51785E-07 5.50222E-16
2.74156E-07 4.64688E-16
2.97478E-07 3.95141E-16
3.21752E-07 3.38126E-16
3.46978E-07 2.91028E-16
3.73156E-07 2.51848E-16
4.00286E-07 2.19041E-16
4.28368E-07 1.91404E-16
4.57402E-07 1.67988E-16
4.87388E-07 1.48044E-16
5.18325E-07 1.30972E-16
5.50215E-07 1.16290E-16
5.83057E-07 1.03608E-16
6.16850E-07 9.26076E-17
6.51596E-07 8.30279E-17
6.87293E-07 7.46549E-17
7.23942E-07 6.73108E-17
7.61543E-07 6.08474E-17
1.18991E-06 2.49775E-17
1.71347E-06 1.20588E-17
2.33223E-06 6.51283E-18
3.04617E-06 3.81889E-18
3.85531E-06 2.38448E-18
4.75964E-06 1.56454E-18
5.75916E-06 1.06859E-18
6.85388E-06 7.54461E-19
8.04378E-06 5.47715E-19
9.32888E-06 4.07167E-19
1.07092E-05 3.08937E-19
1.21846E-05 2.38616E-19
1.37553E-05 1.87208E-19
1.54212E-05 1.48926E-19
1.71822E-05 1.19945E-19
1.90385E-05 9.76464E-20
2.09899E-05 8.03567E-20
2.30365E-05 6.67217E-20
2.51783E-05 5.58483E-20
2.74153E-05 4.70929E-20
2.97475E-05 3.99831E-20
3.21749E-05 3.41649E-20
3.46974E-05 2.93692E-20
3.73152E-05 2.53885E-20
4.00281E-05 2.20618E-20
4.28362E-05 1.92633E-20
4.57395E-05 1.68946E-20
4.87380E-05 1.48780E-20
5.18317E-05 1.31526E-20
5.50205E-05 1.16695E-20
5.83045E-05 1.03894E-20
6.16838E-05 9.28003E-21
6.51582E-05 8.31504E-21
6.87277E-05 7.47248E-21
7.23925E-05 6.73412E-21
7.61524E-05 6.10707E-21
9.21439E-05 4.16200E-21
1.09658E-04 2.93034E-21
1.28695E-04 2.12045E-21
1.49255E-04 1.57018E-21
1.71338E-04 1.18610E-21
1.94942E-04 9.11474E-22
2.20070E-04 7.11049E-22
2.46720E-04 5.62090E-22
2.74892E-04 4.49570E-22
3.04586E-04 3.63363E-22
3.35803E-04 2.96446E-22
3.68542E-04 2.43905E-22
4.02802E-04 2.02213E-22
4.38585E-04 1.68812E-22
4.75889E-04 1.41822E-22
5.14715E-04 1.19834E-22
5.55063E-04 1.01792E-22
5.96931E-04 8.68870E-23
6.40321E-04 7.44963E-23
6.85233E-04 6.41365E-23
7.31665E-04 5.54280E-23
7.79618E-04 4.80714E-23
8.29092E-04 4.18278E-23
8.80086E-04 3.65060E-23
9.32601E-04 3.19515E-23
9.86636E-04 2.80390E-23
1.04219E-03 2.46660E-23
1.09927E-03 2.17485E-23
1.15786E-03 1.92172E-23
1.21797E-03 1.70144E-23
1.27961E-03 1.50923E-23
1.34276E-03 1.34108E-23
1.40743E-03 1.19361E-23
1.47362E-03 1.06398E-23
1.54133E-03 9.49787E-24
1.61056E-03 8.48988E-24
1.68131E-03 7.59838E-24
1.75357E-03 6.80848E-24
1.82735E-03 6.10738E-24
1.90265E-03 5.48410E-24
1.97947E-03 4.92914E-24
2.05780E-03 4.43430E-24
2.13765E-03 3.99246E-24
2.21902E-03 3.59743E-24
2.30190E-03 3.24382E-24
2.38630E-03 2.92693E-24
2.47222E-03 2.64263E-24
2.55965E-03 2.38731E-24
2.64859E-03 2.15780E-24
2.73905E-03 1.95129E-24
2.83103E-03 1.76533E-24
2.92452E-03 1.59774E-24
3.01952E-03 1.44659E-24
3.11604E-03 1.31017E-24
3.21407E-03 1.18697E-24
3.31362E-03 1.07563E-24
3.41468E-03 9.74960E-25
3.51725E-03 8.83889E-25
3.62133E-03 8.01460E-25
3.72692E-03 7.26821E-25
3.83403E-03 6.59207E-25
3.94265E-03 5.97936E-25
4.05278E-03 5.42392E-25
4.16442E-03 4.92026E-25
4.27757E-03 4.46343E-25
4.39223E-03 4.04897E-25
4.50840E-03 3.67288E-25
4.62608E-03 3.33154E-25
4.74527E-03 3.02171E-25
4.86597E-03 2.74044E-25
4.98817E-03 2.48507E-25
5.11188E-03 2.25322E-25
5.23711E-03 2.04270E-25
5.36383E-03 1.85155E-25
5.49207E-03 1.67800E-25
5.62181E-03 1.52043E-25
5.75306E-03 1.37739E-25
5.88581E-03 1.24754E-25
6.02007E-03 1.12969E-25
6.15583E-03 1.02273E-25
6.29310E-03 9.25693E-26
6.43187E-03 8.37662E-26
6.57214E-03 7.57820E-26
6.71392E-03 6.85426E-26
6.85720E-03 6.19800E-26
7.00198E-03 5.60327E-26
7.14827E-03 5.06447E-26
7.29605E-03 4.57649E-26
7.44534E-03 4.13471E-26
7.59612E-03 3.73488E-26
7.97965E-03 2.89449E-26
8.37255E-03 2.24195E-26
8.77480E-03 1.73671E-26
9.18641E-03 1.34667E-26
9.60736E-03 1.04649E-26
1.00376E-02 8.16185E-27
1.04773E-02 6.39995E-27
1.09262E-02 5.05547E-27
1.13844E-02 4.03145E-27
1.18520E-02 3.25218E-27
1.23288E-02 2.65877E-27
1.28150E-02 2.20568E-27
1.33104E-02 1.85783E-27
1.38150E-02 1.58840E-27
1.43290E-02 1.37704E-27
1.48521E-02 1.20843E-27
1.53845E-02 1.07115E-27
1.59262E-02 9.56787E-28
1.64770E-02 8.59218E-28
1.70371E-02 7.74061E-28
1.76063E-02 6.98230E-28
1.81848E-02 6.29601E-28
1.87724E-02 5.66745E-28
1.93692E-02 5.08727E-28
1.99751E-02 4.54956E-28
2.05901E-02 4.05071E-28
2.12143E-02 3.58852E-28
2.18476E-02 3.16168E-28
2.24900E-02 2.76927E-28
2.31415E-02 2.41050E-28
2.38021E-02 2.08456E-28
2.44717E-02 1.79046E-28
2.51504E-02 1.52703E-28
2.58382E-02 1.29285E-28
2.65349E-02 1.08635E-28
2.72407E-02 9.05755E-29
2.79555E-02 7.49169E-29
2.86793E-02 6.14619E-29
2.94120E-02 5.00089E-29
3.01537E-02 4.03565E-29
3.09043E-02 3.23069E-29
3.16639E-02 2.56694E-29
3.24324E-02 2.02626E-29
3.32098E-02 1.59166E-29
3.39961E-02 1.24743E-29
3.47912E-02 9.79231E-30
3.55952E-02 7.74138E-30
3.64081E-02 6.20656E-30
3.72297E-02 5.08678E-30
3.80602E-02 4.29441E-30
3.88995E-02 3.75442E-30
3.97476E-02 3.40359E-30
4.06044E-02 3.18939E-30
4.14700E-02 3.06903E-30
4.23443E-02 3.00833E-30
4.32273E-02 2.98063E-30
4.41190E-02 2.96580E-30
4.50194E-02 2.94925E-30
4.59284E-02 2.92099E-30
4.68461E-02 2.87480E-30
4.87074E-02 2.71822E-30
5.06030E-02 2.47874E-30
5.25328E-02 2.17638E-30
5.44967E-02 1.83948E-30
5.64946E-02 1.49654E-30
5.85262E-02 1.17143E-30
6.05914E-02 8.81281E-31
6.26901E-02 6.36121E-31
6.48222E-02 4.39601E-31
6.69873E-02 2.90358E-31
6.91854E-02 1.83542E-31
7.14163E-02 1.12279E-31
7.36799E-02 6.89143E-32
7.59760E-02 4.59560E-32
7.83043E-02 3.67140E-32
8.06647E-02 3.56607E-32
8.30571E-02 3.85644E-32
8.54812E-02 4.24530E-32
8.79369E-02 4.54664E-32
9.04240E-02 4.66480E-32
9.29422E-02 4.57162E-32
9.54915E-02 4.28448E-32
9.80716E-02 3.84725E-32
1.00682E-01 3.31497E-32
1.03323E-01 2.74274E-32
1.05995E-01 2.17843E-32
1.08696E-01 1.65881E-32
1.11427E-01 1.20820E-32
1.14188E-01 8.39123E-33
1.16978E-01 5.54061E-33
1.19797E-01 3.47873E-33
1.22645E-01 2.10313E-33
1.25522E-01 1.28380E-33
1.28428E-01 8.82906E-34
1.31361E-01 7.69550E-34
1.34323E-01 8.29767E-34
1.37313E-01 9.71945E-34
1.40330E-01 1.12853E-33
1.43375E-01 1.25492E-33
1.46447E-01 1.32652E-33
1.49545E-01 1.33471E-33
1.52671E-01 1.28254E-33
1.55823E-01 1.18055E-33
1.59001E-01 1.04316E-33
1.62205E-01 8.85828E-34
1.65435E-01 7.22903E-34
1.68690E-01 5.66326E-34
1.71970E-01 4.24943E-34
1.75276E-01 3.04371E-34
1.78606E-01 2.07234E-34
1.81961E-01 1.33654E-34
1.85340E-01 8.18569E-35
1.88743E-01 4.88102E-35
1.92169E-01 3.08112E-35
1.95619E-01 2.39839E-35
1.99092E-01 2.46605E-35
2.02589E-01 2.96426E-35
2.06107E-01 3.63488E-35
2.09649E-01 4.28683E-35
2.13212E-01 4.79383E-35
2.16797E-01 5.08697E-35
2.20404E-01 5.14422E-35
2.24032E-01 4.97859E-35
2.27680E-01 4.62646E-35
2.31350E-01 4.13707E-35
2.35040E-01 3.56380E-35
2.38751E-01 2.95746E-35
2.42481E-01 2.36195E-35
2.46231E-01 1.81143E-35
2.50000E-01 1.32954E-35
2.53788E-01 9.29646E-36
2.57595E-01 6.16029E-36
2.61421E-01 3.85654E-36
2.65264E-01 2.30130E-36
2.69126E-01 1.37661E-36
2.73005E-01 9.48231E-37
2.76901E-01 8.80271E-37
2.80814E-01 1.04642E-36
2.84744E-01 1.33761E-36
2.88691E-01 1.66606E-36
2.92653E-01 1.96695E-36
2.96632E-01 2.19747E-36
3.00625E-01 2.33437E-36
3.04634E-01 2.37073E-36
3.08658E-01 2.31202E-36
3.12697E-01 2.17222E-36
3.16749E-01 1.97038E-36
3.20816E-01 1.72752E-36
3.24896E-01 1.46419E-36
3.28990E-01 1.19881E-36
3.33097E-01 9.46508E-37
3.37216E-01 7.18528E-37
3.41348E-01 5.22288E-37
3.45492E-01 3.61478E-37
3.49647E-01 2.36698E-37
3.53814E-01 1.46027E-37
3.57992E-01 8.57563E-38
3.62181E-01 5.10441E-38
3.66381E-01 3.65241E-38
3.70590E-01 3.68030E-38
3.74810E-01 4.68488E-38
3.79039E-01 6.22527E-38
3.83277E-01 7.93872E-38
3.87524E-01 9.54976E-38
3.91780E-01 1.08649E-37
3.96044E-01 1.17687E-37
4.00316E-01 1.22114E-37
4.04596E-01 1.21968E-37
4.08882E-01 1.17692E-37
4.13176E-01 1.09999E-37
4.17476E-01 9.97290E-38
4.21783E-01 8.77883E-38
4.26095E-01 7.50063E-38
4.30413E-01 6.21825E-38
4.34737E-01 4.99225E-38
4.39065E-01 3.87190E-38
4.43398E-01 2.88978E-38
4.47736E-01 2.06445E-38
4.52077E-01 1.40146E-38
4.56422E-01 1.00000E-45
4.60770E-01 1.00000E-45
4.65122E-01 1.00000E-45
4.69476E-01 1.00000E-45
4.73832E-01 1.00000E-45
4.78190E-01 1.00000E-45
4.82550E-01 1.00000E-45
4.86912E-01 1.00000E-45
4.91274E-01 1.00000E-45
4.95637E-01 1.00000E-45
5.00000E-01 1.00000E-45
5.04363E-01 1.00000E-45
5.08726E-01 1.00000E-45
5.13088E-01 1.00000E-45
5.17450E-01 1.00000E-45
5.21810E-01 1.00000E-45
5.26168E-01 1.00000E-45
5.30524E-01 1.00000E-45
5.34878E-01 1.00000E-45
5.39230E-01 1.00000E-45
5.43578E-01 1.00000E-45
5.47923E-01 1.00000E-45
5.52264E-01 1.00000E-45
5.56602E-01 1.00000E-45
5.60935E-01 1.00000E-45
5.65263E-01 1.00000E-45
5.69587E-01 1.00000E-45
5.73905E-01 1.00000E-45
5.78217E-01 1.00000E-45
5.82524E-01 1.00000E-45
5.86824E-01 1.00000E-45
5.91118E-01 1.00000E-45
5.95404E-01 1.00000E-45
5.99684E-01 1.00000E-45
6.03956E-01 1.00000E-45
6.08220E-01 1.00000E-45
6.12476E-01 1.00000E-45
6.16723E-01 1.00000E-45
6.20961E-01 1.00000E-45
6.25190E-01 1.00000E-45
6.29410E-01 1.00000E-45
6.33619E-01 1.00000E-45
6.37819E-01 1.00000E-45
6.42008E-01 1.00000E-45
6.46186E-01 1.00000E-45
6.50353E-01 1.00000E-45
6.54508E-01 1.00000E-45
6.58652E-01 1.00000E-45
6.62784E-01 1.00000E-45
6.66903E-01 1.00000E-45
6.71010E-01 1.00000E-45
6.75104E-01 1.00000E-45
6.79184E-01 1.00000E-45
6.83251E-01 1.00000E-45
6.87303E-01 1.00000E-45
6.91342E-01 1.00000E-45
6.95366E-01 1.00000E-45
6.99375E-01 1.00000E-45
7.03368E-01 1.00000E-45
7.07347E-01 1.00000E-45
7.11309E-01 1.00000E-45
7.15256E-01 1.00000E-45
7.19186E-01 1.00000E-45
7.23099E-01 1.00000E-45
7.26995E-01 1.00000E-45
7.30874E-01 1.00000E-45
7.34736E-01 1.00000E-45
7.38579E-01 1.00000E-45
7.42405E-01 1.00000E-45
7.46212E-01 1.00000E-45
7.50000E-01 1.00000E-45
7.53769E-01 1.00000E-45
7.57519E-01 1.00000E-45
7.61249E-01 1.00000E-45
7.64960E-01 1.00000E-45
7.68650E-01 1.00000E-45
7.72320E-01 1.00000E-45
7.75968E-01 1.00000E-45
7.79596E-01 1.00000E-45
7.83203E-01 1.00000E-45
7.86788E-01 1.00000E-45
7.90351E-01 1.00000E-45
7.93893E-01 1.00000E-45
7.97411E-01 1.00000E-45
8.00908E-01 1.00000E-45
8.04381E-01 1.00000E-45
8.07831E-01 1.00000E-45
8.11257E-01 1.00000E-45
8.14660E-01 1.00000E-45
8.18039E-01 1.00000E-45
8.21394E-01 1.00000E-45
8.24724E-01 1.00000E-45
8.28030E-01 1.00000E-45
8.31310E-01 1.00000E-45
8.34565E-01 1.00000E-45
8.37795E-01 1.00000E-45
8.40999E-01 1.00000E-45
8.44177E-01 1.00000E-45
8.47329E-01 1.00000E-45
8.50455E-01 1.00000E-45
8.53553E-01 1.00000E-45
8.56625E-01 1.00000E-45
8.59670E-01 1.00000E-45
8.62687E-01 1.00000E-45
8.65677E-01 1.00000E-45
8.68639E-01 1.00000E-45
8.71572E-01 1.00000E-45
8.74478E-01 1.00000E-45
8.77355E-01 1.00000E-45
8.80203E-01 1.00000E-45
8.83022E-01 1.00000E-45
8.85812E-01 1.00000E-45
8.88573E-01 1.00000E-45
8.91304E-01 1.00000E-45
8.94005E-01 1.00000E-45
8.96677E-01 1.00000E-45
8.99318E-01 1.00000E-45
9.01928E-01 1.00000E-45
9.04508E-01 1.00000E-45
9.07058E-01 1.00000E-45
9.09576E-01 1.00000E-45
9.12063E-01 1.00000E-45
9.14519E-01 1.00000E-45
9.16943E-01 1.00000E-45
9.19335E-01 1.00000E-45
9.21696E-01 1.00000E-45
9.24024E-01 1.00000E-45
9.26320E-01 1.00000E-45
9.28584E-01 1.00000E-45
9.30815E-01 1.00000E-45
9.33013E-01 1.00000E-45
9.35178E-01 1.00000E-45
9.37310E-01 1.00000E-45
9.39409E-01 1.00000E-45
9.41474E-01 1.00000E-45
9.43505E-01 1.00000E-45
9.45503E-01 1.00000E-45
9.47467E-01 1.00000E-45
9.49397E-01 1.00000E-45
9.51293E-01 1.00000E-45
9.53154E-01 1.00000E-45
9.54981E-01 1.00000E-45
9.56773E-01 1.00000E-45
9.58530E-01 1.00000E-45
9.60252E-01 1.00000E-45
9.61940E-01 1.00000E-45
9.63592E-01 1.00000E-45
9.65209E-01 1.00000E-45
9.66790E-01 1.00000E-45
9.68336E-01 1.00000E-45
9.69846E-01 1.00000E-45
9.71321E-01 1.00000E-45
9.72759E-01 1.00000E-45
9.74162E-01 1.00000E-45
9.75528E-01 1.00000E-45
9.76858E-01 1.00000E-45
9.78152E-01 1.00000E-45
9.79410E-01 1.00000E-45
9.80631E-01 1.00000E-45
9.81815E-01 1.00000E-45
9.82963E-01 1.00000E-45
9.84074E-01 1.00000E-45
9.85148E-01 1.00000E-45
9.86185E-01 1.00000E-45
9.87185E-01 1.00000E-45
9.88148E-01 1.00000E-45
9.89074E-01 1.00000E-45
9.89962E-01 1.00000E-45
9.90814E-01 1.00000E-45
9.91627E-01 1.00000E-45
9.92404E-01 1.00000E-45
9.93143E-01 1.00000E-45
9.93844E-01 1.00000E-45
9.94508E-01 1.00000E-45
9.95134E-01 1.00000E-45
9.95722E-01 1.00000E-45
9.96273E-01 1.00000E-45
9.96786E-01 1.00000E-45
9.97261E-01 1.00000E-45
9.97698E-01 1.00000E-45
9.98097E-01 1.00000E-45
9.98459E-01 1.00000E-45
9.98782E-01 1.00000E-45
9.99067E-01 1.00000E-45
9.99315E-01 1.00000E-45
9.99524E-01 1.00000E-45
9.99695E-01 1.00000E-45
9.99829E-01 1.00000E-45
9.99924E-01 1.00000E-45
9.99981E-01 1.00000E-45
1.00000E+00 1.00000E-45
