 #
 # Subroutine ELSEPA. Elastic scattering of electrons and positrons
 #                    by neutral atoms and positive ions
 #
 # Projectile: positron
 # Kinetic energy = 6.00000E+06 eV = 2.20496E+05 a.u.
 #
 # WARNING: High-energy factorization with free-atom DF screening.
 #          Absorption, polarization and exchange corrections are
 #          switched off.
 #          Phase shifts are calculated for the bare nucleus.
 #          Scattering amplitudes are not evaluated.
 #
 # Element: Ce,  Z =  58,  atomic weight = 1.40116E+02 g/mol
 #
 # Nuclear model: Fermi distribution
 #                Average radius = 5.55750E-13 cm
 #                Skin thickness = 5.46000E-14 cm
 #
 # Number of electrons = 58
 #
 # Total elastic cross section = 7.32367E-18 cm**2 = 2.61533E-01 a0**2
 # 1st transport cross section = 1.04952E-22 cm**2 = 3.74790E-06 a0**2
 # 2nd transport cross section = 3.02648E-22 cm**2 = 1.08078E-05 a0**2
 #
 #
 # Differential cross section:                       MU=(1-COS(THETA))/2
 #
 #  THETA        MU          DCS          DCS        Sherman      error
 #  (deg)                 (cm**2/sr)   (a0**2/sr)    function
 #----------------------------------------------------------------------
0.00000E+00 4.74894E-12
7.61557E-13 4.74882E-12
1.18994E-12 4.74875E-12
1.71346E-12 4.74867E-12
2.33225E-12 4.74857E-12
3.04617E-12 4.74846E-12
3.85530E-12 4.74834E-12
4.75964E-12 4.74820E-12
5.75917E-12 4.74805E-12
6.85391E-12 4.74788E-12
8.04379E-12 4.74770E-12
9.32893E-12 4.74750E-12
1.07092E-11 4.74729E-12
1.21847E-11 4.74707E-12
1.37554E-11 4.74683E-12
1.54213E-11 4.74658E-12
1.71823E-11 4.74631E-12
1.90386E-11 4.74603E-12
2.09900E-11 4.74573E-12
2.30367E-11 4.74542E-12
2.51785E-11 4.74510E-12
2.74156E-11 4.74476E-12
2.97478E-11 4.74440E-12
3.21752E-11 4.74404E-12
3.46979E-11 4.74365E-12
3.73157E-11 4.74326E-12
4.00286E-11 4.74285E-12
4.28368E-11 4.74242E-12
4.57402E-11 4.74198E-12
4.87388E-11 4.74153E-12
5.18325E-11 4.74106E-12
5.50215E-11 4.74058E-12
5.83057E-11 4.74008E-12
6.16850E-11 4.73957E-12
6.51595E-11 4.73905E-12
6.87293E-11 4.73851E-12
7.23943E-11 4.73795E-12
7.61544E-11 4.73738E-12
1.18991E-10 4.73093E-12
1.71347E-10 4.72306E-12
2.33223E-10 4.71379E-12
3.04617E-10 4.70313E-12
3.85531E-10 4.69110E-12
4.75965E-10 4.67772E-12
5.75917E-10 4.66300E-12
6.85389E-10 4.64697E-12
8.04380E-10 4.62965E-12
9.32891E-10 4.61105E-12
1.07092E-09 4.59122E-12
1.21847E-09 4.57017E-12
1.37554E-09 4.54794E-12
1.54213E-09 4.52455E-12
1.71823E-09 4.50003E-12
1.90386E-09 4.47443E-12
2.09900E-09 4.44776E-12
2.30367E-09 4.42007E-12
2.51785E-09 4.39140E-12
2.74156E-09 4.36177E-12
2.97478E-09 4.33123E-12
3.21752E-09 4.29981E-12
3.46978E-09 4.26756E-12
3.73156E-09 4.23450E-12
4.00286E-09 4.20069E-12
4.28368E-09 4.16616E-12
4.57402E-09 4.13094E-12
4.87388E-09 4.09507E-12
5.18326E-09 4.05861E-12
5.50215E-09 4.02169E-12
5.83057E-09 3.98463E-12
6.16850E-09 3.94696E-12
6.51596E-09 3.90872E-12
6.87293E-09 3.86993E-12
7.23942E-09 3.83062E-12
7.61544E-09 3.79083E-12
1.18991E-08 3.38392E-12
1.71347E-08 2.97993E-12
2.33223E-08 2.60175E-12
3.04617E-08 2.26127E-12
3.85531E-08 1.96374E-12
4.75965E-08 1.70891E-12
5.75917E-08 1.49340E-12
6.85389E-08 1.31302E-12
8.04380E-08 1.16110E-12
9.32891E-08 1.03276E-12
1.07092E-07 9.23768E-13
1.21847E-07 8.30541E-13
1.37554E-07 7.50174E-13
1.54213E-07 6.80234E-13
1.71823E-07 6.18880E-13
1.90386E-07 5.64684E-13
2.09900E-07 5.16511E-13
2.30367E-07 4.73443E-13
2.51785E-07 4.34663E-13
2.74156E-07 3.99708E-13
2.97478E-07 3.68107E-13
3.21752E-07 3.39465E-13
3.46978E-07 3.13450E-13
3.73156E-07 2.89725E-13
4.00286E-07 2.68090E-13
4.28368E-07 2.48361E-13
4.57402E-07 2.30350E-13
4.87388E-07 2.13892E-13
5.18325E-07 1.98829E-13
5.50215E-07 1.84844E-13
5.83057E-07 1.71439E-13
6.16850E-07 1.59413E-13
6.51596E-07 1.48596E-13
6.87293E-07 1.38843E-13
7.23942E-07 1.30027E-13
7.61543E-07 1.22040E-13
1.18991E-06 6.76451E-14
1.71347E-06 4.05237E-14
2.33223E-06 2.56455E-14
3.04617E-06 1.69262E-14
3.85531E-06 1.15574E-14
4.75964E-06 8.13554E-15
5.75916E-06 5.89136E-15
6.85388E-06 4.37686E-15
8.04378E-06 3.33085E-15
9.32888E-06 2.58824E-15
1.07092E-05 2.04729E-15
1.21846E-05 1.64391E-15
1.37553E-05 1.33683E-15
1.54212E-05 1.09771E-15
1.71822E-05 9.09945E-16
1.90385E-05 7.60354E-16
2.09899E-05 6.40557E-16
2.30365E-05 5.43051E-16
2.51783E-05 4.62842E-16
2.74153E-05 3.96562E-16
2.97475E-05 3.41494E-16
3.21749E-05 2.95529E-16
3.46974E-05 2.56989E-16
3.73152E-05 2.24497E-16
4.00281E-05 1.96974E-16
4.28362E-05 1.73539E-16
4.57395E-05 1.53478E-16
4.87380E-05 1.36223E-16
5.18317E-05 1.21315E-16
5.50205E-05 1.08375E-16
5.83045E-05 9.70933E-17
6.16838E-05 8.72840E-17
6.51582E-05 7.87223E-17
6.87277E-05 7.11511E-17
7.23925E-05 6.44806E-17
7.61524E-05 5.85968E-17
9.21439E-05 4.08172E-17
1.09658E-04 2.93024E-17
1.28695E-04 2.15832E-17
1.49255E-04 1.62457E-17
1.71338E-04 1.24596E-17
1.94942E-04 9.71253E-18
2.20070E-04 7.67944E-18
2.46720E-04 6.14968E-18
2.74892E-04 4.98127E-18
3.04586E-04 4.07683E-18
3.35803E-04 3.36794E-18
3.68542E-04 2.80617E-18
4.02802E-04 2.35630E-18
4.38585E-04 1.99284E-18
4.75889E-04 1.69668E-18
5.14715E-04 1.45343E-18
5.55063E-04 1.25216E-18
5.96931E-04 1.08447E-18
6.40321E-04 9.43875E-19
6.85233E-04 8.25313E-19
7.31665E-04 7.24768E-19
7.79618E-04 6.39059E-19
8.29092E-04 5.65633E-19
8.80086E-04 5.02437E-19
9.32601E-04 4.47814E-19
9.86636E-04 4.00406E-19
1.04219E-03 3.59101E-19
1.09927E-03 3.22980E-19
1.15786E-03 2.91279E-19
1.21797E-03 2.63367E-19
1.27961E-03 2.38715E-19
1.34276E-03 2.16876E-19
1.40743E-03 1.97474E-19
1.47362E-03 1.80189E-19
1.54133E-03 1.64750E-19
1.61056E-03 1.50926E-19
1.68131E-03 1.38519E-19
1.75357E-03 1.27358E-19
1.82735E-03 1.17296E-19
1.90265E-03 1.08206E-19
1.97947E-03 9.99767E-20
2.05780E-03 9.25131E-20
2.13765E-03 8.57311E-20
2.21902E-03 7.95575E-20
2.30190E-03 7.39280E-20
2.38630E-03 6.87859E-20
2.47222E-03 6.40817E-20
2.55965E-03 5.97716E-20
2.64859E-03 5.58165E-20
2.73905E-03 5.21823E-20
2.83103E-03 4.88375E-20
2.92452E-03 4.57557E-20
3.01952E-03 4.29122E-20
3.11604E-03 4.02854E-20
3.21407E-03 3.78557E-20
3.31362E-03 3.56056E-20
3.41468E-03 3.35196E-20
3.51725E-03 3.15834E-20
3.62133E-03 2.97845E-20
3.72692E-03 2.81112E-20
3.83403E-03 2.65533E-20
3.94265E-03 2.51014E-20
4.05278E-03 2.37468E-20
4.16442E-03 2.24820E-20
4.27757E-03 2.12999E-20
4.39223E-03 2.01941E-20
4.50840E-03 1.91588E-20
4.62608E-03 1.81886E-20
4.74527E-03 1.72788E-20
4.86597E-03 1.64249E-20
4.98817E-03 1.56228E-20
5.11188E-03 1.48689E-20
5.23711E-03 1.41596E-20
5.36383E-03 1.34919E-20
5.49207E-03 1.28628E-20
5.62181E-03 1.22698E-20
5.75306E-03 1.17105E-20
5.88581E-03 1.11824E-20
6.02007E-03 1.06836E-20
6.15583E-03 1.02122E-20
6.29310E-03 9.76634E-21
6.43187E-03 9.34437E-21
6.57214E-03 8.94488E-21
6.71392E-03 8.56633E-21
6.85720E-03 8.20753E-21
7.00198E-03 7.86715E-21
7.14827E-03 7.54418E-21
7.29605E-03 7.23748E-21
7.44534E-03 6.94613E-21
7.59612E-03 6.66920E-21
7.97965E-03 6.03457E-21
8.37255E-03 5.47324E-21
8.77480E-03 4.97530E-21
9.18641E-03 4.53238E-21
9.60736E-03 4.13736E-21
1.00376E-02 3.78419E-21
1.04773E-02 3.46767E-21
1.09262E-02 3.18335E-21
1.13844E-02 2.92739E-21
1.18520E-02 2.69647E-21
1.23288E-02 2.48772E-21
1.28150E-02 2.29865E-21
1.33104E-02 2.12708E-21
1.38150E-02 1.97111E-21
1.43290E-02 1.82907E-21
1.48521E-02 1.69950E-21
1.53845E-02 1.58112E-21
1.59262E-02 1.47279E-21
1.64770E-02 1.37351E-21
1.70371E-02 1.28239E-21
1.76063E-02 1.19865E-21
1.81848E-02 1.12157E-21
1.87724E-02 1.05054E-21
1.93692E-02 9.84997E-22
1.99751E-02 9.24445E-22
2.05901E-02 8.68435E-22
2.12143E-02 8.16567E-22
2.18476E-02 7.68481E-22
2.24900E-02 7.23851E-22
2.31415E-02 6.82386E-22
2.38021E-02 6.43821E-22
2.44717E-02 6.07916E-22
2.51504E-02 5.74457E-22
2.58382E-02 5.43247E-22
2.65349E-02 5.14107E-22
2.72407E-02 4.86876E-22
2.79555E-02 4.61407E-22
2.86793E-02 4.37565E-22
2.94120E-02 4.15229E-22
3.01537E-02 3.94285E-22
3.09043E-02 3.74631E-22
3.16639E-02 3.56175E-22
3.24324E-02 3.38829E-22
3.32098E-02 3.22515E-22
3.39961E-02 3.07161E-22
3.47912E-02 2.92699E-22
3.55952E-02 2.79070E-22
3.64081E-02 2.66216E-22
3.72297E-02 2.54085E-22
3.80602E-02 2.42630E-22
3.88995E-02 2.31805E-22
3.97476E-02 2.21571E-22
4.06044E-02 2.11889E-22
4.14700E-02 2.02723E-22
4.23443E-02 1.94042E-22
4.32273E-02 1.85815E-22
4.41190E-02 1.78015E-22
4.50194E-02 1.70614E-22
4.59284E-02 1.63589E-22
4.68461E-02 1.56917E-22
4.87074E-02 1.44552E-22
5.06030E-02 1.33366E-22
5.25328E-02 1.23228E-22
5.44967E-02 1.14024E-22
5.64946E-02 1.05651E-22
5.85262E-02 9.80235E-23
6.05914E-02 9.10626E-23
6.26901E-02 8.47005E-23
6.48222E-02 7.88767E-23
6.69873E-02 7.35378E-23
6.91854E-02 6.86365E-23
7.14163E-02 6.41308E-23
7.36799E-02 5.99833E-23
7.59760E-02 5.61608E-23
7.83043E-02 5.26332E-23
8.06647E-02 4.93739E-23
8.30571E-02 4.63589E-23
8.54812E-02 4.35668E-23
8.79369E-02 4.09784E-23
9.04240E-02 3.85761E-23
9.29422E-02 3.63443E-23
9.54915E-02 3.42687E-23
9.80716E-02 3.23365E-23
1.00682E-01 3.05362E-23
1.03323E-01 2.88571E-23
1.05995E-01 2.72898E-23
1.08696E-01 2.58254E-23
1.11427E-01 2.44559E-23
1.14188E-01 2.31743E-23
1.16978E-01 2.19738E-23
1.19797E-01 2.08486E-23
1.22645E-01 1.97929E-23
1.25522E-01 1.88019E-23
1.28428E-01 1.78707E-23
1.31361E-01 1.69952E-23
1.34323E-01 1.61715E-23
1.37313E-01 1.53960E-23
1.40330E-01 1.46654E-23
1.43375E-01 1.39766E-23
1.46447E-01 1.33268E-23
1.49545E-01 1.27134E-23
1.52671E-01 1.21341E-23
1.55823E-01 1.15866E-23
1.59001E-01 1.10688E-23
1.62205E-01 1.05789E-23
1.65435E-01 1.01151E-23
1.68690E-01 9.67574E-24
1.71970E-01 9.25936E-24
1.75276E-01 8.86454E-24
1.78606E-01 8.48996E-24
1.81961E-01 8.13438E-24
1.85340E-01 7.79669E-24
1.88743E-01 7.47584E-24
1.92169E-01 7.17084E-24
1.95619E-01 6.88077E-24
1.99092E-01 6.60478E-24
2.02589E-01 6.34205E-24
2.06107E-01 6.09183E-24
2.09649E-01 5.85345E-24
2.13212E-01 5.62624E-24
2.16797E-01 5.40958E-24
2.20404E-01 5.20290E-24
2.24032E-01 5.00565E-24
2.27680E-01 4.81734E-24
2.31350E-01 4.63749E-24
2.35040E-01 4.46567E-24
2.38751E-01 4.30144E-24
2.42481E-01 4.14439E-24
2.46231E-01 3.99417E-24
2.50000E-01 3.85046E-24
2.53788E-01 3.71290E-24
2.57595E-01 3.58118E-24
2.61421E-01 3.45501E-24
2.65264E-01 3.33412E-24
2.69126E-01 3.21826E-24
2.73005E-01 3.10718E-24
2.76901E-01 3.00065E-24
2.80814E-01 2.89844E-24
2.84744E-01 2.80035E-24
2.88691E-01 2.70619E-24
2.92653E-01 2.61577E-24
2.96632E-01 2.52893E-24
3.00625E-01 2.44549E-24
3.04634E-01 2.36530E-24
3.08658E-01 2.28820E-24
3.12697E-01 2.21407E-24
3.16749E-01 2.14277E-24
3.20816E-01 2.07416E-24
3.24896E-01 2.00814E-24
3.28990E-01 1.94458E-24
3.33097E-01 1.88339E-24
3.37216E-01 1.82445E-24
3.41348E-01 1.76767E-24
3.45492E-01 1.71296E-24
3.49647E-01 1.66023E-24
3.53814E-01 1.60939E-24
3.57992E-01 1.56038E-24
3.62181E-01 1.51310E-24
3.66381E-01 1.46749E-24
3.70590E-01 1.42347E-24
3.74810E-01 1.38100E-24
3.79039E-01 1.33999E-24
3.83277E-01 1.30040E-24
3.87524E-01 1.26216E-24
3.91780E-01 1.22522E-24
3.96044E-01 1.18953E-24
4.00316E-01 1.15504E-24
4.04596E-01 1.12171E-24
4.08882E-01 1.08948E-24
4.13176E-01 1.05832E-24
4.17476E-01 1.02818E-24
4.21783E-01 9.99029E-25
4.26095E-01 9.70823E-25
4.30413E-01 9.43530E-25
4.34737E-01 9.17113E-25
4.39065E-01 8.91541E-25
4.43398E-01 8.66782E-25
4.47736E-01 8.42805E-25
4.52077E-01 8.19583E-25
4.56422E-01 7.97088E-25
4.60770E-01 7.75292E-25
4.65122E-01 7.54171E-25
4.69476E-01 7.33701E-25
4.73832E-01 7.13858E-25
4.78190E-01 6.94619E-25
4.82550E-01 6.75964E-25
4.86912E-01 6.57872E-25
4.91274E-01 6.40323E-25
4.95637E-01 6.23299E-25
5.00000E-01 6.06780E-25
5.04363E-01 5.90750E-25
5.08726E-01 5.75192E-25
5.13088E-01 5.60090E-25
5.17450E-01 5.45428E-25
5.21810E-01 5.31192E-25
5.26168E-01 5.17366E-25
5.30524E-01 5.03938E-25
5.34878E-01 4.90894E-25
5.39230E-01 4.78221E-25
5.43578E-01 4.65907E-25
5.47923E-01 4.53941E-25
5.52264E-01 4.42310E-25
5.56602E-01 4.31005E-25
5.60935E-01 4.20014E-25
5.65263E-01 4.09329E-25
5.69587E-01 3.98938E-25
5.73905E-01 3.88832E-25
5.78217E-01 3.79003E-25
5.82524E-01 3.69442E-25
5.86824E-01 3.60140E-25
5.91118E-01 3.51090E-25
5.95404E-01 3.42283E-25
5.99684E-01 3.33712E-25
6.03956E-01 3.25369E-25
6.08220E-01 3.17249E-25
6.12476E-01 3.09343E-25
6.16723E-01 3.01645E-25
6.20961E-01 2.94150E-25
6.25190E-01 2.86851E-25
6.29410E-01 2.79741E-25
6.33619E-01 2.72817E-25
6.37819E-01 2.66071E-25
6.42008E-01 2.59499E-25
6.46186E-01 2.53095E-25
6.50353E-01 2.46856E-25
6.54508E-01 2.40775E-25
6.58652E-01 2.34848E-25
6.62784E-01 2.29072E-25
6.66903E-01 2.23441E-25
6.71010E-01 2.17951E-25
6.75104E-01 2.12598E-25
6.79184E-01 2.07379E-25
6.83251E-01 2.02290E-25
6.87303E-01 1.97327E-25
6.91342E-01 1.92486E-25
6.95366E-01 1.87764E-25
6.99375E-01 1.83158E-25
7.03368E-01 1.78665E-25
7.07347E-01 1.74281E-25
7.11309E-01 1.70004E-25
7.15256E-01 1.65830E-25
7.19186E-01 1.61757E-25
7.23099E-01 1.57782E-25
7.26995E-01 1.53903E-25
7.30874E-01 1.50116E-25
7.34736E-01 1.46420E-25
7.38579E-01 1.42811E-25
7.42405E-01 1.39288E-25
7.46212E-01 1.35849E-25
7.50000E-01 1.32491E-25
7.53769E-01 1.29212E-25
7.57519E-01 1.26010E-25
7.61249E-01 1.22883E-25
7.64960E-01 1.19829E-25
7.68650E-01 1.16846E-25
7.72320E-01 1.13932E-25
7.75968E-01 1.11087E-25
7.79596E-01 1.08307E-25
7.83203E-01 1.05591E-25
7.86788E-01 1.02938E-25
7.90351E-01 1.00346E-25
7.93893E-01 9.78142E-26
7.97411E-01 9.53399E-26
8.00908E-01 9.29224E-26
8.04381E-01 9.05600E-26
8.07831E-01 8.82516E-26
8.11257E-01 8.59958E-26
8.14660E-01 8.37914E-26
8.18039E-01 8.16370E-26
8.21394E-01 7.95315E-26
8.24724E-01 7.74737E-26
8.28030E-01 7.54625E-26
8.31310E-01 7.34968E-26
8.34565E-01 7.15755E-26
8.37795E-01 6.96976E-26
8.40999E-01 6.78621E-26
8.44177E-01 6.60679E-26
8.47329E-01 6.43142E-26
8.50455E-01 6.26000E-26
8.53553E-01 6.09244E-26
8.56625E-01 5.92865E-26
8.59670E-01 5.76855E-26
8.62687E-01 5.61206E-26
8.65677E-01 5.45909E-26
8.68639E-01 5.30956E-26
8.71572E-01 5.16341E-26
8.74478E-01 5.02055E-26
8.77355E-01 4.88092E-26
8.80203E-01 4.74444E-26
8.83022E-01 4.61105E-26
8.85812E-01 4.48068E-26
8.88573E-01 4.35326E-26
8.91304E-01 4.22874E-26
8.94005E-01 4.10705E-26
8.96677E-01 3.98813E-26
8.99318E-01 3.87194E-26
9.01928E-01 3.75840E-26
9.04508E-01 3.64746E-26
9.07058E-01 3.53908E-26
9.09576E-01 3.43320E-26
9.12063E-01 3.32978E-26
9.14519E-01 3.22875E-26
9.16943E-01 3.13008E-26
9.19335E-01 3.03372E-26
9.21696E-01 2.93963E-26
9.24024E-01 2.84775E-26
9.26320E-01 2.75806E-26
9.28584E-01 2.67050E-26
9.30815E-01 2.58504E-26
9.33013E-01 2.50164E-26
9.35178E-01 2.42026E-26
9.37310E-01 2.34087E-26
9.39409E-01 2.26342E-26
9.41474E-01 2.18789E-26
9.43505E-01 2.11424E-26
9.45503E-01 2.04244E-26
9.47467E-01 1.97245E-26
9.49397E-01 1.90425E-26
9.51293E-01 1.83780E-26
9.53154E-01 1.77308E-26
9.54981E-01 1.71006E-26
9.56773E-01 1.64871E-26
9.58530E-01 1.58900E-26
9.60252E-01 1.53091E-26
9.61940E-01 1.47441E-26
9.63592E-01 1.41949E-26
9.65209E-01 1.36610E-26
9.66790E-01 1.31424E-26
9.68336E-01 1.26388E-26
9.69846E-01 1.21500E-26
9.71321E-01 1.16758E-26
9.72759E-01 1.12160E-26
9.74162E-01 1.07703E-26
9.75528E-01 1.03387E-26
9.76858E-01 9.92083E-27
9.78152E-01 9.51665E-27
9.79410E-01 9.12595E-27
9.80631E-01 8.74857E-27
9.81815E-01 8.38435E-27
9.82963E-01 8.03314E-27
9.84074E-01 7.69479E-27
9.85148E-01 7.36916E-27
9.86185E-01 7.05613E-27
9.87185E-01 6.75556E-27
9.88148E-01 6.46732E-27
9.89074E-01 6.19131E-27
9.89962E-01 5.92741E-27
9.90814E-01 5.67551E-27
9.91627E-01 5.43550E-27
9.92404E-01 5.20730E-27
9.93143E-01 4.99081E-27
9.93844E-01 4.78594E-27
9.94508E-01 4.59260E-27
9.95134E-01 4.41072E-27
9.95722E-01 4.24023E-27
9.96273E-01 4.08106E-27
9.96786E-01 3.93314E-27
9.97261E-01 3.79642E-27
9.97698E-01 3.67083E-27
9.98097E-01 3.55633E-27
9.98459E-01 3.45288E-27
9.98782E-01 3.36042E-27
9.99067E-01 3.27893E-27
9.99315E-01 3.20837E-27
9.99524E-01 3.14872E-27
9.99695E-01 3.09994E-27
9.99829E-01 3.06202E-27
9.99924E-01 3.03495E-27
9.99981E-01 3.01871E-27
1.00000E+00 3.01330E-27
