 #
 # Subroutine ELSEPA. Elastic scattering of electrons and positrons
 #                    by neutral atoms and positive ions
 #
 # Projectile: positron
 # Kinetic energy = 1.75000E+06 eV = 6.43113E+04 a.u.
 #
 # WARNING: High-energy factorization with free-atom DF screening.
 #          Absorption, polarization and exchange corrections are
 #          switched off.
 #          Phase shifts are calculated for the bare nucleus.
 #          Scattering amplitudes are not evaluated.
 #
 # Element: Ce,  Z =  58,  atomic weight = 1.40116E+02 g/mol
 #
 # Nuclear model: Fermi distribution
 #                Average radius = 5.55750E-13 cm
 #                Skin thickness = 5.46000E-14 cm
 #
 # Number of electrons = 58
 #
 # Total elastic cross section = 7.66033E-18 cm**2 = 2.73555E-01 a0**2
 # 1st transport cross section = 7.58707E-22 cm**2 = 2.70939E-05 a0**2
 # 2nd transport cross section = 2.15660E-21 cm**2 = 7.70135E-05 a0**2
 #
 #
 # Differential cross section:                       MU=(1-COS(THETA))/2
 #
 #  THETA        MU          DCS          DCS        Sherman      error
 #  (deg)                 (cm**2/sr)   (a0**2/sr)    function
 #----------------------------------------------------------------------
0.00000E+00 5.72667E-13
7.61557E-13 5.72665E-13
1.18994E-12 5.72664E-13
1.71346E-12 5.72663E-13
2.33225E-12 5.72661E-13
3.04617E-12 5.72659E-13
3.85530E-12 5.72658E-13
4.75964E-12 5.72656E-13
5.75917E-12 5.72653E-13
6.85391E-12 5.72651E-13
8.04379E-12 5.72648E-13
9.32893E-12 5.72645E-13
1.07092E-11 5.72642E-13
1.21847E-11 5.72639E-13
1.37554E-11 5.72636E-13
1.54213E-11 5.72632E-13
1.71823E-11 5.72628E-13
1.90386E-11 5.72624E-13
2.09900E-11 5.72620E-13
2.30367E-11 5.72616E-13
2.51785E-11 5.72611E-13
2.74156E-11 5.72606E-13
2.97478E-11 5.72601E-13
3.21752E-11 5.72596E-13
3.46979E-11 5.72590E-13
3.73157E-11 5.72585E-13
4.00286E-11 5.72579E-13
4.28368E-11 5.72573E-13
4.57402E-11 5.72567E-13
4.87388E-11 5.72560E-13
5.18325E-11 5.72554E-13
5.50215E-11 5.72547E-13
5.83057E-11 5.72540E-13
6.16850E-11 5.72533E-13
6.51595E-11 5.72525E-13
6.87293E-11 5.72518E-13
7.23943E-11 5.72510E-13
7.61544E-11 5.72502E-13
1.18991E-10 5.72411E-13
1.71347E-10 5.72299E-13
2.33223E-10 5.72169E-13
3.04617E-10 5.72018E-13
3.85531E-10 5.71847E-13
4.75965E-10 5.71656E-13
5.75917E-10 5.71446E-13
6.85389E-10 5.71216E-13
8.04380E-10 5.70966E-13
9.32891E-10 5.70696E-13
1.07092E-09 5.70407E-13
1.21847E-09 5.70099E-13
1.37554E-09 5.69770E-13
1.54213E-09 5.69422E-13
1.71823E-09 5.69055E-13
1.90386E-09 5.68669E-13
2.09900E-09 5.68263E-13
2.30367E-09 5.67838E-13
2.51785E-09 5.67393E-13
2.74156E-09 5.66930E-13
2.97478E-09 5.66448E-13
3.21752E-09 5.65946E-13
3.46978E-09 5.65426E-13
3.73156E-09 5.64887E-13
4.00286E-09 5.64330E-13
4.28368E-09 5.63753E-13
4.57402E-09 5.63159E-13
4.87388E-09 5.62546E-13
5.18326E-09 5.61914E-13
5.50215E-09 5.61265E-13
5.83057E-09 5.60597E-13
6.16850E-09 5.59912E-13
6.51596E-09 5.59208E-13
6.87293E-09 5.58487E-13
7.23942E-09 5.57748E-13
7.61544E-09 5.56991E-13
1.18991E-08 5.48492E-13
1.71347E-08 5.38388E-13
2.33223E-08 5.26834E-13
3.04617E-08 5.13999E-13
3.85531E-08 5.00062E-13
4.75965E-08 4.85217E-13
5.75917E-08 4.69776E-13
6.85389E-08 4.53591E-13
8.04380E-08 4.37117E-13
9.32891E-08 4.20455E-13
1.07092E-07 4.03515E-13
1.21847E-07 3.87006E-13
1.37554E-07 3.70418E-13
1.54213E-07 3.54244E-13
1.71823E-07 3.38475E-13
1.90386E-07 3.22931E-13
2.09900E-07 3.08266E-13
2.30367E-07 2.93879E-13
2.51785E-07 2.80193E-13
2.74156E-07 2.67122E-13
2.97478E-07 2.54471E-13
3.21752E-07 2.42732E-13
3.46978E-07 2.31375E-13
3.73156E-07 2.20708E-13
4.00286E-07 2.10624E-13
4.28368E-07 2.00964E-13
4.57402E-07 1.92046E-13
4.87388E-07 1.83485E-13
5.18325E-07 1.75479E-13
5.50215E-07 1.67932E-13
5.83057E-07 1.60739E-13
6.16850E-07 1.54078E-13
6.51596E-07 1.47709E-13
6.87293E-07 1.41741E-13
7.23942E-07 1.36108E-13
7.61543E-07 1.30747E-13
1.18991E-06 9.07205E-14
1.71347E-06 6.58921E-14
2.33223E-06 4.91724E-14
3.04617E-06 3.73317E-14
3.85531E-06 2.87294E-14
4.75964E-06 2.23823E-14
5.75916E-06 1.75024E-14
6.85388E-06 1.40616E-14
8.04378E-06 1.14017E-14
9.32888E-06 9.32678E-15
1.07092E-05 7.76672E-15
1.21846E-05 6.45878E-15
1.37553E-05 5.45273E-15
1.54212E-05 4.62508E-15
1.71822E-05 3.94392E-15
1.90385E-05 3.39649E-15
2.09899E-05 2.92102E-15
2.30365E-05 2.53514E-15
2.51783E-05 2.20519E-15
2.74153E-05 1.92429E-15
2.97475E-05 1.69005E-15
3.21749E-05 1.48373E-15
3.46974E-05 1.31078E-15
3.73152E-05 1.16109E-15
4.00281E-05 1.03185E-15
4.28362E-05 9.21290E-16
4.57395E-05 8.23754E-16
4.87380E-05 7.39742E-16
5.18317E-05 6.66014E-16
5.50205E-05 6.01369E-16
5.83045E-05 5.44871E-16
6.16838E-05 4.94647E-16
6.51582E-05 4.50545E-16
6.87277E-05 4.11315E-16
7.23925E-05 3.76430E-16
7.61524E-05 3.45421E-16
9.21439E-05 2.49635E-16
1.09658E-04 1.85575E-16
1.28695E-04 1.41033E-16
1.49255E-04 1.09028E-16
1.71338E-04 8.56207E-17
1.94942E-04 6.80791E-17
2.20070E-04 5.47423E-17
2.46720E-04 4.44579E-17
2.74892E-04 3.64322E-17
3.04586E-04 3.01244E-17
3.35803E-04 2.51125E-17
3.68542E-04 2.10973E-17
4.02802E-04 1.78509E-17
4.38585E-04 1.52025E-17
4.75889E-04 1.30275E-17
5.14715E-04 1.12240E-17
5.55063E-04 9.73020E-18
5.96931E-04 8.47553E-18
6.40321E-04 7.41710E-18
6.85233E-04 6.52232E-18
7.31665E-04 5.75490E-18
7.79618E-04 5.09989E-18
8.29092E-04 4.53477E-18
8.80086E-04 4.04595E-18
9.32601E-04 3.62244E-18
9.86636E-04 3.25127E-18
1.04219E-03 2.92752E-18
1.09927E-03 2.64257E-18
1.15786E-03 2.39143E-18
1.21797E-03 2.16985E-18
1.27961E-03 1.97256E-18
1.34276E-03 1.79763E-18
1.40743E-03 1.64134E-18
1.47362E-03 1.50163E-18
1.54133E-03 1.37663E-18
1.61056E-03 1.26397E-18
1.68131E-03 1.16280E-18
1.75357E-03 1.07136E-18
1.82735E-03 9.88705E-19
1.90265E-03 9.13928E-19
1.97947E-03 8.45885E-19
2.05780E-03 7.84149E-19
2.13765E-03 7.27838E-19
2.21902E-03 6.76472E-19
2.30190E-03 6.29582E-19
2.38630E-03 5.86578E-19
2.47222E-03 5.47227E-19
2.55965E-03 5.11063E-19
2.64859E-03 4.77826E-19
2.73905E-03 4.47258E-19
2.83103E-03 4.19037E-19
2.92452E-03 3.93029E-19
3.01952E-03 3.68975E-19
3.11604E-03 3.46727E-19
3.21407E-03 3.26134E-19
3.31362E-03 3.07016E-19
3.41468E-03 2.89290E-19
3.51725E-03 2.72806E-19
3.62133E-03 2.57475E-19
3.72692E-03 2.43208E-19
3.83403E-03 2.29898E-19
3.94265E-03 2.17492E-19
4.05278E-03 2.05899E-19
4.16442E-03 1.95067E-19
4.27757E-03 1.84938E-19
4.39223E-03 1.75448E-19
4.50840E-03 1.66562E-19
4.62608E-03 1.58225E-19
4.74527E-03 1.50401E-19
4.86597E-03 1.43055E-19
4.98817E-03 1.36145E-19
5.11188E-03 1.29650E-19
5.23711E-03 1.23532E-19
5.36383E-03 1.17771E-19
5.49207E-03 1.12341E-19
5.62181E-03 1.07217E-19
5.75306E-03 1.02382E-19
5.88581E-03 9.78139E-20
6.02007E-03 9.34971E-20
6.15583E-03 8.94156E-20
6.29310E-03 8.55517E-20
6.43187E-03 8.18948E-20
6.57214E-03 7.84292E-20
6.71392E-03 7.51446E-20
6.85720E-03 7.20298E-20
7.00198E-03 6.90730E-20
7.14827E-03 6.62666E-20
7.29605E-03 6.35999E-20
7.44534E-03 6.10656E-20
7.59612E-03 5.86560E-20
7.97965E-03 5.31291E-20
8.37255E-03 4.82352E-20
8.77480E-03 4.38894E-20
9.18641E-03 4.00199E-20
9.60736E-03 3.65655E-20
1.00376E-02 3.34741E-20
1.04773E-02 3.07010E-20
1.09262E-02 2.82077E-20
1.13844E-02 2.59611E-20
1.18520E-02 2.39325E-20
1.23288E-02 2.20972E-20
1.28150E-02 2.04335E-20
1.33104E-02 1.89225E-20
1.38150E-02 1.75478E-20
1.43290E-02 1.62949E-20
1.48521E-02 1.51511E-20
1.53845E-02 1.41054E-20
1.59262E-02 1.31477E-20
1.64770E-02 1.22693E-20
1.70371E-02 1.14626E-20
1.76063E-02 1.07207E-20
1.81848E-02 1.00374E-20
1.87724E-02 9.40726E-21
1.93692E-02 8.82543E-21
1.99751E-02 8.28756E-21
2.05901E-02 7.78973E-21
2.12143E-02 7.32842E-21
2.18476E-02 6.90049E-21
2.24900E-02 6.50309E-21
2.31415E-02 6.13363E-21
2.38021E-02 5.78985E-21
2.44717E-02 5.46958E-21
2.51504E-02 5.17099E-21
2.58382E-02 4.89230E-21
2.65349E-02 4.63196E-21
2.72407E-02 4.38857E-21
2.79555E-02 4.16080E-21
2.86793E-02 3.94748E-21
2.94120E-02 3.74753E-21
3.01537E-02 3.55996E-21
3.09043E-02 3.38386E-21
3.16639E-02 3.21841E-21
3.24324E-02 3.06285E-21
3.32098E-02 2.91649E-21
3.39961E-02 2.77867E-21
3.47912E-02 2.64882E-21
3.55952E-02 2.52638E-21
3.64081E-02 2.41086E-21
3.72297E-02 2.30180E-21
3.80602E-02 2.19878E-21
3.88995E-02 2.10139E-21
3.97476E-02 2.00927E-21
4.06044E-02 1.92209E-21
4.14700E-02 1.83954E-21
4.23443E-02 1.76132E-21
4.32273E-02 1.68717E-21
4.41190E-02 1.61683E-21
4.50194E-02 1.55008E-21
4.59284E-02 1.48670E-21
4.68461E-02 1.42649E-21
4.87074E-02 1.31483E-21
5.06030E-02 1.21377E-21
5.25328E-02 1.12212E-21
5.44967E-02 1.03886E-21
5.64946E-02 9.63089E-22
5.85262E-02 8.94016E-22
6.05914E-02 8.30951E-22
6.26901E-02 7.73281E-22
6.48222E-02 7.20465E-22
6.69873E-02 6.72022E-22
6.91854E-02 6.27530E-22
7.14163E-02 5.86611E-22
7.36799E-02 5.48930E-22
7.59760E-02 5.14183E-22
7.83043E-02 4.82104E-22
8.06647E-02 4.52454E-22
8.30571E-02 4.25016E-22
8.54812E-02 3.99596E-22
8.79369E-02 3.76020E-22
9.04240E-02 3.54132E-22
9.29422E-02 3.33789E-22
9.54915E-02 3.14864E-22
9.80716E-02 2.97240E-22
1.00682E-01 2.80813E-22
1.03323E-01 2.65487E-22
1.05995E-01 2.51175E-22
1.08696E-01 2.37799E-22
1.11427E-01 2.25286E-22
1.14188E-01 2.13572E-22
1.16978E-01 2.02597E-22
1.19797E-01 1.92305E-22
1.22645E-01 1.82647E-22
1.25522E-01 1.73576E-22
1.28428E-01 1.65052E-22
1.31361E-01 1.57035E-22
1.34323E-01 1.49490E-22
1.37313E-01 1.42384E-22
1.40330E-01 1.35687E-22
1.43375E-01 1.29372E-22
1.46447E-01 1.23412E-22
1.49545E-01 1.17785E-22
1.52671E-01 1.12469E-22
1.55823E-01 1.07443E-22
1.59001E-01 1.02689E-22
1.62205E-01 9.81890E-23
1.65435E-01 9.39278E-23
1.68690E-01 8.98903E-23
1.71970E-01 8.60626E-23
1.75276E-01 8.24320E-23
1.78606E-01 7.89866E-23
1.81961E-01 7.57151E-23
1.85340E-01 7.26073E-23
1.88743E-01 6.96537E-23
1.92169E-01 6.68451E-23
1.95619E-01 6.41732E-23
1.99092E-01 6.16303E-23
2.02589E-01 5.92089E-23
2.06107E-01 5.69023E-23
2.09649E-01 5.47041E-23
2.13212E-01 5.26082E-23
2.16797E-01 5.06092E-23
2.20404E-01 4.87016E-23
2.24032E-01 4.68807E-23
2.27680E-01 4.51417E-23
2.31350E-01 4.34804E-23
2.35040E-01 4.18927E-23
2.38751E-01 4.03747E-23
2.42481E-01 3.89229E-23
2.46231E-01 3.75338E-23
2.50000E-01 3.62043E-23
2.53788E-01 3.49314E-23
2.57595E-01 3.37122E-23
2.61421E-01 3.25441E-23
2.65264E-01 3.14246E-23
2.69126E-01 3.03513E-23
2.73005E-01 2.93219E-23
2.76901E-01 2.83344E-23
2.80814E-01 2.73867E-23
2.84744E-01 2.64770E-23
2.88691E-01 2.56034E-23
2.92653E-01 2.47643E-23
2.96632E-01 2.39581E-23
3.00625E-01 2.31833E-23
3.04634E-01 2.24384E-23
3.08658E-01 2.17221E-23
3.12697E-01 2.10331E-23
3.16749E-01 2.03702E-23
3.20816E-01 1.97321E-23
3.24896E-01 1.91180E-23
3.28990E-01 1.85265E-23
3.33097E-01 1.79569E-23
3.37216E-01 1.74081E-23
3.41348E-01 1.68792E-23
3.45492E-01 1.63695E-23
3.49647E-01 1.58780E-23
3.53814E-01 1.54041E-23
3.57992E-01 1.49469E-23
3.62181E-01 1.45059E-23
3.66381E-01 1.40802E-23
3.70590E-01 1.36694E-23
3.74810E-01 1.32727E-23
3.79039E-01 1.28897E-23
3.83277E-01 1.25197E-23
3.87524E-01 1.21623E-23
3.91780E-01 1.18169E-23
3.96044E-01 1.14831E-23
4.00316E-01 1.11604E-23
4.04596E-01 1.08484E-23
4.08882E-01 1.05466E-23
4.13176E-01 1.02548E-23
4.17476E-01 9.97241E-24
4.21783E-01 9.69918E-24
4.26095E-01 9.43475E-24
4.30413E-01 9.17877E-24
4.34737E-01 8.93093E-24
4.39065E-01 8.69093E-24
4.43398E-01 8.45849E-24
4.47736E-01 8.23331E-24
4.52077E-01 8.01514E-24
4.56422E-01 7.80372E-24
4.60770E-01 7.59881E-24
4.65122E-01 7.40016E-24
4.69476E-01 7.20757E-24
4.73832E-01 7.02081E-24
4.78190E-01 6.83968E-24
4.82550E-01 6.66398E-24
4.86912E-01 6.49351E-24
4.91274E-01 6.32811E-24
4.95637E-01 6.16758E-24
5.00000E-01 6.01177E-24
5.04363E-01 5.86051E-24
5.08726E-01 5.71365E-24
5.13088E-01 5.57104E-24
5.17450E-01 5.43254E-24
5.21810E-01 5.29801E-24
5.26168E-01 5.16731E-24
5.30524E-01 5.04032E-24
5.34878E-01 4.91691E-24
5.39230E-01 4.79698E-24
5.43578E-01 4.68040E-24
5.47923E-01 4.56706E-24
5.52264E-01 4.45687E-24
5.56602E-01 4.34972E-24
5.60935E-01 4.24551E-24
5.65263E-01 4.14414E-24
5.69587E-01 4.04554E-24
5.73905E-01 3.94961E-24
5.78217E-01 3.85626E-24
5.82524E-01 3.76542E-24
5.86824E-01 3.67701E-24
5.91118E-01 3.59096E-24
5.95404E-01 3.50718E-24
5.99684E-01 3.42562E-24
6.03956E-01 3.34620E-24
6.08220E-01 3.26886E-24
6.12476E-01 3.19353E-24
6.16723E-01 3.12016E-24
6.20961E-01 3.04869E-24
6.25190E-01 2.97906E-24
6.29410E-01 2.91121E-24
6.33619E-01 2.84510E-24
6.37819E-01 2.78067E-24
6.42008E-01 2.71787E-24
6.46186E-01 2.65666E-24
6.50353E-01 2.59699E-24
6.54508E-01 2.53882E-24
6.58652E-01 2.48209E-24
6.62784E-01 2.42678E-24
6.66903E-01 2.37284E-24
6.71010E-01 2.32023E-24
6.75104E-01 2.26891E-24
6.79184E-01 2.21885E-24
6.83251E-01 2.17002E-24
6.87303E-01 2.12237E-24
6.91342E-01 2.07588E-24
6.95366E-01 2.03051E-24
6.99375E-01 1.98624E-24
7.03368E-01 1.94303E-24
7.07347E-01 1.90086E-24
7.11309E-01 1.85969E-24
7.15256E-01 1.81950E-24
7.19186E-01 1.78026E-24
7.23099E-01 1.74196E-24
7.26995E-01 1.70455E-24
7.30874E-01 1.66803E-24
7.34736E-01 1.63236E-24
7.38579E-01 1.59752E-24
7.42405E-01 1.56350E-24
7.46212E-01 1.53027E-24
7.50000E-01 1.49780E-24
7.53769E-01 1.46609E-24
7.57519E-01 1.43511E-24
7.61249E-01 1.40484E-24
7.64960E-01 1.37527E-24
7.68650E-01 1.34637E-24
7.72320E-01 1.31814E-24
7.75968E-01 1.29055E-24
7.79596E-01 1.26358E-24
7.83203E-01 1.23723E-24
7.86788E-01 1.21147E-24
7.90351E-01 1.18629E-24
7.93893E-01 1.16169E-24
7.97411E-01 1.13763E-24
8.00908E-01 1.11412E-24
8.04381E-01 1.09113E-24
8.07831E-01 1.06866E-24
8.11257E-01 1.04669E-24
8.14660E-01 1.02522E-24
8.18039E-01 1.00422E-24
8.21394E-01 9.83686E-25
8.24724E-01 9.63612E-25
8.28030E-01 9.43983E-25
8.31310E-01 9.24790E-25
8.34565E-01 9.06023E-25
8.37795E-01 8.87671E-25
8.40999E-01 8.69726E-25
8.44177E-01 8.52178E-25
8.47329E-01 8.35019E-25
8.50455E-01 8.18239E-25
8.53553E-01 8.01829E-25
8.56625E-01 7.85783E-25
8.59670E-01 7.70091E-25
8.62687E-01 7.54747E-25
8.65677E-01 7.39741E-25
8.68639E-01 7.25068E-25
8.71572E-01 7.10720E-25
8.74478E-01 6.96689E-25
8.77355E-01 6.82970E-25
8.80203E-01 6.69555E-25
8.83022E-01 6.56439E-25
8.85812E-01 6.43614E-25
8.88573E-01 6.31075E-25
8.91304E-01 6.18816E-25
8.94005E-01 6.06831E-25
8.96677E-01 5.95115E-25
8.99318E-01 5.83662E-25
9.01928E-01 5.72466E-25
9.04508E-01 5.61524E-25
9.07058E-01 5.50829E-25
9.09576E-01 5.40377E-25
9.12063E-01 5.30164E-25
9.14519E-01 5.20184E-25
9.16943E-01 5.10433E-25
9.19335E-01 5.00907E-25
9.21696E-01 4.91601E-25
9.24024E-01 4.82512E-25
9.26320E-01 4.73635E-25
9.28584E-01 4.64967E-25
9.30815E-01 4.56503E-25
9.33013E-01 4.48241E-25
9.35178E-01 4.40176E-25
9.37310E-01 4.32305E-25
9.39409E-01 4.24625E-25
9.41474E-01 4.17132E-25
9.43505E-01 4.09823E-25
9.45503E-01 4.02696E-25
9.47467E-01 3.95746E-25
9.49397E-01 3.88972E-25
9.51293E-01 3.82370E-25
9.53154E-01 3.75938E-25
9.54981E-01 3.69672E-25
9.56773E-01 3.63571E-25
9.58530E-01 3.57631E-25
9.60252E-01 3.51851E-25
9.61940E-01 3.46228E-25
9.63592E-01 3.40759E-25
9.65209E-01 3.35443E-25
9.66790E-01 3.30277E-25
9.68336E-01 3.25260E-25
9.69846E-01 3.20388E-25
9.71321E-01 3.15661E-25
9.72759E-01 3.11075E-25
9.74162E-01 3.06631E-25
9.75528E-01 3.02325E-25
9.76858E-01 2.98156E-25
9.78152E-01 2.94122E-25
9.79410E-01 2.90222E-25
9.80631E-01 2.86454E-25
9.81815E-01 2.82816E-25
9.82963E-01 2.79308E-25
9.84074E-01 2.75928E-25
9.85148E-01 2.72674E-25
9.86185E-01 2.69546E-25
9.87185E-01 2.66541E-25
9.88148E-01 2.63659E-25
9.89074E-01 2.60900E-25
9.89962E-01 2.58260E-25
9.90814E-01 2.55741E-25
9.91627E-01 2.53340E-25
9.92404E-01 2.51057E-25
9.93143E-01 2.48890E-25
9.93844E-01 2.46840E-25
9.94508E-01 2.44905E-25
9.95134E-01 2.43084E-25
9.95722E-01 2.41378E-25
9.96273E-01 2.39784E-25
9.96786E-01 2.38303E-25
9.97261E-01 2.36934E-25
9.97698E-01 2.35676E-25
9.98097E-01 2.34529E-25
9.98459E-01 2.33493E-25
9.98782E-01 2.32567E-25
9.99067E-01 2.31751E-25
9.99315E-01 2.31044E-25
9.99524E-01 2.30446E-25
9.99695E-01 2.29958E-25
9.99829E-01 2.29578E-25
9.99924E-01 2.29306E-25
9.99981E-01 2.29144E-25
1.00000E+00 2.29090E-25
