 #
 # Subroutine ELSEPA. Elastic scattering of electrons and positrons
 #                    by neutral atoms and positive ions
 #
 # Projectile: positron
 # Kinetic energy = 1.00000E+08 eV = 3.67493E+06 a.u.
 #
 # WARNING: High-energy factorization with free-atom DF screening.
 #          Absorption, polarization and exchange corrections are
 #          switched off.
 #          Phase shifts are calculated for the bare nucleus.
 #          Scattering amplitudes are not evaluated.
 #
 # Element: Ce,  Z =  58,  atomic weight = 1.40116E+02 g/mol
 #
 # Nuclear model: Fermi distribution
 #                Average radius = 5.55750E-13 cm
 #                Skin thickness = 5.46000E-14 cm
 #
 # Number of electrons = 58
 #
 # Total elastic cross section = 7.28335E-18 cm**2 = 2.60093E-01 a0**2
 # 1st transport cross section = 6.28858E-25 cm**2 = 2.24569E-08 a0**2
 # 2nd transport cross section = 1.86919E-24 cm**2 = 6.67500E-08 a0**2
 #
 #
 # Differential cross section:                       MU=(1-COS(THETA))/2
 #
 #  THETA        MU          DCS          DCS        Sherman      error
 #  (deg)                 (cm**2/sr)   (a0**2/sr)    function
 #----------------------------------------------------------------------
0.00000E+00 1.13169E-09
7.61557E-13 1.12513E-09
1.18994E-12 1.12148E-09
1.71346E-12 1.11703E-09
2.33225E-12 1.11182E-09
3.04617E-12 1.10585E-09
3.85530E-12 1.09915E-09
4.75964E-12 1.09174E-09
5.75917E-12 1.08364E-09
6.85391E-12 1.07489E-09
8.04379E-12 1.06550E-09
9.32893E-12 1.05551E-09
1.07092E-11 1.04495E-09
1.21847E-11 1.03385E-09
1.37554E-11 1.02224E-09
1.54213E-11 1.01016E-09
1.71823E-11 9.97647E-10
1.90386E-11 9.84730E-10
2.09900E-11 9.71445E-10
2.30367E-11 9.57858E-10
2.51785E-11 9.44108E-10
2.74156E-11 9.30021E-10
2.97478E-11 9.15624E-10
3.21752E-11 9.00947E-10
3.46979E-11 8.86016E-10
3.73157E-11 8.71217E-10
4.00286E-11 8.56373E-10
4.28368E-11 8.41358E-10
4.57402E-11 8.26199E-10
4.87388E-11 8.10918E-10
5.18325E-11 7.95686E-10
5.50215E-11 7.80825E-10
5.83057E-11 7.65909E-10
6.16850E-11 7.50960E-10
6.51595E-11 7.35997E-10
6.87293E-11 7.21038E-10
7.23943E-11 7.06596E-10
7.61544E-11 6.92323E-10
1.18991E-10 5.58716E-10
1.71347E-10 4.49100E-10
2.33223E-10 3.63717E-10
3.04617E-10 2.98205E-10
3.85531E-10 2.47971E-10
4.75965E-10 2.09005E-10
5.75917E-10 1.78230E-10
6.85389E-10 1.53432E-10
8.04380E-10 1.33046E-10
9.32891E-10 1.16028E-10
1.07092E-09 1.01649E-10
1.21847E-09 8.93867E-11
1.37554E-09 7.88585E-11
1.54213E-09 6.97707E-11
1.71823E-09 6.18886E-11
1.90386E-09 5.50469E-11
2.09900E-09 4.90942E-11
2.30367E-09 4.38507E-11
2.51785E-09 3.90794E-11
2.74156E-09 3.50366E-11
2.97478E-09 3.15904E-11
3.21752E-09 2.86359E-11
3.46978E-09 2.60889E-11
3.73156E-09 2.36761E-11
4.00286E-09 2.15050E-11
4.28368E-09 1.96168E-11
4.57402E-09 1.79671E-11
4.87388E-09 1.65196E-11
5.18326E-09 1.52120E-11
5.50215E-09 1.39638E-11
5.83057E-09 1.28605E-11
6.16850E-09 1.18817E-11
6.51596E-09 1.10104E-11
6.87293E-09 1.02323E-11
7.23942E-09 9.48112E-12
7.61544E-09 8.79427E-12
1.18991E-08 4.48596E-12
1.71347E-08 2.48657E-12
2.33223E-08 1.47802E-12
3.04617E-08 9.37533E-13
3.85531E-08 6.27866E-13
4.75965E-08 4.38954E-13
5.75917E-08 3.17315E-13
6.85389E-08 2.35078E-13
8.04380E-08 1.77779E-13
9.32891E-08 1.36794E-13
1.07092E-07 1.06796E-13
1.21847E-07 8.44495E-14
1.37554E-07 6.75745E-14
1.54213E-07 5.46779E-14
1.71823E-07 4.47009E-14
1.90386E-07 3.68935E-14
2.09900E-07 3.07158E-14
2.30367E-07 2.57767E-14
2.51785E-07 2.17896E-14
2.74156E-07 1.85655E-14
2.97478E-07 1.59045E-14
3.21752E-07 1.37158E-14
3.46978E-07 1.18866E-14
3.73156E-07 1.03571E-14
4.00286E-07 9.06543E-15
4.28368E-07 7.97029E-15
4.57402E-07 7.03640E-15
4.87388E-07 6.23460E-15
5.18325E-07 5.54530E-15
5.50215E-07 4.94728E-15
5.83057E-07 4.42940E-15
6.16850E-07 3.97580E-15
6.51596E-07 3.58010E-15
6.87293E-07 3.23130E-15
7.23942E-07 2.92457E-15
7.61543E-07 2.65292E-15
1.18991E-06 1.11812E-15
1.71347E-06 5.48400E-16
2.33223E-06 2.99333E-16
3.04617E-06 1.76886E-16
3.85531E-06 1.11129E-16
4.75964E-06 7.32886E-17
5.75916E-06 5.02730E-17
6.85388E-06 3.56257E-17
8.04378E-06 2.59453E-17
9.32888E-06 1.93406E-17
1.07092E-05 1.47095E-17
1.21846E-05 1.13848E-17
1.37553E-05 8.94812E-18
1.54212E-05 7.12946E-18
1.71822E-05 5.74996E-18
1.90385E-05 4.68666E-18
2.09899E-05 3.86093E-18
2.30365E-05 3.20879E-18
2.51783E-05 2.68810E-18
2.74153E-05 2.26837E-18
2.97475E-05 1.92717E-18
3.21749E-05 1.64770E-18
3.46974E-05 1.41716E-18
3.73152E-05 1.22566E-18
4.00281E-05 1.06551E-18
4.28362E-05 9.30712E-19
4.57395E-05 8.16548E-19
4.87380E-05 7.19316E-19
5.18317E-05 6.36086E-19
5.50205E-05 5.64514E-19
5.83045E-05 5.02712E-19
6.16838E-05 4.49136E-19
6.51582E-05 4.02517E-19
6.87277E-05 3.61800E-19
7.23925E-05 3.26109E-19
7.61524E-05 2.94811E-19
9.21439E-05 2.01346E-19
1.09658E-04 1.42127E-19
1.28695E-04 1.03162E-19
1.49255E-04 7.66661E-20
1.71338E-04 5.81542E-20
1.94942E-04 4.49020E-20
2.20070E-04 3.52161E-20
2.46720E-04 2.80048E-20
2.74892E-04 2.25465E-20
3.04586E-04 1.83546E-20
3.35803E-04 1.50920E-20
3.68542E-04 1.25226E-20
4.02802E-04 1.04768E-20
4.38585E-04 8.83171E-21
4.75889E-04 7.49685E-21
5.14715E-04 6.40457E-21
5.55063E-04 5.50390E-21
5.96931E-04 4.75591E-21
6.40321E-04 4.13057E-21
6.85233E-04 3.60456E-21
7.31665E-04 3.15953E-21
7.79618E-04 2.78099E-21
8.29092E-04 2.45737E-21
8.80086E-04 2.17939E-21
9.32601E-04 1.93955E-21
9.86636E-04 1.73175E-21
1.04219E-03 1.55097E-21
1.09927E-03 1.39313E-21
1.15786E-03 1.25482E-21
1.21797E-03 1.13321E-21
1.27961E-03 1.02594E-21
1.34276E-03 9.31030E-22
1.40743E-03 8.46816E-22
1.47362E-03 7.71883E-22
1.54133E-03 7.05032E-22
1.61056E-03 6.45241E-22
1.68131E-03 5.91633E-22
1.75357E-03 5.43460E-22
1.82735E-03 5.00074E-22
1.90265E-03 4.60916E-22
1.97947E-03 4.25501E-22
2.05780E-03 3.93410E-22
2.13765E-03 3.64276E-22
2.21902E-03 3.37778E-22
2.30190E-03 3.13633E-22
2.38630E-03 2.91597E-22
2.47222E-03 2.71453E-22
2.55965E-03 2.53010E-22
2.64859E-03 2.36099E-22
2.73905E-03 2.20571E-22
2.83103E-03 2.06291E-22
2.92452E-03 1.93142E-22
3.01952E-03 1.81017E-22
3.11604E-03 1.69824E-22
3.21407E-03 1.59478E-22
3.31362E-03 1.49902E-22
3.41468E-03 1.41030E-22
3.51725E-03 1.32800E-22
3.62133E-03 1.25157E-22
3.72692E-03 1.18053E-22
3.83403E-03 1.11442E-22
3.94265E-03 1.05284E-22
4.05278E-03 9.95422E-23
4.16442E-03 9.41835E-23
4.27757E-03 8.91776E-23
4.39223E-03 8.44972E-23
4.50840E-03 8.01172E-23
4.62608E-03 7.60149E-23
4.74527E-03 7.21695E-23
4.86597E-03 6.85621E-23
4.98817E-03 6.51751E-23
5.11188E-03 6.19927E-23
5.23711E-03 5.90003E-23
5.36383E-03 5.61845E-23
5.49207E-03 5.35330E-23
5.62181E-03 5.10344E-23
5.75306E-03 4.86784E-23
5.88581E-03 4.64553E-23
6.02007E-03 4.43562E-23
6.15583E-03 4.23730E-23
6.29310E-03 4.04982E-23
6.43187E-03 3.87246E-23
6.57214E-03 3.70460E-23
6.71392E-03 3.54561E-23
6.85720E-03 3.39496E-23
7.00198E-03 3.25213E-23
7.14827E-03 3.11662E-23
7.29605E-03 2.98801E-23
7.44534E-03 2.86588E-23
7.59612E-03 2.74983E-23
7.97965E-03 2.48407E-23
8.37255E-03 2.24922E-23
8.77480E-03 2.04109E-23
9.18641E-03 1.85613E-23
9.60736E-03 1.69133E-23
1.00376E-02 1.54412E-23
1.04773E-02 1.41232E-23
1.09262E-02 1.29404E-23
1.13844E-02 1.18766E-23
1.18520E-02 1.09178E-23
1.23288E-02 1.00520E-23
1.28150E-02 9.26852E-24
1.33104E-02 8.55833E-24
1.38150E-02 7.91338E-24
1.43290E-02 7.32668E-24
1.48521E-02 6.79209E-24
1.53845E-02 6.30419E-24
1.59262E-02 5.85823E-24
1.64770E-02 5.45000E-24
1.70371E-02 5.07576E-24
1.76063E-02 4.73223E-24
1.81848E-02 4.41645E-24
1.87724E-02 4.12580E-24
1.93692E-02 3.85797E-24
1.99751E-02 3.61085E-24
2.05901E-02 3.38257E-24
2.12143E-02 3.17147E-24
2.18476E-02 2.97603E-24
2.24900E-02 2.79490E-24
2.31415E-02 2.62687E-24
2.38021E-02 2.47081E-24
2.44717E-02 2.32575E-24
2.51504E-02 2.19078E-24
2.58382E-02 2.06508E-24
2.65349E-02 1.94791E-24
2.72407E-02 1.83860E-24
2.79555E-02 1.73653E-24
2.86793E-02 1.64115E-24
2.94120E-02 1.55195E-24
3.01537E-02 1.46846E-24
3.09043E-02 1.39025E-24
3.16639E-02 1.31694E-24
3.24324E-02 1.24818E-24
3.32098E-02 1.18363E-24
3.39961E-02 1.12300E-24
3.47912E-02 1.06601E-24
3.55952E-02 1.01240E-24
3.64081E-02 9.61952E-25
3.72297E-02 9.14440E-25
3.80602E-02 8.69669E-25
3.88995E-02 8.27456E-25
3.97476E-02 7.87631E-25
4.06044E-02 7.50040E-25
4.14700E-02 7.14536E-25
4.23443E-02 6.80987E-25
4.32273E-02 6.49267E-25
4.41190E-02 6.19262E-25
4.50194E-02 5.90865E-25
4.59284E-02 5.63976E-25
4.68461E-02 5.38504E-25
4.87074E-02 4.91470E-25
5.06030E-02 4.49145E-25
5.25328E-02 4.10990E-25
5.44967E-02 3.76538E-25
5.64946E-02 3.45379E-25
5.85262E-02 3.17156E-25
6.05914E-02 2.91553E-25
6.26901E-02 2.68296E-25
6.48222E-02 2.47139E-25
6.69873E-02 2.27869E-25
6.91854E-02 2.10294E-25
7.14163E-02 1.94247E-25
7.36799E-02 1.79577E-25
7.59760E-02 1.66150E-25
7.83043E-02 1.53849E-25
8.06647E-02 1.42567E-25
8.30571E-02 1.32209E-25
8.54812E-02 1.22690E-25
8.79369E-02 1.13934E-25
9.04240E-02 1.05872E-25
9.29422E-02 9.84433E-26
9.54915E-02 9.15917E-26
9.80716E-02 8.52674E-26
1.00682E-01 7.94251E-26
1.03323E-01 7.40239E-26
1.05995E-01 6.90268E-26
1.08696E-01 6.44003E-26
1.11427E-01 6.01138E-26
1.14188E-01 5.61397E-26
1.16978E-01 5.24528E-26
1.19797E-01 4.90302E-26
1.22645E-01 4.58509E-26
1.25522E-01 4.28960E-26
1.28428E-01 4.01480E-26
1.31361E-01 3.75910E-26
1.34323E-01 3.52103E-26
1.37313E-01 3.29928E-26
1.40330E-01 3.09261E-26
1.43375E-01 2.89990E-26
1.46447E-01 2.72013E-26
1.49545E-01 2.55235E-26
1.52671E-01 2.39568E-26
1.55823E-01 2.24933E-26
1.59001E-01 2.11255E-26
1.62205E-01 1.98467E-26
1.65435E-01 1.86507E-26
1.68690E-01 1.75315E-26
1.71970E-01 1.64840E-26
1.75276E-01 1.55030E-26
1.78606E-01 1.45842E-26
1.81961E-01 1.37232E-26
1.85340E-01 1.29161E-26
1.88743E-01 1.21592E-26
1.92169E-01 1.14494E-26
1.95619E-01 1.07833E-26
1.99092E-01 1.01582E-26
2.02589E-01 9.57125E-27
2.06107E-01 9.02008E-27
2.09649E-01 8.50232E-27
2.13212E-01 8.01582E-27
2.16797E-01 7.55857E-27
2.20404E-01 7.12869E-27
2.24032E-01 6.72446E-27
2.27680E-01 6.34424E-27
2.31350E-01 5.98653E-27
2.35040E-01 5.64991E-27
2.38751E-01 5.33306E-27
2.42481E-01 5.03477E-27
2.46231E-01 4.75389E-27
2.50000E-01 4.48934E-27
2.53788E-01 4.24012E-27
2.57595E-01 4.00530E-27
2.61421E-01 3.78401E-27
2.65264E-01 3.57542E-27
2.69126E-01 3.37877E-27
2.73005E-01 3.19335E-27
2.76901E-01 3.01848E-27
2.80814E-01 2.85353E-27
2.84744E-01 2.69792E-27
2.88691E-01 2.55109E-27
2.92653E-01 2.41252E-27
2.96632E-01 2.28174E-27
3.00625E-01 2.15828E-27
3.04634E-01 2.04172E-27
3.08658E-01 1.93166E-27
3.12697E-01 1.82771E-27
3.16749E-01 1.72953E-27
3.20816E-01 1.63679E-27
3.24896E-01 1.54916E-27
3.28990E-01 1.46637E-27
3.33097E-01 1.38813E-27
3.37216E-01 1.31418E-27
3.41348E-01 1.24428E-27
3.45492E-01 1.17820E-27
3.49647E-01 1.11573E-27
3.53814E-01 1.05665E-27
3.57992E-01 1.00079E-27
3.62181E-01 9.47956E-28
3.66381E-01 8.97983E-28
3.70590E-01 8.50711E-28
3.74810E-01 8.05989E-28
3.79039E-01 7.63675E-28
3.83277E-01 7.23637E-28
3.87524E-01 6.85748E-28
3.91780E-01 6.49890E-28
3.96044E-01 6.15951E-28
4.00316E-01 5.83824E-28
4.04596E-01 5.53412E-28
4.08882E-01 5.24619E-28
4.13176E-01 4.97357E-28
4.17476E-01 4.71544E-28
4.21783E-01 4.47099E-28
4.26095E-01 4.23949E-28
4.30413E-01 4.02023E-28
4.34737E-01 3.81255E-28
4.39065E-01 3.61583E-28
4.43398E-01 3.42946E-28
4.47736E-01 3.25290E-28
4.52077E-01 3.08562E-28
4.56422E-01 2.92711E-28
4.60770E-01 2.77691E-28
4.65122E-01 2.63458E-28
4.69476E-01 2.49968E-28
4.73832E-01 2.37183E-28
4.78190E-01 2.25064E-28
4.82550E-01 2.13577E-28
4.86912E-01 2.02687E-28
4.91274E-01 1.92364E-28
4.95637E-01 1.82576E-28
5.00000E-01 1.73296E-28
5.04363E-01 1.64497E-28
5.08726E-01 1.56153E-28
5.13088E-01 1.48240E-28
5.17450E-01 1.40736E-28
5.21810E-01 1.33619E-28
5.26168E-01 1.26869E-28
5.30524E-01 1.20466E-28
5.34878E-01 1.14392E-28
5.39230E-01 1.08631E-28
5.43578E-01 1.03165E-28
5.47923E-01 9.79788E-29
5.52264E-01 9.30585E-29
5.56602E-01 8.83900E-29
5.60935E-01 8.39600E-29
5.65263E-01 7.97563E-29
5.69587E-01 7.57669E-29
5.73905E-01 7.19809E-29
5.78217E-01 6.83876E-29
5.82524E-01 6.49771E-29
5.86824E-01 6.17398E-29
5.91118E-01 5.86669E-29
5.95404E-01 5.57498E-29
5.99684E-01 5.29806E-29
6.03956E-01 5.03515E-29
6.08220E-01 4.78553E-29
6.12476E-01 4.54852E-29
6.16723E-01 4.32348E-29
6.20961E-01 4.10979E-29
6.25190E-01 3.90686E-29
6.29410E-01 3.71414E-29
6.33619E-01 3.53112E-29
6.37819E-01 3.35728E-29
6.42008E-01 3.19218E-29
6.46186E-01 3.03535E-29
6.50353E-01 2.88637E-29
6.54508E-01 2.74485E-29
6.58652E-01 2.61041E-29
6.62784E-01 2.48268E-29
6.66903E-01 2.36132E-29
6.71010E-01 2.24602E-29
6.75104E-01 2.13645E-29
6.79184E-01 2.03234E-29
6.83251E-01 1.93340E-29
6.87303E-01 1.83938E-29
6.91342E-01 1.75002E-29
6.95366E-01 1.66509E-29
6.99375E-01 1.58436E-29
7.03368E-01 1.50763E-29
7.07347E-01 1.43468E-29
7.11309E-01 1.36534E-29
7.15256E-01 1.29942E-29
7.19186E-01 1.23674E-29
7.23099E-01 1.17715E-29
7.26995E-01 1.12048E-29
7.30874E-01 1.06660E-29
7.34736E-01 1.01536E-29
7.38579E-01 9.66636E-30
7.42405E-01 9.20294E-30
7.46212E-01 8.76217E-30
7.50000E-01 8.34292E-30
7.53769E-01 7.94413E-30
7.57519E-01 7.56477E-30
7.61249E-01 7.20388E-30
7.64960E-01 6.86053E-30
7.68650E-01 6.53386E-30
7.72320E-01 6.22303E-30
7.75968E-01 5.92726E-30
7.79596E-01 5.64580E-30
7.83203E-01 5.37795E-30
7.86788E-01 5.12302E-30
7.90351E-01 4.88039E-30
7.93893E-01 4.64944E-30
7.97411E-01 4.42960E-30
8.00908E-01 4.22032E-30
8.04381E-01 4.02108E-30
8.07831E-01 3.83138E-30
8.11257E-01 3.65076E-30
8.14660E-01 3.47877E-30
8.18039E-01 3.31499E-30
8.21394E-01 3.15901E-30
8.24724E-01 3.01045E-30
8.28030E-01 2.86896E-30
8.31310E-01 2.73418E-30
8.34565E-01 2.60579E-30
8.37795E-01 2.48347E-30
8.40999E-01 2.36693E-30
8.44177E-01 2.25589E-30
8.47329E-01 2.15008E-30
8.50455E-01 2.04925E-30
8.53553E-01 1.95316E-30
8.56625E-01 1.86157E-30
8.59670E-01 1.77427E-30
8.62687E-01 1.69105E-30
8.65677E-01 1.61172E-30
8.68639E-01 1.53608E-30
8.71572E-01 1.46397E-30
8.74478E-01 1.39520E-30
8.77355E-01 1.32963E-30
8.80203E-01 1.26709E-30
8.83022E-01 1.20744E-30
8.85812E-01 1.15054E-30
8.88573E-01 1.09627E-30
8.91304E-01 1.04449E-30
8.94005E-01 9.95095E-31
8.96677E-01 9.47961E-31
8.99318E-01 9.02984E-31
9.01928E-01 8.60063E-31
9.04508E-01 8.19100E-31
9.07058E-01 7.80003E-31
9.09576E-01 7.42684E-31
9.12063E-01 7.07059E-31
9.14519E-01 6.73049E-31
9.16943E-01 6.40578E-31
9.19335E-01 6.09574E-31
9.21696E-01 5.79970E-31
9.24024E-01 5.51699E-31
9.26320E-01 5.24700E-31
9.28584E-01 4.98914E-31
9.30815E-01 4.74285E-31
9.33013E-01 4.50760E-31
9.35178E-01 4.28287E-31
9.37310E-01 4.06819E-31
9.39409E-01 3.86311E-31
9.41474E-01 3.66717E-31
9.43505E-01 3.47997E-31
9.45503E-01 3.30111E-31
9.47467E-01 3.13022E-31
9.49397E-01 2.96693E-31
9.51293E-01 2.81091E-31
9.53154E-01 2.66184E-31
9.54981E-01 2.51940E-31
9.56773E-01 2.38330E-31
9.58530E-01 2.25327E-31
9.60252E-01 2.12903E-31
9.61940E-01 2.01035E-31
9.63592E-01 1.89697E-31
9.65209E-01 1.78867E-31
9.66790E-01 1.68523E-31
9.68336E-01 1.58645E-31
9.69846E-01 1.49213E-31
9.71321E-01 1.40208E-31
9.72759E-01 1.31613E-31
9.74162E-01 1.23410E-31
9.75528E-01 1.15585E-31
9.76858E-01 1.08121E-31
9.78152E-01 1.01005E-31
9.79410E-01 9.42222E-32
9.80631E-01 8.77600E-32
9.81815E-01 8.16061E-32
9.82963E-01 7.57488E-32
9.84074E-01 7.01770E-32
9.85148E-01 6.48804E-32
9.86185E-01 5.98488E-32
9.87185E-01 5.50730E-32
9.88148E-01 5.05439E-32
9.89074E-01 4.62535E-32
9.89962E-01 4.21935E-32
9.90814E-01 3.83566E-32
9.91627E-01 3.47357E-32
9.92404E-01 3.13243E-32
9.93143E-01 2.81161E-32
9.93844E-01 2.51054E-32
9.94508E-01 2.22866E-32
9.95134E-01 1.96547E-32
9.95722E-01 1.72050E-32
9.96273E-01 1.49331E-32
9.96786E-01 1.28349E-32
9.97261E-01 1.09066E-32
9.97698E-01 9.14493E-33
9.98097E-01 7.54671E-33
9.98459E-01 6.10899E-33
9.98782E-01 4.82940E-33
9.99067E-01 3.70557E-33
9.99315E-01 2.73553E-33
9.99524E-01 1.91762E-33
9.99695E-01 1.25032E-33
9.99829E-01 7.32566E-34
9.99924E-01 3.63380E-34
9.99981E-01 1.42124E-34
1.00000E+00 6.84330E-35
