 #
 # Subroutine ELSEPA. Elastic scattering of electrons and positrons
 #                    by neutral atoms and positive ions
 #
 # Projectile: positron
 # Kinetic energy = 2.00000E+06 eV = 7.34987E+04 a.u.
 #
 # WARNING: High-energy factorization with free-atom DF screening.
 #          Absorption, polarization and exchange corrections are
 #          switched off.
 #          Phase shifts are calculated for the bare nucleus.
 #          Scattering amplitudes are not evaluated.
 #
 # Element: Ce,  Z =  58,  atomic weight = 1.40116E+02 g/mol
 #
 # Nuclear model: Fermi distribution
 #                Average radius = 5.55750E-13 cm
 #                Skin thickness = 5.46000E-14 cm
 #
 # Number of electrons = 58
 #
 # Total elastic cross section = 7.58399E-18 cm**2 = 2.70829E-01 a0**2
 # 1st transport cross section = 6.17927E-22 cm**2 = 2.20666E-05 a0**2
 # 2nd transport cross section = 1.76021E-21 cm**2 = 6.28581E-05 a0**2
 #
 #
 # Differential cross section:                       MU=(1-COS(THETA))/2
 #
 #  THETA        MU          DCS          DCS        Sherman      error
 #  (deg)                 (cm**2/sr)   (a0**2/sr)    function
 #----------------------------------------------------------------------
0.00000E+00 7.06308E-13
7.61557E-13 7.06305E-13
1.18994E-12 7.06304E-13
1.71346E-12 7.06302E-13
2.33225E-12 7.06300E-13
3.04617E-12 7.06297E-13
3.85530E-12 7.06294E-13
4.75964E-12 7.06291E-13
5.75917E-12 7.06288E-13
6.85391E-12 7.06284E-13
8.04379E-12 7.06280E-13
9.32893E-12 7.06276E-13
1.07092E-11 7.06271E-13
1.21847E-11 7.06266E-13
1.37554E-11 7.06261E-13
1.54213E-11 7.06256E-13
1.71823E-11 7.06250E-13
1.90386E-11 7.06244E-13
2.09900E-11 7.06237E-13
2.30367E-11 7.06230E-13
2.51785E-11 7.06223E-13
2.74156E-11 7.06216E-13
2.97478E-11 7.06208E-13
3.21752E-11 7.06200E-13
3.46979E-11 7.06192E-13
3.73157E-11 7.06183E-13
4.00286E-11 7.06174E-13
4.28368E-11 7.06165E-13
4.57402E-11 7.06156E-13
4.87388E-11 7.06146E-13
5.18325E-11 7.06136E-13
5.50215E-11 7.06125E-13
5.83057E-11 7.06114E-13
6.16850E-11 7.06103E-13
6.51595E-11 7.06092E-13
6.87293E-11 7.06080E-13
7.23943E-11 7.06068E-13
7.61544E-11 7.06056E-13
1.18991E-10 7.05916E-13
1.71347E-10 7.05746E-13
2.33223E-10 7.05545E-13
3.04617E-10 7.05314E-13
3.85531E-10 7.05052E-13
4.75965E-10 7.04760E-13
5.75917E-10 7.04437E-13
6.85389E-10 7.04084E-13
8.04380E-10 7.03701E-13
9.32891E-10 7.03287E-13
1.07092E-09 7.02844E-13
1.21847E-09 7.02371E-13
1.37554E-09 7.01867E-13
1.54213E-09 7.01334E-13
1.71823E-09 7.00772E-13
1.90386E-09 7.00180E-13
2.09900E-09 6.99558E-13
2.30367E-09 6.98907E-13
2.51785E-09 6.98227E-13
2.74156E-09 6.97518E-13
2.97478E-09 6.96780E-13
3.21752E-09 6.96014E-13
3.46978E-09 6.95219E-13
3.73156E-09 6.94395E-13
4.00286E-09 6.93543E-13
4.28368E-09 6.92664E-13
4.57402E-09 6.91756E-13
4.87388E-09 6.90821E-13
5.18326E-09 6.89858E-13
5.50215E-09 6.88867E-13
5.83057E-09 6.87850E-13
6.16850E-09 6.86806E-13
6.51596E-09 6.85735E-13
6.87293E-09 6.84637E-13
7.23942E-09 6.83514E-13
7.61544E-09 6.82364E-13
1.18991E-08 6.69486E-13
1.71347E-08 6.54277E-13
2.33223E-08 6.37020E-13
3.04617E-08 6.18017E-13
3.85531E-08 5.97609E-13
4.75965E-08 5.76238E-13
5.75917E-08 5.53761E-13
6.85389E-08 5.31086E-13
8.04380E-08 5.07932E-13
9.32891E-08 4.84947E-13
1.07092E-07 4.62131E-13
1.21847E-07 4.39672E-13
1.37554E-07 4.17949E-13
1.54213E-07 3.96632E-13
1.71823E-07 3.76497E-13
1.90386E-07 3.56804E-13
2.09900E-07 3.38440E-13
2.30367E-07 3.20693E-13
2.51785E-07 3.04076E-13
2.74156E-07 2.88297E-13
2.97478E-07 2.73429E-13
3.21752E-07 2.59527E-13
3.46978E-07 2.46333E-13
3.73156E-07 2.34153E-13
4.00286E-07 2.22518E-13
4.28368E-07 2.11864E-13
4.57402E-07 2.01717E-13
4.87388E-07 1.92319E-13
5.18325E-07 1.83462E-13
5.50215E-07 1.75177E-13
5.83057E-07 1.67425E-13
6.16850E-07 1.60115E-13
6.51596E-07 1.53301E-13
6.87293E-07 1.46840E-13
7.23942E-07 1.40820E-13
7.61543E-07 1.35107E-13
1.18991E-06 9.25342E-14
1.71347E-06 6.61330E-14
2.33223E-06 4.84197E-14
3.04617E-06 3.60818E-14
3.85531E-06 2.72826E-14
4.75964E-06 2.08016E-14
5.75916E-06 1.63928E-14
6.85388E-06 1.29628E-14
8.04378E-06 1.04612E-14
9.32888E-06 8.51969E-15
1.07092E-05 7.01651E-15
1.21846E-05 5.84092E-15
1.37553E-05 4.88406E-15
1.54212E-05 4.13252E-15
1.71822E-05 3.49613E-15
1.90385E-05 2.99046E-15
2.09899E-05 2.55914E-15
2.30365E-05 2.20808E-15
2.51783E-05 1.91000E-15
2.74153E-05 1.66029E-15
2.97475E-05 1.44973E-15
3.21749E-05 1.27017E-15
3.46974E-05 1.11892E-15
3.73152E-05 9.88378E-16
4.00281E-05 8.77862E-16
4.28362E-05 7.81582E-16
4.57395E-05 6.99105E-16
4.87380E-05 6.27157E-16
5.18317E-05 5.64648E-16
5.50205E-05 5.09930E-16
5.83045E-05 4.61867E-16
6.16838E-05 4.19638E-16
6.51582E-05 3.82168E-16
6.87277E-05 3.49126E-16
7.23925E-05 3.19490E-16
7.61524E-05 2.93204E-16
9.21439E-05 2.11828E-16
1.09658E-04 1.56946E-16
1.28695E-04 1.18756E-16
1.49255E-04 9.14357E-17
1.71338E-04 7.14201E-17
1.94942E-04 5.64878E-17
2.20070E-04 4.52027E-17
2.46720E-04 3.65718E-17
2.74892E-04 2.98939E-17
3.04586E-04 2.46651E-17
3.35803E-04 2.05269E-17
3.68542E-04 1.72203E-17
4.02802E-04 1.45481E-17
4.38585E-04 1.23826E-17
4.75889E-04 1.06078E-17
5.14715E-04 9.13891E-18
5.55063E-04 7.91972E-18
5.96931E-04 6.89411E-18
6.40321E-04 6.03339E-18
6.85233E-04 5.29982E-18
7.31665E-04 4.67695E-18
7.79618E-04 4.14160E-18
8.29092E-04 3.68136E-18
8.80086E-04 3.28313E-18
9.32601E-04 2.93711E-18
9.86636E-04 2.63582E-18
1.04219E-03 2.37152E-18
1.09927E-03 2.14011E-18
1.15786E-03 1.93541E-18
1.21797E-03 1.75505E-18
1.27961E-03 1.59477E-18
1.34276E-03 1.45251E-18
1.40743E-03 1.32558E-18
1.47362E-03 1.21216E-18
1.54133E-03 1.11061E-18
1.61056E-03 1.01931E-18
1.68131E-03 9.37297E-19
1.75357E-03 8.63155E-19
1.82735E-03 7.96297E-19
1.90265E-03 7.35637E-19
1.97947E-03 6.80684E-19
2.05780E-03 6.30702E-19
2.13765E-03 5.85210E-19
2.21902E-03 5.43731E-19
2.30190E-03 5.05820E-19
2.38630E-03 4.71169E-19
2.47222E-03 4.39381E-19
2.55965E-03 4.10254E-19
2.64859E-03 3.83448E-19
2.73905E-03 3.58811E-19
2.83103E-03 3.36096E-19
2.92452E-03 3.15149E-19
3.01952E-03 2.95799E-19
3.11604E-03 2.77900E-19
3.21407E-03 2.61336E-19
3.31362E-03 2.45972E-19
3.41468E-03 2.31727E-19
3.51725E-03 2.18480E-19
3.62133E-03 2.06172E-19
3.72692E-03 1.94708E-19
3.83403E-03 1.84030E-19
3.94265E-03 1.74069E-19
4.05278E-03 1.64770E-19
4.16442E-03 1.56083E-19
4.27757E-03 1.47956E-19
4.39223E-03 1.40352E-19
4.50840E-03 1.33224E-19
4.62608E-03 1.26544E-19
4.74527E-03 1.20273E-19
4.86597E-03 1.14386E-19
4.98817E-03 1.08853E-19
5.11188E-03 1.03649E-19
5.23711E-03 9.87509E-20
5.36383E-03 9.41370E-20
5.49207E-03 8.97896E-20
5.62181E-03 8.56876E-20
5.75306E-03 8.18177E-20
5.88581E-03 7.81615E-20
6.02007E-03 7.47074E-20
6.15583E-03 7.14406E-20
6.29310E-03 6.83498E-20
6.43187E-03 6.54238E-20
6.57214E-03 6.26517E-20
6.71392E-03 6.00248E-20
6.85720E-03 5.75327E-20
7.00198E-03 5.51689E-20
7.14827E-03 5.29238E-20
7.29605E-03 5.07919E-20
7.44534E-03 4.87654E-20
7.59612E-03 4.68386E-20
7.97965E-03 4.24203E-20
8.37255E-03 3.85085E-20
8.77480E-03 3.50352E-20
9.18641E-03 3.19428E-20
9.60736E-03 2.91826E-20
1.00376E-02 2.67127E-20
1.04773E-02 2.44973E-20
1.09262E-02 2.25057E-20
1.13844E-02 2.07112E-20
1.18520E-02 1.90911E-20
1.23288E-02 1.76254E-20
1.28150E-02 1.62968E-20
1.33104E-02 1.50903E-20
1.38150E-02 1.39927E-20
1.43290E-02 1.29925E-20
1.48521E-02 1.20795E-20
1.53845E-02 1.12447E-20
1.59262E-02 1.04803E-20
1.64770E-02 9.77931E-21
1.70371E-02 9.13552E-21
1.76063E-02 8.54345E-21
1.81848E-02 7.99821E-21
1.87724E-02 7.49545E-21
1.93692E-02 7.03128E-21
1.99751E-02 6.60219E-21
2.05901E-02 6.20508E-21
2.12143E-02 5.83713E-21
2.18476E-02 5.49584E-21
2.24900E-02 5.17891E-21
2.31415E-02 4.88430E-21
2.38021E-02 4.61016E-21
2.44717E-02 4.35481E-21
2.51504E-02 4.11674E-21
2.58382E-02 3.89458E-21
2.65349E-02 3.68706E-21
2.72407E-02 3.49305E-21
2.79555E-02 3.31151E-21
2.86793E-02 3.14151E-21
2.94120E-02 2.98216E-21
3.01537E-02 2.83269E-21
3.09043E-02 2.69238E-21
3.16639E-02 2.56056E-21
3.24324E-02 2.43663E-21
3.32098E-02 2.32003E-21
3.39961E-02 2.21025E-21
3.47912E-02 2.10682E-21
3.55952E-02 2.00931E-21
3.64081E-02 1.91731E-21
3.72297E-02 1.83046E-21
3.80602E-02 1.74841E-21
3.88995E-02 1.67086E-21
3.97476E-02 1.59753E-21
4.06044E-02 1.52811E-21
4.14700E-02 1.46239E-21
4.23443E-02 1.40012E-21
4.32273E-02 1.34110E-21
4.41190E-02 1.28512E-21
4.50194E-02 1.23199E-21
4.59284E-02 1.18155E-21
4.68461E-02 1.13363E-21
4.87074E-02 1.04478E-21
5.06030E-02 9.64369E-22
5.25328E-02 8.91457E-22
5.44967E-02 8.25224E-22
5.64946E-02 7.64954E-22
5.85262E-02 7.10019E-22
6.05914E-02 6.59866E-22
6.26901E-02 6.14008E-22
6.48222E-02 5.72014E-22
6.69873E-02 5.33502E-22
6.91854E-02 4.98134E-22
7.14163E-02 4.65610E-22
7.36799E-02 4.35659E-22
7.59760E-02 4.08045E-22
7.83043E-02 3.82553E-22
8.06647E-02 3.58993E-22
8.30571E-02 3.37192E-22
8.54812E-02 3.16997E-22
8.79369E-02 2.98268E-22
9.04240E-02 2.80881E-22
9.29422E-02 2.64723E-22
9.54915E-02 2.49692E-22
9.80716E-02 2.35695E-22
1.00682E-01 2.22650E-22
1.03323E-01 2.10480E-22
1.05995E-01 1.99117E-22
1.08696E-01 1.88497E-22
1.11427E-01 1.78563E-22
1.14188E-01 1.69264E-22
1.16978E-01 1.60552E-22
1.19797E-01 1.52383E-22
1.22645E-01 1.44717E-22
1.25522E-01 1.37519E-22
1.28428E-01 1.30754E-22
1.31361E-01 1.24392E-22
1.34323E-01 1.18405E-22
1.37313E-01 1.12767E-22
1.40330E-01 1.07454E-22
1.43375E-01 1.02444E-22
1.46447E-01 9.77161E-23
1.49545E-01 9.32524E-23
1.52671E-01 8.90354E-23
1.55823E-01 8.50490E-23
1.59001E-01 8.12784E-23
1.62205E-01 7.77099E-23
1.65435E-01 7.43307E-23
1.68690E-01 7.11291E-23
1.71970E-01 6.80940E-23
1.75276E-01 6.52154E-23
1.78606E-01 6.24837E-23
1.81961E-01 5.98901E-23
1.85340E-01 5.74264E-23
1.88743E-01 5.50850E-23
1.92169E-01 5.28587E-23
1.95619E-01 5.07410E-23
1.99092E-01 4.87255E-23
2.02589E-01 4.68065E-23
2.06107E-01 4.49785E-23
2.09649E-01 4.32366E-23
2.13212E-01 4.15758E-23
2.16797E-01 3.99919E-23
2.20404E-01 3.84805E-23
2.24032E-01 3.70379E-23
2.27680E-01 3.56602E-23
2.31350E-01 3.43442E-23
2.35040E-01 3.30865E-23
2.38751E-01 3.18841E-23
2.42481E-01 3.07342E-23
2.46231E-01 2.96341E-23
2.50000E-01 2.85812E-23
2.53788E-01 2.75731E-23
2.57595E-01 2.66077E-23
2.61421E-01 2.56828E-23
2.65264E-01 2.47963E-23
2.69126E-01 2.39465E-23
2.73005E-01 2.31316E-23
2.76901E-01 2.23498E-23
2.80814E-01 2.15996E-23
2.84744E-01 2.08795E-23
2.88691E-01 2.01881E-23
2.92653E-01 1.95240E-23
2.96632E-01 1.88859E-23
3.00625E-01 1.82728E-23
3.04634E-01 1.76833E-23
3.08658E-01 1.71165E-23
3.12697E-01 1.65713E-23
3.16749E-01 1.60468E-23
3.20816E-01 1.55420E-23
3.24896E-01 1.50561E-23
3.28990E-01 1.45883E-23
3.33097E-01 1.41377E-23
3.37216E-01 1.37036E-23
3.41348E-01 1.32853E-23
3.45492E-01 1.28822E-23
3.49647E-01 1.24935E-23
3.53814E-01 1.21187E-23
3.57992E-01 1.17572E-23
3.62181E-01 1.14085E-23
3.66381E-01 1.10719E-23
3.70590E-01 1.07471E-23
3.74810E-01 1.04335E-23
3.79039E-01 1.01308E-23
3.83277E-01 9.83830E-24
3.87524E-01 9.55579E-24
3.91780E-01 9.28281E-24
3.96044E-01 9.01900E-24
4.00316E-01 8.76399E-24
4.04596E-01 8.51743E-24
4.08882E-01 8.27901E-24
4.13176E-01 8.04841E-24
4.17476E-01 7.82533E-24
4.21783E-01 7.60947E-24
4.26095E-01 7.40058E-24
4.30413E-01 7.19838E-24
4.34737E-01 7.00262E-24
4.39065E-01 6.81307E-24
4.43398E-01 6.62949E-24
4.47736E-01 6.45166E-24
4.52077E-01 6.27938E-24
4.56422E-01 6.11244E-24
4.60770E-01 5.95065E-24
4.65122E-01 5.79382E-24
4.69476E-01 5.64178E-24
4.73832E-01 5.49435E-24
4.78190E-01 5.35137E-24
4.82550E-01 5.21269E-24
4.86912E-01 5.07815E-24
4.91274E-01 4.94761E-24
4.95637E-01 4.82093E-24
5.00000E-01 4.69799E-24
5.04363E-01 4.57864E-24
5.08726E-01 4.46277E-24
5.13088E-01 4.35026E-24
5.17450E-01 4.24100E-24
5.21810E-01 4.13488E-24
5.26168E-01 4.03179E-24
5.30524E-01 3.93163E-24
5.34878E-01 3.83431E-24
5.39230E-01 3.73973E-24
5.43578E-01 3.64780E-24
5.47923E-01 3.55844E-24
5.52264E-01 3.47156E-24
5.56602E-01 3.38708E-24
5.60935E-01 3.30493E-24
5.65263E-01 3.22503E-24
5.69587E-01 3.14731E-24
5.73905E-01 3.07169E-24
5.78217E-01 2.99813E-24
5.82524E-01 2.92654E-24
5.86824E-01 2.85688E-24
5.91118E-01 2.78907E-24
5.95404E-01 2.72307E-24
5.99684E-01 2.65881E-24
6.03956E-01 2.59625E-24
6.08220E-01 2.53533E-24
6.12476E-01 2.47600E-24
6.16723E-01 2.41822E-24
6.20961E-01 2.36193E-24
6.25190E-01 2.30710E-24
6.29410E-01 2.25368E-24
6.33619E-01 2.20163E-24
6.37819E-01 2.15091E-24
6.42008E-01 2.10147E-24
6.46186E-01 2.05329E-24
6.50353E-01 2.00632E-24
6.54508E-01 1.96053E-24
6.58652E-01 1.91589E-24
6.62784E-01 1.87236E-24
6.66903E-01 1.82991E-24
6.71010E-01 1.78852E-24
6.75104E-01 1.74815E-24
6.79184E-01 1.70877E-24
6.83251E-01 1.67035E-24
6.87303E-01 1.63287E-24
6.91342E-01 1.59631E-24
6.95366E-01 1.56063E-24
6.99375E-01 1.52581E-24
7.03368E-01 1.49184E-24
7.07347E-01 1.45868E-24
7.11309E-01 1.42631E-24
7.15256E-01 1.39472E-24
7.19186E-01 1.36388E-24
7.23099E-01 1.33377E-24
7.26995E-01 1.30437E-24
7.30874E-01 1.27566E-24
7.34736E-01 1.24763E-24
7.38579E-01 1.22026E-24
7.42405E-01 1.19353E-24
7.46212E-01 1.16742E-24
7.50000E-01 1.14192E-24
7.53769E-01 1.11701E-24
7.57519E-01 1.09267E-24
7.61249E-01 1.06890E-24
7.64960E-01 1.04568E-24
7.68650E-01 1.02298E-24
7.72320E-01 1.00081E-24
7.75968E-01 9.79147E-25
7.79596E-01 9.57976E-25
7.83203E-01 9.37287E-25
7.86788E-01 9.17068E-25
7.90351E-01 8.97308E-25
7.93893E-01 8.77994E-25
7.97411E-01 8.59117E-25
8.00908E-01 8.40666E-25
8.04381E-01 8.22629E-25
8.07831E-01 8.04998E-25
8.11257E-01 7.87763E-25
8.14660E-01 7.70914E-25
8.18039E-01 7.54442E-25
8.21394E-01 7.38338E-25
8.24724E-01 7.22593E-25
8.28030E-01 7.07200E-25
8.31310E-01 6.92149E-25
8.34565E-01 6.77433E-25
8.37795E-01 6.63045E-25
8.40999E-01 6.48976E-25
8.44177E-01 6.35219E-25
8.47329E-01 6.21768E-25
8.50455E-01 6.08616E-25
8.53553E-01 5.95755E-25
8.56625E-01 5.83179E-25
8.59670E-01 5.70883E-25
8.62687E-01 5.58859E-25
8.65677E-01 5.47101E-25
8.68639E-01 5.35605E-25
8.71572E-01 5.24364E-25
8.74478E-01 5.13373E-25
8.77355E-01 5.02627E-25
8.80203E-01 4.92119E-25
8.83022E-01 4.81846E-25
8.85812E-01 4.71802E-25
8.88573E-01 4.61983E-25
8.91304E-01 4.52384E-25
8.94005E-01 4.43000E-25
8.96677E-01 4.33826E-25
8.99318E-01 4.24860E-25
9.01928E-01 4.16096E-25
9.04508E-01 4.07530E-25
9.07058E-01 3.99159E-25
9.09576E-01 3.90979E-25
9.12063E-01 3.82986E-25
9.14519E-01 3.75175E-25
9.16943E-01 3.67545E-25
9.19335E-01 3.60091E-25
9.21696E-01 3.52810E-25
9.24024E-01 3.45699E-25
9.26320E-01 3.38755E-25
9.28584E-01 3.31974E-25
9.30815E-01 3.25353E-25
9.33013E-01 3.18891E-25
9.35178E-01 3.12583E-25
9.37310E-01 3.06427E-25
9.39409E-01 3.00421E-25
9.41474E-01 2.94562E-25
9.43505E-01 2.88847E-25
9.45503E-01 2.83274E-25
9.47467E-01 2.77841E-25
9.49397E-01 2.72544E-25
9.51293E-01 2.67383E-25
9.53154E-01 2.62355E-25
9.54981E-01 2.57457E-25
9.56773E-01 2.52688E-25
9.58530E-01 2.48046E-25
9.60252E-01 2.43528E-25
9.61940E-01 2.39133E-25
9.63592E-01 2.34860E-25
9.65209E-01 2.30705E-25
9.66790E-01 2.26669E-25
9.68336E-01 2.22748E-25
9.69846E-01 2.18942E-25
9.71321E-01 2.15248E-25
9.72759E-01 2.11666E-25
9.74162E-01 2.08193E-25
9.75528E-01 2.04829E-25
9.76858E-01 2.01572E-25
9.78152E-01 1.98421E-25
9.79410E-01 1.95375E-25
9.80631E-01 1.92432E-25
9.81815E-01 1.89591E-25
9.82963E-01 1.86851E-25
9.84074E-01 1.84211E-25
9.85148E-01 1.81669E-25
9.86185E-01 1.79226E-25
9.87185E-01 1.76880E-25
9.88148E-01 1.74630E-25
9.89074E-01 1.72474E-25
9.89962E-01 1.70413E-25
9.90814E-01 1.68446E-25
9.91627E-01 1.66571E-25
9.92404E-01 1.64789E-25
9.93143E-01 1.63097E-25
9.93844E-01 1.61496E-25
9.94508E-01 1.59985E-25
9.95134E-01 1.58564E-25
9.95722E-01 1.57231E-25
9.96273E-01 1.55987E-25
9.96786E-01 1.54831E-25
9.97261E-01 1.53762E-25
9.97698E-01 1.52780E-25
9.98097E-01 1.51885E-25
9.98459E-01 1.51076E-25
9.98782E-01 1.50353E-25
9.99067E-01 1.49716E-25
9.99315E-01 1.49164E-25
9.99524E-01 1.48697E-25
9.99695E-01 1.48316E-25
9.99829E-01 1.48019E-25
9.99924E-01 1.47808E-25
9.99981E-01 1.47681E-25
1.00000E+00 1.47638E-25
