 #
 # Subroutine ELSEPA. Elastic scattering of electrons and positrons
 #                    by neutral atoms and positive ions
 #
 # Projectile: electron
 # Kinetic energy = 2.00000E+07 eV = 7.34987E+05 a.u.
 #
 # WARNING: High-energy factorization with free-atom DF screening.
 #          Absorption, polarization and exchange corrections are
 #          switched off.
 #          Phase shifts are calculated for the bare nucleus.
 #          Scattering amplitudes are not evaluated.
 #
 # Element: Br,  Z =  35,  atomic weight = 7.99040E+01 g/mol
 #
 # Nuclear model: Fermi distribution
 #                Average radius = 4.60865E-13 cm
 #                Skin thickness = 5.46000E-14 cm
 #
 # Number of electrons = 35
 #
 # Total elastic cross section = 2.71617E-18 cm**2 = 9.69962E-02 a0**2
 # 1st transport cross section = 5.45337E-24 cm**2 = 1.94743E-07 a0**2
 # 2nd transport cross section = 1.56588E-23 cm**2 = 5.59186E-07 a0**2
 #
 #
 # Differential cross section:                       MU=(1-COS(THETA))/2
 #
 #  THETA        MU          DCS          DCS        Sherman      error
 #  (deg)                 (cm**2/sr)   (a0**2/sr)    function
 #----------------------------------------------------------------------
0.00000E+00 7.90880E-12
7.61557E-13 7.90826E-12
1.18994E-12 7.90797E-12
1.71346E-12 7.90761E-12
2.33225E-12 7.90718E-12
3.04617E-12 7.90669E-12
3.85530E-12 7.90614E-12
4.75964E-12 7.90552E-12
5.75917E-12 7.90483E-12
6.85391E-12 7.90408E-12
8.04379E-12 7.90327E-12
9.32893E-12 7.90239E-12
1.07092E-11 7.90145E-12
1.21847E-11 7.90044E-12
1.37554E-11 7.89936E-12
1.54213E-11 7.89823E-12
1.71823E-11 7.89702E-12
1.90386E-11 7.89576E-12
2.09900E-11 7.89443E-12
2.30367E-11 7.89303E-12
2.51785E-11 7.89157E-12
2.74156E-11 7.89005E-12
2.97478E-11 7.88846E-12
3.21752E-11 7.88680E-12
3.46979E-11 7.88509E-12
3.73157E-11 7.88330E-12
4.00286E-11 7.88146E-12
4.28368E-11 7.87955E-12
4.57402E-11 7.87758E-12
4.87388E-11 7.87554E-12
5.18325E-11 7.87344E-12
5.50215E-11 7.87127E-12
5.83057E-11 7.86905E-12
6.16850E-11 7.86675E-12
6.51595E-11 7.86440E-12
6.87293E-11 7.86198E-12
7.23943E-11 7.85950E-12
7.61544E-11 7.85695E-12
1.18991E-10 7.82805E-12
1.71347E-10 7.79294E-12
2.33223E-10 7.75174E-12
3.04617E-10 7.70462E-12
3.85531E-10 7.65171E-12
4.75965E-10 7.59321E-12
5.75917E-10 7.52894E-12
6.85389E-10 7.45922E-12
8.04380E-10 7.38569E-12
9.32891E-10 7.30651E-12
1.07092E-09 7.22291E-12
1.21847E-09 7.13675E-12
1.37554E-09 7.04392E-12
1.54213E-09 6.94907E-12
1.71823E-09 6.85136E-12
1.90386E-09 6.74849E-12
2.09900E-09 6.64512E-12
2.30367E-09 6.53772E-12
2.51785E-09 6.42788E-12
2.74156E-09 6.31866E-12
2.97478E-09 6.20378E-12
3.21752E-09 6.08962E-12
3.46978E-09 5.97522E-12
3.73156E-09 5.85694E-12
4.00286E-09 5.74085E-12
4.28368E-09 5.62276E-12
4.57402E-09 5.50398E-12
4.87388E-09 5.38806E-12
5.18326E-09 5.26829E-12
5.50215E-09 5.15093E-12
5.83057E-09 5.03532E-12
6.16850E-09 4.91729E-12
6.51596E-09 4.80293E-12
6.87293E-09 4.68838E-12
7.23942E-09 4.57435E-12
7.61544E-09 4.46418E-12
1.18991E-08 3.43362E-12
1.71347E-08 2.60060E-12
2.33223E-08 1.96348E-12
3.04617E-08 1.49062E-12
3.85531E-08 1.14463E-12
4.75965E-08 8.92167E-13
5.75917E-08 7.04675E-13
6.85389E-08 5.64913E-13
8.04380E-08 4.63377E-13
9.32891E-08 3.83588E-13
1.07092E-07 3.21166E-13
1.21847E-07 2.73323E-13
1.37554E-07 2.32502E-13
1.54213E-07 2.00243E-13
1.71823E-07 1.73824E-13
1.90386E-07 1.50835E-13
2.09900E-07 1.32207E-13
2.30367E-07 1.15973E-13
2.51785E-07 1.02004E-13
2.74156E-07 9.04201E-14
2.97478E-07 7.98400E-14
3.21752E-07 7.08968E-14
3.46978E-07 6.31991E-14
3.73156E-07 5.62401E-14
4.00286E-07 5.03166E-14
4.28368E-07 4.50505E-14
4.57402E-07 4.03895E-14
4.87388E-07 3.63700E-14
5.18325E-07 3.27205E-14
5.50215E-07 2.95316E-14
5.83057E-07 2.67275E-14
6.16850E-07 2.41939E-14
6.51596E-07 2.19712E-14
6.87293E-07 1.99828E-14
7.23942E-07 1.82023E-14
7.61543E-07 1.66259E-14
1.18991E-06 7.35132E-15
1.71347E-06 3.76273E-15
2.33223E-06 2.14144E-15
3.04617E-06 1.31248E-15
3.85531E-06 8.48983E-16
4.75964E-06 5.72515E-16
5.75916E-06 3.98891E-16
6.85388E-06 2.86100E-16
8.04378E-06 2.10203E-16
9.32888E-06 1.57721E-16
1.07092E-05 1.20572E-16
1.21846E-05 9.37023E-17
1.37553E-05 7.39101E-17
1.54212E-05 5.90788E-17
1.71822E-05 4.77913E-17
1.90385E-05 3.90757E-17
2.09899E-05 3.22722E-17
2.30365E-05 2.68894E-17
2.51783E-05 2.25846E-17
2.74153E-05 1.91085E-17
2.97475E-05 1.62771E-17
3.21749E-05 1.39523E-17
3.46974E-05 1.20293E-17
3.73152E-05 1.04276E-17
4.00281E-05 9.08458E-18
4.28362E-05 7.95150E-18
4.57395E-05 6.98985E-18
4.87380E-05 6.16926E-18
5.18317E-05 5.46559E-18
5.50205E-05 4.85939E-18
5.83045E-05 4.33495E-18
6.16838E-05 3.87941E-18
6.51582E-05 3.48222E-18
6.87277E-05 3.13464E-18
7.23925E-05 2.82940E-18
7.61524E-05 2.56050E-18
9.21439E-05 1.75725E-18
1.09658E-04 1.24554E-18
1.28695E-04 9.07224E-19
1.49255E-04 6.76290E-19
1.71338E-04 5.14373E-19
1.94942E-04 3.98120E-19
2.20070E-04 3.12928E-19
2.46720E-04 2.49354E-19
2.74892E-04 2.01134E-19
3.04586E-04 1.64031E-19
3.35803E-04 1.35104E-19
3.68542E-04 1.12285E-19
4.02802E-04 9.40886E-20
4.38585E-04 7.94357E-20
4.75889E-04 6.75299E-20
5.14715E-04 5.77750E-20
5.55063E-04 4.97214E-20
5.96931E-04 4.30249E-20
6.40321E-04 3.74199E-20
6.85233E-04 3.26999E-20
7.31665E-04 2.87020E-20
7.79618E-04 2.52978E-20
8.29092E-04 2.23843E-20
8.80086E-04 1.98791E-20
9.32601E-04 1.77153E-20
9.86636E-04 1.58386E-20
1.04219E-03 1.42043E-20
1.09927E-03 1.27759E-20
1.15786E-03 1.15230E-20
1.21797E-03 1.04203E-20
1.27961E-03 9.44662E-21
1.34276E-03 8.58432E-21
1.40743E-03 7.81841E-21
1.47362E-03 7.13625E-21
1.54133E-03 6.52706E-21
1.61056E-03 5.98166E-21
1.68131E-03 5.49220E-21
1.75357E-03 5.05192E-21
1.82735E-03 4.65500E-21
1.90265E-03 4.29640E-21
1.97947E-03 3.97178E-21
2.05780E-03 3.67733E-21
2.13765E-03 3.40974E-21
2.21902E-03 3.16613E-21
2.30190E-03 2.94395E-21
2.38630E-03 2.74098E-21
2.47222E-03 2.55526E-21
2.55965E-03 2.38506E-21
2.64859E-03 2.22884E-21
2.73905E-03 2.08524E-21
2.83103E-03 1.95306E-21
2.92452E-03 1.83122E-21
3.01952E-03 1.71877E-21
3.11604E-03 1.61486E-21
3.21407E-03 1.51870E-21
3.31362E-03 1.42962E-21
3.41468E-03 1.34700E-21
3.51725E-03 1.27029E-21
3.62133E-03 1.19898E-21
3.72692E-03 1.13262E-21
3.83403E-03 1.07081E-21
3.94265E-03 1.01317E-21
4.05278E-03 9.59379E-22
4.16442E-03 9.09121E-22
4.27757E-03 8.62125E-22
4.39223E-03 8.18139E-22
4.50840E-03 7.76934E-22
4.62608E-03 7.38301E-22
4.74527E-03 7.02050E-22
4.86597E-03 6.68006E-22
4.98817E-03 6.36010E-22
5.11188E-03 6.05915E-22
5.23711E-03 5.77587E-22
5.36383E-03 5.50902E-22
5.49207E-03 5.25748E-22
5.62181E-03 5.02019E-22
5.75306E-03 4.79620E-22
5.88581E-03 4.58462E-22
6.02007E-03 4.38463E-22
6.15583E-03 4.19547E-22
6.29310E-03 4.01647E-22
6.43187E-03 3.84694E-22
6.57214E-03 3.68631E-22
6.71392E-03 3.53402E-22
6.85720E-03 3.38954E-22
7.00198E-03 3.25242E-22
7.14827E-03 3.12219E-22
7.29605E-03 2.99844E-22
7.44534E-03 2.88080E-22
7.59612E-03 2.76889E-22
7.97965E-03 2.51212E-22
8.37255E-03 2.28457E-22
8.77480E-03 2.08233E-22
9.18641E-03 1.90209E-22
9.60736E-03 1.74103E-22
1.00376E-02 1.59674E-22
1.04773E-02 1.46717E-22
1.09262E-02 1.35055E-22
1.13844E-02 1.24534E-22
1.18520E-02 1.15023E-22
1.23288E-02 1.06408E-22
1.28150E-02 9.85888E-23
1.33104E-02 9.14783E-23
1.38150E-02 8.50009E-23
1.43290E-02 7.90898E-23
1.48521E-02 7.36863E-23
1.53845E-02 6.87389E-23
1.59262E-02 6.42022E-23
1.64770E-02 6.00355E-23
1.70371E-02 5.62032E-23
1.76063E-02 5.26736E-23
1.81848E-02 4.94182E-23
1.87724E-02 4.64116E-23
1.93692E-02 4.36316E-23
1.99751E-02 4.10578E-23
2.05901E-02 3.86718E-23
2.12143E-02 3.64576E-23
2.18476E-02 3.44006E-23
2.24900E-02 3.24873E-23
2.31415E-02 3.07058E-23
2.38021E-02 2.90456E-23
2.44717E-02 2.74964E-23
2.51504E-02 2.60497E-23
2.58382E-02 2.46975E-23
2.65349E-02 2.34322E-23
2.72407E-02 2.22474E-23
2.79555E-02 2.11369E-23
2.86793E-02 2.00951E-23
2.94120E-02 1.91170E-23
3.01537E-02 1.81980E-23
3.09043E-02 1.73338E-23
3.16639E-02 1.65205E-23
3.24324E-02 1.57546E-23
3.32098E-02 1.50327E-23
3.39961E-02 1.43518E-23
3.47912E-02 1.37093E-23
3.55952E-02 1.31024E-23
3.64081E-02 1.25289E-23
3.72297E-02 1.19865E-23
3.80602E-02 1.14733E-23
3.88995E-02 1.09874E-23
3.97476E-02 1.05270E-23
4.06044E-02 1.00905E-23
4.14700E-02 9.67650E-24
4.23443E-02 9.28358E-24
4.32273E-02 8.91046E-24
4.41190E-02 8.55595E-24
4.50194E-02 8.21894E-24
4.59284E-02 7.89841E-24
4.68461E-02 7.59339E-24
4.87074E-02 7.02635E-24
5.06030E-02 6.51136E-24
5.25328E-02 6.04278E-24
5.44967E-02 5.61564E-24
5.64946E-02 5.22562E-24
5.85262E-02 4.86890E-24
6.05914E-02 4.54211E-24
6.26901E-02 4.24228E-24
6.48222E-02 3.96677E-24
6.69873E-02 3.71324E-24
6.91854E-02 3.47963E-24
7.14163E-02 3.26406E-24
7.36799E-02 3.06490E-24
7.59760E-02 2.88066E-24
7.83043E-02 2.71002E-24
8.06647E-02 2.55178E-24
8.30571E-02 2.40488E-24
8.54812E-02 2.26835E-24
8.79369E-02 2.14133E-24
9.04240E-02 2.02302E-24
9.29422E-02 1.91273E-24
9.54915E-02 1.80980E-24
9.80716E-02 1.71365E-24
1.00682E-01 1.62376E-24
1.03323E-01 1.53964E-24
1.05995E-01 1.46084E-24
1.08696E-01 1.38698E-24
1.11427E-01 1.31768E-24
1.14188E-01 1.25261E-24
1.16978E-01 1.19147E-24
1.19797E-01 1.13396E-24
1.22645E-01 1.07984E-24
1.25522E-01 1.02887E-24
1.28428E-01 9.80833E-25
1.31361E-01 9.35526E-25
1.34323E-01 8.92765E-25
1.37313E-01 8.52382E-25
1.40330E-01 8.14220E-25
1.43375E-01 7.78133E-25
1.46447E-01 7.43989E-25
1.49545E-01 7.11663E-25
1.52671E-01 6.81040E-25
1.55823E-01 6.52014E-25
1.59001E-01 6.24486E-25
1.62205E-01 5.98365E-25
1.65435E-01 5.73566E-25
1.68690E-01 5.50009E-25
1.71970E-01 5.27620E-25
1.75276E-01 5.06332E-25
1.78606E-01 4.86079E-25
1.81961E-01 4.66803E-25
1.85340E-01 4.48448E-25
1.88743E-01 4.30961E-25
1.92169E-01 4.14294E-25
1.95619E-01 3.98401E-25
1.99092E-01 3.83241E-25
2.02589E-01 3.68773E-25
2.06107E-01 3.54959E-25
2.09649E-01 3.41765E-25
2.13212E-01 3.29158E-25
2.16797E-01 3.17107E-25
2.20404E-01 3.05584E-25
2.24032E-01 2.94560E-25
2.27680E-01 2.84010E-25
2.31350E-01 2.73911E-25
2.35040E-01 2.64239E-25
2.38751E-01 2.54974E-25
2.42481E-01 2.46094E-25
2.46231E-01 2.37582E-25
2.50000E-01 2.29419E-25
2.53788E-01 2.21588E-25
2.57595E-01 2.14073E-25
2.61421E-01 2.06861E-25
2.65264E-01 1.99935E-25
2.69126E-01 1.93283E-25
2.73005E-01 1.86892E-25
2.76901E-01 1.80749E-25
2.80814E-01 1.74845E-25
2.84744E-01 1.69167E-25
2.88691E-01 1.63706E-25
2.92653E-01 1.58451E-25
2.96632E-01 1.53394E-25
3.00625E-01 1.48526E-25
3.04634E-01 1.43839E-25
3.08658E-01 1.39325E-25
3.12697E-01 1.34975E-25
3.16749E-01 1.30785E-25
3.20816E-01 1.26745E-25
3.24896E-01 1.22851E-25
3.28990E-01 1.19095E-25
3.33097E-01 1.15473E-25
3.37216E-01 1.11978E-25
3.41348E-01 1.08606E-25
3.45492E-01 1.05351E-25
3.49647E-01 1.02209E-25
3.53814E-01 9.91746E-26
3.57992E-01 9.62441E-26
3.62181E-01 9.34132E-26
3.66381E-01 9.06780E-26
3.70590E-01 8.80346E-26
3.74810E-01 8.54795E-26
3.79039E-01 8.30092E-26
3.83277E-01 8.06205E-26
3.87524E-01 7.83103E-26
3.91780E-01 7.60754E-26
3.96044E-01 7.39132E-26
4.00316E-01 7.18207E-26
4.04596E-01 6.97955E-26
4.08882E-01 6.78350E-26
4.13176E-01 6.59368E-26
4.17476E-01 6.40986E-26
4.21783E-01 6.23182E-26
4.26095E-01 6.05935E-26
4.30413E-01 5.89225E-26
4.34737E-01 5.73033E-26
4.39065E-01 5.57339E-26
4.43398E-01 5.42127E-26
4.47736E-01 5.27379E-26
4.52077E-01 5.13078E-26
4.56422E-01 4.99210E-26
4.60770E-01 4.85758E-26
4.65122E-01 4.72709E-26
4.69476E-01 4.60049E-26
4.73832E-01 4.47764E-26
4.78190E-01 4.35841E-26
4.82550E-01 4.24269E-26
4.86912E-01 4.13035E-26
4.91274E-01 4.02128E-26
4.95637E-01 3.91537E-26
5.00000E-01 3.81251E-26
5.04363E-01 3.71261E-26
5.08726E-01 3.61556E-26
5.13088E-01 3.52128E-26
5.17450E-01 3.42967E-26
5.21810E-01 3.34064E-26
5.26168E-01 3.25412E-26
5.30524E-01 3.17002E-26
5.34878E-01 3.08826E-26
5.39230E-01 3.00877E-26
5.43578E-01 2.93148E-26
5.47923E-01 2.85632E-26
5.52264E-01 2.78322E-26
5.56602E-01 2.71212E-26
5.60935E-01 2.64295E-26
5.65263E-01 2.57566E-26
5.69587E-01 2.51018E-26
5.73905E-01 2.44646E-26
5.78217E-01 2.38446E-26
5.82524E-01 2.32410E-26
5.86824E-01 2.26536E-26
5.91118E-01 2.20817E-26
5.95404E-01 2.15249E-26
5.99684E-01 2.09827E-26
6.03956E-01 2.04548E-26
6.08220E-01 1.99406E-26
6.12476E-01 1.94398E-26
6.16723E-01 1.89521E-26
6.20961E-01 1.84769E-26
6.25190E-01 1.80140E-26
6.29410E-01 1.75630E-26
6.33619E-01 1.71235E-26
6.37819E-01 1.66952E-26
6.42008E-01 1.62778E-26
6.46186E-01 1.58710E-26
6.50353E-01 1.54745E-26
6.54508E-01 1.50880E-26
6.58652E-01 1.47112E-26
6.62784E-01 1.43438E-26
6.66903E-01 1.39856E-26
6.71010E-01 1.36363E-26
6.75104E-01 1.32956E-26
6.79184E-01 1.29634E-26
6.83251E-01 1.26394E-26
6.87303E-01 1.23234E-26
6.91342E-01 1.20151E-26
6.95366E-01 1.17143E-26
6.99375E-01 1.14209E-26
7.03368E-01 1.11347E-26
7.07347E-01 1.08554E-26
7.11309E-01 1.05828E-26
7.15256E-01 1.03168E-26
7.19186E-01 1.00573E-26
7.23099E-01 9.80393E-27
7.26995E-01 9.55667E-27
7.30874E-01 9.31532E-27
7.34736E-01 9.07974E-27
7.38579E-01 8.84976E-27
7.42405E-01 8.62524E-27
7.46212E-01 8.40604E-27
7.50000E-01 8.19203E-27
7.53769E-01 7.98307E-27
7.57519E-01 7.77903E-27
7.61249E-01 7.57978E-27
7.64960E-01 7.38521E-27
7.68650E-01 7.19519E-27
7.72320E-01 7.00962E-27
7.75968E-01 6.82837E-27
7.79596E-01 6.65134E-27
7.83203E-01 6.47844E-27
7.86788E-01 6.30954E-27
7.90351E-01 6.14456E-27
7.93893E-01 5.98340E-27
7.97411E-01 5.82596E-27
8.00908E-01 5.67216E-27
8.04381E-01 5.52190E-27
8.07831E-01 5.37510E-27
8.11257E-01 5.23168E-27
8.14660E-01 5.09155E-27
8.18039E-01 4.95464E-27
8.21394E-01 4.82086E-27
8.24724E-01 4.69015E-27
8.28030E-01 4.56243E-27
8.31310E-01 4.43764E-27
8.34565E-01 4.31570E-27
8.37795E-01 4.19654E-27
8.40999E-01 4.08010E-27
8.44177E-01 3.96633E-27
8.47329E-01 3.85515E-27
8.50455E-01 3.74651E-27
8.53553E-01 3.64035E-27
8.56625E-01 3.53661E-27
8.59670E-01 3.43524E-27
8.62687E-01 3.33618E-27
8.65677E-01 3.23939E-27
8.68639E-01 3.14481E-27
8.71572E-01 3.05239E-27
8.74478E-01 2.96209E-27
8.77355E-01 2.87386E-27
8.80203E-01 2.78766E-27
8.83022E-01 2.70343E-27
8.85812E-01 2.62114E-27
8.88573E-01 2.54074E-27
8.91304E-01 2.46220E-27
8.94005E-01 2.38548E-27
8.96677E-01 2.31053E-27
8.99318E-01 2.23732E-27
9.01928E-01 2.16582E-27
9.04508E-01 2.09598E-27
9.07058E-01 2.02778E-27
9.09576E-01 1.96117E-27
9.12063E-01 1.89614E-27
9.14519E-01 1.83263E-27
9.16943E-01 1.77064E-27
9.19335E-01 1.71012E-27
9.21696E-01 1.65104E-27
9.24024E-01 1.59338E-27
9.26320E-01 1.53711E-27
9.28584E-01 1.48221E-27
9.30815E-01 1.42864E-27
9.33013E-01 1.37638E-27
9.35178E-01 1.32540E-27
9.37310E-01 1.27569E-27
9.39409E-01 1.22722E-27
9.41474E-01 1.17997E-27
9.43505E-01 1.13390E-27
9.45503E-01 1.08902E-27
9.47467E-01 1.04528E-27
9.49397E-01 1.00268E-27
9.51293E-01 9.61182E-28
9.53154E-01 9.20782E-28
9.54981E-01 8.81457E-28
9.56773E-01 8.43187E-28
9.58530E-01 8.05957E-28
9.60252E-01 7.69748E-28
9.61940E-01 7.34545E-28
9.63592E-01 7.00331E-28
9.65209E-01 6.67091E-28
9.66790E-01 6.34810E-28
9.68336E-01 6.03474E-28
9.69846E-01 5.73068E-28
9.71321E-01 5.43579E-28
9.72759E-01 5.14993E-28
9.74162E-01 4.87298E-28
9.75528E-01 4.60481E-28
9.76858E-01 4.34531E-28
9.78152E-01 4.09436E-28
9.79410E-01 3.85185E-28
9.80631E-01 3.61767E-28
9.81815E-01 3.39172E-28
9.82963E-01 3.17389E-28
9.84074E-01 2.96411E-28
9.85148E-01 2.76226E-28
9.86185E-01 2.56826E-28
9.87185E-01 2.38204E-28
9.88148E-01 2.20350E-28
9.89074E-01 2.03256E-28
9.89962E-01 1.86917E-28
9.90814E-01 1.71323E-28
9.91627E-01 1.56469E-28
9.92404E-01 1.42348E-28
9.93143E-01 1.28954E-28
9.93844E-01 1.16282E-28
9.94508E-01 1.04325E-28
9.95134E-01 9.30781E-29
9.95722E-01 8.25372E-29
9.96273E-01 7.26975E-29
9.96786E-01 6.35545E-29
9.97261E-01 5.51045E-29
9.97698E-01 4.73438E-29
9.98097E-01 4.02691E-29
9.98459E-01 3.38773E-29
9.98782E-01 2.81656E-29
9.99067E-01 2.31316E-29
9.99315E-01 1.87732E-29
9.99524E-01 1.50885E-29
9.99695E-01 1.20759E-29
9.99829E-01 9.73406E-30
9.99924E-01 8.06205E-30
9.99981E-01 7.05913E-30
1.00000E+00 6.72487E-30
