 #
 # Subroutine ELSEPA. Elastic scattering of electrons and positrons
 #                    by neutral atoms and positive ions
 #
 # Projectile: electron
 # Kinetic energy = 5.00000E+06 eV = 1.83747E+05 a.u.
 #
 # WARNING: High-energy factorization with free-atom DF screening.
 #          Absorption, polarization and exchange corrections are
 #          switched off.
 #          Phase shifts are calculated for the bare nucleus.
 #          Scattering amplitudes are not evaluated.
 #
 # Element: Br,  Z =  35,  atomic weight = 7.99040E+01 g/mol
 #
 # Nuclear model: Fermi distribution
 #                Average radius = 4.60865E-13 cm
 #                Skin thickness = 5.46000E-14 cm
 #
 # Number of electrons = 35
 #
 # Total elastic cross section = 2.74542E-18 cm**2 = 9.80406E-02 a0**2
 # 1st transport cross section = 6.40142E-23 cm**2 = 2.28599E-06 a0**2
 # 2nd transport cross section = 1.80696E-22 cm**2 = 6.45276E-06 a0**2
 #
 #
 # Differential cross section:                       MU=(1-COS(THETA))/2
 #
 #  THETA        MU          DCS          DCS        Sherman      error
 #  (deg)                 (cm**2/sr)   (a0**2/sr)    function
 #----------------------------------------------------------------------
0.00000E+00 5.70949E-13
7.61557E-13 5.70946E-13
1.18994E-12 5.70945E-13
1.71346E-12 5.70943E-13
2.33225E-12 5.70941E-13
3.04617E-12 5.70938E-13
3.85530E-12 5.70935E-13
4.75964E-12 5.70932E-13
5.75917E-12 5.70929E-13
6.85391E-12 5.70925E-13
8.04379E-12 5.70921E-13
9.32893E-12 5.70916E-13
1.07092E-11 5.70911E-13
1.21847E-11 5.70906E-13
1.37554E-11 5.70901E-13
1.54213E-11 5.70895E-13
1.71823E-11 5.70888E-13
1.90386E-11 5.70882E-13
2.09900E-11 5.70875E-13
2.30367E-11 5.70868E-13
2.51785E-11 5.70860E-13
2.74156E-11 5.70852E-13
2.97478E-11 5.70844E-13
3.21752E-11 5.70836E-13
3.46979E-11 5.70827E-13
3.73157E-11 5.70817E-13
4.00286E-11 5.70808E-13
4.28368E-11 5.70798E-13
4.57402E-11 5.70788E-13
4.87388E-11 5.70777E-13
5.18325E-11 5.70766E-13
5.50215E-11 5.70755E-13
5.83057E-11 5.70743E-13
6.16850E-11 5.70731E-13
6.51595E-11 5.70719E-13
6.87293E-11 5.70707E-13
7.23943E-11 5.70694E-13
7.61544E-11 5.70680E-13
1.18991E-10 5.70529E-13
1.71347E-10 5.70345E-13
2.33223E-10 5.70127E-13
3.04617E-10 5.69876E-13
3.85531E-10 5.69591E-13
4.75965E-10 5.69273E-13
5.75917E-10 5.68922E-13
6.85389E-10 5.68538E-13
8.04380E-10 5.68121E-13
9.32891E-10 5.67672E-13
1.07092E-09 5.67189E-13
1.21847E-09 5.66674E-13
1.37554E-09 5.66126E-13
1.54213E-09 5.65546E-13
1.71823E-09 5.64934E-13
1.90386E-09 5.64289E-13
2.09900E-09 5.63613E-13
2.30367E-09 5.62905E-13
2.51785E-09 5.62166E-13
2.74156E-09 5.61395E-13
2.97478E-09 5.60593E-13
3.21752E-09 5.59760E-13
3.46978E-09 5.58897E-13
3.73156E-09 5.58003E-13
4.00286E-09 5.57078E-13
4.28368E-09 5.56124E-13
4.57402E-09 5.55139E-13
4.87388E-09 5.54125E-13
5.18326E-09 5.53082E-13
5.50215E-09 5.52010E-13
5.83057E-09 5.50909E-13
6.16850E-09 5.49779E-13
6.51596E-09 5.48621E-13
6.87293E-09 5.47435E-13
7.23942E-09 5.46221E-13
7.61544E-09 5.44980E-13
1.18991E-08 5.31127E-13
1.71347E-08 5.14888E-13
2.33223E-08 4.96621E-13
3.04617E-08 4.76706E-13
3.85531E-08 4.55529E-13
4.75965E-08 4.33467E-13
5.75917E-08 4.10877E-13
6.85389E-08 3.88086E-13
8.04380E-08 3.65385E-13
9.32891E-08 3.43027E-13
1.07092E-07 3.21222E-13
1.21847E-07 3.00139E-13
1.37554E-07 2.79911E-13
1.54213E-07 2.60631E-13
1.71823E-07 2.42365E-13
1.90386E-07 2.25148E-13
2.09900E-07 2.08993E-13
2.30367E-07 1.93895E-13
2.51785E-07 1.79832E-13
2.74156E-07 1.66772E-13
2.97478E-07 1.54673E-13
3.21752E-07 1.43487E-13
3.46978E-07 1.33164E-13
3.73156E-07 1.23649E-13
4.00286E-07 1.14889E-13
4.28368E-07 1.06831E-13
4.57402E-07 9.94230E-14
4.87388E-07 9.26142E-14
5.18325E-07 8.63572E-14
5.50215E-07 8.06072E-14
5.83057E-07 7.53219E-14
6.16850E-07 7.04621E-14
6.51596E-07 6.59913E-14
6.87293E-07 6.18760E-14
7.23942E-07 5.80851E-14
7.61543E-07 5.45904E-14
1.18991E-06 3.12088E-14
1.71347E-06 1.95730E-14
2.33223E-06 1.30666E-14
3.04617E-06 9.07523E-15
3.85531E-06 6.46921E-15
4.75964E-06 4.70013E-15
5.75916E-06 3.46938E-15
6.85388E-06 2.59850E-15
8.04378E-06 1.97387E-15
9.32888E-06 1.52033E-15
1.07092E-05 1.18703E-15
1.21846E-05 9.39083E-16
1.37553E-05 7.52339E-16
1.54212E-05 6.09933E-16
1.71822E-05 4.99992E-16
1.90385E-05 4.14088E-16
2.09899E-05 3.46182E-16
2.30365E-05 2.91906E-16
2.51783E-05 2.48071E-16
2.74153E-05 2.12319E-16
2.97475E-05 1.82896E-16
3.21749E-05 1.58477E-16
3.46974E-05 1.38053E-16
3.73152E-05 1.20849E-16
4.00281E-05 1.06263E-16
4.28362E-05 9.38225E-17
4.57395E-05 8.31535E-17
4.87380E-05 7.39575E-17
5.18317E-05 6.59945E-17
5.50205E-05 5.90695E-17
5.83045E-05 5.30233E-17
6.16838E-05 4.77250E-17
6.51582E-05 4.30662E-17
6.87277E-05 3.89565E-17
7.23925E-05 3.53203E-17
7.61524E-05 3.20941E-17
9.21439E-05 2.23237E-17
1.09658E-04 1.59781E-17
1.28695E-04 1.17224E-17
1.49255E-04 8.78816E-18
1.71338E-04 6.71512E-18
1.94942E-04 5.21844E-18
2.20070E-04 4.11672E-18
2.46720E-04 3.29146E-18
2.74892E-04 2.66350E-18
3.04586E-04 2.17882E-18
3.35803E-04 1.79989E-18
3.68542E-04 1.50013E-18
4.02802E-04 1.26045E-18
4.38585E-04 1.06694E-18
4.75889E-04 9.09293E-19
5.14715E-04 7.79799E-19
5.55063E-04 6.72618E-19
5.96931E-04 5.83281E-19
6.40321E-04 5.08330E-19
6.85233E-04 4.45065E-19
7.31665E-04 3.91362E-19
7.79618E-04 3.45535E-19
8.29092E-04 3.06234E-19
8.80086E-04 2.72374E-19
9.32601E-04 2.43073E-19
9.86636E-04 2.17614E-19
1.04219E-03 1.95407E-19
1.09927E-03 1.75966E-19
1.15786E-03 1.58886E-19
1.21797E-03 1.43831E-19
1.27961E-03 1.30520E-19
1.34276E-03 1.18716E-19
1.40743E-03 1.08218E-19
1.47362E-03 9.88567E-20
1.54133E-03 9.04875E-20
1.61056E-03 8.29866E-20
1.68131E-03 7.62482E-20
1.75357E-03 7.01810E-20
1.82735E-03 6.47064E-20
1.90265E-03 5.97562E-20
1.97947E-03 5.52712E-20
2.05780E-03 5.11999E-20
2.13765E-03 4.74973E-20
2.21902E-03 4.41241E-20
2.30190E-03 4.10457E-20
2.38630E-03 3.82316E-20
2.47222E-03 3.56552E-20
2.55965E-03 3.32926E-20
2.64859E-03 3.11230E-20
2.73905E-03 2.91276E-20
2.83103E-03 2.72901E-20
2.92452E-03 2.55955E-20
3.01952E-03 2.40308E-20
3.11604E-03 2.25842E-20
3.21407E-03 2.12451E-20
3.31362E-03 2.00041E-20
3.41468E-03 1.88527E-20
3.51725E-03 1.77832E-20
3.62133E-03 1.67887E-20
3.72692E-03 1.58629E-20
3.83403E-03 1.50004E-20
3.94265E-03 1.41958E-20
4.05278E-03 1.34447E-20
4.16442E-03 1.27428E-20
4.27757E-03 1.20862E-20
4.39223E-03 1.14716E-20
4.50840E-03 1.08956E-20
4.62608E-03 1.03555E-20
4.74527E-03 9.84863E-21
4.86597E-03 9.37248E-21
4.98817E-03 8.92488E-21
5.11188E-03 8.50380E-21
5.23711E-03 8.10736E-21
5.36383E-03 7.73386E-21
5.49207E-03 7.38171E-21
5.62181E-03 7.04947E-21
5.75306E-03 6.73579E-21
5.88581E-03 6.43945E-21
6.02007E-03 6.15930E-21
6.15583E-03 5.89430E-21
6.29310E-03 5.64346E-21
6.43187E-03 5.40589E-21
6.57214E-03 5.18074E-21
6.71392E-03 4.96726E-21
6.85720E-03 4.76472E-21
7.00198E-03 4.57244E-21
7.14827E-03 4.38982E-21
7.29605E-03 4.21627E-21
7.44534E-03 4.05126E-21
7.59612E-03 3.89429E-21
7.97965E-03 3.53403E-21
8.37255E-03 3.21470E-21
8.77480E-03 2.93081E-21
9.18641E-03 2.67776E-21
9.60736E-03 2.45158E-21
1.00376E-02 2.24892E-21
1.04773E-02 2.06689E-21
1.09262E-02 1.90302E-21
1.13844E-02 1.75517E-21
1.18520E-02 1.62150E-21
1.23288E-02 1.50038E-21
1.28150E-02 1.39044E-21
1.33104E-02 1.29045E-21
1.38150E-02 1.19935E-21
1.43290E-02 1.11620E-21
1.48521E-02 1.04018E-21
1.53845E-02 9.70566E-22
1.59262E-02 9.06720E-22
1.64770E-02 8.48076E-22
1.70371E-02 7.94130E-22
1.76063E-02 7.44437E-22
1.81848E-02 6.98599E-22
1.87724E-02 6.56260E-22
1.93692E-02 6.17105E-22
1.99751E-02 5.80848E-22
2.05901E-02 5.47235E-22
2.12143E-02 5.16037E-22
2.18476E-02 4.87048E-22
2.24900E-02 4.60082E-22
2.31415E-02 4.34971E-22
2.38021E-02 4.11563E-22
2.44717E-02 3.89721E-22
2.51504E-02 3.69320E-22
2.58382E-02 3.50248E-22
2.65349E-02 3.32400E-22
2.72407E-02 3.15685E-22
2.79555E-02 3.00015E-22
2.86793E-02 2.85313E-22
2.94120E-02 2.71508E-22
3.01537E-02 2.58535E-22
3.09043E-02 2.46333E-22
3.16639E-02 2.34849E-22
3.24324E-02 2.24032E-22
3.32098E-02 2.13836E-22
3.39961E-02 2.04218E-22
3.47912E-02 1.95139E-22
3.55952E-02 1.86563E-22
3.64081E-02 1.78456E-22
3.72297E-02 1.70789E-22
3.80602E-02 1.63533E-22
3.88995E-02 1.56661E-22
3.97476E-02 1.50149E-22
4.06044E-02 1.43975E-22
4.14700E-02 1.38118E-22
4.23443E-02 1.32557E-22
4.32273E-02 1.27276E-22
4.41190E-02 1.22258E-22
4.50194E-02 1.17486E-22
4.59284E-02 1.12947E-22
4.68461E-02 1.08627E-22
4.87074E-02 1.00593E-22
5.06030E-02 9.32935E-23
5.25328E-02 8.66493E-23
5.44967E-02 8.05904E-23
5.64946E-02 7.50557E-23
5.85262E-02 6.99914E-23
6.05914E-02 6.53500E-23
6.26901E-02 6.10896E-23
6.48222E-02 5.71731E-23
6.69873E-02 5.35674E-23
6.91854E-02 5.02433E-23
7.14163E-02 4.71747E-23
7.36799E-02 4.43381E-23
7.59760E-02 4.17128E-23
7.83043E-02 3.92800E-23
8.06647E-02 3.70229E-23
8.30571E-02 3.49264E-23
8.54812E-02 3.29769E-23
8.79369E-02 3.11622E-23
9.04240E-02 2.94710E-23
9.29422E-02 2.78936E-23
9.54915E-02 2.64206E-23
9.80716E-02 2.50439E-23
1.00682E-01 2.37560E-23
1.03323E-01 2.25500E-23
1.05995E-01 2.14198E-23
1.08696E-01 2.03596E-23
1.11427E-01 1.93643E-23
1.14188E-01 1.84292E-23
1.16978E-01 1.75499E-23
1.19797E-01 1.67224E-23
1.22645E-01 1.59431E-23
1.25522E-01 1.52087E-23
1.28428E-01 1.45160E-23
1.31361E-01 1.38623E-23
1.34323E-01 1.32449E-23
1.37313E-01 1.26614E-23
1.40330E-01 1.21096E-23
1.43375E-01 1.15874E-23
1.46447E-01 1.10930E-23
1.49545E-01 1.06246E-23
1.52671E-01 1.01805E-23
1.55823E-01 9.75924E-24
1.59001E-01 9.35942E-24
1.62205E-01 8.97973E-24
1.65435E-01 8.61898E-24
1.68690E-01 8.27602E-24
1.71970E-01 7.94982E-24
1.75276E-01 7.63939E-24
1.78606E-01 7.34381E-24
1.81961E-01 7.06225E-24
1.85340E-01 6.79391E-24
1.88743E-01 6.53806E-24
1.92169E-01 6.29399E-24
1.95619E-01 6.06107E-24
1.99092E-01 5.83867E-24
2.02589E-01 5.62623E-24
2.06107E-01 5.42323E-24
2.09649E-01 5.22915E-24
2.13212E-01 5.04354E-24
2.16797E-01 4.86596E-24
2.20404E-01 4.69598E-24
2.24032E-01 4.53323E-24
2.27680E-01 4.37732E-24
2.31350E-01 4.22792E-24
2.35040E-01 4.08471E-24
2.38751E-01 3.94738E-24
2.42481E-01 3.81564E-24
2.46231E-01 3.68923E-24
2.50000E-01 3.56788E-24
2.53788E-01 3.45135E-24
2.57595E-01 3.33941E-24
2.61421E-01 3.23185E-24
2.65264E-01 3.12846E-24
2.69126E-01 3.02906E-24
2.73005E-01 2.93346E-24
2.76901E-01 2.84148E-24
2.80814E-01 2.75296E-24
2.84744E-01 2.66775E-24
2.88691E-01 2.58569E-24
2.92653E-01 2.50666E-24
2.96632E-01 2.43052E-24
3.00625E-01 2.35714E-24
3.04634E-01 2.28640E-24
3.08658E-01 2.21819E-24
3.12697E-01 2.15240E-24
3.16749E-01 2.08893E-24
3.20816E-01 2.02768E-24
3.24896E-01 1.96857E-24
3.28990E-01 1.91150E-24
3.33097E-01 1.85638E-24
3.37216E-01 1.80315E-24
3.41348E-01 1.75170E-24
3.45492E-01 1.70199E-24
3.49647E-01 1.65395E-24
3.53814E-01 1.60750E-24
3.57992E-01 1.56258E-24
3.62181E-01 1.51913E-24
3.66381E-01 1.47710E-24
3.70590E-01 1.43642E-24
3.74810E-01 1.39706E-24
3.79039E-01 1.35895E-24
3.83277E-01 1.32206E-24
3.87524E-01 1.28632E-24
3.91780E-01 1.25171E-24
3.96044E-01 1.21818E-24
4.00316E-01 1.18569E-24
4.04596E-01 1.15419E-24
4.08882E-01 1.12367E-24
4.13176E-01 1.09407E-24
4.17476E-01 1.06538E-24
4.21783E-01 1.03754E-24
4.26095E-01 1.01054E-24
4.30413E-01 9.84340E-25
4.34737E-01 9.58918E-25
4.39065E-01 9.34245E-25
4.43398E-01 9.10294E-25
4.47736E-01 8.87041E-25
4.52077E-01 8.64461E-25
4.56422E-01 8.42532E-25
4.60770E-01 8.21231E-25
4.65122E-01 8.00538E-25
4.69476E-01 7.80431E-25
4.73832E-01 7.60892E-25
4.78190E-01 7.41901E-25
4.82550E-01 7.23441E-25
4.86912E-01 7.05494E-25
4.91274E-01 6.88042E-25
4.95637E-01 6.71071E-25
5.00000E-01 6.54564E-25
5.04363E-01 6.38507E-25
5.08726E-01 6.22885E-25
5.13088E-01 6.07684E-25
5.17450E-01 5.92891E-25
5.21810E-01 5.78494E-25
5.26168E-01 5.64479E-25
5.30524E-01 5.50835E-25
5.34878E-01 5.37551E-25
5.39230E-01 5.24615E-25
5.43578E-01 5.12017E-25
5.47923E-01 4.99746E-25
5.52264E-01 4.87792E-25
5.56602E-01 4.76147E-25
5.60935E-01 4.64799E-25
5.65263E-01 4.53742E-25
5.69587E-01 4.42966E-25
5.73905E-01 4.32462E-25
5.78217E-01 4.22223E-25
5.82524E-01 4.12241E-25
5.86824E-01 4.02509E-25
5.91118E-01 3.93018E-25
5.95404E-01 3.83763E-25
5.99684E-01 3.74736E-25
6.03956E-01 3.65932E-25
6.08220E-01 3.57343E-25
6.12476E-01 3.48963E-25
6.16723E-01 3.40787E-25
6.20961E-01 3.32809E-25
6.25190E-01 3.25023E-25
6.29410E-01 3.17424E-25
6.33619E-01 3.10008E-25
6.37819E-01 3.02767E-25
6.42008E-01 2.95699E-25
6.46186E-01 2.88799E-25
6.50353E-01 2.82061E-25
6.54508E-01 2.75481E-25
6.58652E-01 2.69055E-25
6.62784E-01 2.62780E-25
6.66903E-01 2.56650E-25
6.71010E-01 2.50662E-25
6.75104E-01 2.44813E-25
6.79184E-01 2.39099E-25
6.83251E-01 2.33515E-25
6.87303E-01 2.28060E-25
6.91342E-01 2.22728E-25
6.95366E-01 2.17519E-25
6.99375E-01 2.12427E-25
7.03368E-01 2.07450E-25
7.07347E-01 2.02585E-25
7.11309E-01 1.97830E-25
7.15256E-01 1.93182E-25
7.19186E-01 1.88637E-25
7.23099E-01 1.84193E-25
7.26995E-01 1.79849E-25
7.30874E-01 1.75600E-25
7.34736E-01 1.71446E-25
7.38579E-01 1.67383E-25
7.42405E-01 1.63409E-25
7.46212E-01 1.59523E-25
7.50000E-01 1.55722E-25
7.53769E-01 1.52004E-25
7.57519E-01 1.48367E-25
7.61249E-01 1.44809E-25
7.64960E-01 1.41328E-25
7.68650E-01 1.37923E-25
7.72320E-01 1.34591E-25
7.75968E-01 1.31331E-25
7.79596E-01 1.28142E-25
7.83203E-01 1.25021E-25
7.86788E-01 1.21967E-25
7.90351E-01 1.18978E-25
7.93893E-01 1.16054E-25
7.97411E-01 1.13192E-25
8.00908E-01 1.10391E-25
8.04381E-01 1.07649E-25
8.07831E-01 1.04966E-25
8.11257E-01 1.02340E-25
8.14660E-01 9.97704E-26
8.18039E-01 9.72548E-26
8.21394E-01 9.47926E-26
8.24724E-01 9.23826E-26
8.28030E-01 9.00236E-26
8.31310E-01 8.77146E-26
8.34565E-01 8.54544E-26
8.37795E-01 8.32420E-26
8.40999E-01 8.10764E-26
8.44177E-01 7.89565E-26
8.47329E-01 7.68815E-26
8.50455E-01 7.48504E-26
8.53553E-01 7.28623E-26
8.56625E-01 7.09162E-26
8.59670E-01 6.90113E-26
8.62687E-01 6.71468E-26
8.65677E-01 6.53218E-26
8.68639E-01 6.35356E-26
8.71572E-01 6.17873E-26
8.74478E-01 6.00762E-26
8.77355E-01 5.84015E-26
8.80203E-01 5.67626E-26
8.83022E-01 5.51587E-26
8.85812E-01 5.35892E-26
8.88573E-01 5.20533E-26
8.91304E-01 5.05505E-26
8.94005E-01 4.90800E-26
8.96677E-01 4.76414E-26
8.99318E-01 4.62339E-26
9.01928E-01 4.48570E-26
9.04508E-01 4.35102E-26
9.07058E-01 4.21928E-26
9.09576E-01 4.09044E-26
9.12063E-01 3.96444E-26
9.14519E-01 3.84123E-26
9.16943E-01 3.72076E-26
9.19335E-01 3.60298E-26
9.21696E-01 3.48785E-26
9.24024E-01 3.37532E-26
9.26320E-01 3.26534E-26
9.28584E-01 3.15788E-26
9.30815E-01 3.05288E-26
9.33013E-01 2.95031E-26
9.35178E-01 2.85013E-26
9.37310E-01 2.75229E-26
9.39409E-01 2.65677E-26
9.41474E-01 2.56352E-26
9.43505E-01 2.47251E-26
9.45503E-01 2.38370E-26
9.47467E-01 2.29706E-26
9.49397E-01 2.21256E-26
9.51293E-01 2.13016E-26
9.53154E-01 2.04983E-26
9.54981E-01 1.97155E-26
9.56773E-01 1.89528E-26
9.58530E-01 1.82099E-26
9.60252E-01 1.74866E-26
9.61940E-01 1.67825E-26
9.63592E-01 1.60975E-26
9.65209E-01 1.54313E-26
9.66790E-01 1.47836E-26
9.68336E-01 1.41542E-26
9.69846E-01 1.35429E-26
9.71321E-01 1.29494E-26
9.72759E-01 1.23736E-26
9.74162E-01 1.18151E-26
9.75528E-01 1.12738E-26
9.76858E-01 1.07496E-26
9.78152E-01 1.02422E-26
9.79410E-01 9.75140E-27
9.80631E-01 9.27708E-27
9.81815E-01 8.81905E-27
9.82963E-01 8.37715E-27
9.84074E-01 7.95121E-27
9.85148E-01 7.54109E-27
9.86185E-01 7.14663E-27
9.87185E-01 6.76771E-27
9.88148E-01 6.40417E-27
9.89074E-01 6.05591E-27
9.89962E-01 5.72278E-27
9.90814E-01 5.40467E-27
9.91627E-01 5.10148E-27
9.92404E-01 4.81309E-27
9.93143E-01 4.53940E-27
9.93844E-01 4.28032E-27
9.94508E-01 4.03575E-27
9.95134E-01 3.80561E-27
9.95722E-01 3.58981E-27
9.96273E-01 3.38829E-27
9.96786E-01 3.20098E-27
9.97261E-01 3.02779E-27
9.97698E-01 2.86869E-27
9.98097E-01 2.72360E-27
9.98459E-01 2.59249E-27
9.98782E-01 2.47529E-27
9.99067E-01 2.37198E-27
9.99315E-01 2.28252E-27
9.99524E-01 2.20688E-27
9.99695E-01 2.14502E-27
9.99829E-01 2.09693E-27
9.99924E-01 2.06259E-27
9.99981E-01 2.04200E-27
1.00000E+00 2.03513E-27
