 #
 # Subroutine ELSEPA. Elastic scattering of electrons and positrons
 #                    by neutral atoms and positive ions
 #
 # Projectile: electron
 # Kinetic energy = 7.00000E+08 eV = 2.57245E+07 a.u.
 #
 # WARNING: High-energy factorization with free-atom DF screening.
 #          Absorption, polarization and exchange corrections are
 #          switched off.
 #          Phase shifts are calculated for the bare nucleus.
 #          Scattering amplitudes are not evaluated.
 #
 # Element: Br,  Z =  35,  atomic weight = 7.99040E+01 g/mol
 #
 # Nuclear model: Fermi distribution
 #                Average radius = 4.60865E-13 cm
 #                Skin thickness = 5.46000E-14 cm
 #
 # Number of electrons = 35
 #
 # Total elastic cross section = 2.71266E-18 cm**2 = 9.68708E-02 a0**2
 # 1st transport cross section = 5.05165E-27 cm**2 = 1.80398E-10 a0**2
 # 2nd transport cross section = 1.51516E-26 cm**2 = 5.41072E-10 a0**2
 #
 #
 # Differential cross section:                       MU=(1-COS(THETA))/2
 #
 #  THETA        MU          DCS          DCS        Sherman      error
 #  (deg)                 (cm**2/sr)   (a0**2/sr)    function
 #----------------------------------------------------------------------
0.00000E+00 9.22501E-09
7.61557E-13 8.55418E-09
1.18994E-12 8.20700E-09
1.71346E-12 7.81138E-09
2.33225E-12 7.38084E-09
3.04617E-12 6.92346E-09
3.85530E-12 6.45443E-09
4.75964E-12 5.98588E-09
5.75917E-12 5.52559E-09
6.85391E-12 5.07658E-09
8.04379E-12 4.64957E-09
9.32893E-12 4.24792E-09
1.07092E-11 3.87145E-09
1.21847E-11 3.52205E-09
1.37554E-11 3.20159E-09
1.54213E-11 2.90918E-09
1.71823E-11 2.64160E-09
1.90386E-11 2.39952E-09
2.09900E-11 2.18121E-09
2.30367E-11 1.98434E-09
2.51785E-11 1.80678E-09
2.74156E-11 1.64748E-09
2.97478E-11 1.50460E-09
3.21752E-11 1.37608E-09
3.46979E-11 1.26070E-09
3.73157E-11 1.15718E-09
4.00286E-11 1.06418E-09
4.28368E-11 9.80337E-10
4.57402E-11 9.04892E-10
4.87388E-11 8.34962E-10
5.18325E-11 7.71643E-10
5.50215E-11 7.15205E-10
5.83057E-11 6.64753E-10
6.16850E-11 6.19523E-10
6.51595E-11 5.78863E-10
6.87293E-11 5.42213E-10
7.23943E-11 5.09091E-10
7.61544E-11 4.76623E-10
1.18991E-10 2.67713E-10
1.71347E-10 1.64513E-10
2.33223E-10 1.06495E-10
3.04617E-10 7.08560E-11
3.85531E-10 4.83894E-11
4.75965E-10 3.38696E-11
5.75917E-10 2.42486E-11
6.85389E-10 1.77250E-11
8.04380E-10 1.32401E-11
9.32891E-10 1.00893E-11
1.07092E-09 7.82820E-12
1.21847E-09 6.17432E-12
1.37554E-09 4.94155E-12
1.54213E-09 4.00778E-12
1.71823E-09 3.28829E-12
1.90386E-09 2.72603E-12
2.09900E-09 2.28066E-12
2.30367E-09 1.92340E-12
2.51785E-09 1.63360E-12
2.74156E-09 1.39661E-12
2.97478E-09 1.20116E-12
3.21752E-09 1.03859E-12
3.46978E-09 9.02477E-13
3.73156E-09 7.87834E-13
4.00286E-09 6.90680E-13
4.28368E-09 6.07815E-13
4.57402E-09 5.36895E-13
4.87388E-09 4.75668E-13
5.18326E-09 4.22929E-13
5.50215E-09 3.77473E-13
5.83057E-09 3.37787E-13
6.16850E-09 3.03035E-13
6.51596E-09 2.72724E-13
6.87293E-09 2.46060E-13
7.23942E-09 2.22465E-13
7.61544E-09 2.01676E-13
1.18991E-08 8.44109E-14
1.71347E-08 4.12741E-14
2.33223E-08 2.25254E-14
3.04617E-08 1.33262E-14
3.85531E-08 8.38360E-15
4.75965E-08 5.53541E-15
5.75917E-08 3.80034E-15
6.85389E-08 2.69460E-15
8.04380E-08 1.96307E-15
9.32891E-08 1.46358E-15
1.07092E-07 1.11318E-15
1.21847E-07 8.61540E-16
1.37554E-07 6.77085E-16
1.54213E-07 5.39412E-16
1.71823E-07 4.34988E-16
1.90386E-07 3.54632E-16
2.09900E-07 2.91989E-16
2.30367E-07 2.42577E-16
2.51785E-07 2.03181E-16
2.74156E-07 1.71463E-16
2.97478E-07 1.45696E-16
3.21752E-07 1.24590E-16
3.46978E-07 1.07169E-16
3.73156E-07 9.26878E-17
4.00286E-07 8.05710E-17
4.28368E-07 7.03703E-17
4.57402E-07 6.17335E-17
4.87388E-07 5.43815E-17
5.18325E-07 4.80917E-17
5.50215E-07 4.26853E-17
5.83057E-07 3.80176E-17
6.16850E-07 3.39707E-17
6.51596E-07 3.04480E-17
6.87293E-07 2.73703E-17
7.23942E-07 2.46718E-17
7.61543E-07 2.22977E-17
1.18991E-06 9.13921E-18
1.71347E-06 4.40917E-18
2.33223E-06 2.38064E-18
3.04617E-06 1.39581E-18
3.85531E-06 8.71571E-19
4.75964E-06 5.71942E-19
5.75916E-06 3.90711E-19
6.85388E-06 2.75913E-19
8.04378E-06 2.00351E-19
9.32888E-06 1.48977E-19
1.07092E-05 1.13066E-19
1.21846E-05 8.73541E-20
1.37553E-05 6.85539E-20
1.54212E-05 5.45509E-20
1.71822E-05 4.39482E-20
1.90385E-05 3.57975E-20
2.09899E-05 2.94601E-20
2.30365E-05 2.44645E-20
2.51783E-05 2.04830E-20
2.74153E-05 1.72784E-20
2.97475E-05 1.46762E-20
3.21749E-05 1.25460E-20
3.46974E-05 1.07890E-20
3.73152E-05 9.32964E-21
4.00281E-05 8.10929E-21
4.28362E-05 7.08233E-21
4.57395E-05 6.21297E-21
4.87380E-05 5.47296E-21
5.18317E-05 4.83982E-21
5.50205E-05 4.29559E-21
5.83045E-05 3.82574E-21
6.16838E-05 3.41845E-21
6.51582E-05 3.06401E-21
6.87277E-05 2.75441E-21
7.23925E-05 2.48300E-21
7.61524E-05 2.22269E-21
9.21439E-05 1.51425E-21
1.09658E-04 1.06590E-21
1.28695E-04 7.71185E-22
1.49255E-04 5.71057E-22
1.71338E-04 4.31414E-22
1.94942E-04 3.31610E-22
2.20070E-04 2.58791E-22
2.46720E-04 2.04684E-22
2.74892E-04 1.63821E-22
3.04586E-04 1.32515E-22
3.35803E-04 1.08216E-22
3.68542E-04 8.91356E-23
4.02802E-04 7.39924E-23
4.38585E-04 6.18578E-23
4.75889E-04 5.20485E-23
5.14715E-04 4.40540E-23
5.55063E-04 3.74905E-23
5.96931E-04 3.20646E-23
6.40321E-04 2.75506E-23
6.85233E-04 2.37733E-23
7.31665E-04 2.05950E-23
7.79618E-04 1.79072E-23
8.29092E-04 1.56233E-23
8.80086E-04 1.36741E-23
9.32601E-04 1.20036E-23
9.86636E-04 1.05664E-23
1.04219E-03 9.32532E-24
1.09927E-03 8.24998E-24
1.15786E-03 7.31522E-24
1.21797E-03 6.50019E-24
1.27961E-03 5.78751E-24
1.34276E-03 5.16264E-24
1.40743E-03 4.61335E-24
1.47362E-03 4.12934E-24
1.54133E-03 3.70186E-24
1.61056E-03 3.32350E-24
1.68131E-03 2.98792E-24
1.75357E-03 2.68972E-24
1.82735E-03 2.42423E-24
1.90265E-03 2.18745E-24
1.97947E-03 1.97593E-24
2.05780E-03 1.78667E-24
2.13765E-03 1.61708E-24
2.21902E-03 1.46491E-24
2.30190E-03 1.32816E-24
2.38630E-03 1.20514E-24
2.47222E-03 1.09431E-24
2.55965E-03 9.94369E-25
2.64859E-03 9.04136E-25
2.73905E-03 8.22587E-25
2.83103E-03 7.48813E-25
2.92452E-03 6.82011E-25
3.01952E-03 6.21469E-25
3.11604E-03 5.66554E-25
3.21407E-03 5.16704E-25
3.31362E-03 4.71418E-25
3.41468E-03 4.30249E-25
3.51725E-03 3.92799E-25
3.62133E-03 3.58709E-25
3.72692E-03 3.27660E-25
3.83403E-03 2.99365E-25
3.94265E-03 2.73567E-25
4.05278E-03 2.50034E-25
4.16442E-03 2.28558E-25
4.27757E-03 2.08950E-25
4.39223E-03 1.91042E-25
4.50840E-03 1.74680E-25
4.62608E-03 1.59725E-25
4.74527E-03 1.46053E-25
4.86597E-03 1.33551E-25
4.98817E-03 1.22115E-25
5.11188E-03 1.11652E-25
5.23711E-03 1.02078E-25
5.36383E-03 9.33161E-26
5.49207E-03 8.52960E-26
5.62181E-03 7.79542E-26
5.75306E-03 7.12328E-26
5.88581E-03 6.50789E-26
6.02007E-03 5.94446E-26
6.15583E-03 5.42858E-26
6.29310E-03 4.95625E-26
6.43187E-03 4.52382E-26
6.57214E-03 4.12792E-26
6.71392E-03 3.76551E-26
6.85720E-03 3.43380E-26
7.00198E-03 3.13021E-26
7.14827E-03 2.85241E-26
7.29605E-03 2.59826E-26
7.44534E-03 2.36578E-26
7.59612E-03 2.15318E-26
7.97965E-03 1.69814E-26
8.37255E-03 1.33511E-26
8.77480E-03 1.04613E-26
9.18641E-03 8.16682E-27
9.60736E-03 6.35062E-27
1.00376E-02 4.91800E-27
1.04773E-02 3.79240E-27
1.09262E-02 2.91198E-27
1.13844E-02 2.22678E-27
1.18520E-02 1.69652E-27
1.23288E-02 1.28873E-27
1.28150E-02 9.77314E-28
1.33104E-02 7.41351E-28
1.38150E-02 5.64099E-28
1.43290E-02 4.32215E-28
1.48521E-02 3.35108E-28
1.53845E-02 2.64410E-28
1.59262E-02 2.13548E-28
1.64770E-02 1.77389E-28
1.70371E-02 1.51959E-28
1.76063E-02 1.34206E-28
1.81848E-02 1.21813E-28
1.87724E-02 1.13044E-28
1.93692E-02 1.06617E-28
1.99751E-02 1.01609E-28
2.05901E-02 9.73673E-29
2.12143E-02 9.34526E-29
2.18476E-02 8.95817E-29
2.24900E-02 8.55888E-29
2.31415E-02 8.13930E-29
2.38021E-02 7.69728E-29
2.44717E-02 7.23469E-29
2.51504E-02 6.75594E-29
2.58382E-02 6.26686E-29
2.65349E-02 5.77388E-29
2.72407E-02 5.28346E-29
2.79555E-02 4.80169E-29
2.86793E-02 4.33399E-29
2.94120E-02 3.88503E-29
3.01537E-02 3.45860E-29
3.09043E-02 3.05761E-29
3.16639E-02 2.68414E-29
3.24324E-02 2.33950E-29
3.32098E-02 2.02429E-29
3.39961E-02 1.73850E-29
3.47912E-02 1.48160E-29
3.55952E-02 1.25264E-29
3.64081E-02 1.05031E-29
3.72297E-02 8.73075E-30
3.80602E-02 7.19195E-30
3.88995E-02 5.86821E-30
3.97476E-02 4.74041E-30
4.06044E-02 3.78936E-30
4.14700E-02 2.99614E-30
4.23443E-02 2.34244E-30
4.32273E-02 1.81084E-30
4.41190E-02 1.38496E-30
4.50194E-02 1.04961E-30
4.59284E-02 7.90883E-31
4.68461E-02 5.96172E-31
4.87074E-02 3.54935E-31
5.06030E-02 2.50781E-31
5.25328E-02 2.27370E-31
5.44967E-02 2.44590E-31
5.64946E-02 2.75666E-31
5.85262E-02 3.04247E-31
6.05914E-02 3.21733E-31
6.26901E-02 3.24948E-31
6.48222E-02 3.14233E-31
6.69873E-02 2.91956E-31
6.91854E-02 2.61413E-31
7.14163E-02 2.26067E-31
7.36799E-02 1.89067E-31
7.59760E-02 1.52985E-31
7.83043E-02 1.19710E-31
8.06647E-02 9.04583E-32
8.30571E-02 6.58450E-32
8.54812E-02 4.59993E-32
8.79369E-02 3.06866E-32
9.04240E-02 1.94294E-32
9.29422E-02 1.16126E-32
9.54915E-02 6.56980E-33
9.80716E-02 3.64862E-33
1.00682E-01 2.25482E-33
1.03323E-01 1.87913E-33
1.05995E-01 2.10917E-33
1.08696E-01 2.63017E-33
1.11427E-01 3.21781E-33
1.14188E-01 3.72628E-33
1.16978E-01 4.07383E-33
1.19797E-01 4.22785E-33
1.22645E-01 4.19080E-33
1.25522E-01 3.98775E-33
1.28428E-01 3.65622E-33
1.31361E-01 3.23819E-33
1.34323E-01 2.77440E-33
1.37313E-01 2.30064E-33
1.40330E-01 1.84566E-33
1.43375E-01 1.43042E-33
1.46447E-01 1.06831E-33
1.49545E-01 7.65929E-34
1.52671E-01 5.24300E-34
1.55823E-01 3.40222E-34
1.59001E-01 2.07582E-34
1.62205E-01 1.18563E-34
1.65435E-01 6.46531E-35
1.68690E-01 3.74371E-35
1.71970E-01 2.91699E-35
1.75276E-01 3.31379E-35
1.78606E-01 4.38471E-35
1.81961E-01 5.70680E-35
1.85340E-01 6.97747E-35
1.88743E-01 8.00118E-35
1.92169E-01 8.67201E-35
1.95619E-01 8.95454E-35
1.99092E-01 8.86496E-35
2.02589E-01 8.45374E-35
2.06107E-01 7.79079E-35
2.09649E-01 6.95347E-35
2.13212E-01 6.01752E-35
2.16797E-01 5.05084E-35
2.20404E-01 4.10966E-35
2.24032E-01 3.23686E-35
2.27680E-01 2.46175E-35
2.31350E-01 1.80112E-35
2.35040E-01 1.26097E-35
2.38751E-01 8.38610E-36
2.42481E-01 5.24919E-36
2.46231E-01 3.06515E-36
2.50000E-01 1.67666E-36
2.53788E-01 9.19084E-37
2.57595E-01 6.33020E-37
2.61421E-01 6.73332E-37
2.65264E-01 9.14960E-37
2.69126E-01 1.25583E-36
2.73005E-01 1.61750E-36
2.76901E-01 1.94398E-36
2.80814E-01 2.19940E-36
2.84744E-01 2.36491E-36
2.88691E-01 2.43517E-36
2.92653E-01 2.41500E-36
2.96632E-01 2.31605E-36
3.00625E-01 2.15411E-36
3.04634E-01 1.94666E-36
3.08658E-01 1.71110E-36
3.12697E-01 1.46343E-36
3.16749E-01 1.21737E-36
3.20816E-01 9.83911E-37
3.24896E-01 7.71142E-37
3.28990E-01 5.84357E-37
3.33097E-01 4.26329E-37
3.37216E-01 2.97675E-37
3.41348E-01 1.97298E-37
3.45492E-01 1.22840E-37
3.49647E-01 7.10928E-38
3.53814E-01 3.83907E-38
3.57992E-01 2.09266E-38
3.62181E-01 1.50109E-38
3.66381E-01 1.72542E-38
3.70590E-01 2.46949E-38
3.74810E-01 3.48645E-38
3.79039E-01 4.58101E-38
3.83277E-01 5.60775E-38
3.87524E-01 6.46699E-38
3.91780E-01 7.09909E-38
3.96044E-01 7.47742E-38
4.00316E-01 7.60152E-38
4.04596E-01 7.49051E-38
4.08882E-01 7.17650E-38
4.13176E-01 6.69956E-38
4.17476E-01 6.10287E-38
4.21783E-01 5.42940E-38
4.26095E-01 4.71882E-38
4.30413E-01 4.00595E-38
4.34737E-01 3.31945E-38
4.39065E-01 2.68140E-38
4.43398E-01 2.10729E-38
4.47736E-01 1.60654E-38
4.52077E-01 1.18326E-38
4.56422E-01 8.37082E-39
4.60770E-01 1.00000E-45
4.65122E-01 1.00000E-45
4.69476E-01 1.00000E-45
4.73832E-01 1.00000E-45
4.78190E-01 1.00000E-45
4.82550E-01 1.00000E-45
4.86912E-01 1.00000E-45
4.91274E-01 1.00000E-45
4.95637E-01 1.00000E-45
5.00000E-01 1.00000E-45
5.04363E-01 1.00000E-45
5.08726E-01 1.00000E-45
5.13088E-01 1.00000E-45
5.17450E-01 1.00000E-45
5.21810E-01 1.00000E-45
5.26168E-01 1.00000E-45
5.30524E-01 1.00000E-45
5.34878E-01 1.00000E-45
5.39230E-01 1.00000E-45
5.43578E-01 1.00000E-45
5.47923E-01 1.00000E-45
5.52264E-01 1.00000E-45
5.56602E-01 1.00000E-45
5.60935E-01 1.00000E-45
5.65263E-01 1.00000E-45
5.69587E-01 1.00000E-45
5.73905E-01 1.00000E-45
5.78217E-01 1.00000E-45
5.82524E-01 1.00000E-45
5.86824E-01 1.00000E-45
5.91118E-01 1.00000E-45
5.95404E-01 1.00000E-45
5.99684E-01 1.00000E-45
6.03956E-01 1.00000E-45
6.08220E-01 1.00000E-45
6.12476E-01 1.00000E-45
6.16723E-01 1.00000E-45
6.20961E-01 1.00000E-45
6.25190E-01 1.00000E-45
6.29410E-01 1.00000E-45
6.33619E-01 1.00000E-45
6.37819E-01 1.00000E-45
6.42008E-01 1.00000E-45
6.46186E-01 1.00000E-45
6.50353E-01 1.00000E-45
6.54508E-01 1.00000E-45
6.58652E-01 1.00000E-45
6.62784E-01 1.00000E-45
6.66903E-01 1.00000E-45
6.71010E-01 1.00000E-45
6.75104E-01 1.00000E-45
6.79184E-01 1.00000E-45
6.83251E-01 1.00000E-45
6.87303E-01 1.00000E-45
6.91342E-01 1.00000E-45
6.95366E-01 1.00000E-45
6.99375E-01 1.00000E-45
7.03368E-01 1.00000E-45
7.07347E-01 1.00000E-45
7.11309E-01 1.00000E-45
7.15256E-01 1.00000E-45
7.19186E-01 1.00000E-45
7.23099E-01 1.00000E-45
7.26995E-01 1.00000E-45
7.30874E-01 1.00000E-45
7.34736E-01 1.00000E-45
7.38579E-01 1.00000E-45
7.42405E-01 1.00000E-45
7.46212E-01 1.00000E-45
7.50000E-01 1.00000E-45
7.53769E-01 1.00000E-45
7.57519E-01 1.00000E-45
7.61249E-01 1.00000E-45
7.64960E-01 1.00000E-45
7.68650E-01 1.00000E-45
7.72320E-01 1.00000E-45
7.75968E-01 1.00000E-45
7.79596E-01 1.00000E-45
7.83203E-01 1.00000E-45
7.86788E-01 1.00000E-45
7.90351E-01 1.00000E-45
7.93893E-01 1.00000E-45
7.97411E-01 1.00000E-45
8.00908E-01 1.00000E-45
8.04381E-01 1.00000E-45
8.07831E-01 1.00000E-45
8.11257E-01 1.00000E-45
8.14660E-01 1.00000E-45
8.18039E-01 1.00000E-45
8.21394E-01 1.00000E-45
8.24724E-01 1.00000E-45
8.28030E-01 1.00000E-45
8.31310E-01 1.00000E-45
8.34565E-01 1.00000E-45
8.37795E-01 1.00000E-45
8.40999E-01 1.00000E-45
8.44177E-01 1.00000E-45
8.47329E-01 1.00000E-45
8.50455E-01 1.00000E-45
8.53553E-01 1.00000E-45
8.56625E-01 1.00000E-45
8.59670E-01 1.00000E-45
8.62687E-01 1.00000E-45
8.65677E-01 1.00000E-45
8.68639E-01 1.00000E-45
8.71572E-01 1.00000E-45
8.74478E-01 1.00000E-45
8.77355E-01 1.00000E-45
8.80203E-01 1.00000E-45
8.83022E-01 1.00000E-45
8.85812E-01 1.00000E-45
8.88573E-01 1.00000E-45
8.91304E-01 1.00000E-45
8.94005E-01 1.00000E-45
8.96677E-01 1.00000E-45
8.99318E-01 1.00000E-45
9.01928E-01 1.00000E-45
9.04508E-01 1.00000E-45
9.07058E-01 1.00000E-45
9.09576E-01 1.00000E-45
9.12063E-01 1.00000E-45
9.14519E-01 1.00000E-45
9.16943E-01 1.00000E-45
9.19335E-01 1.00000E-45
9.21696E-01 1.00000E-45
9.24024E-01 1.00000E-45
9.26320E-01 1.00000E-45
9.28584E-01 1.00000E-45
9.30815E-01 1.00000E-45
9.33013E-01 1.00000E-45
9.35178E-01 1.00000E-45
9.37310E-01 1.00000E-45
9.39409E-01 1.00000E-45
9.41474E-01 1.00000E-45
9.43505E-01 1.00000E-45
9.45503E-01 1.00000E-45
9.47467E-01 1.00000E-45
9.49397E-01 1.00000E-45
9.51293E-01 1.00000E-45
9.53154E-01 1.00000E-45
9.54981E-01 1.00000E-45
9.56773E-01 1.00000E-45
9.58530E-01 1.00000E-45
9.60252E-01 1.00000E-45
9.61940E-01 1.00000E-45
9.63592E-01 1.00000E-45
9.65209E-01 1.00000E-45
9.66790E-01 1.00000E-45
9.68336E-01 1.00000E-45
9.69846E-01 1.00000E-45
9.71321E-01 1.00000E-45
9.72759E-01 1.00000E-45
9.74162E-01 1.00000E-45
9.75528E-01 1.00000E-45
9.76858E-01 1.00000E-45
9.78152E-01 1.00000E-45
9.79410E-01 1.00000E-45
9.80631E-01 1.00000E-45
9.81815E-01 1.00000E-45
9.82963E-01 1.00000E-45
9.84074E-01 1.00000E-45
9.85148E-01 1.00000E-45
9.86185E-01 1.00000E-45
9.87185E-01 1.00000E-45
9.88148E-01 1.00000E-45
9.89074E-01 1.00000E-45
9.89962E-01 1.00000E-45
9.90814E-01 1.00000E-45
9.91627E-01 1.00000E-45
9.92404E-01 1.00000E-45
9.93143E-01 1.00000E-45
9.93844E-01 1.00000E-45
9.94508E-01 1.00000E-45
9.95134E-01 1.00000E-45
9.95722E-01 1.00000E-45
9.96273E-01 1.00000E-45
9.96786E-01 1.00000E-45
9.97261E-01 1.00000E-45
9.97698E-01 1.00000E-45
9.98097E-01 1.00000E-45
9.98459E-01 1.00000E-45
9.98782E-01 1.00000E-45
9.99067E-01 1.00000E-45
9.99315E-01 1.00000E-45
9.99524E-01 1.00000E-45
9.99695E-01 1.00000E-45
9.99829E-01 1.00000E-45
9.99924E-01 1.00000E-45
9.99981E-01 1.00000E-45
1.00000E+00 1.00000E-45
