 #
 # Subroutine ELSEPA. Elastic scattering of electrons and positrons
 #                    by neutral atoms and positive ions
 #
 # Projectile: electron
 # Kinetic energy = 6.00000E+06 eV = 2.20496E+05 a.u.
 #
 # WARNING: High-energy factorization with free-atom DF screening.
 #          Absorption, polarization and exchange corrections are
 #          switched off.
 #          Phase shifts are calculated for the bare nucleus.
 #          Scattering amplitudes are not evaluated.
 #
 # Element: Br,  Z =  35,  atomic weight = 7.99040E+01 g/mol
 #
 # Nuclear model: Fermi distribution
 #                Average radius = 4.60865E-13 cm
 #                Skin thickness = 5.46000E-14 cm
 #
 # Number of electrons = 35
 #
 # Total elastic cross section = 2.73489E-18 cm**2 = 9.76647E-02 a0**2
 # 1st transport cross section = 4.68686E-23 cm**2 = 1.67371E-06 a0**2
 # 2nd transport cross section = 1.32567E-22 cm**2 = 4.73406E-06 a0**2
 #
 #
 # Differential cross section:                       MU=(1-COS(THETA))/2
 #
 #  THETA        MU          DCS          DCS        Sherman      error
 #  (deg)                 (cm**2/sr)   (a0**2/sr)    function
 #----------------------------------------------------------------------
0.00000E+00 7.96952E-13
7.61557E-13 7.96946E-13
1.18994E-12 7.96943E-13
1.71346E-12 7.96940E-13
2.33225E-12 7.96935E-13
3.04617E-12 7.96930E-13
3.85530E-12 7.96925E-13
4.75964E-12 7.96919E-13
5.75917E-12 7.96912E-13
6.85391E-12 7.96904E-13
8.04379E-12 7.96896E-13
9.32893E-12 7.96887E-13
1.07092E-11 7.96877E-13
1.21847E-11 7.96867E-13
1.37554E-11 7.96856E-13
1.54213E-11 7.96845E-13
1.71823E-11 7.96833E-13
1.90386E-11 7.96820E-13
2.09900E-11 7.96806E-13
2.30367E-11 7.96792E-13
2.51785E-11 7.96778E-13
2.74156E-11 7.96762E-13
2.97478E-11 7.96746E-13
3.21752E-11 7.96729E-13
3.46979E-11 7.96712E-13
3.73157E-11 7.96694E-13
4.00286E-11 7.96675E-13
4.28368E-11 7.96656E-13
4.57402E-11 7.96636E-13
4.87388E-11 7.96615E-13
5.18325E-11 7.96594E-13
5.50215E-11 7.96572E-13
5.83057E-11 7.96549E-13
6.16850E-11 7.96526E-13
6.51595E-11 7.96502E-13
6.87293E-11 7.96477E-13
7.23943E-11 7.96452E-13
7.61544E-11 7.96426E-13
1.18991E-10 7.96131E-13
1.71347E-10 7.95771E-13
2.33223E-10 7.95345E-13
3.04617E-10 7.94855E-13
3.85531E-10 7.94299E-13
4.75965E-10 7.93679E-13
5.75917E-10 7.92995E-13
6.85389E-10 7.92246E-13
8.04380E-10 7.91434E-13
9.32891E-10 7.90558E-13
1.07092E-09 7.89618E-13
1.21847E-09 7.88616E-13
1.37554E-09 7.87551E-13
1.54213E-09 7.86424E-13
1.71823E-09 7.85235E-13
1.90386E-09 7.83984E-13
2.09900E-09 7.82673E-13
2.30367E-09 7.81301E-13
2.51785E-09 7.79869E-13
2.74156E-09 7.78377E-13
2.97478E-09 7.76827E-13
3.21752E-09 7.75218E-13
3.46978E-09 7.73551E-13
3.73156E-09 7.71827E-13
4.00286E-09 7.70046E-13
4.28368E-09 7.68208E-13
4.57402E-09 7.66316E-13
4.87388E-09 7.64369E-13
5.18326E-09 7.62367E-13
5.50215E-09 7.60304E-13
5.83057E-09 7.58156E-13
6.16850E-09 7.55966E-13
6.51596E-09 7.53735E-13
6.87293E-09 7.51465E-13
7.23942E-09 7.49156E-13
7.61544E-09 7.46810E-13
1.18991E-08 7.20699E-13
1.71347E-08 6.90502E-13
2.33223E-08 6.57071E-13
3.04617E-08 6.21438E-13
3.85531E-08 5.84477E-13
4.75965E-08 5.46982E-13
5.75917E-08 5.09614E-13
6.85389E-08 4.72643E-13
8.04380E-08 4.36902E-13
9.32891E-08 4.02744E-13
1.07092E-07 3.70414E-13
1.21847E-07 3.40068E-13
1.37554E-07 3.11664E-13
1.54213E-07 2.85298E-13
1.71823E-07 2.61027E-13
1.90386E-07 2.38776E-13
2.09900E-07 2.18445E-13
2.30367E-07 1.99909E-13
2.51785E-07 1.82994E-13
2.74156E-07 1.67658E-13
2.97478E-07 1.53767E-13
3.21752E-07 1.41195E-13
3.46978E-07 1.29821E-13
3.73156E-07 1.19513E-13
4.00286E-07 1.10182E-13
4.28368E-07 1.01740E-13
4.57402E-07 9.40971E-14
4.87388E-07 8.71716E-14
5.18325E-07 8.08872E-14
5.50215E-07 7.51275E-14
5.83057E-07 6.97309E-14
6.16850E-07 6.48878E-14
6.51596E-07 6.05300E-14
6.87293E-07 5.65993E-14
7.23942E-07 5.30450E-14
7.61543E-07 4.98236E-14
1.18991E-06 2.83001E-14
1.71347E-06 1.75426E-14
2.33223E-06 1.14515E-14
3.04617E-06 7.74131E-15
3.85531E-06 5.36738E-15
4.75964E-06 3.80137E-15
5.75916E-06 2.74545E-15
6.85388E-06 2.01842E-15
8.04378E-06 1.51294E-15
9.32888E-06 1.15499E-15
1.07092E-05 8.96931E-16
1.21846E-05 7.07598E-16
1.37553E-05 5.66308E-16
1.54212E-05 4.59022E-16
1.71822E-05 3.76481E-16
1.90385E-05 3.12036E-16
2.09899E-05 2.61147E-16
2.30365E-05 2.20378E-16
2.51783E-05 1.87320E-16
2.74153E-05 1.60273E-16
2.97475E-05 1.37957E-16
3.21749E-05 1.19405E-16
3.46974E-05 1.03877E-16
3.73152E-05 9.07862E-17
4.00281E-05 7.96875E-17
4.28362E-05 7.02262E-17
4.57395E-05 6.21170E-17
4.87380E-05 5.51329E-17
5.18317E-05 4.90906E-17
5.50205E-05 4.38349E-17
5.83045E-05 3.92396E-17
6.16838E-05 3.52453E-17
6.51582E-05 3.17596E-17
6.87277E-05 2.86671E-17
7.23925E-05 2.59414E-17
7.61524E-05 2.35388E-17
9.21439E-05 1.62847E-17
1.09658E-04 1.16071E-17
1.28695E-04 8.49257E-18
1.49255E-04 6.35576E-18
1.71338E-04 4.85156E-18
1.94942E-04 3.76800E-18
2.20070E-04 2.97137E-18
2.46720E-04 2.37517E-18
2.74892E-04 1.92170E-18
3.04586E-04 1.57182E-18
3.35803E-04 1.29828E-18
3.68542E-04 1.08190E-18
4.02802E-04 9.08852E-19
4.38585E-04 7.69141E-19
4.75889E-04 6.55331E-19
5.14715E-04 5.61850E-19
5.55063E-04 4.84488E-19
5.96931E-04 4.20006E-19
6.40321E-04 3.65914E-19
6.85233E-04 3.20268E-19
7.31665E-04 2.81530E-19
7.79618E-04 2.48483E-19
8.29092E-04 2.20149E-19
8.80086E-04 1.95742E-19
9.32601E-04 1.74629E-19
9.86636E-04 1.56290E-19
1.04219E-03 1.40299E-19
1.09927E-03 1.26304E-19
1.15786E-03 1.14012E-19
1.21797E-03 1.03181E-19
1.27961E-03 9.36074E-20
1.34276E-03 8.51203E-20
1.40743E-03 7.75748E-20
1.47362E-03 7.08482E-20
1.54133E-03 6.48358E-20
1.61056E-03 5.94488E-20
1.68131E-03 5.46107E-20
1.75357E-03 5.02557E-20
1.82735E-03 4.63271E-20
1.90265E-03 4.27755E-20
1.97947E-03 3.95584E-20
2.05780E-03 3.66388E-20
2.13765E-03 3.39841E-20
2.21902E-03 3.15661E-20
2.30190E-03 2.93599E-20
2.38630E-03 2.73434E-20
2.47222E-03 2.54976E-20
2.55965E-03 2.38053E-20
2.64859E-03 2.22515E-20
2.73905E-03 2.08227E-20
2.83103E-03 1.95071E-20
2.92452E-03 1.82940E-20
3.01952E-03 1.71741E-20
3.11604E-03 1.61388E-20
3.21407E-03 1.51806E-20
3.31362E-03 1.42927E-20
3.41468E-03 1.34690E-20
3.51725E-03 1.27040E-20
3.62133E-03 1.19927E-20
3.72692E-03 1.13307E-20
3.83403E-03 1.07138E-20
3.94265E-03 1.01386E-20
4.05278E-03 9.60156E-21
4.16442E-03 9.09976E-21
4.27757E-03 8.63045E-21
4.39223E-03 8.19112E-21
4.50840E-03 7.77951E-21
4.62608E-03 7.39353E-21
4.74527E-03 7.03129E-21
4.86597E-03 6.69106E-21
4.98817E-03 6.37125E-21
5.11188E-03 6.07041E-21
5.23711E-03 5.78718E-21
5.36383E-03 5.52036E-21
5.49207E-03 5.26881E-21
5.62181E-03 5.03149E-21
5.75306E-03 4.80745E-21
5.88581E-03 4.59580E-21
6.02007E-03 4.39572E-21
6.15583E-03 4.20647E-21
6.29310E-03 4.02734E-21
6.43187E-03 3.85770E-21
6.57214E-03 3.69694E-21
6.71392E-03 3.54450E-21
6.85720E-03 3.39989E-21
7.00198E-03 3.26261E-21
7.14827E-03 3.13223E-21
7.29605E-03 3.00833E-21
7.44534E-03 2.89054E-21
7.59612E-03 2.77848E-21
7.97965E-03 2.52131E-21
8.37255E-03 2.29338E-21
8.77480E-03 2.09077E-21
9.18641E-03 1.91017E-21
9.60736E-03 1.74876E-21
1.00376E-02 1.60414E-21
1.04773E-02 1.47425E-21
1.09262E-02 1.35733E-21
1.13844E-02 1.25184E-21
1.18520E-02 1.15646E-21
1.23288E-02 1.07005E-21
1.28150E-02 9.91620E-22
1.33104E-02 9.20289E-22
1.38150E-02 8.55299E-22
1.43290E-02 7.95984E-22
1.48521E-02 7.41757E-22
1.53845E-02 6.92101E-22
1.59262E-02 6.46561E-22
1.64770E-02 6.04731E-22
1.70371E-02 5.66254E-22
1.76063E-02 5.30811E-22
1.81848E-02 4.98117E-22
1.87724E-02 4.67921E-22
1.93692E-02 4.39995E-22
1.99751E-02 4.14137E-22
2.05901E-02 3.90165E-22
2.12143E-02 3.67916E-22
2.18476E-02 3.47242E-22
2.24900E-02 3.28012E-22
2.31415E-02 3.10104E-22
2.38021E-02 2.93411E-22
2.44717E-02 2.77836E-22
2.51504E-02 2.63288E-22
2.58382E-02 2.49687E-22
2.65349E-02 2.36961E-22
2.72407E-02 2.25041E-22
2.79555E-02 2.13867E-22
2.86793E-02 2.03384E-22
2.94120E-02 1.93540E-22
3.01537E-02 1.84290E-22
3.09043E-02 1.75590E-22
3.16639E-02 1.67402E-22
3.24324E-02 1.59689E-22
3.32098E-02 1.52419E-22
3.39961E-02 1.45561E-22
3.47912E-02 1.39087E-22
3.55952E-02 1.32973E-22
3.64081E-02 1.27193E-22
3.72297E-02 1.21727E-22
3.80602E-02 1.16553E-22
3.88995E-02 1.11654E-22
3.97476E-02 1.07011E-22
4.06044E-02 1.02609E-22
4.14700E-02 9.84332E-23
4.23443E-02 9.44691E-23
4.32273E-02 9.07042E-23
4.41190E-02 8.71263E-23
4.50194E-02 8.37245E-23
4.59284E-02 8.04885E-23
4.68461E-02 7.74085E-23
4.87074E-02 7.16812E-23
5.06030E-02 6.64777E-23
5.25328E-02 6.17413E-23
5.44967E-02 5.74222E-23
5.64946E-02 5.34769E-23
5.85262E-02 4.98668E-23
6.05914E-02 4.65584E-23
6.26901E-02 4.35216E-23
6.48222E-02 4.07299E-23
6.69873E-02 3.81600E-23
6.91854E-02 3.57906E-23
7.14163E-02 3.36035E-23
7.36799E-02 3.15818E-23
7.59760E-02 2.97107E-23
7.83043E-02 2.79768E-23
8.06647E-02 2.63682E-23
8.30571E-02 2.48740E-23
8.54812E-02 2.34847E-23
8.79369E-02 2.21915E-23
9.04240E-02 2.09863E-23
9.29422E-02 1.98622E-23
9.54915E-02 1.88126E-23
9.80716E-02 1.78316E-23
1.00682E-01 1.69138E-23
1.03323E-01 1.60545E-23
1.05995E-01 1.52492E-23
1.08696E-01 1.44938E-23
1.11427E-01 1.37847E-23
1.14188E-01 1.31184E-23
1.16978E-01 1.24919E-23
1.19797E-01 1.19024E-23
1.22645E-01 1.13472E-23
1.25522E-01 1.08240E-23
1.28428E-01 1.03305E-23
1.31361E-01 9.86481E-24
1.34323E-01 9.42499E-24
1.37313E-01 9.00936E-24
1.40330E-01 8.61631E-24
1.43375E-01 8.24438E-24
1.46447E-01 7.89220E-24
1.49545E-01 7.55854E-24
1.52671E-01 7.24224E-24
1.55823E-01 6.94222E-24
1.59001E-01 6.65748E-24
1.62205E-01 6.38707E-24
1.65435E-01 6.13015E-24
1.68690E-01 5.88591E-24
1.71970E-01 5.65362E-24
1.75276E-01 5.43256E-24
1.78606E-01 5.22210E-24
1.81961E-01 5.02161E-24
1.85340E-01 4.83054E-24
1.88743E-01 4.64837E-24
1.92169E-01 4.47460E-24
1.95619E-01 4.30877E-24
1.99092E-01 4.15044E-24
2.02589E-01 3.99920E-24
2.06107E-01 3.85468E-24
2.09649E-01 3.71652E-24
2.13212E-01 3.58440E-24
2.16797E-01 3.45800E-24
2.20404E-01 3.33701E-24
2.24032E-01 3.22116E-24
2.27680E-01 3.11019E-24
2.31350E-01 3.00386E-24
2.35040E-01 2.90195E-24
2.38751E-01 2.80422E-24
2.42481E-01 2.71047E-24
2.46231E-01 2.62049E-24
2.50000E-01 2.53414E-24
2.53788E-01 2.45124E-24
2.57595E-01 2.37159E-24
2.61421E-01 2.29505E-24
2.65264E-01 2.22149E-24
2.69126E-01 2.15078E-24
2.73005E-01 2.08276E-24
2.76901E-01 2.01733E-24
2.80814E-01 1.95436E-24
2.84744E-01 1.89374E-24
2.88691E-01 1.83538E-24
2.92653E-01 1.77917E-24
2.96632E-01 1.72501E-24
3.00625E-01 1.67282E-24
3.04634E-01 1.62251E-24
3.08658E-01 1.57400E-24
3.12697E-01 1.52722E-24
3.16749E-01 1.48208E-24
3.20816E-01 1.43853E-24
3.24896E-01 1.39650E-24
3.28990E-01 1.35592E-24
3.33097E-01 1.31673E-24
3.37216E-01 1.27888E-24
3.41348E-01 1.24231E-24
3.45492E-01 1.20698E-24
3.49647E-01 1.17282E-24
3.53814E-01 1.13980E-24
3.57992E-01 1.10788E-24
3.62181E-01 1.07699E-24
3.66381E-01 1.04712E-24
3.70590E-01 1.01821E-24
3.74810E-01 9.90238E-25
3.79039E-01 9.63158E-25
3.83277E-01 9.36939E-25
3.87524E-01 9.11550E-25
3.91780E-01 8.86957E-25
3.96044E-01 8.63134E-25
4.00316E-01 8.40049E-25
4.04596E-01 8.17678E-25
4.08882E-01 7.95993E-25
4.13176E-01 7.74969E-25
4.17476E-01 7.54584E-25
4.21783E-01 7.34813E-25
4.26095E-01 7.15636E-25
4.30413E-01 6.97030E-25
4.34737E-01 6.78977E-25
4.39065E-01 6.61455E-25
4.43398E-01 6.44448E-25
4.47736E-01 6.27937E-25
4.52077E-01 6.11906E-25
4.56422E-01 5.96337E-25
4.60770E-01 5.81215E-25
4.65122E-01 5.66525E-25
4.69476E-01 5.52252E-25
4.73832E-01 5.38383E-25
4.78190E-01 5.24904E-25
4.82550E-01 5.11802E-25
4.86912E-01 4.99064E-25
4.91274E-01 4.86680E-25
4.95637E-01 4.74637E-25
5.00000E-01 4.62924E-25
5.04363E-01 4.51531E-25
5.08726E-01 4.40447E-25
5.13088E-01 4.29662E-25
5.17450E-01 4.19168E-25
5.21810E-01 4.08955E-25
5.26168E-01 3.99014E-25
5.30524E-01 3.89336E-25
5.34878E-01 3.79914E-25
5.39230E-01 3.70740E-25
5.43578E-01 3.61806E-25
5.47923E-01 3.53104E-25
5.52264E-01 3.44628E-25
5.56602E-01 3.36370E-25
5.60935E-01 3.28325E-25
5.65263E-01 3.20486E-25
5.69587E-01 3.12846E-25
5.73905E-01 3.05400E-25
5.78217E-01 2.98143E-25
5.82524E-01 2.91067E-25
5.86824E-01 2.84170E-25
5.91118E-01 2.77444E-25
5.95404E-01 2.70885E-25
5.99684E-01 2.64488E-25
6.03956E-01 2.58250E-25
6.08220E-01 2.52164E-25
6.12476E-01 2.46227E-25
6.16723E-01 2.40435E-25
6.20961E-01 2.34783E-25
6.25190E-01 2.29268E-25
6.29410E-01 2.23886E-25
6.33619E-01 2.18633E-25
6.37819E-01 2.13505E-25
6.42008E-01 2.08499E-25
6.46186E-01 2.03613E-25
6.50353E-01 1.98842E-25
6.54508E-01 1.94183E-25
6.58652E-01 1.89634E-25
6.62784E-01 1.85191E-25
6.66903E-01 1.80851E-25
6.71010E-01 1.76613E-25
6.75104E-01 1.72473E-25
6.79184E-01 1.68428E-25
6.83251E-01 1.64477E-25
6.87303E-01 1.60616E-25
6.91342E-01 1.56843E-25
6.95366E-01 1.53157E-25
6.99375E-01 1.49554E-25
7.03368E-01 1.46033E-25
7.07347E-01 1.42592E-25
7.11309E-01 1.39228E-25
7.15256E-01 1.35940E-25
7.19186E-01 1.32725E-25
7.23099E-01 1.29582E-25
7.26995E-01 1.26510E-25
7.30874E-01 1.23505E-25
7.34736E-01 1.20567E-25
7.38579E-01 1.17695E-25
7.42405E-01 1.14885E-25
7.46212E-01 1.12138E-25
7.50000E-01 1.09450E-25
7.53769E-01 1.06822E-25
7.57519E-01 1.04251E-25
7.61249E-01 1.01736E-25
7.64960E-01 9.92764E-26
7.68650E-01 9.68698E-26
7.72320E-01 9.45154E-26
7.75968E-01 9.22120E-26
7.79596E-01 8.99583E-26
7.83203E-01 8.77532E-26
7.86788E-01 8.55957E-26
7.90351E-01 8.34844E-26
7.93893E-01 8.14186E-26
7.97411E-01 7.93969E-26
8.00908E-01 7.74186E-26
8.04381E-01 7.54825E-26
8.07831E-01 7.35878E-26
8.11257E-01 7.17335E-26
8.14660E-01 6.99187E-26
8.18039E-01 6.81426E-26
8.21394E-01 6.64042E-26
8.24724E-01 6.47028E-26
8.28030E-01 6.30375E-26
8.31310E-01 6.14075E-26
8.34565E-01 5.98121E-26
8.37795E-01 5.82506E-26
8.40999E-01 5.67222E-26
8.44177E-01 5.52262E-26
8.47329E-01 5.37620E-26
8.50455E-01 5.23288E-26
8.53553E-01 5.09259E-26
8.56625E-01 4.95529E-26
8.59670E-01 4.82090E-26
8.62687E-01 4.68937E-26
8.65677E-01 4.56063E-26
8.68639E-01 4.43464E-26
8.71572E-01 4.31132E-26
8.74478E-01 4.19064E-26
8.77355E-01 4.07254E-26
8.80203E-01 3.95696E-26
8.83022E-01 3.84386E-26
8.85812E-01 3.73319E-26
8.88573E-01 3.62490E-26
8.91304E-01 3.51894E-26
8.94005E-01 3.41528E-26
8.96677E-01 3.31386E-26
8.99318E-01 3.21464E-26
9.01928E-01 3.11759E-26
9.04508E-01 3.02266E-26
9.07058E-01 2.92981E-26
9.09576E-01 2.83901E-26
9.12063E-01 2.75021E-26
9.14519E-01 2.66339E-26
9.16943E-01 2.57850E-26
9.19335E-01 2.49551E-26
9.21696E-01 2.41439E-26
9.24024E-01 2.33511E-26
9.26320E-01 2.25763E-26
9.28584E-01 2.18193E-26
9.30815E-01 2.10796E-26
9.33013E-01 2.03571E-26
9.35178E-01 1.96515E-26
9.37310E-01 1.89624E-26
9.39409E-01 1.82897E-26
9.41474E-01 1.76330E-26
9.43505E-01 1.69920E-26
9.45503E-01 1.63667E-26
9.47467E-01 1.57566E-26
9.49397E-01 1.51616E-26
9.51293E-01 1.45814E-26
9.53154E-01 1.40158E-26
9.54981E-01 1.34647E-26
9.56773E-01 1.29277E-26
9.58530E-01 1.24047E-26
9.60252E-01 1.18955E-26
9.61940E-01 1.13999E-26
9.63592E-01 1.09178E-26
9.65209E-01 1.04489E-26
9.66790E-01 9.99299E-27
9.68336E-01 9.55001E-27
9.69846E-01 9.11977E-27
9.71321E-01 8.70209E-27
9.72759E-01 8.29682E-27
9.74162E-01 7.90383E-27
9.75528E-01 7.52295E-27
9.76858E-01 7.15406E-27
9.78152E-01 6.79701E-27
9.79410E-01 6.45168E-27
9.80631E-01 6.11795E-27
9.81815E-01 5.79568E-27
9.82963E-01 5.48477E-27
9.84074E-01 5.18511E-27
9.85148E-01 4.89657E-27
9.86185E-01 4.61907E-27
9.87185E-01 4.35250E-27
9.88148E-01 4.09676E-27
9.89074E-01 3.85177E-27
9.89962E-01 3.61743E-27
9.90814E-01 3.39367E-27
9.91627E-01 3.18040E-27
9.92404E-01 2.97754E-27
9.93143E-01 2.78503E-27
9.93844E-01 2.60280E-27
9.94508E-01 2.43078E-27
9.95134E-01 2.26891E-27
9.95722E-01 2.11713E-27
9.96273E-01 1.97540E-27
9.96786E-01 1.84365E-27
9.97261E-01 1.72185E-27
9.97698E-01 1.60995E-27
9.98097E-01 1.50791E-27
9.98459E-01 1.41570E-27
9.98782E-01 1.33328E-27
9.99067E-01 1.26062E-27
9.99315E-01 1.19771E-27
9.99524E-01 1.14451E-27
9.99695E-01 1.10100E-27
9.99829E-01 1.06719E-27
9.99924E-01 1.04304E-27
9.99981E-01 1.02855E-27
1.00000E+00 1.02372E-27
