 #
 # Subroutine ELSEPA. Elastic scattering of electrons and positrons
 #                    by neutral atoms and positive ions
 #
 # Projectile: electron
 # Kinetic energy = 9.00000E+07 eV = 3.30744E+06 a.u.
 #
 # WARNING: High-energy factorization with free-atom DF screening.
 #          Absorption, polarization and exchange corrections are
 #          switched off.
 #          Phase shifts are calculated for the bare nucleus.
 #          Scattering amplitudes are not evaluated.
 #
 # Element: Br,  Z =  35,  atomic weight = 7.99040E+01 g/mol
 #
 # Nuclear model: Fermi distribution
 #                Average radius = 4.60865E-13 cm
 #                Skin thickness = 5.46000E-14 cm
 #
 # Number of electrons = 35
 #
 # Total elastic cross section = 2.71493E-18 cm**2 = 9.69519E-02 a0**2
 # 1st transport cross section = 3.02439E-25 cm**2 = 1.08003E-08 a0**2
 # 2nd transport cross section = 8.97786E-25 cm**2 = 3.20605E-08 a0**2
 #
 #
 # Differential cross section:                       MU=(1-COS(THETA))/2
 #
 #  THETA        MU          DCS          DCS        Sherman      error
 #  (deg)                 (cm**2/sr)   (a0**2/sr)    function
 #----------------------------------------------------------------------
0.00000E+00 1.54007E-10
7.61557E-13 1.53808E-10
1.18994E-12 1.53697E-10
1.71346E-12 1.53562E-10
2.33225E-12 1.53402E-10
3.04617E-12 1.53218E-10
3.85530E-12 1.53010E-10
4.75964E-12 1.52778E-10
5.75917E-12 1.52522E-10
6.85391E-12 1.52243E-10
8.04379E-12 1.51940E-10
9.32893E-12 1.51614E-10
1.07092E-11 1.51265E-10
1.21847E-11 1.50893E-10
1.37554E-11 1.50499E-10
1.54213E-11 1.50082E-10
1.71823E-11 1.49644E-10
1.90386E-11 1.49184E-10
2.09900E-11 1.48702E-10
2.30367E-11 1.48200E-10
2.51785E-11 1.47677E-10
2.74156E-11 1.47133E-10
2.97478E-11 1.46562E-10
3.21752E-11 1.45971E-10
3.46979E-11 1.45364E-10
3.73157E-11 1.44743E-10
4.00286E-11 1.44109E-10
4.28368E-11 1.43461E-10
4.57402E-11 1.42779E-10
4.87388E-11 1.42076E-10
5.18325E-11 1.41361E-10
5.50215E-11 1.40635E-10
5.83057E-11 1.39900E-10
6.16850E-11 1.39156E-10
6.51595E-11 1.38378E-10
6.87293E-11 1.37576E-10
7.23943E-11 1.36768E-10
7.61544E-11 1.35953E-10
1.18991E-10 1.27154E-10
1.71347E-10 1.17512E-10
2.33223E-10 1.07406E-10
3.04617E-10 9.73216E-11
3.85531E-10 8.75048E-11
4.75965E-10 7.81740E-11
5.75917E-10 6.95429E-11
6.85389E-10 6.16327E-11
8.04380E-10 5.44977E-11
9.32891E-10 4.81509E-11
1.07092E-09 4.25152E-11
1.21847E-09 3.75643E-11
1.37554E-09 3.32394E-11
1.54213E-09 2.94536E-11
1.71823E-09 2.61619E-11
1.90386E-09 2.33014E-11
2.09900E-09 2.08066E-11
2.30367E-09 1.86380E-11
2.51785E-09 1.67484E-11
2.74156E-09 1.50961E-11
2.97478E-09 1.36081E-11
3.21752E-09 1.23107E-11
3.46978E-09 1.11900E-11
3.73156E-09 1.02173E-11
4.00286E-09 9.36908E-12
4.28368E-09 8.62622E-12
4.57402E-09 7.92929E-12
4.87388E-09 7.29727E-12
5.18326E-09 6.73920E-12
5.50215E-09 6.24458E-12
5.83057E-09 5.80466E-12
6.16850E-09 5.41204E-12
6.51596E-09 5.03823E-12
6.87293E-09 4.69077E-12
7.23942E-09 4.37886E-12
7.61544E-09 4.09805E-12
1.18991E-08 2.23683E-12
1.71347E-08 1.30590E-12
2.33223E-08 7.94818E-13
3.04617E-08 5.04123E-13
3.85531E-08 3.31631E-13
4.75965E-08 2.26079E-13
5.75917E-08 1.59380E-13
6.85389E-08 1.15736E-13
8.04380E-08 8.62347E-14
9.32891E-08 6.57239E-14
1.07092E-07 5.10648E-14
1.21847E-07 4.03320E-14
1.37554E-07 3.23062E-14
1.54213E-07 2.61861E-14
1.71823E-07 2.14531E-14
1.90386E-07 1.77434E-14
2.09900E-07 1.47965E-14
2.30367E-07 1.24336E-14
2.51785E-07 1.05199E-14
2.74156E-07 8.95571E-15
2.97478E-07 7.66396E-15
3.21752E-07 6.59912E-15
3.46978E-07 5.71288E-15
3.73156E-07 4.96587E-15
4.00286E-07 4.33930E-15
4.28368E-07 3.80475E-15
4.57402E-07 3.35074E-15
4.87388E-07 2.96200E-15
5.18325E-07 2.62735E-15
5.50215E-07 2.33918E-15
5.83057E-07 2.08846E-15
6.16850E-07 1.87083E-15
6.51596E-07 1.68062E-15
6.87293E-07 1.51396E-15
7.23942E-07 1.36757E-15
7.61543E-07 1.23827E-15
1.18991E-06 5.15737E-16
1.71347E-06 2.51948E-16
2.33223E-06 1.37395E-16
3.04617E-06 8.11855E-17
3.85531E-06 5.09974E-17
4.75964E-06 3.36193E-17
5.75916E-06 2.30477E-17
6.85388E-06 1.63205E-17
8.04378E-06 1.18763E-17
9.32888E-06 8.84596E-18
1.07092E-05 6.72269E-18
1.21846E-05 5.19953E-18
1.37553E-05 4.08408E-18
1.54212E-05 3.25221E-18
1.71822E-05 2.62166E-18
1.90385E-05 2.13651E-18
2.09899E-05 1.75902E-18
2.30365E-05 1.46125E-18
2.51783E-05 1.22381E-18
2.74153E-05 1.03261E-18
2.97475E-05 8.77290E-19
3.21749E-05 7.50102E-19
3.46974E-05 6.45168E-19
3.73152E-05 5.57983E-19
4.00281E-05 4.85062E-19
4.28362E-05 4.23684E-19
4.57395E-05 3.71715E-19
4.87380E-05 3.27472E-19
5.18317E-05 2.89613E-19
5.50205E-05 2.57065E-19
5.83045E-05 2.28963E-19
6.16838E-05 2.04600E-19
6.51582E-05 1.83396E-19
6.87277E-05 1.64874E-19
7.23925E-05 1.48634E-19
7.61524E-05 1.34379E-19
9.21439E-05 9.18524E-20
1.09658E-04 6.48986E-20
1.28695E-04 4.71517E-20
1.49255E-04 3.50782E-20
1.71338E-04 2.66364E-20
1.94942E-04 2.05890E-20
2.20070E-04 1.61656E-20
2.46720E-04 1.28697E-20
2.74892E-04 1.03730E-20
3.04586E-04 8.45403E-21
3.35803E-04 6.95925E-21
3.68542E-04 5.78101E-21
4.02802E-04 4.84212E-21
4.38585E-04 4.08647E-21
4.75889E-04 3.47280E-21
5.14715E-04 2.97020E-21
5.55063E-04 2.55543E-21
5.96931E-04 2.21065E-21
6.40321E-04 1.92217E-21
6.85233E-04 1.67930E-21
7.31665E-04 1.47363E-21
7.79618E-04 1.29855E-21
8.29092E-04 1.14873E-21
8.80086E-04 1.01993E-21
9.32601E-04 9.08712E-22
9.86636E-04 8.12257E-22
1.04219E-03 7.28282E-22
1.09927E-03 6.54893E-22
1.15786E-03 5.90528E-22
1.21797E-03 5.33889E-22
1.27961E-03 4.83882E-22
1.34276E-03 4.39605E-22
1.40743E-03 4.00281E-22
1.47362E-03 3.65260E-22
1.54133E-03 3.33990E-22
1.61056E-03 3.05998E-22
1.68131E-03 2.80879E-22
1.75357E-03 2.58288E-22
1.82735E-03 2.37924E-22
1.90265E-03 2.19528E-22
1.97947E-03 2.02878E-22
2.05780E-03 1.87777E-22
2.13765E-03 1.74055E-22
2.21902E-03 1.61565E-22
2.30190E-03 1.50175E-22
2.38630E-03 1.39772E-22
2.47222E-03 1.30254E-22
2.55965E-03 1.21532E-22
2.64859E-03 1.13528E-22
2.73905E-03 1.06173E-22
2.83103E-03 9.94027E-23
2.92452E-03 9.31636E-23
3.01952E-03 8.74061E-23
3.11604E-03 8.20862E-23
3.21407E-03 7.71646E-23
3.31362E-03 7.26061E-23
3.41468E-03 6.83789E-23
3.51725E-03 6.44545E-23
3.62133E-03 6.08073E-23
3.72692E-03 5.74141E-23
3.83403E-03 5.42539E-23
3.94265E-03 5.13078E-23
4.05278E-03 4.85586E-23
4.16442E-03 4.59907E-23
4.27757E-03 4.35899E-23
4.39223E-03 4.13435E-23
4.50840E-03 3.92395E-23
4.62608E-03 3.72673E-23
4.74527E-03 3.54172E-23
4.86597E-03 3.36801E-23
4.98817E-03 3.20478E-23
5.11188E-03 3.05130E-23
5.23711E-03 2.90686E-23
5.36383E-03 2.77083E-23
5.49207E-03 2.64264E-23
5.62181E-03 2.52175E-23
5.75306E-03 2.40766E-23
5.88581E-03 2.29993E-23
6.02007E-03 2.19812E-23
6.15583E-03 2.10186E-23
6.29310E-03 2.01079E-23
6.43187E-03 1.92456E-23
6.57214E-03 1.84289E-23
6.71392E-03 1.76548E-23
6.85720E-03 1.69207E-23
7.00198E-03 1.62241E-23
7.14827E-03 1.55627E-23
7.29605E-03 1.49345E-23
7.44534E-03 1.43375E-23
7.59612E-03 1.37698E-23
7.97965E-03 1.24679E-23
8.37255E-03 1.13152E-23
8.77480E-03 1.02916E-23
9.18641E-03 9.38029E-24
9.60736E-03 8.56673E-24
1.00376E-02 7.83864E-24
1.04773E-02 7.18549E-24
1.09262E-02 6.59824E-24
1.13844E-02 6.06908E-24
1.18520E-02 5.59127E-24
1.23288E-02 5.15896E-24
1.28150E-02 4.76707E-24
1.33104E-02 4.41115E-24
1.38150E-02 4.08733E-24
1.43290E-02 3.79222E-24
1.48521E-02 3.52282E-24
1.53845E-02 3.27650E-24
1.59262E-02 3.05094E-24
1.64770E-02 2.84409E-24
1.70371E-02 2.65413E-24
1.76063E-02 2.47943E-24
1.81848E-02 2.31856E-24
1.87724E-02 2.17023E-24
1.93692E-02 2.03330E-24
1.99751E-02 1.90673E-24
2.05901E-02 1.78961E-24
2.12143E-02 1.68111E-24
2.18476E-02 1.58049E-24
2.24900E-02 1.48707E-24
2.31415E-02 1.40025E-24
2.38021E-02 1.31948E-24
2.44717E-02 1.24428E-24
2.51504E-02 1.17418E-24
2.58382E-02 1.10879E-24
2.65349E-02 1.04773E-24
2.72407E-02 9.90675E-25
2.79555E-02 9.37307E-25
2.86793E-02 8.87352E-25
2.94120E-02 8.40554E-25
3.01537E-02 7.96680E-25
3.09043E-02 7.55516E-25
3.16639E-02 7.16867E-25
3.24324E-02 6.80553E-25
3.32098E-02 6.46410E-25
3.39961E-02 6.14287E-25
3.47912E-02 5.84043E-25
3.55952E-02 5.55551E-25
3.64081E-02 5.28692E-25
3.72297E-02 5.03358E-25
3.80602E-02 4.79447E-25
3.88995E-02 4.56867E-25
3.97476E-02 4.35532E-25
4.06044E-02 4.15361E-25
4.14700E-02 3.96281E-25
4.23443E-02 3.78223E-25
4.32273E-02 3.61124E-25
4.41190E-02 3.44924E-25
4.50194E-02 3.29570E-25
4.59284E-02 3.15009E-25
4.68461E-02 3.01194E-25
4.87074E-02 2.75629E-25
5.06030E-02 2.52555E-25
5.25328E-02 2.31694E-25
5.44967E-02 2.12803E-25
5.64946E-02 1.95670E-25
5.85262E-02 1.80106E-25
6.05914E-02 1.65949E-25
6.26901E-02 1.53053E-25
6.48222E-02 1.41290E-25
6.69873E-02 1.30548E-25
6.91854E-02 1.20725E-25
7.14163E-02 1.11733E-25
7.36799E-02 1.03491E-25
7.59760E-02 9.59295E-26
7.83043E-02 8.89844E-26
8.06647E-02 8.25992E-26
8.30571E-02 7.67230E-26
8.54812E-02 7.13102E-26
8.79369E-02 6.63198E-26
9.04240E-02 6.17149E-26
9.29422E-02 5.74620E-26
9.54915E-02 5.35311E-26
9.80716E-02 4.98951E-26
1.00682E-01 4.65292E-26
1.03323E-01 4.34112E-26
1.05995E-01 4.05207E-26
1.08696E-01 3.78395E-26
1.11427E-01 3.53506E-26
1.14188E-01 3.30389E-26
1.16978E-01 3.08905E-26
1.19797E-01 2.88926E-26
1.22645E-01 2.70337E-26
1.25522E-01 2.53032E-26
1.28428E-01 2.36913E-26
1.31361E-01 2.21891E-26
1.34323E-01 2.07885E-26
1.37313E-01 1.94821E-26
1.40330E-01 1.82629E-26
1.43375E-01 1.71246E-26
1.46447E-01 1.60614E-26
1.49545E-01 1.50679E-26
1.52671E-01 1.41392E-26
1.55823E-01 1.32707E-26
1.59001E-01 1.24583E-26
1.62205E-01 1.16980E-26
1.65435E-01 1.09863E-26
1.68690E-01 1.03198E-26
1.71970E-01 9.69547E-27
1.75276E-01 9.11046E-27
1.78606E-01 8.56215E-27
1.81961E-01 8.04806E-27
1.85340E-01 7.56595E-27
1.88743E-01 7.11370E-27
1.92169E-01 6.68936E-27
1.95619E-01 6.29111E-27
1.99092E-01 5.91725E-27
2.02589E-01 5.56622E-27
2.06107E-01 5.23656E-27
2.09649E-01 4.92689E-27
2.13212E-01 4.63595E-27
2.16797E-01 4.36256E-27
2.20404E-01 4.10560E-27
2.24032E-01 3.86406E-27
2.27680E-01 3.63697E-27
2.31350E-01 3.42343E-27
2.35040E-01 3.22260E-27
2.38751E-01 3.03370E-27
2.42481E-01 2.85601E-27
2.46231E-01 2.68882E-27
2.50000E-01 2.53151E-27
2.53788E-01 2.38347E-27
2.57595E-01 2.24414E-27
2.61421E-01 2.11299E-27
2.65264E-01 1.98954E-27
2.69126E-01 1.87332E-27
2.73005E-01 1.76390E-27
2.76901E-01 1.66088E-27
2.80814E-01 1.56386E-27
2.84744E-01 1.47250E-27
2.88691E-01 1.38647E-27
2.92653E-01 1.30544E-27
2.96632E-01 1.22912E-27
3.00625E-01 1.15724E-27
3.04634E-01 1.08953E-27
3.08658E-01 1.02576E-27
3.12697E-01 9.65679E-28
3.16749E-01 9.09086E-28
3.20816E-01 8.55775E-28
3.24896E-01 8.05555E-28
3.28990E-01 7.58245E-28
3.33097E-01 7.13678E-28
3.37216E-01 6.71694E-28
3.41348E-01 6.32143E-28
3.45492E-01 5.94885E-28
3.49647E-01 5.59788E-28
3.53814E-01 5.26726E-28
3.57992E-01 4.95584E-28
3.62181E-01 4.66249E-28
3.66381E-01 4.38618E-28
3.70590E-01 4.12592E-28
3.74810E-01 3.88080E-28
3.79039E-01 3.64995E-28
3.83277E-01 3.43254E-28
3.87524E-01 3.22780E-28
3.91780E-01 3.03501E-28
3.96044E-01 2.85348E-28
4.00316E-01 2.68255E-28
4.04596E-01 2.52163E-28
4.08882E-01 2.37014E-28
4.13176E-01 2.22753E-28
4.17476E-01 2.09330E-28
4.21783E-01 1.96696E-28
4.26095E-01 1.84806E-28
4.30413E-01 1.73617E-28
4.34737E-01 1.63089E-28
4.39065E-01 1.53183E-28
4.43398E-01 1.43864E-28
4.47736E-01 1.35099E-28
4.52077E-01 1.26854E-28
4.56422E-01 1.19100E-28
4.60770E-01 1.11809E-28
4.65122E-01 1.04953E-28
4.69476E-01 9.85077E-29
4.73832E-01 9.24491E-29
4.78190E-01 8.67545E-29
4.82550E-01 8.14030E-29
4.86912E-01 7.63744E-29
4.91274E-01 7.16499E-29
4.95637E-01 6.72117E-29
5.00000E-01 6.30431E-29
5.04363E-01 5.91283E-29
5.08726E-01 5.54524E-29
5.13088E-01 5.20012E-29
5.17450E-01 4.87616E-29
5.21810E-01 4.57211E-29
5.26168E-01 4.28678E-29
5.30524E-01 4.01907E-29
5.34878E-01 3.76794E-29
5.39230E-01 3.53239E-29
5.43578E-01 3.31149E-29
5.47923E-01 3.10437E-29
5.52264E-01 2.91020E-29
5.56602E-01 2.72821E-29
5.60935E-01 2.55765E-29
5.65263E-01 2.39785E-29
5.69587E-01 2.24814E-29
5.73905E-01 2.10792E-29
5.78217E-01 1.97660E-29
5.82524E-01 1.85365E-29
5.86824E-01 1.73856E-29
5.91118E-01 1.63083E-29
5.95404E-01 1.53002E-29
5.99684E-01 1.43569E-29
6.03956E-01 1.34746E-29
6.08220E-01 1.26493E-29
6.12476E-01 1.18775E-29
6.16723E-01 1.11559E-29
6.20961E-01 1.04814E-29
6.25190E-01 9.85089E-30
6.29410E-01 9.26167E-30
6.33619E-01 8.71111E-30
6.37819E-01 8.19675E-30
6.42008E-01 7.71627E-30
6.46186E-01 7.26750E-30
6.50353E-01 6.84839E-30
6.54508E-01 6.45704E-30
6.58652E-01 6.09163E-30
6.62784E-01 5.75048E-30
6.66903E-01 5.43200E-30
6.71010E-01 5.13471E-30
6.75104E-01 4.85719E-30
6.79184E-01 4.59814E-30
6.83251E-01 4.35634E-30
6.87303E-01 4.13062E-30
6.91342E-01 3.91992E-30
6.95366E-01 3.72320E-30
6.99375E-01 3.53954E-30
7.03368E-01 3.36803E-30
7.07347E-01 3.20785E-30
7.11309E-01 3.05822E-30
7.15256E-01 2.91841E-30
7.19186E-01 2.78774E-30
7.23099E-01 2.66557E-30
7.26995E-01 2.55130E-30
7.30874E-01 2.44438E-30
7.34736E-01 2.34429E-30
7.38579E-01 2.25054E-30
7.42405E-01 2.16268E-30
7.46212E-01 2.08029E-30
7.50000E-01 2.00297E-30
7.53769E-01 1.93035E-30
7.57519E-01 1.86209E-30
7.61249E-01 1.79787E-30
7.64960E-01 1.73740E-30
7.68650E-01 1.68039E-30
7.72320E-01 1.62659E-30
7.75968E-01 1.57576E-30
7.79596E-01 1.52768E-30
7.83203E-01 1.48214E-30
7.86788E-01 1.43894E-30
7.90351E-01 1.39792E-30
7.93893E-01 1.35890E-30
7.97411E-01 1.32174E-30
8.00908E-01 1.28628E-30
8.04381E-01 1.25241E-30
8.07831E-01 1.21999E-30
8.11257E-01 1.18892E-30
8.14660E-01 1.15909E-30
8.18039E-01 1.13042E-30
8.21394E-01 1.10280E-30
8.24724E-01 1.07616E-30
8.28030E-01 1.05042E-30
8.31310E-01 1.02553E-30
8.34565E-01 1.00140E-30
8.37795E-01 9.77990E-31
8.40999E-01 9.55243E-31
8.44177E-01 9.33109E-31
8.47329E-01 9.11545E-31
8.50455E-01 8.90511E-31
8.53553E-01 8.69970E-31
8.56625E-01 8.49887E-31
8.59670E-01 8.30234E-31
8.62687E-01 8.10981E-31
8.65677E-01 7.92104E-31
8.68639E-01 7.73581E-31
8.71572E-01 7.55390E-31
8.74478E-01 7.37514E-31
8.77355E-01 7.19937E-31
8.80203E-01 7.02642E-31
8.83022E-01 6.85618E-31
8.85812E-01 6.68853E-31
8.88573E-01 6.52335E-31
8.91304E-01 6.36056E-31
8.94005E-01 6.20009E-31
8.96677E-01 6.04185E-31
8.99318E-01 5.88579E-31
9.01928E-01 5.73186E-31
9.04508E-01 5.58000E-31
9.07058E-01 5.43019E-31
9.09576E-01 5.28239E-31
9.12063E-01 5.13657E-31
9.14519E-01 4.99271E-31
9.16943E-01 4.85079E-31
9.19335E-01 4.71081E-31
9.21696E-01 4.57275E-31
9.24024E-01 4.43661E-31
9.26320E-01 4.30238E-31
9.28584E-01 4.17006E-31
9.30815E-01 4.03966E-31
9.33013E-01 3.91117E-31
9.35178E-01 3.78460E-31
9.37310E-01 3.65996E-31
9.39409E-01 3.53726E-31
9.41474E-01 3.41649E-31
9.43505E-01 3.29768E-31
9.45503E-01 3.18083E-31
9.47467E-01 3.06595E-31
9.49397E-01 2.95305E-31
9.51293E-01 2.84215E-31
9.53154E-01 2.73324E-31
9.54981E-01 2.62635E-31
9.56773E-01 2.52149E-31
9.58530E-01 2.41866E-31
9.60252E-01 2.31787E-31
9.61940E-01 2.21914E-31
9.63592E-01 2.12247E-31
9.65209E-01 2.02788E-31
9.66790E-01 1.93537E-31
9.68336E-01 1.84495E-31
9.69846E-01 1.75664E-31
9.71321E-01 1.67043E-31
9.72759E-01 1.58634E-31
9.74162E-01 1.50438E-31
9.75528E-01 1.42455E-31
9.76858E-01 1.34685E-31
9.78152E-01 1.27131E-31
9.79410E-01 1.19791E-31
9.80631E-01 1.12666E-31
9.81815E-01 1.05758E-31
9.82963E-01 9.90656E-32
9.84074E-01 9.25905E-32
9.85148E-01 8.63326E-32
9.86185E-01 8.02924E-32
9.87185E-01 7.44701E-32
9.88148E-01 6.88661E-32
9.89074E-01 6.34805E-32
9.89962E-01 5.83137E-32
9.90814E-01 5.33658E-32
9.91627E-01 4.86371E-32
9.92404E-01 4.41276E-32
9.93143E-01 3.98375E-32
9.93844E-01 3.57670E-32
9.94508E-01 3.19162E-32
9.95134E-01 2.82851E-32
9.95722E-01 2.48739E-32
9.96273E-01 2.16825E-32
9.96786E-01 1.87111E-32
9.97261E-01 1.59597E-32
9.97698E-01 1.34284E-32
9.98097E-01 1.11170E-32
9.98459E-01 9.02582E-33
9.98782E-01 7.15469E-33
9.99067E-01 5.50367E-33
9.99315E-01 4.07278E-33
9.99524E-01 2.86202E-33
9.99695E-01 1.87140E-33
9.99829E-01 1.10091E-33
9.99924E-01 5.50553E-34
9.99981E-01 2.20341E-34
1.00000E+00 1.10278E-34
