 #
 # Subroutine ELSEPA. Elastic scattering of electrons and positrons
 #                    by neutral atoms and positive ions
 #
 # Projectile: electron
 # Kinetic energy = 5.00000E+07 eV = 1.83747E+06 a.u.
 #
 # WARNING: High-energy factorization with free-atom DF screening.
 #          Absorption, polarization and exchange corrections are
 #          switched off.
 #          Phase shifts are calculated for the bare nucleus.
 #          Scattering amplitudes are not evaluated.
 #
 # Element: Br,  Z =  35,  atomic weight = 7.99040E+01 g/mol
 #
 # Nuclear model: Fermi distribution
 #                Average radius = 4.60865E-13 cm
 #                Skin thickness = 5.46000E-14 cm
 #
 # Number of electrons = 35
 #
 # Total elastic cross section = 2.71595E-18 cm**2 = 9.69885E-02 a0**2
 # 1st transport cross section = 9.59536E-25 cm**2 = 3.42657E-08 a0**2
 # 2nd transport cross section = 2.81073E-24 cm**2 = 1.00373E-07 a0**2
 #
 #
 # Differential cross section:                       MU=(1-COS(THETA))/2
 #
 #  THETA        MU          DCS          DCS        Sherman      error
 #  (deg)                 (cm**2/sr)   (a0**2/sr)    function
 #----------------------------------------------------------------------
0.00000E+00 4.79633E-11
7.61557E-13 4.79439E-11
1.18994E-12 4.79331E-11
1.71346E-12 4.79199E-11
2.33225E-12 4.79044E-11
3.04617E-12 4.78864E-11
3.85530E-12 4.78661E-11
4.75964E-12 4.78434E-11
5.75917E-12 4.78183E-11
6.85391E-12 4.77909E-11
8.04379E-12 4.77612E-11
9.32893E-12 4.77291E-11
1.07092E-11 4.76946E-11
1.21847E-11 4.76578E-11
1.37554E-11 4.76187E-11
1.54213E-11 4.75773E-11
1.71823E-11 4.75336E-11
1.90386E-11 4.74875E-11
2.09900E-11 4.74392E-11
2.30367E-11 4.73886E-11
2.51785E-11 4.73358E-11
2.74156E-11 4.72807E-11
2.97478E-11 4.72233E-11
3.21752E-11 4.71637E-11
3.46979E-11 4.71019E-11
3.73157E-11 4.70379E-11
4.00286E-11 4.69717E-11
4.28368E-11 4.69033E-11
4.57402E-11 4.68328E-11
4.87388E-11 4.67601E-11
5.18325E-11 4.66853E-11
5.50215E-11 4.66083E-11
5.83057E-11 4.65293E-11
6.16850E-11 4.64482E-11
6.51595E-11 4.63650E-11
6.87293E-11 4.62798E-11
7.23943E-11 4.61925E-11
7.61544E-11 4.61032E-11
1.18991E-10 4.50976E-11
1.71347E-10 4.39163E-11
2.33223E-10 4.25787E-11
3.04617E-10 4.11096E-11
3.85531E-10 3.95345E-11
4.75965E-10 3.78788E-11
5.75917E-10 3.61668E-11
6.85389E-10 3.44215E-11
8.04380E-10 3.26596E-11
9.32891E-10 3.08987E-11
1.07092E-09 2.91615E-11
1.21847E-09 2.74621E-11
1.37554E-09 2.58123E-11
1.54213E-09 2.42213E-11
1.71823E-09 2.26960E-11
1.90386E-09 2.12414E-11
2.09900E-09 1.98605E-11
2.30367E-09 1.85551E-11
2.51785E-09 1.73253E-11
2.74156E-09 1.61705E-11
2.97478E-09 1.50892E-11
3.21752E-09 1.40763E-11
3.46978E-09 1.31321E-11
3.73156E-09 1.22539E-11
4.00286E-09 1.14383E-11
4.28368E-09 1.06817E-11
4.57402E-09 9.98040E-12
4.87388E-09 9.33091E-12
5.18326E-09 8.72969E-12
5.50215E-09 8.17336E-12
5.83057E-09 7.65867E-12
6.16850E-09 7.18251E-12
6.51596E-09 6.74197E-12
6.87293E-09 6.33414E-12
7.23942E-09 5.95631E-12
7.61544E-09 5.60650E-12
1.18991E-08 3.20992E-12
1.71347E-08 2.02226E-12
2.33223E-08 1.35800E-12
3.04617E-08 9.52496E-13
3.85531E-08 6.87670E-13
4.75965E-08 5.06521E-13
5.75917E-08 3.78830E-13
6.85389E-08 2.87033E-13
8.04380E-08 2.20000E-13
9.32891E-08 1.70570E-13
1.07092E-07 1.33850E-13
1.21847E-07 1.06272E-13
1.37554E-07 8.53375E-14
1.54213E-07 6.92747E-14
1.71823E-07 5.68183E-14
1.90386E-07 4.70566E-14
2.09900E-07 3.93287E-14
2.30367E-07 3.31479E-14
2.51785E-07 2.81514E-14
2.74156E-07 2.40810E-14
2.97478E-07 2.07364E-14
3.21752E-07 1.79641E-14
3.46978E-07 1.56487E-14
3.73156E-07 1.37007E-14
4.00286E-07 1.20505E-14
4.28368E-07 1.06438E-14
4.57402E-07 9.43798E-15
4.87388E-07 8.39892E-15
5.18325E-07 7.49937E-15
5.50215E-07 6.71722E-15
5.83057E-07 6.03438E-15
6.16850E-07 5.43595E-15
6.51596E-07 4.90958E-15
6.87293E-07 4.44492E-15
7.23942E-07 4.03333E-15
7.61543E-07 3.66782E-15
1.18991E-06 1.56799E-15
1.71347E-06 7.73579E-16
2.33223E-06 4.23399E-16
3.04617E-06 2.50758E-16
3.85531E-06 1.57912E-16
4.75964E-06 1.04398E-16
5.75916E-06 7.17818E-17
6.85388E-06 5.09815E-17
8.04378E-06 3.72053E-17
9.32888E-06 2.77847E-17
1.07092E-05 2.11661E-17
1.21846E-05 1.64056E-17
1.37553E-05 1.29107E-17
1.54212E-05 1.02981E-17
1.71822E-05 8.31378E-18
1.90385E-05 6.78409E-18
2.09899E-05 5.59175E-18
2.30365E-05 4.64983E-18
2.51783E-05 3.89771E-18
2.74153E-05 3.29130E-18
2.97475E-05 2.79816E-18
3.21749E-05 2.39394E-18
3.46974E-05 2.06015E-18
3.73152E-05 1.78260E-18
4.00281E-05 1.55030E-18
4.28362E-05 1.35465E-18
4.57395E-05 1.18889E-18
4.87380E-05 1.04770E-18
5.18317E-05 9.26836E-19
5.50205E-05 8.22880E-19
5.83045E-05 7.33088E-19
6.16838E-05 6.55217E-19
6.51582E-05 5.87423E-19
6.87277E-05 5.28183E-19
7.23925E-05 4.76233E-19
7.61524E-05 4.30565E-19
9.21439E-05 2.94436E-19
1.09658E-04 2.08103E-19
1.28695E-04 1.51233E-19
1.49255E-04 1.12530E-19
1.71338E-04 8.54614E-20
1.94942E-04 6.60668E-20
2.20070E-04 5.18783E-20
2.46720E-04 4.13050E-20
2.74892E-04 3.32948E-20
3.04586E-04 2.71374E-20
3.35803E-04 2.23408E-20
3.68542E-04 1.85598E-20
4.02802E-04 1.55466E-20
4.38585E-04 1.31214E-20
4.75889E-04 1.11518E-20
5.14715E-04 9.53864E-21
5.55063E-04 8.20728E-21
5.96931E-04 7.10058E-21
6.40321E-04 6.17453E-21
6.85233E-04 5.39485E-21
7.31665E-04 4.73461E-21
7.79618E-04 4.17251E-21
8.29092E-04 3.69152E-21
8.80086E-04 3.27800E-21
9.32601E-04 2.92088E-21
9.86636E-04 2.61117E-21
1.04219E-03 2.34152E-21
1.09927E-03 2.10586E-21
1.15786E-03 1.89916E-21
1.21797E-03 1.71725E-21
1.27961E-03 1.55665E-21
1.34276E-03 1.41443E-21
1.40743E-03 1.28812E-21
1.47362E-03 1.17563E-21
1.54133E-03 1.07517E-21
1.61056E-03 9.85244E-22
1.68131E-03 9.04542E-22
1.75357E-03 8.31955E-22
1.82735E-03 7.66520E-22
1.90265E-03 7.07405E-22
1.97947E-03 6.53894E-22
2.05780E-03 6.05360E-22
2.13765E-03 5.61255E-22
2.21902E-03 5.21103E-22
2.30190E-03 4.84487E-22
2.38630E-03 4.51038E-22
2.47222E-03 4.20433E-22
2.55965E-03 3.92386E-22
2.64859E-03 3.66645E-22
2.73905E-03 3.42984E-22
2.83103E-03 3.21206E-22
2.92452E-03 3.01134E-22
3.01952E-03 2.82609E-22
3.11604E-03 2.65490E-22
3.21407E-03 2.49651E-22
3.31362E-03 2.34978E-22
3.41468E-03 2.21369E-22
3.51725E-03 2.08735E-22
3.62133E-03 1.96991E-22
3.72692E-03 1.86063E-22
3.83403E-03 1.75884E-22
3.94265E-03 1.66394E-22
4.05278E-03 1.57535E-22
4.16442E-03 1.49261E-22
4.27757E-03 1.41524E-22
4.39223E-03 1.34282E-22
4.50840E-03 1.27500E-22
4.62608E-03 1.21141E-22
4.74527E-03 1.15174E-22
4.86597E-03 1.09571E-22
4.98817E-03 1.04305E-22
5.11188E-03 9.93523E-23
5.23711E-03 9.46909E-23
5.36383E-03 9.03001E-23
5.49207E-03 8.61614E-23
5.62181E-03 8.22575E-23
5.75306E-03 7.85727E-23
5.88581E-03 7.50923E-23
6.02007E-03 7.18029E-23
6.15583E-03 6.86919E-23
6.29310E-03 6.57479E-23
6.43187E-03 6.29602E-23
6.57214E-03 6.03189E-23
6.71392E-03 5.78150E-23
6.85720E-03 5.54398E-23
7.00198E-03 5.31855E-23
7.14827E-03 5.10449E-23
7.29605E-03 4.90110E-23
7.44534E-03 4.70775E-23
7.59612E-03 4.52386E-23
7.97965E-03 4.10197E-23
8.37255E-03 3.72818E-23
8.77480E-03 3.39606E-23
9.18641E-03 3.10013E-23
9.60736E-03 2.83577E-23
1.00376E-02 2.59900E-23
1.04773E-02 2.38645E-23
1.09262E-02 2.19519E-23
1.13844E-02 2.02270E-23
1.18520E-02 1.86683E-23
1.23288E-02 1.72567E-23
1.28150E-02 1.59760E-23
1.33104E-02 1.48118E-23
1.38150E-02 1.37516E-23
1.43290E-02 1.27845E-23
1.48521E-02 1.19008E-23
1.53845E-02 1.10919E-23
1.59262E-02 1.03505E-23
1.64770E-02 9.66982E-24
1.70371E-02 9.04404E-24
1.76063E-02 8.46792E-24
1.81848E-02 7.93679E-24
1.87724E-02 7.44651E-24
1.93692E-02 6.99334E-24
1.99751E-02 6.57399E-24
2.05901E-02 6.18545E-24
2.12143E-02 5.82505E-24
2.18476E-02 5.49037E-24
2.24900E-02 5.17926E-24
2.31415E-02 4.88973E-24
2.38021E-02 4.62003E-24
2.44717E-02 4.36853E-24
2.51504E-02 4.13380E-24
2.58382E-02 3.91450E-24
2.65349E-02 3.70944E-24
2.72407E-02 3.51751E-24
2.79555E-02 3.33773E-24
2.86793E-02 3.16918E-24
2.94120E-02 3.01104E-24
3.01537E-02 2.86253E-24
3.09043E-02 2.72298E-24
3.16639E-02 2.59173E-24
3.24324E-02 2.46820E-24
3.32098E-02 2.35186E-24
3.39961E-02 2.24221E-24
3.47912E-02 2.13879E-24
3.55952E-02 2.04119E-24
3.64081E-02 1.94901E-24
3.72297E-02 1.86190E-24
3.80602E-02 1.77954E-24
3.88995E-02 1.70161E-24
3.97476E-02 1.62783E-24
4.06044E-02 1.55794E-24
4.14700E-02 1.49170E-24
4.23443E-02 1.42888E-24
4.32273E-02 1.36928E-24
4.41190E-02 1.31269E-24
4.50194E-02 1.25894E-24
4.59284E-02 1.20786E-24
4.68461E-02 1.15930E-24
4.87074E-02 1.06913E-24
5.06030E-02 9.87376E-25
5.25328E-02 9.13125E-25
5.44967E-02 8.45566E-25
5.64946E-02 7.83993E-25
5.85262E-02 7.27785E-25
6.05914E-02 6.76395E-25
6.26901E-02 6.29338E-25
6.48222E-02 5.86188E-25
6.69873E-02 5.46565E-25
6.91854E-02 5.10131E-25
7.14163E-02 4.76586E-25
7.36799E-02 4.45663E-25
7.59760E-02 4.17122E-25
7.83043E-02 3.90748E-25
8.06647E-02 3.66350E-25
8.30571E-02 3.43754E-25
8.54812E-02 3.22805E-25
8.79369E-02 3.03364E-25
9.04240E-02 2.85304E-25
9.29422E-02 2.68509E-25
9.54915E-02 2.52878E-25
9.80716E-02 2.38316E-25
1.00682E-01 2.24739E-25
1.03323E-01 2.12068E-25
1.05995E-01 2.00233E-25
1.08696E-01 1.89171E-25
1.11427E-01 1.78822E-25
1.14188E-01 1.69134E-25
1.16978E-01 1.60058E-25
1.19797E-01 1.51548E-25
1.22645E-01 1.43564E-25
1.25522E-01 1.36068E-25
1.28428E-01 1.29025E-25
1.31361E-01 1.22405E-25
1.34323E-01 1.16177E-25
1.37313E-01 1.10316E-25
1.40330E-01 1.04795E-25
1.43375E-01 9.95924E-26
1.46447E-01 9.46869E-26
1.49545E-01 9.00590E-26
1.52671E-01 8.56906E-26
1.55823E-01 8.15649E-26
1.59001E-01 7.76666E-26
1.62205E-01 7.39811E-26
1.65435E-01 7.04953E-26
1.68690E-01 6.71967E-26
1.71970E-01 6.40738E-26
1.75276E-01 6.11158E-26
1.78606E-01 5.83130E-26
1.81961E-01 5.56559E-26
1.85340E-01 5.31359E-26
1.88743E-01 5.07449E-26
1.92169E-01 4.84755E-26
1.95619E-01 4.63206E-26
1.99092E-01 4.42737E-26
2.02589E-01 4.23285E-26
2.06107E-01 4.04794E-26
2.09649E-01 3.87210E-26
2.13212E-01 3.70482E-26
2.16797E-01 3.54563E-26
2.20404E-01 3.39410E-26
2.24032E-01 3.24979E-26
2.27680E-01 3.11234E-26
2.31350E-01 2.98136E-26
2.35040E-01 2.85651E-26
2.38751E-01 2.73748E-26
2.42481E-01 2.62395E-26
2.46231E-01 2.51565E-26
2.50000E-01 2.41229E-26
2.53788E-01 2.31364E-26
2.57595E-01 2.21944E-26
2.61421E-01 2.12948E-26
2.65264E-01 2.04353E-26
2.69126E-01 1.96141E-26
2.73005E-01 1.88292E-26
2.76901E-01 1.80787E-26
2.80814E-01 1.73611E-26
2.84744E-01 1.66748E-26
2.88691E-01 1.60181E-26
2.92653E-01 1.53897E-26
2.96632E-01 1.47883E-26
3.00625E-01 1.42125E-26
3.04634E-01 1.36612E-26
3.08658E-01 1.31331E-26
3.12697E-01 1.26273E-26
3.16749E-01 1.21426E-26
3.20816E-01 1.16782E-26
3.24896E-01 1.12330E-26
3.28990E-01 1.08062E-26
3.33097E-01 1.03969E-26
3.37216E-01 1.00044E-26
3.41348E-01 9.62793E-27
3.45492E-01 9.26673E-27
3.49647E-01 8.92014E-27
3.53814E-01 8.58751E-27
3.57992E-01 8.26823E-27
3.62181E-01 7.96170E-27
3.66381E-01 7.66738E-27
3.70590E-01 7.38474E-27
3.74810E-01 7.11326E-27
3.79039E-01 6.85247E-27
3.83277E-01 6.60191E-27
3.87524E-01 6.36115E-27
3.91780E-01 6.12976E-27
3.96044E-01 5.90735E-27
4.00316E-01 5.69354E-27
4.04596E-01 5.48798E-27
4.08882E-01 5.29031E-27
4.13176E-01 5.10022E-27
4.17476E-01 4.91738E-27
4.21783E-01 4.74150E-27
4.26095E-01 4.57228E-27
4.30413E-01 4.40947E-27
4.34737E-01 4.25280E-27
4.39065E-01 4.10201E-27
4.43398E-01 3.95688E-27
4.47736E-01 3.81716E-27
4.52077E-01 3.68266E-27
4.56422E-01 3.55314E-27
4.60770E-01 3.42843E-27
4.65122E-01 3.30833E-27
4.69476E-01 3.19265E-27
4.73832E-01 3.08122E-27
4.78190E-01 2.97387E-27
4.82550E-01 2.87045E-27
4.86912E-01 2.77080E-27
4.91274E-01 2.67478E-27
4.95637E-01 2.58223E-27
5.00000E-01 2.49304E-27
5.04363E-01 2.40706E-27
5.08726E-01 2.32419E-27
5.13088E-01 2.24429E-27
5.17450E-01 2.16725E-27
5.21810E-01 2.09297E-27
5.26168E-01 2.02134E-27
5.30524E-01 1.95226E-27
5.34878E-01 1.88563E-27
5.39230E-01 1.82136E-27
5.43578E-01 1.75937E-27
5.47923E-01 1.69957E-27
5.52264E-01 1.64187E-27
5.56602E-01 1.58620E-27
5.60935E-01 1.53248E-27
5.65263E-01 1.48065E-27
5.69587E-01 1.43062E-27
5.73905E-01 1.38234E-27
5.78217E-01 1.33574E-27
5.82524E-01 1.29076E-27
5.86824E-01 1.24734E-27
5.91118E-01 1.20542E-27
5.95404E-01 1.16495E-27
5.99684E-01 1.12587E-27
6.03956E-01 1.08814E-27
6.08220E-01 1.05170E-27
6.12476E-01 1.01652E-27
6.16723E-01 9.82540E-28
6.20961E-01 9.49722E-28
6.25190E-01 9.18023E-28
6.29410E-01 8.87405E-28
6.33619E-01 8.57828E-28
6.37819E-01 8.29256E-28
6.42008E-01 8.01653E-28
6.46186E-01 7.74983E-28
6.50353E-01 7.49216E-28
6.54508E-01 7.24318E-28
6.58652E-01 7.00259E-28
6.62784E-01 6.77010E-28
6.66903E-01 6.54542E-28
6.71010E-01 6.32827E-28
6.75104E-01 6.11840E-28
6.79184E-01 5.91555E-28
6.83251E-01 5.71948E-28
6.87303E-01 5.52995E-28
6.91342E-01 5.34674E-28
6.95366E-01 5.16961E-28
6.99375E-01 4.99838E-28
7.03368E-01 4.83283E-28
7.07347E-01 4.67276E-28
7.11309E-01 4.51799E-28
7.15256E-01 4.36833E-28
7.19186E-01 4.22362E-28
7.23099E-01 4.08368E-28
7.26995E-01 3.94834E-28
7.30874E-01 3.81746E-28
7.34736E-01 3.69087E-28
7.38579E-01 3.56844E-28
7.42405E-01 3.45003E-28
7.46212E-01 3.33548E-28
7.50000E-01 3.22469E-28
7.53769E-01 3.11751E-28
7.57519E-01 3.01383E-28
7.61249E-01 2.91353E-28
7.64960E-01 2.81649E-28
7.68650E-01 2.72261E-28
7.72320E-01 2.63178E-28
7.75968E-01 2.54390E-28
7.79596E-01 2.45886E-28
7.83203E-01 2.37658E-28
7.86788E-01 2.29696E-28
7.90351E-01 2.21992E-28
7.93893E-01 2.14536E-28
7.97411E-01 2.07321E-28
8.00908E-01 2.00338E-28
8.04381E-01 1.93581E-28
8.07831E-01 1.87040E-28
8.11257E-01 1.80710E-28
8.14660E-01 1.74584E-28
8.18039E-01 1.68654E-28
8.21394E-01 1.62914E-28
8.24724E-01 1.57358E-28
8.28030E-01 1.51980E-28
8.31310E-01 1.46774E-28
8.34565E-01 1.41734E-28
8.37795E-01 1.36856E-28
8.40999E-01 1.32133E-28
8.44177E-01 1.27561E-28
8.47329E-01 1.23135E-28
8.50455E-01 1.18850E-28
8.53553E-01 1.14701E-28
8.56625E-01 1.10685E-28
8.59670E-01 1.06796E-28
8.62687E-01 1.03031E-28
8.65677E-01 9.93863E-29
8.68639E-01 9.58570E-29
8.71572E-01 9.24399E-29
8.74478E-01 8.91313E-29
8.77355E-01 8.59279E-29
8.80203E-01 8.28262E-29
8.83022E-01 7.98231E-29
8.85812E-01 7.69153E-29
8.88573E-01 7.40999E-29
8.91304E-01 7.13739E-29
8.94005E-01 6.87345E-29
8.96677E-01 6.61790E-29
8.99318E-01 6.37047E-29
9.01928E-01 6.13091E-29
9.04508E-01 5.89897E-29
9.07058E-01 5.67441E-29
9.09576E-01 5.45701E-29
9.12063E-01 5.24654E-29
9.14519E-01 5.04278E-29
9.16943E-01 4.84553E-29
9.19335E-01 4.65459E-29
9.21696E-01 4.46976E-29
9.24024E-01 4.29086E-29
9.26320E-01 4.11770E-29
9.28584E-01 3.95011E-29
9.30815E-01 3.78792E-29
9.33013E-01 3.63096E-29
9.35178E-01 3.47909E-29
9.37310E-01 3.33214E-29
9.39409E-01 3.18997E-29
9.41474E-01 3.05244E-29
9.43505E-01 2.91941E-29
9.45503E-01 2.79075E-29
9.47467E-01 2.66632E-29
9.49397E-01 2.54601E-29
9.51293E-01 2.42970E-29
9.53154E-01 2.31726E-29
9.54981E-01 2.20860E-29
9.56773E-01 2.10360E-29
9.58530E-01 2.00215E-29
9.60252E-01 1.90416E-29
9.61940E-01 1.80954E-29
9.63592E-01 1.71818E-29
9.65209E-01 1.63001E-29
9.66790E-01 1.54493E-29
9.68336E-01 1.46285E-29
9.69846E-01 1.38371E-29
9.71321E-01 1.30742E-29
9.72759E-01 1.23391E-29
9.74162E-01 1.16310E-29
9.75528E-01 1.09493E-29
9.76858E-01 1.02934E-29
9.78152E-01 9.66249E-30
9.79410E-01 9.05609E-30
9.80631E-01 8.47357E-30
9.81815E-01 7.91437E-30
9.82963E-01 7.37796E-30
9.84074E-01 6.86381E-30
9.85148E-01 6.37144E-30
9.86185E-01 5.90036E-30
9.87185E-01 5.45013E-30
9.88148E-01 5.02031E-30
9.89074E-01 4.61050E-30
9.89962E-01 4.22030E-30
9.90814E-01 3.84933E-30
9.91627E-01 3.49724E-30
9.92404E-01 3.16370E-30
9.93143E-01 2.84839E-30
9.93844E-01 2.55100E-30
9.94508E-01 2.27125E-30
9.95134E-01 2.00888E-30
9.95722E-01 1.76364E-30
9.96273E-01 1.53529E-30
9.96786E-01 1.32362E-30
9.97261E-01 1.12842E-30
9.97698E-01 9.49507E-31
9.98097E-01 7.86718E-31
9.98459E-01 6.39894E-31
9.98782E-01 5.08897E-31
9.99067E-01 3.93601E-31
9.99315E-01 2.93898E-31
9.99524E-01 2.09693E-31
9.99695E-01 1.40907E-31
9.99829E-01 8.74737E-32
9.99924E-01 4.93434E-32
9.99981E-01 2.64795E-32
1.00000E+00 1.88606E-32
