 #
 # Subroutine ELSEPA. Elastic scattering of electrons and positrons
 #                    by neutral atoms and positive ions
 #
 # Projectile: positron
 # Kinetic energy = 1.75000E+08 eV = 6.43113E+06 a.u.
 #
 # WARNING: High-energy factorization with free-atom DF screening.
 #          Absorption, polarization and exchange corrections are
 #          switched off.
 #          Phase shifts are calculated for the bare nucleus.
 #          Scattering amplitudes are not evaluated.
 #
 # Element: Sm,  Z =  62,  atomic weight = 1.50360E+02 g/mol
 #
 # Nuclear model: Fermi distribution
 #                Average radius = 5.68977E-13 cm
 #                Skin thickness = 5.46000E-14 cm
 #
 # Number of electrons = 62
 #
 # Total elastic cross section = 7.22709E-18 cm**2 = 2.58084E-01 a0**2
 # 1st transport cross section = 2.37420E-25 cm**2 = 8.47843E-09 a0**2
 # 2nd transport cross section = 7.09956E-25 cm**2 = 2.53530E-08 a0**2
 #
 #
 # Differential cross section:                       MU=(1-COS(THETA))/2
 #
 #  THETA        MU          DCS          DCS        Sherman      error
 #  (deg)                 (cm**2/sr)   (a0**2/sr)    function
 #----------------------------------------------------------------------
0.00000E+00 2.86424E-09
7.61557E-13 2.81931E-09
1.18994E-12 2.79457E-09
1.71346E-12 2.76482E-09
2.33225E-12 2.73033E-09
3.04617E-12 2.69141E-09
3.85530E-12 2.64841E-09
4.75964E-12 2.60169E-09
5.75917E-12 2.55164E-09
6.85391E-12 2.49864E-09
8.04379E-12 2.44339E-09
9.32893E-12 2.38600E-09
1.07092E-11 2.32642E-09
1.21847E-11 2.26558E-09
1.37554E-11 2.20424E-09
1.54213E-11 2.14172E-09
1.71823E-11 2.07876E-09
1.90386E-11 2.01664E-09
2.09900E-11 1.95416E-09
2.30367E-11 1.89181E-09
2.51785E-11 1.83140E-09
2.74156E-11 1.77127E-09
2.97478E-11 1.71161E-09
3.21752E-11 1.65466E-09
3.46979E-11 1.59845E-09
3.73157E-11 1.54309E-09
4.00286E-11 1.49044E-09
4.28368E-11 1.43907E-09
4.57402E-11 1.38875E-09
4.87388E-11 1.34095E-09
5.18325E-11 1.29476E-09
5.50215E-11 1.24973E-09
5.83057E-11 1.20689E-09
6.16850E-11 1.16586E-09
6.51595E-11 1.12599E-09
6.87293E-11 1.08798E-09
7.23943E-11 1.05181E-09
7.61544E-11 1.01677E-09
1.18991E-10 7.40272E-10
1.71347E-10 5.60186E-10
2.33223E-10 4.37274E-10
3.04617E-10 3.48711E-10
3.85531E-10 2.82014E-10
4.75965E-10 2.30277E-10
5.75917E-10 1.89376E-10
6.85389E-10 1.56766E-10
8.04380E-10 1.29697E-10
9.32891E-10 1.08147E-10
1.07092E-09 9.17036E-11
1.21847E-09 7.82097E-11
1.37554E-09 6.65491E-11
1.54213E-09 5.73441E-11
1.71823E-09 4.97780E-11
1.90386E-09 4.31092E-11
2.09900E-09 3.76955E-11
2.30367E-09 3.32057E-11
2.51785E-09 2.91550E-11
2.74156E-09 2.57926E-11
2.97478E-09 2.29787E-11
3.21752E-09 2.03906E-11
3.46978E-09 1.82017E-11
3.73156E-09 1.63399E-11
4.00286E-09 1.46371E-11
4.28368E-09 1.31609E-11
4.57402E-09 1.18886E-11
4.87388E-09 1.07330E-11
5.18326E-09 9.71196E-12
5.50215E-09 8.82202E-12
5.83057E-09 8.01842E-12
6.16850E-09 7.29871E-12
6.51596E-09 6.66521E-12
6.87293E-09 6.09500E-12
7.23942E-09 5.57950E-12
7.61544E-09 5.12177E-12
1.18991E-08 2.37898E-12
1.71347E-08 1.26882E-12
2.33223E-08 7.44621E-13
3.04617E-08 4.66820E-13
3.85531E-08 3.06690E-13
4.75965E-08 2.09025E-13
5.75917E-08 1.47063E-13
6.85389E-08 1.06336E-13
8.04380E-08 7.86962E-14
9.32891E-08 5.95445E-14
1.07092E-07 4.58959E-14
1.21847E-07 3.59330E-14
1.37554E-07 2.85471E-14
1.54213E-07 2.29726E-14
1.71823E-07 1.86990E-14
1.90386E-07 1.53772E-14
2.09900E-07 1.27586E-14
2.30367E-07 1.06754E-14
2.51785E-07 9.00113E-15
2.74156E-07 7.64274E-15
2.97478E-07 6.53100E-15
3.21752E-07 5.61308E-15
3.46978E-07 4.85084E-15
3.73156E-07 4.21359E-15
4.00286E-07 3.67750E-15
4.28368E-07 3.22386E-15
4.57402E-07 2.83762E-15
4.87388E-07 2.50746E-15
5.18325E-07 2.22389E-15
5.50215E-07 1.97923E-15
5.83057E-07 1.76725E-15
6.16850E-07 1.58275E-15
6.51596E-07 1.42169E-15
6.87293E-07 1.28059E-15
7.23942E-07 1.15655E-15
7.61543E-07 1.04715E-15
1.18991E-06 4.35050E-16
1.71347E-06 2.11782E-16
2.33223E-06 1.15105E-16
3.04617E-06 6.78300E-17
3.85531E-06 4.25210E-17
4.75964E-06 2.79888E-17
5.75916E-06 1.91660E-17
6.85388E-06 1.35603E-17
8.04378E-06 9.86119E-18
9.32888E-06 7.34115E-18
1.07092E-05 5.57665E-18
1.21846E-05 4.31152E-18
1.37553E-05 3.38545E-18
1.54212E-05 2.69505E-18
1.71822E-05 2.17190E-18
1.90385E-05 1.76896E-18
2.09899E-05 1.45647E-18
2.30365E-05 1.20985E-18
2.51783E-05 1.01304E-18
2.74153E-05 8.54465E-19
2.97475E-05 7.25635E-19
3.21749E-05 6.20173E-19
3.46974E-05 5.33221E-19
3.73152E-05 4.61030E-19
4.00281E-05 4.00686E-19
4.28362E-05 3.49913E-19
4.57395E-05 3.06927E-19
4.87380E-05 2.70327E-19
5.18317E-05 2.39004E-19
5.50205E-05 2.12076E-19
5.83045E-05 1.88828E-19
6.16838E-05 1.68679E-19
6.51582E-05 1.51150E-19
6.87277E-05 1.35844E-19
7.23925E-05 1.22429E-19
7.61524E-05 1.10767E-19
9.21439E-05 7.56365E-20
1.09658E-04 5.33851E-20
1.28695E-04 3.87476E-20
1.49255E-04 2.87956E-20
1.71338E-04 2.18430E-20
1.94942E-04 1.68662E-20
2.20070E-04 1.32286E-20
2.46720E-04 1.05203E-20
2.74892E-04 8.47035E-21
3.04586E-04 6.89592E-21
3.35803E-04 5.67045E-21
3.68542E-04 4.70526E-21
4.02802E-04 3.93671E-21
4.38585E-04 3.31865E-21
4.75889E-04 2.81709E-21
5.14715E-04 2.40664E-21
5.55063E-04 2.06817E-21
5.96931E-04 1.78704E-21
6.40321E-04 1.55200E-21
6.85233E-04 1.35428E-21
7.31665E-04 1.18698E-21
7.79618E-04 1.04467E-21
8.29092E-04 9.22985E-22
8.80086E-04 8.18453E-22
9.32601E-04 7.28258E-22
9.86636E-04 6.50105E-22
1.04219E-03 5.82119E-22
1.09927E-03 5.22753E-22
1.15786E-03 4.70732E-22
1.21797E-03 4.24992E-22
1.27961E-03 3.84645E-22
1.34276E-03 3.48949E-22
1.40743E-03 3.17275E-22
1.47362E-03 2.89092E-22
1.54133E-03 2.63950E-22
1.61056E-03 2.41463E-22
1.68131E-03 2.21303E-22
1.75357E-03 2.03188E-22
1.82735E-03 1.86874E-22
1.90265E-03 1.72152E-22
1.97947E-03 1.58838E-22
2.05780E-03 1.46774E-22
2.13765E-03 1.35824E-22
2.21902E-03 1.25865E-22
2.30190E-03 1.16793E-22
2.38630E-03 1.08515E-22
2.47222E-03 1.00949E-22
2.55965E-03 9.40226E-23
2.64859E-03 8.76731E-23
2.73905E-03 8.18437E-23
2.83103E-03 7.64844E-23
2.92452E-03 7.15505E-23
3.01952E-03 6.70023E-23
3.11604E-03 6.28044E-23
3.21407E-03 5.89251E-23
3.31362E-03 5.53358E-23
3.41468E-03 5.20113E-23
3.51725E-03 4.89284E-23
3.62133E-03 4.60665E-23
3.72692E-03 4.34070E-23
3.83403E-03 4.09330E-23
3.94265E-03 3.86294E-23
4.05278E-03 3.64824E-23
4.16442E-03 3.44793E-23
4.27757E-03 3.26090E-23
4.39223E-03 3.08610E-23
4.50840E-03 2.92259E-23
4.62608E-03 2.76952E-23
4.74527E-03 2.62611E-23
4.86597E-03 2.49163E-23
4.98817E-03 2.36544E-23
5.11188E-03 2.24693E-23
5.23711E-03 2.13555E-23
5.36383E-03 2.03081E-23
5.49207E-03 1.93223E-23
5.62181E-03 1.83940E-23
5.75306E-03 1.75191E-23
5.88581E-03 1.66940E-23
6.02007E-03 1.59155E-23
6.15583E-03 1.51805E-23
6.29310E-03 1.44861E-23
6.43187E-03 1.38296E-23
6.57214E-03 1.32087E-23
6.71392E-03 1.26211E-23
6.85720E-03 1.20646E-23
7.00198E-03 1.15374E-23
7.14827E-03 1.10377E-23
7.29605E-03 1.05637E-23
7.44534E-03 1.01140E-23
7.59612E-03 9.68703E-24
7.97965E-03 8.71061E-24
8.37255E-03 7.84962E-24
8.77480E-03 7.08829E-24
9.18641E-03 6.41333E-24
9.60736E-03 5.81342E-24
1.00376E-02 5.27894E-24
1.04773E-02 4.80166E-24
1.09262E-02 4.37455E-24
1.13844E-02 3.99152E-24
1.18520E-02 3.64734E-24
1.23288E-02 3.33749E-24
1.28150E-02 3.05803E-24
1.33104E-02 2.80553E-24
1.38150E-02 2.57703E-24
1.43290E-02 2.36989E-24
1.48521E-02 2.18184E-24
1.53845E-02 2.01087E-24
1.59262E-02 1.85520E-24
1.64770E-02 1.71326E-24
1.70371E-02 1.58368E-24
1.76063E-02 1.46524E-24
1.81848E-02 1.35683E-24
1.87724E-02 1.25750E-24
1.93692E-02 1.16638E-24
1.99751E-02 1.08270E-24
2.05901E-02 1.00577E-24
2.12143E-02 9.34980E-25
2.18476E-02 8.69771E-25
2.24900E-02 8.09649E-25
2.31415E-02 7.54164E-25
2.38021E-02 7.02915E-25
2.44717E-02 6.55538E-25
2.51504E-02 6.11703E-25
2.58382E-02 5.71114E-25
2.65349E-02 5.33502E-25
2.72407E-02 4.98622E-25
2.79555E-02 4.66253E-25
2.86793E-02 4.36192E-25
2.94120E-02 4.08257E-25
3.01537E-02 3.82280E-25
3.09043E-02 3.58109E-25
3.16639E-02 3.35603E-25
3.24324E-02 3.14638E-25
3.32098E-02 2.95094E-25
3.39961E-02 2.76867E-25
3.47912E-02 2.59858E-25
3.55952E-02 2.43978E-25
3.64081E-02 2.29143E-25
3.72297E-02 2.15280E-25
3.80602E-02 2.02317E-25
3.88995E-02 1.90191E-25
3.97476E-02 1.78843E-25
4.06044E-02 1.68219E-25
4.14700E-02 1.58267E-25
4.23443E-02 1.48942E-25
4.32273E-02 1.40201E-25
4.41190E-02 1.32004E-25
4.50194E-02 1.24315E-25
4.59284E-02 1.17099E-25
4.68461E-02 1.10325E-25
4.87074E-02 9.79887E-26
5.06030E-02 8.70968E-26
5.25328E-02 7.74689E-26
5.44967E-02 6.89487E-26
5.64946E-02 6.14011E-26
5.85262E-02 5.47086E-26
6.05914E-02 4.87690E-26
6.26901E-02 4.34931E-26
6.48222E-02 3.88033E-26
6.69873E-02 3.46313E-26
6.91854E-02 3.09176E-26
7.14163E-02 2.76097E-26
7.36799E-02 2.46617E-26
7.59760E-02 2.20331E-26
7.83043E-02 1.96882E-26
8.06647E-02 1.75954E-26
8.30571E-02 1.57269E-26
8.54812E-02 1.40582E-26
8.79369E-02 1.25673E-26
9.04240E-02 1.12351E-26
9.29422E-02 1.00443E-26
9.54915E-02 8.97971E-27
9.80716E-02 8.02782E-27
1.00682E-01 7.17657E-27
1.03323E-01 6.41525E-27
1.05995E-01 5.73431E-27
1.08696E-01 5.12524E-27
1.11427E-01 4.58045E-27
1.14188E-01 4.09315E-27
1.16978E-01 3.65730E-27
1.19797E-01 3.26750E-27
1.22645E-01 2.91890E-27
1.25522E-01 2.60718E-27
1.28428E-01 2.32848E-27
1.31361E-01 2.07935E-27
1.34323E-01 1.85667E-27
1.37313E-01 1.65768E-27
1.40330E-01 1.47989E-27
1.43375E-01 1.32109E-27
1.46447E-01 1.17927E-27
1.49545E-01 1.05265E-27
1.52671E-01 9.39636E-28
1.55823E-01 8.38786E-28
1.59001E-01 7.48818E-28
1.62205E-01 6.68580E-28
1.65435E-01 5.97040E-28
1.68690E-01 5.33273E-28
1.71970E-01 4.76451E-28
1.75276E-01 4.25832E-28
1.78606E-01 3.80750E-28
1.81961E-01 3.40610E-28
1.85340E-01 3.04879E-28
1.88743E-01 2.73080E-28
1.92169E-01 2.44786E-28
1.95619E-01 2.19615E-28
1.99092E-01 1.97225E-28
2.02589E-01 1.77310E-28
2.06107E-01 1.59599E-28
2.09649E-01 1.43846E-28
2.13212E-01 1.29835E-28
2.16797E-01 1.17371E-28
2.20404E-01 1.06280E-28
2.24032E-01 9.64088E-29
2.27680E-01 8.76189E-29
2.31350E-01 7.97879E-29
2.35040E-01 7.28067E-29
2.38751E-01 6.65784E-29
2.42481E-01 6.10165E-29
2.46231E-01 5.60446E-29
2.50000E-01 5.15945E-29
2.53788E-01 4.76062E-29
2.57595E-01 4.40260E-29
2.61421E-01 4.08067E-29
2.65264E-01 3.79063E-29
2.69126E-01 3.52879E-29
2.73005E-01 3.29188E-29
2.76901E-01 3.07701E-29
2.80814E-01 2.88164E-29
2.84744E-01 2.70352E-29
2.88691E-01 2.54067E-29
2.92653E-01 2.39137E-29
2.96632E-01 2.25408E-29
3.00625E-01 2.12747E-29
3.04634E-01 2.01036E-29
3.08658E-01 1.90173E-29
3.12697E-01 1.80066E-29
3.16749E-01 1.70636E-29
3.20816E-01 1.61816E-29
3.24896E-01 1.53544E-29
3.28990E-01 1.45767E-29
3.33097E-01 1.38439E-29
3.37216E-01 1.31519E-29
3.41348E-01 1.24974E-29
3.45492E-01 1.18770E-29
3.49647E-01 1.12882E-29
3.53814E-01 1.07285E-29
3.57992E-01 1.01960E-29
3.62181E-01 9.68861E-30
3.66381E-01 9.20489E-30
3.70590E-01 8.74335E-30
3.74810E-01 8.30272E-30
3.79039E-01 7.88188E-30
3.83277E-01 7.47979E-30
3.87524E-01 7.09554E-30
3.91780E-01 6.72830E-30
3.96044E-01 6.37731E-30
4.00316E-01 6.04188E-30
4.04596E-01 5.72137E-30
4.08882E-01 5.41517E-30
4.13176E-01 5.12273E-30
4.17476E-01 4.84352E-30
4.21783E-01 4.57705E-30
4.26095E-01 4.32285E-30
4.30413E-01 4.08046E-30
4.34737E-01 3.84944E-30
4.39065E-01 3.62939E-30
4.43398E-01 3.41990E-30
4.47736E-01 3.22057E-30
4.52077E-01 3.03103E-30
4.56422E-01 2.85090E-30
4.60770E-01 2.67983E-30
4.65122E-01 2.51747E-30
4.69476E-01 2.36347E-30
4.73832E-01 2.21749E-30
4.78190E-01 2.07923E-30
4.82550E-01 1.94834E-30
4.86912E-01 1.82454E-30
4.91274E-01 1.70751E-30
4.95637E-01 1.59696E-30
5.00000E-01 1.49260E-30
5.04363E-01 1.39417E-30
5.08726E-01 1.30138E-30
5.13088E-01 1.21398E-30
5.17450E-01 1.13171E-30
5.21810E-01 1.05432E-30
5.26168E-01 9.81590E-31
5.30524E-01 9.13274E-31
5.34878E-01 8.49156E-31
5.39230E-01 7.89020E-31
5.43578E-01 7.32662E-31
5.47923E-01 6.79882E-31
5.52264E-01 6.30490E-31
5.56602E-01 5.84304E-31
5.60935E-01 5.41147E-31
5.65263E-01 5.00851E-31
5.69587E-01 4.63255E-31
5.73905E-01 4.28205E-31
5.78217E-01 3.95554E-31
5.82524E-01 3.65161E-31
5.86824E-01 3.36892E-31
5.91118E-01 3.10620E-31
5.95404E-01 2.86223E-31
5.99684E-01 2.63587E-31
6.03956E-01 2.42600E-31
6.08220E-01 2.23159E-31
6.12476E-01 2.05165E-31
6.16723E-01 1.88525E-31
6.20961E-01 1.73150E-31
6.25190E-01 1.58956E-31
6.29410E-01 1.45865E-31
6.33619E-01 1.33802E-31
6.37819E-01 1.22695E-31
6.42008E-01 1.12480E-31
6.46186E-01 1.03093E-31
6.50353E-01 9.44758E-32
6.54508E-01 8.65727E-32
6.58652E-01 7.93321E-32
6.62784E-01 7.27053E-32
6.66903E-01 6.66465E-32
6.71010E-01 6.11130E-32
6.75104E-01 5.60649E-32
6.79184E-01 5.14646E-32
6.83251E-01 4.72772E-32
6.87303E-01 4.34700E-32
6.91342E-01 4.00126E-32
6.95366E-01 3.68766E-32
6.99375E-01 3.40356E-32
7.03368E-01 3.14650E-32
7.07347E-01 2.91419E-32
7.11309E-01 2.70453E-32
7.15256E-01 2.51554E-32
7.19186E-01 2.34539E-32
7.23099E-01 2.19241E-32
7.26995E-01 2.05503E-32
7.30874E-01 1.93182E-32
7.34736E-01 1.82144E-32
7.38579E-01 1.72266E-32
7.42405E-01 1.63437E-32
7.46212E-01 1.55552E-32
7.50000E-01 1.48515E-32
7.53769E-01 1.42241E-32
7.57519E-01 1.36648E-32
7.61249E-01 1.31663E-32
7.64960E-01 1.27219E-32
7.68650E-01 1.23256E-32
7.72320E-01 1.19718E-32
7.75968E-01 1.16554E-32
7.79596E-01 1.13718E-32
7.83203E-01 1.11170E-32
7.86788E-01 1.08871E-32
7.90351E-01 1.06788E-32
7.93893E-01 1.04890E-32
7.97411E-01 1.03150E-32
8.00908E-01 1.01544E-32
8.04381E-01 1.00049E-32
8.07831E-01 9.86468E-33
8.11257E-01 9.73194E-33
8.14660E-01 9.60518E-33
8.18039E-01 9.48308E-33
8.21394E-01 9.36446E-33
8.24724E-01 9.24831E-33
8.28030E-01 9.13375E-33
8.31310E-01 9.02004E-33
8.34565E-01 8.90653E-33
8.37795E-01 8.79269E-33
8.40999E-01 8.67807E-33
8.44177E-01 8.56232E-33
8.47329E-01 8.44515E-33
8.50455E-01 8.32632E-33
8.53553E-01 8.20569E-33
8.56625E-01 8.08314E-33
8.59670E-01 7.95860E-33
8.62687E-01 7.83205E-33
8.65677E-01 7.70350E-33
8.68639E-01 7.57298E-33
8.71572E-01 7.44056E-33
8.74478E-01 7.30633E-33
8.77355E-01 7.17039E-33
8.80203E-01 7.03288E-33
8.83022E-01 6.89391E-33
8.85812E-01 6.75365E-33
8.88573E-01 6.61223E-33
8.91304E-01 6.46982E-33
8.94005E-01 6.32658E-33
8.96677E-01 6.18267E-33
8.99318E-01 6.03827E-33
9.01928E-01 5.89354E-33
9.04508E-01 5.74864E-33
9.07058E-01 5.60374E-33
9.09576E-01 5.45899E-33
9.12063E-01 5.31456E-33
9.14519E-01 5.17059E-33
9.16943E-01 5.02723E-33
9.19335E-01 4.88463E-33
9.21696E-01 4.74291E-33
9.24024E-01 4.60221E-33
9.26320E-01 4.46265E-33
9.28584E-01 4.32436E-33
9.30815E-01 4.18743E-33
9.33013E-01 4.05199E-33
9.35178E-01 3.91812E-33
9.37310E-01 3.78593E-33
9.39409E-01 3.65549E-33
9.41474E-01 3.52689E-33
9.43505E-01 3.40020E-33
9.45503E-01 3.27550E-33
9.47467E-01 3.15285E-33
9.49397E-01 3.03230E-33
9.51293E-01 2.91391E-33
9.53154E-01 2.79773E-33
9.54981E-01 2.68380E-33
9.56773E-01 2.57215E-33
9.58530E-01 2.46284E-33
9.60252E-01 2.35587E-33
9.61940E-01 2.25128E-33
9.63592E-01 2.14909E-33
9.65209E-01 2.04932E-33
9.66790E-01 1.95198E-33
9.68336E-01 1.85710E-33
9.69846E-01 1.76467E-33
9.71321E-01 1.67469E-33
9.72759E-01 1.58718E-33
9.74162E-01 1.50214E-33
9.75528E-01 1.41957E-33
9.76858E-01 1.33946E-33
9.78152E-01 1.26180E-33
9.79410E-01 1.18660E-33
9.80631E-01 1.11384E-33
9.81815E-01 1.04351E-33
9.82963E-01 9.75615E-34
9.84074E-01 9.10130E-34
9.85148E-01 8.47046E-34
9.86185E-01 7.86346E-34
9.87185E-01 7.28029E-34
9.88148E-01 6.72066E-34
9.89074E-01 6.18452E-34
9.89962E-01 5.67170E-34
9.90814E-01 5.18205E-34
9.91627E-01 4.71540E-34
9.92404E-01 4.27164E-34
9.93143E-01 3.85061E-34
9.93844E-01 3.45214E-34
9.94508E-01 3.07614E-34
9.95134E-01 2.72240E-34
9.95722E-01 2.39087E-34
9.96273E-01 2.08135E-34
9.96786E-01 1.79378E-34
9.97261E-01 1.52798E-34
9.97698E-01 1.28387E-34
9.98097E-01 1.06135E-34
9.98459E-01 8.60331E-35
9.98782E-01 6.80715E-35
9.99067E-01 5.22407E-35
9.99315E-01 3.85360E-35
9.99524E-01 2.69497E-35
9.99695E-01 1.74765E-35
9.99829E-01 1.01139E-35
9.99924E-01 4.85688E-36
9.99981E-01 1.70456E-36
1.00000E+00 6.54090E-37
