 #
 # Subroutine ELSEPA. Elastic scattering of electrons and positrons
 #                    by neutral atoms and positive ions
 #
 # Projectile: positron
 # Kinetic energy = 2.00000E+07 eV = 7.34987E+05 a.u.
 #
 # WARNING: High-energy factorization with free-atom DF screening.
 #          Absorption, polarization and exchange corrections are
 #          switched off.
 #          Phase shifts are calculated for the bare nucleus.
 #          Scattering amplitudes are not evaluated.
 #
 # Element: Sm,  Z =  62,  atomic weight = 1.50360E+02 g/mol
 #
 # Nuclear model: Fermi distribution
 #                Average radius = 5.68977E-13 cm
 #                Skin thickness = 5.46000E-14 cm
 #
 # Number of electrons = 62
 #
 # Total elastic cross section = 7.22977E-18 cm**2 = 2.58180E-01 a0**2
 # 1st transport cross section = 1.44781E-23 cm**2 = 5.17023E-07 a0**2
 # 2nd transport cross section = 4.21215E-23 cm**2 = 1.50419E-06 a0**2
 #
 #
 # Differential cross section:                       MU=(1-COS(THETA))/2
 #
 #  THETA        MU          DCS          DCS        Sherman      error
 #  (deg)                 (cm**2/sr)   (a0**2/sr)    function
 #----------------------------------------------------------------------
0.00000E+00 3.91177E-11
7.61557E-13 3.91091E-11
1.18994E-12 3.91043E-11
1.71346E-12 3.90985E-11
2.33225E-12 3.90916E-11
3.04617E-12 3.90836E-11
3.85530E-12 3.90746E-11
4.75964E-12 3.90645E-11
5.75917E-12 3.90534E-11
6.85391E-12 3.90412E-11
8.04379E-12 3.90280E-11
9.32893E-12 3.90138E-11
1.07092E-11 3.89984E-11
1.21847E-11 3.89821E-11
1.37554E-11 3.89647E-11
1.54213E-11 3.89462E-11
1.71823E-11 3.89268E-11
1.90386E-11 3.89063E-11
2.09900E-11 3.88847E-11
2.30367E-11 3.88622E-11
2.51785E-11 3.88386E-11
2.74156E-11 3.88140E-11
2.97478E-11 3.87883E-11
3.21752E-11 3.87617E-11
3.46979E-11 3.87340E-11
3.73157E-11 3.87054E-11
4.00286E-11 3.86757E-11
4.28368E-11 3.86450E-11
4.57402E-11 3.86134E-11
4.87388E-11 3.85807E-11
5.18325E-11 3.85471E-11
5.50215E-11 3.85124E-11
5.83057E-11 3.84768E-11
6.16850E-11 3.84402E-11
6.51595E-11 3.84027E-11
6.87293E-11 3.83642E-11
7.23943E-11 3.83247E-11
7.61544E-11 3.82842E-11
1.18991E-10 3.78286E-11
1.71347E-10 3.72837E-11
2.33223E-10 3.66564E-11
3.04617E-10 3.59542E-11
3.85531E-10 3.51852E-11
4.75965E-10 3.43577E-11
5.75917E-10 3.34834E-11
6.85389E-10 3.25701E-11
8.04380E-10 3.16162E-11
9.32891E-10 3.06449E-11
1.07092E-09 2.96574E-11
1.21847E-09 2.86506E-11
1.37554E-09 2.76595E-11
1.54213E-09 2.66628E-11
1.71823E-09 2.56731E-11
1.90386E-09 2.47102E-11
2.09900E-09 2.37539E-11
2.30367E-09 2.28279E-11
2.51785E-09 2.19284E-11
2.74156E-09 2.10446E-11
2.97478E-09 2.02081E-11
3.21752E-09 1.93932E-11
3.46978E-09 1.86059E-11
3.73156E-09 1.78622E-11
4.00286E-09 1.71399E-11
4.28368E-09 1.64545E-11
4.57402E-09 1.58023E-11
4.87388E-09 1.51718E-11
5.18326E-09 1.45828E-11
5.50215E-09 1.40172E-11
5.83057E-09 1.34761E-11
6.16850E-09 1.29694E-11
6.51596E-09 1.24820E-11
6.87293E-09 1.20212E-11
7.23942E-09 1.15849E-11
7.61544E-09 1.11661E-11
1.18991E-08 7.97749E-12
1.71347E-08 5.95776E-12
2.33223E-08 4.58172E-12
3.04617E-08 3.58676E-12
3.85531E-08 2.84074E-12
4.75965E-08 2.27127E-12
5.75917E-08 1.82237E-12
6.85389E-08 1.47176E-12
8.04380E-08 1.21610E-12
9.32891E-08 1.00672E-12
1.07092E-07 8.39184E-13
1.21847E-07 7.11064E-13
1.37554E-07 6.00137E-13
1.54213E-07 5.12733E-13
1.71823E-07 4.41591E-13
1.90386E-07 3.80285E-13
2.09900E-07 3.30796E-13
2.30367E-07 2.88288E-13
2.51785E-07 2.52092E-13
2.74156E-07 2.22165E-13
2.97478E-07 1.95395E-13
3.21752E-07 1.72848E-13
3.46978E-07 1.53564E-13
3.73156E-07 1.36397E-13
4.00286E-07 1.21799E-13
4.28368E-07 1.08951E-13
4.57402E-07 9.76629E-14
4.87388E-07 8.79293E-14
5.18325E-07 7.91990E-14
5.50215E-07 7.15779E-14
5.83057E-07 6.48876E-14
6.16850E-07 5.88904E-14
6.51596E-07 5.36221E-14
6.87293E-07 4.89236E-14
7.23942E-07 4.47257E-14
7.61543E-07 4.10023E-14
1.18991E-06 1.89850E-14
1.71347E-06 1.01110E-14
2.33223E-06 5.89253E-15
3.04617E-06 3.64906E-15
3.85531E-06 2.36996E-15
4.75964E-06 1.60266E-15
5.75916E-06 1.12051E-15
6.85388E-06 8.07431E-16
8.04378E-06 5.96656E-16
9.32888E-06 4.50530E-16
1.07092E-05 3.46668E-16
1.21846E-05 2.71105E-16
1.37553E-05 2.15090E-16
1.54212E-05 1.72838E-16
1.71822E-05 1.40472E-16
1.90385E-05 1.15292E-16
2.09899E-05 9.55854E-17
2.30365E-05 7.98994E-17
2.51783E-05 6.72827E-17
2.74153E-05 5.70435E-17
2.97475E-05 4.86695E-17
3.21749E-05 4.17728E-17
3.46974E-05 3.60550E-17
3.73152E-05 3.12838E-17
4.00281E-05 2.72770E-17
4.28362E-05 2.38912E-17
4.57395E-05 2.10133E-17
4.87380E-05 1.85539E-17
5.18317E-05 1.64423E-17
5.50205E-05 1.46213E-17
5.83045E-05 1.30449E-17
6.16838E-05 1.16750E-17
6.51582E-05 1.04804E-17
6.87277E-05 9.43493E-18
7.23925E-05 8.51673E-18
7.61524E-05 7.70761E-18
9.21439E-05 5.29000E-18
1.09658E-04 3.74961E-18
1.28695E-04 2.73137E-18
1.49255E-04 2.03622E-18
1.71338E-04 1.54884E-18
1.94942E-04 1.19884E-18
2.20070E-04 9.42303E-19
2.46720E-04 7.50820E-19
2.74892E-04 6.05547E-19
3.04586E-04 4.93740E-19
3.35803E-04 4.06554E-19
3.68542E-04 3.37767E-19
4.02802E-04 2.82912E-19
4.38585E-04 2.38735E-19
4.75889E-04 2.02841E-19
5.14715E-04 1.73434E-19
5.55063E-04 1.49158E-19
5.96931E-04 1.28978E-19
6.40321E-04 1.12090E-19
6.85233E-04 9.78727E-20
7.31665E-04 8.58344E-20
7.79618E-04 7.55877E-20
8.29092E-04 6.68216E-20
8.80086E-04 5.92874E-20
9.32601E-04 5.27831E-20
9.86636E-04 4.71448E-20
1.04219E-03 4.22376E-20
1.09927E-03 3.79510E-20
1.15786E-03 3.41932E-20
1.21797E-03 3.08880E-20
1.27961E-03 2.79715E-20
1.34276E-03 2.53904E-20
1.40743E-03 2.30993E-20
1.47362E-03 2.10603E-20
1.54133E-03 1.92406E-20
1.61056E-03 1.76128E-20
1.68131E-03 1.61529E-20
1.75357E-03 1.48408E-20
1.82735E-03 1.36588E-20
1.90265E-03 1.25918E-20
1.97947E-03 1.16267E-20
2.05780E-03 1.07519E-20
2.13765E-03 9.95767E-21
2.21902E-03 9.23516E-21
2.30190E-03 8.57678E-21
2.38630E-03 7.97583E-21
2.47222E-03 7.42642E-21
2.55965E-03 6.92334E-21
2.64859E-03 6.46199E-21
2.73905E-03 6.03829E-21
2.83103E-03 5.64862E-21
2.92452E-03 5.28977E-21
3.01952E-03 4.95886E-21
3.11604E-03 4.65332E-21
3.21407E-03 4.37086E-21
3.31362E-03 4.10943E-21
3.41468E-03 3.86716E-21
3.51725E-03 3.64242E-21
3.62133E-03 3.43370E-21
3.72692E-03 3.23965E-21
3.83403E-03 3.05907E-21
3.94265E-03 2.89083E-21
4.05278E-03 2.73396E-21
4.16442E-03 2.58753E-21
4.27757E-03 2.45073E-21
4.39223E-03 2.32281E-21
4.50840E-03 2.20310E-21
4.62608E-03 2.09095E-21
4.74527E-03 1.98582E-21
4.86597E-03 1.88718E-21
4.98817E-03 1.79457E-21
5.11188E-03 1.70754E-21
5.23711E-03 1.62569E-21
5.36383E-03 1.54866E-21
5.49207E-03 1.47612E-21
5.62181E-03 1.40776E-21
5.75306E-03 1.34328E-21
5.88581E-03 1.28244E-21
6.02007E-03 1.22498E-21
6.15583E-03 1.17069E-21
6.29310E-03 1.11936E-21
6.43187E-03 1.07079E-21
6.57214E-03 1.02482E-21
6.71392E-03 9.81272E-22
6.85720E-03 9.39999E-22
7.00198E-03 9.00862E-22
7.14827E-03 8.63728E-22
7.29605E-03 8.28477E-22
7.44534E-03 7.94996E-22
7.59612E-03 7.63179E-22
7.97965E-03 6.90292E-22
8.37255E-03 6.25851E-22
8.77480E-03 5.68715E-22
9.18641E-03 5.17914E-22
9.60736E-03 4.72626E-22
1.00376E-02 4.32151E-22
1.04773E-02 3.95890E-22
1.09262E-02 3.63329E-22
1.13844E-02 3.34025E-22
1.18520E-02 3.07596E-22
1.23288E-02 2.83713E-22
1.28150E-02 2.62087E-22
1.33104E-02 2.42467E-22
1.38150E-02 2.24636E-22
1.43290E-02 2.08403E-22
1.48521E-02 1.93598E-22
1.53845E-02 1.80074E-22
1.59262E-02 1.67702E-22
1.64770E-02 1.56365E-22
1.70371E-02 1.45963E-22
1.76063E-02 1.36404E-22
1.81848E-02 1.27608E-22
1.87724E-02 1.19504E-22
1.93692E-02 1.12027E-22
1.99751E-02 1.05121E-22
2.05901E-02 9.87338E-23
2.12143E-02 9.28200E-23
2.18476E-02 8.73385E-23
2.24900E-02 8.22515E-23
2.31415E-02 7.75260E-23
2.38021E-02 7.31319E-23
2.44717E-02 6.90414E-23
2.51504E-02 6.52301E-23
2.58382E-02 6.16756E-23
2.65349E-02 5.83572E-23
2.72407E-02 5.52567E-23
2.79555E-02 5.23573E-23
2.86793E-02 4.96434E-23
2.94120E-02 4.71011E-23
3.01537E-02 4.47178E-23
3.09043E-02 4.24815E-23
3.16639E-02 4.03817E-23
3.24324E-02 3.84085E-23
3.32098E-02 3.65530E-23
3.39961E-02 3.48068E-23
3.47912E-02 3.31624E-23
3.55952E-02 3.16128E-23
3.64081E-02 3.01515E-23
3.72297E-02 2.87726E-23
3.80602E-02 2.74707E-23
3.88995E-02 2.62406E-23
3.97476E-02 2.50777E-23
4.06044E-02 2.39776E-23
4.14700E-02 2.29365E-23
4.23443E-02 2.19504E-23
4.32273E-02 2.10161E-23
4.41190E-02 2.01302E-23
4.50194E-02 1.92899E-23
4.59284E-02 1.84923E-23
4.68461E-02 1.77350E-23
4.87074E-02 1.63316E-23
5.06030E-02 1.50623E-23
5.25328E-02 1.39122E-23
5.44967E-02 1.28683E-23
5.64946E-02 1.19190E-23
5.85262E-02 1.10542E-23
6.05914E-02 1.02652E-23
6.26901E-02 9.54420E-24
6.48222E-02 8.88440E-24
6.69873E-02 8.27969E-24
6.91854E-02 7.72469E-24
7.14163E-02 7.21462E-24
7.36799E-02 6.74522E-24
7.59760E-02 6.31270E-24
7.83043E-02 5.91365E-24
8.06647E-02 5.54506E-24
8.30571E-02 5.20419E-24
8.54812E-02 4.88860E-24
8.79369E-02 4.59610E-24
9.04240E-02 4.32472E-24
9.29422E-02 4.07266E-24
9.54915E-02 3.83831E-24
9.80716E-02 3.62022E-24
1.00682E-01 3.41706E-24
1.03323E-01 3.22765E-24
1.05995E-01 3.05088E-24
1.08696E-01 2.88577E-24
1.11427E-01 2.73142E-24
1.14188E-01 2.58701E-24
1.16978E-01 2.45178E-24
1.19797E-01 2.32506E-24
1.22645E-01 2.20622E-24
1.25522E-01 2.09468E-24
1.28428E-01 1.98992E-24
1.31361E-01 1.89146E-24
1.34323E-01 1.79885E-24
1.37313E-01 1.71168E-24
1.40330E-01 1.62959E-24
1.43375E-01 1.55222E-24
1.46447E-01 1.47925E-24
1.49545E-01 1.41040E-24
1.52671E-01 1.34539E-24
1.55823E-01 1.28398E-24
1.59001E-01 1.22592E-24
1.62205E-01 1.17100E-24
1.65435E-01 1.11903E-24
1.68690E-01 1.06981E-24
1.71970E-01 1.02319E-24
1.75276E-01 9.78996E-25
1.78606E-01 9.37081E-25
1.81961E-01 8.97310E-25
1.85340E-01 8.59554E-25
1.88743E-01 8.23693E-25
1.92169E-01 7.89617E-25
1.95619E-01 7.57221E-25
1.99092E-01 7.26409E-25
2.02589E-01 6.97090E-25
2.06107E-01 6.69179E-25
2.09649E-01 6.42598E-25
2.13212E-01 6.17272E-25
2.16797E-01 5.93132E-25
2.20404E-01 5.70114E-25
2.24032E-01 5.48156E-25
2.27680E-01 5.27201E-25
2.31350E-01 5.07196E-25
2.35040E-01 4.88091E-25
2.38751E-01 4.69838E-25
2.42481E-01 4.52392E-25
2.46231E-01 4.35713E-25
2.50000E-01 4.19761E-25
2.53788E-01 4.04499E-25
2.57595E-01 3.89891E-25
2.61421E-01 3.75906E-25
2.65264E-01 3.62513E-25
2.69126E-01 3.49681E-25
2.73005E-01 3.37385E-25
2.76901E-01 3.25597E-25
2.80814E-01 3.14293E-25
2.84744E-01 3.03450E-25
2.88691E-01 2.93047E-25
2.92653E-01 2.83062E-25
2.96632E-01 2.73475E-25
3.00625E-01 2.64269E-25
3.04634E-01 2.55425E-25
3.08658E-01 2.46928E-25
3.12697E-01 2.38760E-25
3.16749E-01 2.30909E-25
3.20816E-01 2.23358E-25
3.24896E-01 2.16095E-25
3.28990E-01 2.09107E-25
3.33097E-01 2.02382E-25
3.37216E-01 1.95908E-25
3.41348E-01 1.89675E-25
3.45492E-01 1.83671E-25
3.49647E-01 1.77888E-25
3.53814E-01 1.72316E-25
3.57992E-01 1.66946E-25
3.62181E-01 1.61769E-25
3.66381E-01 1.56777E-25
3.70590E-01 1.51963E-25
3.74810E-01 1.47319E-25
3.79039E-01 1.42839E-25
3.83277E-01 1.38515E-25
3.87524E-01 1.34342E-25
3.91780E-01 1.30313E-25
3.96044E-01 1.26422E-25
4.00316E-01 1.22664E-25
4.04596E-01 1.19034E-25
4.08882E-01 1.15526E-25
4.13176E-01 1.12137E-25
4.17476E-01 1.08860E-25
4.21783E-01 1.05693E-25
4.26095E-01 1.02630E-25
4.30413E-01 9.96678E-26
4.34737E-01 9.68026E-26
4.39065E-01 9.40305E-26
4.43398E-01 9.13483E-26
4.47736E-01 8.87523E-26
4.52077E-01 8.62395E-26
4.56422E-01 8.38068E-26
4.60770E-01 8.14512E-26
4.65122E-01 7.91699E-26
4.69476E-01 7.69602E-26
4.73832E-01 7.48194E-26
4.78190E-01 7.27453E-26
4.82550E-01 7.07352E-26
4.86912E-01 6.87870E-26
4.91274E-01 6.68985E-26
4.95637E-01 6.50676E-26
5.00000E-01 6.32921E-26
5.04363E-01 6.15703E-26
5.08726E-01 5.99002E-26
5.13088E-01 5.82801E-26
5.17450E-01 5.67082E-26
5.21810E-01 5.51829E-26
5.26168E-01 5.37026E-26
5.30524E-01 5.22658E-26
5.34878E-01 5.08710E-26
5.39230E-01 4.95168E-26
5.43578E-01 4.82018E-26
5.47923E-01 4.69248E-26
5.52264E-01 4.56844E-26
5.56602E-01 4.44796E-26
5.60935E-01 4.33091E-26
5.65263E-01 4.21717E-26
5.69587E-01 4.10665E-26
5.73905E-01 3.99924E-26
5.78217E-01 3.89484E-26
5.82524E-01 3.79335E-26
5.86824E-01 3.69468E-26
5.91118E-01 3.59874E-26
5.95404E-01 3.50545E-26
5.99684E-01 3.41471E-26
6.03956E-01 3.32646E-26
6.08220E-01 3.24061E-26
6.12476E-01 3.15709E-26
6.16723E-01 3.07583E-26
6.20961E-01 2.99676E-26
6.25190E-01 2.91980E-26
6.29410E-01 2.84491E-26
6.33619E-01 2.77201E-26
6.37819E-01 2.70104E-26
6.42008E-01 2.63195E-26
6.46186E-01 2.56468E-26
6.50353E-01 2.49918E-26
6.54508E-01 2.43539E-26
6.58652E-01 2.37326E-26
6.62784E-01 2.31274E-26
6.66903E-01 2.25379E-26
6.71010E-01 2.19637E-26
6.75104E-01 2.14042E-26
6.79184E-01 2.08590E-26
6.83251E-01 2.03278E-26
6.87303E-01 1.98101E-26
6.91342E-01 1.93055E-26
6.95366E-01 1.88137E-26
6.99375E-01 1.83343E-26
7.03368E-01 1.78670E-26
7.07347E-01 1.74113E-26
7.11309E-01 1.69671E-26
7.15256E-01 1.65339E-26
7.19186E-01 1.61115E-26
7.23099E-01 1.56996E-26
7.26995E-01 1.52978E-26
7.30874E-01 1.49060E-26
7.34736E-01 1.45238E-26
7.38579E-01 1.41509E-26
7.42405E-01 1.37872E-26
7.46212E-01 1.34323E-26
7.50000E-01 1.30861E-26
7.53769E-01 1.27482E-26
7.57519E-01 1.24186E-26
7.61249E-01 1.20969E-26
7.64960E-01 1.17829E-26
7.68650E-01 1.14765E-26
7.72320E-01 1.11774E-26
7.75968E-01 1.08855E-26
7.79596E-01 1.06006E-26
7.83203E-01 1.03224E-26
7.86788E-01 1.00509E-26
7.90351E-01 9.78577E-27
7.93893E-01 9.52696E-27
7.97411E-01 9.27426E-27
8.00908E-01 9.02753E-27
8.04381E-01 8.78661E-27
8.07831E-01 8.55136E-27
8.11257E-01 8.32164E-27
8.14660E-01 8.09731E-27
8.18039E-01 7.87823E-27
8.21394E-01 7.66427E-27
8.24724E-01 7.45532E-27
8.28030E-01 7.25124E-27
8.31310E-01 7.05191E-27
8.34565E-01 6.85723E-27
8.37795E-01 6.66709E-27
8.40999E-01 6.48136E-27
8.44177E-01 6.29994E-27
8.47329E-01 6.12275E-27
8.50455E-01 5.94966E-27
8.53553E-01 5.78059E-27
8.56625E-01 5.61544E-27
8.59670E-01 5.45412E-27
8.62687E-01 5.29654E-27
8.65677E-01 5.14262E-27
8.68639E-01 4.99226E-27
8.71572E-01 4.84540E-27
8.74478E-01 4.70195E-27
8.77355E-01 4.56182E-27
8.80203E-01 4.42496E-27
8.83022E-01 4.29128E-27
8.85812E-01 4.16071E-27
8.88573E-01 4.03318E-27
8.91304E-01 3.90864E-27
8.94005E-01 3.78700E-27
8.96677E-01 3.66822E-27
8.99318E-01 3.55222E-27
9.01928E-01 3.43895E-27
9.04508E-01 3.32835E-27
9.07058E-01 3.22037E-27
9.09576E-01 3.11494E-27
9.12063E-01 3.01201E-27
9.14519E-01 2.91154E-27
9.16943E-01 2.81347E-27
9.19335E-01 2.71776E-27
9.21696E-01 2.62434E-27
9.24024E-01 2.53319E-27
9.26320E-01 2.44425E-27
9.28584E-01 2.35749E-27
9.30815E-01 2.27285E-27
9.33013E-01 2.19029E-27
9.35178E-01 2.10978E-27
9.37310E-01 2.03128E-27
9.39409E-01 1.95475E-27
9.41474E-01 1.88015E-27
9.43505E-01 1.80744E-27
9.45503E-01 1.73660E-27
9.47467E-01 1.66758E-27
9.49397E-01 1.60036E-27
9.51293E-01 1.53491E-27
9.53154E-01 1.47118E-27
9.54981E-01 1.40916E-27
9.56773E-01 1.34881E-27
9.58530E-01 1.29011E-27
9.60252E-01 1.23302E-27
9.61940E-01 1.17752E-27
9.63592E-01 1.12359E-27
9.65209E-01 1.07120E-27
9.66790E-01 1.02033E-27
9.68336E-01 9.70949E-28
9.69846E-01 9.23039E-28
9.71321E-01 8.76577E-28
9.72759E-01 8.31543E-28
9.74162E-01 7.87915E-28
9.75528E-01 7.45674E-28
9.76858E-01 7.04802E-28
9.78152E-01 6.65279E-28
9.79410E-01 6.27087E-28
9.80631E-01 5.90210E-28
9.81815E-01 5.54631E-28
9.82963E-01 5.20334E-28
9.84074E-01 4.87304E-28
9.85148E-01 4.55526E-28
9.86185E-01 4.24985E-28
9.87185E-01 3.95670E-28
9.88148E-01 3.67565E-28
9.89074E-01 3.40659E-28
9.89962E-01 3.14940E-28
9.90814E-01 2.90397E-28
9.91627E-01 2.67019E-28
9.92404E-01 2.44795E-28
9.93143E-01 2.23716E-28
9.93844E-01 2.03773E-28
9.94508E-01 1.84957E-28
9.95134E-01 1.67259E-28
9.95722E-01 1.50672E-28
9.96273E-01 1.35188E-28
9.96786E-01 1.20802E-28
9.97261E-01 1.07506E-28
9.97698E-01 9.52947E-29
9.98097E-01 8.41631E-29
9.98459E-01 7.41062E-29
9.98782E-01 6.51196E-29
9.99067E-01 5.71993E-29
9.99315E-01 5.03421E-29
9.99524E-01 4.45448E-29
9.99695E-01 3.98049E-29
9.99829E-01 3.61206E-29
9.99924E-01 3.34900E-29
9.99981E-01 3.19121E-29
1.00000E+00 3.13862E-29
