 #
 # Subroutine ELSEPA. Elastic scattering of electrons and positrons
 #                    by neutral atoms and positive ions
 #
 # Projectile: positron
 # Kinetic energy = 7.00000E+07 eV = 2.57245E+06 a.u.
 #
 # WARNING: High-energy factorization with free-atom DF screening.
 #          Absorption, polarization and exchange corrections are
 #          switched off.
 #          Phase shifts are calculated for the bare nucleus.
 #          Scattering amplitudes are not evaluated.
 #
 # Element: Sm,  Z =  62,  atomic weight = 1.50360E+02 g/mol
 #
 # Nuclear model: Fermi distribution
 #                Average radius = 5.68977E-13 cm
 #                Skin thickness = 5.46000E-14 cm
 #
 # Number of electrons = 62
 #
 # Total elastic cross section = 7.22572E-18 cm**2 = 2.58035E-01 a0**2
 # 1st transport cross section = 1.42140E-24 cm**2 = 5.07592E-08 a0**2
 # 2nd transport cross section = 4.19823E-24 cm**2 = 1.49922E-07 a0**2
 #
 #
 # Differential cross section:                       MU=(1-COS(THETA))/2
 #
 #  THETA        MU          DCS          DCS        Sherman      error
 #  (deg)                 (cm**2/sr)   (a0**2/sr)    function
 #----------------------------------------------------------------------
0.00000E+00 4.62289E-10
7.61557E-13 4.61104E-10
1.18994E-12 4.60440E-10
1.71346E-12 4.59632E-10
2.33225E-12 4.58680E-10
3.04617E-12 4.57585E-10
3.85530E-12 4.56350E-10
4.75964E-12 4.54976E-10
5.75917E-12 4.53466E-10
6.85391E-12 4.51821E-10
8.04379E-12 4.50045E-10
9.32893E-12 4.48139E-10
1.07092E-11 4.46107E-10
1.21847E-11 4.43952E-10
1.37554E-11 4.41677E-10
1.54213E-11 4.39285E-10
1.71823E-11 4.36780E-10
1.90386E-11 4.34164E-10
2.09900E-11 4.31443E-10
2.30367E-11 4.28619E-10
2.51785E-11 4.25697E-10
2.74156E-11 4.22680E-10
2.97478E-11 4.19573E-10
3.21752E-11 4.16379E-10
3.46979E-11 4.13103E-10
3.73157E-11 4.09749E-10
4.00286E-11 4.06321E-10
4.28368E-11 4.02824E-10
4.57402E-11 3.99260E-10
4.87388E-11 3.95669E-10
5.18325E-11 3.92016E-10
5.50215E-11 3.88300E-10
5.83057E-11 3.84525E-10
6.16850E-11 3.80692E-10
6.51595E-11 3.76807E-10
6.87293E-11 3.72873E-10
7.23943E-11 3.68901E-10
7.61544E-11 3.64983E-10
1.18991E-10 3.24610E-10
1.71347E-10 2.84874E-10
2.33223E-10 2.47978E-10
3.04617E-10 2.15380E-10
3.85531E-10 1.87150E-10
4.75965E-10 1.63140E-10
5.75917E-10 1.42992E-10
6.85389E-10 1.26133E-10
8.04380E-10 1.11952E-10
9.32891E-10 9.99733E-11
1.07092E-09 8.98001E-11
1.21847E-09 8.10611E-11
1.37554E-09 7.34920E-11
1.54213E-09 6.68741E-11
1.71823E-09 6.10358E-11
1.90386E-09 5.58572E-11
2.09900E-09 5.12364E-11
2.30367E-09 4.70711E-11
2.51785E-09 4.33181E-11
2.74156E-09 3.99260E-11
2.97478E-09 3.68434E-11
3.21752E-09 3.40338E-11
3.46978E-09 3.14774E-11
3.73156E-09 2.91473E-11
4.00286E-09 2.70100E-11
4.28368E-09 2.50574E-11
4.57402E-09 2.32721E-11
4.87388E-09 2.15210E-11
5.18326E-09 1.99421E-11
5.50215E-09 1.85331E-11
5.83057E-09 1.72721E-11
6.16850E-09 1.61402E-11
6.51596E-09 1.51214E-11
6.87293E-09 1.42020E-11
7.23942E-09 1.33581E-11
7.61544E-09 1.24763E-11
1.18991E-08 6.87426E-12
1.71347E-08 4.11152E-12
2.33223E-08 2.60364E-12
3.04617E-08 1.70784E-12
3.85531E-08 1.16105E-12
4.75965E-08 8.14585E-13
5.75917E-08 5.87744E-13
6.85389E-08 4.35287E-13
8.04380E-08 3.30238E-13
9.32891E-08 2.55852E-13
1.07092E-07 2.01717E-13
1.21847E-07 1.61486E-13
1.37554E-07 1.30911E-13
1.54213E-07 1.07328E-13
1.71823E-07 8.88486E-14
1.90386E-07 7.41875E-14
2.09900E-07 6.24109E-14
2.30367E-07 5.28283E-14
2.51785E-07 4.49929E-14
2.74156E-07 3.85424E-14
2.97478E-07 3.31941E-14
3.21752E-07 2.87329E-14
3.46978E-07 2.49933E-14
3.73156E-07 2.18397E-14
4.00286E-07 1.91622E-14
4.28368E-07 1.68809E-14
4.57402E-07 1.49286E-14
4.87388E-07 1.32432E-14
5.18325E-07 1.17943E-14
5.50215E-07 1.05446E-14
5.83057E-07 9.45050E-15
6.16850E-07 8.49575E-15
6.51596E-07 7.66215E-15
6.87293E-07 6.92612E-15
7.23942E-07 6.27622E-15
7.61543E-07 5.70294E-15
1.18991E-06 2.43971E-15
1.71347E-06 1.21232E-15
2.33223E-06 6.68240E-16
3.04617E-06 3.97587E-16
3.85531E-06 2.50920E-16
4.75964E-06 1.65978E-16
5.75916E-06 1.14092E-16
6.85388E-06 8.09774E-17
8.04378E-06 5.90488E-17
9.32888E-06 4.40654E-17
1.07092E-05 3.35473E-17
1.21846E-05 2.59890E-17
1.37553E-05 2.04448E-17
1.54212E-05 1.63035E-17
1.71822E-05 1.31597E-17
1.90385E-05 1.07341E-17
2.09899E-05 8.84996E-18
2.30365E-05 7.36070E-18
2.51783E-05 6.17050E-18
2.74153E-05 5.21025E-18
2.97475E-05 4.42910E-18
3.21749E-05 3.78887E-18
3.46974E-05 3.26042E-18
3.73152E-05 2.82123E-18
4.00281E-05 2.45374E-18
4.28362E-05 2.14426E-18
4.57395E-05 1.88202E-18
4.87380E-05 1.65855E-18
5.18317E-05 1.46716E-18
5.50205E-05 1.30251E-18
5.83045E-05 1.16026E-18
6.16838E-05 1.03690E-18
6.51582E-05 9.29522E-19
6.87277E-05 8.35709E-19
7.23925E-05 7.53445E-19
7.61524E-05 6.81152E-19
9.21439E-05 4.65545E-19
1.09658E-04 3.28804E-19
1.28695E-04 2.38765E-19
1.49255E-04 1.77502E-19
1.71338E-04 1.34678E-19
1.94942E-04 1.04010E-19
2.20070E-04 8.15875E-20
2.46720E-04 6.48895E-20
2.74892E-04 5.22478E-20
3.04586E-04 4.25376E-20
3.35803E-04 3.49790E-20
3.68542E-04 2.90255E-20
4.02802E-04 2.42848E-20
4.38585E-04 2.04724E-20
4.75889E-04 1.73787E-20
5.14715E-04 1.48470E-20
5.55063E-04 1.27594E-20
5.96931E-04 1.10256E-20
6.40321E-04 9.57610E-21
6.85233E-04 8.35678E-21
7.31665E-04 7.32514E-21
7.79618E-04 6.44765E-21
8.29092E-04 5.69745E-21
8.80086E-04 5.05306E-21
9.32601E-04 4.49707E-21
9.86636E-04 4.01533E-21
1.04219E-03 3.59628E-21
1.09927E-03 3.23037E-21
1.15786E-03 2.90974E-21
1.21797E-03 2.62783E-21
1.27961E-03 2.37916E-21
1.34276E-03 2.15916E-21
1.40743E-03 1.96393E-21
1.47362E-03 1.79023E-21
1.54133E-03 1.63526E-21
1.61056E-03 1.49666E-21
1.68131E-03 1.37239E-21
1.75357E-03 1.26072E-21
1.82735E-03 1.16014E-21
1.90265E-03 1.06937E-21
1.97947E-03 9.87275E-22
2.05780E-03 9.12882E-22
2.13765E-03 8.45343E-22
2.21902E-03 7.83914E-22
2.30190E-03 7.27945E-22
2.38630E-03 6.76865E-22
2.47222E-03 6.30170E-22
2.55965E-03 5.87419E-22
2.64859E-03 5.48217E-22
2.73905E-03 5.12219E-22
2.83103E-03 4.79115E-22
2.92452E-03 4.48632E-22
3.01952E-03 4.20524E-22
3.11604E-03 3.94574E-22
3.21407E-03 3.70586E-22
3.31362E-03 3.48385E-22
3.41468E-03 3.27814E-22
3.51725E-03 3.08731E-22
3.62133E-03 2.91011E-22
3.72692E-03 2.74537E-22
3.83403E-03 2.59206E-22
3.94265E-03 2.44926E-22
4.05278E-03 2.31610E-22
4.16442E-03 2.19182E-22
4.27757E-03 2.07571E-22
4.39223E-03 1.96716E-22
4.50840E-03 1.86556E-22
4.62608E-03 1.77040E-22
4.74527E-03 1.68120E-22
4.86597E-03 1.59750E-22
4.98817E-03 1.51891E-22
5.11188E-03 1.44506E-22
5.23711E-03 1.37561E-22
5.36383E-03 1.31026E-22
5.49207E-03 1.24872E-22
5.62181E-03 1.19072E-22
5.75306E-03 1.13603E-22
5.88581E-03 1.08442E-22
6.02007E-03 1.03568E-22
6.15583E-03 9.89635E-23
6.29310E-03 9.46098E-23
6.43187E-03 9.04911E-23
6.57214E-03 8.65922E-23
6.71392E-03 8.28994E-23
6.85720E-03 7.93997E-23
7.00198E-03 7.60813E-23
7.14827E-03 7.29329E-23
7.29605E-03 6.99443E-23
7.44534E-03 6.71059E-23
7.59612E-03 6.44087E-23
7.97965E-03 5.82305E-23
8.37255E-03 5.27693E-23
8.77480E-03 4.79277E-23
9.18641E-03 4.36237E-23
9.60736E-03 3.97874E-23
1.00376E-02 3.63595E-23
1.04773E-02 3.32890E-23
1.09262E-02 3.05324E-23
1.13844E-02 2.80521E-23
1.18520E-02 2.58156E-23
1.23288E-02 2.37950E-23
1.28150E-02 2.19658E-23
1.33104E-02 2.03067E-23
1.38150E-02 1.87993E-23
1.43290E-02 1.74273E-23
1.48521E-02 1.61764E-23
1.53845E-02 1.50341E-23
1.59262E-02 1.39893E-23
1.64770E-02 1.30324E-23
1.70371E-02 1.21545E-23
1.76063E-02 1.13482E-23
1.81848E-02 1.06065E-23
1.87724E-02 9.92332E-24
1.93692E-02 9.29332E-24
1.99751E-02 8.71161E-24
2.05901E-02 8.17386E-24
2.12143E-02 7.67618E-24
2.18476E-02 7.21505E-24
2.24900E-02 6.78733E-24
2.31415E-02 6.39018E-24
2.38021E-02 6.02105E-24
2.44717E-02 5.67761E-24
2.51504E-02 5.35776E-24
2.58382E-02 5.05962E-24
2.65349E-02 4.78144E-24
2.72407E-02 4.52167E-24
2.79555E-02 4.27887E-24
2.86793E-02 4.05175E-24
2.94120E-02 3.83912E-24
3.01537E-02 3.63989E-24
3.09043E-02 3.45308E-24
3.16639E-02 3.27778E-24
3.24324E-02 3.11316E-24
3.32098E-02 2.95846E-24
3.39961E-02 2.81297E-24
3.47912E-02 2.67606E-24
3.55952E-02 2.54712E-24
3.64081E-02 2.42563E-24
3.72297E-02 2.31107E-24
3.80602E-02 2.20299E-24
3.88995E-02 2.10095E-24
3.97476E-02 2.00456E-24
4.06044E-02 1.91345E-24
4.14700E-02 1.82728E-24
4.23443E-02 1.74575E-24
4.32273E-02 1.66856E-24
4.41190E-02 1.59543E-24
4.50194E-02 1.52613E-24
4.59284E-02 1.46041E-24
4.68461E-02 1.39806E-24
4.87074E-02 1.28267E-24
5.06030E-02 1.17851E-24
5.25328E-02 1.08432E-24
5.44967E-02 9.98995E-25
5.64946E-02 9.21563E-25
5.85262E-02 8.51184E-25
6.05914E-02 7.87115E-25
6.26901E-02 7.28702E-25
6.48222E-02 6.75369E-25
6.69873E-02 6.26606E-25
6.91854E-02 5.81960E-25
7.14163E-02 5.41031E-25
7.36799E-02 5.03461E-25
7.59760E-02 4.68934E-25
7.83043E-02 4.37165E-25
8.06647E-02 4.07901E-25
8.30571E-02 3.80914E-25
8.54812E-02 3.56000E-25
8.79369E-02 3.32977E-25
9.04240E-02 3.11680E-25
9.29422E-02 2.91959E-25
9.54915E-02 2.73682E-25
9.80716E-02 2.56726E-25
1.00682E-01 2.40983E-25
1.03323E-01 2.26352E-25
1.05995E-01 2.12745E-25
1.08696E-01 2.00079E-25
1.11427E-01 1.88279E-25
1.14188E-01 1.77278E-25
1.16978E-01 1.67014E-25
1.19797E-01 1.57431E-25
1.22645E-01 1.48477E-25
1.25522E-01 1.40106E-25
1.28428E-01 1.32273E-25
1.31361E-01 1.24940E-25
1.34323E-01 1.18070E-25
1.37313E-01 1.11630E-25
1.40330E-01 1.05589E-25
1.43375E-01 9.99203E-26
1.46447E-01 9.45966E-26
1.49545E-01 8.95944E-26
1.52671E-01 8.48918E-26
1.55823E-01 8.04684E-26
1.59001E-01 7.63055E-26
1.62205E-01 7.23858E-26
1.65435E-01 6.86931E-26
1.68690E-01 6.52128E-26
1.71970E-01 6.19309E-26
1.75276E-01 5.88347E-26
1.78606E-01 5.59125E-26
1.81961E-01 5.31531E-26
1.85340E-01 5.05465E-26
1.88743E-01 4.80830E-26
1.92169E-01 4.57539E-26
1.95619E-01 4.35510E-26
1.99092E-01 4.14665E-26
2.02589E-01 3.94933E-26
2.06107E-01 3.76249E-26
2.09649E-01 3.58549E-26
2.13212E-01 3.41776E-26
2.16797E-01 3.25875E-26
2.20404E-01 3.10797E-26
2.24032E-01 2.96492E-26
2.27680E-01 2.82918E-26
2.31350E-01 2.70032E-26
2.35040E-01 2.57796E-26
2.38751E-01 2.46174E-26
2.42481E-01 2.35130E-26
2.46231E-01 2.24633E-26
2.50000E-01 2.14654E-26
2.53788E-01 2.05163E-26
2.57595E-01 1.96135E-26
2.61421E-01 1.87544E-26
2.65264E-01 1.79366E-26
2.69126E-01 1.71581E-26
2.73005E-01 1.64166E-26
2.76901E-01 1.57103E-26
2.80814E-01 1.50373E-26
2.84744E-01 1.43960E-26
2.88691E-01 1.37845E-26
2.92653E-01 1.32015E-26
2.96632E-01 1.26454E-26
3.00625E-01 1.21149E-26
3.04634E-01 1.16087E-26
3.08658E-01 1.11255E-26
3.12697E-01 1.06643E-26
3.16749E-01 1.02239E-26
3.20816E-01 9.80333E-27
3.24896E-01 9.40155E-27
3.28990E-01 9.01767E-27
3.33097E-01 8.65081E-27
3.37216E-01 8.30016E-27
3.41348E-01 7.96492E-27
3.45492E-01 7.64436E-27
3.49647E-01 7.33778E-27
3.53814E-01 7.04451E-27
3.57992E-01 6.76392E-27
3.62181E-01 6.49541E-27
3.66381E-01 6.23843E-27
3.70590E-01 5.99242E-27
3.74810E-01 5.75688E-27
3.79039E-01 5.53133E-27
3.83277E-01 5.31531E-27
3.87524E-01 5.10837E-27
3.91780E-01 4.91011E-27
3.96044E-01 4.72013E-27
4.00316E-01 4.53805E-27
4.04596E-01 4.36352E-27
4.08882E-01 4.19620E-27
4.13176E-01 4.03577E-27
4.17476E-01 3.88191E-27
4.21783E-01 3.73435E-27
4.26095E-01 3.59280E-27
4.30413E-01 3.45699E-27
4.34737E-01 3.32668E-27
4.39065E-01 3.20163E-27
4.43398E-01 3.08160E-27
4.47736E-01 2.96637E-27
4.52077E-01 2.85575E-27
4.56422E-01 2.74953E-27
4.60770E-01 2.64753E-27
4.65122E-01 2.54956E-27
4.69476E-01 2.45546E-27
4.73832E-01 2.36505E-27
4.78190E-01 2.27818E-27
4.82550E-01 2.19471E-27
4.86912E-01 2.11449E-27
4.91274E-01 2.03739E-27
4.95637E-01 1.96327E-27
5.00000E-01 1.89201E-27
5.04363E-01 1.82350E-27
5.08726E-01 1.75761E-27
5.13088E-01 1.69425E-27
5.17450E-01 1.63330E-27
5.21810E-01 1.57468E-27
5.26168E-01 1.51828E-27
5.30524E-01 1.46401E-27
5.34878E-01 1.41179E-27
5.39230E-01 1.36154E-27
5.43578E-01 1.31318E-27
5.47923E-01 1.26662E-27
5.52264E-01 1.22181E-27
5.56602E-01 1.17866E-27
5.60935E-01 1.13712E-27
5.65263E-01 1.09711E-27
5.69587E-01 1.05859E-27
5.73905E-01 1.02148E-27
5.78217E-01 9.85743E-28
5.82524E-01 9.51313E-28
5.86824E-01 9.18143E-28
5.91118E-01 8.86184E-28
5.95404E-01 8.55388E-28
5.99684E-01 8.25711E-28
6.03956E-01 7.97109E-28
6.08220E-01 7.69541E-28
6.12476E-01 7.42967E-28
6.16723E-01 7.17349E-28
6.20961E-01 6.92651E-28
6.25190E-01 6.68837E-28
6.29410E-01 6.45874E-28
6.33619E-01 6.23729E-28
6.37819E-01 6.02372E-28
6.42008E-01 5.81773E-28
6.46186E-01 5.61903E-28
6.50353E-01 5.42735E-28
6.54508E-01 5.24243E-28
6.58652E-01 5.06401E-28
6.62784E-01 4.89185E-28
6.66903E-01 4.72572E-28
6.71010E-01 4.56539E-28
6.75104E-01 4.41066E-28
6.79184E-01 4.26131E-28
6.83251E-01 4.11714E-28
6.87303E-01 3.97797E-28
6.91342E-01 3.84361E-28
6.95366E-01 3.71389E-28
6.99375E-01 3.58864E-28
7.03368E-01 3.46768E-28
7.07347E-01 3.35088E-28
7.11309E-01 3.23808E-28
7.15256E-01 3.12912E-28
7.19186E-01 3.02389E-28
7.23099E-01 2.92223E-28
7.26995E-01 2.82403E-28
7.30874E-01 2.72915E-28
7.34736E-01 2.63749E-28
7.38579E-01 2.54891E-28
7.42405E-01 2.46333E-28
7.46212E-01 2.38062E-28
7.50000E-01 2.30069E-28
7.53769E-01 2.22344E-28
7.57519E-01 2.14878E-28
7.61249E-01 2.07660E-28
7.64960E-01 2.00684E-28
7.68650E-01 1.93939E-28
7.72320E-01 1.87419E-28
7.75968E-01 1.81115E-28
7.79596E-01 1.75019E-28
7.83203E-01 1.69125E-28
7.86788E-01 1.63426E-28
7.90351E-01 1.57914E-28
7.93893E-01 1.52583E-28
7.97411E-01 1.47428E-28
8.00908E-01 1.42441E-28
8.04381E-01 1.37618E-28
8.07831E-01 1.32953E-28
8.11257E-01 1.28439E-28
8.14660E-01 1.24073E-28
8.18039E-01 1.19849E-28
8.21394E-01 1.15762E-28
8.24724E-01 1.11807E-28
8.28030E-01 1.07981E-28
8.31310E-01 1.04279E-28
8.34565E-01 1.00696E-28
8.37795E-01 9.72286E-29
8.40999E-01 9.38732E-29
8.44177E-01 9.06258E-29
8.47329E-01 8.74828E-29
8.50455E-01 8.44408E-29
8.53553E-01 8.14963E-29
8.56625E-01 7.86462E-29
8.59670E-01 7.58874E-29
8.62687E-01 7.32168E-29
8.65677E-01 7.06315E-29
8.68639E-01 6.81288E-29
8.71572E-01 6.57060E-29
8.74478E-01 6.33603E-29
8.77355E-01 6.10894E-29
8.80203E-01 5.88908E-29
8.83022E-01 5.67621E-29
8.85812E-01 5.47012E-29
8.88573E-01 5.27057E-29
8.91304E-01 5.07737E-29
8.94005E-01 4.89030E-29
8.96677E-01 4.70917E-29
8.99318E-01 4.53380E-29
9.01928E-01 4.36399E-29
9.04508E-01 4.19958E-29
9.07058E-01 4.04039E-29
9.09576E-01 3.88625E-29
9.12063E-01 3.73702E-29
9.14519E-01 3.59253E-29
9.16943E-01 3.45264E-29
9.19335E-01 3.31721E-29
9.21696E-01 3.18609E-29
9.24024E-01 3.05916E-29
9.26320E-01 2.93629E-29
9.28584E-01 2.81734E-29
9.30815E-01 2.70221E-29
9.33013E-01 2.59078E-29
9.35178E-01 2.48293E-29
9.37310E-01 2.37855E-29
9.39409E-01 2.27755E-29
9.41474E-01 2.17983E-29
9.43505E-01 2.08528E-29
9.45503E-01 1.99381E-29
9.47467E-01 1.90534E-29
9.49397E-01 1.81977E-29
9.51293E-01 1.73702E-29
9.53154E-01 1.65701E-29
9.54981E-01 1.57967E-29
9.56773E-01 1.50491E-29
9.58530E-01 1.43267E-29
9.60252E-01 1.36287E-29
9.61940E-01 1.29545E-29
9.63592E-01 1.23034E-29
9.65209E-01 1.16748E-29
9.66790E-01 1.10681E-29
9.68336E-01 1.04827E-29
9.69846E-01 9.91806E-30
9.71321E-01 9.37361E-30
9.72759E-01 8.84884E-30
9.74162E-01 8.34326E-30
9.75528E-01 7.85638E-30
9.76858E-01 7.38775E-30
9.78152E-01 6.93692E-30
9.79410E-01 6.50346E-30
9.80631E-01 6.08697E-30
9.81815E-01 5.68705E-30
9.82963E-01 5.30334E-30
9.84074E-01 4.93546E-30
9.85148E-01 4.58307E-30
9.86185E-01 4.24585E-30
9.87185E-01 3.92347E-30
9.88148E-01 3.61564E-30
9.89074E-01 3.32208E-30
9.89962E-01 3.04250E-30
9.90814E-01 2.77664E-30
9.91627E-01 2.52427E-30
9.92404E-01 2.28515E-30
9.93143E-01 2.05905E-30
9.93844E-01 1.84576E-30
9.94508E-01 1.64510E-30
9.95134E-01 1.45686E-30
9.95722E-01 1.28089E-30
9.96273E-01 1.11702E-30
9.96786E-01 9.65089E-31
9.97261E-01 8.24968E-31
9.97698E-01 6.96525E-31
9.98097E-01 5.79642E-31
9.98459E-01 4.74212E-31
9.98782E-01 3.80137E-31
9.99067E-01 2.97332E-31
9.99315E-01 2.25721E-31
9.99524E-01 1.65237E-31
9.99695E-01 1.15825E-31
9.99829E-01 7.74411E-32
9.99924E-01 5.00488E-32
9.99981E-01 3.36237E-32
1.00000E+00 2.81505E-32
