 #
 # Subroutine ELSEPA. Elastic scattering of electrons and positrons
 #                    by neutral atoms and positive ions
 #
 # Projectile: positron
 # Kinetic energy = 9.00000E+07 eV = 3.30744E+06 a.u.
 #
 # WARNING: High-energy factorization with free-atom DF screening.
 #          Absorption, polarization and exchange corrections are
 #          switched off.
 #          Phase shifts are calculated for the bare nucleus.
 #          Scattering amplitudes are not evaluated.
 #
 # Element: Sm,  Z =  62,  atomic weight = 1.50360E+02 g/mol
 #
 # Nuclear model: Fermi distribution
 #                Average radius = 5.68977E-13 cm
 #                Skin thickness = 5.46000E-14 cm
 #
 # Number of electrons = 62
 #
 # Total elastic cross section = 7.22503E-18 cm**2 = 2.58010E-01 a0**2
 # 1st transport cross section = 8.75549E-25 cm**2 = 3.12664E-08 a0**2
 # 2nd transport cross section = 2.59785E-24 cm**2 = 9.27710E-08 a0**2
 #
 #
 # Differential cross section:                       MU=(1-COS(THETA))/2
 #
 #  THETA        MU          DCS          DCS        Sherman      error
 #  (deg)                 (cm**2/sr)   (a0**2/sr)    function
 #----------------------------------------------------------------------
0.00000E+00 7.61733E-10
7.61557E-13 7.58521E-10
1.18994E-12 7.56727E-10
1.71346E-12 7.54544E-10
2.33225E-12 7.51978E-10
3.04617E-12 7.49035E-10
3.85530E-12 7.45724E-10
4.75964E-12 7.42051E-10
5.75917E-12 7.38026E-10
6.85391E-12 7.33660E-10
8.04379E-12 7.28962E-10
9.32893E-12 7.23944E-10
1.07092E-11 7.18619E-10
1.21847E-11 7.12998E-10
1.37554E-11 7.07093E-10
1.54213E-11 7.00920E-10
1.71823E-11 6.94492E-10
1.90386E-11 6.87821E-10
2.09900E-11 6.80924E-10
2.30367E-11 6.73814E-10
2.51785E-11 6.66506E-10
2.74156E-11 6.59015E-10
2.97478E-11 6.51415E-10
3.21752E-11 6.43658E-10
3.46979E-11 6.35732E-10
3.73157E-11 6.27649E-10
4.00286E-11 6.19423E-10
4.28368E-11 6.11065E-10
4.57402E-11 6.02738E-10
4.87388E-11 5.94373E-10
5.18325E-11 5.85914E-10
5.50215E-11 5.77370E-10
5.83057E-11 5.68754E-10
6.16850E-11 5.60076E-10
6.51595E-11 5.51509E-10
6.87293E-11 5.42999E-10
7.23943E-11 5.34457E-10
7.61544E-11 5.25891E-10
1.18991E-10 4.43293E-10
1.71347E-10 3.70105E-10
2.33223E-10 3.08995E-10
3.04617E-10 2.59304E-10
3.85531E-10 2.19642E-10
4.75965E-10 1.88023E-10
5.75917E-10 1.62579E-10
6.85389E-10 1.41896E-10
8.04380E-10 1.24806E-10
9.32891E-10 1.10488E-10
1.07092E-09 9.83055E-11
1.21847E-09 8.78259E-11
1.37554E-09 7.87387E-11
1.54213E-09 7.07612E-11
1.71823E-09 6.37467E-11
1.90386E-09 5.75543E-11
2.09900E-09 5.20405E-11
2.30367E-09 4.71468E-11
2.51785E-09 4.27891E-11
2.74156E-09 3.88904E-11
2.97478E-09 3.52109E-11
3.21752E-09 3.19582E-11
3.46978E-09 2.91440E-11
3.73156E-09 2.66974E-11
4.00286E-09 2.45606E-11
4.28368E-09 2.26860E-11
4.57402E-09 2.08463E-11
4.87388E-09 1.91475E-11
5.18326E-09 1.76490E-11
5.50215E-09 1.63221E-11
5.83057E-09 1.51431E-11
6.16850E-09 1.40919E-11
6.51596E-09 1.30802E-11
6.87293E-09 1.21350E-11
7.23942E-09 1.12880E-11
7.61544E-09 1.05268E-11
1.18991E-08 5.56112E-12
1.71347E-08 3.17999E-12
2.33223E-08 1.92338E-12
3.04617E-08 1.22594E-12
3.85531E-08 8.17835E-13
4.75965E-08 5.68422E-13
5.75917E-08 4.09306E-13
6.85389E-08 3.03407E-13
8.04380E-08 2.30026E-13
9.32891E-08 1.77856E-13
1.07092E-07 1.39735E-13
1.21847E-07 1.11276E-13
1.37554E-07 8.96432E-14
1.54213E-07 7.29209E-14
1.71823E-07 5.98832E-14
1.90386E-07 4.96134E-14
2.09900E-07 4.14315E-14
2.30367E-07 3.48611E-14
2.51785E-07 2.95352E-14
2.74156E-07 2.51818E-14
2.97478E-07 2.15905E-14
3.21752E-07 1.86287E-14
3.46978E-07 1.61630E-14
3.73156E-07 1.40857E-14
4.00286E-07 1.23410E-14
4.28368E-07 1.08513E-14
4.57402E-07 9.58421E-15
4.87388E-07 8.49724E-15
5.18325E-07 7.55959E-15
5.50215E-07 6.75088E-15
5.83057E-07 6.04437E-15
6.16850E-07 5.43023E-15
6.51596E-07 4.89152E-15
6.87293E-07 4.41819E-15
7.23942E-07 4.00156E-15
7.61543E-07 3.63187E-15
1.18991E-06 1.54078E-15
1.71347E-06 7.59812E-16
2.33223E-06 4.16197E-16
3.04617E-06 2.46477E-16
3.85531E-06 1.55044E-16
4.75964E-06 1.02331E-16
5.75916E-06 7.02344E-17
6.85388E-06 4.97937E-17
8.04378E-06 3.62785E-17
9.32888E-06 2.70540E-17
1.07092E-05 2.05840E-17
1.21846E-05 1.59375E-17
1.37553E-05 1.25311E-17
1.54212E-05 9.98779E-18
1.71822E-05 8.05799E-18
1.90385E-05 6.56972E-18
2.09899E-05 5.41417E-18
2.30365E-05 4.50118E-18
2.51783E-05 3.77184E-18
2.74153E-05 3.18366E-18
2.97475E-05 2.70536E-18
3.21749E-05 2.31351E-18
3.46974E-05 1.99018E-18
3.73152E-05 1.72157E-18
4.00281E-05 1.49690E-18
4.28362E-05 1.30775E-18
4.57395E-05 1.14752E-18
4.87380E-05 1.01103E-18
5.18317E-05 8.94161E-19
5.50205E-05 7.93646E-19
5.83045E-05 7.06835E-19
6.16838E-05 6.31567E-19
6.51582E-05 5.66065E-19
6.87277E-05 5.08851E-19
7.23925E-05 4.58692E-19
7.61524E-05 4.14671E-19
9.21439E-05 2.83281E-19
1.09658E-04 2.00002E-19
1.28695E-04 1.45193E-19
1.49255E-04 1.07914E-19
1.71338E-04 8.18650E-20
1.94942E-04 6.32143E-20
2.20070E-04 4.95812E-20
2.46720E-04 3.94302E-20
2.74892E-04 3.17463E-20
3.04586E-04 2.58448E-20
3.35803E-04 2.12516E-20
3.68542E-04 1.76338E-20
4.02802E-04 1.47534E-20
4.38585E-04 1.24370E-20
4.75889E-04 1.05575E-20
5.14715E-04 9.01938E-21
5.55063E-04 7.75115E-21
5.96931E-04 6.69784E-21
6.40321E-04 5.81728E-21
6.85233E-04 5.07655E-21
7.31665E-04 4.44986E-21
7.79618E-04 3.91679E-21
8.29092E-04 3.46107E-21
8.80086E-04 3.06961E-21
9.32601E-04 2.73186E-21
9.86636E-04 2.43921E-21
1.04219E-03 2.18464E-21
1.09927E-03 1.96236E-21
1.15786E-03 1.76757E-21
1.21797E-03 1.59631E-21
1.27961E-03 1.44524E-21
1.34276E-03 1.31159E-21
1.40743E-03 1.19299E-21
1.47362E-03 1.08746E-21
1.54133E-03 9.93310E-22
1.61056E-03 9.09102E-22
1.68131E-03 8.33604E-22
1.75357E-03 7.65758E-22
1.82735E-03 7.04653E-22
1.90265E-03 6.49502E-22
1.97947E-03 5.99623E-22
2.05780E-03 5.54424E-22
2.13765E-03 5.13389E-22
2.21902E-03 4.76066E-22
2.30190E-03 4.42061E-22
2.38630E-03 4.11025E-22
2.47222E-03 3.82654E-22
2.55965E-03 3.56679E-22
2.64859E-03 3.32861E-22
2.73905E-03 3.10990E-22
2.83103E-03 2.90877E-22
2.92452E-03 2.72355E-22
3.01952E-03 2.55275E-22
3.11604E-03 2.39506E-22
3.21407E-03 2.24929E-22
3.31362E-03 2.11439E-22
3.41468E-03 1.98939E-22
3.51725E-03 1.87344E-22
3.62133E-03 1.76576E-22
3.72692E-03 1.66566E-22
3.83403E-03 1.57251E-22
3.94265E-03 1.48573E-22
4.05278E-03 1.40482E-22
4.16442E-03 1.32931E-22
4.27757E-03 1.25877E-22
4.39223E-03 1.19281E-22
4.50840E-03 1.13108E-22
4.62608E-03 1.07327E-22
4.74527E-03 1.01907E-22
4.86597E-03 9.68224E-23
4.98817E-03 9.20485E-23
5.11188E-03 8.75627E-23
5.23711E-03 8.33446E-23
5.36383E-03 7.93752E-23
5.49207E-03 7.56373E-23
5.62181E-03 7.21148E-23
5.75306E-03 6.87931E-23
5.88581E-03 6.56587E-23
6.02007E-03 6.26991E-23
6.15583E-03 5.99027E-23
6.29310E-03 5.72589E-23
6.43187E-03 5.47579E-23
6.57214E-03 5.23905E-23
6.71392E-03 5.01484E-23
6.85720E-03 4.80236E-23
7.00198E-03 4.60089E-23
7.14827E-03 4.40975E-23
7.29605E-03 4.22833E-23
7.44534E-03 4.05603E-23
7.59612E-03 3.89232E-23
7.97965E-03 3.51734E-23
8.37255E-03 3.18593E-23
8.77480E-03 2.89217E-23
9.18641E-03 2.63107E-23
9.60736E-03 2.39840E-23
1.00376E-02 2.19052E-23
1.04773E-02 2.00437E-23
1.09262E-02 1.83727E-23
1.13844E-02 1.68696E-23
1.18520E-02 1.55147E-23
1.23288E-02 1.42907E-23
1.28150E-02 1.31831E-23
1.33104E-02 1.21787E-23
1.38150E-02 1.12664E-23
1.43290E-02 1.04363E-23
1.48521E-02 9.67975E-24
1.53845E-02 8.98910E-24
1.59262E-02 8.35763E-24
1.64770E-02 7.77944E-24
1.70371E-02 7.24925E-24
1.76063E-02 6.76241E-24
1.81848E-02 6.31477E-24
1.87724E-02 5.90265E-24
1.93692E-02 5.52275E-24
1.99751E-02 5.17212E-24
2.05901E-02 4.84813E-24
2.12143E-02 4.54842E-24
2.18476E-02 4.27085E-24
2.24900E-02 4.01351E-24
2.31415E-02 3.77469E-24
2.38021E-02 3.55283E-24
2.44717E-02 3.34651E-24
2.51504E-02 3.15448E-24
2.58382E-02 2.97557E-24
2.65349E-02 2.80874E-24
2.72407E-02 2.65303E-24
2.79555E-02 2.50758E-24
2.86793E-02 2.37161E-24
2.94120E-02 2.24439E-24
3.01537E-02 2.12527E-24
3.09043E-02 2.01364E-24
3.16639E-02 1.90896E-24
3.24324E-02 1.81072E-24
3.32098E-02 1.71846E-24
3.39961E-02 1.63176E-24
3.47912E-02 1.55023E-24
3.55952E-02 1.47350E-24
3.64081E-02 1.40126E-24
3.72297E-02 1.33319E-24
3.80602E-02 1.26901E-24
3.88995E-02 1.20847E-24
3.97476E-02 1.15133E-24
4.06044E-02 1.09736E-24
4.14700E-02 1.04637E-24
4.23443E-02 9.98153E-25
4.32273E-02 9.52543E-25
4.41190E-02 9.09374E-25
4.50194E-02 8.68496E-25
4.59284E-02 8.29767E-25
4.68461E-02 7.93057E-25
4.87074E-02 7.25214E-25
5.06030E-02 6.64089E-25
5.25328E-02 6.08920E-25
5.44967E-02 5.59041E-25
5.64946E-02 5.13872E-25
5.85262E-02 4.72903E-25
6.05914E-02 4.35688E-25
6.26901E-02 4.01834E-25
6.48222E-02 3.70995E-25
6.69873E-02 3.42864E-25
6.91854E-02 3.17169E-25
7.14163E-02 2.93672E-25
7.36799E-02 2.72158E-25
7.59760E-02 2.52436E-25
7.83043E-02 2.34337E-25
8.06647E-02 2.17710E-25
8.30571E-02 2.02419E-25
8.54812E-02 1.88342E-25
8.79369E-02 1.75370E-25
9.04240E-02 1.63406E-25
9.29422E-02 1.52360E-25
9.54915E-02 1.42153E-25
9.80716E-02 1.32714E-25
1.00682E-01 1.23977E-25
1.03323E-01 1.15884E-25
1.05995E-01 1.08381E-25
1.08696E-01 1.01420E-25
1.11427E-01 9.49568E-26
1.14188E-01 8.89521E-26
1.16978E-01 8.33692E-26
1.19797E-01 7.81751E-26
1.22645E-01 7.33394E-26
1.25522E-01 6.88347E-26
1.28428E-01 6.46357E-26
1.31361E-01 6.07193E-26
1.34323E-01 5.70643E-26
1.37313E-01 5.36514E-26
1.40330E-01 5.04628E-26
1.43375E-01 4.74822E-26
1.46447E-01 4.46945E-26
1.49545E-01 4.20860E-26
1.52671E-01 3.96439E-26
1.55823E-01 3.73565E-26
1.59001E-01 3.52131E-26
1.62205E-01 3.32036E-26
1.65435E-01 3.13188E-26
1.68690E-01 2.95503E-26
1.71970E-01 2.78902E-26
1.75276E-01 2.63312E-26
1.78606E-01 2.48666E-26
1.81961E-01 2.34900E-26
1.85340E-01 2.21958E-26
1.88743E-01 2.09786E-26
1.92169E-01 1.98333E-26
1.95619E-01 1.87553E-26
1.99092E-01 1.77404E-26
2.02589E-01 1.67845E-26
2.06107E-01 1.58839E-26
2.09649E-01 1.50351E-26
2.13212E-01 1.42349E-26
2.16797E-01 1.34803E-26
2.20404E-01 1.27685E-26
2.24032E-01 1.20968E-26
2.27680E-01 1.14629E-26
2.31350E-01 1.08644E-26
2.35040E-01 1.02992E-26
2.38751E-01 9.76525E-27
2.42481E-01 9.26078E-27
2.46231E-01 8.78401E-27
2.50000E-01 8.33330E-27
2.53788E-01 7.90714E-27
2.57595E-01 7.50408E-27
2.61421E-01 7.12279E-27
2.65264E-01 6.76201E-27
2.69126E-01 6.42056E-27
2.73005E-01 6.09733E-27
2.76901E-01 5.79130E-27
2.80814E-01 5.50147E-27
2.84744E-01 5.22695E-27
2.88691E-01 4.96687E-27
2.92653E-01 4.72043E-27
2.96632E-01 4.48685E-27
3.00625E-01 4.26544E-27
3.04634E-01 4.05551E-27
3.08658E-01 3.85645E-27
3.12697E-01 3.66764E-27
3.16749E-01 3.48854E-27
3.20816E-01 3.31861E-27
3.24896E-01 3.15736E-27
3.28990E-01 3.00432E-27
3.33097E-01 2.85905E-27
3.37216E-01 2.72113E-27
3.41348E-01 2.59018E-27
3.45492E-01 2.46581E-27
3.49647E-01 2.34769E-27
3.53814E-01 2.23548E-27
3.57992E-01 2.12887E-27
3.62181E-01 2.02756E-27
3.66381E-01 1.93129E-27
3.70590E-01 1.83978E-27
3.74810E-01 1.75280E-27
3.79039E-01 1.67010E-27
3.83277E-01 1.59146E-27
3.87524E-01 1.51668E-27
3.91780E-01 1.44556E-27
3.96044E-01 1.37791E-27
4.00316E-01 1.31355E-27
4.04596E-01 1.25231E-27
4.08882E-01 1.19405E-27
4.13176E-01 1.13859E-27
4.17476E-01 1.08582E-27
4.21783E-01 1.03558E-27
4.26095E-01 9.87761E-28
4.30413E-01 9.42229E-28
4.34737E-01 8.98875E-28
4.39065E-01 8.57590E-28
4.43398E-01 8.18271E-28
4.47736E-01 7.80820E-28
4.52077E-01 7.45145E-28
4.56422E-01 7.11159E-28
4.60770E-01 6.78779E-28
4.65122E-01 6.47924E-28
4.69476E-01 6.18522E-28
4.73832E-01 5.90500E-28
4.78190E-01 5.63792E-28
4.82550E-01 5.38333E-28
4.86912E-01 5.14063E-28
4.91274E-01 4.90925E-28
4.95637E-01 4.68863E-28
5.00000E-01 4.47825E-28
5.04363E-01 4.27763E-28
5.08726E-01 4.08629E-28
5.13088E-01 3.90379E-28
5.17450E-01 3.72970E-28
5.21810E-01 3.56363E-28
5.26168E-01 3.40519E-28
5.30524E-01 3.25402E-28
5.34878E-01 3.10977E-28
5.39230E-01 2.97212E-28
5.43578E-01 2.84075E-28
5.47923E-01 2.71536E-28
5.52264E-01 2.59568E-28
5.56602E-01 2.48144E-28
5.60935E-01 2.37238E-28
5.65263E-01 2.26825E-28
5.69587E-01 2.16883E-28
5.73905E-01 2.07390E-28
5.78217E-01 1.98325E-28
5.82524E-01 1.89667E-28
5.86824E-01 1.81398E-28
5.91118E-01 1.73500E-28
5.95404E-01 1.65956E-28
5.99684E-01 1.58749E-28
6.03956E-01 1.51864E-28
6.08220E-01 1.45286E-28
6.12476E-01 1.39000E-28
6.16723E-01 1.32994E-28
6.20961E-01 1.27255E-28
6.25190E-01 1.21770E-28
6.29410E-01 1.16527E-28
6.33619E-01 1.11516E-28
6.37819E-01 1.06726E-28
6.42008E-01 1.02147E-28
6.46186E-01 9.77700E-29
6.50353E-01 9.35849E-29
6.54508E-01 8.95834E-29
6.58652E-01 8.57571E-29
6.62784E-01 8.20982E-29
6.66903E-01 7.85991E-29
6.71010E-01 7.52527E-29
6.75104E-01 7.20519E-29
6.79184E-01 6.89904E-29
6.83251E-01 6.60619E-29
6.87303E-01 6.32604E-29
6.91342E-01 6.05803E-29
6.95366E-01 5.80160E-29
6.99375E-01 5.55626E-29
7.03368E-01 5.32150E-29
7.07347E-01 5.09685E-29
7.11309E-01 4.88186E-29
7.15256E-01 4.67612E-29
7.19186E-01 4.47920E-29
7.23099E-01 4.29071E-29
7.26995E-01 4.11030E-29
7.30874E-01 3.93759E-29
7.34736E-01 3.77225E-29
7.38579E-01 3.61396E-29
7.42405E-01 3.46241E-29
7.46212E-01 3.31730E-29
7.50000E-01 3.17835E-29
7.53769E-01 3.04529E-29
7.57519E-01 2.91787E-29
7.61249E-01 2.79584E-29
7.64960E-01 2.67896E-29
7.68650E-01 2.56700E-29
7.72320E-01 2.45977E-29
7.75968E-01 2.35705E-29
7.79596E-01 2.25864E-29
7.83203E-01 2.16436E-29
7.86788E-01 2.07404E-29
7.90351E-01 1.98750E-29
7.93893E-01 1.90457E-29
7.97411E-01 1.82511E-29
8.00908E-01 1.74896E-29
8.04381E-01 1.67599E-29
8.07831E-01 1.60605E-29
8.11257E-01 1.53901E-29
8.14660E-01 1.47476E-29
8.18039E-01 1.41317E-29
8.21394E-01 1.35414E-29
8.24724E-01 1.29754E-29
8.28030E-01 1.24328E-29
8.31310E-01 1.19126E-29
8.34565E-01 1.14139E-29
8.37795E-01 1.09356E-29
8.40999E-01 1.04771E-29
8.44177E-01 1.00373E-29
8.47329E-01 9.61566E-30
8.50455E-01 9.21125E-30
8.53553E-01 8.82340E-30
8.56625E-01 8.45141E-30
8.59670E-01 8.09461E-30
8.62687E-01 7.75238E-30
8.65677E-01 7.42409E-30
8.68639E-01 7.10917E-30
8.71572E-01 6.80707E-30
8.74478E-01 6.51724E-30
8.77355E-01 6.23918E-30
8.80203E-01 5.97240E-30
8.83022E-01 5.71643E-30
8.85812E-01 5.47082E-30
8.88573E-01 5.23515E-30
8.91304E-01 5.00901E-30
8.94005E-01 4.79201E-30
8.96677E-01 4.58376E-30
8.99318E-01 4.38391E-30
9.01928E-01 4.19212E-30
9.04508E-01 4.00805E-30
9.07058E-01 3.83139E-30
9.09576E-01 3.66184E-30
9.12063E-01 3.49911E-30
9.14519E-01 3.34292E-30
9.16943E-01 3.19300E-30
9.19335E-01 3.04911E-30
9.21696E-01 2.91100E-30
9.24024E-01 2.77843E-30
9.26320E-01 2.65118E-30
9.28584E-01 2.52905E-30
9.30815E-01 2.41182E-30
9.33013E-01 2.29929E-30
9.35178E-01 2.19129E-30
9.37310E-01 2.08763E-30
9.39409E-01 1.98814E-30
9.41474E-01 1.89265E-30
9.43505E-01 1.80101E-30
9.45503E-01 1.71306E-30
9.47467E-01 1.62867E-30
9.49397E-01 1.54769E-30
9.51293E-01 1.46998E-30
9.53154E-01 1.39543E-30
9.54981E-01 1.32391E-30
9.56773E-01 1.25531E-30
9.58530E-01 1.18950E-30
9.60252E-01 1.12639E-30
9.61940E-01 1.06588E-30
9.63592E-01 1.00786E-30
9.65209E-01 9.52247E-31
9.66790E-01 8.98944E-31
9.68336E-01 8.47869E-31
9.69846E-01 7.98939E-31
9.71321E-01 7.52077E-31
9.72759E-01 7.07206E-31
9.74162E-01 6.64257E-31
9.75528E-01 6.23160E-31
9.76858E-01 5.83850E-31
9.78152E-01 5.46265E-31
9.79410E-01 5.10345E-31
9.80631E-01 4.76034E-31
9.81815E-01 4.43277E-31
9.82963E-01 4.12023E-31
9.84074E-01 3.82223E-31
9.85148E-01 3.53830E-31
9.86185E-01 3.26799E-31
9.87185E-01 3.01088E-31
9.88148E-01 2.76657E-31
9.89074E-01 2.53468E-31
9.89962E-01 2.31484E-31
9.90814E-01 2.10671E-31
9.91627E-01 1.90997E-31
9.92404E-01 1.72432E-31
9.93143E-01 1.54946E-31
9.93844E-01 1.38512E-31
9.94508E-01 1.23105E-31
9.95134E-01 1.08702E-31
9.95722E-01 9.52791E-32
9.96273E-01 8.28165E-32
9.96786E-01 7.12948E-32
9.97261E-01 6.06962E-32
9.97698E-01 5.10044E-32
9.98097E-01 4.22045E-32
9.98459E-01 3.42829E-32
9.98782E-01 2.72275E-32
9.99067E-01 2.10274E-32
9.99315E-01 1.56731E-32
9.99524E-01 1.11563E-32
9.99695E-01 7.47019E-33
9.99829E-01 4.60909E-33
9.99924E-01 2.56853E-33
9.99981E-01 1.34550E-33
1.00000E+00 9.38047E-34
