 #
 # Subroutine ELSEPA. Elastic scattering of electrons and positrons
 #                    by neutral atoms and positive ions
 #
 # Projectile: positron
 # Kinetic energy = 2.00000E+08 eV = 7.34987E+06 a.u.
 #
 # WARNING: High-energy factorization with free-atom DF screening.
 #          Absorption, polarization and exchange corrections are
 #          switched off.
 #          Phase shifts are calculated for the bare nucleus.
 #          Scattering amplitudes are not evaluated.
 #
 # Element: Sm,  Z =  62,  atomic weight = 1.50360E+02 g/mol
 #
 # Nuclear model: Fermi distribution
 #                Average radius = 5.68977E-13 cm
 #                Skin thickness = 5.46000E-14 cm
 #
 # Number of electrons = 62
 #
 # Total elastic cross section = 7.22718E-18 cm**2 = 2.58087E-01 a0**2
 # 1st transport cross section = 1.82273E-25 cm**2 = 6.50910E-09 a0**2
 # 2nd transport cross section = 5.45460E-25 cm**2 = 1.94787E-08 a0**2
 #
 #
 # Differential cross section:                       MU=(1-COS(THETA))/2
 #
 #  THETA        MU          DCS          DCS        Sherman      error
 #  (deg)                 (cm**2/sr)   (a0**2/sr)    function
 #----------------------------------------------------------------------
0.00000E+00 3.73832E-09
7.61557E-13 3.66211E-09
1.18994E-12 3.62039E-09
1.71346E-12 3.57046E-09
2.33225E-12 3.51291E-09
3.04617E-12 3.44840E-09
3.85530E-12 3.37765E-09
4.75964E-12 3.30141E-09
5.75917E-12 3.22050E-09
6.85391E-12 3.13623E-09
8.04379E-12 3.04807E-09
9.32893E-12 2.95743E-09
1.07092E-11 2.86585E-09
1.21847E-11 2.77231E-09
1.37554E-11 2.67904E-09
1.54213E-11 2.58610E-09
1.71823E-11 2.49280E-09
1.90386E-11 2.40219E-09
2.09900E-11 2.31249E-09
2.30367E-11 2.22393E-09
2.51785E-11 2.13925E-09
2.74156E-11 2.05587E-09
2.97478E-11 1.97514E-09
3.21752E-11 1.89797E-09
3.46979E-11 1.82259E-09
3.73157E-11 1.75088E-09
4.00286E-11 1.68211E-09
4.28368E-11 1.61532E-09
4.57402E-11 1.55276E-09
4.87388E-11 1.49242E-09
5.18325E-11 1.43441E-09
5.50215E-11 1.38011E-09
5.83057E-11 1.32771E-09
6.16850E-11 1.27792E-09
6.51595E-11 1.23091E-09
6.87293E-11 1.18567E-09
7.23943E-11 1.14306E-09
7.61544E-11 1.10250E-09
1.18991E-10 7.89379E-10
1.71347E-10 5.90764E-10
2.33223E-10 4.55417E-10
3.04617E-10 3.57623E-10
3.85531E-10 2.84219E-10
4.75965E-10 2.27930E-10
5.75917E-10 1.84179E-10
6.85389E-10 1.48538E-10
8.04380E-10 1.22530E-10
9.32891E-10 1.02177E-10
1.07092E-09 8.50485E-11
1.21847E-09 7.19486E-11
1.37554E-09 6.10720E-11
1.54213E-09 5.21050E-11
1.71823E-09 4.49912E-11
1.90386E-09 3.87888E-11
2.09900E-09 3.36989E-11
2.30367E-09 2.95082E-11
2.51785E-09 2.57766E-11
2.74156E-09 2.26921E-11
2.97478E-09 2.00475E-11
3.21752E-09 1.77186E-11
3.46978E-09 1.57571E-11
3.73156E-09 1.40251E-11
4.00286E-09 1.25148E-11
4.28368E-09 1.12231E-11
4.57402E-09 1.00602E-11
4.87388E-09 9.05188E-12
5.18326E-09 8.17294E-12
5.50215E-09 7.38260E-12
5.83057E-09 6.69303E-12
6.16850E-09 6.08155E-12
6.51596E-09 5.53488E-12
6.87293E-09 5.05294E-12
7.23942E-09 4.62024E-12
7.61544E-09 4.23374E-12
1.18991E-08 1.96123E-12
1.71347E-08 1.04550E-12
2.33223E-08 6.10071E-13
3.04617E-08 3.78647E-13
3.85531E-08 2.46315E-13
4.75965E-08 1.66748E-13
5.75917E-08 1.16726E-13
6.85389E-08 8.41385E-14
8.04380E-08 6.21842E-14
9.32891E-08 4.69649E-14
1.07092E-07 3.61460E-14
1.21847E-07 2.82789E-14
1.37554E-07 2.24450E-14
1.54213E-07 1.80434E-14
1.71823E-07 1.46705E-14
1.90386E-07 1.20503E-14
2.09900E-07 9.98960E-15
2.30367E-07 8.35060E-15
2.51785E-07 7.03393E-15
2.74156E-07 5.96595E-15
2.97478E-07 5.09277E-15
3.21752E-07 4.37334E-15
3.46978E-07 3.77630E-15
3.73156E-07 3.27753E-15
4.00286E-07 2.85828E-15
4.28368E-07 2.50382E-15
4.57402E-07 2.20253E-15
4.87388E-07 1.94514E-15
5.18325E-07 1.72421E-15
5.50215E-07 1.53372E-15
5.83057E-07 1.36878E-15
6.16850E-07 1.22538E-15
6.51596E-07 1.10026E-15
6.87293E-07 9.90696E-16
7.23942E-07 8.94429E-16
7.61543E-07 8.09569E-16
1.18991E-06 3.35708E-16
1.71347E-06 1.63264E-16
2.33223E-06 8.86729E-17
3.04617E-06 5.22215E-17
3.85531E-06 3.27179E-17
4.75964E-06 2.15251E-17
5.75916E-06 1.47331E-17
6.85388E-06 1.04198E-17
8.04378E-06 7.57486E-18
9.32888E-06 5.63743E-18
1.07092E-05 4.28134E-18
1.21846E-05 3.30935E-18
1.37553E-05 2.59805E-18
1.54212E-05 2.06789E-18
1.71822E-05 1.66624E-18
1.90385E-05 1.35695E-18
2.09899E-05 1.11712E-18
2.30365E-05 9.27870E-19
2.51783E-05 7.76864E-19
2.74153E-05 6.55214E-19
2.97475E-05 5.56389E-19
3.21749E-05 4.75497E-19
3.46974E-05 4.08808E-19
3.73152E-05 3.53444E-19
4.00281E-05 3.07168E-19
4.28362E-05 2.68235E-19
4.57395E-05 2.35276E-19
4.87380E-05 2.07213E-19
5.18317E-05 1.83198E-19
5.50205E-05 1.62553E-19
5.83045E-05 1.44731E-19
6.16838E-05 1.29284E-19
6.51582E-05 1.15847E-19
6.87277E-05 1.04114E-19
7.23925E-05 9.38310E-20
7.61524E-05 8.49252E-20
9.21439E-05 5.79908E-20
1.09658E-04 4.09311E-20
1.28695E-04 2.97089E-20
1.49255E-04 2.20789E-20
1.71338E-04 1.67484E-20
1.94942E-04 1.29325E-20
2.20070E-04 1.01435E-20
2.46720E-04 8.06692E-21
2.74892E-04 6.49501E-21
3.04586E-04 5.28772E-21
3.35803E-04 4.34800E-21
3.68542E-04 3.60783E-21
4.02802E-04 3.01844E-21
4.38585E-04 2.54445E-21
4.75889E-04 2.15980E-21
5.14715E-04 1.84501E-21
5.55063E-04 1.58543E-21
5.96931E-04 1.36982E-21
6.40321E-04 1.18953E-21
6.85233E-04 1.03786E-21
7.31665E-04 9.09535E-22
7.79618E-04 8.00374E-22
8.29092E-04 7.07045E-22
8.80086E-04 6.26876E-22
9.32601E-04 5.57703E-22
9.86636E-04 4.97767E-22
1.04219E-03 4.45629E-22
1.09927E-03 4.00103E-22
1.15786E-03 3.60211E-22
1.21797E-03 3.25137E-22
1.27961E-03 2.94201E-22
1.34276E-03 2.66832E-22
1.40743E-03 2.42549E-22
1.47362E-03 2.20943E-22
1.54133E-03 2.01670E-22
1.61056E-03 1.84434E-22
1.68131E-03 1.68983E-22
1.75357E-03 1.55101E-22
1.82735E-03 1.42600E-22
1.90265E-03 1.31319E-22
1.97947E-03 1.21119E-22
2.05780E-03 1.11879E-22
2.13765E-03 1.03491E-22
2.21902E-03 9.58652E-23
2.30190E-03 8.89188E-23
2.38630E-03 8.25811E-23
2.47222E-03 7.67896E-23
2.55965E-03 7.14890E-23
2.64859E-03 6.66304E-23
2.73905E-03 6.21706E-23
2.83103E-03 5.80712E-23
2.92452E-03 5.42979E-23
3.01952E-03 5.08204E-23
3.11604E-03 4.76113E-23
3.21407E-03 4.46465E-23
3.31362E-03 4.19039E-23
3.41468E-03 3.93642E-23
3.51725E-03 3.70097E-23
3.62133E-03 3.48245E-23
3.72692E-03 3.27944E-23
3.83403E-03 3.09064E-23
3.94265E-03 2.91489E-23
4.05278E-03 2.75113E-23
4.16442E-03 2.59839E-23
4.27757E-03 2.45582E-23
4.39223E-03 2.32262E-23
4.50840E-03 2.19806E-23
4.62608E-03 2.08148E-23
4.74527E-03 1.97230E-23
4.86597E-03 1.86996E-23
4.98817E-03 1.77395E-23
5.11188E-03 1.68382E-23
5.23711E-03 1.59915E-23
5.36383E-03 1.51954E-23
5.49207E-03 1.44466E-23
5.62181E-03 1.37416E-23
5.75306E-03 1.30774E-23
5.88581E-03 1.24514E-23
6.02007E-03 1.18609E-23
6.15583E-03 1.13037E-23
6.29310E-03 1.07774E-23
6.43187E-03 1.02801E-23
6.57214E-03 9.80999E-24
6.71392E-03 9.36525E-24
6.85720E-03 8.94431E-24
7.00198E-03 8.54569E-24
7.14827E-03 8.16801E-24
7.29605E-03 7.80998E-24
7.44534E-03 7.47042E-24
7.59612E-03 7.14821E-24
7.97965E-03 6.41202E-24
8.37255E-03 5.76372E-24
8.77480E-03 5.19126E-24
9.18641E-03 4.68447E-24
9.60736E-03 4.23470E-24
1.00376E-02 3.83461E-24
1.04773E-02 3.47791E-24
1.09262E-02 3.15923E-24
1.13844E-02 2.87394E-24
1.18520E-02 2.61803E-24
1.23288E-02 2.38807E-24
1.28150E-02 2.18106E-24
1.33104E-02 1.99439E-24
1.38150E-02 1.82578E-24
1.43290E-02 1.67327E-24
1.48521E-02 1.53510E-24
1.53845E-02 1.40974E-24
1.59262E-02 1.29587E-24
1.64770E-02 1.19228E-24
1.70371E-02 1.09793E-24
1.76063E-02 1.01189E-24
1.81848E-02 9.33346E-25
1.87724E-02 8.61557E-25
1.93692E-02 7.95874E-25
1.99751E-02 7.35715E-25
2.05901E-02 6.80563E-25
2.12143E-02 6.29951E-25
2.18476E-02 5.83463E-25
2.24900E-02 5.40727E-25
2.31415E-02 5.01405E-25
2.38021E-02 4.65195E-25
2.44717E-02 4.31825E-25
2.51504E-02 4.01049E-25
2.58382E-02 3.72645E-25
2.65349E-02 3.46410E-25
2.72407E-02 3.22164E-25
2.79555E-02 2.99741E-25
2.86793E-02 2.78990E-25
2.94120E-02 2.59776E-25
3.01537E-02 2.41974E-25
3.09043E-02 2.25472E-25
3.16639E-02 2.10165E-25
3.24324E-02 1.95960E-25
3.32098E-02 1.82772E-25
3.39961E-02 1.70521E-25
3.47912E-02 1.59136E-25
3.55952E-02 1.48550E-25
3.64081E-02 1.38704E-25
3.72297E-02 1.29542E-25
3.80602E-02 1.21012E-25
3.88995E-02 1.13069E-25
3.97476E-02 1.05669E-25
4.06044E-02 9.87731E-26
4.14700E-02 9.23442E-26
4.23443E-02 8.63488E-26
4.32273E-02 8.07561E-26
4.41190E-02 7.55375E-26
4.50194E-02 7.06665E-26
4.59284E-02 6.61188E-26
4.68461E-02 6.18717E-26
4.87074E-02 5.41977E-26
5.06030E-02 4.74954E-26
5.25328E-02 4.16369E-26
5.44967E-02 3.65120E-26
5.64946E-02 3.20258E-26
5.85262E-02 2.80964E-26
6.05914E-02 2.46526E-26
6.26901E-02 2.16332E-26
6.48222E-02 1.89847E-26
6.69873E-02 1.66608E-26
6.91854E-02 1.46211E-26
7.14163E-02 1.28305E-26
7.36799E-02 1.12583E-26
7.59760E-02 9.87762E-27
7.83043E-02 8.66511E-27
8.06647E-02 7.60026E-27
8.30571E-02 6.66512E-27
8.54812E-02 5.84395E-27
8.79369E-02 5.12293E-27
9.04240E-02 4.48997E-27
9.29422E-02 3.93440E-27
9.54915E-02 3.44689E-27
9.80716E-02 3.01921E-27
1.00682E-01 2.64414E-27
1.03323E-01 2.31531E-27
1.05995E-01 2.02713E-27
1.08696E-01 1.77467E-27
1.11427E-01 1.55359E-27
1.14188E-01 1.36007E-27
1.16978E-01 1.19077E-27
1.19797E-01 1.04270E-27
1.22645E-01 9.13280E-28
1.25522E-01 8.00203E-28
1.28428E-01 7.01454E-28
1.31361E-01 6.15255E-28
1.34323E-01 5.40046E-28
1.37313E-01 4.74452E-28
1.40330E-01 4.17266E-28
1.43375E-01 3.67425E-28
1.46447E-01 3.23999E-28
1.49545E-01 2.86170E-28
1.52671E-01 2.53219E-28
1.55823E-01 2.24519E-28
1.59001E-01 1.99518E-28
1.62205E-01 1.77734E-28
1.65435E-01 1.58746E-28
1.68690E-01 1.42184E-28
1.71970E-01 1.27727E-28
1.75276E-01 1.15095E-28
1.78606E-01 1.04043E-28
1.81961E-01 9.43590E-29
1.85340E-01 8.58569E-29
1.88743E-01 7.83769E-29
1.92169E-01 7.17796E-29
1.95619E-01 6.59445E-29
1.99092E-01 6.07675E-29
2.02589E-01 5.61585E-29
2.06107E-01 5.20399E-29
2.09649E-01 4.83450E-29
2.13212E-01 4.50162E-29
2.16797E-01 4.20045E-29
2.20404E-01 3.92674E-29
2.24032E-01 3.67689E-29
2.27680E-01 3.44782E-29
2.31350E-01 3.23690E-29
2.35040E-01 3.04188E-29
2.38751E-01 2.86087E-29
2.42481E-01 2.69223E-29
2.46231E-01 2.53461E-29
2.50000E-01 2.38684E-29
2.53788E-01 2.24793E-29
2.57595E-01 2.11704E-29
2.61421E-01 1.99346E-29
2.65264E-01 1.87660E-29
2.69126E-01 1.76593E-29
2.73005E-01 1.66102E-29
2.76901E-01 1.56149E-29
2.80814E-01 1.46701E-29
2.84744E-01 1.37731E-29
2.88691E-01 1.29212E-29
2.92653E-01 1.21124E-29
2.96632E-01 1.13446E-29
3.00625E-01 1.06160E-29
3.04634E-01 9.92507E-30
3.08658E-01 9.27018E-30
3.12697E-01 8.64994E-30
3.16749E-01 8.06299E-30
3.20816E-01 7.50804E-30
3.24896E-01 6.98385E-30
3.28990E-01 6.48921E-30
3.33097E-01 6.02296E-30
3.37216E-01 5.58394E-30
3.41348E-01 5.17104E-30
3.45492E-01 4.78316E-30
3.49647E-01 4.41922E-30
3.53814E-01 4.07816E-30
3.57992E-01 3.75894E-30
3.62181E-01 3.46053E-30
3.66381E-01 3.18194E-30
3.70590E-01 2.92220E-30
3.74810E-01 2.68034E-30
3.79039E-01 2.45544E-30
3.83277E-01 2.24659E-30
3.87524E-01 2.05291E-30
3.91780E-01 1.87355E-30
3.96044E-01 1.70768E-30
4.00316E-01 1.55452E-30
4.04596E-01 1.41328E-30
4.08882E-01 1.28323E-30
4.13176E-01 1.16367E-30
4.17476E-01 1.05391E-30
4.21783E-01 9.53315E-31
4.26095E-01 8.61254E-31
4.30413E-01 7.77143E-31
4.34737E-01 7.00421E-31
4.39065E-01 6.30557E-31
4.43398E-01 5.67047E-31
4.47736E-01 5.09415E-31
4.52077E-01 4.57212E-31
4.56422E-01 4.10016E-31
4.60770E-01 3.67427E-31
4.65122E-01 3.29074E-31
4.69476E-01 2.94606E-31
4.73832E-01 2.63694E-31
4.78190E-01 2.36035E-31
4.82550E-01 2.11342E-31
4.86912E-01 1.89350E-31
4.91274E-01 1.69812E-31
4.95637E-01 1.52501E-31
5.00000E-01 1.37203E-31
5.04363E-01 1.23724E-31
5.08726E-01 1.11883E-31
5.13088E-01 1.01514E-31
5.17450E-01 9.24642E-32
5.21810E-01 8.45929E-32
5.26168E-01 7.77720E-32
5.30524E-01 7.18843E-32
5.34878E-01 6.68226E-32
5.39230E-01 6.24898E-32
5.43578E-01 5.87975E-32
5.47923E-01 5.56655E-32
5.52264E-01 5.30215E-32
5.56602E-01 5.08002E-32
5.60935E-01 4.89430E-32
5.65263E-01 4.73973E-32
5.69587E-01 4.61161E-32
5.73905E-01 4.50574E-32
5.78217E-01 4.41843E-32
5.82524E-01 4.34636E-32
5.86824E-01 4.28665E-32
5.91118E-01 4.23675E-32
5.95404E-01 4.19445E-32
5.99684E-01 4.15782E-32
6.03956E-01 4.12520E-32
6.08220E-01 4.09517E-32
6.12476E-01 4.06653E-32
6.16723E-01 4.03826E-32
6.20961E-01 4.00952E-32
6.25190E-01 3.97962E-32
6.29410E-01 3.94802E-32
6.33619E-01 3.91428E-32
6.37819E-01 3.87807E-32
6.42008E-01 3.83916E-32
6.46186E-01 3.79739E-32
6.50353E-01 3.75268E-32
6.54508E-01 3.70501E-32
6.58652E-01 3.65439E-32
6.62784E-01 3.60091E-32
6.66903E-01 3.54466E-32
6.71010E-01 3.48577E-32
6.75104E-01 3.42441E-32
6.79184E-01 3.36076E-32
6.83251E-01 3.29499E-32
6.87303E-01 3.22730E-32
6.91342E-01 3.15792E-32
6.95366E-01 3.08704E-32
6.99375E-01 3.01488E-32
7.03368E-01 2.94164E-32
7.07347E-01 2.86754E-32
7.11309E-01 2.79277E-32
7.15256E-01 2.71754E-32
7.19186E-01 2.64202E-32
7.23099E-01 2.56641E-32
7.26995E-01 2.49087E-32
7.30874E-01 2.41556E-32
7.34736E-01 2.34065E-32
7.38579E-01 2.26627E-32
7.42405E-01 2.19256E-32
7.46212E-01 2.11964E-32
7.50000E-01 2.04763E-32
7.53769E-01 1.97662E-32
7.57519E-01 1.90672E-32
7.61249E-01 1.83801E-32
7.64960E-01 1.77056E-32
7.68650E-01 1.70444E-32
7.72320E-01 1.63971E-32
7.75968E-01 1.57643E-32
7.79596E-01 1.51462E-32
7.83203E-01 1.45434E-32
7.86788E-01 1.39561E-32
7.90351E-01 1.33844E-32
7.93893E-01 1.28287E-32
7.97411E-01 1.22889E-32
8.00908E-01 1.17651E-32
8.04381E-01 1.12574E-32
8.07831E-01 1.07657E-32
8.11257E-01 1.02900E-32
8.14660E-01 9.83002E-33
8.18039E-01 9.38573E-33
8.21394E-01 8.95691E-33
8.24724E-01 8.54336E-33
8.28030E-01 8.14484E-33
8.31310E-01 7.76110E-33
8.34565E-01 7.39186E-33
8.37795E-01 7.03683E-33
8.40999E-01 6.69568E-33
8.44177E-01 6.36812E-33
8.47329E-01 6.05379E-33
8.50455E-01 5.75237E-33
8.53553E-01 5.46351E-33
8.56625E-01 5.18686E-33
8.59670E-01 4.92206E-33
8.62687E-01 4.66874E-33
8.65677E-01 4.42657E-33
8.68639E-01 4.19517E-33
8.71572E-01 3.97419E-33
8.74478E-01 3.76328E-33
8.77355E-01 3.56209E-33
8.80203E-01 3.37027E-33
8.83022E-01 3.18747E-33
8.85812E-01 3.01337E-33
8.88573E-01 2.84763E-33
8.91304E-01 2.68992E-33
8.94005E-01 2.53993E-33
8.96677E-01 2.39736E-33
8.99318E-01 2.26188E-33
9.01928E-01 2.13322E-33
9.04508E-01 2.01108E-33
9.07058E-01 1.89519E-33
9.09576E-01 1.78527E-33
9.12063E-01 1.68106E-33
9.14519E-01 1.58230E-33
9.16943E-01 1.48876E-33
9.19335E-01 1.40018E-33
9.21696E-01 1.31635E-33
9.24024E-01 1.23703E-33
9.26320E-01 1.16202E-33
9.28584E-01 1.09111E-33
9.30815E-01 1.02409E-33
9.33013E-01 9.60794E-34
9.35178E-01 9.01018E-34
9.37310E-01 8.44597E-34
9.39409E-01 7.91358E-34
9.41474E-01 7.41142E-34
9.43505E-01 6.93790E-34
9.45503E-01 6.49161E-34
9.47467E-01 6.07108E-34
9.49397E-01 5.67498E-34
9.51293E-01 5.30203E-34
9.53154E-01 4.95099E-34
9.54981E-01 4.62066E-34
9.56773E-01 4.30996E-34
9.58530E-01 4.01780E-34
9.60252E-01 3.74316E-34
9.61940E-01 3.48509E-34
9.63592E-01 3.24267E-34
9.65209E-01 3.01502E-34
9.66790E-01 2.80131E-34
9.68336E-01 2.60076E-34
9.69846E-01 2.41263E-34
9.71321E-01 2.23619E-34
9.72759E-01 2.07077E-34
9.74162E-01 1.91576E-34
9.75528E-01 1.77054E-34
9.76858E-01 1.63455E-34
9.78152E-01 1.50725E-34
9.79410E-01 1.38814E-34
9.80631E-01 1.27671E-34
9.81815E-01 1.17254E-34
9.82963E-01 1.07520E-34
9.84074E-01 9.84285E-35
9.85148E-01 8.99415E-35
9.86185E-01 8.20217E-35
9.87185E-01 7.46405E-35
9.88148E-01 6.77607E-35
9.89074E-01 6.13569E-35
9.89962E-01 5.53998E-35
9.90814E-01 4.98638E-35
9.91627E-01 4.47244E-35
9.92404E-01 3.99599E-35
9.93143E-01 3.55487E-35
9.93844E-01 3.14706E-35
9.94508E-01 2.77093E-35
9.95134E-01 2.42448E-35
9.95722E-01 2.10648E-35
9.96273E-01 1.81526E-35
9.96786E-01 1.54966E-35
9.97261E-01 1.30832E-35
9.97698E-01 1.09015E-35
9.98097E-01 8.94241E-36
9.98459E-01 7.19648E-36
9.98782E-01 5.65550E-36
9.99067E-01 4.31197E-36
9.99315E-01 3.16015E-36
9.99524E-01 2.19440E-36
9.99695E-01 1.41008E-36
9.99829E-01 8.04119E-37
9.99924E-01 3.73118E-37
9.99981E-01 1.15646E-37
1.00000E+00 2.99617E-38
