 #
 # Subroutine ELSEPA. Elastic scattering of electrons and positrons
 #                    by neutral atoms and positive ions
 #
 # Projectile: positron
 # Kinetic energy = 1.50000E+08 eV = 5.51240E+06 a.u.
 #
 # WARNING: High-energy factorization with free-atom DF screening.
 #          Absorption, polarization and exchange corrections are
 #          switched off.
 #          Phase shifts are calculated for the bare nucleus.
 #          Scattering amplitudes are not evaluated.
 #
 # Element: Sm,  Z =  62,  atomic weight = 1.50360E+02 g/mol
 #
 # Nuclear model: Fermi distribution
 #                Average radius = 5.68977E-13 cm
 #                Skin thickness = 5.46000E-14 cm
 #
 # Number of electrons = 62
 #
 # Total elastic cross section = 7.22695E-18 cm**2 = 2.58079E-01 a0**2
 # 1st transport cross section = 3.21909E-25 cm**2 = 1.14956E-08 a0**2
 # 2nd transport cross section = 9.61510E-25 cm**2 = 3.43362E-08 a0**2
 #
 #
 # Differential cross section:                       MU=(1-COS(THETA))/2
 #
 #  THETA        MU          DCS          DCS        Sherman      error
 #  (deg)                 (cm**2/sr)   (a0**2/sr)    function
 #----------------------------------------------------------------------
0.00000E+00 2.10638E-09
7.61557E-13 2.08200E-09
1.18994E-12 2.06850E-09
1.71346E-12 2.05219E-09
2.33225E-12 2.03320E-09
3.04617E-12 2.01164E-09
3.85530E-12 1.98767E-09
4.75964E-12 1.96143E-09
5.75917E-12 1.93310E-09
6.85391E-12 1.90284E-09
8.04379E-12 1.87084E-09
9.32893E-12 1.83729E-09
1.07092E-11 1.80252E-09
1.21847E-11 1.76663E-09
1.37554E-11 1.72951E-09
1.54213E-11 1.69132E-09
1.71823E-11 1.65298E-09
1.90386E-11 1.61411E-09
2.09900E-11 1.57463E-09
2.30367E-11 1.53481E-09
2.51785E-11 1.49570E-09
2.74156E-11 1.45635E-09
2.97478E-11 1.41690E-09
3.21752E-11 1.37806E-09
3.46979E-11 1.33999E-09
3.73157E-11 1.30209E-09
4.00286E-11 1.26444E-09
4.28368E-11 1.22824E-09
4.57402E-11 1.19262E-09
4.87388E-11 1.15744E-09
5.18325E-11 1.12299E-09
5.50215E-11 1.09010E-09
5.83057E-11 1.05776E-09
6.16850E-11 1.02599E-09
6.51595E-11 9.95468E-10
6.87293E-11 9.66093E-10
7.23943E-11 9.37338E-10
7.61544E-11 9.09219E-10
1.18991E-10 6.79886E-10
1.71347E-10 5.21694E-10
2.33223E-10 4.11652E-10
3.04617E-10 3.32409E-10
3.85531E-10 2.72890E-10
4.75965E-10 2.26631E-10
5.75917E-10 1.89767E-10
6.85389E-10 1.59873E-10
8.04380E-10 1.35359E-10
9.32891E-10 1.15162E-10
1.07092E-09 9.79147E-11
1.21847E-09 8.35212E-11
1.37554E-09 7.21546E-11
1.54213E-09 6.30629E-11
1.71823E-09 5.47775E-11
1.90386E-09 4.78142E-11
2.09900E-09 4.21186E-11
2.30367E-09 3.73469E-11
2.51785E-09 3.29544E-11
2.74156E-09 2.92904E-11
2.97478E-09 2.62100E-11
3.21752E-09 2.34762E-11
3.46978E-09 2.10296E-11
3.73156E-09 1.89418E-11
4.00286E-09 1.71494E-11
4.28368E-09 1.54840E-11
4.57402E-09 1.40227E-11
4.87388E-09 1.27537E-11
5.18326E-09 1.16304E-11
5.50215E-09 1.05827E-11
5.83057E-09 9.66396E-12
6.16850E-09 8.85513E-12
6.51596E-09 8.11486E-12
6.87293E-09 7.43950E-12
7.23942E-09 6.84016E-12
7.61544E-09 6.30652E-12
1.18991E-08 2.97001E-12
1.71347E-08 1.58420E-12
2.33223E-08 9.31527E-13
3.04617E-08 5.87355E-13
3.85531E-08 3.89497E-13
4.75965E-08 2.68245E-13
5.75917E-08 1.90225E-13
6.85389E-08 1.38350E-13
8.04380E-08 1.02902E-13
9.32891E-08 7.80557E-14
1.07092E-07 6.02226E-14
1.21847E-07 4.72550E-14
1.37554E-07 3.75745E-14
1.54213E-07 3.02702E-14
1.71823E-07 2.46687E-14
1.90386E-07 2.02996E-14
2.09900E-07 1.68623E-14
2.30367E-07 1.41270E-14
2.51785E-07 1.19225E-14
2.74156E-07 1.01327E-14
2.97478E-07 8.66813E-15
3.21752E-07 7.45791E-15
3.46978E-07 6.45138E-15
3.73156E-07 5.60965E-15
4.00286E-07 4.90048E-15
4.28368E-07 4.29933E-15
4.57402E-07 3.78782E-15
4.87388E-07 3.35010E-15
5.18325E-07 2.97328E-15
5.50215E-07 2.64809E-15
5.83057E-07 2.36619E-15
6.16850E-07 2.12044E-15
6.51596E-07 1.90583E-15
6.87293E-07 1.71771E-15
7.23942E-07 1.55205E-15
7.61543E-07 1.40588E-15
1.18991E-06 5.85984E-16
1.71347E-06 2.85698E-16
2.33223E-06 1.55421E-16
3.04617E-06 9.16521E-17
3.85531E-06 5.74906E-17
4.75964E-06 3.78643E-17
5.75916E-06 2.59423E-17
6.85388E-06 1.83634E-17
8.04378E-06 1.33600E-17
9.32888E-06 9.94961E-18
1.07092E-05 7.56067E-18
1.21846E-05 5.84721E-18
1.37553E-05 4.59248E-18
1.54212E-05 3.65676E-18
1.71822E-05 2.94753E-18
1.90385E-05 2.40112E-18
2.09899E-05 1.97726E-18
2.30365E-05 1.64268E-18
2.51783E-05 1.37563E-18
2.74153E-05 1.16043E-18
2.97475E-05 9.85567E-19
3.21749E-05 8.42400E-19
3.46974E-05 7.24347E-19
3.73152E-05 6.26324E-19
4.00281E-05 5.44380E-19
4.28362E-05 4.75426E-19
4.57395E-05 4.17044E-19
4.87380E-05 3.67330E-19
5.18317E-05 3.24782E-19
5.50205E-05 2.88200E-19
5.83045E-05 2.56617E-19
6.16838E-05 2.29243E-19
6.51582E-05 2.05426E-19
6.87277E-05 1.84629E-19
7.23925E-05 1.66401E-19
7.61524E-05 1.50501E-19
9.21439E-05 1.02771E-19
1.09658E-04 7.25371E-20
1.28695E-04 5.26481E-20
1.49255E-04 3.91254E-20
1.71338E-04 2.96783E-20
1.94942E-04 2.29157E-20
2.20070E-04 1.79730E-20
2.46720E-04 1.42932E-20
2.74892E-04 1.15079E-20
3.04586E-04 9.36879E-21
3.35803E-04 7.70385E-21
3.68542E-04 6.39253E-21
4.02802E-04 5.34842E-21
4.38585E-04 4.50877E-21
4.75889E-04 3.82742E-21
5.14715E-04 3.26985E-21
5.55063E-04 2.81007E-21
5.96931E-04 2.42820E-21
6.40321E-04 2.10894E-21
6.85233E-04 1.84036E-21
7.31665E-04 1.61312E-21
7.79618E-04 1.41982E-21
8.29092E-04 1.25455E-21
8.80086E-04 1.11259E-21
9.32601E-04 9.90098E-22
9.86636E-04 8.83961E-22
1.04219E-03 7.91631E-22
1.09927E-03 7.10996E-22
1.15786E-03 6.40334E-22
1.21797E-03 5.78203E-22
1.27961E-03 5.23398E-22
1.34276E-03 4.74908E-22
1.40743E-03 4.31881E-22
1.47362E-03 3.93595E-22
1.54133E-03 3.59438E-22
1.61056E-03 3.28888E-22
1.68131E-03 3.01498E-22
1.75357E-03 2.76884E-22
1.82735E-03 2.54717E-22
1.90265E-03 2.34710E-22
1.97947E-03 2.16616E-22
2.05780E-03 2.00221E-22
2.13765E-03 1.85336E-22
2.21902E-03 1.71799E-22
2.30190E-03 1.59466E-22
2.38630E-03 1.48211E-22
2.47222E-03 1.37923E-22
2.55965E-03 1.28505E-22
2.64859E-03 1.19869E-22
2.73905E-03 1.11940E-22
2.83103E-03 1.04649E-22
2.92452E-03 9.79361E-23
3.01952E-03 9.17471E-23
3.11604E-03 8.60339E-23
3.21407E-03 8.07535E-23
3.31362E-03 7.58673E-23
3.41468E-03 7.13405E-23
3.51725E-03 6.71421E-23
3.62133E-03 6.32440E-23
3.72692E-03 5.96209E-23
3.83403E-03 5.62499E-23
3.94265E-03 5.31104E-23
4.05278E-03 5.01837E-23
4.16442E-03 4.74528E-23
4.27757E-03 4.49022E-23
4.39223E-03 4.25179E-23
4.50840E-03 4.02872E-23
4.62608E-03 3.81984E-23
4.74527E-03 3.62408E-23
4.86597E-03 3.44048E-23
4.98817E-03 3.26814E-23
5.11188E-03 3.10626E-23
5.23711E-03 2.95408E-23
5.36383E-03 2.81092E-23
5.49207E-03 2.67616E-23
5.62181E-03 2.54920E-23
5.75306E-03 2.42953E-23
5.88581E-03 2.31664E-23
6.02007E-03 2.21008E-23
6.15583E-03 2.10944E-23
6.29310E-03 2.01433E-23
6.43187E-03 1.92439E-23
6.57214E-03 1.83929E-23
6.71392E-03 1.75873E-23
6.85720E-03 1.68242E-23
7.00198E-03 1.61009E-23
7.14827E-03 1.54150E-23
7.29605E-03 1.47643E-23
7.44534E-03 1.41466E-23
7.59612E-03 1.35600E-23
7.97965E-03 1.22175E-23
8.37255E-03 1.10325E-23
8.77480E-03 9.98356E-24
9.18641E-03 9.05258E-24
9.60736E-03 8.22419E-24
1.00376E-02 7.48526E-24
1.04773E-02 6.82461E-24
1.09262E-02 6.23262E-24
1.13844E-02 5.70104E-24
1.18520E-02 5.22272E-24
1.23288E-02 4.79149E-24
1.28150E-02 4.40199E-24
1.33104E-02 4.04955E-24
1.38150E-02 3.73009E-24
1.43290E-02 3.44004E-24
1.48521E-02 3.17629E-24
1.53845E-02 2.93608E-24
1.59262E-02 2.71698E-24
1.64770E-02 2.51686E-24
1.70371E-02 2.33382E-24
1.76063E-02 2.16619E-24
1.81848E-02 2.01248E-24
1.87724E-02 1.87135E-24
1.93692E-02 1.74162E-24
1.99751E-02 1.62224E-24
2.05901E-02 1.51226E-24
2.12143E-02 1.41083E-24
2.18476E-02 1.31719E-24
2.24900E-02 1.23065E-24
2.31415E-02 1.15061E-24
2.38021E-02 1.07650E-24
2.44717E-02 1.00781E-24
2.51504E-02 9.44111E-25
2.58382E-02 8.84974E-25
2.65349E-02 8.30032E-25
2.72407E-02 7.78946E-25
2.79555E-02 7.31409E-25
2.86793E-02 6.87141E-25
2.94120E-02 6.45887E-25
3.01537E-02 6.07415E-25
3.09043E-02 5.71513E-25
3.16639E-02 5.37986E-25
3.24324E-02 5.06658E-25
3.32098E-02 4.77365E-25
3.39961E-02 4.49959E-25
3.47912E-02 4.24303E-25
3.55952E-02 4.00272E-25
3.64081E-02 3.77749E-25
3.72297E-02 3.56630E-25
3.80602E-02 3.36815E-25
3.88995E-02 3.18215E-25
3.97476E-02 3.00746E-25
4.06044E-02 2.84332E-25
4.14700E-02 2.68902E-25
4.23443E-02 2.54389E-25
4.32273E-02 2.40734E-25
4.41190E-02 2.27880E-25
4.50194E-02 2.15775E-25
4.59284E-02 2.04371E-25
4.68461E-02 1.93622E-25
4.87074E-02 1.73927E-25
5.06030E-02 1.56392E-25
5.25328E-02 1.40758E-25
5.44967E-02 1.26799E-25
5.64946E-02 1.14320E-25
5.85262E-02 1.03150E-25
6.05914E-02 9.31405E-26
6.26901E-02 8.41612E-26
6.48222E-02 7.60975E-26
6.69873E-02 6.88489E-26
6.91854E-02 6.23269E-26
7.14163E-02 5.64535E-26
7.36799E-02 5.11596E-26
7.59760E-02 4.63844E-26
7.83043E-02 4.20737E-26
8.06647E-02 3.81795E-26
8.30571E-02 3.46593E-26
8.54812E-02 3.14752E-26
8.79369E-02 2.85932E-26
9.04240E-02 2.59832E-26
9.29422E-02 2.36184E-26
9.54915E-02 2.14745E-26
9.80716E-02 1.95301E-26
1.00682E-01 1.77657E-26
1.03323E-01 1.61641E-26
1.05995E-01 1.47096E-26
1.08696E-01 1.33883E-26
1.11427E-01 1.21876E-26
1.14188E-01 1.10960E-26
1.16978E-01 1.01035E-26
1.19797E-01 9.20069E-27
1.22645E-01 8.37935E-27
1.25522E-01 7.63195E-27
1.28428E-01 6.95167E-27
1.31361E-01 6.33237E-27
1.34323E-01 5.76850E-27
1.37313E-01 5.25500E-27
1.40330E-01 4.78733E-27
1.43375E-01 4.36133E-27
1.46447E-01 3.97326E-27
1.49545E-01 3.61971E-27
1.52671E-01 3.29758E-27
1.55823E-01 3.00406E-27
1.59001E-01 2.73661E-27
1.62205E-01 2.49289E-27
1.65435E-01 2.27081E-27
1.68690E-01 2.06843E-27
1.71970E-01 1.88401E-27
1.75276E-01 1.71597E-27
1.78606E-01 1.56284E-27
1.81961E-01 1.42332E-27
1.85340E-01 1.29620E-27
1.88743E-01 1.18038E-27
1.92169E-01 1.07487E-27
1.95619E-01 9.78759E-28
1.99092E-01 8.91214E-28
2.02589E-01 8.11482E-28
2.06107E-01 7.38871E-28
2.09649E-01 6.72752E-28
2.13212E-01 6.12553E-28
2.16797E-01 5.57749E-28
2.20404E-01 5.07863E-28
2.24032E-01 4.62459E-28
2.27680E-01 4.21140E-28
2.31350E-01 3.83544E-28
2.35040E-01 3.49338E-28
2.38751E-01 3.18223E-28
2.42481E-01 2.89921E-28
2.46231E-01 2.64183E-28
2.50000E-01 2.40778E-28
2.53788E-01 2.19498E-28
2.57595E-01 2.00153E-28
2.61421E-01 1.82568E-28
2.65264E-01 1.66584E-28
2.69126E-01 1.52058E-28
2.73005E-01 1.38858E-28
2.76901E-01 1.26863E-28
2.80814E-01 1.15964E-28
2.84744E-01 1.06061E-28
2.88691E-01 9.70636E-29
2.92653E-01 8.88887E-29
2.96632E-01 8.14609E-29
3.00625E-01 7.47118E-29
3.04634E-01 6.85787E-29
3.08658E-01 6.30050E-29
3.12697E-01 5.79387E-29
3.16749E-01 5.33330E-29
3.20816E-01 4.91450E-29
3.24896E-01 4.53358E-29
3.28990E-01 4.18701E-29
3.33097E-01 3.87158E-29
3.37216E-01 3.58437E-29
3.41348E-01 3.32274E-29
3.45492E-01 3.08428E-29
3.49647E-01 2.86681E-29
3.53814E-01 2.66835E-29
3.57992E-01 2.48711E-29
3.62181E-01 2.32147E-29
3.66381E-01 2.16995E-29
3.70590E-01 2.03121E-29
3.74810E-01 1.90406E-29
3.79039E-01 1.78738E-29
3.83277E-01 1.68021E-29
3.87524E-01 1.58163E-29
3.91780E-01 1.49084E-29
3.96044E-01 1.40712E-29
4.00316E-01 1.32980E-29
4.04596E-01 1.25827E-29
4.08882E-01 1.19202E-29
4.13176E-01 1.13054E-29
4.17476E-01 1.07340E-29
4.21783E-01 1.02021E-29
4.26095E-01 9.70600E-30
4.30413E-01 9.24259E-30
4.34737E-01 8.80894E-30
4.39065E-01 8.40243E-30
4.43398E-01 8.02072E-30
4.47736E-01 7.66169E-30
4.52077E-01 7.32342E-30
4.56422E-01 7.00419E-30
4.60770E-01 6.70246E-30
4.65122E-01 6.41683E-30
4.69476E-01 6.14604E-30
4.73832E-01 5.88895E-30
4.78190E-01 5.64456E-30
4.82550E-01 5.41193E-30
4.86912E-01 5.19023E-30
4.91274E-01 4.97872E-30
4.95637E-01 4.77670E-30
5.00000E-01 4.58358E-30
5.04363E-01 4.39878E-30
5.08726E-01 4.22181E-30
5.13088E-01 4.05221E-30
5.17450E-01 3.88956E-30
5.21810E-01 3.73347E-30
5.26168E-01 3.58362E-30
5.30524E-01 3.43966E-30
5.34878E-01 3.30133E-30
5.39230E-01 3.16834E-30
5.43578E-01 3.04045E-30
5.47923E-01 2.91743E-30
5.52264E-01 2.79908E-30
5.56602E-01 2.68519E-30
5.60935E-01 2.57558E-30
5.65263E-01 2.47009E-30
5.69587E-01 2.36855E-30
5.73905E-01 2.27081E-30
5.78217E-01 2.17673E-30
5.82524E-01 2.08618E-30
5.86824E-01 1.99902E-30
5.91118E-01 1.91515E-30
5.95404E-01 1.83443E-30
5.99684E-01 1.75677E-30
6.03956E-01 1.68206E-30
6.08220E-01 1.61019E-30
6.12476E-01 1.54108E-30
6.16723E-01 1.47462E-30
6.20961E-01 1.41072E-30
6.25190E-01 1.34931E-30
6.29410E-01 1.29029E-30
6.33619E-01 1.23359E-30
6.37819E-01 1.17912E-30
6.42008E-01 1.12681E-30
6.46186E-01 1.07659E-30
6.50353E-01 1.02838E-30
6.54508E-01 9.82122E-31
6.58652E-01 9.37736E-31
6.62784E-01 8.95161E-31
6.66903E-01 8.54334E-31
6.71010E-01 8.15193E-31
6.75104E-01 7.77677E-31
6.79184E-01 7.41729E-31
6.83251E-01 7.07291E-31
6.87303E-01 6.74309E-31
6.91342E-01 6.42728E-31
6.95366E-01 6.12498E-31
6.99375E-01 5.83568E-31
7.03368E-01 5.55888E-31
7.07347E-01 5.29412E-31
7.11309E-01 5.04093E-31
7.15256E-01 4.79887E-31
7.19186E-01 4.56751E-31
7.23099E-01 4.34642E-31
7.26995E-01 4.13521E-31
7.30874E-01 3.93348E-31
7.34736E-01 3.74086E-31
7.38579E-01 3.55697E-31
7.42405E-01 3.38147E-31
7.46212E-01 3.21400E-31
7.50000E-01 3.05424E-31
7.53769E-01 2.90188E-31
7.57519E-01 2.75659E-31
7.61249E-01 2.61809E-31
7.64960E-01 2.48608E-31
7.68650E-01 2.36030E-31
7.72320E-01 2.24047E-31
7.75968E-01 2.12634E-31
7.79596E-01 2.01766E-31
7.83203E-01 1.91419E-31
7.86788E-01 1.81570E-31
7.90351E-01 1.72198E-31
7.93893E-01 1.63281E-31
7.97411E-01 1.54799E-31
8.00908E-01 1.46733E-31
8.04381E-01 1.39063E-31
8.07831E-01 1.31771E-31
8.11257E-01 1.24841E-31
8.14660E-01 1.18255E-31
8.18039E-01 1.11999E-31
8.21394E-01 1.06055E-31
8.24724E-01 1.00411E-31
8.28030E-01 9.50514E-32
8.31310E-01 8.99634E-32
8.34565E-01 8.51340E-32
8.37795E-01 8.05509E-32
8.40999E-01 7.62024E-32
8.44177E-01 7.20771E-32
8.47329E-01 6.81645E-32
8.50455E-01 6.44540E-32
8.53553E-01 6.09359E-32
8.56625E-01 5.76009E-32
8.59670E-01 5.44398E-32
8.62687E-01 5.14443E-32
8.65677E-01 4.86059E-32
8.68639E-01 4.59170E-32
8.71572E-01 4.33701E-32
8.74478E-01 4.09581E-32
8.77355E-01 3.86742E-32
8.80203E-01 3.65119E-32
8.83022E-01 3.44650E-32
8.85812E-01 3.25277E-32
8.88573E-01 3.06945E-32
8.91304E-01 2.89598E-32
8.94005E-01 2.73188E-32
8.96677E-01 2.57665E-32
8.99318E-01 2.42984E-32
9.01928E-01 2.29101E-32
9.04508E-01 2.15974E-32
9.07058E-01 2.03563E-32
9.09576E-01 1.91831E-32
9.12063E-01 1.80743E-32
9.14519E-01 1.70264E-32
9.16943E-01 1.60361E-32
9.19335E-01 1.51005E-32
9.21696E-01 1.42166E-32
9.24024E-01 1.33817E-32
9.26320E-01 1.25931E-32
9.28584E-01 1.18483E-32
9.30815E-01 1.11450E-32
9.33013E-01 1.04809E-32
9.35178E-01 9.85385E-33
9.37310E-01 9.26191E-33
9.39409E-01 8.70314E-33
9.41474E-01 8.17573E-33
9.43505E-01 7.67797E-33
9.45503E-01 7.20820E-33
9.47467E-01 6.76492E-33
9.49397E-01 6.34665E-33
9.51293E-01 5.95202E-33
9.53154E-01 5.57972E-33
9.54981E-01 5.22852E-33
9.56773E-01 4.89724E-33
9.58530E-01 4.58478E-33
9.60252E-01 4.29011E-33
9.61940E-01 4.01222E-33
9.63592E-01 3.75019E-33
9.65209E-01 3.50313E-33
9.66790E-01 3.27022E-33
9.68336E-01 3.05066E-33
9.69846E-01 2.84370E-33
9.71321E-01 2.64867E-33
9.72759E-01 2.46490E-33
9.74162E-01 2.29175E-33
9.75528E-01 2.12864E-33
9.76858E-01 1.97502E-33
9.78152E-01 1.83037E-33
9.79410E-01 1.69419E-33
9.80631E-01 1.56604E-33
9.81815E-01 1.44545E-33
9.82963E-01 1.33204E-33
9.84074E-01 1.22541E-33
9.85148E-01 1.12521E-33
9.86185E-01 1.03109E-33
9.87185E-01 9.42731E-34
9.88148E-01 8.59849E-34
9.89074E-01 7.82148E-34
9.89962E-01 7.09374E-34
9.90814E-01 6.41280E-34
9.91627E-01 5.77639E-34
9.92404E-01 5.18235E-34
9.93143E-01 4.62869E-34
9.93844E-01 4.11361E-34
9.94508E-01 3.63526E-34
9.95134E-01 3.19225E-34
9.95722E-01 2.78289E-34
9.96273E-01 2.40596E-34
9.96786E-01 2.06013E-34
9.97261E-01 1.74432E-34
9.97698E-01 1.45748E-34
9.98097E-01 1.19861E-34
9.98459E-01 9.66883E-35
9.98782E-01 7.61550E-35
9.99067E-01 5.81937E-35
9.99315E-01 4.27443E-35
9.99524E-01 2.97564E-35
9.99695E-01 1.91888E-35
9.99829E-01 1.10036E-35
9.99924E-01 5.17728E-36
9.99981E-01 1.68733E-36
1.00000E+00 5.25183E-37
