 #
 # Subroutine ELSEPA. Elastic scattering of electrons and positrons
 #                    by neutral atoms and positive ions
 #
 # Projectile: positron
 # Kinetic energy = 1.00000E+08 eV = 3.67493E+06 a.u.
 #
 # WARNING: High-energy factorization with free-atom DF screening.
 #          Absorption, polarization and exchange corrections are
 #          switched off.
 #          Phase shifts are calculated for the bare nucleus.
 #          Scattering amplitudes are not evaluated.
 #
 # Element: Sm,  Z =  62,  atomic weight = 1.50360E+02 g/mol
 #
 # Nuclear model: Fermi distribution
 #                Average radius = 5.68977E-13 cm
 #                Skin thickness = 5.46000E-14 cm
 #
 # Number of electrons = 62
 #
 # Total elastic cross section = 7.22565E-18 cm**2 = 2.58033E-01 a0**2
 # 1st transport cross section = 7.13304E-25 cm**2 = 2.54726E-08 a0**2
 # 2nd transport cross section = 2.12019E-24 cm**2 = 7.57132E-08 a0**2
 #
 #
 # Differential cross section:                       MU=(1-COS(THETA))/2
 #
 #  THETA        MU          DCS          DCS        Sherman      error
 #  (deg)                 (cm**2/sr)   (a0**2/sr)    function
 #----------------------------------------------------------------------
0.00000E+00 9.39350E-10
7.61557E-13 9.34470E-10
1.18994E-12 9.31748E-10
1.71346E-12 9.28439E-10
2.33225E-12 9.24554E-10
3.04617E-12 9.20105E-10
3.85530E-12 9.15105E-10
4.75964E-12 9.09570E-10
5.75917E-12 9.03517E-10
6.85391E-12 8.96964E-10
8.04379E-12 8.89930E-10
9.32893E-12 8.82436E-10
1.07092E-11 8.74503E-10
1.21847E-11 8.66154E-10
1.37554E-11 8.57410E-10
1.54213E-11 8.48297E-10
1.71823E-11 8.38839E-10
1.90386E-11 8.29060E-10
2.09900E-11 8.18984E-10
2.30367E-11 8.08655E-10
2.51785E-11 7.98158E-10
2.74156E-11 7.87395E-10
2.97478E-11 7.76388E-10
3.21752E-11 7.65158E-10
3.46979E-11 7.53724E-10
3.73157E-11 7.42320E-10
4.00286E-11 7.30846E-10
4.28368E-11 7.19230E-10
4.57402E-11 7.07492E-10
4.87388E-11 6.95650E-10
5.18325E-11 6.83810E-10
5.50215E-11 6.72172E-10
5.83057E-11 6.60481E-10
6.16850E-11 6.48753E-10
6.51595E-11 6.37004E-10
6.87293E-11 6.25248E-10
7.23943E-11 6.13805E-10
7.61544E-11 6.02462E-10
1.18991E-10 4.95059E-10
1.71347E-10 4.04632E-10
2.33223E-10 3.32472E-10
3.04617E-10 2.76018E-10
3.85531E-10 2.32062E-10
4.75965E-10 1.97574E-10
5.75917E-10 1.70108E-10
6.85389E-10 1.47831E-10
8.04380E-10 1.29407E-10
9.32891E-10 1.13929E-10
1.07092E-09 1.00757E-10
1.21847E-09 8.94303E-11
1.37554E-09 7.96144E-11
1.54213E-09 7.10546E-11
1.71823E-09 6.35479E-11
1.90386E-09 5.69593E-11
2.09900E-09 5.11627E-11
2.30367E-09 4.59865E-11
2.51785E-09 4.11774E-11
2.74156E-09 3.70931E-11
2.97478E-09 3.36032E-11
3.21752E-09 3.06040E-11
3.46978E-09 2.80125E-11
3.73156E-09 2.54995E-11
4.00286E-09 2.32164E-11
4.28368E-09 2.12283E-11
4.57402E-09 1.94894E-11
4.87388E-09 1.79617E-11
5.18326E-09 1.65751E-11
5.50215E-09 1.52366E-11
5.83057E-09 1.40526E-11
6.16850E-09 1.30015E-11
6.51596E-09 1.20651E-11
6.87293E-09 1.12283E-11
7.23942E-09 1.04173E-11
7.61544E-09 9.67471E-12
1.18991E-08 4.99695E-12
1.71347E-08 2.79719E-12
2.33223E-08 1.66739E-12
3.04617E-08 1.05452E-12
3.85531E-08 7.02336E-13
4.75965E-08 4.88470E-13
5.75917E-08 3.51936E-13
6.85389E-08 2.60394E-13
8.04380E-08 1.97057E-13
9.32891E-08 1.51914E-13
1.07092E-07 1.18894E-13
1.21847E-07 9.42600E-14
1.37554E-07 7.56092E-14
1.54213E-07 6.13103E-14
1.71823E-07 5.02112E-14
1.90386E-07 4.14986E-14
2.09900E-07 3.45855E-14
2.30367E-07 2.90450E-14
2.51785E-07 2.45629E-14
2.74156E-07 2.09378E-14
2.97478E-07 1.79397E-14
3.21752E-07 1.54735E-14
3.46978E-07 1.34108E-14
3.73156E-07 1.16857E-14
4.00286E-07 1.02287E-14
4.28368E-07 8.99334E-15
4.57402E-07 7.93993E-15
4.87388E-07 7.03561E-15
5.18325E-07 6.25823E-15
5.50215E-07 5.58393E-15
5.83057E-07 4.99999E-15
6.16850E-07 4.48867E-15
6.51596E-07 4.04258E-15
6.87293E-07 3.64944E-15
7.23942E-07 3.30369E-15
7.61543E-07 2.99750E-15
1.18991E-06 1.26662E-15
1.71347E-06 6.22613E-16
2.33223E-06 3.40320E-16
3.04617E-06 2.01261E-16
3.85531E-06 1.26495E-16
4.75964E-06 8.34406E-17
5.75916E-06 5.72454E-17
6.85388E-06 4.05717E-17
8.04378E-06 2.95510E-17
9.32888E-06 2.20312E-17
1.07092E-05 1.67582E-17
1.21846E-05 1.29722E-17
1.37553E-05 1.01972E-17
1.54212E-05 8.12586E-18
1.71822E-05 6.55447E-18
1.90385E-05 5.34284E-18
2.09899E-05 4.40229E-18
2.30365E-05 3.65929E-18
2.51783E-05 3.06588E-18
2.74153E-05 2.58741E-18
2.97475E-05 2.19839E-18
3.21749E-05 1.87972E-18
3.46974E-05 1.61684E-18
3.73152E-05 1.39846E-18
4.00281E-05 1.21583E-18
4.28362E-05 1.06210E-18
4.57395E-05 9.31886E-19
4.87380E-05 8.20975E-19
5.18317E-05 7.26023E-19
5.50205E-05 6.44363E-19
5.83045E-05 5.73843E-19
6.16838E-05 5.12707E-19
6.51582E-05 4.59507E-19
6.87277E-05 4.13041E-19
7.23925E-05 3.72308E-19
7.61524E-05 3.36588E-19
9.21439E-05 2.29907E-19
1.09658E-04 1.62302E-19
1.28695E-04 1.17815E-19
1.49255E-04 8.75609E-20
1.71338E-04 6.64216E-20
1.94942E-04 5.12877E-20
2.20070E-04 4.02258E-20
2.46720E-04 3.19896E-20
2.74892E-04 2.57554E-20
3.04586E-04 2.09674E-20
3.35803E-04 1.72409E-20
3.68542E-04 1.43059E-20
4.02802E-04 1.19691E-20
4.38585E-04 1.00899E-20
4.75889E-04 8.56502E-21
5.14715E-04 7.31725E-21
5.55063E-04 6.28835E-21
5.96931E-04 5.43386E-21
6.40321E-04 4.71947E-21
6.85233E-04 4.11854E-21
7.31665E-04 3.61012E-21
7.79618E-04 3.17765E-21
8.29092E-04 2.80793E-21
8.80086E-04 2.49034E-21
9.32601E-04 2.21633E-21
9.86636E-04 1.97890E-21
1.04219E-03 1.77236E-21
1.09927E-03 1.59202E-21
1.15786E-03 1.43399E-21
1.21797E-03 1.29504E-21
1.27961E-03 1.17247E-21
1.34276E-03 1.06403E-21
1.40743E-03 9.67805E-22
1.47362E-03 8.82183E-22
1.54133E-03 8.05796E-22
1.61056E-03 7.37473E-22
1.68131E-03 6.76216E-22
1.75357E-03 6.21168E-22
1.82735E-03 5.71590E-22
1.90265E-03 5.26842E-22
1.97947E-03 4.86372E-22
2.05780E-03 4.49699E-22
2.13765E-03 4.16404E-22
2.21902E-03 3.86122E-22
2.30190E-03 3.58531E-22
2.38630E-03 3.33349E-22
2.47222E-03 3.10326E-22
2.55965E-03 2.89248E-22
2.64859E-03 2.69920E-22
2.73905E-03 2.52171E-22
2.83103E-03 2.35850E-22
2.92452E-03 2.20821E-22
3.01952E-03 2.06963E-22
3.11604E-03 1.94169E-22
3.21407E-03 1.82342E-22
3.31362E-03 1.71396E-22
3.41468E-03 1.61255E-22
3.51725E-03 1.51847E-22
3.62133E-03 1.43111E-22
3.72692E-03 1.34990E-22
3.83403E-03 1.27433E-22
3.94265E-03 1.20393E-22
4.05278E-03 1.13829E-22
4.16442E-03 1.07703E-22
4.27757E-03 1.01980E-22
4.39223E-03 9.66293E-23
4.50840E-03 9.16219E-23
4.62608E-03 8.69318E-23
4.74527E-03 8.25354E-23
4.86597E-03 7.84110E-23
4.98817E-03 7.45385E-23
5.11188E-03 7.09000E-23
5.23711E-03 6.74786E-23
5.36383E-03 6.42590E-23
5.49207E-03 6.12273E-23
5.62181E-03 5.83704E-23
5.75306E-03 5.56764E-23
5.88581E-03 5.31343E-23
6.02007E-03 5.07341E-23
6.15583E-03 4.84664E-23
6.29310E-03 4.63225E-23
6.43187E-03 4.42944E-23
6.57214E-03 4.23747E-23
6.71392E-03 4.05567E-23
6.85720E-03 3.88339E-23
7.00198E-03 3.72004E-23
7.14827E-03 3.56508E-23
7.29605E-03 3.41800E-23
7.44534E-03 3.27832E-23
7.59612E-03 3.14560E-23
7.97965E-03 2.84165E-23
8.37255E-03 2.57305E-23
8.77480E-03 2.33499E-23
9.18641E-03 2.12343E-23
9.60736E-03 1.93492E-23
1.00376E-02 1.76654E-23
1.04773E-02 1.61577E-23
1.09262E-02 1.48046E-23
1.13844E-02 1.35876E-23
1.18520E-02 1.24908E-23
1.23288E-02 1.15002E-23
1.28150E-02 1.06039E-23
1.33104E-02 9.79137E-24
1.38150E-02 9.05347E-24
1.43290E-02 8.38220E-24
1.48521E-02 7.77053E-24
1.53845E-02 7.21228E-24
1.59262E-02 6.70200E-24
1.64770E-02 6.23489E-24
1.70371E-02 5.80667E-24
1.76063E-02 5.41357E-24
1.81848E-02 5.05223E-24
1.87724E-02 4.71965E-24
1.93692E-02 4.41317E-24
1.99751E-02 4.13038E-24
2.05901E-02 3.86916E-24
2.12143E-02 3.62759E-24
2.18476E-02 3.40395E-24
2.24900E-02 3.19667E-24
2.31415E-02 3.00438E-24
2.38021E-02 2.82580E-24
2.44717E-02 2.65980E-24
2.51504E-02 2.50535E-24
2.58382E-02 2.36151E-24
2.65349E-02 2.22743E-24
2.72407E-02 2.10234E-24
2.79555E-02 1.98554E-24
2.86793E-02 1.87640E-24
2.94120E-02 1.77432E-24
3.01537E-02 1.67879E-24
3.09043E-02 1.58930E-24
3.16639E-02 1.50542E-24
3.24324E-02 1.42674E-24
3.32098E-02 1.35288E-24
3.39961E-02 1.28351E-24
3.47912E-02 1.21830E-24
3.55952E-02 1.15697E-24
3.64081E-02 1.09925E-24
3.72297E-02 1.04489E-24
3.80602E-02 9.93668E-25
3.88995E-02 9.45376E-25
3.97476E-02 8.99817E-25
4.06044E-02 8.56814E-25
4.14700E-02 8.16201E-25
4.23443E-02 7.77824E-25
4.32273E-02 7.41541E-25
4.41190E-02 7.07221E-25
4.50194E-02 6.74742E-25
4.59284E-02 6.43988E-25
4.68461E-02 6.14856E-25
4.87074E-02 5.61068E-25
5.06030E-02 5.12668E-25
5.25328E-02 4.69041E-25
5.44967E-02 4.29652E-25
5.64946E-02 3.94031E-25
5.85262E-02 3.61769E-25
6.05914E-02 3.32507E-25
6.26901E-02 3.05927E-25
6.48222E-02 2.81751E-25
6.69873E-02 2.59734E-25
6.91854E-02 2.39656E-25
7.14163E-02 2.21325E-25
7.36799E-02 2.04570E-25
7.59760E-02 1.89238E-25
7.83043E-02 1.75192E-25
8.06647E-02 1.62312E-25
8.30571E-02 1.50488E-25
8.54812E-02 1.39624E-25
8.79369E-02 1.29632E-25
9.04240E-02 1.20434E-25
9.29422E-02 1.11960E-25
9.54915E-02 1.04145E-25
9.80716E-02 9.69325E-26
1.00682E-01 9.02712E-26
1.03323E-01 8.41138E-26
1.05995E-01 7.84181E-26
1.08696E-01 7.31457E-26
1.11427E-01 6.82618E-26
1.14188E-01 6.37346E-26
1.16978E-01 5.95353E-26
1.19797E-01 5.56378E-26
1.22645E-01 5.20182E-26
1.25522E-01 4.86546E-26
1.28428E-01 4.55271E-26
1.31361E-01 4.26176E-26
1.34323E-01 3.99094E-26
1.37313E-01 3.73872E-26
1.40330E-01 3.50370E-26
1.43375E-01 3.28461E-26
1.46447E-01 3.08026E-26
1.49545E-01 2.88959E-26
1.52671E-01 2.71158E-26
1.55823E-01 2.54533E-26
1.59001E-01 2.38999E-26
1.62205E-01 2.24479E-26
1.65435E-01 2.10901E-26
1.68690E-01 1.98200E-26
1.71970E-01 1.86313E-26
1.75276E-01 1.75184E-26
1.78606E-01 1.64763E-26
1.81961E-01 1.54999E-26
1.85340E-01 1.45849E-26
1.88743E-01 1.37271E-26
1.92169E-01 1.29227E-26
1.95619E-01 1.21681E-26
1.99092E-01 1.14600E-26
2.02589E-01 1.07954E-26
2.06107E-01 1.01714E-26
2.09649E-01 9.58535E-27
2.13212E-01 9.03482E-27
2.16797E-01 8.51751E-27
2.20404E-01 8.03128E-27
2.24032E-01 7.57416E-27
2.27680E-01 7.14430E-27
2.31350E-01 6.73997E-27
2.35040E-01 6.35958E-27
2.38751E-01 6.00162E-27
2.42481E-01 5.66470E-27
2.46231E-01 5.34751E-27
2.50000E-01 5.04883E-27
2.53788E-01 4.76754E-27
2.57595E-01 4.50255E-27
2.61421E-01 4.25289E-27
2.65264E-01 4.01761E-27
2.69126E-01 3.79585E-27
2.73005E-01 3.58680E-27
2.76901E-01 3.38969E-27
2.80814E-01 3.20381E-27
2.84744E-01 3.02849E-27
2.88691E-01 2.86310E-27
2.92653E-01 2.70705E-27
2.96632E-01 2.55980E-27
3.00625E-01 2.42083E-27
3.04634E-01 2.28966E-27
3.08658E-01 2.16582E-27
3.12697E-01 2.04889E-27
3.16749E-01 1.93847E-27
3.20816E-01 1.83419E-27
3.24896E-01 1.73569E-27
3.28990E-01 1.64263E-27
3.33097E-01 1.55471E-27
3.37216E-01 1.47164E-27
3.41348E-01 1.39313E-27
3.45492E-01 1.31892E-27
3.49647E-01 1.24878E-27
3.53814E-01 1.18247E-27
3.57992E-01 1.11977E-27
3.62181E-01 1.06049E-27
3.66381E-01 1.00443E-27
3.70590E-01 9.51410E-28
3.74810E-01 9.01259E-28
3.79039E-01 8.53819E-28
3.83277E-01 8.08938E-28
3.87524E-01 7.66474E-28
3.91780E-01 7.26294E-28
3.96044E-01 6.88271E-28
4.00316E-01 6.52285E-28
4.04596E-01 6.18226E-28
4.08882E-01 5.85986E-28
4.13176E-01 5.55467E-28
4.17476E-01 5.26573E-28
4.21783E-01 4.99217E-28
4.26095E-01 4.73313E-28
4.30413E-01 4.48784E-28
4.34737E-01 4.25553E-28
4.39065E-01 4.03552E-28
4.43398E-01 3.82713E-28
4.47736E-01 3.62973E-28
4.52077E-01 3.44273E-28
4.56422E-01 3.26557E-28
4.60770E-01 3.09772E-28
4.65122E-01 2.93868E-28
4.69476E-01 2.78797E-28
4.73832E-01 2.64516E-28
4.78190E-01 2.50981E-28
4.82550E-01 2.38153E-28
4.86912E-01 2.25994E-28
4.91274E-01 2.14468E-28
4.95637E-01 2.03543E-28
5.00000E-01 1.93185E-28
5.04363E-01 1.83364E-28
5.08726E-01 1.74054E-28
5.13088E-01 1.65225E-28
5.17450E-01 1.56853E-28
5.21810E-01 1.48914E-28
5.26168E-01 1.41385E-28
5.30524E-01 1.34244E-28
5.34878E-01 1.27471E-28
5.39230E-01 1.21046E-28
5.43578E-01 1.14952E-28
5.47923E-01 1.09171E-28
5.52264E-01 1.03686E-28
5.56602E-01 9.84820E-29
5.60935E-01 9.35446E-29
5.65263E-01 8.88597E-29
5.69587E-01 8.44141E-29
5.73905E-01 8.01954E-29
5.78217E-01 7.61917E-29
5.82524E-01 7.23919E-29
5.86824E-01 6.87854E-29
5.91118E-01 6.53621E-29
5.95404E-01 6.21127E-29
5.99684E-01 5.90281E-29
6.03956E-01 5.60997E-29
6.08220E-01 5.33196E-29
6.12476E-01 5.06801E-29
6.16723E-01 4.81739E-29
6.20961E-01 4.57941E-29
6.25190E-01 4.35343E-29
6.29410E-01 4.13884E-29
6.33619E-01 3.93504E-29
6.37819E-01 3.74148E-29
6.42008E-01 3.55764E-29
6.46186E-01 3.38302E-29
6.50353E-01 3.21715E-29
6.54508E-01 3.05958E-29
6.58652E-01 2.90990E-29
6.62784E-01 2.76769E-29
6.66903E-01 2.63257E-29
6.71010E-01 2.50420E-29
6.75104E-01 2.38221E-29
6.79184E-01 2.26630E-29
6.83251E-01 2.15614E-29
6.87303E-01 2.05146E-29
6.91342E-01 1.95196E-29
6.95366E-01 1.85739E-29
6.99375E-01 1.76751E-29
7.03368E-01 1.68207E-29
7.07347E-01 1.60084E-29
7.11309E-01 1.52363E-29
7.15256E-01 1.45022E-29
7.19186E-01 1.38042E-29
7.23099E-01 1.31405E-29
7.26995E-01 1.25094E-29
7.30874E-01 1.19093E-29
7.34736E-01 1.13386E-29
7.38579E-01 1.07958E-29
7.42405E-01 1.02796E-29
7.46212E-01 9.78858E-30
7.50000E-01 9.32151E-30
7.53769E-01 8.87719E-30
7.57519E-01 8.45449E-30
7.61249E-01 8.05233E-30
7.64960E-01 7.66970E-30
7.68650E-01 7.30562E-30
7.72320E-01 6.95917E-30
7.75968E-01 6.62947E-30
7.79596E-01 6.31570E-30
7.83203E-01 6.01707E-30
7.86788E-01 5.73282E-30
7.90351E-01 5.46226E-30
7.93893E-01 5.20469E-30
7.97411E-01 4.95948E-30
8.00908E-01 4.72603E-30
8.04381E-01 4.50375E-30
8.07831E-01 4.29209E-30
8.11257E-01 4.09053E-30
8.14660E-01 3.89858E-30
8.18039E-01 3.71577E-30
8.21394E-01 3.54164E-30
8.24724E-01 3.37578E-30
8.28030E-01 3.21778E-30
8.31310E-01 3.06725E-30
8.34565E-01 2.92383E-30
8.37795E-01 2.78718E-30
8.40999E-01 2.65697E-30
8.44177E-01 2.53288E-30
8.47329E-01 2.41461E-30
8.50455E-01 2.30189E-30
8.53553E-01 2.19445E-30
8.56625E-01 2.09202E-30
8.59670E-01 1.99437E-30
8.62687E-01 1.90128E-30
8.65677E-01 1.81251E-30
8.68639E-01 1.72786E-30
8.71572E-01 1.64713E-30
8.74478E-01 1.57014E-30
8.77355E-01 1.49670E-30
8.80203E-01 1.42665E-30
8.83022E-01 1.35982E-30
8.85812E-01 1.29607E-30
8.88573E-01 1.23523E-30
8.91304E-01 1.17719E-30
8.94005E-01 1.12179E-30
8.96677E-01 1.06892E-30
8.99318E-01 1.01846E-30
9.01928E-01 9.70299E-31
9.04508E-01 9.24319E-31
9.07058E-01 8.80423E-31
9.09576E-01 8.38511E-31
9.12063E-01 7.98493E-31
9.14519E-01 7.60278E-31
9.16943E-01 7.23782E-31
9.19335E-01 6.88927E-31
9.21696E-01 6.55634E-31
9.24024E-01 6.23833E-31
9.26320E-01 5.93454E-31
9.28584E-01 5.64432E-31
9.30815E-01 5.36703E-31
9.33013E-01 5.10210E-31
9.35178E-01 4.84894E-31
9.37310E-01 4.60704E-31
9.39409E-01 4.37586E-31
9.41474E-01 4.15494E-31
9.43505E-01 3.94380E-31
9.45503E-01 3.74201E-31
9.47467E-01 3.54915E-31
9.49397E-01 3.36481E-31
9.51293E-01 3.18862E-31
9.53154E-01 3.02022E-31
9.54981E-01 2.85927E-31
9.56773E-01 2.70543E-31
9.58530E-01 2.55841E-31
9.60252E-01 2.41789E-31
9.61940E-01 2.28361E-31
9.63592E-01 2.15528E-31
9.65209E-01 2.03267E-31
9.66790E-01 1.91553E-31
9.68336E-01 1.80363E-31
9.69846E-01 1.69674E-31
9.71321E-01 1.59466E-31
9.72759E-01 1.49720E-31
9.74162E-01 1.40417E-31
9.75528E-01 1.31538E-31
9.76858E-01 1.23067E-31
9.78152E-01 1.14988E-31
9.79410E-01 1.07285E-31
9.80631E-01 9.99439E-32
9.81815E-01 9.29513E-32
9.82963E-01 8.62937E-32
9.84074E-01 7.99590E-32
9.85148E-01 7.39353E-32
9.86185E-01 6.82115E-32
9.87185E-01 6.27773E-32
9.88148E-01 5.76226E-32
9.89074E-01 5.27381E-32
9.89962E-01 4.81150E-32
9.90814E-01 4.37448E-32
9.91627E-01 3.96198E-32
9.92404E-01 3.57325E-32
9.93143E-01 3.20760E-32
9.93844E-01 2.86439E-32
9.94508E-01 2.54300E-32
9.95134E-01 2.24285E-32
9.95722E-01 1.96344E-32
9.96273E-01 1.70426E-32
9.96786E-01 1.46486E-32
9.97261E-01 1.24482E-32
9.97698E-01 1.04376E-32
9.98097E-01 8.61325E-33
9.98459E-01 6.97205E-33
9.98782E-01 5.51111E-33
9.99067E-01 4.22792E-33
9.99315E-01 3.12025E-33
9.99524E-01 2.18621E-33
9.99695E-01 1.42416E-33
9.99829E-01 8.32825E-34
9.99924E-01 4.11156E-34
9.99981E-01 1.58454E-34
1.00000E+00 7.42715E-35
