 #
 # Subroutine ELSEPA. Elastic scattering of electrons and positrons
 #                    by neutral atoms and positive ions
 #
 # Projectile: positron
 # Kinetic energy = 7.00000E+06 eV = 2.57245E+05 a.u.
 #
 # WARNING: High-energy factorization with free-atom DF screening.
 #          Absorption, polarization and exchange corrections are
 #          switched off.
 #          Phase shifts are calculated for the bare nucleus.
 #          Scattering amplitudes are not evaluated.
 #
 # Element: Sm,  Z =  62,  atomic weight = 1.50360E+02 g/mol
 #
 # Nuclear model: Fermi distribution
 #                Average radius = 5.68977E-13 cm
 #                Skin thickness = 5.46000E-14 cm
 #
 # Number of electrons = 62
 #
 # Total elastic cross section = 7.25344E-18 cm**2 = 2.59025E-01 a0**2
 # 1st transport cross section = 9.12971E-23 cm**2 = 3.26028E-06 a0**2
 # 2nd transport cross section = 2.63556E-22 cm**2 = 9.41177E-06 a0**2
 #
 #
 # Differential cross section:                       MU=(1-COS(THETA))/2
 #
 #  THETA        MU          DCS          DCS        Sherman      error
 #  (deg)                 (cm**2/sr)   (a0**2/sr)    function
 #----------------------------------------------------------------------
0.00000E+00 5.24561E-12
7.61557E-13 5.24544E-12
1.18994E-12 5.24536E-12
1.71346E-12 5.24525E-12
2.33225E-12 5.24513E-12
3.04617E-12 5.24498E-12
3.85530E-12 5.24482E-12
4.75964E-12 5.24464E-12
5.75917E-12 5.24443E-12
6.85391E-12 5.24421E-12
8.04379E-12 5.24397E-12
9.32893E-12 5.24372E-12
1.07092E-11 5.24344E-12
1.21847E-11 5.24314E-12
1.37554E-11 5.24283E-12
1.54213E-11 5.24249E-12
1.71823E-11 5.24214E-12
1.90386E-11 5.24177E-12
2.09900E-11 5.24138E-12
2.30367E-11 5.24097E-12
2.51785E-11 5.24054E-12
2.74156E-11 5.24010E-12
2.97478E-11 5.23963E-12
3.21752E-11 5.23914E-12
3.46979E-11 5.23864E-12
3.73157E-11 5.23812E-12
4.00286E-11 5.23758E-12
4.28368E-11 5.23702E-12
4.57402E-11 5.23644E-12
4.87388E-11 5.23584E-12
5.18325E-11 5.23522E-12
5.50215E-11 5.23459E-12
5.83057E-11 5.23393E-12
6.16850E-11 5.23326E-12
6.51595E-11 5.23257E-12
6.87293E-11 5.23186E-12
7.23943E-11 5.23113E-12
7.61544E-11 5.23038E-12
1.18991E-10 5.22188E-12
1.71347E-10 5.21152E-12
2.33223E-10 5.19933E-12
3.04617E-10 5.18532E-12
3.85531E-10 5.16952E-12
4.75965E-10 5.15196E-12
5.75917E-10 5.13267E-12
6.85389E-10 5.11168E-12
8.04380E-10 5.08902E-12
9.32891E-10 5.06474E-12
1.07092E-09 5.03888E-12
1.21847E-09 5.01147E-12
1.37554E-09 4.98256E-12
1.54213E-09 4.95221E-12
1.71823E-09 4.92045E-12
1.90386E-09 4.88735E-12
2.09900E-09 4.85295E-12
2.30367E-09 4.81729E-12
2.51785E-09 4.78046E-12
2.74156E-09 4.74247E-12
2.97478E-09 4.70341E-12
3.21752E-09 4.66333E-12
3.46978E-09 4.62228E-12
3.73156E-09 4.58032E-12
4.00286E-09 4.53751E-12
4.28368E-09 4.49422E-12
4.57402E-09 4.45024E-12
4.87388E-09 4.40544E-12
5.18326E-09 4.35987E-12
5.50215E-09 4.31359E-12
5.83057E-09 4.26663E-12
6.16850E-09 4.21905E-12
6.51596E-09 4.17137E-12
6.87293E-09 4.12395E-12
7.23942E-09 4.07604E-12
7.61544E-09 4.02770E-12
1.18991E-08 3.53868E-12
1.71347E-08 3.06977E-12
2.33223E-08 2.64573E-12
3.04617E-08 2.27572E-12
3.85531E-08 1.96374E-12
4.75965E-08 1.70298E-12
5.75917E-08 1.48627E-12
6.85389E-08 1.30723E-12
8.04380E-08 1.15758E-12
9.32891E-08 1.03176E-12
1.07092E-07 9.24966E-13
1.21847E-07 8.33341E-13
1.37554E-07 7.53879E-13
1.54213E-07 6.84341E-13
1.71823E-07 6.23112E-13
1.90386E-07 5.68568E-13
2.09900E-07 5.19909E-13
2.30367E-07 4.76311E-13
2.51785E-07 4.36893E-13
2.74156E-07 4.01380E-13
2.97478E-07 3.69219E-13
3.21752E-07 3.39997E-13
3.46978E-07 3.13519E-13
3.73156E-07 2.89393E-13
4.00286E-07 2.67434E-13
4.28368E-07 2.46307E-13
4.57402E-07 2.27082E-13
4.87388E-07 2.10052E-13
5.18325E-07 1.94915E-13
5.50215E-07 1.81418E-13
5.83057E-07 1.69345E-13
6.16850E-07 1.58513E-13
6.51596E-07 1.48144E-13
6.87293E-07 1.37887E-13
7.23942E-07 1.28657E-13
7.61543E-07 1.20330E-13
1.18991E-06 6.59695E-14
1.71347E-06 3.90227E-14
2.33223E-06 2.43590E-14
3.04617E-06 1.58988E-14
3.85531E-06 1.07295E-14
4.75964E-06 7.49187E-15
5.75916E-06 5.39796E-15
6.85388E-06 3.99545E-15
8.04378E-06 3.03149E-15
9.32888E-06 2.34855E-15
1.07092E-05 1.85124E-15
1.21846E-05 1.48033E-15
1.37553E-05 1.19882E-15
1.54212E-05 9.81537E-16
1.71822E-05 8.11423E-16
1.90385E-05 6.75708E-16
2.09899E-05 5.67361E-16
2.30365E-05 4.79555E-16
2.51783E-05 4.07700E-16
2.74153E-05 3.48672E-16
2.97475E-05 2.99835E-16
3.21749E-05 2.59173E-16
3.46974E-05 2.25163E-16
3.73152E-05 1.96524E-16
4.00281E-05 1.72295E-16
4.28362E-05 1.51624E-16
4.57395E-05 1.34004E-16
4.87380E-05 1.18943E-16
5.18317E-05 1.05867E-16
5.50205E-05 9.45509E-17
5.83045E-05 8.47493E-17
6.16838E-05 7.61413E-17
6.51582E-05 6.86175E-17
6.87277E-05 6.20288E-17
7.23925E-05 5.61860E-17
7.61524E-05 5.10299E-17
9.21439E-05 3.54948E-17
1.09658E-04 2.54407E-17
1.28695E-04 1.87137E-17
1.49255E-04 1.40677E-17
1.71338E-04 1.07749E-17
1.94942E-04 8.39044E-18
2.20070E-04 6.62842E-18
2.46720E-04 5.30427E-18
2.74892E-04 4.29412E-18
3.04586E-04 3.51242E-18
3.35803E-04 2.90031E-18
3.68542E-04 2.41562E-18
4.02802E-04 2.02770E-18
4.38585E-04 1.71447E-18
4.75889E-04 1.45932E-18
5.14715E-04 1.24979E-18
5.55063E-04 1.07651E-18
5.96931E-04 9.32168E-19
6.40321E-04 8.11189E-19
6.85233E-04 7.09192E-19
7.31665E-04 6.22696E-19
7.79618E-04 5.48980E-19
8.29092E-04 4.85841E-19
8.80086E-04 4.31505E-19
9.32601E-04 3.84549E-19
9.86636E-04 3.43800E-19
1.04219E-03 3.08298E-19
1.09927E-03 2.77256E-19
1.15786E-03 2.50017E-19
1.21797E-03 2.26036E-19
1.27961E-03 2.04859E-19
1.34276E-03 1.86098E-19
1.40743E-03 1.69432E-19
1.47362E-03 1.54588E-19
1.54133E-03 1.41329E-19
1.61056E-03 1.29459E-19
1.68131E-03 1.18806E-19
1.75357E-03 1.09224E-19
1.82735E-03 1.00587E-19
1.90265E-03 9.27835E-20
1.97947E-03 8.57203E-20
2.05780E-03 7.93151E-20
2.13765E-03 7.34946E-20
2.21902E-03 6.81971E-20
2.30190E-03 6.33666E-20
2.38630E-03 5.89550E-20
2.47222E-03 5.49194E-20
2.55965E-03 5.12220E-20
2.64859E-03 4.78294E-20
2.73905E-03 4.47121E-20
2.83103E-03 4.18436E-20
2.92452E-03 3.92007E-20
3.01952E-03 3.67623E-20
3.11604E-03 3.45098E-20
3.21407E-03 3.24265E-20
3.31362E-03 3.04974E-20
3.41468E-03 2.87090E-20
3.51725E-03 2.70493E-20
3.62133E-03 2.55072E-20
3.72692E-03 2.40730E-20
3.83403E-03 2.27378E-20
3.94265E-03 2.14933E-20
4.05278E-03 2.03325E-20
4.16442E-03 1.92485E-20
4.27757E-03 1.82357E-20
4.39223E-03 1.72881E-20
4.50840E-03 1.64011E-20
4.62608E-03 1.55698E-20
4.74527E-03 1.47904E-20
4.86597E-03 1.40589E-20
4.98817E-03 1.33718E-20
5.11188E-03 1.27259E-20
5.23711E-03 1.21184E-20
5.36383E-03 1.15465E-20
5.49207E-03 1.10077E-20
5.62181E-03 1.04999E-20
5.75306E-03 1.00208E-20
5.88581E-03 9.56859E-21
6.02007E-03 9.14145E-21
6.15583E-03 8.73776E-21
6.29310E-03 8.35598E-21
6.43187E-03 7.99470E-21
6.57214E-03 7.65263E-21
6.71392E-03 7.32853E-21
6.85720E-03 7.02134E-21
7.00198E-03 6.72995E-21
7.14827E-03 6.45345E-21
7.29605E-03 6.19090E-21
7.44534E-03 5.94150E-21
7.59612E-03 5.70445E-21
7.97965E-03 5.16125E-21
8.37255E-03 4.68081E-21
8.77480E-03 4.25466E-21
9.18641E-03 3.87563E-21
9.60736E-03 3.53762E-21
1.00376E-02 3.23543E-21
1.04773E-02 2.96462E-21
1.09262E-02 2.72138E-21
1.13844E-02 2.50242E-21
1.18520E-02 2.30488E-21
1.23288E-02 2.12633E-21
1.28150E-02 1.96461E-21
1.33104E-02 1.81787E-21
1.38150E-02 1.68448E-21
1.43290E-02 1.56301E-21
1.48521E-02 1.45221E-21
1.53845E-02 1.35098E-21
1.59262E-02 1.25836E-21
1.64770E-02 1.17347E-21
1.70371E-02 1.09557E-21
1.76063E-02 1.02397E-21
1.81848E-02 9.58077E-22
1.87724E-02 8.97356E-22
1.93692E-02 8.41329E-22
1.99751E-02 7.89571E-22
2.05901E-02 7.41696E-22
2.12143E-02 6.97364E-22
2.18476E-02 6.56266E-22
2.24900E-02 6.18124E-22
2.31415E-02 5.82687E-22
2.38021E-02 5.49730E-22
2.44717E-02 5.19049E-22
2.51504E-02 4.90458E-22
2.58382E-02 4.63790E-22
2.65349E-02 4.38892E-22
2.72407E-02 4.15626E-22
2.79555E-02 3.93866E-22
2.86793E-02 3.73497E-22
2.94120E-02 3.54415E-22
3.01537E-02 3.36523E-22
3.09043E-02 3.19734E-22
3.16639E-02 3.03969E-22
3.24324E-02 2.89152E-22
3.32098E-02 2.75218E-22
3.39961E-02 2.62103E-22
3.47912E-02 2.49752E-22
3.55952E-02 2.38112E-22
3.64081E-02 2.27134E-22
3.72297E-02 2.16775E-22
3.80602E-02 2.06993E-22
3.88995E-02 1.97749E-22
3.97476E-02 1.89010E-22
4.06044E-02 1.80743E-22
4.14700E-02 1.72917E-22
4.23443E-02 1.65505E-22
4.32273E-02 1.58481E-22
4.41190E-02 1.51821E-22
4.50194E-02 1.45503E-22
4.59284E-02 1.39506E-22
4.68461E-02 1.33811E-22
4.87074E-02 1.23256E-22
5.06030E-02 1.13708E-22
5.25328E-02 1.05056E-22
5.44967E-02 9.71997E-23
5.64946E-02 9.00552E-23
5.85262E-02 8.35463E-23
6.05914E-02 7.76069E-23
6.26901E-02 7.21786E-23
6.48222E-02 6.72099E-23
6.69873E-02 6.26554E-23
6.91854E-02 5.84746E-23
7.14163E-02 5.46314E-23
7.36799E-02 5.10939E-23
7.59760E-02 4.78337E-23
7.83043E-02 4.48254E-23
8.06647E-02 4.20461E-23
8.30571E-02 3.94753E-23
8.54812E-02 3.70947E-23
8.79369E-02 3.48879E-23
9.04240E-02 3.28399E-23
9.29422E-02 3.09374E-23
9.54915E-02 2.91681E-23
9.80716E-02 2.75213E-23
1.00682E-01 2.59869E-23
1.03323E-01 2.45559E-23
1.05995E-01 2.32203E-23
1.08696E-01 2.19724E-23
1.11427E-01 2.08055E-23
1.14188E-01 1.97136E-23
1.16978E-01 1.86909E-23
1.19797E-01 1.77323E-23
1.22645E-01 1.68330E-23
1.25522E-01 1.59889E-23
1.28428E-01 1.51958E-23
1.31361E-01 1.44502E-23
1.34323E-01 1.37487E-23
1.37313E-01 1.30883E-23
1.40330E-01 1.24662E-23
1.43375E-01 1.18797E-23
1.46447E-01 1.13265E-23
1.49545E-01 1.08043E-23
1.52671E-01 1.03111E-23
1.55823E-01 9.84506E-24
1.59001E-01 9.40435E-24
1.62205E-01 8.98740E-24
1.65435E-01 8.59268E-24
1.68690E-01 8.21879E-24
1.71970E-01 7.86447E-24
1.75276E-01 7.52852E-24
1.78606E-01 7.20982E-24
1.81961E-01 6.90730E-24
1.85340E-01 6.62001E-24
1.88743E-01 6.34709E-24
1.92169E-01 6.08766E-24
1.95619E-01 5.84093E-24
1.99092E-01 5.60619E-24
2.02589E-01 5.38275E-24
2.06107E-01 5.16999E-24
2.09649E-01 4.96728E-24
2.13212E-01 4.77408E-24
2.16797E-01 4.58987E-24
2.20404E-01 4.41416E-24
2.24032E-01 4.24648E-24
2.27680E-01 4.08641E-24
2.31350E-01 3.93354E-24
2.35040E-01 3.78749E-24
2.38751E-01 3.64790E-24
2.42481E-01 3.51445E-24
2.46231E-01 3.38680E-24
2.50000E-01 3.26468E-24
2.53788E-01 3.14779E-24
2.57595E-01 3.03588E-24
2.61421E-01 2.92870E-24
2.65264E-01 2.82600E-24
2.69126E-01 2.72758E-24
2.73005E-01 2.63323E-24
2.76901E-01 2.54274E-24
2.80814E-01 2.45593E-24
2.84744E-01 2.37263E-24
2.88691E-01 2.29268E-24
2.92653E-01 2.21590E-24
2.96632E-01 2.14216E-24
3.00625E-01 2.07132E-24
3.04634E-01 2.00324E-24
3.08658E-01 1.93780E-24
3.12697E-01 1.87487E-24
3.16749E-01 1.81434E-24
3.20816E-01 1.75612E-24
3.24896E-01 1.70008E-24
3.28990E-01 1.64615E-24
3.33097E-01 1.59422E-24
3.37216E-01 1.54420E-24
3.41348E-01 1.49603E-24
3.45492E-01 1.44961E-24
3.49647E-01 1.40488E-24
3.53814E-01 1.36175E-24
3.57992E-01 1.32017E-24
3.62181E-01 1.28007E-24
3.66381E-01 1.24138E-24
3.70590E-01 1.20406E-24
3.74810E-01 1.16803E-24
3.79039E-01 1.13326E-24
3.83277E-01 1.09969E-24
3.87524E-01 1.06726E-24
3.91780E-01 1.03595E-24
3.96044E-01 1.00569E-24
4.00316E-01 9.76455E-25
4.04596E-01 9.48198E-25
4.08882E-01 9.20882E-25
4.13176E-01 8.94471E-25
4.17476E-01 8.68929E-25
4.21783E-01 8.44224E-25
4.26095E-01 8.20320E-25
4.30413E-01 7.97189E-25
4.34737E-01 7.74804E-25
4.39065E-01 7.53136E-25
4.43398E-01 7.32158E-25
4.47736E-01 7.11844E-25
4.52077E-01 6.92171E-25
4.56422E-01 6.73114E-25
4.60770E-01 6.54652E-25
4.65122E-01 6.36762E-25
4.69476E-01 6.19424E-25
4.73832E-01 6.02619E-25
4.78190E-01 5.86327E-25
4.82550E-01 5.70530E-25
4.86912E-01 5.55210E-25
4.91274E-01 5.40351E-25
4.95637E-01 5.25938E-25
5.00000E-01 5.11953E-25
5.04363E-01 4.98383E-25
5.08726E-01 4.85213E-25
5.13088E-01 4.72430E-25
5.17450E-01 4.60021E-25
5.21810E-01 4.47972E-25
5.26168E-01 4.36271E-25
5.30524E-01 4.24908E-25
5.34878E-01 4.13871E-25
5.39230E-01 4.03149E-25
5.43578E-01 3.92731E-25
5.47923E-01 3.82608E-25
5.52264E-01 3.72769E-25
5.56602E-01 3.63207E-25
5.60935E-01 3.53911E-25
5.65263E-01 3.44874E-25
5.69587E-01 3.36086E-25
5.73905E-01 3.27540E-25
5.78217E-01 3.19229E-25
5.82524E-01 3.11145E-25
5.86824E-01 3.03280E-25
5.91118E-01 2.95629E-25
5.95404E-01 2.88183E-25
5.99684E-01 2.80938E-25
6.03956E-01 2.73886E-25
6.08220E-01 2.67022E-25
6.12476E-01 2.60340E-25
6.16723E-01 2.53835E-25
6.20961E-01 2.47501E-25
6.25190E-01 2.41332E-25
6.29410E-01 2.35325E-25
6.33619E-01 2.29474E-25
6.37819E-01 2.23775E-25
6.42008E-01 2.18223E-25
6.46186E-01 2.12813E-25
6.50353E-01 2.07542E-25
6.54508E-01 2.02406E-25
6.58652E-01 1.97400E-25
6.62784E-01 1.92521E-25
6.66903E-01 1.87766E-25
6.71010E-01 1.83130E-25
6.75104E-01 1.78610E-25
6.79184E-01 1.74203E-25
6.83251E-01 1.69906E-25
6.87303E-01 1.65716E-25
6.91342E-01 1.61629E-25
6.95366E-01 1.57643E-25
6.99375E-01 1.53755E-25
7.03368E-01 1.49962E-25
7.07347E-01 1.46262E-25
7.11309E-01 1.42652E-25
7.15256E-01 1.39130E-25
7.19186E-01 1.35693E-25
7.23099E-01 1.32338E-25
7.26995E-01 1.29065E-25
7.30874E-01 1.25870E-25
7.34736E-01 1.22751E-25
7.38579E-01 1.19707E-25
7.42405E-01 1.16735E-25
7.46212E-01 1.13834E-25
7.50000E-01 1.11001E-25
7.53769E-01 1.08235E-25
7.57519E-01 1.05535E-25
7.61249E-01 1.02897E-25
7.64960E-01 1.00322E-25
7.68650E-01 9.78067E-26
7.72320E-01 9.53501E-26
7.75968E-01 9.29507E-26
7.79596E-01 9.06069E-26
7.83203E-01 8.83175E-26
7.86788E-01 8.60810E-26
7.90351E-01 8.38961E-26
7.93893E-01 8.17615E-26
7.97411E-01 7.96760E-26
8.00908E-01 7.76383E-26
8.04381E-01 7.56474E-26
8.07831E-01 7.37019E-26
8.11257E-01 7.18010E-26
8.14660E-01 6.99433E-26
8.18039E-01 6.81280E-26
8.21394E-01 6.63539E-26
8.24724E-01 6.46202E-26
8.28030E-01 6.29258E-26
8.31310E-01 6.12698E-26
8.34565E-01 5.96513E-26
8.37795E-01 5.80694E-26
8.40999E-01 5.65233E-26
8.44177E-01 5.50121E-26
8.47329E-01 5.35351E-26
8.50455E-01 5.20914E-26
8.53553E-01 5.06803E-26
8.56625E-01 4.93011E-26
8.59670E-01 4.79529E-26
8.62687E-01 4.66352E-26
8.65677E-01 4.53472E-26
8.68639E-01 4.40884E-26
8.71572E-01 4.28579E-26
8.74478E-01 4.16552E-26
8.77355E-01 4.04798E-26
8.80203E-01 3.93310E-26
8.83022E-01 3.82082E-26
8.85812E-01 3.71108E-26
8.88573E-01 3.60384E-26
8.91304E-01 3.49904E-26
8.94005E-01 3.39663E-26
8.96677E-01 3.29656E-26
8.99318E-01 3.19878E-26
9.01928E-01 3.10324E-26
9.04508E-01 3.00990E-26
9.07058E-01 2.91871E-26
9.09576E-01 2.82962E-26
9.12063E-01 2.74261E-26
9.14519E-01 2.65762E-26
9.16943E-01 2.57461E-26
9.19335E-01 2.49355E-26
9.21696E-01 2.41440E-26
9.24024E-01 2.33712E-26
9.26320E-01 2.26168E-26
9.28584E-01 2.18804E-26
9.30815E-01 2.11616E-26
9.33013E-01 2.04602E-26
9.35178E-01 1.97758E-26
9.37310E-01 1.91082E-26
9.39409E-01 1.84569E-26
9.41474E-01 1.78218E-26
9.43505E-01 1.72025E-26
9.45503E-01 1.65988E-26
9.47467E-01 1.60103E-26
9.49397E-01 1.54369E-26
9.51293E-01 1.48783E-26
9.53154E-01 1.43342E-26
9.54981E-01 1.38044E-26
9.56773E-01 1.32886E-26
9.58530E-01 1.27867E-26
9.60252E-01 1.22984E-26
9.61940E-01 1.18235E-26
9.63592E-01 1.13618E-26
9.65209E-01 1.09131E-26
9.66790E-01 1.04772E-26
9.68336E-01 1.00540E-26
9.69846E-01 9.64315E-27
9.71321E-01 9.24460E-27
9.72759E-01 8.85815E-27
9.74162E-01 8.48364E-27
9.75528E-01 8.12090E-27
9.76858E-01 7.76979E-27
9.78152E-01 7.43015E-27
9.79410E-01 7.10185E-27
9.80631E-01 6.78474E-27
9.81815E-01 6.47870E-27
9.82963E-01 6.18360E-27
9.84074E-01 5.89931E-27
9.85148E-01 5.62572E-27
9.86185E-01 5.36271E-27
9.87185E-01 5.11018E-27
9.88148E-01 4.86802E-27
9.89074E-01 4.63613E-27
9.89962E-01 4.41442E-27
9.90814E-01 4.20279E-27
9.91627E-01 4.00117E-27
9.92404E-01 3.80946E-27
9.93143E-01 3.62759E-27
9.93844E-01 3.45548E-27
9.94508E-01 3.29307E-27
9.95134E-01 3.14029E-27
9.95722E-01 2.99707E-27
9.96273E-01 2.86336E-27
9.96786E-01 2.73911E-27
9.97261E-01 2.62426E-27
9.97698E-01 2.51877E-27
9.98097E-01 2.42259E-27
9.98459E-01 2.33569E-27
9.98782E-01 2.25803E-27
9.99067E-01 2.18958E-27
9.99315E-01 2.13031E-27
9.99524E-01 2.08020E-27
9.99695E-01 2.03923E-27
9.99829E-01 2.00738E-27
9.99924E-01 1.98464E-27
9.99981E-01 1.97100E-27
1.00000E+00 1.96645E-27
