 #
 # Subroutine ELSEPA. Elastic scattering of electrons and positrons
 #                    by neutral atoms and positive ions
 #
 # Projectile: positron
 # Kinetic energy = 5.00000E+07 eV = 1.83747E+06 a.u.
 #
 # WARNING: High-energy factorization with free-atom DF screening.
 #          Absorption, polarization and exchange corrections are
 #          switched off.
 #          Phase shifts are calculated for the bare nucleus.
 #          Scattering amplitudes are not evaluated.
 #
 # Element: Sm,  Z =  62,  atomic weight = 1.50360E+02 g/mol
 #
 # Nuclear model: Fermi distribution
 #                Average radius = 5.68977E-13 cm
 #                Skin thickness = 5.46000E-14 cm
 #
 # Number of electrons = 62
 #
 # Total elastic cross section = 7.22199E-18 cm**2 = 2.57902E-01 a0**2
 # 1st transport cross section = 2.68968E-24 cm**2 = 9.60503E-08 a0**2
 # 2nd transport cross section = 7.89960E-24 cm**2 = 2.82100E-07 a0**2
 #
 #
 # Differential cross section:                       MU=(1-COS(THETA))/2
 #
 #  THETA        MU          DCS          DCS        Sherman      error
 #  (deg)                 (cm**2/sr)   (a0**2/sr)    function
 #----------------------------------------------------------------------
0.00000E+00 2.37231E-10
7.61557E-13 2.36918E-10
1.18994E-12 2.36743E-10
1.71346E-12 2.36529E-10
2.33225E-12 2.36277E-10
3.04617E-12 2.35987E-10
3.85530E-12 2.35658E-10
4.75964E-12 2.35292E-10
5.75917E-12 2.34889E-10
6.85391E-12 2.34448E-10
8.04379E-12 2.33971E-10
9.32893E-12 2.33457E-10
1.07092E-11 2.32907E-10
1.21847E-11 2.32322E-10
1.37554E-11 2.31702E-10
1.54213E-11 2.31047E-10
1.71823E-11 2.30359E-10
1.90386E-11 2.29636E-10
2.09900E-11 2.28881E-10
2.30367E-11 2.28093E-10
2.51785E-11 2.27273E-10
2.74156E-11 2.26422E-10
2.97478E-11 2.25541E-10
3.21752E-11 2.24629E-10
3.46979E-11 2.23689E-10
3.73157E-11 2.22719E-10
4.00286E-11 2.21722E-10
4.28368E-11 2.20698E-10
4.57402E-11 2.19647E-10
4.87388E-11 2.18571E-10
5.18325E-11 2.17469E-10
5.50215E-11 2.16343E-10
5.83057E-11 2.15194E-10
6.16850E-11 2.14022E-10
6.51595E-11 2.12828E-10
6.87293E-11 2.11613E-10
7.23943E-11 2.10378E-10
7.61544E-11 2.09124E-10
1.18991E-10 1.95720E-10
1.71347E-10 1.81193E-10
2.33223E-10 1.66280E-10
3.04617E-10 1.51572E-10
3.85531E-10 1.37514E-10
4.75965E-10 1.24401E-10
5.75917E-10 1.12401E-10
6.85389E-10 1.01577E-10
8.04380E-10 9.19290E-11
9.32891E-10 8.33900E-11
1.07092E-09 7.58486E-11
1.21847E-09 6.92004E-11
1.37554E-09 6.33393E-11
1.54213E-09 5.81639E-11
1.71823E-09 5.35813E-11
1.90386E-09 4.95089E-11
2.09900E-09 4.58747E-11
2.30367E-09 4.26165E-11
2.51785E-09 3.96818E-11
2.74156E-09 3.70261E-11
2.97478E-09 3.46119E-11
3.21752E-09 3.24053E-11
3.46978E-09 3.03820E-11
3.73156E-09 2.85206E-11
4.00286E-09 2.68031E-11
4.28368E-09 2.52140E-11
4.57402E-09 2.37403E-11
4.87388E-09 2.23708E-11
5.18326E-09 2.10958E-11
5.50215E-09 1.99072E-11
5.83057E-09 1.87975E-11
6.16850E-09 1.77604E-11
6.51596E-09 1.67901E-11
6.87293E-09 1.58812E-11
7.23942E-09 1.50284E-11
7.61544E-09 1.42291E-11
1.18991E-08 8.38416E-12
1.71347E-08 5.29063E-12
2.33223E-08 3.49957E-12
3.04617E-08 2.40770E-12
3.85531E-08 1.70846E-12
4.75965E-08 1.24193E-12
5.75917E-08 9.20805E-13
6.85389E-08 6.94602E-13
8.04380E-08 5.32199E-13
9.32891E-08 4.13971E-13
1.07092E-07 3.26854E-13
1.21847E-07 2.61715E-13
1.37554E-07 2.12305E-13
1.54213E-07 1.74293E-13
1.71823E-07 1.44646E-13
1.90386E-07 1.21217E-13
2.09900E-07 1.02485E-13
2.30367E-07 8.73241E-14
2.51785E-07 7.48750E-14
2.74156E-07 6.46053E-14
2.97478E-07 5.60626E-14
3.21752E-07 4.88925E-14
3.46978E-07 4.28347E-14
3.73156E-07 3.76826E-14
4.00286E-07 3.32744E-14
4.28368E-07 2.94831E-14
4.57402E-07 2.62080E-14
4.87388E-07 2.33680E-14
5.18325E-07 2.08970E-14
5.50215E-07 1.87403E-14
5.83057E-07 1.68521E-14
6.16850E-07 1.51941E-14
6.51596E-07 1.37336E-14
6.87293E-07 1.24430E-14
7.23942E-07 1.12988E-14
7.61543E-07 1.02823E-14
1.18991E-06 4.44336E-15
1.71347E-06 2.22716E-15
2.33223E-06 1.23785E-15
3.04617E-06 7.41980E-16
3.85531E-06 4.71313E-16
4.75964E-06 3.13428E-16
5.75916E-06 2.16319E-16
6.85388E-06 1.54013E-16
8.04378E-06 1.12575E-16
9.32888E-06 8.41595E-17
1.07092E-05 6.41602E-17
1.21846E-05 4.97602E-17
1.37553E-05 3.91805E-17
1.54212E-05 3.12678E-17
1.71822E-05 2.52556E-17
1.90385E-05 2.06131E-17
2.09899E-05 1.70046E-17
2.30365E-05 1.41506E-17
2.51783E-05 1.18687E-17
2.74153E-05 1.00266E-17
2.97475E-05 8.52747E-18
3.21749E-05 7.29824E-18
3.46974E-05 6.28315E-18
3.73152E-05 5.43914E-18
4.00281E-05 4.73265E-18
4.28362E-05 4.13743E-18
4.57395E-05 3.63285E-18
4.87380E-05 3.20271E-18
5.18317E-05 2.83417E-18
5.50205E-05 2.51697E-18
5.83045E-05 2.24285E-18
6.16838E-05 2.00503E-18
6.51582E-05 1.79795E-18
6.87277E-05 1.61696E-18
7.23925E-05 1.45820E-18
7.61524E-05 1.31854E-18
9.21439E-05 9.02016E-19
1.09658E-04 6.37567E-19
1.28695E-04 4.63272E-19
1.49255E-04 3.44583E-19
1.71338E-04 2.61564E-19
1.94942E-04 2.02075E-19
2.20070E-04 1.58560E-19
2.46720E-04 1.26140E-19
2.74892E-04 1.01587E-19
3.04586E-04 8.27222E-20
3.35803E-04 6.80335E-20
3.68542E-04 5.64612E-20
4.02802E-04 4.72448E-20
4.38585E-04 3.98316E-20
4.75889E-04 3.38151E-20
5.14715E-04 2.88911E-20
5.55063E-04 2.48303E-20
5.96931E-04 2.14573E-20
6.40321E-04 1.86372E-20
6.85233E-04 1.62647E-20
7.31665E-04 1.42574E-20
7.79618E-04 1.25498E-20
8.29092E-04 1.10899E-20
8.80086E-04 9.83581E-21
9.32601E-04 8.75374E-21
9.86636E-04 7.81615E-21
1.04219E-03 7.00054E-21
1.09927E-03 6.28836E-21
1.15786E-03 5.66427E-21
1.21797E-03 5.11554E-21
1.27961E-03 4.63153E-21
1.34276E-03 4.20328E-21
1.40743E-03 3.82328E-21
1.47362E-03 3.48517E-21
1.54133E-03 3.18352E-21
1.61056E-03 2.91371E-21
1.68131E-03 2.67182E-21
1.75357E-03 2.45445E-21
1.82735E-03 2.25867E-21
1.90265E-03 2.08197E-21
1.97947E-03 1.92216E-21
2.05780E-03 1.77736E-21
2.13765E-03 1.64588E-21
2.21902E-03 1.52631E-21
2.30190E-03 1.41736E-21
2.38630E-03 1.31793E-21
2.47222E-03 1.22704E-21
2.55965E-03 1.14382E-21
2.64859E-03 1.06751E-21
2.73905E-03 9.97439E-22
2.83103E-03 9.33001E-22
2.92452E-03 8.73665E-22
3.01952E-03 8.18952E-22
3.11604E-03 7.68437E-22
3.21407E-03 7.21744E-22
3.31362E-03 6.78529E-22
3.41468E-03 6.38485E-22
3.51725E-03 6.01341E-22
3.62133E-03 5.66848E-22
3.72692E-03 5.34780E-22
3.83403E-03 5.04938E-22
3.94265E-03 4.77141E-22
4.05278E-03 4.51219E-22
4.16442E-03 4.27027E-22
4.27757E-03 4.04427E-22
4.39223E-03 3.83294E-22
4.50840E-03 3.63517E-22
4.62608E-03 3.44993E-22
4.74527E-03 3.27627E-22
4.86597E-03 3.11335E-22
4.98817E-03 2.96038E-22
5.11188E-03 2.81663E-22
5.23711E-03 2.68146E-22
5.36383E-03 2.55425E-22
5.49207E-03 2.43446E-22
5.62181E-03 2.32156E-22
5.75306E-03 2.21510E-22
5.88581E-03 2.11463E-22
6.02007E-03 2.01976E-22
6.15583E-03 1.93012E-22
6.29310E-03 1.84537E-22
6.43187E-03 1.76518E-22
6.57214E-03 1.68928E-22
6.71392E-03 1.61739E-22
6.85720E-03 1.54925E-22
7.00198E-03 1.48465E-22
7.14827E-03 1.42335E-22
7.29605E-03 1.36516E-22
7.44534E-03 1.30989E-22
7.59612E-03 1.25738E-22
7.97965E-03 1.13708E-22
8.37255E-03 1.03073E-22
8.77480E-03 9.36443E-23
9.18641E-03 8.52619E-23
9.60736E-03 7.77889E-23
1.00376E-02 7.11104E-23
1.04773E-02 6.51277E-23
1.09262E-02 5.97560E-23
1.13844E-02 5.49221E-23
1.18520E-02 5.05630E-23
1.23288E-02 4.66240E-23
1.28150E-02 4.30576E-23
1.33104E-02 3.98226E-23
1.38150E-02 3.68828E-23
1.43290E-02 3.42065E-23
1.48521E-02 3.17662E-23
1.53845E-02 2.95373E-23
1.59262E-02 2.74984E-23
1.64770E-02 2.56305E-23
1.70371E-02 2.39167E-23
1.76063E-02 2.23420E-23
1.81848E-02 2.08933E-23
1.87724E-02 1.95587E-23
1.93692E-02 1.83277E-23
1.99751E-02 1.71907E-23
2.05901E-02 1.61394E-23
2.12143E-02 1.51661E-23
2.18476E-02 1.42641E-23
2.24900E-02 1.34273E-23
2.31415E-02 1.26500E-23
2.38021E-02 1.19273E-23
2.44717E-02 1.12548E-23
2.51504E-02 1.06282E-23
2.58382E-02 1.00440E-23
2.65349E-02 9.49873E-24
2.72407E-02 8.98936E-24
2.79555E-02 8.51311E-24
2.86793E-02 8.06746E-24
2.94120E-02 7.65009E-24
3.01537E-02 7.25889E-24
3.09043E-02 6.89193E-24
3.16639E-02 6.54745E-24
3.24324E-02 6.22383E-24
3.32098E-02 5.91958E-24
3.39961E-02 5.63333E-24
3.47912E-02 5.36385E-24
3.55952E-02 5.10997E-24
3.64081E-02 4.87063E-24
3.72297E-02 4.64485E-24
3.80602E-02 4.43173E-24
3.88995E-02 4.23043E-24
3.97476E-02 4.04019E-24
4.06044E-02 3.86029E-24
4.14700E-02 3.69007E-24
4.23443E-02 3.52892E-24
4.32273E-02 3.37627E-24
4.41190E-02 3.23159E-24
4.50194E-02 3.09439E-24
4.59284E-02 2.96422E-24
4.68461E-02 2.84066E-24
4.87074E-02 2.61181E-24
5.06030E-02 2.40500E-24
5.25328E-02 2.21775E-24
5.44967E-02 2.04792E-24
5.64946E-02 1.89361E-24
5.85262E-02 1.75318E-24
6.05914E-02 1.62516E-24
6.26901E-02 1.50830E-24
6.48222E-02 1.40144E-24
6.69873E-02 1.30361E-24
6.91854E-02 1.21390E-24
7.14163E-02 1.13154E-24
7.36799E-02 1.05582E-24
7.59760E-02 9.86124E-25
7.83043E-02 9.21893E-25
8.06647E-02 8.62629E-25
8.30571E-02 8.07885E-25
8.54812E-02 7.57261E-25
8.79369E-02 7.10396E-25
9.04240E-02 6.66966E-25
9.29422E-02 6.26678E-25
9.54915E-02 5.89269E-25
9.80716E-02 5.54500E-25
1.00682E-01 5.22154E-25
1.03323E-01 4.92036E-25
1.05995E-01 4.63967E-25
1.08696E-01 4.37787E-25
1.11427E-01 4.13347E-25
1.14188E-01 3.90513E-25
1.16978E-01 3.69164E-25
1.19797E-01 3.49187E-25
1.22645E-01 3.30480E-25
1.25522E-01 3.12950E-25
1.28428E-01 2.96511E-25
1.31361E-01 2.81085E-25
1.34323E-01 2.66599E-25
1.37313E-01 2.52988E-25
1.40330E-01 2.40189E-25
1.43375E-01 2.28148E-25
1.46447E-01 2.16812E-25
1.49545E-01 2.06133E-25
1.52671E-01 1.96069E-25
1.55823E-01 1.86577E-25
1.59001E-01 1.77620E-25
1.62205E-01 1.69164E-25
1.65435E-01 1.61176E-25
1.68690E-01 1.53627E-25
1.71970E-01 1.46489E-25
1.75276E-01 1.39735E-25
1.78606E-01 1.33343E-25
1.81961E-01 1.27289E-25
1.85340E-01 1.21554E-25
1.88743E-01 1.16118E-25
1.92169E-01 1.10963E-25
1.95619E-01 1.06072E-25
1.99092E-01 1.01431E-25
2.02589E-01 9.70235E-26
2.06107E-01 9.28369E-26
2.09649E-01 8.88585E-26
2.13212E-01 8.50763E-26
2.16797E-01 8.14793E-26
2.20404E-01 7.80570E-26
2.24032E-01 7.47999E-26
2.27680E-01 7.16987E-26
2.31350E-01 6.87450E-26
2.35040E-01 6.59307E-26
2.38751E-01 6.32483E-26
2.42481E-01 6.06908E-26
2.46231E-01 5.82515E-26
2.50000E-01 5.59242E-26
2.53788E-01 5.37030E-26
2.57595E-01 5.15825E-26
2.61421E-01 4.95574E-26
2.65264E-01 4.76228E-26
2.69126E-01 4.57741E-26
2.73005E-01 4.40071E-26
2.76901E-01 4.23175E-26
2.80814E-01 4.07016E-26
2.84744E-01 3.91557E-26
2.88691E-01 3.76763E-26
2.92653E-01 3.62602E-26
2.96632E-01 3.49044E-26
3.00625E-01 3.36059E-26
3.04634E-01 3.23620E-26
3.08658E-01 3.11700E-26
3.12697E-01 3.00276E-26
3.16749E-01 2.89324E-26
3.20816E-01 2.78821E-26
3.24896E-01 2.68748E-26
3.28990E-01 2.59084E-26
3.33097E-01 2.49810E-26
3.37216E-01 2.40909E-26
3.41348E-01 2.32364E-26
3.45492E-01 2.24158E-26
3.49647E-01 2.16277E-26
3.53814E-01 2.08707E-26
3.57992E-01 2.01432E-26
3.62181E-01 1.94441E-26
3.66381E-01 1.87720E-26
3.70590E-01 1.81259E-26
3.74810E-01 1.75045E-26
3.79039E-01 1.69068E-26
3.83277E-01 1.63319E-26
3.87524E-01 1.57787E-26
3.91780E-01 1.52463E-26
3.96044E-01 1.47338E-26
4.00316E-01 1.42404E-26
4.04596E-01 1.37654E-26
4.08882E-01 1.33078E-26
4.13176E-01 1.28671E-26
4.17476E-01 1.24425E-26
4.21783E-01 1.20334E-26
4.26095E-01 1.16391E-26
4.30413E-01 1.12590E-26
4.34737E-01 1.08926E-26
4.39065E-01 1.05393E-26
4.43398E-01 1.01986E-26
4.47736E-01 9.87000E-27
4.52077E-01 9.55300E-27
4.56422E-01 9.24715E-27
4.60770E-01 8.95202E-27
4.65122E-01 8.66718E-27
4.69476E-01 8.39225E-27
4.73832E-01 8.12683E-27
4.78190E-01 7.87057E-27
4.82550E-01 7.62310E-27
4.86912E-01 7.38410E-27
4.91274E-01 7.15324E-27
4.95637E-01 6.93021E-27
5.00000E-01 6.71473E-27
5.04363E-01 6.50650E-27
5.08726E-01 6.30527E-27
5.13088E-01 6.11075E-27
5.17450E-01 5.92272E-27
5.21810E-01 5.74093E-27
5.26168E-01 5.56515E-27
5.30524E-01 5.39515E-27
5.34878E-01 5.23074E-27
5.39230E-01 5.07171E-27
5.43578E-01 4.91786E-27
5.47923E-01 4.76901E-27
5.52264E-01 4.62498E-27
5.56602E-01 4.48559E-27
5.60935E-01 4.35068E-27
5.65263E-01 4.22010E-27
5.69587E-01 4.09368E-27
5.73905E-01 3.97129E-27
5.78217E-01 3.85278E-27
5.82524E-01 3.73802E-27
5.86824E-01 3.62688E-27
5.91118E-01 3.51923E-27
5.95404E-01 3.41495E-27
5.99684E-01 3.31392E-27
6.03956E-01 3.21604E-27
6.08220E-01 3.12119E-27
6.12476E-01 3.02928E-27
6.16723E-01 2.94020E-27
6.20961E-01 2.85386E-27
6.25190E-01 2.77017E-27
6.29410E-01 2.68903E-27
6.33619E-01 2.61037E-27
6.37819E-01 2.53409E-27
6.42008E-01 2.46013E-27
6.46186E-01 2.38840E-27
6.50353E-01 2.31883E-27
6.54508E-01 2.25135E-27
6.58652E-01 2.18589E-27
6.62784E-01 2.12238E-27
6.66903E-01 2.06077E-27
6.71010E-01 2.00099E-27
6.75104E-01 1.94297E-27
6.79184E-01 1.88667E-27
6.83251E-01 1.83203E-27
6.87303E-01 1.77900E-27
6.91342E-01 1.72752E-27
6.95366E-01 1.67755E-27
6.99375E-01 1.62903E-27
7.03368E-01 1.58193E-27
7.07347E-01 1.53619E-27
7.11309E-01 1.49177E-27
7.15256E-01 1.44864E-27
7.19186E-01 1.40675E-27
7.23099E-01 1.36606E-27
7.26995E-01 1.32654E-27
7.30874E-01 1.28816E-27
7.34736E-01 1.25086E-27
7.38579E-01 1.21463E-27
7.42405E-01 1.17943E-27
7.46212E-01 1.14522E-27
7.50000E-01 1.11199E-27
7.53769E-01 1.07969E-27
7.57519E-01 1.04830E-27
7.61249E-01 1.01779E-27
7.64960E-01 9.88141E-28
7.68650E-01 9.59319E-28
7.72320E-01 9.31303E-28
7.75968E-01 9.04068E-28
7.79596E-01 8.77591E-28
7.83203E-01 8.51850E-28
7.86788E-01 8.26822E-28
7.90351E-01 8.02486E-28
7.93893E-01 7.78823E-28
7.97411E-01 7.55813E-28
8.00908E-01 7.33436E-28
8.04381E-01 7.11674E-28
8.07831E-01 6.90509E-28
8.11257E-01 6.69925E-28
8.14660E-01 6.49903E-28
8.18039E-01 6.30429E-28
8.21394E-01 6.11485E-28
8.24724E-01 5.93058E-28
8.28030E-01 5.75132E-28
8.31310E-01 5.57694E-28
8.34565E-01 5.40728E-28
8.37795E-01 5.24223E-28
8.40999E-01 5.08164E-28
8.44177E-01 4.92540E-28
8.47329E-01 4.77339E-28
8.50455E-01 4.62547E-28
8.53553E-01 4.48155E-28
8.56625E-01 4.34151E-28
8.59670E-01 4.20524E-28
8.62687E-01 4.07265E-28
8.65677E-01 3.94362E-28
8.68639E-01 3.81806E-28
8.71572E-01 3.69588E-28
8.74478E-01 3.57698E-28
8.77355E-01 3.46128E-28
8.80203E-01 3.34870E-28
8.83022E-01 3.23913E-28
8.85812E-01 3.13252E-28
8.88573E-01 3.02877E-28
8.91304E-01 2.92781E-28
8.94005E-01 2.82958E-28
8.96677E-01 2.73398E-28
8.99318E-01 2.64097E-28
9.01928E-01 2.55047E-28
9.04508E-01 2.46241E-28
9.07058E-01 2.37673E-28
9.09576E-01 2.29337E-28
9.12063E-01 2.21228E-28
9.14519E-01 2.13338E-28
9.16943E-01 2.05664E-28
9.19335E-01 1.98199E-28
9.21696E-01 1.90938E-28
9.24024E-01 1.83876E-28
9.26320E-01 1.77009E-28
9.28584E-01 1.70330E-28
9.30815E-01 1.63836E-28
9.33013E-01 1.57523E-28
9.35178E-01 1.51386E-28
9.37310E-01 1.45420E-28
9.39409E-01 1.39621E-28
9.41474E-01 1.33987E-28
9.43505E-01 1.28512E-28
9.45503E-01 1.23193E-28
9.47467E-01 1.18026E-28
9.49397E-01 1.13009E-28
9.51293E-01 1.08137E-28
9.53154E-01 1.03407E-28
9.54981E-01 9.88167E-29
9.56773E-01 9.43622E-29
9.58530E-01 9.00409E-29
9.60252E-01 8.58498E-29
9.61940E-01 8.17861E-29
9.63592E-01 7.78472E-29
9.65209E-01 7.40305E-29
9.66790E-01 7.03334E-29
9.68336E-01 6.67535E-29
9.69846E-01 6.32885E-29
9.71321E-01 5.99361E-29
9.72759E-01 5.66940E-29
9.74162E-01 5.35603E-29
9.75528E-01 5.05329E-29
9.76858E-01 4.76097E-29
9.78152E-01 4.47890E-29
9.79410E-01 4.20688E-29
9.80631E-01 3.94475E-29
9.81815E-01 3.69233E-29
9.82963E-01 3.44946E-29
9.84074E-01 3.21599E-29
9.85148E-01 2.99176E-29
9.86185E-01 2.77664E-29
9.87185E-01 2.57049E-29
9.88148E-01 2.37316E-29
9.89074E-01 2.18455E-29
9.89962E-01 2.00452E-29
9.90814E-01 1.83297E-29
9.91627E-01 1.66979E-29
9.92404E-01 1.51487E-29
9.93143E-01 1.36811E-29
9.93844E-01 1.22942E-29
9.94508E-01 1.09872E-29
9.95134E-01 9.75914E-30
9.95722E-01 8.60936E-30
9.96273E-01 7.53710E-30
9.96786E-01 6.54168E-30
9.97261E-01 5.62248E-30
9.97698E-01 4.77892E-30
9.98097E-01 4.01047E-30
9.98459E-01 3.31666E-30
9.98782E-01 2.69703E-30
9.99067E-01 2.15121E-30
9.99315E-01 1.67886E-30
9.99524E-01 1.27967E-30
9.99695E-01 9.53404E-31
9.99829E-01 6.99853E-31
9.99924E-01 5.18857E-31
9.99981E-01 4.10306E-31
1.00000E+00 3.74131E-31
