 #
 # Subroutine ELSEPA. Elastic scattering of electrons and positrons
 #                    by neutral atoms and positive ions
 #
 # Projectile: positron
 # Kinetic energy = 9.00000E+06 eV = 3.30744E+05 a.u.
 #
 # WARNING: High-energy factorization with free-atom DF screening.
 #          Absorption, polarization and exchange corrections are
 #          switched off.
 #          Phase shifts are calculated for the bare nucleus.
 #          Scattering amplitudes are not evaluated.
 #
 # Element: Sm,  Z =  62,  atomic weight = 1.50360E+02 g/mol
 #
 # Nuclear model: Fermi distribution
 #                Average radius = 5.68977E-13 cm
 #                Skin thickness = 5.46000E-14 cm
 #
 # Number of electrons = 62
 #
 # Total elastic cross section = 7.24229E-18 cm**2 = 2.58627E-01 a0**2
 # 1st transport cross section = 5.93250E-23 cm**2 = 2.11854E-06 a0**2
 # 2nd transport cross section = 1.71594E-22 cm**2 = 6.12774E-06 a0**2
 #
 #
 # Differential cross section:                       MU=(1-COS(THETA))/2
 #
 #  THETA        MU          DCS          DCS        Sherman      error
 #  (deg)                 (cm**2/sr)   (a0**2/sr)    function
 #----------------------------------------------------------------------
0.00000E+00 8.41109E-12
7.61557E-13 8.41069E-12
1.18994E-12 8.41046E-12
1.71346E-12 8.41019E-12
2.33225E-12 8.40987E-12
3.04617E-12 8.40950E-12
3.85530E-12 8.40908E-12
4.75964E-12 8.40861E-12
5.75917E-12 8.40809E-12
6.85391E-12 8.40753E-12
8.04379E-12 8.40691E-12
9.32893E-12 8.40625E-12
1.07092E-11 8.40554E-12
1.21847E-11 8.40478E-12
1.37554E-11 8.40397E-12
1.54213E-11 8.40311E-12
1.71823E-11 8.40221E-12
1.90386E-11 8.40125E-12
2.09900E-11 8.40025E-12
2.30367E-11 8.39920E-12
2.51785E-11 8.39810E-12
2.74156E-11 8.39695E-12
2.97478E-11 8.39575E-12
3.21752E-11 8.39451E-12
3.46979E-11 8.39321E-12
3.73157E-11 8.39187E-12
4.00286E-11 8.39048E-12
4.28368E-11 8.38904E-12
4.57402E-11 8.38755E-12
4.87388E-11 8.38602E-12
5.18325E-11 8.38443E-12
5.50215E-11 8.38280E-12
5.83057E-11 8.38112E-12
6.16850E-11 8.37940E-12
6.51595E-11 8.37762E-12
6.87293E-11 8.37580E-12
7.23943E-11 8.37393E-12
7.61544E-11 8.37201E-12
1.18991E-10 8.35020E-12
1.71347E-10 8.32369E-12
2.33223E-10 8.29253E-12
3.04617E-10 8.25683E-12
3.85531E-10 8.21668E-12
4.75965E-10 8.17220E-12
5.75917E-10 8.12348E-12
6.85389E-10 8.07069E-12
8.04380E-10 8.01395E-12
9.32891E-10 7.95341E-12
1.07092E-09 7.88923E-12
1.21847E-09 7.82157E-12
1.37554E-09 7.75061E-12
1.54213E-09 7.67650E-12
1.71823E-09 7.59944E-12
1.90386E-09 7.51962E-12
2.09900E-09 7.43721E-12
2.30367E-09 7.35239E-12
2.51785E-09 7.26536E-12
2.74156E-09 7.17711E-12
2.97478E-09 7.08681E-12
3.21752E-09 6.99448E-12
3.46978E-09 6.90030E-12
3.73156E-09 6.80442E-12
4.00286E-09 6.70728E-12
4.28368E-09 6.61101E-12
4.57402E-09 6.51352E-12
4.87388E-09 6.41494E-12
5.18326E-09 6.31542E-12
5.50215E-09 6.21511E-12
5.83057E-09 6.11513E-12
6.16850E-09 6.01664E-12
6.51596E-09 5.91772E-12
6.87293E-09 5.81851E-12
7.23942E-09 5.71911E-12
7.61544E-09 5.61964E-12
1.18991E-08 4.68441E-12
1.71347E-08 3.87361E-12
2.33223E-08 3.20768E-12
3.04617E-08 2.67812E-12
3.85531E-08 2.26055E-12
4.75965E-08 1.92984E-12
5.75917E-08 1.66539E-12
6.85389E-08 1.45076E-12
8.04380E-08 1.27341E-12
9.32891E-08 1.12468E-12
1.07092E-07 9.98219E-13
1.21847E-07 8.89170E-13
1.37554E-07 7.94578E-13
1.54213E-07 7.11981E-13
1.71823E-07 6.39358E-13
1.90386E-07 5.75239E-13
2.09900E-07 5.18608E-13
2.30367E-07 4.68472E-13
2.51785E-07 4.23892E-13
2.74156E-07 3.81662E-13
2.97478E-07 3.45113E-13
3.21752E-07 3.13678E-13
3.46978E-07 2.86501E-13
3.73156E-07 2.62886E-13
4.00286E-07 2.41897E-13
4.28368E-07 2.20791E-13
4.57402E-07 2.02327E-13
4.87388E-07 1.86106E-13
5.18325E-07 1.71798E-13
5.50215E-07 1.59129E-13
5.83057E-07 1.47421E-13
6.16850E-07 1.36164E-13
6.51596E-07 1.26138E-13
6.87293E-07 1.17179E-13
7.23942E-07 1.09150E-13
7.61543E-07 1.01933E-13
1.18991E-06 5.30756E-14
1.71347E-06 3.00346E-14
2.33223E-06 1.80738E-14
3.04617E-06 1.14638E-14
3.85531E-06 7.63613E-15
4.75964E-06 5.30835E-15
5.75916E-06 3.82295E-15
6.85388E-06 2.83159E-15
8.04378E-06 2.14479E-15
9.32888E-06 1.65632E-15
1.07092E-05 1.29941E-15
1.21846E-05 1.03240E-15
1.37553E-05 8.29716E-16
1.54212E-05 6.73843E-16
1.71822E-05 5.52550E-16
1.90385E-05 4.56963E-16
2.09899E-05 3.81391E-16
2.30365E-05 3.20682E-16
2.51783E-05 2.71453E-16
2.74153E-05 2.31129E-16
2.97475E-05 1.98174E-16
3.21749E-05 1.70860E-16
3.46974E-05 1.48109E-16
3.73152E-05 1.29087E-16
4.00281E-05 1.12987E-16
4.28362E-05 9.93915E-17
4.57395E-05 8.77338E-17
4.87380E-05 7.77718E-17
5.18317E-05 6.91681E-17
5.50205E-05 6.17242E-17
5.83045E-05 5.52622E-17
6.16838E-05 4.96151E-17
6.51582E-05 4.46889E-17
6.87277E-05 4.03437E-17
7.23925E-05 3.65269E-17
7.61524E-05 3.31450E-17
9.21439E-05 2.29751E-17
1.09658E-04 1.64143E-17
1.28695E-04 1.20344E-17
1.49255E-04 9.01893E-18
1.71338E-04 6.88957E-18
1.94942E-04 5.35095E-18
2.20070E-04 4.21795E-18
2.46720E-04 3.36897E-18
2.74892E-04 2.72270E-18
3.04586E-04 2.22394E-18
3.35803E-04 1.83414E-18
3.68542E-04 1.52601E-18
4.02802E-04 1.27985E-18
4.38585E-04 1.08132E-18
4.75889E-04 9.19800E-19
5.14715E-04 7.87309E-19
5.55063E-04 6.77805E-19
5.96931E-04 5.86676E-19
6.40321E-04 5.10344E-19
6.85233E-04 4.46018E-19
7.31665E-04 3.91500E-19
7.79618E-04 3.45053E-19
8.29092E-04 3.05285E-19
8.80086E-04 2.71075E-19
9.32601E-04 2.41518E-19
9.86636E-04 2.15874E-19
1.04219E-03 1.93540E-19
1.09927E-03 1.74015E-19
1.15786E-03 1.56885E-19
1.21797E-03 1.41808E-19
1.27961E-03 1.28496E-19
1.34276E-03 1.16705E-19
1.40743E-03 1.06233E-19
1.47362E-03 9.69064E-20
1.54133E-03 8.85785E-20
1.61056E-03 8.11237E-20
1.68131E-03 7.44346E-20
1.75357E-03 6.84189E-20
1.82735E-03 6.29969E-20
1.90265E-03 5.80997E-20
1.97947E-03 5.36678E-20
2.05780E-03 4.96491E-20
2.13765E-03 4.59982E-20
2.21902E-03 4.26756E-20
2.30190E-03 3.96467E-20
2.38630E-03 3.68808E-20
2.47222E-03 3.43509E-20
2.55965E-03 3.20335E-20
2.64859E-03 2.99075E-20
2.73905E-03 2.79542E-20
2.83103E-03 2.61573E-20
2.92452E-03 2.45019E-20
3.01952E-03 2.29747E-20
3.11604E-03 2.15643E-20
3.21407E-03 2.02600E-20
3.31362E-03 1.90523E-20
3.41468E-03 1.79330E-20
3.51725E-03 1.68943E-20
3.62133E-03 1.59293E-20
3.72692E-03 1.50320E-20
3.83403E-03 1.41967E-20
3.94265E-03 1.34183E-20
4.05278E-03 1.26923E-20
4.16442E-03 1.20145E-20
4.27757E-03 1.13812E-20
4.39223E-03 1.07888E-20
4.50840E-03 1.02343E-20
4.62608E-03 9.71476E-21
4.74527E-03 9.22761E-21
4.86597E-03 8.77046E-21
4.98817E-03 8.34114E-21
5.11188E-03 7.93762E-21
5.23711E-03 7.55808E-21
5.36383E-03 7.20084E-21
5.49207E-03 6.86435E-21
5.62181E-03 6.54717E-21
5.75306E-03 6.24801E-21
5.88581E-03 5.96565E-21
6.02007E-03 5.69896E-21
6.15583E-03 5.44693E-21
6.29310E-03 5.20861E-21
6.43187E-03 4.98310E-21
6.57214E-03 4.76959E-21
6.71392E-03 4.56733E-21
6.85720E-03 4.37562E-21
7.00198E-03 4.19380E-21
7.14827E-03 4.02127E-21
7.29605E-03 3.85747E-21
7.44534E-03 3.70187E-21
7.59612E-03 3.55400E-21
7.97965E-03 3.21517E-21
8.37255E-03 2.91555E-21
8.77480E-03 2.64982E-21
9.18641E-03 2.41351E-21
9.60736E-03 2.20280E-21
1.00376E-02 2.01445E-21
1.04773E-02 1.84568E-21
1.09262E-02 1.69410E-21
1.13844E-02 1.55767E-21
1.18520E-02 1.43461E-21
1.23288E-02 1.32338E-21
1.28150E-02 1.22264E-21
1.33104E-02 1.13125E-21
1.38150E-02 1.04817E-21
1.43290E-02 9.72530E-22
1.48521E-02 9.03538E-22
1.53845E-02 8.40511E-22
1.59262E-02 7.82842E-22
1.64770E-02 7.29996E-22
1.70371E-02 6.81499E-22
1.76063E-02 6.36931E-22
1.81848E-02 5.95918E-22
1.87724E-02 5.58126E-22
1.93692E-02 5.23258E-22
1.99751E-02 4.91047E-22
2.05901E-02 4.61255E-22
2.12143E-02 4.33669E-22
2.18476E-02 4.08096E-22
2.24900E-02 3.84363E-22
2.31415E-02 3.62315E-22
2.38021E-02 3.41811E-22
2.44717E-02 3.22723E-22
2.51504E-02 3.04937E-22
2.58382E-02 2.88347E-22
2.65349E-02 2.72859E-22
2.72407E-02 2.58386E-22
2.79555E-02 2.44851E-22
2.86793E-02 2.32182E-22
2.94120E-02 2.20314E-22
3.01537E-02 2.09186E-22
3.09043E-02 1.98744E-22
3.16639E-02 1.88939E-22
3.24324E-02 1.79725E-22
3.32098E-02 1.71059E-22
3.39961E-02 1.62904E-22
3.47912E-02 1.55223E-22
3.55952E-02 1.47985E-22
3.64081E-02 1.41159E-22
3.72297E-02 1.34718E-22
3.80602E-02 1.28635E-22
3.88995E-02 1.22888E-22
3.97476E-02 1.17454E-22
4.06044E-02 1.12314E-22
4.14700E-02 1.07448E-22
4.23443E-02 1.02840E-22
4.32273E-02 9.84736E-23
4.41190E-02 9.43332E-23
4.50194E-02 9.04054E-23
4.59284E-02 8.66772E-23
4.68461E-02 8.31368E-23
4.87074E-02 7.65753E-23
5.06030E-02 7.06405E-23
5.25328E-02 6.52621E-23
5.44967E-02 6.03793E-23
5.64946E-02 5.59387E-23
5.85262E-02 5.18933E-23
6.05914E-02 4.82020E-23
6.26901E-02 4.48284E-23
6.48222E-02 4.17407E-23
6.69873E-02 3.89104E-23
6.91854E-02 3.63123E-23
7.14163E-02 3.39242E-23
7.36799E-02 3.17261E-23
7.59760E-02 2.97005E-23
7.83043E-02 2.78312E-23
8.06647E-02 2.61044E-23
8.30571E-02 2.45072E-23
8.54812E-02 2.30282E-23
8.79369E-02 2.16572E-23
9.04240E-02 2.03849E-23
9.29422E-02 1.92030E-23
9.54915E-02 1.81040E-23
9.80716E-02 1.70810E-23
1.00682E-01 1.61279E-23
1.03323E-01 1.52391E-23
1.05995E-01 1.44094E-23
1.08696E-01 1.36344E-23
1.11427E-01 1.29097E-23
1.14188E-01 1.22315E-23
1.16978E-01 1.15964E-23
1.19797E-01 1.10011E-23
1.22645E-01 1.04427E-23
1.25522E-01 9.91843E-24
1.28428E-01 9.42597E-24
1.31361E-01 8.96299E-24
1.34323E-01 8.52744E-24
1.37313E-01 8.11741E-24
1.40330E-01 7.73114E-24
1.43375E-01 7.36701E-24
1.46447E-01 7.02355E-24
1.49545E-01 6.69937E-24
1.52671E-01 6.39321E-24
1.55823E-01 6.10388E-24
1.59001E-01 5.83031E-24
1.62205E-01 5.57149E-24
1.65435E-01 5.32648E-24
1.68690E-01 5.09442E-24
1.71970E-01 4.87451E-24
1.75276E-01 4.66600E-24
1.78606E-01 4.46820E-24
1.81961E-01 4.28046E-24
1.85340E-01 4.10219E-24
1.88743E-01 3.93282E-24
1.92169E-01 3.77183E-24
1.95619E-01 3.61874E-24
1.99092E-01 3.47309E-24
2.02589E-01 3.33446E-24
2.06107E-01 3.20245E-24
2.09649E-01 3.07669E-24
2.13212E-01 2.95683E-24
2.16797E-01 2.84256E-24
2.20404E-01 2.73356E-24
2.24032E-01 2.62955E-24
2.27680E-01 2.53026E-24
2.31350E-01 2.43544E-24
2.35040E-01 2.34485E-24
2.38751E-01 2.25828E-24
2.42481E-01 2.17552E-24
2.46231E-01 2.09636E-24
2.50000E-01 2.02063E-24
2.53788E-01 1.94815E-24
2.57595E-01 1.87876E-24
2.61421E-01 1.81231E-24
2.65264E-01 1.74863E-24
2.69126E-01 1.68761E-24
2.73005E-01 1.62910E-24
2.76901E-01 1.57300E-24
2.80814E-01 1.51918E-24
2.84744E-01 1.46754E-24
2.88691E-01 1.41798E-24
2.92653E-01 1.37039E-24
2.96632E-01 1.32468E-24
3.00625E-01 1.28077E-24
3.04634E-01 1.23857E-24
3.08658E-01 1.19801E-24
3.12697E-01 1.15902E-24
3.16749E-01 1.12151E-24
3.20816E-01 1.08543E-24
3.24896E-01 1.05071E-24
3.28990E-01 1.01729E-24
3.33097E-01 9.85113E-25
3.37216E-01 9.54129E-25
3.41348E-01 9.24284E-25
3.45492E-01 8.95530E-25
3.49647E-01 8.67818E-25
3.53814E-01 8.41106E-25
3.57992E-01 8.15351E-25
3.62181E-01 7.90514E-25
3.66381E-01 7.66556E-25
3.70590E-01 7.43440E-25
3.74810E-01 7.21133E-25
3.79039E-01 6.99601E-25
3.83277E-01 6.78813E-25
3.87524E-01 6.58739E-25
3.91780E-01 6.39350E-25
3.96044E-01 6.20619E-25
4.00316E-01 6.02520E-25
4.04596E-01 5.85029E-25
4.08882E-01 5.68121E-25
4.13176E-01 5.51773E-25
4.17476E-01 5.35965E-25
4.21783E-01 5.20676E-25
4.26095E-01 5.05885E-25
4.30413E-01 4.91573E-25
4.34737E-01 4.77724E-25
4.39065E-01 4.64319E-25
4.43398E-01 4.51341E-25
4.47736E-01 4.38775E-25
4.52077E-01 4.26607E-25
4.56422E-01 4.14820E-25
4.60770E-01 4.03401E-25
4.65122E-01 3.92337E-25
4.69476E-01 3.81616E-25
4.73832E-01 3.71224E-25
4.78190E-01 3.61150E-25
4.82550E-01 3.51383E-25
4.86912E-01 3.41912E-25
4.91274E-01 3.32726E-25
4.95637E-01 3.23815E-25
5.00000E-01 3.15171E-25
5.04363E-01 3.06784E-25
5.08726E-01 2.98644E-25
5.13088E-01 2.90744E-25
5.17450E-01 2.83075E-25
5.21810E-01 2.75629E-25
5.26168E-01 2.68400E-25
5.30524E-01 2.61379E-25
5.34878E-01 2.54560E-25
5.39230E-01 2.47936E-25
5.43578E-01 2.41500E-25
5.47923E-01 2.35247E-25
5.52264E-01 2.29171E-25
5.56602E-01 2.23265E-25
5.60935E-01 2.17524E-25
5.65263E-01 2.11943E-25
5.69587E-01 2.06517E-25
5.73905E-01 2.01240E-25
5.78217E-01 1.96109E-25
5.82524E-01 1.91118E-25
5.86824E-01 1.86263E-25
5.91118E-01 1.81540E-25
5.95404E-01 1.76944E-25
5.99684E-01 1.72472E-25
6.03956E-01 1.68121E-25
6.08220E-01 1.63885E-25
6.12476E-01 1.59762E-25
6.16723E-01 1.55748E-25
6.20961E-01 1.51840E-25
6.25190E-01 1.48034E-25
6.29410E-01 1.44328E-25
6.33619E-01 1.40719E-25
6.37819E-01 1.37204E-25
6.42008E-01 1.33780E-25
6.46186E-01 1.30443E-25
6.50353E-01 1.27193E-25
6.54508E-01 1.24026E-25
6.58652E-01 1.20939E-25
6.62784E-01 1.17932E-25
6.66903E-01 1.15000E-25
6.71010E-01 1.12142E-25
6.75104E-01 1.09356E-25
6.79184E-01 1.06640E-25
6.83251E-01 1.03991E-25
6.87303E-01 1.01409E-25
6.91342E-01 9.88908E-26
6.95366E-01 9.64347E-26
6.99375E-01 9.40392E-26
7.03368E-01 9.17026E-26
7.07347E-01 8.94232E-26
7.11309E-01 8.71995E-26
7.15256E-01 8.50299E-26
7.19186E-01 8.29130E-26
7.23099E-01 8.08472E-26
7.26995E-01 7.88314E-26
7.30874E-01 7.68640E-26
7.34736E-01 7.49439E-26
7.38579E-01 7.30697E-26
7.42405E-01 7.12402E-26
7.46212E-01 6.94543E-26
7.50000E-01 6.77107E-26
7.53769E-01 6.60084E-26
7.57519E-01 6.43464E-26
7.61249E-01 6.27235E-26
7.64960E-01 6.11387E-26
7.68650E-01 5.95911E-26
7.72320E-01 5.80797E-26
7.75968E-01 5.66035E-26
7.79596E-01 5.51618E-26
7.83203E-01 5.37535E-26
7.86788E-01 5.23779E-26
7.90351E-01 5.10342E-26
7.93893E-01 4.97215E-26
7.97411E-01 4.84391E-26
8.00908E-01 4.71862E-26
8.04381E-01 4.59621E-26
8.07831E-01 4.47661E-26
8.11257E-01 4.35975E-26
8.14660E-01 4.24557E-26
8.18039E-01 4.13399E-26
8.21394E-01 4.02496E-26
8.24724E-01 3.91841E-26
8.28030E-01 3.81429E-26
8.31310E-01 3.71254E-26
8.34565E-01 3.61309E-26
8.37795E-01 3.51591E-26
8.40999E-01 3.42093E-26
8.44177E-01 3.32810E-26
8.47329E-01 3.23738E-26
8.50455E-01 3.14871E-26
8.53553E-01 3.06205E-26
8.56625E-01 2.97735E-26
8.59670E-01 2.89457E-26
8.62687E-01 2.81366E-26
8.65677E-01 2.73458E-26
8.68639E-01 2.65730E-26
8.71572E-01 2.58176E-26
8.74478E-01 2.50794E-26
8.77355E-01 2.43580E-26
8.80203E-01 2.36529E-26
8.83022E-01 2.29638E-26
8.85812E-01 2.22904E-26
8.88573E-01 2.16324E-26
8.91304E-01 2.09893E-26
8.94005E-01 2.03610E-26
8.96677E-01 1.97471E-26
8.99318E-01 1.91473E-26
9.01928E-01 1.85612E-26
9.04508E-01 1.79887E-26
9.07058E-01 1.74294E-26
9.09576E-01 1.68831E-26
9.12063E-01 1.63494E-26
9.14519E-01 1.58283E-26
9.16943E-01 1.53193E-26
9.19335E-01 1.48223E-26
9.21696E-01 1.43371E-26
9.24024E-01 1.38633E-26
9.26320E-01 1.34008E-26
9.28584E-01 1.29494E-26
9.30815E-01 1.25089E-26
9.33013E-01 1.20790E-26
9.35178E-01 1.16595E-26
9.37310E-01 1.12504E-26
9.39409E-01 1.08513E-26
9.41474E-01 1.04621E-26
9.43505E-01 1.00826E-26
9.45503E-01 9.71275E-27
9.47467E-01 9.35223E-27
9.49397E-01 9.00094E-27
9.51293E-01 8.65873E-27
9.53154E-01 8.32543E-27
9.54981E-01 8.00091E-27
9.56773E-01 7.68501E-27
9.58530E-01 7.37760E-27
9.60252E-01 7.07855E-27
9.61940E-01 6.78772E-27
9.63592E-01 6.50499E-27
9.65209E-01 6.23024E-27
9.66790E-01 5.96334E-27
9.68336E-01 5.70418E-27
9.69846E-01 5.45265E-27
9.71321E-01 5.20864E-27
9.72759E-01 4.97206E-27
9.74162E-01 4.74278E-27
9.75528E-01 4.52073E-27
9.76858E-01 4.30580E-27
9.78152E-01 4.09790E-27
9.79410E-01 3.89695E-27
9.80631E-01 3.70286E-27
9.81815E-01 3.51555E-27
9.82963E-01 3.33494E-27
9.84074E-01 3.16095E-27
9.85148E-01 2.99352E-27
9.86185E-01 2.83257E-27
9.87185E-01 2.67803E-27
9.88148E-01 2.52985E-27
9.89074E-01 2.38795E-27
9.89962E-01 2.25229E-27
9.90814E-01 2.12280E-27
9.91627E-01 1.99943E-27
9.92404E-01 1.88213E-27
9.93143E-01 1.77086E-27
9.93844E-01 1.66556E-27
9.94508E-01 1.56619E-27
9.95134E-01 1.47272E-27
9.95722E-01 1.38510E-27
9.96273E-01 1.30330E-27
9.96786E-01 1.22729E-27
9.97261E-01 1.15703E-27
9.97698E-01 1.09250E-27
9.98097E-01 1.03366E-27
9.98459E-01 9.80500E-28
9.98782E-01 9.32993E-28
9.99067E-01 8.91121E-28
9.99315E-01 8.54866E-28
9.99524E-01 8.24213E-28
9.99695E-01 7.99151E-28
9.99829E-01 7.79668E-28
9.99924E-01 7.65758E-28
9.99981E-01 7.57414E-28
1.00000E+00 7.54633E-28
