 #
 # Subroutine ELSEPA. Elastic scattering of electrons and positrons
 #                    by neutral atoms and positive ions
 #
 # Projectile: positron
 # Kinetic energy = 6.00000E+07 eV = 2.20496E+06 a.u.
 #
 # WARNING: High-energy factorization with free-atom DF screening.
 #          Absorption, polarization and exchange corrections are
 #          switched off.
 #          Phase shifts are calculated for the bare nucleus.
 #          Scattering amplitudes are not evaluated.
 #
 # Element: Sm,  Z =  62,  atomic weight = 1.50360E+02 g/mol
 #
 # Nuclear model: Fermi distribution
 #                Average radius = 5.68977E-13 cm
 #                Skin thickness = 5.46000E-14 cm
 #
 # Number of electrons = 62
 #
 # Total elastic cross section = 7.22296E-18 cm**2 = 2.57937E-01 a0**2
 # 1st transport cross section = 1.90672E-24 cm**2 = 6.80901E-08 a0**2
 # 2nd transport cross section = 5.61631E-24 cm**2 = 2.00562E-07 a0**2
 #
 #
 # Differential cross section:                       MU=(1-COS(THETA))/2
 #
 #  THETA        MU          DCS          DCS        Sherman      error
 #  (deg)                 (cm**2/sr)   (a0**2/sr)    function
 #----------------------------------------------------------------------
0.00000E+00 3.40462E-10
7.61557E-13 3.39818E-10
1.18994E-12 3.39458E-10
1.71346E-12 3.39018E-10
2.33225E-12 3.38500E-10
3.04617E-12 3.37904E-10
3.85530E-12 3.37231E-10
4.75964E-12 3.36481E-10
5.75917E-12 3.35655E-10
6.85391E-12 3.34755E-10
8.04379E-12 3.33781E-10
9.32893E-12 3.32734E-10
1.07092E-11 3.31616E-10
1.21847E-11 3.30428E-10
1.37554E-11 3.29171E-10
1.54213E-11 3.27846E-10
1.71823E-11 3.26455E-10
1.90386E-11 3.24999E-10
2.09900E-11 3.23481E-10
2.30367E-11 3.21901E-10
2.51785E-11 3.20261E-10
2.74156E-11 3.18563E-10
2.97478E-11 3.16809E-10
3.21752E-11 3.15000E-10
3.46979E-11 3.13139E-10
3.73157E-11 3.11226E-10
4.00286E-11 3.09264E-10
4.28368E-11 3.07256E-10
4.57402E-11 3.05202E-10
4.87388E-11 3.03105E-10
5.18325E-11 3.00967E-10
5.50215E-11 2.98789E-10
5.83057E-11 2.96574E-10
6.16850E-11 2.94323E-10
6.51595E-11 2.92056E-10
6.87293E-11 2.89761E-10
7.23943E-11 2.87431E-10
7.61544E-11 2.85067E-10
1.18991E-10 2.60252E-10
1.71347E-10 2.34620E-10
2.33223E-10 2.09595E-10
3.04617E-10 1.86166E-10
3.85531E-10 1.64907E-10
4.75965E-10 1.46068E-10
5.75917E-10 1.29657E-10
6.85389E-10 1.15458E-10
8.04380E-10 1.03236E-10
9.32891E-10 9.27301E-11
1.07092E-09 8.36847E-11
1.21847E-09 7.58676E-11
1.37554E-09 6.90765E-11
1.54213E-09 6.31399E-11
1.71823E-09 5.79155E-11
1.90386E-09 5.32848E-11
2.09900E-09 4.91516E-11
2.30367E-09 4.54417E-11
2.51785E-09 4.20940E-11
2.74156E-09 3.90589E-11
2.97478E-09 3.62960E-11
3.21752E-09 3.37722E-11
3.46978E-09 3.14600E-11
3.73156E-09 2.93363E-11
4.00286E-09 2.73819E-11
4.28368E-09 2.55767E-11
4.57402E-09 2.39097E-11
4.87388E-09 2.23694E-11
5.18326E-09 2.09449E-11
5.50215E-09 1.96262E-11
5.83057E-09 1.84046E-11
6.16850E-09 1.72722E-11
6.51596E-09 1.61589E-11
6.87293E-09 1.51237E-11
7.23942E-09 1.41858E-11
7.61544E-09 1.33342E-11
1.18991E-08 7.62630E-12
1.71347E-08 4.66889E-12
2.33223E-08 3.01764E-12
3.04617E-08 2.03061E-12
3.85531E-08 1.40903E-12
4.75965E-08 1.00251E-12
5.75917E-08 7.29395E-13
6.85389E-08 5.42647E-13
8.04380E-08 4.12222E-13
9.32891E-08 3.19240E-13
1.07092E-07 2.51596E-13
1.21847E-07 2.01404E-13
1.37554E-07 1.63454E-13
1.54213E-07 1.34303E-13
1.71823E-07 1.11419E-13
1.90386E-07 9.32676E-14
2.09900E-07 7.87090E-14
2.30367E-07 6.69054E-14
2.51785E-07 5.72344E-14
2.74156E-07 4.92365E-14
2.97478E-07 4.25701E-14
3.21752E-07 3.69770E-14
3.46978E-07 3.22589E-14
3.73156E-07 2.82600E-14
4.00286E-07 2.48556E-14
4.28368E-07 2.19432E-14
4.57402E-07 1.94420E-14
4.87388E-07 1.72849E-14
5.18325E-07 1.54167E-14
5.50215E-07 1.37926E-14
5.83057E-07 1.23755E-14
6.16850E-07 1.11353E-14
6.51596E-07 1.00425E-14
6.87293E-07 9.08204E-15
7.23942E-07 8.23733E-15
7.61543E-07 7.49087E-15
1.18991E-06 3.21719E-15
1.71347E-06 1.60544E-15
2.33223E-06 8.88564E-16
3.04617E-06 5.30550E-16
3.85531E-06 3.35748E-16
4.75964E-06 2.22560E-16
5.75916E-06 1.53229E-16
6.85388E-06 1.08881E-16
8.04378E-06 7.94620E-17
9.32888E-06 5.93355E-17
1.07092E-05 4.51950E-17
1.21846E-05 3.50268E-17
1.37553E-05 2.75640E-17
1.54212E-05 2.19873E-17
1.71822E-05 1.77525E-17
1.90385E-05 1.44843E-17
2.09899E-05 1.19450E-17
2.30365E-05 9.93731E-18
2.51783E-05 8.33247E-18
2.74153E-05 7.03744E-18
2.97475E-05 5.98371E-18
3.21749E-05 5.11987E-18
3.46974E-05 4.40670E-18
3.73152E-05 3.81387E-18
4.00281E-05 3.31773E-18
4.28362E-05 2.89981E-18
4.57395E-05 2.54562E-18
4.87380E-05 2.24374E-18
5.18317E-05 1.98515E-18
5.50205E-05 1.76263E-18
5.83045E-05 1.57037E-18
6.16838E-05 1.40360E-18
6.51582E-05 1.25841E-18
6.87277E-05 1.13155E-18
7.23925E-05 1.02028E-18
7.61524E-05 9.22451E-19
9.21439E-05 6.30708E-19
1.09658E-04 4.45596E-19
1.28695E-04 3.23656E-19
1.49255E-04 2.40661E-19
1.71338E-04 1.82630E-19
1.94942E-04 1.41062E-19
2.20070E-04 1.10664E-19
2.46720E-04 8.80237E-20
2.74892E-04 7.08806E-20
3.04586E-04 5.77112E-20
3.35803E-04 4.74590E-20
3.68542E-04 3.93831E-20
4.02802E-04 3.29519E-20
4.38585E-04 2.77797E-20
4.75889E-04 2.35824E-20
5.14715E-04 2.01475E-20
5.55063E-04 1.73149E-20
5.96931E-04 1.49623E-20
6.40321E-04 1.29954E-20
6.85233E-04 1.13408E-20
7.31665E-04 9.94095E-21
7.79618E-04 8.75016E-21
8.29092E-04 7.73211E-21
8.80086E-04 6.85764E-21
9.32601E-04 6.10312E-21
9.86636E-04 5.44936E-21
1.04219E-03 4.88067E-21
1.09927E-03 4.38410E-21
1.15786E-03 3.94896E-21
1.21797E-03 3.56638E-21
1.27961E-03 3.22891E-21
1.34276E-03 2.93033E-21
1.40743E-03 2.66540E-21
1.47362E-03 2.42966E-21
1.54133E-03 2.21935E-21
1.61056E-03 2.03125E-21
1.68131E-03 1.86261E-21
1.75357E-03 1.71105E-21
1.82735E-03 1.57457E-21
1.90265E-03 1.45137E-21
1.97947E-03 1.33996E-21
2.05780E-03 1.23901E-21
2.13765E-03 1.14735E-21
2.21902E-03 1.06398E-21
2.30190E-03 9.88029E-22
2.38630E-03 9.18707E-22
2.47222E-03 8.55340E-22
2.55965E-03 7.97323E-22
2.64859E-03 7.44122E-22
2.73905E-03 6.95272E-22
2.83103E-03 6.50346E-22
2.92452E-03 6.08979E-22
3.01952E-03 5.70834E-22
3.11604E-03 5.35618E-22
3.21407E-03 5.03065E-22
3.31362E-03 4.72936E-22
3.41468E-03 4.45020E-22
3.51725E-03 4.19124E-22
3.62133E-03 3.95075E-22
3.72692E-03 3.72719E-22
3.83403E-03 3.51915E-22
3.94265E-03 3.32535E-22
4.05278E-03 3.14464E-22
4.16442E-03 2.97598E-22
4.27757E-03 2.81841E-22
4.39223E-03 2.67109E-22
4.50840E-03 2.53321E-22
4.62608E-03 2.40407E-22
4.74527E-03 2.28300E-22
4.86597E-03 2.16942E-22
4.98817E-03 2.06278E-22
5.11188E-03 1.96257E-22
5.23711E-03 1.86833E-22
5.36383E-03 1.77965E-22
5.49207E-03 1.69614E-22
5.62181E-03 1.61744E-22
5.75306E-03 1.54322E-22
5.88581E-03 1.47318E-22
6.02007E-03 1.40705E-22
6.15583E-03 1.34456E-22
6.29310E-03 1.28548E-22
6.43187E-03 1.22958E-22
6.57214E-03 1.17667E-22
6.71392E-03 1.12654E-22
6.85720E-03 1.07904E-22
7.00198E-03 1.03400E-22
7.14827E-03 9.91266E-23
7.29605E-03 9.50700E-23
7.44534E-03 9.12172E-23
7.59612E-03 8.75561E-23
7.97965E-03 7.91695E-23
8.37255E-03 7.17559E-23
8.77480E-03 6.51832E-23
9.18641E-03 5.93400E-23
9.60736E-03 5.41315E-23
1.00376E-02 4.94772E-23
1.04773E-02 4.53079E-23
1.09262E-02 4.15646E-23
1.13844E-02 3.81962E-23
1.18520E-02 3.51588E-23
1.23288E-02 3.24143E-23
1.28150E-02 2.99296E-23
1.33104E-02 2.76758E-23
1.38150E-02 2.56278E-23
1.43290E-02 2.37636E-23
1.48521E-02 2.20638E-23
1.53845E-02 2.05115E-23
1.59262E-02 1.90915E-23
1.64770E-02 1.77907E-23
1.70371E-02 1.65973E-23
1.76063E-02 1.55010E-23
1.81848E-02 1.44924E-23
1.87724E-02 1.35634E-23
1.93692E-02 1.27065E-23
1.99751E-02 1.19151E-23
2.05901E-02 1.11835E-23
2.12143E-02 1.05063E-23
2.18476E-02 9.87870E-24
2.24900E-02 9.29650E-24
2.31415E-02 8.75583E-24
2.38021E-02 8.25321E-24
2.44717E-02 7.78549E-24
2.51504E-02 7.34982E-24
2.58382E-02 6.94364E-24
2.65349E-02 6.56459E-24
2.72407E-02 6.21056E-24
2.79555E-02 5.87959E-24
2.86793E-02 5.56993E-24
2.94120E-02 5.27996E-24
3.01537E-02 5.00822E-24
3.09043E-02 4.75336E-24
3.16639E-02 4.51415E-24
3.24324E-02 4.28945E-24
3.32098E-02 4.07825E-24
3.39961E-02 3.87958E-24
3.47912E-02 3.69258E-24
3.55952E-02 3.51643E-24
3.64081E-02 3.35041E-24
3.72297E-02 3.19382E-24
3.80602E-02 3.04604E-24
3.88995E-02 2.90649E-24
3.97476E-02 2.77463E-24
4.06044E-02 2.64996E-24
4.14700E-02 2.53202E-24
4.23443E-02 2.42039E-24
4.32273E-02 2.31467E-24
4.41190E-02 2.21450E-24
4.50194E-02 2.11952E-24
4.59284E-02 2.02944E-24
4.68461E-02 1.94394E-24
4.87074E-02 1.78565E-24
5.06030E-02 1.64268E-24
5.25328E-02 1.51329E-24
5.44967E-02 1.39600E-24
5.64946E-02 1.28949E-24
5.85262E-02 1.19260E-24
6.05914E-02 1.10434E-24
6.26901E-02 1.02381E-24
6.48222E-02 9.50220E-25
6.69873E-02 8.82883E-25
6.91854E-02 8.21181E-25
7.14163E-02 7.64567E-25
7.36799E-02 7.12555E-25
7.59760E-02 6.64712E-25
7.83043E-02 6.20651E-25
8.06647E-02 5.80025E-25
8.30571E-02 5.42525E-25
8.54812E-02 5.07873E-25
8.79369E-02 4.75818E-25
9.04240E-02 4.46136E-25
9.29422E-02 4.18623E-25
9.54915E-02 3.93096E-25
9.80716E-02 3.69390E-25
1.00682E-01 3.47354E-25
1.03323E-01 3.26854E-25
1.05995E-01 3.07765E-25
1.08696E-01 2.89976E-25
1.11427E-01 2.73384E-25
1.14188E-01 2.57898E-25
1.16978E-01 2.43431E-25
1.19797E-01 2.29907E-25
1.22645E-01 2.17255E-25
1.25522E-01 2.05410E-25
1.28428E-01 1.94314E-25
1.31361E-01 1.83912E-25
1.34323E-01 1.74153E-25
1.37313E-01 1.64994E-25
1.40330E-01 1.56390E-25
1.43375E-01 1.48304E-25
1.46447E-01 1.40700E-25
1.49545E-01 1.33544E-25
1.52671E-01 1.26808E-25
1.55823E-01 1.20462E-25
1.59001E-01 1.14481E-25
1.62205E-01 1.08841E-25
1.65435E-01 1.03519E-25
1.68690E-01 9.84953E-26
1.71970E-01 9.37507E-26
1.75276E-01 8.92675E-26
1.78606E-01 8.50292E-26
1.81961E-01 8.10206E-26
1.85340E-01 7.72276E-26
1.88743E-01 7.36370E-26
1.92169E-01 7.02364E-26
1.95619E-01 6.70145E-26
1.99092E-01 6.39606E-26
2.02589E-01 6.10648E-26
2.06107E-01 5.83177E-26
2.09649E-01 5.57108E-26
2.13212E-01 5.32359E-26
2.16797E-01 5.08854E-26
2.20404E-01 4.86523E-26
2.24032E-01 4.65299E-26
2.27680E-01 4.45121E-26
2.31350E-01 4.25930E-26
2.35040E-01 4.07672E-26
2.38751E-01 3.90295E-26
2.42481E-01 3.73752E-26
2.46231E-01 3.57997E-26
2.50000E-01 3.42988E-26
2.53788E-01 3.28686E-26
2.57595E-01 3.15053E-26
2.61421E-01 3.02053E-26
2.65264E-01 2.89655E-26
2.69126E-01 2.77825E-26
2.73005E-01 2.66537E-26
2.76901E-01 2.55760E-26
2.80814E-01 2.45470E-26
2.84744E-01 2.35642E-26
2.88691E-01 2.26253E-26
2.92653E-01 2.17280E-26
2.96632E-01 2.08703E-26
3.00625E-01 2.00503E-26
3.04634E-01 1.92661E-26
3.08658E-01 1.85159E-26
3.12697E-01 1.77982E-26
3.16749E-01 1.71113E-26
3.20816E-01 1.64538E-26
3.24896E-01 1.58242E-26
3.28990E-01 1.52213E-26
3.33097E-01 1.46438E-26
3.37216E-01 1.40905E-26
3.41348E-01 1.35603E-26
3.45492E-01 1.30520E-26
3.49647E-01 1.25648E-26
3.53814E-01 1.20976E-26
3.57992E-01 1.16495E-26
3.62181E-01 1.12197E-26
3.66381E-01 1.08073E-26
3.70590E-01 1.04116E-26
3.74810E-01 1.00317E-26
3.79039E-01 9.66706E-27
3.83277E-01 9.31693E-27
3.87524E-01 8.98068E-27
3.91780E-01 8.65772E-27
3.96044E-01 8.34745E-27
4.00316E-01 8.04933E-27
4.04596E-01 7.76283E-27
4.08882E-01 7.48746E-27
4.13176E-01 7.22273E-27
4.17476E-01 6.96821E-27
4.21783E-01 6.72344E-27
4.26095E-01 6.48803E-27
4.30413E-01 6.26157E-27
4.34737E-01 6.04370E-27
4.39065E-01 5.83406E-27
4.43398E-01 5.63231E-27
4.47736E-01 5.43811E-27
4.52077E-01 5.25117E-27
4.56422E-01 5.07117E-27
4.60770E-01 4.89785E-27
4.65122E-01 4.73093E-27
4.69476E-01 4.57015E-27
4.73832E-01 4.41526E-27
4.78190E-01 4.26603E-27
4.82550E-01 4.12224E-27
4.86912E-01 3.98366E-27
4.91274E-01 3.85008E-27
4.95637E-01 3.72132E-27
5.00000E-01 3.59719E-27
5.04363E-01 3.47749E-27
5.08726E-01 3.36206E-27
5.13088E-01 3.25074E-27
5.17450E-01 3.14335E-27
5.21810E-01 3.03976E-27
5.26168E-01 2.93982E-27
5.30524E-01 2.84338E-27
5.34878E-01 2.75032E-27
5.39230E-01 2.66050E-27
5.43578E-01 2.57380E-27
5.47923E-01 2.49010E-27
5.52264E-01 2.40930E-27
5.56602E-01 2.33128E-27
5.60935E-01 2.25593E-27
5.65263E-01 2.18317E-27
5.69587E-01 2.11289E-27
5.73905E-01 2.04500E-27
5.78217E-01 1.97941E-27
5.82524E-01 1.91605E-27
5.86824E-01 1.85482E-27
5.91118E-01 1.79564E-27
5.95404E-01 1.73846E-27
5.99684E-01 1.68319E-27
6.03956E-01 1.62976E-27
6.08220E-01 1.57810E-27
6.12476E-01 1.52816E-27
6.16723E-01 1.47988E-27
6.20961E-01 1.43318E-27
6.25190E-01 1.38802E-27
6.29410E-01 1.34435E-27
6.33619E-01 1.30210E-27
6.37819E-01 1.26123E-27
6.42008E-01 1.22169E-27
6.46186E-01 1.18344E-27
6.50353E-01 1.14643E-27
6.54508E-01 1.11061E-27
6.58652E-01 1.07595E-27
6.62784E-01 1.04240E-27
6.66903E-01 1.00992E-27
6.71010E-01 9.78489E-28
6.75104E-01 9.48058E-28
6.79184E-01 9.18595E-28
6.83251E-01 8.90069E-28
6.87303E-01 8.62446E-28
6.91342E-01 8.35697E-28
6.95366E-01 8.09791E-28
6.99375E-01 7.84700E-28
7.03368E-01 7.60397E-28
7.07347E-01 7.36855E-28
7.11309E-01 7.14049E-28
7.15256E-01 6.91955E-28
7.19186E-01 6.70547E-28
7.23099E-01 6.49805E-28
7.26995E-01 6.29705E-28
7.30874E-01 6.10226E-28
7.34736E-01 5.91348E-28
7.38579E-01 5.73051E-28
7.42405E-01 5.55317E-28
7.46212E-01 5.38126E-28
7.50000E-01 5.21461E-28
7.53769E-01 5.05305E-28
7.57519E-01 4.89641E-28
7.61249E-01 4.74454E-28
7.64960E-01 4.59728E-28
7.68650E-01 4.45448E-28
7.72320E-01 4.31600E-28
7.75968E-01 4.18169E-28
7.79596E-01 4.05144E-28
7.83203E-01 3.92510E-28
7.86788E-01 3.80255E-28
7.90351E-01 3.68368E-28
7.93893E-01 3.56837E-28
7.97411E-01 3.45649E-28
8.00908E-01 3.34796E-28
8.04381E-01 3.24265E-28
8.07831E-01 3.14048E-28
8.11257E-01 3.04134E-28
8.14660E-01 2.94513E-28
8.18039E-01 2.85178E-28
8.21394E-01 2.76118E-28
8.24724E-01 2.67325E-28
8.28030E-01 2.58792E-28
8.31310E-01 2.50509E-28
8.34565E-01 2.42470E-28
8.37795E-01 2.34667E-28
8.40999E-01 2.27093E-28
8.44177E-01 2.19740E-28
8.47329E-01 2.12603E-28
8.50455E-01 2.05674E-28
8.53553E-01 1.98948E-28
8.56625E-01 1.92417E-28
8.59670E-01 1.86077E-28
8.62687E-01 1.79922E-28
8.65677E-01 1.73946E-28
8.68639E-01 1.68143E-28
8.71572E-01 1.62509E-28
8.74478E-01 1.57039E-28
8.77355E-01 1.51727E-28
8.80203E-01 1.46570E-28
8.83022E-01 1.41562E-28
8.85812E-01 1.36700E-28
8.88573E-01 1.31979E-28
8.91304E-01 1.27394E-28
8.94005E-01 1.22943E-28
8.96677E-01 1.18621E-28
8.99318E-01 1.14424E-28
9.01928E-01 1.10349E-28
9.04508E-01 1.06392E-28
9.07058E-01 1.02551E-28
9.09576E-01 9.88213E-29
9.12063E-01 9.52002E-29
9.14519E-01 9.16847E-29
9.16943E-01 8.82719E-29
9.19335E-01 8.49589E-29
9.21696E-01 8.17429E-29
9.24024E-01 7.86212E-29
9.26320E-01 7.55914E-29
9.28584E-01 7.26508E-29
9.30815E-01 6.97971E-29
9.33013E-01 6.70278E-29
9.35178E-01 6.43408E-29
9.37310E-01 6.17339E-29
9.39409E-01 5.92049E-29
9.41474E-01 5.67518E-29
9.43505E-01 5.43725E-29
9.45503E-01 5.20652E-29
9.47467E-01 4.98281E-29
9.49397E-01 4.76592E-29
9.51293E-01 4.55569E-29
9.53154E-01 4.35196E-29
9.54981E-01 4.15454E-29
9.56773E-01 3.96330E-29
9.58530E-01 3.77808E-29
9.60252E-01 3.59873E-29
9.61940E-01 3.42511E-29
9.63592E-01 3.25708E-29
9.65209E-01 3.09452E-29
9.66790E-01 2.93729E-29
9.68336E-01 2.78527E-29
9.69846E-01 2.63834E-29
9.71321E-01 2.49639E-29
9.72759E-01 2.35931E-29
9.74162E-01 2.22699E-29
9.75528E-01 2.09933E-29
9.76858E-01 1.97623E-29
9.78152E-01 1.85759E-29
9.79410E-01 1.74333E-29
9.80631E-01 1.63335E-29
9.81815E-01 1.52758E-29
9.82963E-01 1.42592E-29
9.84074E-01 1.32831E-29
9.85148E-01 1.23467E-29
9.86185E-01 1.14492E-29
9.87185E-01 1.05901E-29
9.88148E-01 9.76853E-30
9.89074E-01 8.98400E-30
9.89962E-01 8.23589E-30
9.90814E-01 7.52363E-30
9.91627E-01 6.84668E-30
9.92404E-01 6.20452E-30
9.93143E-01 5.59668E-30
9.93844E-01 5.02270E-30
9.94508E-01 4.48214E-30
9.95134E-01 3.97460E-30
9.95722E-01 3.49970E-30
9.96273E-01 3.05707E-30
9.96786E-01 2.64640E-30
9.97261E-01 2.26736E-30
9.97698E-01 1.91968E-30
9.98097E-01 1.60310E-30
9.98459E-01 1.31737E-30
9.98782E-01 1.06230E-30
9.99067E-01 8.37672E-31
9.99315E-01 6.43337E-31
9.99524E-01 4.79144E-31
9.99695E-01 3.44971E-31
9.99829E-01 2.40718E-31
9.99924E-01 1.66307E-31
9.99981E-01 1.21683E-31
1.00000E+00 1.06813E-31
