 #
 # Subroutine ELSEPA. Elastic scattering of electrons and positrons
 #                    by neutral atoms and positive ions
 #
 # Projectile: positron
 # Kinetic energy = 1.00000E+09 eV = 3.67493E+07 a.u.
 #
 # WARNING: High-energy factorization with free-atom DF screening.
 #          Absorption, polarization and exchange corrections are
 #          switched off.
 #          Phase shifts are calculated for the bare nucleus.
 #          Scattering amplitudes are not evaluated.
 #
 # Element: Sm,  Z =  62,  atomic weight = 1.50360E+02 g/mol
 #
 # Nuclear model: Fermi distribution
 #                Average radius = 5.68977E-13 cm
 #                Skin thickness = 5.46000E-14 cm
 #
 # Number of electrons = 62
 #
 # Total elastic cross section = 7.09208E-18 cm**2 = 2.53263E-01 a0**2
 # 1st transport cross section = 7.38150E-27 cm**2 = 2.63598E-10 a0**2
 # 2nd transport cross section = 2.21423E-26 cm**2 = 7.90717E-10 a0**2
 #
 #
 # Differential cross section:                       MU=(1-COS(THETA))/2
 #
 #  THETA        MU          DCS          DCS        Sherman      error
 #  (deg)                 (cm**2/sr)   (a0**2/sr)    function
 #----------------------------------------------------------------------
0.00000E+00 9.30773E-08
7.61557E-13 5.99011E-08
1.18994E-12 4.92758E-08
1.71346E-12 4.03189E-08
2.33225E-12 3.31489E-08
3.04617E-12 2.75312E-08
3.85530E-12 2.31529E-08
4.75964E-12 1.97162E-08
5.75917E-12 1.69789E-08
6.85391E-12 1.47580E-08
8.04379E-12 1.29217E-08
9.32893E-12 1.13795E-08
1.07092E-11 1.00672E-08
1.21847E-11 8.93870E-09
1.37554E-11 7.96053E-09
1.54213E-11 7.10558E-09
1.71823E-11 6.35725E-09
1.90386E-11 5.70017E-09
2.09900E-11 5.12183E-09
2.30367E-11 4.60922E-09
2.51785E-11 4.12669E-09
2.74156E-11 3.71682E-09
2.97478E-11 3.36658E-09
3.21752E-11 3.06559E-09
3.46979E-11 2.80549E-09
3.73157E-11 2.55807E-09
4.00286E-11 2.32869E-09
4.28368E-11 2.12896E-09
4.57402E-11 1.95426E-09
4.87388E-11 1.80079E-09
5.18325E-11 1.66391E-09
5.50215E-11 1.52935E-09
5.83057E-11 1.41031E-09
6.16850E-11 1.30464E-09
6.51595E-11 1.21050E-09
6.87293E-11 1.12637E-09
7.23943E-11 1.04624E-09
7.61544E-11 9.71543E-10
1.18991E-10 5.02398E-10
1.71347E-10 2.81273E-10
2.33223E-10 1.67801E-10
3.04617E-10 1.06160E-10
3.85531E-10 7.07103E-11
4.75965E-10 4.91796E-11
5.75917E-10 3.54374E-11
6.85389E-10 2.62170E-11
8.04380E-10 1.98430E-11
9.32891E-10 1.53007E-11
1.07092E-09 1.19781E-11
1.21847E-09 9.49871E-12
1.37554E-09 7.62068E-12
1.54213E-09 6.17960E-12
1.71823E-09 5.06165E-12
1.90386E-09 4.18393E-12
2.09900E-09 3.48735E-12
2.30367E-09 2.92920E-12
2.51785E-09 2.47701E-12
2.74156E-09 2.11130E-12
2.97478E-09 1.80931E-12
3.21752E-09 1.56048E-12
3.46978E-09 1.35267E-12
3.73156E-09 1.17862E-12
4.00286E-09 1.03180E-12
4.28368E-09 9.07142E-13
4.57402E-09 8.00987E-13
4.87388E-09 7.09734E-13
5.18326E-09 6.31384E-13
5.50215E-09 5.63338E-13
5.83057E-09 5.04437E-13
6.16850E-09 4.52879E-13
6.51596E-09 4.07861E-13
6.87293E-09 3.68236E-13
7.23942E-09 3.33342E-13
7.61544E-09 3.02478E-13
1.18991E-08 1.27851E-13
1.71347E-08 6.28659E-14
2.33223E-08 3.43706E-14
3.04617E-08 2.03307E-14
3.85531E-08 1.27806E-14
4.75965E-08 8.43205E-15
5.75917E-08 5.78595E-15
6.85389E-08 4.10138E-15
8.04380E-08 2.98783E-15
9.32891E-08 2.22791E-15
1.07092E-07 1.69496E-15
1.21847E-07 1.31227E-15
1.37554E-07 1.03172E-15
1.54213E-07 8.22288E-16
1.71823E-07 6.63384E-16
1.90386E-07 5.41064E-16
2.09900E-07 4.45670E-16
2.30367E-07 3.70393E-16
2.51785E-07 3.10354E-16
2.74156E-07 2.61994E-16
2.97478E-07 2.22693E-16
3.21752E-07 1.90489E-16
3.46978E-07 1.63899E-16
3.73156E-07 1.41788E-16
4.00286E-07 1.23282E-16
4.28368E-07 1.07697E-16
4.57402E-07 9.44973E-17
4.87388E-07 8.32585E-17
5.18325E-07 7.36412E-17
5.50215E-07 6.53727E-17
5.83057E-07 5.82322E-17
6.16850E-07 5.20401E-17
6.51596E-07 4.66492E-17
6.87293E-07 4.19384E-17
7.23942E-07 3.78073E-17
7.61543E-07 3.41723E-17
1.18991E-06 1.40142E-17
1.71347E-06 6.76227E-18
2.33223E-06 3.65110E-18
3.04617E-06 2.14043E-18
3.85531E-06 1.33628E-18
4.75964E-06 8.76697E-19
5.75916E-06 5.98748E-19
6.85388E-06 4.22713E-19
8.04378E-06 3.06863E-19
9.32888E-06 2.28112E-19
1.07092E-05 1.73075E-19
1.21846E-05 1.33676E-19
1.37553E-05 1.04875E-19
1.54212E-05 8.34278E-20
1.71822E-05 6.71921E-20
1.90385E-05 5.46976E-20
2.09899E-05 4.50150E-20
2.30365E-05 3.73783E-20
2.51783E-05 3.12869E-20
2.74153E-05 2.63813E-20
2.97475E-05 2.23976E-20
3.21749E-05 1.91377E-20
3.46974E-05 1.64508E-20
3.73152E-05 1.42209E-20
4.00281E-05 1.23573E-20
4.28362E-05 1.07898E-20
4.57395E-05 9.46294E-21
4.87380E-05 8.33344E-21
5.18317E-05 7.36700E-21
5.50205E-05 6.53626E-21
5.83045E-05 5.81919E-21
6.16838E-05 5.19779E-21
6.51582E-05 4.65727E-21
6.87277E-05 4.18533E-21
7.23925E-05 3.77178E-21
7.61524E-05 3.39970E-21
9.21439E-05 2.30737E-21
1.09658E-04 1.61655E-21
1.28695E-04 1.16308E-21
1.49255E-04 8.55646E-22
1.71338E-04 6.41628E-22
1.94942E-04 4.89085E-22
2.20070E-04 3.78160E-22
2.46720E-04 2.96063E-22
2.74892E-04 2.34339E-22
3.04586E-04 1.87295E-22
3.35803E-04 1.50988E-22
3.68542E-04 1.22660E-22
4.02802E-04 1.00335E-22
4.38585E-04 8.25820E-23
4.75889E-04 6.83504E-23
5.14715E-04 5.68560E-23
5.55063E-04 4.75104E-23
5.96931E-04 3.98645E-23
6.40321E-04 3.35742E-23
6.85233E-04 2.83723E-23
7.31665E-04 2.40501E-23
7.79618E-04 2.04433E-23
8.29092E-04 1.74213E-23
8.80086E-04 1.48802E-23
9.32601E-04 1.27361E-23
9.86636E-04 1.09214E-23
1.04219E-03 9.38121E-24
1.09927E-03 8.07046E-24
1.15786E-03 6.95234E-24
1.21797E-03 5.99642E-24
1.27961E-03 5.17752E-24
1.34276E-03 4.47472E-24
1.40743E-03 3.87053E-24
1.47362E-03 3.35033E-24
1.54133E-03 2.90183E-24
1.61056E-03 2.51466E-24
1.68131E-03 2.18006E-24
1.75357E-03 1.89061E-24
1.82735E-03 1.64000E-24
1.90265E-03 1.42285E-24
1.97947E-03 1.23457E-24
2.05780E-03 1.07123E-24
2.13765E-03 9.29473E-25
2.21902E-03 8.06391E-25
2.30190E-03 6.99501E-25
2.38630E-03 6.06655E-25
2.47222E-03 5.26001E-25
2.55965E-03 4.55937E-25
2.64859E-03 3.95077E-25
2.73905E-03 3.42219E-25
2.83103E-03 2.96322E-25
2.92452E-03 2.56480E-25
3.01952E-03 2.21908E-25
3.11604E-03 1.91920E-25
3.21407E-03 1.65923E-25
3.31362E-03 1.43397E-25
3.41468E-03 1.23891E-25
3.51725E-03 1.07012E-25
3.62133E-03 9.24156E-26
3.72692E-03 7.98034E-26
3.83403E-03 6.89143E-26
3.94265E-03 5.95209E-26
4.05278E-03 5.14245E-26
4.16442E-03 4.44525E-26
4.27757E-03 3.84537E-26
4.39223E-03 3.32971E-26
4.50840E-03 2.88681E-26
4.62608E-03 2.50672E-26
4.74527E-03 2.18077E-26
4.86597E-03 1.90145E-26
4.98817E-03 1.66220E-26
5.11188E-03 1.45736E-26
5.23711E-03 1.28202E-26
5.36383E-03 1.13193E-26
5.49207E-03 1.00339E-26
5.62181E-03 8.93255E-27
5.75306E-03 7.98772E-27
5.88581E-03 7.17595E-27
6.02007E-03 6.47703E-27
6.15583E-03 5.87365E-27
6.29310E-03 5.35103E-27
6.43187E-03 4.89654E-27
6.57214E-03 4.49945E-27
6.71392E-03 4.15065E-27
6.85720E-03 3.84244E-27
7.00198E-03 3.56833E-27
7.14827E-03 3.32286E-27
7.29605E-03 3.10148E-27
7.44534E-03 2.90038E-27
7.59612E-03 2.71639E-27
7.97965E-03 2.31534E-27
8.37255E-03 1.97681E-27
8.77480E-03 1.68330E-27
9.18641E-03 1.42483E-27
9.60736E-03 1.19586E-27
1.00376E-02 9.93336E-28
1.04773E-02 8.15418E-28
1.09262E-02 6.60744E-28
1.13844E-02 5.28000E-28
1.18520E-02 4.15734E-28
1.23288E-02 3.22294E-28
1.28150E-02 2.45847E-28
1.33104E-02 1.84442E-28
1.38150E-02 1.36085E-28
1.43290E-02 9.88116E-29
1.48521E-02 7.07510E-29
1.53845E-02 5.01768E-29
1.59262E-02 3.55396E-29
1.64770E-02 2.54860E-29
1.70371E-02 1.88655E-29
1.76063E-02 1.47255E-29
1.81848E-02 1.22992E-29
1.87724E-02 1.09884E-29
1.93692E-02 1.03422E-29
1.99751E-02 1.00350E-29
2.05901E-02 9.84430E-30
2.12143E-02 9.62952E-30
2.18476E-02 9.31310E-30
2.24900E-02 8.86354E-30
2.31415E-02 8.28128E-30
2.38021E-02 7.58699E-30
2.44717E-02 6.81250E-30
2.51504E-02 5.99387E-30
2.58382E-02 5.16646E-30
2.65349E-02 4.36170E-30
2.72407E-02 3.60524E-30
2.79555E-02 2.91606E-30
2.86793E-02 2.30650E-30
2.94120E-02 1.78274E-30
3.01537E-02 1.34565E-30
3.09043E-02 9.91849E-31
3.16639E-02 7.14783E-31
3.24324E-02 5.05765E-31
3.32098E-02 3.54922E-31
3.39961E-02 2.51996E-31
3.47912E-02 1.86980E-31
3.55952E-02 1.50593E-31
3.64081E-02 1.34602E-31
3.72297E-02 1.32009E-31
3.80602E-02 1.37117E-31
3.88995E-02 1.45514E-31
3.97476E-02 1.53979E-31
4.06044E-02 1.60350E-31
4.14700E-02 1.63360E-31
4.23443E-02 1.62462E-31
4.32273E-02 1.57661E-31
4.41190E-02 1.49352E-31
4.50194E-02 1.38180E-31
4.59284E-02 1.24921E-31
4.68461E-02 1.10382E-31
4.87074E-02 8.04618E-32
5.06030E-02 5.33557E-32
5.25328E-02 3.19551E-32
5.44967E-02 1.71653E-32
5.64946E-02 8.41516E-33
5.85262E-02 4.30621E-33
6.05914E-02 3.19412E-33
6.26901E-02 3.59957E-33
6.48222E-02 4.42663E-33
6.69873E-02 5.01808E-33
6.91854E-02 5.10028E-33
7.14163E-02 4.67275E-33
7.36799E-02 3.88718E-33
7.59760E-02 2.94502E-33
7.83043E-02 2.02726E-33
8.06647E-02 1.25807E-33
8.30571E-02 6.96033E-34
8.54812E-02 3.43851E-34
8.79369E-02 1.66791E-34
9.04240E-02 1.12546E-34
9.29422E-02 1.27583E-34
9.54915E-02 1.67819E-34
9.80716E-02 2.03490E-34
1.00682E-01 2.19361E-34
1.03323E-01 2.11962E-34
1.05995E-01 1.85523E-34
1.08696E-01 1.47905E-34
1.11427E-01 1.07378E-34
1.14188E-01 7.05466E-35
1.16978E-01 4.14422E-35
1.19797E-01 2.15056E-35
1.22645E-01 1.01355E-35
1.25522E-01 5.47476E-36
1.28428E-01 5.18342E-36
1.31361E-01 7.04220E-36
1.34323E-01 9.32415E-36
1.37313E-01 1.09406E-35
1.40330E-01 1.14121E-35
1.43375E-01 1.07321E-35
1.46447E-01 9.18695E-36
1.49545E-01 7.18436E-36
1.52671E-01 5.12040E-36
1.55823E-01 3.29743E-36
1.59001E-01 1.89065E-36
1.62205E-01 9.52904E-37
1.65435E-01 4.42627E-37
1.68690E-01 2.61321E-37
1.71970E-01 2.89804E-37
1.75276E-01 4.16407E-37
1.78606E-01 5.54591E-37
1.81961E-01 6.49809E-37
1.85340E-01 6.78390E-37
1.88743E-01 6.40846E-37
1.92169E-01 5.53047E-37
1.95619E-01 4.37547E-37
1.99092E-01 3.16612E-37
2.02589E-01 2.07758E-37
2.06107E-01 1.21753E-37
2.09649E-01 6.26029E-38
2.13212E-01 1.00000E-45
2.16797E-01 1.00000E-45
2.20404E-01 1.00000E-45
2.24032E-01 1.00000E-45
2.27680E-01 1.00000E-45
2.31350E-01 1.00000E-45
2.35040E-01 1.00000E-45
2.38751E-01 1.00000E-45
2.42481E-01 1.00000E-45
2.46231E-01 1.00000E-45
2.50000E-01 1.00000E-45
2.53788E-01 1.00000E-45
2.57595E-01 1.00000E-45
2.61421E-01 1.00000E-45
2.65264E-01 1.00000E-45
2.69126E-01 1.00000E-45
2.73005E-01 1.00000E-45
2.76901E-01 1.00000E-45
2.80814E-01 1.00000E-45
2.84744E-01 1.00000E-45
2.88691E-01 1.00000E-45
2.92653E-01 1.00000E-45
2.96632E-01 1.00000E-45
3.00625E-01 1.00000E-45
3.04634E-01 1.00000E-45
3.08658E-01 1.00000E-45
3.12697E-01 1.00000E-45
3.16749E-01 1.00000E-45
3.20816E-01 1.00000E-45
3.24896E-01 1.00000E-45
3.28990E-01 1.00000E-45
3.33097E-01 1.00000E-45
3.37216E-01 1.00000E-45
3.41348E-01 1.00000E-45
3.45492E-01 1.00000E-45
3.49647E-01 1.00000E-45
3.53814E-01 1.00000E-45
3.57992E-01 1.00000E-45
3.62181E-01 1.00000E-45
3.66381E-01 1.00000E-45
3.70590E-01 1.00000E-45
3.74810E-01 1.00000E-45
3.79039E-01 1.00000E-45
3.83277E-01 1.00000E-45
3.87524E-01 1.00000E-45
3.91780E-01 1.00000E-45
3.96044E-01 1.00000E-45
4.00316E-01 1.00000E-45
4.04596E-01 1.00000E-45
4.08882E-01 1.00000E-45
4.13176E-01 1.00000E-45
4.17476E-01 1.00000E-45
4.21783E-01 1.00000E-45
4.26095E-01 1.00000E-45
4.30413E-01 1.00000E-45
4.34737E-01 1.00000E-45
4.39065E-01 1.00000E-45
4.43398E-01 1.00000E-45
4.47736E-01 1.00000E-45
4.52077E-01 1.00000E-45
4.56422E-01 1.00000E-45
4.60770E-01 1.00000E-45
4.65122E-01 1.00000E-45
4.69476E-01 1.00000E-45
4.73832E-01 1.00000E-45
4.78190E-01 1.00000E-45
4.82550E-01 1.00000E-45
4.86912E-01 1.00000E-45
4.91274E-01 1.00000E-45
4.95637E-01 1.00000E-45
5.00000E-01 1.00000E-45
5.04363E-01 1.00000E-45
5.08726E-01 1.00000E-45
5.13088E-01 1.00000E-45
5.17450E-01 1.00000E-45
5.21810E-01 1.00000E-45
5.26168E-01 1.00000E-45
5.30524E-01 1.00000E-45
5.34878E-01 1.00000E-45
5.39230E-01 1.00000E-45
5.43578E-01 1.00000E-45
5.47923E-01 1.00000E-45
5.52264E-01 1.00000E-45
5.56602E-01 1.00000E-45
5.60935E-01 1.00000E-45
5.65263E-01 1.00000E-45
5.69587E-01 1.00000E-45
5.73905E-01 1.00000E-45
5.78217E-01 1.00000E-45
5.82524E-01 1.00000E-45
5.86824E-01 1.00000E-45
5.91118E-01 1.00000E-45
5.95404E-01 1.00000E-45
5.99684E-01 1.00000E-45
6.03956E-01 1.00000E-45
6.08220E-01 1.00000E-45
6.12476E-01 1.00000E-45
6.16723E-01 1.00000E-45
6.20961E-01 1.00000E-45
6.25190E-01 1.00000E-45
6.29410E-01 1.00000E-45
6.33619E-01 1.00000E-45
6.37819E-01 1.00000E-45
6.42008E-01 1.00000E-45
6.46186E-01 1.00000E-45
6.50353E-01 1.00000E-45
6.54508E-01 1.00000E-45
6.58652E-01 1.00000E-45
6.62784E-01 1.00000E-45
6.66903E-01 1.00000E-45
6.71010E-01 1.00000E-45
6.75104E-01 1.00000E-45
6.79184E-01 1.00000E-45
6.83251E-01 1.00000E-45
6.87303E-01 1.00000E-45
6.91342E-01 1.00000E-45
6.95366E-01 1.00000E-45
6.99375E-01 1.00000E-45
7.03368E-01 1.00000E-45
7.07347E-01 1.00000E-45
7.11309E-01 1.00000E-45
7.15256E-01 1.00000E-45
7.19186E-01 1.00000E-45
7.23099E-01 1.00000E-45
7.26995E-01 1.00000E-45
7.30874E-01 1.00000E-45
7.34736E-01 1.00000E-45
7.38579E-01 1.00000E-45
7.42405E-01 1.00000E-45
7.46212E-01 1.00000E-45
7.50000E-01 1.00000E-45
7.53769E-01 1.00000E-45
7.57519E-01 1.00000E-45
7.61249E-01 1.00000E-45
7.64960E-01 1.00000E-45
7.68650E-01 1.00000E-45
7.72320E-01 1.00000E-45
7.75968E-01 1.00000E-45
7.79596E-01 1.00000E-45
7.83203E-01 1.00000E-45
7.86788E-01 1.00000E-45
7.90351E-01 1.00000E-45
7.93893E-01 1.00000E-45
7.97411E-01 1.00000E-45
8.00908E-01 1.00000E-45
8.04381E-01 1.00000E-45
8.07831E-01 1.00000E-45
8.11257E-01 1.00000E-45
8.14660E-01 1.00000E-45
8.18039E-01 1.00000E-45
8.21394E-01 1.00000E-45
8.24724E-01 1.00000E-45
8.28030E-01 1.00000E-45
8.31310E-01 1.00000E-45
8.34565E-01 1.00000E-45
8.37795E-01 1.00000E-45
8.40999E-01 1.00000E-45
8.44177E-01 1.00000E-45
8.47329E-01 1.00000E-45
8.50455E-01 1.00000E-45
8.53553E-01 1.00000E-45
8.56625E-01 1.00000E-45
8.59670E-01 1.00000E-45
8.62687E-01 1.00000E-45
8.65677E-01 1.00000E-45
8.68639E-01 1.00000E-45
8.71572E-01 1.00000E-45
8.74478E-01 1.00000E-45
8.77355E-01 1.00000E-45
8.80203E-01 1.00000E-45
8.83022E-01 1.00000E-45
8.85812E-01 1.00000E-45
8.88573E-01 1.00000E-45
8.91304E-01 1.00000E-45
8.94005E-01 1.00000E-45
8.96677E-01 1.00000E-45
8.99318E-01 1.00000E-45
9.01928E-01 1.00000E-45
9.04508E-01 1.00000E-45
9.07058E-01 1.00000E-45
9.09576E-01 1.00000E-45
9.12063E-01 1.00000E-45
9.14519E-01 1.00000E-45
9.16943E-01 1.00000E-45
9.19335E-01 1.00000E-45
9.21696E-01 1.00000E-45
9.24024E-01 1.00000E-45
9.26320E-01 1.00000E-45
9.28584E-01 1.00000E-45
9.30815E-01 1.00000E-45
9.33013E-01 1.00000E-45
9.35178E-01 1.00000E-45
9.37310E-01 1.00000E-45
9.39409E-01 1.00000E-45
9.41474E-01 1.00000E-45
9.43505E-01 1.00000E-45
9.45503E-01 1.00000E-45
9.47467E-01 1.00000E-45
9.49397E-01 1.00000E-45
9.51293E-01 1.00000E-45
9.53154E-01 1.00000E-45
9.54981E-01 1.00000E-45
9.56773E-01 1.00000E-45
9.58530E-01 1.00000E-45
9.60252E-01 1.00000E-45
9.61940E-01 1.00000E-45
9.63592E-01 1.00000E-45
9.65209E-01 1.00000E-45
9.66790E-01 1.00000E-45
9.68336E-01 1.00000E-45
9.69846E-01 1.00000E-45
9.71321E-01 1.00000E-45
9.72759E-01 1.00000E-45
9.74162E-01 1.00000E-45
9.75528E-01 1.00000E-45
9.76858E-01 1.00000E-45
9.78152E-01 1.00000E-45
9.79410E-01 1.00000E-45
9.80631E-01 1.00000E-45
9.81815E-01 1.00000E-45
9.82963E-01 1.00000E-45
9.84074E-01 1.00000E-45
9.85148E-01 1.00000E-45
9.86185E-01 1.00000E-45
9.87185E-01 1.00000E-45
9.88148E-01 1.00000E-45
9.89074E-01 1.00000E-45
9.89962E-01 1.00000E-45
9.90814E-01 1.00000E-45
9.91627E-01 1.00000E-45
9.92404E-01 1.00000E-45
9.93143E-01 1.00000E-45
9.93844E-01 1.00000E-45
9.94508E-01 1.00000E-45
9.95134E-01 1.00000E-45
9.95722E-01 1.00000E-45
9.96273E-01 1.00000E-45
9.96786E-01 1.00000E-45
9.97261E-01 1.00000E-45
9.97698E-01 1.00000E-45
9.98097E-01 1.00000E-45
9.98459E-01 1.00000E-45
9.98782E-01 1.00000E-45
9.99067E-01 1.00000E-45
9.99315E-01 1.00000E-45
9.99524E-01 1.00000E-45
9.99695E-01 1.00000E-45
9.99829E-01 1.00000E-45
9.99924E-01 1.00000E-45
9.99981E-01 1.00000E-45
1.00000E+00 1.00000E-45
