 #
 # Subroutine ELSEPA. Elastic scattering of electrons and positrons
 #                    by neutral atoms and positive ions
 #
 # Projectile: positron
 # Kinetic energy = 1.50000E+06 eV = 5.51240E+04 a.u.
 #
 # WARNING: High-energy factorization with free-atom DF screening.
 #          Absorption, polarization and exchange corrections are
 #          switched off.
 #          Phase shifts are calculated for the bare nucleus.
 #          Scattering amplitudes are not evaluated.
 #
 # Element: Sm,  Z =  62,  atomic weight = 1.50360E+02 g/mol
 #
 # Nuclear model: Fermi distribution
 #                Average radius = 5.68977E-13 cm
 #                Skin thickness = 5.46000E-14 cm
 #
 # Number of electrons = 62
 #
 # Total elastic cross section = 7.70574E-18 cm**2 = 2.75177E-01 a0**2
 # 1st transport cross section = 1.08034E-21 cm**2 = 3.85797E-05 a0**2
 # 2nd transport cross section = 3.06073E-21 cm**2 = 1.09301E-04 a0**2
 #
 #
 # Differential cross section:                       MU=(1-COS(THETA))/2
 #
 #  THETA        MU          DCS          DCS        Sherman      error
 #  (deg)                 (cm**2/sr)   (a0**2/sr)    function
 #----------------------------------------------------------------------
0.00000E+00 3.76031E-13
7.61557E-13 3.76030E-13
1.18994E-12 3.76030E-13
1.71346E-12 3.76029E-13
2.33225E-12 3.76028E-13
3.04617E-12 3.76028E-13
3.85530E-12 3.76027E-13
4.75964E-12 3.76026E-13
5.75917E-12 3.76025E-13
6.85391E-12 3.76024E-13
8.04379E-12 3.76022E-13
9.32893E-12 3.76021E-13
1.07092E-11 3.76020E-13
1.21847E-11 3.76018E-13
1.37554E-11 3.76016E-13
1.54213E-11 3.76015E-13
1.71823E-11 3.76013E-13
1.90386E-11 3.76011E-13
2.09900E-11 3.76009E-13
2.30367E-11 3.76007E-13
2.51785E-11 3.76005E-13
2.74156E-11 3.76003E-13
2.97478E-11 3.76000E-13
3.21752E-11 3.75998E-13
3.46979E-11 3.75995E-13
3.73157E-11 3.75993E-13
4.00286E-11 3.75990E-13
4.28368E-11 3.75987E-13
4.57402E-11 3.75984E-13
4.87388E-11 3.75982E-13
5.18325E-11 3.75978E-13
5.50215E-11 3.75975E-13
5.83057E-11 3.75972E-13
6.16850E-11 3.75969E-13
6.51595E-11 3.75965E-13
6.87293E-11 3.75962E-13
7.23943E-11 3.75958E-13
7.61544E-11 3.75954E-13
1.18991E-10 3.75912E-13
1.71347E-10 3.75861E-13
2.33223E-10 3.75801E-13
3.04617E-10 3.75731E-13
3.85531E-10 3.75653E-13
4.75965E-10 3.75565E-13
5.75917E-10 3.75468E-13
6.85389E-10 3.75362E-13
8.04380E-10 3.75247E-13
9.32891E-10 3.75123E-13
1.07092E-09 3.74990E-13
1.21847E-09 3.74848E-13
1.37554E-09 3.74697E-13
1.54213E-09 3.74537E-13
1.71823E-09 3.74368E-13
1.90386E-09 3.74190E-13
2.09900E-09 3.74003E-13
2.30367E-09 3.73807E-13
2.51785E-09 3.73602E-13
2.74156E-09 3.73388E-13
2.97478E-09 3.73166E-13
3.21752E-09 3.72934E-13
3.46978E-09 3.72694E-13
3.73156E-09 3.72445E-13
4.00286E-09 3.72188E-13
4.28368E-09 3.71921E-13
4.57402E-09 3.71646E-13
4.87388E-09 3.71362E-13
5.18326E-09 3.71070E-13
5.50215E-09 3.70769E-13
5.83057E-09 3.70460E-13
6.16850E-09 3.70142E-13
6.51596E-09 3.69816E-13
6.87293E-09 3.69481E-13
7.23942E-09 3.69138E-13
7.61544E-09 3.68786E-13
1.18991E-08 3.64822E-13
1.71347E-08 3.60073E-13
2.33223E-08 3.54592E-13
3.04617E-08 3.48439E-13
3.85531E-08 3.41679E-13
4.75965E-08 3.34380E-13
5.75917E-08 3.26612E-13
6.85389E-08 3.18502E-13
8.04380E-08 3.10031E-13
9.32891E-08 3.01230E-13
1.07092E-07 2.92368E-13
1.21847E-07 2.83321E-13
1.37554E-07 2.74137E-13
1.54213E-07 2.65105E-13
1.71823E-07 2.56013E-13
1.90386E-07 2.46983E-13
2.09900E-07 2.38200E-13
2.30367E-07 2.29470E-13
2.51785E-07 2.20960E-13
2.74156E-07 2.12732E-13
2.97478E-07 2.04633E-13
3.21752E-07 1.96864E-13
3.46978E-07 1.89369E-13
3.73156E-07 1.82046E-13
4.00286E-07 1.75119E-13
4.28368E-07 1.68431E-13
4.57402E-07 1.61932E-13
4.87388E-07 1.55855E-13
5.18325E-07 1.49974E-13
5.50215E-07 1.44311E-13
5.83057E-07 1.39007E-13
6.16850E-07 1.33882E-13
6.51596E-07 1.28992E-13
6.87293E-07 1.24384E-13
7.23942E-07 1.19944E-13
7.61543E-07 1.15734E-13
1.18991E-06 8.31500E-14
1.71347E-06 6.23763E-14
2.33223E-06 4.82387E-14
3.04617E-06 3.80201E-14
3.85531E-06 3.03431E-14
4.75964E-06 2.44320E-14
5.75916E-06 1.98359E-14
6.85388E-06 1.60668E-14
8.04378E-06 1.32233E-14
9.32888E-06 1.11001E-14
1.07092E-05 9.24803E-15
1.21846E-05 7.80602E-15
1.37553E-05 6.67550E-15
1.54212E-05 5.68412E-15
1.71822E-05 4.89789E-15
1.90385E-05 4.24923E-15
2.09899E-05 3.68693E-15
2.30365E-05 3.22770E-15
2.51783E-05 2.83436E-15
2.74153E-05 2.49092E-15
2.97475E-05 2.20452E-15
3.21749E-05 1.95264E-15
3.46974E-05 1.73386E-15
3.73152E-05 1.54862E-15
4.00281E-05 1.38259E-15
4.28362E-05 1.23861E-15
4.57395E-05 1.11480E-15
4.87380E-05 1.00233E-15
5.18317E-05 9.04675E-16
5.50205E-05 8.19189E-16
5.83045E-05 7.41957E-16
6.16838E-05 6.74329E-16
6.51582E-05 6.14343E-16
6.87277E-05 5.60398E-16
7.23925E-05 5.12705E-16
7.61524E-05 4.69931E-16
9.21439E-05 3.38005E-16
1.09658E-04 2.50244E-16
1.28695E-04 1.89751E-16
1.49255E-04 1.46979E-16
1.71338E-04 1.15701E-16
1.94942E-04 9.24205E-17
2.20070E-04 7.47733E-17
2.46720E-04 6.11269E-17
2.74892E-04 5.04448E-17
3.04586E-04 4.19491E-17
3.35803E-04 3.51461E-17
3.68542E-04 2.96489E-17
4.02802E-04 2.51731E-17
4.38585E-04 2.15068E-17
4.75889E-04 1.84759E-17
5.14715E-04 1.59580E-17
5.55063E-04 1.38506E-17
5.96931E-04 1.20782E-17
6.40321E-04 1.05745E-17
6.85233E-04 9.30154E-18
7.31665E-04 8.22009E-18
7.79618E-04 7.28427E-18
8.29092E-04 6.48098E-18
8.80086E-04 5.78742E-18
9.32601E-04 5.18087E-18
9.86636E-04 4.65371E-18
1.04219E-03 4.19235E-18
1.09927E-03 3.78563E-18
1.15786E-03 3.42826E-18
1.21797E-03 3.11176E-18
1.27961E-03 2.83053E-18
1.34276E-03 2.58111E-18
1.40743E-03 2.35804E-18
1.47362E-03 2.15857E-18
1.54133E-03 1.98022E-18
1.61056E-03 1.81930E-18
1.68131E-03 1.67458E-18
1.75357E-03 1.54424E-18
1.82735E-03 1.42580E-18
1.90265E-03 1.31872E-18
1.97947E-03 1.22158E-18
2.05780E-03 1.13294E-18
2.13765E-03 1.05235E-18
2.21902E-03 9.78755E-19
2.30190E-03 9.11343E-19
2.38630E-03 8.49735E-19
2.47222E-03 7.93165E-19
2.55965E-03 7.41172E-19
2.64859E-03 6.93438E-19
2.73905E-03 6.49382E-19
2.83103E-03 6.08764E-19
2.92452E-03 5.71319E-19
3.01952E-03 5.36605E-19
3.11604E-03 5.04507E-19
3.21407E-03 4.74797E-19
3.31362E-03 4.47162E-19
3.41468E-03 4.21532E-19
3.51725E-03 3.97712E-19
3.62133E-03 3.75505E-19
3.72692E-03 3.54844E-19
3.83403E-03 3.35571E-19
3.94265E-03 3.17566E-19
4.05278E-03 3.00765E-19
4.16442E-03 2.85041E-19
4.27757E-03 2.70321E-19
4.39223E-03 2.56548E-19
4.50840E-03 2.43620E-19
4.62608E-03 2.31495E-19
4.74527E-03 2.20121E-19
4.86597E-03 2.09416E-19
4.98817E-03 1.99356E-19
5.11188E-03 1.89896E-19
5.23711E-03 1.80975E-19
5.36383E-03 1.72575E-19
5.49207E-03 1.64655E-19
5.62181E-03 1.57176E-19
5.75306E-03 1.50118E-19
5.88581E-03 1.43449E-19
6.02007E-03 1.37141E-19
6.15583E-03 1.31178E-19
6.29310E-03 1.25531E-19
6.43187E-03 1.20182E-19
6.57214E-03 1.15117E-19
6.71392E-03 1.10310E-19
6.85720E-03 1.05751E-19
7.00198E-03 1.01426E-19
7.14827E-03 9.73150E-20
7.29605E-03 9.34106E-20
7.44534E-03 8.97001E-20
7.59612E-03 8.61683E-20
7.97965E-03 7.80692E-20
8.37255E-03 7.08946E-20
8.77480E-03 6.45211E-20
9.18641E-03 5.88437E-20
9.60736E-03 5.37736E-20
1.00376E-02 4.92351E-20
1.04773E-02 4.51628E-20
1.09262E-02 4.15007E-20
1.13844E-02 3.82003E-20
1.18520E-02 3.52198E-20
1.23288E-02 3.25227E-20
1.28150E-02 3.00774E-20
1.33104E-02 2.78561E-20
1.38150E-02 2.58350E-20
1.43290E-02 2.39928E-20
1.48521E-02 2.23109E-20
1.53845E-02 2.07729E-20
1.59262E-02 1.93644E-20
1.64770E-02 1.80725E-20
1.70371E-02 1.68858E-20
1.76063E-02 1.57942E-20
1.81848E-02 1.47889E-20
1.87724E-02 1.38617E-20
1.93692E-02 1.30055E-20
1.99751E-02 1.22140E-20
2.05901E-02 1.14813E-20
2.12143E-02 1.08024E-20
2.18476E-02 1.01725E-20
2.24900E-02 9.58751E-21
2.31415E-02 9.04363E-21
2.38021E-02 8.53747E-21
2.44717E-02 8.06594E-21
2.51504E-02 7.62626E-21
2.58382E-02 7.21588E-21
2.65349E-02 6.83251E-21
2.72407E-02 6.47404E-21
2.79555E-02 6.13857E-21
2.86793E-02 5.82434E-21
2.94120E-02 5.52979E-21
3.01537E-02 5.25346E-21
3.09043E-02 4.99401E-21
3.16639E-02 4.75023E-21
3.24324E-02 4.52102E-21
3.32098E-02 4.30533E-21
3.39961E-02 4.10221E-21
3.47912E-02 3.91083E-21
3.55952E-02 3.73036E-21
3.64081E-02 3.56007E-21
3.72297E-02 3.39930E-21
3.80602E-02 3.24740E-21
3.88995E-02 3.10381E-21
3.97476E-02 2.96798E-21
4.06044E-02 2.83943E-21
4.14700E-02 2.71768E-21
4.23443E-02 2.60231E-21
4.32273E-02 2.49294E-21
4.41190E-02 2.38919E-21
4.50194E-02 2.29072E-21
4.59284E-02 2.19722E-21
4.68461E-02 2.10838E-21
4.87074E-02 1.94363E-21
5.06030E-02 1.79448E-21
5.25328E-02 1.65921E-21
5.44967E-02 1.53630E-21
5.64946E-02 1.42443E-21
5.85262E-02 1.32244E-21
6.05914E-02 1.22931E-21
6.26901E-02 1.14413E-21
6.48222E-02 1.06611E-21
6.69873E-02 9.94546E-22
6.91854E-02 9.28809E-22
7.14163E-02 8.68343E-22
7.36799E-02 8.12657E-22
7.59760E-02 7.61302E-22
7.83043E-02 7.13884E-22
8.06647E-02 6.70052E-22
8.30571E-02 6.29485E-22
8.54812E-02 5.91898E-22
8.79369E-02 5.57035E-22
9.04240E-02 5.24665E-22
9.29422E-02 4.94576E-22
9.54915E-02 4.66581E-22
9.80716E-02 4.40511E-22
1.00682E-01 4.16206E-22
1.03323E-01 3.93530E-22
1.05995E-01 3.72353E-22
1.08696E-01 3.52558E-22
1.11427E-01 3.34040E-22
1.14188E-01 3.16703E-22
1.16978E-01 3.00456E-22
1.19797E-01 2.85221E-22
1.22645E-01 2.70924E-22
1.25522E-01 2.57495E-22
1.28428E-01 2.44873E-22
1.31361E-01 2.33002E-22
1.34323E-01 2.21828E-22
1.37313E-01 2.11305E-22
1.40330E-01 2.01386E-22
1.43375E-01 1.92032E-22
1.46447E-01 1.83205E-22
1.49545E-01 1.74869E-22
1.52671E-01 1.66993E-22
1.55823E-01 1.59547E-22
1.59001E-01 1.52503E-22
1.62205E-01 1.45835E-22
1.65435E-01 1.39521E-22
1.68690E-01 1.33538E-22
1.71970E-01 1.27865E-22
1.75276E-01 1.22484E-22
1.78606E-01 1.17378E-22
1.81961E-01 1.12528E-22
1.85340E-01 1.07922E-22
1.88743E-01 1.03543E-22
1.92169E-01 9.93792E-23
1.95619E-01 9.54179E-23
1.99092E-01 9.16475E-23
2.02589E-01 8.80571E-23
2.06107E-01 8.46368E-23
2.09649E-01 8.13769E-23
2.13212E-01 7.82687E-23
2.16797E-01 7.53039E-23
2.20404E-01 7.24746E-23
2.24032E-01 6.97736E-23
2.27680E-01 6.71942E-23
2.31350E-01 6.47297E-23
2.35040E-01 6.23744E-23
2.38751E-01 6.01223E-23
2.42481E-01 5.79683E-23
2.46231E-01 5.59073E-23
2.50000E-01 5.39345E-23
2.53788E-01 5.20456E-23
2.57595E-01 5.02364E-23
2.61421E-01 4.85028E-23
2.65264E-01 4.68413E-23
2.69126E-01 4.52482E-23
2.73005E-01 4.37202E-23
2.76901E-01 4.22543E-23
2.80814E-01 4.08475E-23
2.84744E-01 3.94969E-23
2.88691E-01 3.82000E-23
2.92653E-01 3.69541E-23
2.96632E-01 3.57571E-23
3.00625E-01 3.46065E-23
3.04634E-01 3.35004E-23
3.08658E-01 3.24366E-23
3.12697E-01 3.14133E-23
3.16749E-01 3.04287E-23
3.20816E-01 2.94811E-23
3.24896E-01 2.85687E-23
3.28990E-01 2.76902E-23
3.33097E-01 2.68439E-23
3.37216E-01 2.60286E-23
3.41348E-01 2.52428E-23
3.45492E-01 2.44854E-23
3.49647E-01 2.37551E-23
3.53814E-01 2.30508E-23
3.57992E-01 2.23714E-23
3.62181E-01 2.17159E-23
3.66381E-01 2.10832E-23
3.70590E-01 2.04726E-23
3.74810E-01 1.98829E-23
3.79039E-01 1.93135E-23
3.83277E-01 1.87634E-23
3.87524E-01 1.82320E-23
3.91780E-01 1.77185E-23
3.96044E-01 1.72221E-23
4.00316E-01 1.67423E-23
4.04596E-01 1.62783E-23
4.08882E-01 1.58295E-23
4.13176E-01 1.53954E-23
4.17476E-01 1.49754E-23
4.21783E-01 1.45689E-23
4.26095E-01 1.41755E-23
4.30413E-01 1.37947E-23
4.34737E-01 1.34260E-23
4.39065E-01 1.30688E-23
4.43398E-01 1.27229E-23
4.47736E-01 1.23878E-23
4.52077E-01 1.20631E-23
4.56422E-01 1.17485E-23
4.60770E-01 1.14434E-23
4.65122E-01 1.11477E-23
4.69476E-01 1.08610E-23
4.73832E-01 1.05830E-23
4.78190E-01 1.03133E-23
4.82550E-01 1.00517E-23
4.86912E-01 9.79781E-24
4.91274E-01 9.55147E-24
4.95637E-01 9.31239E-24
5.00000E-01 9.08031E-24
5.04363E-01 8.85500E-24
5.08726E-01 8.63622E-24
5.13088E-01 8.42375E-24
5.17450E-01 8.21739E-24
5.21810E-01 8.01691E-24
5.26168E-01 7.82215E-24
5.30524E-01 7.63289E-24
5.34878E-01 7.44896E-24
5.39230E-01 7.27019E-24
5.43578E-01 7.09640E-24
5.47923E-01 6.92745E-24
5.52264E-01 6.76316E-24
5.56602E-01 6.60338E-24
5.60935E-01 6.44799E-24
5.65263E-01 6.29683E-24
5.69587E-01 6.14977E-24
5.73905E-01 6.00668E-24
5.78217E-01 5.86744E-24
5.82524E-01 5.73193E-24
5.86824E-01 5.60003E-24
5.91118E-01 5.47163E-24
5.95404E-01 5.34662E-24
5.99684E-01 5.22491E-24
6.03956E-01 5.10638E-24
6.08220E-01 4.99094E-24
6.12476E-01 4.87850E-24
6.16723E-01 4.76897E-24
6.20961E-01 4.66227E-24
6.25190E-01 4.55830E-24
6.29410E-01 4.45699E-24
6.33619E-01 4.35825E-24
6.37819E-01 4.26202E-24
6.42008E-01 4.16823E-24
6.46186E-01 4.07679E-24
6.50353E-01 3.98764E-24
6.54508E-01 3.90072E-24
6.58652E-01 3.81596E-24
6.62784E-01 3.73330E-24
6.66903E-01 3.65268E-24
6.71010E-01 3.57405E-24
6.75104E-01 3.49734E-24
6.79184E-01 3.42251E-24
6.83251E-01 3.34950E-24
6.87303E-01 3.27826E-24
6.91342E-01 3.20874E-24
6.95366E-01 3.14089E-24
6.99375E-01 3.07468E-24
7.03368E-01 3.01005E-24
7.07347E-01 2.94695E-24
7.11309E-01 2.88536E-24
7.15256E-01 2.82523E-24
7.19186E-01 2.76652E-24
7.23099E-01 2.70920E-24
7.26995E-01 2.65321E-24
7.30874E-01 2.59854E-24
7.34736E-01 2.54515E-24
7.38579E-01 2.49300E-24
7.42405E-01 2.44205E-24
7.46212E-01 2.39229E-24
7.50000E-01 2.34368E-24
7.53769E-01 2.29618E-24
7.57519E-01 2.24978E-24
7.61249E-01 2.20443E-24
7.64960E-01 2.16013E-24
7.68650E-01 2.11683E-24
7.72320E-01 2.07452E-24
7.75968E-01 2.03317E-24
7.79596E-01 1.99275E-24
7.83203E-01 1.95325E-24
7.86788E-01 1.91464E-24
7.90351E-01 1.87689E-24
7.93893E-01 1.84000E-24
7.97411E-01 1.80393E-24
8.00908E-01 1.76867E-24
8.04381E-01 1.73419E-24
8.07831E-01 1.70049E-24
8.11257E-01 1.66753E-24
8.14660E-01 1.63531E-24
8.18039E-01 1.60380E-24
8.21394E-01 1.57299E-24
8.24724E-01 1.54287E-24
8.28030E-01 1.51341E-24
8.31310E-01 1.48460E-24
8.34565E-01 1.45643E-24
8.37795E-01 1.42887E-24
8.40999E-01 1.40193E-24
8.44177E-01 1.37558E-24
8.47329E-01 1.34981E-24
8.50455E-01 1.32461E-24
8.53553E-01 1.29996E-24
8.56625E-01 1.27586E-24
8.59670E-01 1.25228E-24
8.62687E-01 1.22923E-24
8.65677E-01 1.20668E-24
8.68639E-01 1.18463E-24
8.71572E-01 1.16307E-24
8.74478E-01 1.14198E-24
8.77355E-01 1.12135E-24
8.80203E-01 1.10119E-24
8.83022E-01 1.08146E-24
8.85812E-01 1.06218E-24
8.88573E-01 1.04332E-24
8.91304E-01 1.02489E-24
8.94005E-01 1.00686E-24
8.96677E-01 9.89238E-25
8.99318E-01 9.72008E-25
9.01928E-01 9.55165E-25
9.04508E-01 9.38701E-25
9.07058E-01 9.22608E-25
9.09576E-01 9.06879E-25
9.12063E-01 8.91507E-25
9.14519E-01 8.76486E-25
9.16943E-01 8.61808E-25
9.19335E-01 8.47467E-25
9.21696E-01 8.33457E-25
9.24024E-01 8.19771E-25
9.26320E-01 8.06405E-25
9.28584E-01 7.93351E-25
9.30815E-01 7.80605E-25
9.33013E-01 7.68160E-25
9.35178E-01 7.56012E-25
9.37310E-01 7.44156E-25
9.39409E-01 7.32585E-25
9.41474E-01 7.21296E-25
9.43505E-01 7.10284E-25
9.45503E-01 6.99544E-25
9.47467E-01 6.89071E-25
9.49397E-01 6.78862E-25
9.51293E-01 6.68912E-25
9.53154E-01 6.59216E-25
9.54981E-01 6.49771E-25
9.56773E-01 6.40574E-25
9.58530E-01 6.31619E-25
9.60252E-01 6.22905E-25
9.61940E-01 6.14426E-25
9.63592E-01 6.06180E-25
9.65209E-01 5.98163E-25
9.66790E-01 5.90373E-25
9.68336E-01 5.82805E-25
9.69846E-01 5.75458E-25
9.71321E-01 5.68327E-25
9.72759E-01 5.61411E-25
9.74162E-01 5.54706E-25
9.75528E-01 5.48210E-25
9.76858E-01 5.41920E-25
9.78152E-01 5.35834E-25
9.79410E-01 5.29949E-25
9.80631E-01 5.24264E-25
9.81815E-01 5.18775E-25
9.82963E-01 5.13481E-25
9.84074E-01 5.08380E-25
9.85148E-01 5.03469E-25
9.86185E-01 4.98747E-25
9.87185E-01 4.94213E-25
9.88148E-01 4.89863E-25
9.89074E-01 4.85697E-25
9.89962E-01 4.81713E-25
9.90814E-01 4.77910E-25
9.91627E-01 4.74286E-25
9.92404E-01 4.70839E-25
9.93143E-01 4.67568E-25
9.93844E-01 4.64473E-25
9.94508E-01 4.61551E-25
9.95134E-01 4.58803E-25
9.95722E-01 4.56226E-25
9.96273E-01 4.53820E-25
9.96786E-01 4.51583E-25
9.97261E-01 4.49516E-25
9.97698E-01 4.47617E-25
9.98097E-01 4.45885E-25
9.98459E-01 4.44320E-25
9.98782E-01 4.42922E-25
9.99067E-01 4.41689E-25
9.99315E-01 4.40622E-25
9.99524E-01 4.39719E-25
9.99695E-01 4.38982E-25
9.99829E-01 4.38408E-25
9.99924E-01 4.37998E-25
9.99981E-01 4.37753E-25
1.00000E+00 4.37671E-25
