 #
 # Subroutine ELSEPA. Elastic scattering of electrons and positrons
 #                    by neutral atoms and positive ions
 #
 # Projectile: positron
 # Kinetic energy = 4.50000E+07 eV = 1.65372E+06 a.u.
 #
 # WARNING: High-energy factorization with free-atom DF screening.
 #          Absorption, polarization and exchange corrections are
 #          switched off.
 #          Phase shifts are calculated for the bare nucleus.
 #          Scattering amplitudes are not evaluated.
 #
 # Element: Sm,  Z =  62,  atomic weight = 1.50360E+02 g/mol
 #
 # Nuclear model: Fermi distribution
 #                Average radius = 5.68977E-13 cm
 #                Skin thickness = 5.46000E-14 cm
 #
 # Number of electrons = 62
 #
 # Total elastic cross section = 7.22557E-18 cm**2 = 2.58030E-01 a0**2
 # 1st transport cross section = 3.27620E-24 cm**2 = 1.16995E-07 a0**2
 # 2nd transport cross section = 9.60790E-24 cm**2 = 3.43104E-07 a0**2
 #
 #
 # Differential cross section:                       MU=(1-COS(THETA))/2
 #
 #  THETA        MU          DCS          DCS        Sherman      error
 #  (deg)                 (cm**2/sr)   (a0**2/sr)    function
 #----------------------------------------------------------------------
0.00000E+00 1.92590E-10
7.61557E-13 1.92383E-10
1.18994E-12 1.92268E-10
1.71346E-12 1.92126E-10
2.33225E-12 1.91960E-10
3.04617E-12 1.91768E-10
3.85530E-12 1.91551E-10
4.75964E-12 1.91310E-10
5.75917E-12 1.91043E-10
6.85391E-12 1.90752E-10
8.04379E-12 1.90436E-10
9.32893E-12 1.90096E-10
1.07092E-11 1.89731E-10
1.21847E-11 1.89343E-10
1.37554E-11 1.88932E-10
1.54213E-11 1.88497E-10
1.71823E-11 1.88039E-10
1.90386E-11 1.87558E-10
2.09900E-11 1.87055E-10
2.30367E-11 1.86530E-10
2.51785E-11 1.85983E-10
2.74156E-11 1.85414E-10
2.97478E-11 1.84825E-10
3.21752E-11 1.84214E-10
3.46979E-11 1.83583E-10
3.73157E-11 1.82932E-10
4.00286E-11 1.82262E-10
4.28368E-11 1.81572E-10
4.57402E-11 1.80863E-10
4.87388E-11 1.80136E-10
5.18325E-11 1.79391E-10
5.50215E-11 1.78629E-10
5.83057E-11 1.77849E-10
6.16850E-11 1.77053E-10
6.51595E-11 1.76240E-10
6.87293E-11 1.75412E-10
7.23943E-11 1.74568E-10
7.61544E-11 1.73709E-10
1.18991E-10 1.64425E-10
1.71347E-10 1.54137E-10
2.33223E-10 1.43369E-10
3.04617E-10 1.32475E-10
3.85531E-10 1.21779E-10
4.75965E-10 1.11527E-10
5.75917E-10 1.01891E-10
6.85389E-10 9.29939E-11
8.04380E-10 8.49061E-11
9.32891E-10 7.75761E-11
1.07092E-09 7.09771E-11
1.21847E-09 6.50642E-11
1.37554E-09 5.97815E-11
1.54213E-09 5.50790E-11
1.71823E-09 5.08899E-11
1.90386E-09 4.71395E-11
2.09900E-09 4.37759E-11
2.30367E-09 4.07519E-11
2.51785E-09 3.80252E-11
2.74156E-09 3.55587E-11
2.97478E-09 3.33160E-11
3.21752E-09 3.12692E-11
3.46978E-09 2.93952E-11
3.73156E-09 2.76737E-11
4.00286E-09 2.60876E-11
4.28368E-09 2.46178E-11
4.57402E-09 2.32533E-11
4.87388E-09 2.19851E-11
5.18326E-09 2.08039E-11
5.50215E-09 1.97018E-11
5.83057E-09 1.86715E-11
6.16850E-09 1.77025E-11
6.51596E-09 1.67934E-11
6.87293E-09 1.59402E-11
7.23942E-09 1.51388E-11
7.61544E-09 1.43853E-11
1.18991E-08 8.77947E-12
1.71347E-08 5.66161E-12
2.33223E-08 3.77394E-12
3.04617E-08 2.62091E-12
3.85531E-08 1.87950E-12
4.75965E-08 1.38228E-12
5.75917E-08 1.03714E-12
6.85389E-08 7.90202E-13
8.04380E-08 6.09744E-13
9.32891E-08 4.77298E-13
1.07092E-07 3.78582E-13
1.21847E-07 3.04010E-13
1.37554E-07 2.46988E-13
1.54213E-07 2.02825E-13
1.71823E-07 1.68259E-13
1.90386E-07 1.40949E-13
2.09900E-07 1.19122E-13
2.30367E-07 1.01487E-13
2.51785E-07 8.70956E-14
2.74156E-07 7.52438E-14
2.97478E-07 6.53329E-14
3.21752E-07 5.70299E-14
3.46978E-07 5.00291E-14
3.73156E-07 4.40864E-14
4.00286E-07 3.90097E-14
4.28368E-07 3.46376E-14
4.57402E-07 3.08566E-14
4.87388E-07 2.75739E-14
5.18325E-07 2.47113E-14
5.50215E-07 2.22056E-14
5.83057E-07 2.00047E-14
6.16850E-07 1.80622E-14
6.51596E-07 1.63470E-14
6.87293E-07 1.48290E-14
7.23942E-07 1.34819E-14
7.61543E-07 1.22835E-14
1.18991E-06 5.34272E-15
1.71347E-06 2.68464E-15
2.33223E-06 1.49514E-15
3.04617E-06 8.98217E-16
3.85531E-06 5.71735E-16
4.75964E-06 3.80917E-16
5.75916E-06 2.63365E-16
6.85388E-06 1.87778E-16
8.04378E-06 1.37414E-16
9.32888E-06 1.02826E-16
1.07092E-05 7.84492E-17
1.21846E-05 6.08772E-17
1.37553E-05 4.79560E-17
1.54212E-05 3.82857E-17
1.71822E-05 3.09335E-17
1.90385E-05 2.52537E-17
2.09899E-05 2.08373E-17
2.30365E-05 1.73435E-17
2.51783E-05 1.45491E-17
2.74153E-05 1.22930E-17
2.97475E-05 1.04565E-17
3.21749E-05 8.95046E-18
3.46974E-05 7.70661E-18
3.73152E-05 6.67225E-18
4.00281E-05 5.80632E-18
4.28362E-05 5.07668E-18
4.57395E-05 4.45809E-18
4.87380E-05 3.93070E-18
5.18317E-05 3.47879E-18
5.50205E-05 3.08980E-18
5.83045E-05 2.75359E-18
6.16838E-05 2.46188E-18
6.51582E-05 2.20784E-18
6.87277E-05 1.98579E-18
7.23925E-05 1.79100E-18
7.61524E-05 1.61960E-18
9.21439E-05 1.10836E-18
1.09658E-04 7.83651E-19
1.28695E-04 5.69565E-19
1.49255E-04 4.23739E-19
1.71338E-04 3.21710E-19
1.94942E-04 2.48582E-19
2.20070E-04 1.95078E-19
2.46720E-04 1.55211E-19
2.74892E-04 1.25012E-19
3.04586E-04 1.01806E-19
3.35803E-04 8.37350E-20
3.68542E-04 6.94966E-20
4.02802E-04 5.81556E-20
4.38585E-04 4.90329E-20
4.75889E-04 4.16285E-20
5.14715E-04 3.55681E-20
5.55063E-04 3.05698E-20
5.96931E-04 2.64180E-20
6.40321E-04 2.29465E-20
6.85233E-04 2.00260E-20
7.31665E-04 1.75548E-20
7.79618E-04 1.54525E-20
8.29092E-04 1.36552E-20
8.80086E-04 1.21112E-20
9.32601E-04 1.07790E-20
9.86636E-04 9.62458E-21
1.04219E-03 8.62036E-21
1.09927E-03 7.74348E-21
1.15786E-03 6.97504E-21
1.21797E-03 6.29938E-21
1.27961E-03 5.70340E-21
1.34276E-03 5.17609E-21
1.40743E-03 4.70818E-21
1.47362E-03 4.29182E-21
1.54133E-03 3.92038E-21
1.61056E-03 3.58816E-21
1.68131E-03 3.29028E-21
1.75357E-03 3.02260E-21
1.82735E-03 2.78153E-21
1.90265E-03 2.56394E-21
1.97947E-03 2.36715E-21
2.05780E-03 2.18882E-21
2.13765E-03 2.02693E-21
2.21902E-03 1.87968E-21
2.30190E-03 1.74551E-21
2.38630E-03 1.62307E-21
2.47222E-03 1.51114E-21
2.55965E-03 1.40866E-21
2.64859E-03 1.31469E-21
2.73905E-03 1.22840E-21
2.83103E-03 1.14905E-21
2.92452E-03 1.07598E-21
3.01952E-03 1.00860E-21
3.11604E-03 9.46392E-22
3.21407E-03 8.88891E-22
3.31362E-03 8.35672E-22
3.41468E-03 7.86360E-22
3.51725E-03 7.40618E-22
3.62133E-03 6.98140E-22
3.72692E-03 6.58650E-22
3.83403E-03 6.21900E-22
3.94265E-03 5.87667E-22
4.05278E-03 5.55747E-22
4.16442E-03 5.25954E-22
4.27757E-03 4.98121E-22
4.39223E-03 4.72097E-22
4.50840E-03 4.47742E-22
4.62608E-03 4.24929E-22
4.74527E-03 4.03544E-22
4.86597E-03 3.83481E-22
4.98817E-03 3.64642E-22
5.11188E-03 3.46940E-22
5.23711E-03 3.30294E-22
5.36383E-03 3.14628E-22
5.49207E-03 2.99875E-22
5.62181E-03 2.85972E-22
5.75306E-03 2.72861E-22
5.88581E-03 2.60488E-22
6.02007E-03 2.48805E-22
6.15583E-03 2.37765E-22
6.29310E-03 2.27328E-22
6.43187E-03 2.17453E-22
6.57214E-03 2.08106E-22
6.71392E-03 1.99252E-22
6.85720E-03 1.90861E-22
7.00198E-03 1.82904E-22
7.14827E-03 1.75355E-22
7.29605E-03 1.68189E-22
7.44534E-03 1.61383E-22
7.59612E-03 1.54915E-22
7.97965E-03 1.40099E-22
8.37255E-03 1.27001E-22
8.77480E-03 1.15388E-22
9.18641E-03 1.05064E-22
9.60736E-03 9.58611E-23
1.00376E-02 8.76366E-23
1.04773E-02 8.02689E-23
1.09262E-02 7.36535E-23
1.13844E-02 6.77005E-23
1.18520E-02 6.23313E-23
1.23288E-02 5.74793E-23
1.28150E-02 5.30863E-23
1.33104E-02 4.91013E-23
1.38150E-02 4.54799E-23
1.43290E-02 4.21831E-23
1.48521E-02 3.91768E-23
1.53845E-02 3.64309E-23
1.59262E-02 3.39190E-23
1.64770E-02 3.16177E-23
1.70371E-02 2.95061E-23
1.76063E-02 2.75661E-23
1.81848E-02 2.57811E-23
1.87724E-02 2.41366E-23
1.93692E-02 2.26196E-23
1.99751E-02 2.12186E-23
2.05901E-02 1.99230E-23
2.12143E-02 1.87236E-23
2.18476E-02 1.76119E-23
2.24900E-02 1.65805E-23
2.31415E-02 1.56225E-23
2.38021E-02 1.47317E-23
2.44717E-02 1.39027E-23
2.51504E-02 1.31304E-23
2.58382E-02 1.24101E-23
2.65349E-02 1.17379E-23
2.72407E-02 1.11099E-23
2.79555E-02 1.05227E-23
2.86793E-02 9.97319E-24
2.94120E-02 9.45852E-24
3.01537E-02 8.97610E-24
3.09043E-02 8.52354E-24
3.16639E-02 8.09867E-24
3.24324E-02 7.69951E-24
3.32098E-02 7.32421E-24
3.39961E-02 6.97110E-24
3.47912E-02 6.63864E-24
3.55952E-02 6.32541E-24
3.64081E-02 6.03010E-24
3.72297E-02 5.75150E-24
3.80602E-02 5.48850E-24
3.88995E-02 5.24008E-24
3.97476E-02 5.00527E-24
4.06044E-02 4.78322E-24
4.14700E-02 4.57309E-24
4.23443E-02 4.37414E-24
4.32273E-02 4.18567E-24
4.41190E-02 4.00702E-24
4.50194E-02 3.83761E-24
4.59284E-02 3.67686E-24
4.68461E-02 3.52425E-24
4.87074E-02 3.24156E-24
5.06030E-02 2.98605E-24
5.25328E-02 2.75466E-24
5.44967E-02 2.54475E-24
5.64946E-02 2.35398E-24
5.85262E-02 2.18034E-24
6.05914E-02 2.02201E-24
6.26901E-02 1.87744E-24
6.48222E-02 1.74522E-24
6.69873E-02 1.62413E-24
6.91854E-02 1.51308E-24
7.14163E-02 1.41109E-24
7.36799E-02 1.31730E-24
7.59760E-02 1.23096E-24
7.83043E-02 1.15136E-24
8.06647E-02 1.07789E-24
8.30571E-02 1.01001E-24
8.54812E-02 9.47218E-25
8.79369E-02 8.89071E-25
9.04240E-02 8.35170E-25
9.29422E-02 7.85154E-25
9.54915E-02 7.38696E-25
9.80716E-02 6.95503E-25
1.00682E-01 6.55307E-25
1.03323E-01 6.17867E-25
1.05995E-01 5.82963E-25
1.08696E-01 5.50395E-25
1.11427E-01 5.19981E-25
1.14188E-01 4.91557E-25
1.16978E-01 4.64970E-25
1.19797E-01 4.40083E-25
1.22645E-01 4.16769E-25
1.25522E-01 3.94914E-25
1.28428E-01 3.74411E-25
1.31361E-01 3.55163E-25
1.34323E-01 3.37081E-25
1.37313E-01 3.20083E-25
1.40330E-01 3.04094E-25
1.43375E-01 2.89045E-25
1.46447E-01 2.74871E-25
1.49545E-01 2.61513E-25
1.52671E-01 2.48917E-25
1.55823E-01 2.37034E-25
1.59001E-01 2.25815E-25
1.62205E-01 2.15218E-25
1.65435E-01 2.05203E-25
1.68690E-01 1.95734E-25
1.71970E-01 1.86776E-25
1.75276E-01 1.78296E-25
1.78606E-01 1.70266E-25
1.81961E-01 1.62659E-25
1.85340E-01 1.55447E-25
1.88743E-01 1.48608E-25
1.92169E-01 1.42119E-25
1.95619E-01 1.35960E-25
1.99092E-01 1.30111E-25
2.02589E-01 1.24555E-25
2.06107E-01 1.19274E-25
2.09649E-01 1.14253E-25
2.13212E-01 1.09477E-25
2.16797E-01 1.04932E-25
2.20404E-01 1.00606E-25
2.24032E-01 9.64859E-26
2.27680E-01 9.25610E-26
2.31350E-01 8.88205E-26
2.35040E-01 8.52545E-26
2.38751E-01 8.18536E-26
2.42481E-01 7.86091E-26
2.46231E-01 7.55127E-26
2.50000E-01 7.25567E-26
2.53788E-01 6.97338E-26
2.57595E-01 6.70371E-26
2.61421E-01 6.44601E-26
2.65264E-01 6.19968E-26
2.69126E-01 5.96414E-26
2.73005E-01 5.73885E-26
2.76901E-01 5.52330E-26
2.80814E-01 5.31702E-26
2.84744E-01 5.11954E-26
2.88691E-01 4.93043E-26
2.92653E-01 4.74930E-26
2.96632E-01 4.57576E-26
3.00625E-01 4.40944E-26
3.04634E-01 4.25000E-26
3.08658E-01 4.09712E-26
3.12697E-01 3.95049E-26
3.16749E-01 3.80982E-26
3.20816E-01 3.67484E-26
3.24896E-01 3.54527E-26
3.28990E-01 3.42088E-26
3.33097E-01 3.30144E-26
3.37216E-01 3.18671E-26
3.41348E-01 3.07648E-26
3.45492E-01 2.97056E-26
3.49647E-01 2.86875E-26
3.53814E-01 2.77088E-26
3.57992E-01 2.67676E-26
3.62181E-01 2.58625E-26
3.66381E-01 2.49917E-26
3.70590E-01 2.41539E-26
3.74810E-01 2.33476E-26
3.79039E-01 2.25714E-26
3.83277E-01 2.18242E-26
3.87524E-01 2.11047E-26
3.91780E-01 2.04117E-26
3.96044E-01 1.97441E-26
4.00316E-01 1.91008E-26
4.04596E-01 1.84810E-26
4.08882E-01 1.78835E-26
4.13176E-01 1.73076E-26
4.17476E-01 1.67522E-26
4.21783E-01 1.62167E-26
4.26095E-01 1.57001E-26
4.30413E-01 1.52018E-26
4.34737E-01 1.47210E-26
4.39065E-01 1.42571E-26
4.43398E-01 1.38093E-26
4.47736E-01 1.33770E-26
4.52077E-01 1.29596E-26
4.56422E-01 1.25566E-26
4.60770E-01 1.21674E-26
4.65122E-01 1.17914E-26
4.69476E-01 1.14283E-26
4.73832E-01 1.10773E-26
4.78190E-01 1.07382E-26
4.82550E-01 1.04105E-26
4.86912E-01 1.00936E-26
4.91274E-01 9.78734E-27
4.95637E-01 9.49119E-27
5.00000E-01 9.20480E-27
5.04363E-01 8.92781E-27
5.08726E-01 8.65988E-27
5.13088E-01 8.40068E-27
5.17450E-01 8.14988E-27
5.21810E-01 7.90720E-27
5.26168E-01 7.67232E-27
5.30524E-01 7.44499E-27
5.34878E-01 7.22491E-27
5.39230E-01 7.01185E-27
5.43578E-01 6.80554E-27
5.47923E-01 6.60575E-27
5.52264E-01 6.41225E-27
5.56602E-01 6.22482E-27
5.60935E-01 6.04326E-27
5.65263E-01 5.86734E-27
5.69587E-01 5.69689E-27
5.73905E-01 5.53171E-27
5.78217E-01 5.37163E-27
5.82524E-01 5.21646E-27
5.86824E-01 5.06604E-27
5.91118E-01 4.92021E-27
5.95404E-01 4.77882E-27
5.99684E-01 4.64171E-27
6.03956E-01 4.50874E-27
6.08220E-01 4.37978E-27
6.12476E-01 4.25469E-27
6.16723E-01 4.13334E-27
6.20961E-01 4.01561E-27
6.25190E-01 3.90138E-27
6.29410E-01 3.79053E-27
6.33619E-01 3.68296E-27
6.37819E-01 3.57856E-27
6.42008E-01 3.47722E-27
6.46186E-01 3.37885E-27
6.50353E-01 3.28336E-27
6.54508E-01 3.19064E-27
6.58652E-01 3.10061E-27
6.62784E-01 3.01318E-27
6.66903E-01 2.92828E-27
6.71010E-01 2.84582E-27
6.75104E-01 2.76573E-27
6.79184E-01 2.68793E-27
6.83251E-01 2.61234E-27
6.87303E-01 2.53891E-27
6.91342E-01 2.46756E-27
6.95366E-01 2.39823E-27
6.99375E-01 2.33086E-27
7.03368E-01 2.26538E-27
7.07347E-01 2.20174E-27
7.11309E-01 2.13988E-27
7.15256E-01 2.07975E-27
7.19186E-01 2.02130E-27
7.23099E-01 1.96447E-27
7.26995E-01 1.90922E-27
7.30874E-01 1.85549E-27
7.34736E-01 1.80325E-27
7.38579E-01 1.75244E-27
7.42405E-01 1.70303E-27
7.46212E-01 1.65498E-27
7.50000E-01 1.60824E-27
7.53769E-01 1.56277E-27
7.57519E-01 1.51854E-27
7.61249E-01 1.47551E-27
7.64960E-01 1.43365E-27
7.68650E-01 1.39292E-27
7.72320E-01 1.35329E-27
7.75968E-01 1.31473E-27
7.79596E-01 1.27720E-27
7.83203E-01 1.24068E-27
7.86788E-01 1.20514E-27
7.90351E-01 1.17055E-27
7.93893E-01 1.13689E-27
7.97411E-01 1.10412E-27
8.00908E-01 1.07222E-27
8.04381E-01 1.04117E-27
8.07831E-01 1.01094E-27
8.11257E-01 9.81511E-28
8.14660E-01 9.52861E-28
8.18039E-01 9.24967E-28
8.21394E-01 8.97808E-28
8.24724E-01 8.71364E-28
8.28030E-01 8.45615E-28
8.31310E-01 8.20542E-28
8.34565E-01 7.96127E-28
8.37795E-01 7.72351E-28
8.40999E-01 7.49198E-28
8.44177E-01 7.26649E-28
8.47329E-01 7.04690E-28
8.50455E-01 6.83304E-28
8.53553E-01 6.62476E-28
8.56625E-01 6.42190E-28
8.59670E-01 6.22433E-28
8.62687E-01 6.03191E-28
8.65677E-01 5.84449E-28
8.68639E-01 5.66195E-28
8.71572E-01 5.48416E-28
8.74478E-01 5.31099E-28
8.77355E-01 5.14233E-28
8.80203E-01 4.97805E-28
8.83022E-01 4.81805E-28
8.85812E-01 4.66222E-28
8.88573E-01 4.51044E-28
8.91304E-01 4.36262E-28
8.94005E-01 4.21865E-28
8.96677E-01 4.07844E-28
8.99318E-01 3.94190E-28
9.01928E-01 3.80892E-28
9.04508E-01 3.67943E-28
9.07058E-01 3.55333E-28
9.09576E-01 3.43055E-28
9.12063E-01 3.31100E-28
9.14519E-01 3.19460E-28
9.16943E-01 3.08128E-28
9.19335E-01 2.97096E-28
9.21696E-01 2.86357E-28
9.24024E-01 2.75904E-28
9.26320E-01 2.65730E-28
9.28584E-01 2.55829E-28
9.30815E-01 2.46195E-28
9.33013E-01 2.36821E-28
9.35178E-01 2.27701E-28
9.37310E-01 2.18829E-28
9.39409E-01 2.10200E-28
9.41474E-01 2.01809E-28
9.43505E-01 1.93649E-28
9.45503E-01 1.85716E-28
9.47467E-01 1.78005E-28
9.49397E-01 1.70512E-28
9.51293E-01 1.63230E-28
9.53154E-01 1.56157E-28
9.54981E-01 1.49287E-28
9.56773E-01 1.42616E-28
9.58530E-01 1.36140E-28
9.60252E-01 1.29856E-28
9.61940E-01 1.23758E-28
9.63592E-01 1.17844E-28
9.65209E-01 1.12110E-28
9.66790E-01 1.06553E-28
9.68336E-01 1.01168E-28
9.69846E-01 9.59534E-29
9.71321E-01 9.09052E-29
9.72759E-01 8.60206E-29
9.74162E-01 8.12965E-29
9.75528E-01 7.67303E-29
9.76858E-01 7.23190E-29
9.78152E-01 6.80601E-29
9.79410E-01 6.39510E-29
9.80631E-01 5.99894E-29
9.81815E-01 5.61727E-29
9.82963E-01 5.24988E-29
9.84074E-01 4.89654E-29
9.85148E-01 4.55705E-29
9.86185E-01 4.23121E-29
9.87185E-01 3.91883E-29
9.88148E-01 3.61971E-29
9.89074E-01 3.33368E-29
9.89962E-01 3.06058E-29
9.90814E-01 2.80025E-29
9.91627E-01 2.55253E-29
9.92404E-01 2.31727E-29
9.93143E-01 2.09434E-29
9.93844E-01 1.88362E-29
9.94508E-01 1.68497E-29
9.95134E-01 1.49828E-29
9.95722E-01 1.32344E-29
9.96273E-01 1.16035E-29
9.96786E-01 1.00891E-29
9.97261E-01 8.69048E-30
9.97698E-01 7.40666E-30
9.98097E-01 6.23695E-30
9.98459E-01 5.18068E-30
9.98782E-01 4.23723E-30
9.99067E-01 3.40605E-30
9.99315E-01 2.68667E-30
9.99524E-01 2.07866E-30
9.99695E-01 1.58168E-30
9.99829E-01 1.19544E-30
9.99924E-01 9.19707E-31
9.99981E-01 7.54334E-31
1.00000E+00 6.99222E-31
