 #
 # Subroutine ELSEPA. Elastic scattering of electrons and positrons
 #                    by neutral atoms and positive ions
 #
 # Projectile: positron
 # Kinetic energy = 4.00000E+06 eV = 1.46997E+05 a.u.
 #
 # WARNING: High-energy factorization with free-atom DF screening.
 #          Absorption, polarization and exchange corrections are
 #          switched off.
 #          Phase shifts are calculated for the bare nucleus.
 #          Scattering amplitudes are not evaluated.
 #
 # Element: Sm,  Z =  62,  atomic weight = 1.50360E+02 g/mol
 #
 # Nuclear model: Fermi distribution
 #                Average radius = 5.68977E-13 cm
 #                Skin thickness = 5.46000E-14 cm
 #
 # Number of electrons = 62
 #
 # Total elastic cross section = 7.30997E-18 cm**2 = 2.61044E-01 a0**2
 # 1st transport cross section = 2.32037E-22 cm**2 = 8.28619E-06 a0**2
 # 2nd transport cross section = 6.66475E-22 cm**2 = 2.38003E-05 a0**2
 #
 #
 # Differential cross section:                       MU=(1-COS(THETA))/2
 #
 #  THETA        MU          DCS          DCS        Sherman      error
 #  (deg)                 (cm**2/sr)   (a0**2/sr)    function
 #----------------------------------------------------------------------
0.00000E+00 1.89211E-12
7.61557E-13 1.89208E-12
1.18994E-12 1.89207E-12
1.71346E-12 1.89206E-12
2.33225E-12 1.89204E-12
3.04617E-12 1.89202E-12
3.85530E-12 1.89200E-12
4.75964E-12 1.89198E-12
5.75917E-12 1.89195E-12
6.85391E-12 1.89192E-12
8.04379E-12 1.89189E-12
9.32893E-12 1.89186E-12
1.07092E-11 1.89182E-12
1.21847E-11 1.89178E-12
1.37554E-11 1.89174E-12
1.54213E-11 1.89170E-12
1.71823E-11 1.89165E-12
1.90386E-11 1.89161E-12
2.09900E-11 1.89155E-12
2.30367E-11 1.89150E-12
2.51785E-11 1.89145E-12
2.74156E-11 1.89139E-12
2.97478E-11 1.89133E-12
3.21752E-11 1.89126E-12
3.46979E-11 1.89120E-12
3.73157E-11 1.89113E-12
4.00286E-11 1.89106E-12
4.28368E-11 1.89099E-12
4.57402E-11 1.89091E-12
4.87388E-11 1.89084E-12
5.18325E-11 1.89076E-12
5.50215E-11 1.89067E-12
5.83057E-11 1.89059E-12
6.16850E-11 1.89050E-12
6.51595E-11 1.89041E-12
6.87293E-11 1.89032E-12
7.23943E-11 1.89022E-12
7.61544E-11 1.89013E-12
1.18991E-10 1.88902E-12
1.71347E-10 1.88767E-12
2.33223E-10 1.88609E-12
3.04617E-10 1.88425E-12
3.85531E-10 1.88218E-12
4.75965E-10 1.87988E-12
5.75917E-10 1.87733E-12
6.85389E-10 1.87455E-12
8.04380E-10 1.87154E-12
9.32891E-10 1.86829E-12
1.07092E-09 1.86481E-12
1.21847E-09 1.86111E-12
1.37554E-09 1.85718E-12
1.54213E-09 1.85303E-12
1.71823E-09 1.84866E-12
1.90386E-09 1.84407E-12
2.09900E-09 1.83927E-12
2.30367E-09 1.83425E-12
2.51785E-09 1.82903E-12
2.74156E-09 1.82359E-12
2.97478E-09 1.81796E-12
3.21752E-09 1.81213E-12
3.46978E-09 1.80610E-12
3.73156E-09 1.79988E-12
4.00286E-09 1.79347E-12
4.28368E-09 1.78688E-12
4.57402E-09 1.78010E-12
4.87388E-09 1.77315E-12
5.18326E-09 1.76602E-12
5.50215E-09 1.75873E-12
5.83057E-09 1.75127E-12
6.16850E-09 1.74365E-12
6.51596E-09 1.73587E-12
6.87293E-09 1.72793E-12
7.23942E-09 1.71985E-12
7.61544E-09 1.71163E-12
1.18991E-08 1.62251E-12
1.71347E-08 1.52372E-12
2.33223E-08 1.41981E-12
3.04617E-08 1.31430E-12
3.85531E-08 1.21030E-12
4.75965E-08 1.11024E-12
5.75917E-08 1.01590E-12
6.85389E-08 9.28960E-13
8.04380E-08 8.49178E-13
9.32891E-08 7.76643E-13
1.07092E-07 7.11163E-13
1.21847E-07 6.52358E-13
1.37554E-07 5.99943E-13
1.54213E-07 5.53140E-13
1.71823E-07 5.11233E-13
1.90386E-07 4.73690E-13
2.09900E-07 4.40008E-13
2.30367E-07 4.09738E-13
2.51785E-07 3.82467E-13
2.74156E-07 3.57746E-13
2.97478E-07 3.35271E-13
3.21752E-07 3.14773E-13
3.46978E-07 2.96017E-13
3.73156E-07 2.78765E-13
4.00286E-07 2.62847E-13
4.28368E-07 2.48131E-13
4.57402E-07 2.34491E-13
4.87388E-07 2.21820E-13
5.18325E-07 2.10006E-13
5.50215E-07 1.98936E-13
5.83057E-07 1.88588E-13
6.16850E-07 1.78899E-13
6.51596E-07 1.69816E-13
6.87293E-07 1.61290E-13
7.23942E-07 1.53240E-13
7.61543E-07 1.45660E-13
1.18991E-06 8.95149E-14
1.71347E-06 5.75755E-14
2.33223E-06 3.85175E-14
3.04617E-06 2.68159E-14
3.85531E-06 1.92711E-14
4.75964E-06 1.42020E-14
5.75916E-06 1.06720E-14
6.85388E-06 8.12203E-15
8.04378E-06 6.27899E-15
9.32888E-06 4.92217E-15
1.07092E-05 3.90797E-15
1.21846E-05 3.13998E-15
1.37553E-05 2.55008E-15
1.54212E-05 2.09364E-15
1.71822E-05 1.73698E-15
1.90385E-05 1.45439E-15
2.09899E-05 1.22967E-15
2.30365E-05 1.04781E-15
2.51783E-05 8.98837E-16
2.74153E-05 7.76196E-16
2.97475E-05 6.74019E-16
3.21749E-05 5.88252E-16
3.46974E-05 5.16004E-16
3.73152E-05 4.54629E-16
4.00281E-05 4.02223E-16
4.28362E-05 3.57225E-16
4.57395E-05 3.18352E-16
4.87380E-05 2.84587E-16
5.18317E-05 2.55096E-16
5.50205E-05 2.29206E-16
5.83045E-05 2.06471E-16
6.16838E-05 1.86450E-16
6.51582E-05 1.68772E-16
6.87277E-05 1.53123E-16
7.23925E-05 1.39213E-16
7.61524E-05 1.26835E-16
9.21439E-05 8.91118E-17
1.09658E-04 6.43408E-17
1.28695E-04 4.75697E-17
1.49255E-04 3.59509E-17
1.71338E-04 2.76827E-17
1.94942E-04 2.16654E-17
2.20070E-04 1.71984E-17
2.46720E-04 1.38263E-17
2.74892E-04 1.12434E-17
3.04586E-04 9.23748E-18
3.35803E-04 7.65974E-18
3.68542E-04 6.40451E-18
4.02802E-04 5.39498E-18
4.38585E-04 4.57653E-18
4.75889E-04 3.90733E-18
5.14715E-04 3.35582E-18
5.55063E-04 2.89801E-18
5.96931E-04 2.51518E-18
6.40321E-04 2.19327E-18
6.85233E-04 1.92110E-18
7.31665E-04 1.68973E-18
7.79618E-04 1.49204E-18
8.29092E-04 1.32230E-18
8.80086E-04 1.17588E-18
9.32601E-04 1.04911E-18
9.86636E-04 9.38923E-19
1.04219E-03 8.42779E-19
1.09927E-03 7.58591E-19
1.15786E-03 6.84598E-19
1.21797E-03 6.19380E-19
1.27961E-03 5.61724E-19
1.34276E-03 5.10604E-19
1.40743E-03 4.65153E-19
1.47362E-03 4.24630E-19
1.54133E-03 3.88407E-19
1.61056E-03 3.55955E-19
1.68131E-03 3.26815E-19
1.75357E-03 3.00588E-19
1.82735E-03 2.76934E-19
1.90265E-03 2.55552E-19
1.97947E-03 2.36188E-19
2.05780E-03 2.18620E-19
2.13765E-03 2.02651E-19
2.21902E-03 1.88111E-19
2.30190E-03 1.74847E-19
2.38630E-03 1.62727E-19
2.47222E-03 1.51638E-19
2.55965E-03 1.41474E-19
2.64859E-03 1.32146E-19
2.73905E-03 1.23572E-19
2.83103E-03 1.15679E-19
2.92452E-03 1.08405E-19
3.01952E-03 1.01692E-19
3.11604E-03 9.54888E-20
3.21407E-03 8.97504E-20
3.31362E-03 8.44349E-20
3.41468E-03 7.95056E-20
3.51725E-03 7.49297E-20
3.62133E-03 7.06773E-20
3.72692E-03 6.67212E-20
3.83403E-03 6.30371E-20
3.94265E-03 5.96027E-20
4.05278E-03 5.63981E-20
4.16442E-03 5.34052E-20
4.27757E-03 5.06075E-20
4.39223E-03 4.79899E-20
4.50840E-03 4.55386E-20
4.62608E-03 4.32410E-20
4.74527E-03 4.10860E-20
4.86597E-03 3.90630E-20
4.98817E-03 3.71625E-20
5.11188E-03 3.53756E-20
5.23711E-03 3.36943E-20
5.36383E-03 3.21112E-20
5.49207E-03 3.06195E-20
5.62181E-03 2.92131E-20
5.75306E-03 2.78862E-20
5.88581E-03 2.66332E-20
6.02007E-03 2.54495E-20
6.15583E-03 2.43306E-20
6.29310E-03 2.32721E-20
6.43187E-03 2.22702E-20
6.57214E-03 2.13214E-20
6.71392E-03 2.04223E-20
6.85720E-03 1.95698E-20
7.00198E-03 1.87611E-20
7.14827E-03 1.79936E-20
7.29605E-03 1.72646E-20
7.44534E-03 1.65719E-20
7.59612E-03 1.59135E-20
7.97965E-03 1.44041E-20
8.37255E-03 1.30685E-20
8.77480E-03 1.18832E-20
9.18641E-03 1.08286E-20
9.60736E-03 9.88764E-21
1.00376E-02 9.04608E-21
1.04773E-02 8.29160E-21
1.09262E-02 7.61365E-21
1.13844E-02 7.00313E-21
1.18520E-02 6.45214E-21
1.23288E-02 5.95393E-21
1.28150E-02 5.50256E-21
1.33104E-02 5.09286E-21
1.38150E-02 4.72031E-21
1.43290E-02 4.38094E-21
1.48521E-02 4.07130E-21
1.53845E-02 3.78832E-21
1.59262E-02 3.52932E-21
1.64770E-02 3.29191E-21
1.70371E-02 3.07396E-21
1.76063E-02 2.87360E-21
1.81848E-02 2.68917E-21
1.87724E-02 2.51918E-21
1.93692E-02 2.36229E-21
1.99751E-02 2.21733E-21
2.05901E-02 2.08321E-21
2.12143E-02 1.95899E-21
2.18476E-02 1.84381E-21
2.24900E-02 1.73690E-21
2.31415E-02 1.63755E-21
2.38021E-02 1.54514E-21
2.44717E-02 1.45909E-21
2.51504E-02 1.37890E-21
2.58382E-02 1.30408E-21
2.65349E-02 1.23422E-21
2.72407E-02 1.16893E-21
2.79555E-02 1.10786E-21
2.86793E-02 1.05068E-21
2.94120E-02 9.97108E-22
3.01537E-02 9.46871E-22
3.09043E-02 8.99726E-22
3.16639E-02 8.55447E-22
3.24324E-02 8.13829E-22
3.32098E-02 7.74684E-22
3.39961E-02 7.37840E-22
3.47912E-02 7.03135E-22
3.55952E-02 6.70425E-22
3.64081E-02 6.39573E-22
3.72297E-02 6.10455E-22
3.80602E-02 5.82956E-22
3.88995E-02 5.56971E-22
3.97476E-02 5.32400E-22
4.06044E-02 5.09154E-22
4.14700E-02 4.87147E-22
4.23443E-02 4.66302E-22
4.32273E-02 4.46547E-22
4.41190E-02 4.27814E-22
4.50194E-02 4.10041E-22
4.59284E-02 3.93169E-22
4.68461E-02 3.77146E-22
4.87074E-02 3.47445E-22
5.06030E-02 3.20576E-22
5.25328E-02 2.96222E-22
5.44967E-02 2.74108E-22
5.64946E-02 2.53992E-22
5.85262E-02 2.35664E-22
6.05914E-02 2.18938E-22
6.26901E-02 2.03650E-22
6.48222E-02 1.89654E-22
6.69873E-02 1.76823E-22
6.91854E-02 1.65044E-22
7.14163E-02 1.54215E-22
7.36799E-02 1.44246E-22
7.59760E-02 1.35058E-22
7.83043E-02 1.26578E-22
8.06647E-02 1.18744E-22
8.30571E-02 1.11496E-22
8.54812E-02 1.04784E-22
8.79369E-02 9.85617E-23
9.04240E-02 9.27865E-23
9.29422E-02 8.74208E-23
9.54915E-02 8.24307E-23
9.80716E-02 7.77854E-23
1.00682E-01 7.34569E-23
1.03323E-01 6.94199E-23
1.05995E-01 6.56514E-23
1.08696E-01 6.21303E-23
1.11427E-01 5.88377E-23
1.14188E-01 5.57561E-23
1.16978E-01 5.28696E-23
1.19797E-01 5.01638E-23
1.22645E-01 4.76253E-23
1.25522E-01 4.52421E-23
1.28428E-01 4.30031E-23
1.31361E-01 4.08979E-23
1.34323E-01 3.89172E-23
1.37313E-01 3.70523E-23
1.40330E-01 3.52953E-23
1.43375E-01 3.36388E-23
1.46447E-01 3.20761E-23
1.49545E-01 3.06010E-23
1.52671E-01 2.92078E-23
1.55823E-01 2.78910E-23
1.59001E-01 2.66458E-23
1.62205E-01 2.54676E-23
1.65435E-01 2.43522E-23
1.68690E-01 2.32955E-23
1.71970E-01 2.22941E-23
1.75276E-01 2.13445E-23
1.78606E-01 2.04435E-23
1.81961E-01 1.95883E-23
1.85340E-01 1.87761E-23
1.88743E-01 1.80044E-23
1.92169E-01 1.72708E-23
1.95619E-01 1.65731E-23
1.99092E-01 1.59092E-23
2.02589E-01 1.52772E-23
2.06107E-01 1.46754E-23
2.09649E-01 1.41020E-23
2.13212E-01 1.35554E-23
2.16797E-01 1.30342E-23
2.20404E-01 1.25370E-23
2.24032E-01 1.20626E-23
2.27680E-01 1.16096E-23
2.31350E-01 1.11769E-23
2.35040E-01 1.07635E-23
2.38751E-01 1.03684E-23
2.42481E-01 9.99058E-24
2.46231E-01 9.62921E-24
2.50000E-01 9.28343E-24
2.53788E-01 8.95246E-24
2.57595E-01 8.63554E-24
2.61421E-01 8.33199E-24
2.65264E-01 8.04113E-24
2.69126E-01 7.76234E-24
2.73005E-01 7.49504E-24
2.76901E-01 7.23868E-24
2.80814E-01 6.99273E-24
2.84744E-01 6.75670E-24
2.88691E-01 6.53012E-24
2.92653E-01 6.31254E-24
2.96632E-01 6.10354E-24
3.00625E-01 5.90273E-24
3.04634E-01 5.70973E-24
3.08658E-01 5.52419E-24
3.12697E-01 5.34576E-24
3.16749E-01 5.17414E-24
3.20816E-01 5.00901E-24
3.24896E-01 4.85010E-24
3.28990E-01 4.69711E-24
3.33097E-01 4.54981E-24
3.37216E-01 4.40793E-24
3.41348E-01 4.27125E-24
3.45492E-01 4.13953E-24
3.49647E-01 4.01258E-24
3.53814E-01 3.89019E-24
3.57992E-01 3.77217E-24
3.62181E-01 3.65834E-24
3.66381E-01 3.54852E-24
3.70590E-01 3.44255E-24
3.74810E-01 3.34026E-24
3.79039E-01 3.24152E-24
3.83277E-01 3.14617E-24
3.87524E-01 3.05408E-24
3.91780E-01 2.96512E-24
3.96044E-01 2.87917E-24
4.00316E-01 2.79610E-24
4.04596E-01 2.71581E-24
4.08882E-01 2.63819E-24
4.13176E-01 2.56313E-24
4.17476E-01 2.49053E-24
4.21783E-01 2.42030E-24
4.26095E-01 2.35235E-24
4.30413E-01 2.28659E-24
4.34737E-01 2.22294E-24
4.39065E-01 2.16133E-24
4.43398E-01 2.10167E-24
4.47736E-01 2.04389E-24
4.52077E-01 1.98793E-24
4.56422E-01 1.93372E-24
4.60770E-01 1.88120E-24
4.65122E-01 1.83029E-24
4.69476E-01 1.78095E-24
4.73832E-01 1.73312E-24
4.78190E-01 1.68675E-24
4.82550E-01 1.64178E-24
4.86912E-01 1.59816E-24
4.91274E-01 1.55586E-24
4.95637E-01 1.51481E-24
5.00000E-01 1.47498E-24
5.04363E-01 1.43633E-24
5.08726E-01 1.39881E-24
5.13088E-01 1.36239E-24
5.17450E-01 1.32703E-24
5.21810E-01 1.29270E-24
5.26168E-01 1.25935E-24
5.30524E-01 1.22697E-24
5.34878E-01 1.19550E-24
5.39230E-01 1.16493E-24
5.43578E-01 1.13523E-24
5.47923E-01 1.10636E-24
5.52264E-01 1.07830E-24
5.56602E-01 1.05102E-24
5.60935E-01 1.02450E-24
5.65263E-01 9.98716E-25
5.69587E-01 9.73641E-25
5.73905E-01 9.49254E-25
5.78217E-01 9.25532E-25
5.82524E-01 9.02454E-25
5.86824E-01 8.80002E-25
5.91118E-01 8.58154E-25
5.95404E-01 8.36892E-25
5.99684E-01 8.16199E-25
6.03956E-01 7.96056E-25
6.08220E-01 7.76448E-25
6.12476E-01 7.57357E-25
6.16723E-01 7.38768E-25
6.20961E-01 7.20666E-25
6.25190E-01 7.03036E-25
6.29410E-01 6.85864E-25
6.33619E-01 6.69136E-25
6.37819E-01 6.52840E-25
6.42008E-01 6.36962E-25
6.46186E-01 6.21490E-25
6.50353E-01 6.06413E-25
6.54508E-01 5.91719E-25
6.58652E-01 5.77396E-25
6.62784E-01 5.63435E-25
6.66903E-01 5.49824E-25
6.71010E-01 5.36554E-25
6.75104E-01 5.23615E-25
6.79184E-01 5.10998E-25
6.83251E-01 4.98693E-25
6.87303E-01 4.86692E-25
6.91342E-01 4.74987E-25
6.95366E-01 4.63568E-25
6.99375E-01 4.52428E-25
7.03368E-01 4.41560E-25
7.07347E-01 4.30956E-25
7.11309E-01 4.20609E-25
7.15256E-01 4.10512E-25
7.19186E-01 4.00657E-25
7.23099E-01 3.91039E-25
7.26995E-01 3.81651E-25
7.30874E-01 3.72487E-25
7.34736E-01 3.63541E-25
7.38579E-01 3.54807E-25
7.42405E-01 3.46280E-25
7.46212E-01 3.37953E-25
7.50000E-01 3.29823E-25
7.53769E-01 3.21884E-25
7.57519E-01 3.14130E-25
7.61249E-01 3.06557E-25
7.64960E-01 2.99161E-25
7.68650E-01 2.91937E-25
7.72320E-01 2.84880E-25
7.75968E-01 2.77986E-25
7.79596E-01 2.71252E-25
7.83203E-01 2.64673E-25
7.86788E-01 2.58244E-25
7.90351E-01 2.51964E-25
7.93893E-01 2.45827E-25
7.97411E-01 2.39830E-25
8.00908E-01 2.33970E-25
8.04381E-01 2.28244E-25
8.07831E-01 2.22648E-25
8.11257E-01 2.17179E-25
8.14660E-01 2.11834E-25
8.18039E-01 2.06609E-25
8.21394E-01 2.01503E-25
8.24724E-01 1.96513E-25
8.28030E-01 1.91635E-25
8.31310E-01 1.86866E-25
8.34565E-01 1.82206E-25
8.37795E-01 1.77650E-25
8.40999E-01 1.73196E-25
8.44177E-01 1.68843E-25
8.47329E-01 1.64587E-25
8.50455E-01 1.60427E-25
8.53553E-01 1.56360E-25
8.56625E-01 1.52384E-25
8.59670E-01 1.48498E-25
8.62687E-01 1.44698E-25
8.65677E-01 1.40984E-25
8.68639E-01 1.37354E-25
8.71572E-01 1.33805E-25
8.74478E-01 1.30336E-25
8.77355E-01 1.26944E-25
8.80203E-01 1.23629E-25
8.83022E-01 1.20389E-25
8.85812E-01 1.17222E-25
8.88573E-01 1.14126E-25
8.91304E-01 1.11101E-25
8.94005E-01 1.08144E-25
8.96677E-01 1.05254E-25
8.99318E-01 1.02430E-25
9.01928E-01 9.96708E-26
9.04508E-01 9.69744E-26
9.07058E-01 9.43399E-26
9.09576E-01 9.17659E-26
9.12063E-01 8.92514E-26
9.14519E-01 8.67951E-26
9.16943E-01 8.43959E-26
9.19335E-01 8.20526E-26
9.21696E-01 7.97643E-26
9.24024E-01 7.75298E-26
9.26320E-01 7.53482E-26
9.28584E-01 7.32184E-26
9.30815E-01 7.11395E-26
9.33013E-01 6.91105E-26
9.35178E-01 6.71306E-26
9.37310E-01 6.51988E-26
9.39409E-01 6.33143E-26
9.41474E-01 6.14763E-26
9.43505E-01 5.96839E-26
9.45503E-01 5.79364E-26
9.47467E-01 5.62329E-26
9.49397E-01 5.45728E-26
9.51293E-01 5.29553E-26
9.53154E-01 5.13798E-26
9.54981E-01 4.98455E-26
9.56773E-01 4.83517E-26
9.58530E-01 4.68979E-26
9.60252E-01 4.54834E-26
9.61940E-01 4.41076E-26
9.63592E-01 4.27700E-26
9.65209E-01 4.14699E-26
9.66790E-01 4.02068E-26
9.68336E-01 3.89802E-26
9.69846E-01 3.77895E-26
9.71321E-01 3.66343E-26
9.72759E-01 3.55141E-26
9.74162E-01 3.44284E-26
9.75528E-01 3.33768E-26
9.76858E-01 3.23588E-26
9.78152E-01 3.13740E-26
9.79410E-01 3.04220E-26
9.80631E-01 2.95024E-26
9.81815E-01 2.86149E-26
9.82963E-01 2.77590E-26
9.84074E-01 2.69344E-26
9.85148E-01 2.61408E-26
9.86185E-01 2.53778E-26
9.87185E-01 2.46453E-26
9.88148E-01 2.39427E-26
9.89074E-01 2.32699E-26
9.89962E-01 2.26266E-26
9.90814E-01 2.20126E-26
9.91627E-01 2.14275E-26
9.92404E-01 2.08712E-26
9.93143E-01 2.03434E-26
9.93844E-01 1.98439E-26
9.94508E-01 1.93726E-26
9.95134E-01 1.89292E-26
9.95722E-01 1.85135E-26
9.96273E-01 1.81254E-26
9.96786E-01 1.77647E-26
9.97261E-01 1.74314E-26
9.97698E-01 1.71252E-26
9.98097E-01 1.68460E-26
9.98459E-01 1.65937E-26
9.98782E-01 1.63683E-26
9.99067E-01 1.61696E-26
9.99315E-01 1.59975E-26
9.99524E-01 1.58520E-26
9.99695E-01 1.57331E-26
9.99829E-01 1.56406E-26
9.99924E-01 1.55746E-26
9.99981E-01 1.55350E-26
1.00000E+00 1.55218E-26
