 #
 # Subroutine ELSEPA. Elastic scattering of electrons and positrons
 #                    by neutral atoms and positive ions
 #
 # Projectile: positron
 # Kinetic energy = 1.50000E+07 eV = 5.51240E+05 a.u.
 #
 # WARNING: High-energy factorization with free-atom DF screening.
 #          Absorption, polarization and exchange corrections are
 #          switched off.
 #          Phase shifts are calculated for the bare nucleus.
 #          Scattering amplitudes are not evaluated.
 #
 # Element: Ga,  Z =  31,  atomic weight = 6.97230E+01 g/mol
 #
 # Nuclear model: Fermi distribution
 #                Average radius = 4.40395E-13 cm
 #                Skin thickness = 5.46000E-14 cm
 #
 # Number of electrons = 31
 #
 # Total elastic cross section = 2.18347E-18 cm**2 = 7.79730E-02 a0**2
 # 1st transport cross section = 6.55742E-24 cm**2 = 2.34170E-07 a0**2
 # 2nd transport cross section = 1.90336E-23 cm**2 = 6.79702E-07 a0**2
 #
 #
 # Differential cross section:                       MU=(1-COS(THETA))/2
 #
 #  THETA        MU          DCS          DCS        Sherman      error
 #  (deg)                 (cm**2/sr)   (a0**2/sr)    function
 #----------------------------------------------------------------------
0.00000E+00 4.64571E-12
7.61557E-13 4.64537E-12
1.18994E-12 4.64518E-12
1.71346E-12 4.64495E-12
2.33225E-12 4.64467E-12
3.04617E-12 4.64436E-12
3.85530E-12 4.64400E-12
4.75964E-12 4.64361E-12
5.75917E-12 4.64317E-12
6.85391E-12 4.64269E-12
8.04379E-12 4.64216E-12
9.32893E-12 4.64160E-12
1.07092E-11 4.64099E-12
1.21847E-11 4.64035E-12
1.37554E-11 4.63966E-12
1.54213E-11 4.63893E-12
1.71823E-11 4.63816E-12
1.90386E-11 4.63735E-12
2.09900E-11 4.63649E-12
2.30367E-11 4.63560E-12
2.51785E-11 4.63466E-12
2.74156E-11 4.63369E-12
2.97478E-11 4.63267E-12
3.21752E-11 4.63161E-12
3.46979E-11 4.63051E-12
3.73157E-11 4.62937E-12
4.00286E-11 4.62819E-12
4.28368E-11 4.62696E-12
4.57402E-11 4.62570E-12
4.87388E-11 4.62440E-12
5.18325E-11 4.62305E-12
5.50215E-11 4.62166E-12
5.83057E-11 4.62024E-12
6.16850E-11 4.61877E-12
6.51595E-11 4.61726E-12
6.87293E-11 4.61572E-12
7.23943E-11 4.61413E-12
7.61544E-11 4.61250E-12
1.18991E-10 4.59403E-12
1.71347E-10 4.57162E-12
2.33223E-10 4.54539E-12
3.04617E-10 4.51544E-12
3.85531E-10 4.48190E-12
4.75965E-10 4.44493E-12
5.75917E-10 4.40467E-12
6.85389E-10 4.36128E-12
8.04380E-10 4.31495E-12
9.32891E-10 4.26585E-12
1.07092E-09 4.21398E-12
1.21847E-09 4.15984E-12
1.37554E-09 4.10369E-12
1.54213E-09 4.04552E-12
1.71823E-09 3.98527E-12
1.90386E-09 3.92363E-12
2.09900E-09 3.86082E-12
2.30367E-09 3.79638E-12
2.51785E-09 3.73095E-12
2.74156E-09 3.66494E-12
2.97478E-09 3.59831E-12
3.21752E-09 3.53067E-12
3.46978E-09 3.46298E-12
3.73156E-09 3.39538E-12
4.00286E-09 3.32731E-12
4.28368E-09 3.25928E-12
4.57402E-09 3.19176E-12
4.87388E-09 3.12471E-12
5.18326E-09 3.05748E-12
5.50215E-09 2.99109E-12
5.83057E-09 2.92563E-12
6.16850E-09 2.86052E-12
6.51596E-09 2.79609E-12
6.87293E-09 2.73281E-12
7.23942E-09 2.67065E-12
7.61544E-09 2.60880E-12
1.18991E-08 2.05419E-12
1.71347E-08 1.61487E-12
2.33223E-08 1.27894E-12
3.04617E-08 1.02539E-12
3.85531E-08 8.33732E-13
4.75965E-08 6.87446E-13
5.75917E-08 5.74227E-13
6.85389E-08 4.85150E-13
8.04380E-08 4.13931E-13
9.32891E-08 3.56128E-13
1.07092E-07 3.05809E-13
1.21847E-07 2.65628E-13
1.37554E-07 2.33655E-13
1.54213E-07 2.06268E-13
1.71823E-07 1.80759E-13
1.90386E-07 1.59984E-13
2.09900E-07 1.42886E-13
2.30367E-07 1.26591E-13
2.51785E-07 1.12465E-13
2.74156E-07 1.00647E-13
2.97478E-07 9.03440E-14
3.21752E-07 8.05529E-14
3.46978E-07 7.22490E-14
3.73156E-07 6.51607E-14
4.00286E-07 5.85730E-14
4.28368E-07 5.26982E-14
4.57402E-07 4.76287E-14
4.87388E-07 4.31769E-14
5.18325E-07 3.90015E-14
5.50215E-07 3.53628E-14
5.83057E-07 3.21783E-14
6.16850E-07 2.92718E-14
6.51596E-07 2.66477E-14
6.87293E-07 2.43320E-14
7.23942E-07 2.22755E-14
7.61543E-07 2.03703E-14
1.18991E-06 9.17481E-15
1.71347E-06 4.72933E-15
2.33223E-06 2.70722E-15
3.04617E-06 1.67224E-15
3.85531E-06 1.09219E-15
4.75964E-06 7.43515E-16
5.75916E-06 5.22745E-16
6.85388E-06 3.77440E-16
8.04378E-06 2.78772E-16
9.32888E-06 2.09993E-16
1.07092E-05 1.60885E-16
1.21846E-05 1.25323E-16
1.37553E-05 9.90223E-17
1.54212E-05 7.92027E-17
1.71822E-05 6.41076E-17
1.90385E-05 5.24389E-17
2.09899E-05 4.33145E-17
2.30365E-05 3.60924E-17
2.51783E-05 3.03175E-17
2.74153E-05 2.56541E-17
2.97475E-05 2.18534E-17
3.21749E-05 1.87337E-17
3.46974E-05 1.61538E-17
3.73152E-05 1.40037E-17
4.00281E-05 1.22012E-17
4.28362E-05 1.06808E-17
4.57395E-05 9.39033E-18
4.87380E-05 8.28893E-18
5.18317E-05 7.34465E-18
5.50205E-05 6.53127E-18
5.83045E-05 5.82710E-18
6.16838E-05 5.21550E-18
6.51582E-05 4.68225E-18
6.87277E-05 4.21541E-18
7.23925E-05 3.80532E-18
7.61524E-05 3.44397E-18
9.21439E-05 2.36436E-18
1.09658E-04 1.67610E-18
1.28695E-04 1.22077E-18
1.49255E-04 9.09827E-19
1.71338E-04 6.91744E-19
1.94942E-04 5.35145E-19
2.20070E-04 4.20385E-19
2.46720E-04 3.34752E-19
2.74892E-04 2.69815E-19
3.04586E-04 2.19865E-19
3.35803E-04 1.80937E-19
3.68542E-04 1.50242E-19
4.02802E-04 1.25778E-19
4.38585E-04 1.06089E-19
4.75889E-04 9.01003E-20
5.14715E-04 7.70083E-20
5.55063E-04 6.62067E-20
5.96931E-04 5.72312E-20
6.40321E-04 4.97241E-20
6.85233E-04 4.34065E-20
7.31665E-04 3.80595E-20
7.79618E-04 3.35098E-20
8.29092E-04 2.96189E-20
8.80086E-04 2.62758E-20
9.32601E-04 2.33906E-20
9.86636E-04 2.08900E-20
1.04219E-03 1.87143E-20
1.09927E-03 1.68141E-20
1.15786E-03 1.51487E-20
1.21797E-03 1.36840E-20
1.27961E-03 1.23919E-20
1.34276E-03 1.12484E-20
1.40743E-03 1.02336E-20
1.47362E-03 9.33050E-21
1.54133E-03 8.52464E-21
1.61056E-03 7.80377E-21
1.68131E-03 7.15735E-21
1.75357E-03 6.57636E-21
1.82735E-03 6.05302E-21
1.90265E-03 5.58060E-21
1.97947E-03 5.15329E-21
2.05780E-03 4.76601E-21
2.13765E-03 4.41436E-21
2.21902E-03 4.09448E-21
2.30190E-03 3.80298E-21
2.38630E-03 3.53691E-21
2.47222E-03 3.29365E-21
2.55965E-03 3.07090E-21
2.64859E-03 2.86661E-21
2.73905E-03 2.67899E-21
2.83103E-03 2.50644E-21
2.92452E-03 2.34752E-21
3.01952E-03 2.20096E-21
3.11604E-03 2.06563E-21
3.21407E-03 1.94052E-21
3.31362E-03 1.82471E-21
3.41468E-03 1.71739E-21
3.51725E-03 1.61782E-21
3.62133E-03 1.52534E-21
3.72692E-03 1.43936E-21
3.83403E-03 1.35933E-21
3.94265E-03 1.28478E-21
4.05278E-03 1.21524E-21
4.16442E-03 1.15034E-21
4.27757E-03 1.08970E-21
4.39223E-03 1.03298E-21
4.50840E-03 9.79901E-22
4.62608E-03 9.30174E-22
4.74527E-03 8.83551E-22
4.86597E-03 8.39804E-22
4.98817E-03 7.98721E-22
5.11188E-03 7.60111E-22
5.23711E-03 7.23798E-22
5.36383E-03 6.89621E-22
5.49207E-03 6.57429E-22
5.62181E-03 6.27088E-22
5.75306E-03 5.98471E-22
5.88581E-03 5.71461E-22
6.02007E-03 5.45953E-22
6.15583E-03 5.21846E-22
6.29310E-03 4.99050E-22
6.43187E-03 4.77481E-22
6.57214E-03 4.57060E-22
6.71392E-03 4.37715E-22
6.85720E-03 4.19379E-22
7.00198E-03 4.01988E-22
7.14827E-03 3.85487E-22
7.29605E-03 3.69819E-22
7.44534E-03 3.54937E-22
7.59612E-03 3.40792E-22
7.97965E-03 3.08382E-22
8.37255E-03 2.79719E-22
8.77480E-03 2.54297E-22
9.18641E-03 2.31686E-22
9.60736E-03 2.11522E-22
1.00376E-02 1.93495E-22
1.04773E-02 1.77340E-22
1.09262E-02 1.62828E-22
1.13844E-02 1.49764E-22
1.18520E-02 1.37977E-22
1.23288E-02 1.27322E-22
1.28150E-02 1.17671E-22
1.33104E-02 1.08912E-22
1.38150E-02 1.00949E-22
1.43290E-02 9.36963E-23
1.48521E-02 8.70801E-23
1.53845E-02 8.10344E-23
1.59262E-02 7.55013E-23
1.64770E-02 7.04298E-23
1.70371E-02 6.57745E-23
1.76063E-02 6.14952E-23
1.81848E-02 5.75562E-23
1.87724E-02 5.39256E-23
1.93692E-02 5.05749E-23
1.99751E-02 4.74788E-23
2.05901E-02 4.46144E-23
2.12143E-02 4.19614E-23
2.18476E-02 3.95014E-23
2.24900E-02 3.72177E-23
2.31415E-02 3.50955E-23
2.38021E-02 3.31213E-23
2.44717E-02 3.12831E-23
2.51504E-02 2.95696E-23
2.58382E-02 2.79710E-23
2.65349E-02 2.64781E-23
2.72407E-02 2.50828E-23
2.79555E-02 2.37774E-23
2.86793E-02 2.25552E-23
2.94120E-02 2.14098E-23
3.01537E-02 2.03357E-23
3.09043E-02 1.93275E-23
3.16639E-02 1.83805E-23
3.24324E-02 1.74902E-23
3.32098E-02 1.66528E-23
3.39961E-02 1.58644E-23
3.47912E-02 1.51217E-23
3.55952E-02 1.44216E-23
3.64081E-02 1.37611E-23
3.72297E-02 1.31377E-23
3.80602E-02 1.25489E-23
3.88995E-02 1.19923E-23
3.97476E-02 1.14660E-23
4.06044E-02 1.09679E-23
4.14700E-02 1.04963E-23
4.23443E-02 1.00496E-23
4.32273E-02 9.62603E-24
4.41190E-02 9.22441E-24
4.50194E-02 8.84328E-24
4.59284E-02 8.48141E-24
4.68461E-02 8.13766E-24
4.87074E-02 7.50030E-24
5.06030E-02 6.92348E-24
5.25328E-02 6.40045E-24
5.44967E-02 5.92534E-24
5.64946E-02 5.49300E-24
5.85262E-02 5.09893E-24
6.05914E-02 4.73914E-24
6.26901E-02 4.41014E-24
6.48222E-02 4.10885E-24
6.69873E-02 3.83252E-24
6.91854E-02 3.57872E-24
7.14163E-02 3.34531E-24
7.36799E-02 3.13036E-24
7.59760E-02 2.93215E-24
7.83043E-02 2.74917E-24
8.06647E-02 2.58002E-24
8.30571E-02 2.42349E-24
8.54812E-02 2.27847E-24
8.79369E-02 2.14396E-24
9.04240E-02 2.01908E-24
9.29422E-02 1.90301E-24
9.54915E-02 1.79502E-24
9.80716E-02 1.69445E-24
1.00682E-01 1.60071E-24
1.03323E-01 1.51324E-24
1.05995E-01 1.43156E-24
1.08696E-01 1.35521E-24
1.11427E-01 1.28379E-24
1.14188E-01 1.21692E-24
1.16978E-01 1.15426E-24
1.19797E-01 1.09551E-24
1.22645E-01 1.04037E-24
1.25522E-01 9.88577E-25
1.28428E-01 9.39903E-25
1.31361E-01 8.94122E-25
1.34323E-01 8.51034E-25
1.37313E-01 8.10451E-25
1.40330E-01 7.72203E-25
1.43375E-01 7.36132E-25
1.46447E-01 7.02092E-25
1.49545E-01 6.69950E-25
1.52671E-01 6.39580E-25
1.55823E-01 6.10868E-25
1.59001E-01 5.83708E-25
1.62205E-01 5.58001E-25
1.65435E-01 5.33656E-25
1.68690E-01 5.10588E-25
1.71970E-01 4.88719E-25
1.75276E-01 4.67975E-25
1.78606E-01 4.48288E-25
1.81961E-01 4.29595E-25
1.85340E-01 4.11838E-25
1.88743E-01 3.94961E-25
1.92169E-01 3.78913E-25
1.95619E-01 3.63646E-25
1.99092E-01 3.49115E-25
2.02589E-01 3.35280E-25
2.06107E-01 3.22100E-25
2.09649E-01 3.09540E-25
2.13212E-01 2.97565E-25
2.16797E-01 2.86144E-25
2.20404E-01 2.75245E-25
2.24032E-01 2.64842E-25
2.27680E-01 2.54908E-25
2.31350E-01 2.45418E-25
2.35040E-01 2.36348E-25
2.38751E-01 2.27677E-25
2.42481E-01 2.19385E-25
2.46231E-01 2.11452E-25
2.50000E-01 2.03859E-25
2.53788E-01 1.96590E-25
2.57595E-01 1.89628E-25
2.61421E-01 1.82959E-25
2.65264E-01 1.76567E-25
2.69126E-01 1.70440E-25
2.73005E-01 1.64564E-25
2.76901E-01 1.58928E-25
2.80814E-01 1.53520E-25
2.84744E-01 1.48329E-25
2.88691E-01 1.43344E-25
2.92653E-01 1.38558E-25
2.96632E-01 1.33959E-25
3.00625E-01 1.29540E-25
3.04634E-01 1.25292E-25
3.08658E-01 1.21208E-25
3.12697E-01 1.17280E-25
3.16749E-01 1.13501E-25
3.20816E-01 1.09865E-25
3.24896E-01 1.06366E-25
3.28990E-01 1.02996E-25
3.33097E-01 9.97513E-26
3.37216E-01 9.66258E-26
3.41348E-01 9.36144E-26
3.45492E-01 9.07124E-26
3.49647E-01 8.79150E-26
3.53814E-01 8.52179E-26
3.57992E-01 8.26169E-26
3.62181E-01 8.01079E-26
3.66381E-01 7.76872E-26
3.70590E-01 7.53512E-26
3.74810E-01 7.30963E-26
3.79039E-01 7.09194E-26
3.83277E-01 6.88173E-26
3.87524E-01 6.67869E-26
3.91780E-01 6.48255E-26
3.96044E-01 6.29303E-26
4.00316E-01 6.10986E-26
4.04596E-01 5.93281E-26
4.08882E-01 5.76164E-26
4.13176E-01 5.59611E-26
4.17476E-01 5.43602E-26
4.21783E-01 5.28114E-26
4.26095E-01 5.13130E-26
4.30413E-01 4.98629E-26
4.34737E-01 4.84593E-26
4.39065E-01 4.71006E-26
4.43398E-01 4.57850E-26
4.47736E-01 4.45110E-26
4.52077E-01 4.32770E-26
4.56422E-01 4.20816E-26
4.60770E-01 4.09234E-26
4.65122E-01 3.98010E-26
4.69476E-01 3.87132E-26
4.73832E-01 3.76587E-26
4.78190E-01 3.66364E-26
4.82550E-01 3.56450E-26
4.86912E-01 3.46836E-26
4.91274E-01 3.37510E-26
4.95637E-01 3.28463E-26
5.00000E-01 3.19685E-26
5.04363E-01 3.11167E-26
5.08726E-01 3.02900E-26
5.13088E-01 2.94875E-26
5.17450E-01 2.87085E-26
5.21810E-01 2.79520E-26
5.26168E-01 2.72175E-26
5.30524E-01 2.65041E-26
5.34878E-01 2.58111E-26
5.39230E-01 2.51379E-26
5.43578E-01 2.44838E-26
5.47923E-01 2.38482E-26
5.52264E-01 2.32305E-26
5.56602E-01 2.26301E-26
5.60935E-01 2.20465E-26
5.65263E-01 2.14790E-26
5.69587E-01 2.09273E-26
5.73905E-01 2.03908E-26
5.78217E-01 1.98690E-26
5.82524E-01 1.93614E-26
5.86824E-01 1.88677E-26
5.91118E-01 1.83873E-26
5.95404E-01 1.79199E-26
5.99684E-01 1.74650E-26
6.03956E-01 1.70224E-26
6.08220E-01 1.65915E-26
6.12476E-01 1.61721E-26
6.16723E-01 1.57638E-26
6.20961E-01 1.53662E-26
6.25190E-01 1.49791E-26
6.29410E-01 1.46021E-26
6.33619E-01 1.42350E-26
6.37819E-01 1.38774E-26
6.42008E-01 1.35290E-26
6.46186E-01 1.31896E-26
6.50353E-01 1.28589E-26
6.54508E-01 1.25367E-26
6.58652E-01 1.22227E-26
6.62784E-01 1.19167E-26
6.66903E-01 1.16185E-26
6.71010E-01 1.13277E-26
6.75104E-01 1.10443E-26
6.79184E-01 1.07680E-26
6.83251E-01 1.04986E-26
6.87303E-01 1.02359E-26
6.91342E-01 9.97973E-27
6.95366E-01 9.72991E-27
6.99375E-01 9.48625E-27
7.03368E-01 9.24858E-27
7.07347E-01 9.01674E-27
7.11309E-01 8.79057E-27
7.15256E-01 8.56992E-27
7.19186E-01 8.35463E-27
7.23099E-01 8.14456E-27
7.26995E-01 7.93957E-27
7.30874E-01 7.73952E-27
7.34736E-01 7.54428E-27
7.38579E-01 7.35372E-27
7.42405E-01 7.16771E-27
7.46212E-01 6.98615E-27
7.50000E-01 6.80890E-27
7.53769E-01 6.63586E-27
7.57519E-01 6.46692E-27
7.61249E-01 6.30196E-27
7.64960E-01 6.14090E-27
7.68650E-01 5.98362E-27
7.72320E-01 5.83003E-27
7.75968E-01 5.68004E-27
7.79596E-01 5.53355E-27
7.83203E-01 5.39048E-27
7.86788E-01 5.25073E-27
7.90351E-01 5.11423E-27
7.93893E-01 4.98090E-27
7.97411E-01 4.85065E-27
8.00908E-01 4.72341E-27
8.04381E-01 4.59911E-27
8.07831E-01 4.47766E-27
8.11257E-01 4.35901E-27
8.14660E-01 4.24309E-27
8.18039E-01 4.12982E-27
8.21394E-01 4.01915E-27
8.24724E-01 3.91101E-27
8.28030E-01 3.80535E-27
8.31310E-01 3.70209E-27
8.34565E-01 3.60119E-27
8.37795E-01 3.50259E-27
8.40999E-01 3.40624E-27
8.44177E-01 3.31208E-27
8.47329E-01 3.22007E-27
8.50455E-01 3.13014E-27
8.53553E-01 3.04226E-27
8.56625E-01 2.95638E-27
8.59670E-01 2.87246E-27
8.62687E-01 2.79044E-27
8.65677E-01 2.71028E-27
8.68639E-01 2.63195E-27
8.71572E-01 2.55541E-27
8.74478E-01 2.48060E-27
8.77355E-01 2.40750E-27
8.80203E-01 2.33607E-27
8.83022E-01 2.26627E-27
8.85812E-01 2.19807E-27
8.88573E-01 2.13142E-27
8.91304E-01 2.06631E-27
8.94005E-01 2.00269E-27
8.96677E-01 1.94053E-27
8.99318E-01 1.87981E-27
9.01928E-01 1.82049E-27
9.04508E-01 1.76255E-27
9.07058E-01 1.70595E-27
9.09576E-01 1.65067E-27
9.12063E-01 1.59668E-27
9.14519E-01 1.54396E-27
9.16943E-01 1.49248E-27
9.19335E-01 1.44221E-27
9.21696E-01 1.39313E-27
9.24024E-01 1.34523E-27
9.26320E-01 1.29847E-27
9.28584E-01 1.25283E-27
9.30815E-01 1.20830E-27
9.33013E-01 1.16485E-27
9.35178E-01 1.12246E-27
9.37310E-01 1.08111E-27
9.39409E-01 1.04079E-27
9.41474E-01 1.00147E-27
9.43505E-01 9.63134E-28
9.45503E-01 9.25769E-28
9.47467E-01 8.89357E-28
9.49397E-01 8.53880E-28
9.51293E-01 8.19323E-28
9.53154E-01 7.85670E-28
9.54981E-01 7.52906E-28
9.56773E-01 7.21016E-28
9.58530E-01 6.89986E-28
9.60252E-01 6.59802E-28
9.61940E-01 6.30451E-28
9.63592E-01 6.01920E-28
9.65209E-01 5.74197E-28
9.66790E-01 5.47268E-28
9.68336E-01 5.21123E-28
9.69846E-01 4.95750E-28
9.71321E-01 4.71137E-28
9.72759E-01 4.47275E-28
9.74162E-01 4.24153E-28
9.75528E-01 4.01760E-28
9.76858E-01 3.80087E-28
9.78152E-01 3.59126E-28
9.79410E-01 3.38866E-28
9.80631E-01 3.19299E-28
9.81815E-01 3.00417E-28
9.82963E-01 2.82212E-28
9.84074E-01 2.64676E-28
9.85148E-01 2.47801E-28
9.86185E-01 2.31581E-28
9.87185E-01 2.16008E-28
9.88148E-01 2.01076E-28
9.89074E-01 1.86779E-28
9.89962E-01 1.73110E-28
9.90814E-01 1.60064E-28
9.91627E-01 1.47636E-28
9.92404E-01 1.35819E-28
9.93143E-01 1.24610E-28
9.93844E-01 1.14004E-28
9.94508E-01 1.03995E-28
9.95134E-01 9.45806E-29
9.95722E-01 8.57560E-29
9.96273E-01 7.75178E-29
9.96786E-01 6.98624E-29
9.97261E-01 6.27867E-29
9.97698E-01 5.62878E-29
9.98097E-01 5.03631E-29
9.98459E-01 4.50099E-29
9.98782E-01 4.02262E-29
9.99067E-01 3.60099E-29
9.99315E-01 3.23592E-29
9.99524E-01 2.92728E-29
9.99695E-01 2.67493E-29
9.99829E-01 2.47876E-29
9.99924E-01 2.33870E-29
9.99981E-01 2.25469E-29
1.00000E+00 2.22669E-29
