 #
 # Subroutine ELSEPA. Elastic scattering of electrons and positrons
 #                    by neutral atoms and positive ions
 #
 # Projectile: positron
 # Kinetic energy = 5.00000E+08 eV = 1.83747E+07 a.u.
 #
 # WARNING: High-energy factorization with free-atom DF screening.
 #          Absorption, polarization and exchange corrections are
 #          switched off.
 #          Phase shifts are calculated for the bare nucleus.
 #          Scattering amplitudes are not evaluated.
 #
 # Element: Ga,  Z =  31,  atomic weight = 6.97230E+01 g/mol
 #
 # Nuclear model: Fermi distribution
 #                Average radius = 4.40395E-13 cm
 #                Skin thickness = 5.46000E-14 cm
 #
 # Number of electrons = 31
 #
 # Total elastic cross section = 2.17862E-18 cm**2 = 7.78000E-02 a0**2
 # 1st transport cross section = 7.80699E-27 cm**2 = 2.78793E-10 a0**2
 # 2nd transport cross section = 2.34100E-26 cm**2 = 8.35986E-10 a0**2
 #
 #
 # Differential cross section:                       MU=(1-COS(THETA))/2
 #
 #  THETA        MU          DCS          DCS        Sherman      error
 #  (deg)                 (cm**2/sr)   (a0**2/sr)    function
 #----------------------------------------------------------------------
0.00000E+00 4.83726E-09
7.61557E-13 4.49718E-09
1.18994E-12 4.32321E-09
1.71346E-12 4.12601E-09
2.33225E-12 3.91223E-09
3.04617E-12 3.68846E-09
3.85530E-12 3.46057E-09
4.75964E-12 3.23360E-09
5.75917E-12 3.01161E-09
6.85391E-12 2.79748E-09
8.04379E-12 2.59353E-09
9.32893E-12 2.40133E-09
1.07092E-11 2.22166E-09
1.21847E-11 2.05481E-09
1.37554E-11 1.90065E-09
1.54213E-11 1.75878E-09
1.71823E-11 1.62864E-09
1.90386E-11 1.50949E-09
2.09900E-11 1.40060E-09
2.30367E-11 1.30116E-09
2.51785E-11 1.21036E-09
2.74156E-11 1.12741E-09
2.97478E-11 1.05167E-09
3.21752E-11 9.82482E-10
3.46979E-11 9.19217E-10
3.73157E-11 8.61307E-10
4.00286E-11 8.08230E-10
4.28368E-11 7.59515E-10
4.57402E-11 7.14739E-10
4.87388E-11 6.73516E-10
5.18325E-11 6.35504E-10
5.50215E-11 6.00392E-10
5.83057E-11 5.67863E-10
6.16850E-11 5.37708E-10
6.51595E-11 5.09714E-10
6.87293E-11 4.83682E-10
7.23943E-11 4.59434E-10
7.61544E-11 4.36811E-10
1.18991E-10 2.71414E-10
1.71347E-10 1.79713E-10
2.33223E-10 1.22702E-10
3.04617E-10 8.55315E-11
3.85531E-10 6.06357E-11
4.75965E-10 4.36703E-11
5.75917E-10 3.19518E-11
6.85389E-10 2.37367E-11
8.04380E-10 1.79244E-11
9.32891E-10 1.37596E-11
1.07092E-09 1.07290E-11
1.21847E-09 8.48999E-12
1.37554E-09 6.81085E-12
1.54213E-09 5.53318E-12
1.71823E-09 4.54729E-12
1.90386E-09 3.77635E-12
2.09900E-09 3.16592E-12
2.30367E-09 2.67698E-12
2.51785E-09 2.28040E-12
2.74156E-09 1.95587E-12
2.97478E-09 1.68805E-12
3.21752E-09 1.46516E-12
3.46978E-09 1.27823E-12
3.73156E-09 1.12034E-12
4.00286E-09 9.86119E-13
4.28368E-09 8.71355E-13
4.57402E-09 7.72710E-13
4.87388E-09 6.87520E-13
5.18326E-09 6.13636E-13
5.50215E-09 5.49305E-13
5.83057E-09 4.93055E-13
6.16850E-09 4.43734E-13
6.51596E-09 4.00353E-13
6.87293E-09 3.62077E-13
7.23942E-09 3.28204E-13
7.61544E-09 2.98144E-13
1.18991E-08 1.26312E-13
1.71347E-08 6.20303E-14
2.33223E-08 3.39097E-14
3.04617E-08 2.00848E-14
3.85531E-08 1.26531E-14
4.75965E-08 8.36774E-15
5.75917E-08 5.75443E-15
6.85389E-08 4.08661E-15
8.04380E-08 2.98162E-15
9.32891E-08 2.22599E-15
1.07092E-07 1.69505E-15
1.21847E-07 1.31324E-15
1.37554E-07 1.03301E-15
1.54213E-07 8.23615E-16
1.71823E-07 6.64613E-16
1.90386E-07 5.42150E-16
2.09900E-07 4.46606E-16
2.30367E-07 3.71185E-16
2.51785E-07 3.11016E-16
2.74156E-07 2.62547E-16
2.97478E-07 2.23153E-16
3.21752E-07 1.90870E-16
3.46978E-07 1.64214E-16
3.73156E-07 1.42050E-16
4.00286E-07 1.23499E-16
4.28368E-07 1.07877E-16
4.57402E-07 9.46474E-17
4.87388E-07 8.33837E-17
5.18325E-07 7.37457E-17
5.50215E-07 6.54601E-17
5.83057E-07 5.83054E-17
6.16850E-07 5.21016E-17
6.51596E-07 4.67009E-17
6.87293E-07 4.19819E-17
7.23942E-07 3.78439E-17
7.61543E-07 3.42032E-17
1.18991E-06 1.40198E-17
1.71347E-06 6.76301E-18
2.33223E-06 3.65085E-18
3.04617E-06 2.14007E-18
3.85531E-06 1.33598E-18
4.75964E-06 8.76474E-19
5.75916E-06 5.98592E-19
6.85388E-06 4.22604E-19
8.04378E-06 3.06789E-19
9.32888E-06 2.28062E-19
1.07092E-05 1.73041E-19
1.21846E-05 1.33655E-19
1.37553E-05 1.04862E-19
1.54212E-05 8.34199E-20
1.71822E-05 6.71880E-20
1.90385E-05 5.47117E-20
2.09899E-05 4.50123E-20
2.30365E-05 3.73687E-20
2.51783E-05 3.12786E-20
2.74153E-05 2.63783E-20
2.97475E-05 2.24000E-20
3.21749E-05 1.91438E-20
3.46974E-05 1.64585E-20
3.73152E-05 1.42284E-20
4.00281E-05 1.23638E-20
4.28362E-05 1.07950E-20
4.57395E-05 9.46722E-21
4.87380E-05 8.33728E-21
5.18317E-05 7.37079E-21
5.50205E-05 6.54020E-21
5.83045E-05 5.82328E-21
6.16838E-05 5.20192E-21
6.51582E-05 4.66129E-21
6.87277E-05 4.18913E-21
7.23925E-05 3.77530E-21
7.61524E-05 3.39785E-21
9.21439E-05 2.31670E-21
1.09658E-04 1.63252E-21
1.28695E-04 1.18275E-21
1.49255E-04 8.77266E-22
1.71338E-04 6.64029E-22
1.94942E-04 5.11550E-22
2.20070E-04 4.00225E-22
2.46720E-04 3.17437E-22
2.74892E-04 2.54853E-22
3.04586E-04 2.06851E-22
3.35803E-04 1.69544E-22
3.68542E-04 1.40206E-22
4.02802E-04 1.16884E-22
4.38585E-04 9.81609E-23
4.75889E-04 8.29956E-23
5.14715E-04 7.06092E-23
5.55063E-04 6.04161E-23
5.96931E-04 5.19682E-23
6.40321E-04 4.49212E-23
6.85233E-04 3.90069E-23
7.31665E-04 3.40152E-23
7.79618E-04 2.97800E-23
8.29092E-04 2.61687E-23
8.80086E-04 2.30752E-23
9.32601E-04 2.04138E-23
9.86636E-04 1.81146E-23
1.04219E-03 1.61208E-23
1.09927E-03 1.43854E-23
1.15786E-03 1.28697E-23
1.21797E-03 1.15417E-23
1.27961E-03 1.03744E-23
1.34276E-03 9.34553E-24
1.40743E-03 8.43601E-24
1.47362E-03 7.62990E-24
1.54133E-03 6.91365E-24
1.61056E-03 6.27572E-24
1.68131E-03 5.70623E-24
1.75357E-03 5.19673E-24
1.82735E-03 4.73995E-24
1.90265E-03 4.32962E-24
1.97947E-03 3.96031E-24
2.05780E-03 3.62731E-24
2.13765E-03 3.32653E-24
2.21902E-03 3.05439E-24
2.30190E-03 2.80777E-24
2.38630E-03 2.58393E-24
2.47222E-03 2.38047E-24
2.55965E-03 2.19526E-24
2.64859E-03 2.02643E-24
2.73905E-03 1.87234E-24
2.83103E-03 1.73152E-24
2.92452E-03 1.60267E-24
3.01952E-03 1.48464E-24
3.11604E-03 1.37639E-24
3.21407E-03 1.27700E-24
3.31362E-03 1.18565E-24
3.41468E-03 1.10161E-24
3.51725E-03 1.02422E-24
3.62133E-03 9.52882E-25
3.72692E-03 8.87064E-25
3.83403E-03 8.26285E-25
3.94265E-03 7.70113E-25
4.05278E-03 7.18156E-25
4.16442E-03 6.70059E-25
4.27757E-03 6.25501E-25
4.39223E-03 5.84193E-25
4.50840E-03 5.45868E-25
4.62608E-03 5.10289E-25
4.74527E-03 4.77235E-25
4.86597E-03 4.46508E-25
4.98817E-03 4.17926E-25
5.11188E-03 3.91324E-25
5.23711E-03 3.66549E-25
5.36383E-03 3.43465E-25
5.49207E-03 3.21943E-25
5.62181E-03 3.01868E-25
5.75306E-03 2.83132E-25
5.88581E-03 2.65638E-25
6.02007E-03 2.49295E-25
6.15583E-03 2.34022E-25
6.29310E-03 2.19742E-25
6.43187E-03 2.06384E-25
6.57214E-03 1.93883E-25
6.71392E-03 1.82181E-25
6.85720E-03 1.71222E-25
7.00198E-03 1.60955E-25
7.14827E-03 1.51333E-25
7.29605E-03 1.42312E-25
7.44534E-03 1.33852E-25
7.59612E-03 1.25916E-25
7.97965E-03 1.08144E-25
8.37255E-03 9.29571E-26
8.77480E-03 7.99582E-26
9.18641E-03 6.88159E-26
9.60736E-03 5.92526E-26
1.00376E-02 5.10349E-26
1.04773E-02 4.39663E-26
1.09262E-02 3.78808E-26
1.13844E-02 3.26376E-26
1.18520E-02 2.81173E-26
1.23288E-02 2.42182E-26
1.28150E-02 2.08536E-26
1.33104E-02 1.79493E-26
1.38150E-02 1.54419E-26
1.43290E-02 1.32770E-26
1.48521E-02 1.14079E-26
1.53845E-02 9.79430E-27
1.59262E-02 8.40169E-27
1.64770E-02 7.20019E-27
1.70371E-02 6.16401E-27
1.76063E-02 5.27090E-27
1.81848E-02 4.50160E-27
1.87724E-02 3.83945E-27
1.93692E-02 3.27000E-27
1.99751E-02 2.78076E-27
2.05901E-02 2.36088E-27
2.12143E-02 2.00097E-27
2.18476E-02 1.69286E-27
2.24900E-02 1.42947E-27
2.31415E-02 1.20468E-27
2.38021E-02 1.01315E-27
2.44717E-02 8.50267E-28
2.51504E-02 7.12024E-28
2.58382E-02 5.94950E-28
2.65349E-02 4.96036E-28
2.72407E-02 4.12677E-28
2.79555E-02 3.42620E-28
2.86793E-02 2.83916E-28
2.94120E-02 2.34882E-28
3.01537E-02 1.94066E-28
3.09043E-02 1.60217E-28
3.16639E-02 1.32259E-28
3.24324E-02 1.09266E-28
3.32098E-02 9.04446E-29
3.39961E-02 7.51159E-29
3.47912E-02 6.26993E-29
3.55952E-02 5.27003E-29
3.64081E-02 4.46982E-29
3.72297E-02 3.83367E-29
3.80602E-02 3.33143E-29
3.88995E-02 2.93774E-29
3.97476E-02 2.63132E-29
4.06044E-02 2.39438E-29
4.14700E-02 2.21216E-29
4.23443E-02 2.07244E-29
4.32273E-02 1.96521E-29
4.41190E-02 1.88228E-29
4.50194E-02 1.81706E-29
4.59284E-02 1.76425E-29
4.68461E-02 1.71970E-29
4.87074E-02 1.64313E-29
5.06030E-02 1.56981E-29
5.25328E-02 1.49066E-29
5.44967E-02 1.40210E-29
5.64946E-02 1.30401E-29
5.85262E-02 1.19818E-29
6.05914E-02 1.08739E-29
6.26901E-02 9.74695E-30
6.48222E-02 8.63014E-30
6.69873E-02 7.54904E-30
6.91854E-02 6.52432E-30
7.14163E-02 5.57143E-30
7.36799E-02 4.70073E-30
7.59760E-02 3.91803E-30
7.83043E-02 3.22523E-30
8.06647E-02 2.62105E-30
8.30571E-02 2.10175E-30
8.54812E-02 1.66180E-30
8.79369E-02 1.29449E-30
9.04240E-02 9.92393E-31
9.29422E-02 7.47834E-31
9.54915E-02 5.53176E-31
9.80716E-02 4.01089E-31
1.00682E-01 2.84718E-31
1.03323E-01 1.97805E-31
1.05995E-01 1.34751E-31
1.08696E-01 9.06412E-32
1.11427E-01 6.12452E-32
1.14188E-01 4.29831E-32
1.16978E-01 3.28832E-32
1.19797E-01 2.85263E-32
1.22645E-01 2.79853E-32
1.25522E-01 2.97617E-32
1.28428E-01 3.27236E-32
1.31361E-01 3.60468E-32
1.34323E-01 3.91596E-32
1.37313E-01 4.16930E-32
1.40330E-01 4.34374E-32
1.43375E-01 4.43039E-32
1.46447E-01 4.42922E-32
1.49545E-01 4.34641E-32
1.52671E-01 4.19208E-32
1.55823E-01 3.97864E-32
1.59001E-01 3.71941E-32
1.62205E-01 3.42761E-32
1.65435E-01 3.11571E-32
1.68690E-01 2.79488E-32
1.71970E-01 2.47478E-32
1.75276E-01 2.16341E-32
1.78606E-01 1.86711E-32
1.81961E-01 1.59059E-32
1.85340E-01 1.33712E-32
1.88743E-01 1.10865E-32
1.92169E-01 9.06040E-33
1.95619E-01 7.29197E-33
1.99092E-01 5.77304E-33
2.02589E-01 4.48980E-33
2.06107E-01 3.42441E-33
2.09649E-01 2.55639E-33
2.13212E-01 1.86387E-33
2.16797E-01 1.32451E-33
2.20404E-01 9.16380E-34
2.24032E-01 6.18507E-34
2.27680E-01 4.11366E-34
2.31350E-01 2.77164E-34
2.35040E-01 2.00028E-34
2.38751E-01 1.66079E-34
2.42481E-01 1.63426E-34
2.46231E-01 1.82098E-34
2.50000E-01 2.13923E-34
2.53788E-01 2.52378E-34
2.57595E-01 2.92421E-34
2.61421E-01 3.30303E-34
2.65264E-01 3.63392E-34
2.69126E-01 3.89989E-34
2.73005E-01 4.09162E-34
2.76901E-01 4.20590E-34
2.80814E-01 4.24423E-34
2.84744E-01 4.21161E-34
2.88691E-01 4.11543E-34
2.92653E-01 3.96461E-34
2.96632E-01 3.76885E-34
3.00625E-01 3.53804E-34
3.04634E-01 3.28180E-34
3.08658E-01 3.00917E-34
3.12697E-01 2.72833E-34
3.16749E-01 2.44646E-34
3.20816E-01 2.16970E-34
3.24896E-01 1.90307E-34
3.28990E-01 1.65057E-34
3.33097E-01 1.41514E-34
3.37216E-01 1.19887E-34
3.41348E-01 1.00298E-34
3.45492E-01 8.27989E-35
3.49647E-01 6.73835E-35
3.53814E-01 5.39942E-35
3.57992E-01 4.25357E-35
3.62181E-01 3.28829E-35
3.66381E-01 2.48902E-35
3.70590E-01 1.83997E-35
3.74810E-01 1.32462E-35
3.79039E-01 9.26405E-36
3.83277E-01 6.29129E-36
3.87524E-01 4.17326E-36
3.91780E-01 2.76466E-36
3.96044E-01 1.93226E-36
4.00316E-01 1.55562E-36
4.04596E-01 1.52770E-36
4.08882E-01 1.75516E-36
4.13176E-01 2.15794E-36
4.17476E-01 2.66877E-36
4.21783E-01 3.23230E-36
4.26095E-01 3.80424E-36
4.30413E-01 4.35016E-36
4.34737E-01 4.84440E-36
4.39065E-01 5.26904E-36
4.43398E-01 5.61267E-36
4.47736E-01 5.86937E-36
4.52077E-01 6.03767E-36
4.56422E-01 6.11972E-36
4.60770E-01 6.12032E-36
4.65122E-01 6.04635E-36
4.69476E-01 5.90604E-36
4.73832E-01 5.70853E-36
4.78190E-01 5.46318E-36
4.82550E-01 5.17948E-36
4.86912E-01 4.86652E-36
4.91274E-01 4.53304E-36
4.95637E-01 4.18699E-36
5.00000E-01 3.83551E-36
5.04363E-01 3.48499E-36
5.08726E-01 3.14077E-36
5.13088E-01 2.80754E-36
5.17450E-01 2.48897E-36
5.21810E-01 2.18792E-36
5.26168E-01 1.90660E-36
5.30524E-01 1.64641E-36
5.34878E-01 1.40826E-36
5.39230E-01 1.19253E-36
5.43578E-01 9.98997E-37
5.47923E-01 8.27207E-37
5.52264E-01 6.76307E-37
5.56602E-01 5.45261E-37
5.60935E-01 4.32793E-37
5.65263E-01 3.37528E-37
5.69587E-01 2.57986E-37
5.73905E-01 1.92738E-37
5.78217E-01 1.40202E-37
5.82524E-01 9.89344E-38
5.86824E-01 6.74985E-38
5.91118E-01 4.45399E-38
5.95404E-01 2.87846E-38
5.99684E-01 1.90648E-38
6.03956E-01 1.42820E-38
6.08220E-01 1.34746E-38
6.12476E-01 1.57638E-38
6.16723E-01 2.03827E-38
6.20961E-01 2.66611E-38
6.25190E-01 3.40211E-38
6.29410E-01 4.19759E-38
6.33619E-01 5.01175E-38
6.37819E-01 5.81155E-38
6.42008E-01 6.57046E-38
6.46186E-01 7.26841E-38
6.50353E-01 7.89025E-38
6.54508E-01 8.42699E-38
6.58652E-01 8.87012E-38
6.62784E-01 9.21930E-38
6.66903E-01 9.47366E-38
6.71010E-01 9.63592E-38
6.75104E-01 9.70984E-38
6.79184E-01 9.70182E-38
6.83251E-01 9.61797E-38
6.87303E-01 9.46724E-38
6.91342E-01 9.25509E-38
6.95366E-01 8.99132E-38
6.99375E-01 8.68228E-38
7.03368E-01 8.33760E-38
7.07347E-01 7.96185E-38
7.11309E-01 7.56610E-38
7.15256E-01 7.15276E-38
7.19186E-01 6.73035E-38
7.23099E-01 6.30228E-38
7.26995E-01 5.87470E-38
7.30874E-01 5.45111E-38
7.34736E-01 5.03567E-38
7.38579E-01 4.63196E-38
7.42405E-01 4.24108E-38
7.46212E-01 3.86638E-38
7.50000E-01 3.50900E-38
7.53769E-01 3.17140E-38
7.57519E-01 2.85298E-38
7.61249E-01 2.55438E-38
7.64960E-01 2.27627E-38
7.68650E-01 2.01924E-38
7.72320E-01 1.78214E-38
7.75968E-01 1.56467E-38
7.79596E-01 1.36623E-38
7.83203E-01 1.18629E-38
7.86788E-01 1.02399E-38
7.90351E-01 8.78165E-39
7.93893E-01 7.47793E-39
7.97411E-01 6.31958E-39
8.00908E-01 5.29714E-39
8.04381E-01 4.40184E-39
8.07831E-01 3.62064E-39
8.11257E-01 2.94263E-39
8.14660E-01 2.36342E-39
8.18039E-01 1.87067E-39
8.21394E-01 1.45612E-39
8.24724E-01 1.11051E-39
8.28030E-01 8.27909E-40
8.31310E-01 6.01566E-40
8.34565E-01 1.00000E-45
8.37795E-01 1.00000E-45
8.40999E-01 1.00000E-45
8.44177E-01 1.00000E-45
8.47329E-01 1.00000E-45
8.50455E-01 1.00000E-45
8.53553E-01 1.00000E-45
8.56625E-01 1.00000E-45
8.59670E-01 1.00000E-45
8.62687E-01 1.00000E-45
8.65677E-01 1.00000E-45
8.68639E-01 1.00000E-45
8.71572E-01 1.00000E-45
8.74478E-01 1.00000E-45
8.77355E-01 1.00000E-45
8.80203E-01 1.00000E-45
8.83022E-01 1.00000E-45
8.85812E-01 1.00000E-45
8.88573E-01 1.00000E-45
8.91304E-01 1.00000E-45
8.94005E-01 1.00000E-45
8.96677E-01 1.00000E-45
8.99318E-01 1.00000E-45
9.01928E-01 1.00000E-45
9.04508E-01 1.00000E-45
9.07058E-01 1.00000E-45
9.09576E-01 1.00000E-45
9.12063E-01 1.00000E-45
9.14519E-01 1.00000E-45
9.16943E-01 1.00000E-45
9.19335E-01 1.00000E-45
9.21696E-01 1.00000E-45
9.24024E-01 1.00000E-45
9.26320E-01 1.00000E-45
9.28584E-01 1.00000E-45
9.30815E-01 1.00000E-45
9.33013E-01 1.00000E-45
9.35178E-01 1.00000E-45
9.37310E-01 1.00000E-45
9.39409E-01 1.00000E-45
9.41474E-01 1.00000E-45
9.43505E-01 1.00000E-45
9.45503E-01 1.00000E-45
9.47467E-01 1.00000E-45
9.49397E-01 1.00000E-45
9.51293E-01 1.00000E-45
9.53154E-01 1.00000E-45
9.54981E-01 1.00000E-45
9.56773E-01 1.00000E-45
9.58530E-01 1.00000E-45
9.60252E-01 1.00000E-45
9.61940E-01 1.00000E-45
9.63592E-01 1.00000E-45
9.65209E-01 1.00000E-45
9.66790E-01 1.00000E-45
9.68336E-01 1.00000E-45
9.69846E-01 1.00000E-45
9.71321E-01 1.00000E-45
9.72759E-01 1.00000E-45
9.74162E-01 1.00000E-45
9.75528E-01 1.00000E-45
9.76858E-01 1.00000E-45
9.78152E-01 1.00000E-45
9.79410E-01 1.00000E-45
9.80631E-01 1.00000E-45
9.81815E-01 1.00000E-45
9.82963E-01 1.00000E-45
9.84074E-01 1.00000E-45
9.85148E-01 1.00000E-45
9.86185E-01 1.00000E-45
9.87185E-01 1.00000E-45
9.88148E-01 1.00000E-45
9.89074E-01 1.00000E-45
9.89962E-01 1.00000E-45
9.90814E-01 1.00000E-45
9.91627E-01 1.00000E-45
9.92404E-01 1.00000E-45
9.93143E-01 1.00000E-45
9.93844E-01 1.00000E-45
9.94508E-01 1.00000E-45
9.95134E-01 1.00000E-45
9.95722E-01 1.00000E-45
9.96273E-01 1.00000E-45
9.96786E-01 1.00000E-45
9.97261E-01 1.00000E-45
9.97698E-01 1.00000E-45
9.98097E-01 1.00000E-45
9.98459E-01 1.00000E-45
9.98782E-01 1.00000E-45
9.99067E-01 1.00000E-45
9.99315E-01 1.00000E-45
9.99524E-01 1.00000E-45
9.99695E-01 1.00000E-45
9.99829E-01 1.00000E-45
9.99924E-01 1.00000E-45
9.99981E-01 1.00000E-45
1.00000E+00 1.00000E-45
