 #
 # Subroutine ELSEPA. Elastic scattering of electrons and positrons
 #                    by neutral atoms and positive ions
 #
 # Projectile: positron
 # Kinetic energy = 2.50000E+08 eV = 9.18733E+06 a.u.
 #
 # WARNING: High-energy factorization with free-atom DF screening.
 #          Absorption, polarization and exchange corrections are
 #          switched off.
 #          Phase shifts are calculated for the bare nucleus.
 #          Scattering amplitudes are not evaluated.
 #
 # Element: Ga,  Z =  31,  atomic weight = 6.97230E+01 g/mol
 #
 # Nuclear model: Fermi distribution
 #                Average radius = 4.40395E-13 cm
 #                Skin thickness = 5.46000E-14 cm
 #
 # Number of electrons = 31
 #
 # Total elastic cross section = 2.18191E-18 cm**2 = 7.79175E-02 a0**2
 # 1st transport cross section = 3.10547E-26 cm**2 = 1.10898E-09 a0**2
 # 2nd transport cross section = 9.29905E-26 cm**2 = 3.32075E-09 a0**2
 #
 #
 # Differential cross section:                       MU=(1-COS(THETA))/2
 #
 #  THETA        MU          DCS          DCS        Sherman      error
 #  (deg)                 (cm**2/sr)   (a0**2/sr)    function
 #----------------------------------------------------------------------
0.00000E+00 1.21179E-09
7.61557E-13 1.18942E-09
1.18994E-12 1.17715E-09
1.71346E-12 1.16246E-09
2.33225E-12 1.14549E-09
3.04617E-12 1.12643E-09
3.85530E-12 1.10545E-09
4.75964E-12 1.08278E-09
5.75917E-12 1.05873E-09
6.85391E-12 1.03329E-09
8.04379E-12 1.00697E-09
9.32893E-12 9.79663E-10
1.07092E-11 9.51860E-10
1.21847E-11 9.23532E-10
1.37554E-11 8.95008E-10
1.54213E-11 8.66382E-10
1.71823E-11 8.37792E-10
1.90386E-11 8.09472E-10
2.09900E-11 7.81356E-10
2.30367E-11 7.53821E-10
2.51785E-11 7.26598E-10
2.74156E-11 7.00162E-10
2.97478E-11 6.74182E-10
3.21752E-11 6.49053E-10
3.46979E-11 6.24557E-10
3.73157E-11 6.00896E-10
4.00286E-11 5.77996E-10
4.28368E-11 5.55888E-10
4.57402E-11 5.34626E-10
4.87388E-11 5.14096E-10
5.18325E-11 4.94461E-10
5.50215E-11 4.75489E-10
5.83057E-11 4.57420E-10
6.16850E-11 4.39968E-10
6.51595E-11 4.23358E-10
6.87293E-11 4.07384E-10
7.23943E-11 3.92152E-10
7.61544E-11 3.77560E-10
1.18991E-10 2.62995E-10
1.71347E-10 1.89908E-10
2.33223E-10 1.41978E-10
3.04617E-10 1.09202E-10
3.85531E-10 8.54703E-11
4.75965E-10 6.78437E-11
5.75917E-10 5.55164E-11
6.85389E-10 4.49103E-11
8.04380E-10 3.72514E-11
9.32891E-10 3.06547E-11
1.07092E-09 2.55992E-11
1.21847E-09 2.13629E-11
1.37554E-09 1.79452E-11
1.54213E-09 1.51413E-11
1.71823E-09 1.28017E-11
1.90386E-09 1.09029E-11
2.09900E-09 9.28620E-12
2.30367E-09 7.97612E-12
2.51785E-09 6.84817E-12
2.74156E-09 5.92574E-12
2.97478E-09 5.13377E-12
3.21752E-09 4.47423E-12
3.46978E-09 3.91132E-12
3.73156E-09 3.43436E-12
4.00286E-09 3.02715E-12
4.28368E-09 2.67782E-12
4.57402E-09 2.37831E-12
4.87388E-09 2.11894E-12
5.18326E-09 1.89518E-12
5.50215E-09 1.69984E-12
5.83057E-09 1.53013E-12
6.16850E-09 1.38096E-12
6.51596E-09 1.25031E-12
6.87293E-09 1.13491E-12
7.23942E-09 1.03299E-12
7.61544E-09 9.42506E-13
1.18991E-08 4.21313E-13
1.71347E-08 2.17462E-13
2.33223E-08 1.23043E-13
3.04617E-08 7.43957E-14
3.85531E-08 4.73716E-14
4.75965E-08 3.15153E-14
5.75917E-08 2.17448E-14
6.85389E-08 1.54763E-14
8.04380E-08 1.13118E-14
9.32891E-08 8.46015E-15
1.07092E-07 6.45445E-15
1.21847E-07 5.01086E-15
1.37554E-07 3.95028E-15
1.54213E-07 3.15672E-15
1.71823E-07 2.55323E-15
1.90386E-07 2.08757E-15
2.09900E-07 1.72356E-15
2.30367E-07 1.43557E-15
2.51785E-07 1.20534E-15
2.74156E-07 1.01948E-15
2.97478E-07 8.68110E-16
3.21752E-07 7.43811E-16
3.46978E-07 6.40973E-16
3.73156E-07 5.55296E-16
4.00286E-07 4.83449E-16
4.28368E-07 4.22840E-16
4.57402E-07 3.71428E-16
4.87388E-07 3.27589E-16
5.18325E-07 2.90022E-16
5.50215E-07 2.57682E-16
5.83057E-07 2.29721E-16
6.16850E-07 2.05444E-16
6.51596E-07 1.84287E-16
6.87293E-07 1.65780E-16
7.23942E-07 1.49536E-16
7.61543E-07 1.35231E-16
1.18991E-06 5.56577E-17
1.71347E-06 2.69043E-17
2.33223E-06 1.45402E-17
3.04617E-06 8.52904E-18
3.85531E-06 5.32668E-18
4.75964E-06 3.49558E-18
5.75916E-06 2.38779E-18
6.85388E-06 1.68601E-18
8.04378E-06 1.22408E-18
9.32888E-06 9.10033E-19
1.07092E-05 6.90527E-19
1.21846E-05 5.33379E-19
1.37553E-05 4.18490E-19
1.54212E-05 3.32929E-19
1.71822E-05 2.68154E-19
1.90385E-05 2.18365E-19
2.09899E-05 1.79655E-19
2.30365E-05 1.49150E-19
2.51783E-05 1.24845E-19
2.74153E-05 1.05287E-19
2.97475E-05 8.94083E-20
3.21749E-05 7.64121E-20
3.46974E-05 6.56944E-20
3.73152E-05 5.67930E-20
4.00281E-05 4.93507E-20
4.28362E-05 4.30890E-20
4.57395E-05 3.77893E-20
4.87380E-05 3.32793E-20
5.18317E-05 2.94216E-20
5.50205E-05 2.61063E-20
5.83045E-05 2.32446E-20
6.16838E-05 2.07645E-20
6.51582E-05 1.86065E-20
6.87277E-05 1.67218E-20
7.23925E-05 1.50700E-20
7.61524E-05 1.36124E-20
9.21439E-05 9.29122E-21
1.09658E-04 6.55538E-21
1.28695E-04 4.75588E-21
1.49255E-04 3.53296E-21
1.71338E-04 2.67873E-21
1.94942E-04 2.06743E-21
2.20070E-04 1.62075E-21
2.46720E-04 1.28827E-21
2.74892E-04 1.03668E-21
3.04586E-04 8.43507E-22
3.35803E-04 6.93199E-22
3.68542E-04 5.74850E-22
4.02802E-04 4.80645E-22
4.38585E-04 4.04913E-22
4.75889E-04 3.43479E-22
5.14715E-04 2.93223E-22
5.55063E-04 2.51797E-22
5.96931E-04 2.17404E-22
6.40321E-04 1.88660E-22
6.85233E-04 1.64491E-22
7.31665E-04 1.44050E-22
7.79618E-04 1.26670E-22
8.29092E-04 1.11818E-22
8.80086E-04 9.90663E-23
9.32601E-04 8.80689E-23
9.86636E-04 7.85449E-23
1.04219E-03 7.02641E-23
1.09927E-03 6.30374E-23
1.15786E-03 5.67082E-23
1.21797E-03 5.11464E-23
1.27961E-03 4.62435E-23
1.34276E-03 4.19082E-23
1.40743E-03 3.80637E-23
1.47362E-03 3.46452E-23
1.54133E-03 3.15974E-23
1.61056E-03 2.88733E-23
1.68131E-03 2.64328E-23
1.75357E-03 2.42412E-23
1.82735E-03 2.22689E-23
1.90265E-03 2.04903E-23
1.97947E-03 1.88829E-23
2.05780E-03 1.74276E-23
2.13765E-03 1.61075E-23
2.21902E-03 1.49079E-23
2.30190E-03 1.38160E-23
2.38630E-03 1.28203E-23
2.47222E-03 1.19110E-23
2.55965E-03 1.10793E-23
2.64859E-03 1.03174E-23
2.73905E-03 9.61847E-24
2.83103E-03 8.97645E-24
2.92452E-03 8.38588E-24
3.01952E-03 7.84195E-24
3.11604E-03 7.34033E-24
3.21407E-03 6.87718E-24
3.31362E-03 6.44904E-24
3.41468E-03 6.05282E-24
3.51725E-03 5.68574E-24
3.62133E-03 5.34527E-24
3.72692E-03 5.02917E-24
3.83403E-03 4.73540E-24
3.94265E-03 4.46211E-24
4.05278E-03 4.20764E-24
4.16442E-03 3.97046E-24
4.27757E-03 3.74921E-24
4.39223E-03 3.54263E-24
4.50840E-03 3.34959E-24
4.62608E-03 3.16905E-24
4.74527E-03 3.00007E-24
4.86597E-03 2.84178E-24
4.98817E-03 2.69339E-24
5.11188E-03 2.55419E-24
5.23711E-03 2.42350E-24
5.36383E-03 2.30072E-24
5.49207E-03 2.18529E-24
5.62181E-03 2.07670E-24
5.75306E-03 1.97448E-24
5.88581E-03 1.87819E-24
6.02007E-03 1.78743E-24
6.15583E-03 1.70184E-24
6.29310E-03 1.62106E-24
6.43187E-03 1.54479E-24
6.57214E-03 1.47273E-24
6.71392E-03 1.40461E-24
6.85720E-03 1.34018E-24
7.00198E-03 1.27921E-24
7.14827E-03 1.22149E-24
7.29605E-03 1.16681E-24
7.44534E-03 1.11499E-24
7.59612E-03 1.06585E-24
7.97965E-03 9.53711E-25
8.37255E-03 8.55143E-25
8.77480E-03 7.68267E-25
9.18641E-03 6.91498E-25
9.60736E-03 6.23495E-25
1.00376E-02 5.63116E-25
1.04773E-02 5.09389E-25
1.09262E-02 4.61481E-25
1.13844E-02 4.18674E-25
1.18520E-02 3.80353E-25
1.23288E-02 3.45985E-25
1.28150E-02 3.15108E-25
1.33104E-02 2.87321E-25
1.38150E-02 2.62276E-25
1.43290E-02 2.39668E-25
1.48521E-02 2.19228E-25
1.53845E-02 2.00725E-25
1.59262E-02 1.83951E-25
1.64770E-02 1.68726E-25
1.70371E-02 1.54890E-25
1.76063E-02 1.42301E-25
1.81848E-02 1.30834E-25
1.87724E-02 1.20378E-25
1.93692E-02 1.10833E-25
1.99751E-02 1.02112E-25
2.05901E-02 9.41362E-26
2.12143E-02 8.68345E-26
2.18476E-02 8.01445E-26
2.24900E-02 7.40098E-26
2.31415E-02 6.83796E-26
2.38021E-02 6.32086E-26
2.44717E-02 5.84556E-26
2.51504E-02 5.40838E-26
2.58382E-02 5.00599E-26
2.65349E-02 4.63538E-26
2.72407E-02 4.29381E-26
2.79555E-02 3.97883E-26
2.86793E-02 3.68819E-26
2.94120E-02 3.41987E-26
3.01537E-02 3.17202E-26
3.09043E-02 2.94296E-26
3.16639E-02 2.73116E-26
3.24324E-02 2.53524E-26
3.32098E-02 2.35392E-26
3.39961E-02 2.18604E-26
3.47912E-02 2.03054E-26
3.55952E-02 1.88646E-26
3.64081E-02 1.75290E-26
3.72297E-02 1.62906E-26
3.80602E-02 1.51418E-26
3.88995E-02 1.40760E-26
3.97476E-02 1.30867E-26
4.06044E-02 1.21682E-26
4.14700E-02 1.13152E-26
4.23443E-02 1.05229E-26
4.32273E-02 9.78680E-27
4.41190E-02 9.10268E-27
4.50194E-02 8.46678E-27
4.59284E-02 7.87557E-27
4.68461E-02 7.32582E-27
4.87074E-02 6.33895E-27
5.06030E-02 5.48485E-27
5.25328E-02 4.74527E-27
5.44967E-02 4.10460E-27
5.64946E-02 3.54945E-27
5.85262E-02 3.06829E-27
6.05914E-02 2.65121E-27
6.26901E-02 2.28966E-27
6.48222E-02 1.97626E-27
6.69873E-02 1.70463E-27
6.91854E-02 1.46925E-27
7.14163E-02 1.26535E-27
7.36799E-02 1.08879E-27
7.59760E-02 9.35961E-28
7.83043E-02 8.03755E-28
8.06647E-02 6.89459E-28
8.30571E-02 5.90717E-28
8.54812E-02 5.05480E-28
8.79369E-02 4.31967E-28
9.04240E-02 3.68628E-28
9.29422E-02 3.14112E-28
9.54915E-02 2.67246E-28
9.80716E-02 2.27006E-28
1.00682E-01 1.92505E-28
1.03323E-01 1.62966E-28
1.05995E-01 1.37717E-28
1.08696E-01 1.16172E-28
1.11427E-01 9.78202E-29
1.14188E-01 8.22202E-29
1.16978E-01 6.89871E-29
1.19797E-01 5.77872E-29
1.22645E-01 4.83311E-29
1.25522E-01 4.03679E-29
1.28428E-01 3.36807E-29
1.31361E-01 2.80815E-29
1.34323E-01 2.34083E-29
1.37313E-01 1.95212E-29
1.40330E-01 1.62996E-29
1.43375E-01 1.36399E-29
1.46447E-01 1.14532E-29
1.49545E-01 9.66317E-30
1.52671E-01 8.20465E-30
1.55823E-01 7.02199E-30
1.59001E-01 6.06785E-30
1.62205E-01 5.30203E-30
1.65435E-01 4.69053E-30
1.68690E-01 4.20464E-30
1.71970E-01 3.82028E-30
1.75276E-01 3.51724E-30
1.78606E-01 3.27872E-30
1.81961E-01 3.09079E-30
1.85340E-01 2.94195E-30
1.88743E-01 2.82281E-30
1.92169E-01 2.72574E-30
1.95619E-01 2.64457E-30
1.99092E-01 2.57444E-30
2.02589E-01 2.51148E-30
2.06107E-01 2.45272E-30
2.09649E-01 2.39592E-30
2.13212E-01 2.33941E-30
2.16797E-01 2.28204E-30
2.20404E-01 2.22301E-30
2.24032E-01 2.16187E-30
2.27680E-01 2.09839E-30
2.31350E-01 2.03254E-30
2.35040E-01 1.96446E-30
2.38751E-01 1.89436E-30
2.42481E-01 1.82254E-30
2.46231E-01 1.74935E-30
2.50000E-01 1.67518E-30
2.53788E-01 1.60042E-30
2.57595E-01 1.52545E-30
2.61421E-01 1.45067E-30
2.65264E-01 1.37642E-30
2.69126E-01 1.30305E-30
2.73005E-01 1.23086E-30
2.76901E-01 1.16013E-30
2.80814E-01 1.09111E-30
2.84744E-01 1.02402E-30
2.88691E-01 9.59030E-31
2.92653E-01 8.96295E-31
2.96632E-01 8.35937E-31
3.00625E-01 7.78050E-31
3.04634E-01 7.22701E-31
3.08658E-01 6.69934E-31
3.12697E-01 6.19770E-31
3.16749E-01 5.72211E-31
3.20816E-01 5.27241E-31
3.24896E-01 4.84829E-31
3.28990E-01 4.44931E-31
3.33097E-01 4.07489E-31
3.37216E-01 3.72437E-31
3.41348E-01 3.39700E-31
3.45492E-01 3.09197E-31
3.49647E-01 2.80841E-31
3.53814E-01 2.54541E-31
3.57992E-01 2.30204E-31
3.62181E-01 2.07734E-31
3.66381E-01 1.87035E-31
3.70590E-01 1.68012E-31
3.74810E-01 1.50568E-31
3.79039E-01 1.34609E-31
3.83277E-01 1.20044E-31
3.87524E-01 1.06783E-31
3.91780E-01 9.47368E-32
3.96044E-01 8.38227E-32
4.00316E-01 7.39593E-32
4.04596E-01 6.50687E-32
4.08882E-01 5.70770E-32
4.13176E-01 4.99134E-32
4.17476E-01 4.35112E-32
4.21783E-01 3.78071E-32
4.26095E-01 3.27414E-32
4.30413E-01 2.82583E-32
4.34737E-01 2.43053E-32
4.39065E-01 2.08333E-32
4.43398E-01 1.77966E-32
4.47736E-01 1.51528E-32
4.52077E-01 1.28625E-32
4.56422E-01 1.08893E-32
4.60770E-01 9.19973E-33
4.65122E-01 7.76281E-33
4.69476E-01 6.55024E-33
4.73832E-01 5.53610E-33
4.78190E-01 4.69675E-33
4.82550E-01 4.01063E-33
4.86912E-01 3.45822E-33
4.91274E-01 3.02183E-33
4.95637E-01 2.68550E-33
5.00000E-01 2.43489E-33
5.04363E-01 2.25711E-33
5.08726E-01 2.14068E-33
5.13088E-01 2.07535E-33
5.17450E-01 2.05205E-33
5.21810E-01 2.06277E-33
5.26168E-01 2.10045E-33
5.30524E-01 2.15894E-33
5.34878E-01 2.23287E-33
5.39230E-01 2.31762E-33
5.43578E-01 2.40919E-33
5.47923E-01 2.50420E-33
5.52264E-01 2.59980E-33
5.56602E-01 2.69359E-33
5.60935E-01 2.78361E-33
5.65263E-01 2.86829E-33
5.69587E-01 2.94634E-33
5.73905E-01 3.01681E-33
5.78217E-01 3.07899E-33
5.82524E-01 3.13237E-33
5.86824E-01 3.17666E-33
5.91118E-01 3.21172E-33
5.95404E-01 3.23755E-33
5.99684E-01 3.25428E-33
6.03956E-01 3.26210E-33
6.08220E-01 3.26133E-33
6.12476E-01 3.25233E-33
6.16723E-01 3.23550E-33
6.20961E-01 3.21131E-33
6.25190E-01 3.18023E-33
6.29410E-01 3.14276E-33
6.33619E-01 3.09942E-33
6.37819E-01 3.05071E-33
6.42008E-01 2.99715E-33
6.46186E-01 2.93924E-33
6.50353E-01 2.87748E-33
6.54508E-01 2.81235E-33
6.58652E-01 2.74432E-33
6.62784E-01 2.67383E-33
6.66903E-01 2.60129E-33
6.71010E-01 2.52712E-33
6.75104E-01 2.45168E-33
6.79184E-01 2.37534E-33
6.83251E-01 2.29842E-33
6.87303E-01 2.22122E-33
6.91342E-01 2.14404E-33
6.95366E-01 2.06712E-33
6.99375E-01 1.99071E-33
7.03368E-01 1.91502E-33
7.07347E-01 1.84025E-33
7.11309E-01 1.76655E-33
7.15256E-01 1.69410E-33
7.19186E-01 1.62302E-33
7.23099E-01 1.55344E-33
7.26995E-01 1.48545E-33
7.30874E-01 1.41914E-33
7.34736E-01 1.35459E-33
7.38579E-01 1.29184E-33
7.42405E-01 1.23095E-33
7.46212E-01 1.17196E-33
7.50000E-01 1.11488E-33
7.53769E-01 1.05973E-33
7.57519E-01 1.00652E-33
7.61249E-01 9.55241E-34
7.64960E-01 9.05891E-34
7.68650E-01 8.58448E-34
7.72320E-01 8.12895E-34
7.75968E-01 7.69205E-34
7.79596E-01 7.27346E-34
7.83203E-01 6.87283E-34
7.86788E-01 6.48976E-34
7.90351E-01 6.12387E-34
7.93893E-01 5.77473E-34
7.97411E-01 5.44186E-34
8.00908E-01 5.12481E-34
8.04381E-01 4.82306E-34
8.07831E-01 4.53616E-34
8.11257E-01 4.26362E-34
8.14660E-01 4.00488E-34
8.18039E-01 3.75948E-34
8.21394E-01 3.52692E-34
8.24724E-01 3.30670E-34
8.28030E-01 3.09831E-34
8.31310E-01 2.90127E-34
8.34565E-01 2.71511E-34
8.37795E-01 2.53933E-34
8.40999E-01 2.37350E-34
8.44177E-01 2.21715E-34
8.47329E-01 2.06988E-34
8.50455E-01 1.93121E-34
8.53553E-01 1.80075E-34
8.56625E-01 1.67811E-34
8.59670E-01 1.56288E-34
8.62687E-01 1.45468E-34
8.65677E-01 1.35316E-34
8.68639E-01 1.25799E-34
8.71572E-01 1.16878E-34
8.74478E-01 1.08527E-34
8.77355E-01 1.00711E-34
8.80203E-01 9.34009E-35
8.83022E-01 8.65682E-35
8.85812E-01 8.01876E-35
8.88573E-01 7.42313E-35
8.91304E-01 6.86759E-35
8.94005E-01 6.34973E-35
8.96677E-01 5.86719E-35
8.99318E-01 5.41802E-35
9.01928E-01 5.00005E-35
9.04508E-01 4.61142E-35
9.07058E-01 4.25032E-35
9.09576E-01 3.91500E-35
9.12063E-01 3.60382E-35
9.14519E-01 3.31523E-35
9.16943E-01 3.04774E-35
9.19335E-01 2.80004E-35
9.21696E-01 2.57075E-35
9.24024E-01 2.35866E-35
9.26320E-01 2.16265E-35
9.28584E-01 1.98155E-35
9.30815E-01 1.81441E-35
9.33013E-01 1.66020E-35
9.35178E-01 1.51808E-35
9.37310E-01 1.38717E-35
9.39409E-01 1.26659E-35
9.41474E-01 1.15570E-35
9.43505E-01 1.05380E-35
9.45503E-01 9.60152E-36
9.47467E-01 8.74238E-36
9.49397E-01 7.95399E-36
9.51293E-01 7.23112E-36
9.53154E-01 6.56910E-36
9.54981E-01 5.96354E-36
9.56773E-01 5.40954E-36
9.58530E-01 4.90310E-36
9.60252E-01 4.44072E-36
9.61940E-01 4.01865E-36
9.63592E-01 3.63374E-36
9.65209E-01 3.28307E-36
9.66790E-01 2.96398E-36
9.68336E-01 2.67333E-36
9.69846E-01 2.40947E-36
9.71321E-01 2.16945E-36
9.72759E-01 1.95170E-36
9.74162E-01 1.75421E-36
9.75528E-01 1.57542E-36
9.76858E-01 1.41318E-36
9.78152E-01 1.26642E-36
9.79410E-01 1.13365E-36
9.80631E-01 1.01373E-36
9.81815E-01 9.05495E-37
9.82963E-01 8.07685E-37
9.84074E-01 7.19613E-37
9.85148E-01 6.40039E-37
9.86185E-01 5.68526E-37
9.87185E-01 5.04067E-37
9.88148E-01 4.46204E-37
9.89074E-01 3.94100E-37
9.89962E-01 3.47254E-37
9.90814E-01 3.05346E-37
9.91627E-01 2.67740E-37
9.92404E-01 2.33929E-37
9.93143E-01 2.03781E-37
9.93844E-01 1.76675E-37
9.94508E-01 1.52581E-37
9.95134E-01 1.31050E-37
9.95722E-01 1.11892E-37
9.96273E-01 9.48038E-38
9.96786E-01 7.96696E-38
9.97261E-01 6.63078E-38
9.97698E-01 5.44468E-38
9.98097E-01 4.41523E-38
9.98459E-01 3.50944E-38
9.98782E-01 2.72412E-38
9.99067E-01 2.05536E-38
9.99315E-01 1.49122E-38
9.99524E-01 1.02886E-38
9.99695E-01 6.53183E-39
9.99829E-01 3.68044E-39
9.99924E-01 1.64381E-39
9.99981E-01 4.45201E-40
1.00000E+00 4.63336E-41
