 #
 # Subroutine ELSEPA. Elastic scattering of electrons and positrons
 #                    by neutral atoms and positive ions
 #
 # Projectile: positron
 # Kinetic energy = 9.00000E+08 eV = 3.30744E+07 a.u.
 #
 # WARNING: High-energy factorization with free-atom DF screening.
 #          Absorption, polarization and exchange corrections are
 #          switched off.
 #          Phase shifts are calculated for the bare nucleus.
 #          Scattering amplitudes are not evaluated.
 #
 # Element: Ga,  Z =  31,  atomic weight = 6.97230E+01 g/mol
 #
 # Nuclear model: Fermi distribution
 #                Average radius = 4.40395E-13 cm
 #                Skin thickness = 5.46000E-14 cm
 #
 # Number of electrons = 31
 #
 # Total elastic cross section = 2.16713E-18 cm**2 = 7.73895E-02 a0**2
 # 1st transport cross section = 2.41637E-27 cm**2 = 8.62903E-11 a0**2
 # 2nd transport cross section = 7.24807E-27 cm**2 = 2.58833E-10 a0**2
 #
 #
 # Differential cross section:                       MU=(1-COS(THETA))/2
 #
 #  THETA        MU          DCS          DCS        Sherman      error
 #  (deg)                 (cm**2/sr)   (a0**2/sr)    function
 #----------------------------------------------------------------------
0.00000E+00 1.56585E-08
7.61557E-13 1.25235E-08
1.18994E-12 1.12050E-08
1.71346E-12 9.89368E-09
2.33225E-12 8.65796E-09
3.04617E-12 7.53992E-09
3.85530E-12 6.55253E-09
4.75964E-12 5.69690E-09
5.75917E-12 4.96454E-09
6.85391E-12 4.33999E-09
8.04379E-12 3.81018E-09
9.32893E-12 3.36079E-09
1.07092E-11 2.97796E-09
1.21847E-11 2.65175E-09
1.37554E-11 2.37233E-09
1.54213E-11 2.13150E-09
1.71823E-11 1.92335E-09
1.90386E-11 1.74212E-09
2.09900E-11 1.58347E-09
2.30367E-11 1.44410E-09
2.51785E-11 1.32067E-09
2.74156E-11 1.21100E-09
2.97478E-11 1.10809E-09
3.21752E-11 1.01548E-09
3.46979E-11 9.34952E-10
3.73157E-11 8.64599E-10
4.00286E-11 8.02856E-10
4.28368E-11 7.48435E-10
4.57402E-11 6.94705E-10
4.87388E-11 6.42648E-10
5.18325E-11 5.96560E-10
5.50215E-11 5.55604E-10
5.83057E-11 5.19080E-10
6.16850E-11 4.86400E-10
6.51595E-11 4.54563E-10
6.87293E-11 4.23000E-10
7.23943E-11 3.94672E-10
7.61544E-11 3.69173E-10
1.18991E-10 1.96561E-10
1.71347E-10 1.10001E-10
2.33223E-10 6.48414E-11
3.04617E-10 4.03265E-11
3.85531E-10 2.63154E-11
4.75965E-10 1.79410E-11
5.75917E-10 1.26992E-11
6.85389E-10 9.27266E-12
8.04380E-10 6.94732E-12
9.32891E-10 5.31872E-12
1.07092E-09 4.14455E-12
1.21847E-09 3.27920E-12
1.37554E-09 2.62799E-12
1.54213E-09 2.12928E-12
1.71823E-09 1.74261E-12
1.90386E-09 1.43886E-12
2.09900E-09 1.19770E-12
2.30367E-09 1.00446E-12
2.51785E-09 8.48087E-13
2.74156E-09 7.20621E-13
2.97478E-09 6.15674E-13
3.21752E-09 5.29180E-13
3.46978E-09 4.57462E-13
3.73156E-09 3.97121E-13
4.00286E-09 3.46543E-13
4.28368E-09 3.03621E-13
4.57402E-09 2.67149E-13
4.87388E-09 2.36006E-13
5.18326E-09 2.09224E-13
5.50215E-09 1.86176E-13
5.83057E-09 1.66181E-13
6.16850E-09 1.48817E-13
6.51596E-09 1.33667E-13
6.87293E-09 1.20394E-13
7.23942E-09 1.08746E-13
7.61544E-09 9.84608E-14
1.18991E-08 4.10338E-14
1.71347E-08 2.00569E-14
2.33223E-08 1.09368E-14
3.04617E-08 6.45929E-15
3.85531E-08 4.05479E-15
4.75965E-08 2.67117E-15
5.75917E-08 1.82995E-15
6.85389E-08 1.29500E-15
8.04380E-08 9.41832E-16
9.32891E-08 7.01156E-16
1.07092E-07 5.32617E-16
1.21847E-07 4.11773E-16
1.37554E-07 3.23317E-16
1.54213E-07 2.57374E-16
1.71823E-07 2.07410E-16
1.90386E-07 1.68997E-16
2.09900E-07 1.39075E-16
2.30367E-07 1.15489E-16
2.51785E-07 9.66966E-17
2.74156E-07 8.15743E-17
2.97478E-07 6.92951E-17
3.21752E-07 5.92412E-17
3.46978E-07 5.09459E-17
3.73156E-07 4.40527E-17
4.00286E-07 3.82866E-17
4.28368E-07 3.34337E-17
4.57402E-07 2.93257E-17
4.87388E-07 2.58296E-17
5.18325E-07 2.28392E-17
5.50215E-07 2.02693E-17
5.83057E-07 1.80508E-17
6.16850E-07 1.61277E-17
6.51596E-07 1.44539E-17
6.87293E-07 1.29917E-17
7.23942E-07 1.17099E-17
7.61543E-07 1.05822E-17
1.18991E-06 4.33474E-18
1.71347E-06 2.09037E-18
2.33223E-06 1.12824E-18
3.04617E-06 6.61292E-19
3.85531E-06 4.12797E-19
4.75964E-06 2.70805E-19
5.75916E-06 1.84942E-19
6.85388E-06 1.30565E-19
8.04378E-06 9.47822E-20
9.32888E-06 7.04587E-20
1.07092E-05 5.34597E-20
1.21846E-05 4.12912E-20
1.37553E-05 3.23957E-20
1.54212E-05 2.57714E-20
1.71822E-05 2.07566E-20
1.90385E-05 1.69022E-20
2.09899E-05 1.39056E-20
2.30365E-05 1.15443E-20
2.51783E-05 9.66284E-21
2.74153E-05 8.14896E-21
2.97475E-05 6.91993E-21
3.21749E-05 5.91399E-21
3.46974E-05 5.08443E-21
3.73152E-05 4.39547E-21
4.00281E-05 3.81945E-21
4.28362E-05 3.33481E-21
4.57395E-05 2.92463E-21
4.87380E-05 2.57557E-21
5.18317E-05 2.27700E-21
5.50205E-05 2.02041E-21
5.83045E-05 1.79894E-21
6.16838E-05 1.60699E-21
6.51582E-05 1.43997E-21
6.87277E-05 1.29412E-21
7.23925E-05 1.16627E-21
7.61524E-05 1.03320E-21
9.21439E-05 7.01584E-22
1.09658E-04 4.92136E-22
1.28695E-04 3.54750E-22
1.49255E-04 2.61670E-22
1.71338E-04 1.96874E-22
1.94942E-04 1.50680E-22
2.20070E-04 1.17064E-22
2.46720E-04 9.21548E-23
2.74892E-04 7.33968E-23
3.04586E-04 5.90690E-23
3.35803E-04 4.79827E-23
3.68542E-04 3.93057E-23
4.02802E-04 3.24426E-23
4.38585E-04 2.69625E-23
4.75889E-04 2.25488E-23
5.14715E-04 1.89653E-23
5.55063E-04 1.60350E-23
5.96931E-04 1.36224E-23
6.40321E-04 1.16239E-23
6.85233E-04 9.95891E-24
7.31665E-04 8.56435E-24
7.79618E-04 7.39058E-24
8.29092E-04 6.39808E-24
8.80086E-04 5.55531E-24
9.32601E-04 4.83680E-24
9.86636E-04 4.22197E-24
1.04219E-03 3.69402E-24
1.09927E-03 3.23919E-24
1.15786E-03 2.84618E-24
1.21797E-03 2.50560E-24
1.27961E-03 2.20967E-24
1.34276E-03 1.95189E-24
1.40743E-03 1.72681E-24
1.47362E-03 1.52985E-24
1.54133E-03 1.35714E-24
1.61056E-03 1.20539E-24
1.68131E-03 1.07182E-24
1.75357E-03 9.54037E-25
1.82735E-03 8.50018E-25
1.90265E-03 7.58010E-25
1.97947E-03 6.76511E-25
2.05780E-03 6.04224E-25
2.13765E-03 5.40028E-25
2.21902E-03 4.82949E-25
2.30190E-03 4.32144E-25
2.38630E-03 3.86876E-25
2.47222E-03 3.46504E-25
2.55965E-03 3.10466E-25
2.64859E-03 2.78271E-25
2.73905E-03 2.49487E-25
2.83103E-03 2.23735E-25
2.92452E-03 2.00680E-25
3.01952E-03 1.80028E-25
3.11604E-03 1.61518E-25
3.21407E-03 1.44921E-25
3.31362E-03 1.30033E-25
3.41468E-03 1.16672E-25
3.51725E-03 1.04677E-25
3.62133E-03 9.39068E-26
3.72692E-03 8.42330E-26
3.83403E-03 7.55424E-26
3.94265E-03 6.77340E-26
4.05278E-03 6.07174E-26
4.16442E-03 5.44119E-26
4.27757E-03 4.87454E-26
4.39223E-03 4.36530E-26
4.50840E-03 3.90770E-26
4.62608E-03 3.49653E-26
4.74527E-03 3.12714E-26
4.86597E-03 2.79535E-26
4.98817E-03 2.49738E-26
5.11188E-03 2.22986E-26
5.23711E-03 1.98976E-26
5.36383E-03 1.77433E-26
5.49207E-03 1.58112E-26
5.62181E-03 1.40790E-26
5.75306E-03 1.25269E-26
5.88581E-03 1.11368E-26
6.02007E-03 9.89251E-27
6.15583E-03 8.77941E-27
6.29310E-03 7.78431E-27
6.43187E-03 6.89533E-27
6.57214E-03 6.10174E-27
6.71392E-03 5.39388E-27
6.85720E-03 4.76303E-27
7.00198E-03 4.20131E-27
7.14827E-03 3.70164E-27
7.29605E-03 3.25762E-27
7.44534E-03 2.86348E-27
7.59612E-03 2.51402E-27
7.97965E-03 1.80621E-27
8.37255E-03 1.28820E-27
8.77480E-03 9.12768E-28
9.18641E-03 6.43689E-28
9.60736E-03 4.53309E-28
1.00376E-02 3.20602E-28
1.04773E-02 2.29673E-28
1.09262E-02 1.68589E-28
1.13844E-02 1.28466E-28
1.18520E-02 1.02755E-28
1.23288E-02 8.66872E-29
1.28150E-02 7.68421E-29
1.33104E-02 7.08122E-29
1.38150E-02 6.69440E-29
1.43290E-02 6.41386E-29
1.48521E-02 6.16990E-29
1.53845E-02 5.92144E-29
1.59262E-02 5.64728E-29
1.64770E-02 5.33955E-29
1.70371E-02 4.99894E-29
1.76063E-02 4.63125E-29
1.81848E-02 4.24487E-29
1.87724E-02 3.84914E-29
1.93692E-02 3.45322E-29
1.99751E-02 3.06538E-29
2.05901E-02 2.69260E-29
2.12143E-02 2.34047E-29
2.18476E-02 2.01309E-29
2.24900E-02 1.71319E-29
2.31415E-02 1.44229E-29
2.38021E-02 1.20083E-29
2.44717E-02 9.88395E-30
2.51504E-02 8.03866E-30
2.58382E-02 6.45617E-30
2.65349E-02 5.11657E-30
2.72407E-02 3.99769E-30
2.79555E-02 3.07622E-30
2.86793E-02 2.32867E-30
2.94120E-02 1.73209E-30
3.01537E-02 1.26461E-30
3.09043E-02 9.05878E-31
3.16639E-02 6.37295E-31
3.24324E-02 4.42170E-31
3.32098E-02 3.05777E-31
3.39961E-02 2.15338E-31
3.47912E-02 1.59943E-31
3.55952E-02 1.30440E-31
3.64081E-02 1.19286E-31
3.72297E-02 1.20391E-31
3.80602E-02 1.28948E-31
3.88995E-02 1.41264E-31
3.97476E-02 1.54599E-31
4.06044E-02 1.67008E-31
4.14700E-02 1.77198E-31
4.23443E-02 1.84404E-31
4.32273E-02 1.88269E-31
4.41190E-02 1.88748E-31
4.50194E-02 1.86020E-31
4.59284E-02 1.80419E-31
4.68461E-02 1.72374E-31
4.87074E-02 1.50873E-31
5.06030E-02 1.25332E-31
5.25328E-02 9.90626E-32
5.44967E-02 7.45274E-32
5.64946E-02 5.32733E-32
5.85262E-02 3.60306E-32
6.05914E-02 2.28929E-32
6.26901E-02 1.35183E-32
6.48222E-02 7.31422E-33
6.69873E-02 3.58838E-33
6.91854E-02 1.65774E-33
7.14163E-02 9.18098E-34
7.36799E-02 8.79683E-34
7.59760E-02 1.17718E-33
7.83043E-02 1.56217E-33
8.06647E-02 1.88534E-33
8.30571E-02 2.07426E-33
8.54812E-02 2.11083E-33
8.79369E-02 2.01114E-33
9.04240E-02 1.80914E-33
9.29422E-02 1.54454E-33
9.54915E-02 1.25473E-33
9.80716E-02 9.70263E-34
1.00682E-01 7.12855E-34
1.03323E-01 4.95435E-34
1.05995E-01 3.23268E-34
1.08696E-01 1.95710E-34
1.11427E-01 1.08095E-34
1.14188E-01 5.34889E-35
1.16978E-01 2.41348E-35
1.19797E-01 1.25166E-35
1.22645E-01 1.20531E-35
1.25522E-01 1.74599E-35
1.28428E-01 2.48524E-35
1.31361E-01 3.16638E-35
1.34323E-01 3.64493E-35
1.37313E-01 3.86368E-35
1.40330E-01 3.82692E-35
1.43375E-01 3.57693E-35
1.46447E-01 3.17452E-35
1.49545E-01 2.68450E-35
1.52671E-01 2.16573E-35
1.55823E-01 1.66552E-35
1.59001E-01 1.21728E-35
1.62205E-01 8.40751E-36
1.65435E-01 5.43696E-36
1.68690E-01 3.24535E-36
1.71970E-01 1.75194E-36
1.75276E-01 8.38063E-37
1.78606E-01 3.70024E-37
1.81961E-01 2.16718E-37
1.85340E-01 2.61553E-37
1.88743E-01 4.09195E-37
1.92169E-01 5.88091E-37
1.95619E-01 7.49755E-37
1.99092E-01 8.65970E-37
2.02589E-01 9.24827E-37
2.06107E-01 9.26394E-37
2.09649E-01 8.78593E-37
2.13212E-01 7.93605E-37
2.16797E-01 6.85037E-37
2.20404E-01 5.65866E-37
2.24032E-01 4.47104E-37
2.27680E-01 3.37122E-37
2.31350E-01 2.41470E-37
2.35040E-01 1.63052E-37
2.38751E-01 1.02570E-37
2.42481E-01 5.90257E-38
2.46231E-01 3.02982E-38
2.50000E-01 1.36571E-38
2.53788E-01 1.00000E-45
2.57595E-01 1.00000E-45
2.61421E-01 1.00000E-45
2.65264E-01 1.00000E-45
2.69126E-01 1.00000E-45
2.73005E-01 1.00000E-45
2.76901E-01 1.00000E-45
2.80814E-01 1.00000E-45
2.84744E-01 1.00000E-45
2.88691E-01 1.00000E-45
2.92653E-01 1.00000E-45
2.96632E-01 1.00000E-45
3.00625E-01 1.00000E-45
3.04634E-01 1.00000E-45
3.08658E-01 1.00000E-45
3.12697E-01 1.00000E-45
3.16749E-01 1.00000E-45
3.20816E-01 1.00000E-45
3.24896E-01 1.00000E-45
3.28990E-01 1.00000E-45
3.33097E-01 1.00000E-45
3.37216E-01 1.00000E-45
3.41348E-01 1.00000E-45
3.45492E-01 1.00000E-45
3.49647E-01 1.00000E-45
3.53814E-01 1.00000E-45
3.57992E-01 1.00000E-45
3.62181E-01 1.00000E-45
3.66381E-01 1.00000E-45
3.70590E-01 1.00000E-45
3.74810E-01 1.00000E-45
3.79039E-01 1.00000E-45
3.83277E-01 1.00000E-45
3.87524E-01 1.00000E-45
3.91780E-01 1.00000E-45
3.96044E-01 1.00000E-45
4.00316E-01 1.00000E-45
4.04596E-01 1.00000E-45
4.08882E-01 1.00000E-45
4.13176E-01 1.00000E-45
4.17476E-01 1.00000E-45
4.21783E-01 1.00000E-45
4.26095E-01 1.00000E-45
4.30413E-01 1.00000E-45
4.34737E-01 1.00000E-45
4.39065E-01 1.00000E-45
4.43398E-01 1.00000E-45
4.47736E-01 1.00000E-45
4.52077E-01 1.00000E-45
4.56422E-01 1.00000E-45
4.60770E-01 1.00000E-45
4.65122E-01 1.00000E-45
4.69476E-01 1.00000E-45
4.73832E-01 1.00000E-45
4.78190E-01 1.00000E-45
4.82550E-01 1.00000E-45
4.86912E-01 1.00000E-45
4.91274E-01 1.00000E-45
4.95637E-01 1.00000E-45
5.00000E-01 1.00000E-45
5.04363E-01 1.00000E-45
5.08726E-01 1.00000E-45
5.13088E-01 1.00000E-45
5.17450E-01 1.00000E-45
5.21810E-01 1.00000E-45
5.26168E-01 1.00000E-45
5.30524E-01 1.00000E-45
5.34878E-01 1.00000E-45
5.39230E-01 1.00000E-45
5.43578E-01 1.00000E-45
5.47923E-01 1.00000E-45
5.52264E-01 1.00000E-45
5.56602E-01 1.00000E-45
5.60935E-01 1.00000E-45
5.65263E-01 1.00000E-45
5.69587E-01 1.00000E-45
5.73905E-01 1.00000E-45
5.78217E-01 1.00000E-45
5.82524E-01 1.00000E-45
5.86824E-01 1.00000E-45
5.91118E-01 1.00000E-45
5.95404E-01 1.00000E-45
5.99684E-01 1.00000E-45
6.03956E-01 1.00000E-45
6.08220E-01 1.00000E-45
6.12476E-01 1.00000E-45
6.16723E-01 1.00000E-45
6.20961E-01 1.00000E-45
6.25190E-01 1.00000E-45
6.29410E-01 1.00000E-45
6.33619E-01 1.00000E-45
6.37819E-01 1.00000E-45
6.42008E-01 1.00000E-45
6.46186E-01 1.00000E-45
6.50353E-01 1.00000E-45
6.54508E-01 1.00000E-45
6.58652E-01 1.00000E-45
6.62784E-01 1.00000E-45
6.66903E-01 1.00000E-45
6.71010E-01 1.00000E-45
6.75104E-01 1.00000E-45
6.79184E-01 1.00000E-45
6.83251E-01 1.00000E-45
6.87303E-01 1.00000E-45
6.91342E-01 1.00000E-45
6.95366E-01 1.00000E-45
6.99375E-01 1.00000E-45
7.03368E-01 1.00000E-45
7.07347E-01 1.00000E-45
7.11309E-01 1.00000E-45
7.15256E-01 1.00000E-45
7.19186E-01 1.00000E-45
7.23099E-01 1.00000E-45
7.26995E-01 1.00000E-45
7.30874E-01 1.00000E-45
7.34736E-01 1.00000E-45
7.38579E-01 1.00000E-45
7.42405E-01 1.00000E-45
7.46212E-01 1.00000E-45
7.50000E-01 1.00000E-45
7.53769E-01 1.00000E-45
7.57519E-01 1.00000E-45
7.61249E-01 1.00000E-45
7.64960E-01 1.00000E-45
7.68650E-01 1.00000E-45
7.72320E-01 1.00000E-45
7.75968E-01 1.00000E-45
7.79596E-01 1.00000E-45
7.83203E-01 1.00000E-45
7.86788E-01 1.00000E-45
7.90351E-01 1.00000E-45
7.93893E-01 1.00000E-45
7.97411E-01 1.00000E-45
8.00908E-01 1.00000E-45
8.04381E-01 1.00000E-45
8.07831E-01 1.00000E-45
8.11257E-01 1.00000E-45
8.14660E-01 1.00000E-45
8.18039E-01 1.00000E-45
8.21394E-01 1.00000E-45
8.24724E-01 1.00000E-45
8.28030E-01 1.00000E-45
8.31310E-01 1.00000E-45
8.34565E-01 1.00000E-45
8.37795E-01 1.00000E-45
8.40999E-01 1.00000E-45
8.44177E-01 1.00000E-45
8.47329E-01 1.00000E-45
8.50455E-01 1.00000E-45
8.53553E-01 1.00000E-45
8.56625E-01 1.00000E-45
8.59670E-01 1.00000E-45
8.62687E-01 1.00000E-45
8.65677E-01 1.00000E-45
8.68639E-01 1.00000E-45
8.71572E-01 1.00000E-45
8.74478E-01 1.00000E-45
8.77355E-01 1.00000E-45
8.80203E-01 1.00000E-45
8.83022E-01 1.00000E-45
8.85812E-01 1.00000E-45
8.88573E-01 1.00000E-45
8.91304E-01 1.00000E-45
8.94005E-01 1.00000E-45
8.96677E-01 1.00000E-45
8.99318E-01 1.00000E-45
9.01928E-01 1.00000E-45
9.04508E-01 1.00000E-45
9.07058E-01 1.00000E-45
9.09576E-01 1.00000E-45
9.12063E-01 1.00000E-45
9.14519E-01 1.00000E-45
9.16943E-01 1.00000E-45
9.19335E-01 1.00000E-45
9.21696E-01 1.00000E-45
9.24024E-01 1.00000E-45
9.26320E-01 1.00000E-45
9.28584E-01 1.00000E-45
9.30815E-01 1.00000E-45
9.33013E-01 1.00000E-45
9.35178E-01 1.00000E-45
9.37310E-01 1.00000E-45
9.39409E-01 1.00000E-45
9.41474E-01 1.00000E-45
9.43505E-01 1.00000E-45
9.45503E-01 1.00000E-45
9.47467E-01 1.00000E-45
9.49397E-01 1.00000E-45
9.51293E-01 1.00000E-45
9.53154E-01 1.00000E-45
9.54981E-01 1.00000E-45
9.56773E-01 1.00000E-45
9.58530E-01 1.00000E-45
9.60252E-01 1.00000E-45
9.61940E-01 1.00000E-45
9.63592E-01 1.00000E-45
9.65209E-01 1.00000E-45
9.66790E-01 1.00000E-45
9.68336E-01 1.00000E-45
9.69846E-01 1.00000E-45
9.71321E-01 1.00000E-45
9.72759E-01 1.00000E-45
9.74162E-01 1.00000E-45
9.75528E-01 1.00000E-45
9.76858E-01 1.00000E-45
9.78152E-01 1.00000E-45
9.79410E-01 1.00000E-45
9.80631E-01 1.00000E-45
9.81815E-01 1.00000E-45
9.82963E-01 1.00000E-45
9.84074E-01 1.00000E-45
9.85148E-01 1.00000E-45
9.86185E-01 1.00000E-45
9.87185E-01 1.00000E-45
9.88148E-01 1.00000E-45
9.89074E-01 1.00000E-45
9.89962E-01 1.00000E-45
9.90814E-01 1.00000E-45
9.91627E-01 1.00000E-45
9.92404E-01 1.00000E-45
9.93143E-01 1.00000E-45
9.93844E-01 1.00000E-45
9.94508E-01 1.00000E-45
9.95134E-01 1.00000E-45
9.95722E-01 1.00000E-45
9.96273E-01 1.00000E-45
9.96786E-01 1.00000E-45
9.97261E-01 1.00000E-45
9.97698E-01 1.00000E-45
9.98097E-01 1.00000E-45
9.98459E-01 1.00000E-45
9.98782E-01 1.00000E-45
9.99067E-01 1.00000E-45
9.99315E-01 1.00000E-45
9.99524E-01 1.00000E-45
9.99695E-01 1.00000E-45
9.99829E-01 1.00000E-45
9.99924E-01 1.00000E-45
9.99981E-01 1.00000E-45
1.00000E+00 1.00000E-45
