 #
 # Subroutine ELSEPA. Elastic scattering of electrons and positrons
 #                    by neutral atoms and positive ions
 #
 # Projectile: positron
 # Kinetic energy = 2.50000E+07 eV = 9.18733E+05 a.u.
 #
 # WARNING: High-energy factorization with free-atom DF screening.
 #          Absorption, polarization and exchange corrections are
 #          switched off.
 #          Phase shifts are calculated for the bare nucleus.
 #          Scattering amplitudes are not evaluated.
 #
 # Element: Ga,  Z =  31,  atomic weight = 6.97230E+01 g/mol
 #
 # Nuclear model: Fermi distribution
 #                Average radius = 4.40395E-13 cm
 #                Skin thickness = 5.46000E-14 cm
 #
 # Number of electrons = 31
 #
 # Total elastic cross section = 2.18242E-18 cm**2 = 7.79358E-02 a0**2
 # 1st transport cross section = 2.60157E-24 cm**2 = 9.29037E-08 a0**2
 # 2nd transport cross section = 7.57957E-24 cm**2 = 2.70671E-07 a0**2
 #
 #
 # Differential cross section:                       MU=(1-COS(THETA))/2
 #
 #  THETA        MU          DCS          DCS        Sherman      error
 #  (deg)                 (cm**2/sr)   (a0**2/sr)    function
 #----------------------------------------------------------------------
0.00000E+00 1.25669E-11
7.61557E-13 1.25644E-11
1.18994E-12 1.25630E-11
1.71346E-12 1.25613E-11
2.33225E-12 1.25593E-11
3.04617E-12 1.25571E-11
3.85530E-12 1.25545E-11
4.75964E-12 1.25516E-11
5.75917E-12 1.25484E-11
6.85391E-12 1.25448E-11
8.04379E-12 1.25410E-11
9.32893E-12 1.25369E-11
1.07092E-11 1.25325E-11
1.21847E-11 1.25278E-11
1.37554E-11 1.25228E-11
1.54213E-11 1.25175E-11
1.71823E-11 1.25119E-11
1.90386E-11 1.25060E-11
2.09900E-11 1.24997E-11
2.30367E-11 1.24932E-11
2.51785E-11 1.24864E-11
2.74156E-11 1.24794E-11
2.97478E-11 1.24720E-11
3.21752E-11 1.24643E-11
3.46979E-11 1.24563E-11
3.73157E-11 1.24480E-11
4.00286E-11 1.24395E-11
4.28368E-11 1.24306E-11
4.57402E-11 1.24215E-11
4.87388E-11 1.24121E-11
5.18325E-11 1.24024E-11
5.50215E-11 1.23924E-11
5.83057E-11 1.23821E-11
6.16850E-11 1.23715E-11
6.51595E-11 1.23607E-11
6.87293E-11 1.23496E-11
7.23943E-11 1.23382E-11
7.61544E-11 1.23265E-11
1.18991E-10 1.21948E-11
1.71347E-10 1.20372E-11
2.33223E-10 1.18553E-11
3.04617E-10 1.16512E-11
3.85531E-10 1.14267E-11
4.75965E-10 1.11846E-11
5.75917E-10 1.09277E-11
6.85389E-10 1.06569E-11
8.04380E-10 1.03767E-11
9.32891E-10 1.00865E-11
1.07092E-09 9.79208E-12
1.21847E-09 9.49140E-12
1.37554E-09 9.19038E-12
1.54213E-09 8.88738E-12
1.71823E-09 8.58678E-12
1.90386E-09 8.28790E-12
2.09900E-09 7.99336E-12
2.30367E-09 7.70363E-12
2.51785E-09 7.41951E-12
2.74156E-09 7.14257E-12
2.97478E-09 6.87198E-12
3.21752E-09 6.61032E-12
3.46978E-09 6.35527E-12
3.73156E-09 6.11033E-12
4.00286E-09 5.87197E-12
4.28368E-09 5.64397E-12
4.57402E-09 5.42312E-12
4.87388E-09 5.21204E-12
5.18326E-09 5.00861E-12
5.50215E-09 4.81413E-12
5.83057E-09 4.62750E-12
6.16850E-09 4.44895E-12
6.51596E-09 4.27825E-12
6.87293E-09 4.11476E-12
7.23942E-09 3.95897E-12
7.61544E-09 3.80956E-12
1.18991E-08 2.64373E-12
1.71347E-08 1.90498E-12
2.33223E-08 1.42178E-12
3.04617E-08 1.09226E-12
3.85531E-08 8.51368E-13
4.75965E-08 6.77060E-13
5.75917E-08 5.50594E-13
6.85389E-08 4.46193E-13
8.04380E-08 3.69591E-13
9.32891E-08 3.03086E-13
1.07092E-07 2.53501E-13
1.21847E-07 2.10242E-13
1.37554E-07 1.76830E-13
1.54213E-07 1.48415E-13
1.71823E-07 1.25602E-13
1.90386E-07 1.06522E-13
2.09900E-07 9.07916E-14
2.30367E-07 7.77336E-14
2.51785E-07 6.67766E-14
2.74156E-07 5.76847E-14
2.97478E-07 4.99647E-14
3.21752E-07 4.35296E-14
3.46978E-07 3.80195E-14
3.73156E-07 3.33920E-14
4.00286E-07 2.94031E-14
4.28368E-07 2.60179E-14
4.57402E-07 2.30922E-14
4.87388E-07 2.05794E-14
5.18325E-07 1.83987E-14
5.50215E-07 1.65067E-14
5.83057E-07 1.48554E-14
6.16850E-07 1.34102E-14
6.51596E-07 1.21412E-14
6.87293E-07 1.10216E-14
7.23942E-07 1.00328E-14
7.61543E-07 9.15389E-15
1.18991E-06 4.09206E-15
1.71347E-06 2.11012E-15
2.33223E-06 1.19193E-15
3.04617E-06 7.19815E-16
3.85531E-06 4.57808E-16
4.75964E-06 3.04407E-16
5.75916E-06 2.09951E-16
6.85388E-06 1.49388E-16
8.04378E-06 1.09159E-16
9.32888E-06 8.16219E-17
1.07092E-05 6.22641E-17
1.21846E-05 4.83336E-17
1.37553E-05 3.80994E-17
1.54212E-05 3.04424E-17
1.71822E-05 2.46189E-17
1.90385E-05 2.01230E-17
2.09899E-05 1.66134E-17
2.30365E-05 1.38370E-17
2.51783E-05 1.16166E-17
2.74153E-05 9.82363E-18
2.97475E-05 8.36310E-18
3.21749E-05 7.16382E-18
3.46974E-05 6.17197E-18
3.73152E-05 5.34600E-18
4.00281E-05 4.65369E-18
4.28362E-05 4.06984E-18
4.57395E-05 3.57461E-18
4.87380E-05 3.15226E-18
5.18317E-05 2.79033E-18
5.50205E-05 2.47875E-18
5.83045E-05 2.20938E-18
6.16838E-05 1.97556E-18
6.51582E-05 1.77184E-18
6.87277E-05 1.59367E-18
7.23925E-05 1.43733E-18
7.61524E-05 1.29967E-18
9.21439E-05 8.89317E-19
1.09658E-04 6.28667E-19
1.28695E-04 4.56801E-19
1.49255E-04 3.39776E-19
1.71338E-04 2.57907E-19
1.94942E-04 1.99247E-19
2.20070E-04 1.56340E-19
2.46720E-04 1.24374E-19
2.74892E-04 1.00167E-19
3.04586E-04 8.15681E-20
3.35803E-04 6.70873E-20
3.68542E-04 5.56790E-20
4.02802E-04 4.65932E-20
4.38585E-04 3.92853E-20
4.75889E-04 3.33542E-20
5.14715E-04 2.84999E-20
5.55063E-04 2.44966E-20
5.96931E-04 2.11712E-20
6.40321E-04 1.83907E-20
6.85233E-04 1.60516E-20
7.31665E-04 1.40722E-20
7.79618E-04 1.23884E-20
8.29092E-04 1.09487E-20
8.80086E-04 9.71192E-21
9.32601E-04 8.64468E-21
9.86636E-04 7.71987E-21
1.04219E-03 6.91531E-21
1.09927E-03 6.21271E-21
1.15786E-03 5.59698E-21
1.21797E-03 5.05554E-21
1.27961E-03 4.57791E-21
1.34276E-03 4.15527E-21
1.40743E-03 3.78022E-21
1.47362E-03 3.44646E-21
1.54133E-03 3.14867E-21
1.61056E-03 2.88230E-21
1.68131E-03 2.64345E-21
1.75357E-03 2.42879E-21
1.82735E-03 2.23543E-21
1.90265E-03 2.06090E-21
1.97947E-03 1.90304E-21
2.05780E-03 1.75998E-21
2.13765E-03 1.63008E-21
2.21902E-03 1.51192E-21
2.30190E-03 1.40425E-21
2.38630E-03 1.30597E-21
2.47222E-03 1.21612E-21
2.55965E-03 1.13385E-21
2.64859E-03 1.05840E-21
2.73905E-03 9.89106E-22
2.83103E-03 9.25378E-22
2.92452E-03 8.66686E-22
3.01952E-03 8.12563E-22
3.11604E-03 7.62587E-22
3.21407E-03 7.16384E-22
3.31362E-03 6.73619E-22
3.41468E-03 6.33988E-22
3.51725E-03 5.97221E-22
3.62133E-03 5.63072E-22
3.72692E-03 5.31323E-22
3.83403E-03 5.01773E-22
3.94265E-03 4.74242E-22
4.05278E-03 4.48569E-22
4.16442E-03 4.24604E-22
4.27757E-03 4.02213E-22
4.39223E-03 3.81273E-22
4.50840E-03 3.61675E-22
4.62608E-03 3.43314E-22
4.74527E-03 3.26101E-22
4.86597E-03 3.09949E-22
4.98817E-03 2.94781E-22
5.11188E-03 2.80527E-22
5.23711E-03 2.67121E-22
5.36383E-03 2.54503E-22
5.49207E-03 2.42618E-22
5.62181E-03 2.31417E-22
5.75306E-03 2.20852E-22
5.88581E-03 2.10881E-22
6.02007E-03 2.01464E-22
6.15583E-03 1.92565E-22
6.29310E-03 1.84150E-22
6.43187E-03 1.76188E-22
6.57214E-03 1.68649E-22
6.71392E-03 1.61508E-22
6.85720E-03 1.54740E-22
7.00198E-03 1.48320E-22
7.14827E-03 1.42229E-22
7.29605E-03 1.36446E-22
7.44534E-03 1.30952E-22
7.59612E-03 1.25731E-22
7.97965E-03 1.13768E-22
8.37255E-03 1.03189E-22
8.77480E-03 9.38055E-23
9.18641E-03 8.54603E-23
9.60736E-03 7.80183E-23
1.00376E-02 7.13654E-23
1.04773E-02 6.54032E-23
1.09262E-02 6.00477E-23
1.13844E-02 5.52266E-23
1.18520E-02 5.08772E-23
1.23288E-02 4.69454E-23
1.28150E-02 4.33841E-23
1.33104E-02 4.01522E-23
1.38150E-02 3.72140E-23
1.43290E-02 3.45382E-23
1.48521E-02 3.20971E-23
1.53845E-02 2.98667E-23
1.59262E-02 2.78253E-23
1.64770E-02 2.59545E-23
1.70371E-02 2.42371E-23
1.76063E-02 2.26586E-23
1.81848E-02 2.12056E-23
1.87724E-02 1.98664E-23
1.93692E-02 1.86305E-23
1.99751E-02 1.74885E-23
2.05901E-02 1.64321E-23
2.12143E-02 1.54537E-23
2.18476E-02 1.45464E-23
2.24900E-02 1.37043E-23
2.31415E-02 1.29217E-23
2.38021E-02 1.21938E-23
2.44717E-02 1.15160E-23
2.51504E-02 1.08842E-23
2.58382E-02 1.02948E-23
2.65349E-02 9.74444E-24
2.72407E-02 9.23003E-24
2.79555E-02 8.74882E-24
2.86793E-02 8.29828E-24
2.94120E-02 7.87611E-24
3.01537E-02 7.48019E-24
3.09043E-02 7.10860E-24
3.16639E-02 6.75959E-24
3.24324E-02 6.43151E-24
3.32098E-02 6.12291E-24
3.39961E-02 5.83241E-24
3.47912E-02 5.55875E-24
3.55952E-02 5.30079E-24
3.64081E-02 5.05747E-24
3.72297E-02 4.82780E-24
3.80602E-02 4.61087E-24
3.88995E-02 4.40586E-24
3.97476E-02 4.21199E-24
4.06044E-02 4.02854E-24
4.14700E-02 3.85486E-24
4.23443E-02 3.69033E-24
4.32273E-02 3.53438E-24
4.41190E-02 3.38648E-24
4.50194E-02 3.24615E-24
4.59284E-02 3.11291E-24
4.68461E-02 2.98636E-24
4.87074E-02 2.75174E-24
5.06030E-02 2.53943E-24
5.25328E-02 2.34695E-24
5.44967E-02 2.17213E-24
5.64946E-02 2.01307E-24
5.85262E-02 1.86811E-24
6.05914E-02 1.73578E-24
6.26901E-02 1.61480E-24
6.48222E-02 1.50402E-24
6.69873E-02 1.40243E-24
6.91854E-02 1.30915E-24
7.14163E-02 1.22337E-24
7.36799E-02 1.14439E-24
7.59760E-02 1.07157E-24
7.83043E-02 1.00436E-24
8.06647E-02 9.42243E-25
8.30571E-02 8.84769E-25
8.54812E-02 8.31532E-25
8.79369E-02 7.82164E-25
9.04240E-02 7.36337E-25
9.29422E-02 6.93752E-25
9.54915E-02 6.54140E-25
9.80716E-02 6.17258E-25
1.00682E-01 5.82886E-25
1.03323E-01 5.50822E-25
1.05995E-01 5.20885E-25
1.08696E-01 4.92910E-25
1.11427E-01 4.66746E-25
1.14188E-01 4.42255E-25
1.16978E-01 4.19312E-25
1.19797E-01 3.97801E-25
1.22645E-01 3.77619E-25
1.25522E-01 3.58669E-25
1.28428E-01 3.40863E-25
1.31361E-01 3.24120E-25
1.34323E-01 3.08365E-25
1.37313E-01 2.93530E-25
1.40330E-01 2.79552E-25
1.43375E-01 2.66374E-25
1.46447E-01 2.53940E-25
1.49545E-01 2.42203E-25
1.52671E-01 2.31116E-25
1.55823E-01 2.20638E-25
1.59001E-01 2.10728E-25
1.62205E-01 2.01351E-25
1.65435E-01 1.92474E-25
1.68690E-01 1.84064E-25
1.71970E-01 1.76094E-25
1.75276E-01 1.68537E-25
1.78606E-01 1.61367E-25
1.81961E-01 1.54560E-25
1.85340E-01 1.48097E-25
1.88743E-01 1.41955E-25
1.92169E-01 1.36118E-25
1.95619E-01 1.30566E-25
1.99092E-01 1.25284E-25
2.02589E-01 1.20256E-25
2.06107E-01 1.15467E-25
2.09649E-01 1.10906E-25
2.13212E-01 1.06558E-25
2.16797E-01 1.02413E-25
2.20404E-01 9.84593E-26
2.24032E-01 9.46863E-26
2.27680E-01 9.10846E-26
2.31350E-01 8.76451E-26
2.35040E-01 8.43593E-26
2.38751E-01 8.12191E-26
2.42481E-01 7.82170E-26
2.46231E-01 7.53460E-26
2.50000E-01 7.25993E-26
2.53788E-01 6.99707E-26
2.57595E-01 6.74542E-26
2.61421E-01 6.50442E-26
2.65264E-01 6.27356E-26
2.69126E-01 6.05233E-26
2.73005E-01 5.84026E-26
2.76901E-01 5.63692E-26
2.80814E-01 5.44188E-26
2.84744E-01 5.25474E-26
2.88691E-01 5.07515E-26
2.92653E-01 4.90273E-26
2.96632E-01 4.73717E-26
3.00625E-01 4.57813E-26
3.04634E-01 4.42533E-26
3.08658E-01 4.27847E-26
3.12697E-01 4.13729E-26
3.16749E-01 4.00153E-26
3.20816E-01 3.87095E-26
3.24896E-01 3.74533E-26
3.28990E-01 3.62444E-26
3.33097E-01 3.50807E-26
3.37216E-01 3.39603E-26
3.41348E-01 3.28813E-26
3.45492E-01 3.18420E-26
3.49647E-01 3.08406E-26
3.53814E-01 2.98756E-26
3.57992E-01 2.89453E-26
3.62181E-01 2.80485E-26
3.66381E-01 2.71836E-26
3.70590E-01 2.63493E-26
3.74810E-01 2.55444E-26
3.79039E-01 2.47678E-26
3.83277E-01 2.40181E-26
3.87524E-01 2.32945E-26
3.91780E-01 2.25957E-26
3.96044E-01 2.19209E-26
4.00316E-01 2.12691E-26
4.04596E-01 2.06393E-26
4.08882E-01 2.00307E-26
4.13176E-01 1.94425E-26
4.17476E-01 1.88740E-26
4.21783E-01 1.83242E-26
4.26095E-01 1.77926E-26
4.30413E-01 1.72784E-26
4.34737E-01 1.67810E-26
4.39065E-01 1.62997E-26
4.43398E-01 1.58340E-26
4.47736E-01 1.53832E-26
4.52077E-01 1.49468E-26
4.56422E-01 1.45243E-26
4.60770E-01 1.41152E-26
4.65122E-01 1.37189E-26
4.69476E-01 1.33351E-26
4.73832E-01 1.29632E-26
4.78190E-01 1.26029E-26
4.82550E-01 1.22537E-26
4.86912E-01 1.19152E-26
4.91274E-01 1.15871E-26
4.95637E-01 1.12690E-26
5.00000E-01 1.09605E-26
5.04363E-01 1.06613E-26
5.08726E-01 1.03711E-26
5.13088E-01 1.00896E-26
5.17450E-01 9.81648E-27
5.21810E-01 9.55144E-27
5.26168E-01 9.29421E-27
5.30524E-01 9.04454E-27
5.34878E-01 8.80217E-27
5.39230E-01 8.56685E-27
5.43578E-01 8.33836E-27
5.47923E-01 8.11647E-27
5.52264E-01 7.90095E-27
5.56602E-01 7.69161E-27
5.60935E-01 7.48823E-27
5.65263E-01 7.29063E-27
5.69587E-01 7.09862E-27
5.73905E-01 6.91201E-27
5.78217E-01 6.73064E-27
5.82524E-01 6.55434E-27
5.86824E-01 6.38294E-27
5.91118E-01 6.21630E-27
5.95404E-01 6.05426E-27
5.99684E-01 5.89668E-27
6.03956E-01 5.74341E-27
6.08220E-01 5.59433E-27
6.12476E-01 5.44931E-27
6.16723E-01 5.30822E-27
6.20961E-01 5.17093E-27
6.25190E-01 5.03735E-27
6.29410E-01 4.90734E-27
6.33619E-01 4.78081E-27
6.37819E-01 4.65764E-27
6.42008E-01 4.53774E-27
6.46186E-01 4.42101E-27
6.50353E-01 4.30736E-27
6.54508E-01 4.19669E-27
6.58652E-01 4.08892E-27
6.62784E-01 3.98396E-27
6.66903E-01 3.88173E-27
6.71010E-01 3.78215E-27
6.75104E-01 3.68514E-27
6.79184E-01 3.59062E-27
6.83251E-01 3.49854E-27
6.87303E-01 3.40881E-27
6.91342E-01 3.32137E-27
6.95366E-01 3.23615E-27
6.99375E-01 3.15310E-27
7.03368E-01 3.07214E-27
7.07347E-01 2.99323E-27
7.11309E-01 2.91630E-27
7.15256E-01 2.84130E-27
7.19186E-01 2.76817E-27
7.23099E-01 2.69687E-27
7.26995E-01 2.62734E-27
7.30874E-01 2.55953E-27
7.34736E-01 2.49340E-27
7.38579E-01 2.42891E-27
7.42405E-01 2.36600E-27
7.46212E-01 2.30463E-27
7.50000E-01 2.24477E-27
7.53769E-01 2.18637E-27
7.57519E-01 2.12939E-27
7.61249E-01 2.07380E-27
7.64960E-01 2.01956E-27
7.68650E-01 1.96663E-27
7.72320E-01 1.91498E-27
7.75968E-01 1.86457E-27
7.79596E-01 1.81538E-27
7.83203E-01 1.76737E-27
7.86788E-01 1.72051E-27
7.90351E-01 1.67477E-27
7.93893E-01 1.63012E-27
7.97411E-01 1.58654E-27
8.00908E-01 1.54399E-27
8.04381E-01 1.50246E-27
8.07831E-01 1.46191E-27
8.11257E-01 1.42232E-27
8.14660E-01 1.38367E-27
8.18039E-01 1.34593E-27
8.21394E-01 1.30909E-27
8.24724E-01 1.27311E-27
8.28030E-01 1.23798E-27
8.31310E-01 1.20367E-27
8.34565E-01 1.17017E-27
8.37795E-01 1.13746E-27
8.40999E-01 1.10551E-27
8.44177E-01 1.07432E-27
8.47329E-01 1.04385E-27
8.50455E-01 1.01410E-27
8.53553E-01 9.85047E-28
8.56625E-01 9.56673E-28
8.59670E-01 9.28963E-28
8.62687E-01 9.01902E-28
8.65677E-01 8.75474E-28
8.68639E-01 8.49666E-28
8.71572E-01 8.24461E-28
8.74478E-01 7.99847E-28
8.77355E-01 7.75811E-28
8.80203E-01 7.52338E-28
8.83022E-01 7.29417E-28
8.85812E-01 7.07034E-28
8.88573E-01 6.85179E-28
8.91304E-01 6.63838E-28
8.94005E-01 6.43001E-28
8.96677E-01 6.22657E-28
8.99318E-01 6.02795E-28
9.01928E-01 5.83404E-28
9.04508E-01 5.64474E-28
9.07058E-01 5.45996E-28
9.09576E-01 5.27959E-28
9.12063E-01 5.10355E-28
9.14519E-01 4.93174E-28
9.16943E-01 4.76407E-28
9.19335E-01 4.60046E-28
9.21696E-01 4.44083E-28
9.24024E-01 4.28509E-28
9.26320E-01 4.13317E-28
9.28584E-01 3.98499E-28
9.30815E-01 3.84047E-28
9.33013E-01 3.69954E-28
9.35178E-01 3.56213E-28
9.37310E-01 3.42818E-28
9.39409E-01 3.29761E-28
9.41474E-01 3.17037E-28
9.43505E-01 3.04638E-28
9.45503E-01 2.92559E-28
9.47467E-01 2.80795E-28
9.49397E-01 2.69338E-28
9.51293E-01 2.58184E-28
9.53154E-01 2.47328E-28
9.54981E-01 2.36763E-28
9.56773E-01 2.26485E-28
9.58530E-01 2.16490E-28
9.60252E-01 2.06771E-28
9.61940E-01 1.97325E-28
9.63592E-01 1.88147E-28
9.65209E-01 1.79233E-28
9.66790E-01 1.70579E-28
9.68336E-01 1.62179E-28
9.69846E-01 1.54032E-28
9.71321E-01 1.46131E-28
9.72759E-01 1.38475E-28
9.74162E-01 1.31059E-28
9.75528E-01 1.23880E-28
9.76858E-01 1.16935E-28
9.78152E-01 1.10219E-28
9.79410E-01 1.03731E-28
9.80631E-01 9.74675E-29
9.81815E-01 9.14249E-29
9.82963E-01 8.56009E-29
9.84074E-01 7.99926E-29
9.85148E-01 7.45976E-29
9.86185E-01 6.94134E-29
9.87185E-01 6.44376E-29
9.88148E-01 5.96680E-29
9.89074E-01 5.51023E-29
9.89962E-01 5.07385E-29
9.90814E-01 4.65746E-29
9.91627E-01 4.26087E-29
9.92404E-01 3.88390E-29
9.93143E-01 3.52638E-29
9.93844E-01 3.18815E-29
9.94508E-01 2.86906E-29
9.95134E-01 2.56896E-29
9.95722E-01 2.28772E-29
9.96273E-01 2.02520E-29
9.96786E-01 1.78130E-29
9.97261E-01 1.55591E-29
9.97698E-01 1.34891E-29
9.98097E-01 1.16022E-29
9.98459E-01 9.89759E-30
9.98782E-01 8.37443E-30
9.99067E-01 7.03206E-30
9.99315E-01 5.86989E-30
9.99524E-01 4.88740E-30
9.99695E-01 4.08414E-30
9.99829E-01 3.45975E-30
9.99924E-01 3.01396E-30
9.99981E-01 2.74656E-30
1.00000E+00 2.65744E-30
