 #
 # Subroutine ELSEPA. Elastic scattering of electrons and positrons
 #                    by neutral atoms and positive ions
 #
 # Projectile: positron
 # Kinetic energy = 6.00000E+07 eV = 2.20496E+06 a.u.
 #
 # WARNING: High-energy factorization with free-atom DF screening.
 #          Absorption, polarization and exchange corrections are
 #          switched off.
 #          Phase shifts are calculated for the bare nucleus.
 #          Scattering amplitudes are not evaluated.
 #
 # Element: Ga,  Z =  31,  atomic weight = 6.97230E+01 g/mol
 #
 # Nuclear model: Fermi distribution
 #                Average radius = 4.40395E-13 cm
 #                Skin thickness = 5.46000E-14 cm
 #
 # Number of electrons = 31
 #
 # Total elastic cross section = 2.17985E-18 cm**2 = 7.78440E-02 a0**2
 # 1st transport cross section = 5.08362E-25 cm**2 = 1.81539E-08 a0**2
 # 2nd transport cross section = 1.49633E-24 cm**2 = 5.34349E-08 a0**2
 #
 #
 # Differential cross section:                       MU=(1-COS(THETA))/2
 #
 #  THETA        MU          DCS          DCS        Sherman      error
 #  (deg)                 (cm**2/sr)   (a0**2/sr)    function
 #----------------------------------------------------------------------
0.00000E+00 7.07035E-11
7.61557E-13 7.06259E-11
1.18994E-12 7.05825E-11
1.71346E-12 7.05294E-11
2.33225E-12 7.04669E-11
3.04617E-12 7.03948E-11
3.85530E-12 7.03133E-11
4.75964E-12 7.02224E-11
5.75917E-12 7.01222E-11
6.85391E-12 7.00127E-11
8.04379E-12 6.98941E-11
9.32893E-12 6.97663E-11
1.07092E-11 6.96296E-11
1.21847E-11 6.94839E-11
1.37554E-11 6.93294E-11
1.54213E-11 6.91662E-11
1.71823E-11 6.89944E-11
1.90386E-11 6.88141E-11
2.09900E-11 6.86254E-11
2.30367E-11 6.84284E-11
2.51785E-11 6.82234E-11
2.74156E-11 6.80103E-11
2.97478E-11 6.77894E-11
3.21752E-11 6.75608E-11
3.46979E-11 6.73246E-11
3.73157E-11 6.70810E-11
4.00286E-11 6.68301E-11
4.28368E-11 6.65721E-11
4.57402E-11 6.63072E-11
4.87388E-11 6.60354E-11
5.18325E-11 6.57571E-11
5.50215E-11 6.54722E-11
5.83057E-11 6.51811E-11
6.16850E-11 6.48839E-11
6.51595E-11 6.45795E-11
6.87293E-11 6.42692E-11
7.23943E-11 6.39537E-11
7.61544E-11 6.36331E-11
1.18991E-10 6.01720E-11
1.71347E-10 5.63631E-11
2.33223E-10 5.23733E-11
3.04617E-10 4.83471E-11
3.85531E-10 4.44001E-11
4.75965E-10 4.06165E-11
5.75917E-10 3.70516E-11
6.85389E-10 3.37434E-11
8.04380E-10 3.07068E-11
9.32891E-10 2.79426E-11
1.07092E-09 2.54417E-11
1.21847E-09 2.31891E-11
1.37554E-09 2.11662E-11
1.54213E-09 1.93528E-11
1.71823E-09 1.77288E-11
1.90386E-09 1.62734E-11
2.09900E-09 1.49687E-11
2.30367E-09 1.37986E-11
2.51785E-09 1.27477E-11
2.74156E-09 1.18023E-11
2.97478E-09 1.09499E-11
3.21752E-09 1.01798E-11
3.46978E-09 9.48233E-12
3.73156E-09 8.84919E-12
4.00286E-09 8.27300E-12
4.28368E-09 7.74668E-12
4.57402E-09 7.26517E-12
4.87388E-09 6.82373E-12
5.18326E-09 6.41805E-12
5.50215E-09 6.04437E-12
5.83057E-09 5.69937E-12
6.16850E-09 5.38017E-12
6.51596E-09 5.06587E-12
6.87293E-09 4.77265E-12
7.23942E-09 4.50612E-12
7.61544E-09 4.26332E-12
1.18991E-08 2.58055E-12
1.71347E-08 1.63281E-12
2.33223E-08 1.06326E-12
3.04617E-08 7.09182E-13
3.85531E-08 4.84115E-13
4.75965E-08 3.38174E-13
5.75917E-08 2.41735E-13
6.85389E-08 1.76933E-13
8.04380E-08 1.32412E-13
9.32891E-08 1.01144E-13
1.07092E-07 7.87095E-14
1.21847E-07 6.22788E-14
1.37554E-07 5.00113E-14
1.54213E-07 4.06901E-14
1.71823E-07 3.34813E-14
1.90386E-07 2.78273E-14
2.09900E-07 2.33350E-14
2.30367E-07 1.97243E-14
2.51785E-07 1.67904E-14
2.74156E-07 1.43832E-14
2.97478E-07 1.23911E-14
3.21752E-07 1.07301E-14
3.46978E-07 9.33587E-15
3.73156E-07 8.15858E-15
4.00286E-07 7.15908E-15
4.28368E-07 6.30580E-15
4.57402E-07 5.57429E-15
4.87388E-07 4.94444E-15
5.18325E-07 4.39987E-15
5.50215E-07 3.92719E-15
5.83057E-07 3.51545E-15
6.16850E-07 3.15559E-15
6.51596E-07 2.83894E-15
6.87293E-07 2.56101E-15
7.23942E-07 2.31688E-15
7.61543E-07 2.10146E-15
1.18991E-06 8.80222E-16
1.71347E-06 4.30746E-16
2.33223E-06 2.35287E-16
3.04617E-06 1.39318E-16
3.85531E-06 8.77086E-17
4.75964E-06 5.79453E-17
5.75916E-06 3.98017E-17
6.85388E-06 2.82318E-17
8.04378E-06 2.05726E-17
9.32888E-06 1.53406E-17
1.07092E-05 1.16690E-17
1.21846E-05 9.03173E-18
1.37553E-05 7.09815E-18
1.54212E-05 5.65475E-18
1.71822E-05 4.55984E-18
1.90385E-05 3.71681E-18
2.09899E-05 3.06045E-18
2.30365E-05 2.54256E-18
2.51783E-05 2.12949E-18
2.74153E-05 1.79681E-18
2.97475E-05 1.52651E-18
3.21749E-05 1.30512E-18
3.46974E-05 1.12243E-18
3.73152E-05 9.70632E-19
4.00281E-05 8.43654E-19
4.28362E-05 7.36776E-19
4.57395E-05 6.46288E-19
4.87380E-05 5.69257E-19
5.18317E-05 5.03349E-19
5.50205E-05 4.46694E-19
5.83045E-05 3.97781E-19
6.16838E-05 3.55379E-19
6.51582E-05 3.18479E-19
6.87277E-05 2.86247E-19
7.23925E-05 2.57992E-19
7.61524E-05 2.33143E-19
9.21439E-05 1.59202E-19
1.09658E-04 1.12369E-19
1.28695E-04 8.15542E-20
1.49255E-04 6.06072E-20
1.71338E-04 4.59718E-20
1.94942E-04 3.54962E-20
2.20070E-04 2.78399E-20
2.46720E-04 2.21397E-20
2.74892E-04 1.78254E-20
3.04586E-04 1.45120E-20
3.35803E-04 1.19332E-20
3.68542E-04 9.90216E-21
4.02802E-04 8.28504E-21
4.38585E-04 6.98464E-21
4.75889E-04 5.92942E-21
5.14715E-04 5.06593E-21
5.55063E-04 4.35390E-21
5.96931E-04 3.76253E-21
6.40321E-04 3.26813E-21
6.85233E-04 2.85223E-21
7.31665E-04 2.50034E-21
7.79618E-04 2.20101E-21
8.29092E-04 1.94510E-21
8.80086E-04 1.72527E-21
9.32601E-04 1.53558E-21
9.86636E-04 1.37122E-21
1.04219E-03 1.22824E-21
1.09927E-03 1.10339E-21
1.15786E-03 9.93976E-22
1.21797E-03 8.97770E-22
1.27961E-03 8.12905E-22
1.34276E-03 7.37814E-22
1.40743E-03 6.71180E-22
1.47362E-03 6.11885E-22
1.54133E-03 5.58981E-22
1.61056E-03 5.11662E-22
1.68131E-03 4.69233E-22
1.75357E-03 4.31102E-22
1.82735E-03 3.96758E-22
1.90265E-03 3.65758E-22
1.97947E-03 3.37719E-22
2.05780E-03 3.12310E-22
2.13765E-03 2.89239E-22
2.21902E-03 2.68254E-22
2.30190E-03 2.49133E-22
2.38630E-03 2.31681E-22
2.47222E-03 2.15726E-22
2.55965E-03 2.01117E-22
2.64859E-03 1.87719E-22
2.73905E-03 1.75416E-22
2.83103E-03 1.64100E-22
2.92452E-03 1.53681E-22
3.01952E-03 1.44072E-22
3.11604E-03 1.35199E-22
3.21407E-03 1.26997E-22
3.31362E-03 1.19405E-22
3.41468E-03 1.12370E-22
3.51725E-03 1.05844E-22
3.62133E-03 9.97825E-23
3.72692E-03 9.41473E-23
3.83403E-03 8.89028E-23
3.94265E-03 8.40168E-23
4.05278E-03 7.94606E-23
4.16442E-03 7.52077E-23
4.27757E-03 7.12344E-23
4.39223E-03 6.75189E-23
4.50840E-03 6.40413E-23
4.62608E-03 6.07838E-23
4.74527E-03 5.77298E-23
4.86597E-03 5.48644E-23
4.98817E-03 5.21736E-23
5.11188E-03 4.96450E-23
5.23711E-03 4.72670E-23
5.36383E-03 4.50289E-23
5.49207E-03 4.29211E-23
5.62181E-03 4.09345E-23
5.75306E-03 3.90609E-23
5.88581E-03 3.72927E-23
6.02007E-03 3.56229E-23
6.15583E-03 3.40449E-23
6.29310E-03 3.25529E-23
6.43187E-03 3.11412E-23
6.57214E-03 2.98048E-23
6.71392E-03 2.85389E-23
6.85720E-03 2.73391E-23
7.00198E-03 2.62013E-23
7.14827E-03 2.51217E-23
7.29605E-03 2.40967E-23
7.44534E-03 2.31232E-23
7.59612E-03 2.21980E-23
7.97965E-03 2.00784E-23
8.37255E-03 1.82042E-23
8.77480E-03 1.65422E-23
9.18641E-03 1.50644E-23
9.60736E-03 1.37468E-23
1.00376E-02 1.25691E-23
1.04773E-02 1.15139E-23
1.09262E-02 1.05663E-23
1.13844E-02 9.71335E-24
1.18520E-02 8.94407E-24
1.23288E-02 8.24881E-24
1.28150E-02 7.61921E-24
1.33104E-02 7.04799E-24
1.38150E-02 6.52881E-24
1.43290E-02 6.05610E-24
1.48521E-02 5.62497E-24
1.53845E-02 5.23114E-24
1.59262E-02 4.87082E-24
1.64770E-02 4.54066E-24
1.70371E-02 4.23768E-24
1.76063E-02 3.95927E-24
1.81848E-02 3.70308E-24
1.87724E-02 3.46703E-24
1.93692E-02 3.24926E-24
1.99751E-02 3.04810E-24
2.05901E-02 2.86207E-24
2.12143E-02 2.68983E-24
2.18476E-02 2.53017E-24
2.24900E-02 2.38202E-24
2.31415E-02 2.24440E-24
2.38021E-02 2.11642E-24
2.44717E-02 1.99731E-24
2.51504E-02 1.88633E-24
2.58382E-02 1.78282E-24
2.65349E-02 1.68621E-24
2.72407E-02 1.59595E-24
2.79555E-02 1.51154E-24
2.86793E-02 1.43255E-24
2.94120E-02 1.35856E-24
3.01537E-02 1.28920E-24
3.09043E-02 1.22413E-24
3.16639E-02 1.16303E-24
3.24324E-02 1.10563E-24
3.32098E-02 1.05166E-24
3.39961E-02 1.00088E-24
3.47912E-02 9.53063E-25
3.55952E-02 9.08010E-25
3.64081E-02 8.65533E-25
3.72297E-02 8.25458E-25
3.80602E-02 7.87626E-25
3.88995E-02 7.51889E-25
3.97476E-02 7.18110E-25
4.06044E-02 6.86164E-25
4.14700E-02 6.55934E-25
4.23443E-02 6.27311E-25
4.32273E-02 6.00196E-25
4.41190E-02 5.74493E-25
4.50194E-02 5.50118E-25
4.59284E-02 5.26990E-25
4.68461E-02 5.05033E-25
4.87074E-02 4.64361E-25
5.06030E-02 4.27598E-25
5.25328E-02 3.94308E-25
5.44967E-02 3.64108E-25
5.64946E-02 3.36665E-25
5.85262E-02 3.11685E-25
6.05914E-02 2.88912E-25
6.26901E-02 2.68118E-25
6.48222E-02 2.49104E-25
6.69873E-02 2.31691E-25
6.91854E-02 2.15724E-25
7.14163E-02 2.01063E-25
7.36799E-02 1.87583E-25
7.59760E-02 1.75175E-25
7.83043E-02 1.63738E-25
8.06647E-02 1.53185E-25
8.30571E-02 1.43436E-25
8.54812E-02 1.34420E-25
8.79369E-02 1.26073E-25
9.04240E-02 1.18337E-25
9.29422E-02 1.11161E-25
9.54915E-02 1.04498E-25
9.80716E-02 9.83049E-26
1.00682E-01 9.25433E-26
1.03323E-01 8.71785E-26
1.05995E-01 8.21788E-26
1.08696E-01 7.75155E-26
1.11427E-01 7.31624E-26
1.14188E-01 6.90955E-26
1.16978E-01 6.52932E-26
1.19797E-01 6.17355E-26
1.22645E-01 5.84043E-26
1.25522E-01 5.52829E-26
1.28428E-01 5.23560E-26
1.31361E-01 4.96096E-26
1.34323E-01 4.70310E-26
1.37313E-01 4.46082E-26
1.40330E-01 4.23305E-26
1.43375E-01 4.01878E-26
1.46447E-01 3.81709E-26
1.49545E-01 3.62713E-26
1.52671E-01 3.44811E-26
1.55823E-01 3.27932E-26
1.59001E-01 3.12008E-26
1.62205E-01 2.96976E-26
1.65435E-01 2.82780E-26
1.68690E-01 2.69367E-26
1.71970E-01 2.56686E-26
1.75276E-01 2.44692E-26
1.78606E-01 2.33342E-26
1.81961E-01 2.22596E-26
1.85340E-01 2.12419E-26
1.88743E-01 2.02775E-26
1.92169E-01 1.93632E-26
1.95619E-01 1.84961E-26
1.99092E-01 1.76734E-26
2.02589E-01 1.68925E-26
2.06107E-01 1.61510E-26
2.09649E-01 1.54466E-26
2.13212E-01 1.47772E-26
2.16797E-01 1.41407E-26
2.20404E-01 1.35355E-26
2.24032E-01 1.29597E-26
2.27680E-01 1.24117E-26
2.31350E-01 1.18900E-26
2.35040E-01 1.13931E-26
2.38751E-01 1.09197E-26
2.42481E-01 1.04686E-26
2.46231E-01 1.00385E-26
2.50000E-01 9.62834E-27
2.53788E-01 9.23711E-27
2.57595E-01 8.86379E-27
2.61421E-01 8.50746E-27
2.65264E-01 8.16724E-27
2.69126E-01 7.84232E-27
2.73005E-01 7.53191E-27
2.76901E-01 7.23528E-27
2.80814E-01 6.95175E-27
2.84744E-01 6.68066E-27
2.88691E-01 6.42141E-27
2.92653E-01 6.17340E-27
2.96632E-01 5.93609E-27
3.00625E-01 5.70896E-27
3.04634E-01 5.49152E-27
3.08658E-01 5.28331E-27
3.12697E-01 5.08389E-27
3.16749E-01 4.89284E-27
3.20816E-01 4.70977E-27
3.24896E-01 4.53430E-27
3.28990E-01 4.36609E-27
3.33097E-01 4.20480E-27
3.37216E-01 4.05010E-27
3.41348E-01 3.90170E-27
3.45492E-01 3.75931E-27
3.49647E-01 3.62267E-27
3.53814E-01 3.49150E-27
3.57992E-01 3.36558E-27
3.62181E-01 3.24466E-27
3.66381E-01 3.12852E-27
3.70590E-01 3.01695E-27
3.74810E-01 2.90976E-27
3.79039E-01 2.80675E-27
3.83277E-01 2.70775E-27
3.87524E-01 2.61257E-27
3.91780E-01 2.52105E-27
3.96044E-01 2.43305E-27
4.00316E-01 2.34840E-27
4.04596E-01 2.26698E-27
4.08882E-01 2.18863E-27
4.13176E-01 2.11324E-27
4.17476E-01 2.04068E-27
4.21783E-01 1.97083E-27
4.26095E-01 1.90359E-27
4.30413E-01 1.83884E-27
4.34737E-01 1.77648E-27
4.39065E-01 1.71642E-27
4.43398E-01 1.65856E-27
4.47736E-01 1.60281E-27
4.52077E-01 1.54909E-27
4.56422E-01 1.49732E-27
4.60770E-01 1.44742E-27
4.65122E-01 1.39931E-27
4.69476E-01 1.35293E-27
4.73832E-01 1.30820E-27
4.78190E-01 1.26507E-27
4.82550E-01 1.22347E-27
4.86912E-01 1.18334E-27
4.91274E-01 1.14462E-27
4.95637E-01 1.10726E-27
5.00000E-01 1.07121E-27
5.04363E-01 1.03642E-27
5.08726E-01 1.00283E-27
5.13088E-01 9.70412E-28
5.17450E-01 9.39111E-28
5.21810E-01 9.08886E-28
5.26168E-01 8.79699E-28
5.30524E-01 8.51509E-28
5.34878E-01 8.24281E-28
5.39230E-01 7.97978E-28
5.43578E-01 7.72566E-28
5.47923E-01 7.48013E-28
5.52264E-01 7.24286E-28
5.56602E-01 7.01356E-28
5.60935E-01 6.79194E-28
5.65263E-01 6.57771E-28
5.69587E-01 6.37061E-28
5.73905E-01 6.17039E-28
5.78217E-01 5.97679E-28
5.82524E-01 5.78957E-28
5.86824E-01 5.60852E-28
5.91118E-01 5.43340E-28
5.95404E-01 5.26402E-28
5.99684E-01 5.10016E-28
6.03956E-01 4.94164E-28
6.08220E-01 4.78826E-28
6.12476E-01 4.63984E-28
6.16723E-01 4.49621E-28
6.20961E-01 4.35721E-28
6.25190E-01 4.22268E-28
6.29410E-01 4.09245E-28
6.33619E-01 3.96638E-28
6.37819E-01 3.84433E-28
6.42008E-01 3.72616E-28
6.46186E-01 3.61174E-28
6.50353E-01 3.50094E-28
6.54508E-01 3.39363E-28
6.58652E-01 3.28970E-28
6.62784E-01 3.18903E-28
6.66903E-01 3.09152E-28
6.71010E-01 2.99706E-28
6.75104E-01 2.90554E-28
6.79184E-01 2.81687E-28
6.83251E-01 2.73095E-28
6.87303E-01 2.64769E-28
6.91342E-01 2.56701E-28
6.95366E-01 2.48881E-28
6.99375E-01 2.41302E-28
7.03368E-01 2.33956E-28
7.07347E-01 2.26834E-28
7.11309E-01 2.19930E-28
7.15256E-01 2.13237E-28
7.19186E-01 2.06748E-28
7.23099E-01 2.00455E-28
7.26995E-01 1.94354E-28
7.30874E-01 1.88437E-28
7.34736E-01 1.82698E-28
7.38579E-01 1.77133E-28
7.42405E-01 1.71735E-28
7.46212E-01 1.66498E-28
7.50000E-01 1.61419E-28
7.53769E-01 1.56492E-28
7.57519E-01 1.51712E-28
7.61249E-01 1.47074E-28
7.64960E-01 1.42574E-28
7.68650E-01 1.38207E-28
7.72320E-01 1.33970E-28
7.75968E-01 1.29859E-28
7.79596E-01 1.25869E-28
7.83203E-01 1.21996E-28
7.86788E-01 1.18237E-28
7.90351E-01 1.14589E-28
7.93893E-01 1.11048E-28
7.97411E-01 1.07611E-28
8.00908E-01 1.04274E-28
8.04381E-01 1.01035E-28
8.07831E-01 9.78897E-29
8.11257E-01 9.48364E-29
8.14660E-01 9.18719E-29
8.18039E-01 8.89935E-29
8.21394E-01 8.61986E-29
8.24724E-01 8.34847E-29
8.28030E-01 8.08493E-29
8.31310E-01 7.82900E-29
8.34565E-01 7.58047E-29
8.37795E-01 7.33910E-29
8.40999E-01 7.10468E-29
8.44177E-01 6.87701E-29
8.47329E-01 6.65588E-29
8.50455E-01 6.44111E-29
8.53553E-01 6.23250E-29
8.56625E-01 6.02988E-29
8.59670E-01 5.83306E-29
8.62687E-01 5.64188E-29
8.65677E-01 5.45617E-29
8.68639E-01 5.27577E-29
8.71572E-01 5.10053E-29
8.74478E-01 4.93030E-29
8.77355E-01 4.76494E-29
8.80203E-01 4.60430E-29
8.83022E-01 4.44825E-29
8.85812E-01 4.29666E-29
8.88573E-01 4.14940E-29
8.91304E-01 4.00635E-29
8.94005E-01 3.86739E-29
8.96677E-01 3.73240E-29
8.99318E-01 3.60127E-29
9.01928E-01 3.47390E-29
9.04508E-01 3.35017E-29
9.07058E-01 3.22999E-29
9.09576E-01 3.11327E-29
9.12063E-01 2.99989E-29
9.14519E-01 2.88978E-29
9.16943E-01 2.78284E-29
9.19335E-01 2.67899E-29
9.21696E-01 2.57814E-29
9.24024E-01 2.48021E-29
9.26320E-01 2.38513E-29
9.28584E-01 2.29281E-29
9.30815E-01 2.20319E-29
9.33013E-01 2.11619E-29
9.35178E-01 2.03174E-29
9.37310E-01 1.94978E-29
9.39409E-01 1.87025E-29
9.41474E-01 1.79307E-29
9.43505E-01 1.71819E-29
9.45503E-01 1.64556E-29
9.47467E-01 1.57511E-29
9.49397E-01 1.50678E-29
9.51293E-01 1.44054E-29
9.53154E-01 1.37632E-29
9.54981E-01 1.31407E-29
9.56773E-01 1.25375E-29
9.58530E-01 1.19532E-29
9.60252E-01 1.13872E-29
9.61940E-01 1.08391E-29
9.63592E-01 1.03085E-29
9.65209E-01 9.79509E-30
9.66790E-01 9.29835E-30
9.68336E-01 8.81795E-30
9.69846E-01 8.35353E-30
9.71321E-01 7.90473E-30
9.72759E-01 7.47121E-30
9.74162E-01 7.05265E-30
9.75528E-01 6.64874E-30
9.76858E-01 6.25917E-30
9.78152E-01 5.88364E-30
9.79410E-01 5.52188E-30
9.80631E-01 5.17362E-30
9.81815E-01 4.83860E-30
9.82963E-01 4.51656E-30
9.84074E-01 4.20728E-30
9.85148E-01 3.91051E-30
9.86185E-01 3.62604E-30
9.87185E-01 3.35366E-30
9.88148E-01 3.09317E-30
9.89074E-01 2.84438E-30
9.89962E-01 2.60709E-30
9.90814E-01 2.38114E-30
9.91627E-01 2.16636E-30
9.92404E-01 1.96260E-30
9.93143E-01 1.76970E-30
9.93844E-01 1.58752E-30
9.94508E-01 1.41593E-30
9.95134E-01 1.25480E-30
9.95722E-01 1.10402E-30
9.96273E-01 9.63475E-31
9.96786E-01 8.33061E-31
9.97261E-01 7.12685E-31
9.97698E-01 6.02258E-31
9.98097E-01 5.01701E-31
9.98459E-01 4.10939E-31
9.98782E-01 3.29907E-31
9.99067E-01 2.58547E-31
9.99315E-01 1.96805E-31
9.99524E-01 1.44639E-31
9.99695E-01 1.02009E-31
9.99829E-01 6.88839E-32
9.99924E-01 4.52402E-32
9.99981E-01 3.10611E-32
1.00000E+00 2.63356E-32
