 #
 # Subroutine ELSEPA. Elastic scattering of electrons and positrons
 #                    by neutral atoms and positive ions
 #
 # Projectile: positron
 # Kinetic energy = 5.00000E+06 eV = 1.83747E+05 a.u.
 #
 # WARNING: High-energy factorization with free-atom DF screening.
 #          Absorption, polarization and exchange corrections are
 #          switched off.
 #          Phase shifts are calculated for the bare nucleus.
 #          Scattering amplitudes are not evaluated.
 #
 # Element: Ga,  Z =  31,  atomic weight = 6.97230E+01 g/mol
 #
 # Nuclear model: Fermi distribution
 #                Average radius = 4.40395E-13 cm
 #                Skin thickness = 5.46000E-14 cm
 #
 # Number of electrons = 31
 #
 # Total elastic cross section = 2.20242E-18 cm**2 = 7.86500E-02 a0**2
 # 1st transport cross section = 4.42142E-23 cm**2 = 1.57892E-06 a0**2
 # 2nd transport cross section = 1.27334E-22 cm**2 = 4.54718E-06 a0**2
 #
 #
 # Differential cross section:                       MU=(1-COS(THETA))/2
 #
 #  THETA        MU          DCS          DCS        Sherman      error
 #  (deg)                 (cm**2/sr)   (a0**2/sr)    function
 #----------------------------------------------------------------------
0.00000E+00 5.86453E-13
7.61557E-13 5.86447E-13
1.18994E-12 5.86444E-13
1.71346E-12 5.86440E-13
2.33225E-12 5.86436E-13
3.04617E-12 5.86431E-13
3.85530E-12 5.86425E-13
4.75964E-12 5.86419E-13
5.75917E-12 5.86411E-13
6.85391E-12 5.86404E-13
8.04379E-12 5.86395E-13
9.32893E-12 5.86386E-13
1.07092E-11 5.86377E-13
1.21847E-11 5.86366E-13
1.37554E-11 5.86355E-13
1.54213E-11 5.86344E-13
1.71823E-11 5.86331E-13
1.90386E-11 5.86318E-13
2.09900E-11 5.86305E-13
2.30367E-11 5.86290E-13
2.51785E-11 5.86275E-13
2.74156E-11 5.86260E-13
2.97478E-11 5.86243E-13
3.21752E-11 5.86226E-13
3.46979E-11 5.86209E-13
3.73157E-11 5.86191E-13
4.00286E-11 5.86172E-13
4.28368E-11 5.86152E-13
4.57402E-11 5.86132E-13
4.87388E-11 5.86111E-13
5.18325E-11 5.86090E-13
5.50215E-11 5.86067E-13
5.83057E-11 5.86044E-13
6.16850E-11 5.86021E-13
6.51595E-11 5.85997E-13
6.87293E-11 5.85972E-13
7.23943E-11 5.85947E-13
7.61544E-11 5.85920E-13
1.18991E-10 5.85623E-13
1.71347E-10 5.85260E-13
2.33223E-10 5.84832E-13
3.04617E-10 5.84339E-13
3.85531E-10 5.83782E-13
4.75965E-10 5.83160E-13
5.75917E-10 5.82474E-13
6.85389E-10 5.81725E-13
8.04380E-10 5.80912E-13
9.32891E-10 5.80037E-13
1.07092E-09 5.79099E-13
1.21847E-09 5.78100E-13
1.37554E-09 5.77039E-13
1.54213E-09 5.75918E-13
1.71823E-09 5.74737E-13
1.90386E-09 5.73497E-13
2.09900E-09 5.72198E-13
2.30367E-09 5.70841E-13
2.51785E-09 5.69427E-13
2.74156E-09 5.67957E-13
2.97478E-09 5.66431E-13
3.21752E-09 5.64850E-13
3.46978E-09 5.63216E-13
3.73156E-09 5.61528E-13
4.00286E-09 5.59788E-13
4.28368E-09 5.57996E-13
4.57402E-09 5.56155E-13
4.87388E-09 5.54263E-13
5.18326E-09 5.52324E-13
5.50215E-09 5.50336E-13
5.83057E-09 5.48303E-13
6.16850E-09 5.46223E-13
6.51596E-09 5.44100E-13
6.87293E-09 5.41932E-13
7.23942E-09 5.39723E-13
7.61544E-09 5.37472E-13
1.18991E-08 5.12926E-13
1.71347E-08 4.85447E-13
2.33223E-08 4.56107E-13
3.04617E-08 4.25893E-13
3.85531E-08 3.95648E-13
4.75965E-08 3.66051E-13
5.75917E-08 3.37610E-13
6.85389E-08 3.10679E-13
8.04380E-08 2.85477E-13
9.32891E-08 2.62111E-13
1.07092E-07 2.40607E-13
1.21847E-07 2.20927E-13
1.37554E-07 2.02994E-13
1.54213E-07 1.86703E-13
1.71823E-07 1.71934E-13
1.90386E-07 1.58561E-13
2.09900E-07 1.46461E-13
2.30367E-07 1.35513E-13
2.51785E-07 1.25602E-13
2.74156E-07 1.16624E-13
2.97478E-07 1.08481E-13
3.21752E-07 1.01085E-13
3.46978E-07 9.43569E-14
3.73156E-07 8.82262E-14
4.00286E-07 8.26293E-14
4.28368E-07 7.75097E-14
4.57402E-07 7.28174E-14
4.87388E-07 6.85078E-14
5.18325E-07 6.45417E-14
5.50215E-07 6.08842E-14
5.83057E-07 5.75045E-14
6.16850E-07 5.43752E-14
6.51596E-07 5.14723E-14
6.87293E-07 4.87742E-14
7.23942E-07 4.62620E-14
7.61543E-07 4.39186E-14
1.18991E-06 2.71432E-14
1.71347E-06 1.75728E-14
2.33223E-06 1.17032E-14
3.04617E-06 7.96444E-15
3.85531E-06 5.52840E-15
4.75964E-06 3.91359E-15
5.75916E-06 2.82593E-15
6.85388E-06 2.08130E-15
8.04378E-06 1.56277E-15
9.32888E-06 1.19528E-15
1.07092E-05 9.30149E-16
1.21846E-05 7.35453E-16
1.37553E-05 5.89997E-16
1.54212E-05 4.79525E-16
1.71822E-05 3.94313E-16
1.90385E-05 3.27623E-16
2.09899E-05 2.74750E-16
2.30365E-05 2.32315E-16
2.51783E-05 1.97882E-16
2.74153E-05 1.69665E-16
2.97475E-05 1.46336E-16
3.21749E-05 1.26892E-16
3.46974E-05 1.10569E-16
3.73152E-05 9.67768E-17
4.00281E-05 8.50545E-17
4.28362E-05 7.50379E-17
4.57395E-05 6.64368E-17
4.87380E-05 5.90178E-17
5.18317E-05 5.25920E-17
5.50205E-05 4.70049E-17
5.83045E-05 4.21296E-17
6.16838E-05 3.78611E-17
6.51582E-05 3.41120E-17
6.87277E-05 3.08091E-17
7.23925E-05 2.78912E-17
7.61524E-05 2.53063E-17
9.21439E-05 1.75096E-17
1.09658E-04 1.24799E-17
1.28695E-04 9.12689E-18
1.49255E-04 6.82617E-18
1.71338E-04 5.20674E-18
1.94942E-04 4.04075E-18
2.20070E-04 3.18415E-18
2.46720E-04 2.54341E-18
2.74892E-04 2.05635E-18
3.04586E-04 1.68072E-18
3.35803E-04 1.38721E-18
3.68542E-04 1.15514E-18
4.02802E-04 9.69684E-19
4.38585E-04 8.20013E-19
4.75889E-04 6.98140E-19
5.14715E-04 5.98084E-19
5.55063E-04 5.15316E-19
5.96931E-04 4.46369E-19
6.40321E-04 3.88562E-19
6.85233E-04 3.39802E-19
7.31665E-04 2.98442E-19
7.79618E-04 2.63176E-19
8.29092E-04 2.32956E-19
8.80086E-04 2.06942E-19
9.32601E-04 1.84450E-19
9.86636E-04 1.64925E-19
1.04219E-03 1.47909E-19
1.09927E-03 1.33025E-19
1.15786E-03 1.19962E-19
1.21797E-03 1.08459E-19
1.27961E-03 9.82983E-20
1.34276E-03 8.92961E-20
1.40743E-03 8.12980E-20
1.47362E-03 7.41728E-20
1.54133E-03 6.78088E-20
1.61056E-03 6.21108E-20
1.68131E-03 5.69969E-20
1.75357E-03 5.23969E-20
1.82735E-03 4.82503E-20
1.90265E-03 4.45044E-20
1.97947E-03 4.11139E-20
2.05780E-03 3.80392E-20
2.13765E-03 3.52456E-20
2.21902E-03 3.27029E-20
2.30190E-03 3.03847E-20
2.38630E-03 2.82676E-20
2.47222E-03 2.63311E-20
2.55965E-03 2.45571E-20
2.64859E-03 2.29295E-20
2.73905E-03 2.14340E-20
2.83103E-03 2.00581E-20
2.92452E-03 1.87904E-20
3.01952E-03 1.76210E-20
3.11604E-03 1.65409E-20
3.21407E-03 1.55419E-20
3.31362E-03 1.46170E-20
3.41468E-03 1.37596E-20
3.51725E-03 1.29640E-20
3.62133E-03 1.22248E-20
3.72692E-03 1.15374E-20
3.83403E-03 1.08975E-20
3.94265E-03 1.03011E-20
4.05278E-03 9.74489E-21
4.16442E-03 9.22555E-21
4.27757E-03 8.74022E-21
4.39223E-03 8.28627E-21
4.50840E-03 7.86131E-21
4.62608E-03 7.46314E-21
4.74527E-03 7.08976E-21
4.86597E-03 6.73936E-21
4.98817E-03 6.41026E-21
5.11188E-03 6.10093E-21
5.23711E-03 5.80996E-21
5.36383E-03 5.53606E-21
5.49207E-03 5.27806E-21
5.62181E-03 5.03485E-21
5.75306E-03 4.80543E-21
5.88581E-03 4.58888E-21
6.02007E-03 4.38434E-21
6.15583E-03 4.19103E-21
6.29310E-03 4.00821E-21
6.43187E-03 3.83521E-21
6.57214E-03 3.67141E-21
6.71392E-03 3.51622E-21
6.85720E-03 3.36911E-21
7.00198E-03 3.22958E-21
7.14827E-03 3.09717E-21
7.29605E-03 2.97145E-21
7.44534E-03 2.85202E-21
7.59612E-03 2.73849E-21
7.97965E-03 2.47835E-21
8.37255E-03 2.24825E-21
8.77480E-03 2.04413E-21
9.18641E-03 1.86256E-21
9.60736E-03 1.70063E-21
1.00376E-02 1.55583E-21
1.04773E-02 1.42606E-21
1.09262E-02 1.30947E-21
1.13844E-02 1.20451E-21
1.18520E-02 1.10980E-21
1.23288E-02 1.02418E-21
1.28150E-02 9.46612E-22
1.33104E-02 8.76215E-22
1.38150E-02 8.12209E-22
1.43290E-02 7.53912E-22
1.48521E-02 7.00724E-22
1.53845E-02 6.52119E-22
1.59262E-02 6.07634E-22
1.64770E-02 5.66856E-22
1.70371E-02 5.29423E-22
1.76063E-02 4.95011E-22
1.81848E-02 4.63334E-22
1.87724E-02 4.34136E-22
1.93692E-02 4.07187E-22
1.99751E-02 3.82285E-22
2.05901E-02 3.59245E-22
2.12143E-02 3.37905E-22
2.18476E-02 3.18115E-22
2.24900E-02 2.99743E-22
2.31415E-02 2.82670E-22
2.38021E-02 2.66787E-22
2.44717E-02 2.51997E-22
2.51504E-02 2.38210E-22
2.58382E-02 2.25347E-22
2.65349E-02 2.13334E-22
2.72407E-02 2.02105E-22
2.79555E-02 1.91599E-22
2.86793E-02 1.81763E-22
2.94120E-02 1.72545E-22
3.01537E-02 1.63899E-22
3.09043E-02 1.55784E-22
3.16639E-02 1.48161E-22
3.24324E-02 1.40995E-22
3.32098E-02 1.34253E-22
3.39961E-02 1.27907E-22
3.47912E-02 1.21928E-22
3.55952E-02 1.16291E-22
3.64081E-02 1.10973E-22
3.72297E-02 1.05953E-22
3.80602E-02 1.01212E-22
3.88995E-02 9.67301E-23
3.97476E-02 9.24916E-23
4.06044E-02 8.84806E-23
4.14700E-02 8.46826E-23
4.23443E-02 8.10844E-23
4.32273E-02 7.76735E-23
4.41190E-02 7.44383E-23
4.50194E-02 7.13682E-23
4.59284E-02 6.84532E-23
4.68461E-02 6.56841E-23
4.87074E-02 6.05494E-23
5.06030E-02 5.59020E-23
5.25328E-02 5.16876E-23
5.44967E-02 4.78589E-23
5.64946E-02 4.43747E-23
5.85262E-02 4.11984E-23
6.05914E-02 3.82982E-23
6.26901E-02 3.56460E-23
6.48222E-02 3.32168E-23
6.69873E-02 3.09887E-23
6.91854E-02 2.89421E-23
7.14163E-02 2.70596E-23
7.36799E-02 2.53259E-23
7.59760E-02 2.37270E-23
7.83043E-02 2.22507E-23
8.06647E-02 2.08860E-23
8.30571E-02 1.96229E-23
8.54812E-02 1.84525E-23
8.79369E-02 1.73669E-23
9.04240E-02 1.63588E-23
9.29422E-02 1.54218E-23
9.54915E-02 1.45498E-23
9.80716E-02 1.37378E-23
1.00682E-01 1.29806E-23
1.03323E-01 1.22742E-23
1.05995E-01 1.16143E-23
1.08696E-01 1.09975E-23
1.11427E-01 1.04204E-23
1.14188E-01 9.88001E-24
1.16978E-01 9.37359E-24
1.19797E-01 8.89863E-24
1.22645E-01 8.45282E-24
1.25522E-01 8.03408E-24
1.28428E-01 7.64045E-24
1.31361E-01 7.27018E-24
1.34323E-01 6.92162E-24
1.37313E-01 6.59328E-24
1.40330E-01 6.28379E-24
1.43375E-01 5.99187E-24
1.46447E-01 5.71635E-24
1.49545E-01 5.45615E-24
1.52671E-01 5.21026E-24
1.55823E-01 4.97775E-24
1.59001E-01 4.75777E-24
1.62205E-01 4.54953E-24
1.65435E-01 4.35229E-24
1.68690E-01 4.16536E-24
1.71970E-01 3.98812E-24
1.75276E-01 3.81997E-24
1.78606E-01 3.66036E-24
1.81961E-01 3.50879E-24
1.85340E-01 3.36477E-24
1.88743E-01 3.22787E-24
1.92169E-01 3.09767E-24
1.95619E-01 2.97379E-24
1.99092E-01 2.85586E-24
2.02589E-01 2.74355E-24
2.06107E-01 2.63654E-24
2.09649E-01 2.53455E-24
2.13212E-01 2.43728E-24
2.16797E-01 2.34450E-24
2.20404E-01 2.25595E-24
2.24032E-01 2.17140E-24
2.27680E-01 2.09065E-24
2.31350E-01 2.01349E-24
2.35040E-01 1.93974E-24
2.38751E-01 1.86922E-24
2.42481E-01 1.80176E-24
2.46231E-01 1.73721E-24
2.50000E-01 1.67541E-24
2.53788E-01 1.61624E-24
2.57595E-01 1.55956E-24
2.61421E-01 1.50524E-24
2.65264E-01 1.45318E-24
2.69126E-01 1.40326E-24
2.73005E-01 1.35538E-24
2.76901E-01 1.30944E-24
2.80814E-01 1.26534E-24
2.84744E-01 1.22301E-24
2.88691E-01 1.18236E-24
2.92653E-01 1.14330E-24
2.96632E-01 1.10578E-24
3.00625E-01 1.06971E-24
3.04634E-01 1.03503E-24
3.08658E-01 1.00168E-24
3.12697E-01 9.69592E-25
3.16749E-01 9.38718E-25
3.20816E-01 9.09002E-25
3.24896E-01 8.80394E-25
3.28990E-01 8.52846E-25
3.33097E-01 8.26310E-25
3.37216E-01 8.00742E-25
3.41348E-01 7.76099E-25
3.45492E-01 7.52344E-25
3.49647E-01 7.29444E-25
3.53814E-01 7.07360E-25
3.57992E-01 6.86055E-25
3.62181E-01 6.65498E-25
3.66381E-01 6.45658E-25
3.70590E-01 6.26508E-25
3.74810E-01 6.08018E-25
3.79039E-01 5.90162E-25
3.83277E-01 5.72915E-25
3.87524E-01 5.56252E-25
3.91780E-01 5.40151E-25
3.96044E-01 5.24588E-25
4.00316E-01 5.09544E-25
4.04596E-01 4.94997E-25
4.08882E-01 4.80929E-25
4.13176E-01 4.67321E-25
4.17476E-01 4.54156E-25
4.21783E-01 4.41416E-25
4.26095E-01 4.29087E-25
4.30413E-01 4.17151E-25
4.34737E-01 4.05596E-25
4.39065E-01 3.94406E-25
4.43398E-01 3.83568E-25
4.47736E-01 3.73069E-25
4.52077E-01 3.62897E-25
4.56422E-01 3.53041E-25
4.60770E-01 3.43487E-25
4.65122E-01 3.34227E-25
4.69476E-01 3.25248E-25
4.73832E-01 3.16542E-25
4.78190E-01 3.08099E-25
4.82550E-01 2.99909E-25
4.86912E-01 2.91963E-25
4.91274E-01 2.84254E-25
4.95637E-01 2.76773E-25
5.00000E-01 2.69512E-25
5.04363E-01 2.62463E-25
5.08726E-01 2.55620E-25
5.13088E-01 2.48975E-25
5.17450E-01 2.42522E-25
5.21810E-01 2.36254E-25
5.26168E-01 2.30165E-25
5.30524E-01 2.24250E-25
5.34878E-01 2.18502E-25
5.39230E-01 2.12916E-25
5.43578E-01 2.07487E-25
5.47923E-01 2.02209E-25
5.52264E-01 1.97079E-25
5.56602E-01 1.92090E-25
5.60935E-01 1.87239E-25
5.65263E-01 1.82521E-25
5.69587E-01 1.77931E-25
5.73905E-01 1.73467E-25
5.78217E-01 1.69123E-25
5.82524E-01 1.64897E-25
5.86824E-01 1.60784E-25
5.91118E-01 1.56781E-25
5.95404E-01 1.52885E-25
5.99684E-01 1.49092E-25
6.03956E-01 1.45399E-25
6.08220E-01 1.41803E-25
6.12476E-01 1.38302E-25
6.16723E-01 1.34892E-25
6.20961E-01 1.31571E-25
6.25190E-01 1.28335E-25
6.29410E-01 1.25183E-25
6.33619E-01 1.22112E-25
6.37819E-01 1.19120E-25
6.42008E-01 1.16204E-25
6.46186E-01 1.13362E-25
6.50353E-01 1.10591E-25
6.54508E-01 1.07891E-25
6.58652E-01 1.05259E-25
6.62784E-01 1.02692E-25
6.66903E-01 1.00190E-25
6.71010E-01 9.77497E-26
6.75104E-01 9.53699E-26
6.79184E-01 9.30489E-26
6.83251E-01 9.07850E-26
6.87303E-01 8.85767E-26
6.91342E-01 8.64223E-26
6.95366E-01 8.43204E-26
6.99375E-01 8.22695E-26
7.03368E-01 8.02684E-26
7.07347E-01 7.83155E-26
7.11309E-01 7.64096E-26
7.15256E-01 7.45494E-26
7.19186E-01 7.27337E-26
7.23099E-01 7.09613E-26
7.26995E-01 6.92311E-26
7.30874E-01 6.75419E-26
7.34736E-01 6.58926E-26
7.38579E-01 6.42822E-26
7.42405E-01 6.27097E-26
7.46212E-01 6.11740E-26
7.50000E-01 5.96743E-26
7.53769E-01 5.82096E-26
7.57519E-01 5.67790E-26
7.61249E-01 5.53816E-26
7.64960E-01 5.40165E-26
7.68650E-01 5.26830E-26
7.72320E-01 5.13803E-26
7.75968E-01 5.01076E-26
7.79596E-01 4.88640E-26
7.83203E-01 4.76490E-26
7.86788E-01 4.64617E-26
7.90351E-01 4.53016E-26
7.93893E-01 4.41678E-26
7.97411E-01 4.30599E-26
8.00908E-01 4.19771E-26
8.04381E-01 4.09189E-26
8.07831E-01 3.98846E-26
8.11257E-01 3.88736E-26
8.14660E-01 3.78855E-26
8.18039E-01 3.69197E-26
8.21394E-01 3.59756E-26
8.24724E-01 3.50527E-26
8.28030E-01 3.41505E-26
8.31310E-01 3.32686E-26
8.34565E-01 3.24065E-26
8.37795E-01 3.15637E-26
8.40999E-01 3.07397E-26
8.44177E-01 2.99342E-26
8.47329E-01 2.91467E-26
8.50455E-01 2.83768E-26
8.53553E-01 2.76241E-26
8.56625E-01 2.68882E-26
8.59670E-01 2.61688E-26
8.62687E-01 2.54655E-26
8.65677E-01 2.47779E-26
8.68639E-01 2.41056E-26
8.71572E-01 2.34484E-26
8.74478E-01 2.28060E-26
8.77355E-01 2.21779E-26
8.80203E-01 2.15639E-26
8.83022E-01 2.09637E-26
8.85812E-01 2.03771E-26
8.88573E-01 1.98036E-26
8.91304E-01 1.92431E-26
8.94005E-01 1.86952E-26
8.96677E-01 1.81598E-26
8.99318E-01 1.76365E-26
9.01928E-01 1.71251E-26
9.04508E-01 1.66253E-26
9.07058E-01 1.61370E-26
9.09576E-01 1.56600E-26
9.12063E-01 1.51938E-26
9.14519E-01 1.47385E-26
9.16943E-01 1.42937E-26
9.19335E-01 1.38593E-26
9.21696E-01 1.34350E-26
9.24024E-01 1.30207E-26
9.26320E-01 1.26162E-26
9.28584E-01 1.22212E-26
9.30815E-01 1.18357E-26
9.33013E-01 1.14594E-26
9.35178E-01 1.10922E-26
9.37310E-01 1.07339E-26
9.39409E-01 1.03843E-26
9.41474E-01 1.00434E-26
9.43505E-01 9.71090E-27
9.45503E-01 9.38672E-27
9.47467E-01 9.07069E-27
9.49397E-01 8.76270E-27
9.51293E-01 8.46260E-27
9.53154E-01 8.17027E-27
9.54981E-01 7.88558E-27
9.56773E-01 7.60841E-27
9.58530E-01 7.33863E-27
9.60252E-01 7.07615E-27
9.61940E-01 6.82083E-27
9.63592E-01 6.57259E-27
9.65209E-01 6.33130E-27
9.66790E-01 6.09688E-27
9.68336E-01 5.86922E-27
9.69846E-01 5.64823E-27
9.71321E-01 5.43381E-27
9.72759E-01 5.22588E-27
9.74162E-01 5.02435E-27
9.75528E-01 4.82914E-27
9.76858E-01 4.64017E-27
9.78152E-01 4.45735E-27
9.79410E-01 4.28062E-27
9.80631E-01 4.10990E-27
9.81815E-01 3.94512E-27
9.82963E-01 3.78622E-27
9.84074E-01 3.63313E-27
9.85148E-01 3.48579E-27
9.86185E-01 3.34413E-27
9.87185E-01 3.20811E-27
9.88148E-01 3.07767E-27
9.89074E-01 2.95275E-27
9.89962E-01 2.83330E-27
9.90814E-01 2.71928E-27
9.91627E-01 2.61064E-27
9.92404E-01 2.50734E-27
9.93143E-01 2.40933E-27
9.93844E-01 2.31658E-27
9.94508E-01 2.22905E-27
9.95134E-01 2.14671E-27
9.95722E-01 2.06952E-27
9.96273E-01 1.99745E-27
9.96786E-01 1.93047E-27
9.97261E-01 1.86856E-27
9.97698E-01 1.81170E-27
9.98097E-01 1.75985E-27
9.98459E-01 1.71300E-27
9.98782E-01 1.67113E-27
9.99067E-01 1.63423E-27
9.99315E-01 1.60228E-27
9.99524E-01 1.57526E-27
9.99695E-01 1.55317E-27
9.99829E-01 1.53600E-27
9.99924E-01 1.52374E-27
9.99981E-01 1.51638E-27
1.00000E+00 1.51393E-27
