 #
 # Subroutine ELSEPA. Elastic scattering of electrons and positrons
 #                    by neutral atoms and positive ions
 #
 # Projectile: positron
 # Kinetic energy = 1.25000E+08 eV = 4.59367E+06 a.u.
 #
 # WARNING: High-energy factorization with free-atom DF screening.
 #          Absorption, polarization and exchange corrections are
 #          switched off.
 #          Phase shifts are calculated for the bare nucleus.
 #          Scattering amplitudes are not evaluated.
 #
 # Element: Ga,  Z =  31,  atomic weight = 6.97230E+01 g/mol
 #
 # Nuclear model: Fermi distribution
 #                Average radius = 4.40395E-13 cm
 #                Skin thickness = 5.46000E-14 cm
 #
 # Number of electrons = 31
 #
 # Total elastic cross section = 2.18139E-18 cm**2 = 7.78987E-02 a0**2
 # 1st transport cross section = 1.22465E-25 cm**2 = 4.37330E-09 a0**2
 # 2nd transport cross section = 3.64831E-25 cm**2 = 1.30284E-08 a0**2
 #
 #
 # Differential cross section:                       MU=(1-COS(THETA))/2
 #
 #  THETA        MU          DCS          DCS        Sherman      error
 #  (deg)                 (cm**2/sr)   (a0**2/sr)    function
 #----------------------------------------------------------------------
0.00000E+00 3.04184E-10
7.61557E-13 3.02756E-10
1.18994E-12 3.01959E-10
1.71346E-12 3.00990E-10
2.33225E-12 2.99851E-10
3.04617E-12 2.98547E-10
3.85530E-12 2.97080E-10
4.75964E-12 2.95456E-10
5.75917E-12 2.93678E-10
6.85391E-12 2.91752E-10
8.04379E-12 2.89683E-10
9.32893E-12 2.87477E-10
1.07092E-11 2.85139E-10
1.21847E-11 2.82675E-10
1.37554E-11 2.80093E-10
1.54213E-11 2.77391E-10
1.71823E-11 2.74581E-10
1.90386E-11 2.71679E-10
2.09900E-11 2.68693E-10
2.30367E-11 2.65624E-10
2.51785E-11 2.62453E-10
2.74156E-11 2.59219E-10
2.97478E-11 2.55929E-10
3.21752E-11 2.52592E-10
3.46979E-11 2.49178E-10
3.73157E-11 2.45718E-10
4.00286E-11 2.42231E-10
4.28368E-11 2.38722E-10
4.57402E-11 2.35178E-10
4.87388E-11 2.31593E-10
5.18325E-11 2.28004E-10
5.50215E-11 2.24418E-10
5.83057E-11 2.20838E-10
6.16850E-11 2.17215E-10
6.51595E-11 2.13611E-10
6.87293E-11 2.10027E-10
7.23943E-11 2.06470E-10
7.61544E-11 2.02904E-10
1.18991E-10 1.68907E-10
1.71347E-10 1.39208E-10
2.33223E-10 1.14505E-10
3.04617E-10 9.44835E-11
3.85531E-10 7.85004E-11
4.75965E-10 6.57876E-11
5.75917E-10 5.56407E-11
6.85389E-10 4.74920E-11
8.04380E-10 4.08954E-11
9.32891E-10 3.55000E-11
1.07092E-09 3.10322E-11
1.21847E-09 2.73006E-11
1.37554E-09 2.41521E-11
1.54213E-09 2.13572E-11
1.71823E-09 1.89463E-11
1.90386E-09 1.69562E-11
2.09900E-09 1.52985E-11
2.30367E-09 1.38655E-11
2.51785E-09 1.24302E-11
2.74156E-09 1.12188E-11
2.97478E-09 1.01889E-11
3.21752E-09 9.30747E-12
3.46978E-09 8.43508E-12
3.73156E-09 7.65346E-12
4.00286E-09 6.97845E-12
4.28368E-09 6.39239E-12
4.57402E-09 5.84946E-12
4.87388E-09 5.33083E-12
5.18326E-09 4.87716E-12
5.50215E-09 4.47862E-12
5.83057E-09 4.12608E-12
6.16850E-09 3.77662E-12
6.51596E-09 3.46760E-12
6.87293E-09 3.19340E-12
7.23942E-09 2.94927E-12
7.61544E-09 2.71846E-12
1.18991E-08 1.27947E-12
1.71347E-08 6.67254E-13
2.33223E-08 3.81255E-13
3.04617E-08 2.34841E-13
3.85531E-08 1.53495E-13
4.75965E-08 1.04982E-13
5.75917E-08 7.43805E-14
6.85389E-08 5.41789E-14
8.04380E-08 4.03644E-14
9.32891E-08 3.06504E-14
1.07092E-07 2.36579E-14
1.21847E-07 1.85293E-14
1.37554E-07 1.47023E-14
1.54213E-07 1.17969E-14
1.71823E-07 9.57621E-15
1.90386E-07 7.84776E-15
2.09900E-07 6.49351E-15
2.30367E-07 5.41453E-15
2.51785E-07 4.55189E-15
2.74156E-07 3.85353E-15
2.97478E-07 3.28432E-15
3.21752E-07 2.81654E-15
3.46978E-07 2.42910E-15
3.73156E-07 2.10645E-15
4.00286E-07 1.83550E-15
4.28368E-07 1.60702E-15
4.57402E-07 1.41304E-15
4.87388E-07 1.24758E-15
5.18325E-07 1.10575E-15
5.50215E-07 9.83514E-16
5.83057E-07 8.77824E-16
6.16850E-07 7.85928E-16
6.51596E-07 7.05823E-16
6.87293E-07 6.35669E-16
7.23942E-07 5.74042E-16
7.61543E-07 5.19729E-16
1.18991E-06 2.16107E-16
1.71347E-06 1.05252E-16
2.33223E-06 5.71764E-17
3.04617E-06 3.36556E-17
3.85531E-06 2.10694E-17
4.75964E-06 1.38497E-17
5.75916E-06 9.47182E-18
6.85388E-06 6.69382E-18
8.04378E-06 4.86301E-18
9.32888E-06 3.61714E-18
1.07092E-05 2.74570E-18
1.21846E-05 2.12147E-18
1.37553E-05 1.66490E-18
1.54212E-05 1.32476E-18
1.71822E-05 1.06718E-18
1.90385E-05 8.69139E-19
2.09899E-05 7.15144E-19
2.30365E-05 5.93766E-19
2.51783E-05 4.97042E-19
2.74153E-05 4.19204E-19
2.97475E-05 3.56003E-19
3.21749E-05 3.04270E-19
3.46974E-05 2.61603E-19
3.73152E-05 2.26165E-19
4.00281E-05 1.96534E-19
4.28362E-05 1.71602E-19
4.57395E-05 1.50500E-19
4.87380E-05 1.32541E-19
5.18317E-05 1.17179E-19
5.50205E-05 1.03977E-19
5.83045E-05 9.25812E-20
6.16838E-05 8.27041E-20
6.51582E-05 7.41100E-20
6.87277E-05 6.66042E-20
7.23925E-05 6.00254E-20
7.61524E-05 5.42410E-20
9.21439E-05 3.70298E-20
1.09658E-04 2.61319E-20
1.28695E-04 1.89631E-20
1.49255E-04 1.40908E-20
1.71338E-04 1.06870E-20
1.94942E-04 8.25095E-21
2.20070E-04 6.47066E-21
2.46720E-04 5.14533E-21
2.74892E-04 4.14227E-21
3.04586E-04 3.37198E-21
3.35803E-04 2.77250E-21
3.68542E-04 2.30039E-21
4.02802E-04 1.92450E-21
4.38585E-04 1.62226E-21
4.75889E-04 1.37701E-21
5.14715E-04 1.17633E-21
5.55063E-04 1.01086E-21
5.96931E-04 8.73443E-22
6.40321E-04 7.58563E-22
6.85233E-04 6.61927E-22
7.31665E-04 5.80170E-22
7.79618E-04 5.10630E-22
8.29092E-04 4.51180E-22
8.80086E-04 4.00116E-22
9.32601E-04 3.56058E-22
9.86636E-04 3.17885E-22
1.04219E-03 2.84680E-22
1.09927E-03 2.55687E-22
1.15786E-03 2.30282E-22
1.21797E-03 2.07946E-22
1.27961E-03 1.88244E-22
1.34276E-03 1.70814E-22
1.40743E-03 1.55348E-22
1.47362E-03 1.41587E-22
1.54133E-03 1.29310E-22
1.61056E-03 1.18331E-22
1.68131E-03 1.08488E-22
1.75357E-03 9.96424E-23
1.82735E-03 9.16765E-23
1.90265E-03 8.44872E-23
1.97947E-03 7.79857E-23
2.05780E-03 7.20945E-23
2.13765E-03 6.67465E-23
2.21902E-03 6.18825E-23
2.30190E-03 5.74512E-23
2.38630E-03 5.34073E-23
2.47222E-03 4.97109E-23
2.55965E-03 4.63269E-23
2.64859E-03 4.32241E-23
2.73905E-03 4.03751E-23
2.83103E-03 3.77555E-23
2.92452E-03 3.53434E-23
3.01952E-03 3.31196E-23
3.11604E-03 3.10666E-23
3.21407E-03 2.91691E-23
3.31362E-03 2.74131E-23
3.41468E-03 2.57863E-23
3.51725E-03 2.42774E-23
3.62133E-03 2.28763E-23
3.72692E-03 2.15739E-23
3.83403E-03 2.03621E-23
3.94265E-03 1.92335E-23
4.05278E-03 1.81812E-23
4.16442E-03 1.71992E-23
4.27757E-03 1.62820E-23
4.39223E-03 1.54245E-23
4.50840E-03 1.46221E-23
4.62608E-03 1.38707E-23
4.74527E-03 1.31664E-23
4.86597E-03 1.25058E-23
4.98817E-03 1.18856E-23
5.11188E-03 1.13029E-23
5.23711E-03 1.07551E-23
5.36383E-03 1.02396E-23
5.49207E-03 9.75430E-24
5.62181E-03 9.29704E-24
5.75306E-03 8.86591E-24
5.88581E-03 8.45916E-24
6.02007E-03 8.07515E-24
6.15583E-03 7.71238E-24
6.29310E-03 7.36947E-24
6.43187E-03 7.04514E-24
6.57214E-03 6.73819E-24
6.71392E-03 6.44752E-24
6.85720E-03 6.17213E-24
7.00198E-03 5.91105E-24
7.14827E-03 5.66341E-24
7.29605E-03 5.42840E-24
7.44534E-03 5.20525E-24
7.59612E-03 4.99326E-24
7.97965E-03 4.50788E-24
8.37255E-03 4.07910E-24
8.77480E-03 3.69925E-24
9.18641E-03 3.36180E-24
9.60736E-03 3.06126E-24
1.00376E-02 2.79290E-24
1.04773E-02 2.55273E-24
1.09262E-02 2.33727E-24
1.13844E-02 2.14358E-24
1.18520E-02 1.96909E-24
1.23288E-02 1.81157E-24
1.28150E-02 1.66911E-24
1.33104E-02 1.54002E-24
1.38150E-02 1.42285E-24
1.43290E-02 1.31630E-24
1.48521E-02 1.21927E-24
1.53845E-02 1.13075E-24
1.59262E-02 1.04988E-24
1.64770E-02 9.75888E-25
1.70371E-02 9.08093E-25
1.76063E-02 8.45890E-25
1.81848E-02 7.88742E-25
1.87724E-02 7.36171E-25
1.93692E-02 6.87750E-25
1.99751E-02 6.43099E-25
2.05901E-02 6.01876E-25
2.12143E-02 5.63774E-25
2.18476E-02 5.28520E-25
2.24900E-02 4.95866E-25
2.31415E-02 4.65589E-25
2.38021E-02 4.37488E-25
2.44717E-02 4.11383E-25
2.51504E-02 3.87107E-25
2.58382E-02 3.64513E-25
2.65349E-02 3.43465E-25
2.72407E-02 3.23842E-25
2.79555E-02 3.05530E-25
2.86793E-02 2.88429E-25
2.94120E-02 2.72446E-25
3.01537E-02 2.57497E-25
3.09043E-02 2.43503E-25
3.16639E-02 2.30396E-25
3.24324E-02 2.18108E-25
3.32098E-02 2.06583E-25
3.39961E-02 1.95764E-25
3.47912E-02 1.85602E-25
3.55952E-02 1.76051E-25
3.64081E-02 1.67069E-25
3.72297E-02 1.58616E-25
3.80602E-02 1.50657E-25
3.88995E-02 1.43158E-25
3.97476E-02 1.36090E-25
4.06044E-02 1.29423E-25
4.14700E-02 1.23131E-25
4.23443E-02 1.17190E-25
4.32273E-02 1.11578E-25
4.41190E-02 1.06274E-25
4.50194E-02 1.01259E-25
4.59284E-02 9.65136E-26
4.68461E-02 9.20223E-26
4.87074E-02 8.37401E-26
5.06030E-02 7.63005E-26
5.25328E-02 6.96063E-26
5.44967E-02 6.35732E-26
5.64946E-02 5.81275E-26
5.85262E-02 5.32045E-26
6.05914E-02 4.87479E-26
6.26901E-02 4.47079E-26
6.48222E-02 4.10407E-26
6.69873E-02 3.77078E-26
6.91854E-02 3.46750E-26
7.14163E-02 3.19122E-26
7.36799E-02 2.93924E-26
7.59760E-02 2.70918E-26
7.83043E-02 2.49892E-26
8.06647E-02 2.30657E-26
8.30571E-02 2.13042E-26
8.54812E-02 1.96898E-26
8.79369E-02 1.82087E-26
9.04240E-02 1.68489E-26
9.29422E-02 1.55993E-26
9.54915E-02 1.44502E-26
9.80716E-02 1.33926E-26
1.00682E-01 1.24185E-26
1.03323E-01 1.15208E-26
1.05995E-01 1.06929E-26
1.08696E-01 9.92875E-27
1.11427E-01 9.22313E-27
1.14188E-01 8.57111E-27
1.16978E-01 7.96827E-27
1.19797E-01 7.41059E-27
1.22645E-01 6.89441E-27
1.25522E-01 6.41637E-27
1.28428E-01 5.97345E-27
1.31361E-01 5.56286E-27
1.34323E-01 5.18205E-27
1.37313E-01 4.82872E-27
1.40330E-01 4.50073E-27
1.43375E-01 4.19614E-27
1.46447E-01 3.91316E-27
1.49545E-01 3.65016E-27
1.52671E-01 3.40564E-27
1.55823E-01 3.17821E-27
1.59001E-01 2.96660E-27
1.62205E-01 2.76965E-27
1.65435E-01 2.58628E-27
1.68690E-01 2.41551E-27
1.71970E-01 2.25642E-27
1.75276E-01 2.10816E-27
1.78606E-01 1.96997E-27
1.81961E-01 1.84112E-27
1.85340E-01 1.72095E-27
1.88743E-01 1.60885E-27
1.92169E-01 1.50425E-27
1.95619E-01 1.40663E-27
1.99092E-01 1.31550E-27
2.02589E-01 1.23041E-27
2.06107E-01 1.15095E-27
2.09649E-01 1.07673E-27
2.13212E-01 1.00740E-27
2.16797E-01 9.42607E-28
2.20404E-01 8.82058E-28
2.24032E-01 8.25462E-28
2.27680E-01 7.72554E-28
2.31350E-01 7.23085E-28
2.35040E-01 6.76826E-28
2.38751E-01 6.33563E-28
2.42481E-01 5.93096E-28
2.46231E-01 5.55241E-28
2.50000E-01 5.19824E-28
2.53788E-01 4.86685E-28
2.57595E-01 4.55675E-28
2.61421E-01 4.26653E-28
2.65264E-01 3.99490E-28
2.69126E-01 3.74065E-28
2.73005E-01 3.50264E-28
2.76901E-01 3.27982E-28
2.80814E-01 3.07121E-28
2.84744E-01 2.87589E-28
2.88691E-01 2.69300E-28
2.92653E-01 2.52174E-28
2.96632E-01 2.36136E-28
3.00625E-01 2.21116E-28
3.04634E-01 2.07050E-28
3.08658E-01 1.93876E-28
3.12697E-01 1.81537E-28
3.16749E-01 1.69980E-28
3.20816E-01 1.59155E-28
3.24896E-01 1.49016E-28
3.28990E-01 1.39518E-28
3.33097E-01 1.30622E-28
3.37216E-01 1.22289E-28
3.41348E-01 1.14483E-28
3.45492E-01 1.07171E-28
3.49647E-01 1.00322E-28
3.53814E-01 9.39067E-29
3.57992E-01 8.78972E-29
3.62181E-01 8.22681E-29
3.66381E-01 7.69955E-29
3.70590E-01 7.20569E-29
3.74810E-01 6.74312E-29
3.79039E-01 6.30987E-29
3.83277E-01 5.90409E-29
3.87524E-01 5.52405E-29
3.91780E-01 5.16814E-29
3.96044E-01 4.83483E-29
4.00316E-01 4.52270E-29
4.04596E-01 4.23041E-29
4.08882E-01 3.95673E-29
4.13176E-01 3.70046E-29
4.17476E-01 3.46053E-29
4.21783E-01 3.23590E-29
4.26095E-01 3.02560E-29
4.30413E-01 2.82874E-29
4.34737E-01 2.64447E-29
4.39065E-01 2.47198E-29
4.43398E-01 2.31055E-29
4.47736E-01 2.15947E-29
4.52077E-01 2.01808E-29
4.56422E-01 1.88578E-29
4.60770E-01 1.76200E-29
4.65122E-01 1.64618E-29
4.69476E-01 1.53784E-29
4.73832E-01 1.43649E-29
4.78190E-01 1.34169E-29
4.82550E-01 1.25302E-29
4.86912E-01 1.17011E-29
4.91274E-01 1.09257E-29
4.95637E-01 1.02008E-29
5.00000E-01 9.52299E-30
5.04363E-01 8.88939E-30
5.08726E-01 8.29714E-30
5.13088E-01 7.74361E-30
5.17450E-01 7.22633E-30
5.21810E-01 6.74296E-30
5.26168E-01 6.29134E-30
5.30524E-01 5.86942E-30
5.34878E-01 5.47531E-30
5.39230E-01 5.10721E-30
5.43578E-01 4.76345E-30
5.47923E-01 4.44245E-30
5.52264E-01 4.14275E-30
5.56602E-01 3.86297E-30
5.60935E-01 3.60181E-30
5.65263E-01 3.35807E-30
5.69587E-01 3.13062E-30
5.73905E-01 2.91839E-30
5.78217E-01 2.72040E-30
5.82524E-01 2.53571E-30
5.86824E-01 2.36345E-30
5.91118E-01 2.20281E-30
5.95404E-01 2.05303E-30
5.99684E-01 1.91339E-30
6.03956E-01 1.78321E-30
6.08220E-01 1.66189E-30
6.12476E-01 1.54883E-30
6.16723E-01 1.44348E-30
6.20961E-01 1.34534E-30
6.25190E-01 1.25391E-30
6.29410E-01 1.16876E-30
6.33619E-01 1.08947E-30
6.37819E-01 1.01564E-30
6.42008E-01 9.46899E-31
6.46186E-01 8.82915E-31
6.50353E-01 8.23363E-31
6.54508E-01 7.67943E-31
6.58652E-01 7.16376E-31
6.62784E-01 6.68400E-31
6.66903E-01 6.23771E-31
6.71010E-01 5.82259E-31
6.75104E-01 5.43652E-31
6.79184E-01 5.07750E-31
6.83251E-01 4.74368E-31
6.87303E-01 4.43331E-31
6.91342E-01 4.14478E-31
6.95366E-01 3.87657E-31
6.99375E-01 3.62727E-31
7.03368E-01 3.39555E-31
7.07347E-01 3.18020E-31
7.11309E-01 2.98006E-31
7.15256E-01 2.79406E-31
7.19186E-01 2.62121E-31
7.23099E-01 2.46058E-31
7.26995E-01 2.31129E-31
7.30874E-01 2.17256E-31
7.34736E-01 2.04361E-31
7.38579E-01 1.92376E-31
7.42405E-01 1.81234E-31
7.46212E-01 1.70875E-31
7.50000E-01 1.61243E-31
7.53769E-01 1.52285E-31
7.57519E-01 1.43952E-31
7.61249E-01 1.36199E-31
7.64960E-01 1.28983E-31
7.68650E-01 1.22264E-31
7.72320E-01 1.16006E-31
7.75968E-01 1.10176E-31
7.79596E-01 1.04741E-31
7.83203E-01 9.96730E-32
7.86788E-01 9.49435E-32
7.90351E-01 9.05278E-32
7.93893E-01 8.64023E-32
7.97411E-01 8.25454E-32
8.00908E-01 7.89368E-32
8.04381E-01 7.55578E-32
8.07831E-01 7.23911E-32
8.11257E-01 6.94207E-32
8.14660E-01 6.66316E-32
8.18039E-01 6.40102E-32
8.21394E-01 6.15437E-32
8.24724E-01 5.92202E-32
8.28030E-01 5.70290E-32
8.31310E-01 5.49599E-32
8.34565E-01 5.30037E-32
8.37795E-01 5.11517E-32
8.40999E-01 4.93960E-32
8.44177E-01 4.77294E-32
8.47329E-01 4.61450E-32
8.50455E-01 4.46367E-32
8.53553E-01 4.31987E-32
8.56625E-01 4.18258E-32
8.59670E-01 4.05131E-32
8.62687E-01 3.92561E-32
8.65677E-01 3.80507E-32
8.68639E-01 3.68932E-32
8.71572E-01 3.57802E-32
8.74478E-01 3.47083E-32
8.77355E-01 3.36747E-32
8.80203E-01 3.26768E-32
8.83022E-01 3.17121E-32
8.85812E-01 3.07784E-32
8.88573E-01 2.98736E-32
8.91304E-01 2.89958E-32
8.94005E-01 2.81434E-32
8.96677E-01 2.73148E-32
8.99318E-01 2.65085E-32
9.01928E-01 2.57233E-32
9.04508E-01 2.49580E-32
9.07058E-01 2.42116E-32
9.09576E-01 2.34830E-32
9.12063E-01 2.27714E-32
9.14519E-01 2.20760E-32
9.16943E-01 2.13960E-32
9.19335E-01 2.07309E-32
9.21696E-01 2.00800E-32
9.24024E-01 1.94428E-32
9.26320E-01 1.88188E-32
9.28584E-01 1.82076E-32
9.30815E-01 1.76087E-32
9.33013E-01 1.70220E-32
9.35178E-01 1.64470E-32
9.37310E-01 1.58834E-32
9.39409E-01 1.53311E-32
9.41474E-01 1.47897E-32
9.43505E-01 1.42592E-32
9.45503E-01 1.37392E-32
9.47467E-01 1.32298E-32
9.49397E-01 1.27306E-32
9.51293E-01 1.22418E-32
9.53154E-01 1.17630E-32
9.54981E-01 1.12942E-32
9.56773E-01 1.08353E-32
9.58530E-01 1.03863E-32
9.60252E-01 9.94712E-33
9.61940E-01 9.51768E-33
9.63592E-01 9.09794E-33
9.65209E-01 8.68785E-33
9.66790E-01 8.28737E-33
9.68336E-01 7.89651E-33
9.69846E-01 7.51519E-33
9.71321E-01 7.14343E-33
9.72759E-01 6.78119E-33
9.74162E-01 6.42846E-33
9.75528E-01 6.08520E-33
9.76858E-01 5.75145E-33
9.78152E-01 5.42716E-33
9.79410E-01 5.11235E-33
9.80631E-01 4.80698E-33
9.81815E-01 4.51105E-33
9.82963E-01 4.22458E-33
9.84074E-01 3.94754E-33
9.85148E-01 3.67995E-33
9.86185E-01 3.42177E-33
9.87185E-01 3.17303E-33
9.88148E-01 2.93370E-33
9.89074E-01 2.70380E-33
9.89962E-01 2.48332E-33
9.90814E-01 2.27223E-33
9.91627E-01 2.07055E-33
9.92404E-01 1.87830E-33
9.93143E-01 1.69543E-33
9.93844E-01 1.52198E-33
9.94508E-01 1.35791E-33
9.95134E-01 1.20323E-33
9.95722E-01 1.05795E-33
9.96273E-01 9.22061E-34
9.96786E-01 7.95553E-34
9.97261E-01 6.78425E-34
9.97698E-01 5.70692E-34
9.98097E-01 4.72315E-34
9.98459E-01 3.83331E-34
9.98782E-01 3.03723E-34
9.99067E-01 2.33477E-34
9.99315E-01 1.72602E-34
9.99524E-01 1.21087E-34
9.99695E-01 7.89491E-35
9.99829E-01 4.61723E-35
9.99924E-01 2.27653E-35
9.99981E-01 8.71830E-36
1.00000E+00 4.03680E-36
