 #
 # Subroutine ELSEPA. Elastic scattering of electrons and positrons
 #                    by neutral atoms and positive ions
 #
 # Projectile: positron
 # Kinetic energy = 7.00000E+08 eV = 2.57245E+07 a.u.
 #
 # WARNING: High-energy factorization with free-atom DF screening.
 #          Absorption, polarization and exchange corrections are
 #          switched off.
 #          Phase shifts are calculated for the bare nucleus.
 #          Scattering amplitudes are not evaluated.
 #
 # Element: Ga,  Z =  31,  atomic weight = 6.97230E+01 g/mol
 #
 # Nuclear model: Fermi distribution
 #                Average radius = 4.40395E-13 cm
 #                Skin thickness = 5.46000E-14 cm
 #
 # Number of electrons = 31
 #
 # Total elastic cross section = 2.17529E-18 cm**2 = 7.76811E-02 a0**2
 # 1st transport cross section = 3.98985E-27 cm**2 = 1.42480E-10 a0**2
 # 2nd transport cross section = 1.19667E-26 cm**2 = 4.27338E-10 a0**2
 #
 #
 # Differential cross section:                       MU=(1-COS(THETA))/2
 #
 #  THETA        MU          DCS          DCS        Sherman      error
 #  (deg)                 (cm**2/sr)   (a0**2/sr)    function
 #----------------------------------------------------------------------
0.00000E+00 9.47551E-09
7.61557E-13 8.24245E-09
1.18994E-12 7.66436E-09
1.71346E-12 7.04798E-09
2.33225E-12 6.42402E-09
3.04617E-12 5.81489E-09
3.85530E-12 5.23845E-09
4.75964E-12 4.70535E-09
5.75917E-12 4.22019E-09
6.85391E-12 3.78305E-09
8.04379E-12 3.39381E-09
9.32893E-12 3.04923E-09
1.07092E-11 2.74483E-09
1.21847E-11 2.47658E-09
1.37554E-11 2.24069E-09
1.54213E-11 2.03317E-09
1.71823E-11 1.84986E-09
1.90386E-11 1.68806E-09
2.09900E-11 1.54496E-09
2.30367E-11 1.41790E-09
2.51785E-11 1.30460E-09
2.74156E-11 1.20350E-09
2.97478E-11 1.11298E-09
3.21752E-11 1.03146E-09
3.46979E-11 9.57907E-10
3.73157E-11 8.91400E-10
4.00286E-11 8.31054E-10
4.28368E-11 7.75944E-10
4.57402E-11 7.25658E-10
4.87388E-11 6.77036E-10
5.18325E-11 6.32080E-10
5.50215E-11 5.91805E-10
5.83057E-11 5.55620E-10
6.16850E-11 5.23018E-10
6.51595E-11 4.93563E-10
6.87293E-11 4.66881E-10
7.23943E-11 4.42649E-10
7.61544E-11 4.16526E-10
1.18991E-10 2.40541E-10
1.71347E-10 1.45677E-10
2.33223E-10 9.13803E-11
3.04617E-10 5.88871E-11
3.85531E-10 3.92153E-11
4.75965E-10 2.69813E-11
5.75917E-10 1.91330E-11
6.85389E-10 1.39436E-11
8.04380E-10 1.04234E-11
9.32891E-10 7.96741E-12
1.07092E-09 6.20818E-12
1.21847E-09 4.91833E-12
1.37554E-09 3.95253E-12
1.54213E-09 3.21665E-12
1.71823E-09 2.64570E-12
1.90386E-09 2.19693E-12
2.09900E-09 1.83966E-12
2.30367E-09 1.55182E-12
2.51785E-09 1.31752E-12
2.74156E-09 1.12548E-12
2.97478E-09 9.66884E-13
3.21752E-09 8.34850E-13
3.46978E-09 7.24319E-13
3.73156E-09 6.31282E-13
4.00286E-09 5.52522E-13
4.28368E-09 4.85451E-13
4.57402E-09 4.28141E-13
4.87388E-09 3.78795E-13
5.18326E-09 3.36350E-13
5.50215E-09 2.99792E-13
5.83057E-09 2.67962E-13
6.16850E-09 2.40158E-13
6.51596E-09 2.15919E-13
6.87293E-09 1.94639E-13
7.23942E-09 1.75860E-13
7.61544E-09 1.59318E-13
1.18991E-08 6.65019E-14
1.71347E-08 3.25290E-14
2.33223E-08 1.77651E-14
3.04617E-08 1.05135E-14
3.85531E-08 6.61386E-15
4.75965E-08 4.36563E-15
5.75917E-08 2.99594E-15
6.85389E-08 2.12322E-15
8.04380E-08 1.54605E-15
9.32891E-08 1.15213E-15
1.07092E-07 8.75919E-16
1.21847E-07 6.77650E-16
1.37554E-07 5.32380E-16
1.54213E-07 4.23998E-16
1.71823E-07 3.41822E-16
1.90386E-07 2.78608E-16
2.09900E-07 2.29344E-16
2.30367E-07 1.90495E-16
2.51785E-07 1.59529E-16
2.74156E-07 1.34604E-16
2.97478E-07 1.14360E-16
3.21752E-07 9.77803E-17
3.46978E-07 8.40981E-17
3.73156E-07 7.27264E-17
4.00286E-07 6.32128E-17
4.28368E-07 5.52046E-17
4.57402E-07 4.84249E-17
4.87388E-07 4.26545E-17
5.18325E-07 3.77182E-17
5.50215E-07 3.34757E-17
5.83057E-07 2.98130E-17
6.16850E-07 2.66378E-17
6.51596E-07 2.38741E-17
6.87293E-07 2.14597E-17
7.23942E-07 1.93428E-17
7.61543E-07 1.74806E-17
1.18991E-06 7.16168E-18
1.71347E-06 3.45390E-18
2.33223E-06 1.86427E-18
3.04617E-06 1.09272E-18
3.85531E-06 6.82120E-19
4.75964E-06 4.47493E-19
5.75916E-06 3.05610E-19
6.85388E-06 2.15757E-19
8.04378E-06 1.56626E-19
9.32888E-06 1.16432E-19
1.07092E-05 8.83420E-20
1.21846E-05 6.82337E-20
1.37553E-05 5.35339E-20
1.54212E-05 4.25874E-20
1.71822E-05 3.43006E-20
1.90385E-05 2.79312E-20
2.09899E-05 2.29793E-20
2.30365E-05 1.90772E-20
2.51783E-05 1.59681E-20
2.74153E-05 1.34664E-20
2.97475E-05 1.14354E-20
3.21749E-05 9.77303E-21
3.46974E-05 8.40216E-21
3.73152E-05 7.26363E-21
4.00281E-05 6.31174E-21
4.28362E-05 5.51085E-21
4.57395E-05 4.83303E-21
4.87380E-05 4.25620E-21
5.18317E-05 3.76280E-21
5.50205E-05 3.33878E-21
5.83045E-05 2.97279E-21
6.16838E-05 2.65559E-21
6.51582E-05 2.37960E-21
6.87277E-05 2.13856E-21
7.23925E-05 1.92729E-21
7.61524E-05 1.72377E-21
9.21439E-05 1.17333E-21
1.09658E-04 8.25271E-22
1.28695E-04 5.96658E-22
1.49255E-04 4.41541E-22
1.71338E-04 3.33382E-22
1.94942E-04 2.56134E-22
2.20070E-04 1.99810E-22
2.46720E-04 1.57984E-22
2.74892E-04 1.26414E-22
3.04586E-04 1.02241E-22
3.35803E-04 8.34873E-23
3.68542E-04 6.87673E-23
4.02802E-04 5.70896E-23
4.38585E-04 4.77352E-23
4.75889E-04 4.01754E-23
5.14715E-04 3.40159E-23
5.55063E-04 2.89599E-23
5.96931E-04 2.47807E-23
6.40321E-04 2.13044E-23
6.85233E-04 1.83954E-23
7.31665E-04 1.59477E-23
7.79618E-04 1.38777E-23
8.29092E-04 1.21185E-23
8.80086E-04 1.06169E-23
9.32601E-04 9.32964E-24
9.86636E-04 8.22184E-24
1.04219E-03 7.26494E-24
1.09927E-03 6.43547E-24
1.15786E-03 5.71411E-24
1.21797E-03 5.08481E-24
1.27961E-03 4.53423E-24
1.34276E-03 4.05117E-24
1.40743E-03 3.62625E-24
1.47362E-03 3.25153E-24
1.54133E-03 2.92032E-24
1.61056E-03 2.62690E-24
1.68131E-03 2.36641E-24
1.75357E-03 2.13469E-24
1.82735E-03 1.92817E-24
1.90265E-03 1.74377E-24
1.97947E-03 1.57884E-24
2.05780E-03 1.43108E-24
2.13765E-03 1.29850E-24
2.21902E-03 1.17936E-24
2.30190E-03 1.07214E-24
2.38630E-03 9.75521E-25
2.47222E-03 8.88343E-25
2.55965E-03 8.09588E-25
2.64859E-03 7.38357E-25
2.73905E-03 6.73861E-25
2.83103E-03 6.15399E-25
2.92452E-03 5.62355E-25
3.01952E-03 5.14179E-25
3.11604E-03 4.70385E-25
3.21407E-03 4.30539E-25
3.31362E-03 3.94255E-25
3.41468E-03 3.61189E-25
3.51725E-03 3.31033E-25
3.62133E-03 3.03511E-25
3.72692E-03 2.78376E-25
3.83403E-03 2.55406E-25
3.94265E-03 2.34402E-25
4.05278E-03 2.15184E-25
4.16442E-03 1.97592E-25
4.27757E-03 1.81479E-25
4.39223E-03 1.66713E-25
4.50840E-03 1.53177E-25
4.62608E-03 1.40762E-25
4.74527E-03 1.29370E-25
4.86597E-03 1.18914E-25
4.98817E-03 1.09314E-25
5.11188E-03 1.00496E-25
5.23711E-03 9.23938E-26
5.36383E-03 8.49480E-26
5.49207E-03 7.81034E-26
5.62181E-03 7.18100E-26
5.75306E-03 6.60221E-26
5.88581E-03 6.06982E-26
6.02007E-03 5.58003E-26
6.15583E-03 5.12936E-26
6.29310E-03 4.71464E-26
6.43187E-03 4.33296E-26
6.57214E-03 3.98166E-26
6.71392E-03 3.65829E-26
6.85720E-03 3.36063E-26
7.00198E-03 3.08663E-26
7.14827E-03 2.83440E-26
7.29605E-03 2.60221E-26
7.44534E-03 2.38849E-26
7.59612E-03 2.19176E-26
7.97965E-03 1.76581E-26
8.37255E-03 1.41987E-26
8.77480E-03 1.13917E-26
9.18641E-03 9.11697E-27
9.60736E-03 7.27631E-27
1.00376E-02 5.78967E-27
1.04773E-02 4.59153E-27
1.09262E-02 3.62833E-27
1.13844E-02 2.85620E-27
1.18520E-02 2.23923E-27
1.23288E-02 1.74805E-27
1.28150E-02 1.35859E-27
1.33104E-02 1.05119E-27
1.38150E-02 8.09802E-28
1.43290E-02 6.21317E-28
1.48521E-02 4.75071E-28
1.53845E-02 3.62396E-28
1.59262E-02 2.76267E-28
1.64770E-02 2.11008E-28
1.70371E-02 1.62044E-28
1.76063E-02 1.25707E-28
1.81848E-02 9.90661E-29
1.87724E-02 7.97938E-29
1.93692E-02 6.60514E-29
1.99751E-02 5.63973E-29
2.05901E-02 4.97106E-29
2.12143E-02 4.51278E-29
2.18476E-02 4.19919E-29
2.24900E-02 3.98098E-29
2.31415E-02 3.82183E-29
2.38021E-02 3.69556E-29
2.44717E-02 3.58388E-29
2.51504E-02 3.47457E-29
2.58382E-02 3.35999E-29
2.65349E-02 3.23588E-29
2.72407E-02 3.10051E-29
2.79555E-02 2.95383E-29
2.86793E-02 2.79702E-29
2.94120E-02 2.63196E-29
3.01537E-02 2.46094E-29
3.09043E-02 2.28641E-29
3.16639E-02 2.11083E-29
3.24324E-02 1.93647E-29
3.32098E-02 1.76542E-29
3.39961E-02 1.59949E-29
3.47912E-02 1.44019E-29
3.55952E-02 1.28872E-29
3.64081E-02 1.14603E-29
3.72297E-02 1.01276E-29
3.80602E-02 8.89326E-30
3.88995E-02 7.75906E-30
3.97476E-02 6.72499E-30
4.06044E-02 5.78935E-30
4.14700E-02 4.94915E-30
4.23443E-02 4.20031E-30
4.32273E-02 3.53793E-30
4.41190E-02 2.95651E-30
4.50194E-02 2.45019E-30
4.59284E-02 2.01285E-30
4.68461E-02 1.63832E-30
4.87074E-02 1.05337E-30
5.06030E-02 6.48648E-31
5.25328E-02 3.82111E-31
5.44967E-02 2.17540E-31
5.64946E-02 1.24994E-31
5.85262E-02 8.06620E-32
6.05914E-02 6.63408E-32
6.26901E-02 6.87062E-32
6.48222E-02 7.84931E-32
6.69873E-02 8.96757E-32
6.91854E-02 9.87060E-32
7.14163E-02 1.03843E-31
7.36799E-02 1.04590E-31
7.59760E-02 1.01246E-31
7.83043E-02 9.45539E-32
8.06647E-02 8.54527E-32
8.30571E-02 7.49001E-32
8.54812E-02 6.37635E-32
8.79369E-02 5.27590E-32
9.04240E-02 4.24280E-32
9.29422E-02 3.31377E-32
9.54915E-02 2.50986E-32
9.80716E-02 1.83901E-32
1.00682E-01 1.29901E-32
1.03323E-01 8.80370E-33
1.05995E-01 5.69002E-33
1.08696E-01 3.48396E-33
1.11427E-01 2.01412E-33
1.14188E-01 1.11570E-33
1.16978E-01 6.39390E-34
1.19797E-01 4.56468E-34
1.22645E-01 4.61094E-34
1.25522E-01 5.70310E-34
1.28428E-01 7.22499E-34
1.31361E-01 8.74845E-34
1.34323E-01 1.00029E-33
1.37313E-01 1.08431E-33
1.40330E-01 1.12185E-33
1.43375E-01 1.11455E-33
1.46447E-01 1.06830E-33
1.49545E-01 9.91380E-34
1.52671E-01 8.92893E-34
1.55823E-01 7.81735E-34
1.59001E-01 6.65857E-34
1.62205E-01 5.51852E-34
1.65435E-01 4.44779E-34
1.68690E-01 3.48167E-34
1.71970E-01 2.64133E-34
1.75276E-01 1.93584E-34
1.78606E-01 1.36455E-34
1.81961E-01 9.19465E-35
1.85340E-01 5.87639E-35
1.88743E-01 3.53181E-35
1.92169E-01 1.98994E-35
1.95619E-01 1.08119E-35
1.99092E-01 6.47184E-36
2.02589E-01 5.47360E-36
2.06107E-01 6.62599E-36
2.09649E-01 8.96611E-36
2.13212E-01 1.17544E-35
2.16797E-01 1.44573E-35
2.20404E-01 1.67221E-35
2.24032E-01 1.83464E-35
2.27680E-01 1.92474E-35
2.31350E-01 1.94320E-35
2.35040E-01 1.89693E-35
2.38751E-01 1.79669E-35
2.42481E-01 1.65518E-35
2.46231E-01 1.48554E-35
2.50000E-01 1.30019E-35
2.53788E-01 1.11011E-35
2.57595E-01 9.24420E-36
2.61421E-01 7.50183E-36
2.65264E-01 5.92395E-36
2.69126E-01 4.54163E-36
2.73005E-01 3.36935E-36
2.76901E-01 2.40772E-36
2.80814E-01 1.64684E-36
2.84744E-01 1.06906E-36
2.88691E-01 6.51954E-37
2.92653E-01 3.70534E-37
2.96632E-01 1.99155E-37
3.00625E-01 1.13229E-37
3.04634E-01 9.01184E-38
3.08658E-01 1.09962E-37
3.12697E-01 1.55993E-37
3.16749E-01 2.14683E-37
3.20816E-01 2.75630E-37
3.24896E-01 3.31330E-37
3.28990E-01 3.76833E-37
3.33097E-01 4.09335E-37
3.37216E-01 4.27788E-37
3.41348E-01 4.32463E-37
3.45492E-01 4.24610E-37
3.49647E-01 4.06097E-37
3.53814E-01 3.79119E-37
3.57992E-01 3.45997E-37
3.62181E-01 3.08969E-37
3.66381E-01 2.70081E-37
3.70590E-01 2.31123E-37
3.74810E-01 1.93525E-37
3.79039E-01 1.58409E-37
3.83277E-01 1.26563E-37
3.87524E-01 9.84922E-38
3.91780E-01 7.44145E-38
3.96044E-01 5.43523E-38
4.00316E-01 3.81531E-38
4.04596E-01 2.55286E-38
4.08882E-01 1.61066E-38
4.13176E-01 9.45744E-39
4.17476E-01 5.13767E-39
4.21783E-01 1.00000E-45
4.26095E-01 1.00000E-45
4.30413E-01 1.00000E-45
4.34737E-01 1.00000E-45
4.39065E-01 1.00000E-45
4.43398E-01 1.00000E-45
4.47736E-01 1.00000E-45
4.52077E-01 1.00000E-45
4.56422E-01 1.00000E-45
4.60770E-01 1.00000E-45
4.65122E-01 1.00000E-45
4.69476E-01 1.00000E-45
4.73832E-01 1.00000E-45
4.78190E-01 1.00000E-45
4.82550E-01 1.00000E-45
4.86912E-01 1.00000E-45
4.91274E-01 1.00000E-45
4.95637E-01 1.00000E-45
5.00000E-01 1.00000E-45
5.04363E-01 1.00000E-45
5.08726E-01 1.00000E-45
5.13088E-01 1.00000E-45
5.17450E-01 1.00000E-45
5.21810E-01 1.00000E-45
5.26168E-01 1.00000E-45
5.30524E-01 1.00000E-45
5.34878E-01 1.00000E-45
5.39230E-01 1.00000E-45
5.43578E-01 1.00000E-45
5.47923E-01 1.00000E-45
5.52264E-01 1.00000E-45
5.56602E-01 1.00000E-45
5.60935E-01 1.00000E-45
5.65263E-01 1.00000E-45
5.69587E-01 1.00000E-45
5.73905E-01 1.00000E-45
5.78217E-01 1.00000E-45
5.82524E-01 1.00000E-45
5.86824E-01 1.00000E-45
5.91118E-01 1.00000E-45
5.95404E-01 1.00000E-45
5.99684E-01 1.00000E-45
6.03956E-01 1.00000E-45
6.08220E-01 1.00000E-45
6.12476E-01 1.00000E-45
6.16723E-01 1.00000E-45
6.20961E-01 1.00000E-45
6.25190E-01 1.00000E-45
6.29410E-01 1.00000E-45
6.33619E-01 1.00000E-45
6.37819E-01 1.00000E-45
6.42008E-01 1.00000E-45
6.46186E-01 1.00000E-45
6.50353E-01 1.00000E-45
6.54508E-01 1.00000E-45
6.58652E-01 1.00000E-45
6.62784E-01 1.00000E-45
6.66903E-01 1.00000E-45
6.71010E-01 1.00000E-45
6.75104E-01 1.00000E-45
6.79184E-01 1.00000E-45
6.83251E-01 1.00000E-45
6.87303E-01 1.00000E-45
6.91342E-01 1.00000E-45
6.95366E-01 1.00000E-45
6.99375E-01 1.00000E-45
7.03368E-01 1.00000E-45
7.07347E-01 1.00000E-45
7.11309E-01 1.00000E-45
7.15256E-01 1.00000E-45
7.19186E-01 1.00000E-45
7.23099E-01 1.00000E-45
7.26995E-01 1.00000E-45
7.30874E-01 1.00000E-45
7.34736E-01 1.00000E-45
7.38579E-01 1.00000E-45
7.42405E-01 1.00000E-45
7.46212E-01 1.00000E-45
7.50000E-01 1.00000E-45
7.53769E-01 1.00000E-45
7.57519E-01 1.00000E-45
7.61249E-01 1.00000E-45
7.64960E-01 1.00000E-45
7.68650E-01 1.00000E-45
7.72320E-01 1.00000E-45
7.75968E-01 1.00000E-45
7.79596E-01 1.00000E-45
7.83203E-01 1.00000E-45
7.86788E-01 1.00000E-45
7.90351E-01 1.00000E-45
7.93893E-01 1.00000E-45
7.97411E-01 1.00000E-45
8.00908E-01 1.00000E-45
8.04381E-01 1.00000E-45
8.07831E-01 1.00000E-45
8.11257E-01 1.00000E-45
8.14660E-01 1.00000E-45
8.18039E-01 1.00000E-45
8.21394E-01 1.00000E-45
8.24724E-01 1.00000E-45
8.28030E-01 1.00000E-45
8.31310E-01 1.00000E-45
8.34565E-01 1.00000E-45
8.37795E-01 1.00000E-45
8.40999E-01 1.00000E-45
8.44177E-01 1.00000E-45
8.47329E-01 1.00000E-45
8.50455E-01 1.00000E-45
8.53553E-01 1.00000E-45
8.56625E-01 1.00000E-45
8.59670E-01 1.00000E-45
8.62687E-01 1.00000E-45
8.65677E-01 1.00000E-45
8.68639E-01 1.00000E-45
8.71572E-01 1.00000E-45
8.74478E-01 1.00000E-45
8.77355E-01 1.00000E-45
8.80203E-01 1.00000E-45
8.83022E-01 1.00000E-45
8.85812E-01 1.00000E-45
8.88573E-01 1.00000E-45
8.91304E-01 1.00000E-45
8.94005E-01 1.00000E-45
8.96677E-01 1.00000E-45
8.99318E-01 1.00000E-45
9.01928E-01 1.00000E-45
9.04508E-01 1.00000E-45
9.07058E-01 1.00000E-45
9.09576E-01 1.00000E-45
9.12063E-01 1.00000E-45
9.14519E-01 1.00000E-45
9.16943E-01 1.00000E-45
9.19335E-01 1.00000E-45
9.21696E-01 1.00000E-45
9.24024E-01 1.00000E-45
9.26320E-01 1.00000E-45
9.28584E-01 1.00000E-45
9.30815E-01 1.00000E-45
9.33013E-01 1.00000E-45
9.35178E-01 1.00000E-45
9.37310E-01 1.00000E-45
9.39409E-01 1.00000E-45
9.41474E-01 1.00000E-45
9.43505E-01 1.00000E-45
9.45503E-01 1.00000E-45
9.47467E-01 1.00000E-45
9.49397E-01 1.00000E-45
9.51293E-01 1.00000E-45
9.53154E-01 1.00000E-45
9.54981E-01 1.00000E-45
9.56773E-01 1.00000E-45
9.58530E-01 1.00000E-45
9.60252E-01 1.00000E-45
9.61940E-01 1.00000E-45
9.63592E-01 1.00000E-45
9.65209E-01 1.00000E-45
9.66790E-01 1.00000E-45
9.68336E-01 1.00000E-45
9.69846E-01 1.00000E-45
9.71321E-01 1.00000E-45
9.72759E-01 1.00000E-45
9.74162E-01 1.00000E-45
9.75528E-01 1.00000E-45
9.76858E-01 1.00000E-45
9.78152E-01 1.00000E-45
9.79410E-01 1.00000E-45
9.80631E-01 1.00000E-45
9.81815E-01 1.00000E-45
9.82963E-01 1.00000E-45
9.84074E-01 1.00000E-45
9.85148E-01 1.00000E-45
9.86185E-01 1.00000E-45
9.87185E-01 1.00000E-45
9.88148E-01 1.00000E-45
9.89074E-01 1.00000E-45
9.89962E-01 1.00000E-45
9.90814E-01 1.00000E-45
9.91627E-01 1.00000E-45
9.92404E-01 1.00000E-45
9.93143E-01 1.00000E-45
9.93844E-01 1.00000E-45
9.94508E-01 1.00000E-45
9.95134E-01 1.00000E-45
9.95722E-01 1.00000E-45
9.96273E-01 1.00000E-45
9.96786E-01 1.00000E-45
9.97261E-01 1.00000E-45
9.97698E-01 1.00000E-45
9.98097E-01 1.00000E-45
9.98459E-01 1.00000E-45
9.98782E-01 1.00000E-45
9.99067E-01 1.00000E-45
9.99315E-01 1.00000E-45
9.99524E-01 1.00000E-45
9.99695E-01 1.00000E-45
9.99829E-01 1.00000E-45
9.99924E-01 1.00000E-45
9.99981E-01 1.00000E-45
1.00000E+00 1.00000E-45
