 #
 # Subroutine ELSEPA. Elastic scattering of electrons and positrons
 #                    by neutral atoms and positive ions
 #
 # Projectile: positron
 # Kinetic energy = 1.50000E+08 eV = 5.51240E+06 a.u.
 #
 # WARNING: High-energy factorization with free-atom DF screening.
 #          Absorption, polarization and exchange corrections are
 #          switched off.
 #          Phase shifts are calculated for the bare nucleus.
 #          Scattering amplitudes are not evaluated.
 #
 # Element: Ga,  Z =  31,  atomic weight = 6.97230E+01 g/mol
 #
 # Nuclear model: Fermi distribution
 #                Average radius = 4.40395E-13 cm
 #                Skin thickness = 5.46000E-14 cm
 #
 # Number of electrons = 31
 #
 # Total elastic cross section = 2.18162E-18 cm**2 = 7.79070E-02 a0**2
 # 1st transport cross section = 8.54929E-26 cm**2 = 3.05301E-09 a0**2
 # 2nd transport cross section = 2.55197E-25 cm**2 = 9.11327E-09 a0**2
 #
 #
 # Differential cross section:                       MU=(1-COS(THETA))/2
 #
 #  THETA        MU          DCS          DCS        Sherman      error
 #  (deg)                 (cm**2/sr)   (a0**2/sr)    function
 #----------------------------------------------------------------------
0.00000E+00 4.37430E-10
7.61557E-13 4.34484E-10
1.18994E-12 4.32843E-10
1.71346E-12 4.30853E-10
2.33225E-12 4.28520E-10
3.04617E-12 4.25856E-10
3.85530E-12 4.22871E-10
4.75964E-12 4.19577E-10
5.75917E-12 4.15987E-10
6.85391E-12 4.12115E-10
8.04379E-12 4.07976E-10
9.32893E-12 4.03585E-10
1.07092E-11 3.98950E-10
1.21847E-11 3.94090E-10
1.37554E-11 3.89043E-10
1.54213E-11 3.83827E-10
1.71823E-11 3.78410E-10
1.90386E-11 3.72845E-10
2.09900E-11 3.67165E-10
2.30367E-11 3.61379E-10
2.51785E-11 3.55442E-10
2.74156E-11 3.49443E-10
2.97478E-11 3.43396E-10
3.21752E-11 3.37275E-10
3.46979E-11 3.31090E-10
3.73157E-11 3.24903E-10
4.00286E-11 3.18726E-10
4.28368E-11 3.12493E-10
4.57402E-11 3.06279E-10
4.87388E-11 3.00111E-10
5.18325E-11 2.93981E-10
5.50215E-11 2.87836E-10
5.83057E-11 2.81767E-10
6.16850E-11 2.75780E-10
6.51595E-11 2.69828E-10
6.87293E-11 2.63929E-10
7.23943E-11 2.58131E-10
7.61544E-11 2.52438E-10
1.18991E-10 2.00347E-10
1.71347E-10 1.58519E-10
2.33223E-10 1.26183E-10
3.04617E-10 1.01545E-10
3.85531E-10 8.27743E-11
4.75965E-10 6.83812E-11
5.75917E-10 5.72077E-11
6.85389E-10 4.84016E-11
8.04380E-10 4.13506E-11
9.32891E-10 3.56263E-11
1.07092E-09 3.07593E-11
1.21847E-09 2.66689E-11
1.37554E-09 2.34124E-11
1.54213E-09 2.07869E-11
1.71823E-09 1.82904E-11
1.90386E-09 1.61592E-11
2.09900E-09 1.44055E-11
2.30367E-09 1.29146E-11
2.51785E-09 1.14564E-11
2.74156E-09 1.02367E-11
2.97478E-09 9.20858E-12
3.21752E-09 8.27084E-12
3.46978E-09 7.40921E-12
3.73156E-09 6.67391E-12
4.00286E-09 6.04264E-12
4.28368E-09 5.44250E-12
4.57402E-09 4.91426E-12
4.87388E-09 4.45624E-12
5.18326E-09 4.05067E-12
5.50215E-09 3.67018E-12
5.83057E-09 3.33725E-12
6.16850E-09 3.04477E-12
6.51596E-09 2.77789E-12
6.87293E-09 2.53513E-12
7.23942E-09 2.32018E-12
7.61544E-09 2.12924E-12
1.18991E-08 9.61899E-13
1.71347E-08 4.96035E-13
2.33223E-08 2.83826E-13
3.04617E-08 1.75353E-13
3.85531E-08 1.14592E-13
4.75965E-08 7.81069E-14
5.75917E-08 5.49977E-14
6.85389E-08 3.97678E-14
8.04380E-08 2.94102E-14
9.32891E-08 2.21799E-14
1.07092E-07 1.70096E-14
1.21847E-07 1.32621E-14
1.37554E-07 1.04777E-14
1.54213E-07 8.38707E-15
1.71823E-07 6.79196E-15
1.90386E-07 5.55652E-15
2.09900E-07 4.59016E-15
2.30367E-07 3.82546E-15
2.51785E-07 3.21352E-15
2.74156E-07 2.71952E-15
2.97478E-07 2.31726E-15
3.21752E-07 1.98683E-15
3.46978E-07 1.71340E-15
3.73156E-07 1.48563E-15
4.00286E-07 1.29456E-15
4.28368E-07 1.13329E-15
4.57402E-07 9.96467E-16
4.87388E-07 8.79736E-16
5.18325E-07 7.79599E-16
5.50215E-07 6.93359E-16
5.83057E-07 6.18757E-16
6.16850E-07 5.53896E-16
6.51596E-07 4.97339E-16
6.87293E-07 4.47836E-16
7.23942E-07 4.04326E-16
7.61543E-07 3.65979E-16
1.18991E-06 1.51782E-16
1.71347E-06 7.37407E-17
2.33223E-06 3.99816E-17
3.04617E-06 2.35015E-17
3.85531E-06 1.46979E-17
4.75964E-06 9.65453E-18
5.75916E-06 6.59929E-18
6.85388E-06 4.66198E-18
8.04378E-06 3.38590E-18
9.32888E-06 2.51790E-18
1.07092E-05 1.91095E-18
1.21846E-05 1.47630E-18
1.37553E-05 1.15846E-18
1.54212E-05 9.21702E-19
1.71822E-05 7.42439E-19
1.90385E-05 6.04628E-19
2.09899E-05 4.97475E-19
2.30365E-05 4.13024E-19
2.51783E-05 3.45731E-19
2.74153E-05 2.91580E-19
2.97475E-05 2.47614E-19
3.21749E-05 2.11627E-19
3.46974E-05 1.81948E-19
3.73152E-05 1.57298E-19
4.00281E-05 1.36687E-19
4.28362E-05 1.19346E-19
4.57395E-05 1.04669E-19
4.87380E-05 9.21780E-20
5.18317E-05 8.14936E-20
5.50205E-05 7.23114E-20
5.83045E-05 6.43856E-20
6.16838E-05 5.75163E-20
6.51582E-05 5.15392E-20
6.87277E-05 4.63191E-20
7.23925E-05 4.17437E-20
7.61524E-05 3.77201E-20
9.21439E-05 2.57503E-20
1.09658E-04 1.81714E-20
1.28695E-04 1.31860E-20
1.49255E-04 9.79772E-21
1.71338E-04 7.43070E-21
1.94942E-04 5.73666E-21
2.20070E-04 4.49867E-21
2.46720E-04 3.57707E-21
2.74892E-04 2.87959E-21
3.04586E-04 2.34397E-21
3.35803E-04 1.92714E-21
3.68542E-04 1.59888E-21
4.02802E-04 1.33753E-21
4.38585E-04 1.12738E-21
4.75889E-04 9.56870E-22
5.14715E-04 8.17351E-22
5.55063E-04 7.02315E-22
5.96931E-04 6.06782E-22
6.40321E-04 5.26920E-22
6.85233E-04 4.59747E-22
7.31665E-04 4.02918E-22
7.79618E-04 3.54583E-22
8.29092E-04 3.13264E-22
8.80086E-04 2.77774E-22
9.32601E-04 2.47156E-22
9.86636E-04 2.20629E-22
1.04219E-03 1.97556E-22
1.09927E-03 1.77410E-22
1.15786E-03 1.59759E-22
1.21797E-03 1.44241E-22
1.27961E-03 1.30554E-22
1.34276E-03 1.18446E-22
1.40743E-03 1.07703E-22
1.47362E-03 9.81451E-23
1.54133E-03 8.96191E-23
1.61056E-03 8.19945E-23
1.68131E-03 7.51594E-23
1.75357E-03 6.90179E-23
1.82735E-03 6.34874E-23
1.90265E-03 5.84966E-23
1.97947E-03 5.39836E-23
2.05780E-03 4.98947E-23
2.13765E-03 4.61831E-23
2.21902E-03 4.28079E-23
2.30190E-03 3.97332E-23
2.38630E-03 3.69275E-23
2.47222E-03 3.43633E-23
2.55965E-03 3.20160E-23
2.64859E-03 2.98641E-23
2.73905E-03 2.78884E-23
2.83103E-03 2.60720E-23
2.92452E-03 2.43997E-23
3.01952E-03 2.28581E-23
3.11604E-03 2.14352E-23
3.21407E-03 2.01201E-23
3.31362E-03 1.89034E-23
3.41468E-03 1.77762E-23
3.51725E-03 1.67309E-23
3.62133E-03 1.57605E-23
3.72692E-03 1.48585E-23
3.83403E-03 1.40195E-23
3.94265E-03 1.32381E-23
4.05278E-03 1.25096E-23
4.16442E-03 1.18300E-23
4.27757E-03 1.11953E-23
4.39223E-03 1.06020E-23
4.50840E-03 1.00470E-23
4.62608E-03 9.52723E-24
4.74527E-03 9.04019E-24
4.86597E-03 8.58341E-24
4.98817E-03 8.15468E-24
5.11188E-03 7.75196E-24
5.23711E-03 7.37340E-24
5.36383E-03 7.01729E-24
5.49207E-03 6.68205E-24
5.62181E-03 6.36626E-24
5.75306E-03 6.06857E-24
5.88581E-03 5.78777E-24
6.02007E-03 5.52272E-24
6.15583E-03 5.27239E-24
6.29310E-03 5.03581E-24
6.43187E-03 4.81209E-24
6.57214E-03 4.60041E-24
6.71392E-03 4.40001E-24
6.85720E-03 4.21017E-24
7.00198E-03 4.03025E-24
7.14827E-03 3.85963E-24
7.29605E-03 3.69774E-24
7.44534E-03 3.54407E-24
7.59612E-03 3.39811E-24
7.97965E-03 3.06406E-24
8.37255E-03 2.76915E-24
8.77480E-03 2.50806E-24
9.18641E-03 2.27628E-24
9.60736E-03 2.06998E-24
1.00376E-02 1.88591E-24
1.04773E-02 1.72129E-24
1.09262E-02 1.57373E-24
1.13844E-02 1.44117E-24
1.18520E-02 1.32184E-24
1.23288E-02 1.21422E-24
1.28150E-02 1.11696E-24
1.33104E-02 1.02891E-24
1.38150E-02 9.49051E-25
1.43290E-02 8.76507E-25
1.48521E-02 8.10497E-25
1.53845E-02 7.50340E-25
1.59262E-02 6.95433E-25
1.64770E-02 6.45245E-25
1.70371E-02 5.99307E-25
1.76063E-02 5.57203E-25
1.81848E-02 5.18561E-25
1.87724E-02 4.83053E-25
1.93692E-02 4.50384E-25
1.99751E-02 4.20293E-25
2.05901E-02 3.92544E-25
2.12143E-02 3.66927E-25
2.18476E-02 3.43253E-25
2.24900E-02 3.21352E-25
2.31415E-02 3.01070E-25
2.38021E-02 2.82271E-25
2.44717E-02 2.64829E-25
2.51504E-02 2.48631E-25
2.58382E-02 2.33576E-25
2.65349E-02 2.19570E-25
2.72407E-02 2.06530E-25
2.79555E-02 1.94380E-25
2.86793E-02 1.83050E-25
2.94120E-02 1.72476E-25
3.01537E-02 1.62600E-25
3.09043E-02 1.53371E-25
3.16639E-02 1.44738E-25
3.24324E-02 1.36660E-25
3.32098E-02 1.29094E-25
3.39961E-02 1.22004E-25
3.47912E-02 1.15355E-25
3.55952E-02 1.09117E-25
3.64081E-02 1.03260E-25
3.72297E-02 9.77584E-26
3.80602E-02 9.25873E-26
3.88995E-02 8.77241E-26
3.97476E-02 8.31482E-26
4.06044E-02 7.88402E-26
4.14700E-02 7.47825E-26
4.23443E-02 7.09586E-26
4.32273E-02 6.73533E-26
4.41190E-02 6.39525E-26
4.50194E-02 6.07431E-26
4.59284E-02 5.77130E-26
4.68461E-02 5.48508E-26
4.87074E-02 4.95895E-26
5.06030E-02 4.48837E-26
5.25328E-02 4.06682E-26
5.44967E-02 3.68862E-26
5.64946E-02 3.34884E-26
5.85262E-02 3.04315E-26
6.05914E-02 2.76777E-26
6.26901E-02 2.51940E-26
6.48222E-02 2.29511E-26
6.69873E-02 2.09235E-26
6.91854E-02 1.90885E-26
7.14163E-02 1.74260E-26
7.36799E-02 1.59185E-26
7.59760E-02 1.45501E-26
7.83043E-02 1.33070E-26
8.06647E-02 1.21766E-26
8.30571E-02 1.11480E-26
8.54812E-02 1.02112E-26
8.79369E-02 9.35734E-27
9.04240E-02 8.57862E-27
9.29422E-02 7.86790E-27
9.54915E-02 7.21883E-27
9.80716E-02 6.62570E-27
1.00682E-01 6.08337E-27
1.03323E-01 5.58721E-27
1.05995E-01 5.13305E-27
1.08696E-01 4.71712E-27
1.11427E-01 4.33602E-27
1.14188E-01 3.98668E-27
1.16978E-01 3.66631E-27
1.19797E-01 3.37239E-27
1.22645E-01 3.10262E-27
1.25522E-01 2.85494E-27
1.28428E-01 2.62745E-27
1.31361E-01 2.41844E-27
1.34323E-01 2.22635E-27
1.37313E-01 2.04976E-27
1.40330E-01 1.88737E-27
1.43375E-01 1.73800E-27
1.46447E-01 1.60058E-27
1.49545E-01 1.47412E-27
1.52671E-01 1.35773E-27
1.55823E-01 1.25057E-27
1.59001E-01 1.15191E-27
1.62205E-01 1.06104E-27
1.65435E-01 9.77356E-28
1.68690E-01 9.00264E-28
1.71970E-01 8.29241E-28
1.75276E-01 7.63800E-28
1.78606E-01 7.03499E-28
1.81961E-01 6.47928E-28
1.85340E-01 5.96713E-28
1.88743E-01 5.49510E-28
1.92169E-01 5.06002E-28
1.95619E-01 4.65900E-28
1.99092E-01 4.28934E-28
2.02589E-01 3.94861E-28
2.06107E-01 3.63453E-28
2.09649E-01 3.34502E-28
2.13212E-01 3.07816E-28
2.16797E-01 2.83220E-28
2.20404E-01 2.60550E-28
2.24032E-01 2.39657E-28
2.27680E-01 2.20403E-28
2.31350E-01 2.02660E-28
2.35040E-01 1.86311E-28
2.38751E-01 1.71248E-28
2.42481E-01 1.57371E-28
2.46231E-01 1.44589E-28
2.50000E-01 1.32816E-28
2.53788E-01 1.21975E-28
2.57595E-01 1.11992E-28
2.61421E-01 1.02801E-28
2.65264E-01 9.43415E-29
2.69126E-01 8.65558E-29
2.73005E-01 7.93916E-29
2.76901E-01 7.28007E-29
2.80814E-01 6.67384E-29
2.84744E-01 6.11635E-29
2.88691E-01 5.60378E-29
2.92653E-01 5.13264E-29
2.96632E-01 4.69967E-29
3.00625E-01 4.30189E-29
3.04634E-01 3.93652E-29
3.08658E-01 3.60102E-29
3.12697E-01 3.29304E-29
3.16749E-01 3.01040E-29
3.20816E-01 2.75109E-29
3.24896E-01 2.51326E-29
3.28990E-01 2.29520E-29
3.33097E-01 2.09535E-29
3.37216E-01 1.91223E-29
3.41348E-01 1.74452E-29
3.45492E-01 1.59097E-29
3.49647E-01 1.45043E-29
3.53814E-01 1.32187E-29
3.57992E-01 1.20430E-29
3.62181E-01 1.09683E-29
3.66381E-01 9.98637E-30
3.70590E-01 9.08958E-30
3.74810E-01 8.27094E-30
3.79039E-01 7.52399E-30
3.83277E-01 6.84278E-30
3.87524E-01 6.22184E-30
3.91780E-01 5.65612E-30
3.96044E-01 5.14099E-30
4.00316E-01 4.67217E-30
4.04596E-01 4.24575E-30
4.08882E-01 3.85810E-30
4.13176E-01 3.50592E-30
4.17476E-01 3.18614E-30
4.21783E-01 2.89597E-30
4.26095E-01 2.63282E-30
4.30413E-01 2.39434E-30
4.34737E-01 2.17835E-30
4.39065E-01 1.98286E-30
4.43398E-01 1.80605E-30
4.47736E-01 1.64623E-30
4.52077E-01 1.50189E-30
4.56422E-01 1.37160E-30
4.60770E-01 1.25409E-30
4.65122E-01 1.14818E-30
4.69476E-01 1.05278E-30
4.73832E-01 9.66922E-31
4.78190E-01 8.89697E-31
4.82550E-01 8.20285E-31
4.86912E-01 7.57937E-31
4.91274E-01 7.01968E-31
4.95637E-01 6.51756E-31
5.00000E-01 6.06732E-31
5.04363E-01 5.66379E-31
5.08726E-01 5.30227E-31
5.13088E-01 4.97848E-31
5.17450E-01 4.68855E-31
5.21810E-01 4.42895E-31
5.26168E-01 4.19649E-31
5.30524E-01 3.98828E-31
5.34878E-01 3.80168E-31
5.39230E-01 3.63435E-31
5.43578E-01 3.48414E-31
5.47923E-01 3.34913E-31
5.52264E-01 3.22757E-31
5.56602E-01 3.11790E-31
5.60935E-01 3.01873E-31
5.65263E-01 2.92878E-31
5.69587E-01 2.84693E-31
5.73905E-01 2.77217E-31
5.78217E-01 2.70360E-31
5.82524E-01 2.64041E-31
5.86824E-01 2.58189E-31
5.91118E-01 2.52740E-31
5.95404E-01 2.47639E-31
5.99684E-01 2.42835E-31
6.03956E-01 2.38286E-31
6.08220E-01 2.33952E-31
6.12476E-01 2.29800E-31
6.16723E-01 2.25801E-31
6.20961E-01 2.21930E-31
6.25190E-01 2.18165E-31
6.29410E-01 2.14486E-31
6.33619E-01 2.10879E-31
6.37819E-01 2.07328E-31
6.42008E-01 2.03824E-31
6.46186E-01 2.00356E-31
6.50353E-01 1.96917E-31
6.54508E-01 1.93501E-31
6.58652E-01 1.90102E-31
6.62784E-01 1.86717E-31
6.66903E-01 1.83343E-31
6.71010E-01 1.79978E-31
6.75104E-01 1.76621E-31
6.79184E-01 1.73271E-31
6.83251E-01 1.69930E-31
6.87303E-01 1.66596E-31
6.91342E-01 1.63270E-31
6.95366E-01 1.59955E-31
6.99375E-01 1.56652E-31
7.03368E-01 1.53361E-31
7.07347E-01 1.50085E-31
7.11309E-01 1.46826E-31
7.15256E-01 1.43586E-31
7.19186E-01 1.40366E-31
7.23099E-01 1.37170E-31
7.26995E-01 1.33997E-31
7.30874E-01 1.30852E-31
7.34736E-01 1.27735E-31
7.38579E-01 1.24648E-31
7.42405E-01 1.21594E-31
7.46212E-01 1.18574E-31
7.50000E-01 1.15589E-31
7.53769E-01 1.12641E-31
7.57519E-01 1.09732E-31
7.61249E-01 1.06863E-31
7.64960E-01 1.04036E-31
7.68650E-01 1.01250E-31
7.72320E-01 9.85078E-32
7.75968E-01 9.58097E-32
7.79596E-01 9.31567E-32
7.83203E-01 9.05495E-32
7.86788E-01 8.79886E-32
7.90351E-01 8.54746E-32
7.93893E-01 8.30079E-32
7.97411E-01 8.05889E-32
8.00908E-01 7.82178E-32
8.04381E-01 7.58948E-32
8.07831E-01 7.36199E-32
8.11257E-01 7.13932E-32
8.14660E-01 6.92147E-32
8.18039E-01 6.70842E-32
8.21394E-01 6.50016E-32
8.24724E-01 6.29665E-32
8.28030E-01 6.09787E-32
8.31310E-01 5.90380E-32
8.34565E-01 5.71438E-32
8.37795E-01 5.52957E-32
8.40999E-01 5.34934E-32
8.44177E-01 5.17362E-32
8.47329E-01 5.00235E-32
8.50455E-01 4.83549E-32
8.53553E-01 4.67297E-32
8.56625E-01 4.51473E-32
8.59670E-01 4.36070E-32
8.62687E-01 4.21082E-32
8.65677E-01 4.06502E-32
8.68639E-01 3.92321E-32
8.71572E-01 3.78536E-32
8.74478E-01 3.65136E-32
8.77355E-01 3.52115E-32
8.80203E-01 3.39465E-32
8.83022E-01 3.27180E-32
8.85812E-01 3.15250E-32
8.88573E-01 3.03670E-32
8.91304E-01 2.92431E-32
8.94005E-01 2.81527E-32
8.96677E-01 2.70948E-32
8.99318E-01 2.60689E-32
9.01928E-01 2.50741E-32
9.04508E-01 2.41097E-32
9.07058E-01 2.31751E-32
9.09576E-01 2.22694E-32
9.12063E-01 2.13919E-32
9.14519E-01 2.05420E-32
9.16943E-01 1.97190E-32
9.19335E-01 1.89221E-32
9.21696E-01 1.81507E-32
9.24024E-01 1.74041E-32
9.26320E-01 1.66817E-32
9.28584E-01 1.59828E-32
9.30815E-01 1.53068E-32
9.33013E-01 1.46531E-32
9.35178E-01 1.40210E-32
9.37310E-01 1.34100E-32
9.39409E-01 1.28196E-32
9.41474E-01 1.22490E-32
9.43505E-01 1.16978E-32
9.45503E-01 1.11655E-32
9.47467E-01 1.06514E-32
9.49397E-01 1.01551E-32
9.51293E-01 9.67603E-33
9.53154E-01 9.21378E-33
9.54981E-01 8.76780E-33
9.56773E-01 8.33765E-33
9.58530E-01 7.92290E-33
9.60252E-01 7.52306E-33
9.61940E-01 7.13775E-33
9.63592E-01 6.76652E-33
9.65209E-01 6.40898E-33
9.66790E-01 6.06471E-33
9.68336E-01 5.73338E-33
9.69846E-01 5.41456E-33
9.71321E-01 5.10795E-33
9.72759E-01 4.81317E-33
9.74162E-01 4.52990E-33
9.75528E-01 4.25779E-33
9.76858E-01 3.99658E-33
9.78152E-01 3.74593E-33
9.79410E-01 3.50557E-33
9.80631E-01 3.27520E-33
9.81815E-01 3.05455E-33
9.82963E-01 2.84338E-33
9.84074E-01 2.64142E-33
9.85148E-01 2.44847E-33
9.86185E-01 2.26425E-33
9.87185E-01 2.08857E-33
9.88148E-01 1.92120E-33
9.89074E-01 1.76196E-33
9.89962E-01 1.61065E-33
9.90814E-01 1.46707E-33
9.91627E-01 1.33106E-33
9.92404E-01 1.20246E-33
9.93143E-01 1.08110E-33
9.93844E-01 9.66857E-34
9.94508E-01 8.59550E-34
9.95134E-01 7.59074E-34
9.95722E-01 6.65294E-34
9.96273E-01 5.78107E-34
9.96786E-01 4.97392E-34
9.97261E-01 4.23051E-34
9.97698E-01 3.55005E-34
9.98097E-01 2.93142E-34
9.98459E-01 2.37414E-34
9.98782E-01 1.87740E-34
9.99067E-01 1.44049E-34
9.99315E-01 1.06295E-34
9.99524E-01 7.44225E-35
9.99695E-01 4.84063E-35
9.99829E-01 2.82019E-35
9.99924E-01 1.37917E-35
9.99981E-01 5.15071E-36
1.00000E+00 2.27211E-36
