 #
 # Subroutine ELSEPA. Elastic scattering of electrons and positrons
 #                    by neutral atoms and positive ions
 #
 # Projectile: electron
 # Kinetic energy = 6.00000E+08 eV = 2.20496E+07 a.u.
 #
 # WARNING: High-energy factorization with free-atom DF screening.
 #          Absorption, polarization and exchange corrections are
 #          switched off.
 #          Phase shifts are calculated for the bare nucleus.
 #          Scattering amplitudes are not evaluated.
 #
 # Element: Li,  Z =   3,  atomic weight = 6.94100E+00 g/mol
 #
 # Nuclear model: Fermi distribution
 #                Average radius = 2.04107E-13 cm
 #                Skin thickness = 5.46000E-14 cm
 #
 # Number of electrons =  3
 #
 # Total elastic cross section = 1.06115E-19 cm**2 = 3.78943E-03 a0**2
 # 1st transport cross section = 5.86064E-29 cm**2 = 2.09287E-12 a0**2
 # 2nd transport cross section = 1.75700E-28 cm**2 = 6.27438E-12 a0**2
 #
 #
 # Differential cross section:                       MU=(1-COS(THETA))/2
 #
 #  THETA        MU          DCS          DCS        Sherman      error
 #  (deg)                 (cm**2/sr)   (a0**2/sr)    function
 #----------------------------------------------------------------------
0.00000E+00 1.49106E-09
7.61557E-13 1.18230E-09
1.18994E-12 1.04491E-09
1.71346E-12 9.04207E-10
2.33225E-12 7.68547E-10
3.04617E-12 6.43806E-10
3.85530E-12 5.33301E-10
4.75964E-12 4.40087E-10
5.75917E-12 3.60534E-10
6.85391E-12 2.92949E-10
8.04379E-12 2.40347E-10
9.32893E-12 1.95683E-10
1.07092E-11 1.61252E-10
1.21847E-11 1.32961E-10
1.37554E-11 1.10230E-10
1.54213E-11 9.23577E-11
1.71823E-11 7.73587E-11
1.90386E-11 6.59073E-11
2.09900E-11 5.61760E-11
2.30367E-11 4.84037E-11
2.51785E-11 4.19614E-11
2.74156E-11 3.65654E-11
2.97478E-11 3.21704E-11
3.21752E-11 2.83661E-11
3.46979E-11 2.52613E-11
3.73157E-11 2.25609E-11
4.00286E-11 2.02640E-11
4.28368E-11 1.82891E-11
4.57402E-11 1.65612E-11
4.87388E-11 1.50762E-11
5.18325E-11 1.37585E-11
5.50215E-11 1.26092E-11
5.83057E-11 1.15872E-11
6.16850E-11 1.06782E-11
6.51595E-11 9.86828E-12
6.87293E-11 9.14016E-12
7.23943E-11 8.48612E-12
7.61544E-11 7.89522E-12
1.18991E-10 4.17824E-12
1.71347E-10 2.45575E-12
2.33223E-10 1.53108E-12
3.04617E-10 9.99158E-13
3.85531E-10 6.74347E-13
4.75965E-10 4.68004E-13
5.75917E-10 3.33900E-13
6.85389E-10 2.43615E-13
8.04380E-10 1.81346E-13
9.32891E-10 1.37421E-13
1.07092E-09 1.05847E-13
1.21847E-09 8.27113E-14
1.37554E-09 6.55023E-14
1.54213E-09 5.24936E-14
1.71823E-09 4.25299E-14
1.90386E-09 3.48048E-14
2.09900E-09 2.87427E-14
2.30367E-09 2.39385E-14
2.51785E-09 2.00906E-14
2.74156E-09 1.69827E-14
2.97478E-09 1.44502E-14
3.21752E-09 1.23709E-14
3.46978E-09 1.06512E-14
3.73156E-09 9.21922E-15
4.00286E-09 8.01937E-15
4.28368E-09 7.00795E-15
4.57402E-09 6.15080E-15
4.87388E-09 5.42039E-15
5.18326E-09 4.79517E-15
5.50215E-09 4.25729E-15
5.83057E-09 3.79270E-15
6.16850E-09 3.38947E-15
6.51596E-09 3.03813E-15
6.87293E-09 2.73115E-15
7.23942E-09 2.46197E-15
7.61544E-09 2.22515E-15
1.18991E-08 9.12252E-16
1.71347E-08 4.40155E-16
2.33223E-08 2.37656E-16
3.04617E-08 1.39337E-16
3.85531E-08 8.69989E-17
4.75965E-08 5.70855E-17
5.75917E-08 3.89930E-17
6.85389E-08 2.75331E-17
8.04380E-08 1.99906E-17
9.32891E-08 1.48629E-17
1.07092E-07 1.12788E-17
1.21847E-07 8.71278E-18
1.37554E-07 6.83675E-18
1.54213E-07 5.43955E-18
1.71823E-07 4.38172E-18
1.90386E-07 3.56898E-18
2.09900E-07 2.93624E-18
2.30367E-07 2.43771E-18
2.51785E-07 2.04064E-18
2.74156E-07 1.72122E-18
2.97478E-07 1.46192E-18
3.21752E-07 1.24966E-18
3.46978E-07 1.07457E-18
3.73156E-07 9.29092E-19
4.00286E-07 8.07423E-19
4.28368E-07 7.05034E-19
4.57402E-07 6.18373E-19
4.87388E-07 5.44627E-19
5.18325E-07 4.81554E-19
5.50215E-07 4.27353E-19
5.83057E-07 3.80567E-19
6.16850E-07 3.40013E-19
6.51596E-07 3.04719E-19
6.87293E-07 2.73888E-19
7.23942E-07 2.46860E-19
7.61543E-07 2.23085E-19
1.18991E-06 9.13779E-20
1.71347E-06 4.40682E-20
2.33223E-06 2.37873E-20
3.04617E-06 1.39439E-20
3.85531E-06 8.70528E-21
4.75964E-06 5.71163E-21
5.75916E-06 3.90118E-21
6.85388E-06 2.75454E-21
8.04378E-06 1.99990E-21
9.32888E-06 1.48688E-21
1.07092E-05 1.12831E-21
1.21846E-05 8.71610E-22
1.37553E-05 6.83933E-22
1.54212E-05 5.44159E-22
1.71822E-05 4.38338E-22
1.90385E-05 3.57703E-22
2.09899E-05 2.94210E-22
2.30365E-05 2.44060E-22
2.51783E-05 2.04111E-22
2.74153E-05 1.72039E-22
2.97475E-05 1.46086E-22
3.21749E-05 1.24904E-22
3.46974E-05 1.07460E-22
3.73152E-05 9.29661E-23
4.00281E-05 8.08253E-23
4.28362E-05 7.05843E-23
4.57395E-05 6.18977E-23
4.87380E-05 5.44968E-23
5.18317E-05 4.81680E-23
5.50205E-05 4.27365E-23
5.83045E-05 3.80567E-23
6.16838E-05 3.40068E-23
6.51582E-05 3.04852E-23
6.87277E-05 2.74080E-23
7.23925E-05 2.47073E-23
7.61524E-05 2.21893E-23
9.21439E-05 1.51274E-23
1.09658E-04 1.06706E-23
1.28695E-04 7.73395E-24
1.49255E-04 5.74050E-24
1.71338E-04 4.34902E-24
1.94942E-04 3.35251E-24
2.20070E-04 2.62581E-24
2.46720E-04 2.08439E-24
2.74892E-04 1.67533E-24
3.04586E-04 1.36131E-24
3.35803E-04 1.11707E-24
3.68542E-04 9.25034E-25
4.02802E-04 7.72140E-25
4.38585E-04 6.49433E-25
4.75889E-04 5.49913E-25
5.14715E-04 4.68589E-25
5.55063E-04 4.01628E-25
5.96931E-04 3.46060E-25
6.40321E-04 2.99698E-25
6.85233E-04 2.60729E-25
7.31665E-04 2.27823E-25
7.79618E-04 1.99872E-25
8.29092E-04 1.76011E-25
8.80086E-04 1.55558E-25
9.32601E-04 1.37932E-25
9.86636E-04 1.22696E-25
1.04219E-03 1.09462E-25
1.09927E-03 9.79299E-26
1.15786E-03 8.78465E-26
1.21797E-03 7.89963E-26
1.27961E-03 7.12098E-26
1.34276E-03 6.43332E-26
1.40743E-03 5.82469E-26
1.47362E-03 5.28437E-26
1.54133E-03 4.80344E-26
1.61056E-03 4.37447E-26
1.68131E-03 3.99074E-26
1.75357E-03 3.64691E-26
1.82735E-03 3.33803E-26
1.90265E-03 3.06004E-26
1.97947E-03 2.80937E-26
2.05780E-03 2.58283E-26
2.13765E-03 2.37784E-26
2.21902E-03 2.19192E-26
2.30190E-03 2.02309E-26
2.38630E-03 1.86950E-26
2.47222E-03 1.72954E-26
2.55965E-03 1.60186E-26
2.64859E-03 1.48517E-26
2.73905E-03 1.37841E-26
2.83103E-03 1.28057E-26
2.92452E-03 1.19082E-26
3.01952E-03 1.10838E-26
3.11604E-03 1.03255E-26
3.21407E-03 9.62739E-27
3.31362E-03 8.98379E-27
3.41468E-03 8.38996E-27
3.51725E-03 7.84139E-27
3.62133E-03 7.33410E-27
3.72692E-03 6.86462E-27
3.83403E-03 6.42958E-27
3.94265E-03 6.02622E-27
4.05278E-03 5.65179E-27
4.16442E-03 5.30397E-27
4.27757E-03 4.98061E-27
4.39223E-03 4.67968E-27
4.50840E-03 4.39948E-27
4.62608E-03 4.13831E-27
4.74527E-03 3.89476E-27
4.86597E-03 3.66744E-27
4.98817E-03 3.45511E-27
5.11188E-03 3.25669E-27
5.23711E-03 3.07110E-27
5.36383E-03 2.89743E-27
5.49207E-03 2.73479E-27
5.62181E-03 2.58240E-27
5.75306E-03 2.43953E-27
5.88581E-03 2.30550E-27
6.02007E-03 2.17970E-27
6.15583E-03 2.06155E-27
6.29310E-03 1.95054E-27
6.43187E-03 1.84617E-27
6.57214E-03 1.74800E-27
6.71392E-03 1.65562E-27
6.85720E-03 1.56864E-27
7.00198E-03 1.48672E-27
7.14827E-03 1.40951E-27
7.29605E-03 1.33672E-27
7.44534E-03 1.26807E-27
7.59612E-03 1.20328E-27
7.97965E-03 1.05671E-27
8.37255E-03 9.29517E-28
8.77480E-03 8.18875E-28
9.18641E-03 7.22426E-28
9.60736E-03 6.38179E-28
1.00376E-02 5.64452E-28
1.04773E-02 4.99815E-28
1.09262E-02 4.43052E-28
1.13844E-02 3.93126E-28
1.18520E-02 3.49148E-28
1.23288E-02 3.10356E-28
1.28150E-02 2.76093E-28
1.33104E-02 2.45794E-28
1.38150E-02 2.18970E-28
1.43290E-02 1.95195E-28
1.48521E-02 1.74103E-28
1.53845E-02 1.55372E-28
1.59262E-02 1.38724E-28
1.64770E-02 1.23915E-28
1.70371E-02 1.10731E-28
1.76063E-02 9.89860E-29
1.81848E-02 8.85154E-29
1.87724E-02 7.91754E-29
1.93692E-02 7.08389E-29
1.99751E-02 6.33943E-29
2.05901E-02 5.67427E-29
2.12143E-02 5.07971E-29
2.18476E-02 4.54803E-29
2.24900E-02 4.07240E-29
2.31415E-02 3.64676E-29
2.38021E-02 3.26575E-29
2.44717E-02 2.92460E-29
2.51504E-02 2.61905E-29
2.58382E-02 2.34535E-29
2.65349E-02 2.10011E-29
2.72407E-02 1.88035E-29
2.79555E-02 1.68341E-29
2.86793E-02 1.50688E-29
2.94120E-02 1.34865E-29
3.01537E-02 1.20682E-29
3.09043E-02 1.07967E-29
3.16639E-02 9.65699E-30
3.24324E-02 8.63538E-30
3.32098E-02 7.71969E-30
3.39961E-02 6.89901E-30
3.47912E-02 6.16356E-30
3.55952E-02 5.50458E-30
3.64081E-02 4.91420E-30
3.72297E-02 4.38539E-30
3.80602E-02 3.91181E-30
3.88995E-02 3.48779E-30
3.97476E-02 3.10825E-30
4.06044E-02 2.76861E-30
4.14700E-02 2.46476E-30
4.23443E-02 2.19302E-30
4.32273E-02 1.95009E-30
4.41190E-02 1.73299E-30
4.50194E-02 1.53904E-30
4.59284E-02 1.36587E-30
4.68461E-02 1.21130E-30
4.87074E-02 9.50453E-31
5.06030E-02 7.43288E-31
5.25328E-02 5.79137E-31
5.44967E-02 4.49406E-31
5.64946E-02 3.47171E-31
5.85262E-02 2.66862E-31
6.05914E-02 2.03999E-31
6.26901E-02 1.54984E-31
6.48222E-02 1.16935E-31
6.69873E-02 8.75416E-32
6.91854E-02 6.49598E-32
7.14163E-02 4.77182E-32
7.36799E-02 3.46464E-32
7.59760E-02 2.48159E-32
7.83043E-02 1.74918E-32
8.06647E-02 1.20948E-32
8.30571E-02 8.16962E-33
8.54812E-02 5.36007E-33
8.79369E-02 3.38866E-33
9.04240E-02 2.04033E-33
9.29422E-02 1.14944E-33
9.54915E-02 5.89271E-34
9.80716E-02 2.63635E-34
1.00682E-01 1.00184E-34
1.03323E-01 4.51092E-35
1.05995E-01 5.89184E-35
1.08696E-01 1.13106E-34
1.11427E-01 1.87525E-34
1.14188E-01 2.68341E-34
1.16978E-01 3.46427E-34
1.19797E-01 4.16117E-34
1.22645E-01 4.74251E-34
1.25522E-01 5.19442E-34
1.28428E-01 5.51523E-34
1.31361E-01 5.71130E-34
1.34323E-01 5.79410E-34
1.37313E-01 5.77769E-34
1.40330E-01 5.67716E-34
1.43375E-01 5.50794E-34
1.46447E-01 5.28432E-34
1.49545E-01 5.02001E-34
1.52671E-01 4.72674E-34
1.55823E-01 4.41508E-34
1.59001E-01 4.09389E-34
1.62205E-01 3.77054E-34
1.65435E-01 3.45108E-34
1.68690E-01 3.14034E-34
1.71970E-01 2.84191E-34
1.75276E-01 2.55849E-34
1.78606E-01 2.29197E-34
1.81961E-01 2.04348E-34
1.85340E-01 1.81361E-34
1.88743E-01 1.60243E-34
1.92169E-01 1.40970E-34
1.95619E-01 1.23490E-34
1.99092E-01 1.07721E-34
2.02589E-01 9.35747E-35
2.06107E-01 8.09481E-35
2.09649E-01 6.97301E-35
2.13212E-01 5.98133E-35
2.16797E-01 5.10874E-35
2.20404E-01 4.34446E-35
2.24032E-01 3.67764E-35
2.27680E-01 3.09879E-35
2.31350E-01 2.59846E-35
2.35040E-01 2.16792E-35
2.38751E-01 1.79912E-35
2.42481E-01 1.48459E-35
2.46231E-01 1.21778E-35
2.50000E-01 9.92409E-36
2.53788E-01 8.03164E-36
2.57595E-01 6.45058E-36
2.61421E-01 5.13784E-36
2.65264E-01 4.05472E-36
2.69126E-01 3.16671E-36
2.73005E-01 2.44467E-36
2.76901E-01 1.86175E-36
2.80814E-01 1.39623E-36
2.84744E-01 1.02785E-36
2.88691E-01 7.40181E-37
2.92653E-01 5.18756E-37
2.96632E-01 3.51399E-37
3.00625E-01 2.27718E-37
3.04634E-01 1.38914E-37
3.08658E-01 7.77497E-38
3.12697E-01 3.82148E-38
3.16749E-01 1.52200E-38
3.20816E-01 4.67456E-39
3.24896E-01 3.23441E-39
3.28990E-01 8.24267E-39
3.33097E-01 1.74916E-38
3.37216E-01 2.94067E-38
3.41348E-01 4.26057E-38
3.45492E-01 5.61600E-38
3.49647E-01 6.92089E-38
3.53814E-01 8.15144E-38
3.57992E-01 9.24684E-38
3.62181E-01 1.01984E-37
3.66381E-01 1.09906E-37
3.70590E-01 1.16126E-37
3.74810E-01 1.20794E-37
3.79039E-01 1.23996E-37
3.83277E-01 1.25766E-37
3.87524E-01 1.26273E-37
3.91780E-01 1.25555E-37
3.96044E-01 1.23866E-37
4.00316E-01 1.21421E-37
4.04596E-01 1.18128E-37
4.08882E-01 1.14316E-37
4.13176E-01 1.09956E-37
4.17476E-01 1.05307E-37
4.21783E-01 1.00348E-37
4.26095E-01 9.52420E-38
4.30413E-01 8.99401E-38
4.34737E-01 8.46326E-38
4.39065E-01 7.93916E-38
4.43398E-01 7.42043E-38
4.47736E-01 6.91593E-38
4.52077E-01 6.42065E-38
4.56422E-01 5.94723E-38
4.60770E-01 5.49248E-38
4.65122E-01 5.05971E-38
4.69476E-01 4.64716E-38
4.73832E-01 4.25611E-38
4.78190E-01 3.89050E-38
4.82550E-01 3.55014E-38
4.86912E-01 3.23016E-38
4.91274E-01 2.93209E-38
4.95637E-01 2.65529E-38
5.00000E-01 2.40346E-38
5.04363E-01 2.16683E-38
5.08726E-01 1.95295E-38
5.13088E-01 1.75659E-38
5.17450E-01 1.57643E-38
5.21810E-01 1.40932E-38
5.26168E-01 1.26196E-38
5.30524E-01 1.12406E-38
5.34878E-01 1.00164E-38
5.39230E-01 8.90562E-39
5.43578E-01 7.89072E-39
5.47923E-01 6.97420E-39
5.52264E-01 6.17163E-39
5.56602E-01 5.42296E-39
5.60935E-01 4.77891E-39
5.65263E-01 4.19776E-39
5.69587E-01 3.67897E-39
5.73905E-01 3.20866E-39
5.78217E-01 2.80141E-39
5.82524E-01 2.43666E-39
5.86824E-01 2.11870E-39
5.91118E-01 1.83852E-39
5.95404E-01 1.59038E-39
5.99684E-01 1.37222E-39
6.03956E-01 1.18724E-39
6.08220E-01 1.01164E-39
6.12476E-01 8.69266E-40
6.16723E-01 7.34737E-40
6.20961E-01 6.31799E-40
6.25190E-01 5.37904E-40
6.29410E-01 4.54498E-40
6.33619E-01 3.81841E-40
6.37819E-01 3.23091E-40
6.42008E-01 2.66916E-40
6.46186E-01 2.22869E-40
6.50353E-01 1.86156E-40
6.54508E-01 1.54047E-40
6.58652E-01 1.26737E-40
6.62784E-01 1.01043E-40
6.66903E-01 8.28969E-41
6.71010E-01 6.63815E-41
6.75104E-01 5.21711E-41
6.79184E-01 4.14597E-41
6.83251E-01 3.20315E-41
6.87303E-01 2.46966E-41
6.91342E-01 1.88995E-41
6.95366E-01 1.41720E-41
6.99375E-01 1.00000E-45
7.03368E-01 1.00000E-45
7.07347E-01 1.00000E-45
7.11309E-01 1.00000E-45
7.15256E-01 1.00000E-45
7.19186E-01 1.00000E-45
7.23099E-01 1.00000E-45
7.26995E-01 1.00000E-45
7.30874E-01 1.00000E-45
7.34736E-01 1.00000E-45
7.38579E-01 1.00000E-45
7.42405E-01 1.00000E-45
7.46212E-01 1.00000E-45
7.50000E-01 1.00000E-45
7.53769E-01 1.00000E-45
7.57519E-01 1.00000E-45
7.61249E-01 1.00000E-45
7.64960E-01 1.00000E-45
7.68650E-01 1.00000E-45
7.72320E-01 1.00000E-45
7.75968E-01 1.00000E-45
7.79596E-01 1.00000E-45
7.83203E-01 1.00000E-45
7.86788E-01 1.00000E-45
7.90351E-01 1.00000E-45
7.93893E-01 1.00000E-45
7.97411E-01 1.00000E-45
8.00908E-01 1.00000E-45
8.04381E-01 1.00000E-45
8.07831E-01 1.00000E-45
8.11257E-01 1.00000E-45
8.14660E-01 1.00000E-45
8.18039E-01 1.00000E-45
8.21394E-01 1.00000E-45
8.24724E-01 1.00000E-45
8.28030E-01 1.00000E-45
8.31310E-01 1.00000E-45
8.34565E-01 1.00000E-45
8.37795E-01 1.00000E-45
8.40999E-01 1.00000E-45
8.44177E-01 1.00000E-45
8.47329E-01 1.00000E-45
8.50455E-01 1.00000E-45
8.53553E-01 1.00000E-45
8.56625E-01 1.00000E-45
8.59670E-01 1.00000E-45
8.62687E-01 1.00000E-45
8.65677E-01 1.00000E-45
8.68639E-01 1.00000E-45
8.71572E-01 1.00000E-45
8.74478E-01 1.00000E-45
8.77355E-01 1.00000E-45
8.80203E-01 1.00000E-45
8.83022E-01 1.00000E-45
8.85812E-01 1.00000E-45
8.88573E-01 1.00000E-45
8.91304E-01 1.00000E-45
8.94005E-01 1.00000E-45
8.96677E-01 1.00000E-45
8.99318E-01 1.00000E-45
9.01928E-01 1.00000E-45
9.04508E-01 1.00000E-45
9.07058E-01 1.00000E-45
9.09576E-01 1.00000E-45
9.12063E-01 1.00000E-45
9.14519E-01 1.00000E-45
9.16943E-01 1.00000E-45
9.19335E-01 1.00000E-45
9.21696E-01 1.00000E-45
9.24024E-01 1.00000E-45
9.26320E-01 1.00000E-45
9.28584E-01 1.00000E-45
9.30815E-01 1.00000E-45
9.33013E-01 1.00000E-45
9.35178E-01 1.00000E-45
9.37310E-01 1.00000E-45
9.39409E-01 1.00000E-45
9.41474E-01 1.00000E-45
9.43505E-01 1.00000E-45
9.45503E-01 1.00000E-45
9.47467E-01 1.00000E-45
9.49397E-01 1.00000E-45
9.51293E-01 1.00000E-45
9.53154E-01 1.00000E-45
9.54981E-01 1.00000E-45
9.56773E-01 1.00000E-45
9.58530E-01 1.00000E-45
9.60252E-01 1.00000E-45
9.61940E-01 1.00000E-45
9.63592E-01 1.00000E-45
9.65209E-01 1.00000E-45
9.66790E-01 1.00000E-45
9.68336E-01 1.00000E-45
9.69846E-01 1.00000E-45
9.71321E-01 1.00000E-45
9.72759E-01 1.00000E-45
9.74162E-01 1.00000E-45
9.75528E-01 1.00000E-45
9.76858E-01 1.00000E-45
9.78152E-01 1.00000E-45
9.79410E-01 1.00000E-45
9.80631E-01 1.00000E-45
9.81815E-01 1.00000E-45
9.82963E-01 1.00000E-45
9.84074E-01 1.00000E-45
9.85148E-01 1.00000E-45
9.86185E-01 1.00000E-45
9.87185E-01 1.00000E-45
9.88148E-01 1.00000E-45
9.89074E-01 1.00000E-45
9.89962E-01 1.00000E-45
9.90814E-01 1.00000E-45
9.91627E-01 1.00000E-45
9.92404E-01 1.00000E-45
9.93143E-01 1.00000E-45
9.93844E-01 1.00000E-45
9.94508E-01 1.00000E-45
9.95134E-01 1.00000E-45
9.95722E-01 1.00000E-45
9.96273E-01 1.00000E-45
9.96786E-01 1.00000E-45
9.97261E-01 1.00000E-45
9.97698E-01 1.00000E-45
9.98097E-01 1.00000E-45
9.98459E-01 1.00000E-45
9.98782E-01 1.00000E-45
9.99067E-01 1.00000E-45
9.99315E-01 1.00000E-45
9.99524E-01 1.00000E-45
9.99695E-01 1.00000E-45
9.99829E-01 1.00000E-45
9.99924E-01 1.00000E-45
9.99981E-01 1.00000E-45
1.00000E+00 1.00000E-45
