 #
 # Subroutine ELSEPA. Elastic scattering of electrons and positrons
 #                    by neutral atoms and positive ions
 #
 # Projectile: electron
 # Kinetic energy = 9.00000E+07 eV = 3.30744E+06 a.u.
 #
 # WARNING: High-energy factorization with free-atom DF screening.
 #          Absorption, polarization and exchange corrections are
 #          switched off.
 #          Phase shifts are calculated for the bare nucleus.
 #          Scattering amplitudes are not evaluated.
 #
 # Element: Li,  Z =   3,  atomic weight = 6.94100E+00 g/mol
 #
 # Nuclear model: Fermi distribution
 #                Average radius = 2.04107E-13 cm
 #                Skin thickness = 5.46000E-14 cm
 #
 # Number of electrons =  3
 #
 # Total elastic cross section = 1.07387E-19 cm**2 = 3.83484E-03 a0**2
 # 1st transport cross section = 2.51110E-27 cm**2 = 8.96729E-11 a0**2
 # 2nd transport cross section = 7.40595E-27 cm**2 = 2.64471E-10 a0**2
 #
 #
 # Differential cross section:                       MU=(1-COS(THETA))/2
 #
 #  THETA        MU          DCS          DCS        Sherman      error
 #  (deg)                 (cm**2/sr)   (a0**2/sr)    function
 #----------------------------------------------------------------------
0.00000E+00 3.38731E-11
7.61557E-13 3.36887E-11
1.18994E-12 3.35855E-11
1.71346E-12 3.34601E-11
2.33225E-12 3.33126E-11
3.04617E-12 3.31434E-11
3.85530E-12 3.29531E-11
4.75964E-12 3.27421E-11
5.75917E-12 3.25108E-11
6.85391E-12 3.22601E-11
8.04379E-12 3.19903E-11
9.32893E-12 3.17022E-11
1.07092E-11 3.13967E-11
1.21847E-11 3.10741E-11
1.37554E-11 3.07356E-11
1.54213E-11 3.03818E-11
1.71823E-11 3.00134E-11
1.90386E-11 2.96316E-11
2.09900E-11 2.92370E-11
2.30367E-11 2.88301E-11
2.51785E-11 2.84128E-11
2.74156E-11 2.79850E-11
2.97478E-11 2.75478E-11
3.21752E-11 2.71026E-11
3.46979E-11 2.66495E-11
3.73157E-11 2.61900E-11
4.00286E-11 2.57248E-11
4.28368E-11 2.52542E-11
4.57402E-11 2.47799E-11
4.87388E-11 2.43022E-11
5.18325E-11 2.38215E-11
5.50215E-11 2.33399E-11
5.83057E-11 2.28567E-11
6.16850E-11 2.23731E-11
6.51595E-11 2.18904E-11
6.87293E-11 2.14082E-11
7.23943E-11 2.09279E-11
7.61544E-11 2.04501E-11
1.18991E-10 1.59034E-11
1.71347E-10 1.20149E-11
2.33223E-10 8.97186E-12
3.04617E-10 6.58097E-12
3.85531E-10 4.86592E-12
4.75965E-10 3.61314E-12
5.75917E-10 2.69645E-12
6.85389E-10 2.06614E-12
8.04380E-10 1.59787E-12
9.32891E-10 1.25580E-12
1.07092E-09 1.00794E-12
1.21847E-09 8.18405E-13
1.37554E-09 6.75583E-13
1.54213E-09 5.65439E-13
1.71823E-09 4.78111E-13
1.90386E-09 4.09473E-13
2.09900E-09 3.53796E-13
2.30367E-09 3.08133E-13
2.51785E-09 2.70704E-13
2.74156E-09 2.39256E-13
2.97478E-09 2.12739E-13
3.21752E-09 1.90164E-13
3.46978E-09 1.70774E-13
3.73156E-09 1.54007E-13
4.00286E-09 1.39385E-13
4.28368E-09 1.26591E-13
4.57402E-09 1.15212E-13
4.87388E-09 1.05202E-13
5.18326E-09 9.63690E-14
5.50215E-09 8.84454E-14
5.83057E-09 8.13713E-14
6.16850E-09 7.50184E-14
6.51596E-09 6.92498E-14
6.87293E-09 6.40489E-14
7.23942E-09 5.93139E-14
7.61544E-09 5.49921E-14
1.18991E-08 2.75375E-14
1.71347E-08 1.50703E-14
2.33223E-08 8.81104E-15
3.04617E-08 5.43856E-15
3.85531E-08 3.51490E-15
4.75965E-08 2.36136E-15
5.75917E-08 1.63871E-15
6.85389E-08 1.17048E-15
8.04380E-08 8.56747E-16
9.32891E-08 6.40785E-16
1.07092E-07 4.88430E-16
1.21847E-07 3.78567E-16
1.37554E-07 2.97812E-16
1.54213E-07 2.37413E-16
1.71823E-07 1.91540E-16
1.90386E-07 1.56200E-16
2.09900E-07 1.28632E-16
2.30367E-07 1.06876E-16
2.51785E-07 8.95225E-17
2.74156E-07 7.55421E-17
2.97478E-07 6.41770E-17
3.21752E-07 5.48707E-17
3.46978E-07 4.71914E-17
3.73156E-07 4.08094E-17
4.00286E-07 3.54706E-17
4.28368E-07 3.09768E-17
4.57402E-07 2.71725E-17
4.87388E-07 2.39346E-17
5.18325E-07 2.11649E-17
5.50215E-07 1.87844E-17
5.83057E-07 1.67294E-17
6.16850E-07 1.49478E-17
6.51596E-07 1.33972E-17
6.87293E-07 1.20425E-17
7.23942E-07 1.08547E-17
7.61543E-07 9.80988E-18
1.18991E-06 4.01980E-18
1.71347E-06 1.93901E-18
2.33223E-06 1.04678E-18
3.04617E-06 6.13668E-19
3.85531E-06 3.83138E-19
4.75964E-06 2.51391E-19
5.75916E-06 1.71712E-19
6.85388E-06 1.21245E-19
8.04378E-06 8.80297E-20
9.32888E-06 6.54491E-20
1.07092E-05 4.96664E-20
1.21846E-05 3.83671E-20
1.37553E-05 3.01060E-20
1.54212E-05 2.39535E-20
1.71822E-05 1.92954E-20
1.90385E-05 1.57459E-20
2.09899E-05 1.29510E-20
2.30365E-05 1.07435E-20
2.51783E-05 8.98500E-21
2.74153E-05 7.57327E-21
2.97475E-05 6.43081E-21
3.21749E-05 5.49835E-21
3.46974E-05 4.73045E-21
3.73152E-05 4.09243E-21
4.00281E-05 3.55798E-21
4.28362E-05 3.10717E-21
4.57395E-05 2.72478E-21
4.87380E-05 2.39900E-21
5.18317E-05 2.12040E-21
5.50205E-05 1.88131E-21
5.83045E-05 1.67530E-21
6.16838E-05 1.49702E-21
6.51582E-05 1.34199E-21
6.87277E-05 1.20653E-21
7.23925E-05 1.08764E-21
7.61524E-05 9.82761E-22
9.21439E-05 6.70855E-22
1.09658E-04 4.73872E-22
1.28695E-04 3.43985E-22
1.49255E-04 2.55743E-22
1.71338E-04 1.94095E-22
1.94942E-04 1.49905E-22
2.20070E-04 1.17648E-22
2.46720E-04 9.35902E-23
2.74892E-04 7.53933E-23
3.04586E-04 6.14082E-23
3.35803E-04 5.05170E-23
3.68542E-04 4.19426E-23
4.02802E-04 3.51066E-23
4.38585E-04 2.96124E-23
4.75889E-04 2.51498E-23
5.14715E-04 2.14974E-23
5.55063E-04 1.84852E-23
5.96931E-04 1.59812E-23
6.40321E-04 1.38885E-23
6.85233E-04 1.21262E-23
7.31665E-04 1.06354E-23
7.79618E-04 9.36651E-24
8.29092E-04 8.28114E-24
8.80086E-04 7.34882E-24
9.32601E-04 6.54367E-24
9.86636E-04 5.84609E-24
1.04219E-03 5.23883E-24
1.09927E-03 4.70841E-24
1.15786E-03 4.24349E-24
1.21797E-03 3.83442E-24
1.27961E-03 3.47357E-24
1.34276E-03 3.15407E-24
1.40743E-03 2.87051E-24
1.47362E-03 2.61807E-24
1.54133E-03 2.39275E-24
1.61056E-03 2.19118E-24
1.68131E-03 2.01033E-24
1.75357E-03 1.84778E-24
1.82735E-03 1.70130E-24
1.90265E-03 1.56905E-24
1.97947E-03 1.44940E-24
2.05780E-03 1.34090E-24
2.13765E-03 1.24239E-24
2.21902E-03 1.15273E-24
2.30190E-03 1.07101E-24
2.38630E-03 9.96405E-25
2.47222E-03 9.28166E-25
2.55965E-03 8.65675E-25
2.64859E-03 8.08336E-25
2.73905E-03 7.55671E-25
2.83103E-03 7.07214E-25
2.92452E-03 6.62575E-25
3.01952E-03 6.21401E-25
3.11604E-03 5.83365E-25
3.21407E-03 5.48198E-25
3.31362E-03 5.15631E-25
3.41468E-03 4.85446E-25
3.51725E-03 4.57433E-25
3.62133E-03 4.31406E-25
3.72692E-03 4.07205E-25
3.83403E-03 3.84669E-25
3.94265E-03 3.63672E-25
4.05278E-03 3.44083E-25
4.16442E-03 3.25792E-25
4.27757E-03 3.08700E-25
4.39223E-03 2.92709E-25
4.50840E-03 2.77740E-25
4.62608E-03 2.63711E-25
4.74527E-03 2.50556E-25
4.86597E-03 2.38209E-25
4.98817E-03 2.26611E-25
5.11188E-03 2.15709E-25
5.23711E-03 2.05452E-25
5.36383E-03 1.95797E-25
5.49207E-03 1.86700E-25
5.62181E-03 1.78123E-25
5.75306E-03 1.70033E-25
5.88581E-03 1.62394E-25
6.02007E-03 1.55179E-25
6.15583E-03 1.48358E-25
6.29310E-03 1.41907E-25
6.43187E-03 1.35802E-25
6.57214E-03 1.30019E-25
6.71392E-03 1.24541E-25
6.85720E-03 1.19347E-25
7.00198E-03 1.14420E-25
7.14827E-03 1.09743E-25
7.29605E-03 1.05302E-25
7.44534E-03 1.01083E-25
7.59612E-03 9.70715E-26
7.97965E-03 8.78771E-26
8.37255E-03 7.97413E-26
8.77480E-03 7.25216E-26
9.18641E-03 6.60969E-26
9.60736E-03 6.03647E-26
1.00376E-02 5.52375E-26
1.04773E-02 5.06403E-26
1.09262E-02 4.65089E-26
1.13844E-02 4.27879E-26
1.18520E-02 3.94293E-26
1.23288E-02 3.63918E-26
1.28150E-02 3.36393E-26
1.33104E-02 3.11403E-26
1.38150E-02 2.88674E-26
1.43290E-02 2.67966E-26
1.48521E-02 2.49067E-26
1.53845E-02 2.31792E-26
1.59262E-02 2.15976E-26
1.64770E-02 2.01474E-26
1.70371E-02 1.88158E-26
1.76063E-02 1.75914E-26
1.81848E-02 1.64640E-26
1.87724E-02 1.54246E-26
1.93692E-02 1.44650E-26
1.99751E-02 1.35782E-26
2.05901E-02 1.27575E-26
2.12143E-02 1.19971E-26
2.18476E-02 1.12919E-26
2.24900E-02 1.06371E-26
2.31415E-02 1.00285E-26
2.38021E-02 9.46227E-27
2.44717E-02 8.93488E-27
2.51504E-02 8.44323E-27
2.58382E-02 7.98445E-27
2.65349E-02 7.55595E-27
2.72407E-02 7.15539E-27
2.79555E-02 6.78062E-27
2.86793E-02 6.42968E-27
2.94120E-02 6.10078E-27
3.01537E-02 5.79230E-27
3.09043E-02 5.50274E-27
3.16639E-02 5.23073E-27
3.24324E-02 4.97502E-27
3.32098E-02 4.73447E-27
3.39961E-02 4.50800E-27
3.47912E-02 4.29466E-27
3.55952E-02 4.09354E-27
3.64081E-02 3.90383E-27
3.72297E-02 3.72475E-27
3.80602E-02 3.55561E-27
3.88995E-02 3.39575E-27
3.97476E-02 3.24458E-27
4.06044E-02 3.10155E-27
4.14700E-02 2.96613E-27
4.23443E-02 2.83784E-27
4.32273E-02 2.71626E-27
4.41190E-02 2.60096E-27
4.50194E-02 2.49156E-27
4.59284E-02 2.38771E-27
4.68461E-02 2.28907E-27
4.87074E-02 2.10624E-27
5.06030E-02 1.94083E-27
5.25328E-02 1.79092E-27
5.44967E-02 1.65481E-27
5.64946E-02 1.53102E-27
5.85262E-02 1.41825E-27
6.05914E-02 1.31536E-27
6.26901E-02 1.22134E-27
6.48222E-02 1.13530E-27
6.69873E-02 1.05645E-27
6.91854E-02 9.84088E-28
7.14163E-02 9.17599E-28
7.36799E-02 8.56427E-28
7.59760E-02 8.00076E-28
7.83043E-02 7.48105E-28
8.06647E-02 7.00119E-28
8.30571E-02 6.55762E-28
8.54812E-02 6.14715E-28
8.79369E-02 5.76692E-28
9.04240E-02 5.41435E-28
9.29422E-02 5.08709E-28
9.54915E-02 4.78305E-28
9.80716E-02 4.50031E-28
1.00682E-01 4.23714E-28
1.03323E-01 3.99199E-28
1.05995E-01 3.76341E-28
1.08696E-01 3.55011E-28
1.11427E-01 3.35091E-28
1.14188E-01 3.16474E-28
1.16978E-01 2.99061E-28
1.19797E-01 2.82762E-28
1.22645E-01 2.67495E-28
1.25522E-01 2.53184E-28
1.28428E-01 2.39761E-28
1.31361E-01 2.27162E-28
1.34323E-01 2.15329E-28
1.37313E-01 2.04208E-28
1.40330E-01 1.93750E-28
1.43375E-01 1.83910E-28
1.46447E-01 1.74645E-28
1.49545E-01 1.65918E-28
1.52671E-01 1.57691E-28
1.55823E-01 1.49933E-28
1.59001E-01 1.42613E-28
1.62205E-01 1.35703E-28
1.65435E-01 1.29175E-28
1.68690E-01 1.23007E-28
1.71970E-01 1.17175E-28
1.75276E-01 1.11659E-28
1.78606E-01 1.06438E-28
1.81961E-01 1.01496E-28
1.85340E-01 9.68143E-29
1.88743E-01 9.23782E-29
1.92169E-01 8.81728E-29
1.95619E-01 8.41845E-29
1.99092E-01 8.04005E-29
2.02589E-01 7.68090E-29
2.06107E-01 7.33988E-29
2.09649E-01 7.01597E-29
2.13212E-01 6.70818E-29
2.16797E-01 6.41560E-29
2.20404E-01 6.13739E-29
2.24032E-01 5.87276E-29
2.27680E-01 5.62094E-29
2.31350E-01 5.38124E-29
2.35040E-01 5.15301E-29
2.38751E-01 4.93561E-29
2.42481E-01 4.72849E-29
2.46231E-01 4.53108E-29
2.50000E-01 4.34288E-29
2.53788E-01 4.16340E-29
2.57595E-01 3.99219E-29
2.61421E-01 3.82882E-29
2.65264E-01 3.67290E-29
2.69126E-01 3.52403E-29
2.73005E-01 3.38186E-29
2.76901E-01 3.24606E-29
2.80814E-01 3.11630E-29
2.84744E-01 2.99229E-29
2.88691E-01 2.87374E-29
2.92653E-01 2.76038E-29
2.96632E-01 2.65197E-29
3.00625E-01 2.54825E-29
3.04634E-01 2.44900E-29
3.08658E-01 2.35402E-29
3.12697E-01 2.26308E-29
3.16749E-01 2.17602E-29
3.20816E-01 2.09263E-29
3.24896E-01 2.01275E-29
3.28990E-01 1.93622E-29
3.33097E-01 1.86287E-29
3.37216E-01 1.79257E-29
3.41348E-01 1.72517E-29
3.45492E-01 1.66054E-29
3.49647E-01 1.59855E-29
3.53814E-01 1.53910E-29
3.57992E-01 1.48205E-29
3.62181E-01 1.42731E-29
3.66381E-01 1.37477E-29
3.70590E-01 1.32433E-29
3.74810E-01 1.27590E-29
3.79039E-01 1.22940E-29
3.83277E-01 1.18474E-29
3.87524E-01 1.14183E-29
3.91780E-01 1.10061E-29
3.96044E-01 1.06100E-29
4.00316E-01 1.02294E-29
4.04596E-01 9.86348E-30
4.08882E-01 9.51171E-30
4.13176E-01 9.17349E-30
4.17476E-01 8.84823E-30
4.21783E-01 8.53541E-30
4.26095E-01 8.23449E-30
4.30413E-01 7.94499E-30
4.34737E-01 7.66643E-30
4.39065E-01 7.39836E-30
4.43398E-01 7.14036E-30
4.47736E-01 6.89201E-30
4.52077E-01 6.65291E-30
4.56422E-01 6.42270E-30
4.60770E-01 6.20101E-30
4.65122E-01 5.98751E-30
4.69476E-01 5.78186E-30
4.73832E-01 5.58376E-30
4.78190E-01 5.39289E-30
4.82550E-01 5.20898E-30
4.86912E-01 5.03175E-30
4.91274E-01 4.86094E-30
4.95637E-01 4.69630E-30
5.00000E-01 4.53758E-30
5.04363E-01 4.38456E-30
5.08726E-01 4.23701E-30
5.13088E-01 4.09473E-30
5.17450E-01 3.95751E-30
5.21810E-01 3.82516E-30
5.26168E-01 3.69749E-30
5.30524E-01 3.57431E-30
5.34878E-01 3.45548E-30
5.39230E-01 3.34081E-30
5.43578E-01 3.23015E-30
5.47923E-01 3.12335E-30
5.52264E-01 3.02027E-30
5.56602E-01 2.92076E-30
5.60935E-01 2.82470E-30
5.65263E-01 2.73195E-30
5.69587E-01 2.64240E-30
5.73905E-01 2.55591E-30
5.78217E-01 2.47240E-30
5.82524E-01 2.39173E-30
5.86824E-01 2.31382E-30
5.91118E-01 2.23855E-30
5.95404E-01 2.16584E-30
5.99684E-01 2.09559E-30
6.03956E-01 2.02770E-30
6.08220E-01 1.96210E-30
6.12476E-01 1.89871E-30
6.16723E-01 1.83744E-30
6.20961E-01 1.77822E-30
6.25190E-01 1.72098E-30
6.29410E-01 1.66564E-30
6.33619E-01 1.61213E-30
6.37819E-01 1.56040E-30
6.42008E-01 1.51038E-30
6.46186E-01 1.46201E-30
6.50353E-01 1.41524E-30
6.54508E-01 1.37000E-30
6.58652E-01 1.32624E-30
6.62784E-01 1.28391E-30
6.66903E-01 1.24296E-30
6.71010E-01 1.20335E-30
6.75104E-01 1.16503E-30
6.79184E-01 1.12794E-30
6.83251E-01 1.09206E-30
6.87303E-01 1.05734E-30
6.91342E-01 1.02374E-30
6.95366E-01 9.91214E-31
6.99375E-01 9.59737E-31
7.03368E-01 9.29267E-31
7.07347E-01 8.99773E-31
7.11309E-01 8.71221E-31
7.15256E-01 8.43579E-31
7.19186E-01 8.16816E-31
7.23099E-01 7.90903E-31
7.26995E-01 7.65812E-31
7.30874E-01 7.41514E-31
7.34736E-01 7.17983E-31
7.38579E-01 6.95195E-31
7.42405E-01 6.73122E-31
7.46212E-01 6.51744E-31
7.50000E-01 6.31036E-31
7.53769E-01 6.10977E-31
7.57519E-01 5.91545E-31
7.61249E-01 5.72719E-31
7.64960E-01 5.54479E-31
7.68650E-01 5.36807E-31
7.72320E-01 5.19684E-31
7.75968E-01 5.03092E-31
7.79596E-01 4.87013E-31
7.83203E-01 4.71431E-31
7.86788E-01 4.56330E-31
7.90351E-01 4.41695E-31
7.93893E-01 4.27511E-31
7.97411E-01 4.13761E-31
8.00908E-01 4.00434E-31
8.04381E-01 3.87516E-31
8.07831E-01 3.74992E-31
8.11257E-01 3.62851E-31
8.14660E-01 3.51082E-31
8.18039E-01 3.39671E-31
8.21394E-01 3.28608E-31
8.24724E-01 3.17881E-31
8.28030E-01 3.07480E-31
8.31310E-01 2.97395E-31
8.34565E-01 2.87615E-31
8.37795E-01 2.78132E-31
8.40999E-01 2.68935E-31
8.44177E-01 2.60016E-31
8.47329E-01 2.51367E-31
8.50455E-01 2.42978E-31
8.53553E-01 2.34843E-31
8.56625E-01 2.26952E-31
8.59670E-01 2.19299E-31
8.62687E-01 2.11877E-31
8.65677E-01 2.04677E-31
8.68639E-01 1.97693E-31
8.71572E-01 1.90920E-31
8.74478E-01 1.84350E-31
8.77355E-01 1.77977E-31
8.80203E-01 1.71794E-31
8.83022E-01 1.65797E-31
8.85812E-01 1.59980E-31
8.88573E-01 1.54338E-31
8.91304E-01 1.48864E-31
8.94005E-01 1.43555E-31
8.96677E-01 1.38405E-31
8.99318E-01 1.33409E-31
9.01928E-01 1.28564E-31
9.04508E-01 1.23864E-31
9.07058E-01 1.19305E-31
9.09576E-01 1.14883E-31
9.12063E-01 1.10595E-31
9.14519E-01 1.06435E-31
9.16943E-01 1.02401E-31
9.19335E-01 9.84883E-32
9.21696E-01 9.46949E-32
9.24024E-01 9.10158E-32
9.26320E-01 8.74486E-32
9.28584E-01 8.39898E-32
9.30815E-01 8.06362E-32
9.33013E-01 7.73857E-32
9.35178E-01 7.42341E-32
9.37310E-01 7.11794E-32
9.39409E-01 6.82190E-32
9.41474E-01 6.53501E-32
9.43505E-01 6.25700E-32
9.45503E-01 5.98764E-32
9.47467E-01 5.72672E-32
9.49397E-01 5.47404E-32
9.51293E-01 5.22933E-32
9.53154E-01 4.99232E-32
9.54981E-01 4.76294E-32
9.56773E-01 4.54094E-32
9.58530E-01 4.32603E-32
9.60252E-01 4.11818E-32
9.61940E-01 3.91711E-32
9.63592E-01 3.72268E-32
9.65209E-01 3.53476E-32
9.66790E-01 3.35310E-32
9.68336E-01 3.17767E-32
9.69846E-01 3.00818E-32
9.71321E-01 2.84460E-32
9.72759E-01 2.68674E-32
9.74162E-01 2.53445E-32
9.75528E-01 2.38767E-32
9.76858E-01 2.24622E-32
9.78152E-01 2.11001E-32
9.79410E-01 1.97891E-32
9.80631E-01 1.85279E-32
9.81815E-01 1.73157E-32
9.82963E-01 1.61517E-32
9.84074E-01 1.50347E-32
9.85148E-01 1.39636E-32
9.86185E-01 1.29378E-32
9.87185E-01 1.19561E-32
9.88148E-01 1.10182E-32
9.89074E-01 1.01229E-32
9.89962E-01 9.26975E-33
9.90814E-01 8.45765E-33
9.91627E-01 7.68624E-33
9.92404E-01 6.95495E-33
9.93143E-01 6.26282E-33
9.93844E-01 5.60968E-33
9.94508E-01 4.99479E-33
9.95134E-01 4.41780E-33
9.95722E-01 3.87790E-33
9.96273E-01 3.37486E-33
9.96786E-01 2.90848E-33
9.97261E-01 2.47823E-33
9.97698E-01 2.08318E-33
9.98097E-01 1.72396E-33
9.98459E-01 1.39987E-33
9.98782E-01 1.11034E-33
9.99067E-01 8.55560E-34
9.99315E-01 6.35228E-34
9.99524E-01 4.48935E-34
9.99695E-01 2.96824E-34
9.99829E-01 1.78660E-34
9.99924E-01 9.43037E-35
9.99981E-01 4.37560E-35
1.00000E+00 2.70602E-35
