 #
 # Subroutine ELSEPA. Elastic scattering of electrons and positrons
 #                    by neutral atoms and positive ions
 #
 # Projectile: electron
 # Kinetic energy = 3.50000E+07 eV = 1.28623E+06 a.u.
 #
 # WARNING: High-energy factorization with free-atom DF screening.
 #          Absorption, polarization and exchange corrections are
 #          switched off.
 #          Phase shifts are calculated for the bare nucleus.
 #          Scattering amplitudes are not evaluated.
 #
 # Element: Li,  Z =   3,  atomic weight = 6.94100E+00 g/mol
 #
 # Nuclear model: Fermi distribution
 #                Average radius = 2.04107E-13 cm
 #                Skin thickness = 5.46000E-14 cm
 #
 # Number of electrons =  3
 #
 # Total elastic cross section = 1.07594E-19 cm**2 = 3.84224E-03 a0**2
 # 1st transport cross section = 1.51359E-26 cm**2 = 5.40513E-10 a0**2
 # 2nd transport cross section = 4.41116E-26 cm**2 = 1.57525E-09 a0**2
 #
 #
 # Differential cross section:                       MU=(1-COS(THETA))/2
 #
 #  THETA        MU          DCS          DCS        Sherman      error
 #  (deg)                 (cm**2/sr)   (a0**2/sr)    function
 #----------------------------------------------------------------------
0.00000E+00 5.21408E-12
7.61557E-13 5.20969E-12
1.18994E-12 5.20723E-12
1.71346E-12 5.20422E-12
2.33225E-12 5.20067E-12
3.04617E-12 5.19658E-12
3.85530E-12 5.19194E-12
4.75964E-12 5.18677E-12
5.75917E-12 5.18106E-12
6.85391E-12 5.17482E-12
8.04379E-12 5.16804E-12
9.32893E-12 5.16074E-12
1.07092E-11 5.15291E-12
1.21847E-11 5.14456E-12
1.37554E-11 5.13569E-12
1.54213E-11 5.12630E-12
1.71823E-11 5.11640E-12
1.90386E-11 5.10599E-12
2.09900E-11 5.09508E-12
2.30367E-11 5.08367E-12
2.51785E-11 5.07176E-12
2.74156E-11 5.05935E-12
2.97478E-11 5.04648E-12
3.21752E-11 5.03312E-12
3.46979E-11 5.01928E-12
3.73157E-11 5.00496E-12
4.00286E-11 4.99020E-12
4.28368E-11 4.97497E-12
4.57402E-11 4.95928E-12
4.87388E-11 4.94314E-12
5.18325E-11 4.92658E-12
5.50215E-11 4.90958E-12
5.83057E-11 4.89214E-12
6.16850E-11 4.87427E-12
6.51595E-11 4.85602E-12
6.87293E-11 4.83735E-12
7.23943E-11 4.81826E-12
7.61544E-11 4.79878E-12
1.18991E-10 4.58406E-12
1.71347E-10 4.33828E-12
2.33223E-10 4.06967E-12
3.04617E-10 3.78611E-12
3.85531E-10 3.49548E-12
4.75965E-10 3.20439E-12
5.75917E-10 2.91906E-12
6.85389E-10 2.64395E-12
8.04380E-10 2.38304E-12
9.32891E-10 2.13857E-12
1.07092E-09 1.91246E-12
1.21847E-09 1.70513E-12
1.37554E-09 1.52357E-12
1.54213E-09 1.35561E-12
1.71823E-09 1.20110E-12
1.90386E-09 1.05984E-12
2.09900E-09 9.44170E-13
2.30367E-09 8.39069E-13
2.51785E-09 7.43676E-13
2.74156E-09 6.57402E-13
2.97478E-09 5.87769E-13
3.21752E-09 5.24941E-13
3.46978E-09 4.68162E-13
3.73156E-09 4.16944E-13
4.00286E-09 3.75588E-13
4.28368E-09 3.38302E-13
4.57402E-09 3.04570E-13
4.87388E-09 2.74074E-13
5.18326E-09 2.49185E-13
5.50215E-09 2.26681E-13
5.83057E-09 2.06242E-13
6.16850E-09 1.87678E-13
6.51596E-09 1.72269E-13
6.87293E-09 1.58269E-13
7.23942E-09 1.45488E-13
7.61544E-09 1.33814E-13
1.18991E-08 6.68573E-14
1.71347E-08 3.89500E-14
2.33223E-08 2.50500E-14
3.04617E-08 1.71210E-14
3.85531E-08 1.22126E-14
4.75965E-08 8.97333E-15
5.75917E-08 6.72479E-15
6.85389E-08 5.13232E-15
8.04380E-08 3.97740E-15
9.32891E-08 3.12297E-15
1.07092E-07 2.47796E-15
1.21847E-07 1.98756E-15
1.37554E-07 1.60735E-15
1.54213E-07 1.31430E-15
1.71823E-07 1.08289E-15
1.90386E-07 8.98609E-16
2.09900E-07 7.51862E-16
2.30367E-07 6.32675E-16
2.51785E-07 5.35891E-16
2.74156E-07 4.56781E-16
2.97478E-07 3.91246E-16
3.21752E-07 3.37026E-16
3.46978E-07 2.91697E-16
3.73156E-07 2.53623E-16
4.00286E-07 2.21549E-16
4.28368E-07 1.94273E-16
4.57402E-07 1.71041E-16
4.87388E-07 1.51164E-16
5.18325E-07 1.34042E-16
5.50215E-07 1.19271E-16
5.83057E-07 1.06457E-16
6.16850E-07 9.53071E-17
6.51596E-07 8.55768E-17
6.87293E-07 7.70400E-17
7.23942E-07 6.95386E-17
7.61543E-07 6.29267E-17
1.18991E-06 2.59765E-17
1.71347E-06 1.25663E-17
2.33223E-06 6.78920E-18
3.04617E-06 3.98197E-18
3.85531E-06 2.48691E-18
4.75964E-06 1.63213E-18
5.75916E-06 1.11501E-18
6.85388E-06 7.87402E-19
8.04378E-06 5.71750E-19
9.32888E-06 4.25124E-19
1.07092E-05 3.22628E-19
1.21846E-05 2.49242E-19
1.37553E-05 1.95585E-19
1.54212E-05 1.55621E-19
1.71822E-05 1.25362E-19
1.90385E-05 1.02301E-19
2.09899E-05 8.41453E-20
2.30365E-05 6.98044E-20
2.51783E-05 5.83805E-20
2.74153E-05 4.92087E-20
2.97475E-05 4.17860E-20
3.21749E-05 3.57274E-20
3.46974E-05 3.07379E-20
3.73152E-05 2.65922E-20
4.00281E-05 2.31195E-20
4.28362E-05 2.01903E-20
4.57395E-05 1.77057E-20
4.87380E-05 1.55889E-20
5.18317E-05 1.37787E-20
5.50205E-05 1.22251E-20
5.83045E-05 1.08865E-20
6.16838E-05 9.72803E-21
6.51582E-05 8.72063E-21
6.87277E-05 7.84038E-21
7.23925E-05 7.06782E-21
7.61524E-05 6.38708E-21
9.21439E-05 4.36015E-21
1.09658E-04 3.07998E-21
1.28695E-04 2.23585E-21
1.49255E-04 1.66236E-21
1.71338E-04 1.26169E-21
1.94942E-04 9.74480E-22
2.20070E-04 7.64820E-22
2.46720E-04 6.08449E-22
2.74892E-04 4.90171E-22
3.04586E-04 3.99266E-22
3.35803E-04 3.28471E-22
3.68542E-04 2.72733E-22
4.02802E-04 2.28295E-22
4.38585E-04 1.92578E-22
4.75889E-04 1.63566E-22
5.14715E-04 1.39821E-22
5.55063E-04 1.20237E-22
5.96931E-04 1.03957E-22
6.40321E-04 9.03504E-23
6.85233E-04 7.88922E-23
7.31665E-04 6.91978E-23
7.79618E-04 6.09470E-23
8.29092E-04 5.38889E-23
8.80086E-04 4.78259E-23
9.32601E-04 4.25897E-23
9.86636E-04 3.80528E-23
1.04219E-03 3.41032E-23
1.09927E-03 3.06532E-23
1.15786E-03 2.76290E-23
1.21797E-03 2.49680E-23
1.27961E-03 2.26206E-23
1.34276E-03 2.05420E-23
1.40743E-03 1.86972E-23
1.47362E-03 1.70548E-23
1.54133E-03 1.55887E-23
1.61056E-03 1.42771E-23
1.68131E-03 1.31002E-23
1.75357E-03 1.20424E-23
1.82735E-03 1.10891E-23
1.90265E-03 1.02283E-23
1.97947E-03 9.44951E-24
2.05780E-03 8.74329E-24
2.13765E-03 8.10198E-24
2.21902E-03 7.51827E-24
2.30190E-03 6.98627E-24
2.38630E-03 6.50048E-24
2.47222E-03 6.05614E-24
2.55965E-03 5.64919E-24
2.64859E-03 5.27578E-24
2.73905E-03 4.93277E-24
2.83103E-03 4.61715E-24
2.92452E-03 4.32638E-24
3.01952E-03 4.05815E-24
3.11604E-03 3.81035E-24
3.21407E-03 3.58122E-24
3.31362E-03 3.36901E-24
3.41468E-03 3.17231E-24
3.51725E-03 2.98975E-24
3.62133E-03 2.82012E-24
3.72692E-03 2.66237E-24
3.83403E-03 2.51547E-24
3.94265E-03 2.37858E-24
4.05278E-03 2.25086E-24
4.16442E-03 2.13160E-24
4.27757E-03 2.02013E-24
4.39223E-03 1.91585E-24
4.50840E-03 1.81821E-24
4.62608E-03 1.72671E-24
4.74527E-03 1.64089E-24
4.86597E-03 1.56034E-24
4.98817E-03 1.48466E-24
5.11188E-03 1.41352E-24
5.23711E-03 1.34658E-24
5.36383E-03 1.28356E-24
5.49207E-03 1.22418E-24
5.62181E-03 1.16819E-24
5.75306E-03 1.11537E-24
5.88581E-03 1.06549E-24
6.02007E-03 1.01837E-24
6.15583E-03 9.73824E-25
6.29310E-03 9.31687E-25
6.43187E-03 8.91803E-25
6.57214E-03 8.54027E-25
6.71392E-03 8.18232E-25
6.85720E-03 7.84288E-25
7.00198E-03 7.52087E-25
7.14827E-03 7.21519E-25
7.29605E-03 6.92487E-25
7.44534E-03 6.64901E-25
7.59612E-03 6.38672E-25
7.97965E-03 5.78538E-25
8.37255E-03 5.25312E-25
8.77480E-03 4.78062E-25
9.18641E-03 4.36002E-25
9.60736E-03 3.98463E-25
1.00376E-02 3.64873E-25
1.04773E-02 3.34745E-25
1.09262E-02 3.07660E-25
1.13844E-02 2.83255E-25
1.18520E-02 2.61220E-25
1.23288E-02 2.41283E-25
1.28150E-02 2.23210E-25
1.33104E-02 2.06794E-25
1.38150E-02 1.91858E-25
1.43290E-02 1.78243E-25
1.48521E-02 1.65813E-25
1.53845E-02 1.54446E-25
1.59262E-02 1.44034E-25
1.64770E-02 1.34483E-25
1.70371E-02 1.25709E-25
1.76063E-02 1.17637E-25
1.81848E-02 1.10201E-25
1.87724E-02 1.03342E-25
1.93692E-02 9.70072E-26
1.99751E-02 9.11490E-26
2.05901E-02 8.57251E-26
2.12143E-02 8.06975E-26
2.18476E-02 7.60320E-26
2.24900E-02 7.16978E-26
2.31415E-02 6.76671E-26
2.38021E-02 6.39147E-26
2.44717E-02 6.04179E-26
2.51504E-02 5.71561E-26
2.58382E-02 5.41107E-26
2.65349E-02 5.12646E-26
2.72407E-02 4.86025E-26
2.79555E-02 4.61103E-26
2.86793E-02 4.37750E-26
2.94120E-02 4.15851E-26
3.01537E-02 3.95299E-26
3.09043E-02 3.75994E-26
3.16639E-02 3.57848E-26
3.24324E-02 3.40779E-26
3.32098E-02 3.24709E-26
3.39961E-02 3.09572E-26
3.47912E-02 2.95301E-26
3.55952E-02 2.81839E-26
3.64081E-02 2.69130E-26
3.72297E-02 2.57126E-26
3.80602E-02 2.45780E-26
3.88995E-02 2.35049E-26
3.97476E-02 2.24894E-26
4.06044E-02 2.15278E-26
4.14700E-02 2.06167E-26
4.23443E-02 1.97530E-26
4.32273E-02 1.89337E-26
4.41190E-02 1.81561E-26
4.50194E-02 1.74178E-26
4.59284E-02 1.67164E-26
4.68461E-02 1.60496E-26
4.87074E-02 1.48122E-26
5.06030E-02 1.36909E-26
5.25328E-02 1.26728E-26
5.44967E-02 1.17469E-26
5.64946E-02 1.09033E-26
5.85262E-02 1.01334E-26
6.05914E-02 9.42964E-27
6.26901E-02 8.78534E-27
6.48222E-02 8.19458E-27
6.69873E-02 7.65214E-27
6.91854E-02 7.15336E-27
7.14163E-02 6.69411E-27
7.36799E-02 6.27070E-27
7.59760E-02 5.87984E-27
7.83043E-02 5.51858E-27
8.06647E-02 5.18429E-27
8.30571E-02 4.87460E-27
8.54812E-02 4.58737E-27
8.79369E-02 4.32068E-27
9.04240E-02 4.07282E-27
9.29422E-02 3.84220E-27
9.54915E-02 3.62743E-27
9.80716E-02 3.42721E-27
1.00682E-01 3.24039E-27
1.03323E-01 3.06591E-27
1.05995E-01 2.90281E-27
1.08696E-01 2.75022E-27
1.11427E-01 2.60734E-27
1.14188E-01 2.47344E-27
1.16978E-01 2.34786E-27
1.19797E-01 2.22999E-27
1.22645E-01 2.11927E-27
1.25522E-01 2.01519E-27
1.28428E-01 1.91728E-27
1.31361E-01 1.82512E-27
1.34323E-01 1.73830E-27
1.37313E-01 1.65646E-27
1.40330E-01 1.57927E-27
1.43375E-01 1.50641E-27
1.46447E-01 1.43759E-27
1.49545E-01 1.37256E-27
1.52671E-01 1.31107E-27
1.55823E-01 1.25290E-27
1.59001E-01 1.19782E-27
1.62205E-01 1.14565E-27
1.65435E-01 1.09621E-27
1.68690E-01 1.04933E-27
1.71970E-01 1.00485E-27
1.75276E-01 9.62635E-28
1.78606E-01 9.22541E-28
1.81961E-01 8.84446E-28
1.85340E-01 8.48233E-28
1.88743E-01 8.13792E-28
1.92169E-01 7.81022E-28
1.95619E-01 7.49827E-28
1.99092E-01 7.20119E-28
2.02589E-01 6.91814E-28
2.06107E-01 6.64835E-28
2.09649E-01 6.39108E-28
2.13212E-01 6.14566E-28
2.16797E-01 5.91145E-28
2.20404E-01 5.68784E-28
2.24032E-01 5.47428E-28
2.27680E-01 5.27023E-28
2.31350E-01 5.07520E-28
2.35040E-01 4.88871E-28
2.38751E-01 4.71034E-28
2.42481E-01 4.53967E-28
2.46231E-01 4.37631E-28
2.50000E-01 4.21989E-28
2.53788E-01 4.07007E-28
2.57595E-01 3.92652E-28
2.61421E-01 3.78893E-28
2.65264E-01 3.65702E-28
2.69126E-01 3.53051E-28
2.73005E-01 3.40915E-28
2.76901E-01 3.29268E-28
2.80814E-01 3.18088E-28
2.84744E-01 3.07353E-28
2.88691E-01 2.97042E-28
2.92653E-01 2.87136E-28
2.96632E-01 2.77616E-28
3.00625E-01 2.68465E-28
3.04634E-01 2.59666E-28
3.08658E-01 2.51203E-28
3.12697E-01 2.43061E-28
3.16749E-01 2.35226E-28
3.20816E-01 2.27684E-28
3.24896E-01 2.20423E-28
3.28990E-01 2.13431E-28
3.33097E-01 2.06696E-28
3.37216E-01 2.00207E-28
3.41348E-01 1.93953E-28
3.45492E-01 1.87925E-28
3.49647E-01 1.82113E-28
3.53814E-01 1.76508E-28
3.57992E-01 1.71102E-28
3.62181E-01 1.65886E-28
3.66381E-01 1.60853E-28
3.70590E-01 1.55995E-28
3.74810E-01 1.51305E-28
3.79039E-01 1.46776E-28
3.83277E-01 1.42403E-28
3.87524E-01 1.38178E-28
3.91780E-01 1.34096E-28
3.96044E-01 1.30151E-28
4.00316E-01 1.26339E-28
4.04596E-01 1.22653E-28
4.08882E-01 1.19089E-28
4.13176E-01 1.15643E-28
4.17476E-01 1.12310E-28
4.21783E-01 1.09085E-28
4.26095E-01 1.05964E-28
4.30413E-01 1.02945E-28
4.34737E-01 1.00022E-28
4.39065E-01 9.71921E-29
4.43398E-01 9.44523E-29
4.47736E-01 9.17991E-29
4.52077E-01 8.92292E-29
4.56422E-01 8.67398E-29
4.60770E-01 8.43278E-29
4.65122E-01 8.19906E-29
4.69476E-01 7.97254E-29
4.73832E-01 7.75297E-29
4.78190E-01 7.54010E-29
4.82550E-01 7.33371E-29
4.86912E-01 7.13356E-29
4.91274E-01 6.93944E-29
4.95637E-01 6.75113E-29
5.00000E-01 6.56845E-29
5.04363E-01 6.39119E-29
5.08726E-01 6.21918E-29
5.13088E-01 6.05223E-29
5.17450E-01 5.89017E-29
5.21810E-01 5.73285E-29
5.26168E-01 5.58010E-29
5.30524E-01 5.43176E-29
5.34878E-01 5.28771E-29
5.39230E-01 5.14778E-29
5.43578E-01 5.01186E-29
5.47923E-01 4.87980E-29
5.52264E-01 4.75149E-29
5.56602E-01 4.62679E-29
5.60935E-01 4.50561E-29
5.65263E-01 4.38781E-29
5.69587E-01 4.27331E-29
5.73905E-01 4.16198E-29
5.78217E-01 4.05374E-29
5.82524E-01 3.94848E-29
5.86824E-01 3.84611E-29
5.91118E-01 3.74654E-29
5.95404E-01 3.64968E-29
5.99684E-01 3.55546E-29
6.03956E-01 3.46379E-29
6.08220E-01 3.37458E-29
6.12476E-01 3.28777E-29
6.16723E-01 3.20329E-29
6.20961E-01 3.12106E-29
6.25190E-01 3.04102E-29
6.29410E-01 2.96309E-29
6.33619E-01 2.88722E-29
6.37819E-01 2.81335E-29
6.42008E-01 2.74142E-29
6.46186E-01 2.67136E-29
6.50353E-01 2.60313E-29
6.54508E-01 2.53667E-29
6.58652E-01 2.47194E-29
6.62784E-01 2.40886E-29
6.66903E-01 2.34742E-29
6.71010E-01 2.28755E-29
6.75104E-01 2.22920E-29
6.79184E-01 2.17235E-29
6.83251E-01 2.11693E-29
6.87303E-01 2.06293E-29
6.91342E-01 2.01028E-29
6.95366E-01 1.95896E-29
6.99375E-01 1.90893E-29
7.03368E-01 1.86015E-29
7.07347E-01 1.81259E-29
7.11309E-01 1.76622E-29
7.15256E-01 1.72099E-29
7.19186E-01 1.67689E-29
7.23099E-01 1.63388E-29
7.26995E-01 1.59192E-29
7.30874E-01 1.55100E-29
7.34736E-01 1.51108E-29
7.38579E-01 1.47213E-29
7.42405E-01 1.43414E-29
7.46212E-01 1.39707E-29
7.50000E-01 1.36090E-29
7.53769E-01 1.32561E-29
7.57519E-01 1.29117E-29
7.61249E-01 1.25756E-29
7.64960E-01 1.22476E-29
7.68650E-01 1.19275E-29
7.72320E-01 1.16151E-29
7.75968E-01 1.13101E-29
7.79596E-01 1.10125E-29
7.83203E-01 1.07219E-29
7.86788E-01 1.04382E-29
7.90351E-01 1.01613E-29
7.93893E-01 9.89094E-30
7.97411E-01 9.62698E-30
8.00908E-01 9.36926E-30
8.04381E-01 9.11765E-30
8.07831E-01 8.87195E-30
8.11257E-01 8.63203E-30
8.14660E-01 8.39777E-30
8.18039E-01 8.16901E-30
8.21394E-01 7.94561E-30
8.24724E-01 7.72745E-30
8.28030E-01 7.51439E-30
8.31310E-01 7.30633E-30
8.34565E-01 7.10312E-30
8.37795E-01 6.90467E-30
8.40999E-01 6.71084E-30
8.44177E-01 6.52153E-30
8.47329E-01 6.33665E-30
8.50455E-01 6.15607E-30
8.53553E-01 5.97970E-30
8.56625E-01 5.80745E-30
8.59670E-01 5.63920E-30
8.62687E-01 5.47489E-30
8.65677E-01 5.31440E-30
8.68639E-01 5.15764E-30
8.71572E-01 5.00455E-30
8.74478E-01 4.85504E-30
8.77355E-01 4.70902E-30
8.80203E-01 4.56640E-30
8.83022E-01 4.42713E-30
8.85812E-01 4.29111E-30
8.88573E-01 4.15829E-30
8.91304E-01 4.02859E-30
8.94005E-01 3.90194E-30
8.96677E-01 3.77827E-30
8.99318E-01 3.65753E-30
9.01928E-01 3.53965E-30
9.04508E-01 3.42455E-30
9.07058E-01 3.31220E-30
9.09576E-01 3.20253E-30
9.12063E-01 3.09548E-30
9.14519E-01 2.99098E-30
9.16943E-01 2.88902E-30
9.19335E-01 2.78951E-30
9.21696E-01 2.69242E-30
9.24024E-01 2.59769E-30
9.26320E-01 2.50527E-30
9.28584E-01 2.41513E-30
9.30815E-01 2.32720E-30
9.33013E-01 2.24147E-30
9.35178E-01 2.15787E-30
9.37310E-01 2.07636E-30
9.39409E-01 1.99691E-30
9.41474E-01 1.91949E-30
9.43505E-01 1.84404E-30
9.45503E-01 1.77053E-30
9.47467E-01 1.69893E-30
9.49397E-01 1.62921E-30
9.51293E-01 1.56134E-30
9.53154E-01 1.49525E-30
9.54981E-01 1.43096E-30
9.56773E-01 1.36841E-30
9.58530E-01 1.30756E-30
9.60252E-01 1.24841E-30
9.61940E-01 1.19091E-30
9.63592E-01 1.13504E-30
9.65209E-01 1.08078E-30
9.66790E-01 1.02809E-30
9.68336E-01 9.76963E-31
9.69846E-01 9.27358E-31
9.71321E-01 8.79265E-31
9.72759E-01 8.32654E-31
9.74162E-01 7.87501E-31
9.75528E-01 7.43796E-31
9.76858E-01 7.01509E-31
9.78152E-01 6.60625E-31
9.79410E-01 6.21124E-31
9.80631E-01 5.82985E-31
9.81815E-01 5.46192E-31
9.82963E-01 5.10733E-31
9.84074E-01 4.76588E-31
9.85148E-01 4.43738E-31
9.86185E-01 4.12173E-31
9.87185E-01 3.81874E-31
9.88148E-01 3.52833E-31
9.89074E-01 3.25032E-31
9.89962E-01 2.98462E-31
9.90814E-01 2.73106E-31
9.91627E-01 2.48957E-31
9.92404E-01 2.26003E-31
9.93143E-01 2.04231E-31
9.93844E-01 1.83636E-31
9.94508E-01 1.64206E-31
9.95134E-01 1.45933E-31
9.95722E-01 1.28806E-31
9.96273E-01 1.12820E-31
9.96786E-01 9.79695E-32
9.97261E-01 8.42463E-32
9.97698E-01 7.16363E-32
9.98097E-01 6.01487E-32
9.98459E-01 4.97694E-32
9.98782E-01 4.04923E-32
9.99067E-01 3.23181E-32
9.99315E-01 2.52420E-32
9.99524E-01 1.92570E-32
9.99695E-01 1.43661E-32
9.99829E-01 1.05643E-32
9.99924E-01 7.85034E-33
9.99981E-01 6.22230E-33
1.00000E+00 5.68565E-33
