 #
 # Subroutine ELSEPA. Elastic scattering of electrons and positrons
 #                    by neutral atoms and positive ions
 #
 # Projectile: electron
 # Kinetic energy = 1.75000E+08 eV = 6.43113E+06 a.u.
 #
 # WARNING: High-energy factorization with free-atom DF screening.
 #          Absorption, polarization and exchange corrections are
 #          switched off.
 #          Phase shifts are calculated for the bare nucleus.
 #          Scattering amplitudes are not evaluated.
 #
 # Element: Li,  Z =   3,  atomic weight = 6.94100E+00 g/mol
 #
 # Nuclear model: Fermi distribution
 #                Average radius = 2.04107E-13 cm
 #                Skin thickness = 5.46000E-14 cm
 #
 # Number of electrons =  3
 #
 # Total elastic cross section = 1.07462E-19 cm**2 = 3.83753E-03 a0**2
 # 1st transport cross section = 6.81387E-28 cm**2 = 2.43328E-11 a0**2
 # 2nd transport cross section = 2.03008E-27 cm**2 = 7.24953E-11 a0**2
 #
 #
 # Differential cross section:                       MU=(1-COS(THETA))/2
 #
 #  THETA        MU          DCS          DCS        Sherman      error
 #  (deg)                 (cm**2/sr)   (a0**2/sr)    function
 #----------------------------------------------------------------------
0.00000E+00 1.27368E-10
7.61557E-13 1.24787E-10
1.18994E-12 1.23365E-10
1.71346E-12 1.21656E-10
2.33225E-12 1.19675E-10
3.04617E-12 1.17442E-10
3.85530E-12 1.14976E-10
4.75964E-12 1.12300E-10
5.75917E-12 1.09435E-10
6.85391E-12 1.06406E-10
8.04379E-12 1.03237E-10
9.32893E-12 9.99526E-11
1.07092E-11 9.65759E-11
1.21847E-11 9.31294E-11
1.37554E-11 8.96353E-11
1.54213E-11 8.61183E-11
1.71823E-11 8.25953E-11
1.90386E-11 7.90845E-11
2.09900E-11 7.56028E-11
2.30367E-11 7.21684E-11
2.51785E-11 6.87937E-11
2.74156E-11 6.54892E-11
2.97478E-11 6.22651E-11
3.21752E-11 5.91322E-11
3.46979E-11 5.60985E-11
3.73157E-11 5.31672E-11
4.00286E-11 5.03425E-11
4.28368E-11 4.76282E-11
4.57402E-11 4.50297E-11
4.87388E-11 4.25439E-11
5.18325E-11 4.02320E-11
5.50215E-11 3.80515E-11
5.83057E-11 3.59507E-11
6.16850E-11 3.39304E-11
6.51595E-11 3.19905E-11
6.87293E-11 3.01309E-11
7.23943E-11 2.83507E-11
7.61544E-11 2.66492E-11
1.18991E-10 1.48245E-11
1.71347E-10 8.56561E-12
2.33223E-10 5.23171E-12
3.04617E-10 3.39576E-12
3.85531E-10 2.33790E-12
4.75965E-10 1.69081E-12
5.75917E-10 1.27015E-12
6.85389E-10 9.83862E-13
8.04380E-10 7.81067E-13
9.32891E-10 6.32222E-13
1.07092E-09 5.19669E-13
1.21847E-09 4.32171E-13
1.37554E-09 3.63450E-13
1.54213E-09 3.08402E-13
1.71823E-09 2.63631E-13
1.90386E-09 2.26733E-13
2.09900E-09 1.96010E-13
2.30367E-09 1.70176E-13
2.51785E-09 1.48385E-13
2.74156E-09 1.29946E-13
2.97478E-09 1.14262E-13
3.21752E-09 1.00827E-13
3.46978E-09 8.92413E-14
3.73156E-09 7.92209E-14
4.00286E-09 7.05184E-14
4.28368E-09 6.29353E-14
4.57402E-09 5.63024E-14
4.87388E-09 5.05025E-14
5.18326E-09 4.53715E-14
5.50215E-09 4.08678E-14
5.83057E-09 3.69419E-14
6.16850E-09 3.34585E-14
6.51596E-09 3.03205E-14
6.87293E-09 2.75589E-14
7.23942E-09 2.51126E-14
7.61544E-09 2.28903E-14
1.18991E-08 9.98213E-15
1.71347E-08 4.96127E-15
2.33223E-08 2.72009E-15
3.04617E-08 1.60831E-15
3.85531E-08 1.00915E-15
4.75965E-08 6.64143E-16
5.75917E-08 4.54507E-16
6.85389E-08 3.21331E-16
8.04380E-08 2.33428E-16
9.32891E-08 1.73613E-16
1.07092E-07 1.31785E-16
1.21847E-07 1.01827E-16
1.37554E-07 7.99168E-17
1.54213E-07 6.35948E-17
1.71823E-07 5.12345E-17
1.90386E-07 4.17363E-17
2.09900E-07 3.43404E-17
2.30367E-07 2.85124E-17
2.51785E-07 2.38698E-17
2.74156E-07 2.01349E-17
2.97478E-07 1.71026E-17
3.21752E-07 1.46202E-17
3.46978E-07 1.25723E-17
3.73156E-07 1.08707E-17
4.00286E-07 9.44751E-18
4.28368E-07 8.24975E-18
4.57402E-07 7.23593E-18
4.87388E-07 6.37316E-18
5.18325E-07 5.63523E-18
5.50215E-07 5.00108E-18
5.83057E-07 4.45367E-18
6.16850E-07 3.97915E-18
6.51596E-07 3.56617E-18
6.87293E-07 3.20541E-18
7.23942E-07 2.88913E-18
7.61543E-07 2.61092E-18
1.18991E-06 1.06956E-18
1.71347E-06 5.15837E-19
2.33223E-06 2.78450E-19
3.04617E-06 1.63228E-19
3.85531E-06 1.01906E-19
4.75964E-06 6.68623E-20
5.75916E-06 4.56689E-20
6.85388E-06 3.22460E-20
8.04378E-06 2.34119E-20
9.32888E-06 1.74063E-20
1.07092E-05 1.32087E-20
1.21846E-05 1.02036E-20
1.37553E-05 8.00658E-21
1.54212E-05 6.37031E-21
1.71822E-05 5.13149E-21
1.90385E-05 4.18752E-21
2.09899E-05 3.44423E-21
2.30365E-05 2.85714E-21
2.51783E-05 2.38948E-21
2.74153E-05 2.01403E-21
2.97475E-05 1.71020E-21
3.21749E-05 1.46222E-21
3.46974E-05 1.25801E-21
3.73152E-05 1.08833E-21
4.00281E-05 9.46203E-22
4.28362E-05 8.26315E-22
4.57395E-05 7.24623E-22
4.87380E-05 6.37983E-22
5.18317E-05 5.63894E-22
5.50205E-05 5.00308E-22
5.83045E-05 4.45523E-22
6.16838E-05 3.98112E-22
6.51582E-05 3.56884E-22
6.87277E-05 3.20860E-22
7.23925E-05 2.89243E-22
7.61524E-05 2.61249E-22
9.21439E-05 1.78319E-22
1.09658E-04 1.25948E-22
1.28695E-04 9.14166E-23
1.49255E-04 6.79584E-23
1.71338E-04 5.15708E-23
1.94942E-04 3.98247E-23
2.20070E-04 3.12511E-23
2.46720E-04 2.48570E-23
2.74892E-04 2.00211E-23
3.04586E-04 1.63047E-23
3.35803E-04 1.34108E-23
3.68542E-04 1.11326E-23
4.02802E-04 9.31652E-24
4.38585E-04 7.85703E-24
4.75889E-04 6.67165E-24
5.14715E-04 5.70161E-24
5.55063E-04 4.90167E-24
5.96931E-04 4.23678E-24
6.40321E-04 3.68113E-24
6.85233E-04 3.21330E-24
7.31665E-04 2.81755E-24
7.79618E-04 2.48079E-24
8.29092E-04 2.19275E-24
8.80086E-04 1.94537E-24
9.32601E-04 1.73176E-24
9.86636E-04 1.54671E-24
1.04219E-03 1.38564E-24
1.09927E-03 1.24498E-24
1.15786E-03 1.12170E-24
1.21797E-03 1.01325E-24
1.27961E-03 9.17604E-25
1.34276E-03 8.32927E-25
1.40743E-03 7.57788E-25
1.47362E-03 6.90910E-25
1.54133E-03 6.31222E-25
1.61056E-03 5.77839E-25
1.68131E-03 5.29950E-25
1.75357E-03 4.86918E-25
1.82735E-03 4.48146E-25
1.90265E-03 4.13145E-25
1.97947E-03 3.81487E-25
2.05780E-03 3.52787E-25
2.13765E-03 3.26732E-25
2.21902E-03 3.03024E-25
2.30190E-03 2.81422E-25
2.38630E-03 2.61702E-25
2.47222E-03 2.43670E-25
2.55965E-03 2.27161E-25
2.64859E-03 2.12016E-25
2.73905E-03 1.98109E-25
2.83103E-03 1.85317E-25
2.92452E-03 1.73535E-25
3.01952E-03 1.62670E-25
3.11604E-03 1.52636E-25
3.21407E-03 1.43362E-25
3.31362E-03 1.34775E-25
3.41468E-03 1.26818E-25
3.51725E-03 1.19436E-25
3.62133E-03 1.12580E-25
3.72692E-03 1.06205E-25
3.83403E-03 1.00272E-25
3.94265E-03 9.47447E-26
4.05278E-03 8.95898E-26
4.16442E-03 8.47781E-26
4.27757E-03 8.02828E-26
4.39223E-03 7.60786E-26
4.50840E-03 7.21443E-26
4.62608E-03 6.84583E-26
4.74527E-03 6.50030E-26
4.86597E-03 6.17608E-26
4.98817E-03 5.87163E-26
5.11188E-03 5.58555E-26
5.23711E-03 5.31648E-26
5.36383E-03 5.06328E-26
5.49207E-03 4.82480E-26
5.62181E-03 4.60005E-26
5.75306E-03 4.38811E-26
5.88581E-03 4.18808E-26
6.02007E-03 3.99920E-26
6.15583E-03 3.82072E-26
6.29310E-03 3.65197E-26
6.43187E-03 3.49232E-26
6.57214E-03 3.34118E-26
6.71392E-03 3.19804E-26
6.85720E-03 3.06237E-26
7.00198E-03 2.93373E-26
7.14827E-03 2.81168E-26
7.29605E-03 2.69582E-26
7.44534E-03 2.58579E-26
7.59612E-03 2.48123E-26
7.97965E-03 2.24172E-26
8.37255E-03 2.03002E-26
8.77480E-03 1.84236E-26
9.18641E-03 1.67555E-26
9.60736E-03 1.52689E-26
1.00376E-02 1.39408E-26
1.04773E-02 1.27513E-26
1.09262E-02 1.16837E-26
1.13844E-02 1.07233E-26
1.18520E-02 9.85760E-27
1.23288E-02 9.07566E-27
1.28150E-02 8.36802E-27
1.33104E-02 7.72645E-27
1.38150E-02 7.14374E-27
1.43290E-02 6.61359E-27
1.48521E-02 6.13046E-27
1.53845E-02 5.68948E-27
1.59262E-02 5.28637E-27
1.64770E-02 4.91732E-27
1.70371E-02 4.57898E-27
1.76063E-02 4.26837E-27
1.81848E-02 3.98283E-27
1.87724E-02 3.72002E-27
1.93692E-02 3.47781E-27
1.99751E-02 3.25432E-27
2.05901E-02 3.04788E-27
2.12143E-02 2.85695E-27
2.18476E-02 2.68020E-27
2.24900E-02 2.51638E-27
2.31415E-02 2.36441E-27
2.38021E-02 2.22327E-27
2.44717E-02 2.09208E-27
2.51504E-02 1.97002E-27
2.58382E-02 1.85634E-27
2.65349E-02 1.75039E-27
2.72407E-02 1.65155E-27
2.79555E-02 1.55926E-27
2.86793E-02 1.47303E-27
2.94120E-02 1.39238E-27
3.01537E-02 1.31691E-27
3.09043E-02 1.24623E-27
3.16639E-02 1.17998E-27
3.24324E-02 1.11784E-27
3.32098E-02 1.05952E-27
3.39961E-02 1.00474E-27
3.47912E-02 9.53267E-28
3.55952E-02 9.04856E-28
3.64081E-02 8.59302E-28
3.72297E-02 8.16409E-28
3.80602E-02 7.75998E-28
3.88995E-02 7.37903E-28
3.97476E-02 7.01972E-28
4.06044E-02 6.68063E-28
4.14700E-02 6.36045E-28
4.23443E-02 6.05796E-28
4.32273E-02 5.77204E-28
4.41190E-02 5.50165E-28
4.50194E-02 5.24582E-28
4.59284E-02 5.00364E-28
4.68461E-02 4.77429E-28
4.87074E-02 4.35099E-28
5.06030E-02 3.97032E-28
5.25328E-02 3.62740E-28
5.44967E-02 3.31798E-28
5.64946E-02 3.03835E-28
5.85262E-02 2.78528E-28
6.05914E-02 2.55591E-28
6.26901E-02 2.34773E-28
6.48222E-02 2.15854E-28
6.69873E-02 1.98640E-28
6.91854E-02 1.82956E-28
7.14163E-02 1.68652E-28
7.36799E-02 1.55590E-28
7.59760E-02 1.43649E-28
7.83043E-02 1.32723E-28
8.06647E-02 1.22715E-28
8.30571E-02 1.13538E-28
8.54812E-02 1.05117E-28
8.79369E-02 9.73821E-29
9.04240E-02 9.02708E-29
9.29422E-02 8.37278E-29
9.54915E-02 7.77027E-29
9.80716E-02 7.21503E-29
1.00682E-01 6.70297E-29
1.03323E-01 6.23038E-29
1.05995E-01 5.79393E-29
1.08696E-01 5.39057E-29
1.11427E-01 5.01756E-29
1.14188E-01 4.67240E-29
1.16978E-01 4.35281E-29
1.19797E-01 4.05672E-29
1.22645E-01 3.78226E-29
1.25522E-01 3.52770E-29
1.28428E-01 3.29148E-29
1.31361E-01 3.07216E-29
1.34323E-01 2.86843E-29
1.37313E-01 2.67909E-29
1.40330E-01 2.50305E-29
1.43375E-01 2.33930E-29
1.46447E-01 2.18691E-29
1.49545E-01 2.04503E-29
1.52671E-01 1.91290E-29
1.55823E-01 1.78978E-29
1.59001E-01 1.67502E-29
1.62205E-01 1.56802E-29
1.65435E-01 1.46821E-29
1.68690E-01 1.37507E-29
1.71970E-01 1.28814E-29
1.75276E-01 1.20697E-29
1.78606E-01 1.13116E-29
1.81961E-01 1.06033E-29
1.85340E-01 9.94133E-30
1.88743E-01 9.32251E-30
1.92169E-01 8.74385E-30
1.95619E-01 8.20260E-30
1.99092E-01 7.69621E-30
2.02589E-01 7.22232E-30
2.06107E-01 6.77873E-30
2.09649E-01 6.36341E-30
2.13212E-01 5.97446E-30
2.16797E-01 5.61013E-30
2.20404E-01 5.26878E-30
2.24032E-01 4.94891E-30
2.27680E-01 4.64909E-30
2.31350E-01 4.36801E-30
2.35040E-01 4.10445E-30
2.38751E-01 3.85728E-30
2.42481E-01 3.62543E-30
2.46231E-01 3.40792E-30
2.50000E-01 3.20382E-30
2.53788E-01 3.01228E-30
2.57595E-01 2.83249E-30
2.61421E-01 2.66370E-30
2.65264E-01 2.50523E-30
2.69126E-01 2.35641E-30
2.73005E-01 2.21664E-30
2.76901E-01 2.08535E-30
2.80814E-01 1.96201E-30
2.84744E-01 1.84613E-30
2.88691E-01 1.73723E-30
2.92653E-01 1.63489E-30
2.96632E-01 1.53870E-30
3.00625E-01 1.44828E-30
3.04634E-01 1.36327E-30
3.08658E-01 1.28335E-30
3.12697E-01 1.20819E-30
3.16749E-01 1.13751E-30
3.20816E-01 1.07103E-30
3.24896E-01 1.00850E-30
3.28990E-01 9.49685E-31
3.33097E-01 8.94348E-31
3.37216E-01 8.42285E-31
3.41348E-01 7.93296E-31
3.45492E-01 7.47196E-31
3.49647E-01 7.03811E-31
3.53814E-01 6.62980E-31
3.57992E-01 6.24547E-31
3.62181E-01 5.88370E-31
3.66381E-01 5.54314E-31
3.70590E-01 5.22252E-31
3.74810E-01 4.92065E-31
3.79039E-01 4.63643E-31
3.83277E-01 4.36879E-31
3.87524E-01 4.11677E-31
3.91780E-01 3.87942E-31
3.96044E-01 3.65589E-31
4.00316E-01 3.44536E-31
4.04596E-01 3.24706E-31
4.08882E-01 3.06028E-31
4.13176E-01 2.88433E-31
4.17476E-01 2.71858E-31
4.21783E-01 2.56242E-31
4.26095E-01 2.41531E-31
4.30413E-01 2.27670E-31
4.34737E-01 2.14610E-31
4.39065E-01 2.02304E-31
4.43398E-01 1.90709E-31
4.47736E-01 1.79782E-31
4.52077E-01 1.69485E-31
4.56422E-01 1.59781E-31
4.60770E-01 1.50636E-31
4.65122E-01 1.42017E-31
4.69476E-01 1.33893E-31
4.73832E-01 1.26237E-31
4.78190E-01 1.19020E-31
4.82550E-01 1.12218E-31
4.86912E-01 1.05806E-31
4.91274E-01 9.97614E-32
4.95637E-01 9.40637E-32
5.00000E-01 8.86927E-32
5.04363E-01 8.36292E-32
5.08726E-01 7.88559E-32
5.13088E-01 7.43557E-32
5.17450E-01 7.01131E-32
5.21810E-01 6.61129E-32
5.26168E-01 6.23418E-32
5.30524E-01 5.87860E-32
5.34878E-01 5.54336E-32
5.39230E-01 5.22726E-32
5.43578E-01 4.92921E-32
5.47923E-01 4.64818E-32
5.52264E-01 4.38320E-32
5.56602E-01 4.13332E-32
5.60935E-01 3.89772E-32
5.65263E-01 3.67556E-32
5.69587E-01 3.46606E-32
5.73905E-01 3.26849E-32
5.78217E-01 3.08220E-32
5.82524E-01 2.90653E-32
5.86824E-01 2.74087E-32
5.91118E-01 2.58464E-32
5.95404E-01 2.43732E-32
5.99684E-01 2.29838E-32
6.03956E-01 2.16737E-32
6.08220E-01 2.04380E-32
6.12476E-01 1.92728E-32
6.16723E-01 1.81737E-32
6.20961E-01 1.71375E-32
6.25190E-01 1.61602E-32
6.29410E-01 1.52385E-32
6.33619E-01 1.43692E-32
6.37819E-01 1.35495E-32
6.42008E-01 1.27763E-32
6.46186E-01 1.20472E-32
6.50353E-01 1.13597E-32
6.54508E-01 1.07112E-32
6.58652E-01 1.00996E-32
6.62784E-01 9.52278E-33
6.66903E-01 8.97889E-33
6.71010E-01 8.46589E-33
6.75104E-01 7.98208E-33
6.79184E-01 7.52585E-33
6.83251E-01 7.09555E-33
6.87303E-01 6.68977E-33
6.91342E-01 6.30710E-33
6.95366E-01 5.94621E-33
6.99375E-01 5.60589E-33
7.03368E-01 5.28490E-33
7.07347E-01 4.98223E-33
7.11309E-01 4.69680E-33
7.15256E-01 4.42765E-33
7.19186E-01 4.17380E-33
7.23099E-01 3.93443E-33
7.26995E-01 3.70872E-33
7.30874E-01 3.49587E-33
7.34736E-01 3.29515E-33
7.38579E-01 3.10588E-33
7.42405E-01 2.92739E-33
7.46212E-01 2.75908E-33
7.50000E-01 2.60040E-33
7.53769E-01 2.45077E-33
7.57519E-01 2.30970E-33
7.61249E-01 2.17666E-33
7.64960E-01 2.05122E-33
7.68650E-01 1.93297E-33
7.72320E-01 1.82148E-33
7.75968E-01 1.71633E-33
7.79596E-01 1.61721E-33
7.83203E-01 1.52376E-33
7.86788E-01 1.43564E-33
7.90351E-01 1.35259E-33
7.93893E-01 1.27430E-33
7.97411E-01 1.20048E-33
8.00908E-01 1.13087E-33
8.04381E-01 1.06529E-33
8.07831E-01 1.00344E-33
8.11257E-01 9.45143E-34
8.14660E-01 8.90199E-34
8.18039E-01 8.38416E-34
8.21394E-01 7.89599E-34
8.24724E-01 7.43591E-34
8.28030E-01 7.00224E-34
8.31310E-01 6.59355E-34
8.34565E-01 6.20838E-34
8.37795E-01 5.84537E-34
8.40999E-01 5.50321E-34
8.44177E-01 5.18074E-34
8.47329E-01 4.87705E-34
8.50455E-01 4.59067E-34
8.53553E-01 4.32091E-34
8.56625E-01 4.06673E-34
8.59670E-01 3.82719E-34
8.62687E-01 3.60160E-34
8.65677E-01 3.38905E-34
8.68639E-01 3.18864E-34
8.71572E-01 2.99993E-34
8.74478E-01 2.82221E-34
8.77355E-01 2.65484E-34
8.80203E-01 2.49691E-34
8.83022E-01 2.34838E-34
8.85812E-01 2.20832E-34
8.88573E-01 2.07653E-34
8.91304E-01 1.95233E-34
8.94005E-01 1.83538E-34
8.96677E-01 1.72526E-34
8.99318E-01 1.62149E-34
9.01928E-01 1.52392E-34
9.04508E-01 1.43192E-34
9.07058E-01 1.34540E-34
9.09576E-01 1.26386E-34
9.12063E-01 1.18709E-34
9.14519E-01 1.11474E-34
9.16943E-01 1.04676E-34
9.19335E-01 9.82675E-35
9.21696E-01 9.22461E-35
9.24024E-01 8.65698E-35
9.26320E-01 8.12293E-35
9.28584E-01 7.62039E-35
9.30815E-01 7.14690E-35
9.33013E-01 6.70237E-35
9.35178E-01 6.28313E-35
9.37310E-01 5.88862E-35
9.39409E-01 5.51783E-35
9.41474E-01 5.16893E-35
9.43505E-01 4.84031E-35
9.45503E-01 4.53103E-35
9.47467E-01 4.24031E-35
9.49397E-01 3.96750E-35
9.51293E-01 3.71085E-35
9.53154E-01 3.46845E-35
9.54981E-01 3.24146E-35
9.56773E-01 3.02817E-35
9.58530E-01 2.82666E-35
9.60252E-01 2.63789E-35
9.61940E-01 2.46016E-35
9.63592E-01 2.29309E-35
9.65209E-01 2.13653E-35
9.66790E-01 1.98873E-35
9.68336E-01 1.85060E-35
9.69846E-01 1.72015E-35
9.71321E-01 1.59797E-35
9.72759E-01 1.48313E-35
9.74162E-01 1.37495E-35
9.75528E-01 1.27393E-35
9.76858E-01 1.17886E-35
9.78152E-01 1.08974E-35
9.79410E-01 1.00617E-35
9.80631E-01 9.27582E-36
9.81815E-01 8.53842E-36
9.82963E-01 7.84979E-36
9.84074E-01 7.20520E-36
9.85148E-01 6.59991E-36
9.86185E-01 6.03432E-36
9.87185E-01 5.50277E-36
9.88148E-01 5.00833E-36
9.89074E-01 4.54587E-36
9.89962E-01 4.11523E-36
9.90814E-01 3.71142E-36
9.91627E-01 3.33581E-36
9.92404E-01 2.98767E-36
9.93143E-01 2.66204E-36
9.93844E-01 2.36166E-36
9.94508E-01 2.08336E-36
9.95134E-01 1.82750E-36
9.95722E-01 1.58984E-36
9.96273E-01 1.37139E-36
9.96786E-01 1.17355E-36
9.97261E-01 9.94293E-37
9.97698E-01 8.26665E-37
9.98097E-01 6.79705E-37
9.98459E-01 5.49033E-37
9.98782E-01 4.30826E-37
9.99067E-01 3.28858E-37
9.99315E-01 2.41898E-37
9.99524E-01 1.67414E-37
9.99695E-01 1.07725E-37
9.99829E-01 6.17533E-38
9.99924E-01 2.86847E-38
9.99981E-01 9.41232E-39
1.00000E+00 3.74656E-39
