 #
 # Subroutine ELSEPA. Elastic scattering of electrons and positrons
 #                    by neutral atoms and positive ions
 #
 # Projectile: electron
 # Kinetic energy = 1.50000E+07 eV = 5.51240E+05 a.u.
 #
 # WARNING: High-energy factorization with free-atom DF screening.
 #          Absorption, polarization and exchange corrections are
 #          switched off.
 #          Phase shifts are calculated for the bare nucleus.
 #          Scattering amplitudes are not evaluated.
 #
 # Element: Li,  Z =   3,  atomic weight = 6.94100E+00 g/mol
 #
 # Nuclear model: Fermi distribution
 #                Average radius = 2.04107E-13 cm
 #                Skin thickness = 5.46000E-14 cm
 #
 # Number of electrons =  3
 #
 # Total elastic cross section = 1.07606E-19 cm**2 = 3.84268E-03 a0**2
 # 1st transport cross section = 7.19392E-26 cm**2 = 2.56899E-09 a0**2
 # 2nd transport cross section = 2.08451E-25 cm**2 = 7.44393E-09 a0**2
 #
 #
 # Differential cross section:                       MU=(1-COS(THETA))/2
 #
 #  THETA        MU          DCS          DCS        Sherman      error
 #  (deg)                 (cm**2/sr)   (a0**2/sr)    function
 #----------------------------------------------------------------------
0.00000E+00 9.94790E-13
7.61557E-13 9.94630E-13
1.18994E-12 9.94540E-13
1.71346E-12 9.94431E-13
2.33225E-12 9.94301E-13
3.04617E-12 9.94152E-13
3.85530E-12 9.93982E-13
4.75964E-12 9.93793E-13
5.75917E-12 9.93584E-13
6.85391E-12 9.93355E-13
8.04379E-12 9.93107E-13
9.32893E-12 9.92838E-13
1.07092E-11 9.92550E-13
1.21847E-11 9.92242E-13
1.37554E-11 9.91915E-13
1.54213E-11 9.91567E-13
1.71823E-11 9.91200E-13
1.90386E-11 9.90814E-13
2.09900E-11 9.90407E-13
2.30367E-11 9.89982E-13
2.51785E-11 9.89536E-13
2.74156E-11 9.89071E-13
2.97478E-11 9.88587E-13
3.21752E-11 9.88083E-13
3.46979E-11 9.87560E-13
3.73157E-11 9.87018E-13
4.00286E-11 9.86456E-13
4.28368E-11 9.85875E-13
4.57402E-11 9.85274E-13
4.87388E-11 9.84655E-13
5.18325E-11 9.84016E-13
5.50215E-11 9.83358E-13
5.83057E-11 9.82681E-13
6.16850E-11 9.81986E-13
6.51595E-11 9.81271E-13
6.87293E-11 9.80538E-13
7.23943E-11 9.79786E-13
7.61544E-11 9.79015E-13
1.18991E-10 9.70286E-13
1.71347E-10 9.59754E-13
2.33223E-10 9.47499E-13
3.04617E-10 9.33610E-13
3.85531E-10 9.18187E-13
4.75965E-10 9.01341E-13
5.75917E-10 8.83186E-13
6.85389E-10 8.63850E-13
8.04380E-10 8.43455E-13
9.32891E-10 8.22131E-13
1.07092E-09 8.00006E-13
1.21847E-09 7.77210E-13
1.37554E-09 7.53871E-13
1.54213E-09 7.30112E-13
1.71823E-09 7.06054E-13
1.90386E-09 6.81813E-13
2.09900E-09 6.57498E-13
2.30367E-09 6.33212E-13
2.51785E-09 6.09060E-13
2.74156E-09 5.85125E-13
2.97478E-09 5.61483E-13
3.21752E-09 5.38207E-13
3.46978E-09 5.15362E-13
3.73156E-09 4.93004E-13
4.00286E-09 4.71182E-13
4.28368E-09 4.49938E-13
4.57402E-09 4.29306E-13
4.87388E-09 4.09314E-13
5.18326E-09 3.89983E-13
5.50215E-09 3.71340E-13
5.83057E-09 3.53387E-13
6.16850E-09 3.36125E-13
6.51596E-09 3.19780E-13
6.87293E-09 3.04531E-13
7.23942E-09 2.89767E-13
7.61544E-09 2.75490E-13
1.18991E-08 1.63359E-13
1.71347E-08 9.79409E-14
2.33223E-08 6.08473E-14
3.04617E-08 3.96167E-14
3.85531E-08 2.70815E-14
4.75965E-08 1.93663E-14
5.75917E-08 1.44010E-14
6.85389E-08 1.10717E-14
8.04380E-08 8.73772E-15
9.32891E-08 7.04407E-15
1.07092E-07 5.77805E-15
1.21847E-07 4.80733E-15
1.37554E-07 4.04673E-15
1.54213E-07 3.43717E-15
1.71823E-07 2.94464E-15
1.90386E-07 2.54238E-15
2.09900E-07 2.20867E-15
2.30367E-07 1.92855E-15
2.51785E-07 1.69079E-15
2.74156E-07 1.48790E-15
2.97478E-07 1.31400E-15
3.21752E-07 1.16441E-15
3.46978E-07 1.03526E-15
3.73156E-07 9.23340E-16
4.00286E-07 8.25914E-16
4.28368E-07 7.40710E-16
4.57402E-07 6.65868E-16
4.87388E-07 5.99879E-16
5.18325E-07 5.41537E-16
5.50215E-07 4.89807E-16
5.83057E-07 4.43911E-16
6.16850E-07 4.03135E-16
6.51596E-07 3.66665E-16
6.87293E-07 3.33915E-16
7.23942E-07 3.04953E-16
7.61543E-07 2.79256E-16
1.18991E-06 1.24228E-16
1.71347E-06 6.24794E-17
2.33223E-06 3.44932E-17
3.04617E-06 2.04765E-17
3.85531E-06 1.28805E-17
4.75964E-06 8.49084E-18
5.75916E-06 5.81715E-18
6.85388E-06 4.11557E-18
8.04378E-06 2.99216E-18
9.32888E-06 2.22657E-18
1.07092E-05 1.69030E-18
1.21846E-05 1.30616E-18
1.37553E-05 1.02519E-18
1.54212E-05 8.15863E-19
1.71822E-05 6.57330E-19
1.90385E-05 5.36465E-19
2.09899E-05 4.41308E-19
2.30365E-05 3.66138E-19
2.51783E-05 3.06249E-19
2.74153E-05 2.58159E-19
2.97475E-05 2.19234E-19
3.21749E-05 1.87458E-19
3.46974E-05 1.61285E-19
3.73152E-05 1.39537E-19
4.00281E-05 1.21319E-19
4.28362E-05 1.05952E-19
4.57395E-05 9.29174E-20
4.87380E-05 8.18119E-20
5.18317E-05 7.23144E-20
5.50205E-05 6.41626E-20
5.83045E-05 5.71384E-20
6.16838E-05 5.10590E-20
6.51582E-05 4.57722E-20
6.87277E-05 4.11526E-20
7.23925E-05 3.70981E-20
7.61524E-05 3.35261E-20
9.21439E-05 2.28882E-20
1.09658E-04 1.61687E-20
1.28695E-04 1.17378E-20
1.49255E-04 8.72733E-21
1.71338E-04 6.62398E-21
1.94942E-04 5.11625E-21
2.20070E-04 4.01555E-21
2.46720E-04 3.19462E-21
2.74892E-04 2.57364E-21
3.04586E-04 2.09638E-21
3.35803E-04 1.72469E-21
3.68542E-04 1.43205E-21
4.02802E-04 1.19873E-21
4.38585E-04 1.01120E-21
4.75889E-04 8.58877E-22
5.14715E-04 7.34204E-22
5.55063E-04 6.31377E-22
5.96931E-04 5.45898E-22
6.40321E-04 4.74450E-22
6.85233E-04 4.14287E-22
7.31665E-04 3.63383E-22
7.79618E-04 3.20060E-22
8.29092E-04 2.82999E-22
8.80086E-04 2.51162E-22
9.32601E-04 2.23667E-22
9.86636E-04 1.99843E-22
1.04219E-03 1.79104E-22
1.09927E-03 1.60987E-22
1.15786E-03 1.45107E-22
1.21797E-03 1.31133E-22
1.27961E-03 1.18807E-22
1.34276E-03 1.07891E-22
1.40743E-03 9.82036E-23
1.47362E-03 8.95787E-23
1.54133E-03 8.18795E-23
1.61056E-03 7.49916E-23
1.68131E-03 6.88112E-23
1.75357E-03 6.32561E-23
1.82735E-03 5.82496E-23
1.90265E-03 5.37290E-23
1.97947E-03 4.96389E-23
2.05780E-03 4.59300E-23
2.13765E-03 4.25619E-23
2.21902E-03 3.94964E-23
2.30190E-03 3.67023E-23
2.38630E-03 3.41509E-23
2.47222E-03 3.18172E-23
2.55965E-03 2.96799E-23
2.64859E-03 2.77186E-23
2.73905E-03 2.59171E-23
2.83103E-03 2.42593E-23
2.92452E-03 2.27321E-23
3.01952E-03 2.13232E-23
3.11604E-03 2.00217E-23
3.21407E-03 1.88181E-23
3.31362E-03 1.77035E-23
3.41468E-03 1.66703E-23
3.51725E-03 1.57113E-23
3.62133E-03 1.48203E-23
3.72692E-03 1.39916E-23
3.83403E-03 1.32200E-23
3.94265E-03 1.25009E-23
4.05278E-03 1.18300E-23
4.16442E-03 1.12035E-23
4.27757E-03 1.06179E-23
4.39223E-03 1.00701E-23
4.50840E-03 9.55716E-24
4.62608E-03 9.07643E-24
4.74527E-03 8.62559E-24
4.86597E-03 8.20238E-24
4.98817E-03 7.80479E-24
5.11188E-03 7.43104E-24
5.23711E-03 7.07934E-24
5.36383E-03 6.74824E-24
5.49207E-03 6.43625E-24
5.62181E-03 6.14207E-24
5.75306E-03 5.86453E-24
5.88581E-03 5.60246E-24
6.02007E-03 5.35489E-24
6.15583E-03 5.12082E-24
6.29310E-03 4.89940E-24
6.43187E-03 4.68983E-24
6.57214E-03 4.49132E-24
6.71392E-03 4.30323E-24
6.85720E-03 4.12485E-24
7.00198E-03 3.95564E-24
7.14827E-03 3.79500E-24
7.29605E-03 3.64243E-24
7.44534E-03 3.49746E-24
7.59612E-03 3.35961E-24
7.97965E-03 3.04357E-24
8.37255E-03 2.76383E-24
8.77480E-03 2.51548E-24
9.18641E-03 2.29440E-24
9.60736E-03 2.09707E-24
1.00376E-02 1.92049E-24
1.04773E-02 1.76210E-24
1.09262E-02 1.61970E-24
1.13844E-02 1.49139E-24
1.18520E-02 1.37553E-24
1.23288E-02 1.27069E-24
1.28150E-02 1.17565E-24
1.33104E-02 1.08932E-24
1.38150E-02 1.01076E-24
1.43290E-02 9.39156E-25
1.48521E-02 8.73773E-25
1.53845E-02 8.13976E-25
1.59262E-02 7.59203E-25
1.64770E-02 7.08955E-25
1.70371E-02 6.62791E-25
1.76063E-02 6.20319E-25
1.81848E-02 5.81191E-25
1.87724E-02 5.45095E-25
1.93692E-02 5.11755E-25
1.99751E-02 4.80921E-25
2.05901E-02 4.52372E-25
2.12143E-02 4.25906E-25
2.18476E-02 4.01344E-25
2.24900E-02 3.78525E-25
2.31415E-02 3.57301E-25
2.38021E-02 3.37542E-25
2.44717E-02 3.19127E-25
2.51504E-02 3.01948E-25
2.58382E-02 2.85907E-25
2.65349E-02 2.70916E-25
2.72407E-02 2.56891E-25
2.79555E-02 2.43761E-25
2.86793E-02 2.31456E-25
2.94120E-02 2.19917E-25
3.01537E-02 2.09086E-25
3.09043E-02 1.98911E-25
3.16639E-02 1.89347E-25
3.24324E-02 1.80348E-25
3.32098E-02 1.71877E-25
3.39961E-02 1.63895E-25
3.47912E-02 1.56370E-25
3.55952E-02 1.49271E-25
3.64081E-02 1.42568E-25
3.72297E-02 1.36236E-25
3.80602E-02 1.30251E-25
3.88995E-02 1.24590E-25
3.97476E-02 1.19231E-25
4.06044E-02 1.14157E-25
4.14700E-02 1.09349E-25
4.23443E-02 1.04790E-25
4.32273E-02 1.00465E-25
4.41190E-02 9.63603E-26
4.50194E-02 9.24620E-26
4.59284E-02 8.87581E-26
4.68461E-02 8.52369E-26
4.87074E-02 7.87008E-26
5.06030E-02 7.27764E-26
5.25328E-02 6.73964E-26
5.44967E-02 6.25020E-26
5.64946E-02 5.80416E-26
5.85262E-02 5.39698E-26
6.05914E-02 5.02468E-26
6.26901E-02 4.68375E-26
6.48222E-02 4.37106E-26
6.69873E-02 4.08386E-26
6.91854E-02 3.81971E-26
7.14163E-02 3.57642E-26
7.36799E-02 3.35205E-26
7.59760E-02 3.14486E-26
7.83043E-02 2.95331E-26
8.06647E-02 2.77600E-26
8.30571E-02 2.61169E-26
8.54812E-02 2.45925E-26
8.79369E-02 2.31766E-26
9.04240E-02 2.18602E-26
9.29422E-02 2.06350E-26
9.54915E-02 1.94936E-26
9.80716E-02 1.84292E-26
1.00682E-01 1.74356E-26
1.03323E-01 1.65074E-26
1.05995E-01 1.56394E-26
1.08696E-01 1.48270E-26
1.11427E-01 1.40660E-26
1.14188E-01 1.33526E-26
1.16978E-01 1.26832E-26
1.19797E-01 1.20547E-26
1.22645E-01 1.14641E-26
1.25522E-01 1.09087E-26
1.28428E-01 1.03860E-26
1.31361E-01 9.89379E-27
1.34323E-01 9.42991E-27
1.37313E-01 8.99247E-27
1.40330E-01 8.57967E-27
1.43375E-01 8.18989E-27
1.46447E-01 7.82160E-27
1.49545E-01 7.47340E-27
1.52671E-01 7.14400E-27
1.55823E-01 6.83220E-27
1.59001E-01 6.53690E-27
1.62205E-01 6.25706E-27
1.65435E-01 5.99172E-27
1.68690E-01 5.74000E-27
1.71970E-01 5.50107E-27
1.75276E-01 5.27417E-27
1.78606E-01 5.05858E-27
1.81961E-01 4.85364E-27
1.85340E-01 4.65871E-27
1.88743E-01 4.47324E-27
1.92169E-01 4.29667E-27
1.95619E-01 4.12851E-27
1.99092E-01 3.96827E-27
2.02589E-01 3.81552E-27
2.06107E-01 3.66985E-27
2.09649E-01 3.53087E-27
2.13212E-01 3.39821E-27
2.16797E-01 3.27155E-27
2.20404E-01 3.15054E-27
2.24032E-01 3.03491E-27
2.27680E-01 2.92437E-27
2.31350E-01 2.81865E-27
2.35040E-01 2.71751E-27
2.38751E-01 2.62071E-27
2.42481E-01 2.52804E-27
2.46231E-01 2.43928E-27
2.50000E-01 2.35424E-27
2.53788E-01 2.27274E-27
2.57595E-01 2.19460E-27
2.61421E-01 2.11966E-27
2.65264E-01 2.04777E-27
2.69126E-01 1.97878E-27
2.73005E-01 1.91255E-27
2.76901E-01 1.84895E-27
2.80814E-01 1.78787E-27
2.84744E-01 1.72917E-27
2.88691E-01 1.67276E-27
2.92653E-01 1.61853E-27
2.96632E-01 1.56637E-27
3.00625E-01 1.51620E-27
3.04634E-01 1.46793E-27
3.08658E-01 1.42147E-27
3.12697E-01 1.37674E-27
3.16749E-01 1.33367E-27
3.20816E-01 1.29218E-27
3.24896E-01 1.25221E-27
3.28990E-01 1.21369E-27
3.33097E-01 1.17656E-27
3.37216E-01 1.14076E-27
3.41348E-01 1.10623E-27
3.45492E-01 1.07293E-27
3.49647E-01 1.04079E-27
3.53814E-01 1.00978E-27
3.57992E-01 9.79837E-28
3.62181E-01 9.50932E-28
3.66381E-01 9.23017E-28
3.70590E-01 8.96053E-28
3.74810E-01 8.70002E-28
3.79039E-01 8.44828E-28
3.83277E-01 8.20495E-28
3.87524E-01 7.96972E-28
3.91780E-01 7.74227E-28
3.96044E-01 7.52229E-28
4.00316E-01 7.30950E-28
4.04596E-01 7.10362E-28
4.08882E-01 6.90439E-28
4.13176E-01 6.71156E-28
4.17476E-01 6.52489E-28
4.21783E-01 6.34415E-28
4.26095E-01 6.16912E-28
4.30413E-01 5.99959E-28
4.34737E-01 5.83535E-28
4.39065E-01 5.67622E-28
4.43398E-01 5.52201E-28
4.47736E-01 5.37254E-28
4.52077E-01 5.22764E-28
4.56422E-01 5.08715E-28
4.60770E-01 4.95091E-28
4.65122E-01 4.81877E-28
4.69476E-01 4.69060E-28
4.73832E-01 4.56624E-28
4.78190E-01 4.44557E-28
4.82550E-01 4.32846E-28
4.86912E-01 4.21479E-28
4.91274E-01 4.10444E-28
4.95637E-01 3.99729E-28
5.00000E-01 3.89325E-28
5.04363E-01 3.79221E-28
5.08726E-01 3.69406E-28
5.13088E-01 3.59871E-28
5.17450E-01 3.50606E-28
5.21810E-01 3.41603E-28
5.26168E-01 3.32854E-28
5.30524E-01 3.24349E-28
5.34878E-01 3.16082E-28
5.39230E-01 3.08044E-28
5.43578E-01 3.00228E-28
5.47923E-01 2.92626E-28
5.52264E-01 2.85233E-28
5.56602E-01 2.78042E-28
5.60935E-01 2.71045E-28
5.65263E-01 2.64238E-28
5.69587E-01 2.57614E-28
5.73905E-01 2.51167E-28
5.78217E-01 2.44892E-28
5.82524E-01 2.38784E-28
5.86824E-01 2.32838E-28
5.91118E-01 2.27048E-28
5.95404E-01 2.21410E-28
5.99684E-01 2.15920E-28
6.03956E-01 2.10572E-28
6.08220E-01 2.05364E-28
6.12476E-01 2.00289E-28
6.16723E-01 1.95346E-28
6.20961E-01 1.90529E-28
6.25190E-01 1.85835E-28
6.29410E-01 1.81261E-28
6.33619E-01 1.76802E-28
6.37819E-01 1.72456E-28
6.42008E-01 1.68220E-28
6.46186E-01 1.64090E-28
6.50353E-01 1.60062E-28
6.54508E-01 1.56136E-28
6.58652E-01 1.52306E-28
6.62784E-01 1.48571E-28
6.66903E-01 1.44929E-28
6.71010E-01 1.41375E-28
6.75104E-01 1.37909E-28
6.79184E-01 1.34527E-28
6.83251E-01 1.31228E-28
6.87303E-01 1.28008E-28
6.91342E-01 1.24866E-28
6.95366E-01 1.21800E-28
6.99375E-01 1.18808E-28
7.03368E-01 1.15887E-28
7.07347E-01 1.13036E-28
7.11309E-01 1.10252E-28
7.15256E-01 1.07535E-28
7.19186E-01 1.04882E-28
7.23099E-01 1.02292E-28
7.26995E-01 9.97622E-29
7.30874E-01 9.72921E-29
7.34736E-01 9.48798E-29
7.38579E-01 9.25238E-29
7.42405E-01 9.02226E-29
7.46212E-01 8.79748E-29
7.50000E-01 8.57792E-29
7.53769E-01 8.36343E-29
7.57519E-01 8.15388E-29
7.61249E-01 7.94915E-29
7.64960E-01 7.74912E-29
7.68650E-01 7.55368E-29
7.72320E-01 7.36270E-29
7.75968E-01 7.17607E-29
7.79596E-01 6.99369E-29
7.83203E-01 6.81546E-29
7.86788E-01 6.64126E-29
7.90351E-01 6.47101E-29
7.93893E-01 6.30461E-29
7.97411E-01 6.14196E-29
8.00908E-01 5.98296E-29
8.04381E-01 5.82756E-29
8.07831E-01 5.67563E-29
8.11257E-01 5.52711E-29
8.14660E-01 5.38192E-29
8.18039E-01 5.23998E-29
8.21394E-01 5.10121E-29
8.24724E-01 4.96554E-29
8.28030E-01 4.83290E-29
8.31310E-01 4.70321E-29
8.34565E-01 4.57641E-29
8.37795E-01 4.45243E-29
8.40999E-01 4.33121E-29
8.44177E-01 4.21268E-29
8.47329E-01 4.09679E-29
8.50455E-01 3.98347E-29
8.53553E-01 3.87267E-29
8.56625E-01 3.76433E-29
8.59670E-01 3.65840E-29
8.62687E-01 3.55483E-29
8.65677E-01 3.45356E-29
8.68639E-01 3.35453E-29
8.71572E-01 3.25772E-29
8.74478E-01 3.16307E-29
8.77355E-01 3.07052E-29
8.80203E-01 2.98004E-29
8.83022E-01 2.89158E-29
8.85812E-01 2.80510E-29
8.88573E-01 2.72056E-29
8.91304E-01 2.63792E-29
8.94005E-01 2.55714E-29
8.96677E-01 2.47819E-29
8.99318E-01 2.40101E-29
9.01928E-01 2.32559E-29
9.04508E-01 2.25188E-29
9.07058E-01 2.17985E-29
9.09576E-01 2.10947E-29
9.12063E-01 2.04070E-29
9.14519E-01 1.97351E-29
9.16943E-01 1.90788E-29
9.19335E-01 1.84376E-29
9.21696E-01 1.78115E-29
9.24024E-01 1.72000E-29
9.26320E-01 1.66029E-29
9.28584E-01 1.60198E-29
9.30815E-01 1.54507E-29
9.33013E-01 1.48952E-29
9.35178E-01 1.43530E-29
9.37310E-01 1.38239E-29
9.39409E-01 1.33078E-29
9.41474E-01 1.28043E-29
9.43505E-01 1.23132E-29
9.45503E-01 1.18344E-29
9.47467E-01 1.13676E-29
9.49397E-01 1.09127E-29
9.51293E-01 1.04695E-29
9.53154E-01 1.00376E-29
9.54981E-01 9.61702E-30
9.56773E-01 9.20756E-30
9.58530E-01 8.80896E-30
9.60252E-01 8.42114E-30
9.61940E-01 8.04390E-30
9.63592E-01 7.67707E-30
9.65209E-01 7.32056E-30
9.66790E-01 6.97412E-30
9.68336E-01 6.63772E-30
9.69846E-01 6.31110E-30
9.71321E-01 5.99422E-30
9.72759E-01 5.68691E-30
9.74162E-01 5.38903E-30
9.75528E-01 5.10052E-30
9.76858E-01 4.82119E-30
9.78152E-01 4.55097E-30
9.79410E-01 4.28974E-30
9.80631E-01 4.03737E-30
9.81815E-01 3.79378E-30
9.82963E-01 3.55889E-30
9.84074E-01 3.33258E-30
9.85148E-01 3.11475E-30
9.86185E-01 2.90534E-30
9.87185E-01 2.70423E-30
9.88148E-01 2.51138E-30
9.89074E-01 2.32669E-30
9.89962E-01 2.15010E-30
9.90814E-01 1.98151E-30
9.91627E-01 1.82088E-30
9.92404E-01 1.66815E-30
9.93143E-01 1.52322E-30
9.93844E-01 1.38609E-30
9.94508E-01 1.25667E-30
9.95134E-01 1.13492E-30
9.95722E-01 1.02077E-30
9.96273E-01 9.14203E-31
9.96786E-01 8.15181E-31
9.97261E-01 7.23642E-31
9.97698E-01 6.39520E-31
9.98097E-01 5.62877E-31
9.98459E-01 4.93597E-31
9.98782E-01 4.31676E-31
9.99067E-01 3.77107E-31
9.99315E-01 3.29861E-31
9.99524E-01 2.89892E-31
9.99695E-01 2.57234E-31
9.99829E-01 2.31843E-31
9.99924E-01 2.13725E-31
9.99981E-01 2.02848E-31
1.00000E+00 1.99304E-31
