 #
 # Subroutine ELSEPA. Elastic scattering of electrons and positrons
 #                    by neutral atoms and positive ions
 #
 # Projectile: electron
 # Kinetic energy = 4.00000E+07 eV = 1.46997E+06 a.u.
 #
 # WARNING: High-energy factorization with free-atom DF screening.
 #          Absorption, polarization and exchange corrections are
 #          switched off.
 #          Phase shifts are calculated for the bare nucleus.
 #          Scattering amplitudes are not evaluated.
 #
 # Element: Li,  Z =   3,  atomic weight = 6.94100E+00 g/mol
 #
 # Nuclear model: Fermi distribution
 #                Average radius = 2.04107E-13 cm
 #                Skin thickness = 5.46000E-14 cm
 #
 # Number of electrons =  3
 #
 # Total elastic cross section = 1.07577E-19 cm**2 = 3.84163E-03 a0**2
 # 1st transport cross section = 1.17881E-26 cm**2 = 4.20961E-10 a0**2
 # 2nd transport cross section = 3.43962E-26 cm**2 = 1.22831E-09 a0**2
 #
 #
 # Differential cross section:                       MU=(1-COS(THETA))/2
 #
 #  THETA        MU          DCS          DCS        Sherman      error
 #  (deg)                 (cm**2/sr)   (a0**2/sr)    function
 #----------------------------------------------------------------------
0.00000E+00 6.78575E-12
7.61557E-13 6.77832E-12
1.18994E-12 6.77415E-12
1.71346E-12 6.76906E-12
2.33225E-12 6.76305E-12
3.04617E-12 6.75613E-12
3.85530E-12 6.74829E-12
4.75964E-12 6.73954E-12
5.75917E-12 6.72989E-12
6.85391E-12 6.71935E-12
8.04379E-12 6.70791E-12
9.32893E-12 6.69559E-12
1.07092E-11 6.68239E-12
1.21847E-11 6.66831E-12
1.37554E-11 6.65336E-12
1.54213E-11 6.63756E-12
1.71823E-11 6.62091E-12
1.90386E-11 6.60342E-12
2.09900E-11 6.58509E-12
2.30367E-11 6.56595E-12
2.51785E-11 6.54599E-12
2.74156E-11 6.52522E-12
2.97478E-11 6.50366E-12
3.21752E-11 6.48134E-12
3.46979E-11 6.45823E-12
3.73157E-11 6.43435E-12
4.00286E-11 6.40975E-12
4.28368E-11 6.38441E-12
4.57402E-11 6.35833E-12
4.87388E-11 6.33155E-12
5.18325E-11 6.30409E-12
5.50215E-11 6.27593E-12
5.83057E-11 6.24708E-12
6.16850E-11 6.21762E-12
6.51595E-11 6.18750E-12
6.87293E-11 6.15673E-12
7.23943E-11 6.12536E-12
7.61544E-11 6.09342E-12
1.18991E-10 5.74420E-12
1.71347E-10 5.35206E-12
2.33223E-10 4.93269E-12
3.04617E-10 4.50097E-12
3.85531E-10 4.07004E-12
4.75965E-10 3.65088E-12
5.75917E-10 3.25199E-12
6.85389E-10 2.87941E-12
8.04380E-10 2.53691E-12
9.32891E-10 2.22644E-12
1.07092E-09 1.95737E-12
1.21847E-09 1.71165E-12
1.37554E-09 1.48867E-12
1.54213E-09 1.29689E-12
1.71823E-09 1.13492E-12
1.90386E-09 9.89700E-13
2.09900E-09 8.60113E-13
2.30367E-09 7.56539E-13
2.51785E-09 6.64816E-13
2.74156E-09 5.83138E-13
2.97478E-09 5.13826E-13
3.21752E-09 4.56160E-13
3.46978E-09 4.04704E-13
3.73156E-09 3.58835E-13
4.00286E-09 3.21725E-13
4.28368E-09 2.88803E-13
4.57402E-09 2.59303E-13
4.87388E-09 2.33819E-13
5.18326E-09 2.12212E-13
5.50215E-09 1.92741E-13
5.83057E-09 1.75183E-13
6.16850E-09 1.60430E-13
6.51596E-09 1.47180E-13
6.87293E-09 1.35160E-13
7.23942E-09 1.24505E-13
7.61544E-09 1.15198E-13
1.18991E-08 5.87443E-14
1.71347E-08 3.47471E-14
2.33223E-08 2.23950E-14
3.04617E-08 1.52660E-14
3.85531E-08 1.07890E-14
4.75965E-08 7.82076E-15
5.75917E-08 5.79622E-15
6.85389E-08 4.37539E-15
8.04380E-08 3.35152E-15
9.32891E-08 2.60247E-15
1.07092E-07 2.04435E-15
1.21847E-07 1.62673E-15
1.37554E-07 1.30869E-15
1.54213E-07 1.06223E-15
1.71823E-07 8.69937E-16
1.90386E-07 7.18740E-16
2.09900E-07 5.98435E-16
2.30367E-07 5.01665E-16
2.51785E-07 4.23503E-16
2.74156E-07 3.59815E-16
2.97478E-07 3.07472E-16
3.21752E-07 2.64191E-16
3.46978E-07 2.28208E-16
3.73156E-07 1.98092E-16
4.00286E-07 1.72721E-16
4.28368E-07 1.51260E-16
4.57402E-07 1.33009E-16
4.87388E-07 1.17409E-16
5.18325E-07 1.04013E-16
5.50215E-07 9.24652E-17
5.83057E-07 8.24700E-17
6.16850E-07 7.37791E-17
6.51596E-07 6.61994E-17
6.87293E-07 5.95650E-17
7.23942E-07 5.37381E-17
7.61543E-07 4.86030E-17
1.18991E-06 2.00071E-17
1.71347E-06 9.66251E-18
2.33223E-06 5.21908E-18
3.04617E-06 3.06068E-18
3.85531E-06 1.91135E-18
4.75964E-06 1.25432E-18
5.75916E-06 8.56864E-19
6.85388E-06 6.05084E-19
8.04378E-06 4.39353E-19
9.32888E-06 3.26673E-19
1.07092E-05 2.47909E-19
1.21846E-05 1.91516E-19
1.37553E-05 1.50284E-19
1.54212E-05 1.19575E-19
1.71822E-05 9.63243E-20
1.90385E-05 7.86051E-20
2.09899E-05 6.46541E-20
2.30365E-05 5.36347E-20
2.51783E-05 4.48567E-20
2.74153E-05 3.78094E-20
2.97475E-05 3.21060E-20
3.21749E-05 2.74509E-20
3.46974E-05 2.36172E-20
3.73152E-05 2.04319E-20
4.00281E-05 1.77636E-20
4.28362E-05 1.55130E-20
4.57395E-05 1.36040E-20
4.87380E-05 1.19775E-20
5.18317E-05 1.05866E-20
5.50205E-05 9.39294E-21
5.83045E-05 8.36443E-21
6.16838E-05 7.47432E-21
6.51582E-05 6.70030E-21
6.87277E-05 6.02398E-21
7.23925E-05 5.43040E-21
7.61524E-05 4.90733E-21
9.21439E-05 3.34998E-21
1.09658E-04 2.36639E-21
1.28695E-04 1.71783E-21
1.49255E-04 1.27720E-21
1.71338E-04 9.69363E-22
1.94942E-04 7.48697E-22
2.20070E-04 5.87613E-22
2.46720E-04 4.67471E-22
2.74892E-04 3.76597E-22
3.04586E-04 3.06754E-22
3.35803E-04 2.52362E-22
3.68542E-04 2.09538E-22
4.02802E-04 1.75396E-22
4.38585E-04 1.47955E-22
4.75889E-04 1.25665E-22
5.14715E-04 1.07422E-22
5.55063E-04 9.23756E-23
5.96931E-04 7.98678E-23
6.40321E-04 6.94136E-23
6.85233E-04 6.06103E-23
7.31665E-04 5.31622E-23
7.79618E-04 4.68232E-23
8.29092E-04 4.14006E-23
8.80086E-04 3.67424E-23
9.32601E-04 3.27195E-23
9.86636E-04 2.92339E-23
1.04219E-03 2.61995E-23
1.09927E-03 2.35489E-23
1.15786E-03 2.12256E-23
1.21797E-03 1.91812E-23
1.27961E-03 1.73777E-23
1.34276E-03 1.57808E-23
1.40743E-03 1.43635E-23
1.47362E-03 1.31017E-23
1.54133E-03 1.19753E-23
1.61056E-03 1.09677E-23
1.68131E-03 1.00636E-23
1.75357E-03 9.25090E-24
1.82735E-03 8.51851E-24
1.90265E-03 7.85720E-24
1.97947E-03 7.25889E-24
2.05780E-03 6.71634E-24
2.13765E-03 6.22367E-24
2.21902E-03 5.77524E-24
2.30190E-03 5.36653E-24
2.38630E-03 4.99333E-24
2.47222E-03 4.65198E-24
2.55965E-03 4.33935E-24
2.64859E-03 4.05249E-24
2.73905E-03 3.78898E-24
2.83103E-03 3.54652E-24
2.92452E-03 3.32314E-24
3.01952E-03 3.11709E-24
3.11604E-03 2.92672E-24
3.21407E-03 2.75070E-24
3.31362E-03 2.58769E-24
3.41468E-03 2.43658E-24
3.51725E-03 2.29634E-24
3.62133E-03 2.16603E-24
3.72692E-03 2.04485E-24
3.83403E-03 1.93200E-24
3.94265E-03 1.82685E-24
4.05278E-03 1.72873E-24
4.16442E-03 1.63712E-24
4.27757E-03 1.55150E-24
4.39223E-03 1.47139E-24
4.50840E-03 1.39639E-24
4.62608E-03 1.32610E-24
4.74527E-03 1.26018E-24
4.86597E-03 1.19830E-24
4.98817E-03 1.14017E-24
5.11188E-03 1.08553E-24
5.23711E-03 1.03411E-24
5.36383E-03 9.85700E-25
5.49207E-03 9.40087E-25
5.62181E-03 8.97081E-25
5.75306E-03 8.56507E-25
5.88581E-03 8.18195E-25
6.02007E-03 7.82004E-25
6.15583E-03 7.47787E-25
6.29310E-03 7.15422E-25
6.43187E-03 6.84787E-25
6.57214E-03 6.55772E-25
6.71392E-03 6.28278E-25
6.85720E-03 6.02207E-25
7.00198E-03 5.77474E-25
7.14827E-03 5.53996E-25
7.29605E-03 5.31698E-25
7.44534E-03 5.10510E-25
7.59612E-03 4.90364E-25
7.97965E-03 4.44179E-25
8.37255E-03 4.03300E-25
8.77480E-03 3.67011E-25
9.18641E-03 3.34709E-25
9.60736E-03 3.05879E-25
1.00376E-02 2.80084E-25
1.04773E-02 2.56947E-25
1.09262E-02 2.36147E-25
1.13844E-02 2.17406E-25
1.18520E-02 2.00485E-25
1.23288E-02 1.85175E-25
1.28150E-02 1.71297E-25
1.33104E-02 1.58692E-25
1.38150E-02 1.47223E-25
1.43290E-02 1.36770E-25
1.48521E-02 1.27226E-25
1.53845E-02 1.18498E-25
1.59262E-02 1.10504E-25
1.64770E-02 1.03172E-25
1.70371E-02 9.64355E-26
1.76063E-02 9.02388E-26
1.81848E-02 8.45304E-26
1.87724E-02 7.92650E-26
1.93692E-02 7.44020E-26
1.99751E-02 6.99051E-26
2.05901E-02 6.57417E-26
2.12143E-02 6.18827E-26
2.18476E-02 5.83016E-26
2.24900E-02 5.49750E-26
2.31415E-02 5.18813E-26
2.38021E-02 4.90014E-26
2.44717E-02 4.63177E-26
2.51504E-02 4.38145E-26
2.58382E-02 4.14774E-26
2.65349E-02 3.92933E-26
2.72407E-02 3.72505E-26
2.79555E-02 3.53381E-26
2.86793E-02 3.35462E-26
2.94120E-02 3.18659E-26
3.01537E-02 3.02890E-26
3.09043E-02 2.88079E-26
3.16639E-02 2.74157E-26
3.24324E-02 2.61062E-26
3.32098E-02 2.48734E-26
3.39961E-02 2.37121E-26
3.47912E-02 2.26174E-26
3.55952E-02 2.15848E-26
3.64081E-02 2.06100E-26
3.72297E-02 1.96893E-26
3.80602E-02 1.88191E-26
3.88995E-02 1.79961E-26
3.97476E-02 1.72172E-26
4.06044E-02 1.64798E-26
4.14700E-02 1.57811E-26
4.23443E-02 1.51188E-26
4.32273E-02 1.44905E-26
4.41190E-02 1.38944E-26
4.50194E-02 1.33283E-26
4.59284E-02 1.27905E-26
4.68461E-02 1.22793E-26
4.87074E-02 1.13307E-26
5.06030E-02 1.04711E-26
5.25328E-02 9.69082E-27
5.44967E-02 8.98119E-27
5.64946E-02 8.33471E-27
5.85262E-02 7.74477E-27
6.05914E-02 7.20556E-27
6.26901E-02 6.71196E-27
6.48222E-02 6.25942E-27
6.69873E-02 5.84394E-27
6.91854E-02 5.46195E-27
7.14163E-02 5.11027E-27
7.36799E-02 4.78606E-27
7.59760E-02 4.48682E-27
7.83043E-02 4.21027E-27
8.06647E-02 3.95440E-27
8.30571E-02 3.71737E-27
8.54812E-02 3.49757E-27
8.79369E-02 3.29352E-27
9.04240E-02 3.10389E-27
9.29422E-02 2.92748E-27
9.54915E-02 2.76320E-27
9.80716E-02 2.61008E-27
1.00682E-01 2.46723E-27
1.03323E-01 2.33383E-27
1.05995E-01 2.20915E-27
1.08696E-01 2.09251E-27
1.11427E-01 1.98332E-27
1.14188E-01 1.88100E-27
1.16978E-01 1.78505E-27
1.19797E-01 1.69501E-27
1.22645E-01 1.61044E-27
1.25522E-01 1.53095E-27
1.28428E-01 1.45620E-27
1.31361E-01 1.38583E-27
1.34323E-01 1.31956E-27
1.37313E-01 1.25710E-27
1.40330E-01 1.19819E-27
1.43375E-01 1.14260E-27
1.46447E-01 1.09011E-27
1.49545E-01 1.04051E-27
1.52671E-01 9.93618E-28
1.55823E-01 9.49260E-28
1.59001E-01 9.07274E-28
1.62205E-01 8.67511E-28
1.65435E-01 8.29834E-28
1.68690E-01 7.94114E-28
1.71970E-01 7.60232E-28
1.75276E-01 7.28077E-28
1.78606E-01 6.97545E-28
1.81961E-01 6.68541E-28
1.85340E-01 6.40974E-28
1.88743E-01 6.14762E-28
1.92169E-01 5.89826E-28
1.95619E-01 5.66093E-28
1.99092E-01 5.43496E-28
2.02589E-01 5.21971E-28
2.06107E-01 5.01458E-28
2.09649E-01 4.81901E-28
2.13212E-01 4.63249E-28
2.16797E-01 4.45452E-28
2.20404E-01 4.28464E-28
2.24032E-01 4.12243E-28
2.27680E-01 3.96748E-28
2.31350E-01 3.81940E-28
2.35040E-01 3.67785E-28
2.38751E-01 3.54249E-28
2.42481E-01 3.41300E-28
2.46231E-01 3.28908E-28
2.50000E-01 3.17046E-28
2.53788E-01 3.05686E-28
2.57595E-01 2.94805E-28
2.61421E-01 2.84378E-28
2.65264E-01 2.74383E-28
2.69126E-01 2.64800E-28
2.73005E-01 2.55609E-28
2.76901E-01 2.46791E-28
2.80814E-01 2.38329E-28
2.84744E-01 2.30205E-28
2.88691E-01 2.22404E-28
2.92653E-01 2.14911E-28
2.96632E-01 2.07712E-28
3.00625E-01 2.00794E-28
3.04634E-01 1.94143E-28
3.08658E-01 1.87748E-28
3.12697E-01 1.81598E-28
3.16749E-01 1.75681E-28
3.20816E-01 1.69987E-28
3.24896E-01 1.64506E-28
3.28990E-01 1.59230E-28
3.33097E-01 1.54148E-28
3.37216E-01 1.49254E-28
3.41348E-01 1.44539E-28
3.45492E-01 1.39995E-28
3.49647E-01 1.35615E-28
3.53814E-01 1.31393E-28
3.57992E-01 1.27321E-28
3.62181E-01 1.23394E-28
3.66381E-01 1.19605E-28
3.70590E-01 1.15949E-28
3.74810E-01 1.12421E-28
3.79039E-01 1.09015E-28
3.83277E-01 1.05727E-28
3.87524E-01 1.02552E-28
3.91780E-01 9.94846E-29
3.96044E-01 9.65216E-29
4.00316E-01 9.36586E-29
4.04596E-01 9.08918E-29
4.08882E-01 8.82173E-29
4.13176E-01 8.56317E-29
4.17476E-01 8.31316E-29
4.21783E-01 8.07136E-29
4.26095E-01 7.83748E-29
4.30413E-01 7.61120E-29
4.34737E-01 7.39226E-29
4.39065E-01 7.18037E-29
4.43398E-01 6.97527E-29
4.47736E-01 6.77672E-29
4.52077E-01 6.58447E-29
4.56422E-01 6.39829E-29
4.60770E-01 6.21797E-29
4.65122E-01 6.04330E-29
4.69476E-01 5.87407E-29
4.73832E-01 5.71008E-29
4.78190E-01 5.55116E-29
4.82550E-01 5.39712E-29
4.86912E-01 5.24779E-29
4.91274E-01 5.10300E-29
4.95637E-01 4.96261E-29
5.00000E-01 4.82645E-29
5.04363E-01 4.69438E-29
5.08726E-01 4.56627E-29
5.13088E-01 4.44197E-29
5.17450E-01 4.32136E-29
5.21810E-01 4.20430E-29
5.26168E-01 4.09070E-29
5.30524E-01 3.98042E-29
5.34878E-01 3.87335E-29
5.39230E-01 3.76940E-29
5.43578E-01 3.66845E-29
5.47923E-01 3.57042E-29
5.52264E-01 3.47519E-29
5.56602E-01 3.38269E-29
5.60935E-01 3.29282E-29
5.65263E-01 3.20551E-29
5.69587E-01 3.12066E-29
5.73905E-01 3.03819E-29
5.78217E-01 2.95804E-29
5.82524E-01 2.88013E-29
5.86824E-01 2.80439E-29
5.91118E-01 2.73075E-29
5.95404E-01 2.65914E-29
5.99684E-01 2.58951E-29
6.03956E-01 2.52178E-29
6.08220E-01 2.45591E-29
6.12476E-01 2.39183E-29
6.16723E-01 2.32949E-29
6.20961E-01 2.26883E-29
6.25190E-01 2.20982E-29
6.29410E-01 2.15239E-29
6.33619E-01 2.09649E-29
6.37819E-01 2.04209E-29
6.42008E-01 1.98913E-29
6.46186E-01 1.93758E-29
6.50353E-01 1.88740E-29
6.54508E-01 1.83853E-29
6.58652E-01 1.79095E-29
6.62784E-01 1.74462E-29
6.66903E-01 1.69949E-29
6.71010E-01 1.65554E-29
6.75104E-01 1.61273E-29
6.79184E-01 1.57103E-29
6.83251E-01 1.53040E-29
6.87303E-01 1.49082E-29
6.91342E-01 1.45225E-29
6.95366E-01 1.41467E-29
6.99375E-01 1.37805E-29
7.03368E-01 1.34236E-29
7.07347E-01 1.30758E-29
7.11309E-01 1.27367E-29
7.15256E-01 1.24063E-29
7.19186E-01 1.20841E-29
7.23099E-01 1.17700E-29
7.26995E-01 1.14638E-29
7.30874E-01 1.11653E-29
7.34736E-01 1.08742E-29
7.38579E-01 1.05903E-29
7.42405E-01 1.03134E-29
7.46212E-01 1.00435E-29
7.50000E-01 9.78014E-30
7.53769E-01 9.52332E-30
7.57519E-01 9.27281E-30
7.61249E-01 9.02844E-30
7.64960E-01 8.79005E-30
7.68650E-01 8.55750E-30
7.72320E-01 8.33061E-30
7.75968E-01 8.10925E-30
7.79596E-01 7.89326E-30
7.83203E-01 7.68251E-30
7.86788E-01 7.47686E-30
7.90351E-01 7.27618E-30
7.93893E-01 7.08036E-30
7.97411E-01 6.88924E-30
8.00908E-01 6.70271E-30
8.04381E-01 6.52068E-30
8.07831E-01 6.34300E-30
8.11257E-01 6.16958E-30
8.14660E-01 6.00031E-30
8.18039E-01 5.83509E-30
8.21394E-01 5.67381E-30
8.24724E-01 5.51638E-30
8.28030E-01 5.36269E-30
8.31310E-01 5.21267E-30
8.34565E-01 5.06621E-30
8.37795E-01 4.92323E-30
8.40999E-01 4.78365E-30
8.44177E-01 4.64737E-30
8.47329E-01 4.51434E-30
8.50455E-01 4.38445E-30
8.53553E-01 4.25765E-30
8.56625E-01 4.13385E-30
8.59670E-01 4.01298E-30
8.62687E-01 3.89499E-30
8.65677E-01 3.77979E-30
8.68639E-01 3.66731E-30
8.71572E-01 3.55750E-30
8.74478E-01 3.45031E-30
8.77355E-01 3.34566E-30
8.80203E-01 3.24348E-30
8.83022E-01 3.14375E-30
8.85812E-01 3.04638E-30
8.88573E-01 2.95134E-30
8.91304E-01 2.85857E-30
8.94005E-01 2.76801E-30
8.96677E-01 2.67962E-30
8.99318E-01 2.59335E-30
9.01928E-01 2.50916E-30
9.04508E-01 2.42699E-30
9.07058E-01 2.34681E-30
9.09576E-01 2.26856E-30
9.12063E-01 2.19222E-30
9.14519E-01 2.11773E-30
9.16943E-01 2.04506E-30
9.19335E-01 1.97417E-30
9.21696E-01 1.90503E-30
9.24024E-01 1.83759E-30
9.26320E-01 1.77183E-30
9.28584E-01 1.70770E-30
9.30815E-01 1.64517E-30
9.33013E-01 1.58422E-30
9.35178E-01 1.52480E-30
9.37310E-01 1.46690E-30
9.39409E-01 1.41048E-30
9.41474E-01 1.35550E-30
9.43505E-01 1.30195E-30
9.45503E-01 1.24979E-30
9.47467E-01 1.19901E-30
9.49397E-01 1.14957E-30
9.51293E-01 1.10145E-30
9.53154E-01 1.05462E-30
9.54981E-01 1.00907E-30
9.56773E-01 9.64769E-31
9.58530E-01 9.21685E-31
9.60252E-01 8.79813E-31
9.61940E-01 8.39122E-31
9.63592E-01 7.99597E-31
9.65209E-01 7.61220E-31
9.66790E-01 7.23963E-31
9.68336E-01 6.87821E-31
9.69846E-01 6.52763E-31
9.71321E-01 6.18781E-31
9.72759E-01 5.85855E-31
9.74162E-01 5.53966E-31
9.75528E-01 5.23108E-31
9.76858E-01 4.93257E-31
9.78152E-01 4.64403E-31
9.79410E-01 4.36531E-31
9.80631E-01 4.09625E-31
9.81815E-01 3.83674E-31
9.82963E-01 3.58669E-31
9.84074E-01 3.34595E-31
9.85148E-01 3.11439E-31
9.86185E-01 2.89193E-31
9.87185E-01 2.67842E-31
9.88148E-01 2.47381E-31
9.89074E-01 2.27798E-31
9.89962E-01 2.09084E-31
9.90814E-01 1.91228E-31
9.91627E-01 1.74224E-31
9.92404E-01 1.58064E-31
9.93143E-01 1.42738E-31
9.93844E-01 1.28243E-31
9.94508E-01 1.14569E-31
9.95134E-01 1.01711E-31
9.95722E-01 8.96603E-32
9.96273E-01 7.84133E-32
9.96786E-01 6.79668E-32
9.97261E-01 5.83141E-32
9.97698E-01 4.94447E-32
9.98097E-01 4.13655E-32
9.98459E-01 3.40665E-32
9.98782E-01 2.75427E-32
9.99067E-01 2.17949E-32
9.99315E-01 1.68195E-32
9.99524E-01 1.26114E-32
9.99695E-01 9.17270E-33
9.99829E-01 6.49979E-33
9.99924E-01 4.59167E-33
9.99981E-01 3.44714E-33
1.00000E+00 3.06951E-33
