 #
 # Subroutine ELSEPA. Elastic scattering of electrons and positrons
 #                    by neutral atoms and positive ions
 #
 # Projectile: electron
 # Kinetic energy = 9.00000E+08 eV = 3.30744E+07 a.u.
 #
 # WARNING: High-energy factorization with free-atom DF screening.
 #          Absorption, polarization and exchange corrections are
 #          switched off.
 #          Phase shifts are calculated for the bare nucleus.
 #          Scattering amplitudes are not evaluated.
 #
 # Element: Li,  Z =   3,  atomic weight = 6.94100E+00 g/mol
 #
 # Nuclear model: Fermi distribution
 #                Average radius = 2.04107E-13 cm
 #                Skin thickness = 5.46000E-14 cm
 #
 # Number of electrons =  3
 #
 # Total elastic cross section = 1.01949E-19 cm**2 = 3.64068E-03 a0**2
 # 1st transport cross section = 2.60655E-29 cm**2 = 9.30817E-13 a0**2
 # 2nd transport cross section = 7.81729E-29 cm**2 = 2.79161E-12 a0**2
 #
 #
 # Differential cross section:                       MU=(1-COS(THETA))/2
 #
 #  THETA        MU          DCS          DCS        Sherman      error
 #  (deg)                 (cm**2/sr)   (a0**2/sr)    function
 #----------------------------------------------------------------------
0.00000E+00 3.35297E-09
7.61557E-13 2.03382E-09
1.18994E-12 1.58492E-09
1.71346E-12 1.19984E-09
2.33225E-12 8.97613E-10
3.04617E-12 6.59197E-10
3.85530E-12 4.88521E-10
4.75964E-12 3.62906E-10
5.75917E-12 2.71343E-10
6.85391E-12 2.07875E-10
8.04379E-12 1.60702E-10
9.32893E-12 1.26444E-10
1.07092E-11 1.01417E-10
1.21847E-11 8.22978E-11
1.37554E-11 6.79734E-11
1.54213E-11 5.68554E-11
1.71823E-11 4.80523E-11
1.90386E-11 4.11626E-11
2.09900E-11 3.55513E-11
2.30367E-11 3.09652E-11
2.51785E-11 2.71957E-11
2.74156E-11 2.40319E-11
2.97478E-11 2.13679E-11
3.21752E-11 1.90984E-11
3.46979E-11 1.71507E-11
3.73157E-11 1.54656E-11
4.00286E-11 1.39978E-11
4.28368E-11 1.27155E-11
4.57402E-11 1.15715E-11
4.87388E-11 1.05660E-11
5.18325E-11 9.67785E-12
5.50215E-11 8.88313E-12
5.83057E-11 8.17407E-12
6.16850E-11 7.53500E-12
6.51595E-11 6.95716E-12
6.87293E-11 6.43629E-12
7.23943E-11 5.95978E-12
7.61544E-11 5.52701E-12
1.18991E-10 2.77026E-12
1.71347E-10 1.51789E-12
2.33223E-10 8.88259E-13
3.04617E-10 5.48388E-13
3.85531E-10 3.54632E-13
4.75965E-10 2.38277E-13
5.75917E-10 1.65411E-13
6.85389E-10 1.18174E-13
8.04380E-10 8.65036E-14
9.32891E-10 6.47063E-14
1.07092E-09 4.93240E-14
1.21847E-09 3.82321E-14
1.37554E-09 3.00776E-14
1.54213E-09 2.39785E-14
1.71823E-09 1.93460E-14
1.90386E-09 1.57767E-14
2.09900E-09 1.29926E-14
2.30367E-09 1.07952E-14
2.51785E-09 9.04245E-15
2.74156E-09 7.63059E-15
2.97478E-09 6.48260E-15
3.21752E-09 5.54256E-15
3.46978E-09 4.76687E-15
3.73156E-09 4.12222E-15
4.00286E-09 3.58294E-15
4.28368E-09 3.12901E-15
4.57402E-09 2.74473E-15
4.87388E-09 2.41767E-15
5.18326E-09 2.13790E-15
5.50215E-09 1.89744E-15
5.83057E-09 1.68986E-15
6.16850E-09 1.50990E-15
6.51596E-09 1.35327E-15
6.87293E-09 1.21642E-15
7.23942E-09 1.09645E-15
7.61544E-09 9.90906E-16
1.18991E-08 4.06040E-16
1.71347E-08 1.95858E-16
2.33223E-08 1.05733E-16
3.04617E-08 6.19843E-17
3.85531E-08 3.86988E-17
4.75965E-08 2.53914E-17
5.75917E-08 1.73433E-17
6.85389E-08 1.22458E-17
8.04380E-08 8.89094E-18
9.32891E-08 6.61022E-18
1.07092E-07 5.01613E-18
1.21847E-07 3.87488E-18
1.37554E-07 3.04051E-18
1.54213E-07 2.41911E-18
1.71823E-07 1.94866E-18
1.90386E-07 1.58720E-18
2.09900E-07 1.30580E-18
2.30367E-07 1.08409E-18
2.51785E-07 9.07502E-19
2.74156E-07 7.65448E-19
2.97478E-07 6.50133E-19
3.21752E-07 5.55739E-19
3.46978E-07 4.77871E-19
3.73156E-07 4.13176E-19
4.00286E-07 3.59068E-19
4.28368E-07 3.13534E-19
4.57402E-07 2.74995E-19
4.87388E-07 2.42199E-19
5.18325E-07 2.14150E-19
5.50215E-07 1.90046E-19
5.83057E-07 1.69240E-19
6.16850E-07 1.51205E-19
6.51596E-07 1.35510E-19
6.87293E-07 1.21799E-19
7.23942E-07 1.09779E-19
7.61543E-07 9.92065E-20
1.18991E-06 4.06358E-20
1.71347E-06 1.95971E-20
2.33223E-06 1.05782E-20
3.04617E-06 6.20084E-21
3.85531E-06 3.87122E-21
4.75964E-06 2.53995E-21
5.75916E-06 1.73484E-21
6.85388E-06 1.22494E-21
8.04378E-06 8.89348E-22
9.32888E-06 6.61211E-22
1.07092E-05 5.01758E-22
1.21846E-05 3.87602E-22
1.37553E-05 3.04143E-22
1.54212E-05 2.41986E-22
1.71822E-05 1.94927E-22
1.90385E-05 1.59070E-22
2.09899E-05 1.30834E-22
2.30365E-05 1.08532E-22
2.51783E-05 9.07674E-23
2.74153E-05 7.65053E-23
2.97475E-05 6.49639E-23
3.21749E-05 5.55442E-23
3.46974E-05 4.77869E-23
3.73152E-05 4.13417E-23
4.00281E-05 3.59427E-23
4.28362E-05 3.13886E-23
4.57395E-05 2.75257E-23
4.87380E-05 2.42346E-23
5.18317E-05 2.14202E-23
5.50205E-05 1.90048E-23
5.83045E-05 1.69237E-23
6.16838E-05 1.51227E-23
6.51582E-05 1.35566E-23
6.87277E-05 1.21882E-23
7.23925E-05 1.09872E-23
7.61524E-05 9.79119E-24
9.21439E-05 6.66417E-24
1.09658E-04 4.69239E-24
1.28695E-04 3.39440E-24
1.49255E-04 2.51419E-24
1.71338E-04 1.90047E-24
1.94942E-04 1.46148E-24
2.20070E-04 1.14176E-24
2.46720E-04 9.03870E-25
2.74892E-04 7.24400E-25
3.04586E-04 5.86841E-25
3.35803E-04 4.80021E-25
3.68542E-04 3.96175E-25
4.02802E-04 3.29539E-25
4.38585E-04 2.76161E-25
4.75889E-04 2.32953E-25
5.14715E-04 1.97719E-25
5.55063E-04 1.68770E-25
5.96931E-04 1.44800E-25
6.40321E-04 1.24849E-25
6.85233E-04 1.08120E-25
7.31665E-04 9.40286E-26
7.79618E-04 8.20913E-26
8.29092E-04 7.19282E-26
8.80086E-04 6.32412E-26
9.32601E-04 5.57771E-26
9.86636E-04 4.93440E-26
1.04219E-03 4.37742E-26
1.09927E-03 3.89362E-26
1.15786E-03 3.47201E-26
1.21797E-03 3.10324E-26
1.27961E-03 2.77993E-26
1.34276E-03 2.49545E-26
1.40743E-03 2.24461E-26
1.47362E-03 2.02279E-26
1.54133E-03 1.82613E-26
1.61056E-03 1.65144E-26
1.68131E-03 1.49583E-26
1.75357E-03 1.35701E-26
1.82735E-03 1.23284E-26
1.90265E-03 1.12161E-26
1.97947E-03 1.02177E-26
2.05780E-03 9.31980E-27
2.13765E-03 8.51127E-27
2.21902E-03 7.78167E-27
2.30190E-03 7.12252E-27
2.38630E-03 6.52605E-27
2.47222E-03 5.98547E-27
2.55965E-03 5.49503E-27
2.64859E-03 5.04930E-27
2.73905E-03 4.64389E-27
2.83103E-03 4.27456E-27
2.92452E-03 3.93778E-27
3.01952E-03 3.63035E-27
3.11604E-03 3.34934E-27
3.21407E-03 3.09232E-27
3.31362E-03 2.85691E-27
3.41468E-03 2.64115E-27
3.51725E-03 2.44321E-27
3.62133E-03 2.26142E-27
3.72692E-03 2.09439E-27
3.83403E-03 1.94072E-27
3.94265E-03 1.79929E-27
4.05278E-03 1.66899E-27
4.16442E-03 1.54888E-27
4.27757E-03 1.43808E-27
4.39223E-03 1.33578E-27
4.50840E-03 1.24130E-27
4.62608E-03 1.15396E-27
4.74527E-03 1.07318E-27
4.86597E-03 9.98435E-28
4.98817E-03 9.29218E-28
5.11188E-03 8.65102E-28
5.23711E-03 8.05664E-28
5.36383E-03 7.50550E-28
5.49207E-03 6.99411E-28
5.62181E-03 6.51941E-28
5.75306E-03 6.07862E-28
5.88581E-03 5.66904E-28
6.02007E-03 5.28842E-28
6.15583E-03 4.93447E-28
6.29310E-03 4.60527E-28
6.43187E-03 4.29894E-28
6.57214E-03 4.01378E-28
6.71392E-03 3.74829E-28
6.85720E-03 3.50096E-28
7.00198E-03 3.27054E-28
7.14827E-03 3.05577E-28
7.29605E-03 2.85554E-28
7.44534E-03 2.66883E-28
7.59612E-03 2.49465E-28
7.97965E-03 2.10847E-28
8.37255E-03 1.78327E-28
8.77480E-03 1.50905E-28
9.18641E-03 1.27756E-28
9.60736E-03 1.08193E-28
1.00376E-02 9.16464E-29
1.04773E-02 7.76401E-29
1.09262E-02 6.57763E-29
1.13844E-02 5.57220E-29
1.18520E-02 4.71975E-29
1.23288E-02 3.99676E-29
1.28150E-02 3.38343E-29
1.33104E-02 2.86306E-29
1.38150E-02 2.42153E-29
1.43290E-02 2.04692E-29
1.48521E-02 1.72913E-29
1.53845E-02 1.45959E-29
1.59262E-02 1.23105E-29
1.64770E-02 1.03735E-29
1.70371E-02 8.73253E-30
1.76063E-02 7.34309E-30
1.81848E-02 6.16738E-30
1.87724E-02 5.17325E-30
1.93692E-02 4.33332E-30
1.99751E-02 3.62432E-30
2.05901E-02 3.02642E-30
2.12143E-02 2.52276E-30
2.18476E-02 2.09899E-30
2.24900E-02 1.74288E-30
2.31415E-02 1.44406E-30
2.38021E-02 1.19369E-30
2.44717E-02 9.84242E-31
2.51504E-02 8.09350E-31
2.58382E-02 6.63586E-31
2.65349E-02 5.42351E-31
2.72407E-02 4.41742E-31
2.79555E-02 3.58451E-31
2.86793E-02 2.89679E-31
2.94120E-02 2.33058E-31
3.01537E-02 1.86585E-31
3.09043E-02 1.48572E-31
3.16639E-02 1.17596E-31
3.24324E-02 9.24570E-32
3.32098E-02 7.21494E-32
3.39961E-02 5.58280E-32
3.47912E-02 4.27854E-32
3.55952E-02 3.24303E-32
3.64081E-02 2.42695E-32
3.72297E-02 1.78928E-32
3.80602E-02 1.29595E-32
3.88995E-02 9.18794E-33
3.97476E-02 6.34559E-33
4.06044E-02 4.24130E-33
4.14700E-02 2.71856E-33
4.23443E-02 1.64965E-33
4.32273E-02 9.30928E-34
4.41190E-02 4.78696E-34
4.50194E-02 2.25786E-34
4.59284E-02 1.18675E-34
4.68461E-02 1.15055E-34
4.87074E-02 2.93286E-34
5.06030E-02 5.77145E-34
5.25328E-02 8.63341E-34
5.44967E-02 1.09966E-33
5.64946E-02 1.26539E-33
5.85262E-02 1.35819E-33
6.05914E-02 1.38558E-33
6.26901E-02 1.35956E-33
6.48222E-02 1.29328E-33
6.69873E-02 1.19927E-33
6.91854E-02 1.08839E-33
7.14163E-02 9.69522E-34
7.36799E-02 8.49552E-34
7.59760E-02 7.33481E-34
7.83043E-02 6.24739E-34
8.06647E-02 5.25437E-34
8.30571E-02 4.36670E-34
8.54812E-02 3.58760E-34
8.79369E-02 2.91470E-34
9.04240E-02 2.34200E-34
9.29422E-02 1.86112E-34
9.54915E-02 1.46243E-34
9.80716E-02 1.13589E-34
1.00682E-01 8.71653E-35
1.03323E-01 6.60341E-35
1.05995E-01 4.93382E-35
1.08696E-01 3.63102E-35
1.11427E-01 2.62750E-35
1.14188E-01 1.86529E-35
1.16978E-01 1.29520E-35
1.19797E-01 8.76071E-36
1.22645E-01 5.73949E-36
1.25522E-01 3.61217E-36
1.28428E-01 2.15682E-36
1.31361E-01 1.19768E-36
1.34323E-01 5.97541E-37
1.37313E-01 2.50270E-37
1.40330E-01 7.53808E-38
1.43375E-01 1.32717E-38
1.46447E-01 2.03287E-38
1.49545E-01 6.55807E-38
1.52671E-01 1.27851E-37
1.55823E-01 1.93046E-37
1.59001E-01 2.52538E-37
1.62205E-01 3.01580E-37
1.65435E-01 3.38060E-37
1.68690E-01 3.61498E-37
1.71970E-01 3.72873E-37
1.75276E-01 3.73598E-37
1.78606E-01 3.65397E-37
1.81961E-01 3.50149E-37
1.85340E-01 3.29695E-37
1.88743E-01 3.05735E-37
1.92169E-01 2.79636E-37
1.95619E-01 2.52521E-37
1.99092E-01 2.25545E-37
2.02589E-01 1.99316E-37
2.06107E-01 1.74415E-37
2.09649E-01 1.51306E-37
2.13212E-01 1.30114E-37
2.16797E-01 1.10949E-37
2.20404E-01 9.38057E-38
2.24032E-01 7.87634E-38
2.27680E-01 6.55869E-38
2.31350E-01 5.41805E-38
2.35040E-01 4.43934E-38
2.38751E-01 3.60756E-38
2.42481E-01 2.90912E-38
2.46231E-01 2.32367E-38
2.50000E-01 1.84181E-38
2.53788E-01 1.44549E-38
2.57595E-01 1.12441E-38
2.61421E-01 8.65641E-39
2.65264E-01 6.59070E-39
2.69126E-01 4.96957E-39
2.73005E-01 3.69493E-39
2.76901E-01 2.72011E-39
2.80814E-01 1.96490E-39
2.84744E-01 1.40004E-39
2.88691E-01 9.76758E-40
2.92653E-01 6.65532E-40
2.96632E-01 4.39412E-40
3.00625E-01 2.78849E-40
3.04634E-01 1.69520E-40
3.08658E-01 9.71462E-41
3.12697E-01 1.00000E-45
3.16749E-01 1.00000E-45
3.20816E-01 1.00000E-45
3.24896E-01 1.00000E-45
3.28990E-01 1.00000E-45
3.33097E-01 1.00000E-45
3.37216E-01 1.00000E-45
3.41348E-01 1.00000E-45
3.45492E-01 1.00000E-45
3.49647E-01 1.00000E-45
3.53814E-01 1.00000E-45
3.57992E-01 1.00000E-45
3.62181E-01 1.00000E-45
3.66381E-01 1.00000E-45
3.70590E-01 1.00000E-45
3.74810E-01 1.00000E-45
3.79039E-01 1.00000E-45
3.83277E-01 1.00000E-45
3.87524E-01 1.00000E-45
3.91780E-01 1.00000E-45
3.96044E-01 1.00000E-45
4.00316E-01 1.00000E-45
4.04596E-01 1.00000E-45
4.08882E-01 1.00000E-45
4.13176E-01 1.00000E-45
4.17476E-01 1.00000E-45
4.21783E-01 1.00000E-45
4.26095E-01 1.00000E-45
4.30413E-01 1.00000E-45
4.34737E-01 1.00000E-45
4.39065E-01 1.00000E-45
4.43398E-01 1.00000E-45
4.47736E-01 1.00000E-45
4.52077E-01 1.00000E-45
4.56422E-01 1.00000E-45
4.60770E-01 1.00000E-45
4.65122E-01 1.00000E-45
4.69476E-01 1.00000E-45
4.73832E-01 1.00000E-45
4.78190E-01 1.00000E-45
4.82550E-01 1.00000E-45
4.86912E-01 1.00000E-45
4.91274E-01 1.00000E-45
4.95637E-01 1.00000E-45
5.00000E-01 1.00000E-45
5.04363E-01 1.00000E-45
5.08726E-01 1.00000E-45
5.13088E-01 1.00000E-45
5.17450E-01 1.00000E-45
5.21810E-01 1.00000E-45
5.26168E-01 1.00000E-45
5.30524E-01 1.00000E-45
5.34878E-01 1.00000E-45
5.39230E-01 1.00000E-45
5.43578E-01 1.00000E-45
5.47923E-01 1.00000E-45
5.52264E-01 1.00000E-45
5.56602E-01 1.00000E-45
5.60935E-01 1.00000E-45
5.65263E-01 1.00000E-45
5.69587E-01 1.00000E-45
5.73905E-01 1.00000E-45
5.78217E-01 1.00000E-45
5.82524E-01 1.00000E-45
5.86824E-01 1.00000E-45
5.91118E-01 1.00000E-45
5.95404E-01 1.00000E-45
5.99684E-01 1.00000E-45
6.03956E-01 1.00000E-45
6.08220E-01 1.00000E-45
6.12476E-01 1.00000E-45
6.16723E-01 1.00000E-45
6.20961E-01 1.00000E-45
6.25190E-01 1.00000E-45
6.29410E-01 1.00000E-45
6.33619E-01 1.00000E-45
6.37819E-01 1.00000E-45
6.42008E-01 1.00000E-45
6.46186E-01 1.00000E-45
6.50353E-01 1.00000E-45
6.54508E-01 1.00000E-45
6.58652E-01 1.00000E-45
6.62784E-01 1.00000E-45
6.66903E-01 1.00000E-45
6.71010E-01 1.00000E-45
6.75104E-01 1.00000E-45
6.79184E-01 1.00000E-45
6.83251E-01 1.00000E-45
6.87303E-01 1.00000E-45
6.91342E-01 1.00000E-45
6.95366E-01 1.00000E-45
6.99375E-01 1.00000E-45
7.03368E-01 1.00000E-45
7.07347E-01 1.00000E-45
7.11309E-01 1.00000E-45
7.15256E-01 1.00000E-45
7.19186E-01 1.00000E-45
7.23099E-01 1.00000E-45
7.26995E-01 1.00000E-45
7.30874E-01 1.00000E-45
7.34736E-01 1.00000E-45
7.38579E-01 1.00000E-45
7.42405E-01 1.00000E-45
7.46212E-01 1.00000E-45
7.50000E-01 1.00000E-45
7.53769E-01 1.00000E-45
7.57519E-01 1.00000E-45
7.61249E-01 1.00000E-45
7.64960E-01 1.00000E-45
7.68650E-01 1.00000E-45
7.72320E-01 1.00000E-45
7.75968E-01 1.00000E-45
7.79596E-01 1.00000E-45
7.83203E-01 1.00000E-45
7.86788E-01 1.00000E-45
7.90351E-01 1.00000E-45
7.93893E-01 1.00000E-45
7.97411E-01 1.00000E-45
8.00908E-01 1.00000E-45
8.04381E-01 1.00000E-45
8.07831E-01 1.00000E-45
8.11257E-01 1.00000E-45
8.14660E-01 1.00000E-45
8.18039E-01 1.00000E-45
8.21394E-01 1.00000E-45
8.24724E-01 1.00000E-45
8.28030E-01 1.00000E-45
8.31310E-01 1.00000E-45
8.34565E-01 1.00000E-45
8.37795E-01 1.00000E-45
8.40999E-01 1.00000E-45
8.44177E-01 1.00000E-45
8.47329E-01 1.00000E-45
8.50455E-01 1.00000E-45
8.53553E-01 1.00000E-45
8.56625E-01 1.00000E-45
8.59670E-01 1.00000E-45
8.62687E-01 1.00000E-45
8.65677E-01 1.00000E-45
8.68639E-01 1.00000E-45
8.71572E-01 1.00000E-45
8.74478E-01 1.00000E-45
8.77355E-01 1.00000E-45
8.80203E-01 1.00000E-45
8.83022E-01 1.00000E-45
8.85812E-01 1.00000E-45
8.88573E-01 1.00000E-45
8.91304E-01 1.00000E-45
8.94005E-01 1.00000E-45
8.96677E-01 1.00000E-45
8.99318E-01 1.00000E-45
9.01928E-01 1.00000E-45
9.04508E-01 1.00000E-45
9.07058E-01 1.00000E-45
9.09576E-01 1.00000E-45
9.12063E-01 1.00000E-45
9.14519E-01 1.00000E-45
9.16943E-01 1.00000E-45
9.19335E-01 1.00000E-45
9.21696E-01 1.00000E-45
9.24024E-01 1.00000E-45
9.26320E-01 1.00000E-45
9.28584E-01 1.00000E-45
9.30815E-01 1.00000E-45
9.33013E-01 1.00000E-45
9.35178E-01 1.00000E-45
9.37310E-01 1.00000E-45
9.39409E-01 1.00000E-45
9.41474E-01 1.00000E-45
9.43505E-01 1.00000E-45
9.45503E-01 1.00000E-45
9.47467E-01 1.00000E-45
9.49397E-01 1.00000E-45
9.51293E-01 1.00000E-45
9.53154E-01 1.00000E-45
9.54981E-01 1.00000E-45
9.56773E-01 1.00000E-45
9.58530E-01 1.00000E-45
9.60252E-01 1.00000E-45
9.61940E-01 1.00000E-45
9.63592E-01 1.00000E-45
9.65209E-01 1.00000E-45
9.66790E-01 1.00000E-45
9.68336E-01 1.00000E-45
9.69846E-01 1.00000E-45
9.71321E-01 1.00000E-45
9.72759E-01 1.00000E-45
9.74162E-01 1.00000E-45
9.75528E-01 1.00000E-45
9.76858E-01 1.00000E-45
9.78152E-01 1.00000E-45
9.79410E-01 1.00000E-45
9.80631E-01 1.00000E-45
9.81815E-01 1.00000E-45
9.82963E-01 1.00000E-45
9.84074E-01 1.00000E-45
9.85148E-01 1.00000E-45
9.86185E-01 1.00000E-45
9.87185E-01 1.00000E-45
9.88148E-01 1.00000E-45
9.89074E-01 1.00000E-45
9.89962E-01 1.00000E-45
9.90814E-01 1.00000E-45
9.91627E-01 1.00000E-45
9.92404E-01 1.00000E-45
9.93143E-01 1.00000E-45
9.93844E-01 1.00000E-45
9.94508E-01 1.00000E-45
9.95134E-01 1.00000E-45
9.95722E-01 1.00000E-45
9.96273E-01 1.00000E-45
9.96786E-01 1.00000E-45
9.97261E-01 1.00000E-45
9.97698E-01 1.00000E-45
9.98097E-01 1.00000E-45
9.98459E-01 1.00000E-45
9.98782E-01 1.00000E-45
9.99067E-01 1.00000E-45
9.99315E-01 1.00000E-45
9.99524E-01 1.00000E-45
9.99695E-01 1.00000E-45
9.99829E-01 1.00000E-45
9.99924E-01 1.00000E-45
9.99981E-01 1.00000E-45
1.00000E+00 1.00000E-45
