 #
 # Subroutine ELSEPA. Elastic scattering of electrons and positrons
 #                    by neutral atoms and positive ions
 #
 # Projectile: electron
 # Kinetic energy = 5.00000E+08 eV = 1.83747E+07 a.u.
 #
 # WARNING: High-energy factorization with free-atom DF screening.
 #          Absorption, polarization and exchange corrections are
 #          switched off.
 #          Phase shifts are calculated for the bare nucleus.
 #          Scattering amplitudes are not evaluated.
 #
 # Element: Li,  Z =   3,  atomic weight = 6.94100E+00 g/mol
 #
 # Nuclear model: Fermi distribution
 #                Average radius = 2.04107E-13 cm
 #                Skin thickness = 5.46000E-14 cm
 #
 # Number of electrons =  3
 #
 # Total elastic cross section = 1.06816E-19 cm**2 = 3.81446E-03 a0**2
 # 1st transport cross section = 8.43453E-29 cm**2 = 3.01202E-12 a0**2
 # 2nd transport cross section = 2.52791E-28 cm**2 = 9.02734E-12 a0**2
 #
 #
 # Differential cross section:                       MU=(1-COS(THETA))/2
 #
 #  THETA        MU          DCS          DCS        Sherman      error
 #  (deg)                 (cm**2/sr)   (a0**2/sr)    function
 #----------------------------------------------------------------------
0.00000E+00 1.03581E-09
7.61557E-13 8.80087E-10
1.18994E-12 8.05811E-10
1.71346E-12 7.25803E-10
2.33225E-12 6.44220E-10
3.04617E-12 5.64515E-10
3.85530E-12 4.89328E-10
4.75964E-12 4.20376E-10
5.75917E-12 3.58627E-10
6.85391E-12 3.05618E-10
8.04379E-12 2.59039E-10
9.32893E-12 2.17744E-10
1.07092E-11 1.84435E-10
1.21847E-11 1.55964E-10
1.37554E-11 1.31197E-10
1.54213E-11 1.11964E-10
1.71823E-11 9.53604E-11
1.90386E-11 8.11593E-11
2.09900E-11 7.00683E-11
2.30367E-11 6.04332E-11
2.51785E-11 5.22950E-11
2.74156E-11 4.57597E-11
2.97478E-11 4.00534E-11
3.21752E-11 3.52583E-11
3.46979E-11 3.12842E-11
3.73157E-11 2.77887E-11
4.00286E-11 2.48479E-11
4.28368E-11 2.23361E-11
4.57402E-11 2.01089E-11
4.87388E-11 1.82230E-11
5.18325E-11 1.65702E-11
5.50215E-11 1.50932E-11
5.83057E-11 1.38289E-11
6.16850E-11 1.26986E-11
6.51595E-11 1.16833E-11
6.87293E-11 1.07979E-11
7.23943E-11 9.99689E-12
7.61544E-11 9.27479E-12
1.18991E-10 4.88062E-12
1.71347E-10 2.90112E-12
2.33223E-10 1.85419E-12
3.04617E-10 1.23759E-12
3.85531E-10 8.54560E-13
4.75965E-10 6.06433E-13
5.75917E-10 4.39728E-13
6.85389E-10 3.24920E-13
8.04380E-10 2.44847E-13
9.32891E-10 1.87443E-13
1.07092E-09 1.45612E-13
1.21847E-09 1.14601E-13
1.37554E-09 9.12627E-14
1.54213E-09 7.34828E-14
1.71823E-09 5.97665E-14
1.90386E-09 4.90737E-14
2.09900E-09 4.06434E-14
2.30367E-09 3.39292E-14
2.51785E-09 2.85344E-14
2.74156E-09 2.41621E-14
2.97478E-09 2.05885E-14
3.21752E-09 1.76479E-14
3.46978E-09 1.52101E-14
3.73156E-09 1.31773E-14
4.00286E-09 1.14714E-14
4.28368E-09 1.00315E-14
4.57402E-09 8.80974E-15
4.87388E-09 7.76792E-15
5.18326E-09 6.87483E-15
5.50215E-09 6.10630E-15
5.83057E-09 5.44176E-15
6.16850E-09 4.86500E-15
6.51596E-09 4.36254E-15
6.87293E-09 3.92314E-15
7.23942E-09 3.53757E-15
7.61544E-09 3.19818E-15
1.18991E-08 1.31226E-15
1.71347E-08 6.33295E-16
2.33223E-08 3.41984E-16
3.04617E-08 2.00521E-16
3.85531E-08 1.25208E-16
4.75965E-08 8.21606E-17
5.75917E-08 5.61225E-17
6.85389E-08 3.96294E-17
8.04380E-08 2.87737E-17
9.32891E-08 2.13933E-17
1.07092E-07 1.62346E-17
1.21847E-07 1.25413E-17
1.37554E-07 9.84097E-18
1.54213E-07 7.82986E-18
1.71823E-07 6.30722E-18
1.90386E-07 5.13736E-18
2.09900E-07 4.22658E-18
2.30367E-07 3.50898E-18
2.51785E-07 2.93742E-18
2.74156E-07 2.47763E-18
2.97478E-07 2.10439E-18
3.21752E-07 1.79886E-18
3.46978E-07 1.54681E-18
3.73156E-07 1.33741E-18
4.00286E-07 1.16227E-18
4.28368E-07 1.01488E-18
4.57402E-07 8.90138E-19
4.87388E-07 7.83983E-19
5.18325E-07 6.93191E-19
5.50215E-07 6.15170E-19
5.83057E-07 5.47823E-19
6.16850E-07 4.89445E-19
6.51596E-07 4.38641E-19
6.87293E-07 3.94260E-19
7.23942E-07 3.55354E-19
7.61543E-07 3.21130E-19
1.18991E-06 1.31538E-19
1.71347E-06 6.34363E-20
2.33223E-06 3.42420E-20
3.04617E-06 2.00724E-20
3.85531E-06 1.25313E-20
4.75964E-06 8.22194E-21
5.75916E-06 5.61579E-21
6.85388E-06 3.96518E-21
8.04378E-06 2.87887E-21
9.32888E-06 2.14038E-21
1.07092E-05 1.62422E-21
1.21846E-05 1.25469E-21
1.37553E-05 9.84528E-22
1.54212E-05 7.83323E-22
1.71822E-05 6.30992E-22
1.90385E-05 5.14918E-22
2.09899E-05 4.23519E-22
2.30365E-05 3.51326E-22
2.51783E-05 2.93820E-22
2.74153E-05 2.47653E-22
2.97475E-05 2.10292E-22
3.21749E-05 1.79800E-22
3.46974E-05 1.54689E-22
3.73152E-05 1.33826E-22
4.00281E-05 1.16349E-22
4.28362E-05 1.01607E-22
4.57395E-05 8.91023E-23
4.87380E-05 7.84488E-23
5.18317E-05 6.93384E-23
5.50205E-05 6.15196E-23
5.83045E-05 5.47831E-23
6.16838E-05 4.89532E-23
6.51582E-05 4.38837E-23
6.87277E-05 3.94541E-23
7.23925E-05 3.55664E-23
7.61524E-05 3.20024E-23
9.21439E-05 2.18262E-23
1.09658E-04 1.54025E-23
1.28695E-04 1.11689E-23
1.49255E-04 8.29436E-24
1.71338E-04 6.28730E-24
1.94942E-04 4.84953E-24
2.20070E-04 3.80072E-24
2.46720E-04 3.01905E-24
2.74892E-04 2.42827E-24
3.04586E-04 1.97459E-24
3.35803E-04 1.62159E-24
3.68542E-04 1.34392E-24
4.02802E-04 1.12275E-24
4.38585E-04 9.45169E-25
4.75889E-04 8.01076E-25
5.14715E-04 6.83272E-25
5.55063E-04 5.86224E-25
5.96931E-04 5.05644E-25
6.40321E-04 4.38376E-25
6.85233E-04 3.81804E-25
7.31665E-04 3.34004E-25
7.79618E-04 2.93378E-25
8.29092E-04 2.58674E-25
8.80086E-04 2.28906E-25
9.32601E-04 2.03236E-25
9.86636E-04 1.81029E-25
1.04219E-03 1.61727E-25
1.09927E-03 1.44895E-25
1.15786E-03 1.30166E-25
1.21797E-03 1.17228E-25
1.27961E-03 1.05835E-25
1.34276E-03 9.57657E-26
1.40743E-03 8.68454E-26
1.47362E-03 7.89193E-26
1.54133E-03 7.18579E-26
1.61056E-03 6.55536E-26
1.68131E-03 5.99086E-26
1.75357E-03 5.48456E-26
1.82735E-03 5.02926E-26
1.90265E-03 4.61906E-26
1.97947E-03 4.24878E-26
2.05780E-03 3.91379E-26
2.13765E-03 3.61032E-26
2.21902E-03 3.33477E-26
2.30190E-03 3.08425E-26
2.38630E-03 2.85607E-26
2.47222E-03 2.64790E-26
2.55965E-03 2.45776E-26
2.64859E-03 2.28374E-26
2.73905E-03 2.12433E-26
2.83103E-03 1.97806E-26
2.92452E-03 1.84369E-26
3.01952E-03 1.72009E-26
3.11604E-03 1.60625E-26
3.21407E-03 1.50129E-26
3.31362E-03 1.40438E-26
3.41468E-03 1.31484E-26
3.51725E-03 1.23199E-26
3.62133E-03 1.15526E-26
3.72692E-03 1.08413E-26
3.83403E-03 1.01812E-26
3.94265E-03 9.56809E-27
4.05278E-03 8.99804E-27
4.16442E-03 8.46759E-27
4.27757E-03 7.97359E-27
4.39223E-03 7.51305E-27
4.50840E-03 7.08347E-27
4.62608E-03 6.68234E-27
4.74527E-03 6.30757E-27
4.86597E-03 5.95712E-27
4.98817E-03 5.62915E-27
5.11188E-03 5.32207E-27
5.23711E-03 5.03427E-27
5.36383E-03 4.76443E-27
5.49207E-03 4.51120E-27
5.62181E-03 4.27344E-27
5.75306E-03 4.05007E-27
5.88581E-03 3.84005E-27
6.02007E-03 3.64253E-27
6.15583E-03 3.45659E-27
6.29310E-03 3.28150E-27
6.43187E-03 3.11652E-27
6.57214E-03 2.96098E-27
6.71392E-03 2.81428E-27
6.85720E-03 2.67581E-27
7.00198E-03 2.54509E-27
7.14827E-03 2.42159E-27
7.29605E-03 2.30486E-27
7.44534E-03 2.19450E-27
7.59612E-03 2.09010E-27
7.97965E-03 1.85283E-27
8.37255E-03 1.64556E-27
8.77480E-03 1.46402E-27
9.18641E-03 1.30465E-27
9.60736E-03 1.16442E-27
1.00376E-02 1.04078E-27
1.04773E-02 9.31547E-28
1.09262E-02 8.34853E-28
1.13844E-02 7.49108E-28
1.18520E-02 6.72941E-28
1.23288E-02 6.05174E-28
1.28150E-02 5.44788E-28
1.33104E-02 4.90899E-28
1.38150E-02 4.42743E-28
1.43290E-02 3.99654E-28
1.48521E-02 3.61050E-28
1.53845E-02 3.26423E-28
1.59262E-02 2.95329E-28
1.64770E-02 2.67378E-28
1.70371E-02 2.42226E-28
1.76063E-02 2.19572E-28
1.81848E-02 1.99149E-28
1.87724E-02 1.80720E-28
1.93692E-02 1.64079E-28
1.99751E-02 1.49039E-28
2.05901E-02 1.35437E-28
2.12143E-02 1.23126E-28
2.18476E-02 1.11976E-28
2.24900E-02 1.01873E-28
2.31415E-02 9.27109E-29
2.38021E-02 8.43987E-29
2.44717E-02 7.68533E-29
2.51504E-02 7.00006E-29
2.58382E-02 6.37739E-29
2.65349E-02 5.81136E-29
2.72407E-02 5.29661E-29
2.79555E-02 4.82829E-29
2.86793E-02 4.40208E-29
2.94120E-02 4.01404E-29
3.01537E-02 3.66065E-29
3.09043E-02 3.33871E-29
3.16639E-02 3.04536E-29
3.24324E-02 2.77797E-29
3.32098E-02 2.53419E-29
3.39961E-02 2.31190E-29
3.47912E-02 2.10915E-29
3.55952E-02 1.92420E-29
3.64081E-02 1.75546E-29
3.72297E-02 1.60147E-29
3.80602E-02 1.46095E-29
3.88995E-02 1.33269E-29
3.97476E-02 1.21561E-29
4.06044E-02 1.10873E-29
4.14700E-02 1.01116E-29
4.23443E-02 9.22073E-30
4.32273E-02 8.40739E-30
4.41190E-02 7.66478E-30
4.50194E-02 6.98676E-30
4.59284E-02 6.36771E-30
4.68461E-02 5.80252E-30
4.87074E-02 4.81544E-30
5.06030E-02 3.99291E-30
5.25328E-02 3.30771E-30
5.44967E-02 2.73717E-30
5.64946E-02 2.26237E-30
5.85262E-02 1.86751E-30
6.05914E-02 1.53937E-30
6.26901E-02 1.26692E-30
6.48222E-02 1.04094E-30
6.69873E-02 8.53692E-31
6.91854E-02 6.98738E-31
7.14163E-02 5.70679E-31
7.36799E-02 4.65002E-31
7.59760E-02 3.77935E-31
7.83043E-02 3.06328E-31
8.06647E-02 2.47548E-31
8.30571E-02 1.99399E-31
8.54812E-02 1.60047E-31
8.79369E-02 1.27966E-31
9.04240E-02 1.01883E-31
9.29422E-02 8.07390E-32
9.54915E-02 6.36550E-32
9.80716E-02 4.99007E-32
1.00682E-01 3.88708E-32
1.03323E-01 3.00644E-32
1.05995E-01 2.30675E-32
1.08696E-01 1.75386E-32
1.11427E-01 1.31967E-32
1.14188E-01 9.81091E-33
1.16978E-01 7.19190E-33
1.19797E-01 5.18504E-33
1.22645E-01 3.66424E-33
1.25522E-01 2.52709E-33
1.28428E-01 1.69065E-33
1.31361E-01 1.08802E-33
1.34323E-01 6.65487E-34
1.37313E-01 3.80129E-34
1.40330E-01 1.97849E-34
1.43375E-01 9.17019E-35
1.46447E-01 4.05828E-35
1.49545E-01 2.80770E-35
1.52671E-01 4.15626E-35
1.55823E-01 7.14486E-35
1.59001E-01 1.10556E-34
1.62205E-01 1.53614E-34
1.65435E-01 1.96851E-34
1.68690E-01 2.37673E-34
1.71970E-01 2.74369E-34
1.75276E-01 3.05922E-34
1.78606E-01 3.31829E-34
1.81961E-01 3.51959E-34
1.85340E-01 3.66449E-34
1.88743E-01 3.75618E-34
1.92169E-01 3.79911E-34
1.95619E-01 3.79847E-34
1.99092E-01 3.75957E-34
2.02589E-01 3.68801E-34
2.06107E-01 3.58914E-34
2.09649E-01 3.46794E-34
2.13212E-01 3.32920E-34
2.16797E-01 3.17721E-34
2.20404E-01 3.01581E-34
2.24032E-01 2.84823E-34
2.27680E-01 2.67756E-34
2.31350E-01 2.50625E-34
2.35040E-01 2.33641E-34
2.38751E-01 2.16979E-34
2.42481E-01 2.00775E-34
2.46231E-01 1.85148E-34
2.50000E-01 1.70176E-34
2.53788E-01 1.55927E-34
2.57595E-01 1.42440E-34
2.61421E-01 1.29742E-34
2.65264E-01 1.17845E-34
2.69126E-01 1.06745E-34
2.73005E-01 9.64337E-35
2.76901E-01 8.68878E-35
2.80814E-01 7.80888E-35
2.84744E-01 7.00005E-35
2.88691E-01 6.25930E-35
2.92653E-01 5.58294E-35
2.96632E-01 4.96732E-35
3.00625E-01 4.40862E-35
3.04634E-01 3.90288E-35
3.08658E-01 3.44640E-35
3.12697E-01 3.03567E-35
3.16749E-01 2.66695E-35
3.20816E-01 2.33691E-35
3.24896E-01 2.04205E-35
3.28990E-01 1.77941E-35
3.33097E-01 1.54636E-35
3.37216E-01 1.33968E-35
3.41348E-01 1.15714E-35
3.45492E-01 9.96248E-36
3.49647E-01 8.55007E-36
3.53814E-01 7.31032E-36
3.57992E-01 6.22808E-36
3.62181E-01 5.28498E-36
3.66381E-01 4.46605E-36
3.70590E-01 3.75776E-36
3.74810E-01 3.14652E-36
3.79039E-01 2.62087E-36
3.83277E-01 2.17089E-36
3.87524E-01 1.78706E-36
3.91780E-01 1.46148E-36
3.96044E-01 1.18620E-36
4.00316E-01 9.54419E-37
4.04596E-01 7.61008E-37
4.08882E-01 6.00123E-37
4.13176E-01 4.67582E-37
4.17476E-01 3.58954E-37
4.21783E-01 2.70971E-37
4.26095E-01 2.00361E-37
4.30413E-01 1.44609E-37
4.34737E-01 1.01140E-37
4.39065E-01 6.79074E-38
4.43398E-01 4.32191E-38
4.47736E-01 2.55086E-38
4.52077E-01 1.35248E-38
4.56422E-01 6.09424E-39
4.60770E-01 2.29978E-39
4.65122E-01 1.33772E-39
4.69476E-01 2.53340E-39
4.73832E-01 5.31790E-39
4.78190E-01 9.24104E-39
4.82550E-01 1.39311E-38
4.86912E-01 1.90450E-38
4.91274E-01 2.43426E-38
4.95637E-01 2.96246E-38
5.00000E-01 3.48013E-38
5.04363E-01 3.96322E-38
5.08726E-01 4.41634E-38
5.13088E-01 4.82722E-38
5.17450E-01 5.19128E-38
5.21810E-01 5.50118E-38
5.26168E-01 5.77489E-38
5.30524E-01 5.98991E-38
5.34878E-01 6.16625E-38
5.39230E-01 6.29738E-38
5.43578E-01 6.38265E-38
5.47923E-01 6.42815E-38
5.52264E-01 6.44612E-38
5.56602E-01 6.41948E-38
5.60935E-01 6.37477E-38
5.65263E-01 6.30089E-38
5.69587E-01 6.20320E-38
5.73905E-01 6.08030E-38
5.78217E-01 5.94534E-38
5.82524E-01 5.79281E-38
5.86824E-01 5.63035E-38
5.91118E-01 5.45762E-38
5.95404E-01 5.27551E-38
5.99684E-01 5.08693E-38
6.03956E-01 4.89871E-38
6.08220E-01 4.69616E-38
6.12476E-01 4.50191E-38
6.16723E-01 4.29782E-38
6.20961E-01 4.10871E-38
6.25190E-01 3.91684E-38
6.29410E-01 3.72560E-38
6.33619E-01 3.53745E-38
6.37819E-01 3.35850E-38
6.42008E-01 3.17689E-38
6.46186E-01 3.00648E-38
6.50353E-01 2.84303E-38
6.54508E-01 2.68401E-38
6.58652E-01 2.53087E-38
6.62784E-01 2.37898E-38
6.66903E-01 2.24028E-38
6.71010E-01 2.10479E-38
6.75104E-01 1.97429E-38
6.79184E-01 1.85256E-38
6.83251E-01 1.73496E-38
6.87303E-01 1.62429E-38
6.91342E-01 1.51977E-38
6.95366E-01 1.42046E-38
6.99375E-01 1.32802E-38
7.03368E-01 1.23718E-38
7.07347E-01 1.15427E-38
7.11309E-01 1.07569E-38
7.15256E-01 1.00222E-38
7.19186E-01 9.31879E-39
7.23099E-01 8.66279E-39
7.26995E-01 8.05329E-39
7.30874E-01 7.48222E-39
7.34736E-01 6.94000E-39
7.38579E-01 6.43736E-39
7.42405E-01 5.95766E-39
7.46212E-01 5.51100E-39
7.50000E-01 5.10209E-39
7.53769E-01 4.72431E-39
7.57519E-01 4.37601E-39
7.61249E-01 4.04159E-39
7.64960E-01 3.72945E-39
7.68650E-01 3.45093E-39
7.72320E-01 3.19560E-39
7.75968E-01 2.94489E-39
7.79596E-01 2.71638E-39
7.83203E-01 2.50633E-39
7.86788E-01 2.30108E-39
7.90351E-01 2.12343E-39
7.93893E-01 1.96552E-39
7.97411E-01 1.80977E-39
8.00908E-01 1.65593E-39
8.04381E-01 1.53273E-39
8.07831E-01 1.40361E-39
8.11257E-01 1.28657E-39
8.14660E-01 1.18230E-39
8.18039E-01 1.08811E-39
8.21394E-01 9.98108E-40
8.24724E-01 9.16600E-40
8.28030E-01 8.39888E-40
8.31310E-01 7.70758E-40
8.34565E-01 7.07248E-40
8.37795E-01 6.48081E-40
8.40999E-01 5.91913E-40
8.44177E-01 5.39464E-40
8.47329E-01 4.98028E-40
8.50455E-01 4.52727E-40
8.53553E-01 4.14400E-40
8.56625E-01 3.79651E-40
8.59670E-01 3.46141E-40
8.62687E-01 3.19041E-40
8.65677E-01 2.94253E-40
8.68639E-01 2.66088E-40
8.71572E-01 2.43308E-40
8.74478E-01 2.24574E-40
8.77355E-01 2.08648E-40
8.80203E-01 1.85555E-40
8.83022E-01 1.71706E-40
8.85812E-01 1.54196E-40
8.88573E-01 1.42072E-40
8.91304E-01 1.28466E-40
8.94005E-01 1.16899E-40
8.96677E-01 1.06662E-40
8.99318E-01 9.51808E-41
9.01928E-01 8.89114E-41
9.04508E-01 7.98125E-41
9.07058E-01 7.43499E-41
9.09576E-01 6.73844E-41
9.12063E-01 6.08792E-41
9.14519E-01 5.31141E-41
9.16943E-01 4.94008E-41
9.19335E-01 4.37558E-41
9.21696E-01 4.13820E-41
9.24024E-01 3.72223E-41
9.26320E-01 3.39352E-41
9.28584E-01 3.12341E-41
9.30815E-01 2.75588E-41
9.33013E-01 2.66568E-41
9.35178E-01 2.37597E-41
9.37310E-01 2.10923E-41
9.39409E-01 1.96091E-41
9.41474E-01 1.80696E-41
9.43505E-01 1.59185E-41
9.45503E-01 1.36691E-41
9.47467E-01 1.21192E-41
9.49397E-01 1.18185E-41
9.51293E-01 1.15112E-41
9.53154E-01 9.15791E-42
9.54981E-01 8.88275E-42
9.56773E-01 8.94199E-42
9.58530E-01 7.08302E-42
9.60252E-01 6.70613E-42
9.61940E-01 5.81414E-42
9.63592E-01 5.01238E-42
9.65209E-01 5.03390E-42
9.66790E-01 3.93212E-42
9.68336E-01 4.17587E-42
9.69846E-01 3.32704E-42
9.71321E-01 3.07236E-42
9.72759E-01 2.74890E-42
9.74162E-01 1.95697E-42
9.75528E-01 2.05795E-42
9.76858E-01 1.76666E-42
9.78152E-01 1.67652E-42
9.79410E-01 1.65348E-42
9.80631E-01 1.33133E-42
9.81815E-01 1.00990E-42
9.82963E-01 1.11026E-42
9.84074E-01 1.15542E-42
9.85148E-01 1.01819E-42
9.86185E-01 1.07694E-42
9.87185E-01 7.47969E-43
9.88148E-01 7.48721E-43
9.89074E-01 6.98264E-43
9.89962E-01 7.99368E-43
9.90814E-01 5.62067E-43
9.91627E-01 4.21824E-43
9.92404E-01 5.18565E-43
9.93143E-01 3.18282E-43
9.93844E-01 2.22693E-43
9.94508E-01 1.75058E-43
9.95134E-01 2.89622E-43
9.95722E-01 1.00000E-45
9.96273E-01 1.00000E-45
9.96786E-01 1.00000E-45
9.97261E-01 1.00000E-45
9.97698E-01 1.00000E-45
9.98097E-01 1.00000E-45
9.98459E-01 1.00000E-45
9.98782E-01 1.00000E-45
9.99067E-01 1.00000E-45
9.99315E-01 1.00000E-45
9.99524E-01 1.00000E-45
9.99695E-01 1.00000E-45
9.99829E-01 1.00000E-45
9.99924E-01 1.00000E-45
9.99981E-01 1.00000E-45
1.00000E+00 1.00000E-45
