 #
 # Subroutine ELSEPA. Elastic scattering of electrons and positrons
 #                    by neutral atoms and positive ions
 #
 # Projectile: electron
 # Kinetic energy = 2.50000E+06 eV = 9.18733E+04 a.u.
 #
 # WARNING: High-energy factorization with free-atom DF screening.
 #          Absorption, polarization and exchange corrections are
 #          switched off.
 #          Phase shifts are calculated for the bare nucleus.
 #          Scattering amplitudes are not evaluated.
 #
 # Element: Li,  Z =   3,  atomic weight = 6.94100E+00 g/mol
 #
 # Nuclear model: Fermi distribution
 #                Average radius = 2.04107E-13 cm
 #                Skin thickness = 5.46000E-14 cm
 #
 # Number of electrons =  3
 #
 # Total elastic cross section = 1.10806E-19 cm**2 = 3.95694E-03 a0**2
 # 1st transport cross section = 1.57407E-24 cm**2 = 5.62111E-08 a0**2
 # 2nd transport cross section = 4.50595E-24 cm**2 = 1.60910E-07 a0**2
 #
 #
 # Differential cross section:                       MU=(1-COS(THETA))/2
 #
 #  THETA        MU          DCS          DCS        Sherman      error
 #  (deg)                 (cm**2/sr)   (a0**2/sr)    function
 #----------------------------------------------------------------------
0.00000E+00 3.74863E-14
7.61557E-13 3.74861E-14
1.18994E-12 3.74860E-14
1.71346E-12 3.74858E-14
2.33225E-12 3.74857E-14
3.04617E-12 3.74855E-14
3.85530E-12 3.74852E-14
4.75964E-12 3.74850E-14
5.75917E-12 3.74847E-14
6.85391E-12 3.74843E-14
8.04379E-12 3.74840E-14
9.32893E-12 3.74836E-14
1.07092E-11 3.74832E-14
1.21847E-11 3.74828E-14
1.37554E-11 3.74824E-14
1.54213E-11 3.74819E-14
1.71823E-11 3.74814E-14
1.90386E-11 3.74808E-14
2.09900E-11 3.74803E-14
2.30367E-11 3.74797E-14
2.51785E-11 3.74791E-14
2.74156E-11 3.74784E-14
2.97478E-11 3.74777E-14
3.21752E-11 3.74770E-14
3.46979E-11 3.74763E-14
3.73157E-11 3.74755E-14
4.00286E-11 3.74748E-14
4.28368E-11 3.74739E-14
4.57402E-11 3.74731E-14
4.87388E-11 3.74722E-14
5.18325E-11 3.74714E-14
5.50215E-11 3.74704E-14
5.83057E-11 3.74695E-14
6.16850E-11 3.74685E-14
6.51595E-11 3.74675E-14
6.87293E-11 3.74665E-14
7.23943E-11 3.74654E-14
7.61544E-11 3.74643E-14
1.18991E-10 3.74520E-14
1.71347E-10 3.74368E-14
2.33223E-10 3.74190E-14
3.04617E-10 3.73984E-14
3.85531E-10 3.73751E-14
4.75965E-10 3.73491E-14
5.75917E-10 3.73204E-14
6.85389E-10 3.72890E-14
8.04380E-10 3.72548E-14
9.32891E-10 3.72180E-14
1.07092E-09 3.71785E-14
1.21847E-09 3.71364E-14
1.37554E-09 3.70916E-14
1.54213E-09 3.70442E-14
1.71823E-09 3.69941E-14
1.90386E-09 3.69415E-14
2.09900E-09 3.68862E-14
2.30367E-09 3.68284E-14
2.51785E-09 3.67680E-14
2.74156E-09 3.67050E-14
2.97478E-09 3.66395E-14
3.21752E-09 3.65716E-14
3.46978E-09 3.65011E-14
3.73156E-09 3.64281E-14
4.00286E-09 3.63527E-14
4.28368E-09 3.62748E-14
4.57402E-09 3.61946E-14
4.87388E-09 3.61120E-14
5.18326E-09 3.60269E-14
5.50215E-09 3.59396E-14
5.83057E-09 3.58499E-14
6.16850E-09 3.57580E-14
6.51596E-09 3.56637E-14
6.87293E-09 3.55672E-14
7.23942E-09 3.54685E-14
7.61544E-09 3.53677E-14
1.18991E-08 3.42442E-14
1.71347E-08 3.29335E-14
2.33223E-08 3.14677E-14
3.04617E-08 2.98805E-14
3.85531E-08 2.82062E-14
4.75965E-08 2.64778E-14
5.75917E-08 2.47262E-14
6.85389E-08 2.29794E-14
8.04380E-08 2.12618E-14
9.32891E-08 1.95935E-14
1.07092E-07 1.79909E-14
1.21847E-07 1.64664E-14
1.37554E-07 1.50288E-14
1.54213E-07 1.36838E-14
1.71823E-07 1.24339E-14
1.90386E-07 1.13173E-14
2.09900E-07 1.02783E-14
2.30367E-07 9.30701E-15
2.51785E-07 8.40304E-15
2.74156E-07 7.56856E-15
2.97478E-07 6.87399E-15
3.21752E-07 6.23110E-15
3.46978E-07 5.63773E-15
3.73156E-07 5.09147E-15
4.00286E-07 4.60301E-15
4.28368E-07 4.19242E-15
4.57402E-07 3.81454E-15
4.87388E-07 3.46727E-15
5.18325E-07 3.14853E-15
5.50215E-07 2.87047E-15
5.83057E-07 2.63106E-15
6.16850E-07 2.41076E-15
6.51596E-07 2.20817E-15
6.87293E-07 2.02194E-15
7.23942E-07 1.86221E-15
7.61543E-07 1.72049E-15
1.18991E-06 8.39621E-16
1.71347E-06 4.76609E-16
2.33223E-06 3.01547E-16
3.04617E-06 2.05304E-16
3.85531E-06 1.46887E-16
4.75964E-06 1.08668E-16
5.75916E-06 8.26174E-17
6.85388E-06 6.39821E-17
8.04378E-06 5.02436E-17
9.32888E-06 3.99524E-17
1.07092E-05 3.21389E-17
1.21846E-05 2.61104E-17
1.37553E-05 2.13873E-17
1.54212E-05 1.76497E-17
1.71822E-05 1.46732E-17
1.90385E-05 1.22839E-17
2.09899E-05 1.03629E-17
2.30365E-05 8.76570E-18
2.51783E-05 7.47244E-18
2.74153E-05 6.39166E-18
2.97475E-05 5.50655E-18
3.21749E-05 4.76116E-18
3.46974E-05 4.14076E-18
3.73152E-05 3.61336E-18
4.00281E-05 3.16758E-18
4.28362E-05 2.78559E-18
4.57395E-05 2.45879E-18
4.87380E-05 2.17674E-18
5.18317E-05 1.93380E-18
5.50205E-05 1.72348E-18
5.83045E-05 1.54092E-18
6.16838E-05 1.38177E-18
6.51582E-05 1.24254E-18
6.87277E-05 1.12030E-18
7.23925E-05 1.01247E-18
7.61524E-05 9.17152E-19
9.21439E-05 6.30727E-19
1.09658E-04 4.47711E-19
1.28695E-04 3.26134E-19
1.49255E-04 2.43080E-19
1.71338E-04 1.84821E-19
1.94942E-04 1.42944E-19
2.20070E-04 1.12299E-19
2.46720E-04 8.94065E-20
2.74892E-04 7.20525E-20
3.04586E-04 5.87067E-20
3.35803E-04 4.83097E-20
3.68542E-04 4.01203E-20
4.02802E-04 3.35901E-20
4.38585E-04 2.83394E-20
4.75889E-04 2.40738E-20
5.14715E-04 2.05818E-20
5.55063E-04 1.77012E-20
5.96931E-04 1.53063E-20
6.40321E-04 1.33041E-20
6.85233E-04 1.16181E-20
7.31665E-04 1.01913E-20
7.79618E-04 8.97683E-21
8.29092E-04 7.93787E-21
8.80086E-04 7.04525E-21
9.32601E-04 6.27435E-21
9.86636E-04 5.60630E-21
1.04219E-03 5.02471E-21
1.09927E-03 4.51665E-21
1.15786E-03 4.07127E-21
1.21797E-03 3.67936E-21
1.27961E-03 3.33360E-21
1.34276E-03 3.02743E-21
1.40743E-03 2.75567E-21
1.47362E-03 2.51373E-21
1.54133E-03 2.29774E-21
1.61056E-03 2.10450E-21
1.68131E-03 1.93111E-21
1.75357E-03 1.77525E-21
1.82735E-03 1.63479E-21
1.90265E-03 1.50795E-21
1.97947E-03 1.39318E-21
2.05780E-03 1.28912E-21
2.13765E-03 1.19461E-21
2.21902E-03 1.10859E-21
2.30190E-03 1.03018E-21
2.38630E-03 9.58583E-22
2.47222E-03 8.93095E-22
2.55965E-03 8.33114E-22
2.64859E-03 7.78076E-22
2.73905E-03 7.27516E-22
2.83103E-03 6.80993E-22
2.92452E-03 6.38131E-22
3.01952E-03 5.98591E-22
3.11604E-03 5.62062E-22
3.21407E-03 5.28283E-22
3.31362E-03 4.96999E-22
3.41468E-03 4.68000E-22
3.51725E-03 4.41085E-22
3.62133E-03 4.16076E-22
3.72692E-03 3.92817E-22
3.83403E-03 3.71158E-22
3.94265E-03 3.50973E-22
4.05278E-03 3.32141E-22
4.16442E-03 3.14556E-22
4.27757E-03 2.98119E-22
4.39223E-03 2.82741E-22
4.50840E-03 2.68344E-22
4.62608E-03 2.54850E-22
4.74527E-03 2.42194E-22
4.86597E-03 2.30314E-22
4.98817E-03 2.19153E-22
5.11188E-03 2.08661E-22
5.23711E-03 1.98788E-22
5.36383E-03 1.89493E-22
5.49207E-03 1.80735E-22
5.62181E-03 1.72476E-22
5.75306E-03 1.64685E-22
5.88581E-03 1.57328E-22
6.02007E-03 1.50377E-22
6.15583E-03 1.43806E-22
6.29310E-03 1.37590E-22
6.43187E-03 1.31706E-22
6.57214E-03 1.26133E-22
6.71392E-03 1.20852E-22
6.85720E-03 1.15845E-22
7.00198E-03 1.11094E-22
7.14827E-03 1.06584E-22
7.29605E-03 1.02300E-22
7.44534E-03 9.82299E-23
7.59612E-03 9.43597E-23
7.97965E-03 8.54863E-23
8.37255E-03 7.76316E-23
8.77480E-03 7.06585E-23
9.18641E-03 6.44508E-23
9.60736E-03 5.89098E-23
1.00376E-02 5.39516E-23
1.04773E-02 4.95039E-23
1.09262E-02 4.55051E-23
1.13844E-02 4.19019E-23
1.18520E-02 3.86482E-23
1.23288E-02 3.57041E-23
1.28150E-02 3.30349E-23
1.33104E-02 3.06104E-23
1.38150E-02 2.84041E-23
1.43290E-02 2.63930E-23
1.48521E-02 2.45567E-23
1.53845E-02 2.28771E-23
1.59262E-02 2.13387E-23
1.64770E-02 1.99273E-23
1.70371E-02 1.86306E-23
1.76063E-02 1.74376E-23
1.81848E-02 1.63384E-23
1.87724E-02 1.53245E-23
1.93692E-02 1.43879E-23
1.99751E-02 1.35217E-23
2.05901E-02 1.27196E-23
2.12143E-02 1.19761E-23
2.18476E-02 1.12860E-23
2.24900E-02 1.06449E-23
2.31415E-02 1.00486E-23
2.38021E-02 9.49342E-24
2.44717E-02 8.97599E-24
2.51504E-02 8.49329E-24
2.58382E-02 8.04255E-24
2.65349E-02 7.62128E-24
2.72407E-02 7.22718E-24
2.79555E-02 6.85818E-24
2.86793E-02 6.51239E-24
2.94120E-02 6.18808E-24
3.01537E-02 5.88368E-24
3.09043E-02 5.59772E-24
3.16639E-02 5.32889E-24
3.24324E-02 5.07597E-24
3.32098E-02 4.83785E-24
3.39961E-02 4.61349E-24
3.47912E-02 4.40196E-24
3.55952E-02 4.20239E-24
3.64081E-02 4.01397E-24
3.72297E-02 3.83596E-24
3.80602E-02 3.66769E-24
3.88995E-02 3.50852E-24
3.97476E-02 3.35787E-24
4.06044E-02 3.21519E-24
4.14700E-02 3.07999E-24
4.23443E-02 2.95180E-24
4.32273E-02 2.83019E-24
4.41190E-02 2.71475E-24
4.50194E-02 2.60512E-24
4.59284E-02 2.50096E-24
4.68461E-02 2.40192E-24
4.87074E-02 2.21809E-24
5.06030E-02 2.05145E-24
5.25328E-02 1.90010E-24
5.44967E-02 1.76241E-24
5.64946E-02 1.63691E-24
5.85262E-02 1.52234E-24
6.05914E-02 1.41757E-24
6.26901E-02 1.32162E-24
6.48222E-02 1.23362E-24
6.69873E-02 1.15278E-24
6.91854E-02 1.07842E-24
7.14163E-02 1.00992E-24
7.36799E-02 9.46746E-25
7.59760E-02 8.88405E-25
7.83043E-02 8.34461E-25
8.06647E-02 7.84522E-25
8.30571E-02 7.38238E-25
8.54812E-02 6.95294E-25
8.79369E-02 6.55403E-25
9.04240E-02 6.18312E-25
9.29422E-02 5.83786E-25
9.54915E-02 5.51617E-25
9.80716E-02 5.21615E-25
1.00682E-01 4.93607E-25
1.03323E-01 4.67436E-25
1.05995E-01 4.42961E-25
1.08696E-01 4.20051E-25
1.11427E-01 3.98589E-25
1.14188E-01 3.78465E-25
1.16978E-01 3.59582E-25
1.19797E-01 3.41849E-25
1.22645E-01 3.25184E-25
1.25522E-01 3.09509E-25
1.28428E-01 2.94757E-25
1.31361E-01 2.80861E-25
1.34323E-01 2.67765E-25
1.37313E-01 2.55413E-25
1.40330E-01 2.43755E-25
1.43375E-01 2.32745E-25
1.46447E-01 2.22341E-25
1.49545E-01 2.12504E-25
1.52671E-01 2.03196E-25
1.55823E-01 1.94384E-25
1.59001E-01 1.86037E-25
1.62205E-01 1.78125E-25
1.65435E-01 1.70623E-25
1.68690E-01 1.63505E-25
1.71970E-01 1.56747E-25
1.75276E-01 1.50328E-25
1.78606E-01 1.44229E-25
1.81961E-01 1.38429E-25
1.85340E-01 1.32912E-25
1.88743E-01 1.27662E-25
1.92169E-01 1.22663E-25
1.95619E-01 1.17901E-25
1.99092E-01 1.13363E-25
2.02589E-01 1.09037E-25
2.06107E-01 1.04909E-25
2.09649E-01 1.00971E-25
2.13212E-01 9.72114E-26
2.16797E-01 9.36208E-26
2.20404E-01 9.01902E-26
2.24032E-01 8.69112E-26
2.27680E-01 8.37759E-26
2.31350E-01 8.07769E-26
2.35040E-01 7.79071E-26
2.38751E-01 7.51600E-26
2.42481E-01 7.25295E-26
2.46231E-01 7.00095E-26
2.50000E-01 6.75948E-26
2.53788E-01 6.52800E-26
2.57595E-01 6.30603E-26
2.61421E-01 6.09311E-26
2.65264E-01 5.88880E-26
2.69126E-01 5.69270E-26
2.73005E-01 5.50440E-26
2.76901E-01 5.32355E-26
2.80814E-01 5.14980E-26
2.84744E-01 4.98282E-26
2.88691E-01 4.82230E-26
2.92653E-01 4.66794E-26
2.96632E-01 4.51947E-26
3.00625E-01 4.37661E-26
3.04634E-01 4.23913E-26
3.08658E-01 4.10678E-26
3.12697E-01 3.97933E-26
3.16749E-01 3.85657E-26
3.20816E-01 3.73830E-26
3.24896E-01 3.62433E-26
3.28990E-01 3.51446E-26
3.33097E-01 3.40854E-26
3.37216E-01 3.30638E-26
3.41348E-01 3.20783E-26
3.45492E-01 3.11275E-26
3.49647E-01 3.02098E-26
3.53814E-01 2.93240E-26
3.57992E-01 2.84687E-26
3.62181E-01 2.76426E-26
3.66381E-01 2.68447E-26
3.70590E-01 2.60738E-26
3.74810E-01 2.53287E-26
3.79039E-01 2.46086E-26
3.83277E-01 2.39123E-26
3.87524E-01 2.32391E-26
3.91780E-01 2.25879E-26
3.96044E-01 2.19579E-26
4.00316E-01 2.13484E-26
4.04596E-01 2.07585E-26
4.08882E-01 2.01875E-26
4.13176E-01 1.96347E-26
4.17476E-01 1.90994E-26
4.21783E-01 1.85810E-26
4.26095E-01 1.80788E-26
4.30413E-01 1.75922E-26
4.34737E-01 1.71207E-26
4.39065E-01 1.66637E-26
4.43398E-01 1.62208E-26
4.47736E-01 1.57913E-26
4.52077E-01 1.53748E-26
4.56422E-01 1.49709E-26
4.60770E-01 1.45791E-26
4.65122E-01 1.41990E-26
4.69476E-01 1.38301E-26
4.73832E-01 1.34722E-26
4.78190E-01 1.31247E-26
4.82550E-01 1.27874E-26
4.86912E-01 1.24599E-26
4.91274E-01 1.21419E-26
4.95637E-01 1.18330E-26
5.00000E-01 1.15329E-26
5.04363E-01 1.12415E-26
5.08726E-01 1.09582E-26
5.13088E-01 1.06830E-26
5.17450E-01 1.04155E-26
5.21810E-01 1.01554E-26
5.26168E-01 9.90264E-27
5.30524E-01 9.65683E-27
5.34878E-01 9.41780E-27
5.39230E-01 9.18532E-27
5.43578E-01 8.95918E-27
5.47923E-01 8.73919E-27
5.52264E-01 8.52516E-27
5.56602E-01 8.31688E-27
5.60935E-01 8.11419E-27
5.65263E-01 7.91691E-27
5.69587E-01 7.72487E-27
5.73905E-01 7.53791E-27
5.78217E-01 7.35588E-27
5.82524E-01 7.17862E-27
5.86824E-01 7.00600E-27
5.91118E-01 6.83786E-27
5.95404E-01 6.67408E-27
5.99684E-01 6.51453E-27
6.03956E-01 6.35908E-27
6.08220E-01 6.20759E-27
6.12476E-01 6.05998E-27
6.16723E-01 5.91611E-27
6.20961E-01 5.77588E-27
6.25190E-01 5.63918E-27
6.29410E-01 5.50591E-27
6.33619E-01 5.37597E-27
6.37819E-01 5.24926E-27
6.42008E-01 5.12570E-27
6.46186E-01 5.00520E-27
6.50353E-01 4.88766E-27
6.54508E-01 4.77300E-27
6.58652E-01 4.66115E-27
6.62784E-01 4.55202E-27
6.66903E-01 4.44554E-27
6.71010E-01 4.34164E-27
6.75104E-01 4.24024E-27
6.79184E-01 4.14127E-27
6.83251E-01 4.04468E-27
6.87303E-01 3.95039E-27
6.91342E-01 3.85835E-27
6.95366E-01 3.76849E-27
6.99375E-01 3.68075E-27
7.03368E-01 3.59508E-27
7.07347E-01 3.51142E-27
7.11309E-01 3.42972E-27
7.15256E-01 3.34993E-27
7.19186E-01 3.27200E-27
7.23099E-01 3.19587E-27
7.26995E-01 3.12151E-27
7.30874E-01 3.04886E-27
7.34736E-01 2.97789E-27
7.38579E-01 2.90855E-27
7.42405E-01 2.84079E-27
7.46212E-01 2.77458E-27
7.50000E-01 2.70988E-27
7.53769E-01 2.64665E-27
7.57519E-01 2.58486E-27
7.61249E-01 2.52446E-27
7.64960E-01 2.46543E-27
7.68650E-01 2.40772E-27
7.72320E-01 2.35131E-27
7.75968E-01 2.29617E-27
7.79596E-01 2.24226E-27
7.83203E-01 2.18955E-27
7.86788E-01 2.13802E-27
7.90351E-01 2.08764E-27
7.93893E-01 2.03837E-27
7.97411E-01 1.99020E-27
8.00908E-01 1.94309E-27
8.04381E-01 1.89703E-27
8.07831E-01 1.85198E-27
8.11257E-01 1.80792E-27
8.14660E-01 1.76483E-27
8.18039E-01 1.72270E-27
8.21394E-01 1.68148E-27
8.24724E-01 1.64118E-27
8.28030E-01 1.60175E-27
8.31310E-01 1.56319E-27
8.34565E-01 1.52548E-27
8.37795E-01 1.48858E-27
8.40999E-01 1.45250E-27
8.44177E-01 1.41720E-27
8.47329E-01 1.38268E-27
8.50455E-01 1.34891E-27
8.53553E-01 1.31588E-27
8.56625E-01 1.28357E-27
8.59670E-01 1.25196E-27
8.62687E-01 1.22105E-27
8.65677E-01 1.19081E-27
8.68639E-01 1.16123E-27
8.71572E-01 1.13231E-27
8.74478E-01 1.10401E-27
8.77355E-01 1.07634E-27
8.80203E-01 1.04927E-27
8.83022E-01 1.02280E-27
8.85812E-01 9.96917E-28
8.88573E-01 9.71603E-28
8.91304E-01 9.46846E-28
8.94005E-01 9.22640E-28
8.96677E-01 8.98970E-28
8.99318E-01 8.75827E-28
9.01928E-01 8.53203E-28
9.04508E-01 8.31083E-28
9.07058E-01 8.09461E-28
9.09576E-01 7.88325E-28
9.12063E-01 7.67667E-28
9.14519E-01 7.47477E-28
9.16943E-01 7.27748E-28
9.19335E-01 7.08470E-28
9.21696E-01 6.89636E-28
9.24024E-01 6.71235E-28
9.26320E-01 6.53263E-28
9.28584E-01 6.35709E-28
9.30815E-01 6.18567E-28
9.33013E-01 6.01831E-28
9.35178E-01 5.85491E-28
9.37310E-01 5.69542E-28
9.39409E-01 5.53978E-28
9.41474E-01 5.38790E-28
9.43505E-01 5.23975E-28
9.45503E-01 5.09523E-28
9.47467E-01 4.95432E-28
9.49397E-01 4.81694E-28
9.51293E-01 4.68304E-28
9.53154E-01 4.55255E-28
9.54981E-01 4.42545E-28
9.56773E-01 4.30165E-28
9.58530E-01 4.18112E-28
9.60252E-01 4.06381E-28
9.61940E-01 3.94968E-28
9.63592E-01 3.83867E-28
9.65209E-01 3.73076E-28
9.66790E-01 3.62587E-28
9.68336E-01 3.52399E-28
9.69846E-01 3.42505E-28
9.71321E-01 3.32905E-28
9.72759E-01 3.23592E-28
9.74162E-01 3.14562E-28
9.75528E-01 3.05816E-28
9.76858E-01 2.97345E-28
9.78152E-01 2.89149E-28
9.79410E-01 2.81224E-28
9.80631E-01 2.73567E-28
9.81815E-01 2.66175E-28
9.82963E-01 2.59045E-28
9.84074E-01 2.52175E-28
9.85148E-01 2.45561E-28
9.86185E-01 2.39201E-28
9.87185E-01 2.33093E-28
9.88148E-01 2.27235E-28
9.89074E-01 2.21623E-28
9.89962E-01 2.16257E-28
9.90814E-01 2.11133E-28
9.91627E-01 2.06251E-28
9.92404E-01 2.01608E-28
9.93143E-01 1.97202E-28
9.93844E-01 1.93033E-28
9.94508E-01 1.89097E-28
9.95134E-01 1.85394E-28
9.95722E-01 1.81922E-28
9.96273E-01 1.78681E-28
9.96786E-01 1.75670E-28
9.97261E-01 1.72884E-28
9.97698E-01 1.70324E-28
9.98097E-01 1.67994E-28
9.98459E-01 1.65884E-28
9.98782E-01 1.64000E-28
9.99067E-01 1.62339E-28
9.99315E-01 1.60901E-28
9.99524E-01 1.59684E-28
9.99695E-01 1.58691E-28
9.99829E-01 1.57918E-28
9.99924E-01 1.57368E-28
9.99981E-01 1.57036E-28
1.00000E+00 1.56936E-28
