 #
 # Subroutine ELSEPA. Elastic scattering of electrons and positrons
 #                    by neutral atoms and positive ions
 #
 # Projectile: electron
 # Kinetic energy = 3.50000E+06 eV = 1.28623E+05 a.u.
 #
 # WARNING: High-energy factorization with free-atom DF screening.
 #          Absorption, polarization and exchange corrections are
 #          switched off.
 #          Phase shifts are calculated for the bare nucleus.
 #          Scattering amplitudes are not evaluated.
 #
 # Element: Li,  Z =   3,  atomic weight = 6.94100E+00 g/mol
 #
 # Nuclear model: Fermi distribution
 #                Average radius = 2.04107E-13 cm
 #                Skin thickness = 5.46000E-14 cm
 #
 # Number of electrons =  3
 #
 # Total elastic cross section = 1.09340E-19 cm**2 = 3.90462E-03 a0**2
 # 1st transport cross section = 9.07652E-25 cm**2 = 3.24128E-08 a0**2
 # 2nd transport cross section = 2.60565E-24 cm**2 = 9.30493E-08 a0**2
 #
 #
 # Differential cross section:                       MU=(1-COS(THETA))/2
 #
 #  THETA        MU          DCS          DCS        Sherman      error
 #  (deg)                 (cm**2/sr)   (a0**2/sr)    function
 #----------------------------------------------------------------------
0.00000E+00 6.65207E-14
7.61557E-13 6.65200E-14
1.18994E-12 6.65196E-14
1.71346E-12 6.65191E-14
2.33225E-12 6.65186E-14
3.04617E-12 6.65179E-14
3.85530E-12 6.65171E-14
4.75964E-12 6.65163E-14
5.75917E-12 6.65154E-14
6.85391E-12 6.65144E-14
8.04379E-12 6.65133E-14
9.32893E-12 6.65121E-14
1.07092E-11 6.65108E-14
1.21847E-11 6.65095E-14
1.37554E-11 6.65080E-14
1.54213E-11 6.65065E-14
1.71823E-11 6.65048E-14
1.90386E-11 6.65031E-14
2.09900E-11 6.65013E-14
2.30367E-11 6.64995E-14
2.51785E-11 6.64975E-14
2.74156E-11 6.64954E-14
2.97478E-11 6.64933E-14
3.21752E-11 6.64910E-14
3.46979E-11 6.64887E-14
3.73157E-11 6.64863E-14
4.00286E-11 6.64838E-14
4.28368E-11 6.64812E-14
4.57402E-11 6.64785E-14
4.87388E-11 6.64758E-14
5.18325E-11 6.64729E-14
5.50215E-11 6.64700E-14
5.83057E-11 6.64670E-14
6.16850E-11 6.64638E-14
6.51595E-11 6.64606E-14
6.87293E-11 6.64574E-14
7.23943E-11 6.64540E-14
7.61544E-11 6.64505E-14
1.18991E-10 6.64111E-14
1.71347E-10 6.63630E-14
2.33223E-10 6.63061E-14
3.04617E-10 6.62407E-14
3.85531E-10 6.61666E-14
4.75965E-10 6.60838E-14
5.75917E-10 6.59926E-14
6.85389E-10 6.58928E-14
8.04380E-10 6.57846E-14
9.32891E-10 6.56680E-14
1.07092E-09 6.55432E-14
1.21847E-09 6.54100E-14
1.37554E-09 6.52685E-14
1.54213E-09 6.51190E-14
1.71823E-09 6.49614E-14
1.90386E-09 6.47958E-14
2.09900E-09 6.46223E-14
2.30367E-09 6.44410E-14
2.51785E-09 6.42520E-14
2.74156E-09 6.40554E-14
2.97478E-09 6.38510E-14
3.21752E-09 6.36395E-14
3.46978E-09 6.34206E-14
3.73156E-09 6.31944E-14
4.00286E-09 6.29610E-14
4.28368E-09 6.27208E-14
4.57402E-09 6.24736E-14
4.87388E-09 6.22195E-14
5.18326E-09 6.19590E-14
5.50215E-09 6.16919E-14
5.83057E-09 6.14183E-14
6.16850E-09 6.11383E-14
6.51596E-09 6.08525E-14
6.87293E-09 6.05605E-14
7.23942E-09 6.02624E-14
7.61544E-09 5.99588E-14
1.18991E-08 5.66360E-14
1.71347E-08 5.28950E-14
2.33223E-08 4.88806E-14
3.04617E-08 4.47318E-14
3.85531E-08 4.05736E-14
4.75965E-08 3.65115E-14
5.75917E-08 3.26300E-14
6.85389E-08 2.89878E-14
8.04380E-08 2.56239E-14
9.32891E-08 2.25590E-14
1.07092E-07 1.98728E-14
1.21847E-07 1.74462E-14
1.37554E-07 1.52351E-14
1.54213E-07 1.32615E-14
1.71823E-07 1.16466E-14
1.90386E-07 1.01934E-14
2.09900E-07 8.89192E-15
2.30367E-07 7.79952E-15
2.51785E-07 6.87490E-15
2.74156E-07 6.04899E-15
2.97478E-07 5.31299E-15
3.21752E-07 4.72686E-15
3.46978E-07 4.20389E-15
3.73156E-07 3.73654E-15
4.00286E-07 3.33592E-15
4.28368E-07 3.00005E-15
4.57402E-07 2.69850E-15
4.87388E-07 2.42778E-15
5.18325E-07 2.20277E-15
5.50215E-07 2.00326E-15
5.83057E-07 1.82308E-15
6.16850E-07 1.66343E-15
6.51596E-07 1.52742E-15
6.87293E-07 1.40389E-15
7.23942E-07 1.29160E-15
7.61543E-07 1.19377E-15
1.18991E-06 6.07014E-16
1.71347E-06 3.58626E-16
2.33223E-06 2.31196E-16
3.04617E-06 1.57672E-16
3.85531E-06 1.11664E-16
4.75964E-06 8.11028E-17
5.75916E-06 6.01863E-17
6.85388E-06 4.55053E-17
8.04378E-06 3.49155E-17
9.32888E-06 2.71501E-17
1.07092E-05 2.13473E-17
1.21846E-05 1.70192E-17
1.37553E-05 1.36970E-17
1.54212E-05 1.11234E-17
1.71822E-05 9.12114E-18
1.90385E-05 7.55512E-18
2.09899E-05 6.28789E-18
2.30365E-05 5.27140E-18
2.51783E-05 4.44962E-18
2.74153E-05 3.77827E-18
2.97475E-05 3.22892E-18
3.21749E-05 2.77631E-18
3.46974E-05 2.39975E-18
3.73152E-05 2.08427E-18
4.00281E-05 1.81852E-18
4.28362E-05 1.59317E-18
4.57395E-05 1.40075E-18
4.87380E-05 1.23625E-18
5.18317E-05 1.09509E-18
5.50205E-05 9.73357E-19
5.83045E-05 8.68164E-19
6.16838E-05 7.76893E-19
6.51582E-05 6.97303E-19
6.87277E-05 6.27586E-19
7.23925E-05 5.66306E-19
7.61524E-05 5.12251E-19
9.21439E-05 3.50668E-19
1.09658E-04 2.48150E-19
1.28695E-04 1.80369E-19
1.49255E-04 1.34195E-19
1.71338E-04 1.01888E-19
1.94942E-04 7.87208E-20
2.20070E-04 6.17988E-20
2.46720E-04 4.91754E-20
2.74892E-04 3.96231E-20
3.04586E-04 3.22800E-20
3.35803E-04 2.65603E-20
3.68542E-04 2.20558E-20
4.02802E-04 1.84644E-20
4.38585E-04 1.55770E-20
4.75889E-04 1.32316E-20
5.14715E-04 1.13116E-20
5.55063E-04 9.72798E-21
5.96931E-04 8.41145E-21
6.40321E-04 7.31088E-21
6.85233E-04 6.38412E-21
7.31665E-04 5.59992E-21
7.79618E-04 4.93246E-21
8.29092E-04 4.36147E-21
8.80086E-04 3.87093E-21
9.32601E-04 3.44728E-21
9.86636E-04 3.08018E-21
1.04219E-03 2.76059E-21
1.09927E-03 2.48142E-21
1.15786E-03 2.23669E-21
1.21797E-03 2.02135E-21
1.27961E-03 1.83137E-21
1.34276E-03 1.66315E-21
1.40743E-03 1.51384E-21
1.47362E-03 1.38091E-21
1.54133E-03 1.26224E-21
1.61056E-03 1.15607E-21
1.68131E-03 1.06081E-21
1.75357E-03 9.75189E-22
1.82735E-03 8.98019E-22
1.90265E-03 8.28337E-22
1.97947E-03 7.65290E-22
2.05780E-03 7.08119E-22
2.13765E-03 6.56200E-22
2.21902E-03 6.08945E-22
2.30190E-03 5.65873E-22
2.38630E-03 5.26542E-22
2.47222E-03 4.90567E-22
2.55965E-03 4.57618E-22
2.64859E-03 4.27383E-22
2.73905E-03 3.99610E-22
2.83103E-03 3.74054E-22
2.92452E-03 3.50509E-22
3.01952E-03 3.28789E-22
3.11604E-03 3.08723E-22
3.21407E-03 2.90168E-22
3.31362E-03 2.72984E-22
3.41468E-03 2.57054E-22
3.51725E-03 2.42270E-22
3.62133E-03 2.28533E-22
3.72692E-03 2.15757E-22
3.83403E-03 2.03859E-22
3.94265E-03 1.92772E-22
4.05278E-03 1.82428E-22
4.16442E-03 1.72769E-22
4.27757E-03 1.63741E-22
4.39223E-03 1.55294E-22
4.50840E-03 1.47385E-22
4.62608E-03 1.39973E-22
4.74527E-03 1.33022E-22
4.86597E-03 1.26497E-22
4.98817E-03 1.20366E-22
5.11188E-03 1.14603E-22
5.23711E-03 1.09180E-22
5.36383E-03 1.04075E-22
5.49207E-03 9.92644E-23
5.62181E-03 9.47285E-23
5.75306E-03 9.04489E-23
5.88581E-03 8.64079E-23
6.02007E-03 8.25904E-23
6.15583E-03 7.89810E-23
6.29310E-03 7.55669E-23
6.43187E-03 7.23352E-23
6.57214E-03 6.92743E-23
6.71392E-03 6.63737E-23
6.85720E-03 6.36232E-23
7.00198E-03 6.10138E-23
7.14827E-03 5.85367E-23
7.29605E-03 5.61840E-23
7.44534E-03 5.39484E-23
7.59612E-03 5.18227E-23
7.97965E-03 4.69491E-23
8.37255E-03 4.26350E-23
8.77480E-03 3.88051E-23
9.18641E-03 3.53956E-23
9.60736E-03 3.23524E-23
1.00376E-02 2.96292E-23
1.04773E-02 2.71864E-23
1.09262E-02 2.49902E-23
1.13844E-02 2.30112E-23
1.18520E-02 2.12242E-23
1.23288E-02 1.96073E-23
1.28150E-02 1.81413E-23
1.33104E-02 1.68098E-23
1.38150E-02 1.55981E-23
1.43290E-02 1.44936E-23
1.48521E-02 1.34851E-23
1.53845E-02 1.25627E-23
1.59262E-02 1.17177E-23
1.64770E-02 1.09426E-23
1.70371E-02 1.02305E-23
1.76063E-02 9.57529E-24
1.81848E-02 8.97166E-24
1.87724E-02 8.41481E-24
1.93692E-02 7.90045E-24
1.99751E-02 7.42475E-24
2.05901E-02 6.98428E-24
2.12143E-02 6.57595E-24
2.18476E-02 6.19699E-24
2.24900E-02 5.84491E-24
2.31415E-02 5.51744E-24
2.38021E-02 5.21255E-24
2.44717E-02 4.92840E-24
2.51504E-02 4.66332E-24
2.58382E-02 4.41580E-24
2.65349E-02 4.18445E-24
2.72407E-02 3.96803E-24
2.79555E-02 3.76540E-24
2.86793E-02 3.57551E-24
2.94120E-02 3.39742E-24
3.01537E-02 3.23026E-24
3.09043E-02 3.07323E-24
3.16639E-02 2.92560E-24
3.24324E-02 2.78672E-24
3.32098E-02 2.65596E-24
3.39961E-02 2.53276E-24
3.47912E-02 2.41660E-24
3.55952E-02 2.30701E-24
3.64081E-02 2.20355E-24
3.72297E-02 2.10581E-24
3.80602E-02 2.01341E-24
3.88995E-02 1.92601E-24
3.97476E-02 1.84328E-24
4.06044E-02 1.76494E-24
4.14700E-02 1.69070E-24
4.23443E-02 1.62031E-24
4.32273E-02 1.55353E-24
4.41190E-02 1.49015E-24
4.50194E-02 1.42996E-24
4.59284E-02 1.37276E-24
4.68461E-02 1.31839E-24
4.87074E-02 1.21745E-24
5.06030E-02 1.12595E-24
5.25328E-02 1.04285E-24
5.44967E-02 9.67253E-25
5.64946E-02 8.98350E-25
5.85262E-02 8.35447E-25
6.05914E-02 7.77928E-25
6.26901E-02 7.25250E-25
6.48222E-02 6.76934E-25
6.69873E-02 6.32552E-25
6.91854E-02 5.91729E-25
7.14163E-02 5.54126E-25
7.36799E-02 5.19445E-25
7.59760E-02 4.87418E-25
7.83043E-02 4.57805E-25
8.06647E-02 4.30392E-25
8.30571E-02 4.04985E-25
8.54812E-02 3.81411E-25
8.79369E-02 3.59515E-25
9.04240E-02 3.39155E-25
9.29422E-02 3.20204E-25
9.54915E-02 3.02547E-25
9.80716E-02 2.86080E-25
1.00682E-01 2.70707E-25
1.03323E-01 2.56343E-25
1.05995E-01 2.42910E-25
1.08696E-01 2.30337E-25
1.11427E-01 2.18558E-25
1.14188E-01 2.07514E-25
1.16978E-01 1.97151E-25
1.19797E-01 1.87419E-25
1.22645E-01 1.78273E-25
1.25522E-01 1.69672E-25
1.28428E-01 1.61576E-25
1.31361E-01 1.53952E-25
1.34323E-01 1.46765E-25
1.37313E-01 1.39987E-25
1.40330E-01 1.33591E-25
1.43375E-01 1.27550E-25
1.46447E-01 1.21842E-25
1.49545E-01 1.16444E-25
1.52671E-01 1.11337E-25
1.55823E-01 1.06503E-25
1.59001E-01 1.01923E-25
1.62205E-01 9.75833E-26
1.65435E-01 9.34675E-26
1.68690E-01 8.95625E-26
1.71970E-01 8.58555E-26
1.75276E-01 8.23345E-26
1.78606E-01 7.89887E-26
1.81961E-01 7.58076E-26
1.85340E-01 7.27817E-26
1.88743E-01 6.99020E-26
1.92169E-01 6.71602E-26
1.95619E-01 6.45485E-26
1.99092E-01 6.20597E-26
2.02589E-01 5.96867E-26
2.06107E-01 5.74234E-26
2.09649E-01 5.52637E-26
2.13212E-01 5.32019E-26
2.16797E-01 5.12330E-26
2.20404E-01 4.93518E-26
2.24032E-01 4.75539E-26
2.27680E-01 4.58348E-26
2.31350E-01 4.41904E-26
2.35040E-01 4.26170E-26
2.38751E-01 4.11109E-26
2.42481E-01 3.96687E-26
2.46231E-01 3.82873E-26
2.50000E-01 3.69635E-26
2.53788E-01 3.56946E-26
2.57595E-01 3.44778E-26
2.61421E-01 3.33107E-26
2.65264E-01 3.21908E-26
2.69126E-01 3.11159E-26
2.73005E-01 3.00839E-26
2.76901E-01 2.90928E-26
2.80814E-01 2.81405E-26
2.84744E-01 2.72254E-26
2.88691E-01 2.63457E-26
2.92653E-01 2.54999E-26
2.96632E-01 2.46863E-26
3.00625E-01 2.39035E-26
3.04634E-01 2.31502E-26
3.08658E-01 2.24250E-26
3.12697E-01 2.17267E-26
3.16749E-01 2.10542E-26
3.20816E-01 2.04063E-26
3.24896E-01 1.97819E-26
3.28990E-01 1.91801E-26
3.33097E-01 1.85998E-26
3.37216E-01 1.80402E-26
3.41348E-01 1.75004E-26
3.45492E-01 1.69797E-26
3.49647E-01 1.64771E-26
3.53814E-01 1.59919E-26
3.57992E-01 1.55235E-26
3.62181E-01 1.50712E-26
3.66381E-01 1.46342E-26
3.70590E-01 1.42121E-26
3.74810E-01 1.38041E-26
3.79039E-01 1.34098E-26
3.83277E-01 1.30286E-26
3.87524E-01 1.26600E-26
3.91780E-01 1.23035E-26
3.96044E-01 1.19587E-26
4.00316E-01 1.16250E-26
4.04596E-01 1.13021E-26
4.08882E-01 1.09896E-26
4.13176E-01 1.06870E-26
4.17476E-01 1.03940E-26
4.21783E-01 1.01103E-26
4.26095E-01 9.83547E-27
4.30413E-01 9.56921E-27
4.34737E-01 9.31120E-27
4.39065E-01 9.06116E-27
4.43398E-01 8.81878E-27
4.47736E-01 8.58381E-27
4.52077E-01 8.35595E-27
4.56422E-01 8.13498E-27
4.60770E-01 7.92065E-27
4.65122E-01 7.71271E-27
4.69476E-01 7.51096E-27
4.73832E-01 7.31516E-27
4.78190E-01 7.12513E-27
4.82550E-01 6.94066E-27
4.86912E-01 6.76155E-27
4.91274E-01 6.58764E-27
4.95637E-01 6.41873E-27
5.00000E-01 6.25467E-27
5.04363E-01 6.09530E-27
5.08726E-01 5.94045E-27
5.13088E-01 5.78997E-27
5.17450E-01 5.64373E-27
5.21810E-01 5.50158E-27
5.26168E-01 5.36339E-27
5.30524E-01 5.22904E-27
5.34878E-01 5.09839E-27
5.39230E-01 4.97134E-27
5.43578E-01 4.84775E-27
5.47923E-01 4.72753E-27
5.52264E-01 4.61058E-27
5.56602E-01 4.49677E-27
5.60935E-01 4.38603E-27
5.65263E-01 4.27824E-27
5.69587E-01 4.17333E-27
5.73905E-01 4.07120E-27
5.78217E-01 3.97176E-27
5.82524E-01 3.87494E-27
5.86824E-01 3.78065E-27
5.91118E-01 3.68883E-27
5.95404E-01 3.59938E-27
5.99684E-01 3.51225E-27
6.03956E-01 3.42736E-27
6.08220E-01 3.34465E-27
6.12476E-01 3.26405E-27
6.16723E-01 3.18550E-27
6.20961E-01 3.10894E-27
6.25190E-01 3.03432E-27
6.29410E-01 2.96157E-27
6.33619E-01 2.89065E-27
6.37819E-01 2.82149E-27
6.42008E-01 2.75405E-27
6.46186E-01 2.68829E-27
6.50353E-01 2.62415E-27
6.54508E-01 2.56159E-27
6.58652E-01 2.50056E-27
6.62784E-01 2.44101E-27
6.66903E-01 2.38292E-27
6.71010E-01 2.32624E-27
6.75104E-01 2.27093E-27
6.79184E-01 2.21695E-27
6.83251E-01 2.16426E-27
6.87303E-01 2.11284E-27
6.91342E-01 2.06264E-27
6.95366E-01 2.01363E-27
6.99375E-01 1.96579E-27
7.03368E-01 1.91908E-27
7.07347E-01 1.87347E-27
7.11309E-01 1.82892E-27
7.15256E-01 1.78543E-27
7.19186E-01 1.74294E-27
7.23099E-01 1.70145E-27
7.26995E-01 1.66092E-27
7.30874E-01 1.62133E-27
7.34736E-01 1.58265E-27
7.38579E-01 1.54486E-27
7.42405E-01 1.50794E-27
7.46212E-01 1.47186E-27
7.50000E-01 1.43661E-27
7.53769E-01 1.40216E-27
7.57519E-01 1.36850E-27
7.61249E-01 1.33560E-27
7.64960E-01 1.30344E-27
7.68650E-01 1.27201E-27
7.72320E-01 1.24129E-27
7.75968E-01 1.21126E-27
7.79596E-01 1.18190E-27
7.83203E-01 1.15320E-27
7.86788E-01 1.12514E-27
7.90351E-01 1.09771E-27
7.93893E-01 1.07089E-27
7.97411E-01 1.04467E-27
8.00908E-01 1.01902E-27
8.04381E-01 9.93952E-28
8.07831E-01 9.69432E-28
8.11257E-01 9.45455E-28
8.14660E-01 9.22008E-28
8.18039E-01 8.99078E-28
8.21394E-01 8.76653E-28
8.24724E-01 8.54722E-28
8.28030E-01 8.33272E-28
8.31310E-01 8.12294E-28
8.34565E-01 7.91777E-28
8.37795E-01 7.71709E-28
8.40999E-01 7.52082E-28
8.44177E-01 7.32885E-28
8.47329E-01 7.14109E-28
8.50455E-01 6.95743E-28
8.53553E-01 6.77781E-28
8.56625E-01 6.60211E-28
8.59670E-01 6.43027E-28
8.62687E-01 6.26220E-28
8.65677E-01 6.09782E-28
8.68639E-01 5.93703E-28
8.71572E-01 5.77978E-28
8.74478E-01 5.62599E-28
8.77355E-01 5.47559E-28
8.80203E-01 5.32848E-28
8.83022E-01 5.18464E-28
8.85812E-01 5.04396E-28
8.88573E-01 4.90640E-28
8.91304E-01 4.77188E-28
8.94005E-01 4.64036E-28
8.96677E-01 4.51177E-28
8.99318E-01 4.38604E-28
9.01928E-01 4.26314E-28
9.04508E-01 4.14298E-28
9.07058E-01 4.02554E-28
9.09576E-01 3.91074E-28
9.12063E-01 3.79854E-28
9.14519E-01 3.68889E-28
9.16943E-01 3.58176E-28
9.19335E-01 3.47707E-28
9.21696E-01 3.37480E-28
9.24024E-01 3.27490E-28
9.26320E-01 3.17732E-28
9.28584E-01 3.08202E-28
9.30815E-01 2.98896E-28
9.33013E-01 2.89810E-28
9.35178E-01 2.80941E-28
9.37310E-01 2.72284E-28
9.39409E-01 2.63836E-28
9.41474E-01 2.55593E-28
9.43505E-01 2.47552E-28
9.45503E-01 2.39710E-28
9.47467E-01 2.32063E-28
9.49397E-01 2.24608E-28
9.51293E-01 2.17343E-28
9.53154E-01 2.10262E-28
9.54981E-01 2.03366E-28
9.56773E-01 1.96650E-28
9.58530E-01 1.90111E-28
9.60252E-01 1.83747E-28
9.61940E-01 1.77555E-28
9.63592E-01 1.71534E-28
9.65209E-01 1.65680E-28
9.66790E-01 1.59991E-28
9.68336E-01 1.54465E-28
9.69846E-01 1.49099E-28
9.71321E-01 1.43892E-28
9.72759E-01 1.38841E-28
9.74162E-01 1.33945E-28
9.75528E-01 1.29201E-28
9.76858E-01 1.24608E-28
9.78152E-01 1.20164E-28
9.79410E-01 1.15867E-28
9.80631E-01 1.11715E-28
9.81815E-01 1.07707E-28
9.82963E-01 1.03841E-28
9.84074E-01 1.00116E-28
9.85148E-01 9.65304E-29
9.86185E-01 9.30828E-29
9.87185E-01 8.97713E-29
9.88148E-01 8.65953E-29
9.89074E-01 8.35534E-29
9.89962E-01 8.06444E-29
9.90814E-01 7.78671E-29
9.91627E-01 7.52207E-29
9.92404E-01 7.27038E-29
9.93143E-01 7.03155E-29
9.93844E-01 6.80556E-29
9.94508E-01 6.59225E-29
9.95134E-01 6.39156E-29
9.95722E-01 6.20338E-29
9.96273E-01 6.02770E-29
9.96786E-01 5.86446E-29
9.97261E-01 5.71348E-29
9.97698E-01 5.57476E-29
9.98097E-01 5.44844E-29
9.98459E-01 5.33412E-29
9.98782E-01 5.23201E-29
9.99067E-01 5.14201E-29
9.99315E-01 5.06408E-29
9.99524E-01 4.99811E-29
9.99695E-01 4.94428E-29
9.99829E-01 4.90239E-29
9.99924E-01 4.87257E-29
9.99981E-01 4.85460E-29
1.00000E+00 4.84907E-29
