 #
 # Subroutine ELSEPA. Elastic scattering of electrons and positrons
 #                    by neutral atoms and positive ions
 #
 # Projectile: electron
 # Kinetic energy = 4.00000E+06 eV = 1.46997E+05 a.u.
 #
 # WARNING: High-energy factorization with free-atom DF screening.
 #          Absorption, polarization and exchange corrections are
 #          switched off.
 #          Phase shifts are calculated for the bare nucleus.
 #          Scattering amplitudes are not evaluated.
 #
 # Element: Li,  Z =   3,  atomic weight = 6.94100E+00 g/mol
 #
 # Nuclear model: Fermi distribution
 #                Average radius = 2.04107E-13 cm
 #                Skin thickness = 5.46000E-14 cm
 #
 # Number of electrons =  3
 #
 # Total elastic cross section = 1.08940E-19 cm**2 = 3.89032E-03 a0**2
 # 1st transport cross section = 7.26526E-25 cm**2 = 2.59447E-08 a0**2
 # 2nd transport cross section = 2.08780E-24 cm**2 = 7.45567E-08 a0**2
 #
 #
 # Differential cross section:                       MU=(1-COS(THETA))/2
 #
 #  THETA        MU          DCS          DCS        Sherman      error
 #  (deg)                 (cm**2/sr)   (a0**2/sr)    function
 #----------------------------------------------------------------------
0.00000E+00 8.41390E-14
7.61557E-13 8.41378E-14
1.18994E-12 8.41372E-14
1.71346E-12 8.41364E-14
2.33225E-12 8.41355E-14
3.04617E-12 8.41345E-14
3.85530E-12 8.41333E-14
4.75964E-12 8.41319E-14
5.75917E-12 8.41304E-14
6.85391E-12 8.41288E-14
8.04379E-12 8.41271E-14
9.32893E-12 8.41252E-14
1.07092E-11 8.41231E-14
1.21847E-11 8.41209E-14
1.37554E-11 8.41186E-14
1.54213E-11 8.41161E-14
1.71823E-11 8.41135E-14
1.90386E-11 8.41108E-14
2.09900E-11 8.41079E-14
2.30367E-11 8.41049E-14
2.51785E-11 8.41017E-14
2.74156E-11 8.40984E-14
2.97478E-11 8.40949E-14
3.21752E-11 8.40913E-14
3.46979E-11 8.40876E-14
3.73157E-11 8.40837E-14
4.00286E-11 8.40797E-14
4.28368E-11 8.40756E-14
4.57402E-11 8.40713E-14
4.87388E-11 8.40668E-14
5.18325E-11 8.40623E-14
5.50215E-11 8.40576E-14
5.83057E-11 8.40527E-14
6.16850E-11 8.40477E-14
6.51595E-11 8.40426E-14
6.87293E-11 8.40373E-14
7.23943E-11 8.40319E-14
7.61544E-11 8.40263E-14
1.18991E-10 8.39631E-14
1.71347E-10 8.38859E-14
2.33223E-10 8.37947E-14
3.04617E-10 8.36897E-14
3.85531E-10 8.35710E-14
4.75965E-10 8.34385E-14
5.75917E-10 8.32923E-14
6.85389E-10 8.31327E-14
8.04380E-10 8.29596E-14
9.32891E-10 8.27733E-14
1.07092E-09 8.25737E-14
1.21847E-09 8.23610E-14
1.37554E-09 8.21355E-14
1.54213E-09 8.18970E-14
1.71823E-09 8.16459E-14
1.90386E-09 8.13825E-14
2.09900E-09 8.11067E-14
2.30367E-09 8.08185E-14
2.51785E-09 8.05187E-14
2.74156E-09 8.02070E-14
2.97478E-09 7.98835E-14
3.21752E-09 7.95488E-14
3.46978E-09 7.92030E-14
3.73156E-09 7.88459E-14
4.00286E-09 7.84782E-14
4.28368E-09 7.81002E-14
4.57402E-09 7.77115E-14
4.87388E-09 7.73127E-14
5.18326E-09 7.69044E-14
5.50215E-09 7.64862E-14
5.83057E-09 7.60583E-14
6.16850E-09 7.56220E-14
6.51596E-09 7.51764E-14
6.87293E-09 7.47218E-14
7.23942E-09 7.42595E-14
7.61544E-09 7.37888E-14
1.18991E-08 6.86911E-14
1.71347E-08 6.30687E-14
2.33223E-08 5.71788E-14
3.04617E-08 5.12530E-14
3.85531E-08 4.54829E-14
4.75965E-08 4.00151E-14
5.75917E-08 3.49508E-14
6.85389E-08 3.03494E-14
8.04380E-08 2.62886E-14
9.32891E-08 2.27415E-14
1.07092E-07 1.95404E-14
1.21847E-07 1.67189E-14
1.37554E-07 1.44387E-14
1.54213E-07 1.24155E-14
1.71823E-07 1.06312E-14
1.90386E-07 9.22684E-15
2.09900E-07 7.99440E-15
2.30367E-07 6.91108E-15
2.51785E-07 6.04076E-15
2.74156E-07 5.29336E-15
2.97478E-07 4.63491E-15
3.21752E-07 4.09081E-15
3.46978E-07 3.63010E-15
3.73156E-07 3.22209E-15
4.00286E-07 2.87490E-15
4.28368E-07 2.58274E-15
4.57402E-07 2.32232E-15
4.87388E-07 2.09478E-15
5.18325E-07 1.90308E-15
5.50215E-07 1.73105E-15
5.83057E-07 1.57744E-15
6.16850E-07 1.44710E-15
6.51596E-07 1.32938E-15
6.87293E-07 1.22290E-15
7.23942E-07 1.13082E-15
7.61543E-07 1.04747E-15
1.18991E-06 5.43360E-16
1.71347E-06 3.23270E-16
2.33223E-06 2.07889E-16
3.04617E-06 1.40634E-16
3.85531E-06 9.82600E-17
4.75964E-06 7.05507E-17
5.75916E-06 5.17889E-17
6.85388E-06 3.86918E-17
8.04378E-06 2.93561E-17
9.32888E-06 2.26659E-17
1.07092E-05 1.76966E-17
1.21846E-05 1.39964E-17
1.37553E-05 1.11999E-17
1.54212E-05 9.05638E-18
1.71822E-05 7.39249E-18
1.90385E-05 6.09592E-18
2.09899E-05 5.05908E-18
2.30365E-05 4.22910E-18
2.51783E-05 3.56040E-18
2.74153E-05 3.01728E-18
2.97475E-05 2.57365E-18
3.21749E-05 2.20899E-18
3.46974E-05 1.90676E-18
3.73152E-05 1.65420E-18
4.00281E-05 1.44167E-18
4.28362E-05 1.26162E-18
4.57395E-05 1.10842E-18
4.87380E-05 9.77535E-19
5.18317E-05 8.65288E-19
5.50205E-05 7.68657E-19
5.83045E-05 6.85238E-19
6.16838E-05 6.12895E-19
6.51582E-05 5.49870E-19
6.87277E-05 4.94735E-19
7.23925E-05 4.46268E-19
7.61524E-05 4.03531E-19
9.21439E-05 2.75990E-19
1.09658E-04 1.95172E-19
1.28695E-04 1.41752E-19
1.49255E-04 1.05432E-19
1.71338E-04 8.00430E-20
1.94942E-04 6.18388E-20
2.20070E-04 4.85432E-20
2.46720E-04 3.86256E-20
2.74892E-04 3.11215E-20
3.04586E-04 2.53531E-20
3.35803E-04 2.08602E-20
3.68542E-04 1.73220E-20
4.02802E-04 1.45010E-20
4.38585E-04 1.22332E-20
4.75889E-04 1.03911E-20
5.14715E-04 8.88319E-21
5.55063E-04 7.63941E-21
5.96931E-04 6.60545E-21
6.40321E-04 5.74113E-21
6.85233E-04 5.01330E-21
7.31665E-04 4.39745E-21
7.79618E-04 3.87329E-21
8.29092E-04 3.42488E-21
8.80086E-04 3.03966E-21
9.32601E-04 2.70697E-21
9.86636E-04 2.41869E-21
1.04219E-03 2.16773E-21
1.09927E-03 1.94850E-21
1.15786E-03 1.75632E-21
1.21797E-03 1.58722E-21
1.27961E-03 1.43804E-21
1.34276E-03 1.30594E-21
1.40743E-03 1.18870E-21
1.47362E-03 1.08431E-21
1.54133E-03 9.91131E-22
1.61056E-03 9.07766E-22
1.68131E-03 8.32964E-22
1.75357E-03 7.65728E-22
1.82735E-03 7.05132E-22
1.90265E-03 6.50415E-22
1.97947E-03 6.00910E-22
2.05780E-03 5.56017E-22
2.13765E-03 5.15250E-22
2.21902E-03 4.78143E-22
2.30190E-03 4.44323E-22
2.38630E-03 4.13439E-22
2.47222E-03 3.85191E-22
2.55965E-03 3.59319E-22
2.64859E-03 3.35579E-22
2.73905E-03 3.13771E-22
2.83103E-03 2.93704E-22
2.92452E-03 2.75216E-22
3.01952E-03 2.58162E-22
3.11604E-03 2.42406E-22
3.21407E-03 2.27836E-22
3.31362E-03 2.14343E-22
3.41468E-03 2.01835E-22
3.51725E-03 1.90227E-22
3.62133E-03 1.79440E-22
3.72692E-03 1.69408E-22
3.83403E-03 1.60067E-22
3.94265E-03 1.51361E-22
4.05278E-03 1.43239E-22
4.16442E-03 1.35654E-22
4.27757E-03 1.28566E-22
4.39223E-03 1.21933E-22
4.50840E-03 1.15724E-22
4.62608E-03 1.09904E-22
4.74527E-03 1.04446E-22
4.86597E-03 9.93220E-23
4.98817E-03 9.45085E-23
5.11188E-03 8.99835E-23
5.23711E-03 8.57255E-23
5.36383E-03 8.17169E-23
5.49207E-03 7.79396E-23
5.62181E-03 7.43780E-23
5.75306E-03 7.10178E-23
5.88581E-03 6.78448E-23
6.02007E-03 6.48474E-23
6.15583E-03 6.20134E-23
6.29310E-03 5.93326E-23
6.43187E-03 5.67952E-23
6.57214E-03 5.43918E-23
6.71392E-03 5.21144E-23
6.85720E-03 4.99547E-23
7.00198E-03 4.79058E-23
7.14827E-03 4.59608E-23
7.29605E-03 4.41136E-23
7.44534E-03 4.23582E-23
7.59612E-03 4.06892E-23
7.97965E-03 3.68625E-23
8.37255E-03 3.34752E-23
8.77480E-03 3.04681E-23
9.18641E-03 2.77910E-23
9.60736E-03 2.54016E-23
1.00376E-02 2.32634E-23
1.04773E-02 2.13454E-23
1.09262E-02 1.96210E-23
1.13844E-02 1.80672E-23
1.18520E-02 1.66641E-23
1.23288E-02 1.53945E-23
1.28150E-02 1.42435E-23
1.33104E-02 1.31980E-23
1.38150E-02 1.22467E-23
1.43290E-02 1.13794E-23
1.48521E-02 1.05876E-23
1.53845E-02 9.86335E-24
1.59262E-02 9.19996E-24
1.64770E-02 8.59136E-24
1.70371E-02 8.03222E-24
1.76063E-02 7.51779E-24
1.81848E-02 7.04385E-24
1.87724E-02 6.60663E-24
1.93692E-02 6.20278E-24
1.99751E-02 5.82929E-24
2.05901E-02 5.48345E-24
2.12143E-02 5.16286E-24
2.18476E-02 4.86532E-24
2.24900E-02 4.58888E-24
2.31415E-02 4.33177E-24
2.38021E-02 4.09239E-24
2.44717E-02 3.86929E-24
2.51504E-02 3.66116E-24
2.58382E-02 3.46682E-24
2.65349E-02 3.28518E-24
2.72407E-02 3.11526E-24
2.79555E-02 2.95617E-24
2.86793E-02 2.80708E-24
2.94120E-02 2.66726E-24
3.01537E-02 2.53601E-24
3.09043E-02 2.41272E-24
3.16639E-02 2.29682E-24
3.24324E-02 2.18778E-24
3.32098E-02 2.08511E-24
3.39961E-02 1.98839E-24
3.47912E-02 1.89719E-24
3.55952E-02 1.81115E-24
3.64081E-02 1.72992E-24
3.72297E-02 1.65318E-24
3.80602E-02 1.58063E-24
3.88995E-02 1.51201E-24
3.97476E-02 1.44706E-24
4.06044E-02 1.38555E-24
4.14700E-02 1.32727E-24
4.23443E-02 1.27200E-24
4.32273E-02 1.21958E-24
4.41190E-02 1.16982E-24
4.50194E-02 1.12256E-24
4.59284E-02 1.07765E-24
4.68461E-02 1.03496E-24
4.87074E-02 9.55714E-25
5.06030E-02 8.83879E-25
5.25328E-02 8.18642E-25
5.44967E-02 7.59288E-25
5.64946E-02 7.05193E-25
5.85262E-02 6.55809E-25
6.05914E-02 6.10652E-25
6.26901E-02 5.69296E-25
6.48222E-02 5.31363E-25
6.69873E-02 4.96521E-25
6.91854E-02 4.64472E-25
7.14163E-02 4.34951E-25
7.36799E-02 4.07725E-25
7.59760E-02 3.82582E-25
7.83043E-02 3.59334E-25
8.06647E-02 3.37813E-25
8.30571E-02 3.17868E-25
8.54812E-02 2.99362E-25
8.79369E-02 2.82172E-25
9.04240E-02 2.66189E-25
9.29422E-02 2.51312E-25
9.54915E-02 2.37451E-25
9.80716E-02 2.24524E-25
1.00682E-01 2.12456E-25
1.03323E-01 2.01181E-25
1.05995E-01 1.90636E-25
1.08696E-01 1.80765E-25
1.11427E-01 1.71519E-25
1.14188E-01 1.62850E-25
1.16978E-01 1.54715E-25
1.19797E-01 1.47076E-25
1.22645E-01 1.39897E-25
1.25522E-01 1.33145E-25
1.28428E-01 1.26790E-25
1.31361E-01 1.20805E-25
1.34323E-01 1.15164E-25
1.37313E-01 1.09844E-25
1.40330E-01 1.04823E-25
1.43375E-01 1.00081E-25
1.46447E-01 9.56008E-26
1.49545E-01 9.13641E-26
1.52671E-01 8.73557E-26
1.55823E-01 8.35611E-26
1.59001E-01 7.99667E-26
1.62205E-01 7.65602E-26
1.65435E-01 7.33298E-26
1.68690E-01 7.02648E-26
1.71970E-01 6.73552E-26
1.75276E-01 6.45918E-26
1.78606E-01 6.19657E-26
1.81961E-01 5.94690E-26
1.85340E-01 5.70941E-26
1.88743E-01 5.48341E-26
1.92169E-01 5.26822E-26
1.95619E-01 5.06325E-26
1.99092E-01 4.86792E-26
2.02589E-01 4.68168E-26
2.06107E-01 4.50406E-26
2.09649E-01 4.33456E-26
2.13212E-01 4.17276E-26
2.16797E-01 4.01824E-26
2.20404E-01 3.87061E-26
2.24032E-01 3.72951E-26
2.27680E-01 3.59460E-26
2.31350E-01 3.46556E-26
2.35040E-01 3.34209E-26
2.38751E-01 3.22390E-26
2.42481E-01 3.11073E-26
2.46231E-01 3.00232E-26
2.50000E-01 2.89844E-26
2.53788E-01 2.79887E-26
2.57595E-01 2.70339E-26
2.61421E-01 2.61181E-26
2.65264E-01 2.52393E-26
2.69126E-01 2.43959E-26
2.73005E-01 2.35861E-26
2.76901E-01 2.28084E-26
2.80814E-01 2.20612E-26
2.84744E-01 2.13432E-26
2.88691E-01 2.06530E-26
2.92653E-01 1.99893E-26
2.96632E-01 1.93509E-26
3.00625E-01 1.87368E-26
3.04634E-01 1.81457E-26
3.08658E-01 1.75768E-26
3.12697E-01 1.70289E-26
3.16749E-01 1.65013E-26
3.20816E-01 1.59929E-26
3.24896E-01 1.55031E-26
3.28990E-01 1.50309E-26
3.33097E-01 1.45757E-26
3.37216E-01 1.41367E-26
3.41348E-01 1.37133E-26
3.45492E-01 1.33047E-26
3.49647E-01 1.29104E-26
3.53814E-01 1.25298E-26
3.57992E-01 1.21624E-26
3.62181E-01 1.18075E-26
3.66381E-01 1.14648E-26
3.70590E-01 1.11336E-26
3.74810E-01 1.08136E-26
3.79039E-01 1.05043E-26
3.83277E-01 1.02053E-26
3.87524E-01 9.91619E-27
3.91780E-01 9.63656E-27
3.96044E-01 9.36607E-27
4.00316E-01 9.10436E-27
4.04596E-01 8.85109E-27
4.08882E-01 8.60596E-27
4.13176E-01 8.36865E-27
4.17476E-01 8.13887E-27
4.21783E-01 7.91634E-27
4.26095E-01 7.70079E-27
4.30413E-01 7.49197E-27
4.34737E-01 7.28962E-27
4.39065E-01 7.09352E-27
4.43398E-01 6.90344E-27
4.47736E-01 6.71916E-27
4.52077E-01 6.54048E-27
4.56422E-01 6.36719E-27
4.60770E-01 6.19911E-27
4.65122E-01 6.03605E-27
4.69476E-01 5.87784E-27
4.73832E-01 5.72431E-27
4.78190E-01 5.57529E-27
4.82550E-01 5.43064E-27
4.86912E-01 5.29020E-27
4.91274E-01 5.15383E-27
4.95637E-01 5.02140E-27
5.00000E-01 4.89276E-27
5.04363E-01 4.76780E-27
5.08726E-01 4.64639E-27
5.13088E-01 4.52841E-27
5.17450E-01 4.41375E-27
5.21810E-01 4.30230E-27
5.26168E-01 4.19396E-27
5.30524E-01 4.08863E-27
5.34878E-01 3.98621E-27
5.39230E-01 3.88660E-27
5.43578E-01 3.78971E-27
5.47923E-01 3.69547E-27
5.52264E-01 3.60379E-27
5.56602E-01 3.51457E-27
5.60935E-01 3.42776E-27
5.65263E-01 3.34327E-27
5.69587E-01 3.26103E-27
5.73905E-01 3.18097E-27
5.78217E-01 3.10303E-27
5.82524E-01 3.02714E-27
5.86824E-01 2.95324E-27
5.91118E-01 2.88126E-27
5.95404E-01 2.81116E-27
5.99684E-01 2.74287E-27
6.03956E-01 2.67634E-27
6.08220E-01 2.61151E-27
6.12476E-01 2.54834E-27
6.16723E-01 2.48678E-27
6.20961E-01 2.42679E-27
6.25190E-01 2.36831E-27
6.29410E-01 2.31130E-27
6.33619E-01 2.25571E-27
6.37819E-01 2.20152E-27
6.42008E-01 2.14868E-27
6.46186E-01 2.09714E-27
6.50353E-01 2.04688E-27
6.54508E-01 1.99786E-27
6.58652E-01 1.95004E-27
6.62784E-01 1.90339E-27
6.66903E-01 1.85787E-27
6.71010E-01 1.81346E-27
6.75104E-01 1.77012E-27
6.79184E-01 1.72783E-27
6.83251E-01 1.68655E-27
6.87303E-01 1.64626E-27
6.91342E-01 1.60693E-27
6.95366E-01 1.56854E-27
6.99375E-01 1.53106E-27
7.03368E-01 1.49447E-27
7.07347E-01 1.45874E-27
7.11309E-01 1.42384E-27
7.15256E-01 1.38977E-27
7.19186E-01 1.35649E-27
7.23099E-01 1.32399E-27
7.26995E-01 1.29224E-27
7.30874E-01 1.26123E-27
7.34736E-01 1.23093E-27
7.38579E-01 1.20134E-27
7.42405E-01 1.17242E-27
7.46212E-01 1.14416E-27
7.50000E-01 1.11655E-27
7.53769E-01 1.08958E-27
7.57519E-01 1.06321E-27
7.61249E-01 1.03744E-27
7.64960E-01 1.01226E-27
7.68650E-01 9.87648E-28
7.72320E-01 9.63590E-28
7.75968E-01 9.40073E-28
7.79596E-01 9.17084E-28
7.83203E-01 8.94610E-28
7.86788E-01 8.72639E-28
7.90351E-01 8.51159E-28
7.93893E-01 8.30159E-28
7.97411E-01 8.09625E-28
8.00908E-01 7.89547E-28
8.04381E-01 7.69916E-28
8.07831E-01 7.50719E-28
8.11257E-01 7.31946E-28
8.14660E-01 7.13589E-28
8.18039E-01 6.95637E-28
8.21394E-01 6.78081E-28
8.24724E-01 6.60912E-28
8.28030E-01 6.44120E-28
8.31310E-01 6.27698E-28
8.34565E-01 6.11636E-28
8.37795E-01 5.95927E-28
8.40999E-01 5.80563E-28
8.44177E-01 5.65536E-28
8.47329E-01 5.50839E-28
8.50455E-01 5.36463E-28
8.53553E-01 5.22404E-28
8.56625E-01 5.08652E-28
8.59670E-01 4.95202E-28
8.62687E-01 4.82047E-28
8.65677E-01 4.69182E-28
8.68639E-01 4.56598E-28
8.71572E-01 4.44291E-28
8.74478E-01 4.32255E-28
8.77355E-01 4.20484E-28
8.80203E-01 4.08972E-28
8.83022E-01 3.97715E-28
8.85812E-01 3.86706E-28
8.88573E-01 3.75941E-28
8.91304E-01 3.65415E-28
8.94005E-01 3.55123E-28
8.96677E-01 3.45061E-28
8.99318E-01 3.35223E-28
9.01928E-01 3.25606E-28
9.04508E-01 3.16204E-28
9.07058E-01 3.07015E-28
9.09576E-01 2.98032E-28
9.12063E-01 2.89254E-28
9.14519E-01 2.80675E-28
9.16943E-01 2.72293E-28
9.19335E-01 2.64102E-28
9.21696E-01 2.56101E-28
9.24024E-01 2.48285E-28
9.26320E-01 2.40651E-28
9.28584E-01 2.33195E-28
9.30815E-01 2.25915E-28
9.33013E-01 2.18808E-28
9.35178E-01 2.11869E-28
9.37310E-01 2.05097E-28
9.39409E-01 1.98489E-28
9.41474E-01 1.92041E-28
9.43505E-01 1.85751E-28
9.45503E-01 1.79616E-28
9.47467E-01 1.73634E-28
9.49397E-01 1.67803E-28
9.51293E-01 1.62120E-28
9.53154E-01 1.56582E-28
9.54981E-01 1.51188E-28
9.56773E-01 1.45935E-28
9.58530E-01 1.40820E-28
9.60252E-01 1.35843E-28
9.61940E-01 1.31001E-28
9.63592E-01 1.26291E-28
9.65209E-01 1.21713E-28
9.66790E-01 1.17263E-28
9.68336E-01 1.12941E-28
9.69846E-01 1.08745E-28
9.71321E-01 1.04673E-28
9.72759E-01 1.00723E-28
9.74162E-01 9.68933E-29
9.75528E-01 9.31838E-29
9.76858E-01 8.95917E-29
9.78152E-01 8.61162E-29
9.79410E-01 8.27557E-29
9.80631E-01 7.95087E-29
9.81815E-01 7.63745E-29
9.82963E-01 7.33517E-29
9.84074E-01 7.04387E-29
9.85148E-01 6.76347E-29
9.86185E-01 6.49387E-29
9.87185E-01 6.23493E-29
9.88148E-01 5.98658E-29
9.89074E-01 5.74871E-29
9.89962E-01 5.52124E-29
9.90814E-01 5.30407E-29
9.91627E-01 5.09713E-29
9.92404E-01 4.90033E-29
9.93143E-01 4.71358E-29
9.93844E-01 4.53688E-29
9.94508E-01 4.37008E-29
9.95134E-01 4.21316E-29
9.95722E-01 4.06602E-29
9.96273E-01 3.92865E-29
9.96786E-01 3.80101E-29
9.97261E-01 3.68296E-29
9.97698E-01 3.57450E-29
9.98097E-01 3.47572E-29
9.98459E-01 3.38634E-29
9.98782E-01 3.30650E-29
9.99067E-01 3.23613E-29
9.99315E-01 3.17520E-29
9.99524E-01 3.12362E-29
9.99695E-01 3.08153E-29
9.99829E-01 3.04878E-29
9.99924E-01 3.02545E-29
9.99981E-01 3.01141E-29
1.00000E+00 3.00705E-29
