 #
 # Subroutine ELSEPA. Elastic scattering of electrons and positrons
 #                    by neutral atoms and positive ions
 #
 # Projectile: electron
 # Kinetic energy = 6.00000E+08 eV = 2.20496E+07 a.u.
 #
 # WARNING: High-energy factorization with free-atom DF screening.
 #          Absorption, polarization and exchange corrections are
 #          switched off.
 #          Phase shifts are calculated for the bare nucleus.
 #          Scattering amplitudes are not evaluated.
 #
 # Element: Pb,  Z =  82,  atomic weight = 2.07200E+02 g/mol
 #
 # Nuclear model: Fermi distribution
 #                Average radius = 6.33160E-13 cm
 #                Skin thickness = 5.46000E-14 cm
 #
 # Number of electrons = 82
 #
 # Total elastic cross section = 8.59339E-18 cm**2 = 3.06876E-01 a0**2
 # 1st transport cross section = 3.49592E-26 cm**2 = 1.24842E-09 a0**2
 # 2nd transport cross section = 1.04849E-25 cm**2 = 3.74424E-09 a0**2
 #
 #
 # Differential cross section:                       MU=(1-COS(THETA))/2
 #
 #  THETA        MU          DCS          DCS        Sherman      error
 #  (deg)                 (cm**2/sr)   (a0**2/sr)    function
 #----------------------------------------------------------------------
0.00000E+00 2.23055E-08
7.61557E-13 2.04387E-08
1.18994E-12 1.95098E-08
1.71346E-12 1.84750E-08
2.33225E-12 1.73760E-08
3.04617E-12 1.62500E-08
3.85530E-12 1.51283E-08
4.75964E-12 1.40351E-08
5.75917E-12 1.29870E-08
6.85391E-12 1.19954E-08
8.04379E-12 1.10684E-08
9.32893E-12 1.02087E-08
1.07092E-11 9.41638E-09
1.21847E-11 8.68922E-09
1.37554E-11 8.02389E-09
1.54213E-11 7.41632E-09
1.71823E-11 6.86208E-09
1.90386E-11 6.35665E-09
2.09900E-11 5.89568E-09
2.30367E-11 5.47426E-09
2.51785E-11 5.08922E-09
2.74156E-11 4.73720E-09
2.97478E-11 4.41495E-09
3.21752E-11 4.11955E-09
3.46979E-11 3.84836E-09
3.73157E-11 3.59904E-09
4.00286E-11 3.36949E-09
4.28368E-11 3.15782E-09
4.57402E-11 2.96237E-09
4.87388E-11 2.78156E-09
5.18325E-11 2.61389E-09
5.50215E-11 2.45847E-09
5.83057E-11 2.31423E-09
6.16850E-11 2.18022E-09
6.51595E-11 2.05044E-09
6.87293E-11 1.92537E-09
7.23943E-11 1.81185E-09
7.61544E-11 1.70860E-09
1.18991E-10 1.00654E-09
1.71347E-10 6.27034E-10
2.33223E-10 4.10283E-10
3.04617E-10 2.80331E-10
3.85531E-10 1.98708E-10
4.75965E-10 1.45146E-10
5.75917E-10 1.08546E-10
6.85389E-10 8.27087E-11
8.04380E-10 6.40441E-11
9.32891E-10 5.02771E-11
1.07092E-09 3.99531E-11
1.21847E-09 3.21048E-11
1.37554E-09 2.60682E-11
1.54213E-09 2.13846E-11
1.71823E-09 1.76912E-11
1.90386E-09 1.47612E-11
2.09900E-09 1.24227E-11
2.30367E-09 1.05371E-11
2.51785E-09 9.00205E-12
2.74156E-09 7.74037E-12
2.97478E-09 6.69422E-12
3.21752E-09 5.82022E-12
3.46978E-09 5.08530E-12
3.73156E-09 4.46377E-12
4.00286E-09 3.93530E-12
4.28368E-09 3.48355E-12
4.57402E-09 3.09535E-12
4.87388E-09 2.76000E-12
5.18326E-09 2.46884E-12
5.50215E-09 2.21508E-12
5.83057E-09 1.99309E-12
6.16850E-09 1.79823E-12
6.51596E-09 1.62608E-12
6.87293E-09 1.47387E-12
7.23942E-09 1.33985E-12
7.61544E-09 1.22143E-12
1.18991E-08 5.33463E-13
1.71347E-08 2.68787E-13
2.33223E-08 1.49634E-13
3.04617E-08 8.97288E-14
3.85531E-08 5.70228E-14
4.75965E-08 3.79653E-14
5.75917E-08 2.62530E-14
6.85389E-08 1.87307E-14
8.04380E-08 1.37199E-14
9.32891E-08 1.02774E-14
1.07092E-07 7.84919E-15
1.21847E-07 6.09660E-15
1.37554E-07 4.80640E-15
1.54213E-07 3.83975E-15
1.71823E-07 3.10410E-15
1.90386E-07 2.53628E-15
2.09900E-07 2.09248E-15
2.30367E-07 1.74159E-15
2.51785E-07 1.46124E-15
2.74156E-07 1.23507E-15
2.97478E-07 1.05102E-15
3.21752E-07 9.00015E-16
3.46978E-07 7.75183E-16
3.73156E-07 6.71266E-16
4.00286E-07 5.84199E-16
4.28368E-07 5.10806E-16
4.57402E-07 4.48589E-16
4.87388E-07 3.95565E-16
5.18325E-07 3.50152E-16
5.50215E-07 3.11075E-16
5.83057E-07 2.77302E-16
6.16850E-07 2.47992E-16
6.51596E-07 2.22454E-16
6.87293E-07 2.00122E-16
7.23942E-07 1.80524E-16
7.61543E-07 1.63268E-16
1.18991E-06 6.72963E-17
1.71347E-06 3.25885E-17
2.33223E-06 1.76408E-17
3.04617E-06 1.03620E-17
3.85531E-06 6.47888E-18
4.75964E-06 4.25584E-18
5.75916E-06 2.90955E-18
6.85388E-06 2.05592E-18
8.04378E-06 1.49362E-18
9.32888E-06 1.11107E-18
1.07092E-05 8.43530E-19
1.21846E-05 6.51887E-19
1.37553E-05 5.11712E-19
1.54212E-05 4.07273E-19
1.71822E-05 3.28173E-19
1.90385E-05 2.67217E-19
2.09899E-05 2.20067E-19
2.30365E-05 1.82840E-19
2.51783E-05 1.53114E-19
2.74153E-05 1.29156E-19
2.97475E-05 1.09688E-19
3.21749E-05 9.37548E-20
3.46974E-05 8.06216E-20
3.73152E-05 6.97207E-20
4.00281E-05 6.06100E-20
4.28362E-05 5.29439E-20
4.57395E-05 4.64525E-20
4.87380E-05 4.09243E-20
5.18317E-05 3.61923E-20
5.50205E-05 3.21233E-20
5.83045E-05 2.86100E-20
6.16838E-05 2.55648E-20
6.51582E-05 2.29153E-20
6.87277E-05 2.06014E-20
7.23925E-05 1.85734E-20
7.61524E-05 1.71384E-20
9.21439E-05 1.17420E-20
1.09658E-04 8.31242E-21
1.28695E-04 6.04828E-21
1.49255E-04 4.50389E-21
1.71338E-04 3.42123E-21
1.94942E-04 2.64386E-21
2.20070E-04 2.07400E-21
2.46720E-04 1.64856E-21
2.74892E-04 1.32577E-21
3.04586E-04 1.07730E-21
3.35803E-04 8.83571E-22
3.68542E-04 7.30751E-22
4.02802E-04 6.08934E-22
4.38585E-04 5.10900E-22
4.75889E-04 4.31315E-22
5.14715E-04 3.66196E-22
5.55063E-04 3.12520E-22
5.96931E-04 2.67982E-22
6.40321E-04 2.30796E-22
6.85233E-04 1.99569E-22
7.31665E-04 1.73210E-22
7.79618E-04 1.50848E-22
8.29092E-04 1.31792E-22
8.80086E-04 1.15482E-22
9.32601E-04 1.01469E-22
9.86636E-04 8.93829E-23
1.04219E-03 7.89233E-23
1.09927E-03 6.98422E-23
1.15786E-03 6.19333E-23
1.21797E-03 5.50259E-23
1.27961E-03 4.89769E-23
1.34276E-03 4.36661E-23
1.40743E-03 3.89925E-23
1.47362E-03 3.48703E-23
1.54133E-03 3.12268E-23
1.61056E-03 2.80001E-23
1.68131E-03 2.51371E-23
1.75357E-03 2.25923E-23
1.82735E-03 2.03266E-23
1.90265E-03 1.83062E-23
1.97947E-03 1.65019E-23
2.05780E-03 1.48883E-23
2.13765E-03 1.34433E-23
2.21902E-03 1.21477E-23
2.30190E-03 1.09847E-23
2.38630E-03 9.93953E-24
2.47222E-03 8.99932E-24
2.55965E-03 8.15267E-24
2.64859E-03 7.38956E-24
2.73905E-03 6.70116E-24
2.83103E-03 6.07963E-24
2.92452E-03 5.51806E-24
3.01952E-03 5.01028E-24
3.11604E-03 4.55083E-24
3.21407E-03 4.13486E-24
3.31362E-03 3.75802E-24
3.41468E-03 3.41644E-24
3.51725E-03 3.10667E-24
3.62133E-03 2.82561E-24
3.72692E-03 2.57049E-24
3.83403E-03 2.33881E-24
3.94265E-03 2.12836E-24
4.05278E-03 1.93711E-24
4.16442E-03 1.76326E-24
4.27757E-03 1.60518E-24
4.39223E-03 1.46141E-24
4.50840E-03 1.33062E-24
4.62608E-03 1.21162E-24
4.74527E-03 1.10332E-24
4.86597E-03 1.00475E-24
4.98817E-03 9.15024E-25
5.11188E-03 8.33337E-25
5.23711E-03 7.58964E-25
5.36383E-03 6.91247E-25
5.49207E-03 6.29587E-25
5.62181E-03 5.73442E-25
5.75306E-03 5.22317E-25
5.88581E-03 4.75765E-25
6.02007E-03 4.33378E-25
6.15583E-03 3.94785E-25
6.29310E-03 3.59649E-25
6.43187E-03 3.27662E-25
6.57214E-03 2.98545E-25
6.71392E-03 2.72043E-25
6.85720E-03 2.47923E-25
7.00198E-03 2.25974E-25
7.14827E-03 2.06003E-25
7.29605E-03 1.87834E-25
7.44534E-03 1.71307E-25
7.59612E-03 1.56275E-25
7.97965E-03 1.24389E-25
8.37255E-03 9.92609E-26
8.77480E-03 7.94721E-26
9.18641E-03 6.38950E-26
9.60736E-03 5.16343E-26
1.00376E-02 4.19798E-26
1.04773E-02 3.43691E-26
1.09262E-02 2.83575E-26
1.13844E-02 2.35943E-26
1.18520E-02 1.98038E-26
1.23288E-02 1.67695E-26
1.28150E-02 1.43226E-26
1.33104E-02 1.23315E-26
1.38150E-02 1.06943E-26
1.43290E-02 9.33258E-27
1.48521E-02 8.18595E-27
1.53845E-02 7.20839E-27
1.59262E-02 6.36494E-27
1.64770E-02 5.62913E-27
1.70371E-02 4.98106E-27
1.76063E-02 4.40573E-27
1.81848E-02 3.89188E-27
1.87724E-02 3.43099E-27
1.93692E-02 3.01659E-27
1.99751E-02 2.64366E-27
2.05901E-02 2.30820E-27
2.12143E-02 2.00697E-27
2.18476E-02 1.73721E-27
2.24900E-02 1.49650E-27
2.31415E-02 1.28263E-27
2.38021E-02 1.09354E-27
2.44717E-02 9.27291E-28
2.51504E-02 7.81988E-28
2.58382E-02 6.55810E-28
2.65349E-02 5.46991E-28
2.72407E-02 4.53827E-28
2.79555E-02 3.74682E-28
2.86793E-02 3.07996E-28
2.94120E-02 2.52293E-28
3.01537E-02 2.06190E-28
3.09043E-02 1.68403E-28
3.16639E-02 1.37750E-28
3.24324E-02 1.13153E-28
3.32098E-02 9.36410E-29
3.39961E-02 7.83459E-29
3.47912E-02 6.65014E-29
3.55952E-02 5.74379E-29
3.64081E-02 5.05775E-29
3.72297E-02 4.54276E-29
3.80602E-02 4.15740E-29
3.88995E-02 3.86740E-29
3.97476E-02 3.64487E-29
4.06044E-02 3.46758E-29
4.14700E-02 3.31826E-29
4.23443E-02 3.18385E-29
4.32273E-02 3.05493E-29
4.41190E-02 2.92504E-29
4.50194E-02 2.79019E-29
4.59284E-02 2.64831E-29
4.68461E-02 2.49885E-29
4.87074E-02 2.18023E-29
5.06030E-02 1.84671E-29
5.25328E-02 1.51553E-29
5.44967E-02 1.20345E-29
5.64946E-02 9.23776E-30
5.85262E-02 6.84996E-30
6.05914E-02 4.90733E-30
6.26901E-02 3.40383E-30
6.48222E-02 2.30152E-30
6.69873E-02 1.54203E-30
6.91854E-02 1.05718E-30
7.14163E-02 7.77831E-31
7.36799E-02 6.40343E-31
7.59760E-02 5.90692E-31
7.83043E-02 5.86434E-31
8.06647E-02 5.96972E-31
8.30571E-02 6.02582E-31
8.54812E-02 5.92675E-31
8.79369E-02 5.63690E-31
9.04240E-02 5.16960E-31
9.29422E-02 4.56765E-31
9.54915E-02 3.88708E-31
9.80716E-02 3.18497E-31
1.00682E-01 2.51117E-31
1.03323E-01 1.90365E-31
1.05995E-01 1.38674E-31
1.08696E-01 9.71650E-32
1.11427E-01 6.58378E-32
1.14188E-01 4.38418E-32
1.16978E-01 2.97699E-32
1.19797E-01 2.19354E-32
1.22645E-01 1.86045E-32
1.25522E-01 1.81731E-32
1.28428E-01 1.92820E-32
1.31361E-01 2.08774E-32
1.34323E-01 2.22233E-32
1.37313E-01 2.28799E-32
1.40330E-01 2.26575E-32
1.43375E-01 2.15589E-32
1.46447E-01 1.97190E-32
1.49545E-01 1.73478E-32
1.52671E-01 1.46826E-32
1.55823E-01 1.19514E-32
1.59001E-01 9.34780E-33
1.62205E-01 7.01684E-33
1.65435E-01 5.05054E-33
1.68690E-01 3.49028E-33
1.71970E-01 2.33426E-33
1.75276E-01 1.54765E-33
1.78606E-01 1.07369E-33
1.81961E-01 8.44194E-34
1.85340E-01 7.88710E-34
1.88743E-01 8.41524E-34
1.92169E-01 9.46498E-34
1.95619E-01 1.05975E-33
1.99092E-01 1.15046E-33
2.02589E-01 1.20026E-33
2.06107E-01 1.20151E-33
2.09649E-01 1.15511E-33
2.13212E-01 1.06793E-33
2.16797E-01 9.50453E-34
2.20404E-01 8.14655E-34
2.24032E-01 6.72274E-34
2.27680E-01 5.33610E-34
2.31350E-01 4.06757E-34
2.35040E-01 2.97276E-34
2.38751E-01 2.08200E-34
2.42481E-01 1.40299E-34
2.46231E-01 9.25028E-35
2.50000E-01 6.24040E-35
2.53788E-01 4.67732E-35
2.57595E-01 4.20280E-35
2.61421E-01 4.46252E-35
2.65264E-01 5.13576E-35
2.69126E-01 5.95499E-35
2.73005E-01 6.71599E-35
2.76901E-01 7.27985E-35
2.80814E-01 7.56870E-35
2.84744E-01 7.55700E-35
2.88691E-01 7.26030E-35
2.92653E-01 6.72311E-35
2.96632E-01 6.00720E-35
3.00625E-01 5.18114E-35
3.04634E-01 4.31200E-35
3.08658E-01 3.45907E-35
3.12697E-01 2.66993E-35
3.16749E-01 1.97858E-35
3.20816E-01 1.40520E-35
3.24896E-01 9.57284E-36
3.28990E-01 6.31635E-36
3.33097E-01 4.16886E-36
3.37216E-01 2.96150E-36
3.41348E-01 2.49567E-36
3.45492E-01 2.56523E-36
3.49647E-01 2.97450E-36
3.53814E-01 3.55129E-36
3.57992E-01 4.15503E-36
3.62181E-01 4.68052E-36
3.66381E-01 5.05794E-36
3.70590E-01 5.25003E-36
3.74810E-01 5.24720E-36
3.79039E-01 5.06166E-36
3.83277E-01 4.72111E-36
3.87524E-01 4.26261E-36
3.91780E-01 3.72724E-36
3.96044E-01 3.15553E-36
4.00316E-01 2.58416E-36
4.04596E-01 2.04367E-36
4.08882E-01 1.55713E-36
4.13176E-01 1.13986E-36
4.17476E-01 7.99749E-37
4.21783E-01 5.38168E-37
4.26095E-01 3.51121E-37
4.30413E-01 2.30642E-37
4.34737E-01 1.66173E-37
4.39065E-01 1.45836E-37
4.43398E-01 1.57535E-37
4.47736E-01 1.89861E-37
4.52077E-01 2.32709E-37
4.56422E-01 2.77712E-37
4.60770E-01 3.18426E-37
4.65122E-01 3.50349E-37
4.69476E-01 3.70805E-37
4.73832E-01 3.78710E-37
4.78190E-01 3.74293E-37
4.82550E-01 3.58774E-37
4.86912E-01 3.34055E-37
4.91274E-01 3.02420E-37
4.95637E-01 2.66291E-37
5.00000E-01 2.28011E-37
5.04363E-01 1.89684E-37
5.08726E-01 1.53088E-37
5.13088E-01 1.19600E-37
5.17450E-01 1.00000E-45
5.21810E-01 1.00000E-45
5.26168E-01 1.00000E-45
5.30524E-01 1.00000E-45
5.34878E-01 1.00000E-45
5.39230E-01 1.00000E-45
5.43578E-01 1.00000E-45
5.47923E-01 1.00000E-45
5.52264E-01 1.00000E-45
5.56602E-01 1.00000E-45
5.60935E-01 1.00000E-45
5.65263E-01 1.00000E-45
5.69587E-01 1.00000E-45
5.73905E-01 1.00000E-45
5.78217E-01 1.00000E-45
5.82524E-01 1.00000E-45
5.86824E-01 1.00000E-45
5.91118E-01 1.00000E-45
5.95404E-01 1.00000E-45
5.99684E-01 1.00000E-45
6.03956E-01 1.00000E-45
6.08220E-01 1.00000E-45
6.12476E-01 1.00000E-45
6.16723E-01 1.00000E-45
6.20961E-01 1.00000E-45
6.25190E-01 1.00000E-45
6.29410E-01 1.00000E-45
6.33619E-01 1.00000E-45
6.37819E-01 1.00000E-45
6.42008E-01 1.00000E-45
6.46186E-01 1.00000E-45
6.50353E-01 1.00000E-45
6.54508E-01 1.00000E-45
6.58652E-01 1.00000E-45
6.62784E-01 1.00000E-45
6.66903E-01 1.00000E-45
6.71010E-01 1.00000E-45
6.75104E-01 1.00000E-45
6.79184E-01 1.00000E-45
6.83251E-01 1.00000E-45
6.87303E-01 1.00000E-45
6.91342E-01 1.00000E-45
6.95366E-01 1.00000E-45
6.99375E-01 1.00000E-45
7.03368E-01 1.00000E-45
7.07347E-01 1.00000E-45
7.11309E-01 1.00000E-45
7.15256E-01 1.00000E-45
7.19186E-01 1.00000E-45
7.23099E-01 1.00000E-45
7.26995E-01 1.00000E-45
7.30874E-01 1.00000E-45
7.34736E-01 1.00000E-45
7.38579E-01 1.00000E-45
7.42405E-01 1.00000E-45
7.46212E-01 1.00000E-45
7.50000E-01 1.00000E-45
7.53769E-01 1.00000E-45
7.57519E-01 1.00000E-45
7.61249E-01 1.00000E-45
7.64960E-01 1.00000E-45
7.68650E-01 1.00000E-45
7.72320E-01 1.00000E-45
7.75968E-01 1.00000E-45
7.79596E-01 1.00000E-45
7.83203E-01 1.00000E-45
7.86788E-01 1.00000E-45
7.90351E-01 1.00000E-45
7.93893E-01 1.00000E-45
7.97411E-01 1.00000E-45
8.00908E-01 1.00000E-45
8.04381E-01 1.00000E-45
8.07831E-01 1.00000E-45
8.11257E-01 1.00000E-45
8.14660E-01 1.00000E-45
8.18039E-01 1.00000E-45
8.21394E-01 1.00000E-45
8.24724E-01 1.00000E-45
8.28030E-01 1.00000E-45
8.31310E-01 1.00000E-45
8.34565E-01 1.00000E-45
8.37795E-01 1.00000E-45
8.40999E-01 1.00000E-45
8.44177E-01 1.00000E-45
8.47329E-01 1.00000E-45
8.50455E-01 1.00000E-45
8.53553E-01 1.00000E-45
8.56625E-01 1.00000E-45
8.59670E-01 1.00000E-45
8.62687E-01 1.00000E-45
8.65677E-01 1.00000E-45
8.68639E-01 1.00000E-45
8.71572E-01 1.00000E-45
8.74478E-01 1.00000E-45
8.77355E-01 1.00000E-45
8.80203E-01 1.00000E-45
8.83022E-01 1.00000E-45
8.85812E-01 1.00000E-45
8.88573E-01 1.00000E-45
8.91304E-01 1.00000E-45
8.94005E-01 1.00000E-45
8.96677E-01 1.00000E-45
8.99318E-01 1.00000E-45
9.01928E-01 1.00000E-45
9.04508E-01 1.00000E-45
9.07058E-01 1.00000E-45
9.09576E-01 1.00000E-45
9.12063E-01 1.00000E-45
9.14519E-01 1.00000E-45
9.16943E-01 1.00000E-45
9.19335E-01 1.00000E-45
9.21696E-01 1.00000E-45
9.24024E-01 1.00000E-45
9.26320E-01 1.00000E-45
9.28584E-01 1.00000E-45
9.30815E-01 1.00000E-45
9.33013E-01 1.00000E-45
9.35178E-01 1.00000E-45
9.37310E-01 1.00000E-45
9.39409E-01 1.00000E-45
9.41474E-01 1.00000E-45
9.43505E-01 1.00000E-45
9.45503E-01 1.00000E-45
9.47467E-01 1.00000E-45
9.49397E-01 1.00000E-45
9.51293E-01 1.00000E-45
9.53154E-01 1.00000E-45
9.54981E-01 1.00000E-45
9.56773E-01 1.00000E-45
9.58530E-01 1.00000E-45
9.60252E-01 1.00000E-45
9.61940E-01 1.00000E-45
9.63592E-01 1.00000E-45
9.65209E-01 1.00000E-45
9.66790E-01 1.00000E-45
9.68336E-01 1.00000E-45
9.69846E-01 1.00000E-45
9.71321E-01 1.00000E-45
9.72759E-01 1.00000E-45
9.74162E-01 1.00000E-45
9.75528E-01 1.00000E-45
9.76858E-01 1.00000E-45
9.78152E-01 1.00000E-45
9.79410E-01 1.00000E-45
9.80631E-01 1.00000E-45
9.81815E-01 1.00000E-45
9.82963E-01 1.00000E-45
9.84074E-01 1.00000E-45
9.85148E-01 1.00000E-45
9.86185E-01 1.00000E-45
9.87185E-01 1.00000E-45
9.88148E-01 1.00000E-45
9.89074E-01 1.00000E-45
9.89962E-01 1.00000E-45
9.90814E-01 1.00000E-45
9.91627E-01 1.00000E-45
9.92404E-01 1.00000E-45
9.93143E-01 1.00000E-45
9.93844E-01 1.00000E-45
9.94508E-01 1.00000E-45
9.95134E-01 1.00000E-45
9.95722E-01 1.00000E-45
9.96273E-01 1.00000E-45
9.96786E-01 1.00000E-45
9.97261E-01 1.00000E-45
9.97698E-01 1.00000E-45
9.98097E-01 1.00000E-45
9.98459E-01 1.00000E-45
9.98782E-01 1.00000E-45
9.99067E-01 1.00000E-45
9.99315E-01 1.00000E-45
9.99524E-01 1.00000E-45
9.99695E-01 1.00000E-45
9.99829E-01 1.00000E-45
9.99924E-01 1.00000E-45
9.99981E-01 1.00000E-45
1.00000E+00 1.00000E-45
