 #
 # Subroutine ELSEPA. Elastic scattering of electrons and positrons
 #                    by neutral atoms and positive ions
 #
 # Projectile: electron
 # Kinetic energy = 1.00000E+07 eV = 3.67493E+05 a.u.
 #
 # WARNING: High-energy factorization with free-atom DF screening.
 #          Absorption, polarization and exchange corrections are
 #          switched off.
 #          Phase shifts are calculated for the bare nucleus.
 #          Scattering amplitudes are not evaluated.
 #
 # Element: Pb,  Z =  82,  atomic weight = 2.07200E+02 g/mol
 #
 # Nuclear model: Fermi distribution
 #                Average radius = 6.33160E-13 cm
 #                Skin thickness = 5.46000E-14 cm
 #
 # Number of electrons = 82
 #
 # Total elastic cross section = 8.63176E-18 cm**2 = 3.08246E-01 a0**2
 # 1st transport cross section = 1.09954E-22 cm**2 = 3.92652E-06 a0**2
 # 2nd transport cross section = 3.00430E-22 cm**2 = 1.07285E-05 a0**2
 #
 #
 # Differential cross section:                       MU=(1-COS(THETA))/2
 #
 #  THETA        MU          DCS          DCS        Sherman      error
 #  (deg)                 (cm**2/sr)   (a0**2/sr)    function
 #----------------------------------------------------------------------
0.00000E+00 6.83374E-12
7.61557E-13 6.83354E-12
1.18994E-12 6.83344E-12
1.71346E-12 6.83330E-12
2.33225E-12 6.83315E-12
3.04617E-12 6.83297E-12
3.85530E-12 6.83277E-12
4.75964E-12 6.83254E-12
5.75917E-12 6.83230E-12
6.85391E-12 6.83202E-12
8.04379E-12 6.83173E-12
9.32893E-12 6.83141E-12
1.07092E-11 6.83106E-12
1.21847E-11 6.83070E-12
1.37554E-11 6.83031E-12
1.54213E-11 6.82989E-12
1.71823E-11 6.82946E-12
1.90386E-11 6.82900E-12
2.09900E-11 6.82851E-12
2.30367E-11 6.82800E-12
2.51785E-11 6.82747E-12
2.74156E-11 6.82692E-12
2.97478E-11 6.82634E-12
3.21752E-11 6.82574E-12
3.46979E-11 6.82511E-12
3.73157E-11 6.82446E-12
4.00286E-11 6.82379E-12
4.28368E-11 6.82309E-12
4.57402E-11 6.82237E-12
4.87388E-11 6.82163E-12
5.18325E-11 6.82087E-12
5.50215E-11 6.82008E-12
5.83057E-11 6.81926E-12
6.16850E-11 6.81843E-12
6.51595E-11 6.81757E-12
6.87293E-11 6.81669E-12
7.23943E-11 6.81578E-12
7.61544E-11 6.81485E-12
1.18991E-10 6.80428E-12
1.71347E-10 6.79141E-12
2.33223E-10 6.77626E-12
3.04617E-10 6.75885E-12
3.85531E-10 6.73922E-12
4.75965E-10 6.71740E-12
5.75917E-10 6.69344E-12
6.85389E-10 6.66737E-12
8.04380E-10 6.63925E-12
9.32891E-10 6.60911E-12
1.07092E-09 6.57702E-12
1.21847E-09 6.54303E-12
1.37554E-09 6.50720E-12
1.54213E-09 6.46958E-12
1.71823E-09 6.43024E-12
1.90386E-09 6.38924E-12
2.09900E-09 6.34663E-12
2.30367E-09 6.30223E-12
2.51785E-09 6.25651E-12
2.74156E-09 6.20954E-12
2.97478E-09 6.16140E-12
3.21752E-09 6.11218E-12
3.46978E-09 6.06119E-12
3.73156E-09 6.00914E-12
4.00286E-09 5.95625E-12
4.28368E-09 5.90259E-12
4.57402E-09 5.84823E-12
4.87388E-09 5.79255E-12
5.18326E-09 5.73594E-12
5.50215E-09 5.67886E-12
5.83057E-09 5.62139E-12
6.16850E-09 5.56359E-12
6.51596E-09 5.50502E-12
6.87293E-09 5.44552E-12
7.23942E-09 5.38590E-12
7.61544E-09 5.32622E-12
1.18991E-08 4.72321E-12
1.71347E-08 4.14038E-12
2.33223E-08 3.60571E-12
3.04617E-08 3.13162E-12
3.85531E-08 2.72002E-12
4.75965E-08 2.36697E-12
5.75917E-08 2.06590E-12
6.85389E-08 1.80942E-12
8.04380E-08 1.59067E-12
9.32891E-08 1.40369E-12
1.07092E-07 1.24324E-12
1.21847E-07 1.10498E-12
1.37554E-07 9.85289E-13
1.54213E-07 8.81229E-13
1.71823E-07 7.90377E-13
1.90386E-07 7.10746E-13
2.09900E-07 6.40119E-13
2.30367E-07 5.73620E-13
2.51785E-07 5.17391E-13
2.74156E-07 4.69535E-13
2.97478E-07 4.28548E-13
3.21752E-07 3.93238E-13
3.46978E-07 3.57327E-13
3.73156E-07 3.25537E-13
4.00286E-07 2.97941E-13
4.28368E-07 2.73869E-13
4.57402E-07 2.52775E-13
4.87388E-07 2.32465E-13
5.18325E-07 2.13680E-13
5.50215E-07 1.97107E-13
5.83057E-07 1.82428E-13
6.16850E-07 1.69381E-13
6.51596E-07 1.57230E-13
6.87293E-07 1.45698E-13
7.23942E-07 1.35385E-13
7.61543E-07 1.26135E-13
1.18991E-06 6.63344E-14
1.71347E-06 3.84527E-14
2.33223E-06 2.38265E-14
3.04617E-06 1.54763E-14
3.85531E-06 1.04327E-14
4.75964E-06 7.26355E-15
5.75916E-06 5.20494E-15
6.85388E-06 3.82746E-15
8.04378E-06 2.88369E-15
9.32888E-06 2.21724E-15
1.07092E-05 1.73401E-15
1.21846E-05 1.37638E-15
1.37553E-05 1.10715E-15
1.54212E-05 9.01150E-16
1.71822E-05 7.41088E-16
1.90385E-05 6.14666E-16
2.09899E-05 5.14701E-16
2.30365E-05 4.33923E-16
2.51783E-05 3.68918E-16
2.74153E-05 3.15063E-16
2.97475E-05 2.71019E-16
3.21749E-05 2.34165E-16
3.46974E-05 2.03572E-16
3.73152E-05 1.77733E-16
4.00281E-05 1.55974E-16
4.28362E-05 1.37398E-16
4.57395E-05 1.21543E-16
4.87380E-05 1.07880E-16
5.18317E-05 9.60887E-17
5.50205E-05 8.58532E-17
5.83045E-05 7.69417E-17
6.16838E-05 6.91593E-17
6.51582E-05 6.23319E-17
6.87277E-05 5.63342E-17
7.23925E-05 5.10339E-17
7.61524E-05 4.63469E-17
9.21439E-05 3.22074E-17
1.09658E-04 2.30715E-17
1.28695E-04 1.69616E-17
1.49255E-04 1.27498E-17
1.71338E-04 9.77051E-18
1.94942E-04 7.61427E-18
2.20070E-04 6.02220E-18
2.46720E-04 4.82573E-18
2.74892E-04 3.91237E-18
3.04586E-04 3.20526E-18
3.35803E-04 2.65095E-18
3.68542E-04 2.21142E-18
4.02802E-04 1.85930E-18
4.38585E-04 1.57454E-18
4.75889E-04 1.34225E-18
5.14715E-04 1.15128E-18
5.55063E-04 9.93095E-19
5.96931E-04 8.61189E-19
6.40321E-04 7.50488E-19
6.85233E-04 6.57032E-19
7.31665E-04 5.77701E-19
7.79618E-04 5.10004E-19
8.29092E-04 4.51957E-19
8.80086E-04 4.01953E-19
9.32601E-04 3.58691E-19
9.86636E-04 3.21109E-19
1.04219E-03 2.88334E-19
1.09927E-03 2.59647E-19
1.15786E-03 2.34450E-19
1.21797E-03 2.12246E-19
1.27961E-03 1.92618E-19
1.34276E-03 1.75214E-19
1.40743E-03 1.59739E-19
1.47362E-03 1.45941E-19
1.54133E-03 1.33606E-19
1.61056E-03 1.22552E-19
1.68131E-03 1.12623E-19
1.75357E-03 1.03683E-19
1.82735E-03 9.56163E-20
1.90265E-03 8.83224E-20
1.97947E-03 8.17139E-20
2.05780E-03 7.57148E-20
2.13765E-03 7.02583E-20
2.21902E-03 6.52873E-20
2.30190E-03 6.07505E-20
2.38630E-03 5.66028E-20
2.47222E-03 5.28047E-20
2.55965E-03 4.93216E-20
2.64859E-03 4.61227E-20
2.73905E-03 4.31803E-20
2.83103E-03 4.04700E-20
2.92452E-03 3.79703E-20
3.01952E-03 3.56618E-20
3.11604E-03 3.35272E-20
3.21407E-03 3.15508E-20
3.31362E-03 2.97188E-20
3.41468E-03 2.80187E-20
3.51725E-03 2.64393E-20
3.62133E-03 2.49704E-20
3.72692E-03 2.36027E-20
3.83403E-03 2.23281E-20
3.94265E-03 2.11390E-20
4.05278E-03 2.00285E-20
4.16442E-03 1.89906E-20
4.27757E-03 1.80195E-20
4.39223E-03 1.71103E-20
4.50840E-03 1.62581E-20
4.62608E-03 1.54587E-20
4.74527E-03 1.47083E-20
4.86597E-03 1.40032E-20
4.98817E-03 1.33403E-20
5.11188E-03 1.27165E-20
5.23711E-03 1.21290E-20
5.36383E-03 1.15754E-20
5.49207E-03 1.10533E-20
5.62181E-03 1.05606E-20
5.75306E-03 1.00953E-20
5.88581E-03 9.65563E-21
6.02007E-03 9.23987E-21
6.15583E-03 8.84649E-21
6.29310E-03 8.47404E-21
6.43187E-03 8.12118E-21
6.57214E-03 7.78672E-21
6.71392E-03 7.46949E-21
6.85720E-03 7.16843E-21
7.00198E-03 6.88256E-21
7.14827E-03 6.61097E-21
7.29605E-03 6.35280E-21
7.44534E-03 6.10728E-21
7.59612E-03 5.87364E-21
7.97965E-03 5.33719E-21
8.37255E-03 4.86135E-21
8.77480E-03 4.43806E-21
9.18641E-03 4.06045E-21
9.60736E-03 3.72272E-21
1.00376E-02 3.41988E-21
1.04773E-02 3.14767E-21
1.09262E-02 2.90244E-21
1.13844E-02 2.68101E-21
1.18520E-02 2.48065E-21
1.23288E-02 2.29899E-21
1.28150E-02 2.13394E-21
1.33104E-02 1.98372E-21
1.38150E-02 1.84673E-21
1.43290E-02 1.72160E-21
1.48521E-02 1.60710E-21
1.53845E-02 1.50216E-21
1.59262E-02 1.40583E-21
1.64770E-02 1.31727E-21
1.70371E-02 1.23573E-21
1.76063E-02 1.16054E-21
1.81848E-02 1.09113E-21
1.87724E-02 1.02695E-21
1.93692E-02 9.67538E-22
1.99751E-02 9.12470E-22
2.05901E-02 8.61367E-22
2.12143E-02 8.13886E-22
2.18476E-02 7.69721E-22
2.24900E-02 7.28594E-22
2.31415E-02 6.90255E-22
2.38021E-02 6.54477E-22
2.44717E-02 6.21056E-22
2.51504E-02 5.89804E-22
2.58382E-02 5.60554E-22
2.65349E-02 5.33151E-22
2.72407E-02 5.07455E-22
2.79555E-02 4.83338E-22
2.86793E-02 4.60684E-22
2.94120E-02 4.39385E-22
3.01537E-02 4.19345E-22
3.09043E-02 4.00473E-22
3.16639E-02 3.82687E-22
3.24324E-02 3.65913E-22
3.32098E-02 3.50081E-22
3.39961E-02 3.35126E-22
3.47912E-02 3.20991E-22
3.55952E-02 3.07621E-22
3.64081E-02 2.94966E-22
3.72297E-02 2.82980E-22
3.80602E-02 2.71620E-22
3.88995E-02 2.60846E-22
3.97476E-02 2.50622E-22
4.06044E-02 2.40914E-22
4.14700E-02 2.31690E-22
4.23443E-02 2.22922E-22
4.32273E-02 2.14581E-22
4.41190E-02 2.06643E-22
4.50194E-02 1.99084E-22
4.59284E-02 1.91882E-22
4.68461E-02 1.85016E-22
4.87074E-02 1.72219E-22
5.06030E-02 1.60556E-22
5.25328E-02 1.49904E-22
5.44967E-02 1.40158E-22
5.64946E-02 1.31226E-22
5.85262E-02 1.23024E-22
6.05914E-02 1.15482E-22
6.26901E-02 1.08534E-22
6.48222E-02 1.02124E-22
6.69873E-02 9.62022E-23
6.91854E-02 9.07225E-23
7.14163E-02 8.56455E-23
7.36799E-02 8.09348E-23
7.59760E-02 7.65583E-23
7.83043E-02 7.24875E-23
8.06647E-02 6.86963E-23
8.30571E-02 6.51609E-23
8.54812E-02 6.18608E-23
8.79369E-02 5.87768E-23
9.04240E-02 5.58911E-23
9.29422E-02 5.31888E-23
9.54915E-02 5.06555E-23
9.80716E-02 4.82778E-23
1.00682E-01 4.60447E-23
1.03323E-01 4.39449E-23
1.05995E-01 4.19688E-23
1.08696E-01 4.01077E-23
1.11427E-01 3.83531E-23
1.14188E-01 3.66976E-23
1.16978E-01 3.51345E-23
1.19797E-01 3.36572E-23
1.22645E-01 3.22601E-23
1.25522E-01 3.09379E-23
1.28428E-01 2.96854E-23
1.31361E-01 2.84983E-23
1.34323E-01 2.73724E-23
1.37313E-01 2.63038E-23
1.40330E-01 2.52888E-23
1.43375E-01 2.43241E-23
1.46447E-01 2.34068E-23
1.49545E-01 2.25339E-23
1.52671E-01 2.17028E-23
1.55823E-01 2.09109E-23
1.59001E-01 2.01561E-23
1.62205E-01 1.94362E-23
1.65435E-01 1.87492E-23
1.68690E-01 1.80932E-23
1.71970E-01 1.74665E-23
1.75276E-01 1.68675E-23
1.78606E-01 1.62948E-23
1.81961E-01 1.57467E-23
1.85340E-01 1.52222E-23
1.88743E-01 1.47198E-23
1.92169E-01 1.42385E-23
1.95619E-01 1.37772E-23
1.99092E-01 1.33348E-23
2.02589E-01 1.29104E-23
2.06107E-01 1.25030E-23
2.09649E-01 1.21119E-23
2.13212E-01 1.17362E-23
2.16797E-01 1.13752E-23
2.20404E-01 1.10282E-23
2.24032E-01 1.06945E-23
2.27680E-01 1.03735E-23
2.31350E-01 1.00645E-23
2.35040E-01 9.76714E-24
2.38751E-01 9.48074E-24
2.42481E-01 9.20488E-24
2.46231E-01 8.93906E-24
2.50000E-01 8.68254E-24
2.53788E-01 8.43515E-24
2.57595E-01 8.19650E-24
2.61421E-01 7.96621E-24
2.65264E-01 7.74392E-24
2.69126E-01 7.52929E-24
2.73005E-01 7.32199E-24
2.76901E-01 7.12171E-24
2.80814E-01 6.92816E-24
2.84744E-01 6.74107E-24
2.88691E-01 6.56016E-24
2.92653E-01 6.38518E-24
2.96632E-01 6.21590E-24
3.00625E-01 6.05208E-24
3.04634E-01 5.89352E-24
3.08658E-01 5.74000E-24
3.12697E-01 5.59132E-24
3.16749E-01 5.44730E-24
3.20816E-01 5.30775E-24
3.24896E-01 5.17251E-24
3.28990E-01 5.04142E-24
3.33097E-01 4.91431E-24
3.37216E-01 4.79105E-24
3.41348E-01 4.67147E-24
3.45492E-01 4.55546E-24
3.49647E-01 4.44288E-24
3.53814E-01 4.33361E-24
3.57992E-01 4.22752E-24
3.62181E-01 4.12450E-24
3.66381E-01 4.02445E-24
3.70590E-01 3.92726E-24
3.74810E-01 3.83282E-24
3.79039E-01 3.74106E-24
3.83277E-01 3.65186E-24
3.87524E-01 3.56515E-24
3.91780E-01 3.48083E-24
3.96044E-01 3.39884E-24
4.00316E-01 3.31908E-24
4.04596E-01 3.24149E-24
4.08882E-01 3.16600E-24
4.13176E-01 3.09253E-24
4.17476E-01 3.02101E-24
4.21783E-01 2.95140E-24
4.26095E-01 2.88362E-24
4.30413E-01 2.81761E-24
4.34737E-01 2.75332E-24
4.39065E-01 2.69070E-24
4.43398E-01 2.62969E-24
4.47736E-01 2.57024E-24
4.52077E-01 2.51231E-24
4.56422E-01 2.45584E-24
4.60770E-01 2.40080E-24
4.65122E-01 2.34713E-24
4.69476E-01 2.29480E-24
4.73832E-01 2.24376E-24
4.78190E-01 2.19398E-24
4.82550E-01 2.14543E-24
4.86912E-01 2.09805E-24
4.91274E-01 2.05183E-24
4.95637E-01 2.00672E-24
5.00000E-01 1.96270E-24
5.04363E-01 1.91973E-24
5.08726E-01 1.87778E-24
5.13088E-01 1.83682E-24
5.17450E-01 1.79682E-24
5.21810E-01 1.75777E-24
5.26168E-01 1.71962E-24
5.30524E-01 1.68236E-24
5.34878E-01 1.64596E-24
5.39230E-01 1.61040E-24
5.43578E-01 1.57565E-24
5.47923E-01 1.54169E-24
5.52264E-01 1.50851E-24
5.56602E-01 1.47607E-24
5.60935E-01 1.44436E-24
5.65263E-01 1.41336E-24
5.69587E-01 1.38305E-24
5.73905E-01 1.35342E-24
5.78217E-01 1.32444E-24
5.82524E-01 1.29610E-24
5.86824E-01 1.26838E-24
5.91118E-01 1.24126E-24
5.95404E-01 1.21474E-24
5.99684E-01 1.18879E-24
6.03956E-01 1.16340E-24
6.08220E-01 1.13855E-24
6.12476E-01 1.11424E-24
6.16723E-01 1.09044E-24
6.20961E-01 1.06715E-24
6.25190E-01 1.04435E-24
6.29410E-01 1.02204E-24
6.33619E-01 1.00019E-24
6.37819E-01 9.78802E-25
6.42008E-01 9.57859E-25
6.46186E-01 9.37352E-25
6.50353E-01 9.17269E-25
6.54508E-01 8.97602E-25
6.58652E-01 8.78339E-25
6.62784E-01 8.59471E-25
6.66903E-01 8.40990E-25
6.71010E-01 8.22886E-25
6.75104E-01 8.05149E-25
6.79184E-01 7.87772E-25
6.83251E-01 7.70747E-25
6.87303E-01 7.54064E-25
6.91342E-01 7.37717E-25
6.95366E-01 7.21697E-25
6.99375E-01 7.05998E-25
7.03368E-01 6.90611E-25
7.07347E-01 6.75531E-25
7.11309E-01 6.60749E-25
7.15256E-01 6.46260E-25
7.19186E-01 6.32056E-25
7.23099E-01 6.18133E-25
7.26995E-01 6.04482E-25
7.30874E-01 5.91100E-25
7.34736E-01 5.77979E-25
7.38579E-01 5.65114E-25
7.42405E-01 5.52499E-25
7.46212E-01 5.40130E-25
7.50000E-01 5.28001E-25
7.53769E-01 5.16106E-25
7.57519E-01 5.04442E-25
7.61249E-01 4.93003E-25
7.64960E-01 4.81784E-25
7.68650E-01 4.70781E-25
7.72320E-01 4.59989E-25
7.75968E-01 4.49405E-25
7.79596E-01 4.39023E-25
7.83203E-01 4.28841E-25
7.86788E-01 4.18852E-25
7.90351E-01 4.09055E-25
7.93893E-01 3.99445E-25
7.97411E-01 3.90018E-25
8.00908E-01 3.80771E-25
8.04381E-01 3.71700E-25
8.07831E-01 3.62801E-25
8.11257E-01 3.54072E-25
8.14660E-01 3.45509E-25
8.18039E-01 3.37109E-25
8.21394E-01 3.28869E-25
8.24724E-01 3.20785E-25
8.28030E-01 3.12855E-25
8.31310E-01 3.05077E-25
8.34565E-01 2.97446E-25
8.37795E-01 2.89961E-25
8.40999E-01 2.82618E-25
8.44177E-01 2.75415E-25
8.47329E-01 2.68350E-25
8.50455E-01 2.61420E-25
8.53553E-01 2.54623E-25
8.56625E-01 2.47955E-25
8.59670E-01 2.41416E-25
8.62687E-01 2.35003E-25
8.65677E-01 2.28713E-25
8.68639E-01 2.22544E-25
8.71572E-01 2.16495E-25
8.74478E-01 2.10563E-25
8.77355E-01 2.04746E-25
8.80203E-01 1.99042E-25
8.83022E-01 1.93450E-25
8.85812E-01 1.87967E-25
8.88573E-01 1.82593E-25
8.91304E-01 1.77324E-25
8.94005E-01 1.72159E-25
8.96677E-01 1.67097E-25
8.99318E-01 1.62136E-25
9.01928E-01 1.57275E-25
9.04508E-01 1.52511E-25
9.07058E-01 1.47844E-25
9.09576E-01 1.43271E-25
9.12063E-01 1.38792E-25
9.14519E-01 1.34405E-25
9.16943E-01 1.30109E-25
9.19335E-01 1.25902E-25
9.21696E-01 1.21782E-25
9.24024E-01 1.17750E-25
9.26320E-01 1.13803E-25
9.28584E-01 1.09940E-25
9.30815E-01 1.06161E-25
9.33013E-01 1.02463E-25
9.35178E-01 9.88459E-26
9.37310E-01 9.53087E-26
9.39409E-01 9.18501E-26
9.41474E-01 8.84692E-26
9.43505E-01 8.51648E-26
9.45503E-01 8.19362E-26
9.47467E-01 7.87821E-26
9.49397E-01 7.57018E-26
9.51293E-01 7.26944E-26
9.53154E-01 6.97589E-26
9.54981E-01 6.68945E-26
9.56773E-01 6.41003E-26
9.58530E-01 6.13756E-26
9.60252E-01 5.87195E-26
9.61940E-01 5.61313E-26
9.63592E-01 5.36102E-26
9.65209E-01 5.11556E-26
9.66790E-01 4.87667E-26
9.68336E-01 4.64428E-26
9.69846E-01 4.41832E-26
9.71321E-01 4.19874E-26
9.72759E-01 3.98547E-26
9.74162E-01 3.77845E-26
9.75528E-01 3.57761E-26
9.76858E-01 3.38292E-26
9.78152E-01 3.19430E-26
9.79410E-01 3.01171E-26
9.80631E-01 2.83510E-26
9.81815E-01 2.66441E-26
9.82963E-01 2.49960E-26
9.84074E-01 2.34063E-26
9.85148E-01 2.18744E-26
9.86185E-01 2.04001E-26
9.87185E-01 1.89827E-26
9.88148E-01 1.76221E-26
9.89074E-01 1.63177E-26
9.89962E-01 1.50693E-26
9.90814E-01 1.38765E-26
9.91627E-01 1.27390E-26
9.92404E-01 1.16564E-26
9.93143E-01 1.06284E-26
9.93844E-01 9.65488E-27
9.94508E-01 8.73543E-27
9.95134E-01 7.86986E-27
9.95722E-01 7.05791E-27
9.96273E-01 6.29936E-27
9.96786E-01 5.59402E-27
9.97261E-01 4.94169E-27
9.97698E-01 4.34220E-27
9.98097E-01 3.79537E-27
9.98459E-01 3.30107E-27
9.98782E-01 2.85916E-27
9.99067E-01 2.46951E-27
9.99315E-01 2.13204E-27
9.99524E-01 1.84663E-27
9.99695E-01 1.61322E-27
9.99829E-01 1.43175E-27
9.99924E-01 1.30216E-27
9.99981E-01 1.22442E-27
1.00000E+00 1.19851E-27
