 #
 # Subroutine ELSEPA. Elastic scattering of electrons and positrons
 #                    by neutral atoms and positive ions
 #
 # Projectile: electron
 # Kinetic energy = 5.00000E+06 eV = 1.83747E+05 a.u.
 #
 # WARNING: High-energy factorization with free-atom DF screening.
 #          Absorption, polarization and exchange corrections are
 #          switched off.
 #          Phase shifts are calculated for the bare nucleus.
 #          Scattering amplitudes are not evaluated.
 #
 # Element: Pb,  Z =  82,  atomic weight = 2.07200E+02 g/mol
 #
 # Nuclear model: Fermi distribution
 #                Average radius = 6.33160E-13 cm
 #                Skin thickness = 5.46000E-14 cm
 #
 # Number of electrons = 82
 #
 # Total elastic cross section = 8.70590E-18 cm**2 = 3.10893E-01 a0**2
 # 1st transport cross section = 3.75736E-22 cm**2 = 1.34178E-05 a0**2
 # 2nd transport cross section = 1.00498E-21 cm**2 = 3.58885E-05 a0**2
 #
 #
 # Differential cross section:                       MU=(1-COS(THETA))/2
 #
 #  THETA        MU          DCS          DCS        Sherman      error
 #  (deg)                 (cm**2/sr)   (a0**2/sr)    function
 #----------------------------------------------------------------------
0.00000E+00 1.87859E-12
7.61557E-13 1.87857E-12
1.18994E-12 1.87856E-12
1.71346E-12 1.87855E-12
2.33225E-12 1.87854E-12
3.04617E-12 1.87853E-12
3.85530E-12 1.87851E-12
4.75964E-12 1.87850E-12
5.75917E-12 1.87848E-12
6.85391E-12 1.87846E-12
8.04379E-12 1.87844E-12
9.32893E-12 1.87841E-12
1.07092E-11 1.87839E-12
1.21847E-11 1.87836E-12
1.37554E-11 1.87833E-12
1.54213E-11 1.87830E-12
1.71823E-11 1.87827E-12
1.90386E-11 1.87823E-12
2.09900E-11 1.87819E-12
2.30367E-11 1.87816E-12
2.51785E-11 1.87812E-12
2.74156E-11 1.87807E-12
2.97478E-11 1.87803E-12
3.21752E-11 1.87799E-12
3.46979E-11 1.87794E-12
3.73157E-11 1.87789E-12
4.00286E-11 1.87784E-12
4.28368E-11 1.87779E-12
4.57402E-11 1.87773E-12
4.87388E-11 1.87768E-12
5.18325E-11 1.87762E-12
5.50215E-11 1.87756E-12
5.83057E-11 1.87750E-12
6.16850E-11 1.87744E-12
6.51595E-11 1.87737E-12
6.87293E-11 1.87731E-12
7.23943E-11 1.87724E-12
7.61544E-11 1.87717E-12
1.18991E-10 1.87637E-12
1.71347E-10 1.87540E-12
2.33223E-10 1.87425E-12
3.04617E-10 1.87293E-12
3.85531E-10 1.87143E-12
4.75965E-10 1.86976E-12
5.75917E-10 1.86791E-12
6.85389E-10 1.86590E-12
8.04380E-10 1.86371E-12
9.32891E-10 1.86135E-12
1.07092E-09 1.85883E-12
1.21847E-09 1.85614E-12
1.37554E-09 1.85328E-12
1.54213E-09 1.85026E-12
1.71823E-09 1.84707E-12
1.90386E-09 1.84372E-12
2.09900E-09 1.84022E-12
2.30367E-09 1.83655E-12
2.51785E-09 1.83273E-12
2.74156E-09 1.82875E-12
2.97478E-09 1.82462E-12
3.21752E-09 1.82035E-12
3.46978E-09 1.81592E-12
3.73156E-09 1.81134E-12
4.00286E-09 1.80662E-12
4.28368E-09 1.80176E-12
4.57402E-09 1.79676E-12
4.87388E-09 1.79162E-12
5.18326E-09 1.78635E-12
5.50215E-09 1.78095E-12
5.83057E-09 1.77541E-12
6.16850E-09 1.76974E-12
6.51596E-09 1.76396E-12
6.87293E-09 1.75804E-12
7.23942E-09 1.75201E-12
7.61544E-09 1.74586E-12
1.18991E-08 1.67848E-12
1.71347E-08 1.60233E-12
2.33223E-08 1.52016E-12
3.04617E-08 1.43453E-12
3.85531E-08 1.34772E-12
4.75965E-08 1.26161E-12
5.75917E-08 1.17769E-12
6.85389E-08 1.09704E-12
8.04380E-08 1.02043E-12
9.32891E-08 9.48296E-13
1.07092E-07 8.80859E-13
1.21847E-07 8.18157E-13
1.37554E-07 7.60096E-13
1.54213E-07 7.06491E-13
1.71823E-07 6.57104E-13
1.90386E-07 6.11660E-13
2.09900E-07 5.69874E-13
2.30367E-07 5.31459E-13
2.51785E-07 4.96137E-13
2.74156E-07 4.63643E-13
2.97478E-07 4.33728E-13
3.21752E-07 4.06163E-13
3.46978E-07 3.80737E-13
3.73156E-07 3.57259E-13
4.00286E-07 3.35552E-13
4.28368E-07 3.15460E-13
4.57402E-07 2.96840E-13
4.87388E-07 2.79563E-13
5.18325E-07 2.63512E-13
5.50215E-07 2.48584E-13
5.83057E-07 2.34684E-13
6.16850E-07 2.21727E-13
6.51596E-07 2.09637E-13
6.87293E-07 1.98343E-13
7.23942E-07 1.87784E-13
7.61543E-07 1.77902E-13
1.18991E-06 1.06956E-13
1.71347E-06 6.76106E-14
2.33223E-06 4.46691E-14
3.04617E-06 3.07137E-14
3.85531E-06 2.18730E-14
4.75964E-06 1.60476E-14
5.75916E-06 1.20655E-14
6.85388E-06 9.25388E-15
8.04378E-06 7.21363E-15
9.32888E-06 5.69985E-15
1.07092E-05 4.55653E-15
1.21846E-05 3.68055E-15
1.37553E-05 3.00142E-15
1.54212E-05 2.46954E-15
1.71822E-05 2.04917E-15
1.90385E-05 1.71408E-15
2.09899E-05 1.44477E-15
2.30365E-05 1.22660E-15
2.51783E-05 1.04846E-15
2.74153E-05 9.01902E-16
2.97475E-05 7.80421E-16
3.21749E-05 6.79011E-16
3.46974E-05 5.93782E-16
3.73152E-05 5.21693E-16
4.00281E-05 4.60352E-16
4.28362E-05 4.07862E-16
4.57395E-05 3.62714E-16
4.87380E-05 3.23690E-16
5.18317E-05 2.89809E-16
5.50205E-05 2.60270E-16
5.83045E-05 2.34416E-16
6.16838E-05 2.11704E-16
6.51582E-05 1.91685E-16
6.87277E-05 1.73983E-16
7.23925E-05 1.58283E-16
7.61524E-05 1.44313E-16
9.21439E-05 1.01767E-16
1.09658E-04 7.38307E-17
1.28695E-04 5.48712E-17
1.49255E-04 4.16331E-17
1.71338E-04 3.21595E-17
1.94942E-04 2.52334E-17
2.20070E-04 2.00743E-17
2.46720E-04 1.61679E-17
2.74892E-04 1.31664E-17
3.04586E-04 1.08301E-17
3.35803E-04 8.98992E-18
3.68542E-04 7.52486E-18
4.02802E-04 6.34691E-18
4.38585E-04 5.39118E-18
4.75889E-04 4.60921E-18
5.14715E-04 3.96440E-18
5.55063E-04 3.42884E-18
5.96931E-04 2.98101E-18
6.40321E-04 2.60417E-18
6.85233E-04 2.28521E-18
7.31665E-04 2.01375E-18
7.79618E-04 1.78152E-18
8.29092E-04 1.58190E-18
8.80086E-04 1.40952E-18
9.32601E-04 1.26004E-18
9.86636E-04 1.12989E-18
1.04219E-03 1.01614E-18
1.09927E-03 9.16376E-19
1.15786E-03 8.28572E-19
1.21797E-03 7.51049E-19
1.27961E-03 6.82394E-19
1.34276E-03 6.21417E-19
1.40743E-03 5.67109E-19
1.47362E-03 5.18614E-19
1.54133E-03 4.75201E-19
1.61056E-03 4.36243E-19
1.68131E-03 4.01204E-19
1.75357E-03 3.69619E-19
1.82735E-03 3.41087E-19
1.90265E-03 3.15263E-19
1.97947E-03 2.91842E-19
2.05780E-03 2.70562E-19
2.13765E-03 2.51192E-19
2.21902E-03 2.33529E-19
2.30190E-03 2.17397E-19
2.38630E-03 2.02639E-19
2.47222E-03 1.89117E-19
2.55965E-03 1.76708E-19
2.64859E-03 1.65304E-19
2.73905E-03 1.54810E-19
2.83103E-03 1.45139E-19
2.92452E-03 1.36215E-19
3.01952E-03 1.27970E-19
3.11604E-03 1.20342E-19
3.21407E-03 1.13278E-19
3.31362E-03 1.06727E-19
3.41468E-03 1.00645E-19
3.51725E-03 9.49937E-20
3.62133E-03 8.97355E-20
3.72692E-03 8.48385E-20
3.83403E-03 8.02732E-20
3.94265E-03 7.60130E-20
4.05278E-03 7.20336E-20
4.16442E-03 6.83131E-20
4.27757E-03 6.48314E-20
4.39223E-03 6.15705E-20
4.50840E-03 5.85136E-20
4.62608E-03 5.56456E-20
4.74527E-03 5.29526E-20
4.86597E-03 5.04219E-20
4.98817E-03 4.80418E-20
5.11188E-03 4.58018E-20
5.23711E-03 4.36920E-20
5.36383E-03 4.17034E-20
5.49207E-03 3.98277E-20
5.62181E-03 3.80572E-20
5.75306E-03 3.63850E-20
5.88581E-03 3.48046E-20
6.02007E-03 3.33099E-20
6.15583E-03 3.18954E-20
6.29310E-03 3.05560E-20
6.43187E-03 2.92869E-20
6.57214E-03 2.80837E-20
6.71392E-03 2.69424E-20
6.85720E-03 2.58591E-20
7.00198E-03 2.48303E-20
7.14827E-03 2.38528E-20
7.29605E-03 2.29235E-20
7.44534E-03 2.20395E-20
7.59612E-03 2.11983E-20
7.97965E-03 1.92664E-20
8.37255E-03 1.75522E-20
8.77480E-03 1.60269E-20
9.18641E-03 1.46659E-20
9.60736E-03 1.34483E-20
1.00376E-02 1.23563E-20
1.04773E-02 1.13745E-20
1.09262E-02 1.04897E-20
1.13844E-02 9.69075E-21
1.18520E-02 8.96765E-21
1.23288E-02 8.31189E-21
1.28150E-02 7.71605E-21
1.33104E-02 7.17362E-21
1.38150E-02 6.67893E-21
1.43290E-02 6.22698E-21
1.48521E-02 5.81338E-21
1.53845E-02 5.43427E-21
1.59262E-02 5.08623E-21
1.64770E-02 4.76622E-21
1.70371E-02 4.47155E-21
1.76063E-02 4.19984E-21
1.81848E-02 3.94895E-21
1.87724E-02 3.71698E-21
1.93692E-02 3.50223E-21
1.99751E-02 3.30317E-21
2.05901E-02 3.11843E-21
2.12143E-02 2.94678E-21
2.18476E-02 2.78711E-21
2.24900E-02 2.63841E-21
2.31415E-02 2.49980E-21
2.38021E-02 2.37044E-21
2.44717E-02 2.24961E-21
2.51504E-02 2.13661E-21
2.58382E-02 2.03086E-21
2.65349E-02 1.93177E-21
2.72407E-02 1.83887E-21
2.79555E-02 1.75167E-21
2.86793E-02 1.66976E-21
2.94120E-02 1.59275E-21
3.01537E-02 1.52029E-21
3.09043E-02 1.45206E-21
3.16639E-02 1.38776E-21
3.24324E-02 1.32712E-21
3.32098E-02 1.26988E-21
3.39961E-02 1.21581E-21
3.47912E-02 1.16471E-21
3.55952E-02 1.11638E-21
3.64081E-02 1.07063E-21
3.72297E-02 1.02730E-21
3.80602E-02 9.86236E-22
3.88995E-02 9.47291E-22
3.97476E-02 9.10336E-22
4.06044E-02 8.75245E-22
4.14700E-02 8.41907E-22
4.23443E-02 8.10213E-22
4.32273E-02 7.80068E-22
4.41190E-02 7.51377E-22
4.50194E-02 7.24057E-22
4.59284E-02 6.98027E-22
4.68461E-02 6.73214E-22
4.87074E-02 6.26966E-22
5.06030E-02 5.84813E-22
5.25328E-02 5.46318E-22
5.44967E-02 5.11097E-22
5.64946E-02 4.78816E-22
5.85262E-02 4.49176E-22
6.05914E-02 4.21916E-22
6.26901E-02 3.96806E-22
6.48222E-02 3.73638E-22
6.69873E-02 3.52231E-22
6.91854E-02 3.32422E-22
7.14163E-02 3.14066E-22
7.36799E-02 2.97034E-22
7.59760E-02 2.81208E-22
7.83043E-02 2.66485E-22
8.06647E-02 2.52770E-22
8.30571E-02 2.39980E-22
8.54812E-02 2.28038E-22
8.79369E-02 2.16875E-22
9.04240E-02 2.06429E-22
9.29422E-02 1.96643E-22
9.54915E-02 1.87468E-22
9.80716E-02 1.78853E-22
1.00682E-01 1.70760E-22
1.03323E-01 1.63148E-22
1.05995E-01 1.55982E-22
1.08696E-01 1.49230E-22
1.11427E-01 1.42862E-22
1.14188E-01 1.36853E-22
1.16978E-01 1.31175E-22
1.19797E-01 1.25808E-22
1.22645E-01 1.20729E-22
1.25522E-01 1.15920E-22
1.28428E-01 1.11363E-22
1.31361E-01 1.07042E-22
1.34323E-01 1.02941E-22
1.37313E-01 9.90470E-23
1.40330E-01 9.53463E-23
1.43375E-01 9.18272E-23
1.46447E-01 8.84786E-23
1.49545E-01 8.52903E-23
1.52671E-01 8.22527E-23
1.55823E-01 7.93570E-23
1.59001E-01 7.65949E-23
1.62205E-01 7.39586E-23
1.65435E-01 7.14411E-23
1.68690E-01 6.90356E-23
1.71970E-01 6.67359E-23
1.75276E-01 6.45363E-23
1.78606E-01 6.24312E-23
1.81961E-01 6.04157E-23
1.85340E-01 5.84849E-23
1.88743E-01 5.66343E-23
1.92169E-01 5.48599E-23
1.95619E-01 5.31575E-23
1.99092E-01 5.15237E-23
2.02589E-01 4.99550E-23
2.06107E-01 4.84481E-23
2.09649E-01 4.69999E-23
2.13212E-01 4.56076E-23
2.16797E-01 4.42684E-23
2.20404E-01 4.29799E-23
2.24032E-01 4.17395E-23
2.27680E-01 4.05452E-23
2.31350E-01 3.93946E-23
2.35040E-01 3.82859E-23
2.38751E-01 3.72170E-23
2.42481E-01 3.61862E-23
2.46231E-01 3.51918E-23
2.50000E-01 3.42322E-23
2.53788E-01 3.33058E-23
2.57595E-01 3.24112E-23
2.61421E-01 3.15470E-23
2.65264E-01 3.07119E-23
2.69126E-01 2.99047E-23
2.73005E-01 2.91242E-23
2.76901E-01 2.83694E-23
2.80814E-01 2.76390E-23
2.84744E-01 2.69323E-23
2.88691E-01 2.62481E-23
2.92653E-01 2.55856E-23
2.96632E-01 2.49439E-23
3.00625E-01 2.43221E-23
3.04634E-01 2.37196E-23
3.08658E-01 2.31356E-23
3.12697E-01 2.25693E-23
3.16749E-01 2.20202E-23
3.20816E-01 2.14874E-23
3.24896E-01 2.09704E-23
3.28990E-01 2.04686E-23
3.33097E-01 1.99815E-23
3.37216E-01 1.95086E-23
3.41348E-01 1.90493E-23
3.45492E-01 1.86031E-23
3.49647E-01 1.81694E-23
3.53814E-01 1.77479E-23
3.57992E-01 1.73383E-23
3.62181E-01 1.69400E-23
3.66381E-01 1.65527E-23
3.70590E-01 1.61760E-23
3.74810E-01 1.58094E-23
3.79039E-01 1.54527E-23
3.83277E-01 1.51056E-23
3.87524E-01 1.47677E-23
3.91780E-01 1.44387E-23
3.96044E-01 1.41183E-23
4.00316E-01 1.38063E-23
4.04596E-01 1.35023E-23
4.08882E-01 1.32061E-23
4.13176E-01 1.29175E-23
4.17476E-01 1.26362E-23
4.21783E-01 1.23620E-23
4.26095E-01 1.20946E-23
4.30413E-01 1.18339E-23
4.34737E-01 1.15796E-23
4.39065E-01 1.13316E-23
4.43398E-01 1.10896E-23
4.47736E-01 1.08535E-23
4.52077E-01 1.06230E-23
4.56422E-01 1.03981E-23
4.60770E-01 1.01786E-23
4.65122E-01 9.96423E-24
4.69476E-01 9.75493E-24
4.73832E-01 9.55051E-24
4.78190E-01 9.35086E-24
4.82550E-01 9.15583E-24
4.86912E-01 8.96529E-24
4.91274E-01 8.77911E-24
4.95637E-01 8.59716E-24
5.00000E-01 8.41933E-24
5.04363E-01 8.24550E-24
5.08726E-01 8.07557E-24
5.13088E-01 7.90942E-24
5.17450E-01 7.74695E-24
5.21810E-01 7.58807E-24
5.26168E-01 7.43267E-24
5.30524E-01 7.28066E-24
5.34878E-01 7.13195E-24
5.39230E-01 6.98645E-24
5.43578E-01 6.84408E-24
5.47923E-01 6.70476E-24
5.52264E-01 6.56840E-24
5.56602E-01 6.43494E-24
5.60935E-01 6.30429E-24
5.65263E-01 6.17638E-24
5.69587E-01 6.05114E-24
5.73905E-01 5.92851E-24
5.78217E-01 5.80842E-24
5.82524E-01 5.69081E-24
5.86824E-01 5.57562E-24
5.91118E-01 5.46278E-24
5.95404E-01 5.35223E-24
5.99684E-01 5.24392E-24
6.03956E-01 5.13781E-24
6.08220E-01 5.03382E-24
6.12476E-01 4.93192E-24
6.16723E-01 4.83206E-24
6.20961E-01 4.73418E-24
6.25190E-01 4.63823E-24
6.29410E-01 4.54418E-24
6.33619E-01 4.45197E-24
6.37819E-01 4.36157E-24
6.42008E-01 4.27293E-24
6.46186E-01 4.18602E-24
6.50353E-01 4.10079E-24
6.54508E-01 4.01721E-24
6.58652E-01 3.93523E-24
6.62784E-01 3.85482E-24
6.66903E-01 3.77595E-24
6.71010E-01 3.69859E-24
6.75104E-01 3.62269E-24
6.79184E-01 3.54824E-24
6.83251E-01 3.47518E-24
6.87303E-01 3.40351E-24
6.91342E-01 3.33317E-24
6.95366E-01 3.26416E-24
6.99375E-01 3.19643E-24
7.03368E-01 3.12997E-24
7.07347E-01 3.06474E-24
7.11309E-01 3.00072E-24
7.15256E-01 2.93788E-24
7.19186E-01 2.87620E-24
7.23099E-01 2.81566E-24
7.26995E-01 2.75623E-24
7.30874E-01 2.69788E-24
7.34736E-01 2.64061E-24
7.38579E-01 2.58438E-24
7.42405E-01 2.52917E-24
7.46212E-01 2.47497E-24
7.50000E-01 2.42175E-24
7.53769E-01 2.36950E-24
7.57519E-01 2.31819E-24
7.61249E-01 2.26781E-24
7.64960E-01 2.21834E-24
7.68650E-01 2.16976E-24
7.72320E-01 2.12205E-24
7.75968E-01 2.07521E-24
7.79596E-01 2.02920E-24
7.83203E-01 1.98402E-24
7.86788E-01 1.93965E-24
7.90351E-01 1.89608E-24
7.93893E-01 1.85329E-24
7.97411E-01 1.81126E-24
8.00908E-01 1.76999E-24
8.04381E-01 1.72945E-24
8.07831E-01 1.68965E-24
8.11257E-01 1.65055E-24
8.14660E-01 1.61215E-24
8.18039E-01 1.57444E-24
8.21394E-01 1.53741E-24
8.24724E-01 1.50104E-24
8.28030E-01 1.46532E-24
8.31310E-01 1.43024E-24
8.34565E-01 1.39580E-24
8.37795E-01 1.36197E-24
8.40999E-01 1.32875E-24
8.44177E-01 1.29613E-24
8.47329E-01 1.26410E-24
8.50455E-01 1.23264E-24
8.53553E-01 1.20176E-24
8.56625E-01 1.17144E-24
8.59670E-01 1.14167E-24
8.62687E-01 1.11244E-24
8.65677E-01 1.08374E-24
8.68639E-01 1.05557E-24
8.71572E-01 1.02792E-24
8.74478E-01 1.00078E-24
8.77355E-01 9.74135E-25
8.80203E-01 9.47988E-25
8.83022E-01 9.22326E-25
8.85812E-01 8.97144E-25
8.88573E-01 8.72432E-25
8.91304E-01 8.48186E-25
8.94005E-01 8.24397E-25
8.96677E-01 8.01061E-25
8.99318E-01 7.78170E-25
9.01928E-01 7.55718E-25
9.04508E-01 7.33693E-25
9.07058E-01 7.12095E-25
9.09576E-01 6.90918E-25
9.12063E-01 6.70155E-25
9.14519E-01 6.49802E-25
9.16943E-01 6.29854E-25
9.19335E-01 6.10303E-25
9.21696E-01 5.91147E-25
9.24024E-01 5.72378E-25
9.26320E-01 5.53994E-25
9.28584E-01 5.35987E-25
9.30815E-01 5.18355E-25
9.33013E-01 5.01092E-25
9.35178E-01 4.84194E-25
9.37310E-01 4.67656E-25
9.39409E-01 4.51475E-25
9.41474E-01 4.35645E-25
9.43505E-01 4.20164E-25
9.45503E-01 4.05026E-25
9.47467E-01 3.90229E-25
9.49397E-01 3.75768E-25
9.51293E-01 3.61640E-25
9.53154E-01 3.47841E-25
9.54981E-01 3.34368E-25
9.56773E-01 3.21218E-25
9.58530E-01 3.08386E-25
9.60252E-01 2.95871E-25
9.61940E-01 2.83668E-25
9.63592E-01 2.71775E-25
9.65209E-01 2.60189E-25
9.66790E-01 2.48907E-25
9.68336E-01 2.37926E-25
9.69846E-01 2.27244E-25
9.71321E-01 2.16858E-25
9.72759E-01 2.06766E-25
9.74162E-01 1.96964E-25
9.75528E-01 1.87451E-25
9.76858E-01 1.78225E-25
9.78152E-01 1.69282E-25
9.79410E-01 1.60622E-25
9.80631E-01 1.52242E-25
9.81815E-01 1.44139E-25
9.82963E-01 1.36313E-25
9.84074E-01 1.28760E-25
9.85148E-01 1.21480E-25
9.86185E-01 1.14471E-25
9.87185E-01 1.07731E-25
9.88148E-01 1.01258E-25
9.89074E-01 9.50504E-26
9.89962E-01 8.91075E-26
9.90814E-01 8.34277E-26
9.91627E-01 7.80094E-26
9.92404E-01 7.28516E-26
9.93143E-01 6.79529E-26
9.93844E-01 6.33122E-26
9.94508E-01 5.89284E-26
9.95134E-01 5.48006E-26
9.95722E-01 5.09277E-26
9.96273E-01 4.73089E-26
9.96786E-01 4.39433E-26
9.97261E-01 4.08301E-26
9.97698E-01 3.79686E-26
9.98097E-01 3.53581E-26
9.98459E-01 3.29981E-26
9.98782E-01 3.08880E-26
9.99067E-01 2.90272E-26
9.99315E-01 2.74154E-26
9.99524E-01 2.60523E-26
9.99695E-01 2.49374E-26
9.99829E-01 2.40705E-26
9.99924E-01 2.34514E-26
9.99981E-01 2.30801E-26
1.00000E+00 2.29563E-26
