 #
 # Subroutine ELSEPA. Elastic scattering of electrons and positrons
 #                    by neutral atoms and positive ions
 #
 # Projectile: electron
 # Kinetic energy = 4.00000E+07 eV = 1.46997E+06 a.u.
 #
 # WARNING: High-energy factorization with free-atom DF screening.
 #          Absorption, polarization and exchange corrections are
 #          switched off.
 #          Phase shifts are calculated for the bare nucleus.
 #          Scattering amplitudes are not evaluated.
 #
 # Element: Pb,  Z =  82,  atomic weight = 2.07200E+02 g/mol
 #
 # Nuclear model: Fermi distribution
 #                Average radius = 6.33160E-13 cm
 #                Skin thickness = 5.46000E-14 cm
 #
 # Number of electrons = 82
 #
 # Total elastic cross section = 8.60660E-18 cm**2 = 3.07347E-01 a0**2
 # 1st transport cross section = 7.82767E-24 cm**2 = 2.79531E-07 a0**2
 # 2nd transport cross section = 2.27287E-23 cm**2 = 8.11658E-07 a0**2
 #
 #
 # Differential cross section:                       MU=(1-COS(THETA))/2
 #
 #  THETA        MU          DCS          DCS        Sherman      error
 #  (deg)                 (cm**2/sr)   (a0**2/sr)    function
 #----------------------------------------------------------------------
0.00000E+00 1.01512E-10
7.61557E-13 1.01469E-10
1.18994E-12 1.01446E-10
1.71346E-12 1.01417E-10
2.33225E-12 1.01383E-10
3.04617E-12 1.01344E-10
3.85530E-12 1.01300E-10
4.75964E-12 1.01250E-10
5.75917E-12 1.01195E-10
6.85391E-12 1.01136E-10
8.04379E-12 1.01071E-10
9.32893E-12 1.01001E-10
1.07092E-11 1.00926E-10
1.21847E-11 1.00846E-10
1.37554E-11 1.00760E-10
1.54213E-11 1.00670E-10
1.71823E-11 1.00575E-10
1.90386E-11 1.00475E-10
2.09900E-11 1.00370E-10
2.30367E-11 1.00260E-10
2.51785E-11 1.00145E-10
2.74156E-11 1.00025E-10
2.97478E-11 9.99007E-11
3.21752E-11 9.97714E-11
3.46979E-11 9.96374E-11
3.73157E-11 9.94986E-11
4.00286E-11 9.93552E-11
4.28368E-11 9.92071E-11
4.57402E-11 9.90545E-11
4.87388E-11 9.88973E-11
5.18325E-11 9.87355E-11
5.50215E-11 9.85694E-11
5.83057E-11 9.83987E-11
6.16850E-11 9.82237E-11
6.51595E-11 9.80444E-11
6.87293E-11 9.78607E-11
7.23943E-11 9.76728E-11
7.61544E-11 9.74807E-11
1.18991E-10 9.53402E-11
1.71347E-10 9.28306E-11
2.33223E-10 9.00258E-11
3.04617E-10 8.69765E-11
3.85531E-10 8.37337E-11
4.75965E-10 8.03691E-11
5.75917E-10 7.69378E-11
6.85389E-10 7.34722E-11
8.04380E-10 7.00146E-11
9.32891E-10 6.66136E-11
1.07092E-09 6.32973E-11
1.21847E-09 6.00668E-11
1.37554E-09 5.69516E-11
1.54213E-09 5.39710E-11
1.71823E-09 5.11315E-11
1.90386E-09 4.84146E-11
2.09900E-09 4.58418E-11
2.30367E-09 4.34136E-11
2.51785E-09 4.11245E-11
2.74156E-09 3.89533E-11
2.97478E-09 3.69141E-11
3.21752E-09 3.50002E-11
3.46978E-09 3.32004E-11
3.73156E-09 3.15013E-11
4.00286E-09 2.99086E-11
4.28368E-09 2.84153E-11
4.57402E-09 2.70092E-11
4.87388E-09 2.56836E-11
5.18326E-09 2.44400E-11
5.50215E-09 2.32726E-11
5.83057E-09 2.21697E-11
6.16850E-09 2.11298E-11
6.51596E-09 2.01521E-11
6.87293E-09 1.92321E-11
7.23942E-09 1.83595E-11
7.61544E-09 1.75360E-11
1.18991E-08 1.13772E-11
1.71347E-08 7.56891E-12
2.33223E-08 5.30148E-12
3.04617E-08 3.79255E-12
3.85531E-08 2.76582E-12
4.75965E-08 2.07166E-12
5.75917E-08 1.58624E-12
6.85389E-08 1.23415E-12
8.04380E-08 9.75562E-13
9.32891E-08 7.83449E-13
1.07092E-07 6.37600E-13
1.21847E-07 5.23443E-13
1.37554E-07 4.33727E-13
1.54213E-07 3.62592E-13
1.71823E-07 3.05448E-13
1.90386E-07 2.58482E-13
2.09900E-07 2.20134E-13
2.30367E-07 1.88593E-13
2.51785E-07 1.62422E-13
2.74156E-07 1.40421E-13
2.97478E-07 1.22027E-13
3.21752E-07 1.06561E-13
3.46978E-07 9.34834E-14
3.73156E-07 8.22483E-14
4.00286E-07 7.26714E-14
4.28368E-07 6.44738E-14
4.57402E-07 5.74158E-14
4.87388E-07 5.13123E-14
5.18325E-07 4.60191E-14
5.50215E-07 4.14074E-14
5.83057E-07 3.73627E-14
6.16850E-07 3.38040E-14
6.51596E-07 3.06656E-14
6.87293E-07 2.78879E-14
7.23942E-07 2.54154E-14
7.61543E-07 2.32136E-14
1.18991E-06 1.03890E-14
1.71347E-06 5.32827E-15
2.33223E-06 3.01007E-15
3.04617E-06 1.82676E-15
3.85531E-06 1.17180E-15
4.75964E-06 7.85528E-16
5.75916E-06 5.45955E-16
6.85388E-06 3.91111E-16
8.04378E-06 2.87497E-16
9.32888E-06 2.16055E-16
1.07092E-05 1.65522E-16
1.21846E-05 1.28957E-16
1.37553E-05 1.01966E-16
1.54212E-05 8.16860E-17
1.71822E-05 6.62078E-17
1.90385E-05 5.41931E-17
2.09899E-05 4.48406E-17
2.30365E-05 3.74125E-17
2.51783E-05 3.14493E-17
2.74153E-05 2.66193E-17
2.97475E-05 2.26773E-17
3.21749E-05 1.94378E-17
3.46974E-05 1.67577E-17
3.73152E-05 1.45258E-17
4.00281E-05 1.26548E-17
4.28362E-05 1.10761E-17
4.57395E-05 9.73598E-18
4.87380E-05 8.59199E-18
5.18317E-05 7.61061E-18
5.50205E-05 6.76503E-18
5.83045E-05 6.03357E-18
6.16838E-05 5.39845E-18
6.51582E-05 4.84495E-18
6.87277E-05 4.36081E-18
7.23925E-05 3.93581E-18
7.61524E-05 3.56037E-18
9.21439E-05 2.44299E-18
1.09658E-04 1.73176E-18
1.28695E-04 1.26180E-18
1.49255E-04 9.41064E-19
1.71338E-04 7.16172E-19
1.94942E-04 5.54678E-19
2.20070E-04 4.36287E-19
2.46720E-04 3.47893E-19
2.74892E-04 2.80818E-19
3.04586E-04 2.29173E-19
3.35803E-04 1.88888E-19
3.68542E-04 1.57089E-19
4.02802E-04 1.31717E-19
4.38585E-04 1.11276E-19
4.75889E-04 9.46555E-20
5.14715E-04 8.10316E-20
5.55063E-04 6.97770E-20
5.96931E-04 6.04145E-20
6.40321E-04 5.25741E-20
6.85233E-04 4.59682E-20
7.31665E-04 4.03707E-20
7.79618E-04 3.56018E-20
8.29092E-04 3.15189E-20
8.80086E-04 2.80065E-20
9.32601E-04 2.49716E-20
9.86636E-04 2.23382E-20
1.04219E-03 2.00441E-20
1.09927E-03 1.80383E-20
1.15786E-03 1.62781E-20
1.21797E-03 1.47283E-20
1.27961E-03 1.33594E-20
1.34276E-03 1.21467E-20
1.40743E-03 1.10691E-20
1.47362E-03 1.01089E-20
1.54133E-03 9.25121E-21
1.61056E-03 8.48301E-21
1.68131E-03 7.79335E-21
1.75357E-03 7.17277E-21
1.82735E-03 6.61308E-21
1.90265E-03 6.10726E-21
1.97947E-03 5.64919E-21
2.05780E-03 5.23354E-21
2.13765E-03 4.85567E-21
2.21902E-03 4.51153E-21
2.30190E-03 4.19755E-21
2.38630E-03 3.91061E-21
2.47222E-03 3.64795E-21
2.55965E-03 3.40715E-21
2.64859E-03 3.18604E-21
2.73905E-03 2.98272E-21
2.83103E-03 2.79549E-21
2.92452E-03 2.62285E-21
3.01952E-03 2.46344E-21
3.11604E-03 2.31606E-21
3.21407E-03 2.17964E-21
3.31362E-03 2.05321E-21
3.41468E-03 1.93590E-21
3.51725E-03 1.82692E-21
3.62133E-03 1.72557E-21
3.72692E-03 1.63123E-21
3.83403E-03 1.54331E-21
3.94265E-03 1.46130E-21
4.05278E-03 1.38471E-21
4.16442E-03 1.31313E-21
4.27757E-03 1.24616E-21
4.39223E-03 1.18346E-21
4.50840E-03 1.12469E-21
4.62608E-03 1.06956E-21
4.74527E-03 1.01781E-21
4.86597E-03 9.69185E-22
4.98817E-03 9.23462E-22
5.11188E-03 8.80435E-22
5.23711E-03 8.39915E-22
5.36383E-03 8.01728E-22
5.49207E-03 7.65711E-22
5.62181E-03 7.31718E-22
5.75306E-03 6.99615E-22
5.88581E-03 6.69276E-22
6.02007E-03 6.40582E-22
6.15583E-03 6.13428E-22
6.29310E-03 5.87720E-22
6.43187E-03 5.63359E-22
6.57214E-03 5.40262E-22
6.71392E-03 5.18355E-22
6.85720E-03 4.97562E-22
7.00198E-03 4.77812E-22
7.14827E-03 4.59047E-22
7.29605E-03 4.41207E-22
7.44534E-03 4.24236E-22
7.59612E-03 4.08085E-22
7.97965E-03 3.70987E-22
8.37255E-03 3.38064E-22
8.77480E-03 3.08761E-22
9.18641E-03 2.82606E-22
9.60736E-03 2.59199E-22
1.00376E-02 2.38198E-22
1.04773E-02 2.19310E-22
1.09262E-02 2.02283E-22
1.13844E-02 1.86899E-22
1.18520E-02 1.72969E-22
1.23288E-02 1.60331E-22
1.28150E-02 1.48842E-22
1.33104E-02 1.38378E-22
1.38150E-02 1.28829E-22
1.43290E-02 1.20102E-22
1.48521E-02 1.12111E-22
1.53845E-02 1.04783E-22
1.59262E-02 9.80523E-23
1.64770E-02 9.18622E-23
1.70371E-02 8.61550E-23
1.76063E-02 8.08886E-23
1.81848E-02 7.60233E-23
1.87724E-02 7.15224E-23
1.93692E-02 6.73534E-23
1.99751E-02 6.34871E-23
2.05901E-02 5.98971E-23
2.12143E-02 5.65599E-23
2.18476E-02 5.34541E-23
2.24900E-02 5.05605E-23
2.31415E-02 4.78618E-23
2.38021E-02 4.53422E-23
2.44717E-02 4.29876E-23
2.51504E-02 4.07849E-23
2.58382E-02 3.87225E-23
2.65349E-02 3.67897E-23
2.72407E-02 3.49766E-23
2.79555E-02 3.32744E-23
2.86793E-02 3.16750E-23
2.94120E-02 3.01709E-23
3.01537E-02 2.87553E-23
3.09043E-02 2.74220E-23
3.16639E-02 2.61652E-23
3.24324E-02 2.49797E-23
3.32098E-02 2.38607E-23
3.39961E-02 2.28036E-23
3.47912E-02 2.18043E-23
3.55952E-02 2.08591E-23
3.64081E-02 1.99645E-23
3.72297E-02 1.91172E-23
3.80602E-02 1.83141E-23
3.88995E-02 1.75526E-23
3.97476E-02 1.68301E-23
4.06044E-02 1.61442E-23
4.14700E-02 1.54926E-23
4.23443E-02 1.48732E-23
4.32273E-02 1.42843E-23
4.41190E-02 1.37240E-23
4.50194E-02 1.31905E-23
4.59284E-02 1.26825E-23
4.68461E-02 1.21984E-23
4.87074E-02 1.12967E-23
5.06030E-02 1.04756E-23
5.25328E-02 9.72665E-24
5.44967E-02 9.04230E-24
5.64946E-02 8.41594E-24
5.85262E-02 7.84177E-24
6.05914E-02 7.31464E-24
6.26901E-02 6.82998E-24
6.48222E-02 6.38376E-24
6.69873E-02 5.97237E-24
6.91854E-02 5.59260E-24
7.14163E-02 5.24158E-24
7.36799E-02 4.91675E-24
7.59760E-02 4.61580E-24
7.83043E-02 4.33667E-24
8.06647E-02 4.07749E-24
8.30571E-02 3.83659E-24
8.54812E-02 3.61246E-24
8.79369E-02 3.40372E-24
9.04240E-02 3.20913E-24
9.29422E-02 3.02757E-24
9.54915E-02 2.85803E-24
9.80716E-02 2.69956E-24
1.00682E-01 2.55133E-24
1.03323E-01 2.41256E-24
1.05995E-01 2.28256E-24
1.08696E-01 2.16066E-24
1.11427E-01 2.04630E-24
1.14188E-01 1.93892E-24
1.16978E-01 1.83803E-24
1.19797E-01 1.74317E-24
1.22645E-01 1.65394E-24
1.25522E-01 1.56994E-24
1.28428E-01 1.49082E-24
1.31361E-01 1.41625E-24
1.34323E-01 1.34593E-24
1.37313E-01 1.27958E-24
1.40330E-01 1.21695E-24
1.43375E-01 1.15779E-24
1.46447E-01 1.10189E-24
1.49545E-01 1.04903E-24
1.52671E-01 9.99035E-25
1.55823E-01 9.51723E-25
1.59001E-01 9.06928E-25
1.62205E-01 8.64500E-25
1.65435E-01 8.24295E-25
1.68690E-01 7.86181E-25
1.71970E-01 7.50036E-25
1.75276E-01 7.15743E-25
1.78606E-01 6.83196E-25
1.81961E-01 6.52294E-25
1.85340E-01 6.22943E-25
1.88743E-01 5.95055E-25
1.92169E-01 5.68549E-25
1.95619E-01 5.43348E-25
1.99092E-01 5.19379E-25
2.02589E-01 4.96575E-25
2.06107E-01 4.74872E-25
2.09649E-01 4.54212E-25
2.13212E-01 4.34538E-25
2.16797E-01 4.15797E-25
2.20404E-01 3.97942E-25
2.24032E-01 3.80924E-25
2.27680E-01 3.64700E-25
2.31350E-01 3.49230E-25
2.35040E-01 3.34475E-25
2.38751E-01 3.20397E-25
2.42481E-01 3.06963E-25
2.46231E-01 2.94141E-25
2.50000E-01 2.81899E-25
2.53788E-01 2.70208E-25
2.57595E-01 2.59042E-25
2.61421E-01 2.48374E-25
2.65264E-01 2.38181E-25
2.69126E-01 2.28438E-25
2.73005E-01 2.19125E-25
2.76901E-01 2.10220E-25
2.80814E-01 2.01705E-25
2.84744E-01 1.93560E-25
2.88691E-01 1.85768E-25
2.92653E-01 1.78312E-25
2.96632E-01 1.71177E-25
3.00625E-01 1.64347E-25
3.04634E-01 1.57809E-25
3.08658E-01 1.51549E-25
3.12697E-01 1.45554E-25
3.16749E-01 1.39812E-25
3.20816E-01 1.34312E-25
3.24896E-01 1.29042E-25
3.28990E-01 1.23993E-25
3.33097E-01 1.19154E-25
3.37216E-01 1.14516E-25
3.41348E-01 1.10070E-25
3.45492E-01 1.05807E-25
3.49647E-01 1.01720E-25
3.53814E-01 9.77998E-26
3.57992E-01 9.40403E-26
3.62181E-01 9.04341E-26
3.66381E-01 8.69745E-26
3.70590E-01 8.36551E-26
3.74810E-01 8.04700E-26
3.79039E-01 7.74132E-26
3.83277E-01 7.44794E-26
3.87524E-01 7.16633E-26
3.91780E-01 6.89598E-26
3.96044E-01 6.63641E-26
4.00316E-01 6.38718E-26
4.04596E-01 6.14784E-26
4.08882E-01 5.91799E-26
4.13176E-01 5.69721E-26
4.17476E-01 5.48514E-26
4.21783E-01 5.28141E-26
4.26095E-01 5.08567E-26
4.30413E-01 4.89759E-26
4.34737E-01 4.71686E-26
4.39065E-01 4.54318E-26
4.43398E-01 4.37625E-26
4.47736E-01 4.21579E-26
4.52077E-01 4.06155E-26
4.56422E-01 3.91327E-26
4.60770E-01 3.77071E-26
4.65122E-01 3.63364E-26
4.69476E-01 3.50182E-26
4.73832E-01 3.37506E-26
4.78190E-01 3.25315E-26
4.82550E-01 3.13589E-26
4.86912E-01 3.02310E-26
4.91274E-01 2.91460E-26
4.95637E-01 2.81021E-26
5.00000E-01 2.70978E-26
5.04363E-01 2.61315E-26
5.08726E-01 2.52016E-26
5.13088E-01 2.43067E-26
5.17450E-01 2.34455E-26
5.21810E-01 2.26165E-26
5.26168E-01 2.18186E-26
5.30524E-01 2.10506E-26
5.34878E-01 2.03112E-26
5.39230E-01 1.95993E-26
5.43578E-01 1.89138E-26
5.47923E-01 1.82538E-26
5.52264E-01 1.76182E-26
5.56602E-01 1.70061E-26
5.60935E-01 1.64166E-26
5.65263E-01 1.58488E-26
5.69587E-01 1.53019E-26
5.73905E-01 1.47750E-26
5.78217E-01 1.42674E-26
5.82524E-01 1.37783E-26
5.86824E-01 1.33071E-26
5.91118E-01 1.28530E-26
5.95404E-01 1.24154E-26
5.99684E-01 1.19936E-26
6.03956E-01 1.15871E-26
6.08220E-01 1.11953E-26
6.12476E-01 1.08176E-26
6.16723E-01 1.04535E-26
6.20961E-01 1.01024E-26
6.25190E-01 9.76392E-27
6.29410E-01 9.43751E-27
6.33619E-01 9.12273E-27
6.37819E-01 8.81915E-27
6.42008E-01 8.52634E-27
6.46186E-01 8.24390E-27
6.50353E-01 7.97143E-27
6.54508E-01 7.70857E-27
6.58652E-01 7.45494E-27
6.62784E-01 7.21022E-27
6.66903E-01 6.97405E-27
6.71010E-01 6.74613E-27
6.75104E-01 6.52614E-27
6.79184E-01 6.31380E-27
6.83251E-01 6.10880E-27
6.87303E-01 5.91089E-27
6.91342E-01 5.71980E-27
6.95366E-01 5.53528E-27
6.99375E-01 5.35708E-27
7.03368E-01 5.18497E-27
7.07347E-01 5.01873E-27
7.11309E-01 4.85813E-27
7.15256E-01 4.70298E-27
7.19186E-01 4.55306E-27
7.23099E-01 4.40820E-27
7.26995E-01 4.26820E-27
7.30874E-01 4.13289E-27
7.34736E-01 4.00209E-27
7.38579E-01 3.87565E-27
7.42405E-01 3.75339E-27
7.46212E-01 3.63518E-27
7.50000E-01 3.52086E-27
7.53769E-01 3.41029E-27
7.57519E-01 3.30334E-27
7.61249E-01 3.19987E-27
7.64960E-01 3.09977E-27
7.68650E-01 3.00290E-27
7.72320E-01 2.90916E-27
7.75968E-01 2.81843E-27
7.79596E-01 2.73061E-27
7.83203E-01 2.64559E-27
7.86788E-01 2.56326E-27
7.90351E-01 2.48355E-27
7.93893E-01 2.40635E-27
7.97411E-01 2.33157E-27
8.00908E-01 2.25913E-27
8.04381E-01 2.18895E-27
8.07831E-01 2.12094E-27
8.11257E-01 2.05504E-27
8.14660E-01 1.99117E-27
8.18039E-01 1.92925E-27
8.21394E-01 1.86923E-27
8.24724E-01 1.81103E-27
8.28030E-01 1.75459E-27
8.31310E-01 1.69986E-27
8.34565E-01 1.64676E-27
8.37795E-01 1.59526E-27
8.40999E-01 1.54529E-27
8.44177E-01 1.49680E-27
8.47329E-01 1.44975E-27
8.50455E-01 1.40408E-27
8.53553E-01 1.35975E-27
8.56625E-01 1.31671E-27
8.59670E-01 1.27492E-27
8.62687E-01 1.23434E-27
8.65677E-01 1.19493E-27
8.68639E-01 1.15666E-27
8.71572E-01 1.11948E-27
8.74478E-01 1.08336E-27
8.77355E-01 1.04827E-27
8.80203E-01 1.01417E-27
8.83022E-01 9.81027E-28
8.85812E-01 9.48822E-28
8.88573E-01 9.17519E-28
8.91304E-01 8.87090E-28
8.94005E-01 8.57510E-28
8.96677E-01 8.28751E-28
8.99318E-01 8.00790E-28
9.01928E-01 7.73601E-28
9.04508E-01 7.47163E-28
9.07058E-01 7.21452E-28
9.09576E-01 6.96448E-28
9.12063E-01 6.72129E-28
9.14519E-01 6.48477E-28
9.16943E-01 6.25471E-28
9.19335E-01 6.03094E-28
9.21696E-01 5.81329E-28
9.24024E-01 5.60157E-28
9.26320E-01 5.39564E-28
9.28584E-01 5.19533E-28
9.30815E-01 5.00049E-28
9.33013E-01 4.81098E-28
9.35178E-01 4.62666E-28
9.37310E-01 4.44740E-28
9.39409E-01 4.27306E-28
9.41474E-01 4.10353E-28
9.43505E-01 3.93868E-28
9.45503E-01 3.77840E-28
9.47467E-01 3.62258E-28
9.49397E-01 3.47111E-28
9.51293E-01 3.32390E-28
9.53154E-01 3.18085E-28
9.54981E-01 3.04186E-28
9.56773E-01 2.90684E-28
9.58530E-01 2.77571E-28
9.60252E-01 2.64839E-28
9.61940E-01 2.52479E-28
9.63592E-01 2.40484E-28
9.65209E-01 2.28846E-28
9.66790E-01 2.17559E-28
9.68336E-01 2.06616E-28
9.69846E-01 1.96010E-28
9.71321E-01 1.85735E-28
9.72759E-01 1.75786E-28
9.74162E-01 1.66156E-28
9.75528E-01 1.56840E-28
9.76858E-01 1.47833E-28
9.78152E-01 1.39130E-28
9.79410E-01 1.30726E-28
9.80631E-01 1.22616E-28
9.81815E-01 1.14797E-28
9.82963E-01 1.07264E-28
9.84074E-01 1.00012E-28
9.85148E-01 9.30394E-29
9.86185E-01 8.63412E-29
9.87185E-01 7.99141E-29
9.88148E-01 7.37550E-29
9.89074E-01 6.78607E-29
9.89962E-01 6.22284E-29
9.90814E-01 5.68551E-29
9.91627E-01 5.17382E-29
9.92404E-01 4.68752E-29
9.93143E-01 4.22638E-29
9.93844E-01 3.79018E-29
9.94508E-01 3.37870E-29
9.95134E-01 2.99175E-29
9.95722E-01 2.62914E-29
9.96273E-01 2.29070E-29
9.96786E-01 1.97628E-29
9.97261E-01 1.68573E-29
9.97698E-01 1.41891E-29
9.98097E-01 1.17569E-29
9.98459E-01 9.55979E-30
9.98782E-01 7.59660E-30
9.99067E-01 5.86647E-30
9.99315E-01 4.36861E-30
9.99524E-01 3.10234E-30
9.99695E-01 2.06709E-30
9.99829E-01 1.26237E-30
9.99924E-01 6.87834E-31
9.99981E-01 3.43217E-31
1.00000E+00 2.28362E-31
