 #
 # Subroutine ELSEPA. Elastic scattering of electrons and positrons
 #                    by neutral atoms and positive ions
 #
 # Projectile: electron
 # Kinetic energy = 7.00000E+06 eV = 2.57245E+05 a.u.
 #
 # WARNING: High-energy factorization with free-atom DF screening.
 #          Absorption, polarization and exchange corrections are
 #          switched off.
 #          Phase shifts are calculated for the bare nucleus.
 #          Scattering amplitudes are not evaluated.
 #
 # Element: Pb,  Z =  82,  atomic weight = 2.07200E+02 g/mol
 #
 # Nuclear model: Fermi distribution
 #                Average radius = 6.33160E-13 cm
 #                Skin thickness = 5.46000E-14 cm
 #
 # Number of electrons = 82
 #
 # Total elastic cross section = 8.65357E-18 cm**2 = 3.09025E-01 a0**2
 # 1st transport cross section = 2.08686E-22 cm**2 = 7.45232E-06 a0**2
 # 2nd transport cross section = 5.63616E-22 cm**2 = 2.01271E-05 a0**2
 #
 #
 # Differential cross section:                       MU=(1-COS(THETA))/2
 #
 #  THETA        MU          DCS          DCS        Sherman      error
 #  (deg)                 (cm**2/sr)   (a0**2/sr)    function
 #----------------------------------------------------------------------
0.00000E+00 3.48952E-12
7.61557E-13 3.48947E-12
1.18994E-12 3.48944E-12
1.71346E-12 3.48941E-12
2.33225E-12 3.48937E-12
3.04617E-12 3.48932E-12
3.85530E-12 3.48927E-12
4.75964E-12 3.48921E-12
5.75917E-12 3.48915E-12
6.85391E-12 3.48907E-12
8.04379E-12 3.48900E-12
9.32893E-12 3.48891E-12
1.07092E-11 3.48883E-12
1.21847E-11 3.48873E-12
1.37554E-11 3.48863E-12
1.54213E-11 3.48852E-12
1.71823E-11 3.48841E-12
1.90386E-11 3.48829E-12
2.09900E-11 3.48816E-12
2.30367E-11 3.48803E-12
2.51785E-11 3.48789E-12
2.74156E-11 3.48775E-12
2.97478E-11 3.48760E-12
3.21752E-11 3.48744E-12
3.46979E-11 3.48728E-12
3.73157E-11 3.48711E-12
4.00286E-11 3.48693E-12
4.28368E-11 3.48675E-12
4.57402E-11 3.48656E-12
4.87388E-11 3.48637E-12
5.18325E-11 3.48617E-12
5.50215E-11 3.48597E-12
5.83057E-11 3.48575E-12
6.16850E-11 3.48554E-12
6.51595E-11 3.48531E-12
6.87293E-11 3.48508E-12
7.23943E-11 3.48485E-12
7.61544E-11 3.48460E-12
1.18991E-10 3.48185E-12
1.71347E-10 3.47848E-12
2.33223E-10 3.47451E-12
3.04617E-10 3.46995E-12
3.85531E-10 3.46478E-12
4.75965E-10 3.45903E-12
5.75917E-10 3.45269E-12
6.85389E-10 3.44577E-12
8.04380E-10 3.43828E-12
9.32891E-10 3.43022E-12
1.07092E-09 3.42161E-12
1.21847E-09 3.41244E-12
1.37554E-09 3.40273E-12
1.54213E-09 3.39249E-12
1.71823E-09 3.38172E-12
1.90386E-09 3.37044E-12
2.09900E-09 3.35865E-12
2.30367E-09 3.34637E-12
2.51785E-09 3.33360E-12
2.74156E-09 3.32036E-12
2.97478E-09 3.30666E-12
3.21752E-09 3.29251E-12
3.46978E-09 3.27792E-12
3.73156E-09 3.26290E-12
4.00286E-09 3.24747E-12
4.28368E-09 3.23156E-12
4.57402E-09 3.21524E-12
4.87388E-09 3.19859E-12
5.18326E-09 3.18160E-12
5.50215E-09 3.16430E-12
5.83057E-09 3.14671E-12
6.16850E-09 3.12883E-12
6.51596E-09 3.11056E-12
6.87293E-09 3.09184E-12
7.23942E-09 3.07288E-12
7.61544E-09 3.05369E-12
1.18991E-08 2.85022E-12
1.71347E-08 2.63308E-12
2.33223E-08 2.41300E-12
3.04617E-08 2.19883E-12
3.85531E-08 1.99510E-12
4.75965E-08 1.80606E-12
5.75917E-08 1.63341E-12
6.85389E-08 1.47648E-12
8.04380E-08 1.33580E-12
9.32891E-08 1.20995E-12
1.07092E-07 1.09739E-12
1.21847E-07 9.97290E-13
1.37554E-07 9.07893E-13
1.54213E-07 8.28087E-13
1.71823E-07 7.56937E-13
1.90386E-07 6.93001E-13
2.09900E-07 6.35722E-13
2.30367E-07 5.84294E-13
2.51785E-07 5.37769E-13
2.74156E-07 4.95848E-13
2.97478E-07 4.57886E-13
3.21752E-07 4.23383E-13
3.46978E-07 3.92091E-13
3.73156E-07 3.63533E-13
4.00286E-07 3.37476E-13
4.28368E-07 3.12175E-13
4.57402E-07 2.89041E-13
4.87388E-07 2.68505E-13
5.18325E-07 2.50214E-13
5.50215E-07 2.33869E-13
5.83057E-07 2.19219E-13
6.16850E-07 2.06047E-13
6.51596E-07 1.93256E-13
6.87293E-07 1.80366E-13
7.23942E-07 1.68751E-13
7.61543E-07 1.58258E-13
1.18991E-06 8.85065E-14
1.71347E-06 5.31547E-14
2.33223E-06 3.39562E-14
3.04617E-06 2.28542E-14
3.85531E-06 1.59333E-14
4.75964E-06 1.14422E-14
5.75916E-06 8.41644E-15
6.85388E-06 6.30005E-15
8.04378E-06 4.80304E-15
9.32888E-06 3.72101E-15
1.07092E-05 2.92499E-15
1.21846E-05 2.32992E-15
1.37553E-05 1.88060E-15
1.54212E-05 1.53642E-15
1.71822E-05 1.26890E-15
1.90385E-05 1.05682E-15
2.09899E-05 8.88799E-16
2.30365E-05 7.53034E-16
2.51783E-05 6.42130E-16
2.74153E-05 5.51014E-16
2.97475E-05 4.75554E-16
3.21749E-05 4.12609E-16
3.46974E-05 3.59831E-16
3.73152E-05 3.15250E-16
4.00281E-05 2.77402E-16
4.28362E-05 2.44941E-16
4.57395E-05 2.17190E-16
4.87380E-05 1.93426E-16
5.18317E-05 1.72652E-16
5.50205E-05 1.54622E-16
5.83045E-05 1.38982E-16
6.16838E-05 1.25160E-16
6.51582E-05 1.13053E-16
6.87277E-05 1.02439E-16
7.23925E-05 9.29681E-17
7.61524E-05 8.45946E-17
9.21439E-05 5.92430E-17
1.09658E-04 4.26860E-17
1.28695E-04 3.15370E-17
1.49255E-04 2.37981E-17
1.71338E-04 1.82905E-17
1.94942E-04 1.42904E-17
2.20070E-04 1.13267E-17
2.46720E-04 9.09419E-18
2.74892E-04 7.38734E-18
3.04586E-04 6.06313E-18
3.35803E-04 5.02369E-18
3.68542E-04 4.19838E-18
4.02802E-04 3.53588E-18
4.38585E-04 2.99943E-18
4.75889E-04 2.56108E-18
5.14715E-04 2.20000E-18
5.55063E-04 1.90048E-18
5.96931E-04 1.65024E-18
6.40321E-04 1.43988E-18
6.85233E-04 1.26204E-18
7.31665E-04 1.11080E-18
7.79618E-04 9.81572E-19
8.29092E-04 8.70619E-19
8.80086E-04 7.74900E-19
9.32601E-04 6.92000E-19
9.86636E-04 6.19903E-19
1.04219E-03 5.56958E-19
1.09927E-03 5.01821E-19
1.15786E-03 4.53344E-19
1.21797E-03 4.10592E-19
1.27961E-03 3.72775E-19
1.34276E-03 3.39217E-19
1.40743E-03 3.09363E-19
1.47362E-03 2.82730E-19
1.54133E-03 2.58908E-19
1.61056E-03 2.37552E-19
1.68131E-03 2.18358E-19
1.75357E-03 2.01071E-19
1.82735E-03 1.85468E-19
1.90265E-03 1.71354E-19
1.97947E-03 1.58563E-19
2.05780E-03 1.46948E-19
2.13765E-03 1.36382E-19
2.21902E-03 1.26753E-19
2.30190E-03 1.17963E-19
2.38630E-03 1.09924E-19
2.47222E-03 1.02563E-19
2.55965E-03 9.58108E-20
2.64859E-03 8.96079E-20
2.73905E-03 8.39018E-20
2.83103E-03 7.86450E-20
2.92452E-03 7.37959E-20
3.01952E-03 6.93171E-20
3.11604E-03 6.51748E-20
3.21407E-03 6.13394E-20
3.31362E-03 5.77837E-20
3.41468E-03 5.44836E-20
3.51725E-03 5.14173E-20
3.62133E-03 4.85651E-20
3.72692E-03 4.59093E-20
3.83403E-03 4.34340E-20
3.94265E-03 4.11243E-20
4.05278E-03 3.89673E-20
4.16442E-03 3.69507E-20
4.27757E-03 3.50643E-20
4.39223E-03 3.32973E-20
4.50840E-03 3.16414E-20
4.62608E-03 3.00878E-20
4.74527E-03 2.86293E-20
4.86597E-03 2.72588E-20
4.98817E-03 2.59700E-20
5.11188E-03 2.47573E-20
5.23711E-03 2.36150E-20
5.36383E-03 2.25386E-20
5.49207E-03 2.15233E-20
5.62181E-03 2.05651E-20
5.75306E-03 1.96601E-20
5.88581E-03 1.88049E-20
6.02007E-03 1.79961E-20
6.15583E-03 1.72308E-20
6.29310E-03 1.65062E-20
6.43187E-03 1.58197E-20
6.57214E-03 1.51688E-20
6.71392E-03 1.45515E-20
6.85720E-03 1.39656E-20
7.00198E-03 1.34092E-20
7.14827E-03 1.28807E-20
7.29605E-03 1.23781E-20
7.44534E-03 1.19002E-20
7.59612E-03 1.14453E-20
7.97965E-03 1.04009E-20
8.37255E-03 9.47436E-21
8.77480E-03 8.65001E-21
9.18641E-03 7.91454E-21
9.60736E-03 7.25665E-21
1.00376E-02 6.66669E-21
1.04773E-02 6.13634E-21
1.09262E-02 5.65850E-21
1.13844E-02 5.22702E-21
1.18520E-02 4.83655E-21
1.23288E-02 4.48250E-21
1.28150E-02 4.16082E-21
1.33104E-02 3.86800E-21
1.38150E-02 3.60099E-21
1.43290E-02 3.35706E-21
1.48521E-02 3.13385E-21
1.53845E-02 2.92928E-21
1.59262E-02 2.74148E-21
1.64770E-02 2.56882E-21
1.70371E-02 2.40985E-21
1.76063E-02 2.26327E-21
1.81848E-02 2.12794E-21
1.87724E-02 2.00281E-21
1.93692E-02 1.88698E-21
1.99751E-02 1.77962E-21
2.05901E-02 1.67999E-21
2.12143E-02 1.58742E-21
2.18476E-02 1.50132E-21
2.24900E-02 1.42114E-21
2.31415E-02 1.34640E-21
2.38021E-02 1.27665E-21
2.44717E-02 1.21150E-21
2.51504E-02 1.15058E-21
2.58382E-02 1.09356E-21
2.65349E-02 1.04015E-21
2.72407E-02 9.90063E-22
2.79555E-02 9.43056E-22
2.86793E-02 8.98901E-22
2.94120E-02 8.57391E-22
3.01537E-02 8.18333E-22
3.09043E-02 7.81555E-22
3.16639E-02 7.46895E-22
3.24324E-02 7.14207E-22
3.32098E-02 6.83355E-22
3.39961E-02 6.54215E-22
3.47912E-02 6.26672E-22
3.55952E-02 6.00621E-22
3.64081E-02 5.75964E-22
3.72297E-02 5.52611E-22
3.80602E-02 5.30479E-22
3.88995E-02 5.09490E-22
3.97476E-02 4.89573E-22
4.06044E-02 4.70661E-22
4.14700E-02 4.52693E-22
4.23443E-02 4.35613E-22
4.32273E-02 4.19367E-22
4.41190E-02 4.03904E-22
4.50194E-02 3.89181E-22
4.59284E-02 3.75153E-22
4.68461E-02 3.61781E-22
4.87074E-02 3.36858E-22
5.06030E-02 3.14142E-22
5.25328E-02 2.93398E-22
5.44967E-02 2.74419E-22
5.64946E-02 2.57024E-22
5.85262E-02 2.41053E-22
6.05914E-02 2.26365E-22
6.26901E-02 2.12835E-22
6.48222E-02 2.00353E-22
6.69873E-02 1.88820E-22
6.91854E-02 1.78148E-22
7.14163E-02 1.68259E-22
7.36799E-02 1.59084E-22
7.59760E-02 1.50560E-22
7.83043E-02 1.42629E-22
8.06647E-02 1.35243E-22
8.30571E-02 1.28355E-22
8.54812E-02 1.21924E-22
8.79369E-02 1.15914E-22
9.04240E-02 1.10290E-22
9.29422E-02 1.05022E-22
9.54915E-02 1.00082E-22
9.80716E-02 9.54460E-23
1.00682E-01 9.10903E-23
1.03323E-01 8.69941E-23
1.05995E-01 8.31386E-23
1.08696E-01 7.95064E-23
1.11427E-01 7.60815E-23
1.14188E-01 7.28493E-23
1.16978E-01 6.97964E-23
1.19797E-01 6.69107E-23
1.22645E-01 6.41808E-23
1.25522E-01 6.15963E-23
1.28428E-01 5.91477E-23
1.31361E-01 5.68260E-23
1.34323E-01 5.46233E-23
1.37313E-01 5.25319E-23
1.40330E-01 5.05449E-23
1.43375E-01 4.86558E-23
1.46447E-01 4.68587E-23
1.49545E-01 4.51479E-23
1.52671E-01 4.35184E-23
1.55823E-01 4.19654E-23
1.59001E-01 4.04844E-23
1.62205E-01 3.90711E-23
1.65435E-01 3.77219E-23
1.68690E-01 3.64332E-23
1.71970E-01 3.52015E-23
1.75276E-01 3.40235E-23
1.78606E-01 3.28965E-23
1.81961E-01 3.18179E-23
1.85340E-01 3.07850E-23
1.88743E-01 2.97951E-23
1.92169E-01 2.88462E-23
1.95619E-01 2.79364E-23
1.99092E-01 2.70634E-23
2.02589E-01 2.62253E-23
2.06107E-01 2.54205E-23
2.09649E-01 2.46474E-23
2.13212E-01 2.39044E-23
2.16797E-01 2.31900E-23
2.20404E-01 2.25028E-23
2.24032E-01 2.18416E-23
2.27680E-01 2.12051E-23
2.31350E-01 2.05922E-23
2.35040E-01 2.00017E-23
2.38751E-01 1.94327E-23
2.42481E-01 1.88842E-23
2.46231E-01 1.83552E-23
2.50000E-01 1.78450E-23
2.53788E-01 1.73526E-23
2.57595E-01 1.68772E-23
2.61421E-01 1.64183E-23
2.65264E-01 1.59749E-23
2.69126E-01 1.55466E-23
2.73005E-01 1.51326E-23
2.76901E-01 1.47323E-23
2.80814E-01 1.43452E-23
2.84744E-01 1.39708E-23
2.88691E-01 1.36084E-23
2.92653E-01 1.32577E-23
2.96632E-01 1.29182E-23
3.00625E-01 1.25894E-23
3.04634E-01 1.22709E-23
3.08658E-01 1.19622E-23
3.12697E-01 1.16632E-23
3.16749E-01 1.13732E-23
3.20816E-01 1.10920E-23
3.24896E-01 1.08194E-23
3.28990E-01 1.05548E-23
3.33097E-01 1.02981E-23
3.37216E-01 1.00490E-23
3.41348E-01 9.80715E-24
3.45492E-01 9.57231E-24
3.49647E-01 9.34424E-24
3.53814E-01 9.12268E-24
3.57992E-01 8.90740E-24
3.62181E-01 8.69820E-24
3.66381E-01 8.49485E-24
3.70590E-01 8.29715E-24
3.74810E-01 8.10490E-24
3.79039E-01 7.91793E-24
3.83277E-01 7.73605E-24
3.87524E-01 7.55907E-24
3.91780E-01 7.38686E-24
3.96044E-01 7.21924E-24
4.00316E-01 7.05606E-24
4.04596E-01 6.89717E-24
4.08882E-01 6.74245E-24
4.13176E-01 6.59175E-24
4.17476E-01 6.44494E-24
4.21783E-01 6.30190E-24
4.26095E-01 6.16252E-24
4.30413E-01 6.02666E-24
4.34737E-01 5.89423E-24
4.39065E-01 5.76512E-24
4.43398E-01 5.63922E-24
4.47736E-01 5.51645E-24
4.52077E-01 5.39670E-24
4.56422E-01 5.27987E-24
4.60770E-01 5.16590E-24
4.65122E-01 5.05469E-24
4.69476E-01 4.94615E-24
4.73832E-01 4.84022E-24
4.78190E-01 4.73680E-24
4.82550E-01 4.63585E-24
4.86912E-01 4.53721E-24
4.91274E-01 4.44085E-24
4.95637E-01 4.34673E-24
5.00000E-01 4.25479E-24
5.04363E-01 4.16497E-24
5.08726E-01 4.07720E-24
5.13088E-01 3.99143E-24
5.17450E-01 3.90761E-24
5.21810E-01 3.82568E-24
5.26168E-01 3.74559E-24
5.30524E-01 3.66728E-24
5.34878E-01 3.59072E-24
5.39230E-01 3.51585E-24
5.43578E-01 3.44262E-24
5.47923E-01 3.37100E-24
5.52264E-01 3.30095E-24
5.56602E-01 3.23241E-24
5.60935E-01 3.16535E-24
5.65263E-01 3.09974E-24
5.69587E-01 3.03553E-24
5.73905E-01 2.97269E-24
5.78217E-01 2.91119E-24
5.82524E-01 2.85098E-24
5.86824E-01 2.79204E-24
5.91118E-01 2.73433E-24
5.95404E-01 2.67783E-24
5.99684E-01 2.62251E-24
6.03956E-01 2.56833E-24
6.08220E-01 2.51526E-24
6.12476E-01 2.46329E-24
6.16723E-01 2.41237E-24
6.20961E-01 2.36250E-24
6.25190E-01 2.31364E-24
6.29410E-01 2.26576E-24
6.33619E-01 2.21885E-24
6.37819E-01 2.17288E-24
6.42008E-01 2.12784E-24
6.46186E-01 2.08368E-24
6.50353E-01 2.04041E-24
6.54508E-01 1.99799E-24
6.58652E-01 1.95641E-24
6.62784E-01 1.91565E-24
6.66903E-01 1.87569E-24
6.71010E-01 1.83651E-24
6.75104E-01 1.79809E-24
6.79184E-01 1.76042E-24
6.83251E-01 1.72347E-24
6.87303E-01 1.68724E-24
6.91342E-01 1.65171E-24
6.95366E-01 1.61686E-24
6.99375E-01 1.58268E-24
7.03368E-01 1.54915E-24
7.07347E-01 1.51626E-24
7.11309E-01 1.48400E-24
7.15256E-01 1.45234E-24
7.19186E-01 1.42129E-24
7.23099E-01 1.39082E-24
7.26995E-01 1.36092E-24
7.30874E-01 1.33159E-24
7.34736E-01 1.30280E-24
7.38579E-01 1.27456E-24
7.42405E-01 1.24684E-24
7.46212E-01 1.21964E-24
7.50000E-01 1.19294E-24
7.53769E-01 1.16674E-24
7.57519E-01 1.14103E-24
7.61249E-01 1.11579E-24
7.64960E-01 1.09102E-24
7.68650E-01 1.06671E-24
7.72320E-01 1.04284E-24
7.75968E-01 1.01942E-24
7.79596E-01 9.96424E-25
7.83203E-01 9.73853E-25
7.86788E-01 9.51696E-25
7.90351E-01 9.29945E-25
7.93893E-01 9.08594E-25
7.97411E-01 8.87634E-25
8.00908E-01 8.67058E-25
8.04381E-01 8.46859E-25
8.07831E-01 8.27030E-25
8.11257E-01 8.07564E-25
8.14660E-01 7.88454E-25
8.18039E-01 7.69694E-25
8.21394E-01 7.51278E-25
8.24724E-01 7.33199E-25
8.28030E-01 7.15451E-25
8.31310E-01 6.98029E-25
8.34565E-01 6.80926E-25
8.37795E-01 6.64138E-25
8.40999E-01 6.47658E-25
8.44177E-01 6.31481E-25
8.47329E-01 6.15603E-25
8.50455E-01 6.00017E-25
8.53553E-01 5.84719E-25
8.56625E-01 5.69705E-25
8.59670E-01 5.54969E-25
8.62687E-01 5.40507E-25
8.65677E-01 5.26314E-25
8.68639E-01 5.12386E-25
8.71572E-01 4.98718E-25
8.74478E-01 4.85308E-25
8.77355E-01 4.72149E-25
8.80203E-01 4.59239E-25
8.83022E-01 4.46573E-25
8.85812E-01 4.34148E-25
8.88573E-01 4.21960E-25
8.91304E-01 4.10005E-25
8.94005E-01 3.98280E-25
8.96677E-01 3.86781E-25
8.99318E-01 3.75505E-25
9.01928E-01 3.64449E-25
9.04508E-01 3.53609E-25
9.07058E-01 3.42982E-25
9.09576E-01 3.32566E-25
9.12063E-01 3.22357E-25
9.14519E-01 3.12352E-25
9.16943E-01 3.02549E-25
9.19335E-01 2.92945E-25
9.21696E-01 2.83536E-25
9.24024E-01 2.74321E-25
9.26320E-01 2.65297E-25
9.28584E-01 2.56461E-25
9.30815E-01 2.47811E-25
9.33013E-01 2.39344E-25
9.35178E-01 2.31058E-25
9.37310E-01 2.22951E-25
9.39409E-01 2.15021E-25
9.41474E-01 2.07266E-25
9.43505E-01 1.99682E-25
9.45503E-01 1.92269E-25
9.47467E-01 1.85025E-25
9.49397E-01 1.77947E-25
9.51293E-01 1.71033E-25
9.53154E-01 1.64282E-25
9.54981E-01 1.57691E-25
9.56773E-01 1.51260E-25
9.58530E-01 1.44987E-25
9.60252E-01 1.38869E-25
9.61940E-01 1.32905E-25
9.63592E-01 1.27093E-25
9.65209E-01 1.21433E-25
9.66790E-01 1.15923E-25
9.68336E-01 1.10560E-25
9.69846E-01 1.05345E-25
9.71321E-01 1.00275E-25
9.72759E-01 9.53487E-26
9.74162E-01 9.05655E-26
9.75528E-01 8.59241E-26
9.76858E-01 8.14230E-26
9.78152E-01 7.70613E-26
9.79410E-01 7.28378E-26
9.80631E-01 6.87514E-26
9.81815E-01 6.48011E-26
9.82963E-01 6.09860E-26
9.84074E-01 5.73049E-26
9.85148E-01 5.37571E-26
9.86185E-01 5.03416E-26
9.87185E-01 4.70575E-26
9.88148E-01 4.39041E-26
9.89074E-01 4.08805E-26
9.89962E-01 3.79860E-26
9.90814E-01 3.52199E-26
9.91627E-01 3.25815E-26
9.92404E-01 3.00701E-26
9.93143E-01 2.76852E-26
9.93844E-01 2.54260E-26
9.94508E-01 2.32921E-26
9.95134E-01 2.12829E-26
9.95722E-01 1.93980E-26
9.96273E-01 1.76368E-26
9.96786E-01 1.59990E-26
9.97261E-01 1.44840E-26
9.97698E-01 1.30917E-26
9.98097E-01 1.18215E-26
9.98459E-01 1.06733E-26
9.98782E-01 9.64669E-27
9.99067E-01 8.74145E-27
9.99315E-01 7.95735E-27
9.99524E-01 7.29421E-27
9.99695E-01 6.75186E-27
9.99829E-01 6.33017E-27
9.99924E-01 6.02903E-27
9.99981E-01 5.84838E-27
1.00000E+00 5.78817E-27
