 #
 # Subroutine ELSEPA. Elastic scattering of electrons and positrons
 #                    by neutral atoms and positive ions
 #
 # Projectile: electron
 # Kinetic energy = 7.00000E+08 eV = 2.57245E+07 a.u.
 #
 # WARNING: High-energy factorization with free-atom DF screening.
 #          Absorption, polarization and exchange corrections are
 #          switched off.
 #          Phase shifts are calculated for the bare nucleus.
 #          Scattering amplitudes are not evaluated.
 #
 # Element: Pb,  Z =  82,  atomic weight = 2.07200E+02 g/mol
 #
 # Nuclear model: Fermi distribution
 #                Average radius = 6.33160E-13 cm
 #                Skin thickness = 5.46000E-14 cm
 #
 # Number of electrons = 82
 #
 # Total elastic cross section = 8.59139E-18 cm**2 = 3.06804E-01 a0**2
 # 1st transport cross section = 2.56671E-26 cm**2 = 9.16588E-10 a0**2
 # 2nd transport cross section = 7.69860E-26 cm**2 = 2.74922E-09 a0**2
 #
 #
 # Differential cross section:                       MU=(1-COS(THETA))/2
 #
 #  THETA        MU          DCS          DCS        Sherman      error
 #  (deg)                 (cm**2/sr)   (a0**2/sr)    function
 #----------------------------------------------------------------------
0.00000E+00 3.03529E-08
7.61557E-13 2.69910E-08
1.18994E-12 2.53837E-08
1.71346E-12 2.36462E-08
2.33225E-12 2.18603E-08
3.04617E-12 2.00854E-08
3.85530E-12 1.83751E-08
4.75964E-12 1.67640E-08
5.75917E-12 1.52693E-08
6.85391E-12 1.38938E-08
8.04379E-12 1.26446E-08
9.32893E-12 1.15165E-08
1.07092E-11 1.04987E-08
1.21847E-11 9.58262E-09
1.37554E-11 8.76110E-09
1.54213E-11 8.02423E-09
1.71823E-11 7.35937E-09
1.90386E-11 6.76172E-09
2.09900E-11 6.22384E-09
2.30367E-11 5.73799E-09
2.51785E-11 5.29737E-09
2.74156E-11 4.89860E-09
2.97478E-11 4.53693E-09
3.21752E-11 4.20698E-09
3.46979E-11 3.90609E-09
3.73157E-11 3.63165E-09
4.00286E-11 3.38074E-09
4.28368E-11 3.14996E-09
4.57402E-11 2.93843E-09
4.87388E-11 2.73238E-09
5.18325E-11 2.54164E-09
5.50215E-11 2.37107E-09
5.83057E-11 2.21810E-09
6.16850E-11 2.08052E-09
6.51595E-11 1.95644E-09
6.87293E-11 1.84424E-09
7.23943E-11 1.74252E-09
7.61544E-11 1.63447E-09
1.18991E-10 9.20813E-10
1.71347E-10 5.58493E-10
2.33223E-10 3.59956E-10
3.04617E-10 2.42761E-10
3.85531E-10 1.70157E-10
4.75965E-10 1.22958E-10
5.75917E-10 9.09465E-11
6.85389E-10 6.84435E-11
8.04380E-10 5.24030E-11
9.32891E-10 4.07416E-11
1.07092E-09 3.21066E-11
1.21847E-09 2.56313E-11
1.37554E-09 2.06965E-11
1.54213E-09 1.69117E-11
1.71823E-09 1.39654E-11
1.90386E-09 1.16448E-11
2.09900E-09 9.79313E-12
2.30367E-09 8.29788E-12
2.51785E-09 7.07821E-12
2.74156E-09 6.07682E-12
2.97478E-09 5.24839E-12
3.21752E-09 4.55732E-12
3.46978E-09 3.97710E-12
3.73156E-09 3.48688E-12
4.00286E-09 3.07007E-12
4.28368E-09 2.71334E-12
4.57402E-09 2.40706E-12
4.87388E-09 2.14164E-12
5.18326E-09 1.91240E-12
5.50215E-09 1.71438E-12
5.83057E-09 1.54076E-12
6.16850E-09 1.38811E-12
6.51596E-09 1.25468E-12
6.87293E-09 1.13681E-12
7.23942E-09 1.03196E-12
7.61544E-09 9.39386E-13
1.18991E-08 4.07126E-13
1.71347E-08 2.03710E-13
2.33223E-08 1.12845E-13
3.04617E-08 6.74689E-14
3.85531E-08 4.27956E-14
4.75965E-08 2.84476E-14
5.75917E-08 1.96405E-14
6.85389E-08 1.39915E-14
8.04380E-08 1.02335E-14
9.32891E-08 7.65527E-15
1.07092E-07 5.83930E-15
1.21847E-07 4.53065E-15
1.37554E-07 3.56854E-15
1.54213E-07 2.84861E-15
1.71823E-07 2.30132E-15
1.90386E-07 1.87934E-15
2.09900E-07 1.54977E-15
2.30367E-07 1.28938E-15
2.51785E-07 1.08146E-15
2.74156E-07 9.13818E-16
2.97478E-07 7.77446E-16
3.21752E-07 6.65597E-16
3.46978E-07 5.73164E-16
3.73156E-07 4.96239E-16
4.00286E-07 4.31801E-16
4.28368E-07 3.77494E-16
4.57402E-07 3.31465E-16
4.87388E-07 2.92244E-16
5.18325E-07 2.58657E-16
5.50215E-07 2.29761E-16
5.83057E-07 2.04790E-16
6.16850E-07 1.83123E-16
6.51596E-07 1.64246E-16
6.87293E-07 1.47740E-16
7.23942E-07 1.33257E-16
7.61543E-07 1.20506E-16
1.18991E-06 4.96227E-17
1.71347E-06 2.40124E-17
2.33223E-06 1.29913E-17
3.04617E-06 7.62781E-18
3.85531E-06 4.76786E-18
4.75964E-06 3.13116E-18
5.75916E-06 2.14025E-18
6.85388E-06 1.51210E-18
8.04378E-06 1.09841E-18
9.32888E-06 8.17002E-19
1.07092E-05 6.20220E-19
1.21846E-05 4.79280E-19
1.37553E-05 3.76199E-19
1.54212E-05 2.99404E-19
1.71822E-05 2.41245E-19
1.90385E-05 1.96428E-19
2.09899E-05 1.61765E-19
2.30365E-05 1.34397E-19
2.51783E-05 1.12544E-19
2.74153E-05 9.49321E-20
2.97475E-05 8.06220E-20
3.21749E-05 6.89098E-20
3.46974E-05 5.92562E-20
3.73152E-05 5.12437E-20
4.00281E-05 4.45472E-20
4.28362E-05 3.89127E-20
4.57395E-05 3.41417E-20
4.87380E-05 3.00789E-20
5.18317E-05 2.66015E-20
5.50205E-05 2.36122E-20
5.83045E-05 2.10295E-20
6.16838E-05 1.87906E-20
6.51582E-05 1.68426E-20
6.87277E-05 1.51413E-20
7.23925E-05 1.36501E-20
7.61524E-05 1.26358E-20
9.21439E-05 8.65224E-21
1.09658E-04 6.11975E-21
1.28695E-04 4.44763E-21
1.49255E-04 3.30706E-21
1.71338E-04 2.50763E-21
1.94942E-04 1.93382E-21
2.20070E-04 1.51340E-21
2.46720E-04 1.19975E-21
2.74892E-04 9.61988E-22
3.04586E-04 7.79173E-22
3.35803E-04 6.36818E-22
3.68542E-04 5.24691E-22
4.02802E-04 4.35461E-22
4.38585E-04 3.63788E-22
4.75889E-04 3.05725E-22
5.14715E-04 2.58324E-22
5.55063E-04 2.19350E-22
5.96931E-04 1.87098E-22
6.40321E-04 1.60248E-22
6.85233E-04 1.37771E-22
7.31665E-04 1.18860E-22
7.79618E-04 1.02873E-22
8.29092E-04 8.93001E-23
8.80086E-04 7.77289E-23
9.32601E-04 6.78274E-23
9.86636E-04 5.93251E-23
1.04219E-03 5.20001E-23
1.09927E-03 4.56705E-23
1.15786E-03 4.01853E-23
1.21797E-03 3.54193E-23
1.27961E-03 3.12679E-23
1.34276E-03 2.76436E-23
1.40743E-03 2.44725E-23
1.47362E-03 2.16924E-23
1.54133E-03 1.92504E-23
1.61056E-03 1.71016E-23
1.68131E-03 1.52078E-23
1.75357E-03 1.35360E-23
1.82735E-03 1.20581E-23
1.90265E-03 1.07500E-23
1.97947E-03 9.59046E-24
2.05780E-03 8.56160E-24
2.13765E-03 7.64765E-24
2.21902E-03 6.83495E-24
2.30190E-03 6.11161E-24
2.38630E-03 5.46724E-24
2.47222E-03 4.89277E-24
2.55965E-03 4.38022E-24
2.64859E-03 3.92262E-24
2.73905E-03 3.51382E-24
2.83103E-03 3.14840E-24
2.92452E-03 2.82161E-24
3.01952E-03 2.52920E-24
3.11604E-03 2.26747E-24
3.21407E-03 2.03311E-24
3.31362E-03 1.82317E-24
3.41468E-03 1.63508E-24
3.51725E-03 1.46650E-24
3.62133E-03 1.31539E-24
3.72692E-03 1.17991E-24
3.83403E-03 1.05843E-24
3.94265E-03 9.49495E-25
4.05278E-03 8.51798E-25
4.16442E-03 7.64178E-25
4.27757E-03 6.85595E-25
4.39223E-03 6.15119E-25
4.50840E-03 5.51916E-25
4.62608E-03 4.95239E-25
4.74527E-03 4.44419E-25
4.86597E-03 3.98856E-25
4.98817E-03 3.58011E-25
5.11188E-03 3.21401E-25
5.23711E-03 2.88591E-25
5.36383E-03 2.59193E-25
5.49207E-03 2.32856E-25
5.62181E-03 2.09265E-25
5.75306E-03 1.88139E-25
5.88581E-03 1.69222E-25
6.02007E-03 1.52287E-25
6.15583E-03 1.37129E-25
6.29310E-03 1.23562E-25
6.43187E-03 1.11422E-25
6.57214E-03 1.00560E-25
6.71392E-03 9.08409E-26
6.85720E-03 8.21457E-26
7.00198E-03 7.43662E-26
7.14827E-03 6.74053E-26
7.29605E-03 6.11762E-26
7.44534E-03 5.56007E-26
7.59612E-03 5.06090E-26
7.97965E-03 4.02873E-26
8.37255E-03 3.24241E-26
8.77480E-03 2.64020E-26
9.18641E-03 2.17548E-26
9.60736E-03 1.81328E-26
1.00376E-02 1.52746E-26
1.04773E-02 1.29861E-26
1.09262E-02 1.11240E-26
1.13844E-02 9.58352E-27
1.18520E-02 8.28817E-27
1.23288E-02 7.18269E-27
1.28150E-02 6.22728E-27
1.33104E-02 5.39337E-27
1.38150E-02 4.66039E-27
1.43290E-02 4.01342E-27
1.48521E-02 3.44142E-27
1.53845E-02 2.93600E-27
1.59262E-02 2.49051E-27
1.64770E-02 2.09942E-27
1.70371E-02 1.75790E-27
1.76063E-02 1.46157E-27
1.81848E-02 1.20631E-27
1.87724E-02 9.88197E-28
1.93692E-02 8.03466E-28
1.99751E-02 6.48483E-28
2.05901E-02 5.19777E-28
2.12143E-02 4.14050E-28
2.18476E-02 3.28204E-28
2.24900E-02 2.59364E-28
2.31415E-02 2.04891E-28
2.38021E-02 1.62395E-28
2.44717E-02 1.29742E-28
2.51504E-02 1.05048E-28
2.58382E-02 8.66784E-29
2.65349E-02 7.32334E-29
2.72407E-02 6.35333E-29
2.79555E-02 5.66019E-29
2.86793E-02 5.16466E-29
2.94120E-02 4.80378E-29
3.01537E-02 4.52882E-29
3.09043E-02 4.30326E-29
3.16639E-02 4.10083E-29
3.24324E-02 3.90369E-29
3.32098E-02 3.70078E-29
3.39961E-02 3.48631E-29
3.47912E-02 3.25844E-29
3.55952E-02 3.01822E-29
3.64081E-02 2.76857E-29
3.72297E-02 2.51357E-29
3.80602E-02 2.25780E-29
3.88995E-02 2.00588E-29
3.97476E-02 1.76216E-29
4.06044E-02 1.53042E-29
4.14700E-02 1.31377E-29
4.23443E-02 1.11457E-29
4.32273E-02 9.34400E-30
4.41190E-02 7.74117E-30
4.50194E-02 6.33900E-30
4.59284E-02 5.13347E-30
4.68461E-02 4.11571E-30
4.87074E-02 2.59009E-30
5.06030E-02 1.63321E-30
5.25328E-02 1.10028E-30
5.44967E-02 8.52908E-31
5.64946E-02 7.73493E-31
5.85262E-02 7.72205E-31
6.05914E-02 7.88058E-31
6.26901E-02 7.85880E-31
6.48222E-02 7.50979E-31
6.69873E-02 6.82998E-31
6.91854E-02 5.90082E-31
7.14163E-02 4.84016E-31
7.36799E-02 3.76673E-31
7.59760E-02 2.77789E-31
7.83043E-02 1.93905E-31
8.06647E-02 1.28206E-31
8.30571E-02 8.09633E-32
8.54812E-02 5.02972E-32
8.79369E-02 3.30294E-32
9.04240E-02 2.54722E-32
9.29422E-02 2.40507E-32
9.54915E-02 2.57214E-32
9.80716E-02 2.81912E-32
1.00682E-01 2.99672E-32
1.03323E-01 3.02831E-32
1.05995E-01 2.89521E-32
1.08696E-01 2.61880E-32
1.11427E-01 2.24304E-32
1.14188E-01 1.81959E-32
1.16978E-01 1.39680E-32
1.19797E-01 1.01284E-32
1.22645E-01 6.92516E-33
1.25522E-01 4.47224E-33
1.28428E-01 2.76831E-33
1.31361E-01 1.72754E-33
1.34323E-01 1.21345E-33
1.37313E-01 1.07034E-33
1.40330E-01 1.14835E-33
1.43375E-01 1.32068E-33
1.46447E-01 1.49271E-33
1.49545E-01 1.60434E-33
1.52671E-01 1.62701E-33
1.55823E-01 1.55750E-33
1.59001E-01 1.41021E-33
1.62205E-01 1.20946E-33
1.65435E-01 9.82754E-34
1.68690E-01 7.55651E-34
1.71970E-01 5.48507E-34
1.75276E-01 3.74879E-34
1.78606E-01 2.41372E-34
1.81961E-01 1.48503E-34
1.85340E-01 9.21640E-35
1.88743E-01 6.53245E-35
1.92169E-01 5.96544E-35
1.95619E-01 6.68863E-35
1.99092E-01 7.98017E-35
2.02589E-01 9.28161E-35
2.06107E-01 1.02198E-34
2.09649E-01 1.05994E-34
2.13212E-01 1.03754E-34
2.16797E-01 9.61383E-35
2.20404E-01 8.45029E-35
2.24032E-01 7.05077E-35
2.27680E-01 5.58005E-35
2.31350E-01 4.17908E-35
2.35040E-01 2.95189E-35
2.38751E-01 1.96095E-35
2.42481E-01 1.22925E-35
2.46231E-01 7.46928E-36
2.50000E-01 4.80425E-36
2.53788E-01 3.82207E-36
2.57595E-01 3.99774E-36
2.61421E-01 4.82944E-36
2.65264E-01 5.88991E-36
2.69126E-01 6.85567E-36
2.73005E-01 7.51627E-36
2.76901E-01 7.76794E-36
2.80814E-01 7.59616E-36
2.84744E-01 7.05254E-36
2.88691E-01 6.22997E-36
2.92653E-01 5.23958E-36
2.96632E-01 4.19177E-36
3.00625E-01 3.18233E-36
3.04634E-01 2.28405E-36
3.08658E-01 1.54333E-36
3.12697E-01 9.80795E-37
3.16749E-01 5.94900E-37
3.20816E-01 3.67187E-37
3.24896E-01 2.68270E-37
3.28990E-01 2.63574E-37
3.33097E-01 3.18268E-37
3.37216E-01 4.01015E-37
3.41348E-01 4.86396E-37
3.45492E-01 5.56110E-37
3.49647E-01 5.99077E-37
3.53814E-01 6.10737E-37
3.57992E-01 5.91835E-37
3.62181E-01 5.46932E-37
3.66381E-01 4.82887E-37
3.70590E-01 4.07481E-37
3.74810E-01 3.28295E-37
3.79039E-01 2.51894E-37
3.83277E-01 1.83321E-37
3.87524E-01 1.00000E-45
3.91780E-01 1.00000E-45
3.96044E-01 1.00000E-45
4.00316E-01 1.00000E-45
4.04596E-01 1.00000E-45
4.08882E-01 1.00000E-45
4.13176E-01 1.00000E-45
4.17476E-01 1.00000E-45
4.21783E-01 1.00000E-45
4.26095E-01 1.00000E-45
4.30413E-01 1.00000E-45
4.34737E-01 1.00000E-45
4.39065E-01 1.00000E-45
4.43398E-01 1.00000E-45
4.47736E-01 1.00000E-45
4.52077E-01 1.00000E-45
4.56422E-01 1.00000E-45
4.60770E-01 1.00000E-45
4.65122E-01 1.00000E-45
4.69476E-01 1.00000E-45
4.73832E-01 1.00000E-45
4.78190E-01 1.00000E-45
4.82550E-01 1.00000E-45
4.86912E-01 1.00000E-45
4.91274E-01 1.00000E-45
4.95637E-01 1.00000E-45
5.00000E-01 1.00000E-45
5.04363E-01 1.00000E-45
5.08726E-01 1.00000E-45
5.13088E-01 1.00000E-45
5.17450E-01 1.00000E-45
5.21810E-01 1.00000E-45
5.26168E-01 1.00000E-45
5.30524E-01 1.00000E-45
5.34878E-01 1.00000E-45
5.39230E-01 1.00000E-45
5.43578E-01 1.00000E-45
5.47923E-01 1.00000E-45
5.52264E-01 1.00000E-45
5.56602E-01 1.00000E-45
5.60935E-01 1.00000E-45
5.65263E-01 1.00000E-45
5.69587E-01 1.00000E-45
5.73905E-01 1.00000E-45
5.78217E-01 1.00000E-45
5.82524E-01 1.00000E-45
5.86824E-01 1.00000E-45
5.91118E-01 1.00000E-45
5.95404E-01 1.00000E-45
5.99684E-01 1.00000E-45
6.03956E-01 1.00000E-45
6.08220E-01 1.00000E-45
6.12476E-01 1.00000E-45
6.16723E-01 1.00000E-45
6.20961E-01 1.00000E-45
6.25190E-01 1.00000E-45
6.29410E-01 1.00000E-45
6.33619E-01 1.00000E-45
6.37819E-01 1.00000E-45
6.42008E-01 1.00000E-45
6.46186E-01 1.00000E-45
6.50353E-01 1.00000E-45
6.54508E-01 1.00000E-45
6.58652E-01 1.00000E-45
6.62784E-01 1.00000E-45
6.66903E-01 1.00000E-45
6.71010E-01 1.00000E-45
6.75104E-01 1.00000E-45
6.79184E-01 1.00000E-45
6.83251E-01 1.00000E-45
6.87303E-01 1.00000E-45
6.91342E-01 1.00000E-45
6.95366E-01 1.00000E-45
6.99375E-01 1.00000E-45
7.03368E-01 1.00000E-45
7.07347E-01 1.00000E-45
7.11309E-01 1.00000E-45
7.15256E-01 1.00000E-45
7.19186E-01 1.00000E-45
7.23099E-01 1.00000E-45
7.26995E-01 1.00000E-45
7.30874E-01 1.00000E-45
7.34736E-01 1.00000E-45
7.38579E-01 1.00000E-45
7.42405E-01 1.00000E-45
7.46212E-01 1.00000E-45
7.50000E-01 1.00000E-45
7.53769E-01 1.00000E-45
7.57519E-01 1.00000E-45
7.61249E-01 1.00000E-45
7.64960E-01 1.00000E-45
7.68650E-01 1.00000E-45
7.72320E-01 1.00000E-45
7.75968E-01 1.00000E-45
7.79596E-01 1.00000E-45
7.83203E-01 1.00000E-45
7.86788E-01 1.00000E-45
7.90351E-01 1.00000E-45
7.93893E-01 1.00000E-45
7.97411E-01 1.00000E-45
8.00908E-01 1.00000E-45
8.04381E-01 1.00000E-45
8.07831E-01 1.00000E-45
8.11257E-01 1.00000E-45
8.14660E-01 1.00000E-45
8.18039E-01 1.00000E-45
8.21394E-01 1.00000E-45
8.24724E-01 1.00000E-45
8.28030E-01 1.00000E-45
8.31310E-01 1.00000E-45
8.34565E-01 1.00000E-45
8.37795E-01 1.00000E-45
8.40999E-01 1.00000E-45
8.44177E-01 1.00000E-45
8.47329E-01 1.00000E-45
8.50455E-01 1.00000E-45
8.53553E-01 1.00000E-45
8.56625E-01 1.00000E-45
8.59670E-01 1.00000E-45
8.62687E-01 1.00000E-45
8.65677E-01 1.00000E-45
8.68639E-01 1.00000E-45
8.71572E-01 1.00000E-45
8.74478E-01 1.00000E-45
8.77355E-01 1.00000E-45
8.80203E-01 1.00000E-45
8.83022E-01 1.00000E-45
8.85812E-01 1.00000E-45
8.88573E-01 1.00000E-45
8.91304E-01 1.00000E-45
8.94005E-01 1.00000E-45
8.96677E-01 1.00000E-45
8.99318E-01 1.00000E-45
9.01928E-01 1.00000E-45
9.04508E-01 1.00000E-45
9.07058E-01 1.00000E-45
9.09576E-01 1.00000E-45
9.12063E-01 1.00000E-45
9.14519E-01 1.00000E-45
9.16943E-01 1.00000E-45
9.19335E-01 1.00000E-45
9.21696E-01 1.00000E-45
9.24024E-01 1.00000E-45
9.26320E-01 1.00000E-45
9.28584E-01 1.00000E-45
9.30815E-01 1.00000E-45
9.33013E-01 1.00000E-45
9.35178E-01 1.00000E-45
9.37310E-01 1.00000E-45
9.39409E-01 1.00000E-45
9.41474E-01 1.00000E-45
9.43505E-01 1.00000E-45
9.45503E-01 1.00000E-45
9.47467E-01 1.00000E-45
9.49397E-01 1.00000E-45
9.51293E-01 1.00000E-45
9.53154E-01 1.00000E-45
9.54981E-01 1.00000E-45
9.56773E-01 1.00000E-45
9.58530E-01 1.00000E-45
9.60252E-01 1.00000E-45
9.61940E-01 1.00000E-45
9.63592E-01 1.00000E-45
9.65209E-01 1.00000E-45
9.66790E-01 1.00000E-45
9.68336E-01 1.00000E-45
9.69846E-01 1.00000E-45
9.71321E-01 1.00000E-45
9.72759E-01 1.00000E-45
9.74162E-01 1.00000E-45
9.75528E-01 1.00000E-45
9.76858E-01 1.00000E-45
9.78152E-01 1.00000E-45
9.79410E-01 1.00000E-45
9.80631E-01 1.00000E-45
9.81815E-01 1.00000E-45
9.82963E-01 1.00000E-45
9.84074E-01 1.00000E-45
9.85148E-01 1.00000E-45
9.86185E-01 1.00000E-45
9.87185E-01 1.00000E-45
9.88148E-01 1.00000E-45
9.89074E-01 1.00000E-45
9.89962E-01 1.00000E-45
9.90814E-01 1.00000E-45
9.91627E-01 1.00000E-45
9.92404E-01 1.00000E-45
9.93143E-01 1.00000E-45
9.93844E-01 1.00000E-45
9.94508E-01 1.00000E-45
9.95134E-01 1.00000E-45
9.95722E-01 1.00000E-45
9.96273E-01 1.00000E-45
9.96786E-01 1.00000E-45
9.97261E-01 1.00000E-45
9.97698E-01 1.00000E-45
9.98097E-01 1.00000E-45
9.98459E-01 1.00000E-45
9.98782E-01 1.00000E-45
9.99067E-01 1.00000E-45
9.99315E-01 1.00000E-45
9.99524E-01 1.00000E-45
9.99695E-01 1.00000E-45
9.99829E-01 1.00000E-45
9.99924E-01 1.00000E-45
9.99981E-01 1.00000E-45
1.00000E+00 1.00000E-45
