 #
 # Subroutine ELSEPA. Elastic scattering of electrons and positrons
 #                    by neutral atoms and positive ions
 #
 # Projectile: electron
 # Kinetic energy = 4.00000E+06 eV = 1.46997E+05 a.u.
 #
 # WARNING: High-energy factorization with free-atom DF screening.
 #          Absorption, polarization and exchange corrections are
 #          switched off.
 #          Phase shifts are calculated for the bare nucleus.
 #          Scattering amplitudes are not evaluated.
 #
 # Element: Pb,  Z =  82,  atomic weight = 2.07200E+02 g/mol
 #
 # Nuclear model: Fermi distribution
 #                Average radius = 6.33160E-13 cm
 #                Skin thickness = 5.46000E-14 cm
 #
 # Number of electrons = 82
 #
 # Total elastic cross section = 8.73121E-18 cm**2 = 3.11797E-01 a0**2
 # 1st transport cross section = 5.49644E-22 cm**2 = 1.96281E-05 a0**2
 # 2nd transport cross section = 1.46120E-21 cm**2 = 5.21804E-05 a0**2
 #
 #
 # Differential cross section:                       MU=(1-COS(THETA))/2
 #
 #  THETA        MU          DCS          DCS        Sherman      error
 #  (deg)                 (cm**2/sr)   (a0**2/sr)    function
 #----------------------------------------------------------------------
0.00000E+00 1.25868E-12
7.61557E-13 1.25867E-12
1.18994E-12 1.25867E-12
1.71346E-12 1.25867E-12
2.33225E-12 1.25866E-12
3.04617E-12 1.25866E-12
3.85530E-12 1.25865E-12
4.75964E-12 1.25864E-12
5.75917E-12 1.25863E-12
6.85391E-12 1.25862E-12
8.04379E-12 1.25861E-12
9.32893E-12 1.25860E-12
1.07092E-11 1.25859E-12
1.21847E-11 1.25858E-12
1.37554E-11 1.25857E-12
1.54213E-11 1.25855E-12
1.71823E-11 1.25854E-12
1.90386E-11 1.25852E-12
2.09900E-11 1.25851E-12
2.30367E-11 1.25849E-12
2.51785E-11 1.25847E-12
2.74156E-11 1.25845E-12
2.97478E-11 1.25843E-12
3.21752E-11 1.25841E-12
3.46979E-11 1.25839E-12
3.73157E-11 1.25837E-12
4.00286E-11 1.25835E-12
4.28368E-11 1.25833E-12
4.57402E-11 1.25830E-12
4.87388E-11 1.25828E-12
5.18325E-11 1.25825E-12
5.50215E-11 1.25822E-12
5.83057E-11 1.25820E-12
6.16850E-11 1.25817E-12
6.51595E-11 1.25814E-12
6.87293E-11 1.25811E-12
7.23943E-11 1.25808E-12
7.61544E-11 1.25805E-12
1.18991E-10 1.25769E-12
1.71347E-10 1.25726E-12
2.33223E-10 1.25674E-12
3.04617E-10 1.25615E-12
3.85531E-10 1.25548E-12
4.75965E-10 1.25473E-12
5.75917E-10 1.25391E-12
6.85389E-10 1.25300E-12
8.04380E-10 1.25202E-12
9.32891E-10 1.25096E-12
1.07092E-09 1.24983E-12
1.21847E-09 1.24862E-12
1.37554E-09 1.24733E-12
1.54213E-09 1.24597E-12
1.71823E-09 1.24453E-12
1.90386E-09 1.24302E-12
2.09900E-09 1.24143E-12
2.30367E-09 1.23977E-12
2.51785E-09 1.23804E-12
2.74156E-09 1.23624E-12
2.97478E-09 1.23436E-12
3.21752E-09 1.23241E-12
3.46978E-09 1.23039E-12
3.73156E-09 1.22831E-12
4.00286E-09 1.22615E-12
4.28368E-09 1.22392E-12
4.57402E-09 1.22163E-12
4.87388E-09 1.21927E-12
5.18326E-09 1.21684E-12
5.50215E-09 1.21435E-12
5.83057E-09 1.21179E-12
6.16850E-09 1.20917E-12
6.51596E-09 1.20649E-12
6.87293E-09 1.20374E-12
7.23942E-09 1.20094E-12
7.61544E-09 1.19807E-12
1.18991E-08 1.16623E-12
1.71347E-08 1.12937E-12
2.33223E-08 1.08841E-12
3.04617E-08 1.04444E-12
3.85531E-08 9.98450E-13
4.75965E-08 9.51345E-13
5.75917E-08 9.03904E-13
6.85389E-08 8.56585E-13
8.04380E-08 8.10176E-13
9.32891E-08 7.65121E-13
1.07092E-07 7.21747E-13
1.21847E-07 6.80279E-13
1.37554E-07 6.40723E-13
1.54213E-07 6.03224E-13
1.71823E-07 5.67888E-13
1.90386E-07 5.34691E-13
2.09900E-07 5.03575E-13
2.30367E-07 4.74434E-13
2.51785E-07 4.47076E-13
2.74156E-07 4.21542E-13
2.97478E-07 3.97721E-13
3.21752E-07 3.75505E-13
3.46978E-07 3.54785E-13
3.73156E-07 3.35376E-13
4.00286E-07 3.17237E-13
4.28368E-07 3.00306E-13
4.57402E-07 2.84493E-13
4.87388E-07 2.69713E-13
5.18325E-07 2.55868E-13
5.50215E-07 2.42853E-13
5.83057E-07 2.30663E-13
6.16850E-07 2.19236E-13
6.51596E-07 2.08516E-13
6.87293E-07 1.98448E-13
7.23942E-07 1.88943E-13
7.61543E-07 1.79994E-13
1.18991E-06 1.13488E-13
1.71347E-06 7.48696E-14
2.33223E-06 5.09650E-14
3.04617E-06 3.58992E-14
3.85531E-06 2.60324E-14
4.75964E-06 1.93653E-14
5.75916E-06 1.47305E-14
6.85388E-06 1.13968E-14
8.04378E-06 8.97698E-15
9.32888E-06 7.17727E-15
1.07092E-05 5.81071E-15
1.21846E-05 4.75445E-15
1.37553E-05 3.92092E-15
1.54212E-05 3.25832E-15
1.71822E-05 2.72824E-15
1.90385E-05 2.29871E-15
2.09899E-05 1.95179E-15
2.30365E-05 1.66640E-15
2.51783E-05 1.42947E-15
2.74153E-05 1.23326E-15
2.97475E-05 1.06904E-15
3.21749E-05 9.30925E-16
3.46974E-05 8.14784E-16
3.73152E-05 7.16519E-16
4.00281E-05 6.33006E-16
4.28362E-05 5.61616E-16
4.57395E-05 5.00205E-16
4.87380E-05 4.47075E-16
5.18317E-05 4.00850E-16
5.50205E-05 3.60425E-16
5.83045E-05 3.25014E-16
6.16838E-05 2.93895E-16
6.51582E-05 2.66464E-16
6.87277E-05 2.42207E-16
7.23925E-05 2.20663E-16
7.61524E-05 2.01486E-16
9.21439E-05 1.42923E-16
1.09658E-04 1.04186E-16
1.28695E-04 7.76854E-17
1.49255E-04 5.91686E-17
1.71338E-04 4.58722E-17
1.94942E-04 3.61180E-17
2.20070E-04 2.88182E-17
2.46720E-04 2.32723E-17
2.74892E-04 1.90014E-17
3.04586E-04 1.56678E-17
3.35803E-04 1.30347E-17
3.68542E-04 1.09315E-17
4.02802E-04 9.23386E-18
4.38585E-04 7.85390E-18
4.75889E-04 6.72271E-18
5.14715E-04 5.78842E-18
5.55063E-04 5.01125E-18
5.96931E-04 4.36012E-18
6.40321E-04 3.81160E-18
6.85233E-04 3.34703E-18
7.31665E-04 2.95142E-18
7.79618E-04 2.61277E-18
8.29092E-04 2.32150E-18
8.80086E-04 2.06974E-18
9.32601E-04 1.85135E-18
9.86636E-04 1.66115E-18
1.04219E-03 1.49485E-18
1.09927E-03 1.34893E-18
1.15786E-03 1.22039E-18
1.21797E-03 1.10685E-18
1.27961E-03 1.00626E-18
1.34276E-03 9.16874E-19
1.40743E-03 8.37231E-19
1.47362E-03 7.66060E-19
1.54133E-03 7.02298E-19
1.61056E-03 6.45051E-19
1.68131E-03 5.93537E-19
1.75357E-03 5.47078E-19
1.82735E-03 5.05088E-19
1.90265E-03 4.67048E-19
1.97947E-03 4.32531E-19
2.05780E-03 4.01153E-19
2.13765E-03 3.72578E-19
2.21902E-03 3.46510E-19
2.30190E-03 3.22685E-19
2.38630E-03 3.00876E-19
2.47222E-03 2.80885E-19
2.55965E-03 2.62533E-19
2.64859E-03 2.45660E-19
2.73905E-03 2.30127E-19
2.83103E-03 2.15803E-19
2.92452E-03 2.02581E-19
3.01952E-03 1.90361E-19
3.11604E-03 1.79053E-19
3.21407E-03 1.68575E-19
3.31362E-03 1.58856E-19
3.41468E-03 1.49830E-19
3.51725E-03 1.41440E-19
3.62133E-03 1.33632E-19
3.72692E-03 1.26358E-19
3.83403E-03 1.19576E-19
3.94265E-03 1.13244E-19
4.05278E-03 1.07329E-19
4.16442E-03 1.01797E-19
4.27757E-03 9.66200E-20
4.39223E-03 9.17701E-20
4.50840E-03 8.72225E-20
4.62608E-03 8.29551E-20
4.74527E-03 7.89475E-20
4.86597E-03 7.51810E-20
4.98817E-03 7.16383E-20
5.11188E-03 6.83034E-20
5.23711E-03 6.51619E-20
5.36383E-03 6.22004E-20
5.49207E-03 5.94069E-20
5.62181E-03 5.67699E-20
5.75306E-03 5.42790E-20
5.88581E-03 5.19243E-20
6.02007E-03 4.96973E-20
6.15583E-03 4.75895E-20
6.29310E-03 4.55935E-20
6.43187E-03 4.37022E-20
6.57214E-03 4.19089E-20
6.71392E-03 4.02076E-20
6.85720E-03 3.85928E-20
7.00198E-03 3.70591E-20
7.14827E-03 3.56018E-20
7.29605E-03 3.42163E-20
7.44534E-03 3.28982E-20
7.59612E-03 3.16438E-20
7.97965E-03 2.87628E-20
8.37255E-03 2.62062E-20
8.77480E-03 2.39310E-20
9.18641E-03 2.19006E-20
9.60736E-03 2.00840E-20
1.00376E-02 1.84546E-20
1.04773E-02 1.69895E-20
1.09262E-02 1.56692E-20
1.13844E-02 1.44768E-20
1.18520E-02 1.33974E-20
1.23288E-02 1.24186E-20
1.28150E-02 1.15291E-20
1.33104E-02 1.07194E-20
1.38150E-02 9.98083E-21
1.43290E-02 9.30603E-21
1.48521E-02 8.68844E-21
1.53845E-02 8.12232E-21
1.59262E-02 7.60258E-21
1.64770E-02 7.12468E-21
1.70371E-02 6.68460E-21
1.76063E-02 6.27875E-21
1.81848E-02 5.90400E-21
1.87724E-02 5.55750E-21
1.93692E-02 5.23670E-21
1.99751E-02 4.93933E-21
2.05901E-02 4.66332E-21
2.12143E-02 4.40686E-21
2.18476E-02 4.16829E-21
2.24900E-02 3.94612E-21
2.31415E-02 3.73900E-21
2.38021E-02 3.54570E-21
2.44717E-02 3.36512E-21
2.51504E-02 3.19626E-21
2.58382E-02 3.03820E-21
2.65349E-02 2.89012E-21
2.72407E-02 2.75126E-21
2.79555E-02 2.62093E-21
2.86793E-02 2.49849E-21
2.94120E-02 2.38338E-21
3.01537E-02 2.27507E-21
3.09043E-02 2.17308E-21
3.16639E-02 2.07695E-21
3.24324E-02 1.98629E-21
3.32098E-02 1.90072E-21
3.39961E-02 1.81989E-21
3.47912E-02 1.74349E-21
3.55952E-02 1.67123E-21
3.64081E-02 1.60282E-21
3.72297E-02 1.53804E-21
3.80602E-02 1.47663E-21
3.88995E-02 1.41840E-21
3.97476E-02 1.36314E-21
4.06044E-02 1.31067E-21
4.14700E-02 1.26081E-21
4.23443E-02 1.21342E-21
4.32273E-02 1.16834E-21
4.41190E-02 1.12543E-21
4.50194E-02 1.08457E-21
4.59284E-02 1.04564E-21
4.68461E-02 1.00853E-21
4.87074E-02 9.39361E-22
5.06030E-02 8.76312E-22
5.25328E-02 8.18732E-22
5.44967E-02 7.66049E-22
5.64946E-02 7.17759E-22
5.85262E-02 6.73419E-22
6.05914E-02 6.32639E-22
6.26901E-02 5.95071E-22
6.48222E-02 5.60410E-22
6.69873E-02 5.28381E-22
6.91854E-02 4.98742E-22
7.14163E-02 4.71275E-22
7.36799E-02 4.45787E-22
7.59760E-02 4.22105E-22
7.83043E-02 4.00071E-22
8.06647E-02 3.79545E-22
8.30571E-02 3.60402E-22
8.54812E-02 3.42528E-22
8.79369E-02 3.25819E-22
9.04240E-02 3.10182E-22
9.29422E-02 2.95533E-22
9.54915E-02 2.81795E-22
9.80716E-02 2.68898E-22
1.00682E-01 2.56779E-22
1.03323E-01 2.45381E-22
1.05995E-01 2.34650E-22
1.08696E-01 2.24538E-22
1.11427E-01 2.15001E-22
1.14188E-01 2.05999E-22
1.16978E-01 1.97494E-22
1.19797E-01 1.89453E-22
1.22645E-01 1.81844E-22
1.25522E-01 1.74639E-22
1.28428E-01 1.67810E-22
1.31361E-01 1.61334E-22
1.34323E-01 1.55188E-22
1.37313E-01 1.49351E-22
1.40330E-01 1.43803E-22
1.43375E-01 1.38527E-22
1.46447E-01 1.33506E-22
1.49545E-01 1.28725E-22
1.52671E-01 1.24169E-22
1.55823E-01 1.19826E-22
1.59001E-01 1.15683E-22
1.62205E-01 1.11727E-22
1.65435E-01 1.07950E-22
1.68690E-01 1.04340E-22
1.71970E-01 1.00889E-22
1.75276E-01 9.75871E-23
1.78606E-01 9.44269E-23
1.81961E-01 9.14006E-23
1.85340E-01 8.85012E-23
1.88743E-01 8.57219E-23
1.92169E-01 8.30565E-23
1.95619E-01 8.04992E-23
1.99092E-01 7.80444E-23
2.02589E-01 7.56870E-23
2.06107E-01 7.34222E-23
2.09649E-01 7.12452E-23
2.13212E-01 6.91520E-23
2.16797E-01 6.71383E-23
2.20404E-01 6.52004E-23
2.24032E-01 6.33348E-23
2.27680E-01 6.15379E-23
2.31350E-01 5.98068E-23
2.35040E-01 5.81382E-23
2.38751E-01 5.65294E-23
2.42481E-01 5.49776E-23
2.46231E-01 5.34803E-23
2.50000E-01 5.20351E-23
2.53788E-01 5.06397E-23
2.57595E-01 4.92920E-23
2.61421E-01 4.79898E-23
2.65264E-01 4.67313E-23
2.69126E-01 4.55146E-23
2.73005E-01 4.43380E-23
2.76901E-01 4.31997E-23
2.80814E-01 4.20982E-23
2.84744E-01 4.10320E-23
2.88691E-01 3.99997E-23
2.92653E-01 3.89999E-23
2.96632E-01 3.80313E-23
3.00625E-01 3.70927E-23
3.04634E-01 3.61830E-23
3.08658E-01 3.53010E-23
3.12697E-01 3.44456E-23
3.16749E-01 3.36158E-23
3.20816E-01 3.28106E-23
3.24896E-01 3.20292E-23
3.28990E-01 3.12706E-23
3.33097E-01 3.05341E-23
3.37216E-01 2.98187E-23
3.41348E-01 2.91238E-23
3.45492E-01 2.84486E-23
3.49647E-01 2.77924E-23
3.53814E-01 2.71545E-23
3.57992E-01 2.65342E-23
3.62181E-01 2.59310E-23
3.66381E-01 2.53443E-23
3.70590E-01 2.47735E-23
3.74810E-01 2.42180E-23
3.79039E-01 2.36774E-23
3.83277E-01 2.31511E-23
3.87524E-01 2.26387E-23
3.91780E-01 2.21397E-23
3.96044E-01 2.16537E-23
4.00316E-01 2.11802E-23
4.04596E-01 2.07188E-23
4.08882E-01 2.02692E-23
4.13176E-01 1.98309E-23
4.17476E-01 1.94036E-23
4.21783E-01 1.89870E-23
4.26095E-01 1.85808E-23
4.30413E-01 1.81846E-23
4.34737E-01 1.77980E-23
4.39065E-01 1.74209E-23
4.43398E-01 1.70528E-23
4.47736E-01 1.66936E-23
4.52077E-01 1.63430E-23
4.56422E-01 1.60007E-23
4.60770E-01 1.56665E-23
4.65122E-01 1.53401E-23
4.69476E-01 1.50214E-23
4.73832E-01 1.47100E-23
4.78190E-01 1.44058E-23
4.82550E-01 1.41086E-23
4.86912E-01 1.38181E-23
4.91274E-01 1.35342E-23
4.95637E-01 1.32567E-23
5.00000E-01 1.29854E-23
5.04363E-01 1.27202E-23
5.08726E-01 1.24608E-23
5.13088E-01 1.22072E-23
5.17450E-01 1.19592E-23
5.21810E-01 1.17165E-23
5.26168E-01 1.14791E-23
5.30524E-01 1.12468E-23
5.34878E-01 1.10196E-23
5.39230E-01 1.07971E-23
5.43578E-01 1.05795E-23
5.47923E-01 1.03664E-23
5.52264E-01 1.01578E-23
5.56602E-01 9.95362E-24
5.60935E-01 9.75366E-24
5.65263E-01 9.55786E-24
5.69587E-01 9.36610E-24
5.73905E-01 9.17829E-24
5.78217E-01 8.99433E-24
5.82524E-01 8.81412E-24
5.86824E-01 8.63758E-24
5.91118E-01 8.46461E-24
5.95404E-01 8.29512E-24
5.99684E-01 8.12903E-24
6.03956E-01 7.96625E-24
6.08220E-01 7.80671E-24
6.12476E-01 7.65032E-24
6.16723E-01 7.49703E-24
6.20961E-01 7.34674E-24
6.25190E-01 7.19940E-24
6.29410E-01 7.05493E-24
6.33619E-01 6.91327E-24
6.37819E-01 6.77435E-24
6.42008E-01 6.63811E-24
6.46186E-01 6.50449E-24
6.50353E-01 6.37343E-24
6.54508E-01 6.24486E-24
6.58652E-01 6.11875E-24
6.62784E-01 5.99502E-24
6.66903E-01 5.87363E-24
6.71010E-01 5.75453E-24
6.75104E-01 5.63767E-24
6.79184E-01 5.52299E-24
6.83251E-01 5.41046E-24
6.87303E-01 5.30002E-24
6.91342E-01 5.19163E-24
6.95366E-01 5.08525E-24
6.99375E-01 4.98083E-24
7.03368E-01 4.87834E-24
7.07347E-01 4.77772E-24
7.11309E-01 4.67895E-24
7.15256E-01 4.58199E-24
7.19186E-01 4.48679E-24
7.23099E-01 4.39333E-24
7.26995E-01 4.30157E-24
7.30874E-01 4.21146E-24
7.34736E-01 4.12299E-24
7.38579E-01 4.03611E-24
7.42405E-01 3.95080E-24
7.46212E-01 3.86703E-24
7.50000E-01 3.78475E-24
7.53769E-01 3.70396E-24
7.57519E-01 3.62461E-24
7.61249E-01 3.54667E-24
7.64960E-01 3.47013E-24
7.68650E-01 3.39495E-24
7.72320E-01 3.32112E-24
7.75968E-01 3.24860E-24
7.79596E-01 3.17736E-24
7.83203E-01 3.10740E-24
7.86788E-01 3.03867E-24
7.90351E-01 2.97116E-24
7.93893E-01 2.90485E-24
7.97411E-01 2.83972E-24
8.00908E-01 2.77574E-24
8.04381E-01 2.71289E-24
8.07831E-01 2.65116E-24
8.11257E-01 2.59052E-24
8.14660E-01 2.53096E-24
8.18039E-01 2.47245E-24
8.21394E-01 2.41498E-24
8.24724E-01 2.35853E-24
8.28030E-01 2.30308E-24
8.31310E-01 2.24862E-24
8.34565E-01 2.19513E-24
8.37795E-01 2.14259E-24
8.40999E-01 2.09098E-24
8.44177E-01 2.04030E-24
8.47329E-01 1.99052E-24
8.50455E-01 1.94164E-24
8.53553E-01 1.89363E-24
8.56625E-01 1.84649E-24
8.59670E-01 1.80019E-24
8.62687E-01 1.75473E-24
8.65677E-01 1.71010E-24
8.68639E-01 1.66628E-24
8.71572E-01 1.62325E-24
8.74478E-01 1.58101E-24
8.77355E-01 1.53954E-24
8.80203E-01 1.49884E-24
8.83022E-01 1.45888E-24
8.85812E-01 1.41967E-24
8.88573E-01 1.38119E-24
8.91304E-01 1.34342E-24
8.94005E-01 1.30636E-24
8.96677E-01 1.27000E-24
8.99318E-01 1.23433E-24
9.01928E-01 1.19934E-24
9.04508E-01 1.16502E-24
9.07058E-01 1.13136E-24
9.09576E-01 1.09835E-24
9.12063E-01 1.06598E-24
9.14519E-01 1.03424E-24
9.16943E-01 1.00314E-24
9.19335E-01 9.72647E-25
9.21696E-01 9.42767E-25
9.24024E-01 9.13489E-25
9.26320E-01 8.84806E-25
9.28584E-01 8.56710E-25
9.30815E-01 8.29194E-25
9.33013E-01 8.02251E-25
9.35178E-01 7.75875E-25
9.37310E-01 7.50058E-25
9.39409E-01 7.24795E-25
9.41474E-01 7.00078E-25
9.43505E-01 6.75902E-25
9.45503E-01 6.52261E-25
9.47467E-01 6.29148E-25
9.49397E-01 6.06559E-25
9.51293E-01 5.84487E-25
9.53154E-01 5.62928E-25
9.54981E-01 5.41875E-25
9.56773E-01 5.21325E-25
9.58530E-01 5.01271E-25
9.60252E-01 4.81709E-25
9.61940E-01 4.62634E-25
9.63592E-01 4.44042E-25
9.65209E-01 4.25928E-25
9.66790E-01 4.08288E-25
9.68336E-01 3.91118E-25
9.69846E-01 3.74413E-25
9.71321E-01 3.58170E-25
9.72759E-01 3.42385E-25
9.74162E-01 3.27053E-25
9.75528E-01 3.12172E-25
9.76858E-01 2.97738E-25
9.78152E-01 2.83748E-25
9.79410E-01 2.70198E-25
9.80631E-01 2.57085E-25
9.81815E-01 2.44406E-25
9.82963E-01 2.32158E-25
9.84074E-01 2.20338E-25
9.85148E-01 2.08944E-25
9.86185E-01 1.97973E-25
9.87185E-01 1.87423E-25
9.88148E-01 1.77290E-25
9.89074E-01 1.67573E-25
9.89962E-01 1.58269E-25
9.90814E-01 1.49377E-25
9.91627E-01 1.40894E-25
9.92404E-01 1.32818E-25
9.93143E-01 1.25148E-25
9.93844E-01 1.17881E-25
9.94508E-01 1.11017E-25
9.95134E-01 1.04553E-25
9.95722E-01 9.84876E-26
9.96273E-01 9.28203E-26
9.96786E-01 8.75494E-26
9.97261E-01 8.26736E-26
9.97698E-01 7.81920E-26
9.98097E-01 7.41035E-26
9.98459E-01 7.04071E-26
9.98782E-01 6.71020E-26
9.99067E-01 6.41876E-26
9.99315E-01 6.16630E-26
9.99524E-01 5.95278E-26
9.99695E-01 5.77815E-26
9.99829E-01 5.64236E-26
9.99924E-01 5.54540E-26
9.99981E-01 5.48722E-26
1.00000E+00 5.46784E-26
