 #
 # Subroutine ELSEPA. Elastic scattering of electrons and positrons
 #                    by neutral atoms and positive ions
 #
 # Projectile: electron
 # Kinetic energy = 2.00000E+08 eV = 7.34987E+06 a.u.
 #
 # WARNING: High-energy factorization with free-atom DF screening.
 #          Absorption, polarization and exchange corrections are
 #          switched off.
 #          Phase shifts are calculated for the bare nucleus.
 #          Scattering amplitudes are not evaluated.
 #
 # Element: Pb,  Z =  82,  atomic weight = 2.07200E+02 g/mol
 #
 # Nuclear model: Fermi distribution
 #                Average radius = 6.33160E-13 cm
 #                Skin thickness = 5.46000E-14 cm
 #
 # Number of electrons = 82
 #
 # Total elastic cross section = 8.60487E-18 cm**2 = 3.07286E-01 a0**2
 # 1st transport cross section = 3.15828E-25 cm**2 = 1.12784E-08 a0**2
 # 2nd transport cross section = 9.45342E-25 cm**2 = 3.37588E-08 a0**2
 #
 #
 # Differential cross section:                       MU=(1-COS(THETA))/2
 #
 #  THETA        MU          DCS          DCS        Sherman      error
 #  (deg)                 (cm**2/sr)   (a0**2/sr)    function
 #----------------------------------------------------------------------
0.00000E+00 2.48683E-09
7.61557E-13 2.46193E-09
1.18994E-12 2.44813E-09
1.71346E-12 2.43147E-09
2.33225E-12 2.41204E-09
3.04617E-12 2.38997E-09
3.85530E-12 2.36540E-09
4.75964E-12 2.33847E-09
5.75917E-12 2.30935E-09
6.85391E-12 2.27806E-09
8.04379E-12 2.24510E-09
9.32893E-12 2.21050E-09
1.07092E-11 2.17421E-09
1.21847E-11 2.13686E-09
1.37554E-11 2.09820E-09
1.54213E-11 2.05856E-09
1.71823E-11 2.01842E-09
1.90386E-11 1.97724E-09
2.09900E-11 1.93577E-09
2.30367E-11 1.89421E-09
2.51785E-11 1.85197E-09
2.74156E-11 1.81002E-09
2.97478E-11 1.76812E-09
3.21752E-11 1.72613E-09
3.46979E-11 1.68478E-09
3.73157E-11 1.64351E-09
4.00286E-11 1.60270E-09
4.28368E-11 1.56276E-09
4.57402E-11 1.52287E-09
4.87388E-11 1.48388E-09
5.18325E-11 1.44577E-09
5.50215E-11 1.40793E-09
5.83057E-11 1.37119E-09
6.16850E-11 1.33517E-09
6.51595E-11 1.29977E-09
6.87293E-11 1.26551E-09
7.23943E-11 1.23181E-09
7.61544E-11 1.19898E-09
1.18991E-10 9.16548E-10
1.71347E-10 7.06899E-10
2.33223E-10 5.52313E-10
3.04617E-10 4.37529E-10
3.85531E-10 3.50925E-10
4.75965E-10 2.84488E-10
5.75917E-10 2.32629E-10
6.85389E-10 1.89749E-10
8.04380E-10 1.58284E-10
9.32891E-10 1.33286E-10
1.07092E-09 1.11741E-10
1.21847E-09 9.52052E-11
1.37554E-09 8.12418E-11
1.54213E-09 6.95926E-11
1.71823E-09 6.03324E-11
1.90386E-09 5.22105E-11
2.09900E-09 4.55283E-11
2.30367E-09 4.00214E-11
2.51785E-09 3.51454E-11
2.74156E-09 3.11044E-11
2.97478E-09 2.76450E-11
3.21752E-09 2.46109E-11
3.46978E-09 2.20461E-11
3.73156E-09 1.97811E-11
4.00286E-09 1.78022E-11
4.28368E-09 1.61024E-11
4.57402E-09 1.45601E-11
4.87388E-09 1.32165E-11
5.18326E-09 1.20376E-11
5.50215E-09 1.09611E-11
5.83057E-09 1.00181E-11
6.16850E-09 9.17145E-12
6.51596E-09 8.40298E-12
6.87293E-09 7.72322E-12
7.23942E-09 7.10111E-12
7.61544E-09 6.53984E-12
1.18991E-08 3.09426E-12
1.71347E-08 1.63604E-12
2.33223E-08 9.48020E-13
3.04617E-08 5.89231E-13
3.85531E-08 3.86061E-13
4.75965E-08 2.63779E-13
5.75917E-08 1.86309E-13
6.85389E-08 1.35356E-13
8.04380E-08 1.00691E-13
9.32891E-08 7.64616E-14
1.07092E-07 5.91113E-14
1.21847E-07 4.64171E-14
1.37554E-07 3.69537E-14
1.54213E-07 2.97816E-14
1.71823E-07 2.42656E-14
1.90386E-07 1.99675E-14
2.09900E-07 1.65789E-14
2.30367E-07 1.38788E-14
2.51785E-07 1.17062E-14
2.74156E-07 9.94189E-15
2.97478E-07 8.49792E-15
3.21752E-07 7.30712E-15
3.46978E-07 6.31810E-15
3.73156E-07 5.49113E-15
4.00286E-07 4.79537E-15
4.28368E-07 4.20658E-15
4.57402E-07 3.70559E-15
4.87388E-07 3.27711E-15
5.18325E-07 2.90890E-15
5.50215E-07 2.59102E-15
5.83057E-07 2.31542E-15
6.16850E-07 2.07548E-15
6.51596E-07 1.86584E-15
6.87293E-07 1.68201E-15
7.23942E-07 1.52027E-15
7.61543E-07 1.37750E-15
1.18991E-06 5.75677E-16
1.71347E-06 2.81091E-16
2.33223E-06 1.53014E-16
3.04617E-06 9.02599E-17
3.85531E-06 5.66304E-17
4.75964E-06 3.73079E-17
5.75916E-06 2.55697E-17
6.85388E-06 1.81071E-17
8.04378E-06 1.31795E-17
9.32888E-06 9.82006E-18
1.07092E-05 7.46612E-18
1.21846E-05 5.77711E-18
1.37553E-05 4.53986E-18
1.54212E-05 3.61680E-18
1.71822E-05 2.91686E-18
1.90385E-05 2.37687E-18
2.09899E-05 1.95881E-18
2.30365E-05 1.62843E-18
2.51783E-05 1.36443E-18
2.74153E-05 1.15149E-18
2.97475E-05 9.78354E-19
3.21749E-05 8.36565E-19
3.46974E-05 7.19635E-19
3.73152E-05 6.22534E-19
4.00281E-05 5.41343E-19
4.28362E-05 4.73000E-19
4.57395E-05 4.15107E-19
4.87380E-05 3.65788E-19
5.18317E-05 3.23558E-19
5.50205E-05 2.87234E-19
5.83045E-05 2.55863E-19
6.16838E-05 2.28664E-19
6.51582E-05 2.04992E-19
6.87277E-05 1.84314E-19
7.23925E-05 1.66185E-19
7.61524E-05 1.50590E-19
9.21439E-05 1.03061E-19
1.09658E-04 7.29084E-20
1.28695E-04 5.30393E-20
1.49255E-04 3.95106E-20
1.71338E-04 3.00423E-20
1.94942E-04 2.32540E-20
2.20070E-04 1.82838E-20
2.46720E-04 1.45769E-20
2.74892E-04 1.17663E-20
3.04586E-04 9.60356E-21
3.35803E-04 7.91729E-21
3.68542E-04 6.58659E-21
4.02802E-04 5.52503E-21
4.38585E-04 4.66972E-21
4.75889E-04 3.97424E-21
5.14715E-04 3.40403E-21
5.55063E-04 2.93285E-21
5.96931E-04 2.54075E-21
6.40321E-04 2.21229E-21
6.85233E-04 1.93545E-21
7.31665E-04 1.70058E-21
7.79618E-04 1.50037E-21
8.29092E-04 1.32884E-21
8.80086E-04 1.18119E-21
9.32601E-04 1.05352E-21
9.86636E-04 9.42670E-22
1.04219E-03 8.46033E-22
1.09927E-03 7.61476E-22
1.15786E-03 6.87221E-22
1.21797E-03 6.21796E-22
1.27961E-03 5.63967E-22
1.34276E-03 5.12695E-22
1.40743E-03 4.67106E-22
1.47362E-03 4.26458E-22
1.54133E-03 3.90121E-22
1.61056E-03 3.57556E-22
1.68131E-03 3.28302E-22
1.75357E-03 3.01962E-22
1.82735E-03 2.78193E-22
1.90265E-03 2.56700E-22
1.97947E-03 2.37225E-22
2.05780E-03 2.19546E-22
2.13765E-03 2.03466E-22
2.21902E-03 1.88816E-22
2.30190E-03 1.75445E-22
2.38630E-03 1.63221E-22
2.47222E-03 1.52028E-22
2.55965E-03 1.41764E-22
2.64859E-03 1.32337E-22
2.73905E-03 1.23668E-22
2.83103E-03 1.15684E-22
2.92452E-03 1.08321E-22
3.01952E-03 1.01523E-22
3.11604E-03 9.52384E-23
3.21407E-03 8.94213E-23
3.31362E-03 8.40309E-23
3.41468E-03 7.90303E-23
3.51725E-03 7.43862E-23
3.62133E-03 7.00688E-23
3.72692E-03 6.60511E-23
3.83403E-03 6.23085E-23
3.94265E-03 5.88188E-23
4.05278E-03 5.55620E-23
4.16442E-03 5.25199E-23
4.27757E-03 4.96757E-23
4.39223E-03 4.70144E-23
4.50840E-03 4.45221E-23
4.62608E-03 4.21863E-23
4.74527E-03 3.99955E-23
4.86597E-03 3.79390E-23
4.98817E-03 3.60073E-23
5.11188E-03 3.41914E-23
5.23711E-03 3.24833E-23
5.36383E-03 3.08754E-23
5.49207E-03 2.93609E-23
5.62181E-03 2.79335E-23
5.75306E-03 2.65873E-23
5.88581E-03 2.53169E-23
6.02007E-03 2.41174E-23
6.15583E-03 2.29840E-23
6.29310E-03 2.19127E-23
6.43187E-03 2.08994E-23
6.57214E-03 1.99404E-23
6.71392E-03 1.90325E-23
6.85720E-03 1.81724E-23
7.00198E-03 1.73572E-23
7.14827E-03 1.65842E-23
7.29605E-03 1.58509E-23
7.44534E-03 1.51548E-23
7.59612E-03 1.44939E-23
7.97965E-03 1.29821E-23
8.37255E-03 1.16490E-23
8.77480E-03 1.04703E-23
9.18641E-03 9.42590E-24
9.60736E-03 8.49831E-24
1.00376E-02 7.67277E-24
1.04773E-02 6.93658E-24
1.09262E-02 6.27884E-24
1.13844E-02 5.69013E-24
1.18520E-02 5.16233E-24
1.23288E-02 4.68836E-24
1.28150E-02 4.26210E-24
1.33104E-02 3.87818E-24
1.38150E-02 3.53193E-24
1.43290E-02 3.21924E-24
1.48521E-02 2.93651E-24
1.53845E-02 2.68057E-24
1.59262E-02 2.44862E-24
1.64770E-02 2.23820E-24
1.70371E-02 2.04711E-24
1.76063E-02 1.87341E-24
1.81848E-02 1.71538E-24
1.87724E-02 1.57147E-24
1.93692E-02 1.44032E-24
1.99751E-02 1.32071E-24
2.05901E-02 1.21154E-24
2.12143E-02 1.11183E-24
2.18476E-02 1.02071E-24
2.24900E-02 9.37366E-25
2.31415E-02 8.61107E-25
2.38021E-02 7.91286E-25
2.44717E-02 7.27328E-25
2.51504E-02 6.68711E-25
2.58382E-02 6.14964E-25
2.65349E-02 5.65660E-25
2.72407E-02 5.20414E-25
2.79555E-02 4.78876E-25
2.86793E-02 4.40728E-25
2.94120E-02 4.05682E-25
3.01537E-02 3.73475E-25
3.09043E-02 3.43869E-25
3.16639E-02 3.16647E-25
3.24324E-02 2.91610E-25
3.32098E-02 2.68578E-25
3.39961E-02 2.47386E-25
3.47912E-02 2.27882E-25
3.55952E-02 2.09931E-25
3.64081E-02 1.93404E-25
3.72297E-02 1.78189E-25
3.80602E-02 1.64177E-25
3.88995E-02 1.51274E-25
3.97476E-02 1.39390E-25
4.06044E-02 1.28444E-25
4.14700E-02 1.18362E-25
4.23443E-02 1.09074E-25
4.32273E-02 1.00518E-25
4.41190E-02 9.26362E-26
4.50194E-02 8.53754E-26
4.59284E-02 7.86866E-26
4.68461E-02 7.25248E-26
4.87074E-02 6.16202E-26
5.06030E-02 5.23683E-26
5.25328E-02 4.45203E-26
5.44967E-02 3.78652E-26
5.64946E-02 3.22234E-26
5.85262E-02 2.74423E-26
6.05914E-02 2.33921E-26
6.26901E-02 1.99623E-26
6.48222E-02 1.70589E-26
6.69873E-02 1.46018E-26
6.91854E-02 1.25229E-26
7.14163E-02 1.07642E-26
7.36799E-02 9.27638E-27
7.59760E-02 8.01748E-27
7.83043E-02 6.95189E-27
8.06647E-02 6.04934E-27
8.30571E-02 5.28416E-27
8.54812E-02 4.63461E-27
8.79369E-02 4.08228E-27
9.04240E-02 3.61161E-27
9.29422E-02 3.20948E-27
9.54915E-02 2.86482E-27
9.80716E-02 2.56833E-27
1.00682E-01 2.31218E-27
1.03323E-01 2.08984E-27
1.05995E-01 1.89583E-27
1.08696E-01 1.72559E-27
1.11427E-01 1.57531E-27
1.14188E-01 1.44183E-27
1.16978E-01 1.32255E-27
1.19797E-01 1.21530E-27
1.22645E-01 1.11829E-27
1.25522E-01 1.03007E-27
1.28428E-01 9.49430E-28
1.31361E-01 8.75379E-28
1.34323E-01 8.07111E-28
1.37313E-01 7.43961E-28
1.40330E-01 6.85387E-28
1.43375E-01 6.30942E-28
1.46447E-01 5.80255E-28
1.49545E-01 5.33020E-28
1.52671E-01 4.88979E-28
1.55823E-01 4.47914E-28
1.59001E-01 4.09636E-28
1.62205E-01 3.73983E-28
1.65435E-01 3.40807E-28
1.68690E-01 3.09976E-28
1.71970E-01 2.81369E-28
1.75276E-01 2.54872E-28
1.78606E-01 2.30377E-28
1.81961E-01 2.07781E-28
1.85340E-01 1.86983E-28
1.88743E-01 1.67886E-28
1.92169E-01 1.50396E-28
1.95619E-01 1.34418E-28
1.99092E-01 1.19863E-28
2.02589E-01 1.06641E-28
2.06107E-01 9.46657E-29
2.09649E-01 8.38521E-29
2.13212E-01 7.41183E-29
2.16797E-01 6.53848E-29
2.20404E-01 5.75750E-29
2.24032E-01 5.06152E-29
2.27680E-01 4.44349E-29
2.31350E-01 3.89671E-29
2.35040E-01 3.41479E-29
2.38751E-01 2.99169E-29
2.42481E-01 2.62174E-29
2.46231E-01 2.29960E-29
2.50000E-01 2.02031E-29
2.53788E-01 1.77923E-29
2.57595E-01 1.57207E-29
2.61421E-01 1.39487E-29
2.65264E-01 1.24402E-29
2.69126E-01 1.11619E-29
2.73005E-01 1.00836E-29
2.76901E-01 9.17791E-30
2.80814E-01 8.42028E-30
2.84744E-01 7.78858E-30
2.88691E-01 7.26312E-30
2.92653E-01 6.82643E-30
2.96632E-01 6.46313E-30
3.00625E-01 6.15974E-30
3.04634E-01 5.90455E-30
3.08658E-01 5.68747E-30
3.12697E-01 5.49985E-30
3.16749E-01 5.33440E-30
3.20816E-01 5.18499E-30
3.24896E-01 5.04656E-30
3.28990E-01 4.91502E-30
3.33097E-01 4.78709E-30
3.37216E-01 4.66022E-30
3.41348E-01 4.53251E-30
3.45492E-01 4.40258E-30
3.49647E-01 4.26955E-30
3.53814E-01 4.13289E-30
3.57992E-01 3.99243E-30
3.62181E-01 3.84825E-30
3.66381E-01 3.70062E-30
3.70590E-01 3.55000E-30
3.74810E-01 3.39697E-30
3.79039E-01 3.24218E-30
3.83277E-01 3.08635E-30
3.87524E-01 2.93022E-30
3.91780E-01 2.77454E-30
3.96044E-01 2.62005E-30
4.00316E-01 2.46745E-30
4.04596E-01 2.31741E-30
4.08882E-01 2.17055E-30
4.13176E-01 2.02743E-30
4.17476E-01 1.88856E-30
4.21783E-01 1.75437E-30
4.26095E-01 1.62524E-30
4.30413E-01 1.50148E-30
4.34737E-01 1.38333E-30
4.39065E-01 1.27098E-30
4.43398E-01 1.16456E-30
4.47736E-01 1.06413E-30
4.52077E-01 9.69726E-31
4.56422E-01 8.81311E-31
4.60770E-01 7.98822E-31
4.65122E-01 7.22152E-31
4.69476E-01 6.51163E-31
4.73832E-01 5.85685E-31
4.78190E-01 5.25528E-31
4.82550E-01 4.70477E-31
4.86912E-01 4.20304E-31
4.91274E-01 3.74768E-31
4.95637E-01 3.33615E-31
5.00000E-01 2.96591E-31
5.04363E-01 2.63434E-31
5.08726E-01 2.33883E-31
5.13088E-01 2.07679E-31
5.17450E-01 1.84568E-31
5.21810E-01 1.64300E-31
5.26168E-01 1.46633E-31
5.30524E-01 1.31333E-31
5.34878E-01 1.18177E-31
5.39230E-01 1.06951E-31
5.43578E-01 9.74523E-32
5.47923E-01 8.94910E-32
5.52264E-01 8.28879E-32
5.56602E-01 7.74763E-32
5.60935E-01 7.31014E-32
5.65263E-01 6.96204E-32
5.69587E-01 6.69024E-32
5.73905E-01 6.48277E-32
5.78217E-01 6.32879E-32
5.82524E-01 6.21852E-32
5.86824E-01 6.14320E-32
5.91118E-01 6.09504E-32
5.95404E-01 6.06717E-32
5.99684E-01 6.05356E-32
6.03956E-01 6.04899E-32
6.08220E-01 6.04900E-32
6.12476E-01 6.04977E-32
6.16723E-01 6.04816E-32
6.20961E-01 6.04157E-32
6.25190E-01 6.02793E-32
6.29410E-01 6.00563E-32
6.33619E-01 5.97347E-32
6.37819E-01 5.93064E-32
6.42008E-01 5.87664E-32
6.46186E-01 5.81126E-32
6.50353E-01 5.73453E-32
6.54508E-01 5.64668E-32
6.58652E-01 5.54813E-32
6.62784E-01 5.43943E-32
6.66903E-01 5.32125E-32
6.71010E-01 5.19435E-32
6.75104E-01 5.05956E-32
6.79184E-01 4.91774E-32
6.83251E-01 4.76981E-32
6.87303E-01 4.61666E-32
6.91342E-01 4.45922E-32
6.95366E-01 4.29839E-32
6.99375E-01 4.13504E-32
7.03368E-01 3.97003E-32
7.07347E-01 3.80414E-32
7.11309E-01 3.63816E-32
7.15256E-01 3.47280E-32
7.19186E-01 3.30871E-32
7.23099E-01 3.14653E-32
7.26995E-01 2.98679E-32
7.30874E-01 2.83001E-32
7.34736E-01 2.67664E-32
7.38579E-01 2.52707E-32
7.42405E-01 2.38164E-32
7.46212E-01 2.24065E-32
7.50000E-01 2.10434E-32
7.53769E-01 1.97290E-32
7.57519E-01 1.84650E-32
7.61249E-01 1.72525E-32
7.64960E-01 1.60922E-32
7.68650E-01 1.49846E-32
7.72320E-01 1.39297E-32
7.75968E-01 1.29272E-32
7.79596E-01 1.19768E-32
7.83203E-01 1.10778E-32
7.86788E-01 1.02292E-32
7.90351E-01 9.42982E-33
7.93893E-01 8.67852E-33
7.97411E-01 7.97387E-33
8.00908E-01 7.31435E-33
8.04381E-01 6.69835E-33
8.07831E-01 6.12421E-33
8.11257E-01 5.59018E-33
8.14660E-01 5.09450E-33
8.18039E-01 4.63536E-33
8.21394E-01 4.21097E-33
8.24724E-01 3.81951E-33
8.28030E-01 3.45920E-33
8.31310E-01 3.12827E-33
8.34565E-01 2.82498E-33
8.37795E-01 2.54762E-33
8.40999E-01 2.29455E-33
8.44177E-01 2.06417E-33
8.47329E-01 1.85491E-33
8.50455E-01 1.66530E-33
8.53553E-01 1.49389E-33
8.56625E-01 1.33933E-33
8.59670E-01 1.20030E-33
8.62687E-01 1.07557E-33
8.65677E-01 9.63962E-34
8.68639E-01 8.64370E-34
8.71572E-01 7.75747E-34
8.74478E-01 6.97113E-34
8.77355E-01 6.27548E-34
8.80203E-01 5.66195E-34
8.83022E-01 5.12253E-34
8.85812E-01 4.64979E-34
8.88573E-01 4.23685E-34
8.91304E-01 3.87734E-34
8.94005E-01 3.56539E-34
8.96677E-01 3.29562E-34
8.99318E-01 3.06311E-34
9.01928E-01 2.86333E-34
9.04508E-01 2.69219E-34
9.07058E-01 2.54595E-34
9.09576E-01 2.42126E-34
9.12063E-01 2.31506E-34
9.14519E-01 2.22464E-34
9.16943E-01 2.14755E-34
9.19335E-01 2.08161E-34
9.21696E-01 2.02490E-34
9.24024E-01 1.97571E-34
9.26320E-01 1.93256E-34
9.28584E-01 1.89413E-34
9.30815E-01 1.85929E-34
9.33013E-01 1.82708E-34
9.35178E-01 1.79665E-34
9.37310E-01 1.76732E-34
9.39409E-01 1.73849E-34
9.41474E-01 1.70968E-34
9.43505E-01 1.68050E-34
9.45503E-01 1.65065E-34
9.47467E-01 1.61990E-34
9.49397E-01 1.58806E-34
9.51293E-01 1.55503E-34
9.53154E-01 1.52073E-34
9.54981E-01 1.48515E-34
9.56773E-01 1.44829E-34
9.58530E-01 1.41019E-34
9.60252E-01 1.37092E-34
9.61940E-01 1.33054E-34
9.63592E-01 1.28918E-34
9.65209E-01 1.24692E-34
9.66790E-01 1.20391E-34
9.68336E-01 1.16026E-34
9.69846E-01 1.11611E-34
9.71321E-01 1.07158E-34
9.72759E-01 1.02682E-34
9.74162E-01 9.81955E-35
9.75528E-01 9.37113E-35
9.76858E-01 8.92427E-35
9.78152E-01 8.48016E-35
9.79410E-01 8.03996E-35
9.80631E-01 7.60477E-35
9.81815E-01 7.17564E-35
9.82963E-01 6.75360E-35
9.84074E-01 6.33951E-35
9.85148E-01 5.93430E-35
9.86185E-01 5.53870E-35
9.87185E-01 5.15347E-35
9.88148E-01 4.77928E-35
9.89074E-01 4.41673E-35
9.89962E-01 4.06632E-35
9.90814E-01 3.72859E-35
9.91627E-01 3.40399E-35
9.92404E-01 3.09287E-35
9.93143E-01 2.79561E-35
9.93844E-01 2.51244E-35
9.94508E-01 2.24369E-35
9.95134E-01 1.98956E-35
9.95722E-01 1.75025E-35
9.96273E-01 1.52590E-35
9.96786E-01 1.31667E-35
9.97261E-01 1.12263E-35
9.97698E-01 9.43927E-36
9.98097E-01 7.80605E-36
9.98459E-01 6.32714E-36
9.98782E-01 5.00324E-36
9.99067E-01 3.83439E-36
9.99315E-01 2.82110E-36
9.99524E-01 1.96335E-36
9.99695E-01 1.26158E-36
9.99829E-01 7.15615E-37
9.99924E-01 3.25661E-37
9.99981E-01 9.15496E-38
1.00000E+00 1.35433E-38
