 #
 # Subroutine ELSEPA. Elastic scattering of electrons and positrons
 #                    by neutral atoms and positive ions
 #
 # Projectile: positron
 # Kinetic energy = 5.00000E+07 eV = 1.83747E+06 a.u.
 #
 # WARNING: High-energy factorization with free-atom DF screening.
 #          Absorption, polarization and exchange corrections are
 #          switched off.
 #          Phase shifts are calculated for the bare nucleus.
 #          Scattering amplitudes are not evaluated.
 #
 # Element: Cl,  Z =  17,  atomic weight = 3.54527E+01 g/mol
 #
 # Nuclear model: Fermi distribution
 #                Average radius = 3.51507E-13 cm
 #                Skin thickness = 5.46000E-14 cm
 #
 # Number of electrons = 17
 #
 # Total elastic cross section = 1.10141E-18 cm**2 = 3.93319E-02 a0**2
 # 1st transport cross section = 2.26469E-25 cm**2 = 8.08735E-09 a0**2
 # 2nd transport cross section = 6.63955E-25 cm**2 = 2.37103E-08 a0**2
 #
 #
 # Differential cross section:                       MU=(1-COS(THETA))/2
 #
 #  THETA        MU          DCS          DCS        Sherman      error
 #  (deg)                 (cm**2/sr)   (a0**2/sr)    function
 #----------------------------------------------------------------------
0.00000E+00 2.29933E-11
7.61557E-13 2.29845E-11
1.18994E-12 2.29796E-11
1.71346E-12 2.29736E-11
2.33225E-12 2.29666E-11
3.04617E-12 2.29585E-11
3.85530E-12 2.29493E-11
4.75964E-12 2.29391E-11
5.75917E-12 2.29278E-11
6.85391E-12 2.29155E-11
8.04379E-12 2.29020E-11
9.32893E-12 2.28876E-11
1.07092E-11 2.28721E-11
1.21847E-11 2.28555E-11
1.37554E-11 2.28379E-11
1.54213E-11 2.28192E-11
1.71823E-11 2.27995E-11
1.90386E-11 2.27788E-11
2.09900E-11 2.27570E-11
2.30367E-11 2.27342E-11
2.51785E-11 2.27104E-11
2.74156E-11 2.26855E-11
2.97478E-11 2.26597E-11
3.21752E-11 2.26328E-11
3.46979E-11 2.26049E-11
3.73157E-11 2.25761E-11
4.00286E-11 2.25462E-11
4.28368E-11 2.25154E-11
4.57402E-11 2.24836E-11
4.87388E-11 2.24507E-11
5.18325E-11 2.24170E-11
5.50215E-11 2.23823E-11
5.83057E-11 2.23465E-11
6.16850E-11 2.23099E-11
6.51595E-11 2.22724E-11
6.87293E-11 2.22338E-11
7.23943E-11 2.21944E-11
7.61544E-11 2.21540E-11
1.18991E-10 2.17012E-11
1.71347E-10 2.11652E-11
2.33223E-10 2.05555E-11
3.04617E-10 1.98817E-11
3.85531E-10 1.91553E-11
4.75965E-10 1.83857E-11
5.75917E-10 1.75852E-11
6.85389E-10 1.67195E-11
8.04380E-10 1.58770E-11
9.32891E-10 1.50858E-11
1.07092E-09 1.42119E-11
1.21847E-09 1.33945E-11
1.37554E-09 1.26288E-11
1.54213E-09 1.18131E-11
1.71823E-09 1.10715E-11
1.90386E-09 1.03661E-11
2.09900E-09 9.65485E-12
2.30367E-09 9.01307E-12
2.51785E-09 8.39478E-12
2.74156E-09 7.79790E-12
2.97478E-09 7.26102E-12
3.21752E-09 6.73902E-12
3.46978E-09 6.25139E-12
3.73156E-09 5.81293E-12
4.00286E-09 5.38433E-12
4.28368E-09 4.99321E-12
4.57402E-09 4.64017E-12
4.87388E-09 4.29611E-12
5.18326E-09 3.98617E-12
5.50215E-09 3.70246E-12
5.83057E-09 3.43259E-12
6.16850E-09 3.18875E-12
6.51596E-09 2.96331E-12
6.87293E-09 2.75247E-12
7.23942E-09 2.56130E-12
7.61544E-09 2.38338E-12
1.18991E-08 1.21282E-12
1.71347E-08 6.75973E-13
2.33223E-08 4.11566E-13
3.04617E-08 2.69585E-13
3.85531E-08 1.86675E-13
4.75965E-08 1.34601E-13
5.75917E-08 9.99740E-14
6.85389E-08 7.57519E-14
8.04380E-08 5.84790E-14
9.32891E-08 4.57761E-14
1.07092E-07 3.62544E-14
1.21847E-07 2.90094E-14
1.37554E-07 2.34282E-14
1.54213E-07 1.90819E-14
1.71823E-07 1.56610E-14
1.90386E-07 1.29546E-14
2.09900E-07 1.07955E-14
2.30367E-07 9.05944E-15
2.51785E-07 7.65307E-15
2.74156E-07 6.50572E-15
2.97478E-07 5.56333E-15
3.21752E-07 4.78431E-15
3.46978E-07 4.13627E-15
3.73156E-07 3.59392E-15
4.00286E-07 3.13766E-15
4.28368E-07 2.75171E-15
4.57402E-07 2.42352E-15
4.87388E-07 2.14305E-15
5.18325E-07 1.90224E-15
5.50215E-07 1.69454E-15
5.83057E-07 1.51463E-15
6.16850E-07 1.35815E-15
6.51596E-07 1.22151E-15
6.87293E-07 1.10176E-15
7.23942E-07 9.96455E-16
7.61543E-07 9.03536E-16
1.18991E-06 3.81451E-16
1.71347E-06 1.88257E-16
2.33223E-06 1.03322E-16
3.04617E-06 6.12779E-17
3.85531E-06 3.85701E-17
4.75964E-06 2.54522E-17
5.75916E-06 1.74557E-17
6.85388E-06 1.23614E-17
8.04378E-06 8.99413E-18
9.32888E-06 6.69754E-18
1.07092E-05 5.08839E-18
1.21846E-05 3.93422E-18
1.37553E-05 3.08915E-18
1.54212E-05 2.45908E-18
1.71822E-05 1.98163E-18
1.90385E-05 1.61449E-18
2.09899E-05 1.32862E-18
2.30365E-05 1.10326E-18
2.51783E-05 9.23674E-19
2.74153E-05 7.79155E-19
2.97475E-05 6.61806E-19
3.21749E-05 5.65729E-19
3.46974E-05 4.86467E-19
3.73152E-05 4.20612E-19
4.00281E-05 3.65533E-19
4.28362E-05 3.19180E-19
4.57395E-05 2.79944E-19
4.87380E-05 2.46553E-19
5.18317E-05 2.17992E-19
5.50205E-05 1.93447E-19
5.83045E-05 1.72260E-19
6.16838E-05 1.53894E-19
6.51582E-05 1.37912E-19
6.87277E-05 1.23949E-19
7.23925E-05 1.11709E-19
7.61524E-05 1.00940E-19
9.21439E-05 6.89216E-20
1.09658E-04 4.86474E-20
1.28695E-04 3.53082E-20
1.49255E-04 2.62419E-20
1.71338E-04 1.99069E-20
1.94942E-04 1.53726E-20
2.20070E-04 1.20584E-20
2.46720E-04 9.59082E-21
2.74892E-04 7.72304E-21
3.04586E-04 6.28842E-21
3.35803E-04 5.17179E-21
3.68542E-04 4.29225E-21
4.02802E-04 3.59187E-21
4.38585E-04 3.02861E-21
4.75889E-04 2.57148E-21
5.14715E-04 2.19738E-21
5.55063E-04 1.88886E-21
5.96931E-04 1.63259E-21
6.40321E-04 1.41831E-21
6.85233E-04 1.23803E-21
7.31665E-04 1.08548E-21
7.79618E-04 9.55702E-22
8.29092E-04 8.44732E-22
8.80086E-04 7.49396E-22
9.32601E-04 6.67124E-22
9.86636E-04 5.95826E-22
1.04219E-03 5.33794E-22
1.09927E-03 4.79619E-22
1.15786E-03 4.32137E-22
1.21797E-03 3.90382E-22
1.27961E-03 3.53544E-22
1.34276E-03 3.20945E-22
1.40743E-03 2.92012E-22
1.47362E-03 2.66264E-22
1.54133E-03 2.43287E-22
1.61056E-03 2.22733E-22
1.68131E-03 2.04301E-22
1.75357E-03 1.87734E-22
1.82735E-03 1.72810E-22
1.90265E-03 1.59338E-22
1.97947E-03 1.47151E-22
2.05780E-03 1.36105E-22
2.13765E-03 1.26074E-22
2.21902E-03 1.16949E-22
2.30190E-03 1.08634E-22
2.38630E-03 1.01043E-22
2.47222E-03 9.41021E-23
2.55965E-03 8.77460E-23
2.64859E-03 8.19166E-23
2.73905E-03 7.65623E-23
2.83103E-03 7.16374E-23
2.92452E-03 6.71014E-23
3.01952E-03 6.29180E-23
3.11604E-03 5.90548E-23
3.21407E-03 5.54829E-23
3.31362E-03 5.21763E-23
3.41468E-03 4.91119E-23
3.51725E-03 4.62686E-23
3.62133E-03 4.36276E-23
3.72692E-03 4.11718E-23
3.83403E-03 3.88860E-23
3.94265E-03 3.67562E-23
4.05278E-03 3.47698E-23
4.16442E-03 3.29155E-23
4.27757E-03 3.11828E-23
4.39223E-03 2.95622E-23
4.50840E-03 2.80453E-23
4.62608E-03 2.66241E-23
4.74527E-03 2.52916E-23
4.86597E-03 2.40411E-23
4.98817E-03 2.28667E-23
5.11188E-03 2.17629E-23
5.23711E-03 2.07247E-23
5.36383E-03 1.97474E-23
5.49207E-03 1.88269E-23
5.62181E-03 1.79592E-23
5.75306E-03 1.71408E-23
5.88581E-03 1.63683E-23
6.02007E-03 1.56386E-23
6.15583E-03 1.49490E-23
6.29310E-03 1.42969E-23
6.43187E-03 1.36798E-23
6.57214E-03 1.30955E-23
6.71392E-03 1.25419E-23
6.85720E-03 1.20172E-23
7.00198E-03 1.15195E-23
7.14827E-03 1.10472E-23
7.29605E-03 1.05988E-23
7.44534E-03 1.01728E-23
7.59612E-03 9.76785E-24
7.97965E-03 8.83993E-24
8.37255E-03 8.01917E-24
8.77480E-03 7.29107E-24
9.18641E-03 6.64339E-24
9.60736E-03 6.06572E-24
1.00376E-02 5.54918E-24
1.04773E-02 5.08620E-24
1.09262E-02 4.67027E-24
1.13844E-02 4.29576E-24
1.18520E-02 3.95784E-24
1.23288E-02 3.65232E-24
1.28150E-02 3.37554E-24
1.33104E-02 3.12433E-24
1.38150E-02 2.89591E-24
1.43290E-02 2.68786E-24
1.48521E-02 2.49803E-24
1.53845E-02 2.32455E-24
1.59262E-02 2.16577E-24
1.64770E-02 2.02022E-24
1.70371E-02 1.88660E-24
1.76063E-02 1.76377E-24
1.81848E-02 1.65069E-24
1.87724E-02 1.54646E-24
1.93692E-02 1.45025E-24
1.99751E-02 1.36135E-24
2.05901E-02 1.27910E-24
2.12143E-02 1.20291E-24
2.18476E-02 1.13226E-24
2.24900E-02 1.06668E-24
2.31415E-02 1.00572E-24
2.38021E-02 9.49021E-25
2.44717E-02 8.96218E-25
2.51504E-02 8.47000E-25
2.58382E-02 8.01078E-25
2.65349E-02 7.58194E-25
2.72407E-02 7.18110E-25
2.79555E-02 6.80610E-25
2.86793E-02 6.45498E-25
2.94120E-02 6.12595E-25
3.01537E-02 5.81737E-25
3.09043E-02 5.52774E-25
3.16639E-02 5.25569E-25
3.24324E-02 4.99996E-25
3.32098E-02 4.75939E-25
3.39961E-02 4.53293E-25
3.47912E-02 4.31959E-25
3.55952E-02 4.11849E-25
3.64081E-02 3.92879E-25
3.72297E-02 3.74974E-25
3.80602E-02 3.58062E-25
3.88995E-02 3.42078E-25
3.97476E-02 3.26964E-25
4.06044E-02 3.12662E-25
4.14700E-02 2.99121E-25
4.23443E-02 2.86294E-25
4.32273E-02 2.74136E-25
4.41190E-02 2.62606E-25
4.50194E-02 2.51665E-25
4.59284E-02 2.41279E-25
4.68461E-02 2.31414E-25
4.87074E-02 2.13126E-25
5.06030E-02 1.96578E-25
5.25328E-02 1.81577E-25
5.44967E-02 1.67953E-25
5.64946E-02 1.55560E-25
5.85262E-02 1.44267E-25
6.05914E-02 1.33960E-25
6.26901E-02 1.24537E-25
6.48222E-02 1.15912E-25
6.69873E-02 1.08004E-25
6.91854E-02 1.00743E-25
7.14163E-02 9.40689E-26
7.36799E-02 8.79249E-26
7.59760E-02 8.22622E-26
7.83043E-02 7.70366E-26
8.06647E-02 7.22087E-26
8.30571E-02 6.77432E-26
8.54812E-02 6.36082E-26
8.79369E-02 5.97751E-26
9.04240E-02 5.62183E-26
9.29422E-02 5.29143E-26
9.54915E-02 4.98423E-26
9.80716E-02 4.69832E-26
1.00682E-01 4.43198E-26
1.03323E-01 4.18364E-26
1.05995E-01 3.95188E-26
1.08696E-01 3.73542E-26
1.11427E-01 3.53307E-26
1.14188E-01 3.34375E-26
1.16978E-01 3.16650E-26
1.19797E-01 3.00041E-26
1.22645E-01 2.84466E-26
1.25522E-01 2.69851E-26
1.28428E-01 2.56126E-26
1.31361E-01 2.43228E-26
1.34323E-01 2.31100E-26
1.37313E-01 2.19687E-26
1.40330E-01 2.08940E-26
1.43375E-01 1.98815E-26
1.46447E-01 1.89270E-26
1.49545E-01 1.80265E-26
1.52671E-01 1.71765E-26
1.55823E-01 1.63738E-26
1.59001E-01 1.56152E-26
1.62205E-01 1.48980E-26
1.65435E-01 1.42195E-26
1.68690E-01 1.35773E-26
1.71970E-01 1.29692E-26
1.75276E-01 1.23930E-26
1.78606E-01 1.18469E-26
1.81961E-01 1.13289E-26
1.85340E-01 1.08374E-26
1.88743E-01 1.03709E-26
1.92169E-01 9.92784E-27
1.95619E-01 9.50689E-27
1.99092E-01 9.10676E-27
2.02589E-01 8.72627E-27
2.06107E-01 8.36429E-27
2.09649E-01 8.01979E-27
2.13212E-01 7.69180E-27
2.16797E-01 7.37939E-27
2.20404E-01 7.08172E-27
2.24032E-01 6.79798E-27
2.27680E-01 6.52742E-27
2.31350E-01 6.26933E-27
2.35040E-01 6.02304E-27
2.38751E-01 5.78795E-27
2.42481E-01 5.56346E-27
2.46231E-01 5.34902E-27
2.50000E-01 5.14411E-27
2.53788E-01 4.94825E-27
2.57595E-01 4.76098E-27
2.61421E-01 4.58186E-27
2.65264E-01 4.41048E-27
2.69126E-01 4.24647E-27
2.73005E-01 4.08945E-27
2.76901E-01 3.93909E-27
2.80814E-01 3.79507E-27
2.84744E-01 3.65706E-27
2.88691E-01 3.52480E-27
2.92653E-01 3.39800E-27
2.96632E-01 3.27641E-27
3.00625E-01 3.15977E-27
3.04634E-01 3.04787E-27
3.08658E-01 2.94048E-27
3.12697E-01 2.83739E-27
3.16749E-01 2.73841E-27
3.20816E-01 2.64334E-27
3.24896E-01 2.55202E-27
3.28990E-01 2.46427E-27
3.33097E-01 2.37994E-27
3.37216E-01 2.29887E-27
3.41348E-01 2.22092E-27
3.45492E-01 2.14596E-27
3.49647E-01 2.07384E-27
3.53814E-01 2.00446E-27
3.57992E-01 1.93769E-27
3.62181E-01 1.87342E-27
3.66381E-01 1.81154E-27
3.70590E-01 1.75196E-27
3.74810E-01 1.69457E-27
3.79039E-01 1.63929E-27
3.83277E-01 1.58602E-27
3.87524E-01 1.53469E-27
3.91780E-01 1.48522E-27
3.96044E-01 1.43752E-27
4.00316E-01 1.39153E-27
4.04596E-01 1.34717E-27
4.08882E-01 1.30439E-27
4.13176E-01 1.26312E-27
4.17476E-01 1.22330E-27
4.21783E-01 1.18486E-27
4.26095E-01 1.14777E-27
4.30413E-01 1.11196E-27
4.34737E-01 1.07738E-27
4.39065E-01 1.04399E-27
4.43398E-01 1.01174E-27
4.47736E-01 9.80583E-28
4.52077E-01 9.50484E-28
4.56422E-01 9.21400E-28
4.60770E-01 8.93292E-28
4.65122E-01 8.66124E-28
4.69476E-01 8.39860E-28
4.73832E-01 8.14467E-28
4.78190E-01 7.89912E-28
4.82550E-01 7.66165E-28
4.86912E-01 7.43195E-28
4.91274E-01 7.20974E-28
4.95637E-01 6.99475E-28
5.00000E-01 6.78672E-28
5.04363E-01 6.58539E-28
5.08726E-01 6.39053E-28
5.13088E-01 6.20190E-28
5.17450E-01 6.01928E-28
5.21810E-01 5.84246E-28
5.26168E-01 5.67123E-28
5.30524E-01 5.50540E-28
5.34878E-01 5.34477E-28
5.39230E-01 5.18917E-28
5.43578E-01 5.03842E-28
5.47923E-01 4.89235E-28
5.52264E-01 4.75080E-28
5.56602E-01 4.61362E-28
5.60935E-01 4.48065E-28
5.65263E-01 4.35176E-28
5.69587E-01 4.22680E-28
5.73905E-01 4.10564E-28
5.78217E-01 3.98816E-28
5.82524E-01 3.87422E-28
5.86824E-01 3.76372E-28
5.91118E-01 3.65654E-28
5.95404E-01 3.55256E-28
5.99684E-01 3.45169E-28
6.03956E-01 3.35382E-28
6.08220E-01 3.25885E-28
6.12476E-01 3.16668E-28
6.16723E-01 3.07724E-28
6.20961E-01 2.99042E-28
6.25190E-01 2.90614E-28
6.29410E-01 2.82432E-28
6.33619E-01 2.74489E-28
6.37819E-01 2.66776E-28
6.42008E-01 2.59287E-28
6.46186E-01 2.52013E-28
6.50353E-01 2.44949E-28
6.54508E-01 2.38088E-28
6.58652E-01 2.31423E-28
6.62784E-01 2.24949E-28
6.66903E-01 2.18659E-28
6.71010E-01 2.12547E-28
6.75104E-01 2.06608E-28
6.79184E-01 2.00837E-28
6.83251E-01 1.95229E-28
6.87303E-01 1.89778E-28
6.91342E-01 1.84480E-28
6.95366E-01 1.79330E-28
6.99375E-01 1.74324E-28
7.03368E-01 1.69457E-28
7.07347E-01 1.64725E-28
7.11309E-01 1.60124E-28
7.15256E-01 1.55650E-28
7.19186E-01 1.51300E-28
7.23099E-01 1.47069E-28
7.26995E-01 1.42954E-28
7.30874E-01 1.38951E-28
7.34736E-01 1.35058E-28
7.38579E-01 1.31271E-28
7.42405E-01 1.27587E-28
7.46212E-01 1.24003E-28
7.50000E-01 1.20516E-28
7.53769E-01 1.17123E-28
7.57519E-01 1.13822E-28
7.61249E-01 1.10610E-28
7.64960E-01 1.07483E-28
7.68650E-01 1.04441E-28
7.72320E-01 1.01480E-28
7.75968E-01 9.85982E-29
7.79596E-01 9.57932E-29
7.83203E-01 9.30629E-29
7.86788E-01 9.04051E-29
7.90351E-01 8.78178E-29
7.93893E-01 8.52991E-29
7.97411E-01 8.28469E-29
8.00908E-01 8.04595E-29
8.04381E-01 7.81351E-29
8.07831E-01 7.58718E-29
8.11257E-01 7.36681E-29
8.14660E-01 7.15222E-29
8.18039E-01 6.94326E-29
8.21394E-01 6.73978E-29
8.24724E-01 6.54161E-29
8.28030E-01 6.34863E-29
8.31310E-01 6.16068E-29
8.34565E-01 5.97763E-29
8.37795E-01 5.79936E-29
8.40999E-01 5.62572E-29
8.44177E-01 5.45661E-29
8.47329E-01 5.29188E-29
8.50455E-01 5.13144E-29
8.53553E-01 4.97516E-29
8.56625E-01 4.82294E-29
8.59670E-01 4.67467E-29
8.62687E-01 4.53024E-29
8.65677E-01 4.38956E-29
8.68639E-01 4.25252E-29
8.71572E-01 4.11904E-29
8.74478E-01 3.98901E-29
8.77355E-01 3.86236E-29
8.80203E-01 3.73899E-29
8.83022E-01 3.61882E-29
8.85812E-01 3.50177E-29
8.88573E-01 3.38776E-29
8.91304E-01 3.27671E-29
8.94005E-01 3.16855E-29
8.96677E-01 3.06321E-29
8.99318E-01 2.96061E-29
9.01928E-01 2.86069E-29
9.04508E-01 2.76339E-29
9.07058E-01 2.66863E-29
9.09576E-01 2.57635E-29
9.12063E-01 2.48650E-29
9.14519E-01 2.39902E-29
9.16943E-01 2.31384E-29
9.19335E-01 2.23092E-29
9.21696E-01 2.15020E-29
9.24024E-01 2.07162E-29
9.26320E-01 1.99515E-29
9.28584E-01 1.92072E-29
9.30815E-01 1.84829E-29
9.33013E-01 1.77782E-29
9.35178E-01 1.70926E-29
9.37310E-01 1.64256E-29
9.39409E-01 1.57769E-29
9.41474E-01 1.51460E-29
9.43505E-01 1.45325E-29
9.45503E-01 1.39361E-29
9.47467E-01 1.33564E-29
9.49397E-01 1.27930E-29
9.51293E-01 1.22456E-29
9.53154E-01 1.17138E-29
9.54981E-01 1.11972E-29
9.56773E-01 1.06957E-29
9.58530E-01 1.02088E-29
9.60252E-01 9.73634E-30
9.61940E-01 9.27793E-30
9.63592E-01 8.83331E-30
9.65209E-01 8.40223E-30
9.66790E-01 7.98441E-30
9.68336E-01 7.57960E-30
9.69846E-01 7.18755E-30
9.71321E-01 6.80804E-30
9.72759E-01 6.44083E-30
9.74162E-01 6.08569E-30
9.75528E-01 5.74242E-30
9.76858E-01 5.41081E-30
9.78152E-01 5.09066E-30
9.79410E-01 4.78177E-30
9.80631E-01 4.48397E-30
9.81815E-01 4.19708E-30
9.82963E-01 3.92091E-30
9.84074E-01 3.65532E-30
9.85148E-01 3.40015E-30
9.86185E-01 3.15523E-30
9.87185E-01 2.92043E-30
9.88148E-01 2.69561E-30
9.89074E-01 2.48063E-30
9.89962E-01 2.27537E-30
9.90814E-01 2.07971E-30
9.91627E-01 1.89352E-30
9.92404E-01 1.71672E-30
9.93143E-01 1.54918E-30
9.93844E-01 1.39081E-30
9.94508E-01 1.24152E-30
9.95134E-01 1.10121E-30
9.95722E-01 9.69822E-31
9.96273E-01 8.47261E-31
9.96786E-01 7.33459E-31
9.97261E-01 6.28351E-31
9.97698E-01 5.31875E-31
9.98097E-01 4.43976E-31
9.98459E-01 3.64601E-31
9.98782E-01 2.93704E-31
9.99067E-01 2.31246E-31
9.99315E-01 1.77188E-31
9.99524E-01 1.31500E-31
9.99695E-01 9.41546E-32
9.99829E-01 6.51310E-32
9.99924E-01 4.44119E-32
9.99981E-01 3.19849E-32
1.00000E+00 2.78438E-32
