 #
 # Subroutine ELSEPA. Elastic scattering of electrons and positrons
 #                    by neutral atoms and positive ions
 #
 # Projectile: positron
 # Kinetic energy = 4.00000E+06 eV = 1.46997E+05 a.u.
 #
 # WARNING: High-energy factorization with free-atom DF screening.
 #          Absorption, polarization and exchange corrections are
 #          switched off.
 #          Phase shifts are calculated for the bare nucleus.
 #          Scattering amplitudes are not evaluated.
 #
 # Element: Cl,  Z =  17,  atomic weight = 3.54527E+01 g/mol
 #
 # Nuclear model: Fermi distribution
 #                Average radius = 3.51507E-13 cm
 #                Skin thickness = 5.46000E-14 cm
 #
 # Number of electrons = 17
 #
 # Total elastic cross section = 1.11481E-18 cm**2 = 3.98106E-02 a0**2
 # 1st transport cross section = 2.05641E-23 cm**2 = 7.34358E-07 a0**2
 # 2nd transport cross section = 5.91107E-23 cm**2 = 2.11088E-06 a0**2
 #
 #
 # Differential cross section:                       MU=(1-COS(THETA))/2
 #
 #  THETA        MU          DCS          DCS        Sherman      error
 #  (deg)                 (cm**2/sr)   (a0**2/sr)    function
 #----------------------------------------------------------------------
0.00000E+00 1.83390E-13
7.61557E-13 1.83389E-13
1.18994E-12 1.83389E-13
1.71346E-12 1.83388E-13
2.33225E-12 1.83388E-13
3.04617E-12 1.83387E-13
3.85530E-12 1.83387E-13
4.75964E-12 1.83386E-13
5.75917E-12 1.83385E-13
6.85391E-12 1.83384E-13
8.04379E-12 1.83383E-13
9.32893E-12 1.83382E-13
1.07092E-11 1.83381E-13
1.21847E-11 1.83380E-13
1.37554E-11 1.83379E-13
1.54213E-11 1.83378E-13
1.71823E-11 1.83377E-13
1.90386E-11 1.83375E-13
2.09900E-11 1.83374E-13
2.30367E-11 1.83372E-13
2.51785E-11 1.83371E-13
2.74156E-11 1.83369E-13
2.97478E-11 1.83367E-13
3.21752E-11 1.83366E-13
3.46979E-11 1.83364E-13
3.73157E-11 1.83362E-13
4.00286E-11 1.83360E-13
4.28368E-11 1.83358E-13
4.57402E-11 1.83356E-13
4.87388E-11 1.83353E-13
5.18325E-11 1.83351E-13
5.50215E-11 1.83349E-13
5.83057E-11 1.83346E-13
6.16850E-11 1.83344E-13
6.51595E-11 1.83342E-13
6.87293E-11 1.83339E-13
7.23943E-11 1.83336E-13
7.61544E-11 1.83334E-13
1.18991E-10 1.83303E-13
1.71347E-10 1.83265E-13
2.33223E-10 1.83221E-13
3.04617E-10 1.83170E-13
3.85531E-10 1.83112E-13
4.75965E-10 1.83047E-13
5.75917E-10 1.82976E-13
6.85389E-10 1.82898E-13
8.04380E-10 1.82814E-13
9.32891E-10 1.82723E-13
1.07092E-09 1.82625E-13
1.21847E-09 1.82521E-13
1.37554E-09 1.82409E-13
1.54213E-09 1.82292E-13
1.71823E-09 1.82168E-13
1.90386E-09 1.82037E-13
2.09900E-09 1.81900E-13
2.30367E-09 1.81756E-13
2.51785E-09 1.81605E-13
2.74156E-09 1.81449E-13
2.97478E-09 1.81286E-13
3.21752E-09 1.81116E-13
3.46978E-09 1.80940E-13
3.73156E-09 1.80757E-13
4.00286E-09 1.80569E-13
4.28368E-09 1.80373E-13
4.57402E-09 1.80172E-13
4.87388E-09 1.79965E-13
5.18326E-09 1.79751E-13
5.50215E-09 1.79531E-13
5.83057E-09 1.79305E-13
6.16850E-09 1.79072E-13
6.51596E-09 1.78834E-13
6.87293E-09 1.78590E-13
7.23942E-09 1.78339E-13
7.61544E-09 1.78082E-13
1.18991E-08 1.75197E-13
1.71347E-08 1.71761E-13
2.33223E-08 1.67819E-13
3.04617E-08 1.63426E-13
3.85531E-08 1.58638E-13
4.75965E-08 1.53517E-13
5.75917E-08 1.48121E-13
6.85389E-08 1.42512E-13
8.04380E-08 1.36587E-13
9.32891E-08 1.30446E-13
1.07092E-07 1.24613E-13
1.21847E-07 1.18960E-13
1.37554E-07 1.12760E-13
1.54213E-07 1.06989E-13
1.71823E-07 1.01636E-13
1.90386E-07 9.57904E-14
2.09900E-07 9.03846E-14
2.30367E-07 8.54211E-14
2.51785E-07 8.02707E-14
2.74156E-07 7.54170E-14
2.97478E-07 7.09864E-14
3.21752E-07 6.65844E-14
3.46978E-07 6.23677E-14
3.73156E-07 5.85294E-14
4.00286E-07 5.48454E-14
4.28368E-07 5.12735E-14
4.57402E-07 4.80248E-14
4.87388E-07 4.49859E-14
5.18325E-07 4.20170E-14
5.50215E-07 3.93151E-14
5.83057E-07 3.68327E-14
6.16850E-07 3.43987E-14
6.51596E-07 3.21803E-14
6.87293E-07 3.01555E-14
7.23942E-07 2.81885E-14
7.61543E-07 2.63833E-14
1.18991E-06 1.39988E-14
1.71347E-06 7.91898E-15
2.33223E-06 4.81805E-15
3.04617E-06 3.13682E-15
3.85531E-06 2.16033E-15
4.75964E-06 1.55446E-15
5.75916E-06 1.15636E-15
6.85388E-06 8.81999E-16
8.04378E-06 6.84622E-16
9.32888E-06 5.40829E-16
1.07092E-05 4.31500E-16
1.21846E-05 3.47920E-16
1.37553E-05 2.83213E-16
1.54212E-05 2.32474E-16
1.71822E-05 1.92214E-16
1.90385E-05 1.59849E-16
2.09899E-05 1.33870E-16
2.30365E-05 1.12833E-16
2.51783E-05 9.56709E-17
2.74153E-05 8.15576E-17
2.97475E-05 6.98885E-17
3.21749E-05 6.02073E-17
3.46974E-05 5.21270E-17
3.73152E-05 4.53451E-17
4.00281E-05 3.96175E-17
4.28362E-05 3.47617E-17
4.57395E-05 3.06263E-17
4.87380E-05 2.70876E-17
5.18317E-05 2.40458E-17
5.50205E-05 2.14185E-17
5.83045E-05 1.91421E-17
6.16838E-05 1.71617E-17
6.51582E-05 1.54325E-17
6.87277E-05 1.39171E-17
7.23925E-05 1.25842E-17
7.61524E-05 1.14084E-17
9.21439E-05 7.88788E-18
1.09658E-04 5.63345E-18
1.28695E-04 4.13377E-18
1.49255E-04 3.10334E-18
1.71338E-04 2.37577E-18
1.94942E-04 1.84978E-18
2.20070E-04 1.46170E-18
2.46720E-04 1.17022E-18
2.74892E-04 9.47804E-19
3.04586E-04 7.75706E-19
3.35803E-04 6.40855E-19
3.68542E-04 5.33994E-19
4.02802E-04 4.48439E-19
4.38585E-04 3.79295E-19
4.75889E-04 3.22935E-19
5.14715E-04 2.76628E-19
5.55063E-04 2.38301E-19
5.96931E-04 2.06365E-19
6.40321E-04 1.79586E-19
6.85233E-04 1.56999E-19
7.31665E-04 1.37842E-19
7.79618E-04 1.21508E-19
8.29092E-04 1.07518E-19
8.80086E-04 9.54782E-20
9.32601E-04 8.50719E-20
9.86636E-04 7.60412E-20
1.04219E-03 6.81745E-20
1.09927E-03 6.12966E-20
1.15786E-03 5.52617E-20
1.21797E-03 4.99498E-20
1.27961E-03 4.52594E-20
1.34276E-03 4.11055E-20
1.40743E-03 3.74161E-20
1.47362E-03 3.41305E-20
1.54133E-03 3.11969E-20
1.61056E-03 2.85711E-20
1.68131E-03 2.62151E-20
1.75357E-03 2.40965E-20
1.82735E-03 2.21873E-20
1.90265E-03 2.04629E-20
1.97947E-03 1.89025E-20
2.05780E-03 1.74877E-20
2.13765E-03 1.62025E-20
2.21902E-03 1.50330E-20
2.30190E-03 1.39669E-20
2.38630E-03 1.29935E-20
2.47222E-03 1.21032E-20
2.55965E-03 1.12877E-20
2.64859E-03 1.05396E-20
2.73905E-03 9.85236E-21
2.83103E-03 9.22008E-21
2.92452E-03 8.63761E-21
3.01952E-03 8.10032E-21
3.11604E-03 7.60408E-21
3.21407E-03 7.14517E-21
3.31362E-03 6.72030E-21
3.41468E-03 6.32647E-21
3.51725E-03 5.96100E-21
3.62133E-03 5.62149E-21
3.72692E-03 5.30576E-21
3.83403E-03 5.01184E-21
3.94265E-03 4.73795E-21
4.05278E-03 4.48246E-21
4.16442E-03 4.24393E-21
4.27757E-03 4.02102E-21
4.39223E-03 3.81253E-21
4.50840E-03 3.61733E-21
4.62608E-03 3.43445E-21
4.74527E-03 3.26295E-21
4.86597E-03 3.10199E-21
4.98817E-03 2.95082E-21
5.11188E-03 2.80872E-21
5.23711E-03 2.67505E-21
5.36383E-03 2.54922E-21
5.49207E-03 2.43068E-21
5.62181E-03 2.31894E-21
5.75306E-03 2.21353E-21
5.88581E-03 2.11402E-21
6.02007E-03 2.02003E-21
6.15583E-03 1.93119E-21
6.29310E-03 1.84717E-21
6.43187E-03 1.76766E-21
6.57214E-03 1.69237E-21
6.71392E-03 1.62103E-21
6.85720E-03 1.55340E-21
7.00198E-03 1.48925E-21
7.14827E-03 1.42838E-21
7.29605E-03 1.37057E-21
7.44534E-03 1.31564E-21
7.59612E-03 1.26344E-21
7.97965E-03 1.14379E-21
8.37255E-03 1.03792E-21
8.77480E-03 9.43981E-22
9.18641E-03 8.60401E-22
9.60736E-03 7.85843E-22
1.00376E-02 7.19165E-22
1.04773E-02 6.59390E-22
1.09262E-02 6.05679E-22
1.13844E-02 5.57310E-22
1.18520E-02 5.13658E-22
1.23288E-02 4.74184E-22
1.28150E-02 4.38417E-22
1.33104E-02 4.05947E-22
1.38150E-02 3.76418E-22
1.43290E-02 3.49516E-22
1.48521E-02 3.24966E-22
1.53845E-02 3.02526E-22
1.59262E-02 2.81982E-22
1.64770E-02 2.63146E-22
1.70371E-02 2.45850E-22
1.76063E-02 2.29947E-22
1.81848E-02 2.15303E-22
1.87724E-02 2.01802E-22
1.93692E-02 1.89338E-22
1.99751E-02 1.77817E-22
2.05901E-02 1.67156E-22
2.12143E-02 1.57277E-22
2.18476E-02 1.48115E-22
2.24900E-02 1.39607E-22
2.31415E-02 1.31698E-22
2.38021E-02 1.24338E-22
2.44717E-02 1.17483E-22
2.51504E-02 1.11091E-22
2.58382E-02 1.05126E-22
2.65349E-02 9.95542E-23
2.72407E-02 9.43443E-23
2.79555E-02 8.94690E-23
2.86793E-02 8.49028E-23
2.94120E-02 8.06225E-23
3.01537E-02 7.66070E-23
3.09043E-02 7.28370E-23
3.16639E-02 6.92946E-23
3.24324E-02 6.59637E-23
3.32098E-02 6.28293E-23
3.39961E-02 5.98777E-23
3.47912E-02 5.70964E-23
3.55952E-02 5.44736E-23
3.64081E-02 5.19987E-23
3.72297E-02 4.96618E-23
3.80602E-02 4.74539E-23
3.88995E-02 4.53664E-23
3.97476E-02 4.33917E-23
4.06044E-02 4.15225E-23
4.14700E-02 3.97522E-23
4.23443E-02 3.80745E-23
4.32273E-02 3.64837E-23
4.41190E-02 3.49746E-23
4.50194E-02 3.35421E-23
4.59284E-02 3.21816E-23
4.68461E-02 3.08888E-23
4.87074E-02 2.84909E-23
5.06030E-02 2.63193E-23
5.25328E-02 2.43492E-23
5.44967E-02 2.25585E-23
5.64946E-02 2.09280E-23
5.85262E-02 1.94410E-23
6.05914E-02 1.80826E-23
6.26901E-02 1.68397E-23
6.48222E-02 1.57007E-23
6.69873E-02 1.46556E-23
6.91854E-02 1.36951E-23
7.14163E-02 1.28112E-23
7.36799E-02 1.19968E-23
7.59760E-02 1.12454E-23
7.83043E-02 1.05513E-23
8.06647E-02 9.90930E-24
8.30571E-02 9.31485E-24
8.54812E-02 8.76380E-24
8.79369E-02 8.25241E-24
9.04240E-02 7.77733E-24
9.29422E-02 7.33553E-24
9.54915E-02 6.92425E-24
9.80716E-02 6.54102E-24
1.00682E-01 6.18358E-24
1.03323E-01 5.84989E-24
1.05995E-01 5.53809E-24
1.08696E-01 5.24649E-24
1.11427E-01 4.97356E-24
1.14188E-01 4.71787E-24
1.16978E-01 4.47816E-24
1.19797E-01 4.25323E-24
1.22645E-01 4.04203E-24
1.25522E-01 3.84356E-24
1.28428E-01 3.65692E-24
1.31361E-01 3.48127E-24
1.34323E-01 3.31586E-24
1.37313E-01 3.15999E-24
1.40330E-01 3.01299E-24
1.43375E-01 2.87429E-24
1.46447E-01 2.74332E-24
1.49545E-01 2.61959E-24
1.52671E-01 2.50261E-24
1.55823E-01 2.39196E-24
1.59001E-01 2.28723E-24
1.62205E-01 2.18804E-24
1.65435E-01 2.09406E-24
1.68690E-01 2.00496E-24
1.71970E-01 1.92044E-24
1.75276E-01 1.84022E-24
1.78606E-01 1.76406E-24
1.81961E-01 1.69169E-24
1.85340E-01 1.62291E-24
1.88743E-01 1.55750E-24
1.92169E-01 1.49527E-24
1.95619E-01 1.43604E-24
1.99092E-01 1.37963E-24
2.02589E-01 1.32589E-24
2.06107E-01 1.27467E-24
2.09649E-01 1.22583E-24
2.13212E-01 1.17924E-24
2.16797E-01 1.13478E-24
2.20404E-01 1.09233E-24
2.24032E-01 1.05178E-24
2.27680E-01 1.01305E-24
2.31350E-01 9.76019E-25
2.35040E-01 9.40613E-25
2.38751E-01 9.06746E-25
2.42481E-01 8.74338E-25
2.46231E-01 8.43316E-25
2.50000E-01 8.13610E-25
2.53788E-01 7.85153E-25
2.57595E-01 7.57886E-25
2.61421E-01 7.31748E-25
2.65264E-01 7.06685E-25
2.69126E-01 6.82645E-25
2.73005E-01 6.59578E-25
2.76901E-01 6.37440E-25
2.80814E-01 6.16184E-25
2.84744E-01 5.95771E-25
2.88691E-01 5.76161E-25
2.92653E-01 5.57317E-25
2.96632E-01 5.39203E-25
3.00625E-01 5.21787E-25
3.04634E-01 5.05036E-25
3.08658E-01 4.88922E-25
3.12697E-01 4.73415E-25
3.16749E-01 4.58489E-25
3.20816E-01 4.44118E-25
3.24896E-01 4.30278E-25
3.28990E-01 4.16945E-25
3.33097E-01 4.04099E-25
3.37216E-01 3.91718E-25
3.41348E-01 3.79783E-25
3.45492E-01 3.68274E-25
3.49647E-01 3.57174E-25
3.53814E-01 3.46465E-25
3.57992E-01 3.36133E-25
3.62181E-01 3.26160E-25
3.66381E-01 3.16533E-25
3.70590E-01 3.07237E-25
3.74810E-01 2.98259E-25
3.79039E-01 2.89586E-25
3.83277E-01 2.81206E-25
3.87524E-01 2.73108E-25
3.91780E-01 2.65281E-25
3.96044E-01 2.57713E-25
4.00316E-01 2.50395E-25
4.04596E-01 2.43317E-25
4.08882E-01 2.36470E-25
4.13176E-01 2.29845E-25
4.17476E-01 2.23434E-25
4.21783E-01 2.17228E-25
4.26095E-01 2.11221E-25
4.30413E-01 2.05403E-25
4.34737E-01 1.99770E-25
4.39065E-01 1.94313E-25
4.43398E-01 1.89026E-25
4.47736E-01 1.83903E-25
4.52077E-01 1.78939E-25
4.56422E-01 1.74126E-25
4.60770E-01 1.69461E-25
4.65122E-01 1.64937E-25
4.69476E-01 1.60551E-25
4.73832E-01 1.56296E-25
4.78190E-01 1.52168E-25
4.82550E-01 1.48163E-25
4.86912E-01 1.44277E-25
4.91274E-01 1.40505E-25
4.95637E-01 1.36844E-25
5.00000E-01 1.33289E-25
5.04363E-01 1.29838E-25
5.08726E-01 1.26486E-25
5.13088E-01 1.23231E-25
5.17450E-01 1.20069E-25
5.21810E-01 1.16997E-25
5.26168E-01 1.14012E-25
5.30524E-01 1.11111E-25
5.34878E-01 1.08291E-25
5.39230E-01 1.05551E-25
5.43578E-01 1.02886E-25
5.47923E-01 1.00295E-25
5.52264E-01 9.77763E-26
5.56602E-01 9.53261E-26
5.60935E-01 9.29430E-26
5.65263E-01 9.06246E-26
5.69587E-01 8.83691E-26
5.73905E-01 8.61743E-26
5.78217E-01 8.40385E-26
5.82524E-01 8.19598E-26
5.86824E-01 7.99364E-26
5.91118E-01 7.79666E-26
5.95404E-01 7.60489E-26
5.99684E-01 7.41816E-26
6.03956E-01 7.23632E-26
6.08220E-01 7.05922E-26
6.12476E-01 6.88672E-26
6.16723E-01 6.71868E-26
6.20961E-01 6.55497E-26
6.25190E-01 6.39547E-26
6.29410E-01 6.24004E-26
6.33619E-01 6.08857E-26
6.37819E-01 5.94095E-26
6.42008E-01 5.79705E-26
6.46186E-01 5.65679E-26
6.50353E-01 5.52004E-26
6.54508E-01 5.38671E-26
6.58652E-01 5.25670E-26
6.62784E-01 5.12992E-26
6.66903E-01 5.00627E-26
6.71010E-01 4.88568E-26
6.75104E-01 4.76804E-26
6.79184E-01 4.65329E-26
6.83251E-01 4.54134E-26
6.87303E-01 4.43210E-26
6.91342E-01 4.32552E-26
6.95366E-01 4.22151E-26
6.99375E-01 4.12001E-26
7.03368E-01 4.02094E-26
7.07347E-01 3.92424E-26
7.11309E-01 3.82985E-26
7.15256E-01 3.73771E-26
7.19186E-01 3.64775E-26
7.23099E-01 3.55992E-26
7.26995E-01 3.47416E-26
7.30874E-01 3.39042E-26
7.34736E-01 3.30864E-26
7.38579E-01 3.22877E-26
7.42405E-01 3.15077E-26
7.46212E-01 3.07458E-26
7.50000E-01 3.00016E-26
7.53769E-01 2.92746E-26
7.57519E-01 2.85644E-26
7.61249E-01 2.78706E-26
7.64960E-01 2.71926E-26
7.68650E-01 2.65303E-26
7.72320E-01 2.58831E-26
7.75968E-01 2.52506E-26
7.79596E-01 2.46326E-26
7.83203E-01 2.40286E-26
7.86788E-01 2.34383E-26
7.90351E-01 2.28614E-26
7.93893E-01 2.22976E-26
7.97411E-01 2.17464E-26
8.00908E-01 2.12077E-26
8.04381E-01 2.06811E-26
8.07831E-01 2.01663E-26
8.11257E-01 1.96630E-26
8.14660E-01 1.91711E-26
8.18039E-01 1.86901E-26
8.21394E-01 1.82199E-26
8.24724E-01 1.77601E-26
8.28030E-01 1.73107E-26
8.31310E-01 1.68712E-26
8.34565E-01 1.64415E-26
8.37795E-01 1.60214E-26
8.40999E-01 1.56106E-26
8.44177E-01 1.52089E-26
8.47329E-01 1.48162E-26
8.50455E-01 1.44321E-26
8.53553E-01 1.40566E-26
8.56625E-01 1.36894E-26
8.59670E-01 1.33304E-26
8.62687E-01 1.29794E-26
8.65677E-01 1.26361E-26
8.68639E-01 1.23005E-26
8.71572E-01 1.19723E-26
8.74478E-01 1.16515E-26
8.77355E-01 1.13377E-26
8.80203E-01 1.10310E-26
8.83022E-01 1.07311E-26
8.85812E-01 1.04380E-26
8.88573E-01 1.01513E-26
8.91304E-01 9.87115E-27
8.94005E-01 9.59725E-27
8.96677E-01 9.32953E-27
8.99318E-01 9.06784E-27
9.01928E-01 8.81207E-27
9.04508E-01 8.56210E-27
9.07058E-01 8.31782E-27
9.09576E-01 8.07911E-27
9.12063E-01 7.84587E-27
9.14519E-01 7.61798E-27
9.16943E-01 7.39535E-27
9.19335E-01 7.17787E-27
9.21696E-01 6.96546E-27
9.24024E-01 6.75800E-27
9.26320E-01 6.55541E-27
9.28584E-01 6.35761E-27
9.30815E-01 6.16449E-27
9.33013E-01 5.97599E-27
9.35178E-01 5.79201E-27
9.37310E-01 5.61247E-27
9.39409E-01 5.43730E-27
9.41474E-01 5.26643E-27
9.43505E-01 5.09977E-27
9.45503E-01 4.93726E-27
9.47467E-01 4.77882E-27
9.49397E-01 4.62439E-27
9.51293E-01 4.47391E-27
9.53154E-01 4.32731E-27
9.54981E-01 4.18452E-27
9.56773E-01 4.04549E-27
9.58530E-01 3.91016E-27
9.60252E-01 3.77847E-27
9.61940E-01 3.65037E-27
9.63592E-01 3.52581E-27
9.65209E-01 3.40473E-27
9.66790E-01 3.28708E-27
9.68336E-01 3.17281E-27
9.69846E-01 3.06188E-27
9.71321E-01 2.95425E-27
9.72759E-01 2.84986E-27
9.74162E-01 2.74868E-27
9.75528E-01 2.65066E-27
9.76858E-01 2.55577E-27
9.78152E-01 2.46397E-27
9.79410E-01 2.37521E-27
9.80631E-01 2.28947E-27
9.81815E-01 2.20670E-27
9.82963E-01 2.12688E-27
9.84074E-01 2.04998E-27
9.85148E-01 1.97596E-27
9.86185E-01 1.90479E-27
9.87185E-01 1.83645E-27
9.88148E-01 1.77091E-27
9.89074E-01 1.70814E-27
9.89962E-01 1.64812E-27
9.90814E-01 1.59082E-27
9.91627E-01 1.53622E-27
9.92404E-01 1.48431E-27
9.93143E-01 1.43505E-27
9.93844E-01 1.38843E-27
9.94508E-01 1.34444E-27
9.95134E-01 1.30305E-27
9.95722E-01 1.26425E-27
9.96273E-01 1.22802E-27
9.96786E-01 1.19435E-27
9.97261E-01 1.16323E-27
9.97698E-01 1.13464E-27
9.98097E-01 1.10857E-27
9.98459E-01 1.08502E-27
9.98782E-01 1.06397E-27
9.99067E-01 1.04542E-27
9.99315E-01 1.02935E-27
9.99524E-01 1.01577E-27
9.99695E-01 1.00466E-27
9.99829E-01 9.96029E-28
9.99924E-01 9.89865E-28
9.99981E-01 9.86167E-28
1.00000E+00 9.84935E-28
