 #
 # Subroutine ELSEPA. Elastic scattering of electrons and positrons
 #                    by neutral atoms and positive ions
 #
 # Projectile: positron
 # Kinetic energy = 7.00000E+06 eV = 2.57245E+05 a.u.
 #
 # WARNING: High-energy factorization with free-atom DF screening.
 #          Absorption, polarization and exchange corrections are
 #          switched off.
 #          Phase shifts are calculated for the bare nucleus.
 #          Scattering amplitudes are not evaluated.
 #
 # Element: Cl,  Z =  17,  atomic weight = 3.54527E+01 g/mol
 #
 # Nuclear model: Fermi distribution
 #                Average radius = 3.51507E-13 cm
 #                Skin thickness = 5.46000E-14 cm
 #
 # Number of electrons = 17
 #
 # Total elastic cross section = 1.10640E-18 cm**2 = 3.95102E-02 a0**2
 # 1st transport cross section = 7.97793E-24 cm**2 = 2.84897E-07 a0**2
 # 2nd transport cross section = 2.30299E-23 cm**2 = 8.22413E-07 a0**2
 #
 #
 # Differential cross section:                       MU=(1-COS(THETA))/2
 #
 #  THETA        MU          DCS          DCS        Sherman      error
 #  (deg)                 (cm**2/sr)   (a0**2/sr)    function
 #----------------------------------------------------------------------
0.00000E+00 5.08423E-13
7.61557E-13 5.08418E-13
1.18994E-12 5.08415E-13
1.71346E-12 5.08412E-13
2.33225E-12 5.08408E-13
3.04617E-12 5.08404E-13
3.85530E-12 5.08400E-13
4.75964E-12 5.08394E-13
5.75917E-12 5.08389E-13
6.85391E-12 5.08382E-13
8.04379E-12 5.08376E-13
9.32893E-12 5.08368E-13
1.07092E-11 5.08361E-13
1.21847E-11 5.08352E-13
1.37554E-11 5.08343E-13
1.54213E-11 5.08334E-13
1.71823E-11 5.08324E-13
1.90386E-11 5.08314E-13
2.09900E-11 5.08303E-13
2.30367E-11 5.08291E-13
2.51785E-11 5.08279E-13
2.74156E-11 5.08267E-13
2.97478E-11 5.08254E-13
3.21752E-11 5.08240E-13
3.46979E-11 5.08226E-13
3.73157E-11 5.08211E-13
4.00286E-11 5.08196E-13
4.28368E-11 5.08181E-13
4.57402E-11 5.08165E-13
4.87388E-11 5.08148E-13
5.18325E-11 5.08131E-13
5.50215E-11 5.08113E-13
5.83057E-11 5.08095E-13
6.16850E-11 5.08076E-13
6.51595E-11 5.08057E-13
6.87293E-11 5.08037E-13
7.23943E-11 5.08016E-13
7.61544E-11 5.07996E-13
1.18991E-10 5.07758E-13
1.71347E-10 5.07469E-13
2.33223E-10 5.07128E-13
3.04617E-10 5.06736E-13
3.85531E-10 5.06291E-13
4.75965E-10 5.05796E-13
5.75917E-10 5.05249E-13
6.85389E-10 5.04652E-13
8.04380E-10 5.04004E-13
9.32891E-10 5.03305E-13
1.07092E-09 5.02557E-13
1.21847E-09 5.01758E-13
1.37554E-09 5.00911E-13
1.54213E-09 5.00013E-13
1.71823E-09 4.99069E-13
1.90386E-09 4.98074E-13
2.09900E-09 4.97033E-13
2.30367E-09 4.95943E-13
2.51785E-09 4.94808E-13
2.74156E-09 4.93624E-13
2.97478E-09 4.92396E-13
3.21752E-09 4.91121E-13
3.46978E-09 4.89802E-13
3.73156E-09 4.88438E-13
4.00286E-09 4.87030E-13
4.28368E-09 4.85580E-13
4.57402E-09 4.84085E-13
4.87388E-09 4.82550E-13
5.18326E-09 4.80970E-13
5.50215E-09 4.79355E-13
5.83057E-09 4.77692E-13
6.16850E-09 4.75998E-13
6.51596E-09 4.74256E-13
6.87293E-09 4.72485E-13
7.23942E-09 4.70666E-13
7.61544E-09 4.68819E-13
1.18991E-08 4.48429E-13
1.71347E-08 4.25155E-13
2.33223E-08 3.99774E-13
3.04617E-08 3.72195E-13
3.85531E-08 3.44744E-13
4.75965E-08 3.17329E-13
5.75917E-08 2.90686E-13
6.85389E-08 2.64595E-13
8.04380E-08 2.40363E-13
9.32891E-08 2.16927E-13
1.07092E-07 1.95890E-13
1.21847E-07 1.75728E-13
1.37554E-07 1.58068E-13
1.54213E-07 1.41269E-13
1.71823E-07 1.26763E-13
1.90386E-07 1.13124E-13
2.09900E-07 1.01345E-13
2.30367E-07 9.05142E-14
2.51785E-07 8.10844E-14
2.74156E-07 7.25506E-14
2.97478E-07 6.50702E-14
3.21752E-07 5.83734E-14
3.46978E-07 5.24699E-14
3.73156E-07 4.72199E-14
4.00286E-07 4.25701E-14
4.28368E-07 3.84489E-14
4.57402E-07 3.47845E-14
4.87388E-07 3.15393E-14
5.18325E-07 2.86440E-14
5.50215E-07 2.60772E-14
5.83057E-07 2.37800E-14
6.16850E-07 2.17384E-14
6.51596E-07 1.99063E-14
6.87293E-07 1.82720E-14
7.23942E-07 1.68011E-14
7.61543E-07 1.54829E-14
1.18991E-06 7.56257E-15
1.71347E-06 4.26874E-15
2.33223E-06 2.64483E-15
3.04617E-06 1.73349E-15
3.85531E-06 1.18465E-15
4.75964E-06 8.32040E-16
5.75916E-06 5.97737E-16
6.85388E-06 4.38460E-16
8.04378E-06 3.27409E-16
9.32888E-06 2.48491E-16
1.07092E-05 1.91602E-16
1.21846E-05 1.49870E-16
1.37553E-05 1.18768E-16
1.54212E-05 9.52939E-17
1.71822E-05 7.73293E-17
1.90385E-05 6.33977E-17
2.09899E-05 5.24803E-17
2.30365E-05 4.38254E-17
2.51783E-05 3.68907E-17
2.74153E-05 3.12836E-17
2.97475E-05 2.67100E-17
3.21749E-05 2.29479E-17
3.46974E-05 1.98304E-17
3.73152E-05 1.72289E-17
4.00281E-05 1.50432E-17
4.28362E-05 1.31955E-17
4.57395E-05 1.16248E-17
4.87380E-05 1.02821E-17
5.18317E-05 9.12845E-18
5.50205E-05 8.13287E-18
5.83045E-05 7.26978E-18
6.16838E-05 6.51841E-18
6.51582E-05 5.86194E-18
6.87277E-05 5.28623E-18
7.23925E-05 4.77949E-18
7.61524E-05 4.33211E-18
9.21439E-05 2.99026E-18
1.09658E-04 2.12937E-18
1.28695E-04 1.55662E-18
1.49255E-04 1.16367E-18
1.71338E-04 8.86934E-19
1.94942E-04 6.87551E-19
2.20070E-04 5.41021E-19
2.46720E-04 4.31423E-19
2.74892E-04 3.48147E-19
3.04586E-04 2.83979E-19
3.35803E-04 2.33900E-19
3.68542E-04 1.94364E-19
4.02802E-04 1.62821E-19
4.38585E-04 1.37412E-19
4.75889E-04 1.16762E-19
5.14715E-04 9.98412E-20
5.55063E-04 8.58722E-20
5.96931E-04 7.42585E-20
6.40321E-04 6.45402E-20
6.85233E-04 5.63583E-20
7.31665E-04 4.94308E-20
7.79618E-04 4.35341E-20
8.29092E-04 3.84897E-20
8.80086E-04 3.41541E-20
9.32601E-04 3.04113E-20
9.86636E-04 2.71666E-20
1.04219E-03 2.43428E-20
1.09927E-03 2.18760E-20
1.15786E-03 1.97134E-20
1.21797E-03 1.78112E-20
1.27961E-03 1.61327E-20
1.34276E-03 1.46471E-20
1.40743E-03 1.33283E-20
1.47362E-03 1.21545E-20
1.54133E-03 1.11069E-20
1.61056E-03 1.01696E-20
1.68131E-03 9.32901E-21
1.75357E-03 8.57336E-21
1.82735E-03 7.89258E-21
1.90265E-03 7.27795E-21
1.97947E-03 6.72191E-21
2.05780E-03 6.21789E-21
2.13765E-03 5.76016E-21
2.21902E-03 5.34373E-21
2.30190E-03 4.96419E-21
2.38630E-03 4.61771E-21
2.47222E-03 4.30088E-21
2.55965E-03 4.01072E-21
2.64859E-03 3.74458E-21
2.73905E-03 3.50012E-21
2.83103E-03 3.27525E-21
2.92452E-03 3.06812E-21
3.01952E-03 2.87706E-21
3.11604E-03 2.70059E-21
3.21407E-03 2.53743E-21
3.31362E-03 2.38638E-21
3.41468E-03 2.24639E-21
3.51725E-03 2.11649E-21
3.62133E-03 1.99583E-21
3.72692E-03 1.88363E-21
3.83403E-03 1.77919E-21
3.94265E-03 1.68188E-21
4.05278E-03 1.59112E-21
4.16442E-03 1.50638E-21
4.27757E-03 1.42720E-21
4.39223E-03 1.35314E-21
4.50840E-03 1.28382E-21
4.62608E-03 1.21887E-21
4.74527E-03 1.15796E-21
4.86597E-03 1.10081E-21
4.98817E-03 1.04713E-21
5.11188E-03 9.96671E-22
5.23711E-03 9.49211E-22
5.36383E-03 9.04537E-22
5.49207E-03 8.62454E-22
5.62181E-03 8.22784E-22
5.75306E-03 7.85364E-22
5.88581E-03 7.50041E-22
6.02007E-03 7.16678E-22
6.15583E-03 6.85144E-22
6.29310E-03 6.55322E-22
6.43187E-03 6.27100E-22
6.57214E-03 6.00377E-22
6.71392E-03 5.75059E-22
6.85720E-03 5.51059E-22
7.00198E-03 5.28293E-22
7.14827E-03 5.06689E-22
7.29605E-03 4.86174E-22
7.44534E-03 4.66684E-22
7.59612E-03 4.48159E-22
7.97965E-03 4.05701E-22
8.37255E-03 3.68141E-22
8.77480E-03 3.34816E-22
9.18641E-03 3.05168E-22
9.60736E-03 2.78720E-22
1.00376E-02 2.55068E-22
1.04773E-02 2.33864E-22
1.09262E-02 2.14812E-22
1.13844E-02 1.97655E-22
1.18520E-02 1.82171E-22
1.23288E-02 1.68169E-22
1.28150E-02 1.55483E-22
1.33104E-02 1.43966E-22
1.38150E-02 1.33492E-22
1.43290E-02 1.23950E-22
1.48521E-02 1.15242E-22
1.53845E-02 1.07282E-22
1.59262E-02 9.99958E-23
1.64770E-02 9.33149E-23
1.70371E-02 8.71804E-23
1.76063E-02 8.15398E-23
1.81848E-02 7.63460E-23
1.87724E-02 7.15574E-23
1.93692E-02 6.71368E-23
1.99751E-02 6.30508E-23
2.05901E-02 5.92694E-23
2.12143E-02 5.57660E-23
2.18476E-02 5.25164E-23
2.24900E-02 4.94990E-23
2.31415E-02 4.66940E-23
2.38021E-02 4.40840E-23
2.44717E-02 4.16528E-23
2.51504E-02 3.93861E-23
2.58382E-02 3.72706E-23
2.65349E-02 3.52945E-23
2.72407E-02 3.34469E-23
2.79555E-02 3.17180E-23
2.86793E-02 3.00987E-23
2.94120E-02 2.85808E-23
3.01537E-02 2.71568E-23
3.09043E-02 2.58199E-23
3.16639E-02 2.45637E-23
3.24324E-02 2.33826E-23
3.32098E-02 2.22711E-23
3.39961E-02 2.12245E-23
3.47912E-02 2.02382E-23
3.55952E-02 1.93082E-23
3.64081E-02 1.84306E-23
3.72297E-02 1.76020E-23
3.80602E-02 1.68191E-23
3.88995E-02 1.60789E-23
3.97476E-02 1.53787E-23
4.06044E-02 1.47159E-23
4.14700E-02 1.40882E-23
4.23443E-02 1.34934E-23
4.32273E-02 1.29294E-23
4.41190E-02 1.23943E-23
4.50194E-02 1.18864E-23
4.59284E-02 1.14040E-23
4.68461E-02 1.09457E-23
4.87074E-02 1.00955E-23
5.06030E-02 9.32564E-24
5.25328E-02 8.62718E-24
5.44967E-02 7.99235E-24
5.64946E-02 7.41435E-24
5.85262E-02 6.88720E-24
6.05914E-02 6.40565E-24
6.26901E-02 5.96507E-24
6.48222E-02 5.56135E-24
6.69873E-02 5.19089E-24
6.91854E-02 4.85045E-24
7.14163E-02 4.53717E-24
7.36799E-02 4.24851E-24
7.59760E-02 3.98220E-24
7.83043E-02 3.73619E-24
8.06647E-02 3.50867E-24
8.30571E-02 3.29801E-24
8.54812E-02 3.10273E-24
8.79369E-02 2.92151E-24
9.04240E-02 2.75316E-24
9.29422E-02 2.59661E-24
9.54915E-02 2.45088E-24
9.80716E-02 2.31509E-24
1.00682E-01 2.18844E-24
1.03323E-01 2.07022E-24
1.05995E-01 1.95975E-24
1.08696E-01 1.85644E-24
1.11427E-01 1.75975E-24
1.14188E-01 1.66917E-24
1.16978E-01 1.58426E-24
1.19797E-01 1.50458E-24
1.22645E-01 1.42977E-24
1.25522E-01 1.35947E-24
1.28428E-01 1.29336E-24
1.31361E-01 1.23115E-24
1.34323E-01 1.17257E-24
1.37313E-01 1.11737E-24
1.40330E-01 1.06531E-24
1.43375E-01 1.01619E-24
1.46447E-01 9.69817E-25
1.49545E-01 9.26002E-25
1.52671E-01 8.84583E-25
1.55823E-01 8.45404E-25
1.59001E-01 8.08323E-25
1.62205E-01 7.73208E-25
1.65435E-01 7.39936E-25
1.68690E-01 7.08394E-25
1.71970E-01 6.78474E-25
1.75276E-01 6.50080E-25
1.78606E-01 6.23119E-25
1.81961E-01 5.97506E-25
1.85340E-01 5.73162E-25
1.88743E-01 5.50013E-25
1.92169E-01 5.27990E-25
1.95619E-01 5.07028E-25
1.99092E-01 4.87067E-25
2.02589E-01 4.68051E-25
2.06107E-01 4.49927E-25
2.09649E-01 4.32647E-25
2.13212E-01 4.16163E-25
2.16797E-01 4.00432E-25
2.20404E-01 3.85415E-25
2.24032E-01 3.71073E-25
2.27680E-01 3.57370E-25
2.31350E-01 3.44273E-25
2.35040E-01 3.31750E-25
2.38751E-01 3.19772E-25
2.42481E-01 3.08311E-25
2.46231E-01 2.97340E-25
2.50000E-01 2.86835E-25
2.53788E-01 2.76773E-25
2.57595E-01 2.67131E-25
2.61421E-01 2.57890E-25
2.65264E-01 2.49029E-25
2.69126E-01 2.40530E-25
2.73005E-01 2.32376E-25
2.76901E-01 2.24550E-25
2.80814E-01 2.17037E-25
2.84744E-01 2.09822E-25
2.88691E-01 2.02891E-25
2.92653E-01 1.96232E-25
2.96632E-01 1.89830E-25
3.00625E-01 1.83676E-25
3.04634E-01 1.77757E-25
3.08658E-01 1.72064E-25
3.12697E-01 1.66585E-25
3.16749E-01 1.61312E-25
3.20816E-01 1.56235E-25
3.24896E-01 1.51347E-25
3.28990E-01 1.46637E-25
3.33097E-01 1.42100E-25
3.37216E-01 1.37728E-25
3.41348E-01 1.33513E-25
3.45492E-01 1.29448E-25
3.49647E-01 1.25529E-25
3.53814E-01 1.21748E-25
3.57992E-01 1.18100E-25
3.62181E-01 1.14579E-25
3.66381E-01 1.11181E-25
3.70590E-01 1.07899E-25
3.74810E-01 1.04731E-25
3.79039E-01 1.01670E-25
3.83277E-01 9.87124E-26
3.87524E-01 9.58547E-26
3.91780E-01 9.30926E-26
3.96044E-01 9.04224E-26
4.00316E-01 8.78405E-26
4.04596E-01 8.53435E-26
4.08882E-01 8.29281E-26
4.13176E-01 8.05913E-26
4.17476E-01 7.83299E-26
4.21783E-01 7.61413E-26
4.26095E-01 7.40226E-26
4.30413E-01 7.19713E-26
4.34737E-01 6.99848E-26
4.39065E-01 6.80607E-26
4.43398E-01 6.61968E-26
4.47736E-01 6.43909E-26
4.52077E-01 6.26409E-26
4.56422E-01 6.09447E-26
4.60770E-01 5.93005E-26
4.65122E-01 5.77063E-26
4.69476E-01 5.61604E-26
4.73832E-01 5.46611E-26
4.78190E-01 5.32067E-26
4.82550E-01 5.17958E-26
4.86912E-01 5.04267E-26
4.91274E-01 4.90981E-26
4.95637E-01 4.78085E-26
5.00000E-01 4.65566E-26
5.04363E-01 4.53412E-26
5.08726E-01 4.41610E-26
5.13088E-01 4.30148E-26
5.17450E-01 4.19014E-26
5.21810E-01 4.08199E-26
5.26168E-01 3.97691E-26
5.30524E-01 3.87480E-26
5.34878E-01 3.77557E-26
5.39230E-01 3.67912E-26
5.43578E-01 3.58536E-26
5.47923E-01 3.49420E-26
5.52264E-01 3.40557E-26
5.56602E-01 3.31937E-26
5.60935E-01 3.23554E-26
5.65263E-01 3.15399E-26
5.69587E-01 3.07466E-26
5.73905E-01 2.99748E-26
5.78217E-01 2.92237E-26
5.82524E-01 2.84928E-26
5.86824E-01 2.77814E-26
5.91118E-01 2.70890E-26
5.95404E-01 2.64148E-26
5.99684E-01 2.57585E-26
6.03956E-01 2.51194E-26
6.08220E-01 2.44970E-26
6.12476E-01 2.38909E-26
6.16723E-01 2.33005E-26
6.20961E-01 2.27253E-26
6.25190E-01 2.21650E-26
6.29410E-01 2.16191E-26
6.33619E-01 2.10871E-26
6.37819E-01 2.05686E-26
6.42008E-01 2.00633E-26
6.46186E-01 1.95708E-26
6.50353E-01 1.90907E-26
6.54508E-01 1.86227E-26
6.58652E-01 1.81663E-26
6.62784E-01 1.77213E-26
6.66903E-01 1.72874E-26
6.71010E-01 1.68642E-26
6.75104E-01 1.64514E-26
6.79184E-01 1.60488E-26
6.83251E-01 1.56561E-26
6.87303E-01 1.52729E-26
6.91342E-01 1.48991E-26
6.95366E-01 1.45343E-26
6.99375E-01 1.41784E-26
7.03368E-01 1.38310E-26
7.07347E-01 1.34920E-26
7.11309E-01 1.31611E-26
7.15256E-01 1.28381E-26
7.19186E-01 1.25228E-26
7.23099E-01 1.22150E-26
7.26995E-01 1.19145E-26
7.30874E-01 1.16210E-26
7.34736E-01 1.13345E-26
7.38579E-01 1.10547E-26
7.42405E-01 1.07815E-26
7.46212E-01 1.05147E-26
7.50000E-01 1.02540E-26
7.53769E-01 9.99945E-27
7.57519E-01 9.75077E-27
7.61249E-01 9.50786E-27
7.64960E-01 9.27054E-27
7.68650E-01 9.03870E-27
7.72320E-01 8.81218E-27
7.75968E-01 8.59085E-27
7.79596E-01 8.37459E-27
7.83203E-01 8.16326E-27
7.86788E-01 7.95675E-27
7.90351E-01 7.75494E-27
7.93893E-01 7.55771E-27
7.97411E-01 7.36495E-27
8.00908E-01 7.17655E-27
8.04381E-01 6.99241E-27
8.07831E-01 6.81242E-27
8.11257E-01 6.63649E-27
8.14660E-01 6.46452E-27
8.18039E-01 6.29640E-27
8.21394E-01 6.13207E-27
8.24724E-01 5.97141E-27
8.28030E-01 5.81435E-27
8.31310E-01 5.66081E-27
8.34565E-01 5.51070E-27
8.37795E-01 5.36394E-27
8.40999E-01 5.22046E-27
8.44177E-01 5.08018E-27
8.47329E-01 4.94302E-27
8.50455E-01 4.80893E-27
8.53553E-01 4.67783E-27
8.56625E-01 4.54965E-27
8.59670E-01 4.42432E-27
8.62687E-01 4.30179E-27
8.65677E-01 4.18200E-27
8.68639E-01 4.06487E-27
8.71572E-01 3.95037E-27
8.74478E-01 3.83842E-27
8.77355E-01 3.72897E-27
8.80203E-01 3.62198E-27
8.83022E-01 3.51738E-27
8.85812E-01 3.41513E-27
8.88573E-01 3.31518E-27
8.91304E-01 3.21748E-27
8.94005E-01 3.12198E-27
8.96677E-01 3.02864E-27
8.99318E-01 2.93742E-27
9.01928E-01 2.84826E-27
9.04508E-01 2.76114E-27
9.07058E-01 2.67601E-27
9.09576E-01 2.59283E-27
9.12063E-01 2.51155E-27
9.14519E-01 2.43216E-27
9.16943E-01 2.35460E-27
9.19335E-01 2.27884E-27
9.21696E-01 2.20485E-27
9.24024E-01 2.13259E-27
9.26320E-01 2.06204E-27
9.28584E-01 1.99316E-27
9.30815E-01 1.92592E-27
9.33013E-01 1.86028E-27
9.35178E-01 1.79623E-27
9.37310E-01 1.73373E-27
9.39409E-01 1.67276E-27
9.41474E-01 1.61328E-27
9.43505E-01 1.55528E-27
9.45503E-01 1.49873E-27
9.47467E-01 1.44359E-27
9.49397E-01 1.38986E-27
9.51293E-01 1.33750E-27
9.53154E-01 1.28650E-27
9.54981E-01 1.23682E-27
9.56773E-01 1.18846E-27
9.58530E-01 1.14139E-27
9.60252E-01 1.09559E-27
9.61940E-01 1.05104E-27
9.63592E-01 1.00772E-27
9.65209E-01 9.65615E-28
9.66790E-01 9.24706E-28
9.68336E-01 8.84977E-28
9.69846E-01 8.46411E-28
9.71321E-01 8.08991E-28
9.72759E-01 7.72703E-28
9.74162E-01 7.37531E-28
9.75528E-01 7.03461E-28
9.76858E-01 6.70479E-28
9.78152E-01 6.38571E-28
9.79410E-01 6.07725E-28
9.80631E-01 5.77928E-28
9.81815E-01 5.49167E-28
9.82963E-01 5.21431E-28
9.84074E-01 4.94710E-28
9.85148E-01 4.68991E-28
9.86185E-01 4.44265E-28
9.87185E-01 4.20522E-28
9.88148E-01 3.97752E-28
9.89074E-01 3.75946E-28
9.89962E-01 3.55095E-28
9.90814E-01 3.35191E-28
9.91627E-01 3.16227E-28
9.92404E-01 2.98194E-28
9.93143E-01 2.81085E-28
9.93844E-01 2.64894E-28
9.94508E-01 2.49614E-28
9.95134E-01 2.35239E-28
9.95722E-01 2.21763E-28
9.96273E-01 2.09182E-28
9.96786E-01 1.97489E-28
9.97261E-01 1.86681E-28
9.97698E-01 1.76753E-28
9.98097E-01 1.67702E-28
9.98459E-01 1.59523E-28
9.98782E-01 1.52214E-28
9.99067E-01 1.45771E-28
9.99315E-01 1.40193E-28
9.99524E-01 1.35476E-28
9.99695E-01 1.31620E-28
9.99829E-01 1.28622E-28
9.99924E-01 1.26481E-28
9.99981E-01 1.25197E-28
1.00000E+00 1.24770E-28
