 #
 # Subroutine ELSEPA. Elastic scattering of electrons and positrons
 #                    by neutral atoms and positive ions
 #
 # Projectile: positron
 # Kinetic energy = 3.50000E+07 eV = 1.28623E+06 a.u.
 #
 # WARNING: High-energy factorization with free-atom DF screening.
 #          Absorption, polarization and exchange corrections are
 #          switched off.
 #          Phase shifts are calculated for the bare nucleus.
 #          Scattering amplitudes are not evaluated.
 #
 # Element: Cl,  Z =  17,  atomic weight = 3.54527E+01 g/mol
 #
 # Nuclear model: Fermi distribution
 #                Average radius = 3.51507E-13 cm
 #                Skin thickness = 5.46000E-14 cm
 #
 # Number of electrons = 17
 #
 # Total elastic cross section = 1.10061E-18 cm**2 = 3.93034E-02 a0**2
 # 1st transport cross section = 4.41843E-25 cm**2 = 1.57785E-08 a0**2
 # 2nd transport cross section = 1.29012E-24 cm**2 = 4.60711E-08 a0**2
 #
 #
 # Differential cross section:                       MU=(1-COS(THETA))/2
 #
 #  THETA        MU          DCS          DCS        Sherman      error
 #  (deg)                 (cm**2/sr)   (a0**2/sr)    function
 #----------------------------------------------------------------------
0.00000E+00 1.13646E-11
7.61557E-13 1.13624E-11
1.18994E-12 1.13612E-11
1.71346E-12 1.13598E-11
2.33225E-12 1.13581E-11
3.04617E-12 1.13561E-11
3.85530E-12 1.13538E-11
4.75964E-12 1.13513E-11
5.75917E-12 1.13485E-11
6.85391E-12 1.13455E-11
8.04379E-12 1.13422E-11
9.32893E-12 1.13387E-11
1.07092E-11 1.13349E-11
1.21847E-11 1.13308E-11
1.37554E-11 1.13265E-11
1.54213E-11 1.13219E-11
1.71823E-11 1.13170E-11
1.90386E-11 1.13119E-11
2.09900E-11 1.13066E-11
2.30367E-11 1.13009E-11
2.51785E-11 1.12951E-11
2.74156E-11 1.12889E-11
2.97478E-11 1.12826E-11
3.21752E-11 1.12759E-11
3.46979E-11 1.12690E-11
3.73157E-11 1.12619E-11
4.00286E-11 1.12545E-11
4.28368E-11 1.12468E-11
4.57402E-11 1.12389E-11
4.87388E-11 1.12308E-11
5.18325E-11 1.12224E-11
5.50215E-11 1.12137E-11
5.83057E-11 1.12048E-11
6.16850E-11 1.11957E-11
6.51595E-11 1.11863E-11
6.87293E-11 1.11767E-11
7.23943E-11 1.11668E-11
7.61544E-11 1.11567E-11
1.18991E-10 1.10423E-11
1.71347E-10 1.09048E-11
2.33223E-10 1.07452E-11
3.04617E-10 1.05653E-11
3.85531E-10 1.03663E-11
4.75965E-10 1.01502E-11
5.75917E-10 9.91835E-12
6.85389E-10 9.67315E-12
8.04380E-10 9.41573E-12
9.32891E-10 9.14873E-12
1.07092E-09 8.87316E-12
1.21847E-09 8.59165E-12
1.37554E-09 8.28474E-12
1.54213E-09 7.98861E-12
1.71823E-09 7.70472E-12
1.90386E-09 7.43364E-12
2.09900E-09 7.12499E-12
2.30367E-09 6.83190E-12
2.51785E-09 6.55535E-12
2.74156E-09 6.29490E-12
2.97478E-09 6.00540E-12
3.21752E-09 5.73323E-12
3.46978E-09 5.47878E-12
3.73156E-09 5.24105E-12
4.00286E-09 4.98317E-12
4.28368E-09 4.74207E-12
4.57402E-09 4.51778E-12
4.87388E-09 4.30911E-12
5.18326E-09 4.08794E-12
5.50215E-09 3.88171E-12
5.83057E-09 3.69029E-12
6.16850E-09 3.51253E-12
6.51596E-09 3.32801E-12
6.87293E-09 3.15611E-12
7.23942E-09 2.99663E-12
7.61544E-09 2.84857E-12
1.18991E-08 1.67772E-12
1.71347E-08 1.01001E-12
2.33223E-08 6.30228E-13
3.04617E-08 4.11770E-13
3.85531E-08 2.81473E-13
4.75965E-08 2.00659E-13
5.75917E-08 1.48265E-13
6.85389E-08 1.12854E-13
8.04380E-08 8.79681E-14
9.32891E-08 6.99062E-14
1.07092E-07 5.63941E-14
1.21847E-07 4.60635E-14
1.37554E-07 3.79292E-14
1.54213E-07 3.15724E-14
1.71823E-07 2.64678E-14
1.90386E-07 2.23020E-14
2.09900E-07 1.89320E-14
2.30367E-07 1.61297E-14
2.51785E-07 1.38155E-14
2.74156E-07 1.18976E-14
2.97478E-07 1.02732E-14
3.21752E-07 8.91652E-15
3.46978E-07 7.76839E-15
3.73156E-07 6.79147E-15
4.00286E-07 5.96256E-15
4.28368E-07 5.25068E-15
4.57402E-07 4.64048E-15
4.87388E-07 4.11565E-15
5.18325E-07 3.66021E-15
5.50215E-07 3.26610E-15
5.83057E-07 2.92289E-15
6.16850E-07 2.62299E-15
6.51596E-07 2.36064E-15
6.87293E-07 2.12986E-15
7.23942E-07 1.92660E-15
7.61543E-07 1.74709E-15
1.18991E-06 7.36239E-16
1.71347E-06 3.63720E-16
2.33223E-06 2.00478E-16
3.04617E-06 1.19575E-16
3.85531E-06 7.56959E-17
4.75964E-06 5.02106E-17
5.75916E-06 3.45884E-17
6.85388E-06 2.45844E-17
8.04378E-06 1.79412E-17
9.32888E-06 1.33926E-17
1.07092E-05 1.01950E-17
1.21846E-05 7.89516E-18
1.37553E-05 6.20732E-18
1.54212E-05 4.94657E-18
1.71822E-05 3.98962E-18
1.90385E-05 3.25283E-18
2.09899E-05 2.67845E-18
2.30365E-05 2.22526E-18
2.51783E-05 1.86382E-18
2.74153E-05 1.57277E-18
2.97475E-05 1.33629E-18
3.21749E-05 1.14259E-18
3.46974E-05 9.82721E-19
3.73152E-05 8.49846E-19
4.00281E-05 7.38678E-19
4.28362E-05 6.45097E-19
4.57395E-05 5.65868E-19
4.87380E-05 4.98426E-19
5.18317E-05 4.40729E-19
5.50205E-05 3.91137E-19
5.83045E-05 3.48324E-19
6.16838E-05 3.11208E-19
6.51582E-05 2.78904E-19
6.87277E-05 2.50685E-19
7.23925E-05 2.25945E-19
7.61524E-05 2.04178E-19
9.21439E-05 1.39440E-19
1.09658E-04 9.84356E-20
1.28695E-04 7.14515E-20
1.49255E-04 5.31055E-20
1.71338E-04 4.02858E-20
1.94942E-04 3.11100E-20
2.20070E-04 2.44032E-20
2.46720E-04 1.94096E-20
2.74892E-04 1.56298E-20
3.04586E-04 1.27265E-20
3.35803E-04 1.04668E-20
3.68542E-04 8.68686E-21
4.02802E-04 7.26949E-21
4.38585E-04 6.12959E-21
4.75889E-04 5.20449E-21
5.14715E-04 4.44739E-21
5.55063E-04 3.82300E-21
5.96931E-04 3.30437E-21
6.40321E-04 2.87070E-21
6.85233E-04 2.50586E-21
7.31665E-04 2.19712E-21
7.79618E-04 1.93447E-21
8.29092E-04 1.70988E-21
8.80086E-04 1.51693E-21
9.32601E-04 1.35042E-21
9.86636E-04 1.20612E-21
1.04219E-03 1.08057E-21
1.09927E-03 9.70918E-22
1.15786E-03 8.74817E-22
1.21797E-03 7.90304E-22
1.27961E-03 7.15743E-22
1.34276E-03 6.49761E-22
1.40743E-03 5.91200E-22
1.47362E-03 5.39083E-22
1.54133E-03 4.92577E-22
1.61056E-03 4.50972E-22
1.68131E-03 4.13663E-22
1.75357E-03 3.80129E-22
1.82735E-03 3.49919E-22
1.90265E-03 3.22648E-22
1.97947E-03 2.97978E-22
2.05780E-03 2.75618E-22
2.13765E-03 2.55314E-22
2.21902E-03 2.36842E-22
2.30190E-03 2.20008E-22
2.38630E-03 2.04641E-22
2.47222E-03 1.90590E-22
2.55965E-03 1.77722E-22
2.64859E-03 1.65921E-22
2.73905E-03 1.55081E-22
2.83103E-03 1.45110E-22
2.92452E-03 1.35927E-22
3.01952E-03 1.27457E-22
3.11604E-03 1.19635E-22
3.21407E-03 1.12403E-22
3.31362E-03 1.05708E-22
3.41468E-03 9.95036E-23
3.51725E-03 9.37465E-23
3.62133E-03 8.83989E-23
3.72692E-03 8.34263E-23
3.83403E-03 7.87977E-23
3.94265E-03 7.44850E-23
4.05278E-03 7.04626E-23
4.16442E-03 6.67075E-23
4.27757E-03 6.31986E-23
4.39223E-03 5.99168E-23
4.50840E-03 5.68448E-23
4.62608E-03 5.39667E-23
4.74527E-03 5.12679E-23
4.86597E-03 4.87353E-23
4.98817E-03 4.63568E-23
5.11188E-03 4.41212E-23
5.23711E-03 4.20184E-23
5.36383E-03 4.00390E-23
5.49207E-03 3.81745E-23
5.62181E-03 3.64169E-23
5.75306E-03 3.47591E-23
5.88581E-03 3.31942E-23
6.02007E-03 3.17162E-23
6.15583E-03 3.03192E-23
6.29310E-03 2.89981E-23
6.43187E-03 2.77479E-23
6.57214E-03 2.65642E-23
6.71392E-03 2.54427E-23
6.85720E-03 2.43796E-23
7.00198E-03 2.33712E-23
7.14827E-03 2.24143E-23
7.29605E-03 2.15056E-23
7.44534E-03 2.06424E-23
7.59612E-03 1.98219E-23
7.97965E-03 1.79416E-23
8.37255E-03 1.62783E-23
8.77480E-03 1.48026E-23
9.18641E-03 1.34898E-23
9.60736E-03 1.23189E-23
1.00376E-02 1.12718E-23
1.04773E-02 1.03331E-23
1.09262E-02 9.48979E-24
1.13844E-02 8.73040E-24
1.18520E-02 8.04513E-24
1.23288E-02 7.42549E-24
1.28150E-02 6.86411E-24
1.33104E-02 6.35453E-24
1.38150E-02 5.89114E-24
1.43290E-02 5.46902E-24
1.48521E-02 5.08384E-24
1.53845E-02 4.73180E-24
1.59262E-02 4.40955E-24
1.64770E-02 4.11411E-24
1.70371E-02 3.84287E-24
1.76063E-02 3.59348E-24
1.81848E-02 3.36388E-24
1.87724E-02 3.15222E-24
1.93692E-02 2.95684E-24
1.99751E-02 2.77626E-24
2.05901E-02 2.60917E-24
2.12143E-02 2.45438E-24
2.18476E-02 2.31082E-24
2.24900E-02 2.17754E-24
2.31415E-02 2.05365E-24
2.38021E-02 1.93839E-24
2.44717E-02 1.83103E-24
2.51504E-02 1.73096E-24
2.58382E-02 1.63757E-24
2.65349E-02 1.55035E-24
2.72407E-02 1.46881E-24
2.79555E-02 1.39251E-24
2.86793E-02 1.32106E-24
2.94120E-02 1.25410E-24
3.01537E-02 1.19129E-24
3.09043E-02 1.13233E-24
3.16639E-02 1.07694E-24
3.24324E-02 1.02486E-24
3.32098E-02 9.75861E-25
3.39961E-02 9.29727E-25
3.47912E-02 8.86262E-25
3.55952E-02 8.45281E-25
3.64081E-02 8.06617E-25
3.72297E-02 7.70116E-25
3.80602E-02 7.35635E-25
3.88995E-02 7.03041E-25
3.97476E-02 6.72212E-25
4.06044E-02 6.43036E-25
4.14700E-02 6.15408E-25
4.23443E-02 5.89231E-25
4.32273E-02 5.64414E-25
4.41190E-02 5.40875E-25
4.50194E-02 5.18535E-25
4.59284E-02 4.97323E-25
4.68461E-02 4.77170E-25
4.87074E-02 4.39800E-25
5.06030E-02 4.05972E-25
5.25328E-02 3.75293E-25
5.44967E-02 3.47420E-25
5.64946E-02 3.22051E-25
5.85262E-02 2.98925E-25
6.05914E-02 2.77807E-25
6.26901E-02 2.58494E-25
6.48222E-02 2.40805E-25
6.69873E-02 2.24579E-25
6.91854E-02 2.09675E-25
7.14163E-02 1.95967E-25
7.36799E-02 1.83342E-25
7.59760E-02 1.71699E-25
7.83043E-02 1.60949E-25
8.06647E-02 1.51012E-25
8.30571E-02 1.41816E-25
8.54812E-02 1.33296E-25
8.79369E-02 1.25393E-25
9.04240E-02 1.18055E-25
9.29422E-02 1.11235E-25
9.54915E-02 1.04890E-25
9.80716E-02 9.89805E-26
1.00682E-01 9.34724E-26
1.03323E-01 8.83333E-26
1.05995E-01 8.35342E-26
1.08696E-01 7.90489E-26
1.11427E-01 7.48531E-26
1.14188E-01 7.09251E-26
1.16978E-01 6.72447E-26
1.19797E-01 6.37937E-26
1.22645E-01 6.05553E-26
1.25522E-01 5.75142E-26
1.28428E-01 5.46562E-26
1.31361E-01 5.19686E-26
1.34323E-01 4.94392E-26
1.37313E-01 4.70574E-26
1.40330E-01 4.48129E-26
1.43375E-01 4.26965E-26
1.46447E-01 4.06996E-26
1.49545E-01 3.88143E-26
1.52671E-01 3.70334E-26
1.55823E-01 3.53500E-26
1.59001E-01 3.37580E-26
1.62205E-01 3.22514E-26
1.65435E-01 3.08250E-26
1.68690E-01 2.94738E-26
1.71970E-01 2.81930E-26
1.75276E-01 2.69785E-26
1.78606E-01 2.58262E-26
1.81961E-01 2.47324E-26
1.85340E-01 2.36936E-26
1.88743E-01 2.27066E-26
1.92169E-01 2.17684E-26
1.95619E-01 2.08761E-26
1.99092E-01 2.00272E-26
2.02589E-01 1.92191E-26
2.06107E-01 1.84496E-26
2.09649E-01 1.77165E-26
2.13212E-01 1.70179E-26
2.16797E-01 1.63517E-26
2.20404E-01 1.57164E-26
2.24032E-01 1.51101E-26
2.27680E-01 1.45314E-26
2.31350E-01 1.39788E-26
2.35040E-01 1.34509E-26
2.38751E-01 1.29464E-26
2.42481E-01 1.24642E-26
2.46231E-01 1.20031E-26
2.50000E-01 1.15619E-26
2.53788E-01 1.11398E-26
2.57595E-01 1.07357E-26
2.61421E-01 1.03488E-26
2.65264E-01 9.97813E-27
2.69126E-01 9.62300E-27
2.73005E-01 9.28263E-27
2.76901E-01 8.95629E-27
2.80814E-01 8.64333E-27
2.84744E-01 8.34310E-27
2.88691E-01 8.05500E-27
2.92653E-01 7.77846E-27
2.96632E-01 7.51295E-27
3.00625E-01 7.25796E-27
3.04634E-01 7.01299E-27
3.08658E-01 6.77761E-27
3.12697E-01 6.55136E-27
3.16749E-01 6.33384E-27
3.20816E-01 6.12467E-27
3.24896E-01 5.92346E-27
3.28990E-01 5.72988E-27
3.33097E-01 5.54358E-27
3.37216E-01 5.36425E-27
3.41348E-01 5.19158E-27
3.45492E-01 5.02530E-27
3.49647E-01 4.86513E-27
3.53814E-01 4.71081E-27
3.57992E-01 4.56209E-27
3.62181E-01 4.41873E-27
3.66381E-01 4.28053E-27
3.70590E-01 4.14725E-27
3.74810E-01 4.01871E-27
3.79039E-01 3.89470E-27
3.83277E-01 3.77504E-27
3.87524E-01 3.65956E-27
3.91780E-01 3.54809E-27
3.96044E-01 3.44047E-27
4.00316E-01 3.33654E-27
4.04596E-01 3.23616E-27
4.08882E-01 3.13919E-27
4.13176E-01 3.04550E-27
4.17476E-01 2.95496E-27
4.21783E-01 2.86745E-27
4.26095E-01 2.78285E-27
4.30413E-01 2.70106E-27
4.34737E-01 2.62196E-27
4.39065E-01 2.54545E-27
4.43398E-01 2.47144E-27
4.47736E-01 2.39983E-27
4.52077E-01 2.33053E-27
4.56422E-01 2.26346E-27
4.60770E-01 2.19854E-27
4.65122E-01 2.13569E-27
4.69476E-01 2.07483E-27
4.73832E-01 2.01589E-27
4.78190E-01 1.95880E-27
4.82550E-01 1.90350E-27
4.86912E-01 1.84992E-27
4.91274E-01 1.79800E-27
4.95637E-01 1.74768E-27
5.00000E-01 1.69890E-27
5.04363E-01 1.65162E-27
5.08726E-01 1.60578E-27
5.13088E-01 1.56132E-27
5.17450E-01 1.51821E-27
5.21810E-01 1.47640E-27
5.26168E-01 1.43583E-27
5.30524E-01 1.39648E-27
5.34878E-01 1.35829E-27
5.39230E-01 1.32124E-27
5.43578E-01 1.28527E-27
5.47923E-01 1.25036E-27
5.52264E-01 1.21647E-27
5.56602E-01 1.18356E-27
5.60935E-01 1.15161E-27
5.65263E-01 1.12058E-27
5.69587E-01 1.09045E-27
5.73905E-01 1.06118E-27
5.78217E-01 1.03274E-27
5.82524E-01 1.00511E-27
5.86824E-01 9.78264E-28
5.91118E-01 9.52176E-28
5.95404E-01 9.26822E-28
5.99684E-01 9.02178E-28
6.03956E-01 8.78223E-28
6.08220E-01 8.54934E-28
6.12476E-01 8.32290E-28
6.16723E-01 8.10273E-28
6.20961E-01 7.88861E-28
6.25190E-01 7.68037E-28
6.29410E-01 7.47783E-28
6.33619E-01 7.28081E-28
6.37819E-01 7.08914E-28
6.42008E-01 6.90265E-28
6.46186E-01 6.72121E-28
6.50353E-01 6.54464E-28
6.54508E-01 6.37281E-28
6.58652E-01 6.20558E-28
6.62784E-01 6.04280E-28
6.66903E-01 5.88434E-28
6.71010E-01 5.73009E-28
6.75104E-01 5.57990E-28
6.79184E-01 5.43367E-28
6.83251E-01 5.29128E-28
6.87303E-01 5.15262E-28
6.91342E-01 5.01758E-28
6.95366E-01 4.88605E-28
6.99375E-01 4.75794E-28
7.03368E-01 4.63314E-28
7.07347E-01 4.51156E-28
7.11309E-01 4.39311E-28
7.15256E-01 4.27771E-28
7.19186E-01 4.16526E-28
7.23099E-01 4.05568E-28
7.26995E-01 3.94889E-28
7.30874E-01 3.84482E-28
7.34736E-01 3.74339E-28
7.38579E-01 3.64452E-28
7.42405E-01 3.54814E-28
7.46212E-01 3.45420E-28
7.50000E-01 3.36261E-28
7.53769E-01 3.27331E-28
7.57519E-01 3.18625E-28
7.61249E-01 3.10137E-28
7.64960E-01 3.01859E-28
7.68650E-01 2.93787E-28
7.72320E-01 2.85916E-28
7.75968E-01 2.78239E-28
7.79596E-01 2.70751E-28
7.83203E-01 2.63449E-28
7.86788E-01 2.56326E-28
7.90351E-01 2.49378E-28
7.93893E-01 2.42600E-28
7.97411E-01 2.35989E-28
8.00908E-01 2.29539E-28
8.04381E-01 2.23246E-28
8.07831E-01 2.17107E-28
8.11257E-01 2.11117E-28
8.14660E-01 2.05273E-28
8.18039E-01 1.99571E-28
8.21394E-01 1.94006E-28
8.24724E-01 1.88577E-28
8.28030E-01 1.83279E-28
8.31310E-01 1.78109E-28
8.34565E-01 1.73064E-28
8.37795E-01 1.68141E-28
8.40999E-01 1.63336E-28
8.44177E-01 1.58647E-28
8.47329E-01 1.54072E-28
8.50455E-01 1.49606E-28
8.53553E-01 1.45247E-28
8.56625E-01 1.40994E-28
8.59670E-01 1.36843E-28
8.62687E-01 1.32791E-28
8.65677E-01 1.28837E-28
8.68639E-01 1.24978E-28
8.71572E-01 1.21212E-28
8.74478E-01 1.17537E-28
8.77355E-01 1.13950E-28
8.80203E-01 1.10449E-28
8.83022E-01 1.07033E-28
8.85812E-01 1.03700E-28
8.88573E-01 1.00446E-28
8.91304E-01 9.72719E-29
8.94005E-01 9.41743E-29
8.96677E-01 9.11519E-29
8.99318E-01 8.82028E-29
9.01928E-01 8.53256E-29
9.04508E-01 8.25185E-29
9.07058E-01 7.97800E-29
9.09576E-01 7.71086E-29
9.12063E-01 7.45028E-29
9.14519E-01 7.19612E-29
9.16943E-01 6.94823E-29
9.19335E-01 6.70650E-29
9.21696E-01 6.47077E-29
9.24024E-01 6.24093E-29
9.26320E-01 6.01685E-29
9.28584E-01 5.79840E-29
9.30815E-01 5.58548E-29
9.33013E-01 5.37797E-29
9.35178E-01 5.17576E-29
9.37310E-01 4.97873E-29
9.39409E-01 4.78680E-29
9.41474E-01 4.59984E-29
9.43505E-01 4.41778E-29
9.45503E-01 4.24050E-29
9.47467E-01 4.06792E-29
9.49397E-01 3.89995E-29
9.51293E-01 3.73650E-29
9.53154E-01 3.57749E-29
9.54981E-01 3.42283E-29
9.56773E-01 3.27244E-29
9.58530E-01 3.12625E-29
9.60252E-01 2.98419E-29
9.61940E-01 2.84617E-29
9.63592E-01 2.71213E-29
9.65209E-01 2.58199E-29
9.66790E-01 2.45571E-29
9.68336E-01 2.33320E-29
9.69846E-01 2.21441E-29
9.71321E-01 2.09928E-29
9.72759E-01 1.98775E-29
9.74162E-01 1.87976E-29
9.75528E-01 1.77527E-29
9.76858E-01 1.67421E-29
9.78152E-01 1.57654E-29
9.79410E-01 1.48220E-29
9.80631E-01 1.39116E-29
9.81815E-01 1.30337E-29
9.82963E-01 1.21878E-29
9.84074E-01 1.13735E-29
9.85148E-01 1.05904E-29
9.86185E-01 9.83815E-30
9.87185E-01 9.11635E-30
9.88148E-01 8.42465E-30
9.89074E-01 7.76271E-30
9.89962E-01 7.13021E-30
9.90814E-01 6.52685E-30
9.91627E-01 5.95231E-30
9.92404E-01 5.40633E-30
9.93143E-01 4.88863E-30
9.93844E-01 4.39898E-30
9.94508E-01 3.93712E-30
9.95134E-01 3.50283E-30
9.95722E-01 3.09590E-30
9.96273E-01 2.71614E-30
9.96786E-01 2.36336E-30
9.97261E-01 2.03740E-30
9.97698E-01 1.73808E-30
9.98097E-01 1.46528E-30
9.98459E-01 1.21885E-30
9.98782E-01 9.98677E-31
9.99067E-01 8.04657E-31
9.99315E-01 6.36695E-31
9.99524E-01 4.94710E-31
9.99695E-01 3.78633E-31
9.99829E-01 2.88410E-31
9.99924E-01 2.23996E-31
9.99981E-01 1.85358E-31
1.00000E+00 1.72483E-31
