 #
 # Subroutine ELSEPA. Elastic scattering of electrons and positrons
 #                    by neutral atoms and positive ions
 #
 # Projectile: positron
 # Kinetic energy = 6.00000E+08 eV = 2.20496E+07 a.u.
 #
 # WARNING: High-energy factorization with free-atom DF screening.
 #          Absorption, polarization and exchange corrections are
 #          switched off.
 #          Phase shifts are calculated for the bare nucleus.
 #          Scattering amplitudes are not evaluated.
 #
 # Element: Cl,  Z =  17,  atomic weight = 3.54527E+01 g/mol
 #
 # Nuclear model: Fermi distribution
 #                Average radius = 3.51507E-13 cm
 #                Skin thickness = 5.46000E-14 cm
 #
 # Number of electrons = 17
 #
 # Total elastic cross section = 1.10086E-18 cm**2 = 3.93124E-02 a0**2
 # 1st transport cross section = 1.71131E-27 cm**2 = 6.11118E-11 a0**2
 # 2nd transport cross section = 5.13181E-27 cm**2 = 1.83260E-10 a0**2
 #
 #
 # Differential cross section:                       MU=(1-COS(THETA))/2
 #
 #  THETA        MU          DCS          DCS        Sherman      error
 #  (deg)                 (cm**2/sr)   (a0**2/sr)    function
 #----------------------------------------------------------------------
0.00000E+00 3.24991E-09
7.61557E-13 3.08407E-09
1.18994E-12 2.99603E-09
1.71346E-12 2.89311E-09
2.33225E-12 2.77774E-09
3.04617E-12 2.65247E-09
3.85530E-12 2.51986E-09
4.75964E-12 2.37678E-09
5.75917E-12 2.23508E-09
6.85391E-12 2.09954E-09
8.04379E-12 1.95487E-09
9.32893E-12 1.82371E-09
1.07092E-11 1.68809E-09
1.21847E-11 1.56259E-09
1.37554E-11 1.44302E-09
1.54213E-11 1.32717E-09
1.71823E-11 1.22386E-09
1.90386E-11 1.12010E-09
2.09900E-11 1.02864E-09
2.30367E-11 9.41241E-10
2.51785E-11 8.61448E-10
2.74156E-11 7.88863E-10
2.97478E-11 7.20480E-10
3.21752E-11 6.60156E-10
3.46979E-11 6.02592E-10
3.73157E-11 5.51538E-10
4.00286E-11 5.04565E-10
4.28368E-11 4.61777E-10
4.57402E-11 4.23363E-10
4.87388E-11 3.87752E-10
5.18325E-11 3.56056E-10
5.50215E-11 3.26752E-10
5.83057E-11 3.00414E-10
6.16850E-11 2.76471E-10
6.51595E-11 2.54637E-10
6.87293E-11 2.34978E-10
7.23943E-11 2.16890E-10
7.61544E-11 2.00597E-10
1.18991E-10 9.84552E-11
1.71347E-10 5.47665E-11
2.33223E-10 3.36676E-11
3.04617E-10 2.22268E-11
3.85531E-10 1.54098E-11
4.75965E-10 1.10277E-11
5.75917E-10 8.10620E-12
6.85389E-10 6.07376E-12
8.04380E-10 4.62339E-12
9.32891E-10 3.56814E-12
1.07092E-09 2.78829E-12
1.21847E-09 2.20416E-12
1.37554E-09 1.76133E-12
1.54213E-09 1.42185E-12
1.71823E-09 1.15874E-12
1.90386E-09 9.52946E-13
2.09900E-09 7.90413E-13
2.30367E-09 6.60864E-13
2.51785E-09 5.56698E-13
2.74156E-09 4.72243E-13
2.97478E-09 4.03227E-13
3.21752E-09 3.46405E-13
3.46978E-09 2.99291E-13
3.73156E-09 2.59966E-13
4.00286E-09 2.26933E-13
4.28368E-09 1.99021E-13
4.57402E-09 1.75304E-13
4.87388E-09 1.55044E-13
5.18326E-09 1.37651E-13
5.50215E-09 1.22648E-13
5.83057E-09 1.09650E-13
6.16850E-09 9.83415E-14
6.51596E-09 8.84631E-14
6.87293E-09 7.98025E-14
7.23942E-09 7.21824E-14
7.61544E-09 6.54554E-14
1.18991E-08 2.75951E-14
1.71347E-08 1.35717E-14
2.33223E-08 7.42106E-15
3.04617E-08 4.38725E-15
3.85531E-08 2.75453E-15
4.75965E-08 1.81421E-15
5.75917E-08 1.24245E-15
6.85389E-08 8.78923E-16
8.04380E-08 6.38996E-16
9.32891E-08 4.75550E-16
1.07092E-07 3.61136E-16
1.21847E-07 2.79129E-16
1.37554E-07 2.19120E-16
1.54213E-07 1.74396E-16
1.71823E-07 1.40518E-16
1.90386E-07 1.14477E-16
2.09900E-07 9.41973E-17
2.30367E-07 7.82144E-17
2.51785E-07 6.54812E-17
2.74156E-07 5.52363E-17
2.97478E-07 4.69185E-17
3.21752E-07 4.01088E-17
3.46978E-07 3.44907E-17
3.73156E-07 2.98226E-17
4.00286E-07 2.59181E-17
4.28368E-07 2.26321E-17
4.57402E-07 1.98507E-17
4.87388E-07 1.74832E-17
5.18325E-07 1.54584E-17
5.50215E-07 1.37183E-17
5.83057E-07 1.22164E-17
6.16850E-07 1.09144E-17
6.51596E-07 9.78142E-18
6.87293E-07 8.79168E-18
7.23942E-07 7.92400E-18
7.61543E-07 7.16078E-18
1.18991E-06 2.93285E-18
1.71347E-06 1.41427E-18
2.33223E-06 7.63328E-19
3.04617E-06 4.47414E-19
3.85531E-06 2.79296E-19
4.75964E-06 1.83232E-19
5.75916E-06 1.25140E-19
6.85388E-06 8.83502E-20
8.04378E-06 6.41394E-20
9.32888E-06 4.76817E-20
1.07092E-05 3.61797E-20
1.21846E-05 2.79457E-20
1.37553E-05 2.19263E-20
1.54212E-05 1.74436E-20
1.71822E-05 1.40500E-20
1.90385E-05 1.14425E-20
2.09899E-05 9.41346E-21
2.30365E-05 7.81474E-21
2.51783E-05 6.54129E-21
2.74153E-05 5.51684E-21
2.97475E-05 4.68524E-21
3.21749E-05 4.00456E-21
3.46974E-05 3.44312E-21
3.73152E-05 2.97673E-21
4.00281E-05 2.58672E-21
4.28362E-05 2.25854E-21
4.57395E-05 1.98078E-21
4.87380E-05 1.74443E-21
5.18317E-05 1.54228E-21
5.50205E-05 1.36857E-21
5.83045E-05 1.21863E-21
6.16838E-05 1.08867E-21
6.51582E-05 9.75581E-22
6.87277E-05 8.76803E-22
7.23925E-05 7.90216E-22
7.61524E-05 7.08056E-22
9.21439E-05 4.82525E-22
1.09658E-04 3.39855E-22
1.28695E-04 2.46088E-22
1.49255E-04 1.82431E-22
1.71338E-04 1.38008E-22
1.94942E-04 1.06256E-22
2.20070E-04 8.30832E-23
2.46720E-04 6.58570E-23
2.74892E-04 5.28404E-23
3.04586E-04 4.28606E-23
3.35803E-04 3.51079E-23
3.68542E-04 2.90137E-23
4.02802E-04 2.41713E-23
4.38585E-04 2.02858E-23
4.75889E-04 1.71400E-23
5.14715E-04 1.45719E-23
5.55063E-04 1.24594E-23
5.96931E-04 1.07096E-23
6.40321E-04 9.25064E-24
6.85233E-04 8.02682E-24
7.31665E-04 6.99443E-24
7.79618E-04 6.11894E-24
8.29092E-04 5.37283E-24
8.80086E-04 4.73404E-24
9.32601E-04 4.18476E-24
9.86636E-04 3.71050E-24
1.04219E-03 3.29946E-24
1.09927E-03 2.94189E-24
1.15786E-03 2.62978E-24
1.21797E-03 2.35646E-24
1.27961E-03 2.11638E-24
1.34276E-03 1.90487E-24
1.40743E-03 1.71801E-24
1.47362E-03 1.55250E-24
1.54133E-03 1.40553E-24
1.61056E-03 1.27471E-24
1.68131E-03 1.15800E-24
1.75357E-03 1.05365E-24
1.82735E-03 9.60157E-25
1.90265E-03 8.76226E-25
1.97947E-03 8.00736E-25
2.05780E-03 7.32714E-25
2.13765E-03 6.71314E-25
2.21902E-03 6.15799E-25
2.30190E-03 5.65525E-25
2.38630E-03 5.19927E-25
2.47222E-03 4.78508E-25
2.55965E-03 4.40833E-25
2.64859E-03 4.06517E-25
2.73905E-03 3.75218E-25
2.83103E-03 3.46637E-25
2.92452E-03 3.20505E-25
3.01952E-03 2.96584E-25
3.11604E-03 2.74663E-25
3.21407E-03 2.54553E-25
3.31362E-03 2.36086E-25
3.41468E-03 2.19109E-25
3.51725E-03 2.03488E-25
3.62133E-03 1.89101E-25
3.72692E-03 1.75838E-25
3.83403E-03 1.63602E-25
3.94265E-03 1.52302E-25
4.05278E-03 1.41860E-25
4.16442E-03 1.32202E-25
4.27757E-03 1.23263E-25
4.39223E-03 1.14983E-25
4.50840E-03 1.07309E-25
4.62608E-03 1.00191E-25
4.74527E-03 9.35844E-26
4.86597E-03 8.74489E-26
4.98817E-03 8.17473E-26
5.11188E-03 7.64458E-26
5.23711E-03 7.15136E-26
5.36383E-03 6.69224E-26
5.49207E-03 6.26464E-26
5.62181E-03 5.86619E-26
5.75306E-03 5.49473E-26
5.88581E-03 5.14825E-26
6.02007E-03 4.82493E-26
6.15583E-03 4.52309E-26
6.29310E-03 4.24118E-26
6.43187E-03 3.97778E-26
6.57214E-03 3.73157E-26
6.71392E-03 3.50135E-26
6.85720E-03 3.28599E-26
7.00198E-03 3.08447E-26
7.14827E-03 2.89583E-26
7.29605E-03 2.71919E-26
7.44534E-03 2.55373E-26
7.59612E-03 2.39871E-26
7.97965E-03 2.05231E-26
8.37255E-03 1.75724E-26
8.77480E-03 1.50550E-26
9.18641E-03 1.29045E-26
9.60736E-03 1.10650E-26
1.00376E-02 9.49004E-27
1.04773E-02 8.14020E-27
1.09262E-02 6.98241E-27
1.13844E-02 5.98869E-27
1.18520E-02 5.13532E-27
1.23288E-02 4.40217E-27
1.28150E-02 3.77211E-27
1.33104E-02 3.23054E-27
1.38150E-02 2.76499E-27
1.43290E-02 2.36480E-27
1.48521E-02 2.02083E-27
1.53845E-02 1.72527E-27
1.59262E-02 1.47138E-27
1.64770E-02 1.25339E-27
1.70371E-02 1.06633E-27
1.76063E-02 9.05917E-28
1.81848E-02 7.68460E-28
1.87724E-02 6.50780E-28
1.93692E-02 5.50134E-28
1.99751E-02 4.64153E-28
2.05901E-02 3.90793E-28
2.12143E-02 3.28288E-28
2.18476E-02 2.75113E-28
2.24900E-02 2.29951E-28
2.31415E-02 1.91666E-28
2.38021E-02 1.59275E-28
2.44717E-02 1.31931E-28
2.51504E-02 1.08902E-28
2.58382E-02 8.95584E-29
2.65349E-02 7.33564E-29
2.72407E-02 5.98281E-29
2.79555E-02 4.85709E-29
2.86793E-02 3.92387E-29
2.94120E-02 3.15345E-29
3.01537E-02 2.52033E-29
3.09043E-02 2.00271E-29
3.16639E-02 1.58192E-29
3.24324E-02 1.24206E-29
3.32098E-02 9.69550E-30
3.39961E-02 7.52872E-30
3.47912E-02 5.82250E-30
3.55952E-02 4.49413E-30
3.64081E-02 3.47388E-30
3.72297E-02 2.70313E-30
3.80602E-02 2.13276E-30
3.88995E-02 1.72180E-30
3.97476E-02 1.43619E-30
4.06044E-02 1.24781E-30
4.14700E-02 1.13355E-30
4.23443E-02 1.07452E-30
4.32273E-02 1.05545E-30
4.41190E-02 1.06407E-30
4.50194E-02 1.09064E-30
4.59284E-02 1.12751E-30
4.68461E-02 1.16880E-30
4.87074E-02 1.24806E-30
5.06030E-02 1.30580E-30
5.25328E-02 1.33206E-30
5.44967E-02 1.32485E-30
5.64946E-02 1.28690E-30
5.85262E-02 1.22339E-30
6.05914E-02 1.14049E-30
6.26901E-02 1.04442E-30
6.48222E-02 9.40883E-31
6.69873E-02 8.34766E-31
6.91854E-02 7.30038E-31
7.14163E-02 6.29738E-31
7.36799E-02 5.36042E-31
7.59760E-02 4.50371E-31
7.83043E-02 3.73511E-31
8.06647E-02 3.05737E-31
8.30571E-02 2.46928E-31
8.54812E-02 1.96678E-31
8.79369E-02 1.54377E-31
9.04240E-02 1.19294E-31
9.29422E-02 9.06343E-32
9.54915E-02 6.75873E-32
9.80716E-02 4.93603E-32
1.00682E-01 3.52050E-32
1.03323E-01 2.44327E-32
1.05995E-01 1.64246E-32
1.08696E-01 1.06357E-32
1.11427E-01 6.59483E-33
1.14188E-01 3.90200E-33
1.16978E-01 2.22362E-33
1.19797E-01 1.28642E-33
1.22645E-01 8.70758E-34
1.25522E-01 8.03666E-34
1.28428E-01 9.52097E-34
1.31361E-01 1.21647E-33
1.34323E-01 1.52477E-33
1.37313E-01 1.82720E-33
1.40330E-01 2.09153E-33
1.43375E-01 2.29907E-33
1.46447E-01 2.44129E-33
1.49545E-01 2.51697E-33
1.52671E-01 2.52990E-33
1.55823E-01 2.48714E-33
1.59001E-01 2.39749E-33
1.62205E-01 2.27055E-33
1.65435E-01 2.11585E-33
1.68690E-01 1.94237E-33
1.71970E-01 1.75818E-33
1.75276E-01 1.57024E-33
1.78606E-01 1.38433E-33
1.81961E-01 1.20505E-33
1.85340E-01 1.03587E-33
1.88743E-01 8.79265E-34
1.92169E-01 7.36799E-34
1.95619E-01 6.09281E-34
1.99092E-01 4.96892E-34
2.02589E-01 3.99319E-34
2.06107E-01 3.15868E-34
2.09649E-01 2.45577E-34
2.13212E-01 1.87302E-34
2.16797E-01 1.39799E-34
2.20404E-01 1.01785E-34
2.24032E-01 7.19877E-35
2.27680E-01 4.91883E-35
2.31350E-01 3.22437E-35
2.35040E-01 2.01081E-35
2.38751E-01 1.18429E-35
2.42481E-01 6.62161E-36
2.46231E-01 3.73013E-36
2.50000E-01 2.56203E-36
2.53788E-01 2.61269E-36
2.57595E-01 3.47067E-36
2.61421E-01 4.80766E-36
2.65264E-01 6.36976E-36
2.69126E-01 7.96565E-36
2.73005E-01 9.45879E-36
2.76901E-01 1.07563E-35
2.80814E-01 1.18025E-35
2.84744E-01 1.25696E-35
2.88691E-01 1.30524E-35
2.92653E-01 1.32614E-35
2.96632E-01 1.32192E-35
3.00625E-01 1.29555E-35
3.04634E-01 1.25042E-35
3.08658E-01 1.19009E-35
3.12697E-01 1.11806E-35
3.16749E-01 1.03770E-35
3.20816E-01 9.52045E-36
3.24896E-01 8.63830E-36
3.28990E-01 7.75394E-36
3.33097E-01 6.88691E-36
3.37216E-01 6.05298E-36
3.41348E-01 5.26433E-36
3.45492E-01 4.52978E-36
3.49647E-01 3.85529E-36
3.53814E-01 3.24414E-36
3.57992E-01 2.69745E-36
3.62181E-01 2.21462E-36
3.66381E-01 1.79351E-36
3.70590E-01 1.43095E-36
3.74810E-01 1.12295E-36
3.79039E-01 8.65010E-37
3.83277E-01 6.52270E-37
3.87524E-01 4.79810E-37
3.91780E-01 3.42713E-37
3.96044E-01 2.36231E-37
4.00316E-01 1.55862E-37
4.04596E-01 9.74137E-38
4.08882E-01 5.70547E-38
4.13176E-01 3.13291E-38
4.17476E-01 1.71795E-38
4.21783E-01 1.19278E-38
4.26095E-01 1.32681E-38
4.30413E-01 1.92662E-38
4.34737E-01 2.82819E-38
4.39065E-01 3.90324E-38
4.43398E-01 5.04216E-38
4.47736E-01 6.16842E-38
4.52077E-01 7.21836E-38
4.56422E-01 8.15205E-38
4.60770E-01 8.93879E-38
4.65122E-01 9.56598E-38
4.69476E-01 1.00263E-37
4.73832E-01 1.03223E-37
4.78190E-01 1.04610E-37
4.82550E-01 1.04548E-37
4.86912E-01 1.03180E-37
4.91274E-01 1.00674E-37
4.95637E-01 9.72077E-38
5.00000E-01 9.29526E-38
5.04363E-01 8.80739E-38
5.08726E-01 8.27333E-38
5.13088E-01 7.70708E-38
5.17450E-01 7.12331E-38
5.21810E-01 6.53283E-38
5.26168E-01 5.94694E-38
5.30524E-01 5.37356E-38
5.34878E-01 4.81952E-38
5.39230E-01 4.29127E-38
5.43578E-01 3.79276E-38
5.47923E-01 3.32727E-38
5.52264E-01 2.89668E-38
5.56602E-01 2.50223E-38
5.60935E-01 2.14367E-38
5.65263E-01 1.82105E-38
5.69587E-01 1.53281E-38
5.73905E-01 1.27774E-38
5.78217E-01 1.05370E-38
5.82524E-01 8.59067E-39
5.86824E-01 6.91426E-39
5.91118E-01 5.48429E-39
5.95404E-01 4.27769E-39
5.99684E-01 3.27387E-39
6.03956E-01 2.44948E-39
6.08220E-01 1.78348E-39
6.12476E-01 1.25645E-39
6.16723E-01 8.49351E-40
6.20961E-01 1.00000E-45
6.25190E-01 1.00000E-45
6.29410E-01 1.00000E-45
6.33619E-01 1.00000E-45
6.37819E-01 1.00000E-45
6.42008E-01 1.00000E-45
6.46186E-01 1.00000E-45
6.50353E-01 1.00000E-45
6.54508E-01 1.00000E-45
6.58652E-01 1.00000E-45
6.62784E-01 1.00000E-45
6.66903E-01 1.00000E-45
6.71010E-01 1.00000E-45
6.75104E-01 1.00000E-45
6.79184E-01 1.00000E-45
6.83251E-01 1.00000E-45
6.87303E-01 1.00000E-45
6.91342E-01 1.00000E-45
6.95366E-01 1.00000E-45
6.99375E-01 1.00000E-45
7.03368E-01 1.00000E-45
7.07347E-01 1.00000E-45
7.11309E-01 1.00000E-45
7.15256E-01 1.00000E-45
7.19186E-01 1.00000E-45
7.23099E-01 1.00000E-45
7.26995E-01 1.00000E-45
7.30874E-01 1.00000E-45
7.34736E-01 1.00000E-45
7.38579E-01 1.00000E-45
7.42405E-01 1.00000E-45
7.46212E-01 1.00000E-45
7.50000E-01 1.00000E-45
7.53769E-01 1.00000E-45
7.57519E-01 1.00000E-45
7.61249E-01 1.00000E-45
7.64960E-01 1.00000E-45
7.68650E-01 1.00000E-45
7.72320E-01 1.00000E-45
7.75968E-01 1.00000E-45
7.79596E-01 1.00000E-45
7.83203E-01 1.00000E-45
7.86788E-01 1.00000E-45
7.90351E-01 1.00000E-45
7.93893E-01 1.00000E-45
7.97411E-01 1.00000E-45
8.00908E-01 1.00000E-45
8.04381E-01 1.00000E-45
8.07831E-01 1.00000E-45
8.11257E-01 1.00000E-45
8.14660E-01 1.00000E-45
8.18039E-01 1.00000E-45
8.21394E-01 1.00000E-45
8.24724E-01 1.00000E-45
8.28030E-01 1.00000E-45
8.31310E-01 1.00000E-45
8.34565E-01 1.00000E-45
8.37795E-01 1.00000E-45
8.40999E-01 1.00000E-45
8.44177E-01 1.00000E-45
8.47329E-01 1.00000E-45
8.50455E-01 1.00000E-45
8.53553E-01 1.00000E-45
8.56625E-01 1.00000E-45
8.59670E-01 1.00000E-45
8.62687E-01 1.00000E-45
8.65677E-01 1.00000E-45
8.68639E-01 1.00000E-45
8.71572E-01 1.00000E-45
8.74478E-01 1.00000E-45
8.77355E-01 1.00000E-45
8.80203E-01 1.00000E-45
8.83022E-01 1.00000E-45
8.85812E-01 1.00000E-45
8.88573E-01 1.00000E-45
8.91304E-01 1.00000E-45
8.94005E-01 1.00000E-45
8.96677E-01 1.00000E-45
8.99318E-01 1.00000E-45
9.01928E-01 1.00000E-45
9.04508E-01 1.00000E-45
9.07058E-01 1.00000E-45
9.09576E-01 1.00000E-45
9.12063E-01 1.00000E-45
9.14519E-01 1.00000E-45
9.16943E-01 1.00000E-45
9.19335E-01 1.00000E-45
9.21696E-01 1.00000E-45
9.24024E-01 1.00000E-45
9.26320E-01 1.00000E-45
9.28584E-01 1.00000E-45
9.30815E-01 1.00000E-45
9.33013E-01 1.00000E-45
9.35178E-01 1.00000E-45
9.37310E-01 1.00000E-45
9.39409E-01 1.00000E-45
9.41474E-01 1.00000E-45
9.43505E-01 1.00000E-45
9.45503E-01 1.00000E-45
9.47467E-01 1.00000E-45
9.49397E-01 1.00000E-45
9.51293E-01 1.00000E-45
9.53154E-01 1.00000E-45
9.54981E-01 1.00000E-45
9.56773E-01 1.00000E-45
9.58530E-01 1.00000E-45
9.60252E-01 1.00000E-45
9.61940E-01 1.00000E-45
9.63592E-01 1.00000E-45
9.65209E-01 1.00000E-45
9.66790E-01 1.00000E-45
9.68336E-01 1.00000E-45
9.69846E-01 1.00000E-45
9.71321E-01 1.00000E-45
9.72759E-01 1.00000E-45
9.74162E-01 1.00000E-45
9.75528E-01 1.00000E-45
9.76858E-01 1.00000E-45
9.78152E-01 1.00000E-45
9.79410E-01 1.00000E-45
9.80631E-01 1.00000E-45
9.81815E-01 1.00000E-45
9.82963E-01 1.00000E-45
9.84074E-01 1.00000E-45
9.85148E-01 1.00000E-45
9.86185E-01 1.00000E-45
9.87185E-01 1.00000E-45
9.88148E-01 1.00000E-45
9.89074E-01 1.00000E-45
9.89962E-01 1.00000E-45
9.90814E-01 1.00000E-45
9.91627E-01 1.00000E-45
9.92404E-01 1.00000E-45
9.93143E-01 1.00000E-45
9.93844E-01 1.00000E-45
9.94508E-01 1.00000E-45
9.95134E-01 1.00000E-45
9.95722E-01 1.00000E-45
9.96273E-01 1.00000E-45
9.96786E-01 1.00000E-45
9.97261E-01 1.00000E-45
9.97698E-01 1.00000E-45
9.98097E-01 1.00000E-45
9.98459E-01 1.00000E-45
9.98782E-01 1.00000E-45
9.99067E-01 1.00000E-45
9.99315E-01 1.00000E-45
9.99524E-01 1.00000E-45
9.99695E-01 1.00000E-45
9.99829E-01 1.00000E-45
9.99924E-01 1.00000E-45
9.99981E-01 1.00000E-45
1.00000E+00 1.00000E-45
