 #
 # Subroutine ELSEPA. Elastic scattering of electrons and positrons
 #                    by neutral atoms and positive ions
 #
 # Projectile: positron
 # Kinetic energy = 6.00000E+06 eV = 2.20496E+05 a.u.
 #
 # WARNING: High-energy factorization with free-atom DF screening.
 #          Absorption, polarization and exchange corrections are
 #          switched off.
 #          Phase shifts are calculated for the bare nucleus.
 #          Scattering amplitudes are not evaluated.
 #
 # Element: Cl,  Z =  17,  atomic weight = 3.54527E+01 g/mol
 #
 # Nuclear model: Fermi distribution
 #                Average radius = 3.51507E-13 cm
 #                Skin thickness = 5.46000E-14 cm
 #
 # Number of electrons = 17
 #
 # Total elastic cross section = 1.10814E-18 cm**2 = 3.95725E-02 a0**2
 # 1st transport cross section = 1.03946E-23 cm**2 = 3.71199E-07 a0**2
 # 2nd transport cross section = 2.99735E-23 cm**2 = 1.07037E-06 a0**2
 #
 #
 # Differential cross section:                       MU=(1-COS(THETA))/2
 #
 #  THETA        MU          DCS          DCS        Sherman      error
 #  (deg)                 (cm**2/sr)   (a0**2/sr)    function
 #----------------------------------------------------------------------
0.00000E+00 3.82054E-13
7.61557E-13 3.82051E-13
1.18994E-12 3.82050E-13
1.71346E-12 3.82048E-13
2.33225E-12 3.82046E-13
3.04617E-12 3.82043E-13
3.85530E-12 3.82041E-13
4.75964E-12 3.82038E-13
5.75917E-12 3.82035E-13
6.85391E-12 3.82031E-13
8.04379E-12 3.82027E-13
9.32893E-12 3.82023E-13
1.07092E-11 3.82019E-13
1.21847E-11 3.82014E-13
1.37554E-11 3.82009E-13
1.54213E-11 3.82004E-13
1.71823E-11 3.81998E-13
1.90386E-11 3.81992E-13
2.09900E-11 3.81986E-13
2.30367E-11 3.81979E-13
2.51785E-11 3.81973E-13
2.74156E-11 3.81966E-13
2.97478E-11 3.81958E-13
3.21752E-11 3.81950E-13
3.46979E-11 3.81943E-13
3.73157E-11 3.81934E-13
4.00286E-11 3.81926E-13
4.28368E-11 3.81917E-13
4.57402E-11 3.81908E-13
4.87388E-11 3.81898E-13
5.18325E-11 3.81889E-13
5.50215E-11 3.81879E-13
5.83057E-11 3.81868E-13
6.16850E-11 3.81858E-13
6.51595E-11 3.81847E-13
6.87293E-11 3.81836E-13
7.23943E-11 3.81824E-13
7.61544E-11 3.81812E-13
1.18991E-10 3.81678E-13
1.71347E-10 3.81515E-13
2.33223E-10 3.81322E-13
3.04617E-10 3.81100E-13
3.85531E-10 3.80849E-13
4.75965E-10 3.80569E-13
5.75917E-10 3.80260E-13
6.85389E-10 3.79922E-13
8.04380E-10 3.79556E-13
9.32891E-10 3.79160E-13
1.07092E-09 3.78736E-13
1.21847E-09 3.78284E-13
1.37554E-09 3.77803E-13
1.54213E-09 3.77295E-13
1.71823E-09 3.76758E-13
1.90386E-09 3.76194E-13
2.09900E-09 3.75602E-13
2.30367E-09 3.74983E-13
2.51785E-09 3.74335E-13
2.74156E-09 3.73663E-13
2.97478E-09 3.72961E-13
3.21752E-09 3.72235E-13
3.46978E-09 3.71481E-13
3.73156E-09 3.70702E-13
4.00286E-09 3.69897E-13
4.28368E-09 3.69065E-13
4.57402E-09 3.68210E-13
4.87388E-09 3.67327E-13
5.18326E-09 3.66422E-13
5.50215E-09 3.65489E-13
5.83057E-09 3.64537E-13
6.16850E-09 3.63555E-13
6.51596E-09 3.62554E-13
6.87293E-09 3.61525E-13
7.23942E-09 3.60477E-13
7.61544E-09 3.59404E-13
1.18991E-08 3.47496E-13
1.71347E-08 3.33675E-13
2.33223E-08 3.18318E-13
3.04617E-08 3.01786E-13
3.85531E-08 2.84113E-13
4.75965E-08 2.65823E-13
5.75917E-08 2.48769E-13
6.85389E-08 2.30264E-13
8.04380E-08 2.13616E-13
9.32891E-08 1.96374E-13
1.07092E-07 1.80738E-13
1.21847E-07 1.65434E-13
1.37554E-07 1.51304E-13
1.54213E-07 1.38098E-13
1.71823E-07 1.25716E-13
1.90386E-07 1.14544E-13
2.09900E-07 1.03954E-13
2.30367E-07 9.46329E-14
2.51785E-07 8.57429E-14
2.74156E-07 7.79826E-14
2.97478E-07 7.06826E-14
3.21752E-07 6.42451E-14
3.46978E-07 5.83302E-14
3.73156E-07 5.30381E-14
4.00286E-07 4.82539E-14
4.28368E-07 4.39295E-14
4.57402E-07 4.00597E-14
4.87388E-07 3.65383E-14
5.18325E-07 3.34043E-14
5.50215E-07 3.05408E-14
5.83057E-07 2.79937E-14
6.16850E-07 2.56675E-14
6.51596E-07 2.35872E-14
6.87293E-07 2.16981E-14
7.23942E-07 1.99959E-14
7.61543E-07 1.84542E-14
1.18991E-06 8.99941E-15
1.71347E-06 5.02799E-15
2.33223E-06 3.10472E-15
3.04617E-06 2.05075E-15
3.85531E-06 1.41477E-15
4.75964E-06 1.00824E-15
5.75916E-06 7.35739E-16
6.85388E-06 5.47205E-16
8.04378E-06 4.13658E-16
9.32888E-06 3.17283E-16
1.07092E-05 2.46491E-16
1.21846E-05 1.93919E-16
1.37553E-05 1.54377E-16
1.54212E-05 1.24263E-16
1.71822E-05 1.01060E-16
1.90385E-05 8.29796E-17
2.09899E-05 6.87519E-17
2.30365E-05 5.74358E-17
2.51783E-05 4.83548E-17
2.74153E-05 4.10033E-17
2.97475E-05 3.50027E-17
3.21749E-05 3.00664E-17
3.46974E-05 2.59761E-17
3.73152E-05 2.25633E-17
4.00281E-05 1.96970E-17
4.28362E-05 1.72752E-17
4.57395E-05 1.52172E-17
4.87380E-05 1.34589E-17
5.18317E-05 1.19491E-17
5.50205E-05 1.06466E-17
5.83045E-05 9.51787E-18
6.16838E-05 8.53561E-18
6.51582E-05 7.67749E-18
6.87277E-05 6.92508E-18
7.23925E-05 6.26304E-18
7.61524E-05 5.67854E-18
9.21439E-05 3.92525E-18
1.09658E-04 2.79970E-18
1.28695E-04 2.04997E-18
1.49255E-04 1.53485E-18
1.71338E-04 1.17149E-18
1.94942E-04 9.09303E-19
2.20070E-04 7.16319E-19
2.46720E-04 5.71775E-19
2.74892E-04 4.61808E-19
3.04586E-04 3.76974E-19
3.35803E-04 3.10699E-19
3.68542E-04 2.58326E-19
4.02802E-04 2.16510E-19
4.38585E-04 1.82800E-19
4.75889E-04 1.55386E-19
5.14715E-04 1.32911E-19
5.55063E-04 1.14348E-19
5.96931E-04 9.89076E-20
6.40321E-04 8.59823E-20
6.85233E-04 7.50966E-20
7.31665E-04 6.58769E-20
7.79618E-04 5.80270E-20
8.29092E-04 5.13101E-20
8.80086E-04 4.55358E-20
9.32601E-04 4.05500E-20
9.86636E-04 3.62271E-20
1.04219E-03 3.24641E-20
1.09927E-03 2.91765E-20
1.15786E-03 2.62941E-20
1.21797E-03 2.37584E-20
1.27961E-03 2.15206E-20
1.34276E-03 1.95398E-20
1.40743E-03 1.77813E-20
1.47362E-03 1.62160E-20
1.54133E-03 1.48189E-20
1.61056E-03 1.35689E-20
1.68131E-03 1.24477E-20
1.75357E-03 1.14397E-20
1.82735E-03 1.05316E-20
1.90265E-03 9.71172E-21
1.97947E-03 8.96994E-21
2.05780E-03 8.29753E-21
2.13765E-03 7.68686E-21
2.21902E-03 7.13126E-21
2.30190E-03 6.62487E-21
2.38630E-03 6.16257E-21
2.47222E-03 5.73983E-21
2.55965E-03 5.35267E-21
2.64859E-03 4.99754E-21
2.73905E-03 4.67133E-21
2.83103E-03 4.37127E-21
2.92452E-03 4.09486E-21
3.01952E-03 3.83993E-21
3.11604E-03 3.60449E-21
3.21407E-03 3.38679E-21
3.31362E-03 3.18525E-21
3.41468E-03 2.99845E-21
3.51725E-03 2.82512E-21
3.62133E-03 2.66411E-21
3.72692E-03 2.51438E-21
3.83403E-03 2.37501E-21
3.94265E-03 2.24513E-21
4.05278E-03 2.12398E-21
4.16442E-03 2.01087E-21
4.27757E-03 1.90518E-21
4.39223E-03 1.80632E-21
4.50840E-03 1.71378E-21
4.62608E-03 1.62708E-21
4.74527E-03 1.54578E-21
4.86597E-03 1.46948E-21
4.98817E-03 1.39782E-21
5.11188E-03 1.33047E-21
5.23711E-03 1.26712E-21
5.36383E-03 1.20748E-21
5.49207E-03 1.15131E-21
5.62181E-03 1.09835E-21
5.75306E-03 1.04840E-21
5.88581E-03 1.00125E-21
6.02007E-03 9.56712E-22
6.15583E-03 9.14618E-22
6.29310E-03 8.74808E-22
6.43187E-03 8.37135E-22
6.57214E-03 8.01463E-22
6.71392E-03 7.67666E-22
6.85720E-03 7.35627E-22
7.00198E-03 7.05238E-22
7.14827E-03 6.76398E-22
7.29605E-03 6.49013E-22
7.44534E-03 6.22996E-22
7.59612E-03 5.98266E-22
7.97965E-03 5.41589E-22
8.37255E-03 4.91450E-22
8.77480E-03 4.46964E-22
9.18641E-03 4.07386E-22
9.60736E-03 3.72081E-22
1.00376E-02 3.40507E-22
1.04773E-02 3.12202E-22
1.09262E-02 2.86769E-22
1.13844E-02 2.63865E-22
1.18520E-02 2.43196E-22
1.23288E-02 2.24504E-22
1.28150E-02 2.07568E-22
1.33104E-02 1.92194E-22
1.38150E-02 1.78212E-22
1.43290E-02 1.65474E-22
1.48521E-02 1.53849E-22
1.53845E-02 1.43224E-22
1.59262E-02 1.33497E-22
1.64770E-02 1.24578E-22
1.70371E-02 1.16389E-22
1.76063E-02 1.08859E-22
1.81848E-02 1.01925E-22
1.87724E-02 9.55325E-23
1.93692E-02 8.96311E-23
1.99751E-02 8.41764E-23
2.05901E-02 7.91284E-23
2.12143E-02 7.44515E-23
2.18476E-02 7.01133E-23
2.24900E-02 6.60851E-23
2.31415E-02 6.23405E-23
2.38021E-02 5.88561E-23
2.44717E-02 5.56106E-23
2.51504E-02 5.25845E-23
2.58382E-02 4.97604E-23
2.65349E-02 4.71223E-23
2.72407E-02 4.46557E-23
2.79555E-02 4.23476E-23
2.86793E-02 4.01858E-23
2.94120E-02 3.81594E-23
3.01537E-02 3.62584E-23
3.09043E-02 3.44735E-23
3.16639E-02 3.27965E-23
3.24324E-02 3.12196E-23
3.32098E-02 2.97358E-23
3.39961E-02 2.83385E-23
3.47912E-02 2.70218E-23
3.55952E-02 2.57801E-23
3.64081E-02 2.46085E-23
3.72297E-02 2.35023E-23
3.80602E-02 2.24571E-23
3.88995E-02 2.14689E-23
3.97476E-02 2.05341E-23
4.06044E-02 1.96493E-23
4.14700E-02 1.88112E-23
4.23443E-02 1.80171E-23
4.32273E-02 1.72641E-23
4.41190E-02 1.65497E-23
4.50194E-02 1.58716E-23
4.59284E-02 1.52276E-23
4.68461E-02 1.46157E-23
4.87074E-02 1.34806E-23
5.06030E-02 1.24528E-23
5.25328E-02 1.15202E-23
5.44967E-02 1.06726E-23
5.64946E-02 9.90094E-24
5.85262E-02 9.19712E-24
6.05914E-02 8.55418E-24
6.26901E-02 7.96592E-24
6.48222E-02 7.42690E-24
6.69873E-02 6.93225E-24
6.91854E-02 6.47770E-24
7.14163E-02 6.05941E-24
7.36799E-02 5.67399E-24
7.59760E-02 5.31840E-24
7.83043E-02 4.98993E-24
8.06647E-02 4.68613E-24
8.30571E-02 4.40484E-24
8.54812E-02 4.14409E-24
8.79369E-02 3.90211E-24
9.04240E-02 3.67731E-24
9.29422E-02 3.46827E-24
9.54915E-02 3.27367E-24
9.80716E-02 3.09235E-24
1.00682E-01 2.92324E-24
1.03323E-01 2.76536E-24
1.05995E-01 2.61785E-24
1.08696E-01 2.47990E-24
1.11427E-01 2.35077E-24
1.14188E-01 2.22982E-24
1.16978E-01 2.11642E-24
1.19797E-01 2.01002E-24
1.22645E-01 1.91011E-24
1.25522E-01 1.81623E-24
1.28428E-01 1.72795E-24
1.31361E-01 1.64487E-24
1.34323E-01 1.56663E-24
1.37313E-01 1.49290E-24
1.40330E-01 1.42338E-24
1.43375E-01 1.35778E-24
1.46447E-01 1.29584E-24
1.49545E-01 1.23733E-24
1.52671E-01 1.18201E-24
1.55823E-01 1.12968E-24
1.59001E-01 1.08015E-24
1.62205E-01 1.03325E-24
1.65435E-01 9.88813E-25
1.68690E-01 9.46682E-25
1.71970E-01 9.06719E-25
1.75276E-01 8.68793E-25
1.78606E-01 8.32780E-25
1.81961E-01 7.98569E-25
1.85340E-01 7.66051E-25
1.88743E-01 7.35129E-25
1.92169E-01 7.05711E-25
1.95619E-01 6.77710E-25
1.99092E-01 6.51046E-25
2.02589E-01 6.25644E-25
2.06107E-01 6.01433E-25
2.09649E-01 5.78348E-25
2.13212E-01 5.56328E-25
2.16797E-01 5.35313E-25
2.20404E-01 5.15251E-25
2.24032E-01 4.96091E-25
2.27680E-01 4.77784E-25
2.31350E-01 4.60287E-25
2.35040E-01 4.43556E-25
2.38751E-01 4.27553E-25
2.42481E-01 4.12240E-25
2.46231E-01 3.97582E-25
2.50000E-01 3.83547E-25
2.53788E-01 3.70102E-25
2.57595E-01 3.57220E-25
2.61421E-01 3.44872E-25
2.65264E-01 3.33032E-25
2.69126E-01 3.21676E-25
2.73005E-01 3.10781E-25
2.76901E-01 3.00324E-25
2.80814E-01 2.90284E-25
2.84744E-01 2.80643E-25
2.88691E-01 2.71381E-25
2.92653E-01 2.62482E-25
2.96632E-01 2.53928E-25
3.00625E-01 2.45703E-25
3.04634E-01 2.37793E-25
3.08658E-01 2.30184E-25
3.12697E-01 2.22863E-25
3.16749E-01 2.15815E-25
3.20816E-01 2.09030E-25
3.24896E-01 2.02496E-25
3.28990E-01 1.96202E-25
3.33097E-01 1.90138E-25
3.37216E-01 1.84294E-25
3.41348E-01 1.78660E-25
3.45492E-01 1.73228E-25
3.49647E-01 1.67989E-25
3.53814E-01 1.62935E-25
3.57992E-01 1.58058E-25
3.62181E-01 1.53352E-25
3.66381E-01 1.48809E-25
3.70590E-01 1.44423E-25
3.74810E-01 1.40186E-25
3.79039E-01 1.36094E-25
3.83277E-01 1.32141E-25
3.87524E-01 1.28320E-25
3.91780E-01 1.24628E-25
3.96044E-01 1.21058E-25
4.00316E-01 1.17606E-25
4.04596E-01 1.14267E-25
4.08882E-01 1.11038E-25
4.13176E-01 1.07913E-25
4.17476E-01 1.04890E-25
4.21783E-01 1.01963E-25
4.26095E-01 9.91303E-26
4.30413E-01 9.63872E-26
4.34737E-01 9.37309E-26
4.39065E-01 9.11580E-26
4.43398E-01 8.86655E-26
4.47736E-01 8.62505E-26
4.52077E-01 8.39101E-26
4.56422E-01 8.16417E-26
4.60770E-01 7.94427E-26
4.65122E-01 7.73106E-26
4.69476E-01 7.52430E-26
4.73832E-01 7.32377E-26
4.78190E-01 7.12925E-26
4.82550E-01 6.94053E-26
4.86912E-01 6.75741E-26
4.91274E-01 6.57969E-26
4.95637E-01 6.40719E-26
5.00000E-01 6.23973E-26
5.04363E-01 6.07714E-26
5.08726E-01 5.91926E-26
5.13088E-01 5.76593E-26
5.17450E-01 5.61699E-26
5.21810E-01 5.47230E-26
5.26168E-01 5.33171E-26
5.30524E-01 5.19510E-26
5.34878E-01 5.06234E-26
5.39230E-01 4.93329E-26
5.43578E-01 4.80784E-26
5.47923E-01 4.68587E-26
5.52264E-01 4.56727E-26
5.56602E-01 4.45193E-26
5.60935E-01 4.33975E-26
5.65263E-01 4.23063E-26
5.69587E-01 4.12446E-26
5.73905E-01 4.02117E-26
5.78217E-01 3.92066E-26
5.82524E-01 3.82284E-26
5.86824E-01 3.72763E-26
5.91118E-01 3.63496E-26
5.95404E-01 3.54473E-26
5.99684E-01 3.45688E-26
6.03956E-01 3.37134E-26
6.08220E-01 3.28804E-26
6.12476E-01 3.20690E-26
6.16723E-01 3.12787E-26
6.20961E-01 3.05088E-26
6.25190E-01 2.97587E-26
6.29410E-01 2.90278E-26
6.33619E-01 2.83156E-26
6.37819E-01 2.76215E-26
6.42008E-01 2.69450E-26
6.46186E-01 2.62856E-26
6.50353E-01 2.56428E-26
6.54508E-01 2.50161E-26
6.58652E-01 2.44051E-26
6.62784E-01 2.38092E-26
6.66903E-01 2.32282E-26
6.71010E-01 2.26615E-26
6.75104E-01 2.21087E-26
6.79184E-01 2.15696E-26
6.83251E-01 2.10436E-26
6.87303E-01 2.05304E-26
6.91342E-01 2.00298E-26
6.95366E-01 1.95412E-26
6.99375E-01 1.90645E-26
7.03368E-01 1.85992E-26
7.07347E-01 1.81451E-26
7.11309E-01 1.77019E-26
7.15256E-01 1.72692E-26
7.19186E-01 1.68469E-26
7.23099E-01 1.64345E-26
7.26995E-01 1.60319E-26
7.30874E-01 1.56389E-26
7.34736E-01 1.52550E-26
7.38579E-01 1.48802E-26
7.42405E-01 1.45141E-26
7.46212E-01 1.41565E-26
7.50000E-01 1.38073E-26
7.53769E-01 1.34662E-26
7.57519E-01 1.31330E-26
7.61249E-01 1.28075E-26
7.64960E-01 1.24895E-26
7.68650E-01 1.21788E-26
7.72320E-01 1.18752E-26
7.75968E-01 1.15786E-26
7.79596E-01 1.12888E-26
7.83203E-01 1.10055E-26
7.86788E-01 1.07288E-26
7.90351E-01 1.04583E-26
7.93893E-01 1.01939E-26
7.97411E-01 9.93553E-27
8.00908E-01 9.68300E-27
8.04381E-01 9.43616E-27
8.07831E-01 9.19488E-27
8.11257E-01 8.95903E-27
8.14660E-01 8.72848E-27
8.18039E-01 8.50310E-27
8.21394E-01 8.28277E-27
8.24724E-01 8.06738E-27
8.28030E-01 7.85680E-27
8.31310E-01 7.65093E-27
8.34565E-01 7.44965E-27
8.37795E-01 7.25286E-27
8.40999E-01 7.06046E-27
8.44177E-01 6.87235E-27
8.47329E-01 6.68843E-27
8.50455E-01 6.50861E-27
8.53553E-01 6.33278E-27
8.56625E-01 6.16088E-27
8.59670E-01 5.99280E-27
8.62687E-01 5.82846E-27
8.65677E-01 5.66779E-27
8.68639E-01 5.51069E-27
8.71572E-01 5.35710E-27
8.74478E-01 5.20694E-27
8.77355E-01 5.06013E-27
8.80203E-01 4.91660E-27
8.83022E-01 4.77629E-27
8.85812E-01 4.63912E-27
8.88573E-01 4.50503E-27
8.91304E-01 4.37395E-27
8.94005E-01 4.24583E-27
8.96677E-01 4.12061E-27
8.99318E-01 3.99821E-27
9.01928E-01 3.87859E-27
9.04508E-01 3.76169E-27
9.07058E-01 3.64746E-27
9.09576E-01 3.53584E-27
9.12063E-01 3.42679E-27
9.14519E-01 3.32024E-27
9.16943E-01 3.21616E-27
9.19335E-01 3.11450E-27
9.21696E-01 3.01520E-27
9.24024E-01 2.91823E-27
9.26320E-01 2.82355E-27
9.28584E-01 2.73110E-27
9.30815E-01 2.64085E-27
9.33013E-01 2.55276E-27
9.35178E-01 2.46679E-27
9.37310E-01 2.38290E-27
9.39409E-01 2.30106E-27
9.41474E-01 2.22122E-27
9.43505E-01 2.14336E-27
9.45503E-01 2.06745E-27
9.47467E-01 1.99344E-27
9.49397E-01 1.92130E-27
9.51293E-01 1.85102E-27
9.53154E-01 1.78254E-27
9.54981E-01 1.71586E-27
9.56773E-01 1.65093E-27
9.58530E-01 1.58773E-27
9.60252E-01 1.52624E-27
9.61940E-01 1.46643E-27
9.63592E-01 1.40827E-27
9.65209E-01 1.35173E-27
9.66790E-01 1.29680E-27
9.68336E-01 1.24346E-27
9.69846E-01 1.19168E-27
9.71321E-01 1.14143E-27
9.72759E-01 1.09270E-27
9.74162E-01 1.04547E-27
9.75528E-01 9.99723E-28
9.76858E-01 9.55433E-28
9.78152E-01 9.12585E-28
9.79410E-01 8.71162E-28
9.80631E-01 8.31146E-28
9.81815E-01 7.92523E-28
9.82963E-01 7.55275E-28
9.84074E-01 7.19389E-28
9.85148E-01 6.84849E-28
9.86185E-01 6.51641E-28
9.87185E-01 6.19754E-28
9.88148E-01 5.89173E-28
9.89074E-01 5.59886E-28
9.89962E-01 5.31882E-28
9.90814E-01 5.05150E-28
9.91627E-01 4.79679E-28
9.92404E-01 4.55458E-28
9.93143E-01 4.32479E-28
9.93844E-01 4.10732E-28
9.94508E-01 3.90209E-28
9.95134E-01 3.70901E-28
9.95722E-01 3.52801E-28
9.96273E-01 3.35902E-28
9.96786E-01 3.20197E-28
9.97261E-01 3.05679E-28
9.97698E-01 2.92344E-28
9.98097E-01 2.80186E-28
9.98459E-01 2.69200E-28
9.98782E-01 2.59383E-28
9.99067E-01 2.50729E-28
9.99315E-01 2.43236E-28
9.99524E-01 2.36900E-28
9.99695E-01 2.31720E-28
9.99829E-01 2.27693E-28
9.99924E-01 2.24818E-28
9.99981E-01 2.23093E-28
1.00000E+00 2.22518E-28
