 #
 # Subroutine ELSEPA. Elastic scattering of electrons and positrons
 #                    by neutral atoms and positive ions
 #
 # Projectile: positron
 # Kinetic energy = 8.00000E+08 eV = 2.93995E+07 a.u.
 #
 # WARNING: High-energy factorization with free-atom DF screening.
 #          Absorption, polarization and exchange corrections are
 #          switched off.
 #          Phase shifts are calculated for the bare nucleus.
 #          Scattering amplitudes are not evaluated.
 #
 # Element: Cl,  Z =  17,  atomic weight = 3.54527E+01 g/mol
 #
 # Nuclear model: Fermi distribution
 #                Average radius = 3.51507E-13 cm
 #                Skin thickness = 5.46000E-14 cm
 #
 # Number of electrons = 17
 #
 # Total elastic cross section = 1.09924E-18 cm**2 = 3.92546E-02 a0**2
 # 1st transport cross section = 9.63812E-28 cm**2 = 3.44183E-11 a0**2
 # 2nd transport cross section = 2.89077E-27 cm**2 = 1.03231E-10 a0**2
 #
 #
 # Differential cross section:                       MU=(1-COS(THETA))/2
 #
 #  THETA        MU          DCS          DCS        Sherman      error
 #  (deg)                 (cm**2/sr)   (a0**2/sr)    function
 #----------------------------------------------------------------------
0.00000E+00 5.77516E-09
7.61557E-13 5.26594E-09
1.18994E-12 5.00696E-09
1.71346E-12 4.71390E-09
2.33225E-12 4.39747E-09
3.04617E-12 4.05433E-09
3.85530E-12 3.73163E-09
4.75964E-12 3.39421E-09
5.75917E-12 3.08069E-09
6.85391E-12 2.77748E-09
8.04379E-12 2.49362E-09
9.32893E-12 2.23522E-09
1.07092E-11 1.99117E-09
1.21847E-11 1.77845E-09
1.37554E-11 1.57676E-09
1.54213E-11 1.40249E-09
1.71823E-11 1.24368E-09
1.90386E-11 1.10420E-09
2.09900E-11 9.80604E-10
2.30367E-11 8.70737E-10
2.51785E-11 7.75146E-10
2.74156E-11 6.89451E-10
2.97478E-11 6.15300E-10
3.21752E-11 5.49204E-10
3.46979E-11 4.91608E-10
3.73157E-11 4.40748E-10
4.00286E-11 3.96019E-10
4.28368E-11 3.56699E-10
4.57402E-11 3.21878E-10
4.87388E-11 2.91286E-10
5.18325E-11 2.64070E-10
5.50215E-11 2.40060E-10
5.83057E-11 2.18707E-10
6.16850E-11 1.99739E-10
6.51595E-11 1.82833E-10
6.87293E-11 1.67734E-10
7.23943E-11 1.54239E-10
7.61544E-11 1.42128E-10
1.18991E-10 6.97642E-11
1.71347E-10 3.95236E-11
2.33223E-10 2.44449E-11
3.04617E-10 1.59414E-11
3.85531E-10 1.08009E-11
4.75965E-10 7.53550E-12
5.75917E-10 5.37469E-12
6.85389E-10 3.91988E-12
8.04380E-10 2.91265E-12
9.32891E-10 2.20350E-12
1.07092E-09 1.69479E-12
1.21847E-09 1.32310E-12
1.37554E-09 1.04754E-12
1.54213E-09 8.39880E-13
1.71823E-09 6.81288E-13
1.90386E-09 5.58538E-13
2.09900E-09 4.62348E-13
2.30367E-09 3.86137E-13
2.51785E-09 3.25095E-13
2.74156E-09 2.75745E-13
2.97478E-09 2.35481E-13
3.21752E-09 2.02356E-13
3.46978E-09 1.74900E-13
3.73156E-09 1.51971E-13
4.00286E-09 1.32705E-13
4.28368E-09 1.16412E-13
4.57402E-09 1.02556E-13
4.87388E-09 9.07115E-14
5.18326E-09 8.05319E-14
5.50215E-09 7.17463E-14
5.83057E-09 6.41283E-14
6.16850E-09 5.74967E-14
6.51596E-09 5.17019E-14
6.87293E-09 4.66184E-14
7.23942E-09 4.21453E-14
7.61544E-09 3.81952E-14
1.18991E-08 1.59832E-14
1.71347E-08 7.80290E-15
2.33223E-08 4.24195E-15
3.04617E-08 2.49726E-15
3.85531E-08 1.56322E-15
4.75965E-08 1.02742E-15
5.75917E-08 7.02563E-16
6.85389E-08 4.96455E-16
8.04380E-08 3.60644E-16
9.32891E-08 2.68237E-16
1.07092E-07 2.03610E-16
1.21847E-07 1.57320E-16
1.37554E-07 1.23465E-16
1.54213E-07 9.82443E-17
1.71823E-07 7.91461E-17
1.90386E-07 6.44703E-17
2.09900E-07 5.30435E-17
2.30367E-07 4.40395E-17
2.51785E-07 3.68672E-17
2.74156E-07 3.10965E-17
2.97478E-07 2.64116E-17
3.21752E-07 2.25766E-17
3.46978E-07 1.94131E-17
3.73156E-07 1.67848E-17
4.00286E-07 1.45866E-17
4.28368E-07 1.27367E-17
4.57402E-07 1.11710E-17
4.87388E-07 9.83867E-18
5.18325E-07 8.69917E-18
5.50215E-07 7.71996E-18
5.83057E-07 6.87473E-18
6.16850E-07 6.14207E-18
6.51596E-07 5.50446E-18
6.87293E-07 4.94748E-18
7.23942E-07 4.45920E-18
7.61543E-07 4.02969E-18
1.18991E-06 1.65044E-18
1.71347E-06 7.95868E-19
2.33223E-06 4.29556E-19
3.04617E-06 2.51778E-19
3.85531E-06 1.57171E-19
4.75964E-06 1.03112E-19
5.75916E-06 7.04213E-20
6.85388E-06 4.97182E-20
8.04378E-06 3.60938E-20
9.32888E-06 2.68324E-20
1.07092E-05 2.03597E-20
1.21846E-05 1.57262E-20
1.37553E-05 1.23388E-20
1.54212E-05 9.81620E-21
1.71822E-05 7.90651E-21
1.90385E-05 6.43917E-21
2.09899E-05 5.29733E-21
2.30365E-05 4.39766E-21
2.51783E-05 3.68104E-21
2.74153E-05 3.10454E-21
2.97475E-05 2.63657E-21
3.21749E-05 2.25352E-21
3.46974E-05 1.93758E-21
3.73152E-05 1.67512E-21
4.00281E-05 1.45565E-21
4.28362E-05 1.27097E-21
4.57395E-05 1.11466E-21
4.87380E-05 9.81657E-22
5.18317E-05 8.67901E-22
5.50205E-05 7.70146E-22
5.83045E-05 6.85770E-22
6.16838E-05 6.12637E-22
6.51582E-05 5.48998E-22
6.87277E-05 4.93411E-22
7.23925E-05 4.44685E-22
7.61524E-05 3.95516E-22
9.21439E-05 2.69090E-22
1.09658E-04 1.89182E-22
1.28695E-04 1.36713E-22
1.49255E-04 1.01130E-22
1.71338E-04 7.63256E-23
1.94942E-04 5.86181E-23
2.20070E-04 4.57116E-23
2.46720E-04 3.61307E-23
2.74892E-04 2.89020E-23
3.04586E-04 2.33685E-23
3.35803E-04 1.90772E-23
3.68542E-04 1.57100E-23
4.02802E-04 1.30395E-23
4.38585E-04 1.09009E-23
4.75889E-04 9.17315E-24
5.14715E-04 7.76578E-24
5.55063E-04 6.61082E-24
5.96931E-04 5.65640E-24
6.40321E-04 4.86265E-24
6.85233E-04 4.19859E-24
7.31665E-04 3.63995E-24
7.79618E-04 3.16756E-24
8.29092E-04 2.76619E-24
8.80086E-04 2.42362E-24
9.32601E-04 2.13000E-24
9.86636E-04 1.87733E-24
1.04219E-03 1.65910E-24
1.09927E-03 1.46995E-24
1.15786E-03 1.30545E-24
1.21797E-03 1.16196E-24
1.27961E-03 1.03641E-24
1.34276E-03 9.26267E-25
1.40743E-03 8.29373E-25
1.47362E-03 7.43925E-25
1.54133E-03 6.68391E-25
1.61056E-03 6.01472E-25
1.68131E-03 5.42057E-25
1.75357E-03 4.89199E-25
1.82735E-03 4.42081E-25
1.90265E-03 4.00005E-25
1.97947E-03 3.62365E-25
2.05780E-03 3.28636E-25
2.13765E-03 2.98365E-25
2.21902E-03 2.71156E-25
2.30190E-03 2.46663E-25
2.38630E-03 2.24587E-25
2.47222E-03 2.04661E-25
2.55965E-03 1.86654E-25
2.64859E-03 1.70362E-25
2.73905E-03 1.55605E-25
2.83103E-03 1.42223E-25
2.92452E-03 1.30076E-25
3.01952E-03 1.19039E-25
3.11604E-03 1.09001E-25
3.21407E-03 9.98638E-26
3.31362E-03 9.15389E-26
3.41468E-03 8.39481E-26
3.51725E-03 7.70213E-26
3.62133E-03 7.06956E-26
3.72692E-03 6.49150E-26
3.83403E-03 5.96288E-26
3.94265E-03 5.47916E-26
4.05278E-03 5.03627E-26
4.16442E-03 4.63052E-26
4.27757E-03 4.25860E-26
4.39223E-03 3.91751E-26
4.50840E-03 3.60455E-26
4.62608E-03 3.31725E-26
4.74527E-03 3.05340E-26
4.86597E-03 2.81098E-26
4.98817E-03 2.58818E-26
5.11188E-03 2.38332E-26
5.23711E-03 2.19489E-26
5.36383E-03 2.02154E-26
5.49207E-03 1.86199E-26
5.62181E-03 1.71512E-26
5.75306E-03 1.57987E-26
5.88581E-03 1.45531E-26
6.02007E-03 1.34056E-26
6.15583E-03 1.23483E-26
6.29310E-03 1.13740E-26
6.43187E-03 1.04759E-26
6.57214E-03 9.64804E-27
6.71392E-03 8.88481E-27
6.85720E-03 8.18110E-27
7.00198E-03 7.53221E-27
7.14827E-03 6.93383E-27
7.29605E-03 6.38200E-27
7.44534E-03 5.87310E-27
7.59612E-03 5.40376E-27
7.97965E-03 4.38397E-27
8.37255E-03 3.55122E-27
8.77480E-03 2.87151E-27
9.18641E-03 2.31713E-27
9.60736E-03 1.86541E-27
1.00376E-02 1.49780E-27
1.04773E-02 1.19910E-27
1.09262E-02 9.56821E-28
1.13844E-02 7.60729E-28
1.18520E-02 6.02399E-28
1.23288E-02 4.74911E-28
1.28150E-02 3.72578E-28
1.33104E-02 2.90725E-28
1.38150E-02 2.25512E-28
1.43290E-02 1.73787E-28
1.48521E-02 1.32967E-28
1.53845E-02 1.00935E-28
1.59262E-02 7.59595E-29
1.64770E-02 5.66282E-29
1.70371E-02 4.17906E-29
1.76063E-02 3.05120E-29
1.81848E-02 2.20354E-29
1.87724E-02 1.57498E-29
1.93692E-02 1.11636E-29
1.99751E-02 7.88351E-30
2.05901E-02 5.59615E-30
2.12143E-02 4.05337E-30
2.18476E-02 3.05997E-30
2.24900E-02 2.46366E-30
2.31415E-02 2.14668E-30
2.38021E-02 2.01899E-30
2.44717E-02 2.01271E-30
2.51504E-02 2.07745E-30
2.58382E-02 2.17670E-30
2.65349E-02 2.28466E-30
2.72407E-02 2.38391E-30
2.79555E-02 2.46336E-30
2.86793E-02 2.51669E-30
2.94120E-02 2.54110E-30
3.01537E-02 2.53631E-30
3.09043E-02 2.50377E-30
3.16639E-02 2.44608E-30
3.24324E-02 2.36654E-30
3.32098E-02 2.26875E-30
3.39961E-02 2.15643E-30
3.47912E-02 2.03316E-30
3.55952E-02 1.90233E-30
3.64081E-02 1.76703E-30
3.72297E-02 1.62996E-30
3.80602E-02 1.49349E-30
3.88995E-02 1.35962E-30
3.97476E-02 1.22995E-30
4.06044E-02 1.10579E-30
4.14700E-02 9.88113E-31
4.23443E-02 8.77629E-31
4.32273E-02 7.74798E-31
4.41190E-02 6.79867E-31
4.50194E-02 5.92908E-31
4.59284E-02 5.13841E-31
4.68461E-02 4.42466E-31
4.87074E-02 3.21541E-31
5.06030E-02 2.27019E-31
5.25328E-02 1.55201E-31
5.44967E-02 1.02249E-31
5.64946E-02 6.44807E-32
5.85262E-02 3.85590E-32
6.05914E-02 2.15899E-32
6.26901E-02 1.11560E-32
6.48222E-02 5.30701E-33
6.69873E-02 2.52130E-33
6.91854E-02 1.65234E-33
7.14163E-02 1.86880E-33
7.36799E-02 2.59470E-33
7.59760E-02 3.45368E-33
7.83043E-02 4.21974E-33
8.06647E-02 4.77569E-33
8.30571E-02 5.07910E-33
8.54812E-02 5.13574E-33
8.79369E-02 4.97943E-33
9.04240E-02 4.65745E-33
9.29422E-02 4.22055E-33
9.54915E-02 3.71648E-33
9.80716E-02 3.18639E-33
1.00682E-01 2.66308E-33
1.03323E-01 2.17071E-33
1.05995E-01 1.72539E-33
1.08696E-01 1.33627E-33
1.11427E-01 1.00681E-33
1.14188E-01 7.36201E-34
1.16978E-01 5.20563E-34
1.19797E-01 3.54101E-34
1.22645E-01 2.29995E-34
1.25522E-01 1.41113E-34
1.28428E-01 8.05292E-35
1.31361E-01 4.18757E-35
1.34323E-01 1.95520E-35
1.37313E-01 8.82362E-36
1.40330E-01 5.83654E-36
1.43375E-01 7.57266E-36
1.46447E-01 1.17668E-35
1.49545E-01 1.68030E-35
1.52671E-01 2.16037E-35
1.55823E-01 2.55179E-35
1.59001E-01 2.82215E-35
1.62205E-01 2.96250E-35
1.65435E-01 2.97997E-35
1.68690E-01 2.89147E-35
1.71970E-01 2.71893E-35
1.75276E-01 2.48589E-35
1.78606E-01 2.21483E-35
1.81961E-01 1.92583E-35
1.85340E-01 1.63558E-35
1.88743E-01 1.35708E-35
1.92169E-01 1.09973E-35
1.95619E-01 8.69609E-36
1.99092E-01 6.69949E-36
2.02589E-01 5.01651E-36
2.06107E-01 3.63834E-36
2.09649E-01 2.54316E-36
2.13212E-01 1.70108E-36
2.16797E-01 1.07750E-36
2.20404E-01 6.36465E-37
2.24032E-01 3.42827E-37
2.27680E-01 1.63968E-37
2.31350E-01 7.08467E-38
2.35040E-01 3.85434E-38
2.38751E-01 4.64577E-38
2.42481E-01 7.81824E-38
2.46231E-01 1.21159E-37
2.50000E-01 1.66293E-37
2.53788E-01 2.07368E-37
2.57595E-01 2.40540E-37
2.61421E-01 2.63912E-37
2.65264E-01 2.76896E-37
2.69126E-01 2.80031E-37
2.73005E-01 2.74408E-37
2.76901E-01 2.61603E-37
2.80814E-01 2.43275E-37
2.84744E-01 2.21133E-37
2.88691E-01 1.96733E-37
2.92653E-01 1.71478E-37
2.96632E-01 1.46472E-37
3.00625E-01 1.22620E-37
3.04634E-01 1.00565E-37
3.08658E-01 8.07254E-38
3.12697E-01 6.33409E-38
3.16749E-01 4.84711E-38
3.20816E-01 3.60668E-38
3.24896E-01 2.59839E-38
3.28990E-01 1.80154E-38
3.33097E-01 1.19170E-38
3.37216E-01 7.42515E-39
3.41348E-01 4.27486E-39
3.45492E-01 1.00000E-45
3.49647E-01 1.00000E-45
3.53814E-01 1.00000E-45
3.57992E-01 1.00000E-45
3.62181E-01 1.00000E-45
3.66381E-01 1.00000E-45
3.70590E-01 1.00000E-45
3.74810E-01 1.00000E-45
3.79039E-01 1.00000E-45
3.83277E-01 1.00000E-45
3.87524E-01 1.00000E-45
3.91780E-01 1.00000E-45
3.96044E-01 1.00000E-45
4.00316E-01 1.00000E-45
4.04596E-01 1.00000E-45
4.08882E-01 1.00000E-45
4.13176E-01 1.00000E-45
4.17476E-01 1.00000E-45
4.21783E-01 1.00000E-45
4.26095E-01 1.00000E-45
4.30413E-01 1.00000E-45
4.34737E-01 1.00000E-45
4.39065E-01 1.00000E-45
4.43398E-01 1.00000E-45
4.47736E-01 1.00000E-45
4.52077E-01 1.00000E-45
4.56422E-01 1.00000E-45
4.60770E-01 1.00000E-45
4.65122E-01 1.00000E-45
4.69476E-01 1.00000E-45
4.73832E-01 1.00000E-45
4.78190E-01 1.00000E-45
4.82550E-01 1.00000E-45
4.86912E-01 1.00000E-45
4.91274E-01 1.00000E-45
4.95637E-01 1.00000E-45
5.00000E-01 1.00000E-45
5.04363E-01 1.00000E-45
5.08726E-01 1.00000E-45
5.13088E-01 1.00000E-45
5.17450E-01 1.00000E-45
5.21810E-01 1.00000E-45
5.26168E-01 1.00000E-45
5.30524E-01 1.00000E-45
5.34878E-01 1.00000E-45
5.39230E-01 1.00000E-45
5.43578E-01 1.00000E-45
5.47923E-01 1.00000E-45
5.52264E-01 1.00000E-45
5.56602E-01 1.00000E-45
5.60935E-01 1.00000E-45
5.65263E-01 1.00000E-45
5.69587E-01 1.00000E-45
5.73905E-01 1.00000E-45
5.78217E-01 1.00000E-45
5.82524E-01 1.00000E-45
5.86824E-01 1.00000E-45
5.91118E-01 1.00000E-45
5.95404E-01 1.00000E-45
5.99684E-01 1.00000E-45
6.03956E-01 1.00000E-45
6.08220E-01 1.00000E-45
6.12476E-01 1.00000E-45
6.16723E-01 1.00000E-45
6.20961E-01 1.00000E-45
6.25190E-01 1.00000E-45
6.29410E-01 1.00000E-45
6.33619E-01 1.00000E-45
6.37819E-01 1.00000E-45
6.42008E-01 1.00000E-45
6.46186E-01 1.00000E-45
6.50353E-01 1.00000E-45
6.54508E-01 1.00000E-45
6.58652E-01 1.00000E-45
6.62784E-01 1.00000E-45
6.66903E-01 1.00000E-45
6.71010E-01 1.00000E-45
6.75104E-01 1.00000E-45
6.79184E-01 1.00000E-45
6.83251E-01 1.00000E-45
6.87303E-01 1.00000E-45
6.91342E-01 1.00000E-45
6.95366E-01 1.00000E-45
6.99375E-01 1.00000E-45
7.03368E-01 1.00000E-45
7.07347E-01 1.00000E-45
7.11309E-01 1.00000E-45
7.15256E-01 1.00000E-45
7.19186E-01 1.00000E-45
7.23099E-01 1.00000E-45
7.26995E-01 1.00000E-45
7.30874E-01 1.00000E-45
7.34736E-01 1.00000E-45
7.38579E-01 1.00000E-45
7.42405E-01 1.00000E-45
7.46212E-01 1.00000E-45
7.50000E-01 1.00000E-45
7.53769E-01 1.00000E-45
7.57519E-01 1.00000E-45
7.61249E-01 1.00000E-45
7.64960E-01 1.00000E-45
7.68650E-01 1.00000E-45
7.72320E-01 1.00000E-45
7.75968E-01 1.00000E-45
7.79596E-01 1.00000E-45
7.83203E-01 1.00000E-45
7.86788E-01 1.00000E-45
7.90351E-01 1.00000E-45
7.93893E-01 1.00000E-45
7.97411E-01 1.00000E-45
8.00908E-01 1.00000E-45
8.04381E-01 1.00000E-45
8.07831E-01 1.00000E-45
8.11257E-01 1.00000E-45
8.14660E-01 1.00000E-45
8.18039E-01 1.00000E-45
8.21394E-01 1.00000E-45
8.24724E-01 1.00000E-45
8.28030E-01 1.00000E-45
8.31310E-01 1.00000E-45
8.34565E-01 1.00000E-45
8.37795E-01 1.00000E-45
8.40999E-01 1.00000E-45
8.44177E-01 1.00000E-45
8.47329E-01 1.00000E-45
8.50455E-01 1.00000E-45
8.53553E-01 1.00000E-45
8.56625E-01 1.00000E-45
8.59670E-01 1.00000E-45
8.62687E-01 1.00000E-45
8.65677E-01 1.00000E-45
8.68639E-01 1.00000E-45
8.71572E-01 1.00000E-45
8.74478E-01 1.00000E-45
8.77355E-01 1.00000E-45
8.80203E-01 1.00000E-45
8.83022E-01 1.00000E-45
8.85812E-01 1.00000E-45
8.88573E-01 1.00000E-45
8.91304E-01 1.00000E-45
8.94005E-01 1.00000E-45
8.96677E-01 1.00000E-45
8.99318E-01 1.00000E-45
9.01928E-01 1.00000E-45
9.04508E-01 1.00000E-45
9.07058E-01 1.00000E-45
9.09576E-01 1.00000E-45
9.12063E-01 1.00000E-45
9.14519E-01 1.00000E-45
9.16943E-01 1.00000E-45
9.19335E-01 1.00000E-45
9.21696E-01 1.00000E-45
9.24024E-01 1.00000E-45
9.26320E-01 1.00000E-45
9.28584E-01 1.00000E-45
9.30815E-01 1.00000E-45
9.33013E-01 1.00000E-45
9.35178E-01 1.00000E-45
9.37310E-01 1.00000E-45
9.39409E-01 1.00000E-45
9.41474E-01 1.00000E-45
9.43505E-01 1.00000E-45
9.45503E-01 1.00000E-45
9.47467E-01 1.00000E-45
9.49397E-01 1.00000E-45
9.51293E-01 1.00000E-45
9.53154E-01 1.00000E-45
9.54981E-01 1.00000E-45
9.56773E-01 1.00000E-45
9.58530E-01 1.00000E-45
9.60252E-01 1.00000E-45
9.61940E-01 1.00000E-45
9.63592E-01 1.00000E-45
9.65209E-01 1.00000E-45
9.66790E-01 1.00000E-45
9.68336E-01 1.00000E-45
9.69846E-01 1.00000E-45
9.71321E-01 1.00000E-45
9.72759E-01 1.00000E-45
9.74162E-01 1.00000E-45
9.75528E-01 1.00000E-45
9.76858E-01 1.00000E-45
9.78152E-01 1.00000E-45
9.79410E-01 1.00000E-45
9.80631E-01 1.00000E-45
9.81815E-01 1.00000E-45
9.82963E-01 1.00000E-45
9.84074E-01 1.00000E-45
9.85148E-01 1.00000E-45
9.86185E-01 1.00000E-45
9.87185E-01 1.00000E-45
9.88148E-01 1.00000E-45
9.89074E-01 1.00000E-45
9.89962E-01 1.00000E-45
9.90814E-01 1.00000E-45
9.91627E-01 1.00000E-45
9.92404E-01 1.00000E-45
9.93143E-01 1.00000E-45
9.93844E-01 1.00000E-45
9.94508E-01 1.00000E-45
9.95134E-01 1.00000E-45
9.95722E-01 1.00000E-45
9.96273E-01 1.00000E-45
9.96786E-01 1.00000E-45
9.97261E-01 1.00000E-45
9.97698E-01 1.00000E-45
9.98097E-01 1.00000E-45
9.98459E-01 1.00000E-45
9.98782E-01 1.00000E-45
9.99067E-01 1.00000E-45
9.99315E-01 1.00000E-45
9.99524E-01 1.00000E-45
9.99695E-01 1.00000E-45
9.99829E-01 1.00000E-45
9.99924E-01 1.00000E-45
9.99981E-01 1.00000E-45
1.00000E+00 1.00000E-45
