 #
 # Subroutine ELSEPA. Elastic scattering of electrons and positrons
 #                    by neutral atoms and positive ions
 #
 # Projectile: positron
 # Kinetic energy = 1.75000E+07 eV = 6.43113E+05 a.u.
 #
 # WARNING: High-energy factorization with free-atom DF screening.
 #          Absorption, polarization and exchange corrections are
 #          switched off.
 #          Phase shifts are calculated for the bare nucleus.
 #          Scattering amplitudes are not evaluated.
 #
 # Element: Cl,  Z =  17,  atomic weight = 3.54527E+01 g/mol
 #
 # Nuclear model: Fermi distribution
 #                Average radius = 3.51507E-13 cm
 #                Skin thickness = 5.46000E-14 cm
 #
 # Number of electrons = 17
 #
 # Total elastic cross section = 1.10067E-18 cm**2 = 3.93056E-02 a0**2
 # 1st transport cross section = 1.57558E-24 cm**2 = 5.62651E-08 a0**2
 # 2nd transport cross section = 4.57551E-24 cm**2 = 1.63395E-07 a0**2
 #
 #
 # Differential cross section:                       MU=(1-COS(THETA))/2
 #
 #  THETA        MU          DCS          DCS        Sherman      error
 #  (deg)                 (cm**2/sr)   (a0**2/sr)    function
 #----------------------------------------------------------------------
0.00000E+00 2.92351E-12
7.61557E-13 2.92336E-12
1.18994E-12 2.92328E-12
1.71346E-12 2.92318E-12
2.33225E-12 2.92307E-12
3.04617E-12 2.92294E-12
3.85530E-12 2.92279E-12
4.75964E-12 2.92262E-12
5.75917E-12 2.92243E-12
6.85391E-12 2.92223E-12
8.04379E-12 2.92201E-12
9.32893E-12 2.92177E-12
1.07092E-11 2.92152E-12
1.21847E-11 2.92125E-12
1.37554E-11 2.92096E-12
1.54213E-11 2.92065E-12
1.71823E-11 2.92033E-12
1.90386E-11 2.91999E-12
2.09900E-11 2.91963E-12
2.30367E-11 2.91926E-12
2.51785E-11 2.91886E-12
2.74156E-11 2.91846E-12
2.97478E-11 2.91803E-12
3.21752E-11 2.91758E-12
3.46979E-11 2.91712E-12
3.73157E-11 2.91665E-12
4.00286E-11 2.91615E-12
4.28368E-11 2.91564E-12
4.57402E-11 2.91511E-12
4.87388E-11 2.91456E-12
5.18325E-11 2.91400E-12
5.50215E-11 2.91341E-12
5.83057E-11 2.91282E-12
6.16850E-11 2.91220E-12
6.51595E-11 2.91157E-12
6.87293E-11 2.91092E-12
7.23943E-11 2.91025E-12
7.61544E-11 2.90957E-12
1.18991E-10 2.90180E-12
1.71347E-10 2.89235E-12
2.33223E-10 2.88125E-12
3.04617E-10 2.86851E-12
3.85531E-10 2.85417E-12
4.75965E-10 2.83827E-12
5.75917E-10 2.82086E-12
6.85389E-10 2.80193E-12
8.04380E-10 2.78157E-12
9.32891E-10 2.75982E-12
1.07092E-09 2.73674E-12
1.21847E-09 2.71232E-12
1.37554E-09 2.68667E-12
1.54213E-09 2.65986E-12
1.71823E-09 2.63193E-12
1.90386E-09 2.60289E-12
2.09900E-09 2.57285E-12
2.30367E-09 2.54190E-12
2.51785E-09 2.51005E-12
2.74156E-09 2.47733E-12
2.97478E-09 2.44389E-12
3.21752E-09 2.40977E-12
3.46978E-09 2.37497E-12
3.73156E-09 2.33958E-12
4.00286E-09 2.30372E-12
4.28368E-09 2.26743E-12
4.57402E-09 2.23066E-12
4.87388E-09 2.19223E-12
5.18326E-09 2.15208E-12
5.50215E-09 2.11267E-12
5.83057E-09 2.07403E-12
6.16850E-09 2.03619E-12
6.51596E-09 1.99917E-12
6.87293E-09 1.96299E-12
7.23942E-09 1.92767E-12
7.61544E-09 1.88968E-12
1.18991E-08 1.51965E-12
1.71347E-08 1.19496E-12
2.33223E-08 9.26324E-13
3.04617E-08 7.10602E-13
3.85531E-08 5.42882E-13
4.75965E-08 4.16066E-13
5.75917E-08 3.20840E-13
6.85389E-08 2.49161E-13
8.04380E-08 1.95475E-13
9.32891E-08 1.55138E-13
1.07092E-07 1.24598E-13
1.21847E-07 1.01240E-13
1.37554E-07 8.32347E-14
1.54213E-07 6.92099E-14
1.71823E-07 5.81625E-14
1.90386E-07 4.93596E-14
2.09900E-07 4.22685E-14
2.30367E-07 3.64939E-14
2.51785E-07 3.17401E-14
2.74156E-07 2.77872E-14
2.97478E-07 2.44720E-14
3.21752E-07 2.16676E-14
3.46978E-07 1.92732E-14
3.73156E-07 1.72151E-14
4.00286E-07 1.54353E-14
4.28368E-07 1.38867E-14
4.57402E-07 1.25288E-14
4.87388E-07 1.13261E-14
5.18325E-07 1.02614E-14
5.50215E-07 9.33289E-15
5.83057E-07 8.50924E-15
6.16850E-07 7.75643E-15
6.51596E-07 7.09339E-15
6.87293E-07 6.50470E-15
7.23942E-07 5.95872E-15
7.61543E-07 5.47379E-15
1.18991E-06 2.51305E-15
1.71347E-06 1.28155E-15
2.33223E-06 7.12404E-16
3.04617E-06 4.25608E-16
3.85531E-06 2.69715E-16
4.75964E-06 1.79340E-16
5.75916E-06 1.24028E-16
6.85388E-06 8.86023E-17
8.04378E-06 6.50289E-17
9.32888E-06 4.88303E-17
1.07092E-05 3.73902E-17
1.21846E-05 2.91183E-17
1.37553E-05 2.30141E-17
1.54212E-05 1.84285E-17
1.71822E-05 1.49287E-17
1.90385E-05 1.22200E-17
2.09899E-05 1.00981E-17
2.30365E-05 8.41625E-18
2.51783E-05 7.06932E-18
2.74153E-05 5.98048E-18
2.97475E-05 5.09273E-18
3.21749E-05 4.36325E-18
3.46974E-05 3.75946E-18
3.73152E-05 3.25632E-18
4.00281E-05 2.83439E-18
4.28362E-05 2.47845E-18
4.57395E-05 2.17651E-18
4.87380E-05 1.91904E-18
5.18317E-05 1.69845E-18
5.50205E-05 1.50857E-18
5.83045E-05 1.34443E-18
6.16838E-05 1.20197E-18
6.51582E-05 1.07785E-18
6.87277E-05 9.69317E-19
7.23925E-05 8.74082E-19
7.61524E-05 7.90239E-19
9.21439E-05 5.40444E-19
1.09658E-04 3.81895E-19
1.28695E-04 2.77402E-19
1.49255E-04 2.06293E-19
1.71338E-04 1.56562E-19
1.94942E-04 1.20942E-19
2.20070E-04 9.48935E-20
2.46720E-04 7.54907E-20
2.74892E-04 6.07996E-20
3.04586E-04 4.95126E-20
3.35803E-04 4.07256E-20
3.68542E-04 3.38030E-20
4.02802E-04 2.82898E-20
4.38585E-04 2.38554E-20
4.75889E-04 2.02562E-20
5.14715E-04 1.73104E-20
5.55063E-04 1.48803E-20
5.96931E-04 1.28617E-20
6.40321E-04 1.11739E-20
6.85233E-04 9.75390E-21
7.31665E-04 8.55228E-21
7.79618E-04 7.52999E-21
8.29092E-04 6.65585E-21
8.80086E-04 5.90485E-21
9.32601E-04 5.25675E-21
9.86636E-04 4.69510E-21
1.04219E-03 4.20643E-21
1.09927E-03 3.77965E-21
1.15786E-03 3.40559E-21
1.21797E-03 3.07663E-21
1.27961E-03 2.78641E-21
1.34276E-03 2.52958E-21
1.40743E-03 2.30164E-21
1.47362E-03 2.09877E-21
1.54133E-03 1.91775E-21
1.61056E-03 1.75580E-21
1.68131E-03 1.61057E-21
1.75357E-03 1.48003E-21
1.82735E-03 1.36244E-21
1.90265E-03 1.25628E-21
1.97947E-03 1.16025E-21
2.05780E-03 1.07320E-21
2.13765E-03 9.94162E-22
2.21902E-03 9.22253E-22
2.30190E-03 8.56721E-22
2.38630E-03 7.96898E-22
2.47222E-03 7.42198E-22
2.55965E-03 6.92105E-22
2.64859E-03 6.46161E-22
2.73905E-03 6.03960E-22
2.83103E-03 5.65143E-22
2.92452E-03 5.29390E-22
3.01952E-03 4.96415E-22
3.11604E-03 4.65963E-22
3.21407E-03 4.37807E-22
3.31362E-03 4.11741E-22
3.41468E-03 3.87584E-22
3.51725E-03 3.65168E-22
3.62133E-03 3.44347E-22
3.72692E-03 3.24986E-22
3.83403E-03 3.06964E-22
3.94265E-03 2.90172E-22
4.05278E-03 2.74510E-22
4.16442E-03 2.59888E-22
4.27757E-03 2.46225E-22
4.39223E-03 2.33446E-22
4.50840E-03 2.21484E-22
4.62608E-03 2.10277E-22
4.74527E-03 1.99767E-22
4.86597E-03 1.89905E-22
4.98817E-03 1.80643E-22
5.11188E-03 1.71937E-22
5.23711E-03 1.63748E-22
5.36383E-03 1.56039E-22
5.49207E-03 1.48778E-22
5.62181E-03 1.41933E-22
5.75306E-03 1.35476E-22
5.88581E-03 1.29382E-22
6.02007E-03 1.23625E-22
6.15583E-03 1.18184E-22
6.29310E-03 1.13039E-22
6.43187E-03 1.08170E-22
6.57214E-03 1.03559E-22
6.71392E-03 9.91906E-23
6.85720E-03 9.50496E-23
7.00198E-03 9.11219E-23
7.14827E-03 8.73943E-23
7.29605E-03 8.38549E-23
7.44534E-03 8.04923E-23
7.59612E-03 7.72961E-23
7.97965E-03 6.99710E-23
8.37255E-03 6.34909E-23
8.77480E-03 5.77417E-23
9.18641E-03 5.26268E-23
9.60736E-03 4.80641E-23
1.00376E-02 4.39838E-23
1.04773E-02 4.03260E-23
1.09262E-02 3.70394E-23
1.13844E-02 3.40797E-23
1.18520E-02 3.14088E-23
1.23288E-02 2.89935E-23
1.28150E-02 2.68051E-23
1.33104E-02 2.48186E-23
1.38150E-02 2.30120E-23
1.43290E-02 2.13662E-23
1.48521E-02 1.98643E-23
1.53845E-02 1.84915E-23
1.59262E-02 1.72347E-23
1.64770E-02 1.60825E-23
1.70371E-02 1.50246E-23
1.76063E-02 1.40518E-23
1.81848E-02 1.31561E-23
1.87724E-02 1.23303E-23
1.93692E-02 1.15680E-23
1.99751E-02 1.08634E-23
2.05901E-02 1.02114E-23
2.12143E-02 9.60727E-24
2.18476E-02 9.04695E-24
2.24900E-02 8.52667E-24
2.31415E-02 8.04306E-24
2.38021E-02 7.59305E-24
2.44717E-02 7.17390E-24
2.51504E-02 6.78311E-24
2.58382E-02 6.41841E-24
2.65349E-02 6.07775E-24
2.72407E-02 5.75925E-24
2.79555E-02 5.46121E-24
2.86793E-02 5.18208E-24
2.94120E-02 4.92044E-24
3.01537E-02 4.67500E-24
3.09043E-02 4.44456E-24
3.16639E-02 4.22806E-24
3.24324E-02 4.02449E-24
3.32098E-02 3.83293E-24
3.39961E-02 3.65256E-24
3.47912E-02 3.48259E-24
3.55952E-02 3.32233E-24
3.64081E-02 3.17110E-24
3.72297E-02 3.02832E-24
3.80602E-02 2.89342E-24
3.88995E-02 2.76589E-24
3.97476E-02 2.64525E-24
4.06044E-02 2.53107E-24
4.14700E-02 2.42293E-24
4.23443E-02 2.32045E-24
4.32273E-02 2.22329E-24
4.41190E-02 2.13111E-24
4.50194E-02 2.04363E-24
4.59284E-02 1.96054E-24
4.68461E-02 1.88160E-24
4.87074E-02 1.73517E-24
5.06030E-02 1.60259E-24
5.25328E-02 1.48232E-24
5.44967E-02 1.37301E-24
5.64946E-02 1.27349E-24
5.85262E-02 1.18274E-24
6.05914E-02 1.09985E-24
6.26901E-02 1.02402E-24
6.48222E-02 9.54537E-25
6.69873E-02 8.90784E-25
6.91854E-02 8.32204E-25
7.14163E-02 7.78305E-25
7.36799E-02 7.28646E-25
7.59760E-02 6.82835E-25
7.83043E-02 6.40522E-25
8.06647E-02 6.01394E-25
8.30571E-02 5.65168E-25
8.54812E-02 5.31591E-25
8.79369E-02 5.00436E-25
9.04240E-02 4.71497E-25
9.29422E-02 4.44588E-25
9.54915E-02 4.19543E-25
9.80716E-02 3.96209E-25
1.00682E-01 3.74449E-25
1.03323E-01 3.54139E-25
1.05995E-01 3.35163E-25
1.08696E-01 3.17420E-25
1.11427E-01 3.00816E-25
1.14188E-01 2.85263E-25
1.16978E-01 2.70684E-25
1.19797E-01 2.57007E-25
1.22645E-01 2.44167E-25
1.25522E-01 2.32103E-25
1.28428E-01 2.20760E-25
1.31361E-01 2.10087E-25
1.34323E-01 2.00038E-25
1.37313E-01 1.90570E-25
1.40330E-01 1.81644E-25
1.43375E-01 1.73222E-25
1.46447E-01 1.65272E-25
1.49545E-01 1.57761E-25
1.52671E-01 1.50663E-25
1.55823E-01 1.43950E-25
1.59001E-01 1.37597E-25
1.62205E-01 1.31582E-25
1.65435E-01 1.25884E-25
1.68690E-01 1.20483E-25
1.71970E-01 1.15360E-25
1.75276E-01 1.10500E-25
1.78606E-01 1.05885E-25
1.81961E-01 1.01503E-25
1.85340E-01 9.73377E-26
1.88743E-01 9.33779E-26
1.92169E-01 8.96114E-26
1.95619E-01 8.60271E-26
1.99092E-01 8.26146E-26
2.02589E-01 7.93642E-26
2.06107E-01 7.62670E-26
2.09649E-01 7.33143E-26
2.13212E-01 7.04984E-26
2.16797E-01 6.78117E-26
2.20404E-01 6.52473E-26
2.24032E-01 6.27987E-26
2.27680E-01 6.04597E-26
2.31350E-01 5.82246E-26
2.35040E-01 5.60879E-26
2.38751E-01 5.40446E-26
2.42481E-01 5.20899E-26
2.46231E-01 5.02192E-26
2.50000E-01 4.84284E-26
2.53788E-01 4.67134E-26
2.57595E-01 4.50704E-26
2.61421E-01 4.34960E-26
2.65264E-01 4.19867E-26
2.69126E-01 4.05395E-26
2.73005E-01 3.91512E-26
2.76901E-01 3.78192E-26
2.80814E-01 3.65407E-26
2.84744E-01 3.53132E-26
2.88691E-01 3.41343E-26
2.92653E-01 3.30018E-26
2.96632E-01 3.19136E-26
3.00625E-01 3.08675E-26
3.04634E-01 2.98618E-26
3.08658E-01 2.88945E-26
3.12697E-01 2.79640E-26
3.16749E-01 2.70686E-26
3.20816E-01 2.62068E-26
3.24896E-01 2.53771E-26
3.28990E-01 2.45781E-26
3.33097E-01 2.38085E-26
3.37216E-01 2.30670E-26
3.41348E-01 2.23524E-26
3.45492E-01 2.16635E-26
3.49647E-01 2.09994E-26
3.53814E-01 2.03589E-26
3.57992E-01 1.97411E-26
3.62181E-01 1.91450E-26
3.66381E-01 1.85698E-26
3.70590E-01 1.80145E-26
3.74810E-01 1.74784E-26
3.79039E-01 1.69608E-26
3.83277E-01 1.64608E-26
3.87524E-01 1.59778E-26
3.91780E-01 1.55110E-26
3.96044E-01 1.50600E-26
4.00316E-01 1.46240E-26
4.04596E-01 1.42024E-26
4.08882E-01 1.37947E-26
4.13176E-01 1.34004E-26
4.17476E-01 1.30190E-26
4.21783E-01 1.26500E-26
4.26095E-01 1.22928E-26
4.30413E-01 1.19471E-26
4.34737E-01 1.16125E-26
4.39065E-01 1.12884E-26
4.43398E-01 1.09746E-26
4.47736E-01 1.06707E-26
4.52077E-01 1.03762E-26
4.56422E-01 1.00909E-26
4.60770E-01 9.81442E-27
4.65122E-01 9.54645E-27
4.69476E-01 9.28668E-27
4.73832E-01 9.03482E-27
4.78190E-01 8.79059E-27
4.82550E-01 8.55373E-27
4.86912E-01 8.32398E-27
4.91274E-01 8.10109E-27
4.95637E-01 7.88482E-27
5.00000E-01 7.67495E-27
5.04363E-01 7.47126E-27
5.08726E-01 7.27353E-27
5.13088E-01 7.08157E-27
5.17450E-01 6.89519E-27
5.21810E-01 6.71419E-27
5.26168E-01 6.53839E-27
5.30524E-01 6.36762E-27
5.34878E-01 6.20173E-27
5.39230E-01 6.04054E-27
5.43578E-01 5.88390E-27
5.47923E-01 5.73167E-27
5.52264E-01 5.58371E-27
5.56602E-01 5.43986E-27
5.60935E-01 5.30002E-27
5.65263E-01 5.16403E-27
5.69587E-01 5.03179E-27
5.73905E-01 4.90318E-27
5.78217E-01 4.77808E-27
5.82524E-01 4.65637E-27
5.86824E-01 4.53797E-27
5.91118E-01 4.42276E-27
5.95404E-01 4.31064E-27
5.99684E-01 4.20152E-27
6.03956E-01 4.09531E-27
6.08220E-01 3.99191E-27
6.12476E-01 3.89126E-27
6.16723E-01 3.79325E-27
6.20961E-01 3.69781E-27
6.25190E-01 3.60487E-27
6.29410E-01 3.51435E-27
6.33619E-01 3.42618E-27
6.37819E-01 3.34029E-27
6.42008E-01 3.25661E-27
6.46186E-01 3.17508E-27
6.50353E-01 3.09564E-27
6.54508E-01 3.01822E-27
6.58652E-01 2.94276E-27
6.62784E-01 2.86922E-27
6.66903E-01 2.79753E-27
6.71010E-01 2.72764E-27
6.75104E-01 2.65951E-27
6.79184E-01 2.59308E-27
6.83251E-01 2.52830E-27
6.87303E-01 2.46512E-27
6.91342E-01 2.40352E-27
6.95366E-01 2.34343E-27
6.99375E-01 2.28481E-27
7.03368E-01 2.22764E-27
7.07347E-01 2.17186E-27
7.11309E-01 2.11744E-27
7.15256E-01 2.06434E-27
7.19186E-01 2.01253E-27
7.23099E-01 1.96198E-27
7.26995E-01 1.91263E-27
7.30874E-01 1.86448E-27
7.34736E-01 1.81748E-27
7.38579E-01 1.77160E-27
7.42405E-01 1.72681E-27
7.46212E-01 1.68309E-27
7.50000E-01 1.64041E-27
7.53769E-01 1.59874E-27
7.57519E-01 1.55805E-27
7.61249E-01 1.51832E-27
7.64960E-01 1.47952E-27
7.68650E-01 1.44163E-27
7.72320E-01 1.40463E-27
7.75968E-01 1.36849E-27
7.79596E-01 1.33319E-27
7.83203E-01 1.29872E-27
7.86788E-01 1.26504E-27
7.90351E-01 1.23214E-27
7.93893E-01 1.20001E-27
7.97411E-01 1.16862E-27
8.00908E-01 1.13795E-27
8.04381E-01 1.10798E-27
8.07831E-01 1.07871E-27
8.11257E-01 1.05010E-27
8.14660E-01 1.02215E-27
8.18039E-01 9.94843E-28
8.21394E-01 9.68158E-28
8.24724E-01 9.42081E-28
8.28030E-01 9.16600E-28
8.31310E-01 8.91699E-28
8.34565E-01 8.67365E-28
8.37795E-01 8.43585E-28
8.40999E-01 8.20345E-28
8.44177E-01 7.97633E-28
8.47329E-01 7.75437E-28
8.50455E-01 7.53745E-28
8.53553E-01 7.32545E-28
8.56625E-01 7.11827E-28
8.59670E-01 6.91579E-28
8.62687E-01 6.71790E-28
8.65677E-01 6.52451E-28
8.68639E-01 6.33550E-28
8.71572E-01 6.15080E-28
8.74478E-01 5.97029E-28
8.77355E-01 5.79389E-28
8.80203E-01 5.62151E-28
8.83022E-01 5.45306E-28
8.85812E-01 5.28846E-28
8.88573E-01 5.12762E-28
8.91304E-01 4.97046E-28
8.94005E-01 4.81690E-28
8.96677E-01 4.66688E-28
8.99318E-01 4.52031E-28
9.01928E-01 4.37712E-28
9.04508E-01 4.23725E-28
9.07058E-01 4.10062E-28
9.09576E-01 3.96717E-28
9.12063E-01 3.83684E-28
9.14519E-01 3.70956E-28
9.16943E-01 3.58527E-28
9.19335E-01 3.46391E-28
9.21696E-01 3.34543E-28
9.24024E-01 3.22976E-28
9.26320E-01 3.11686E-28
9.28584E-01 3.00667E-28
9.30815E-01 2.89915E-28
9.33013E-01 2.79423E-28
9.35178E-01 2.69187E-28
9.37310E-01 2.59203E-28
9.39409E-01 2.49466E-28
9.41474E-01 2.39971E-28
9.43505E-01 2.30714E-28
9.45503E-01 2.21691E-28
9.47467E-01 2.12898E-28
9.49397E-01 2.04331E-28
9.51293E-01 1.95985E-28
9.53154E-01 1.87858E-28
9.54981E-01 1.79945E-28
9.56773E-01 1.72244E-28
9.58530E-01 1.64749E-28
9.60252E-01 1.57460E-28
9.61940E-01 1.50371E-28
9.63592E-01 1.43480E-28
9.65209E-01 1.36784E-28
9.66790E-01 1.30280E-28
9.68336E-01 1.23966E-28
9.69846E-01 1.17837E-28
9.71321E-01 1.11892E-28
9.72759E-01 1.06129E-28
9.74162E-01 1.00544E-28
9.75528E-01 9.51352E-29
9.76858E-01 8.99004E-29
9.78152E-01 8.48373E-29
9.79410E-01 7.99436E-29
9.80631E-01 7.52173E-29
9.81815E-01 7.06564E-29
9.82963E-01 6.62590E-29
9.84074E-01 6.20231E-29
9.85148E-01 5.79469E-29
9.86185E-01 5.40288E-29
9.87185E-01 5.02671E-29
9.88148E-01 4.66602E-29
9.89074E-01 4.32066E-29
9.89962E-01 3.99048E-29
9.90814E-01 3.67534E-29
9.91627E-01 3.37511E-29
9.92404E-01 3.08968E-29
9.93143E-01 2.81890E-29
9.93844E-01 2.56269E-29
9.94508E-01 2.32092E-29
9.95134E-01 2.09349E-29
9.95722E-01 1.88032E-29
9.96273E-01 1.68131E-29
9.96786E-01 1.49638E-29
9.97261E-01 1.32545E-29
9.97698E-01 1.16846E-29
9.98097E-01 1.02533E-29
9.98459E-01 8.96018E-30
9.98782E-01 7.80457E-30
9.99067E-01 6.78604E-30
9.99315E-01 5.90415E-30
9.99524E-01 5.15856E-30
9.99695E-01 4.54894E-30
9.99829E-01 4.07506E-30
9.99924E-01 3.73672E-30
9.99981E-01 3.53376E-30
1.00000E+00 3.46613E-30
