 #
 # Subroutine ELSEPA. Elastic scattering of electrons and positrons
 #                    by neutral atoms and positive ions
 #
 # Projectile: electron
 # Kinetic energy = 9.00000E+06 eV = 3.30744E+05 a.u.
 #
 # WARNING: High-energy factorization with free-atom DF screening.
 #          Absorption, polarization and exchange corrections are
 #          switched off.
 #          Phase shifts are calculated for the bare nucleus.
 #          Scattering amplitudes are not evaluated.
 #
 # Element: Yb,  Z =  70,  atomic weight = 1.73040E+02 g/mol
 #
 # Nuclear model: Fermi distribution
 #                Average radius = 5.96256E-13 cm
 #                Skin thickness = 5.46000E-14 cm
 #
 # Number of electrons = 70
 #
 # Total elastic cross section = 7.01483E-18 cm**2 = 2.50504E-01 a0**2
 # 1st transport cross section = 9.57690E-23 cm**2 = 3.41997E-06 a0**2
 # 2nd transport cross section = 2.64408E-22 cm**2 = 9.44220E-06 a0**2
 #
 #
 # Differential cross section:                       MU=(1-COS(THETA))/2
 #
 #  THETA        MU          DCS          DCS        Sherman      error
 #  (deg)                 (cm**2/sr)   (a0**2/sr)    function
 #----------------------------------------------------------------------
0.00000E+00 6.03883E-12
7.61557E-13 6.03859E-12
1.18994E-12 6.03845E-12
1.71346E-12 6.03829E-12
2.33225E-12 6.03810E-12
3.04617E-12 6.03788E-12
3.85530E-12 6.03763E-12
4.75964E-12 6.03735E-12
5.75917E-12 6.03704E-12
6.85391E-12 6.03671E-12
8.04379E-12 6.03634E-12
9.32893E-12 6.03595E-12
1.07092E-11 6.03552E-12
1.21847E-11 6.03507E-12
1.37554E-11 6.03458E-12
1.54213E-11 6.03407E-12
1.71823E-11 6.03353E-12
1.90386E-11 6.03296E-12
2.09900E-11 6.03236E-12
2.30367E-11 6.03173E-12
2.51785E-11 6.03107E-12
2.74156E-11 6.03038E-12
2.97478E-11 6.02967E-12
3.21752E-11 6.02892E-12
3.46979E-11 6.02815E-12
3.73157E-11 6.02734E-12
4.00286E-11 6.02651E-12
4.28368E-11 6.02565E-12
4.57402E-11 6.02476E-12
4.87388E-11 6.02384E-12
5.18325E-11 6.02289E-12
5.50215E-11 6.02191E-12
5.83057E-11 6.02091E-12
6.16850E-11 6.01987E-12
6.51595E-11 6.01881E-12
6.87293E-11 6.01771E-12
7.23943E-11 6.01659E-12
7.61544E-11 6.01544E-12
1.18991E-10 6.00237E-12
1.71347E-10 5.98645E-12
2.33223E-10 5.96774E-12
3.04617E-10 5.94627E-12
3.85531E-10 5.92209E-12
4.75965E-10 5.89527E-12
5.75917E-10 5.86587E-12
6.85389E-10 5.83395E-12
8.04380E-10 5.79960E-12
9.32891E-10 5.76288E-12
1.07092E-09 5.72388E-12
1.21847E-09 5.68269E-12
1.37554E-09 5.63940E-12
1.54213E-09 5.59410E-12
1.71823E-09 5.54688E-12
1.90386E-09 5.49786E-12
2.09900E-09 5.44712E-12
2.30367E-09 5.39477E-12
2.51785E-09 5.34091E-12
2.74156E-09 5.28591E-12
2.97478E-09 5.22954E-12
3.21752E-09 5.17186E-12
3.46978E-09 5.11295E-12
3.73156E-09 5.05292E-12
4.00286E-09 4.99194E-12
4.28368E-09 4.93080E-12
4.57402E-09 4.86881E-12
4.87388E-09 4.80606E-12
5.18326E-09 4.74264E-12
5.50215E-09 4.67863E-12
5.83057E-09 4.61448E-12
6.16850E-09 4.55062E-12
6.51596E-09 4.48642E-12
6.87293E-09 4.42195E-12
7.23942E-09 4.35728E-12
7.61544E-09 4.29247E-12
1.18991E-08 3.66710E-12
1.71347E-08 3.10435E-12
2.33223E-08 2.62536E-12
3.04617E-08 2.23180E-12
3.85531E-08 1.91321E-12
4.75965E-08 1.65587E-12
5.75917E-08 1.44710E-12
6.85389E-08 1.27594E-12
8.04380E-08 1.13356E-12
9.32891E-08 1.01351E-12
1.07092E-07 9.10903E-13
1.21847E-07 8.21874E-13
1.37554E-07 7.44060E-13
1.54213E-07 6.75490E-13
1.71823E-07 6.14543E-13
1.90386E-07 5.60059E-13
2.09900E-07 5.11295E-13
2.30367E-07 4.67512E-13
2.51785E-07 4.27986E-13
2.74156E-07 3.89231E-13
2.97478E-07 3.55418E-13
3.21752E-07 3.26195E-13
3.46978E-07 3.00807E-13
3.73156E-07 2.78642E-13
4.00286E-07 2.58721E-13
4.28368E-07 2.37678E-13
4.57402E-07 2.19209E-13
4.87388E-07 2.02932E-13
5.18325E-07 1.88528E-13
5.50215E-07 1.75735E-13
5.83057E-07 1.63722E-13
6.16850E-07 1.51869E-13
6.51596E-07 1.41290E-13
6.87293E-07 1.31817E-13
7.23942E-07 1.23309E-13
7.61543E-07 1.15645E-13
1.18991E-06 6.21274E-14
1.71347E-06 3.60568E-14
2.33223E-06 2.21125E-14
3.04617E-06 1.41649E-14
3.85531E-06 9.45278E-15
4.75964E-06 6.55108E-15
5.75916E-06 4.69392E-15
6.85388E-06 3.46005E-15
8.04378E-06 2.61193E-15
9.32888E-06 2.01406E-15
1.07092E-05 1.58045E-15
1.21846E-05 1.25770E-15
1.37553E-05 1.01326E-15
1.54212E-05 8.25340E-16
1.71822E-05 6.78949E-16
1.90385E-05 5.63231E-16
2.09899E-05 4.71560E-16
2.30365E-05 3.97628E-16
2.51783E-05 3.37427E-16
2.74153E-05 2.87871E-16
2.97475E-05 2.47309E-16
3.21749E-05 2.13571E-16
3.46974E-05 1.85394E-16
3.73152E-05 1.61801E-16
4.00281E-05 1.41768E-16
4.28362E-05 1.24844E-16
4.57395E-05 1.10290E-16
4.87380E-05 9.78446E-17
5.18317E-05 8.70809E-17
5.50205E-05 7.77590E-17
5.83045E-05 6.96613E-17
6.16838E-05 6.25783E-17
6.51582E-05 5.63976E-17
6.87277E-05 5.09419E-17
7.23925E-05 4.61481E-17
7.61524E-05 4.18985E-17
9.21439E-05 2.91100E-17
1.09658E-04 2.08501E-17
1.28695E-04 1.53279E-17
1.49255E-04 1.15198E-17
1.71338E-04 8.82507E-18
1.94942E-04 6.87341E-18
2.20070E-04 5.43270E-18
2.46720E-04 4.35040E-18
2.74892E-04 3.52444E-18
3.04586E-04 2.88540E-18
3.35803E-04 2.38483E-18
3.68542E-04 1.98827E-18
4.02802E-04 1.67079E-18
4.38585E-04 1.41425E-18
4.75889E-04 1.20515E-18
5.14715E-04 1.03335E-18
5.55063E-04 8.91128E-19
5.96931E-04 7.72592E-19
6.40321E-04 6.73163E-19
6.85233E-04 5.89257E-19
7.31665E-04 5.18052E-19
7.79618E-04 4.57311E-19
8.29092E-04 4.05241E-19
8.80086E-04 3.60394E-19
9.32601E-04 3.21600E-19
9.86636E-04 2.87904E-19
1.04219E-03 2.58521E-19
1.09927E-03 2.32805E-19
1.15786E-03 2.10219E-19
1.21797E-03 1.90316E-19
1.27961E-03 1.72722E-19
1.34276E-03 1.57122E-19
1.40743E-03 1.43251E-19
1.47362E-03 1.30883E-19
1.54133E-03 1.19826E-19
1.61056E-03 1.09918E-19
1.68131E-03 1.01017E-19
1.75357E-03 9.30025E-20
1.82735E-03 8.57708E-20
1.90265E-03 7.92315E-20
1.97947E-03 7.33066E-20
2.05780E-03 6.79278E-20
2.13765E-03 6.30357E-20
2.21902E-03 5.85782E-20
2.30190E-03 5.45099E-20
2.38630E-03 5.07904E-20
2.47222E-03 4.73844E-20
2.55965E-03 4.42605E-20
2.64859E-03 4.13915E-20
2.73905E-03 3.87523E-20
2.83103E-03 3.63214E-20
2.92452E-03 3.40794E-20
3.01952E-03 3.20085E-20
3.11604E-03 3.00936E-20
3.21407E-03 2.83208E-20
3.31362E-03 2.66772E-20
3.41468E-03 2.51520E-20
3.51725E-03 2.37350E-20
3.62133E-03 2.24170E-20
3.72692E-03 2.11899E-20
3.83403E-03 2.00462E-20
3.94265E-03 1.89792E-20
4.05278E-03 1.79827E-20
4.16442E-03 1.70513E-20
4.27757E-03 1.61799E-20
4.39223E-03 1.53638E-20
4.50840E-03 1.45990E-20
4.62608E-03 1.38816E-20
4.74527E-03 1.32080E-20
4.86597E-03 1.25752E-20
4.98817E-03 1.19802E-20
5.11188E-03 1.14202E-20
5.23711E-03 1.08928E-20
5.36383E-03 1.03959E-20
5.49207E-03 9.92717E-21
5.62181E-03 9.48483E-21
5.75306E-03 9.06710E-21
5.88581E-03 8.67235E-21
6.02007E-03 8.29904E-21
6.15583E-03 7.94581E-21
6.29310E-03 7.61138E-21
6.43187E-03 7.29454E-21
6.57214E-03 6.99418E-21
6.71392E-03 6.70930E-21
6.85720E-03 6.43893E-21
7.00198E-03 6.18219E-21
7.14827E-03 5.93827E-21
7.29605E-03 5.70641E-21
7.44534E-03 5.48587E-21
7.59612E-03 5.27601E-21
7.97965E-03 4.79414E-21
8.37255E-03 4.36667E-21
8.77480E-03 3.98636E-21
9.18641E-03 3.64707E-21
9.60736E-03 3.34359E-21
1.00376E-02 3.07144E-21
1.04773E-02 2.82680E-21
1.09262E-02 2.60638E-21
1.13844E-02 2.40734E-21
1.18520E-02 2.22723E-21
1.23288E-02 2.06390E-21
1.28150E-02 1.91552E-21
1.33104E-02 1.78045E-21
1.38150E-02 1.65727E-21
1.43290E-02 1.54475E-21
1.48521E-02 1.44178E-21
1.53845E-02 1.34741E-21
1.59262E-02 1.26077E-21
1.64770E-02 1.18111E-21
1.70371E-02 1.10777E-21
1.76063E-02 1.04015E-21
1.81848E-02 9.77711E-22
1.87724E-02 9.19983E-22
1.93692E-02 8.66542E-22
1.99751E-02 8.17008E-22
2.05901E-02 7.71039E-22
2.12143E-02 7.28330E-22
2.18476E-02 6.88603E-22
2.24900E-02 6.51610E-22
2.31415E-02 6.17125E-22
2.38021E-02 5.84946E-22
2.44717E-02 5.54886E-22
2.51504E-02 5.26780E-22
2.58382E-02 5.00475E-22
2.65349E-02 4.75832E-22
2.72407E-02 4.52725E-22
2.79555E-02 4.31040E-22
2.86793E-02 4.10672E-22
2.94120E-02 3.91525E-22
3.01537E-02 3.73510E-22
3.09043E-02 3.56547E-22
3.16639E-02 3.40562E-22
3.24324E-02 3.25488E-22
3.32098E-02 3.11262E-22
3.39961E-02 2.97826E-22
3.47912E-02 2.85128E-22
3.55952E-02 2.73120E-22
3.64081E-02 2.61755E-22
3.72297E-02 2.50992E-22
3.80602E-02 2.40793E-22
3.88995E-02 2.31122E-22
3.97476E-02 2.21947E-22
4.06044E-02 2.13236E-22
4.14700E-02 2.04961E-22
4.23443E-02 1.97096E-22
4.32273E-02 1.89616E-22
4.41190E-02 1.82499E-22
4.50194E-02 1.75723E-22
4.59284E-02 1.69268E-22
4.68461E-02 1.63116E-22
4.87074E-02 1.51655E-22
5.06030E-02 1.41213E-22
5.25328E-02 1.31682E-22
5.44967E-02 1.22966E-22
5.64946E-02 1.14983E-22
5.85262E-02 1.07657E-22
6.05914E-02 1.00924E-22
6.26901E-02 9.47259E-23
6.48222E-02 8.90117E-23
6.69873E-02 8.37358E-23
6.91854E-02 7.88576E-23
7.14163E-02 7.43410E-23
7.36799E-02 7.01536E-23
7.59760E-02 6.62665E-23
7.83043E-02 6.26536E-23
8.06647E-02 5.92915E-23
8.30571E-02 5.61592E-23
8.54812E-02 5.32377E-23
8.79369E-02 5.05097E-23
9.04240E-02 4.79598E-23
9.29422E-02 4.55739E-23
9.54915E-02 4.33392E-23
9.80716E-02 4.12440E-23
1.00682E-01 3.92778E-23
1.03323E-01 3.74310E-23
1.05995E-01 3.56947E-23
1.08696E-01 3.40610E-23
1.11427E-01 3.25224E-23
1.14188E-01 3.10722E-23
1.16978E-01 2.97043E-23
1.19797E-01 2.84129E-23
1.22645E-01 2.71930E-23
1.25522E-01 2.60395E-23
1.28428E-01 2.49482E-23
1.31361E-01 2.39150E-23
1.34323E-01 2.29360E-23
1.37313E-01 2.20079E-23
1.40330E-01 2.11274E-23
1.43375E-01 2.02916E-23
1.46447E-01 1.94976E-23
1.49545E-01 1.87429E-23
1.52671E-01 1.80252E-23
1.55823E-01 1.73422E-23
1.59001E-01 1.66919E-23
1.62205E-01 1.60724E-23
1.65435E-01 1.54819E-23
1.68690E-01 1.49188E-23
1.71970E-01 1.43814E-23
1.75276E-01 1.38684E-23
1.78606E-01 1.33784E-23
1.81961E-01 1.29102E-23
1.85340E-01 1.24625E-23
1.88743E-01 1.20343E-23
1.92169E-01 1.16246E-23
1.95619E-01 1.12323E-23
1.99092E-01 1.08566E-23
2.02589E-01 1.04966E-23
2.06107E-01 1.01515E-23
2.09649E-01 9.82050E-24
2.13212E-01 9.50299E-24
2.16797E-01 9.19825E-24
2.20404E-01 8.90566E-24
2.24032E-01 8.62463E-24
2.27680E-01 8.35461E-24
2.31350E-01 8.09506E-24
2.35040E-01 7.84549E-24
2.38751E-01 7.60543E-24
2.42481E-01 7.37444E-24
2.46231E-01 7.15211E-24
2.50000E-01 6.93803E-24
2.53788E-01 6.73184E-24
2.57595E-01 6.53318E-24
2.61421E-01 6.34172E-24
2.65264E-01 6.15713E-24
2.69126E-01 5.97912E-24
2.73005E-01 5.80740E-24
2.76901E-01 5.64171E-24
2.80814E-01 5.48178E-24
2.84744E-01 5.32732E-24
2.88691E-01 5.17815E-24
2.92653E-01 5.03403E-24
2.96632E-01 4.89478E-24
3.00625E-01 4.76019E-24
3.04634E-01 4.63006E-24
3.08658E-01 4.50423E-24
3.12697E-01 4.38251E-24
3.16749E-01 4.26474E-24
3.20816E-01 4.15077E-24
3.24896E-01 4.04045E-24
3.28990E-01 3.93364E-24
3.33097E-01 3.83020E-24
3.37216E-01 3.72999E-24
3.41348E-01 3.63291E-24
3.45492E-01 3.53883E-24
3.49647E-01 3.44764E-24
3.53814E-01 3.35923E-24
3.57992E-01 3.27349E-24
3.62181E-01 3.19034E-24
3.66381E-01 3.10967E-24
3.70590E-01 3.03140E-24
3.74810E-01 2.95543E-24
3.79039E-01 2.88170E-24
3.83277E-01 2.81011E-24
3.87524E-01 2.74059E-24
3.91780E-01 2.67308E-24
3.96044E-01 2.60750E-24
4.00316E-01 2.54377E-24
4.04596E-01 2.48185E-24
4.08882E-01 2.42167E-24
4.13176E-01 2.36317E-24
4.17476E-01 2.30629E-24
4.21783E-01 2.25098E-24
4.26095E-01 2.19719E-24
4.30413E-01 2.14486E-24
4.34737E-01 2.09395E-24
4.39065E-01 2.04442E-24
4.43398E-01 1.99621E-24
4.47736E-01 1.94929E-24
4.52077E-01 1.90361E-24
4.56422E-01 1.85913E-24
4.60770E-01 1.81583E-24
4.65122E-01 1.77365E-24
4.69476E-01 1.73256E-24
4.73832E-01 1.69254E-24
4.78190E-01 1.65354E-24
4.82550E-01 1.61554E-24
4.86912E-01 1.57851E-24
4.91274E-01 1.54241E-24
4.95637E-01 1.50722E-24
5.00000E-01 1.47291E-24
5.04363E-01 1.43946E-24
5.08726E-01 1.40683E-24
5.13088E-01 1.37501E-24
5.17450E-01 1.34397E-24
5.21810E-01 1.31369E-24
5.26168E-01 1.28414E-24
5.30524E-01 1.25531E-24
5.34878E-01 1.22717E-24
5.39230E-01 1.19971E-24
5.43578E-01 1.17291E-24
5.47923E-01 1.14674E-24
5.52264E-01 1.12119E-24
5.56602E-01 1.09624E-24
5.60935E-01 1.07187E-24
5.65263E-01 1.04808E-24
5.69587E-01 1.02484E-24
5.73905E-01 1.00213E-24
5.78217E-01 9.79951E-25
5.82524E-01 9.58280E-25
5.86824E-01 9.37104E-25
5.91118E-01 9.16410E-25
5.95404E-01 8.96185E-25
5.99684E-01 8.76418E-25
6.03956E-01 8.57095E-25
6.08220E-01 8.38205E-25
6.12476E-01 8.19737E-25
6.16723E-01 8.01679E-25
6.20961E-01 7.84022E-25
6.25190E-01 7.66754E-25
6.29410E-01 7.49866E-25
6.33619E-01 7.33349E-25
6.37819E-01 7.17192E-25
6.42008E-01 7.01387E-25
6.46186E-01 6.85924E-25
6.50353E-01 6.70796E-25
6.54508E-01 6.55994E-25
6.58652E-01 6.41509E-25
6.62784E-01 6.27334E-25
6.66903E-01 6.13462E-25
6.71010E-01 5.99885E-25
6.75104E-01 5.86595E-25
6.79184E-01 5.73587E-25
6.83251E-01 5.60852E-25
6.87303E-01 5.48385E-25
6.91342E-01 5.36179E-25
6.95366E-01 5.24228E-25
6.99375E-01 5.12526E-25
7.03368E-01 5.01067E-25
7.07347E-01 4.89846E-25
7.11309E-01 4.78856E-25
7.15256E-01 4.68093E-25
7.19186E-01 4.57551E-25
7.23099E-01 4.47225E-25
7.26995E-01 4.37110E-25
7.30874E-01 4.27202E-25
7.34736E-01 4.17496E-25
7.38579E-01 4.07987E-25
7.42405E-01 3.98670E-25
7.46212E-01 3.89543E-25
7.50000E-01 3.80599E-25
7.53769E-01 3.71836E-25
7.57519E-01 3.63249E-25
7.61249E-01 3.54835E-25
7.64960E-01 3.46589E-25
7.68650E-01 3.38508E-25
7.72320E-01 3.30589E-25
7.75968E-01 3.22828E-25
7.79596E-01 3.15221E-25
7.83203E-01 3.07766E-25
7.86788E-01 3.00459E-25
7.90351E-01 2.93297E-25
7.93893E-01 2.86277E-25
7.97411E-01 2.79397E-25
8.00908E-01 2.72652E-25
8.04381E-01 2.66041E-25
8.07831E-01 2.59561E-25
8.11257E-01 2.53208E-25
8.14660E-01 2.46981E-25
8.18039E-01 2.40877E-25
8.21394E-01 2.34893E-25
8.24724E-01 2.29028E-25
8.28030E-01 2.23278E-25
8.31310E-01 2.17641E-25
8.34565E-01 2.12116E-25
8.37795E-01 2.06699E-25
8.40999E-01 2.01390E-25
8.44177E-01 1.96185E-25
8.47329E-01 1.91084E-25
8.50455E-01 1.86083E-25
8.53553E-01 1.81181E-25
8.56625E-01 1.76377E-25
8.59670E-01 1.71667E-25
8.62687E-01 1.67052E-25
8.65677E-01 1.62528E-25
8.68639E-01 1.58094E-25
8.71572E-01 1.53749E-25
8.74478E-01 1.49490E-25
8.77355E-01 1.45318E-25
8.80203E-01 1.41228E-25
8.83022E-01 1.37222E-25
8.85812E-01 1.33296E-25
8.88573E-01 1.29450E-25
8.91304E-01 1.25681E-25
8.94005E-01 1.21990E-25
8.96677E-01 1.18374E-25
8.99318E-01 1.14832E-25
9.01928E-01 1.11364E-25
9.04508E-01 1.07967E-25
9.07058E-01 1.04640E-25
9.09576E-01 1.01383E-25
9.12063E-01 9.81946E-26
9.14519E-01 9.50731E-26
9.16943E-01 9.20177E-26
9.19335E-01 8.90275E-26
9.21696E-01 8.61013E-26
9.24024E-01 8.32382E-26
9.26320E-01 8.04372E-26
9.28584E-01 7.76974E-26
9.30815E-01 7.50179E-26
9.33013E-01 7.23978E-26
9.35178E-01 6.98362E-26
9.37310E-01 6.73323E-26
9.39409E-01 6.48852E-26
9.41474E-01 6.24941E-26
9.43505E-01 6.01583E-26
9.45503E-01 5.78769E-26
9.47467E-01 5.56494E-26
9.49397E-01 5.34748E-26
9.51293E-01 5.13526E-26
9.53154E-01 4.92821E-26
9.54981E-01 4.72625E-26
9.56773E-01 4.52933E-26
9.58530E-01 4.33738E-26
9.60252E-01 4.15034E-26
9.61940E-01 3.96815E-26
9.63592E-01 3.79075E-26
9.65209E-01 3.61809E-26
9.66790E-01 3.45011E-26
9.68336E-01 3.28677E-26
9.69846E-01 3.12800E-26
9.71321E-01 2.97376E-26
9.72759E-01 2.82401E-26
9.74162E-01 2.67869E-26
9.75528E-01 2.53776E-26
9.76858E-01 2.40118E-26
9.78152E-01 2.26890E-26
9.79410E-01 2.14089E-26
9.80631E-01 2.01710E-26
9.81815E-01 1.89750E-26
9.82963E-01 1.78205E-26
9.84074E-01 1.67072E-26
9.85148E-01 1.56347E-26
9.86185E-01 1.46026E-26
9.87185E-01 1.36108E-26
9.88148E-01 1.26588E-26
9.89074E-01 1.17464E-26
9.89962E-01 1.08733E-26
9.90814E-01 1.00392E-26
9.91627E-01 9.24399E-27
9.92404E-01 8.48730E-27
9.93143E-01 7.76895E-27
9.93844E-01 7.08871E-27
9.94508E-01 6.44638E-27
9.95134E-01 5.84178E-27
9.95722E-01 5.27471E-27
9.96273E-01 4.74501E-27
9.96786E-01 4.25253E-27
9.97261E-01 3.79711E-27
9.97698E-01 3.37862E-27
9.98097E-01 2.99693E-27
9.98459E-01 2.65194E-27
9.98782E-01 2.34354E-27
9.99067E-01 2.07163E-27
9.99315E-01 1.83614E-27
9.99524E-01 1.63700E-27
9.99695E-01 1.47414E-27
9.99829E-01 1.34753E-27
9.99924E-01 1.25712E-27
9.99981E-01 1.20288E-27
1.00000E+00 1.18481E-27
