 #
 # Subroutine ELSEPA. Elastic scattering of electrons and positrons
 #                    by neutral atoms and positive ions
 #
 # Projectile: electron
 # Kinetic energy = 4.50000E+07 eV = 1.65372E+06 a.u.
 #
 # WARNING: High-energy factorization with free-atom DF screening.
 #          Absorption, polarization and exchange corrections are
 #          switched off.
 #          Phase shifts are calculated for the bare nucleus.
 #          Scattering amplitudes are not evaluated.
 #
 # Element: Yb,  Z =  70,  atomic weight = 1.73040E+02 g/mol
 #
 # Nuclear model: Fermi distribution
 #                Average radius = 5.96256E-13 cm
 #                Skin thickness = 5.46000E-14 cm
 #
 # Number of electrons = 70
 #
 # Total elastic cross section = 6.99139E-18 cm**2 = 2.49667E-01 a0**2
 # 1st transport cross section = 4.56352E-24 cm**2 = 1.62966E-07 a0**2
 # 2nd transport cross section = 1.33253E-23 cm**2 = 4.75854E-07 a0**2
 #
 #
 # Differential cross section:                       MU=(1-COS(THETA))/2
 #
 #  THETA        MU          DCS          DCS        Sherman      error
 #  (deg)                 (cm**2/sr)   (a0**2/sr)    function
 #----------------------------------------------------------------------
0.00000E+00 1.38272E-10
7.61557E-13 1.38148E-10
1.18994E-12 1.38078E-10
1.71346E-12 1.37994E-10
2.33225E-12 1.37894E-10
3.04617E-12 1.37779E-10
3.85530E-12 1.37649E-10
4.75964E-12 1.37504E-10
5.75917E-12 1.37343E-10
6.85391E-12 1.37168E-10
8.04379E-12 1.36979E-10
9.32893E-12 1.36774E-10
1.07092E-11 1.36555E-10
1.21847E-11 1.36322E-10
1.37554E-11 1.36074E-10
1.54213E-11 1.35812E-10
1.71823E-11 1.35536E-10
1.90386E-11 1.35246E-10
2.09900E-11 1.34942E-10
2.30367E-11 1.34625E-10
2.51785E-11 1.34295E-10
2.74156E-11 1.33951E-10
2.97478E-11 1.33594E-10
3.21752E-11 1.33224E-10
3.46979E-11 1.32842E-10
3.73157E-11 1.32447E-10
4.00286E-11 1.32040E-10
4.28368E-11 1.31622E-10
4.57402E-11 1.31191E-10
4.87388E-11 1.30748E-10
5.18325E-11 1.30295E-10
5.50215E-11 1.29830E-10
5.83057E-11 1.29354E-10
6.16850E-11 1.28867E-10
6.51595E-11 1.28371E-10
6.87293E-11 1.27863E-10
7.23943E-11 1.27346E-10
7.61544E-11 1.26820E-10
1.18991E-10 1.21081E-10
1.71347E-10 1.14645E-10
2.33223E-10 1.07795E-10
3.04617E-10 1.00751E-10
3.85531E-10 9.37152E-11
4.75965E-10 8.68522E-11
5.75917E-10 8.02849E-11
6.85389E-10 7.41070E-11
8.04380E-10 6.83807E-11
9.32891E-10 6.31057E-11
1.07092E-09 5.82829E-11
1.21847E-09 5.38985E-11
1.37554E-09 4.99288E-11
1.54213E-09 4.63495E-11
1.71823E-09 4.31251E-11
1.90386E-09 4.02128E-11
2.09900E-09 3.75809E-11
2.30367E-09 3.51990E-11
2.51785E-09 3.30392E-11
2.74156E-09 3.10760E-11
2.97478E-09 2.92842E-11
3.21752E-09 2.76438E-11
3.46978E-09 2.61376E-11
3.73156E-09 2.47505E-11
4.00286E-09 2.34693E-11
4.28368E-09 2.22792E-11
4.57402E-09 2.11715E-11
4.87388E-09 2.01390E-11
5.18326E-09 1.91744E-11
5.50215E-09 1.82711E-11
5.83057E-09 1.74236E-11
6.16850E-09 1.66230E-11
6.51596E-09 1.58684E-11
6.87293E-09 1.51567E-11
7.23942E-09 1.44847E-11
7.61544E-09 1.38493E-11
1.18991E-08 8.94384E-12
1.71347E-08 6.03830E-12
2.33223E-08 4.15176E-12
3.04617E-08 2.94929E-12
3.85531E-08 2.15237E-12
4.75965E-08 1.60635E-12
5.75917E-08 1.22126E-12
6.85389E-08 9.41812E-13
8.04380E-08 7.34440E-13
9.32891E-08 5.80037E-13
1.07092E-07 4.63306E-13
1.21847E-07 3.73922E-13
1.37554E-07 3.04722E-13
1.54213E-07 2.50516E-13
1.71823E-07 2.07729E-13
1.90386E-07 1.73764E-13
2.09900E-07 1.46546E-13
2.30367E-07 1.24538E-13
2.51785E-07 1.06593E-13
2.74156E-07 9.18573E-14
2.97478E-07 7.95700E-14
3.21752E-07 6.93178E-14
3.46978E-07 6.07114E-14
3.73156E-07 5.34376E-14
4.00286E-07 4.72496E-14
4.28368E-07 4.19432E-14
4.57402E-07 3.73689E-14
4.87388E-07 3.34068E-14
5.18325E-07 2.99583E-14
5.50215E-07 2.69437E-14
5.83057E-07 2.42984E-14
6.16850E-07 2.19653E-14
6.51596E-07 1.99051E-14
6.87293E-07 1.80812E-14
7.23942E-07 1.64616E-14
7.61543E-07 1.50196E-14
1.18991E-06 6.60848E-15
1.71347E-06 3.34052E-15
2.33223E-06 1.86527E-15
3.04617E-06 1.12223E-15
3.85531E-06 7.15323E-16
4.75964E-06 4.77376E-16
5.75916E-06 3.30694E-16
6.85388E-06 2.36272E-16
8.04378E-06 1.73258E-16
9.32888E-06 1.29901E-16
1.07092E-05 9.92801E-17
1.21846E-05 7.71625E-17
1.37553E-05 6.08677E-17
1.54212E-05 4.86512E-17
1.71822E-05 3.93486E-17
1.90385E-05 3.21487E-17
2.09899E-05 2.65501E-17
2.30365E-05 2.21152E-17
2.51783E-05 1.85639E-17
2.74153E-05 1.56939E-17
2.97475E-05 1.33561E-17
3.21749E-05 1.14378E-17
3.46974E-05 9.85293E-18
3.73152E-05 8.53457E-18
4.00281E-05 7.43055E-18
4.28362E-05 6.49992E-18
4.57395E-05 5.71062E-18
4.87380E-05 5.03739E-18
5.18317E-05 4.46028E-18
5.50205E-05 3.96333E-18
5.83045E-05 3.53366E-18
6.16838E-05 3.16075E-18
6.51582E-05 2.83589E-18
6.87277E-05 2.55185E-18
7.23925E-05 2.30259E-18
7.61524E-05 2.08319E-18
9.21439E-05 1.42829E-18
1.09658E-04 1.01175E-18
1.28695E-04 7.36710E-19
1.49255E-04 5.49101E-19
1.71338E-04 4.17645E-19
1.94942E-04 3.23291E-19
2.20070E-04 2.54160E-19
2.46720E-04 2.02575E-19
2.74892E-04 1.63448E-19
3.04586E-04 1.33338E-19
3.35803E-04 1.09861E-19
3.68542E-04 9.13370E-20
4.02802E-04 7.65635E-20
4.38585E-04 6.46644E-20
4.75889E-04 5.49936E-20
5.14715E-04 4.70683E-20
5.55063E-04 4.05233E-20
5.96931E-04 3.50798E-20
6.40321E-04 3.05226E-20
6.85233E-04 2.66837E-20
7.31665E-04 2.34313E-20
7.79618E-04 2.06610E-20
8.29092E-04 1.82895E-20
8.80086E-04 1.62498E-20
9.32601E-04 1.44875E-20
9.86636E-04 1.29585E-20
1.04219E-03 1.16268E-20
1.09927E-03 1.04624E-20
1.15786E-03 9.44076E-21
1.21797E-03 8.54132E-21
1.27961E-03 7.74693E-21
1.34276E-03 7.04316E-21
1.40743E-03 6.41788E-21
1.47362E-03 5.86078E-21
1.54133E-03 5.36313E-21
1.61056E-03 4.91745E-21
1.68131E-03 4.51734E-21
1.75357E-03 4.15732E-21
1.82735E-03 3.83265E-21
1.90265E-03 3.53924E-21
1.97947E-03 3.27352E-21
2.05780E-03 3.03242E-21
2.13765E-03 2.81325E-21
2.21902E-03 2.61364E-21
2.30190E-03 2.43153E-21
2.38630E-03 2.26511E-21
2.47222E-03 2.11277E-21
2.55965E-03 1.97311E-21
2.64859E-03 1.84488E-21
2.73905E-03 1.72697E-21
2.83103E-03 1.61839E-21
2.92452E-03 1.51827E-21
3.01952E-03 1.42583E-21
3.11604E-03 1.34037E-21
3.21407E-03 1.26127E-21
3.31362E-03 1.18795E-21
3.41468E-03 1.11993E-21
3.51725E-03 1.05674E-21
3.62133E-03 9.97987E-22
3.72692E-03 9.43288E-22
3.83403E-03 8.92315E-22
3.94265E-03 8.44767E-22
4.05278E-03 8.00370E-22
4.16442E-03 7.58875E-22
4.27757E-03 7.20056E-22
4.39223E-03 6.83709E-22
4.50840E-03 6.49645E-22
4.62608E-03 6.17695E-22
4.74527E-03 5.87702E-22
4.86597E-03 5.59522E-22
4.98817E-03 5.33027E-22
5.11188E-03 5.08094E-22
5.23711E-03 4.84616E-22
5.36383E-03 4.62490E-22
5.49207E-03 4.41623E-22
5.62181E-03 4.21931E-22
5.75306E-03 4.03334E-22
5.88581E-03 3.85760E-22
6.02007E-03 3.69141E-22
6.15583E-03 3.53416E-22
6.29310E-03 3.38527E-22
6.43187E-03 3.24420E-22
6.57214E-03 3.11048E-22
6.71392E-03 2.98364E-22
6.85720E-03 2.86326E-22
7.00198E-03 2.74895E-22
7.14827E-03 2.64034E-22
7.29605E-03 2.53708E-22
7.44534E-03 2.43888E-22
7.59612E-03 2.34542E-22
7.97965E-03 2.13080E-22
8.37255E-03 1.94039E-22
8.77480E-03 1.77096E-22
9.18641E-03 1.61978E-22
9.60736E-03 1.48454E-22
1.00376E-02 1.36323E-22
1.04773E-02 1.25417E-22
1.09262E-02 1.15589E-22
1.13844E-02 1.06714E-22
1.18520E-02 9.86807E-23
1.23288E-02 9.13956E-23
1.28150E-02 8.47736E-23
1.33104E-02 7.87450E-23
1.38150E-02 7.32465E-23
1.43290E-02 6.82230E-23
1.48521E-02 6.36256E-23
1.53845E-02 5.94113E-23
1.59262E-02 5.55423E-23
1.64770E-02 5.19849E-23
1.70371E-02 4.87093E-23
1.76063E-02 4.56889E-23
1.81848E-02 4.29000E-23
1.87724E-02 4.03216E-23
1.93692E-02 3.79347E-23
1.99751E-02 3.57223E-23
2.05901E-02 3.36694E-23
2.12143E-02 3.17621E-23
2.18476E-02 2.99883E-23
2.24900E-02 2.83367E-23
2.31415E-02 2.67973E-23
2.38021E-02 2.53611E-23
2.44717E-02 2.40198E-23
2.51504E-02 2.27659E-23
2.58382E-02 2.15926E-23
2.65349E-02 2.04938E-23
2.72407E-02 1.94639E-23
2.79555E-02 1.84976E-23
2.86793E-02 1.75903E-23
2.94120E-02 1.67377E-23
3.01537E-02 1.59358E-23
3.09043E-02 1.51811E-23
3.16639E-02 1.44703E-23
3.24324E-02 1.38003E-23
3.32098E-02 1.31683E-23
3.39961E-02 1.25718E-23
3.47912E-02 1.20083E-23
3.55952E-02 1.14758E-23
3.64081E-02 1.09721E-23
3.72297E-02 1.04954E-23
3.80602E-02 1.00440E-23
3.88995E-02 9.61634E-24
3.97476E-02 9.21085E-24
4.06044E-02 8.82619E-24
4.14700E-02 8.46109E-24
4.23443E-02 8.11437E-24
4.32273E-02 7.78492E-24
4.41190E-02 7.47173E-24
4.50194E-02 7.17383E-24
4.59284E-02 6.89034E-24
4.68461E-02 6.62042E-24
4.87074E-02 6.11830E-24
5.06030E-02 5.66185E-24
5.25328E-02 5.24619E-24
5.44967E-02 4.86703E-24
5.64946E-02 4.52060E-24
5.85262E-02 4.20357E-24
6.05914E-02 3.91301E-24
6.26901E-02 3.64633E-24
6.48222E-02 3.40122E-24
6.69873E-02 3.17563E-24
6.91854E-02 2.96775E-24
7.14163E-02 2.77593E-24
7.36799E-02 2.59873E-24
7.59760E-02 2.43485E-24
7.83043E-02 2.28311E-24
8.06647E-02 2.14246E-24
8.30571E-02 2.01196E-24
8.54812E-02 1.89075E-24
8.79369E-02 1.77806E-24
9.04240E-02 1.67319E-24
9.29422E-02 1.57552E-24
9.54915E-02 1.48446E-24
9.80716E-02 1.39950E-24
1.00682E-01 1.32016E-24
1.03323E-01 1.24602E-24
1.05995E-01 1.17667E-24
1.08696E-01 1.11177E-24
1.11427E-01 1.05097E-24
1.14188E-01 9.93989E-25
1.16978E-01 9.40541E-25
1.19797E-01 8.90376E-25
1.22645E-01 8.43261E-25
1.25522E-01 7.98984E-25
1.28428E-01 7.57349E-25
1.31361E-01 7.18174E-25
1.34323E-01 6.81294E-25
1.37313E-01 6.46555E-25
1.40330E-01 6.13814E-25
1.43375E-01 5.82942E-25
1.46447E-01 5.53815E-25
1.49545E-01 5.26322E-25
1.52671E-01 5.00359E-25
1.55823E-01 4.75829E-25
1.59001E-01 4.52643E-25
1.62205E-01 4.30716E-25
1.65435E-01 4.09973E-25
1.68690E-01 3.90340E-25
1.71970E-01 3.71750E-25
1.75276E-01 3.54142E-25
1.78606E-01 3.37456E-25
1.81961E-01 3.21640E-25
1.85340E-01 3.06640E-25
1.88743E-01 2.92412E-25
1.92169E-01 2.78909E-25
1.95619E-01 2.66092E-25
1.99092E-01 2.53920E-25
2.02589E-01 2.42358E-25
2.06107E-01 2.31371E-25
2.09649E-01 2.20929E-25
2.13212E-01 2.11000E-25
2.16797E-01 2.01558E-25
2.20404E-01 1.92575E-25
2.24032E-01 1.84026E-25
2.27680E-01 1.75890E-25
2.31350E-01 1.68143E-25
2.35040E-01 1.60765E-25
2.38751E-01 1.53737E-25
2.42481E-01 1.47041E-25
2.46231E-01 1.40659E-25
2.50000E-01 1.34575E-25
2.53788E-01 1.28774E-25
2.57595E-01 1.23242E-25
2.61421E-01 1.17965E-25
2.65264E-01 1.12930E-25
2.69126E-01 1.08125E-25
2.73005E-01 1.03539E-25
2.76901E-01 9.91610E-26
2.80814E-01 9.49803E-26
2.84744E-01 9.09876E-26
2.88691E-01 8.71737E-26
2.92653E-01 8.35299E-26
2.96632E-01 8.00481E-26
3.00625E-01 7.67204E-26
3.04634E-01 7.35396E-26
3.08658E-01 7.04987E-26
3.12697E-01 6.75909E-26
3.16749E-01 6.48102E-26
3.20816E-01 6.21505E-26
3.24896E-01 5.96061E-26
3.28990E-01 5.71718E-26
3.33097E-01 5.48424E-26
3.37216E-01 5.26132E-26
3.41348E-01 5.04794E-26
3.45492E-01 4.84368E-26
3.49647E-01 4.64811E-26
3.53814E-01 4.46086E-26
3.57992E-01 4.28153E-26
3.62181E-01 4.10978E-26
3.66381E-01 3.94527E-26
3.70590E-01 3.78767E-26
3.74810E-01 3.63667E-26
3.79039E-01 3.49198E-26
3.83277E-01 3.35333E-26
3.87524E-01 3.22044E-26
3.91780E-01 3.09307E-26
3.96044E-01 2.97097E-26
4.00316E-01 2.85391E-26
4.04596E-01 2.74167E-26
4.08882E-01 2.63405E-26
4.13176E-01 2.53085E-26
4.17476E-01 2.43187E-26
4.21783E-01 2.33694E-26
4.26095E-01 2.24587E-26
4.30413E-01 2.15851E-26
4.34737E-01 2.07469E-26
4.39065E-01 1.99428E-26
4.43398E-01 1.91711E-26
4.47736E-01 1.84306E-26
4.52077E-01 1.77199E-26
4.56422E-01 1.70378E-26
4.60770E-01 1.63831E-26
4.65122E-01 1.57546E-26
4.69476E-01 1.51512E-26
4.73832E-01 1.45720E-26
4.78190E-01 1.40158E-26
4.82550E-01 1.34818E-26
4.86912E-01 1.29689E-26
4.91274E-01 1.24764E-26
4.95637E-01 1.20035E-26
5.00000E-01 1.15492E-26
5.04363E-01 1.11128E-26
5.08726E-01 1.06936E-26
5.13088E-01 1.02909E-26
5.17450E-01 9.90405E-27
5.21810E-01 9.53234E-27
5.26168E-01 9.17520E-27
5.30524E-01 8.83201E-27
5.34878E-01 8.50222E-27
5.39230E-01 8.18529E-27
5.43578E-01 7.88069E-27
5.47923E-01 7.58792E-27
5.52264E-01 7.30652E-27
5.56602E-01 7.03602E-27
5.60935E-01 6.77598E-27
5.65263E-01 6.52599E-27
5.69587E-01 6.28564E-27
5.73905E-01 6.05454E-27
5.78217E-01 5.83234E-27
5.82524E-01 5.61866E-27
5.86824E-01 5.41318E-27
5.91118E-01 5.21556E-27
5.95404E-01 5.02550E-27
5.99684E-01 4.84269E-27
6.03956E-01 4.66685E-27
6.08220E-01 4.49770E-27
6.12476E-01 4.33498E-27
6.16723E-01 4.17843E-27
6.20961E-01 4.02781E-27
6.25190E-01 3.88289E-27
6.29410E-01 3.74343E-27
6.33619E-01 3.60924E-27
6.37819E-01 3.48009E-27
6.42008E-01 3.35579E-27
6.46186E-01 3.23616E-27
6.50353E-01 3.12101E-27
6.54508E-01 3.01016E-27
6.58652E-01 2.90345E-27
6.62784E-01 2.80071E-27
6.66903E-01 2.70179E-27
6.71010E-01 2.60655E-27
6.75104E-01 2.51483E-27
6.79184E-01 2.42651E-27
6.83251E-01 2.34144E-27
6.87303E-01 2.25951E-27
6.91342E-01 2.18059E-27
6.95366E-01 2.10457E-27
6.99375E-01 2.03133E-27
7.03368E-01 1.96076E-27
7.07347E-01 1.89277E-27
7.11309E-01 1.82726E-27
7.15256E-01 1.76412E-27
7.19186E-01 1.70327E-27
7.23099E-01 1.64462E-27
7.26995E-01 1.58808E-27
7.30874E-01 1.53358E-27
7.34736E-01 1.48104E-27
7.38579E-01 1.43037E-27
7.42405E-01 1.38152E-27
7.46212E-01 1.33441E-27
7.50000E-01 1.28897E-27
7.53769E-01 1.24514E-27
7.57519E-01 1.20286E-27
7.61249E-01 1.16207E-27
7.64960E-01 1.12272E-27
7.68650E-01 1.08475E-27
7.72320E-01 1.04810E-27
7.75968E-01 1.01273E-27
7.79596E-01 9.78592E-28
7.83203E-01 9.45636E-28
7.86788E-01 9.13819E-28
7.90351E-01 8.83098E-28
7.93893E-01 8.53432E-28
7.97411E-01 8.24781E-28
8.00908E-01 7.97109E-28
8.04381E-01 7.70377E-28
8.07831E-01 7.44552E-28
8.11257E-01 7.19600E-28
8.14660E-01 6.95488E-28
8.18039E-01 6.72185E-28
8.21394E-01 6.49662E-28
8.24724E-01 6.27889E-28
8.28030E-01 6.06840E-28
8.31310E-01 5.86488E-28
8.34565E-01 5.66807E-28
8.37795E-01 5.47773E-28
8.40999E-01 5.29362E-28
8.44177E-01 5.11552E-28
8.47329E-01 4.94321E-28
8.50455E-01 4.77649E-28
8.53553E-01 4.61514E-28
8.56625E-01 4.45899E-28
8.59670E-01 4.30784E-28
8.62687E-01 4.16152E-28
8.65677E-01 4.01985E-28
8.68639E-01 3.88268E-28
8.71572E-01 3.74983E-28
8.74478E-01 3.62117E-28
8.77355E-01 3.49655E-28
8.80203E-01 3.37582E-28
8.83022E-01 3.25886E-28
8.85812E-01 3.14553E-28
8.88573E-01 3.03570E-28
8.91304E-01 2.92927E-28
8.94005E-01 2.82611E-28
8.96677E-01 2.72611E-28
8.99318E-01 2.62917E-28
9.01928E-01 2.53519E-28
9.04508E-01 2.44406E-28
9.07058E-01 2.35570E-28
9.09576E-01 2.27002E-28
9.12063E-01 2.18692E-28
9.14519E-01 2.10633E-28
9.16943E-01 2.02816E-28
9.19335E-01 1.95234E-28
9.21696E-01 1.87880E-28
9.24024E-01 1.80745E-28
9.26320E-01 1.73825E-28
9.28584E-01 1.67111E-28
9.30815E-01 1.60598E-28
9.33013E-01 1.54279E-28
9.35178E-01 1.48149E-28
9.37310E-01 1.42203E-28
9.39409E-01 1.36435E-28
9.41474E-01 1.30839E-28
9.43505E-01 1.25411E-28
9.45503E-01 1.20147E-28
9.47467E-01 1.15041E-28
9.49397E-01 1.10090E-28
9.51293E-01 1.05288E-28
9.53154E-01 1.00633E-28
9.54981E-01 9.61198E-29
9.56773E-01 9.17452E-29
9.58530E-01 8.75057E-29
9.60252E-01 8.33979E-29
9.61940E-01 7.94184E-29
9.63592E-01 7.55642E-29
9.65209E-01 7.18322E-29
9.66790E-01 6.82196E-29
9.68336E-01 6.47236E-29
9.69846E-01 6.13417E-29
9.71321E-01 5.80713E-29
9.72759E-01 5.49099E-29
9.74162E-01 5.18553E-29
9.75528E-01 4.89053E-29
9.76858E-01 4.60577E-29
9.78152E-01 4.33105E-29
9.79410E-01 4.06618E-29
9.80631E-01 3.81097E-29
9.81815E-01 3.56526E-29
9.82963E-01 3.32886E-29
9.84074E-01 3.10162E-29
9.85148E-01 2.88339E-29
9.86185E-01 2.67402E-29
9.87185E-01 2.47337E-29
9.88148E-01 2.28131E-29
9.89074E-01 2.09772E-29
9.89962E-01 1.92247E-29
9.90814E-01 1.75546E-29
9.91627E-01 1.59657E-29
9.92404E-01 1.44572E-29
9.93143E-01 1.30279E-29
9.93844E-01 1.16771E-29
9.94508E-01 1.04039E-29
9.95134E-01 9.20752E-30
9.95722E-01 8.08719E-30
9.96273E-01 7.04226E-30
9.96786E-01 6.07208E-30
9.97261E-01 5.17607E-30
9.97698E-01 4.35369E-30
9.98097E-01 3.60444E-30
9.98459E-01 2.92789E-30
9.98782E-01 2.32362E-30
9.99067E-01 1.79127E-30
9.99315E-01 1.33054E-30
9.99524E-01 9.41149E-31
9.99695E-01 6.22867E-31
9.99829E-01 3.75508E-31
9.99924E-01 1.98927E-31
9.99981E-01 9.30195E-32
1.00000E+00 5.77233E-32
