 #
 # Subroutine ELSEPA. Elastic scattering of electrons and positrons
 #                    by neutral atoms and positive ions
 #
 # Projectile: electron
 # Kinetic energy = 6.00000E+08 eV = 2.20496E+07 a.u.
 #
 # WARNING: High-energy factorization with free-atom DF screening.
 #          Absorption, polarization and exchange corrections are
 #          switched off.
 #          Phase shifts are calculated for the bare nucleus.
 #          Scattering amplitudes are not evaluated.
 #
 # Element: Yb,  Z =  70,  atomic weight = 1.73040E+02 g/mol
 #
 # Nuclear model: Fermi distribution
 #                Average radius = 5.96256E-13 cm
 #                Skin thickness = 5.46000E-14 cm
 #
 # Number of electrons = 70
 #
 # Total elastic cross section = 6.97079E-18 cm**2 = 2.48931E-01 a0**2
 # 1st transport cross section = 2.58901E-26 cm**2 = 9.24553E-10 a0**2
 # 2nd transport cross section = 7.76498E-26 cm**2 = 2.77292E-09 a0**2
 #
 #
 # Differential cross section:                       MU=(1-COS(THETA))/2
 #
 #  THETA        MU          DCS          DCS        Sherman      error
 #  (deg)                 (cm**2/sr)   (a0**2/sr)    function
 #----------------------------------------------------------------------
0.00000E+00 2.40737E-08
7.61557E-13 2.07799E-08
1.18994E-12 1.92548E-08
1.71346E-12 1.76428E-08
2.33225E-12 1.60288E-08
3.04617E-12 1.44776E-08
3.85530E-12 1.30325E-08
4.75964E-12 1.17173E-08
5.75917E-12 1.05417E-08
6.85391E-12 9.50372E-09
8.04379E-12 8.59285E-09
9.32893E-12 7.79664E-09
1.07092E-11 7.10149E-09
1.21847E-11 6.49382E-09
1.37554E-11 5.96106E-09
1.54213E-11 5.49202E-09
1.71823E-11 5.07698E-09
1.90386E-11 4.70765E-09
2.09900E-11 4.37713E-09
2.30367E-11 4.07931E-09
2.51785E-11 3.80962E-09
2.74156E-11 3.56422E-09
2.97478E-11 3.33991E-09
3.21752E-11 3.13405E-09
3.46979E-11 2.94442E-09
3.73157E-11 2.76920E-09
4.00286E-11 2.60685E-09
4.28368E-11 2.45608E-09
4.57402E-11 2.31579E-09
4.87388E-11 2.18495E-09
5.18325E-11 2.06258E-09
5.50215E-11 1.94825E-09
5.83057E-11 1.84133E-09
6.16850E-11 1.74124E-09
6.51595E-11 1.64293E-09
6.87293E-11 1.54704E-09
7.23943E-11 1.45988E-09
7.61544E-11 1.38049E-09
1.18991E-10 8.32551E-10
1.71347E-10 5.27355E-10
2.33223E-10 3.49000E-10
3.04617E-10 2.39426E-10
3.85531E-10 1.69018E-10
4.75965E-10 1.22114E-10
5.75917E-10 8.99424E-11
6.85389E-10 6.74169E-11
8.04380E-10 5.14109E-11
9.32891E-10 3.98461E-11
1.07092E-09 3.13572E-11
1.21847E-09 2.50302E-11
1.37554E-09 2.02434E-11
1.54213E-09 1.65748E-11
1.71823E-09 1.37090E-11
1.90386E-09 1.14474E-11
2.09900E-09 9.64541E-12
2.30367E-09 8.19191E-12
2.51785E-09 7.00677E-12
2.74156E-09 6.03052E-12
2.97478E-09 5.21903E-12
3.21752E-09 4.53937E-12
3.46978E-09 3.96650E-12
3.73156E-09 3.48098E-12
4.00286E-09 3.06742E-12
4.28368E-09 2.71342E-12
4.57402E-09 2.40896E-12
4.87388E-09 2.14581E-12
5.18326E-09 1.91729E-12
5.50215E-09 1.71817E-12
5.83057E-09 1.54403E-12
6.16850E-09 1.39127E-12
6.51596E-09 1.25645E-12
6.87293E-09 1.13737E-12
7.23942E-09 1.03259E-12
7.61544E-09 9.40065E-13
1.18991E-08 4.05931E-13
1.71347E-08 2.03005E-13
2.33223E-08 1.12563E-13
3.04617E-08 6.73561E-14
3.85531E-08 4.27343E-14
4.75965E-08 2.84007E-14
5.75917E-08 1.95990E-14
6.85389E-08 1.39532E-14
8.04380E-08 1.01991E-14
9.32891E-08 7.62544E-15
1.07092E-07 5.81398E-15
1.21847E-07 4.50940E-15
1.37554E-07 3.55089E-15
1.54213E-07 2.83400E-15
1.71823E-07 2.28923E-15
1.90386E-07 1.86929E-15
2.09900E-07 1.54140E-15
2.30367E-07 1.28237E-15
2.51785E-07 1.07556E-15
2.74156E-07 9.08825E-16
2.97478E-07 7.73193E-16
3.21752E-07 6.61954E-16
3.46978E-07 5.70025E-16
3.73156E-07 4.93517E-16
4.00286E-07 4.29429E-16
4.28368E-07 3.75416E-16
4.57402E-07 3.29635E-16
4.87388E-07 2.90624E-16
5.18325E-07 2.57218E-16
5.50215E-07 2.28477E-16
5.83057E-07 2.03640E-16
6.16850E-07 1.82087E-16
6.51596E-07 1.63311E-16
6.87293E-07 1.46894E-16
7.23942E-07 1.32489E-16
7.61543E-07 1.19807E-16
1.18991E-06 4.93135E-17
1.71347E-06 2.38532E-17
2.33223E-06 1.29008E-17
3.04617E-06 7.57267E-18
3.85531E-06 4.73239E-18
4.75964E-06 3.10735E-18
5.75916E-06 2.12369E-18
6.85388E-06 1.50025E-18
8.04378E-06 1.08971E-18
9.32888E-06 8.10475E-19
1.07092E-05 6.15231E-19
1.21846E-05 4.75402E-19
1.37553E-05 3.73141E-19
1.54212E-05 2.96960E-19
1.71822E-05 2.39269E-19
1.90385E-05 1.94835E-19
2.09899E-05 1.60424E-19
2.30365E-05 1.33268E-19
2.51783E-05 1.11595E-19
2.74153E-05 9.41320E-20
2.97475E-05 7.99449E-20
3.21749E-05 6.83328E-20
3.46974E-05 5.87605E-20
3.73152E-05 5.08144E-20
4.00281E-05 4.41728E-20
4.28362E-05 3.85845E-20
4.57395E-05 3.38528E-20
4.87380E-05 2.98234E-20
5.18317E-05 2.63745E-20
5.50205E-05 2.34089E-20
5.83045E-05 2.08484E-20
6.16838E-05 1.86290E-20
6.51582E-05 1.66980E-20
6.87277E-05 1.50117E-20
7.23925E-05 1.35334E-20
7.61524E-05 1.24084E-20
9.21439E-05 8.48805E-21
1.09658E-04 5.99919E-21
1.28695E-04 4.35824E-21
1.49255E-04 3.24021E-21
1.71338E-04 2.45757E-21
1.94942E-04 1.89633E-21
2.20070E-04 1.48549E-21
2.46720E-04 1.17919E-21
2.74892E-04 9.47098E-22
3.04586E-04 7.68704E-22
3.35803E-04 6.29787E-22
3.68542E-04 5.20353E-22
4.02802E-04 4.33228E-22
4.38585E-04 3.63198E-22
4.75889E-04 3.06416E-22
5.14715E-04 2.60004E-22
5.55063E-04 2.21790E-22
5.96931E-04 1.90112E-22
6.40321E-04 1.63688E-22
6.85233E-04 1.41518E-22
7.31665E-04 1.22818E-22
7.79618E-04 1.06965E-22
8.29092E-04 9.34647E-23
8.80086E-04 8.19167E-23
9.32601E-04 7.19991E-23
9.86636E-04 6.34494E-23
1.04219E-03 5.60527E-23
1.09927E-03 4.96323E-23
1.15786E-03 4.40417E-23
1.21797E-03 3.91595E-23
1.27961E-03 3.48841E-23
1.34276E-03 3.11303E-23
1.40743E-03 2.78263E-23
1.47362E-03 2.49115E-23
1.54133E-03 2.23345E-23
1.61056E-03 2.00514E-23
1.68131E-03 1.80247E-23
1.75357E-03 1.62223E-23
1.82735E-03 1.46166E-23
1.90265E-03 1.31837E-23
1.97947E-03 1.19031E-23
2.05780E-03 1.07568E-23
2.13765E-03 9.72944E-24
2.21902E-03 8.80735E-24
2.30190E-03 7.97874E-24
2.38630E-03 7.23323E-24
2.47222E-03 6.56176E-24
2.55965E-03 5.95632E-24
2.64859E-03 5.40987E-24
2.73905E-03 4.91620E-24
2.83103E-03 4.46981E-24
2.92452E-03 4.06584E-24
3.01952E-03 3.69996E-24
3.11604E-03 3.36833E-24
3.21407E-03 3.06754E-24
3.31362E-03 2.79454E-24
3.41468E-03 2.54660E-24
3.51725E-03 2.32130E-24
3.62133E-03 2.11645E-24
3.72692E-03 1.93011E-24
3.83403E-03 1.76052E-24
3.94265E-03 1.60611E-24
4.05278E-03 1.46547E-24
4.16442E-03 1.33732E-24
4.27757E-03 1.22050E-24
4.39223E-03 1.11399E-24
4.50840E-03 1.01685E-24
4.62608E-03 9.28233E-25
4.74527E-03 8.47368E-25
4.86597E-03 7.73564E-25
4.98817E-03 7.06193E-25
5.11188E-03 6.44686E-25
5.23711E-03 5.88524E-25
5.36383E-03 5.37239E-25
5.49207E-03 4.90402E-25
5.62181E-03 4.47625E-25
5.75306E-03 4.08556E-25
5.88581E-03 3.72872E-25
6.02007E-03 3.40279E-25
6.15583E-03 3.10512E-25
6.29310E-03 2.83326E-25
6.43187E-03 2.58499E-25
6.57214E-03 2.35828E-25
6.71392E-03 2.15128E-25
6.85720E-03 1.96230E-25
7.00198E-03 1.78980E-25
7.14827E-03 1.63235E-25
7.29605E-03 1.48867E-25
7.44534E-03 1.35758E-25
7.59612E-03 1.23799E-25
7.97965E-03 9.83106E-26
8.37255E-03 7.80910E-26
8.77480E-03 6.20759E-26
9.18641E-03 4.94117E-26
9.60736E-03 3.94136E-26
1.00376E-02 3.15330E-26
1.04773E-02 2.53302E-26
1.09262E-02 2.04537E-26
1.13844E-02 1.66225E-26
1.18520E-02 1.36127E-26
1.23288E-02 1.12461E-26
1.28150E-02 9.38155E-27
1.33104E-02 7.90730E-27
1.38150E-02 6.73553E-27
1.43290E-02 5.79733E-27
1.48521E-02 5.03898E-27
1.53845E-02 4.41883E-27
1.59262E-02 3.90476E-27
1.64770E-02 3.47222E-27
1.70371E-02 3.10254E-27
1.76063E-02 2.78167E-27
1.81848E-02 2.49912E-27
1.87724E-02 2.24715E-27
1.93692E-02 2.02007E-27
1.99751E-02 1.81376E-27
2.05901E-02 1.62526E-27
2.12143E-02 1.45243E-27
2.18476E-02 1.29373E-27
2.24900E-02 1.14804E-27
2.31415E-02 1.01450E-27
2.38021E-02 8.92424E-28
2.44717E-02 7.81238E-28
2.51504E-02 6.80408E-28
2.58382E-02 5.89422E-28
2.65349E-02 5.07766E-28
2.72407E-02 4.34912E-28
2.79555E-02 3.70317E-28
2.86793E-02 3.13422E-28
2.94120E-02 2.63656E-28
3.01537E-02 2.20442E-28
3.09043E-02 1.83205E-28
3.16639E-02 1.51375E-28
3.24324E-02 1.24400E-28
3.32098E-02 1.01743E-28
3.39961E-02 8.28974E-29
3.47912E-02 6.73818E-29
3.55952E-02 5.47490E-29
3.64081E-02 4.45864E-29
3.72297E-02 3.65172E-29
3.80602E-02 3.02010E-29
3.88995E-02 2.53336E-29
3.97476E-02 2.16460E-29
4.06044E-02 1.89034E-29
4.14700E-02 1.69025E-29
4.23443E-02 1.54706E-29
4.32273E-02 1.44619E-29
4.41190E-02 1.37562E-29
4.50194E-02 1.32555E-29
4.59284E-02 1.28820E-29
4.68461E-02 1.25753E-29
4.87074E-02 1.19937E-29
5.06030E-02 1.12897E-29
5.25328E-02 1.03846E-29
5.44967E-02 9.28886E-30
5.64946E-02 8.06159E-30
5.85262E-02 6.78078E-30
6.05914E-02 5.52347E-30
6.26901E-02 4.35396E-30
6.48222E-02 3.31820E-30
6.69873E-02 2.44262E-30
6.91854E-02 1.73590E-30
7.14163E-02 1.19232E-30
7.36799E-02 7.95876E-31
7.59760E-02 5.24236E-31
7.83043E-02 3.52345E-31
8.06647E-02 2.55247E-31
8.30571E-02 2.10129E-31
8.54812E-02 1.97598E-31
8.79369E-02 2.02276E-31
9.04240E-02 2.12875E-31
9.29422E-02 2.21879E-31
9.54915E-02 2.24986E-31
9.80716E-02 2.20431E-31
1.00682E-01 2.08287E-31
1.03323E-01 1.89814E-31
1.05995E-01 1.66904E-31
1.08696E-01 1.41643E-31
1.11427E-01 1.15995E-31
1.14188E-01 9.15990E-32
1.16978E-01 6.96679E-32
1.19797E-01 5.09629E-32
1.22645E-01 3.58254E-32
1.25522E-01 2.42440E-32
1.28428E-01 1.59407E-32
1.31361E-01 1.04605E-32
1.34323E-01 7.25466E-33
1.37313E-01 5.75159E-33
1.40330E-01 5.41116E-33
1.43375E-01 5.76192E-33
1.46447E-01 6.42239E-33
1.49545E-01 7.10864E-33
1.52671E-01 7.63108E-33
1.55823E-01 7.88384E-33
1.59001E-01 7.82952E-33
1.62205E-01 7.48210E-33
1.65435E-01 6.88996E-33
1.68690E-01 6.12059E-33
1.71970E-01 5.24785E-33
1.75276E-01 4.34230E-33
1.78606E-01 3.46451E-33
1.81961E-01 2.66135E-33
1.85340E-01 1.96452E-33
1.88743E-01 1.39109E-33
1.92169E-01 9.45198E-34
1.95619E-01 6.20658E-34
1.99092E-01 4.03836E-34
2.02589E-01 2.76516E-34
2.06107E-01 2.18474E-34
2.09649E-01 2.09603E-34
2.13212E-01 2.31516E-34
2.16797E-01 2.68599E-34
2.20404E-01 3.08577E-34
2.24032E-01 3.42649E-34
2.27680E-01 3.65308E-34
2.31350E-01 3.73914E-34
2.35040E-01 3.68153E-34
2.38751E-01 3.49418E-34
2.42481E-01 3.20223E-34
2.46231E-01 2.83659E-34
2.50000E-01 2.42953E-34
2.53788E-01 2.01122E-34
2.57595E-01 1.60739E-34
2.61421E-01 1.23798E-34
2.65264E-01 9.16646E-35
2.69126E-01 6.50939E-35
2.73005E-01 4.43001E-35
2.76901E-01 2.90538E-35
2.80814E-01 1.87966E-35
2.84744E-01 1.27557E-35
2.88691E-01 1.00502E-35
2.92653E-01 9.78170E-36
2.96632E-01 1.11054E-35
3.00625E-01 1.32810E-35
3.04634E-01 1.57032E-35
3.08658E-01 1.79146E-35
3.12697E-01 1.96045E-35
3.16749E-01 2.05964E-35
3.20816E-01 2.08281E-35
3.24896E-01 2.03280E-35
3.28990E-01 1.91896E-35
3.33097E-01 1.75477E-35
3.37216E-01 1.55567E-35
3.41348E-01 1.33729E-35
3.45492E-01 1.11409E-35
3.49647E-01 8.98403E-36
3.53814E-01 6.99900E-36
3.57992E-01 5.25380E-36
3.62181E-01 3.78841E-36
3.66381E-01 2.61750E-36
3.70590E-01 1.73456E-36
3.74810E-01 1.11665E-36
3.79039E-01 7.29393E-37
3.83277E-01 5.31697E-37
3.87524E-01 4.79953E-37
3.91780E-01 5.31486E-37
3.96044E-01 6.47197E-37
4.00316E-01 7.93388E-37
4.04596E-01 9.42786E-37
4.08882E-01 1.07493E-36
4.13176E-01 1.17598E-36
4.17476E-01 1.23810E-36
4.21783E-01 1.25864E-36
4.26095E-01 1.23905E-36
4.30413E-01 1.18383E-36
4.34737E-01 1.09948E-36
4.39065E-01 9.93598E-37
4.43398E-01 8.74020E-37
4.47736E-01 7.48234E-37
4.52077E-01 6.22908E-37
4.56422E-01 5.03576E-37
4.60770E-01 3.94499E-37
4.65122E-01 2.98624E-37
4.69476E-01 2.17645E-37
4.73832E-01 1.52143E-37
4.78190E-01 1.01763E-37
4.82550E-01 1.00000E-45
4.86912E-01 1.00000E-45
4.91274E-01 1.00000E-45
4.95637E-01 1.00000E-45
5.00000E-01 1.00000E-45
5.04363E-01 1.00000E-45
5.08726E-01 1.00000E-45
5.13088E-01 1.00000E-45
5.17450E-01 1.00000E-45
5.21810E-01 1.00000E-45
5.26168E-01 1.00000E-45
5.30524E-01 1.00000E-45
5.34878E-01 1.00000E-45
5.39230E-01 1.00000E-45
5.43578E-01 1.00000E-45
5.47923E-01 1.00000E-45
5.52264E-01 1.00000E-45
5.56602E-01 1.00000E-45
5.60935E-01 1.00000E-45
5.65263E-01 1.00000E-45
5.69587E-01 1.00000E-45
5.73905E-01 1.00000E-45
5.78217E-01 1.00000E-45
5.82524E-01 1.00000E-45
5.86824E-01 1.00000E-45
5.91118E-01 1.00000E-45
5.95404E-01 1.00000E-45
5.99684E-01 1.00000E-45
6.03956E-01 1.00000E-45
6.08220E-01 1.00000E-45
6.12476E-01 1.00000E-45
6.16723E-01 1.00000E-45
6.20961E-01 1.00000E-45
6.25190E-01 1.00000E-45
6.29410E-01 1.00000E-45
6.33619E-01 1.00000E-45
6.37819E-01 1.00000E-45
6.42008E-01 1.00000E-45
6.46186E-01 1.00000E-45
6.50353E-01 1.00000E-45
6.54508E-01 1.00000E-45
6.58652E-01 1.00000E-45
6.62784E-01 1.00000E-45
6.66903E-01 1.00000E-45
6.71010E-01 1.00000E-45
6.75104E-01 1.00000E-45
6.79184E-01 1.00000E-45
6.83251E-01 1.00000E-45
6.87303E-01 1.00000E-45
6.91342E-01 1.00000E-45
6.95366E-01 1.00000E-45
6.99375E-01 1.00000E-45
7.03368E-01 1.00000E-45
7.07347E-01 1.00000E-45
7.11309E-01 1.00000E-45
7.15256E-01 1.00000E-45
7.19186E-01 1.00000E-45
7.23099E-01 1.00000E-45
7.26995E-01 1.00000E-45
7.30874E-01 1.00000E-45
7.34736E-01 1.00000E-45
7.38579E-01 1.00000E-45
7.42405E-01 1.00000E-45
7.46212E-01 1.00000E-45
7.50000E-01 1.00000E-45
7.53769E-01 1.00000E-45
7.57519E-01 1.00000E-45
7.61249E-01 1.00000E-45
7.64960E-01 1.00000E-45
7.68650E-01 1.00000E-45
7.72320E-01 1.00000E-45
7.75968E-01 1.00000E-45
7.79596E-01 1.00000E-45
7.83203E-01 1.00000E-45
7.86788E-01 1.00000E-45
7.90351E-01 1.00000E-45
7.93893E-01 1.00000E-45
7.97411E-01 1.00000E-45
8.00908E-01 1.00000E-45
8.04381E-01 1.00000E-45
8.07831E-01 1.00000E-45
8.11257E-01 1.00000E-45
8.14660E-01 1.00000E-45
8.18039E-01 1.00000E-45
8.21394E-01 1.00000E-45
8.24724E-01 1.00000E-45
8.28030E-01 1.00000E-45
8.31310E-01 1.00000E-45
8.34565E-01 1.00000E-45
8.37795E-01 1.00000E-45
8.40999E-01 1.00000E-45
8.44177E-01 1.00000E-45
8.47329E-01 1.00000E-45
8.50455E-01 1.00000E-45
8.53553E-01 1.00000E-45
8.56625E-01 1.00000E-45
8.59670E-01 1.00000E-45
8.62687E-01 1.00000E-45
8.65677E-01 1.00000E-45
8.68639E-01 1.00000E-45
8.71572E-01 1.00000E-45
8.74478E-01 1.00000E-45
8.77355E-01 1.00000E-45
8.80203E-01 1.00000E-45
8.83022E-01 1.00000E-45
8.85812E-01 1.00000E-45
8.88573E-01 1.00000E-45
8.91304E-01 1.00000E-45
8.94005E-01 1.00000E-45
8.96677E-01 1.00000E-45
8.99318E-01 1.00000E-45
9.01928E-01 1.00000E-45
9.04508E-01 1.00000E-45
9.07058E-01 1.00000E-45
9.09576E-01 1.00000E-45
9.12063E-01 1.00000E-45
9.14519E-01 1.00000E-45
9.16943E-01 1.00000E-45
9.19335E-01 1.00000E-45
9.21696E-01 1.00000E-45
9.24024E-01 1.00000E-45
9.26320E-01 1.00000E-45
9.28584E-01 1.00000E-45
9.30815E-01 1.00000E-45
9.33013E-01 1.00000E-45
9.35178E-01 1.00000E-45
9.37310E-01 1.00000E-45
9.39409E-01 1.00000E-45
9.41474E-01 1.00000E-45
9.43505E-01 1.00000E-45
9.45503E-01 1.00000E-45
9.47467E-01 1.00000E-45
9.49397E-01 1.00000E-45
9.51293E-01 1.00000E-45
9.53154E-01 1.00000E-45
9.54981E-01 1.00000E-45
9.56773E-01 1.00000E-45
9.58530E-01 1.00000E-45
9.60252E-01 1.00000E-45
9.61940E-01 1.00000E-45
9.63592E-01 1.00000E-45
9.65209E-01 1.00000E-45
9.66790E-01 1.00000E-45
9.68336E-01 1.00000E-45
9.69846E-01 1.00000E-45
9.71321E-01 1.00000E-45
9.72759E-01 1.00000E-45
9.74162E-01 1.00000E-45
9.75528E-01 1.00000E-45
9.76858E-01 1.00000E-45
9.78152E-01 1.00000E-45
9.79410E-01 1.00000E-45
9.80631E-01 1.00000E-45
9.81815E-01 1.00000E-45
9.82963E-01 1.00000E-45
9.84074E-01 1.00000E-45
9.85148E-01 1.00000E-45
9.86185E-01 1.00000E-45
9.87185E-01 1.00000E-45
9.88148E-01 1.00000E-45
9.89074E-01 1.00000E-45
9.89962E-01 1.00000E-45
9.90814E-01 1.00000E-45
9.91627E-01 1.00000E-45
9.92404E-01 1.00000E-45
9.93143E-01 1.00000E-45
9.93844E-01 1.00000E-45
9.94508E-01 1.00000E-45
9.95134E-01 1.00000E-45
9.95722E-01 1.00000E-45
9.96273E-01 1.00000E-45
9.96786E-01 1.00000E-45
9.97261E-01 1.00000E-45
9.97698E-01 1.00000E-45
9.98097E-01 1.00000E-45
9.98459E-01 1.00000E-45
9.98782E-01 1.00000E-45
9.99067E-01 1.00000E-45
9.99315E-01 1.00000E-45
9.99524E-01 1.00000E-45
9.99695E-01 1.00000E-45
9.99829E-01 1.00000E-45
9.99924E-01 1.00000E-45
9.99981E-01 1.00000E-45
1.00000E+00 1.00000E-45
