 #
 # Subroutine ELSEPA. Elastic scattering of electrons and positrons
 #                    by neutral atoms and positive ions
 #
 # Projectile: electron
 # Kinetic energy = 2.00000E+08 eV = 7.34987E+06 a.u.
 #
 # WARNING: High-energy factorization with free-atom DF screening.
 #          Absorption, polarization and exchange corrections are
 #          switched off.
 #          Phase shifts are calculated for the bare nucleus.
 #          Scattering amplitudes are not evaluated.
 #
 # Element: Yb,  Z =  70,  atomic weight = 1.73040E+02 g/mol
 #
 # Nuclear model: Fermi distribution
 #                Average radius = 5.96256E-13 cm
 #                Skin thickness = 5.46000E-14 cm
 #
 # Number of electrons = 70
 #
 # Total elastic cross section = 6.99212E-18 cm**2 = 2.49693E-01 a0**2
 # 1st transport cross section = 2.33635E-25 cm**2 = 8.34327E-09 a0**2
 # 2nd transport cross section = 6.99339E-25 cm**2 = 2.49739E-08 a0**2
 #
 #
 # Differential cross section:                       MU=(1-COS(THETA))/2
 #
 #  THETA        MU          DCS          DCS        Sherman      error
 #  (deg)                 (cm**2/sr)   (a0**2/sr)    function
 #----------------------------------------------------------------------
0.00000E+00 2.68396E-09
7.61557E-13 2.63815E-09
1.18994E-12 2.61298E-09
1.71346E-12 2.58278E-09
2.33225E-12 2.54784E-09
3.04617E-12 2.50853E-09
3.85530E-12 2.46521E-09
4.75964E-12 2.41831E-09
5.75917E-12 2.36825E-09
6.85391E-12 2.31565E-09
8.04379E-12 2.26051E-09
9.32893E-12 2.20346E-09
1.07092E-11 2.14522E-09
1.21847E-11 2.08558E-09
1.37554E-11 2.02550E-09
1.54213E-11 1.96514E-09
1.71823E-11 1.90439E-09
1.90386E-11 1.84450E-09
2.09900E-11 1.78494E-09
2.30367E-11 1.72587E-09
2.51785E-11 1.66848E-09
2.74156E-11 1.61182E-09
2.97478E-11 1.55652E-09
3.21752E-11 1.50302E-09
3.46979E-11 1.45061E-09
3.73157E-11 1.40018E-09
4.00286E-11 1.35143E-09
4.28368E-11 1.30398E-09
4.57402E-11 1.25886E-09
4.87388E-11 1.21518E-09
5.18325E-11 1.17302E-09
5.50215E-11 1.13303E-09
5.83057E-11 1.09437E-09
6.16850E-11 1.05738E-09
6.51595E-11 1.02216E-09
6.87293E-11 9.88194E-10
7.23943E-11 9.55934E-10
7.61544E-11 9.25072E-10
1.18991E-10 6.81897E-10
1.71347E-10 5.23543E-10
2.33223E-10 4.14216E-10
3.04617E-10 3.34210E-10
3.85531E-10 2.73015E-10
4.75965E-10 2.24865E-10
5.75917E-10 1.86254E-10
6.85389E-10 1.53340E-10
8.04380E-10 1.29075E-10
9.32891E-10 1.09567E-10
1.07092E-09 9.24412E-11
1.21847E-09 7.92548E-11
1.37554E-09 6.80008E-11
1.54213E-09 5.85382E-11
1.71823E-09 5.09978E-11
1.90386E-09 4.42806E-11
2.09900E-09 3.87320E-11
2.30367E-09 3.41424E-11
2.51785E-09 3.00002E-11
2.74156E-09 2.65664E-11
2.97478E-09 2.36036E-11
3.21752E-09 2.09724E-11
3.46978E-09 1.87504E-11
3.73156E-09 1.67705E-11
4.00286E-09 1.50335E-11
4.28368E-09 1.35445E-11
4.57402E-09 1.21863E-11
4.87388E-09 1.10051E-11
5.18326E-09 9.97141E-12
5.50215E-09 9.03000E-12
5.83057E-09 8.20758E-12
6.16850E-09 7.47338E-12
6.51596E-09 6.81144E-12
6.87293E-09 6.22745E-12
7.23942E-09 5.69866E-12
7.61544E-09 5.22446E-12
1.18991E-08 2.40502E-12
1.71347E-08 1.26880E-12
2.33223E-08 7.38173E-13
3.04617E-08 4.59603E-13
3.85531E-08 3.00701E-13
4.75965E-08 2.04755E-13
5.75917E-08 1.44008E-13
6.85389E-08 1.04166E-13
8.04380E-08 7.71678E-14
9.32891E-08 5.83748E-14
1.07092E-07 4.49760E-14
1.21847E-07 3.52136E-14
1.37554E-07 2.79650E-14
1.54213E-07 2.24917E-14
1.71823E-07 1.82959E-14
1.90386E-07 1.50356E-14
2.09900E-07 1.24711E-14
2.30367E-07 1.04313E-14
2.51785E-07 8.79241E-15
2.74156E-07 7.46279E-15
2.97478E-07 6.37536E-15
3.21752E-07 5.47901E-15
3.46978E-07 4.73479E-15
3.73156E-07 4.11269E-15
4.00286E-07 3.58942E-15
4.28368E-07 3.14670E-15
4.57402E-07 2.77010E-15
4.87388E-07 2.44812E-15
5.18325E-07 2.17152E-15
5.50215E-07 1.93283E-15
5.83057E-07 1.72600E-15
6.16850E-07 1.54603E-15
6.51596E-07 1.38888E-15
6.87293E-07 1.25117E-15
7.23942E-07 1.13009E-15
7.61543E-07 1.02328E-15
1.18991E-06 4.25441E-16
1.71347E-06 2.07163E-16
2.33223E-06 1.12614E-16
3.04617E-06 6.63749E-17
3.85531E-06 4.16195E-17
4.75964E-06 2.74040E-17
5.75916E-06 1.87721E-17
6.85388E-06 1.32867E-17
8.04378E-06 9.66615E-18
9.32888E-06 7.19890E-18
1.07092E-05 5.47086E-18
1.21846E-05 4.23150E-18
1.37553E-05 3.32400E-18
1.54212E-05 2.64723E-18
1.71822E-05 2.13424E-18
1.90385E-05 1.73880E-18
2.09899E-05 1.43236E-18
2.30365E-05 1.19037E-18
2.51783E-05 9.97136E-19
2.74153E-05 8.41363E-19
2.97475E-05 7.14756E-19
3.21749E-05 6.11088E-19
3.46974E-05 5.25600E-19
3.73152E-05 4.54613E-19
4.00281E-05 3.95264E-19
4.28362E-05 3.45314E-19
4.57395E-05 3.03011E-19
4.87380E-05 2.66980E-19
5.18317E-05 2.36132E-19
5.50205E-05 2.09604E-19
5.83045E-05 1.86695E-19
6.16838E-05 1.66834E-19
6.51582E-05 1.49552E-19
6.87277E-05 1.34457E-19
7.23925E-05 1.21224E-19
7.61524E-05 1.09925E-19
9.21439E-05 7.52077E-20
1.09658E-04 5.31876E-20
1.28695E-04 3.86814E-20
1.49255E-04 2.88048E-20
1.71338E-04 2.18946E-20
1.94942E-04 1.69407E-20
2.20070E-04 1.33145E-20
2.46720E-04 1.06106E-20
2.74892E-04 8.56076E-21
3.04586E-04 6.98393E-21
3.35803E-04 5.75472E-21
3.68542E-04 4.78501E-21
4.02802E-04 4.01163E-21
4.38585E-04 3.38869E-21
4.75889E-04 2.88235E-21
5.14715E-04 2.46733E-21
5.55063E-04 2.12453E-21
5.96931E-04 1.83935E-21
6.40321E-04 1.60054E-21
6.85233E-04 1.39926E-21
7.31665E-04 1.22868E-21
7.79618E-04 1.08333E-21
8.29092E-04 9.58869E-22
8.80086E-04 8.51777E-22
9.32601E-04 7.59224E-22
9.86636E-04 6.78899E-22
1.04219E-03 6.08909E-22
1.09927E-03 5.47698E-22
1.15786E-03 4.93973E-22
1.21797E-03 4.46662E-22
1.27961E-03 4.04864E-22
1.34276E-03 3.67826E-22
1.40743E-03 3.34910E-22
1.47362E-03 3.05578E-22
1.54133E-03 2.79371E-22
1.61056E-03 2.55898E-22
1.68131E-03 2.34822E-22
1.75357E-03 2.15856E-22
1.82735E-03 1.98752E-22
1.90265E-03 1.83293E-22
1.97947E-03 1.69295E-22
2.05780E-03 1.56593E-22
2.13765E-03 1.45048E-22
2.21902E-03 1.34534E-22
2.30190E-03 1.24944E-22
2.38630E-03 1.16181E-22
2.47222E-03 1.08162E-22
2.55965E-03 1.00813E-22
2.64859E-03 9.40664E-23
2.73905E-03 8.78654E-23
2.83103E-03 8.21577E-23
2.92452E-03 7.68970E-23
3.01952E-03 7.20421E-23
3.11604E-03 6.75562E-23
3.21407E-03 6.34062E-23
3.31362E-03 5.95626E-23
3.41468E-03 5.59987E-23
3.51725E-03 5.26906E-23
3.62133E-03 4.96168E-23
3.72692E-03 4.67576E-23
3.83403E-03 4.40954E-23
3.94265E-03 4.16144E-23
4.05278E-03 3.93000E-23
4.16442E-03 3.71391E-23
4.27757E-03 3.51197E-23
4.39223E-03 3.32310E-23
4.50840E-03 3.14630E-23
4.62608E-03 2.98067E-23
4.74527E-03 2.82538E-23
4.86597E-03 2.67968E-23
4.98817E-03 2.54287E-23
5.11188E-03 2.41431E-23
5.23711E-03 2.29343E-23
5.36383E-03 2.17968E-23
5.49207E-03 2.07258E-23
5.62181E-03 1.97167E-23
5.75306E-03 1.87653E-23
5.88581E-03 1.78678E-23
6.02007E-03 1.70206E-23
6.15583E-03 1.62204E-23
6.29310E-03 1.54642E-23
6.43187E-03 1.47492E-23
6.57214E-03 1.40727E-23
6.71392E-03 1.34324E-23
6.85720E-03 1.28259E-23
7.00198E-03 1.22513E-23
7.14827E-03 1.17065E-23
7.29605E-03 1.11899E-23
7.44534E-03 1.06995E-23
7.59612E-03 1.02341E-23
7.97965E-03 9.16970E-24
8.37255E-03 8.23144E-24
8.77480E-03 7.40224E-24
9.18641E-03 6.66764E-24
9.60736E-03 6.01536E-24
1.00376E-02 5.43491E-24
1.04773E-02 4.91733E-24
1.09262E-02 4.45490E-24
1.13844E-02 4.04097E-24
1.18520E-02 3.66981E-24
1.23288E-02 3.33644E-24
1.28150E-02 3.03653E-24
1.33104E-02 2.76633E-24
1.38150E-02 2.52253E-24
1.43290E-02 2.30225E-24
1.48521E-02 2.10297E-24
1.53845E-02 1.92247E-24
1.59262E-02 1.75876E-24
1.64770E-02 1.61014E-24
1.70371E-02 1.47506E-24
1.76063E-02 1.35216E-24
1.81848E-02 1.24024E-24
1.87724E-02 1.13822E-24
1.93692E-02 1.04514E-24
1.99751E-02 9.60154E-25
2.05901E-02 8.82489E-25
2.12143E-02 8.11462E-25
2.18476E-02 7.46460E-25
2.24900E-02 6.86929E-25
2.31415E-02 6.32375E-25
2.38021E-02 5.82350E-25
2.44717E-02 5.36451E-25
2.51504E-02 4.94315E-25
2.58382E-02 4.55612E-25
2.65349E-02 4.20046E-25
2.72407E-02 3.87345E-25
2.79555E-02 3.57267E-25
2.86793E-02 3.29589E-25
2.94120E-02 3.04110E-25
3.01537E-02 2.80646E-25
3.09043E-02 2.59031E-25
3.16639E-02 2.39111E-25
3.24324E-02 2.20750E-25
3.32098E-02 2.03819E-25
3.39961E-02 1.88204E-25
3.47912E-02 1.73798E-25
3.55952E-02 1.60506E-25
3.64081E-02 1.48237E-25
3.72297E-02 1.36913E-25
3.80602E-02 1.26457E-25
3.88995E-02 1.16803E-25
3.97476E-02 1.07887E-25
4.06044E-02 9.96515E-26
4.14700E-02 9.20445E-26
4.23443E-02 8.50172E-26
4.32273E-02 7.85249E-26
4.41190E-02 7.25266E-26
4.50194E-02 6.69844E-26
4.59284E-02 6.18635E-26
4.68461E-02 5.71319E-26
4.87074E-02 4.87201E-26
5.06030E-02 4.15391E-26
5.25328E-02 3.54097E-26
5.44967E-02 3.01793E-26
5.64946E-02 2.57176E-26
5.85262E-02 2.19133E-26
6.05914E-02 1.86712E-26
6.26901E-02 1.59097E-26
6.48222E-02 1.35591E-26
6.69873E-02 1.15597E-26
6.91854E-02 9.86008E-27
7.14163E-02 8.41645E-27
7.36799E-02 7.19116E-27
7.59760E-02 6.15195E-27
7.83043E-02 5.27119E-27
8.06647E-02 4.52521E-27
8.30571E-02 3.89374E-27
8.54812E-02 3.35946E-27
8.79369E-02 2.90753E-27
9.04240E-02 2.52531E-27
9.29422E-02 2.20199E-27
9.54915E-02 1.92836E-27
9.80716E-02 1.69660E-27
1.00682E-01 1.50005E-27
1.03323E-01 1.33305E-27
1.05995E-01 1.19083E-27
1.08696E-01 1.06934E-27
1.11427E-01 9.65179E-28
1.14188E-01 8.75470E-28
1.16978E-01 7.97807E-28
1.19797E-01 7.30178E-28
1.22645E-01 6.70899E-28
1.25522E-01 6.18575E-28
1.28428E-01 5.72044E-28
1.31361E-01 5.30349E-28
1.34323E-01 4.92704E-28
1.37313E-01 4.58461E-28
1.40330E-01 4.27096E-28
1.43375E-01 3.98179E-28
1.46447E-01 3.71364E-28
1.49545E-01 3.46374E-28
1.52671E-01 3.22984E-28
1.55823E-01 3.01016E-28
1.59001E-01 2.80328E-28
1.62205E-01 2.60807E-28
1.65435E-01 2.42364E-28
1.68690E-01 2.24925E-28
1.71970E-01 2.08433E-28
1.75276E-01 1.92842E-28
1.78606E-01 1.78111E-28
1.81961E-01 1.64208E-28
1.85340E-01 1.51103E-28
1.88743E-01 1.38770E-28
1.92169E-01 1.27182E-28
1.95619E-01 1.16318E-28
1.99092E-01 1.06151E-28
2.02589E-01 9.66598E-29
2.06107E-01 8.78186E-29
2.09649E-01 7.96033E-29
2.13212E-01 7.19886E-29
2.16797E-01 6.49489E-29
2.20404E-01 5.84582E-29
2.24032E-01 5.24898E-29
2.27680E-01 4.70172E-29
2.31350E-01 4.20136E-29
2.35040E-01 3.74522E-29
2.38751E-01 3.33064E-29
2.42481E-01 2.95501E-29
2.46231E-01 2.61574E-29
2.50000E-01 2.31032E-29
2.53788E-01 2.03630E-29
2.57595E-01 1.79129E-29
2.61421E-01 1.57302E-29
2.65264E-01 1.37928E-29
2.69126E-01 1.20799E-29
2.73005E-01 1.05715E-29
2.76901E-01 9.24878E-30
2.80814E-01 8.09392E-30
2.84744E-01 7.09022E-30
2.88691E-01 6.22210E-30
2.92653E-01 5.47502E-30
2.96632E-01 4.83550E-30
3.00625E-01 4.29109E-30
3.04634E-01 3.83036E-30
3.08658E-01 3.44282E-30
3.12697E-01 3.11893E-30
3.16749E-01 2.85002E-30
3.20816E-01 2.62825E-30
3.24896E-01 2.44658E-30
3.28990E-01 2.29872E-30
3.33097E-01 2.17906E-30
3.37216E-01 2.08265E-30
3.41348E-01 2.00512E-30
3.45492E-01 1.94268E-30
3.49647E-01 1.89202E-30
3.53814E-01 1.85031E-30
3.57992E-01 1.81513E-30
3.62181E-01 1.78444E-30
3.66381E-01 1.75655E-30
3.70590E-01 1.73007E-30
3.74810E-01 1.70387E-30
3.79039E-01 1.67708E-30
3.83277E-01 1.64901E-30
3.87524E-01 1.61919E-30
3.91780E-01 1.58728E-30
3.96044E-01 1.55308E-30
4.00316E-01 1.51650E-30
4.04596E-01 1.47755E-30
4.08882E-01 1.43632E-30
4.13176E-01 1.39295E-30
4.17476E-01 1.34764E-30
4.21783E-01 1.30061E-30
4.26095E-01 1.25213E-30
4.30413E-01 1.20246E-30
4.34737E-01 1.15189E-30
4.39065E-01 1.10070E-30
4.43398E-01 1.04917E-30
4.47736E-01 9.97571E-31
4.52077E-01 9.46164E-31
4.56422E-01 8.95194E-31
4.60770E-01 8.44887E-31
4.65122E-01 7.95453E-31
4.69476E-01 7.47081E-31
4.73832E-01 6.99940E-31
4.78190E-01 6.54178E-31
4.82550E-01 6.09921E-31
4.86912E-01 5.67277E-31
4.91274E-01 5.26333E-31
4.95637E-01 4.87157E-31
5.00000E-01 4.49801E-31
5.04363E-01 4.14299E-31
5.08726E-01 3.80669E-31
5.13088E-01 3.48916E-31
5.17450E-01 3.19032E-31
5.21810E-01 2.90995E-31
5.26168E-01 2.64776E-31
5.30524E-01 2.40335E-31
5.34878E-01 2.17624E-31
5.39230E-01 1.96589E-31
5.43578E-01 1.77168E-31
5.47923E-01 1.59299E-31
5.52264E-01 1.42911E-31
5.56602E-01 1.27935E-31
5.60935E-01 1.14296E-31
5.65263E-01 1.01921E-31
5.69587E-01 9.07349E-32
5.73905E-01 8.06629E-32
5.78217E-01 7.16314E-32
5.82524E-01 6.35677E-32
5.86824E-01 5.64010E-32
5.91118E-01 5.00622E-32
5.95404E-01 4.44845E-32
5.99684E-01 3.96039E-32
6.03956E-01 3.53588E-32
6.08220E-01 3.16909E-32
6.12476E-01 2.85445E-32
6.16723E-01 2.58672E-32
6.20961E-01 2.36096E-32
6.25190E-01 2.17257E-32
6.29410E-01 2.01722E-32
6.33619E-01 1.89093E-32
6.37819E-01 1.78999E-32
6.42008E-01 1.71099E-32
6.46186E-01 1.65082E-32
6.50353E-01 1.60663E-32
6.54508E-01 1.57582E-32
6.58652E-01 1.55606E-32
6.62784E-01 1.54526E-32
6.66903E-01 1.54153E-32
6.71010E-01 1.54321E-32
6.75104E-01 1.54883E-32
6.79184E-01 1.55710E-32
6.83251E-01 1.56690E-32
6.87303E-01 1.57728E-32
6.91342E-01 1.58741E-32
6.95366E-01 1.59661E-32
6.99375E-01 1.60432E-32
7.03368E-01 1.61008E-32
7.07347E-01 1.61353E-32
7.11309E-01 1.61440E-32
7.15256E-01 1.61250E-32
7.19186E-01 1.60770E-32
7.23099E-01 1.59993E-32
7.26995E-01 1.58919E-32
7.30874E-01 1.57551E-32
7.34736E-01 1.55896E-32
7.38579E-01 1.53964E-32
7.42405E-01 1.51769E-32
7.46212E-01 1.49325E-32
7.50000E-01 1.46650E-32
7.53769E-01 1.43761E-32
7.57519E-01 1.40678E-32
7.61249E-01 1.37420E-32
7.64960E-01 1.34007E-32
7.68650E-01 1.30460E-32
7.72320E-01 1.26797E-32
7.75968E-01 1.23039E-32
7.79596E-01 1.19203E-32
7.83203E-01 1.15308E-32
7.86788E-01 1.11372E-32
7.90351E-01 1.07411E-32
7.93893E-01 1.03440E-32
7.97411E-01 9.94743E-33
8.00908E-01 9.55270E-33
8.04381E-01 9.16110E-33
8.07831E-01 8.77375E-33
8.11257E-01 8.39171E-33
8.14660E-01 8.01592E-33
8.18039E-01 7.64723E-33
8.21394E-01 7.28638E-33
8.24724E-01 6.93402E-33
8.28030E-01 6.59073E-33
8.31310E-01 6.25697E-33
8.34565E-01 5.93315E-33
8.37795E-01 5.61959E-33
8.40999E-01 5.31653E-33
8.44177E-01 5.02416E-33
8.47329E-01 4.74260E-33
8.50455E-01 4.47190E-33
8.53553E-01 4.21209E-33
8.56625E-01 3.96312E-33
8.59670E-01 3.72492E-33
8.62687E-01 3.49736E-33
8.65677E-01 3.28029E-33
8.68639E-01 3.07352E-33
8.71572E-01 2.87685E-33
8.74478E-01 2.69004E-33
8.77355E-01 2.51283E-33
8.80203E-01 2.34496E-33
8.83022E-01 2.18613E-33
8.85812E-01 2.03605E-33
8.88573E-01 1.89442E-33
8.91304E-01 1.76093E-33
8.94005E-01 1.63526E-33
8.96677E-01 1.51709E-33
8.99318E-01 1.40611E-33
9.01928E-01 1.30200E-33
9.04508E-01 1.20445E-33
9.07058E-01 1.11316E-33
9.09576E-01 1.02780E-33
9.12063E-01 9.48094E-34
9.14519E-01 8.73743E-34
9.16943E-01 8.04464E-34
9.19335E-01 7.39981E-34
9.21696E-01 6.80027E-34
9.24024E-01 6.24343E-34
9.26320E-01 5.72682E-34
9.28584E-01 5.24802E-34
9.30815E-01 4.80474E-34
9.33013E-01 4.39478E-34
9.35178E-01 4.01603E-34
9.37310E-01 3.66648E-34
9.39409E-01 3.34421E-34
9.41474E-01 3.04741E-34
9.43505E-01 2.77433E-34
9.45503E-01 2.52336E-34
9.47467E-01 2.29293E-34
9.49397E-01 2.08158E-34
9.51293E-01 1.88793E-34
9.53154E-01 1.71068E-34
9.54981E-01 1.54861E-34
9.56773E-01 1.40057E-34
9.58530E-01 1.26547E-34
9.60252E-01 1.14232E-34
9.61940E-01 1.03018E-34
9.63592E-01 9.28155E-35
9.65209E-01 8.35436E-35
9.66790E-01 7.51249E-35
9.68336E-01 6.74892E-35
9.69846E-01 6.05703E-35
9.71321E-01 5.43074E-35
9.72759E-01 4.86432E-35
9.74162E-01 4.35256E-35
9.75528E-01 3.89065E-35
9.76858E-01 3.47409E-35
9.78152E-01 3.09880E-35
9.79410E-01 2.76097E-35
9.80631E-01 2.45716E-35
9.81815E-01 2.18416E-35
9.82963E-01 1.93906E-35
9.84074E-01 1.71919E-35
9.85148E-01 1.52213E-35
9.86185E-01 1.34561E-35
9.87185E-01 1.18765E-35
9.88148E-01 1.04640E-35
9.89074E-01 9.20159E-36
9.89962E-01 8.07446E-36
9.90814E-01 7.06860E-36
9.91627E-01 6.17173E-36
9.92404E-01 5.37264E-36
9.93143E-01 4.66130E-36
9.93844E-01 4.02860E-36
9.94508E-01 3.46639E-36
9.95134E-01 2.96743E-36
9.95722E-01 2.52526E-36
9.96273E-01 2.13401E-36
9.96786E-01 1.78858E-36
9.97261E-01 1.48435E-36
9.97698E-01 1.21744E-36
9.98097E-01 9.84179E-37
9.98459E-01 7.81536E-37
9.98782E-01 6.06785E-37
9.99067E-01 4.57669E-37
9.99315E-01 3.32149E-37
9.99524E-01 2.28648E-37
9.99695E-01 1.45744E-37
9.99829E-01 8.23666E-38
9.99924E-01 3.76855E-38
9.99981E-01 1.11046E-38
1.00000E+00 2.25309E-39
