 #
 # Subroutine ELSEPA. Elastic scattering of electrons and positrons
 #                    by neutral atoms and positive ions
 #
 # Projectile: electron
 # Kinetic energy = 7.00000E+06 eV = 2.57245E+05 a.u.
 #
 # WARNING: High-energy factorization with free-atom DF screening.
 #          Absorption, polarization and exchange corrections are
 #          switched off.
 #          Phase shifts are calculated for the bare nucleus.
 #          Scattering amplitudes are not evaluated.
 #
 # Element: Yb,  Z =  70,  atomic weight = 1.73040E+02 g/mol
 #
 # Nuclear model: Fermi distribution
 #                Average radius = 5.96256E-13 cm
 #                Skin thickness = 5.46000E-14 cm
 #
 # Number of electrons = 70
 #
 # Total elastic cross section = 7.02737E-18 cm**2 = 2.50952E-01 a0**2
 # 1st transport cross section = 1.49683E-22 cm**2 = 5.34526E-06 a0**2
 # 2nd transport cross section = 4.10801E-22 cm**2 = 1.46700E-05 a0**2
 #
 #
 # Differential cross section:                       MU=(1-COS(THETA))/2
 #
 #  THETA        MU          DCS          DCS        Sherman      error
 #  (deg)                 (cm**2/sr)   (a0**2/sr)    function
 #----------------------------------------------------------------------
0.00000E+00 3.76613E-12
7.61557E-13 3.76604E-12
1.18994E-12 3.76599E-12
1.71346E-12 3.76593E-12
2.33225E-12 3.76585E-12
3.04617E-12 3.76577E-12
3.85530E-12 3.76567E-12
4.75964E-12 3.76556E-12
5.75917E-12 3.76544E-12
6.85391E-12 3.76531E-12
8.04379E-12 3.76517E-12
9.32893E-12 3.76501E-12
1.07092E-11 3.76485E-12
1.21847E-11 3.76467E-12
1.37554E-11 3.76449E-12
1.54213E-11 3.76429E-12
1.71823E-11 3.76408E-12
1.90386E-11 3.76385E-12
2.09900E-11 3.76362E-12
2.30367E-11 3.76338E-12
2.51785E-11 3.76312E-12
2.74156E-11 3.76285E-12
2.97478E-11 3.76258E-12
3.21752E-11 3.76229E-12
3.46979E-11 3.76198E-12
3.73157E-11 3.76167E-12
4.00286E-11 3.76135E-12
4.28368E-11 3.76101E-12
4.57402E-11 3.76067E-12
4.87388E-11 3.76031E-12
5.18325E-11 3.75994E-12
5.50215E-11 3.75956E-12
5.83057E-11 3.75917E-12
6.16850E-11 3.75877E-12
6.51595E-11 3.75835E-12
6.87293E-11 3.75793E-12
7.23943E-11 3.75749E-12
7.61544E-11 3.75704E-12
1.18991E-10 3.75195E-12
1.71347E-10 3.74574E-12
2.33223E-10 3.73843E-12
3.04617E-10 3.73002E-12
3.85531E-10 3.72053E-12
4.75965E-10 3.70997E-12
5.75917E-10 3.69836E-12
6.85389E-10 3.68572E-12
8.04380E-10 3.67206E-12
9.32891E-10 3.65740E-12
1.07092E-09 3.64177E-12
1.21847E-09 3.62518E-12
1.37554E-09 3.60767E-12
1.54213E-09 3.58925E-12
1.71823E-09 3.56995E-12
1.90386E-09 3.54981E-12
2.09900E-09 3.52883E-12
2.30367E-09 3.50707E-12
2.51785E-09 3.48453E-12
2.74156E-09 3.46126E-12
2.97478E-09 3.43728E-12
3.21752E-09 3.41263E-12
3.46978E-09 3.38733E-12
3.73156E-09 3.36142E-12
4.00286E-09 3.33493E-12
4.28368E-09 3.30800E-12
4.57402E-09 3.28055E-12
4.87388E-09 3.25258E-12
5.18326E-09 3.22411E-12
5.50215E-09 3.19516E-12
5.83057E-09 3.16577E-12
6.16850E-09 3.13596E-12
6.51596E-09 3.10593E-12
6.87293E-09 3.07580E-12
7.23942E-09 3.04535E-12
7.61544E-09 3.01459E-12
1.18991E-08 2.69925E-12
1.71347E-08 2.38777E-12
2.33223E-08 2.09735E-12
3.04617E-08 1.83669E-12
3.85531E-08 1.61037E-12
4.75965E-08 1.41657E-12
5.75917E-08 1.25218E-12
6.85389E-08 1.11381E-12
8.04380E-08 9.96644E-13
9.32891E-08 8.97120E-13
1.07092E-07 8.11991E-13
1.21847E-07 7.38545E-13
1.37554E-07 6.74562E-13
1.54213E-07 6.18342E-13
1.71823E-07 5.68628E-13
1.90386E-07 5.24128E-13
2.09900E-07 4.84204E-13
2.30367E-07 4.48194E-13
2.51785E-07 4.15375E-13
2.74156E-07 3.85555E-13
2.97478E-07 3.58288E-13
3.21752E-07 3.33248E-13
3.46978E-07 3.10319E-13
3.73156E-07 2.89179E-13
4.00286E-07 2.69710E-13
4.28368E-07 2.50437E-13
4.57402E-07 2.32686E-13
4.87388E-07 2.16901E-13
5.18325E-07 2.02817E-13
5.50215E-07 1.90211E-13
5.83057E-07 1.78892E-13
6.16850E-07 1.68700E-13
6.51596E-07 1.58690E-13
6.87293E-07 1.48459E-13
7.23942E-07 1.39229E-13
7.61543E-07 1.30880E-13
1.18991E-06 7.46977E-14
1.71347E-06 4.53571E-14
2.33223E-06 2.89267E-14
3.04617E-06 1.92313E-14
3.85531E-06 1.31523E-14
4.75964E-06 9.25668E-15
5.75916E-06 6.68974E-15
6.85388E-06 4.94548E-15
8.04378E-06 3.74020E-15
9.32888E-06 2.88599E-15
1.07092E-05 2.26640E-15
1.21846E-05 1.80675E-15
1.37553E-05 1.46051E-15
1.54212E-05 1.19509E-15
1.71822E-05 9.88327E-16
1.90385E-05 8.23962E-16
2.09899E-05 6.93170E-16
2.30365E-05 5.87228E-16
2.51783E-05 5.00490E-16
2.74153E-05 4.29132E-16
2.97475E-05 3.69974E-16
3.21749E-05 3.20595E-16
3.46974E-05 2.79187E-16
3.73152E-05 2.44216E-16
4.00281E-05 2.14546E-16
4.28362E-05 1.89132E-16
4.57395E-05 1.67429E-16
4.87380E-05 1.48860E-16
5.18317E-05 1.32666E-16
5.50205E-05 1.18627E-16
5.83045E-05 1.06459E-16
6.16838E-05 9.57348E-17
6.51582E-05 8.63521E-17
6.87277E-05 7.81313E-17
7.23925E-05 7.08218E-17
7.61524E-05 6.43669E-17
9.21439E-05 4.48814E-17
1.09658E-04 3.22357E-17
1.28695E-04 2.37606E-17
1.49255E-04 1.79000E-17
1.71338E-04 1.37415E-17
1.94942E-04 1.07262E-17
2.20070E-04 8.49486E-18
2.46720E-04 6.81511E-18
2.74892E-04 5.53134E-18
3.04586E-04 4.53577E-18
3.35803E-04 3.75455E-18
3.68542E-04 3.13460E-18
4.02802E-04 2.63727E-18
4.38585E-04 2.23484E-18
4.75889E-04 1.90631E-18
5.14715E-04 1.63596E-18
5.55063E-04 1.41192E-18
5.96931E-04 1.22494E-18
6.40321E-04 1.06794E-18
6.85233E-04 9.35338E-19
7.31665E-04 8.22697E-19
7.79618E-04 7.26545E-19
8.29092E-04 6.44066E-19
8.80086E-04 5.72979E-19
9.32601E-04 5.11461E-19
9.86636E-04 4.58001E-19
1.04219E-03 4.11362E-19
1.09927E-03 3.70532E-19
1.15786E-03 3.34656E-19
1.21797E-03 3.03033E-19
1.27961E-03 2.75074E-19
1.34276E-03 2.50274E-19
1.40743E-03 2.28219E-19
1.47362E-03 2.08550E-19
1.54133E-03 1.90963E-19
1.61056E-03 1.75200E-19
1.68131E-03 1.61036E-19
1.75357E-03 1.48282E-19
1.82735E-03 1.36771E-19
1.90265E-03 1.26361E-19
1.97947E-03 1.16928E-19
2.05780E-03 1.08363E-19
2.13765E-03 1.00572E-19
2.21902E-03 9.34720E-20
2.30190E-03 8.69910E-20
2.38630E-03 8.10651E-20
2.47222E-03 7.56381E-20
2.55965E-03 7.06602E-20
2.64859E-03 6.60874E-20
2.73905E-03 6.18809E-20
2.83103E-03 5.80056E-20
2.92452E-03 5.44308E-20
3.01952E-03 5.11290E-20
3.11604E-03 4.80752E-20
3.21407E-03 4.52476E-20
3.31362E-03 4.26262E-20
3.41468E-03 4.01931E-20
3.51725E-03 3.79324E-20
3.62133E-03 3.58295E-20
3.72692E-03 3.38713E-20
3.83403E-03 3.20461E-20
3.94265E-03 3.03430E-20
4.05278E-03 2.87524E-20
4.16442E-03 2.72654E-20
4.27757E-03 2.58743E-20
4.39223E-03 2.45712E-20
4.50840E-03 2.33499E-20
4.62608E-03 2.22041E-20
4.74527E-03 2.11284E-20
4.86597E-03 2.01176E-20
4.98817E-03 1.91670E-20
5.11188E-03 1.82724E-20
5.23711E-03 1.74298E-20
5.36383E-03 1.66358E-20
5.49207E-03 1.58868E-20
5.62181E-03 1.51799E-20
5.75306E-03 1.45122E-20
5.88581E-03 1.38813E-20
6.02007E-03 1.32845E-20
6.15583E-03 1.27199E-20
6.29310E-03 1.21852E-20
6.43187E-03 1.16786E-20
6.57214E-03 1.11984E-20
6.71392E-03 1.07428E-20
6.85720E-03 1.03105E-20
7.00198E-03 9.89983E-21
7.14827E-03 9.50973E-21
7.29605E-03 9.13882E-21
7.44534E-03 8.78607E-21
7.59612E-03 8.45035E-21
7.97965E-03 7.67942E-21
8.37255E-03 6.99541E-21
8.77480E-03 6.38680E-21
9.18641E-03 5.84376E-21
9.60736E-03 5.35796E-21
1.00376E-02 4.92228E-21
1.04773E-02 4.53058E-21
1.09262E-02 4.17764E-21
1.13844E-02 3.85890E-21
1.18520E-02 3.57044E-21
1.23288E-02 3.30885E-21
1.28150E-02 3.07117E-21
1.33104E-02 2.85479E-21
1.38150E-02 2.65746E-21
1.43290E-02 2.47717E-21
1.48521E-02 2.31219E-21
1.53845E-02 2.16097E-21
1.59262E-02 2.02214E-21
1.64770E-02 1.89449E-21
1.70371E-02 1.77695E-21
1.76063E-02 1.66857E-21
1.81848E-02 1.56850E-21
1.87724E-02 1.47597E-21
1.93692E-02 1.39031E-21
1.99751E-02 1.31091E-21
2.05901E-02 1.23722E-21
2.12143E-02 1.16875E-21
2.18476E-02 1.10506E-21
2.24900E-02 1.04576E-21
2.31415E-02 9.90469E-22
2.38021E-02 9.38875E-22
2.44717E-02 8.90680E-22
2.51504E-02 8.45616E-22
2.58382E-02 8.03436E-22
2.65349E-02 7.63922E-22
2.72407E-02 7.26871E-22
2.79555E-02 6.92098E-22
2.86793E-02 6.59436E-22
2.94120E-02 6.28731E-22
3.01537E-02 5.99841E-22
3.09043E-02 5.72638E-22
3.16639E-02 5.47003E-22
3.24324E-02 5.22828E-22
3.32098E-02 5.00012E-22
3.39961E-02 4.78464E-22
3.47912E-02 4.58098E-22
3.55952E-02 4.38837E-22
3.64081E-02 4.20608E-22
3.72297E-02 4.03345E-22
3.80602E-02 3.86986E-22
3.88995E-02 3.71474E-22
3.97476E-02 3.56756E-22
4.06044E-02 3.42783E-22
4.14700E-02 3.29508E-22
4.23443E-02 3.16891E-22
4.32273E-02 3.04892E-22
4.41190E-02 2.93474E-22
4.50194E-02 2.82603E-22
4.59284E-02 2.72248E-22
4.68461E-02 2.62378E-22
4.87074E-02 2.43989E-22
5.06030E-02 2.27234E-22
5.25328E-02 2.11940E-22
5.44967E-02 1.97955E-22
5.64946E-02 1.85143E-22
5.85262E-02 1.73385E-22
6.05914E-02 1.62579E-22
6.26901E-02 1.52630E-22
6.48222E-02 1.43457E-22
6.69873E-02 1.34987E-22
6.91854E-02 1.27155E-22
7.14163E-02 1.19903E-22
7.36799E-02 1.13179E-22
7.59760E-02 1.06936E-22
7.83043E-02 1.01134E-22
8.06647E-02 9.57335E-23
8.30571E-02 9.07016E-23
8.54812E-02 8.60078E-23
8.79369E-02 8.16246E-23
9.04240E-02 7.75270E-23
9.29422E-02 7.36925E-23
9.54915E-02 7.01005E-23
9.80716E-02 6.67323E-23
1.00682E-01 6.35712E-23
1.03323E-01 6.06015E-23
1.05995E-01 5.78092E-23
1.08696E-01 5.51814E-23
1.11427E-01 5.27063E-23
1.14188E-01 5.03730E-23
1.16978E-01 4.81718E-23
1.19797E-01 4.60935E-23
1.22645E-01 4.41296E-23
1.25522E-01 4.22726E-23
1.28428E-01 4.05154E-23
1.31361E-01 3.88513E-23
1.34323E-01 3.72744E-23
1.37313E-01 3.57792E-23
1.40330E-01 3.43603E-23
1.43375E-01 3.30131E-23
1.46447E-01 3.17332E-23
1.49545E-01 3.05164E-23
1.52671E-01 2.93590E-23
1.55823E-01 2.82573E-23
1.59001E-01 2.72082E-23
1.62205E-01 2.62084E-23
1.65435E-01 2.52553E-23
1.68690E-01 2.43462E-23
1.71970E-01 2.34785E-23
1.75276E-01 2.26499E-23
1.78606E-01 2.18583E-23
1.81961E-01 2.11017E-23
1.85340E-01 2.03782E-23
1.88743E-01 1.96859E-23
1.92169E-01 1.90233E-23
1.95619E-01 1.83888E-23
1.99092E-01 1.77810E-23
2.02589E-01 1.71983E-23
2.06107E-01 1.66397E-23
2.09649E-01 1.61038E-23
2.13212E-01 1.55896E-23
2.16797E-01 1.50959E-23
2.20404E-01 1.46218E-23
2.24032E-01 1.41663E-23
2.27680E-01 1.37285E-23
2.31350E-01 1.33075E-23
2.35040E-01 1.29026E-23
2.38751E-01 1.25131E-23
2.42481E-01 1.21381E-23
2.46231E-01 1.17771E-23
2.50000E-01 1.14294E-23
2.53788E-01 1.10944E-23
2.57595E-01 1.07715E-23
2.61421E-01 1.04603E-23
2.65264E-01 1.01601E-23
2.69126E-01 9.87050E-24
2.73005E-01 9.59106E-24
2.76901E-01 9.32133E-24
2.80814E-01 9.06089E-24
2.84744E-01 8.80936E-24
2.88691E-01 8.56636E-24
2.92653E-01 8.33154E-24
2.96632E-01 8.10456E-24
3.00625E-01 7.88510E-24
3.04634E-01 7.67286E-24
3.08658E-01 7.46754E-24
3.12697E-01 7.26888E-24
3.16749E-01 7.07660E-24
3.20816E-01 6.89045E-24
3.24896E-01 6.71020E-24
3.28990E-01 6.53562E-24
3.33097E-01 6.36649E-24
3.37216E-01 6.20260E-24
3.41348E-01 6.04376E-24
3.45492E-01 5.88977E-24
3.49647E-01 5.74046E-24
3.53814E-01 5.59564E-24
3.57992E-01 5.45517E-24
3.62181E-01 5.31887E-24
3.66381E-01 5.18660E-24
3.70590E-01 5.05820E-24
3.74810E-01 4.93355E-24
3.79039E-01 4.81252E-24
3.83277E-01 4.69496E-24
3.87524E-01 4.58076E-24
3.91780E-01 4.46981E-24
3.96044E-01 4.36200E-24
4.00316E-01 4.25720E-24
4.04596E-01 4.15533E-24
4.08882E-01 4.05628E-24
4.13176E-01 3.95995E-24
4.17476E-01 3.86627E-24
4.21783E-01 3.77513E-24
4.26095E-01 3.68646E-24
4.30413E-01 3.60018E-24
4.34737E-01 3.51620E-24
4.39065E-01 3.43445E-24
4.43398E-01 3.35487E-24
4.47736E-01 3.27737E-24
4.52077E-01 3.20190E-24
4.56422E-01 3.12837E-24
4.60770E-01 3.05674E-24
4.65122E-01 2.98695E-24
4.69476E-01 2.91895E-24
4.73832E-01 2.85267E-24
4.78190E-01 2.78807E-24
4.82550E-01 2.72509E-24
4.86912E-01 2.66369E-24
4.91274E-01 2.60381E-24
4.95637E-01 2.54542E-24
5.00000E-01 2.48847E-24
5.04363E-01 2.43291E-24
5.08726E-01 2.37870E-24
5.13088E-01 2.32582E-24
5.17450E-01 2.27420E-24
5.21810E-01 2.22383E-24
5.26168E-01 2.17466E-24
5.30524E-01 2.12667E-24
5.34878E-01 2.07981E-24
5.39230E-01 2.03405E-24
5.43578E-01 1.98937E-24
5.47923E-01 1.94573E-24
5.52264E-01 1.90310E-24
5.56602E-01 1.86146E-24
5.60935E-01 1.82078E-24
5.65263E-01 1.78104E-24
5.69587E-01 1.74220E-24
5.73905E-01 1.70424E-24
5.78217E-01 1.66715E-24
5.82524E-01 1.63089E-24
5.86824E-01 1.59544E-24
5.91118E-01 1.56079E-24
5.95404E-01 1.52691E-24
5.99684E-01 1.49378E-24
6.03956E-01 1.46138E-24
6.08220E-01 1.42969E-24
6.12476E-01 1.39870E-24
6.16723E-01 1.36838E-24
6.20961E-01 1.33873E-24
6.25190E-01 1.30971E-24
6.29410E-01 1.28133E-24
6.33619E-01 1.25355E-24
6.37819E-01 1.22637E-24
6.42008E-01 1.19977E-24
6.46186E-01 1.17373E-24
6.50353E-01 1.14825E-24
6.54508E-01 1.12330E-24
6.58652E-01 1.09889E-24
6.62784E-01 1.07498E-24
6.66903E-01 1.05157E-24
6.71010E-01 1.02865E-24
6.75104E-01 1.00621E-24
6.79184E-01 9.84234E-25
6.83251E-01 9.62710E-25
6.87303E-01 9.41631E-25
6.91342E-01 9.20984E-25
6.95366E-01 9.00760E-25
6.99375E-01 8.80949E-25
7.03368E-01 8.61541E-25
7.07347E-01 8.42528E-25
7.11309E-01 8.23900E-25
7.15256E-01 8.05648E-25
7.19186E-01 7.87764E-25
7.23099E-01 7.70240E-25
7.26995E-01 7.53067E-25
7.30874E-01 7.36238E-25
7.34736E-01 7.19745E-25
7.38579E-01 7.03580E-25
7.42405E-01 6.87737E-25
7.46212E-01 6.72208E-25
7.50000E-01 6.56986E-25
7.53769E-01 6.42066E-25
7.57519E-01 6.27439E-25
7.61249E-01 6.13101E-25
7.64960E-01 5.99045E-25
7.68650E-01 5.85264E-25
7.72320E-01 5.71754E-25
7.75968E-01 5.58508E-25
7.79596E-01 5.45520E-25
7.83203E-01 5.32787E-25
7.86788E-01 5.20301E-25
7.90351E-01 5.08059E-25
7.93893E-01 4.96055E-25
7.97411E-01 4.84284E-25
8.00908E-01 4.72742E-25
8.04381E-01 4.61424E-25
8.07831E-01 4.50325E-25
8.11257E-01 4.39441E-25
8.14660E-01 4.28769E-25
8.18039E-01 4.18303E-25
8.21394E-01 4.08039E-25
8.24724E-01 3.97975E-25
8.28030E-01 3.88105E-25
8.31310E-01 3.78427E-25
8.34565E-01 3.68936E-25
8.37795E-01 3.59629E-25
8.40999E-01 3.50502E-25
8.44177E-01 3.41553E-25
8.47329E-01 3.32777E-25
8.50455E-01 3.24172E-25
8.53553E-01 3.15734E-25
8.56625E-01 3.07461E-25
8.59670E-01 2.99349E-25
8.62687E-01 2.91395E-25
8.65677E-01 2.83597E-25
8.68639E-01 2.75952E-25
8.71572E-01 2.68457E-25
8.74478E-01 2.61109E-25
8.77355E-01 2.53907E-25
8.80203E-01 2.46847E-25
8.83022E-01 2.39926E-25
8.85812E-01 2.33144E-25
8.88573E-01 2.26496E-25
8.91304E-01 2.19982E-25
8.94005E-01 2.13598E-25
8.96677E-01 2.07343E-25
8.99318E-01 2.01215E-25
9.01928E-01 1.95210E-25
9.04508E-01 1.89329E-25
9.07058E-01 1.83568E-25
9.09576E-01 1.77925E-25
9.12063E-01 1.72399E-25
9.14519E-01 1.66988E-25
9.16943E-01 1.61690E-25
9.19335E-01 1.56504E-25
9.21696E-01 1.51427E-25
9.24024E-01 1.46458E-25
9.26320E-01 1.41596E-25
9.28584E-01 1.36839E-25
9.30815E-01 1.32185E-25
9.33013E-01 1.27634E-25
9.35178E-01 1.23182E-25
9.37310E-01 1.18830E-25
9.39409E-01 1.14576E-25
9.41474E-01 1.10418E-25
9.43505E-01 1.06355E-25
9.45503E-01 1.02386E-25
9.47467E-01 9.85090E-26
9.49397E-01 9.47240E-26
9.51293E-01 9.10291E-26
9.53154E-01 8.74234E-26
9.54981E-01 8.39057E-26
9.56773E-01 8.04750E-26
9.58530E-01 7.71301E-26
9.60252E-01 7.38701E-26
9.61940E-01 7.06940E-26
9.63592E-01 6.76009E-26
9.65209E-01 6.45898E-26
9.66790E-01 6.16598E-26
9.68336E-01 5.88100E-26
9.69846E-01 5.60396E-26
9.71321E-01 5.33478E-26
9.72759E-01 5.07337E-26
9.74162E-01 4.81967E-26
9.75528E-01 4.57358E-26
9.76858E-01 4.33505E-26
9.78152E-01 4.10400E-26
9.79410E-01 3.88037E-26
9.80631E-01 3.66408E-26
9.81815E-01 3.45508E-26
9.82963E-01 3.25330E-26
9.84074E-01 3.05869E-26
9.85148E-01 2.87119E-26
9.86185E-01 2.69074E-26
9.87185E-01 2.51730E-26
9.88148E-01 2.35081E-26
9.89074E-01 2.19122E-26
9.89962E-01 2.03849E-26
9.90814E-01 1.89258E-26
9.91627E-01 1.75344E-26
9.92404E-01 1.62104E-26
9.93143E-01 1.49533E-26
9.93844E-01 1.37628E-26
9.94508E-01 1.26386E-26
9.95134E-01 1.15803E-26
9.95722E-01 1.05876E-26
9.96273E-01 9.66029E-27
9.96786E-01 8.79806E-27
9.97261E-01 8.00068E-27
9.97698E-01 7.26792E-27
9.98097E-01 6.59956E-27
9.98459E-01 5.99543E-27
9.98782E-01 5.45535E-27
9.99067E-01 4.97917E-27
9.99315E-01 4.56675E-27
9.99524E-01 4.21797E-27
9.99695E-01 3.93275E-27
9.99829E-01 3.71099E-27
9.99924E-01 3.55263E-27
9.99981E-01 3.45764E-27
1.00000E+00 3.42597E-27
