 #
 # Subroutine ELSEPA. Elastic scattering of electrons and positrons
 #                    by neutral atoms and positive ions
 #
 # Projectile: electron
 # Kinetic energy = 7.00000E+07 eV = 2.57245E+06 a.u.
 #
 # WARNING: High-energy factorization with free-atom DF screening.
 #          Absorption, polarization and exchange corrections are
 #          switched off.
 #          Phase shifts are calculated for the bare nucleus.
 #          Scattering amplitudes are not evaluated.
 #
 # Element: Yb,  Z =  70,  atomic weight = 1.73040E+02 g/mol
 #
 # Nuclear model: Fermi distribution
 #                Average radius = 5.96256E-13 cm
 #                Skin thickness = 5.46000E-14 cm
 #
 # Number of electrons = 70
 #
 # Total elastic cross section = 6.99025E-18 cm**2 = 2.49626E-01 a0**2
 # 1st transport cross section = 1.90155E-24 cm**2 = 6.79057E-08 a0**2
 # 2nd transport cross section = 5.62434E-24 cm**2 = 2.00849E-07 a0**2
 #
 #
 # Differential cross section:                       MU=(1-COS(THETA))/2
 #
 #  THETA        MU          DCS          DCS        Sherman      error
 #  (deg)                 (cm**2/sr)   (a0**2/sr)    function
 #----------------------------------------------------------------------
0.00000E+00 3.31905E-10
7.61557E-13 3.31194E-10
1.18994E-12 3.30796E-10
1.71346E-12 3.30310E-10
2.33225E-12 3.29739E-10
3.04617E-12 3.29081E-10
3.85530E-12 3.28338E-10
4.75964E-12 3.27512E-10
5.75917E-12 3.26603E-10
6.85391E-12 3.25612E-10
8.04379E-12 3.24541E-10
9.32893E-12 3.23390E-10
1.07092E-11 3.22163E-10
1.21847E-11 3.20859E-10
1.37554E-11 3.19481E-10
1.54213E-11 3.18031E-10
1.71823E-11 3.16510E-10
1.90386E-11 3.14921E-10
2.09900E-11 3.13264E-10
2.30367E-11 3.11543E-10
2.51785E-11 3.09759E-10
2.74156E-11 3.07915E-10
2.97478E-11 3.06011E-10
3.21752E-11 3.04052E-10
3.46979E-11 3.02039E-10
3.73157E-11 2.99974E-10
4.00286E-11 2.97859E-10
4.28368E-11 2.95698E-10
4.57402E-11 2.93491E-10
4.87388E-11 2.91253E-10
5.18325E-11 2.88974E-10
5.50215E-11 2.86653E-10
5.83057E-11 2.84293E-10
6.16850E-11 2.81896E-10
6.51595E-11 2.79464E-10
6.87293E-11 2.76999E-10
7.23943E-11 2.74507E-10
7.61544E-11 2.72018E-10
1.18991E-10 2.46140E-10
1.71347E-10 2.20004E-10
2.33223E-10 1.95065E-10
3.04617E-10 1.72347E-10
3.85531E-10 1.52154E-10
4.75965E-10 1.34561E-10
5.75917E-10 1.19461E-10
6.85389E-10 1.06582E-10
8.04380E-10 9.55879E-11
9.32891E-10 8.61904E-11
1.07092E-09 7.81318E-11
1.21847E-09 7.11631E-11
1.37554E-09 6.50960E-11
1.54213E-09 5.97689E-11
1.71823E-09 5.50516E-11
1.90386E-09 5.08507E-11
2.09900E-09 4.70859E-11
2.30367E-09 4.36746E-11
2.51785E-09 4.05826E-11
2.74156E-09 3.77687E-11
2.97478E-09 3.51914E-11
3.21752E-09 3.28215E-11
3.46978E-09 3.06452E-11
3.73156E-09 2.86424E-11
4.00286E-09 2.67847E-11
4.28368E-09 2.50693E-11
4.57402E-09 2.34841E-11
4.87388E-09 2.18793E-11
5.18326E-09 2.04218E-11
5.50215E-09 1.91165E-11
5.83057E-09 1.79441E-11
6.16850E-09 1.68880E-11
6.51596E-09 1.59340E-11
6.87293E-09 1.50700E-11
7.23942E-09 1.42701E-11
7.61544E-09 1.33919E-11
1.18991E-08 7.69512E-12
1.71347E-08 4.72943E-12
2.33223E-08 3.05975E-12
3.04617E-08 2.04377E-12
3.85531E-08 1.41006E-12
4.75965E-08 9.99573E-13
5.75917E-08 7.25007E-13
6.85389E-08 5.37402E-13
8.04380E-08 4.06915E-13
9.32891E-08 3.14132E-13
1.07092E-07 2.46654E-13
1.21847E-07 1.96711E-13
1.37554E-07 1.58963E-13
1.54213E-07 1.30058E-13
1.71823E-07 1.07563E-13
1.90386E-07 8.98091E-14
2.09900E-07 7.56033E-14
2.30367E-07 6.40784E-14
2.51785E-07 5.46666E-14
2.74156E-07 4.69208E-14
2.97478E-07 4.04954E-14
3.21752E-07 3.51289E-14
3.46978E-07 3.06221E-14
3.73156E-07 2.68131E-14
4.00286E-07 2.35703E-14
4.28368E-07 2.08004E-14
4.57402E-07 1.84241E-14
4.87388E-07 1.63647E-14
5.18325E-07 1.45925E-14
5.50215E-07 1.30628E-14
5.83057E-07 1.17184E-14
6.16850E-07 1.05433E-14
6.51596E-07 9.51684E-15
6.87293E-07 8.60825E-15
7.23942E-07 7.80475E-15
7.61543E-07 7.09577E-15
1.18991E-06 3.04416E-15
1.71347E-06 1.51568E-15
2.33223E-06 8.37654E-16
3.04617E-06 4.99882E-16
3.85531E-06 3.16391E-16
4.75964E-06 2.09803E-16
5.75916E-06 1.44504E-16
6.85388E-06 1.02721E-16
8.04378E-06 7.49951E-17
9.32888E-06 5.60193E-17
1.07092E-05 4.26814E-17
1.21846E-05 3.30874E-17
1.37553E-05 2.60446E-17
1.54212E-05 2.07807E-17
1.71822E-05 1.67826E-17
1.90385E-05 1.36948E-17
2.09899E-05 1.12980E-17
2.30365E-05 9.40227E-18
2.51783E-05 7.88614E-18
2.74153E-05 6.66218E-18
2.97475E-05 5.66605E-18
3.21749E-05 4.84935E-18
3.46974E-05 4.17507E-18
3.73152E-05 3.61453E-18
4.00281E-05 3.14538E-18
4.28362E-05 2.75012E-18
4.57395E-05 2.41505E-18
4.87380E-05 2.12938E-18
5.18317E-05 1.88460E-18
5.50205E-05 1.67392E-18
5.83045E-05 1.49184E-18
6.16838E-05 1.33387E-18
6.51582E-05 1.19632E-18
6.87277E-05 1.07609E-18
7.23925E-05 9.70631E-19
7.61524E-05 8.78018E-19
9.21439E-05 6.01253E-19
1.09658E-04 4.25452E-19
1.28695E-04 3.09515E-19
1.49255E-04 2.30517E-19
1.71338E-04 1.75216E-19
1.94942E-04 1.35558E-19
2.20070E-04 1.06523E-19
2.46720E-04 8.48703E-20
2.74892E-04 6.84566E-20
3.04586E-04 5.58319E-20
3.35803E-04 4.59920E-20
3.68542E-04 3.82314E-20
4.02802E-04 3.20437E-20
4.38585E-04 2.70613E-20
4.75889E-04 2.30128E-20
5.14715E-04 1.96956E-20
5.55063E-04 1.69566E-20
5.96931E-04 1.46789E-20
6.40321E-04 1.27722E-20
6.85233E-04 1.11661E-20
7.31665E-04 9.80557E-21
7.79618E-04 8.64673E-21
8.29092E-04 7.65472E-21
8.80086E-04 6.80147E-21
9.32601E-04 6.06430E-21
9.86636E-04 5.42473E-21
1.04219E-03 4.86763E-21
1.09927E-03 4.38054E-21
1.15786E-03 3.95313E-21
1.21797E-03 3.57683E-21
1.27961E-03 3.24445E-21
1.34276E-03 2.94998E-21
1.40743E-03 2.68833E-21
1.47362E-03 2.45519E-21
1.54133E-03 2.24691E-21
1.61056E-03 2.06037E-21
1.68131E-03 1.89289E-21
1.75357E-03 1.74217E-21
1.82735E-03 1.60624E-21
1.90265E-03 1.48338E-21
1.97947E-03 1.37211E-21
2.05780E-03 1.27114E-21
2.13765E-03 1.17934E-21
2.21902E-03 1.09573E-21
2.30190E-03 1.01944E-21
2.38630E-03 9.49709E-22
2.47222E-03 8.85878E-22
2.55965E-03 8.27351E-22
2.64859E-03 7.73608E-22
2.73905E-03 7.24184E-22
2.83103E-03 6.78669E-22
2.92452E-03 6.36695E-22
3.01952E-03 5.97936E-22
3.11604E-03 5.62099E-22
3.21407E-03 5.28924E-22
3.31362E-03 4.98175E-22
3.41468E-03 4.69642E-22
3.51725E-03 4.43135E-22
3.62133E-03 4.18483E-22
3.72692E-03 3.95532E-22
3.83403E-03 3.74143E-22
3.94265E-03 3.54189E-22
4.05278E-03 3.35555E-22
4.16442E-03 3.18138E-22
4.27757E-03 3.01842E-22
4.39223E-03 2.86584E-22
4.50840E-03 2.72282E-22
4.62608E-03 2.58868E-22
4.74527E-03 2.46273E-22
4.86597E-03 2.34441E-22
4.98817E-03 2.23314E-22
5.11188E-03 2.12844E-22
5.23711E-03 2.02980E-22
5.36383E-03 1.93684E-22
5.49207E-03 1.84916E-22
5.62181E-03 1.76642E-22
5.75306E-03 1.68827E-22
5.88581E-03 1.61441E-22
6.02007E-03 1.54457E-22
6.15583E-03 1.47848E-22
6.29310E-03 1.41590E-22
6.43187E-03 1.35661E-22
6.57214E-03 1.30041E-22
6.71392E-03 1.24709E-22
6.85720E-03 1.19649E-22
7.00198E-03 1.14844E-22
7.14827E-03 1.10278E-22
7.29605E-03 1.05938E-22
7.44534E-03 1.01809E-22
7.59612E-03 9.78804E-23
7.97965E-03 8.88583E-23
8.37255E-03 8.08537E-23
8.77480E-03 7.37315E-23
9.18641E-03 6.73769E-23
9.60736E-03 6.16923E-23
1.00376E-02 5.65944E-23
1.04773E-02 5.20117E-23
1.09262E-02 4.78827E-23
1.13844E-02 4.41543E-23
1.18520E-02 4.07806E-23
1.23288E-02 3.77217E-23
1.28150E-02 3.49429E-23
1.33104E-02 3.24139E-23
1.38150E-02 3.01081E-23
1.43290E-02 2.80022E-23
1.48521E-02 2.60757E-23
1.53845E-02 2.43106E-23
1.59262E-02 2.26908E-23
1.64770E-02 2.12022E-23
1.70371E-02 1.98322E-23
1.76063E-02 1.85697E-23
1.81848E-02 1.74047E-23
1.87724E-02 1.63282E-23
1.93692E-02 1.53324E-23
1.99751E-02 1.44100E-23
2.05901E-02 1.35547E-23
2.12143E-02 1.27607E-23
2.18476E-02 1.20229E-23
2.24900E-02 1.13364E-23
2.31415E-02 1.06971E-23
2.38021E-02 1.01012E-23
2.44717E-02 9.54523E-24
2.51504E-02 9.02595E-24
2.58382E-02 8.54054E-24
2.65349E-02 8.08641E-24
2.72407E-02 7.66116E-24
2.79555E-02 7.26264E-24
2.86793E-02 6.88887E-24
2.94120E-02 6.53804E-24
3.01537E-02 6.20848E-24
3.09043E-02 5.89868E-24
3.16639E-02 5.60726E-24
3.24324E-02 5.33291E-24
3.32098E-02 5.07448E-24
3.39961E-02 4.83088E-24
3.47912E-02 4.60110E-24
3.55952E-02 4.38423E-24
3.64081E-02 4.17941E-24
3.72297E-02 3.98586E-24
3.80602E-02 3.80286E-24
3.88995E-02 3.62973E-24
3.97476E-02 3.46585E-24
4.06044E-02 3.31064E-24
4.14700E-02 3.16357E-24
4.23443E-02 3.02413E-24
4.32273E-02 2.89186E-24
4.41190E-02 2.76634E-24
4.50194E-02 2.64717E-24
4.59284E-02 2.53396E-24
4.68461E-02 2.42637E-24
4.87074E-02 2.22678E-24
5.06030E-02 2.04606E-24
5.25328E-02 1.88214E-24
5.44967E-02 1.73323E-24
5.64946E-02 1.59776E-24
5.85262E-02 1.47433E-24
6.05914E-02 1.36172E-24
6.26901E-02 1.25884E-24
6.48222E-02 1.16474E-24
6.69873E-02 1.07856E-24
6.91854E-02 9.99539E-25
7.14163E-02 9.27006E-25
7.36799E-02 8.60355E-25
7.59760E-02 7.99046E-25
7.83043E-02 7.42596E-25
8.06647E-02 6.90569E-25
8.30571E-02 6.42576E-25
8.54812E-02 5.98265E-25
8.79369E-02 5.57318E-25
9.04240E-02 5.19451E-25
9.29422E-02 4.84403E-25
9.54915E-02 4.51941E-25
9.80716E-02 4.21851E-25
1.00682E-01 3.93942E-25
1.03323E-01 3.68038E-25
1.05995E-01 3.43979E-25
1.08696E-01 3.21620E-25
1.11427E-01 3.00828E-25
1.14188E-01 2.81483E-25
1.16978E-01 2.63474E-25
1.19797E-01 2.46700E-25
1.22645E-01 2.31067E-25
1.25522E-01 2.16492E-25
1.28428E-01 2.02895E-25
1.31361E-01 1.90206E-25
1.34323E-01 1.78359E-25
1.37313E-01 1.67293E-25
1.40330E-01 1.56953E-25
1.43375E-01 1.47287E-25
1.46447E-01 1.38247E-25
1.49545E-01 1.29790E-25
1.52671E-01 1.21876E-25
1.55823E-01 1.14468E-25
1.59001E-01 1.07530E-25
1.62205E-01 1.01031E-25
1.65435E-01 9.49409E-26
1.68690E-01 8.92331E-26
1.71970E-01 8.38816E-26
1.75276E-01 7.88631E-26
1.78606E-01 7.41555E-26
1.81961E-01 6.97385E-26
1.85340E-01 6.55932E-26
1.88743E-01 6.17020E-26
1.92169E-01 5.80486E-26
1.95619E-01 5.46177E-26
1.99092E-01 5.13952E-26
2.02589E-01 4.83677E-26
2.06107E-01 4.55231E-26
2.09649E-01 4.28498E-26
2.13212E-01 4.03370E-26
2.16797E-01 3.79748E-26
2.20404E-01 3.57538E-26
2.24032E-01 3.36653E-26
2.27680E-01 3.17011E-26
2.31350E-01 2.98536E-26
2.35040E-01 2.81156E-26
2.38751E-01 2.64805E-26
2.42481E-01 2.49419E-26
2.46231E-01 2.34942E-26
2.50000E-01 2.21317E-26
2.53788E-01 2.08493E-26
2.57595E-01 1.96422E-26
2.61421E-01 1.85060E-26
2.65264E-01 1.74363E-26
2.69126E-01 1.64292E-26
2.73005E-01 1.54810E-26
2.76901E-01 1.45882E-26
2.80814E-01 1.37474E-26
2.84744E-01 1.29557E-26
2.88691E-01 1.22102E-26
2.92653E-01 1.15080E-26
2.96632E-01 1.08467E-26
3.00625E-01 1.02239E-26
3.04634E-01 9.63723E-27
3.08658E-01 9.08469E-27
3.12697E-01 8.56423E-27
3.16749E-01 8.07400E-27
3.20816E-01 7.61222E-27
3.24896E-01 7.17724E-27
3.28990E-01 6.76750E-27
3.33097E-01 6.38153E-27
3.37216E-01 6.01795E-27
3.41348E-01 5.67546E-27
3.45492E-01 5.35284E-27
3.49647E-01 5.04892E-27
3.53814E-01 4.76264E-27
3.57992E-01 4.49295E-27
3.62181E-01 4.23892E-27
3.66381E-01 3.99962E-27
3.70590E-01 3.77420E-27
3.74810E-01 3.56186E-27
3.79039E-01 3.36184E-27
3.83277E-01 3.17344E-27
3.87524E-01 2.99596E-27
3.91780E-01 2.82879E-27
3.96044E-01 2.67133E-27
4.00316E-01 2.52301E-27
4.04596E-01 2.38330E-27
4.08882E-01 2.25170E-27
4.13176E-01 2.12775E-27
4.17476E-01 2.01100E-27
4.21783E-01 1.90102E-27
4.26095E-01 1.79744E-27
4.30413E-01 1.69986E-27
4.34737E-01 1.60796E-27
4.39065E-01 1.52139E-27
4.43398E-01 1.43984E-27
4.47736E-01 1.36302E-27
4.52077E-01 1.29066E-27
4.56422E-01 1.22249E-27
4.60770E-01 1.15828E-27
4.65122E-01 1.09778E-27
4.69476E-01 1.04078E-27
4.73832E-01 9.87076E-28
4.78190E-01 9.36474E-28
4.82550E-01 8.88792E-28
4.86912E-01 8.43858E-28
4.91274E-01 8.01510E-28
4.95637E-01 7.61596E-28
5.00000E-01 7.23971E-28
5.04363E-01 6.88502E-28
5.08726E-01 6.55060E-28
5.13088E-01 6.23526E-28
5.17450E-01 5.93786E-28
5.21810E-01 5.65734E-28
5.26168E-01 5.39270E-28
5.30524E-01 5.14300E-28
5.34878E-01 4.90735E-28
5.39230E-01 4.68491E-28
5.43578E-01 4.47489E-28
5.47923E-01 4.27656E-28
5.52264E-01 4.08922E-28
5.56602E-01 3.91221E-28
5.60935E-01 3.74492E-28
5.65263E-01 3.58675E-28
5.69587E-01 3.43718E-28
5.73905E-01 3.29569E-28
5.78217E-01 3.16178E-28
5.82524E-01 3.03501E-28
5.86824E-01 2.91496E-28
5.91118E-01 2.80121E-28
5.95404E-01 2.69339E-28
5.99684E-01 2.59115E-28
6.03956E-01 2.49416E-28
6.08220E-01 2.40209E-28
6.12476E-01 2.31466E-28
6.16723E-01 2.23159E-28
6.20961E-01 2.15262E-28
6.25190E-01 2.07750E-28
6.29410E-01 2.00601E-28
6.33619E-01 1.93793E-28
6.37819E-01 1.87307E-28
6.42008E-01 1.81122E-28
6.46186E-01 1.75222E-28
6.50353E-01 1.69589E-28
6.54508E-01 1.64208E-28
6.58652E-01 1.59064E-28
6.62784E-01 1.54144E-28
6.66903E-01 1.49434E-28
6.71010E-01 1.44923E-28
6.75104E-01 1.40598E-28
6.79184E-01 1.36450E-28
6.83251E-01 1.32469E-28
6.87303E-01 1.28644E-28
6.91342E-01 1.24968E-28
6.95366E-01 1.21431E-28
6.99375E-01 1.18027E-28
7.03368E-01 1.14748E-28
7.07347E-01 1.11587E-28
7.11309E-01 1.08538E-28
7.15256E-01 1.05595E-28
7.19186E-01 1.02753E-28
7.23099E-01 1.00005E-28
7.26995E-01 9.73483E-29
7.30874E-01 9.47770E-29
7.34736E-01 9.22871E-29
7.38579E-01 8.98746E-29
7.42405E-01 8.75358E-29
7.46212E-01 8.52670E-29
7.50000E-01 8.30650E-29
7.53769E-01 8.09267E-29
7.57519E-01 7.88492E-29
7.61249E-01 7.68297E-29
7.64960E-01 7.48657E-29
7.68650E-01 7.29547E-29
7.72320E-01 7.10947E-29
7.75968E-01 6.92833E-29
7.79596E-01 6.75187E-29
7.83203E-01 6.57989E-29
7.86788E-01 6.41223E-29
7.90351E-01 6.24872E-29
7.93893E-01 6.08919E-29
7.97411E-01 5.93352E-29
8.00908E-01 5.78156E-29
8.04381E-01 5.63318E-29
8.07831E-01 5.48826E-29
8.11257E-01 5.34669E-29
8.14660E-01 5.20836E-29
8.18039E-01 5.07316E-29
8.21394E-01 4.94101E-29
8.24724E-01 4.81180E-29
8.28030E-01 4.68546E-29
8.31310E-01 4.56189E-29
8.34565E-01 4.44103E-29
8.37795E-01 4.32281E-29
8.40999E-01 4.20714E-29
8.44177E-01 4.09396E-29
8.47329E-01 3.98322E-29
8.50455E-01 3.87485E-29
8.53553E-01 3.76879E-29
8.56625E-01 3.66499E-29
8.59670E-01 3.56340E-29
8.62687E-01 3.46397E-29
8.65677E-01 3.36664E-29
8.68639E-01 3.27138E-29
8.71572E-01 3.17813E-29
8.74478E-01 3.08687E-29
8.77355E-01 2.99753E-29
8.80203E-01 2.91010E-29
8.83022E-01 2.82452E-29
8.85812E-01 2.74077E-29
8.88573E-01 2.65881E-29
8.91304E-01 2.57859E-29
8.94005E-01 2.50010E-29
8.96677E-01 2.42330E-29
8.99318E-01 2.34815E-29
9.01928E-01 2.27464E-29
9.04508E-01 2.20272E-29
9.07058E-01 2.13237E-29
9.09576E-01 2.06357E-29
9.12063E-01 1.99628E-29
9.14519E-01 1.93048E-29
9.16943E-01 1.86615E-29
9.19335E-01 1.80326E-29
9.21696E-01 1.74179E-29
9.24024E-01 1.68171E-29
9.26320E-01 1.62300E-29
9.28584E-01 1.56564E-29
9.30815E-01 1.50960E-29
9.33013E-01 1.45487E-29
9.35178E-01 1.40143E-29
9.37310E-01 1.34925E-29
9.39409E-01 1.29832E-29
9.41474E-01 1.24861E-29
9.43505E-01 1.20011E-29
9.45503E-01 1.15279E-29
9.47467E-01 1.10665E-29
9.49397E-01 1.06166E-29
9.51293E-01 1.01781E-29
9.53154E-01 9.75077E-30
9.54981E-01 9.33447E-30
9.56773E-01 8.92904E-30
9.58530E-01 8.53432E-30
9.60252E-01 8.15017E-30
9.61940E-01 7.77644E-30
9.63592E-01 7.41297E-30
9.65209E-01 7.05964E-30
9.66790E-01 6.71630E-30
9.68336E-01 6.38282E-30
9.69846E-01 6.05907E-30
9.71321E-01 5.74492E-30
9.72759E-01 5.44026E-30
9.74162E-01 5.14495E-30
9.75528E-01 4.85889E-30
9.76858E-01 4.58197E-30
9.78152E-01 4.31406E-30
9.79410E-01 4.05507E-30
9.80631E-01 3.80489E-30
9.81815E-01 3.56343E-30
9.82963E-01 3.33059E-30
9.84074E-01 3.10626E-30
9.85148E-01 2.89038E-30
9.86185E-01 2.68284E-30
9.87185E-01 2.48356E-30
9.88148E-01 2.29247E-30
9.89074E-01 2.10948E-30
9.89962E-01 1.93453E-30
9.90814E-01 1.76753E-30
9.91627E-01 1.60843E-30
9.92404E-01 1.45716E-30
9.93143E-01 1.31366E-30
9.93844E-01 1.17787E-30
9.94508E-01 1.04973E-30
9.95134E-01 9.29186E-31
9.95722E-01 8.16198E-31
9.96273E-01 7.10715E-31
9.96786E-01 6.12695E-31
9.97261E-01 5.22096E-31
9.97698E-01 4.38882E-31
9.98097E-01 3.63018E-31
9.98459E-01 2.94473E-31
9.98782E-01 2.33219E-31
9.99067E-01 1.79231E-31
9.99315E-01 1.32486E-31
9.99524E-01 9.29653E-32
9.99695E-01 6.06525E-32
9.99829E-01 3.55341E-32
9.99924E-01 1.75998E-32
9.99981E-01 6.84214E-33
1.00000E+00 3.25670E-33
