 #
 # Subroutine ELSEPA. Elastic scattering of electrons and positrons
 #                    by neutral atoms and positive ions
 #
 # Projectile: electron
 # Kinetic energy = 1.25000E+08 eV = 4.59367E+06 a.u.
 #
 # WARNING: High-energy factorization with free-atom DF screening.
 #          Absorption, polarization and exchange corrections are
 #          switched off.
 #          Phase shifts are calculated for the bare nucleus.
 #          Scattering amplitudes are not evaluated.
 #
 # Element: Ra,  Z =  88,  atomic weight = 2.26025E+02 g/mol
 #
 # Nuclear model: Fermi distribution
 #                Average radius = 6.51783E-13 cm
 #                Skin thickness = 5.46000E-14 cm
 #
 # Number of electrons = 88
 #
 # Total elastic cross section = 1.11196E-17 cm**2 = 3.97086E-01 a0**2
 # 1st transport cross section = 9.26491E-25 cm**2 = 3.30856E-08 a0**2
 # 2nd transport cross section = 2.76436E-24 cm**2 = 9.87172E-08 a0**2
 #
 #
 # Differential cross section:                       MU=(1-COS(THETA))/2
 #
 #  THETA        MU          DCS          DCS        Sherman      error
 #  (deg)                 (cm**2/sr)   (a0**2/sr)    function
 #----------------------------------------------------------------------
0.00000E+00 2.39516E-09
7.61557E-13 2.37440E-09
1.18994E-12 2.36286E-09
1.71346E-12 2.34889E-09
2.33225E-12 2.33255E-09
3.04617E-12 2.31394E-09
3.85530E-12 2.29315E-09
4.75964E-12 2.27028E-09
5.75917E-12 2.24545E-09
6.85391E-12 2.21877E-09
8.04379E-12 2.19038E-09
9.32893E-12 2.16039E-09
1.07092E-11 2.12896E-09
1.21847E-11 2.09620E-09
1.37554E-11 2.06227E-09
1.54213E-11 2.02755E-09
1.71823E-11 1.99198E-09
1.90386E-11 1.95540E-09
2.09900E-11 1.91789E-09
2.30367E-11 1.87977E-09
2.51785E-11 1.84209E-09
2.74156E-11 1.80381E-09
2.97478E-11 1.76506E-09
3.21752E-11 1.72591E-09
3.46979E-11 1.68763E-09
3.73157E-11 1.64949E-09
4.00286E-11 1.61121E-09
4.28368E-11 1.57288E-09
4.57402E-11 1.53520E-09
4.87388E-11 1.49856E-09
5.18325E-11 1.46205E-09
5.50215E-11 1.42573E-09
5.83057E-11 1.38969E-09
6.16850E-11 1.35547E-09
6.51595E-11 1.32157E-09
6.87293E-11 1.28801E-09
7.23943E-11 1.25484E-09
7.61544E-11 1.22304E-09
1.18991E-10 9.46037E-10
1.71347E-10 7.40207E-10
2.33223E-10 5.89953E-10
3.04617E-10 4.79099E-10
3.85531E-10 3.95022E-10
4.75965E-10 3.29612E-10
5.75917E-10 2.77524E-10
6.85389E-10 2.35340E-10
8.04380E-10 2.00809E-10
9.32891E-10 1.72298E-10
1.07092E-09 1.48562E-10
1.21847E-09 1.28756E-10
1.37554E-09 1.12150E-10
1.54213E-09 9.77229E-11
1.71823E-09 8.55035E-11
1.90386E-09 7.54854E-11
2.09900E-09 6.71973E-11
2.30367E-09 6.01511E-11
2.51785E-09 5.35145E-11
2.74156E-09 4.79338E-11
2.97478E-09 4.32074E-11
3.21752E-09 3.91777E-11
3.46978E-09 3.53966E-11
3.73156E-09 3.20596E-11
4.00286E-09 2.91802E-11
4.28368E-09 2.66826E-11
4.57402E-09 2.44140E-11
4.87388E-09 2.23036E-11
5.18326E-09 2.04553E-11
5.50215E-09 1.88296E-11
5.83057E-09 1.73908E-11
6.16850E-09 1.60023E-11
6.51596E-09 1.47713E-11
6.87293E-09 1.36760E-11
7.23942E-09 1.26982E-11
7.61544E-09 1.17810E-11
1.18991E-08 6.00393E-12
1.71347E-08 3.40064E-12
2.33223E-08 2.07190E-12
3.04617E-08 1.32794E-12
3.85531E-08 8.87748E-13
4.75965E-08 6.14376E-13
5.75917E-08 4.39283E-13
6.85389E-08 3.22725E-13
8.04380E-08 2.42572E-13
9.32891E-08 1.86005E-13
1.07092E-07 1.45118E-13
1.21847E-07 1.14927E-13
1.37554E-07 9.22064E-14
1.54213E-07 7.47809E-14
1.71823E-07 6.13613E-14
1.90386E-07 5.07990E-14
2.09900E-07 4.24637E-14
2.30367E-07 3.57334E-14
2.51785E-07 3.03152E-14
2.74156E-07 2.58793E-14
2.97478E-07 2.22319E-14
3.21752E-07 1.92091E-14
3.46978E-07 1.66785E-14
3.73156E-07 1.45587E-14
4.00286E-07 1.27573E-14
4.28368E-07 1.12307E-14
4.57402E-07 9.92310E-15
4.87388E-07 8.80063E-15
5.18325E-07 7.83263E-15
5.50215E-07 6.99249E-15
5.83057E-07 6.26349E-15
6.16850E-07 5.62482E-15
6.51596E-07 5.06652E-15
6.87293E-07 4.57513E-15
7.23942E-07 4.14195E-15
7.61543E-07 3.75894E-15
1.18991E-06 1.59120E-15
1.71347E-06 7.85457E-16
2.33223E-06 4.31390E-16
3.04617E-06 2.56157E-16
3.85531E-06 1.61477E-16
4.75964E-06 1.06737E-16
5.75916E-06 7.33337E-17
6.85388E-06 5.20276E-17
8.04378E-06 3.79260E-17
9.32888E-06 2.82947E-17
1.07092E-05 2.15364E-17
1.21846E-05 1.66814E-17
1.37553E-05 1.31212E-17
1.54212E-05 1.04626E-17
1.71822E-05 8.44478E-18
1.90385E-05 6.88646E-18
2.09899E-05 5.67976E-18
2.30365E-05 4.72525E-18
2.51783E-05 3.96182E-18
2.74153E-05 3.34556E-18
2.97475E-05 2.84415E-18
3.21749E-05 2.43328E-18
3.46974E-05 2.09425E-18
3.73152E-05 1.81255E-18
4.00281E-05 1.57688E-18
4.28362E-05 1.37839E-18
4.57395E-05 1.21017E-18
4.87380E-05 1.06679E-18
5.18317E-05 9.43972E-19
5.50205E-05 8.38289E-19
5.83045E-05 7.46978E-19
6.16838E-05 6.67779E-19
6.51582E-05 5.98825E-19
6.87277E-05 5.38565E-19
7.23925E-05 4.85712E-19
7.61524E-05 4.39086E-19
9.21439E-05 3.00572E-19
1.09658E-04 2.12648E-19
1.28695E-04 1.54681E-19
1.49255E-04 1.15206E-19
1.71338E-04 8.75740E-20
1.94942E-04 6.77643E-20
2.20070E-04 5.32619E-20
2.46720E-04 4.24472E-20
2.74892E-04 3.42500E-20
3.04586E-04 2.79438E-20
3.35803E-04 2.30289E-20
3.68542E-04 1.91517E-20
4.02802E-04 1.60599E-20
4.38585E-04 1.35698E-20
4.75889E-04 1.15459E-20
5.14715E-04 9.88734E-21
5.55063E-04 8.51734E-21
5.96931E-04 7.37773E-21
6.40321E-04 6.42338E-21
6.85233E-04 5.61924E-21
7.31665E-04 4.93777E-21
7.79618E-04 4.35707E-21
8.29092E-04 3.85976E-21
8.80086E-04 3.43181E-21
9.32601E-04 3.06191E-21
9.86636E-04 2.74083E-21
1.04219E-03 2.46101E-21
1.09927E-03 2.21622E-21
1.15786E-03 2.00131E-21
1.21797E-03 1.81200E-21
1.27961E-03 1.64470E-21
1.34276E-03 1.49639E-21
1.40743E-03 1.36454E-21
1.47362E-03 1.24698E-21
1.54133E-03 1.14191E-21
1.61056E-03 1.04775E-21
1.68131E-03 9.63178E-22
1.75357E-03 8.87062E-22
1.82735E-03 8.18298E-22
1.90265E-03 7.56091E-22
1.97947E-03 6.99717E-22
2.05780E-03 6.48529E-22
2.13765E-03 6.01962E-22
2.21902E-03 5.59520E-22
2.30190E-03 5.20773E-22
2.38630E-03 4.85336E-22
2.47222E-03 4.52876E-22
2.55965E-03 4.23095E-22
2.64859E-03 3.95730E-22
2.73905E-03 3.70550E-22
2.83103E-03 3.47347E-22
2.92452E-03 3.25936E-22
3.01952E-03 3.06154E-22
3.11604E-03 2.87852E-22
3.21407E-03 2.70899E-22
3.31362E-03 2.55177E-22
3.41468E-03 2.40580E-22
3.51725E-03 2.27011E-22
3.62133E-03 2.14385E-22
3.72692E-03 2.02624E-22
3.83403E-03 1.91656E-22
3.94265E-03 1.81420E-22
4.05278E-03 1.71855E-22
4.16442E-03 1.62911E-22
4.27757E-03 1.54538E-22
4.39223E-03 1.46695E-22
4.50840E-03 1.39339E-22
4.62608E-03 1.32437E-22
4.74527E-03 1.25954E-22
4.86597E-03 1.19860E-22
4.98817E-03 1.14127E-22
5.11188E-03 1.08730E-22
5.23711E-03 1.03645E-22
5.36383E-03 9.88507E-23
5.49207E-03 9.43277E-23
5.62181E-03 9.00575E-23
5.75306E-03 8.60233E-23
5.88581E-03 8.22095E-23
6.02007E-03 7.86018E-23
6.15583E-03 7.51870E-23
6.29310E-03 7.19528E-23
6.43187E-03 6.88879E-23
6.57214E-03 6.59816E-23
6.71392E-03 6.32242E-23
6.85720E-03 6.06068E-23
7.00198E-03 5.81207E-23
7.14827E-03 5.57582E-23
7.29605E-03 5.35120E-23
7.44534E-03 5.13753E-23
7.59612E-03 4.93417E-23
7.97965E-03 4.46712E-23
8.37255E-03 4.05273E-23
8.77480E-03 3.68404E-23
9.18641E-03 3.35516E-23
9.60736E-03 3.06106E-23
1.00376E-02 2.79743E-23
1.04773E-02 2.56059E-23
1.09262E-02 2.34736E-23
1.13844E-02 2.15499E-23
1.18520E-02 1.98111E-23
1.23288E-02 1.82364E-23
1.28150E-02 1.68078E-23
1.33104E-02 1.55095E-23
1.38150E-02 1.43278E-23
1.43290E-02 1.32504E-23
1.48521E-02 1.22667E-23
1.53845E-02 1.13673E-23
1.59262E-02 1.05439E-23
1.64770E-02 9.78889E-24
1.70371E-02 9.09585E-24
1.76063E-02 8.45889E-24
1.81848E-02 7.87279E-24
1.87724E-02 7.33288E-24
1.93692E-02 6.83499E-24
1.99751E-02 6.37537E-24
2.05901E-02 5.95065E-24
2.12143E-02 5.55780E-24
2.18476E-02 5.19411E-24
2.24900E-02 4.85709E-24
2.31415E-02 4.54454E-24
2.38021E-02 4.25443E-24
2.44717E-02 3.98493E-24
2.51504E-02 3.73439E-24
2.58382E-02 3.50131E-24
2.65349E-02 3.28431E-24
2.72407E-02 3.08214E-24
2.79555E-02 2.89366E-24
2.86793E-02 2.71783E-24
2.94120E-02 2.55371E-24
3.01537E-02 2.40042E-24
3.09043E-02 2.25716E-24
3.16639E-02 2.12320E-24
3.24324E-02 1.99788E-24
3.32098E-02 1.88057E-24
3.39961E-02 1.77070E-24
3.47912E-02 1.66776E-24
3.55952E-02 1.57126E-24
3.64081E-02 1.48076E-24
3.72297E-02 1.39584E-24
3.80602E-02 1.31614E-24
3.88995E-02 1.24129E-24
3.97476E-02 1.17098E-24
4.06044E-02 1.10491E-24
4.14700E-02 1.04279E-24
4.23443E-02 9.84375E-25
4.32273E-02 9.29419E-25
4.41190E-02 8.77703E-25
4.50194E-02 8.29018E-25
4.59284E-02 7.83175E-25
4.68461E-02 7.39993E-25
4.87074E-02 6.60963E-25
5.06030E-02 5.90731E-25
5.25328E-02 5.28253E-25
5.44967E-02 4.72623E-25
5.64946E-02 4.23048E-25
5.85262E-02 3.78833E-25
6.05914E-02 3.39370E-25
6.26901E-02 3.04125E-25
6.48222E-02 2.72627E-25
6.69873E-02 2.44463E-25
6.91854E-02 2.19266E-25
7.14163E-02 1.96713E-25
7.36799E-02 1.76519E-25
7.59760E-02 1.58430E-25
7.83043E-02 1.42221E-25
8.06647E-02 1.27692E-25
8.30571E-02 1.14667E-25
8.54812E-02 1.02986E-25
8.79369E-02 9.25087E-26
9.04240E-02 8.31099E-26
9.29422E-02 7.46774E-26
9.54915E-02 6.71109E-26
9.80716E-02 6.03210E-26
1.00682E-01 5.42277E-26
1.03323E-01 4.87591E-26
1.05995E-01 4.38513E-26
1.08696E-01 3.94467E-26
1.11427E-01 3.54938E-26
1.14188E-01 3.19462E-26
1.16978E-01 2.87626E-26
1.19797E-01 2.59058E-26
1.22645E-01 2.33422E-26
1.25522E-01 2.10420E-26
1.28428E-01 1.89781E-26
1.31361E-01 1.71263E-26
1.34323E-01 1.54649E-26
1.37313E-01 1.39743E-26
1.40330E-01 1.26370E-26
1.43375E-01 1.14371E-26
1.46447E-01 1.03605E-26
1.49545E-01 9.39451E-27
1.52671E-01 8.52755E-27
1.55823E-01 7.74939E-27
1.59001E-01 7.05077E-27
1.62205E-01 6.42340E-27
1.65435E-01 5.85983E-27
1.68690E-01 5.35337E-27
1.71970E-01 4.89801E-27
1.75276E-01 4.48837E-27
1.78606E-01 4.11963E-27
1.81961E-01 3.78744E-27
1.85340E-01 3.48794E-27
1.88743E-01 3.21766E-27
1.92169E-01 2.97348E-27
1.95619E-01 2.75262E-27
1.99092E-01 2.55260E-27
2.02589E-01 2.37118E-27
2.06107E-01 2.20640E-27
2.09649E-01 2.05647E-27
2.13212E-01 1.91981E-27
2.16797E-01 1.79502E-27
2.20404E-01 1.68083E-27
2.24032E-01 1.57613E-27
2.27680E-01 1.47992E-27
2.31350E-01 1.39133E-27
2.35040E-01 1.30956E-27
2.38751E-01 1.23391E-27
2.42481E-01 1.16377E-27
2.46231E-01 1.09859E-27
2.50000E-01 1.03787E-27
2.53788E-01 9.81190E-28
2.57595E-01 9.28165E-28
2.61421E-01 8.78457E-28
2.65264E-01 8.31765E-28
2.69126E-01 7.87825E-28
2.73005E-01 7.46402E-28
2.76901E-01 7.07288E-28
2.80814E-01 6.70299E-28
2.84744E-01 6.35271E-28
2.88691E-01 6.02061E-28
2.92653E-01 5.70539E-28
2.96632E-01 5.40592E-28
3.00625E-01 5.12117E-28
3.04634E-01 4.85024E-28
3.08658E-01 4.59230E-28
3.12697E-01 4.34663E-28
3.16749E-01 4.11256E-28
3.20816E-01 3.88951E-28
3.24896E-01 3.67692E-28
3.28990E-01 3.47429E-28
3.33097E-01 3.28118E-28
3.37216E-01 3.09716E-28
3.41348E-01 2.92185E-28
3.45492E-01 2.75487E-28
3.49647E-01 2.59589E-28
3.53814E-01 2.44459E-28
3.57992E-01 2.30066E-28
3.62181E-01 2.16381E-28
3.66381E-01 2.03378E-28
3.70590E-01 1.91029E-28
3.74810E-01 1.79308E-28
3.79039E-01 1.68193E-28
3.83277E-01 1.57658E-28
3.87524E-01 1.47681E-28
3.91780E-01 1.38239E-28
3.96044E-01 1.29311E-28
4.00316E-01 1.20875E-28
4.04596E-01 1.12912E-28
4.08882E-01 1.05401E-28
4.13176E-01 9.83223E-29
4.17476E-01 9.16572E-29
4.21783E-01 8.53873E-29
4.26095E-01 7.94945E-29
4.30413E-01 7.39613E-29
4.34737E-01 6.87706E-29
4.39065E-01 6.39060E-29
4.43398E-01 5.93514E-29
4.47736E-01 5.50912E-29
4.52077E-01 5.11104E-29
4.56422E-01 4.73944E-29
4.60770E-01 4.39292E-29
4.65122E-01 4.07010E-29
4.69476E-01 3.76968E-29
4.73832E-01 3.49041E-29
4.78190E-01 3.23105E-29
4.82550E-01 2.99046E-29
4.86912E-01 2.76751E-29
4.91274E-01 2.56112E-29
4.95637E-01 2.37028E-29
5.00000E-01 2.19400E-29
5.04363E-01 2.03135E-29
5.08726E-01 1.88143E-29
5.13088E-01 1.74341E-29
5.17450E-01 1.61646E-29
5.21810E-01 1.49984E-29
5.26168E-01 1.39280E-29
5.30524E-01 1.29467E-29
5.34878E-01 1.20479E-29
5.39230E-01 1.12255E-29
5.43578E-01 1.04738E-29
5.47923E-01 9.78727E-30
5.52264E-01 9.16083E-30
5.56602E-01 8.58967E-30
5.60935E-01 8.06930E-30
5.65263E-01 7.59549E-30
5.69587E-01 7.16432E-30
5.73905E-01 6.77211E-30
5.78217E-01 6.41544E-30
5.82524E-01 6.09113E-30
5.86824E-01 5.79622E-30
5.91118E-01 5.52797E-30
5.95404E-01 5.28385E-30
5.99684E-01 5.06152E-30
6.03956E-01 4.85881E-30
6.08220E-01 4.67374E-30
6.12476E-01 4.50448E-30
6.16723E-01 4.34936E-30
6.20961E-01 4.20686E-30
6.25190E-01 4.07557E-30
6.29410E-01 3.95422E-30
6.33619E-01 3.84166E-30
6.37819E-01 3.73684E-30
6.42008E-01 3.63882E-30
6.46186E-01 3.54676E-30
6.50353E-01 3.45987E-30
6.54508E-01 3.37749E-30
6.58652E-01 3.29900E-30
6.62784E-01 3.22387E-30
6.66903E-01 3.15161E-30
6.71010E-01 3.08181E-30
6.75104E-01 3.01409E-30
6.79184E-01 2.94815E-30
6.83251E-01 2.88371E-30
6.87303E-01 2.82052E-30
6.91342E-01 2.75839E-30
6.95366E-01 2.69716E-30
6.99375E-01 2.63668E-30
7.03368E-01 2.57684E-30
7.07347E-01 2.51756E-30
7.11309E-01 2.45876E-30
7.15256E-01 2.40039E-30
7.19186E-01 2.34241E-30
7.23099E-01 2.28482E-30
7.26995E-01 2.22759E-30
7.30874E-01 2.17073E-30
7.34736E-01 2.11424E-30
7.38579E-01 2.05815E-30
7.42405E-01 2.00248E-30
7.46212E-01 1.94725E-30
7.50000E-01 1.89250E-30
7.53769E-01 1.83825E-30
7.57519E-01 1.78455E-30
7.61249E-01 1.73143E-30
7.64960E-01 1.67893E-30
7.68650E-01 1.62709E-30
7.72320E-01 1.57594E-30
7.75968E-01 1.52552E-30
7.79596E-01 1.47587E-30
7.83203E-01 1.42702E-30
7.86788E-01 1.37900E-30
7.90351E-01 1.33184E-30
7.93893E-01 1.28556E-30
7.97411E-01 1.24020E-30
8.00908E-01 1.19577E-30
8.04381E-01 1.15230E-30
8.07831E-01 1.10981E-30
8.11257E-01 1.06830E-30
8.14660E-01 1.02779E-30
8.18039E-01 9.88288E-31
8.21394E-01 9.49808E-31
8.24724E-01 9.12351E-31
8.28030E-01 8.75922E-31
8.31310E-01 8.40519E-31
8.34565E-01 8.06143E-31
8.37795E-01 7.72789E-31
8.40999E-01 7.40453E-31
8.44177E-01 7.09127E-31
8.47329E-01 6.78803E-31
8.50455E-01 6.49471E-31
8.53553E-01 6.21117E-31
8.56625E-01 5.93730E-31
8.59670E-01 5.67295E-31
8.62687E-01 5.41796E-31
8.65677E-01 5.17217E-31
8.68639E-01 4.93540E-31
8.71572E-01 4.70747E-31
8.74478E-01 4.48820E-31
8.77355E-01 4.27737E-31
8.80203E-01 4.07479E-31
8.83022E-01 3.88026E-31
8.85812E-01 3.69356E-31
8.88573E-01 3.51448E-31
8.91304E-01 3.34281E-31
8.94005E-01 3.17833E-31
8.96677E-01 3.02083E-31
8.99318E-01 2.87008E-31
9.01928E-01 2.72587E-31
9.04508E-01 2.58799E-31
9.07058E-01 2.45622E-31
9.09576E-01 2.33034E-31
9.12063E-01 2.21016E-31
9.14519E-01 2.09547E-31
9.16943E-01 1.98605E-31
9.19335E-01 1.88172E-31
9.21696E-01 1.78227E-31
9.24024E-01 1.68751E-31
9.26320E-01 1.59726E-31
9.28584E-01 1.51133E-31
9.30815E-01 1.42955E-31
9.33013E-01 1.35173E-31
9.35178E-01 1.27772E-31
9.37310E-01 1.20733E-31
9.39409E-01 1.14043E-31
9.41474E-01 1.07684E-31
9.43505E-01 1.01643E-31
9.45503E-01 9.59042E-32
9.47467E-01 9.04542E-32
9.49397E-01 8.52796E-32
9.51293E-01 8.03673E-32
9.53154E-01 7.57049E-32
9.54981E-01 7.12805E-32
9.56773E-01 6.70825E-32
9.58530E-01 6.31000E-32
9.60252E-01 5.93223E-32
9.61940E-01 5.57395E-32
9.63592E-01 5.23419E-32
9.65209E-01 4.91202E-32
9.66790E-01 4.60657E-32
9.68336E-01 4.31699E-32
9.69846E-01 4.04251E-32
9.71321E-01 3.78234E-32
9.72759E-01 3.53579E-32
9.74162E-01 3.30216E-32
9.75528E-01 3.08080E-32
9.76858E-01 2.87110E-32
9.78152E-01 2.67249E-32
9.79410E-01 2.48441E-32
9.80631E-01 2.30635E-32
9.81815E-01 2.13782E-32
9.82963E-01 1.97835E-32
9.84074E-01 1.82752E-32
9.85148E-01 1.68492E-32
9.86185E-01 1.55016E-32
9.87185E-01 1.42289E-32
9.88148E-01 1.30277E-32
9.89074E-01 1.18949E-32
9.89962E-01 1.08276E-32
9.90814E-01 9.82296E-33
9.91627E-01 8.87849E-33
9.92404E-01 7.99181E-33
9.93143E-01 7.16071E-33
9.93844E-01 6.38316E-33
9.94508E-01 5.65727E-33
9.95134E-01 4.98130E-33
9.95722E-01 4.35365E-33
9.96273E-01 3.77284E-33
9.96786E-01 3.23753E-33
9.97261E-01 2.74649E-33
9.97698E-01 2.29860E-33
9.98097E-01 1.89287E-33
9.98459E-01 1.52838E-33
9.98782E-01 1.20434E-33
9.99067E-01 9.20044E-34
9.99315E-01 6.74872E-34
9.99524E-01 4.68295E-34
9.99695E-01 2.99868E-34
9.99829E-01 1.69237E-34
9.99924E-01 7.61248E-35
9.99981E-01 2.03366E-35
1.00000E+00 1.75279E-36
