 #
 # Subroutine ELSEPA. Elastic scattering of electrons and positrons
 #                    by neutral atoms and positive ions
 #
 # Projectile: electron
 # Kinetic energy = 6.00000E+07 eV = 2.20496E+06 a.u.
 #
 # WARNING: High-energy factorization with free-atom DF screening.
 #          Absorption, polarization and exchange corrections are
 #          switched off.
 #          Phase shifts are calculated for the bare nucleus.
 #          Scattering amplitudes are not evaluated.
 #
 # Element: Ra,  Z =  88,  atomic weight = 2.26025E+02 g/mol
 #
 # Nuclear model: Fermi distribution
 #                Average radius = 6.51783E-13 cm
 #                Skin thickness = 5.46000E-14 cm
 #
 # Number of electrons = 88
 #
 # Total elastic cross section = 1.11175E-17 cm**2 = 3.97015E-01 a0**2
 # 1st transport cross section = 4.01576E-24 cm**2 = 1.43405E-07 a0**2
 # 2nd transport cross section = 1.18246E-23 cm**2 = 4.22264E-07 a0**2
 #
 #
 # Differential cross section:                       MU=(1-COS(THETA))/2
 #
 #  THETA        MU          DCS          DCS        Sherman      error
 #  (deg)                 (cm**2/sr)   (a0**2/sr)    function
 #----------------------------------------------------------------------
0.00000E+00 5.56724E-10
7.61557E-13 5.55594E-10
1.18994E-12 5.54961E-10
1.71346E-12 5.54190E-10
2.33225E-12 5.53280E-10
3.04617E-12 5.52235E-10
3.85530E-12 5.51053E-10
4.75964E-12 5.49738E-10
5.75917E-12 5.48291E-10
6.85391E-12 5.46713E-10
8.04379E-12 5.45007E-10
9.32893E-12 5.43174E-10
1.07092E-11 5.41217E-10
1.21847E-11 5.39138E-10
1.37554E-11 5.36940E-10
1.54213E-11 5.34625E-10
1.71823E-11 5.32195E-10
1.90386E-11 5.29654E-10
2.09900E-11 5.27006E-10
2.30367E-11 5.24251E-10
2.51785E-11 5.21395E-10
2.74156E-11 5.18439E-10
2.97478E-11 5.15388E-10
3.21752E-11 5.12244E-10
3.46979E-11 5.09011E-10
3.73157E-11 5.05692E-10
4.00286E-11 5.02291E-10
4.28368E-11 4.98812E-10
4.57402E-11 4.95258E-10
4.87388E-11 4.91632E-10
5.18325E-11 4.87938E-10
5.50215E-11 4.84180E-10
5.83057E-11 4.80360E-10
6.16850E-11 4.76484E-10
6.51595E-11 4.72594E-10
6.87293E-11 4.68661E-10
7.23943E-11 4.64668E-10
7.61544E-11 4.60619E-10
1.18991E-10 4.18332E-10
1.71347E-10 3.75164E-10
2.33223E-10 3.33523E-10
3.04617E-10 2.94989E-10
3.85531E-10 2.60392E-10
4.75965E-10 2.30008E-10
5.75917E-10 2.03724E-10
6.85389E-10 1.81081E-10
8.04380E-10 1.61630E-10
9.32891E-10 1.44912E-10
1.07092E-09 1.30497E-10
1.21847E-09 1.18005E-10
1.37554E-09 1.07118E-10
1.54213E-09 9.75681E-11
1.71823E-09 8.91393E-11
1.90386E-09 8.16515E-11
2.09900E-09 7.49616E-11
2.30367E-09 6.89598E-11
2.51785E-09 6.35539E-11
2.74156E-09 5.86684E-11
2.97478E-09 5.42404E-11
3.21752E-09 5.02175E-11
3.46978E-09 4.65551E-11
3.73156E-09 4.32151E-11
4.00286E-09 4.01644E-11
4.28368E-09 3.73699E-11
4.57402E-09 3.48106E-11
4.87388E-09 3.24649E-11
5.18326E-09 3.03128E-11
5.50215E-09 2.83361E-11
5.83057E-09 2.65187E-11
6.16850E-09 2.48460E-11
6.51596E-09 2.32333E-11
6.87293E-09 2.17428E-11
7.23942E-09 2.03925E-11
7.61544E-09 1.91665E-11
1.18991E-08 1.10179E-11
1.71347E-08 6.82910E-12
2.33223E-08 4.46804E-12
3.04617E-08 3.04676E-12
3.85531E-08 2.15037E-12
4.75965E-08 1.56297E-12
5.75917E-08 1.16463E-12
6.85389E-08 8.87073E-13
8.04380E-08 6.88104E-13
9.32891E-08 5.41965E-13
1.07092E-07 4.32431E-13
1.21847E-07 3.48951E-13
1.37554E-07 2.84445E-13
1.54213E-07 2.34149E-13
1.71823E-07 1.94168E-13
1.90386E-07 1.62312E-13
2.09900E-07 1.36773E-13
2.30367E-07 1.16126E-13
2.51785E-07 9.92742E-14
2.74156E-07 8.53955E-14
2.97478E-07 7.38731E-14
3.21752E-07 6.42400E-14
3.46978E-07 5.61377E-14
3.73156E-07 4.92848E-14
4.00286E-07 4.34577E-14
4.28368E-07 3.84734E-14
4.57402E-07 3.41894E-14
4.87388E-07 3.04888E-14
5.18325E-07 2.72771E-14
5.50215E-07 2.44778E-14
5.83057E-07 2.20290E-14
6.16850E-07 1.98794E-14
6.51596E-07 1.79762E-14
6.87293E-07 1.62996E-14
7.23942E-07 1.48231E-14
7.61543E-07 1.35157E-14
1.18991E-06 5.92143E-15
1.71347E-06 2.99549E-15
2.33223E-06 1.67322E-15
3.04617E-06 1.00553E-15
3.85531E-06 6.39705E-16
4.75964E-06 4.26177E-16
5.75916E-06 2.94873E-16
6.85388E-06 2.10535E-16
8.04378E-06 1.54338E-16
9.32888E-06 1.15712E-16
1.07092E-05 8.84509E-17
1.21846E-05 6.87626E-17
1.37553E-05 5.42551E-17
1.54212E-05 4.33757E-17
1.71822E-05 3.50890E-17
1.90385E-05 2.86690E-17
2.09899E-05 2.36845E-17
2.30365E-05 1.97326E-17
2.51783E-05 1.65655E-17
2.74153E-05 1.40045E-17
2.97475E-05 1.19178E-17
3.21749E-05 1.02055E-17
3.46974E-05 8.79103E-18
3.73152E-05 7.61458E-18
4.00281E-05 6.62944E-18
4.28362E-05 5.79901E-18
4.57395E-05 5.09466E-18
4.87380E-05 4.49389E-18
5.18317E-05 3.97891E-18
5.50205E-05 3.53549E-18
5.83045E-05 3.15214E-18
6.16838E-05 2.81944E-18
6.51582E-05 2.52961E-18
6.87277E-05 2.27620E-18
7.23925E-05 2.05381E-18
7.61524E-05 1.85691E-18
9.21439E-05 1.27299E-18
1.09658E-04 9.01699E-19
1.28695E-04 6.56537E-19
1.49255E-04 4.89366E-19
1.71338E-04 3.72210E-19
1.94942E-04 2.88138E-19
2.20070E-04 2.26538E-19
2.46720E-04 1.80569E-19
2.74892E-04 1.45706E-19
3.04586E-04 1.18873E-19
3.35803E-04 9.79528E-20
3.68542E-04 8.14447E-20
4.02802E-04 6.82783E-20
4.38585E-04 5.76734E-20
4.75889E-04 4.90536E-20
5.14715E-04 4.19897E-20
5.55063E-04 3.61555E-20
5.96931E-04 3.13031E-20
6.40321E-04 2.72404E-20
6.85233E-04 2.38178E-20
7.31665E-04 2.09181E-20
7.79618E-04 1.84480E-20
8.29092E-04 1.63334E-20
8.80086E-04 1.45144E-20
9.32601E-04 1.29428E-20
9.86636E-04 1.15792E-20
1.04219E-03 1.03913E-20
1.09927E-03 9.35268E-21
1.15786E-03 8.44127E-21
1.21797E-03 7.63881E-21
1.27961E-03 6.93001E-21
1.34276E-03 6.30201E-21
1.40743E-03 5.74398E-21
1.47362E-03 5.24675E-21
1.54133E-03 4.80254E-21
1.61056E-03 4.40465E-21
1.68131E-03 4.04741E-21
1.75357E-03 3.72593E-21
1.82735E-03 3.43596E-21
1.90265E-03 3.17388E-21
1.97947E-03 2.93651E-21
2.05780E-03 2.72109E-21
2.13765E-03 2.52523E-21
2.21902E-03 2.34682E-21
2.30190E-03 2.18403E-21
2.38630E-03 2.03524E-21
2.47222E-03 1.89901E-21
2.55965E-03 1.77410E-21
2.64859E-03 1.65939E-21
2.73905E-03 1.55388E-21
2.83103E-03 1.45672E-21
2.92452E-03 1.36709E-21
3.01952E-03 1.28433E-21
3.11604E-03 1.20780E-21
3.21407E-03 1.13694E-21
3.31362E-03 1.07126E-21
3.41468E-03 1.01031E-21
3.51725E-03 9.53670E-22
3.62133E-03 9.00990E-22
3.72692E-03 8.51936E-22
3.83403E-03 8.06214E-22
3.94265E-03 7.63550E-22
4.05278E-03 7.23705E-22
4.16442E-03 6.86453E-22
4.27757E-03 6.51595E-22
4.39223E-03 6.18948E-22
4.50840E-03 5.88342E-22
4.62608E-03 5.59628E-22
4.74527E-03 5.32664E-22
4.86597E-03 5.07324E-22
4.98817E-03 4.83491E-22
5.11188E-03 4.61057E-22
5.23711E-03 4.39925E-22
5.36383E-03 4.20005E-22
5.49207E-03 4.01212E-22
5.62181E-03 3.83472E-22
5.75306E-03 3.66713E-22
5.88581E-03 3.50870E-22
6.02007E-03 3.35885E-22
6.15583E-03 3.21700E-22
6.29310E-03 3.08266E-22
6.43187E-03 2.95534E-22
6.57214E-03 2.83460E-22
6.71392E-03 2.72005E-22
6.85720E-03 2.61130E-22
7.00198E-03 2.50800E-22
7.14827E-03 2.40984E-22
7.29605E-03 2.31650E-22
7.44534E-03 2.22771E-22
7.59612E-03 2.14322E-22
7.97965E-03 1.94875E-22
8.37255E-03 1.77607E-22
8.77480E-03 1.62228E-22
9.18641E-03 1.48493E-22
9.60736E-03 1.36194E-22
1.00376E-02 1.25154E-22
1.04773E-02 1.15219E-22
1.09262E-02 1.06258E-22
1.13844E-02 9.81570E-23
1.18520E-02 9.08188E-23
1.23288E-02 8.41577E-23
1.28150E-02 7.80994E-23
1.33104E-02 7.25790E-23
1.38150E-02 6.75396E-23
1.43290E-02 6.29315E-23
1.48521E-02 5.87106E-23
1.53845E-02 5.48382E-23
1.59262E-02 5.12800E-23
1.64770E-02 4.80057E-23
1.70371E-02 4.49883E-23
1.76063E-02 4.22038E-23
1.81848E-02 3.96307E-23
1.87724E-02 3.72499E-23
1.93692E-02 3.50443E-23
1.99751E-02 3.29986E-23
2.05901E-02 3.10989E-23
2.12143E-02 2.93328E-23
2.18476E-02 2.76891E-23
2.24900E-02 2.61577E-23
2.31415E-02 2.47295E-23
2.38021E-02 2.33962E-23
2.44717E-02 2.21503E-23
2.51504E-02 2.09849E-23
2.58382E-02 1.98939E-23
2.65349E-02 1.88716E-23
2.72407E-02 1.79129E-23
2.79555E-02 1.70131E-23
2.86793E-02 1.61679E-23
2.94120E-02 1.53733E-23
3.01537E-02 1.46257E-23
3.09043E-02 1.39219E-23
3.16639E-02 1.32587E-23
3.24324E-02 1.26335E-23
3.32098E-02 1.20436E-23
3.39961E-02 1.14866E-23
3.47912E-02 1.09605E-23
3.55952E-02 1.04631E-23
3.64081E-02 9.99263E-24
3.72297E-02 9.54734E-24
3.80602E-02 9.12565E-24
3.88995E-02 8.72607E-24
3.97476E-02 8.34724E-24
4.06044E-02 7.98788E-24
4.14700E-02 7.64682E-24
4.23443E-02 7.32295E-24
4.32273E-02 7.01526E-24
4.41190E-02 6.72279E-24
4.50194E-02 6.44466E-24
4.59284E-02 6.18004E-24
4.68461E-02 5.92816E-24
4.87074E-02 5.45980E-24
5.06030E-02 5.03435E-24
5.25328E-02 4.64724E-24
5.44967E-02 4.29448E-24
5.64946E-02 3.97253E-24
5.85262E-02 3.67828E-24
6.05914E-02 3.40897E-24
6.26901E-02 3.16218E-24
6.48222E-02 2.93573E-24
6.69873E-02 2.72769E-24
6.91854E-02 2.53636E-24
7.14163E-02 2.36018E-24
7.36799E-02 2.19779E-24
7.59760E-02 2.04797E-24
7.83043E-02 1.90959E-24
8.06647E-02 1.78166E-24
8.30571E-02 1.66330E-24
8.54812E-02 1.55368E-24
8.79369E-02 1.45209E-24
9.04240E-02 1.35784E-24
9.29422E-02 1.27036E-24
9.54915E-02 1.18908E-24
9.80716E-02 1.11352E-24
1.00682E-01 1.04323E-24
1.03323E-01 9.77792E-25
1.05995E-01 9.16835E-25
1.08696E-01 8.60019E-25
1.11427E-01 8.07029E-25
1.14188E-01 7.57580E-25
1.16978E-01 7.11411E-25
1.19797E-01 6.68281E-25
1.22645E-01 6.27969E-25
1.25522E-01 5.90272E-25
1.28428E-01 5.55005E-25
1.31361E-01 5.21996E-25
1.34323E-01 4.91086E-25
1.37313E-01 4.62131E-25
1.40330E-01 4.34994E-25
1.43375E-01 4.09552E-25
1.46447E-01 3.85690E-25
1.49545E-01 3.63302E-25
1.52671E-01 3.42289E-25
1.55823E-01 3.22560E-25
1.59001E-01 3.04031E-25
1.62205E-01 2.86622E-25
1.65435E-01 2.70262E-25
1.68690E-01 2.54883E-25
1.71970E-01 2.40422E-25
1.75276E-01 2.26819E-25
1.78606E-01 2.14022E-25
1.81961E-01 2.01979E-25
1.85340E-01 1.90643E-25
1.88743E-01 1.79970E-25
1.92169E-01 1.69919E-25
1.95619E-01 1.60452E-25
1.99092E-01 1.51532E-25
2.02589E-01 1.43127E-25
2.06107E-01 1.35206E-25
2.09649E-01 1.27738E-25
2.13212E-01 1.20698E-25
2.16797E-01 1.14058E-25
2.20404E-01 1.07796E-25
2.24032E-01 1.01890E-25
2.27680E-01 9.63166E-26
2.31350E-01 9.10581E-26
2.35040E-01 8.60955E-26
2.38751E-01 8.14115E-26
2.42481E-01 7.69900E-26
2.46231E-01 7.28157E-26
2.50000E-01 6.88742E-26
2.53788E-01 6.51523E-26
2.57595E-01 6.16373E-26
2.61421E-01 5.83173E-26
2.65264E-01 5.51812E-26
2.69126E-01 5.22185E-26
2.73005E-01 4.94193E-26
2.76901E-01 4.67745E-26
2.80814E-01 4.42753E-26
2.84744E-01 4.19134E-26
2.88691E-01 3.96812E-26
2.92653E-01 3.75713E-26
2.96632E-01 3.55770E-26
3.00625E-01 3.36917E-26
3.04634E-01 3.19094E-26
3.08658E-01 3.02243E-26
3.12697E-01 2.86311E-26
3.16749E-01 2.71247E-26
3.20816E-01 2.57001E-26
3.24896E-01 2.43530E-26
3.28990E-01 2.30789E-26
3.33097E-01 2.18740E-26
3.37216E-01 2.07344E-26
3.41348E-01 1.96565E-26
3.45492E-01 1.86368E-26
3.49647E-01 1.76723E-26
3.53814E-01 1.67598E-26
3.57992E-01 1.58966E-26
3.62181E-01 1.50799E-26
3.66381E-01 1.43072E-26
3.70590E-01 1.35761E-26
3.74810E-01 1.28843E-26
3.79039E-01 1.22296E-26
3.83277E-01 1.16101E-26
3.87524E-01 1.10239E-26
3.91780E-01 1.04690E-26
3.96044E-01 9.94387E-27
4.00316E-01 9.44681E-27
4.04596E-01 8.97631E-27
4.08882E-01 8.53093E-27
4.13176E-01 8.10930E-27
4.17476E-01 7.71013E-27
4.21783E-01 7.33220E-27
4.26095E-01 6.97436E-27
4.30413E-01 6.63551E-27
4.34737E-01 6.31463E-27
4.39065E-01 6.01074E-27
4.43398E-01 5.72292E-27
4.47736E-01 5.45029E-27
4.52077E-01 5.19203E-27
4.56422E-01 4.94737E-27
4.60770E-01 4.71555E-27
4.65122E-01 4.49590E-27
4.69476E-01 4.28774E-27
4.73832E-01 4.09045E-27
4.78190E-01 3.90345E-27
4.82550E-01 3.72618E-27
4.86912E-01 3.55810E-27
4.91274E-01 3.39873E-27
4.95637E-01 3.24758E-27
5.00000E-01 3.10422E-27
5.04363E-01 2.96821E-27
5.08726E-01 2.83917E-27
5.13088E-01 2.71671E-27
5.17450E-01 2.60049E-27
5.21810E-01 2.49015E-27
5.26168E-01 2.38538E-27
5.30524E-01 2.28588E-27
5.34878E-01 2.19137E-27
5.39230E-01 2.10158E-27
5.43578E-01 2.01624E-27
5.47923E-01 1.93512E-27
5.52264E-01 1.85800E-27
5.56602E-01 1.78465E-27
5.60935E-01 1.71488E-27
5.65263E-01 1.64849E-27
5.69587E-01 1.58529E-27
5.73905E-01 1.52512E-27
5.78217E-01 1.46782E-27
5.82524E-01 1.41323E-27
5.86824E-01 1.36120E-27
5.91118E-01 1.31160E-27
5.95404E-01 1.26430E-27
5.99684E-01 1.21917E-27
6.03956E-01 1.17610E-27
6.08220E-01 1.13499E-27
6.12476E-01 1.09572E-27
6.16723E-01 1.05820E-27
6.20961E-01 1.02234E-27
6.25190E-01 9.88050E-28
6.29410E-01 9.55246E-28
6.33619E-01 9.23852E-28
6.37819E-01 8.93793E-28
6.42008E-01 8.65001E-28
6.46186E-01 8.37410E-28
6.50353E-01 8.10958E-28
6.54508E-01 7.85586E-28
6.58652E-01 7.61239E-28
6.62784E-01 7.37865E-28
6.66903E-01 7.15413E-28
6.71010E-01 6.93839E-28
6.75104E-01 6.73096E-28
6.79184E-01 6.53144E-28
6.83251E-01 6.33944E-28
6.87303E-01 6.15458E-28
6.91342E-01 5.97651E-28
6.95366E-01 5.80490E-28
6.99375E-01 5.63944E-28
7.03368E-01 5.47982E-28
7.07347E-01 5.32578E-28
7.11309E-01 5.17704E-28
7.15256E-01 5.03335E-28
7.19186E-01 4.89449E-28
7.23099E-01 4.76022E-28
7.26995E-01 4.63034E-28
7.30874E-01 4.50464E-28
7.34736E-01 4.38294E-28
7.38579E-01 4.26505E-28
7.42405E-01 4.15082E-28
7.46212E-01 4.04007E-28
7.50000E-01 3.93267E-28
7.53769E-01 3.82846E-28
7.57519E-01 3.72731E-28
7.61249E-01 3.62910E-28
7.64960E-01 3.53370E-28
7.68650E-01 3.44099E-28
7.72320E-01 3.35088E-28
7.75968E-01 3.26325E-28
7.79596E-01 3.17801E-28
7.83203E-01 3.09506E-28
7.86788E-01 3.01433E-28
7.90351E-01 2.93572E-28
7.93893E-01 2.85915E-28
7.97411E-01 2.78456E-28
8.00908E-01 2.71187E-28
8.04381E-01 2.64102E-28
8.07831E-01 2.57193E-28
8.11257E-01 2.50456E-28
8.14660E-01 2.43883E-28
8.18039E-01 2.37470E-28
8.21394E-01 2.31212E-28
8.24724E-01 2.25103E-28
8.28030E-01 2.19138E-28
8.31310E-01 2.13314E-28
8.34565E-01 2.07626E-28
8.37795E-01 2.02069E-28
8.40999E-01 1.96641E-28
8.44177E-01 1.91336E-28
8.47329E-01 1.86152E-28
8.50455E-01 1.81085E-28
8.53553E-01 1.76132E-28
8.56625E-01 1.71290E-28
8.59670E-01 1.66556E-28
8.62687E-01 1.61927E-28
8.65677E-01 1.57400E-28
8.68639E-01 1.52973E-28
8.71572E-01 1.48643E-28
8.74478E-01 1.44407E-28
8.77355E-01 1.40264E-28
8.80203E-01 1.36212E-28
8.83022E-01 1.32247E-28
8.85812E-01 1.28369E-28
8.88573E-01 1.24575E-28
8.91304E-01 1.20863E-28
8.94005E-01 1.17232E-28
8.96677E-01 1.13679E-28
8.99318E-01 1.10203E-28
9.01928E-01 1.06803E-28
9.04508E-01 1.03477E-28
9.07058E-01 1.00223E-28
9.09576E-01 9.70398E-29
9.12063E-01 9.39264E-29
9.14519E-01 9.08812E-29
9.16943E-01 8.79029E-29
9.19335E-01 8.49902E-29
9.21696E-01 8.21420E-29
9.24024E-01 7.93571E-29
9.26320E-01 7.66344E-29
9.28584E-01 7.39727E-29
9.30815E-01 7.13710E-29
9.33013E-01 6.88283E-29
9.35178E-01 6.63437E-29
9.37310E-01 6.39160E-29
9.39409E-01 6.15446E-29
9.41474E-01 5.92283E-29
9.43505E-01 5.69665E-29
9.45503E-01 5.47581E-29
9.47467E-01 5.26026E-29
9.49397E-01 5.04989E-29
9.51293E-01 4.84465E-29
9.53154E-01 4.64446E-29
9.54981E-01 4.44924E-29
9.56773E-01 4.25893E-29
9.58530E-01 4.07347E-29
9.60252E-01 3.89278E-29
9.61940E-01 3.71680E-29
9.63592E-01 3.54549E-29
9.65209E-01 3.37877E-29
9.66790E-01 3.21659E-29
9.68336E-01 3.05891E-29
9.69846E-01 2.90566E-29
9.71321E-01 2.75679E-29
9.72759E-01 2.61226E-29
9.74162E-01 2.47203E-29
9.75528E-01 2.33603E-29
9.76858E-01 2.20424E-29
9.78152E-01 2.07661E-29
9.79410E-01 1.95310E-29
9.80631E-01 1.83366E-29
9.81815E-01 1.71827E-29
9.82963E-01 1.60689E-29
9.84074E-01 1.49947E-29
9.85148E-01 1.39599E-29
9.86185E-01 1.29642E-29
9.87185E-01 1.20073E-29
9.88148E-01 1.10888E-29
9.89074E-01 1.02085E-29
9.89962E-01 9.36610E-30
9.90814E-01 8.56137E-30
9.91627E-01 7.79406E-30
9.92404E-01 7.06393E-30
9.93143E-01 6.37077E-30
9.93844E-01 5.71438E-30
9.94508E-01 5.09455E-30
9.95134E-01 4.51110E-30
9.95722E-01 3.96387E-30
9.96273E-01 3.45269E-30
9.96786E-01 2.97740E-30
9.97261E-01 2.53788E-30
9.97698E-01 2.13398E-30
9.98097E-01 1.76560E-30
9.98459E-01 1.43263E-30
9.98782E-01 1.13496E-30
9.99067E-01 8.72518E-31
9.99315E-01 6.45220E-31
9.99524E-01 4.53003E-31
9.99695E-01 2.95810E-31
9.99829E-01 1.73595E-31
9.99924E-01 8.63250E-32
9.99981E-01 3.39727E-32
1.00000E+00 1.65239E-32
