 #
 # Subroutine ELSEPA. Elastic scattering of electrons and positrons
 #                    by neutral atoms and positive ions
 #
 # Projectile: electron
 # Kinetic energy = 5.00000E+07 eV = 1.83747E+06 a.u.
 #
 # WARNING: High-energy factorization with free-atom DF screening.
 #          Absorption, polarization and exchange corrections are
 #          switched off.
 #          Phase shifts are calculated for the bare nucleus.
 #          Scattering amplitudes are not evaluated.
 #
 # Element: Ra,  Z =  88,  atomic weight = 2.26025E+02 g/mol
 #
 # Nuclear model: Fermi distribution
 #                Average radius = 6.51783E-13 cm
 #                Skin thickness = 5.46000E-14 cm
 #
 # Number of electrons = 88
 #
 # Total elastic cross section = 1.11176E-17 cm**2 = 3.97018E-01 a0**2
 # 1st transport cross section = 5.77129E-24 cm**2 = 2.06097E-07 a0**2
 # 2nd transport cross section = 1.68955E-23 cm**2 = 6.03348E-07 a0**2
 #
 #
 # Differential cross section:                       MU=(1-COS(THETA))/2
 #
 #  THETA        MU          DCS          DCS        Sherman      error
 #  (deg)                 (cm**2/sr)   (a0**2/sr)    function
 #----------------------------------------------------------------------
0.00000E+00 3.87921E-10
7.61557E-13 3.87371E-10
1.18994E-12 3.87064E-10
1.71346E-12 3.86689E-10
2.33225E-12 3.86246E-10
3.04617E-12 3.85736E-10
3.85530E-12 3.85160E-10
4.75964E-12 3.84518E-10
5.75917E-12 3.83810E-10
6.85391E-12 3.83037E-10
8.04379E-12 3.82201E-10
9.32893E-12 3.81300E-10
1.07092E-11 3.80337E-10
1.21847E-11 3.79313E-10
1.37554E-11 3.78227E-10
1.54213E-11 3.77081E-10
1.71823E-11 3.75876E-10
1.90386E-11 3.74612E-10
2.09900E-11 3.73292E-10
2.30367E-11 3.71915E-10
2.51785E-11 3.70484E-10
2.74156E-11 3.68999E-10
2.97478E-11 3.67461E-10
3.21752E-11 3.65872E-10
3.46979E-11 3.64233E-10
3.73157E-11 3.62545E-10
4.00286E-11 3.60810E-10
4.28368E-11 3.59028E-10
4.57402E-11 3.57202E-10
4.87388E-11 3.55332E-10
5.18325E-11 3.53420E-10
5.50215E-11 3.51467E-10
5.83057E-11 3.49475E-10
6.16850E-11 3.47446E-10
6.51595E-11 3.45379E-10
6.87293E-11 3.43278E-10
7.23943E-11 3.41144E-10
7.61544E-11 3.38978E-10
1.18991E-10 3.15969E-10
1.71347E-10 2.91239E-10
2.33223E-10 2.66102E-10
3.04617E-10 2.41560E-10
3.85531E-10 2.18332E-10
4.75965E-10 1.96867E-10
5.75917E-10 1.77389E-10
6.85389E-10 1.59945E-10
8.04380E-10 1.44486E-10
9.32891E-10 1.30860E-10
1.07092E-09 1.18852E-10
1.21847E-09 1.08275E-10
1.37554E-09 9.89460E-11
1.54213E-09 9.06956E-11
1.71823E-09 8.33737E-11
1.90386E-09 7.68494E-11
2.09900E-09 7.10105E-11
2.30367E-09 6.57619E-11
2.51785E-09 6.10238E-11
2.74156E-09 5.67291E-11
2.97478E-09 5.28221E-11
3.21752E-09 4.92513E-11
3.46978E-09 4.59809E-11
3.73156E-09 4.29789E-11
4.00286E-09 4.02173E-11
4.28368E-09 3.76722E-11
4.57402E-09 3.53227E-11
4.87388E-09 3.31507E-11
5.18326E-09 3.11403E-11
5.50215E-09 2.92775E-11
5.83057E-09 2.75495E-11
6.16850E-09 2.59453E-11
6.51596E-09 2.44548E-11
6.87293E-09 2.30681E-11
7.23942E-09 2.17762E-11
7.61544E-09 2.05733E-11
1.18991E-08 1.20499E-11
1.71347E-08 7.64453E-12
2.33223E-08 5.10874E-12
3.04617E-08 3.55142E-12
3.85531E-08 2.54642E-12
4.75965E-08 1.87376E-12
5.75917E-08 1.41049E-12
6.85389E-08 1.08343E-12
8.04380E-08 8.46838E-13
9.32891E-08 6.72009E-13
1.07092E-07 5.40513E-13
1.21847E-07 4.39801E-13
1.37554E-07 3.61450E-13
1.54213E-07 2.99676E-13
1.71823E-07 2.50415E-13
1.90386E-07 2.10750E-13
2.09900E-07 1.78582E-13
2.30367E-07 1.52268E-13
2.51785E-07 1.30469E-13
2.74156E-07 1.12442E-13
2.97478E-07 9.74511E-14
3.21752E-07 8.48980E-14
3.46978E-07 7.43256E-14
3.73156E-07 6.53647E-14
4.00286E-07 5.77240E-14
4.28368E-07 5.11739E-14
4.57402E-07 4.55320E-14
4.87388E-07 4.06519E-14
5.18325E-07 3.64140E-14
5.50215E-07 3.27200E-14
5.83057E-07 2.94881E-14
6.16850E-07 2.66497E-14
6.51596E-07 2.41479E-14
6.87293E-07 2.19343E-14
7.23942E-07 1.99687E-14
7.61543E-07 1.82187E-14
1.18991E-06 8.05058E-15
1.71347E-06 4.10128E-15
2.33223E-06 2.30657E-15
3.04617E-06 1.39428E-15
3.85531E-06 8.91126E-16
4.75964E-06 5.95520E-16
5.75916E-06 4.12807E-16
6.85388E-06 2.95155E-16
8.04378E-06 2.16650E-16
9.32888E-06 1.62629E-16
1.07092E-05 1.24468E-16
1.21846E-05 9.68854E-17
1.37553E-05 7.65403E-17
1.54212E-05 6.12650E-17
1.71822E-05 4.96164E-17
1.90385E-05 4.05804E-17
2.09899E-05 3.35557E-17
2.30365E-05 2.79801E-17
2.51783E-05 2.35067E-17
2.74153E-05 1.98854E-17
2.97475E-05 1.69319E-17
3.21749E-05 1.45066E-17
3.46974E-05 1.25014E-17
3.73152E-05 1.08326E-17
4.00281E-05 9.43428E-18
4.28362E-05 8.25500E-18
4.57395E-05 7.25426E-18
4.87380E-05 6.40037E-18
5.18317E-05 5.66814E-18
5.50205E-05 5.03746E-18
5.83045E-05 4.49206E-18
6.16838E-05 4.01861E-18
6.51582E-05 3.60607E-18
6.87277E-05 3.24529E-18
7.23925E-05 2.92862E-18
7.61524E-05 2.64836E-18
9.21439E-05 1.81639E-18
1.09658E-04 1.28713E-18
1.28695E-04 9.37515E-19
1.49255E-04 6.99024E-19
1.71338E-04 5.31832E-19
1.94942E-04 4.11814E-19
2.20070E-04 3.23849E-19
2.46720E-04 2.58187E-19
2.74892E-04 2.08375E-19
3.04586E-04 1.70028E-19
3.35803E-04 1.40123E-19
3.68542E-04 1.16520E-19
4.02802E-04 9.76923E-20
4.38585E-04 8.25248E-20
4.75889E-04 7.01943E-20
5.14715E-04 6.00883E-20
5.55063E-04 5.17406E-20
5.96931E-04 4.47970E-20
6.40321E-04 3.89829E-20
6.85233E-04 3.40845E-20
7.31665E-04 2.99342E-20
7.79618E-04 2.63985E-20
8.29092E-04 2.33716E-20
8.80086E-04 2.07678E-20
9.32601E-04 1.85180E-20
9.86636E-04 1.65660E-20
1.04219E-03 1.48655E-20
1.09927E-03 1.33787E-20
1.15786E-03 1.20740E-20
1.21797E-03 1.09253E-20
1.27961E-03 9.91063E-21
1.34276E-03 9.01169E-21
1.40743E-03 8.21297E-21
1.47362E-03 7.50127E-21
1.54133E-03 6.86548E-21
1.61056E-03 6.29605E-21
1.68131E-03 5.78482E-21
1.75357E-03 5.32476E-21
1.82735E-03 4.90985E-21
1.90265E-03 4.53487E-21
1.97947E-03 4.19525E-21
2.05780E-03 3.88707E-21
2.13765E-03 3.60690E-21
2.21902E-03 3.35172E-21
2.30190E-03 3.11888E-21
2.38630E-03 2.90608E-21
2.47222E-03 2.71129E-21
2.55965E-03 2.53268E-21
2.64859E-03 2.36866E-21
2.73905E-03 2.21784E-21
2.83103E-03 2.07894E-21
2.92452E-03 1.95085E-21
3.01952E-03 1.83257E-21
3.11604E-03 1.72321E-21
3.21407E-03 1.62196E-21
3.31362E-03 1.52812E-21
3.41468E-03 1.44104E-21
3.51725E-03 1.36014E-21
3.62133E-03 1.28490E-21
3.72692E-03 1.21485E-21
3.83403E-03 1.14956E-21
3.94265E-03 1.08864E-21
4.05278E-03 1.03176E-21
4.16442E-03 9.78582E-22
4.27757E-03 9.28828E-22
4.39223E-03 8.82238E-22
4.50840E-03 8.38563E-22
4.62608E-03 7.97592E-22
4.74527E-03 7.59125E-22
4.86597E-03 7.22976E-22
4.98817E-03 6.88981E-22
5.11188E-03 6.56987E-22
5.23711E-03 6.26851E-22
5.36383E-03 5.98446E-22
5.49207E-03 5.71653E-22
5.62181E-03 5.46362E-22
5.75306E-03 5.22473E-22
5.88581E-03 4.99892E-22
6.02007E-03 4.78535E-22
6.15583E-03 4.58321E-22
6.29310E-03 4.39178E-22
6.43187E-03 4.21037E-22
6.57214E-03 4.03837E-22
6.71392E-03 3.87517E-22
6.85720E-03 3.72025E-22
7.00198E-03 3.57311E-22
7.14827E-03 3.43326E-22
7.29605E-03 3.30029E-22
7.44534E-03 3.17378E-22
7.59612E-03 3.05336E-22
7.97965E-03 2.77670E-22
8.37255E-03 2.53107E-22
8.77480E-03 2.31237E-22
9.18641E-03 2.11709E-22
9.60736E-03 1.94227E-22
1.00376E-02 1.78537E-22
1.04773E-02 1.64424E-22
1.09262E-02 1.51702E-22
1.13844E-02 1.40186E-22
1.18520E-02 1.29756E-22
1.23288E-02 1.20288E-22
1.28150E-02 1.11679E-22
1.33104E-02 1.03834E-22
1.38150E-02 9.66730E-23
1.43290E-02 9.01251E-23
1.48521E-02 8.41275E-23
1.53845E-02 7.86251E-23
1.59262E-02 7.35691E-23
1.64770E-02 6.89162E-23
1.70371E-02 6.46282E-23
1.76063E-02 6.06707E-23
1.81848E-02 5.70134E-23
1.87724E-02 5.36291E-23
1.93692E-02 5.04935E-23
1.99751E-02 4.75846E-23
2.05901E-02 4.48829E-23
2.12143E-02 4.23707E-23
2.18476E-02 4.00322E-23
2.24900E-02 3.78529E-23
2.31415E-02 3.58200E-23
2.38021E-02 3.39216E-23
2.44717E-02 3.21471E-23
2.51504E-02 3.04869E-23
2.58382E-02 2.89321E-23
2.65349E-02 2.74747E-23
2.72407E-02 2.61075E-23
2.79555E-02 2.48237E-23
2.86793E-02 2.36173E-23
2.94120E-02 2.24827E-23
3.01537E-02 2.14148E-23
3.09043E-02 2.04089E-23
3.16639E-02 1.94607E-23
3.24324E-02 1.85662E-23
3.32098E-02 1.77219E-23
3.39961E-02 1.69243E-23
3.47912E-02 1.61704E-23
3.55952E-02 1.54572E-23
3.64081E-02 1.47823E-23
3.72297E-02 1.41431E-23
3.80602E-02 1.35374E-23
3.88995E-02 1.29630E-23
3.97476E-02 1.24181E-23
4.06044E-02 1.19009E-23
4.14700E-02 1.14097E-23
4.23443E-02 1.09428E-23
4.32273E-02 1.04990E-23
4.41190E-02 1.00768E-23
4.50194E-02 9.67497E-24
4.59284E-02 9.29236E-24
4.68461E-02 8.92787E-24
4.87074E-02 8.24925E-24
5.06030E-02 7.63172E-24
5.25328E-02 7.06882E-24
5.44967E-02 6.55489E-24
5.64946E-02 6.08492E-24
5.85262E-02 5.65450E-24
6.05914E-02 5.25974E-24
6.26901E-02 4.89719E-24
6.48222E-02 4.56378E-24
6.69873E-02 4.25676E-24
6.91854E-02 3.97372E-24
7.14163E-02 3.71247E-24
7.36799E-02 3.47105E-24
7.59760E-02 3.24773E-24
7.83043E-02 3.04092E-24
8.06647E-02 2.84922E-24
8.30571E-02 2.67135E-24
8.54812E-02 2.50616E-24
8.79369E-02 2.35261E-24
9.04240E-02 2.20974E-24
9.29422E-02 2.07672E-24
9.54915E-02 1.95275E-24
9.80716E-02 1.83714E-24
1.00682E-01 1.72924E-24
1.03323E-01 1.62846E-24
1.05995E-01 1.53426E-24
1.08696E-01 1.44617E-24
1.11427E-01 1.36372E-24
1.14188E-01 1.28651E-24
1.16978E-01 1.21415E-24
1.19797E-01 1.14632E-24
1.22645E-01 1.08268E-24
1.25522E-01 1.02294E-24
1.28428E-01 9.66838E-25
1.31361E-01 9.14122E-25
1.34323E-01 8.64564E-25
1.37313E-01 8.17951E-25
1.40330E-01 7.74088E-25
1.43375E-01 7.32795E-25
1.46447E-01 6.93902E-25
1.49545E-01 6.57256E-25
1.52671E-01 6.22713E-25
1.55823E-01 5.90138E-25
1.59001E-01 5.59408E-25
1.62205E-01 5.30407E-25
1.65435E-01 5.03028E-25
1.68690E-01 4.77172E-25
1.71970E-01 4.52744E-25
1.75276E-01 4.29660E-25
1.78606E-01 4.07838E-25
1.81961E-01 3.87202E-25
1.85340E-01 3.67682E-25
1.88743E-01 3.49213E-25
1.92169E-01 3.31732E-25
1.95619E-01 3.15184E-25
1.99092E-01 2.99512E-25
2.02589E-01 2.84668E-25
2.06107E-01 2.70605E-25
2.09649E-01 2.57277E-25
2.13212E-01 2.44643E-25
2.16797E-01 2.32665E-25
2.20404E-01 2.21306E-25
2.24032E-01 2.10532E-25
2.27680E-01 2.00310E-25
2.31350E-01 1.90610E-25
2.35040E-01 1.81404E-25
2.38751E-01 1.72665E-25
2.42481E-01 1.64368E-25
2.46231E-01 1.56488E-25
2.50000E-01 1.49005E-25
2.53788E-01 1.41896E-25
2.57595E-01 1.35141E-25
2.61421E-01 1.28723E-25
2.65264E-01 1.22623E-25
2.69126E-01 1.16824E-25
2.73005E-01 1.11312E-25
2.76901E-01 1.06071E-25
2.80814E-01 1.01087E-25
2.84744E-01 9.63464E-26
2.88691E-01 9.18376E-26
2.92653E-01 8.75483E-26
2.96632E-01 8.34674E-26
3.00625E-01 7.95844E-26
3.04634E-01 7.58891E-26
3.08658E-01 7.23721E-26
3.12697E-01 6.90245E-26
3.16749E-01 6.58378E-26
3.20816E-01 6.28039E-26
3.24896E-01 5.99152E-26
3.28990E-01 5.71646E-26
3.33097E-01 5.45451E-26
3.37216E-01 5.20503E-26
3.41348E-01 4.96741E-26
3.45492E-01 4.74105E-26
3.49647E-01 4.52542E-26
3.53814E-01 4.31998E-26
3.57992E-01 4.12424E-26
3.62181E-01 3.93772E-26
3.66381E-01 3.75999E-26
3.70590E-01 3.59060E-26
3.74810E-01 3.42916E-26
3.79039E-01 3.27529E-26
3.83277E-01 3.12861E-26
3.87524E-01 2.98879E-26
3.91780E-01 2.85549E-26
3.96044E-01 2.72840E-26
4.00316E-01 2.60723E-26
4.04596E-01 2.49169E-26
4.08882E-01 2.38151E-26
4.13176E-01 2.27644E-26
4.17476E-01 2.17624E-26
4.21783E-01 2.08067E-26
4.26095E-01 1.98951E-26
4.30413E-01 1.90256E-26
4.34737E-01 1.81961E-26
4.39065E-01 1.74048E-26
4.43398E-01 1.66499E-26
4.47736E-01 1.59297E-26
4.52077E-01 1.52424E-26
4.56422E-01 1.45867E-26
4.60770E-01 1.39609E-26
4.65122E-01 1.33637E-26
4.69476E-01 1.27938E-26
4.73832E-01 1.22498E-26
4.78190E-01 1.17306E-26
4.82550E-01 1.12350E-26
4.86912E-01 1.07618E-26
4.91274E-01 1.03102E-26
4.95637E-01 9.87894E-27
5.00000E-01 9.46720E-27
5.04363E-01 9.07404E-27
5.08726E-01 8.69860E-27
5.13088E-01 8.34006E-27
5.17450E-01 7.99763E-27
5.21810E-01 7.67056E-27
5.26168E-01 7.35813E-27
5.30524E-01 7.05968E-27
5.34878E-01 6.77455E-27
5.39230E-01 6.50212E-27
5.43578E-01 6.24180E-27
5.47923E-01 5.99304E-27
5.52264E-01 5.75530E-27
5.56602E-01 5.52807E-27
5.60935E-01 5.31086E-27
5.65263E-01 5.10322E-27
5.69587E-01 4.90469E-27
5.73905E-01 4.71487E-27
5.78217E-01 4.53334E-27
5.82524E-01 4.35972E-27
5.86824E-01 4.19366E-27
5.91118E-01 4.03480E-27
5.95404E-01 3.88281E-27
5.99684E-01 3.73738E-27
6.03956E-01 3.59819E-27
6.08220E-01 3.46498E-27
6.12476E-01 3.33746E-27
6.16723E-01 3.21536E-27
6.20961E-01 3.09845E-27
6.25190E-01 2.98649E-27
6.29410E-01 2.87924E-27
6.33619E-01 2.77649E-27
6.37819E-01 2.67804E-27
6.42008E-01 2.58369E-27
6.46186E-01 2.49325E-27
6.50353E-01 2.40654E-27
6.54508E-01 2.32340E-27
6.58652E-01 2.24365E-27
6.62784E-01 2.16716E-27
6.66903E-01 2.09376E-27
6.71010E-01 2.02332E-27
6.75104E-01 1.95570E-27
6.79184E-01 1.89078E-27
6.83251E-01 1.82843E-27
6.87303E-01 1.76854E-27
6.91342E-01 1.71100E-27
6.95366E-01 1.65569E-27
6.99375E-01 1.60253E-27
7.03368E-01 1.55141E-27
7.07347E-01 1.50224E-27
7.11309E-01 1.45494E-27
7.15256E-01 1.40942E-27
7.19186E-01 1.36559E-27
7.23099E-01 1.32340E-27
7.26995E-01 1.28276E-27
7.30874E-01 1.24360E-27
7.34736E-01 1.20587E-27
7.38579E-01 1.16949E-27
7.42405E-01 1.13440E-27
7.46212E-01 1.10056E-27
7.50000E-01 1.06791E-27
7.53769E-01 1.03639E-27
7.57519E-01 1.00595E-27
7.61249E-01 9.76553E-28
7.64960E-01 9.48149E-28
7.68650E-01 9.20697E-28
7.72320E-01 8.94154E-28
7.75968E-01 8.68483E-28
7.79596E-01 8.43647E-28
7.83203E-01 8.19610E-28
7.86788E-01 7.96340E-28
7.90351E-01 7.73803E-28
7.93893E-01 7.51969E-28
7.97411E-01 7.30810E-28
8.00908E-01 7.10298E-28
8.04381E-01 6.90406E-28
8.07831E-01 6.71109E-28
8.11257E-01 6.52384E-28
8.14660E-01 6.34207E-28
8.18039E-01 6.16556E-28
8.21394E-01 5.99412E-28
8.24724E-01 5.82753E-28
8.28030E-01 5.66562E-28
8.31310E-01 5.50820E-28
8.34565E-01 5.35511E-28
8.37795E-01 5.20617E-28
8.40999E-01 5.06124E-28
8.44177E-01 4.92016E-28
8.47329E-01 4.78280E-28
8.50455E-01 4.64903E-28
8.53553E-01 4.51870E-28
8.56625E-01 4.39170E-28
8.59670E-01 4.26792E-28
8.62687E-01 4.14725E-28
8.65677E-01 4.02957E-28
8.68639E-01 3.91479E-28
8.71572E-01 3.80281E-28
8.74478E-01 3.69354E-28
8.77355E-01 3.58689E-28
8.80203E-01 3.48279E-28
8.83022E-01 3.38114E-28
8.85812E-01 3.28189E-28
8.88573E-01 3.18494E-28
8.91304E-01 3.09025E-28
8.94005E-01 2.99773E-28
8.96677E-01 2.90734E-28
8.99318E-01 2.81900E-28
9.01928E-01 2.73267E-28
9.04508E-01 2.64829E-28
9.07058E-01 2.56580E-28
9.09576E-01 2.48517E-28
9.12063E-01 2.40634E-28
9.14519E-01 2.32927E-28
9.16943E-01 2.25392E-28
9.19335E-01 2.18024E-28
9.21696E-01 2.10820E-28
9.24024E-01 2.03777E-28
9.26320E-01 1.96890E-28
9.28584E-01 1.90157E-28
9.30815E-01 1.83574E-28
9.33013E-01 1.77138E-28
9.35178E-01 1.70847E-28
9.37310E-01 1.64697E-28
9.39409E-01 1.58687E-28
9.41474E-01 1.52813E-28
9.43505E-01 1.47074E-28
9.45503E-01 1.41466E-28
9.47467E-01 1.35989E-28
9.49397E-01 1.30639E-28
9.51293E-01 1.25415E-28
9.53154E-01 1.20315E-28
9.54981E-01 1.15338E-28
9.56773E-01 1.10481E-28
9.58530E-01 1.05743E-28
9.60252E-01 1.01123E-28
9.61940E-01 9.66184E-29
9.63592E-01 9.22288E-29
9.65209E-01 8.79525E-29
9.66790E-01 8.37883E-29
9.68336E-01 7.97350E-29
9.69846E-01 7.57915E-29
9.71321E-01 7.19567E-29
9.72759E-01 6.82296E-29
9.74162E-01 6.46092E-29
9.75528E-01 6.10945E-29
9.76858E-01 5.76848E-29
9.78152E-01 5.43791E-29
9.79410E-01 5.11766E-29
9.80631E-01 4.80767E-29
9.81815E-01 4.50785E-29
9.82963E-01 4.21815E-29
9.84074E-01 3.93849E-29
9.85148E-01 3.66882E-29
9.86185E-01 3.40907E-29
9.87185E-01 3.15920E-29
9.88148E-01 2.91914E-29
9.89074E-01 2.68886E-29
9.89962E-01 2.46830E-29
9.90814E-01 2.25742E-29
9.91627E-01 2.05618E-29
9.92404E-01 1.86454E-29
9.93143E-01 1.68247E-29
9.93844E-01 1.50993E-29
9.94508E-01 1.34688E-29
9.95134E-01 1.19331E-29
9.95722E-01 1.04917E-29
9.96273E-01 9.14454E-30
9.96786E-01 7.89125E-30
9.97261E-01 6.73166E-30
9.97698E-01 5.66556E-30
9.98097E-01 4.69277E-30
9.98459E-01 3.81312E-30
9.98782E-01 3.02645E-30
9.99067E-01 2.33265E-30
9.99315E-01 1.73158E-30
9.99524E-01 1.22316E-30
9.99695E-01 8.07288E-31
9.99829E-01 4.83906E-31
9.99924E-01 2.52957E-31
9.99981E-01 1.14402E-31
1.00000E+00 6.82205E-32
