 #
 # Subroutine ELSEPA. Elastic scattering of electrons and positrons
 #                    by neutral atoms and positive ions
 #
 # Projectile: electron
 # Kinetic energy = 3.50000E+06 eV = 1.28623E+05 a.u.
 #
 # WARNING: High-energy factorization with free-atom DF screening.
 #          Absorption, polarization and exchange corrections are
 #          switched off.
 #          Phase shifts are calculated for the bare nucleus.
 #          Scattering amplitudes are not evaluated.
 #
 # Element: Ra,  Z =  88,  atomic weight = 2.26025E+02 g/mol
 #
 # Nuclear model: Fermi distribution
 #                Average radius = 6.51783E-13 cm
 #                Skin thickness = 5.46000E-14 cm
 #
 # Number of electrons = 88
 #
 # Total elastic cross section = 1.13184E-17 cm**2 = 4.04188E-01 a0**2
 # 1st transport cross section = 8.01250E-22 cm**2 = 2.86131E-05 a0**2
 # 2nd transport cross section = 2.09759E-21 cm**2 = 7.49061E-05 a0**2
 #
 #
 # Differential cross section:                       MU=(1-COS(THETA))/2
 #
 #  THETA        MU          DCS          DCS        Sherman      error
 #  (deg)                 (cm**2/sr)   (a0**2/sr)    function
 #----------------------------------------------------------------------
0.00000E+00 2.44611E-12
7.61557E-13 2.44609E-12
1.18994E-12 2.44608E-12
1.71346E-12 2.44606E-12
2.33225E-12 2.44605E-12
3.04617E-12 2.44603E-12
3.85530E-12 2.44600E-12
4.75964E-12 2.44598E-12
5.75917E-12 2.44595E-12
6.85391E-12 2.44592E-12
8.04379E-12 2.44589E-12
9.32893E-12 2.44585E-12
1.07092E-11 2.44581E-12
1.21847E-11 2.44577E-12
1.37554E-11 2.44573E-12
1.54213E-11 2.44568E-12
1.71823E-11 2.44563E-12
1.90386E-11 2.44558E-12
2.09900E-11 2.44552E-12
2.30367E-11 2.44547E-12
2.51785E-11 2.44541E-12
2.74156E-11 2.44534E-12
2.97478E-11 2.44528E-12
3.21752E-11 2.44521E-12
3.46979E-11 2.44514E-12
3.73157E-11 2.44507E-12
4.00286E-11 2.44499E-12
4.28368E-11 2.44491E-12
4.57402E-11 2.44483E-12
4.87388E-11 2.44474E-12
5.18325E-11 2.44466E-12
5.50215E-11 2.44457E-12
5.83057E-11 2.44448E-12
6.16850E-11 2.44438E-12
6.51595E-11 2.44428E-12
6.87293E-11 2.44418E-12
7.23943E-11 2.44408E-12
7.61544E-11 2.44398E-12
1.18991E-10 2.44277E-12
1.71347E-10 2.44131E-12
2.33223E-10 2.43957E-12
3.04617E-10 2.43758E-12
3.85531E-10 2.43532E-12
4.75965E-10 2.43280E-12
5.75917E-10 2.43001E-12
6.85389E-10 2.42697E-12
8.04380E-10 2.42367E-12
9.32891E-10 2.42012E-12
1.07092E-09 2.41631E-12
1.21847E-09 2.41225E-12
1.37554E-09 2.40794E-12
1.54213E-09 2.40339E-12
1.71823E-09 2.39859E-12
1.90386E-09 2.39354E-12
2.09900E-09 2.38826E-12
2.30367E-09 2.38274E-12
2.51785E-09 2.37699E-12
2.74156E-09 2.37100E-12
2.97478E-09 2.36479E-12
3.21752E-09 2.35835E-12
3.46978E-09 2.35169E-12
3.73156E-09 2.34481E-12
4.00286E-09 2.33772E-12
4.28368E-09 2.33042E-12
4.57402E-09 2.32291E-12
4.87388E-09 2.31520E-12
5.18326E-09 2.30728E-12
5.50215E-09 2.29917E-12
5.83057E-09 2.29087E-12
6.16850E-09 2.28238E-12
6.51596E-09 2.27371E-12
6.87293E-09 2.26485E-12
7.23942E-09 2.25582E-12
7.61544E-09 2.24662E-12
1.18991E-08 2.14613E-12
1.71347E-08 2.03389E-12
2.33223E-08 1.91281E-12
3.04617E-08 1.78859E-12
3.85531E-08 1.66423E-12
4.75965E-08 1.54203E-12
5.75917E-08 1.42437E-12
6.85389E-08 1.31443E-12
8.04380E-08 1.21136E-12
9.32891E-08 1.11572E-12
1.07092E-07 1.02838E-12
1.21847E-07 9.49113E-13
1.37554E-07 8.76807E-13
1.54213E-07 8.11123E-13
1.71823E-07 7.52171E-13
1.90386E-07 6.98730E-13
2.09900E-07 6.50217E-13
2.30367E-07 6.06254E-13
2.51785E-07 5.66467E-13
2.74156E-07 5.30152E-13
2.97478E-07 4.96982E-13
3.21752E-07 4.66657E-13
3.46978E-07 4.38804E-13
3.73156E-07 4.13164E-13
4.00286E-07 3.89529E-13
4.28368E-07 3.67618E-13
4.57402E-07 3.47301E-13
4.87388E-07 3.28447E-13
5.18325E-07 3.10893E-13
5.50215E-07 2.94465E-13
5.83057E-07 2.79142E-13
6.16850E-07 2.64834E-13
6.51596E-07 2.51389E-13
6.87293E-07 2.38767E-13
7.23942E-07 2.26943E-13
7.61543E-07 2.15854E-13
1.18991E-06 1.34454E-13
1.71347E-06 8.72080E-14
2.33223E-06 6.01362E-14
3.04617E-06 4.26394E-14
3.85531E-06 3.11866E-14
4.75964E-06 2.34414E-14
5.75916E-06 1.79835E-14
6.85388E-06 1.39576E-14
8.04378E-06 1.10293E-14
9.32888E-06 8.84753E-15
1.07092E-05 7.17838E-15
1.21846E-05 5.88587E-15
1.37553E-05 4.88051E-15
1.54212E-05 4.08647E-15
1.71822E-05 3.44394E-15
1.90385E-05 2.92228E-15
2.09899E-05 2.50079E-15
2.30365E-05 2.15194E-15
2.51783E-05 1.85872E-15
2.74153E-05 1.61356E-15
2.97475E-05 1.40730E-15
3.21749E-05 1.23200E-15
3.46974E-05 1.08321E-15
3.73152E-05 9.56154E-16
4.00281E-05 8.46801E-16
4.28362E-05 7.52346E-16
4.57395E-05 6.70911E-16
4.87380E-05 6.00379E-16
5.18317E-05 5.38953E-16
5.50205E-05 4.85160E-16
5.83045E-05 4.38032E-16
6.16838E-05 3.96590E-16
6.51582E-05 3.59922E-16
6.87277E-05 3.27421E-16
7.23925E-05 2.98565E-16
7.61524E-05 2.72857E-16
9.21439E-05 1.94079E-16
1.09658E-04 1.42002E-16
1.28695E-04 1.06345E-16
1.49255E-04 8.11920E-17
1.71338E-04 6.31076E-17
1.94942E-04 4.97894E-17
2.20070E-04 3.98382E-17
2.46720E-04 3.22723E-17
2.74892E-04 2.64126E-17
3.04586E-04 2.18322E-17
3.35803E-04 1.82107E-17
3.68542E-04 1.53117E-17
4.02802E-04 1.29629E-17
4.38585E-04 1.10500E-17
4.75889E-04 9.47832E-18
5.14715E-04 8.17468E-18
5.55063E-04 7.08685E-18
5.96931E-04 6.17464E-18
6.40321E-04 5.40480E-18
6.85233E-04 4.75017E-18
7.31665E-04 4.19203E-18
7.79618E-04 3.71375E-18
8.29092E-04 3.30181E-18
8.80086E-04 2.94528E-18
9.32601E-04 2.63584E-18
9.86636E-04 2.36619E-18
1.04219E-03 2.13014E-18
1.09927E-03 1.92290E-18
1.15786E-03 1.74041E-18
1.21797E-03 1.57919E-18
1.27961E-03 1.43619E-18
1.34276E-03 1.30912E-18
1.40743E-03 1.19588E-18
1.47362E-03 1.09468E-18
1.54133E-03 1.00397E-18
1.61056E-03 9.22524E-19
1.68131E-03 8.49225E-19
1.75357E-03 7.83064E-19
1.82735E-03 7.23248E-19
1.90265E-03 6.69070E-19
1.97947E-03 6.19896E-19
2.05780E-03 5.75150E-19
2.13765E-03 5.34392E-19
2.21902E-03 4.97201E-19
2.30190E-03 4.63194E-19
2.38630E-03 4.32048E-19
2.47222E-03 4.03491E-19
2.55965E-03 3.77266E-19
2.64859E-03 3.53133E-19
2.73905E-03 3.30908E-19
2.83103E-03 3.10412E-19
2.92452E-03 2.91483E-19
3.01952E-03 2.73975E-19
3.11604E-03 2.57768E-19
3.21407E-03 2.42748E-19
3.31362E-03 2.28807E-19
3.41468E-03 2.15855E-19
3.51725E-03 2.03811E-19
3.62133E-03 1.92599E-19
3.72692E-03 1.82148E-19
3.83403E-03 1.72399E-19
3.94265E-03 1.63298E-19
4.05278E-03 1.54792E-19
4.16442E-03 1.46833E-19
4.27757E-03 1.39382E-19
4.39223E-03 1.32401E-19
4.50840E-03 1.25853E-19
4.62608E-03 1.19706E-19
4.74527E-03 1.13933E-19
4.86597E-03 1.08505E-19
4.98817E-03 1.03398E-19
5.11188E-03 9.85901E-20
5.23711E-03 9.40603E-20
5.36383E-03 8.97891E-20
5.49207E-03 8.57589E-20
5.62181E-03 8.19541E-20
5.75306E-03 7.83597E-20
5.88581E-03 7.49611E-20
6.02007E-03 7.17463E-20
6.15583E-03 6.87035E-20
6.29310E-03 6.58216E-20
6.43187E-03 6.30902E-20
6.57214E-03 6.05003E-20
6.71392E-03 5.80434E-20
6.85720E-03 5.57108E-20
7.00198E-03 5.34952E-20
7.14827E-03 5.13899E-20
7.29605E-03 4.93882E-20
7.44534E-03 4.74838E-20
7.59612E-03 4.56713E-20
7.97965E-03 4.15082E-20
8.37255E-03 3.78138E-20
8.77480E-03 3.45258E-20
9.18641E-03 3.15916E-20
9.60736E-03 2.89664E-20
1.00376E-02 2.66118E-20
1.04773E-02 2.44950E-20
1.09262E-02 2.25874E-20
1.13844E-02 2.08647E-20
1.18520E-02 1.93058E-20
1.23288E-02 1.78921E-20
1.28150E-02 1.66077E-20
1.33104E-02 1.54385E-20
1.38150E-02 1.43723E-20
1.43290E-02 1.33984E-20
1.48521E-02 1.25071E-20
1.53845E-02 1.16903E-20
1.59262E-02 1.09406E-20
1.64770E-02 1.02513E-20
1.70371E-02 9.61672E-21
1.76063E-02 9.03168E-21
1.81848E-02 8.49153E-21
1.87724E-02 7.99216E-21
1.93692E-02 7.52995E-21
1.99751E-02 7.10159E-21
2.05901E-02 6.70408E-21
2.12143E-02 6.33480E-21
2.18476E-02 5.99137E-21
2.24900E-02 5.67160E-21
2.31415E-02 5.37353E-21
2.38021E-02 5.09543E-21
2.44717E-02 4.83569E-21
2.51504E-02 4.59284E-21
2.58382E-02 4.36558E-21
2.65349E-02 4.15270E-21
2.72407E-02 3.95313E-21
2.79555E-02 3.76583E-21
2.86793E-02 3.58993E-21
2.94120E-02 3.42459E-21
3.01537E-02 3.26904E-21
3.09043E-02 3.12258E-21
3.16639E-02 2.98458E-21
3.24324E-02 2.85445E-21
3.32098E-02 2.73164E-21
3.39961E-02 2.61566E-21
3.47912E-02 2.50605E-21
3.55952E-02 2.40240E-21
3.64081E-02 2.30430E-21
3.72297E-02 2.21140E-21
3.80602E-02 2.12337E-21
3.88995E-02 2.03989E-21
3.97476E-02 1.96069E-21
4.06044E-02 1.88549E-21
4.14700E-02 1.81406E-21
4.23443E-02 1.74616E-21
4.32273E-02 1.68158E-21
4.41190E-02 1.62013E-21
4.50194E-02 1.56161E-21
4.59284E-02 1.50587E-21
4.68461E-02 1.45274E-21
4.87074E-02 1.35372E-21
5.06030E-02 1.26348E-21
5.25328E-02 1.18109E-21
5.44967E-02 1.10572E-21
5.64946E-02 1.03663E-21
5.85262E-02 9.73214E-22
6.05914E-02 9.14890E-22
6.26901E-02 8.61165E-22
6.48222E-02 8.11599E-22
6.69873E-02 7.65799E-22
6.91854E-02 7.23417E-22
7.14163E-02 6.84140E-22
7.36799E-02 6.47693E-22
7.59760E-02 6.13824E-22
7.83043E-02 5.82311E-22
8.06647E-02 5.52952E-22
8.30571E-02 5.25567E-22
8.54812E-02 4.99993E-22
8.79369E-02 4.76081E-22
9.04240E-02 4.53699E-22
9.29422E-02 4.32727E-22
9.54915E-02 4.13054E-22
9.80716E-02 3.94580E-22
1.00682E-01 3.77216E-22
1.03323E-01 3.60879E-22
1.05995E-01 3.45493E-22
1.08696E-01 3.30989E-22
1.11427E-01 3.17305E-22
1.14188E-01 3.04383E-22
1.16978E-01 2.92169E-22
1.19797E-01 2.80616E-22
1.22645E-01 2.69679E-22
1.25522E-01 2.59316E-22
1.28428E-01 2.49491E-22
1.31361E-01 2.40167E-22
1.34323E-01 2.31313E-22
1.37313E-01 2.22899E-22
1.40330E-01 2.14898E-22
1.43375E-01 2.07284E-22
1.46447E-01 2.00033E-22
1.49545E-01 1.93124E-22
1.52671E-01 1.86537E-22
1.55823E-01 1.80251E-22
1.59001E-01 1.74251E-22
1.62205E-01 1.68520E-22
1.65435E-01 1.63041E-22
1.68690E-01 1.57802E-22
1.71970E-01 1.52788E-22
1.75276E-01 1.47988E-22
1.78606E-01 1.43390E-22
1.81961E-01 1.38984E-22
1.85340E-01 1.34758E-22
1.88743E-01 1.30704E-22
1.92169E-01 1.26813E-22
1.95619E-01 1.23076E-22
1.99092E-01 1.19485E-22
2.02589E-01 1.16034E-22
2.06107E-01 1.12715E-22
2.09649E-01 1.09522E-22
2.13212E-01 1.06448E-22
2.16797E-01 1.03489E-22
2.20404E-01 1.00638E-22
2.24032E-01 9.78911E-23
2.27680E-01 9.52426E-23
2.31350E-01 9.26880E-23
2.35040E-01 9.02234E-23
2.38751E-01 8.78445E-23
2.42481E-01 8.55474E-23
2.46231E-01 8.33288E-23
2.50000E-01 8.11851E-23
2.53788E-01 7.91130E-23
2.57595E-01 7.71094E-23
2.61421E-01 7.51716E-23
2.65264E-01 7.32966E-23
2.69126E-01 7.14818E-23
2.73005E-01 6.97248E-23
2.76901E-01 6.80232E-23
2.80814E-01 6.63747E-23
2.84744E-01 6.47772E-23
2.88691E-01 6.32287E-23
2.92653E-01 6.17273E-23
2.96632E-01 6.02711E-23
3.00625E-01 5.88583E-23
3.04634E-01 5.74873E-23
3.08658E-01 5.61565E-23
3.12697E-01 5.48644E-23
3.16749E-01 5.36094E-23
3.20816E-01 5.23903E-23
3.24896E-01 5.12057E-23
3.28990E-01 5.00544E-23
3.33097E-01 4.89351E-23
3.37216E-01 4.78468E-23
3.41348E-01 4.67883E-23
3.45492E-01 4.57586E-23
3.49647E-01 4.47566E-23
3.53814E-01 4.37813E-23
3.57992E-01 4.28320E-23
3.62181E-01 4.19076E-23
3.66381E-01 4.10073E-23
3.70590E-01 4.01304E-23
3.74810E-01 3.92761E-23
3.79039E-01 3.84435E-23
3.83277E-01 3.76321E-23
3.87524E-01 3.68410E-23
3.91780E-01 3.60698E-23
3.96044E-01 3.53176E-23
4.00316E-01 3.45839E-23
4.04596E-01 3.38682E-23
4.08882E-01 3.31698E-23
4.13176E-01 3.24882E-23
4.17476E-01 3.18229E-23
4.21783E-01 3.11734E-23
4.26095E-01 3.05393E-23
4.30413E-01 2.99200E-23
4.34737E-01 2.93152E-23
4.39065E-01 2.87243E-23
4.43398E-01 2.81471E-23
4.47736E-01 2.75830E-23
4.52077E-01 2.70317E-23
4.56422E-01 2.64928E-23
4.60770E-01 2.59660E-23
4.65122E-01 2.54509E-23
4.69476E-01 2.49472E-23
4.73832E-01 2.44546E-23
4.78190E-01 2.39727E-23
4.82550E-01 2.35014E-23
4.86912E-01 2.30402E-23
4.91274E-01 2.25889E-23
4.95637E-01 2.21473E-23
5.00000E-01 2.17150E-23
5.04363E-01 2.12919E-23
5.08726E-01 2.08776E-23
5.13088E-01 2.04720E-23
5.17450E-01 2.00748E-23
5.21810E-01 1.96858E-23
5.26168E-01 1.93048E-23
5.30524E-01 1.89316E-23
5.34878E-01 1.85660E-23
5.39230E-01 1.82078E-23
5.43578E-01 1.78568E-23
5.47923E-01 1.75128E-23
5.52264E-01 1.71757E-23
5.56602E-01 1.68453E-23
5.60935E-01 1.65213E-23
5.65263E-01 1.62038E-23
5.69587E-01 1.58924E-23
5.73905E-01 1.55871E-23
5.78217E-01 1.52877E-23
5.82524E-01 1.49941E-23
5.86824E-01 1.47061E-23
5.91118E-01 1.44236E-23
5.95404E-01 1.41465E-23
5.99684E-01 1.38747E-23
6.03956E-01 1.36080E-23
6.08220E-01 1.33463E-23
6.12476E-01 1.30895E-23
6.16723E-01 1.28375E-23
6.20961E-01 1.25901E-23
6.25190E-01 1.23473E-23
6.29410E-01 1.21090E-23
6.33619E-01 1.18751E-23
6.37819E-01 1.16455E-23
6.42008E-01 1.14200E-23
6.46186E-01 1.11987E-23
6.50353E-01 1.09813E-23
6.54508E-01 1.07679E-23
6.58652E-01 1.05584E-23
6.62784E-01 1.03525E-23
6.66903E-01 1.01503E-23
6.71010E-01 9.95177E-24
6.75104E-01 9.75673E-24
6.79184E-01 9.56514E-24
6.83251E-01 9.37695E-24
6.87303E-01 9.19208E-24
6.91342E-01 9.01046E-24
6.95366E-01 8.83202E-24
6.99375E-01 8.65670E-24
7.03368E-01 8.48443E-24
7.07347E-01 8.31515E-24
7.11309E-01 8.14881E-24
7.15256E-01 7.98534E-24
7.19186E-01 7.82470E-24
7.23099E-01 7.66682E-24
7.26995E-01 7.51167E-24
7.30874E-01 7.35917E-24
7.34736E-01 7.20930E-24
7.38579E-01 7.06199E-24
7.42405E-01 6.91720E-24
7.46212E-01 6.77488E-24
7.50000E-01 6.63499E-24
7.53769E-01 6.49748E-24
7.57519E-01 6.36230E-24
7.61249E-01 6.22942E-24
7.64960E-01 6.09879E-24
7.68650E-01 5.97037E-24
7.72320E-01 5.84413E-24
7.75968E-01 5.72002E-24
7.79596E-01 5.59801E-24
7.83203E-01 5.47806E-24
7.86788E-01 5.36014E-24
7.90351E-01 5.24422E-24
7.93893E-01 5.13025E-24
7.97411E-01 5.01820E-24
8.00908E-01 4.90805E-24
8.04381E-01 4.79976E-24
8.07831E-01 4.69330E-24
8.11257E-01 4.58864E-24
8.14660E-01 4.48575E-24
8.18039E-01 4.38460E-24
8.21394E-01 4.28516E-24
8.24724E-01 4.18742E-24
8.28030E-01 4.09133E-24
8.31310E-01 3.99687E-24
8.34565E-01 3.90402E-24
8.37795E-01 3.81275E-24
8.40999E-01 3.72305E-24
8.44177E-01 3.63487E-24
8.47329E-01 3.54821E-24
8.50455E-01 3.46304E-24
8.53553E-01 3.37934E-24
8.56625E-01 3.29708E-24
8.59670E-01 3.21624E-24
8.62687E-01 3.13681E-24
8.65677E-01 3.05876E-24
8.68639E-01 2.98208E-24
8.71572E-01 2.90673E-24
8.74478E-01 2.83272E-24
8.77355E-01 2.76001E-24
8.80203E-01 2.68859E-24
8.83022E-01 2.61843E-24
8.85812E-01 2.54954E-24
8.88573E-01 2.48188E-24
8.91304E-01 2.41544E-24
8.94005E-01 2.35020E-24
8.96677E-01 2.28616E-24
8.99318E-01 2.22328E-24
9.01928E-01 2.16157E-24
9.04508E-01 2.10100E-24
9.07058E-01 2.04156E-24
9.09576E-01 1.98323E-24
9.12063E-01 1.92601E-24
9.14519E-01 1.86987E-24
9.16943E-01 1.81482E-24
9.19335E-01 1.76082E-24
9.21696E-01 1.70788E-24
9.24024E-01 1.65597E-24
9.26320E-01 1.60509E-24
9.28584E-01 1.55523E-24
9.30815E-01 1.50637E-24
9.33013E-01 1.45851E-24
9.35178E-01 1.41162E-24
9.37310E-01 1.36571E-24
9.39409E-01 1.32076E-24
9.41474E-01 1.27676E-24
9.43505E-01 1.23371E-24
9.45503E-01 1.19158E-24
9.47467E-01 1.15039E-24
9.49397E-01 1.11010E-24
9.51293E-01 1.07072E-24
9.53154E-01 1.03224E-24
9.54981E-01 9.94643E-25
9.56773E-01 9.57930E-25
9.58530E-01 9.22089E-25
9.60252E-01 8.87114E-25
9.61940E-01 8.52997E-25
9.63592E-01 8.19730E-25
9.65209E-01 7.87307E-25
9.66790E-01 7.55720E-25
9.68336E-01 7.24963E-25
9.69846E-01 6.95029E-25
9.71321E-01 6.65913E-25
9.72759E-01 6.37608E-25
9.74162E-01 6.10107E-25
9.75528E-01 5.83407E-25
9.76858E-01 5.57500E-25
9.78152E-01 5.32382E-25
9.79410E-01 5.08047E-25
9.80631E-01 4.84491E-25
9.81815E-01 4.61708E-25
9.82963E-01 4.39694E-25
9.84074E-01 4.18444E-25
9.85148E-01 3.97954E-25
9.86185E-01 3.78220E-25
9.87185E-01 3.59237E-25
9.88148E-01 3.41003E-25
9.89074E-01 3.23513E-25
9.89962E-01 3.06763E-25
9.90814E-01 2.90751E-25
9.91627E-01 2.75472E-25
9.92404E-01 2.60925E-25
9.93143E-01 2.47105E-25
9.93844E-01 2.34011E-25
9.94508E-01 2.21639E-25
9.95134E-01 2.09988E-25
9.95722E-01 1.99054E-25
9.96273E-01 1.88836E-25
9.96786E-01 1.79331E-25
9.97261E-01 1.70538E-25
9.97698E-01 1.62455E-25
9.98097E-01 1.55080E-25
9.98459E-01 1.48412E-25
9.98782E-01 1.42450E-25
9.99067E-01 1.37191E-25
9.99315E-01 1.32636E-25
9.99524E-01 1.28783E-25
9.99695E-01 1.25632E-25
9.99829E-01 1.23182E-25
9.99924E-01 1.21432E-25
9.99981E-01 1.20382E-25
1.00000E+00 1.20032E-25
