 #
 # Subroutine ELSEPA. Elastic scattering of electrons and positrons
 #                    by neutral atoms and positive ions
 #
 # Projectile: electron
 # Kinetic energy = 2.00000E+08 eV = 7.34987E+06 a.u.
 #
 # WARNING: High-energy factorization with free-atom DF screening.
 #          Absorption, polarization and exchange corrections are
 #          switched off.
 #          Phase shifts are calculated for the bare nucleus.
 #          Scattering amplitudes are not evaluated.
 #
 # Element: Ra,  Z =  88,  atomic weight = 2.26025E+02 g/mol
 #
 # Nuclear model: Fermi distribution
 #                Average radius = 6.51783E-13 cm
 #                Skin thickness = 5.46000E-14 cm
 #
 # Number of electrons = 88
 #
 # Total elastic cross section = 1.11188E-17 cm**2 = 3.97061E-01 a0**2
 # 1st transport cross section = 3.61426E-25 cm**2 = 1.29067E-08 a0**2
 # 2nd transport cross section = 1.08180E-24 cm**2 = 3.86319E-08 a0**2
 #
 #
 # Differential cross section:                       MU=(1-COS(THETA))/2
 #
 #  THETA        MU          DCS          DCS        Sherman      error
 #  (deg)                 (cm**2/sr)   (a0**2/sr)    function
 #----------------------------------------------------------------------
0.00000E+00 6.11290E-09
7.61557E-13 5.97924E-09
1.18994E-12 5.90623E-09
1.71346E-12 5.81901E-09
2.33225E-12 5.71869E-09
3.04617E-12 5.60651E-09
3.85530E-12 5.48380E-09
4.75964E-12 5.35198E-09
5.75917E-12 5.21255E-09
6.85391E-12 5.06814E-09
8.04379E-12 4.91719E-09
9.32893E-12 4.76252E-09
1.07092E-11 4.60726E-09
1.21847E-11 4.44881E-09
1.37554E-11 4.29174E-09
1.54213E-11 4.13595E-09
1.71823E-11 3.97968E-09
1.90386E-11 3.82915E-09
2.09900E-11 3.68047E-09
2.30367E-11 3.53391E-09
2.51785E-11 3.39495E-09
2.74156E-11 3.25820E-09
2.97478E-11 3.12625E-09
3.21752E-11 3.00083E-09
3.46979E-11 2.87837E-09
3.73157E-11 2.76241E-09
4.00286E-11 2.65153E-09
4.28368E-11 2.54390E-09
4.57402E-11 2.44357E-09
4.87388E-11 2.34689E-09
5.18325E-11 2.25403E-09
5.50215E-11 2.16738E-09
5.83057E-11 2.08378E-09
6.16850E-11 2.00443E-09
6.51595E-11 1.92960E-09
6.87293E-11 1.85760E-09
7.23943E-11 1.78980E-09
7.61544E-11 1.72528E-09
1.18991E-10 1.22572E-09
1.71347E-10 9.05701E-10
2.33223E-10 6.86858E-10
3.04617E-10 5.30415E-10
3.85531E-10 4.15517E-10
4.75965E-10 3.29732E-10
5.75917E-10 2.64801E-10
6.85389E-10 2.13491E-10
8.04380E-10 1.76057E-10
9.32891E-10 1.46966E-10
1.07092E-09 1.22813E-10
1.21847E-09 1.04305E-10
1.37554E-09 8.88990E-11
1.54213E-09 7.61672E-11
1.71823E-09 6.60455E-11
1.90386E-09 5.71676E-11
2.09900E-09 4.98626E-11
2.30367E-09 4.38372E-11
2.51785E-09 3.84674E-11
2.74156E-09 3.40187E-11
2.97478E-09 3.02051E-11
3.21752E-09 2.68520E-11
3.46978E-09 2.40195E-11
3.73156E-09 2.15215E-11
4.00286E-09 1.93413E-11
4.28368E-09 1.74699E-11
4.57402E-09 1.57819E-11
4.87388E-09 1.43129E-11
5.18326E-09 1.30262E-11
5.50215E-09 1.18596E-11
5.83057E-09 1.08378E-11
6.16850E-09 9.92335E-12
6.51596E-09 9.09695E-12
6.87293E-09 8.36576E-12
7.23942E-09 7.69901E-12
7.61544E-09 7.09825E-12
1.18991E-08 3.40654E-12
1.71347E-08 1.81886E-12
2.33223E-08 1.05750E-12
3.04617E-08 6.57900E-13
3.85531E-08 4.31325E-13
4.75965E-08 2.94906E-13
5.75917E-08 2.08455E-13
6.85389E-08 1.51569E-13
8.04380E-08 1.12857E-13
9.32891E-08 8.57960E-14
1.07092E-07 6.64117E-14
1.21847E-07 5.22224E-14
1.37554E-07 4.16355E-14
1.54213E-07 3.36021E-14
1.71823E-07 2.74149E-14
1.90386E-07 2.25860E-14
2.09900E-07 1.87724E-14
2.30367E-07 1.57287E-14
2.51785E-07 1.32759E-14
2.74156E-07 1.12813E-14
2.97478E-07 9.64697E-15
3.21752E-07 8.29798E-15
3.46978E-07 7.17680E-15
3.73156E-07 6.23882E-15
4.00286E-07 5.44936E-15
4.28368E-07 4.78110E-15
4.57402E-07 4.21237E-15
4.87388E-07 3.72592E-15
5.18325E-07 3.30784E-15
5.50215E-07 2.94690E-15
5.83057E-07 2.63397E-15
6.16850E-07 2.36151E-15
6.51596E-07 2.12345E-15
6.87293E-07 1.91469E-15
7.23942E-07 1.73099E-15
7.61543E-07 1.56883E-15
1.18991E-06 6.57304E-16
1.71347E-06 3.21558E-16
2.33223E-06 1.75242E-16
3.04617E-06 1.03439E-16
3.85531E-06 6.49252E-17
4.75964E-06 4.27844E-17
5.75916E-06 2.93299E-17
6.85388E-06 2.07742E-17
8.04378E-06 1.51238E-17
9.32888E-06 1.12710E-17
1.07092E-05 8.57087E-18
1.21846E-05 6.63317E-18
1.37553E-05 5.21350E-18
1.54212E-05 4.15417E-18
1.71822E-05 3.35077E-18
1.90385E-05 2.73072E-18
2.09899E-05 2.25088E-18
2.30365E-05 1.87157E-18
2.51783E-05 1.56835E-18
2.74153E-05 1.32373E-18
2.97475E-05 1.12481E-18
3.21749E-05 9.61891E-19
3.46974E-05 8.27521E-19
3.73152E-05 7.15928E-19
4.00281E-05 6.22611E-19
4.28362E-05 5.44049E-19
4.57395E-05 4.77495E-19
4.87380E-05 4.20792E-19
5.18317E-05 3.72237E-19
5.50205E-05 3.30471E-19
5.83045E-05 2.94397E-19
6.16838E-05 2.63118E-19
6.51582E-05 2.35893E-19
6.87277E-05 2.12109E-19
7.23925E-05 1.91253E-19
7.61524E-05 1.73184E-19
9.21439E-05 1.18538E-19
1.09658E-04 8.38684E-20
1.28695E-04 6.10187E-20
1.49255E-04 4.54612E-20
1.71338E-04 3.45713E-20
1.94942E-04 2.67638E-20
2.20070E-04 2.10471E-20
2.46720E-04 1.67829E-20
2.74892E-04 1.35497E-20
3.04586E-04 1.10615E-20
3.35803E-04 9.12132E-21
3.68542E-04 7.59009E-21
4.02802E-04 6.36842E-21
4.38585E-04 5.38401E-21
4.75889E-04 4.58342E-21
5.14715E-04 3.92697E-21
5.55063E-04 3.38442E-21
5.96931E-04 2.93287E-21
6.40321E-04 2.55454E-21
6.85233E-04 2.23570E-21
7.31665E-04 1.96511E-21
7.79618E-04 1.73432E-21
8.29092E-04 1.53657E-21
8.80086E-04 1.36630E-21
9.32601E-04 1.21905E-21
9.86636E-04 1.09116E-21
1.04219E-03 9.79636E-22
1.09927E-03 8.82034E-22
1.15786E-03 7.96301E-22
1.21797E-03 7.20743E-22
1.27961E-03 6.53938E-22
1.34276E-03 5.94692E-22
1.40743E-03 5.41999E-22
1.47362E-03 4.95003E-22
1.54133E-03 4.52979E-22
1.61056E-03 4.15306E-22
1.68131E-03 3.81453E-22
1.75357E-03 3.50963E-22
1.82735E-03 3.23442E-22
1.90265E-03 2.98548E-22
1.97947E-03 2.75985E-22
2.05780E-03 2.55496E-22
2.13765E-03 2.36855E-22
2.21902E-03 2.19865E-22
2.30190E-03 2.04354E-22
2.38630E-03 1.90170E-22
2.47222E-03 1.77179E-22
2.55965E-03 1.65261E-22
2.64859E-03 1.54313E-22
2.73905E-03 1.44241E-22
2.83103E-03 1.34963E-22
2.92452E-03 1.26404E-22
3.01952E-03 1.18499E-22
3.11604E-03 1.11189E-22
3.21407E-03 1.04421E-22
3.31362E-03 9.81471E-23
3.41468E-03 9.23255E-23
3.51725E-03 8.69176E-23
3.62133E-03 8.18886E-23
3.72692E-03 7.72073E-23
3.83403E-03 7.28454E-23
3.94265E-03 6.87773E-23
4.05278E-03 6.49796E-23
4.16442E-03 6.14313E-23
4.27757E-03 5.81130E-23
4.39223E-03 5.50073E-23
4.50840E-03 5.20982E-23
4.62608E-03 4.93710E-23
4.74527E-03 4.68124E-23
4.86597E-03 4.44102E-23
4.98817E-03 4.21532E-23
5.11188E-03 4.00311E-23
5.23711E-03 3.80345E-23
5.36383E-03 3.61547E-23
5.49207E-03 3.43837E-23
5.62181E-03 3.27142E-23
5.75306E-03 3.11393E-23
5.88581E-03 2.96528E-23
6.02007E-03 2.82490E-23
6.15583E-03 2.69224E-23
6.29310E-03 2.56681E-23
6.43187E-03 2.44816E-23
6.57214E-03 2.33586E-23
6.71392E-03 2.22951E-23
6.85720E-03 2.12875E-23
7.00198E-03 2.03324E-23
7.14827E-03 1.94265E-23
7.29605E-03 1.85671E-23
7.44534E-03 1.77512E-23
7.59612E-03 1.69764E-23
7.97965E-03 1.52039E-23
8.37255E-03 1.36403E-23
8.77480E-03 1.22577E-23
9.18641E-03 1.10322E-23
9.60736E-03 9.94371E-24
1.00376E-02 8.97484E-24
1.04773E-02 8.11079E-24
1.09262E-02 7.33878E-24
1.13844E-02 6.64780E-24
1.18520E-02 6.02833E-24
1.23288E-02 5.47210E-24
1.28150E-02 4.97190E-24
1.33104E-02 4.52146E-24
1.38150E-02 4.11530E-24
1.43290E-02 3.74858E-24
1.48521E-02 3.41709E-24
1.53845E-02 3.11711E-24
1.59262E-02 2.84533E-24
1.64770E-02 2.59887E-24
1.70371E-02 2.37514E-24
1.76063E-02 2.17186E-24
1.81848E-02 1.98701E-24
1.87724E-02 1.81877E-24
1.93692E-02 1.66553E-24
1.99751E-02 1.52584E-24
2.05901E-02 1.39843E-24
2.12143E-02 1.28214E-24
2.18476E-02 1.17593E-24
2.24900E-02 1.07886E-24
2.31415E-02 9.90107E-25
2.38021E-02 9.08911E-25
2.44717E-02 8.34592E-25
2.51504E-02 7.66536E-25
2.58382E-02 7.04188E-25
2.65349E-02 6.47046E-25
2.72407E-02 5.94656E-25
2.79555E-02 5.46605E-25
2.86793E-02 5.02520E-25
2.94120E-02 4.62059E-25
3.01537E-02 4.24916E-25
3.09043E-02 3.90808E-25
3.16639E-02 3.59481E-25
3.24324E-02 3.30701E-25
3.32098E-02 3.04255E-25
3.39961E-02 2.79950E-25
3.47912E-02 2.57609E-25
3.55952E-02 2.37069E-25
3.64081E-02 2.18184E-25
3.72297E-02 2.00818E-25
3.80602E-02 1.84847E-25
3.88995E-02 1.70158E-25
3.97476E-02 1.56646E-25
4.06044E-02 1.44218E-25
4.14700E-02 1.32785E-25
4.23443E-02 1.22267E-25
4.32273E-02 1.12591E-25
4.41190E-02 1.03689E-25
4.50194E-02 9.54999E-26
4.59284E-02 8.79660E-26
4.68461E-02 8.10351E-26
4.87074E-02 6.87939E-26
5.06030E-02 5.84357E-26
5.25328E-02 4.96724E-26
5.44967E-02 4.22598E-26
5.64946E-02 3.59911E-26
5.85262E-02 3.06908E-26
6.05914E-02 2.62100E-26
6.26901E-02 2.24223E-26
6.48222E-02 1.92208E-26
6.69873E-02 1.65144E-26
6.91854E-02 1.42260E-26
7.14163E-02 1.22904E-26
7.36799E-02 1.06520E-26
7.59760E-02 9.26409E-27
7.83043E-02 8.08690E-27
8.06647E-02 7.08691E-27
8.30571E-02 6.23581E-27
8.54812E-02 5.50973E-27
8.79369E-02 4.88857E-27
9.04240E-02 4.35541E-27
9.29422E-02 3.89605E-27
9.54915E-02 3.49860E-27
9.80716E-02 3.15311E-27
1.00682E-01 2.85126E-27
1.03323E-01 2.58611E-27
1.05995E-01 2.35191E-27
1.08696E-01 2.14386E-27
1.11427E-01 1.95799E-27
1.14188E-01 1.79102E-27
1.16978E-01 1.64024E-27
1.19797E-01 1.50341E-27
1.22645E-01 1.37868E-27
1.25522E-01 1.26453E-27
1.28428E-01 1.15971E-27
1.31361E-01 1.06318E-27
1.34323E-01 9.74076E-28
1.37313E-01 8.91687E-28
1.40330E-01 8.15414E-28
1.43375E-01 7.44752E-28
1.46447E-01 6.79271E-28
1.49545E-01 6.18599E-28
1.52671E-01 5.62413E-28
1.55823E-01 5.10425E-28
1.59001E-01 4.62377E-28
1.62205E-01 4.18032E-28
1.65435E-01 3.77173E-28
1.68690E-01 3.39595E-28
1.71970E-01 3.05106E-28
1.75276E-01 2.73522E-28
1.78606E-01 2.44665E-28
1.81961E-01 2.18368E-28
1.85340E-01 1.94465E-28
1.88743E-01 1.72799E-28
1.92169E-01 1.53216E-28
1.95619E-01 1.35570E-28
1.99092E-01 1.19717E-28
2.02589E-01 1.05520E-28
2.06107E-01 9.28498E-29
2.09649E-01 8.15792E-29
2.13212E-01 7.15893E-29
2.16797E-01 6.27666E-29
2.20404E-01 5.50038E-29
2.24032E-01 4.81996E-29
2.27680E-01 4.22593E-29
2.31350E-01 3.70940E-29
2.35040E-01 3.26210E-29
2.38751E-01 2.87639E-29
2.42481E-01 2.54518E-29
2.46231E-01 2.26198E-29
2.50000E-01 2.02083E-29
2.53788E-01 1.81632E-29
2.57595E-01 1.64353E-29
2.61421E-01 1.49802E-29
2.65264E-01 1.37582E-29
2.69126E-01 1.27337E-29
2.73005E-01 1.18753E-29
2.76901E-01 1.11550E-29
2.80814E-01 1.05485E-29
2.84744E-01 1.00345E-29
2.88691E-01 9.59478E-30
2.92653E-01 9.21350E-30
2.96632E-01 8.87735E-30
3.00625E-01 8.57513E-30
3.04634E-01 8.29757E-30
3.08658E-01 8.03706E-30
3.12697E-01 7.78753E-30
3.16749E-01 7.54421E-30
3.20816E-01 7.30345E-30
3.24896E-01 7.06260E-30
3.28990E-01 6.81984E-30
3.33097E-01 6.57405E-30
3.37216E-01 6.32469E-30
3.41348E-01 6.07169E-30
3.45492E-01 5.81537E-30
3.49647E-01 5.55633E-30
3.53814E-01 5.29539E-30
3.57992E-01 5.03353E-30
3.62181E-01 4.77184E-30
3.66381E-01 4.51143E-30
3.70590E-01 4.25346E-30
3.74810E-01 3.99905E-30
3.79039E-01 3.74926E-30
3.83277E-01 3.50511E-30
3.87524E-01 3.26753E-30
3.91780E-01 3.03734E-30
3.96044E-01 2.81528E-30
4.00316E-01 2.60196E-30
4.04596E-01 2.39789E-30
4.08882E-01 2.20349E-30
4.13176E-01 2.01905E-30
4.17476E-01 1.84478E-30
4.21783E-01 1.68077E-30
4.26095E-01 1.52705E-30
4.30413E-01 1.38355E-30
4.34737E-01 1.25013E-30
4.39065E-01 1.12658E-30
4.43398E-01 1.01266E-30
4.47736E-01 9.08032E-31
4.52077E-01 8.12359E-31
4.56422E-01 7.25249E-31
4.60770E-01 6.46287E-31
4.65122E-01 5.75036E-31
4.69476E-01 5.11046E-31
4.73832E-01 4.53859E-31
4.78190E-01 4.03012E-31
4.82550E-01 3.58044E-31
4.86912E-01 3.18499E-31
4.91274E-01 2.83931E-31
4.95637E-01 2.53905E-31
5.00000E-01 2.28002E-31
5.04363E-01 2.05819E-31
5.08726E-01 1.86973E-31
5.13088E-01 1.71101E-31
5.17450E-01 1.57860E-31
5.21810E-01 1.46931E-31
5.26168E-01 1.38015E-31
5.30524E-01 1.30836E-31
5.34878E-01 1.25142E-31
5.39230E-01 1.20701E-31
5.43578E-01 1.17302E-31
5.47923E-01 1.14756E-31
5.52264E-01 1.12892E-31
5.56602E-01 1.11560E-31
5.60935E-01 1.10627E-31
5.65263E-01 1.09976E-31
5.69587E-01 1.09505E-31
5.73905E-01 1.09131E-31
5.78217E-01 1.08778E-31
5.82524E-01 1.08388E-31
5.86824E-01 1.07911E-31
5.91118E-01 1.07309E-31
5.95404E-01 1.06551E-31
5.99684E-01 1.05616E-31
6.03956E-01 1.04490E-31
6.08220E-01 1.03164E-31
6.12476E-01 1.01637E-31
6.16723E-01 9.99093E-32
6.20961E-01 9.79880E-32
6.25190E-01 9.58819E-32
6.29410E-01 9.36029E-32
6.33619E-01 9.11651E-32
6.37819E-01 8.85839E-32
6.42008E-01 8.58760E-32
6.46186E-01 8.30588E-32
6.50353E-01 8.01499E-32
6.54508E-01 7.71673E-32
6.58652E-01 7.41285E-32
6.62784E-01 7.10507E-32
6.66903E-01 6.79504E-32
6.71010E-01 6.48434E-32
6.75104E-01 6.17446E-32
6.79184E-01 5.86679E-32
6.83251E-01 5.56262E-32
6.87303E-01 5.26311E-32
6.91342E-01 4.96933E-32
6.95366E-01 4.68223E-32
6.99375E-01 4.40263E-32
7.03368E-01 4.13127E-32
7.07347E-01 3.86876E-32
7.11309E-01 3.61560E-32
7.15256E-01 3.37222E-32
7.19186E-01 3.13892E-32
7.23099E-01 2.91593E-32
7.26995E-01 2.70340E-32
7.30874E-01 2.50140E-32
7.34736E-01 2.30994E-32
7.38579E-01 2.12894E-32
7.42405E-01 1.95829E-32
7.46212E-01 1.79782E-32
7.50000E-01 1.64731E-32
7.53769E-01 1.50651E-32
7.57519E-01 1.37514E-32
7.61249E-01 1.25287E-32
7.64960E-01 1.13937E-32
7.68650E-01 1.03429E-32
7.72320E-01 9.37261E-33
7.75968E-01 8.47896E-33
7.79596E-01 7.65812E-33
7.83203E-01 6.90621E-33
7.86788E-01 6.21935E-33
7.90351E-01 5.59368E-33
7.93893E-01 5.02540E-33
7.97411E-01 4.51076E-33
8.00908E-01 4.04613E-33
8.04381E-01 3.62796E-33
8.07831E-01 3.25283E-33
8.11257E-01 2.91743E-33
8.14660E-01 2.61862E-33
8.18039E-01 2.35337E-33
8.21394E-01 2.11881E-33
8.24724E-01 1.91222E-33
8.28030E-01 1.73103E-33
8.31310E-01 1.57281E-33
8.34565E-01 1.43530E-33
8.37795E-01 1.31638E-33
8.40999E-01 1.21407E-33
8.44177E-01 1.12654E-33
8.47329E-01 1.05209E-33
8.50455E-01 9.89166E-34
8.53553E-01 9.36321E-34
8.56625E-01 8.92246E-34
8.59670E-01 8.55743E-34
8.62687E-01 8.25726E-34
8.65677E-01 8.01211E-34
8.68639E-01 7.81313E-34
8.71572E-01 7.65240E-34
8.74478E-01 7.52285E-34
8.77355E-01 7.41822E-34
8.80203E-01 7.33297E-34
8.83022E-01 7.26228E-34
8.85812E-01 7.20194E-34
8.88573E-01 7.14830E-34
8.91304E-01 7.09830E-34
8.94005E-01 7.04929E-34
8.96677E-01 6.99910E-34
8.99318E-01 6.94595E-34
9.01928E-01 6.88840E-34
9.04508E-01 6.82533E-34
9.07058E-01 6.75588E-34
9.09576E-01 6.67948E-34
9.12063E-01 6.59574E-34
9.14519E-01 6.50446E-34
9.16943E-01 6.40563E-34
9.19335E-01 6.29934E-34
9.21696E-01 6.18581E-34
9.24024E-01 6.06537E-34
9.26320E-01 5.93842E-34
9.28584E-01 5.80541E-34
9.30815E-01 5.66686E-34
9.33013E-01 5.52331E-34
9.35178E-01 5.37533E-34
9.37310E-01 5.22350E-34
9.39409E-01 5.06843E-34
9.41474E-01 4.91067E-34
9.43505E-01 4.75084E-34
9.45503E-01 4.58948E-34
9.47467E-01 4.42715E-34
9.49397E-01 4.26437E-34
9.51293E-01 4.10164E-34
9.53154E-01 3.93945E-34
9.54981E-01 3.77822E-34
9.56773E-01 3.61839E-34
9.58530E-01 3.46033E-34
9.60252E-01 3.30439E-34
9.61940E-01 3.15091E-34
9.63592E-01 3.00017E-34
9.65209E-01 2.85242E-34
9.66790E-01 2.70791E-34
9.68336E-01 2.56684E-34
9.69846E-01 2.42938E-34
9.71321E-01 2.29569E-34
9.72759E-01 2.16587E-34
9.74162E-01 2.04005E-34
9.75528E-01 1.91830E-34
9.76858E-01 1.80068E-34
9.78152E-01 1.68722E-34
9.79410E-01 1.57796E-34
9.80631E-01 1.47290E-34
9.81815E-01 1.37204E-34
9.82963E-01 1.27535E-34
9.84074E-01 1.18280E-34
9.85148E-01 1.09436E-34
9.86185E-01 1.00996E-34
9.87185E-01 9.29563E-35
9.88148E-01 8.53092E-35
9.89074E-01 7.80483E-35
9.89962E-01 7.11657E-35
9.90814E-01 6.46540E-35
9.91627E-01 5.85051E-35
9.92404E-01 5.27107E-35
9.93143E-01 4.72627E-35
9.93844E-01 4.21529E-35
9.94508E-01 3.73730E-35
9.95134E-01 3.29150E-35
9.95722E-01 2.87711E-35
9.96273E-01 2.49336E-35
9.96786E-01 2.13950E-35
9.97261E-01 1.81487E-35
9.97698E-01 1.51878E-35
9.98097E-01 1.25061E-35
9.98459E-01 1.00979E-35
9.98782E-01 7.95791E-36
9.99067E-01 6.08129E-36
9.99315E-01 4.46362E-36
9.99524E-01 3.10129E-36
9.99695E-01 1.99113E-36
9.99829E-01 1.13043E-36
9.99924E-01 5.17134E-37
9.99981E-01 1.49734E-37
1.00000E+00 2.73884E-38
