 #
 # Subroutine ELSEPA. Elastic scattering of electrons and positrons
 #                    by neutral atoms and positive ions
 #
 # Projectile: electron
 # Kinetic energy = 4.00000E+08 eV = 1.46997E+07 a.u.
 #
 # WARNING: High-energy factorization with free-atom DF screening.
 #          Absorption, polarization and exchange corrections are
 #          switched off.
 #          Phase shifts are calculated for the bare nucleus.
 #          Scattering amplitudes are not evaluated.
 #
 # Element: Ra,  Z =  88,  atomic weight = 2.26025E+02 g/mol
 #
 # Nuclear model: Fermi distribution
 #                Average radius = 6.51783E-13 cm
 #                Skin thickness = 5.46000E-14 cm
 #
 # Number of electrons = 88
 #
 # Total elastic cross section = 1.11083E-17 cm**2 = 3.96685E-01 a0**2
 # 1st transport cross section = 9.01368E-26 cm**2 = 3.21884E-09 a0**2
 # 2nd transport cross section = 2.70248E-25 cm**2 = 9.65075E-09 a0**2
 #
 #
 # Differential cross section:                       MU=(1-COS(THETA))/2
 #
 #  THETA        MU          DCS          DCS        Sherman      error
 #  (deg)                 (cm**2/sr)   (a0**2/sr)    function
 #----------------------------------------------------------------------
0.00000E+00 2.43893E-08
7.61557E-13 2.23736E-08
1.18994E-12 2.13602E-08
1.71346E-12 2.02299E-08
2.33225E-12 1.90124E-08
3.04617E-12 1.77629E-08
3.85530E-12 1.65159E-08
4.75964E-12 1.52927E-08
5.75917E-12 1.41152E-08
6.85391E-12 1.30161E-08
8.04379E-12 1.19891E-08
9.32893E-12 1.10374E-08
1.07092E-11 1.01658E-08
1.21847E-11 9.37907E-09
1.37554E-11 8.66210E-09
1.54213E-11 8.01119E-09
1.71823E-11 7.42508E-09
1.90386E-11 6.89637E-09
2.09900E-11 6.41648E-09
2.30367E-11 5.98106E-09
2.51785E-11 5.58725E-09
2.74156E-11 5.22829E-09
2.97478E-11 4.90033E-09
3.21752E-11 4.60034E-09
3.46979E-11 4.32503E-09
3.73157E-11 4.07151E-09
4.00286E-11 3.83774E-09
4.28368E-11 3.62146E-09
4.57402E-11 3.42053E-09
4.87388E-11 3.23402E-09
5.18325E-11 3.06065E-09
5.50215E-11 2.89850E-09
5.83057E-11 2.74692E-09
6.16850E-11 2.60538E-09
6.51595E-11 2.47307E-09
6.87293E-11 2.34825E-09
7.23943E-11 2.23132E-09
7.61544E-11 2.12169E-09
1.18991E-10 1.31932E-09
1.71347E-10 8.54435E-10
2.33223E-10 5.88330E-10
3.04617E-10 4.17473E-10
3.85531E-10 3.04923E-10
4.75965E-10 2.28907E-10
5.75917E-10 1.75560E-10
6.85389E-10 1.36221E-10
8.04380E-10 1.07539E-10
9.32891E-10 8.62001E-11
1.07092E-09 6.99645E-11
1.21847E-09 5.73269E-11
1.37554E-09 4.75049E-11
1.54213E-09 3.97520E-11
1.71823E-09 3.35097E-11
1.90386E-09 2.84351E-11
2.09900E-09 2.42987E-11
2.30367E-09 2.08930E-11
2.51785E-09 1.80396E-11
2.74156E-09 1.56537E-11
2.97478E-09 1.36498E-11
3.21752E-09 1.19542E-11
3.46978E-09 1.05078E-11
3.73156E-09 9.26919E-12
4.00286E-09 8.20507E-12
4.28368E-09 7.28871E-12
4.57402E-09 6.49670E-12
4.87388E-09 5.81152E-12
5.18326E-09 5.21609E-12
5.50215E-09 4.69500E-12
5.83057E-09 4.23795E-12
6.16850E-09 3.83604E-12
6.51596E-09 3.48128E-12
6.87293E-09 3.16593E-12
7.23942E-09 2.88597E-12
7.61544E-09 2.63670E-12
1.18991E-08 1.18195E-12
1.71347E-08 6.07469E-13
2.33223E-08 3.43877E-13
3.04617E-08 2.09317E-13
3.85531E-08 1.34687E-13
4.75965E-08 9.05335E-14
5.75917E-08 6.30479E-14
6.85389E-08 4.52194E-14
8.04380E-08 3.32616E-14
9.32891E-08 2.50077E-14
1.07092E-07 1.91644E-14
1.21847E-07 1.49347E-14
1.37554E-07 1.18120E-14
1.54213E-07 9.46540E-15
1.71823E-07 7.67439E-15
1.90386E-07 6.28806E-15
2.09900E-07 5.20126E-15
2.30367E-07 4.33945E-15
2.51785E-07 3.64889E-15
2.74156E-07 3.09022E-15
2.97478E-07 2.63439E-15
3.21752E-07 2.25950E-15
3.46978E-07 1.94891E-15
3.73156E-07 1.68983E-15
4.00286E-07 1.47233E-15
4.28368E-07 1.28868E-15
4.57402E-07 1.13275E-15
4.87388E-07 9.99690E-16
5.18325E-07 8.85584E-16
5.50215E-07 7.87289E-16
5.83057E-07 7.02248E-16
6.16850E-07 6.28377E-16
6.51596E-07 5.63964E-16
6.87293E-07 5.07595E-16
7.23942E-07 4.58093E-16
7.61543E-07 4.14480E-16
1.18991E-06 1.71407E-16
1.71347E-06 8.32128E-17
2.33223E-06 4.51387E-17
3.04617E-06 2.65601E-17
3.85531E-06 1.66309E-17
4.75964E-06 1.09375E-17
5.75916E-06 7.48496E-18
6.85388E-06 5.29335E-18
8.04378E-06 3.84825E-18
9.32888E-06 2.86430E-18
1.07092E-05 2.17566E-18
1.21846E-05 1.68208E-18
1.37553E-05 1.32086E-18
1.54212E-05 1.05160E-18
1.71822E-05 8.47593E-19
1.90385E-05 6.90283E-19
2.09899E-05 5.68638E-19
2.30365E-05 4.72550E-19
2.51783E-05 3.95792E-19
2.74153E-05 3.33905E-19
2.97475E-05 2.83609E-19
3.21749E-05 2.42437E-19
3.46974E-05 2.08497E-19
3.73152E-05 1.80322E-19
4.00281E-05 1.56772E-19
4.28362E-05 1.36952E-19
4.57395E-05 1.20168E-19
4.87380E-05 1.05873E-19
5.18317E-05 9.36362E-20
5.50205E-05 8.31136E-20
5.83045E-05 7.40271E-20
6.16838E-05 6.61505E-20
6.51582E-05 5.92967E-20
6.87277E-05 5.33098E-20
7.23925E-05 4.80613E-20
7.61524E-05 4.39506E-20
9.21439E-05 3.01226E-20
1.09658E-04 2.13414E-20
1.28695E-04 1.55475E-20
1.49255E-04 1.15980E-20
1.71338E-04 8.83058E-21
1.94942E-04 6.84240E-21
2.20070E-04 5.38435E-21
2.46720E-04 4.29528E-21
2.74892E-04 3.46841E-21
3.04586E-04 2.83122E-21
3.35803E-04 2.33377E-21
3.68542E-04 1.94070E-21
4.02802E-04 1.62676E-21
4.38585E-04 1.37356E-21
4.75889E-04 1.16746E-21
5.14715E-04 9.98350E-22
5.55063E-04 8.58506E-22
5.96931E-04 7.42063E-22
6.40321E-04 6.44470E-22
6.85233E-04 5.62180E-22
7.31665E-04 4.92409E-22
7.79618E-04 4.32936E-22
8.29092E-04 3.81999E-22
8.80086E-04 3.38170E-22
9.32601E-04 3.00297E-22
9.86636E-04 2.67440E-22
1.04219E-03 2.38824E-22
1.09927E-03 2.13816E-22
1.15786E-03 1.91886E-22
1.21797E-03 1.72595E-22
1.27961E-03 1.55574E-22
1.34276E-03 1.40513E-22
1.40743E-03 1.27152E-22
1.47362E-03 1.15268E-22
1.54133E-03 1.04672E-22
1.61056E-03 9.52035E-23
1.68131E-03 8.67236E-23
1.75357E-03 7.91134E-23
1.82735E-03 7.22702E-23
1.90265E-03 6.61052E-23
1.97947E-03 6.05411E-23
2.05780E-03 5.55108E-23
2.13765E-03 5.09556E-23
2.21902E-03 4.68242E-23
2.30190E-03 4.30717E-23
2.38630E-03 3.96583E-23
2.47222E-03 3.65492E-23
2.55965E-03 3.37136E-23
2.64859E-03 3.11241E-23
2.73905E-03 2.87567E-23
2.83103E-03 2.65896E-23
2.92452E-03 2.46039E-23
3.01952E-03 2.27823E-23
3.11604E-03 2.11097E-23
3.21407E-03 1.95724E-23
3.31362E-03 1.81581E-23
3.41468E-03 1.68557E-23
3.51725E-03 1.56555E-23
3.62133E-03 1.45484E-23
3.72692E-03 1.35265E-23
3.83403E-03 1.25824E-23
3.94265E-03 1.17097E-23
4.05278E-03 1.09023E-23
4.16442E-03 1.01548E-23
4.27757E-03 9.46245E-24
4.39223E-03 8.82066E-24
4.50840E-03 8.22541E-24
4.62608E-03 7.67302E-24
4.74527E-03 7.16011E-24
4.86597E-03 6.68361E-24
4.98817E-03 6.24072E-24
5.11188E-03 5.82885E-24
5.23711E-03 5.44567E-24
5.36383E-03 5.08900E-24
5.49207E-03 4.75688E-24
5.62181E-03 4.44749E-24
5.75306E-03 4.15915E-24
5.88581E-03 3.89034E-24
6.02007E-03 3.63964E-24
6.15583E-03 3.40574E-24
6.29310E-03 3.18746E-24
6.43187E-03 2.98368E-24
6.57214E-03 2.79338E-24
6.71392E-03 2.61562E-24
6.85720E-03 2.44953E-24
7.00198E-03 2.29429E-24
7.14827E-03 2.14918E-24
7.29605E-03 2.01348E-24
7.44534E-03 1.88657E-24
7.59612E-03 1.76784E-24
7.97965E-03 1.50333E-24
8.37255E-03 1.27908E-24
8.77480E-03 1.08877E-24
9.18641E-03 9.27123E-25
9.60736E-03 7.89728E-25
1.00376E-02 6.72878E-25
1.04773E-02 5.73455E-25
1.09262E-02 4.88831E-25
1.13844E-02 4.16784E-25
1.18520E-02 3.55437E-25
1.23288E-02 3.03196E-25
1.28150E-02 2.58710E-25
1.33104E-02 2.20830E-25
1.38150E-02 1.88580E-25
1.43290E-02 1.61127E-25
1.48521E-02 1.37763E-25
1.53845E-02 1.17883E-25
1.59262E-02 1.00971E-25
1.64770E-02 8.65866E-26
1.70371E-02 7.43546E-26
1.76063E-02 6.39540E-26
1.81848E-02 5.51108E-26
1.87724E-02 4.75914E-26
1.93692E-02 4.11962E-26
1.99751E-02 3.57551E-26
2.05901E-02 3.11232E-26
2.12143E-02 2.71768E-26
2.18476E-02 2.38108E-26
2.24900E-02 2.09358E-26
2.31415E-02 1.84759E-26
2.38021E-02 1.63666E-26
2.44717E-02 1.45534E-26
2.51504E-02 1.29899E-26
2.58382E-02 1.16372E-26
2.65349E-02 1.04624E-26
2.72407E-02 9.43770E-27
2.79555E-02 8.53980E-27
2.86793E-02 7.74917E-27
2.94120E-02 7.04942E-27
3.01537E-02 6.42686E-27
3.09043E-02 5.87007E-27
3.16639E-02 5.36953E-27
3.24324E-02 4.91734E-27
3.32098E-02 4.50692E-27
3.39961E-02 4.13282E-27
3.47912E-02 3.79051E-27
3.55952E-02 3.47624E-27
3.64081E-02 3.18690E-27
3.72297E-02 2.91990E-27
3.80602E-02 2.67306E-27
3.88995E-02 2.44457E-27
3.97476E-02 2.23289E-27
4.06044E-02 2.03672E-27
4.14700E-02 1.85492E-27
4.23443E-02 1.68652E-27
4.32273E-02 1.53065E-27
4.41190E-02 1.38652E-27
4.50194E-02 1.25345E-27
4.59284E-02 1.13077E-27
4.68461E-02 1.01789E-27
4.87074E-02 8.19244E-28
5.06030E-02 6.53278E-28
5.25328E-02 5.16066E-28
5.44967E-02 4.03945E-28
5.64946E-02 3.13489E-28
5.85262E-02 2.41511E-28
6.05914E-02 1.85084E-28
6.26901E-02 1.41548E-28
6.48222E-02 1.08525E-28
6.69873E-02 8.39258E-29
6.91854E-02 6.59416E-29
7.14163E-02 5.30382E-29
7.36799E-02 4.39380E-29
7.59760E-02 3.76000E-29
7.83043E-02 3.31951E-29
8.06647E-02 3.00804E-29
8.30571E-02 2.77729E-29
8.54812E-02 2.59233E-29
8.79369E-02 2.42915E-29
9.04240E-02 2.27243E-29
9.29422E-02 2.11348E-29
9.54915E-02 1.94855E-29
9.80716E-02 1.77730E-29
1.00682E-01 1.60162E-29
1.03323E-01 1.42466E-29
1.05995E-01 1.25008E-29
1.08696E-01 1.08155E-29
1.11427E-01 9.22322E-30
1.14188E-01 7.75064E-30
1.16978E-01 6.41718E-30
1.19797E-01 5.23478E-30
1.22645E-01 4.20832E-30
1.25522E-01 3.33637E-30
1.28428E-01 2.61226E-30
1.31361E-01 2.02529E-30
1.34323E-01 1.56185E-30
1.37313E-01 1.20657E-30
1.40330E-01 9.43322E-31
1.43375E-01 7.56042E-31
1.46447E-01 6.29405E-31
1.49545E-01 5.49328E-31
1.52671E-01 5.03310E-31
1.55823E-01 4.80630E-31
1.59001E-01 4.72410E-31
1.62205E-01 4.71594E-31
1.65435E-01 4.72832E-31
1.68690E-01 4.72318E-31
1.71970E-01 4.67588E-31
1.75276E-01 4.57300E-31
1.78606E-01 4.41015E-31
1.81961E-01 4.18977E-31
1.85340E-01 3.91918E-31
1.88743E-01 3.60882E-31
1.92169E-01 3.27079E-31
1.95619E-01 2.91756E-31
1.99092E-01 2.56111E-31
2.02589E-01 2.21221E-31
2.06107E-01 1.87998E-31
2.09649E-01 1.57163E-31
2.13212E-01 1.29240E-31
2.16797E-01 1.04560E-31
2.20404E-01 8.32770E-32
2.24032E-01 6.53904E-32
2.27680E-01 5.07707E-32
2.31350E-01 3.91879E-32
2.35040E-01 3.03394E-32
2.38751E-01 2.38766E-32
2.42481E-01 1.94277E-32
2.46231E-01 1.66189E-32
2.50000E-01 1.50904E-32
2.53788E-01 1.45091E-32
2.57595E-01 1.45779E-32
2.61421E-01 1.50412E-32
2.65264E-01 1.56875E-32
2.69126E-01 1.63496E-32
2.73005E-01 1.69026E-32
2.76901E-01 1.72606E-32
2.80814E-01 1.73719E-32
2.84744E-01 1.72140E-32
2.88691E-01 1.67883E-32
2.92653E-01 1.61145E-32
2.96632E-01 1.52252E-32
3.00625E-01 1.41619E-32
3.04634E-01 1.29703E-32
3.08658E-01 1.16973E-32
3.12697E-01 1.03876E-32
3.16749E-01 9.08260E-33
3.20816E-01 7.81790E-33
3.24896E-01 6.62308E-33
3.28990E-01 5.52103E-33
3.33097E-01 4.52798E-33
3.37216E-01 3.65389E-33
3.41348E-01 2.90296E-33
3.45492E-01 2.27440E-33
3.49647E-01 1.76327E-33
3.53814E-01 1.36138E-33
3.57992E-01 1.05813E-33
3.62181E-01 8.41329E-34
3.66381E-01 6.97988E-34
3.70590E-01 6.14928E-34
3.74810E-01 5.79337E-34
3.79039E-01 5.79198E-34
3.83277E-01 6.03613E-34
3.87524E-01 6.43017E-34
3.91780E-01 6.89301E-34
3.96044E-01 7.35858E-34
4.00316E-01 7.77553E-34
4.04596E-01 8.10644E-34
4.08882E-01 8.32659E-34
4.13176E-01 8.42247E-34
4.17476E-01 8.39009E-34
4.21783E-01 8.23325E-34
4.26095E-01 7.96182E-34
4.30413E-01 7.59011E-34
4.34737E-01 7.13532E-34
4.39065E-01 6.61625E-34
4.43398E-01 6.05211E-34
4.47736E-01 5.46162E-34
4.52077E-01 4.86224E-34
4.56422E-01 4.26962E-34
4.60770E-01 3.69724E-34
4.65122E-01 3.15620E-34
4.69476E-01 2.65514E-34
4.73832E-01 2.20028E-34
4.78190E-01 1.79556E-34
4.82550E-01 1.44286E-34
4.86912E-01 1.14221E-34
4.91274E-01 8.92099E-35
4.95637E-01 6.89759E-35
5.00000E-01 5.31451E-35
5.04363E-01 4.12746E-35
5.08726E-01 3.28784E-35
5.13088E-01 2.74497E-35
5.17450E-01 2.44812E-35
5.21810E-01 2.34816E-35
5.26168E-01 2.39886E-35
5.30524E-01 2.55789E-35
5.34878E-01 2.78754E-35
5.39230E-01 3.05510E-35
5.43578E-01 3.33306E-35
5.47923E-01 3.59909E-35
5.52264E-01 3.83581E-35
5.56602E-01 4.03051E-35
5.60935E-01 4.17468E-35
5.65263E-01 4.26355E-35
5.69587E-01 4.29555E-35
5.73905E-01 4.27177E-35
5.78217E-01 4.19543E-35
5.82524E-01 4.07142E-35
5.86824E-01 3.90572E-35
5.91118E-01 3.70510E-35
5.95404E-01 3.47667E-35
5.99684E-01 3.22760E-35
6.03956E-01 2.96486E-35
6.08220E-01 2.69496E-35
6.12476E-01 2.42389E-35
6.16723E-01 2.15691E-35
6.20961E-01 1.89856E-35
6.25190E-01 1.65261E-35
6.29410E-01 1.42201E-35
6.33619E-01 1.20901E-35
6.37819E-01 1.01510E-35
6.42008E-01 8.41162E-36
6.46186E-01 6.87482E-36
6.50353E-01 5.53855E-36
6.54508E-01 4.39650E-36
6.58652E-01 3.43897E-36
6.62784E-01 2.65362E-36
6.66903E-01 2.02615E-36
6.71010E-01 1.54103E-36
6.75104E-01 1.18197E-36
6.79184E-01 9.32510E-37
6.83251E-01 7.76445E-37
6.87303E-01 6.98165E-37
6.91342E-01 6.82937E-37
6.95366E-01 7.17119E-37
6.99375E-01 7.88303E-37
7.03368E-01 8.85412E-37
7.07347E-01 9.98760E-37
7.11309E-01 1.12003E-36
7.15256E-01 1.24223E-36
7.19186E-01 1.35964E-36
7.23099E-01 1.46777E-36
7.26995E-01 1.56323E-36
7.30874E-01 1.64356E-36
7.34736E-01 1.70722E-36
7.38579E-01 1.75344E-36
7.42405E-01 1.78204E-36
7.46212E-01 1.79340E-36
7.50000E-01 1.78837E-36
7.53769E-01 1.76804E-36
7.57519E-01 1.73383E-36
7.61249E-01 1.68728E-36
7.64960E-01 1.63004E-36
7.68650E-01 1.56383E-36
7.72320E-01 1.49029E-36
7.75968E-01 1.41108E-36
7.79596E-01 1.32776E-36
7.83203E-01 1.24178E-36
7.86788E-01 1.15445E-36
7.90351E-01 1.06700E-36
7.93893E-01 9.80440E-37
7.97411E-01 8.95739E-37
8.00908E-01 8.13611E-37
8.04381E-01 7.34753E-37
8.07831E-01 6.59656E-37
8.11257E-01 5.88698E-37
8.14660E-01 5.22173E-37
8.18039E-01 4.60276E-37
8.21394E-01 4.03074E-37
8.24724E-01 3.50614E-37
8.28030E-01 3.02822E-37
8.31310E-01 2.59604E-37
8.34565E-01 2.20804E-37
8.37795E-01 1.86236E-37
8.40999E-01 1.55667E-37
8.44177E-01 1.28872E-37
8.47329E-01 1.05586E-37
8.50455E-01 8.55428E-38
8.53553E-01 6.84818E-38
8.56625E-01 5.41287E-38
8.59670E-01 1.00000E-45
8.62687E-01 1.00000E-45
8.65677E-01 1.00000E-45
8.68639E-01 1.00000E-45
8.71572E-01 1.00000E-45
8.74478E-01 1.00000E-45
8.77355E-01 1.00000E-45
8.80203E-01 1.00000E-45
8.83022E-01 1.00000E-45
8.85812E-01 1.00000E-45
8.88573E-01 1.00000E-45
8.91304E-01 1.00000E-45
8.94005E-01 1.00000E-45
8.96677E-01 1.00000E-45
8.99318E-01 1.00000E-45
9.01928E-01 1.00000E-45
9.04508E-01 1.00000E-45
9.07058E-01 1.00000E-45
9.09576E-01 1.00000E-45
9.12063E-01 1.00000E-45
9.14519E-01 1.00000E-45
9.16943E-01 1.00000E-45
9.19335E-01 1.00000E-45
9.21696E-01 1.00000E-45
9.24024E-01 1.00000E-45
9.26320E-01 1.00000E-45
9.28584E-01 1.00000E-45
9.30815E-01 1.00000E-45
9.33013E-01 1.00000E-45
9.35178E-01 1.00000E-45
9.37310E-01 1.00000E-45
9.39409E-01 1.00000E-45
9.41474E-01 1.00000E-45
9.43505E-01 1.00000E-45
9.45503E-01 1.00000E-45
9.47467E-01 1.00000E-45
9.49397E-01 1.00000E-45
9.51293E-01 1.00000E-45
9.53154E-01 1.00000E-45
9.54981E-01 1.00000E-45
9.56773E-01 1.00000E-45
9.58530E-01 1.00000E-45
9.60252E-01 1.00000E-45
9.61940E-01 1.00000E-45
9.63592E-01 1.00000E-45
9.65209E-01 1.00000E-45
9.66790E-01 1.00000E-45
9.68336E-01 1.00000E-45
9.69846E-01 1.00000E-45
9.71321E-01 1.00000E-45
9.72759E-01 1.00000E-45
9.74162E-01 1.00000E-45
9.75528E-01 1.00000E-45
9.76858E-01 1.00000E-45
9.78152E-01 1.00000E-45
9.79410E-01 1.00000E-45
9.80631E-01 1.00000E-45
9.81815E-01 1.00000E-45
9.82963E-01 1.00000E-45
9.84074E-01 1.00000E-45
9.85148E-01 1.00000E-45
9.86185E-01 1.00000E-45
9.87185E-01 1.00000E-45
9.88148E-01 1.00000E-45
9.89074E-01 1.00000E-45
9.89962E-01 1.00000E-45
9.90814E-01 1.00000E-45
9.91627E-01 1.00000E-45
9.92404E-01 1.00000E-45
9.93143E-01 1.00000E-45
9.93844E-01 1.00000E-45
9.94508E-01 1.00000E-45
9.95134E-01 1.00000E-45
9.95722E-01 1.00000E-45
9.96273E-01 1.00000E-45
9.96786E-01 1.00000E-45
9.97261E-01 1.00000E-45
9.97698E-01 1.00000E-45
9.98097E-01 1.00000E-45
9.98459E-01 1.00000E-45
9.98782E-01 1.00000E-45
9.99067E-01 1.00000E-45
9.99315E-01 1.00000E-45
9.99524E-01 1.00000E-45
9.99695E-01 1.00000E-45
9.99829E-01 1.00000E-45
9.99924E-01 1.00000E-45
9.99981E-01 1.00000E-45
1.00000E+00 1.00000E-45
