 #
 # Subroutine ELSEPA. Elastic scattering of electrons and positrons
 #                    by neutral atoms and positive ions
 #
 # Projectile: electron
 # Kinetic energy = 2.00000E+06 eV = 7.34987E+04 a.u.
 #
 # WARNING: High-energy factorization with free-atom DF screening.
 #          Absorption, polarization and exchange corrections are
 #          switched off.
 #          Phase shifts are calculated for the bare nucleus.
 #          Scattering amplitudes are not evaluated.
 #
 # Element: Ra,  Z =  88,  atomic weight = 2.26025E+02 g/mol
 #
 # Nuclear model: Fermi distribution
 #                Average radius = 6.51783E-13 cm
 #                Skin thickness = 5.46000E-14 cm
 #
 # Number of electrons = 88
 #
 # Total elastic cross section = 1.16277E-17 cm**2 = 4.15234E-01 a0**2
 # 1st transport cross section = 1.99218E-21 cm**2 = 7.11422E-05 a0**2
 # 2nd transport cross section = 5.12788E-21 cm**2 = 1.83120E-04 a0**2
 #
 #
 # Differential cross section:                       MU=(1-COS(THETA))/2
 #
 #  THETA        MU          DCS          DCS        Sherman      error
 #  (deg)                 (cm**2/sr)   (a0**2/sr)    function
 #----------------------------------------------------------------------
0.00000E+00 9.58659E-13
7.61557E-13 9.58656E-13
1.18994E-12 9.58655E-13
1.71346E-12 9.58652E-13
2.33225E-12 9.58650E-13
3.04617E-12 9.58647E-13
3.85530E-12 9.58644E-13
4.75964E-12 9.58640E-13
5.75917E-12 9.58636E-13
6.85391E-12 9.58631E-13
8.04379E-12 9.58626E-13
9.32893E-12 9.58621E-13
1.07092E-11 9.58615E-13
1.21847E-11 9.58609E-13
1.37554E-11 9.58603E-13
1.54213E-11 9.58596E-13
1.71823E-11 9.58588E-13
1.90386E-11 9.58581E-13
2.09900E-11 9.58573E-13
2.30367E-11 9.58564E-13
2.51785E-11 9.58555E-13
2.74156E-11 9.58546E-13
2.97478E-11 9.58536E-13
3.21752E-11 9.58526E-13
3.46979E-11 9.58515E-13
3.73157E-11 9.58504E-13
4.00286E-11 9.58493E-13
4.28368E-11 9.58481E-13
4.57402E-11 9.58469E-13
4.87388E-11 9.58457E-13
5.18325E-11 9.58444E-13
5.50215E-11 9.58431E-13
5.83057E-11 9.58417E-13
6.16850E-11 9.58403E-13
6.51595E-11 9.58388E-13
6.87293E-11 9.58373E-13
7.23943E-11 9.58358E-13
7.61544E-11 9.58342E-13
1.18991E-10 9.58163E-13
1.71347E-10 9.57944E-13
2.33223E-10 9.57684E-13
3.04617E-10 9.57385E-13
3.85531E-10 9.57046E-13
4.75965E-10 9.56668E-13
5.75917E-10 9.56250E-13
6.85389E-10 9.55792E-13
8.04380E-10 9.55294E-13
9.32891E-10 9.54758E-13
1.07092E-09 9.54182E-13
1.21847E-09 9.53567E-13
1.37554E-09 9.52913E-13
1.54213E-09 9.52220E-13
1.71823E-09 9.51488E-13
1.90386E-09 9.50718E-13
2.09900E-09 9.49909E-13
2.30367E-09 9.49062E-13
2.51785E-09 9.48177E-13
2.74156E-09 9.47254E-13
2.97478E-09 9.46293E-13
3.21752E-09 9.45295E-13
3.46978E-09 9.44259E-13
3.73156E-09 9.43187E-13
4.00286E-09 9.42077E-13
4.28368E-09 9.40931E-13
4.57402E-09 9.39748E-13
4.87388E-09 9.38529E-13
5.18326E-09 9.37274E-13
5.50215E-09 9.35984E-13
5.83057E-09 9.34658E-13
6.16850E-09 9.33297E-13
6.51596E-09 9.31901E-13
6.87293E-09 9.30470E-13
7.23942E-09 9.29005E-13
7.61544E-09 9.27505E-13
1.18991E-08 9.10708E-13
1.71347E-08 8.90858E-13
2.33223E-08 8.68324E-13
3.04617E-08 8.43496E-13
3.85531E-08 8.16817E-13
4.75965E-08 7.88864E-13
5.75917E-08 7.59437E-13
6.85389E-08 7.29730E-13
8.04380E-08 6.99365E-13
9.32891E-08 6.69188E-13
1.07092E-07 6.39197E-13
1.21847E-07 6.09634E-13
1.37554E-07 5.80996E-13
1.54213E-07 5.52850E-13
1.71823E-07 5.26204E-13
1.90386E-07 5.00107E-13
2.09900E-07 4.75694E-13
2.30367E-07 4.52065E-13
2.51785E-07 4.29866E-13
2.74156E-07 4.08738E-13
2.97478E-07 3.88770E-13
3.21752E-07 3.70034E-13
3.46978E-07 3.52211E-13
3.73156E-07 3.35674E-13
4.00286E-07 3.19859E-13
4.28368E-07 3.05279E-13
4.57402E-07 2.91376E-13
4.87388E-07 2.78426E-13
5.18325E-07 2.66188E-13
5.50215E-07 2.54690E-13
5.83057E-07 2.43886E-13
6.16850E-07 2.33669E-13
6.51596E-07 2.24091E-13
6.87293E-07 2.14998E-13
7.23942E-07 2.06466E-13
7.61543E-07 1.98363E-13
1.18991E-06 1.36940E-13
1.71347E-06 9.81675E-14
2.33223E-06 7.21179E-14
3.04617E-06 5.40730E-14
3.85531E-06 4.12644E-14
4.75964E-06 3.18275E-14
5.75916E-06 2.53708E-14
6.85388E-06 2.02852E-14
8.04378E-06 1.65510E-14
9.32888E-06 1.36110E-14
1.07092E-05 1.13106E-14
1.21846E-05 9.49751E-15
1.37553E-05 8.00735E-15
1.54212E-05 6.83197E-15
1.71822E-05 5.83197E-15
1.90385E-05 5.03204E-15
2.09899E-05 4.35167E-15
2.30365E-05 3.79450E-15
2.51783E-05 3.31823E-15
2.74153E-05 2.91663E-15
2.97475E-05 2.57501E-15
3.21749E-05 2.28110E-15
3.46974E-05 2.03158E-15
3.73152E-05 1.81292E-15
4.00281E-05 1.62691E-15
4.28362E-05 1.46105E-15
4.57395E-05 1.31829E-15
4.87380E-05 1.19115E-15
5.18317E-05 1.07966E-15
5.50205E-05 9.80632E-16
5.83045E-05 8.92463E-16
6.16838E-05 8.14369E-16
6.51582E-05 7.43922E-16
6.87277E-05 6.81645E-16
7.23925E-05 6.24820E-16
7.61524E-05 5.74363E-16
9.21439E-05 4.15822E-16
1.09658E-04 3.07692E-16
1.28695E-04 2.32606E-16
1.49255E-04 1.79325E-16
1.71338E-04 1.40564E-16
1.94942E-04 1.11781E-16
2.20070E-04 9.00553E-17
2.46720E-04 7.34127E-17
2.74892E-04 6.04831E-17
3.04586E-04 5.02905E-17
3.35803E-04 4.21635E-17
3.68542E-04 3.56172E-17
4.02802E-04 3.02752E-17
4.38585E-04 2.59237E-17
4.75889E-04 2.23323E-17
5.14715E-04 1.93376E-17
5.55063E-04 1.68414E-17
5.96931E-04 1.47257E-17
6.40321E-04 1.29456E-17
6.85233E-04 1.14168E-17
7.31665E-04 1.01157E-17
7.79618E-04 8.99154E-18
8.29092E-04 8.02212E-18
8.80086E-04 7.17981E-18
9.32601E-04 6.44503E-18
9.86636E-04 5.80338E-18
1.04219E-03 5.23797E-18
1.09927E-03 4.74196E-18
1.15786E-03 4.30103E-18
1.21797E-03 3.91187E-18
1.27961E-03 3.56453E-18
1.34276E-03 3.25555E-18
1.40743E-03 2.97906E-18
1.47362E-03 2.73130E-18
1.54133E-03 2.50895E-18
1.61056E-03 2.30842E-18
1.68131E-03 2.12796E-18
1.75357E-03 1.96432E-18
1.82735E-03 1.81654E-18
1.90265E-03 1.68207E-18
1.97947E-03 1.56004E-18
2.05780E-03 1.44880E-18
2.13765E-03 1.34735E-18
2.21902E-03 1.25468E-18
2.30190E-03 1.16982E-18
2.38630E-03 1.09212E-18
2.47222E-03 1.02068E-18
2.55965E-03 9.55127E-19
2.64859E-03 8.94669E-19
2.73905E-03 8.39022E-19
2.83103E-03 7.87612E-19
2.92452E-03 7.40125E-19
3.01952E-03 6.96181E-19
3.11604E-03 6.55460E-19
3.21407E-03 6.17717E-19
3.31362E-03 5.82637E-19
3.41468E-03 5.50069E-19
3.51725E-03 5.19713E-19
3.62133E-03 4.91471E-19
3.72692E-03 4.65114E-19
3.83403E-03 4.40526E-19
3.94265E-03 4.17547E-19
4.05278E-03 3.96056E-19
4.16442E-03 3.75948E-19
4.27757E-03 3.57097E-19
4.39223E-03 3.39438E-19
4.50840E-03 3.22845E-19
4.62608E-03 3.07278E-19
4.74527E-03 2.92631E-19
4.86597E-03 2.78861E-19
4.98817E-03 2.65893E-19
5.11188E-03 2.53678E-19
5.23711E-03 2.42162E-19
5.36383E-03 2.31293E-19
5.49207E-03 2.21038E-19
5.62181E-03 2.11341E-19
5.75306E-03 2.02182E-19
5.88581E-03 1.93510E-19
6.02007E-03 1.85307E-19
6.15583E-03 1.77534E-19
6.29310E-03 1.70168E-19
6.43187E-03 1.63184E-19
6.57214E-03 1.56556E-19
6.71392E-03 1.50267E-19
6.85720E-03 1.44288E-19
7.00198E-03 1.38611E-19
7.14827E-03 1.33208E-19
7.29605E-03 1.28072E-19
7.44534E-03 1.23180E-19
7.59612E-03 1.18523E-19
7.97965E-03 1.07816E-19
8.37255E-03 9.83007E-20
8.77480E-03 8.98209E-20
9.18641E-03 8.22447E-20
9.60736E-03 7.54587E-20
1.00376E-02 6.93658E-20
1.04773E-02 6.38825E-20
1.09262E-02 5.89370E-20
1.13844E-02 5.44668E-20
1.18520E-02 5.04182E-20
1.23288E-02 4.67440E-20
1.28150E-02 4.34032E-20
1.33104E-02 4.03602E-20
1.38150E-02 3.75836E-20
1.43290E-02 3.50459E-20
1.48521E-02 3.27226E-20
1.53845E-02 3.05923E-20
1.59262E-02 2.86359E-20
1.64770E-02 2.68367E-20
1.70371E-02 2.51796E-20
1.76063E-02 2.36512E-20
1.81848E-02 2.22398E-20
1.87724E-02 2.09346E-20
1.93692E-02 1.97262E-20
1.99751E-02 1.86059E-20
2.05901E-02 1.75663E-20
2.12143E-02 1.66002E-20
2.18476E-02 1.57016E-20
2.24900E-02 1.48648E-20
2.31415E-02 1.40846E-20
2.38021E-02 1.33566E-20
2.44717E-02 1.26766E-20
2.51504E-02 1.20408E-20
2.58382E-02 1.14457E-20
2.65349E-02 1.08882E-20
2.72407E-02 1.03655E-20
2.79555E-02 9.87501E-21
2.86793E-02 9.41428E-21
2.94120E-02 8.98116E-21
3.01537E-02 8.57368E-21
3.09043E-02 8.19001E-21
3.16639E-02 7.82847E-21
3.24324E-02 7.48754E-21
3.32098E-02 7.16579E-21
3.39961E-02 6.86193E-21
3.47912E-02 6.57476E-21
3.55952E-02 6.30317E-21
3.64081E-02 6.04614E-21
3.72297E-02 5.80272E-21
3.80602E-02 5.57205E-21
3.88995E-02 5.35330E-21
3.97476E-02 5.14581E-21
4.06044E-02 4.94874E-21
4.14700E-02 4.76158E-21
4.23443E-02 4.58365E-21
4.32273E-02 4.41444E-21
4.41190E-02 4.25342E-21
4.50194E-02 4.10009E-21
4.59284E-02 3.95405E-21
4.68461E-02 3.81481E-21
4.87074E-02 3.55536E-21
5.06030E-02 3.31892E-21
5.25328E-02 3.10303E-21
5.44967E-02 2.90554E-21
5.64946E-02 2.72453E-21
5.85262E-02 2.55835E-21
6.05914E-02 2.40553E-21
6.26901E-02 2.26476E-21
6.48222E-02 2.13488E-21
6.69873E-02 2.01488E-21
6.91854E-02 1.90383E-21
7.14163E-02 1.80092E-21
7.36799E-02 1.70541E-21
7.59760E-02 1.61666E-21
7.83043E-02 1.53408E-21
8.06647E-02 1.45715E-21
8.30571E-02 1.38538E-21
8.54812E-02 1.31836E-21
8.79369E-02 1.25570E-21
9.04240E-02 1.19704E-21
9.29422E-02 1.14206E-21
9.54915E-02 1.09050E-21
9.80716E-02 1.04207E-21
1.00682E-01 9.96552E-22
1.03323E-01 9.53721E-22
1.05995E-01 9.13380E-22
1.08696E-01 8.75351E-22
1.11427E-01 8.39465E-22
1.14188E-01 8.05575E-22
1.16978E-01 7.73540E-22
1.19797E-01 7.43234E-22
1.22645E-01 7.14542E-22
1.25522E-01 6.87352E-22
1.28428E-01 6.61570E-22
1.31361E-01 6.37099E-22
1.34323E-01 6.13860E-22
1.37313E-01 5.91772E-22
1.40330E-01 5.70765E-22
1.43375E-01 5.50771E-22
1.46447E-01 5.31729E-22
1.49545E-01 5.13581E-22
1.52671E-01 4.96273E-22
1.55823E-01 4.79758E-22
1.59001E-01 4.63988E-22
1.62205E-01 4.48922E-22
1.65435E-01 4.34518E-22
1.68690E-01 4.20740E-22
1.71970E-01 4.07554E-22
1.75276E-01 3.94927E-22
1.78606E-01 3.82828E-22
1.81961E-01 3.71230E-22
1.85340E-01 3.60106E-22
1.88743E-01 3.49431E-22
1.92169E-01 3.39182E-22
1.95619E-01 3.29337E-22
1.99092E-01 3.19877E-22
2.02589E-01 3.10780E-22
2.06107E-01 3.02030E-22
2.09649E-01 2.93610E-22
2.13212E-01 2.85503E-22
2.16797E-01 2.77696E-22
2.20404E-01 2.70172E-22
2.24032E-01 2.62920E-22
2.27680E-01 2.55925E-22
2.31350E-01 2.49178E-22
2.35040E-01 2.42666E-22
2.38751E-01 2.36378E-22
2.42481E-01 2.30306E-22
2.46231E-01 2.24438E-22
2.50000E-01 2.18768E-22
2.53788E-01 2.13285E-22
2.57595E-01 2.07981E-22
2.61421E-01 2.02850E-22
2.65264E-01 1.97884E-22
2.69126E-01 1.93075E-22
2.73005E-01 1.88419E-22
2.76901E-01 1.83907E-22
2.80814E-01 1.79535E-22
2.84744E-01 1.75297E-22
2.88691E-01 1.71188E-22
2.92653E-01 1.67202E-22
2.96632E-01 1.63334E-22
3.00625E-01 1.59581E-22
3.04634E-01 1.55937E-22
3.08658E-01 1.52399E-22
3.12697E-01 1.48963E-22
3.16749E-01 1.45624E-22
3.20816E-01 1.42380E-22
3.24896E-01 1.39226E-22
3.28990E-01 1.36160E-22
3.33097E-01 1.33178E-22
3.37216E-01 1.30277E-22
3.41348E-01 1.27455E-22
3.45492E-01 1.24708E-22
3.49647E-01 1.22035E-22
3.53814E-01 1.19432E-22
3.57992E-01 1.16897E-22
3.62181E-01 1.14428E-22
3.66381E-01 1.12022E-22
3.70590E-01 1.09678E-22
3.74810E-01 1.07393E-22
3.79039E-01 1.05166E-22
3.83277E-01 1.02994E-22
3.87524E-01 1.00877E-22
3.91780E-01 9.88109E-23
3.96044E-01 9.67955E-23
4.00316E-01 9.48291E-23
4.04596E-01 9.29099E-23
4.08882E-01 9.10365E-23
4.13176E-01 8.92077E-23
4.17476E-01 8.74218E-23
4.21783E-01 8.56778E-23
4.26095E-01 8.39742E-23
4.30413E-01 8.23098E-23
4.34737E-01 8.06836E-23
4.39065E-01 7.90944E-23
4.43398E-01 7.75412E-23
4.47736E-01 7.60228E-23
4.52077E-01 7.45383E-23
4.56422E-01 7.30867E-23
4.60770E-01 7.16670E-23
4.65122E-01 7.02784E-23
4.69476E-01 6.89201E-23
4.73832E-01 6.75911E-23
4.78190E-01 6.62907E-23
4.82550E-01 6.50179E-23
4.86912E-01 6.37723E-23
4.91274E-01 6.25529E-23
4.95637E-01 6.13591E-23
5.00000E-01 6.01902E-23
5.04363E-01 5.90455E-23
5.08726E-01 5.79244E-23
5.13088E-01 5.68263E-23
5.17450E-01 5.57506E-23
5.21810E-01 5.46967E-23
5.26168E-01 5.36641E-23
5.30524E-01 5.26522E-23
5.34878E-01 5.16605E-23
5.39230E-01 5.06885E-23
5.43578E-01 4.97357E-23
5.47923E-01 4.88016E-23
5.52264E-01 4.78858E-23
5.56602E-01 4.69878E-23
5.60935E-01 4.61072E-23
5.65263E-01 4.52436E-23
5.69587E-01 4.43966E-23
5.73905E-01 4.35657E-23
5.78217E-01 4.27506E-23
5.82524E-01 4.19510E-23
5.86824E-01 4.11664E-23
5.91118E-01 4.03965E-23
5.95404E-01 3.96410E-23
5.99684E-01 3.88996E-23
6.03956E-01 3.81718E-23
6.08220E-01 3.74575E-23
6.12476E-01 3.67563E-23
6.16723E-01 3.60679E-23
6.20961E-01 3.53921E-23
6.25190E-01 3.47286E-23
6.29410E-01 3.40770E-23
6.33619E-01 3.34372E-23
6.37819E-01 3.28088E-23
6.42008E-01 3.21918E-23
6.46186E-01 3.15857E-23
6.50353E-01 3.09903E-23
6.54508E-01 3.04056E-23
6.58652E-01 2.98311E-23
6.62784E-01 2.92667E-23
6.66903E-01 2.87123E-23
6.71010E-01 2.81675E-23
6.75104E-01 2.76323E-23
6.79184E-01 2.71063E-23
6.83251E-01 2.65895E-23
6.87303E-01 2.60816E-23
6.91342E-01 2.55824E-23
6.95366E-01 2.50918E-23
6.99375E-01 2.46097E-23
7.03368E-01 2.41358E-23
7.07347E-01 2.36700E-23
7.11309E-01 2.32121E-23
7.15256E-01 2.27620E-23
7.19186E-01 2.23196E-23
7.23099E-01 2.18846E-23
7.26995E-01 2.14570E-23
7.30874E-01 2.10366E-23
7.34736E-01 2.06233E-23
7.38579E-01 2.02169E-23
7.42405E-01 1.98174E-23
7.46212E-01 1.94245E-23
7.50000E-01 1.90383E-23
7.53769E-01 1.86585E-23
7.57519E-01 1.82850E-23
7.61249E-01 1.79178E-23
7.64960E-01 1.75567E-23
7.68650E-01 1.72016E-23
7.72320E-01 1.68525E-23
7.75968E-01 1.65091E-23
7.79596E-01 1.61715E-23
7.83203E-01 1.58394E-23
7.86788E-01 1.55129E-23
7.90351E-01 1.51918E-23
7.93893E-01 1.48761E-23
7.97411E-01 1.45656E-23
8.00908E-01 1.42603E-23
8.04381E-01 1.39600E-23
8.07831E-01 1.36648E-23
8.11257E-01 1.33744E-23
8.14660E-01 1.30889E-23
8.18039E-01 1.28081E-23
8.21394E-01 1.25321E-23
8.24724E-01 1.22606E-23
8.28030E-01 1.19937E-23
8.31310E-01 1.17313E-23
8.34565E-01 1.14733E-23
8.37795E-01 1.12196E-23
8.40999E-01 1.09701E-23
8.44177E-01 1.07249E-23
8.47329E-01 1.04839E-23
8.50455E-01 1.02469E-23
8.53553E-01 1.00139E-23
8.56625E-01 9.78496E-24
8.59670E-01 9.55989E-24
8.62687E-01 9.33868E-24
8.65677E-01 9.12127E-24
8.68639E-01 8.90762E-24
8.71572E-01 8.69766E-24
8.74478E-01 8.49135E-24
8.77355E-01 8.28864E-24
8.80203E-01 8.08948E-24
8.83022E-01 7.89382E-24
8.85812E-01 7.70162E-24
8.88573E-01 7.51284E-24
8.91304E-01 7.32742E-24
8.94005E-01 7.14533E-24
8.96677E-01 6.96652E-24
8.99318E-01 6.79095E-24
9.01928E-01 6.61859E-24
9.04508E-01 6.44939E-24
9.07058E-01 6.28331E-24
9.09576E-01 6.12032E-24
9.12063E-01 5.96039E-24
9.14519E-01 5.80346E-24
9.16943E-01 5.64952E-24
9.19335E-01 5.49853E-24
9.21696E-01 5.35045E-24
9.24024E-01 5.20524E-24
9.26320E-01 5.06289E-24
9.28584E-01 4.92336E-24
9.30815E-01 4.78661E-24
9.33013E-01 4.65262E-24
9.35178E-01 4.52136E-24
9.37310E-01 4.39280E-24
9.39409E-01 4.26692E-24
9.41474E-01 4.14368E-24
9.43505E-01 4.02307E-24
9.45503E-01 3.90505E-24
9.47467E-01 3.78960E-24
9.49397E-01 3.67670E-24
9.51293E-01 3.56632E-24
9.53154E-01 3.45844E-24
9.54981E-01 3.35304E-24
9.56773E-01 3.25010E-24
9.58530E-01 3.14959E-24
9.60252E-01 3.05149E-24
9.61940E-01 2.95579E-24
9.63592E-01 2.86247E-24
9.65209E-01 2.77150E-24
9.66790E-01 2.68286E-24
9.68336E-01 2.59655E-24
9.69846E-01 2.51254E-24
9.71321E-01 2.43081E-24
9.72759E-01 2.35135E-24
9.74162E-01 2.27415E-24
9.75528E-01 2.19918E-24
9.76858E-01 2.12643E-24
9.78152E-01 2.05589E-24
9.79410E-01 1.98755E-24
9.80631E-01 1.92138E-24
9.81815E-01 1.85739E-24
9.82963E-01 1.79554E-24
9.84074E-01 1.73584E-24
9.85148E-01 1.67827E-24
9.86185E-01 1.62282E-24
9.87185E-01 1.56948E-24
9.88148E-01 1.51824E-24
9.89074E-01 1.46908E-24
9.89962E-01 1.42201E-24
9.90814E-01 1.37700E-24
9.91627E-01 1.33405E-24
9.92404E-01 1.29316E-24
9.93143E-01 1.25431E-24
9.93844E-01 1.21750E-24
9.94508E-01 1.18271E-24
9.95134E-01 1.14995E-24
9.95722E-01 1.11921E-24
9.96273E-01 1.09048E-24
9.96786E-01 1.06375E-24
9.97261E-01 1.03902E-24
9.97698E-01 1.01629E-24
9.98097E-01 9.95553E-25
9.98459E-01 9.76800E-25
9.98782E-01 9.60031E-25
9.99067E-01 9.45242E-25
9.99315E-01 9.32431E-25
9.99524E-01 9.21595E-25
9.99695E-01 9.12731E-25
9.99829E-01 9.05840E-25
9.99924E-01 9.00918E-25
9.99981E-01 8.97965E-25
1.00000E+00 8.96981E-25
