 #
 # Subroutine ELSEPA. Elastic scattering of electrons and positrons
 #                    by neutral atoms and positive ions
 #
 # Projectile: electron
 # Kinetic energy = 1.50000E+08 eV = 5.51240E+06 a.u.
 #
 # WARNING: High-energy factorization with free-atom DF screening.
 #          Absorption, polarization and exchange corrections are
 #          switched off.
 #          Phase shifts are calculated for the bare nucleus.
 #          Scattering amplitudes are not evaluated.
 #
 # Element: Ra,  Z =  88,  atomic weight = 2.26025E+02 g/mol
 #
 # Nuclear model: Fermi distribution
 #                Average radius = 6.51783E-13 cm
 #                Skin thickness = 5.46000E-14 cm
 #
 # Number of electrons = 88
 #
 # Total elastic cross section = 1.11195E-17 cm**2 = 3.97085E-01 a0**2
 # 1st transport cross section = 6.43110E-25 cm**2 = 2.29659E-08 a0**2
 # 2nd transport cross section = 1.92180E-24 cm**2 = 6.86288E-08 a0**2
 #
 #
 # Differential cross section:                       MU=(1-COS(THETA))/2
 #
 #  THETA        MU          DCS          DCS        Sherman      error
 #  (deg)                 (cm**2/sr)   (a0**2/sr)    function
 #----------------------------------------------------------------------
0.00000E+00 3.44435E-09
7.61557E-13 3.40156E-09
1.18994E-12 3.37790E-09
1.71346E-12 3.34935E-09
2.33225E-12 3.31613E-09
3.04617E-12 3.27849E-09
3.85530E-12 3.23669E-09
4.75964E-12 3.19102E-09
5.75917E-12 3.14179E-09
6.85391E-12 3.08933E-09
8.04379E-12 3.03399E-09
9.32893E-12 2.97609E-09
1.07092E-11 2.91632E-09
1.21847E-11 2.85483E-09
1.37554E-11 2.79127E-09
1.54213E-11 2.72590E-09
1.71823E-11 2.66075E-09
1.90386E-11 2.59487E-09
2.09900E-11 2.52797E-09
2.30367E-11 2.46064E-09
2.51785E-11 2.39504E-09
2.74156E-11 2.32909E-09
2.97478E-11 2.26299E-09
3.21752E-11 2.19825E-09
3.46979E-11 2.13512E-09
3.73157E-11 2.07230E-09
4.00286E-11 2.00994E-09
4.28368E-11 1.95042E-09
4.57402E-11 1.89200E-09
4.87388E-11 1.83430E-09
5.18325E-11 1.77792E-09
5.50215E-11 1.72445E-09
5.83057E-11 1.67188E-09
6.16850E-11 1.62028E-09
6.51595E-11 1.57090E-09
6.87293E-11 1.52353E-09
7.23943E-11 1.47717E-09
7.61544E-11 1.43186E-09
1.18991E-10 1.06548E-09
1.71347E-10 8.13638E-10
2.33223E-10 6.37445E-10
3.04617E-10 5.09583E-10
3.85531E-10 4.13290E-10
4.75965E-10 3.38873E-10
5.75917E-10 2.80334E-10
6.85389E-10 2.33707E-10
8.04380E-10 1.96241E-10
9.32891E-10 1.65976E-10
1.07092E-09 1.40766E-10
1.21847E-09 1.20045E-10
1.37554E-09 1.03684E-10
1.54213E-09 9.05988E-11
1.71823E-09 7.88719E-11
1.90386E-09 6.90502E-11
2.09900E-09 6.10045E-11
2.30367E-09 5.42533E-11
2.51785E-09 4.80245E-11
2.74156E-09 4.28205E-11
2.97478E-09 3.84384E-11
3.21752E-09 3.45346E-11
3.46978E-09 3.10273E-11
3.73156E-09 2.80299E-11
4.00286E-09 2.54528E-11
4.28368E-09 2.30576E-11
4.57402E-09 2.09528E-11
4.87388E-09 1.91220E-11
5.18326E-09 1.75005E-11
5.50215E-09 1.59935E-11
5.83057E-09 1.46692E-11
6.16850E-09 1.35006E-11
6.51596E-09 1.24327E-11
6.87293E-09 1.14589E-11
7.23942E-09 1.05924E-11
7.61544E-09 9.81889E-12
1.18991E-08 4.90059E-12
1.71347E-08 2.71986E-12
2.33223E-08 1.62212E-12
3.04617E-08 1.02187E-12
3.85531E-08 6.75494E-13
4.75965E-08 4.65195E-13
5.75917E-08 3.31079E-13
6.85389E-08 2.42310E-13
8.04380E-08 1.81569E-13
9.32891E-08 1.38765E-13
1.07092E-07 1.07800E-13
1.21847E-07 8.51461E-14
1.37554E-07 6.80806E-14
1.54213E-07 5.51327E-14
1.71823E-07 4.51490E-14
1.90386E-07 3.73062E-14
2.09900E-07 3.11094E-14
2.30367E-07 2.61579E-14
2.51785E-07 2.21456E-14
2.74156E-07 1.88752E-14
2.97478E-07 1.61901E-14
3.21752E-07 1.39625E-14
3.46978E-07 1.21034E-14
3.73156E-07 1.05447E-14
4.00286E-07 9.22799E-15
4.28368E-07 8.10875E-15
4.57402E-07 7.15473E-15
4.87388E-07 6.33691E-15
5.18325E-07 5.63156E-15
5.50215E-07 5.02206E-15
5.83057E-07 4.49309E-15
6.16850E-07 4.03133E-15
6.51596E-07 3.62769E-15
6.87293E-07 3.27352E-15
7.23942E-07 2.96135E-15
7.61543E-07 2.68564E-15
1.18991E-06 1.13228E-15
1.71347E-06 5.57196E-16
2.33223E-06 3.05065E-16
3.04617E-06 1.80648E-16
3.85531E-06 1.13631E-16
4.75964E-06 7.49906E-17
5.75916E-06 5.14625E-17
6.85388E-06 3.64803E-17
8.04378E-06 2.65759E-17
9.32888E-06 1.98172E-17
1.07092E-05 1.50777E-17
1.21846E-05 1.16747E-17
1.37553E-05 9.18024E-18
1.54212E-05 7.31807E-18
1.71822E-05 5.90519E-18
1.90385E-05 4.81431E-18
2.09899E-05 3.96977E-18
2.30365E-05 3.30190E-18
2.51783E-05 2.76784E-18
2.74153E-05 2.33683E-18
2.97475E-05 1.98622E-18
3.21749E-05 1.69897E-18
3.46974E-05 1.46199E-18
3.73152E-05 1.26513E-18
4.00281E-05 1.10046E-18
4.28362E-05 9.61795E-19
4.57395E-05 8.44295E-19
4.87380E-05 7.44164E-19
5.18317E-05 6.58404E-19
5.50205E-05 5.84620E-19
5.83045E-05 5.20880E-19
6.16838E-05 4.65602E-19
6.51582E-05 4.17480E-19
6.87277E-05 3.75432E-19
7.23925E-05 3.38557E-19
7.61524E-05 3.06169E-19
9.21439E-05 2.09555E-19
1.09658E-04 1.48245E-19
1.28695E-04 1.07832E-19
1.49255E-04 8.03166E-20
1.71338E-04 6.10575E-20
1.94942E-04 4.72514E-20
2.20070E-04 3.71443E-20
2.46720E-04 2.96070E-20
2.74892E-04 2.38937E-20
3.04586E-04 1.94981E-20
3.35803E-04 1.60719E-20
3.68542E-04 1.33687E-20
4.02802E-04 1.12129E-20
4.38585E-04 9.47637E-21
4.75889E-04 8.06470E-21
5.14715E-04 6.90763E-21
5.55063E-04 5.95172E-21
5.96931E-04 5.15641E-21
6.40321E-04 4.49026E-21
6.85233E-04 3.92883E-21
7.31665E-04 3.45294E-21
7.79618E-04 3.04734E-21
8.29092E-04 2.69992E-21
8.80086E-04 2.40088E-21
9.32601E-04 2.14236E-21
9.86636E-04 1.91791E-21
1.04219E-03 1.72227E-21
1.09927E-03 1.55110E-21
1.15786E-03 1.40081E-21
1.21797E-03 1.26846E-21
1.27961E-03 1.15136E-21
1.34276E-03 1.04750E-21
1.40743E-03 9.55151E-22
1.47362E-03 8.72800E-22
1.54133E-03 7.99174E-22
1.61056E-03 7.33180E-22
1.68131E-03 6.73885E-22
1.75357E-03 6.20485E-22
1.82735E-03 5.72286E-22
1.90265E-03 5.28690E-22
1.97947E-03 4.89177E-22
2.05780E-03 4.53293E-22
2.13765E-03 4.20645E-22
2.21902E-03 3.90886E-22
2.30190E-03 3.63715E-22
2.38630E-03 3.38863E-22
2.47222E-03 3.16096E-22
2.55965E-03 2.95207E-22
2.64859E-03 2.76013E-22
2.73905E-03 2.58350E-22
2.83103E-03 2.42072E-22
2.92452E-03 2.27053E-22
3.01952E-03 2.13175E-22
3.11604E-03 2.00336E-22
3.21407E-03 1.88443E-22
3.31362E-03 1.77414E-22
3.41468E-03 1.67175E-22
3.51725E-03 1.57658E-22
3.62133E-03 1.48802E-22
3.72692E-03 1.40554E-22
3.83403E-03 1.32863E-22
3.94265E-03 1.25685E-22
4.05278E-03 1.18980E-22
4.16442E-03 1.12710E-22
4.27757E-03 1.06842E-22
4.39223E-03 1.01345E-22
4.50840E-03 9.61920E-23
4.62608E-03 9.13567E-23
4.74527E-03 8.68161E-23
4.86597E-03 8.25489E-23
4.98817E-03 7.85356E-23
5.11188E-03 7.47582E-23
5.23711E-03 7.12004E-23
5.36383E-03 6.78470E-23
5.49207E-03 6.46841E-23
5.62181E-03 6.16989E-23
5.75306E-03 5.88795E-23
5.88581E-03 5.62151E-23
6.02007E-03 5.36956E-23
6.15583E-03 5.13116E-23
6.29310E-03 4.90545E-23
6.43187E-03 4.69164E-23
6.57214E-03 4.48898E-23
6.71392E-03 4.29679E-23
6.85720E-03 4.11442E-23
7.00198E-03 3.94129E-23
7.14827E-03 3.77684E-23
7.29605E-03 3.62056E-23
7.44534E-03 3.47197E-23
7.59612E-03 3.33062E-23
7.97965E-03 3.00629E-23
8.37255E-03 2.71891E-23
8.77480E-03 2.46362E-23
9.18641E-03 2.23624E-23
9.60736E-03 2.03324E-23
1.00376E-02 1.85160E-23
1.04773E-02 1.68871E-23
1.09262E-02 1.54234E-23
1.13844E-02 1.41056E-23
1.18520E-02 1.29168E-23
1.23288E-02 1.18427E-23
1.28150E-02 1.08704E-23
1.33104E-02 9.98888E-24
1.38150E-02 9.18845E-24
1.43290E-02 8.46057E-24
1.48521E-02 7.79773E-24
1.53845E-02 7.19331E-24
1.59262E-02 6.64144E-24
1.64770E-02 6.13693E-24
1.70371E-02 5.67519E-24
1.76063E-02 5.25209E-24
1.81848E-02 4.86400E-24
1.87724E-02 4.50764E-24
1.93692E-02 4.18010E-24
1.99751E-02 3.87875E-24
2.05901E-02 3.60125E-24
2.12143E-02 3.34549E-24
2.18476E-02 3.10956E-24
2.24900E-02 2.89176E-24
2.31415E-02 2.69053E-24
2.38021E-02 2.50448E-24
2.44717E-02 2.33233E-24
2.51504E-02 2.17294E-24
2.58382E-02 2.02527E-24
2.65349E-02 1.88837E-24
2.72407E-02 1.76137E-24
2.79555E-02 1.64350E-24
2.86793E-02 1.53403E-24
2.94120E-02 1.43231E-24
3.01537E-02 1.33775E-24
3.09043E-02 1.24980E-24
3.16639E-02 1.16795E-24
3.24324E-02 1.09175E-24
3.32098E-02 1.02078E-24
3.39961E-02 9.54655E-25
3.47912E-02 8.93015E-25
3.55952E-02 8.35535E-25
3.64081E-02 7.81916E-25
3.72297E-02 7.31881E-25
3.80602E-02 6.85174E-25
3.88995E-02 6.41560E-25
3.97476E-02 6.00823E-25
4.06044E-02 5.62760E-25
4.14700E-02 5.27188E-25
4.23443E-02 4.93933E-25
4.32273E-02 4.62838E-25
4.41190E-02 4.33755E-25
4.50194E-02 4.06547E-25
4.59284E-02 3.81089E-25
4.68461E-02 3.57263E-25
4.87074E-02 3.14078E-25
5.06030E-02 2.76210E-25
5.25328E-02 2.42984E-25
5.44967E-02 2.13815E-25
5.64946E-02 1.88194E-25
5.85262E-02 1.65681E-25
6.05914E-02 1.45891E-25
6.26901E-02 1.28490E-25
6.48222E-02 1.13186E-25
6.69873E-02 9.97224E-26
6.91854E-02 8.78772E-26
7.14163E-02 7.74544E-26
7.36799E-02 6.82827E-26
7.59760E-02 6.02116E-26
7.83043E-02 5.31090E-26
8.06647E-02 4.68590E-26
8.30571E-02 4.13594E-26
8.54812E-02 3.65205E-26
8.79369E-02 3.22633E-26
9.04240E-02 2.85182E-26
9.29422E-02 2.52239E-26
9.54915E-02 2.23264E-26
9.80716E-02 1.97781E-26
1.00682E-01 1.75370E-26
1.03323E-01 1.55661E-26
1.05995E-01 1.38329E-26
1.08696E-01 1.23087E-26
1.11427E-01 1.09680E-26
1.14188E-01 9.78854E-27
1.16978E-01 8.75069E-27
1.19797E-01 7.83712E-27
1.22645E-01 7.03257E-27
1.25522E-01 6.32361E-27
1.28428E-01 5.69845E-27
1.31361E-01 5.14669E-27
1.34323E-01 4.65923E-27
1.37313E-01 4.22804E-27
1.40330E-01 3.84611E-27
1.43375E-01 3.50726E-27
1.46447E-01 3.20609E-27
1.49545E-01 2.93788E-27
1.52671E-01 2.69849E-27
1.55823E-01 2.48430E-27
1.59001E-01 2.29217E-27
1.62205E-01 2.11934E-27
1.65435E-01 1.96340E-27
1.68690E-01 1.82229E-27
1.71970E-01 1.69417E-27
1.75276E-01 1.57747E-27
1.78606E-01 1.47083E-27
1.81961E-01 1.37306E-27
1.85340E-01 1.28313E-27
1.88743E-01 1.20016E-27
1.92169E-01 1.12337E-27
1.95619E-01 1.05210E-27
1.99092E-01 9.85771E-28
2.02589E-01 9.23897E-28
2.06107E-01 8.66044E-28
2.09649E-01 8.11841E-28
2.13212E-01 7.60969E-28
2.16797E-01 7.13149E-28
2.20404E-01 6.68139E-28
2.24032E-01 6.25729E-28
2.27680E-01 5.85736E-28
2.31350E-01 5.47998E-28
2.35040E-01 5.12373E-28
2.38751E-01 4.78735E-28
2.42481E-01 4.46971E-28
2.46231E-01 4.16980E-28
2.50000E-01 3.88670E-28
2.53788E-01 3.61957E-28
2.57595E-01 3.36764E-28
2.61421E-01 3.13020E-28
2.65264E-01 2.90658E-28
2.69126E-01 2.69614E-28
2.73005E-01 2.49829E-28
2.76901E-01 2.31247E-28
2.80814E-01 2.13812E-28
2.84744E-01 1.97471E-28
2.88691E-01 1.82175E-28
2.92653E-01 1.67874E-28
2.96632E-01 1.54521E-28
3.00625E-01 1.42069E-28
3.04634E-01 1.30474E-28
3.08658E-01 1.19692E-28
3.12697E-01 1.09680E-28
3.16749E-01 1.00398E-28
3.20816E-01 9.18044E-29
3.24896E-01 8.38617E-29
3.28990E-01 7.65319E-29
3.33097E-01 6.97788E-29
3.37216E-01 6.35673E-29
3.41348E-01 5.78636E-29
3.45492E-01 5.26352E-29
3.49647E-01 4.78509E-29
3.53814E-01 4.34807E-29
3.57992E-01 3.94962E-29
3.62181E-01 3.58698E-29
3.66381E-01 3.25756E-29
3.70590E-01 2.95888E-29
3.74810E-01 2.68859E-29
3.79039E-01 2.44446E-29
3.83277E-01 2.22440E-29
3.87524E-01 2.02642E-29
3.91780E-01 1.84865E-29
3.96044E-01 1.68935E-29
4.00316E-01 1.54687E-29
4.04596E-01 1.41967E-29
4.08882E-01 1.30634E-29
4.13176E-01 1.20554E-29
4.17476E-01 1.11603E-29
4.21783E-01 1.03668E-29
4.26095E-01 9.66422E-30
4.30413E-01 9.04289E-30
4.34737E-01 8.49387E-30
4.39065E-01 8.00898E-30
4.43398E-01 7.58072E-30
4.47736E-01 7.20230E-30
4.52077E-01 6.86751E-30
4.56422E-01 6.57077E-30
4.60770E-01 6.30700E-30
4.65122E-01 6.07167E-30
4.69476E-01 5.86071E-30
4.73832E-01 5.67048E-30
4.78190E-01 5.49777E-30
4.82550E-01 5.33972E-30
4.86912E-01 5.19383E-30
4.91274E-01 5.05790E-30
4.95637E-01 4.93005E-30
5.00000E-01 4.80862E-30
5.04363E-01 4.69222E-30
5.08726E-01 4.57965E-30
5.13088E-01 4.46993E-30
5.17450E-01 4.36224E-30
5.21810E-01 4.25590E-30
5.26168E-01 4.15039E-30
5.30524E-01 4.04530E-30
5.34878E-01 3.94032E-30
5.39230E-01 3.83524E-30
5.43578E-01 3.72993E-30
5.47923E-01 3.62433E-30
5.52264E-01 3.51842E-30
5.56602E-01 3.41226E-30
5.60935E-01 3.30591E-30
5.65263E-01 3.19950E-30
5.69587E-01 3.09316E-30
5.73905E-01 2.98706E-30
5.78217E-01 2.88135E-30
5.82524E-01 2.77623E-30
5.86824E-01 2.67187E-30
5.91118E-01 2.56846E-30
5.95404E-01 2.46619E-30
5.99684E-01 2.36523E-30
6.03956E-01 2.26577E-30
6.08220E-01 2.16795E-30
6.12476E-01 2.07194E-30
6.16723E-01 1.97788E-30
6.20961E-01 1.88591E-30
6.25190E-01 1.79613E-30
6.29410E-01 1.70866E-30
6.33619E-01 1.62358E-30
6.37819E-01 1.54099E-30
6.42008E-01 1.46094E-30
6.46186E-01 1.38349E-30
6.50353E-01 1.30868E-30
6.54508E-01 1.23654E-30
6.58652E-01 1.16709E-30
6.62784E-01 1.10033E-30
6.66903E-01 1.03627E-30
6.71010E-01 9.74896E-31
6.75104E-01 9.16179E-31
6.79184E-01 8.60094E-31
6.83251E-01 8.06605E-31
6.87303E-01 7.55667E-31
6.91342E-01 7.07232E-31
6.95366E-01 6.61245E-31
6.99375E-01 6.17646E-31
7.03368E-01 5.76371E-31
7.07347E-01 5.37353E-31
7.11309E-01 5.00521E-31
7.15256E-01 4.65804E-31
7.19186E-01 4.33127E-31
7.23099E-01 4.02413E-31
7.26995E-01 3.73586E-31
7.30874E-01 3.46568E-31
7.34736E-01 3.21281E-31
7.38579E-01 2.97649E-31
7.42405E-01 2.75595E-31
7.46212E-01 2.55042E-31
7.50000E-01 2.35915E-31
7.53769E-01 2.18142E-31
7.57519E-01 2.01649E-31
7.61249E-01 1.86366E-31
7.64960E-01 1.72226E-31
7.68650E-01 1.59161E-31
7.72320E-01 1.47106E-31
7.75968E-01 1.36001E-31
7.79596E-01 1.25785E-31
7.83203E-01 1.16400E-31
7.86788E-01 1.07790E-31
7.90351E-01 9.99041E-32
7.93893E-01 9.26906E-32
7.97411E-01 8.61015E-32
8.00908E-01 8.00911E-32
8.04381E-01 7.46159E-32
8.07831E-01 6.96349E-32
8.11257E-01 6.51092E-32
8.14660E-01 6.10021E-32
8.18039E-01 5.72791E-32
8.21394E-01 5.39077E-32
8.24724E-01 5.08576E-32
8.28030E-01 4.81003E-32
8.31310E-01 4.56092E-32
8.34565E-01 4.33596E-32
8.37795E-01 4.13285E-32
8.40999E-01 3.94944E-32
8.44177E-01 3.78376E-32
8.47329E-01 3.63399E-32
8.50455E-01 3.49843E-32
8.53553E-01 3.37553E-32
8.56625E-01 3.26388E-32
8.59670E-01 3.16218E-32
8.62687E-01 3.06924E-32
8.65677E-01 2.98397E-32
8.68639E-01 2.90539E-32
8.71572E-01 2.83263E-32
8.74478E-01 2.76487E-32
8.77355E-01 2.70141E-32
8.80203E-01 2.64160E-32
8.83022E-01 2.58486E-32
8.85812E-01 2.53069E-32
8.88573E-01 2.47864E-32
8.91304E-01 2.42832E-32
8.94005E-01 2.37938E-32
8.96677E-01 2.33152E-32
8.99318E-01 2.28450E-32
9.01928E-01 2.23808E-32
9.04508E-01 2.19210E-32
9.07058E-01 2.14640E-32
9.09576E-01 2.10086E-32
9.12063E-01 2.05537E-32
9.14519E-01 2.00987E-32
9.16943E-01 1.96429E-32
9.19335E-01 1.91860E-32
9.21696E-01 1.87279E-32
9.24024E-01 1.82683E-32
9.26320E-01 1.78073E-32
9.28584E-01 1.73451E-32
9.30815E-01 1.68819E-32
9.33013E-01 1.64179E-32
9.35178E-01 1.59536E-32
9.37310E-01 1.54893E-32
9.39409E-01 1.50254E-32
9.41474E-01 1.45624E-32
9.43505E-01 1.41008E-32
9.45503E-01 1.36410E-32
9.47467E-01 1.31837E-32
9.49397E-01 1.27293E-32
9.51293E-01 1.22782E-32
9.53154E-01 1.18310E-32
9.54981E-01 1.13882E-32
9.56773E-01 1.09503E-32
9.58530E-01 1.05176E-32
9.60252E-01 1.00906E-32
9.61940E-01 9.66975E-33
9.63592E-01 9.25543E-33
9.65209E-01 8.84799E-33
9.66790E-01 8.44778E-33
9.68336E-01 8.05512E-33
9.69846E-01 7.67031E-33
9.71321E-01 7.29362E-33
9.72759E-01 6.92531E-33
9.74162E-01 6.56560E-33
9.75528E-01 6.21470E-33
9.76858E-01 5.87279E-33
9.78152E-01 5.54005E-33
9.79410E-01 5.21661E-33
9.80631E-01 4.90260E-33
9.81815E-01 4.59814E-33
9.82963E-01 4.30331E-33
9.84074E-01 4.01819E-33
9.85148E-01 3.74285E-33
9.86185E-01 3.47733E-33
9.87185E-01 3.22167E-33
9.88148E-01 2.97590E-33
9.89074E-01 2.74003E-33
9.89962E-01 2.51407E-33
9.90814E-01 2.29802E-33
9.91627E-01 2.09186E-33
9.92404E-01 1.89560E-33
9.93143E-01 1.70920E-33
9.93844E-01 1.53263E-33
9.94508E-01 1.36588E-33
9.95134E-01 1.20891E-33
9.95722E-01 1.06169E-33
9.96273E-01 9.24181E-34
9.96786E-01 7.96349E-34
9.97261E-01 6.78158E-34
9.97698E-01 5.69575E-34
9.98097E-01 4.70563E-34
9.98459E-01 3.81092E-34
9.98782E-01 3.01128E-34
9.99067E-01 2.30645E-34
9.99315E-01 1.69615E-34
9.99524E-01 1.18015E-34
9.99695E-01 7.58255E-35
9.99829E-01 4.30292E-35
9.99924E-01 1.96130E-35
9.99981E-01 5.56700E-36
1.00000E+00 8.85819E-37
