 #
 # Subroutine ELSEPA. Elastic scattering of electrons and positrons
 #                    by neutral atoms and positive ions
 #
 # Projectile: electron
 # Kinetic energy = 1.00000E+07 eV = 3.67493E+05 a.u.
 #
 # WARNING: High-energy factorization with free-atom DF screening.
 #          Absorption, polarization and exchange corrections are
 #          switched off.
 #          Phase shifts are calculated for the bare nucleus.
 #          Scattering amplitudes are not evaluated.
 #
 # Element: Ra,  Z =  88,  atomic weight = 2.26025E+02 g/mol
 #
 # Nuclear model: Fermi distribution
 #                Average radius = 6.51783E-13 cm
 #                Skin thickness = 5.46000E-14 cm
 #
 # Number of electrons = 88
 #
 # Total elastic cross section = 1.11507E-17 cm**2 = 3.98200E-01 a0**2
 # 1st transport cross section = 1.27353E-22 cm**2 = 4.54787E-06 a0**2
 # 2nd transport cross section = 3.45514E-22 cm**2 = 1.23385E-05 a0**2
 #
 #
 # Differential cross section:                       MU=(1-COS(THETA))/2
 #
 #  THETA        MU          DCS          DCS        Sherman      error
 #  (deg)                 (cm**2/sr)   (a0**2/sr)    function
 #----------------------------------------------------------------------
0.00000E+00 1.67981E-11
7.61557E-13 1.67970E-11
1.18994E-12 1.67964E-11
1.71346E-12 1.67957E-11
2.33225E-12 1.67949E-11
3.04617E-12 1.67939E-11
3.85530E-12 1.67928E-11
4.75964E-12 1.67916E-11
5.75917E-12 1.67903E-11
6.85391E-12 1.67888E-11
8.04379E-12 1.67872E-11
9.32893E-12 1.67855E-11
1.07092E-11 1.67836E-11
1.21847E-11 1.67816E-11
1.37554E-11 1.67795E-11
1.54213E-11 1.67773E-11
1.71823E-11 1.67749E-11
1.90386E-11 1.67724E-11
2.09900E-11 1.67698E-11
2.30367E-11 1.67671E-11
2.51785E-11 1.67642E-11
2.74156E-11 1.67612E-11
2.97478E-11 1.67581E-11
3.21752E-11 1.67548E-11
3.46979E-11 1.67514E-11
3.73157E-11 1.67479E-11
4.00286E-11 1.67443E-11
4.28368E-11 1.67405E-11
4.57402E-11 1.67366E-11
4.87388E-11 1.67326E-11
5.18325E-11 1.67285E-11
5.50215E-11 1.67242E-11
5.83057E-11 1.67198E-11
6.16850E-11 1.67153E-11
6.51595E-11 1.67107E-11
6.87293E-11 1.67059E-11
7.23943E-11 1.67010E-11
7.61544E-11 1.66960E-11
1.18991E-10 1.66391E-11
1.71347E-10 1.65700E-11
2.33223E-10 1.64889E-11
3.04617E-10 1.63962E-11
3.85531E-10 1.62922E-11
4.75965E-10 1.61773E-11
5.75917E-10 1.60518E-11
6.85389E-10 1.59162E-11
8.04380E-10 1.57711E-11
9.32891E-10 1.56168E-11
1.07092E-09 1.54538E-11
1.21847E-09 1.52828E-11
1.37554E-09 1.51043E-11
1.54213E-09 1.49188E-11
1.71823E-09 1.47268E-11
1.90386E-09 1.45290E-11
2.09900E-09 1.43262E-11
2.30367E-09 1.41209E-11
2.51785E-09 1.39103E-11
2.74156E-09 1.36948E-11
2.97478E-09 1.34748E-11
3.21752E-09 1.32509E-11
3.46978E-09 1.30300E-11
3.73156E-09 1.28072E-11
4.00286E-09 1.25816E-11
4.28368E-09 1.23538E-11
4.57402E-09 1.21241E-11
4.87388E-09 1.18987E-11
5.18326E-09 1.16752E-11
5.50215E-09 1.14510E-11
5.83057E-09 1.12263E-11
6.16850E-09 1.10014E-11
6.51596E-09 1.07805E-11
6.87293E-09 1.05655E-11
7.23942E-09 1.03511E-11
7.61544E-09 1.01374E-11
1.18991E-08 8.18583E-12
1.71347E-08 6.60406E-12
2.33223E-08 5.37391E-12
3.04617E-08 4.42924E-12
3.85531E-08 3.69963E-12
4.75965E-08 3.12728E-12
5.75917E-08 2.66968E-12
6.85389E-08 2.29696E-12
8.04380E-08 1.98858E-12
9.32891E-08 1.73050E-12
1.07092E-07 1.51260E-12
1.21847E-07 1.32742E-12
1.37554E-07 1.16928E-12
1.54213E-07 1.03368E-12
1.71823E-07 9.17024E-13
1.90386E-07 8.16345E-13
2.09900E-07 7.28687E-13
2.30367E-07 6.49009E-13
2.51785E-07 5.81842E-13
2.74156E-07 5.24848E-13
2.97478E-07 4.76184E-13
3.21752E-07 4.34382E-13
3.46978E-07 3.93827E-13
3.73156E-07 3.58183E-13
4.00286E-07 3.27268E-13
4.28368E-07 3.00324E-13
4.57402E-07 2.76732E-13
4.87388E-07 2.54363E-13
5.18325E-07 2.33833E-13
5.50215E-07 2.15719E-13
5.83057E-07 1.99676E-13
6.16850E-07 1.85415E-13
6.51596E-07 1.72133E-13
6.87293E-07 1.59527E-13
7.23942E-07 1.48254E-13
7.61543E-07 1.38141E-13
1.18991E-06 7.23564E-14
1.71347E-06 4.16643E-14
2.33223E-06 2.57892E-14
3.04617E-06 1.68370E-14
3.85531E-06 1.14382E-14
4.75964E-06 8.02109E-15
5.75916E-06 5.77738E-15
6.85388E-06 4.26121E-15
8.04378E-06 3.21559E-15
9.32888E-06 2.47436E-15
1.07092E-05 1.93591E-15
1.21846E-05 1.53715E-15
1.37553E-05 1.23688E-15
1.54212E-05 1.00709E-15
1.71822E-05 8.28510E-16
1.90385E-05 6.87406E-16
2.09899E-05 5.75886E-16
2.30365E-05 4.85729E-16
2.51783E-05 4.13147E-16
2.74153E-05 3.53004E-16
2.97475E-05 3.03804E-16
3.21749E-05 2.62645E-16
3.46974E-05 2.28471E-16
3.73152E-05 1.99604E-16
4.00281E-05 1.75288E-16
4.28362E-05 1.54525E-16
4.57395E-05 1.36796E-16
4.87380E-05 1.21511E-16
5.18317E-05 1.08312E-16
5.50205E-05 9.68469E-17
5.83045E-05 8.68580E-17
6.16838E-05 7.81276E-17
6.51582E-05 7.04614E-17
6.87277E-05 6.37213E-17
7.23925E-05 5.77579E-17
7.61524E-05 5.24801E-17
9.21439E-05 3.65299E-17
1.09658E-04 2.61953E-17
1.28695E-04 1.92698E-17
1.49255E-04 1.44911E-17
1.71338E-04 1.11087E-17
1.94942E-04 8.66030E-18
2.20070E-04 6.85234E-18
2.46720E-04 5.49346E-18
2.74892E-04 4.45601E-18
3.04586E-04 3.65256E-18
3.35803E-04 3.02254E-18
3.68542E-04 2.52274E-18
4.02802E-04 2.12214E-18
4.38585E-04 1.79799E-18
4.75889E-04 1.53341E-18
5.14715E-04 1.31578E-18
5.55063E-04 1.13541E-18
5.96931E-04 9.84919E-19
6.40321E-04 8.58561E-19
6.85233E-04 7.51837E-19
7.31665E-04 6.61206E-19
7.79618E-04 5.83834E-19
8.29092E-04 5.17469E-19
8.80086E-04 4.60281E-19
9.32601E-04 4.10789E-19
9.86636E-04 3.67785E-19
1.04219E-03 3.30272E-19
1.09927E-03 2.97433E-19
1.15786E-03 2.68584E-19
1.21797E-03 2.43158E-19
1.27961E-03 2.20678E-19
1.34276E-03 2.00744E-19
1.40743E-03 1.83017E-19
1.47362E-03 1.67210E-19
1.54133E-03 1.53079E-19
1.61056E-03 1.40414E-19
1.68131E-03 1.29037E-19
1.75357E-03 1.18793E-19
1.82735E-03 1.09550E-19
1.90265E-03 1.01192E-19
1.97947E-03 9.36188E-20
2.05780E-03 8.67441E-20
2.13765E-03 8.04912E-20
2.21902E-03 7.47946E-20
2.30190E-03 6.95956E-20
2.38630E-03 6.48424E-20
2.47222E-03 6.04898E-20
2.55965E-03 5.64983E-20
2.64859E-03 5.28324E-20
2.73905E-03 4.94607E-20
2.83103E-03 4.63547E-20
2.92452E-03 4.34902E-20
3.01952E-03 4.08448E-20
3.11604E-03 3.83988E-20
3.21407E-03 3.61340E-20
3.31362E-03 3.40347E-20
3.41468E-03 3.20867E-20
3.51725E-03 3.02770E-20
3.62133E-03 2.85938E-20
3.72692E-03 2.70267E-20
3.83403E-03 2.55663E-20
3.94265E-03 2.42038E-20
4.05278E-03 2.29316E-20
4.16442E-03 2.17424E-20
4.27757E-03 2.06298E-20
4.39223E-03 1.95881E-20
4.50840E-03 1.86118E-20
4.62608E-03 1.76960E-20
4.74527E-03 1.68363E-20
4.86597E-03 1.60286E-20
4.98817E-03 1.52692E-20
5.11188E-03 1.45546E-20
5.23711E-03 1.38816E-20
5.36383E-03 1.32475E-20
5.49207E-03 1.26495E-20
5.62181E-03 1.20852E-20
5.75306E-03 1.15523E-20
5.88581E-03 1.10487E-20
6.02007E-03 1.05725E-20
6.15583E-03 1.01220E-20
6.29310E-03 9.69543E-21
6.43187E-03 9.29134E-21
6.57214E-03 8.90832E-21
6.71392E-03 8.54506E-21
6.85720E-03 8.20031E-21
7.00198E-03 7.87298E-21
7.14827E-03 7.56200E-21
7.29605E-03 7.26641E-21
7.44534E-03 6.98530E-21
7.59612E-03 6.71781E-21
7.97965E-03 6.10367E-21
8.37255E-03 5.55897E-21
8.77480E-03 5.07446E-21
9.18641E-03 4.64228E-21
9.60736E-03 4.25578E-21
1.00376E-02 3.90925E-21
1.04773E-02 3.59781E-21
1.09262E-02 3.31725E-21
1.13844E-02 3.06395E-21
1.18520E-02 2.83478E-21
1.23288E-02 2.62701E-21
1.28150E-02 2.43828E-21
1.33104E-02 2.26651E-21
1.38150E-02 2.10989E-21
1.43290E-02 1.96684E-21
1.48521E-02 1.83596E-21
1.53845E-02 1.71602E-21
1.59262E-02 1.60594E-21
1.64770E-02 1.50474E-21
1.70371E-02 1.41157E-21
1.76063E-02 1.32568E-21
1.81848E-02 1.24639E-21
1.87724E-02 1.17308E-21
1.93692E-02 1.10523E-21
1.99751E-02 1.04235E-21
2.05901E-02 9.83995E-22
2.12143E-02 9.29785E-22
2.18476E-02 8.79365E-22
2.24900E-02 8.32418E-22
2.31415E-02 7.88658E-22
2.38021E-02 7.47824E-22
2.44717E-02 7.09684E-22
2.51504E-02 6.74022E-22
2.58382E-02 6.40647E-22
2.65349E-02 6.09382E-22
2.72407E-02 5.80067E-22
2.79555E-02 5.52555E-22
2.86793E-02 5.26714E-22
2.94120E-02 5.02420E-22
3.01537E-02 4.79563E-22
3.09043E-02 4.58040E-22
3.16639E-02 4.37758E-22
3.24324E-02 4.18629E-22
3.32098E-02 4.00576E-22
3.39961E-02 3.83524E-22
3.47912E-02 3.67407E-22
3.55952E-02 3.52162E-22
3.64081E-02 3.37734E-22
3.72297E-02 3.24069E-22
3.80602E-02 3.11117E-22
3.88995E-02 2.98835E-22
3.97476E-02 2.87180E-22
4.06044E-02 2.76112E-22
4.14700E-02 2.65597E-22
4.23443E-02 2.55601E-22
4.32273E-02 2.46093E-22
4.41190E-02 2.37044E-22
4.50194E-02 2.28426E-22
4.59284E-02 2.20216E-22
4.68461E-02 2.12388E-22
4.87074E-02 1.97799E-22
5.06030E-02 1.84501E-22
5.25328E-02 1.72355E-22
5.44967E-02 1.61242E-22
5.64946E-02 1.51054E-22
5.85262E-02 1.41700E-22
6.05914E-02 1.33095E-22
6.26901E-02 1.25168E-22
6.48222E-02 1.17854E-22
6.69873E-02 1.11094E-22
6.91854E-02 1.04838E-22
7.14163E-02 9.90410E-23
7.36799E-02 9.36605E-23
7.59760E-02 8.86604E-23
7.83043E-02 8.40083E-23
8.06647E-02 7.96744E-23
8.30571E-02 7.56317E-23
8.54812E-02 7.18569E-23
8.79369E-02 6.83280E-23
9.04240E-02 6.50248E-23
9.29422E-02 6.19305E-23
9.54915E-02 5.90285E-23
9.80716E-02 5.63037E-23
1.00682E-01 5.37436E-23
1.03323E-01 5.13353E-23
1.05995E-01 4.90679E-23
1.08696E-01 4.69314E-23
1.11427E-01 4.49164E-23
1.14188E-01 4.30142E-23
1.16978E-01 4.12173E-23
1.19797E-01 3.95182E-23
1.22645E-01 3.79105E-23
1.25522E-01 3.63882E-23
1.28428E-01 3.49455E-23
1.31361E-01 3.35773E-23
1.34323E-01 3.22789E-23
1.37313E-01 3.10459E-23
1.40330E-01 2.98741E-23
1.43375E-01 2.87599E-23
1.46447E-01 2.76996E-23
1.49545E-01 2.66901E-23
1.52671E-01 2.57283E-23
1.55823E-01 2.48114E-23
1.59001E-01 2.39369E-23
1.62205E-01 2.31023E-23
1.65435E-01 2.23053E-23
1.68690E-01 2.15439E-23
1.71970E-01 2.08160E-23
1.75276E-01 2.01198E-23
1.78606E-01 1.94536E-23
1.81961E-01 1.88158E-23
1.85340E-01 1.82049E-23
1.88743E-01 1.76195E-23
1.92169E-01 1.70582E-23
1.95619E-01 1.65198E-23
1.99092E-01 1.60032E-23
2.02589E-01 1.55073E-23
2.06107E-01 1.50309E-23
2.09649E-01 1.45733E-23
2.13212E-01 1.41333E-23
2.16797E-01 1.37103E-23
2.20404E-01 1.33034E-23
2.24032E-01 1.29118E-23
2.27680E-01 1.25348E-23
2.31350E-01 1.21718E-23
2.35040E-01 1.18220E-23
2.38751E-01 1.14850E-23
2.42481E-01 1.11601E-23
2.46231E-01 1.08469E-23
2.50000E-01 1.05447E-23
2.53788E-01 1.02531E-23
2.57595E-01 9.97112E-24
2.61421E-01 9.69887E-24
2.65264E-01 9.43588E-24
2.69126E-01 9.18177E-24
2.73005E-01 8.93615E-24
2.76901E-01 8.69868E-24
2.80814E-01 8.46902E-24
2.84744E-01 8.24685E-24
2.88691E-01 8.03187E-24
2.92653E-01 7.82378E-24
2.96632E-01 7.62232E-24
3.00625E-01 7.42722E-24
3.04634E-01 7.23822E-24
3.08658E-01 7.05510E-24
3.12697E-01 6.87763E-24
3.16749E-01 6.70559E-24
3.20816E-01 6.53877E-24
3.24896E-01 6.37698E-24
3.28990E-01 6.22003E-24
3.33097E-01 6.06774E-24
3.37216E-01 5.91994E-24
3.41348E-01 5.77646E-24
3.45492E-01 5.63715E-24
3.49647E-01 5.50186E-24
3.53814E-01 5.37045E-24
3.57992E-01 5.24277E-24
3.62181E-01 5.11870E-24
3.66381E-01 4.99811E-24
3.70590E-01 4.88087E-24
3.74810E-01 4.76688E-24
3.79039E-01 4.65603E-24
3.83277E-01 4.54820E-24
3.87524E-01 4.44330E-24
3.91780E-01 4.34122E-24
3.96044E-01 4.24188E-24
4.00316E-01 4.14518E-24
4.04596E-01 4.05103E-24
4.08882E-01 3.95936E-24
4.13176E-01 3.87008E-24
4.17476E-01 3.78312E-24
4.21783E-01 3.69841E-24
4.26095E-01 3.61586E-24
4.30413E-01 3.53542E-24
4.34737E-01 3.45701E-24
4.39065E-01 3.38058E-24
4.43398E-01 3.30607E-24
4.47736E-01 3.23341E-24
4.52077E-01 3.16254E-24
4.56422E-01 3.09342E-24
4.60770E-01 3.02600E-24
4.65122E-01 2.96021E-24
4.69476E-01 2.89602E-24
4.73832E-01 2.83337E-24
4.78190E-01 2.77222E-24
4.82550E-01 2.71252E-24
4.86912E-01 2.65425E-24
4.91274E-01 2.59734E-24
4.95637E-01 2.54177E-24
5.00000E-01 2.48749E-24
5.04363E-01 2.43448E-24
5.08726E-01 2.38268E-24
5.13088E-01 2.33208E-24
5.17450E-01 2.28263E-24
5.21810E-01 2.23431E-24
5.26168E-01 2.18708E-24
5.30524E-01 2.14092E-24
5.34878E-01 2.09579E-24
5.39230E-01 2.05167E-24
5.43578E-01 2.00853E-24
5.47923E-01 1.96634E-24
5.52264E-01 1.92508E-24
5.56602E-01 1.88472E-24
5.60935E-01 1.84524E-24
5.65263E-01 1.80662E-24
5.69587E-01 1.76884E-24
5.73905E-01 1.73187E-24
5.78217E-01 1.69569E-24
5.82524E-01 1.66029E-24
5.86824E-01 1.62563E-24
5.91118E-01 1.59171E-24
5.95404E-01 1.55851E-24
5.99684E-01 1.52600E-24
6.03956E-01 1.49417E-24
6.08220E-01 1.46301E-24
6.12476E-01 1.43249E-24
6.16723E-01 1.40260E-24
6.20961E-01 1.37333E-24
6.25190E-01 1.34466E-24
6.29410E-01 1.31657E-24
6.33619E-01 1.28906E-24
6.37819E-01 1.26210E-24
6.42008E-01 1.23570E-24
6.46186E-01 1.20982E-24
6.50353E-01 1.18446E-24
6.54508E-01 1.15961E-24
6.58652E-01 1.13526E-24
6.62784E-01 1.11139E-24
6.66903E-01 1.08799E-24
6.71010E-01 1.06506E-24
6.75104E-01 1.04258E-24
6.79184E-01 1.02054E-24
6.83251E-01 9.98927E-25
6.87303E-01 9.77740E-25
6.91342E-01 9.56966E-25
6.95366E-01 9.36596E-25
6.99375E-01 9.16620E-25
7.03368E-01 8.97030E-25
7.07347E-01 8.77817E-25
7.11309E-01 8.58974E-25
7.15256E-01 8.40492E-25
7.19186E-01 8.22364E-25
7.23099E-01 8.04581E-25
7.26995E-01 7.87137E-25
7.30874E-01 7.70025E-25
7.34736E-01 7.53237E-25
7.38579E-01 7.36767E-25
7.42405E-01 7.20607E-25
7.46212E-01 7.04753E-25
7.50000E-01 6.89196E-25
7.53769E-01 6.73932E-25
7.57519E-01 6.58954E-25
7.61249E-01 6.44257E-25
7.64960E-01 6.29834E-25
7.68650E-01 6.15681E-25
7.72320E-01 6.01791E-25
7.75968E-01 5.88160E-25
7.79596E-01 5.74783E-25
7.83203E-01 5.61654E-25
7.86788E-01 5.48769E-25
7.90351E-01 5.36123E-25
7.93893E-01 5.23711E-25
7.97411E-01 5.11530E-25
8.00908E-01 4.99573E-25
8.04381E-01 4.87839E-25
8.07831E-01 4.76321E-25
8.11257E-01 4.65016E-25
8.14660E-01 4.53920E-25
8.18039E-01 4.43029E-25
8.21394E-01 4.32340E-25
8.24724E-01 4.21848E-25
8.28030E-01 4.11551E-25
8.31310E-01 4.01444E-25
8.34565E-01 3.91525E-25
8.37795E-01 3.81789E-25
8.40999E-01 3.72234E-25
8.44177E-01 3.62856E-25
8.47329E-01 3.53653E-25
8.50455E-01 3.44621E-25
8.53553E-01 3.35758E-25
8.56625E-01 3.27059E-25
8.59670E-01 3.18524E-25
8.62687E-01 3.10149E-25
8.65677E-01 3.01931E-25
8.68639E-01 2.93867E-25
8.71572E-01 2.85956E-25
8.74478E-01 2.78194E-25
8.77355E-01 2.70579E-25
8.80203E-01 2.63110E-25
8.83022E-01 2.55783E-25
8.85812E-01 2.48596E-25
8.88573E-01 2.41547E-25
8.91304E-01 2.34634E-25
8.94005E-01 2.27855E-25
8.96677E-01 2.21207E-25
8.99318E-01 2.14690E-25
9.01928E-01 2.08300E-25
9.04508E-01 2.02036E-25
9.07058E-01 1.95896E-25
9.09576E-01 1.89878E-25
9.12063E-01 1.83981E-25
9.14519E-01 1.78203E-25
9.16943E-01 1.72542E-25
9.19335E-01 1.66996E-25
9.21696E-01 1.61564E-25
9.24024E-01 1.56244E-25
9.26320E-01 1.51035E-25
9.28584E-01 1.45935E-25
9.30815E-01 1.40943E-25
9.33013E-01 1.36057E-25
9.35178E-01 1.31277E-25
9.37310E-01 1.26600E-25
9.39409E-01 1.22025E-25
9.41474E-01 1.17552E-25
9.43505E-01 1.13178E-25
9.45503E-01 1.08903E-25
9.47467E-01 1.04726E-25
9.49397E-01 1.00645E-25
9.51293E-01 9.66586E-26
9.53154E-01 9.27668E-26
9.54981E-01 8.89680E-26
9.56773E-01 8.52612E-26
9.58530E-01 8.16455E-26
9.60252E-01 7.81198E-26
9.61940E-01 7.46832E-26
9.63592E-01 7.13348E-26
9.65209E-01 6.80737E-26
9.66790E-01 6.48991E-26
9.68336E-01 6.18100E-26
9.69846E-01 5.88057E-26
9.71321E-01 5.58854E-26
9.72759E-01 5.30483E-26
9.74162E-01 5.02936E-26
9.75528E-01 4.76207E-26
9.76858E-01 4.50289E-26
9.78152E-01 4.25174E-26
9.79410E-01 4.00856E-26
9.80631E-01 3.77329E-26
9.81815E-01 3.54587E-26
9.82963E-01 3.32624E-26
9.84074E-01 3.11434E-26
9.85148E-01 2.91012E-26
9.86185E-01 2.71352E-26
9.87185E-01 2.52450E-26
9.88148E-01 2.34301E-26
9.89074E-01 2.16900E-26
9.89962E-01 2.00242E-26
9.90814E-01 1.84324E-26
9.91627E-01 1.69141E-26
9.92404E-01 1.54690E-26
9.93143E-01 1.40966E-26
9.93844E-01 1.27967E-26
9.94508E-01 1.15689E-26
9.95134E-01 1.04129E-26
9.95722E-01 9.32841E-27
9.96273E-01 8.31514E-27
9.96786E-01 7.37286E-27
9.97261E-01 6.50131E-27
9.97698E-01 5.70030E-27
9.98097E-01 4.96960E-27
9.98459E-01 4.30905E-27
9.98782E-01 3.71847E-27
9.99067E-01 3.19772E-27
9.99315E-01 2.74666E-27
9.99524E-01 2.36519E-27
9.99695E-01 2.05320E-27
9.99829E-01 1.81063E-27
9.99924E-01 1.63741E-27
9.99981E-01 1.53349E-27
1.00000E+00 1.49885E-27
