 #
 # Subroutine ELSEPA. Elastic scattering of electrons and positrons
 #                    by neutral atoms and positive ions
 #
 # Projectile: positron
 # Kinetic energy = 1.50000E+07 eV = 5.51240E+05 a.u.
 #
 # WARNING: High-energy factorization with free-atom DF screening.
 #          Absorption, polarization and exchange corrections are
 #          switched off.
 #          Phase shifts are calculated for the bare nucleus.
 #          Scattering amplitudes are not evaluated.
 #
 # Element: Ti,  Z =  22,  atomic weight = 4.78670E+01 g/mol
 #
 # Nuclear model: Fermi distribution
 #                Average radius = 3.88504E-13 cm
 #                Skin thickness = 5.46000E-14 cm
 #
 # Number of electrons = 22
 #
 # Total elastic cross section = 1.90183E-18 cm**2 = 6.79155E-02 a0**2
 # 1st transport cross section = 3.42544E-24 cm**2 = 1.22325E-07 a0**2
 # 2nd transport cross section = 9.94102E-24 cm**2 = 3.55000E-07 a0**2
 #
 #
 # Differential cross section:                       MU=(1-COS(THETA))/2
 #
 #  THETA        MU          DCS          DCS        Sherman      error
 #  (deg)                 (cm**2/sr)   (a0**2/sr)    function
 #----------------------------------------------------------------------
0.00000E+00 7.05291E-12
7.61557E-13 7.05218E-12
1.18994E-12 7.05178E-12
1.71346E-12 7.05129E-12
2.33225E-12 7.05071E-12
3.04617E-12 7.05004E-12
3.85530E-12 7.04928E-12
4.75964E-12 7.04843E-12
5.75917E-12 7.04749E-12
6.85391E-12 7.04647E-12
8.04379E-12 7.04535E-12
9.32893E-12 7.04415E-12
1.07092E-11 7.04286E-12
1.21847E-11 7.04148E-12
1.37554E-11 7.04001E-12
1.54213E-11 7.03845E-12
1.71823E-11 7.03681E-12
1.90386E-11 7.03508E-12
2.09900E-11 7.03326E-12
2.30367E-11 7.03135E-12
2.51785E-11 7.02935E-12
2.74156E-11 7.02727E-12
2.97478E-11 7.02509E-12
3.21752E-11 7.02283E-12
3.46979E-11 7.02049E-12
3.73157E-11 7.01805E-12
4.00286E-11 7.01553E-12
4.28368E-11 7.01293E-12
4.57402E-11 7.01023E-12
4.87388E-11 7.00745E-12
5.18325E-11 7.00458E-12
5.50215E-11 7.00163E-12
5.83057E-11 6.99859E-12
6.16850E-11 6.99546E-12
6.51595E-11 6.99225E-12
6.87293E-11 6.98895E-12
7.23943E-11 6.98557E-12
7.61544E-11 6.98210E-12
1.18991E-10 6.94278E-12
1.71347E-10 6.89518E-12
2.33223E-10 6.83956E-12
3.04617E-10 6.77623E-12
3.85531E-10 6.70553E-12
4.75965E-10 6.62784E-12
5.75917E-10 6.54355E-12
6.85389E-10 6.45311E-12
8.04380E-10 6.35694E-12
9.32891E-10 6.25553E-12
1.07092E-09 6.14933E-12
1.21847E-09 6.03885E-12
1.37554E-09 5.92457E-12
1.54213E-09 5.80698E-12
1.71823E-09 5.68655E-12
1.90386E-09 5.56374E-12
2.09900E-09 5.43900E-12
2.30367E-09 5.31286E-12
2.51785E-09 5.18566E-12
2.74156E-09 5.05778E-12
2.97478E-09 4.92964E-12
3.21752E-09 4.80176E-12
3.46978E-09 4.67425E-12
3.73156E-09 4.54740E-12
4.00286E-09 4.42180E-12
4.28368E-09 4.29754E-12
4.57402E-09 4.17470E-12
4.87388E-09 4.05358E-12
5.18326E-09 3.93480E-12
5.50215E-09 3.81797E-12
5.83057E-09 3.70324E-12
6.16850E-09 3.59118E-12
6.51596E-09 3.48173E-12
6.87293E-09 3.37466E-12
7.23942E-09 3.27011E-12
7.61544E-09 3.16882E-12
1.18991E-08 2.30510E-12
1.71347E-08 1.69240E-12
2.33223E-08 1.26890E-12
3.04617E-08 9.74568E-13
3.85531E-08 7.65542E-13
4.75965E-08 6.12831E-13
5.75917E-08 4.98001E-13
6.85389E-08 4.09348E-13
8.04380E-08 3.39437E-13
9.32891E-08 2.83416E-13
1.07092E-07 2.35551E-13
1.21847E-07 1.97979E-13
1.37554E-07 1.68568E-13
1.54213E-07 1.44092E-13
1.71823E-07 1.22240E-13
1.90386E-07 1.04729E-13
2.09900E-07 9.05506E-14
2.30367E-07 7.79795E-14
2.51785E-07 6.74068E-14
2.74156E-07 5.86828E-14
2.97478E-07 5.13286E-14
3.21752E-07 4.48676E-14
3.46978E-07 3.94424E-14
3.73156E-07 3.48579E-14
4.00286E-07 3.08741E-14
4.28368E-07 2.74373E-14
4.57402E-07 2.44900E-14
4.87388E-07 2.19441E-14
5.18325E-07 1.97091E-14
5.50215E-07 1.77670E-14
5.83057E-07 1.60723E-14
6.16850E-07 1.45792E-14
6.51596E-07 1.32613E-14
6.87293E-07 1.20988E-14
7.23942E-07 1.10692E-14
7.61543E-07 1.01468E-14
1.18991E-06 4.75881E-15
1.71347E-06 2.55518E-15
2.33223E-06 1.48718E-15
3.04617E-06 9.16268E-16
3.85531E-06 5.90840E-16
4.75964E-06 3.95953E-16
5.75916E-06 2.74388E-16
6.85388E-06 1.95830E-16
8.04378E-06 1.43418E-16
9.32888E-06 1.07429E-16
1.07092E-05 8.20669E-17
1.21846E-05 6.38075E-17
1.37553E-05 5.03807E-17
1.54212E-05 4.03135E-17
1.71822E-05 3.26535E-17
1.90385E-05 2.67382E-17
2.09899E-05 2.21082E-17
2.30365E-05 1.84402E-17
2.51783E-05 1.55047E-17
2.74153E-05 1.31316E-17
2.97475E-05 1.11944E-17
3.21749E-05 9.60249E-18
3.46974E-05 8.28433E-18
3.73152E-05 7.18406E-18
4.00281E-05 6.26057E-18
4.28362E-05 5.48093E-18
4.57395E-05 4.81867E-18
4.87380E-05 4.25305E-18
5.18317E-05 3.76798E-18
5.50205E-05 3.35006E-18
5.83045E-05 2.98814E-18
6.16838E-05 2.67377E-18
6.51582E-05 2.39965E-18
6.87277E-05 2.15965E-18
7.23925E-05 1.94883E-18
7.61524E-05 1.76309E-18
9.21439E-05 1.20850E-18
1.09658E-04 8.55431E-19
1.28695E-04 6.22185E-19
1.49255E-04 4.63157E-19
1.71338E-04 3.51776E-19
1.94942E-04 2.71904E-19
2.20070E-04 2.13439E-19
2.46720E-04 1.69857E-19
2.74892E-04 1.36839E-19
3.04586E-04 1.11460E-19
3.35803E-04 9.16935E-20
3.68542E-04 7.61168E-20
4.02802E-04 6.37081E-20
4.38585E-04 5.37253E-20
4.75889E-04 4.56216E-20
5.14715E-04 3.89881E-20
5.55063E-04 3.35164E-20
5.96931E-04 2.89708E-20
6.40321E-04 2.51695E-20
6.85233E-04 2.19710E-20
7.31665E-04 1.92643E-20
7.79618E-04 1.69614E-20
8.29092E-04 1.49921E-20
8.80086E-04 1.33002E-20
9.32601E-04 1.18401E-20
9.86636E-04 1.05747E-20
1.04219E-03 9.47375E-21
1.09927E-03 8.51222E-21
1.15786E-03 7.66949E-21
1.21797E-03 6.92837E-21
1.27961E-03 6.27452E-21
1.34276E-03 5.69592E-21
1.40743E-03 5.18240E-21
1.47362E-03 4.72538E-21
1.54133E-03 4.31758E-21
1.61056E-03 3.95277E-21
1.68131E-03 3.62562E-21
1.75357E-03 3.33158E-21
1.82735E-03 3.06671E-21
1.90265E-03 2.82759E-21
1.97947E-03 2.61130E-21
2.05780E-03 2.41526E-21
2.13765E-03 2.23725E-21
2.21902E-03 2.07531E-21
2.30190E-03 1.92773E-21
2.38630E-03 1.79302E-21
2.47222E-03 1.66985E-21
2.55965E-03 1.55705E-21
2.64859E-03 1.45360E-21
2.73905E-03 1.35859E-21
2.83103E-03 1.27120E-21
2.92452E-03 1.19070E-21
3.01952E-03 1.11647E-21
3.11604E-03 1.04792E-21
3.21407E-03 9.84540E-22
3.31362E-03 9.25869E-22
3.41468E-03 8.71494E-22
3.51725E-03 8.21044E-22
3.62133E-03 7.74184E-22
3.72692E-03 7.30612E-22
3.83403E-03 6.90055E-22
3.94265E-03 6.52267E-22
4.05278E-03 6.17025E-22
4.16442E-03 5.84124E-22
4.27757E-03 5.53382E-22
4.39223E-03 5.24631E-22
4.50840E-03 4.97718E-22
4.62608E-03 4.72505E-22
4.74527E-03 4.48864E-22
4.86597E-03 4.26679E-22
4.98817E-03 4.05844E-22
5.11188E-03 3.86262E-22
5.23711E-03 3.67844E-22
5.36383E-03 3.50507E-22
5.49207E-03 3.34177E-22
5.62181E-03 3.18783E-22
5.75306E-03 3.04264E-22
5.88581E-03 2.90559E-22
6.02007E-03 2.77615E-22
6.15583E-03 2.65382E-22
6.29310E-03 2.53813E-22
6.43187E-03 2.42866E-22
6.57214E-03 2.32501E-22
6.71392E-03 2.22681E-22
6.85720E-03 2.13372E-22
7.00198E-03 2.04543E-22
7.14827E-03 1.96164E-22
7.29605E-03 1.88209E-22
7.44534E-03 1.80652E-22
7.59612E-03 1.73469E-22
7.97965E-03 1.57007E-22
8.37255E-03 1.42447E-22
8.77480E-03 1.29530E-22
9.18641E-03 1.18040E-22
9.60736E-03 1.07791E-22
1.00376E-02 9.86267E-23
1.04773E-02 9.04125E-23
1.09262E-02 8.30325E-23
1.13844E-02 7.63875E-23
1.18520E-02 7.03914E-23
1.23288E-02 6.49699E-23
1.28150E-02 6.00582E-23
1.33104E-02 5.55999E-23
1.38150E-02 5.15460E-23
1.43290E-02 4.78532E-23
1.48521E-02 4.44838E-23
1.53845E-02 4.14043E-23
1.59262E-02 3.85855E-23
1.64770E-02 3.60013E-23
1.70371E-02 3.36289E-23
1.76063E-02 3.14477E-23
1.81848E-02 2.94395E-23
1.87724E-02 2.75883E-23
1.93692E-02 2.58795E-23
1.99751E-02 2.43003E-23
2.05901E-02 2.28390E-23
2.12143E-02 2.14853E-23
2.18476E-02 2.02298E-23
2.24900E-02 1.90642E-23
2.31415E-02 1.79808E-23
2.38021E-02 1.69729E-23
2.44717E-02 1.60341E-23
2.51504E-02 1.51589E-23
2.58382E-02 1.43423E-23
2.65349E-02 1.35795E-23
2.72407E-02 1.28664E-23
2.79555E-02 1.21993E-23
2.86793E-02 1.15745E-23
2.94120E-02 1.09889E-23
3.01537E-02 1.04396E-23
3.09043E-02 9.92394E-24
3.16639E-02 9.43951E-24
3.24324E-02 8.98406E-24
3.32098E-02 8.55554E-24
3.39961E-02 8.15207E-24
3.47912E-02 7.77191E-24
3.55952E-02 7.41349E-24
3.64081E-02 7.07532E-24
3.72297E-02 6.75605E-24
3.80602E-02 6.45445E-24
3.88995E-02 6.16934E-24
3.97476E-02 5.89967E-24
4.06044E-02 5.64444E-24
4.14700E-02 5.40275E-24
4.23443E-02 5.17374E-24
4.32273E-02 4.95662E-24
4.41190E-02 4.75067E-24
4.50194E-02 4.55521E-24
4.59284E-02 4.36960E-24
4.68461E-02 4.19325E-24
4.87074E-02 3.86622E-24
5.06030E-02 3.57015E-24
5.25328E-02 3.30161E-24
5.44967E-02 3.05761E-24
5.64946E-02 2.83550E-24
5.85262E-02 2.63298E-24
6.05914E-02 2.44803E-24
6.26901E-02 2.27886E-24
6.48222E-02 2.12389E-24
6.69873E-02 1.98171E-24
6.91854E-02 1.85110E-24
7.14163E-02 1.73093E-24
7.36799E-02 1.62024E-24
7.59760E-02 1.51814E-24
7.83043E-02 1.42386E-24
8.06647E-02 1.33668E-24
8.30571E-02 1.25598E-24
8.54812E-02 1.18119E-24
8.79369E-02 1.11181E-24
9.04240E-02 1.04737E-24
9.29422E-02 9.87465E-25
9.54915E-02 9.31713E-25
9.80716E-02 8.79779E-25
1.00682E-01 8.31354E-25
1.03323E-01 7.86161E-25
1.05995E-01 7.43945E-25
1.08696E-01 7.04476E-25
1.11427E-01 6.67543E-25
1.14188E-01 6.32956E-25
1.16978E-01 6.00538E-25
1.19797E-01 5.70130E-25
1.22645E-01 5.41586E-25
1.25522E-01 5.14770E-25
1.28428E-01 4.89561E-25
1.31361E-01 4.65844E-25
1.34323E-01 4.43516E-25
1.37313E-01 4.22481E-25
1.40330E-01 4.02651E-25
1.43375E-01 3.83946E-25
1.46447E-01 3.66289E-25
1.49545E-01 3.49612E-25
1.52671E-01 3.33851E-25
1.55823E-01 3.18947E-25
1.59001E-01 3.04844E-25
1.62205E-01 2.91494E-25
1.65435E-01 2.78847E-25
1.68690E-01 2.66861E-25
1.71970E-01 2.55494E-25
1.75276E-01 2.44711E-25
1.78606E-01 2.34474E-25
1.81961E-01 2.24752E-25
1.85340E-01 2.15514E-25
1.88743E-01 2.06732E-25
1.92169E-01 1.98380E-25
1.95619E-01 1.90432E-25
1.99092E-01 1.82866E-25
2.02589E-01 1.75660E-25
2.06107E-01 1.68794E-25
2.09649E-01 1.62250E-25
2.13212E-01 1.56009E-25
2.16797E-01 1.50055E-25
2.20404E-01 1.44372E-25
2.24032E-01 1.38947E-25
2.27680E-01 1.33764E-25
2.31350E-01 1.28813E-25
2.35040E-01 1.24080E-25
2.38751E-01 1.19554E-25
2.42481E-01 1.15224E-25
2.46231E-01 1.11081E-25
2.50000E-01 1.07115E-25
2.53788E-01 1.03318E-25
2.57595E-01 9.96801E-26
2.61421E-01 9.61942E-26
2.65264E-01 9.28530E-26
2.69126E-01 8.96492E-26
2.73005E-01 8.65762E-26
2.76901E-01 8.36279E-26
2.80814E-01 8.07983E-26
2.84744E-01 7.80817E-26
2.88691E-01 7.54729E-26
2.92653E-01 7.29669E-26
2.96632E-01 7.05590E-26
3.00625E-01 6.82445E-26
3.04634E-01 6.60194E-26
3.08658E-01 6.38795E-26
3.12697E-01 6.18211E-26
3.16749E-01 5.98405E-26
3.20816E-01 5.79342E-26
3.24896E-01 5.60991E-26
3.28990E-01 5.43319E-26
3.33097E-01 5.26299E-26
3.37216E-01 5.09900E-26
3.41348E-01 4.94098E-26
3.45492E-01 4.78866E-26
3.49647E-01 4.64181E-26
3.53814E-01 4.50019E-26
3.57992E-01 4.36360E-26
3.62181E-01 4.23181E-26
3.66381E-01 4.10464E-26
3.70590E-01 3.98189E-26
3.74810E-01 3.86339E-26
3.79039E-01 3.74896E-26
3.83277E-01 3.63844E-26
3.87524E-01 3.53168E-26
3.91780E-01 3.42852E-26
3.96044E-01 3.32882E-26
4.00316E-01 3.23246E-26
4.04596E-01 3.13929E-26
4.08882E-01 3.04920E-26
4.13176E-01 2.96207E-26
4.17476E-01 2.87778E-26
4.21783E-01 2.79622E-26
4.26095E-01 2.71730E-26
4.30413E-01 2.64092E-26
4.34737E-01 2.56697E-26
4.39065E-01 2.49537E-26
4.43398E-01 2.42603E-26
4.47736E-01 2.35888E-26
4.52077E-01 2.29382E-26
4.56422E-01 2.23078E-26
4.60770E-01 2.16970E-26
4.65122E-01 2.11050E-26
4.69476E-01 2.05311E-26
4.73832E-01 1.99746E-26
4.78190E-01 1.94351E-26
4.82550E-01 1.89118E-26
4.86912E-01 1.84043E-26
4.91274E-01 1.79119E-26
4.95637E-01 1.74341E-26
5.00000E-01 1.69705E-26
5.04363E-01 1.65205E-26
5.08726E-01 1.60837E-26
5.13088E-01 1.56596E-26
5.17450E-01 1.52479E-26
5.21810E-01 1.48481E-26
5.26168E-01 1.44597E-26
5.30524E-01 1.40825E-26
5.34878E-01 1.37160E-26
5.39230E-01 1.33600E-26
5.43578E-01 1.30139E-26
5.47923E-01 1.26777E-26
5.52264E-01 1.23508E-26
5.56602E-01 1.20330E-26
5.60935E-01 1.17241E-26
5.65263E-01 1.14237E-26
5.69587E-01 1.11316E-26
5.73905E-01 1.08474E-26
5.78217E-01 1.05711E-26
5.82524E-01 1.03022E-26
5.86824E-01 1.00406E-26
5.91118E-01 9.78609E-27
5.95404E-01 9.53839E-27
5.99684E-01 9.29732E-27
6.03956E-01 9.06266E-27
6.08220E-01 8.83423E-27
6.12476E-01 8.61184E-27
6.16723E-01 8.39530E-27
6.20961E-01 8.18444E-27
6.25190E-01 7.97909E-27
6.29410E-01 7.77908E-27
6.33619E-01 7.58426E-27
6.37819E-01 7.39447E-27
6.42008E-01 7.20957E-27
6.46186E-01 7.02941E-27
6.50353E-01 6.85385E-27
6.54508E-01 6.68276E-27
6.58652E-01 6.51602E-27
6.62784E-01 6.35349E-27
6.66903E-01 6.19505E-27
6.71010E-01 6.04060E-27
6.75104E-01 5.89001E-27
6.79184E-01 5.74318E-27
6.83251E-01 5.60000E-27
6.87303E-01 5.46037E-27
6.91342E-01 5.32419E-27
6.95366E-01 5.19136E-27
6.99375E-01 5.06180E-27
7.03368E-01 4.93540E-27
7.07347E-01 4.81210E-27
7.11309E-01 4.69179E-27
7.15256E-01 4.57440E-27
7.19186E-01 4.45985E-27
7.23099E-01 4.34806E-27
7.26995E-01 4.23896E-27
7.30874E-01 4.13248E-27
7.34736E-01 4.02855E-27
7.38579E-01 3.92709E-27
7.42405E-01 3.82805E-27
7.46212E-01 3.73137E-27
7.50000E-01 3.63697E-27
7.53769E-01 3.54480E-27
7.57519E-01 3.45480E-27
7.61249E-01 3.36692E-27
7.64960E-01 3.28109E-27
7.68650E-01 3.19728E-27
7.72320E-01 3.11543E-27
7.75968E-01 3.03548E-27
7.79596E-01 2.95739E-27
7.83203E-01 2.88111E-27
7.86788E-01 2.80660E-27
7.90351E-01 2.73381E-27
7.93893E-01 2.66270E-27
7.97411E-01 2.59323E-27
8.00908E-01 2.52536E-27
8.04381E-01 2.45904E-27
8.07831E-01 2.39425E-27
8.11257E-01 2.33094E-27
8.14660E-01 2.26907E-27
8.18039E-01 2.20862E-27
8.21394E-01 2.14955E-27
8.24724E-01 2.09182E-27
8.28030E-01 2.03541E-27
8.31310E-01 1.98028E-27
8.34565E-01 1.92640E-27
8.37795E-01 1.87375E-27
8.40999E-01 1.82229E-27
8.44177E-01 1.77199E-27
8.47329E-01 1.72284E-27
8.50455E-01 1.67480E-27
8.53553E-01 1.62784E-27
8.56625E-01 1.58195E-27
8.59670E-01 1.53710E-27
8.62687E-01 1.49327E-27
8.65677E-01 1.45043E-27
8.68639E-01 1.40856E-27
8.71572E-01 1.36763E-27
8.74478E-01 1.32764E-27
8.77355E-01 1.28856E-27
8.80203E-01 1.25036E-27
8.83022E-01 1.21303E-27
8.85812E-01 1.17655E-27
8.88573E-01 1.14091E-27
8.91304E-01 1.10608E-27
8.94005E-01 1.07204E-27
8.96677E-01 1.03879E-27
8.99318E-01 1.00630E-27
9.01928E-01 9.74559E-28
9.04508E-01 9.43550E-28
9.07058E-01 9.13260E-28
9.09576E-01 8.83672E-28
9.12063E-01 8.54774E-28
9.14519E-01 8.26551E-28
9.16943E-01 7.98990E-28
9.19335E-01 7.72078E-28
9.21696E-01 7.45802E-28
9.24024E-01 7.20150E-28
9.26320E-01 6.95110E-28
9.28584E-01 6.70670E-28
9.30815E-01 6.46819E-28
9.33013E-01 6.23546E-28
9.35178E-01 6.00840E-28
9.37310E-01 5.78691E-28
9.39409E-01 5.57088E-28
9.41474E-01 5.36022E-28
9.43505E-01 5.15483E-28
9.45503E-01 4.95463E-28
9.47467E-01 4.75951E-28
9.49397E-01 4.56939E-28
9.51293E-01 4.38419E-28
9.53154E-01 4.20382E-28
9.54981E-01 4.02821E-28
9.56773E-01 3.85727E-28
9.58530E-01 3.69094E-28
9.60252E-01 3.52913E-28
9.61940E-01 3.37178E-28
9.63592E-01 3.21881E-28
9.65209E-01 3.07017E-28
9.66790E-01 2.92578E-28
9.68336E-01 2.78559E-28
9.69846E-01 2.64952E-28
9.71321E-01 2.51753E-28
9.72759E-01 2.38956E-28
9.74162E-01 2.26555E-28
9.75528E-01 2.14545E-28
9.76858E-01 2.02921E-28
9.78152E-01 1.91677E-28
9.79410E-01 1.80810E-28
9.80631E-01 1.70314E-28
9.81815E-01 1.60184E-28
9.82963E-01 1.50418E-28
9.84074E-01 1.41010E-28
9.85148E-01 1.31956E-28
9.86185E-01 1.23254E-28
9.87185E-01 1.14898E-28
9.88148E-01 1.06886E-28
9.89074E-01 9.92147E-29
9.89962E-01 9.18802E-29
9.90814E-01 8.48797E-29
9.91627E-01 7.82103E-29
9.92404E-01 7.18692E-29
9.93143E-01 6.58538E-29
9.93844E-01 6.01617E-29
9.94508E-01 5.47904E-29
9.95134E-01 4.97377E-29
9.95722E-01 4.50016E-29
9.96273E-01 4.05801E-29
9.96786E-01 3.64713E-29
9.97261E-01 3.26737E-29
9.97698E-01 2.91855E-29
9.98097E-01 2.60055E-29
9.98459E-01 2.31322E-29
9.98782E-01 2.05645E-29
9.99067E-01 1.83014E-29
9.99315E-01 1.63419E-29
9.99524E-01 1.46852E-29
9.99695E-01 1.33307E-29
9.99829E-01 1.22777E-29
9.99924E-01 1.15259E-29
9.99981E-01 1.10750E-29
1.00000E+00 1.09248E-29
