 #
 # Subroutine ELSEPA. Elastic scattering of electrons and positrons
 #                    by neutral atoms and positive ions
 #
 # Projectile: positron
 # Kinetic energy = 4.00000E+06 eV = 1.46997E+05 a.u.
 #
 # WARNING: High-energy factorization with free-atom DF screening.
 #          Absorption, polarization and exchange corrections are
 #          switched off.
 #          Phase shifts are calculated for the bare nucleus.
 #          Scattering amplitudes are not evaluated.
 #
 # Element: Ti,  Z =  22,  atomic weight = 4.78670E+01 g/mol
 #
 # Nuclear model: Fermi distribution
 #                Average radius = 3.88504E-13 cm
 #                Skin thickness = 5.46000E-14 cm
 #
 # Number of electrons = 22
 #
 # Total elastic cross section = 1.92368E-18 cm**2 = 6.86958E-02 a0**2
 # 1st transport cross section = 3.37282E-23 cm**2 = 1.20445E-06 a0**2
 # 2nd transport cross section = 9.69703E-23 cm**2 = 3.46287E-06 a0**2
 #
 #
 # Differential cross section:                       MU=(1-COS(THETA))/2
 #
 #  THETA        MU          DCS          DCS        Sherman      error
 #  (deg)                 (cm**2/sr)   (a0**2/sr)    function
 #----------------------------------------------------------------------
0.00000E+00 5.96532E-13
7.61557E-13 5.96527E-13
1.18994E-12 5.96524E-13
1.71346E-12 5.96520E-13
2.33225E-12 5.96516E-13
3.04617E-12 5.96511E-13
3.85530E-12 5.96506E-13
4.75964E-12 5.96500E-13
5.75917E-12 5.96493E-13
6.85391E-12 5.96486E-13
8.04379E-12 5.96478E-13
9.32893E-12 5.96469E-13
1.07092E-11 5.96460E-13
1.21847E-11 5.96450E-13
1.37554E-11 5.96440E-13
1.54213E-11 5.96428E-13
1.71823E-11 5.96417E-13
1.90386E-11 5.96404E-13
2.09900E-11 5.96391E-13
2.30367E-11 5.96378E-13
2.51785E-11 5.96363E-13
2.74156E-11 5.96348E-13
2.97478E-11 5.96333E-13
3.21752E-11 5.96317E-13
3.46979E-11 5.96300E-13
3.73157E-11 5.96283E-13
4.00286E-11 5.96265E-13
4.28368E-11 5.96246E-13
4.57402E-11 5.96227E-13
4.87388E-11 5.96207E-13
5.18325E-11 5.96186E-13
5.50215E-11 5.96165E-13
5.83057E-11 5.96143E-13
6.16850E-11 5.96121E-13
6.51595E-11 5.96098E-13
6.87293E-11 5.96074E-13
7.23943E-11 5.96050E-13
7.61544E-11 5.96025E-13
1.18991E-10 5.95741E-13
1.71347E-10 5.95394E-13
2.33223E-10 5.94985E-13
3.04617E-10 5.94514E-13
3.85531E-10 5.93981E-13
4.75965E-10 5.93386E-13
5.75917E-10 5.92730E-13
6.85389E-10 5.92013E-13
8.04380E-10 5.91235E-13
9.32891E-10 5.90396E-13
1.07092E-09 5.89497E-13
1.21847E-09 5.88539E-13
1.37554E-09 5.87521E-13
1.54213E-09 5.86445E-13
1.71823E-09 5.85311E-13
1.90386E-09 5.84119E-13
2.09900E-09 5.82870E-13
2.30367E-09 5.81564E-13
2.51785E-09 5.80202E-13
2.74156E-09 5.78785E-13
2.97478E-09 5.77314E-13
3.21752E-09 5.75788E-13
3.46978E-09 5.74209E-13
3.73156E-09 5.72578E-13
4.00286E-09 5.70894E-13
4.28368E-09 5.69160E-13
4.57402E-09 5.67375E-13
4.87388E-09 5.65540E-13
5.18326E-09 5.63657E-13
5.50215E-09 5.61726E-13
5.83057E-09 5.59748E-13
6.16850E-09 5.57723E-13
6.51596E-09 5.55653E-13
6.87293E-09 5.53539E-13
7.23942E-09 5.51381E-13
7.61544E-09 5.49180E-13
1.18991E-08 5.25028E-13
1.71347E-08 4.97659E-13
2.33223E-08 4.68061E-13
3.04617E-08 4.37186E-13
3.85531E-08 4.05890E-13
4.75965E-08 3.74908E-13
5.75917E-08 3.44833E-13
6.85389E-08 3.16149E-13
8.04380E-08 2.89140E-13
9.32891E-08 2.63993E-13
1.07092E-07 2.40797E-13
1.21847E-07 2.19562E-13
1.37554E-07 2.00268E-13
1.54213E-07 1.82809E-13
1.71823E-07 1.67051E-13
1.90386E-07 1.52863E-13
2.09900E-07 1.40108E-13
2.30367E-07 1.28655E-13
2.51785E-07 1.18382E-13
2.74156E-07 1.09145E-13
2.97478E-07 1.00832E-13
3.21752E-07 9.33410E-14
3.46978E-07 8.65805E-14
3.73156E-07 8.04678E-14
4.00286E-07 7.49253E-14
4.28368E-07 6.98885E-14
4.57402E-07 6.53012E-14
4.87388E-07 6.11137E-14
5.18325E-07 5.72807E-14
5.50215E-07 5.37591E-14
5.83057E-07 5.05205E-14
6.16850E-07 4.75355E-14
6.51596E-07 4.47787E-14
6.87293E-07 4.22273E-14
7.23942E-07 3.98550E-14
7.61543E-07 3.76489E-14
1.18991E-06 2.20204E-14
1.71347E-06 1.35168E-14
2.33223E-06 8.54576E-15
3.04617E-06 5.59500E-15
3.85531E-06 3.78253E-15
4.75964E-06 2.63760E-15
5.75916E-06 1.89509E-15
6.85388E-06 1.40015E-15
8.04378E-06 1.06174E-15
9.32888E-06 8.23381E-16
1.07092E-05 6.50952E-16
1.21846E-05 5.23150E-16
1.37553E-05 4.26082E-16
1.54212E-05 3.50970E-16
1.71822E-05 2.91985E-16
1.90385E-05 2.44996E-16
2.09899E-05 2.07124E-16
2.30365E-05 1.76222E-16
2.51783E-05 1.50701E-16
2.74153E-05 1.29568E-16
2.97475E-05 1.11942E-16
3.21749E-05 9.71480E-17
3.46974E-05 8.46664E-17
3.73152E-05 7.40586E-17
4.00281E-05 6.50211E-17
4.28362E-05 5.72945E-17
4.57395E-05 5.06594E-17
4.87380E-05 4.49384E-17
5.18317E-05 3.99847E-17
5.50205E-05 3.56783E-17
5.83045E-05 3.19285E-17
6.16838E-05 2.86527E-17
6.51582E-05 2.57821E-17
6.87277E-05 2.32590E-17
7.23925E-05 2.10334E-17
7.61524E-05 1.90663E-17
9.21439E-05 1.31605E-17
1.09658E-04 9.37252E-18
1.28695E-04 6.85602E-18
1.49255E-04 5.13377E-18
1.71338E-04 3.92210E-18
1.94942E-04 3.04915E-18
2.20070E-04 2.40683E-18
2.46720E-04 1.92551E-18
2.74892E-04 1.55905E-18
3.04586E-04 1.27597E-18
3.35803E-04 1.05440E-18
3.68542E-04 8.78917E-19
4.02802E-04 7.38393E-19
4.38585E-04 6.24854E-19
4.75889E-04 5.32307E-19
5.14715E-04 4.56254E-19
5.55063E-04 3.93287E-19
5.96931E-04 3.40775E-19
6.40321E-04 2.96717E-19
6.85233E-04 2.59539E-19
7.31665E-04 2.27990E-19
7.79618E-04 2.01080E-19
8.29092E-04 1.78012E-19
8.80086E-04 1.58144E-19
9.32601E-04 1.40964E-19
9.86636E-04 1.26049E-19
1.04219E-03 1.13049E-19
1.09927E-03 1.01678E-19
1.15786E-03 9.16944E-20
1.21797E-03 8.29029E-20
1.27961E-03 7.51371E-20
1.34276E-03 6.82571E-20
1.40743E-03 6.21444E-20
1.47362E-03 5.66986E-20
1.54133E-03 5.18341E-20
1.61056E-03 4.74789E-20
1.68131E-03 4.35703E-20
1.75357E-03 4.00546E-20
1.82735E-03 3.68855E-20
1.90265E-03 3.40224E-20
1.97947E-03 3.14311E-20
2.05780E-03 2.90811E-20
2.13765E-03 2.69461E-20
2.21902E-03 2.50029E-20
2.30190E-03 2.32312E-20
2.38630E-03 2.16132E-20
2.47222E-03 2.01333E-20
2.55965E-03 1.87775E-20
2.64859E-03 1.75336E-20
2.73905E-03 1.63908E-20
2.83103E-03 1.53392E-20
2.92452E-03 1.43705E-20
3.01952E-03 1.34767E-20
3.11604E-03 1.26513E-20
3.21407E-03 1.18878E-20
3.31362E-03 1.11810E-20
3.41468E-03 1.05257E-20
3.51725E-03 9.91761E-21
3.62133E-03 9.35268E-21
3.72692E-03 8.82730E-21
3.83403E-03 8.33818E-21
3.94265E-03 7.88237E-21
4.05278E-03 7.45720E-21
4.16442E-03 7.06023E-21
4.27757E-03 6.68925E-21
4.39223E-03 6.34225E-21
4.50840E-03 6.01739E-21
4.62608E-03 5.71300E-21
4.74527E-03 5.42756E-21
4.86597E-03 5.15967E-21
4.98817E-03 4.90806E-21
5.11188E-03 4.67155E-21
5.23711E-03 4.44908E-21
5.36383E-03 4.23965E-21
5.49207E-03 4.04236E-21
5.62181E-03 3.85638E-21
5.75306E-03 3.68094E-21
5.88581E-03 3.51533E-21
6.02007E-03 3.35890E-21
6.15583E-03 3.21104E-21
6.29310E-03 3.07121E-21
6.43187E-03 2.93888E-21
6.57214E-03 2.81358E-21
6.71392E-03 2.69487E-21
6.85720E-03 2.58233E-21
7.00198E-03 2.47558E-21
7.14827E-03 2.37427E-21
7.29605E-03 2.27808E-21
7.44534E-03 2.18669E-21
7.59612E-03 2.09982E-21
7.97965E-03 1.90073E-21
8.37255E-03 1.72461E-21
8.77480E-03 1.56836E-21
9.18641E-03 1.42935E-21
9.60736E-03 1.30535E-21
1.00376E-02 1.19446E-21
1.04773E-02 1.09505E-21
1.09262E-02 1.00574E-21
1.13844E-02 9.25317E-22
1.18520E-02 8.52741E-22
1.23288E-02 7.87115E-22
1.28150E-02 7.27657E-22
1.33104E-02 6.73685E-22
1.38150E-02 6.24605E-22
1.43290E-02 5.79895E-22
1.48521E-02 5.39097E-22
1.53845E-02 5.01809E-22
1.59262E-02 4.67675E-22
1.64770E-02 4.36381E-22
1.70371E-02 4.07649E-22
1.76063E-02 3.81232E-22
1.81848E-02 3.56910E-22
1.87724E-02 3.34487E-22
1.93692E-02 3.13789E-22
1.99751E-02 2.94660E-22
2.05901E-02 2.76958E-22
2.12143E-02 2.60559E-22
2.18476E-02 2.45349E-22
2.24900E-02 2.31227E-22
2.31415E-02 2.18101E-22
2.38021E-02 2.05888E-22
2.44717E-02 1.94513E-22
2.51504E-02 1.83908E-22
2.58382E-02 1.74012E-22
2.65349E-02 1.64769E-22
2.72407E-02 1.56127E-22
2.79555E-02 1.48041E-22
2.86793E-02 1.40469E-22
2.94120E-02 1.33371E-22
3.01537E-02 1.26713E-22
3.09043E-02 1.20463E-22
3.16639E-02 1.14591E-22
3.24324E-02 1.09070E-22
3.32098E-02 1.03875E-22
3.39961E-02 9.89835E-23
3.47912E-02 9.43746E-23
3.55952E-02 9.00289E-23
3.64081E-02 8.59286E-23
3.72297E-02 8.20574E-23
3.80602E-02 7.84001E-23
3.88995E-02 7.49428E-23
3.97476E-02 7.16725E-23
4.06044E-02 6.85773E-23
4.14700E-02 6.56460E-23
4.23443E-02 6.28684E-23
4.32273E-02 6.02350E-23
4.41190E-02 5.77368E-23
4.50194E-02 5.53658E-23
4.59284E-02 5.31142E-23
4.68461E-02 5.09749E-23
4.87074E-02 4.70073E-23
5.06030E-02 4.34150E-23
5.25328E-02 4.01564E-23
5.44967E-02 3.71953E-23
5.64946E-02 3.44996E-23
5.85262E-02 3.20414E-23
6.05914E-02 2.97963E-23
6.26901E-02 2.77425E-23
6.48222E-02 2.58608E-23
6.69873E-02 2.41344E-23
6.91854E-02 2.25481E-23
7.14163E-02 2.10887E-23
7.36799E-02 1.97441E-23
7.59760E-02 1.85038E-23
7.83043E-02 1.73583E-23
8.06647E-02 1.62989E-23
8.30571E-02 1.53182E-23
8.54812E-02 1.44093E-23
8.79369E-02 1.35659E-23
9.04240E-02 1.27825E-23
9.29422E-02 1.20542E-23
9.54915E-02 1.13762E-23
9.80716E-02 1.07446E-23
1.00682E-01 1.01556E-23
1.03323E-01 9.60588E-24
1.05995E-01 9.09227E-24
1.08696E-01 8.61201E-24
1.11427E-01 8.16256E-24
1.14188E-01 7.74159E-24
1.16978E-01 7.34697E-24
1.19797E-01 6.97677E-24
1.22645E-01 6.62920E-24
1.25522E-01 6.30264E-24
1.28428E-01 5.99559E-24
1.31361E-01 5.70668E-24
1.34323E-01 5.43464E-24
1.37313E-01 5.17832E-24
1.40330E-01 4.93665E-24
1.43375E-01 4.70864E-24
1.46447E-01 4.49339E-24
1.49545E-01 4.29004E-24
1.52671E-01 4.09784E-24
1.55823E-01 3.91605E-24
1.59001E-01 3.74401E-24
1.62205E-01 3.58112E-24
1.65435E-01 3.42678E-24
1.68690E-01 3.28049E-24
1.71970E-01 3.14174E-24
1.75276E-01 3.01007E-24
1.78606E-01 2.88507E-24
1.81961E-01 2.76632E-24
1.85340E-01 2.65347E-24
1.88743E-01 2.54617E-24
1.92169E-01 2.44410E-24
1.95619E-01 2.34695E-24
1.99092E-01 2.25446E-24
2.02589E-01 2.16635E-24
2.06107E-01 2.08238E-24
2.09649E-01 2.00232E-24
2.13212E-01 1.92597E-24
2.16797E-01 1.85311E-24
2.20404E-01 1.78355E-24
2.24032E-01 1.71713E-24
2.27680E-01 1.65368E-24
2.31350E-01 1.59303E-24
2.35040E-01 1.53505E-24
2.38751E-01 1.47960E-24
2.42481E-01 1.42654E-24
2.46231E-01 1.37576E-24
2.50000E-01 1.32714E-24
2.53788E-01 1.28057E-24
2.57595E-01 1.23595E-24
2.61421E-01 1.19318E-24
2.65264E-01 1.15218E-24
2.69126E-01 1.11286E-24
2.73005E-01 1.07513E-24
2.76901E-01 1.03893E-24
2.80814E-01 1.00417E-24
2.84744E-01 9.70799E-25
2.88691E-01 9.38742E-25
2.92653E-01 9.07939E-25
2.96632E-01 8.78335E-25
3.00625E-01 8.49874E-25
3.04634E-01 8.22505E-25
3.08658E-01 7.96177E-25
3.12697E-01 7.70846E-25
3.16749E-01 7.46465E-25
3.20816E-01 7.22994E-25
3.24896E-01 7.00393E-25
3.28990E-01 6.78623E-25
3.33097E-01 6.57649E-25
3.37216E-01 6.37438E-25
3.41348E-01 6.17955E-25
3.45492E-01 5.99172E-25
3.49647E-01 5.81057E-25
3.53814E-01 5.63583E-25
3.57992E-01 5.46724E-25
3.62181E-01 5.30455E-25
3.66381E-01 5.14750E-25
3.70590E-01 4.99588E-25
3.74810E-01 4.84946E-25
3.79039E-01 4.70803E-25
3.83277E-01 4.57140E-25
3.87524E-01 4.43937E-25
3.91780E-01 4.31177E-25
3.96044E-01 4.18841E-25
4.00316E-01 4.06913E-25
4.04596E-01 3.95378E-25
4.08882E-01 3.84221E-25
4.13176E-01 3.73426E-25
4.17476E-01 3.62981E-25
4.21783E-01 3.52872E-25
4.26095E-01 3.43086E-25
4.30413E-01 3.33611E-25
4.34737E-01 3.24436E-25
4.39065E-01 3.15550E-25
4.43398E-01 3.06942E-25
4.47736E-01 2.98602E-25
4.52077E-01 2.90519E-25
4.56422E-01 2.82686E-25
4.60770E-01 2.75093E-25
4.65122E-01 2.67731E-25
4.69476E-01 2.60592E-25
4.73832E-01 2.53668E-25
4.78190E-01 2.46952E-25
4.82550E-01 2.40437E-25
4.86912E-01 2.34115E-25
4.91274E-01 2.27979E-25
4.95637E-01 2.22025E-25
5.00000E-01 2.16244E-25
5.04363E-01 2.10632E-25
5.08726E-01 2.05182E-25
5.13088E-01 1.99889E-25
5.17450E-01 1.94748E-25
5.21810E-01 1.89754E-25
5.26168E-01 1.84902E-25
5.30524E-01 1.80187E-25
5.34878E-01 1.75605E-25
5.39230E-01 1.71152E-25
5.43578E-01 1.66822E-25
5.47923E-01 1.62613E-25
5.52264E-01 1.58520E-25
5.56602E-01 1.54540E-25
5.60935E-01 1.50669E-25
5.65263E-01 1.46903E-25
5.69587E-01 1.43240E-25
5.73905E-01 1.39676E-25
5.78217E-01 1.36208E-25
5.82524E-01 1.32832E-25
5.86824E-01 1.29547E-25
5.91118E-01 1.26349E-25
5.95404E-01 1.23236E-25
5.99684E-01 1.20205E-25
6.03956E-01 1.17254E-25
6.08220E-01 1.14380E-25
6.12476E-01 1.11580E-25
6.16723E-01 1.08854E-25
6.20961E-01 1.06197E-25
6.25190E-01 1.03609E-25
6.29410E-01 1.01088E-25
6.33619E-01 9.86306E-26
6.37819E-01 9.62360E-26
6.42008E-01 9.39021E-26
6.46186E-01 9.16271E-26
6.50353E-01 8.94094E-26
6.54508E-01 8.72473E-26
6.58652E-01 8.51392E-26
6.62784E-01 8.30835E-26
6.66903E-01 8.10789E-26
6.71010E-01 7.91238E-26
6.75104E-01 7.72169E-26
6.79184E-01 7.53568E-26
6.83251E-01 7.35421E-26
6.87303E-01 7.17718E-26
6.91342E-01 7.00445E-26
6.95366E-01 6.83590E-26
6.99375E-01 6.67142E-26
7.03368E-01 6.51090E-26
7.07347E-01 6.35423E-26
7.11309E-01 6.20131E-26
7.15256E-01 6.05204E-26
7.19186E-01 5.90632E-26
7.23099E-01 5.76405E-26
7.26995E-01 5.62515E-26
7.30874E-01 5.48952E-26
7.34736E-01 5.35708E-26
7.38579E-01 5.22775E-26
7.42405E-01 5.10144E-26
7.46212E-01 4.97807E-26
7.50000E-01 4.85758E-26
7.53769E-01 4.73988E-26
7.57519E-01 4.62490E-26
7.61249E-01 4.51258E-26
7.64960E-01 4.40285E-26
7.68650E-01 4.29564E-26
7.72320E-01 4.19089E-26
7.75968E-01 4.08853E-26
7.79596E-01 3.98852E-26
7.83203E-01 3.89078E-26
7.86788E-01 3.79526E-26
7.90351E-01 3.70192E-26
7.93893E-01 3.61068E-26
7.97411E-01 3.52151E-26
8.00908E-01 3.43436E-26
8.04381E-01 3.34917E-26
8.07831E-01 3.26590E-26
8.11257E-01 3.18449E-26
8.14660E-01 3.10492E-26
8.18039E-01 3.02713E-26
8.21394E-01 2.95108E-26
8.24724E-01 2.87673E-26
8.28030E-01 2.80405E-26
8.31310E-01 2.73298E-26
8.34565E-01 2.66351E-26
8.37795E-01 2.59558E-26
8.40999E-01 2.52916E-26
8.44177E-01 2.46422E-26
8.47329E-01 2.40073E-26
8.50455E-01 2.33864E-26
8.53553E-01 2.27794E-26
8.56625E-01 2.21859E-26
8.59670E-01 2.16056E-26
8.62687E-01 2.10382E-26
8.65677E-01 2.04835E-26
8.68639E-01 1.99411E-26
8.71572E-01 1.94107E-26
8.74478E-01 1.88922E-26
8.77355E-01 1.83853E-26
8.80203E-01 1.78897E-26
8.83022E-01 1.74051E-26
8.85812E-01 1.69314E-26
8.88573E-01 1.64684E-26
8.91304E-01 1.60157E-26
8.94005E-01 1.55732E-26
8.96677E-01 1.51407E-26
8.99318E-01 1.47180E-26
9.01928E-01 1.43049E-26
9.04508E-01 1.39011E-26
9.07058E-01 1.35065E-26
9.09576E-01 1.31210E-26
9.12063E-01 1.27443E-26
9.14519E-01 1.23763E-26
9.16943E-01 1.20167E-26
9.19335E-01 1.16655E-26
9.21696E-01 1.13225E-26
9.24024E-01 1.09875E-26
9.26320E-01 1.06604E-26
9.28584E-01 1.03410E-26
9.30815E-01 1.00292E-26
9.33013E-01 9.72483E-27
9.35178E-01 9.42780E-27
9.37310E-01 9.13794E-27
9.39409E-01 8.85515E-27
9.41474E-01 8.57930E-27
9.43505E-01 8.31026E-27
9.45503E-01 8.04792E-27
9.47467E-01 7.79217E-27
9.49397E-01 7.54290E-27
9.51293E-01 7.30000E-27
9.53154E-01 7.06337E-27
9.54981E-01 6.83291E-27
9.56773E-01 6.60852E-27
9.58530E-01 6.39011E-27
9.60252E-01 6.17758E-27
9.61940E-01 5.97084E-27
9.63592E-01 5.76981E-27
9.65209E-01 5.57441E-27
9.66790E-01 5.38456E-27
9.68336E-01 5.20017E-27
9.69846E-01 5.02117E-27
9.71321E-01 4.84748E-27
9.72759E-01 4.67904E-27
9.74162E-01 4.51578E-27
9.75528E-01 4.35763E-27
9.76858E-01 4.20452E-27
9.78152E-01 4.05639E-27
9.79410E-01 3.91319E-27
9.80631E-01 3.77485E-27
9.81815E-01 3.64132E-27
9.82963E-01 3.51254E-27
9.84074E-01 3.38847E-27
9.85148E-01 3.26906E-27
9.86185E-01 3.15424E-27
9.87185E-01 3.04399E-27
9.88148E-01 2.93826E-27
9.89074E-01 2.83700E-27
9.89962E-01 2.74017E-27
9.90814E-01 2.64774E-27
9.91627E-01 2.55967E-27
9.92404E-01 2.47592E-27
9.93143E-01 2.39646E-27
9.93844E-01 2.32126E-27
9.94508E-01 2.25030E-27
9.95134E-01 2.18353E-27
9.95722E-01 2.12094E-27
9.96273E-01 2.06251E-27
9.96786E-01 2.00820E-27
9.97261E-01 1.95800E-27
9.97698E-01 1.91189E-27
9.98097E-01 1.86984E-27
9.98459E-01 1.83185E-27
9.98782E-01 1.79790E-27
9.99067E-01 1.76798E-27
9.99315E-01 1.74206E-27
9.99524E-01 1.72015E-27
9.99695E-01 1.70224E-27
9.99829E-01 1.68831E-27
9.99924E-01 1.67837E-27
9.99981E-01 1.67241E-27
1.00000E+00 1.67043E-27
