 #
 # Subroutine ELSEPA. Elastic scattering of electrons and positrons
 #                    by neutral atoms and positive ions
 #
 # Projectile: positron
 # Kinetic energy = 3.50000E+08 eV = 1.28623E+07 a.u.
 #
 # WARNING: High-energy factorization with free-atom DF screening.
 #          Absorption, polarization and exchange corrections are
 #          switched off.
 #          Phase shifts are calculated for the bare nucleus.
 #          Scattering amplitudes are not evaluated.
 #
 # Element: Ti,  Z =  22,  atomic weight = 4.78670E+01 g/mol
 #
 # Nuclear model: Fermi distribution
 #                Average radius = 3.88504E-13 cm
 #                Skin thickness = 5.46000E-14 cm
 #
 # Number of electrons = 22
 #
 # Total elastic cross section = 1.89930E-18 cm**2 = 6.78254E-02 a0**2
 # 1st transport cross section = 8.25816E-27 cm**2 = 2.94904E-10 a0**2
 # 2nd transport cross section = 2.47478E-26 cm**2 = 8.83761E-10 a0**2
 #
 #
 # Differential cross section:                       MU=(1-COS(THETA))/2
 #
 #  THETA        MU          DCS          DCS        Sherman      error
 #  (deg)                 (cm**2/sr)   (a0**2/sr)    function
 #----------------------------------------------------------------------
0.00000E+00 3.60157E-09
7.61557E-13 3.42254E-09
1.18994E-12 3.32774E-09
1.71346E-12 3.21723E-09
2.33225E-12 3.09370E-09
3.04617E-12 2.96004E-09
3.85530E-12 2.81906E-09
4.75964E-12 2.67352E-09
5.75917E-12 2.52582E-09
6.85391E-12 2.37841E-09
8.04379E-12 2.23306E-09
9.32893E-12 2.09131E-09
1.07092E-11 1.95476E-09
1.21847E-11 1.82399E-09
1.37554E-11 1.69985E-09
1.54213E-11 1.58290E-09
1.71823E-11 1.47301E-09
1.90386E-11 1.37054E-09
2.09900E-11 1.27527E-09
2.30367E-11 1.18678E-09
2.51785E-11 1.10520E-09
2.74156E-11 1.02984E-09
2.97478E-11 9.60309E-10
3.21752E-11 8.96530E-10
3.46979E-11 8.37749E-10
3.73157E-11 7.83710E-10
4.00286E-11 7.34100E-10
4.28368E-11 6.88401E-10
4.57402E-11 6.46393E-10
4.87388E-11 6.07710E-10
5.18325E-11 5.72025E-10
5.50215E-11 5.39130E-10
5.83057E-11 5.08725E-10
6.16850E-11 4.80600E-10
6.51595E-11 4.54545E-10
6.87293E-11 4.30372E-10
7.23943E-11 4.07924E-10
7.61544E-11 3.87013E-10
1.18991E-10 2.39319E-10
1.71347E-10 1.56419E-10
2.33223E-10 1.04102E-10
3.04617E-10 7.25077E-11
3.85531E-10 5.07928E-11
4.75965E-10 3.64109E-11
5.75917E-10 2.66884E-11
6.85389E-10 1.98152E-11
8.04380E-10 1.50479E-11
9.32891E-10 1.16401E-11
1.07092E-09 9.15504E-12
1.21847E-09 7.32283E-12
1.37554E-09 5.94318E-12
1.54213E-09 4.88575E-12
1.71823E-09 4.06485E-12
1.90386E-09 3.41538E-12
2.09900E-09 2.89501E-12
2.30367E-09 2.47462E-12
2.51785E-09 2.12787E-12
2.74156E-09 1.84138E-12
2.97478E-09 1.60277E-12
3.21752E-09 1.40022E-12
3.46978E-09 1.22933E-12
3.73156E-09 1.08352E-12
4.00286E-09 9.57875E-13
4.28368E-09 8.50074E-13
4.57402E-09 7.56465E-13
4.87388E-09 6.75003E-13
5.18326E-09 6.04195E-13
5.50215E-09 5.41927E-13
5.83057E-09 4.87365E-13
6.16850E-09 4.39455E-13
6.51596E-09 3.96934E-13
6.87293E-09 3.59419E-13
7.23942E-09 3.26146E-13
7.61544E-09 2.96481E-13
1.18991E-08 1.26186E-13
1.71347E-08 6.21094E-14
2.33223E-08 3.40481E-14
3.04617E-08 2.02342E-14
3.85531E-08 1.27882E-14
4.75965E-08 8.48227E-15
5.75917E-08 5.84704E-15
6.85389E-08 4.16126E-15
8.04380E-08 3.04117E-15
9.32891E-08 2.27351E-15
1.07092E-07 1.73324E-15
1.21847E-07 1.34397E-15
1.37554E-07 1.05796E-15
1.54213E-07 8.43979E-16
1.71823E-07 6.81363E-16
1.90386E-07 5.56029E-16
2.09900E-07 4.58169E-16
2.30367E-07 3.80892E-16
2.51785E-07 3.19212E-16
2.74156E-07 2.69509E-16
2.97478E-07 2.29101E-16
3.21752E-07 1.95978E-16
3.46978E-07 1.68624E-16
3.73156E-07 1.45875E-16
4.00286E-07 1.26831E-16
4.28368E-07 1.10794E-16
4.57402E-07 9.72102E-17
4.87388E-07 8.56444E-17
5.18325E-07 7.57471E-17
5.50215E-07 6.72381E-17
5.83057E-07 5.98902E-17
6.16850E-07 5.35185E-17
6.51596E-07 4.79715E-17
6.87293E-07 4.31245E-17
7.23942E-07 3.88742E-17
7.61543E-07 3.51346E-17
1.18991E-06 1.44020E-17
1.71347E-06 6.94734E-18
2.33223E-06 3.75036E-18
3.04617E-06 2.19843E-18
3.85531E-06 1.37243E-18
4.75964E-06 9.00403E-19
5.75916E-06 6.14946E-19
6.85388E-06 4.34160E-19
8.04378E-06 3.15185E-19
9.32888E-06 2.34310E-19
1.07092E-05 1.77787E-19
1.21846E-05 1.37323E-19
1.37553E-05 1.07743E-19
1.54212E-05 8.57144E-20
1.71822E-05 6.90380E-20
1.90385E-05 5.62251E-20
2.09899E-05 4.62552E-20
2.30365E-05 3.83991E-20
2.51783E-05 3.21410E-20
2.74153E-05 2.71064E-20
2.97475E-05 2.30196E-20
3.21749E-05 1.96747E-20
3.46974E-05 1.69160E-20
3.73152E-05 1.46244E-20
4.00281E-05 1.27082E-20
4.28362E-05 1.10958E-20
4.57395E-05 9.73116E-21
4.87380E-05 8.56983E-21
5.18317E-05 7.57657E-21
5.50205E-05 6.72302E-21
5.83045E-05 5.98631E-21
6.16838E-05 5.34779E-21
6.51582E-05 4.79218E-21
6.87277E-05 4.30690E-21
7.23925E-05 3.88153E-21
7.61524E-05 3.49939E-21
9.21439E-05 2.38778E-21
1.09658E-04 1.68414E-21
1.28695E-04 1.22136E-21
1.49255E-04 9.06938E-22
1.71338E-04 6.87342E-22
1.94942E-04 5.30234E-22
2.20070E-04 4.15460E-22
2.46720E-04 3.30051E-22
2.74892E-04 2.65439E-22
3.04586E-04 2.15843E-22
3.35803E-04 1.77265E-22
3.68542E-04 1.46899E-22
4.02802E-04 1.22736E-22
4.38585E-04 1.03318E-22
4.75889E-04 8.75726E-23
5.14715E-04 7.46973E-23
5.55063E-04 6.40884E-23
5.96931E-04 5.52845E-23
6.40321E-04 4.79303E-23
6.85233E-04 4.17492E-23
7.31665E-04 3.65244E-23
7.79618E-04 3.20842E-23
8.29092E-04 2.82919E-23
8.80086E-04 2.50376E-23
9.32601E-04 2.22327E-23
9.86636E-04 1.98050E-23
1.04219E-03 1.76955E-23
1.09927E-03 1.58557E-23
1.15786E-03 1.42455E-23
1.21797E-03 1.28314E-23
1.27961E-03 1.15857E-23
1.34276E-03 1.04851E-23
1.40743E-03 9.50971E-24
1.47362E-03 8.64307E-24
1.54133E-03 7.87102E-24
1.61056E-03 7.18152E-24
1.68131E-03 6.56428E-24
1.75357E-03 6.01048E-24
1.82735E-03 5.51252E-24
1.90265E-03 5.06382E-24
1.97947E-03 4.65872E-24
2.05780E-03 4.29226E-24
2.13765E-03 3.96017E-24
2.21902E-03 3.65867E-24
2.30190E-03 3.38449E-24
2.38630E-03 3.13474E-24
2.47222E-03 2.90689E-24
2.55965E-03 2.69870E-24
2.64859E-03 2.50819E-24
2.73905E-03 2.33362E-24
2.83103E-03 2.17343E-24
2.92452E-03 2.02625E-24
3.01952E-03 1.89085E-24
3.11604E-03 1.76613E-24
3.21407E-03 1.65111E-24
3.31362E-03 1.54491E-24
3.41468E-03 1.44676E-24
3.51725E-03 1.35593E-24
3.62133E-03 1.27180E-24
3.72692E-03 1.19380E-24
3.83403E-03 1.12140E-24
3.94265E-03 1.05414E-24
4.05278E-03 9.91594E-25
4.16442E-03 9.33384E-25
4.27757E-03 8.79160E-25
4.39223E-03 8.28606E-25
4.50840E-03 7.81434E-25
4.62608E-03 7.37384E-25
4.74527E-03 6.96216E-25
4.86597E-03 6.57713E-25
4.98817E-03 6.21675E-25
5.11188E-03 5.87921E-25
5.23711E-03 5.56284E-25
5.36383E-03 5.26611E-25
5.49207E-03 4.98762E-25
5.62181E-03 4.72607E-25
5.75306E-03 4.48028E-25
5.88581E-03 4.24916E-25
6.02007E-03 4.03170E-25
6.15583E-03 3.82698E-25
6.29310E-03 3.63414E-25
6.43187E-03 3.45240E-25
6.57214E-03 3.28101E-25
6.71392E-03 3.11932E-25
6.85720E-03 2.96668E-25
7.00198E-03 2.82252E-25
7.14827E-03 2.68630E-25
7.29605E-03 2.55752E-25
7.44534E-03 2.43573E-25
7.59612E-03 2.32048E-25
7.97965E-03 2.05845E-25
8.37255E-03 1.82938E-25
8.77480E-03 1.62861E-25
9.18641E-03 1.45223E-25
9.60736E-03 1.29693E-25
1.00376E-02 1.15989E-25
1.04773E-02 1.03873E-25
1.09262E-02 9.31398E-26
1.13844E-02 8.36147E-26
1.18520E-02 7.51472E-26
1.23288E-02 6.76076E-26
1.28150E-02 6.08840E-26
1.33104E-02 5.48794E-26
1.38150E-02 4.95094E-26
1.43290E-02 4.47008E-26
1.48521E-02 4.03896E-26
1.53845E-02 3.65197E-26
1.59262E-02 3.30421E-26
1.64770E-02 2.99138E-26
1.70371E-02 2.70970E-26
1.76063E-02 2.45582E-26
1.81848E-02 2.22680E-26
1.87724E-02 2.02003E-26
1.93692E-02 1.83320E-26
1.99751E-02 1.66427E-26
2.05901E-02 1.51140E-26
2.12143E-02 1.37300E-26
2.18476E-02 1.24760E-26
2.24900E-02 1.13393E-26
2.31415E-02 1.03082E-26
2.38021E-02 9.37259E-27
2.44717E-02 8.52315E-27
2.51504E-02 7.75163E-27
2.58382E-02 7.05061E-27
2.65349E-02 6.41341E-27
2.72407E-02 5.83403E-27
2.79555E-02 5.30706E-27
2.86793E-02 4.82763E-27
2.94120E-02 4.39136E-27
3.01537E-02 3.99426E-27
3.09043E-02 3.63276E-27
3.16639E-02 3.30362E-27
3.24324E-02 3.00389E-27
3.32098E-02 2.73092E-27
3.39961E-02 2.48231E-27
3.47912E-02 2.25586E-27
3.55952E-02 2.04960E-27
3.64081E-02 1.86173E-27
3.72297E-02 1.69061E-27
3.80602E-02 1.53476E-27
3.88995E-02 1.39282E-27
3.97476E-02 1.26356E-27
4.06044E-02 1.14588E-27
4.14700E-02 1.03874E-27
4.23443E-02 9.41213E-28
4.32273E-02 8.52463E-28
4.41190E-02 7.71716E-28
4.50194E-02 6.98266E-28
4.59284E-02 6.31474E-28
4.68461E-02 5.70753E-28
4.87074E-02 4.65438E-28
5.06030E-02 3.78583E-28
5.25328E-02 3.07073E-28
5.44967E-02 2.48310E-28
5.64946E-02 2.00125E-28
5.85262E-02 1.60709E-28
6.05914E-02 1.28554E-28
6.26901E-02 1.02400E-28
6.48222E-02 8.11989E-29
6.69873E-02 6.40758E-29
6.91854E-02 5.03032E-29
7.14163E-02 3.92761E-29
7.36799E-02 3.04923E-29
7.59760E-02 2.35353E-29
7.83043E-02 1.80605E-29
8.06647E-02 1.37831E-29
8.30571E-02 1.04688E-29
8.54812E-02 7.92480E-30
8.79369E-02 5.99331E-30
9.04240E-02 4.54545E-30
9.29422E-02 3.47642E-30
9.54915E-02 2.70139E-30
9.80716E-02 2.15199E-30
1.00682E-01 1.77349E-30
1.03323E-01 1.52231E-30
1.05995E-01 1.36405E-30
1.08696E-01 1.27180E-30
1.11427E-01 1.22470E-30
1.14188E-01 1.20683E-30
1.16978E-01 1.20621E-30
1.19797E-01 1.21401E-30
1.22645E-01 1.22391E-30
1.25522E-01 1.23154E-30
1.28428E-01 1.23406E-30
1.31361E-01 1.22979E-30
1.34323E-01 1.21792E-30
1.37313E-01 1.19831E-30
1.40330E-01 1.17124E-30
1.43375E-01 1.13734E-30
1.46447E-01 1.09743E-30
1.49545E-01 1.05244E-30
1.52671E-01 1.00334E-30
1.55823E-01 9.51112E-31
1.59001E-01 8.96691E-31
1.62205E-01 8.40951E-31
1.65435E-01 7.84685E-31
1.68690E-01 7.28600E-31
1.71970E-01 6.73312E-31
1.75276E-01 6.19341E-31
1.78606E-01 5.67122E-31
1.81961E-01 5.17002E-31
1.85340E-01 4.69253E-31
1.88743E-01 4.24072E-31
1.92169E-01 3.81595E-31
1.95619E-01 3.41902E-31
1.99092E-01 3.05021E-31
2.02589E-01 2.70942E-31
2.06107E-01 2.39618E-31
2.09649E-01 2.10974E-31
2.13212E-01 1.84912E-31
2.16797E-01 1.61316E-31
2.20404E-01 1.40058E-31
2.24032E-01 1.20999E-31
2.27680E-01 1.03996E-31
2.31350E-01 8.89021E-32
2.35040E-01 7.55704E-32
2.38751E-01 6.38565E-32
2.42481E-01 5.36193E-32
2.46231E-01 4.47225E-32
2.50000E-01 3.70361E-32
2.53788E-01 3.04369E-32
2.57595E-01 2.48086E-32
2.61421E-01 2.00432E-32
2.65264E-01 1.60400E-32
2.69126E-01 1.27065E-32
2.73005E-01 9.95777E-33
2.76901E-01 7.71646E-33
2.80814E-01 5.91258E-33
2.84744E-01 4.48305E-33
2.88691E-01 3.37139E-33
2.92653E-01 2.52732E-33
2.96632E-01 1.90634E-33
3.00625E-01 1.46929E-33
3.04634E-01 1.18193E-33
3.08658E-01 1.01455E-33
3.12697E-01 9.41488E-34
3.16749E-01 9.40826E-34
3.20816E-01 9.93946E-34
3.24896E-01 1.08521E-33
3.28990E-01 1.20159E-33
3.33097E-01 1.33243E-33
3.37216E-01 1.46906E-33
3.41348E-01 1.60463E-33
3.45492E-01 1.73380E-33
3.49647E-01 1.85255E-33
3.53814E-01 1.95797E-33
3.57992E-01 2.04811E-33
3.62181E-01 2.12180E-33
3.66381E-01 2.17852E-33
3.70590E-01 2.21825E-33
3.74810E-01 2.24142E-33
3.79039E-01 2.24876E-33
3.83277E-01 2.24125E-33
3.87524E-01 2.22004E-33
3.91780E-01 2.18641E-33
3.96044E-01 2.14169E-33
4.00316E-01 2.08725E-33
4.04596E-01 2.02447E-33
4.08882E-01 1.95466E-33
4.13176E-01 1.87911E-33
4.17476E-01 1.79903E-33
4.21783E-01 1.71557E-33
4.26095E-01 1.62976E-33
4.30413E-01 1.54257E-33
4.34737E-01 1.45487E-33
4.39065E-01 1.36742E-33
4.43398E-01 1.28091E-33
4.47736E-01 1.19593E-33
4.52077E-01 1.11298E-33
4.56422E-01 1.03250E-33
4.60770E-01 9.54829E-34
4.65122E-01 8.80251E-34
4.69476E-01 8.08985E-34
4.73832E-01 7.41191E-34
4.78190E-01 6.76974E-34
4.82550E-01 6.16396E-34
4.86912E-01 5.59477E-34
4.91274E-01 5.06199E-34
4.95637E-01 4.56516E-34
5.00000E-01 4.10354E-34
5.04363E-01 3.67617E-34
5.08726E-01 3.28191E-34
5.13088E-01 2.91949E-34
5.17450E-01 2.58751E-34
5.21810E-01 2.28449E-34
5.26168E-01 2.00889E-34
5.30524E-01 1.75915E-34
5.34878E-01 1.53367E-34
5.39230E-01 1.33089E-34
5.43578E-01 1.14923E-34
5.47923E-01 9.87171E-35
5.52264E-01 8.43213E-35
5.56602E-01 7.15922E-35
5.60935E-01 6.03907E-35
5.65263E-01 5.05847E-35
5.69587E-01 4.20486E-35
5.73905E-01 3.46634E-35
5.78217E-01 2.83171E-35
5.82524E-01 2.29049E-35
5.86824E-01 1.83285E-35
5.91118E-01 1.44971E-35
5.95404E-01 1.13261E-35
5.99684E-01 8.73805E-36
6.03956E-01 6.66158E-36
6.08220E-01 5.03106E-36
6.12476E-01 3.78740E-36
6.16723E-01 2.87631E-36
6.20961E-01 2.24898E-36
6.25190E-01 1.86178E-36
6.29410E-01 1.67507E-36
6.33619E-01 1.65389E-36
6.37819E-01 1.76691E-36
6.42008E-01 1.98689E-36
6.46186E-01 2.28944E-36
6.50353E-01 2.65363E-36
6.54508E-01 3.06119E-36
6.58652E-01 3.49634E-36
6.62784E-01 3.94559E-36
6.66903E-01 4.39780E-36
6.71010E-01 4.84343E-36
6.75104E-01 5.27475E-36
6.79184E-01 5.68540E-36
6.83251E-01 6.07047E-36
6.87303E-01 6.42611E-36
6.91342E-01 6.74956E-36
6.95366E-01 7.03887E-36
6.99375E-01 7.29294E-36
7.03368E-01 7.51121E-36
7.07347E-01 7.69377E-36
7.11309E-01 7.84114E-36
7.15256E-01 7.95420E-36
7.19186E-01 8.03417E-36
7.23099E-01 8.08254E-36
7.26995E-01 8.10095E-36
7.30874E-01 8.09116E-36
7.34736E-01 8.05512E-36
7.38579E-01 7.99475E-36
7.42405E-01 7.91205E-36
7.46212E-01 7.80908E-36
7.50000E-01 7.68774E-36
7.53769E-01 7.55003E-36
7.57519E-01 7.39777E-36
7.61249E-01 7.23282E-36
7.64960E-01 7.05693E-36
7.68650E-01 6.87172E-36
7.72320E-01 6.67877E-36
7.75968E-01 6.47959E-36
7.79596E-01 6.27546E-36
7.83203E-01 6.06777E-36
7.86788E-01 5.85766E-36
7.90351E-01 5.64622E-36
7.93893E-01 5.43442E-36
7.97411E-01 5.22318E-36
8.00908E-01 5.01328E-36
8.04381E-01 4.80556E-36
8.07831E-01 4.60056E-36
8.11257E-01 4.39884E-36
8.14660E-01 4.20100E-36
8.18039E-01 4.00741E-36
8.21394E-01 3.81845E-36
8.24724E-01 3.63447E-36
8.28030E-01 3.45570E-36
8.31310E-01 3.28232E-36
8.34565E-01 3.11452E-36
8.37795E-01 2.95244E-36
8.40999E-01 2.79614E-36
8.44177E-01 2.64561E-36
8.47329E-01 2.50102E-36
8.50455E-01 2.36217E-36
8.53553E-01 2.22910E-36
8.56625E-01 2.10178E-36
8.59670E-01 1.98009E-36
8.62687E-01 1.86391E-36
8.65677E-01 1.75321E-36
8.68639E-01 1.64773E-36
8.71572E-01 1.54747E-36
8.74478E-01 1.45217E-36
8.77355E-01 1.36173E-36
8.80203E-01 1.27602E-36
8.83022E-01 1.19483E-36
8.85812E-01 1.11798E-36
8.88573E-01 1.04538E-36
8.91304E-01 9.76795E-37
8.94005E-01 9.12091E-37
8.96677E-01 8.51105E-37
8.99318E-01 7.93661E-37
9.01928E-01 7.39578E-37
9.04508E-01 6.88757E-37
9.07058E-01 6.40982E-37
9.09576E-01 5.96165E-37
9.12063E-01 5.54107E-37
9.14519E-01 5.14693E-37
9.16943E-01 4.77780E-37
9.19335E-01 4.43252E-37
9.21696E-01 4.10931E-37
9.24024E-01 3.80742E-37
9.26320E-01 3.52566E-37
9.28584E-01 3.26254E-37
9.30815E-01 3.01739E-37
9.33013E-01 2.78880E-37
9.35178E-01 2.57606E-37
9.37310E-01 2.37794E-37
9.39409E-01 2.19373E-37
9.41474E-01 2.02268E-37
9.43505E-01 1.86389E-37
9.45503E-01 1.71630E-37
9.47467E-01 1.57965E-37
9.49397E-01 1.45278E-37
9.51293E-01 1.33545E-37
9.53154E-01 1.22654E-37
9.54981E-01 1.12602E-37
9.56773E-01 1.03288E-37
9.58530E-01 9.46812E-38
9.60252E-01 8.67321E-38
9.61940E-01 7.94024E-38
9.63592E-01 7.26259E-38
9.65209E-01 6.63859E-38
9.66790E-01 6.06364E-38
9.68336E-01 5.53319E-38
9.69846E-01 5.04586E-38
9.71321E-01 4.59747E-38
9.72759E-01 4.18529E-38
9.74162E-01 3.80582E-38
9.75528E-01 3.45755E-38
9.76858E-01 3.13732E-38
9.78152E-01 2.84414E-38
9.79410E-01 2.57551E-38
9.80631E-01 2.32934E-38
9.81815E-01 2.10346E-38
9.82963E-01 1.89736E-38
9.84074E-01 1.70898E-38
9.85148E-01 1.53658E-38
9.86185E-01 1.37978E-38
9.87185E-01 1.23636E-38
9.88148E-01 1.10605E-38
9.89074E-01 9.86027E-39
9.89962E-01 8.77443E-39
9.90814E-01 7.79253E-39
9.91627E-01 6.89319E-39
9.92404E-01 6.07851E-39
9.93143E-01 5.34279E-39
9.93844E-01 4.67186E-39
9.94508E-01 4.06197E-39
9.95134E-01 3.52201E-39
9.95722E-01 3.02680E-39
9.96273E-01 2.58535E-39
9.96786E-01 2.18548E-39
9.97261E-01 1.83071E-39
9.97698E-01 1.51354E-39
9.98097E-01 1.23251E-39
9.98459E-01 9.85710E-40
9.98782E-01 7.68996E-40
9.99067E-01 5.83143E-40
9.99315E-01 4.22490E-40
9.99524E-01 2.91028E-40
9.99695E-01 1.87739E-40
9.99829E-01 1.04821E-40
9.99924E-01 4.82786E-41
9.99981E-01 1.24810E-41
1.00000E+00 1.13157E-42
