 #
 # Subroutine ELSEPA. Elastic scattering of electrons and positrons
 #                    by neutral atoms and positive ions
 #
 # Projectile: positron
 # Kinetic energy = 1.75000E+08 eV = 6.43113E+06 a.u.
 #
 # WARNING: High-energy factorization with free-atom DF screening.
 #          Absorption, polarization and exchange corrections are
 #          switched off.
 #          Phase shifts are calculated for the bare nucleus.
 #          Scattering amplitudes are not evaluated.
 #
 # Element: Ti,  Z =  22,  atomic weight = 4.78670E+01 g/mol
 #
 # Nuclear model: Fermi distribution
 #                Average radius = 3.88504E-13 cm
 #                Skin thickness = 5.46000E-14 cm
 #
 # Number of electrons = 22
 #
 # Total elastic cross section = 1.89998E-18 cm**2 = 6.78496E-02 a0**2
 # 1st transport cross section = 3.27502E-26 cm**2 = 1.16953E-09 a0**2
 # 2nd transport cross section = 9.78432E-26 cm**2 = 3.49404E-09 a0**2
 #
 #
 # Differential cross section:                       MU=(1-COS(THETA))/2
 #
 #  THETA        MU          DCS          DCS        Sherman      error
 #  (deg)                 (cm**2/sr)   (a0**2/sr)    function
 #----------------------------------------------------------------------
0.00000E+00 9.03020E-10
7.61557E-13 8.91431E-10
1.18994E-12 8.85014E-10
1.71346E-12 8.77267E-10
2.33225E-12 8.68243E-10
3.04617E-12 8.58007E-10
3.85530E-12 8.46625E-10
4.75964E-12 8.34175E-10
5.75917E-12 8.20737E-10
6.85391E-12 8.06395E-10
8.04379E-12 7.91237E-10
9.32893E-12 7.75352E-10
1.07092E-11 7.58832E-10
1.21847E-11 7.41767E-10
1.37554E-11 7.24245E-10
1.54213E-11 7.06349E-10
1.71823E-11 6.88169E-10
1.90386E-11 6.69792E-10
2.09900E-11 6.51279E-10
2.30367E-11 6.32705E-10
2.51785E-11 6.14169E-10
2.74156E-11 5.95694E-10
2.97478E-11 5.77336E-10
3.21752E-11 5.59211E-10
3.46979E-11 5.41299E-10
3.73157E-11 5.23640E-10
4.00286E-11 5.06346E-10
4.28368E-11 4.89382E-10
4.57402E-11 4.72762E-10
4.87388E-11 4.56586E-10
5.18325E-11 4.40821E-10
5.50215E-11 4.25453E-10
5.83057E-11 4.10564E-10
6.16850E-11 3.96135E-10
6.51595E-11 3.82124E-10
6.87293E-11 3.68593E-10
7.23943E-11 3.55544E-10
7.61544E-11 3.42912E-10
1.18991E-10 2.40168E-10
1.71347E-10 1.72125E-10
2.33223E-10 1.27180E-10
3.04617E-10 9.67418E-11
3.85531E-10 7.53722E-11
4.75965E-10 5.98105E-11
5.75917E-10 4.81024E-11
6.85389E-10 3.90792E-11
8.04380E-10 3.17582E-11
9.32891E-10 2.59997E-11
1.07092E-09 2.16461E-11
1.21847E-09 1.80992E-11
1.37554E-09 1.50555E-11
1.54213E-09 1.26800E-11
1.71823E-09 1.07536E-11
1.90386E-09 9.08584E-12
2.09900E-09 7.74868E-12
2.30367E-09 6.65813E-12
2.51785E-09 5.71650E-12
2.74156E-09 4.94367E-12
2.97478E-09 4.30424E-12
3.21752E-09 3.75385E-12
3.46978E-09 3.29268E-12
3.73156E-09 2.90388E-12
4.00286E-09 2.56952E-12
4.28368E-09 2.28386E-12
4.57402E-09 2.03909E-12
4.87388E-09 1.82680E-12
5.18326E-09 1.64269E-12
5.50215E-09 1.48271E-12
5.83057E-09 1.34233E-12
6.16850E-09 1.21892E-12
6.51596E-09 1.11041E-12
6.87293E-09 1.01411E-12
7.23942E-09 9.28314E-13
7.61544E-09 8.52132E-13
1.18991E-08 3.99881E-13
1.71347E-08 2.12029E-13
2.33223E-08 1.21541E-13
3.04617E-08 7.39275E-14
3.85531E-08 4.72253E-14
4.75965E-08 3.14596E-14
5.75917E-08 2.17297E-14
6.85389E-08 1.54837E-14
8.04380E-08 1.13307E-14
9.32891E-08 8.48797E-15
1.07092E-07 6.48715E-15
1.21847E-07 5.04429E-15
1.37554E-07 3.98307E-15
1.54213E-07 3.18797E-15
1.71823E-07 2.58245E-15
1.90386E-07 2.11455E-15
2.09900E-07 1.74792E-15
2.30367E-07 1.45757E-15
2.51785E-07 1.22515E-15
2.74156E-07 1.03730E-15
2.97478E-07 8.84105E-16
3.21752E-07 7.58082E-16
3.46978E-07 6.53725E-16
3.73156E-07 5.66708E-16
4.00286E-07 4.93683E-16
4.28368E-07 4.32032E-16
4.57402E-07 3.79669E-16
4.87388E-07 3.34994E-16
5.18325E-07 2.96690E-16
5.50215E-07 2.63698E-16
5.83057E-07 2.35157E-16
6.16850E-07 2.10360E-16
6.51596E-07 1.88741E-16
6.87293E-07 1.69825E-16
7.23942E-07 1.53216E-16
7.61543E-07 1.38584E-16
1.18991E-06 5.70967E-17
1.71347E-06 2.76105E-17
2.33223E-06 1.49241E-17
3.04617E-06 8.75479E-18
3.85531E-06 5.46784E-18
4.75964E-06 3.58828E-18
5.75916E-06 2.45115E-18
6.85388E-06 1.73077E-18
8.04378E-06 1.25660E-18
9.32888E-06 9.34225E-19
1.07092E-05 7.08897E-19
1.21846E-05 5.47579E-19
1.37553E-05 4.29640E-19
1.54212E-05 3.41807E-19
1.71822E-05 2.75312E-19
1.90385E-05 2.24220E-19
2.09899E-05 1.84464E-19
2.30365E-05 1.53136E-19
2.51783E-05 1.28180E-19
2.74153E-05 1.08103E-19
2.97475E-05 9.18048E-20
3.21749E-05 7.84654E-20
3.46974E-05 6.74636E-20
3.73152E-05 5.83249E-20
4.00281E-05 5.06830E-20
4.28362E-05 4.42526E-20
4.57395E-05 3.88100E-20
4.87380E-05 3.41785E-20
5.18317E-05 3.02172E-20
5.50205E-05 2.68132E-20
5.83045E-05 2.38750E-20
6.16838E-05 2.13285E-20
6.51582E-05 1.91126E-20
6.87277E-05 1.71772E-20
7.23925E-05 1.54807E-20
7.61524E-05 1.39830E-20
9.21439E-05 9.54584E-21
1.09658E-04 6.73650E-21
1.28695E-04 4.88833E-21
1.49255E-04 3.63229E-21
1.71338E-04 2.75478E-21
1.94942E-04 2.12676E-21
2.20070E-04 1.66781E-21
2.46720E-04 1.32613E-21
2.74892E-04 1.06755E-21
3.04586E-04 8.68966E-22
3.35803E-04 7.14426E-22
3.68542E-04 5.92719E-22
4.02802E-04 4.95822E-22
4.38585E-04 4.17909E-22
4.75889E-04 3.54691E-22
5.14715E-04 3.02964E-22
5.55063E-04 2.60313E-22
5.96931E-04 2.24895E-22
6.40321E-04 1.95286E-22
6.85233E-04 1.70381E-22
7.31665E-04 1.49313E-22
7.79618E-04 1.31393E-22
8.29092E-04 1.16075E-22
8.80086E-04 1.02918E-22
9.32601E-04 9.15671E-23
9.86636E-04 8.17332E-23
1.04219E-03 7.31798E-23
1.09927E-03 6.57121E-23
1.15786E-03 5.91691E-23
1.21797E-03 5.34169E-23
1.27961E-03 4.83438E-23
1.34276E-03 4.38560E-23
1.40743E-03 3.98743E-23
1.47362E-03 3.63321E-23
1.54133E-03 3.31724E-23
1.61056E-03 3.03468E-23
1.68131E-03 2.78139E-23
1.75357E-03 2.55382E-23
1.82735E-03 2.34889E-23
1.90265E-03 2.16398E-23
1.97947E-03 1.99677E-23
2.05780E-03 1.84529E-23
2.13765E-03 1.70779E-23
2.21902E-03 1.58277E-23
2.30190E-03 1.46888E-23
2.38630E-03 1.36496E-23
2.47222E-03 1.26999E-23
2.55965E-03 1.18306E-23
2.64859E-03 1.10338E-23
2.73905E-03 1.03022E-23
2.83103E-03 9.62966E-24
2.92452E-03 9.01053E-24
3.01952E-03 8.43983E-24
3.11604E-03 7.91310E-24
3.21407E-03 7.42635E-24
3.31362E-03 6.97601E-24
3.41468E-03 6.55888E-24
3.51725E-03 6.17207E-24
3.62133E-03 5.81299E-24
3.72692E-03 5.47930E-24
3.83403E-03 5.16888E-24
3.94265E-03 4.87982E-24
4.05278E-03 4.61040E-24
4.16442E-03 4.35905E-24
4.27757E-03 4.12433E-24
4.39223E-03 3.90495E-24
4.50840E-03 3.69973E-24
4.62608E-03 3.50759E-24
4.74527E-03 3.32756E-24
4.86597E-03 3.15873E-24
4.98817E-03 3.00028E-24
5.11188E-03 2.85147E-24
5.23711E-03 2.71159E-24
5.36383E-03 2.58003E-24
5.49207E-03 2.45620E-24
5.62181E-03 2.33955E-24
5.75306E-03 2.22962E-24
5.88581E-03 2.12593E-24
6.02007E-03 2.02807E-24
6.15583E-03 1.93565E-24
6.29310E-03 1.84832E-24
6.43187E-03 1.76576E-24
6.57214E-03 1.68764E-24
6.71392E-03 1.61370E-24
6.85720E-03 1.54366E-24
7.00198E-03 1.47730E-24
7.14827E-03 1.41437E-24
7.29605E-03 1.35467E-24
7.44534E-03 1.29800E-24
7.59612E-03 1.24420E-24
7.97965E-03 1.12108E-24
8.37255E-03 1.01243E-24
8.77480E-03 9.16275E-25
9.18641E-03 8.30949E-25
9.60736E-03 7.55038E-25
1.00376E-02 6.87335E-25
1.04773E-02 6.26812E-25
1.09262E-02 5.72585E-25
1.13844E-02 5.23896E-25
1.18520E-02 4.80088E-25
1.23288E-02 4.40595E-25
1.28150E-02 4.04924E-25
1.33104E-02 3.72647E-25
1.38150E-02 3.43391E-25
1.43290E-02 3.16827E-25
1.48521E-02 2.92670E-25
1.53845E-02 2.70667E-25
1.59262E-02 2.50597E-25
1.64770E-02 2.32262E-25
1.70371E-02 2.15491E-25
1.76063E-02 2.00129E-25
1.81848E-02 1.86039E-25
1.87724E-02 1.73100E-25
1.93692E-02 1.61205E-25
1.99751E-02 1.50255E-25
2.05901E-02 1.40164E-25
2.12143E-02 1.30856E-25
2.18476E-02 1.22260E-25
2.24900E-02 1.14313E-25
2.31415E-02 1.06960E-25
2.38021E-02 1.00150E-25
2.44717E-02 9.38360E-26
2.51504E-02 8.79774E-26
2.58382E-02 8.25366E-26
2.65349E-02 7.74794E-26
2.72407E-02 7.27750E-26
2.79555E-02 6.83953E-26
2.86793E-02 6.43147E-26
2.94120E-02 6.05100E-26
3.01537E-02 5.69600E-26
3.09043E-02 5.36452E-26
3.16639E-02 5.05480E-26
3.24324E-02 4.76522E-26
3.32098E-02 4.49429E-26
3.39961E-02 4.24065E-26
3.47912E-02 4.00305E-26
3.55952E-02 3.78035E-26
3.64081E-02 3.57149E-26
3.72297E-02 3.37550E-26
3.80602E-02 3.19149E-26
3.88995E-02 3.01863E-26
3.97476E-02 2.85616E-26
4.06044E-02 2.70339E-26
4.14700E-02 2.55965E-26
4.23443E-02 2.42436E-26
4.32273E-02 2.29696E-26
4.41190E-02 2.17693E-26
4.50194E-02 2.06380E-26
4.59284E-02 1.95712E-26
4.68461E-02 1.85649E-26
4.87074E-02 1.67185E-26
5.06030E-02 1.50716E-26
5.25328E-02 1.36003E-26
5.44967E-02 1.22840E-26
5.64946E-02 1.11049E-26
5.85262E-02 1.00473E-26
6.05914E-02 9.09747E-27
6.26901E-02 8.24351E-27
6.48222E-02 7.47487E-27
6.69873E-02 6.78232E-27
6.91854E-02 6.15769E-27
7.14163E-02 5.59379E-27
7.36799E-02 5.08428E-27
7.59760E-02 4.62350E-27
7.83043E-02 4.20646E-27
8.06647E-02 3.82873E-27
8.30571E-02 3.48635E-27
8.54812E-02 3.17580E-27
8.79369E-02 2.89393E-27
9.04240E-02 2.63795E-27
9.29422E-02 2.40533E-27
9.54915E-02 2.19384E-27
9.80716E-02 2.00144E-27
1.00682E-01 1.82634E-27
1.03323E-01 1.66691E-27
1.05995E-01 1.52167E-27
1.08696E-01 1.38932E-27
1.11427E-01 1.26867E-27
1.14188E-01 1.15864E-27
1.16978E-01 1.05826E-27
1.19797E-01 9.66661E-28
1.22645E-01 8.83052E-28
1.25522E-01 8.06715E-28
1.28428E-01 7.37002E-28
1.31361E-01 6.73324E-28
1.34323E-01 6.15147E-28
1.37313E-01 5.61987E-28
1.40330E-01 5.13404E-28
1.43375E-01 4.68997E-28
1.46447E-01 4.28403E-28
1.49545E-01 3.91290E-28
1.52671E-01 3.57359E-28
1.55823E-01 3.26333E-28
1.59001E-01 2.97963E-28
1.62205E-01 2.72020E-28
1.65435E-01 2.48297E-28
1.68690E-01 2.26605E-28
1.71970E-01 2.06768E-28
1.75276E-01 1.88630E-28
1.78606E-01 1.72046E-28
1.81961E-01 1.56883E-28
1.85340E-01 1.43021E-28
1.88743E-01 1.30350E-28
1.92169E-01 1.18769E-28
1.95619E-01 1.08185E-28
1.99092E-01 9.85139E-29
2.02589E-01 8.96783E-29
2.06107E-01 8.16076E-29
2.09649E-01 7.42368E-29
2.13212E-01 6.75067E-29
2.16797E-01 6.13629E-29
2.20404E-01 5.57558E-29
2.24032E-01 5.06398E-29
2.27680E-01 4.59730E-29
2.31350E-01 4.17174E-29
2.35040E-01 3.78378E-29
2.38751E-01 3.43021E-29
2.42481E-01 3.10810E-29
2.46231E-01 2.81475E-29
2.50000E-01 2.54770E-29
2.53788E-01 2.30467E-29
2.57595E-01 2.08361E-29
2.61421E-01 1.88261E-29
2.65264E-01 1.69994E-29
2.69126E-01 1.53400E-29
2.73005E-01 1.38334E-29
2.76901E-01 1.24661E-29
2.80814E-01 1.12260E-29
2.84744E-01 1.01019E-29
2.88691E-01 9.08356E-30
2.92653E-01 8.16155E-30
2.96632E-01 7.32731E-30
3.00625E-01 6.57300E-30
3.04634E-01 5.89144E-30
3.08658E-01 5.27606E-30
3.12697E-01 4.72087E-30
3.16749E-01 4.22038E-30
3.20816E-01 3.76958E-30
3.24896E-01 3.36390E-30
3.28990E-01 2.99915E-30
3.33097E-01 2.67152E-30
3.37216E-01 2.37753E-30
3.41348E-01 2.11401E-30
3.45492E-01 1.87806E-30
3.49647E-01 1.66704E-30
3.53814E-01 1.47856E-30
3.57992E-01 1.31042E-30
3.62181E-01 1.16064E-30
3.66381E-01 1.02740E-30
3.70590E-01 9.09052E-31
3.74810E-01 8.04107E-31
3.79039E-01 7.11204E-31
3.83277E-01 6.29110E-31
3.87524E-01 5.56708E-31
3.91780E-01 4.92984E-31
3.96044E-01 4.37020E-31
4.00316E-01 3.87987E-31
4.04596E-01 3.45133E-31
4.08882E-01 3.07781E-31
4.13176E-01 2.75317E-31
4.17476E-01 2.47190E-31
4.21783E-01 2.22902E-31
4.26095E-01 2.02007E-31
4.30413E-01 1.84100E-31
4.34737E-01 1.68821E-31
4.39065E-01 1.55847E-31
4.43398E-01 1.44886E-31
4.47736E-01 1.35679E-31
4.52077E-01 1.27995E-31
4.56422E-01 1.21628E-31
4.60770E-01 1.16392E-31
4.65122E-01 1.12126E-31
4.69476E-01 1.08684E-31
4.73832E-01 1.05938E-31
4.78190E-01 1.03776E-31
4.82550E-01 1.02099E-31
4.86912E-01 1.00818E-31
4.91274E-01 9.98586E-32
4.95637E-01 9.91536E-32
5.00000E-01 9.86457E-32
5.04363E-01 9.82850E-32
5.08726E-01 9.80289E-32
5.13088E-01 9.78408E-32
5.17450E-01 9.76897E-32
5.21810E-01 9.75497E-32
5.26168E-01 9.73989E-32
5.30524E-01 9.72197E-32
5.34878E-01 9.69974E-32
5.39230E-01 9.67205E-32
5.43578E-01 9.63802E-32
5.47923E-01 9.59697E-32
5.52264E-01 9.54844E-32
5.56602E-01 9.49213E-32
5.60935E-01 9.42788E-32
5.65263E-01 9.35565E-32
5.69587E-01 9.27553E-32
5.73905E-01 9.18767E-32
5.78217E-01 9.09230E-32
5.82524E-01 8.98973E-32
5.86824E-01 8.88029E-32
5.91118E-01 8.76437E-32
5.95404E-01 8.64236E-32
5.99684E-01 8.51471E-32
6.03956E-01 8.38185E-32
6.08220E-01 8.24424E-32
6.12476E-01 8.10234E-32
6.16723E-01 7.95658E-32
6.20961E-01 7.80744E-32
6.25190E-01 7.65533E-32
6.29410E-01 7.50070E-32
6.33619E-01 7.34396E-32
6.37819E-01 7.18551E-32
6.42008E-01 7.02574E-32
6.46186E-01 6.86502E-32
6.50353E-01 6.70369E-32
6.54508E-01 6.54210E-32
6.58652E-01 6.38055E-32
6.62784E-01 6.21935E-32
6.66903E-01 6.05876E-32
6.71010E-01 5.89905E-32
6.75104E-01 5.74046E-32
6.79184E-01 5.58320E-32
6.83251E-01 5.42748E-32
6.87303E-01 5.27349E-32
6.91342E-01 5.12140E-32
6.95366E-01 4.97137E-32
6.99375E-01 4.82352E-32
7.03368E-01 4.67800E-32
7.07347E-01 4.53490E-32
7.11309E-01 4.39433E-32
7.15256E-01 4.25637E-32
7.19186E-01 4.12109E-32
7.23099E-01 3.98856E-32
7.26995E-01 3.85882E-32
7.30874E-01 3.73193E-32
7.34736E-01 3.60790E-32
7.38579E-01 3.48677E-32
7.42405E-01 3.36854E-32
7.46212E-01 3.25324E-32
7.50000E-01 3.14085E-32
7.53769E-01 3.03137E-32
7.57519E-01 2.92479E-32
7.61249E-01 2.82110E-32
7.64960E-01 2.72027E-32
7.68650E-01 2.62228E-32
7.72320E-01 2.52709E-32
7.75968E-01 2.43468E-32
7.79596E-01 2.34500E-32
7.83203E-01 2.25801E-32
7.86788E-01 2.17368E-32
7.90351E-01 2.09195E-32
7.93893E-01 2.01279E-32
7.97411E-01 1.93613E-32
8.00908E-01 1.86194E-32
8.04381E-01 1.79016E-32
8.07831E-01 1.72074E-32
8.11257E-01 1.65361E-32
8.14660E-01 1.58875E-32
8.18039E-01 1.52607E-32
8.21394E-01 1.46554E-32
8.24724E-01 1.40710E-32
8.28030E-01 1.35069E-32
8.31310E-01 1.29626E-32
8.34565E-01 1.24376E-32
8.37795E-01 1.19312E-32
8.40999E-01 1.14431E-32
8.44177E-01 1.09726E-32
8.47329E-01 1.05192E-32
8.50455E-01 1.00825E-32
8.53553E-01 9.66184E-33
8.56625E-01 9.25684E-33
8.59670E-01 8.86697E-33
8.62687E-01 8.49175E-33
8.65677E-01 8.13072E-33
8.68639E-01 7.78340E-33
8.71572E-01 7.44936E-33
8.74478E-01 7.12814E-33
8.77355E-01 6.81932E-33
8.80203E-01 6.52248E-33
8.83022E-01 6.23720E-33
8.85812E-01 5.96309E-33
8.88573E-01 5.69977E-33
8.91304E-01 5.44684E-33
8.94005E-01 5.20394E-33
8.96677E-01 4.97072E-33
8.99318E-01 4.74682E-33
9.01928E-01 4.53190E-33
9.04508E-01 4.32565E-33
9.07058E-01 4.12773E-33
9.09576E-01 3.93786E-33
9.12063E-01 3.75572E-33
9.14519E-01 3.58102E-33
9.16943E-01 3.41349E-33
9.19335E-01 3.25286E-33
9.21696E-01 3.09886E-33
9.24024E-01 2.95124E-33
9.26320E-01 2.80976E-33
9.28584E-01 2.67417E-33
9.30815E-01 2.54426E-33
9.33013E-01 2.41980E-33
9.35178E-01 2.30059E-33
9.37310E-01 2.18641E-33
9.39409E-01 2.07706E-33
9.41474E-01 1.97237E-33
9.43505E-01 1.87214E-33
9.45503E-01 1.77620E-33
9.47467E-01 1.68438E-33
9.49397E-01 1.59651E-33
9.51293E-01 1.51245E-33
9.53154E-01 1.43202E-33
9.54981E-01 1.35510E-33
9.56773E-01 1.28154E-33
9.58530E-01 1.21121E-33
9.60252E-01 1.14398E-33
9.61940E-01 1.07972E-33
9.63592E-01 1.01831E-33
9.65209E-01 9.59649E-34
9.66790E-01 9.03619E-34
9.68336E-01 8.50113E-34
9.69846E-01 7.99036E-34
9.71321E-01 7.50288E-34
9.72759E-01 7.03778E-34
9.74162E-01 6.59414E-34
9.75528E-01 6.17115E-34
9.76858E-01 5.76797E-34
9.78152E-01 5.38388E-34
9.79410E-01 5.01810E-34
9.80631E-01 4.66994E-34
9.81815E-01 4.33869E-34
9.82963E-01 4.02376E-34
9.84074E-01 3.72451E-34
9.85148E-01 3.44035E-34
9.86185E-01 3.17077E-34
9.87185E-01 2.91518E-34
9.88148E-01 2.67312E-34
9.89074E-01 2.44403E-34
9.89962E-01 2.22757E-34
9.90814E-01 2.02328E-34
9.91627E-01 1.83071E-34
9.92404E-01 1.64953E-34
9.93143E-01 1.47936E-34
9.93844E-01 1.31984E-34
9.94508E-01 1.17067E-34
9.95134E-01 1.03160E-34
9.95722E-01 9.02268E-35
9.96273E-01 7.82473E-35
9.96786E-01 6.71936E-35
9.97261E-01 5.70470E-35
9.97698E-01 4.77850E-35
9.98097E-01 3.93896E-35
9.98459E-01 3.18441E-35
9.98782E-01 2.51326E-35
9.99067E-01 1.92426E-35
9.99315E-01 1.41604E-35
9.99524E-01 9.87835E-36
9.99695E-01 6.38816E-36
9.99829E-01 3.67886E-36
9.99924E-01 1.74875E-36
9.99981E-01 5.91110E-37
1.00000E+00 2.04141E-37
