 #
 # Subroutine ELSEPA. Elastic scattering of electrons and positrons
 #                    by neutral atoms and positive ions
 #
 # Projectile: positron
 # Kinetic energy = 3.50000E+06 eV = 1.28623E+05 a.u.
 #
 # WARNING: High-energy factorization with free-atom DF screening.
 #          Absorption, polarization and exchange corrections are
 #          switched off.
 #          Phase shifts are calculated for the bare nucleus.
 #          Scattering amplitudes are not evaluated.
 #
 # Element: Ti,  Z =  22,  atomic weight = 4.78670E+01 g/mol
 #
 # Nuclear model: Fermi distribution
 #                Average radius = 3.88504E-13 cm
 #                Skin thickness = 5.46000E-14 cm
 #
 # Number of electrons = 22
 #
 # Total elastic cross section = 1.93005E-18 cm**2 = 6.89233E-02 a0**2
 # 1st transport cross section = 4.20132E-23 cm**2 = 1.50032E-06 a0**2
 # 2nd transport cross section = 1.20648E-22 cm**2 = 4.30840E-06 a0**2
 #
 #
 # Differential cross section:                       MU=(1-COS(THETA))/2
 #
 #  THETA        MU          DCS          DCS        Sherman      error
 #  (deg)                 (cm**2/sr)   (a0**2/sr)    function
 #----------------------------------------------------------------------
0.00000E+00 4.71622E-13
7.61557E-13 4.71618E-13
1.18994E-12 4.71616E-13
1.71346E-12 4.71614E-13
2.33225E-12 4.71611E-13
3.04617E-12 4.71608E-13
3.85530E-12 4.71605E-13
4.75964E-12 4.71601E-13
5.75917E-12 4.71597E-13
6.85391E-12 4.71592E-13
8.04379E-12 4.71587E-13
9.32893E-12 4.71582E-13
1.07092E-11 4.71576E-13
1.21847E-11 4.71570E-13
1.37554E-11 4.71563E-13
1.54213E-11 4.71557E-13
1.71823E-11 4.71549E-13
1.90386E-11 4.71541E-13
2.09900E-11 4.71533E-13
2.30367E-11 4.71525E-13
2.51785E-11 4.71516E-13
2.74156E-11 4.71507E-13
2.97478E-11 4.71497E-13
3.21752E-11 4.71487E-13
3.46979E-11 4.71476E-13
3.73157E-11 4.71466E-13
4.00286E-11 4.71454E-13
4.28368E-11 4.71443E-13
4.57402E-11 4.71431E-13
4.87388E-11 4.71418E-13
5.18325E-11 4.71405E-13
5.50215E-11 4.71392E-13
5.83057E-11 4.71379E-13
6.16850E-11 4.71365E-13
6.51595E-11 4.71350E-13
6.87293E-11 4.71335E-13
7.23943E-11 4.71320E-13
7.61544E-11 4.71305E-13
1.18991E-10 4.71128E-13
1.71347E-10 4.70912E-13
2.33223E-10 4.70657E-13
3.04617E-10 4.70363E-13
3.85531E-10 4.70030E-13
4.75965E-10 4.69659E-13
5.75917E-10 4.69249E-13
6.85389E-10 4.68801E-13
8.04380E-10 4.68315E-13
9.32891E-10 4.67791E-13
1.07092E-09 4.67229E-13
1.21847E-09 4.66629E-13
1.37554E-09 4.65993E-13
1.54213E-09 4.65319E-13
1.71823E-09 4.64608E-13
1.90386E-09 4.63860E-13
2.09900E-09 4.63077E-13
2.30367E-09 4.62257E-13
2.51785E-09 4.61401E-13
2.74156E-09 4.60510E-13
2.97478E-09 4.59584E-13
3.21752E-09 4.58623E-13
3.46978E-09 4.57628E-13
3.73156E-09 4.56599E-13
4.00286E-09 4.55536E-13
4.28368E-09 4.54439E-13
4.57402E-09 4.53310E-13
4.87388E-09 4.52148E-13
5.18326E-09 4.50954E-13
5.50215E-09 4.49729E-13
5.83057E-09 4.48472E-13
6.16850E-09 4.47184E-13
6.51596E-09 4.45866E-13
6.87293E-09 4.44518E-13
7.23942E-09 4.43140E-13
7.61544E-09 4.41733E-13
1.18991E-08 4.26179E-13
1.71347E-08 4.08279E-13
2.33223E-08 3.88577E-13
3.04617E-08 3.67616E-13
3.85531E-08 3.45918E-13
4.75965E-08 3.23952E-13
5.75917E-08 3.02126E-13
6.85389E-08 2.80812E-13
8.04380E-08 2.60256E-13
9.32891E-08 2.40654E-13
1.07092E-07 2.22164E-13
1.21847E-07 2.04880E-13
1.37554E-07 1.88807E-13
1.54213E-07 1.73946E-13
1.71823E-07 1.60311E-13
1.90386E-07 1.47818E-13
2.09900E-07 1.36397E-13
2.30367E-07 1.25986E-13
2.51785E-07 1.16533E-13
2.74156E-07 1.07927E-13
2.97478E-07 1.00098E-13
3.21752E-07 9.29886E-14
3.46978E-07 8.65241E-14
3.73156E-07 8.06346E-14
4.00286E-07 7.52657E-14
4.28368E-07 7.03705E-14
4.57402E-07 6.58935E-14
4.87388E-07 6.17938E-14
5.18325E-07 5.80342E-14
5.50215E-07 5.45771E-14
5.83057E-07 5.13941E-14
6.16850E-07 4.84593E-14
6.51596E-07 4.57441E-14
6.87293E-07 4.32279E-14
7.23942E-07 4.08948E-14
7.61543E-07 3.87286E-14
1.18991E-06 2.34060E-14
1.71347E-06 1.46699E-14
2.33223E-06 9.69012E-15
3.04617E-06 6.47278E-15
3.85531E-06 4.44355E-15
4.75964E-06 3.13537E-15
5.75916E-06 2.26581E-15
6.85388E-06 1.67422E-15
8.04378E-06 1.26776E-15
9.32888E-06 9.80756E-16
1.07092E-05 7.73201E-16
1.21846E-05 6.19779E-16
1.37553E-05 5.04209E-16
1.54212E-05 4.15531E-16
1.71822E-05 3.45949E-16
1.90385E-05 2.90713E-16
2.09899E-05 2.46384E-16
2.30365E-05 2.10296E-16
2.51783E-05 1.80446E-16
2.74153E-05 1.55734E-16
2.97475E-05 1.35108E-16
3.21749E-05 1.17689E-16
3.46974E-05 1.02916E-16
3.73152E-05 9.03653E-17
4.00281E-05 7.96395E-17
4.28362E-05 7.03802E-17
4.57395E-05 6.24060E-17
4.87380E-05 5.55116E-17
5.18317E-05 4.95181E-17
5.50205E-05 4.42822E-17
5.83045E-05 3.97108E-17
6.16838E-05 3.57054E-17
6.51582E-05 3.21775E-17
6.87277E-05 2.90665E-17
7.23925E-05 2.63185E-17
7.61524E-05 2.38840E-17
9.21439E-05 1.65300E-17
1.09658E-04 1.17883E-17
1.28695E-04 8.62879E-18
1.49255E-04 6.46047E-18
1.71338E-04 4.93487E-18
1.94942E-04 3.83544E-18
2.20070E-04 3.02730E-18
2.46720E-04 2.42224E-18
2.74892E-04 1.96135E-18
3.04586E-04 1.60544E-18
3.35803E-04 1.32702E-18
3.68542E-04 1.10657E-18
4.02802E-04 9.29984E-19
4.38585E-04 7.87334E-19
4.75889E-04 6.71058E-19
5.14715E-04 5.75429E-19
5.55063E-04 4.96212E-19
5.96931E-04 4.30170E-19
6.40321E-04 3.74754E-19
6.85233E-04 3.27929E-19
7.31665E-04 2.88185E-19
7.79618E-04 2.54277E-19
8.29092E-04 2.25196E-19
8.80086E-04 2.00135E-19
9.32601E-04 1.78459E-19
9.86636E-04 1.59634E-19
1.04219E-03 1.43213E-19
1.09927E-03 1.28843E-19
1.15786E-03 1.16228E-19
1.21797E-03 1.05115E-19
1.27961E-03 9.52904E-20
1.34276E-03 8.65849E-20
1.40743E-03 7.88487E-20
1.47362E-03 7.19541E-20
1.54133E-03 6.57934E-20
1.61056E-03 6.02765E-20
1.68131E-03 5.53244E-20
1.75357E-03 5.08680E-20
1.82735E-03 4.68500E-20
1.90265E-03 4.32200E-20
1.97947E-03 3.99337E-20
2.05780E-03 3.69524E-20
2.13765E-03 3.42435E-20
2.21902E-03 3.17777E-20
2.30190E-03 2.95290E-20
2.38630E-03 2.74751E-20
2.47222E-03 2.55961E-20
2.55965E-03 2.38747E-20
2.64859E-03 2.22949E-20
2.73905E-03 2.08433E-20
2.83103E-03 1.95076E-20
2.92452E-03 1.82769E-20
3.01952E-03 1.71413E-20
3.11604E-03 1.60923E-20
3.21407E-03 1.51222E-20
3.31362E-03 1.42237E-20
3.41468E-03 1.33909E-20
3.51725E-03 1.26179E-20
3.62133E-03 1.18997E-20
3.72692E-03 1.12317E-20
3.83403E-03 1.06098E-20
3.94265E-03 1.00303E-20
4.05278E-03 9.48961E-21
4.16442E-03 8.98477E-21
4.27757E-03 8.51295E-21
4.39223E-03 8.07162E-21
4.50840E-03 7.65842E-21
4.62608E-03 7.27124E-21
4.74527E-03 6.90814E-21
4.86597E-03 6.56736E-21
4.98817E-03 6.24726E-21
5.11188E-03 5.94637E-21
5.23711E-03 5.66332E-21
5.36383E-03 5.39686E-21
5.49207E-03 5.14583E-21
5.62181E-03 4.90918E-21
5.75306E-03 4.68594E-21
5.88581E-03 4.47520E-21
6.02007E-03 4.27614E-21
6.15583E-03 4.08798E-21
6.29310E-03 3.91003E-21
6.43187E-03 3.74162E-21
6.57214E-03 3.58215E-21
6.71392E-03 3.43106E-21
6.85720E-03 3.28782E-21
7.00198E-03 3.15195E-21
7.14827E-03 3.02301E-21
7.29605E-03 2.90057E-21
7.44534E-03 2.78424E-21
7.59612E-03 2.67367E-21
7.97965E-03 2.42024E-21
8.37255E-03 2.19605E-21
8.77480E-03 1.99713E-21
9.18641E-03 1.82015E-21
9.60736E-03 1.66228E-21
1.00376E-02 1.52110E-21
1.04773E-02 1.39454E-21
1.09262E-02 1.28082E-21
1.13844E-02 1.17842E-21
1.18520E-02 1.08601E-21
1.23288E-02 1.00245E-21
1.28150E-02 9.26735E-22
1.33104E-02 8.58008E-22
1.38150E-02 7.95509E-22
1.43290E-02 7.38574E-22
1.48521E-02 6.86620E-22
1.53845E-02 6.39135E-22
1.59262E-02 5.95666E-22
1.64770E-02 5.55813E-22
1.70371E-02 5.19223E-22
1.76063E-02 4.85580E-22
1.81848E-02 4.54605E-22
1.87724E-02 4.26049E-22
1.93692E-02 3.99688E-22
1.99751E-02 3.75325E-22
2.05901E-02 3.52781E-22
2.12143E-02 3.31895E-22
2.18476E-02 3.12523E-22
2.24900E-02 2.94537E-22
2.31415E-02 2.77819E-22
2.38021E-02 2.62264E-22
2.44717E-02 2.47776E-22
2.51504E-02 2.34269E-22
2.58382E-02 2.21665E-22
2.65349E-02 2.09892E-22
2.72407E-02 1.98885E-22
2.79555E-02 1.88586E-22
2.86793E-02 1.78941E-22
2.94120E-02 1.69901E-22
3.01537E-02 1.61421E-22
3.09043E-02 1.53459E-22
3.16639E-02 1.45980E-22
3.24324E-02 1.38947E-22
3.32098E-02 1.32330E-22
3.39961E-02 1.26100E-22
3.47912E-02 1.20229E-22
3.55952E-02 1.14694E-22
3.64081E-02 1.09471E-22
3.72297E-02 1.04540E-22
3.80602E-02 9.98811E-23
3.88995E-02 9.54772E-23
3.97476E-02 9.13114E-23
4.06044E-02 8.73687E-23
4.14700E-02 8.36347E-23
4.23443E-02 8.00965E-23
4.32273E-02 7.67420E-23
4.41190E-02 7.35598E-23
4.50194E-02 7.05395E-23
4.59284E-02 6.76713E-23
4.68461E-02 6.49462E-23
4.87074E-02 5.98919E-23
5.06030E-02 5.53158E-23
5.25328E-02 5.11648E-23
5.44967E-02 4.73925E-23
5.64946E-02 4.39584E-23
5.85262E-02 4.08270E-23
6.05914E-02 3.79668E-23
6.26901E-02 3.53503E-23
6.48222E-02 3.29532E-23
6.69873E-02 3.07538E-23
6.91854E-02 2.87329E-23
7.14163E-02 2.68736E-23
7.36799E-02 2.51606E-23
7.59760E-02 2.35804E-23
7.83043E-02 2.21209E-23
8.06647E-02 2.07713E-23
8.30571E-02 1.95218E-23
8.54812E-02 1.83638E-23
8.79369E-02 1.72892E-23
9.04240E-02 1.62911E-23
9.29422E-02 1.53631E-23
9.54915E-02 1.44994E-23
9.80716E-02 1.36946E-23
1.00682E-01 1.29442E-23
1.03323E-01 1.22437E-23
1.05995E-01 1.15893E-23
1.08696E-01 1.09773E-23
1.11427E-01 1.04046E-23
1.14188E-01 9.86822E-24
1.16978E-01 9.36539E-24
1.19797E-01 8.89367E-24
1.22645E-01 8.45078E-24
1.25522E-01 8.03466E-24
1.28428E-01 7.64339E-24
1.31361E-01 7.27523E-24
1.34323E-01 6.92858E-24
1.37313E-01 6.60194E-24
1.40330E-01 6.29397E-24
1.43375E-01 6.00341E-24
1.46447E-01 5.72910E-24
1.49545E-01 5.46996E-24
1.52671E-01 5.22501E-24
1.55823E-01 4.99334E-24
1.59001E-01 4.77410E-24
1.62205E-01 4.56650E-24
1.65435E-01 4.36981E-24
1.68690E-01 4.18336E-24
1.71970E-01 4.00652E-24
1.75276E-01 3.83871E-24
1.78606E-01 3.67939E-24
1.81961E-01 3.52805E-24
1.85340E-01 3.38422E-24
1.88743E-01 3.24746E-24
1.92169E-01 3.11736E-24
1.95619E-01 2.99353E-24
1.99092E-01 2.87564E-24
2.02589E-01 2.76333E-24
2.06107E-01 2.65630E-24
2.09649E-01 2.55425E-24
2.13212E-01 2.45692E-24
2.16797E-01 2.36405E-24
2.20404E-01 2.27539E-24
2.24032E-01 2.19072E-24
2.27680E-01 2.10983E-24
2.31350E-01 2.03252E-24
2.35040E-01 1.95861E-24
2.38751E-01 1.88792E-24
2.42481E-01 1.82028E-24
2.46231E-01 1.75554E-24
2.50000E-01 1.69355E-24
2.53788E-01 1.63418E-24
2.57595E-01 1.57729E-24
2.61421E-01 1.52277E-24
2.65264E-01 1.47050E-24
2.69126E-01 1.42036E-24
2.73005E-01 1.37226E-24
2.76901E-01 1.32610E-24
2.80814E-01 1.28179E-24
2.84744E-01 1.23923E-24
2.88691E-01 1.19836E-24
2.92653E-01 1.15908E-24
2.96632E-01 1.12134E-24
3.00625E-01 1.08504E-24
3.04634E-01 1.05014E-24
3.08658E-01 1.01657E-24
3.12697E-01 9.84269E-25
3.16749E-01 9.53178E-25
3.20816E-01 9.23247E-25
3.24896E-01 8.94425E-25
3.28990E-01 8.66662E-25
3.33097E-01 8.39915E-25
3.37216E-01 8.14138E-25
3.41348E-01 7.89292E-25
3.45492E-01 7.65336E-25
3.49647E-01 7.42233E-25
3.53814E-01 7.19947E-25
3.57992E-01 6.98444E-25
3.62181E-01 6.77693E-25
3.66381E-01 6.57662E-25
3.70590E-01 6.38323E-25
3.74810E-01 6.19646E-25
3.79039E-01 6.01607E-25
3.83277E-01 5.84178E-25
3.87524E-01 5.67336E-25
3.91780E-01 5.51059E-25
3.96044E-01 5.35323E-25
4.00316E-01 5.20107E-25
4.04596E-01 5.05392E-25
4.08882E-01 4.91158E-25
4.13176E-01 4.77387E-25
4.17476E-01 4.64061E-25
4.21783E-01 4.51163E-25
4.26095E-01 4.38678E-25
4.30413E-01 4.26590E-25
4.34737E-01 4.14884E-25
4.39065E-01 4.03546E-25
4.43398E-01 3.92562E-25
4.47736E-01 3.81920E-25
4.52077E-01 3.71607E-25
4.56422E-01 3.61612E-25
4.60770E-01 3.51922E-25
4.65122E-01 3.42528E-25
4.69476E-01 3.33418E-25
4.73832E-01 3.24582E-25
4.78190E-01 3.16012E-25
4.82550E-01 3.07697E-25
4.86912E-01 2.99629E-25
4.91274E-01 2.91799E-25
4.95637E-01 2.84198E-25
5.00000E-01 2.76821E-25
5.04363E-01 2.69657E-25
5.08726E-01 2.62701E-25
5.13088E-01 2.55946E-25
5.17450E-01 2.49384E-25
5.21810E-01 2.43010E-25
5.26168E-01 2.36816E-25
5.30524E-01 2.30797E-25
5.34878E-01 2.24948E-25
5.39230E-01 2.19263E-25
5.43578E-01 2.13736E-25
5.47923E-01 2.08362E-25
5.52264E-01 2.03137E-25
5.56602E-01 1.98056E-25
5.60935E-01 1.93113E-25
5.65263E-01 1.88306E-25
5.69587E-01 1.83628E-25
5.73905E-01 1.79078E-25
5.78217E-01 1.74649E-25
5.82524E-01 1.70339E-25
5.86824E-01 1.66145E-25
5.91118E-01 1.62061E-25
5.95404E-01 1.58086E-25
5.99684E-01 1.54215E-25
6.03956E-01 1.50446E-25
6.08220E-01 1.46776E-25
6.12476E-01 1.43200E-25
6.16723E-01 1.39718E-25
6.20961E-01 1.36325E-25
6.25190E-01 1.33020E-25
6.29410E-01 1.29800E-25
6.33619E-01 1.26661E-25
6.37819E-01 1.23602E-25
6.42008E-01 1.20621E-25
6.46186E-01 1.17715E-25
6.50353E-01 1.14882E-25
6.54508E-01 1.12120E-25
6.58652E-01 1.09427E-25
6.62784E-01 1.06801E-25
6.66903E-01 1.04240E-25
6.71010E-01 1.01743E-25
6.75104E-01 9.93062E-26
6.79184E-01 9.69297E-26
6.83251E-01 9.46112E-26
6.87303E-01 9.23492E-26
6.91342E-01 9.01421E-26
6.95366E-01 8.79884E-26
6.99375E-01 8.58867E-26
7.03368E-01 8.38355E-26
7.07347E-01 8.18335E-26
7.11309E-01 7.98793E-26
7.15256E-01 7.79717E-26
7.19186E-01 7.61094E-26
7.23099E-01 7.42912E-26
7.26995E-01 7.25159E-26
7.30874E-01 7.07824E-26
7.34736E-01 6.90897E-26
7.38579E-01 6.74366E-26
7.42405E-01 6.58221E-26
7.46212E-01 6.42452E-26
7.50000E-01 6.27049E-26
7.53769E-01 6.12003E-26
7.57519E-01 5.97306E-26
7.61249E-01 5.82947E-26
7.64960E-01 5.68919E-26
7.68650E-01 5.55212E-26
7.72320E-01 5.41820E-26
7.75968E-01 5.28733E-26
7.79596E-01 5.15945E-26
7.83203E-01 5.03449E-26
7.86788E-01 4.91236E-26
7.90351E-01 4.79300E-26
7.93893E-01 4.67634E-26
7.97411E-01 4.56231E-26
8.00908E-01 4.45086E-26
8.04381E-01 4.34192E-26
8.07831E-01 4.23542E-26
8.11257E-01 4.13132E-26
8.14660E-01 4.02955E-26
8.18039E-01 3.93006E-26
8.21394E-01 3.83280E-26
8.24724E-01 3.73771E-26
8.28030E-01 3.64474E-26
8.31310E-01 3.55384E-26
8.34565E-01 3.46496E-26
8.37795E-01 3.37807E-26
8.40999E-01 3.29311E-26
8.44177E-01 3.21004E-26
8.47329E-01 3.12881E-26
8.50455E-01 3.04939E-26
8.53553E-01 2.97173E-26
8.56625E-01 2.89580E-26
8.59670E-01 2.82156E-26
8.62687E-01 2.74896E-26
8.65677E-01 2.67798E-26
8.68639E-01 2.60858E-26
8.71572E-01 2.54072E-26
8.74478E-01 2.47437E-26
8.77355E-01 2.40950E-26
8.80203E-01 2.34608E-26
8.83022E-01 2.28407E-26
8.85812E-01 2.22346E-26
8.88573E-01 2.16419E-26
8.91304E-01 2.10626E-26
8.94005E-01 2.04963E-26
8.96677E-01 1.99428E-26
8.99318E-01 1.94018E-26
9.01928E-01 1.88730E-26
9.04508E-01 1.83562E-26
9.07058E-01 1.78512E-26
9.09576E-01 1.73577E-26
9.12063E-01 1.68755E-26
9.14519E-01 1.64044E-26
9.16943E-01 1.59441E-26
9.19335E-01 1.54945E-26
9.21696E-01 1.50554E-26
9.24024E-01 1.46265E-26
9.26320E-01 1.42078E-26
9.28584E-01 1.37989E-26
9.30815E-01 1.33997E-26
9.33013E-01 1.30100E-26
9.35178E-01 1.26297E-26
9.37310E-01 1.22586E-26
9.39409E-01 1.18965E-26
9.41474E-01 1.15433E-26
9.43505E-01 1.11988E-26
9.45503E-01 1.08629E-26
9.47467E-01 1.05354E-26
9.49397E-01 1.02162E-26
9.51293E-01 9.90514E-27
9.53154E-01 9.60212E-27
9.54981E-01 9.30699E-27
9.56773E-01 9.01963E-27
9.58530E-01 8.73992E-27
9.60252E-01 8.46773E-27
9.61940E-01 8.20297E-27
9.63592E-01 7.94551E-27
9.65209E-01 7.69525E-27
9.66790E-01 7.45209E-27
9.68336E-01 7.21593E-27
9.69846E-01 6.98666E-27
9.71321E-01 6.76420E-27
9.72759E-01 6.54846E-27
9.74162E-01 6.33934E-27
9.75528E-01 6.13676E-27
9.76858E-01 5.94064E-27
9.78152E-01 5.75090E-27
9.79410E-01 5.56747E-27
9.80631E-01 5.39026E-27
9.81815E-01 5.21921E-27
9.82963E-01 5.05425E-27
9.84074E-01 4.89531E-27
9.85148E-01 4.74234E-27
9.86185E-01 4.59526E-27
9.87185E-01 4.45402E-27
9.88148E-01 4.31857E-27
9.89074E-01 4.18884E-27
9.89962E-01 4.06480E-27
9.90814E-01 3.94638E-27
9.91627E-01 3.83355E-27
9.92404E-01 3.72626E-27
9.93143E-01 3.62446E-27
9.93844E-01 3.52812E-27
9.94508E-01 3.43720E-27
9.95134E-01 3.35166E-27
9.95722E-01 3.27148E-27
9.96273E-01 3.19661E-27
9.96786E-01 3.12703E-27
9.97261E-01 3.06271E-27
9.97698E-01 3.00363E-27
9.98097E-01 2.94976E-27
9.98459E-01 2.90109E-27
9.98782E-01 2.85759E-27
9.99067E-01 2.81925E-27
9.99315E-01 2.78605E-27
9.99524E-01 2.75798E-27
9.99695E-01 2.73503E-27
9.99829E-01 2.71718E-27
9.99924E-01 2.70444E-27
9.99981E-01 2.69680E-27
1.00000E+00 2.69426E-27
