 #
 # Subroutine ELSEPA. Elastic scattering of electrons and positrons
 #                    by neutral atoms and positive ions
 #
 # Projectile: positron
 # Kinetic energy = 1.50000E+08 eV = 5.51240E+06 a.u.
 #
 # WARNING: High-energy factorization with free-atom DF screening.
 #          Absorption, polarization and exchange corrections are
 #          switched off.
 #          Phase shifts are calculated for the bare nucleus.
 #          Scattering amplitudes are not evaluated.
 #
 # Element: Ti,  Z =  22,  atomic weight = 4.78670E+01 g/mol
 #
 # Nuclear model: Fermi distribution
 #                Average radius = 3.88504E-13 cm
 #                Skin thickness = 5.46000E-14 cm
 #
 # Number of electrons = 22
 #
 # Total elastic cross section = 1.90000E-18 cm**2 = 6.78501E-02 a0**2
 # 1st transport cross section = 4.44285E-26 cm**2 = 1.58657E-09 a0**2
 # 2nd transport cross section = 1.32549E-25 cm**2 = 4.73342E-09 a0**2
 #
 #
 # Differential cross section:                       MU=(1-COS(THETA))/2
 #
 #  THETA        MU          DCS          DCS        Sherman      error
 #  (deg)                 (cm**2/sr)   (a0**2/sr)    function
 #----------------------------------------------------------------------
0.00000E+00 6.64087E-10
7.61557E-13 6.57802E-10
1.18994E-12 6.54309E-10
1.71346E-12 6.50078E-10
2.33225E-12 6.45130E-10
3.04617E-12 6.39493E-10
3.85530E-12 6.33194E-10
4.75964E-12 6.26266E-10
5.75917E-12 6.18742E-10
6.85391E-12 6.10658E-10
8.04379E-12 6.02053E-10
9.32893E-12 5.92966E-10
1.07092E-11 5.83437E-10
1.21847E-11 5.73509E-10
1.37554E-11 5.63224E-10
1.54213E-11 5.52623E-10
1.71823E-11 5.41749E-10
1.90386E-11 5.30641E-10
2.09900E-11 5.19339E-10
2.30367E-11 5.07881E-10
2.51785E-11 4.96314E-10
2.74156E-11 4.84663E-10
2.97478E-11 4.72961E-10
3.21752E-11 4.61252E-10
3.46979E-11 4.49567E-10
3.73157E-11 4.37920E-10
4.00286E-11 4.26337E-10
4.28368E-11 4.14876E-10
4.57402E-11 4.03530E-10
4.87388E-11 3.92313E-10
5.18325E-11 3.81251E-10
5.50215E-11 3.70396E-10
5.83057E-11 3.59715E-10
6.16850E-11 3.49221E-10
6.51595E-11 3.38960E-10
6.87293E-11 3.28934E-10
7.23943E-11 3.19120E-10
7.61544E-11 3.09523E-10
1.18991E-10 2.27323E-10
1.71347E-10 1.68000E-10
2.33223E-10 1.26465E-10
3.04617E-10 9.73825E-11
3.85531E-10 7.66450E-11
4.75965E-10 6.14655E-11
5.75917E-10 5.00476E-11
6.85389E-10 4.12351E-11
8.04380E-10 3.42811E-11
9.32891E-10 2.87051E-11
1.07092E-09 2.40360E-11
1.21847E-09 2.01827E-11
1.37554E-09 1.71637E-11
1.54213E-09 1.47677E-11
1.71823E-09 1.25928E-11
1.90386E-09 1.07799E-11
2.09900E-09 9.31146E-12
2.30367E-09 8.09456E-12
2.51785E-09 6.99336E-12
2.74156E-09 6.08448E-12
2.97478E-09 5.32854E-12
3.21752E-09 4.67630E-12
3.46978E-09 4.10903E-12
3.73156E-09 3.62962E-12
4.00286E-09 3.22206E-12
4.28368E-09 2.86412E-12
4.57402E-09 2.55533E-12
4.87388E-09 2.28919E-12
5.18326E-09 2.05807E-12
5.50215E-09 1.85443E-12
5.83057E-09 1.67675E-12
6.16850E-09 1.52109E-12
6.51596E-09 1.38352E-12
6.87293E-09 1.26160E-12
7.23942E-09 1.15370E-12
7.61544E-09 1.05789E-12
1.18991E-08 4.95325E-13
1.71347E-08 2.66388E-13
2.33223E-08 1.55658E-13
3.04617E-08 9.62499E-14
3.85531E-08 6.22171E-14
4.75965E-08 4.17749E-14
5.75917E-08 2.89864E-14
6.85389E-08 2.07032E-14
8.04380E-08 1.51687E-14
9.32891E-08 1.13651E-14
1.07092E-07 8.68320E-15
1.21847E-07 6.75224E-15
1.37554E-07 5.33039E-15
1.54213E-07 4.26603E-15
1.71823E-07 3.45607E-15
1.90386E-07 2.82987E-15
2.09900E-07 2.33997E-15
2.30367E-07 1.95217E-15
2.51785E-07 1.64151E-15
2.74156E-07 1.39041E-15
2.97478E-07 1.18570E-15
3.21752E-07 1.01729E-15
3.46978E-07 8.77736E-16
3.73156E-07 7.61364E-16
4.00286E-07 6.63632E-16
4.28368E-07 5.81044E-16
4.57402E-07 5.10929E-16
4.87388E-07 4.51069E-16
5.18325E-07 3.99679E-16
5.50215E-07 3.55408E-16
5.83057E-07 3.17100E-16
6.16850E-07 2.83782E-16
6.51596E-07 2.54728E-16
6.87293E-07 2.29297E-16
7.23942E-07 2.06944E-16
7.61543E-07 1.87247E-16
1.18991E-06 7.73505E-17
1.71347E-06 3.74587E-17
2.33223E-06 2.02638E-17
3.04617E-06 1.18928E-17
3.85531E-06 7.42988E-18
4.75964E-06 4.87680E-18
5.75916E-06 3.33176E-18
6.85388E-06 2.35278E-18
8.04378E-06 1.70831E-18
9.32888E-06 1.27011E-18
1.07092E-05 9.63802E-19
1.21846E-05 7.44497E-19
1.37553E-05 5.84158E-19
1.54212E-05 4.64744E-19
1.71822E-05 3.74338E-19
1.90385E-05 3.04872E-19
2.09899E-05 2.50817E-19
2.30365E-05 2.08222E-19
2.51783E-05 1.74290E-19
2.74153E-05 1.46991E-19
2.97475E-05 1.24831E-19
3.21749E-05 1.06693E-19
3.46974E-05 9.17338E-20
3.73152E-05 7.93077E-20
4.00281E-05 6.89167E-20
4.28362E-05 6.01730E-20
4.57395E-05 5.27726E-20
4.87380E-05 4.64749E-20
5.18317E-05 4.10885E-20
5.50205E-05 3.64598E-20
5.83045E-05 3.24647E-20
6.16838E-05 2.90020E-20
6.51582E-05 2.59889E-20
6.87277E-05 2.33572E-20
7.23925E-05 2.10504E-20
7.61524E-05 1.90164E-20
9.21439E-05 1.29824E-20
1.09658E-04 9.16209E-21
1.28695E-04 6.64876E-21
1.49255E-04 4.94063E-21
1.71338E-04 3.74725E-21
1.94942E-04 2.89315E-21
2.20070E-04 2.26895E-21
2.46720E-04 1.80425E-21
2.74892E-04 1.45255E-21
3.04586E-04 1.18244E-21
3.35803E-04 9.72234E-22
3.68542E-04 8.06680E-22
4.02802E-04 6.74868E-22
4.38585E-04 5.68877E-22
4.75889E-04 4.82871E-22
5.14715E-04 4.12496E-22
5.55063E-04 3.54467E-22
5.96931E-04 3.06274E-22
6.40321E-04 2.65985E-22
6.85233E-04 2.32094E-22
7.31665E-04 2.03422E-22
7.79618E-04 1.79034E-22
8.29092E-04 1.58184E-22
8.80086E-04 1.40275E-22
9.32601E-04 1.24824E-22
9.86636E-04 1.11437E-22
1.04219E-03 9.97915E-23
1.09927E-03 8.96235E-23
1.15786E-03 8.07140E-23
1.21797E-03 7.28807E-23
1.27961E-03 6.59715E-23
1.34276E-03 5.98588E-23
1.40743E-03 5.44352E-23
1.47362E-03 4.96095E-23
1.54133E-03 4.53046E-23
1.61056E-03 4.14545E-23
1.68131E-03 3.80029E-23
1.75357E-03 3.49014E-23
1.82735E-03 3.21083E-23
1.90265E-03 2.95875E-23
1.97947E-03 2.73080E-23
2.05780E-03 2.52426E-23
2.13765E-03 2.33676E-23
2.21902E-03 2.16624E-23
2.30190E-03 2.01090E-23
2.38630E-03 1.86914E-23
2.47222E-03 1.73957E-23
2.55965E-03 1.62095E-23
2.64859E-03 1.51220E-23
2.73905E-03 1.41235E-23
2.83103E-03 1.32054E-23
2.92452E-03 1.23601E-23
3.01952E-03 1.15808E-23
3.11604E-03 1.08614E-23
3.21407E-03 1.01965E-23
3.31362E-03 9.58131E-24
3.41468E-03 9.01134E-24
3.51725E-03 8.48273E-24
3.62133E-03 7.99192E-24
3.72692E-03 7.53574E-24
3.83403E-03 7.11131E-24
3.94265E-03 6.71601E-24
4.05278E-03 6.34750E-24
4.16442E-03 6.00364E-24
4.27757E-03 5.68247E-24
4.39223E-03 5.38224E-24
4.50840E-03 5.10133E-24
4.62608E-03 4.83828E-24
4.74527E-03 4.59175E-24
4.86597E-03 4.36051E-24
4.98817E-03 4.14346E-24
5.11188E-03 3.93955E-24
5.23711E-03 3.74786E-24
5.36383E-03 3.56751E-24
5.49207E-03 3.39773E-24
5.62181E-03 3.23777E-24
5.75306E-03 3.08697E-24
5.88581E-03 2.94471E-24
6.02007E-03 2.81041E-24
6.15583E-03 2.68356E-24
6.29310E-03 2.56367E-24
6.43187E-03 2.45028E-24
6.57214E-03 2.34298E-24
6.71392E-03 2.24138E-24
6.85720E-03 2.14514E-24
7.00198E-03 2.05390E-24
7.14827E-03 1.96738E-24
7.29605E-03 1.88527E-24
7.44534E-03 1.80732E-24
7.59612E-03 1.73327E-24
7.97965E-03 1.56378E-24
8.37255E-03 1.41409E-24
8.77480E-03 1.28153E-24
9.18641E-03 1.16381E-24
9.60736E-03 1.05900E-24
1.00376E-02 9.65449E-25
1.04773E-02 8.81752E-25
1.09262E-02 8.06701E-25
1.13844E-02 7.39257E-25
1.18520E-02 6.78523E-25
1.23288E-02 6.23721E-25
1.28150E-02 5.74179E-25
1.33104E-02 5.29308E-25
1.38150E-02 4.88597E-25
1.43290E-02 4.51598E-25
1.48521E-02 4.17916E-25
1.53845E-02 3.87207E-25
1.59262E-02 3.59165E-25
1.64770E-02 3.33521E-25
1.70371E-02 3.10038E-25
1.76063E-02 2.88503E-25
1.81848E-02 2.68730E-25
1.87724E-02 2.50551E-25
1.93692E-02 2.33816E-25
1.99751E-02 2.18394E-25
2.05901E-02 2.04165E-25
2.12143E-02 1.91021E-25
2.18476E-02 1.78868E-25
2.24900E-02 1.67618E-25
2.31415E-02 1.57194E-25
2.38021E-02 1.47526E-25
2.44717E-02 1.38551E-25
2.51504E-02 1.30211E-25
2.58382E-02 1.22454E-25
2.65349E-02 1.15233E-25
2.72407E-02 1.08506E-25
2.79555E-02 1.02233E-25
2.86793E-02 9.63803E-26
2.94120E-02 9.09141E-26
3.01537E-02 8.58055E-26
3.09043E-02 8.10276E-26
3.16639E-02 7.65558E-26
3.24324E-02 7.23675E-26
3.32098E-02 6.84422E-26
3.39961E-02 6.47610E-26
3.47912E-02 6.13063E-26
3.55952E-02 5.80624E-26
3.64081E-02 5.50144E-26
3.72297E-02 5.21488E-26
3.80602E-02 4.94532E-26
3.88995E-02 4.69160E-26
3.97476E-02 4.45267E-26
4.06044E-02 4.22754E-26
4.14700E-02 4.01530E-26
4.23443E-02 3.81511E-26
4.32273E-02 3.62620E-26
4.41190E-02 3.44784E-26
4.50194E-02 3.27937E-26
4.59284E-02 3.12016E-26
4.68461E-02 2.96963E-26
4.87074E-02 2.69253E-26
5.06030E-02 2.44420E-26
5.25328E-02 2.22129E-26
5.44967E-02 2.02089E-26
5.64946E-02 1.84046E-26
5.85262E-02 1.67778E-26
6.05914E-02 1.53091E-26
6.26901E-02 1.39813E-26
6.48222E-02 1.27795E-26
6.69873E-02 1.16904E-26
6.91854E-02 1.07024E-26
7.14163E-02 9.80500E-27
7.36799E-02 8.98912E-27
7.59760E-02 8.24662E-27
7.83043E-02 7.57023E-27
8.06647E-02 6.95352E-27
8.30571E-02 6.39072E-27
8.54812E-02 5.87669E-27
8.79369E-02 5.40683E-27
9.04240E-02 4.97701E-27
9.29422E-02 4.58352E-27
9.54915E-02 4.22304E-27
9.80716E-02 3.89258E-27
1.00682E-01 3.58944E-27
1.03323E-01 3.31119E-27
1.05995E-01 3.05563E-27
1.08696E-01 2.82078E-27
1.11427E-01 2.60484E-27
1.14188E-01 2.40618E-27
1.16978E-01 2.22334E-27
1.19797E-01 2.05496E-27
1.22645E-01 1.89984E-27
1.25522E-01 1.75687E-27
1.28428E-01 1.62504E-27
1.31361E-01 1.50343E-27
1.34323E-01 1.39121E-27
1.37313E-01 1.28762E-27
1.40330E-01 1.19196E-27
1.43375E-01 1.10359E-27
1.46447E-01 1.02194E-27
1.49545E-01 9.46463E-28
1.52671E-01 8.76680E-28
1.55823E-01 8.12142E-28
1.59001E-01 7.52439E-28
1.62205E-01 6.97197E-28
1.65435E-01 6.46070E-28
1.68690E-01 5.98741E-28
1.71970E-01 5.54920E-28
1.75276E-01 5.14339E-28
1.78606E-01 4.76751E-28
1.81961E-01 4.41929E-28
1.85340E-01 4.09666E-28
1.88743E-01 3.79769E-28
1.92169E-01 3.52060E-28
1.95619E-01 3.26376E-28
1.99092E-01 3.02567E-28
2.02589E-01 2.80493E-28
2.06107E-01 2.60026E-28
2.09649E-01 2.41047E-28
2.13212E-01 2.23447E-28
2.16797E-01 2.07125E-28
2.20404E-01 1.91986E-28
2.24032E-01 1.77945E-28
2.27680E-01 1.64921E-28
2.31350E-01 1.52840E-28
2.35040E-01 1.41634E-28
2.38751E-01 1.31239E-28
2.42481E-01 1.21597E-28
2.46231E-01 1.12652E-28
2.50000E-01 1.04355E-28
2.53788E-01 9.66582E-29
2.57595E-01 8.95190E-29
2.61421E-01 8.28971E-29
2.65264E-01 7.67552E-29
2.69126E-01 7.10587E-29
2.73005E-01 6.57756E-29
2.76901E-01 6.08763E-29
2.80814E-01 5.63332E-29
2.84744E-01 5.21206E-29
2.88691E-01 4.82149E-29
2.92653E-01 4.45940E-29
2.96632E-01 4.12374E-29
3.00625E-01 3.81263E-29
3.04634E-01 3.52429E-29
3.08658E-01 3.25710E-29
3.12697E-01 3.00952E-29
3.16749E-01 2.78016E-29
3.20816E-01 2.56770E-29
3.24896E-01 2.37092E-29
3.28990E-01 2.18869E-29
3.33097E-01 2.01998E-29
3.37216E-01 1.86379E-29
3.41348E-01 1.71922E-29
3.45492E-01 1.58544E-29
3.49647E-01 1.46167E-29
3.53814E-01 1.34717E-29
3.57992E-01 1.24128E-29
3.62181E-01 1.14336E-29
3.66381E-01 1.05285E-29
3.70590E-01 9.69191E-30
3.74810E-01 8.91890E-30
3.79039E-01 8.20480E-30
3.83277E-01 7.54530E-30
3.87524E-01 6.93639E-30
3.91780E-01 6.37433E-30
3.96044E-01 5.85567E-30
4.00316E-01 5.37720E-30
4.04596E-01 4.93594E-30
4.08882E-01 4.52912E-30
4.13176E-01 4.15417E-30
4.17476E-01 3.80872E-30
4.21783E-01 3.49055E-30
4.26095E-01 3.19762E-30
4.30413E-01 2.92802E-30
4.34737E-01 2.67998E-30
4.39065E-01 2.45188E-30
4.43398E-01 2.24220E-30
4.47736E-01 2.04952E-30
4.52077E-01 1.87255E-30
4.56422E-01 1.71008E-30
4.60770E-01 1.56100E-30
4.65122E-01 1.42425E-30
4.69476E-01 1.29889E-30
4.73832E-01 1.18403E-30
4.78190E-01 1.07884E-30
4.82550E-01 9.82559E-31
4.86912E-01 8.94485E-31
4.91274E-01 8.13965E-31
4.95637E-01 7.40396E-31
5.00000E-01 6.73220E-31
5.04363E-01 6.11922E-31
5.08726E-01 5.56025E-31
5.13088E-01 5.05089E-31
5.17450E-01 4.58707E-31
5.21810E-01 4.16505E-31
5.26168E-01 3.78135E-31
5.30524E-01 3.43277E-31
5.34878E-01 3.11638E-31
5.39230E-01 2.82944E-31
5.43578E-01 2.56946E-31
5.47923E-01 2.33412E-31
5.52264E-01 2.12130E-31
5.56602E-01 1.92903E-31
5.60935E-01 1.75553E-31
5.65263E-01 1.59912E-31
5.69587E-01 1.45829E-31
5.73905E-01 1.33163E-31
5.78217E-01 1.21786E-31
5.82524E-01 1.11581E-31
5.86824E-01 1.02438E-31
5.91118E-01 9.42578E-32
5.95404E-01 8.69504E-32
5.99684E-01 8.04321E-32
6.03956E-01 7.46266E-32
6.08220E-01 6.94641E-32
6.12476E-01 6.48809E-32
6.16723E-01 6.08188E-32
6.20961E-01 5.72247E-32
6.25190E-01 5.40503E-32
6.29410E-01 5.12513E-32
6.33619E-01 4.87876E-32
6.37819E-01 4.66228E-32
6.42008E-01 4.47237E-32
6.46186E-01 4.30603E-32
6.50353E-01 4.16053E-32
6.54508E-01 4.03340E-32
6.58652E-01 3.92242E-32
6.62784E-01 3.82557E-32
6.66903E-01 3.74104E-32
6.71010E-01 3.66721E-32
6.75104E-01 3.60261E-32
6.79184E-01 3.54591E-32
6.83251E-01 3.49596E-32
6.87303E-01 3.45170E-32
6.91342E-01 3.41219E-32
6.95366E-01 3.37662E-32
6.99375E-01 3.34424E-32
7.03368E-01 3.31440E-32
7.07347E-01 3.28654E-32
7.11309E-01 3.26016E-32
7.15256E-01 3.23483E-32
7.19186E-01 3.21016E-32
7.23099E-01 3.18583E-32
7.26995E-01 3.16157E-32
7.30874E-01 3.13713E-32
7.34736E-01 3.11233E-32
7.38579E-01 3.08699E-32
7.42405E-01 3.06099E-32
7.46212E-01 3.03421E-32
7.50000E-01 3.00658E-32
7.53769E-01 2.97803E-32
7.57519E-01 2.94853E-32
7.61249E-01 2.91803E-32
7.64960E-01 2.88654E-32
7.68650E-01 2.85404E-32
7.72320E-01 2.82056E-32
7.75968E-01 2.78612E-32
7.79596E-01 2.75073E-32
7.83203E-01 2.71444E-32
7.86788E-01 2.67729E-32
7.90351E-01 2.63932E-32
7.93893E-01 2.60059E-32
7.97411E-01 2.56114E-32
8.00908E-01 2.52102E-32
8.04381E-01 2.48030E-32
8.07831E-01 2.43903E-32
8.11257E-01 2.39727E-32
8.14660E-01 2.35507E-32
8.18039E-01 2.31250E-32
8.21394E-01 2.26960E-32
8.24724E-01 2.22644E-32
8.28030E-01 2.18307E-32
8.31310E-01 2.13955E-32
8.34565E-01 2.09591E-32
8.37795E-01 2.05222E-32
8.40999E-01 2.00853E-32
8.44177E-01 1.96487E-32
8.47329E-01 1.92131E-32
8.50455E-01 1.87786E-32
8.53553E-01 1.83459E-32
8.56625E-01 1.79152E-32
8.59670E-01 1.74870E-32
8.62687E-01 1.70616E-32
8.65677E-01 1.66393E-32
8.68639E-01 1.62204E-32
8.71572E-01 1.58052E-32
8.74478E-01 1.53940E-32
8.77355E-01 1.49871E-32
8.80203E-01 1.45847E-32
8.83022E-01 1.41869E-32
8.85812E-01 1.37940E-32
8.88573E-01 1.34062E-32
8.91304E-01 1.30236E-32
8.94005E-01 1.26464E-32
8.96677E-01 1.22748E-32
8.99318E-01 1.19088E-32
9.01928E-01 1.15485E-32
9.04508E-01 1.11941E-32
9.07058E-01 1.08456E-32
9.09576E-01 1.05031E-32
9.12063E-01 1.01668E-32
9.14519E-01 9.83648E-33
9.16943E-01 9.51236E-33
9.19335E-01 9.19443E-33
9.21696E-01 8.88271E-33
9.24024E-01 8.57722E-33
9.26320E-01 8.27796E-33
9.28584E-01 7.98492E-33
9.30815E-01 7.69812E-33
9.33013E-01 7.41751E-33
9.35178E-01 7.14310E-33
9.37310E-01 6.87484E-33
9.39409E-01 6.61271E-33
9.41474E-01 6.35669E-33
9.43505E-01 6.10672E-33
9.45503E-01 5.86276E-33
9.47467E-01 5.62477E-33
9.49397E-01 5.39269E-33
9.51293E-01 5.16649E-33
9.53154E-01 4.94607E-33
9.54981E-01 4.73142E-33
9.56773E-01 4.52245E-33
9.58530E-01 4.31911E-33
9.60252E-01 4.12133E-33
9.61940E-01 3.92906E-33
9.63592E-01 3.74223E-33
9.65209E-01 3.56076E-33
9.66790E-01 3.38461E-33
9.68336E-01 3.21368E-33
9.69846E-01 3.04794E-33
9.71321E-01 2.88730E-33
9.72759E-01 2.73170E-33
9.74162E-01 2.58107E-33
9.75528E-01 2.43534E-33
9.76858E-01 2.29445E-33
9.78152E-01 2.15834E-33
9.79410E-01 2.02695E-33
9.80631E-01 1.90020E-33
9.81815E-01 1.77804E-33
9.82963E-01 1.66041E-33
9.84074E-01 1.54724E-33
9.85148E-01 1.43849E-33
9.86185E-01 1.33409E-33
9.87185E-01 1.23399E-33
9.88148E-01 1.13814E-33
9.89074E-01 1.04646E-33
9.89962E-01 9.58940E-34
9.90814E-01 8.75514E-34
9.91627E-01 7.96128E-34
9.92404E-01 7.20745E-34
9.93143E-01 6.49322E-34
9.93844E-01 5.81811E-34
9.94508E-01 5.18176E-34
9.95134E-01 4.58390E-34
9.95722E-01 4.02400E-34
9.96273E-01 3.50184E-34
9.96786E-01 3.01704E-34
9.97261E-01 2.56936E-34
9.97698E-01 2.15850E-34
9.98097E-01 1.78421E-34
9.98459E-01 1.44626E-34
9.98782E-01 1.14444E-34
9.99067E-01 8.78585E-35
9.99315E-01 6.48481E-35
9.99524E-01 4.54044E-35
9.99695E-01 2.95151E-35
9.99829E-01 1.71636E-35
9.99924E-01 8.34871E-36
9.99981E-01 3.05996E-36
1.00000E+00 1.29363E-36
