 #
 # Subroutine ELSEPA. Elastic scattering of electrons and positrons
 #                    by neutral atoms and positive ions
 #
 # Projectile: positron
 # Kinetic energy = 4.00000E+07 eV = 1.46997E+06 a.u.
 #
 # WARNING: High-energy factorization with free-atom DF screening.
 #          Absorption, polarization and exchange corrections are
 #          switched off.
 #          Phase shifts are calculated for the bare nucleus.
 #          Scattering amplitudes are not evaluated.
 #
 # Element: Ti,  Z =  22,  atomic weight = 4.78670E+01 g/mol
 #
 # Nuclear model: Fermi distribution
 #                Average radius = 3.88504E-13 cm
 #                Skin thickness = 5.46000E-14 cm
 #
 # Number of electrons = 22
 #
 # Total elastic cross section = 1.89990E-18 cm**2 = 6.78467E-02 a0**2
 # 1st transport cross section = 5.67922E-25 cm**2 = 2.02809E-08 a0**2
 # 2nd transport cross section = 1.66144E-24 cm**2 = 5.93312E-08 a0**2
 #
 #
 # Differential cross section:                       MU=(1-COS(THETA))/2
 #
 #  THETA        MU          DCS          DCS        Sherman      error
 #  (deg)                 (cm**2/sr)   (a0**2/sr)    function
 #----------------------------------------------------------------------
0.00000E+00 4.81099E-11
7.61557E-13 4.80766E-11
1.18994E-12 4.80579E-11
1.71346E-12 4.80351E-11
2.33225E-12 4.80082E-11
3.04617E-12 4.79771E-11
3.85530E-12 4.79420E-11
4.75964E-12 4.79028E-11
5.75917E-12 4.78595E-11
6.85391E-12 4.78122E-11
8.04379E-12 4.77609E-11
9.32893E-12 4.77055E-11
1.07092E-11 4.76461E-11
1.21847E-11 4.75828E-11
1.37554E-11 4.75155E-11
1.54213E-11 4.74444E-11
1.71823E-11 4.73693E-11
1.90386E-11 4.72904E-11
2.09900E-11 4.72076E-11
2.30367E-11 4.71210E-11
2.51785E-11 4.70307E-11
2.74156E-11 4.69366E-11
2.97478E-11 4.68389E-11
3.21752E-11 4.67374E-11
3.46979E-11 4.66324E-11
3.73157E-11 4.65237E-11
4.00286E-11 4.64116E-11
4.28368E-11 4.62959E-11
4.57402E-11 4.61768E-11
4.87388E-11 4.60542E-11
5.18325E-11 4.59283E-11
5.50215E-11 4.57990E-11
5.83057E-11 4.56665E-11
6.16850E-11 4.55307E-11
6.51595E-11 4.53918E-11
6.87293E-11 4.52497E-11
7.23943E-11 4.51045E-11
7.61544E-11 4.49563E-11
1.18991E-10 4.33191E-11
1.71347E-10 4.14389E-11
2.33223E-10 3.93745E-11
3.04617E-10 3.71838E-11
3.85531E-10 3.49231E-11
4.75965E-10 3.26417E-11
5.75917E-10 3.03824E-11
6.85389E-10 2.81820E-11
8.04380E-10 2.60688E-11
9.32891E-10 2.40609E-11
1.07092E-09 2.21711E-11
1.21847E-09 2.04110E-11
1.37554E-09 1.87811E-11
1.54213E-09 1.72788E-11
1.71823E-09 1.59004E-11
1.90386E-09 1.46443E-11
2.09900E-09 1.34993E-11
2.30367E-09 1.24573E-11
2.51785E-09 1.15107E-11
2.74156E-09 1.06535E-11
2.97478E-09 9.87492E-12
3.21752E-09 9.16773E-12
3.46978E-09 8.52553E-12
3.73156E-09 7.94209E-12
4.00286E-09 7.41051E-12
4.28368E-09 6.92570E-12
4.57402E-09 6.48300E-12
4.87388E-09 6.07778E-12
5.18326E-09 5.70621E-12
5.50215E-09 5.36499E-12
5.83057E-09 5.05073E-12
6.16850E-09 4.76068E-12
6.51596E-09 4.49273E-12
6.87293E-09 4.24481E-12
7.23942E-09 4.01431E-12
7.61544E-09 3.80001E-12
1.18991E-08 2.28839E-12
1.71347E-08 1.42628E-12
2.33223E-08 9.36104E-13
3.04617E-08 6.26224E-13
3.85531E-08 4.27718E-13
4.75965E-08 3.00936E-13
5.75917E-08 2.17294E-13
6.85389E-08 1.60629E-13
8.04380E-08 1.21608E-13
9.32891E-08 9.41035E-14
1.07092E-07 7.42412E-14
1.21847E-07 5.95440E-14
1.37554E-07 4.84498E-14
1.54213E-07 3.99265E-14
1.71823E-07 3.32675E-14
1.90386E-07 2.79506E-14
2.09900E-07 2.36738E-14
2.30367E-07 2.01970E-14
2.51785E-07 1.73389E-14
2.74156E-07 1.49523E-14
2.97478E-07 1.29615E-14
3.21752E-07 1.12886E-14
3.46978E-07 9.87108E-15
3.73156E-07 8.65967E-15
4.00286E-07 7.62592E-15
4.28368E-07 6.73934E-15
4.57402E-07 5.97382E-15
4.87388E-07 5.31047E-15
5.18325E-07 4.73529E-15
5.50215E-07 4.23461E-15
5.83057E-07 3.79628E-15
6.16850E-07 3.41199E-15
6.51596E-07 3.07449E-15
6.87293E-07 2.77714E-15
7.23942E-07 2.51397E-15
7.61543E-07 2.28089E-15
1.18991E-06 9.60290E-16
1.71347E-06 4.71679E-16
2.33223E-06 2.58647E-16
3.04617E-06 1.53719E-16
3.85531E-06 9.71058E-17
4.75964E-06 6.43422E-17
5.75916E-06 4.43035E-17
6.85388E-06 3.14874E-17
8.04378E-06 2.29822E-17
9.32888E-06 1.71590E-17
1.07092E-05 1.30655E-17
1.21846E-05 1.01209E-17
1.37553E-05 7.95949E-18
1.54212E-05 6.34443E-18
1.71822E-05 5.11827E-18
1.90385E-05 4.17390E-18
2.09899E-05 3.43759E-18
2.30365E-05 2.85641E-18
2.51783E-05 2.39278E-18
2.74153E-05 2.01933E-18
2.97475E-05 1.71587E-18
3.21749E-05 1.46726E-18
3.46974E-05 1.26206E-18
3.73152E-05 1.09150E-18
4.00281E-05 9.48787E-19
4.28362E-05 8.28640E-19
4.57395E-05 7.26904E-19
4.87380E-05 6.40294E-19
5.18317E-05 5.66191E-19
5.50205E-05 5.02492E-19
5.83045E-05 4.47497E-19
6.16838E-05 3.99819E-19
6.51582E-05 3.58324E-19
6.87277E-05 3.22074E-19
7.23925E-05 2.90292E-19
7.61524E-05 2.62331E-19
9.21439E-05 1.79155E-19
1.09658E-04 1.26470E-19
1.28695E-04 9.17980E-20
1.49255E-04 6.82282E-20
1.71338E-04 5.17581E-20
1.94942E-04 3.99685E-20
2.20070E-04 3.13511E-20
2.46720E-04 2.49347E-20
2.74892E-04 2.00780E-20
3.04586E-04 1.63477E-20
3.35803E-04 1.34443E-20
3.68542E-04 1.11573E-20
4.02802E-04 9.33630E-21
4.38585E-04 7.87181E-21
4.75889E-04 6.68334E-21
5.14715E-04 5.71074E-21
5.55063E-04 4.90866E-21
5.96931E-04 4.24245E-21
6.40321E-04 3.68542E-21
6.85233E-04 3.21680E-21
7.31665E-04 2.82028E-21
7.79618E-04 2.48296E-21
8.29092E-04 2.19453E-21
8.80086E-04 1.94675E-21
9.32601E-04 1.73294E-21
9.86636E-04 1.54765E-21
1.04219E-03 1.38645E-21
1.09927E-03 1.24567E-21
1.15786E-03 1.12229E-21
1.21797E-03 1.01380E-21
1.27961E-03 9.18085E-22
1.34276E-03 8.33388E-22
1.40743E-03 7.58222E-22
1.47362E-03 6.91330E-22
1.54133E-03 6.31643E-22
1.61056E-03 5.78250E-22
1.68131E-03 5.30372E-22
1.75357E-03 4.87339E-22
1.82735E-03 4.48577E-22
1.90265E-03 4.13586E-22
1.97947E-03 3.81934E-22
2.05780E-03 3.53248E-22
2.13765E-03 3.27200E-22
2.21902E-03 3.03504E-22
2.30190E-03 2.81911E-22
2.38630E-03 2.62200E-22
2.47222E-03 2.44179E-22
2.55965E-03 2.27677E-22
2.64859E-03 2.12542E-22
2.73905E-03 1.98641E-22
2.83103E-03 1.85856E-22
2.92452E-03 1.74080E-22
3.01952E-03 1.63221E-22
3.11604E-03 1.53193E-22
3.21407E-03 1.43921E-22
3.31362E-03 1.35339E-22
3.41468E-03 1.27385E-22
3.51725E-03 1.20006E-22
3.62133E-03 1.13151E-22
3.72692E-03 1.06778E-22
3.83403E-03 1.00846E-22
3.94265E-03 9.53197E-23
4.05278E-03 9.01652E-23
4.16442E-03 8.53535E-23
4.27757E-03 8.08576E-23
4.39223E-03 7.66529E-23
4.50840E-03 7.27171E-23
4.62608E-03 6.90300E-23
4.74527E-03 6.55728E-23
4.86597E-03 6.23287E-23
4.98817E-03 5.92821E-23
5.11188E-03 5.64188E-23
5.23711E-03 5.37257E-23
5.36383E-03 5.11908E-23
5.49207E-03 4.88032E-23
5.62181E-03 4.65526E-23
5.75306E-03 4.44298E-23
5.88581E-03 4.24262E-23
6.02007E-03 4.05339E-23
6.15583E-03 3.87455E-23
6.29310E-03 3.70543E-23
6.43187E-03 3.54540E-23
6.57214E-03 3.39388E-23
6.71392E-03 3.25034E-23
6.85720E-03 3.11428E-23
7.00198E-03 2.98523E-23
7.14827E-03 2.86277E-23
7.29605E-03 2.74650E-23
7.44534E-03 2.63605E-23
7.59612E-03 2.53107E-23
7.97965E-03 2.29051E-23
8.37255E-03 2.07774E-23
8.77480E-03 1.88901E-23
9.18641E-03 1.72113E-23
9.60736E-03 1.57141E-23
1.00376E-02 1.43754E-23
1.04773E-02 1.31756E-23
1.09262E-02 1.20978E-23
1.13844E-02 1.11274E-23
1.18520E-02 1.02518E-23
1.23288E-02 9.46027E-24
1.28150E-02 8.74320E-24
1.33104E-02 8.09242E-24
1.38150E-02 7.50071E-24
1.43290E-02 6.96177E-24
1.48521E-02 6.47008E-24
1.53845E-02 6.02076E-24
1.59262E-02 5.60951E-24
1.64770E-02 5.23255E-24
1.70371E-02 4.88651E-24
1.76063E-02 4.56840E-24
1.81848E-02 4.27557E-24
1.87724E-02 4.00565E-24
1.93692E-02 3.75654E-24
1.99751E-02 3.52635E-24
2.05901E-02 3.31338E-24
2.12143E-02 3.11611E-24
2.18476E-02 2.93319E-24
2.24900E-02 2.76338E-24
2.31415E-02 2.60557E-24
2.38021E-02 2.45877E-24
2.44717E-02 2.32207E-24
2.51504E-02 2.19465E-24
2.58382E-02 2.07577E-24
2.65349E-02 1.96475E-24
2.72407E-02 1.86098E-24
2.79555E-02 1.76390E-24
2.86793E-02 1.67301E-24
2.94120E-02 1.58783E-24
3.01537E-02 1.50795E-24
3.09043E-02 1.43298E-24
3.16639E-02 1.36255E-24
3.24324E-02 1.29635E-24
3.32098E-02 1.23408E-24
3.39961E-02 1.17545E-24
3.47912E-02 1.12023E-24
3.55952E-02 1.06817E-24
3.64081E-02 1.01906E-24
3.72297E-02 9.72705E-25
3.80602E-02 9.28924E-25
3.88995E-02 8.87546E-25
3.97476E-02 8.48416E-25
4.06044E-02 8.11390E-25
4.14700E-02 7.76334E-25
4.23443E-02 7.43124E-25
4.32273E-02 7.11647E-25
4.41190E-02 6.81794E-25
4.50194E-02 6.53468E-25
4.59284E-02 6.26575E-25
4.68461E-02 6.01031E-25
4.87074E-02 5.53674E-25
5.06030E-02 5.10821E-25
5.25328E-02 4.71971E-25
5.44967E-02 4.36687E-25
5.64946E-02 4.04585E-25
5.85262E-02 3.75330E-25
6.05914E-02 3.48626E-25
6.26901E-02 3.24213E-25
6.48222E-02 3.01861E-25
6.69873E-02 2.81366E-25
6.91854E-02 2.62547E-25
7.14163E-02 2.45245E-25
7.36799E-02 2.29315E-25
7.59760E-02 2.14631E-25
7.83043E-02 2.01078E-25
8.06647E-02 1.88555E-25
8.30571E-02 1.76970E-25
8.54812E-02 1.66240E-25
8.79369E-02 1.56292E-25
9.04240E-02 1.47059E-25
9.29422E-02 1.38481E-25
9.54915E-02 1.30503E-25
9.80716E-02 1.23077E-25
1.00682E-01 1.16157E-25
1.03323E-01 1.09704E-25
1.05995E-01 1.03680E-25
1.08696E-01 9.80519E-26
1.11427E-01 9.27897E-26
1.14188E-01 8.78654E-26
1.16978E-01 8.32535E-26
1.19797E-01 7.89309E-26
1.22645E-01 7.48764E-26
1.25522E-01 7.10705E-26
1.28428E-01 6.74954E-26
1.31361E-01 6.41348E-26
1.34323E-01 6.09736E-26
1.37313E-01 5.79980E-26
1.40330E-01 5.51953E-26
1.43375E-01 5.25538E-26
1.46447E-01 5.00626E-26
1.49545E-01 4.77117E-26
1.52671E-01 4.54919E-26
1.55823E-01 4.33948E-26
1.59001E-01 4.14123E-26
1.62205E-01 3.95372E-26
1.65435E-01 3.77626E-26
1.68690E-01 3.60824E-26
1.71970E-01 3.44907E-26
1.75276E-01 3.29819E-26
1.78606E-01 3.15512E-26
1.81961E-01 3.01938E-26
1.85340E-01 2.89052E-26
1.88743E-01 2.76816E-26
1.92169E-01 2.65189E-26
1.95619E-01 2.54138E-26
1.99092E-01 2.43629E-26
2.02589E-01 2.33631E-26
2.06107E-01 2.24115E-26
2.09649E-01 2.15054E-26
2.13212E-01 2.06424E-26
2.16797E-01 1.98199E-26
2.20404E-01 1.90358E-26
2.24032E-01 1.82881E-26
2.27680E-01 1.75747E-26
2.31350E-01 1.68938E-26
2.35040E-01 1.62438E-26
2.38751E-01 1.56230E-26
2.42481E-01 1.50298E-26
2.46231E-01 1.44629E-26
2.50000E-01 1.39209E-26
2.53788E-01 1.34025E-26
2.57595E-01 1.29066E-26
2.61421E-01 1.24319E-26
2.65264E-01 1.19776E-26
2.69126E-01 1.15425E-26
2.73005E-01 1.11257E-26
2.76901E-01 1.07264E-26
2.80814E-01 1.03436E-26
2.84744E-01 9.97661E-27
2.88691E-01 9.62466E-27
2.92653E-01 9.28704E-27
2.96632E-01 8.96307E-27
3.00625E-01 8.65212E-27
3.04634E-01 8.35359E-27
3.08658E-01 8.06690E-27
3.12697E-01 7.79151E-27
3.16749E-01 7.52691E-27
3.20816E-01 7.27261E-27
3.24896E-01 7.02816E-27
3.28990E-01 6.79311E-27
3.33097E-01 6.56705E-27
3.37216E-01 6.34958E-27
3.41348E-01 6.14033E-27
3.45492E-01 5.93894E-27
3.49647E-01 5.74508E-27
3.53814E-01 5.55841E-27
3.57992E-01 5.37864E-27
3.62181E-01 5.20547E-27
3.66381E-01 5.03863E-27
3.70590E-01 4.87784E-27
3.74810E-01 4.72287E-27
3.79039E-01 4.57346E-27
3.83277E-01 4.42939E-27
3.87524E-01 4.29044E-27
3.91780E-01 4.15641E-27
3.96044E-01 4.02709E-27
4.00316E-01 3.90230E-27
4.04596E-01 3.78185E-27
4.08882E-01 3.66557E-27
4.13176E-01 3.55330E-27
4.17476E-01 3.44488E-27
4.21783E-01 3.34016E-27
4.26095E-01 3.23900E-27
4.30413E-01 3.14125E-27
4.34737E-01 3.04680E-27
4.39065E-01 2.95550E-27
4.43398E-01 2.86725E-27
4.47736E-01 2.78192E-27
4.52077E-01 2.69941E-27
4.56422E-01 2.61961E-27
4.60770E-01 2.54241E-27
4.65122E-01 2.46773E-27
4.69476E-01 2.39548E-27
4.73832E-01 2.32555E-27
4.78190E-01 2.25787E-27
4.82550E-01 2.19235E-27
4.86912E-01 2.12892E-27
4.91274E-01 2.06750E-27
4.95637E-01 2.00802E-27
5.00000E-01 1.95041E-27
5.04363E-01 1.89460E-27
5.08726E-01 1.84054E-27
5.13088E-01 1.78815E-27
5.17450E-01 1.73738E-27
5.21810E-01 1.68818E-27
5.26168E-01 1.64048E-27
5.30524E-01 1.59424E-27
5.34878E-01 1.54941E-27
5.39230E-01 1.50594E-27
5.43578E-01 1.46378E-27
5.47923E-01 1.42289E-27
5.52264E-01 1.38322E-27
5.56602E-01 1.34474E-27
5.60935E-01 1.30741E-27
5.65263E-01 1.27118E-27
5.69587E-01 1.23602E-27
5.73905E-01 1.20189E-27
5.78217E-01 1.16876E-27
5.82524E-01 1.13660E-27
5.86824E-01 1.10538E-27
5.91118E-01 1.07507E-27
5.95404E-01 1.04562E-27
5.99684E-01 1.01703E-27
6.03956E-01 9.89260E-28
6.08220E-01 9.62282E-28
6.12476E-01 9.36073E-28
6.16723E-01 9.10610E-28
6.20961E-01 8.85867E-28
6.25190E-01 8.61823E-28
6.29410E-01 8.38456E-28
6.33619E-01 8.15744E-28
6.37819E-01 7.93667E-28
6.42008E-01 7.72206E-28
6.46186E-01 7.51341E-28
6.50353E-01 7.31054E-28
6.54508E-01 7.11327E-28
6.58652E-01 6.92144E-28
6.62784E-01 6.73487E-28
6.66903E-01 6.55341E-28
6.71010E-01 6.37690E-28
6.75104E-01 6.20520E-28
6.79184E-01 6.03816E-28
6.83251E-01 5.87563E-28
6.87303E-01 5.71750E-28
6.91342E-01 5.56362E-28
6.95366E-01 5.41387E-28
6.99375E-01 5.26813E-28
7.03368E-01 5.12628E-28
7.07347E-01 4.98820E-28
7.11309E-01 4.85380E-28
7.15256E-01 4.72295E-28
7.19186E-01 4.59557E-28
7.23099E-01 4.47154E-28
7.26995E-01 4.35077E-28
7.30874E-01 4.23317E-28
7.34736E-01 4.11865E-28
7.38579E-01 4.00712E-28
7.42405E-01 3.89850E-28
7.46212E-01 3.79269E-28
7.50000E-01 3.68964E-28
7.53769E-01 3.58925E-28
7.57519E-01 3.49145E-28
7.61249E-01 3.39617E-28
7.64960E-01 3.30334E-28
7.68650E-01 3.21290E-28
7.72320E-01 3.12477E-28
7.75968E-01 3.03889E-28
7.79596E-01 2.95521E-28
7.83203E-01 2.87365E-28
7.86788E-01 2.79418E-28
7.90351E-01 2.71671E-28
7.93893E-01 2.64122E-28
7.97411E-01 2.56763E-28
8.00908E-01 2.49590E-28
8.04381E-01 2.42598E-28
8.07831E-01 2.35782E-28
8.11257E-01 2.29137E-28
8.14660E-01 2.22659E-28
8.18039E-01 2.16344E-28
8.21394E-01 2.10187E-28
8.24724E-01 2.04184E-28
8.28030E-01 1.98331E-28
8.31310E-01 1.92624E-28
8.34565E-01 1.87060E-28
8.37795E-01 1.81634E-28
8.40999E-01 1.76343E-28
8.44177E-01 1.71185E-28
8.47329E-01 1.66154E-28
8.50455E-01 1.61248E-28
8.53553E-01 1.56464E-28
8.56625E-01 1.51799E-28
8.59670E-01 1.47250E-28
8.62687E-01 1.42814E-28
8.65677E-01 1.38488E-28
8.68639E-01 1.34269E-28
8.71572E-01 1.30155E-28
8.74478E-01 1.26143E-28
8.77355E-01 1.22231E-28
8.80203E-01 1.18416E-28
8.83022E-01 1.14696E-28
8.85812E-01 1.11068E-28
8.88573E-01 1.07531E-28
8.91304E-01 1.04081E-28
8.94005E-01 1.00718E-28
8.96677E-01 9.74390E-29
8.99318E-01 9.42419E-29
9.01928E-01 9.11249E-29
9.04508E-01 8.80862E-29
9.07058E-01 8.51239E-29
9.09576E-01 8.22362E-29
9.12063E-01 7.94215E-29
9.14519E-01 7.66780E-29
9.16943E-01 7.40042E-29
9.19335E-01 7.13985E-29
9.21696E-01 6.88594E-29
9.24024E-01 6.63853E-29
9.26320E-01 6.39749E-29
9.28584E-01 6.16267E-29
9.30815E-01 5.93394E-29
9.33013E-01 5.71117E-29
9.35178E-01 5.49423E-29
9.37310E-01 5.28299E-29
9.39409E-01 5.07734E-29
9.41474E-01 4.87715E-29
9.43505E-01 4.68232E-29
9.45503E-01 4.49273E-29
9.47467E-01 4.30828E-29
9.49397E-01 4.12886E-29
9.51293E-01 3.95438E-29
9.53154E-01 3.78472E-29
9.54981E-01 3.61981E-29
9.56773E-01 3.45954E-29
9.58530E-01 3.30384E-29
9.60252E-01 3.15261E-29
9.61940E-01 3.00576E-29
9.63592E-01 2.86323E-29
9.65209E-01 2.72492E-29
9.66790E-01 2.59077E-29
9.68336E-01 2.46070E-29
9.69846E-01 2.33464E-29
9.71321E-01 2.21252E-29
9.72759E-01 2.09427E-29
9.74162E-01 1.97984E-29
9.75528E-01 1.86915E-29
9.76858E-01 1.76215E-29
9.78152E-01 1.65879E-29
9.79410E-01 1.55899E-29
9.80631E-01 1.46273E-29
9.81815E-01 1.36993E-29
9.82963E-01 1.28055E-29
9.84074E-01 1.19454E-29
9.85148E-01 1.11186E-29
9.86185E-01 1.03246E-29
9.87185E-01 9.56309E-30
9.88148E-01 8.83352E-30
9.89074E-01 8.13558E-30
9.89962E-01 7.46888E-30
9.90814E-01 6.83306E-30
9.91627E-01 6.22781E-30
9.92404E-01 5.65279E-30
9.93143E-01 5.10770E-30
9.93844E-01 4.59226E-30
9.94508E-01 4.10619E-30
9.95134E-01 3.64924E-30
9.95722E-01 3.22117E-30
9.96273E-01 2.82176E-30
9.96786E-01 2.45079E-30
9.97261E-01 2.10807E-30
9.97698E-01 1.79343E-30
9.98097E-01 1.50669E-30
9.98459E-01 1.24771E-30
9.98782E-01 1.01635E-30
9.99067E-01 8.12495E-31
9.99315E-01 6.36035E-31
9.99524E-01 4.86878E-31
9.99695E-01 3.64944E-31
9.99829E-01 2.70175E-31
9.99924E-01 2.02517E-31
9.99981E-01 1.61937E-31
1.00000E+00 1.48420E-31
