 #
 # Subroutine ELSEPA. Elastic scattering of electrons and positrons
 #                    by neutral atoms and positive ions
 #
 # Projectile: positron
 # Kinetic energy = 1.25000E+08 eV = 4.59367E+06 a.u.
 #
 # WARNING: High-energy factorization with free-atom DF screening.
 #          Absorption, polarization and exchange corrections are
 #          switched off.
 #          Phase shifts are calculated for the bare nucleus.
 #          Scattering amplitudes are not evaluated.
 #
 # Element: Ti,  Z =  22,  atomic weight = 4.78670E+01 g/mol
 #
 # Nuclear model: Fermi distribution
 #                Average radius = 3.88504E-13 cm
 #                Skin thickness = 5.46000E-14 cm
 #
 # Number of electrons = 22
 #
 # Total elastic cross section = 1.90010E-18 cm**2 = 6.78538E-02 a0**2
 # 1st transport cross section = 6.36497E-26 cm**2 = 2.27297E-09 a0**2
 # 2nd transport cross section = 1.89488E-25 cm**2 = 6.76674E-09 a0**2
 #
 #
 # Differential cross section:                       MU=(1-COS(THETA))/2
 #
 #  THETA        MU          DCS          DCS        Sherman      error
 #  (deg)                 (cm**2/sr)   (a0**2/sr)    function
 #----------------------------------------------------------------------
0.00000E+00 4.61798E-10
7.61557E-13 4.58752E-10
1.18994E-12 4.57052E-10
1.71346E-12 4.54989E-10
2.33225E-12 4.52569E-10
3.04617E-12 4.49801E-10
3.85530E-12 4.46695E-10
4.75964E-12 4.43261E-10
5.75917E-12 4.39513E-10
6.85391E-12 4.35463E-10
8.04379E-12 4.31126E-10
9.32893E-12 4.26514E-10
1.07092E-11 4.21645E-10
1.21847E-11 4.16533E-10
1.37554E-11 4.11195E-10
1.54213E-11 4.05646E-10
1.71823E-11 3.99905E-10
1.90386E-11 3.93988E-10
2.09900E-11 3.87912E-10
2.30367E-11 3.81693E-10
2.51785E-11 3.75349E-10
2.74156E-11 3.68896E-10
2.97478E-11 3.62348E-10
3.21752E-11 3.55723E-10
3.46979E-11 3.49039E-10
3.73157E-11 3.42308E-10
4.00286E-11 3.35541E-10
4.28368E-11 3.28753E-10
4.57402E-11 3.21962E-10
4.87388E-11 3.15183E-10
5.18325E-11 3.08419E-10
5.50215E-11 3.01679E-10
5.83057E-11 2.94975E-10
6.16850E-11 2.88339E-10
6.51595E-11 2.81755E-10
6.87293E-11 2.75232E-10
7.23943E-11 2.68777E-10
7.61544E-11 2.62418E-10
1.18991E-10 2.04363E-10
1.71347E-10 1.57912E-10
2.33223E-10 1.22573E-10
3.04617E-10 9.63170E-11
3.85531E-10 7.68502E-11
4.75965E-10 6.22948E-11
5.75917E-10 5.12397E-11
6.85389E-10 4.26808E-11
8.04380E-10 3.59289E-11
9.32891E-10 3.05071E-11
1.07092E-09 2.60771E-11
1.21847E-09 2.24168E-11
1.37554E-09 1.93599E-11
1.54213E-09 1.66835E-11
1.71823E-09 1.44100E-11
1.90386E-09 1.25581E-11
2.09900E-09 1.10359E-11
2.30367E-09 9.74486E-12
2.51785E-09 8.50980E-12
2.74156E-09 7.48090E-12
2.97478E-09 6.61766E-12
3.21752E-09 5.88856E-12
3.46978E-09 5.21561E-12
3.73156E-09 4.62879E-12
4.00286E-09 4.12759E-12
4.28368E-09 3.69728E-12
4.57402E-09 3.31674E-12
4.87388E-09 2.97454E-12
5.18326E-09 2.67760E-12
5.50215E-09 2.41887E-12
5.83057E-09 2.19235E-12
6.16850E-09 1.98697E-12
6.51596E-09 1.80626E-12
6.87293E-09 1.64672E-12
7.23942E-09 1.50539E-12
7.61544E-09 1.37849E-12
1.18991E-08 6.38002E-13
1.71347E-08 3.43656E-13
2.33223E-08 2.03681E-13
3.04617E-08 1.28235E-13
3.85531E-08 8.43701E-14
4.75965E-08 5.74612E-14
5.75917E-08 4.02860E-14
6.85389E-08 2.89744E-14
8.04380E-08 2.13213E-14
9.32891E-08 1.60155E-14
1.07092E-07 1.22537E-14
1.21847E-07 9.53261E-15
1.37554E-07 7.52683E-15
1.54213E-07 6.02210E-15
1.71823E-07 4.87773E-15
1.90386E-07 3.99341E-15
2.09900E-07 3.30232E-15
2.30367E-07 2.75445E-15
2.51785E-07 2.31660E-15
2.74156E-07 1.96261E-15
2.97478E-07 1.67404E-15
3.21752E-07 1.43686E-15
3.46978E-07 1.24024E-15
3.73156E-07 1.07640E-15
4.00286E-07 9.38591E-16
4.28368E-07 8.22305E-16
4.57402E-07 7.23443E-16
4.87388E-07 6.39028E-16
5.18325E-07 5.66595E-16
5.50215E-07 5.04096E-16
5.83057E-07 4.50030E-16
6.16850E-07 4.02957E-16
6.51596E-07 3.61911E-16
6.87293E-07 3.25936E-16
7.23942E-07 2.94319E-16
7.61543E-07 2.66445E-16
1.18991E-06 1.10497E-16
1.71347E-06 5.36390E-17
2.33223E-06 2.90586E-17
3.04617E-06 1.70694E-17
3.85531E-06 1.06699E-17
4.75964E-06 7.00603E-18
5.75916E-06 4.78760E-18
6.85388E-06 3.38144E-18
8.04378E-06 2.45550E-18
9.32888E-06 1.82581E-18
1.07092E-05 1.38558E-18
1.21846E-05 1.07036E-18
1.37553E-05 8.39874E-19
1.54212E-05 6.68207E-19
1.71822E-05 5.38235E-19
1.90385E-05 4.38364E-19
2.09899E-05 3.60648E-19
2.30365E-05 2.99405E-19
2.51783E-05 2.50616E-19
2.74153E-05 2.11364E-19
2.97475E-05 1.79501E-19
3.21749E-05 1.53421E-19
3.46974E-05 1.31911E-19
3.73152E-05 1.14043E-19
4.00281E-05 9.91013E-20
4.28362E-05 8.65284E-20
4.57395E-05 7.58869E-20
4.87380E-05 6.68310E-20
5.18317E-05 5.90856E-20
5.50205E-05 5.24296E-20
5.83045E-05 4.66847E-20
6.16838E-05 4.17053E-20
6.51582E-05 3.73726E-20
6.87277E-05 3.35882E-20
7.23925E-05 3.02710E-20
7.61524E-05 2.73488E-20
9.21439E-05 1.86716E-20
1.09658E-04 1.31775E-20
1.28695E-04 9.56306E-21
1.49255E-04 7.10650E-21
1.71338E-04 5.39021E-21
1.94942E-04 4.16184E-21
2.20070E-04 3.26409E-21
2.46720E-04 2.59571E-21
2.74892E-04 2.08986E-21
3.04586E-04 1.70135E-21
3.35803E-04 1.39899E-21
3.68542E-04 1.16085E-21
4.02802E-04 9.71243E-22
4.38585E-04 8.18770E-22
4.75889E-04 6.95043E-22
5.14715E-04 5.93797E-22
5.55063E-04 5.10310E-22
5.96931E-04 4.40972E-22
6.40321E-04 3.83002E-22
6.85233E-04 3.34237E-22
7.31665E-04 2.92978E-22
7.79618E-04 2.57882E-22
8.29092E-04 2.27877E-22
8.80086E-04 2.02103E-22
9.32601E-04 1.79864E-22
9.86636E-04 1.60595E-22
1.04219E-03 1.43832E-22
1.09927E-03 1.29195E-22
1.15786E-03 1.16368E-22
1.21797E-03 1.05090E-22
1.27961E-03 9.51423E-23
1.34276E-03 8.63404E-23
1.40743E-03 7.85300E-23
1.47362E-03 7.15803E-23
1.54133E-03 6.53799E-23
1.61056E-03 5.98343E-23
1.68131E-03 5.48622E-23
1.75357E-03 5.03940E-23
1.82735E-03 4.63698E-23
1.90265E-03 4.27377E-23
1.97947E-03 3.94528E-23
2.05780E-03 3.64762E-23
2.13765E-03 3.37737E-23
2.21902E-03 3.13158E-23
2.30190E-03 2.90764E-23
2.38630E-03 2.70325E-23
2.47222E-03 2.51642E-23
2.55965E-03 2.34537E-23
2.64859E-03 2.18853E-23
2.73905E-03 2.04450E-23
2.83103E-03 1.91206E-23
2.92452E-03 1.79011E-23
3.01952E-03 1.67767E-23
3.11604E-03 1.57385E-23
3.21407E-03 1.47790E-23
3.31362E-03 1.38909E-23
3.41468E-03 1.30681E-23
3.51725E-03 1.23049E-23
3.62133E-03 1.15961E-23
3.72692E-03 1.09373E-23
3.83403E-03 1.03243E-23
3.94265E-03 9.75320E-24
4.05278E-03 9.22076E-24
4.16442E-03 8.72386E-24
4.27757E-03 8.25969E-24
4.39223E-03 7.82571E-24
4.50840E-03 7.41960E-24
4.62608E-03 7.03925E-24
4.74527E-03 6.68272E-24
4.86597E-03 6.34827E-24
4.98817E-03 6.03426E-24
5.11188E-03 5.73924E-24
5.23711E-03 5.46183E-24
5.36383E-03 5.20081E-24
5.49207E-03 4.95502E-24
5.62181E-03 4.72342E-24
5.75306E-03 4.50504E-24
5.88581E-03 4.29899E-24
6.02007E-03 4.10444E-24
6.15583E-03 3.92064E-24
6.29310E-03 3.74688E-24
6.43187E-03 3.58253E-24
6.57214E-03 3.42697E-24
6.71392E-03 3.27965E-24
6.85720E-03 3.14006E-24
7.00198E-03 3.00771E-24
7.14827E-03 2.88216E-24
7.29605E-03 2.76301E-24
7.44534E-03 2.64985E-24
7.59612E-03 2.54235E-24
7.97965E-03 2.29617E-24
8.37255E-03 2.07865E-24
8.77480E-03 1.88590E-24
9.18641E-03 1.71462E-24
9.60736E-03 1.56204E-24
1.00376E-02 1.42576E-24
1.04773E-02 1.30377E-24
1.09262E-02 1.19430E-24
1.13844E-02 1.09586E-24
1.18520E-02 1.00715E-24
1.23288E-02 9.27050E-25
1.28150E-02 8.54585E-25
1.33104E-02 7.88904E-25
1.38150E-02 7.29267E-25
1.43290E-02 6.75024E-25
1.48521E-02 6.25606E-25
1.53845E-02 5.80511E-25
1.59262E-02 5.39300E-25
1.64770E-02 5.01580E-25
1.70371E-02 4.67008E-25
1.76063E-02 4.35277E-25
1.81848E-02 4.06114E-25
1.87724E-02 3.79278E-25
1.93692E-02 3.54551E-25
1.99751E-02 3.31741E-25
2.05901E-02 3.10674E-25
2.12143E-02 2.91195E-25
2.18476E-02 2.73165E-25
2.24900E-02 2.56458E-25
2.31415E-02 2.40961E-25
2.38021E-02 2.26573E-25
2.44717E-02 2.13200E-25
2.51504E-02 2.00759E-25
2.58382E-02 1.89176E-25
2.65349E-02 1.78380E-25
2.72407E-02 1.68311E-25
2.79555E-02 1.58910E-25
2.86793E-02 1.50127E-25
2.94120E-02 1.41915E-25
3.01537E-02 1.34230E-25
3.09043E-02 1.27033E-25
3.16639E-02 1.20288E-25
3.24324E-02 1.13963E-25
3.32098E-02 1.08026E-25
3.39961E-02 1.02451E-25
3.47912E-02 9.72123E-26
3.55952E-02 9.22856E-26
3.64081E-02 8.76498E-26
3.72297E-02 8.32850E-26
3.80602E-02 7.91730E-26
3.88995E-02 7.52968E-26
3.97476E-02 7.16409E-26
4.06044E-02 6.81907E-26
4.14700E-02 6.49330E-26
4.23443E-02 6.18553E-26
4.32273E-02 5.89462E-26
4.41190E-02 5.61951E-26
4.50194E-02 5.35920E-26
4.59284E-02 5.11279E-26
4.68461E-02 4.87942E-26
4.87074E-02 4.44867E-26
5.06030E-02 4.06126E-26
5.25328E-02 3.71223E-26
5.44967E-02 3.39725E-26
5.64946E-02 3.11255E-26
5.85262E-02 2.85483E-26
6.05914E-02 2.62119E-26
6.26901E-02 2.40910E-26
6.48222E-02 2.21629E-26
6.69873E-02 2.04079E-26
6.91854E-02 1.88086E-26
7.14163E-02 1.73493E-26
7.36799E-02 1.60163E-26
7.59760E-02 1.47972E-26
7.83043E-02 1.36813E-26
8.06647E-02 1.26586E-26
8.30571E-02 1.17205E-26
8.54812E-02 1.08592E-26
8.79369E-02 1.00676E-26
9.04240E-02 9.33954E-27
9.29422E-02 8.66925E-27
9.54915E-02 8.05166E-27
9.80716E-02 7.48219E-27
1.00682E-01 6.95668E-27
1.03323E-01 6.47138E-27
1.05995E-01 6.02289E-27
1.08696E-01 5.60813E-27
1.11427E-01 5.22432E-27
1.14188E-01 4.86891E-27
1.16978E-01 4.53960E-27
1.19797E-01 4.23429E-27
1.22645E-01 3.95106E-27
1.25522E-01 3.68818E-27
1.28428E-01 3.44404E-27
1.31361E-01 3.21719E-27
1.34323E-01 3.00630E-27
1.37313E-01 2.81016E-27
1.40330E-01 2.62763E-27
1.43375E-01 2.45771E-27
1.46447E-01 2.29945E-27
1.49545E-01 2.15199E-27
1.52671E-01 2.01452E-27
1.55823E-01 1.88634E-27
1.59001E-01 1.76675E-27
1.62205E-01 1.65515E-27
1.65435E-01 1.55096E-27
1.68690E-01 1.45365E-27
1.71970E-01 1.36275E-27
1.75276E-01 1.27779E-27
1.78606E-01 1.19837E-27
1.81961E-01 1.12411E-27
1.85340E-01 1.05464E-27
1.88743E-01 9.89646E-28
1.92169E-01 9.28814E-28
1.95619E-01 8.71865E-28
1.99092E-01 8.18538E-28
2.02589E-01 7.68590E-28
2.06107E-01 7.21795E-28
2.09649E-01 6.77944E-28
2.13212E-01 6.36843E-28
2.16797E-01 5.98311E-28
2.20404E-01 5.62180E-28
2.24032E-01 5.28293E-28
2.27680E-01 4.96505E-28
2.31350E-01 4.66680E-28
2.35040E-01 4.38692E-28
2.38751E-01 4.12424E-28
2.42481E-01 3.87764E-28
2.46231E-01 3.64612E-28
2.50000E-01 3.42872E-28
2.53788E-01 3.22454E-28
2.57595E-01 3.03275E-28
2.61421E-01 2.85258E-28
2.65264E-01 2.68330E-28
2.69126E-01 2.52423E-28
2.73005E-01 2.37474E-28
2.76901E-01 2.23423E-28
2.80814E-01 2.10215E-28
2.84744E-01 1.97798E-28
2.88691E-01 1.86123E-28
2.92653E-01 1.75145E-28
2.96632E-01 1.64822E-28
3.00625E-01 1.55113E-28
3.04634E-01 1.45981E-28
3.08658E-01 1.37392E-28
3.12697E-01 1.29311E-28
3.16749E-01 1.21709E-28
3.20816E-01 1.14557E-28
3.24896E-01 1.07827E-28
3.28990E-01 1.01495E-28
3.33097E-01 9.55361E-29
3.37216E-01 8.99283E-29
3.41348E-01 8.46506E-29
3.45492E-01 7.96833E-29
3.49647E-01 7.50080E-29
3.53814E-01 7.06074E-29
3.57992E-01 6.64650E-29
3.62181E-01 6.25657E-29
3.66381E-01 5.88950E-29
3.70590E-01 5.54393E-29
3.74810E-01 5.21861E-29
3.79039E-01 4.91234E-29
3.83277E-01 4.62399E-29
3.87524E-01 4.35252E-29
3.91780E-01 4.09692E-29
3.96044E-01 3.85626E-29
4.00316E-01 3.62968E-29
4.04596E-01 3.41634E-29
4.08882E-01 3.21547E-29
4.13176E-01 3.02633E-29
4.17476E-01 2.84825E-29
4.21783E-01 2.68058E-29
4.26095E-01 2.52270E-29
4.30413E-01 2.37404E-29
4.34737E-01 2.23408E-29
4.39065E-01 2.10229E-29
4.43398E-01 1.97821E-29
4.47736E-01 1.86138E-29
4.52077E-01 1.75138E-29
4.56422E-01 1.64781E-29
4.60770E-01 1.55031E-29
4.65122E-01 1.45851E-29
4.69476E-01 1.37208E-29
4.73832E-01 1.29072E-29
4.78190E-01 1.21412E-29
4.82550E-01 1.14201E-29
4.86912E-01 1.07413E-29
4.91274E-01 1.01023E-29
4.95637E-01 9.50086E-30
5.00000E-01 8.93470E-30
5.04363E-01 8.40180E-30
5.08726E-01 7.90023E-30
5.13088E-01 7.42816E-30
5.17450E-01 6.98389E-30
5.21810E-01 6.56577E-30
5.26168E-01 6.17231E-30
5.30524E-01 5.80205E-30
5.34878E-01 5.45364E-30
5.39230E-01 5.12582E-30
5.43578E-01 4.81737E-30
5.47923E-01 4.52718E-30
5.52264E-01 4.25417E-30
5.56602E-01 3.99734E-30
5.60935E-01 3.75574E-30
5.65263E-01 3.52848E-30
5.69587E-01 3.31474E-30
5.73905E-01 3.11370E-30
5.78217E-01 2.92463E-30
5.82524E-01 2.74684E-30
5.86824E-01 2.57965E-30
5.91118E-01 2.42244E-30
5.95404E-01 2.27464E-30
5.99684E-01 2.13568E-30
6.03956E-01 2.00504E-30
6.08220E-01 1.88224E-30
6.12476E-01 1.76682E-30
6.16723E-01 1.65834E-30
6.20961E-01 1.55638E-30
6.25190E-01 1.46057E-30
6.29410E-01 1.37054E-30
6.33619E-01 1.28596E-30
6.37819E-01 1.20648E-30
6.42008E-01 1.13183E-30
6.46186E-01 1.06170E-30
6.50353E-01 9.95827E-31
6.54508E-01 9.33963E-31
6.58652E-01 8.75866E-31
6.62784E-01 8.21312E-31
6.66903E-01 7.70090E-31
6.71010E-01 7.22001E-31
6.75104E-01 6.76857E-31
6.79184E-01 6.34482E-31
6.83251E-01 5.94709E-31
6.87303E-01 5.57384E-31
6.91342E-01 5.22358E-31
6.95366E-01 4.89493E-31
6.99375E-01 4.58660E-31
7.03368E-01 4.29735E-31
7.07347E-01 4.02603E-31
7.11309E-01 3.77156E-31
7.15256E-01 3.53292E-31
7.19186E-01 3.30914E-31
7.23099E-01 3.09932E-31
7.26995E-01 2.90261E-31
7.30874E-01 2.71822E-31
7.34736E-01 2.54539E-31
7.38579E-01 2.38341E-31
7.42405E-01 2.23162E-31
7.46212E-01 2.08940E-31
7.50000E-01 1.95615E-31
7.53769E-01 1.83132E-31
7.57519E-01 1.71440E-31
7.61249E-01 1.60490E-31
7.64960E-01 1.50235E-31
7.68650E-01 1.40632E-31
7.72320E-01 1.31642E-31
7.75968E-01 1.23225E-31
7.79596E-01 1.15347E-31
7.83203E-01 1.07973E-31
7.86788E-01 1.01072E-31
7.90351E-01 9.46143E-32
7.93893E-01 8.85720E-32
7.97411E-01 8.29189E-32
8.00908E-01 7.76305E-32
8.04381E-01 7.26835E-32
8.07831E-01 6.80567E-32
8.11257E-01 6.37295E-32
8.14660E-01 5.96828E-32
8.18039E-01 5.58988E-32
8.21394E-01 5.23607E-32
8.24724E-01 4.90527E-32
8.28030E-01 4.59601E-32
8.31310E-01 4.30690E-32
8.34565E-01 4.03663E-32
8.37795E-01 3.78400E-32
8.40999E-01 3.54785E-32
8.44177E-01 3.32713E-32
8.47329E-01 3.12081E-32
8.50455E-01 2.92797E-32
8.53553E-01 2.74772E-32
8.56625E-01 2.57923E-32
8.59670E-01 2.42174E-32
8.62687E-01 2.27452E-32
8.65677E-01 2.13688E-32
8.68639E-01 2.00821E-32
8.71572E-01 1.88789E-32
8.74478E-01 1.77539E-32
8.77355E-01 1.67017E-32
8.80203E-01 1.57174E-32
8.83022E-01 1.47967E-32
8.85812E-01 1.39351E-32
8.88573E-01 1.31287E-32
8.91304E-01 1.23738E-32
8.94005E-01 1.16670E-32
8.96677E-01 1.10049E-32
8.99318E-01 1.03845E-32
9.01928E-01 9.80310E-33
9.04508E-01 9.25794E-33
9.07058E-01 8.74661E-33
9.09576E-01 8.26675E-33
9.12063E-01 7.81627E-33
9.14519E-01 7.39315E-33
9.16943E-01 6.99553E-33
9.19335E-01 6.62165E-33
9.21696E-01 6.26994E-33
9.24024E-01 5.93884E-33
9.26320E-01 5.62695E-33
9.28584E-01 5.33300E-33
9.30815E-01 5.05572E-33
9.33013E-01 4.79404E-33
9.35178E-01 4.54685E-33
9.37310E-01 4.31322E-33
9.39409E-01 4.09222E-33
9.41474E-01 3.88299E-33
9.43505E-01 3.68476E-33
9.45503E-01 3.49683E-33
9.47467E-01 3.31847E-33
9.49397E-01 3.14911E-33
9.51293E-01 2.98813E-33
9.53154E-01 2.83504E-33
9.54981E-01 2.68929E-33
9.56773E-01 2.55046E-33
9.58530E-01 2.41812E-33
9.60252E-01 2.29186E-33
9.61940E-01 2.17132E-33
9.63592E-01 2.05618E-33
9.65209E-01 1.94612E-33
9.66790E-01 1.84086E-33
9.68336E-01 1.74015E-33
9.69846E-01 1.64372E-33
9.71321E-01 1.55137E-33
9.72759E-01 1.46288E-33
9.74162E-01 1.37808E-33
9.75528E-01 1.29680E-33
9.76858E-01 1.21887E-33
9.78152E-01 1.14414E-33
9.79410E-01 1.07249E-33
9.80631E-01 1.00380E-33
9.81815E-01 9.37955E-34
9.82963E-01 8.74850E-34
9.84074E-01 8.14398E-34
9.85148E-01 7.56517E-34
9.86185E-01 7.01120E-34
9.87185E-01 6.48154E-34
9.88148E-01 5.97540E-34
9.89074E-01 5.49247E-34
9.89962E-01 5.03198E-34
9.90814E-01 4.59349E-34
9.91627E-01 4.17672E-34
9.92404E-01 3.78119E-34
9.93143E-01 3.40656E-34
9.93844E-01 3.05259E-34
9.94508E-01 2.71899E-34
9.95134E-01 2.40538E-34
9.95722E-01 2.11176E-34
9.96273E-01 1.83778E-34
9.96786E-01 1.58336E-34
9.97261E-01 1.34829E-34
9.97698E-01 1.13244E-34
9.98097E-01 9.35730E-35
9.98459E-01 7.58021E-35
9.98782E-01 5.99242E-35
9.99067E-01 4.59311E-35
9.99315E-01 3.38181E-35
9.99524E-01 2.35762E-35
9.99695E-01 1.51984E-35
9.99829E-01 8.69066E-36
9.99924E-01 4.04115E-36
9.99981E-01 1.25498E-36
1.00000E+00 3.27882E-37
