 #
 # Subroutine ELSEPA. Elastic scattering of electrons and positrons
 #                    by neutral atoms and positive ions
 #
 # Projectile: positron
 # Kinetic energy = 4.50000E+07 eV = 1.65372E+06 a.u.
 #
 # WARNING: High-energy factorization with free-atom DF screening.
 #          Absorption, polarization and exchange corrections are
 #          switched off.
 #          Phase shifts are calculated for the bare nucleus.
 #          Scattering amplitudes are not evaluated.
 #
 # Element: Ti,  Z =  22,  atomic weight = 4.78670E+01 g/mol
 #
 # Nuclear model: Fermi distribution
 #                Average radius = 3.88504E-13 cm
 #                Skin thickness = 5.46000E-14 cm
 #
 # Number of electrons = 22
 #
 # Total elastic cross section = 1.90025E-18 cm**2 = 6.78593E-02 a0**2
 # 1st transport cross section = 4.55432E-25 cm**2 = 1.62638E-08 a0**2
 # 2nd transport cross section = 1.33422E-24 cm**2 = 4.76459E-08 a0**2
 #
 #
 # Differential cross section:                       MU=(1-COS(THETA))/2
 #
 #  THETA        MU          DCS          DCS        Sherman      error
 #  (deg)                 (cm**2/sr)   (a0**2/sr)    function
 #----------------------------------------------------------------------
0.00000E+00 6.07185E-11
7.61557E-13 6.06655E-11
1.18994E-12 6.06358E-11
1.71346E-12 6.05995E-11
2.33225E-12 6.05566E-11
3.04617E-12 6.05072E-11
3.85530E-12 6.04514E-11
4.75964E-12 6.03890E-11
5.75917E-12 6.03202E-11
6.85391E-12 6.02450E-11
8.04379E-12 6.01634E-11
9.32893E-12 6.00755E-11
1.07092E-11 5.99813E-11
1.21847E-11 5.98809E-11
1.37554E-11 5.97742E-11
1.54213E-11 5.96614E-11
1.71823E-11 5.95426E-11
1.90386E-11 5.94176E-11
2.09900E-11 5.92867E-11
2.30367E-11 5.91499E-11
2.51785E-11 5.90073E-11
2.74156E-11 5.88588E-11
2.97478E-11 5.87047E-11
3.21752E-11 5.85449E-11
3.46979E-11 5.83795E-11
3.73157E-11 5.82087E-11
4.00286E-11 5.80325E-11
4.28368E-11 5.78509E-11
4.57402E-11 5.76640E-11
4.87388E-11 5.74720E-11
5.18325E-11 5.72750E-11
5.50215E-11 5.70729E-11
5.83057E-11 5.68660E-11
6.16850E-11 5.66542E-11
6.51595E-11 5.64377E-11
6.87293E-11 5.62166E-11
7.23943E-11 5.59910E-11
7.61544E-11 5.57610E-11
1.18991E-10 5.32391E-11
1.71347E-10 5.03877E-11
2.33223E-10 4.73116E-11
3.04617E-10 4.41116E-11
3.85531E-10 4.08779E-11
4.75965E-10 3.76868E-11
5.75917E-10 3.45991E-11
6.85389E-10 3.16612E-11
8.04380E-10 2.89061E-11
9.32891E-10 2.63494E-11
1.07092E-09 2.39984E-11
1.21847E-09 2.18525E-11
1.37554E-09 1.99055E-11
1.54213E-09 1.81484E-11
1.71823E-09 1.65683E-11
1.90386E-09 1.51487E-11
2.09900E-09 1.38748E-11
2.30367E-09 1.27324E-11
2.51785E-09 1.17078E-11
2.74156E-09 1.07889E-11
2.97478E-09 9.96331E-12
3.21752E-09 9.21988E-12
3.46978E-09 8.54925E-12
3.73156E-09 7.94309E-12
4.00286E-09 7.39401E-12
4.28368E-09 6.89518E-12
4.57402E-09 6.44078E-12
4.87388E-09 6.02593E-12
5.18326E-09 5.64631E-12
5.50215E-09 5.29810E-12
5.83057E-09 4.97796E-12
6.16850E-09 4.68229E-12
6.51596E-09 4.40904E-12
6.87293E-09 4.15610E-12
7.23942E-09 3.92150E-12
7.61544E-09 3.70352E-12
1.18991E-08 2.15124E-12
1.71347E-08 1.32293E-12
2.33223E-08 8.31661E-13
3.04617E-08 5.42262E-13
3.85531E-08 3.65748E-13
4.75965E-08 2.54802E-13
5.75917E-08 1.83076E-13
6.85389E-08 1.35359E-13
8.04380E-08 1.02678E-13
9.32891E-08 7.96591E-14
1.07092E-07 6.29939E-14
1.21847E-07 5.06292E-14
1.37554E-07 4.12522E-14
1.54213E-07 3.39897E-14
1.71823E-07 2.82664E-14
1.90386E-07 2.37060E-14
2.09900E-07 2.00282E-14
2.30367E-07 1.70312E-14
2.51785E-07 1.45667E-14
2.74156E-07 1.25198E-14
2.97478E-07 1.08096E-14
3.21752E-07 9.37585E-15
3.46978E-07 8.16707E-15
3.73156E-07 7.14271E-15
4.00286E-07 6.27048E-15
4.28368E-07 5.52336E-15
4.57402E-07 4.88178E-15
4.87388E-07 4.32907E-15
5.18325E-07 3.85110E-15
5.50215E-07 3.43628E-15
5.83057E-07 3.07504E-15
6.16850E-07 2.75917E-15
6.51596E-07 2.48246E-15
6.87293E-07 2.23933E-15
7.23942E-07 2.02508E-15
7.61543E-07 1.83573E-15
1.18991E-06 7.69750E-16
1.71347E-06 3.78161E-16
2.33223E-06 2.07414E-16
3.04617E-06 1.23232E-16
3.85531E-06 7.77835E-17
4.75964E-06 5.14837E-17
5.75916E-06 3.54086E-17
6.85388E-06 2.51373E-17
8.04378E-06 1.83286E-17
9.32888E-06 1.36726E-17
1.07092E-05 1.04028E-17
1.21846E-05 8.05294E-18
1.37553E-05 6.32954E-18
1.54212E-05 5.04274E-18
1.71822E-05 4.06647E-18
1.90385E-05 3.31501E-18
2.09899E-05 2.72941E-18
2.30365E-05 2.26739E-18
2.51783E-05 1.89895E-18
2.74153E-05 1.60227E-18
2.97475E-05 1.36126E-18
3.21749E-05 1.16387E-18
3.46974E-05 1.00098E-18
3.73152E-05 8.65611E-19
4.00281E-05 7.52364E-19
4.28362E-05 6.57036E-19
4.57395E-05 5.76328E-19
4.87380E-05 5.07626E-19
5.18317E-05 4.48852E-19
5.50205E-05 3.98335E-19
5.83045E-05 3.54723E-19
6.16838E-05 3.16918E-19
6.51582E-05 2.84016E-19
6.87277E-05 2.55275E-19
7.23925E-05 2.30079E-19
7.61524E-05 2.07911E-19
9.21439E-05 1.41978E-19
1.09658E-04 1.00220E-19
1.28695E-04 7.27415E-20
1.49255E-04 5.40630E-20
1.71338E-04 4.10113E-20
1.94942E-04 3.16690E-20
2.20070E-04 2.48406E-20
2.46720E-04 1.97565E-20
2.74892E-04 1.59082E-20
3.04586E-04 1.29525E-20
3.35803E-04 1.06519E-20
3.68542E-04 8.83994E-21
4.02802E-04 7.39709E-21
4.38585E-04 6.23674E-21
4.75889E-04 5.29509E-21
5.14715E-04 4.52449E-21
5.55063E-04 3.88899E-21
5.96931E-04 3.36116E-21
6.40321E-04 2.91982E-21
6.85233E-04 2.54854E-21
7.31665E-04 2.23438E-21
7.79618E-04 1.96712E-21
8.29092E-04 1.73860E-21
8.80086E-04 1.54229E-21
9.32601E-04 1.37289E-21
9.86636E-04 1.22609E-21
1.04219E-03 1.09837E-21
1.09927E-03 9.86840E-22
1.15786E-03 8.89093E-22
1.21797E-03 8.03137E-22
1.27961E-03 7.27306E-22
1.34276E-03 6.60204E-22
1.40743E-03 6.00654E-22
1.47362E-03 5.47659E-22
1.54133E-03 5.00371E-22
1.61056E-03 4.58071E-22
1.68131E-03 4.20140E-22
1.75357E-03 3.86048E-22
1.82735E-03 3.55339E-22
1.90265E-03 3.27617E-22
1.97947E-03 3.02542E-22
2.05780E-03 2.79817E-22
2.13765E-03 2.59181E-22
2.21902E-03 2.40408E-22
2.30190E-03 2.23302E-22
2.38630E-03 2.07687E-22
2.47222E-03 1.93410E-22
2.55965E-03 1.80337E-22
2.64859E-03 1.68347E-22
2.73905E-03 1.57335E-22
2.83103E-03 1.47207E-22
2.92452E-03 1.37878E-22
3.01952E-03 1.29276E-22
3.11604E-03 1.21332E-22
3.21407E-03 1.13987E-22
3.31362E-03 1.07188E-22
3.41468E-03 1.00888E-22
3.51725E-03 9.50419E-23
3.62133E-03 8.96123E-23
3.72692E-03 8.45639E-23
3.83403E-03 7.98649E-23
3.94265E-03 7.54869E-23
4.05278E-03 7.14039E-23
4.16442E-03 6.75924E-23
4.27757E-03 6.40311E-23
4.39223E-03 6.07005E-23
4.50840E-03 5.75829E-23
4.62608E-03 5.46623E-23
4.74527E-03 5.19239E-23
4.86597E-03 4.93543E-23
4.98817E-03 4.69412E-23
5.11188E-03 4.46732E-23
5.23711E-03 4.25400E-23
5.36383E-03 4.05322E-23
5.49207E-03 3.86410E-23
5.62181E-03 3.68585E-23
5.75306E-03 3.51771E-23
5.88581E-03 3.35902E-23
6.02007E-03 3.20914E-23
6.15583E-03 3.06750E-23
6.29310E-03 2.93355E-23
6.43187E-03 2.80680E-23
6.57214E-03 2.68680E-23
6.71392E-03 2.57311E-23
6.85720E-03 2.46535E-23
7.00198E-03 2.36315E-23
7.14827E-03 2.26616E-23
7.29605E-03 2.17408E-23
7.44534E-03 2.08661E-23
7.59612E-03 2.00347E-23
7.97965E-03 1.81296E-23
8.37255E-03 1.64446E-23
8.77480E-03 1.49500E-23
9.18641E-03 1.36206E-23
9.60736E-03 1.24351E-23
1.00376E-02 1.13751E-23
1.04773E-02 1.04250E-23
1.09262E-02 9.57162E-24
1.13844E-02 8.80329E-24
1.18520E-02 8.11008E-24
1.23288E-02 7.48338E-24
1.28150E-02 6.91569E-24
1.33104E-02 6.40048E-24
1.38150E-02 5.93206E-24
1.43290E-02 5.50544E-24
1.48521E-02 5.11622E-24
1.53845E-02 4.76056E-24
1.59262E-02 4.43505E-24
1.64770E-02 4.13669E-24
1.70371E-02 3.86281E-24
1.76063E-02 3.61105E-24
1.81848E-02 3.37930E-24
1.87724E-02 3.16570E-24
1.93692E-02 2.96857E-24
1.99751E-02 2.78642E-24
2.05901E-02 2.61791E-24
2.12143E-02 2.46183E-24
2.18476E-02 2.31710E-24
2.24900E-02 2.18275E-24
2.31415E-02 2.05791E-24
2.38021E-02 1.94178E-24
2.44717E-02 1.83364E-24
2.51504E-02 1.73285E-24
2.58382E-02 1.63882E-24
2.65349E-02 1.55101E-24
2.72407E-02 1.46894E-24
2.79555E-02 1.39217E-24
2.86793E-02 1.32029E-24
2.94120E-02 1.25294E-24
3.01537E-02 1.18977E-24
3.09043E-02 1.13049E-24
3.16639E-02 1.07481E-24
3.24324E-02 1.02248E-24
3.32098E-02 9.73248E-25
3.39961E-02 9.26907E-25
3.47912E-02 8.83255E-25
3.55952E-02 8.42108E-25
3.64081E-02 8.03296E-25
3.72297E-02 7.66664E-25
3.80602E-02 7.32066E-25
3.88995E-02 6.99370E-25
3.97476E-02 6.68452E-25
4.06044E-02 6.39198E-25
4.14700E-02 6.11503E-25
4.23443E-02 5.85268E-25
4.32273E-02 5.60403E-25
4.41190E-02 5.36824E-25
4.50194E-02 5.14451E-25
4.59284E-02 4.93213E-25
4.68461E-02 4.73041E-25
4.87074E-02 4.35647E-25
5.06030E-02 4.01815E-25
5.25328E-02 3.71148E-25
5.44967E-02 3.43300E-25
5.64946E-02 3.17968E-25
5.85262E-02 2.94886E-25
6.05914E-02 2.73820E-25
6.26901E-02 2.54565E-25
6.48222E-02 2.36938E-25
6.69873E-02 2.20778E-25
6.91854E-02 2.05944E-25
7.14163E-02 1.92306E-25
7.36799E-02 1.79754E-25
7.59760E-02 1.68184E-25
7.83043E-02 1.57509E-25
8.06647E-02 1.47646E-25
8.30571E-02 1.38524E-25
8.54812E-02 1.30077E-25
8.79369E-02 1.22247E-25
9.04240E-02 1.14982E-25
9.29422E-02 1.08233E-25
9.54915E-02 1.01958E-25
9.80716E-02 9.61183E-26
1.00682E-01 9.06780E-26
1.03323E-01 8.56056E-26
1.05995E-01 8.08719E-26
1.08696E-01 7.64504E-26
1.11427E-01 7.23172E-26
1.14188E-01 6.84503E-26
1.16978E-01 6.48297E-26
1.19797E-01 6.14371E-26
1.22645E-01 5.82557E-26
1.25522E-01 5.52701E-26
1.28428E-01 5.24664E-26
1.31361E-01 4.98316E-26
1.34323E-01 4.73538E-26
1.37313E-01 4.50221E-26
1.40330E-01 4.28266E-26
1.43375E-01 4.07578E-26
1.46447E-01 3.88073E-26
1.49545E-01 3.69673E-26
1.52671E-01 3.52304E-26
1.55823E-01 3.35899E-26
1.59001E-01 3.20396E-26
1.62205E-01 3.05738E-26
1.65435E-01 2.91869E-26
1.68690E-01 2.78743E-26
1.71970E-01 2.66311E-26
1.75276E-01 2.54531E-26
1.78606E-01 2.43364E-26
1.81961E-01 2.32773E-26
1.85340E-01 2.22722E-26
1.88743E-01 2.13181E-26
1.92169E-01 2.04119E-26
1.95619E-01 1.95508E-26
1.99092E-01 1.87322E-26
2.02589E-01 1.79538E-26
2.06107E-01 1.72131E-26
2.09649E-01 1.65081E-26
2.13212E-01 1.58368E-26
2.16797E-01 1.51973E-26
2.20404E-01 1.45879E-26
2.24032E-01 1.40070E-26
2.27680E-01 1.34530E-26
2.31350E-01 1.29244E-26
2.35040E-01 1.24200E-26
2.38751E-01 1.19384E-26
2.42481E-01 1.14785E-26
2.46231E-01 1.10390E-26
2.50000E-01 1.06191E-26
2.53788E-01 1.02176E-26
2.57595E-01 9.83372E-27
2.61421E-01 9.46646E-27
2.65264E-01 9.11502E-27
2.69126E-01 8.77862E-27
2.73005E-01 8.45652E-27
2.76901E-01 8.14802E-27
2.80814E-01 7.85245E-27
2.84744E-01 7.56921E-27
2.88691E-01 7.29769E-27
2.92653E-01 7.03734E-27
2.96632E-01 6.78763E-27
3.00625E-01 6.54807E-27
3.04634E-01 6.31817E-27
3.08658E-01 6.09750E-27
3.12697E-01 5.88563E-27
3.16749E-01 5.68215E-27
3.20816E-01 5.48669E-27
3.24896E-01 5.29888E-27
3.28990E-01 5.11839E-27
3.33097E-01 4.94488E-27
3.37216E-01 4.77805E-27
3.41348E-01 4.61760E-27
3.45492E-01 4.46326E-27
3.49647E-01 4.31476E-27
3.53814E-01 4.17184E-27
3.57992E-01 4.03428E-27
3.62181E-01 3.90183E-27
3.66381E-01 3.77429E-27
3.70590E-01 3.65144E-27
3.74810E-01 3.53309E-27
3.79039E-01 3.41905E-27
3.83277E-01 3.30915E-27
3.87524E-01 3.20321E-27
3.91780E-01 3.10107E-27
3.96044E-01 3.00258E-27
4.00316E-01 2.90759E-27
4.04596E-01 2.81595E-27
4.08882E-01 2.72754E-27
4.13176E-01 2.64222E-27
4.17476E-01 2.55987E-27
4.21783E-01 2.48038E-27
4.26095E-01 2.40363E-27
4.30413E-01 2.32952E-27
4.34737E-01 2.25794E-27
4.39065E-01 2.18879E-27
4.43398E-01 2.12199E-27
4.47736E-01 2.05744E-27
4.52077E-01 1.99505E-27
4.56422E-01 1.93475E-27
4.60770E-01 1.87646E-27
4.65122E-01 1.82010E-27
4.69476E-01 1.76559E-27
4.73832E-01 1.71288E-27
4.78190E-01 1.66189E-27
4.82550E-01 1.61257E-27
4.86912E-01 1.56484E-27
4.91274E-01 1.51865E-27
4.95637E-01 1.47395E-27
5.00000E-01 1.43068E-27
5.04363E-01 1.38879E-27
5.08726E-01 1.34823E-27
5.13088E-01 1.30896E-27
5.17450E-01 1.27093E-27
5.21810E-01 1.23409E-27
5.26168E-01 1.19840E-27
5.30524E-01 1.16382E-27
5.34878E-01 1.13032E-27
5.39230E-01 1.09786E-27
5.43578E-01 1.06639E-27
5.47923E-01 1.03589E-27
5.52264E-01 1.00633E-27
5.56602E-01 9.77666E-28
5.60935E-01 9.49874E-28
5.65263E-01 9.22923E-28
5.69587E-01 8.96784E-28
5.73905E-01 8.71432E-28
5.78217E-01 8.46839E-28
5.82524E-01 8.22980E-28
5.86824E-01 7.99832E-28
5.91118E-01 7.77369E-28
5.95404E-01 7.55571E-28
5.99684E-01 7.34415E-28
6.03956E-01 7.13880E-28
6.08220E-01 6.93946E-28
6.12476E-01 6.74593E-28
6.16723E-01 6.55804E-28
6.20961E-01 6.37559E-28
6.25190E-01 6.19842E-28
6.29410E-01 6.02635E-28
6.33619E-01 5.85922E-28
6.37819E-01 5.69688E-28
6.42008E-01 5.53918E-28
6.46186E-01 5.38596E-28
6.50353E-01 5.23710E-28
6.54508E-01 5.09244E-28
6.58652E-01 4.95187E-28
6.62784E-01 4.81526E-28
6.66903E-01 4.68248E-28
6.71010E-01 4.55341E-28
6.75104E-01 4.42795E-28
6.79184E-01 4.30598E-28
6.83251E-01 4.18740E-28
6.87303E-01 4.07209E-28
6.91342E-01 3.95998E-28
6.95366E-01 3.85095E-28
6.99375E-01 3.74491E-28
7.03368E-01 3.64178E-28
7.07347E-01 3.54147E-28
7.11309E-01 3.44389E-28
7.15256E-01 3.34897E-28
7.19186E-01 3.25662E-28
7.23099E-01 3.16677E-28
7.26995E-01 3.07935E-28
7.30874E-01 2.99428E-28
7.34736E-01 2.91150E-28
7.38579E-01 2.83094E-28
7.42405E-01 2.75254E-28
7.46212E-01 2.67623E-28
7.50000E-01 2.60195E-28
7.53769E-01 2.52965E-28
7.57519E-01 2.45926E-28
7.61249E-01 2.39074E-28
7.64960E-01 2.32403E-28
7.68650E-01 2.25908E-28
7.72320E-01 2.19584E-28
7.75968E-01 2.13426E-28
7.79596E-01 2.07430E-28
7.83203E-01 2.01591E-28
7.86788E-01 1.95904E-28
7.90351E-01 1.90366E-28
7.93893E-01 1.84972E-28
7.97411E-01 1.79718E-28
8.00908E-01 1.74601E-28
8.04381E-01 1.69616E-28
8.07831E-01 1.64761E-28
8.11257E-01 1.60030E-28
8.14660E-01 1.55423E-28
8.18039E-01 1.50933E-28
8.21394E-01 1.46560E-28
8.24724E-01 1.42299E-28
8.28030E-01 1.38148E-28
8.31310E-01 1.34103E-28
8.34565E-01 1.30161E-28
8.37795E-01 1.26321E-28
8.40999E-01 1.22579E-28
8.44177E-01 1.18933E-28
8.47329E-01 1.15380E-28
8.50455E-01 1.11918E-28
8.53553E-01 1.08544E-28
8.56625E-01 1.05256E-28
8.59670E-01 1.02053E-28
8.62687E-01 9.89304E-29
8.65677E-01 9.58878E-29
8.68639E-01 9.29228E-29
8.71572E-01 9.00334E-29
8.74478E-01 8.72177E-29
8.77355E-01 8.44738E-29
8.80203E-01 8.17999E-29
8.83022E-01 7.91942E-29
8.85812E-01 7.66551E-29
8.88573E-01 7.41808E-29
8.91304E-01 7.17698E-29
8.94005E-01 6.94206E-29
8.96677E-01 6.71315E-29
8.99318E-01 6.49012E-29
9.01928E-01 6.27282E-29
9.04508E-01 6.06111E-29
9.07058E-01 5.85486E-29
9.09576E-01 5.65393E-29
9.12063E-01 5.45821E-29
9.14519E-01 5.26756E-29
9.16943E-01 5.08186E-29
9.19335E-01 4.90101E-29
9.21696E-01 4.72489E-29
9.24024E-01 4.55339E-29
9.26320E-01 4.38640E-29
9.28584E-01 4.22382E-29
9.30815E-01 4.06555E-29
9.33013E-01 3.91149E-29
9.35178E-01 3.76155E-29
9.37310E-01 3.61564E-29
9.39409E-01 3.47366E-29
9.41474E-01 3.33554E-29
9.43505E-01 3.20119E-29
9.45503E-01 3.07052E-29
9.47467E-01 2.94347E-29
9.49397E-01 2.81994E-29
9.51293E-01 2.69988E-29
9.53154E-01 2.58320E-29
9.54981E-01 2.46984E-29
9.56773E-01 2.35974E-29
9.58530E-01 2.25282E-29
9.60252E-01 2.14902E-29
9.61940E-01 2.04828E-29
9.63592E-01 1.95055E-29
9.65209E-01 1.85575E-29
9.66790E-01 1.76385E-29
9.68336E-01 1.67479E-29
9.69846E-01 1.58851E-29
9.71321E-01 1.50496E-29
9.72759E-01 1.42410E-29
9.74162E-01 1.34587E-29
9.75528E-01 1.27024E-29
9.76858E-01 1.19716E-29
9.78152E-01 1.12659E-29
9.79410E-01 1.05848E-29
9.80631E-01 9.92801E-30
9.81815E-01 9.29512E-30
9.82963E-01 8.68577E-30
9.84074E-01 8.09961E-30
9.85148E-01 7.53632E-30
9.86185E-01 6.99556E-30
9.87185E-01 6.47703E-30
9.88148E-01 5.98044E-30
9.89074E-01 5.50550E-30
9.89962E-01 5.05195E-30
9.90814E-01 4.61953E-30
9.91627E-01 4.20800E-30
9.92404E-01 3.81712E-30
9.93143E-01 3.44667E-30
9.93844E-01 3.09645E-30
9.94508E-01 2.76626E-30
9.95134E-01 2.45591E-30
9.95722E-01 2.16523E-30
9.96273E-01 1.89405E-30
9.96786E-01 1.64223E-30
9.97261E-01 1.40963E-30
9.97698E-01 1.19610E-30
9.98097E-01 1.00154E-30
9.98459E-01 8.25841E-31
9.98782E-01 6.68894E-31
9.99067E-01 5.30616E-31
9.99315E-01 4.10932E-31
9.99524E-01 3.09773E-31
9.99695E-01 2.27082E-31
9.99829E-01 1.62816E-31
9.99924E-01 1.16936E-31
9.99981E-01 8.94197E-32
1.00000E+00 8.02538E-32
