 #
 # Subroutine ELSEPA. Elastic scattering of electrons and positrons
 #                    by neutral atoms and positive ions
 #
 # Projectile: positron
 # Kinetic energy = 4.00000E+06 eV = 1.46997E+05 a.u.
 #
 # WARNING: High-energy factorization with free-atom DF screening.
 #          Absorption, polarization and exchange corrections are
 #          switched off.
 #          Phase shifts are calculated for the bare nucleus.
 #          Scattering amplitudes are not evaluated.
 #
 # Element: Ta,  Z =  73,  atomic weight = 1.80948E+02 g/mol
 #
 # Nuclear model: Fermi distribution
 #                Average radius = 6.05204E-13 cm
 #                Skin thickness = 5.46000E-14 cm
 #
 # Number of electrons = 73
 #
 # Total elastic cross section = 7.51220E-18 cm**2 = 2.68266E-01 a0**2
 # 1st transport cross section = 3.10609E-22 cm**2 = 1.10921E-05 a0**2
 # 2nd transport cross section = 8.91336E-22 cm**2 = 3.18302E-05 a0**2
 #
 #
 # Differential cross section:                       MU=(1-COS(THETA))/2
 #
 #  THETA        MU          DCS          DCS        Sherman      error
 #  (deg)                 (cm**2/sr)   (a0**2/sr)    function
 #----------------------------------------------------------------------
0.00000E+00 1.22139E-12
7.61557E-13 1.22138E-12
1.18994E-12 1.22138E-12
1.71346E-12 1.22137E-12
2.33225E-12 1.22137E-12
3.04617E-12 1.22136E-12
3.85530E-12 1.22135E-12
4.75964E-12 1.22135E-12
5.75917E-12 1.22134E-12
6.85391E-12 1.22133E-12
8.04379E-12 1.22131E-12
9.32893E-12 1.22130E-12
1.07092E-11 1.22129E-12
1.21847E-11 1.22127E-12
1.37554E-11 1.22126E-12
1.54213E-11 1.22124E-12
1.71823E-11 1.22123E-12
1.90386E-11 1.22121E-12
2.09900E-11 1.22119E-12
2.30367E-11 1.22117E-12
2.51785E-11 1.22115E-12
2.74156E-11 1.22113E-12
2.97478E-11 1.22111E-12
3.21752E-11 1.22109E-12
3.46979E-11 1.22106E-12
3.73157E-11 1.22104E-12
4.00286E-11 1.22101E-12
4.28368E-11 1.22099E-12
4.57402E-11 1.22096E-12
4.87388E-11 1.22093E-12
5.18325E-11 1.22091E-12
5.50215E-11 1.22088E-12
5.83057E-11 1.22084E-12
6.16850E-11 1.22081E-12
6.51595E-11 1.22078E-12
6.87293E-11 1.22075E-12
7.23943E-11 1.22071E-12
7.61544E-11 1.22068E-12
1.18991E-10 1.22028E-12
1.71347E-10 1.21980E-12
2.33223E-10 1.21923E-12
3.04617E-10 1.21858E-12
3.85531E-10 1.21783E-12
4.75965E-10 1.21701E-12
5.75917E-10 1.21609E-12
6.85389E-10 1.21509E-12
8.04380E-10 1.21401E-12
9.32891E-10 1.21284E-12
1.07092E-09 1.21159E-12
1.21847E-09 1.21025E-12
1.37554E-09 1.20883E-12
1.54213E-09 1.20733E-12
1.71823E-09 1.20574E-12
1.90386E-09 1.20408E-12
2.09900E-09 1.20233E-12
2.30367E-09 1.20050E-12
2.51785E-09 1.19859E-12
2.74156E-09 1.19661E-12
2.97478E-09 1.19454E-12
3.21752E-09 1.19240E-12
3.46978E-09 1.19018E-12
3.73156E-09 1.18788E-12
4.00286E-09 1.18551E-12
4.28368E-09 1.18306E-12
4.57402E-09 1.18054E-12
4.87388E-09 1.17794E-12
5.18326E-09 1.17528E-12
5.50215E-09 1.17254E-12
5.83057E-09 1.16973E-12
6.16850E-09 1.16685E-12
6.51596E-09 1.16390E-12
6.87293E-09 1.16089E-12
7.23942E-09 1.15781E-12
7.61544E-09 1.15466E-12
1.18991E-08 1.11979E-12
1.71347E-08 1.07954E-12
2.33223E-08 1.03501E-12
3.04617E-08 9.87421E-13
3.85531E-08 9.37909E-13
4.75965E-08 8.87503E-13
5.75917E-08 8.37084E-13
6.85389E-08 7.87237E-13
8.04380E-08 7.38772E-13
9.32891E-08 6.92158E-13
1.07092E-07 6.47726E-13
1.21847E-07 6.05689E-13
1.37554E-07 5.66080E-13
1.54213E-07 5.28993E-13
1.71823E-07 4.94455E-13
1.90386E-07 4.62392E-13
2.09900E-07 4.32698E-13
2.30367E-07 4.05231E-13
2.51785E-07 3.79802E-13
2.74156E-07 3.56340E-13
2.97478E-07 3.34697E-13
3.21752E-07 3.14729E-13
3.46978E-07 2.96298E-13
3.73156E-07 2.79232E-13
4.00286E-07 2.63438E-13
4.28368E-07 2.48822E-13
4.57402E-07 2.35279E-13
4.87388E-07 2.22715E-13
5.18325E-07 2.11032E-13
5.50215E-07 2.00128E-13
5.83057E-07 1.89971E-13
6.16850E-07 1.80497E-13
6.51596E-07 1.71646E-13
6.87293E-07 1.63368E-13
7.23942E-07 1.55585E-13
7.61543E-07 1.48278E-13
1.18991E-06 9.44042E-14
1.71347E-06 6.31312E-14
2.33223E-06 4.35815E-14
3.04617E-06 3.11007E-14
3.85531E-06 2.28027E-14
4.75964E-06 1.71010E-14
5.75916E-06 1.30652E-14
6.85388E-06 1.01035E-14
8.04378E-06 7.92868E-15
9.32888E-06 6.29965E-15
1.07092E-05 5.05945E-15
1.21846E-05 4.10255E-15
1.37553E-05 3.35242E-15
1.54212E-05 2.76224E-15
1.71822E-05 2.29531E-15
1.90385E-05 1.92151E-15
2.09899E-05 1.62260E-15
2.30365E-05 1.37953E-15
2.51783E-05 1.18001E-15
2.74153E-05 1.01598E-15
2.97475E-05 8.79592E-16
3.21749E-05 7.65473E-16
3.46974E-05 6.69806E-16
3.73152E-05 5.89036E-16
4.00281E-05 5.20449E-16
4.28362E-05 4.61834E-16
4.57395E-05 4.11406E-16
4.87380E-05 3.67761E-16
5.18317E-05 3.29763E-16
5.50205E-05 2.96498E-16
5.83045E-05 2.67333E-16
6.16838E-05 2.41682E-16
6.51582E-05 2.19052E-16
6.87277E-05 1.99028E-16
7.23925E-05 1.81229E-16
7.61524E-05 1.65382E-16
9.21439E-05 1.16955E-16
1.09658E-04 8.49366E-17
1.28695E-04 6.30793E-17
1.49255E-04 4.78478E-17
1.71338E-04 3.69460E-17
1.94942E-04 2.89749E-17
2.20070E-04 2.30335E-17
2.46720E-04 1.85367E-17
2.74892E-04 1.50864E-17
3.04586E-04 1.24032E-17
3.35803E-04 1.02909E-17
3.68542E-04 8.60928E-18
4.02802E-04 7.25627E-18
4.38585E-04 6.15914E-18
4.75889E-04 5.26187E-18
5.14715E-04 4.52228E-18
5.55063E-04 3.90819E-18
5.96931E-04 3.39453E-18
6.40321E-04 2.96246E-18
6.85233E-04 2.59697E-18
7.31665E-04 2.28611E-18
7.79618E-04 2.02035E-18
8.29092E-04 1.79201E-18
8.80086E-04 1.59487E-18
9.32601E-04 1.42406E-18
9.86636E-04 1.27547E-18
1.04219E-03 1.14572E-18
1.09927E-03 1.03200E-18
1.15786E-03 9.31958E-19
1.21797E-03 8.43705E-19
1.27961E-03 7.65621E-19
1.34276E-03 6.96333E-19
1.40743E-03 6.34681E-19
1.47362E-03 5.79668E-19
1.54133E-03 5.30454E-19
1.61056E-03 4.86334E-19
1.68131E-03 4.46689E-19
1.75357E-03 4.10988E-19
1.82735E-03 3.78768E-19
1.90265E-03 3.49625E-19
1.97947E-03 3.23219E-19
2.05780E-03 2.99251E-19
2.13765E-03 2.77455E-19
2.21902E-03 2.57600E-19
2.30190E-03 2.39481E-19
2.38630E-03 2.22919E-19
2.47222E-03 2.07759E-19
2.55965E-03 1.93862E-19
2.64859E-03 1.81102E-19
2.73905E-03 1.69372E-19
2.83103E-03 1.58570E-19
2.92452E-03 1.48613E-19
3.01952E-03 1.39422E-19
3.11604E-03 1.30929E-19
3.21407E-03 1.23070E-19
3.31362E-03 1.15789E-19
3.41468E-03 1.09036E-19
3.51725E-03 1.02766E-19
3.62133E-03 9.69392E-20
3.72692E-03 9.15177E-20
3.83403E-03 8.64685E-20
3.94265E-03 8.17610E-20
4.05278E-03 7.73682E-20
4.16442E-03 7.32653E-20
4.27757E-03 6.94298E-20
4.39223E-03 6.58410E-20
4.50840E-03 6.24799E-20
4.62608E-03 5.93296E-20
4.74527E-03 5.63746E-20
4.86597E-03 5.36004E-20
4.98817E-03 5.09942E-20
5.11188E-03 4.85436E-20
5.23711E-03 4.62378E-20
5.36383E-03 4.40666E-20
5.49207E-03 4.20208E-20
5.62181E-03 4.00918E-20
5.75306E-03 3.82717E-20
5.88581E-03 3.65532E-20
6.02007E-03 3.49295E-20
6.15583E-03 3.33946E-20
6.29310E-03 3.19427E-20
6.43187E-03 3.05684E-20
6.57214E-03 2.92669E-20
6.71392E-03 2.80334E-20
6.85720E-03 2.68640E-20
7.00198E-03 2.57546E-20
7.14827E-03 2.47015E-20
7.29605E-03 2.37015E-20
7.44534E-03 2.27512E-20
7.59612E-03 2.18478E-20
7.97965E-03 1.97768E-20
8.37255E-03 1.79442E-20
8.77480E-03 1.63179E-20
9.18641E-03 1.48706E-20
9.60736E-03 1.35793E-20
1.00376E-02 1.24243E-20
1.04773E-02 1.13888E-20
1.09262E-02 1.04582E-20
1.13844E-02 9.62016E-21
1.18520E-02 8.86378E-21
1.23288E-02 8.17980E-21
1.28150E-02 7.56008E-21
1.33104E-02 6.99753E-21
1.38150E-02 6.48597E-21
1.43290E-02 6.01994E-21
1.48521E-02 5.59469E-21
1.53845E-02 5.20605E-21
1.59262E-02 4.85031E-21
1.64770E-02 4.52420E-21
1.70371E-02 4.22481E-21
1.76063E-02 3.94956E-21
1.81848E-02 3.69618E-21
1.87724E-02 3.46262E-21
1.93692E-02 3.24706E-21
1.99751E-02 3.04787E-21
2.05901E-02 2.86358E-21
2.12143E-02 2.69287E-21
2.18476E-02 2.53458E-21
2.24900E-02 2.38765E-21
2.31415E-02 2.25110E-21
2.38021E-02 2.12409E-21
2.44717E-02 2.00581E-21
2.51504E-02 1.89557E-21
2.58382E-02 1.79273E-21
2.65349E-02 1.69669E-21
2.72407E-02 1.60694E-21
2.79555E-02 1.52298E-21
2.86793E-02 1.44437E-21
2.94120E-02 1.37071E-21
3.01537E-02 1.30164E-21
3.09043E-02 1.23682E-21
3.16639E-02 1.17594E-21
3.24324E-02 1.11872E-21
3.32098E-02 1.06489E-21
3.39961E-02 1.01423E-21
3.47912E-02 9.66511E-22
3.55952E-02 9.21531E-22
3.64081E-02 8.79106E-22
3.72297E-02 8.39066E-22
3.80602E-02 8.01252E-22
3.88995E-02 7.65519E-22
3.97476E-02 7.31731E-22
4.06044E-02 6.99763E-22
4.14700E-02 6.69500E-22
4.23443E-02 6.40835E-22
4.32273E-02 6.13669E-22
4.41190E-02 5.87908E-22
4.50194E-02 5.63467E-22
4.59284E-02 5.40266E-22
4.68461E-02 5.18231E-22
4.87074E-02 4.77389E-22
5.06030E-02 4.40440E-22
5.25328E-02 4.06950E-22
5.44967E-02 3.76542E-22
5.64946E-02 3.48883E-22
5.85262E-02 3.23682E-22
6.05914E-02 3.00684E-22
6.26901E-02 2.79664E-22
6.48222E-02 2.60422E-22
6.69873E-02 2.42783E-22
6.91854E-02 2.26589E-22
7.14163E-02 2.11703E-22
7.36799E-02 1.98000E-22
7.59760E-02 1.85371E-22
7.83043E-02 1.73716E-22
8.06647E-02 1.62949E-22
8.30571E-02 1.52989E-22
8.54812E-02 1.43765E-22
8.79369E-02 1.35215E-22
9.04240E-02 1.27279E-22
9.29422E-02 1.19907E-22
9.54915E-02 1.13052E-22
9.80716E-02 1.06671E-22
1.00682E-01 1.00725E-22
1.03323E-01 9.51798E-23
1.05995E-01 9.00039E-23
1.08696E-01 8.51682E-23
1.11427E-01 8.06467E-23
1.14188E-01 7.64152E-23
1.16978E-01 7.24520E-23
1.19797E-01 6.87371E-23
1.22645E-01 6.52523E-23
1.25522E-01 6.19809E-23
1.28428E-01 5.89075E-23
1.31361E-01 5.60182E-23
1.34323E-01 5.32999E-23
1.37313E-01 5.07407E-23
1.40330E-01 4.83299E-23
1.43375E-01 4.60572E-23
1.46447E-01 4.39133E-23
1.49545E-01 4.18898E-23
1.52671E-01 3.99787E-23
1.55823E-01 3.81726E-23
1.59001E-01 3.64649E-23
1.62205E-01 3.48491E-23
1.65435E-01 3.33196E-23
1.68690E-01 3.18708E-23
1.71970E-01 3.04979E-23
1.75276E-01 2.91961E-23
1.78606E-01 2.79611E-23
1.81961E-01 2.67889E-23
1.85340E-01 2.56758E-23
1.88743E-01 2.46182E-23
1.92169E-01 2.36129E-23
1.95619E-01 2.26570E-23
1.99092E-01 2.17474E-23
2.02589E-01 2.08817E-23
2.06107E-01 2.00573E-23
2.09649E-01 1.92719E-23
2.13212E-01 1.85233E-23
2.16797E-01 1.78096E-23
2.20404E-01 1.71288E-23
2.24032E-01 1.64791E-23
2.27680E-01 1.58589E-23
2.31350E-01 1.52666E-23
2.35040E-01 1.47007E-23
2.38751E-01 1.41599E-23
2.42481E-01 1.36428E-23
2.46231E-01 1.31482E-23
2.50000E-01 1.26751E-23
2.53788E-01 1.22222E-23
2.57595E-01 1.17886E-23
2.61421E-01 1.13733E-23
2.65264E-01 1.09754E-23
2.69126E-01 1.05941E-23
2.73005E-01 1.02285E-23
2.76901E-01 9.87794E-24
2.80814E-01 9.54161E-24
2.84744E-01 9.21886E-24
2.88691E-01 8.90906E-24
2.92653E-01 8.61159E-24
2.96632E-01 8.32588E-24
3.00625E-01 8.05139E-24
3.04634E-01 7.78759E-24
3.08658E-01 7.53401E-24
3.12697E-01 7.29018E-24
3.16749E-01 7.05566E-24
3.20816E-01 6.83004E-24
3.24896E-01 6.61291E-24
3.28990E-01 6.40391E-24
3.33097E-01 6.20268E-24
3.37216E-01 6.00888E-24
3.41348E-01 5.82220E-24
3.45492E-01 5.64231E-24
3.49647E-01 5.46895E-24
3.53814E-01 5.30183E-24
3.57992E-01 5.14068E-24
3.62181E-01 4.98526E-24
3.66381E-01 4.83533E-24
3.70590E-01 4.69066E-24
3.74810E-01 4.55104E-24
3.79039E-01 4.41626E-24
3.83277E-01 4.28613E-24
3.87524E-01 4.16046E-24
3.91780E-01 4.03907E-24
3.96044E-01 3.92179E-24
4.00316E-01 3.80845E-24
4.04596E-01 3.69891E-24
4.08882E-01 3.59301E-24
4.13176E-01 3.49062E-24
4.17476E-01 3.39159E-24
4.21783E-01 3.29580E-24
4.26095E-01 3.20313E-24
4.30413E-01 3.11346E-24
4.34737E-01 3.02667E-24
4.39065E-01 2.94266E-24
4.43398E-01 2.86132E-24
4.47736E-01 2.78255E-24
4.52077E-01 2.70626E-24
4.56422E-01 2.63236E-24
4.60770E-01 2.56076E-24
4.65122E-01 2.49138E-24
4.69476E-01 2.42414E-24
4.73832E-01 2.35896E-24
4.78190E-01 2.29576E-24
4.82550E-01 2.23449E-24
4.86912E-01 2.17506E-24
4.91274E-01 2.11742E-24
4.95637E-01 2.06149E-24
5.00000E-01 2.00724E-24
5.04363E-01 1.95458E-24
5.08726E-01 1.90348E-24
5.13088E-01 1.85388E-24
5.17450E-01 1.80573E-24
5.21810E-01 1.75897E-24
5.26168E-01 1.71355E-24
5.30524E-01 1.66945E-24
5.34878E-01 1.62661E-24
5.39230E-01 1.58498E-24
5.43578E-01 1.54454E-24
5.47923E-01 1.50524E-24
5.52264E-01 1.46705E-24
5.56602E-01 1.42992E-24
5.60935E-01 1.39382E-24
5.65263E-01 1.35872E-24
5.69587E-01 1.32460E-24
5.73905E-01 1.29141E-24
5.78217E-01 1.25912E-24
5.82524E-01 1.22772E-24
5.86824E-01 1.19717E-24
5.91118E-01 1.16745E-24
5.95404E-01 1.13852E-24
5.99684E-01 1.11037E-24
6.03956E-01 1.08296E-24
6.08220E-01 1.05629E-24
6.12476E-01 1.03032E-24
6.16723E-01 1.00504E-24
6.20961E-01 9.80414E-25
6.25190E-01 9.56436E-25
6.29410E-01 9.33083E-25
6.33619E-01 9.10335E-25
6.37819E-01 8.88174E-25
6.42008E-01 8.66584E-25
6.46186E-01 8.45547E-25
6.50353E-01 8.25047E-25
6.54508E-01 8.05068E-25
6.58652E-01 7.85596E-25
6.62784E-01 7.66616E-25
6.66903E-01 7.48114E-25
6.71010E-01 7.30075E-25
6.75104E-01 7.12487E-25
6.79184E-01 6.95338E-25
6.83251E-01 6.78613E-25
6.87303E-01 6.62303E-25
6.91342E-01 6.46394E-25
6.95366E-01 6.30877E-25
6.99375E-01 6.15739E-25
7.03368E-01 6.00971E-25
7.07347E-01 5.86562E-25
7.11309E-01 5.72502E-25
7.15256E-01 5.58782E-25
7.19186E-01 5.45393E-25
7.23099E-01 5.32326E-25
7.26995E-01 5.19572E-25
7.30874E-01 5.07123E-25
7.34736E-01 4.94970E-25
7.38579E-01 4.83106E-25
7.42405E-01 4.71523E-25
7.46212E-01 4.60214E-25
7.50000E-01 4.49171E-25
7.53769E-01 4.38388E-25
7.57519E-01 4.27857E-25
7.61249E-01 4.17573E-25
7.64960E-01 4.07529E-25
7.68650E-01 3.97718E-25
7.72320E-01 3.88135E-25
7.75968E-01 3.78774E-25
7.79596E-01 3.69630E-25
7.83203E-01 3.60696E-25
7.86788E-01 3.51969E-25
7.90351E-01 3.43441E-25
7.93893E-01 3.35109E-25
7.97411E-01 3.26968E-25
8.00908E-01 3.19013E-25
8.04381E-01 3.11239E-25
8.07831E-01 3.03642E-25
8.11257E-01 2.96218E-25
8.14660E-01 2.88962E-25
8.18039E-01 2.81871E-25
8.21394E-01 2.74940E-25
8.24724E-01 2.68167E-25
8.28030E-01 2.61546E-25
8.31310E-01 2.55074E-25
8.34565E-01 2.48749E-25
8.37795E-01 2.42565E-25
8.40999E-01 2.36521E-25
8.44177E-01 2.30613E-25
8.47329E-01 2.24838E-25
8.50455E-01 2.19193E-25
8.53553E-01 2.13674E-25
8.56625E-01 2.08279E-25
8.59670E-01 2.03006E-25
8.62687E-01 1.97850E-25
8.65677E-01 1.92811E-25
8.68639E-01 1.87885E-25
8.71572E-01 1.83070E-25
8.74478E-01 1.78363E-25
8.77355E-01 1.73762E-25
8.80203E-01 1.69265E-25
8.83022E-01 1.64869E-25
8.85812E-01 1.60572E-25
8.88573E-01 1.56373E-25
8.91304E-01 1.52268E-25
8.94005E-01 1.48257E-25
8.96677E-01 1.44337E-25
8.99318E-01 1.40506E-25
9.01928E-01 1.36763E-25
9.04508E-01 1.33106E-25
9.07058E-01 1.29532E-25
9.09576E-01 1.26041E-25
9.12063E-01 1.22630E-25
9.14519E-01 1.19299E-25
9.16943E-01 1.16045E-25
9.19335E-01 1.12867E-25
9.21696E-01 1.09763E-25
9.24024E-01 1.06733E-25
9.26320E-01 1.03774E-25
9.28584E-01 1.00885E-25
9.30815E-01 9.80659E-26
9.33013E-01 9.53143E-26
9.35178E-01 9.26293E-26
9.37310E-01 9.00095E-26
9.39409E-01 8.74540E-26
9.41474E-01 8.49615E-26
9.43505E-01 8.25309E-26
9.45503E-01 8.01611E-26
9.47467E-01 7.78512E-26
9.49397E-01 7.56001E-26
9.51293E-01 7.34068E-26
9.53154E-01 7.12704E-26
9.54981E-01 6.91899E-26
9.56773E-01 6.71645E-26
9.58530E-01 6.51933E-26
9.60252E-01 6.32753E-26
9.61940E-01 6.14099E-26
9.63592E-01 5.95962E-26
9.65209E-01 5.78335E-26
9.66790E-01 5.61209E-26
9.68336E-01 5.44579E-26
9.69846E-01 5.28436E-26
9.71321E-01 5.12774E-26
9.72759E-01 4.97586E-26
9.74162E-01 4.82866E-26
9.75528E-01 4.68609E-26
9.76858E-01 4.54807E-26
9.78152E-01 4.41456E-26
9.79410E-01 4.28549E-26
9.80631E-01 4.16082E-26
9.81815E-01 4.04049E-26
9.82963E-01 3.92446E-26
9.84074E-01 3.81267E-26
9.85148E-01 3.70508E-26
9.86185E-01 3.60165E-26
9.87185E-01 3.50234E-26
9.88148E-01 3.40709E-26
9.89074E-01 3.31589E-26
9.89962E-01 3.22868E-26
9.90814E-01 3.14544E-26
9.91627E-01 3.06612E-26
9.92404E-01 2.99071E-26
9.93143E-01 2.91916E-26
9.93844E-01 2.85145E-26
9.94508E-01 2.78756E-26
9.95134E-01 2.72744E-26
9.95722E-01 2.67110E-26
9.96273E-01 2.61849E-26
9.96786E-01 2.56960E-26
9.97261E-01 2.52440E-26
9.97698E-01 2.48289E-26
9.98097E-01 2.44505E-26
9.98459E-01 2.41085E-26
9.98782E-01 2.38029E-26
9.99067E-01 2.35336E-26
9.99315E-01 2.33003E-26
9.99524E-01 2.31031E-26
9.99695E-01 2.29419E-26
9.99829E-01 2.28165E-26
9.99924E-01 2.27271E-26
9.99981E-01 2.26734E-26
1.00000E+00 2.26555E-26
