 #
 # Subroutine ELSEPA. Elastic scattering of electrons and positrons
 #                    by neutral atoms and positive ions
 #
 # Projectile: positron
 # Kinetic energy = 1.00000E+09 eV = 3.67493E+07 a.u.
 #
 # WARNING: High-energy factorization with free-atom DF screening.
 #          Absorption, polarization and exchange corrections are
 #          switched off.
 #          Phase shifts are calculated for the bare nucleus.
 #          Scattering amplitudes are not evaluated.
 #
 # Element: Ta,  Z =  73,  atomic weight = 1.80948E+02 g/mol
 #
 # Nuclear model: Fermi distribution
 #                Average radius = 6.05204E-13 cm
 #                Skin thickness = 5.46000E-14 cm
 #
 # Number of electrons = 73
 #
 # Total elastic cross section = 7.36749E-18 cm**2 = 2.63098E-01 a0**2
 # 1st transport cross section = 1.00398E-26 cm**2 = 3.58527E-10 a0**2
 # 2nd transport cross section = 3.01163E-26 cm**2 = 1.07547E-09 a0**2
 #
 #
 # Differential cross section:                       MU=(1-COS(THETA))/2
 #
 #  THETA        MU          DCS          DCS        Sherman      error
 #  (deg)                 (cm**2/sr)   (a0**2/sr)    function
 #----------------------------------------------------------------------
0.00000E+00 6.00833E-08
7.61557E-13 4.63203E-08
1.18994E-12 4.07849E-08
1.71346E-12 3.54404E-08
2.33225E-12 3.05613E-08
3.04617E-12 2.62807E-08
3.85530E-12 2.26168E-08
4.75964E-12 1.95259E-08
5.75917E-12 1.69367E-08
6.85391E-12 1.47691E-08
8.04379E-12 1.29511E-08
9.32893E-12 1.14197E-08
1.07092E-11 1.01218E-08
1.21847E-11 9.01417E-09
1.37554E-11 8.06224E-09
1.54213E-11 7.23695E-09
1.71823E-11 6.51852E-09
1.90386E-11 5.88949E-09
2.09900E-11 5.33596E-09
2.30367E-11 4.84394E-09
2.51785E-11 4.37540E-09
2.74156E-11 3.97566E-09
2.97478E-11 3.63258E-09
3.21752E-11 3.33645E-09
3.46979E-11 3.07945E-09
3.73157E-11 2.82906E-09
4.00286E-11 2.59308E-09
4.28368E-11 2.38689E-09
4.57402E-11 2.20593E-09
4.87388E-11 2.04641E-09
5.18325E-11 1.90322E-09
5.50215E-11 1.75790E-09
5.83057E-11 1.62903E-09
6.16850E-11 1.51435E-09
6.51595E-11 1.41195E-09
6.87293E-11 1.32020E-09
7.23943E-11 1.23157E-09
7.61544E-11 1.14818E-09
1.18991E-10 6.16675E-10
1.71347E-10 3.57266E-10
2.33223E-10 2.18541E-10
3.04617E-10 1.40010E-10
3.85531E-10 9.34303E-11
4.75965E-10 6.46890E-11
5.75917E-10 4.63088E-11
6.85389E-10 3.40532E-11
8.04380E-10 2.56788E-11
9.32891E-10 1.97748E-11
1.07092E-09 1.54910E-11
1.21847E-09 1.23101E-11
1.37554E-09 9.90610E-12
1.54213E-09 8.06139E-12
1.71823E-09 6.62736E-12
1.90386E-09 5.49769E-12
2.09900E-09 4.59752E-12
2.30367E-09 3.87309E-12
2.51785E-09 3.28300E-12
2.74156E-09 2.80518E-12
2.97478E-09 2.40826E-12
3.21752E-09 2.08066E-12
3.46978E-09 1.80603E-12
3.73156E-09 1.57551E-12
4.00286E-09 1.38064E-12
4.28368E-09 1.21482E-12
4.57402E-09 1.07345E-12
4.87388E-09 9.51692E-13
5.18326E-09 8.47105E-13
5.50215E-09 7.56121E-13
5.83057E-09 6.77350E-13
6.16850E-09 6.08330E-13
6.51596E-09 5.48048E-13
6.87293E-09 4.94966E-13
7.23942E-09 4.48208E-13
7.61544E-09 4.06839E-13
1.18991E-08 1.72624E-13
1.71347E-08 8.52836E-14
2.33223E-08 4.68266E-14
3.04617E-08 2.77860E-14
3.85531E-08 1.75041E-14
4.75965E-08 1.15638E-14
5.75917E-08 7.94165E-15
6.85389E-08 5.63266E-15
8.04380E-08 4.10507E-15
9.32891E-08 3.06205E-15
1.07092E-07 2.33030E-15
1.21847E-07 1.80470E-15
1.37554E-07 1.41931E-15
1.54213E-07 1.13154E-15
1.71823E-07 9.13155E-16
1.90386E-07 7.45005E-16
2.09900E-07 6.13838E-16
2.30367E-07 5.10305E-16
2.51785E-07 4.27708E-16
2.74156E-07 3.61161E-16
2.97478E-07 3.07065E-16
3.21752E-07 2.62726E-16
3.46978E-07 2.26107E-16
3.73156E-07 1.95649E-16
4.00286E-07 1.70149E-16
4.28368E-07 1.48670E-16
4.57402E-07 1.30474E-16
4.87388E-07 1.14978E-16
5.18325E-07 1.01714E-16
5.50215E-07 9.03083E-17
5.83057E-07 8.04567E-17
6.16850E-07 7.19120E-17
6.51596E-07 6.44715E-17
6.87293E-07 5.79685E-17
7.23942E-07 5.22648E-17
7.61543E-07 4.72454E-17
1.18991E-06 1.93925E-17
1.71347E-06 9.36245E-18
2.33223E-06 5.05668E-18
3.04617E-06 2.96511E-18
3.85531E-06 1.85141E-18
4.75964E-06 1.21479E-18
5.75916E-06 8.29718E-19
6.85388E-06 5.85810E-19
8.04378E-06 4.25280E-19
9.32888E-06 3.16150E-19
1.07092E-05 2.39877E-19
1.21846E-05 1.85276E-19
1.37553E-05 1.45360E-19
1.54212E-05 1.15635E-19
1.71822E-05 9.31320E-20
1.90385E-05 7.58052E-20
2.09899E-05 6.23955E-20
2.30365E-05 5.18153E-20
2.51783E-05 4.33737E-20
2.74153E-05 3.65725E-20
2.97475E-05 3.10479E-20
3.21749E-05 2.65274E-20
3.46974E-05 2.28024E-20
3.73152E-05 1.97112E-20
4.00281E-05 1.71285E-20
4.28362E-05 1.49560E-20
4.57395E-05 1.31170E-20
4.87380E-05 1.15514E-20
5.18317E-05 1.02117E-20
5.50205E-05 9.06008E-21
5.83045E-05 8.06602E-21
6.16838E-05 7.20462E-21
6.51582E-05 6.45537E-21
6.87277E-05 5.80121E-21
7.23925E-05 5.22797E-21
7.61524E-05 4.77195E-21
9.21439E-05 3.24318E-21
1.09658E-04 2.27490E-21
1.28695E-04 1.63839E-21
1.49255E-04 1.20627E-21
1.71338E-04 9.05081E-22
1.94942E-04 6.90164E-22
2.20070E-04 5.33724E-22
2.46720E-04 4.17837E-22
2.74892E-04 3.30647E-22
3.04586E-04 2.64150E-22
3.35803E-04 2.12810E-22
3.68542E-04 1.72740E-22
4.02802E-04 1.41157E-22
4.38585E-04 1.16043E-22
4.75889E-04 9.59137E-23
5.14715E-04 7.96617E-23
5.55063E-04 6.64539E-23
5.96931E-04 5.56556E-23
6.40321E-04 4.67788E-23
6.85233E-04 3.94450E-23
7.31665E-04 3.33584E-23
7.79618E-04 2.82856E-23
8.29092E-04 2.40416E-23
8.80086E-04 2.04785E-23
9.32601E-04 1.74774E-23
9.86636E-04 1.49422E-23
1.04219E-03 1.27948E-23
1.09927E-03 1.09714E-23
1.15786E-03 9.41958E-24
1.21797E-03 8.09625E-24
1.27961E-03 6.96563E-24
1.34276E-03 5.99800E-24
1.40743E-03 5.16863E-24
1.47362E-03 4.45675E-24
1.54133E-03 3.84498E-24
1.61056E-03 3.31866E-24
1.68131E-03 2.86542E-24
1.75357E-03 2.47478E-24
1.82735E-03 2.13784E-24
1.90265E-03 1.84704E-24
1.97947E-03 1.59593E-24
2.05780E-03 1.37901E-24
2.13765E-03 1.19156E-24
2.21902E-03 1.02954E-24
2.30190E-03 8.89472E-25
2.38630E-03 7.68378E-25
2.47222E-03 6.63691E-25
2.55965E-03 5.73192E-25
2.64859E-03 4.94972E-25
2.73905E-03 4.27380E-25
2.83103E-03 3.68986E-25
2.92452E-03 3.18557E-25
3.01952E-03 2.75023E-25
3.11604E-03 2.37457E-25
3.21407E-03 2.05055E-25
3.31362E-03 1.77122E-25
3.41468E-03 1.53055E-25
3.51725E-03 1.32328E-25
3.62133E-03 1.14487E-25
3.72692E-03 9.91396E-26
3.83403E-03 8.59428E-26
3.94265E-03 7.46006E-26
4.05278E-03 6.48560E-26
4.16442E-03 5.64869E-26
4.27757E-03 4.93004E-26
4.39223E-03 4.31300E-26
4.50840E-03 3.78314E-26
4.62608E-03 3.32802E-26
4.74527E-03 2.93689E-26
4.86597E-03 2.60050E-26
4.98817E-03 2.31087E-26
5.11188E-03 2.06113E-26
5.23711E-03 1.84539E-26
5.36383E-03 1.65861E-26
5.49207E-03 1.49646E-26
5.62181E-03 1.35525E-26
5.75306E-03 1.23182E-26
5.88581E-03 1.12349E-26
6.02007E-03 1.02799E-26
6.15583E-03 9.43371E-27
6.29310E-03 8.68017E-27
6.43187E-03 8.00543E-27
6.57214E-03 7.39792E-27
6.71392E-03 6.84790E-27
6.85720E-03 6.34724E-27
7.00198E-03 5.88915E-27
7.14827E-03 5.46796E-27
7.29605E-03 5.07897E-27
7.44534E-03 4.71829E-27
7.59612E-03 4.38268E-27
7.97965E-03 3.63699E-27
8.37255E-03 3.00199E-27
8.77480E-03 2.45835E-27
9.18641E-03 1.99336E-27
9.60736E-03 1.59791E-27
1.00376E-02 1.26471E-27
1.04773E-02 9.87337E-28
1.09262E-02 7.59676E-28
1.13844E-02 5.75771E-28
1.18520E-02 4.29796E-28
1.23288E-02 3.16130E-28
1.28150E-02 2.29462E-28
1.33104E-02 1.64888E-28
1.38150E-02 1.17993E-28
1.43290E-02 8.48987E-29
1.48521E-02 6.22850E-29
1.53845E-02 4.73816E-29
1.59262E-02 3.79399E-29
1.64770E-02 3.21881E-29
1.70371E-02 2.87756E-29
1.76063E-02 2.67122E-29
1.81848E-02 2.53067E-29
1.87724E-02 2.41072E-29
1.93692E-02 2.28471E-29
1.99751E-02 2.13960E-29
2.05901E-02 1.97196E-29
2.12143E-02 1.78453E-29
2.18476E-02 1.58358E-29
2.24900E-02 1.37692E-29
2.31415E-02 1.17243E-29
2.38021E-02 9.77172E-30
2.44717E-02 7.96790E-30
2.51504E-02 6.35304E-30
2.58382E-02 4.95086E-30
2.65349E-02 3.77000E-30
2.72407E-02 2.80638E-30
2.79555E-02 2.04602E-30
2.86793E-02 1.46796E-30
2.94120E-02 1.04701E-30
3.01537E-02 7.56138E-31
3.09043E-02 5.68495E-31
3.16639E-02 4.58886E-31
3.24324E-02 4.04832E-31
3.32098E-02 3.87203E-31
3.39961E-02 3.90477E-31
3.47912E-02 4.02718E-31
3.55952E-02 4.15338E-31
3.64081E-02 4.22705E-31
3.72297E-02 4.21670E-31
3.80602E-02 4.11053E-31
3.88995E-02 3.91143E-31
3.97476E-02 3.63237E-31
4.06044E-02 3.29226E-31
4.14700E-02 2.91267E-31
4.23443E-02 2.51515E-31
4.32273E-02 2.11940E-31
4.41190E-02 1.74194E-31
4.50194E-02 1.39556E-31
4.59284E-02 1.08904E-31
4.68461E-02 8.27350E-32
4.87074E-02 4.41931E-32
5.06030E-02 2.21973E-32
5.25328E-02 1.25717E-32
5.44967E-02 1.05174E-32
5.64946E-02 1.18710E-32
5.85262E-02 1.37240E-32
6.05914E-02 1.45160E-32
6.26901E-02 1.37890E-32
6.48222E-02 1.17979E-32
6.69873E-02 9.12203E-33
6.91854E-02 6.36741E-33
7.14163E-02 3.98953E-33
7.36799E-02 2.22830E-33
7.59760E-02 1.12373E-33
7.83043E-02 5.75608E-34
8.06647E-02 4.14774E-34
8.30571E-02 4.64352E-34
8.54812E-02 5.80145E-34
8.79369E-02 6.68678E-34
9.04240E-02 6.87169E-34
9.29422E-02 6.32285E-34
9.54915E-02 5.24458E-34
9.80716E-02 3.93007E-34
1.00682E-01 2.65094E-34
1.03323E-01 1.59549E-34
1.05995E-01 8.50761E-35
1.08696E-01 4.15852E-35
1.11427E-01 2.31231E-35
1.14188E-01 2.11331E-35
1.16978E-01 2.71575E-35
1.19797E-01 3.45679E-35
1.22645E-01 3.92802E-35
1.25522E-01 3.96626E-35
1.28428E-01 3.59440E-35
1.31361E-01 2.94356E-35
1.34323E-01 2.18021E-35
1.37313E-01 1.45263E-35
1.40330E-01 8.61188E-36
1.43375E-01 4.50559E-36
1.46447E-01 2.17489E-36
1.49545E-01 1.26783E-36
1.52671E-01 1.28994E-36
1.55823E-01 1.75270E-36
1.59001E-01 2.27030E-36
1.62205E-01 2.60231E-36
1.65435E-01 2.65066E-36
1.68690E-01 2.42847E-36
1.71970E-01 2.01588E-36
1.75276E-01 1.51783E-36
1.78606E-01 1.03105E-36
1.81961E-01 6.24604E-37
1.85340E-01 3.33149E-37
1.88743E-01 1.60097E-37
1.92169E-01 8.64584E-38
1.95619E-01 8.16507E-38
1.99092E-01 1.13215E-37
2.02589E-01 1.53746E-37
2.06107E-01 1.84553E-37
2.09649E-01 1.96343E-37
2.13212E-01 1.87802E-37
2.16797E-01 1.63067E-37
2.20404E-01 1.28970E-37
2.24032E-01 9.26358E-38
2.27680E-01 5.98599E-38
2.31350E-01 1.00000E-45
2.35040E-01 1.00000E-45
2.38751E-01 1.00000E-45
2.42481E-01 1.00000E-45
2.46231E-01 1.00000E-45
2.50000E-01 1.00000E-45
2.53788E-01 1.00000E-45
2.57595E-01 1.00000E-45
2.61421E-01 1.00000E-45
2.65264E-01 1.00000E-45
2.69126E-01 1.00000E-45
2.73005E-01 1.00000E-45
2.76901E-01 1.00000E-45
2.80814E-01 1.00000E-45
2.84744E-01 1.00000E-45
2.88691E-01 1.00000E-45
2.92653E-01 1.00000E-45
2.96632E-01 1.00000E-45
3.00625E-01 1.00000E-45
3.04634E-01 1.00000E-45
3.08658E-01 1.00000E-45
3.12697E-01 1.00000E-45
3.16749E-01 1.00000E-45
3.20816E-01 1.00000E-45
3.24896E-01 1.00000E-45
3.28990E-01 1.00000E-45
3.33097E-01 1.00000E-45
3.37216E-01 1.00000E-45
3.41348E-01 1.00000E-45
3.45492E-01 1.00000E-45
3.49647E-01 1.00000E-45
3.53814E-01 1.00000E-45
3.57992E-01 1.00000E-45
3.62181E-01 1.00000E-45
3.66381E-01 1.00000E-45
3.70590E-01 1.00000E-45
3.74810E-01 1.00000E-45
3.79039E-01 1.00000E-45
3.83277E-01 1.00000E-45
3.87524E-01 1.00000E-45
3.91780E-01 1.00000E-45
3.96044E-01 1.00000E-45
4.00316E-01 1.00000E-45
4.04596E-01 1.00000E-45
4.08882E-01 1.00000E-45
4.13176E-01 1.00000E-45
4.17476E-01 1.00000E-45
4.21783E-01 1.00000E-45
4.26095E-01 1.00000E-45
4.30413E-01 1.00000E-45
4.34737E-01 1.00000E-45
4.39065E-01 1.00000E-45
4.43398E-01 1.00000E-45
4.47736E-01 1.00000E-45
4.52077E-01 1.00000E-45
4.56422E-01 1.00000E-45
4.60770E-01 1.00000E-45
4.65122E-01 1.00000E-45
4.69476E-01 1.00000E-45
4.73832E-01 1.00000E-45
4.78190E-01 1.00000E-45
4.82550E-01 1.00000E-45
4.86912E-01 1.00000E-45
4.91274E-01 1.00000E-45
4.95637E-01 1.00000E-45
5.00000E-01 1.00000E-45
5.04363E-01 1.00000E-45
5.08726E-01 1.00000E-45
5.13088E-01 1.00000E-45
5.17450E-01 1.00000E-45
5.21810E-01 1.00000E-45
5.26168E-01 1.00000E-45
5.30524E-01 1.00000E-45
5.34878E-01 1.00000E-45
5.39230E-01 1.00000E-45
5.43578E-01 1.00000E-45
5.47923E-01 1.00000E-45
5.52264E-01 1.00000E-45
5.56602E-01 1.00000E-45
5.60935E-01 1.00000E-45
5.65263E-01 1.00000E-45
5.69587E-01 1.00000E-45
5.73905E-01 1.00000E-45
5.78217E-01 1.00000E-45
5.82524E-01 1.00000E-45
5.86824E-01 1.00000E-45
5.91118E-01 1.00000E-45
5.95404E-01 1.00000E-45
5.99684E-01 1.00000E-45
6.03956E-01 1.00000E-45
6.08220E-01 1.00000E-45
6.12476E-01 1.00000E-45
6.16723E-01 1.00000E-45
6.20961E-01 1.00000E-45
6.25190E-01 1.00000E-45
6.29410E-01 1.00000E-45
6.33619E-01 1.00000E-45
6.37819E-01 1.00000E-45
6.42008E-01 1.00000E-45
6.46186E-01 1.00000E-45
6.50353E-01 1.00000E-45
6.54508E-01 1.00000E-45
6.58652E-01 1.00000E-45
6.62784E-01 1.00000E-45
6.66903E-01 1.00000E-45
6.71010E-01 1.00000E-45
6.75104E-01 1.00000E-45
6.79184E-01 1.00000E-45
6.83251E-01 1.00000E-45
6.87303E-01 1.00000E-45
6.91342E-01 1.00000E-45
6.95366E-01 1.00000E-45
6.99375E-01 1.00000E-45
7.03368E-01 1.00000E-45
7.07347E-01 1.00000E-45
7.11309E-01 1.00000E-45
7.15256E-01 1.00000E-45
7.19186E-01 1.00000E-45
7.23099E-01 1.00000E-45
7.26995E-01 1.00000E-45
7.30874E-01 1.00000E-45
7.34736E-01 1.00000E-45
7.38579E-01 1.00000E-45
7.42405E-01 1.00000E-45
7.46212E-01 1.00000E-45
7.50000E-01 1.00000E-45
7.53769E-01 1.00000E-45
7.57519E-01 1.00000E-45
7.61249E-01 1.00000E-45
7.64960E-01 1.00000E-45
7.68650E-01 1.00000E-45
7.72320E-01 1.00000E-45
7.75968E-01 1.00000E-45
7.79596E-01 1.00000E-45
7.83203E-01 1.00000E-45
7.86788E-01 1.00000E-45
7.90351E-01 1.00000E-45
7.93893E-01 1.00000E-45
7.97411E-01 1.00000E-45
8.00908E-01 1.00000E-45
8.04381E-01 1.00000E-45
8.07831E-01 1.00000E-45
8.11257E-01 1.00000E-45
8.14660E-01 1.00000E-45
8.18039E-01 1.00000E-45
8.21394E-01 1.00000E-45
8.24724E-01 1.00000E-45
8.28030E-01 1.00000E-45
8.31310E-01 1.00000E-45
8.34565E-01 1.00000E-45
8.37795E-01 1.00000E-45
8.40999E-01 1.00000E-45
8.44177E-01 1.00000E-45
8.47329E-01 1.00000E-45
8.50455E-01 1.00000E-45
8.53553E-01 1.00000E-45
8.56625E-01 1.00000E-45
8.59670E-01 1.00000E-45
8.62687E-01 1.00000E-45
8.65677E-01 1.00000E-45
8.68639E-01 1.00000E-45
8.71572E-01 1.00000E-45
8.74478E-01 1.00000E-45
8.77355E-01 1.00000E-45
8.80203E-01 1.00000E-45
8.83022E-01 1.00000E-45
8.85812E-01 1.00000E-45
8.88573E-01 1.00000E-45
8.91304E-01 1.00000E-45
8.94005E-01 1.00000E-45
8.96677E-01 1.00000E-45
8.99318E-01 1.00000E-45
9.01928E-01 1.00000E-45
9.04508E-01 1.00000E-45
9.07058E-01 1.00000E-45
9.09576E-01 1.00000E-45
9.12063E-01 1.00000E-45
9.14519E-01 1.00000E-45
9.16943E-01 1.00000E-45
9.19335E-01 1.00000E-45
9.21696E-01 1.00000E-45
9.24024E-01 1.00000E-45
9.26320E-01 1.00000E-45
9.28584E-01 1.00000E-45
9.30815E-01 1.00000E-45
9.33013E-01 1.00000E-45
9.35178E-01 1.00000E-45
9.37310E-01 1.00000E-45
9.39409E-01 1.00000E-45
9.41474E-01 1.00000E-45
9.43505E-01 1.00000E-45
9.45503E-01 1.00000E-45
9.47467E-01 1.00000E-45
9.49397E-01 1.00000E-45
9.51293E-01 1.00000E-45
9.53154E-01 1.00000E-45
9.54981E-01 1.00000E-45
9.56773E-01 1.00000E-45
9.58530E-01 1.00000E-45
9.60252E-01 1.00000E-45
9.61940E-01 1.00000E-45
9.63592E-01 1.00000E-45
9.65209E-01 1.00000E-45
9.66790E-01 1.00000E-45
9.68336E-01 1.00000E-45
9.69846E-01 1.00000E-45
9.71321E-01 1.00000E-45
9.72759E-01 1.00000E-45
9.74162E-01 1.00000E-45
9.75528E-01 1.00000E-45
9.76858E-01 1.00000E-45
9.78152E-01 1.00000E-45
9.79410E-01 1.00000E-45
9.80631E-01 1.00000E-45
9.81815E-01 1.00000E-45
9.82963E-01 1.00000E-45
9.84074E-01 1.00000E-45
9.85148E-01 1.00000E-45
9.86185E-01 1.00000E-45
9.87185E-01 1.00000E-45
9.88148E-01 1.00000E-45
9.89074E-01 1.00000E-45
9.89962E-01 1.00000E-45
9.90814E-01 1.00000E-45
9.91627E-01 1.00000E-45
9.92404E-01 1.00000E-45
9.93143E-01 1.00000E-45
9.93844E-01 1.00000E-45
9.94508E-01 1.00000E-45
9.95134E-01 1.00000E-45
9.95722E-01 1.00000E-45
9.96273E-01 1.00000E-45
9.96786E-01 1.00000E-45
9.97261E-01 1.00000E-45
9.97698E-01 1.00000E-45
9.98097E-01 1.00000E-45
9.98459E-01 1.00000E-45
9.98782E-01 1.00000E-45
9.99067E-01 1.00000E-45
9.99315E-01 1.00000E-45
9.99524E-01 1.00000E-45
9.99695E-01 1.00000E-45
9.99829E-01 1.00000E-45
9.99924E-01 1.00000E-45
9.99981E-01 1.00000E-45
1.00000E+00 1.00000E-45
