 #
 # Subroutine ELSEPA. Elastic scattering of electrons and positrons
 #                    by neutral atoms and positive ions
 #
 # Projectile: positron
 # Kinetic energy = 6.00000E+07 eV = 2.20496E+06 a.u.
 #
 # WARNING: High-energy factorization with free-atom DF screening.
 #          Absorption, polarization and exchange corrections are
 #          switched off.
 #          Phase shifts are calculated for the bare nucleus.
 #          Scattering amplitudes are not evaluated.
 #
 # Element: Sn,  Z =  50,  atomic weight = 1.18710E+02 g/mol
 #
 # Nuclear model: Fermi distribution
 #                Average radius = 5.25871E-13 cm
 #                Skin thickness = 5.46000E-14 cm
 #
 # Number of electrons = 50
 #
 # Total elastic cross section = 5.08371E-18 cm**2 = 1.81543E-01 a0**2
 # 1st transport cross section = 1.26747E-24 cm**2 = 4.52622E-08 a0**2
 # 2nd transport cross section = 3.73340E-24 cm**2 = 1.33322E-07 a0**2
 #
 #
 # Differential cross section:                       MU=(1-COS(THETA))/2
 #
 #  THETA        MU          DCS          DCS        Sherman      error
 #  (deg)                 (cm**2/sr)   (a0**2/sr)    function
 #----------------------------------------------------------------------
0.00000E+00 1.63315E-10
7.61557E-13 1.63156E-10
1.18994E-12 1.63066E-10
1.71346E-12 1.62958E-10
2.33225E-12 1.62829E-10
3.04617E-12 1.62681E-10
3.85530E-12 1.62514E-10
4.75964E-12 1.62327E-10
5.75917E-12 1.62122E-10
6.85391E-12 1.61897E-10
8.04379E-12 1.61653E-10
9.32893E-12 1.61390E-10
1.07092E-11 1.61109E-10
1.21847E-11 1.60809E-10
1.37554E-11 1.60492E-10
1.54213E-11 1.60155E-10
1.71823E-11 1.59801E-10
1.90386E-11 1.59430E-10
2.09900E-11 1.59040E-10
2.30367E-11 1.58634E-10
2.51785E-11 1.58210E-10
2.74156E-11 1.57770E-10
2.97478E-11 1.57313E-10
3.21752E-11 1.56840E-10
3.46979E-11 1.56351E-10
3.73157E-11 1.55846E-10
4.00286E-11 1.55325E-10
4.28368E-11 1.54790E-10
4.57402E-11 1.54239E-10
4.87388E-11 1.53674E-10
5.18325E-11 1.53094E-10
5.50215E-11 1.52501E-10
5.83057E-11 1.51893E-10
6.16850E-11 1.51273E-10
6.51595E-11 1.50635E-10
6.87293E-11 1.49984E-10
7.23943E-11 1.49322E-10
7.61544E-11 1.48649E-10
1.18991E-10 1.41344E-10
1.71347E-10 1.33207E-10
2.33223E-10 1.24569E-10
3.04617E-10 1.15731E-10
3.85531E-10 1.06945E-10
4.75965E-10 9.84050E-11
5.75917E-10 9.02476E-11
6.85389E-10 8.25850E-11
8.04380E-10 7.54718E-11
9.32891E-10 6.89293E-11
1.07092E-09 6.29544E-11
1.21847E-09 5.75267E-11
1.37554E-09 5.26146E-11
1.54213E-09 4.81805E-11
1.71823E-09 4.41838E-11
1.90386E-09 4.05804E-11
2.09900E-09 3.73321E-11
2.30367E-09 3.44044E-11
2.51785E-09 3.17628E-11
2.74156E-09 2.93758E-11
2.97478E-09 2.72152E-11
3.21752E-09 2.52556E-11
3.46978E-09 2.34747E-11
3.73156E-09 2.18528E-11
4.00286E-09 2.03725E-11
4.28368E-09 1.90163E-11
4.57402E-09 1.77728E-11
4.87388E-09 1.66306E-11
5.18326E-09 1.55793E-11
5.50215E-09 1.46099E-11
5.83057E-09 1.37143E-11
6.16850E-09 1.28855E-11
6.51596E-09 1.20675E-11
6.87293E-09 1.13053E-11
7.23942E-09 1.06145E-11
7.61544E-09 9.98694E-12
1.18991E-08 5.71527E-12
1.71347E-08 3.43011E-12
2.33223E-08 2.14815E-12
3.04617E-08 1.40410E-12
3.85531E-08 9.57153E-13
4.75965E-08 6.78172E-13
5.75917E-08 4.96819E-13
6.85389E-08 3.74330E-13
8.04380E-08 2.88496E-13
9.32891E-08 2.26404E-13
1.07092E-07 1.80283E-13
1.21847E-07 1.45283E-13
1.37554E-07 1.18261E-13
1.54213E-07 9.71323E-14
1.71823E-07 8.03637E-14
1.90386E-07 6.69600E-14
2.09900E-07 5.61758E-14
2.30367E-07 4.74420E-14
2.51785E-07 4.03163E-14
2.74156E-07 3.44619E-14
2.97478E-07 2.96208E-14
3.21752E-07 2.55940E-14
3.46978E-07 2.22264E-14
3.73156E-07 1.93954E-14
4.00286E-07 1.70036E-14
4.28368E-07 1.49720E-14
4.57402E-07 1.32378E-14
4.87388E-07 1.17500E-14
5.18325E-07 1.04673E-14
5.50215E-07 9.35635E-15
5.83057E-07 8.39007E-15
6.16850E-07 7.54637E-15
6.51596E-07 6.80484E-15
6.87293E-07 6.15364E-15
7.23942E-07 5.58093E-15
7.61543E-07 5.07490E-15
1.18991E-06 2.17850E-15
1.71347E-06 1.08260E-15
2.33223E-06 5.95649E-16
3.04617E-06 3.53651E-16
3.85531E-06 2.22810E-16
4.75964E-06 1.47228E-16
5.75916E-06 1.01148E-16
6.85388E-06 7.17735E-17
8.04378E-06 5.23345E-17
9.32888E-06 3.90567E-17
1.07092E-05 2.97373E-17
1.21846E-05 2.30400E-17
1.37553E-05 1.81265E-17
1.54212E-05 1.44557E-17
1.71822E-05 1.16686E-17
1.90385E-05 9.51924E-18
2.09899E-05 7.84705E-18
2.30365E-05 6.52565E-18
2.51783E-05 5.47005E-18
2.74153E-05 4.61869E-18
2.97475E-05 3.92621E-18
3.21749E-05 3.35862E-18
3.46974E-05 2.89004E-18
3.73152E-05 2.50053E-18
4.00281E-05 2.17457E-18
4.28362E-05 1.90005E-18
4.57395E-05 1.66747E-18
4.87380E-05 1.46933E-18
5.18317E-05 1.29966E-18
5.50205E-05 1.15372E-18
5.83045E-05 1.02765E-18
6.16838E-05 9.18332E-19
6.51582E-05 8.23172E-19
6.87277E-05 7.40035E-19
7.23925E-05 6.67138E-19
7.61524E-05 6.03054E-19
9.21439E-05 4.12059E-19
1.09658E-04 2.90969E-19
1.28695E-04 2.11251E-19
1.49255E-04 1.57025E-19
1.71338E-04 1.19127E-19
1.94942E-04 9.19912E-20
2.20070E-04 7.21538E-20
2.46720E-04 5.73825E-20
2.74892E-04 4.62006E-20
3.04586E-04 3.76125E-20
3.35803E-04 3.09278E-20
3.68542E-04 2.56629E-20
4.02802E-04 2.14708E-20
4.38585E-04 1.80997E-20
4.75889E-04 1.53643E-20
5.14715E-04 1.31258E-20
5.55063E-04 1.12801E-20
5.96931E-04 9.74721E-21
6.40321E-04 8.46569E-21
6.85233E-04 7.38769E-21
7.31665E-04 6.47567E-21
7.79618E-04 5.69992E-21
8.29092E-04 5.03670E-21
8.80086E-04 4.46705E-21
9.32601E-04 3.97554E-21
9.86636E-04 3.54967E-21
1.04219E-03 3.17923E-21
1.09927E-03 2.85577E-21
1.15786E-03 2.57233E-21
1.21797E-03 2.32312E-21
1.27961E-03 2.10331E-21
1.34276E-03 1.90882E-21
1.40743E-03 1.73626E-21
1.47362E-03 1.58271E-21
1.54133E-03 1.44572E-21
1.61056E-03 1.32320E-21
1.68131E-03 1.21335E-21
1.75357E-03 1.11463E-21
1.82735E-03 1.02573E-21
1.90265E-03 9.45485E-22
1.97947E-03 8.72914E-22
2.05780E-03 8.07155E-22
2.13765E-03 7.47450E-22
2.21902E-03 6.93149E-22
2.30190E-03 6.43675E-22
2.38630E-03 5.98520E-22
2.47222E-03 5.57244E-22
2.55965E-03 5.19452E-22
2.64859E-03 4.84797E-22
2.73905E-03 4.52978E-22
2.83103E-03 4.23711E-22
2.92452E-03 3.96767E-22
3.01952E-03 3.71918E-22
3.11604E-03 3.48978E-22
3.21407E-03 3.27772E-22
3.31362E-03 3.08145E-22
3.41468E-03 2.89960E-22
3.51725E-03 2.73091E-22
3.62133E-03 2.57425E-22
3.72692E-03 2.42861E-22
3.83403E-03 2.29308E-22
3.94265E-03 2.16683E-22
4.05278E-03 2.04911E-22
4.16442E-03 1.93923E-22
4.27757E-03 1.83658E-22
4.39223E-03 1.74060E-22
4.50840E-03 1.65078E-22
4.62608E-03 1.56665E-22
4.74527E-03 1.48778E-22
4.86597E-03 1.41378E-22
4.98817E-03 1.34430E-22
5.11188E-03 1.27901E-22
5.23711E-03 1.21762E-22
5.36383E-03 1.15984E-22
5.49207E-03 1.10543E-22
5.62181E-03 1.05415E-22
5.75306E-03 1.00579E-22
5.88581E-03 9.60153E-23
6.02007E-03 9.17061E-23
6.15583E-03 8.76342E-23
6.29310E-03 8.37844E-23
6.43187E-03 8.01423E-23
6.57214E-03 7.66945E-23
6.71392E-03 7.34289E-23
6.85720E-03 7.03340E-23
7.00198E-03 6.73993E-23
7.14827E-03 6.46150E-23
7.29605E-03 6.19719E-23
7.44534E-03 5.94615E-23
7.59612E-03 5.70760E-23
7.97965E-03 5.16115E-23
8.37255E-03 4.67808E-23
8.77480E-03 4.24979E-23
9.18641E-03 3.86903E-23
9.60736E-03 3.52962E-23
1.00376E-02 3.22631E-23
1.04773E-02 2.95460E-23
1.09262E-02 2.71065E-23
1.13844E-02 2.49112E-23
1.18520E-02 2.29316E-23
1.23288E-02 2.11428E-23
1.28150E-02 1.95233E-23
1.33104E-02 1.80543E-23
1.38150E-02 1.67193E-23
1.43290E-02 1.55042E-23
1.48521E-02 1.43961E-23
1.53845E-02 1.33841E-23
1.59262E-02 1.24584E-23
1.64770E-02 1.16104E-23
1.70371E-02 1.08324E-23
1.76063E-02 1.01176E-23
1.81848E-02 9.45998E-24
1.87724E-02 8.85420E-24
1.93692E-02 8.29545E-24
1.99751E-02 7.77944E-24
2.05901E-02 7.30233E-24
2.12143E-02 6.86068E-24
2.18476E-02 6.45139E-24
2.24900E-02 6.07168E-24
2.31415E-02 5.71904E-24
2.38021E-02 5.39120E-24
2.44717E-02 5.08612E-24
2.51504E-02 4.80193E-24
2.58382E-02 4.53696E-24
2.65349E-02 4.28968E-24
2.72407E-02 4.05870E-24
2.79555E-02 3.84276E-24
2.86793E-02 3.64072E-24
2.94120E-02 3.45151E-24
3.01537E-02 3.27419E-24
3.09043E-02 3.10787E-24
3.16639E-02 2.95176E-24
3.24324E-02 2.80511E-24
3.32098E-02 2.66726E-24
3.39961E-02 2.53759E-24
3.47912E-02 2.41552E-24
3.55952E-02 2.30053E-24
3.64081E-02 2.19214E-24
3.72297E-02 2.08991E-24
3.80602E-02 1.99342E-24
3.88995E-02 1.90230E-24
3.97476E-02 1.81619E-24
4.06044E-02 1.73478E-24
4.14700E-02 1.65775E-24
4.23443E-02 1.58485E-24
4.32273E-02 1.51579E-24
4.41190E-02 1.45036E-24
4.50194E-02 1.38831E-24
4.59284E-02 1.32946E-24
4.68461E-02 1.27360E-24
4.87074E-02 1.17017E-24
5.06030E-02 1.07673E-24
5.25328E-02 9.92160E-25
5.44967E-02 9.15482E-25
5.64946E-02 8.45841E-25
5.85262E-02 7.82486E-25
6.05914E-02 7.24758E-25
6.26901E-02 6.72078E-25
6.48222E-02 6.23932E-25
6.69873E-02 5.79868E-25
6.91854E-02 5.39484E-25
7.14163E-02 5.02423E-25
7.36799E-02 4.68369E-25
7.59760E-02 4.37039E-25
7.83043E-02 4.08179E-25
8.06647E-02 3.81565E-25
8.30571E-02 3.56994E-25
8.54812E-02 3.34283E-25
8.79369E-02 3.13271E-25
9.04240E-02 2.93810E-25
9.29422E-02 2.75768E-25
9.54915E-02 2.59025E-25
9.80716E-02 2.43473E-25
1.00682E-01 2.29013E-25
1.03323E-01 2.15558E-25
1.05995E-01 2.03027E-25
1.08696E-01 1.91346E-25
1.11427E-01 1.80449E-25
1.14188E-01 1.70276E-25
1.16978E-01 1.60770E-25
1.19797E-01 1.51882E-25
1.22645E-01 1.43565E-25
1.25522E-01 1.35777E-25
1.28428E-01 1.28479E-25
1.31361E-01 1.21636E-25
1.34323E-01 1.15215E-25
1.37313E-01 1.09186E-25
1.40330E-01 1.03522E-25
1.43375E-01 9.81979E-26
1.46447E-01 9.31896E-26
1.49545E-01 8.84758E-26
1.52671E-01 8.40367E-26
1.55823E-01 7.98540E-26
1.59001E-01 7.59107E-26
1.62205E-01 7.21911E-26
1.65435E-01 6.86808E-26
1.68690E-01 6.53663E-26
1.71970E-01 6.22351E-26
1.75276E-01 5.92756E-26
1.78606E-01 5.64771E-26
1.81961E-01 5.38296E-26
1.85340E-01 5.13238E-26
1.88743E-01 4.89510E-26
1.92169E-01 4.67034E-26
1.95619E-01 4.45732E-26
1.99092E-01 4.25536E-26
2.02589E-01 4.06380E-26
2.06107E-01 3.88204E-26
2.09649E-01 3.70950E-26
2.13212E-01 3.54566E-26
2.16797E-01 3.39002E-26
2.20404E-01 3.24210E-26
2.24032E-01 3.10149E-26
2.27680E-01 2.96777E-26
2.31350E-01 2.84056E-26
2.35040E-01 2.71949E-26
2.38751E-01 2.60425E-26
2.42481E-01 2.49450E-26
2.46231E-01 2.38995E-26
2.50000E-01 2.29033E-26
2.53788E-01 2.19538E-26
2.57595E-01 2.10484E-26
2.61421E-01 2.01849E-26
2.65264E-01 1.93611E-26
2.69126E-01 1.85749E-26
2.73005E-01 1.78245E-26
2.76901E-01 1.71079E-26
2.80814E-01 1.64235E-26
2.84744E-01 1.57696E-26
2.88691E-01 1.51448E-26
2.92653E-01 1.45475E-26
2.96632E-01 1.39765E-26
3.00625E-01 1.34304E-26
3.04634E-01 1.29080E-26
3.08658E-01 1.24082E-26
3.12697E-01 1.19298E-26
3.16749E-01 1.14719E-26
3.20816E-01 1.10334E-26
3.24896E-01 1.06136E-26
3.28990E-01 1.02113E-26
3.33097E-01 9.82596E-27
3.37216E-01 9.45665E-27
3.41348E-01 9.10266E-27
3.45492E-01 8.76328E-27
3.49647E-01 8.43784E-27
3.53814E-01 8.12570E-27
3.57992E-01 7.82627E-27
3.62181E-01 7.53897E-27
3.66381E-01 7.26325E-27
3.70590E-01 6.99860E-27
3.74810E-01 6.74452E-27
3.79039E-01 6.50055E-27
3.83277E-01 6.26625E-27
3.87524E-01 6.04119E-27
3.91780E-01 5.82496E-27
3.96044E-01 5.61719E-27
4.00316E-01 5.41752E-27
4.04596E-01 5.22558E-27
4.08882E-01 5.04106E-27
4.13176E-01 4.86363E-27
4.17476E-01 4.69300E-27
4.21783E-01 4.52889E-27
4.26095E-01 4.37101E-27
4.30413E-01 4.21910E-27
4.34737E-01 4.07292E-27
4.39065E-01 3.93224E-27
4.43398E-01 3.79682E-27
4.47736E-01 3.66645E-27
4.52077E-01 3.54092E-27
4.56422E-01 3.42003E-27
4.60770E-01 3.30360E-27
4.65122E-01 3.19145E-27
4.69476E-01 3.08341E-27
4.73832E-01 2.97931E-27
4.78190E-01 2.87899E-27
4.82550E-01 2.78230E-27
4.86912E-01 2.68910E-27
4.91274E-01 2.59926E-27
4.95637E-01 2.51264E-27
5.00000E-01 2.42911E-27
5.04363E-01 2.34856E-27
5.08726E-01 2.27086E-27
5.13088E-01 2.19592E-27
5.17450E-01 2.12361E-27
5.21810E-01 2.05385E-27
5.26168E-01 1.98654E-27
5.30524E-01 1.92157E-27
5.34878E-01 1.85887E-27
5.39230E-01 1.79834E-27
5.43578E-01 1.73991E-27
5.47923E-01 1.68349E-27
5.52264E-01 1.62901E-27
5.56602E-01 1.57641E-27
5.60935E-01 1.52560E-27
5.65263E-01 1.47652E-27
5.69587E-01 1.42911E-27
5.73905E-01 1.38330E-27
5.78217E-01 1.33905E-27
5.82524E-01 1.29629E-27
5.86824E-01 1.25496E-27
5.91118E-01 1.21502E-27
5.95404E-01 1.17641E-27
5.99684E-01 1.13909E-27
6.03956E-01 1.10301E-27
6.08220E-01 1.06812E-27
6.12476E-01 1.03439E-27
6.16723E-01 1.00177E-27
6.20961E-01 9.70225E-28
6.25190E-01 9.39713E-28
6.29410E-01 9.10198E-28
6.33619E-01 8.81646E-28
6.37819E-01 8.54023E-28
6.42008E-01 8.27297E-28
6.46186E-01 8.01436E-28
6.50353E-01 7.76410E-28
6.54508E-01 7.52190E-28
6.58652E-01 7.28749E-28
6.62784E-01 7.06059E-28
6.66903E-01 6.84095E-28
6.71010E-01 6.62831E-28
6.75104E-01 6.42245E-28
6.79184E-01 6.22311E-28
6.83251E-01 6.03010E-28
6.87303E-01 5.84318E-28
6.91342E-01 5.66216E-28
6.95366E-01 5.48684E-28
6.99375E-01 5.31702E-28
7.03368E-01 5.15251E-28
7.07347E-01 4.99315E-28
7.11309E-01 4.83876E-28
7.15256E-01 4.68917E-28
7.19186E-01 4.54423E-28
7.23099E-01 4.40378E-28
7.26995E-01 4.26767E-28
7.30874E-01 4.13575E-28
7.34736E-01 4.00791E-28
7.38579E-01 3.88399E-28
7.42405E-01 3.76387E-28
7.46212E-01 3.64742E-28
7.50000E-01 3.53453E-28
7.53769E-01 3.42509E-28
7.57519E-01 3.31897E-28
7.61249E-01 3.21608E-28
7.64960E-01 3.11630E-28
7.68650E-01 3.01955E-28
7.72320E-01 2.92571E-28
7.75968E-01 2.83471E-28
7.79596E-01 2.74644E-28
7.83203E-01 2.66083E-28
7.86788E-01 2.57778E-28
7.90351E-01 2.49721E-28
7.93893E-01 2.41906E-28
7.97411E-01 2.34324E-28
8.00908E-01 2.26967E-28
8.04381E-01 2.19830E-28
8.07831E-01 2.12904E-28
8.11257E-01 2.06184E-28
8.14660E-01 1.99662E-28
8.18039E-01 1.93334E-28
8.21394E-01 1.87192E-28
8.24724E-01 1.81232E-28
8.28030E-01 1.75447E-28
8.31310E-01 1.69832E-28
8.34565E-01 1.64382E-28
8.37795E-01 1.59091E-28
8.40999E-01 1.53956E-28
8.44177E-01 1.48972E-28
8.47329E-01 1.44132E-28
8.50455E-01 1.39435E-28
8.53553E-01 1.34874E-28
8.56625E-01 1.30446E-28
8.59670E-01 1.26148E-28
8.62687E-01 1.21974E-28
8.65677E-01 1.17922E-28
8.68639E-01 1.13988E-28
8.71572E-01 1.10168E-28
8.74478E-01 1.06459E-28
8.77355E-01 1.02857E-28
8.80203E-01 9.93603E-29
8.83022E-01 9.59649E-29
8.85812E-01 9.26680E-29
8.88573E-01 8.94666E-29
8.91304E-01 8.63582E-29
8.94005E-01 8.33399E-29
8.96677E-01 8.04092E-29
8.99318E-01 7.75636E-29
9.01928E-01 7.48006E-29
9.04508E-01 7.21180E-29
9.07058E-01 6.95133E-29
9.09576E-01 6.69844E-29
9.12063E-01 6.45292E-29
9.14519E-01 6.21456E-29
9.16943E-01 5.98316E-29
9.19335E-01 5.75854E-29
9.21696E-01 5.54049E-29
9.24024E-01 5.32884E-29
9.26320E-01 5.12341E-29
9.28584E-01 4.92404E-29
9.30815E-01 4.73056E-29
9.33013E-01 4.54281E-29
9.35178E-01 4.36064E-29
9.37310E-01 4.18390E-29
9.39409E-01 4.01244E-29
9.41474E-01 3.84613E-29
9.43505E-01 3.68483E-29
9.45503E-01 3.52841E-29
9.47467E-01 3.37674E-29
9.49397E-01 3.22971E-29
9.51293E-01 3.08719E-29
9.53154E-01 2.94908E-29
9.54981E-01 2.81525E-29
9.56773E-01 2.68561E-29
9.58530E-01 2.56005E-29
9.60252E-01 2.43847E-29
9.61940E-01 2.32078E-29
9.63592E-01 2.20689E-29
9.65209E-01 2.09669E-29
9.66790E-01 1.99011E-29
9.68336E-01 1.88707E-29
9.69846E-01 1.78748E-29
9.71321E-01 1.69126E-29
9.72759E-01 1.59835E-29
9.74162E-01 1.50866E-29
9.75528E-01 1.42214E-29
9.76858E-01 1.33870E-29
9.78152E-01 1.25829E-29
9.79410E-01 1.18085E-29
9.80631E-01 1.10631E-29
9.81815E-01 1.03462E-29
9.82963E-01 9.65729E-30
9.84074E-01 8.99575E-30
9.85148E-01 8.36111E-30
9.86185E-01 7.75289E-30
9.87185E-01 7.17062E-30
9.88148E-01 6.61386E-30
9.89074E-01 6.08219E-30
9.89962E-01 5.57520E-30
9.90814E-01 5.09251E-30
9.91627E-01 4.63375E-30
9.92404E-01 4.19858E-30
9.93143E-01 3.78667E-30
9.93844E-01 3.39771E-30
9.94508E-01 3.03139E-30
9.95134E-01 2.68746E-30
9.95722E-01 2.36564E-30
9.96273E-01 2.06570E-30
9.96786E-01 1.78741E-30
9.97261E-01 1.53056E-30
9.97698E-01 1.29496E-30
9.98097E-01 1.08044E-30
9.98459E-01 8.86825E-31
9.98782E-01 7.13979E-31
9.99067E-01 5.61770E-31
9.99315E-01 4.30085E-31
9.99524E-01 3.18826E-31
9.99695E-01 2.27908E-31
9.99829E-01 1.57265E-31
9.99924E-01 1.06844E-31
9.99981E-01 7.66059E-32
1.00000E+00 6.65300E-32
