 #
 # Subroutine ELSEPA. Elastic scattering of electrons and positrons
 #                    by neutral atoms and positive ions
 #
 # Projectile: positron
 # Kinetic energy = 4.00000E+08 eV = 1.46997E+07 a.u.
 #
 # WARNING: High-energy factorization with free-atom DF screening.
 #          Absorption, polarization and exchange corrections are
 #          switched off.
 #          Phase shifts are calculated for the bare nucleus.
 #          Scattering amplitudes are not evaluated.
 #
 # Element: Sn,  Z =  50,  atomic weight = 1.18710E+02 g/mol
 #
 # Nuclear model: Fermi distribution
 #                Average radius = 5.25871E-13 cm
 #                Skin thickness = 5.46000E-14 cm
 #
 # Number of electrons = 50
 #
 # Total elastic cross section = 5.08482E-18 cm**2 = 1.81582E-01 a0**2
 # 1st transport cross section = 3.04634E-26 cm**2 = 1.08787E-09 a0**2
 # 2nd transport cross section = 9.13317E-26 cm**2 = 3.26152E-09 a0**2
 #
 #
 # Differential cross section:                       MU=(1-COS(THETA))/2
 #
 #  THETA        MU          DCS          DCS        Sherman      error
 #  (deg)                 (cm**2/sr)   (a0**2/sr)    function
 #----------------------------------------------------------------------
0.00000E+00 7.15462E-09
7.61557E-13 6.86086E-09
1.18994E-12 6.70443E-09
1.71346E-12 6.52063E-09
2.33225E-12 6.31496E-09
3.04617E-12 6.09045E-09
3.85530E-12 5.85147E-09
4.75964E-12 5.60315E-09
5.75917E-12 5.34956E-09
6.85391E-12 5.09209E-09
8.04379E-12 4.83576E-09
9.32893E-12 4.58354E-09
1.07092E-11 4.33719E-09
1.21847E-11 4.09705E-09
1.37554E-11 3.86638E-09
1.54213E-11 3.64605E-09
1.71823E-11 3.43573E-09
1.90386E-11 3.23583E-09
2.09900E-11 3.04737E-09
2.30367E-11 2.87018E-09
2.51785E-11 2.70294E-09
2.74156E-11 2.54619E-09
2.97478E-11 2.39974E-09
3.21752E-11 2.26295E-09
3.46979E-11 2.13453E-09
3.73157E-11 2.01488E-09
4.00286E-11 1.90343E-09
4.28368E-11 1.79932E-09
4.57402E-11 1.70194E-09
4.87388E-11 1.61122E-09
5.18325E-11 1.52666E-09
5.50215E-11 1.44743E-09
5.83057E-11 1.37335E-09
6.16850E-11 1.30419E-09
6.51595E-11 1.23957E-09
6.87293E-11 1.17872E-09
7.23943E-11 1.12176E-09
7.61544E-11 1.06842E-09
1.18991E-10 6.78345E-10
1.71347E-10 4.45131E-10
2.33223E-10 3.07653E-10
3.04617E-10 2.15218E-10
3.85531E-10 1.53452E-10
4.75965E-10 1.11999E-10
5.75917E-10 8.33587E-11
6.85389E-10 6.29416E-11
8.04380E-10 4.85194E-11
9.32891E-10 3.81022E-11
1.07092E-09 3.04157E-11
1.21847E-09 2.46240E-11
1.37554E-09 2.02119E-11
1.54213E-09 1.67912E-11
1.71823E-09 1.40857E-11
1.90386E-09 1.19141E-11
2.09900E-09 1.01574E-11
2.30367E-09 8.71998E-12
2.51785E-09 7.52169E-12
2.74156E-09 6.52128E-12
2.97478E-09 5.68160E-12
3.21752E-09 4.97109E-12
3.46978E-09 4.36269E-12
3.73156E-09 3.84257E-12
4.00286E-09 3.39592E-12
4.28368E-09 3.01022E-12
4.57402E-09 2.67584E-12
4.87388E-09 2.38621E-12
5.18326E-09 2.13430E-12
5.50215E-09 1.91373E-12
5.83057E-09 1.72048E-12
6.16850E-09 1.55086E-12
6.51596E-09 1.40148E-12
6.87293E-09 1.26914E-12
7.23942E-09 1.15206E-12
7.61544E-09 1.04817E-12
1.18991E-08 4.53834E-13
1.71347E-08 2.28531E-13
2.33223E-08 1.27579E-13
3.04617E-08 7.67099E-14
3.85531E-08 4.87988E-14
4.75965E-08 3.24663E-14
5.75917E-08 2.24095E-14
6.85389E-08 1.59517E-14
8.04380E-08 1.16573E-14
9.32891E-08 8.71426E-15
1.07092E-07 6.64382E-15
1.21847E-07 5.15345E-15
1.37554E-07 4.05871E-15
1.54213E-07 3.23995E-15
1.71823E-07 2.61780E-15
1.90386E-07 2.13819E-15
2.09900E-07 1.76365E-15
2.30367E-07 1.46770E-15
2.51785E-07 1.23134E-15
2.74156E-07 1.04072E-15
2.97478E-07 8.85615E-16
3.21752E-07 7.58366E-16
3.46978E-07 6.53176E-16
3.73156E-07 5.65608E-16
4.00286E-07 4.92233E-16
4.28368E-07 4.30376E-16
4.57402E-07 3.77934E-16
4.87388E-07 3.33240E-16
5.18325E-07 2.94959E-16
5.50215E-07 2.62017E-16
5.83057E-07 2.33546E-16
6.16850E-07 2.08836E-16
6.51596E-07 1.87307E-16
6.87293E-07 1.68480E-16
7.23942E-07 1.51959E-16
7.61543E-07 1.37413E-16
1.18991E-06 5.65442E-17
1.71347E-06 2.73369E-17
2.33223E-06 1.47769E-17
3.04617E-06 8.66934E-18
3.85531E-06 5.41503E-18
4.75964E-06 3.55390E-18
5.75916E-06 2.42779E-18
6.85388E-06 1.71434E-18
8.04378E-06 1.24469E-18
9.32888E-06 9.25372E-19
1.07092E-05 7.02172E-19
1.21846E-05 5.42373E-19
1.37553E-05 4.25545E-19
1.54212E-05 3.38537E-19
1.71822E-05 2.72668E-19
1.90385E-05 2.22003E-19
2.09899E-05 1.82681E-19
2.30365E-05 1.51677E-19
2.51783E-05 1.26960E-19
2.74153E-05 1.07061E-19
2.97475E-05 9.09034E-20
3.21749E-05 7.76803E-20
3.46974E-05 6.67789E-20
3.73152E-05 5.77287E-20
4.00281E-05 5.01639E-20
4.28362E-05 4.38001E-20
4.57395E-05 3.84136E-20
4.87380E-05 3.38287E-20
5.18317E-05 2.99062E-20
5.50205E-05 2.65346E-20
5.83045E-05 2.36245E-20
6.16838E-05 2.11025E-20
6.51582E-05 1.89084E-20
6.87277E-05 1.69927E-20
7.23925E-05 1.53138E-20
7.61524E-05 1.38684E-20
9.21439E-05 9.46541E-21
1.09658E-04 6.67719E-21
1.28695E-04 4.84323E-21
1.49255E-04 3.59653E-21
1.71338E-04 2.72573E-21
1.94942E-04 2.10253E-21
2.20070E-04 1.64717E-21
2.46720E-04 1.30826E-21
2.74892E-04 1.05182E-21
3.04586E-04 8.54967E-22
3.35803E-04 7.01819E-22
3.68542E-04 5.81269E-22
4.02802E-04 4.85342E-22
4.38585E-04 4.08254E-22
4.75889E-04 3.45749E-22
5.14715E-04 2.94642E-22
5.55063E-04 2.52539E-22
5.96931E-04 2.17605E-22
6.40321E-04 1.88430E-22
6.85233E-04 1.63917E-22
7.31665E-04 1.43202E-22
7.79618E-04 1.25606E-22
8.29092E-04 1.10583E-22
8.80086E-04 9.76987E-23
9.32601E-04 8.65992E-23
9.86636E-04 7.69981E-23
1.04219E-03 6.86610E-23
1.09927E-03 6.13949E-23
1.15786E-03 5.50402E-23
1.21797E-03 4.94644E-23
1.27961E-03 4.45568E-23
1.34276E-03 4.02246E-23
1.40743E-03 3.63896E-23
1.47362E-03 3.29856E-23
1.54133E-03 2.99566E-23
1.61056E-03 2.72546E-23
1.68131E-03 2.48389E-23
1.75357E-03 2.26742E-23
1.82735E-03 2.07305E-23
1.90265E-03 1.89817E-23
1.97947E-03 1.74051E-23
2.05780E-03 1.59811E-23
2.13765E-03 1.46928E-23
2.21902E-03 1.35252E-23
2.30190E-03 1.24652E-23
2.38630E-03 1.15015E-23
2.47222E-03 1.06239E-23
2.55965E-03 9.82361E-24
2.64859E-03 9.09281E-24
2.73905E-03 8.42455E-24
2.83103E-03 7.81269E-24
2.92452E-03 7.25178E-24
3.01952E-03 6.73694E-24
3.11604E-03 6.26385E-24
3.21407E-03 5.82863E-24
3.31362E-03 5.42783E-24
3.41468E-03 5.05832E-24
3.51725E-03 4.71734E-24
3.62133E-03 4.40236E-24
3.72692E-03 4.11113E-24
3.83403E-03 3.84162E-24
3.94265E-03 3.59198E-24
4.05278E-03 3.36056E-24
4.16442E-03 3.14584E-24
4.27757E-03 2.94647E-24
4.39223E-03 2.76120E-24
4.50840E-03 2.58891E-24
4.62608E-03 2.42857E-24
4.74527E-03 2.27925E-24
4.86597E-03 2.14010E-24
4.98817E-03 2.01033E-24
5.11188E-03 1.88925E-24
5.23711E-03 1.77619E-24
5.36383E-03 1.67057E-24
5.49207E-03 1.57183E-24
5.62181E-03 1.47948E-24
5.75306E-03 1.39305E-24
5.88581E-03 1.31213E-24
6.02007E-03 1.23632E-24
6.15583E-03 1.16527E-24
6.29310E-03 1.09864E-24
6.43187E-03 1.03613E-24
6.57214E-03 9.77463E-25
6.71392E-03 9.22372E-25
6.85720E-03 8.70619E-25
7.00198E-03 8.21981E-25
7.14827E-03 7.76254E-25
7.29605E-03 7.33245E-25
7.44534E-03 6.92779E-25
7.59612E-03 6.54691E-25
7.97965E-03 5.68900E-25
8.37255E-03 4.94946E-25
8.77480E-03 4.31070E-25
9.18641E-03 3.75801E-25
9.60736E-03 3.27901E-25
1.00376E-02 2.86323E-25
1.04773E-02 2.50184E-25
1.09262E-02 2.18732E-25
1.13844E-02 1.91327E-25
1.18520E-02 1.67424E-25
1.23288E-02 1.46555E-25
1.28150E-02 1.28321E-25
1.33104E-02 1.12375E-25
1.38150E-02 9.84225E-26
1.43290E-02 8.62064E-26
1.48521E-02 7.55055E-26
1.53845E-02 6.61280E-26
1.59262E-02 5.79075E-26
1.64770E-02 5.06994E-26
1.70371E-02 4.43777E-26
1.76063E-02 3.88330E-26
1.81848E-02 3.39694E-26
1.87724E-02 2.97035E-26
1.93692E-02 2.59620E-26
1.99751E-02 2.26812E-26
2.05901E-02 1.98048E-26
2.12143E-02 1.72837E-26
2.18476E-02 1.50749E-26
2.24900E-02 1.31405E-26
2.31415E-02 1.14471E-26
2.38021E-02 9.96551E-27
2.44717E-02 8.67005E-27
2.51504E-02 7.53806E-27
2.58382E-02 6.54960E-27
2.65349E-02 5.68715E-27
2.72407E-02 4.93527E-27
2.79555E-02 4.28035E-27
2.86793E-02 3.71044E-27
2.94120E-02 3.21498E-27
3.01537E-02 2.78470E-27
3.09043E-02 2.41144E-27
3.16639E-02 2.08800E-27
3.24324E-02 1.80807E-27
3.32098E-02 1.56608E-27
3.39961E-02 1.35716E-27
3.47912E-02 1.17700E-27
3.55952E-02 1.02185E-27
3.64081E-02 8.88400E-28
3.72297E-02 7.73758E-28
3.80602E-02 6.75391E-28
3.88995E-02 5.91083E-28
3.97476E-02 5.18898E-28
4.06044E-02 4.57147E-28
4.14700E-02 4.04358E-28
4.23443E-02 3.59252E-28
4.32273E-02 3.20715E-28
4.41190E-02 2.87785E-28
4.50194E-02 2.59625E-28
4.59284E-02 2.35515E-28
4.68461E-02 2.14834E-28
4.87074E-02 1.81697E-28
5.06030E-02 1.56796E-28
5.25328E-02 1.37647E-28
5.44967E-02 1.22468E-28
5.64946E-02 1.10005E-28
5.85262E-02 9.93889E-29
6.05914E-02 9.00382E-29
6.26901E-02 8.15734E-29
6.48222E-02 7.37589E-29
6.69873E-02 6.64574E-29
6.91854E-02 5.95968E-29
7.14163E-02 5.31462E-29
7.36799E-02 4.70982E-29
7.59760E-02 4.14574E-29
7.83043E-02 3.62323E-29
8.06647E-02 3.14299E-29
8.30571E-02 2.70536E-29
8.54812E-02 2.31006E-29
8.79369E-02 1.95628E-29
9.04240E-02 1.64259E-29
9.29422E-02 1.36709E-29
9.54915E-02 1.12747E-29
9.80716E-02 9.21134E-30
1.00682E-01 7.45273E-30
1.03323E-01 5.96977E-30
1.05995E-01 4.73319E-30
1.08696E-01 3.71422E-30
1.11427E-01 2.88517E-30
1.14188E-01 2.21989E-30
1.16978E-01 1.69410E-30
1.19797E-01 1.28557E-30
1.22645E-01 9.74286E-31
1.25522E-01 7.42435E-31
1.28428E-01 5.74409E-31
1.31361E-01 4.56711E-31
1.34323E-01 3.77832E-31
1.37313E-01 3.28110E-31
1.40330E-01 2.99555E-31
1.43375E-01 2.85680E-31
1.46447E-01 2.81322E-31
1.49545E-01 2.82467E-31
1.52671E-01 2.86082E-31
1.55823E-01 2.89962E-31
1.59001E-01 2.92587E-31
1.62205E-01 2.92986E-31
1.65435E-01 2.90630E-31
1.68690E-01 2.85329E-31
1.71970E-01 2.77142E-31
1.75276E-01 2.66308E-31
1.78606E-01 2.53186E-31
1.81961E-01 2.38203E-31
1.85340E-01 2.21817E-31
1.88743E-01 2.04488E-31
1.92169E-01 1.86652E-31
1.95619E-01 1.68711E-31
1.99092E-01 1.51017E-31
2.02589E-01 1.33870E-31
2.06107E-01 1.17515E-31
2.09649E-01 1.02144E-31
2.13212E-01 8.78937E-32
2.16797E-01 7.48559E-32
2.20404E-01 6.30789E-32
2.24032E-01 5.25744E-32
2.27680E-01 4.33227E-32
2.31350E-01 3.52790E-32
2.35040E-01 2.83786E-32
2.38751E-01 2.25423E-32
2.42481E-01 1.76806E-32
2.46231E-01 1.36983E-32
2.50000E-01 1.04976E-32
2.53788E-01 7.98101E-33
2.57595E-01 6.05412E-33
2.61421E-01 4.62705E-33
2.65264E-01 3.61601E-33
2.69126E-01 2.94422E-33
2.73005E-01 2.54251E-33
2.76901E-01 2.34955E-33
2.80814E-01 2.31195E-33
2.84744E-01 2.38395E-33
2.88691E-01 2.52716E-33
2.92653E-01 2.70998E-33
2.96632E-01 2.90711E-33
3.00625E-01 3.09885E-33
3.04634E-01 3.27051E-33
3.08658E-01 3.41170E-33
3.12697E-01 3.51576E-33
3.16749E-01 3.57909E-33
3.20816E-01 3.60061E-33
3.24896E-01 3.58124E-33
3.28990E-01 3.52341E-33
3.33097E-01 3.43068E-33
3.37216E-01 3.30738E-33
3.41348E-01 3.15826E-33
3.45492E-01 2.98828E-33
3.49647E-01 2.80238E-33
3.53814E-01 2.60534E-33
3.57992E-01 2.40163E-33
3.62181E-01 2.19532E-33
3.66381E-01 1.99006E-33
3.70590E-01 1.78900E-33
3.74810E-01 1.59479E-33
3.79039E-01 1.40960E-33
3.83277E-01 1.23512E-33
3.87524E-01 1.07261E-33
3.91780E-01 9.22907E-34
3.96044E-01 7.86497E-34
4.00316E-01 6.63534E-34
4.04596E-01 5.53900E-34
4.08882E-01 4.57245E-34
4.13176E-01 3.73028E-34
4.17476E-01 3.00563E-34
4.21783E-01 2.39053E-34
4.26095E-01 1.87623E-34
4.30413E-01 1.45351E-34
4.34737E-01 1.11299E-34
4.39065E-01 8.45261E-35
4.43398E-01 6.41158E-35
4.47736E-01 4.91865E-35
4.52077E-01 3.89049E-35
4.56422E-01 3.24941E-35
4.60770E-01 2.92404E-35
4.65122E-01 2.84965E-35
4.69476E-01 2.96832E-35
4.73832E-01 3.22903E-35
4.78190E-01 3.58737E-35
4.82550E-01 4.00534E-35
4.86912E-01 4.45112E-35
4.91274E-01 4.89839E-35
4.95637E-01 5.32612E-35
5.00000E-01 5.71794E-35
5.04363E-01 6.06167E-35
5.08726E-01 6.34880E-35
5.13088E-01 6.57408E-35
5.17450E-01 6.73494E-35
5.21810E-01 6.83107E-35
5.26168E-01 6.86409E-35
5.30524E-01 6.83701E-35
5.34878E-01 6.75414E-35
5.39230E-01 6.62050E-35
5.43578E-01 6.44167E-35
5.47923E-01 6.22369E-35
5.52264E-01 5.97259E-35
5.56602E-01 5.69451E-35
5.60935E-01 5.39525E-35
5.65263E-01 5.08052E-35
5.69587E-01 4.75559E-35
5.73905E-01 4.42525E-35
5.78217E-01 4.09395E-35
5.82524E-01 3.76559E-35
5.86824E-01 3.44357E-35
5.91118E-01 3.13084E-35
5.95404E-01 2.82983E-35
5.99684E-01 2.54253E-35
6.03956E-01 2.27049E-35
6.08220E-01 2.01487E-35
6.12476E-01 1.77648E-35
6.16723E-01 1.55575E-35
6.20961E-01 1.35286E-35
6.25190E-01 1.16772E-35
6.29410E-01 1.00002E-35
6.33619E-01 8.49259E-36
6.37819E-01 7.14782E-36
6.42008E-01 5.95819E-36
6.46186E-01 4.91502E-36
6.50353E-01 4.00897E-36
6.54508E-01 3.23020E-36
6.58652E-01 2.56857E-36
6.62784E-01 2.01398E-36
6.66903E-01 1.55637E-36
6.71010E-01 1.18585E-36
6.75104E-01 8.92854E-37
6.79184E-01 6.68276E-37
6.83251E-01 5.03409E-37
6.87303E-01 3.90124E-37
6.91342E-01 3.20810E-37
6.95366E-01 2.88448E-37
6.99375E-01 2.86651E-37
7.03368E-01 3.09557E-37
7.07347E-01 3.51941E-37
7.11309E-01 4.09121E-37
7.15256E-01 4.76981E-37
7.19186E-01 5.51905E-37
7.23099E-01 6.30735E-37
7.26995E-01 7.10830E-37
7.30874E-01 7.89931E-37
7.34736E-01 8.66222E-37
7.38579E-01 9.38226E-37
7.42405E-01 1.00470E-36
7.46212E-01 1.06482E-36
7.50000E-01 1.11784E-36
7.53769E-01 1.16348E-36
7.57519E-01 1.20142E-36
7.61249E-01 1.23167E-36
7.64960E-01 1.25425E-36
7.68650E-01 1.26942E-36
7.72320E-01 1.27734E-36
7.75968E-01 1.27856E-36
7.79596E-01 1.27341E-36
7.83203E-01 1.26238E-36
7.86788E-01 1.24598E-36
7.90351E-01 1.22468E-36
7.93893E-01 1.19908E-36
7.97411E-01 1.16965E-36
8.00908E-01 1.13693E-36
8.04381E-01 1.10140E-36
8.07831E-01 1.06356E-36
8.11257E-01 1.02385E-36
8.14660E-01 9.82737E-37
8.18039E-01 9.40576E-37
8.21394E-01 8.97754E-37
8.24724E-01 8.54587E-37
8.28030E-01 8.11432E-37
8.31310E-01 7.68502E-37
8.34565E-01 7.26085E-37
8.37795E-01 6.84370E-37
8.40999E-01 6.43581E-37
8.44177E-01 6.03808E-37
8.47329E-01 5.65290E-37
8.50455E-01 5.28005E-37
8.53553E-01 4.92165E-37
8.56625E-01 4.57752E-37
8.59670E-01 4.24884E-37
8.62687E-01 3.93531E-37
8.65677E-01 3.63747E-37
8.68639E-01 3.35511E-37
8.71572E-01 3.08838E-37
8.74478E-01 2.83720E-37
8.77355E-01 2.60100E-37
8.80203E-01 2.37968E-37
8.83022E-01 2.17257E-37
8.85812E-01 1.97944E-37
8.88573E-01 1.79974E-37
8.91304E-01 1.63296E-37
8.94005E-01 1.47850E-37
8.96677E-01 1.33570E-37
8.99318E-01 1.20413E-37
9.01928E-01 1.08303E-37
9.04508E-01 9.71972E-38
9.07058E-01 8.70411E-38
9.09576E-01 7.77476E-38
9.12063E-01 6.92887E-38
9.14519E-01 6.15900E-38
9.16943E-01 5.46102E-38
9.19335E-01 4.82981E-38
9.21696E-01 4.26004E-38
9.24024E-01 3.74576E-38
9.26320E-01 3.28510E-38
9.28584E-01 2.87207E-38
9.30815E-01 2.50288E-38
9.33013E-01 2.17488E-38
9.35178E-01 1.88172E-38
9.37310E-01 1.62380E-38
9.39409E-01 1.39481E-38
9.41474E-01 1.19415E-38
9.43505E-01 1.01797E-38
9.45503E-01 8.63940E-39
9.47467E-01 7.30049E-39
9.49397E-01 6.13925E-39
9.51293E-01 5.13767E-39
9.53154E-01 4.27832E-39
9.54981E-01 3.54414E-39
9.56773E-01 2.92162E-39
9.58530E-01 2.39476E-39
9.60252E-01 1.95458E-39
9.61940E-01 1.58771E-39
9.63592E-01 1.28438E-39
9.65209E-01 1.03730E-39
9.66790E-01 8.37189E-40
9.68336E-01 6.77788E-40
9.69846E-01 5.52323E-40
9.71321E-01 4.55405E-40
9.72759E-01 3.82259E-40
9.74162E-01 3.28622E-40
9.75528E-01 2.90665E-40
9.76858E-01 2.65381E-40
9.78152E-01 2.50256E-40
9.79410E-01 2.42671E-40
9.80631E-01 2.39395E-40
9.81815E-01 2.41006E-40
9.82963E-01 2.44354E-40
9.84074E-01 2.49193E-40
9.85148E-01 2.55556E-40
9.86185E-01 2.58277E-40
9.87185E-01 2.60690E-40
9.88148E-01 2.62744E-40
9.89074E-01 2.61798E-40
9.89962E-01 2.60479E-40
9.90814E-01 2.55182E-40
9.91627E-01 2.48950E-40
9.92404E-01 2.40439E-40
9.93143E-01 2.28704E-40
9.93844E-01 2.16261E-40
9.94508E-01 2.02014E-40
9.95134E-01 1.87173E-40
9.95722E-01 1.71139E-40
9.96273E-01 1.55499E-40
9.96786E-01 1.38198E-40
9.97261E-01 1.21478E-40
9.97698E-01 1.04731E-40
9.98097E-01 8.86153E-41
9.98459E-01 7.22785E-41
9.98782E-01 5.84997E-41
9.99067E-01 4.51457E-41
9.99315E-01 3.44390E-41
9.99524E-01 2.37394E-41
9.99695E-01 1.61949E-41
9.99829E-01 9.38842E-42
9.99924E-01 4.52093E-42
9.99981E-01 1.71337E-42
1.00000E+00 9.77217E-44
