 #
 # Subroutine ELSEPA. Elastic scattering of electrons and positrons
 #                    by neutral atoms and positive ions
 #
 # Projectile: positron
 # Kinetic energy = 1.00000E+09 eV = 3.67493E+07 a.u.
 #
 # WARNING: High-energy factorization with free-atom DF screening.
 #          Absorption, polarization and exchange corrections are
 #          switched off.
 #          Phase shifts are calculated for the bare nucleus.
 #          Scattering amplitudes are not evaluated.
 #
 # Element: Sn,  Z =  50,  atomic weight = 1.18710E+02 g/mol
 #
 # Nuclear model: Fermi distribution
 #                Average radius = 5.25871E-13 cm
 #                Skin thickness = 5.46000E-14 cm
 #
 # Number of electrons = 50
 #
 # Total elastic cross section = 5.04644E-18 cm**2 = 1.80212E-01 a0**2
 # 1st transport cross section = 4.89565E-27 cm**2 = 1.74827E-10 a0**2
 # 2nd transport cross section = 1.46854E-26 cm**2 = 5.24427E-10 a0**2
 #
 #
 # Differential cross section:                       MU=(1-COS(THETA))/2
 #
 #  THETA        MU          DCS          DCS        Sherman      error
 #  (deg)                 (cm**2/sr)   (a0**2/sr)    function
 #----------------------------------------------------------------------
0.00000E+00 4.46479E-08
7.61557E-13 3.49781E-08
1.18994E-12 3.09936E-08
1.71346E-12 2.70833E-08
2.33225E-12 2.34509E-08
3.04617E-12 2.02115E-08
3.85530E-12 1.73970E-08
4.75964E-12 1.49925E-08
5.75917E-12 1.29581E-08
6.85391E-12 1.12429E-08
8.04379E-12 9.79918E-09
9.32893E-12 8.58229E-09
1.07092E-11 7.55276E-09
1.21847E-11 6.67736E-09
1.37554E-11 5.92879E-09
1.54213E-11 5.28371E-09
1.71823E-11 4.72567E-09
1.90386E-11 4.24013E-09
2.09900E-11 3.81542E-09
2.30367E-11 3.44006E-09
2.51785E-11 3.08488E-09
2.74156E-11 2.78294E-09
2.97478E-11 2.52473E-09
3.21752E-11 2.30264E-09
3.46979E-11 2.11057E-09
3.73157E-11 1.92392E-09
4.00286E-11 1.74861E-09
4.28368E-11 1.59608E-09
4.57402E-11 1.46277E-09
4.87388E-11 1.34575E-09
5.18325E-11 1.24114E-09
5.50215E-11 1.13552E-09
5.83057E-11 1.04231E-09
6.16850E-11 9.59753E-10
6.51595E-11 8.86381E-10
6.87293E-11 8.20959E-10
7.23943E-11 7.58640E-10
7.61544E-11 7.00610E-10
1.18991E-10 3.45259E-10
1.71347E-10 1.90280E-10
2.33223E-10 1.15096E-10
3.04617E-10 7.45357E-11
3.85531E-10 5.06152E-11
4.75965E-10 3.55496E-11
5.75917E-10 2.56212E-11
6.85389E-10 1.88366E-11
8.04380E-10 1.41168E-11
9.32891E-10 1.07672E-11
1.07092E-09 8.34360E-12
1.21847E-09 6.56006E-12
1.37554E-09 5.22791E-12
1.54213E-09 4.21875E-12
1.71823E-09 3.44383E-12
1.90386E-09 2.84042E-12
2.09900E-09 2.36451E-12
2.30367E-09 1.98485E-12
2.51785E-09 1.67826E-12
2.74156E-09 1.43031E-12
2.97478E-09 1.22580E-12
3.21752E-09 1.05730E-12
3.46978E-09 9.16489E-13
3.73156E-09 7.98511E-13
4.00286E-09 6.98915E-13
4.28368E-09 6.14281E-13
4.57402E-09 5.42184E-13
4.87388E-09 4.80144E-13
5.18326E-09 4.26884E-13
5.50215E-09 3.80588E-13
5.83057E-09 3.40529E-13
6.16850E-09 3.05454E-13
6.51596E-09 2.74838E-13
6.87293E-09 2.47900E-13
7.23942E-09 2.24188E-13
7.61544E-09 2.03227E-13
1.18991E-08 8.51038E-14
1.71347E-08 4.15916E-14
2.33223E-08 2.26658E-14
3.04617E-08 1.33863E-14
3.85531E-08 8.40843E-15
4.75965E-08 5.54476E-15
5.75917E-08 3.80314E-15
6.85389E-08 2.69470E-15
8.04380E-08 1.96215E-15
9.32891E-08 1.46237E-15
1.07092E-07 1.11198E-15
1.21847E-07 8.60475E-16
1.37554E-07 6.76177E-16
1.54213E-07 5.38655E-16
1.71823E-07 4.34361E-16
1.90386E-07 3.54115E-16
2.09900E-07 2.91563E-16
2.30367E-07 2.42224E-16
2.51785E-07 2.02888E-16
2.74156E-07 1.71218E-16
2.97478E-07 1.45490E-16
3.21752E-07 1.24416E-16
3.46978E-07 1.07021E-16
3.73156E-07 9.25614E-17
4.00286E-07 8.04623E-17
4.28368E-07 7.02762E-17
4.57402E-07 6.16514E-17
4.87388E-07 5.43097E-17
5.18325E-07 4.80285E-17
5.50215E-07 4.26294E-17
5.83057E-07 3.79679E-17
6.16850E-07 3.39262E-17
6.51596E-07 3.04081E-17
6.87293E-07 2.73344E-17
7.23942E-07 2.46393E-17
7.61543E-07 2.22682E-17
1.18991E-06 9.12597E-18
1.71347E-06 4.40190E-18
2.33223E-06 2.37615E-18
3.04617E-06 1.39280E-18
3.85531E-06 8.69455E-19
4.75964E-06 5.70389E-19
5.75916E-06 3.89536E-19
6.85388E-06 2.75002E-19
8.04378E-06 1.99630E-19
9.32888E-06 1.48397E-19
1.07092E-05 1.12592E-19
1.21846E-05 8.69610E-20
1.37553E-05 6.82248E-20
1.54212E-05 5.42726E-20
1.71822E-05 4.37108E-20
1.90385E-05 3.55876E-20
2.09899E-05 2.92832E-20
2.30365E-05 2.43125E-20
2.51783E-05 2.03499E-20
2.74153E-05 1.71600E-20
2.97475E-05 1.45699E-20
3.21749E-05 1.24502E-20
3.46974E-05 1.07029E-20
3.73152E-05 9.25218E-21
4.00281E-05 8.03968E-21
4.28362E-05 7.01966E-21
4.57395E-05 6.15632E-21
4.87380E-05 5.42148E-21
5.18317E-05 4.79279E-21
5.50205E-05 4.25244E-21
5.83045E-05 3.78602E-21
6.16838E-05 3.38182E-21
6.51582E-05 3.03020E-21
6.87277E-05 2.72317E-21
7.23925E-05 2.45410E-21
7.61524E-05 2.18571E-21
9.21439E-05 1.48203E-21
1.09658E-04 1.03756E-21
1.28695E-04 7.46105E-22
1.49255E-04 5.48716E-22
1.71338E-04 4.11427E-22
1.94942E-04 3.13650E-22
2.20070E-04 2.42595E-22
2.46720E-04 1.90033E-22
2.74892E-04 1.50529E-22
3.04586E-04 1.20426E-22
3.35803E-04 9.71958E-23
3.68542E-04 7.90687E-23
4.02802E-04 6.47795E-23
4.38585E-04 5.34121E-23
4.75889E-04 4.42942E-23
5.14715E-04 3.69245E-23
5.55063E-04 3.09272E-23
5.96931E-04 2.60154E-23
6.40321E-04 2.19695E-23
6.85233E-04 1.86190E-23
7.31665E-04 1.58307E-23
7.79618E-04 1.34999E-23
8.29092E-04 1.15434E-23
8.80086E-04 9.89472E-24
9.32601E-04 8.50055E-24
9.86636E-04 7.31773E-24
1.04219E-03 6.31120E-24
1.09927E-03 5.45226E-24
1.15786E-03 4.71740E-24
1.21797E-03 4.08719E-24
1.27961E-03 3.54555E-24
1.34276E-03 3.07908E-24
1.40743E-03 2.67660E-24
1.47362E-03 2.32875E-24
1.54133E-03 2.02763E-24
1.61056E-03 1.76660E-24
1.68131E-03 1.54004E-24
1.75357E-03 1.34314E-24
1.82735E-03 1.17186E-24
1.90265E-03 1.02272E-24
1.97947E-03 8.92744E-25
2.05780E-03 7.79388E-25
2.13765E-03 6.80463E-25
2.21902E-03 5.94085E-25
2.30190E-03 5.18628E-25
2.38630E-03 4.52688E-25
2.47222E-03 3.95047E-25
2.55965E-03 3.44652E-25
2.64859E-03 3.00585E-25
2.73905E-03 2.62052E-25
2.83103E-03 2.28358E-25
2.92452E-03 1.98898E-25
3.01952E-03 1.73146E-25
3.11604E-03 1.50642E-25
3.21407E-03 1.30981E-25
3.31362E-03 1.13811E-25
3.41468E-03 9.88253E-26
3.51725E-03 8.57518E-26
3.62133E-03 7.43538E-26
3.72692E-03 6.44236E-26
3.83403E-03 5.57786E-26
3.94265E-03 4.82587E-26
4.05278E-03 4.17233E-26
4.16442E-03 3.60490E-26
4.27757E-03 3.11275E-26
4.39223E-03 2.68634E-26
4.50840E-03 2.31732E-26
4.62608E-03 1.99836E-26
4.74527E-03 1.72301E-26
4.86597E-03 1.48563E-26
4.98817E-03 1.28126E-26
5.11188E-03 1.10556E-26
5.23711E-03 9.54724E-27
5.36383E-03 8.25420E-27
5.49207E-03 7.14738E-27
5.62181E-03 6.20132E-27
5.75306E-03 5.39379E-27
5.88581E-03 4.70544E-27
6.02007E-03 4.11938E-27
6.15583E-03 3.62094E-27
6.29310E-03 3.19738E-27
6.43187E-03 2.83764E-27
6.57214E-03 2.53218E-27
6.71392E-03 2.27274E-27
6.85720E-03 2.05219E-27
7.00198E-03 1.86442E-27
7.14827E-03 1.70419E-27
7.29605E-03 1.56700E-27
7.44534E-03 1.44903E-27
7.59612E-03 1.34704E-27
7.97965E-03 1.14490E-27
8.37255E-03 9.94211E-28
8.77480E-03 8.74450E-28
9.18641E-03 7.73129E-28
9.60736E-03 6.83067E-28
1.00376E-02 6.00479E-28
1.04773E-02 5.23658E-28
1.09262E-02 4.52079E-28
1.13844E-02 3.85814E-28
1.18520E-02 3.25155E-28
1.23288E-02 2.70401E-28
1.28150E-02 2.21735E-28
1.33104E-02 1.79181E-28
1.38150E-02 1.42590E-28
1.43290E-02 1.11667E-28
1.48521E-02 8.59935E-29
1.53845E-02 6.50710E-29
1.59262E-02 4.83501E-29
1.64770E-02 3.52646E-29
1.70371E-02 2.52566E-29
1.76063E-02 1.77968E-29
1.81848E-02 1.23989E-29
1.87724E-02 8.62823E-30
1.93692E-02 6.10709E-30
1.99751E-02 4.51519E-30
2.05901E-02 3.58811E-30
2.12143E-02 3.11340E-30
2.18476E-02 2.92541E-30
2.24900E-02 2.89942E-30
2.31415E-02 2.94543E-30
2.38021E-02 3.00205E-30
2.44717E-02 3.03077E-30
2.51504E-02 3.01070E-30
2.58382E-02 2.93404E-30
2.65349E-02 2.80212E-30
2.72407E-02 2.62221E-30
2.79555E-02 2.40497E-30
2.86793E-02 2.16248E-30
2.94120E-02 1.90677E-30
3.01537E-02 1.64890E-30
3.09043E-02 1.39828E-30
3.16639E-02 1.16242E-30
3.24324E-02 9.46813E-31
3.32098E-02 7.55005E-31
3.39961E-02 5.88816E-31
3.47912E-02 4.48579E-31
3.55952E-02 3.33439E-31
3.64081E-02 2.41644E-31
3.72297E-02 1.70826E-31
3.80602E-02 1.18253E-31
3.88995E-02 8.10402E-32
3.97476E-02 5.63245E-32
4.06044E-02 4.13975E-32
4.14700E-02 3.37988E-32
4.23443E-02 3.13760E-32
4.32273E-02 3.23142E-32
4.41190E-02 3.51423E-32
4.50194E-02 3.87191E-32
4.59284E-02 4.22069E-32
4.68461E-02 4.50360E-32
4.87074E-02 4.75292E-32
5.06030E-02 4.54193E-32
5.25328E-02 3.96267E-32
5.44967E-02 3.17597E-32
5.64946E-02 2.34257E-32
5.85262E-02 1.58542E-32
6.05914E-02 9.76615E-33
6.26901E-02 5.40723E-33
6.48222E-02 2.66814E-33
6.69873E-02 1.23016E-33
6.91854E-02 6.96519E-34
7.14163E-02 6.89116E-34
7.36799E-02 9.05412E-34
7.59760E-02 1.14014E-33
7.83043E-02 1.28136E-33
8.06647E-02 1.29151E-33
8.30571E-02 1.18264E-33
8.54812E-02 9.92716E-34
8.79369E-02 7.66644E-34
9.04240E-02 5.43841E-34
9.29422E-02 3.51857E-34
9.54915E-02 2.04917E-34
9.80716E-02 1.05676E-34
1.00682E-01 4.85984E-35
1.03323E-01 2.36873E-35
1.05995E-01 1.97162E-35
1.08696E-01 2.65397E-35
1.11427E-01 3.63924E-35
1.14188E-01 4.43040E-35
1.16978E-01 4.78790E-35
1.19797E-01 4.67097E-35
1.22645E-01 4.16620E-35
1.25522E-01 3.42036E-35
1.28428E-01 2.58799E-35
1.31361E-01 1.79743E-35
1.34323E-01 1.13443E-35
1.37313E-01 6.39854E-36
1.40330E-01 3.16626E-36
1.43375E-01 1.41317E-36
1.46447E-01 7.65274E-37
1.49545E-01 8.16182E-37
1.52671E-01 1.20363E-36
1.55823E-01 1.65266E-36
1.59001E-01 1.98937E-36
1.62205E-01 2.13284E-36
1.65435E-01 2.07457E-36
1.68690E-01 1.85291E-36
1.71970E-01 1.52873E-36
1.75276E-01 1.16593E-36
1.78606E-01 8.18346E-37
1.81961E-01 5.23144E-37
1.85340E-01 2.99294E-37
1.88743E-01 1.49899E-37
1.92169E-01 6.65162E-38
1.95619E-01 3.40290E-38
1.99092E-01 3.51264E-38
2.02589E-01 5.36939E-38
2.06107E-01 7.69024E-38
2.09649E-01 9.60655E-38
2.13212E-01 1.06597E-37
2.16797E-01 1.07272E-37
2.20404E-01 9.92579E-38
2.24032E-01 8.50683E-38
2.27680E-01 6.76924E-38
2.31350E-01 4.98825E-38
2.35040E-01 3.37862E-38
2.38751E-01 1.00000E-45
2.42481E-01 1.00000E-45
2.46231E-01 1.00000E-45
2.50000E-01 1.00000E-45
2.53788E-01 1.00000E-45
2.57595E-01 1.00000E-45
2.61421E-01 1.00000E-45
2.65264E-01 1.00000E-45
2.69126E-01 1.00000E-45
2.73005E-01 1.00000E-45
2.76901E-01 1.00000E-45
2.80814E-01 1.00000E-45
2.84744E-01 1.00000E-45
2.88691E-01 1.00000E-45
2.92653E-01 1.00000E-45
2.96632E-01 1.00000E-45
3.00625E-01 1.00000E-45
3.04634E-01 1.00000E-45
3.08658E-01 1.00000E-45
3.12697E-01 1.00000E-45
3.16749E-01 1.00000E-45
3.20816E-01 1.00000E-45
3.24896E-01 1.00000E-45
3.28990E-01 1.00000E-45
3.33097E-01 1.00000E-45
3.37216E-01 1.00000E-45
3.41348E-01 1.00000E-45
3.45492E-01 1.00000E-45
3.49647E-01 1.00000E-45
3.53814E-01 1.00000E-45
3.57992E-01 1.00000E-45
3.62181E-01 1.00000E-45
3.66381E-01 1.00000E-45
3.70590E-01 1.00000E-45
3.74810E-01 1.00000E-45
3.79039E-01 1.00000E-45
3.83277E-01 1.00000E-45
3.87524E-01 1.00000E-45
3.91780E-01 1.00000E-45
3.96044E-01 1.00000E-45
4.00316E-01 1.00000E-45
4.04596E-01 1.00000E-45
4.08882E-01 1.00000E-45
4.13176E-01 1.00000E-45
4.17476E-01 1.00000E-45
4.21783E-01 1.00000E-45
4.26095E-01 1.00000E-45
4.30413E-01 1.00000E-45
4.34737E-01 1.00000E-45
4.39065E-01 1.00000E-45
4.43398E-01 1.00000E-45
4.47736E-01 1.00000E-45
4.52077E-01 1.00000E-45
4.56422E-01 1.00000E-45
4.60770E-01 1.00000E-45
4.65122E-01 1.00000E-45
4.69476E-01 1.00000E-45
4.73832E-01 1.00000E-45
4.78190E-01 1.00000E-45
4.82550E-01 1.00000E-45
4.86912E-01 1.00000E-45
4.91274E-01 1.00000E-45
4.95637E-01 1.00000E-45
5.00000E-01 1.00000E-45
5.04363E-01 1.00000E-45
5.08726E-01 1.00000E-45
5.13088E-01 1.00000E-45
5.17450E-01 1.00000E-45
5.21810E-01 1.00000E-45
5.26168E-01 1.00000E-45
5.30524E-01 1.00000E-45
5.34878E-01 1.00000E-45
5.39230E-01 1.00000E-45
5.43578E-01 1.00000E-45
5.47923E-01 1.00000E-45
5.52264E-01 1.00000E-45
5.56602E-01 1.00000E-45
5.60935E-01 1.00000E-45
5.65263E-01 1.00000E-45
5.69587E-01 1.00000E-45
5.73905E-01 1.00000E-45
5.78217E-01 1.00000E-45
5.82524E-01 1.00000E-45
5.86824E-01 1.00000E-45
5.91118E-01 1.00000E-45
5.95404E-01 1.00000E-45
5.99684E-01 1.00000E-45
6.03956E-01 1.00000E-45
6.08220E-01 1.00000E-45
6.12476E-01 1.00000E-45
6.16723E-01 1.00000E-45
6.20961E-01 1.00000E-45
6.25190E-01 1.00000E-45
6.29410E-01 1.00000E-45
6.33619E-01 1.00000E-45
6.37819E-01 1.00000E-45
6.42008E-01 1.00000E-45
6.46186E-01 1.00000E-45
6.50353E-01 1.00000E-45
6.54508E-01 1.00000E-45
6.58652E-01 1.00000E-45
6.62784E-01 1.00000E-45
6.66903E-01 1.00000E-45
6.71010E-01 1.00000E-45
6.75104E-01 1.00000E-45
6.79184E-01 1.00000E-45
6.83251E-01 1.00000E-45
6.87303E-01 1.00000E-45
6.91342E-01 1.00000E-45
6.95366E-01 1.00000E-45
6.99375E-01 1.00000E-45
7.03368E-01 1.00000E-45
7.07347E-01 1.00000E-45
7.11309E-01 1.00000E-45
7.15256E-01 1.00000E-45
7.19186E-01 1.00000E-45
7.23099E-01 1.00000E-45
7.26995E-01 1.00000E-45
7.30874E-01 1.00000E-45
7.34736E-01 1.00000E-45
7.38579E-01 1.00000E-45
7.42405E-01 1.00000E-45
7.46212E-01 1.00000E-45
7.50000E-01 1.00000E-45
7.53769E-01 1.00000E-45
7.57519E-01 1.00000E-45
7.61249E-01 1.00000E-45
7.64960E-01 1.00000E-45
7.68650E-01 1.00000E-45
7.72320E-01 1.00000E-45
7.75968E-01 1.00000E-45
7.79596E-01 1.00000E-45
7.83203E-01 1.00000E-45
7.86788E-01 1.00000E-45
7.90351E-01 1.00000E-45
7.93893E-01 1.00000E-45
7.97411E-01 1.00000E-45
8.00908E-01 1.00000E-45
8.04381E-01 1.00000E-45
8.07831E-01 1.00000E-45
8.11257E-01 1.00000E-45
8.14660E-01 1.00000E-45
8.18039E-01 1.00000E-45
8.21394E-01 1.00000E-45
8.24724E-01 1.00000E-45
8.28030E-01 1.00000E-45
8.31310E-01 1.00000E-45
8.34565E-01 1.00000E-45
8.37795E-01 1.00000E-45
8.40999E-01 1.00000E-45
8.44177E-01 1.00000E-45
8.47329E-01 1.00000E-45
8.50455E-01 1.00000E-45
8.53553E-01 1.00000E-45
8.56625E-01 1.00000E-45
8.59670E-01 1.00000E-45
8.62687E-01 1.00000E-45
8.65677E-01 1.00000E-45
8.68639E-01 1.00000E-45
8.71572E-01 1.00000E-45
8.74478E-01 1.00000E-45
8.77355E-01 1.00000E-45
8.80203E-01 1.00000E-45
8.83022E-01 1.00000E-45
8.85812E-01 1.00000E-45
8.88573E-01 1.00000E-45
8.91304E-01 1.00000E-45
8.94005E-01 1.00000E-45
8.96677E-01 1.00000E-45
8.99318E-01 1.00000E-45
9.01928E-01 1.00000E-45
9.04508E-01 1.00000E-45
9.07058E-01 1.00000E-45
9.09576E-01 1.00000E-45
9.12063E-01 1.00000E-45
9.14519E-01 1.00000E-45
9.16943E-01 1.00000E-45
9.19335E-01 1.00000E-45
9.21696E-01 1.00000E-45
9.24024E-01 1.00000E-45
9.26320E-01 1.00000E-45
9.28584E-01 1.00000E-45
9.30815E-01 1.00000E-45
9.33013E-01 1.00000E-45
9.35178E-01 1.00000E-45
9.37310E-01 1.00000E-45
9.39409E-01 1.00000E-45
9.41474E-01 1.00000E-45
9.43505E-01 1.00000E-45
9.45503E-01 1.00000E-45
9.47467E-01 1.00000E-45
9.49397E-01 1.00000E-45
9.51293E-01 1.00000E-45
9.53154E-01 1.00000E-45
9.54981E-01 1.00000E-45
9.56773E-01 1.00000E-45
9.58530E-01 1.00000E-45
9.60252E-01 1.00000E-45
9.61940E-01 1.00000E-45
9.63592E-01 1.00000E-45
9.65209E-01 1.00000E-45
9.66790E-01 1.00000E-45
9.68336E-01 1.00000E-45
9.69846E-01 1.00000E-45
9.71321E-01 1.00000E-45
9.72759E-01 1.00000E-45
9.74162E-01 1.00000E-45
9.75528E-01 1.00000E-45
9.76858E-01 1.00000E-45
9.78152E-01 1.00000E-45
9.79410E-01 1.00000E-45
9.80631E-01 1.00000E-45
9.81815E-01 1.00000E-45
9.82963E-01 1.00000E-45
9.84074E-01 1.00000E-45
9.85148E-01 1.00000E-45
9.86185E-01 1.00000E-45
9.87185E-01 1.00000E-45
9.88148E-01 1.00000E-45
9.89074E-01 1.00000E-45
9.89962E-01 1.00000E-45
9.90814E-01 1.00000E-45
9.91627E-01 1.00000E-45
9.92404E-01 1.00000E-45
9.93143E-01 1.00000E-45
9.93844E-01 1.00000E-45
9.94508E-01 1.00000E-45
9.95134E-01 1.00000E-45
9.95722E-01 1.00000E-45
9.96273E-01 1.00000E-45
9.96786E-01 1.00000E-45
9.97261E-01 1.00000E-45
9.97698E-01 1.00000E-45
9.98097E-01 1.00000E-45
9.98459E-01 1.00000E-45
9.98782E-01 1.00000E-45
9.99067E-01 1.00000E-45
9.99315E-01 1.00000E-45
9.99524E-01 1.00000E-45
9.99695E-01 1.00000E-45
9.99829E-01 1.00000E-45
9.99924E-01 1.00000E-45
9.99981E-01 1.00000E-45
1.00000E+00 1.00000E-45
