 #
 # Subroutine ELSEPA. Elastic scattering of electrons and positrons
 #                    by neutral atoms and positive ions
 #
 # Projectile: positron
 # Kinetic energy = 7.00000E+08 eV = 2.57245E+07 a.u.
 #
 # WARNING: High-energy factorization with free-atom DF screening.
 #          Absorption, polarization and exchange corrections are
 #          switched off.
 #          Phase shifts are calculated for the bare nucleus.
 #          Scattering amplitudes are not evaluated.
 #
 # Element: Sn,  Z =  50,  atomic weight = 1.18710E+02 g/mol
 #
 # Nuclear model: Fermi distribution
 #                Average radius = 5.25871E-13 cm
 #                Skin thickness = 5.46000E-14 cm
 #
 # Number of electrons = 50
 #
 # Total elastic cross section = 5.07530E-18 cm**2 = 1.81242E-01 a0**2
 # 1st transport cross section = 9.97646E-27 cm**2 = 3.56266E-10 a0**2
 # 2nd transport cross section = 2.99232E-26 cm**2 = 1.06858E-09 a0**2
 #
 #
 # Differential cross section:                       MU=(1-COS(THETA))/2
 #
 #  THETA        MU          DCS          DCS        Sherman      error
 #  (deg)                 (cm**2/sr)   (a0**2/sr)    function
 #----------------------------------------------------------------------
0.00000E+00 2.18871E-08
7.61557E-13 1.93210E-08
1.18994E-12 1.80899E-08
1.71346E-12 1.67577E-08
2.33225E-12 1.53881E-08
3.04617E-12 1.40277E-08
3.85530E-12 1.27201E-08
4.75964E-12 1.14934E-08
5.75917E-12 1.03620E-08
6.85391E-12 9.32882E-09
8.04379E-12 8.39909E-09
9.32893E-12 7.56814E-09
1.07092E-11 6.82736E-09
1.21847E-11 6.16927E-09
1.37554E-11 5.58664E-09
1.54213E-11 5.07089E-09
1.71823E-11 4.61233E-09
1.90386E-11 4.20549E-09
2.09900E-11 3.84392E-09
2.30367E-11 3.52138E-09
2.51785E-11 3.23246E-09
2.74156E-11 2.97368E-09
2.97478E-11 2.74122E-09
3.21752E-11 2.53116E-09
3.46979E-11 2.34113E-09
3.73157E-11 2.16898E-09
4.00286E-11 2.01254E-09
4.28368E-11 1.86947E-09
4.57402E-11 1.73889E-09
4.87388E-11 1.61237E-09
5.18325E-11 1.49556E-09
5.50215E-11 1.39126E-09
5.83057E-11 1.29784E-09
6.16850E-11 1.21394E-09
6.51595E-11 1.13839E-09
6.87293E-11 1.07015E-09
7.23943E-11 1.00838E-09
7.61544E-11 9.42570E-10
1.18991E-10 5.10626E-10
1.71347E-10 2.94861E-10
2.33223E-10 1.80632E-10
3.04617E-10 1.16772E-10
3.85531E-10 7.94337E-11
4.75965E-10 5.63816E-11
5.75917E-10 4.13797E-11
6.85389E-10 3.11296E-11
8.04380E-10 2.39009E-11
9.32891E-10 1.86513E-11
1.07092E-09 1.47399E-11
1.21847E-09 1.17779E-11
1.37554E-09 9.50477E-12
1.54213E-09 7.74482E-12
1.71823E-09 6.36411E-12
1.90386E-09 5.27393E-12
2.09900E-09 4.40500E-12
2.30367E-09 3.70597E-12
2.51785E-09 3.13906E-12
2.74156E-09 2.67665E-12
2.97478E-09 2.29680E-12
3.21752E-09 1.98243E-12
3.46978E-09 1.72055E-12
3.73156E-09 1.50096E-12
4.00286E-09 1.31561E-12
4.28368E-09 1.15815E-12
4.57402E-09 1.02376E-12
4.87388E-09 9.08175E-13
5.18326E-09 8.08701E-13
5.50215E-09 7.22899E-13
5.83057E-09 6.48071E-13
6.16850E-09 5.82597E-13
6.51596E-09 5.25432E-13
6.87293E-09 4.75081E-13
7.23942E-09 4.30465E-13
7.61544E-09 3.91110E-13
1.18991E-08 1.66788E-13
1.71347E-08 8.23521E-14
2.33223E-08 4.51135E-14
3.04617E-08 2.67182E-14
3.85531E-08 1.68116E-14
4.75965E-08 1.11010E-14
5.75917E-08 7.62327E-15
6.85389E-08 5.40773E-15
8.04380E-08 3.94219E-15
9.32891E-08 2.94138E-15
1.07092E-07 2.23904E-15
1.21847E-07 1.73438E-15
1.37554E-07 1.36420E-15
1.54213E-07 1.08771E-15
1.71823E-07 8.77821E-16
1.90386E-07 7.16182E-16
2.09900E-07 5.90073E-16
2.30367E-07 4.90522E-16
2.51785E-07 4.11094E-16
2.74156E-07 3.47101E-16
2.97478E-07 2.95081E-16
3.21752E-07 2.52444E-16
3.46978E-07 2.17232E-16
3.73156E-07 1.87947E-16
4.00286E-07 1.63431E-16
4.28368E-07 1.42782E-16
4.57402E-07 1.25292E-16
4.87388E-07 1.10398E-16
5.18325E-07 9.76516E-17
5.50215E-07 8.66916E-17
5.83057E-07 7.72262E-17
6.16850E-07 6.90174E-17
6.51596E-07 6.18701E-17
6.87293E-07 5.56240E-17
7.23942E-07 5.01464E-17
7.61543E-07 4.53263E-17
1.18991E-06 1.85915E-17
1.71347E-06 8.97158E-18
2.33223E-06 4.84411E-18
3.04617E-06 2.83989E-18
3.85531E-06 1.77298E-18
4.75964E-06 1.16322E-18
5.75916E-06 7.94441E-19
6.85388E-06 5.60876E-19
8.04378E-06 4.07165E-19
9.32888E-06 3.02676E-19
1.07092E-05 2.29651E-19
1.21846E-05 1.77375E-19
1.37553E-05 1.39160E-19
1.54212E-05 1.10702E-19
1.71822E-05 8.91595E-20
1.90385E-05 7.25904E-20
2.09899E-05 5.97310E-20
2.30365E-05 4.95926E-20
2.51783E-05 4.15101E-20
2.74153E-05 3.50036E-20
2.97475E-05 2.97205E-20
3.21749E-05 2.53969E-20
3.46974E-05 2.18326E-20
3.73152E-05 1.88736E-20
4.00281E-05 1.64003E-20
4.28362E-05 1.43196E-20
4.57395E-05 1.25584E-20
4.87380E-05 1.10594E-20
5.18317E-05 9.77693E-21
5.50205E-05 8.67465E-21
5.83045E-05 7.72320E-21
6.16838E-05 6.89866E-21
6.51582E-05 6.18138E-21
6.87277E-05 5.55506E-21
7.23925E-05 5.00618E-21
7.61524E-05 4.51705E-21
9.21439E-05 3.07653E-21
1.09658E-04 2.16489E-21
1.28695E-04 1.56576E-21
1.49255E-04 1.15892E-21
1.71338E-04 8.75090E-22
1.94942E-04 6.72257E-22
2.20070E-04 5.24296E-22
2.46720E-04 4.14380E-22
2.74892E-04 3.31388E-22
3.04586E-04 2.67827E-22
3.35803E-04 2.18507E-22
3.68542E-04 1.79795E-22
4.02802E-04 1.49084E-22
4.38585E-04 1.24486E-22
4.75889E-04 1.04613E-22
5.14715E-04 8.84257E-23
5.55063E-04 7.51445E-23
5.96931E-04 6.41727E-23
6.40321E-04 5.50519E-23
6.85233E-04 4.74256E-23
7.31665E-04 4.10143E-23
7.79618E-04 3.55975E-23
8.29092E-04 3.09993E-23
8.80086E-04 2.70790E-23
9.32601E-04 2.37229E-23
9.86636E-04 2.08388E-23
1.04219E-03 1.83514E-23
1.09927E-03 1.61990E-23
1.15786E-03 1.43305E-23
1.21797E-03 1.27036E-23
1.27961E-03 1.12831E-23
1.34276E-03 1.00395E-23
1.40743E-03 8.94817E-24
1.47362E-03 7.98811E-24
1.54133E-03 7.14166E-24
1.61056E-03 6.39383E-24
1.68131E-03 5.73180E-24
1.75357E-03 5.14463E-24
1.82735E-03 4.62294E-24
1.90265E-03 4.15863E-24
1.97947E-03 3.74474E-24
2.05780E-03 3.37523E-24
2.13765E-03 3.04488E-24
2.21902E-03 2.74914E-24
2.30190E-03 2.48404E-24
2.38630E-03 2.24613E-24
2.47222E-03 2.03237E-24
2.55965E-03 1.84009E-24
2.64859E-03 1.66698E-24
2.73905E-03 1.51095E-24
2.83103E-03 1.37021E-24
2.92452E-03 1.24314E-24
3.01952E-03 1.12833E-24
3.11604E-03 1.02450E-24
3.21407E-03 9.30554E-25
3.31362E-03 8.45483E-25
3.41468E-03 7.68402E-25
3.51725E-03 6.98520E-25
3.62133E-03 6.35130E-25
3.72692E-03 5.77600E-25
3.83403E-03 5.25363E-25
3.94265E-03 4.77913E-25
4.05278E-03 4.34793E-25
4.16442E-03 3.95594E-25
4.27757E-03 3.59948E-25
4.39223E-03 3.27522E-25
4.50840E-03 2.98018E-25
4.62608E-03 2.71167E-25
4.74527E-03 2.46724E-25
4.86597E-03 2.24470E-25
4.98817E-03 2.04206E-25
5.11188E-03 1.85752E-25
5.23711E-03 1.68943E-25
5.36383E-03 1.53633E-25
5.49207E-03 1.39688E-25
5.62181E-03 1.26985E-25
5.75306E-03 1.15414E-25
5.88581E-03 1.04874E-25
6.02007E-03 9.52748E-26
6.15583E-03 8.65324E-26
6.29310E-03 7.85714E-26
6.43187E-03 7.13229E-26
6.57214E-03 6.47242E-26
6.71392E-03 5.87182E-26
6.85720E-03 5.32527E-26
7.00198E-03 4.82803E-26
7.14827E-03 4.37575E-26
7.29605E-03 3.96450E-26
7.44534E-03 3.59066E-26
7.59612E-03 3.25093E-26
7.97965E-03 2.53179E-26
8.37255E-03 1.96750E-26
8.77480E-03 1.52595E-26
9.18641E-03 1.18149E-26
9.60736E-03 9.13701E-27
1.00376E-02 7.06285E-27
1.04773E-02 5.46268E-27
1.09262E-02 4.23335E-27
1.13844E-02 3.29296E-27
1.18520E-02 2.57665E-27
1.23288E-02 2.03323E-27
1.28150E-02 1.62241E-27
1.33104E-02 1.31262E-27
1.38150E-02 1.07925E-27
1.43290E-02 9.03206E-28
1.48521E-02 7.69783E-28
1.53845E-02 6.67740E-28
1.59262E-02 5.88558E-28
1.64770E-02 5.25848E-28
1.70371E-02 4.74877E-28
1.76063E-02 4.32192E-28
1.81848E-02 3.95316E-28
1.87724E-02 3.62513E-28
1.93692E-02 3.32599E-28
1.99751E-02 3.04799E-28
2.05901E-02 2.78629E-28
2.12143E-02 2.53813E-28
2.18476E-02 2.30214E-28
2.24900E-02 2.07786E-28
2.31415E-02 1.86535E-28
2.38021E-02 1.66495E-28
2.44717E-02 1.47710E-28
2.51504E-02 1.30219E-28
2.58382E-02 1.14050E-28
2.65349E-02 9.92153E-29
2.72407E-02 8.57103E-29
2.79555E-02 7.35134E-29
2.86793E-02 6.25867E-29
2.94120E-02 5.28783E-29
3.01537E-02 4.43248E-29
3.09043E-02 3.68537E-29
3.16639E-02 3.03859E-29
3.24324E-02 2.48384E-29
3.32098E-02 2.01260E-29
3.39961E-02 1.61640E-29
3.47912E-02 1.28690E-29
3.55952E-02 1.01610E-29
3.64081E-02 7.96378E-30
3.72297E-02 6.20637E-30
3.80602E-02 4.82312E-30
3.88995E-02 3.75424E-30
3.97476E-02 2.94593E-30
4.06044E-02 2.35032E-30
4.14700E-02 1.92538E-30
4.23443E-02 1.63464E-30
4.32273E-02 1.44688E-30
4.41190E-02 1.33577E-30
4.50194E-02 1.27941E-30
4.59284E-02 1.25992E-30
4.68461E-02 1.26299E-30
4.87074E-02 1.29483E-30
5.06030E-02 1.31569E-30
5.25328E-02 1.29755E-30
5.44967E-02 1.23321E-30
5.64946E-02 1.12797E-30
5.85262E-02 9.93465E-31
6.05914E-02 8.43273E-31
6.26901E-02 6.90165E-31
6.48222E-02 5.44538E-31
6.69873E-02 4.13789E-31
6.91854E-02 3.02288E-31
7.14163E-02 2.11753E-31
7.36799E-02 1.41805E-31
7.59760E-02 9.05881E-32
7.83043E-02 5.53583E-32
8.06647E-02 3.29783E-32
8.30571E-02 2.03052E-32
8.54812E-02 1.44605E-32
8.79369E-02 1.29929E-32
9.04240E-02 1.39522E-32
9.29422E-02 1.58950E-32
9.54915E-02 1.78431E-32
9.80716E-02 1.92127E-32
1.00682E-01 1.97315E-32
1.03323E-01 1.93538E-32
1.05995E-01 1.81834E-32
1.08696E-01 1.64075E-32
1.11427E-01 1.42456E-32
1.14188E-01 1.19121E-32
1.16978E-01 9.59274E-33
1.19797E-01 7.43149E-33
1.22645E-01 5.52656E-33
1.25522E-01 3.93251E-33
1.28428E-01 2.66633E-33
1.31361E-01 1.71569E-33
1.34323E-01 1.04770E-33
1.37313E-01 6.17174E-34
1.40330E-01 3.73819E-34
1.43375E-01 2.67815E-34
1.46447E-01 2.53830E-34
1.49545E-01 2.93497E-34
1.52671E-01 3.56582E-34
1.55823E-01 4.21108E-34
1.59001E-01 4.72732E-34
1.62205E-01 5.03626E-34
1.65435E-01 5.11139E-34
1.68690E-01 4.96384E-34
1.71970E-01 4.62931E-34
1.75276E-01 4.15660E-34
1.78606E-01 3.59855E-34
1.81961E-01 3.00528E-34
1.85340E-01 2.41974E-34
1.88743E-01 1.87536E-34
1.92169E-01 1.39520E-34
1.95619E-01 9.92386E-35
1.99092E-01 6.71415E-35
2.02589E-01 4.29826E-35
2.06107E-01 2.60127E-35
2.09649E-01 1.51640E-35
2.13212E-01 9.21339E-36
2.16797E-01 6.91860E-36
2.20404E-01 7.11910E-36
2.24032E-01 8.80449E-36
2.27680E-01 1.11528E-35
2.31350E-01 1.35429E-35
2.35040E-01 1.55482E-35
2.38751E-01 1.69159E-35
2.42481E-01 1.75379E-35
2.46231E-01 1.74181E-35
2.50000E-01 1.66395E-35
2.53788E-01 1.53341E-35
2.57595E-01 1.36567E-35
2.61421E-01 1.17645E-35
2.65264E-01 9.80216E-36
2.69126E-01 7.89144E-36
2.73005E-01 6.12642E-36
2.76901E-01 4.57187E-36
2.80814E-01 3.26479E-36
2.84744E-01 2.21784E-36
2.88691E-01 1.42386E-36
2.92653E-01 8.61005E-37
2.96632E-01 4.97663E-37
3.00625E-01 2.97038E-37
3.04634E-01 2.20990E-37
3.08658E-01 2.32986E-37
3.12697E-01 3.00302E-37
3.16749E-01 3.95347E-37
3.20816E-01 4.96290E-37
3.24896E-01 5.87192E-37
3.28990E-01 6.57587E-37
3.33097E-01 7.01772E-37
3.37216E-01 7.18041E-37
3.41348E-01 7.07766E-37
3.45492E-01 6.74322E-37
3.49647E-01 6.22496E-37
3.53814E-01 5.57627E-37
3.57992E-01 4.84990E-37
3.62181E-01 4.09528E-37
3.66381E-01 3.35401E-37
3.70590E-01 2.65966E-37
3.74810E-01 2.03629E-37
3.79039E-01 1.49917E-37
3.83277E-01 1.05541E-37
3.87524E-01 7.05302E-38
3.91780E-01 4.43846E-38
3.96044E-01 2.62023E-38
4.00316E-01 1.48378E-38
4.04596E-01 9.01520E-39
4.08882E-01 7.43878E-39
4.13176E-01 8.87594E-39
4.17476E-01 1.22196E-38
4.21783E-01 1.65308E-38
4.26095E-01 2.10479E-38
4.30413E-01 2.51984E-38
4.34737E-01 2.85948E-38
4.39065E-01 3.09991E-38
4.43398E-01 3.23170E-38
4.47736E-01 3.25550E-38
4.52077E-01 3.18092E-38
4.56422E-01 3.02173E-38
4.60770E-01 2.79627E-38
4.65122E-01 2.52234E-38
4.69476E-01 2.21993E-38
4.73832E-01 1.90493E-38
4.78190E-01 1.59314E-38
4.82550E-01 1.29686E-38
4.86912E-01 1.02480E-38
4.91274E-01 7.84054E-39
4.95637E-01 5.78127E-39
5.00000E-01 1.00000E-45
5.04363E-01 1.00000E-45
5.08726E-01 1.00000E-45
5.13088E-01 1.00000E-45
5.17450E-01 1.00000E-45
5.21810E-01 1.00000E-45
5.26168E-01 1.00000E-45
5.30524E-01 1.00000E-45
5.34878E-01 1.00000E-45
5.39230E-01 1.00000E-45
5.43578E-01 1.00000E-45
5.47923E-01 1.00000E-45
5.52264E-01 1.00000E-45
5.56602E-01 1.00000E-45
5.60935E-01 1.00000E-45
5.65263E-01 1.00000E-45
5.69587E-01 1.00000E-45
5.73905E-01 1.00000E-45
5.78217E-01 1.00000E-45
5.82524E-01 1.00000E-45
5.86824E-01 1.00000E-45
5.91118E-01 1.00000E-45
5.95404E-01 1.00000E-45
5.99684E-01 1.00000E-45
6.03956E-01 1.00000E-45
6.08220E-01 1.00000E-45
6.12476E-01 1.00000E-45
6.16723E-01 1.00000E-45
6.20961E-01 1.00000E-45
6.25190E-01 1.00000E-45
6.29410E-01 1.00000E-45
6.33619E-01 1.00000E-45
6.37819E-01 1.00000E-45
6.42008E-01 1.00000E-45
6.46186E-01 1.00000E-45
6.50353E-01 1.00000E-45
6.54508E-01 1.00000E-45
6.58652E-01 1.00000E-45
6.62784E-01 1.00000E-45
6.66903E-01 1.00000E-45
6.71010E-01 1.00000E-45
6.75104E-01 1.00000E-45
6.79184E-01 1.00000E-45
6.83251E-01 1.00000E-45
6.87303E-01 1.00000E-45
6.91342E-01 1.00000E-45
6.95366E-01 1.00000E-45
6.99375E-01 1.00000E-45
7.03368E-01 1.00000E-45
7.07347E-01 1.00000E-45
7.11309E-01 1.00000E-45
7.15256E-01 1.00000E-45
7.19186E-01 1.00000E-45
7.23099E-01 1.00000E-45
7.26995E-01 1.00000E-45
7.30874E-01 1.00000E-45
7.34736E-01 1.00000E-45
7.38579E-01 1.00000E-45
7.42405E-01 1.00000E-45
7.46212E-01 1.00000E-45
7.50000E-01 1.00000E-45
7.53769E-01 1.00000E-45
7.57519E-01 1.00000E-45
7.61249E-01 1.00000E-45
7.64960E-01 1.00000E-45
7.68650E-01 1.00000E-45
7.72320E-01 1.00000E-45
7.75968E-01 1.00000E-45
7.79596E-01 1.00000E-45
7.83203E-01 1.00000E-45
7.86788E-01 1.00000E-45
7.90351E-01 1.00000E-45
7.93893E-01 1.00000E-45
7.97411E-01 1.00000E-45
8.00908E-01 1.00000E-45
8.04381E-01 1.00000E-45
8.07831E-01 1.00000E-45
8.11257E-01 1.00000E-45
8.14660E-01 1.00000E-45
8.18039E-01 1.00000E-45
8.21394E-01 1.00000E-45
8.24724E-01 1.00000E-45
8.28030E-01 1.00000E-45
8.31310E-01 1.00000E-45
8.34565E-01 1.00000E-45
8.37795E-01 1.00000E-45
8.40999E-01 1.00000E-45
8.44177E-01 1.00000E-45
8.47329E-01 1.00000E-45
8.50455E-01 1.00000E-45
8.53553E-01 1.00000E-45
8.56625E-01 1.00000E-45
8.59670E-01 1.00000E-45
8.62687E-01 1.00000E-45
8.65677E-01 1.00000E-45
8.68639E-01 1.00000E-45
8.71572E-01 1.00000E-45
8.74478E-01 1.00000E-45
8.77355E-01 1.00000E-45
8.80203E-01 1.00000E-45
8.83022E-01 1.00000E-45
8.85812E-01 1.00000E-45
8.88573E-01 1.00000E-45
8.91304E-01 1.00000E-45
8.94005E-01 1.00000E-45
8.96677E-01 1.00000E-45
8.99318E-01 1.00000E-45
9.01928E-01 1.00000E-45
9.04508E-01 1.00000E-45
9.07058E-01 1.00000E-45
9.09576E-01 1.00000E-45
9.12063E-01 1.00000E-45
9.14519E-01 1.00000E-45
9.16943E-01 1.00000E-45
9.19335E-01 1.00000E-45
9.21696E-01 1.00000E-45
9.24024E-01 1.00000E-45
9.26320E-01 1.00000E-45
9.28584E-01 1.00000E-45
9.30815E-01 1.00000E-45
9.33013E-01 1.00000E-45
9.35178E-01 1.00000E-45
9.37310E-01 1.00000E-45
9.39409E-01 1.00000E-45
9.41474E-01 1.00000E-45
9.43505E-01 1.00000E-45
9.45503E-01 1.00000E-45
9.47467E-01 1.00000E-45
9.49397E-01 1.00000E-45
9.51293E-01 1.00000E-45
9.53154E-01 1.00000E-45
9.54981E-01 1.00000E-45
9.56773E-01 1.00000E-45
9.58530E-01 1.00000E-45
9.60252E-01 1.00000E-45
9.61940E-01 1.00000E-45
9.63592E-01 1.00000E-45
9.65209E-01 1.00000E-45
9.66790E-01 1.00000E-45
9.68336E-01 1.00000E-45
9.69846E-01 1.00000E-45
9.71321E-01 1.00000E-45
9.72759E-01 1.00000E-45
9.74162E-01 1.00000E-45
9.75528E-01 1.00000E-45
9.76858E-01 1.00000E-45
9.78152E-01 1.00000E-45
9.79410E-01 1.00000E-45
9.80631E-01 1.00000E-45
9.81815E-01 1.00000E-45
9.82963E-01 1.00000E-45
9.84074E-01 1.00000E-45
9.85148E-01 1.00000E-45
9.86185E-01 1.00000E-45
9.87185E-01 1.00000E-45
9.88148E-01 1.00000E-45
9.89074E-01 1.00000E-45
9.89962E-01 1.00000E-45
9.90814E-01 1.00000E-45
9.91627E-01 1.00000E-45
9.92404E-01 1.00000E-45
9.93143E-01 1.00000E-45
9.93844E-01 1.00000E-45
9.94508E-01 1.00000E-45
9.95134E-01 1.00000E-45
9.95722E-01 1.00000E-45
9.96273E-01 1.00000E-45
9.96786E-01 1.00000E-45
9.97261E-01 1.00000E-45
9.97698E-01 1.00000E-45
9.98097E-01 1.00000E-45
9.98459E-01 1.00000E-45
9.98782E-01 1.00000E-45
9.99067E-01 1.00000E-45
9.99315E-01 1.00000E-45
9.99524E-01 1.00000E-45
9.99695E-01 1.00000E-45
9.99829E-01 1.00000E-45
9.99924E-01 1.00000E-45
9.99981E-01 1.00000E-45
1.00000E+00 1.00000E-45
