 #
 # Subroutine ELSEPA. Elastic scattering of electrons and positrons
 #                    by neutral atoms and positive ions
 #
 # Projectile: positron
 # Kinetic energy = 4.50000E+07 eV = 1.65372E+06 a.u.
 #
 # WARNING: High-energy factorization with free-atom DF screening.
 #          Absorption, polarization and exchange corrections are
 #          switched off.
 #          Phase shifts are calculated for the bare nucleus.
 #          Scattering amplitudes are not evaluated.
 #
 # Element: Sn,  Z =  50,  atomic weight = 1.18710E+02 g/mol
 #
 # Nuclear model: Fermi distribution
 #                Average radius = 5.25871E-13 cm
 #                Skin thickness = 5.46000E-14 cm
 #
 # Number of electrons = 50
 #
 # Total elastic cross section = 5.08756E-18 cm**2 = 1.81680E-01 a0**2
 # 1st transport cross section = 2.18049E-24 cm**2 = 7.78666E-08 a0**2
 # 2nd transport cross section = 6.39487E-24 cm**2 = 2.28365E-07 a0**2
 #
 #
 # Differential cross section:                       MU=(1-COS(THETA))/2
 #
 #  THETA        MU          DCS          DCS        Sherman      error
 #  (deg)                 (cm**2/sr)   (a0**2/sr)    function
 #----------------------------------------------------------------------
0.00000E+00 9.23826E-11
7.61557E-13 9.23314E-11
1.18994E-12 9.23028E-11
1.71346E-12 9.22679E-11
2.33225E-12 9.22267E-11
3.04617E-12 9.21792E-11
3.85530E-12 9.21255E-11
4.75964E-12 9.20655E-11
5.75917E-12 9.19993E-11
6.85391E-12 9.19269E-11
8.04379E-12 9.18484E-11
9.32893E-12 9.17636E-11
1.07092E-11 9.16728E-11
1.21847E-11 9.15758E-11
1.37554E-11 9.14729E-11
1.54213E-11 9.13638E-11
1.71823E-11 9.12488E-11
1.90386E-11 9.11279E-11
2.09900E-11 9.10010E-11
2.30367E-11 9.08683E-11
2.51785E-11 9.07297E-11
2.74156E-11 9.05854E-11
2.97478E-11 9.04354E-11
3.21752E-11 9.02796E-11
3.46979E-11 9.01182E-11
3.73157E-11 8.99513E-11
4.00286E-11 8.97789E-11
4.28368E-11 8.96009E-11
4.57402E-11 8.94176E-11
4.87388E-11 8.92289E-11
5.18325E-11 8.90349E-11
5.50215E-11 8.88357E-11
5.83057E-11 8.86313E-11
6.16850E-11 8.84218E-11
6.51595E-11 8.82073E-11
6.87293E-11 8.79878E-11
7.23943E-11 8.77634E-11
7.61544E-11 8.75342E-11
1.18991E-10 8.49880E-11
1.71347E-10 8.20479E-11
2.33223E-10 7.87784E-11
3.04617E-10 7.52715E-11
3.85531E-10 7.16082E-11
4.75965E-10 6.78630E-11
5.75917E-10 6.41015E-11
6.85389E-10 6.03735E-11
8.04380E-10 5.67166E-11
9.32891E-10 5.31815E-11
1.07092E-09 4.97950E-11
1.21847E-09 4.65752E-11
1.37554E-09 4.35331E-11
1.54213E-09 4.06684E-11
1.71823E-09 3.79814E-11
1.90386E-09 3.54769E-11
2.09900E-09 3.31490E-11
2.30367E-09 3.09897E-11
2.51785E-09 2.89899E-11
2.74156E-09 2.71357E-11
2.97478E-09 2.54192E-11
3.21752E-09 2.38335E-11
3.46978E-09 2.23687E-11
3.73156E-09 2.10151E-11
4.00286E-09 1.97638E-11
4.28368E-09 1.86032E-11
4.57402E-09 1.75277E-11
4.87388E-09 1.65313E-11
5.18326E-09 1.56072E-11
5.50215E-09 1.47493E-11
5.83057E-09 1.39518E-11
6.16850E-09 1.32072E-11
6.51596E-09 1.25130E-11
6.87293E-09 1.18655E-11
7.23942E-09 1.12607E-11
7.61544E-09 1.06952E-11
1.18991E-08 6.56036E-12
1.71347E-08 4.26119E-12
2.33223E-08 2.82104E-12
3.04617E-08 1.92461E-12
3.85531E-08 1.34838E-12
4.75965E-08 9.68526E-13
5.75917E-08 7.12692E-13
6.85389E-08 5.36569E-13
8.04380E-08 4.12709E-13
9.32891E-08 3.23932E-13
1.07092E-07 2.58747E-13
1.21847E-07 2.09816E-13
1.37554E-07 1.72337E-13
1.54213E-07 1.43037E-13
1.71823E-07 1.19742E-13
1.90386E-07 1.01035E-13
2.09900E-07 8.58368E-14
2.30367E-07 7.33631E-14
2.51785E-07 6.30384E-14
2.74156E-07 5.44161E-14
2.97478E-07 4.71510E-14
3.21752E-07 4.10318E-14
3.46978E-07 3.58544E-14
3.73156E-07 3.14536E-14
4.00286E-07 2.76963E-14
4.28368E-07 2.44692E-14
4.57402E-07 2.16910E-14
4.87388E-07 1.92919E-14
5.18325E-07 1.72122E-14
5.50215E-07 1.54031E-14
5.83057E-07 1.38242E-14
6.16850E-07 1.24409E-14
6.51596E-07 1.12267E-14
6.87293E-07 1.01582E-14
7.23942E-07 9.21487E-15
7.61543E-07 8.37968E-15
1.18991E-06 3.62017E-15
1.71347E-06 1.81903E-15
2.33223E-06 1.01164E-15
3.04617E-06 6.05656E-16
3.85531E-06 3.83808E-16
4.75964E-06 2.54577E-16
5.75916E-06 1.75323E-16
6.85388E-06 1.24605E-16
8.04378E-06 9.09589E-17
9.32888E-06 6.79387E-17
1.07092E-05 5.17632E-17
1.21846E-05 4.01300E-17
1.37553E-05 3.15908E-17
1.54212E-05 2.52082E-17
1.71822E-05 2.03599E-17
1.90385E-05 1.66192E-17
2.09899E-05 1.37077E-17
2.30365E-05 1.14059E-17
2.51783E-05 9.56616E-18
2.74153E-05 8.08162E-18
2.97475E-05 6.87353E-18
3.21749E-05 5.88281E-18
3.46974E-05 5.06449E-18
3.73152E-05 4.38389E-18
4.00281E-05 3.81407E-18
4.28362E-05 3.33395E-18
4.57395E-05 2.92698E-18
4.87380E-05 2.58011E-18
5.18317E-05 2.28296E-18
5.50205E-05 2.02726E-18
5.83045E-05 1.80630E-18
6.16838E-05 1.61462E-18
6.51582E-05 1.44770E-18
6.87277E-05 1.30182E-18
7.23925E-05 1.17386E-18
7.61524E-05 1.06130E-18
9.21439E-05 7.25729E-19
1.09658E-04 5.12772E-19
1.28695E-04 3.72465E-19
1.49255E-04 2.76963E-19
1.71338E-04 2.10183E-19
1.94942E-04 1.62346E-19
2.20070E-04 1.27363E-19
2.46720E-04 1.01307E-19
2.74892E-04 8.15770E-20
3.04586E-04 6.64208E-20
3.35803E-04 5.46216E-20
3.68542E-04 4.53272E-20
4.02802E-04 3.79257E-20
4.38585E-04 3.19731E-20
4.75889E-04 2.71424E-20
5.14715E-04 2.31891E-20
5.55063E-04 1.99292E-20
5.96931E-04 1.72215E-20
6.40321E-04 1.49578E-20
6.85233E-04 1.30536E-20
7.31665E-04 1.14424E-20
7.79618E-04 1.00719E-20
8.29092E-04 8.90020E-21
8.80086E-04 7.89375E-21
9.32601E-04 7.02535E-21
9.86636E-04 6.27290E-21
1.04219E-03 5.61837E-21
1.09927E-03 5.04684E-21
1.15786E-03 4.54602E-21
1.21797E-03 4.10566E-21
1.27961E-03 3.71725E-21
1.34276E-03 3.37360E-21
1.40743E-03 3.06865E-21
1.47362E-03 2.79732E-21
1.54133E-03 2.55525E-21
1.61056E-03 2.33874E-21
1.68131E-03 2.14462E-21
1.75357E-03 1.97017E-21
1.82735E-03 1.81307E-21
1.90265E-03 1.67127E-21
1.97947E-03 1.54302E-21
2.05780E-03 1.42681E-21
2.13765E-03 1.32130E-21
2.21902E-03 1.22534E-21
2.30190E-03 1.13790E-21
2.38630E-03 1.05810E-21
2.47222E-03 9.85156E-22
2.55965E-03 9.18368E-22
2.64859E-03 8.57124E-22
2.73905E-03 8.00884E-22
2.83103E-03 7.49167E-22
2.92452E-03 7.01542E-22
3.01952E-03 6.57627E-22
3.11604E-03 6.17083E-22
3.21407E-03 5.79605E-22
3.31362E-03 5.44918E-22
3.41468E-03 5.12776E-22
3.51725E-03 4.82960E-22
3.62133E-03 4.55273E-22
3.72692E-03 4.29531E-22
3.83403E-03 4.05576E-22
3.94265E-03 3.83261E-22
4.05278E-03 3.62454E-22
4.16442E-03 3.43032E-22
4.27757E-03 3.24888E-22
4.39223E-03 3.07924E-22
4.50840E-03 2.92047E-22
4.62608E-03 2.77174E-22
4.74527E-03 2.63232E-22
4.86597E-03 2.50153E-22
4.98817E-03 2.37869E-22
5.11188E-03 2.26329E-22
5.23711E-03 2.15476E-22
5.36383E-03 2.05261E-22
5.49207E-03 1.95643E-22
5.62181E-03 1.86578E-22
5.75306E-03 1.78029E-22
5.88581E-03 1.69961E-22
6.02007E-03 1.62343E-22
6.15583E-03 1.55144E-22
6.29310E-03 1.48338E-22
6.43187E-03 1.41899E-22
6.57214E-03 1.35803E-22
6.71392E-03 1.30029E-22
6.85720E-03 1.24557E-22
7.00198E-03 1.19368E-22
7.14827E-03 1.14445E-22
7.29605E-03 1.09771E-22
7.44534E-03 1.05333E-22
7.59612E-03 1.01114E-22
7.97965E-03 9.14507E-23
8.37255E-03 8.29075E-23
8.77480E-03 7.53326E-23
9.18641E-03 6.85977E-23
9.60736E-03 6.25938E-23
1.00376E-02 5.72278E-23
1.04773E-02 5.24204E-23
1.09262E-02 4.81037E-23
1.13844E-02 4.42189E-23
1.18520E-02 4.07153E-23
1.23288E-02 3.75492E-23
1.28150E-02 3.46824E-23
1.33104E-02 3.20817E-23
1.38150E-02 2.97181E-23
1.43290E-02 2.75662E-23
1.48521E-02 2.56039E-23
1.53845E-02 2.38114E-23
1.59262E-02 2.21716E-23
1.64770E-02 2.06692E-23
1.70371E-02 1.92905E-23
1.76063E-02 1.80238E-23
1.81848E-02 1.68582E-23
1.87724E-02 1.57843E-23
1.93692E-02 1.47936E-23
1.99751E-02 1.38786E-23
2.05901E-02 1.30324E-23
2.12143E-02 1.22489E-23
2.18476E-02 1.15228E-23
2.24900E-02 1.08490E-23
2.31415E-02 1.02231E-23
2.38021E-02 9.64111E-24
2.44717E-02 9.09942E-24
2.51504E-02 8.59473E-24
2.58382E-02 8.12408E-24
2.65349E-02 7.68475E-24
2.72407E-02 7.27430E-24
2.79555E-02 6.89050E-24
2.86793E-02 6.53130E-24
2.94120E-02 6.19486E-24
3.01537E-02 5.87948E-24
3.09043E-02 5.58359E-24
3.16639E-02 5.30580E-24
3.24324E-02 5.04479E-24
3.32098E-02 4.79937E-24
3.39961E-02 4.56845E-24
3.47912E-02 4.35101E-24
3.55952E-02 4.14613E-24
3.64081E-02 3.95296E-24
3.72297E-02 3.77072E-24
3.80602E-02 3.59866E-24
3.88995E-02 3.43613E-24
3.97476E-02 3.28249E-24
4.06044E-02 3.13719E-24
4.14700E-02 2.99968E-24
4.23443E-02 2.86948E-24
4.32273E-02 2.74613E-24
4.41190E-02 2.62920E-24
4.50194E-02 2.51830E-24
4.59284E-02 2.41306E-24
4.68461E-02 2.31315E-24
4.87074E-02 2.12806E-24
5.06030E-02 1.96073E-24
5.25328E-02 1.80918E-24
5.44967E-02 1.67167E-24
5.64946E-02 1.54669E-24
5.85262E-02 1.43290E-24
6.05914E-02 1.32914E-24
6.26901E-02 1.23437E-24
6.48222E-02 1.14769E-24
6.69873E-02 1.06829E-24
6.91854E-02 9.95460E-25
7.14163E-02 9.28564E-25
7.36799E-02 8.67040E-25
7.59760E-02 8.10383E-25
7.83043E-02 7.58146E-25
8.06647E-02 7.09926E-25
8.30571E-02 6.65364E-25
8.54812E-02 6.24136E-25
8.79369E-02 5.85951E-25
9.04240E-02 5.50548E-25
9.29422E-02 5.17690E-25
9.54915E-02 4.87166E-25
9.80716E-02 4.58781E-25
1.00682E-01 4.32361E-25
1.03323E-01 4.07748E-25
1.05995E-01 3.84798E-25
1.08696E-01 3.63380E-25
1.11427E-01 3.43375E-25
1.14188E-01 3.24675E-25
1.16978E-01 3.07181E-25
1.19797E-01 2.90803E-25
1.22645E-01 2.75457E-25
1.25522E-01 2.61068E-25
1.28428E-01 2.47567E-25
1.31361E-01 2.34891E-25
1.34323E-01 2.22980E-25
1.37313E-01 2.11781E-25
1.40330E-01 2.01245E-25
1.43375E-01 1.91325E-25
1.46447E-01 1.81982E-25
1.49545E-01 1.73174E-25
1.52671E-01 1.64868E-25
1.55823E-01 1.57029E-25
1.59001E-01 1.49628E-25
1.62205E-01 1.42636E-25
1.65435E-01 1.36027E-25
1.68690E-01 1.29776E-25
1.71970E-01 1.23862E-25
1.75276E-01 1.18262E-25
1.78606E-01 1.12959E-25
1.81961E-01 1.07933E-25
1.85340E-01 1.03168E-25
1.88743E-01 9.86487E-26
1.92169E-01 9.43598E-26
1.95619E-01 9.02881E-26
1.99092E-01 8.64208E-26
2.02589E-01 8.27461E-26
2.06107E-01 7.92530E-26
2.09649E-01 7.59310E-26
2.13212E-01 7.27706E-26
2.16797E-01 6.97627E-26
2.20404E-01 6.68988E-26
2.24032E-01 6.41710E-26
2.27680E-01 6.15718E-26
2.31350E-01 5.90944E-26
2.35040E-01 5.67320E-26
2.38751E-01 5.44786E-26
2.42481E-01 5.23284E-26
2.46231E-01 5.02761E-26
2.50000E-01 4.83163E-26
2.53788E-01 4.64445E-26
2.57595E-01 4.46560E-26
2.61421E-01 4.29466E-26
2.65264E-01 4.13124E-26
2.69126E-01 3.97494E-26
2.73005E-01 3.82542E-26
2.76901E-01 3.68234E-26
2.80814E-01 3.54538E-26
2.84744E-01 3.41425E-26
2.88691E-01 3.28865E-26
2.92653E-01 3.16833E-26
2.96632E-01 3.05302E-26
3.00625E-01 2.94250E-26
3.04634E-01 2.83654E-26
3.08658E-01 2.73491E-26
3.12697E-01 2.63742E-26
3.16749E-01 2.54388E-26
3.20816E-01 2.45410E-26
3.24896E-01 2.36791E-26
3.28990E-01 2.28516E-26
3.33097E-01 2.20567E-26
3.37216E-01 2.12931E-26
3.41348E-01 2.05594E-26
3.45492E-01 1.98542E-26
3.49647E-01 1.91763E-26
3.53814E-01 1.85245E-26
3.57992E-01 1.78976E-26
3.62181E-01 1.72946E-26
3.66381E-01 1.67144E-26
3.70590E-01 1.61561E-26
3.74810E-01 1.56186E-26
3.79039E-01 1.51013E-26
3.83277E-01 1.46031E-26
3.87524E-01 1.41232E-26
3.91780E-01 1.36611E-26
3.96044E-01 1.32157E-26
4.00316E-01 1.27866E-26
4.04596E-01 1.23730E-26
4.08882E-01 1.19743E-26
4.13176E-01 1.15899E-26
4.17476E-01 1.12192E-26
4.21783E-01 1.08617E-26
4.26095E-01 1.05168E-26
4.30413E-01 1.01840E-26
4.34737E-01 9.86287E-27
4.39065E-01 9.55294E-27
4.43398E-01 9.25376E-27
4.47736E-01 8.96492E-27
4.52077E-01 8.68601E-27
4.56422E-01 8.41666E-27
4.60770E-01 8.15649E-27
4.65122E-01 7.90515E-27
4.69476E-01 7.66230E-27
4.73832E-01 7.42764E-27
4.78190E-01 7.20084E-27
4.82550E-01 6.98161E-27
4.86912E-01 6.76967E-27
4.91274E-01 6.56475E-27
4.95637E-01 6.36658E-27
5.00000E-01 6.17493E-27
5.04363E-01 5.98955E-27
5.08726E-01 5.81021E-27
5.13088E-01 5.63669E-27
5.17450E-01 5.46878E-27
5.21810E-01 5.30628E-27
5.26168E-01 5.14899E-27
5.30524E-01 4.99674E-27
5.34878E-01 4.84933E-27
5.39230E-01 4.70660E-27
5.43578E-01 4.56839E-27
5.47923E-01 4.43453E-27
5.52264E-01 4.30487E-27
5.56602E-01 4.17927E-27
5.60935E-01 4.05758E-27
5.65263E-01 3.93967E-27
5.69587E-01 3.82541E-27
5.73905E-01 3.71467E-27
5.78217E-01 3.60734E-27
5.82524E-01 3.50329E-27
5.86824E-01 3.40243E-27
5.91118E-01 3.30463E-27
5.95404E-01 3.20979E-27
5.99684E-01 3.11783E-27
6.03956E-01 3.02863E-27
6.08220E-01 2.94212E-27
6.12476E-01 2.85819E-27
6.16723E-01 2.77677E-27
6.20961E-01 2.69777E-27
6.25190E-01 2.62111E-27
6.29410E-01 2.54672E-27
6.33619E-01 2.47452E-27
6.37819E-01 2.40445E-27
6.42008E-01 2.33643E-27
6.46186E-01 2.27039E-27
6.50353E-01 2.20628E-27
6.54508E-01 2.14403E-27
6.58652E-01 2.08358E-27
6.62784E-01 2.02487E-27
6.66903E-01 1.96786E-27
6.71010E-01 1.91249E-27
6.75104E-01 1.85870E-27
6.79184E-01 1.80644E-27
6.83251E-01 1.75568E-27
6.87303E-01 1.70635E-27
6.91342E-01 1.65842E-27
6.95366E-01 1.61185E-27
6.99375E-01 1.56659E-27
7.03368E-01 1.52260E-27
7.07347E-01 1.47984E-27
7.11309E-01 1.43828E-27
7.15256E-01 1.39788E-27
7.19186E-01 1.35860E-27
7.23099E-01 1.32041E-27
7.26995E-01 1.28328E-27
7.30874E-01 1.24718E-27
7.34736E-01 1.21207E-27
7.38579E-01 1.17793E-27
7.42405E-01 1.14472E-27
7.46212E-01 1.11242E-27
7.50000E-01 1.08100E-27
7.53769E-01 1.05044E-27
7.57519E-01 1.02071E-27
7.61249E-01 9.91791E-28
7.64960E-01 9.63652E-28
7.68650E-01 9.36273E-28
7.72320E-01 9.09633E-28
7.75968E-01 8.83710E-28
7.79596E-01 8.58483E-28
7.83203E-01 8.33933E-28
7.86788E-01 8.10040E-28
7.90351E-01 7.86786E-28
7.93893E-01 7.64152E-28
7.97411E-01 7.42120E-28
8.00908E-01 7.20675E-28
8.04381E-01 6.99798E-28
8.07831E-01 6.79475E-28
8.11257E-01 6.59690E-28
8.14660E-01 6.40427E-28
8.18039E-01 6.21673E-28
8.21394E-01 6.03413E-28
8.24724E-01 5.85633E-28
8.28030E-01 5.68321E-28
8.31310E-01 5.51463E-28
8.34565E-01 5.35047E-28
8.37795E-01 5.19062E-28
8.40999E-01 5.03494E-28
8.44177E-01 4.88334E-28
8.47329E-01 4.73570E-28
8.50455E-01 4.59191E-28
8.53553E-01 4.45187E-28
8.56625E-01 4.31548E-28
8.59670E-01 4.18265E-28
8.62687E-01 4.05328E-28
8.65677E-01 3.92727E-28
8.68639E-01 3.80455E-28
8.71572E-01 3.68501E-28
8.74478E-01 3.56859E-28
8.77355E-01 3.45520E-28
8.80203E-01 3.34476E-28
8.83022E-01 3.23719E-28
8.85812E-01 3.13243E-28
8.88573E-01 3.03040E-28
8.91304E-01 2.93102E-28
8.94005E-01 2.83424E-28
8.96677E-01 2.73999E-28
8.99318E-01 2.64820E-28
9.01928E-01 2.55881E-28
9.04508E-01 2.47176E-28
9.07058E-01 2.38700E-28
9.09576E-01 2.30447E-28
9.12063E-01 2.22411E-28
9.14519E-01 2.14587E-28
9.16943E-01 2.06970E-28
9.19335E-01 1.99556E-28
9.21696E-01 1.92338E-28
9.24024E-01 1.85312E-28
9.26320E-01 1.78475E-28
9.28584E-01 1.71821E-28
9.30815E-01 1.65346E-28
9.33013E-01 1.59046E-28
9.35178E-01 1.52917E-28
9.37310E-01 1.46955E-28
9.39409E-01 1.41157E-28
9.41474E-01 1.35518E-28
9.43505E-01 1.30035E-28
9.45503E-01 1.24704E-28
9.47467E-01 1.19523E-28
9.49397E-01 1.14488E-28
9.51293E-01 1.09596E-28
9.53154E-01 1.04843E-28
9.54981E-01 1.00227E-28
9.56773E-01 9.57453E-29
9.58530E-01 9.13946E-29
9.60252E-01 8.71724E-29
9.61940E-01 8.30761E-29
9.63592E-01 7.91032E-29
9.65209E-01 7.52512E-29
9.66790E-01 7.15178E-29
9.68336E-01 6.79007E-29
9.69846E-01 6.43977E-29
9.71321E-01 6.10068E-29
9.72759E-01 5.77257E-29
9.74162E-01 5.45526E-29
9.75528E-01 5.14855E-29
9.76858E-01 4.85226E-29
9.78152E-01 4.56621E-29
9.79410E-01 4.29023E-29
9.80631E-01 4.02416E-29
9.81815E-01 3.76782E-29
9.82963E-01 3.52108E-29
9.84074E-01 3.28379E-29
9.85148E-01 3.05580E-29
9.86185E-01 2.83698E-29
9.87185E-01 2.62719E-29
9.88148E-01 2.42632E-29
9.89074E-01 2.23425E-29
9.89962E-01 2.05086E-29
9.90814E-01 1.87604E-29
9.91627E-01 1.70970E-29
9.92404E-01 1.55172E-29
9.93143E-01 1.40203E-29
9.93844E-01 1.26054E-29
9.94508E-01 1.12715E-29
9.95134E-01 1.00180E-29
9.95722E-01 8.84402E-30
9.96273E-01 7.74897E-30
9.96786E-01 6.73219E-30
9.97261E-01 5.79308E-30
9.97698E-01 4.93110E-30
9.98097E-01 4.14574E-30
9.98459E-01 3.43655E-30
9.98782E-01 2.80310E-30
9.99067E-01 2.24505E-30
9.99315E-01 1.76205E-30
9.99524E-01 1.35384E-30
9.99695E-01 1.02017E-30
9.99829E-01 7.60850E-31
9.99924E-01 5.75728E-31
9.99981E-01 4.64698E-31
1.00000E+00 4.27698E-31
