 #
 # Subroutine ELSEPA. Elastic scattering of electrons and positrons
 #                    by neutral atoms and positive ions
 #
 # Projectile: positron
 # Kinetic energy = 8.00000E+07 eV = 2.93995E+06 a.u.
 #
 # WARNING: High-energy factorization with free-atom DF screening.
 #          Absorption, polarization and exchange corrections are
 #          switched off.
 #          Phase shifts are calculated for the bare nucleus.
 #          Scattering amplitudes are not evaluated.
 #
 # Element: Sn,  Z =  50,  atomic weight = 1.18710E+02 g/mol
 #
 # Nuclear model: Fermi distribution
 #                Average radius = 5.25871E-13 cm
 #                Skin thickness = 5.46000E-14 cm
 #
 # Number of electrons = 50
 #
 # Total elastic cross section = 5.08686E-18 cm**2 = 1.81655E-01 a0**2
 # 1st transport cross section = 7.30378E-25 cm**2 = 2.60823E-08 a0**2
 # 2nd transport cross section = 2.16236E-24 cm**2 = 7.72194E-08 a0**2
 #
 #
 # Differential cross section:                       MU=(1-COS(THETA))/2
 #
 #  THETA        MU          DCS          DCS        Sherman      error
 #  (deg)                 (cm**2/sr)   (a0**2/sr)    function
 #----------------------------------------------------------------------
0.00000E+00 2.89113E-10
7.61557E-13 2.88615E-10
1.18994E-12 2.88336E-10
1.71346E-12 2.87996E-10
2.33225E-12 2.87595E-10
3.04617E-12 2.87134E-10
3.85530E-12 2.86613E-10
4.75964E-12 2.86033E-10
5.75917E-12 2.85393E-10
6.85391E-12 2.84696E-10
8.04379E-12 2.83942E-10
9.32893E-12 2.83130E-10
1.07092E-11 2.82264E-10
1.21847E-11 2.81342E-10
1.37554E-11 2.80366E-10
1.54213E-11 2.79337E-10
1.71823E-11 2.78257E-10
1.90386E-11 2.77125E-10
2.09900E-11 2.75944E-10
2.30367E-11 2.74714E-10
2.51785E-11 2.73437E-10
2.74156E-11 2.72114E-10
2.97478E-11 2.70745E-10
3.21752E-11 2.69334E-10
3.46979E-11 2.67879E-10
3.73157E-11 2.66375E-10
4.00286E-11 2.64830E-10
4.28368E-11 2.63251E-10
4.57402E-11 2.61640E-10
4.87388E-11 2.59997E-10
5.18325E-11 2.58326E-10
5.50215E-11 2.56627E-10
5.83057E-11 2.54869E-10
6.16850E-11 2.53084E-10
6.51595E-11 2.51276E-10
6.87293E-11 2.49446E-10
7.23943E-11 2.47597E-10
7.61544E-11 2.45731E-10
1.18991E-10 2.25897E-10
1.71347E-10 2.05138E-10
2.33223E-10 1.84493E-10
3.04617E-10 1.64789E-10
3.85531E-10 1.46531E-10
4.75965E-10 1.29963E-10
5.75917E-10 1.15198E-10
6.85389E-10 1.02145E-10
8.04380E-10 9.07346E-11
9.32891E-10 8.07572E-11
1.07092E-09 7.20958E-11
1.21847E-09 6.45329E-11
1.37554E-09 5.79610E-11
1.54213E-09 5.22067E-11
1.71823E-09 4.71769E-11
1.90386E-09 4.27483E-11
2.09900E-09 3.88463E-11
2.30367E-09 3.53878E-11
2.51785E-09 3.23145E-11
2.74156E-09 2.95722E-11
2.97478E-09 2.71150E-11
3.21752E-09 2.49092E-11
3.46978E-09 2.29177E-11
3.73156E-09 2.10061E-11
4.00286E-09 1.92833E-11
4.28368E-09 1.77691E-11
4.57402E-09 1.64331E-11
4.87388E-09 1.52499E-11
5.18326E-09 1.41983E-11
5.50215E-09 1.32605E-11
5.83057E-09 1.22603E-11
6.16850E-09 1.13556E-11
6.51596E-09 1.05469E-11
6.87293E-09 9.82188E-12
7.23942E-09 9.16996E-12
7.61544E-09 8.58220E-12
1.18991E-08 4.45425E-12
1.71347E-08 2.50241E-12
2.33223E-08 1.51403E-12
3.04617E-08 9.78695E-13
3.85531E-08 6.67266E-13
4.75965E-08 4.73504E-13
5.75917E-08 3.46390E-13
6.85389E-08 2.59026E-13
8.04380E-08 1.97356E-13
9.32891E-08 1.52503E-13
1.07092E-07 1.19448E-13
1.21847E-07 9.46472E-14
1.37554E-07 7.58994E-14
1.54213E-07 6.14888E-14
1.71823E-07 5.03161E-14
1.90386E-07 4.15478E-14
2.09900E-07 3.46100E-14
2.30367E-07 2.90678E-14
2.51785E-07 2.46011E-14
2.74156E-07 2.09683E-14
2.97478E-07 1.79871E-14
3.21752E-07 1.55216E-14
3.46978E-07 1.34670E-14
3.73156E-07 1.17398E-14
4.00286E-07 1.02861E-14
4.28368E-07 9.05724E-15
4.57402E-07 7.99983E-15
4.87388E-07 7.09668E-15
5.18325E-07 6.31862E-15
5.50215E-07 5.64147E-15
5.83057E-07 5.05511E-15
6.16850E-07 4.54198E-15
6.51596E-07 4.09181E-15
6.87293E-07 3.69750E-15
7.23942E-07 3.34768E-15
7.61543E-07 3.03867E-15
1.18991E-06 1.28548E-15
1.71347E-06 6.31441E-16
2.33223E-06 3.44868E-16
3.04617E-06 2.03910E-16
3.85531E-06 1.28179E-16
4.75964E-06 8.45778E-17
5.75916E-06 5.80471E-17
6.85388E-06 4.11544E-17
8.04378E-06 2.99843E-17
9.32888E-06 2.23596E-17
1.07092E-05 1.70112E-17
1.21846E-05 1.31698E-17
1.37553E-05 1.03535E-17
1.54212E-05 8.25084E-18
1.71822E-05 6.65548E-18
1.90385E-05 5.42597E-18
2.09899E-05 4.47008E-18
2.30365E-05 3.71522E-18
2.51783E-05 3.11258E-18
2.74153E-05 2.62683E-18
2.97475E-05 2.23197E-18
3.21749E-05 1.90850E-18
3.46974E-05 1.64160E-18
3.73152E-05 1.41983E-18
4.00281E-05 1.23434E-18
4.28362E-05 1.07819E-18
4.57395E-05 9.45942E-19
4.87380E-05 8.33319E-19
5.18317E-05 7.36915E-19
5.50205E-05 6.54020E-19
5.83045E-05 5.82437E-19
6.16838E-05 5.20380E-19
6.51582E-05 4.66374E-19
6.87277E-05 4.19204E-19
7.23925E-05 3.77853E-19
7.61524E-05 3.41539E-19
9.21439E-05 2.33262E-19
1.09658E-04 1.64657E-19
1.28695E-04 1.19514E-19
1.49255E-04 8.88177E-20
1.71338E-04 6.73707E-20
1.94942E-04 5.20175E-20
2.20070E-04 4.07961E-20
2.46720E-04 3.24417E-20
2.74892E-04 2.61181E-20
3.04586E-04 2.12619E-20
3.35803E-04 1.74823E-20
3.68542E-04 1.45057E-20
4.02802E-04 1.21357E-20
4.38585E-04 1.02300E-20
4.75889E-04 8.68371E-21
5.14715E-04 7.41842E-21
5.55063E-04 6.37511E-21
5.96931E-04 5.50867E-21
6.40321E-04 4.78432E-21
6.85233E-04 4.17504E-21
7.31665E-04 3.65955E-21
7.79618E-04 3.22110E-21
8.29092E-04 2.84626E-21
8.80086E-04 2.52430E-21
9.32601E-04 2.24651E-21
9.86636E-04 2.00582E-21
1.04219E-03 1.79646E-21
1.09927E-03 1.61365E-21
1.15786E-03 1.45346E-21
1.21797E-03 1.31262E-21
1.27961E-03 1.18839E-21
1.34276E-03 1.07847E-21
1.40743E-03 9.80948E-22
1.47362E-03 8.94167E-22
1.54133E-03 8.16753E-22
1.61056E-03 7.47504E-22
1.68131E-03 6.85429E-22
1.75357E-03 6.29640E-22
1.82735E-03 5.79398E-22
1.90265E-03 5.34051E-22
1.97947E-03 4.93040E-22
2.05780E-03 4.55877E-22
2.13765E-03 4.22138E-22
2.21902E-03 3.91452E-22
2.30190E-03 3.63493E-22
2.38630E-03 3.37977E-22
2.47222E-03 3.14652E-22
2.55965E-03 2.93296E-22
2.64859E-03 2.73715E-22
2.73905E-03 2.55733E-22
2.83103E-03 2.39197E-22
2.92452E-03 2.23971E-22
3.01952E-03 2.09931E-22
3.11604E-03 1.96969E-22
3.21407E-03 1.84986E-22
3.31362E-03 1.73897E-22
3.41468E-03 1.63622E-22
3.51725E-03 1.54090E-22
3.62133E-03 1.45239E-22
3.72692E-03 1.37011E-22
3.83403E-03 1.29353E-22
3.94265E-03 1.22221E-22
4.05278E-03 1.15570E-22
4.16442E-03 1.09363E-22
4.27757E-03 1.03564E-22
4.39223E-03 9.81423E-23
4.50840E-03 9.30684E-23
4.62608E-03 8.83160E-23
4.74527E-03 8.38610E-23
4.86597E-03 7.96815E-23
4.98817E-03 7.57573E-23
5.11188E-03 7.20699E-23
5.23711E-03 6.86026E-23
5.36383E-03 6.53397E-23
5.49207E-03 6.22670E-23
5.62181E-03 5.93714E-23
5.75306E-03 5.66409E-23
5.88581E-03 5.40642E-23
6.02007E-03 5.16312E-23
6.15583E-03 4.93324E-23
6.29310E-03 4.71590E-23
6.43187E-03 4.51030E-23
6.57214E-03 4.31568E-23
6.71392E-03 4.13135E-23
6.85720E-03 3.95666E-23
7.00198E-03 3.79102E-23
7.14827E-03 3.63388E-23
7.29605E-03 3.48472E-23
7.44534E-03 3.34306E-23
7.59612E-03 3.20845E-23
7.97965E-03 2.90013E-23
8.37255E-03 2.62761E-23
8.77480E-03 2.38603E-23
9.18641E-03 2.17130E-23
9.60736E-03 1.97992E-23
1.00376E-02 1.80893E-23
1.04773E-02 1.65578E-23
1.09262E-02 1.51831E-23
1.13844E-02 1.39462E-23
1.18520E-02 1.28311E-23
1.23288E-02 1.18238E-23
1.28150E-02 1.09119E-23
1.33104E-02 1.00850E-23
1.38150E-02 9.33381E-24
1.43290E-02 8.65015E-24
1.48521E-02 8.02693E-24
1.53845E-02 7.45790E-24
1.59262E-02 6.93754E-24
1.64770E-02 6.46098E-24
1.70371E-02 6.02389E-24
1.76063E-02 5.62245E-24
1.81848E-02 5.25325E-24
1.87724E-02 4.91326E-24
1.93692E-02 4.59977E-24
1.99751E-02 4.31037E-24
2.05901E-02 4.04288E-24
2.12143E-02 3.79536E-24
2.18476E-02 3.56606E-24
2.24900E-02 3.35342E-24
2.31415E-02 3.15602E-24
2.38021E-02 2.97257E-24
2.44717E-02 2.80192E-24
2.51504E-02 2.64304E-24
2.58382E-02 2.49496E-24
2.65349E-02 2.35683E-24
2.72407E-02 2.22786E-24
2.79555E-02 2.10735E-24
2.86793E-02 1.99465E-24
2.94120E-02 1.88915E-24
3.01537E-02 1.79034E-24
3.09043E-02 1.69770E-24
3.16639E-02 1.61079E-24
3.24324E-02 1.52919E-24
3.32098E-02 1.45253E-24
3.39961E-02 1.38045E-24
3.47912E-02 1.31264E-24
3.55952E-02 1.24880E-24
3.64081E-02 1.18865E-24
3.72297E-02 1.13196E-24
3.80602E-02 1.07848E-24
3.88995E-02 1.02801E-24
3.97476E-02 9.80341E-25
4.06044E-02 9.35299E-25
4.14700E-02 8.92715E-25
4.23443E-02 8.52430E-25
4.32273E-02 8.14301E-25
4.41190E-02 7.78192E-25
4.50194E-02 7.43980E-25
4.59284E-02 7.11548E-25
4.68461E-02 6.80788E-25
4.87074E-02 6.23889E-25
5.06030E-02 5.72561E-25
5.25328E-02 5.26174E-25
5.44967E-02 4.84180E-25
5.64946E-02 4.46099E-25
5.85262E-02 4.11511E-25
6.05914E-02 3.80047E-25
6.26901E-02 3.51382E-25
6.48222E-02 3.25229E-25
6.69873E-02 3.01336E-25
6.91854E-02 2.79478E-25
7.14163E-02 2.59456E-25
7.36799E-02 2.41093E-25
7.59760E-02 2.24232E-25
7.83043E-02 2.08730E-25
8.06647E-02 1.94464E-25
8.30571E-02 1.81320E-25
8.54812E-02 1.69197E-25
8.79369E-02 1.58004E-25
9.04240E-02 1.47660E-25
9.29422E-02 1.38092E-25
9.54915E-02 1.29232E-25
9.80716E-02 1.21022E-25
1.00682E-01 1.13407E-25
1.03323E-01 1.06338E-25
1.05995E-01 9.97697E-26
1.08696E-01 9.36627E-26
1.11427E-01 8.79800E-26
1.14188E-01 8.26881E-26
1.16978E-01 7.77565E-26
1.19797E-01 7.31575E-26
1.22645E-01 6.88656E-26
1.25522E-01 6.48577E-26
1.28428E-01 6.11125E-26
1.31361E-01 5.76106E-26
1.34323E-01 5.43342E-26
1.37313E-01 5.12669E-26
1.40330E-01 4.83937E-26
1.43375E-01 4.57008E-26
1.46447E-01 4.31754E-26
1.49545E-01 4.08059E-26
1.52671E-01 3.85814E-26
1.55823E-01 3.64921E-26
1.59001E-01 3.45286E-26
1.62205E-01 3.26826E-26
1.65435E-01 3.09462E-26
1.68690E-01 2.93121E-26
1.71970E-01 2.77736E-26
1.75276E-01 2.63244E-26
1.78606E-01 2.49588E-26
1.81961E-01 2.36715E-26
1.85340E-01 2.24573E-26
1.88743E-01 2.13118E-26
1.92169E-01 2.02306E-26
1.95619E-01 1.92096E-26
1.99092E-01 1.82453E-26
2.02589E-01 1.73341E-26
2.06107E-01 1.64727E-26
2.09649E-01 1.56582E-26
2.13212E-01 1.48877E-26
2.16797E-01 1.41587E-26
2.20404E-01 1.34687E-26
2.24032E-01 1.28153E-26
2.27680E-01 1.21964E-26
2.31350E-01 1.16101E-26
2.35040E-01 1.10544E-26
2.38751E-01 1.05277E-26
2.42481E-01 1.00281E-26
2.46231E-01 9.55430E-27
2.50000E-01 9.10474E-27
2.53788E-01 8.67807E-27
2.57595E-01 8.27304E-27
2.61421E-01 7.88843E-27
2.65264E-01 7.52313E-27
2.69126E-01 7.17609E-27
2.73005E-01 6.84630E-27
2.76901E-01 6.53284E-27
2.80814E-01 6.23483E-27
2.84744E-01 5.95144E-27
2.88691E-01 5.68190E-27
2.92653E-01 5.42546E-27
2.96632E-01 5.18145E-27
3.00625E-01 4.94920E-27
3.04634E-01 4.72811E-27
3.08658E-01 4.51760E-27
3.12697E-01 4.31712E-27
3.16749E-01 4.12615E-27
3.20816E-01 3.94420E-27
3.24896E-01 3.77083E-27
3.28990E-01 3.60559E-27
3.33097E-01 3.44807E-27
3.37216E-01 3.29789E-27
3.41348E-01 3.15468E-27
3.45492E-01 3.01809E-27
3.49647E-01 2.88779E-27
3.53814E-01 2.76347E-27
3.57992E-01 2.64484E-27
3.62181E-01 2.53162E-27
3.66381E-01 2.42354E-27
3.70590E-01 2.32036E-27
3.74810E-01 2.22183E-27
3.79039E-01 2.12774E-27
3.83277E-01 2.03787E-27
3.87524E-01 1.95202E-27
3.91780E-01 1.87000E-27
3.96044E-01 1.79162E-27
4.00316E-01 1.71672E-27
4.04596E-01 1.64512E-27
4.08882E-01 1.57667E-27
4.13176E-01 1.51124E-27
4.17476E-01 1.44866E-27
4.21783E-01 1.38882E-27
4.26095E-01 1.33159E-27
4.30413E-01 1.27684E-27
4.34737E-01 1.22446E-27
4.39065E-01 1.17434E-27
4.43398E-01 1.12639E-27
4.47736E-01 1.08049E-27
4.52077E-01 1.03656E-27
4.56422E-01 9.94501E-28
4.60770E-01 9.54238E-28
4.65122E-01 9.15687E-28
4.69476E-01 8.78771E-28
4.73832E-01 8.43416E-28
4.78190E-01 8.09553E-28
4.82550E-01 7.77115E-28
4.86912E-01 7.46040E-28
4.91274E-01 7.16266E-28
4.95637E-01 6.87736E-28
5.00000E-01 6.60395E-28
5.04363E-01 6.34192E-28
5.08726E-01 6.09076E-28
5.13088E-01 5.85000E-28
5.17450E-01 5.61919E-28
5.21810E-01 5.39789E-28
5.26168E-01 5.18569E-28
5.30524E-01 4.98219E-28
5.34878E-01 4.78703E-28
5.39230E-01 4.59984E-28
5.43578E-01 4.42029E-28
5.47923E-01 4.24803E-28
5.52264E-01 4.08277E-28
5.56602E-01 3.92421E-28
5.60935E-01 3.77205E-28
5.65263E-01 3.62604E-28
5.69587E-01 3.48590E-28
5.73905E-01 3.35139E-28
5.78217E-01 3.22227E-28
5.82524E-01 3.09833E-28
5.86824E-01 2.97933E-28
5.91118E-01 2.86507E-28
5.95404E-01 2.75536E-28
5.99684E-01 2.65001E-28
6.03956E-01 2.54882E-28
6.08220E-01 2.45165E-28
6.12476E-01 2.35830E-28
6.16723E-01 2.26864E-28
6.20961E-01 2.18250E-28
6.25190E-01 2.09974E-28
6.29410E-01 2.02022E-28
6.33619E-01 1.94381E-28
6.37819E-01 1.87039E-28
6.42008E-01 1.79982E-28
6.46186E-01 1.73200E-28
6.50353E-01 1.66682E-28
6.54508E-01 1.60416E-28
6.58652E-01 1.54392E-28
6.62784E-01 1.48601E-28
6.66903E-01 1.43033E-28
6.71010E-01 1.37679E-28
6.75104E-01 1.32531E-28
6.79184E-01 1.27580E-28
6.83251E-01 1.22819E-28
6.87303E-01 1.18240E-28
6.91342E-01 1.13835E-28
6.95366E-01 1.09598E-28
6.99375E-01 1.05522E-28
7.03368E-01 1.01601E-28
7.07347E-01 9.78285E-29
7.11309E-01 9.41986E-29
7.15256E-01 9.07058E-29
7.19186E-01 8.73447E-29
7.23099E-01 8.41100E-29
7.26995E-01 8.09970E-29
7.30874E-01 7.80007E-29
7.34736E-01 7.51167E-29
7.38579E-01 7.23405E-29
7.42405E-01 6.96680E-29
7.46212E-01 6.70951E-29
7.50000E-01 6.46179E-29
7.53769E-01 6.22328E-29
7.57519E-01 5.99362E-29
7.61249E-01 5.77247E-29
7.64960E-01 5.55950E-29
7.68650E-01 5.35440E-29
7.72320E-01 5.15686E-29
7.75968E-01 4.96659E-29
7.79596E-01 4.78332E-29
7.83203E-01 4.60678E-29
7.86788E-01 4.43671E-29
7.90351E-01 4.27286E-29
7.93893E-01 4.11501E-29
7.97411E-01 3.96291E-29
8.00908E-01 3.81636E-29
8.04381E-01 3.67515E-29
8.07831E-01 3.53906E-29
8.11257E-01 3.40792E-29
8.14660E-01 3.28153E-29
8.18039E-01 3.15971E-29
8.21394E-01 3.04230E-29
8.24724E-01 2.92913E-29
8.28030E-01 2.82003E-29
8.31310E-01 2.71487E-29
8.34565E-01 2.61349E-29
8.37795E-01 2.51575E-29
8.40999E-01 2.42151E-29
8.44177E-01 2.33066E-29
8.47329E-01 2.24305E-29
8.50455E-01 2.15858E-29
8.53553E-01 2.07712E-29
8.56625E-01 1.99857E-29
8.59670E-01 1.92281E-29
8.62687E-01 1.84976E-29
8.65677E-01 1.77930E-29
8.68639E-01 1.71134E-29
8.71572E-01 1.64580E-29
8.74478E-01 1.58258E-29
8.77355E-01 1.52160E-29
8.80203E-01 1.46278E-29
8.83022E-01 1.40604E-29
8.85812E-01 1.35130E-29
8.88573E-01 1.29850E-29
8.91304E-01 1.24756E-29
8.94005E-01 1.19842E-29
8.96677E-01 1.15101E-29
8.99318E-01 1.10527E-29
9.01928E-01 1.06114E-29
9.04508E-01 1.01857E-29
9.07058E-01 9.77497E-30
9.09576E-01 9.37869E-30
9.12063E-01 8.99636E-30
9.14519E-01 8.62749E-30
9.16943E-01 8.27161E-30
9.19335E-01 7.92826E-30
9.21696E-01 7.59701E-30
9.24024E-01 7.27742E-30
9.26320E-01 6.96911E-30
9.28584E-01 6.67168E-30
9.30815E-01 6.38475E-30
9.33013E-01 6.10796E-30
9.35178E-01 5.84097E-30
9.37310E-01 5.58344E-30
9.39409E-01 5.33505E-30
9.41474E-01 5.09549E-30
9.43505E-01 4.86446E-30
9.45503E-01 4.64168E-30
9.47467E-01 4.42687E-30
9.49397E-01 4.21977E-30
9.51293E-01 4.02012E-30
9.53154E-01 3.82767E-30
9.54981E-01 3.64219E-30
9.56773E-01 3.46346E-30
9.58530E-01 3.29124E-30
9.60252E-01 3.12535E-30
9.61940E-01 2.96557E-30
9.63592E-01 2.81170E-30
9.65209E-01 2.66357E-30
9.66790E-01 2.52100E-30
9.68336E-01 2.38380E-30
9.69846E-01 2.25183E-30
9.71321E-01 2.12491E-30
9.72759E-01 2.00290E-30
9.74162E-01 1.88565E-30
9.75528E-01 1.77302E-30
9.76858E-01 1.66487E-30
9.78152E-01 1.56109E-30
9.79410E-01 1.46154E-30
9.80631E-01 1.36610E-30
9.81815E-01 1.27467E-30
9.82963E-01 1.18713E-30
9.84074E-01 1.10339E-30
9.85148E-01 1.02333E-30
9.86185E-01 9.46880E-31
9.87185E-01 8.73936E-31
9.88148E-01 8.04415E-31
9.89074E-01 7.38236E-31
9.89962E-01 6.75321E-31
9.90814E-01 6.15597E-31
9.91627E-01 5.58995E-31
9.92404E-01 5.05447E-31
9.93143E-01 4.54893E-31
9.93844E-01 4.07272E-31
9.94508E-01 3.62530E-31
9.95134E-01 3.20614E-31
9.95722E-01 2.81476E-31
9.96273E-01 2.45071E-31
9.96786E-01 2.11356E-31
9.97261E-01 1.80292E-31
9.97698E-01 1.51844E-31
9.98097E-01 1.25978E-31
9.98459E-01 1.02665E-31
9.98782E-01 8.18774E-32
9.99067E-01 6.35915E-32
9.99315E-01 4.77859E-32
9.99524E-01 3.44428E-32
9.99695E-01 2.35466E-32
9.99829E-01 1.50848E-32
9.99924E-01 9.04757E-33
9.99981E-01 5.42801E-33
1.00000E+00 4.22215E-33
