 #
 # Subroutine ELSEPA. Elastic scattering of electrons and positrons
 #                    by neutral atoms and positive ions
 #
 # Projectile: positron
 # Kinetic energy = 5.00000E+06 eV = 1.83747E+05 a.u.
 #
 # WARNING: High-energy factorization with free-atom DF screening.
 #          Absorption, polarization and exchange corrections are
 #          switched off.
 #          Phase shifts are calculated for the bare nucleus.
 #          Scattering amplitudes are not evaluated.
 #
 # Element: Sn,  Z =  50,  atomic weight = 1.18710E+02 g/mol
 #
 # Nuclear model: Fermi distribution
 #                Average radius = 5.25871E-13 cm
 #                Skin thickness = 5.46000E-14 cm
 #
 # Number of electrons = 50
 #
 # Total elastic cross section = 5.13403E-18 cm**2 = 1.83339E-01 a0**2
 # 1st transport cross section = 1.08137E-22 cm**2 = 3.86163E-06 a0**2
 # 2nd transport cross section = 3.11399E-22 cm**2 = 1.11203E-05 a0**2
 #
 #
 # Differential cross section:                       MU=(1-COS(THETA))/2
 #
 #  THETA        MU          DCS          DCS        Sherman      error
 #  (deg)                 (cm**2/sr)   (a0**2/sr)    function
 #----------------------------------------------------------------------
0.00000E+00 1.35462E-12
7.61557E-13 1.35461E-12
1.18994E-12 1.35460E-12
1.71346E-12 1.35459E-12
2.33225E-12 1.35459E-12
3.04617E-12 1.35458E-12
3.85530E-12 1.35456E-12
4.75964E-12 1.35455E-12
5.75917E-12 1.35454E-12
6.85391E-12 1.35452E-12
8.04379E-12 1.35450E-12
9.32893E-12 1.35448E-12
1.07092E-11 1.35446E-12
1.21847E-11 1.35444E-12
1.37554E-11 1.35442E-12
1.54213E-11 1.35440E-12
1.71823E-11 1.35437E-12
1.90386E-11 1.35434E-12
2.09900E-11 1.35431E-12
2.30367E-11 1.35429E-12
2.51785E-11 1.35425E-12
2.74156E-11 1.35422E-12
2.97478E-11 1.35419E-12
3.21752E-11 1.35415E-12
3.46979E-11 1.35412E-12
3.73157E-11 1.35408E-12
4.00286E-11 1.35404E-12
4.28368E-11 1.35400E-12
4.57402E-11 1.35396E-12
4.87388E-11 1.35392E-12
5.18325E-11 1.35387E-12
5.50215E-11 1.35383E-12
5.83057E-11 1.35378E-12
6.16850E-11 1.35373E-12
6.51595E-11 1.35368E-12
6.87293E-11 1.35363E-12
7.23943E-11 1.35358E-12
7.61544E-11 1.35352E-12
1.18991E-10 1.35291E-12
1.71347E-10 1.35217E-12
2.33223E-10 1.35129E-12
3.04617E-10 1.35028E-12
3.85531E-10 1.34913E-12
4.75965E-10 1.34786E-12
5.75917E-10 1.34645E-12
6.85389E-10 1.34491E-12
8.04380E-10 1.34324E-12
9.32891E-10 1.34144E-12
1.07092E-09 1.33951E-12
1.21847E-09 1.33746E-12
1.37554E-09 1.33527E-12
1.54213E-09 1.33297E-12
1.71823E-09 1.33054E-12
1.90386E-09 1.32798E-12
2.09900E-09 1.32530E-12
2.30367E-09 1.32251E-12
2.51785E-09 1.31959E-12
2.74156E-09 1.31655E-12
2.97478E-09 1.31340E-12
3.21752E-09 1.31014E-12
3.46978E-09 1.30676E-12
3.73156E-09 1.30326E-12
4.00286E-09 1.29966E-12
4.28368E-09 1.29595E-12
4.57402E-09 1.29213E-12
4.87388E-09 1.28820E-12
5.18326E-09 1.28418E-12
5.50215E-09 1.28005E-12
5.83057E-09 1.27582E-12
6.16850E-09 1.27149E-12
6.51596E-09 1.26706E-12
6.87293E-09 1.26255E-12
7.23942E-09 1.25793E-12
7.61544E-09 1.25323E-12
1.18991E-08 1.20169E-12
1.71347E-08 1.14336E-12
2.33223E-08 1.08036E-12
3.04617E-08 1.01467E-12
3.85531E-08 9.48062E-13
4.75965E-08 8.82047E-13
5.75917E-08 8.17819E-13
6.85389E-08 7.56270E-13
8.04380E-08 6.98019E-13
9.32891E-08 6.43442E-13
1.07092E-07 5.92722E-13
1.21847E-07 5.45891E-13
1.37554E-07 5.02867E-13
1.54213E-07 4.63489E-13
1.71823E-07 4.27547E-13
1.90386E-07 3.94803E-13
2.09900E-07 3.65003E-13
2.30367E-07 3.37896E-13
2.51785E-07 3.13238E-13
2.74156E-07 2.90796E-13
2.97478E-07 2.70353E-13
3.21752E-07 2.51712E-13
3.46978E-07 2.34689E-13
3.73156E-07 2.19122E-13
4.00286E-07 2.04862E-13
4.28368E-07 1.91778E-13
4.57402E-07 1.79750E-13
4.87388E-07 1.68675E-13
5.18325E-07 1.58457E-13
5.50215E-07 1.49015E-13
5.83057E-07 1.40275E-13
6.16850E-07 1.32170E-13
6.51596E-07 1.24643E-13
6.87293E-07 1.17641E-13
7.23942E-07 1.11118E-13
7.61543E-07 1.05033E-13
1.18991E-06 6.17595E-14
1.71347E-06 3.79389E-14
2.33223E-06 2.41621E-14
3.04617E-06 1.59481E-14
3.85531E-06 1.09144E-14
4.75964E-06 7.73574E-15
5.75916E-06 5.66170E-15
6.85388E-06 4.26156E-15
8.04378E-06 3.28435E-15
9.32888E-06 2.58095E-15
1.07092E-05 2.06061E-15
1.21846E-05 1.66663E-15
1.37553E-05 1.36248E-15
1.54212E-05 1.12395E-15
1.71822E-05 9.34469E-16
1.90385E-05 7.82360E-16
2.09899E-05 6.59175E-16
2.30365E-05 5.58673E-16
2.51783E-05 4.76140E-16
2.74153E-05 4.07959E-16
2.97475E-05 3.51325E-16
3.21749E-05 3.04036E-16
3.46974E-05 2.64352E-16
3.73152E-05 2.30886E-16
4.00281E-05 2.02531E-16
4.28362E-05 1.78393E-16
4.57395E-05 1.57753E-16
4.87380E-05 1.40025E-16
5.18317E-05 1.24734E-16
5.50205E-05 1.11489E-16
5.83045E-05 9.99710E-17
6.16838E-05 8.99157E-17
6.51582E-05 8.11049E-17
6.87277E-05 7.33571E-17
7.23925E-05 6.65209E-17
7.61524E-05 6.04695E-17
9.21439E-05 4.22099E-17
1.09658E-04 3.03717E-17
1.28695E-04 2.24103E-17
1.49255E-04 1.68908E-17
1.71338E-04 1.29653E-17
1.94942E-04 1.01120E-17
2.20070E-04 7.99840E-18
2.46720E-04 6.40656E-18
2.74892E-04 5.18985E-18
3.04586E-04 4.24745E-18
3.35803E-04 3.50871E-18
3.68542E-04 2.92324E-18
4.02802E-04 2.45457E-18
4.38585E-04 2.07592E-18
4.75889E-04 1.76739E-18
5.14715E-04 1.51400E-18
5.55063E-04 1.30437E-18
5.96931E-04 1.12974E-18
6.40321E-04 9.83354E-19
6.85233E-04 8.59904E-19
7.31665E-04 7.55215E-19
7.79618E-04 6.65970E-19
8.29092E-04 5.89517E-19
8.80086E-04 5.23717E-19
9.32601E-04 4.66839E-19
9.86636E-04 4.17470E-19
1.04219E-03 3.74452E-19
1.09927E-03 3.36828E-19
1.15786E-03 3.03808E-19
1.21797E-03 2.74731E-19
1.27961E-03 2.49046E-19
1.34276E-03 2.26289E-19
1.40743E-03 2.06069E-19
1.47362E-03 1.88054E-19
1.54133E-03 1.71961E-19
1.61056E-03 1.57550E-19
1.68131E-03 1.44613E-19
1.75357E-03 1.32975E-19
1.82735E-03 1.22482E-19
1.90265E-03 1.13000E-19
1.97947E-03 1.04416E-19
2.05780E-03 9.66301E-20
2.13765E-03 8.95540E-20
2.21902E-03 8.31120E-20
2.30190E-03 7.72371E-20
2.38630E-03 7.18706E-20
2.47222E-03 6.69606E-20
2.55965E-03 6.24613E-20
2.64859E-03 5.83324E-20
2.73905E-03 5.45378E-20
2.83103E-03 5.10456E-20
2.92452E-03 4.78275E-20
3.01952E-03 4.48580E-20
3.11604E-03 4.21146E-20
3.21407E-03 3.95768E-20
3.31362E-03 3.72266E-20
3.41468E-03 3.50475E-20
3.51725E-03 3.30248E-20
3.62133E-03 3.11454E-20
3.72692E-03 2.93972E-20
3.83403E-03 2.77694E-20
3.94265E-03 2.62523E-20
4.05278E-03 2.48368E-20
4.16442E-03 2.35150E-20
4.27757E-03 2.22796E-20
4.39223E-03 2.11239E-20
4.50840E-03 2.00418E-20
4.62608E-03 1.90278E-20
4.74527E-03 1.80767E-20
4.86597E-03 1.71841E-20
4.98817E-03 1.63456E-20
5.11188E-03 1.55574E-20
5.23711E-03 1.48159E-20
5.36383E-03 1.41178E-20
5.49207E-03 1.34601E-20
5.62181E-03 1.28401E-20
5.75306E-03 1.22552E-20
5.88581E-03 1.17030E-20
6.02007E-03 1.11814E-20
6.15583E-03 1.06884E-20
6.29310E-03 1.02221E-20
6.43187E-03 9.78086E-21
6.57214E-03 9.36301E-21
6.71392E-03 8.96712E-21
6.85720E-03 8.59181E-21
7.00198E-03 8.23582E-21
7.14827E-03 7.89798E-21
7.29605E-03 7.57718E-21
7.44534E-03 7.27241E-21
7.59612E-03 6.98272E-21
7.97965E-03 6.31881E-21
8.37255E-03 5.73153E-21
8.77480E-03 5.21055E-21
9.18641E-03 4.74709E-21
9.60736E-03 4.33373E-21
1.00376E-02 3.96414E-21
1.04773E-02 3.63288E-21
1.09262E-02 3.33530E-21
1.13844E-02 3.06738E-21
1.18520E-02 2.82567E-21
1.23288E-02 2.60714E-21
1.28150E-02 2.40920E-21
1.33104E-02 2.22957E-21
1.38150E-02 2.06626E-21
1.43290E-02 1.91753E-21
1.48521E-02 1.78185E-21
1.53845E-02 1.65788E-21
1.59262E-02 1.54442E-21
1.64770E-02 1.44044E-21
1.70371E-02 1.34500E-21
1.76063E-02 1.25727E-21
1.81848E-02 1.17653E-21
1.87724E-02 1.10211E-21
1.93692E-02 1.03344E-21
1.99751E-02 9.69998E-22
2.05901E-02 9.11308E-22
2.12143E-02 8.56956E-22
2.18476E-02 8.06560E-22
2.24900E-02 7.59787E-22
2.31415E-02 7.16324E-22
2.38021E-02 6.75902E-22
2.44717E-02 6.38263E-22
2.51504E-02 6.03188E-22
2.58382E-02 5.70466E-22
2.65349E-02 5.39914E-22
2.72407E-02 5.11362E-22
2.79555E-02 4.84654E-22
2.86793E-02 4.59652E-22
2.94120E-02 4.36226E-22
3.01537E-02 4.14260E-22
3.09043E-02 3.93645E-22
3.16639E-02 3.74285E-22
3.24324E-02 3.56088E-22
3.32098E-02 3.38973E-22
3.39961E-02 3.22864E-22
3.47912E-02 3.07690E-22
3.55952E-02 2.93388E-22
3.64081E-02 2.79899E-22
3.72297E-02 2.67169E-22
3.80602E-02 2.55146E-22
3.88995E-02 2.43784E-22
3.97476E-02 2.33041E-22
4.06044E-02 2.22877E-22
4.14700E-02 2.13255E-22
4.23443E-02 2.04141E-22
4.32273E-02 1.95503E-22
4.41190E-02 1.87312E-22
4.50194E-02 1.79540E-22
4.59284E-02 1.72163E-22
4.68461E-02 1.65156E-22
4.87074E-02 1.52168E-22
5.06030E-02 1.40417E-22
5.25328E-02 1.29765E-22
5.44967E-02 1.20093E-22
5.64946E-02 1.11294E-22
5.85262E-02 1.03277E-22
6.05914E-02 9.59594E-23
6.26901E-02 8.92702E-23
6.48222E-02 8.31461E-23
6.69873E-02 7.75313E-23
6.91854E-02 7.23760E-23
7.14163E-02 6.76363E-23
7.36799E-02 6.32728E-23
7.59760E-02 5.92505E-23
7.83043E-02 5.55380E-23
8.06647E-02 5.21074E-23
8.30571E-02 4.89336E-23
8.54812E-02 4.59940E-23
8.79369E-02 4.32685E-23
9.04240E-02 4.07386E-23
9.29422E-02 3.83879E-23
9.54915E-02 3.62014E-23
9.80716E-02 3.41659E-23
1.00682E-01 3.22688E-23
1.03323E-01 3.04994E-23
1.05995E-01 2.88474E-23
1.08696E-01 2.73038E-23
1.11427E-01 2.58601E-23
1.14188E-01 2.45087E-23
1.16978E-01 2.32428E-23
1.19797E-01 2.20560E-23
1.22645E-01 2.09424E-23
1.25522E-01 1.98969E-23
1.28428E-01 1.89145E-23
1.31361E-01 1.79907E-23
1.34323E-01 1.71213E-23
1.37313E-01 1.63028E-23
1.40330E-01 1.55315E-23
1.43375E-01 1.48042E-23
1.46447E-01 1.41181E-23
1.49545E-01 1.34704E-23
1.52671E-01 1.28585E-23
1.55823E-01 1.22801E-23
1.59001E-01 1.17330E-23
1.62205E-01 1.12154E-23
1.65435E-01 1.07253E-23
1.68690E-01 1.02609E-23
1.71970E-01 9.82083E-24
1.75276E-01 9.40343E-24
1.78606E-01 9.00737E-24
1.81961E-01 8.63137E-24
1.85340E-01 8.27425E-24
1.88743E-01 7.93489E-24
1.92169E-01 7.61226E-24
1.95619E-01 7.30538E-24
1.99092E-01 7.01335E-24
2.02589E-01 6.73533E-24
2.06107E-01 6.47051E-24
2.09649E-01 6.21818E-24
2.13212E-01 5.97765E-24
2.16797E-01 5.74827E-24
2.20404E-01 5.52942E-24
2.24032E-01 5.32054E-24
2.27680E-01 5.12110E-24
2.31350E-01 4.93059E-24
2.35040E-01 4.74854E-24
2.38751E-01 4.57453E-24
2.42481E-01 4.40813E-24
2.46231E-01 4.24895E-24
2.50000E-01 4.09662E-24
2.53788E-01 3.95080E-24
2.57595E-01 3.81115E-24
2.61421E-01 3.67737E-24
2.65264E-01 3.54919E-24
2.69126E-01 3.42631E-24
2.73005E-01 3.30849E-24
2.76901E-01 3.19548E-24
2.80814E-01 3.08705E-24
2.84744E-01 2.98297E-24
2.88691E-01 2.88305E-24
2.92653E-01 2.78709E-24
2.96632E-01 2.69492E-24
3.00625E-01 2.60635E-24
3.04634E-01 2.52121E-24
3.08658E-01 2.43936E-24
3.12697E-01 2.36063E-24
3.16749E-01 2.28490E-24
3.20816E-01 2.21203E-24
3.24896E-01 2.14190E-24
3.28990E-01 2.07439E-24
3.33097E-01 2.00937E-24
3.37216E-01 1.94674E-24
3.41348E-01 1.88639E-24
3.45492E-01 1.82824E-24
3.49647E-01 1.77219E-24
3.53814E-01 1.71816E-24
3.57992E-01 1.66604E-24
3.62181E-01 1.61576E-24
3.66381E-01 1.56725E-24
3.70590E-01 1.52044E-24
3.74810E-01 1.47526E-24
3.79039E-01 1.43164E-24
3.83277E-01 1.38952E-24
3.87524E-01 1.34883E-24
3.91780E-01 1.30952E-24
3.96044E-01 1.27154E-24
4.00316E-01 1.23483E-24
4.04596E-01 1.19934E-24
4.08882E-01 1.16504E-24
4.13176E-01 1.13186E-24
4.17476E-01 1.09977E-24
4.21783E-01 1.06872E-24
4.26095E-01 1.03868E-24
4.30413E-01 1.00961E-24
4.34737E-01 9.81465E-25
4.39065E-01 9.54221E-25
4.43398E-01 9.27840E-25
4.47736E-01 9.02291E-25
4.52077E-01 8.77542E-25
4.56422E-01 8.53565E-25
4.60770E-01 8.30331E-25
4.65122E-01 8.07815E-25
4.69476E-01 7.85990E-25
4.73832E-01 7.64831E-25
4.78190E-01 7.44316E-25
4.82550E-01 7.24420E-25
4.86912E-01 7.05123E-25
4.91274E-01 6.86402E-25
4.95637E-01 6.68240E-25
5.00000E-01 6.50615E-25
5.04363E-01 6.33511E-25
5.08726E-01 6.16908E-25
5.13088E-01 6.00790E-25
5.17450E-01 5.85140E-25
5.21810E-01 5.69942E-25
5.26168E-01 5.55182E-25
5.30524E-01 5.40845E-25
5.34878E-01 5.26917E-25
5.39230E-01 5.13384E-25
5.43578E-01 5.00234E-25
5.47923E-01 4.87453E-25
5.52264E-01 4.75030E-25
5.56602E-01 4.62953E-25
5.60935E-01 4.51211E-25
5.65263E-01 4.39794E-25
5.69587E-01 4.28691E-25
5.73905E-01 4.17892E-25
5.78217E-01 4.07387E-25
5.82524E-01 3.97167E-25
5.86824E-01 3.87224E-25
5.91118E-01 3.77548E-25
5.95404E-01 3.68131E-25
5.99684E-01 3.58967E-25
6.03956E-01 3.50046E-25
6.08220E-01 3.41361E-25
6.12476E-01 3.32905E-25
6.16723E-01 3.24670E-25
6.20961E-01 3.16652E-25
6.25190E-01 3.08842E-25
6.29410E-01 3.01236E-25
6.33619E-01 2.93826E-25
6.37819E-01 2.86607E-25
6.42008E-01 2.79573E-25
6.46186E-01 2.72718E-25
6.50353E-01 2.66039E-25
6.54508E-01 2.59529E-25
6.58652E-01 2.53183E-25
6.62784E-01 2.46998E-25
6.66903E-01 2.40968E-25
6.71010E-01 2.35088E-25
6.75104E-01 2.29355E-25
6.79184E-01 2.23764E-25
6.83251E-01 2.18312E-25
6.87303E-01 2.12995E-25
6.91342E-01 2.07808E-25
6.95366E-01 2.02748E-25
6.99375E-01 1.97812E-25
7.03368E-01 1.92997E-25
7.07347E-01 1.88298E-25
7.11309E-01 1.83713E-25
7.15256E-01 1.79238E-25
7.19186E-01 1.74871E-25
7.23099E-01 1.70609E-25
7.26995E-01 1.66449E-25
7.30874E-01 1.62388E-25
7.34736E-01 1.58424E-25
7.38579E-01 1.54554E-25
7.42405E-01 1.50775E-25
7.46212E-01 1.47085E-25
7.50000E-01 1.43482E-25
7.53769E-01 1.39964E-25
7.57519E-01 1.36528E-25
7.61249E-01 1.33172E-25
7.64960E-01 1.29895E-25
7.68650E-01 1.26693E-25
7.72320E-01 1.23566E-25
7.75968E-01 1.20511E-25
7.79596E-01 1.17527E-25
7.83203E-01 1.14611E-25
7.86788E-01 1.11763E-25
7.90351E-01 1.08980E-25
7.93893E-01 1.06260E-25
7.97411E-01 1.03603E-25
8.00908E-01 1.01006E-25
8.04381E-01 9.84690E-26
8.07831E-01 9.59892E-26
8.11257E-01 9.35658E-26
8.14660E-01 9.11973E-26
8.18039E-01 8.88825E-26
8.21394E-01 8.66200E-26
8.24724E-01 8.44086E-26
8.28030E-01 8.22472E-26
8.31310E-01 8.01344E-26
8.34565E-01 7.80693E-26
8.37795E-01 7.60506E-26
8.40999E-01 7.40774E-26
8.44177E-01 7.21485E-26
8.47329E-01 7.02629E-26
8.50455E-01 6.84197E-26
8.53553E-01 6.66178E-26
8.56625E-01 6.48564E-26
8.59670E-01 6.31346E-26
8.62687E-01 6.14514E-26
8.65677E-01 5.98060E-26
8.68639E-01 5.81975E-26
8.71572E-01 5.66252E-26
8.74478E-01 5.50883E-26
8.77355E-01 5.35859E-26
8.80203E-01 5.21174E-26
8.83022E-01 5.06820E-26
8.85812E-01 4.92791E-26
8.88573E-01 4.79078E-26
8.91304E-01 4.65676E-26
8.94005E-01 4.52578E-26
8.96677E-01 4.39778E-26
8.99318E-01 4.27269E-26
9.01928E-01 4.15046E-26
9.04508E-01 4.03103E-26
9.07058E-01 3.91434E-26
9.09576E-01 3.80034E-26
9.12063E-01 3.68896E-26
9.14519E-01 3.58017E-26
9.16943E-01 3.47391E-26
9.19335E-01 3.37014E-26
9.21696E-01 3.26879E-26
9.24024E-01 3.16983E-26
9.26320E-01 3.07322E-26
9.28584E-01 2.97890E-26
9.30815E-01 2.88683E-26
9.33013E-01 2.79698E-26
9.35178E-01 2.70930E-26
9.37310E-01 2.62376E-26
9.39409E-01 2.54031E-26
9.41474E-01 2.45892E-26
9.43505E-01 2.37956E-26
9.45503E-01 2.30218E-26
9.47467E-01 2.22675E-26
9.49397E-01 2.15324E-26
9.51293E-01 2.08163E-26
9.53154E-01 2.01187E-26
9.54981E-01 1.94393E-26
9.56773E-01 1.87780E-26
9.58530E-01 1.81343E-26
9.60252E-01 1.75081E-26
9.61940E-01 1.68990E-26
9.63592E-01 1.63068E-26
9.65209E-01 1.57312E-26
9.66790E-01 1.51720E-26
9.68336E-01 1.46290E-26
9.69846E-01 1.41019E-26
9.71321E-01 1.35905E-26
9.72759E-01 1.30947E-26
9.74162E-01 1.26141E-26
9.75528E-01 1.21485E-26
9.76858E-01 1.16979E-26
9.78152E-01 1.12620E-26
9.79410E-01 1.08406E-26
9.80631E-01 1.04335E-26
9.81815E-01 1.00407E-26
9.82963E-01 9.66182E-27
9.84074E-01 9.29684E-27
9.85148E-01 8.94558E-27
9.86185E-01 8.60789E-27
9.87185E-01 8.28363E-27
9.88148E-01 7.97268E-27
9.89074E-01 7.67491E-27
9.89962E-01 7.39019E-27
9.90814E-01 7.11842E-27
9.91627E-01 6.85947E-27
9.92404E-01 6.61326E-27
9.93143E-01 6.37967E-27
9.93844E-01 6.15862E-27
9.94508E-01 5.95001E-27
9.95134E-01 5.75376E-27
9.95722E-01 5.56980E-27
9.96273E-01 5.39804E-27
9.96786E-01 5.23843E-27
9.97261E-01 5.09089E-27
9.97698E-01 4.95538E-27
9.98097E-01 4.83182E-27
9.98459E-01 4.72018E-27
9.98782E-01 4.62041E-27
9.99067E-01 4.53247E-27
9.99315E-01 4.45633E-27
9.99524E-01 4.39195E-27
9.99695E-01 4.33932E-27
9.99829E-01 4.29840E-27
9.99924E-01 4.26918E-27
9.99981E-01 4.25166E-27
1.00000E+00 4.24582E-27
