 #
 # Subroutine ELSEPA. Elastic scattering of electrons and positrons
 #                    by neutral atoms and positive ions
 #
 # Projectile: positron
 # Kinetic energy = 2.50000E+08 eV = 9.18733E+06 a.u.
 #
 # WARNING: High-energy factorization with free-atom DF screening.
 #          Absorption, polarization and exchange corrections are
 #          switched off.
 #          Phase shifts are calculated for the bare nucleus.
 #          Scattering amplitudes are not evaluated.
 #
 # Element: Sn,  Z =  50,  atomic weight = 1.18710E+02 g/mol
 #
 # Nuclear model: Fermi distribution
 #                Average radius = 5.25871E-13 cm
 #                Skin thickness = 5.46000E-14 cm
 #
 # Number of electrons = 50
 #
 # Total elastic cross section = 5.08664E-18 cm**2 = 1.81647E-01 a0**2
 # 1st transport cross section = 7.76201E-26 cm**2 = 2.77187E-09 a0**2
 # 2nd transport cross section = 2.32479E-25 cm**2 = 8.30197E-09 a0**2
 #
 #
 # Differential cross section:                       MU=(1-COS(THETA))/2
 #
 #  THETA        MU          DCS          DCS        Sherman      error
 #  (deg)                 (cm**2/sr)   (a0**2/sr)    function
 #----------------------------------------------------------------------
0.00000E+00 2.79905E-09
7.61557E-13 2.75310E-09
1.18994E-12 2.72783E-09
1.71346E-12 2.69747E-09
2.33225E-12 2.66230E-09
3.04617E-12 2.62268E-09
3.85530E-12 2.57886E-09
4.75964E-12 2.53125E-09
5.75917E-12 2.48072E-09
6.85391E-12 2.42676E-09
8.04379E-12 2.37086E-09
9.32893E-12 2.31236E-09
1.07092E-11 2.25264E-09
1.21847E-11 2.19132E-09
1.37554E-11 2.12930E-09
1.54213E-11 2.06668E-09
1.71823E-11 2.00373E-09
1.90386E-11 1.94112E-09
2.09900E-11 1.87843E-09
2.30367E-11 1.81691E-09
2.51785E-11 1.75547E-09
2.74156E-11 1.69573E-09
2.97478E-11 1.63645E-09
3.21752E-11 1.57900E-09
3.46979E-11 1.52258E-09
3.73157E-11 1.46788E-09
4.00286E-11 1.41466E-09
4.28368E-11 1.36302E-09
4.57402E-11 1.31318E-09
4.87388E-11 1.26477E-09
5.18325E-11 1.21838E-09
5.50215E-11 1.17325E-09
5.83057E-11 1.13023E-09
6.16850E-11 1.08839E-09
6.51595E-11 1.04853E-09
6.87293E-11 1.01000E-09
7.23943E-11 9.73174E-10
7.61544E-11 9.37768E-10
1.18991E-10 6.55913E-10
1.71347E-10 4.72127E-10
2.33223E-10 3.49646E-10
3.04617E-10 2.64950E-10
3.85531E-10 2.03304E-10
4.75965E-10 1.57706E-10
5.75917E-10 1.26195E-10
6.85389E-10 9.96508E-11
8.04380E-10 8.07120E-11
9.32891E-10 6.50499E-11
1.07092E-09 5.32246E-11
1.21847E-09 4.37116E-11
1.37554E-09 3.62095E-11
1.54213E-09 3.02363E-11
1.71823E-09 2.54000E-11
1.90386E-09 2.15355E-11
2.09900E-09 1.83525E-11
2.30367E-09 1.57808E-11
2.51785E-09 1.36323E-11
2.74156E-09 1.18698E-11
2.97478E-09 1.03816E-11
3.21752E-09 9.13881E-12
3.46978E-09 8.07978E-12
3.73156E-09 7.17977E-12
4.00286E-09 6.40581E-12
4.28368E-09 5.73708E-12
4.57402E-09 5.15795E-12
4.87388E-09 4.64939E-12
5.18326E-09 4.20697E-12
5.50215E-09 3.81239E-12
5.83057E-09 3.46778E-12
6.16850E-09 3.15691E-12
6.51596E-09 2.88315E-12
6.87293E-09 2.63600E-12
7.23942E-09 2.41570E-12
7.61544E-09 2.21691E-12
1.18991E-08 1.01430E-12
1.71347E-08 5.20069E-13
2.33223E-08 2.92269E-13
3.04617E-08 1.77033E-13
3.85531E-08 1.13632E-13
4.75965E-08 7.63949E-14
5.75917E-08 5.32768E-14
6.85389E-08 3.82814E-14
8.04380E-08 2.82003E-14
9.32891E-08 2.12199E-14
1.07092E-07 1.62600E-14
1.21847E-07 1.26626E-14
1.37554E-07 1.00040E-14
1.54213E-07 8.00579E-15
1.71823E-07 6.48122E-15
1.90386E-07 5.30213E-15
2.09900E-07 4.37899E-15
2.30367E-07 3.64793E-15
2.51785E-07 3.06318E-15
2.74156E-07 2.59102E-15
2.97478E-07 2.20647E-15
3.21752E-07 1.89071E-15
3.46978E-07 1.62951E-15
3.73156E-07 1.41193E-15
4.00286E-07 1.22950E-15
4.28368E-07 1.07562E-15
4.57402E-07 9.45110E-16
4.87388E-07 8.33824E-16
5.18325E-07 7.38462E-16
5.50215E-07 6.56362E-16
5.83057E-07 5.85371E-16
6.16850E-07 5.23727E-16
6.51596E-07 4.69991E-16
6.87293E-07 4.22978E-16
7.23942E-07 3.81701E-16
7.61543E-07 3.45342E-16
1.18991E-06 1.42746E-16
1.71347E-06 6.92378E-17
2.33223E-06 3.75123E-17
3.04617E-06 2.20431E-17
3.85531E-06 1.37843E-17
4.75964E-06 9.05420E-18
5.75916E-06 6.18906E-18
6.85388E-06 4.37233E-18
8.04378E-06 3.17565E-18
9.32888E-06 2.36162E-18
1.07092E-05 1.79240E-18
1.21846E-05 1.38474E-18
1.37553E-05 1.08662E-18
1.54212E-05 8.64558E-19
1.71822E-05 6.96411E-19
1.90385E-05 5.67059E-19
2.09899E-05 4.66654E-19
2.30365E-05 3.87480E-19
2.51783E-05 3.24352E-19
2.74153E-05 2.73529E-19
2.97475E-05 2.32258E-19
3.21749E-05 1.98479E-19
3.46974E-05 1.70631E-19
3.73152E-05 1.47510E-19
4.00281E-05 1.28184E-19
4.28362E-05 1.11925E-19
4.57395E-05 9.81624E-20
4.87380E-05 8.64476E-20
5.18317E-05 7.64251E-20
5.50205E-05 6.78102E-20
5.83045E-05 6.03738E-20
6.16838E-05 5.39294E-20
6.51582E-05 4.83230E-20
6.87277E-05 4.34274E-20
7.23925E-05 3.91371E-20
7.61524E-05 3.54179E-20
9.21439E-05 2.41797E-20
1.09658E-04 1.70630E-20
1.28695E-04 1.23819E-20
1.49255E-04 9.19980E-21
1.71338E-04 6.97692E-21
1.94942E-04 5.38582E-21
2.20070E-04 4.22304E-21
2.46720E-04 3.35742E-21
2.74892E-04 2.70226E-21
3.04586E-04 2.19915E-21
3.35803E-04 1.80759E-21
3.68542E-04 1.49924E-21
4.02802E-04 1.25375E-21
4.38585E-04 1.05636E-21
4.75889E-04 8.96211E-22
5.14715E-04 7.65181E-22
5.55063E-04 6.57155E-22
5.96931E-04 5.67454E-22
6.40321E-04 4.92476E-22
6.85233E-04 4.29420E-22
7.31665E-04 3.76083E-22
7.79618E-04 3.30727E-22
8.29092E-04 2.91961E-22
8.80086E-04 2.58673E-22
9.32601E-04 2.29960E-22
9.86636E-04 2.05091E-22
1.04219E-03 1.83466E-22
1.09927E-03 1.64591E-22
1.15786E-03 1.48059E-22
1.21797E-03 1.33529E-22
1.27961E-03 1.20719E-22
1.34276E-03 1.09392E-22
1.40743E-03 9.93457E-23
1.47362E-03 9.04120E-23
1.54133E-03 8.24466E-23
1.61056E-03 7.53268E-23
1.68131E-03 6.89477E-23
1.75357E-03 6.32191E-23
1.82735E-03 5.80635E-23
1.90265E-03 5.34138E-23
1.97947E-03 4.92120E-23
2.05780E-03 4.54076E-23
2.13765E-03 4.19566E-23
2.21902E-03 3.88206E-23
2.30190E-03 3.59659E-23
2.38630E-03 3.33632E-23
2.47222E-03 3.09862E-23
2.55965E-03 2.88122E-23
2.64859E-03 2.68209E-23
2.73905E-03 2.49942E-23
2.83103E-03 2.33164E-23
2.92452E-03 2.17731E-23
3.01952E-03 2.03519E-23
3.11604E-03 1.90413E-23
3.21407E-03 1.78314E-23
3.31362E-03 1.67131E-23
3.41468E-03 1.56783E-23
3.51725E-03 1.47198E-23
3.62133E-03 1.38308E-23
3.72692E-03 1.30057E-23
3.83403E-03 1.22390E-23
3.94265E-03 1.15258E-23
4.05278E-03 1.08619E-23
4.16442E-03 1.02432E-23
4.27757E-03 9.66626E-24
4.39223E-03 9.12767E-24
4.50840E-03 8.62450E-24
4.62608E-03 8.15403E-24
4.74527E-03 7.71380E-24
4.86597E-03 7.30154E-24
4.98817E-03 6.91518E-24
5.11188E-03 6.55283E-24
5.23711E-03 6.21277E-24
5.36383E-03 5.89338E-24
5.49207E-03 5.59323E-24
5.62181E-03 5.31095E-24
5.75306E-03 5.04533E-24
5.88581E-03 4.79521E-24
6.02007E-03 4.55954E-24
6.15583E-03 4.33737E-24
6.29310E-03 4.12780E-24
6.43187E-03 3.92999E-24
6.57214E-03 3.74319E-24
6.71392E-03 3.56669E-24
6.85720E-03 3.39982E-24
7.00198E-03 3.24199E-24
7.14827E-03 3.09263E-24
7.29605E-03 2.95121E-24
7.44534E-03 2.81725E-24
7.59612E-03 2.69030E-24
7.97965E-03 2.40086E-24
8.37255E-03 2.14679E-24
8.77480E-03 1.92319E-24
9.18641E-03 1.72591E-24
9.60736E-03 1.55145E-24
1.00376E-02 1.39681E-24
1.04773E-02 1.25946E-24
1.09262E-02 1.13721E-24
1.13844E-02 1.02819E-24
1.18520E-02 9.30797E-25
1.23288E-02 8.43635E-25
1.28150E-02 7.65501E-25
1.33104E-02 6.95348E-25
1.38150E-02 6.32266E-25
1.43290E-02 5.75461E-25
1.48521E-02 5.24238E-25
1.53845E-02 4.77988E-25
1.59262E-02 4.36176E-25
1.64770E-02 3.98331E-25
1.70371E-02 3.64038E-25
1.76063E-02 3.32929E-25
1.81848E-02 3.04680E-25
1.87724E-02 2.79002E-25
1.93692E-02 2.55639E-25
1.99751E-02 2.34363E-25
2.05901E-02 2.14971E-25
2.12143E-02 1.97282E-25
2.18476E-02 1.81134E-25
2.24900E-02 1.66381E-25
2.31415E-02 1.52892E-25
2.38021E-02 1.40552E-25
2.44717E-02 1.29256E-25
2.51504E-02 1.18907E-25
2.58382E-02 1.09423E-25
2.65349E-02 1.00724E-25
2.72407E-02 9.27431E-26
2.79555E-02 8.54161E-26
2.86793E-02 7.86865E-26
2.94120E-02 7.25028E-26
3.01537E-02 6.68183E-26
3.09043E-02 6.15906E-26
3.16639E-02 5.67811E-26
3.24324E-02 5.23548E-26
3.32098E-02 4.82797E-26
3.39961E-02 4.45269E-26
3.47912E-02 4.10699E-26
3.55952E-02 3.78843E-26
3.64081E-02 3.49482E-26
3.72297E-02 3.22414E-26
3.80602E-02 2.97455E-26
3.88995E-02 2.74434E-26
3.97476E-02 2.53199E-26
4.06044E-02 2.33606E-26
4.14700E-02 2.15527E-26
4.23443E-02 1.98843E-26
4.32273E-02 1.83443E-26
4.41190E-02 1.69227E-26
4.50194E-02 1.56104E-26
4.59284E-02 1.43989E-26
4.68461E-02 1.32803E-26
4.87074E-02 1.12938E-26
5.06030E-02 9.60016E-27
5.25328E-02 8.15628E-27
5.44967E-02 6.92548E-27
5.64946E-02 5.87658E-27
5.85262E-02 4.98302E-27
6.05914E-02 4.22213E-27
6.26901E-02 3.57458E-27
6.48222E-02 3.02385E-27
6.69873E-02 2.55580E-27
6.91854E-02 2.15837E-27
7.14163E-02 1.82121E-27
7.36799E-02 1.53547E-27
7.59760E-02 1.29358E-27
7.83043E-02 1.08905E-27
8.06647E-02 9.16343E-28
8.30571E-02 7.70694E-28
8.54812E-02 6.48041E-28
8.79369E-02 5.44904E-28
9.04240E-02 4.58312E-28
9.29422E-02 3.85725E-28
9.54915E-02 3.24973E-28
9.80716E-02 2.74207E-28
1.00682E-01 2.31852E-28
1.03323E-01 1.96568E-28
1.05995E-01 1.67214E-28
1.08696E-01 1.42824E-28
1.11427E-01 1.22578E-28
1.14188E-01 1.05785E-28
1.16978E-01 9.18584E-29
1.19797E-01 8.03067E-29
1.22645E-01 7.07161E-29
1.25522E-01 6.27398E-29
1.28428E-01 5.60883E-29
1.31361E-01 5.05201E-29
1.34323E-01 4.58350E-29
1.37313E-01 4.18673E-29
1.40330E-01 3.84805E-29
1.43375E-01 3.55626E-29
1.46447E-01 3.30224E-29
1.49545E-01 3.07857E-29
1.52671E-01 2.87928E-29
1.55823E-01 2.69958E-29
1.59001E-01 2.53566E-29
1.62205E-01 2.38453E-29
1.65435E-01 2.24384E-29
1.68690E-01 2.11178E-29
1.71970E-01 1.98698E-29
1.75276E-01 1.86840E-29
1.78606E-01 1.75529E-29
1.81961E-01 1.64709E-29
1.85340E-01 1.54342E-29
1.88743E-01 1.44401E-29
1.92169E-01 1.34868E-29
1.95619E-01 1.25734E-29
1.99092E-01 1.16991E-29
2.02589E-01 1.08635E-29
2.06107E-01 1.00665E-29
2.09649E-01 9.30784E-30
2.13212E-01 8.58732E-30
2.16797E-01 7.90471E-30
2.20404E-01 7.25964E-30
2.24032E-01 6.65165E-30
2.27680E-01 6.08014E-30
2.31350E-01 5.54438E-30
2.35040E-01 5.04351E-30
2.38751E-01 4.57656E-30
2.42481E-01 4.14243E-30
2.46231E-01 3.73997E-30
2.50000E-01 3.36790E-30
2.53788E-01 3.02492E-30
2.57595E-01 2.70965E-30
2.61421E-01 2.42070E-30
2.65264E-01 2.15663E-30
2.69126E-01 1.91602E-30
2.73005E-01 1.69744E-30
2.76901E-01 1.49948E-30
2.80814E-01 1.32076E-30
2.84744E-01 1.15991E-30
2.88691E-01 1.01562E-30
2.92653E-01 8.86626E-31
2.96632E-01 7.71704E-31
3.00625E-01 6.69688E-31
3.04634E-01 5.79469E-31
3.08658E-01 4.99995E-31
3.12697E-01 4.30275E-31
3.16749E-01 3.69379E-31
3.20816E-01 3.16434E-31
3.24896E-01 2.70630E-31
3.28990E-01 2.31211E-31
3.33097E-01 1.97482E-31
3.37216E-01 1.68799E-31
3.41348E-01 1.44573E-31
3.45492E-01 1.24265E-31
3.49647E-01 1.07383E-31
3.53814E-01 9.34808E-32
3.57992E-01 8.21554E-32
3.62181E-01 7.30437E-32
3.66381E-01 6.58200E-32
3.70590E-01 6.01937E-32
3.74810E-01 5.59063E-32
3.79039E-01 5.27293E-32
3.83277E-01 5.04614E-32
3.87524E-01 4.89266E-32
3.91780E-01 4.79717E-32
3.96044E-01 4.74643E-32
4.00316E-01 4.72908E-32
4.04596E-01 4.73544E-32
4.08882E-01 4.75735E-32
4.13176E-01 4.78802E-32
4.17476E-01 4.82185E-32
4.21783E-01 4.85429E-32
4.26095E-01 4.88173E-32
4.30413E-01 4.90139E-32
4.34737E-01 4.91118E-32
4.39065E-01 4.90962E-32
4.43398E-01 4.89574E-32
4.47736E-01 4.86904E-32
4.52077E-01 4.82936E-32
4.56422E-01 4.77687E-32
4.60770E-01 4.71194E-32
4.65122E-01 4.63520E-32
4.69476E-01 4.54740E-32
4.73832E-01 4.44939E-32
4.78190E-01 4.34213E-32
4.82550E-01 4.22662E-32
4.86912E-01 4.10389E-32
4.91274E-01 3.97499E-32
4.95637E-01 3.84093E-32
5.00000E-01 3.70273E-32
5.04363E-01 3.56136E-32
5.08726E-01 3.41773E-32
5.13088E-01 3.27273E-32
5.17450E-01 3.12717E-32
5.21810E-01 2.98182E-32
5.26168E-01 2.83736E-32
5.30524E-01 2.69442E-32
5.34878E-01 2.55359E-32
5.39230E-01 2.41536E-32
5.43578E-01 2.28019E-32
5.47923E-01 2.14845E-32
5.52264E-01 2.02049E-32
5.56602E-01 1.89657E-32
5.60935E-01 1.77693E-32
5.65263E-01 1.66174E-32
5.69587E-01 1.55115E-32
5.73905E-01 1.44524E-32
5.78217E-01 1.34409E-32
5.82524E-01 1.24770E-32
5.86824E-01 1.15609E-32
5.91118E-01 1.06921E-32
5.95404E-01 9.87012E-33
5.99684E-01 9.09417E-33
6.03956E-01 8.36330E-33
6.08220E-01 7.67640E-33
6.12476E-01 7.03222E-33
6.16723E-01 6.42940E-33
6.20961E-01 5.86649E-33
6.25190E-01 5.34197E-33
6.29410E-01 4.85428E-33
6.33619E-01 4.40180E-33
6.37819E-01 3.98290E-33
6.42008E-01 3.59593E-33
6.46186E-01 3.23927E-33
6.50353E-01 2.91128E-33
6.54508E-01 2.61035E-33
6.58652E-01 2.33491E-33
6.62784E-01 2.08340E-33
6.66903E-01 1.85434E-33
6.71010E-01 1.64625E-33
6.75104E-01 1.45774E-33
6.79184E-01 1.28744E-33
6.83251E-01 1.13406E-33
6.87303E-01 9.96343E-34
6.91342E-01 8.73110E-34
6.95366E-01 7.63226E-34
6.99375E-01 6.65621E-34
7.03368E-01 5.79279E-34
7.07347E-01 5.03243E-34
7.11309E-01 4.36612E-34
7.15256E-01 3.78539E-34
7.19186E-01 3.28231E-34
7.23099E-01 2.84946E-34
7.26995E-01 2.47995E-34
7.30874E-01 2.16735E-34
7.34736E-01 1.90569E-34
7.38579E-01 1.68946E-34
7.42405E-01 1.51357E-34
7.46212E-01 1.37332E-34
7.50000E-01 1.26439E-34
7.53769E-01 1.18287E-34
7.57519E-01 1.12511E-34
7.61249E-01 1.08786E-34
7.64960E-01 1.06811E-34
7.68650E-01 1.06317E-34
7.72320E-01 1.07058E-34
7.75968E-01 1.08818E-34
7.79596E-01 1.11397E-34
7.83203E-01 1.14622E-34
7.86788E-01 1.18335E-34
7.90351E-01 1.22399E-34
7.93893E-01 1.26694E-34
7.97411E-01 1.31112E-34
8.00908E-01 1.35562E-34
8.04381E-01 1.39964E-34
8.07831E-01 1.44252E-34
8.11257E-01 1.48366E-34
8.14660E-01 1.52262E-34
8.18039E-01 1.55898E-34
8.21394E-01 1.59244E-34
8.24724E-01 1.62275E-34
8.28030E-01 1.64974E-34
8.31310E-01 1.67327E-34
8.34565E-01 1.69326E-34
8.37795E-01 1.70969E-34
8.40999E-01 1.72255E-34
8.44177E-01 1.73187E-34
8.47329E-01 1.73773E-34
8.50455E-01 1.74018E-34
8.53553E-01 1.73935E-34
8.56625E-01 1.73535E-34
8.59670E-01 1.72833E-34
8.62687E-01 1.71841E-34
8.65677E-01 1.70576E-34
8.68639E-01 1.69053E-34
8.71572E-01 1.67288E-34
8.74478E-01 1.65298E-34
8.77355E-01 1.63100E-34
8.80203E-01 1.60710E-34
8.83022E-01 1.58143E-34
8.85812E-01 1.55417E-34
8.88573E-01 1.52547E-34
8.91304E-01 1.49548E-34
8.94005E-01 1.46436E-34
8.96677E-01 1.43223E-34
8.99318E-01 1.39925E-34
9.01928E-01 1.36554E-34
9.04508E-01 1.33122E-34
9.07058E-01 1.29643E-34
9.09576E-01 1.26126E-34
9.12063E-01 1.22583E-34
9.14519E-01 1.19022E-34
9.16943E-01 1.15455E-34
9.19335E-01 1.11889E-34
9.21696E-01 1.08332E-34
9.24024E-01 1.04792E-34
9.26320E-01 1.01277E-34
9.28584E-01 9.77914E-35
9.30815E-01 9.43418E-35
9.33013E-01 9.09345E-35
9.35178E-01 8.75715E-35
9.37310E-01 8.42608E-35
9.39409E-01 8.10029E-35
9.41474E-01 7.78037E-35
9.43505E-01 7.46650E-35
9.45503E-01 7.15895E-35
9.47467E-01 6.85799E-35
9.49397E-01 6.56378E-35
9.51293E-01 6.27648E-35
9.53154E-01 5.99625E-35
9.54981E-01 5.72318E-35
9.56773E-01 5.45737E-35
9.58530E-01 5.19881E-35
9.60252E-01 4.94763E-35
9.61940E-01 4.70378E-35
9.63592E-01 4.46724E-35
9.65209E-01 4.23807E-35
9.66790E-01 4.01612E-35
9.68336E-01 3.80147E-35
9.69846E-01 3.59399E-35
9.71321E-01 3.39358E-35
9.72759E-01 3.20021E-35
9.74162E-01 3.01377E-35
9.75528E-01 2.83418E-35
9.76858E-01 2.66133E-35
9.78152E-01 2.49507E-35
9.79410E-01 2.33535E-35
9.80631E-01 2.18206E-35
9.81815E-01 2.03501E-35
9.82963E-01 1.89413E-35
9.84074E-01 1.75928E-35
9.85148E-01 1.63033E-35
9.86185E-01 1.50724E-35
9.87185E-01 1.38980E-35
9.88148E-01 1.27790E-35
9.89074E-01 1.17145E-35
9.89962E-01 1.07029E-35
9.90814E-01 9.74377E-36
9.91627E-01 8.83539E-36
9.92404E-01 7.97695E-36
9.93143E-01 7.16750E-36
9.93844E-01 6.40581E-36
9.94508E-01 5.69104E-36
9.95134E-01 5.02218E-36
9.95722E-01 4.39845E-36
9.96273E-01 3.81883E-36
9.96786E-01 3.28280E-36
9.97261E-01 2.78944E-36
9.97698E-01 2.33816E-36
9.98097E-01 1.92831E-36
9.98459E-01 1.55932E-36
9.98782E-01 1.23051E-36
9.99067E-01 9.41559E-37
9.99315E-01 6.91906E-37
9.99524E-01 4.81424E-37
9.99695E-01 3.09443E-37
9.99829E-01 1.76085E-37
9.99924E-01 8.09551E-38
9.99981E-01 2.39173E-38
1.00000E+00 4.97615E-39
