 #
 # Subroutine ELSEPA. Elastic scattering of electrons and positrons
 #                    by neutral atoms and positive ions
 #
 # Projectile: positron
 # Kinetic energy = 1.75000E+07 eV = 6.43113E+05 a.u.
 #
 # WARNING: High-energy factorization with free-atom DF screening.
 #          Absorption, polarization and exchange corrections are
 #          switched off.
 #          Phase shifts are calculated for the bare nucleus.
 #          Scattering amplitudes are not evaluated.
 #
 # Element: Dy,  Z =  66,  atomic weight = 1.62500E+02 g/mol
 #
 # Nuclear model: Fermi distribution
 #                Average radius = 5.83895E-13 cm
 #                Skin thickness = 5.46000E-14 cm
 #
 # Number of electrons = 66
 #
 # Total elastic cross section = 7.12277E-18 cm**2 = 2.54359E-01 a0**2
 # 1st transport cross section = 2.06395E-23 cm**2 = 7.37050E-07 a0**2
 # 2nd transport cross section = 5.99794E-23 cm**2 = 2.14190E-06 a0**2
 #
 #
 # Differential cross section:                       MU=(1-COS(THETA))/2
 #
 #  THETA        MU          DCS          DCS        Sherman      error
 #  (deg)                 (cm**2/sr)   (a0**2/sr)    function
 #----------------------------------------------------------------------
0.00000E+00 2.54261E-11
7.61557E-13 2.54222E-11
1.18994E-12 2.54200E-11
1.71346E-12 2.54173E-11
2.33225E-12 2.54141E-11
3.04617E-12 2.54105E-11
3.85530E-12 2.54064E-11
4.75964E-12 2.54018E-11
5.75917E-12 2.53967E-11
6.85391E-12 2.53911E-11
8.04379E-12 2.53851E-11
9.32893E-12 2.53785E-11
1.07092E-11 2.53715E-11
1.21847E-11 2.53641E-11
1.37554E-11 2.53561E-11
1.54213E-11 2.53477E-11
1.71823E-11 2.53388E-11
1.90386E-11 2.53294E-11
2.09900E-11 2.53195E-11
2.30367E-11 2.53092E-11
2.51785E-11 2.52984E-11
2.74156E-11 2.52871E-11
2.97478E-11 2.52753E-11
3.21752E-11 2.52631E-11
3.46979E-11 2.52504E-11
3.73157E-11 2.52373E-11
4.00286E-11 2.52237E-11
4.28368E-11 2.52096E-11
4.57402E-11 2.51951E-11
4.87388E-11 2.51801E-11
5.18325E-11 2.51646E-11
5.50215E-11 2.51487E-11
5.83057E-11 2.51323E-11
6.16850E-11 2.51155E-11
6.51595E-11 2.50982E-11
6.87293E-11 2.50804E-11
7.23943E-11 2.50622E-11
7.61544E-11 2.50436E-11
1.18991E-10 2.48329E-11
1.71347E-10 2.45794E-11
2.33223E-10 2.42854E-11
3.04617E-10 2.39534E-11
3.85531E-10 2.35864E-11
4.75965E-10 2.31874E-11
5.75917E-10 2.27596E-11
6.85389E-10 2.23063E-11
8.04380E-10 2.18333E-11
9.32891E-10 2.13399E-11
1.07092E-09 2.08279E-11
1.21847E-09 2.03082E-11
1.37554E-09 1.97784E-11
1.54213E-09 1.92387E-11
1.71823E-09 1.87005E-11
1.90386E-09 1.81610E-11
2.09900E-09 1.76189E-11
2.30367E-09 1.70854E-11
2.51785E-09 1.65578E-11
2.74156E-09 1.60331E-11
2.97478E-09 1.55219E-11
3.21752E-09 1.50218E-11
3.46978E-09 1.45284E-11
3.73156E-09 1.40510E-11
4.00286E-09 1.35883E-11
4.28368E-09 1.31346E-11
4.57402E-09 1.26977E-11
4.87388E-09 1.22773E-11
5.18326E-09 1.18671E-11
5.50215E-09 1.14733E-11
5.83057E-09 1.10964E-11
6.16850E-09 1.07300E-11
6.51596E-09 1.03788E-11
6.87293E-09 1.00441E-11
7.23942E-09 9.71963E-12
7.61544E-09 9.40874E-12
1.18991E-08 6.93736E-12
1.71347E-08 5.30797E-12
2.33223E-08 4.18838E-12
3.04617E-08 3.37556E-12
3.85531E-08 2.75854E-12
4.75965E-08 2.27564E-12
5.75917E-08 1.89019E-12
6.85389E-08 1.57891E-12
8.04380E-08 1.31163E-12
9.32891E-08 1.10563E-12
1.07092E-07 9.47802E-13
1.21847E-07 8.06761E-13
1.37554E-07 6.91511E-13
1.54213E-07 6.00272E-13
1.71823E-07 5.19883E-13
1.90386E-07 4.52534E-13
2.09900E-07 3.97749E-13
2.30367E-07 3.49424E-13
2.51785E-07 3.08046E-13
2.74156E-07 2.73643E-13
2.97478E-07 2.43113E-13
3.21752E-07 2.16477E-13
3.46978E-07 1.93938E-13
3.73156E-07 1.73833E-13
4.00286E-07 1.56026E-13
4.28368E-07 1.40742E-13
4.57402E-07 1.27063E-13
4.87388E-07 1.14814E-13
5.18325E-07 1.04173E-13
5.50215E-07 9.46312E-14
5.83057E-07 8.60200E-14
6.16850E-07 7.84625E-14
6.51596E-07 7.16735E-14
6.87293E-07 6.55136E-14
7.23942E-07 6.00588E-14
7.61543E-07 5.51472E-14
1.18991E-06 2.55344E-14
1.71347E-06 1.35378E-14
2.33223E-06 7.90658E-15
3.04617E-06 4.94900E-15
3.85531E-06 3.25203E-15
4.75964E-06 2.21995E-15
5.75916E-06 1.56475E-15
6.85388E-06 1.13282E-15
8.04378E-06 8.39174E-16
9.32888E-06 6.35188E-16
1.07092E-05 4.89652E-16
1.21846E-05 3.83566E-16
1.37553E-05 3.04748E-16
1.54212E-05 2.45149E-16
1.71822E-05 1.99478E-16
1.90385E-05 1.63918E-16
2.09899E-05 1.36084E-16
2.30365E-05 1.13908E-16
2.51783E-05 9.60369E-17
2.74153E-05 8.15177E-17
2.97475E-05 6.96345E-17
3.21749E-05 5.98396E-17
3.46974E-05 5.17113E-17
3.73152E-05 4.49209E-17
4.00281E-05 3.92085E-17
4.28362E-05 3.43771E-17
4.57395E-05 3.02664E-17
4.87380E-05 2.67498E-17
5.18317E-05 2.37269E-17
5.50205E-05 2.11161E-17
5.83045E-05 1.88530E-17
6.16838E-05 1.68848E-17
6.51582E-05 1.51669E-17
6.87277E-05 1.36621E-17
7.23925E-05 1.23394E-17
7.61524E-05 1.11724E-17
9.21439E-05 7.68015E-18
1.09658E-04 5.44978E-18
1.28695E-04 3.97302E-18
1.49255E-04 2.96365E-18
1.71338E-04 2.25533E-18
1.94942E-04 1.74638E-18
2.20070E-04 1.37317E-18
2.46720E-04 1.09450E-18
2.74892E-04 8.83008E-19
3.04586E-04 7.20197E-19
3.35803E-04 5.93203E-19
3.68542E-04 4.92982E-19
4.02802E-04 4.13037E-19
4.38585E-04 3.48640E-19
4.75889E-04 2.96302E-19
5.14715E-04 2.53412E-19
5.55063E-04 2.17997E-19
5.96931E-04 1.88547E-19
6.40321E-04 1.63898E-19
6.85233E-04 1.43140E-19
7.31665E-04 1.25560E-19
7.79618E-04 1.10593E-19
8.29092E-04 9.77851E-20
8.80086E-04 8.67751E-20
9.32601E-04 7.72685E-20
9.86636E-04 6.90252E-20
1.04219E-03 6.18498E-20
1.09927E-03 5.55807E-20
1.15786E-03 5.00839E-20
1.21797E-03 4.52483E-20
1.27961E-03 4.09809E-20
1.34276E-03 3.72034E-20
1.40743E-03 3.38500E-20
1.47362E-03 3.08650E-20
1.54133E-03 2.82009E-20
1.61056E-03 2.58172E-20
1.68131E-03 2.36793E-20
1.75357E-03 2.17575E-20
1.82735E-03 2.00262E-20
1.90265E-03 1.84631E-20
1.97947E-03 1.70490E-20
2.05780E-03 1.57673E-20
2.13765E-03 1.46034E-20
2.21902E-03 1.35446E-20
2.30190E-03 1.25797E-20
2.38630E-03 1.16988E-20
2.47222E-03 1.08935E-20
2.55965E-03 1.01560E-20
2.64859E-03 9.47961E-21
2.73905E-03 8.85841E-21
2.83103E-03 8.28707E-21
2.92452E-03 7.76088E-21
3.01952E-03 7.27562E-21
3.11604E-03 6.82755E-21
3.21407E-03 6.41331E-21
3.31362E-03 6.02988E-21
3.41468E-03 5.67455E-21
3.51725E-03 5.34491E-21
3.62133E-03 5.03875E-21
3.72692E-03 4.75411E-21
3.83403E-03 4.48919E-21
3.94265E-03 4.24240E-21
4.05278E-03 4.01225E-21
4.16442E-03 3.79743E-21
4.27757E-03 3.59673E-21
4.39223E-03 3.40904E-21
4.50840E-03 3.23339E-21
4.62608E-03 3.06885E-21
4.74527E-03 2.91459E-21
4.86597E-03 2.76985E-21
4.98817E-03 2.63395E-21
5.11188E-03 2.50623E-21
5.23711E-03 2.38613E-21
5.36383E-03 2.27309E-21
5.49207E-03 2.16664E-21
5.62181E-03 2.06631E-21
5.75306E-03 1.97169E-21
5.88581E-03 1.88240E-21
6.02007E-03 1.79807E-21
6.15583E-03 1.71839E-21
6.29310E-03 1.64305E-21
6.43187E-03 1.57177E-21
6.57214E-03 1.50430E-21
6.71392E-03 1.44038E-21
6.85720E-03 1.37981E-21
7.00198E-03 1.32236E-21
7.14827E-03 1.26786E-21
7.29605E-03 1.21612E-21
7.44534E-03 1.16697E-21
7.59612E-03 1.12027E-21
7.97965E-03 1.01328E-21
8.37255E-03 9.18697E-22
8.77480E-03 8.34827E-22
9.18641E-03 7.60254E-22
9.60736E-03 6.93775E-22
1.00376E-02 6.34360E-22
1.04773E-02 5.81130E-22
1.09262E-02 5.33331E-22
1.13844E-02 4.90313E-22
1.18520E-02 4.51518E-22
1.23288E-02 4.16457E-22
1.28150E-02 3.84710E-22
1.33104E-02 3.55909E-22
1.38150E-02 3.29733E-22
1.43290E-02 3.05902E-22
1.48521E-02 2.84169E-22
1.53845E-02 2.64316E-22
1.59262E-02 2.46154E-22
1.64770E-02 2.29513E-22
1.70371E-02 2.14242E-22
1.76063E-02 2.00210E-22
1.81848E-02 1.87299E-22
1.87724E-02 1.75402E-22
1.93692E-02 1.64427E-22
1.99751E-02 1.54289E-22
2.05901E-02 1.44913E-22
2.12143E-02 1.36233E-22
2.18476E-02 1.28186E-22
2.24900E-02 1.20719E-22
2.31415E-02 1.13783E-22
2.38021E-02 1.07333E-22
2.44717E-02 1.01329E-22
2.51504E-02 9.57345E-23
2.58382E-02 9.05171E-23
2.65349E-02 8.56464E-23
2.72407E-02 8.10956E-23
2.79555E-02 7.68398E-23
2.86793E-02 7.28566E-23
2.94120E-02 6.91251E-23
3.01537E-02 6.56270E-23
3.09043E-02 6.23449E-23
3.16639E-02 5.92629E-23
3.24324E-02 5.63669E-23
3.32098E-02 5.36436E-23
3.39961E-02 5.10808E-23
3.47912E-02 4.86674E-23
3.55952E-02 4.63931E-23
3.64081E-02 4.42485E-23
3.72297E-02 4.22248E-23
3.80602E-02 4.03141E-23
3.88995E-02 3.85088E-23
3.97476E-02 3.68021E-23
4.06044E-02 3.51877E-23
4.14700E-02 3.36597E-23
4.23443E-02 3.22126E-23
4.32273E-02 3.08415E-23
4.41190E-02 2.95414E-23
4.50194E-02 2.83083E-23
4.59284E-02 2.71379E-23
4.68461E-02 2.60265E-23
4.87074E-02 2.39669E-23
5.06030E-02 2.21043E-23
5.25328E-02 2.04166E-23
5.44967E-02 1.88847E-23
5.64946E-02 1.74916E-23
5.85262E-02 1.62228E-23
6.05914E-02 1.50652E-23
6.26901E-02 1.40074E-23
6.48222E-02 1.30393E-23
6.69873E-02 1.21521E-23
6.91854E-02 1.13379E-23
7.14163E-02 1.05896E-23
7.36799E-02 9.90092E-24
7.59760E-02 9.26639E-24
7.83043E-02 8.68085E-24
8.06647E-02 8.13998E-24
8.30571E-02 7.63981E-24
8.54812E-02 7.17674E-24
8.79369E-02 6.74754E-24
9.04240E-02 6.34933E-24
9.29422E-02 5.97947E-24
9.54915E-02 5.63560E-24
9.80716E-02 5.31559E-24
1.00682E-01 5.01749E-24
1.03323E-01 4.73955E-24
1.05995E-01 4.48017E-24
1.08696E-01 4.23789E-24
1.11427E-01 4.01140E-24
1.14188E-01 3.79949E-24
1.16978E-01 3.60107E-24
1.19797E-01 3.41512E-24
1.22645E-01 3.24072E-24
1.25522E-01 3.07705E-24
1.28428E-01 2.92331E-24
1.31361E-01 2.77882E-24
1.34323E-01 2.64291E-24
1.37313E-01 2.51499E-24
1.40330E-01 2.39451E-24
1.43375E-01 2.28096E-24
1.46447E-01 2.17388E-24
1.49545E-01 2.07283E-24
1.52671E-01 1.97742E-24
1.55823E-01 1.88728E-24
1.59001E-01 1.80206E-24
1.62205E-01 1.72146E-24
1.65435E-01 1.64517E-24
1.68690E-01 1.57293E-24
1.71970E-01 1.50449E-24
1.75276E-01 1.43962E-24
1.78606E-01 1.37809E-24
1.81961E-01 1.31970E-24
1.85340E-01 1.26427E-24
1.88743E-01 1.21162E-24
1.92169E-01 1.16159E-24
1.95619E-01 1.11403E-24
1.99092E-01 1.06879E-24
2.02589E-01 1.02574E-24
2.06107E-01 9.84753E-25
2.09649E-01 9.45719E-25
2.13212E-01 9.08527E-25
2.16797E-01 8.73076E-25
2.20404E-01 8.39270E-25
2.24032E-01 8.07020E-25
2.27680E-01 7.76242E-25
2.31350E-01 7.46858E-25
2.35040E-01 7.18793E-25
2.38751E-01 6.91979E-25
2.42481E-01 6.66351E-25
2.46231E-01 6.41847E-25
2.50000E-01 6.18410E-25
2.53788E-01 5.95985E-25
2.57595E-01 5.74521E-25
2.61421E-01 5.53971E-25
2.65264E-01 5.34289E-25
2.69126E-01 5.15432E-25
2.73005E-01 4.97359E-25
2.76901E-01 4.80033E-25
2.80814E-01 4.63418E-25
2.84744E-01 4.47480E-25
2.88691E-01 4.32186E-25
2.92653E-01 4.17506E-25
2.96632E-01 4.03411E-25
3.00625E-01 3.89875E-25
3.04634E-01 3.76870E-25
3.08658E-01 3.64374E-25
3.12697E-01 3.52363E-25
3.16749E-01 3.40815E-25
3.20816E-01 3.29709E-25
3.24896E-01 3.19025E-25
3.28990E-01 3.08745E-25
3.33097E-01 2.98851E-25
3.37216E-01 2.89326E-25
3.41348E-01 2.80155E-25
3.45492E-01 2.71321E-25
3.49647E-01 2.62810E-25
3.53814E-01 2.54609E-25
3.57992E-01 2.46705E-25
3.62181E-01 2.39084E-25
3.66381E-01 2.31736E-25
3.70590E-01 2.24649E-25
3.74810E-01 2.17811E-25
3.79039E-01 2.11214E-25
3.83277E-01 2.04847E-25
3.87524E-01 1.98700E-25
3.91780E-01 1.92766E-25
3.96044E-01 1.87034E-25
4.00316E-01 1.81498E-25
4.04596E-01 1.76150E-25
4.08882E-01 1.70982E-25
4.13176E-01 1.65987E-25
4.17476E-01 1.61159E-25
4.21783E-01 1.56490E-25
4.26095E-01 1.51976E-25
4.30413E-01 1.47609E-25
4.34737E-01 1.43385E-25
4.39065E-01 1.39298E-25
4.43398E-01 1.35343E-25
4.47736E-01 1.31515E-25
4.52077E-01 1.27809E-25
4.56422E-01 1.24220E-25
4.60770E-01 1.20745E-25
4.65122E-01 1.17379E-25
4.69476E-01 1.14119E-25
4.73832E-01 1.10960E-25
4.78190E-01 1.07899E-25
4.82550E-01 1.04932E-25
4.86912E-01 1.02056E-25
4.91274E-01 9.92684E-26
4.95637E-01 9.65650E-26
5.00000E-01 9.39433E-26
5.04363E-01 9.14005E-26
5.08726E-01 8.89339E-26
5.13088E-01 8.65407E-26
5.17450E-01 8.42185E-26
5.21810E-01 8.19649E-26
5.26168E-01 7.97774E-26
5.30524E-01 7.76540E-26
5.34878E-01 7.55924E-26
5.39230E-01 7.35906E-26
5.43578E-01 7.16466E-26
5.47923E-01 6.97584E-26
5.52264E-01 6.79243E-26
5.56602E-01 6.61424E-26
5.60935E-01 6.44110E-26
5.65263E-01 6.27285E-26
5.69587E-01 6.10934E-26
5.73905E-01 5.95040E-26
5.78217E-01 5.79590E-26
5.82524E-01 5.64569E-26
5.86824E-01 5.49963E-26
5.91118E-01 5.35759E-26
5.95404E-01 5.21946E-26
5.99684E-01 5.08509E-26
6.03956E-01 4.95439E-26
6.08220E-01 4.82722E-26
6.12476E-01 4.70349E-26
6.16723E-01 4.58309E-26
6.20961E-01 4.46592E-26
6.25190E-01 4.35187E-26
6.29410E-01 4.24085E-26
6.33619E-01 4.13278E-26
6.37819E-01 4.02756E-26
6.42008E-01 3.92511E-26
6.46186E-01 3.82534E-26
6.50353E-01 3.72818E-26
6.54508E-01 3.63354E-26
6.58652E-01 3.54136E-26
6.62784E-01 3.45156E-26
6.66903E-01 3.36407E-26
6.71010E-01 3.27883E-26
6.75104E-01 3.19577E-26
6.79184E-01 3.11482E-26
6.83251E-01 3.03593E-26
6.87303E-01 2.95904E-26
6.91342E-01 2.88409E-26
6.95366E-01 2.81103E-26
6.99375E-01 2.73979E-26
7.03368E-01 2.67034E-26
7.07347E-01 2.60262E-26
7.11309E-01 2.53658E-26
7.15256E-01 2.47218E-26
7.19186E-01 2.40937E-26
7.23099E-01 2.34811E-26
7.26995E-01 2.28835E-26
7.30874E-01 2.23006E-26
7.34736E-01 2.17319E-26
7.38579E-01 2.11770E-26
7.42405E-01 2.06357E-26
7.46212E-01 2.01074E-26
7.50000E-01 1.95919E-26
7.53769E-01 1.90889E-26
7.57519E-01 1.85979E-26
7.61249E-01 1.81187E-26
7.64960E-01 1.76510E-26
7.68650E-01 1.71945E-26
7.72320E-01 1.67488E-26
7.75968E-01 1.63138E-26
7.79596E-01 1.58890E-26
7.83203E-01 1.54744E-26
7.86788E-01 1.50695E-26
7.90351E-01 1.46741E-26
7.93893E-01 1.42881E-26
7.97411E-01 1.39111E-26
8.00908E-01 1.35430E-26
8.04381E-01 1.31835E-26
8.07831E-01 1.28324E-26
8.11257E-01 1.24895E-26
8.14660E-01 1.21546E-26
8.18039E-01 1.18274E-26
8.21394E-01 1.15079E-26
8.24724E-01 1.11958E-26
8.28030E-01 1.08910E-26
8.31310E-01 1.05932E-26
8.34565E-01 1.03022E-26
8.37795E-01 1.00181E-26
8.40999E-01 9.74044E-27
8.44177E-01 9.46923E-27
8.47329E-01 9.20428E-27
8.50455E-01 8.94544E-27
8.53553E-01 8.69256E-27
8.56625E-01 8.44552E-27
8.59670E-01 8.20416E-27
8.62687E-01 7.96837E-27
8.65677E-01 7.73802E-27
8.68639E-01 7.51297E-27
8.71572E-01 7.29311E-27
8.74478E-01 7.07832E-27
8.77355E-01 6.86850E-27
8.80203E-01 6.66352E-27
8.83022E-01 6.46327E-27
8.85812E-01 6.26767E-27
8.88573E-01 6.07660E-27
8.91304E-01 5.88996E-27
8.94005E-01 5.70766E-27
8.96677E-01 5.52961E-27
8.99318E-01 5.35570E-27
9.01928E-01 5.18587E-27
9.04508E-01 5.02001E-27
9.07058E-01 4.85805E-27
9.09576E-01 4.69991E-27
9.12063E-01 4.54550E-27
9.14519E-01 4.39475E-27
9.16943E-01 4.24758E-27
9.19335E-01 4.10393E-27
9.21696E-01 3.96372E-27
9.24024E-01 3.82688E-27
9.26320E-01 3.69334E-27
9.28584E-01 3.56305E-27
9.30815E-01 3.43594E-27
9.33013E-01 3.31194E-27
9.35178E-01 3.19100E-27
9.37310E-01 3.07306E-27
9.39409E-01 2.95807E-27
9.41474E-01 2.84596E-27
9.43505E-01 2.73670E-27
9.45503E-01 2.63021E-27
9.47467E-01 2.52647E-27
9.49397E-01 2.42540E-27
9.51293E-01 2.32698E-27
9.53154E-01 2.23116E-27
9.54981E-01 2.13788E-27
9.56773E-01 2.04711E-27
9.58530E-01 1.95880E-27
9.60252E-01 1.87292E-27
9.61940E-01 1.78942E-27
9.63592E-01 1.70827E-27
9.65209E-01 1.62943E-27
9.66790E-01 1.55286E-27
9.68336E-01 1.47854E-27
9.69846E-01 1.40642E-27
9.71321E-01 1.33647E-27
9.72759E-01 1.26867E-27
9.74162E-01 1.20298E-27
9.75528E-01 1.13937E-27
9.76858E-01 1.07782E-27
9.78152E-01 1.01829E-27
9.79410E-01 9.60765E-28
9.80631E-01 9.05215E-28
9.81815E-01 8.51617E-28
9.82963E-01 7.99946E-28
9.84074E-01 7.50181E-28
9.85148E-01 7.02298E-28
9.86185E-01 6.56277E-28
9.87185E-01 6.12099E-28
9.88148E-01 5.69743E-28
9.89074E-01 5.29191E-28
9.89962E-01 4.90426E-28
9.90814E-01 4.53432E-28
9.91627E-01 4.18191E-28
9.92404E-01 3.84689E-28
9.93143E-01 3.52911E-28
9.93844E-01 3.22843E-28
9.94508E-01 2.94473E-28
9.95134E-01 2.67789E-28
9.95722E-01 2.42778E-28
9.96273E-01 2.19431E-28
9.96786E-01 1.97737E-28
9.97261E-01 1.77687E-28
9.97698E-01 1.59272E-28
9.98097E-01 1.42485E-28
9.98459E-01 1.27318E-28
9.98782E-01 1.13765E-28
9.99067E-01 1.01820E-28
9.99315E-01 9.14774E-29
9.99524E-01 8.27337E-29
9.99695E-01 7.55849E-29
9.99829E-01 7.00279E-29
9.99924E-01 6.60603E-29
9.99981E-01 6.36803E-29
1.00000E+00 6.28873E-29
