 #
 # Subroutine ELSEPA. Elastic scattering of electrons and positrons
 #                    by neutral atoms and positive ions
 #
 # Projectile: positron
 # Kinetic energy = 4.50000E+06 eV = 1.65372E+05 a.u.
 #
 # WARNING: High-energy factorization with free-atom DF screening.
 #          Absorption, polarization and exchange corrections are
 #          switched off.
 #          Phase shifts are calculated for the bare nucleus.
 #          Scattering amplitudes are not evaluated.
 #
 # Element: Dy,  Z =  66,  atomic weight = 1.62500E+02 g/mol
 #
 # Nuclear model: Fermi distribution
 #                Average radius = 5.83895E-13 cm
 #                Skin thickness = 5.46000E-14 cm
 #
 # Number of electrons = 66
 #
 # Total elastic cross section = 7.17878E-18 cm**2 = 2.56359E-01 a0**2
 # 1st transport cross section = 2.14032E-22 cm**2 = 7.64321E-06 a0**2
 # 2nd transport cross section = 6.15296E-22 cm**2 = 2.19726E-05 a0**2
 #
 #
 # Differential cross section:                       MU=(1-COS(THETA))/2
 #
 #  THETA        MU          DCS          DCS        Sherman      error
 #  (deg)                 (cm**2/sr)   (a0**2/sr)    function
 #----------------------------------------------------------------------
0.00000E+00 1.96813E-12
7.61557E-13 1.96810E-12
1.18994E-12 1.96809E-12
1.71346E-12 1.96807E-12
2.33225E-12 1.96805E-12
3.04617E-12 1.96803E-12
3.85530E-12 1.96800E-12
4.75964E-12 1.96797E-12
5.75917E-12 1.96794E-12
6.85391E-12 1.96791E-12
8.04379E-12 1.96787E-12
9.32893E-12 1.96783E-12
1.07092E-11 1.96779E-12
1.21847E-11 1.96775E-12
1.37554E-11 1.96770E-12
1.54213E-11 1.96765E-12
1.71823E-11 1.96759E-12
1.90386E-11 1.96754E-12
2.09900E-11 1.96748E-12
2.30367E-11 1.96742E-12
2.51785E-11 1.96735E-12
2.74156E-11 1.96728E-12
2.97478E-11 1.96721E-12
3.21752E-11 1.96714E-12
3.46979E-11 1.96706E-12
3.73157E-11 1.96698E-12
4.00286E-11 1.96690E-12
4.28368E-11 1.96682E-12
4.57402E-11 1.96673E-12
4.87388E-11 1.96664E-12
5.18325E-11 1.96654E-12
5.50215E-11 1.96645E-12
5.83057E-11 1.96635E-12
6.16850E-11 1.96624E-12
6.51595E-11 1.96614E-12
6.87293E-11 1.96603E-12
7.23943E-11 1.96592E-12
7.61544E-11 1.96581E-12
1.18991E-10 1.96451E-12
1.71347E-10 1.96293E-12
2.33223E-10 1.96107E-12
3.04617E-10 1.95893E-12
3.85531E-10 1.95651E-12
4.75965E-10 1.95381E-12
5.75917E-10 1.95083E-12
6.85389E-10 1.94758E-12
8.04380E-10 1.94405E-12
9.32891E-10 1.94026E-12
1.07092E-09 1.93620E-12
1.21847E-09 1.93188E-12
1.37554E-09 1.92729E-12
1.54213E-09 1.92245E-12
1.71823E-09 1.91736E-12
1.90386E-09 1.91201E-12
2.09900E-09 1.90641E-12
2.30367E-09 1.90058E-12
2.51785E-09 1.89450E-12
2.74156E-09 1.88819E-12
2.97478E-09 1.88165E-12
3.21752E-09 1.87488E-12
3.46978E-09 1.86789E-12
3.73156E-09 1.86068E-12
4.00286E-09 1.85326E-12
4.28368E-09 1.84564E-12
4.57402E-09 1.83780E-12
4.87388E-09 1.82978E-12
5.18326E-09 1.82156E-12
5.50215E-09 1.81315E-12
5.83057E-09 1.80456E-12
6.16850E-09 1.79579E-12
6.51596E-09 1.78685E-12
6.87293E-09 1.77775E-12
7.23942E-09 1.76848E-12
7.61544E-09 1.75906E-12
1.18991E-08 1.65778E-12
1.71347E-08 1.54682E-12
2.33223E-08 1.43150E-12
3.04617E-08 1.31622E-12
3.85531E-08 1.20449E-12
4.75965E-08 1.09880E-12
5.75917E-08 1.00076E-12
6.85389E-08 9.11389E-13
8.04380E-08 8.30581E-13
9.32891E-08 7.58094E-13
1.07092E-07 6.93416E-13
1.21847E-07 6.35885E-13
1.37554E-07 5.84773E-13
1.54213E-07 5.39351E-13
1.71823E-07 4.98919E-13
1.90386E-07 4.62839E-13
2.09900E-07 4.30534E-13
2.30367E-07 4.01498E-13
2.51785E-07 3.75279E-13
2.74156E-07 3.51495E-13
2.97478E-07 3.29832E-13
3.21752E-07 3.10020E-13
3.46978E-07 2.91832E-13
3.73156E-07 2.75076E-13
4.00286E-07 2.59588E-13
4.28368E-07 2.45229E-13
4.57402E-07 2.31880E-13
4.87388E-07 2.19442E-13
5.18325E-07 2.07820E-13
5.50215E-07 1.96923E-13
5.83057E-07 1.86714E-13
6.16850E-07 1.77136E-13
6.51596E-07 1.68140E-13
6.87293E-07 1.59682E-13
7.23942E-07 1.51723E-13
7.61543E-07 1.44228E-13
1.18991E-06 8.77357E-14
1.71347E-06 5.66861E-14
2.33223E-06 3.80867E-14
3.04617E-06 2.64987E-14
3.85531E-06 1.89790E-14
4.75964E-06 1.39141E-14
5.75916E-06 1.03947E-14
6.85388E-06 7.88071E-15
8.04378E-06 6.06638E-15
9.32888E-06 4.73584E-15
1.07092E-05 3.74639E-15
1.21846E-05 3.00111E-15
1.37553E-05 2.43284E-15
1.54212E-05 1.99434E-15
1.71822E-05 1.65197E-15
1.90385E-05 1.38096E-15
2.09899E-05 1.16579E-15
2.30365E-05 9.92208E-16
2.51783E-05 8.49447E-16
2.74153E-05 7.31906E-16
2.97475E-05 6.34402E-16
3.21749E-05 5.52931E-16
3.46974E-05 4.84363E-16
3.73152E-05 4.26243E-16
4.00281E-05 3.76637E-16
4.28362E-05 3.34028E-16
4.57395E-05 2.97224E-16
4.87380E-05 2.65284E-16
5.18317E-05 2.37453E-16
5.50205E-05 2.13117E-16
5.83045E-05 1.91795E-16
6.16838E-05 1.73061E-16
6.51582E-05 1.56551E-16
6.87277E-05 1.41956E-16
7.23925E-05 1.29013E-16
7.61524E-05 1.17500E-16
9.21439E-05 8.24185E-17
1.09658E-04 5.94475E-17
1.28695E-04 4.39561E-17
1.49255E-04 3.31966E-17
1.71338E-04 2.55432E-17
1.94942E-04 1.99759E-17
2.20070E-04 1.58478E-17
2.46720E-04 1.27343E-17
2.74892E-04 1.03495E-17
3.04586E-04 8.49782E-18
3.35803E-04 7.04222E-18
3.68542E-04 5.88496E-18
4.02802E-04 4.95532E-18
4.38585E-04 4.20192E-18
4.75889E-04 3.58615E-18
5.14715E-04 3.07888E-18
5.55063E-04 2.65798E-18
5.96931E-04 2.30639E-18
6.40321E-04 2.01087E-18
6.85233E-04 1.76104E-18
7.31665E-04 1.54869E-18
7.79618E-04 1.36729E-18
8.29092E-04 1.21157E-18
8.80086E-04 1.07730E-18
9.32601E-04 9.61057E-19
9.86636E-04 8.60023E-19
1.04219E-03 7.71875E-19
1.09927E-03 6.94697E-19
1.15786E-03 6.26895E-19
1.21797E-03 5.67138E-19
1.27961E-03 5.14311E-19
1.34276E-03 4.67473E-19
1.40743E-03 4.25831E-19
1.47362E-03 3.88707E-19
1.54133E-03 3.55528E-19
1.61056E-03 3.25804E-19
1.68131E-03 2.99113E-19
1.75357E-03 2.75092E-19
1.82735E-03 2.53428E-19
1.90265E-03 2.33848E-19
1.97947E-03 2.16119E-19
2.05780E-03 2.00033E-19
2.13765E-03 1.85412E-19
2.21902E-03 1.72099E-19
2.30190E-03 1.59956E-19
2.38630E-03 1.48861E-19
2.47222E-03 1.38709E-19
2.55965E-03 1.29406E-19
2.64859E-03 1.20867E-19
2.73905E-03 1.13019E-19
2.83103E-03 1.05796E-19
2.92452E-03 9.91383E-20
3.01952E-03 9.29949E-20
3.11604E-03 8.73184E-20
3.21407E-03 8.20672E-20
3.31362E-03 7.72032E-20
3.41468E-03 7.26930E-20
3.51725E-03 6.85063E-20
3.62133E-03 6.46155E-20
3.72692E-03 6.09961E-20
3.83403E-03 5.76256E-20
3.94265E-03 5.44839E-20
4.05278E-03 5.15524E-20
4.16442E-03 4.88148E-20
4.27757E-03 4.62558E-20
4.39223E-03 4.38615E-20
4.50840E-03 4.16194E-20
4.62608E-03 3.95182E-20
4.74527E-03 3.75473E-20
4.86597E-03 3.56972E-20
4.98817E-03 3.39591E-20
5.11188E-03 3.23251E-20
5.23711E-03 3.07877E-20
5.36383E-03 2.93402E-20
5.49207E-03 2.79763E-20
5.62181E-03 2.66904E-20
5.75306E-03 2.54771E-20
5.88581E-03 2.43317E-20
6.02007E-03 2.32495E-20
6.15583E-03 2.22265E-20
6.29310E-03 2.12589E-20
6.43187E-03 2.03431E-20
6.57214E-03 1.94758E-20
6.71392E-03 1.86539E-20
6.85720E-03 1.78747E-20
7.00198E-03 1.71356E-20
7.14827E-03 1.64340E-20
7.29605E-03 1.57678E-20
7.44534E-03 1.51347E-20
7.59612E-03 1.45330E-20
7.97965E-03 1.31536E-20
8.37255E-03 1.19331E-20
8.77480E-03 1.08502E-20
9.18641E-03 9.88656E-21
9.60736E-03 9.02690E-21
1.00376E-02 8.25808E-21
1.04773E-02 7.56888E-21
1.09262E-02 6.94961E-21
1.13844E-02 6.39197E-21
1.18520E-02 5.88878E-21
1.23288E-02 5.43378E-21
1.28150E-02 5.02158E-21
1.33104E-02 4.64745E-21
1.38150E-02 4.30725E-21
1.43290E-02 3.99739E-21
1.48521E-02 3.71467E-21
1.53845E-02 3.45631E-21
1.59262E-02 3.21986E-21
1.64770E-02 3.00311E-21
1.70371E-02 2.80415E-21
1.76063E-02 2.62126E-21
1.81848E-02 2.45292E-21
1.87724E-02 2.29776E-21
1.93692E-02 2.15456E-21
1.99751E-02 2.02225E-21
2.05901E-02 1.89985E-21
2.12143E-02 1.78649E-21
2.18476E-02 1.68138E-21
2.24900E-02 1.58382E-21
2.31415E-02 1.49316E-21
2.38021E-02 1.40884E-21
2.44717E-02 1.33033E-21
2.51504E-02 1.25716E-21
2.58382E-02 1.18890E-21
2.65349E-02 1.12516E-21
2.72407E-02 1.06560E-21
2.79555E-02 1.00988E-21
2.86793E-02 9.57724E-22
2.94120E-02 9.08854E-22
3.01537E-02 8.63029E-22
3.09043E-02 8.20025E-22
3.16639E-02 7.79637E-22
3.24324E-02 7.41678E-22
3.32098E-02 7.05976E-22
3.39961E-02 6.72373E-22
3.47912E-02 6.40723E-22
3.55952E-02 6.10891E-22
3.64081E-02 5.82756E-22
3.72297E-02 5.56204E-22
3.80602E-02 5.31128E-22
3.88995E-02 5.07434E-22
3.97476E-02 4.85030E-22
4.06044E-02 4.63834E-22
4.14700E-02 4.43769E-22
4.23443E-02 4.24764E-22
4.32273E-02 4.06753E-22
4.41190E-02 3.89675E-22
4.50194E-02 3.73472E-22
4.59284E-02 3.58091E-22
4.68461E-02 3.43484E-22
4.87074E-02 3.16410E-22
5.06030E-02 2.91919E-22
5.25328E-02 2.69722E-22
5.44967E-02 2.49567E-22
5.64946E-02 2.31236E-22
5.85262E-02 2.14534E-22
6.05914E-02 1.99292E-22
6.26901E-02 1.85362E-22
6.48222E-02 1.72610E-22
6.69873E-02 1.60921E-22
6.91854E-02 1.50189E-22
7.14163E-02 1.40325E-22
7.36799E-02 1.31244E-22
7.59760E-02 1.22875E-22
7.83043E-02 1.15152E-22
8.06647E-02 1.08017E-22
8.30571E-02 1.01417E-22
8.54812E-02 9.53045E-23
8.79369E-02 8.96384E-23
9.04240E-02 8.43798E-23
9.29422E-02 7.94946E-23
9.54915E-02 7.49515E-23
9.80716E-02 7.07226E-23
1.00682E-01 6.67823E-23
1.03323E-01 6.31075E-23
1.05995E-01 5.96773E-23
1.08696E-01 5.64726E-23
1.11427E-01 5.34760E-23
1.14188E-01 5.06715E-23
1.16978E-01 4.80448E-23
1.19797E-01 4.55826E-23
1.22645E-01 4.32729E-23
1.25522E-01 4.11046E-23
1.28428E-01 3.90675E-23
1.31361E-01 3.71523E-23
1.34323E-01 3.53505E-23
1.37313E-01 3.36541E-23
1.40330E-01 3.20559E-23
1.43375E-01 3.05493E-23
1.46447E-01 2.91281E-23
1.49545E-01 2.77866E-23
1.52671E-01 2.65196E-23
1.55823E-01 2.53222E-23
1.59001E-01 2.41900E-23
1.62205E-01 2.31187E-23
1.65435E-01 2.21046E-23
1.68690E-01 2.11439E-23
1.71970E-01 2.02336E-23
1.75276E-01 1.93704E-23
1.78606E-01 1.85514E-23
1.81961E-01 1.77741E-23
1.85340E-01 1.70359E-23
1.88743E-01 1.63346E-23
1.92169E-01 1.56679E-23
1.95619E-01 1.50339E-23
1.99092E-01 1.44306E-23
2.02589E-01 1.38564E-23
2.06107E-01 1.33096E-23
2.09649E-01 1.27887E-23
2.13212E-01 1.22921E-23
2.16797E-01 1.18187E-23
2.20404E-01 1.13671E-23
2.24032E-01 1.09361E-23
2.27680E-01 1.05246E-23
2.31350E-01 1.01317E-23
2.35040E-01 9.75626E-24
2.38751E-01 9.39745E-24
2.42481E-01 9.05439E-24
2.46231E-01 8.72626E-24
2.50000E-01 8.41230E-24
2.53788E-01 8.11180E-24
2.57595E-01 7.82408E-24
2.61421E-01 7.54851E-24
2.65264E-01 7.28448E-24
2.69126E-01 7.03142E-24
2.73005E-01 6.78881E-24
2.76901E-01 6.55614E-24
2.80814E-01 6.33292E-24
2.84744E-01 6.11871E-24
2.88691E-01 5.91309E-24
2.92653E-01 5.71566E-24
2.96632E-01 5.52602E-24
3.00625E-01 5.34382E-24
3.04634E-01 5.16872E-24
3.08658E-01 5.00039E-24
3.12697E-01 4.83853E-24
3.16749E-01 4.68285E-24
3.20816E-01 4.53307E-24
3.24896E-01 4.38892E-24
3.28990E-01 4.25017E-24
3.33097E-01 4.11658E-24
3.37216E-01 3.98791E-24
3.41348E-01 3.86396E-24
3.45492E-01 3.74453E-24
3.49647E-01 3.62942E-24
3.53814E-01 3.51845E-24
3.57992E-01 3.41145E-24
3.62181E-01 3.30825E-24
3.66381E-01 3.20869E-24
3.70590E-01 3.11263E-24
3.74810E-01 3.01991E-24
3.79039E-01 2.93041E-24
3.83277E-01 2.84399E-24
3.87524E-01 2.76052E-24
3.91780E-01 2.67991E-24
3.96044E-01 2.60202E-24
4.00316E-01 2.52675E-24
4.04596E-01 2.45399E-24
4.08882E-01 2.38366E-24
4.13176E-01 2.31565E-24
4.17476E-01 2.24988E-24
4.21783E-01 2.18625E-24
4.26095E-01 2.12470E-24
4.30413E-01 2.06514E-24
4.34737E-01 2.00749E-24
4.39065E-01 1.95168E-24
4.43398E-01 1.89765E-24
4.47736E-01 1.84533E-24
4.52077E-01 1.79465E-24
4.56422E-01 1.74556E-24
4.60770E-01 1.69799E-24
4.65122E-01 1.65190E-24
4.69476E-01 1.60723E-24
4.73832E-01 1.56393E-24
4.78190E-01 1.52194E-24
4.82550E-01 1.48123E-24
4.86912E-01 1.44175E-24
4.91274E-01 1.40346E-24
4.95637E-01 1.36630E-24
5.00000E-01 1.33026E-24
5.04363E-01 1.29528E-24
5.08726E-01 1.26132E-24
5.13088E-01 1.22837E-24
5.17450E-01 1.19637E-24
5.21810E-01 1.16530E-24
5.26168E-01 1.13513E-24
5.30524E-01 1.10582E-24
5.34878E-01 1.07736E-24
5.39230E-01 1.04970E-24
5.43578E-01 1.02283E-24
5.47923E-01 9.96716E-25
5.52264E-01 9.71335E-25
5.56602E-01 9.46664E-25
5.60935E-01 9.22679E-25
5.65263E-01 8.99359E-25
5.69587E-01 8.76682E-25
5.73905E-01 8.54628E-25
5.78217E-01 8.33177E-25
5.82524E-01 8.12310E-25
5.86824E-01 7.92009E-25
5.91118E-01 7.72256E-25
5.95404E-01 7.53034E-25
5.99684E-01 7.34326E-25
6.03956E-01 7.16118E-25
6.08220E-01 6.98392E-25
6.12476E-01 6.81136E-25
6.16723E-01 6.64334E-25
6.20961E-01 6.47973E-25
6.25190E-01 6.32039E-25
6.29410E-01 6.16521E-25
6.33619E-01 6.01404E-25
6.37819E-01 5.86678E-25
6.42008E-01 5.72331E-25
6.46186E-01 5.58351E-25
6.50353E-01 5.44729E-25
6.54508E-01 5.31453E-25
6.58652E-01 5.18514E-25
6.62784E-01 5.05901E-25
6.66903E-01 4.93606E-25
6.71010E-01 4.81620E-25
6.75104E-01 4.69933E-25
6.79184E-01 4.58536E-25
6.83251E-01 4.47423E-25
6.87303E-01 4.36585E-25
6.91342E-01 4.26014E-25
6.95366E-01 4.15702E-25
6.99375E-01 4.05643E-25
7.03368E-01 3.95830E-25
7.07347E-01 3.86256E-25
7.11309E-01 3.76913E-25
7.15256E-01 3.67797E-25
7.19186E-01 3.58901E-25
7.23099E-01 3.50218E-25
7.26995E-01 3.41744E-25
7.30874E-01 3.33472E-25
7.34736E-01 3.25397E-25
7.38579E-01 3.17514E-25
7.42405E-01 3.09817E-25
7.46212E-01 3.02303E-25
7.50000E-01 2.94966E-25
7.53769E-01 2.87801E-25
7.57519E-01 2.80805E-25
7.61249E-01 2.73972E-25
7.64960E-01 2.67298E-25
7.68650E-01 2.60780E-25
7.72320E-01 2.54413E-25
7.75968E-01 2.48194E-25
7.79596E-01 2.42119E-25
7.83203E-01 2.36184E-25
7.86788E-01 2.30385E-25
7.90351E-01 2.24720E-25
7.93893E-01 2.19185E-25
7.97411E-01 2.13776E-25
8.00908E-01 2.08491E-25
8.04381E-01 2.03327E-25
8.07831E-01 1.98280E-25
8.11257E-01 1.93348E-25
8.14660E-01 1.88528E-25
8.18039E-01 1.83818E-25
8.21394E-01 1.79214E-25
8.24724E-01 1.74714E-25
8.28030E-01 1.70316E-25
8.31310E-01 1.66018E-25
8.34565E-01 1.61816E-25
8.37795E-01 1.57709E-25
8.40999E-01 1.53694E-25
8.44177E-01 1.49770E-25
8.47329E-01 1.45934E-25
8.50455E-01 1.42184E-25
8.53553E-01 1.38519E-25
8.56625E-01 1.34936E-25
8.59670E-01 1.31433E-25
8.62687E-01 1.28009E-25
8.65677E-01 1.24663E-25
8.68639E-01 1.21391E-25
8.71572E-01 1.18193E-25
8.74478E-01 1.15067E-25
8.77355E-01 1.12011E-25
8.80203E-01 1.09025E-25
8.83022E-01 1.06105E-25
8.85812E-01 1.03252E-25
8.88573E-01 1.00463E-25
8.91304E-01 9.77380E-26
8.94005E-01 9.50744E-26
8.96677E-01 9.24713E-26
8.99318E-01 8.99277E-26
9.01928E-01 8.74421E-26
9.04508E-01 8.50135E-26
9.07058E-01 8.26407E-26
9.09576E-01 8.03225E-26
9.12063E-01 7.80580E-26
9.14519E-01 7.58459E-26
9.16943E-01 7.36853E-26
9.19335E-01 7.15752E-26
9.21696E-01 6.95146E-26
9.24024E-01 6.75026E-26
9.26320E-01 6.55382E-26
9.28584E-01 6.36206E-26
9.30815E-01 6.17488E-26
9.33013E-01 5.99221E-26
9.35178E-01 5.81395E-26
9.37310E-01 5.64004E-26
9.39409E-01 5.47038E-26
9.41474E-01 5.30492E-26
9.43505E-01 5.14357E-26
9.45503E-01 4.98626E-26
9.47467E-01 4.83292E-26
9.49397E-01 4.68349E-26
9.51293E-01 4.53790E-26
9.53154E-01 4.39609E-26
9.54981E-01 4.25799E-26
9.56773E-01 4.12355E-26
9.58530E-01 3.99270E-26
9.60252E-01 3.86540E-26
9.61940E-01 3.74158E-26
9.63592E-01 3.62120E-26
9.65209E-01 3.50420E-26
9.66790E-01 3.39053E-26
9.68336E-01 3.28015E-26
9.69846E-01 3.17301E-26
9.71321E-01 3.06906E-26
9.72759E-01 2.96826E-26
9.74162E-01 2.87057E-26
9.75528E-01 2.77594E-26
9.76858E-01 2.68434E-26
9.78152E-01 2.59574E-26
9.79410E-01 2.51008E-26
9.80631E-01 2.42734E-26
9.81815E-01 2.34749E-26
9.82963E-01 2.27048E-26
9.84074E-01 2.19630E-26
9.85148E-01 2.12490E-26
9.86185E-01 2.05626E-26
9.87185E-01 1.99035E-26
9.88148E-01 1.92715E-26
9.89074E-01 1.86662E-26
9.89962E-01 1.80875E-26
9.90814E-01 1.75351E-26
9.91627E-01 1.70088E-26
9.92404E-01 1.65083E-26
9.93143E-01 1.60335E-26
9.93844E-01 1.55842E-26
9.94508E-01 1.51602E-26
9.95134E-01 1.47613E-26
9.95722E-01 1.43874E-26
9.96273E-01 1.40383E-26
9.96786E-01 1.37139E-26
9.97261E-01 1.34140E-26
9.97698E-01 1.31386E-26
9.98097E-01 1.28875E-26
9.98459E-01 1.26605E-26
9.98782E-01 1.24578E-26
9.99067E-01 1.22790E-26
9.99315E-01 1.21243E-26
9.99524E-01 1.19934E-26
9.99695E-01 1.18864E-26
9.99829E-01 1.18033E-26
9.99924E-01 1.17439E-26
9.99981E-01 1.17082E-26
1.00000E+00 1.16964E-26
