 #
 # Subroutine ELSEPA. Elastic scattering of electrons and positrons
 #                    by neutral atoms and positive ions
 #
 # Projectile: positron
 # Kinetic energy = 7.00000E+08 eV = 2.57245E+07 a.u.
 #
 # WARNING: High-energy factorization with free-atom DF screening.
 #          Absorption, polarization and exchange corrections are
 #          switched off.
 #          Phase shifts are calculated for the bare nucleus.
 #          Scattering amplitudes are not evaluated.
 #
 # Element: Dy,  Z =  66,  atomic weight = 1.62500E+02 g/mol
 #
 # Nuclear model: Fermi distribution
 #                Average radius = 5.83895E-13 cm
 #                Skin thickness = 5.46000E-14 cm
 #
 # Number of electrons = 66
 #
 # Total elastic cross section = 7.08525E-18 cm**2 = 2.53019E-01 a0**2
 # 1st transport cross section = 1.69281E-26 cm**2 = 6.04514E-10 a0**2
 # 2nd transport cross section = 5.07741E-26 cm**2 = 1.81318E-09 a0**2
 #
 #
 # Differential cross section:                       MU=(1-COS(THETA))/2
 #
 #  THETA        MU          DCS          DCS        Sherman      error
 #  (deg)                 (cm**2/sr)   (a0**2/sr)    function
 #----------------------------------------------------------------------
0.00000E+00 3.84622E-08
7.61557E-13 3.10651E-08
1.18994E-12 2.79189E-08
1.71346E-12 2.47733E-08
2.33225E-12 2.18034E-08
3.04617E-12 1.91271E-08
3.85530E-12 1.67763E-08
4.75964E-12 1.47479E-08
5.75917E-12 1.30199E-08
6.85391E-12 1.15607E-08
8.04379E-12 1.03227E-08
9.32893E-12 9.26957E-09
1.07092E-11 8.36983E-09
1.21847E-11 7.59463E-09
1.37554E-11 6.92110E-09
1.54213E-11 6.33139E-09
1.71823E-11 5.80954E-09
1.90386E-11 5.34530E-09
2.09900E-11 4.92989E-09
2.30367E-11 4.55547E-09
2.51785E-11 4.21560E-09
2.74156E-11 3.90706E-09
2.97478E-11 3.62605E-09
3.21752E-11 3.36830E-09
3.46979E-11 3.13196E-09
3.73157E-11 2.91528E-09
4.00286E-11 2.71622E-09
4.28368E-11 2.53222E-09
4.57402E-11 2.36293E-09
4.87388E-11 2.19697E-09
5.18325E-11 2.04301E-09
5.50215E-11 1.90536E-09
5.83057E-11 1.78192E-09
6.16850E-11 1.67092E-09
6.51595E-11 1.57083E-09
6.87293E-11 1.48033E-09
7.23943E-11 1.39830E-09
7.61544E-11 1.31128E-09
1.18991E-10 7.37685E-10
1.71347E-10 4.47114E-10
2.33223E-10 2.86223E-10
3.04617E-10 1.89803E-10
3.85531E-10 1.29981E-10
4.75965E-10 9.16233E-11
5.75917E-10 6.62688E-11
6.85389E-10 4.90455E-11
8.04380E-10 3.71338E-11
9.32891E-10 2.86929E-11
1.07092E-09 2.25673E-11
1.21847E-09 1.80287E-11
1.37554E-09 1.45905E-11
1.54213E-09 1.19534E-11
1.71823E-09 9.89347E-12
1.90386E-09 8.26363E-12
2.09900E-09 6.95710E-12
2.30367E-09 5.89710E-12
2.51785E-09 5.02869E-12
2.74156E-09 4.31347E-12
2.97478E-09 3.72044E-12
3.21752E-09 3.22493E-12
3.46978E-09 2.80873E-12
3.73156E-09 2.45721E-12
4.00286E-09 2.15861E-12
4.28368E-09 1.90339E-12
4.57402E-09 1.68464E-12
4.87388E-09 1.49561E-12
5.18326E-09 1.33262E-12
5.50215E-09 1.19199E-12
5.83057E-09 1.06908E-12
6.16850E-09 9.61326E-13
6.51596E-09 8.67233E-13
6.87293E-09 7.84325E-13
7.23942E-09 7.10821E-13
7.61544E-09 6.45979E-13
1.18991E-08 2.76705E-13
1.71347E-08 1.37669E-13
2.33223E-08 7.60079E-14
3.04617E-08 4.53023E-14
3.85531E-08 2.86359E-14
4.75965E-08 1.89669E-14
5.75917E-08 1.30507E-14
6.85389E-08 9.26958E-15
8.04380E-08 6.76314E-15
9.32891E-08 5.04921E-15
1.07092E-07 3.84540E-15
1.21847E-07 2.97994E-15
1.37554E-07 2.34488E-15
1.54213E-07 1.87039E-15
1.71823E-07 1.51011E-15
1.90386E-07 1.23257E-15
2.09900E-07 1.01598E-15
2.30367E-07 8.44948E-16
2.51785E-07 7.08443E-16
2.74156E-07 5.98425E-16
2.97478E-07 5.08959E-16
3.21752E-07 4.35602E-16
3.46978E-07 3.74995E-16
3.73156E-07 3.24570E-16
4.00286E-07 2.82340E-16
4.28368E-07 2.46759E-16
4.57402E-07 2.16608E-16
4.87388E-07 1.90922E-16
5.18325E-07 1.68932E-16
5.50215E-07 1.50017E-16
5.83057E-07 1.33676E-16
6.16850E-07 1.19500E-16
6.51596E-07 1.07153E-16
6.87293E-07 9.63591E-17
7.23942E-07 8.68904E-17
7.61543E-07 7.85560E-17
1.18991E-06 3.22760E-17
1.71347E-06 1.55913E-17
2.33223E-06 8.42385E-18
3.04617E-06 4.94068E-18
3.85531E-06 3.08545E-18
4.75964E-06 2.02473E-18
5.75916E-06 1.38304E-18
6.85388E-06 9.76535E-19
8.04378E-06 7.08970E-19
9.32888E-06 5.27064E-19
1.07092E-05 3.99921E-19
1.21846E-05 3.08898E-19
1.37553E-05 2.42354E-19
1.54212E-05 1.92797E-19
1.71822E-05 1.55281E-19
1.90385E-05 1.26403E-19
2.09899E-05 1.04033E-19
2.30365E-05 8.63871E-20
2.51783E-05 7.23104E-20
2.74153E-05 6.09730E-20
2.97475E-05 5.17654E-20
3.21749E-05 4.42309E-20
3.46974E-05 3.80213E-20
3.73152E-05 3.28678E-20
4.00281E-05 2.85614E-20
4.28362E-05 2.49389E-20
4.57395E-05 2.18727E-20
4.87380E-05 1.92625E-20
5.18317E-05 1.70288E-20
5.50205E-05 1.51084E-20
5.83045E-05 1.34508E-20
6.16838E-05 1.20144E-20
6.51582E-05 1.07650E-20
6.87277E-05 9.67416E-21
7.23925E-05 8.71824E-21
7.61524E-05 7.94899E-21
9.21439E-05 5.42146E-21
1.09658E-04 3.81988E-21
1.28695E-04 2.76605E-21
1.49255E-04 2.04954E-21
1.71338E-04 1.54909E-21
1.94942E-04 1.19103E-21
2.20070E-04 9.29543E-22
2.46720E-04 7.35087E-22
2.74892E-04 5.88117E-22
3.04586E-04 4.75451E-22
3.35803E-04 3.87956E-22
3.68542E-04 3.19224E-22
4.02802E-04 2.64661E-22
4.38585E-04 2.20933E-22
4.75889E-04 1.85585E-22
5.14715E-04 1.56782E-22
5.55063E-04 1.33142E-22
5.96931E-04 1.13608E-22
6.40321E-04 9.73670E-23
6.85233E-04 8.37870E-23
7.31665E-04 7.23715E-23
7.79618E-04 6.27282E-23
8.29092E-04 5.45446E-23
8.80086E-04 4.75700E-23
9.32601E-04 4.16021E-23
9.86636E-04 3.64767E-23
1.04219E-03 3.20594E-23
1.09927E-03 2.82399E-23
1.15786E-03 2.49273E-23
1.21797E-03 2.20459E-23
1.27961E-03 1.95330E-23
1.34276E-03 1.73358E-23
1.40743E-03 1.54101E-23
1.47362E-03 1.37185E-23
1.54133E-03 1.22295E-23
1.61056E-03 1.09161E-23
1.68131E-03 9.75544E-24
1.75357E-03 8.72799E-24
1.82735E-03 7.81693E-24
1.90265E-03 7.00780E-24
1.97947E-03 6.28812E-24
2.05780E-03 5.64713E-24
2.13765E-03 5.07545E-24
2.21902E-03 4.56497E-24
2.30190E-03 4.10860E-24
2.38630E-03 3.70016E-24
2.47222E-03 3.33424E-24
2.55965E-03 3.00610E-24
2.64859E-03 2.71156E-24
2.73905E-03 2.44696E-24
2.83103E-03 2.20907E-24
2.92452E-03 1.99504E-24
3.01952E-03 1.80233E-24
3.11604E-03 1.62871E-24
3.21407E-03 1.47220E-24
3.31362E-03 1.33103E-24
3.41468E-03 1.20364E-24
3.51725E-03 1.08862E-24
3.62133E-03 9.84731E-25
3.72692E-03 8.90856E-25
3.83403E-03 8.06001E-25
3.94265E-03 7.29275E-25
4.05278E-03 6.59880E-25
4.16442E-03 5.97100E-25
4.27757E-03 5.40292E-25
4.39223E-03 4.88879E-25
4.50840E-03 4.42341E-25
4.62608E-03 4.00211E-25
4.74527E-03 3.62067E-25
4.86597E-03 3.27532E-25
4.98817E-03 2.96261E-25
5.11188E-03 2.67947E-25
5.23711E-03 2.42310E-25
5.36383E-03 2.19098E-25
5.49207E-03 1.98084E-25
5.62181E-03 1.79060E-25
5.75306E-03 1.61841E-25
5.88581E-03 1.46257E-25
6.02007E-03 1.32156E-25
6.15583E-03 1.19398E-25
6.29310E-03 1.07859E-25
6.43187E-03 9.74234E-26
6.57214E-03 8.79886E-26
6.71392E-03 7.94607E-26
6.85720E-03 7.17547E-26
7.00198E-03 6.47935E-26
7.14827E-03 5.85069E-26
7.29605E-03 5.28314E-26
7.44534E-03 4.77092E-26
7.59612E-03 4.30881E-26
7.97965E-03 3.34255E-26
8.37255E-03 2.59777E-26
8.77480E-03 2.02494E-26
9.18641E-03 1.58526E-26
9.60736E-03 1.24834E-26
1.00376E-02 9.90459E-27
1.04773E-02 7.93130E-27
1.09262E-02 6.41996E-27
1.13844E-02 5.25949E-27
1.18520E-02 4.36433E-27
1.23288E-02 3.66890E-27
1.28150E-02 3.12322E-27
1.33104E-02 2.68946E-27
1.38150E-02 2.33918E-27
1.43290E-02 2.05119E-27
1.48521E-02 1.80985E-27
1.53845E-02 1.60372E-27
1.59262E-02 1.42453E-27
1.64770E-02 1.26635E-27
1.70371E-02 1.12502E-27
1.76063E-02 9.97616E-28
1.81848E-02 8.82097E-28
1.87724E-02 7.77057E-28
1.93692E-02 6.81502E-28
1.99751E-02 5.94706E-28
2.05901E-02 5.16112E-28
2.12143E-02 4.45253E-28
2.18476E-02 3.81708E-28
2.24900E-02 3.25067E-28
2.31415E-02 2.74921E-28
2.38021E-02 2.30844E-28
2.44717E-02 1.92403E-28
2.51504E-02 1.59148E-28
2.58382E-02 1.30629E-28
2.65349E-02 1.06393E-28
2.72407E-02 8.59949E-29
2.79555E-02 6.90012E-29
2.86793E-02 5.49978E-29
2.94120E-02 4.35933E-29
3.01537E-02 3.44227E-29
3.09043E-02 2.71498E-29
3.16639E-02 2.14692E-29
3.24324E-02 1.71066E-29
3.32098E-02 1.38189E-29
3.39961E-02 1.13933E-29
3.47912E-02 9.64598E-30
3.55952E-02 8.42042E-30
3.64081E-02 7.58532E-30
3.72297E-02 7.03235E-30
3.80602E-02 6.67375E-30
3.88995E-02 6.43995E-30
3.97476E-02 6.27724E-30
4.06044E-02 6.14546E-30
4.14700E-02 6.01589E-30
4.23443E-02 5.86925E-30
4.32273E-02 5.69387E-30
4.41190E-02 5.48416E-30
4.50194E-02 5.23908E-30
4.59284E-02 4.96099E-30
4.68461E-02 4.65461E-30
4.87074E-02 3.98235E-30
5.06030E-02 3.27758E-30
5.25328E-02 2.59297E-30
5.44967E-02 1.96988E-30
5.64946E-02 1.43510E-30
5.85262E-02 1.00104E-30
6.05914E-02 6.68023E-31
6.26901E-02 4.27569E-31
6.48222E-02 2.65725E-31
6.69873E-02 1.66082E-31
6.91854E-02 1.12135E-31
7.14163E-02 8.89384E-32
7.36799E-02 8.40715E-32
7.59760E-02 8.80324E-32
7.83043E-02 9.41988E-32
8.06647E-02 9.84988E-32
8.30571E-02 9.89221E-32
8.54812E-02 9.49770E-32
8.79369E-02 8.71703E-32
9.04240E-02 7.65575E-32
9.29422E-02 6.43909E-32
9.54915E-02 5.18691E-32
9.80716E-02 3.99833E-32
1.00682E-01 2.94428E-32
1.03323E-01 2.06630E-32
1.05995E-01 1.37941E-32
1.08696E-01 8.77500E-33
1.11427E-01 5.39623E-33
1.14188E-01 3.36207E-33
1.16978E-01 2.34451E-33
1.19797E-01 2.02515E-33
1.22645E-01 2.12404E-33
1.25522E-01 2.41595E-33
1.28428E-01 2.73621E-33
1.31361E-01 2.97835E-33
1.34323E-01 3.08653E-33
1.37313E-01 3.04483E-33
1.40330E-01 2.86572E-33
1.43375E-01 2.57909E-33
1.46447E-01 2.22282E-33
1.49545E-01 1.83542E-33
1.52671E-01 1.45102E-33
1.55823E-01 1.09632E-33
1.59001E-01 7.89421E-34
1.62205E-01 5.39952E-34
1.65435E-01 3.50188E-34
1.68690E-01 2.16645E-34
1.71970E-01 1.31897E-34
1.75276E-01 8.63149E-35
1.78606E-01 6.95695E-35
1.81961E-01 7.18069E-35
1.85340E-01 8.44538E-35
1.88743E-01 1.00676E-34
1.92169E-01 1.15538E-34
1.95619E-01 1.25933E-34
1.99092E-01 1.30345E-34
2.02589E-01 1.28531E-34
2.06107E-01 1.21152E-34
2.09649E-01 1.09435E-34
2.13212E-01 9.48655E-35
2.16797E-01 7.89425E-35
2.20404E-01 6.30076E-35
2.24032E-01 4.81360E-35
2.27680E-01 3.50872E-35
2.31350E-01 2.43024E-35
2.35040E-01 1.59366E-35
2.38751E-01 9.91164E-36
2.42481E-01 5.97834E-36
2.46231E-01 3.78103E-36
2.50000E-01 2.91523E-36
2.53788E-01 2.97590E-36
2.57595E-01 3.59317E-36
2.61421E-01 4.45618E-36
2.65264E-01 5.32482E-36
2.69126E-01 6.03233E-36
2.73005E-01 6.48058E-36
2.76901E-01 6.62996E-36
2.80814E-01 6.48692E-36
2.84744E-01 6.09054E-36
2.88691E-01 5.49958E-36
2.92653E-01 4.78127E-36
2.96632E-01 4.00240E-36
3.00625E-01 3.22263E-36
3.04634E-01 2.49030E-36
3.08658E-01 1.84057E-36
3.12697E-01 1.29509E-36
3.16749E-01 8.63056E-37
3.20816E-01 5.43250E-37
3.24896E-01 3.26417E-37
3.28990E-01 1.97885E-37
3.33097E-01 1.39964E-37
3.37216E-01 1.34108E-37
3.41348E-01 1.62581E-37
3.45492E-01 2.09668E-37
3.49647E-01 2.62476E-37
3.53814E-01 3.11214E-37
3.57992E-01 3.49254E-37
3.62181E-01 3.72813E-37
3.66381E-01 3.80595E-37
3.70590E-01 3.73203E-37
3.74810E-01 3.52615E-37
3.79039E-01 3.21709E-37
3.83277E-01 2.83700E-37
3.87524E-01 2.41864E-37
3.91780E-01 1.99166E-37
3.96044E-01 1.58133E-37
4.00316E-01 1.20693E-37
4.04596E-01 8.81674E-38
4.08882E-01 6.12971E-38
4.13176E-01 4.02931E-38
4.17476E-01 2.49370E-38
4.21783E-01 1.00000E-45
4.26095E-01 1.00000E-45
4.30413E-01 1.00000E-45
4.34737E-01 1.00000E-45
4.39065E-01 1.00000E-45
4.43398E-01 1.00000E-45
4.47736E-01 1.00000E-45
4.52077E-01 1.00000E-45
4.56422E-01 1.00000E-45
4.60770E-01 1.00000E-45
4.65122E-01 1.00000E-45
4.69476E-01 1.00000E-45
4.73832E-01 1.00000E-45
4.78190E-01 1.00000E-45
4.82550E-01 1.00000E-45
4.86912E-01 1.00000E-45
4.91274E-01 1.00000E-45
4.95637E-01 1.00000E-45
5.00000E-01 1.00000E-45
5.04363E-01 1.00000E-45
5.08726E-01 1.00000E-45
5.13088E-01 1.00000E-45
5.17450E-01 1.00000E-45
5.21810E-01 1.00000E-45
5.26168E-01 1.00000E-45
5.30524E-01 1.00000E-45
5.34878E-01 1.00000E-45
5.39230E-01 1.00000E-45
5.43578E-01 1.00000E-45
5.47923E-01 1.00000E-45
5.52264E-01 1.00000E-45
5.56602E-01 1.00000E-45
5.60935E-01 1.00000E-45
5.65263E-01 1.00000E-45
5.69587E-01 1.00000E-45
5.73905E-01 1.00000E-45
5.78217E-01 1.00000E-45
5.82524E-01 1.00000E-45
5.86824E-01 1.00000E-45
5.91118E-01 1.00000E-45
5.95404E-01 1.00000E-45
5.99684E-01 1.00000E-45
6.03956E-01 1.00000E-45
6.08220E-01 1.00000E-45
6.12476E-01 1.00000E-45
6.16723E-01 1.00000E-45
6.20961E-01 1.00000E-45
6.25190E-01 1.00000E-45
6.29410E-01 1.00000E-45
6.33619E-01 1.00000E-45
6.37819E-01 1.00000E-45
6.42008E-01 1.00000E-45
6.46186E-01 1.00000E-45
6.50353E-01 1.00000E-45
6.54508E-01 1.00000E-45
6.58652E-01 1.00000E-45
6.62784E-01 1.00000E-45
6.66903E-01 1.00000E-45
6.71010E-01 1.00000E-45
6.75104E-01 1.00000E-45
6.79184E-01 1.00000E-45
6.83251E-01 1.00000E-45
6.87303E-01 1.00000E-45
6.91342E-01 1.00000E-45
6.95366E-01 1.00000E-45
6.99375E-01 1.00000E-45
7.03368E-01 1.00000E-45
7.07347E-01 1.00000E-45
7.11309E-01 1.00000E-45
7.15256E-01 1.00000E-45
7.19186E-01 1.00000E-45
7.23099E-01 1.00000E-45
7.26995E-01 1.00000E-45
7.30874E-01 1.00000E-45
7.34736E-01 1.00000E-45
7.38579E-01 1.00000E-45
7.42405E-01 1.00000E-45
7.46212E-01 1.00000E-45
7.50000E-01 1.00000E-45
7.53769E-01 1.00000E-45
7.57519E-01 1.00000E-45
7.61249E-01 1.00000E-45
7.64960E-01 1.00000E-45
7.68650E-01 1.00000E-45
7.72320E-01 1.00000E-45
7.75968E-01 1.00000E-45
7.79596E-01 1.00000E-45
7.83203E-01 1.00000E-45
7.86788E-01 1.00000E-45
7.90351E-01 1.00000E-45
7.93893E-01 1.00000E-45
7.97411E-01 1.00000E-45
8.00908E-01 1.00000E-45
8.04381E-01 1.00000E-45
8.07831E-01 1.00000E-45
8.11257E-01 1.00000E-45
8.14660E-01 1.00000E-45
8.18039E-01 1.00000E-45
8.21394E-01 1.00000E-45
8.24724E-01 1.00000E-45
8.28030E-01 1.00000E-45
8.31310E-01 1.00000E-45
8.34565E-01 1.00000E-45
8.37795E-01 1.00000E-45
8.40999E-01 1.00000E-45
8.44177E-01 1.00000E-45
8.47329E-01 1.00000E-45
8.50455E-01 1.00000E-45
8.53553E-01 1.00000E-45
8.56625E-01 1.00000E-45
8.59670E-01 1.00000E-45
8.62687E-01 1.00000E-45
8.65677E-01 1.00000E-45
8.68639E-01 1.00000E-45
8.71572E-01 1.00000E-45
8.74478E-01 1.00000E-45
8.77355E-01 1.00000E-45
8.80203E-01 1.00000E-45
8.83022E-01 1.00000E-45
8.85812E-01 1.00000E-45
8.88573E-01 1.00000E-45
8.91304E-01 1.00000E-45
8.94005E-01 1.00000E-45
8.96677E-01 1.00000E-45
8.99318E-01 1.00000E-45
9.01928E-01 1.00000E-45
9.04508E-01 1.00000E-45
9.07058E-01 1.00000E-45
9.09576E-01 1.00000E-45
9.12063E-01 1.00000E-45
9.14519E-01 1.00000E-45
9.16943E-01 1.00000E-45
9.19335E-01 1.00000E-45
9.21696E-01 1.00000E-45
9.24024E-01 1.00000E-45
9.26320E-01 1.00000E-45
9.28584E-01 1.00000E-45
9.30815E-01 1.00000E-45
9.33013E-01 1.00000E-45
9.35178E-01 1.00000E-45
9.37310E-01 1.00000E-45
9.39409E-01 1.00000E-45
9.41474E-01 1.00000E-45
9.43505E-01 1.00000E-45
9.45503E-01 1.00000E-45
9.47467E-01 1.00000E-45
9.49397E-01 1.00000E-45
9.51293E-01 1.00000E-45
9.53154E-01 1.00000E-45
9.54981E-01 1.00000E-45
9.56773E-01 1.00000E-45
9.58530E-01 1.00000E-45
9.60252E-01 1.00000E-45
9.61940E-01 1.00000E-45
9.63592E-01 1.00000E-45
9.65209E-01 1.00000E-45
9.66790E-01 1.00000E-45
9.68336E-01 1.00000E-45
9.69846E-01 1.00000E-45
9.71321E-01 1.00000E-45
9.72759E-01 1.00000E-45
9.74162E-01 1.00000E-45
9.75528E-01 1.00000E-45
9.76858E-01 1.00000E-45
9.78152E-01 1.00000E-45
9.79410E-01 1.00000E-45
9.80631E-01 1.00000E-45
9.81815E-01 1.00000E-45
9.82963E-01 1.00000E-45
9.84074E-01 1.00000E-45
9.85148E-01 1.00000E-45
9.86185E-01 1.00000E-45
9.87185E-01 1.00000E-45
9.88148E-01 1.00000E-45
9.89074E-01 1.00000E-45
9.89962E-01 1.00000E-45
9.90814E-01 1.00000E-45
9.91627E-01 1.00000E-45
9.92404E-01 1.00000E-45
9.93143E-01 1.00000E-45
9.93844E-01 1.00000E-45
9.94508E-01 1.00000E-45
9.95134E-01 1.00000E-45
9.95722E-01 1.00000E-45
9.96273E-01 1.00000E-45
9.96786E-01 1.00000E-45
9.97261E-01 1.00000E-45
9.97698E-01 1.00000E-45
9.98097E-01 1.00000E-45
9.98459E-01 1.00000E-45
9.98782E-01 1.00000E-45
9.99067E-01 1.00000E-45
9.99315E-01 1.00000E-45
9.99524E-01 1.00000E-45
9.99695E-01 1.00000E-45
9.99829E-01 1.00000E-45
9.99924E-01 1.00000E-45
9.99981E-01 1.00000E-45
1.00000E+00 1.00000E-45
