 #
 # Subroutine ELSEPA. Elastic scattering of electrons and positrons
 #                    by neutral atoms and positive ions
 #
 # Projectile: positron
 # Kinetic energy = 3.50000E+07 eV = 1.28623E+06 a.u.
 #
 # WARNING: High-energy factorization with free-atom DF screening.
 #          Absorption, polarization and exchange corrections are
 #          switched off.
 #          Phase shifts are calculated for the bare nucleus.
 #          Scattering amplitudes are not evaluated.
 #
 # Element: Dy,  Z =  66,  atomic weight = 1.62500E+02 g/mol
 #
 # Nuclear model: Fermi distribution
 #                Average radius = 5.83895E-13 cm
 #                Skin thickness = 5.46000E-14 cm
 #
 # Number of electrons = 66
 #
 # Total elastic cross section = 7.11620E-18 cm**2 = 2.54124E-01 a0**2
 # 1st transport cross section = 5.86471E-24 cm**2 = 2.09432E-07 a0**2
 # 2nd transport cross section = 1.71455E-23 cm**2 = 6.12278E-07 a0**2
 #
 #
 # Differential cross section:                       MU=(1-COS(THETA))/2
 #
 #  THETA        MU          DCS          DCS        Sherman      error
 #  (deg)                 (cm**2/sr)   (a0**2/sr)    function
 #----------------------------------------------------------------------
0.00000E+00 9.88393E-11
7.61557E-13 9.87804E-11
1.18994E-12 9.87474E-11
1.71346E-12 9.87072E-11
2.33225E-12 9.86597E-11
3.04617E-12 9.86049E-11
3.85530E-12 9.85430E-11
4.75964E-12 9.84738E-11
5.75917E-12 9.83975E-11
6.85391E-12 9.83140E-11
8.04379E-12 9.82234E-11
9.32893E-12 9.81257E-11
1.07092E-11 9.80210E-11
1.21847E-11 9.79093E-11
1.37554E-11 9.77906E-11
1.54213E-11 9.76650E-11
1.71823E-11 9.75325E-11
1.90386E-11 9.73932E-11
2.09900E-11 9.72471E-11
2.30367E-11 9.70943E-11
2.51785E-11 9.69348E-11
2.74156E-11 9.67687E-11
2.97478E-11 9.65960E-11
3.21752E-11 9.64169E-11
3.46979E-11 9.62313E-11
3.73157E-11 9.60393E-11
4.00286E-11 9.58411E-11
4.28368E-11 9.56366E-11
4.57402E-11 9.54259E-11
4.87388E-11 9.52092E-11
5.18325E-11 9.49865E-11
5.50215E-11 9.47578E-11
5.83057E-11 9.45233E-11
6.16850E-11 9.42830E-11
6.51595E-11 9.40369E-11
6.87293E-11 9.37854E-11
7.23943E-11 9.35282E-11
7.61544E-11 9.32656E-11
1.18991E-10 9.03601E-11
1.71347E-10 8.70125E-11
2.33223E-10 8.33350E-11
3.04617E-10 7.93971E-11
3.85531E-10 7.53156E-11
4.75965E-10 7.11830E-11
5.75917E-10 6.70457E-11
6.85389E-10 6.30055E-11
8.04380E-10 5.90950E-11
9.32891E-10 5.53308E-11
1.07092E-09 5.17901E-11
1.21847E-09 4.84487E-11
1.37554E-09 4.53076E-11
1.54213E-09 4.24193E-11
1.71823E-09 3.97277E-11
1.90386E-09 3.72369E-11
2.09900E-09 3.49597E-11
2.30367E-09 3.28534E-11
2.51785E-09 3.09183E-11
2.74156E-09 2.91462E-11
2.97478E-09 2.75103E-11
3.21752E-09 2.60082E-11
3.46978E-09 2.46250E-11
3.73156E-09 2.33461E-11
4.00286E-09 2.21663E-11
4.28368E-09 2.10728E-11
4.57402E-09 2.00579E-11
4.87388E-09 1.91141E-11
5.18326E-09 1.82340E-11
5.50215E-09 1.74134E-11
5.83057E-09 1.66428E-11
6.16850E-09 1.59210E-11
6.51596E-09 1.52438E-11
6.87293E-09 1.46030E-11
7.23942E-09 1.40005E-11
7.61544E-09 1.34313E-11
1.18991E-08 9.08203E-12
1.71347E-08 6.32313E-12
2.33223E-08 4.43756E-12
3.04617E-08 3.25191E-12
3.85531E-08 2.41516E-12
4.75965E-08 1.82675E-12
5.75917E-08 1.41421E-12
6.85389E-08 1.10591E-12
8.04380E-08 8.77097E-13
9.32891E-08 7.05922E-13
1.07092E-07 5.70942E-13
1.21847E-07 4.66776E-13
1.37554E-07 3.85413E-13
1.54213E-07 3.19329E-13
1.71823E-07 2.67033E-13
1.90386E-07 2.24903E-13
2.09900E-07 1.90372E-13
2.30367E-07 1.62351E-13
2.51785E-07 1.39282E-13
2.74156E-07 1.20142E-13
2.97478E-07 1.04274E-13
3.21752E-07 9.09658E-14
3.46978E-07 7.97517E-14
3.73156E-07 7.02762E-14
4.00286E-07 6.21870E-14
4.28368E-07 5.52720E-14
4.57402E-07 4.93327E-14
4.87388E-07 4.41493E-14
5.18325E-07 3.96515E-14
5.50215E-07 3.57342E-14
5.83057E-07 3.22887E-14
6.16850E-07 2.92635E-14
6.51596E-07 2.65943E-14
6.87293E-07 2.42193E-14
7.23942E-07 2.21106E-14
7.61543E-07 2.02274E-14
1.18991E-06 9.08873E-15
1.71347E-06 4.64427E-15
2.33223E-06 2.60611E-15
3.04617E-06 1.57453E-15
3.85531E-06 1.00661E-15
4.75964E-06 6.73729E-16
5.75916E-06 4.67847E-16
6.85388E-06 3.34974E-16
8.04378E-06 2.46131E-16
9.32888E-06 1.84832E-16
1.07092E-05 1.41475E-16
1.21846E-05 1.10100E-16
1.37553E-05 8.69389E-17
1.54212E-05 6.95531E-17
1.71822E-05 5.62930E-17
1.90385E-05 4.60216E-17
2.09899E-05 3.80227E-17
2.30365E-05 3.16800E-17
2.51783E-05 2.65990E-17
2.74153E-05 2.24907E-17
2.97475E-05 1.91423E-17
3.21749E-05 1.63941E-17
3.46974E-05 1.41224E-17
3.73152E-05 1.22323E-17
4.00281E-05 1.06492E-17
4.28362E-05 9.31445E-18
4.57395E-05 8.18242E-18
4.87380E-05 7.21683E-18
5.18317E-05 6.38910E-18
5.50205E-05 5.67640E-18
5.83045E-05 5.06018E-18
6.16838E-05 4.52540E-18
6.51582E-05 4.05957E-18
6.87277E-05 3.65228E-18
7.23925E-05 3.29492E-18
7.61524E-05 2.98030E-18
9.21439E-05 2.04161E-18
1.09658E-04 1.44485E-18
1.28695E-04 1.05103E-18
1.49255E-04 7.82550E-19
1.71338E-04 5.94541E-19
1.94942E-04 4.59683E-19
2.20070E-04 3.60947E-19
2.46720E-04 2.87323E-19
2.74892E-04 2.31523E-19
3.04586E-04 1.88620E-19
3.35803E-04 1.55194E-19
3.68542E-04 1.28845E-19
4.02802E-04 1.07849E-19
4.38585E-04 9.09534E-20
4.75889E-04 7.72357E-20
5.14715E-04 6.60046E-20
5.55063E-04 5.67393E-20
5.96931E-04 4.90412E-20
6.40321E-04 4.26030E-20
6.85233E-04 3.71854E-20
7.31665E-04 3.26006E-20
7.79618E-04 2.86997E-20
8.29092E-04 2.53640E-20
8.80086E-04 2.24980E-20
9.32601E-04 2.00248E-20
9.86636E-04 1.78815E-20
1.04219E-03 1.60168E-20
1.09927E-03 1.43884E-20
1.15786E-03 1.29613E-20
1.21797E-03 1.17063E-20
1.27961E-03 1.05993E-20
1.34276E-03 9.61970E-21
1.40743E-03 8.75044E-21
1.47362E-03 7.97691E-21
1.54133E-03 7.28677E-21
1.61056E-03 6.66945E-21
1.68131E-03 6.11597E-21
1.75357E-03 5.61856E-21
1.82735E-03 5.17055E-21
1.90265E-03 4.76618E-21
1.97947E-03 4.40046E-21
2.05780E-03 4.06904E-21
2.13765E-03 3.76814E-21
2.21902E-03 3.49446E-21
2.30190E-03 3.24509E-21
2.38630E-03 3.01750E-21
2.47222E-03 2.80945E-21
2.55965E-03 2.61896E-21
2.64859E-03 2.44429E-21
2.73905E-03 2.28388E-21
2.83103E-03 2.13637E-21
2.92452E-03 2.00054E-21
3.01952E-03 1.87529E-21
3.11604E-03 1.75965E-21
3.21407E-03 1.65275E-21
3.31362E-03 1.55381E-21
3.41468E-03 1.46214E-21
3.51725E-03 1.37711E-21
3.62133E-03 1.29814E-21
3.72692E-03 1.22472E-21
3.83403E-03 1.15640E-21
3.94265E-03 1.09275E-21
4.05278E-03 1.03341E-21
4.16442E-03 9.78021E-22
4.27757E-03 9.26276E-22
4.39223E-03 8.77892E-22
4.50840E-03 8.32611E-22
4.62608E-03 7.90199E-22
4.74527E-03 7.50440E-22
4.86597E-03 7.13137E-22
4.98817E-03 6.78112E-22
5.11188E-03 6.45200E-22
5.23711E-03 6.14251E-22
5.36383E-03 5.85125E-22
5.49207E-03 5.57696E-22
5.62181E-03 5.31847E-22
5.75306E-03 5.07470E-22
5.88581E-03 4.84466E-22
6.02007E-03 4.62744E-22
6.15583E-03 4.42218E-22
6.29310E-03 4.22811E-22
6.43187E-03 4.04452E-22
6.57214E-03 3.87072E-22
6.71392E-03 3.70610E-22
6.85720E-03 3.55009E-22
7.00198E-03 3.40215E-22
7.14827E-03 3.26179E-22
7.29605E-03 3.12855E-22
7.44534E-03 3.00200E-22
7.59612E-03 2.88174E-22
7.97965E-03 2.60626E-22
8.37255E-03 2.36272E-22
8.77480E-03 2.14680E-22
9.18641E-03 1.95483E-22
9.60736E-03 1.78370E-22
1.00376E-02 1.63077E-22
1.04773E-02 1.49377E-22
1.09262E-02 1.37075E-22
1.13844E-02 1.26005E-22
1.18520E-02 1.16021E-22
1.23288E-02 1.07000E-22
1.28150E-02 9.88311E-23
1.33104E-02 9.14210E-23
1.38150E-02 8.46868E-23
1.43290E-02 7.85561E-23
1.48521E-02 7.29654E-23
1.53845E-02 6.78589E-23
1.59262E-02 6.31874E-23
1.64770E-02 5.89073E-23
1.70371E-02 5.49801E-23
1.76063E-02 5.13717E-23
1.81848E-02 4.80517E-23
1.87724E-02 4.49929E-23
1.93692E-02 4.21713E-23
1.99751E-02 3.95647E-23
2.05901E-02 3.71541E-23
2.12143E-02 3.49223E-23
2.18476E-02 3.28537E-23
2.24900E-02 3.09343E-23
2.31415E-02 2.91514E-23
2.38021E-02 2.74936E-23
2.44717E-02 2.59506E-23
2.51504E-02 2.45130E-23
2.58382E-02 2.31724E-23
2.65349E-02 2.19210E-23
2.72407E-02 2.07518E-23
2.79555E-02 1.96586E-23
2.86793E-02 1.86354E-23
2.94120E-02 1.76771E-23
3.01537E-02 1.67787E-23
3.09043E-02 1.59359E-23
3.16639E-02 1.51446E-23
3.24324E-02 1.44011E-23
3.32098E-02 1.37020E-23
3.39961E-02 1.30442E-23
3.47912E-02 1.24247E-23
3.55952E-02 1.18411E-23
3.64081E-02 1.12908E-23
3.72297E-02 1.07716E-23
3.80602E-02 1.02814E-23
3.88995E-02 9.81835E-24
3.97476E-02 9.38063E-24
4.06044E-02 8.96663E-24
4.14700E-02 8.57483E-24
4.23443E-02 8.20384E-24
4.32273E-02 7.85234E-24
4.41190E-02 7.51913E-24
4.50194E-02 7.20310E-24
4.59284E-02 6.90319E-24
4.68461E-02 6.61845E-24
4.87074E-02 6.09089E-24
5.06030E-02 5.61393E-24
5.25328E-02 5.18189E-24
5.44967E-02 4.78983E-24
5.64946E-02 4.43345E-24
5.85262E-02 4.10894E-24
6.05914E-02 3.81298E-24
6.26901E-02 3.54264E-24
6.48222E-02 3.29532E-24
6.69873E-02 3.06874E-24
6.91854E-02 2.86087E-24
7.14163E-02 2.66991E-24
7.36799E-02 2.49424E-24
7.59760E-02 2.33244E-24
7.83043E-02 2.18323E-24
8.06647E-02 2.04546E-24
8.30571E-02 1.91811E-24
8.54812E-02 1.80027E-24
8.79369E-02 1.69110E-24
9.04240E-02 1.58985E-24
9.29422E-02 1.49586E-24
9.54915E-02 1.40852E-24
9.80716E-02 1.32728E-24
1.00682E-01 1.25164E-24
1.03323E-01 1.18115E-24
1.05995E-01 1.11541E-24
1.08696E-01 1.05403E-24
1.11427E-01 9.96686E-25
1.14188E-01 9.43065E-25
1.16978E-01 8.92884E-25
1.19797E-01 8.45886E-25
1.22645E-01 8.01835E-25
1.25522E-01 7.60517E-25
1.28428E-01 7.21733E-25
1.31361E-01 6.85303E-25
1.34323E-01 6.51060E-25
1.37313E-01 6.18851E-25
1.40330E-01 5.88535E-25
1.43375E-01 5.59982E-25
1.46447E-01 5.33074E-25
1.49545E-01 5.07700E-25
1.52671E-01 4.83758E-25
1.55823E-01 4.61154E-25
1.59001E-01 4.39801E-25
1.62205E-01 4.19619E-25
1.65435E-01 4.00532E-25
1.68690E-01 3.82472E-25
1.71970E-01 3.65375E-25
1.75276E-01 3.49180E-25
1.78606E-01 3.33833E-25
1.81961E-01 3.19281E-25
1.85340E-01 3.05478E-25
1.88743E-01 2.92378E-25
1.92169E-01 2.79939E-25
1.95619E-01 2.68124E-25
1.99092E-01 2.56895E-25
2.02589E-01 2.46219E-25
2.06107E-01 2.36064E-25
2.09649E-01 2.26401E-25
2.13212E-01 2.17202E-25
2.16797E-01 2.08442E-25
2.20404E-01 2.00095E-25
2.24032E-01 1.92140E-25
2.27680E-01 1.84555E-25
2.31350E-01 1.77321E-25
2.35040E-01 1.70418E-25
2.38751E-01 1.63828E-25
2.42481E-01 1.57537E-25
2.46231E-01 1.51527E-25
2.50000E-01 1.45784E-25
2.53788E-01 1.40295E-25
2.57595E-01 1.35046E-25
2.61421E-01 1.30026E-25
2.65264E-01 1.25223E-25
2.69126E-01 1.20626E-25
2.73005E-01 1.16224E-25
2.76901E-01 1.12009E-25
2.80814E-01 1.07972E-25
2.84744E-01 1.04102E-25
2.88691E-01 1.00393E-25
2.92653E-01 9.68373E-26
2.96632E-01 9.34268E-26
3.00625E-01 9.01549E-26
3.04634E-01 8.70152E-26
3.08658E-01 8.40015E-26
3.12697E-01 8.11081E-26
3.16749E-01 7.83293E-26
3.20816E-01 7.56599E-26
3.24896E-01 7.30951E-26
3.28990E-01 7.06301E-26
3.33097E-01 6.82604E-26
3.37216E-01 6.59818E-26
3.41348E-01 6.37903E-26
3.45492E-01 6.16820E-26
3.49647E-01 5.96533E-26
3.53814E-01 5.77009E-26
3.57992E-01 5.58213E-26
3.62181E-01 5.40115E-26
3.66381E-01 5.22685E-26
3.70590E-01 5.05894E-26
3.74810E-01 4.89717E-26
3.79039E-01 4.74127E-26
3.83277E-01 4.59100E-26
3.87524E-01 4.44612E-26
3.91780E-01 4.30642E-26
3.96044E-01 4.17168E-26
4.00316E-01 4.04171E-26
4.04596E-01 3.91630E-26
4.08882E-01 3.79528E-26
4.13176E-01 3.67847E-26
4.17476E-01 3.56570E-26
4.21783E-01 3.45682E-26
4.26095E-01 3.35166E-26
4.30413E-01 3.25010E-26
4.34737E-01 3.15198E-26
4.39065E-01 3.05717E-26
4.43398E-01 2.96555E-26
4.47736E-01 2.87699E-26
4.52077E-01 2.79138E-26
4.56422E-01 2.70860E-26
4.60770E-01 2.62856E-26
4.65122E-01 2.55114E-26
4.69476E-01 2.47624E-26
4.73832E-01 2.40379E-26
4.78190E-01 2.33367E-26
4.82550E-01 2.26582E-26
4.86912E-01 2.20014E-26
4.91274E-01 2.13656E-26
4.95637E-01 2.07500E-26
5.00000E-01 2.01539E-26
5.04363E-01 1.95766E-26
5.08726E-01 1.90174E-26
5.13088E-01 1.84756E-26
5.17450E-01 1.79507E-26
5.21810E-01 1.74421E-26
5.26168E-01 1.69492E-26
5.30524E-01 1.64714E-26
5.34878E-01 1.60082E-26
5.39230E-01 1.55592E-26
5.43578E-01 1.51238E-26
5.47923E-01 1.47015E-26
5.52264E-01 1.42919E-26
5.56602E-01 1.38947E-26
5.60935E-01 1.35093E-26
5.65263E-01 1.31353E-26
5.69587E-01 1.27725E-26
5.73905E-01 1.24204E-26
5.78217E-01 1.20786E-26
5.82524E-01 1.17468E-26
5.86824E-01 1.14248E-26
5.91118E-01 1.11121E-26
5.95404E-01 1.08084E-26
5.99684E-01 1.05136E-26
6.03956E-01 1.02272E-26
6.08220E-01 9.94902E-27
6.12476E-01 9.67880E-27
6.16723E-01 9.41628E-27
6.20961E-01 9.16120E-27
6.25190E-01 8.91334E-27
6.29410E-01 8.67246E-27
6.33619E-01 8.43835E-27
6.37819E-01 8.21079E-27
6.42008E-01 7.98958E-27
6.46186E-01 7.77452E-27
6.50353E-01 7.56542E-27
6.54508E-01 7.36210E-27
6.58652E-01 7.16438E-27
6.62784E-01 6.97208E-27
6.66903E-01 6.78505E-27
6.71010E-01 6.60312E-27
6.75104E-01 6.42614E-27
6.79184E-01 6.25396E-27
6.83251E-01 6.08643E-27
6.87303E-01 5.92342E-27
6.91342E-01 5.76479E-27
6.95366E-01 5.61041E-27
6.99375E-01 5.46016E-27
7.03368E-01 5.31391E-27
7.07347E-01 5.17155E-27
7.11309E-01 5.03295E-27
7.15256E-01 4.89802E-27
7.19186E-01 4.76665E-27
7.23099E-01 4.63873E-27
7.26995E-01 4.51416E-27
7.30874E-01 4.39286E-27
7.34736E-01 4.27471E-27
7.38579E-01 4.15964E-27
7.42405E-01 4.04755E-27
7.46212E-01 3.93837E-27
7.50000E-01 3.83200E-27
7.53769E-01 3.72838E-27
7.57519E-01 3.62742E-27
7.61249E-01 3.52905E-27
7.64960E-01 3.43320E-27
7.68650E-01 3.33979E-27
7.72320E-01 3.24877E-27
7.75968E-01 3.16006E-27
7.79596E-01 3.07360E-27
7.83203E-01 2.98933E-27
7.86788E-01 2.90719E-27
7.90351E-01 2.82713E-27
7.93893E-01 2.74908E-27
7.97411E-01 2.67299E-27
8.00908E-01 2.59881E-27
8.04381E-01 2.52649E-27
8.07831E-01 2.45598E-27
8.11257E-01 2.38723E-27
8.14660E-01 2.32019E-27
8.18039E-01 2.25483E-27
8.21394E-01 2.19108E-27
8.24724E-01 2.12893E-27
8.28030E-01 2.06831E-27
8.31310E-01 2.00920E-27
8.34565E-01 1.95155E-27
8.37795E-01 1.89532E-27
8.40999E-01 1.84048E-27
8.44177E-01 1.78700E-27
8.47329E-01 1.73484E-27
8.50455E-01 1.68396E-27
8.53553E-01 1.63434E-27
8.56625E-01 1.58593E-27
8.59670E-01 1.53872E-27
8.62687E-01 1.49267E-27
8.65677E-01 1.44775E-27
8.68639E-01 1.40394E-27
8.71572E-01 1.36121E-27
8.74478E-01 1.31952E-27
8.77355E-01 1.27887E-27
8.80203E-01 1.23921E-27
8.83022E-01 1.20053E-27
8.85812E-01 1.16281E-27
8.88573E-01 1.12601E-27
8.91304E-01 1.09012E-27
8.94005E-01 1.05513E-27
8.96677E-01 1.02099E-27
8.99318E-01 9.87705E-28
9.01928E-01 9.55243E-28
9.04508E-01 9.23590E-28
9.07058E-01 8.92724E-28
9.09576E-01 8.62630E-28
9.12063E-01 8.33288E-28
9.14519E-01 8.04683E-28
9.16943E-01 7.76797E-28
9.19335E-01 7.49615E-28
9.21696E-01 7.23120E-28
9.24024E-01 6.97299E-28
9.26320E-01 6.72136E-28
9.28584E-01 6.47617E-28
9.30815E-01 6.23727E-28
9.33013E-01 6.00455E-28
9.35178E-01 5.77786E-28
9.37310E-01 5.55708E-28
9.39409E-01 5.34208E-28
9.41474E-01 5.13275E-28
9.43505E-01 4.92898E-28
9.45503E-01 4.73064E-28
9.47467E-01 4.53763E-28
9.49397E-01 4.34984E-28
9.51293E-01 4.16718E-28
9.53154E-01 3.98953E-28
9.54981E-01 3.81682E-28
9.56773E-01 3.64893E-28
9.58530E-01 3.48578E-28
9.60252E-01 3.32728E-28
9.61940E-01 3.17336E-28
9.63592E-01 3.02391E-28
9.65209E-01 2.87888E-28
9.66790E-01 2.73817E-28
9.68336E-01 2.60171E-28
9.69846E-01 2.46943E-28
9.71321E-01 2.34127E-28
9.72759E-01 2.21714E-28
9.74162E-01 2.09700E-28
9.75528E-01 1.98076E-28
9.76858E-01 1.86839E-28
9.78152E-01 1.75980E-28
9.79410E-01 1.65495E-28
9.80631E-01 1.55379E-28
9.81815E-01 1.45626E-28
9.82963E-01 1.36230E-28
9.84074E-01 1.27188E-28
9.85148E-01 1.18494E-28
9.86185E-01 1.10145E-28
9.87185E-01 1.02134E-28
9.88148E-01 9.44597E-29
9.89074E-01 8.71166E-29
9.89962E-01 8.01013E-29
9.90814E-01 7.34102E-29
9.91627E-01 6.70400E-29
9.92404E-01 6.09872E-29
9.93143E-01 5.52489E-29
9.93844E-01 4.98221E-29
9.94508E-01 4.47041E-29
9.95134E-01 3.98922E-29
9.95722E-01 3.53840E-29
9.96273E-01 3.11773E-29
9.96786E-01 2.72698E-29
9.97261E-01 2.36597E-29
9.97698E-01 2.03450E-29
9.98097E-01 1.73242E-29
9.98459E-01 1.45956E-29
9.98782E-01 1.21579E-29
9.99067E-01 1.00099E-29
9.99315E-01 8.15048E-30
9.99524E-01 6.57871E-30
9.99695E-01 5.29379E-30
9.99829E-01 4.29509E-30
9.99924E-01 3.58209E-30
9.99981E-01 3.15442E-30
1.00000E+00 3.01191E-30
