 #
 # Subroutine ELSEPA. Elastic scattering of electrons and positrons
 #                    by neutral atoms and positive ions
 #
 # Projectile: positron
 # Kinetic energy = 9.00000E+07 eV = 3.30744E+06 a.u.
 #
 # WARNING: High-energy factorization with free-atom DF screening.
 #          Absorption, polarization and exchange corrections are
 #          switched off.
 #          Phase shifts are calculated for the bare nucleus.
 #          Scattering amplitudes are not evaluated.
 #
 # Element: Dy,  Z =  66,  atomic weight = 1.62500E+02 g/mol
 #
 # Nuclear model: Fermi distribution
 #                Average radius = 5.83895E-13 cm
 #                Skin thickness = 5.46000E-14 cm
 #
 # Number of electrons = 66
 #
 # Total elastic cross section = 7.11659E-18 cm**2 = 2.54138E-01 a0**2
 # 1st transport cross section = 9.84384E-25 cm**2 = 3.51530E-08 a0**2
 # 2nd transport cross section = 2.92082E-24 cm**2 = 1.04304E-07 a0**2
 #
 #
 # Differential cross section:                       MU=(1-COS(THETA))/2
 #
 #  THETA        MU          DCS          DCS        Sherman      error
 #  (deg)                 (cm**2/sr)   (a0**2/sr)    function
 #----------------------------------------------------------------------
0.00000E+00 6.42106E-10
7.61557E-13 6.39639E-10
1.18994E-12 6.38260E-10
1.71346E-12 6.36582E-10
2.33225E-12 6.34609E-10
3.04617E-12 6.32346E-10
3.85530E-12 6.29797E-10
4.75964E-12 6.26969E-10
5.75917E-12 6.23868E-10
6.85391E-12 6.20501E-10
8.04379E-12 6.16876E-10
9.32893E-12 6.13001E-10
1.07092E-11 6.08885E-10
1.21847E-11 6.04537E-10
1.37554E-11 5.99964E-10
1.54213E-11 5.95179E-10
1.71823E-11 5.90191E-10
1.90386E-11 5.85008E-10
2.09900E-11 5.79644E-10
2.30367E-11 5.74106E-10
2.51785E-11 5.68407E-10
2.74156E-11 5.62558E-10
2.97478E-11 5.56604E-10
3.21752E-11 5.50520E-10
3.46979E-11 5.44299E-10
3.73157E-11 5.37953E-10
4.00286E-11 5.31490E-10
4.28368E-11 5.24919E-10
4.57402E-11 5.18342E-10
4.87388E-11 5.11717E-10
5.18325E-11 5.05013E-10
5.50215E-11 4.98239E-10
5.83057E-11 4.91403E-10
6.16850E-11 4.84513E-10
6.51595E-11 4.77678E-10
6.87293E-11 4.70866E-10
7.23943E-11 4.64023E-10
7.61544E-11 4.57158E-10
1.18991E-10 3.90270E-10
1.71347E-10 3.29862E-10
2.33223E-10 2.78453E-10
3.04617E-10 2.35972E-10
3.85531E-10 2.01578E-10
4.75965E-10 1.73851E-10
5.75917E-10 1.51359E-10
6.85389E-10 1.32965E-10
8.04380E-10 1.17705E-10
9.32891E-10 1.04878E-10
1.07092E-09 9.39318E-11
1.21847E-09 8.44846E-11
1.37554E-09 7.62609E-11
1.54213E-09 6.90066E-11
1.71823E-09 6.25927E-11
1.90386E-09 5.68956E-11
2.09900E-09 5.17860E-11
2.30367E-09 4.72179E-11
2.51785E-09 4.31189E-11
2.74156E-09 3.94214E-11
2.97478E-09 3.58706E-11
3.21752E-09 3.27117E-11
3.46978E-09 2.99722E-11
3.73156E-09 2.75849E-11
4.00286E-09 2.54950E-11
4.28368E-09 2.36574E-11
4.57402E-09 2.18140E-11
4.87388E-09 2.00955E-11
5.18326E-09 1.85774E-11
5.50215E-09 1.72312E-11
5.83057E-09 1.60332E-11
6.16850E-09 1.49635E-11
6.51596E-09 1.39207E-11
6.87293E-09 1.29391E-11
7.23942E-09 1.20586E-11
7.61544E-09 1.12667E-11
1.18991E-08 6.04312E-12
1.71347E-08 3.49793E-12
2.33223E-08 2.13507E-12
3.04617E-08 1.36770E-12
3.85531E-08 9.13029E-13
4.75965E-08 6.33199E-13
5.75917E-08 4.54444E-13
6.85389E-08 3.35798E-13
8.04380E-08 2.53970E-13
9.32891E-08 1.96105E-13
1.07092E-07 1.54039E-13
1.21847E-07 1.22739E-13
1.37554E-07 9.89888E-14
1.54213E-07 8.06414E-14
1.71823E-07 6.63299E-14
1.90386E-07 5.50441E-14
2.09900E-07 4.60371E-14
2.30367E-07 3.87901E-14
2.51785E-07 3.29038E-14
2.74156E-07 2.80824E-14
2.97478E-07 2.40958E-14
3.21752E-07 2.08051E-14
3.46978E-07 1.80626E-14
3.73156E-07 1.57476E-14
4.00286E-07 1.38030E-14
4.28368E-07 1.21397E-14
4.57402E-07 1.07247E-14
4.87388E-07 9.51019E-15
5.18325E-07 8.46185E-15
5.50215E-07 7.55760E-15
5.83057E-07 6.76726E-15
6.16850E-07 6.08020E-15
6.51596E-07 5.47746E-15
6.87293E-07 4.94782E-15
7.23942E-07 4.48161E-15
7.61543E-07 4.06792E-15
1.18991E-06 1.72805E-15
1.71347E-06 8.53754E-16
2.33223E-06 4.68468E-16
3.04617E-06 2.77789E-16
3.85531E-06 1.74888E-16
4.75964E-06 1.15489E-16
5.75916E-06 7.92906E-17
6.85388E-06 5.62257E-17
8.04378E-06 4.09707E-17
9.32888E-06 3.05565E-17
1.07092E-05 2.32513E-17
1.21846E-05 1.80047E-17
1.37553E-05 1.41578E-17
1.54212E-05 1.12856E-17
1.71822E-05 9.10605E-18
1.90385E-05 7.42471E-18
2.09899E-05 6.11978E-18
2.30365E-05 5.08852E-18
2.51783E-05 4.26449E-18
2.74153E-05 3.59980E-18
2.97475E-05 3.05921E-18
3.21749E-05 2.61631E-18
3.46974E-05 2.25085E-18
3.73152E-05 1.94722E-18
4.00281E-05 1.69326E-18
4.28362E-05 1.47942E-18
4.57395E-05 1.29827E-18
4.87380E-05 1.14393E-18
5.18317E-05 1.01176E-18
5.50205E-05 8.98081E-19
5.83045E-05 7.99890E-19
6.16838E-05 7.14750E-19
6.51582E-05 6.40655E-19
6.87277E-05 5.75930E-19
7.23925E-05 5.19184E-19
7.61524E-05 4.69371E-19
9.21439E-05 3.20698E-19
1.09658E-04 2.26448E-19
1.28695E-04 1.64407E-19
1.49255E-04 1.22206E-19
1.71338E-04 9.27130E-20
1.94942E-04 7.15951E-20
2.20070E-04 5.61574E-20
2.46720E-04 4.46619E-20
2.74892E-04 3.59599E-20
3.04586E-04 2.92761E-20
3.35803E-04 2.40738E-20
3.68542E-04 1.99762E-20
4.02802E-04 1.67135E-20
4.38585E-04 1.40898E-20
4.75889E-04 1.19607E-20
5.14715E-04 1.02184E-20
5.55063E-04 8.78176E-21
5.96931E-04 7.58856E-21
6.40321E-04 6.59103E-21
6.85233E-04 5.75188E-21
7.31665E-04 5.04192E-21
7.79618E-04 4.43801E-21
8.29092E-04 3.92172E-21
8.80086E-04 3.47822E-21
9.32601E-04 3.09557E-21
9.86636E-04 2.76401E-21
1.04219E-03 2.47558E-21
1.09927E-03 2.22374E-21
1.15786E-03 2.00304E-21
1.21797E-03 1.80900E-21
1.27961E-03 1.63783E-21
1.34276E-03 1.48639E-21
1.40743E-03 1.35201E-21
1.47362E-03 1.23244E-21
1.54133E-03 1.12576E-21
1.61056E-03 1.03034E-21
1.68131E-03 9.44789E-22
1.75357E-03 8.67910E-22
1.82735E-03 7.98667E-22
1.90265E-03 7.36172E-22
1.97947E-03 6.79649E-22
2.05780E-03 6.28430E-22
2.13765E-03 5.81927E-22
2.21902E-03 5.39631E-22
2.30190E-03 5.01094E-22
2.38630E-03 4.65922E-22
2.47222E-03 4.33770E-22
2.55965E-03 4.04332E-22
2.64859E-03 3.77339E-22
2.73905E-03 3.52551E-22
2.83103E-03 3.29756E-22
2.92452E-03 3.08766E-22
3.01952E-03 2.89411E-22
3.11604E-03 2.71538E-22
3.21407E-03 2.55016E-22
3.31362E-03 2.39724E-22
3.41468E-03 2.25556E-22
3.51725E-03 2.12412E-22
3.62133E-03 2.00207E-22
3.72692E-03 1.88860E-22
3.83403E-03 1.78301E-22
3.94265E-03 1.68465E-22
4.05278E-03 1.59293E-22
4.16442E-03 1.50733E-22
4.27757E-03 1.42736E-22
4.39223E-03 1.35259E-22
4.50840E-03 1.28261E-22
4.62608E-03 1.21707E-22
4.74527E-03 1.15562E-22
4.86597E-03 1.09798E-22
4.98817E-03 1.04386E-22
5.11188E-03 9.93001E-23
5.23711E-03 9.45178E-23
5.36383E-03 9.00174E-23
5.49207E-03 8.57794E-23
5.62181E-03 8.17857E-23
5.75306E-03 7.80195E-23
5.88581E-03 7.44656E-23
6.02007E-03 7.11098E-23
6.15583E-03 6.79391E-23
6.29310E-03 6.49414E-23
6.43187E-03 6.21055E-23
6.57214E-03 5.94211E-23
6.71392E-03 5.68787E-23
6.85720E-03 5.44693E-23
7.00198E-03 5.21847E-23
7.14827E-03 5.00173E-23
7.29605E-03 4.79600E-23
7.44534E-03 4.60061E-23
7.59612E-03 4.41496E-23
7.97965E-03 3.98972E-23
8.37255E-03 3.61387E-23
8.77480E-03 3.28071E-23
9.18641E-03 2.98459E-23
9.60736E-03 2.72069E-23
1.00376E-02 2.48491E-23
1.04773E-02 2.27376E-23
1.09262E-02 2.08423E-23
1.13844E-02 1.91373E-23
1.18520E-02 1.76003E-23
1.23288E-02 1.62119E-23
1.28150E-02 1.49554E-23
1.33104E-02 1.38160E-23
1.38150E-02 1.27810E-23
1.43290E-02 1.18393E-23
1.48521E-02 1.09810E-23
1.53845E-02 1.01974E-23
1.59262E-02 9.48097E-24
1.64770E-02 8.82496E-24
1.70371E-02 8.22342E-24
1.76063E-02 7.67105E-24
1.81848E-02 7.16315E-24
1.87724E-02 6.69554E-24
1.93692E-02 6.26449E-24
1.99751E-02 5.86664E-24
2.05901E-02 5.49902E-24
2.12143E-02 5.15894E-24
2.18476E-02 4.84398E-24
2.24900E-02 4.55199E-24
2.31415E-02 4.28100E-24
2.38021E-02 4.02925E-24
2.44717E-02 3.79515E-24
2.51504E-02 3.57724E-24
2.58382E-02 3.37423E-24
2.65349E-02 3.18493E-24
2.72407E-02 3.00825E-24
2.79555E-02 2.84321E-24
2.86793E-02 2.68893E-24
2.94120E-02 2.54457E-24
3.01537E-02 2.40941E-24
3.09043E-02 2.28275E-24
3.16639E-02 2.16397E-24
3.24324E-02 2.05251E-24
3.32098E-02 1.94783E-24
3.39961E-02 1.84946E-24
3.47912E-02 1.75695E-24
3.55952E-02 1.66991E-24
3.64081E-02 1.58794E-24
3.72297E-02 1.51072E-24
3.80602E-02 1.43791E-24
3.88995E-02 1.36923E-24
3.97476E-02 1.30441E-24
4.06044E-02 1.24319E-24
4.14700E-02 1.18534E-24
4.23443E-02 1.13064E-24
4.32273E-02 1.07891E-24
4.41190E-02 1.02994E-24
4.50194E-02 9.83574E-25
4.59284E-02 9.39648E-25
4.68461E-02 8.98012E-25
4.87074E-02 8.21070E-25
5.06030E-02 7.51752E-25
5.25328E-02 6.89193E-25
5.44967E-02 6.32637E-25
5.64946E-02 5.81426E-25
5.85262E-02 5.34982E-25
6.05914E-02 4.92797E-25
6.26901E-02 4.54426E-25
6.48222E-02 4.19476E-25
6.69873E-02 3.87598E-25
6.91854E-02 3.58485E-25
7.14163E-02 3.31864E-25
7.36799E-02 3.07492E-25
7.59760E-02 2.85155E-25
7.83043E-02 2.64658E-25
8.06647E-02 2.45830E-25
8.30571E-02 2.28517E-25
8.54812E-02 2.12581E-25
8.79369E-02 1.97899E-25
9.04240E-02 1.84358E-25
9.29422E-02 1.71859E-25
9.54915E-02 1.60312E-25
9.80716E-02 1.49634E-25
1.00682E-01 1.39752E-25
1.03323E-01 1.30600E-25
1.05995E-01 1.22117E-25
1.08696E-01 1.14248E-25
1.11427E-01 1.06943E-25
1.14188E-01 1.00157E-25
1.16978E-01 9.38493E-26
1.19797E-01 8.79817E-26
1.22645E-01 8.25201E-26
1.25522E-01 7.74332E-26
1.28428E-01 7.26924E-26
1.31361E-01 6.82715E-26
1.34323E-01 6.41465E-26
1.37313E-01 6.02955E-26
1.40330E-01 5.66983E-26
1.43375E-01 5.33364E-26
1.46447E-01 5.01927E-26
1.49545E-01 4.72517E-26
1.52671E-01 4.44989E-26
1.55823E-01 4.19211E-26
1.59001E-01 3.95059E-26
1.62205E-01 3.72422E-26
1.65435E-01 3.51195E-26
1.68690E-01 3.31281E-26
1.71970E-01 3.12592E-26
1.75276E-01 2.95044E-26
1.78606E-01 2.78563E-26
1.81961E-01 2.63076E-26
1.85340E-01 2.48519E-26
1.88743E-01 2.34831E-26
1.92169E-01 2.21954E-26
1.95619E-01 2.09838E-26
1.99092E-01 1.98433E-26
2.02589E-01 1.87693E-26
2.06107E-01 1.77577E-26
2.09649E-01 1.68045E-26
2.13212E-01 1.59062E-26
2.16797E-01 1.50591E-26
2.20404E-01 1.42604E-26
2.24032E-01 1.35068E-26
2.27680E-01 1.27957E-26
2.31350E-01 1.21246E-26
2.35040E-01 1.14909E-26
2.38751E-01 1.08925E-26
2.42481E-01 1.03272E-26
2.46231E-01 9.79302E-27
2.50000E-01 9.28821E-27
2.53788E-01 8.81100E-27
2.57595E-01 8.35978E-27
2.61421E-01 7.93303E-27
2.65264E-01 7.52933E-27
2.69126E-01 7.14736E-27
2.73005E-01 6.78586E-27
2.76901E-01 6.44367E-27
2.80814E-01 6.11969E-27
2.84744E-01 5.81289E-27
2.88691E-01 5.52230E-27
2.92653E-01 5.24700E-27
2.96632E-01 4.98616E-27
3.00625E-01 4.73895E-27
3.04634E-01 4.50462E-27
3.08658E-01 4.28248E-27
3.12697E-01 4.07183E-27
3.16749E-01 3.87206E-27
3.20816E-01 3.68256E-27
3.24896E-01 3.50279E-27
3.28990E-01 3.33222E-27
3.33097E-01 3.17034E-27
3.37216E-01 3.01669E-27
3.41348E-01 2.87084E-27
3.45492E-01 2.73235E-27
3.49647E-01 2.60085E-27
3.53814E-01 2.47597E-27
3.57992E-01 2.35734E-27
3.62181E-01 2.24465E-27
3.66381E-01 2.13757E-27
3.70590E-01 2.03583E-27
3.74810E-01 1.93913E-27
3.79039E-01 1.84722E-27
3.83277E-01 1.75984E-27
3.87524E-01 1.67677E-27
3.91780E-01 1.59778E-27
3.96044E-01 1.52267E-27
4.00316E-01 1.45122E-27
4.04596E-01 1.38327E-27
4.08882E-01 1.31861E-27
4.13176E-01 1.25710E-27
4.17476E-01 1.19857E-27
4.21783E-01 1.14287E-27
4.26095E-01 1.08986E-27
4.30413E-01 1.03940E-27
4.34737E-01 9.91360E-28
4.39065E-01 9.45625E-28
4.43398E-01 9.02078E-28
4.47736E-01 8.60610E-28
4.52077E-01 8.21117E-28
4.56422E-01 7.83501E-28
4.60770E-01 7.47671E-28
4.65122E-01 7.13537E-28
4.69476E-01 6.81016E-28
4.73832E-01 6.50030E-28
4.78190E-01 6.20502E-28
4.82550E-01 5.92361E-28
4.86912E-01 5.65541E-28
4.91274E-01 5.39976E-28
4.95637E-01 5.15606E-28
5.00000E-01 4.92372E-28
5.04363E-01 4.70221E-28
5.08726E-01 4.49098E-28
5.13088E-01 4.28956E-28
5.17450E-01 4.09747E-28
5.21810E-01 3.91425E-28
5.26168E-01 3.73949E-28
5.30524E-01 3.57279E-28
5.34878E-01 3.41375E-28
5.39230E-01 3.26201E-28
5.43578E-01 3.11723E-28
5.47923E-01 2.97907E-28
5.52264E-01 2.84723E-28
5.56602E-01 2.72140E-28
5.60935E-01 2.60130E-28
5.65263E-01 2.48666E-28
5.69587E-01 2.37722E-28
5.73905E-01 2.27274E-28
5.78217E-01 2.17299E-28
5.82524E-01 2.07775E-28
5.86824E-01 1.98680E-28
5.91118E-01 1.89995E-28
5.95404E-01 1.81700E-28
5.99684E-01 1.73777E-28
6.03956E-01 1.66210E-28
6.08220E-01 1.58982E-28
6.12476E-01 1.52076E-28
6.16723E-01 1.45479E-28
6.20961E-01 1.39176E-28
6.25190E-01 1.33153E-28
6.29410E-01 1.27397E-28
6.33619E-01 1.21897E-28
6.37819E-01 1.16641E-28
6.42008E-01 1.11617E-28
6.46186E-01 1.06815E-28
6.50353E-01 1.02225E-28
6.54508E-01 9.78365E-29
6.58652E-01 9.36413E-29
6.62784E-01 8.96304E-29
6.66903E-01 8.57954E-29
6.71010E-01 8.21282E-29
6.75104E-01 7.86215E-29
6.79184E-01 7.52679E-29
6.83251E-01 7.20605E-29
6.87303E-01 6.89927E-29
6.91342E-01 6.60584E-29
6.95366E-01 6.32515E-29
6.99375E-01 6.05663E-29
7.03368E-01 5.79975E-29
7.07347E-01 5.55397E-29
7.11309E-01 5.31880E-29
7.15256E-01 5.09378E-29
7.19186E-01 4.87845E-29
7.23099E-01 4.67239E-29
7.26995E-01 4.47517E-29
7.30874E-01 4.28642E-29
7.34736E-01 4.10575E-29
7.38579E-01 3.93281E-29
7.42405E-01 3.76727E-29
7.46212E-01 3.60879E-29
7.50000E-01 3.45706E-29
7.53769E-01 3.31179E-29
7.57519E-01 3.17270E-29
7.61249E-01 3.03951E-29
7.64960E-01 2.91197E-29
7.68650E-01 2.78983E-29
7.72320E-01 2.67285E-29
7.75968E-01 2.56082E-29
7.79596E-01 2.45351E-29
7.83203E-01 2.35072E-29
7.86788E-01 2.25226E-29
7.90351E-01 2.15794E-29
7.93893E-01 2.06757E-29
7.97411E-01 1.98100E-29
8.00908E-01 1.89805E-29
8.04381E-01 1.81856E-29
8.07831E-01 1.74240E-29
8.11257E-01 1.66942E-29
8.14660E-01 1.59947E-29
8.18039E-01 1.53244E-29
8.21394E-01 1.46819E-29
8.24724E-01 1.40662E-29
8.28030E-01 1.34759E-29
8.31310E-01 1.29101E-29
8.34565E-01 1.23677E-29
8.37795E-01 1.18478E-29
8.40999E-01 1.13493E-29
8.44177E-01 1.08713E-29
8.47329E-01 1.04130E-29
8.50455E-01 9.97363E-30
8.53553E-01 9.55228E-30
8.56625E-01 9.14823E-30
8.59670E-01 8.76075E-30
8.62687E-01 8.38914E-30
8.65677E-01 8.03275E-30
8.68639E-01 7.69092E-30
8.71572E-01 7.36305E-30
8.74478E-01 7.04856E-30
8.77355E-01 6.74690E-30
8.80203E-01 6.45752E-30
8.83022E-01 6.17991E-30
8.85812E-01 5.91359E-30
8.88573E-01 5.65808E-30
8.91304E-01 5.41295E-30
8.94005E-01 5.17776E-30
8.96677E-01 4.95210E-30
8.99318E-01 4.73557E-30
9.01928E-01 4.52781E-30
9.04508E-01 4.32845E-30
9.07058E-01 4.13714E-30
9.09576E-01 3.95357E-30
9.12063E-01 3.77740E-30
9.14519E-01 3.60834E-30
9.16943E-01 3.44611E-30
9.19335E-01 3.29041E-30
9.21696E-01 3.14100E-30
9.24024E-01 2.99760E-30
9.26320E-01 2.85999E-30
9.28584E-01 2.72792E-30
9.30815E-01 2.60117E-30
9.33013E-01 2.47954E-30
9.35178E-01 2.36281E-30
9.37310E-01 2.25079E-30
9.39409E-01 2.14329E-30
9.41474E-01 2.04013E-30
9.43505E-01 1.94115E-30
9.45503E-01 1.84617E-30
9.47467E-01 1.75504E-30
9.49397E-01 1.66761E-30
9.51293E-01 1.58373E-30
9.53154E-01 1.50326E-30
9.54981E-01 1.42608E-30
9.56773E-01 1.35205E-30
9.58530E-01 1.28106E-30
9.60252E-01 1.21299E-30
9.61940E-01 1.14772E-30
9.63592E-01 1.08515E-30
9.65209E-01 1.02518E-30
9.66790E-01 9.67717E-31
9.68336E-01 9.12659E-31
9.69846E-01 8.59921E-31
9.71321E-01 8.09418E-31
9.72759E-01 7.61068E-31
9.74162E-01 7.14793E-31
9.75528E-01 6.70520E-31
9.76858E-01 6.28178E-31
9.78152E-01 5.87698E-31
9.79410E-01 5.49016E-31
9.80631E-01 5.12071E-31
9.81815E-01 4.76803E-31
9.82963E-01 4.43157E-31
9.84074E-01 4.11080E-31
9.85148E-01 3.80520E-31
9.86185E-01 3.51429E-31
9.87185E-01 3.23762E-31
9.88148E-01 2.97474E-31
9.89074E-01 2.72524E-31
9.89962E-01 2.48874E-31
9.90814E-01 2.26486E-31
9.91627E-01 2.05324E-31
9.92404E-01 1.85356E-31
9.93143E-01 1.66551E-31
9.93844E-01 1.48879E-31
9.94508E-01 1.32312E-31
9.95134E-01 1.16825E-31
9.95722E-01 1.02393E-31
9.96273E-01 8.89944E-32
9.96786E-01 7.66081E-32
9.97261E-01 6.52148E-32
9.97698E-01 5.47967E-32
9.98097E-01 4.53378E-32
9.98459E-01 3.68233E-32
9.98782E-01 2.92401E-32
9.99067E-01 2.25764E-32
9.99315E-01 1.68219E-32
9.99524E-01 1.19676E-32
9.99695E-01 8.00619E-33
9.99829E-01 4.93142E-33
9.99924E-01 2.73854E-33
9.99981E-01 1.42413E-33
1.00000E+00 9.86318E-34
