 #
 # Subroutine ELSEPA. Elastic scattering of electrons and positrons
 #                    by neutral atoms and positive ions
 #
 # Projectile: positron
 # Kinetic energy = 4.50000E+07 eV = 1.65372E+06 a.u.
 #
 # WARNING: High-energy factorization with free-atom DF screening.
 #          Absorption, polarization and exchange corrections are
 #          switched off.
 #          Phase shifts are calculated for the bare nucleus.
 #          Scattering amplitudes are not evaluated.
 #
 # Element: Dy,  Z =  66,  atomic weight = 1.62500E+02 g/mol
 #
 # Nuclear model: Fermi distribution
 #                Average radius = 5.83895E-13 cm
 #                Skin thickness = 5.46000E-14 cm
 #
 # Number of electrons = 66
 #
 # Total elastic cross section = 7.11705E-18 cm**2 = 2.54154E-01 a0**2
 # 1st transport cross section = 3.68056E-24 cm**2 = 1.31435E-07 a0**2
 # 2nd transport cross section = 1.07929E-23 cm**2 = 3.85422E-07 a0**2
 #
 #
 # Differential cross section:                       MU=(1-COS(THETA))/2
 #
 #  THETA        MU          DCS          DCS        Sherman      error
 #  (deg)                 (cm**2/sr)   (a0**2/sr)    function
 #----------------------------------------------------------------------
0.00000E+00 1.62344E-10
7.61557E-13 1.62186E-10
1.18994E-12 1.62097E-10
1.71346E-12 1.61988E-10
2.33225E-12 1.61861E-10
3.04617E-12 1.61713E-10
3.85530E-12 1.61547E-10
4.75964E-12 1.61361E-10
5.75917E-12 1.61156E-10
6.85391E-12 1.60932E-10
8.04379E-12 1.60689E-10
9.32893E-12 1.60428E-10
1.07092E-11 1.60147E-10
1.21847E-11 1.59849E-10
1.37554E-11 1.59532E-10
1.54213E-11 1.59197E-10
1.71823E-11 1.58845E-10
1.90386E-11 1.58475E-10
2.09900E-11 1.58087E-10
2.30367E-11 1.57682E-10
2.51785E-11 1.57260E-10
2.74156E-11 1.56822E-10
2.97478E-11 1.56367E-10
3.21752E-11 1.55896E-10
3.46979E-11 1.55409E-10
3.73157E-11 1.54906E-10
4.00286E-11 1.54388E-10
4.28368E-11 1.53854E-10
4.57402E-11 1.53306E-10
4.87388E-11 1.52744E-10
5.18325E-11 1.52167E-10
5.50215E-11 1.51576E-10
5.83057E-11 1.50972E-10
6.16850E-11 1.50354E-10
6.51595E-11 1.49724E-10
6.87293E-11 1.49081E-10
7.23943E-11 1.48425E-10
7.61544E-11 1.47758E-10
1.18991E-10 1.40513E-10
1.71347E-10 1.32434E-10
2.33223E-10 1.23901E-10
3.04617E-10 1.15194E-10
3.85531E-10 1.06567E-10
4.75965E-10 9.82205E-11
5.75917E-10 9.03011E-11
6.85389E-10 8.29170E-11
8.04380E-10 7.61356E-11
9.32891E-10 6.99370E-11
1.07092E-09 6.43115E-11
1.21847E-09 5.92328E-11
1.37554E-09 5.46641E-11
1.54213E-09 5.05702E-11
1.71823E-09 4.69022E-11
1.90386E-09 4.36037E-11
2.09900E-09 4.06338E-11
2.30367E-09 3.79547E-11
2.51785E-09 3.55321E-11
2.74156E-09 3.33351E-11
2.97478E-09 3.13337E-11
3.21752E-09 2.95039E-11
3.46978E-09 2.78258E-11
3.73156E-09 2.62821E-11
4.00286E-09 2.48576E-11
4.28368E-09 2.35356E-11
4.57402E-09 2.23062E-11
4.87388E-09 2.11615E-11
5.18326E-09 2.00933E-11
5.50215E-09 1.90943E-11
5.83057E-09 1.81582E-11
6.16850E-09 1.72754E-11
6.51596E-09 1.64448E-11
6.87293E-09 1.56630E-11
7.23942E-09 1.49263E-11
7.61544E-09 1.42312E-11
1.18991E-08 8.94990E-12
1.71347E-08 5.90854E-12
2.33223E-08 3.99803E-12
3.04617E-08 2.80629E-12
3.85531E-08 2.02900E-12
4.75965E-08 1.50262E-12
5.75917E-08 1.13462E-12
6.85389E-08 8.69548E-13
8.04380E-08 6.74327E-13
9.32891E-08 5.29982E-13
1.07092E-07 4.21613E-13
1.21847E-07 3.39192E-13
1.37554E-07 2.75789E-13
1.54213E-07 2.26428E-13
1.71823E-07 1.87659E-13
1.90386E-07 1.56985E-13
2.09900E-07 1.32459E-13
2.30367E-07 1.12655E-13
2.51785E-07 9.65174E-14
2.74156E-07 8.32598E-14
2.97478E-07 7.21990E-14
3.21752E-07 6.29576E-14
3.46978E-07 5.51869E-14
3.73156E-07 4.86079E-14
4.00286E-07 4.30009E-14
4.28368E-07 3.81835E-14
4.57402E-07 3.40241E-14
4.87388E-07 3.04168E-14
5.18325E-07 2.72738E-14
5.50215E-07 2.45238E-14
5.83057E-07 2.21089E-14
6.16850E-07 1.99776E-14
6.51596E-07 1.80951E-14
6.87293E-07 1.64282E-14
7.23942E-07 1.49481E-14
7.61543E-07 1.36303E-14
1.18991E-06 5.96321E-15
1.71347E-06 3.00351E-15
2.33223E-06 1.67396E-15
3.04617E-06 1.00607E-15
3.85531E-06 6.40747E-16
4.75964E-06 4.27230E-16
5.75916E-06 2.95658E-16
6.85388E-06 2.11006E-16
8.04378E-06 1.54553E-16
9.32888E-06 1.15746E-16
1.07092E-05 8.83672E-17
1.21846E-05 6.86129E-17
1.37553E-05 5.40748E-17
1.54212E-05 4.31865E-17
1.71822E-05 3.49031E-17
1.90385E-05 2.84996E-17
2.09899E-05 2.35210E-17
2.30365E-05 1.95805E-17
2.51783E-05 1.64275E-17
2.74153E-05 1.38812E-17
2.97475E-05 1.18081E-17
3.21749E-05 1.01078E-17
3.46974E-05 8.70354E-18
3.73152E-05 7.53578E-18
4.00281E-05 6.55818E-18
4.28362E-05 5.73440E-18
4.57395E-05 5.03597E-18
4.87380E-05 4.44046E-18
5.18317E-05 3.93014E-18
5.50205E-05 3.49084E-18
5.83045E-05 3.11115E-18
6.16838E-05 2.78170E-18
6.51582E-05 2.49479E-18
6.87277E-05 2.24401E-18
7.23925E-05 2.02400E-18
7.61524E-05 1.83039E-18
9.21439E-05 1.25288E-18
1.09658E-04 8.86016E-19
1.28695E-04 6.44086E-19
1.49255E-04 4.79264E-19
1.71338E-04 3.63922E-19
1.94942E-04 2.81238E-19
2.20070E-04 2.20733E-19
2.46720E-04 1.75642E-19
2.74892E-04 1.41482E-19
3.04586E-04 1.15228E-19
3.35803E-04 9.47821E-20
3.68542E-04 7.86705E-20
4.02802E-04 6.58363E-20
4.38585E-04 5.55119E-20
4.75889E-04 4.71312E-20
5.14715E-04 4.02715E-20
5.55063E-04 3.46135E-20
5.96931E-04 2.99135E-20
6.40321E-04 2.59835E-20
6.85233E-04 2.26770E-20
7.31665E-04 1.98792E-20
7.79618E-04 1.74990E-20
8.29092E-04 1.54639E-20
8.80086E-04 1.37157E-20
9.32601E-04 1.22071E-20
9.86636E-04 1.08999E-20
1.04219E-03 9.76277E-21
1.09927E-03 8.76978E-21
1.15786E-03 7.89957E-21
1.21797E-03 7.13442E-21
1.27961E-03 6.45950E-21
1.34276E-03 5.86232E-21
1.40743E-03 5.33241E-21
1.47362E-03 4.86089E-21
1.54133E-03 4.44021E-21
1.61056E-03 4.06395E-21
1.68131E-03 3.72660E-21
1.75357E-03 3.42344E-21
1.82735E-03 3.15040E-21
1.90265E-03 2.90396E-21
1.97947E-03 2.68108E-21
2.05780E-03 2.47911E-21
2.13765E-03 2.29575E-21
2.21902E-03 2.12897E-21
2.30190E-03 1.97702E-21
2.38630E-03 1.83833E-21
2.47222E-03 1.71156E-21
2.55965E-03 1.59549E-21
2.64859E-03 1.48906E-21
2.73905E-03 1.39132E-21
2.83103E-03 1.30144E-21
2.92452E-03 1.21868E-21
3.01952E-03 1.14236E-21
3.11604E-03 1.07191E-21
3.21407E-03 1.00678E-21
3.31362E-03 9.46500E-22
3.41468E-03 8.90647E-22
3.51725E-03 8.38837E-22
3.62133E-03 7.90724E-22
3.72692E-03 7.45995E-22
3.83403E-03 7.04371E-22
3.94265E-03 6.65597E-22
4.05278E-03 6.29442E-22
4.16442E-03 5.95697E-22
4.27757E-03 5.64172E-22
4.39223E-03 5.34696E-22
4.50840E-03 5.07111E-22
4.62608E-03 4.81272E-22
4.74527E-03 4.57050E-22
4.86597E-03 4.34325E-22
4.98817E-03 4.12987E-22
5.11188E-03 3.92937E-22
5.23711E-03 3.74082E-22
5.36383E-03 3.56339E-22
5.49207E-03 3.39629E-22
5.62181E-03 3.23882E-22
5.75306E-03 3.09032E-22
5.88581E-03 2.95018E-22
6.02007E-03 2.81785E-22
6.15583E-03 2.69281E-22
6.29310E-03 2.57459E-22
6.43187E-03 2.46274E-22
6.57214E-03 2.35687E-22
6.71392E-03 2.25659E-22
6.85720E-03 2.16155E-22
7.00198E-03 2.07143E-22
7.14827E-03 1.98593E-22
7.29605E-03 1.90476E-22
7.44534E-03 1.82767E-22
7.59612E-03 1.75442E-22
7.97965E-03 1.58661E-22
8.37255E-03 1.43826E-22
8.77480E-03 1.30673E-22
9.18641E-03 1.18980E-22
9.60736E-03 1.08557E-22
1.00376E-02 9.92418E-23
1.04773E-02 9.08974E-23
1.09262E-02 8.34050E-23
1.13844E-02 7.66629E-23
1.18520E-02 7.05830E-23
1.23288E-02 6.50878E-23
1.28150E-02 6.01124E-23
1.33104E-02 5.55991E-23
1.38150E-02 5.14976E-23
1.43290E-02 4.77638E-23
1.48521E-02 4.43590E-23
1.53845E-02 4.12493E-23
1.59262E-02 3.84045E-23
1.64770E-02 3.57982E-23
1.70371E-02 3.34069E-23
1.76063E-02 3.12098E-23
1.81848E-02 2.91883E-23
1.87724E-02 2.73260E-23
1.93692E-02 2.56081E-23
1.99751E-02 2.40215E-23
2.05901E-02 2.25543E-23
2.12143E-02 2.11961E-23
2.18476E-02 1.99373E-23
2.24900E-02 1.87693E-23
2.31415E-02 1.76845E-23
2.38021E-02 1.66758E-23
2.44717E-02 1.57370E-23
2.51504E-02 1.48625E-23
2.58382E-02 1.40469E-23
2.65349E-02 1.32858E-23
2.72407E-02 1.25747E-23
2.79555E-02 1.19098E-23
2.86793E-02 1.12876E-23
2.94120E-02 1.07049E-23
3.01537E-02 1.01586E-23
3.09043E-02 9.64622E-24
3.16639E-02 9.16518E-24
3.24324E-02 8.71324E-24
3.32098E-02 8.28834E-24
3.39961E-02 7.88856E-24
3.47912E-02 7.51217E-24
3.55952E-02 7.15754E-24
3.64081E-02 6.82322E-24
3.72297E-02 6.50781E-24
3.80602E-02 6.21007E-24
3.88995E-02 5.92884E-24
3.97476E-02 5.66303E-24
4.06044E-02 5.41165E-24
4.14700E-02 5.17378E-24
4.23443E-02 4.94857E-24
4.32273E-02 4.73523E-24
4.41190E-02 4.53301E-24
4.50194E-02 4.34124E-24
4.59284E-02 4.15928E-24
4.68461E-02 3.98654E-24
4.87074E-02 3.66657E-24
5.06030E-02 3.37737E-24
5.25328E-02 3.11548E-24
5.44967E-02 2.87791E-24
5.64946E-02 2.66202E-24
5.85262E-02 2.46551E-24
6.05914E-02 2.28634E-24
6.26901E-02 2.12274E-24
6.48222E-02 1.97313E-24
6.69873E-02 1.83612E-24
6.91854E-02 1.71047E-24
7.14163E-02 1.59508E-24
7.36799E-02 1.48897E-24
7.59760E-02 1.39129E-24
7.83043E-02 1.30124E-24
8.06647E-02 1.21813E-24
8.30571E-02 1.14135E-24
8.54812E-02 1.07032E-24
8.79369E-02 1.00456E-24
9.04240E-02 9.43594E-25
9.29422E-02 8.87028E-25
9.54915E-02 8.34489E-25
9.80716E-02 7.85644E-25
1.00682E-01 7.40191E-25
1.03323E-01 6.97856E-25
1.05995E-01 6.58390E-25
1.08696E-01 6.21568E-25
1.11427E-01 5.87184E-25
1.14188E-01 5.55049E-25
1.16978E-01 5.24994E-25
1.19797E-01 4.96862E-25
1.22645E-01 4.70510E-25
1.25522E-01 4.45807E-25
1.28428E-01 4.22634E-25
1.31361E-01 4.00881E-25
1.34323E-01 3.80447E-25
1.37313E-01 3.61239E-25
1.40330E-01 3.43172E-25
1.43375E-01 3.26167E-25
1.46447E-01 3.10153E-25
1.49545E-01 2.95061E-25
1.52671E-01 2.80832E-25
1.55823E-01 2.67407E-25
1.59001E-01 2.54734E-25
1.62205E-01 2.42765E-25
1.65435E-01 2.31454E-25
1.68690E-01 2.20759E-25
1.71970E-01 2.10642E-25
1.75276E-01 2.01066E-25
1.78606E-01 1.91999E-25
1.81961E-01 1.83408E-25
1.85340E-01 1.75266E-25
1.88743E-01 1.67544E-25
1.92169E-01 1.60219E-25
1.95619E-01 1.53266E-25
1.99092E-01 1.46664E-25
2.02589E-01 1.40392E-25
2.06107E-01 1.34431E-25
2.09649E-01 1.28764E-25
2.13212E-01 1.23374E-25
2.16797E-01 1.18245E-25
2.20404E-01 1.13363E-25
2.24032E-01 1.08715E-25
2.27680E-01 1.04286E-25
2.31350E-01 1.00066E-25
2.35040E-01 9.60428E-26
2.38751E-01 9.22063E-26
2.42481E-01 8.85463E-26
2.46231E-01 8.50537E-26
2.50000E-01 8.17196E-26
2.53788E-01 7.85357E-26
2.57595E-01 7.54944E-26
2.61421E-01 7.25883E-26
2.65264E-01 6.98105E-26
2.69126E-01 6.71546E-26
2.73005E-01 6.46145E-26
2.76901E-01 6.21843E-26
2.80814E-01 5.98586E-26
2.84744E-01 5.76324E-26
2.88691E-01 5.55007E-26
2.92653E-01 5.34590E-26
2.96632E-01 5.15029E-26
3.00625E-01 4.96284E-26
3.04634E-01 4.78315E-26
3.08658E-01 4.61086E-26
3.12697E-01 4.44563E-26
3.16749E-01 4.28712E-26
3.20816E-01 4.13502E-26
3.24896E-01 3.98904E-26
3.28990E-01 3.84890E-26
3.33097E-01 3.71434E-26
3.37216E-01 3.58509E-26
3.41348E-01 3.46093E-26
3.45492E-01 3.34162E-26
3.49647E-01 3.22695E-26
3.53814E-01 3.11672E-26
3.57992E-01 3.01073E-26
3.62181E-01 2.90879E-26
3.66381E-01 2.81073E-26
3.70590E-01 2.71639E-26
3.74810E-01 2.62560E-26
3.79039E-01 2.53822E-26
3.83277E-01 2.45409E-26
3.87524E-01 2.37308E-26
3.91780E-01 2.29507E-26
3.96044E-01 2.21992E-26
4.00316E-01 2.14751E-26
4.04596E-01 2.07774E-26
4.08882E-01 2.01050E-26
4.13176E-01 1.94567E-26
4.17476E-01 1.88318E-26
4.21783E-01 1.82291E-26
4.26095E-01 1.76478E-26
4.30413E-01 1.70871E-26
4.34737E-01 1.65461E-26
4.39065E-01 1.60241E-26
4.43398E-01 1.55202E-26
4.47736E-01 1.50339E-26
4.52077E-01 1.45644E-26
4.56422E-01 1.41110E-26
4.60770E-01 1.36732E-26
4.65122E-01 1.32503E-26
4.69476E-01 1.28418E-26
4.73832E-01 1.24471E-26
4.78190E-01 1.20657E-26
4.82550E-01 1.16971E-26
4.86912E-01 1.13408E-26
4.91274E-01 1.09963E-26
4.95637E-01 1.06633E-26
5.00000E-01 1.03412E-26
5.04363E-01 1.00298E-26
5.08726E-01 9.72853E-27
5.13088E-01 9.43710E-27
5.17450E-01 9.15514E-27
5.21810E-01 8.88230E-27
5.26168E-01 8.61825E-27
5.30524E-01 8.36269E-27
5.34878E-01 8.11530E-27
5.39230E-01 7.87579E-27
5.43578E-01 7.64389E-27
5.47923E-01 7.41933E-27
5.52264E-01 7.20184E-27
5.56602E-01 6.99119E-27
5.60935E-01 6.78713E-27
5.65263E-01 6.58943E-27
5.69587E-01 6.39787E-27
5.73905E-01 6.21225E-27
5.78217E-01 6.03236E-27
5.82524E-01 5.85799E-27
5.86824E-01 5.68897E-27
5.91118E-01 5.52511E-27
5.95404E-01 5.36624E-27
5.99684E-01 5.21219E-27
6.03956E-01 5.06280E-27
6.08220E-01 4.91791E-27
6.12476E-01 4.77738E-27
6.16723E-01 4.64105E-27
6.20961E-01 4.50879E-27
6.25190E-01 4.38046E-27
6.29410E-01 4.25595E-27
6.33619E-01 4.13511E-27
6.37819E-01 4.01784E-27
6.42008E-01 3.90401E-27
6.46186E-01 3.79352E-27
6.50353E-01 3.68626E-27
6.54508E-01 3.58212E-27
6.58652E-01 3.48100E-27
6.62784E-01 3.38282E-27
6.66903E-01 3.28746E-27
6.71010E-01 3.19485E-27
6.75104E-01 3.10491E-27
6.79184E-01 3.01753E-27
6.83251E-01 2.93265E-27
6.87303E-01 2.85019E-27
6.91342E-01 2.77007E-27
6.95366E-01 2.69221E-27
6.99375E-01 2.61656E-27
7.03368E-01 2.54303E-27
7.07347E-01 2.47158E-27
7.11309E-01 2.40212E-27
7.15256E-01 2.33461E-27
7.19186E-01 2.26897E-27
7.23099E-01 2.20517E-27
7.26995E-01 2.14313E-27
7.30874E-01 2.08281E-27
7.34736E-01 2.02415E-27
7.38579E-01 1.96711E-27
7.42405E-01 1.91164E-27
7.46212E-01 1.85769E-27
7.50000E-01 1.80521E-27
7.53769E-01 1.75417E-27
7.57519E-01 1.70451E-27
7.61249E-01 1.65621E-27
7.64960E-01 1.60922E-27
7.68650E-01 1.56349E-27
7.72320E-01 1.51901E-27
7.75968E-01 1.47572E-27
7.79596E-01 1.43359E-27
7.83203E-01 1.39260E-27
7.86788E-01 1.35270E-27
7.90351E-01 1.31387E-27
7.93893E-01 1.27608E-27
7.97411E-01 1.23930E-27
8.00908E-01 1.20349E-27
8.04381E-01 1.16864E-27
8.07831E-01 1.13471E-27
8.11257E-01 1.10167E-27
8.14660E-01 1.06952E-27
8.18039E-01 1.03821E-27
8.21394E-01 1.00772E-27
8.24724E-01 9.78039E-28
8.28030E-01 9.49137E-28
8.31310E-01 9.20995E-28
8.34565E-01 8.93590E-28
8.37795E-01 8.66904E-28
8.40999E-01 8.40916E-28
8.44177E-01 8.15608E-28
8.47329E-01 7.90961E-28
8.50455E-01 7.66957E-28
8.53553E-01 7.43580E-28
8.56625E-01 7.20812E-28
8.59670E-01 6.98637E-28
8.62687E-01 6.77039E-28
8.65677E-01 6.56004E-28
8.68639E-01 6.35516E-28
8.71572E-01 6.15561E-28
8.74478E-01 5.96125E-28
8.77355E-01 5.77195E-28
8.80203E-01 5.58758E-28
8.83022E-01 5.40800E-28
8.85812E-01 5.23309E-28
8.88573E-01 5.06275E-28
8.91304E-01 4.89684E-28
8.94005E-01 4.73525E-28
8.96677E-01 4.57789E-28
8.99318E-01 4.42463E-28
9.01928E-01 4.27539E-28
9.04508E-01 4.13005E-28
9.07058E-01 3.98852E-28
9.09576E-01 3.85072E-28
9.12063E-01 3.71654E-28
9.14519E-01 3.58589E-28
9.16943E-01 3.45870E-28
9.19335E-01 3.33489E-28
9.21696E-01 3.21436E-28
9.24024E-01 3.09704E-28
9.26320E-01 2.98285E-28
9.28584E-01 2.87173E-28
9.30815E-01 2.76359E-28
9.33013E-01 2.65838E-28
9.35178E-01 2.55602E-28
9.37310E-01 2.45644E-28
9.39409E-01 2.35959E-28
9.41474E-01 2.26541E-28
9.43505E-01 2.17383E-28
9.45503E-01 2.08479E-28
9.47467E-01 1.99824E-28
9.49397E-01 1.91413E-28
9.51293E-01 1.83241E-28
9.53154E-01 1.75301E-28
9.54981E-01 1.67590E-28
9.56773E-01 1.60103E-28
9.58530E-01 1.52835E-28
9.60252E-01 1.45781E-28
9.61940E-01 1.38937E-28
9.63592E-01 1.32299E-28
9.65209E-01 1.25863E-28
9.66790E-01 1.19625E-28
9.68336E-01 1.13581E-28
9.69846E-01 1.07728E-28
9.71321E-01 1.02062E-28
9.72759E-01 9.65790E-29
9.74162E-01 9.12765E-29
9.75528E-01 8.61511E-29
9.76858E-01 8.11997E-29
9.78152E-01 7.64193E-29
9.79410E-01 7.18070E-29
9.80631E-01 6.73602E-29
9.81815E-01 6.30761E-29
9.82963E-01 5.89522E-29
9.84074E-01 5.49862E-29
9.85148E-01 5.11755E-29
9.86185E-01 4.75180E-29
9.87185E-01 4.40115E-29
9.88148E-01 4.06540E-29
9.89074E-01 3.74434E-29
9.89962E-01 3.43779E-29
9.90814E-01 3.14556E-29
9.91627E-01 2.86750E-29
9.92404E-01 2.60342E-29
9.93143E-01 2.35319E-29
9.93844E-01 2.11665E-29
9.94508E-01 1.89366E-29
9.95134E-01 1.68410E-29
9.95722E-01 1.48785E-29
9.96273E-01 1.30478E-29
9.96786E-01 1.13479E-29
9.97261E-01 9.77789E-30
9.97698E-01 8.33679E-30
9.98097E-01 7.02378E-30
9.98459E-01 5.83810E-30
9.98782E-01 4.77906E-30
9.99067E-01 3.84605E-30
9.99315E-01 3.03853E-30
9.99524E-01 2.35603E-30
9.99695E-01 1.79816E-30
9.99829E-01 1.36460E-30
9.99924E-01 1.05509E-30
9.99981E-01 8.69449E-31
1.00000E+00 8.07587E-31
