 #
 # Subroutine ELSEPA. Elastic scattering of electrons and positrons
 #                    by neutral atoms and positive ions
 #
 # Projectile: positron
 # Kinetic energy = 3.00000E+08 eV = 1.10248E+07 a.u.
 #
 # WARNING: High-energy factorization with free-atom DF screening.
 #          Absorption, polarization and exchange corrections are
 #          switched off.
 #          Phase shifts are calculated for the bare nucleus.
 #          Scattering amplitudes are not evaluated.
 #
 # Element: Dy,  Z =  66,  atomic weight = 1.62500E+02 g/mol
 #
 # Nuclear model: Fermi distribution
 #                Average radius = 5.83895E-13 cm
 #                Skin thickness = 5.46000E-14 cm
 #
 # Number of electrons = 66
 #
 # Total elastic cross section = 7.11625E-18 cm**2 = 2.54126E-01 a0**2
 # 1st transport cross section = 9.16623E-26 cm**2 = 3.27332E-09 a0**2
 # 2nd transport cross section = 2.74684E-25 cm**2 = 9.80913E-09 a0**2
 #
 #
 # Differential cross section:                       MU=(1-COS(THETA))/2
 #
 #  THETA        MU          DCS          DCS        Sherman      error
 #  (deg)                 (cm**2/sr)   (a0**2/sr)    function
 #----------------------------------------------------------------------
0.00000E+00 7.07823E-09
7.61557E-13 6.78840E-09
1.18994E-12 6.63409E-09
1.71346E-12 6.45341E-09
2.33225E-12 6.25041E-09
3.04617E-12 6.03032E-09
3.85530E-12 5.79507E-09
4.75964E-12 5.55199E-09
5.75917E-12 5.30143E-09
6.85391E-12 5.05142E-09
8.04379E-12 4.80079E-09
9.32893E-12 4.55572E-09
1.07092E-11 4.31600E-09
1.21847E-11 4.08476E-09
1.37554E-11 3.86310E-09
1.54213E-11 3.65105E-09
1.71823E-11 3.45118E-09
1.90386E-11 3.26082E-09
2.09900E-11 3.08383E-09
2.30367E-11 2.91595E-09
2.51785E-11 2.76068E-09
2.74156E-11 2.61444E-09
2.97478E-11 2.47888E-09
3.21752E-11 2.35216E-09
3.46979E-11 2.23429E-09
3.73157E-11 2.12465E-09
4.00286E-11 2.02229E-09
4.28368E-11 1.92731E-09
4.57402E-11 1.83830E-09
4.87388E-11 1.75572E-09
5.18325E-11 1.67820E-09
5.50215E-11 1.60593E-09
5.83057E-11 1.53807E-09
6.16850E-11 1.47449E-09
6.51595E-11 1.41471E-09
6.87293E-11 1.35848E-09
7.23943E-11 1.30544E-09
7.61544E-11 1.25546E-09
1.18991E-10 8.75335E-10
1.71347E-10 6.31843E-10
2.33223E-10 4.65054E-10
3.04617E-10 3.43128E-10
3.85531E-10 2.63058E-10
4.75965E-10 2.01653E-10
5.75917E-10 1.59071E-10
6.85389E-10 1.25519E-10
8.04380E-10 1.01232E-10
9.32891E-10 8.20590E-11
1.07092E-09 6.74073E-11
1.21847E-09 5.57515E-11
1.37554E-09 4.64615E-11
1.54213E-09 3.90239E-11
1.71823E-09 3.29063E-11
1.90386E-09 2.79844E-11
2.09900E-09 2.38440E-11
2.30367E-09 2.04824E-11
2.51785E-09 1.76346E-11
2.74156E-09 1.52840E-11
2.97478E-09 1.32934E-11
3.21752E-09 1.16220E-11
3.46978E-09 1.02032E-11
3.73156E-09 8.99517E-12
4.00286E-09 7.96496E-12
4.28368E-09 7.07751E-12
4.57402E-09 6.31607E-12
4.87388E-09 5.65321E-12
5.18326E-09 5.07988E-12
5.50215E-09 4.57747E-12
5.83057E-09 4.13891E-12
6.16850E-09 3.75310E-12
6.51596E-09 3.41182E-12
6.87293E-09 3.10861E-12
7.23942E-09 2.83896E-12
7.61544E-09 2.59916E-12
1.18991E-08 1.18753E-12
1.71347E-08 6.15696E-13
2.33223E-08 3.48994E-13
3.04617E-08 2.11844E-13
3.85531E-08 1.35888E-13
4.75965E-08 9.11844E-14
5.75917E-08 6.34828E-14
6.85389E-08 4.55467E-14
8.04380E-08 3.35354E-14
9.32891E-08 2.52371E-14
1.07092E-07 1.93529E-14
1.21847E-07 1.50893E-14
1.37554E-07 1.19356E-14
1.54213E-07 9.56364E-15
1.71823E-07 7.75239E-15
1.90386E-07 6.34888E-15
2.09900E-07 5.24884E-15
2.30367E-07 4.37664E-15
2.51785E-07 3.67786E-15
2.74156E-07 3.11302E-15
2.97478E-07 2.65235E-15
3.21752E-07 2.27370E-15
3.46978E-07 1.96025E-15
3.73156E-07 1.69889E-15
4.00286E-07 1.47966E-15
4.28368E-07 1.29467E-15
4.57402E-07 1.13768E-15
4.87388E-07 1.00378E-15
5.18325E-07 8.89006E-16
5.50215E-07 7.90175E-16
5.83057E-07 7.04711E-16
6.16850E-07 6.30491E-16
6.51596E-07 5.65794E-16
6.87293E-07 5.09191E-16
7.23942E-07 4.59491E-16
7.61543E-07 4.15713E-16
1.18991E-06 1.71838E-16
1.71347E-06 8.33843E-17
2.33223E-06 4.52038E-17
3.04617E-06 2.65791E-17
3.85531E-06 1.66300E-17
4.75964E-06 1.09286E-17
5.75916E-06 7.47331E-18
6.85388E-06 5.28136E-18
8.04378E-06 3.83695E-18
9.32888E-06 2.85407E-18
1.07092E-05 2.16657E-18
1.21846E-05 1.67408E-18
1.37553E-05 1.31385E-18
1.54212E-05 1.04547E-18
1.71822E-05 8.42214E-19
1.90385E-05 6.85715E-19
2.09899E-05 5.64456E-19
2.30365E-05 4.68779E-19
2.51783E-05 3.92439E-19
2.74153E-05 3.30944E-19
2.97475E-05 2.80994E-19
3.21749E-05 2.40115E-19
3.46974E-05 2.06419E-19
3.73152E-05 1.78452E-19
4.00281E-05 1.55079E-19
4.28362E-05 1.35417E-19
4.57395E-05 1.18772E-19
4.87380E-05 1.04601E-19
5.18317E-05 9.24740E-20
5.50205E-05 8.20491E-20
5.83045E-05 7.30502E-20
6.16838E-05 6.52515E-20
6.51582E-05 5.84677E-20
6.87277E-05 5.25445E-20
7.23925E-05 4.73538E-20
7.61524E-05 4.29530E-20
9.21439E-05 2.93365E-20
1.09658E-04 2.07106E-20
1.28695E-04 1.50351E-20
1.49255E-04 1.11755E-20
1.71338E-04 8.47851E-21
1.94942E-04 6.54740E-21
2.20070E-04 5.13561E-21
2.46720E-04 4.08424E-21
2.74892E-04 3.28826E-21
3.04586E-04 2.67666E-21
3.35803E-04 2.20054E-21
3.68542E-04 1.82546E-21
4.02802E-04 1.52675E-21
4.38585E-04 1.28650E-21
4.75889E-04 1.09151E-21
5.14715E-04 9.31929E-22
5.55063E-04 8.00326E-22
5.96931E-04 6.91019E-22
6.40321E-04 5.99632E-22
6.85233E-04 5.22757E-22
7.31665E-04 4.57718E-22
7.79618E-04 4.02399E-22
8.29092E-04 3.55112E-22
8.80086E-04 3.14500E-22
9.32601E-04 2.79467E-22
9.86636E-04 2.49120E-22
1.04219E-03 2.22729E-22
1.09927E-03 1.99694E-22
1.15786E-03 1.79517E-22
1.21797E-03 1.61786E-22
1.27961E-03 1.46153E-22
1.34276E-03 1.32330E-22
1.40743E-03 1.20072E-22
1.47362E-03 1.09173E-22
1.54133E-03 9.94569E-23
1.61056E-03 9.07738E-23
1.68131E-03 8.29957E-23
1.75357E-03 7.60127E-23
1.82735E-03 6.97298E-23
1.90265E-03 6.40654E-23
1.97947E-03 5.89483E-23
2.05780E-03 5.43169E-23
2.13765E-03 5.01176E-23
2.21902E-03 4.63033E-23
2.30190E-03 4.28330E-23
2.38630E-03 3.96705E-23
2.47222E-03 3.67840E-23
2.55965E-03 3.41455E-23
2.64859E-03 3.17302E-23
2.73905E-03 2.95162E-23
2.83103E-03 2.74839E-23
2.92452E-03 2.56161E-23
3.01952E-03 2.38972E-23
3.11604E-03 2.23136E-23
3.21407E-03 2.08528E-23
3.31362E-03 1.95037E-23
3.41468E-03 1.82566E-23
3.51725E-03 1.71025E-23
3.62133E-03 1.60333E-23
3.72692E-03 1.50418E-23
3.83403E-03 1.41215E-23
3.94265E-03 1.32665E-23
4.05278E-03 1.24714E-23
4.16442E-03 1.17314E-23
4.27757E-03 1.10421E-23
4.39223E-03 1.03995E-23
4.50840E-03 9.79991E-24
4.62608E-03 9.24007E-24
4.74527E-03 8.71694E-24
4.86597E-03 8.22774E-24
4.98817E-03 7.76996E-24
5.11188E-03 7.34127E-24
5.23711E-03 6.93957E-24
5.36383E-03 6.56290E-24
5.49207E-03 6.20948E-24
5.62181E-03 5.87767E-24
5.75306E-03 5.56597E-24
5.88581E-03 5.27297E-24
6.02007E-03 4.99741E-24
6.15583E-03 4.73810E-24
6.29310E-03 4.49395E-24
6.43187E-03 4.26395E-24
6.57214E-03 4.04718E-24
6.71392E-03 3.84276E-24
6.85720E-03 3.64990E-24
7.00198E-03 3.46787E-24
7.14827E-03 3.29597E-24
7.29605E-03 3.13356E-24
7.44534E-03 2.98006E-24
7.59612E-03 2.83491E-24
7.97965E-03 2.50532E-24
8.37255E-03 2.21775E-24
8.77480E-03 1.96625E-24
9.18641E-03 1.74580E-24
9.60736E-03 1.55218E-24
1.00376E-02 1.38178E-24
1.04773E-02 1.23154E-24
1.09262E-02 1.09885E-24
1.13844E-02 9.81456E-25
1.18520E-02 8.77443E-25
1.23288E-02 7.85150E-25
1.28150E-02 7.03145E-25
1.33104E-02 6.30187E-25
1.38150E-02 5.65199E-25
1.43290E-02 5.07245E-25
1.48521E-02 4.55509E-25
1.53845E-02 4.09277E-25
1.59262E-02 3.67924E-25
1.64770E-02 3.30904E-25
1.70371E-02 2.97736E-25
1.76063E-02 2.67995E-25
1.81848E-02 2.41308E-25
1.87724E-02 2.17347E-25
1.93692E-02 1.95819E-25
1.99751E-02 1.76466E-25
2.05901E-02 1.59059E-25
2.12143E-02 1.43396E-25
2.18476E-02 1.29295E-25
2.24900E-02 1.16595E-25
2.31415E-02 1.05154E-25
2.38021E-02 9.48421E-26
2.44717E-02 8.55462E-26
2.51504E-02 7.71638E-26
2.58382E-02 6.96035E-26
2.65349E-02 6.27835E-26
2.72407E-02 5.66301E-26
2.79555E-02 5.10777E-26
2.86793E-02 4.60669E-26
2.94120E-02 4.15447E-26
3.01537E-02 3.74632E-26
3.09043E-02 3.37795E-26
3.16639E-02 3.04549E-26
3.24324E-02 2.74544E-26
3.32098E-02 2.47466E-26
3.39961E-02 2.23031E-26
3.47912E-02 2.00985E-26
3.55952E-02 1.81096E-26
3.64081E-02 1.63156E-26
3.72297E-02 1.46977E-26
3.80602E-02 1.32389E-26
3.88995E-02 1.19237E-26
3.97476E-02 1.07384E-26
4.06044E-02 9.67032E-27
4.14700E-02 8.70817E-27
4.23443E-02 7.84167E-27
4.32273E-02 7.06153E-27
4.41190E-02 6.35934E-27
4.50194E-02 5.72752E-27
4.59284E-02 5.15917E-27
4.68461E-02 4.64809E-27
4.87074E-02 3.77577E-27
5.06030E-02 3.07168E-27
5.25328E-02 2.50407E-27
5.44967E-02 2.04697E-27
5.64946E-02 1.67919E-27
5.85262E-02 1.38346E-27
6.05914E-02 1.14572E-27
6.26901E-02 9.54538E-28
6.48222E-02 8.00658E-28
6.69873E-02 6.76585E-28
6.91854E-02 5.76269E-28
7.14163E-02 4.94849E-28
7.36799E-02 4.28422E-28
7.59760E-02 3.73871E-28
7.83043E-02 3.28717E-28
8.06647E-02 2.90993E-28
8.30571E-02 2.59146E-28
8.54812E-02 2.31959E-28
8.79369E-02 2.08478E-28
9.04240E-02 1.87964E-28
9.29422E-02 1.69844E-28
9.54915E-02 1.53679E-28
9.80716E-02 1.39129E-28
1.00682E-01 1.25939E-28
1.03323E-01 1.13912E-28
1.05995E-01 1.02900E-28
1.08696E-01 9.27874E-29
1.11427E-01 8.34877E-29
1.14188E-01 7.49315E-29
1.16978E-01 6.70637E-29
1.19797E-01 5.98383E-29
1.22645E-01 5.32163E-29
1.25522E-01 4.71627E-29
1.28428E-01 4.16454E-29
1.31361E-01 3.66337E-29
1.34323E-01 3.20982E-29
1.37313E-01 2.80099E-29
1.40330E-01 2.43402E-29
1.43375E-01 2.10607E-29
1.46447E-01 1.81434E-29
1.49545E-01 1.55607E-29
1.52671E-01 1.32857E-29
1.55823E-01 1.12922E-29
1.59001E-01 9.55463E-30
1.62205E-01 8.04880E-30
1.65435E-01 6.75145E-30
1.68690E-01 5.64064E-30
1.71970E-01 4.69572E-30
1.75276E-01 3.89746E-30
1.78606E-01 3.22801E-30
1.81961E-01 2.67096E-30
1.85340E-01 2.21131E-30
1.88743E-01 1.83542E-30
1.92169E-01 1.53102E-30
1.95619E-01 1.28711E-30
1.99092E-01 1.09391E-30
2.02589E-01 9.42788E-31
2.06107E-01 8.26187E-31
2.09649E-01 7.37538E-31
2.13212E-01 6.71183E-31
2.16797E-01 6.22290E-31
2.20404E-01 5.86776E-31
2.24032E-01 5.61229E-31
2.27680E-01 5.42830E-31
2.31350E-01 5.29287E-31
2.35040E-01 5.18765E-31
2.38751E-01 5.09827E-31
2.42481E-01 5.01376E-31
2.46231E-01 4.92603E-31
2.50000E-01 4.82943E-31
2.53788E-01 4.72028E-31
2.57595E-01 4.59655E-31
2.61421E-01 4.45750E-31
2.65264E-01 4.30340E-31
2.69126E-01 4.13528E-31
2.73005E-01 3.95474E-31
2.76901E-01 3.76374E-31
2.80814E-01 3.56448E-31
2.84744E-01 3.35926E-31
2.88691E-01 3.15038E-31
2.92653E-01 2.94010E-31
2.96632E-01 2.73051E-31
3.00625E-01 2.52358E-31
3.04634E-01 2.32104E-31
3.08658E-01 2.12442E-31
3.12697E-01 1.93503E-31
3.16749E-01 1.75395E-31
3.20816E-01 1.58204E-31
3.24896E-01 1.41995E-31
3.28990E-01 1.26812E-31
3.33097E-01 1.12684E-31
3.37216E-01 9.96195E-32
3.41348E-01 8.76161E-32
3.45492E-01 7.66569E-32
3.49647E-01 6.67145E-32
3.53814E-01 5.77525E-32
3.57992E-01 4.97275E-32
3.62181E-01 4.25900E-32
3.66381E-01 3.62865E-32
3.70590E-01 3.07607E-32
3.74810E-01 2.59544E-32
3.79039E-01 2.18088E-32
3.83277E-01 1.82656E-32
3.87524E-01 1.52671E-32
3.91780E-01 1.27578E-32
3.96044E-01 1.06840E-32
4.00316E-01 8.99483E-33
4.04596E-01 7.64234E-33
4.08882E-01 6.58175E-33
4.13176E-01 5.77157E-33
4.17476E-01 5.17372E-33
4.21783E-01 4.75351E-33
4.26095E-01 4.47959E-33
4.30413E-01 4.32390E-33
4.34737E-01 4.26153E-33
4.39065E-01 4.27057E-33
4.43398E-01 4.33194E-33
4.47736E-01 4.42921E-33
4.52077E-01 4.54842E-33
4.56422E-01 4.67787E-33
4.60770E-01 4.80790E-33
4.65122E-01 4.93072E-33
4.69476E-01 5.04019E-33
4.73832E-01 5.13166E-33
4.78190E-01 5.20178E-33
4.82550E-01 5.24829E-33
4.86912E-01 5.26993E-33
4.91274E-01 5.26625E-33
4.95637E-01 5.23747E-33
5.00000E-01 5.18439E-33
5.04363E-01 5.10823E-33
5.08726E-01 5.01058E-33
5.13088E-01 4.89329E-33
5.17450E-01 4.75837E-33
5.21810E-01 4.60797E-33
5.26168E-01 4.44426E-33
5.30524E-01 4.26945E-33
5.34878E-01 4.08570E-33
5.39230E-01 3.89509E-33
5.43578E-01 3.69963E-33
5.47923E-01 3.50117E-33
5.52264E-01 3.30148E-33
5.56602E-01 3.10215E-33
5.60935E-01 2.90463E-33
5.65263E-01 2.71021E-33
5.69587E-01 2.52003E-33
5.73905E-01 2.33508E-33
5.78217E-01 2.15622E-33
5.82524E-01 1.98412E-33
5.86824E-01 1.81937E-33
5.91118E-01 1.66241E-33
5.95404E-01 1.51355E-33
5.99684E-01 1.37302E-33
6.03956E-01 1.24094E-33
6.08220E-01 1.11733E-33
6.12476E-01 1.00216E-33
6.16723E-01 8.95314E-34
6.20961E-01 7.96611E-34
6.25190E-01 7.05832E-34
6.29410E-01 6.22709E-34
6.33619E-01 5.46942E-34
6.37819E-01 4.78202E-34
6.42008E-01 4.16139E-34
6.46186E-01 3.60386E-34
6.50353E-01 3.10570E-34
6.54508E-01 2.66309E-34
6.58652E-01 2.27224E-34
6.62784E-01 1.92933E-34
6.66903E-01 1.63068E-34
6.71010E-01 1.37264E-34
6.75104E-01 1.15168E-34
6.79184E-01 9.64425E-35
6.83251E-01 8.07621E-35
6.87303E-01 6.78189E-35
6.91342E-01 5.73200E-35
6.95366E-01 4.89910E-35
6.99375E-01 4.25739E-35
7.03368E-01 3.78301E-35
7.07347E-01 3.45365E-35
7.11309E-01 3.24889E-35
7.15256E-01 3.14990E-35
7.19186E-01 3.13954E-35
7.23099E-01 3.20228E-35
7.26995E-01 3.32401E-35
7.30874E-01 3.49221E-35
7.34736E-01 3.69560E-35
7.38579E-01 3.92426E-35
7.42405E-01 4.16944E-35
7.46212E-01 4.42353E-35
7.50000E-01 4.67998E-35
7.53769E-01 4.93315E-35
7.57519E-01 5.17834E-35
7.61249E-01 5.41162E-35
7.64960E-01 5.62977E-35
7.68650E-01 5.83028E-35
7.72320E-01 6.01119E-35
7.75968E-01 6.17108E-35
7.79596E-01 6.30900E-35
7.83203E-01 6.42441E-35
7.86788E-01 6.51709E-35
7.90351E-01 6.58720E-35
7.93893E-01 6.63508E-35
7.97411E-01 6.66136E-35
8.00908E-01 6.66682E-35
8.04381E-01 6.65240E-35
8.07831E-01 6.61914E-35
8.11257E-01 6.56821E-35
8.14660E-01 6.50081E-35
8.18039E-01 6.41819E-35
8.21394E-01 6.32163E-35
8.24724E-01 6.21244E-35
8.28030E-01 6.09189E-35
8.31310E-01 5.96124E-35
8.34565E-01 5.82173E-35
8.37795E-01 5.67457E-35
8.40999E-01 5.52087E-35
8.44177E-01 5.36180E-35
8.47329E-01 5.19835E-35
8.50455E-01 5.03152E-35
8.53553E-01 4.86225E-35
8.56625E-01 4.69138E-35
8.59670E-01 4.51975E-35
8.62687E-01 4.34805E-35
8.65677E-01 4.17699E-35
8.68639E-01 4.00718E-35
8.71572E-01 3.83915E-35
8.74478E-01 3.67344E-35
8.77355E-01 3.51046E-35
8.80203E-01 3.35060E-35
8.83022E-01 3.19423E-35
8.85812E-01 3.04162E-35
8.88573E-01 2.89300E-35
8.91304E-01 2.74861E-35
8.94005E-01 2.60860E-35
8.96677E-01 2.47309E-35
8.99318E-01 2.34221E-35
9.01928E-01 2.21602E-35
9.04508E-01 2.09451E-35
9.07058E-01 1.97775E-35
9.09576E-01 1.86573E-35
9.12063E-01 1.75838E-35
9.14519E-01 1.65567E-35
9.16943E-01 1.55755E-35
9.19335E-01 1.46395E-35
9.21696E-01 1.37473E-35
9.24024E-01 1.28985E-35
9.26320E-01 1.20916E-35
9.28584E-01 1.13257E-35
9.30815E-01 1.05993E-35
9.33013E-01 9.91127E-36
9.35178E-01 9.26034E-36
9.37310E-01 8.64521E-36
9.39409E-01 8.06427E-36
9.41474E-01 7.51633E-36
9.43505E-01 7.00003E-36
9.45503E-01 6.51383E-36
9.47467E-01 6.05686E-36
9.49397E-01 5.62728E-36
9.51293E-01 5.22403E-36
9.53154E-01 4.84582E-36
9.54981E-01 4.49132E-36
9.56773E-01 4.15951E-36
9.58530E-01 3.84885E-36
9.60252E-01 3.55860E-36
9.61940E-01 3.28744E-36
9.63592E-01 3.03432E-36
9.65209E-01 2.79824E-36
9.66790E-01 2.57828E-36
9.68336E-01 2.37341E-36
9.69846E-01 2.18279E-36
9.71321E-01 2.00546E-36
9.72759E-01 1.84074E-36
9.74162E-01 1.68776E-36
9.75528E-01 1.54585E-36
9.76858E-01 1.41425E-36
9.78152E-01 1.29226E-36
9.79410E-01 1.17927E-36
9.80631E-01 1.07477E-36
9.81815E-01 9.78101E-37
9.82963E-01 8.88797E-37
9.84074E-01 8.06343E-37
9.85148E-01 7.30226E-37
9.86185E-01 6.60071E-37
9.87185E-01 5.95433E-37
9.88148E-01 5.35909E-37
9.89074E-01 4.81182E-37
9.89962E-01 4.30837E-37
9.90814E-01 3.84681E-37
9.91627E-01 3.42323E-37
9.92404E-01 3.03489E-37
9.93143E-01 2.67970E-37
9.93844E-01 2.35544E-37
9.94508E-01 2.05936E-37
9.95134E-01 1.78993E-37
9.95722E-01 1.54509E-37
9.96273E-01 1.32325E-37
9.96786E-01 1.12332E-37
9.97261E-01 9.43247E-38
9.97698E-01 7.81968E-38
9.98097E-01 6.38209E-38
9.98459E-01 5.11513E-38
9.98782E-01 4.00218E-38
9.99067E-01 3.03777E-38
9.99315E-01 2.21728E-38
9.99524E-01 1.53140E-38
9.99695E-01 9.77442E-39
9.99829E-01 5.52438E-39
9.99924E-01 2.50553E-39
9.99981E-01 6.92404E-40
1.00000E+00 1.09332E-40
