 #
 # Subroutine ELSEPA. Elastic scattering of electrons and positrons
 #                    by neutral atoms and positive ions
 #
 # Projectile: positron
 # Kinetic energy = 4.00000E+07 eV = 1.46997E+06 a.u.
 #
 # WARNING: High-energy factorization with free-atom DF screening.
 #          Absorption, polarization and exchange corrections are
 #          switched off.
 #          Phase shifts are calculated for the bare nucleus.
 #          Scattering amplitudes are not evaluated.
 #
 # Element: Dy,  Z =  66,  atomic weight = 1.62500E+02 g/mol
 #
 # Nuclear model: Fermi distribution
 #                Average radius = 5.83895E-13 cm
 #                Skin thickness = 5.46000E-14 cm
 #
 # Number of electrons = 66
 #
 # Total elastic cross section = 7.11497E-18 cm**2 = 2.54080E-01 a0**2
 # 1st transport cross section = 4.58196E-24 cm**2 = 1.63625E-07 a0**2
 # 2nd transport cross section = 1.34159E-23 cm**2 = 4.79091E-07 a0**2
 #
 #
 # Differential cross section:                       MU=(1-COS(THETA))/2
 #
 #  THETA        MU          DCS          DCS        Sherman      error
 #  (deg)                 (cm**2/sr)   (a0**2/sr)    function
 #----------------------------------------------------------------------
0.00000E+00 1.28632E-10
7.61557E-13 1.28533E-10
1.18994E-12 1.28477E-10
1.71346E-12 1.28409E-10
2.33225E-12 1.28328E-10
3.04617E-12 1.28236E-10
3.85530E-12 1.28131E-10
4.75964E-12 1.28014E-10
5.75917E-12 1.27885E-10
6.85391E-12 1.27744E-10
8.04379E-12 1.27591E-10
9.32893E-12 1.27426E-10
1.07092E-11 1.27250E-10
1.21847E-11 1.27061E-10
1.37554E-11 1.26861E-10
1.54213E-11 1.26650E-10
1.71823E-11 1.26427E-10
1.90386E-11 1.26192E-10
2.09900E-11 1.25947E-10
2.30367E-11 1.25690E-10
2.51785E-11 1.25423E-10
2.74156E-11 1.25144E-10
2.97478E-11 1.24855E-10
3.21752E-11 1.24555E-10
3.46979E-11 1.24245E-10
3.73157E-11 1.23924E-10
4.00286E-11 1.23593E-10
4.28368E-11 1.23253E-10
4.57402E-11 1.22902E-10
4.87388E-11 1.22541E-10
5.18325E-11 1.22171E-10
5.50215E-11 1.21792E-10
5.83057E-11 1.21403E-10
6.16850E-11 1.21005E-10
6.51595E-11 1.20599E-10
6.87293E-11 1.20183E-10
7.23943E-11 1.19759E-10
7.61544E-11 1.19327E-10
1.18991E-10 1.14582E-10
1.71347E-10 1.09223E-10
2.33223E-10 1.03404E-10
3.04617E-10 9.73322E-11
3.85531E-10 9.11957E-11
4.75965E-10 8.51033E-11
5.75917E-10 7.91662E-11
6.85389E-10 7.35031E-11
8.04380E-10 6.81687E-11
9.32891E-10 6.31718E-11
1.07092E-09 5.85320E-11
1.21847E-09 5.42868E-11
1.37554E-09 5.04014E-11
1.54213E-09 4.68486E-11
1.71823E-09 4.36107E-11
1.90386E-09 4.06871E-11
2.09900E-09 3.80265E-11
2.30367E-09 3.56045E-11
2.51785E-09 3.34011E-11
2.74156E-09 3.14002E-11
2.97478E-09 2.95700E-11
3.21752E-09 2.78942E-11
3.46978E-09 2.63575E-11
3.73156E-09 2.49432E-11
4.00286E-09 2.36377E-11
4.28368E-09 2.24307E-11
4.57402E-09 2.13103E-11
4.87388E-09 2.02659E-11
5.18326E-09 1.92928E-11
5.50215E-09 1.83844E-11
5.83057E-09 1.75309E-11
6.16850E-09 1.67283E-11
6.51596E-09 1.59746E-11
6.87293E-09 1.52657E-11
7.23942E-09 1.45930E-11
7.61544E-09 1.39573E-11
1.18991E-08 9.13873E-12
1.71347E-08 6.07980E-12
2.33223E-08 4.25171E-12
3.04617E-08 3.03748E-12
3.85531E-08 2.21532E-12
4.75965E-08 1.65861E-12
5.75917E-08 1.26778E-12
6.85389E-08 9.81459E-13
8.04380E-08 7.69176E-13
9.32891E-08 6.10951E-13
1.07092E-07 4.90769E-13
1.21847E-07 3.97111E-13
1.37554E-07 3.24366E-13
1.54213E-07 2.67473E-13
1.71823E-07 2.22473E-13
1.90386E-07 1.86327E-13
2.09900E-07 1.57332E-13
2.30367E-07 1.33866E-13
2.51785E-07 1.14700E-13
2.74156E-07 9.88723E-14
2.97478E-07 8.57660E-14
3.21752E-07 7.48342E-14
3.46978E-07 6.56518E-14
3.73156E-07 5.78179E-14
4.00286E-07 5.11506E-14
4.28368E-07 4.54462E-14
4.57402E-07 4.05311E-14
4.87388E-07 3.62715E-14
5.18325E-07 3.25694E-14
5.50215E-07 2.93361E-14
5.83057E-07 2.64914E-14
6.16850E-07 2.39811E-14
6.51596E-07 2.17620E-14
6.87293E-07 1.97936E-14
7.23942E-07 1.80361E-14
7.61543E-07 1.64680E-14
1.18991E-06 7.29356E-15
1.71347E-06 3.69163E-15
2.33223E-06 2.06327E-15
3.04617E-06 1.24253E-15
3.85531E-06 7.92803E-16
4.75964E-06 5.29548E-16
5.75916E-06 3.67086E-16
6.85388E-06 2.62402E-16
8.04378E-06 1.92480E-16
9.32888E-06 1.44330E-16
1.07092E-05 1.10315E-16
1.21846E-05 8.57394E-17
1.37553E-05 6.76297E-17
1.54212E-05 5.40506E-17
1.71822E-05 4.37097E-17
1.90385E-05 3.57080E-17
2.09899E-05 2.94821E-17
2.30365E-05 2.45513E-17
2.51783E-05 2.06040E-17
2.74153E-05 1.74147E-17
2.97475E-05 1.48172E-17
3.21749E-05 1.26861E-17
3.46974E-05 1.09254E-17
3.73152E-05 9.46105E-18
4.00281E-05 8.23489E-18
4.28362E-05 7.20149E-18
4.57395E-05 6.32519E-18
4.87380E-05 5.57793E-18
5.18317E-05 4.93747E-18
5.50205E-05 4.38608E-18
5.83045E-05 3.90944E-18
6.16838E-05 3.49584E-18
6.51582E-05 3.13561E-18
6.87277E-05 2.82070E-18
7.23925E-05 2.54441E-18
7.61524E-05 2.30123E-18
9.21439E-05 1.57576E-18
1.09658E-04 1.11473E-18
1.28695E-04 8.10605E-19
1.49255E-04 6.03336E-19
1.71338E-04 4.58247E-19
1.94942E-04 3.54209E-19
2.20070E-04 2.78059E-19
2.46720E-04 2.21295E-19
2.74892E-04 1.78283E-19
3.04586E-04 1.45219E-19
3.35803E-04 1.19466E-19
3.68542E-04 9.91684E-20
4.02802E-04 8.29980E-20
4.38585E-04 6.99879E-20
4.75889E-04 5.94261E-20
5.14715E-04 5.07801E-20
5.55063E-04 4.36483E-20
5.96931E-04 3.77235E-20
6.40321E-04 3.27689E-20
6.85233E-04 2.86001E-20
7.31665E-04 2.50724E-20
7.79618E-04 2.20712E-20
8.29092E-04 1.95050E-20
8.80086E-04 1.73004E-20
9.32601E-04 1.53979E-20
9.86636E-04 1.37494E-20
1.04219E-03 1.23152E-20
1.09927E-03 1.10628E-20
1.15786E-03 9.96523E-21
1.21797E-03 9.00014E-21
1.27961E-03 8.14883E-21
1.34276E-03 7.39558E-21
1.40743E-03 6.72716E-21
1.47362E-03 6.13237E-21
1.54133E-03 5.60171E-21
1.61056E-03 5.12708E-21
1.68131E-03 4.70152E-21
1.75357E-03 4.31909E-21
1.82735E-03 3.97464E-21
1.90265E-03 3.66375E-21
1.97947E-03 3.38259E-21
2.05780E-03 3.12780E-21
2.13765E-03 2.89647E-21
2.21902E-03 2.68607E-21
2.30190E-03 2.49437E-21
2.38630E-03 2.31941E-21
2.47222E-03 2.15947E-21
2.55965E-03 2.01303E-21
2.64859E-03 1.87876E-21
2.73905E-03 1.75545E-21
2.83103E-03 1.64206E-21
2.92452E-03 1.53764E-21
3.01952E-03 1.44136E-21
3.11604E-03 1.35247E-21
3.21407E-03 1.27030E-21
3.31362E-03 1.19425E-21
3.41468E-03 1.12379E-21
3.51725E-03 1.05842E-21
3.62133E-03 9.97718E-22
3.72692E-03 9.41286E-22
3.83403E-03 8.88770E-22
3.94265E-03 8.39850E-22
4.05278E-03 7.94235E-22
4.16442E-03 7.51660E-22
4.27757E-03 7.11887E-22
4.39223E-03 6.74697E-22
4.50840E-03 6.39893E-22
4.62608E-03 6.07293E-22
4.74527E-03 5.76732E-22
4.86597E-03 5.48060E-22
4.98817E-03 5.21139E-22
5.11188E-03 4.95842E-22
5.23711E-03 4.72053E-22
5.36383E-03 4.49666E-22
5.49207E-03 4.28584E-22
5.62181E-03 4.08716E-22
5.75306E-03 3.89980E-22
5.88581E-03 3.72298E-22
6.02007E-03 3.55602E-22
6.15583E-03 3.39826E-22
6.29310E-03 3.24910E-22
6.43187E-03 3.10799E-22
6.57214E-03 2.97441E-22
6.71392E-03 2.84788E-22
6.85720E-03 2.72797E-22
7.00198E-03 2.61426E-22
7.14827E-03 2.50638E-22
7.29605E-03 2.40397E-22
7.44534E-03 2.30671E-22
7.59612E-03 2.21428E-22
7.97965E-03 2.00255E-22
8.37255E-03 1.81537E-22
8.77480E-03 1.64942E-22
9.18641E-03 1.50188E-22
9.60736E-03 1.37036E-22
1.00376E-02 1.25282E-22
1.04773E-02 1.14753E-22
1.09262E-02 1.05299E-22
1.13844E-02 9.67906E-23
1.18520E-02 8.91182E-23
1.23288E-02 8.21849E-23
1.28150E-02 7.59075E-23
1.33104E-02 7.02130E-23
1.38150E-02 6.50381E-23
1.43290E-02 6.03271E-23
1.48521E-02 5.60313E-23
1.53845E-02 5.21069E-23
1.59262E-02 4.85166E-23
1.64770E-02 4.52273E-23
1.70371E-02 4.22092E-23
1.76063E-02 3.94361E-23
1.81848E-02 3.68847E-23
1.87724E-02 3.45340E-23
1.93692E-02 3.23657E-23
1.99751E-02 3.03629E-23
2.05901E-02 2.85109E-23
2.12143E-02 2.67963E-23
2.18476E-02 2.52072E-23
2.24900E-02 2.37327E-23
2.31415E-02 2.23631E-23
2.38021E-02 2.10896E-23
2.44717E-02 1.99044E-23
2.51504E-02 1.88001E-23
2.58382E-02 1.77704E-23
2.65349E-02 1.68092E-23
2.72407E-02 1.59113E-23
2.79555E-02 1.50717E-23
2.86793E-02 1.42859E-23
2.94120E-02 1.35499E-23
3.01537E-02 1.28600E-23
3.09043E-02 1.22128E-23
3.16639E-02 1.16052E-23
3.24324E-02 1.10343E-23
3.32098E-02 1.04975E-23
3.39961E-02 9.99249E-24
3.47912E-02 9.51695E-24
3.55952E-02 9.06890E-24
3.64081E-02 8.64645E-24
3.72297E-02 8.24790E-24
3.80602E-02 7.87164E-24
3.88995E-02 7.51622E-24
3.97476E-02 7.18027E-24
4.06044E-02 6.86254E-24
4.14700E-02 6.56187E-24
4.23443E-02 6.27718E-24
4.32273E-02 6.00746E-24
4.41190E-02 5.75180E-24
4.50194E-02 5.50932E-24
4.59284E-02 5.27924E-24
4.68461E-02 5.06080E-24
4.87074E-02 4.65612E-24
5.06030E-02 4.29030E-24
5.25328E-02 3.95899E-24
5.44967E-02 3.65837E-24
5.64946E-02 3.38515E-24
5.85262E-02 3.13640E-24
6.05914E-02 2.90957E-24
6.26901E-02 2.70241E-24
6.48222E-02 2.51293E-24
6.69873E-02 2.33936E-24
6.91854E-02 2.18015E-24
7.14163E-02 2.03391E-24
7.36799E-02 1.89942E-24
7.59760E-02 1.77556E-24
7.83043E-02 1.66136E-24
8.06647E-02 1.55594E-24
8.30571E-02 1.45852E-24
8.54812E-02 1.36838E-24
8.79369E-02 1.28490E-24
9.04240E-02 1.20749E-24
9.29422E-02 1.13564E-24
9.54915E-02 1.06890E-24
9.80716E-02 1.00682E-24
1.00682E-01 9.49047E-25
1.03323E-01 8.95217E-25
1.05995E-01 8.45022E-25
1.08696E-01 7.98174E-25
1.11427E-01 7.54415E-25
1.14188E-01 7.13506E-25
1.16978E-01 6.75233E-25
1.19797E-01 6.39396E-25
1.22645E-01 6.05817E-25
1.25522E-01 5.74329E-25
1.28428E-01 5.44781E-25
1.31361E-01 5.17033E-25
1.34323E-01 4.90959E-25
1.37313E-01 4.66441E-25
1.40330E-01 4.43371E-25
1.43375E-01 4.21650E-25
1.46447E-01 4.01186E-25
1.49545E-01 3.81895E-25
1.52671E-01 3.63698E-25
1.55823E-01 3.46524E-25
1.59001E-01 3.30305E-25
1.62205E-01 3.14981E-25
1.65435E-01 3.00493E-25
1.68690E-01 2.86790E-25
1.71970E-01 2.73821E-25
1.75276E-01 2.61541E-25
1.78606E-01 2.49908E-25
1.81961E-01 2.38882E-25
1.85340E-01 2.28427E-25
1.88743E-01 2.18508E-25
1.92169E-01 2.09093E-25
1.95619E-01 2.00154E-25
1.99092E-01 1.91661E-25
2.02589E-01 1.83590E-25
2.06107E-01 1.75916E-25
2.09649E-01 1.68616E-25
2.13212E-01 1.61670E-25
2.16797E-01 1.55057E-25
2.20404E-01 1.48759E-25
2.24032E-01 1.42759E-25
2.27680E-01 1.37041E-25
2.31350E-01 1.31589E-25
2.35040E-01 1.26389E-25
2.38751E-01 1.21428E-25
2.42481E-01 1.16693E-25
2.46231E-01 1.12171E-25
2.50000E-01 1.07853E-25
2.53788E-01 1.03727E-25
2.57595E-01 9.97838E-26
2.61421E-01 9.60139E-26
2.65264E-01 9.24084E-26
2.69126E-01 8.89593E-26
2.73005E-01 8.56586E-26
2.76901E-01 8.24991E-26
2.80814E-01 7.94738E-26
2.84744E-01 7.65762E-26
2.88691E-01 7.38001E-26
2.92653E-01 7.11396E-26
2.96632E-01 6.85892E-26
3.00625E-01 6.61437E-26
3.04634E-01 6.37982E-26
3.08658E-01 6.15479E-26
3.12697E-01 5.93885E-26
3.16749E-01 5.73157E-26
3.20816E-01 5.53256E-26
3.24896E-01 5.34144E-26
3.28990E-01 5.15784E-26
3.33097E-01 4.98144E-26
3.37216E-01 4.81191E-26
3.41348E-01 4.64895E-26
3.45492E-01 4.49225E-26
3.49647E-01 4.34156E-26
3.53814E-01 4.19660E-26
3.57992E-01 4.05713E-26
3.62181E-01 3.92291E-26
3.66381E-01 3.79372E-26
3.70590E-01 3.66934E-26
3.74810E-01 3.54956E-26
3.79039E-01 3.43419E-26
3.83277E-01 3.32306E-26
3.87524E-01 3.21597E-26
3.91780E-01 3.11277E-26
3.96044E-01 3.01329E-26
4.00316E-01 2.91739E-26
4.04596E-01 2.82490E-26
4.08882E-01 2.73571E-26
4.13176E-01 2.64966E-26
4.17476E-01 2.56665E-26
4.21783E-01 2.48654E-26
4.26095E-01 2.40922E-26
4.30413E-01 2.33459E-26
4.34737E-01 2.26253E-26
4.39065E-01 2.19294E-26
4.43398E-01 2.12573E-26
4.47736E-01 2.06081E-26
4.52077E-01 1.99809E-26
4.56422E-01 1.93748E-26
4.60770E-01 1.87891E-26
4.65122E-01 1.82229E-26
4.69476E-01 1.76756E-26
4.73832E-01 1.71464E-26
4.78190E-01 1.66347E-26
4.82550E-01 1.61397E-26
4.86912E-01 1.56609E-26
4.91274E-01 1.51977E-26
4.95637E-01 1.47496E-26
5.00000E-01 1.43158E-26
5.04363E-01 1.38961E-26
5.08726E-01 1.34897E-26
5.13088E-01 1.30963E-26
5.17450E-01 1.27154E-26
5.21810E-01 1.23465E-26
5.26168E-01 1.19893E-26
5.30524E-01 1.16432E-26
5.34878E-01 1.13080E-26
5.39230E-01 1.09832E-26
5.43578E-01 1.06684E-26
5.47923E-01 1.03634E-26
5.52264E-01 1.00678E-26
5.56602E-01 9.78119E-27
5.60935E-01 9.50336E-27
5.65263E-01 9.23397E-27
5.69587E-01 8.97275E-27
5.73905E-01 8.71942E-27
5.78217E-01 8.47371E-27
5.82524E-01 8.23536E-27
5.86824E-01 8.00413E-27
5.91118E-01 7.77978E-27
5.95404E-01 7.56208E-27
5.99684E-01 7.35082E-27
6.03956E-01 7.14578E-27
6.08220E-01 6.94675E-27
6.12476E-01 6.75355E-27
6.16723E-01 6.56598E-27
6.20961E-01 6.38386E-27
6.25190E-01 6.20702E-27
6.29410E-01 6.03528E-27
6.33619E-01 5.86848E-27
6.37819E-01 5.70646E-27
6.42008E-01 5.54907E-27
6.46186E-01 5.39617E-27
6.50353E-01 5.24761E-27
6.54508E-01 5.10326E-27
6.58652E-01 4.96299E-27
6.62784E-01 4.82666E-27
6.66903E-01 4.69416E-27
6.71010E-01 4.56536E-27
6.75104E-01 4.44016E-27
6.79184E-01 4.31844E-27
6.83251E-01 4.20010E-27
6.87303E-01 4.08502E-27
6.91342E-01 3.97313E-27
6.95366E-01 3.86430E-27
6.99375E-01 3.75847E-27
7.03368E-01 3.65552E-27
7.07347E-01 3.55539E-27
7.11309E-01 3.45798E-27
7.15256E-01 3.36321E-27
7.19186E-01 3.27100E-27
7.23099E-01 3.18129E-27
7.26995E-01 3.09399E-27
7.30874E-01 3.00903E-27
7.34736E-01 2.92635E-27
7.38579E-01 2.84588E-27
7.42405E-01 2.76755E-27
7.46212E-01 2.69131E-27
7.50000E-01 2.61708E-27
7.53769E-01 2.54483E-27
7.57519E-01 2.47448E-27
7.61249E-01 2.40599E-27
7.64960E-01 2.33929E-27
7.68650E-01 2.27435E-27
7.72320E-01 2.21111E-27
7.75968E-01 2.14952E-27
7.79596E-01 2.08954E-27
7.83203E-01 2.03111E-27
7.86788E-01 1.97421E-27
7.90351E-01 1.91878E-27
7.93893E-01 1.86479E-27
7.97411E-01 1.81219E-27
8.00908E-01 1.76094E-27
8.04381E-01 1.71102E-27
8.07831E-01 1.66238E-27
8.11257E-01 1.61499E-27
8.14660E-01 1.56882E-27
8.18039E-01 1.52382E-27
8.21394E-01 1.47998E-27
8.24724E-01 1.43725E-27
8.28030E-01 1.39562E-27
8.31310E-01 1.35504E-27
8.34565E-01 1.31550E-27
8.37795E-01 1.27696E-27
8.40999E-01 1.23940E-27
8.44177E-01 1.20279E-27
8.47329E-01 1.16711E-27
8.50455E-01 1.13233E-27
8.53553E-01 1.09843E-27
8.56625E-01 1.06539E-27
8.59670E-01 1.03319E-27
8.62687E-01 1.00180E-27
8.65677E-01 9.71197E-28
8.68639E-01 9.41372E-28
8.71572E-01 9.12299E-28
8.74478E-01 8.83961E-28
8.77355E-01 8.56339E-28
8.80203E-01 8.29415E-28
8.83022E-01 8.03171E-28
8.85812E-01 7.77591E-28
8.88573E-01 7.52658E-28
8.91304E-01 7.28356E-28
8.94005E-01 7.04671E-28
8.96677E-01 6.81586E-28
8.99318E-01 6.59088E-28
9.01928E-01 6.37162E-28
9.04508E-01 6.15794E-28
9.07058E-01 5.94972E-28
9.09576E-01 5.74683E-28
9.12063E-01 5.54913E-28
9.14519E-01 5.35651E-28
9.16943E-01 5.16884E-28
9.19335E-01 4.98602E-28
9.21696E-01 4.80794E-28
9.24024E-01 4.63448E-28
9.26320E-01 4.46554E-28
9.28584E-01 4.30101E-28
9.30815E-01 4.14081E-28
9.33013E-01 3.98483E-28
9.35178E-01 3.83297E-28
9.37310E-01 3.68516E-28
9.39409E-01 3.54130E-28
9.41474E-01 3.40131E-28
9.43505E-01 3.26511E-28
9.45503E-01 3.13260E-28
9.47467E-01 3.00373E-28
9.49397E-01 2.87841E-28
9.51293E-01 2.75656E-28
9.53154E-01 2.63813E-28
9.54981E-01 2.52304E-28
9.56773E-01 2.41121E-28
9.58530E-01 2.30260E-28
9.60252E-01 2.19714E-28
9.61940E-01 2.09476E-28
9.63592E-01 1.99541E-28
9.65209E-01 1.89903E-28
9.66790E-01 1.80557E-28
9.68336E-01 1.71497E-28
9.69846E-01 1.62718E-28
9.71321E-01 1.54216E-28
9.72759E-01 1.45985E-28
9.74162E-01 1.38021E-28
9.75528E-01 1.30319E-28
9.76858E-01 1.22876E-28
9.78152E-01 1.15686E-28
9.79410E-01 1.08747E-28
9.80631E-01 1.02054E-28
9.81815E-01 9.56028E-29
9.82963E-01 8.93907E-29
9.84074E-01 8.34139E-29
9.85148E-01 7.76693E-29
9.86185E-01 7.21537E-29
9.87185E-01 6.68639E-29
9.88148E-01 6.17971E-29
9.89074E-01 5.69506E-29
9.89962E-01 5.23216E-29
9.90814E-01 4.79076E-29
9.91627E-01 4.37063E-29
9.92404E-01 3.97154E-29
9.93143E-01 3.59326E-29
9.93844E-01 3.23559E-29
9.94508E-01 2.89833E-29
9.95134E-01 2.58132E-29
9.95722E-01 2.28436E-29
9.96273E-01 2.00731E-29
9.96786E-01 1.75000E-29
9.97261E-01 1.51231E-29
9.97698E-01 1.29410E-29
9.98097E-01 1.09526E-29
9.98459E-01 9.15679E-30
9.98782E-01 7.55258E-30
9.99067E-01 6.13913E-30
9.99315E-01 4.91567E-30
9.99524E-01 3.88155E-30
9.99695E-01 3.03621E-30
9.99829E-01 2.37919E-30
9.99924E-01 1.91015E-30
9.99981E-01 1.62882E-30
1.00000E+00 1.53507E-30
