 #
 # Subroutine ELSEPA. Elastic scattering of electrons and positrons
 #                    by neutral atoms and positive ions
 #
 # Projectile: positron
 # Kinetic energy = 6.00000E+08 eV = 2.20496E+07 a.u.
 #
 # WARNING: High-energy factorization with free-atom DF screening.
 #          Absorption, polarization and exchange corrections are
 #          switched off.
 #          Phase shifts are calculated for the bare nucleus.
 #          Scattering amplitudes are not evaluated.
 #
 # Element: Dy,  Z =  66,  atomic weight = 1.62500E+02 g/mol
 #
 # Nuclear model: Fermi distribution
 #                Average radius = 5.83895E-13 cm
 #                Skin thickness = 5.46000E-14 cm
 #
 # Number of electrons = 66
 #
 # Total elastic cross section = 7.09529E-18 cm**2 = 2.53377E-01 a0**2
 # 1st transport cross section = 2.30280E-26 cm**2 = 8.22345E-10 a0**2
 # 2nd transport cross section = 6.90651E-26 cm**2 = 2.46636E-09 a0**2
 #
 #
 # Differential cross section:                       MU=(1-COS(THETA))/2
 #
 #  THETA        MU          DCS          DCS        Sherman      error
 #  (deg)                 (cm**2/sr)   (a0**2/sr)    function
 #----------------------------------------------------------------------
0.00000E+00 2.82648E-08
7.61557E-13 2.40864E-08
1.18994E-12 2.21785E-08
1.71346E-12 2.01816E-08
2.33225E-12 1.82035E-08
3.04617E-12 1.63237E-08
3.85530E-12 1.45922E-08
4.75964E-12 1.30338E-08
5.75917E-12 1.16559E-08
6.85391E-12 1.04513E-08
8.04379E-12 9.40337E-09
9.32893E-12 8.49421E-09
1.07092E-11 7.70549E-09
1.21847E-11 7.01965E-09
1.37554E-11 6.42090E-09
1.54213E-11 5.89549E-09
1.71823E-11 5.43176E-09
1.90386E-11 5.01990E-09
2.09900E-11 4.65188E-09
2.30367E-11 4.32070E-09
2.51785E-11 4.02114E-09
2.74156E-11 3.74892E-09
2.97478E-11 3.50046E-09
3.21752E-11 3.27281E-09
3.46979E-11 3.06352E-09
3.73157E-11 2.87056E-09
4.00286E-11 2.69224E-09
4.28368E-11 2.52710E-09
4.57402E-11 2.37392E-09
4.87388E-11 2.23154E-09
5.18325E-11 2.09888E-09
5.50215E-11 1.97540E-09
5.83057E-11 1.86038E-09
6.16850E-11 1.75316E-09
6.51595E-11 1.64879E-09
6.87293E-11 1.54783E-09
7.23943E-11 1.45621E-09
7.61544E-11 1.37289E-09
1.18991E-10 8.06980E-10
1.71347E-10 5.02369E-10
2.33223E-10 3.28460E-10
3.04617E-10 2.23180E-10
3.85531E-10 1.56233E-10
4.75965E-10 1.12047E-10
5.75917E-10 8.20277E-11
6.85389E-10 6.12116E-11
8.04380E-10 4.65468E-11
9.32891E-10 3.60268E-11
1.07092E-09 2.83465E-11
1.21847E-09 2.26419E-11
1.37554E-09 1.83334E-11
1.54213E-09 1.50315E-11
1.71823E-09 1.24505E-11
1.90386E-09 1.04100E-11
2.09900E-09 8.78045E-12
2.30367E-09 7.46261E-12
2.51785E-09 6.38561E-12
2.74156E-09 5.49669E-12
2.97478E-09 4.75662E-12
3.21752E-09 4.13601E-12
3.46978E-09 3.61244E-12
3.73156E-09 3.16844E-12
4.00286E-09 2.79014E-12
4.28368E-09 2.46634E-12
4.57402E-09 2.18790E-12
4.87388E-09 1.94738E-12
5.18326E-09 1.73864E-12
5.50215E-09 1.55690E-12
5.83057E-09 1.39810E-12
6.16850E-09 1.25892E-12
6.51596E-09 1.13623E-12
6.87293E-09 1.02797E-12
7.23942E-09 9.32740E-13
7.61544E-09 8.48676E-13
1.18991E-08 3.65324E-13
1.71347E-08 1.82488E-13
2.33223E-08 1.01120E-13
3.04617E-08 6.04611E-14
3.85531E-08 3.83218E-14
4.75965E-08 2.54410E-14
5.75917E-08 1.75385E-14
6.85389E-08 1.24751E-14
8.04380E-08 9.11184E-15
9.32891E-08 6.80846E-15
1.07092E-07 5.18863E-15
1.21847E-07 4.02290E-15
1.37554E-07 3.16690E-15
1.54213E-07 2.52696E-15
1.71823E-07 2.04084E-15
1.90386E-07 1.66621E-15
2.09900E-07 1.37376E-15
2.30367E-07 1.14278E-15
2.51785E-07 9.58375E-16
2.74156E-07 8.09718E-16
2.97478E-07 6.88807E-16
3.21752E-07 5.89649E-16
3.46978E-07 5.07711E-16
3.73156E-07 4.39523E-16
4.00286E-07 3.82408E-16
4.28368E-07 3.34275E-16
4.57402E-07 2.93482E-16
4.87388E-07 2.58724E-16
5.18325E-07 2.28961E-16
5.50215E-07 2.03357E-16
5.83057E-07 1.81233E-16
6.16850E-07 1.62035E-16
6.51596E-07 1.45312E-16
6.87293E-07 1.30692E-16
7.23942E-07 1.17864E-16
7.61543E-07 1.06572E-16
1.18991E-06 4.38275E-17
1.71347E-06 2.11840E-17
2.33223E-06 1.14500E-17
3.04617E-06 6.71731E-18
3.85531E-06 4.19573E-18
4.75964E-06 2.75368E-18
5.75916E-06 1.88115E-18
6.85388E-06 1.32834E-18
8.04378E-06 9.64443E-19
9.32888E-06 7.17022E-19
1.07092E-05 5.44076E-19
1.21846E-05 4.20256E-19
1.37553E-05 3.29730E-19
1.54212E-05 2.62312E-19
1.71822E-05 2.11273E-19
1.90385E-05 1.71984E-19
2.09899E-05 1.41550E-19
2.30365E-05 1.17542E-19
2.51783E-05 9.83891E-20
2.74153E-05 8.29635E-20
2.97475E-05 7.04355E-20
3.21749E-05 6.01838E-20
3.46974E-05 5.17348E-20
3.73152E-05 4.47226E-20
4.00281E-05 3.88630E-20
4.28362E-05 3.39339E-20
4.57395E-05 2.97616E-20
4.87380E-05 2.62097E-20
5.18317E-05 2.31704E-20
5.50205E-05 2.05577E-20
5.83045E-05 1.83026E-20
6.16838E-05 1.63483E-20
6.51582E-05 1.46485E-20
6.87277E-05 1.31644E-20
7.23925E-05 1.18636E-20
7.61524E-05 1.08157E-20
9.21439E-05 7.38255E-21
1.09658E-04 5.20686E-21
1.28695E-04 3.77497E-21
1.49255E-04 2.80111E-21
1.71338E-04 2.12062E-21
1.94942E-04 1.63348E-21
2.20070E-04 1.27749E-21
2.46720E-04 1.01254E-21
2.74892E-04 8.12109E-22
3.04586E-04 6.58298E-22
3.35803E-04 5.38706E-22
3.68542E-04 4.44637E-22
4.02802E-04 3.69852E-22
4.38585E-04 3.09821E-22
4.75889E-04 2.61210E-22
5.14715E-04 2.21526E-22
5.55063E-04 1.88889E-22
5.96931E-04 1.61863E-22
6.40321E-04 1.39341E-22
6.85233E-04 1.20464E-22
7.31665E-04 1.04554E-22
7.79618E-04 9.10768E-23
8.29092E-04 7.96068E-23
8.80086E-04 6.98016E-23
9.32601E-04 6.13850E-23
9.86636E-04 5.41323E-23
1.04219E-03 4.78598E-23
1.09927E-03 4.24163E-23
1.15786E-03 3.76772E-23
1.21797E-03 3.35388E-23
1.27961E-03 2.99146E-23
1.34276E-03 2.67321E-23
1.40743E-03 2.39304E-23
1.47362E-03 2.14580E-23
1.54133E-03 1.92711E-23
1.61056E-03 1.73327E-23
1.68131E-03 1.56109E-23
1.75357E-03 1.40786E-23
1.82735E-03 1.27124E-23
1.90265E-03 1.14922E-23
1.97947E-03 1.04005E-23
2.05780E-03 9.42236E-24
2.13765E-03 8.54455E-24
2.21902E-03 7.75569E-24
2.30190E-03 7.04580E-24
2.38630E-03 6.40614E-24
2.47222E-03 5.82908E-24
2.55965E-03 5.30787E-24
2.64859E-03 4.83659E-24
2.73905E-03 4.41000E-24
2.83103E-03 4.02349E-24
2.92452E-03 3.67295E-24
3.01952E-03 3.35474E-24
3.11604E-03 3.06564E-24
3.21407E-03 2.80278E-24
3.31362E-03 2.56357E-24
3.41468E-03 2.34575E-24
3.51725E-03 2.14725E-24
3.62133E-03 1.96624E-24
3.72692E-03 1.80108E-24
3.83403E-03 1.65030E-24
3.94265E-03 1.51256E-24
4.05278E-03 1.38667E-24
4.16442E-03 1.27155E-24
4.27757E-03 1.16624E-24
4.39223E-03 1.06985E-24
4.50840E-03 9.81600E-25
4.62608E-03 9.00765E-25
4.74527E-03 8.26698E-25
4.86597E-03 7.58809E-25
4.98817E-03 6.96564E-25
5.11188E-03 6.39478E-25
5.23711E-03 5.87109E-25
5.36383E-03 5.39058E-25
5.49207E-03 4.94957E-25
5.62181E-03 4.54475E-25
5.75306E-03 4.17309E-25
5.88581E-03 3.83181E-25
6.02007E-03 3.51840E-25
6.15583E-03 3.23054E-25
6.29310E-03 2.96612E-25
6.43187E-03 2.72322E-25
6.57214E-03 2.50008E-25
6.71392E-03 2.29508E-25
6.85720E-03 2.10674E-25
7.00198E-03 1.93370E-25
7.14827E-03 1.77473E-25
7.29605E-03 1.62869E-25
7.44534E-03 1.49452E-25
7.59612E-03 1.37127E-25
7.97965E-03 1.10532E-25
8.37255E-03 8.90400E-26
8.77480E-03 7.16854E-26
9.18641E-03 5.76859E-26
9.60736E-03 4.64061E-26
1.00376E-02 3.73296E-26
1.04773E-02 3.00366E-26
1.09262E-02 2.41856E-26
1.13844E-02 1.94989E-26
1.18520E-02 1.57506E-26
1.23288E-02 1.27574E-26
1.28150E-02 1.03703E-26
1.33104E-02 8.46863E-27
1.38150E-02 6.95469E-27
1.43290E-02 5.74958E-27
1.48521E-02 4.78970E-27
1.53845E-02 4.02396E-27
1.59262E-02 3.41140E-27
1.64770E-02 2.91932E-27
1.70371E-02 2.52172E-27
1.76063E-02 2.19800E-27
1.81848E-02 1.93193E-27
1.87724E-02 1.71079E-27
1.93692E-02 1.52466E-27
1.99751E-02 1.36585E-27
2.05901E-02 1.22848E-27
2.12143E-02 1.10802E-27
2.18476E-02 1.00106E-27
2.24900E-02 9.05050E-28
2.31415E-02 8.18067E-28
2.38021E-02 7.38700E-28
2.44717E-02 6.65909E-28
2.51504E-02 5.98929E-28
2.58382E-02 5.37196E-28
2.65349E-02 4.80289E-28
2.72407E-02 4.27884E-28
2.79555E-02 3.79722E-28
2.86793E-02 3.35585E-28
2.94120E-02 2.95278E-28
3.01537E-02 2.58617E-28
3.09043E-02 2.25421E-28
3.16639E-02 1.95509E-28
3.24324E-02 1.68695E-28
3.32098E-02 1.44790E-28
3.39961E-02 1.23601E-28
3.47912E-02 1.04933E-28
3.55952E-02 8.85888E-29
3.64081E-02 7.43739E-29
3.72297E-02 6.20964E-29
3.80602E-02 5.15693E-29
3.88995E-02 4.26124E-29
3.97476E-02 3.50534E-29
4.06044E-02 2.87295E-29
4.14700E-02 2.34879E-29
4.23443E-02 1.91869E-29
4.32273E-02 1.56958E-29
4.41190E-02 1.28957E-29
4.50194E-02 1.06788E-29
4.59284E-02 8.94857E-30
4.68461E-02 7.61951E-30
4.87074E-02 5.87351E-30
5.06030E-02 4.95200E-30
5.25328E-02 4.50067E-30
5.44967E-02 4.27634E-30
5.64946E-02 4.12372E-30
5.85262E-02 3.95399E-30
6.05914E-02 3.72594E-30
6.26901E-02 3.43025E-30
6.48222E-02 3.07697E-30
6.69873E-02 2.68608E-30
6.91854E-02 2.28073E-30
7.14163E-02 1.88283E-30
7.36799E-02 1.51044E-30
7.59760E-02 1.17664E-30
7.83043E-02 8.89263E-31
8.06647E-02 6.51440E-31
8.30571E-02 4.62392E-31
8.54812E-02 3.18441E-31
8.79369E-02 2.14003E-31
9.04240E-02 1.42492E-31
9.29422E-02 9.70593E-32
9.54915E-02 7.11646E-32
9.80716E-02 5.89587E-32
1.00682E-01 5.55116E-32
1.03323E-01 5.69042E-32
1.05995E-01 6.02152E-32
1.08696E-01 6.34360E-32
1.11427E-01 6.53385E-32
1.14188E-01 6.53220E-32
1.16978E-01 6.32562E-32
1.19797E-01 5.93347E-32
1.22645E-01 5.39465E-32
1.25522E-01 4.75722E-32
1.28428E-01 4.07039E-32
1.31361E-01 3.37901E-32
1.34323E-01 2.72013E-32
1.37313E-01 2.12135E-32
1.40330E-01 1.60059E-32
1.43375E-01 1.16674E-32
1.46447E-01 8.21087E-33
1.49545E-01 5.58920E-33
1.52671E-01 3.71329E-33
1.55823E-01 2.46851E-33
1.59001E-01 1.72923E-33
1.62205E-01 1.37056E-33
1.65435E-01 1.27707E-33
1.68690E-01 1.34854E-33
1.71970E-01 1.50314E-33
1.75276E-01 1.67837E-33
1.78606E-01 1.83031E-33
1.81961E-01 1.93169E-33
1.85340E-01 1.96923E-33
1.88743E-01 1.94062E-33
1.92169E-01 1.85151E-33
1.95619E-01 1.71270E-33
1.99092E-01 1.53771E-33
2.02589E-01 1.34081E-33
2.06107E-01 1.13550E-33
2.09649E-01 9.33560E-34
2.13212E-01 7.44374E-34
2.16797E-01 5.74742E-34
2.20404E-01 4.28897E-34
2.24032E-01 3.08739E-34
2.27680E-01 2.14208E-34
2.31350E-01 1.43711E-34
2.35040E-01 9.45703E-35
2.38751E-01 6.34495E-35
2.42481E-01 4.67232E-35
2.46231E-01 4.07853E-35
2.50000E-01 4.22825E-35
2.53788E-01 4.82748E-35
2.57595E-01 5.63304E-35
2.61421E-01 6.45611E-35
2.65264E-01 7.16139E-35
2.69126E-01 7.66268E-35
2.73005E-01 7.91617E-35
2.76901E-01 7.91254E-35
2.80814E-01 7.66860E-35
2.84744E-01 7.21919E-35
2.88691E-01 6.60988E-35
2.92653E-01 5.89073E-35
2.96632E-01 5.11125E-35
3.00625E-01 4.31674E-35
3.04634E-01 3.54582E-35
3.08658E-01 2.82895E-35
3.12697E-01 2.18805E-35
3.16749E-01 1.63667E-35
3.20816E-01 1.18085E-35
3.24896E-01 8.20213E-36
3.28990E-01 5.49319E-36
3.33097E-01 3.59020E-36
3.37216E-01 2.37787E-36
3.41348E-01 1.72894E-36
3.45492E-01 1.51433E-36
3.49647E-01 1.61094E-36
3.53814E-01 1.90773E-36
3.57992E-01 2.30933E-36
3.62181E-01 2.73833E-36
3.66381E-01 3.13549E-36
3.70590E-01 3.45929E-36
3.74810E-01 3.68425E-36
3.79039E-01 3.79848E-36
3.83277E-01 3.80158E-36
3.87524E-01 3.70157E-36
3.91780E-01 3.51271E-36
3.96044E-01 3.25281E-36
4.00316E-01 2.94151E-36
4.04596E-01 2.59845E-36
4.08882E-01 2.24197E-36
4.13176E-01 1.88826E-36
4.17476E-01 1.55078E-36
4.21783E-01 1.23991E-36
4.26095E-01 9.62983E-37
4.30413E-01 7.24433E-37
4.34737E-01 5.26076E-37
4.39065E-01 3.67526E-37
4.43398E-01 2.46624E-37
4.47736E-01 1.59885E-37
4.52077E-01 1.02946E-37
4.56422E-01 7.09373E-38
4.60770E-01 5.88437E-38
4.65122E-01 6.17709E-38
4.69476E-01 7.51756E-38
4.73832E-01 9.49937E-38
4.78190E-01 1.17776E-37
4.82550E-01 1.40717E-37
4.86912E-01 1.61635E-37
4.91274E-01 1.79008E-37
4.95637E-01 1.91841E-37
5.00000E-01 1.99659E-37
5.04363E-01 2.02393E-37
5.08726E-01 2.00293E-37
5.13088E-01 1.93854E-37
5.17450E-01 1.83754E-37
5.21810E-01 1.70735E-37
5.26168E-01 1.55598E-37
5.30524E-01 1.39111E-37
5.34878E-01 1.22008E-37
5.39230E-01 1.04922E-37
5.43578E-01 8.84070E-38
5.47923E-01 7.28938E-38
5.52264E-01 5.87165E-38
5.56602E-01 4.61013E-38
5.60935E-01 3.51766E-38
5.65263E-01 2.59860E-38
5.69587E-01 1.84993E-38
5.73905E-01 1.26314E-38
5.78217E-01 1.00000E-45
5.82524E-01 1.00000E-45
5.86824E-01 1.00000E-45
5.91118E-01 1.00000E-45
5.95404E-01 1.00000E-45
5.99684E-01 1.00000E-45
6.03956E-01 1.00000E-45
6.08220E-01 1.00000E-45
6.12476E-01 1.00000E-45
6.16723E-01 1.00000E-45
6.20961E-01 1.00000E-45
6.25190E-01 1.00000E-45
6.29410E-01 1.00000E-45
6.33619E-01 1.00000E-45
6.37819E-01 1.00000E-45
6.42008E-01 1.00000E-45
6.46186E-01 1.00000E-45
6.50353E-01 1.00000E-45
6.54508E-01 1.00000E-45
6.58652E-01 1.00000E-45
6.62784E-01 1.00000E-45
6.66903E-01 1.00000E-45
6.71010E-01 1.00000E-45
6.75104E-01 1.00000E-45
6.79184E-01 1.00000E-45
6.83251E-01 1.00000E-45
6.87303E-01 1.00000E-45
6.91342E-01 1.00000E-45
6.95366E-01 1.00000E-45
6.99375E-01 1.00000E-45
7.03368E-01 1.00000E-45
7.07347E-01 1.00000E-45
7.11309E-01 1.00000E-45
7.15256E-01 1.00000E-45
7.19186E-01 1.00000E-45
7.23099E-01 1.00000E-45
7.26995E-01 1.00000E-45
7.30874E-01 1.00000E-45
7.34736E-01 1.00000E-45
7.38579E-01 1.00000E-45
7.42405E-01 1.00000E-45
7.46212E-01 1.00000E-45
7.50000E-01 1.00000E-45
7.53769E-01 1.00000E-45
7.57519E-01 1.00000E-45
7.61249E-01 1.00000E-45
7.64960E-01 1.00000E-45
7.68650E-01 1.00000E-45
7.72320E-01 1.00000E-45
7.75968E-01 1.00000E-45
7.79596E-01 1.00000E-45
7.83203E-01 1.00000E-45
7.86788E-01 1.00000E-45
7.90351E-01 1.00000E-45
7.93893E-01 1.00000E-45
7.97411E-01 1.00000E-45
8.00908E-01 1.00000E-45
8.04381E-01 1.00000E-45
8.07831E-01 1.00000E-45
8.11257E-01 1.00000E-45
8.14660E-01 1.00000E-45
8.18039E-01 1.00000E-45
8.21394E-01 1.00000E-45
8.24724E-01 1.00000E-45
8.28030E-01 1.00000E-45
8.31310E-01 1.00000E-45
8.34565E-01 1.00000E-45
8.37795E-01 1.00000E-45
8.40999E-01 1.00000E-45
8.44177E-01 1.00000E-45
8.47329E-01 1.00000E-45
8.50455E-01 1.00000E-45
8.53553E-01 1.00000E-45
8.56625E-01 1.00000E-45
8.59670E-01 1.00000E-45
8.62687E-01 1.00000E-45
8.65677E-01 1.00000E-45
8.68639E-01 1.00000E-45
8.71572E-01 1.00000E-45
8.74478E-01 1.00000E-45
8.77355E-01 1.00000E-45
8.80203E-01 1.00000E-45
8.83022E-01 1.00000E-45
8.85812E-01 1.00000E-45
8.88573E-01 1.00000E-45
8.91304E-01 1.00000E-45
8.94005E-01 1.00000E-45
8.96677E-01 1.00000E-45
8.99318E-01 1.00000E-45
9.01928E-01 1.00000E-45
9.04508E-01 1.00000E-45
9.07058E-01 1.00000E-45
9.09576E-01 1.00000E-45
9.12063E-01 1.00000E-45
9.14519E-01 1.00000E-45
9.16943E-01 1.00000E-45
9.19335E-01 1.00000E-45
9.21696E-01 1.00000E-45
9.24024E-01 1.00000E-45
9.26320E-01 1.00000E-45
9.28584E-01 1.00000E-45
9.30815E-01 1.00000E-45
9.33013E-01 1.00000E-45
9.35178E-01 1.00000E-45
9.37310E-01 1.00000E-45
9.39409E-01 1.00000E-45
9.41474E-01 1.00000E-45
9.43505E-01 1.00000E-45
9.45503E-01 1.00000E-45
9.47467E-01 1.00000E-45
9.49397E-01 1.00000E-45
9.51293E-01 1.00000E-45
9.53154E-01 1.00000E-45
9.54981E-01 1.00000E-45
9.56773E-01 1.00000E-45
9.58530E-01 1.00000E-45
9.60252E-01 1.00000E-45
9.61940E-01 1.00000E-45
9.63592E-01 1.00000E-45
9.65209E-01 1.00000E-45
9.66790E-01 1.00000E-45
9.68336E-01 1.00000E-45
9.69846E-01 1.00000E-45
9.71321E-01 1.00000E-45
9.72759E-01 1.00000E-45
9.74162E-01 1.00000E-45
9.75528E-01 1.00000E-45
9.76858E-01 1.00000E-45
9.78152E-01 1.00000E-45
9.79410E-01 1.00000E-45
9.80631E-01 1.00000E-45
9.81815E-01 1.00000E-45
9.82963E-01 1.00000E-45
9.84074E-01 1.00000E-45
9.85148E-01 1.00000E-45
9.86185E-01 1.00000E-45
9.87185E-01 1.00000E-45
9.88148E-01 1.00000E-45
9.89074E-01 1.00000E-45
9.89962E-01 1.00000E-45
9.90814E-01 1.00000E-45
9.91627E-01 1.00000E-45
9.92404E-01 1.00000E-45
9.93143E-01 1.00000E-45
9.93844E-01 1.00000E-45
9.94508E-01 1.00000E-45
9.95134E-01 1.00000E-45
9.95722E-01 1.00000E-45
9.96273E-01 1.00000E-45
9.96786E-01 1.00000E-45
9.97261E-01 1.00000E-45
9.97698E-01 1.00000E-45
9.98097E-01 1.00000E-45
9.98459E-01 1.00000E-45
9.98782E-01 1.00000E-45
9.99067E-01 1.00000E-45
9.99315E-01 1.00000E-45
9.99524E-01 1.00000E-45
9.99695E-01 1.00000E-45
9.99829E-01 1.00000E-45
9.99924E-01 1.00000E-45
9.99981E-01 1.00000E-45
1.00000E+00 1.00000E-45
