 #
 # Subroutine ELSEPA. Elastic scattering of electrons and positrons
 #                    by neutral atoms and positive ions
 #
 # Projectile: positron
 # Kinetic energy = 1.50000E+08 eV = 5.51240E+06 a.u.
 #
 # WARNING: High-energy factorization with free-atom DF screening.
 #          Absorption, polarization and exchange corrections are
 #          switched off.
 #          Phase shifts are calculated for the bare nucleus.
 #          Scattering amplitudes are not evaluated.
 #
 # Element: Dy,  Z =  66,  atomic weight = 1.62500E+02 g/mol
 #
 # Nuclear model: Fermi distribution
 #                Average radius = 5.83895E-13 cm
 #                Skin thickness = 5.46000E-14 cm
 #
 # Number of electrons = 66
 #
 # Total elastic cross section = 7.11859E-18 cm**2 = 2.54210E-01 a0**2
 # 1st transport cross section = 3.62022E-25 cm**2 = 1.29280E-08 a0**2
 # 2nd transport cross section = 1.08135E-24 cm**2 = 3.86156E-08 a0**2
 #
 #
 # Differential cross section:                       MU=(1-COS(THETA))/2
 #
 #  THETA        MU          DCS          DCS        Sherman      error
 #  (deg)                 (cm**2/sr)   (a0**2/sr)    function
 #----------------------------------------------------------------------
0.00000E+00 1.77558E-09
7.61557E-13 1.75684E-09
1.18994E-12 1.74646E-09
1.71346E-12 1.73391E-09
2.33225E-12 1.71927E-09
3.04617E-12 1.70264E-09
3.85530E-12 1.68411E-09
4.75964E-12 1.66381E-09
5.75917E-12 1.64185E-09
6.85391E-12 1.61835E-09
8.04379E-12 1.59345E-09
9.32893E-12 1.56729E-09
1.07092E-11 1.54008E-09
1.21847E-11 1.51193E-09
1.37554E-11 1.48279E-09
1.54213E-11 1.45277E-09
1.71823E-11 1.42246E-09
1.90386E-11 1.39167E-09
2.09900E-11 1.36035E-09
2.30367E-11 1.32870E-09
2.51785E-11 1.29739E-09
2.74156E-11 1.26587E-09
2.97478E-11 1.23422E-09
3.21752E-11 1.20292E-09
3.46979E-11 1.17208E-09
3.73157E-11 1.14135E-09
4.00286E-11 1.11079E-09
4.28368E-11 1.08118E-09
4.57402E-11 1.05198E-09
4.87388E-11 1.02311E-09
5.18325E-11 9.94763E-10
5.50215E-11 9.67500E-10
5.83057E-11 9.40660E-10
6.16850E-11 9.14273E-10
6.51595E-11 8.88794E-10
6.87293E-11 8.64159E-10
7.23943E-11 8.40021E-10
7.61544E-11 8.16395E-10
1.18991E-10 6.20426E-10
1.71347E-10 4.82295E-10
2.33223E-10 3.84850E-10
3.04617E-10 3.14108E-10
3.85531E-10 2.60691E-10
4.75965E-10 2.18944E-10
5.75917E-10 1.85433E-10
6.85389E-10 1.57996E-10
8.04380E-10 1.35235E-10
9.32891E-10 1.16244E-10
1.07092E-09 9.97226E-11
1.21847E-09 8.57357E-11
1.37554E-09 7.46469E-11
1.54213E-09 6.57429E-11
1.71823E-09 5.74211E-11
1.90386E-09 5.03676E-11
2.09900E-09 4.45840E-11
2.30367E-09 3.97155E-11
2.51785E-09 3.51544E-11
2.74156E-09 3.13437E-11
2.97478E-09 2.81351E-11
3.21752E-09 2.52702E-11
3.46978E-09 2.26908E-11
3.73156E-09 2.04870E-11
4.00286E-09 1.85928E-11
4.28368E-09 1.68236E-11
4.57402E-09 1.52683E-11
4.87388E-09 1.39163E-11
5.18326E-09 1.27172E-11
5.50215E-09 1.15938E-11
5.83057E-09 1.06078E-11
6.16850E-09 9.73894E-12
6.51596E-09 8.94059E-12
6.87293E-09 8.20986E-12
7.23942E-09 7.56085E-12
7.61544E-09 6.98252E-12
1.18991E-08 3.31536E-12
1.71347E-08 1.76485E-12
2.33223E-08 1.03207E-12
3.04617E-08 6.48128E-13
3.85531E-08 4.29367E-13
4.75965E-08 2.96075E-13
5.75917E-08 2.10462E-13
6.85389E-08 1.53483E-13
8.04380E-08 1.14442E-13
9.32891E-08 8.69842E-14
1.07092E-07 6.72080E-14
1.21847E-07 5.27993E-14
1.37554E-07 4.20127E-14
1.54213E-07 3.38640E-14
1.71823E-07 2.76081E-14
1.90386E-07 2.27233E-14
2.09900E-07 1.88788E-14
2.30367E-07 1.58188E-14
2.51785E-07 1.33520E-14
2.74156E-07 1.13492E-14
2.97478E-07 9.71031E-15
3.21752E-07 8.35611E-15
3.46978E-07 7.22986E-15
3.73156E-07 6.28801E-15
4.00286E-07 5.49449E-15
4.28368E-07 4.82180E-15
4.57402E-07 4.24936E-15
4.87388E-07 3.75945E-15
5.18325E-07 3.33764E-15
5.50215E-07 2.97354E-15
5.83057E-07 2.65785E-15
6.16850E-07 2.38256E-15
6.51596E-07 2.14209E-15
6.87293E-07 1.93124E-15
7.23942E-07 1.74551E-15
7.61543E-07 1.58157E-15
1.18991E-06 6.60633E-16
1.71347E-06 3.22433E-16
2.33223E-06 1.75488E-16
3.04617E-06 1.03511E-16
3.85531E-06 6.49410E-17
4.75964E-06 4.27787E-17
5.75916E-06 2.93146E-17
6.85388E-06 2.07544E-17
8.04378E-06 1.51023E-17
9.32888E-06 1.12491E-17
1.07092E-05 8.54962E-18
1.21846E-05 6.61308E-18
1.37553E-05 5.19476E-18
1.54212E-05 4.13689E-18
1.71822E-05 3.33494E-18
1.90385E-05 2.71690E-18
2.09899E-05 2.23765E-18
2.30365E-05 1.85924E-18
2.51783E-05 1.55712E-18
2.74153E-05 1.31361E-18
2.97475E-05 1.11571E-18
3.21749E-05 9.53683E-19
3.46974E-05 8.20072E-19
3.73152E-05 7.09132E-19
4.00281E-05 6.16388E-19
4.28362E-05 5.38342E-19
4.57395E-05 4.72256E-19
4.87380E-05 4.15977E-19
5.18317E-05 3.67806E-19
5.50205E-05 3.26387E-19
5.83045E-05 2.90626E-19
6.16838E-05 2.59629E-19
6.51582E-05 2.32662E-19
6.87277E-05 2.09112E-19
7.23925E-05 1.88471E-19
7.61524E-05 1.70467E-19
9.21439E-05 1.16414E-19
1.09658E-04 8.21727E-20
1.28695E-04 5.96452E-20
1.49255E-04 4.43278E-20
1.71338E-04 3.36262E-20
1.94942E-04 2.59653E-20
2.20070E-04 2.03659E-20
2.46720E-04 1.61970E-20
2.74892E-04 1.30413E-20
3.04586E-04 1.06176E-20
3.35803E-04 8.73118E-21
3.68542E-04 7.24535E-21
4.02802E-04 6.06224E-21
4.38585E-04 5.11079E-21
4.75889E-04 4.33868E-21
5.14715E-04 3.70683E-21
5.55063E-04 3.18577E-21
5.96931E-04 2.75299E-21
6.40321E-04 2.39114E-21
6.85233E-04 2.08674E-21
7.31665E-04 1.82917E-21
7.79618E-04 1.61007E-21
8.29092E-04 1.42274E-21
8.80086E-04 1.26181E-21
9.32601E-04 1.12295E-21
9.86636E-04 1.00263E-21
1.04219E-03 8.97952E-22
1.09927E-03 8.06544E-22
1.15786E-03 7.26425E-22
1.21797E-03 6.55975E-22
1.27961E-03 5.93830E-22
1.34276E-03 5.38843E-22
1.40743E-03 4.90049E-22
1.47362E-03 4.46629E-22
1.54133E-03 4.07891E-22
1.61056E-03 3.73242E-22
1.68131E-03 3.42175E-22
1.75357E-03 3.14256E-22
1.82735E-03 2.89111E-22
1.90265E-03 2.66415E-22
1.97947E-03 2.45889E-22
2.05780E-03 2.27289E-22
2.13765E-03 2.10402E-22
2.21902E-03 1.95043E-22
2.30190E-03 1.81050E-22
2.38630E-03 1.68279E-22
2.47222E-03 1.56604E-22
2.55965E-03 1.45916E-22
2.64859E-03 1.36116E-22
2.73905E-03 1.27118E-22
2.83103E-03 1.18843E-22
2.92452E-03 1.11224E-22
3.01952E-03 1.04199E-22
3.11604E-03 9.77142E-23
3.21407E-03 9.17202E-23
3.31362E-03 8.61733E-23
3.41468E-03 8.10344E-23
3.51725E-03 7.62680E-23
3.62133E-03 7.18424E-23
3.72692E-03 6.77287E-23
3.83403E-03 6.39013E-23
3.94265E-03 6.03365E-23
4.05278E-03 5.70131E-23
4.16442E-03 5.39120E-23
4.27757E-03 5.10155E-23
4.39223E-03 4.83078E-23
4.50840E-03 4.57743E-23
4.62608E-03 4.34019E-23
4.74527E-03 4.11786E-23
4.86597E-03 3.90932E-23
4.98817E-03 3.71357E-23
5.11188E-03 3.52968E-23
5.23711E-03 3.35681E-23
5.36383E-03 3.19419E-23
5.49207E-03 3.04109E-23
5.62181E-03 2.89686E-23
5.75306E-03 2.76089E-23
5.88581E-03 2.63263E-23
6.02007E-03 2.51156E-23
6.15583E-03 2.39721E-23
6.29310E-03 2.28914E-23
6.43187E-03 2.18695E-23
6.57214E-03 2.09025E-23
6.71392E-03 1.99870E-23
6.85720E-03 1.91198E-23
7.00198E-03 1.82978E-23
7.14827E-03 1.75184E-23
7.29605E-03 1.67789E-23
7.44534E-03 1.60768E-23
7.59612E-03 1.54101E-23
7.97965E-03 1.38842E-23
8.37255E-03 1.25373E-23
8.77480E-03 1.13450E-23
9.18641E-03 1.02867E-23
9.60736E-03 9.34499E-24
1.00376E-02 8.50495E-24
1.04773E-02 7.75386E-24
1.09262E-02 7.08083E-24
1.13844E-02 6.47645E-24
1.18520E-02 5.93262E-24
1.23288E-02 5.44233E-24
1.28150E-02 4.99947E-24
1.33104E-02 4.59875E-24
1.38150E-02 4.23553E-24
1.43290E-02 3.90576E-24
1.48521E-02 3.60588E-24
1.53845E-02 3.33278E-24
1.59262E-02 3.08368E-24
1.64770E-02 2.85617E-24
1.70371E-02 2.64809E-24
1.76063E-02 2.45753E-24
1.81848E-02 2.28280E-24
1.87724E-02 2.12238E-24
1.93692E-02 1.97493E-24
1.99751E-02 1.83925E-24
2.05901E-02 1.71426E-24
2.12143E-02 1.59899E-24
2.18476E-02 1.49259E-24
2.24900E-02 1.39427E-24
2.31415E-02 1.30332E-24
2.38021E-02 1.21913E-24
2.44717E-02 1.14111E-24
2.51504E-02 1.06876E-24
2.58382E-02 1.00160E-24
2.65349E-02 9.39211E-25
2.72407E-02 8.81207E-25
2.79555E-02 8.27239E-25
2.86793E-02 7.76988E-25
2.94120E-02 7.30165E-25
3.01537E-02 6.86506E-25
3.09043E-02 6.45768E-25
3.16639E-02 6.07731E-25
3.24324E-02 5.72194E-25
3.32098E-02 5.38971E-25
3.39961E-02 5.07893E-25
3.47912E-02 4.78804E-25
3.55952E-02 4.51562E-25
3.64081E-02 4.26034E-25
3.72297E-02 4.02101E-25
3.80602E-02 3.79651E-25
3.88995E-02 3.58581E-25
3.97476E-02 3.38796E-25
4.06044E-02 3.20209E-25
4.14700E-02 3.02740E-25
4.23443E-02 2.86314E-25
4.32273E-02 2.70861E-25
4.41190E-02 2.56317E-25
4.50194E-02 2.42624E-25
4.59284E-02 2.29727E-25
4.68461E-02 2.17573E-25
4.87074E-02 1.95313E-25
5.06030E-02 1.75503E-25
5.25328E-02 1.57849E-25
5.44967E-02 1.42095E-25
5.64946E-02 1.28019E-25
5.85262E-02 1.15427E-25
6.05914E-02 1.04149E-25
6.26901E-02 9.40375E-26
6.48222E-02 8.49626E-26
6.69873E-02 7.68100E-26
6.91854E-02 6.94793E-26
7.14163E-02 6.28817E-26
7.36799E-02 5.69392E-26
7.59760E-02 5.15824E-26
7.83043E-02 4.67500E-26
8.06647E-02 4.23878E-26
8.30571E-02 3.84472E-26
8.54812E-02 3.48854E-26
8.79369E-02 3.16640E-26
9.04240E-02 2.87490E-26
9.29422E-02 2.61097E-26
9.54915E-02 2.37189E-26
9.80716E-02 2.15523E-26
1.00682E-01 1.95879E-26
1.03323E-01 1.78061E-26
1.05995E-01 1.61895E-26
1.08696E-01 1.47221E-26
1.11427E-01 1.33897E-26
1.14188E-01 1.21795E-26
1.16978E-01 1.10801E-26
1.19797E-01 1.00810E-26
1.22645E-01 9.17290E-27
1.25522E-01 8.34726E-27
1.28428E-01 7.59646E-27
1.31361E-01 6.91361E-27
1.34323E-01 6.29246E-27
1.37313E-01 5.72734E-27
1.40330E-01 5.21313E-27
1.43375E-01 4.74520E-27
1.46447E-01 4.31935E-27
1.49545E-01 3.93174E-27
1.52671E-01 3.57894E-27
1.55823E-01 3.25779E-27
1.59001E-01 2.96544E-27
1.62205E-01 2.69931E-27
1.65435E-01 2.45703E-27
1.68690E-01 2.23647E-27
1.71970E-01 2.03569E-27
1.75276E-01 1.85291E-27
1.78606E-01 1.68652E-27
1.81961E-01 1.53507E-27
1.85340E-01 1.39721E-27
1.88743E-01 1.27173E-27
1.92169E-01 1.15753E-27
1.95619E-01 1.05360E-27
1.99092E-01 9.59018E-28
2.02589E-01 8.72959E-28
2.06107E-01 7.94658E-28
2.09649E-01 7.23423E-28
2.13212E-01 6.58620E-28
2.16797E-01 5.99676E-28
2.20404E-01 5.46066E-28
2.24032E-01 4.97311E-28
2.27680E-01 4.52976E-28
2.31350E-01 4.12665E-28
2.35040E-01 3.76015E-28
2.38751E-01 3.42697E-28
2.42481E-01 3.12411E-28
2.46231E-01 2.84882E-28
2.50000E-01 2.59863E-28
2.53788E-01 2.37125E-28
2.57595E-01 2.16461E-28
2.61421E-01 1.97684E-28
2.65264E-01 1.80620E-28
2.69126E-01 1.65115E-28
2.73005E-01 1.51026E-28
2.76901E-01 1.38223E-28
2.80814E-01 1.26588E-28
2.84744E-01 1.16014E-28
2.88691E-01 1.06404E-28
2.92653E-01 9.76678E-29
2.96632E-01 8.97255E-29
3.00625E-01 8.25035E-29
3.04634E-01 7.59349E-29
3.08658E-01 6.99592E-29
3.12697E-01 6.45211E-29
3.16749E-01 5.95706E-29
3.20816E-01 5.50622E-29
3.24896E-01 5.09546E-29
3.28990E-01 4.72103E-29
3.33097E-01 4.37953E-29
3.37216E-01 4.06787E-29
3.41348E-01 3.78325E-29
3.45492E-01 3.52314E-29
3.49647E-01 3.28525E-29
3.53814E-01 3.06747E-29
3.57992E-01 2.86794E-29
3.62181E-01 2.68494E-29
3.66381E-01 2.51692E-29
3.70590E-01 2.36248E-29
3.74810E-01 2.22036E-29
3.79039E-01 2.08941E-29
3.83277E-01 1.96860E-29
3.87524E-01 1.85699E-29
3.91780E-01 1.75373E-29
3.96044E-01 1.65807E-29
4.00316E-01 1.56930E-29
4.04596E-01 1.48681E-29
4.08882E-01 1.41004E-29
4.13176E-01 1.33847E-29
4.17476E-01 1.27165E-29
4.21783E-01 1.20916E-29
4.26095E-01 1.15063E-29
4.30413E-01 1.09573E-29
4.34737E-01 1.04415E-29
4.39065E-01 9.95614E-30
4.43398E-01 9.49874E-30
4.47736E-01 9.06709E-30
4.52077E-01 8.65916E-30
4.56422E-01 8.27314E-30
4.60770E-01 7.90736E-30
4.65122E-01 7.56034E-30
4.69476E-01 7.23074E-30
4.73832E-01 6.91733E-30
4.78190E-01 6.61901E-30
4.82550E-01 6.33477E-30
4.86912E-01 6.06371E-30
4.91274E-01 5.80499E-30
4.95637E-01 5.55787E-30
5.00000E-01 5.32166E-30
5.04363E-01 5.09572E-30
5.08726E-01 4.87950E-30
5.13088E-01 4.67245E-30
5.17450E-01 4.47410E-30
5.21810E-01 4.28401E-30
5.26168E-01 4.10177E-30
5.30524E-01 3.92700E-30
5.34878E-01 3.75934E-30
5.39230E-01 3.59848E-30
5.43578E-01 3.44411E-30
5.47923E-01 3.29594E-30
5.52264E-01 3.15372E-30
5.56602E-01 3.01719E-30
5.60935E-01 2.88613E-30
5.65263E-01 2.76031E-30
5.69587E-01 2.63952E-30
5.73905E-01 2.52357E-30
5.78217E-01 2.41227E-30
5.82524E-01 2.30545E-30
5.86824E-01 2.20293E-30
5.91118E-01 2.10455E-30
5.95404E-01 2.01016E-30
5.99684E-01 1.91961E-30
6.03956E-01 1.83275E-30
6.08220E-01 1.74946E-30
6.12476E-01 1.66960E-30
6.16723E-01 1.59304E-30
6.20961E-01 1.51966E-30
6.25190E-01 1.44935E-30
6.29410E-01 1.38198E-30
6.33619E-01 1.31746E-30
6.37819E-01 1.25567E-30
6.42008E-01 1.19652E-30
6.46186E-01 1.13990E-30
6.50353E-01 1.08572E-30
6.54508E-01 1.03389E-30
6.58652E-01 9.84311E-31
6.62784E-01 9.36904E-31
6.66903E-01 8.91584E-31
6.71010E-01 8.48270E-31
6.75104E-01 8.06883E-31
6.79184E-01 7.67347E-31
6.83251E-01 7.29590E-31
6.87303E-01 6.93539E-31
6.91342E-01 6.59128E-31
6.95366E-01 6.26289E-31
6.99375E-01 5.94959E-31
7.03368E-01 5.65075E-31
7.07347E-01 5.36579E-31
7.11309E-01 5.09413E-31
7.15256E-01 4.83520E-31
7.19186E-01 4.58848E-31
7.23099E-01 4.35345E-31
7.26995E-01 4.12960E-31
7.30874E-01 3.91647E-31
7.34736E-01 3.71357E-31
7.38579E-01 3.52048E-31
7.42405E-01 3.33676E-31
7.46212E-01 3.16200E-31
7.50000E-01 2.99580E-31
7.53769E-01 2.83778E-31
7.57519E-01 2.68757E-31
7.61249E-01 2.54482E-31
7.64960E-01 2.40919E-31
7.68650E-01 2.28036E-31
7.72320E-01 2.15801E-31
7.75968E-01 2.04184E-31
7.79596E-01 1.93157E-31
7.83203E-01 1.82692E-31
7.86788E-01 1.72762E-31
7.90351E-01 1.63343E-31
7.93893E-01 1.54409E-31
7.97411E-01 1.45939E-31
8.00908E-01 1.37909E-31
8.04381E-01 1.30298E-31
8.07831E-01 1.23086E-31
8.11257E-01 1.16254E-31
8.14660E-01 1.09782E-31
8.18039E-01 1.03653E-31
8.21394E-01 9.78509E-32
8.24724E-01 9.23583E-32
8.28030E-01 8.71599E-32
8.31310E-01 8.22412E-32
8.34565E-01 7.75878E-32
8.37795E-01 7.31865E-32
8.40999E-01 6.90243E-32
8.44177E-01 6.50889E-32
8.47329E-01 6.13688E-32
8.50455E-01 5.78529E-32
8.53553E-01 5.45304E-32
8.56625E-01 5.13915E-32
8.59670E-01 4.84263E-32
8.62687E-01 4.56259E-32
8.65677E-01 4.29815E-32
8.68639E-01 4.04849E-32
8.71572E-01 3.81282E-32
8.74478E-01 3.59039E-32
8.77355E-01 3.38049E-32
8.80203E-01 3.18245E-32
8.83022E-01 2.99563E-32
8.85812E-01 2.81941E-32
8.88573E-01 2.65322E-32
8.91304E-01 2.49652E-32
8.94005E-01 2.34878E-32
8.96677E-01 2.20950E-32
8.99318E-01 2.07823E-32
9.01928E-01 1.95451E-32
9.04508E-01 1.83793E-32
9.07058E-01 1.72808E-32
9.09576E-01 1.62459E-32
9.12063E-01 1.52710E-32
9.14519E-01 1.43527E-32
9.16943E-01 1.34879E-32
9.19335E-01 1.26734E-32
9.21696E-01 1.19065E-32
9.24024E-01 1.11843E-32
9.26320E-01 1.05044E-32
9.28584E-01 9.86424E-33
9.30815E-01 9.26163E-33
9.33013E-01 8.69434E-33
9.35178E-01 8.16035E-33
9.37310E-01 7.65771E-33
9.39409E-01 7.18462E-33
9.41474E-01 6.73934E-33
9.43505E-01 6.32024E-33
9.45503E-01 5.92580E-33
9.47467E-01 5.55454E-33
9.49397E-01 5.20514E-33
9.51293E-01 4.87630E-33
9.53154E-01 4.56679E-33
9.54981E-01 4.27550E-33
9.56773E-01 4.00132E-33
9.58530E-01 3.74328E-33
9.60252E-01 3.50039E-33
9.61940E-01 3.27177E-33
9.63592E-01 3.05658E-33
9.65209E-01 2.85403E-33
9.66790E-01 2.66337E-33
9.68336E-01 2.48389E-33
9.69846E-01 2.31495E-33
9.71321E-01 2.15592E-33
9.72759E-01 2.00623E-33
9.74162E-01 1.86533E-33
9.75528E-01 1.73270E-33
9.76858E-01 1.60788E-33
9.78152E-01 1.49041E-33
9.79410E-01 1.37988E-33
9.80631E-01 1.27588E-33
9.81815E-01 1.17805E-33
9.82963E-01 1.08604E-33
9.84074E-01 9.99533E-34
9.85148E-01 9.18226E-34
9.86185E-01 8.41837E-34
9.87185E-01 7.70101E-34
9.88148E-01 7.02776E-34
9.89074E-01 6.39628E-34
9.89962E-01 5.80450E-34
9.90814E-01 5.25036E-34
9.91627E-01 4.73206E-34
9.92404E-01 4.24792E-34
9.93143E-01 3.79630E-34
9.93844E-01 3.37572E-34
9.94508E-01 2.98487E-34
9.95134E-01 2.62244E-34
9.95722E-01 2.28732E-34
9.96273E-01 1.97842E-34
9.96786E-01 1.69475E-34
9.97261E-01 1.43546E-34
9.97698E-01 1.19971E-34
9.98097E-01 9.86826E-35
9.98459E-01 7.96080E-35
9.98782E-01 6.26950E-35
9.99067E-01 4.78907E-35
9.99315E-01 3.51472E-35
9.99524E-01 2.44296E-35
9.99695E-01 1.57039E-35
9.99829E-01 8.94317E-36
9.99924E-01 4.12894E-36
9.99981E-01 1.24688E-36
1.00000E+00 2.85596E-37
