 #
 # Subroutine ELSEPA. Elastic scattering of electrons and positrons
 #                    by neutral atoms and positive ions
 #
 # Projectile: positron
 # Kinetic energy = 3.50000E+06 eV = 1.28623E+05 a.u.
 #
 # WARNING: High-energy factorization with free-atom DF screening.
 #          Absorption, polarization and exchange corrections are
 #          switched off.
 #          Phase shifts are calculated for the bare nucleus.
 #          Scattering amplitudes are not evaluated.
 #
 # Element: Dy,  Z =  66,  atomic weight = 1.62500E+02 g/mol
 #
 # Nuclear model: Fermi distribution
 #                Average radius = 5.83895E-13 cm
 #                Skin thickness = 5.46000E-14 cm
 #
 # Number of electrons = 66
 #
 # Total elastic cross section = 7.22183E-18 cm**2 = 2.57896E-01 a0**2
 # 1st transport cross section = 3.22185E-22 cm**2 = 1.15054E-05 a0**2
 # 2nd transport cross section = 9.23782E-22 cm**2 = 3.29888E-05 a0**2
 #
 #
 # Differential cross section:                       MU=(1-COS(THETA))/2
 #
 #  THETA        MU          DCS          DCS        Sherman      error
 #  (deg)                 (cm**2/sr)   (a0**2/sr)    function
 #----------------------------------------------------------------------
0.00000E+00 1.26098E-12
7.61557E-13 1.26097E-12
1.18994E-12 1.26097E-12
1.71346E-12 1.26096E-12
2.33225E-12 1.26095E-12
3.04617E-12 1.26094E-12
3.85530E-12 1.26093E-12
4.75964E-12 1.26092E-12
5.75917E-12 1.26091E-12
6.85391E-12 1.26089E-12
8.04379E-12 1.26088E-12
9.32893E-12 1.26086E-12
1.07092E-11 1.26085E-12
1.21847E-11 1.26083E-12
1.37554E-11 1.26081E-12
1.54213E-11 1.26079E-12
1.71823E-11 1.26076E-12
1.90386E-11 1.26074E-12
2.09900E-11 1.26072E-12
2.30367E-11 1.26069E-12
2.51785E-11 1.26066E-12
2.74156E-11 1.26064E-12
2.97478E-11 1.26061E-12
3.21752E-11 1.26058E-12
3.46979E-11 1.26055E-12
3.73157E-11 1.26051E-12
4.00286E-11 1.26048E-12
4.28368E-11 1.26044E-12
4.57402E-11 1.26041E-12
4.87388E-11 1.26037E-12
5.18325E-11 1.26033E-12
5.50215E-11 1.26029E-12
5.83057E-11 1.26025E-12
6.16850E-11 1.26021E-12
6.51595E-11 1.26017E-12
6.87293E-11 1.26012E-12
7.23943E-11 1.26008E-12
7.61544E-11 1.26003E-12
1.18991E-10 1.25950E-12
1.71347E-10 1.25886E-12
2.33223E-10 1.25809E-12
3.04617E-10 1.25722E-12
3.85531E-10 1.25622E-12
4.75965E-10 1.25512E-12
5.75917E-10 1.25389E-12
6.85389E-10 1.25256E-12
8.04380E-10 1.25111E-12
9.32891E-10 1.24955E-12
1.07092E-09 1.24787E-12
1.21847E-09 1.24609E-12
1.37554E-09 1.24420E-12
1.54213E-09 1.24219E-12
1.71823E-09 1.24008E-12
1.90386E-09 1.23786E-12
2.09900E-09 1.23553E-12
2.30367E-09 1.23310E-12
2.51785E-09 1.23057E-12
2.74156E-09 1.22793E-12
2.97478E-09 1.22519E-12
3.21752E-09 1.22234E-12
3.46978E-09 1.21940E-12
3.73156E-09 1.21636E-12
4.00286E-09 1.21323E-12
4.28368E-09 1.20999E-12
4.57402E-09 1.20667E-12
4.87388E-09 1.20325E-12
5.18326E-09 1.19973E-12
5.50215E-09 1.19613E-12
5.83057E-09 1.19244E-12
6.16850E-09 1.18867E-12
6.51596E-09 1.18481E-12
6.87293E-09 1.18086E-12
7.23942E-09 1.17683E-12
7.61544E-09 1.17273E-12
1.18991E-08 1.12760E-12
1.71347E-08 1.07649E-12
2.33223E-08 1.02080E-12
3.04617E-08 9.62689E-13
3.85531E-08 9.03587E-13
4.75965E-08 8.44673E-13
5.75917E-08 7.87083E-13
6.85389E-08 7.32183E-13
8.04380E-08 6.80013E-13
9.32891E-08 6.30961E-13
1.07092E-07 5.85494E-13
1.21847E-07 5.43675E-13
1.37554E-07 5.05164E-13
1.54213E-07 4.69867E-13
1.71823E-07 4.37883E-13
1.90386E-07 4.08723E-13
2.09900E-07 3.82128E-13
2.30367E-07 3.57932E-13
2.51785E-07 3.35980E-13
2.74156E-07 3.15914E-13
2.97478E-07 2.97566E-13
3.21752E-07 2.80790E-13
3.46978E-07 2.65388E-13
3.73156E-07 2.51207E-13
4.00286E-07 2.38131E-13
4.28368E-07 2.26018E-13
4.57402E-07 2.14778E-13
4.87388E-07 2.04333E-13
5.18325E-07 1.94595E-13
5.50215E-07 1.85462E-13
5.83057E-07 1.76917E-13
6.16850E-07 1.68911E-13
6.51596E-07 1.61356E-13
6.87293E-07 1.54225E-13
7.23942E-07 1.47511E-13
7.61543E-07 1.41179E-13
1.18991E-06 9.28430E-14
1.71347E-06 6.20826E-14
2.33223E-06 4.36321E-14
3.04617E-06 3.10839E-14
3.85531E-06 2.27566E-14
4.75964E-06 1.70889E-14
5.75916E-06 1.30857E-14
6.85388E-06 1.01190E-14
8.04378E-06 7.95199E-15
9.32888E-06 6.33130E-15
1.07092E-05 5.08481E-15
1.21846E-05 4.11822E-15
1.37553E-05 3.36943E-15
1.54212E-05 2.78167E-15
1.71822E-05 2.31185E-15
1.90385E-05 1.93663E-15
2.09899E-05 1.63695E-15
2.30365E-05 1.39337E-15
2.51783E-05 1.19326E-15
2.74153E-05 1.02857E-15
2.97475E-05 8.92021E-16
3.21749E-05 7.77805E-16
3.46974E-05 6.81942E-16
3.73152E-05 6.00808E-16
4.00281E-05 5.31580E-16
4.28362E-05 4.72170E-16
4.57395E-05 4.21067E-16
4.87380E-05 3.76873E-16
5.18317E-05 3.38413E-16
5.50205E-05 3.04714E-16
5.83045E-05 2.75164E-16
6.16838E-05 2.49151E-16
6.51582E-05 2.26094E-16
6.87277E-05 2.05622E-16
7.23925E-05 1.87421E-16
7.61524E-05 1.71188E-16
9.21439E-05 1.21240E-16
1.09658E-04 8.81538E-17
1.28695E-04 6.55561E-17
1.49255E-04 4.96899E-17
1.71338E-04 3.83532E-17
1.94942E-04 3.00604E-17
2.20070E-04 2.39007E-17
2.46720E-04 1.92450E-17
2.74892E-04 1.56641E-17
3.04586E-04 1.28808E-17
3.35803E-04 1.06914E-17
3.68542E-04 8.94863E-18
4.02802E-04 7.54511E-18
4.38585E-04 6.40716E-18
4.75889E-04 5.47636E-18
5.14715E-04 4.70801E-18
5.55063E-04 4.06944E-18
5.96931E-04 3.53570E-18
6.40321E-04 3.08672E-18
6.85233E-04 2.70618E-18
7.31665E-04 2.38249E-18
7.79618E-04 2.10577E-18
8.29092E-04 1.86794E-18
8.80086E-04 1.66250E-18
9.32601E-04 1.48452E-18
9.86636E-04 1.32969E-18
1.04219E-03 1.19438E-18
1.09927E-03 1.07578E-18
1.15786E-03 9.71505E-19
1.21797E-03 8.79533E-19
1.27961E-03 7.98084E-19
1.34276E-03 7.25830E-19
1.40743E-03 6.61549E-19
1.47362E-03 6.04192E-19
1.54133E-03 5.52877E-19
1.61056E-03 5.06883E-19
1.68131E-03 4.65561E-19
1.75357E-03 4.28335E-19
1.82735E-03 3.94742E-19
1.90265E-03 3.64370E-19
1.97947E-03 3.36853E-19
2.05780E-03 3.11867E-19
2.13765E-03 2.89150E-19
2.21902E-03 2.68459E-19
2.30190E-03 2.49576E-19
2.38630E-03 2.32317E-19
2.47222E-03 2.16520E-19
2.55965E-03 2.02040E-19
2.64859E-03 1.88743E-19
2.73905E-03 1.76519E-19
2.83103E-03 1.65265E-19
2.92452E-03 1.54892E-19
3.01952E-03 1.45315E-19
3.11604E-03 1.36465E-19
3.21407E-03 1.28276E-19
3.31362E-03 1.20690E-19
3.41468E-03 1.13654E-19
3.51725E-03 1.07122E-19
3.62133E-03 1.01051E-19
3.72692E-03 9.54020E-20
3.83403E-03 9.01407E-20
3.94265E-03 8.52361E-20
4.05278E-03 8.06592E-20
4.16442E-03 7.63839E-20
4.27757E-03 7.23872E-20
4.39223E-03 6.86477E-20
4.50840E-03 6.51453E-20
4.62608E-03 6.18625E-20
4.74527E-03 5.87832E-20
4.86597E-03 5.58924E-20
4.98817E-03 5.31761E-20
5.11188E-03 5.06222E-20
5.23711E-03 4.82193E-20
5.36383E-03 4.59565E-20
5.49207E-03 4.38242E-20
5.62181E-03 4.18137E-20
5.75306E-03 3.99167E-20
5.88581E-03 3.81254E-20
6.02007E-03 3.64330E-20
6.15583E-03 3.48331E-20
6.29310E-03 3.33196E-20
6.43187E-03 3.18869E-20
6.57214E-03 3.05301E-20
6.71392E-03 2.92443E-20
6.85720E-03 2.80251E-20
7.00198E-03 2.68685E-20
7.14827E-03 2.57706E-20
7.29605E-03 2.47280E-20
7.44534E-03 2.37371E-20
7.59612E-03 2.27951E-20
7.97965E-03 2.06358E-20
8.37255E-03 1.87248E-20
8.77480E-03 1.70287E-20
9.18641E-03 1.55193E-20
9.60736E-03 1.41725E-20
1.00376E-02 1.29678E-20
1.04773E-02 1.18876E-20
1.09262E-02 1.09169E-20
1.13844E-02 1.00426E-20
1.18520E-02 9.25349E-21
1.23288E-02 8.53988E-21
1.28150E-02 7.89327E-21
1.33104E-02 7.30628E-21
1.38150E-02 6.77245E-21
1.43290E-02 6.28613E-21
1.48521E-02 5.84233E-21
1.53845E-02 5.43675E-21
1.59262E-02 5.06549E-21
1.64770E-02 4.72510E-21
1.70371E-02 4.41260E-21
1.76063E-02 4.12532E-21
1.81848E-02 3.86083E-21
1.87724E-02 3.61702E-21
1.93692E-02 3.39199E-21
1.99751E-02 3.18405E-21
2.05901E-02 2.99164E-21
2.12143E-02 2.81342E-21
2.18476E-02 2.64817E-21
2.24900E-02 2.49475E-21
2.31415E-02 2.35218E-21
2.38021E-02 2.21955E-21
2.44717E-02 2.09605E-21
2.51504E-02 1.98094E-21
2.58382E-02 1.87354E-21
2.65349E-02 1.77325E-21
2.72407E-02 1.67952E-21
2.79555E-02 1.59183E-21
2.86793E-02 1.50974E-21
2.94120E-02 1.43281E-21
3.01537E-02 1.36067E-21
3.09043E-02 1.29296E-21
3.16639E-02 1.22937E-21
3.24324E-02 1.16960E-21
3.32098E-02 1.11337E-21
3.39961E-02 1.06045E-21
3.47912E-02 1.01060E-21
3.55952E-02 9.63609E-22
3.64081E-02 9.19286E-22
3.72297E-02 8.77455E-22
3.80602E-02 8.37948E-22
3.88995E-02 8.00613E-22
3.97476E-02 7.65309E-22
4.06044E-02 7.31908E-22
4.14700E-02 7.00286E-22
4.23443E-02 6.70332E-22
4.32273E-02 6.41944E-22
4.41190E-02 6.15024E-22
4.50194E-02 5.89482E-22
4.59284E-02 5.65235E-22
4.68461E-02 5.42207E-22
4.87074E-02 4.99519E-22
5.06030E-02 4.60899E-22
5.25328E-02 4.25892E-22
5.44967E-02 3.94105E-22
5.64946E-02 3.65189E-22
5.85262E-02 3.38842E-22
6.05914E-02 3.14796E-22
6.26901E-02 2.92817E-22
6.48222E-02 2.72696E-22
6.69873E-02 2.54248E-22
6.91854E-02 2.37312E-22
7.14163E-02 2.21742E-22
7.36799E-02 2.07409E-22
7.59760E-02 1.94198E-22
7.83043E-02 1.82006E-22
8.06647E-02 1.70741E-22
8.30571E-02 1.60320E-22
8.54812E-02 1.50669E-22
8.79369E-02 1.41721E-22
9.04240E-02 1.33417E-22
9.29422E-02 1.25701E-22
9.54915E-02 1.18526E-22
9.80716E-02 1.11846E-22
1.00682E-01 1.05622E-22
1.03323E-01 9.98172E-23
1.05995E-01 9.43982E-23
1.08696E-01 8.93351E-23
1.11427E-01 8.46005E-23
1.14188E-01 8.01693E-23
1.16978E-01 7.60187E-23
1.19797E-01 7.21280E-23
1.22645E-01 6.84779E-23
1.25522E-01 6.50510E-23
1.28428E-01 6.18314E-23
1.31361E-01 5.88044E-23
1.34323E-01 5.59563E-23
1.37313E-01 5.32748E-23
1.40330E-01 5.07485E-23
1.43375E-01 4.83667E-23
1.46447E-01 4.61199E-23
1.49545E-01 4.39990E-23
1.52671E-01 4.19957E-23
1.55823E-01 4.01024E-23
1.59001E-01 3.83120E-23
1.62205E-01 3.66180E-23
1.65435E-01 3.50142E-23
1.68690E-01 3.34950E-23
1.71970E-01 3.20552E-23
1.75276E-01 3.06899E-23
1.78606E-01 2.93946E-23
1.81961E-01 2.81651E-23
1.85340E-01 2.69974E-23
1.88743E-01 2.58879E-23
1.92169E-01 2.48332E-23
1.95619E-01 2.38301E-23
1.99092E-01 2.28757E-23
2.02589E-01 2.19672E-23
2.06107E-01 2.11020E-23
2.09649E-01 2.02777E-23
2.13212E-01 1.94920E-23
2.16797E-01 1.87427E-23
2.20404E-01 1.80280E-23
2.24032E-01 1.73459E-23
2.27680E-01 1.66947E-23
2.31350E-01 1.60727E-23
2.35040E-01 1.54785E-23
2.38751E-01 1.49105E-23
2.42481E-01 1.43675E-23
2.46231E-01 1.38480E-23
2.50000E-01 1.33510E-23
2.53788E-01 1.28752E-23
2.57595E-01 1.24197E-23
2.61421E-01 1.19833E-23
2.65264E-01 1.15652E-23
2.69126E-01 1.11645E-23
2.73005E-01 1.07803E-23
2.76901E-01 1.04118E-23
2.80814E-01 1.00583E-23
2.84744E-01 9.71907E-24
2.88691E-01 9.39339E-24
2.92653E-01 9.08065E-24
2.96632E-01 8.78025E-24
3.00625E-01 8.49162E-24
3.04634E-01 8.21422E-24
3.08658E-01 7.94754E-24
3.12697E-01 7.69110E-24
3.16749E-01 7.44443E-24
3.20816E-01 7.20711E-24
3.24896E-01 6.97870E-24
3.28990E-01 6.75883E-24
3.33097E-01 6.54711E-24
3.37216E-01 6.34320E-24
3.41348E-01 6.14675E-24
3.45492E-01 5.95745E-24
3.49647E-01 5.77500E-24
3.53814E-01 5.59910E-24
3.57992E-01 5.42948E-24
3.62181E-01 5.26587E-24
3.66381E-01 5.10804E-24
3.70590E-01 4.95573E-24
3.74810E-01 4.80873E-24
3.79039E-01 4.66681E-24
3.83277E-01 4.52978E-24
3.87524E-01 4.39743E-24
3.91780E-01 4.26957E-24
3.96044E-01 4.14604E-24
4.00316E-01 4.02666E-24
4.04596E-01 3.91127E-24
4.08882E-01 3.79970E-24
4.13176E-01 3.69182E-24
4.17476E-01 3.58749E-24
4.21783E-01 3.48655E-24
4.26095E-01 3.38889E-24
4.30413E-01 3.29439E-24
4.34737E-01 3.20291E-24
4.39065E-01 3.11436E-24
4.43398E-01 3.02861E-24
4.47736E-01 2.94558E-24
4.52077E-01 2.86515E-24
4.56422E-01 2.78724E-24
4.60770E-01 2.71174E-24
4.65122E-01 2.63858E-24
4.69476E-01 2.56767E-24
4.73832E-01 2.49892E-24
4.78190E-01 2.43227E-24
4.82550E-01 2.36764E-24
4.86912E-01 2.30495E-24
4.91274E-01 2.24414E-24
4.95637E-01 2.18514E-24
5.00000E-01 2.12790E-24
5.04363E-01 2.07234E-24
5.08726E-01 2.01842E-24
5.13088E-01 1.96607E-24
5.17450E-01 1.91525E-24
5.21810E-01 1.86589E-24
5.26168E-01 1.81796E-24
5.30524E-01 1.77141E-24
5.34878E-01 1.72618E-24
5.39230E-01 1.68223E-24
5.43578E-01 1.63953E-24
5.47923E-01 1.59804E-24
5.52264E-01 1.55770E-24
5.56602E-01 1.51849E-24
5.60935E-01 1.48037E-24
5.65263E-01 1.44330E-24
5.69587E-01 1.40726E-24
5.73905E-01 1.37220E-24
5.78217E-01 1.33809E-24
5.82524E-01 1.30492E-24
5.86824E-01 1.27264E-24
5.91118E-01 1.24123E-24
5.95404E-01 1.21066E-24
5.99684E-01 1.18091E-24
6.03956E-01 1.15195E-24
6.08220E-01 1.12376E-24
6.12476E-01 1.09631E-24
6.16723E-01 1.06959E-24
6.20961E-01 1.04356E-24
6.25190E-01 1.01821E-24
6.29410E-01 9.93521E-25
6.33619E-01 9.69469E-25
6.37819E-01 9.46036E-25
6.42008E-01 9.23205E-25
6.46186E-01 9.00957E-25
6.50353E-01 8.79277E-25
6.54508E-01 8.58147E-25
6.58652E-01 8.37551E-25
6.62784E-01 8.17473E-25
6.66903E-01 7.97900E-25
6.71010E-01 7.78817E-25
6.75104E-01 7.60209E-25
6.79184E-01 7.42063E-25
6.83251E-01 7.24367E-25
6.87303E-01 7.07107E-25
6.91342E-01 6.90272E-25
6.95366E-01 6.73848E-25
6.99375E-01 6.57826E-25
7.03368E-01 6.42194E-25
7.07347E-01 6.26942E-25
7.11309E-01 6.12058E-25
7.15256E-01 5.97534E-25
7.19186E-01 5.83358E-25
7.23099E-01 5.69523E-25
7.26995E-01 5.56018E-25
7.30874E-01 5.42835E-25
7.34736E-01 5.29966E-25
7.38579E-01 5.17401E-25
7.42405E-01 5.05133E-25
7.46212E-01 4.93154E-25
7.50000E-01 4.81457E-25
7.53769E-01 4.70034E-25
7.57519E-01 4.58878E-25
7.61249E-01 4.47983E-25
7.64960E-01 4.37341E-25
7.68650E-01 4.26946E-25
7.72320E-01 4.16791E-25
7.75968E-01 4.06872E-25
7.79596E-01 3.97181E-25
7.83203E-01 3.87713E-25
7.86788E-01 3.78462E-25
7.90351E-01 3.69424E-25
7.93893E-01 3.60592E-25
7.97411E-01 3.51962E-25
8.00908E-01 3.43528E-25
8.04381E-01 3.35286E-25
8.07831E-01 3.27232E-25
8.11257E-01 3.19360E-25
8.14660E-01 3.11666E-25
8.18039E-01 3.04147E-25
8.21394E-01 2.96797E-25
8.24724E-01 2.89613E-25
8.28030E-01 2.82591E-25
8.31310E-01 2.75727E-25
8.34565E-01 2.69017E-25
8.37795E-01 2.62458E-25
8.40999E-01 2.56047E-25
8.44177E-01 2.49779E-25
8.47329E-01 2.43652E-25
8.50455E-01 2.37662E-25
8.53553E-01 2.31806E-25
8.56625E-01 2.26082E-25
8.59670E-01 2.20486E-25
8.62687E-01 2.15015E-25
8.65677E-01 2.09667E-25
8.68639E-01 2.04439E-25
8.71572E-01 1.99328E-25
8.74478E-01 1.94332E-25
8.77355E-01 1.89448E-25
8.80203E-01 1.84674E-25
8.83022E-01 1.80008E-25
8.85812E-01 1.75446E-25
8.88573E-01 1.70988E-25
8.91304E-01 1.66630E-25
8.94005E-01 1.62371E-25
8.96677E-01 1.58209E-25
8.99318E-01 1.54141E-25
9.01928E-01 1.50166E-25
9.04508E-01 1.46282E-25
9.07058E-01 1.42487E-25
9.09576E-01 1.38779E-25
9.12063E-01 1.35157E-25
9.14519E-01 1.31618E-25
9.16943E-01 1.28161E-25
9.19335E-01 1.24785E-25
9.21696E-01 1.21488E-25
9.24024E-01 1.18269E-25
9.26320E-01 1.15126E-25
9.28584E-01 1.12057E-25
9.30815E-01 1.09061E-25
9.33013E-01 1.06138E-25
9.35178E-01 1.03285E-25
9.37310E-01 1.00501E-25
9.39409E-01 9.77856E-26
9.41474E-01 9.51369E-26
9.43505E-01 9.25539E-26
9.45503E-01 9.00355E-26
9.47467E-01 8.75805E-26
9.49397E-01 8.51880E-26
9.51293E-01 8.28568E-26
9.53154E-01 8.05861E-26
9.54981E-01 7.83747E-26
9.56773E-01 7.62217E-26
9.58530E-01 7.41263E-26
9.60252E-01 7.20875E-26
9.61940E-01 7.01044E-26
9.63592E-01 6.81763E-26
9.65209E-01 6.63023E-26
9.66790E-01 6.44815E-26
9.68336E-01 6.27134E-26
9.69846E-01 6.09970E-26
9.71321E-01 5.93317E-26
9.72759E-01 5.77169E-26
9.74162E-01 5.61517E-26
9.75528E-01 5.46357E-26
9.76858E-01 5.31681E-26
9.78152E-01 5.17483E-26
9.79410E-01 5.03758E-26
9.80631E-01 4.90500E-26
9.81815E-01 4.77704E-26
9.82963E-01 4.65364E-26
9.84074E-01 4.53475E-26
9.85148E-01 4.42033E-26
9.86185E-01 4.31032E-26
9.87185E-01 4.20470E-26
9.88148E-01 4.10340E-26
9.89074E-01 4.00639E-26
9.89962E-01 3.91364E-26
9.90814E-01 3.82509E-26
9.91627E-01 3.74073E-26
9.92404E-01 3.66052E-26
9.93143E-01 3.58441E-26
9.93844E-01 3.51239E-26
9.94508E-01 3.44442E-26
9.95134E-01 3.38048E-26
9.95722E-01 3.32054E-26
9.96273E-01 3.26457E-26
9.96786E-01 3.21257E-26
9.97261E-01 3.16449E-26
9.97698E-01 3.12034E-26
9.98097E-01 3.08008E-26
9.98459E-01 3.04370E-26
9.98782E-01 3.01119E-26
9.99067E-01 2.98253E-26
9.99315E-01 2.95772E-26
9.99524E-01 2.93674E-26
9.99695E-01 2.91959E-26
9.99829E-01 2.90626E-26
9.99924E-01 2.89674E-26
9.99981E-01 2.89102E-26
1.00000E+00 2.88912E-26
