 #
 # Subroutine ELSEPA. Elastic scattering of electrons and positrons
 #                    by neutral atoms and positive ions
 #
 # Projectile: positron
 # Kinetic energy = 1.75000E+08 eV = 6.43113E+06 a.u.
 #
 # WARNING: High-energy factorization with free-atom DF screening.
 #          Absorption, polarization and exchange corrections are
 #          switched off.
 #          Phase shifts are calculated for the bare nucleus.
 #          Scattering amplitudes are not evaluated.
 #
 # Element: Dy,  Z =  66,  atomic weight = 1.62500E+02 g/mol
 #
 # Nuclear model: Fermi distribution
 #                Average radius = 5.83895E-13 cm
 #                Skin thickness = 5.46000E-14 cm
 #
 # Number of electrons = 66
 #
 # Total elastic cross section = 7.11890E-18 cm**2 = 2.54221E-01 a0**2
 # 1st transport cross section = 2.67025E-25 cm**2 = 9.53563E-09 a0**2
 # 2nd transport cross section = 7.98496E-25 cm**2 = 2.85148E-08 a0**2
 #
 #
 # Differential cross section:                       MU=(1-COS(THETA))/2
 #
 #  THETA        MU          DCS          DCS        Sherman      error
 #  (deg)                 (cm**2/sr)   (a0**2/sr)    function
 #----------------------------------------------------------------------
0.00000E+00 2.41442E-09
7.61557E-13 2.37989E-09
1.18994E-12 2.36085E-09
1.71346E-12 2.33792E-09
2.33225E-12 2.31130E-09
3.04617E-12 2.28122E-09
3.85530E-12 2.24792E-09
4.75964E-12 2.21167E-09
5.75917E-12 2.17274E-09
6.85391E-12 2.13143E-09
8.04379E-12 2.08819E-09
9.32893E-12 2.04315E-09
1.07092E-11 1.99636E-09
1.21847E-11 1.94840E-09
1.37554E-11 1.89981E-09
1.54213E-11 1.85022E-09
1.71823E-11 1.80015E-09
1.90386E-11 1.75040E-09
2.09900E-11 1.70032E-09
2.30367E-11 1.65023E-09
2.51785E-11 1.60131E-09
2.74156E-11 1.55257E-09
2.97478E-11 1.50413E-09
3.21752E-11 1.45748E-09
3.46979E-11 1.41138E-09
3.73157E-11 1.36593E-09
4.00286E-11 1.32234E-09
4.28368E-11 1.27971E-09
4.57402E-11 1.23792E-09
4.87388E-11 1.19794E-09
5.18325E-11 1.15919E-09
5.50215E-11 1.12137E-09
5.83057E-11 1.08520E-09
6.16850E-11 1.05041E-09
6.51595E-11 1.01658E-09
6.87293E-11 9.84181E-10
7.23943E-11 9.53224E-10
7.61544E-11 9.23195E-10
1.18991E-10 6.83007E-10
1.71347E-10 5.23695E-10
2.33223E-10 4.13924E-10
3.04617E-10 3.34344E-10
3.85531E-10 2.73989E-10
4.75965E-10 2.26710E-10
5.75917E-10 1.88854E-10
6.85389E-10 1.58228E-10
8.04380E-10 1.32258E-10
9.32891E-10 1.11297E-10
1.07092E-09 9.52307E-11
1.21847E-09 8.18467E-11
1.37554E-09 7.00426E-11
1.54213E-09 6.06977E-11
1.71823E-09 5.29609E-11
1.90386E-09 4.60335E-11
2.09900E-09 4.03996E-11
2.30367E-09 3.57137E-11
2.51785E-09 3.14445E-11
2.74156E-09 2.78959E-11
2.97478E-09 2.49219E-11
3.21752E-09 2.21698E-11
3.46978E-09 1.98390E-11
3.73156E-09 1.78542E-11
4.00286E-09 1.60300E-11
4.28368E-09 1.44459E-11
4.57402E-09 1.30790E-11
4.87388E-09 1.18312E-11
5.18326E-09 1.07261E-11
5.50215E-09 9.76195E-12
5.83057E-09 8.88705E-12
6.16850E-09 8.10087E-12
6.51596E-09 7.40838E-12
6.87293E-09 6.78249E-12
7.23942E-09 6.21428E-12
7.61544E-09 5.70953E-12
1.18991E-08 2.65250E-12
1.71347E-08 1.40579E-12
2.33223E-08 8.21393E-13
3.04617E-08 5.14721E-13
3.85531E-08 3.38881E-13
4.75965E-08 2.31677E-13
5.75917E-08 1.63489E-13
6.85389E-08 1.18498E-13
8.04380E-08 8.78407E-14
9.32891E-08 6.65469E-14
1.07092E-07 5.13348E-14
1.21847E-07 4.02095E-14
1.37554E-07 3.19542E-14
1.54213E-07 2.57200E-14
1.71823E-07 2.09388E-14
1.90386E-07 1.72217E-14
2.09900E-07 1.42914E-14
2.30367E-07 1.19604E-14
2.51785E-07 1.00869E-14
2.74156E-07 8.56693E-15
2.97478E-07 7.32294E-15
3.21752E-07 6.29578E-15
3.46978E-07 5.44272E-15
3.73156E-07 4.72942E-15
4.00286E-07 4.12923E-15
4.28368E-07 3.62122E-15
4.57402E-07 3.18855E-15
4.87388E-07 2.81858E-15
5.18325E-07 2.50070E-15
5.50215E-07 2.22635E-15
5.83057E-07 1.98855E-15
6.16850E-07 1.78149E-15
6.51596E-07 1.60067E-15
6.87293E-07 1.44219E-15
7.23942E-07 1.30282E-15
7.61543E-07 1.17987E-15
1.18991E-06 4.90929E-16
1.71347E-06 2.39126E-16
2.33223E-06 1.30003E-16
3.04617E-06 7.66249E-17
3.85531E-06 4.80442E-17
4.75964E-06 3.16312E-17
5.75916E-06 2.16649E-17
6.85388E-06 1.53314E-17
8.04378E-06 1.11514E-17
9.32888E-06 8.30315E-18
1.07092E-05 6.30846E-18
1.21846E-05 4.87804E-18
1.37553E-05 3.83080E-18
1.54212E-05 3.04995E-18
1.71822E-05 2.45817E-18
1.90385E-05 2.00222E-18
2.09899E-05 1.64875E-18
2.30365E-05 1.36972E-18
2.51783E-05 1.14699E-18
2.74153E-05 9.67496E-19
2.97475E-05 8.21651E-19
3.21749E-05 7.02255E-19
3.46974E-05 6.03815E-19
3.73152E-05 5.22087E-19
4.00281E-05 4.53771E-19
4.28362E-05 3.96289E-19
4.57395E-05 3.47619E-19
4.87380E-05 3.06176E-19
5.18317E-05 2.70706E-19
5.50205E-05 2.40210E-19
5.83045E-05 2.13882E-19
6.16838E-05 1.91063E-19
6.51582E-05 1.71211E-19
6.87277E-05 1.53876E-19
7.23925E-05 1.38683E-19
7.61524E-05 1.25480E-19
9.21439E-05 8.56894E-20
1.09658E-04 6.04846E-20
1.28695E-04 4.39032E-20
1.49255E-04 3.26291E-20
1.71338E-04 2.47525E-20
1.94942E-04 1.91138E-20
2.20070E-04 1.49924E-20
2.46720E-04 1.19238E-20
2.74892E-04 9.60092E-21
3.04586E-04 7.81682E-21
3.35803E-04 6.42813E-21
3.68542E-04 5.33431E-21
4.02802E-04 4.46331E-21
4.38585E-04 3.76282E-21
4.75889E-04 3.19435E-21
5.14715E-04 2.72912E-21
5.55063E-04 2.34546E-21
5.96931E-04 2.02678E-21
6.40321E-04 1.76034E-21
6.85233E-04 1.53618E-21
7.31665E-04 1.34651E-21
7.79618E-04 1.18516E-21
8.29092E-04 1.04719E-21
8.80086E-04 9.28659E-22
9.32601E-04 8.26376E-22
9.86636E-04 7.37744E-22
1.04219E-03 6.60637E-22
1.09927E-03 5.93305E-22
1.15786E-03 5.34298E-22
1.21797E-03 4.82413E-22
1.27961E-03 4.36644E-22
1.34276E-03 3.96148E-22
1.40743E-03 3.60212E-22
1.47362E-03 3.28236E-22
1.54133E-03 2.99708E-22
1.61056E-03 2.74192E-22
1.68131E-03 2.51315E-22
1.75357E-03 2.30756E-22
1.82735E-03 2.12241E-22
1.90265E-03 1.95531E-22
1.97947E-03 1.80419E-22
2.05780E-03 1.66725E-22
2.13765E-03 1.54294E-22
2.21902E-03 1.42989E-22
2.30190E-03 1.32689E-22
2.38630E-03 1.23290E-22
2.47222E-03 1.14699E-22
2.55965E-03 1.06834E-22
2.64859E-03 9.96240E-23
2.73905E-03 9.30039E-23
2.83103E-03 8.69172E-23
2.92452E-03 8.13135E-23
3.01952E-03 7.61475E-23
3.11604E-03 7.13792E-23
3.21407E-03 6.69725E-23
3.31362E-03 6.28952E-23
3.41468E-03 5.91182E-23
3.51725E-03 5.56157E-23
3.62133E-03 5.23641E-23
3.72692E-03 4.93423E-23
3.83403E-03 4.65312E-23
3.94265E-03 4.39135E-23
4.05278E-03 4.14736E-23
4.16442E-03 3.91973E-23
4.27757E-03 3.70716E-23
4.39223E-03 3.50850E-23
4.50840E-03 3.32266E-23
4.62608E-03 3.14867E-23
4.74527E-03 2.98565E-23
4.86597E-03 2.83279E-23
4.98817E-03 2.68934E-23
5.11188E-03 2.55461E-23
5.23711E-03 2.42800E-23
5.36383E-03 2.30891E-23
5.49207E-03 2.19684E-23
5.62181E-03 2.09128E-23
5.75306E-03 1.99181E-23
5.88581E-03 1.89800E-23
6.02007E-03 1.80948E-23
6.15583E-03 1.72589E-23
6.29310E-03 1.64692E-23
6.43187E-03 1.57227E-23
6.57214E-03 1.50166E-23
6.71392E-03 1.43483E-23
6.85720E-03 1.37155E-23
7.00198E-03 1.31159E-23
7.14827E-03 1.25476E-23
7.29605E-03 1.20085E-23
7.44534E-03 1.14970E-23
7.59612E-03 1.10114E-23
7.97965E-03 9.90077E-24
8.37255E-03 8.92142E-24
8.77480E-03 8.05542E-24
9.18641E-03 7.28763E-24
9.60736E-03 6.60521E-24
1.00376E-02 5.99722E-24
1.04773E-02 5.45430E-24
1.09262E-02 4.96845E-24
1.13844E-02 4.53274E-24
1.18520E-02 4.14125E-24
1.23288E-02 3.78881E-24
1.28150E-02 3.47095E-24
1.33104E-02 3.18377E-24
1.38150E-02 2.92390E-24
1.43290E-02 2.68834E-24
1.48521E-02 2.47450E-24
1.53845E-02 2.28010E-24
1.59262E-02 2.10311E-24
1.64770E-02 1.94175E-24
1.70371E-02 1.79445E-24
1.76063E-02 1.65982E-24
1.81848E-02 1.53662E-24
1.87724E-02 1.42375E-24
1.93692E-02 1.32022E-24
1.99751E-02 1.22516E-24
2.05901E-02 1.13778E-24
2.12143E-02 1.05738E-24
2.18476E-02 9.83339E-25
2.24900E-02 9.15081E-25
2.31415E-02 8.52100E-25
2.38021E-02 7.93938E-25
2.44717E-02 7.40179E-25
2.51504E-02 6.90451E-25
2.58382E-02 6.44414E-25
2.65349E-02 6.01762E-25
2.72407E-02 5.62217E-25
2.79555E-02 5.25527E-25
2.86793E-02 4.91462E-25
2.94120E-02 4.59813E-25
3.01537E-02 4.30390E-25
3.09043E-02 4.03019E-25
3.16639E-02 3.77542E-25
3.24324E-02 3.53813E-25
3.32098E-02 3.31701E-25
3.39961E-02 3.11083E-25
3.47912E-02 2.91849E-25
3.55952E-02 2.73897E-25
3.64081E-02 2.57133E-25
3.72297E-02 2.41470E-25
3.80602E-02 2.26830E-25
3.88995E-02 2.13139E-25
3.97476E-02 2.00331E-25
4.06044E-02 1.88343E-25
4.14700E-02 1.77118E-25
4.23443E-02 1.66605E-25
4.32273E-02 1.56752E-25
4.41190E-02 1.47517E-25
4.50194E-02 1.38857E-25
4.59284E-02 1.30733E-25
4.68461E-02 1.23109E-25
4.87074E-02 1.09234E-25
5.06030E-02 9.69932E-26
5.25328E-02 8.61818E-26
5.44967E-02 7.66226E-26
5.64946E-02 6.81619E-26
5.85262E-02 6.06667E-26
6.05914E-02 5.40208E-26
6.26901E-02 4.81232E-26
6.48222E-02 4.28859E-26
6.69873E-02 3.82315E-26
6.91854E-02 3.40926E-26
7.14163E-02 3.04099E-26
7.36799E-02 2.71314E-26
7.59760E-02 2.42112E-26
7.83043E-02 2.16091E-26
8.06647E-02 1.92894E-26
8.30571E-02 1.72208E-26
8.54812E-02 1.53754E-26
8.79369E-02 1.37287E-26
9.04240E-02 1.22590E-26
9.29422E-02 1.09470E-26
9.54915E-02 9.77543E-27
9.80716E-02 8.72922E-27
1.00682E-01 7.79483E-27
1.03323E-01 6.96023E-27
1.05995E-01 6.21471E-27
1.08696E-01 5.54876E-27
1.11427E-01 4.95387E-27
1.14188E-01 4.42247E-27
1.16978E-01 3.94781E-27
1.19797E-01 3.52386E-27
1.22645E-01 3.14524E-27
1.25522E-01 2.80713E-27
1.28428E-01 2.50523E-27
1.31361E-01 2.23572E-27
1.34323E-01 1.99515E-27
1.37313E-01 1.78045E-27
1.40330E-01 1.58888E-27
1.43375E-01 1.41797E-27
1.46447E-01 1.26554E-27
1.49545E-01 1.12961E-27
1.52671E-01 1.00843E-27
1.55823E-01 9.00409E-28
1.59001E-01 8.04152E-28
1.62205E-01 7.18393E-28
1.65435E-01 6.42004E-28
1.68690E-01 5.73975E-28
1.71970E-01 5.13404E-28
1.75276E-01 4.59482E-28
1.78606E-01 4.11488E-28
1.81961E-01 3.68777E-28
1.85340E-01 3.30769E-28
1.88743E-01 2.96952E-28
1.92169E-01 2.66862E-28
1.95619E-01 2.40090E-28
1.99092E-01 2.16268E-28
2.02589E-01 1.95069E-28
2.06107E-01 1.76200E-28
2.09649E-01 1.59400E-28
2.13212E-01 1.44438E-28
2.16797E-01 1.31106E-28
2.20404E-01 1.19222E-28
2.24032E-01 1.08620E-28
2.27680E-01 9.91547E-29
2.31350E-01 9.06975E-29
2.35040E-01 8.31329E-29
2.38751E-01 7.63588E-29
2.42481E-01 7.02849E-29
2.46231E-01 6.48307E-29
2.50000E-01 5.99252E-29
2.53788E-01 5.55053E-29
2.57595E-01 5.15156E-29
2.61421E-01 4.79066E-29
2.65264E-01 4.46349E-29
2.69126E-01 4.16622E-29
2.73005E-01 3.89545E-29
2.76901E-01 3.64820E-29
2.80814E-01 3.42184E-29
2.84744E-01 3.21407E-29
2.88691E-01 3.02283E-29
2.92653E-01 2.84634E-29
2.96632E-01 2.68302E-29
3.00625E-01 2.53150E-29
3.04634E-01 2.39057E-29
3.08658E-01 2.25914E-29
3.12697E-01 2.13630E-29
3.16749E-01 2.02122E-29
3.20816E-01 1.91318E-29
3.24896E-01 1.81155E-29
3.28990E-01 1.71577E-29
3.33097E-01 1.62536E-29
3.37216E-01 1.53988E-29
3.41348E-01 1.45896E-29
3.45492E-01 1.38225E-29
3.49647E-01 1.30948E-29
3.53814E-01 1.24036E-29
3.57992E-01 1.17468E-29
3.62181E-01 1.11221E-29
3.66381E-01 1.05278E-29
3.70590E-01 9.96205E-30
3.74810E-01 9.42345E-30
3.79039E-01 8.91059E-30
3.83277E-01 8.42219E-30
3.87524E-01 7.95709E-30
3.91780E-01 7.51423E-30
3.96044E-01 7.09260E-30
4.00316E-01 6.69129E-30
4.04596E-01 6.30941E-30
4.08882E-01 5.94614E-30
4.13176E-01 5.60072E-30
4.17476E-01 5.27241E-30
4.21783E-01 4.96049E-30
4.26095E-01 4.66431E-30
4.30413E-01 4.38320E-30
4.34737E-01 4.11655E-30
4.39065E-01 3.86377E-30
4.43398E-01 3.62427E-30
4.47736E-01 3.39749E-30
4.52077E-01 3.18289E-30
4.56422E-01 2.97995E-30
4.60770E-01 2.78816E-30
4.65122E-01 2.60703E-30
4.69476E-01 2.43608E-30
4.73832E-01 2.27486E-30
4.78190E-01 2.12290E-30
4.82550E-01 1.97979E-30
4.86912E-01 1.84510E-30
4.91274E-01 1.71843E-30
4.95637E-01 1.59938E-30
5.00000E-01 1.48758E-30
5.04363E-01 1.38267E-30
5.08726E-01 1.28429E-30
5.13088E-01 1.19211E-30
5.17450E-01 1.10580E-30
5.21810E-01 1.02504E-30
5.26168E-01 9.49541E-31
5.30524E-01 8.79012E-31
5.34878E-01 8.13176E-31
5.39230E-01 7.51769E-31
5.43578E-01 6.94538E-31
5.47923E-01 6.41242E-31
5.52264E-01 5.91650E-31
5.56602E-01 5.45542E-31
5.60935E-01 5.02708E-31
5.65263E-01 4.62949E-31
5.69587E-01 4.26075E-31
5.73905E-01 3.91906E-31
5.78217E-01 3.60270E-31
5.82524E-01 3.31005E-31
5.86824E-01 3.03958E-31
5.91118E-01 2.78982E-31
5.95404E-01 2.55941E-31
5.99684E-01 2.34703E-31
6.03956E-01 2.15146E-31
6.08220E-01 1.97154E-31
6.12476E-01 1.80617E-31
6.16723E-01 1.65434E-31
6.20961E-01 1.51508E-31
6.25190E-01 1.38746E-31
6.29410E-01 1.27065E-31
6.33619E-01 1.16384E-31
6.37819E-01 1.06628E-31
6.42008E-01 9.77261E-32
6.46186E-01 8.96134E-32
6.50353E-01 8.22282E-32
6.54508E-01 7.55130E-32
6.58652E-01 6.94144E-32
6.62784E-01 6.38822E-32
6.66903E-01 5.88702E-32
6.71010E-01 5.43349E-32
6.75104E-01 5.02363E-32
6.79184E-01 4.65369E-32
6.83251E-01 4.32022E-32
6.87303E-01 4.01999E-32
6.91342E-01 3.75005E-32
6.95366E-01 3.50764E-32
6.99375E-01 3.29022E-32
7.03368E-01 3.09545E-32
7.07347E-01 2.92117E-32
7.11309E-01 2.76539E-32
7.15256E-01 2.62629E-32
7.19186E-01 2.50219E-32
7.23099E-01 2.39155E-32
7.26995E-01 2.29295E-32
7.30874E-01 2.20511E-32
7.34736E-01 2.12685E-32
7.38579E-01 2.05710E-32
7.42405E-01 1.99488E-32
7.46212E-01 1.93929E-32
7.50000E-01 1.88955E-32
7.53769E-01 1.84490E-32
7.57519E-01 1.80470E-32
7.61249E-01 1.76836E-32
7.64960E-01 1.73533E-32
7.68650E-01 1.70513E-32
7.72320E-01 1.67734E-32
7.75968E-01 1.65158E-32
7.79596E-01 1.62750E-32
7.83203E-01 1.60480E-32
7.86788E-01 1.58321E-32
7.90351E-01 1.56250E-32
7.93893E-01 1.54247E-32
7.97411E-01 1.52294E-32
8.00908E-01 1.50374E-32
8.04381E-01 1.48476E-32
8.07831E-01 1.46588E-32
8.11257E-01 1.44700E-32
8.14660E-01 1.42805E-32
8.18039E-01 1.40895E-32
8.21394E-01 1.38967E-32
8.24724E-01 1.37016E-32
8.28030E-01 1.35039E-32
8.31310E-01 1.33034E-32
8.34565E-01 1.30999E-32
8.37795E-01 1.28935E-32
8.40999E-01 1.26841E-32
8.44177E-01 1.24718E-32
8.47329E-01 1.22566E-32
8.50455E-01 1.20387E-32
8.53553E-01 1.18183E-32
8.56625E-01 1.15955E-32
8.59670E-01 1.13707E-32
8.62687E-01 1.11439E-32
8.65677E-01 1.09155E-32
8.68639E-01 1.06857E-32
8.71572E-01 1.04548E-32
8.74478E-01 1.02230E-32
8.77355E-01 9.99061E-33
8.80203E-01 9.75790E-33
8.83022E-01 9.52512E-33
8.85812E-01 9.29255E-33
8.88573E-01 9.06041E-33
8.91304E-01 8.82897E-33
8.94005E-01 8.59847E-33
8.96677E-01 8.36913E-33
8.99318E-01 8.14118E-33
9.01928E-01 7.91484E-33
9.04508E-01 7.69029E-33
9.07058E-01 7.46774E-33
9.09576E-01 7.24736E-33
9.12063E-01 7.02933E-33
9.14519E-01 6.81379E-33
9.16943E-01 6.60091E-33
9.19335E-01 6.39083E-33
9.21696E-01 6.18365E-33
9.24024E-01 5.97952E-33
9.26320E-01 5.77853E-33
9.28584E-01 5.58078E-33
9.30815E-01 5.38636E-33
9.33013E-01 5.19535E-33
9.35178E-01 5.00782E-33
9.37310E-01 4.82383E-33
9.39409E-01 4.64343E-33
9.41474E-01 4.46667E-33
9.43505E-01 4.29359E-33
9.45503E-01 4.12421E-33
9.47467E-01 3.95858E-33
9.49397E-01 3.79669E-33
9.51293E-01 3.63858E-33
9.53154E-01 3.48423E-33
9.54981E-01 3.33366E-33
9.56773E-01 3.18686E-33
9.58530E-01 3.04382E-33
9.60252E-01 2.90454E-33
9.61940E-01 2.76899E-33
9.63592E-01 2.63716E-33
9.65209E-01 2.50903E-33
9.66790E-01 2.38456E-33
9.68336E-01 2.26374E-33
9.69846E-01 2.14654E-33
9.71321E-01 2.03291E-33
9.72759E-01 1.92283E-33
9.74162E-01 1.81626E-33
9.75528E-01 1.71317E-33
9.76858E-01 1.61352E-33
9.78152E-01 1.51725E-33
9.79410E-01 1.42435E-33
9.80631E-01 1.33476E-33
9.81815E-01 1.24845E-33
9.82963E-01 1.16537E-33
9.84074E-01 1.08549E-33
9.85148E-01 1.00876E-33
9.86185E-01 9.35149E-34
9.87185E-01 8.64607E-34
9.88148E-01 7.97095E-34
9.89074E-01 7.32581E-34
9.89962E-01 6.71017E-34
9.90814E-01 6.12377E-34
9.91627E-01 5.56616E-34
9.92404E-01 5.03699E-34
9.93143E-01 4.53594E-34
9.93844E-01 4.06270E-34
9.94508E-01 3.61691E-34
9.95134E-01 3.19829E-34
9.95722E-01 2.80653E-34
9.96273E-01 2.44137E-34
9.96786E-01 2.10260E-34
9.97261E-01 1.78990E-34
9.97698E-01 1.50306E-34
9.98097E-01 1.24188E-34
9.98459E-01 1.00619E-34
9.98782E-01 7.95770E-35
9.99067E-01 6.10469E-35
9.99315E-01 4.50178E-35
9.99524E-01 3.14739E-35
9.99695E-01 2.04071E-35
9.99829E-01 1.18100E-35
9.99924E-01 5.67349E-36
9.99981E-01 1.99229E-36
1.00000E+00 7.68237E-37
