 #
 # Subroutine ELSEPA. Elastic scattering of electrons and positrons
 #                    by neutral atoms and positive ions
 #
 # Projectile: positron
 # Kinetic energy = 1.25000E+07 eV = 4.59367E+05 a.u.
 #
 # WARNING: High-energy factorization with free-atom DF screening.
 #          Absorption, polarization and exchange corrections are
 #          switched off.
 #          Phase shifts are calculated for the bare nucleus.
 #          Scattering amplitudes are not evaluated.
 #
 # Element: Dy,  Z =  66,  atomic weight = 1.62500E+02 g/mol
 #
 # Nuclear model: Fermi distribution
 #                Average radius = 5.83895E-13 cm
 #                Skin thickness = 5.46000E-14 cm
 #
 # Number of electrons = 66
 #
 # Total elastic cross section = 7.12577E-18 cm**2 = 2.54466E-01 a0**2
 # 1st transport cross section = 3.74869E-23 cm**2 = 1.33868E-06 a0**2
 # 2nd transport cross section = 1.08672E-22 cm**2 = 3.88075E-06 a0**2
 #
 #
 # Differential cross section:                       MU=(1-COS(THETA))/2
 #
 #  THETA        MU          DCS          DCS        Sherman      error
 #  (deg)                 (cm**2/sr)   (a0**2/sr)    function
 #----------------------------------------------------------------------
0.00000E+00 1.32686E-11
7.61557E-13 1.32675E-11
1.18994E-12 1.32669E-11
1.71346E-12 1.32662E-11
2.33225E-12 1.32653E-11
3.04617E-12 1.32643E-11
3.85530E-12 1.32632E-11
4.75964E-12 1.32620E-11
5.75917E-12 1.32606E-11
6.85391E-12 1.32590E-11
8.04379E-12 1.32574E-11
9.32893E-12 1.32556E-11
1.07092E-11 1.32537E-11
1.21847E-11 1.32517E-11
1.37554E-11 1.32495E-11
1.54213E-11 1.32472E-11
1.71823E-11 1.32448E-11
1.90386E-11 1.32422E-11
2.09900E-11 1.32395E-11
2.30367E-11 1.32367E-11
2.51785E-11 1.32337E-11
2.74156E-11 1.32306E-11
2.97478E-11 1.32274E-11
3.21752E-11 1.32241E-11
3.46979E-11 1.32206E-11
3.73157E-11 1.32170E-11
4.00286E-11 1.32133E-11
4.28368E-11 1.32094E-11
4.57402E-11 1.32054E-11
4.87388E-11 1.32013E-11
5.18325E-11 1.31971E-11
5.50215E-11 1.31927E-11
5.83057E-11 1.31882E-11
6.16850E-11 1.31836E-11
6.51595E-11 1.31788E-11
6.87293E-11 1.31739E-11
7.23943E-11 1.31689E-11
7.61544E-11 1.31638E-11
1.18991E-10 1.31055E-11
1.71347E-10 1.30349E-11
2.33223E-10 1.29523E-11
3.04617E-10 1.28581E-11
3.85531E-10 1.27527E-11
4.75965E-10 1.26366E-11
5.75917E-10 1.25103E-11
6.85389E-10 1.23745E-11
8.04380E-10 1.22297E-11
9.32891E-10 1.20765E-11
1.07092E-09 1.19155E-11
1.21847E-09 1.17475E-11
1.37554E-09 1.15732E-11
1.54213E-09 1.13941E-11
1.71823E-09 1.12092E-11
1.90386E-09 1.10190E-11
2.09900E-09 1.08241E-11
2.30367E-09 1.06287E-11
2.51785E-09 1.04301E-11
2.74156E-09 1.02285E-11
2.97478E-09 1.00245E-11
3.21752E-09 9.82169E-12
3.46978E-09 9.61895E-12
3.73156E-09 9.41518E-12
4.00286E-09 9.21080E-12
4.28368E-09 9.00865E-12
4.57402E-09 8.80953E-12
4.87388E-09 8.61091E-12
5.18326E-09 8.41312E-12
5.50215E-09 8.21777E-12
5.83057E-09 8.02802E-12
6.16850E-09 7.83987E-12
6.51596E-09 7.65355E-12
6.87293E-09 7.46936E-12
7.23942E-09 7.29274E-12
7.61544E-09 7.11843E-12
1.18991E-08 5.57932E-12
1.71347E-08 4.41843E-12
2.33223E-08 3.56400E-12
3.04617E-08 2.93134E-12
3.85531E-08 2.45289E-12
4.75965E-08 2.08040E-12
5.75917E-08 1.78249E-12
6.85389E-08 1.53813E-12
8.04380E-08 1.33480E-12
9.32891E-08 1.16316E-12
1.07092E-07 1.01702E-12
1.21847E-07 8.92174E-13
1.37554E-07 7.83586E-13
1.54213E-07 6.84630E-13
1.71823E-07 6.04074E-13
1.90386E-07 5.37846E-13
2.09900E-07 4.82893E-13
2.30367E-07 4.28742E-13
2.51785E-07 3.82643E-13
2.74156E-07 3.43851E-13
2.97478E-07 3.10970E-13
3.21752E-07 2.80256E-13
3.46978E-07 2.52856E-13
3.73156E-07 2.29344E-13
4.00286E-07 2.09052E-13
4.28368E-07 1.90558E-13
4.57402E-07 1.73501E-13
4.87388E-07 1.58629E-13
5.18325E-07 1.45604E-13
5.50215E-07 1.33892E-13
5.83057E-07 1.22794E-13
6.16850E-07 1.12993E-13
6.51596E-07 1.04305E-13
6.87293E-07 9.65686E-14
7.23942E-07 8.90832E-14
7.61543E-07 8.24027E-14
1.18991E-06 4.05453E-14
1.71347E-06 2.18867E-14
2.33223E-06 1.28237E-14
3.04617E-06 8.05604E-15
3.85531E-06 5.34389E-15
4.75964E-06 3.69845E-15
5.75916E-06 2.64707E-15
6.85388E-06 1.94290E-15
8.04378E-06 1.45663E-15
9.32888E-06 1.11245E-15
1.07092E-05 8.63591E-16
1.21846E-05 6.80150E-16
1.37553E-05 5.42489E-16
1.54212E-05 4.37750E-16
1.71822E-05 3.57347E-16
1.90385E-05 2.94434E-16
2.09899E-05 2.44942E-16
2.30365E-05 2.05519E-16
2.51783E-05 1.73584E-16
2.74153E-05 1.47655E-16
2.97475E-05 1.26367E-16
3.21749E-05 1.08780E-16
3.46974E-05 9.41888E-17
3.73152E-05 8.19426E-17
4.00281E-05 7.16540E-17
4.28362E-05 6.29282E-17
4.57395E-05 5.54917E-17
4.87380E-05 4.91269E-17
5.18317E-05 4.36353E-17
5.50205E-05 3.88950E-17
5.83045E-05 3.47761E-17
6.16838E-05 3.11890E-17
6.51582E-05 2.80548E-17
6.87277E-05 2.53018E-17
7.23925E-05 2.28815E-17
7.61524E-05 2.07413E-17
9.21439E-05 1.43183E-17
1.09658E-04 1.01940E-17
1.28695E-04 7.45159E-18
1.49255E-04 5.57002E-18
1.71338E-04 4.24568E-18
1.94942E-04 3.29188E-18
2.20070E-04 2.59106E-18
2.46720E-04 2.06700E-18
2.74892E-04 1.66883E-18
3.04586E-04 1.36198E-18
3.35803E-04 1.12246E-18
3.68542E-04 9.33316E-19
4.02802E-04 7.82344E-19
4.38585E-04 6.60676E-19
4.75889E-04 5.61744E-19
5.14715E-04 4.80635E-19
5.55063E-04 4.13636E-19
5.96931E-04 3.57899E-19
6.40321E-04 3.11230E-19
6.85233E-04 2.71915E-19
7.31665E-04 2.38606E-19
7.79618E-04 2.10237E-19
8.29092E-04 1.85953E-19
8.80086E-04 1.65069E-19
9.32601E-04 1.47031E-19
9.86636E-04 1.31386E-19
1.04219E-03 1.17762E-19
1.09927E-03 1.05855E-19
1.15786E-03 9.54122E-20
1.21797E-03 8.62226E-20
1.27961E-03 7.81101E-20
1.34276E-03 7.09271E-20
1.40743E-03 6.45486E-20
1.47362E-03 5.88693E-20
1.54133E-03 5.37992E-20
1.61056E-03 4.92617E-20
1.68131E-03 4.51912E-20
1.75357E-03 4.15312E-20
1.82735E-03 3.82331E-20
1.90265E-03 3.52549E-20
1.97947E-03 3.25601E-20
2.05780E-03 3.01170E-20
2.13765E-03 2.78980E-20
2.21902E-03 2.58789E-20
2.30190E-03 2.40386E-20
2.38630E-03 2.23583E-20
2.47222E-03 2.08218E-20
2.55965E-03 1.94145E-20
2.64859E-03 1.81237E-20
2.73905E-03 1.69379E-20
2.83103E-03 1.58472E-20
2.92452E-03 1.48425E-20
3.01952E-03 1.39158E-20
3.11604E-03 1.30600E-20
3.21407E-03 1.22688E-20
3.31362E-03 1.15363E-20
3.41468E-03 1.08574E-20
3.51725E-03 1.02275E-20
3.62133E-03 9.64242E-21
3.72692E-03 9.09841E-21
3.83403E-03 8.59205E-21
3.94265E-03 8.12026E-21
4.05278E-03 7.68027E-21
4.16442E-03 7.26953E-21
4.27757E-03 6.88576E-21
4.39223E-03 6.52686E-21
4.50840E-03 6.19092E-21
4.62608E-03 5.87621E-21
4.74527E-03 5.58115E-21
4.86597E-03 5.30428E-21
4.98817E-03 5.04428E-21
5.11188E-03 4.79994E-21
5.23711E-03 4.57013E-21
5.36383E-03 4.35384E-21
5.49207E-03 4.15013E-21
5.62181E-03 3.95813E-21
5.75306E-03 3.77705E-21
5.88581E-03 3.60615E-21
6.02007E-03 3.44475E-21
6.15583E-03 3.29223E-21
6.29310E-03 3.14801E-21
6.43187E-03 3.01156E-21
6.57214E-03 2.88237E-21
6.71392E-03 2.76000E-21
6.85720E-03 2.64402E-21
7.00198E-03 2.53403E-21
7.14827E-03 2.42967E-21
7.29605E-03 2.33059E-21
7.44534E-03 2.23648E-21
7.59612E-03 2.14704E-21
7.97965E-03 1.94214E-21
8.37255E-03 1.76097E-21
8.77480E-03 1.60031E-21
9.18641E-03 1.45745E-21
9.60736E-03 1.33009E-21
1.00376E-02 1.21625E-21
1.04773E-02 1.11426E-21
1.09262E-02 1.02266E-21
1.13844E-02 9.40226E-22
1.18520E-02 8.65873E-22
1.23288E-02 7.98676E-22
1.28150E-02 7.37828E-22
1.33104E-02 6.82623E-22
1.38150E-02 6.32447E-22
1.43290E-02 5.86763E-22
1.48521E-02 5.45099E-22
1.53845E-02 5.07040E-22
1.59262E-02 4.72219E-22
1.64770E-02 4.40313E-22
1.70371E-02 4.11034E-22
1.76063E-02 3.84128E-22
1.81848E-02 3.59370E-22
1.87724E-02 3.36558E-22
1.93692E-02 3.15512E-22
1.99751E-02 2.96071E-22
2.05901E-02 2.78091E-22
2.12143E-02 2.61443E-22
2.18476E-02 2.46010E-22
2.24900E-02 2.31690E-22
2.31415E-02 2.18386E-22
2.38021E-02 2.06015E-22
2.44717E-02 1.94498E-22
2.51504E-02 1.83767E-22
2.58382E-02 1.73759E-22
2.65349E-02 1.64417E-22
2.72407E-02 1.55687E-22
2.79555E-02 1.47523E-22
2.86793E-02 1.39881E-22
2.94120E-02 1.32722E-22
3.01537E-02 1.26011E-22
3.09043E-02 1.19714E-22
3.16639E-02 1.13801E-22
3.24324E-02 1.08245E-22
3.32098E-02 1.03020E-22
3.39961E-02 9.81023E-23
3.47912E-02 9.34715E-23
3.55952E-02 8.91075E-23
3.64081E-02 8.49922E-23
3.72297E-02 8.11088E-23
3.80602E-02 7.74421E-23
3.88995E-02 7.39777E-23
3.97476E-02 7.07025E-23
4.06044E-02 6.76042E-23
4.14700E-02 6.46716E-23
4.23443E-02 6.18943E-23
4.32273E-02 5.92626E-23
4.41190E-02 5.67675E-23
4.50194E-02 5.44005E-23
4.59284E-02 5.21540E-23
4.68461E-02 5.00206E-23
4.87074E-02 4.60672E-23
5.06030E-02 4.24915E-23
5.25328E-02 3.92515E-23
5.44967E-02 3.63103E-23
5.64946E-02 3.36356E-23
5.85262E-02 3.11992E-23
6.05914E-02 2.89762E-23
6.26901E-02 2.69448E-23
6.48222E-02 2.50857E-23
6.69873E-02 2.33816E-23
6.91854E-02 2.18176E-23
7.14163E-02 2.03801E-23
7.36799E-02 1.90571E-23
7.59760E-02 1.78380E-23
7.83043E-02 1.67131E-23
8.06647E-02 1.56740E-23
8.30571E-02 1.47130E-23
8.54812E-02 1.38232E-23
8.79369E-02 1.29985E-23
9.04240E-02 1.22332E-23
9.29422E-02 1.15224E-23
9.54915E-02 1.08614E-23
9.80716E-02 1.02462E-23
1.00682E-01 9.67317E-24
1.03323E-01 9.13880E-24
1.05995E-01 8.64006E-24
1.08696E-01 8.17417E-24
1.11427E-01 7.73861E-24
1.14188E-01 7.33104E-24
1.16978E-01 6.94937E-24
1.19797E-01 6.59167E-24
1.22645E-01 6.25616E-24
1.25522E-01 5.94124E-24
1.28428E-01 5.64543E-24
1.31361E-01 5.36737E-24
1.34323E-01 5.10580E-24
1.37313E-01 4.85959E-24
1.40330E-01 4.62767E-24
1.43375E-01 4.40908E-24
1.46447E-01 4.20290E-24
1.49545E-01 4.00829E-24
1.52671E-01 3.82451E-24
1.55823E-01 3.65086E-24
1.59001E-01 3.48668E-24
1.62205E-01 3.33137E-24
1.65435E-01 3.18437E-24
1.68690E-01 3.04515E-24
1.71970E-01 2.91323E-24
1.75276E-01 2.78817E-24
1.78606E-01 2.66954E-24
1.81961E-01 2.55696E-24
1.85340E-01 2.45007E-24
1.88743E-01 2.34853E-24
1.92169E-01 2.25203E-24
1.95619E-01 2.16027E-24
1.99092E-01 2.07298E-24
2.02589E-01 1.98990E-24
2.06107E-01 1.91081E-24
2.09649E-01 1.83547E-24
2.13212E-01 1.76367E-24
2.16797E-01 1.69522E-24
2.20404E-01 1.62994E-24
2.24032E-01 1.56766E-24
2.27680E-01 1.50821E-24
2.31350E-01 1.45144E-24
2.35040E-01 1.39722E-24
2.38751E-01 1.34541E-24
2.42481E-01 1.29588E-24
2.46231E-01 1.24851E-24
2.50000E-01 1.20320E-24
2.53788E-01 1.15984E-24
2.57595E-01 1.11833E-24
2.61421E-01 1.07858E-24
2.65264E-01 1.04051E-24
2.69126E-01 1.00402E-24
2.73005E-01 9.69051E-25
2.76901E-01 9.35519E-25
2.80814E-01 9.03356E-25
2.84744E-01 8.72498E-25
2.88691E-01 8.42883E-25
2.92653E-01 8.14452E-25
2.96632E-01 7.87150E-25
3.00625E-01 7.60925E-25
3.04634E-01 7.35727E-25
3.08658E-01 7.11509E-25
3.12697E-01 6.88227E-25
3.16749E-01 6.65838E-25
3.20816E-01 6.44302E-25
3.24896E-01 6.23582E-25
3.28990E-01 6.03641E-25
3.33097E-01 5.84446E-25
3.37216E-01 5.65963E-25
3.41348E-01 5.48162E-25
3.45492E-01 5.31013E-25
3.49647E-01 5.14489E-25
3.53814E-01 4.98563E-25
3.57992E-01 4.83210E-25
3.62181E-01 4.68406E-25
3.66381E-01 4.54128E-25
3.70590E-01 4.40354E-25
3.74810E-01 4.27064E-25
3.79039E-01 4.14237E-25
3.83277E-01 4.01855E-25
3.87524E-01 3.89900E-25
3.91780E-01 3.78355E-25
3.96044E-01 3.67203E-25
4.00316E-01 3.56429E-25
4.04596E-01 3.46018E-25
4.08882E-01 3.35956E-25
4.13176E-01 3.26229E-25
4.17476E-01 3.16824E-25
4.21783E-01 3.07729E-25
4.26095E-01 2.98932E-25
4.30413E-01 2.90421E-25
4.34737E-01 2.82186E-25
4.39065E-01 2.74217E-25
4.43398E-01 2.66503E-25
4.47736E-01 2.59035E-25
4.52077E-01 2.51804E-25
4.56422E-01 2.44801E-25
4.60770E-01 2.38017E-25
4.65122E-01 2.31446E-25
4.69476E-01 2.25078E-25
4.73832E-01 2.18908E-25
4.78190E-01 2.12927E-25
4.82550E-01 2.07129E-25
4.86912E-01 2.01508E-25
4.91274E-01 1.96057E-25
4.95637E-01 1.90770E-25
5.00000E-01 1.85642E-25
5.04363E-01 1.80667E-25
5.08726E-01 1.75840E-25
5.13088E-01 1.71155E-25
5.17450E-01 1.66608E-25
5.21810E-01 1.62195E-25
5.26168E-01 1.57910E-25
5.30524E-01 1.53749E-25
5.34878E-01 1.49709E-25
5.39230E-01 1.45785E-25
5.43578E-01 1.41973E-25
5.47923E-01 1.38270E-25
5.52264E-01 1.34672E-25
5.56602E-01 1.31176E-25
5.60935E-01 1.27777E-25
5.65263E-01 1.24474E-25
5.69587E-01 1.21263E-25
5.73905E-01 1.18142E-25
5.78217E-01 1.15106E-25
5.82524E-01 1.12154E-25
5.86824E-01 1.09283E-25
5.91118E-01 1.06491E-25
5.95404E-01 1.03774E-25
5.99684E-01 1.01131E-25
6.03956E-01 9.85588E-26
6.08220E-01 9.60559E-26
6.12476E-01 9.36200E-26
6.16723E-01 9.12491E-26
6.20961E-01 8.89410E-26
6.25190E-01 8.66940E-26
6.29410E-01 8.45062E-26
6.33619E-01 8.23758E-26
6.37819E-01 8.03010E-26
6.42008E-01 7.82803E-26
6.46186E-01 7.63120E-26
6.50353E-01 7.43946E-26
6.54508E-01 7.25266E-26
6.58652E-01 7.07066E-26
6.62784E-01 6.89331E-26
6.66903E-01 6.72047E-26
6.71010E-01 6.55203E-26
6.75104E-01 6.38785E-26
6.79184E-01 6.22782E-26
6.83251E-01 6.07180E-26
6.87303E-01 5.91970E-26
6.91342E-01 5.77139E-26
6.95366E-01 5.62678E-26
6.99375E-01 5.48575E-26
7.03368E-01 5.34821E-26
7.07347E-01 5.21407E-26
7.11309E-01 5.08322E-26
7.15256E-01 4.95558E-26
7.19186E-01 4.83106E-26
7.23099E-01 4.70957E-26
7.26995E-01 4.59103E-26
7.30874E-01 4.47537E-26
7.34736E-01 4.36250E-26
7.38579E-01 4.25235E-26
7.42405E-01 4.14484E-26
7.46212E-01 4.03992E-26
7.50000E-01 3.93750E-26
7.53769E-01 3.83752E-26
7.57519E-01 3.73991E-26
7.61249E-01 3.64463E-26
7.64960E-01 3.55160E-26
7.68650E-01 3.46076E-26
7.72320E-01 3.37207E-26
7.75968E-01 3.28546E-26
7.79596E-01 3.20088E-26
7.83203E-01 3.11828E-26
7.86788E-01 3.03761E-26
7.90351E-01 2.95882E-26
7.93893E-01 2.88187E-26
7.97411E-01 2.80670E-26
8.00908E-01 2.73327E-26
8.04381E-01 2.66154E-26
8.07831E-01 2.59147E-26
8.11257E-01 2.52302E-26
8.14660E-01 2.45615E-26
8.18039E-01 2.39081E-26
8.21394E-01 2.32697E-26
8.24724E-01 2.26460E-26
8.28030E-01 2.20366E-26
8.31310E-01 2.14412E-26
8.34565E-01 2.08593E-26
8.37795E-01 2.02908E-26
8.40999E-01 1.97353E-26
8.44177E-01 1.91924E-26
8.47329E-01 1.86619E-26
8.50455E-01 1.81435E-26
8.53553E-01 1.76369E-26
8.56625E-01 1.71419E-26
8.59670E-01 1.66582E-26
8.62687E-01 1.61854E-26
8.65677E-01 1.57235E-26
8.68639E-01 1.52721E-26
8.71572E-01 1.48310E-26
8.74478E-01 1.43999E-26
8.77355E-01 1.39787E-26
8.80203E-01 1.35671E-26
8.83022E-01 1.31649E-26
8.85812E-01 1.27720E-26
8.88573E-01 1.23880E-26
8.91304E-01 1.20129E-26
8.94005E-01 1.16464E-26
8.96677E-01 1.12883E-26
8.99318E-01 1.09385E-26
9.01928E-01 1.05968E-26
9.04508E-01 1.02631E-26
9.07058E-01 9.93707E-27
9.09576E-01 9.61866E-27
9.12063E-01 9.30771E-27
9.14519E-01 9.00405E-27
9.16943E-01 8.70755E-27
9.19335E-01 8.41805E-27
9.21696E-01 8.13543E-27
9.24024E-01 7.85954E-27
9.26320E-01 7.59025E-27
9.28584E-01 7.32745E-27
9.30815E-01 7.07100E-27
9.33013E-01 6.82079E-27
9.35178E-01 6.57669E-27
9.37310E-01 6.33860E-27
9.39409E-01 6.10640E-27
9.41474E-01 5.87999E-27
9.43505E-01 5.65927E-27
9.45503E-01 5.44413E-27
9.47467E-01 5.23447E-27
9.49397E-01 5.03020E-27
9.51293E-01 4.83123E-27
9.53154E-01 4.63747E-27
9.54981E-01 4.44883E-27
9.56773E-01 4.26522E-27
9.58530E-01 4.08656E-27
9.60252E-01 3.91278E-27
9.61940E-01 3.74380E-27
9.63592E-01 3.57953E-27
9.65209E-01 3.41992E-27
9.66790E-01 3.26488E-27
9.68336E-01 3.11436E-27
9.69846E-01 2.96828E-27
9.71321E-01 2.82658E-27
9.72759E-01 2.68920E-27
9.74162E-01 2.55608E-27
9.75528E-01 2.42716E-27
9.76858E-01 2.30239E-27
9.78152E-01 2.18172E-27
9.79410E-01 2.06508E-27
9.80631E-01 1.95243E-27
9.81815E-01 1.84373E-27
9.82963E-01 1.73892E-27
9.84074E-01 1.63796E-27
9.85148E-01 1.54082E-27
9.86185E-01 1.44744E-27
9.87185E-01 1.35778E-27
9.88148E-01 1.27182E-27
9.89074E-01 1.18951E-27
9.89962E-01 1.11082E-27
9.90814E-01 1.03572E-27
9.91627E-01 9.64168E-28
9.92404E-01 8.96142E-28
9.93143E-01 8.31612E-28
9.93844E-01 7.70550E-28
9.94508E-01 7.12932E-28
9.95134E-01 6.58733E-28
9.95722E-01 6.07930E-28
9.96273E-01 5.60503E-28
9.96786E-01 5.16431E-28
9.97261E-01 4.75697E-28
9.97698E-01 4.38284E-28
9.98097E-01 4.04175E-28
9.98459E-01 3.73357E-28
9.98782E-01 3.45818E-28
9.99067E-01 3.21545E-28
9.99315E-01 3.00528E-28
9.99524E-01 2.82760E-28
9.99695E-01 2.68232E-28
9.99829E-01 2.56939E-28
9.99924E-01 2.48876E-28
9.99981E-01 2.44039E-28
1.00000E+00 2.42427E-28
