 #
 # Subroutine ELSEPA. Elastic scattering of electrons and positrons
 #                    by neutral atoms and positive ions
 #
 # Projectile: positron
 # Kinetic energy = 5.00000E+08 eV = 1.83747E+07 a.u.
 #
 # WARNING: High-energy factorization with free-atom DF screening.
 #          Absorption, polarization and exchange corrections are
 #          switched off.
 #          Phase shifts are calculated for the bare nucleus.
 #          Scattering amplitudes are not evaluated.
 #
 # Element: Pd,  Z =  46,  atomic weight = 1.06420E+02 g/mol
 #
 # Nuclear model: Fermi distribution
 #                Average radius = 5.07059E-13 cm
 #                Skin thickness = 5.46000E-14 cm
 #
 # Number of electrons = 46
 #
 # Total elastic cross section = 4.05103E-18 cm**2 = 1.44665E-01 a0**2
 # 1st transport cross section = 1.66485E-26 cm**2 = 5.94528E-10 a0**2
 # 2nd transport cross section = 4.99244E-26 cm**2 = 1.78283E-09 a0**2
 #
 #
 # Differential cross section:                       MU=(1-COS(THETA))/2
 #
 #  THETA        MU          DCS          DCS        Sherman      error
 #  (deg)                 (cm**2/sr)   (a0**2/sr)    function
 #----------------------------------------------------------------------
0.00000E+00 5.32936E-09
7.61557E-13 5.16762E-09
1.18994E-12 5.07988E-09
1.71346E-12 4.97655E-09
2.33225E-12 4.85911E-09
3.04617E-12 4.72957E-09
3.85530E-12 4.58994E-09
4.75964E-12 4.44223E-09
5.75917E-12 4.28839E-09
6.85391E-12 4.12958E-09
8.04379E-12 3.96769E-09
9.32893E-12 3.80467E-09
1.07092E-11 3.64192E-09
1.21847E-11 3.48063E-09
1.37554E-11 3.32180E-09
1.54213E-11 3.16628E-09
1.71823E-11 3.01474E-09
1.90386E-11 2.86769E-09
2.09900E-11 2.72554E-09
2.30367E-11 2.58856E-09
2.51785E-11 2.45677E-09
2.74156E-11 2.32997E-09
2.97478E-11 2.20877E-09
3.21752E-11 2.09315E-09
3.46979E-11 1.98302E-09
3.73157E-11 1.87828E-09
4.00286E-11 1.77879E-09
4.28368E-11 1.68438E-09
4.57402E-11 1.59488E-09
4.87388E-11 1.51009E-09
5.18325E-11 1.42983E-09
5.50215E-11 1.35389E-09
5.83057E-11 1.28186E-09
6.16850E-11 1.21377E-09
6.51595E-11 1.14946E-09
6.87293E-11 1.08874E-09
7.23943E-11 1.03141E-09
7.61544E-11 9.77295E-10
1.18991E-10 5.69365E-10
1.71347E-10 3.49990E-10
2.33223E-10 2.23372E-10
3.04617E-10 1.48404E-10
3.85531E-10 1.02597E-10
4.75965E-10 7.35920E-11
5.75917E-10 5.45177E-11
6.85389E-10 4.14733E-11
8.04380E-10 3.22397E-11
9.32891E-10 2.55058E-11
1.07092E-09 2.04650E-11
1.21847E-09 1.66102E-11
1.37554E-09 1.36109E-11
1.54213E-09 1.12448E-11
1.71823E-09 9.35709E-12
1.90386E-09 7.83734E-12
2.09900E-09 6.60461E-12
2.30367E-09 5.59857E-12
2.51785E-09 4.76951E-12
2.74156E-09 4.08456E-12
2.97478E-09 3.51666E-12
3.21752E-09 3.04325E-12
3.46978E-09 2.64646E-12
3.73156E-09 2.31209E-12
4.00286E-09 2.02885E-12
4.28368E-09 1.78773E-12
4.57402E-09 1.58150E-12
4.87388E-09 1.40433E-12
5.18326E-09 1.25151E-12
5.50215E-09 1.11914E-12
5.83057E-09 1.00403E-12
6.16850E-09 9.03548E-13
6.51596E-09 8.15509E-13
6.87293E-09 7.38078E-13
7.23942E-09 6.69728E-13
7.61544E-09 6.09188E-13
1.18991E-08 2.63308E-13
1.71347E-08 1.31720E-13
2.33223E-08 7.28034E-14
3.04617E-08 4.33332E-14
3.85531E-08 2.73457E-14
4.75965E-08 1.80891E-14
5.75917E-08 1.24370E-14
6.85389E-08 8.83053E-15
8.04380E-08 6.44265E-15
9.32891E-08 4.81084E-15
1.07092E-07 3.66487E-15
1.21847E-07 2.84097E-15
1.37554E-07 2.23629E-15
1.54213E-07 1.78433E-15
1.71823E-07 1.44101E-15
1.90386E-07 1.17644E-15
2.09900E-07 9.69898E-16
2.30367E-07 8.06740E-16
2.51785E-07 6.76478E-16
2.74156E-07 5.71467E-16
2.97478E-07 4.86053E-16
3.21752E-07 4.16004E-16
3.46978E-07 3.58124E-16
3.73156E-07 3.09962E-16
4.00286E-07 2.69624E-16
4.28368E-07 2.35634E-16
4.57402E-07 2.06831E-16
4.87388E-07 1.82294E-16
5.18325E-07 1.61287E-16
5.50215E-07 1.43218E-16
5.83057E-07 1.27608E-16
6.16850E-07 1.14067E-16
6.51596E-07 1.02273E-16
6.87293E-07 9.19638E-17
7.23942E-07 8.29206E-17
7.61543E-07 7.49612E-17
1.18991E-06 3.07780E-17
1.71347E-06 1.48603E-17
2.33223E-06 8.02614E-18
3.04617E-06 4.70629E-18
3.85531E-06 2.93857E-18
4.75964E-06 1.92811E-18
5.75916E-06 1.31692E-18
6.85388E-06 9.29792E-19
8.04378E-06 6.75003E-19
9.32888E-06 5.01797E-19
1.07092E-05 3.80740E-19
1.21846E-05 2.94078E-19
1.37553E-05 2.30724E-19
1.54212E-05 1.83545E-19
1.71822E-05 1.47828E-19
1.90385E-05 1.20363E-19
2.09899E-05 9.90374E-20
2.30365E-05 8.22255E-20
2.51783E-05 6.88246E-20
2.74153E-05 5.80381E-20
2.97475E-05 4.92798E-20
3.21749E-05 4.21120E-20
3.46974E-05 3.62025E-20
3.73152E-05 3.12961E-20
4.00281E-05 2.71949E-20
4.28362E-05 2.37446E-20
4.57395E-05 2.08242E-20
4.87380E-05 1.83386E-20
5.18317E-05 1.62123E-20
5.50205E-05 1.43847E-20
5.83045E-05 1.28072E-20
6.16838E-05 1.14401E-20
6.51582E-05 1.02507E-20
6.87277E-05 9.21215E-21
7.23925E-05 8.30197E-21
7.61524E-05 7.50521E-21
9.21439E-05 5.11924E-21
1.09658E-04 3.60868E-21
1.28695E-04 2.61538E-21
1.49255E-04 1.94043E-21
1.71338E-04 1.46916E-21
1.94942E-04 1.13203E-21
2.20070E-04 8.85814E-22
2.46720E-04 7.02661E-22
2.74892E-04 5.64158E-22
3.04586E-04 4.57902E-22
3.35803E-04 3.75296E-22
3.68542E-04 3.10320E-22
4.02802E-04 2.58658E-22
4.38585E-04 2.17177E-22
4.75889E-04 1.83573E-22
5.14715E-04 1.56124E-22
5.55063E-04 1.33533E-22
5.96931E-04 1.14809E-22
6.40321E-04 9.91894E-23
6.85233E-04 8.60810E-23
7.31665E-04 7.50178E-23
7.79618E-04 6.56320E-23
8.29092E-04 5.76298E-23
8.80086E-04 5.07762E-23
9.32601E-04 4.48808E-23
9.86636E-04 3.97891E-23
1.04219E-03 3.53748E-23
1.09927E-03 3.15338E-23
1.15786E-03 2.81804E-23
1.21797E-03 2.52432E-23
1.27961E-03 2.26627E-23
1.34276E-03 2.03891E-23
1.40743E-03 1.83803E-23
1.47362E-03 1.66009E-23
1.54133E-03 1.50208E-23
1.61056E-03 1.36143E-23
1.68131E-03 1.23596E-23
1.75357E-03 1.12378E-23
1.82735E-03 1.02329E-23
1.90265E-03 9.33095E-24
1.97947E-03 8.51982E-24
2.05780E-03 7.78909E-24
2.13765E-03 7.12967E-24
2.21902E-03 6.53363E-24
2.30190E-03 5.99403E-24
2.38630E-03 5.50480E-24
2.47222E-03 5.06059E-24
2.55965E-03 4.65671E-24
2.64859E-03 4.28901E-24
2.73905E-03 3.95382E-24
2.83103E-03 3.64789E-24
2.92452E-03 3.36835E-24
3.01952E-03 3.11262E-24
3.11604E-03 2.87843E-24
3.21407E-03 2.66373E-24
3.31362E-03 2.46672E-24
3.41468E-03 2.28575E-24
3.51725E-03 2.11936E-24
3.62133E-03 1.96625E-24
3.72692E-03 1.82523E-24
3.83403E-03 1.69525E-24
3.94265E-03 1.57533E-24
4.05278E-03 1.46463E-24
4.16442E-03 1.36234E-24
4.27757E-03 1.26778E-24
4.39223E-03 1.18028E-24
4.50840E-03 1.09928E-24
4.62608E-03 1.02424E-24
4.74527E-03 9.54685E-25
4.86597E-03 8.90170E-25
4.98817E-03 8.30298E-25
5.11188E-03 7.74704E-25
5.23711E-03 7.23057E-25
5.36383E-03 6.75050E-25
5.49207E-03 6.30407E-25
5.62181E-03 5.88872E-25
5.75306E-03 5.50212E-25
5.88581E-03 5.14211E-25
6.02007E-03 4.80673E-25
6.15583E-03 4.49418E-25
6.29310E-03 4.20278E-25
6.43187E-03 3.93101E-25
6.57214E-03 3.67746E-25
6.71392E-03 3.44082E-25
6.85720E-03 3.21989E-25
7.00198E-03 3.01358E-25
7.14827E-03 2.82085E-25
7.29605E-03 2.64076E-25
7.44534E-03 2.47244E-25
7.59612E-03 2.31508E-25
7.97965E-03 1.96484E-25
8.37255E-03 1.66828E-25
8.77480E-03 1.41687E-25
9.18641E-03 1.20352E-25
9.60736E-03 1.02231E-25
1.00376E-02 8.68284E-26
1.04773E-02 7.37302E-26
1.09262E-02 6.25868E-26
1.13844E-02 5.31040E-26
1.18520E-02 4.50332E-26
1.23288E-02 3.81644E-26
1.28150E-02 3.23193E-26
1.33104E-02 2.73468E-26
1.38150E-02 2.31181E-26
1.43290E-02 1.95240E-26
1.48521E-02 1.64711E-26
1.53845E-02 1.38800E-26
1.59262E-02 1.16827E-26
1.64770E-02 9.82139E-27
1.70371E-02 8.24639E-27
1.76063E-02 6.91536E-27
1.81848E-02 5.79208E-27
1.87724E-02 4.84554E-27
1.93692E-02 4.04924E-27
1.99751E-02 3.38051E-27
2.05901E-02 2.81996E-27
2.12143E-02 2.35103E-27
2.18476E-02 1.95957E-27
2.24900E-02 1.63349E-27
2.31415E-02 1.36251E-27
2.38021E-02 1.13785E-27
2.44717E-02 9.52038E-28
2.51504E-02 7.98735E-28
2.58382E-02 6.72560E-28
2.65349E-02 5.68953E-28
2.72407E-02 4.84063E-28
2.79555E-02 4.14638E-28
2.86793E-02 3.57946E-28
2.94120E-02 3.11692E-28
3.01537E-02 2.73958E-28
3.09043E-02 2.43143E-28
3.16639E-02 2.17918E-28
3.24324E-02 1.97183E-28
3.32098E-02 1.80034E-28
3.39961E-02 1.65728E-28
3.47912E-02 1.53661E-28
3.55952E-02 1.43345E-28
3.64081E-02 1.34388E-28
3.72297E-02 1.26477E-28
3.80602E-02 1.19365E-28
3.88995E-02 1.12863E-28
3.97476E-02 1.06822E-28
4.06044E-02 1.01132E-28
4.14700E-02 9.57118E-29
4.23443E-02 9.05033E-29
4.32273E-02 8.54665E-29
4.41190E-02 8.05757E-29
4.50194E-02 7.58161E-29
4.59284E-02 7.11812E-29
4.68461E-02 6.66700E-29
4.87074E-02 5.80340E-29
5.06030E-02 4.99575E-29
5.25328E-02 4.25003E-29
5.44967E-02 3.57131E-29
5.64946E-02 2.96284E-29
5.85262E-02 2.42570E-29
6.05914E-02 1.95886E-29
6.26901E-02 1.55942E-29
6.48222E-02 1.22307E-29
6.69873E-02 9.44408E-30
6.91854E-02 7.17426E-30
7.14163E-02 5.35808E-30
7.36799E-02 3.93246E-30
7.59760E-02 2.83665E-30
7.83043E-02 2.01395E-30
8.06647E-02 1.41281E-30
8.30571E-02 9.87534E-31
8.54812E-02 6.98489E-31
8.79369E-02 5.12082E-31
9.04240E-02 4.00465E-31
9.29422E-02 3.41086E-31
9.54915E-02 3.16147E-31
9.80716E-02 3.11998E-31
1.00682E-01 3.18528E-31
1.03323E-01 3.28568E-31
1.05995E-01 3.37333E-31
1.08696E-01 3.41917E-31
1.11427E-01 3.40846E-31
1.14188E-01 3.33696E-31
1.16978E-01 3.20773E-31
1.19797E-01 3.02855E-31
1.22645E-01 2.80979E-31
1.25522E-01 2.56294E-31
1.28428E-01 2.29939E-31
1.31361E-01 2.02967E-31
1.34323E-01 1.76295E-31
1.37313E-01 1.50678E-31
1.40330E-01 1.26696E-31
1.43375E-01 1.04766E-31
1.46447E-01 8.51467E-32
1.49545E-01 6.79629E-32
1.52671E-01 5.32252E-32
1.55823E-01 4.08533E-32
1.59001E-01 3.06982E-32
1.62205E-01 2.25629E-32
1.65435E-01 1.62207E-32
1.68690E-01 1.14307E-32
1.71970E-01 7.95080E-33
1.75276E-01 5.54732E-33
1.78606E-01 4.00271E-33
1.81961E-01 3.12034E-33
1.85340E-01 2.72755E-33
1.88743E-01 2.67690E-33
1.92169E-01 2.84611E-33
1.95619E-01 3.13697E-33
1.99092E-01 3.47342E-33
2.02589E-01 3.79927E-33
2.06107E-01 4.07554E-33
2.09649E-01 4.27771E-33
2.13212E-01 4.39312E-33
2.16797E-01 4.41836E-33
2.20404E-01 4.35701E-33
2.24032E-01 4.21759E-33
2.27680E-01 4.01179E-33
2.31350E-01 3.75305E-33
2.35040E-01 3.45535E-33
2.38751E-01 3.13235E-33
2.42481E-01 2.79670E-33
2.46231E-01 2.45963E-33
2.50000E-01 2.13065E-33
2.53788E-01 1.81744E-33
2.57595E-01 1.52590E-33
2.61421E-01 1.26016E-33
2.65264E-01 1.02277E-33
2.69126E-01 8.14909E-34
2.73005E-01 6.36558E-34
2.76901E-01 4.86754E-34
2.80814E-01 3.63795E-34
2.84744E-01 2.65440E-34
2.88691E-01 1.89102E-34
2.92653E-01 1.32001E-34
2.96632E-01 9.13081E-35
3.00625E-01 6.42469E-35
3.04634E-01 4.81879E-35
3.08658E-01 4.07067E-35
3.12697E-01 3.96284E-35
3.16749E-01 4.30517E-35
3.20816E-01 4.93580E-35
3.24896E-01 5.72087E-35
3.28990E-01 6.55324E-35
3.33097E-01 7.35050E-35
3.37216E-01 8.05259E-35
3.41348E-01 8.61890E-35
3.45492E-01 9.02558E-35
3.49647E-01 9.26246E-35
3.53814E-01 9.33047E-35
3.57992E-01 9.23894E-35
3.62181E-01 9.00336E-35
3.66381E-01 8.64335E-35
3.70590E-01 8.18085E-35
3.74810E-01 7.63865E-35
3.79039E-01 7.03938E-35
3.83277E-01 6.40432E-35
3.87524E-01 5.75309E-35
3.91780E-01 5.10299E-35
3.96044E-01 4.46865E-35
4.00316E-01 3.86228E-35
4.04596E-01 3.29324E-35
4.08882E-01 2.76857E-35
4.13176E-01 2.29289E-35
4.17476E-01 1.86879E-35
4.21783E-01 1.49699E-35
4.26095E-01 1.17675E-35
4.30413E-01 9.06078E-36
4.34737E-01 6.81988E-36
4.39065E-01 5.00797E-36
4.43398E-01 3.58335E-36
4.47736E-01 2.50176E-36
4.52077E-01 1.71790E-36
4.56422E-01 1.18695E-36
4.60770E-01 8.65873E-37
4.65122E-01 7.14189E-37
4.69476E-01 6.94732E-37
4.73832E-01 7.74072E-37
4.78190E-01 9.22756E-37
4.82550E-01 1.11540E-36
4.86912E-01 1.33065E-36
4.91274E-01 1.55091E-36
4.95637E-01 1.76243E-36
5.00000E-01 1.95449E-36
5.04363E-01 2.11952E-36
5.08726E-01 2.25248E-36
5.13088E-01 2.35066E-36
5.17450E-01 2.41306E-36
5.21810E-01 2.44036E-36
5.26168E-01 2.43440E-36
5.30524E-01 2.39778E-36
5.34878E-01 2.33406E-36
5.39230E-01 2.24678E-36
5.43578E-01 2.14011E-36
5.47923E-01 2.01788E-36
5.52264E-01 1.88420E-36
5.56602E-01 1.74262E-36
5.60935E-01 1.59660E-36
5.65263E-01 1.44926E-36
5.69587E-01 1.30328E-36
5.73905E-01 1.16097E-36
5.78217E-01 1.02430E-36
5.82524E-01 8.94818E-37
5.86824E-01 7.73657E-37
5.91118E-01 6.61701E-37
5.95404E-01 5.59491E-37
5.99684E-01 4.67252E-37
6.03956E-01 3.85062E-37
6.08220E-01 3.12718E-37
6.12476E-01 2.49922E-37
6.16723E-01 1.96156E-37
6.20961E-01 1.50865E-37
6.25190E-01 1.13391E-37
6.29410E-01 8.30372E-38
6.33619E-01 5.90910E-38
6.37819E-01 4.08119E-38
6.42008E-01 2.74823E-38
6.46186E-01 1.84071E-38
6.50353E-01 1.29225E-38
6.54508E-01 1.04100E-38
6.58652E-01 1.02983E-38
6.62784E-01 1.20693E-38
6.66903E-01 1.52554E-38
6.71010E-01 1.94462E-38
6.75104E-01 2.42907E-38
6.79184E-01 2.94789E-38
6.83251E-01 3.47537E-38
6.87303E-01 3.99032E-38
6.91342E-01 4.47738E-38
6.95366E-01 4.92188E-38
6.99375E-01 5.31484E-38
7.03368E-01 5.64909E-38
7.07347E-01 5.92262E-38
7.11309E-01 6.13143E-38
7.15256E-01 6.27794E-38
7.19186E-01 6.36135E-38
7.23099E-01 6.38731E-38
7.26995E-01 6.35904E-38
7.30874E-01 6.27940E-38
7.34736E-01 6.15553E-38
7.38579E-01 5.99289E-38
7.42405E-01 5.79646E-38
7.46212E-01 5.57079E-38
7.50000E-01 5.32327E-38
7.53769E-01 5.05733E-38
7.57519E-01 4.77791E-38
7.61249E-01 4.49043E-38
7.64960E-01 4.19890E-38
7.68650E-01 3.90523E-38
7.72320E-01 3.61577E-38
7.75968E-01 3.33032E-38
7.79596E-01 3.05234E-38
7.83203E-01 2.78381E-38
7.86788E-01 2.52694E-38
7.90351E-01 2.28213E-38
7.93893E-01 2.05081E-38
7.97411E-01 1.83291E-38
8.00908E-01 1.62972E-38
8.04381E-01 1.44160E-38
8.07831E-01 1.26725E-38
8.11257E-01 1.10790E-38
8.14660E-01 9.62396E-39
8.18039E-01 8.30445E-39
8.21394E-01 7.11718E-39
8.24724E-01 6.05739E-39
8.28030E-01 5.11110E-39
8.31310E-01 4.27255E-39
8.34565E-01 3.54149E-39
8.37795E-01 2.90176E-39
8.40999E-01 2.35291E-39
8.44177E-01 1.87875E-39
8.47329E-01 1.48059E-39
8.50455E-01 1.14576E-39
8.53553E-01 8.68858E-40
8.56625E-01 1.00000E-45
8.59670E-01 1.00000E-45
8.62687E-01 1.00000E-45
8.65677E-01 1.00000E-45
8.68639E-01 1.00000E-45
8.71572E-01 1.00000E-45
8.74478E-01 1.00000E-45
8.77355E-01 1.00000E-45
8.80203E-01 1.00000E-45
8.83022E-01 1.00000E-45
8.85812E-01 1.00000E-45
8.88573E-01 1.00000E-45
8.91304E-01 1.00000E-45
8.94005E-01 1.00000E-45
8.96677E-01 1.00000E-45
8.99318E-01 1.00000E-45
9.01928E-01 1.00000E-45
9.04508E-01 1.00000E-45
9.07058E-01 1.00000E-45
9.09576E-01 1.00000E-45
9.12063E-01 1.00000E-45
9.14519E-01 1.00000E-45
9.16943E-01 1.00000E-45
9.19335E-01 1.00000E-45
9.21696E-01 1.00000E-45
9.24024E-01 1.00000E-45
9.26320E-01 1.00000E-45
9.28584E-01 1.00000E-45
9.30815E-01 1.00000E-45
9.33013E-01 1.00000E-45
9.35178E-01 1.00000E-45
9.37310E-01 1.00000E-45
9.39409E-01 1.00000E-45
9.41474E-01 1.00000E-45
9.43505E-01 1.00000E-45
9.45503E-01 1.00000E-45
9.47467E-01 1.00000E-45
9.49397E-01 1.00000E-45
9.51293E-01 1.00000E-45
9.53154E-01 1.00000E-45
9.54981E-01 1.00000E-45
9.56773E-01 1.00000E-45
9.58530E-01 1.00000E-45
9.60252E-01 1.00000E-45
9.61940E-01 1.00000E-45
9.63592E-01 1.00000E-45
9.65209E-01 1.00000E-45
9.66790E-01 1.00000E-45
9.68336E-01 1.00000E-45
9.69846E-01 1.00000E-45
9.71321E-01 1.00000E-45
9.72759E-01 1.00000E-45
9.74162E-01 1.00000E-45
9.75528E-01 1.00000E-45
9.76858E-01 1.00000E-45
9.78152E-01 1.00000E-45
9.79410E-01 1.00000E-45
9.80631E-01 1.00000E-45
9.81815E-01 1.00000E-45
9.82963E-01 1.00000E-45
9.84074E-01 1.00000E-45
9.85148E-01 1.00000E-45
9.86185E-01 1.00000E-45
9.87185E-01 1.00000E-45
9.88148E-01 1.00000E-45
9.89074E-01 1.00000E-45
9.89962E-01 1.00000E-45
9.90814E-01 1.00000E-45
9.91627E-01 1.00000E-45
9.92404E-01 1.00000E-45
9.93143E-01 1.00000E-45
9.93844E-01 1.00000E-45
9.94508E-01 1.00000E-45
9.95134E-01 1.00000E-45
9.95722E-01 1.00000E-45
9.96273E-01 1.00000E-45
9.96786E-01 1.00000E-45
9.97261E-01 1.00000E-45
9.97698E-01 1.00000E-45
9.98097E-01 1.00000E-45
9.98459E-01 1.00000E-45
9.98782E-01 1.00000E-45
9.99067E-01 1.00000E-45
9.99315E-01 1.00000E-45
9.99524E-01 1.00000E-45
9.99695E-01 1.00000E-45
9.99829E-01 1.00000E-45
9.99924E-01 1.00000E-45
9.99981E-01 1.00000E-45
1.00000E+00 1.00000E-45
