 #
 # Subroutine ELSEPA. Elastic scattering of electrons and positrons
 #                    by neutral atoms and positive ions
 #
 # Projectile: positron
 # Kinetic energy = 1.75000E+08 eV = 6.43113E+06 a.u.
 #
 # WARNING: High-energy factorization with free-atom DF screening.
 #          Absorption, polarization and exchange corrections are
 #          switched off.
 #          Phase shifts are calculated for the bare nucleus.
 #          Scattering amplitudes are not evaluated.
 #
 # Element: Pd,  Z =  46,  atomic weight = 1.06420E+02 g/mol
 #
 # Nuclear model: Fermi distribution
 #                Average radius = 5.07059E-13 cm
 #                Skin thickness = 5.46000E-14 cm
 #
 # Number of electrons = 46
 #
 # Total elastic cross section = 4.05392E-18 cm**2 = 1.44768E-01 a0**2
 # 1st transport cross section = 1.34298E-25 cm**2 = 4.79588E-09 a0**2
 # 2nd transport cross section = 4.01528E-25 cm**2 = 1.43388E-08 a0**2
 #
 #
 # Differential cross section:                       MU=(1-COS(THETA))/2
 #
 #  THETA        MU          DCS          DCS        Sherman      error
 #  (deg)                 (cm**2/sr)   (a0**2/sr)    function
 #----------------------------------------------------------------------
0.00000E+00 6.55325E-10
7.61557E-13 6.52812E-10
1.18994E-12 6.51411E-10
1.71346E-12 6.49705E-10
2.33225E-12 6.47701E-10
3.04617E-12 6.45401E-10
3.85530E-12 6.42813E-10
4.75964E-12 6.39942E-10
5.75917E-12 6.36794E-10
6.85391E-12 6.33378E-10
8.04379E-12 6.29667E-10
9.32893E-12 6.25704E-10
1.07092E-11 6.21552E-10
1.21847E-11 6.17154E-10
1.37554E-11 6.12466E-10
1.54213E-11 6.07639E-10
1.71823E-11 6.02625E-10
1.90386E-11 5.97296E-10
2.09900E-11 5.91879E-10
2.30367E-11 5.86351E-10
2.51785E-11 5.80472E-10
2.74156E-11 5.74554E-10
2.97478E-11 5.68613E-10
3.21752E-11 5.62282E-10
3.46979E-11 5.55955E-10
3.73157E-11 5.49649E-10
4.00286E-11 5.43011E-10
4.28368E-11 5.36365E-10
4.57402E-11 5.29781E-10
4.87388E-11 5.22934E-10
5.18325E-11 5.16056E-10
5.50215E-11 5.09276E-10
5.83057E-11 5.02311E-10
6.16850E-11 4.95282E-10
6.51595E-11 4.88381E-10
6.87293E-11 4.81379E-10
7.23943E-11 4.74272E-10
7.61544E-11 4.67319E-10
1.18991E-10 3.98381E-10
1.71347E-10 3.34447E-10
2.33223E-10 2.78228E-10
3.04617E-10 2.30299E-10
3.85531E-10 1.90209E-10
4.75965E-10 1.57064E-10
5.75917E-10 1.29799E-10
6.85389E-10 1.07506E-10
8.04380E-10 8.85420E-11
9.32891E-10 7.33093E-11
1.07092E-09 6.17277E-11
1.21847E-09 5.21721E-11
1.37554E-09 4.38367E-11
1.54213E-09 3.72982E-11
1.71823E-09 3.19638E-11
1.90386E-09 2.73084E-11
2.09900E-09 2.35548E-11
2.30367E-09 2.04741E-11
2.51785E-09 1.77870E-11
2.74156E-09 1.55684E-11
2.97478E-09 1.37215E-11
3.21752E-09 1.21064E-11
3.46978E-09 1.07449E-11
3.73156E-09 9.59031E-12
4.00286E-09 8.57826E-12
4.28368E-09 7.70702E-12
4.57402E-09 6.95643E-12
4.87388E-09 6.29248E-12
5.18326E-09 5.71077E-12
5.50215E-09 5.20298E-12
5.83057E-09 4.74923E-12
6.16850E-09 4.34510E-12
6.51596E-09 3.98846E-12
6.87293E-09 3.66719E-12
7.23942E-09 3.37650E-12
7.61544E-09 3.11764E-12
1.18991E-08 1.51157E-12
1.71347E-08 8.06634E-13
2.33223E-08 4.62432E-13
3.04617E-08 2.82291E-13
3.85531E-08 1.81860E-13
4.75965E-08 1.22578E-13
5.75917E-08 8.58087E-14
6.85389E-08 6.19495E-14
8.04380E-08 4.58478E-14
9.32891E-08 3.46960E-14
1.07092E-07 2.67416E-14
1.21847E-07 2.09212E-14
1.37554E-07 1.65996E-14
1.54213E-07 1.33348E-14
1.71823E-07 1.08310E-14
1.90386E-07 8.88541E-15
2.09900E-07 7.35338E-15
2.30367E-07 6.13677E-15
2.51785E-07 5.16097E-15
2.74156E-07 4.37112E-15
2.97478E-07 3.72631E-15
3.21752E-07 3.19556E-15
3.46978E-07 2.75598E-15
3.73156E-07 2.38942E-15
4.00286E-07 2.08182E-15
4.28368E-07 1.82216E-15
4.57402E-07 1.60168E-15
4.87388E-07 1.41360E-15
5.18325E-07 1.25237E-15
5.50215E-07 1.11351E-15
5.83057E-07 9.93395E-16
6.16850E-07 8.89042E-16
6.51596E-07 7.98060E-16
6.87293E-07 7.18444E-16
7.23942E-07 6.48529E-16
7.61543E-07 5.86927E-16
1.18991E-06 2.43287E-16
1.71347E-06 1.18300E-16
2.33223E-06 6.42229E-17
3.04617E-06 3.77975E-17
3.85531E-06 2.36638E-17
4.75964E-06 1.55573E-17
5.75916E-06 1.06415E-17
6.85388E-06 7.52170E-18
8.04378E-06 5.46526E-18
9.32888E-06 4.06564E-18
1.07092E-05 3.08649E-18
1.21846E-05 2.38500E-18
1.37553E-05 1.87186E-18
1.54212E-05 1.48953E-18
1.71822E-05 1.19997E-18
1.90385E-05 9.77227E-19
2.09899E-05 8.04225E-19
2.30365E-05 6.67806E-19
2.51783E-05 5.59041E-19
2.74153E-05 4.71476E-19
2.97475E-05 4.00367E-19
3.21749E-05 3.42163E-19
3.46974E-05 2.94170E-19
3.73152E-05 2.54318E-19
4.00281E-05 2.21003E-19
4.28362E-05 1.92974E-19
4.57395E-05 1.69248E-19
4.87380E-05 1.49053E-19
5.18317E-05 1.31775E-19
5.50205E-05 1.16924E-19
5.83045E-05 1.04105E-19
6.16838E-05 9.29944E-20
6.51582E-05 8.33283E-20
6.87277E-05 7.48875E-20
7.23925E-05 6.74898E-20
7.61524E-05 6.10265E-20
9.21439E-05 4.16622E-20
1.09658E-04 2.94000E-20
1.28695E-04 2.13346E-20
1.49255E-04 1.58522E-20
1.71338E-04 1.20225E-20
1.94942E-04 9.28156E-21
2.20070E-04 7.27844E-21
2.46720E-04 5.78728E-21
2.74892E-04 4.65870E-21
3.04586E-04 3.79205E-21
3.35803E-04 3.11756E-21
3.68542E-04 2.58641E-21
4.02802E-04 2.16353E-21
4.38585E-04 1.82350E-21
4.75889E-04 1.54760E-21
5.14715E-04 1.32185E-21
5.55063E-04 1.13572E-21
5.96931E-04 9.81152E-22
6.40321E-04 8.51931E-22
6.85233E-04 7.43242E-22
7.31665E-04 6.51294E-22
7.79618E-04 5.73090E-22
8.29092E-04 5.06239E-22
8.80086E-04 4.48822E-22
9.32601E-04 3.99288E-22
9.86636E-04 3.56373E-22
1.04219E-03 3.19048E-22
1.09927E-03 2.86460E-22
1.15786E-03 2.57909E-22
1.21797E-03 2.32809E-22
1.27961E-03 2.10672E-22
1.34276E-03 1.91090E-22
1.40743E-03 1.73717E-22
1.47362E-03 1.58262E-22
1.54133E-03 1.44476E-22
1.61056E-03 1.32149E-22
1.68131E-03 1.21099E-22
1.75357E-03 1.11171E-22
1.82735E-03 1.02232E-22
1.90265E-03 9.41659E-23
1.97947E-03 8.68728E-23
2.05780E-03 8.02657E-23
2.13765E-03 7.42690E-23
2.21902E-03 6.88165E-23
2.30190E-03 6.38500E-23
2.38630E-03 5.93188E-23
2.47222E-03 5.51780E-23
2.55965E-03 5.13881E-23
2.64859E-03 4.79141E-23
2.73905E-03 4.47252E-23
2.83103E-03 4.17937E-23
2.92452E-03 3.90954E-23
3.01952E-03 3.66083E-23
3.11604E-03 3.43131E-23
3.21407E-03 3.21924E-23
3.31362E-03 3.02304E-23
3.41468E-03 2.84134E-23
3.51725E-03 2.67286E-23
3.62133E-03 2.51649E-23
3.72692E-03 2.37118E-23
3.83403E-03 2.23603E-23
3.94265E-03 2.11020E-23
4.05278E-03 1.99293E-23
4.16442E-03 1.88354E-23
4.27757E-03 1.78140E-23
4.39223E-03 1.68596E-23
4.50840E-03 1.59669E-23
4.62608E-03 1.51312E-23
4.74527E-03 1.43484E-23
4.86597E-03 1.36143E-23
4.98817E-03 1.29256E-23
5.11188E-03 1.22788E-23
5.23711E-03 1.16710E-23
5.36383E-03 1.10994E-23
5.49207E-03 1.05616E-23
5.62181E-03 1.00550E-23
5.75306E-03 9.57769E-24
5.88581E-03 9.12759E-24
6.02007E-03 8.70289E-24
6.15583E-03 8.30191E-24
6.29310E-03 7.92310E-24
6.43187E-03 7.56502E-24
6.57214E-03 7.22633E-24
6.71392E-03 6.90581E-24
6.85720E-03 6.60231E-24
7.00198E-03 6.31477E-24
7.14827E-03 6.04220E-24
7.29605E-03 5.78370E-24
7.44534E-03 5.53841E-24
7.59612E-03 5.30554E-24
7.97965E-03 4.77299E-24
8.37255E-03 4.30337E-24
8.77480E-03 3.88810E-24
9.18641E-03 3.51990E-24
9.60736E-03 3.19260E-24
1.00376E-02 2.90096E-24
1.04773E-02 2.64050E-24
1.09262E-02 2.40735E-24
1.13844E-02 2.19823E-24
1.18520E-02 2.01027E-24
1.23288E-02 1.84101E-24
1.28150E-02 1.68830E-24
1.33104E-02 1.55029E-24
1.38150E-02 1.42534E-24
1.43290E-02 1.31203E-24
1.48521E-02 1.20912E-24
1.53845E-02 1.11551E-24
1.59262E-02 1.03024E-24
1.64770E-02 9.52456E-25
1.70371E-02 8.81404E-25
1.76063E-02 8.16420E-25
1.81848E-02 7.56909E-25
1.87724E-02 7.02346E-25
1.93692E-02 6.52262E-25
1.99751E-02 6.06237E-25
2.05901E-02 5.63896E-25
2.12143E-02 5.24904E-25
2.18476E-02 4.88959E-25
2.24900E-02 4.55792E-25
2.31415E-02 4.25159E-25
2.38021E-02 3.96841E-25
2.44717E-02 3.70638E-25
2.51504E-02 3.46374E-25
2.58382E-02 3.23886E-25
2.65349E-02 3.03027E-25
2.72407E-02 2.83664E-25
2.79555E-02 2.65676E-25
2.86793E-02 2.48955E-25
2.94120E-02 2.33399E-25
3.01537E-02 2.18918E-25
3.09043E-02 2.05428E-25
3.16639E-02 1.92854E-25
3.24324E-02 1.81126E-25
3.32098E-02 1.70181E-25
3.39961E-02 1.59960E-25
3.47912E-02 1.50410E-25
3.55952E-02 1.41483E-25
3.64081E-02 1.33132E-25
3.72297E-02 1.25318E-25
3.80602E-02 1.18001E-25
3.88995E-02 1.11148E-25
3.97476E-02 1.04724E-25
4.06044E-02 9.87017E-26
4.14700E-02 9.30524E-26
4.23443E-02 8.77508E-26
4.32273E-02 8.27736E-26
4.41190E-02 7.80990E-26
4.50194E-02 7.37068E-26
4.59284E-02 6.95785E-26
4.68461E-02 6.56967E-26
4.87074E-02 5.86098E-26
5.06030E-02 5.23311E-26
5.25328E-02 4.67613E-26
5.44967E-02 4.18143E-26
5.64946E-02 3.74154E-26
5.85262E-02 3.34998E-26
6.05914E-02 3.00108E-26
6.26901E-02 2.68991E-26
6.48222E-02 2.41213E-26
6.69873E-02 2.16397E-26
6.91854E-02 1.94209E-26
7.14163E-02 1.74356E-26
7.36799E-02 1.56582E-26
7.59760E-02 1.40658E-26
7.83043E-02 1.26384E-26
8.06647E-02 1.13581E-26
8.30571E-02 1.02094E-26
8.54812E-02 9.17811E-27
8.79369E-02 8.25196E-27
9.04240E-02 7.41990E-27
9.29422E-02 6.67212E-27
9.54915E-02 5.99989E-27
9.80716E-02 5.39541E-27
1.00682E-01 4.85173E-27
1.03323E-01 4.36265E-27
1.05995E-01 3.92260E-27
1.08696E-01 3.52663E-27
1.11427E-01 3.17027E-27
1.14188E-01 2.84954E-27
1.16978E-01 2.56086E-27
1.19797E-01 2.30104E-27
1.22645E-01 2.06718E-27
1.25522E-01 1.85670E-27
1.28428E-01 1.66727E-27
1.31361E-01 1.49680E-27
1.34323E-01 1.34342E-27
1.37313E-01 1.20542E-27
1.40330E-01 1.08129E-27
1.43375E-01 9.69658E-28
1.46447E-01 8.69277E-28
1.49545E-01 7.79039E-28
1.52671E-01 6.97938E-28
1.55823E-01 6.25072E-28
1.59001E-01 5.59621E-28
1.62205E-01 5.00852E-28
1.65435E-01 4.48100E-28
1.68690E-01 4.00766E-28
1.71970E-01 3.58310E-28
1.75276E-01 3.20245E-28
1.78606E-01 2.86131E-28
1.81961E-01 2.55571E-28
1.85340E-01 2.28209E-28
1.88743E-01 2.03721E-28
1.92169E-01 1.81817E-28
1.95619E-01 1.62233E-28
1.99092E-01 1.44734E-28
2.02589E-01 1.29106E-28
2.06107E-01 1.15157E-28
2.09649E-01 1.02714E-28
2.13212E-01 9.16203E-29
2.16797E-01 8.17360E-29
2.20404E-01 7.29345E-29
2.24032E-01 6.51018E-29
2.27680E-01 5.81356E-29
2.31350E-01 5.19439E-29
2.35040E-01 4.64438E-29
2.38751E-01 4.15609E-29
2.42481E-01 3.72285E-29
2.46231E-01 3.33867E-29
2.50000E-01 2.99817E-29
2.53788E-01 2.69653E-29
2.57595E-01 2.42943E-29
2.61421E-01 2.19300E-29
2.65264E-01 1.98380E-29
2.69126E-01 1.79872E-29
2.73005E-01 1.63500E-29
2.76901E-01 1.49019E-29
2.80814E-01 1.36208E-29
2.84744E-01 1.24871E-29
2.88691E-01 1.14834E-29
2.92653E-01 1.05942E-29
2.96632E-01 9.80574E-30
3.00625E-01 9.10577E-30
3.04634E-01 8.48348E-30
3.08658E-01 7.92928E-30
3.12697E-01 7.43470E-30
3.16749E-01 6.99226E-30
3.20816E-01 6.59537E-30
3.24896E-01 6.23822E-30
3.28990E-01 5.91573E-30
3.33097E-01 5.62340E-30
3.37216E-01 5.35734E-30
3.41348E-01 5.11411E-30
3.45492E-01 4.89072E-30
3.49647E-01 4.68459E-30
3.53814E-01 4.49346E-30
3.57992E-01 4.31536E-30
3.62181E-01 4.14861E-30
3.66381E-01 3.99176E-30
3.70590E-01 3.84355E-30
3.74810E-01 3.70292E-30
3.79039E-01 3.56895E-30
3.83277E-01 3.44086E-30
3.87524E-01 3.31800E-30
3.91780E-01 3.19980E-30
3.96044E-01 3.08581E-30
4.00316E-01 2.97562E-30
4.04596E-01 2.86893E-30
4.08882E-01 2.76545E-30
4.13176E-01 2.66497E-30
4.17476E-01 2.56731E-30
4.21783E-01 2.47231E-30
4.26095E-01 2.37986E-30
4.30413E-01 2.28987E-30
4.34737E-01 2.20225E-30
4.39065E-01 2.11695E-30
4.43398E-01 2.03392E-30
4.47736E-01 1.95312E-30
4.52077E-01 1.87452E-30
4.56422E-01 1.79809E-30
4.60770E-01 1.72380E-30
4.65122E-01 1.65165E-30
4.69476E-01 1.58161E-30
4.73832E-01 1.51367E-30
4.78190E-01 1.44780E-30
4.82550E-01 1.38400E-30
4.86912E-01 1.32224E-30
4.91274E-01 1.26249E-30
4.95637E-01 1.20475E-30
5.00000E-01 1.14897E-30
5.04363E-01 1.09515E-30
5.08726E-01 1.04324E-30
5.13088E-01 9.93227E-31
5.17450E-01 9.45069E-31
5.21810E-01 8.98735E-31
5.26168E-01 8.54190E-31
5.30524E-01 8.11397E-31
5.34878E-01 7.70317E-31
5.39230E-01 7.30911E-31
5.43578E-01 6.93139E-31
5.47923E-01 6.56959E-31
5.52264E-01 6.22328E-31
5.56602E-01 5.89203E-31
5.60935E-01 5.57542E-31
5.65263E-01 5.27300E-31
5.69587E-01 4.98433E-31
5.73905E-01 4.70897E-31
5.78217E-01 4.44648E-31
5.82524E-01 4.19643E-31
5.86824E-01 3.95838E-31
5.91118E-01 3.73189E-31
5.95404E-01 3.51655E-31
5.99684E-01 3.31193E-31
6.03956E-01 3.11762E-31
6.08220E-01 2.93321E-31
6.12476E-01 2.75831E-31
6.16723E-01 2.59251E-31
6.20961E-01 2.43546E-31
6.25190E-01 2.28676E-31
6.29410E-01 2.14605E-31
6.33619E-01 2.01299E-31
6.37819E-01 1.88724E-31
6.42008E-01 1.76845E-31
6.46186E-01 1.65631E-31
6.50353E-01 1.55050E-31
6.54508E-01 1.45072E-31
6.58652E-01 1.35669E-31
6.62784E-01 1.26811E-31
6.66903E-01 1.18473E-31
6.71010E-01 1.10627E-31
6.75104E-01 1.03249E-31
6.79184E-01 9.63153E-32
6.83251E-01 8.98019E-32
6.87303E-01 8.36871E-32
6.91342E-01 7.79495E-32
6.95366E-01 7.25689E-32
6.99375E-01 6.75259E-32
7.03368E-01 6.28019E-32
7.07347E-01 5.83792E-32
7.11309E-01 5.42408E-32
7.15256E-01 5.03707E-32
7.19186E-01 4.67535E-32
7.23099E-01 4.33746E-32
7.26995E-01 4.02201E-32
7.30874E-01 3.72768E-32
7.34736E-01 3.45320E-32
7.38579E-01 3.19740E-32
7.42405E-01 2.95913E-32
7.46212E-01 2.73733E-32
7.50000E-01 2.53099E-32
7.53769E-01 2.33914E-32
7.57519E-01 2.16087E-32
7.61249E-01 1.99532E-32
7.64960E-01 1.84168E-32
7.68650E-01 1.69918E-32
7.72320E-01 1.56710E-32
7.75968E-01 1.44476E-32
7.79596E-01 1.33151E-32
7.83203E-01 1.22674E-32
7.86788E-01 1.12988E-32
7.90351E-01 1.04040E-32
7.93893E-01 9.57797E-33
7.97411E-01 8.81584E-33
8.00908E-01 8.11322E-33
8.04381E-01 7.46590E-33
8.07831E-01 6.86996E-33
8.11257E-01 6.32172E-33
8.14660E-01 5.81772E-33
8.18039E-01 5.35475E-33
8.21394E-01 4.92976E-33
8.24724E-01 4.53994E-33
8.28030E-01 4.18263E-33
8.31310E-01 3.85538E-33
8.34565E-01 3.55588E-33
8.37795E-01 3.28197E-33
8.40999E-01 3.03166E-33
8.44177E-01 2.80307E-33
8.47329E-01 2.59447E-33
8.50455E-01 2.40424E-33
8.53553E-01 2.23088E-33
8.56625E-01 2.07300E-33
8.59670E-01 1.92929E-33
8.62687E-01 1.79856E-33
8.65677E-01 1.67969E-33
8.68639E-01 1.57165E-33
8.71572E-01 1.47349E-33
8.74478E-01 1.38433E-33
8.77355E-01 1.30334E-33
8.80203E-01 1.22979E-33
8.83022E-01 1.16297E-33
8.85812E-01 1.10224E-33
8.88573E-01 1.04704E-33
8.91304E-01 9.96806E-34
8.94005E-01 9.51050E-34
8.96677E-01 9.09323E-34
8.99318E-01 8.71205E-34
9.01928E-01 8.36318E-34
9.04508E-01 8.04319E-34
9.07058E-01 7.74889E-34
9.09576E-01 7.47739E-34
9.12063E-01 7.22613E-34
9.14519E-01 6.99271E-34
9.16943E-01 6.77505E-34
9.19335E-01 6.57114E-34
9.21696E-01 6.37930E-34
9.24024E-01 6.19790E-34
9.26320E-01 6.02561E-34
9.28584E-01 5.86116E-34
9.30815E-01 5.70346E-34
9.33013E-01 5.55148E-34
9.35178E-01 5.40436E-34
9.37310E-01 5.26133E-34
9.39409E-01 5.12177E-34
9.41474E-01 4.98507E-34
9.43505E-01 4.85070E-34
9.45503E-01 4.71831E-34
9.47467E-01 4.58745E-34
9.49397E-01 4.45790E-34
9.51293E-01 4.32936E-34
9.53154E-01 4.20171E-34
9.54981E-01 4.07469E-34
9.56773E-01 3.94831E-34
9.58530E-01 3.82241E-34
9.60252E-01 3.69696E-34
9.61940E-01 3.57200E-34
9.63592E-01 3.44750E-34
9.65209E-01 3.32343E-34
9.66790E-01 3.19996E-34
9.68336E-01 3.07709E-34
9.69846E-01 2.95493E-34
9.71321E-01 2.83349E-34
9.72759E-01 2.71301E-34
9.74162E-01 2.59351E-34
9.75528E-01 2.47512E-34
9.76858E-01 2.35800E-34
9.78152E-01 2.24225E-34
9.79410E-01 2.12806E-34
9.80631E-01 2.01550E-34
9.81815E-01 1.90471E-34
9.82963E-01 1.79589E-34
9.84074E-01 1.68912E-34
9.85148E-01 1.58457E-34
9.86185E-01 1.48236E-34
9.87185E-01 1.38263E-34
9.88148E-01 1.28550E-34
9.89074E-01 1.19110E-34
9.89962E-01 1.09956E-34
9.90814E-01 1.01101E-34
9.91627E-01 9.25536E-35
9.92404E-01 8.43278E-35
9.93143E-01 7.64341E-35
9.93844E-01 6.88811E-35
9.94508E-01 6.16811E-35
9.95134E-01 5.48425E-35
9.95722E-01 4.83724E-35
9.96273E-01 4.22790E-35
9.96786E-01 3.65756E-35
9.97261E-01 3.12630E-35
9.97698E-01 2.63506E-35
9.98097E-01 2.18451E-35
9.98459E-01 1.77527E-35
9.98782E-01 1.40745E-35
9.99067E-01 1.08197E-35
9.99315E-01 7.99017E-36
9.99524E-01 5.58934E-36
9.99695E-01 3.62181E-36
9.99829E-01 2.08969E-36
9.99924E-01 9.92942E-37
9.99981E-01 3.34284E-37
1.00000E+00 1.14749E-37
