 #
 # Subroutine ELSEPA. Elastic scattering of electrons and positrons
 #                    by neutral atoms and positive ions
 #
 # Projectile: positron
 # Kinetic energy = 3.50000E+06 eV = 1.28623E+05 a.u.
 #
 # WARNING: High-energy factorization with free-atom DF screening.
 #          Absorption, polarization and exchange corrections are
 #          switched off.
 #          Phase shifts are calculated for the bare nucleus.
 #          Scattering amplitudes are not evaluated.
 #
 # Element: Pd,  Z =  46,  atomic weight = 1.06420E+02 g/mol
 #
 # Nuclear model: Fermi distribution
 #                Average radius = 5.07059E-13 cm
 #                Skin thickness = 5.46000E-14 cm
 #
 # Number of electrons = 46
 #
 # Total elastic cross section = 4.11389E-18 cm**2 = 1.46910E-01 a0**2
 # 1st transport cross section = 1.66392E-22 cm**2 = 5.94197E-06 a0**2
 # 2nd transport cross section = 4.77572E-22 cm**2 = 1.70544E-05 a0**2
 #
 #
 # Differential cross section:                       MU=(1-COS(THETA))/2
 #
 #  THETA        MU          DCS          DCS        Sherman      error
 #  (deg)                 (cm**2/sr)   (a0**2/sr)    function
 #----------------------------------------------------------------------
0.00000E+00 3.42258E-13
7.61557E-13 3.42257E-13
1.18994E-12 3.42256E-13
1.71346E-12 3.42256E-13
2.33225E-12 3.42255E-13
3.04617E-12 3.42254E-13
3.85530E-12 3.42253E-13
4.75964E-12 3.42252E-13
5.75917E-12 3.42251E-13
6.85391E-12 3.42250E-13
8.04379E-12 3.42249E-13
9.32893E-12 3.42248E-13
1.07092E-11 3.42247E-13
1.21847E-11 3.42245E-13
1.37554E-11 3.42244E-13
1.54213E-11 3.42242E-13
1.71823E-11 3.42241E-13
1.90386E-11 3.42239E-13
2.09900E-11 3.42237E-13
2.30367E-11 3.42235E-13
2.51785E-11 3.42233E-13
2.74156E-11 3.42231E-13
2.97478E-11 3.42229E-13
3.21752E-11 3.42227E-13
3.46979E-11 3.42224E-13
3.73157E-11 3.42222E-13
4.00286E-11 3.42220E-13
4.28368E-11 3.42217E-13
4.57402E-11 3.42214E-13
4.87388E-11 3.42212E-13
5.18325E-11 3.42209E-13
5.50215E-11 3.42206E-13
5.83057E-11 3.42203E-13
6.16850E-11 3.42200E-13
6.51595E-11 3.42197E-13
6.87293E-11 3.42193E-13
7.23943E-11 3.42190E-13
7.61544E-11 3.42187E-13
1.18991E-10 3.42148E-13
1.71347E-10 3.42101E-13
2.33223E-10 3.42045E-13
3.04617E-10 3.41981E-13
3.85531E-10 3.41909E-13
4.75965E-10 3.41828E-13
5.75917E-10 3.41739E-13
6.85389E-10 3.41642E-13
8.04380E-10 3.41536E-13
9.32891E-10 3.41422E-13
1.07092E-09 3.41300E-13
1.21847E-09 3.41169E-13
1.37554E-09 3.41030E-13
1.54213E-09 3.40883E-13
1.71823E-09 3.40728E-13
1.90386E-09 3.40564E-13
2.09900E-09 3.40392E-13
2.30367E-09 3.40212E-13
2.51785E-09 3.40024E-13
2.74156E-09 3.39828E-13
2.97478E-09 3.39624E-13
3.21752E-09 3.39411E-13
3.46978E-09 3.39191E-13
3.73156E-09 3.38962E-13
4.00286E-09 3.38726E-13
4.28368E-09 3.38481E-13
4.57402E-09 3.38229E-13
4.87388E-09 3.37969E-13
5.18326E-09 3.37701E-13
5.50215E-09 3.37425E-13
5.83057E-09 3.37141E-13
6.16850E-09 3.36849E-13
6.51596E-09 3.36550E-13
6.87293E-09 3.36243E-13
7.23942E-09 3.35928E-13
7.61544E-09 3.35606E-13
1.18991E-08 3.31974E-13
1.71347E-08 3.27596E-13
2.33223E-08 3.22606E-13
3.04617E-08 3.16971E-13
3.85531E-08 3.10779E-13
4.75965E-08 3.04141E-13
5.75917E-08 2.97125E-13
6.85389E-08 2.89643E-13
8.04380E-08 2.81916E-13
9.32891E-08 2.74018E-13
1.07092E-07 2.65915E-13
1.21847E-07 2.57637E-13
1.37554E-07 2.49352E-13
1.54213E-07 2.41110E-13
1.71823E-07 2.32772E-13
1.90386E-07 2.24514E-13
2.09900E-07 2.16408E-13
2.30367E-07 2.08440E-13
2.51785E-07 2.00508E-13
2.74156E-07 1.92797E-13
2.97478E-07 1.85317E-13
3.21752E-07 1.77982E-13
3.46978E-07 1.70824E-13
3.73156E-07 1.63925E-13
4.00286E-07 1.57283E-13
4.28368E-07 1.50771E-13
4.57402E-07 1.44510E-13
4.87388E-07 1.38508E-13
5.18325E-07 1.32725E-13
5.50215E-07 1.27112E-13
5.83057E-07 1.21747E-13
6.16850E-07 1.16619E-13
6.51596E-07 1.11664E-13
6.87293E-07 1.06905E-13
7.23942E-07 1.02366E-13
7.61543E-07 9.80352E-14
1.18991E-06 6.35919E-14
1.71347E-06 4.11625E-14
2.33223E-06 2.78838E-14
3.04617E-06 1.90568E-14
3.85531E-06 1.34087E-14
4.75964E-06 9.71151E-15
5.75916E-06 7.21259E-15
6.85388E-06 5.47259E-15
8.04378E-06 4.25032E-15
9.32888E-06 3.36721E-15
1.07092E-05 2.71083E-15
1.21846E-05 2.21171E-15
1.37553E-05 1.82710E-15
1.54212E-05 1.52545E-15
1.71822E-05 1.28234E-15
1.90385E-05 1.08564E-15
2.09899E-05 9.25847E-16
2.30365E-05 7.93821E-16
2.51783E-05 6.83010E-16
2.74153E-05 5.90552E-16
2.97475E-05 5.12884E-16
3.21749E-05 4.46933E-16
3.46974E-05 3.90913E-16
3.73152E-05 3.43244E-16
4.00281E-05 3.02443E-16
4.28362E-05 2.67264E-16
4.57395E-05 2.37014E-16
4.87380E-05 2.10897E-16
5.18317E-05 1.88234E-16
5.50205E-05 1.68481E-16
5.83045E-05 1.51257E-16
6.16838E-05 1.36185E-16
6.51582E-05 1.22932E-16
6.87277E-05 1.11257E-16
7.23925E-05 1.00949E-16
7.61524E-05 9.18175E-17
9.21439E-05 6.42167E-17
1.09658E-04 4.63413E-17
1.28695E-04 3.43243E-17
1.49255E-04 2.59703E-17
1.71338E-04 2.00258E-17
1.94942E-04 1.56841E-17
2.20070E-04 1.24597E-17
2.46720E-04 1.00222E-17
2.74892E-04 8.14518E-18
3.04586E-04 6.68598E-18
3.35803E-04 5.53825E-18
3.68542E-04 4.62509E-18
4.02802E-04 3.89037E-18
4.38585E-04 3.29552E-18
4.75889E-04 2.80976E-18
5.14715E-04 2.40962E-18
5.55063E-04 2.07786E-18
5.96931E-04 1.80117E-18
6.40321E-04 1.56896E-18
6.85233E-04 1.37274E-18
7.31665E-04 1.20622E-18
7.79618E-04 1.06419E-18
8.29092E-04 9.42418E-19
8.80086E-04 8.37516E-19
9.32601E-04 7.46813E-19
9.86636E-04 6.68063E-19
1.04219E-03 5.99397E-19
1.09927E-03 5.39322E-19
1.15786E-03 4.86590E-19
1.21797E-03 4.40147E-19
1.27961E-03 3.99097E-19
1.34276E-03 3.62725E-19
1.40743E-03 3.30403E-19
1.47362E-03 3.01597E-19
1.54133E-03 2.75856E-19
1.61056E-03 2.52804E-19
1.68131E-03 2.32108E-19
1.75357E-03 2.13482E-19
1.82735E-03 1.96685E-19
1.90265E-03 1.81506E-19
1.97947E-03 1.67762E-19
2.05780E-03 1.55290E-19
2.13765E-03 1.43954E-19
2.21902E-03 1.33633E-19
2.30190E-03 1.24217E-19
2.38630E-03 1.15614E-19
2.47222E-03 1.07742E-19
2.55965E-03 1.00527E-19
2.64859E-03 9.39034E-20
2.73905E-03 8.78151E-20
2.83103E-03 8.22113E-20
2.92452E-03 7.70461E-20
3.01952E-03 7.22783E-20
3.11604E-03 6.78727E-20
3.21407E-03 6.37969E-20
3.31362E-03 6.00211E-20
3.41468E-03 5.65193E-20
3.51725E-03 5.32686E-20
3.62133E-03 5.02475E-20
3.72692E-03 4.74363E-20
3.83403E-03 4.48183E-20
3.94265E-03 4.23778E-20
4.05278E-03 4.01005E-20
4.16442E-03 3.79733E-20
4.27757E-03 3.59848E-20
4.39223E-03 3.41242E-20
4.50840E-03 3.23817E-20
4.62608E-03 3.07485E-20
4.74527E-03 2.92166E-20
4.86597E-03 2.77785E-20
4.98817E-03 2.64272E-20
5.11188E-03 2.51567E-20
5.23711E-03 2.39614E-20
5.36383E-03 2.28358E-20
5.49207E-03 2.17752E-20
5.62181E-03 2.07751E-20
5.75306E-03 1.98316E-20
5.88581E-03 1.89406E-20
6.02007E-03 1.80989E-20
6.15583E-03 1.73032E-20
6.29310E-03 1.65506E-20
6.43187E-03 1.58381E-20
6.57214E-03 1.51634E-20
6.71392E-03 1.45241E-20
6.85720E-03 1.39178E-20
7.00198E-03 1.33427E-20
7.14827E-03 1.27969E-20
7.29605E-03 1.22785E-20
7.44534E-03 1.17859E-20
7.59612E-03 1.13177E-20
7.97965E-03 1.02443E-20
8.37255E-03 9.29457E-21
8.77480E-03 8.45174E-21
9.18641E-03 7.70177E-21
9.60736E-03 7.03269E-21
1.00376E-02 6.43428E-21
1.04773E-02 5.89781E-21
1.09262E-02 5.41576E-21
1.13844E-02 4.98167E-21
1.18520E-02 4.58993E-21
1.23288E-02 4.23571E-21
1.28150E-02 3.91479E-21
1.33104E-02 3.62349E-21
1.38150E-02 3.35861E-21
1.43290E-02 3.11733E-21
1.48521E-02 2.89718E-21
1.53845E-02 2.69599E-21
1.59262E-02 2.51186E-21
1.64770E-02 2.34305E-21
1.70371E-02 2.18809E-21
1.76063E-02 2.04564E-21
1.81848E-02 1.91451E-21
1.87724E-02 1.79364E-21
1.93692E-02 1.68209E-21
1.99751E-02 1.57901E-21
2.05901E-02 1.48364E-21
2.12143E-02 1.39531E-21
2.18476E-02 1.31341E-21
2.24900E-02 1.23737E-21
2.31415E-02 1.16672E-21
2.38021E-02 1.10099E-21
2.44717E-02 1.03979E-21
2.51504E-02 9.82751E-22
2.58382E-02 9.29533E-22
2.65349E-02 8.79838E-22
2.72407E-02 8.33391E-22
2.79555E-02 7.89941E-22
2.86793E-02 7.49261E-22
2.94120E-02 7.11143E-22
3.01537E-02 6.75395E-22
3.09043E-02 6.41845E-22
3.16639E-02 6.10333E-22
3.24324E-02 5.80713E-22
3.32098E-02 5.52850E-22
3.39961E-02 5.26623E-22
3.47912E-02 5.01917E-22
3.55952E-02 4.78629E-22
3.64081E-02 4.56663E-22
3.72297E-02 4.35929E-22
3.80602E-02 4.16347E-22
3.88995E-02 3.97841E-22
3.97476E-02 3.80341E-22
4.06044E-02 3.63783E-22
4.14700E-02 3.48106E-22
4.23443E-02 3.33255E-22
4.32273E-02 3.19180E-22
4.41190E-02 3.05832E-22
4.50194E-02 2.93166E-22
4.59284E-02 2.81142E-22
4.68461E-02 2.69721E-22
4.87074E-02 2.48549E-22
5.06030E-02 2.29391E-22
5.25328E-02 2.12023E-22
5.44967E-02 1.96249E-22
5.64946E-02 1.81898E-22
5.85262E-02 1.68820E-22
6.05914E-02 1.56882E-22
6.26901E-02 1.45968E-22
6.48222E-02 1.35975E-22
6.69873E-02 1.26811E-22
6.91854E-02 1.18396E-22
7.14163E-02 1.10659E-22
7.36799E-02 1.03535E-22
7.59760E-02 9.69669E-23
7.83043E-02 9.09043E-23
8.06647E-02 8.53015E-23
8.30571E-02 8.01174E-23
8.54812E-02 7.53153E-23
8.79369E-02 7.08623E-23
9.04240E-02 6.67285E-23
9.29422E-02 6.28870E-23
9.54915E-02 5.93136E-23
9.80716E-02 5.59863E-23
1.00682E-01 5.28852E-23
1.03323E-01 4.99923E-23
1.05995E-01 4.72912E-23
1.08696E-01 4.47669E-23
1.11427E-01 4.24058E-23
1.14188E-01 4.01955E-23
1.16978E-01 3.81247E-23
1.19797E-01 3.61831E-23
1.22645E-01 3.43611E-23
1.25522E-01 3.26502E-23
1.28428E-01 3.10424E-23
1.31361E-01 2.95304E-23
1.34323E-01 2.81074E-23
1.37313E-01 2.67674E-23
1.40330E-01 2.55046E-23
1.43375E-01 2.43139E-23
1.46447E-01 2.31903E-23
1.49545E-01 2.21294E-23
1.52671E-01 2.11271E-23
1.55823E-01 2.01796E-23
1.59001E-01 1.92835E-23
1.62205E-01 1.84353E-23
1.65435E-01 1.76322E-23
1.68690E-01 1.68713E-23
1.71970E-01 1.61499E-23
1.75276E-01 1.54657E-23
1.78606E-01 1.48165E-23
1.81961E-01 1.42000E-23
1.85340E-01 1.36145E-23
1.88743E-01 1.30580E-23
1.92169E-01 1.25288E-23
1.95619E-01 1.20255E-23
1.99092E-01 1.15465E-23
2.02589E-01 1.10904E-23
2.06107E-01 1.06559E-23
2.09649E-01 1.02419E-23
2.13212E-01 9.84715E-24
2.16797E-01 9.47067E-24
2.20404E-01 9.11145E-24
2.24032E-01 8.76855E-24
2.27680E-01 8.44112E-24
2.31350E-01 8.12833E-24
2.35040E-01 7.82941E-24
2.38751E-01 7.54364E-24
2.42481E-01 7.27034E-24
2.46231E-01 7.00888E-24
2.50000E-01 6.75864E-24
2.53788E-01 6.51905E-24
2.57595E-01 6.28960E-24
2.61421E-01 6.06978E-24
2.65264E-01 5.85911E-24
2.69126E-01 5.65715E-24
2.73005E-01 5.46348E-24
2.76901E-01 5.27769E-24
2.80814E-01 5.09942E-24
2.84744E-01 4.92830E-24
2.88691E-01 4.76399E-24
2.92653E-01 4.60618E-24
2.96632E-01 4.45456E-24
3.00625E-01 4.30885E-24
3.04634E-01 4.16879E-24
3.08658E-01 4.03411E-24
3.12697E-01 3.90458E-24
3.16749E-01 3.77996E-24
3.20816E-01 3.66004E-24
3.24896E-01 3.54460E-24
3.28990E-01 3.43345E-24
3.33097E-01 3.32641E-24
3.37216E-01 3.22329E-24
3.41348E-01 3.12393E-24
3.45492E-01 3.02816E-24
3.49647E-01 2.93584E-24
3.53814E-01 2.84682E-24
3.57992E-01 2.76096E-24
3.62181E-01 2.67814E-24
3.66381E-01 2.59822E-24
3.70590E-01 2.52108E-24
3.74810E-01 2.44662E-24
3.79039E-01 2.37472E-24
3.83277E-01 2.30528E-24
3.87524E-01 2.23820E-24
3.91780E-01 2.17339E-24
3.96044E-01 2.11076E-24
4.00316E-01 2.05023E-24
4.04596E-01 1.99170E-24
4.08882E-01 1.93511E-24
4.13176E-01 1.88038E-24
4.17476E-01 1.82744E-24
4.21783E-01 1.77621E-24
4.26095E-01 1.72664E-24
4.30413E-01 1.67866E-24
4.34737E-01 1.63221E-24
4.39065E-01 1.58724E-24
4.43398E-01 1.54369E-24
4.47736E-01 1.50151E-24
4.52077E-01 1.46064E-24
4.56422E-01 1.42105E-24
4.60770E-01 1.38268E-24
4.65122E-01 1.34549E-24
4.69476E-01 1.30943E-24
4.73832E-01 1.27448E-24
4.78190E-01 1.24058E-24
4.82550E-01 1.20771E-24
4.86912E-01 1.17581E-24
4.91274E-01 1.14487E-24
4.95637E-01 1.11485E-24
5.00000E-01 1.08571E-24
5.04363E-01 1.05744E-24
5.08726E-01 1.02998E-24
5.13088E-01 1.00333E-24
5.17450E-01 9.77448E-25
5.21810E-01 9.52312E-25
5.26168E-01 9.27896E-25
5.30524E-01 9.04177E-25
5.34878E-01 8.81132E-25
5.39230E-01 8.58738E-25
5.43578E-01 8.36974E-25
5.47923E-01 8.15820E-25
5.52264E-01 7.95256E-25
5.56602E-01 7.75263E-25
5.60935E-01 7.55824E-25
5.65263E-01 7.36919E-25
5.69587E-01 7.18533E-25
5.73905E-01 7.00648E-25
5.78217E-01 6.83249E-25
5.82524E-01 6.66320E-25
5.86824E-01 6.49847E-25
5.91118E-01 6.33814E-25
5.95404E-01 6.18210E-25
5.99684E-01 6.03021E-25
6.03956E-01 5.88234E-25
6.08220E-01 5.73837E-25
6.12476E-01 5.59819E-25
6.16723E-01 5.46167E-25
6.20961E-01 5.32872E-25
6.25190E-01 5.19922E-25
6.29410E-01 5.07307E-25
6.33619E-01 4.95016E-25
6.37819E-01 4.83040E-25
6.42008E-01 4.71370E-25
6.46186E-01 4.59996E-25
6.50353E-01 4.48911E-25
6.54508E-01 4.38106E-25
6.58652E-01 4.27573E-25
6.62784E-01 4.17306E-25
6.66903E-01 4.07296E-25
6.71010E-01 3.97535E-25
6.75104E-01 3.88016E-25
6.79184E-01 3.78732E-25
6.83251E-01 3.69677E-25
6.87303E-01 3.60844E-25
6.91342E-01 3.52227E-25
6.95366E-01 3.43821E-25
6.99375E-01 3.35619E-25
7.03368E-01 3.27616E-25
7.07347E-01 3.19807E-25
7.11309E-01 3.12186E-25
7.15256E-01 3.04748E-25
7.19186E-01 2.97488E-25
7.23099E-01 2.90402E-25
7.26995E-01 2.83485E-25
7.30874E-01 2.76731E-25
7.34736E-01 2.70138E-25
7.38579E-01 2.63700E-25
7.42405E-01 2.57414E-25
7.46212E-01 2.51275E-25
7.50000E-01 2.45280E-25
7.53769E-01 2.39425E-25
7.57519E-01 2.33706E-25
7.61249E-01 2.28120E-25
7.64960E-01 2.22664E-25
7.68650E-01 2.17334E-25
7.72320E-01 2.12128E-25
7.75968E-01 2.07041E-25
7.79596E-01 2.02071E-25
7.83203E-01 1.97215E-25
7.86788E-01 1.92470E-25
7.90351E-01 1.87833E-25
7.93893E-01 1.83303E-25
7.97411E-01 1.78875E-25
8.00908E-01 1.74548E-25
8.04381E-01 1.70319E-25
8.07831E-01 1.66185E-25
8.11257E-01 1.62145E-25
8.14660E-01 1.58197E-25
8.18039E-01 1.54337E-25
8.21394E-01 1.50564E-25
8.24724E-01 1.46876E-25
8.28030E-01 1.43271E-25
8.31310E-01 1.39747E-25
8.34565E-01 1.36302E-25
8.37795E-01 1.32934E-25
8.40999E-01 1.29642E-25
8.44177E-01 1.26423E-25
8.47329E-01 1.23276E-25
8.50455E-01 1.20200E-25
8.53553E-01 1.17192E-25
8.56625E-01 1.14252E-25
8.59670E-01 1.11377E-25
8.62687E-01 1.08567E-25
8.65677E-01 1.05819E-25
8.68639E-01 1.03133E-25
8.71572E-01 1.00507E-25
8.74478E-01 9.79395E-26
8.77355E-01 9.54297E-26
8.80203E-01 9.29763E-26
8.83022E-01 9.05780E-26
8.85812E-01 8.82336E-26
8.88573E-01 8.59420E-26
8.91304E-01 8.37021E-26
8.94005E-01 8.15129E-26
8.96677E-01 7.93732E-26
8.99318E-01 7.72820E-26
9.01928E-01 7.52384E-26
9.04508E-01 7.32414E-26
9.07058E-01 7.12901E-26
9.09576E-01 6.93836E-26
9.12063E-01 6.75209E-26
9.14519E-01 6.57012E-26
9.16943E-01 6.39236E-26
9.19335E-01 6.21875E-26
9.21696E-01 6.04919E-26
9.24024E-01 5.88361E-26
9.26320E-01 5.72193E-26
9.28584E-01 5.56409E-26
9.30815E-01 5.41000E-26
9.33013E-01 5.25961E-26
9.35178E-01 5.11285E-26
9.37310E-01 4.96965E-26
9.39409E-01 4.82994E-26
9.41474E-01 4.69367E-26
9.43505E-01 4.56078E-26
9.45503E-01 4.43120E-26
9.47467E-01 4.30489E-26
9.49397E-01 4.18178E-26
9.51293E-01 4.06183E-26
9.53154E-01 3.94498E-26
9.54981E-01 3.83119E-26
9.56773E-01 3.72039E-26
9.58530E-01 3.61256E-26
9.60252E-01 3.50763E-26
9.61940E-01 3.40558E-26
9.63592E-01 3.30634E-26
9.65209E-01 3.20989E-26
9.66790E-01 3.11618E-26
9.68336E-01 3.02517E-26
9.69846E-01 2.93683E-26
9.71321E-01 2.85111E-26
9.72759E-01 2.76798E-26
9.74162E-01 2.68742E-26
9.75528E-01 2.60938E-26
9.76858E-01 2.53383E-26
9.78152E-01 2.46074E-26
9.79410E-01 2.39008E-26
9.80631E-01 2.32183E-26
9.81815E-01 2.25595E-26
9.82963E-01 2.19242E-26
9.84074E-01 2.13121E-26
9.85148E-01 2.07230E-26
9.86185E-01 2.01567E-26
9.87185E-01 1.96128E-26
9.88148E-01 1.90913E-26
9.89074E-01 1.85918E-26
9.89962E-01 1.81142E-26
9.90814E-01 1.76583E-26
9.91627E-01 1.72239E-26
9.92404E-01 1.68109E-26
9.93143E-01 1.64190E-26
9.93844E-01 1.60482E-26
9.94508E-01 1.56982E-26
9.95134E-01 1.53689E-26
9.95722E-01 1.50603E-26
9.96273E-01 1.47721E-26
9.96786E-01 1.45043E-26
9.97261E-01 1.42567E-26
9.97698E-01 1.40293E-26
9.98097E-01 1.38220E-26
9.98459E-01 1.36347E-26
9.98782E-01 1.34673E-26
9.99067E-01 1.33197E-26
9.99315E-01 1.31919E-26
9.99524E-01 1.30839E-26
9.99695E-01 1.29956E-26
9.99829E-01 1.29269E-26
9.99924E-01 1.28779E-26
9.99981E-01 1.28485E-26
1.00000E+00 1.28387E-26
