 #
 # Subroutine ELSEPA. Elastic scattering of electrons and positrons
 #                    by neutral atoms and positive ions
 #
 # Projectile: positron
 # Kinetic energy = 1.00000E+09 eV = 3.67493E+07 a.u.
 #
 # WARNING: High-energy factorization with free-atom DF screening.
 #          Absorption, polarization and exchange corrections are
 #          switched off.
 #          Phase shifts are calculated for the bare nucleus.
 #          Scattering amplitudes are not evaluated.
 #
 # Element: Pd,  Z =  46,  atomic weight = 1.06420E+02 g/mol
 #
 # Nuclear model: Fermi distribution
 #                Average radius = 5.07059E-13 cm
 #                Skin thickness = 5.46000E-14 cm
 #
 # Number of electrons = 46
 #
 # Total elastic cross section = 4.04659E-18 cm**2 = 1.44506E-01 a0**2
 # 1st transport cross section = 4.17562E-27 cm**2 = 1.49114E-10 a0**2
 # 2nd transport cross section = 1.25256E-26 cm**2 = 4.47296E-10 a0**2
 #
 #
 # Differential cross section:                       MU=(1-COS(THETA))/2
 #
 #  THETA        MU          DCS          DCS        Sherman      error
 #  (deg)                 (cm**2/sr)   (a0**2/sr)    function
 #----------------------------------------------------------------------
0.00000E+00 2.12957E-08
7.61557E-13 1.89012E-08
1.18994E-12 1.77539E-08
1.71346E-12 1.65053E-08
2.33225E-12 1.52077E-08
3.04617E-12 1.39135E-08
3.85530E-12 1.26579E-08
4.75964E-12 1.14651E-08
5.75917E-12 1.03499E-08
6.85391E-12 9.31629E-09
8.04379E-12 8.36997E-09
9.32893E-12 7.51128E-09
1.07092E-11 6.73632E-09
1.21847E-11 6.03968E-09
1.37554E-11 5.41524E-09
1.54213E-11 4.85495E-09
1.71823E-11 4.35507E-09
1.90386E-11 3.90949E-09
2.09900E-11 3.51255E-09
2.30367E-11 3.15687E-09
2.51785E-11 2.81500E-09
2.74156E-11 2.52520E-09
2.97478E-11 2.27806E-09
3.21752E-11 2.06609E-09
3.46979E-11 1.88329E-09
3.73157E-11 1.70726E-09
4.00286E-11 1.54304E-09
4.28368E-11 1.40057E-09
4.57402E-11 1.27639E-09
4.87388E-11 1.16770E-09
5.18325E-11 1.07116E-09
5.50215E-11 9.76968E-10
5.83057E-11 8.93971E-10
6.16850E-11 8.20575E-10
6.51595E-11 7.55449E-10
6.87293E-11 6.97471E-10
7.23943E-11 6.43514E-10
7.61544E-11 5.93968E-10
1.18991E-10 2.94549E-10
1.71347E-10 1.65987E-10
2.33223E-10 1.02083E-10
3.04617E-10 6.64839E-11
3.85531E-10 4.50114E-11
4.75965E-10 3.13740E-11
5.75917E-10 2.24132E-11
6.85389E-10 1.63522E-11
8.04380E-10 1.21837E-11
9.32891E-10 9.25667E-12
1.07092E-09 7.15743E-12
1.21847E-09 5.62250E-12
1.37554E-09 4.48069E-12
1.54213E-09 3.61750E-12
1.71823E-09 2.95502E-12
1.90386E-09 2.43900E-12
2.09900E-09 2.03167E-12
2.30367E-09 1.70632E-12
2.51785E-09 1.44310E-12
2.74156E-09 1.23020E-12
2.97478E-09 1.05423E-12
3.21752E-09 9.09218E-13
3.46978E-09 7.87908E-13
3.73156E-09 6.86228E-13
4.00286E-09 6.00371E-13
4.28368E-09 5.27393E-13
4.57402E-09 4.65239E-13
4.87388E-09 4.11761E-13
5.18326E-09 3.65867E-13
5.50215E-09 3.25995E-13
5.83057E-09 2.91505E-13
6.16850E-09 2.61333E-13
6.51596E-09 2.35006E-13
6.87293E-09 2.11861E-13
7.23942E-09 1.91499E-13
7.61544E-09 1.73512E-13
1.18991E-08 7.24332E-14
1.71347E-08 3.53605E-14
2.33223E-08 1.92646E-14
3.04617E-08 1.13766E-14
3.85531E-08 7.14547E-15
4.75965E-08 4.71122E-15
5.75917E-08 3.23076E-15
6.85389E-08 2.28860E-15
8.04380E-08 1.66604E-15
9.32891E-08 1.24138E-15
1.07092E-07 9.43714E-16
1.21847E-07 7.30101E-16
1.37554E-07 5.73609E-16
1.54213E-07 4.56861E-16
1.71823E-07 3.68341E-16
1.90386E-07 3.00246E-16
2.09900E-07 2.47175E-16
2.30367E-07 2.05321E-16
2.51785E-07 1.71959E-16
2.74156E-07 1.45102E-16
2.97478E-07 1.23287E-16
3.21752E-07 1.05420E-16
3.46978E-07 9.06741E-17
3.73156E-07 7.84177E-17
4.00286E-07 6.81632E-17
4.28368E-07 5.95306E-17
4.57402E-07 5.22220E-17
4.87388E-07 4.60010E-17
5.18325E-07 4.06790E-17
5.50215E-07 3.61047E-17
5.83057E-07 3.21555E-17
6.16850E-07 2.87316E-17
6.51596E-07 2.57514E-17
6.87293E-07 2.31477E-17
7.23942E-07 2.08648E-17
7.61543E-07 1.88565E-17
1.18991E-06 7.72654E-18
1.71347E-06 3.72658E-18
2.33223E-06 2.01151E-18
3.04617E-06 1.17903E-18
3.85531E-06 7.35997E-19
4.75964E-06 4.82832E-19
5.75916E-06 3.29738E-19
6.85388E-06 2.32786E-19
8.04378E-06 1.68984E-19
9.32888E-06 1.25616E-19
1.07092E-05 9.53078E-20
1.21846E-05 7.36116E-20
1.37553E-05 5.77518E-20
1.54212E-05 4.59415E-20
1.71822E-05 3.70011E-20
1.90385E-05 3.01260E-20
2.09899E-05 2.47879E-20
2.30365E-05 2.05798E-20
2.51783E-05 1.72256E-20
2.74153E-05 1.45257E-20
2.97475E-05 1.23335E-20
3.21749E-05 1.05395E-20
3.46974E-05 9.06048E-21
3.73152E-05 7.83246E-21
4.00281E-05 6.80599E-21
4.28362E-05 5.94245E-21
4.57395E-05 5.21157E-21
4.87380E-05 4.58950E-21
5.18317E-05 4.05733E-21
5.50205E-05 3.59993E-21
5.83045E-05 3.20513E-21
6.16838E-05 2.86298E-21
6.51582E-05 2.56532E-21
6.87277E-05 2.30540E-21
7.23925E-05 2.07761E-21
7.61524E-05 1.84482E-21
9.21439E-05 1.25079E-21
1.09658E-04 8.75667E-22
1.28695E-04 6.29739E-22
1.49255E-04 4.63212E-22
1.71338E-04 3.47400E-22
1.94942E-04 2.64925E-22
2.20070E-04 2.04992E-22
2.46720E-04 1.60656E-22
2.74892E-04 1.27331E-22
3.04586E-04 1.01933E-22
3.35803E-04 8.23301E-23
3.68542E-04 6.70294E-23
4.02802E-04 5.49645E-23
4.38585E-04 4.53630E-23
4.75889E-04 3.76582E-23
5.14715E-04 3.14276E-23
5.55063E-04 2.63544E-23
5.96931E-04 2.21969E-23
6.40321E-04 1.87699E-23
6.85233E-04 1.59299E-23
7.31665E-04 1.35644E-23
7.79618E-04 1.15854E-23
8.29092E-04 9.92253E-24
8.80086E-04 8.51992E-24
9.32601E-04 7.33253E-24
9.86636E-04 6.32397E-24
1.04219E-03 5.46467E-24
1.09927E-03 4.73043E-24
1.15786E-03 4.10139E-24
1.21797E-03 3.56114E-24
1.27961E-03 3.09611E-24
1.34276E-03 2.69499E-24
1.40743E-03 2.34831E-24
1.47362E-03 2.04815E-24
1.54133E-03 1.78785E-24
1.61056E-03 1.56177E-24
1.68131E-03 1.36515E-24
1.75357E-03 1.19392E-24
1.82735E-03 1.04464E-24
1.90265E-03 9.14367E-25
1.97947E-03 8.00566E-25
2.05780E-03 7.01074E-25
2.13765E-03 6.14030E-25
2.21902E-03 5.37826E-25
2.30190E-03 4.71076E-25
2.38630E-03 4.12581E-25
2.47222E-03 3.61298E-25
2.55965E-03 3.16326E-25
2.64859E-03 2.76880E-25
2.73905E-03 2.42274E-25
2.83103E-03 2.11914E-25
2.92452E-03 1.85278E-25
3.01952E-03 1.61911E-25
3.11604E-03 1.41415E-25
3.21407E-03 1.23441E-25
3.31362E-03 1.07684E-25
3.41468E-03 9.38752E-26
3.51725E-03 8.17785E-26
3.62133E-03 7.11870E-26
3.72692E-03 6.19187E-26
3.83403E-03 5.38135E-26
3.94265E-03 4.67304E-26
4.05278E-03 4.05453E-26
4.16442E-03 3.51488E-26
4.27757E-03 3.04447E-26
4.39223E-03 2.63483E-26
4.50840E-03 2.27846E-26
4.62608E-03 1.96881E-26
4.74527E-03 1.70005E-26
4.86597E-03 1.46708E-26
4.98817E-03 1.26541E-26
5.11188E-03 1.09108E-26
5.23711E-03 9.40594E-27
5.36383E-03 8.10893E-27
5.49207E-03 6.99281E-27
5.62181E-03 6.03393E-27
5.75306E-03 5.21150E-27
5.88581E-03 4.50731E-27
6.02007E-03 3.90538E-27
6.15583E-03 3.39175E-27
6.29310E-03 2.95420E-27
6.43187E-03 2.58205E-27
6.57214E-03 2.26601E-27
6.71392E-03 1.99798E-27
6.85720E-03 1.77091E-27
7.00198E-03 1.57871E-27
7.14827E-03 1.41608E-27
7.29605E-03 1.27846E-27
7.44534E-03 1.16192E-27
7.59612E-03 1.06306E-27
7.97965E-03 8.75279E-28
8.37255E-03 7.46223E-28
8.77480E-03 6.52876E-28
9.18641E-03 5.80490E-28
9.60736E-03 5.19992E-28
1.00376E-02 4.66111E-28
1.04773E-02 4.16055E-28
1.09262E-02 3.68579E-28
1.13844E-02 3.23346E-28
1.18520E-02 2.80496E-28
1.23288E-02 2.40370E-28
1.28150E-02 2.03339E-28
1.33104E-02 1.69708E-28
1.38150E-02 1.39668E-28
1.43290E-02 1.13285E-28
1.48521E-02 9.05046E-29
1.53845E-02 7.11699E-29
1.59262E-02 5.50454E-29
1.64770E-02 4.18394E-29
1.70371E-02 3.12276E-29
1.76063E-02 2.28717E-29
1.81848E-02 1.64366E-29
1.87724E-02 1.16021E-29
1.93692E-02 8.07221E-30
1.99751E-02 5.58095E-30
2.05901E-02 3.89525E-30
2.12143E-02 2.81606E-30
2.18476E-02 2.17747E-30
2.24900E-02 1.84474E-30
2.31415E-02 1.71147E-30
2.38021E-02 1.69623E-30
2.44717E-02 1.73902E-30
2.51504E-02 1.79776E-30
2.58382E-02 1.84485E-30
2.65349E-02 1.86411E-30
2.72407E-02 1.84802E-30
2.79555E-02 1.79530E-30
2.86793E-02 1.70893E-30
2.94120E-02 1.59452E-30
3.01537E-02 1.45906E-30
3.09043E-02 1.30992E-30
3.16639E-02 1.15420E-30
3.24324E-02 9.98240E-31
3.32098E-02 8.47364E-31
3.39961E-02 7.05749E-31
3.47912E-02 5.76417E-31
3.55952E-02 4.61297E-31
3.64081E-02 3.61346E-31
3.72297E-02 2.76703E-31
3.80602E-02 2.06846E-31
3.88995E-02 1.50762E-31
3.97476E-02 1.07094E-31
4.06044E-02 7.42839E-32
4.14700E-02 5.06829E-32
4.23443E-02 3.46506E-32
4.32273E-02 2.46268E-32
4.41190E-02 1.91835E-32
4.50194E-02 1.70597E-32
4.59284E-02 1.71789E-32
4.68461E-02 1.86549E-32
4.87074E-02 2.30410E-32
5.06030E-02 2.65520E-32
5.25328E-02 2.76295E-32
5.44967E-02 2.61252E-32
5.64946E-02 2.26627E-32
5.85262E-02 1.81457E-32
6.05914E-02 1.34329E-32
6.26901E-02 9.16711E-33
6.48222E-02 5.72181E-33
6.69873E-02 3.22427E-33
6.91854E-02 1.61851E-33
7.14163E-02 7.39154E-34
7.36799E-02 3.77730E-34
7.59760E-02 3.32002E-34
7.83043E-02 4.35874E-34
8.06647E-02 5.71956E-34
8.30571E-02 6.71206E-34
8.54812E-02 7.04636E-34
8.79369E-02 6.71541E-34
9.04240E-02 5.87604E-34
9.29422E-02 4.74927E-34
9.54915E-02 3.54958E-34
9.80716E-02 2.44390E-34
1.00682E-01 1.53570E-34
1.03323E-01 8.67264E-35
1.05995E-01 4.32491E-35
1.08696E-01 1.93935E-35
1.11427E-01 9.93805E-36
1.14188E-01 9.51572E-36
1.16978E-01 1.35032E-35
1.19797E-01 1.84741E-35
1.22645E-01 2.22955E-35
1.25522E-01 2.39795E-35
1.28428E-01 2.34027E-35
1.31361E-01 2.09881E-35
1.34323E-01 1.74144E-35
1.37313E-01 1.33917E-35
1.40330E-01 9.51528E-36
1.43375E-01 6.19462E-36
1.46447E-01 3.64000E-36
1.49545E-01 1.89047E-36
1.52671E-01 8.60886E-37
1.55823E-01 3.95021E-37
1.59001E-01 3.12342E-37
1.62205E-01 4.43353E-37
1.65435E-01 6.51221E-37
1.68690E-01 8.41045E-37
1.71970E-01 9.59425E-37
1.75276E-01 9.87826E-37
1.78606E-01 9.32658E-37
1.81961E-01 8.15173E-37
1.85340E-01 6.62325E-37
1.88743E-01 5.00052E-37
1.92169E-01 3.49050E-37
1.95619E-01 2.22866E-37
1.99092E-01 1.27866E-37
2.02589E-01 6.43553E-38
2.06107E-01 1.00000E-45
2.09649E-01 1.00000E-45
2.13212E-01 1.00000E-45
2.16797E-01 1.00000E-45
2.20404E-01 1.00000E-45
2.24032E-01 1.00000E-45
2.27680E-01 1.00000E-45
2.31350E-01 1.00000E-45
2.35040E-01 1.00000E-45
2.38751E-01 1.00000E-45
2.42481E-01 1.00000E-45
2.46231E-01 1.00000E-45
2.50000E-01 1.00000E-45
2.53788E-01 1.00000E-45
2.57595E-01 1.00000E-45
2.61421E-01 1.00000E-45
2.65264E-01 1.00000E-45
2.69126E-01 1.00000E-45
2.73005E-01 1.00000E-45
2.76901E-01 1.00000E-45
2.80814E-01 1.00000E-45
2.84744E-01 1.00000E-45
2.88691E-01 1.00000E-45
2.92653E-01 1.00000E-45
2.96632E-01 1.00000E-45
3.00625E-01 1.00000E-45
3.04634E-01 1.00000E-45
3.08658E-01 1.00000E-45
3.12697E-01 1.00000E-45
3.16749E-01 1.00000E-45
3.20816E-01 1.00000E-45
3.24896E-01 1.00000E-45
3.28990E-01 1.00000E-45
3.33097E-01 1.00000E-45
3.37216E-01 1.00000E-45
3.41348E-01 1.00000E-45
3.45492E-01 1.00000E-45
3.49647E-01 1.00000E-45
3.53814E-01 1.00000E-45
3.57992E-01 1.00000E-45
3.62181E-01 1.00000E-45
3.66381E-01 1.00000E-45
3.70590E-01 1.00000E-45
3.74810E-01 1.00000E-45
3.79039E-01 1.00000E-45
3.83277E-01 1.00000E-45
3.87524E-01 1.00000E-45
3.91780E-01 1.00000E-45
3.96044E-01 1.00000E-45
4.00316E-01 1.00000E-45
4.04596E-01 1.00000E-45
4.08882E-01 1.00000E-45
4.13176E-01 1.00000E-45
4.17476E-01 1.00000E-45
4.21783E-01 1.00000E-45
4.26095E-01 1.00000E-45
4.30413E-01 1.00000E-45
4.34737E-01 1.00000E-45
4.39065E-01 1.00000E-45
4.43398E-01 1.00000E-45
4.47736E-01 1.00000E-45
4.52077E-01 1.00000E-45
4.56422E-01 1.00000E-45
4.60770E-01 1.00000E-45
4.65122E-01 1.00000E-45
4.69476E-01 1.00000E-45
4.73832E-01 1.00000E-45
4.78190E-01 1.00000E-45
4.82550E-01 1.00000E-45
4.86912E-01 1.00000E-45
4.91274E-01 1.00000E-45
4.95637E-01 1.00000E-45
5.00000E-01 1.00000E-45
5.04363E-01 1.00000E-45
5.08726E-01 1.00000E-45
5.13088E-01 1.00000E-45
5.17450E-01 1.00000E-45
5.21810E-01 1.00000E-45
5.26168E-01 1.00000E-45
5.30524E-01 1.00000E-45
5.34878E-01 1.00000E-45
5.39230E-01 1.00000E-45
5.43578E-01 1.00000E-45
5.47923E-01 1.00000E-45
5.52264E-01 1.00000E-45
5.56602E-01 1.00000E-45
5.60935E-01 1.00000E-45
5.65263E-01 1.00000E-45
5.69587E-01 1.00000E-45
5.73905E-01 1.00000E-45
5.78217E-01 1.00000E-45
5.82524E-01 1.00000E-45
5.86824E-01 1.00000E-45
5.91118E-01 1.00000E-45
5.95404E-01 1.00000E-45
5.99684E-01 1.00000E-45
6.03956E-01 1.00000E-45
6.08220E-01 1.00000E-45
6.12476E-01 1.00000E-45
6.16723E-01 1.00000E-45
6.20961E-01 1.00000E-45
6.25190E-01 1.00000E-45
6.29410E-01 1.00000E-45
6.33619E-01 1.00000E-45
6.37819E-01 1.00000E-45
6.42008E-01 1.00000E-45
6.46186E-01 1.00000E-45
6.50353E-01 1.00000E-45
6.54508E-01 1.00000E-45
6.58652E-01 1.00000E-45
6.62784E-01 1.00000E-45
6.66903E-01 1.00000E-45
6.71010E-01 1.00000E-45
6.75104E-01 1.00000E-45
6.79184E-01 1.00000E-45
6.83251E-01 1.00000E-45
6.87303E-01 1.00000E-45
6.91342E-01 1.00000E-45
6.95366E-01 1.00000E-45
6.99375E-01 1.00000E-45
7.03368E-01 1.00000E-45
7.07347E-01 1.00000E-45
7.11309E-01 1.00000E-45
7.15256E-01 1.00000E-45
7.19186E-01 1.00000E-45
7.23099E-01 1.00000E-45
7.26995E-01 1.00000E-45
7.30874E-01 1.00000E-45
7.34736E-01 1.00000E-45
7.38579E-01 1.00000E-45
7.42405E-01 1.00000E-45
7.46212E-01 1.00000E-45
7.50000E-01 1.00000E-45
7.53769E-01 1.00000E-45
7.57519E-01 1.00000E-45
7.61249E-01 1.00000E-45
7.64960E-01 1.00000E-45
7.68650E-01 1.00000E-45
7.72320E-01 1.00000E-45
7.75968E-01 1.00000E-45
7.79596E-01 1.00000E-45
7.83203E-01 1.00000E-45
7.86788E-01 1.00000E-45
7.90351E-01 1.00000E-45
7.93893E-01 1.00000E-45
7.97411E-01 1.00000E-45
8.00908E-01 1.00000E-45
8.04381E-01 1.00000E-45
8.07831E-01 1.00000E-45
8.11257E-01 1.00000E-45
8.14660E-01 1.00000E-45
8.18039E-01 1.00000E-45
8.21394E-01 1.00000E-45
8.24724E-01 1.00000E-45
8.28030E-01 1.00000E-45
8.31310E-01 1.00000E-45
8.34565E-01 1.00000E-45
8.37795E-01 1.00000E-45
8.40999E-01 1.00000E-45
8.44177E-01 1.00000E-45
8.47329E-01 1.00000E-45
8.50455E-01 1.00000E-45
8.53553E-01 1.00000E-45
8.56625E-01 1.00000E-45
8.59670E-01 1.00000E-45
8.62687E-01 1.00000E-45
8.65677E-01 1.00000E-45
8.68639E-01 1.00000E-45
8.71572E-01 1.00000E-45
8.74478E-01 1.00000E-45
8.77355E-01 1.00000E-45
8.80203E-01 1.00000E-45
8.83022E-01 1.00000E-45
8.85812E-01 1.00000E-45
8.88573E-01 1.00000E-45
8.91304E-01 1.00000E-45
8.94005E-01 1.00000E-45
8.96677E-01 1.00000E-45
8.99318E-01 1.00000E-45
9.01928E-01 1.00000E-45
9.04508E-01 1.00000E-45
9.07058E-01 1.00000E-45
9.09576E-01 1.00000E-45
9.12063E-01 1.00000E-45
9.14519E-01 1.00000E-45
9.16943E-01 1.00000E-45
9.19335E-01 1.00000E-45
9.21696E-01 1.00000E-45
9.24024E-01 1.00000E-45
9.26320E-01 1.00000E-45
9.28584E-01 1.00000E-45
9.30815E-01 1.00000E-45
9.33013E-01 1.00000E-45
9.35178E-01 1.00000E-45
9.37310E-01 1.00000E-45
9.39409E-01 1.00000E-45
9.41474E-01 1.00000E-45
9.43505E-01 1.00000E-45
9.45503E-01 1.00000E-45
9.47467E-01 1.00000E-45
9.49397E-01 1.00000E-45
9.51293E-01 1.00000E-45
9.53154E-01 1.00000E-45
9.54981E-01 1.00000E-45
9.56773E-01 1.00000E-45
9.58530E-01 1.00000E-45
9.60252E-01 1.00000E-45
9.61940E-01 1.00000E-45
9.63592E-01 1.00000E-45
9.65209E-01 1.00000E-45
9.66790E-01 1.00000E-45
9.68336E-01 1.00000E-45
9.69846E-01 1.00000E-45
9.71321E-01 1.00000E-45
9.72759E-01 1.00000E-45
9.74162E-01 1.00000E-45
9.75528E-01 1.00000E-45
9.76858E-01 1.00000E-45
9.78152E-01 1.00000E-45
9.79410E-01 1.00000E-45
9.80631E-01 1.00000E-45
9.81815E-01 1.00000E-45
9.82963E-01 1.00000E-45
9.84074E-01 1.00000E-45
9.85148E-01 1.00000E-45
9.86185E-01 1.00000E-45
9.87185E-01 1.00000E-45
9.88148E-01 1.00000E-45
9.89074E-01 1.00000E-45
9.89962E-01 1.00000E-45
9.90814E-01 1.00000E-45
9.91627E-01 1.00000E-45
9.92404E-01 1.00000E-45
9.93143E-01 1.00000E-45
9.93844E-01 1.00000E-45
9.94508E-01 1.00000E-45
9.95134E-01 1.00000E-45
9.95722E-01 1.00000E-45
9.96273E-01 1.00000E-45
9.96786E-01 1.00000E-45
9.97261E-01 1.00000E-45
9.97698E-01 1.00000E-45
9.98097E-01 1.00000E-45
9.98459E-01 1.00000E-45
9.98782E-01 1.00000E-45
9.99067E-01 1.00000E-45
9.99315E-01 1.00000E-45
9.99524E-01 1.00000E-45
9.99695E-01 1.00000E-45
9.99829E-01 1.00000E-45
9.99924E-01 1.00000E-45
9.99981E-01 1.00000E-45
1.00000E+00 1.00000E-45
