 #
 # Subroutine ELSEPA. Elastic scattering of electrons and positrons
 #                    by neutral atoms and positive ions
 #
 # Projectile: positron
 # Kinetic energy = 3.00000E+07 eV = 1.10248E+06 a.u.
 #
 # WARNING: High-energy factorization with free-atom DF screening.
 #          Absorption, polarization and exchange corrections are
 #          switched off.
 #          Phase shifts are calculated for the bare nucleus.
 #          Scattering amplitudes are not evaluated.
 #
 # Element: Pd,  Z =  46,  atomic weight = 1.06420E+02 g/mol
 #
 # Nuclear model: Fermi distribution
 #                Average radius = 5.07059E-13 cm
 #                Skin thickness = 5.46000E-14 cm
 #
 # Number of electrons = 46
 #
 # Total elastic cross section = 4.05386E-18 cm**2 = 1.44766E-01 a0**2
 # 1st transport cross section = 3.94662E-24 cm**2 = 1.40937E-07 a0**2
 # 2nd transport cross section = 1.15211E-23 cm**2 = 4.11426E-07 a0**2
 #
 #
 # Differential cross section:                       MU=(1-COS(THETA))/2
 #
 #  THETA        MU          DCS          DCS        Sherman      error
 #  (deg)                 (cm**2/sr)   (a0**2/sr)    function
 #----------------------------------------------------------------------
0.00000E+00 1.98044E-11
7.61557E-13 1.98020E-11
1.18994E-12 1.98007E-11
1.71346E-12 1.97991E-11
2.33225E-12 1.97972E-11
3.04617E-12 1.97950E-11
3.85530E-12 1.97926E-11
4.75964E-12 1.97899E-11
5.75917E-12 1.97868E-11
6.85391E-12 1.97835E-11
8.04379E-12 1.97799E-11
9.32893E-12 1.97761E-11
1.07092E-11 1.97719E-11
1.21847E-11 1.97675E-11
1.37554E-11 1.97627E-11
1.54213E-11 1.97577E-11
1.71823E-11 1.97524E-11
1.90386E-11 1.97469E-11
2.09900E-11 1.97410E-11
2.30367E-11 1.97349E-11
2.51785E-11 1.97285E-11
2.74156E-11 1.97218E-11
2.97478E-11 1.97148E-11
3.21752E-11 1.97075E-11
3.46979E-11 1.97000E-11
3.73157E-11 1.96922E-11
4.00286E-11 1.96841E-11
4.28368E-11 1.96757E-11
4.57402E-11 1.96671E-11
4.87388E-11 1.96581E-11
5.18325E-11 1.96489E-11
5.50215E-11 1.96395E-11
5.83057E-11 1.96297E-11
6.16850E-11 1.96197E-11
6.51595E-11 1.96094E-11
6.87293E-11 1.95989E-11
7.23943E-11 1.95880E-11
7.61544E-11 1.95769E-11
1.18991E-10 1.94512E-11
1.71347E-10 1.92995E-11
2.33223E-10 1.91229E-11
3.04617E-10 1.89206E-11
3.85531E-10 1.86999E-11
4.75965E-10 1.84537E-11
5.75917E-10 1.81923E-11
6.85389E-10 1.79101E-11
8.04380E-10 1.76139E-11
9.32891E-10 1.73031E-11
1.07092E-09 1.69783E-11
1.21847E-09 1.66464E-11
1.37554E-09 1.62993E-11
1.54213E-09 1.59529E-11
1.71823E-09 1.55899E-11
1.90386E-09 1.52306E-11
2.09900E-09 1.48622E-11
2.30367E-09 1.44952E-11
2.51785E-09 1.41268E-11
2.74156E-09 1.37570E-11
2.97478E-09 1.33930E-11
3.21752E-09 1.30246E-11
3.46978E-09 1.26680E-11
3.73156E-09 1.23049E-11
4.00286E-09 1.19544E-11
4.28368E-09 1.16038E-11
4.57402E-09 1.12618E-11
4.87388E-09 1.09254E-11
5.18326E-09 1.05941E-11
5.50215E-09 1.02731E-11
5.83057E-09 9.95378E-12
6.16850E-09 9.64840E-12
6.51596E-09 9.34276E-12
6.87293E-09 9.05042E-12
7.23942E-09 8.76198E-12
7.61544E-09 8.48323E-12
1.18991E-08 6.09887E-12
1.71347E-08 4.37175E-12
2.33223E-08 3.14913E-12
3.04617E-08 2.25346E-12
3.85531E-08 1.68287E-12
4.75965E-08 1.24362E-12
5.75917E-08 9.47267E-13
6.85389E-08 7.26418E-13
8.04380E-08 5.68325E-13
9.32891E-08 4.50609E-13
1.07092E-07 3.62564E-13
1.21847E-07 2.95942E-13
1.37554E-07 2.44239E-13
1.54213E-07 2.04237E-13
1.71823E-07 1.72125E-13
1.90386E-07 1.46610E-13
2.09900E-07 1.25704E-13
2.30367E-07 1.08591E-13
2.51785E-07 9.43510E-14
2.74156E-07 8.23774E-14
2.97478E-07 7.23160E-14
3.21752E-07 6.36543E-14
3.46978E-07 5.63310E-14
3.73156E-07 4.99101E-14
4.00286E-07 4.44229E-14
4.28368E-07 3.96079E-14
4.57402E-07 3.54275E-14
4.87388E-07 3.17605E-14
5.18325E-07 2.85352E-14
5.50215E-07 2.57070E-14
5.83057E-07 2.31956E-14
6.16850E-07 2.09916E-14
6.51596E-07 1.90131E-14
6.87293E-07 1.72677E-14
7.23942E-07 1.57076E-14
7.61543E-07 1.43199E-14
1.18991E-06 6.25948E-15
1.71347E-06 3.16283E-15
2.33223E-06 1.77589E-15
3.04617E-06 1.07468E-15
3.85531E-06 6.87877E-16
4.75964E-06 4.60278E-16
5.75916E-06 3.18986E-16
6.85388E-06 2.27774E-16
8.04378E-06 1.66844E-16
9.32888E-06 1.24903E-16
1.07092E-05 9.53325E-17
1.21846E-05 7.40006E-17
1.37553E-05 5.83110E-17
1.54212E-05 4.65689E-17
1.71822E-05 3.76378E-17
1.90385E-05 3.07439E-17
2.09899E-05 2.53722E-17
2.30365E-05 2.11234E-17
2.51783E-05 1.77268E-17
2.74153E-05 1.49846E-17
2.97475E-05 1.27523E-17
3.21749E-05 1.09207E-17
3.46974E-05 9.40699E-18
3.73152E-05 8.14744E-18
4.00281E-05 7.09221E-18
4.28362E-05 6.20268E-18
4.57395E-05 5.44834E-18
4.87380E-05 4.80504E-18
5.18317E-05 4.25377E-18
5.50205E-05 3.77912E-18
5.83045E-05 3.36877E-18
6.16838E-05 3.01262E-18
6.51582E-05 2.70230E-18
6.87277E-05 2.43097E-18
7.23925E-05 2.19287E-18
7.61524E-05 1.98324E-18
9.21439E-05 1.35793E-18
1.09658E-04 9.60496E-19
1.28695E-04 6.98296E-19
1.49255E-04 5.19630E-19
1.71338E-04 3.94576E-19
1.94942E-04 3.04926E-19
2.20070E-04 2.39320E-19
2.46720E-04 1.90427E-19
2.74892E-04 1.53387E-19
3.04586E-04 1.24922E-19
3.35803E-04 1.02754E-19
3.68542E-04 8.52857E-20
4.02802E-04 7.13715E-20
4.38585E-04 6.01784E-20
4.75889E-04 5.10932E-20
5.14715E-04 4.36568E-20
5.55063E-04 3.75235E-20
5.96931E-04 3.24286E-20
6.40321E-04 2.81685E-20
6.85233E-04 2.45844E-20
7.31665E-04 2.15516E-20
7.79618E-04 1.89716E-20
8.29092E-04 1.67657E-20
8.80086E-04 1.48707E-20
9.32601E-04 1.32355E-20
9.86636E-04 1.18186E-20
1.04219E-03 1.05860E-20
1.09927E-03 9.50958E-21
1.15786E-03 8.56631E-21
1.21797E-03 7.73689E-21
1.27961E-03 7.00525E-21
1.34276E-03 6.35791E-21
1.40743E-03 5.78346E-21
1.47362E-03 5.27231E-21
1.54133E-03 4.81625E-21
1.61056E-03 4.40834E-21
1.68131E-03 4.04261E-21
1.75357E-03 3.71393E-21
1.82735E-03 3.41790E-21
1.90265E-03 3.15071E-21
1.97947E-03 2.90906E-21
2.05780E-03 2.69007E-21
2.13765E-03 2.49124E-21
2.21902E-03 2.31040E-21
2.30190E-03 2.14562E-21
2.38630E-03 1.99524E-21
2.47222E-03 1.85776E-21
2.55965E-03 1.73188E-21
2.64859E-03 1.61645E-21
2.73905E-03 1.51045E-21
2.83103E-03 1.41297E-21
2.92452E-03 1.32320E-21
3.01952E-03 1.24043E-21
3.11604E-03 1.16400E-21
3.21407E-03 1.09335E-21
3.31362E-03 1.02796E-21
3.41468E-03 9.67369E-22
3.51725E-03 9.11162E-22
3.62133E-03 8.58963E-22
3.72692E-03 8.10433E-22
3.83403E-03 7.65270E-22
3.94265E-03 7.23198E-22
4.05278E-03 6.83967E-22
4.16442E-03 6.47349E-22
4.27757E-03 6.13140E-22
4.39223E-03 5.81150E-22
4.50840E-03 5.51211E-22
4.62608E-03 5.23167E-22
4.74527E-03 4.96878E-22
4.86597E-03 4.72212E-22
4.98817E-03 4.49050E-22
5.11188E-03 4.27284E-22
5.23711E-03 4.06816E-22
5.36383E-03 3.87553E-22
5.49207E-03 3.69412E-22
5.62181E-03 3.52315E-22
5.75306E-03 3.36191E-22
5.88581E-03 3.20974E-22
6.02007E-03 3.06604E-22
6.15583E-03 2.93025E-22
6.29310E-03 2.80187E-22
6.43187E-03 2.68040E-22
6.57214E-03 2.56541E-22
6.71392E-03 2.45648E-22
6.85720E-03 2.35325E-22
7.00198E-03 2.25536E-22
7.14827E-03 2.16248E-22
7.29605E-03 2.07430E-22
7.44534E-03 1.99054E-22
7.59612E-03 1.91095E-22
7.97965E-03 1.72861E-22
8.37255E-03 1.56739E-22
8.77480E-03 1.42443E-22
9.18641E-03 1.29732E-22
9.60736E-03 1.18399E-22
1.00376E-02 1.08270E-22
1.04773E-02 9.91940E-23
1.09262E-02 9.10445E-23
1.13844E-02 8.37090E-23
1.18520E-02 7.70929E-23
1.23288E-02 7.11135E-23
1.28150E-02 6.56987E-23
1.33104E-02 6.07861E-23
1.38150E-02 5.63208E-23
1.43290E-02 5.22551E-23
1.48521E-02 4.85471E-23
1.53845E-02 4.51596E-23
1.59262E-02 4.20602E-23
1.64770E-02 3.92202E-23
1.70371E-02 3.66138E-23
1.76063E-02 3.42187E-23
1.81848E-02 3.20145E-23
1.87724E-02 2.99835E-23
1.93692E-02 2.81096E-23
1.99751E-02 2.63786E-23
2.05901E-02 2.47774E-23
2.12143E-02 2.32948E-23
2.18476E-02 2.19204E-23
2.24900E-02 2.06450E-23
2.31415E-02 1.94600E-23
2.38021E-02 1.83580E-23
2.44717E-02 1.73321E-23
2.51504E-02 1.63762E-23
2.58382E-02 1.54845E-23
2.65349E-02 1.46521E-23
2.72407E-02 1.38743E-23
2.79555E-02 1.31468E-23
2.86793E-02 1.24659E-23
2.94120E-02 1.18279E-23
3.01537E-02 1.12298E-23
3.09043E-02 1.06686E-23
3.16639E-02 1.01416E-23
3.24324E-02 9.64635E-24
3.32098E-02 9.18058E-24
3.39961E-02 8.74224E-24
3.47912E-02 8.32942E-24
3.55952E-02 7.94036E-24
3.64081E-02 7.57346E-24
3.72297E-02 7.22723E-24
3.80602E-02 6.90030E-24
3.88995E-02 6.59139E-24
3.97476E-02 6.29934E-24
4.06044E-02 6.02306E-24
4.14700E-02 5.76154E-24
4.23443E-02 5.51387E-24
4.32273E-02 5.27916E-24
4.41190E-02 5.05663E-24
4.50194E-02 4.84552E-24
4.59284E-02 4.64515E-24
4.68461E-02 4.45487E-24
4.87074E-02 4.10223E-24
5.06030E-02 3.78328E-24
5.25328E-02 3.49426E-24
5.44967E-02 3.23187E-24
5.64946E-02 2.99326E-24
5.85262E-02 2.77590E-24
6.05914E-02 2.57759E-24
6.26901E-02 2.39636E-24
6.48222E-02 2.23049E-24
6.69873E-02 2.07847E-24
6.91854E-02 1.93894E-24
7.14163E-02 1.81070E-24
7.36799E-02 1.69267E-24
7.59760E-02 1.58392E-24
7.83043E-02 1.48358E-24
8.06647E-02 1.39090E-24
8.30571E-02 1.30519E-24
8.54812E-02 1.22583E-24
8.79369E-02 1.15228E-24
9.04240E-02 1.08404E-24
9.29422E-02 1.02066E-24
9.54915E-02 9.61734E-25
9.80716E-02 9.06896E-25
1.00682E-01 8.55815E-25
1.03323E-01 8.08190E-25
1.05995E-01 7.63746E-25
1.08696E-01 7.22236E-25
1.11427E-01 6.83433E-25
1.14188E-01 6.47129E-25
1.16978E-01 6.13138E-25
1.19797E-01 5.81287E-25
1.22645E-01 5.51417E-25
1.25522E-01 5.23386E-25
1.28428E-01 4.97060E-25
1.31361E-01 4.72319E-25
1.34323E-01 4.49050E-25
1.37313E-01 4.27152E-25
1.40330E-01 4.06529E-25
1.43375E-01 3.87096E-25
1.46447E-01 3.68772E-25
1.49545E-01 3.51483E-25
1.52671E-01 3.35161E-25
1.55823E-01 3.19742E-25
1.59001E-01 3.05168E-25
1.62205E-01 2.91386E-25
1.65435E-01 2.78344E-25
1.68690E-01 2.65997E-25
1.71970E-01 2.54301E-25
1.75276E-01 2.43216E-25
1.78606E-01 2.32706E-25
1.81961E-01 2.22734E-25
1.85340E-01 2.13269E-25
1.88743E-01 2.04282E-25
1.92169E-01 1.95743E-25
1.95619E-01 1.87627E-25
1.99092E-01 1.79909E-25
2.02589E-01 1.72567E-25
2.06107E-01 1.65579E-25
2.09649E-01 1.58926E-25
2.13212E-01 1.52588E-25
2.16797E-01 1.46549E-25
2.20404E-01 1.40791E-25
2.24032E-01 1.35300E-25
2.27680E-01 1.30061E-25
2.31350E-01 1.25062E-25
2.35040E-01 1.20288E-25
2.38751E-01 1.15728E-25
2.42481E-01 1.11371E-25
2.46231E-01 1.07207E-25
2.50000E-01 1.03226E-25
2.53788E-01 9.94179E-26
2.57595E-01 9.57744E-26
2.61421E-01 9.22872E-26
2.65264E-01 8.89485E-26
2.69126E-01 8.57510E-26
2.73005E-01 8.26877E-26
2.76901E-01 7.97521E-26
2.80814E-01 7.69381E-26
2.84744E-01 7.42397E-26
2.88691E-01 7.16516E-26
2.92653E-01 6.91684E-26
2.96632E-01 6.67852E-26
3.00625E-01 6.44975E-26
3.04634E-01 6.23006E-26
3.08658E-01 6.01905E-26
3.12697E-01 5.81633E-26
3.16749E-01 5.62150E-26
3.20816E-01 5.43422E-26
3.24896E-01 5.25416E-26
3.28990E-01 5.08098E-26
3.33097E-01 4.91438E-26
3.37216E-01 4.75408E-26
3.41348E-01 4.59980E-26
3.45492E-01 4.45127E-26
3.49647E-01 4.30826E-26
3.53814E-01 4.17052E-26
3.57992E-01 4.03783E-26
3.62181E-01 3.90998E-26
3.66381E-01 3.78676E-26
3.70590E-01 3.66799E-26
3.74810E-01 3.55346E-26
3.79039E-01 3.44302E-26
3.83277E-01 3.33649E-26
3.87524E-01 3.23371E-26
3.91780E-01 3.13453E-26
3.96044E-01 3.03881E-26
4.00316E-01 2.94641E-26
4.04596E-01 2.85719E-26
4.08882E-01 2.77103E-26
4.13176E-01 2.68781E-26
4.17476E-01 2.60741E-26
4.21783E-01 2.52973E-26
4.26095E-01 2.45465E-26
4.30413E-01 2.38208E-26
4.34737E-01 2.31192E-26
4.39065E-01 2.24409E-26
4.43398E-01 2.17848E-26
4.47736E-01 2.11502E-26
4.52077E-01 2.05363E-26
4.56422E-01 1.99423E-26
4.60770E-01 1.93675E-26
4.65122E-01 1.88111E-26
4.69476E-01 1.82725E-26
4.73832E-01 1.77511E-26
4.78190E-01 1.72461E-26
4.82550E-01 1.67570E-26
4.86912E-01 1.62833E-26
4.91274E-01 1.58244E-26
4.95637E-01 1.53797E-26
5.00000E-01 1.49488E-26
5.04363E-01 1.45312E-26
5.08726E-01 1.41264E-26
5.13088E-01 1.37339E-26
5.17450E-01 1.33534E-26
5.21810E-01 1.29844E-26
5.26168E-01 1.26265E-26
5.30524E-01 1.22793E-26
5.34878E-01 1.19425E-26
5.39230E-01 1.16158E-26
5.43578E-01 1.12987E-26
5.47923E-01 1.09910E-26
5.52264E-01 1.06923E-26
5.56602E-01 1.04024E-26
5.60935E-01 1.01209E-26
5.65263E-01 9.84757E-27
5.69587E-01 9.58216E-27
5.73905E-01 9.32441E-27
5.78217E-01 9.07405E-27
5.82524E-01 8.83085E-27
5.86824E-01 8.59458E-27
5.91118E-01 8.36501E-27
5.95404E-01 8.14193E-27
5.99684E-01 7.92513E-27
6.03956E-01 7.71442E-27
6.08220E-01 7.50959E-27
6.12476E-01 7.31047E-27
6.16723E-01 7.11688E-27
6.20961E-01 6.92864E-27
6.25190E-01 6.74559E-27
6.29410E-01 6.56757E-27
6.33619E-01 6.39441E-27
6.37819E-01 6.22598E-27
6.42008E-01 6.06213E-27
6.46186E-01 5.90272E-27
6.50353E-01 5.74761E-27
6.54508E-01 5.59668E-27
6.58652E-01 5.44979E-27
6.62784E-01 5.30683E-27
6.66903E-01 5.16768E-27
6.71010E-01 5.03223E-27
6.75104E-01 4.90037E-27
6.79184E-01 4.77198E-27
6.83251E-01 4.64698E-27
6.87303E-01 4.52526E-27
6.91342E-01 4.40672E-27
6.95366E-01 4.29128E-27
6.99375E-01 4.17883E-27
7.03368E-01 4.06931E-27
7.07347E-01 3.96261E-27
7.11309E-01 3.85867E-27
7.15256E-01 3.75740E-27
7.19186E-01 3.65873E-27
7.23099E-01 3.56259E-27
7.26995E-01 3.46889E-27
7.30874E-01 3.37758E-27
7.34736E-01 3.28859E-27
7.38579E-01 3.20185E-27
7.42405E-01 3.11730E-27
7.46212E-01 3.03488E-27
7.50000E-01 2.95454E-27
7.53769E-01 2.87621E-27
7.57519E-01 2.79983E-27
7.61249E-01 2.72537E-27
7.64960E-01 2.65275E-27
7.68650E-01 2.58195E-27
7.72320E-01 2.51289E-27
7.75968E-01 2.44555E-27
7.79596E-01 2.37987E-27
7.83203E-01 2.31581E-27
7.86788E-01 2.25332E-27
7.90351E-01 2.19237E-27
7.93893E-01 2.13292E-27
7.97411E-01 2.07491E-27
8.00908E-01 2.01833E-27
8.04381E-01 1.96312E-27
8.07831E-01 1.90926E-27
8.11257E-01 1.85671E-27
8.14660E-01 1.80544E-27
8.18039E-01 1.75540E-27
8.21394E-01 1.70658E-27
8.24724E-01 1.65894E-27
8.28030E-01 1.61245E-27
8.31310E-01 1.56708E-27
8.34565E-01 1.52281E-27
8.37795E-01 1.47960E-27
8.40999E-01 1.43744E-27
8.44177E-01 1.39628E-27
8.47329E-01 1.35612E-27
8.50455E-01 1.31692E-27
8.53553E-01 1.27866E-27
8.56625E-01 1.24132E-27
8.59670E-01 1.20487E-27
8.62687E-01 1.16930E-27
8.65677E-01 1.13459E-27
8.68639E-01 1.10070E-27
8.71572E-01 1.06763E-27
8.74478E-01 1.03535E-27
8.77355E-01 1.00385E-27
8.80203E-01 9.73108E-28
8.83022E-01 9.43102E-28
8.85812E-01 9.13818E-28
8.88573E-01 8.85240E-28
8.91304E-01 8.57351E-28
8.94005E-01 8.30135E-28
8.96677E-01 8.03577E-28
8.99318E-01 7.77663E-28
9.01928E-01 7.52378E-28
9.04508E-01 7.27707E-28
9.07058E-01 7.03637E-28
9.09576E-01 6.80156E-28
9.12063E-01 6.57249E-28
9.14519E-01 6.34904E-28
9.16943E-01 6.13110E-28
9.19335E-01 5.91855E-28
9.21696E-01 5.71126E-28
9.24024E-01 5.50914E-28
9.26320E-01 5.31206E-28
9.28584E-01 5.11992E-28
9.30815E-01 4.93263E-28
9.33013E-01 4.75008E-28
9.35178E-01 4.57218E-28
9.37310E-01 4.39883E-28
9.39409E-01 4.22994E-28
9.41474E-01 4.06542E-28
9.43505E-01 3.90519E-28
9.45503E-01 3.74916E-28
9.47467E-01 3.59726E-28
9.49397E-01 3.44940E-28
9.51293E-01 3.30550E-28
9.53154E-01 3.16551E-28
9.54981E-01 3.02933E-28
9.56773E-01 2.89691E-28
9.58530E-01 2.76817E-28
9.60252E-01 2.64305E-28
9.61940E-01 2.52148E-28
9.63592E-01 2.40342E-28
9.65209E-01 2.28878E-28
9.66790E-01 2.17753E-28
9.68336E-01 2.06960E-28
9.69846E-01 1.96493E-28
9.71321E-01 1.86348E-28
9.72759E-01 1.76520E-28
9.74162E-01 1.67004E-28
9.75528E-01 1.57794E-28
9.76858E-01 1.48886E-28
9.78152E-01 1.40277E-28
9.79410E-01 1.31962E-28
9.80631E-01 1.23936E-28
9.81815E-01 1.16196E-28
9.82963E-01 1.08737E-28
9.84074E-01 1.01557E-28
9.85148E-01 9.46524E-29
9.86185E-01 8.80187E-29
9.87185E-01 8.16533E-29
9.88148E-01 7.55530E-29
9.89074E-01 6.97150E-29
9.89962E-01 6.41362E-29
9.90814E-01 5.88142E-29
9.91627E-01 5.37462E-29
9.92404E-01 4.89299E-29
9.93143E-01 4.43630E-29
9.93844E-01 4.00432E-29
9.94508E-01 3.59684E-29
9.95134E-01 3.21368E-29
9.95722E-01 2.85465E-29
9.96273E-01 2.51958E-29
9.96786E-01 2.20830E-29
9.97261E-01 1.92067E-29
9.97698E-01 1.65656E-29
9.98097E-01 1.41582E-29
9.98459E-01 1.19836E-29
9.98782E-01 1.00407E-29
9.99067E-01 8.32851E-30
9.99315E-01 6.84626E-30
9.99524E-01 5.59323E-30
9.99695E-01 4.56884E-30
9.99829E-01 3.77260E-30
9.99924E-01 3.20412E-30
9.99981E-01 2.86314E-30
1.00000E+00 2.74950E-30
