 #
 # Subroutine ELSEPA. Elastic scattering of electrons and positrons
 #                    by neutral atoms and positive ions
 #
 # Projectile: positron
 # Kinetic energy = 1.75000E+07 eV = 6.43113E+05 a.u.
 #
 # WARNING: High-energy factorization with free-atom DF screening.
 #          Absorption, polarization and exchange corrections are
 #          switched off.
 #          Phase shifts are calculated for the bare nucleus.
 #          Scattering amplitudes are not evaluated.
 #
 # Element: Pd,  Z =  46,  atomic weight = 1.06420E+02 g/mol
 #
 # Nuclear model: Fermi distribution
 #                Average radius = 5.07059E-13 cm
 #                Skin thickness = 5.46000E-14 cm
 #
 # Number of electrons = 46
 #
 # Total elastic cross section = 4.05597E-18 cm**2 = 1.44841E-01 a0**2
 # 1st transport cross section = 1.05056E-23 cm**2 = 3.75162E-07 a0**2
 # 2nd transport cross section = 3.05357E-23 cm**2 = 1.09045E-06 a0**2
 #
 #
 # Differential cross section:                       MU=(1-COS(THETA))/2
 #
 #  THETA        MU          DCS          DCS        Sherman      error
 #  (deg)                 (cm**2/sr)   (a0**2/sr)    function
 #----------------------------------------------------------------------
0.00000E+00 6.90119E-12
7.61557E-13 6.90089E-12
1.18994E-12 6.90073E-12
1.71346E-12 6.90053E-12
2.33225E-12 6.90030E-12
3.04617E-12 6.90004E-12
3.85530E-12 6.89974E-12
4.75964E-12 6.89940E-12
5.75917E-12 6.89903E-12
6.85391E-12 6.89863E-12
8.04379E-12 6.89819E-12
9.32893E-12 6.89772E-12
1.07092E-11 6.89721E-12
1.21847E-11 6.89667E-12
1.37554E-11 6.89609E-12
1.54213E-11 6.89548E-12
1.71823E-11 6.89483E-12
1.90386E-11 6.89415E-12
2.09900E-11 6.89344E-12
2.30367E-11 6.89269E-12
2.51785E-11 6.89190E-12
2.74156E-11 6.89108E-12
2.97478E-11 6.89023E-12
3.21752E-11 6.88934E-12
3.46979E-11 6.88842E-12
3.73157E-11 6.88746E-12
4.00286E-11 6.88647E-12
4.28368E-11 6.88545E-12
4.57402E-11 6.88439E-12
4.87388E-11 6.88329E-12
5.18325E-11 6.88217E-12
5.50215E-11 6.88100E-12
5.83057E-11 6.87981E-12
6.16850E-11 6.87858E-12
6.51595E-11 6.87731E-12
6.87293E-11 6.87601E-12
7.23943E-11 6.87468E-12
7.61544E-11 6.87331E-12
1.18991E-10 6.85778E-12
1.71347E-10 6.83888E-12
2.33223E-10 6.81668E-12
3.04617E-10 6.79122E-12
3.85531E-10 6.76257E-12
4.75965E-10 6.73081E-12
5.75917E-10 6.69601E-12
6.85389E-10 6.65825E-12
8.04380E-10 6.61709E-12
9.32891E-10 6.57354E-12
1.07092E-09 6.52798E-12
1.21847E-09 6.47887E-12
1.37554E-09 6.42756E-12
1.54213E-09 6.37479E-12
1.71823E-09 6.31865E-12
1.90386E-09 6.26058E-12
2.09900E-09 6.20162E-12
2.30367E-09 6.13956E-12
2.51785E-09 6.07578E-12
2.74156E-09 6.01167E-12
2.97478E-09 5.94483E-12
3.21752E-09 5.87643E-12
3.46978E-09 5.80822E-12
3.73156E-09 5.73772E-12
4.00286E-09 5.66576E-12
4.28368E-09 5.59446E-12
4.57402E-09 5.52137E-12
4.87388E-09 5.44687E-12
5.18326E-09 5.37345E-12
5.50215E-09 5.29874E-12
5.83057E-09 5.22265E-12
6.16850E-09 5.14798E-12
6.51596E-09 5.07255E-12
6.87293E-09 4.99572E-12
7.23942E-09 4.92059E-12
7.61544E-09 4.84521E-12
1.18991E-08 4.10274E-12
1.71347E-08 3.42421E-12
2.33223E-08 2.83311E-12
3.04617E-08 2.33154E-12
3.85531E-08 1.91541E-12
4.75965E-08 1.57399E-12
5.75917E-08 1.29531E-12
6.85389E-08 1.06843E-12
8.04380E-08 8.73332E-13
9.32891E-08 7.24043E-13
1.07092E-07 6.10611E-13
1.21847E-07 5.10400E-13
1.37554E-07 4.29332E-13
1.54213E-07 3.65756E-13
1.71823E-07 3.11144E-13
1.90386E-07 2.66079E-13
2.09900E-07 2.29744E-13
2.30367E-07 1.98813E-13
2.51785E-07 1.72870E-13
2.74156E-07 1.51449E-13
2.97478E-07 1.33150E-13
3.21752E-07 1.17569E-13
3.46978E-07 1.04440E-13
3.73156E-07 9.31068E-14
4.00286E-07 8.33096E-14
4.28368E-07 7.49132E-14
4.57402E-07 6.75686E-14
4.87388E-07 6.11209E-14
5.18325E-07 5.55168E-14
5.50215E-07 5.05508E-14
5.83057E-07 4.61249E-14
6.16850E-07 4.22333E-14
6.51596E-07 3.87465E-14
6.87293E-07 3.55952E-14
7.23942E-07 3.27976E-14
7.61543E-07 3.02697E-14
1.18991E-06 1.45899E-14
1.71347E-06 7.75312E-15
2.33223E-06 4.43127E-15
3.04617E-06 2.70078E-15
3.85531E-06 1.73867E-15
4.75964E-06 1.17177E-15
5.75916E-06 8.20212E-16
6.85388E-06 5.91934E-16
8.04378E-06 4.37924E-16
9.32888E-06 3.31146E-16
1.07092E-05 2.55019E-16
1.21846E-05 1.99508E-16
1.37553E-05 1.58232E-16
1.54212E-05 1.27006E-16
1.71822E-05 1.03087E-16
1.90385E-05 8.45000E-17
2.09899E-05 6.99353E-17
2.30365E-05 5.83598E-17
2.51783E-05 4.90621E-17
2.74153E-05 4.15328E-17
2.97475E-05 3.53889E-17
3.21749E-05 3.03381E-17
3.46974E-05 2.61571E-17
3.73152E-05 2.26729E-17
4.00281E-05 1.97501E-17
4.28362E-05 1.72842E-17
4.57395E-05 1.51915E-17
4.87380E-05 1.34060E-17
5.18317E-05 1.18750E-17
5.50205E-05 1.05559E-17
5.83045E-05 9.41494E-18
6.16838E-05 8.42423E-18
6.51582E-05 7.56077E-18
6.87277E-05 6.80545E-18
7.23925E-05 6.14234E-18
7.61524E-05 5.55812E-18
9.21439E-05 3.81403E-18
1.09658E-04 2.70341E-18
1.28695E-04 1.96932E-18
1.49255E-04 1.46813E-18
1.71338E-04 1.11665E-18
1.94942E-04 8.64216E-19
2.20070E-04 6.79177E-19
2.46720E-04 5.41060E-19
2.74892E-04 4.36274E-19
3.04586E-04 3.55639E-19
3.35803E-04 2.92769E-19
3.68542E-04 2.43175E-19
4.02802E-04 2.03633E-19
4.38585E-04 1.71796E-19
4.75889E-04 1.45935E-19
5.14715E-04 1.24752E-19
5.55063E-04 1.07269E-19
5.96931E-04 9.27387E-20
6.40321E-04 8.05823E-20
6.85233E-04 7.03501E-20
7.31665E-04 6.16881E-20
7.79618E-04 5.43167E-20
8.29092E-04 4.80116E-20
8.80086E-04 4.25935E-20
9.32601E-04 3.79170E-20
9.86636E-04 3.38635E-20
1.04219E-03 3.03364E-20
1.09927E-03 2.72557E-20
1.15786E-03 2.45553E-20
1.21797E-03 2.21805E-20
1.27961E-03 2.00853E-20
1.34276E-03 1.82311E-20
1.40743E-03 1.65855E-20
1.47362E-03 1.51210E-20
1.54133E-03 1.38142E-20
1.61056E-03 1.26452E-20
1.68131E-03 1.15970E-20
1.75357E-03 1.06548E-20
1.82735E-03 9.80619E-21
1.90265E-03 9.04015E-21
1.97947E-03 8.34727E-21
2.05780E-03 7.71932E-21
2.13765E-03 7.14915E-21
2.21902E-03 6.63053E-21
2.30190E-03 6.15793E-21
2.38630E-03 5.72657E-21
2.47222E-03 5.33222E-21
2.55965E-03 4.97112E-21
2.64859E-03 4.63999E-21
2.73905E-03 4.33588E-21
2.83103E-03 4.05620E-21
2.92452E-03 3.79864E-21
3.01952E-03 3.56113E-21
3.11604E-03 3.34184E-21
3.21407E-03 3.13910E-21
3.31362E-03 2.95146E-21
3.41468E-03 2.77758E-21
3.51725E-03 2.61627E-21
3.62133E-03 2.46646E-21
3.72692E-03 2.32718E-21
3.83403E-03 2.19756E-21
3.94265E-03 2.07680E-21
4.05278E-03 1.96420E-21
4.16442E-03 1.85909E-21
4.27757E-03 1.76089E-21
4.39223E-03 1.66907E-21
4.50840E-03 1.58312E-21
4.62608E-03 1.50262E-21
4.74527E-03 1.42715E-21
4.86597E-03 1.35633E-21
4.98817E-03 1.28984E-21
5.11188E-03 1.22735E-21
5.23711E-03 1.16859E-21
5.36383E-03 1.11329E-21
5.49207E-03 1.06120E-21
5.62181E-03 1.01211E-21
5.75306E-03 9.65816E-22
5.88581E-03 9.22125E-22
6.02007E-03 8.80865E-22
6.15583E-03 8.41875E-22
6.29310E-03 8.05010E-22
6.43187E-03 7.70130E-22
6.57214E-03 7.37111E-22
6.71392E-03 7.05833E-22
6.85720E-03 6.76189E-22
7.00198E-03 6.48077E-22
7.14827E-03 6.21403E-22
7.29605E-03 5.96080E-22
7.44534E-03 5.72027E-22
7.59612E-03 5.49169E-22
7.97965E-03 4.96801E-22
8.37255E-03 4.50499E-22
8.77480E-03 4.09440E-22
9.18641E-03 3.72929E-22
9.60736E-03 3.40376E-22
1.00376E-02 3.11281E-22
1.04773E-02 2.85211E-22
1.09262E-02 2.61798E-22
1.13844E-02 2.40725E-22
1.18520E-02 2.21718E-22
1.23288E-02 2.04539E-22
1.28150E-02 1.88981E-22
1.33104E-02 1.74865E-22
1.38150E-02 1.62035E-22
1.43290E-02 1.50352E-22
1.48521E-02 1.39696E-22
1.53845E-02 1.29961E-22
1.59262E-02 1.21054E-22
1.64770E-02 1.12891E-22
1.70371E-02 1.05400E-22
1.76063E-02 9.85157E-23
1.81848E-02 9.21802E-23
1.87724E-02 8.63418E-23
1.93692E-02 8.09546E-23
1.99751E-02 7.59780E-23
2.05901E-02 7.13749E-23
2.12143E-02 6.71123E-23
2.18476E-02 6.31604E-23
2.24900E-02 5.94929E-23
2.31415E-02 5.60855E-23
2.38021E-02 5.29163E-23
2.44717E-02 4.99658E-23
2.51504E-02 4.72164E-23
2.58382E-02 4.46519E-23
2.65349E-02 4.22574E-23
2.72407E-02 4.00197E-23
2.79555E-02 3.79269E-23
2.86793E-02 3.59679E-23
2.94120E-02 3.41322E-23
3.01537E-02 3.24112E-23
3.09043E-02 3.07964E-23
3.16639E-02 2.92795E-23
3.24324E-02 2.78540E-23
3.32098E-02 2.65136E-23
3.39961E-02 2.52517E-23
3.47912E-02 2.40632E-23
3.55952E-02 2.29432E-23
3.64081E-02 2.18868E-23
3.72297E-02 2.08898E-23
3.80602E-02 1.99483E-23
3.88995E-02 1.90587E-23
3.97476E-02 1.82175E-23
4.06044E-02 1.74217E-23
4.14700E-02 1.66683E-23
4.23443E-02 1.59548E-23
4.32273E-02 1.52785E-23
4.41190E-02 1.46373E-23
4.50194E-02 1.40289E-23
4.59284E-02 1.34514E-23
4.68461E-02 1.29030E-23
4.87074E-02 1.18864E-23
5.06030E-02 1.09668E-23
5.25328E-02 1.01332E-23
5.44967E-02 9.37637E-24
5.64946E-02 8.68794E-24
5.85262E-02 8.06065E-24
6.05914E-02 7.48818E-24
6.26901E-02 6.96492E-24
6.48222E-02 6.48591E-24
6.69873E-02 6.04676E-24
6.91854E-02 5.64360E-24
7.14163E-02 5.27296E-24
7.36799E-02 4.93178E-24
7.59760E-02 4.61730E-24
7.83043E-02 4.32707E-24
8.06647E-02 4.05891E-24
8.30571E-02 3.81085E-24
8.54812E-02 3.58112E-24
8.79369E-02 3.36814E-24
9.04240E-02 3.17046E-24
9.29422E-02 2.98681E-24
9.54915E-02 2.81601E-24
9.80716E-02 2.65701E-24
1.00682E-01 2.50886E-24
1.03323E-01 2.37068E-24
1.05995E-01 2.24169E-24
1.08696E-01 2.12117E-24
1.11427E-01 2.00848E-24
1.14188E-01 1.90300E-24
1.16978E-01 1.80421E-24
1.19797E-01 1.71160E-24
1.22645E-01 1.62472E-24
1.25522E-01 1.54316E-24
1.28428E-01 1.46653E-24
1.31361E-01 1.39449E-24
1.34323E-01 1.32670E-24
1.37313E-01 1.26288E-24
1.40330E-01 1.20276E-24
1.43375E-01 1.14608E-24
1.46447E-01 1.09261E-24
1.49545E-01 1.04214E-24
1.52671E-01 9.94473E-25
1.55823E-01 9.49424E-25
1.59001E-01 9.06825E-25
1.62205E-01 8.66521E-25
1.65435E-01 8.28365E-25
1.68690E-01 7.92225E-25
1.71970E-01 7.57975E-25
1.75276E-01 7.25499E-25
1.78606E-01 6.94690E-25
1.81961E-01 6.65447E-25
1.85340E-01 6.37678E-25
1.88743E-01 6.11294E-25
1.92169E-01 5.86216E-25
1.95619E-01 5.62367E-25
1.99092E-01 5.39677E-25
2.02589E-01 5.18080E-25
2.06107E-01 4.97514E-25
2.09649E-01 4.77922E-25
2.13212E-01 4.59249E-25
2.16797E-01 4.41446E-25
2.20404E-01 4.24464E-25
2.24032E-01 4.08259E-25
2.27680E-01 3.92791E-25
2.31350E-01 3.78019E-25
2.35040E-01 3.63906E-25
2.38751E-01 3.50420E-25
2.42481E-01 3.37526E-25
2.46231E-01 3.25194E-25
2.50000E-01 3.13397E-25
2.53788E-01 3.02106E-25
2.57595E-01 2.91297E-25
2.61421E-01 2.80945E-25
2.65264E-01 2.71028E-25
2.69126E-01 2.61524E-25
2.73005E-01 2.52413E-25
2.76901E-01 2.43677E-25
2.80814E-01 2.35297E-25
2.84744E-01 2.27256E-25
2.88691E-01 2.19538E-25
2.92653E-01 2.12129E-25
2.96632E-01 2.05013E-25
3.00625E-01 1.98178E-25
3.04634E-01 1.91610E-25
3.08658E-01 1.85296E-25
3.12697E-01 1.79227E-25
3.16749E-01 1.73390E-25
3.20816E-01 1.67775E-25
3.24896E-01 1.62373E-25
3.28990E-01 1.57173E-25
3.33097E-01 1.52168E-25
3.37216E-01 1.47348E-25
3.41348E-01 1.42706E-25
3.45492E-01 1.38233E-25
3.49647E-01 1.33924E-25
3.53814E-01 1.29770E-25
3.57992E-01 1.25766E-25
3.62181E-01 1.21905E-25
3.66381E-01 1.18180E-25
3.70590E-01 1.14588E-25
3.74810E-01 1.11121E-25
3.79039E-01 1.07775E-25
3.83277E-01 1.04545E-25
3.87524E-01 1.01427E-25
3.91780E-01 9.84152E-26
3.96044E-01 9.55062E-26
4.00316E-01 9.26958E-26
4.04596E-01 8.99800E-26
4.08882E-01 8.73552E-26
4.13176E-01 8.48178E-26
4.17476E-01 8.23645E-26
4.21783E-01 7.99920E-26
4.26095E-01 7.76973E-26
4.30413E-01 7.54773E-26
4.34737E-01 7.33293E-26
4.39065E-01 7.12506E-26
4.43398E-01 6.92385E-26
4.47736E-01 6.72907E-26
4.52077E-01 6.54046E-26
4.56422E-01 6.35781E-26
4.60770E-01 6.18090E-26
4.65122E-01 6.00952E-26
4.69476E-01 5.84347E-26
4.73832E-01 5.68256E-26
4.78190E-01 5.52660E-26
4.82550E-01 5.37541E-26
4.86912E-01 5.22884E-26
4.91274E-01 5.08672E-26
4.95637E-01 4.94888E-26
5.00000E-01 4.81519E-26
5.04363E-01 4.68550E-26
5.08726E-01 4.55966E-26
5.13088E-01 4.43756E-26
5.17450E-01 4.31905E-26
5.21810E-01 4.20403E-26
5.26168E-01 4.09236E-26
5.30524E-01 3.98394E-26
5.34878E-01 3.87866E-26
5.39230E-01 3.77642E-26
5.43578E-01 3.67711E-26
5.47923E-01 3.58064E-26
5.52264E-01 3.48691E-26
5.56602E-01 3.39584E-26
5.60935E-01 3.30734E-26
5.65263E-01 3.22132E-26
5.69587E-01 3.13771E-26
5.73905E-01 3.05643E-26
5.78217E-01 2.97740E-26
5.82524E-01 2.90055E-26
5.86824E-01 2.82582E-26
5.91118E-01 2.75313E-26
5.95404E-01 2.68243E-26
5.99684E-01 2.61365E-26
6.03956E-01 2.54673E-26
6.08220E-01 2.48161E-26
6.12476E-01 2.41825E-26
6.16723E-01 2.35658E-26
6.20961E-01 2.29655E-26
6.25190E-01 2.23812E-26
6.29410E-01 2.18123E-26
6.33619E-01 2.12584E-26
6.37819E-01 2.07191E-26
6.42008E-01 2.01939E-26
6.46186E-01 1.96824E-26
6.50353E-01 1.91841E-26
6.54508E-01 1.86988E-26
6.58652E-01 1.82259E-26
6.62784E-01 1.77653E-26
6.66903E-01 1.73164E-26
6.71010E-01 1.68790E-26
6.75104E-01 1.64527E-26
6.79184E-01 1.60372E-26
6.83251E-01 1.56323E-26
6.87303E-01 1.52375E-26
6.91342E-01 1.48527E-26
6.95366E-01 1.44775E-26
6.99375E-01 1.41116E-26
7.03368E-01 1.37549E-26
7.07347E-01 1.34070E-26
7.11309E-01 1.30677E-26
7.15256E-01 1.27368E-26
7.19186E-01 1.24140E-26
7.23099E-01 1.20991E-26
7.26995E-01 1.17920E-26
7.30874E-01 1.14923E-26
7.34736E-01 1.11999E-26
7.38579E-01 1.09146E-26
7.42405E-01 1.06362E-26
7.46212E-01 1.03645E-26
7.50000E-01 1.00994E-26
7.53769E-01 9.84060E-27
7.57519E-01 9.58802E-27
7.61249E-01 9.34147E-27
7.64960E-01 9.10079E-27
7.68650E-01 8.86584E-27
7.72320E-01 8.63647E-27
7.75968E-01 8.41253E-27
7.79596E-01 8.19387E-27
7.83203E-01 7.98038E-27
7.86788E-01 7.77190E-27
7.90351E-01 7.56833E-27
7.93893E-01 7.36952E-27
7.97411E-01 7.17537E-27
8.00908E-01 6.98575E-27
8.04381E-01 6.80056E-27
8.07831E-01 6.61968E-27
8.11257E-01 6.44300E-27
8.14660E-01 6.27043E-27
8.18039E-01 6.10186E-27
8.21394E-01 5.93719E-27
8.24724E-01 5.77633E-27
8.28030E-01 5.61919E-27
8.31310E-01 5.46567E-27
8.34565E-01 5.31570E-27
8.37795E-01 5.16918E-27
8.40999E-01 5.02603E-27
8.44177E-01 4.88618E-27
8.47329E-01 4.74954E-27
8.50455E-01 4.61605E-27
8.53553E-01 4.48562E-27
8.56625E-01 4.35819E-27
8.59670E-01 4.23369E-27
8.62687E-01 4.11204E-27
8.65677E-01 3.99319E-27
8.68639E-01 3.87707E-27
8.71572E-01 3.76363E-27
8.74478E-01 3.65279E-27
8.77355E-01 3.54450E-27
8.80203E-01 3.43871E-27
8.83022E-01 3.33535E-27
8.85812E-01 3.23439E-27
8.88573E-01 3.13575E-27
8.91304E-01 3.03940E-27
8.94005E-01 2.94528E-27
8.96677E-01 2.85335E-27
8.99318E-01 2.76356E-27
9.01928E-01 2.67586E-27
9.04508E-01 2.59021E-27
9.07058E-01 2.50657E-27
9.09576E-01 2.42490E-27
9.12063E-01 2.34515E-27
9.14519E-01 2.26728E-27
9.16943E-01 2.19126E-27
9.19335E-01 2.11706E-27
9.21696E-01 2.04462E-27
9.24024E-01 1.97393E-27
9.26320E-01 1.90494E-27
9.28584E-01 1.83762E-27
9.30815E-01 1.77194E-27
9.33013E-01 1.70786E-27
9.35178E-01 1.64537E-27
9.37310E-01 1.58442E-27
9.39409E-01 1.52499E-27
9.41474E-01 1.46705E-27
9.43505E-01 1.41058E-27
9.45503E-01 1.35554E-27
9.47467E-01 1.30191E-27
9.49397E-01 1.24967E-27
9.51293E-01 1.19880E-27
9.53154E-01 1.14926E-27
9.54981E-01 1.10104E-27
9.56773E-01 1.05411E-27
9.58530E-01 1.00845E-27
9.60252E-01 9.64050E-28
9.61940E-01 9.20878E-28
9.63592E-01 8.78919E-28
9.65209E-01 8.38152E-28
9.66790E-01 7.98560E-28
9.68336E-01 7.60125E-28
9.69846E-01 7.22830E-28
9.71321E-01 6.86658E-28
9.72759E-01 6.51592E-28
9.74162E-01 6.17619E-28
9.75528E-01 5.84722E-28
9.76858E-01 5.52886E-28
9.78152E-01 5.22098E-28
9.79410E-01 4.92345E-28
9.80631E-01 4.63612E-28
9.81815E-01 4.35888E-28
9.82963E-01 4.09161E-28
9.84074E-01 3.83418E-28
9.85148E-01 3.58649E-28
9.86185E-01 3.34843E-28
9.87185E-01 3.11989E-28
9.88148E-01 2.90077E-28
9.89074E-01 2.69099E-28
9.89962E-01 2.49044E-28
9.90814E-01 2.29905E-28
9.91627E-01 2.11673E-28
9.92404E-01 1.94340E-28
9.93143E-01 1.77899E-28
9.93844E-01 1.62343E-28
9.94508E-01 1.47665E-28
9.95134E-01 1.33859E-28
9.95722E-01 1.20918E-28
9.96273E-01 1.08838E-28
9.96786E-01 9.76137E-29
9.97261E-01 8.72395E-29
9.97698E-01 7.77114E-29
9.98097E-01 6.90253E-29
9.98459E-01 6.11775E-29
9.98782E-01 5.41647E-29
9.99067E-01 4.79839E-29
9.99315E-01 4.26325E-29
9.99524E-01 3.81082E-29
9.99695E-01 3.44091E-29
9.99829E-01 3.15337E-29
9.99924E-01 2.94807E-29
9.99981E-01 2.82492E-29
1.00000E+00 2.78388E-29
