 #
 # Subroutine ELSEPA. Elastic scattering of electrons and positrons
 #                    by neutral atoms and positive ions
 #
 # Projectile: positron
 # Kinetic energy = 4.50000E+08 eV = 1.65372E+07 a.u.
 #
 # WARNING: High-energy factorization with free-atom DF screening.
 #          Absorption, polarization and exchange corrections are
 #          switched off.
 #          Phase shifts are calculated for the bare nucleus.
 #          Scattering amplitudes are not evaluated.
 #
 # Element: Pd,  Z =  46,  atomic weight = 1.06420E+02 g/mol
 #
 # Nuclear model: Fermi distribution
 #                Average radius = 5.07059E-13 cm
 #                Skin thickness = 5.46000E-14 cm
 #
 # Number of electrons = 46
 #
 # Total elastic cross section = 4.05371E-18 cm**2 = 1.44760E-01 a0**2
 # 1st transport cross section = 2.05419E-26 cm**2 = 7.33565E-10 a0**2
 # 2nd transport cross section = 6.15937E-26 cm**2 = 2.19955E-09 a0**2
 #
 #
 # Differential cross section:                       MU=(1-COS(THETA))/2
 #
 #  THETA        MU          DCS          DCS        Sherman      error
 #  (deg)                 (cm**2/sr)   (a0**2/sr)    function
 #----------------------------------------------------------------------
0.00000E+00 4.31776E-09
7.61557E-13 4.21104E-09
1.18994E-12 4.15291E-09
1.71346E-12 4.08396E-09
2.33225E-12 4.00461E-09
3.04617E-12 3.91641E-09
3.85530E-12 3.82063E-09
4.75964E-12 3.71857E-09
5.75917E-12 3.61148E-09
6.85391E-12 3.49914E-09
8.04379E-12 3.38360E-09
9.32893E-12 3.26623E-09
1.07092E-11 3.14801E-09
1.21847E-11 3.02982E-09
1.37554E-11 2.91194E-09
1.54213E-11 2.79414E-09
1.71823E-11 2.67834E-09
1.90386E-11 2.56502E-09
2.09900E-11 2.45453E-09
2.30367E-11 2.34716E-09
2.51785E-11 2.24221E-09
2.74156E-11 2.14038E-09
2.97478E-11 2.04229E-09
3.21752E-11 1.94797E-09
3.46979E-11 1.85743E-09
3.73157E-11 1.77058E-09
4.00286E-11 1.68658E-09
4.28368E-11 1.60634E-09
4.57402E-11 1.52978E-09
4.87388E-11 1.45678E-09
5.18325E-11 1.38722E-09
5.50215E-11 1.32067E-09
5.83057E-11 1.25705E-09
6.16850E-11 1.19659E-09
6.51595E-11 1.13914E-09
6.87293E-11 1.08457E-09
7.23943E-11 1.03273E-09
7.61544E-11 9.83164E-10
1.18991E-10 6.02976E-10
1.71347E-10 3.81260E-10
2.33223E-10 2.46979E-10
3.04617E-10 1.66059E-10
3.85531E-10 1.15580E-10
4.75965E-10 8.30926E-11
5.75917E-10 6.15470E-11
6.85389E-10 4.67566E-11
8.04380E-10 3.63402E-11
9.32891E-10 2.87901E-11
1.07092E-09 2.31716E-11
1.21847E-09 1.88935E-11
1.37554E-09 1.55647E-11
1.54213E-09 1.29218E-11
1.71823E-09 1.08112E-11
1.90386E-09 9.10680E-12
2.09900E-09 7.71728E-12
2.30367E-09 6.57540E-12
2.51785E-09 5.62743E-12
2.74156E-09 4.83940E-12
2.97478E-09 4.18048E-12
3.21752E-09 3.62713E-12
3.46978E-09 3.16082E-12
3.73156E-09 2.76608E-12
4.00286E-09 2.42993E-12
4.28368E-09 2.14321E-12
4.57402E-09 1.89750E-12
4.87388E-09 1.68602E-12
5.18326E-09 1.50324E-12
5.50215E-09 1.34456E-12
5.83057E-09 1.20632E-12
6.16850E-09 1.08556E-12
6.51596E-09 9.79705E-13
6.87293E-09 8.86606E-13
7.23942E-09 8.04466E-13
7.61544E-09 7.31725E-13
1.18991E-08 3.17071E-13
1.71347E-08 1.59363E-13
2.33223E-08 8.84775E-14
3.04617E-08 5.28542E-14
3.85531E-08 3.34311E-14
4.75965E-08 2.21449E-14
5.75917E-08 1.52381E-14
6.85389E-08 1.08251E-14
8.04380E-08 7.90053E-15
9.32891E-08 5.90090E-15
1.07092E-07 4.49631E-15
1.21847E-07 3.48625E-15
1.37554E-07 2.74480E-15
1.54213E-07 2.19055E-15
1.71823E-07 1.76949E-15
1.90386E-07 1.44494E-15
2.09900E-07 1.19153E-15
2.30367E-07 9.91313E-16
2.51785E-07 8.31438E-16
2.74156E-07 7.02525E-16
2.97478E-07 5.97647E-16
3.21752E-07 5.11621E-16
3.46978E-07 4.40523E-16
3.73156E-07 3.81349E-16
4.00286E-07 3.31779E-16
4.28368E-07 2.90002E-16
4.57402E-07 2.54593E-16
4.87388E-07 2.24423E-16
5.18325E-07 1.98588E-16
5.50215E-07 1.76364E-16
5.83057E-07 1.57160E-16
6.16850E-07 1.40498E-16
6.51596E-07 1.25985E-16
6.87293E-07 1.13297E-16
7.23942E-07 1.02166E-16
7.61543E-07 9.23672E-17
1.18991E-06 3.79487E-17
1.71347E-06 1.83289E-17
2.33223E-06 9.90163E-18
3.04617E-06 5.80678E-18
3.85531E-06 3.62602E-18
4.75964E-06 2.37932E-18
5.75916E-06 1.62517E-18
6.85388E-06 1.14747E-18
8.04378E-06 8.33048E-19
9.32888E-06 6.19298E-19
1.07092E-05 4.69902E-19
1.21846E-05 3.62949E-19
1.37553E-05 2.84761E-19
1.54212E-05 2.26533E-19
1.71822E-05 1.82453E-19
1.90385E-05 1.48555E-19
2.09899E-05 1.22235E-19
2.30365E-05 1.01486E-19
2.51783E-05 8.49466E-20
2.74153E-05 7.16333E-20
2.97475E-05 6.08238E-20
3.21749E-05 5.19770E-20
3.46974E-05 4.46833E-20
3.73152E-05 3.86276E-20
4.00281E-05 3.35655E-20
4.28362E-05 2.93069E-20
4.57395E-05 2.57026E-20
4.87380E-05 2.26348E-20
5.18317E-05 2.00102E-20
5.50205E-05 1.77545E-20
5.83045E-05 1.58075E-20
6.16838E-05 1.41201E-20
6.51582E-05 1.26521E-20
6.87277E-05 1.13702E-20
7.23925E-05 1.02468E-20
7.61524E-05 9.26788E-21
9.21439E-05 6.32331E-21
1.09658E-04 4.45887E-21
1.28695E-04 3.23275E-21
1.49255E-04 2.39948E-21
1.71338E-04 1.81758E-21
1.94942E-04 1.40124E-21
2.20070E-04 1.09711E-21
2.46720E-04 8.70827E-22
2.74892E-04 6.99660E-22
3.04586E-04 5.68306E-22
3.35803E-04 4.66157E-22
3.68542E-04 3.85780E-22
4.02802E-04 3.21848E-22
4.38585E-04 2.70493E-22
4.75889E-04 2.28873E-22
5.14715E-04 1.94858E-22
5.55063E-04 1.66850E-22
5.96931E-04 1.43623E-22
6.40321E-04 1.24237E-22
6.85233E-04 1.07957E-22
7.31665E-04 9.42082E-23
7.79618E-04 8.25363E-23
8.29092E-04 7.25779E-23
8.80086E-04 6.40425E-23
9.32601E-04 5.66947E-23
9.86636E-04 5.03434E-23
1.04219E-03 4.48323E-23
1.09927E-03 4.00328E-23
1.15786E-03 3.58387E-23
1.21797E-03 3.21616E-23
1.27961E-03 2.89279E-23
1.34276E-03 2.60757E-23
1.40743E-03 2.35531E-23
1.47362E-03 2.13161E-23
1.54133E-03 1.93273E-23
1.61056E-03 1.75549E-23
1.68131E-03 1.59719E-23
1.75357E-03 1.45548E-23
1.82735E-03 1.32837E-23
1.90265E-03 1.21412E-23
1.97947E-03 1.11124E-23
2.05780E-03 1.01842E-23
2.13765E-03 9.34539E-24
2.21902E-03 8.58604E-24
2.30190E-03 7.89753E-24
2.38630E-03 7.27229E-24
2.47222E-03 6.70365E-24
2.55965E-03 6.18577E-24
2.64859E-03 5.71346E-24
2.73905E-03 5.28215E-24
2.83103E-03 4.88778E-24
2.92452E-03 4.52674E-24
3.01952E-03 4.19583E-24
3.11604E-03 3.89220E-24
3.21407E-03 3.61329E-24
3.31362E-03 3.35682E-24
3.41468E-03 3.12074E-24
3.51725E-03 2.90322E-24
3.62133E-03 2.70262E-24
3.72692E-03 2.51744E-24
3.83403E-03 2.34636E-24
3.94265E-03 2.18817E-24
4.05278E-03 2.04177E-24
4.16442E-03 1.90617E-24
4.27757E-03 1.78050E-24
4.39223E-03 1.66393E-24
4.50840E-03 1.55572E-24
4.62608E-03 1.45522E-24
4.74527E-03 1.36180E-24
4.86597E-03 1.27491E-24
4.98817E-03 1.19405E-24
5.11188E-03 1.11875E-24
5.23711E-03 1.04859E-24
5.36383E-03 9.83179E-25
5.49207E-03 9.22166E-25
5.62181E-03 8.65224E-25
5.75306E-03 8.12054E-25
5.88581E-03 7.62382E-25
6.02007E-03 7.15956E-25
6.15583E-03 6.72544E-25
6.29310E-03 6.31932E-25
6.43187E-03 5.93924E-25
6.57214E-03 5.58337E-25
6.71392E-03 5.25005E-25
6.85720E-03 4.93772E-25
7.00198E-03 4.64495E-25
7.14827E-03 4.37042E-25
7.29605E-03 4.11290E-25
7.44534E-03 3.87126E-25
7.59612E-03 3.64445E-25
7.97965E-03 3.13605E-25
8.37255E-03 2.70097E-25
8.77480E-03 2.32802E-25
9.18641E-03 2.00785E-25
9.60736E-03 1.73263E-25
1.00376E-02 1.49575E-25
1.04773E-02 1.29166E-25
1.09262E-02 1.11565E-25
1.13844E-02 9.63742E-26
1.18520E-02 8.32537E-26
1.23288E-02 7.19151E-26
1.28150E-02 6.21116E-26
1.33104E-02 5.36322E-26
1.38150E-02 4.62963E-26
1.43290E-02 3.99485E-26
1.48521E-02 3.44554E-26
1.53845E-02 2.97020E-26
1.59262E-02 2.55892E-26
1.64770E-02 2.20315E-26
1.70371E-02 1.89548E-26
1.76063E-02 1.62952E-26
1.81848E-02 1.39972E-26
1.87724E-02 1.20128E-26
1.93692E-02 1.03004E-26
1.99751E-02 8.82366E-27
2.05901E-02 7.55133E-27
2.12143E-02 6.45610E-27
2.18476E-02 5.51426E-27
2.24900E-02 4.70523E-27
2.31415E-02 4.01109E-27
2.38021E-02 3.41629E-27
2.44717E-02 2.90731E-27
2.51504E-02 2.47239E-27
2.58382E-02 2.10132E-27
2.65349E-02 1.78524E-27
2.72407E-02 1.51646E-27
2.79555E-02 1.28829E-27
2.86793E-02 1.09496E-27
2.94120E-02 9.31452E-28
3.01537E-02 7.93431E-28
3.09043E-02 6.77149E-28
3.16639E-02 5.79372E-28
3.24324E-02 4.97309E-28
3.32098E-02 4.28558E-28
3.39961E-02 3.71057E-28
3.47912E-02 3.23033E-28
3.55952E-02 2.82970E-28
3.64081E-02 2.49572E-28
3.72297E-02 2.21736E-28
3.80602E-02 1.98521E-28
3.88995E-02 1.79133E-28
3.97476E-02 1.62898E-28
4.06044E-02 1.49249E-28
4.14700E-02 1.37713E-28
4.23443E-02 1.27891E-28
4.32273E-02 1.19453E-28
4.41190E-02 1.12128E-28
4.50194E-02 1.05690E-28
4.59284E-02 9.99559E-29
4.68461E-02 9.47782E-29
4.87074E-02 8.56388E-29
5.06030E-02 7.75883E-29
5.25328E-02 7.02180E-29
5.44967E-02 6.33029E-29
5.64946E-02 5.67373E-29
5.85262E-02 5.04881E-29
6.05914E-02 4.45628E-29
6.26901E-02 3.89879E-29
6.48222E-02 3.37950E-29
6.69873E-02 2.90118E-29
6.91854E-02 2.46578E-29
7.14163E-02 2.07423E-29
7.36799E-02 1.72641E-29
7.59760E-02 1.42121E-29
7.83043E-02 1.15672E-29
8.06647E-02 9.30388E-30
8.30571E-02 7.39183E-30
8.54812E-02 5.79793E-30
8.79369E-02 4.48759E-30
9.04240E-02 3.42617E-30
9.29422E-02 2.57994E-30
9.54915E-02 1.91693E-30
9.80716E-02 1.40749E-30
1.00682E-01 1.02468E-30
1.03323E-01 7.44451E-31
1.05995E-01 5.45752E-31
1.08696E-01 4.10436E-31
1.11427E-01 3.23155E-31
1.14188E-01 2.71155E-31
1.16978E-01 2.44043E-31
1.19797E-01 2.33532E-31
1.22645E-01 2.33174E-31
1.25522E-01 2.38099E-31
1.28428E-01 2.44760E-31
1.31361E-01 2.50706E-31
1.34323E-01 2.54363E-31
1.37313E-01 2.54846E-31
1.40330E-01 2.51800E-31
1.43375E-01 2.45252E-31
1.46447E-01 2.35496E-31
1.49545E-01 2.23000E-31
1.52671E-01 2.08323E-31
1.55823E-01 1.92065E-31
1.59001E-01 1.74811E-31
1.62205E-01 1.57112E-31
1.65435E-01 1.39454E-31
1.68690E-01 1.22252E-31
1.71970E-01 1.05843E-31
1.75276E-01 9.04853E-32
1.78606E-01 7.63632E-32
1.81961E-01 6.35931E-32
1.85340E-01 5.22317E-32
1.88743E-01 4.22849E-32
1.92169E-01 3.37169E-32
1.95619E-01 2.64595E-32
1.99092E-01 2.04206E-32
2.02589E-01 1.54913E-32
2.06107E-01 1.15530E-32
2.09649E-01 8.48316E-33
2.13212E-01 6.15966E-33
2.16797E-01 4.46477E-33
2.20404E-01 3.28786E-33
2.24032E-01 2.52739E-33
2.27680E-01 2.09220E-33
2.31350E-01 1.90213E-33
2.35040E-01 1.88823E-33
2.38751E-01 1.99250E-33
2.42481E-01 2.16731E-33
2.46231E-01 2.37466E-33
2.50000E-01 2.58524E-33
2.53788E-01 2.77740E-33
2.57595E-01 2.93614E-33
2.61421E-01 3.05204E-33
2.65264E-01 3.12030E-33
2.69126E-01 3.13978E-33
2.73005E-01 3.11216E-33
2.76901E-01 3.04123E-33
2.80814E-01 2.93217E-33
2.84744E-01 2.79106E-33
2.88691E-01 2.62439E-33
2.92653E-01 2.43868E-33
2.96632E-01 2.24022E-33
3.00625E-01 2.03486E-33
3.04634E-01 1.82784E-33
3.08658E-01 1.62373E-33
3.12697E-01 1.42633E-33
3.16749E-01 1.23875E-33
3.20816E-01 1.06333E-33
3.24896E-01 9.01784E-34
3.28990E-01 7.55180E-34
3.33097E-01 6.24057E-34
3.37216E-01 5.08479E-34
3.41348E-01 4.08123E-34
3.45492E-01 3.22347E-34
3.49647E-01 2.50268E-34
3.53814E-01 1.90824E-34
3.57992E-01 1.42837E-34
3.62181E-01 1.05063E-34
3.66381E-01 7.62357E-35
3.70590E-01 5.51074E-35
3.74810E-01 4.04770E-35
3.79039E-01 3.12126E-35
3.83277E-01 2.62695E-35
3.87524E-01 2.47008E-35
3.91780E-01 2.56644E-35
3.96044E-01 2.84248E-35
4.00316E-01 3.23532E-35
4.04596E-01 3.69218E-35
4.08882E-01 4.17004E-35
4.13176E-01 4.63477E-35
4.17476E-01 5.06031E-35
4.21783E-01 5.42764E-35
4.26095E-01 5.72420E-35
4.30413E-01 5.94266E-35
4.34737E-01 6.08017E-35
4.39065E-01 6.13750E-35
4.43398E-01 6.11825E-35
4.47736E-01 6.02823E-35
4.52077E-01 5.87480E-35
4.56422E-01 5.66626E-35
4.60770E-01 5.41155E-35
4.65122E-01 5.11971E-35
4.69476E-01 4.79956E-35
4.73832E-01 4.45965E-35
4.78190E-01 4.10787E-35
4.82550E-01 3.75140E-35
4.86912E-01 3.39658E-35
4.91274E-01 3.04897E-35
4.95637E-01 2.71315E-35
5.00000E-01 2.39295E-35
5.04363E-01 2.09131E-35
5.08726E-01 1.81043E-35
5.13088E-01 1.55178E-35
5.17450E-01 1.31624E-35
5.21810E-01 1.10408E-35
5.26168E-01 9.15126E-36
5.30524E-01 7.48803E-36
5.34878E-01 6.04158E-36
5.39230E-01 4.80052E-36
5.43578E-01 3.75081E-36
5.47923E-01 2.87758E-36
5.52264E-01 2.16466E-36
5.56602E-01 1.59591E-36
5.60935E-01 1.15492E-36
5.65263E-01 8.25678E-37
5.69587E-01 5.92773E-37
5.73905E-01 4.41585E-37
5.78217E-01 3.58446E-37
5.82524E-01 3.30759E-37
5.86824E-01 3.47054E-37
5.91118E-01 3.97050E-37
5.95404E-01 4.71648E-37
5.99684E-01 5.62853E-37
6.03956E-01 6.63881E-37
6.08220E-01 7.68924E-37
6.12476E-01 8.73287E-37
6.16723E-01 9.73030E-37
6.20961E-01 1.06517E-36
6.25190E-01 1.14743E-36
6.29410E-01 1.21818E-36
6.33619E-01 1.27647E-36
6.37819E-01 1.32172E-36
6.42008E-01 1.35382E-36
6.46186E-01 1.37306E-36
6.50353E-01 1.37993E-36
6.54508E-01 1.37520E-36
6.58652E-01 1.35974E-36
6.62784E-01 1.33460E-36
6.66903E-01 1.30090E-36
6.71010E-01 1.25978E-36
6.75104E-01 1.21232E-36
6.79184E-01 1.15970E-36
6.83251E-01 1.10301E-36
6.87303E-01 1.04328E-36
6.91342E-01 9.81402E-37
6.95366E-01 9.18349E-37
6.99375E-01 8.54891E-37
7.03368E-01 7.91766E-37
7.07347E-01 7.29530E-37
7.11309E-01 6.68819E-37
7.15256E-01 6.10006E-37
7.19186E-01 5.53563E-37
7.23099E-01 4.99705E-37
7.26995E-01 4.48693E-37
7.30874E-01 4.00747E-37
7.34736E-01 3.55919E-37
7.38579E-01 3.14271E-37
7.42405E-01 2.75829E-37
7.46212E-01 2.40584E-37
7.50000E-01 2.08431E-37
7.53769E-01 1.79312E-37
7.57519E-01 1.53110E-37
7.61249E-01 1.29670E-37
7.64960E-01 1.08847E-37
7.68650E-01 9.05109E-38
7.72320E-01 7.44458E-38
7.75968E-01 6.05289E-38
7.79596E-01 4.85736E-38
7.83203E-01 3.84119E-38
7.86788E-01 2.98720E-38
7.90351E-01 2.28039E-38
7.93893E-01 1.70497E-38
7.97411E-01 1.24682E-38
8.00908E-01 8.91448E-39
8.04381E-01 6.25895E-39
8.07831E-01 4.38582E-39
8.11257E-01 3.17867E-39
8.14660E-01 2.53676E-39
8.18039E-01 2.36565E-39
8.21394E-01 2.58072E-39
8.24724E-01 3.10828E-39
8.28030E-01 3.87563E-39
8.31310E-01 4.82222E-39
8.34565E-01 5.90350E-39
8.37795E-01 7.06379E-39
8.40999E-01 8.27621E-39
8.44177E-01 9.48845E-39
8.47329E-01 1.06945E-38
8.50455E-01 1.18563E-38
8.53553E-01 1.29587E-38
8.56625E-01 1.39877E-38
8.59670E-01 1.49423E-38
8.62687E-01 1.57934E-38
8.65677E-01 1.65582E-38
8.68639E-01 1.72135E-38
8.71572E-01 1.77730E-38
8.74478E-01 1.82287E-38
8.77355E-01 1.85853E-38
8.80203E-01 1.88461E-38
8.83022E-01 1.90152E-38
8.85812E-01 1.90901E-38
8.88573E-01 1.90911E-38
8.91304E-01 1.90129E-38
8.94005E-01 1.88597E-38
8.96677E-01 1.86487E-38
8.99318E-01 1.83743E-38
9.01928E-01 1.80486E-38
9.04508E-01 1.76795E-38
9.07058E-01 1.72708E-38
9.09576E-01 1.68213E-38
9.12063E-01 1.63458E-38
9.14519E-01 1.58455E-38
9.16943E-01 1.53337E-38
9.19335E-01 1.48004E-38
9.21696E-01 1.42612E-38
9.24024E-01 1.37076E-38
9.26320E-01 1.31551E-38
9.28584E-01 1.26041E-38
9.30815E-01 1.20587E-38
9.33013E-01 1.15151E-38
9.35178E-01 1.09782E-38
9.37310E-01 1.04479E-38
9.39409E-01 9.93239E-39
9.41474E-01 9.42893E-39
9.43505E-01 8.93318E-39
9.45503E-01 8.45747E-39
9.47467E-01 7.98919E-39
9.49397E-01 7.54197E-39
9.51293E-01 7.10517E-39
9.53154E-01 6.69136E-39
9.54981E-01 6.28652E-39
9.56773E-01 5.90542E-39
9.58530E-01 5.53667E-39
9.60252E-01 5.18409E-39
9.61940E-01 4.85218E-39
9.63592E-01 4.53640E-39
9.65209E-01 4.22912E-39
9.66790E-01 3.94568E-39
9.68336E-01 3.67517E-39
9.69846E-01 3.42194E-39
9.71321E-01 3.17426E-39
9.72759E-01 2.94794E-39
9.74162E-01 2.73230E-39
9.75528E-01 2.52685E-39
9.76858E-01 2.33502E-39
9.78152E-01 2.15329E-39
9.79410E-01 1.98632E-39
9.80631E-01 1.82743E-39
9.81815E-01 1.67608E-39
9.82963E-01 1.53752E-39
9.84074E-01 1.40599E-39
9.85148E-01 1.28394E-39
9.86185E-01 1.16964E-39
9.87185E-01 1.06389E-39
9.88148E-01 9.64006E-40
9.89074E-01 8.70826E-40
9.89962E-01 7.84405E-40
9.90814E-01 7.05993E-40
9.91627E-01 6.30937E-40
9.92404E-01 5.62382E-40
9.93143E-01 4.99788E-40
9.93844E-01 4.41015E-40
9.94508E-01 3.88286E-40
9.95134E-01 3.40316E-40
9.95722E-01 2.95039E-40
9.96273E-01 2.52293E-40
9.96786E-01 2.17218E-40
9.97261E-01 1.83090E-40
9.97698E-01 1.52291E-40
9.98097E-01 1.25285E-40
9.98459E-01 1.02353E-40
9.98782E-01 7.94848E-41
9.99067E-01 6.09560E-41
9.99315E-01 4.45267E-41
9.99524E-01 3.02176E-41
9.99695E-01 1.92621E-41
9.99829E-01 1.16898E-41
9.99924E-01 5.21849E-42
9.99981E-01 1.21941E-42
1.00000E+00 3.96045E-43
