 #
 # Subroutine ELSEPA. Elastic scattering of electrons and positrons
 #                    by neutral atoms and positive ions
 #
 # Projectile: positron
 # Kinetic energy = 9.00000E+07 eV = 3.30744E+06 a.u.
 #
 # WARNING: High-energy factorization with free-atom DF screening.
 #          Absorption, polarization and exchange corrections are
 #          switched off.
 #          Phase shifts are calculated for the bare nucleus.
 #          Scattering amplitudes are not evaluated.
 #
 # Element: Pd,  Z =  46,  atomic weight = 1.06420E+02 g/mol
 #
 # Nuclear model: Fermi distribution
 #                Average radius = 5.07059E-13 cm
 #                Skin thickness = 5.46000E-14 cm
 #
 # Number of electrons = 46
 #
 # Total elastic cross section = 4.05680E-18 cm**2 = 1.44871E-01 a0**2
 # 1st transport cross section = 4.95948E-25 cm**2 = 1.77106E-08 a0**2
 # 2nd transport cross section = 1.47112E-24 cm**2 = 5.25346E-08 a0**2
 #
 #
 # Differential cross section:                       MU=(1-COS(THETA))/2
 #
 #  THETA        MU          DCS          DCS        Sherman      error
 #  (deg)                 (cm**2/sr)   (a0**2/sr)    function
 #----------------------------------------------------------------------
0.00000E+00 1.74281E-10
7.61557E-13 1.74102E-10
1.18994E-12 1.74002E-10
1.71346E-12 1.73880E-10
2.33225E-12 1.73736E-10
3.04617E-12 1.73571E-10
3.85530E-12 1.73383E-10
4.75964E-12 1.73174E-10
5.75917E-12 1.72944E-10
6.85391E-12 1.72692E-10
8.04379E-12 1.72419E-10
9.32893E-12 1.72126E-10
1.07092E-11 1.71811E-10
1.21847E-11 1.71476E-10
1.37554E-11 1.71121E-10
1.54213E-11 1.70745E-10
1.71823E-11 1.70350E-10
1.90386E-11 1.69935E-10
2.09900E-11 1.69501E-10
2.30367E-11 1.69047E-10
2.51785E-11 1.68575E-10
2.74156E-11 1.68084E-10
2.97478E-11 1.67568E-10
3.21752E-11 1.67034E-10
3.46979E-11 1.66486E-10
3.73157E-11 1.65924E-10
4.00286E-11 1.65350E-10
4.28368E-11 1.64763E-10
4.57402E-11 1.64146E-10
4.87388E-11 1.63508E-10
5.18325E-11 1.62860E-10
5.50215E-11 1.62202E-10
5.83057E-11 1.61535E-10
6.16850E-11 1.60859E-10
6.51595E-11 1.60152E-10
6.87293E-11 1.59423E-10
7.23943E-11 1.58688E-10
7.61544E-11 1.57946E-10
1.18991E-10 1.49899E-10
1.71347E-10 1.40994E-10
2.33223E-10 1.31535E-10
3.04617E-10 1.21939E-10
3.85531E-10 1.12407E-10
4.75965E-10 1.03123E-10
5.75917E-10 9.43017E-11
6.85389E-10 8.59632E-11
8.04380E-10 7.81850E-11
9.32891E-10 7.10227E-11
1.07092E-09 6.44136E-11
1.21847E-09 5.83808E-11
1.37554E-09 5.29071E-11
1.54213E-09 4.79143E-11
1.71823E-09 4.34046E-11
1.90386E-09 3.93384E-11
2.09900E-09 3.56506E-11
2.30367E-09 3.23344E-11
2.51785E-09 2.93487E-11
2.74156E-09 2.66512E-11
2.97478E-09 2.40563E-11
3.21752E-09 2.17545E-11
3.46978E-09 1.97665E-11
3.73156E-09 1.80414E-11
4.00286E-09 1.65375E-11
4.28368E-09 1.52205E-11
4.57402E-09 1.39085E-11
4.87388E-09 1.26924E-11
5.18326E-09 1.16230E-11
5.50215E-09 1.06793E-11
5.83057E-09 9.84340E-12
6.16850E-09 9.10056E-12
6.51596E-09 8.39003E-12
6.87293E-09 7.72952E-12
7.23942E-09 7.13970E-12
7.61544E-09 6.61150E-12
1.18991E-08 3.30584E-12
1.71347E-08 1.86082E-12
2.33223E-08 1.14562E-12
3.04617E-08 7.51512E-13
3.85531E-08 5.13970E-13
4.75965E-08 3.61975E-13
5.75917E-08 2.61192E-13
6.85389E-08 1.92211E-13
8.04380E-08 1.43992E-13
9.32891E-08 1.09784E-13
1.07092E-07 8.50583E-14
1.21847E-07 6.69041E-14
1.37554E-07 5.33526E-14
1.54213E-07 4.30736E-14
1.71823E-07 3.51782E-14
1.90386E-07 2.90339E-14
2.09900E-07 2.41889E-14
2.30367E-07 2.03246E-14
2.51785E-07 1.72083E-14
2.74156E-07 1.46695E-14
2.97478E-07 1.25784E-14
3.21752E-07 1.08542E-14
3.46978E-07 9.41826E-15
3.73156E-07 8.20757E-15
4.00286E-07 7.19078E-15
4.28368E-07 6.32058E-15
4.57402E-07 5.58039E-15
4.87388E-07 4.94473E-15
5.18325E-07 4.39575E-15
5.50215E-07 3.92240E-15
5.83057E-07 3.50827E-15
6.16850E-07 3.14848E-15
6.51596E-07 2.83284E-15
6.87293E-07 2.55556E-15
7.23942E-07 2.31164E-15
7.61543E-07 2.09531E-15
1.18991E-06 8.77629E-16
1.71347E-06 4.28927E-16
2.33223E-06 2.33777E-16
3.04617E-06 1.38095E-16
3.85531E-06 8.67571E-17
4.75964E-06 5.72185E-17
5.75916E-06 3.92494E-17
6.85388E-06 2.78113E-17
8.04378E-06 2.02509E-17
9.32888E-06 1.50923E-17
1.07092E-05 1.14755E-17
1.21846E-05 8.87923E-18
1.37553E-05 6.97679E-18
1.54212E-05 5.55721E-18
1.71822E-05 4.48069E-18
1.90385E-05 3.65161E-18
2.09899E-05 3.00704E-18
2.30365E-05 2.49833E-18
2.51783E-05 2.09243E-18
2.74153E-05 1.76543E-18
2.97475E-05 1.49971E-18
3.21749E-05 1.28211E-18
3.46974E-05 1.10259E-18
3.73152E-05 9.53463E-19
4.00281E-05 8.28754E-19
4.28362E-05 7.23791E-19
4.57395E-05 6.34920E-19
4.87380E-05 5.59253E-19
5.18317E-05 4.94500E-19
5.50205E-05 4.38830E-19
5.83045E-05 3.90765E-19
6.16838E-05 3.49101E-19
6.51582E-05 3.12846E-19
6.87277E-05 2.81183E-19
7.23925E-05 2.53428E-19
7.61524E-05 2.29062E-19
9.21439E-05 1.56412E-19
1.09658E-04 1.10393E-19
1.28695E-04 8.01178E-20
1.49255E-04 5.95353E-20
1.71338E-04 4.51562E-20
1.94942E-04 3.48639E-20
2.20070E-04 2.73418E-20
2.46720E-04 2.17420E-20
2.74892E-04 1.75036E-20
3.04586E-04 1.42488E-20
3.35803E-04 1.17158E-20
3.68542E-04 9.72084E-21
4.02802E-04 8.13259E-21
4.38585E-04 6.85542E-21
4.75889E-04 5.81917E-21
5.14715E-04 4.97121E-21
5.55063E-04 4.27206E-21
5.96931E-04 3.69141E-21
6.40321E-04 3.20600E-21
6.85233E-04 2.79769E-21
7.31665E-04 2.45225E-21
7.79618E-04 2.15842E-21
8.29092E-04 1.90724E-21
8.80086E-04 1.69147E-21
9.32601E-04 1.50532E-21
9.86636E-04 1.34403E-21
1.04219E-03 1.20373E-21
1.09927E-03 1.08122E-21
1.15786E-03 9.73874E-22
1.21797E-03 8.79494E-22
1.27961E-03 7.96237E-22
1.34276E-03 7.22585E-22
1.40743E-03 6.57230E-22
1.47362E-03 5.99076E-22
1.54133E-03 5.47197E-22
1.61056E-03 5.00796E-22
1.68131E-03 4.59195E-22
1.75357E-03 4.21811E-22
1.82735E-03 3.88142E-22
1.90265E-03 3.57755E-22
1.97947E-03 3.30273E-22
2.05780E-03 3.05370E-22
2.13765E-03 2.82762E-22
2.21902E-03 2.62200E-22
2.30190E-03 2.43464E-22
2.38630E-03 2.26365E-22
2.47222E-03 2.10735E-22
2.55965E-03 1.96425E-22
2.64859E-03 1.83303E-22
2.73905E-03 1.71254E-22
2.83103E-03 1.60174E-22
2.92452E-03 1.49971E-22
3.01952E-03 1.40564E-22
3.11604E-03 1.31879E-22
3.21407E-03 1.23850E-22
3.31362E-03 1.16420E-22
3.41468E-03 1.09536E-22
3.51725E-03 1.03150E-22
3.62133E-03 9.72202E-23
3.72692E-03 9.17077E-23
3.83403E-03 8.65779E-23
3.94265E-03 8.17994E-23
4.05278E-03 7.73440E-23
4.16442E-03 7.31858E-23
4.27757E-03 6.93013E-23
4.39223E-03 6.56693E-23
4.50840E-03 6.22705E-23
4.62608E-03 5.90871E-23
4.74527E-03 5.61030E-23
4.86597E-03 5.33034E-23
4.98817E-03 5.06750E-23
5.11188E-03 4.82052E-23
5.23711E-03 4.58829E-23
5.36383E-03 4.36976E-23
5.49207E-03 4.16397E-23
5.62181E-03 3.97005E-23
5.75306E-03 3.78718E-23
5.88581E-03 3.61463E-23
6.02007E-03 3.45170E-23
6.15583E-03 3.29776E-23
6.29310E-03 3.15223E-23
6.43187E-03 3.01455E-23
6.57214E-03 2.88424E-23
6.71392E-03 2.76082E-23
6.85720E-03 2.64386E-23
7.00198E-03 2.53297E-23
7.14827E-03 2.42776E-23
7.29605E-03 2.32790E-23
7.44534E-03 2.23307E-23
7.59612E-03 2.14296E-23
7.97965E-03 1.93658E-23
8.37255E-03 1.75418E-23
8.77480E-03 1.59251E-23
9.18641E-03 1.44882E-23
9.60736E-03 1.32077E-23
1.00376E-02 1.20638E-23
1.04773E-02 1.10393E-23
1.09262E-02 1.01199E-23
1.13844E-02 9.29272E-24
1.18520E-02 8.54711E-24
1.23288E-02 7.87362E-24
1.28150E-02 7.26409E-24
1.33104E-02 6.71142E-24
1.38150E-02 6.20940E-24
1.43290E-02 5.75260E-24
1.48521E-02 5.33627E-24
1.53845E-02 4.95619E-24
1.59262E-02 4.60869E-24
1.64770E-02 4.29049E-24
1.70371E-02 3.99870E-24
1.76063E-02 3.73076E-24
1.81848E-02 3.48439E-24
1.87724E-02 3.25755E-24
1.93692E-02 3.04844E-24
1.99751E-02 2.85543E-24
2.05901E-02 2.67708E-24
2.12143E-02 2.51208E-24
2.18476E-02 2.35926E-24
2.24900E-02 2.21757E-24
2.31415E-02 2.08606E-24
2.38021E-02 1.96389E-24
2.44717E-02 1.85027E-24
2.51504E-02 1.74450E-24
2.58382E-02 1.64595E-24
2.65349E-02 1.55404E-24
2.72407E-02 1.46826E-24
2.79555E-02 1.38812E-24
2.86793E-02 1.31319E-24
2.94120E-02 1.24308E-24
3.01537E-02 1.17742E-24
3.09043E-02 1.11589E-24
3.16639E-02 1.05818E-24
3.24324E-02 1.00401E-24
3.32098E-02 9.53134E-25
3.39961E-02 9.05315E-25
3.47912E-02 8.60340E-25
3.55952E-02 8.18012E-25
3.64081E-02 7.78149E-25
3.72297E-02 7.40583E-25
3.80602E-02 7.05162E-25
3.88995E-02 6.71741E-25
3.97476E-02 6.40191E-25
4.06044E-02 6.10388E-25
4.14700E-02 5.82221E-25
4.23443E-02 5.55585E-25
4.32273E-02 5.30383E-25
4.41190E-02 5.06526E-25
4.50194E-02 4.83931E-25
4.59284E-02 4.62519E-25
4.68461E-02 4.42219E-25
4.87074E-02 4.04691E-25
5.06030E-02 3.70865E-25
5.25328E-02 3.40321E-25
5.44967E-02 3.12693E-25
5.64946E-02 2.87662E-25
5.85262E-02 2.64947E-25
6.05914E-02 2.44302E-25
6.26901E-02 2.25512E-25
6.48222E-02 2.08386E-25
6.69873E-02 1.92755E-25
6.91854E-02 1.78470E-25
7.14163E-02 1.65398E-25
7.36799E-02 1.53423E-25
7.59760E-02 1.42438E-25
7.83043E-02 1.32351E-25
8.06647E-02 1.23078E-25
8.30571E-02 1.14544E-25
8.54812E-02 1.06683E-25
8.79369E-02 9.94336E-26
9.04240E-02 9.27424E-26
9.29422E-02 8.65606E-26
9.54915E-02 8.08443E-26
9.80716E-02 7.55537E-26
1.00682E-01 7.06531E-26
1.03323E-01 6.61100E-26
1.05995E-01 6.18950E-26
1.08696E-01 5.79813E-26
1.11427E-01 5.43447E-26
1.14188E-01 5.09631E-26
1.16978E-01 4.78165E-26
1.19797E-01 4.48865E-26
1.22645E-01 4.21564E-26
1.25522E-01 3.96109E-26
1.28428E-01 3.72361E-26
1.31361E-01 3.50191E-26
1.34323E-01 3.29483E-26
1.37313E-01 3.10128E-26
1.40330E-01 2.92029E-26
1.43375E-01 2.75095E-26
1.46447E-01 2.59242E-26
1.49545E-01 2.44394E-26
1.52671E-01 2.30480E-26
1.55823E-01 2.17434E-26
1.59001E-01 2.05198E-26
1.62205E-01 1.93715E-26
1.65435E-01 1.82934E-26
1.68690E-01 1.72808E-26
1.71970E-01 1.63293E-26
1.75276E-01 1.54348E-26
1.78606E-01 1.45937E-26
1.81961E-01 1.38023E-26
1.85340E-01 1.30574E-26
1.88743E-01 1.23561E-26
1.92169E-01 1.16956E-26
1.95619E-01 1.10733E-26
1.99092E-01 1.04867E-26
2.02589E-01 9.93361E-27
2.06107E-01 9.41198E-27
2.09649E-01 8.91983E-27
2.13212E-01 8.45535E-27
2.16797E-01 8.01686E-27
2.20404E-01 7.60276E-27
2.24032E-01 7.21160E-27
2.27680E-01 6.84199E-27
2.31350E-01 6.49264E-27
2.35040E-01 6.16237E-27
2.38751E-01 5.85003E-27
2.42481E-01 5.55458E-27
2.46231E-01 5.27504E-27
2.50000E-01 5.01048E-27
2.53788E-01 4.76004E-27
2.57595E-01 4.52291E-27
2.61421E-01 4.29833E-27
2.65264E-01 4.08558E-27
2.69126E-01 3.88400E-27
2.73005E-01 3.69295E-27
2.76901E-01 3.51186E-27
2.80814E-01 3.34016E-27
2.84744E-01 3.17734E-27
2.88691E-01 3.02290E-27
2.92653E-01 2.87638E-27
2.96632E-01 2.73736E-27
3.00625E-01 2.60542E-27
3.04634E-01 2.48018E-27
3.08658E-01 2.36128E-27
3.12697E-01 2.24837E-27
3.16749E-01 2.14114E-27
3.20816E-01 2.03928E-27
3.24896E-01 1.94251E-27
3.28990E-01 1.85056E-27
3.33097E-01 1.76317E-27
3.37216E-01 1.68011E-27
3.41348E-01 1.60115E-27
3.45492E-01 1.52607E-27
3.49647E-01 1.45468E-27
3.53814E-01 1.38678E-27
3.57992E-01 1.32219E-27
3.62181E-01 1.26075E-27
3.66381E-01 1.20229E-27
3.70590E-01 1.14665E-27
3.74810E-01 1.09371E-27
3.79039E-01 1.04331E-27
3.83277E-01 9.95332E-28
3.87524E-01 9.49653E-28
3.91780E-01 9.06158E-28
3.96044E-01 8.64736E-28
4.00316E-01 8.25285E-28
4.04596E-01 7.87705E-28
4.08882E-01 7.51905E-28
4.13176E-01 7.17796E-28
4.17476E-01 6.85294E-28
4.21783E-01 6.54321E-28
4.26095E-01 6.24801E-28
4.30413E-01 5.96663E-28
4.34737E-01 5.69840E-28
4.39065E-01 5.44268E-28
4.43398E-01 5.19885E-28
4.47736E-01 4.96634E-28
4.52077E-01 4.74461E-28
4.56422E-01 4.53313E-28
4.60770E-01 4.33141E-28
4.65122E-01 4.13899E-28
4.69476E-01 3.95541E-28
4.73832E-01 3.78025E-28
4.78190E-01 3.61312E-28
4.82550E-01 3.45363E-28
4.86912E-01 3.30141E-28
4.91274E-01 3.15613E-28
4.95637E-01 3.01746E-28
5.00000E-01 2.88507E-28
5.04363E-01 2.75869E-28
5.08726E-01 2.63802E-28
5.13088E-01 2.52280E-28
5.17450E-01 2.41278E-28
5.21810E-01 2.30770E-28
5.26168E-01 2.20734E-28
5.30524E-01 2.11149E-28
5.34878E-01 2.01992E-28
5.39230E-01 1.93245E-28
5.43578E-01 1.84888E-28
5.47923E-01 1.76904E-28
5.52264E-01 1.69275E-28
5.56602E-01 1.61984E-28
5.60935E-01 1.55017E-28
5.65263E-01 1.48358E-28
5.69587E-01 1.41994E-28
5.73905E-01 1.35911E-28
5.78217E-01 1.30095E-28
5.82524E-01 1.24536E-28
5.86824E-01 1.19221E-28
5.91118E-01 1.14139E-28
5.95404E-01 1.09279E-28
5.99684E-01 1.04633E-28
6.03956E-01 1.00189E-28
6.08220E-01 9.59387E-29
6.12476E-01 9.18738E-29
6.16723E-01 8.79857E-29
6.20961E-01 8.42664E-29
6.25190E-01 8.07084E-29
6.29410E-01 7.73045E-29
6.33619E-01 7.40478E-29
6.37819E-01 7.09317E-29
6.42008E-01 6.79500E-29
6.46186E-01 6.50967E-29
6.50353E-01 6.23661E-29
6.54508E-01 5.97528E-29
6.58652E-01 5.72515E-29
6.62784E-01 5.48574E-29
6.66903E-01 5.25656E-29
6.71010E-01 5.03717E-29
6.75104E-01 4.82714E-29
6.79184E-01 4.62606E-29
6.83251E-01 4.43353E-29
6.87303E-01 4.24918E-29
6.91342E-01 4.07265E-29
6.95366E-01 3.90360E-29
6.99375E-01 3.74171E-29
7.03368E-01 3.58665E-29
7.07347E-01 3.43814E-29
7.11309E-01 3.29589E-29
7.15256E-01 3.15963E-29
7.19186E-01 3.02909E-29
7.23099E-01 2.90404E-29
7.26995E-01 2.78422E-29
7.30874E-01 2.66943E-29
7.34736E-01 2.55944E-29
7.38579E-01 2.45404E-29
7.42405E-01 2.35303E-29
7.46212E-01 2.25624E-29
7.50000E-01 2.16347E-29
7.53769E-01 2.07456E-29
7.57519E-01 1.98934E-29
7.61249E-01 1.90765E-29
7.64960E-01 1.82934E-29
7.68650E-01 1.75427E-29
7.72320E-01 1.68230E-29
7.75968E-01 1.61330E-29
7.79596E-01 1.54714E-29
7.83203E-01 1.48371E-29
7.86788E-01 1.42288E-29
7.90351E-01 1.36455E-29
7.93893E-01 1.30861E-29
7.97411E-01 1.25496E-29
8.00908E-01 1.20350E-29
8.04381E-01 1.15414E-29
8.07831E-01 1.10680E-29
8.11257E-01 1.06139E-29
8.14660E-01 1.01783E-29
8.18039E-01 9.76034E-30
8.21394E-01 9.35938E-30
8.24724E-01 8.97469E-30
8.28030E-01 8.60558E-30
8.31310E-01 8.25141E-30
8.34565E-01 7.91155E-30
8.37795E-01 7.58541E-30
8.40999E-01 7.27243E-30
8.44177E-01 6.97206E-30
8.47329E-01 6.68377E-30
8.50455E-01 6.40707E-30
8.53553E-01 6.14148E-30
8.56625E-01 5.88655E-30
8.59670E-01 5.64183E-30
8.62687E-01 5.40691E-30
8.65677E-01 5.18138E-30
8.68639E-01 4.96486E-30
8.71572E-01 4.75699E-30
8.74478E-01 4.55740E-30
8.77355E-01 4.36576E-30
8.80203E-01 4.18176E-30
8.83022E-01 4.00507E-30
8.85812E-01 3.83540E-30
8.88573E-01 3.67246E-30
8.91304E-01 3.51599E-30
8.94005E-01 3.36572E-30
8.96677E-01 3.22141E-30
8.99318E-01 3.08281E-30
9.01928E-01 2.94969E-30
9.04508E-01 2.82183E-30
9.07058E-01 2.69903E-30
9.09576E-01 2.58108E-30
9.12063E-01 2.46778E-30
9.14519E-01 2.35896E-30
9.16943E-01 2.25443E-30
9.19335E-01 2.15402E-30
9.21696E-01 2.05757E-30
9.24024E-01 1.96493E-30
9.26320E-01 1.87594E-30
9.28584E-01 1.79046E-30
9.30815E-01 1.70835E-30
9.33013E-01 1.62948E-30
9.35178E-01 1.55373E-30
9.37310E-01 1.48097E-30
9.39409E-01 1.41109E-30
9.41474E-01 1.34397E-30
9.43505E-01 1.27950E-30
9.45503E-01 1.21760E-30
9.47467E-01 1.15815E-30
9.49397E-01 1.10107E-30
9.51293E-01 1.04626E-30
9.53154E-01 9.93635E-31
9.54981E-01 9.43118E-31
9.56773E-01 8.94628E-31
9.58530E-01 8.48087E-31
9.60252E-01 8.03424E-31
9.61940E-01 7.60569E-31
9.63592E-01 7.19455E-31
9.65209E-01 6.80020E-31
9.66790E-01 6.42200E-31
9.68336E-01 6.05939E-31
9.69846E-01 5.71180E-31
9.71321E-01 5.37869E-31
9.72759E-01 5.05956E-31
9.74162E-01 4.75392E-31
9.75528E-01 4.46129E-31
9.76858E-01 4.18123E-31
9.78152E-01 3.91332E-31
9.79410E-01 3.65713E-31
9.80631E-01 3.41230E-31
9.81815E-01 3.17843E-31
9.82963E-01 2.95518E-31
9.84074E-01 2.74221E-31
9.85148E-01 2.53920E-31
9.86185E-01 2.34584E-31
9.87185E-01 2.16184E-31
9.88148E-01 1.98692E-31
9.89074E-01 1.82082E-31
9.89962E-01 1.66329E-31
9.90814E-01 1.51410E-31
9.91627E-01 1.37301E-31
9.92404E-01 1.23983E-31
9.93143E-01 1.11434E-31
9.93844E-01 9.96367E-32
9.94508E-01 8.85731E-32
9.95134E-01 7.82266E-32
9.95722E-01 6.85820E-32
9.96273E-01 5.96249E-32
9.96786E-01 5.13418E-32
9.97261E-01 4.37206E-32
9.97698E-01 3.67499E-32
9.98097E-01 3.04194E-32
9.98459E-01 2.47197E-32
9.98782E-01 1.96425E-32
9.99067E-01 1.51800E-32
9.99315E-01 1.13258E-32
9.99524E-01 8.07419E-33
9.99695E-01 5.42028E-33
9.99829E-01 3.36015E-33
9.99924E-01 1.89084E-33
9.99981E-01 1.01012E-33
1.00000E+00 7.16704E-34
