 #
 # Subroutine ELSEPA. Elastic scattering of electrons and positrons
 #                    by neutral atoms and positive ions
 #
 # Projectile: positron
 # Kinetic energy = 1.50000E+07 eV = 5.51240E+05 a.u.
 #
 # WARNING: High-energy factorization with free-atom DF screening.
 #          Absorption, polarization and exchange corrections are
 #          switched off.
 #          Phase shifts are calculated for the bare nucleus.
 #          Scattering amplitudes are not evaluated.
 #
 # Element: Pd,  Z =  46,  atomic weight = 1.06420E+02 g/mol
 #
 # Nuclear model: Fermi distribution
 #                Average radius = 5.07059E-13 cm
 #                Skin thickness = 5.46000E-14 cm
 #
 # Number of electrons = 46
 #
 # Total elastic cross section = 4.05788E-18 cm**2 = 1.44910E-01 a0**2
 # 1st transport cross section = 1.38434E-23 cm**2 = 4.94355E-07 a0**2
 # 2nd transport cross section = 4.01935E-23 cm**2 = 1.43534E-06 a0**2
 #
 #
 # Differential cross section:                       MU=(1-COS(THETA))/2
 #
 #  THETA        MU          DCS          DCS        Sherman      error
 #  (deg)                 (cm**2/sr)   (a0**2/sr)    function
 #----------------------------------------------------------------------
0.00000E+00 5.11832E-12
7.61557E-13 5.11816E-12
1.18994E-12 5.11807E-12
1.71346E-12 5.11796E-12
2.33225E-12 5.11783E-12
3.04617E-12 5.11769E-12
3.85530E-12 5.11752E-12
4.75964E-12 5.11734E-12
5.75917E-12 5.11713E-12
6.85391E-12 5.11691E-12
8.04379E-12 5.11667E-12
9.32893E-12 5.11641E-12
1.07092E-11 5.11613E-12
1.21847E-11 5.11583E-12
1.37554E-11 5.11551E-12
1.54213E-11 5.11517E-12
1.71823E-11 5.11482E-12
1.90386E-11 5.11444E-12
2.09900E-11 5.11405E-12
2.30367E-11 5.11363E-12
2.51785E-11 5.11320E-12
2.74156E-11 5.11275E-12
2.97478E-11 5.11228E-12
3.21752E-11 5.11179E-12
3.46979E-11 5.11128E-12
3.73157E-11 5.11076E-12
4.00286E-11 5.11021E-12
4.28368E-11 5.10965E-12
4.57402E-11 5.10906E-12
4.87388E-11 5.10846E-12
5.18325E-11 5.10784E-12
5.50215E-11 5.10720E-12
5.83057E-11 5.10654E-12
6.16850E-11 5.10586E-12
6.51595E-11 5.10516E-12
6.87293E-11 5.10445E-12
7.23943E-11 5.10371E-12
7.61544E-11 5.10296E-12
1.18991E-10 5.09439E-12
1.71347E-10 5.08396E-12
2.33223E-10 5.07169E-12
3.04617E-10 5.05759E-12
3.85531E-10 5.04171E-12
4.75965E-10 5.02406E-12
5.75917E-10 5.00468E-12
6.85389E-10 4.98360E-12
8.04380E-10 4.96087E-12
9.32891E-10 4.93653E-12
1.07092E-09 4.91024E-12
1.21847E-09 4.88264E-12
1.37554E-09 4.85390E-12
1.54213E-09 4.82369E-12
1.71823E-09 4.79151E-12
1.90386E-09 4.75845E-12
2.09900E-09 4.72462E-12
2.30367E-09 4.68866E-12
2.51785E-09 4.65165E-12
2.74156E-09 4.61413E-12
2.97478E-09 4.57568E-12
3.21752E-09 4.53512E-12
3.46978E-09 4.49430E-12
3.73156E-09 4.45333E-12
4.00286E-09 4.41047E-12
4.28368E-09 4.36678E-12
4.57402E-09 4.32318E-12
4.87388E-09 4.27931E-12
5.18326E-09 4.23317E-12
5.50215E-09 4.18735E-12
5.83057E-09 4.14191E-12
6.16850E-09 4.09501E-12
6.51596E-09 4.04738E-12
6.87293E-09 4.00034E-12
7.23942E-09 3.95372E-12
7.61544E-09 3.90469E-12
1.18991E-08 3.42249E-12
1.71347E-08 2.95608E-12
2.33223E-08 2.52675E-12
3.04617E-08 2.14600E-12
3.85531E-08 1.81583E-12
4.75965E-08 1.53372E-12
5.75917E-08 1.29494E-12
6.85389E-08 1.09382E-12
8.04380E-08 9.25142E-13
9.32891E-08 7.84097E-13
1.07092E-07 6.58505E-13
1.21847E-07 5.59013E-13
1.37554E-07 4.80742E-13
1.54213E-07 4.14897E-13
1.71823E-07 3.55102E-13
1.90386E-07 3.06975E-13
2.09900E-07 2.67830E-13
2.30367E-07 2.32866E-13
2.51785E-07 2.03292E-13
2.74156E-07 1.78768E-13
2.97478E-07 1.57967E-13
3.21752E-07 1.39528E-13
3.46978E-07 1.23963E-13
3.73156E-07 1.10740E-13
4.00286E-07 9.91094E-14
4.28368E-07 8.89909E-14
4.57402E-07 8.02680E-14
4.87388E-07 7.26772E-14
5.18325E-07 6.58904E-14
5.50215E-07 5.99649E-14
5.83057E-07 5.47695E-14
6.16850E-07 5.01154E-14
6.51596E-07 4.59573E-14
6.87293E-07 4.22742E-14
7.23942E-07 3.89940E-14
7.61543E-07 3.59810E-14
1.18991E-06 1.77292E-14
1.71347E-06 9.68918E-15
2.33223E-06 5.65680E-15
3.04617E-06 3.48484E-15
3.85531E-06 2.25426E-15
4.75964E-06 1.52135E-15
5.75916E-06 1.06463E-15
6.85388E-06 7.68604E-16
8.04378E-06 5.69593E-16
9.32888E-06 4.31398E-16
1.07092E-05 3.32671E-16
1.21846E-05 2.60872E-16
1.37553E-05 2.07505E-16
1.54212E-05 1.66925E-16
1.71822E-05 1.35809E-16
1.90385E-05 1.11585E-16
2.09899E-05 9.25161E-17
2.30365E-05 7.73197E-17
2.51783E-05 6.51053E-17
2.74153E-05 5.51915E-17
2.97475E-05 4.70710E-17
3.21749E-05 4.03890E-17
3.46974E-05 3.48513E-17
3.73152E-05 3.02257E-17
4.00281E-05 2.63432E-17
4.28362E-05 2.30653E-17
4.57395E-05 2.02803E-17
4.87380E-05 1.79015E-17
5.18317E-05 1.58611E-17
5.50205E-05 1.41029E-17
5.83045E-05 1.25807E-17
6.16838E-05 1.12587E-17
6.51582E-05 1.01064E-17
6.87277E-05 9.09792E-18
7.23925E-05 8.21232E-18
7.61524E-05 7.43220E-18
9.21439E-05 5.10230E-18
1.09658E-04 3.61811E-18
1.28695E-04 2.63679E-18
1.49255E-04 1.96661E-18
1.71338E-04 1.49648E-18
1.94942E-04 1.15872E-18
2.20070E-04 9.11029E-19
2.46720E-04 7.26065E-19
2.74892E-04 5.85681E-19
3.04586E-04 4.77609E-19
3.35803E-04 3.93310E-19
3.68542E-04 3.26789E-19
4.02802E-04 2.73731E-19
4.38585E-04 2.30996E-19
4.75889E-04 1.96270E-19
5.14715E-04 1.67817E-19
5.55063E-04 1.44329E-19
5.96931E-04 1.24802E-19
6.40321E-04 1.08461E-19
6.85233E-04 9.47034E-20
7.31665E-04 8.30547E-20
7.79618E-04 7.31395E-20
8.29092E-04 6.46573E-20
8.80086E-04 5.73670E-20
9.32601E-04 5.10736E-20
9.86636E-04 4.56177E-20
1.04219E-03 4.08698E-20
1.09927E-03 3.67223E-20
1.15786E-03 3.30865E-20
1.21797E-03 2.98886E-20
1.27961E-03 2.70669E-20
1.34276E-03 2.45697E-20
1.40743E-03 2.23531E-20
1.47362E-03 2.03804E-20
1.54133E-03 1.86199E-20
1.61056E-03 1.70450E-20
1.68131E-03 1.56327E-20
1.75357E-03 1.43632E-20
1.82735E-03 1.32197E-20
1.90265E-03 1.21874E-20
1.97947E-03 1.12537E-20
2.05780E-03 1.04074E-20
2.13765E-03 9.63896E-21
2.21902E-03 8.93994E-21
2.30190E-03 8.30295E-21
2.38630E-03 7.72152E-21
2.47222E-03 7.18994E-21
2.55965E-03 6.70319E-21
2.64859E-03 6.25681E-21
2.73905E-03 5.84685E-21
2.83103E-03 5.46981E-21
2.92452E-03 5.12257E-21
3.01952E-03 4.80237E-21
3.11604E-03 4.50671E-21
3.21407E-03 4.23337E-21
3.31362E-03 3.98037E-21
3.41468E-03 3.74593E-21
3.51725E-03 3.52843E-21
3.62133E-03 3.32643E-21
3.72692E-03 3.13863E-21
3.83403E-03 2.96384E-21
3.94265E-03 2.80101E-21
4.05278E-03 2.64917E-21
4.16442E-03 2.50743E-21
4.27757E-03 2.37501E-21
4.39223E-03 2.25119E-21
4.50840E-03 2.13529E-21
4.62608E-03 2.02673E-21
4.74527E-03 1.92495E-21
4.86597E-03 1.82945E-21
4.98817E-03 1.73978E-21
5.11188E-03 1.65551E-21
5.23711E-03 1.57626E-21
5.36383E-03 1.50167E-21
5.49207E-03 1.43143E-21
5.62181E-03 1.36522E-21
5.75306E-03 1.30279E-21
5.88581E-03 1.24386E-21
6.02007E-03 1.18821E-21
6.15583E-03 1.13563E-21
6.29310E-03 1.08591E-21
6.43187E-03 1.03886E-21
6.57214E-03 9.94328E-22
6.71392E-03 9.52142E-22
6.85720E-03 9.12159E-22
7.00198E-03 8.74242E-22
7.14827E-03 8.38265E-22
7.29605E-03 8.04110E-22
7.44534E-03 7.71668E-22
7.59612E-03 7.40838E-22
7.97965E-03 6.70203E-22
8.37255E-03 6.07748E-22
8.77480E-03 5.52364E-22
9.18641E-03 5.03116E-22
9.60736E-03 4.59207E-22
1.00376E-02 4.19959E-22
1.04773E-02 3.84792E-22
1.09262E-02 3.53210E-22
1.13844E-02 3.24784E-22
1.18520E-02 2.99144E-22
1.23288E-02 2.75969E-22
1.28150E-02 2.54982E-22
1.33104E-02 2.35940E-22
1.38150E-02 2.18632E-22
1.43290E-02 2.02871E-22
1.48521E-02 1.88496E-22
1.53845E-02 1.75363E-22
1.59262E-02 1.63347E-22
1.64770E-02 1.52335E-22
1.70371E-02 1.42228E-22
1.76063E-02 1.32940E-22
1.81848E-02 1.24393E-22
1.87724E-02 1.16516E-22
1.93692E-02 1.09248E-22
1.99751E-02 1.02534E-22
2.05901E-02 9.63236E-23
2.12143E-02 9.05726E-23
2.18476E-02 8.52411E-23
2.24900E-02 8.02927E-23
2.31415E-02 7.56951E-23
2.38021E-02 7.14193E-23
2.44717E-02 6.74386E-23
2.51504E-02 6.37289E-23
2.58382E-02 6.02684E-23
2.65349E-02 5.70376E-23
2.72407E-02 5.40185E-23
2.79555E-02 5.11947E-23
2.86793E-02 4.85512E-23
2.94120E-02 4.60744E-23
3.01537E-02 4.37521E-23
3.09043E-02 4.15729E-23
3.16639E-02 3.95264E-23
3.24324E-02 3.76028E-23
3.32098E-02 3.57937E-23
3.39961E-02 3.40911E-23
3.47912E-02 3.24874E-23
3.55952E-02 3.09759E-23
3.64081E-02 2.95502E-23
3.72297E-02 2.82049E-23
3.80602E-02 2.69344E-23
3.88995E-02 2.57338E-23
3.97476E-02 2.45985E-23
4.06044E-02 2.35245E-23
4.14700E-02 2.25079E-23
4.23443E-02 2.15449E-23
4.32273E-02 2.06321E-23
4.41190E-02 1.97668E-23
4.50194E-02 1.89458E-23
4.59284E-02 1.81663E-23
4.68461E-02 1.74261E-23
4.87074E-02 1.60541E-23
5.06030E-02 1.48127E-23
5.25328E-02 1.36877E-23
5.44967E-02 1.26660E-23
5.64946E-02 1.17368E-23
5.85262E-02 1.08900E-23
6.05914E-02 1.01173E-23
6.26901E-02 9.41089E-24
6.48222E-02 8.76425E-24
6.69873E-02 8.17139E-24
6.91854E-02 7.62709E-24
7.14163E-02 7.12669E-24
7.36799E-02 6.66602E-24
7.59760E-02 6.24141E-24
7.83043E-02 5.84952E-24
8.06647E-02 5.48740E-24
8.30571E-02 5.15242E-24
8.54812E-02 4.84217E-24
8.79369E-02 4.55452E-24
9.04240E-02 4.28755E-24
9.29422E-02 4.03950E-24
9.54915E-02 3.80880E-24
9.80716E-02 3.59403E-24
1.00682E-01 3.39391E-24
1.03323E-01 3.20724E-24
1.05995E-01 3.03299E-24
1.08696E-01 2.87017E-24
1.11427E-01 2.71791E-24
1.14188E-01 2.57540E-24
1.16978E-01 2.44191E-24
1.19797E-01 2.31677E-24
1.22645E-01 2.19938E-24
1.25522E-01 2.08915E-24
1.28428E-01 1.98559E-24
1.31361E-01 1.88822E-24
1.34323E-01 1.79660E-24
1.37313E-01 1.71034E-24
1.40330E-01 1.62907E-24
1.43375E-01 1.55245E-24
1.46447E-01 1.48016E-24
1.49545E-01 1.41193E-24
1.52671E-01 1.34748E-24
1.55823E-01 1.28657E-24
1.59001E-01 1.22897E-24
1.62205E-01 1.17446E-24
1.65435E-01 1.12286E-24
1.68690E-01 1.07398E-24
1.71970E-01 1.02766E-24
1.75276E-01 9.83733E-25
1.78606E-01 9.42057E-25
1.81961E-01 9.02498E-25
1.85340E-01 8.64929E-25
1.88743E-01 8.29233E-25
1.92169E-01 7.95300E-25
1.95619E-01 7.63029E-25
1.99092E-01 7.32324E-25
2.02589E-01 7.03096E-25
2.06107E-01 6.75261E-25
2.09649E-01 6.48743E-25
2.13212E-01 6.23467E-25
2.16797E-01 5.99366E-25
2.20404E-01 5.76375E-25
2.24032E-01 5.54436E-25
2.27680E-01 5.33491E-25
2.31350E-01 5.13488E-25
2.35040E-01 4.94377E-25
2.38751E-01 4.76111E-25
2.42481E-01 4.58647E-25
2.46231E-01 4.41944E-25
2.50000E-01 4.25962E-25
2.53788E-01 4.10666E-25
2.57595E-01 3.96021E-25
2.61421E-01 3.81994E-25
2.65264E-01 3.68555E-25
2.69126E-01 3.55676E-25
2.73005E-01 3.43328E-25
2.76901E-01 3.31487E-25
2.80814E-01 3.20127E-25
2.84744E-01 3.09226E-25
2.88691E-01 2.98763E-25
2.92653E-01 2.88717E-25
2.96632E-01 2.79068E-25
3.00625E-01 2.69798E-25
3.04634E-01 2.60890E-25
3.08658E-01 2.52327E-25
3.12697E-01 2.44093E-25
3.16749E-01 2.36175E-25
3.20816E-01 2.28557E-25
3.24896E-01 2.21226E-25
3.28990E-01 2.14170E-25
3.33097E-01 2.07377E-25
3.37216E-01 2.00835E-25
3.41348E-01 1.94534E-25
3.45492E-01 1.88463E-25
3.49647E-01 1.82612E-25
3.53814E-01 1.76972E-25
3.57992E-01 1.71534E-25
3.62181E-01 1.66291E-25
3.66381E-01 1.61232E-25
3.70590E-01 1.56352E-25
3.74810E-01 1.51643E-25
3.79039E-01 1.47097E-25
3.83277E-01 1.42708E-25
3.87524E-01 1.38470E-25
3.91780E-01 1.34378E-25
3.96044E-01 1.30424E-25
4.00316E-01 1.26603E-25
4.04596E-01 1.22911E-25
4.08882E-01 1.19342E-25
4.13176E-01 1.15892E-25
4.17476E-01 1.12556E-25
4.21783E-01 1.09329E-25
4.26095E-01 1.06207E-25
4.30413E-01 1.03187E-25
4.34737E-01 1.00265E-25
4.39065E-01 9.74363E-26
4.43398E-01 9.46982E-26
4.47736E-01 9.20471E-26
4.52077E-01 8.94799E-26
4.56422E-01 8.69934E-26
4.60770E-01 8.45848E-26
4.65122E-01 8.22512E-26
4.69476E-01 7.99898E-26
4.73832E-01 7.77982E-26
4.78190E-01 7.56738E-26
4.82550E-01 7.36143E-26
4.86912E-01 7.16173E-26
4.91274E-01 6.96806E-26
4.95637E-01 6.78022E-26
5.00000E-01 6.59800E-26
5.04363E-01 6.42121E-26
5.08726E-01 6.24966E-26
5.13088E-01 6.08317E-26
5.17450E-01 5.92157E-26
5.21810E-01 5.76470E-26
5.26168E-01 5.61239E-26
5.30524E-01 5.46449E-26
5.34878E-01 5.32085E-26
5.39230E-01 5.18134E-26
5.43578E-01 5.04581E-26
5.47923E-01 4.91414E-26
5.52264E-01 4.78620E-26
5.56602E-01 4.66186E-26
5.60935E-01 4.54102E-26
5.65263E-01 4.42355E-26
5.69587E-01 4.30936E-26
5.73905E-01 4.19833E-26
5.78217E-01 4.09036E-26
5.82524E-01 3.98536E-26
5.86824E-01 3.88324E-26
5.91118E-01 3.78390E-26
5.95404E-01 3.68726E-26
5.99684E-01 3.59323E-26
6.03956E-01 3.50174E-26
6.08220E-01 3.41270E-26
6.12476E-01 3.32603E-26
6.16723E-01 3.24168E-26
6.20961E-01 3.15956E-26
6.25190E-01 3.07961E-26
6.29410E-01 3.00177E-26
6.33619E-01 2.92597E-26
6.37819E-01 2.85214E-26
6.42008E-01 2.78024E-26
6.46186E-01 2.71021E-26
6.50353E-01 2.64198E-26
6.54508E-01 2.57551E-26
6.58652E-01 2.51074E-26
6.62784E-01 2.44763E-26
6.66903E-01 2.38613E-26
6.71010E-01 2.32619E-26
6.75104E-01 2.26777E-26
6.79184E-01 2.21082E-26
6.83251E-01 2.15530E-26
6.87303E-01 2.10117E-26
6.91342E-01 2.04839E-26
6.95366E-01 1.99693E-26
6.99375E-01 1.94675E-26
7.03368E-01 1.89780E-26
7.07347E-01 1.85007E-26
7.11309E-01 1.80351E-26
7.15256E-01 1.75809E-26
7.19186E-01 1.71378E-26
7.23099E-01 1.67055E-26
7.26995E-01 1.62837E-26
7.30874E-01 1.58721E-26
7.34736E-01 1.54705E-26
7.38579E-01 1.50785E-26
7.42405E-01 1.46960E-26
7.46212E-01 1.43227E-26
7.50000E-01 1.39583E-26
7.53769E-01 1.36025E-26
7.57519E-01 1.32553E-26
7.61249E-01 1.29163E-26
7.64960E-01 1.25853E-26
7.68650E-01 1.22621E-26
7.72320E-01 1.19466E-26
7.75968E-01 1.16385E-26
7.79596E-01 1.13376E-26
7.83203E-01 1.10438E-26
7.86788E-01 1.07568E-26
7.90351E-01 1.04766E-26
7.93893E-01 1.02029E-26
7.97411E-01 9.93550E-27
8.00908E-01 9.67434E-27
8.04381E-01 9.41924E-27
8.07831E-01 9.17005E-27
8.11257E-01 8.92661E-27
8.14660E-01 8.68878E-27
8.18039E-01 8.45644E-27
8.21394E-01 8.22945E-27
8.24724E-01 8.00767E-27
8.28030E-01 7.79098E-27
8.31310E-01 7.57927E-27
8.34565E-01 7.37240E-27
8.37795E-01 7.17028E-27
8.40999E-01 6.97278E-27
8.44177E-01 6.77979E-27
8.47329E-01 6.59122E-27
8.50455E-01 6.40695E-27
8.53553E-01 6.22689E-27
8.56625E-01 6.05094E-27
8.59670E-01 5.87901E-27
8.62687E-01 5.71101E-27
8.65677E-01 5.54684E-27
8.68639E-01 5.38642E-27
8.71572E-01 5.22967E-27
8.74478E-01 5.07651E-27
8.77355E-01 4.92684E-27
8.80203E-01 4.78061E-27
8.83022E-01 4.63773E-27
8.85812E-01 4.49812E-27
8.88573E-01 4.36173E-27
8.91304E-01 4.22847E-27
8.94005E-01 4.09828E-27
8.96677E-01 3.97110E-27
8.99318E-01 3.84687E-27
9.01928E-01 3.72551E-27
9.04508E-01 3.60698E-27
9.07058E-01 3.49121E-27
9.09576E-01 3.37814E-27
9.12063E-01 3.26773E-27
9.14519E-01 3.15991E-27
9.16943E-01 3.05463E-27
9.19335E-01 2.95185E-27
9.21696E-01 2.85152E-27
9.24024E-01 2.75358E-27
9.26320E-01 2.65799E-27
9.28584E-01 2.56471E-27
9.30815E-01 2.47368E-27
9.33013E-01 2.38488E-27
9.35178E-01 2.29824E-27
9.37310E-01 2.21375E-27
9.39409E-01 2.13135E-27
9.41474E-01 2.05101E-27
9.43505E-01 1.97269E-27
9.45503E-01 1.89635E-27
9.47467E-01 1.82196E-27
9.49397E-01 1.74949E-27
9.51293E-01 1.67890E-27
9.53154E-01 1.61017E-27
9.54981E-01 1.54325E-27
9.56773E-01 1.47812E-27
9.58530E-01 1.41475E-27
9.60252E-01 1.35311E-27
9.61940E-01 1.29318E-27
9.63592E-01 1.23492E-27
9.65209E-01 1.17831E-27
9.66790E-01 1.12333E-27
9.68336E-01 1.06996E-27
9.69846E-01 1.01816E-27
9.71321E-01 9.67913E-28
9.72759E-01 9.19203E-28
9.74162E-01 8.72005E-28
9.75528E-01 8.26299E-28
9.76858E-01 7.82064E-28
9.78152E-01 7.39282E-28
9.79410E-01 6.97934E-28
9.80631E-01 6.58002E-28
9.81815E-01 6.19470E-28
9.82963E-01 5.82319E-28
9.84074E-01 5.46535E-28
9.85148E-01 5.12102E-28
9.86185E-01 4.79005E-28
9.87185E-01 4.47230E-28
9.88148E-01 4.16764E-28
9.89074E-01 3.87593E-28
9.89962E-01 3.59706E-28
9.90814E-01 3.33091E-28
9.91627E-01 3.07735E-28
9.92404E-01 2.83629E-28
9.93143E-01 2.60762E-28
9.93844E-01 2.39125E-28
9.94508E-01 2.18708E-28
9.95134E-01 1.99504E-28
9.95722E-01 1.81503E-28
9.96273E-01 1.64698E-28
9.96786E-01 1.49083E-28
9.97261E-01 1.34650E-28
9.97698E-01 1.21395E-28
9.98097E-01 1.09310E-28
9.98459E-01 9.83911E-29
9.98782E-01 8.86339E-29
9.99067E-01 8.00342E-29
9.99315E-01 7.25883E-29
9.99524E-01 6.62932E-29
9.99695E-01 6.11463E-29
9.99829E-01 5.71453E-29
9.99924E-01 5.42887E-29
9.99981E-01 5.25752E-29
1.00000E+00 5.20041E-29
