 #
 # Subroutine ELSEPA. Elastic scattering of electrons and positrons
 #                    by neutral atoms and positive ions
 #
 # Projectile: positron
 # Kinetic energy = 2.00000E+07 eV = 7.34987E+05 a.u.
 #
 # WARNING: High-energy factorization with free-atom DF screening.
 #          Absorption, polarization and exchange corrections are
 #          switched off.
 #          Phase shifts are calculated for the bare nucleus.
 #          Scattering amplitudes are not evaluated.
 #
 # Element: Pd,  Z =  46,  atomic weight = 1.06420E+02 g/mol
 #
 # Nuclear model: Fermi distribution
 #                Average radius = 5.07059E-13 cm
 #                Skin thickness = 5.46000E-14 cm
 #
 # Number of electrons = 46
 #
 # Total elastic cross section = 4.05466E-18 cm**2 = 1.44795E-01 a0**2
 # 1st transport cross section = 8.25999E-24 cm**2 = 2.94970E-07 a0**2
 # 2nd transport cross section = 2.40320E-23 cm**2 = 8.58197E-07 a0**2
 #
 #
 # Differential cross section:                       MU=(1-COS(THETA))/2
 #
 #  THETA        MU          DCS          DCS        Sherman      error
 #  (deg)                 (cm**2/sr)   (a0**2/sr)    function
 #----------------------------------------------------------------------
0.00000E+00 8.94997E-12
7.61557E-13 8.94948E-12
1.18994E-12 8.94921E-12
1.71346E-12 8.94888E-12
2.33225E-12 8.94849E-12
3.04617E-12 8.94805E-12
3.85530E-12 8.94755E-12
4.75964E-12 8.94698E-12
5.75917E-12 8.94636E-12
6.85391E-12 8.94569E-12
8.04379E-12 8.94495E-12
9.32893E-12 8.94415E-12
1.07092E-11 8.94330E-12
1.21847E-11 8.94239E-12
1.37554E-11 8.94142E-12
1.54213E-11 8.94039E-12
1.71823E-11 8.93931E-12
1.90386E-11 8.93817E-12
2.09900E-11 8.93696E-12
2.30367E-11 8.93570E-12
2.51785E-11 8.93439E-12
2.74156E-11 8.93301E-12
2.97478E-11 8.93158E-12
3.21752E-11 8.93009E-12
3.46979E-11 8.92854E-12
3.73157E-11 8.92693E-12
4.00286E-11 8.92527E-12
4.28368E-11 8.92355E-12
4.57402E-11 8.92177E-12
4.87388E-11 8.91993E-12
5.18325E-11 8.91804E-12
5.50215E-11 8.91609E-12
5.83057E-11 8.91408E-12
6.16850E-11 8.91201E-12
6.51595E-11 8.90989E-12
6.87293E-11 8.90771E-12
7.23943E-11 8.90547E-12
7.61544E-11 8.90318E-12
1.18991E-10 8.87713E-12
1.71347E-10 8.84548E-12
2.33223E-10 8.80835E-12
3.04617E-10 8.76584E-12
3.85531E-10 8.71811E-12
4.75965E-10 8.66530E-12
5.75917E-10 8.60724E-12
6.85389E-10 8.54420E-12
8.04380E-10 8.47766E-12
9.32891E-10 8.40593E-12
1.07092E-09 8.33012E-12
1.21847E-09 8.25188E-12
1.37554E-09 8.16746E-12
1.54213E-09 8.08109E-12
1.71823E-09 7.99196E-12
1.90386E-09 7.89795E-12
2.09900E-09 7.80332E-12
2.30367E-09 7.70477E-12
2.51785E-09 7.60376E-12
2.74156E-09 7.50313E-12
2.97478E-09 7.39693E-12
3.21752E-09 7.29116E-12
3.46978E-09 7.18487E-12
3.73156E-09 7.07457E-12
4.00286E-09 6.96605E-12
4.28368E-09 6.85522E-12
4.57402E-09 6.74332E-12
4.87388E-09 6.63384E-12
5.18326E-09 6.52005E-12
5.50215E-09 6.40822E-12
5.83057E-09 6.29763E-12
6.16850E-09 6.18400E-12
6.51596E-09 6.07359E-12
6.87293E-09 5.96234E-12
7.23942E-09 5.85098E-12
7.61544E-09 5.74308E-12
1.18991E-08 4.69855E-12
1.71347E-08 3.79258E-12
2.33223E-08 3.04041E-12
3.04617E-08 2.43076E-12
3.85531E-08 1.94362E-12
4.75965E-08 1.55795E-12
5.75917E-08 1.24544E-12
6.85389E-08 9.97540E-13
8.04380E-08 8.17524E-13
9.32891E-08 6.68568E-13
1.07092E-07 5.49137E-13
1.21847E-07 4.58476E-13
1.37554E-07 3.80899E-13
1.54213E-07 3.20271E-13
1.71823E-07 2.71718E-13
1.90386E-07 2.31109E-13
2.09900E-07 1.98531E-13
2.30367E-07 1.71459E-13
2.51785E-07 1.48932E-13
2.74156E-07 1.30369E-13
2.97478E-07 1.14499E-13
3.21752E-07 1.01193E-13
3.46978E-07 8.99136E-14
3.73156E-07 8.01382E-14
4.00286E-07 7.18110E-14
4.28368E-07 6.45491E-14
4.57402E-07 5.82085E-14
4.87388E-07 5.27244E-14
5.18325E-07 4.78065E-14
5.50215E-07 4.35009E-14
5.83057E-07 3.97008E-14
6.16850E-07 3.62577E-14
6.51596E-07 3.32235E-14
6.87293E-07 3.04829E-14
7.23942E-07 2.80066E-14
7.61543E-07 2.58048E-14
1.18991E-06 1.20955E-14
1.71347E-06 6.27809E-15
2.33223E-06 3.54871E-15
3.04617E-06 2.15387E-15
3.85531E-06 1.38565E-15
4.75964E-06 9.34040E-16
5.75916E-06 6.52883E-16
6.85388E-06 4.70562E-16
8.04378E-06 3.47665E-16
9.32888E-06 2.62275E-16
1.07092E-05 2.01463E-16
1.21846E-05 1.57178E-16
1.37553E-05 1.24358E-16
1.54212E-05 9.96325E-17
1.71822E-05 8.07302E-17
1.90385E-05 6.60736E-17
2.09899E-05 5.46135E-17
2.30365E-05 4.55243E-17
2.51783E-05 3.82413E-17
2.74153E-05 3.23521E-17
2.97475E-05 2.75513E-17
3.21749E-05 2.36083E-17
3.46974E-05 2.03469E-17
3.73152E-05 1.76311E-17
4.00281E-05 1.53549E-17
4.28362E-05 1.34352E-17
4.57395E-05 1.18065E-17
4.87380E-05 1.04171E-17
5.18317E-05 9.22594E-18
5.50205E-05 8.20013E-18
5.83045E-05 7.31300E-18
6.16838E-05 6.54276E-18
6.51582E-05 5.87148E-18
6.87277E-05 5.28432E-18
7.23925E-05 4.76889E-18
7.61524E-05 4.31490E-18
9.21439E-05 2.95964E-18
1.09658E-04 2.09688E-18
1.28695E-04 1.52677E-18
1.49255E-04 1.13768E-18
1.71338E-04 8.64939E-19
1.94942E-04 6.69133E-19
2.20070E-04 5.25661E-19
2.46720E-04 4.18614E-19
2.74892E-04 3.37435E-19
3.04586E-04 2.74988E-19
3.35803E-04 2.26315E-19
3.68542E-04 1.87934E-19
4.02802E-04 1.57341E-19
4.38585E-04 1.32716E-19
4.75889E-04 1.12718E-19
5.14715E-04 9.63409E-20
5.55063E-04 8.28279E-20
5.96931E-04 7.15991E-20
6.40321E-04 6.22064E-20
6.85233E-04 5.43020E-20
7.31665E-04 4.76114E-20
7.79618E-04 4.19184E-20
8.29092E-04 3.70496E-20
8.80086E-04 3.28662E-20
9.32601E-04 2.92557E-20
9.86636E-04 2.61266E-20
1.04219E-03 2.34040E-20
1.09927E-03 2.10262E-20
1.15786E-03 1.89421E-20
1.21797E-03 1.71094E-20
1.27961E-03 1.54926E-20
1.34276E-03 1.40619E-20
1.40743E-03 1.27921E-20
1.47362E-03 1.16622E-20
1.54133E-03 1.06540E-20
1.61056E-03 9.75217E-21
1.68131E-03 8.94351E-21
1.75357E-03 8.21673E-21
1.82735E-03 7.56212E-21
1.90265E-03 6.97124E-21
1.97947E-03 6.43679E-21
2.05780E-03 5.95245E-21
2.13765E-03 5.51268E-21
2.21902E-03 5.11268E-21
2.30190E-03 4.74820E-21
2.38630E-03 4.41552E-21
2.47222E-03 4.11139E-21
2.55965E-03 3.83292E-21
2.64859E-03 3.57756E-21
2.73905E-03 3.34304E-21
2.83103E-03 3.12736E-21
2.92452E-03 2.92875E-21
3.01952E-03 2.74560E-21
3.11604E-03 2.57650E-21
3.21407E-03 2.42017E-21
3.31362E-03 2.27548E-21
3.41468E-03 2.14140E-21
3.51725E-03 2.01702E-21
3.62133E-03 1.90151E-21
3.72692E-03 1.79411E-21
3.83403E-03 1.69417E-21
3.94265E-03 1.60106E-21
4.05278E-03 1.51424E-21
4.16442E-03 1.43320E-21
4.27757E-03 1.35749E-21
4.39223E-03 1.28669E-21
4.50840E-03 1.22043E-21
4.62608E-03 1.15836E-21
4.74527E-03 1.10017E-21
4.86597E-03 1.04557E-21
4.98817E-03 9.94310E-22
5.11188E-03 9.46136E-22
5.23711E-03 9.00830E-22
5.36383E-03 8.58193E-22
5.49207E-03 8.18037E-22
5.62181E-03 7.80191E-22
5.75306E-03 7.44499E-22
5.88581E-03 7.10815E-22
6.02007E-03 6.79006E-22
6.15583E-03 6.48948E-22
6.29310E-03 6.20528E-22
6.43187E-03 5.93638E-22
6.57214E-03 5.68183E-22
6.71392E-03 5.44070E-22
6.85720E-03 5.21216E-22
7.00198E-03 4.99544E-22
7.14827E-03 4.78981E-22
7.29605E-03 4.59459E-22
7.44534E-03 4.40917E-22
7.59612E-03 4.23297E-22
7.97965E-03 3.82927E-22
8.37255E-03 3.47233E-22
8.77480E-03 3.15581E-22
9.18641E-03 2.87436E-22
9.60736E-03 2.62343E-22
1.00376E-02 2.39914E-22
1.04773E-02 2.19818E-22
1.09262E-02 2.01771E-22
1.13844E-02 1.85527E-22
1.18520E-02 1.70875E-22
1.23288E-02 1.57633E-22
1.28150E-02 1.45641E-22
1.33104E-02 1.34760E-22
1.38150E-02 1.24871E-22
1.43290E-02 1.15866E-22
1.48521E-02 1.07652E-22
1.53845E-02 1.00149E-22
1.59262E-02 9.32835E-23
1.64770E-02 8.69919E-23
1.70371E-02 8.12179E-23
1.76063E-02 7.59118E-23
1.81848E-02 7.10286E-23
1.87724E-02 6.65285E-23
1.93692E-02 6.23766E-23
1.99751E-02 5.85411E-23
2.05901E-02 5.49932E-23
2.12143E-02 5.17079E-23
2.18476E-02 4.86624E-23
2.24900E-02 4.58357E-23
2.31415E-02 4.32094E-23
2.38021E-02 4.07673E-23
2.44717E-02 3.84933E-23
2.51504E-02 3.63744E-23
2.58382E-02 3.43980E-23
2.65349E-02 3.25526E-23
2.72407E-02 3.08283E-23
2.79555E-02 2.92155E-23
2.86793E-02 2.77056E-23
2.94120E-02 2.62912E-23
3.01537E-02 2.49650E-23
3.09043E-02 2.37204E-23
3.16639E-02 2.25516E-23
3.24324E-02 2.14532E-23
3.32098E-02 2.04201E-23
3.39961E-02 1.94478E-23
3.47912E-02 1.85321E-23
3.55952E-02 1.76690E-23
3.64081E-02 1.68550E-23
3.72297E-02 1.60868E-23
3.80602E-02 1.53614E-23
3.88995E-02 1.46759E-23
3.97476E-02 1.40278E-23
4.06044E-02 1.34146E-23
4.14700E-02 1.28342E-23
4.23443E-02 1.22844E-23
4.32273E-02 1.17634E-23
4.41190E-02 1.12694E-23
4.50194E-02 1.08006E-23
4.59284E-02 1.03557E-23
4.68461E-02 9.93317E-24
4.87074E-02 9.14998E-24
5.06030E-02 8.44148E-24
5.25328E-02 7.79935E-24
5.44967E-02 7.21631E-24
5.64946E-02 6.68600E-24
5.85262E-02 6.20283E-24
6.05914E-02 5.76190E-24
6.26901E-02 5.35888E-24
6.48222E-02 4.98996E-24
6.69873E-02 4.65176E-24
6.91854E-02 4.34127E-24
7.14163E-02 4.05585E-24
7.36799E-02 3.79312E-24
7.59760E-02 3.55096E-24
7.83043E-02 3.32750E-24
8.06647E-02 3.12103E-24
8.30571E-02 2.93004E-24
8.54812E-02 2.75317E-24
8.79369E-02 2.58920E-24
9.04240E-02 2.43703E-24
9.29422E-02 2.29566E-24
9.54915E-02 2.16419E-24
9.80716E-02 2.04181E-24
1.00682E-01 1.92778E-24
1.03323E-01 1.82143E-24
1.05995E-01 1.72216E-24
1.08696E-01 1.62942E-24
1.11427E-01 1.54270E-24
1.14188E-01 1.46154E-24
1.16978E-01 1.38553E-24
1.19797E-01 1.31427E-24
1.22645E-01 1.24744E-24
1.25522E-01 1.18469E-24
1.28428E-01 1.12574E-24
1.31361E-01 1.07033E-24
1.34323E-01 1.01819E-24
1.37313E-01 9.69109E-25
1.40330E-01 9.22870E-25
1.43375E-01 8.79283E-25
1.46447E-01 8.38168E-25
1.49545E-01 7.99361E-25
1.52671E-01 7.62711E-25
1.55823E-01 7.28077E-25
1.59001E-01 6.95329E-25
1.62205E-01 6.64347E-25
1.65435E-01 6.35020E-25
1.68690E-01 6.07243E-25
1.71970E-01 5.80920E-25
1.75276E-01 5.55963E-25
1.78606E-01 5.32289E-25
1.81961E-01 5.09820E-25
1.85340E-01 4.88484E-25
1.88743E-01 4.68215E-25
1.92169E-01 4.48950E-25
1.95619E-01 4.30631E-25
1.99092E-01 4.13204E-25
2.02589E-01 3.96617E-25
2.06107E-01 3.80824E-25
2.09649E-01 3.65779E-25
2.13212E-01 3.51442E-25
2.16797E-01 3.37773E-25
2.20404E-01 3.24737E-25
2.24032E-01 3.12298E-25
2.27680E-01 3.00425E-25
2.31350E-01 2.89087E-25
2.35040E-01 2.78257E-25
2.38751E-01 2.67908E-25
2.42481E-01 2.58015E-25
2.46231E-01 2.48554E-25
2.50000E-01 2.39504E-25
2.53788E-01 2.30843E-25
2.57595E-01 2.22552E-25
2.61421E-01 2.14613E-25
2.65264E-01 2.07008E-25
2.69126E-01 1.99720E-25
2.73005E-01 1.92735E-25
2.76901E-01 1.86037E-25
2.80814E-01 1.79614E-25
2.84744E-01 1.73451E-25
2.88691E-01 1.67536E-25
2.92653E-01 1.61858E-25
2.96632E-01 1.56406E-25
3.00625E-01 1.51168E-25
3.04634E-01 1.46137E-25
3.08658E-01 1.41301E-25
3.12697E-01 1.36652E-25
3.16749E-01 1.32182E-25
3.20816E-01 1.27882E-25
3.24896E-01 1.23745E-25
3.28990E-01 1.19765E-25
3.33097E-01 1.15933E-25
3.37216E-01 1.12244E-25
3.41348E-01 1.08691E-25
3.45492E-01 1.05268E-25
3.49647E-01 1.01971E-25
3.53814E-01 9.87931E-26
3.57992E-01 9.57298E-26
3.62181E-01 9.27763E-26
3.66381E-01 8.99280E-26
3.70590E-01 8.71805E-26
3.74810E-01 8.45298E-26
3.79039E-01 8.19718E-26
3.83277E-01 7.95028E-26
3.87524E-01 7.71191E-26
3.91780E-01 7.48175E-26
3.96044E-01 7.25945E-26
4.00316E-01 7.04471E-26
4.04596E-01 6.83723E-26
4.08882E-01 6.63673E-26
4.13176E-01 6.44293E-26
4.17476E-01 6.25557E-26
4.21783E-01 6.07441E-26
4.26095E-01 5.89921E-26
4.30413E-01 5.72974E-26
4.34737E-01 5.56578E-26
4.39065E-01 5.40714E-26
4.43398E-01 5.25360E-26
4.47736E-01 5.10498E-26
4.52077E-01 4.96109E-26
4.56422E-01 4.82177E-26
4.60770E-01 4.68684E-26
4.65122E-01 4.55615E-26
4.69476E-01 4.42954E-26
4.73832E-01 4.30687E-26
4.78190E-01 4.18798E-26
4.82550E-01 4.07276E-26
4.86912E-01 3.96106E-26
4.91274E-01 3.85277E-26
4.95637E-01 3.74777E-26
5.00000E-01 3.64593E-26
5.04363E-01 3.54715E-26
5.08726E-01 3.45133E-26
5.13088E-01 3.35836E-26
5.17450E-01 3.26814E-26
5.21810E-01 3.18058E-26
5.26168E-01 3.09560E-26
5.30524E-01 3.01310E-26
5.34878E-01 2.93300E-26
5.39230E-01 2.85522E-26
5.43578E-01 2.77968E-26
5.47923E-01 2.70632E-26
5.52264E-01 2.63505E-26
5.56602E-01 2.56581E-26
5.60935E-01 2.49853E-26
5.65263E-01 2.43316E-26
5.69587E-01 2.36962E-26
5.73905E-01 2.30786E-26
5.78217E-01 2.24782E-26
5.82524E-01 2.18945E-26
5.86824E-01 2.13269E-26
5.91118E-01 2.07750E-26
5.95404E-01 2.02382E-26
5.99684E-01 1.97161E-26
6.03956E-01 1.92082E-26
6.08220E-01 1.87141E-26
6.12476E-01 1.82333E-26
6.16723E-01 1.77655E-26
6.20961E-01 1.73102E-26
6.25190E-01 1.68670E-26
6.29410E-01 1.64357E-26
6.33619E-01 1.60158E-26
6.37819E-01 1.56070E-26
6.42008E-01 1.52089E-26
6.46186E-01 1.48213E-26
6.50353E-01 1.44438E-26
6.54508E-01 1.40762E-26
6.58652E-01 1.37181E-26
6.62784E-01 1.33692E-26
6.66903E-01 1.30294E-26
6.71010E-01 1.26982E-26
6.75104E-01 1.23756E-26
6.79184E-01 1.20612E-26
6.83251E-01 1.17548E-26
6.87303E-01 1.14562E-26
6.91342E-01 1.11651E-26
6.95366E-01 1.08813E-26
6.99375E-01 1.06047E-26
7.03368E-01 1.03350E-26
7.07347E-01 1.00720E-26
7.11309E-01 9.81564E-27
7.15256E-01 9.56560E-27
7.19186E-01 9.32175E-27
7.23099E-01 9.08391E-27
7.26995E-01 8.85193E-27
7.30874E-01 8.62565E-27
7.34736E-01 8.40491E-27
7.38579E-01 8.18956E-27
7.42405E-01 7.97945E-27
7.46212E-01 7.77444E-27
7.50000E-01 7.57441E-27
7.53769E-01 7.37921E-27
7.57519E-01 7.18871E-27
7.61249E-01 7.00280E-27
7.64960E-01 6.82135E-27
7.68650E-01 6.64425E-27
7.72320E-01 6.47138E-27
7.75968E-01 6.30263E-27
7.79596E-01 6.13790E-27
7.83203E-01 5.97707E-27
7.86788E-01 5.82006E-27
7.90351E-01 5.66677E-27
7.93893E-01 5.51709E-27
7.97411E-01 5.37094E-27
8.00908E-01 5.22823E-27
8.04381E-01 5.08887E-27
8.07831E-01 4.95278E-27
8.11257E-01 4.81988E-27
8.14660E-01 4.69008E-27
8.18039E-01 4.56332E-27
8.21394E-01 4.43951E-27
8.24724E-01 4.31859E-27
8.28030E-01 4.20048E-27
8.31310E-01 4.08512E-27
8.34565E-01 3.97244E-27
8.37795E-01 3.86237E-27
8.40999E-01 3.75485E-27
8.44177E-01 3.64982E-27
8.47329E-01 3.54723E-27
8.50455E-01 3.44701E-27
8.53553E-01 3.34911E-27
8.56625E-01 3.25348E-27
8.59670E-01 3.16006E-27
8.62687E-01 3.06880E-27
8.65677E-01 2.97965E-27
8.68639E-01 2.89256E-27
8.71572E-01 2.80749E-27
8.74478E-01 2.72439E-27
8.77355E-01 2.64322E-27
8.80203E-01 2.56392E-27
8.83022E-01 2.48647E-27
8.85812E-01 2.41082E-27
8.88573E-01 2.33693E-27
8.91304E-01 2.26476E-27
8.94005E-01 2.19427E-27
8.96677E-01 2.12544E-27
8.99318E-01 2.05821E-27
9.01928E-01 1.99256E-27
9.04508E-01 1.92846E-27
9.07058E-01 1.86587E-27
9.09576E-01 1.80475E-27
9.12063E-01 1.74509E-27
9.14519E-01 1.68684E-27
9.16943E-01 1.62999E-27
9.19335E-01 1.57450E-27
9.21696E-01 1.52034E-27
9.24024E-01 1.46749E-27
9.26320E-01 1.41592E-27
9.28584E-01 1.36561E-27
9.30815E-01 1.31653E-27
9.33013E-01 1.26865E-27
9.35178E-01 1.22196E-27
9.37310E-01 1.17644E-27
9.39409E-01 1.13205E-27
9.41474E-01 1.08879E-27
9.43505E-01 1.04662E-27
9.45503E-01 1.00553E-27
9.47467E-01 9.65495E-28
9.49397E-01 9.26503E-28
9.51293E-01 8.88533E-28
9.53154E-01 8.51567E-28
9.54981E-01 8.15587E-28
9.56773E-01 7.80576E-28
9.58530E-01 7.46519E-28
9.60252E-01 7.13399E-28
9.61940E-01 6.81202E-28
9.63592E-01 6.49912E-28
9.65209E-01 6.19515E-28
9.66790E-01 5.89997E-28
9.68336E-01 5.61345E-28
9.69846E-01 5.33545E-28
9.71321E-01 5.06585E-28
9.72759E-01 4.80452E-28
9.74162E-01 4.55135E-28
9.75528E-01 4.30623E-28
9.76858E-01 4.06904E-28
9.78152E-01 3.83968E-28
9.79410E-01 3.61804E-28
9.80631E-01 3.40402E-28
9.81815E-01 3.19753E-28
9.82963E-01 2.99848E-28
9.84074E-01 2.80678E-28
9.85148E-01 2.62234E-28
9.86185E-01 2.44509E-28
9.87185E-01 2.27494E-28
9.88148E-01 2.11181E-28
9.89074E-01 1.95564E-28
9.89962E-01 1.80636E-28
9.90814E-01 1.66390E-28
9.91627E-01 1.52820E-28
9.92404E-01 1.39921E-28
9.93143E-01 1.27685E-28
9.93844E-01 1.16109E-28
9.94508E-01 1.05186E-28
9.95134E-01 9.49128E-29
9.95722E-01 8.52843E-29
9.96273E-01 7.62964E-29
9.96786E-01 6.79451E-29
9.97261E-01 6.02268E-29
9.97698E-01 5.31382E-29
9.98097E-01 4.66762E-29
9.98459E-01 4.08381E-29
9.98782E-01 3.56212E-29
9.99067E-01 3.10234E-29
9.99315E-01 2.70427E-29
9.99524E-01 2.36772E-29
9.99695E-01 2.09257E-29
9.99829E-01 1.87868E-29
9.99924E-01 1.72597E-29
9.99981E-01 1.63437E-29
1.00000E+00 1.60384E-29
