 #
 # Subroutine ELSEPA. Elastic scattering of electrons and positrons
 #                    by neutral atoms and positive ions
 #
 # Projectile: positron
 # Kinetic energy = 1.50000E+08 eV = 5.51240E+06 a.u.
 #
 # WARNING: High-energy factorization with free-atom DF screening.
 #          Absorption, polarization and exchange corrections are
 #          switched off.
 #          Phase shifts are calculated for the bare nucleus.
 #          Scattering amplitudes are not evaluated.
 #
 # Element: Pd,  Z =  46,  atomic weight = 1.06420E+02 g/mol
 #
 # Nuclear model: Fermi distribution
 #                Average radius = 5.07059E-13 cm
 #                Skin thickness = 5.46000E-14 cm
 #
 # Number of electrons = 46
 #
 # Total elastic cross section = 4.05486E-18 cm**2 = 1.44802E-01 a0**2
 # 1st transport cross section = 1.82142E-25 cm**2 = 6.50440E-09 a0**2
 # 2nd transport cross section = 5.43932E-25 cm**2 = 1.94242E-08 a0**2
 #
 #
 # Differential cross section:                       MU=(1-COS(THETA))/2
 #
 #  THETA        MU          DCS          DCS        Sherman      error
 #  (deg)                 (cm**2/sr)   (a0**2/sr)    function
 #----------------------------------------------------------------------
0.00000E+00 4.81931E-10
7.61557E-13 4.80569E-10
1.18994E-12 4.79809E-10
1.71346E-12 4.78884E-10
2.33225E-12 4.77794E-10
3.04617E-12 4.76542E-10
3.85530E-12 4.75131E-10
4.75964E-12 4.73563E-10
5.75917E-12 4.71840E-10
6.85391E-12 4.69965E-10
8.04379E-12 4.67943E-10
9.32893E-12 4.65775E-10
1.07092E-11 4.63448E-10
1.21847E-11 4.60975E-10
1.37554E-11 4.58397E-10
1.54213E-11 4.55723E-10
1.71823E-11 4.52858E-10
1.90386E-11 4.49882E-10
2.09900E-11 4.46831E-10
2.30367E-11 4.43692E-10
2.51785E-11 4.40345E-10
2.74156E-11 4.36947E-10
2.97478E-11 4.33505E-10
3.21752E-11 4.29928E-10
3.46979E-11 4.26214E-10
3.73157E-11 4.22480E-10
4.00286E-11 4.18734E-10
4.28368E-11 4.14779E-10
4.57402E-11 4.10786E-10
4.87388E-11 4.06801E-10
5.18325E-11 4.02781E-10
5.50215E-11 3.98564E-10
5.83057E-11 3.94375E-10
6.16850E-11 3.90221E-10
6.51595E-11 3.85949E-10
6.87293E-11 3.81590E-10
7.23943E-11 3.77284E-10
7.61544E-11 3.73033E-10
1.18991E-10 3.28819E-10
1.71347E-10 2.85726E-10
2.33223E-10 2.45823E-10
3.04617E-10 2.10073E-10
3.85531E-10 1.78704E-10
4.75965E-10 1.51721E-10
5.75917E-10 1.28735E-10
6.85389E-10 1.09256E-10
8.04380E-10 9.28044E-11
9.32891E-10 7.89742E-11
1.07092E-09 6.69096E-11
1.21847E-09 5.67283E-11
1.37554E-09 4.87125E-11
1.54213E-09 4.23203E-11
1.71823E-09 3.64061E-11
1.90386E-09 3.14357E-11
2.09900E-09 2.73921E-11
2.30367E-09 2.40248E-11
2.51785E-09 2.09543E-11
2.74156E-09 1.84079E-11
2.97478E-09 1.62796E-11
3.21752E-09 1.44298E-11
3.46978E-09 1.28088E-11
3.73156E-09 1.14318E-11
4.00286E-09 1.02551E-11
4.28368E-09 9.20754E-12
4.57402E-09 8.29777E-12
4.87388E-09 7.50970E-12
5.18326E-09 6.81986E-12
5.50215E-09 6.20133E-12
5.83057E-09 5.65915E-12
6.16850E-09 5.18197E-12
6.51596E-09 4.75376E-12
6.87293E-09 4.36918E-12
7.23942E-09 4.02744E-12
7.61544E-09 3.72279E-12
1.18991E-08 1.83660E-12
1.71347E-08 1.00866E-12
2.33223E-08 5.92174E-13
3.04617E-08 3.66160E-13
3.85531E-08 2.37198E-13
4.75965E-08 1.60216E-13
5.75917E-08 1.12156E-13
6.85389E-08 8.09744E-14
8.04380E-08 6.00189E-14
9.32891E-08 4.54741E-14
1.07092E-07 3.50843E-14
1.21847E-07 2.75352E-14
1.37554E-07 2.18937E-14
1.54213E-07 1.76317E-14
1.71823E-07 1.43593E-14
1.90386E-07 1.18012E-14
2.09900E-07 9.78778E-15
2.30367E-07 8.18537E-15
2.51785E-07 6.89388E-15
2.74156E-07 5.84635E-15
2.97478E-07 4.99017E-15
3.21752E-07 4.28385E-15
3.46978E-07 3.69760E-15
3.73156E-07 3.20826E-15
4.00286E-07 2.79692E-15
4.28368E-07 2.44914E-15
4.57402E-07 2.15382E-15
4.87388E-07 1.90166E-15
5.18325E-07 1.68519E-15
5.50215E-07 1.49872E-15
5.83057E-07 1.33738E-15
6.16850E-07 1.19709E-15
6.51596E-07 1.07478E-15
6.87293E-07 9.67722E-16
7.23942E-07 8.73646E-16
7.61543E-07 7.90749E-16
1.18991E-06 3.28136E-16
1.71347E-06 1.59740E-16
2.33223E-06 8.68182E-17
3.04617E-06 5.11470E-17
3.85531E-06 3.20484E-17
4.75964E-06 2.10841E-17
5.75916E-06 1.44299E-17
6.85388E-06 1.02040E-17
8.04378E-06 7.41691E-18
9.32888E-06 5.51907E-18
1.07092E-05 4.19086E-18
1.21846E-05 3.23901E-18
1.37553E-05 2.54253E-18
1.54212E-05 2.02349E-18
1.71822E-05 1.63032E-18
1.90385E-05 1.32781E-18
2.09899E-05 1.09283E-18
2.30365E-05 9.07521E-19
2.51783E-05 7.59759E-19
2.74153E-05 6.40789E-19
2.97475E-05 5.44168E-19
3.21749E-05 4.65077E-19
3.46974E-05 3.99857E-19
3.73152E-05 3.45698E-19
4.00281E-05 3.00421E-19
4.28362E-05 2.62326E-19
4.57395E-05 2.30079E-19
4.87380E-05 2.02629E-19
5.18317E-05 1.79144E-19
5.50205E-05 1.58957E-19
5.83045E-05 1.41531E-19
6.16838E-05 1.26428E-19
6.51582E-05 1.13288E-19
6.87277E-05 1.01814E-19
7.23925E-05 9.17571E-20
7.61524E-05 8.29576E-20
9.21439E-05 5.66355E-20
1.09658E-04 3.99669E-20
1.28695E-04 2.90032E-20
1.49255E-04 2.15505E-20
1.71338E-04 1.63446E-20
1.94942E-04 1.26185E-20
2.20070E-04 9.89546E-21
2.46720E-04 7.86840E-21
2.74892E-04 6.33421E-21
3.04586E-04 5.15609E-21
3.35803E-04 4.23921E-21
3.68542E-04 3.51715E-21
4.02802E-04 2.94227E-21
4.38585E-04 2.48002E-21
4.75889E-04 2.10495E-21
5.14715E-04 1.79805E-21
5.55063E-04 1.54500E-21
5.96931E-04 1.33485E-21
6.40321E-04 1.15917E-21
6.85233E-04 1.01140E-21
7.31665E-04 8.86390E-22
7.79618E-04 7.80060E-22
8.29092E-04 6.89161E-22
8.80086E-04 6.11084E-22
9.32601E-04 5.43724E-22
9.86636E-04 4.85363E-22
1.04219E-03 4.34599E-22
1.09927E-03 3.90277E-22
1.15786E-03 3.51442E-22
1.21797E-03 3.17300E-22
1.27961E-03 2.87187E-22
1.34276E-03 2.60547E-22
1.40743E-03 2.36910E-22
1.47362E-03 2.15881E-22
1.54133E-03 1.97122E-22
1.61056E-03 1.80346E-22
1.68131E-03 1.65307E-22
1.75357E-03 1.51794E-22
1.82735E-03 1.39625E-22
1.90265E-03 1.28644E-22
1.97947E-03 1.18714E-22
2.05780E-03 1.09717E-22
2.13765E-03 1.01550E-22
2.21902E-03 9.41236E-23
2.30190E-03 8.73583E-23
2.38630E-03 8.11850E-23
2.47222E-03 7.55429E-23
2.55965E-03 7.03781E-23
2.64859E-03 6.56433E-23
2.73905E-03 6.12962E-23
2.83103E-03 5.72996E-23
2.92452E-03 5.36202E-23
3.01952E-03 5.02283E-23
3.11604E-03 4.70975E-23
3.21407E-03 4.42042E-23
3.31362E-03 4.15272E-23
3.41468E-03 3.90473E-23
3.51725E-03 3.67476E-23
3.62133E-03 3.46126E-23
3.72692E-03 3.26284E-23
3.83403E-03 3.07825E-23
3.94265E-03 2.90635E-23
4.05278E-03 2.74611E-23
4.16442E-03 2.59661E-23
4.27757E-03 2.45699E-23
4.39223E-03 2.32649E-23
4.50840E-03 2.20440E-23
4.62608E-03 2.09009E-23
4.74527E-03 1.98298E-23
4.86597E-03 1.88252E-23
4.98817E-03 1.78823E-23
5.11188E-03 1.69967E-23
5.23711E-03 1.61642E-23
5.36383E-03 1.53812E-23
5.49207E-03 1.46440E-23
5.62181E-03 1.39497E-23
5.75306E-03 1.32952E-23
5.88581E-03 1.26779E-23
6.02007E-03 1.20952E-23
6.15583E-03 1.15449E-23
6.29310E-03 1.10249E-23
6.43187E-03 1.05332E-23
6.57214E-03 1.00680E-23
6.71392E-03 9.62756E-24
6.85720E-03 9.21040E-24
7.00198E-03 8.81505E-24
7.14827E-03 8.44016E-24
7.29605E-03 8.08450E-24
7.44534E-03 7.74689E-24
7.59612E-03 7.42627E-24
7.97965E-03 6.69259E-24
8.37255E-03 6.04502E-24
8.77480E-03 5.47183E-24
9.18641E-03 4.96312E-24
9.60736E-03 4.51045E-24
1.00376E-02 4.10668E-24
1.04773E-02 3.74566E-24
1.09262E-02 3.42216E-24
1.13844E-02 3.13164E-24
1.18520E-02 2.87022E-24
1.23288E-02 2.63451E-24
1.28150E-02 2.42158E-24
1.33104E-02 2.22888E-24
1.38150E-02 2.05419E-24
1.43290E-02 1.89556E-24
1.48521E-02 1.75128E-24
1.53845E-02 1.61985E-24
1.59262E-02 1.49995E-24
1.64770E-02 1.39040E-24
1.70371E-02 1.29018E-24
1.76063E-02 1.19837E-24
1.81848E-02 1.11416E-24
1.87724E-02 1.03681E-24
1.93692E-02 9.65693E-25
1.99751E-02 9.00222E-25
2.05901E-02 8.39882E-25
2.12143E-02 7.84212E-25
2.18476E-02 7.32797E-25
2.24900E-02 6.85262E-25
2.31415E-02 6.41271E-25
2.38021E-02 6.00523E-25
2.44717E-02 5.62742E-25
2.51504E-02 5.27682E-25
2.58382E-02 4.95118E-25
2.65349E-02 4.64847E-25
2.72407E-02 4.36685E-25
2.79555E-02 4.10463E-25
2.86793E-02 3.86031E-25
2.94120E-02 3.63248E-25
3.01537E-02 3.41987E-25
3.09043E-02 3.22134E-25
3.16639E-02 3.03582E-25
3.24324E-02 2.86234E-25
3.32098E-02 2.70002E-25
3.39961E-02 2.54805E-25
3.47912E-02 2.40567E-25
3.55952E-02 2.27220E-25
3.64081E-02 2.14702E-25
3.72297E-02 2.02954E-25
3.80602E-02 1.91923E-25
3.88995E-02 1.81560E-25
3.97476E-02 1.71818E-25
4.06044E-02 1.62657E-25
4.14700E-02 1.54037E-25
4.23443E-02 1.45922E-25
4.32273E-02 1.38280E-25
4.41190E-02 1.31079E-25
4.50194E-02 1.24291E-25
4.59284E-02 1.17890E-25
4.68461E-02 1.11851E-25
4.87074E-02 1.00769E-25
5.06030E-02 9.08812E-26
5.25328E-02 8.20460E-26
5.44967E-02 7.41400E-26
5.64946E-02 6.70559E-26
5.85262E-02 6.07000E-26
6.05914E-02 5.49904E-26
6.26901E-02 4.98555E-26
6.48222E-02 4.52323E-26
6.69873E-02 4.10654E-26
6.91854E-02 3.73060E-26
7.14163E-02 3.39111E-26
7.36799E-02 3.08424E-26
7.59760E-02 2.80662E-26
7.83043E-02 2.55527E-26
8.06647E-02 2.32751E-26
8.30571E-02 2.12099E-26
8.54812E-02 1.93358E-26
8.79369E-02 1.76341E-26
9.04240E-02 1.60879E-26
9.29422E-02 1.46822E-26
9.54915E-02 1.34035E-26
9.80716E-02 1.22397E-26
1.00682E-01 1.11799E-26
1.03323E-01 1.02143E-26
1.05995E-01 9.33429E-27
1.08696E-01 8.53182E-27
1.11427E-01 7.79980E-27
1.14188E-01 7.13179E-27
1.16978E-01 6.52197E-27
1.19797E-01 5.96510E-27
1.22645E-01 5.45642E-27
1.25522E-01 4.99163E-27
1.28428E-01 4.56683E-27
1.31361E-01 4.17848E-27
1.34323E-01 3.82338E-27
1.37313E-01 3.49861E-27
1.40330E-01 3.20152E-27
1.43375E-01 2.92971E-27
1.46447E-01 2.68100E-27
1.49545E-01 2.45338E-27
1.52671E-01 2.24504E-27
1.55823E-01 2.05433E-27
1.59001E-01 1.87975E-27
1.62205E-01 1.71991E-27
1.65435E-01 1.57357E-27
1.68690E-01 1.43957E-27
1.71970E-01 1.31687E-27
1.75276E-01 1.20453E-27
1.78606E-01 1.10165E-27
1.81961E-01 1.00746E-27
1.85340E-01 9.21208E-28
1.88743E-01 8.42237E-28
1.92169E-01 7.69934E-28
1.95619E-01 7.03741E-28
1.99092E-01 6.43144E-28
2.02589E-01 5.87676E-28
2.06107E-01 5.36908E-28
2.09649E-01 4.90445E-28
2.13212E-01 4.47929E-28
2.16797E-01 4.09028E-28
2.20404E-01 3.73440E-28
2.24032E-01 3.40888E-28
2.27680E-01 3.11118E-28
2.31350E-01 2.83897E-28
2.35040E-01 2.59010E-28
2.38751E-01 2.36261E-28
2.42481E-01 2.15472E-28
2.46231E-01 1.96478E-28
2.50000E-01 1.79126E-28
2.53788E-01 1.63280E-28
2.57595E-01 1.48810E-28
2.61421E-01 1.35602E-28
2.65264E-01 1.23547E-28
2.69126E-01 1.12549E-28
2.73005E-01 1.02517E-28
2.76901E-01 9.33689E-29
2.80814E-01 8.50289E-29
2.84744E-01 7.74278E-29
2.88691E-01 7.05023E-29
2.92653E-01 6.41941E-29
2.96632E-01 5.84500E-29
3.00625E-01 5.32210E-29
3.04634E-01 4.84625E-29
3.08658E-01 4.41334E-29
3.12697E-01 4.01963E-29
3.16749E-01 3.66166E-29
3.20816E-01 3.33631E-29
3.24896E-01 3.04068E-29
3.28990E-01 2.77215E-29
3.33097E-01 2.52830E-29
3.37216E-01 2.30693E-29
3.41348E-01 2.10603E-29
3.45492E-01 1.92375E-29
3.49647E-01 1.75841E-29
3.53814E-01 1.60848E-29
3.57992E-01 1.47254E-29
3.62181E-01 1.34932E-29
3.66381E-01 1.23766E-29
3.70590E-01 1.13647E-29
3.74810E-01 1.04479E-29
3.79039E-01 9.61736E-30
3.83277E-01 8.86497E-30
3.87524E-01 8.18337E-30
3.91780E-01 7.56588E-30
3.96044E-01 7.00639E-30
4.00316E-01 6.49938E-30
4.04596E-01 6.03980E-30
4.08882E-01 5.62308E-30
4.13176E-01 5.24507E-30
4.17476E-01 4.90199E-30
4.21783E-01 4.59042E-30
4.26095E-01 4.30727E-30
4.30413E-01 4.04973E-30
4.34737E-01 3.81525E-30
4.39065E-01 3.60153E-30
4.43398E-01 3.40650E-30
4.47736E-01 3.22827E-30
4.52077E-01 3.06515E-30
4.56422E-01 2.91561E-30
4.60770E-01 2.77827E-30
4.65122E-01 2.65188E-30
4.69476E-01 2.53533E-30
4.73832E-01 2.42761E-30
4.78190E-01 2.32781E-30
4.82550E-01 2.23514E-30
4.86912E-01 2.14884E-30
4.91274E-01 2.06829E-30
4.95637E-01 1.99288E-30
5.00000E-01 1.92211E-30
5.04363E-01 1.85549E-30
5.08726E-01 1.79263E-30
5.13088E-01 1.73314E-30
5.17450E-01 1.67671E-30
5.21810E-01 1.62302E-30
5.26168E-01 1.57183E-30
5.30524E-01 1.52290E-30
5.34878E-01 1.47602E-30
5.39230E-01 1.43102E-30
5.43578E-01 1.38774E-30
5.47923E-01 1.34603E-30
5.52264E-01 1.30576E-30
5.56602E-01 1.26684E-30
5.60935E-01 1.22916E-30
5.65263E-01 1.19263E-30
5.69587E-01 1.15719E-30
5.73905E-01 1.12277E-30
5.78217E-01 1.08930E-30
5.82524E-01 1.05674E-30
5.86824E-01 1.02504E-30
5.91118E-01 9.94172E-31
5.95404E-01 9.64093E-31
5.99684E-01 9.34774E-31
6.03956E-01 9.06190E-31
6.08220E-01 8.78316E-31
6.12476E-01 8.51133E-31
6.16723E-01 8.24621E-31
6.20961E-01 7.98764E-31
6.25190E-01 7.73547E-31
6.29410E-01 7.48956E-31
6.33619E-01 7.24978E-31
6.37819E-01 7.01603E-31
6.42008E-01 6.78818E-31
6.46186E-01 6.56615E-31
6.50353E-01 6.34983E-31
6.54508E-01 6.13913E-31
6.58652E-01 5.93396E-31
6.62784E-01 5.73422E-31
6.66903E-01 5.53985E-31
6.71010E-01 5.35074E-31
6.75104E-01 5.16682E-31
6.79184E-01 4.98799E-31
6.83251E-01 4.81418E-31
6.87303E-01 4.64530E-31
6.91342E-01 4.48127E-31
6.95366E-01 4.32199E-31
6.99375E-01 4.16738E-31
7.03368E-01 4.01737E-31
7.07347E-01 3.87184E-31
7.11309E-01 3.73073E-31
7.15256E-01 3.59394E-31
7.19186E-01 3.46138E-31
7.23099E-01 3.33297E-31
7.26995E-01 3.20861E-31
7.30874E-01 3.08821E-31
7.34736E-01 2.97169E-31
7.38579E-01 2.85895E-31
7.42405E-01 2.74990E-31
7.46212E-01 2.64446E-31
7.50000E-01 2.54254E-31
7.53769E-01 2.44405E-31
7.57519E-01 2.34889E-31
7.61249E-01 2.25699E-31
7.64960E-01 2.16826E-31
7.68650E-01 2.08260E-31
7.72320E-01 1.99995E-31
7.75968E-01 1.92020E-31
7.79596E-01 1.84329E-31
7.83203E-01 1.76912E-31
7.86788E-01 1.69763E-31
7.90351E-01 1.62872E-31
7.93893E-01 1.56232E-31
7.97411E-01 1.49836E-31
8.00908E-01 1.43676E-31
8.04381E-01 1.37745E-31
8.07831E-01 1.32035E-31
8.11257E-01 1.26540E-31
8.14660E-01 1.21252E-31
8.18039E-01 1.16165E-31
8.21394E-01 1.11272E-31
8.24724E-01 1.06567E-31
8.28030E-01 1.02043E-31
8.31310E-01 9.76943E-32
8.34565E-01 9.35150E-32
8.37795E-01 8.94992E-32
8.40999E-01 8.56411E-32
8.44177E-01 8.19353E-32
8.47329E-01 7.83764E-32
8.50455E-01 7.49592E-32
8.53553E-01 7.16785E-32
8.56625E-01 6.85295E-32
8.59670E-01 6.55074E-32
8.62687E-01 6.26075E-32
8.65677E-01 5.98253E-32
8.68639E-01 5.71565E-32
8.71572E-01 5.45969E-32
8.74478E-01 5.21423E-32
8.77355E-01 4.97889E-32
8.80203E-01 4.75326E-32
8.83022E-01 4.53700E-32
8.85812E-01 4.32973E-32
8.88573E-01 4.13111E-32
8.91304E-01 3.94080E-32
8.94005E-01 3.75849E-32
8.96677E-01 3.58386E-32
8.99318E-01 3.41660E-32
9.01928E-01 3.25643E-32
9.04508E-01 3.10307E-32
9.07058E-01 2.95624E-32
9.09576E-01 2.81569E-32
9.12063E-01 2.68115E-32
9.14519E-01 2.55240E-32
9.16943E-01 2.42920E-32
9.19335E-01 2.31132E-32
9.21696E-01 2.19854E-32
9.24024E-01 2.09066E-32
9.26320E-01 1.98748E-32
9.28584E-01 1.88880E-32
9.30815E-01 1.79445E-32
9.33013E-01 1.70423E-32
9.35178E-01 1.61798E-32
9.37310E-01 1.53554E-32
9.39409E-01 1.45674E-32
9.41474E-01 1.38144E-32
9.43505E-01 1.30948E-32
9.45503E-01 1.24074E-32
9.47467E-01 1.17507E-32
9.49397E-01 1.11234E-32
9.51293E-01 1.05244E-32
9.53154E-01 9.95237E-33
9.54981E-01 9.40625E-33
9.56773E-01 8.88492E-33
9.58530E-01 8.38735E-33
9.60252E-01 7.91254E-33
9.61940E-01 7.45951E-33
9.63592E-01 7.02736E-33
9.65209E-01 6.61521E-33
9.66790E-01 6.22220E-33
9.68336E-01 5.84754E-33
9.69846E-01 5.49046E-33
9.71321E-01 5.15023E-33
9.72759E-01 4.82612E-33
9.74162E-01 4.51748E-33
9.75528E-01 4.22367E-33
9.76858E-01 3.94406E-33
9.78152E-01 3.67808E-33
9.79410E-01 3.42515E-33
9.80631E-01 3.18476E-33
9.81815E-01 2.95640E-33
9.82963E-01 2.73959E-33
9.84074E-01 2.53385E-33
9.85148E-01 2.33876E-33
9.86185E-01 2.15390E-33
9.87185E-01 1.97888E-33
9.88148E-01 1.81333E-33
9.89074E-01 1.65688E-33
9.89962E-01 1.50920E-33
9.90814E-01 1.36998E-33
9.91627E-01 1.23891E-33
9.92404E-01 1.11571E-33
9.93143E-01 1.00012E-33
9.93844E-01 8.91889E-34
9.94508E-01 7.90777E-34
9.95134E-01 6.96567E-34
9.95722E-01 6.09053E-34
9.96273E-01 5.28050E-34
9.96786E-01 4.53374E-34
9.97261E-01 3.84867E-34
9.97698E-01 3.22379E-34
9.98097E-01 2.65772E-34
9.98459E-01 2.14922E-34
9.98782E-01 1.69723E-34
9.99067E-01 1.30069E-34
9.99315E-01 9.58767E-35
9.99524E-01 6.70718E-35
9.99695E-01 4.35884E-35
9.99829E-01 2.53766E-35
9.99924E-01 1.23973E-35
9.99981E-01 4.62130E-36
1.00000E+00 2.03108E-36
