 #
 # Subroutine ELSEPA. Elastic scattering of electrons and positrons
 #                    by neutral atoms and positive ions
 #
 # Projectile: positron
 # Kinetic energy = 6.00000E+06 eV = 2.20496E+05 a.u.
 #
 # WARNING: High-energy factorization with free-atom DF screening.
 #          Absorption, polarization and exchange corrections are
 #          switched off.
 #          Phase shifts are calculated for the bare nucleus.
 #          Scattering amplitudes are not evaluated.
 #
 # Element: Pd,  Z =  46,  atomic weight = 1.06420E+02 g/mol
 #
 # Nuclear model: Fermi distribution
 #                Average radius = 5.07059E-13 cm
 #                Skin thickness = 5.46000E-14 cm
 #
 # Number of electrons = 46
 #
 # Total elastic cross section = 4.07753E-18 cm**2 = 1.45611E-01 a0**2
 # 1st transport cross section = 6.81581E-23 cm**2 = 2.43397E-06 a0**2
 # 2nd transport cross section = 1.96583E-22 cm**2 = 7.02010E-06 a0**2
 #
 #
 # Differential cross section:                       MU=(1-COS(THETA))/2
 #
 #  THETA        MU          DCS          DCS        Sherman      error
 #  (deg)                 (cm**2/sr)   (a0**2/sr)    function
 #----------------------------------------------------------------------
0.00000E+00 9.01869E-13
7.61557E-13 9.01863E-13
1.18994E-12 9.01860E-13
1.71346E-12 9.01856E-13
2.33225E-12 9.01852E-13
3.04617E-12 9.01847E-13
3.85530E-12 9.01842E-13
4.75964E-12 9.01836E-13
5.75917E-12 9.01830E-13
6.85391E-12 9.01822E-13
8.04379E-12 9.01815E-13
9.32893E-12 9.01806E-13
1.07092E-11 9.01798E-13
1.21847E-11 9.01788E-13
1.37554E-11 9.01778E-13
1.54213E-11 9.01767E-13
1.71823E-11 9.01756E-13
1.90386E-11 9.01744E-13
2.09900E-11 9.01732E-13
2.30367E-11 9.01719E-13
2.51785E-11 9.01705E-13
2.74156E-11 9.01691E-13
2.97478E-11 9.01676E-13
3.21752E-11 9.01661E-13
3.46979E-11 9.01645E-13
3.73157E-11 9.01629E-13
4.00286E-11 9.01612E-13
4.28368E-11 9.01594E-13
4.57402E-11 9.01575E-13
4.87388E-11 9.01557E-13
5.18325E-11 9.01537E-13
5.50215E-11 9.01517E-13
5.83057E-11 9.01496E-13
6.16850E-11 9.01475E-13
6.51595E-11 9.01453E-13
6.87293E-11 9.01431E-13
7.23943E-11 9.01408E-13
7.61544E-11 9.01384E-13
1.18991E-10 9.01116E-13
1.71347E-10 9.00789E-13
2.33223E-10 9.00403E-13
3.04617E-10 8.99959E-13
3.85531E-10 8.99457E-13
4.75965E-10 8.98896E-13
5.75917E-10 8.98277E-13
6.85389E-10 8.97601E-13
8.04380E-10 8.96867E-13
9.32891E-10 8.96076E-13
1.07092E-09 8.95228E-13
1.21847E-09 8.94323E-13
1.37554E-09 8.93361E-13
1.54213E-09 8.92343E-13
1.71823E-09 8.91270E-13
1.90386E-09 8.90141E-13
2.09900E-09 8.88957E-13
2.30367E-09 8.87719E-13
2.51785E-09 8.86426E-13
2.74156E-09 8.85079E-13
2.97478E-09 8.83679E-13
3.21752E-09 8.82227E-13
3.46978E-09 8.80721E-13
3.73156E-09 8.79164E-13
4.00286E-09 8.77555E-13
4.28368E-09 8.75895E-13
4.57402E-09 8.74184E-13
4.87388E-09 8.72424E-13
5.18326E-09 8.70615E-13
5.50215E-09 8.68749E-13
5.83057E-09 8.66808E-13
6.16850E-09 8.64827E-13
6.51596E-09 8.62808E-13
6.87293E-09 8.60753E-13
7.23942E-09 8.58663E-13
7.61544E-09 8.56538E-13
1.18991E-08 8.32850E-13
1.71347E-08 8.05340E-13
2.33223E-08 7.74712E-13
3.04617E-08 7.41834E-13
3.85531E-08 7.07434E-13
4.75965E-08 6.72172E-13
5.75917E-08 6.36600E-13
6.85389E-08 6.00880E-13
8.04380E-08 5.65788E-13
9.32891E-08 5.31647E-13
1.07092E-07 4.98699E-13
1.21847E-07 4.67116E-13
1.37554E-07 4.36847E-13
1.54213E-07 4.08050E-13
1.71823E-07 3.80867E-13
1.90386E-07 3.55291E-13
2.09900E-07 3.31291E-13
2.30367E-07 3.08800E-13
2.51785E-07 2.87656E-13
2.74156E-07 2.67947E-13
2.97478E-07 2.49595E-13
3.21752E-07 2.32524E-13
3.46978E-07 2.16656E-13
3.73156E-07 2.01861E-13
4.00286E-07 1.88106E-13
4.28368E-07 1.75347E-13
4.57402E-07 1.63516E-13
4.87388E-07 1.52544E-13
5.18325E-07 1.42361E-13
5.50215E-07 1.32715E-13
5.83057E-07 1.23144E-13
6.16850E-07 1.14557E-13
6.51596E-07 1.06832E-13
6.87293E-07 9.98641E-14
7.23942E-07 9.35648E-14
7.61543E-07 8.78564E-14
1.18991E-06 4.75783E-14
1.71347E-06 2.73921E-14
2.33223E-06 1.68726E-14
3.04617E-06 1.10667E-14
3.85531E-06 7.63992E-15
4.75964E-06 5.48826E-15
5.75916E-06 4.06246E-15
6.85388E-06 3.07108E-15
8.04378E-06 2.36289E-15
9.32888E-06 1.84411E-15
1.07092E-05 1.45674E-15
1.21846E-05 1.16314E-15
1.37553E-05 9.37663E-16
1.54212E-05 7.62462E-16
1.71822E-05 6.25697E-16
1.90385E-05 5.17845E-16
2.09899E-05 4.32349E-16
2.30365E-05 3.63712E-16
2.51783E-05 3.08085E-16
2.74153E-05 2.62699E-16
2.97475E-05 2.25404E-16
3.21749E-05 1.94557E-16
3.46974E-05 1.68882E-16
3.73152E-05 1.47366E-16
4.00281E-05 1.29220E-16
4.28362E-05 1.13820E-16
4.57395E-05 1.00669E-16
4.87380E-05 8.93751E-17
5.18317E-05 7.96270E-17
5.50205E-05 7.11662E-17
5.83045E-05 6.37830E-17
6.16838E-05 5.73619E-17
6.51582E-05 5.17558E-17
6.87277E-05 4.67851E-17
7.23925E-05 4.24026E-17
7.61524E-05 3.85368E-17
9.21439E-05 2.68238E-17
1.09658E-04 1.92150E-17
1.28695E-04 1.41117E-17
1.49255E-04 1.05872E-17
1.71338E-04 8.09297E-18
1.94942E-04 6.28885E-18
2.20070E-04 4.95846E-18
2.46720E-04 3.96108E-18
2.74892E-04 3.20185E-18
3.04586E-04 2.61596E-18
3.35803E-04 2.15802E-18
3.68542E-04 1.79602E-18
4.02802E-04 1.50676E-18
4.38585E-04 1.27345E-18
4.75889E-04 1.08362E-18
5.14715E-04 9.27870E-19
5.55063E-04 7.99128E-19
5.96931E-04 6.91947E-19
6.40321E-04 6.02138E-19
6.85233E-04 5.26435E-19
7.31665E-04 4.62256E-19
7.79618E-04 4.07561E-19
8.29092E-04 3.60712E-19
8.80086E-04 3.20395E-19
9.32601E-04 2.85550E-19
9.86636E-04 2.55309E-19
1.04219E-03 2.28961E-19
1.09927E-03 2.05921E-19
1.15786E-03 1.85700E-19
1.21797E-03 1.67896E-19
1.27961E-03 1.52170E-19
1.34276E-03 1.38240E-19
1.40743E-03 1.25863E-19
1.47362E-03 1.14838E-19
1.54133E-03 1.04990E-19
1.61056E-03 9.61721E-20
1.68131E-03 8.82585E-20
1.75357E-03 8.11398E-20
1.82735E-03 7.47225E-20
1.90265E-03 6.89249E-20
1.97947E-03 6.36769E-20
2.05780E-03 5.89174E-20
2.13765E-03 5.45929E-20
2.21902E-03 5.06567E-20
2.30190E-03 4.70675E-20
2.38630E-03 4.37894E-20
2.47222E-03 4.07908E-20
2.55965E-03 3.80435E-20
2.64859E-03 3.55229E-20
2.73905E-03 3.32067E-20
2.83103E-03 3.10755E-20
2.92452E-03 2.91119E-20
3.01952E-03 2.73003E-20
3.11604E-03 2.56269E-20
3.21407E-03 2.40793E-20
3.31362E-03 2.26463E-20
3.41468E-03 2.13178E-20
3.51725E-03 2.00849E-20
3.62133E-03 1.89395E-20
3.72692E-03 1.78742E-20
3.83403E-03 1.68825E-20
3.94265E-03 1.59583E-20
4.05278E-03 1.50962E-20
4.16442E-03 1.42912E-20
4.27757E-03 1.35390E-20
4.39223E-03 1.28354E-20
4.50840E-03 1.21767E-20
4.62608E-03 1.15595E-20
4.74527E-03 1.09807E-20
4.86597E-03 1.04376E-20
4.98817E-03 9.92745E-21
5.11188E-03 9.44795E-21
5.23711E-03 8.99691E-21
5.36383E-03 8.57233E-21
5.49207E-03 8.17237E-21
5.62181E-03 7.79536E-21
5.75306E-03 7.43974E-21
5.88581E-03 7.10406E-21
6.02007E-03 6.78702E-21
6.15583E-03 6.48736E-21
6.29310E-03 6.20399E-21
6.43187E-03 5.93582E-21
6.57214E-03 5.68194E-21
6.71392E-03 5.44139E-21
6.85720E-03 5.21339E-21
7.00198E-03 4.99712E-21
7.14827E-03 4.79191E-21
7.29605E-03 4.59706E-21
7.44534E-03 4.41196E-21
7.59612E-03 4.23603E-21
7.97965E-03 3.83290E-21
8.37255E-03 3.47635E-21
8.77480E-03 3.16010E-21
9.18641E-03 2.87881E-21
9.60736E-03 2.62797E-21
1.00376E-02 2.40370E-21
1.04773E-02 2.20273E-21
1.09262E-02 2.02220E-21
1.13844E-02 1.85969E-21
1.18520E-02 1.71308E-21
1.23288E-02 1.58055E-21
1.28150E-02 1.46051E-21
1.33104E-02 1.35158E-21
1.38150E-02 1.25256E-21
1.43290E-02 1.16238E-21
1.48521E-02 1.08012E-21
1.53845E-02 1.00496E-21
1.59262E-02 9.36184E-22
1.64770E-02 8.73148E-22
1.70371E-02 8.15295E-22
1.76063E-02 7.62117E-22
1.81848E-02 7.13176E-22
1.87724E-02 6.68071E-22
1.93692E-02 6.26450E-22
1.99751E-02 5.87996E-22
2.05901E-02 5.52425E-22
2.12143E-02 5.19482E-22
2.18476E-02 4.88940E-22
2.24900E-02 4.60592E-22
2.31415E-02 4.34252E-22
2.38021E-02 4.09753E-22
2.44717E-02 3.86943E-22
2.51504E-02 3.65685E-22
2.58382E-02 3.45854E-22
2.65349E-02 3.27338E-22
2.72407E-02 3.10034E-22
2.79555E-02 2.93848E-22
2.86793E-02 2.78695E-22
2.94120E-02 2.64497E-22
3.01537E-02 2.51184E-22
3.09043E-02 2.38691E-22
3.16639E-02 2.26957E-22
3.24324E-02 2.15928E-22
3.32098E-02 2.05555E-22
3.39961E-02 1.95791E-22
3.47912E-02 1.86595E-22
3.55952E-02 1.77926E-22
3.64081E-02 1.69750E-22
3.72297E-02 1.62034E-22
3.80602E-02 1.54747E-22
3.88995E-02 1.47860E-22
3.97476E-02 1.41348E-22
4.06044E-02 1.35187E-22
4.14700E-02 1.29354E-22
4.23443E-02 1.23830E-22
4.32273E-02 1.18593E-22
4.41190E-02 1.13628E-22
4.50194E-02 1.08916E-22
4.59284E-02 1.04444E-22
4.68461E-02 1.00196E-22
4.87074E-02 9.23216E-23
5.06030E-02 8.51973E-23
5.25328E-02 7.87392E-23
5.44967E-02 7.28745E-23
5.64946E-02 6.75391E-23
5.85262E-02 6.26772E-23
6.05914E-02 5.82396E-23
6.26901E-02 5.41830E-23
6.48222E-02 5.04689E-23
6.69873E-02 4.70635E-23
6.91854E-02 4.39366E-23
7.14163E-02 4.10615E-23
7.36799E-02 3.84145E-23
7.59760E-02 3.59744E-23
7.83043E-02 3.37223E-23
8.06647E-02 3.16409E-23
8.30571E-02 2.97153E-23
8.54812E-02 2.79317E-23
8.79369E-02 2.62778E-23
9.04240E-02 2.47426E-23
9.29422E-02 2.33161E-23
9.54915E-02 2.19892E-23
9.80716E-02 2.07538E-23
1.00682E-01 1.96024E-23
1.03323E-01 1.85284E-23
1.05995E-01 1.75256E-23
1.08696E-01 1.65886E-23
1.11427E-01 1.57121E-23
1.14188E-01 1.48917E-23
1.16978E-01 1.41232E-23
1.19797E-01 1.34026E-23
1.22645E-01 1.27265E-23
1.25522E-01 1.20916E-23
1.28428E-01 1.14950E-23
1.31361E-01 1.09340E-23
1.34323E-01 1.04061E-23
1.37313E-01 9.90898E-24
1.40330E-01 9.44054E-24
1.43375E-01 8.99883E-24
1.46447E-01 8.58205E-24
1.49545E-01 8.18857E-24
1.52671E-01 7.81686E-24
1.55823E-01 7.46551E-24
1.59001E-01 7.13319E-24
1.62205E-01 6.81870E-24
1.65435E-01 6.52090E-24
1.68690E-01 6.23877E-24
1.71970E-01 5.97134E-24
1.75276E-01 5.71772E-24
1.78606E-01 5.47705E-24
1.81961E-01 5.24856E-24
1.85340E-01 5.03152E-24
1.88743E-01 4.82527E-24
1.92169E-01 4.62918E-24
1.95619E-01 4.44267E-24
1.99092E-01 4.26517E-24
2.02589E-01 4.09617E-24
2.06107E-01 3.93519E-24
2.09649E-01 3.78181E-24
2.13212E-01 3.63559E-24
2.16797E-01 3.49614E-24
2.20404E-01 3.36309E-24
2.24032E-01 3.23609E-24
2.27680E-01 3.11482E-24
2.31350E-01 2.99899E-24
2.35040E-01 2.88831E-24
2.38751E-01 2.78250E-24
2.42481E-01 2.68131E-24
2.46231E-01 2.58449E-24
2.50000E-01 2.49186E-24
2.53788E-01 2.40319E-24
2.57595E-01 2.31827E-24
2.61421E-01 2.23690E-24
2.65264E-01 2.15893E-24
2.69126E-01 2.08420E-24
2.73005E-01 2.01254E-24
2.76901E-01 1.94380E-24
2.80814E-01 1.87784E-24
2.84744E-01 1.81453E-24
2.88691E-01 1.75375E-24
2.92653E-01 1.69538E-24
2.96632E-01 1.63930E-24
3.00625E-01 1.58542E-24
3.04634E-01 1.53362E-24
3.08658E-01 1.48382E-24
3.12697E-01 1.43593E-24
3.16749E-01 1.38986E-24
3.20816E-01 1.34552E-24
3.24896E-01 1.30285E-24
3.28990E-01 1.26176E-24
3.33097E-01 1.22220E-24
3.37216E-01 1.18409E-24
3.41348E-01 1.14738E-24
3.45492E-01 1.11199E-24
3.49647E-01 1.07788E-24
3.53814E-01 1.04499E-24
3.57992E-01 1.01328E-24
3.62181E-01 9.82682E-25
3.66381E-01 9.53164E-25
3.70590E-01 9.24676E-25
3.74810E-01 8.97177E-25
3.79039E-01 8.70628E-25
3.83277E-01 8.44990E-25
3.87524E-01 8.20227E-25
3.91780E-01 7.96303E-25
3.96044E-01 7.73184E-25
4.00316E-01 7.50841E-25
4.04596E-01 7.29243E-25
4.08882E-01 7.08360E-25
4.13176E-01 6.88164E-25
4.17476E-01 6.68630E-25
4.21783E-01 6.49732E-25
4.26095E-01 6.31446E-25
4.30413E-01 6.13749E-25
4.34737E-01 5.96619E-25
4.39065E-01 5.80034E-25
4.43398E-01 5.63974E-25
4.47736E-01 5.48420E-25
4.52077E-01 5.33354E-25
4.56422E-01 5.18757E-25
4.60770E-01 5.04613E-25
4.65122E-01 4.90906E-25
4.69476E-01 4.77619E-25
4.73832E-01 4.64737E-25
4.78190E-01 4.52247E-25
4.82550E-01 4.40135E-25
4.86912E-01 4.28387E-25
4.91274E-01 4.16990E-25
4.95637E-01 4.05932E-25
5.00000E-01 3.95202E-25
5.04363E-01 3.84789E-25
5.08726E-01 3.74680E-25
5.13088E-01 3.64867E-25
5.17450E-01 3.55339E-25
5.21810E-01 3.46087E-25
5.26168E-01 3.37101E-25
5.30524E-01 3.28372E-25
5.34878E-01 3.19892E-25
5.39230E-01 3.11653E-25
5.43578E-01 3.03646E-25
5.47923E-01 2.95865E-25
5.52264E-01 2.88302E-25
5.56602E-01 2.80949E-25
5.60935E-01 2.73800E-25
5.65263E-01 2.66849E-25
5.69587E-01 2.60089E-25
5.73905E-01 2.53514E-25
5.78217E-01 2.47119E-25
5.82524E-01 2.40897E-25
5.86824E-01 2.34843E-25
5.91118E-01 2.28952E-25
5.95404E-01 2.23220E-25
5.99684E-01 2.17640E-25
6.03956E-01 2.12209E-25
6.08220E-01 2.06921E-25
6.12476E-01 2.01773E-25
6.16723E-01 1.96761E-25
6.20961E-01 1.91879E-25
6.25190E-01 1.87125E-25
6.29410E-01 1.82494E-25
6.33619E-01 1.77983E-25
6.37819E-01 1.73588E-25
6.42008E-01 1.69306E-25
6.46186E-01 1.65134E-25
6.50353E-01 1.61067E-25
6.54508E-01 1.57104E-25
6.58652E-01 1.53242E-25
6.62784E-01 1.49476E-25
6.66903E-01 1.45806E-25
6.71010E-01 1.42227E-25
6.75104E-01 1.38737E-25
6.79184E-01 1.35334E-25
6.83251E-01 1.32015E-25
6.87303E-01 1.28779E-25
6.91342E-01 1.25622E-25
6.95366E-01 1.22542E-25
6.99375E-01 1.19538E-25
7.03368E-01 1.16607E-25
7.07347E-01 1.13747E-25
7.11309E-01 1.10956E-25
7.15256E-01 1.08233E-25
7.19186E-01 1.05575E-25
7.23099E-01 1.02981E-25
7.26995E-01 1.00450E-25
7.30874E-01 9.79782E-26
7.34736E-01 9.55656E-26
7.38579E-01 9.32103E-26
7.42405E-01 9.09107E-26
7.46212E-01 8.86654E-26
7.50000E-01 8.64729E-26
7.53769E-01 8.43319E-26
7.57519E-01 8.22411E-26
7.61249E-01 8.01991E-26
7.64960E-01 7.82047E-26
7.68650E-01 7.62567E-26
7.72320E-01 7.43540E-26
7.75968E-01 7.24952E-26
7.79596E-01 7.06794E-26
7.83203E-01 6.89055E-26
7.86788E-01 6.71724E-26
7.90351E-01 6.54790E-26
7.93893E-01 6.38245E-26
7.97411E-01 6.22079E-26
8.00908E-01 6.06281E-26
8.04381E-01 5.90844E-26
8.07831E-01 5.75758E-26
8.11257E-01 5.61015E-26
8.14660E-01 5.46607E-26
8.18039E-01 5.32526E-26
8.21394E-01 5.18763E-26
8.24724E-01 5.05311E-26
8.28030E-01 4.92163E-26
8.31310E-01 4.79312E-26
8.34565E-01 4.66751E-26
8.37795E-01 4.54473E-26
8.40999E-01 4.42471E-26
8.44177E-01 4.30739E-26
8.47329E-01 4.19270E-26
8.50455E-01 4.08060E-26
8.53553E-01 3.97102E-26
8.56625E-01 3.86390E-26
8.59670E-01 3.75918E-26
8.62687E-01 3.65682E-26
8.65677E-01 3.55676E-26
8.68639E-01 3.45895E-26
8.71572E-01 3.36333E-26
8.74478E-01 3.26988E-26
8.77355E-01 3.17852E-26
8.80203E-01 3.08923E-26
8.83022E-01 3.00195E-26
8.85812E-01 2.91664E-26
8.88573E-01 2.83327E-26
8.91304E-01 2.75178E-26
8.94005E-01 2.67215E-26
8.96677E-01 2.59433E-26
8.99318E-01 2.51828E-26
9.01928E-01 2.44397E-26
9.04508E-01 2.37136E-26
9.07058E-01 2.30042E-26
9.09576E-01 2.23112E-26
9.12063E-01 2.16342E-26
9.14519E-01 2.09728E-26
9.16943E-01 2.03269E-26
9.19335E-01 1.96961E-26
9.21696E-01 1.90801E-26
9.24024E-01 1.84786E-26
9.26320E-01 1.78913E-26
9.28584E-01 1.73180E-26
9.30815E-01 1.67585E-26
9.33013E-01 1.62124E-26
9.35178E-01 1.56795E-26
9.37310E-01 1.51596E-26
9.39409E-01 1.46524E-26
9.41474E-01 1.41578E-26
9.43505E-01 1.36755E-26
9.45503E-01 1.32052E-26
9.47467E-01 1.27468E-26
9.49397E-01 1.23002E-26
9.51293E-01 1.18650E-26
9.53154E-01 1.14410E-26
9.54981E-01 1.10282E-26
9.56773E-01 1.06264E-26
9.58530E-01 1.02353E-26
9.60252E-01 9.85476E-27
9.61940E-01 9.48466E-27
9.63592E-01 9.12484E-27
9.65209E-01 8.77513E-27
9.66790E-01 8.43538E-27
9.68336E-01 8.10546E-27
9.69846E-01 7.78522E-27
9.71321E-01 7.47453E-27
9.72759E-01 7.17326E-27
9.74162E-01 6.88128E-27
9.75528E-01 6.59846E-27
9.76858E-01 6.32470E-27
9.78152E-01 6.05987E-27
9.79410E-01 5.80387E-27
9.80631E-01 5.55659E-27
9.81815E-01 5.31794E-27
9.82963E-01 5.08780E-27
9.84074E-01 4.86608E-27
9.85148E-01 4.65271E-27
9.86185E-01 4.44758E-27
9.87185E-01 4.25061E-27
9.88148E-01 4.06173E-27
9.89074E-01 3.88085E-27
9.89962E-01 3.70791E-27
9.90814E-01 3.54283E-27
9.91627E-01 3.38554E-27
9.92404E-01 3.23599E-27
9.93143E-01 3.09410E-27
9.93844E-01 2.95984E-27
9.94508E-01 2.83313E-27
9.95134E-01 2.71393E-27
9.95722E-01 2.60220E-27
9.96273E-01 2.49788E-27
9.96786E-01 2.40093E-27
9.97261E-01 2.31132E-27
9.97698E-01 2.22901E-27
9.98097E-01 2.15397E-27
9.98459E-01 2.08616E-27
9.98782E-01 2.02556E-27
9.99067E-01 1.97215E-27
9.99315E-01 1.92591E-27
9.99524E-01 1.88681E-27
9.99695E-01 1.85484E-27
9.99829E-01 1.82999E-27
9.99924E-01 1.81224E-27
9.99981E-01 1.80160E-27
1.00000E+00 1.79805E-27
