 #
 # Subroutine ELSEPA. Elastic scattering of electrons and positrons
 #                    by neutral atoms and positive ions
 #
 # Projectile: positron
 # Kinetic energy = 7.00000E+07 eV = 2.57245E+06 a.u.
 #
 # WARNING: High-energy factorization with free-atom DF screening.
 #          Absorption, polarization and exchange corrections are
 #          switched off.
 #          Phase shifts are calculated for the bare nucleus.
 #          Scattering amplitudes are not evaluated.
 #
 # Element: Nd,  Z =  60,  atomic weight = 1.44240E+02 g/mol
 #
 # Nuclear model: Fermi distribution
 #                Average radius = 5.61150E-13 cm
 #                Skin thickness = 5.46000E-14 cm
 #
 # Number of electrons = 60
 #
 # Total elastic cross section = 7.26509E-18 cm**2 = 2.59441E-01 a0**2
 # 1st transport cross section = 1.33655E-24 cm**2 = 4.77290E-08 a0**2
 # 2nd transport cross section = 3.94759E-24 cm**2 = 1.40971E-07 a0**2
 #
 #
 # Differential cross section:                       MU=(1-COS(THETA))/2
 #
 #  THETA        MU          DCS          DCS        Sherman      error
 #  (deg)                 (cm**2/sr)   (a0**2/sr)    function
 #----------------------------------------------------------------------
0.00000E+00 5.06187E-10
7.61557E-13 5.04820E-10
1.18994E-12 5.04055E-10
1.71346E-12 5.03123E-10
2.33225E-12 5.02026E-10
3.04617E-12 5.00765E-10
3.85530E-12 4.99342E-10
4.75964E-12 4.97760E-10
5.75917E-12 4.96020E-10
6.85391E-12 4.94127E-10
8.04379E-12 4.92082E-10
9.32893E-12 4.89889E-10
1.07092E-11 4.87552E-10
1.21847E-11 4.85074E-10
1.37554E-11 4.82459E-10
1.54213E-11 4.79710E-10
1.71823E-11 4.76832E-10
1.90386E-11 4.73830E-10
2.09900E-11 4.70706E-10
2.30367E-11 4.67467E-10
2.51785E-11 4.64117E-10
2.74156E-11 4.60659E-10
2.97478E-11 4.57099E-10
3.21752E-11 4.53443E-10
3.46979E-11 4.49695E-10
3.73157E-11 4.45858E-10
4.00286E-11 4.41941E-10
4.28368E-11 4.37945E-10
4.57402E-11 4.33877E-10
4.87388E-11 4.29785E-10
5.18325E-11 4.25625E-10
5.50215E-11 4.21394E-10
5.83057E-11 4.17096E-10
6.16850E-11 4.12735E-10
6.51595E-11 4.08314E-10
6.87293E-11 4.03839E-10
7.23943E-11 3.99324E-10
7.61544E-11 3.94885E-10
1.18991E-10 3.49279E-10
1.71347E-10 3.04744E-10
2.33223E-10 2.63733E-10
3.04617E-10 2.27829E-10
3.85531E-10 1.96974E-10
4.75965E-10 1.70918E-10
5.75917E-10 1.49196E-10
6.85389E-10 1.31119E-10
8.04380E-10 1.15977E-10
9.32891E-10 1.03231E-10
1.07092E-09 9.24364E-11
1.21847E-09 8.31837E-11
1.37554E-09 7.51844E-11
1.54213E-09 6.82027E-11
1.71823E-09 6.20545E-11
1.90386E-09 5.66115E-11
2.09900E-09 5.17652E-11
2.30367E-09 4.74077E-11
2.51785E-09 4.34922E-11
2.74156E-09 3.99634E-11
2.97478E-09 3.67671E-11
3.21752E-09 3.38641E-11
3.46978E-09 3.12317E-11
3.73156E-09 2.88408E-11
4.00286E-09 2.66565E-11
4.28368E-09 2.46681E-11
4.57402E-09 2.28566E-11
4.87388E-09 2.10978E-11
5.18326E-09 1.95153E-11
5.50215E-09 1.81044E-11
5.83057E-09 1.68428E-11
6.16850E-09 1.57113E-11
6.51596E-09 1.46939E-11
6.87293E-09 1.37764E-11
7.23942E-09 1.29362E-11
7.61544E-09 1.20707E-11
1.18991E-08 6.59571E-12
1.71347E-08 3.92444E-12
2.33223E-08 2.47374E-12
3.04617E-08 1.61623E-12
3.85531E-08 1.09580E-12
4.75965E-08 7.67921E-13
5.75917E-08 5.54285E-13
6.85389E-08 4.11079E-13
8.04380E-08 3.12431E-13
9.32891E-08 2.42491E-13
1.07092E-07 1.91458E-13
1.21847E-07 1.53427E-13
1.37554E-07 1.24449E-13
1.54213E-07 1.02041E-13
1.71823E-07 8.44470E-14
1.90386E-07 7.04737E-14
2.09900E-07 5.92443E-14
2.30367E-07 5.01073E-14
2.51785E-07 4.26399E-14
2.74156E-07 3.64969E-14
2.97478E-07 3.14083E-14
3.21752E-07 2.71681E-14
3.46978E-07 2.36173E-14
3.73156E-07 2.06261E-14
4.00286E-07 1.80891E-14
4.28368E-07 1.59295E-14
4.57402E-07 1.40829E-14
4.87388E-07 1.24904E-14
5.18325E-07 1.11218E-14
5.50215E-07 9.94138E-15
5.83057E-07 8.90894E-15
6.16850E-07 8.00823E-15
6.51596E-07 7.22186E-15
6.87293E-07 6.52780E-15
7.23942E-07 5.91508E-15
7.61543E-07 5.37461E-15
1.18991E-06 2.29871E-15
1.71347E-06 1.14153E-15
2.33223E-06 6.28680E-16
3.04617E-06 3.73740E-16
3.85531E-06 2.35715E-16
4.75964E-06 1.55847E-16
5.75916E-06 1.07094E-16
6.85388E-06 7.59948E-17
8.04378E-06 5.54080E-17
9.32888E-06 4.13448E-17
1.07092E-05 3.14741E-17
1.21846E-05 2.43817E-17
1.37553E-05 1.91796E-17
1.54212E-05 1.52939E-17
1.71822E-05 1.23443E-17
1.90385E-05 1.00687E-17
2.09899E-05 8.30078E-18
2.30365E-05 6.90352E-18
2.51783E-05 5.78697E-18
2.74153E-05 4.88622E-18
2.97475E-05 4.15350E-18
3.21749E-05 3.55298E-18
3.46974E-05 3.05730E-18
3.73152E-05 2.64534E-18
4.00281E-05 2.30065E-18
4.28362E-05 2.01038E-18
4.57395E-05 1.76443E-18
4.87380E-05 1.55486E-18
5.18317E-05 1.37539E-18
5.50205E-05 1.22099E-18
5.83045E-05 1.08762E-18
6.16838E-05 9.71946E-19
6.51582E-05 8.71265E-19
6.87277E-05 7.83306E-19
7.23925E-05 7.06179E-19
7.61524E-05 6.38405E-19
9.21439E-05 4.36287E-19
1.09658E-04 3.08115E-19
1.28695E-04 2.23727E-19
1.49255E-04 1.66313E-19
1.71338E-04 1.26183E-19
1.94942E-04 9.74456E-20
2.20070E-04 7.64358E-20
2.46720E-04 6.07906E-20
2.74892E-04 4.89463E-20
3.04586E-04 3.98489E-20
3.35803E-04 3.27675E-20
3.68542E-04 2.71900E-20
4.02802E-04 2.27488E-20
4.38585E-04 1.91773E-20
4.75889E-04 1.62792E-20
5.14715E-04 1.39075E-20
5.55063E-04 1.19520E-20
5.96931E-04 1.03278E-20
6.40321E-04 8.96995E-21
6.85233E-04 7.82776E-21
7.31665E-04 6.86139E-21
7.79618E-04 6.03943E-21
8.29092E-04 5.33670E-21
8.80086E-04 4.73308E-21
9.32601E-04 4.21229E-21
9.86636E-04 3.76104E-21
1.04219E-03 3.36851E-21
1.09927E-03 3.02577E-21
1.15786E-03 2.72543E-21
1.21797E-03 2.46137E-21
1.27961E-03 2.22845E-21
1.34276E-03 2.02237E-21
1.40743E-03 1.83951E-21
1.47362E-03 1.67681E-21
1.54133E-03 1.53165E-21
1.61056E-03 1.40183E-21
1.68131E-03 1.28543E-21
1.75357E-03 1.18083E-21
1.82735E-03 1.08663E-21
1.90265E-03 1.00160E-21
1.97947E-03 9.24706E-22
2.05780E-03 8.55027E-22
2.13765E-03 7.91766E-22
2.21902E-03 7.34228E-22
2.30190E-03 6.81805E-22
2.38630E-03 6.33961E-22
2.47222E-03 5.90225E-22
2.55965E-03 5.50182E-22
2.64859E-03 5.13464E-22
2.73905E-03 4.79747E-22
2.83103E-03 4.48741E-22
2.92452E-03 4.20189E-22
3.01952E-03 3.93862E-22
3.11604E-03 3.69557E-22
3.21407E-03 3.47088E-22
3.31362E-03 3.26294E-22
3.41468E-03 3.07027E-22
3.51725E-03 2.89154E-22
3.62133E-03 2.72557E-22
3.72692E-03 2.57127E-22
3.83403E-03 2.42768E-22
3.94265E-03 2.29393E-22
4.05278E-03 2.16921E-22
4.16442E-03 2.05281E-22
4.27757E-03 1.94406E-22
4.39223E-03 1.84239E-22
4.50840E-03 1.74723E-22
4.62608E-03 1.65811E-22
4.74527E-03 1.57455E-22
4.86597E-03 1.49616E-22
4.98817E-03 1.42255E-22
5.11188E-03 1.35338E-22
5.23711E-03 1.28834E-22
5.36383E-03 1.22714E-22
5.49207E-03 1.16950E-22
5.62181E-03 1.11518E-22
5.75306E-03 1.06395E-22
5.88581E-03 1.01562E-22
6.02007E-03 9.69972E-23
6.15583E-03 9.26845E-23
6.29310E-03 8.86070E-23
6.43187E-03 8.47495E-23
6.57214E-03 8.10980E-23
6.71392E-03 7.76394E-23
6.85720E-03 7.43618E-23
7.00198E-03 7.12538E-23
7.14827E-03 6.83052E-23
7.29605E-03 6.55062E-23
7.44534E-03 6.28479E-23
7.59612E-03 6.03219E-23
7.97965E-03 5.45357E-23
8.37255E-03 4.94209E-23
8.77480E-03 4.48866E-23
9.18641E-03 4.08557E-23
9.60736E-03 3.72630E-23
1.00376E-02 3.40526E-23
1.04773E-02 3.11770E-23
1.09262E-02 2.85953E-23
1.13844E-02 2.62725E-23
1.18520E-02 2.41780E-23
1.23288E-02 2.22856E-23
1.28150E-02 2.05725E-23
1.33104E-02 1.90188E-23
1.38150E-02 1.76071E-23
1.43290E-02 1.63221E-23
1.48521E-02 1.51507E-23
1.53845E-02 1.40809E-23
1.59262E-02 1.31025E-23
1.64770E-02 1.22063E-23
1.70371E-02 1.13842E-23
1.76063E-02 1.06290E-23
1.81848E-02 9.93441E-24
1.87724E-02 9.29464E-24
1.93692E-02 8.70464E-24
1.99751E-02 8.15987E-24
2.05901E-02 7.65626E-24
2.12143E-02 7.19017E-24
2.18476E-02 6.75831E-24
2.24900E-02 6.35775E-24
2.31415E-02 5.98582E-24
2.38021E-02 5.64011E-24
2.44717E-02 5.31847E-24
2.51504E-02 5.01893E-24
2.58382E-02 4.73971E-24
2.65349E-02 4.47918E-24
2.72407E-02 4.23590E-24
2.79555E-02 4.00851E-24
2.86793E-02 3.79580E-24
2.94120E-02 3.59666E-24
3.01537E-02 3.41007E-24
3.09043E-02 3.23511E-24
3.16639E-02 3.07093E-24
3.24324E-02 2.91675E-24
3.32098E-02 2.77186E-24
3.39961E-02 2.63560E-24
3.47912E-02 2.50736E-24
3.55952E-02 2.38661E-24
3.64081E-02 2.27282E-24
3.72297E-02 2.16552E-24
3.80602E-02 2.06428E-24
3.88995E-02 1.96871E-24
3.97476E-02 1.87842E-24
4.06044E-02 1.79309E-24
4.14700E-02 1.71238E-24
4.23443E-02 1.63601E-24
4.32273E-02 1.56370E-24
4.41190E-02 1.49521E-24
4.50194E-02 1.43029E-24
4.59284E-02 1.36873E-24
4.68461E-02 1.31033E-24
4.87074E-02 1.20224E-24
5.06030E-02 1.10467E-24
5.25328E-02 1.01643E-24
5.44967E-02 9.36495E-25
5.64946E-02 8.63954E-25
5.85262E-02 7.98018E-25
6.05914E-02 7.37992E-25
6.26901E-02 6.83263E-25
6.48222E-02 6.33292E-25
6.69873E-02 5.87601E-25
6.91854E-02 5.45767E-25
7.14163E-02 5.07414E-25
7.36799E-02 4.72208E-25
7.59760E-02 4.39852E-25
7.83043E-02 4.10079E-25
8.06647E-02 3.82652E-25
8.30571E-02 3.57359E-25
8.54812E-02 3.34007E-25
8.79369E-02 3.12427E-25
9.04240E-02 2.92464E-25
9.29422E-02 2.73977E-25
9.54915E-02 2.56843E-25
9.80716E-02 2.40947E-25
1.00682E-01 2.26187E-25
1.03323E-01 2.12470E-25
1.05995E-01 1.99711E-25
1.08696E-01 1.87834E-25
1.11427E-01 1.76769E-25
1.14188E-01 1.66452E-25
1.16978E-01 1.56826E-25
1.19797E-01 1.47839E-25
1.22645E-01 1.39440E-25
1.25522E-01 1.31588E-25
1.28428E-01 1.24241E-25
1.31361E-01 1.17361E-25
1.34323E-01 1.10916E-25
1.37313E-01 1.04874E-25
1.40330E-01 9.92069E-26
1.43375E-01 9.38875E-26
1.46447E-01 8.88919E-26
1.49545E-01 8.41977E-26
1.52671E-01 7.97843E-26
1.55823E-01 7.56328E-26
1.59001E-01 7.17255E-26
1.62205E-01 6.80462E-26
1.65435E-01 6.45798E-26
1.68690E-01 6.13125E-26
1.71970E-01 5.82314E-26
1.75276E-01 5.53244E-26
1.78606E-01 5.25805E-26
1.81961E-01 4.99894E-26
1.85340E-01 4.75416E-26
1.88743E-01 4.52280E-26
1.92169E-01 4.30405E-26
1.95619E-01 4.09713E-26
1.99092E-01 3.90133E-26
2.02589E-01 3.71597E-26
2.06107E-01 3.54044E-26
2.09649E-01 3.37414E-26
2.13212E-01 3.21655E-26
2.16797E-01 3.06713E-26
2.20404E-01 2.92543E-26
2.24032E-01 2.79100E-26
2.27680E-01 2.66342E-26
2.31350E-01 2.54231E-26
2.35040E-01 2.42729E-26
2.38751E-01 2.31803E-26
2.42481E-01 2.21421E-26
2.46231E-01 2.11553E-26
2.50000E-01 2.02169E-26
2.53788E-01 1.93245E-26
2.57595E-01 1.84755E-26
2.61421E-01 1.76675E-26
2.65264E-01 1.68984E-26
2.69126E-01 1.61661E-26
2.73005E-01 1.54687E-26
2.76901E-01 1.48043E-26
2.80814E-01 1.41711E-26
2.84744E-01 1.35677E-26
2.88691E-01 1.29923E-26
2.92653E-01 1.24437E-26
2.96632E-01 1.19204E-26
3.00625E-01 1.14211E-26
3.04634E-01 1.09447E-26
3.08658E-01 1.04900E-26
3.12697E-01 1.00558E-26
3.16749E-01 9.64121E-27
3.20816E-01 9.24523E-27
3.24896E-01 8.86694E-27
3.28990E-01 8.50548E-27
3.33097E-01 8.16003E-27
3.37216E-01 7.82981E-27
3.41348E-01 7.51408E-27
3.45492E-01 7.21216E-27
3.49647E-01 6.92338E-27
3.53814E-01 6.64712E-27
3.57992E-01 6.38279E-27
3.62181E-01 6.12983E-27
3.66381E-01 5.88770E-27
3.70590E-01 5.65589E-27
3.74810E-01 5.43394E-27
3.79039E-01 5.22139E-27
3.83277E-01 5.01779E-27
3.87524E-01 4.82275E-27
3.91780E-01 4.63587E-27
3.96044E-01 4.45679E-27
4.00316E-01 4.28514E-27
4.04596E-01 4.12060E-27
4.08882E-01 3.96284E-27
4.13176E-01 3.81157E-27
4.17476E-01 3.66649E-27
4.21783E-01 3.52733E-27
4.26095E-01 3.39384E-27
4.30413E-01 3.26575E-27
4.34737E-01 3.14284E-27
4.39065E-01 3.02487E-27
4.43398E-01 2.91164E-27
4.47736E-01 2.80294E-27
4.52077E-01 2.69858E-27
4.56422E-01 2.59836E-27
4.60770E-01 2.50211E-27
4.65122E-01 2.40966E-27
4.69476E-01 2.32085E-27
4.73832E-01 2.23552E-27
4.78190E-01 2.15354E-27
4.82550E-01 2.07475E-27
4.86912E-01 1.99903E-27
4.91274E-01 1.92624E-27
4.95637E-01 1.85627E-27
5.00000E-01 1.78899E-27
5.04363E-01 1.72430E-27
5.08726E-01 1.66209E-27
5.13088E-01 1.60225E-27
5.17450E-01 1.54470E-27
5.21810E-01 1.48933E-27
5.26168E-01 1.43607E-27
5.30524E-01 1.38481E-27
5.34878E-01 1.33549E-27
5.39230E-01 1.28802E-27
5.43578E-01 1.24233E-27
5.47923E-01 1.19835E-27
5.52264E-01 1.15601E-27
5.56602E-01 1.11524E-27
5.60935E-01 1.07598E-27
5.65263E-01 1.03818E-27
5.69587E-01 1.00177E-27
5.73905E-01 9.66708E-28
5.78217E-01 9.32929E-28
5.82524E-01 9.00387E-28
5.86824E-01 8.69033E-28
5.91118E-01 8.38823E-28
5.95404E-01 8.09711E-28
5.99684E-01 7.81655E-28
6.03956E-01 7.54614E-28
6.08220E-01 7.28549E-28
6.12476E-01 7.03423E-28
6.16723E-01 6.79199E-28
6.20961E-01 6.55843E-28
6.25190E-01 6.33323E-28
6.29410E-01 6.11606E-28
6.33619E-01 5.90663E-28
6.37819E-01 5.70463E-28
6.42008E-01 5.50979E-28
6.46186E-01 5.32183E-28
6.50353E-01 5.14051E-28
6.54508E-01 4.96557E-28
6.58652E-01 4.79677E-28
6.62784E-01 4.63389E-28
6.66903E-01 4.47671E-28
6.71010E-01 4.32501E-28
6.75104E-01 4.17859E-28
6.79184E-01 4.03726E-28
6.83251E-01 3.90084E-28
6.87303E-01 3.76913E-28
6.91342E-01 3.64197E-28
6.95366E-01 3.51919E-28
6.99375E-01 3.40063E-28
7.03368E-01 3.28615E-28
7.07347E-01 3.17558E-28
7.11309E-01 3.06880E-28
7.15256E-01 2.96565E-28
7.19186E-01 2.86602E-28
7.23099E-01 2.76978E-28
7.26995E-01 2.67680E-28
7.30874E-01 2.58696E-28
7.34736E-01 2.50016E-28
7.38579E-01 2.41629E-28
7.42405E-01 2.33525E-28
7.46212E-01 2.25692E-28
7.50000E-01 2.18122E-28
7.53769E-01 2.10806E-28
7.57519E-01 2.03734E-28
7.61249E-01 1.96898E-28
7.64960E-01 1.90289E-28
7.68650E-01 1.83901E-28
7.72320E-01 1.77724E-28
7.75968E-01 1.71752E-28
7.79596E-01 1.65977E-28
7.83203E-01 1.60393E-28
7.86788E-01 1.54993E-28
7.90351E-01 1.49770E-28
7.93893E-01 1.44720E-28
7.97411E-01 1.39834E-28
8.00908E-01 1.35109E-28
8.04381E-01 1.30538E-28
8.07831E-01 1.26117E-28
8.11257E-01 1.21839E-28
8.14660E-01 1.17701E-28
8.18039E-01 1.13697E-28
8.21394E-01 1.09824E-28
8.24724E-01 1.06075E-28
8.28030E-01 1.02448E-28
8.31310E-01 9.89386E-29
8.34565E-01 9.55421E-29
8.37795E-01 9.22552E-29
8.40999E-01 8.90740E-29
8.44177E-01 8.59951E-29
8.47329E-01 8.30152E-29
8.50455E-01 8.01308E-29
8.53553E-01 7.73388E-29
8.56625E-01 7.46363E-29
8.59670E-01 7.20201E-29
8.62687E-01 6.94876E-29
8.65677E-01 6.70359E-29
8.68639E-01 6.46623E-29
8.71572E-01 6.23644E-29
8.74478E-01 6.01397E-29
8.77355E-01 5.79858E-29
8.80203E-01 5.59003E-29
8.83022E-01 5.38812E-29
8.85812E-01 5.19262E-29
8.88573E-01 5.00332E-29
8.91304E-01 4.82003E-29
8.94005E-01 4.64256E-29
8.96677E-01 4.47072E-29
8.99318E-01 4.30433E-29
9.01928E-01 4.14322E-29
9.04508E-01 3.98722E-29
9.07058E-01 3.83617E-29
9.09576E-01 3.68992E-29
9.12063E-01 3.54831E-29
9.14519E-01 3.41119E-29
9.16943E-01 3.27844E-29
9.19335E-01 3.14991E-29
9.21696E-01 3.02547E-29
9.24024E-01 2.90500E-29
9.26320E-01 2.78838E-29
9.28584E-01 2.67548E-29
9.30815E-01 2.56620E-29
9.33013E-01 2.46043E-29
9.35178E-01 2.35805E-29
9.37310E-01 2.25897E-29
9.39409E-01 2.16309E-29
9.41474E-01 2.07032E-29
9.43505E-01 1.98056E-29
9.45503E-01 1.89372E-29
9.47467E-01 1.80972E-29
9.49397E-01 1.72847E-29
9.51293E-01 1.64991E-29
9.53154E-01 1.57394E-29
9.54981E-01 1.50050E-29
9.56773E-01 1.42951E-29
9.58530E-01 1.36091E-29
9.60252E-01 1.29463E-29
9.61940E-01 1.23060E-29
9.63592E-01 1.16877E-29
9.65209E-01 1.10907E-29
9.66790E-01 1.05145E-29
9.68336E-01 9.95855E-30
9.69846E-01 9.42225E-30
9.71321E-01 8.90512E-30
9.72759E-01 8.40668E-30
9.74162E-01 7.92646E-30
9.75528E-01 7.46399E-30
9.76858E-01 7.01884E-30
9.78152E-01 6.59059E-30
9.79410E-01 6.17883E-30
9.80631E-01 5.78318E-30
9.81815E-01 5.40327E-30
9.82963E-01 5.03874E-30
9.84074E-01 4.68925E-30
9.85148E-01 4.35447E-30
9.86185E-01 4.03408E-30
9.87185E-01 3.72780E-30
9.88148E-01 3.43534E-30
9.89074E-01 3.15642E-30
9.89962E-01 2.89078E-30
9.90814E-01 2.63818E-30
9.91627E-01 2.39839E-30
9.92404E-01 2.17118E-30
9.93143E-01 1.95634E-30
9.93844E-01 1.75368E-30
9.94508E-01 1.56301E-30
9.95134E-01 1.38414E-30
9.95722E-01 1.21693E-30
9.96273E-01 1.06121E-30
9.96786E-01 9.16839E-31
9.97261E-01 7.83687E-31
9.97698E-01 6.61632E-31
9.98097E-01 5.50560E-31
9.98459E-01 4.50370E-31
9.98782E-01 3.60972E-31
9.99067E-01 2.82282E-31
9.99315E-01 2.14229E-31
9.99524E-01 1.56751E-31
9.99695E-01 1.09795E-31
9.99829E-01 7.33176E-32
9.99924E-01 4.72864E-32
9.99981E-01 3.16773E-32
1.00000E+00 2.64753E-32
