 #
 # Subroutine ELSEPA. Elastic scattering of electrons and positrons
 #                    by neutral atoms and positive ions
 #
 # Projectile: positron
 # Kinetic energy = 5.00000E+07 eV = 1.83747E+06 a.u.
 #
 # WARNING: High-energy factorization with free-atom DF screening.
 #          Absorption, polarization and exchange corrections are
 #          switched off.
 #          Phase shifts are calculated for the bare nucleus.
 #          Scattering amplitudes are not evaluated.
 #
 # Element: Nd,  Z =  60,  atomic weight = 1.44240E+02 g/mol
 #
 # Nuclear model: Fermi distribution
 #                Average radius = 5.61150E-13 cm
 #                Skin thickness = 5.46000E-14 cm
 #
 # Number of electrons = 60
 #
 # Total elastic cross section = 7.26189E-18 cm**2 = 2.59327E-01 a0**2
 # 1st transport cross section = 2.52961E-24 cm**2 = 9.03340E-08 a0**2
 # 2nd transport cross section = 7.42959E-24 cm**2 = 2.65316E-07 a0**2
 #
 #
 # Differential cross section:                       MU=(1-COS(THETA))/2
 #
 #  THETA        MU          DCS          DCS        Sherman      error
 #  (deg)                 (cm**2/sr)   (a0**2/sr)    function
 #----------------------------------------------------------------------
0.00000E+00 2.59758E-10
7.61557E-13 2.59397E-10
1.18994E-12 2.59195E-10
1.71346E-12 2.58949E-10
2.33225E-12 2.58658E-10
3.04617E-12 2.58323E-10
3.85530E-12 2.57945E-10
4.75964E-12 2.57523E-10
5.75917E-12 2.57058E-10
6.85391E-12 2.56550E-10
8.04379E-12 2.56000E-10
9.32893E-12 2.55409E-10
1.07092E-11 2.54776E-10
1.21847E-11 2.54102E-10
1.37554E-11 2.53388E-10
1.54213E-11 2.52635E-10
1.71823E-11 2.51842E-10
1.90386E-11 2.51011E-10
2.09900E-11 2.50142E-10
2.30367E-11 2.49236E-10
2.51785E-11 2.48294E-10
2.74156E-11 2.47315E-10
2.97478E-11 2.46303E-10
3.21752E-11 2.45256E-10
3.46979E-11 2.44175E-10
3.73157E-11 2.43063E-10
4.00286E-11 2.41918E-10
4.28368E-11 2.40743E-10
4.57402E-11 2.39538E-10
4.87388E-11 2.38303E-10
5.18325E-11 2.37041E-10
5.50215E-11 2.35751E-10
5.83057E-11 2.34435E-10
6.16850E-11 2.33093E-10
6.51595E-11 2.31726E-10
6.87293E-11 2.30336E-10
7.23943E-11 2.28924E-10
7.61544E-11 2.27490E-10
1.18991E-10 2.12213E-10
1.71347E-10 1.95730E-10
2.33223E-10 1.78902E-10
3.04617E-10 1.62401E-10
3.85531E-10 1.46724E-10
4.75965E-10 1.32190E-10
5.75917E-10 1.18970E-10
6.85389E-10 1.07115E-10
8.04380E-10 9.66067E-11
9.32891E-10 8.73545E-11
1.07092E-09 7.92198E-11
1.21847E-09 7.20769E-11
1.37554E-09 6.58014E-11
1.54213E-09 6.02766E-11
1.71823E-09 5.53969E-11
1.90386E-09 5.10698E-11
2.09900E-09 4.72151E-11
2.30367E-09 4.37648E-11
2.51785E-09 4.06613E-11
2.74156E-09 3.78563E-11
2.97478E-09 3.53096E-11
3.21752E-09 3.29849E-11
3.46978E-09 3.08561E-11
3.73156E-09 2.89006E-11
4.00286E-09 2.70990E-11
4.28368E-09 2.54349E-11
4.57402E-09 2.38946E-11
4.87388E-09 2.24660E-11
5.18326E-09 2.11389E-11
5.50215E-09 1.99044E-11
5.83057E-09 1.87546E-11
6.16850E-09 1.76826E-11
6.51596E-09 1.66823E-11
6.87293E-09 1.57476E-11
7.23942E-09 1.48729E-11
7.61544E-09 1.40553E-11
1.18991E-08 8.16402E-12
1.71347E-08 5.10402E-12
2.33223E-08 3.35749E-12
3.04617E-08 2.30109E-12
3.85531E-08 1.62734E-12
4.75965E-08 1.17918E-12
5.75917E-08 8.71749E-13
6.85389E-08 6.56092E-13
8.04380E-08 5.01971E-13
9.32891E-08 3.90249E-13
1.07092E-07 3.08187E-13
1.21847E-07 2.46957E-13
1.37554E-07 2.00559E-13
1.54213E-07 1.64863E-13
1.71823E-07 1.36998E-13
1.90386E-07 1.14944E-13
2.09900E-07 9.72779E-14
2.30367E-07 8.29498E-14
2.51785E-07 7.11628E-14
2.74156E-07 6.14201E-14
2.97478E-07 5.33018E-14
3.21752E-07 4.64777E-14
3.46978E-07 4.07064E-14
3.73156E-07 3.57950E-14
4.00286E-07 3.15915E-14
4.28368E-07 2.79763E-14
4.57402E-07 2.48539E-14
4.87388E-07 2.21474E-14
5.18325E-07 1.97938E-14
5.50215E-07 1.77408E-14
5.83057E-07 1.59447E-14
6.16850E-07 1.43686E-14
6.51596E-07 1.29813E-14
6.87293E-07 1.17564E-14
7.23942E-07 1.06713E-14
7.61543E-07 9.70798E-15
1.18991E-06 4.18845E-15
1.71347E-06 2.09883E-15
2.33223E-06 1.16630E-15
3.04617E-06 6.98802E-16
3.85531E-06 4.43629E-16
4.75964E-06 2.94832E-16
5.75916E-06 2.03364E-16
6.85388E-06 1.44716E-16
8.04378E-06 1.05736E-16
9.32888E-06 7.90219E-17
1.07092E-05 6.02293E-17
1.21846E-05 4.67033E-17
1.37553E-05 3.67688E-17
1.54212E-05 2.93405E-17
1.71822E-05 2.36972E-17
1.90385E-05 1.93405E-17
2.09899E-05 1.59536E-17
2.30365E-05 1.32754E-17
2.51783E-05 1.11343E-17
2.74153E-05 9.40600E-18
2.97475E-05 7.99951E-18
3.21749E-05 6.84624E-18
3.46974E-05 5.89387E-18
3.73152E-05 5.10198E-18
4.00281E-05 4.43913E-18
4.28362E-05 3.88067E-18
4.57395E-05 3.40728E-18
4.87380E-05 3.00374E-18
5.18317E-05 2.65802E-18
5.50205E-05 2.36046E-18
5.83045E-05 2.10332E-18
6.16838E-05 1.88024E-18
6.51582E-05 1.68598E-18
6.87277E-05 1.51621E-18
7.23925E-05 1.36730E-18
7.61524E-05 1.23631E-18
9.21439E-05 8.45662E-19
1.09658E-04 5.97670E-19
1.28695E-04 4.34241E-19
1.49255E-04 3.22964E-19
1.71338E-04 2.45136E-19
1.94942E-04 1.89372E-19
2.20070E-04 1.48584E-19
2.46720E-04 1.18199E-19
2.74892E-04 9.51881E-20
3.04586E-04 7.75088E-20
3.35803E-04 6.37439E-20
3.68542E-04 5.28999E-20
4.02802E-04 4.42638E-20
4.38585E-04 3.73177E-20
4.75889E-04 3.16804E-20
5.14715E-04 2.70668E-20
5.55063E-04 2.32621E-20
5.96931E-04 2.01019E-20
6.40321E-04 1.74597E-20
6.85233E-04 1.52370E-20
7.31665E-04 1.33564E-20
7.79618E-04 1.17566E-20
8.29092E-04 1.03889E-20
8.80086E-04 9.21409E-21
9.32601E-04 8.20038E-21
9.86636E-04 7.32203E-21
1.04219E-03 6.55796E-21
1.09927E-03 5.89079E-21
1.15786E-03 5.30614E-21
1.21797E-03 4.79209E-21
1.27961E-03 4.33868E-21
1.34276E-03 3.93751E-21
1.40743E-03 3.58153E-21
1.47362E-03 3.26479E-21
1.54133E-03 2.98221E-21
1.61056E-03 2.72947E-21
1.68131E-03 2.50286E-21
1.75357E-03 2.29924E-21
1.82735E-03 2.11584E-21
1.90265E-03 1.95031E-21
1.97947E-03 1.80062E-21
2.05780E-03 1.66497E-21
2.13765E-03 1.54181E-21
2.21902E-03 1.42979E-21
2.30190E-03 1.32774E-21
2.38630E-03 1.23460E-21
2.47222E-03 1.14945E-21
2.55965E-03 1.07149E-21
2.64859E-03 1.00001E-21
2.73905E-03 9.34372E-22
2.83103E-03 8.74009E-22
2.92452E-03 8.18425E-22
3.01952E-03 7.67172E-22
3.11604E-03 7.19853E-22
3.21407E-03 6.76113E-22
3.31362E-03 6.35631E-22
3.41468E-03 5.98120E-22
3.51725E-03 5.63325E-22
3.62133E-03 5.31013E-22
3.72692E-03 5.00973E-22
3.83403E-03 4.73018E-22
3.94265E-03 4.46979E-22
4.05278E-03 4.22696E-22
4.16442E-03 4.00035E-22
4.27757E-03 3.78864E-22
4.39223E-03 3.59067E-22
4.50840E-03 3.40541E-22
4.62608E-03 3.23188E-22
4.74527E-03 3.06921E-22
4.86597E-03 2.91659E-22
4.98817E-03 2.77329E-22
5.11188E-03 2.63863E-22
5.23711E-03 2.51201E-22
5.36383E-03 2.39285E-22
5.49207E-03 2.28063E-22
5.62181E-03 2.17487E-22
5.75306E-03 2.07514E-22
5.88581E-03 1.98102E-22
6.02007E-03 1.89215E-22
6.15583E-03 1.80818E-22
6.29310E-03 1.72878E-22
6.43187E-03 1.65367E-22
6.57214E-03 1.58256E-22
6.71392E-03 1.51522E-22
6.85720E-03 1.45139E-22
7.00198E-03 1.39087E-22
7.14827E-03 1.33345E-22
7.29605E-03 1.27894E-22
7.44534E-03 1.22716E-22
7.59612E-03 1.17797E-22
7.97965E-03 1.06527E-22
8.37255E-03 9.65645E-23
8.77480E-03 8.77318E-23
9.18641E-03 7.98789E-23
9.60736E-03 7.28781E-23
1.00376E-02 6.66217E-23
1.04773E-02 6.10172E-23
1.09262E-02 5.59850E-23
1.13844E-02 5.14566E-23
1.18520E-02 4.73729E-23
1.23288E-02 4.36828E-23
1.28150E-02 4.03418E-23
1.33104E-02 3.73112E-23
1.38150E-02 3.45571E-23
1.43290E-02 3.20499E-23
1.48521E-02 2.97637E-23
1.53845E-02 2.76756E-23
1.59262E-02 2.57655E-23
1.64770E-02 2.40155E-23
1.70371E-02 2.24099E-23
1.76063E-02 2.09347E-23
1.81848E-02 1.95775E-23
1.87724E-02 1.83271E-23
1.93692E-02 1.71738E-23
1.99751E-02 1.61086E-23
2.05901E-02 1.51236E-23
2.12143E-02 1.42118E-23
2.18476E-02 1.33667E-23
2.24900E-02 1.25826E-23
2.31415E-02 1.18544E-23
2.38021E-02 1.11773E-23
2.44717E-02 1.05472E-23
2.51504E-02 9.96016E-24
2.58382E-02 9.41277E-24
2.65349E-02 8.90189E-24
2.72407E-02 8.42464E-24
2.79555E-02 7.97842E-24
2.86793E-02 7.56086E-24
2.94120E-02 7.16979E-24
3.01537E-02 6.80325E-24
3.09043E-02 6.45942E-24
3.16639E-02 6.13664E-24
3.24324E-02 5.83340E-24
3.32098E-02 5.54832E-24
3.39961E-02 5.28011E-24
3.47912E-02 5.02759E-24
3.55952E-02 4.78970E-24
3.64081E-02 4.56543E-24
3.72297E-02 4.35386E-24
3.80602E-02 4.15416E-24
3.88995E-02 3.96553E-24
3.97476E-02 3.78726E-24
4.06044E-02 3.61868E-24
4.14700E-02 3.45917E-24
4.23443E-02 3.30815E-24
4.32273E-02 3.16510E-24
4.41190E-02 3.02952E-24
4.50194E-02 2.90095E-24
4.59284E-02 2.77897E-24
4.68461E-02 2.66317E-24
4.87074E-02 2.44870E-24
5.06030E-02 2.25488E-24
5.25328E-02 2.07940E-24
5.44967E-02 1.92022E-24
5.64946E-02 1.77560E-24
5.85262E-02 1.64398E-24
6.05914E-02 1.52399E-24
6.26901E-02 1.41445E-24
6.48222E-02 1.31430E-24
6.69873E-02 1.22259E-24
6.91854E-02 1.13850E-24
7.14163E-02 1.06129E-24
7.36799E-02 9.90314E-25
7.59760E-02 9.24978E-25
7.83043E-02 8.64764E-25
8.06647E-02 8.09204E-25
8.30571E-02 7.57880E-25
8.54812E-02 7.10417E-25
8.79369E-02 6.66478E-25
9.04240E-02 6.25758E-25
9.29422E-02 5.87983E-25
9.54915E-02 5.52906E-25
9.80716E-02 5.20303E-25
1.00682E-01 4.89972E-25
1.03323E-01 4.61729E-25
1.05995E-01 4.35407E-25
1.08696E-01 4.10855E-25
1.11427E-01 3.87935E-25
1.14188E-01 3.66520E-25
1.16978E-01 3.46497E-25
1.19797E-01 3.27760E-25
1.22645E-01 3.10214E-25
1.25522E-01 2.93772E-25
1.28428E-01 2.78352E-25
1.31361E-01 2.63881E-25
1.34323E-01 2.50293E-25
1.37313E-01 2.37523E-25
1.40330E-01 2.25517E-25
1.43375E-01 2.14220E-25
1.46447E-01 2.03584E-25
1.49545E-01 1.93565E-25
1.52671E-01 1.84122E-25
1.55823E-01 1.75216E-25
1.59001E-01 1.66812E-25
1.62205E-01 1.58877E-25
1.65435E-01 1.51381E-25
1.68690E-01 1.44297E-25
1.71970E-01 1.37597E-25
1.75276E-01 1.31259E-25
1.78606E-01 1.25260E-25
1.81961E-01 1.19578E-25
1.85340E-01 1.14195E-25
1.88743E-01 1.09093E-25
1.92169E-01 1.04254E-25
1.95619E-01 9.96630E-26
1.99092E-01 9.53056E-26
2.02589E-01 9.11681E-26
2.06107E-01 8.72377E-26
2.09649E-01 8.35026E-26
2.13212E-01 7.99516E-26
2.16797E-01 7.65743E-26
2.20404E-01 7.33610E-26
2.24032E-01 7.03026E-26
2.27680E-01 6.73905E-26
2.31350E-01 6.46168E-26
2.35040E-01 6.19739E-26
2.38751E-01 5.94548E-26
2.42481E-01 5.70529E-26
2.46231E-01 5.47619E-26
2.50000E-01 5.25761E-26
2.53788E-01 5.04898E-26
2.57595E-01 4.84979E-26
2.61421E-01 4.65957E-26
2.65264E-01 4.47784E-26
2.69126E-01 4.30417E-26
2.73005E-01 4.13817E-26
2.76901E-01 3.97944E-26
2.80814E-01 3.82762E-26
2.84744E-01 3.68237E-26
2.88691E-01 3.54338E-26
2.92653E-01 3.41032E-26
2.96632E-01 3.28292E-26
3.00625E-01 3.16090E-26
3.04634E-01 3.04400E-26
3.08658E-01 2.93199E-26
3.12697E-01 2.82462E-26
3.16749E-01 2.72169E-26
3.20816E-01 2.62299E-26
3.24896E-01 2.52831E-26
3.28990E-01 2.43747E-26
3.33097E-01 2.35030E-26
3.37216E-01 2.26663E-26
3.41348E-01 2.18630E-26
3.45492E-01 2.10917E-26
3.49647E-01 2.03508E-26
3.53814E-01 1.96390E-26
3.57992E-01 1.89551E-26
3.62181E-01 1.82978E-26
3.66381E-01 1.76659E-26
3.70590E-01 1.70583E-26
3.74810E-01 1.64741E-26
3.79039E-01 1.59121E-26
3.83277E-01 1.53714E-26
3.87524E-01 1.48512E-26
3.91780E-01 1.43505E-26
3.96044E-01 1.38685E-26
4.00316E-01 1.34045E-26
4.04596E-01 1.29577E-26
4.08882E-01 1.25273E-26
4.13176E-01 1.21128E-26
4.17476E-01 1.17134E-26
4.21783E-01 1.13286E-26
4.26095E-01 1.09577E-26
4.30413E-01 1.06001E-26
4.34737E-01 1.02554E-26
4.39065E-01 9.92308E-27
4.43398E-01 9.60255E-27
4.47736E-01 9.29338E-27
4.52077E-01 8.99512E-27
4.56422E-01 8.70735E-27
4.60770E-01 8.42966E-27
4.65122E-01 8.16164E-27
4.69476E-01 7.90294E-27
4.73832E-01 7.65318E-27
4.78190E-01 7.41202E-27
4.82550E-01 7.17914E-27
4.86912E-01 6.95421E-27
4.91274E-01 6.73695E-27
4.95637E-01 6.52705E-27
5.00000E-01 6.32424E-27
5.04363E-01 6.12826E-27
5.08726E-01 5.93885E-27
5.13088E-01 5.75576E-27
5.17450E-01 5.57877E-27
5.21810E-01 5.40765E-27
5.26168E-01 5.24218E-27
5.30524E-01 5.08215E-27
5.34878E-01 4.92738E-27
5.39230E-01 4.77766E-27
5.43578E-01 4.63282E-27
5.47923E-01 4.49268E-27
5.52264E-01 4.35708E-27
5.56602E-01 4.22584E-27
5.60935E-01 4.09882E-27
5.65263E-01 3.97587E-27
5.69587E-01 3.85684E-27
5.73905E-01 3.74160E-27
5.78217E-01 3.63001E-27
5.82524E-01 3.52194E-27
5.86824E-01 3.41728E-27
5.91118E-01 3.31590E-27
5.95404E-01 3.21770E-27
5.99684E-01 3.12256E-27
6.03956E-01 3.03038E-27
6.08220E-01 2.94105E-27
6.12476E-01 2.85449E-27
6.16723E-01 2.77059E-27
6.20961E-01 2.68927E-27
6.25190E-01 2.61044E-27
6.29410E-01 2.53402E-27
6.33619E-01 2.45993E-27
6.37819E-01 2.38808E-27
6.42008E-01 2.31841E-27
6.46186E-01 2.25084E-27
6.50353E-01 2.18531E-27
6.54508E-01 2.12174E-27
6.58652E-01 2.06008E-27
6.62784E-01 2.00025E-27
6.66903E-01 1.94221E-27
6.71010E-01 1.88589E-27
6.75104E-01 1.83123E-27
6.79184E-01 1.77819E-27
6.83251E-01 1.72672E-27
6.87303E-01 1.67675E-27
6.91342E-01 1.62825E-27
6.95366E-01 1.58116E-27
6.99375E-01 1.53545E-27
7.03368E-01 1.49107E-27
7.07347E-01 1.44797E-27
7.11309E-01 1.40612E-27
7.15256E-01 1.36548E-27
7.19186E-01 1.32601E-27
7.23099E-01 1.28767E-27
7.26995E-01 1.25043E-27
7.30874E-01 1.21425E-27
7.34736E-01 1.17911E-27
7.38579E-01 1.14497E-27
7.42405E-01 1.11179E-27
7.46212E-01 1.07956E-27
7.50000E-01 1.04824E-27
7.53769E-01 1.01780E-27
7.57519E-01 9.88216E-28
7.61249E-01 9.59465E-28
7.64960E-01 9.31520E-28
7.68650E-01 9.04357E-28
7.72320E-01 8.77953E-28
7.75968E-01 8.52284E-28
7.79596E-01 8.27329E-28
7.83203E-01 8.03068E-28
7.86788E-01 7.79478E-28
7.90351E-01 7.56541E-28
7.93893E-01 7.34238E-28
7.97411E-01 7.12549E-28
8.00908E-01 6.91458E-28
8.04381E-01 6.70945E-28
8.07831E-01 6.50996E-28
8.11257E-01 6.31593E-28
8.14660E-01 6.12720E-28
8.18039E-01 5.94363E-28
8.21394E-01 5.76507E-28
8.24724E-01 5.59137E-28
8.28030E-01 5.42239E-28
8.31310E-01 5.25800E-28
8.34565E-01 5.09807E-28
8.37795E-01 4.94248E-28
8.40999E-01 4.79110E-28
8.44177E-01 4.64381E-28
8.47329E-01 4.50051E-28
8.50455E-01 4.36107E-28
8.53553E-01 4.22539E-28
8.56625E-01 4.09337E-28
8.59670E-01 3.96491E-28
8.62687E-01 3.83991E-28
8.65677E-01 3.71826E-28
8.68639E-01 3.59989E-28
8.71572E-01 3.48471E-28
8.74478E-01 3.37262E-28
8.77355E-01 3.26354E-28
8.80203E-01 3.15739E-28
8.83022E-01 3.05410E-28
8.85812E-01 2.95358E-28
8.88573E-01 2.85577E-28
8.91304E-01 2.76059E-28
8.94005E-01 2.66797E-28
8.96677E-01 2.57784E-28
8.99318E-01 2.49015E-28
9.01928E-01 2.40481E-28
9.04508E-01 2.32179E-28
9.07058E-01 2.24101E-28
9.09576E-01 2.16242E-28
9.12063E-01 2.08596E-28
9.14519E-01 2.01157E-28
9.16943E-01 1.93921E-28
9.19335E-01 1.86883E-28
9.21696E-01 1.80037E-28
9.24024E-01 1.73378E-28
9.26320E-01 1.66903E-28
9.28584E-01 1.60606E-28
9.30815E-01 1.54483E-28
9.33013E-01 1.48530E-28
9.35178E-01 1.42743E-28
9.37310E-01 1.37118E-28
9.39409E-01 1.31651E-28
9.41474E-01 1.26338E-28
9.43505E-01 1.21175E-28
9.45503E-01 1.16160E-28
9.47467E-01 1.11289E-28
9.49397E-01 1.06557E-28
9.51293E-01 1.01964E-28
9.53154E-01 9.75039E-29
9.54981E-01 9.31754E-29
9.56773E-01 8.89751E-29
9.58530E-01 8.49004E-29
9.60252E-01 8.09485E-29
9.61940E-01 7.71167E-29
9.63592E-01 7.34025E-29
9.65209E-01 6.98035E-29
9.66790E-01 6.63174E-29
9.68336E-01 6.29417E-29
9.69846E-01 5.96743E-29
9.71321E-01 5.65132E-29
9.72759E-01 5.34561E-29
9.74162E-01 5.05011E-29
9.75528E-01 4.76464E-29
9.76858E-01 4.48899E-29
9.78152E-01 4.22301E-29
9.79410E-01 3.96650E-29
9.80631E-01 3.71932E-29
9.81815E-01 3.48130E-29
9.82963E-01 3.25228E-29
9.84074E-01 3.03212E-29
9.85148E-01 2.82068E-29
9.86185E-01 2.61783E-29
9.87185E-01 2.42343E-29
9.88148E-01 2.23736E-29
9.89074E-01 2.05950E-29
9.89962E-01 1.88974E-29
9.90814E-01 1.72797E-29
9.91627E-01 1.57409E-29
9.92404E-01 1.42800E-29
9.93143E-01 1.28961E-29
9.93844E-01 1.15883E-29
9.94508E-01 1.03558E-29
9.95134E-01 9.19775E-30
9.95722E-01 8.11352E-30
9.96273E-01 7.10239E-30
9.96786E-01 6.16372E-30
9.97261E-01 5.29692E-30
9.97698E-01 4.50146E-30
9.98097E-01 3.77681E-30
9.98459E-01 3.12255E-30
9.98782E-01 2.53825E-30
9.99067E-01 2.02354E-30
9.99315E-01 1.57812E-30
9.99524E-01 1.20169E-30
9.99695E-01 8.94019E-31
9.99829E-01 6.54922E-31
9.99924E-01 4.84245E-31
9.99981E-01 3.81881E-31
1.00000E+00 3.47765E-31
