 #
 # Subroutine ELSEPA. Elastic scattering of electrons and positrons
 #                    by neutral atoms and positive ions
 #
 # Projectile: positron
 # Kinetic energy = 9.00000E+08 eV = 3.30744E+07 a.u.
 #
 # WARNING: High-energy factorization with free-atom DF screening.
 #          Absorption, polarization and exchange corrections are
 #          switched off.
 #          Phase shifts are calculated for the bare nucleus.
 #          Scattering amplitudes are not evaluated.
 #
 # Element: Nd,  Z =  60,  atomic weight = 1.44240E+02 g/mol
 #
 # Nuclear model: Fermi distribution
 #                Average radius = 5.61150E-13 cm
 #                Skin thickness = 5.46000E-14 cm
 #
 # Number of electrons = 60
 #
 # Total elastic cross section = 7.15584E-18 cm**2 = 2.55540E-01 a0**2
 # 1st transport cross section = 8.56379E-27 cm**2 = 3.05819E-10 a0**2
 # 2nd transport cross section = 2.56882E-26 cm**2 = 9.17343E-10 a0**2
 #
 #
 # Differential cross section:                       MU=(1-COS(THETA))/2
 #
 #  THETA        MU          DCS          DCS        Sherman      error
 #  (deg)                 (cm**2/sr)   (a0**2/sr)    function
 #----------------------------------------------------------------------
0.00000E+00 8.25610E-08
7.61557E-13 5.61620E-08
1.18994E-12 4.70430E-08
1.71346E-12 3.90406E-08
2.33225E-12 3.24065E-08
3.04617E-12 2.70514E-08
3.85530E-12 2.28111E-08
4.75964E-12 1.94436E-08
5.75917E-12 1.67455E-08
6.85391E-12 1.45603E-08
8.04379E-12 1.27591E-08
9.32893E-12 1.12537E-08
1.07092E-11 9.97495E-09
1.21847E-11 8.87902E-09
1.37554E-11 7.93022E-09
1.54213E-11 7.10079E-09
1.71823E-11 6.37463E-09
1.90386E-11 5.73441E-09
2.09900E-11 5.16831E-09
2.30367E-11 4.66790E-09
2.51785E-11 4.22305E-09
2.74156E-11 3.82791E-09
2.97478E-11 3.46085E-09
3.21752E-11 3.13363E-09
3.46979E-11 2.85079E-09
3.73157E-11 2.60517E-09
4.00286E-11 2.39088E-09
4.28368E-11 2.20310E-09
4.57402E-11 2.02481E-09
4.87388E-11 1.85727E-09
5.18325E-11 1.70956E-09
5.50215E-11 1.57885E-09
5.83057E-11 1.46278E-09
6.16850E-11 1.35935E-09
6.51595E-11 1.26234E-09
6.87293E-11 1.17010E-09
7.23943E-11 1.08748E-09
7.61544E-11 1.01325E-09
1.18991E-10 5.32688E-10
1.71347E-10 3.02991E-10
2.33223E-10 1.82792E-10
3.04617E-10 1.16431E-10
3.85531E-10 7.77461E-11
4.75965E-10 5.41593E-11
5.75917E-10 3.90909E-11
6.85389E-10 2.90222E-11
8.04380E-10 2.20312E-11
9.32891E-10 1.70417E-11
1.07092E-09 1.33845E-11
1.21847E-09 1.06537E-11
1.37554E-09 8.57510E-12
1.54213E-09 6.96972E-12
1.71823E-09 5.71900E-12
1.90386E-09 4.73385E-12
2.09900E-09 3.95061E-12
2.30367E-09 3.32231E-12
2.51785E-09 2.81325E-12
2.74156E-09 2.39783E-12
2.97478E-09 2.05551E-12
3.21752E-09 1.77298E-12
3.46978E-09 1.53827E-12
3.73156E-09 1.34035E-12
4.00286E-09 1.17414E-12
4.28368E-09 1.03253E-12
4.57402E-09 9.11882E-13
4.87388E-09 8.08550E-13
5.18326E-09 7.19283E-13
5.50215E-09 6.42329E-13
5.83057E-09 5.75147E-13
6.16850E-09 5.16677E-13
6.51596E-09 4.65464E-13
6.87293E-09 4.20394E-13
7.23942E-09 3.80782E-13
7.61544E-09 3.45573E-13
1.18991E-08 1.46522E-13
1.71347E-08 7.21979E-14
2.33223E-08 3.95230E-14
3.04617E-08 2.33977E-14
3.85531E-08 1.47163E-14
4.75965E-08 9.71288E-15
5.75917E-08 6.66679E-15
6.85389E-08 4.72697E-15
8.04380E-08 3.44436E-15
9.32891E-08 2.56886E-15
1.07092E-07 1.95474E-15
1.21847E-07 1.51367E-15
1.37554E-07 1.19027E-15
1.54213E-07 9.48800E-16
1.71823E-07 7.65560E-16
1.90386E-07 6.24483E-16
2.09900E-07 5.14444E-16
2.30367E-07 4.27600E-16
2.51785E-07 3.58323E-16
2.74156E-07 3.02518E-16
2.97478E-07 2.57161E-16
3.21752E-07 2.19989E-16
3.46978E-07 1.89294E-16
3.73156E-07 1.63769E-16
4.00286E-07 1.42401E-16
4.28368E-07 1.24406E-16
4.57402E-07 1.09164E-16
4.87388E-07 9.61856E-17
5.18325E-07 8.50787E-17
5.50215E-07 7.55290E-17
5.83057E-07 6.72815E-17
6.16850E-07 6.01292E-17
6.51596E-07 5.39020E-17
6.87293E-07 4.84602E-17
7.23942E-07 4.36877E-17
7.61543E-07 3.94884E-17
1.18991E-06 1.61970E-17
1.71347E-06 7.81630E-18
2.33223E-06 4.22041E-18
3.04617E-06 2.47427E-18
3.85531E-06 1.54473E-18
4.75964E-06 1.01348E-18
5.75916E-06 6.92171E-19
6.85388E-06 4.88672E-19
8.04378E-06 3.54748E-19
9.32888E-06 2.63710E-19
1.07092E-05 2.00085E-19
1.21846E-05 1.54539E-19
1.37553E-05 1.21243E-19
1.54212E-05 9.64485E-20
1.71822E-05 7.76789E-20
1.90385E-05 6.32355E-20
2.09899E-05 5.20399E-20
2.30365E-05 4.32105E-20
2.51783E-05 3.61690E-20
2.74153E-05 3.04988E-20
2.97475E-05 2.58940E-20
3.21749E-05 2.21254E-20
3.46974E-05 1.90192E-20
3.73152E-05 1.64411E-20
4.00281E-05 1.42866E-20
4.28362E-05 1.24742E-20
4.57395E-05 1.09402E-20
4.87380E-05 9.63440E-21
5.18317E-05 8.51711E-21
5.50205E-05 7.55672E-21
5.83045E-05 6.72771E-21
6.16838E-05 6.00932E-21
6.51582E-05 5.38441E-21
6.87277E-05 4.83879E-21
7.23925E-05 4.36066E-21
7.61524E-05 3.93979E-21
9.21439E-05 2.67835E-21
1.09658E-04 1.88015E-21
1.28695E-04 1.35584E-21
1.49255E-04 1.00005E-21
1.71338E-04 7.52102E-22
1.94942E-04 5.75148E-22
2.20070E-04 4.46279E-22
2.46720E-04 3.50738E-22
2.74892E-04 2.78767E-22
3.04586E-04 2.23795E-22
3.35803E-04 1.81270E-22
3.68542E-04 1.48003E-22
4.02802E-04 1.21712E-22
4.38585E-04 1.00741E-22
4.75889E-04 8.38748E-23
5.14715E-04 7.02039E-23
5.55063E-04 5.90464E-23
5.96931E-04 4.98815E-23
6.40321E-04 4.23090E-23
6.85233E-04 3.60183E-23
7.31665E-04 3.07663E-23
7.79618E-04 2.63614E-23
8.29092E-04 2.26510E-23
8.80086E-04 1.95134E-23
9.32601E-04 1.68505E-23
9.86636E-04 1.45827E-23
1.04219E-03 1.26455E-23
1.09927E-03 1.09857E-23
1.15786E-03 9.55977E-24
1.21797E-03 8.33172E-24
1.27961E-03 7.27161E-24
1.34276E-03 6.35449E-24
1.40743E-03 5.55948E-24
1.47362E-03 4.86905E-24
1.54133E-03 4.26841E-24
1.61056E-03 3.74504E-24
1.68131E-03 3.28835E-24
1.75357E-03 2.88929E-24
1.82735E-03 2.54017E-24
1.90265E-03 2.23439E-24
1.97947E-03 1.96628E-24
2.05780E-03 1.73100E-24
2.13765E-03 1.52433E-24
2.21902E-03 1.34267E-24
2.30190E-03 1.18288E-24
2.38630E-03 1.04224E-24
2.47222E-03 9.18391E-25
2.55965E-03 8.09279E-25
2.64859E-03 7.13114E-25
2.73905E-03 6.28332E-25
2.83103E-03 5.53569E-25
2.92452E-03 4.87627E-25
3.01952E-03 4.29460E-25
3.11604E-03 3.78147E-25
3.21407E-03 3.32880E-25
3.31362E-03 2.92949E-25
3.41468E-03 2.57730E-25
3.51725E-03 2.26671E-25
3.62133E-03 1.99287E-25
3.72692E-03 1.75150E-25
3.83403E-03 1.53880E-25
3.94265E-03 1.35146E-25
4.05278E-03 1.18651E-25
4.16442E-03 1.04134E-25
4.27757E-03 9.13644E-26
4.39223E-03 8.01383E-26
4.50840E-03 7.02747E-26
4.62608E-03 6.16137E-26
4.74527E-03 5.40136E-26
4.86597E-03 4.73491E-26
4.98817E-03 4.15092E-26
5.11188E-03 3.63955E-26
5.23711E-03 3.19213E-26
5.36383E-03 2.80095E-26
5.49207E-03 2.45921E-26
5.62181E-03 2.16088E-26
5.75306E-03 1.90065E-26
5.88581E-03 1.67381E-26
6.02007E-03 1.47623E-26
6.15583E-03 1.30422E-26
6.29310E-03 1.15456E-26
6.43187E-03 1.02442E-26
6.57214E-03 9.11270E-27
6.71392E-03 8.12921E-27
6.85720E-03 7.27433E-27
7.00198E-03 6.53109E-27
7.14827E-03 5.88458E-27
7.29605E-03 5.32178E-27
7.44534E-03 4.83130E-27
7.59612E-03 4.40318E-27
7.97965E-03 3.55167E-27
8.37255E-03 2.93181E-27
8.77480E-03 2.46894E-27
9.18641E-03 2.11183E-27
9.60736E-03 1.82590E-27
1.00376E-02 1.58837E-27
1.04773E-02 1.38455E-27
1.09262E-02 1.20531E-27
1.13844E-02 1.04514E-27
1.18520E-02 9.00828E-28
1.23288E-02 7.70604E-28
1.28150E-02 6.53459E-28
1.33104E-02 5.48769E-28
1.38150E-02 4.56045E-28
1.43290E-02 3.74784E-28
1.48521E-02 3.04404E-28
1.53845E-02 2.44217E-28
1.59262E-02 1.93436E-28
1.64770E-02 1.51197E-28
1.70371E-02 1.16590E-28
1.76063E-02 8.86903E-29
1.81848E-02 6.65835E-29
1.87724E-02 4.93949E-29
1.93692E-02 3.63066E-29
1.99751E-02 2.65717E-29
2.05901E-02 1.95232E-29
2.12143E-02 1.45783E-29
2.18476E-02 1.12380E-29
2.24900E-02 9.08451E-30
2.31415E-02 7.77593E-30
2.38021E-02 7.03932E-30
2.44717E-02 6.66286E-30
2.51504E-02 6.48759E-30
2.58382E-02 6.39910E-30
2.65349E-02 6.31962E-30
2.72407E-02 6.20061E-30
2.79555E-02 6.01619E-30
2.86793E-02 5.75724E-30
2.94120E-02 5.42655E-30
3.01537E-02 5.03464E-30
3.09043E-02 4.59652E-30
3.16639E-02 4.12914E-30
3.24324E-02 3.64946E-30
3.32098E-02 3.17314E-30
3.39961E-02 2.71370E-30
3.47912E-02 2.28203E-30
3.55952E-02 1.88622E-30
3.64081E-02 1.53165E-30
3.72297E-02 1.22117E-30
3.80602E-02 9.55462E-31
3.88995E-02 7.33370E-31
3.97476E-02 5.52334E-31
4.06044E-02 4.08769E-31
4.14700E-02 2.98420E-31
4.23443E-02 2.16685E-31
4.32273E-02 1.58887E-31
4.41190E-02 1.20482E-31
4.50194E-02 9.72306E-32
4.59284E-02 8.53097E-32
4.68461E-02 8.13841E-32
4.87074E-02 8.67911E-32
5.06030E-02 9.70884E-32
5.25328E-02 1.03213E-31
5.44967E-02 1.01699E-31
5.64946E-02 9.27650E-32
5.85262E-02 7.85846E-32
6.05914E-02 6.19613E-32
6.26901E-02 4.54533E-32
6.48222E-02 3.09197E-32
6.69873E-02 1.93898E-32
6.91854E-02 1.11463E-32
7.14163E-02 5.91992E-33
7.36799E-02 3.11626E-33
7.59760E-02 2.01916E-33
7.83043E-02 1.94398E-33
8.06647E-02 2.33152E-33
8.30571E-02 2.78802E-33
8.54812E-02 3.08396E-33
8.79369E-02 3.12679E-33
9.04240E-02 2.92162E-33
9.29422E-02 2.53058E-33
9.54915E-02 2.03821E-33
9.80716E-02 1.52630E-33
1.00682E-01 1.05879E-33
1.03323E-01 6.75627E-34
1.05995E-01 3.93221E-34
1.08696E-01 2.08954E-34
1.11427E-01 1.07545E-34
1.14188E-01 6.74409E-35
1.16978E-01 6.61429E-35
1.19797E-01 8.39262E-35
1.22645E-01 1.05877E-34
1.25522E-01 1.22483E-34
1.28428E-01 1.29170E-34
1.31361E-01 1.25222E-34
1.34323E-01 1.12462E-34
1.37313E-01 9.39928E-35
1.40330E-01 7.31752E-35
1.43375E-01 5.29257E-35
1.46447E-01 3.53363E-35
1.49545E-01 2.15649E-35
1.52671E-01 1.19235E-35
1.55823E-01 6.07784E-36
1.59001E-01 3.29150E-36
1.62205E-01 2.65693E-36
1.65435E-01 3.28157E-36
1.68690E-01 4.41308E-36
1.71970E-01 5.50368E-36
1.75276E-01 6.22275E-36
1.78606E-01 6.43286E-36
1.81961E-01 6.14393E-36
1.85340E-01 5.46060E-36
1.88743E-01 4.53217E-36
1.92169E-01 3.51270E-36
1.95619E-01 2.53319E-36
1.99092E-01 1.68706E-36
2.02589E-01 1.02589E-36
2.06107E-01 5.63409E-37
2.09649E-01 2.84111E-37
2.13212E-01 1.53775E-37
2.16797E-01 1.29670E-37
2.20404E-01 1.69009E-37
2.24032E-01 2.34898E-37
2.27680E-01 2.99610E-37
2.31350E-01 3.45589E-37
2.35040E-01 3.64667E-37
2.38751E-01 3.56152E-37
2.42481E-01 3.24553E-37
2.46231E-01 2.77132E-37
2.50000E-01 2.21905E-37
2.53788E-01 1.66210E-37
2.57595E-01 1.15735E-37
2.61421E-01 7.41474E-38
2.65264E-01 4.30946E-38
2.69126E-01 1.00000E-45
2.73005E-01 1.00000E-45
2.76901E-01 1.00000E-45
2.80814E-01 1.00000E-45
2.84744E-01 1.00000E-45
2.88691E-01 1.00000E-45
2.92653E-01 1.00000E-45
2.96632E-01 1.00000E-45
3.00625E-01 1.00000E-45
3.04634E-01 1.00000E-45
3.08658E-01 1.00000E-45
3.12697E-01 1.00000E-45
3.16749E-01 1.00000E-45
3.20816E-01 1.00000E-45
3.24896E-01 1.00000E-45
3.28990E-01 1.00000E-45
3.33097E-01 1.00000E-45
3.37216E-01 1.00000E-45
3.41348E-01 1.00000E-45
3.45492E-01 1.00000E-45
3.49647E-01 1.00000E-45
3.53814E-01 1.00000E-45
3.57992E-01 1.00000E-45
3.62181E-01 1.00000E-45
3.66381E-01 1.00000E-45
3.70590E-01 1.00000E-45
3.74810E-01 1.00000E-45
3.79039E-01 1.00000E-45
3.83277E-01 1.00000E-45
3.87524E-01 1.00000E-45
3.91780E-01 1.00000E-45
3.96044E-01 1.00000E-45
4.00316E-01 1.00000E-45
4.04596E-01 1.00000E-45
4.08882E-01 1.00000E-45
4.13176E-01 1.00000E-45
4.17476E-01 1.00000E-45
4.21783E-01 1.00000E-45
4.26095E-01 1.00000E-45
4.30413E-01 1.00000E-45
4.34737E-01 1.00000E-45
4.39065E-01 1.00000E-45
4.43398E-01 1.00000E-45
4.47736E-01 1.00000E-45
4.52077E-01 1.00000E-45
4.56422E-01 1.00000E-45
4.60770E-01 1.00000E-45
4.65122E-01 1.00000E-45
4.69476E-01 1.00000E-45
4.73832E-01 1.00000E-45
4.78190E-01 1.00000E-45
4.82550E-01 1.00000E-45
4.86912E-01 1.00000E-45
4.91274E-01 1.00000E-45
4.95637E-01 1.00000E-45
5.00000E-01 1.00000E-45
5.04363E-01 1.00000E-45
5.08726E-01 1.00000E-45
5.13088E-01 1.00000E-45
5.17450E-01 1.00000E-45
5.21810E-01 1.00000E-45
5.26168E-01 1.00000E-45
5.30524E-01 1.00000E-45
5.34878E-01 1.00000E-45
5.39230E-01 1.00000E-45
5.43578E-01 1.00000E-45
5.47923E-01 1.00000E-45
5.52264E-01 1.00000E-45
5.56602E-01 1.00000E-45
5.60935E-01 1.00000E-45
5.65263E-01 1.00000E-45
5.69587E-01 1.00000E-45
5.73905E-01 1.00000E-45
5.78217E-01 1.00000E-45
5.82524E-01 1.00000E-45
5.86824E-01 1.00000E-45
5.91118E-01 1.00000E-45
5.95404E-01 1.00000E-45
5.99684E-01 1.00000E-45
6.03956E-01 1.00000E-45
6.08220E-01 1.00000E-45
6.12476E-01 1.00000E-45
6.16723E-01 1.00000E-45
6.20961E-01 1.00000E-45
6.25190E-01 1.00000E-45
6.29410E-01 1.00000E-45
6.33619E-01 1.00000E-45
6.37819E-01 1.00000E-45
6.42008E-01 1.00000E-45
6.46186E-01 1.00000E-45
6.50353E-01 1.00000E-45
6.54508E-01 1.00000E-45
6.58652E-01 1.00000E-45
6.62784E-01 1.00000E-45
6.66903E-01 1.00000E-45
6.71010E-01 1.00000E-45
6.75104E-01 1.00000E-45
6.79184E-01 1.00000E-45
6.83251E-01 1.00000E-45
6.87303E-01 1.00000E-45
6.91342E-01 1.00000E-45
6.95366E-01 1.00000E-45
6.99375E-01 1.00000E-45
7.03368E-01 1.00000E-45
7.07347E-01 1.00000E-45
7.11309E-01 1.00000E-45
7.15256E-01 1.00000E-45
7.19186E-01 1.00000E-45
7.23099E-01 1.00000E-45
7.26995E-01 1.00000E-45
7.30874E-01 1.00000E-45
7.34736E-01 1.00000E-45
7.38579E-01 1.00000E-45
7.42405E-01 1.00000E-45
7.46212E-01 1.00000E-45
7.50000E-01 1.00000E-45
7.53769E-01 1.00000E-45
7.57519E-01 1.00000E-45
7.61249E-01 1.00000E-45
7.64960E-01 1.00000E-45
7.68650E-01 1.00000E-45
7.72320E-01 1.00000E-45
7.75968E-01 1.00000E-45
7.79596E-01 1.00000E-45
7.83203E-01 1.00000E-45
7.86788E-01 1.00000E-45
7.90351E-01 1.00000E-45
7.93893E-01 1.00000E-45
7.97411E-01 1.00000E-45
8.00908E-01 1.00000E-45
8.04381E-01 1.00000E-45
8.07831E-01 1.00000E-45
8.11257E-01 1.00000E-45
8.14660E-01 1.00000E-45
8.18039E-01 1.00000E-45
8.21394E-01 1.00000E-45
8.24724E-01 1.00000E-45
8.28030E-01 1.00000E-45
8.31310E-01 1.00000E-45
8.34565E-01 1.00000E-45
8.37795E-01 1.00000E-45
8.40999E-01 1.00000E-45
8.44177E-01 1.00000E-45
8.47329E-01 1.00000E-45
8.50455E-01 1.00000E-45
8.53553E-01 1.00000E-45
8.56625E-01 1.00000E-45
8.59670E-01 1.00000E-45
8.62687E-01 1.00000E-45
8.65677E-01 1.00000E-45
8.68639E-01 1.00000E-45
8.71572E-01 1.00000E-45
8.74478E-01 1.00000E-45
8.77355E-01 1.00000E-45
8.80203E-01 1.00000E-45
8.83022E-01 1.00000E-45
8.85812E-01 1.00000E-45
8.88573E-01 1.00000E-45
8.91304E-01 1.00000E-45
8.94005E-01 1.00000E-45
8.96677E-01 1.00000E-45
8.99318E-01 1.00000E-45
9.01928E-01 1.00000E-45
9.04508E-01 1.00000E-45
9.07058E-01 1.00000E-45
9.09576E-01 1.00000E-45
9.12063E-01 1.00000E-45
9.14519E-01 1.00000E-45
9.16943E-01 1.00000E-45
9.19335E-01 1.00000E-45
9.21696E-01 1.00000E-45
9.24024E-01 1.00000E-45
9.26320E-01 1.00000E-45
9.28584E-01 1.00000E-45
9.30815E-01 1.00000E-45
9.33013E-01 1.00000E-45
9.35178E-01 1.00000E-45
9.37310E-01 1.00000E-45
9.39409E-01 1.00000E-45
9.41474E-01 1.00000E-45
9.43505E-01 1.00000E-45
9.45503E-01 1.00000E-45
9.47467E-01 1.00000E-45
9.49397E-01 1.00000E-45
9.51293E-01 1.00000E-45
9.53154E-01 1.00000E-45
9.54981E-01 1.00000E-45
9.56773E-01 1.00000E-45
9.58530E-01 1.00000E-45
9.60252E-01 1.00000E-45
9.61940E-01 1.00000E-45
9.63592E-01 1.00000E-45
9.65209E-01 1.00000E-45
9.66790E-01 1.00000E-45
9.68336E-01 1.00000E-45
9.69846E-01 1.00000E-45
9.71321E-01 1.00000E-45
9.72759E-01 1.00000E-45
9.74162E-01 1.00000E-45
9.75528E-01 1.00000E-45
9.76858E-01 1.00000E-45
9.78152E-01 1.00000E-45
9.79410E-01 1.00000E-45
9.80631E-01 1.00000E-45
9.81815E-01 1.00000E-45
9.82963E-01 1.00000E-45
9.84074E-01 1.00000E-45
9.85148E-01 1.00000E-45
9.86185E-01 1.00000E-45
9.87185E-01 1.00000E-45
9.88148E-01 1.00000E-45
9.89074E-01 1.00000E-45
9.89962E-01 1.00000E-45
9.90814E-01 1.00000E-45
9.91627E-01 1.00000E-45
9.92404E-01 1.00000E-45
9.93143E-01 1.00000E-45
9.93844E-01 1.00000E-45
9.94508E-01 1.00000E-45
9.95134E-01 1.00000E-45
9.95722E-01 1.00000E-45
9.96273E-01 1.00000E-45
9.96786E-01 1.00000E-45
9.97261E-01 1.00000E-45
9.97698E-01 1.00000E-45
9.98097E-01 1.00000E-45
9.98459E-01 1.00000E-45
9.98782E-01 1.00000E-45
9.99067E-01 1.00000E-45
9.99315E-01 1.00000E-45
9.99524E-01 1.00000E-45
9.99695E-01 1.00000E-45
9.99829E-01 1.00000E-45
9.99924E-01 1.00000E-45
9.99981E-01 1.00000E-45
1.00000E+00 1.00000E-45
