 #
 # Subroutine ELSEPA. Elastic scattering of electrons and positrons
 #                    by neutral atoms and positive ions
 #
 # Projectile: positron
 # Kinetic energy = 1.00000E+08 eV = 3.67493E+06 a.u.
 #
 # WARNING: High-energy factorization with free-atom DF screening.
 #          Absorption, polarization and exchange corrections are
 #          switched off.
 #          Phase shifts are calculated for the bare nucleus.
 #          Scattering amplitudes are not evaluated.
 #
 # Element: Nd,  Z =  60,  atomic weight = 1.44240E+02 g/mol
 #
 # Nuclear model: Fermi distribution
 #                Average radius = 5.61150E-13 cm
 #                Skin thickness = 5.46000E-14 cm
 #
 # Number of electrons = 60
 #
 # Total elastic cross section = 7.26481E-18 cm**2 = 2.59431E-01 a0**2
 # 1st transport cross section = 6.70638E-25 cm**2 = 2.39489E-08 a0**2
 # 2nd transport cross section = 1.99332E-24 cm**2 = 7.11828E-08 a0**2
 #
 #
 # Differential cross section:                       MU=(1-COS(THETA))/2
 #
 #  THETA        MU          DCS          DCS        Sherman      error
 #  (deg)                 (cm**2/sr)   (a0**2/sr)    function
 #----------------------------------------------------------------------
0.00000E+00 1.02855E-09
7.61557E-13 1.02292E-09
1.18994E-12 1.01978E-09
1.71346E-12 1.01597E-09
2.33225E-12 1.01150E-09
3.04617E-12 1.00637E-09
3.85530E-12 1.00062E-09
4.75964E-12 9.94251E-10
5.75917E-12 9.87289E-10
6.85391E-12 9.79755E-10
8.04379E-12 9.71674E-10
9.32893E-12 9.63069E-10
1.07092E-11 9.53965E-10
1.21847E-11 9.44390E-10
1.37554E-11 9.34369E-10
1.54213E-11 9.23932E-10
1.71823E-11 9.13110E-10
1.90386E-11 9.01928E-10
2.09900E-11 8.90416E-10
2.30367E-11 8.78628E-10
2.51785E-11 8.66672E-10
2.74156E-11 8.54417E-10
2.97478E-11 8.41889E-10
3.21752E-11 8.29110E-10
3.46979E-11 8.16105E-10
3.73157E-11 8.03172E-10
4.00286E-11 7.90177E-10
4.28368E-11 7.77027E-10
4.57402E-11 7.63744E-10
4.87388E-11 7.50349E-10
5.18325E-11 7.36974E-10
5.50215E-11 7.23873E-10
5.83057E-11 7.10718E-10
6.16850E-11 6.97526E-10
6.51595E-11 6.84316E-10
6.87293E-11 6.71104E-10
7.23943E-11 6.58291E-10
7.61544E-11 6.45609E-10
1.18991E-10 5.26156E-10
1.71347E-10 4.26779E-10
2.33223E-10 3.48358E-10
3.04617E-10 2.87554E-10
3.85531E-10 2.40543E-10
4.75965E-10 2.03849E-10
5.75917E-10 1.74734E-10
6.85389E-10 1.51186E-10
8.04380E-10 1.31759E-10
9.32891E-10 1.15483E-10
1.07092E-09 1.01674E-10
1.21847E-09 8.98432E-11
1.37554E-09 7.96327E-11
1.54213E-09 7.07700E-11
1.71823E-09 6.30371E-11
1.90386E-09 5.62850E-11
2.09900E-09 5.03758E-11
2.30367E-09 4.51334E-11
2.51785E-09 4.03116E-11
2.74156E-09 3.62215E-11
2.97478E-09 3.27312E-11
3.21752E-09 2.97355E-11
3.46978E-09 2.71501E-11
3.73156E-09 2.46727E-11
4.00286E-09 2.24328E-11
4.28368E-09 2.04838E-11
4.57402E-09 1.87801E-11
4.87388E-09 1.72845E-11
5.18326E-09 1.59307E-11
5.50215E-09 1.46322E-11
5.83057E-09 1.34840E-11
6.16850E-09 1.24651E-11
6.51596E-09 1.15579E-11
6.87293E-09 1.07474E-11
7.23942E-09 9.96414E-12
7.61544E-09 9.24759E-12
1.18991E-08 4.74515E-12
1.71347E-08 2.64236E-12
2.33223E-08 1.57189E-12
3.04617E-08 9.94989E-13
3.85531E-08 6.64253E-13
4.75965E-08 4.63140E-13
5.75917E-08 3.34284E-13
6.85389E-08 2.47553E-13
8.04380E-08 1.87328E-13
9.32891E-08 1.44313E-13
1.07092E-07 1.12827E-13
1.21847E-07 8.93447E-14
1.37554E-07 7.15832E-14
1.54213E-07 5.79842E-14
1.71823E-07 4.74444E-14
1.90386E-07 3.91832E-14
2.09900E-07 3.26372E-14
2.30367E-07 2.73973E-14
2.51785E-07 2.31633E-14
2.74156E-07 1.97393E-14
2.97478E-07 1.69108E-14
3.21752E-07 1.45842E-14
3.46978E-07 1.26393E-14
3.73156E-07 1.10129E-14
4.00286E-07 9.63956E-15
4.28368E-07 8.47513E-15
4.57402E-07 7.48223E-15
4.87388E-07 6.62985E-15
5.18325E-07 5.89711E-15
5.50215E-07 5.26147E-15
5.83057E-07 4.71103E-15
6.16850E-07 4.22898E-15
6.51596E-07 3.80843E-15
6.87293E-07 3.43777E-15
7.23942E-07 3.11180E-15
7.61543E-07 2.82312E-15
1.18991E-06 1.19150E-15
1.71347E-06 5.85041E-16
2.33223E-06 3.19548E-16
3.04617E-06 1.88898E-16
3.85531E-06 1.18697E-16
4.75964E-06 7.82873E-17
5.75916E-06 5.37055E-17
6.85388E-06 3.80605E-17
8.04378E-06 2.77203E-17
9.32888E-06 2.06651E-17
1.07092E-05 1.57180E-17
1.21846E-05 1.21662E-17
1.37553E-05 9.56300E-18
1.54212E-05 7.61993E-18
1.71822E-05 6.14597E-18
1.90385E-05 5.00961E-18
2.09899E-05 4.12736E-18
2.30365E-05 3.43050E-18
2.51783E-05 2.87403E-18
2.74153E-05 2.42539E-18
2.97475E-05 2.06066E-18
3.21749E-05 1.76189E-18
3.46974E-05 1.51542E-18
3.73152E-05 1.31069E-18
4.00281E-05 1.13947E-18
4.28362E-05 9.95353E-19
4.57395E-05 8.73293E-19
4.87380E-05 7.69332E-19
5.18317E-05 6.80335E-19
5.50205E-05 6.03800E-19
5.83045E-05 5.37708E-19
6.16838E-05 4.80411E-19
6.51582E-05 4.30553E-19
6.87277E-05 3.87006E-19
7.23925E-05 3.48834E-19
7.61524E-05 3.15360E-19
9.21439E-05 2.15395E-19
1.09658E-04 1.52050E-19
1.28695E-04 1.10369E-19
1.49255E-04 8.20240E-20
1.71338E-04 6.22198E-20
1.94942E-04 4.80422E-20
2.20070E-04 3.76795E-20
2.46720E-04 2.99642E-20
2.74892E-04 2.41243E-20
3.04586E-04 1.96393E-20
3.35803E-04 1.61486E-20
3.68542E-04 1.33994E-20
4.02802E-04 1.12105E-20
4.38585E-04 9.45028E-21
4.75889E-04 8.02200E-21
5.14715E-04 6.85327E-21
5.55063E-04 5.88955E-21
5.96931E-04 5.08920E-21
6.40321E-04 4.42007E-21
6.85233E-04 3.85723E-21
7.31665E-04 3.38104E-21
7.79618E-04 2.97598E-21
8.29092E-04 2.62970E-21
8.80086E-04 2.33224E-21
9.32601E-04 2.07560E-21
9.86636E-04 1.85324E-21
1.04219E-03 1.65979E-21
1.09927E-03 1.49089E-21
1.15786E-03 1.34289E-21
1.21797E-03 1.21275E-21
1.27961E-03 1.09796E-21
1.34276E-03 9.96402E-22
1.40743E-03 9.06283E-22
1.47362E-03 8.26096E-22
1.54133E-03 7.54557E-22
1.61056E-03 6.90572E-22
1.68131E-03 6.33205E-22
1.75357E-03 5.81652E-22
1.82735E-03 5.35222E-22
1.90265E-03 4.93317E-22
1.97947E-03 4.55417E-22
2.05780E-03 4.21074E-22
2.13765E-03 3.89895E-22
2.21902E-03 3.61537E-22
2.30190E-03 3.35699E-22
2.38630E-03 3.12116E-22
2.47222E-03 2.90557E-22
2.55965E-03 2.70819E-22
2.64859E-03 2.52720E-22
2.73905E-03 2.36101E-22
2.83103E-03 2.20817E-22
2.92452E-03 2.06744E-22
3.01952E-03 1.93768E-22
3.11604E-03 1.81788E-22
3.21407E-03 1.70714E-22
3.31362E-03 1.60465E-22
3.41468E-03 1.50969E-22
3.51725E-03 1.42161E-22
3.62133E-03 1.33981E-22
3.72692E-03 1.26377E-22
3.83403E-03 1.19301E-22
3.94265E-03 1.12709E-22
4.05278E-03 1.06564E-22
4.16442E-03 1.00828E-22
4.27757E-03 9.54695E-23
4.39223E-03 9.04596E-23
4.50840E-03 8.57713E-23
4.62608E-03 8.13802E-23
4.74527E-03 7.72641E-23
4.86597E-03 7.34026E-23
4.98817E-03 6.97771E-23
5.11188E-03 6.63705E-23
5.23711E-03 6.31673E-23
5.36383E-03 6.01531E-23
5.49207E-03 5.73148E-23
5.62181E-03 5.46401E-23
5.75306E-03 5.21180E-23
5.88581E-03 4.97382E-23
6.02007E-03 4.74912E-23
6.15583E-03 4.53682E-23
6.29310E-03 4.33611E-23
6.43187E-03 4.14625E-23
6.57214E-03 3.96654E-23
6.71392E-03 3.79635E-23
6.85720E-03 3.63507E-23
7.00198E-03 3.48216E-23
7.14827E-03 3.33709E-23
7.29605E-03 3.19940E-23
7.44534E-03 3.06865E-23
7.59612E-03 2.94441E-23
7.97965E-03 2.65989E-23
8.37255E-03 2.40845E-23
8.77480E-03 2.18562E-23
9.18641E-03 1.98758E-23
9.60736E-03 1.81113E-23
1.00376E-02 1.65352E-23
1.04773E-02 1.51240E-23
1.09262E-02 1.38575E-23
1.13844E-02 1.27184E-23
1.18520E-02 1.16918E-23
1.23288E-02 1.07647E-23
1.28150E-02 9.92578E-24
1.33104E-02 9.16529E-24
1.38150E-02 8.47465E-24
1.43290E-02 7.84639E-24
1.48521E-02 7.27391E-24
1.53845E-02 6.75143E-24
1.59262E-02 6.27385E-24
1.64770E-02 5.83667E-24
1.70371E-02 5.43590E-24
1.76063E-02 5.06799E-24
1.81848E-02 4.72981E-24
1.87724E-02 4.41855E-24
1.93692E-02 4.13170E-24
1.99751E-02 3.86705E-24
2.05901E-02 3.62257E-24
2.12143E-02 3.39648E-24
2.18476E-02 3.18717E-24
2.24900E-02 2.99318E-24
2.31415E-02 2.81321E-24
2.38021E-02 2.64607E-24
2.44717E-02 2.49071E-24
2.51504E-02 2.34615E-24
2.58382E-02 2.21152E-24
2.65349E-02 2.08603E-24
2.72407E-02 1.96895E-24
2.79555E-02 1.85963E-24
2.86793E-02 1.75747E-24
2.94120E-02 1.66193E-24
3.01537E-02 1.57251E-24
3.09043E-02 1.48874E-24
3.16639E-02 1.41023E-24
3.24324E-02 1.33658E-24
3.32098E-02 1.26744E-24
3.39961E-02 1.20250E-24
3.47912E-02 1.14146E-24
3.55952E-02 1.08405E-24
3.64081E-02 1.03001E-24
3.72297E-02 9.79126E-25
3.80602E-02 9.31174E-25
3.88995E-02 8.85962E-25
3.97476E-02 8.43309E-25
4.06044E-02 8.03048E-25
4.14700E-02 7.65023E-25
4.23443E-02 7.29091E-25
4.32273E-02 6.95119E-25
4.41190E-02 6.62983E-25
4.50194E-02 6.32570E-25
4.59284E-02 6.03773E-25
4.68461E-02 5.76493E-25
4.87074E-02 5.26121E-25
5.06030E-02 4.80793E-25
5.25328E-02 4.39932E-25
5.44967E-02 4.03038E-25
5.64946E-02 3.69671E-25
5.85262E-02 3.39448E-25
6.05914E-02 3.12032E-25
6.26901E-02 2.87128E-25
6.48222E-02 2.64474E-25
6.69873E-02 2.43841E-25
6.91854E-02 2.25024E-25
7.14163E-02 2.07843E-25
7.36799E-02 1.92137E-25
7.59760E-02 1.77763E-25
7.83043E-02 1.64594E-25
8.06647E-02 1.52516E-25
8.30571E-02 1.41428E-25
8.54812E-02 1.31239E-25
8.79369E-02 1.21867E-25
9.04240E-02 1.13238E-25
9.29422E-02 1.05287E-25
9.54915E-02 9.79541E-26
9.80716E-02 9.11859E-26
1.00682E-01 8.49338E-26
1.03323E-01 7.91540E-26
1.05995E-01 7.38069E-26
1.08696E-01 6.88565E-26
1.11427E-01 6.42702E-26
1.14188E-01 6.00183E-26
1.16978E-01 5.60739E-26
1.19797E-01 5.24124E-26
1.22645E-01 4.90115E-26
1.25522E-01 4.58507E-26
1.28428E-01 4.29113E-26
1.31361E-01 4.01764E-26
1.34323E-01 3.76302E-26
1.37313E-01 3.52586E-26
1.40330E-01 3.30485E-26
1.43375E-01 3.09878E-26
1.46447E-01 2.90655E-26
1.49545E-01 2.72714E-26
1.52671E-01 2.55964E-26
1.55823E-01 2.40316E-26
1.59001E-01 2.25694E-26
1.62205E-01 2.12024E-26
1.65435E-01 1.99238E-26
1.68690E-01 1.87275E-26
1.71970E-01 1.76078E-26
1.75276E-01 1.65594E-26
1.78606E-01 1.55774E-26
1.81961E-01 1.46572E-26
1.85340E-01 1.37947E-26
1.88743E-01 1.29860E-26
1.92169E-01 1.22274E-26
1.95619E-01 1.15157E-26
1.99092E-01 1.08478E-26
2.02589E-01 1.02208E-26
2.06107E-01 9.63192E-27
2.09649E-01 9.07880E-27
2.13212E-01 8.55910E-27
2.16797E-01 8.07067E-27
2.20404E-01 7.61150E-27
2.24032E-01 7.17973E-27
2.27680E-01 6.77364E-27
2.31350E-01 6.39160E-27
2.35040E-01 6.03210E-27
2.38751E-01 5.69374E-27
2.42481E-01 5.37520E-27
2.46231E-01 5.07526E-27
2.50000E-01 4.79277E-27
2.53788E-01 4.52667E-27
2.57595E-01 4.27595E-27
2.61421E-01 4.03967E-27
2.65264E-01 3.81697E-27
2.69126E-01 3.60703E-27
2.73005E-01 3.40907E-27
2.76901E-01 3.22239E-27
2.80814E-01 3.04630E-27
2.84744E-01 2.88019E-27
2.88691E-01 2.72346E-27
2.92653E-01 2.57555E-27
2.96632E-01 2.43595E-27
3.00625E-01 2.30417E-27
3.04634E-01 2.17976E-27
3.08658E-01 2.06228E-27
3.12697E-01 1.95134E-27
3.16749E-01 1.84655E-27
3.20816E-01 1.74756E-27
3.24896E-01 1.65405E-27
3.28990E-01 1.56568E-27
3.33097E-01 1.48218E-27
3.37216E-01 1.40326E-27
3.41348E-01 1.32866E-27
3.45492E-01 1.25814E-27
3.49647E-01 1.19147E-27
3.53814E-01 1.12842E-27
3.57992E-01 1.06880E-27
3.62181E-01 1.01242E-27
3.66381E-01 9.59087E-28
3.70590E-01 9.08637E-28
3.74810E-01 8.60909E-28
3.79039E-01 8.15751E-28
3.83277E-01 7.73020E-28
3.87524E-01 7.32583E-28
3.91780E-01 6.94313E-28
3.96044E-01 6.58089E-28
4.00316E-01 6.23801E-28
4.04596E-01 5.91341E-28
4.08882E-01 5.60609E-28
4.13176E-01 5.31511E-28
4.17476E-01 5.03958E-28
4.21783E-01 4.77865E-28
4.26095E-01 4.53154E-28
4.30413E-01 4.29748E-28
4.34737E-01 4.07578E-28
4.39065E-01 3.86577E-28
4.43398E-01 3.66681E-28
4.47736E-01 3.47831E-28
4.52077E-01 3.29970E-28
4.56422E-01 3.13046E-28
4.60770E-01 2.97008E-28
4.65122E-01 2.81809E-28
4.69476E-01 2.67404E-28
4.73832E-01 2.53750E-28
4.78190E-01 2.40808E-28
4.82550E-01 2.28539E-28
4.86912E-01 2.16908E-28
4.91274E-01 2.05881E-28
4.95637E-01 1.95426E-28
5.00000E-01 1.85512E-28
5.04363E-01 1.76111E-28
5.08726E-01 1.67196E-28
5.13088E-01 1.58742E-28
5.17450E-01 1.50723E-28
5.21810E-01 1.43117E-28
5.26168E-01 1.35903E-28
5.30524E-01 1.29059E-28
5.34878E-01 1.22567E-28
5.39230E-01 1.16408E-28
5.43578E-01 1.10564E-28
5.47923E-01 1.05020E-28
5.52264E-01 9.97587E-29
5.56602E-01 9.47663E-29
5.60935E-01 9.00286E-29
5.65263E-01 8.55324E-29
5.69587E-01 8.12652E-29
5.73905E-01 7.72150E-29
5.78217E-01 7.33706E-29
5.82524E-01 6.97213E-29
5.86824E-01 6.62571E-29
5.91118E-01 6.29685E-29
5.95404E-01 5.98462E-29
5.99684E-01 5.68818E-29
6.03956E-01 5.40672E-29
6.08220E-01 5.13946E-29
6.12476E-01 4.88567E-29
6.16723E-01 4.64466E-29
6.20961E-01 4.41577E-29
6.25190E-01 4.19839E-29
6.29410E-01 3.99193E-29
6.33619E-01 3.79582E-29
6.37819E-01 3.60954E-29
6.42008E-01 3.43258E-29
6.46186E-01 3.26448E-29
6.50353E-01 3.10477E-29
6.54508E-01 2.95304E-29
6.58652E-01 2.80887E-29
6.62784E-01 2.67188E-29
6.66903E-01 2.54171E-29
6.71010E-01 2.41801E-29
6.75104E-01 2.30045E-29
6.79184E-01 2.18873E-29
6.83251E-01 2.08254E-29
6.87303E-01 1.98162E-29
6.91342E-01 1.88568E-29
6.95366E-01 1.79448E-29
6.99375E-01 1.70779E-29
7.03368E-01 1.62537E-29
7.07347E-01 1.54701E-29
7.11309E-01 1.47250E-29
7.15256E-01 1.40166E-29
7.19186E-01 1.33430E-29
7.23099E-01 1.27024E-29
7.26995E-01 1.20932E-29
7.30874E-01 1.15138E-29
7.34736E-01 1.09627E-29
7.38579E-01 1.04385E-29
7.42405E-01 9.93995E-30
7.46212E-01 9.46566E-30
7.50000E-01 9.01445E-30
7.53769E-01 8.58517E-30
7.57519E-01 8.17674E-30
7.61249E-01 7.78812E-30
7.64960E-01 7.41833E-30
7.68650E-01 7.06643E-30
7.72320E-01 6.73154E-30
7.75968E-01 6.41282E-30
7.79596E-01 6.10946E-30
7.83203E-01 5.82071E-30
7.86788E-01 5.54585E-30
7.90351E-01 5.28419E-30
7.93893E-01 5.03508E-30
7.97411E-01 4.79791E-30
8.00908E-01 4.57209E-30
8.04381E-01 4.35706E-30
8.07831E-01 4.15230E-30
8.11257E-01 3.95729E-30
8.14660E-01 3.77156E-30
8.18039E-01 3.59467E-30
8.21394E-01 3.42617E-30
8.24724E-01 3.26565E-30
8.28030E-01 3.11274E-30
8.31310E-01 2.96705E-30
8.34565E-01 2.82824E-30
8.37795E-01 2.69597E-30
8.40999E-01 2.56993E-30
8.44177E-01 2.44980E-30
8.47329E-01 2.33532E-30
8.50455E-01 2.22620E-30
8.53553E-01 2.12218E-30
8.56625E-01 2.02303E-30
8.59670E-01 1.92849E-30
8.62687E-01 1.83836E-30
8.65677E-01 1.75242E-30
8.68639E-01 1.67047E-30
8.71572E-01 1.59231E-30
8.74478E-01 1.51777E-30
8.77355E-01 1.44667E-30
8.80203E-01 1.37886E-30
8.83022E-01 1.31416E-30
8.85812E-01 1.25244E-30
8.88573E-01 1.19355E-30
8.91304E-01 1.13736E-30
8.94005E-01 1.08374E-30
8.96677E-01 1.03257E-30
8.99318E-01 9.83726E-31
9.01928E-01 9.37108E-31
9.04508E-01 8.92609E-31
9.07058E-01 8.50128E-31
9.09576E-01 8.09571E-31
9.12063E-01 7.70848E-31
9.14519E-01 7.33874E-31
9.16943E-01 6.98565E-31
9.19335E-01 6.64846E-31
9.21696E-01 6.32643E-31
9.24024E-01 6.01884E-31
9.26320E-01 5.72504E-31
9.28584E-01 5.44438E-31
9.30815E-01 5.17627E-31
9.33013E-01 4.92013E-31
9.35178E-01 4.67541E-31
9.37310E-01 4.44159E-31
9.39409E-01 4.21817E-31
9.41474E-01 4.00468E-31
9.43505E-01 3.80068E-31
9.45503E-01 3.60574E-31
9.47467E-01 3.41944E-31
9.49397E-01 3.24141E-31
9.51293E-01 3.07128E-31
9.53154E-01 2.90869E-31
9.54981E-01 2.75331E-31
9.56773E-01 2.60483E-31
9.58530E-01 2.46294E-31
9.60252E-01 2.32736E-31
9.61940E-01 2.19781E-31
9.63592E-01 2.07404E-31
9.65209E-01 1.95580E-31
9.66790E-01 1.84285E-31
9.68336E-01 1.73497E-31
9.69846E-01 1.63194E-31
9.71321E-01 1.53357E-31
9.72759E-01 1.43967E-31
9.74162E-01 1.35004E-31
9.75528E-01 1.26452E-31
9.76858E-01 1.18295E-31
9.78152E-01 1.10516E-31
9.79410E-01 1.03101E-31
9.80631E-01 9.60356E-32
9.81815E-01 8.93066E-32
9.82963E-01 8.29013E-32
9.84074E-01 7.68075E-32
9.85148E-01 7.10141E-32
9.86185E-01 6.55101E-32
9.87185E-01 6.02854E-32
9.88148E-01 5.53303E-32
9.89074E-01 5.06357E-32
9.89962E-01 4.61930E-32
9.90814E-01 4.19940E-32
9.91627E-01 3.80312E-32
9.92404E-01 3.42974E-32
9.93143E-01 3.07858E-32
9.93844E-01 2.74900E-32
9.94508E-01 2.44042E-32
9.95134E-01 2.15228E-32
9.95722E-01 1.88408E-32
9.96273E-01 1.63532E-32
9.96786E-01 1.40558E-32
9.97261E-01 1.19443E-32
9.97698E-01 1.00152E-32
9.98097E-01 8.26495E-33
9.98459E-01 6.69046E-33
9.98782E-01 5.28909E-33
9.99067E-01 4.05826E-33
9.99315E-01 2.99587E-33
9.99524E-01 2.10005E-33
9.99695E-01 1.36922E-33
9.99829E-01 8.02121E-34
9.99924E-01 3.97759E-34
9.99981E-01 1.55424E-34
1.00000E+00 7.46732E-35
