 #
 # Subroutine ELSEPA. Elastic scattering of electrons and positrons
 #                    by neutral atoms and positive ions
 #
 # Projectile: positron
 # Kinetic energy = 1.25000E+07 eV = 4.59367E+05 a.u.
 #
 # WARNING: High-energy factorization with free-atom DF screening.
 #          Absorption, polarization and exchange corrections are
 #          switched off.
 #          Phase shifts are calculated for the bare nucleus.
 #          Scattering amplitudes are not evaluated.
 #
 # Element: Nd,  Z =  60,  atomic weight = 1.44240E+02 g/mol
 #
 # Nuclear model: Fermi distribution
 #                Average radius = 5.61150E-13 cm
 #                Skin thickness = 5.46000E-14 cm
 #
 # Number of electrons = 60
 #
 # Total elastic cross section = 7.27405E-18 cm**2 = 2.59761E-01 a0**2
 # 1st transport cross section = 3.14826E-23 cm**2 = 1.12426E-06 a0**2
 # 2nd transport cross section = 9.12862E-23 cm**2 = 3.25989E-06 a0**2
 #
 #
 # Differential cross section:                       MU=(1-COS(THETA))/2
 #
 #  THETA        MU          DCS          DCS        Sherman      error
 #  (deg)                 (cm**2/sr)   (a0**2/sr)    function
 #----------------------------------------------------------------------
0.00000E+00 1.72353E-11
7.61557E-13 1.72337E-11
1.18994E-12 1.72328E-11
1.71346E-12 1.72317E-11
2.33225E-12 1.72304E-11
3.04617E-12 1.72289E-11
3.85530E-12 1.72272E-11
4.75964E-12 1.72253E-11
5.75917E-12 1.72232E-11
6.85391E-12 1.72209E-11
8.04379E-12 1.72185E-11
9.32893E-12 1.72158E-11
1.07092E-11 1.72129E-11
1.21847E-11 1.72099E-11
1.37554E-11 1.72066E-11
1.54213E-11 1.72031E-11
1.71823E-11 1.71995E-11
1.90386E-11 1.71956E-11
2.09900E-11 1.71916E-11
2.30367E-11 1.71874E-11
2.51785E-11 1.71829E-11
2.74156E-11 1.71783E-11
2.97478E-11 1.71735E-11
3.21752E-11 1.71685E-11
3.46979E-11 1.71633E-11
3.73157E-11 1.71579E-11
4.00286E-11 1.71523E-11
4.28368E-11 1.71465E-11
4.57402E-11 1.71405E-11
4.87388E-11 1.71343E-11
5.18325E-11 1.71279E-11
5.50215E-11 1.71214E-11
5.83057E-11 1.71146E-11
6.16850E-11 1.71077E-11
6.51595E-11 1.71006E-11
6.87293E-11 1.70932E-11
7.23943E-11 1.70857E-11
7.61544E-11 1.70780E-11
1.18991E-10 1.69907E-11
1.71347E-10 1.68851E-11
2.33223E-10 1.67616E-11
3.04617E-10 1.66209E-11
3.85531E-10 1.64638E-11
4.75965E-10 1.62911E-11
5.75917E-10 1.61036E-11
6.85389E-10 1.59024E-11
8.04380E-10 1.56883E-11
9.32891E-10 1.54625E-11
1.07092E-09 1.52258E-11
1.21847E-09 1.49794E-11
1.37554E-09 1.47248E-11
1.54213E-09 1.44647E-11
1.71823E-09 1.41965E-11
1.90386E-09 1.39209E-11
2.09900E-09 1.36390E-11
2.30367E-09 1.33590E-11
2.51785E-09 1.30753E-11
2.74156E-09 1.27877E-11
2.97478E-09 1.24969E-11
3.21752E-09 1.22105E-11
3.46978E-09 1.19256E-11
3.73156E-09 1.16396E-11
4.00286E-09 1.13532E-11
4.28368E-09 1.10719E-11
4.57402E-09 1.07970E-11
4.87388E-09 1.05231E-11
5.18326E-09 1.02509E-11
5.50215E-09 9.98309E-12
5.83057E-09 9.72583E-12
6.16850E-09 9.47108E-12
6.51596E-09 9.21918E-12
6.87293E-09 8.97057E-12
7.23942E-09 8.73539E-12
7.61544E-09 8.50359E-12
1.18991E-08 6.49678E-12
1.71347E-08 5.03766E-12
2.33223E-08 3.99282E-12
3.04617E-08 3.23314E-12
3.85531E-08 2.66534E-12
4.75965E-08 2.22685E-12
5.75917E-08 1.87889E-12
6.85389E-08 1.59623E-12
8.04380E-08 1.36384E-12
9.32891E-08 1.17054E-12
1.07092E-07 1.00865E-12
1.21847E-07 8.72751E-13
1.37554E-07 7.57017E-13
1.54213E-07 6.54778E-13
1.71823E-07 5.71968E-13
1.90386E-07 5.04227E-13
2.09900E-07 4.48294E-13
2.30367E-07 3.95489E-13
2.51785E-07 3.50855E-13
2.74156E-07 3.13407E-13
2.97478E-07 2.81761E-13
3.21752E-07 2.52802E-13
3.46978E-07 2.27228E-13
3.73156E-07 2.05323E-13
4.00286E-07 1.86455E-13
4.28368E-07 1.69387E-13
4.57402E-07 1.53773E-13
4.87388E-07 1.40179E-13
5.18325E-07 1.28290E-13
5.50215E-07 1.17632E-13
5.83057E-07 1.07595E-13
6.16850E-07 9.87419E-14
6.51596E-07 9.09054E-14
6.87293E-07 8.39364E-14
7.23942E-07 7.72433E-14
7.61543E-07 7.12772E-14
1.18991E-06 3.44113E-14
1.71347E-06 1.84875E-14
2.33223E-06 1.08912E-14
3.04617E-06 6.89644E-15
3.85531E-06 4.59984E-15
4.75964E-06 3.18938E-15
5.75916E-06 2.27980E-15
6.85388E-06 1.66817E-15
8.04378E-06 1.24600E-15
9.32888E-06 9.48079E-16
1.07092E-05 7.33602E-16
1.21846E-05 5.76252E-16
1.37553E-05 4.58722E-16
1.54212E-05 3.69652E-16
1.71822E-05 3.01420E-16
1.90385E-05 2.48182E-16
2.09899E-05 2.06349E-16
2.30365E-05 1.73062E-16
2.51783E-05 1.46139E-16
2.74153E-05 1.24287E-16
2.97475E-05 1.06356E-16
3.21749E-05 9.15409E-17
3.46974E-05 7.92498E-17
3.73152E-05 6.89314E-17
4.00281E-05 6.02619E-17
4.28362E-05 5.29083E-17
4.57395E-05 4.66414E-17
4.87380E-05 4.12782E-17
5.18317E-05 3.66509E-17
5.50205E-05 3.26572E-17
5.83045E-05 2.91874E-17
6.16838E-05 2.61661E-17
6.51582E-05 2.35267E-17
6.87277E-05 2.12089E-17
7.23925E-05 1.91716E-17
7.61524E-05 1.73709E-17
9.21439E-05 1.19718E-17
1.09658E-04 8.51111E-18
1.28695E-04 6.21396E-18
1.49255E-04 4.64051E-18
1.71338E-04 3.53461E-18
1.94942E-04 2.73906E-18
2.20070E-04 2.15507E-18
2.46720E-04 1.71868E-18
2.74892E-04 1.38730E-18
3.04586E-04 1.13203E-18
3.35803E-04 9.32827E-19
3.68542E-04 7.75552E-19
4.02802E-04 6.50041E-19
4.38585E-04 5.48902E-19
4.75889E-04 4.66671E-19
5.14715E-04 3.99258E-19
5.55063E-04 3.43577E-19
5.96931E-04 2.97256E-19
6.40321E-04 2.58474E-19
6.85233E-04 2.25805E-19
7.31665E-04 1.98128E-19
7.79618E-04 1.74557E-19
8.29092E-04 1.54381E-19
8.80086E-04 1.37032E-19
9.32601E-04 1.22047E-19
9.86636E-04 1.09051E-19
1.04219E-03 9.77351E-20
1.09927E-03 8.78461E-20
1.15786E-03 7.91733E-20
1.21797E-03 7.15422E-20
1.27961E-03 6.48060E-20
1.34276E-03 5.88420E-20
1.40743E-03 5.35464E-20
1.47362E-03 4.88317E-20
1.54133E-03 4.46231E-20
1.61056E-03 4.08569E-20
1.68131E-03 3.74785E-20
1.75357E-03 3.44410E-20
1.82735E-03 3.17041E-20
1.90265E-03 2.92328E-20
1.97947E-03 2.69969E-20
2.05780E-03 2.49699E-20
2.13765E-03 2.31291E-20
2.21902E-03 2.14541E-20
2.30190E-03 1.99275E-20
2.38630E-03 1.85338E-20
2.47222E-03 1.72594E-20
2.55965E-03 1.60923E-20
2.64859E-03 1.50218E-20
2.73905E-03 1.40385E-20
2.83103E-03 1.31340E-20
2.92452E-03 1.23009E-20
3.01952E-03 1.15326E-20
3.11604E-03 1.08231E-20
3.21407E-03 1.01670E-20
3.31362E-03 9.55979E-21
3.41468E-03 8.99701E-21
3.51725E-03 8.47485E-21
3.62133E-03 7.98988E-21
3.72692E-03 7.53895E-21
3.83403E-03 7.11924E-21
3.94265E-03 6.72821E-21
4.05278E-03 6.36354E-21
4.16442E-03 6.02313E-21
4.27757E-03 5.70508E-21
4.39223E-03 5.40764E-21
4.50840E-03 5.12925E-21
4.62608E-03 4.86846E-21
4.74527E-03 4.62395E-21
4.86597E-03 4.39453E-21
4.98817E-03 4.17909E-21
5.11188E-03 3.97662E-21
5.23711E-03 3.78621E-21
5.36383E-03 3.60700E-21
5.49207E-03 3.43822E-21
5.62181E-03 3.27914E-21
5.75306E-03 3.12911E-21
5.88581E-03 2.98751E-21
6.02007E-03 2.85380E-21
6.15583E-03 2.72744E-21
6.29310E-03 2.60795E-21
6.43187E-03 2.49491E-21
6.57214E-03 2.38789E-21
6.71392E-03 2.28651E-21
6.85720E-03 2.19043E-21
7.00198E-03 2.09931E-21
7.14827E-03 2.01286E-21
7.29605E-03 1.93078E-21
7.44534E-03 1.85282E-21
7.59612E-03 1.77873E-21
7.97965E-03 1.60900E-21
8.37255E-03 1.45892E-21
8.77480E-03 1.32584E-21
9.18641E-03 1.20750E-21
9.60736E-03 1.10200E-21
1.00376E-02 1.00771E-21
1.04773E-02 9.23222E-22
1.09262E-02 8.47351E-22
1.13844E-02 7.79066E-22
1.18520E-02 7.17477E-22
1.23288E-02 6.61815E-22
1.28150E-02 6.11411E-22
1.33104E-02 5.65682E-22
1.38150E-02 5.24118E-22
1.43290E-02 4.86275E-22
1.48521E-02 4.51761E-22
1.53845E-02 4.20233E-22
1.59262E-02 3.91387E-22
1.64770E-02 3.64955E-22
1.70371E-02 3.40699E-22
1.76063E-02 3.18409E-22
1.81848E-02 2.97898E-22
1.87724E-02 2.78998E-22
1.93692E-02 2.61561E-22
1.99751E-02 2.45454E-22
2.05901E-02 2.30557E-22
2.12143E-02 2.16763E-22
2.18476E-02 2.03976E-22
2.24900E-02 1.92110E-22
2.31415E-02 1.81086E-22
2.38021E-02 1.70835E-22
2.44717E-02 1.61291E-22
2.51504E-02 1.52399E-22
2.58382E-02 1.44105E-22
2.65349E-02 1.36363E-22
2.72407E-02 1.29128E-22
2.79555E-02 1.22361E-22
2.86793E-02 1.16028E-22
2.94120E-02 1.10095E-22
3.01537E-02 1.04532E-22
3.09043E-02 9.93130E-23
3.16639E-02 9.44118E-23
3.24324E-02 8.98059E-23
3.32098E-02 8.54743E-23
3.39961E-02 8.13980E-23
3.47912E-02 7.75591E-23
3.55952E-02 7.39413E-23
3.64081E-02 7.05294E-23
3.72297E-02 6.73098E-23
3.80602E-02 6.42697E-23
3.88995E-02 6.13973E-23
3.97476E-02 5.86816E-23
4.06044E-02 5.61126E-23
4.14700E-02 5.36808E-23
4.23443E-02 5.13778E-23
4.32273E-02 4.91954E-23
4.41190E-02 4.71262E-23
4.50194E-02 4.51632E-23
4.59284E-02 4.33000E-23
4.68461E-02 4.15307E-23
4.87074E-02 3.82516E-23
5.06030E-02 3.52857E-23
5.25328E-02 3.25980E-23
5.44967E-02 3.01580E-23
5.64946E-02 2.79389E-23
5.85262E-02 2.59175E-23
6.05914E-02 2.40729E-23
6.26901E-02 2.23872E-23
6.48222E-02 2.08444E-23
6.69873E-02 1.94301E-23
6.91854E-02 1.81320E-23
7.14163E-02 1.69388E-23
7.36799E-02 1.58406E-23
7.59760E-02 1.48285E-23
7.83043E-02 1.38946E-23
8.06647E-02 1.30319E-23
8.30571E-02 1.22339E-23
8.54812E-02 1.14950E-23
8.79369E-02 1.08101E-23
9.04240E-02 1.01745E-23
9.29422E-02 9.58410E-24
9.54915E-02 9.03508E-24
9.80716E-02 8.52408E-24
1.00682E-01 8.04799E-24
1.03323E-01 7.60402E-24
1.05995E-01 7.18963E-24
1.08696E-01 6.80251E-24
1.11427E-01 6.44055E-24
1.14188E-01 6.10185E-24
1.16978E-01 5.78464E-24
1.19797E-01 5.48732E-24
1.22645E-01 5.20844E-24
1.25522E-01 4.94665E-24
1.28428E-01 4.70073E-24
1.31361E-01 4.46954E-24
1.34323E-01 4.25206E-24
1.37313E-01 4.04733E-24
1.40330E-01 3.85444E-24
1.43375E-01 3.67262E-24
1.46447E-01 3.50112E-24
1.49545E-01 3.33926E-24
1.52671E-01 3.18640E-24
1.55823E-01 3.04195E-24
1.59001E-01 2.90537E-24
1.62205E-01 2.77616E-24
1.65435E-01 2.65385E-24
1.68690E-01 2.53801E-24
1.71970E-01 2.42825E-24
1.75276E-01 2.32417E-24
1.78606E-01 2.22545E-24
1.81961E-01 2.13175E-24
1.85340E-01 2.04278E-24
1.88743E-01 1.95826E-24
1.92169E-01 1.87792E-24
1.95619E-01 1.80153E-24
1.99092E-01 1.72885E-24
2.02589E-01 1.65968E-24
2.06107E-01 1.59382E-24
2.09649E-01 1.53108E-24
2.13212E-01 1.47129E-24
2.16797E-01 1.41428E-24
2.20404E-01 1.35991E-24
2.24032E-01 1.30803E-24
2.27680E-01 1.25851E-24
2.31350E-01 1.21122E-24
2.35040E-01 1.16605E-24
2.38751E-01 1.12288E-24
2.42481E-01 1.08161E-24
2.46231E-01 1.04214E-24
2.50000E-01 1.00438E-24
2.53788E-01 9.68244E-25
2.57595E-01 9.33651E-25
2.61421E-01 9.00521E-25
2.65264E-01 8.68784E-25
2.69126E-01 8.38371E-25
2.73005E-01 8.09217E-25
2.76901E-01 7.81261E-25
2.80814E-01 7.54445E-25
2.84744E-01 7.28716E-25
2.88691E-01 7.04022E-25
2.92653E-01 6.80313E-25
2.96632E-01 6.57545E-25
3.00625E-01 6.35674E-25
3.04634E-01 6.14657E-25
3.08658E-01 5.94457E-25
3.12697E-01 5.75036E-25
3.16749E-01 5.56360E-25
3.20816E-01 5.38394E-25
3.24896E-01 5.21107E-25
3.28990E-01 5.04470E-25
3.33097E-01 4.88453E-25
3.37216E-01 4.73030E-25
3.41348E-01 4.58176E-25
3.45492E-01 4.43865E-25
3.49647E-01 4.30074E-25
3.53814E-01 4.16782E-25
3.57992E-01 4.03967E-25
3.62181E-01 3.91610E-25
3.66381E-01 3.79691E-25
3.70590E-01 3.68192E-25
3.74810E-01 3.57097E-25
3.79039E-01 3.46388E-25
3.83277E-01 3.36049E-25
3.87524E-01 3.26067E-25
3.91780E-01 3.16427E-25
3.96044E-01 3.07114E-25
4.00316E-01 2.98116E-25
4.04596E-01 2.89422E-25
4.08882E-01 2.81017E-25
4.13176E-01 2.72893E-25
4.17476E-01 2.65037E-25
4.21783E-01 2.57440E-25
4.26095E-01 2.50090E-25
4.30413E-01 2.42981E-25
4.34737E-01 2.36101E-25
4.39065E-01 2.29442E-25
4.43398E-01 2.22997E-25
4.47736E-01 2.16756E-25
4.52077E-01 2.10714E-25
4.56422E-01 2.04861E-25
4.60770E-01 1.99192E-25
4.65122E-01 1.93700E-25
4.69476E-01 1.88378E-25
4.73832E-01 1.83221E-25
4.78190E-01 1.78222E-25
4.82550E-01 1.73375E-25
4.86912E-01 1.68676E-25
4.91274E-01 1.64119E-25
4.95637E-01 1.59699E-25
5.00000E-01 1.55411E-25
5.04363E-01 1.51252E-25
5.08726E-01 1.47215E-25
5.13088E-01 1.43298E-25
5.17450E-01 1.39496E-25
5.21810E-01 1.35805E-25
5.26168E-01 1.32222E-25
5.30524E-01 1.28742E-25
5.34878E-01 1.25363E-25
5.39230E-01 1.22081E-25
5.43578E-01 1.18893E-25
5.47923E-01 1.15795E-25
5.52264E-01 1.12785E-25
5.56602E-01 1.09860E-25
5.60935E-01 1.07017E-25
5.65263E-01 1.04254E-25
5.69587E-01 1.01567E-25
5.73905E-01 9.89555E-26
5.78217E-01 9.64156E-26
5.82524E-01 9.39456E-26
5.86824E-01 9.15431E-26
5.91118E-01 8.92062E-26
5.95404E-01 8.69327E-26
5.99684E-01 8.47206E-26
6.03956E-01 8.25681E-26
6.08220E-01 8.04734E-26
6.12476E-01 7.84346E-26
6.16723E-01 7.64500E-26
6.20961E-01 7.45181E-26
6.25190E-01 7.26372E-26
6.29410E-01 7.08057E-26
6.33619E-01 6.90222E-26
6.37819E-01 6.72853E-26
6.42008E-01 6.55936E-26
6.46186E-01 6.39457E-26
6.50353E-01 6.23403E-26
6.54508E-01 6.07762E-26
6.58652E-01 5.92523E-26
6.62784E-01 5.77672E-26
6.66903E-01 5.63199E-26
6.71010E-01 5.49094E-26
6.75104E-01 5.35345E-26
6.79184E-01 5.21942E-26
6.83251E-01 5.08876E-26
6.87303E-01 4.96137E-26
6.91342E-01 4.83716E-26
6.95366E-01 4.71603E-26
6.99375E-01 4.59791E-26
7.03368E-01 4.48271E-26
7.07347E-01 4.37034E-26
7.11309E-01 4.26073E-26
7.15256E-01 4.15380E-26
7.19186E-01 4.04949E-26
7.23099E-01 3.94771E-26
7.26995E-01 3.84840E-26
7.30874E-01 3.75150E-26
7.34736E-01 3.65693E-26
7.38579E-01 3.56464E-26
7.42405E-01 3.47456E-26
7.46212E-01 3.38664E-26
7.50000E-01 3.30082E-26
7.53769E-01 3.21704E-26
7.57519E-01 3.13526E-26
7.61249E-01 3.05541E-26
7.64960E-01 2.97744E-26
7.68650E-01 2.90132E-26
7.72320E-01 2.82699E-26
7.75968E-01 2.75440E-26
7.79596E-01 2.68351E-26
7.83203E-01 2.61428E-26
7.86788E-01 2.54667E-26
7.90351E-01 2.48063E-26
7.93893E-01 2.41613E-26
7.97411E-01 2.35312E-26
8.00908E-01 2.29157E-26
8.04381E-01 2.23144E-26
8.07831E-01 2.17271E-26
8.11257E-01 2.11532E-26
8.14660E-01 2.05926E-26
8.18039E-01 2.00449E-26
8.21394E-01 1.95097E-26
8.24724E-01 1.89868E-26
8.28030E-01 1.84758E-26
8.31310E-01 1.79766E-26
8.34565E-01 1.74888E-26
8.37795E-01 1.70121E-26
8.40999E-01 1.65463E-26
8.44177E-01 1.60911E-26
8.47329E-01 1.56463E-26
8.50455E-01 1.52116E-26
8.53553E-01 1.47868E-26
8.56625E-01 1.43717E-26
8.59670E-01 1.39661E-26
8.62687E-01 1.35696E-26
8.65677E-01 1.31822E-26
8.68639E-01 1.28037E-26
8.71572E-01 1.24337E-26
8.74478E-01 1.20722E-26
8.77355E-01 1.17190E-26
8.80203E-01 1.13738E-26
8.83022E-01 1.10365E-26
8.85812E-01 1.07069E-26
8.88573E-01 1.03849E-26
8.91304E-01 1.00702E-26
8.94005E-01 9.76281E-27
8.96677E-01 9.46248E-27
8.99318E-01 9.16908E-27
9.01928E-01 8.88246E-27
9.04508E-01 8.60249E-27
9.07058E-01 8.32903E-27
9.09576E-01 8.06194E-27
9.12063E-01 7.80110E-27
9.14519E-01 7.54637E-27
9.16943E-01 7.29764E-27
9.19335E-01 7.05478E-27
9.21696E-01 6.81769E-27
9.24024E-01 6.58624E-27
9.26320E-01 6.36033E-27
9.28584E-01 6.13986E-27
9.30815E-01 5.92471E-27
9.33013E-01 5.71479E-27
9.35178E-01 5.51000E-27
9.37310E-01 5.31025E-27
9.39409E-01 5.11544E-27
9.41474E-01 4.92548E-27
9.43505E-01 4.74029E-27
9.45503E-01 4.55978E-27
9.47467E-01 4.38387E-27
9.49397E-01 4.21249E-27
9.51293E-01 4.04554E-27
9.53154E-01 3.88296E-27
9.54981E-01 3.72468E-27
9.56773E-01 3.57062E-27
9.58530E-01 3.42071E-27
9.60252E-01 3.27489E-27
9.61940E-01 3.13309E-27
9.63592E-01 2.99526E-27
9.65209E-01 2.86132E-27
9.66790E-01 2.73123E-27
9.68336E-01 2.60492E-27
9.69846E-01 2.48234E-27
9.71321E-01 2.36343E-27
9.72759E-01 2.24815E-27
9.74162E-01 2.13644E-27
9.75528E-01 2.02826E-27
9.76858E-01 1.92356E-27
9.78152E-01 1.82229E-27
9.79410E-01 1.72441E-27
9.80631E-01 1.62988E-27
9.81815E-01 1.53865E-27
9.82963E-01 1.45070E-27
9.84074E-01 1.36598E-27
9.85148E-01 1.28445E-27
9.86185E-01 1.20608E-27
9.87185E-01 1.13085E-27
9.88148E-01 1.05870E-27
9.89074E-01 9.89628E-28
9.89962E-01 9.23588E-28
9.90814E-01 8.60558E-28
9.91627E-01 8.00510E-28
9.92404E-01 7.43420E-28
9.93143E-01 6.89263E-28
9.93844E-01 6.38017E-28
9.94508E-01 5.89661E-28
9.95134E-01 5.44173E-28
9.95722E-01 5.01537E-28
9.96273E-01 4.61733E-28
9.96786E-01 4.24745E-28
9.97261E-01 3.90559E-28
9.97698E-01 3.59159E-28
9.98097E-01 3.30532E-28
9.98459E-01 3.04668E-28
9.98782E-01 2.81554E-28
9.99067E-01 2.61183E-28
9.99315E-01 2.43544E-28
9.99524E-01 2.28632E-28
9.99695E-01 2.16439E-28
9.99829E-01 2.06961E-28
9.99924E-01 2.00193E-28
9.99981E-01 1.96134E-28
1.00000E+00 1.94781E-28
