 #
 # Subroutine ELSEPA. Elastic scattering of electrons and positrons
 #                    by neutral atoms and positive ions
 #
 # Projectile: positron
 # Kinetic energy = 4.50000E+08 eV = 1.65372E+07 a.u.
 #
 # WARNING: High-energy factorization with free-atom DF screening.
 #          Absorption, polarization and exchange corrections are
 #          switched off.
 #          Phase shifts are calculated for the bare nucleus.
 #          Scattering amplitudes are not evaluated.
 #
 # Element: Nd,  Z =  60,  atomic weight = 1.44240E+02 g/mol
 #
 # Nuclear model: Fermi distribution
 #                Average radius = 5.61150E-13 cm
 #                Skin thickness = 5.46000E-14 cm
 #
 # Number of electrons = 60
 #
 # Total elastic cross section = 7.25527E-18 cm**2 = 2.59091E-01 a0**2
 # 1st transport cross section = 3.41582E-26 cm**2 = 1.21981E-09 a0**2
 # 2nd transport cross section = 1.02424E-25 cm**2 = 3.65763E-09 a0**2
 #
 #
 # Differential cross section:                       MU=(1-COS(THETA))/2
 #
 #  THETA        MU          DCS          DCS        Sherman      error
 #  (deg)                 (cm**2/sr)   (a0**2/sr)    function
 #----------------------------------------------------------------------
0.00000E+00 2.06637E-08
7.61557E-13 1.85771E-08
1.18994E-12 1.75537E-08
1.71346E-12 1.64238E-08
2.33225E-12 1.52429E-08
3.04617E-12 1.40511E-08
3.85530E-12 1.28839E-08
4.75964E-12 1.17682E-08
5.75917E-12 1.07224E-08
6.85391E-12 9.76483E-09
8.04379E-12 8.89299E-09
9.32893E-12 8.10491E-09
1.07092E-11 7.39740E-09
1.21847E-11 6.76518E-09
1.37554E-11 6.20283E-09
1.54213E-11 5.70437E-09
1.71823E-11 5.25955E-09
1.90386E-11 4.86215E-09
2.09900E-11 4.50648E-09
2.30367E-11 4.18736E-09
2.51785E-11 3.90040E-09
2.74156E-11 3.64085E-09
2.97478E-11 3.40513E-09
3.21752E-11 3.19035E-09
3.46979E-11 2.99400E-09
3.73157E-11 2.81389E-09
4.00286E-11 2.64762E-09
4.28368E-11 2.49406E-09
4.57402E-11 2.35188E-09
4.87388E-11 2.21995E-09
5.18325E-11 2.09727E-09
5.50215E-11 1.98269E-09
5.83057E-11 1.87545E-09
6.16850E-11 1.77523E-09
6.51595E-11 1.68146E-09
6.87293E-11 1.59361E-09
7.23943E-11 1.51123E-09
7.61544E-11 1.43353E-09
1.18991E-10 8.64944E-10
1.71347E-10 5.50650E-10
2.33223E-10 3.65565E-10
3.04617E-10 2.53200E-10
3.85531E-10 1.81240E-10
4.75965E-10 1.33090E-10
5.75917E-10 9.97073E-11
6.85389E-10 7.56989E-11
8.04380E-10 5.83642E-11
9.32891E-10 4.56625E-11
1.07092E-09 3.62113E-11
1.21847E-09 2.90834E-11
1.37554E-09 2.36361E-11
1.54213E-09 1.94206E-11
1.71823E-09 1.61300E-11
1.90386E-09 1.35286E-11
2.09900E-09 1.14477E-11
2.30367E-09 9.76456E-12
2.51785E-09 8.38617E-12
2.74156E-09 7.24960E-12
2.97478E-09 6.30062E-12
3.21752E-09 5.50309E-12
3.46978E-09 4.82951E-12
3.73156E-09 4.25682E-12
4.00286E-09 3.76557E-12
4.28368E-09 3.34319E-12
4.57402E-09 2.97808E-12
4.87388E-09 2.66097E-12
5.18326E-09 2.38434E-12
5.50215E-09 2.14179E-12
5.83057E-09 1.92851E-12
6.16850E-09 1.74075E-12
6.51596E-09 1.57502E-12
6.87293E-09 1.42834E-12
7.23942E-09 1.29820E-12
7.61544E-09 1.18229E-12
1.18991E-08 5.13338E-13
1.71347E-08 2.57856E-13
2.33223E-08 1.43630E-13
3.04617E-08 8.62977E-14
3.85531E-08 5.49276E-14
4.75965E-08 3.65887E-14
5.75917E-08 2.52912E-14
6.85389E-08 1.80282E-14
8.04380E-08 1.31902E-14
9.32891E-08 9.86881E-15
1.07092E-07 7.52871E-15
1.21847E-07 5.84221E-15
1.37554E-07 4.60230E-15
1.54213E-07 3.67445E-15
1.71823E-07 2.96906E-15
1.90386E-07 2.42511E-15
2.09900E-07 2.00026E-15
2.30367E-07 1.66453E-15
2.51785E-07 1.39641E-15
2.74156E-07 1.18019E-15
2.97478E-07 1.00426E-15
3.21752E-07 8.59938E-16
3.46978E-07 7.40644E-16
3.73156E-07 6.41343E-16
4.00286E-07 5.58145E-16
4.28368E-07 4.88012E-16
4.57402E-07 4.28558E-16
4.87388E-07 3.77889E-16
5.18325E-07 3.34491E-16
5.50215E-07 2.97147E-16
5.83057E-07 2.64871E-16
6.16850E-07 2.36861E-16
6.51596E-07 2.12455E-16
6.87293E-07 1.91112E-16
7.23942E-07 1.72383E-16
7.61543E-07 1.55891E-16
1.18991E-06 6.41897E-17
1.71347E-06 3.10501E-17
2.33223E-06 1.67910E-17
3.04617E-06 9.85400E-18
3.85531E-06 6.15636E-18
4.75964E-06 4.04112E-18
5.75916E-06 2.76098E-18
6.85388E-06 1.94980E-18
8.04378E-06 1.41575E-18
9.32888E-06 1.05261E-18
1.07092E-05 7.98753E-19
1.21846E-05 6.16996E-19
1.37553E-05 4.84108E-19
1.54212E-05 3.85134E-19
1.71822E-05 3.10204E-19
1.90385E-05 2.52538E-19
2.09899E-05 2.07836E-19
2.30365E-05 1.72580E-19
2.51783E-05 1.44460E-19
2.74153E-05 1.21815E-19
2.97475E-05 1.03426E-19
3.21749E-05 8.83757E-20
3.46974E-05 7.59707E-20
3.73152E-05 6.56740E-20
4.00281E-05 5.70689E-20
4.28362E-05 4.98302E-20
4.57395E-05 4.37033E-20
4.87380E-05 3.84875E-20
5.18317E-05 3.40245E-20
5.50205E-05 3.01883E-20
5.83045E-05 2.68769E-20
6.16838E-05 2.40072E-20
6.51582E-05 2.15109E-20
6.87277E-05 1.93313E-20
7.23925E-05 1.74213E-20
7.61524E-05 1.58246E-20
9.21439E-05 1.08043E-20
1.09658E-04 7.62388E-21
1.28695E-04 5.53120E-21
1.49255E-04 4.10812E-21
1.71338E-04 3.11382E-21
1.94942E-04 2.40202E-21
2.20070E-04 1.88176E-21
2.46720E-04 1.49446E-21
2.74892E-04 1.20133E-21
3.04586E-04 9.76254E-22
3.35803E-04 8.01129E-22
3.68542E-04 6.63258E-22
4.02802E-04 5.53538E-22
4.38585E-04 4.65359E-22
4.75889E-04 3.93859E-22
5.14715E-04 3.35399E-22
5.55063E-04 2.87240E-22
5.96931E-04 2.47286E-22
6.40321E-04 2.13924E-22
6.85233E-04 1.85898E-22
7.31665E-04 1.62221E-22
7.79618E-04 1.42114E-22
8.29092E-04 1.24954E-22
8.80086E-04 1.10241E-22
9.32601E-04 9.75731E-23
9.86636E-04 8.66206E-23
1.04219E-03 7.71151E-23
1.09927E-03 6.88358E-23
1.15786E-03 6.15998E-23
1.21797E-03 5.52553E-23
1.27961E-03 4.96754E-23
1.34276E-03 4.47538E-23
1.40743E-03 4.04008E-23
1.47362E-03 3.65408E-23
1.54133E-03 3.31093E-23
1.61056E-03 3.00517E-23
1.68131E-03 2.73210E-23
1.75357E-03 2.48770E-23
1.82735E-03 2.26852E-23
1.90265E-03 2.07156E-23
1.97947E-03 1.89425E-23
2.05780E-03 1.73433E-23
2.13765E-03 1.58986E-23
2.21902E-03 1.45913E-23
2.30190E-03 1.34064E-23
2.38630E-03 1.23308E-23
2.47222E-03 1.13531E-23
2.55965E-03 1.04632E-23
2.64859E-03 9.65199E-24
2.73905E-03 8.91165E-24
2.83103E-03 8.23514E-24
2.92452E-03 7.61622E-24
3.01952E-03 7.04935E-24
3.11604E-03 6.52959E-24
3.21407E-03 6.05251E-24
3.31362E-03 5.61417E-24
3.41468E-03 5.21103E-24
3.51725E-03 4.83991E-24
3.62133E-03 4.49797E-24
3.72692E-03 4.18262E-24
3.83403E-03 3.89157E-24
3.94265E-03 3.62271E-24
4.05278E-03 3.37417E-24
4.16442E-03 3.14423E-24
4.27757E-03 2.93135E-24
4.39223E-03 2.73412E-24
4.50840E-03 2.55127E-24
4.62608E-03 2.38165E-24
4.74527E-03 2.22419E-24
4.86597E-03 2.07793E-24
4.98817E-03 1.94201E-24
5.11188E-03 1.81561E-24
5.23711E-03 1.69800E-24
5.36383E-03 1.58853E-24
5.49207E-03 1.48656E-24
5.62181E-03 1.39155E-24
5.75306E-03 1.30298E-24
5.88581E-03 1.22037E-24
6.02007E-03 1.14328E-24
6.15583E-03 1.07133E-24
6.29310E-03 1.00413E-24
6.43187E-03 9.41353E-25
6.57214E-03 8.82685E-25
6.71392E-03 8.27836E-25
6.85720E-03 7.76539E-25
7.00198E-03 7.28550E-25
7.14827E-03 6.83640E-25
7.29605E-03 6.41598E-25
7.44534E-03 6.02231E-25
7.59612E-03 5.65357E-25
7.97965E-03 4.83015E-25
8.37255E-03 4.12944E-25
8.77480E-03 3.53234E-25
9.18641E-03 3.02289E-25
9.60736E-03 2.58776E-25
1.00376E-02 2.21576E-25
1.04773E-02 1.89748E-25
1.09262E-02 1.62498E-25
1.13844E-02 1.39154E-25
1.18520E-02 1.19149E-25
1.23288E-02 1.02000E-25
1.28150E-02 8.72962E-26
1.33104E-02 7.46877E-26
1.38150E-02 6.38763E-26
1.43290E-02 5.46069E-26
1.48521E-02 4.66613E-26
1.53845E-02 3.98525E-26
1.59262E-02 3.40202E-26
1.64770E-02 2.90267E-26
1.70371E-02 2.47539E-26
1.76063E-02 2.11000E-26
1.81848E-02 1.79778E-26
1.87724E-02 1.53118E-26
1.93692E-02 1.30375E-26
1.99751E-02 1.10991E-26
2.05901E-02 9.44848E-27
2.12143E-02 8.04443E-27
2.18476E-02 6.85134E-27
2.24900E-02 5.83861E-27
2.31415E-02 4.97989E-27
2.38021E-02 4.25253E-27
2.44717E-02 3.63708E-27
2.51504E-02 3.11682E-27
2.58382E-02 2.67742E-27
2.65349E-02 2.30657E-27
2.72407E-02 1.99377E-27
2.79555E-02 1.73002E-27
2.86793E-02 1.50763E-27
2.94120E-02 1.32007E-27
3.01537E-02 1.16175E-27
3.09043E-02 1.02795E-27
3.16639E-02 9.14660E-28
3.24324E-02 8.18480E-28
3.32098E-02 7.36553E-28
3.39961E-02 6.66472E-28
3.47912E-02 6.06217E-28
3.55952E-02 5.54099E-28
3.64081E-02 5.08712E-28
3.72297E-02 4.68887E-28
3.80602E-02 4.33657E-28
3.88995E-02 4.02227E-28
3.97476E-02 3.73945E-28
4.06044E-02 3.48280E-28
4.14700E-02 3.24801E-28
4.23443E-02 3.03159E-28
4.32273E-02 2.83077E-28
4.41190E-02 2.64332E-28
4.50194E-02 2.46750E-28
4.59284E-02 2.30193E-28
4.68461E-02 2.14553E-28
4.87074E-02 1.85713E-28
5.06030E-02 1.59767E-28
5.25328E-02 1.36438E-28
5.44967E-02 1.15549E-28
5.64946E-02 9.69728E-29
5.85262E-02 8.05941E-29
6.05914E-02 6.62954E-29
6.26901E-02 5.39474E-29
6.48222E-02 4.34071E-29
6.69873E-02 3.45200E-29
6.91854E-02 2.71233E-29
7.14163E-02 2.10508E-29
7.36799E-02 1.61377E-29
7.59760E-02 1.22241E-29
7.83043E-02 9.15907E-30
8.06647E-02 6.80287E-30
8.30571E-02 5.02872E-30
8.54812E-02 3.72387E-30
8.79369E-02 2.78990E-30
9.04240E-02 2.14248E-30
9.29422E-02 1.71073E-30
9.54915E-02 1.43626E-30
9.80716E-02 1.27197E-30
1.00682E-01 1.18080E-30
1.03323E-01 1.13434E-30
1.05995E-01 1.11157E-30
1.08696E-01 1.09758E-30
1.11427E-01 1.08238E-30
1.14188E-01 1.05990E-30
1.16978E-01 1.02706E-30
1.19797E-01 9.82960E-31
1.22645E-01 9.28227E-31
1.25522E-01 8.64493E-31
1.28428E-01 7.93948E-31
1.31361E-01 7.19015E-31
1.34323E-01 6.42107E-31
1.37313E-01 5.65459E-31
1.40330E-01 4.91016E-31
1.43375E-01 4.20371E-31
1.46447E-01 3.54748E-31
1.49545E-01 2.95002E-31
1.52671E-01 2.41647E-31
1.55823E-01 1.94897E-31
1.59001E-01 1.54708E-31
1.62205E-01 1.20829E-31
1.65435E-01 9.28540E-32
1.68690E-01 7.02639E-32
1.71970E-01 5.24699E-32
1.75276E-01 3.88493E-32
1.78606E-01 2.87753E-32
1.81961E-01 2.16410E-32
1.85340E-01 1.68775E-32
1.88743E-01 1.39665E-32
1.92169E-01 1.24484E-32
1.95619E-01 1.19262E-32
1.99092E-01 1.20664E-32
2.02589E-01 1.25967E-32
2.06107E-01 1.33025E-32
2.09649E-01 1.40213E-32
2.13212E-01 1.46366E-32
2.16797E-01 1.50715E-32
2.20404E-01 1.52818E-32
2.24032E-01 1.52502E-32
2.27680E-01 1.49795E-32
2.31350E-01 1.44880E-32
2.35040E-01 1.38041E-32
2.38751E-01 1.29627E-32
2.42481E-01 1.20015E-32
2.46231E-01 1.09589E-32
2.50000E-01 9.87118E-33
2.53788E-01 8.77160E-33
2.57595E-01 7.68919E-33
2.61421E-01 6.64827E-33
2.65264E-01 5.66817E-33
2.69126E-01 4.76333E-33
2.73005E-01 3.94359E-33
2.76901E-01 3.21455E-33
2.80814E-01 2.57815E-33
2.84744E-01 2.03322E-33
2.88691E-01 1.57605E-33
2.92653E-01 1.20098E-33
2.96632E-01 9.00956E-34
3.00625E-01 6.67999E-34
3.04634E-01 4.93649E-34
3.08658E-01 3.69336E-34
3.12697E-01 2.86677E-34
3.16749E-01 2.37717E-34
3.20816E-01 2.15108E-34
3.24896E-01 2.12230E-34
3.28990E-01 2.23260E-34
3.33097E-01 2.43212E-34
3.37216E-01 2.67927E-34
3.41348E-01 2.94044E-34
3.45492E-01 3.18948E-34
3.49647E-01 3.40703E-34
3.53814E-01 3.57977E-34
3.57992E-01 3.69957E-34
3.62181E-01 3.76266E-34
3.66381E-01 3.76888E-34
3.70590E-01 3.72081E-34
3.74810E-01 3.62317E-34
3.79039E-01 3.48212E-34
3.83277E-01 3.30472E-34
3.87524E-01 3.09846E-34
3.91780E-01 2.87091E-34
3.96044E-01 2.62934E-34
4.00316E-01 2.38056E-34
4.04596E-01 2.13069E-34
4.08882E-01 1.88506E-34
4.13176E-01 1.64821E-34
4.17476E-01 1.42378E-34
4.21783E-01 1.21458E-34
4.26095E-01 1.02265E-34
4.30413E-01 8.49262E-35
4.34737E-01 6.95061E-35
4.39065E-01 5.60106E-35
4.43398E-01 4.43978E-35
4.47736E-01 3.45865E-35
4.52077E-01 2.64649E-35
4.56422E-01 1.98984E-35
4.60770E-01 1.47373E-35
4.65122E-01 1.08230E-35
4.69476E-01 7.99376E-36
4.73832E-01 6.08992E-36
4.78190E-01 4.95716E-36
4.82550E-01 4.45009E-36
4.86912E-01 4.43444E-36
4.91274E-01 4.78836E-36
4.95637E-01 5.40383E-36
5.00000E-01 6.18676E-36
5.04363E-01 7.05704E-36
5.08726E-01 7.94827E-36
5.13088E-01 8.80677E-36
5.17450E-01 9.59087E-36
5.21810E-01 1.02700E-35
5.26168E-01 1.08227E-35
5.30524E-01 1.12366E-35
5.34878E-01 1.15061E-35
5.39230E-01 1.16318E-35
5.43578E-01 1.16191E-35
5.47923E-01 1.14772E-35
5.52264E-01 1.12181E-35
5.56602E-01 1.08557E-35
5.60935E-01 1.04053E-35
5.65263E-01 9.88246E-36
5.69587E-01 9.30280E-36
5.73905E-01 8.68156E-36
5.78217E-01 8.03301E-36
5.82524E-01 7.37047E-36
5.86824E-01 6.70583E-36
5.91118E-01 6.04966E-36
5.95404E-01 5.41106E-36
5.99684E-01 4.79762E-36
6.03956E-01 4.21550E-36
6.08220E-01 3.66946E-36
6.12476E-01 3.16302E-36
6.16723E-01 2.69842E-36
6.20961E-01 2.27686E-36
6.25190E-01 1.89865E-36
6.29410E-01 1.56321E-36
6.33619E-01 1.26934E-36
6.37819E-01 1.01523E-36
6.42008E-01 7.98645E-37
6.46186E-01 6.17039E-37
6.50353E-01 4.67596E-37
6.54508E-01 3.47383E-37
6.58652E-01 2.53386E-37
6.62784E-01 1.82600E-37
6.66903E-01 1.32083E-37
6.71010E-01 9.89923E-38
6.75104E-01 8.06347E-38
6.79184E-01 7.44794E-38
6.83251E-01 7.82093E-38
6.87303E-01 8.96695E-38
6.91342E-01 1.06979E-37
6.95366E-01 1.28398E-37
6.99375E-01 1.52472E-37
7.03368E-01 1.77884E-37
7.07347E-01 2.03592E-37
7.11309E-01 2.28656E-37
7.15256E-01 2.52386E-37
7.19186E-01 2.74153E-37
7.23099E-01 2.93572E-37
7.26995E-01 3.10316E-37
7.30874E-01 3.24208E-37
7.34736E-01 3.35156E-37
7.38579E-01 3.43128E-37
7.42405E-01 3.48179E-37
7.46212E-01 3.50445E-37
7.50000E-01 3.50060E-37
7.53769E-01 3.47234E-37
7.57519E-01 3.42161E-37
7.61249E-01 3.35075E-37
7.64960E-01 3.26232E-37
7.68650E-01 3.15851E-37
7.72320E-01 3.04193E-37
7.75968E-01 2.91475E-37
7.79596E-01 2.77931E-37
7.83203E-01 2.63764E-37
7.86788E-01 2.49176E-37
7.90351E-01 2.34361E-37
7.93893E-01 2.19453E-37
7.97411E-01 2.04626E-37
8.00908E-01 1.89996E-37
8.04381E-01 1.75668E-37
8.07831E-01 1.61760E-37
8.11257E-01 1.48334E-37
8.14660E-01 1.35464E-37
8.18039E-01 1.23191E-37
8.21394E-01 1.11567E-37
8.24724E-01 1.00603E-37
8.28030E-01 9.03307E-38
8.31310E-01 8.07451E-38
8.34565E-01 7.18504E-38
8.37795E-01 6.36339E-38
8.40999E-01 5.60826E-38
8.44177E-01 4.91782E-38
8.47329E-01 4.28932E-38
8.50455E-01 3.72025E-38
8.53553E-01 3.20753E-38
8.56625E-01 2.74787E-38
8.59670E-01 2.33832E-38
8.62687E-01 1.97532E-38
8.65677E-01 1.65550E-38
8.68639E-01 1.37571E-38
8.71572E-01 1.13254E-38
8.74478E-01 9.22819E-39
8.77355E-01 7.43366E-39
8.80203E-01 5.91504E-39
8.83022E-01 4.64347E-39
8.85812E-01 3.59169E-39
8.88573E-01 2.73500E-39
8.91304E-01 2.05176E-39
8.94005E-01 1.51830E-39
8.96677E-01 1.11678E-39
8.99318E-01 1.00000E-45
9.01928E-01 1.00000E-45
9.04508E-01 1.00000E-45
9.07058E-01 1.00000E-45
9.09576E-01 1.00000E-45
9.12063E-01 1.00000E-45
9.14519E-01 1.00000E-45
9.16943E-01 1.00000E-45
9.19335E-01 1.00000E-45
9.21696E-01 1.00000E-45
9.24024E-01 1.00000E-45
9.26320E-01 1.00000E-45
9.28584E-01 1.00000E-45
9.30815E-01 1.00000E-45
9.33013E-01 1.00000E-45
9.35178E-01 1.00000E-45
9.37310E-01 1.00000E-45
9.39409E-01 1.00000E-45
9.41474E-01 1.00000E-45
9.43505E-01 1.00000E-45
9.45503E-01 1.00000E-45
9.47467E-01 1.00000E-45
9.49397E-01 1.00000E-45
9.51293E-01 1.00000E-45
9.53154E-01 1.00000E-45
9.54981E-01 1.00000E-45
9.56773E-01 1.00000E-45
9.58530E-01 1.00000E-45
9.60252E-01 1.00000E-45
9.61940E-01 1.00000E-45
9.63592E-01 1.00000E-45
9.65209E-01 1.00000E-45
9.66790E-01 1.00000E-45
9.68336E-01 1.00000E-45
9.69846E-01 1.00000E-45
9.71321E-01 1.00000E-45
9.72759E-01 1.00000E-45
9.74162E-01 1.00000E-45
9.75528E-01 1.00000E-45
9.76858E-01 1.00000E-45
9.78152E-01 1.00000E-45
9.79410E-01 1.00000E-45
9.80631E-01 1.00000E-45
9.81815E-01 1.00000E-45
9.82963E-01 1.00000E-45
9.84074E-01 1.00000E-45
9.85148E-01 1.00000E-45
9.86185E-01 1.00000E-45
9.87185E-01 1.00000E-45
9.88148E-01 1.00000E-45
9.89074E-01 1.00000E-45
9.89962E-01 1.00000E-45
9.90814E-01 1.00000E-45
9.91627E-01 1.00000E-45
9.92404E-01 1.00000E-45
9.93143E-01 1.00000E-45
9.93844E-01 1.00000E-45
9.94508E-01 1.00000E-45
9.95134E-01 1.00000E-45
9.95722E-01 1.00000E-45
9.96273E-01 1.00000E-45
9.96786E-01 1.00000E-45
9.97261E-01 1.00000E-45
9.97698E-01 1.00000E-45
9.98097E-01 1.00000E-45
9.98459E-01 1.00000E-45
9.98782E-01 1.00000E-45
9.99067E-01 1.00000E-45
9.99315E-01 1.00000E-45
9.99524E-01 1.00000E-45
9.99695E-01 1.00000E-45
9.99829E-01 1.00000E-45
9.99924E-01 1.00000E-45
9.99981E-01 1.00000E-45
1.00000E+00 1.00000E-45
