 #
 # Subroutine ELSEPA. Elastic scattering of electrons and positrons
 #                    by neutral atoms and positive ions
 #
 # Projectile: positron
 # Kinetic energy = 3.00000E+06 eV = 1.10248E+05 a.u.
 #
 # WARNING: High-energy factorization with free-atom DF screening.
 #          Absorption, polarization and exchange corrections are
 #          switched off.
 #          Phase shifts are calculated for the bare nucleus.
 #          Scattering amplitudes are not evaluated.
 #
 # Element: Nd,  Z =  60,  atomic weight = 1.44240E+02 g/mol
 #
 # Nuclear model: Fermi distribution
 #                Average radius = 5.61150E-13 cm
 #                Skin thickness = 5.46000E-14 cm
 #
 # Number of electrons = 60
 #
 # Total elastic cross section = 7.40983E-18 cm**2 = 2.64610E-01 a0**2
 # 1st transport cross section = 3.47793E-22 cm**2 = 1.24199E-05 a0**2
 # 2nd transport cross section = 9.95957E-22 cm**2 = 3.55663E-05 a0**2
 #
 #
 # Differential cross section:                       MU=(1-COS(THETA))/2
 #
 #  THETA        MU          DCS          DCS        Sherman      error
 #  (deg)                 (cm**2/sr)   (a0**2/sr)    function
 #----------------------------------------------------------------------
0.00000E+00 1.25504E-12
7.61557E-13 1.25503E-12
1.18994E-12 1.25503E-12
1.71346E-12 1.25502E-12
2.33225E-12 1.25501E-12
3.04617E-12 1.25501E-12
3.85530E-12 1.25500E-12
4.75964E-12 1.25499E-12
5.75917E-12 1.25498E-12
6.85391E-12 1.25496E-12
8.04379E-12 1.25495E-12
9.32893E-12 1.25494E-12
1.07092E-11 1.25492E-12
1.21847E-11 1.25490E-12
1.37554E-11 1.25489E-12
1.54213E-11 1.25487E-12
1.71823E-11 1.25485E-12
1.90386E-11 1.25483E-12
2.09900E-11 1.25481E-12
2.30367E-11 1.25479E-12
2.51785E-11 1.25476E-12
2.74156E-11 1.25474E-12
2.97478E-11 1.25471E-12
3.21752E-11 1.25469E-12
3.46979E-11 1.25466E-12
3.73157E-11 1.25463E-12
4.00286E-11 1.25460E-12
4.28368E-11 1.25457E-12
4.57402E-11 1.25454E-12
4.87388E-11 1.25451E-12
5.18325E-11 1.25447E-12
5.50215E-11 1.25444E-12
5.83057E-11 1.25440E-12
6.16850E-11 1.25436E-12
6.51595E-11 1.25433E-12
6.87293E-11 1.25429E-12
7.23943E-11 1.25425E-12
7.61544E-11 1.25421E-12
1.18991E-10 1.25374E-12
1.71347E-10 1.25317E-12
2.33223E-10 1.25251E-12
3.04617E-10 1.25174E-12
3.85531E-10 1.25086E-12
4.75965E-10 1.24989E-12
5.75917E-10 1.24882E-12
6.85389E-10 1.24764E-12
8.04380E-10 1.24637E-12
9.32891E-10 1.24500E-12
1.07092E-09 1.24353E-12
1.21847E-09 1.24196E-12
1.37554E-09 1.24029E-12
1.54213E-09 1.23852E-12
1.71823E-09 1.23666E-12
1.90386E-09 1.23471E-12
2.09900E-09 1.23266E-12
2.30367E-09 1.23052E-12
2.51785E-09 1.22828E-12
2.74156E-09 1.22595E-12
2.97478E-09 1.22353E-12
3.21752E-09 1.22102E-12
3.46978E-09 1.21842E-12
3.73156E-09 1.21573E-12
4.00286E-09 1.21295E-12
4.28368E-09 1.21009E-12
4.57402E-09 1.20714E-12
4.87388E-09 1.20411E-12
5.18326E-09 1.20099E-12
5.50215E-09 1.19780E-12
5.83057E-09 1.19452E-12
6.16850E-09 1.19116E-12
6.51596E-09 1.18773E-12
6.87293E-09 1.18421E-12
7.23942E-09 1.18062E-12
7.61544E-09 1.17696E-12
1.18991E-08 1.13652E-12
1.71347E-08 1.09013E-12
2.33223E-08 1.03954E-12
3.04617E-08 9.85437E-13
3.85531E-08 9.30093E-13
4.75965E-08 8.74148E-13
5.75917E-08 8.18479E-13
6.85389E-08 7.64933E-13
8.04380E-08 7.13075E-13
9.32891E-08 6.63835E-13
1.07092E-07 6.17807E-13
1.21847E-07 5.74445E-13
1.37554E-07 5.34520E-13
1.54213E-07 4.97636E-13
1.71823E-07 4.63438E-13
1.90386E-07 4.32496E-13
2.09900E-07 4.03965E-13
2.30367E-07 3.77811E-13
2.51785E-07 3.54102E-13
2.74156E-07 3.32268E-13
2.97478E-07 3.12343E-13
3.21752E-07 2.94112E-13
3.46978E-07 2.77311E-13
3.73156E-07 2.61932E-13
4.00286E-07 2.47734E-13
4.28368E-07 2.34610E-13
4.57402E-07 2.22489E-13
4.87388E-07 2.11228E-13
5.18325E-07 2.00765E-13
5.50215E-07 1.91001E-13
5.83057E-07 1.81892E-13
6.16850E-07 1.73360E-13
6.51596E-07 1.65349E-13
6.87293E-07 1.57846E-13
7.23942E-07 1.50751E-13
7.61543E-07 1.44074E-13
1.18991E-06 9.38976E-14
1.71347E-06 6.32273E-14
2.33223E-06 4.32770E-14
3.04617E-06 3.11229E-14
3.85531E-06 2.26806E-14
4.75964E-06 1.70204E-14
5.75916E-06 1.30750E-14
6.85388E-06 1.01354E-14
8.04378E-06 8.00743E-15
9.32888E-06 6.39559E-15
1.07092E-05 5.14898E-15
1.21846E-05 4.19644E-15
1.37553E-05 3.44110E-15
1.54212E-05 2.84658E-15
1.71822E-05 2.37655E-15
1.90385E-05 1.99439E-15
2.09899E-05 1.68949E-15
2.30365E-05 1.44140E-15
2.51783E-05 1.23694E-15
2.74153E-05 1.06872E-15
2.97475E-05 9.28656E-16
3.21749E-05 8.11379E-16
3.46974E-05 7.12932E-16
3.73152E-05 6.29268E-16
4.00281E-05 5.57997E-16
4.28362E-05 4.96997E-16
4.57395E-05 4.44149E-16
4.87380E-05 3.98312E-16
5.18317E-05 3.58204E-16
5.50205E-05 3.22965E-16
5.83045E-05 2.92085E-16
6.16838E-05 2.64786E-16
6.51582E-05 2.40609E-16
6.87277E-05 2.19201E-16
7.23925E-05 2.00034E-16
7.61524E-05 1.82930E-16
9.21439E-05 1.30124E-16
1.09658E-04 9.47805E-17
1.28695E-04 7.05585E-17
1.49255E-04 5.35459E-17
1.71338E-04 4.13471E-17
1.94942E-04 3.24107E-17
2.20070E-04 2.57698E-17
2.46720E-04 2.07533E-17
2.74892E-04 1.69109E-17
3.04586E-04 1.39105E-17
3.35803E-04 1.15530E-17
3.68542E-04 9.67705E-18
4.02802E-04 8.16415E-18
4.38585E-04 6.93801E-18
4.75889E-04 5.93314E-18
5.14715E-04 5.10315E-18
5.55063E-04 4.41416E-18
5.96931E-04 3.83643E-18
6.40321E-04 3.35025E-18
6.85233E-04 2.93894E-18
7.31665E-04 2.58788E-18
7.79618E-04 2.28789E-18
8.29092E-04 2.02999E-18
8.80086E-04 1.80706E-18
9.32601E-04 1.61397E-18
9.86636E-04 1.44576E-18
1.04219E-03 1.29880E-18
1.09927E-03 1.17006E-18
1.15786E-03 1.05668E-18
1.21797E-03 9.56696E-19
1.27961E-03 8.68238E-19
1.34276E-03 7.89656E-19
1.40743E-03 7.19769E-19
1.47362E-03 6.57403E-19
1.54133E-03 6.01602E-19
1.61056E-03 5.51596E-19
1.68131E-03 5.06638E-19
1.75357E-03 4.66153E-19
1.82735E-03 4.29630E-19
1.90265E-03 3.96580E-19
1.97947E-03 3.66646E-19
2.05780E-03 3.39475E-19
2.13765E-03 3.14758E-19
2.21902E-03 2.92248E-19
2.30190E-03 2.71706E-19
2.38630E-03 2.52929E-19
2.47222E-03 2.35745E-19
2.55965E-03 2.19986E-19
2.64859E-03 2.05520E-19
2.73905E-03 1.92222E-19
2.83103E-03 1.79974E-19
2.92452E-03 1.68686E-19
3.01952E-03 1.58266E-19
3.11604E-03 1.48634E-19
3.21407E-03 1.39723E-19
3.31362E-03 1.31467E-19
3.41468E-03 1.23809E-19
3.51725E-03 1.16701E-19
3.62133E-03 1.10092E-19
3.72692E-03 1.03943E-19
3.83403E-03 9.82166E-20
3.94265E-03 9.28768E-20
4.05278E-03 8.78944E-20
4.16442E-03 8.32404E-20
4.27757E-03 7.88889E-20
4.39223E-03 7.48175E-20
4.50840E-03 7.10039E-20
4.62608E-03 6.74295E-20
4.74527E-03 6.40767E-20
4.86597E-03 6.09282E-20
4.98817E-03 5.79704E-20
5.11188E-03 5.51891E-20
5.23711E-03 5.25718E-20
5.36383E-03 5.01074E-20
5.49207E-03 4.77849E-20
5.62181E-03 4.55948E-20
5.75306E-03 4.35284E-20
5.88581E-03 4.15770E-20
6.02007E-03 3.97333E-20
6.15583E-03 3.79903E-20
6.29310E-03 3.63412E-20
6.43187E-03 3.47803E-20
6.57214E-03 3.33019E-20
6.71392E-03 3.19008E-20
6.85720E-03 3.05723E-20
7.00198E-03 2.93118E-20
7.14827E-03 2.81153E-20
7.29605E-03 2.69790E-20
7.44534E-03 2.58990E-20
7.59612E-03 2.48723E-20
7.97965E-03 2.25186E-20
8.37255E-03 2.04352E-20
8.77480E-03 1.85861E-20
9.18641E-03 1.69403E-20
9.60736E-03 1.54716E-20
1.00376E-02 1.41578E-20
1.04773E-02 1.29796E-20
1.09262E-02 1.19208E-20
1.13844E-02 1.09670E-20
1.18520E-02 1.01062E-20
1.23288E-02 9.32755E-21
1.28150E-02 8.62200E-21
1.33104E-02 7.98144E-21
1.38150E-02 7.39886E-21
1.43290E-02 6.86809E-21
1.48521E-02 6.38371E-21
1.53845E-02 5.94097E-21
1.59262E-02 5.53566E-21
1.64770E-02 5.16406E-21
1.70371E-02 4.82288E-21
1.76063E-02 4.50919E-21
1.81848E-02 4.22038E-21
1.87724E-02 3.95414E-21
1.93692E-02 3.70837E-21
1.99751E-02 3.48127E-21
2.05901E-02 3.27111E-21
2.12143E-02 3.07645E-21
2.18476E-02 2.89594E-21
2.24900E-02 2.72833E-21
2.31415E-02 2.57258E-21
2.38021E-02 2.42768E-21
2.44717E-02 2.29274E-21
2.51504E-02 2.16696E-21
2.58382E-02 2.04961E-21
2.65349E-02 1.94001E-21
2.72407E-02 1.83758E-21
2.79555E-02 1.74174E-21
2.86793E-02 1.65202E-21
2.94120E-02 1.56794E-21
3.01537E-02 1.48908E-21
3.09043E-02 1.41507E-21
3.16639E-02 1.34555E-21
3.24324E-02 1.28021E-21
3.32098E-02 1.21874E-21
3.39961E-02 1.16087E-21
3.47912E-02 1.10637E-21
3.55952E-02 1.05499E-21
3.64081E-02 1.00652E-21
3.72297E-02 9.60776E-22
3.80602E-02 9.17571E-22
3.88995E-02 8.76739E-22
3.97476E-02 8.38129E-22
4.06044E-02 8.01594E-22
4.14700E-02 7.67006E-22
4.23443E-02 7.34241E-22
4.32273E-02 7.03186E-22
4.41190E-02 6.73736E-22
4.50194E-02 6.45793E-22
4.59284E-02 6.19266E-22
4.68461E-02 5.94070E-22
4.87074E-02 5.47362E-22
5.06030E-02 5.05100E-22
5.25328E-02 4.66790E-22
5.44967E-02 4.31999E-22
5.64946E-02 4.00349E-22
5.85262E-02 3.71507E-22
6.05914E-02 3.45182E-22
6.26901E-02 3.21117E-22
6.48222E-02 2.99085E-22
6.69873E-02 2.78884E-22
6.91854E-02 2.60336E-22
7.14163E-02 2.43283E-22
7.36799E-02 2.27583E-22
7.59760E-02 2.13111E-22
7.83043E-02 1.99754E-22
8.06647E-02 1.87411E-22
8.30571E-02 1.75992E-22
8.54812E-02 1.65416E-22
8.79369E-02 1.55610E-22
9.04240E-02 1.46508E-22
9.29422E-02 1.38051E-22
9.54915E-02 1.30185E-22
9.80716E-02 1.22862E-22
1.00682E-01 1.16038E-22
1.03323E-01 1.09673E-22
1.05995E-01 1.03730E-22
1.08696E-01 9.81774E-23
1.11427E-01 9.29845E-23
1.14188E-01 8.81240E-23
1.16978E-01 8.35708E-23
1.19797E-01 7.93023E-23
1.22645E-01 7.52975E-23
1.25522E-01 7.15373E-23
1.28428E-01 6.80042E-23
1.31361E-01 6.46820E-23
1.34323E-01 6.15560E-23
1.37313E-01 5.86127E-23
1.40330E-01 5.58394E-23
1.43375E-01 5.32246E-23
1.46447E-01 5.07577E-23
1.49545E-01 4.84289E-23
1.52671E-01 4.62290E-23
1.55823E-01 4.41498E-23
1.59001E-01 4.21833E-23
1.62205E-01 4.03225E-23
1.65435E-01 3.85607E-23
1.68690E-01 3.68918E-23
1.71970E-01 3.53099E-23
1.75276E-01 3.38097E-23
1.78606E-01 3.23863E-23
1.81961E-01 3.10351E-23
1.85340E-01 2.97517E-23
1.88743E-01 2.85322E-23
1.92169E-01 2.73728E-23
1.95619E-01 2.62701E-23
1.99092E-01 2.52207E-23
2.02589E-01 2.42218E-23
2.06107E-01 2.32703E-23
2.09649E-01 2.23638E-23
2.13212E-01 2.14996E-23
2.16797E-01 2.06755E-23
2.20404E-01 1.98893E-23
2.24032E-01 1.91390E-23
2.27680E-01 1.84225E-23
2.31350E-01 1.77382E-23
2.35040E-01 1.70843E-23
2.38751E-01 1.64593E-23
2.42481E-01 1.58616E-23
2.46231E-01 1.52898E-23
2.50000E-01 1.47427E-23
2.53788E-01 1.42189E-23
2.57595E-01 1.37174E-23
2.61421E-01 1.32370E-23
2.65264E-01 1.27766E-23
2.69126E-01 1.23354E-23
2.73005E-01 1.19123E-23
2.76901E-01 1.15064E-23
2.80814E-01 1.11170E-23
2.84744E-01 1.07433E-23
2.88691E-01 1.03845E-23
2.92653E-01 1.00399E-23
2.96632E-01 9.70894E-24
3.00625E-01 9.39088E-24
3.04634E-01 9.08519E-24
3.08658E-01 8.79128E-24
3.12697E-01 8.50863E-24
3.16749E-01 8.23673E-24
3.20816E-01 7.97510E-24
3.24896E-01 7.72328E-24
3.28990E-01 7.48085E-24
3.33097E-01 7.24740E-24
3.37216E-01 7.02253E-24
3.41348E-01 6.80587E-24
3.45492E-01 6.59709E-24
3.49647E-01 6.39583E-24
3.53814E-01 6.20179E-24
3.57992E-01 6.01467E-24
3.62181E-01 5.83417E-24
3.66381E-01 5.66001E-24
3.70590E-01 5.49195E-24
3.74810E-01 5.32972E-24
3.79039E-01 5.17309E-24
3.83277E-01 5.02184E-24
3.87524E-01 4.87575E-24
3.91780E-01 4.73461E-24
3.96044E-01 4.59823E-24
4.00316E-01 4.46642E-24
4.04596E-01 4.33900E-24
4.08882E-01 4.21580E-24
4.13176E-01 4.09666E-24
4.17476E-01 3.98142E-24
4.21783E-01 3.86994E-24
4.26095E-01 3.76206E-24
4.30413E-01 3.65766E-24
4.34737E-01 3.55660E-24
4.39065E-01 3.45876E-24
4.43398E-01 3.36401E-24
4.47736E-01 3.27225E-24
4.52077E-01 3.18336E-24
4.56422E-01 3.09725E-24
4.60770E-01 3.01380E-24
4.65122E-01 2.93292E-24
4.69476E-01 2.85453E-24
4.73832E-01 2.77853E-24
4.78190E-01 2.70483E-24
4.82550E-01 2.63336E-24
4.86912E-01 2.56404E-24
4.91274E-01 2.49679E-24
4.95637E-01 2.43154E-24
5.00000E-01 2.36822E-24
5.04363E-01 2.30676E-24
5.08726E-01 2.24710E-24
5.13088E-01 2.18919E-24
5.17450E-01 2.13295E-24
5.21810E-01 2.07834E-24
5.26168E-01 2.02529E-24
5.30524E-01 1.97377E-24
5.34878E-01 1.92371E-24
5.39230E-01 1.87507E-24
5.43578E-01 1.82780E-24
5.47923E-01 1.78186E-24
5.52264E-01 1.73721E-24
5.56602E-01 1.69379E-24
5.60935E-01 1.65158E-24
5.65263E-01 1.61053E-24
5.69587E-01 1.57061E-24
5.73905E-01 1.53178E-24
5.78217E-01 1.49400E-24
5.82524E-01 1.45725E-24
5.86824E-01 1.42149E-24
5.91118E-01 1.38669E-24
5.95404E-01 1.35283E-24
5.99684E-01 1.31986E-24
6.03956E-01 1.28777E-24
6.08220E-01 1.25653E-24
6.12476E-01 1.22610E-24
6.16723E-01 1.19648E-24
6.20961E-01 1.16763E-24
6.25190E-01 1.13953E-24
6.29410E-01 1.11215E-24
6.33619E-01 1.08549E-24
6.37819E-01 1.05950E-24
6.42008E-01 1.03418E-24
6.46186E-01 1.00951E-24
6.50353E-01 9.85466E-25
6.54508E-01 9.62029E-25
6.58652E-01 9.39183E-25
6.62784E-01 9.16911E-25
6.66903E-01 8.95196E-25
6.71010E-01 8.74023E-25
6.75104E-01 8.53376E-25
6.79184E-01 8.33241E-25
6.83251E-01 8.13603E-25
6.87303E-01 7.94447E-25
6.91342E-01 7.75762E-25
6.95366E-01 7.57532E-25
6.99375E-01 7.39747E-25
7.03368E-01 7.22393E-25
7.07347E-01 7.05459E-25
7.11309E-01 6.88933E-25
7.15256E-01 6.72805E-25
7.19186E-01 6.57064E-25
7.23099E-01 6.41699E-25
7.26995E-01 6.26700E-25
7.30874E-01 6.12057E-25
7.34736E-01 5.97762E-25
7.38579E-01 5.83804E-25
7.42405E-01 5.70175E-25
7.46212E-01 5.56867E-25
7.50000E-01 5.43870E-25
7.53769E-01 5.31177E-25
7.57519E-01 5.18781E-25
7.61249E-01 5.06672E-25
7.64960E-01 4.94844E-25
7.68650E-01 4.83290E-25
7.72320E-01 4.72003E-25
7.75968E-01 4.60975E-25
7.79596E-01 4.50202E-25
7.83203E-01 4.39675E-25
7.86788E-01 4.29389E-25
7.90351E-01 4.19339E-25
7.93893E-01 4.09517E-25
7.97411E-01 3.99920E-25
8.00908E-01 3.90540E-25
8.04381E-01 3.81373E-25
8.07831E-01 3.72414E-25
8.11257E-01 3.63658E-25
8.14660E-01 3.55099E-25
8.18039E-01 3.46733E-25
8.21394E-01 3.38556E-25
8.24724E-01 3.30562E-25
8.28030E-01 3.22749E-25
8.31310E-01 3.15110E-25
8.34565E-01 3.07643E-25
8.37795E-01 3.00343E-25
8.40999E-01 2.93206E-25
8.44177E-01 2.86229E-25
8.47329E-01 2.79409E-25
8.50455E-01 2.72740E-25
8.53553E-01 2.66221E-25
8.56625E-01 2.59847E-25
8.59670E-01 2.53616E-25
8.62687E-01 2.47524E-25
8.65677E-01 2.41569E-25
8.68639E-01 2.35746E-25
8.71572E-01 2.30054E-25
8.74478E-01 2.24490E-25
8.77355E-01 2.19050E-25
8.80203E-01 2.13732E-25
8.83022E-01 2.08534E-25
8.85812E-01 2.03452E-25
8.88573E-01 1.98485E-25
8.91304E-01 1.93630E-25
8.94005E-01 1.88884E-25
8.96677E-01 1.84246E-25
8.99318E-01 1.79713E-25
9.01928E-01 1.75283E-25
9.04508E-01 1.70954E-25
9.07058E-01 1.66724E-25
9.09576E-01 1.62591E-25
9.12063E-01 1.58553E-25
9.14519E-01 1.54609E-25
9.16943E-01 1.50755E-25
9.19335E-01 1.46992E-25
9.21696E-01 1.43316E-25
9.24024E-01 1.39726E-25
9.26320E-01 1.36222E-25
9.28584E-01 1.32800E-25
9.30815E-01 1.29459E-25
9.33013E-01 1.26199E-25
9.35178E-01 1.23017E-25
9.37310E-01 1.19913E-25
9.39409E-01 1.16884E-25
9.41474E-01 1.13930E-25
9.43505E-01 1.11049E-25
9.45503E-01 1.08239E-25
9.47467E-01 1.05501E-25
9.49397E-01 1.02832E-25
9.51293E-01 1.00231E-25
9.53154E-01 9.76977E-26
9.54981E-01 9.52304E-26
9.56773E-01 9.28282E-26
9.58530E-01 9.04901E-26
9.60252E-01 8.82152E-26
9.61940E-01 8.60023E-26
9.63592E-01 8.38506E-26
9.65209E-01 8.17593E-26
9.66790E-01 7.97273E-26
9.68336E-01 7.77540E-26
9.69846E-01 7.58383E-26
9.71321E-01 7.39797E-26
9.72759E-01 7.21772E-26
9.74162E-01 7.04302E-26
9.75528E-01 6.87379E-26
9.76858E-01 6.70997E-26
9.78152E-01 6.55148E-26
9.79410E-01 6.39826E-26
9.80631E-01 6.25025E-26
9.81815E-01 6.10739E-26
9.82963E-01 5.96963E-26
9.84074E-01 5.83689E-26
9.85148E-01 5.70914E-26
9.86185E-01 5.58632E-26
9.87185E-01 5.46839E-26
9.88148E-01 5.35528E-26
9.89074E-01 5.24696E-26
9.89962E-01 5.14339E-26
9.90814E-01 5.04452E-26
9.91627E-01 4.95032E-26
9.92404E-01 4.86074E-26
9.93143E-01 4.77576E-26
9.93844E-01 4.69533E-26
9.94508E-01 4.61943E-26
9.95134E-01 4.54802E-26
9.95722E-01 4.48108E-26
9.96273E-01 4.41858E-26
9.96786E-01 4.36050E-26
9.97261E-01 4.30681E-26
9.97698E-01 4.25750E-26
9.98097E-01 4.21253E-26
9.98459E-01 4.17191E-26
9.98782E-01 4.13560E-26
9.99067E-01 4.10359E-26
9.99315E-01 4.07588E-26
9.99524E-01 4.05245E-26
9.99695E-01 4.03329E-26
9.99829E-01 4.01840E-26
9.99924E-01 4.00777E-26
9.99981E-01 4.00139E-26
1.00000E+00 3.99926E-26
