 #
 # Subroutine ELSEPA. Elastic scattering of electrons and positrons
 #                    by neutral atoms and positive ions
 #
 # Projectile: positron
 # Kinetic energy = 1.00000E+07 eV = 3.67493E+05 a.u.
 #
 # WARNING: High-energy factorization with free-atom DF screening.
 #          Absorption, polarization and exchange corrections are
 #          switched off.
 #          Phase shifts are calculated for the bare nucleus.
 #          Scattering amplitudes are not evaluated.
 #
 # Element: Nd,  Z =  60,  atomic weight = 1.44240E+02 g/mol
 #
 # Nuclear model: Fermi distribution
 #                Average radius = 5.61150E-13 cm
 #                Skin thickness = 5.46000E-14 cm
 #
 # Number of electrons = 60
 #
 # Total elastic cross section = 7.27807E-18 cm**2 = 2.59905E-01 a0**2
 # 1st transport cross section = 4.65348E-23 cm**2 = 1.66179E-06 a0**2
 # 2nd transport cross section = 1.34715E-22 cm**2 = 4.81074E-06 a0**2
 #
 #
 # Differential cross section:                       MU=(1-COS(THETA))/2
 #
 #  THETA        MU          DCS          DCS        Sherman      error
 #  (deg)                 (cm**2/sr)   (a0**2/sr)    function
 #----------------------------------------------------------------------
0.00000E+00 1.12482E-11
7.61557E-13 1.12476E-11
1.18994E-12 1.12472E-11
1.71346E-12 1.12467E-11
2.33225E-12 1.12461E-11
3.04617E-12 1.12455E-11
3.85530E-12 1.12448E-11
4.75964E-12 1.12440E-11
5.75917E-12 1.12431E-11
6.85391E-12 1.12421E-11
8.04379E-12 1.12411E-11
9.32893E-12 1.12399E-11
1.07092E-11 1.12387E-11
1.21847E-11 1.12374E-11
1.37554E-11 1.12360E-11
1.54213E-11 1.12345E-11
1.71823E-11 1.12330E-11
1.90386E-11 1.12313E-11
2.09900E-11 1.12296E-11
2.30367E-11 1.12278E-11
2.51785E-11 1.12259E-11
2.74156E-11 1.12239E-11
2.97478E-11 1.12219E-11
3.21752E-11 1.12197E-11
3.46979E-11 1.12175E-11
3.73157E-11 1.12152E-11
4.00286E-11 1.12128E-11
4.28368E-11 1.12104E-11
4.57402E-11 1.12078E-11
4.87388E-11 1.12052E-11
5.18325E-11 1.12024E-11
5.50215E-11 1.11996E-11
5.83057E-11 1.11968E-11
6.16850E-11 1.11938E-11
6.51595E-11 1.11907E-11
6.87293E-11 1.11876E-11
7.23943E-11 1.11844E-11
7.61544E-11 1.11811E-11
1.18991E-10 1.11437E-11
1.71347E-10 1.10983E-11
2.33223E-10 1.10450E-11
3.04617E-10 1.09840E-11
3.85531E-10 1.09155E-11
4.75965E-10 1.08399E-11
5.75917E-10 1.07573E-11
6.85389E-10 1.06680E-11
8.04380E-10 1.05723E-11
9.32891E-10 1.04705E-11
1.07092E-09 1.03630E-11
1.21847E-09 1.02500E-11
1.37554E-09 1.01320E-11
1.54213E-09 1.00093E-11
1.71823E-09 9.88230E-12
1.90386E-09 9.75126E-12
2.09900E-09 9.61676E-12
2.30367E-09 9.48033E-12
2.51785E-09 9.34033E-12
2.74156E-09 9.19707E-12
2.97478E-09 9.05084E-12
3.21752E-09 8.90195E-12
3.46978E-09 8.75455E-12
3.73156E-09 8.60568E-12
4.00286E-09 8.45502E-12
4.28368E-09 8.30286E-12
4.57402E-09 8.14944E-12
4.87388E-09 7.99837E-12
5.18326E-09 7.84841E-12
5.50215E-09 7.69791E-12
5.83057E-09 7.54708E-12
6.16850E-09 7.39614E-12
6.51596E-09 7.24762E-12
6.87293E-09 7.10264E-12
7.23942E-09 6.95806E-12
7.61544E-09 6.81403E-12
1.18991E-08 5.49329E-12
1.71347E-08 4.41868E-12
2.33223E-08 3.58362E-12
3.04617E-08 2.94584E-12
3.85531E-08 2.45758E-12
4.75965E-08 2.07839E-12
5.75917E-08 1.77794E-12
6.85389E-08 1.53475E-12
8.04380E-08 1.33403E-12
9.32891E-08 1.16581E-12
1.07092E-07 1.02313E-12
1.21847E-07 9.01046E-13
1.37554E-07 7.95922E-13
1.54213E-07 7.04990E-13
1.71823E-07 6.26075E-13
1.90386E-07 5.57415E-13
2.09900E-07 4.97151E-13
2.30367E-07 4.41680E-13
2.51785E-07 3.94979E-13
2.74156E-07 3.55400E-13
2.97478E-07 3.21647E-13
3.21752E-07 2.92691E-13
3.46978E-07 2.64467E-13
3.73156E-07 2.39682E-13
4.00286E-07 2.18224E-13
4.28368E-07 1.99555E-13
4.57402E-07 1.83237E-13
4.87388E-07 1.67880E-13
5.18325E-07 1.53852E-13
5.50215E-07 1.41494E-13
5.83057E-07 1.30565E-13
6.16850E-07 1.20865E-13
6.51596E-07 1.11875E-13
6.87293E-07 1.03392E-13
7.23942E-07 9.58158E-14
7.61543E-07 8.90295E-14
1.18991E-06 4.51552E-14
1.71347E-06 2.49364E-14
2.33223E-06 1.47949E-14
3.04617E-06 9.35849E-15
3.85531E-06 6.24911E-15
4.75964E-06 4.35716E-15
5.75916E-06 3.14071E-15
6.85388E-06 2.32258E-15
8.04378E-06 1.75460E-15
9.32888E-06 1.34868E-15
1.07092E-05 1.05189E-15
1.21846E-05 8.31228E-16
1.37553E-05 6.64929E-16
1.54212E-05 5.37957E-16
1.71822E-05 4.39738E-16
1.90385E-05 3.62701E-16
2.09899E-05 3.02006E-16
2.30365E-05 2.53377E-16
2.51783E-05 2.14376E-16
2.74153E-05 1.82399E-16
2.97475E-05 1.56306E-16
3.21749E-05 1.34635E-16
3.46974E-05 1.16679E-16
3.73152E-05 1.01599E-16
4.00281E-05 8.89272E-17
4.28362E-05 7.81562E-17
4.57395E-05 6.89849E-17
4.87380E-05 6.11106E-17
5.18317E-05 5.43316E-17
5.50205E-05 4.84622E-17
5.83045E-05 4.33634E-17
6.16838E-05 3.89186E-17
6.51582E-05 3.50271E-17
6.87277E-05 3.16133E-17
7.23925E-05 2.86024E-17
7.61524E-05 2.59445E-17
9.21439E-05 1.79439E-17
1.09658E-04 1.27947E-17
1.28695E-04 9.36310E-18
1.49255E-04 7.00522E-18
1.71338E-04 5.34362E-18
1.94942E-04 4.14562E-18
2.20070E-04 3.26472E-18
2.46720E-04 2.60554E-18
2.74892E-04 2.10439E-18
3.04586E-04 1.71805E-18
3.35803E-04 1.41633E-18
3.68542E-04 1.17799E-18
4.02802E-04 9.87692E-19
4.38585E-04 8.34281E-19
4.75889E-04 7.09511E-19
5.14715E-04 6.07195E-19
5.55063E-04 5.22659E-19
5.96931E-04 4.52320E-19
6.40321E-04 3.93412E-19
6.85233E-04 3.43777E-19
7.31665E-04 3.01718E-19
7.79618E-04 2.65889E-19
8.29092E-04 2.35215E-19
8.80086E-04 2.08831E-19
9.32601E-04 1.86038E-19
9.86636E-04 1.66265E-19
1.04219E-03 1.49046E-19
1.09927E-03 1.33993E-19
1.15786E-03 1.20789E-19
1.21797E-03 1.09169E-19
1.27961E-03 9.89088E-20
1.34276E-03 8.98232E-20
1.40743E-03 8.17544E-20
1.47362E-03 7.45690E-20
1.54133E-03 6.81536E-20
1.61056E-03 6.24115E-20
1.68131E-03 5.72596E-20
1.75357E-03 5.26268E-20
1.82735E-03 4.84516E-20
1.90265E-03 4.46811E-20
1.97947E-03 4.12690E-20
2.05780E-03 3.81754E-20
2.13765E-03 3.53651E-20
2.21902E-03 3.28079E-20
2.30190E-03 3.04770E-20
2.38630E-03 2.83486E-20
2.47222E-03 2.64020E-20
2.55965E-03 2.46191E-20
2.64859E-03 2.29836E-20
2.73905E-03 2.14811E-20
2.83103E-03 2.00989E-20
2.92452E-03 1.88257E-20
3.01952E-03 1.76513E-20
3.11604E-03 1.65667E-20
3.21407E-03 1.55637E-20
3.31362E-03 1.46352E-20
3.41468E-03 1.37746E-20
3.51725E-03 1.29761E-20
3.62133E-03 1.22344E-20
3.72692E-03 1.15446E-20
3.83403E-03 1.09026E-20
3.94265E-03 1.03044E-20
4.05278E-03 9.74644E-21
4.16442E-03 9.22557E-21
4.27757E-03 8.73887E-21
4.39223E-03 8.28370E-21
4.50840E-03 7.85765E-21
4.62608E-03 7.45849E-21
4.74527E-03 7.08423E-21
4.86597E-03 6.73304E-21
4.98817E-03 6.40325E-21
5.11188E-03 6.09328E-21
5.23711E-03 5.80176E-21
5.36383E-03 5.52737E-21
5.49207E-03 5.26893E-21
5.62181E-03 5.02534E-21
5.75306E-03 4.79558E-21
5.88581E-03 4.57874E-21
6.02007E-03 4.37395E-21
6.15583E-03 4.18042E-21
6.29310E-03 3.99742E-21
6.43187E-03 3.82426E-21
6.57214E-03 3.66033E-21
6.71392E-03 3.50504E-21
6.85720E-03 3.35785E-21
7.00198E-03 3.21826E-21
7.14827E-03 3.08581E-21
7.29605E-03 2.96006E-21
7.44534E-03 2.84061E-21
7.59612E-03 2.72709E-21
7.97965E-03 2.46701E-21
8.37255E-03 2.23703E-21
8.77480E-03 2.03308E-21
9.18641E-03 1.85172E-21
9.60736E-03 1.69001E-21
1.00376E-02 1.54547E-21
1.04773E-02 1.41596E-21
1.09262E-02 1.29964E-21
1.13844E-02 1.19496E-21
1.18520E-02 1.10053E-21
1.23288E-02 1.01519E-21
1.28150E-02 9.37905E-22
1.33104E-02 8.67784E-22
1.38150E-02 8.04048E-22
1.43290E-02 7.46016E-22
1.48521E-02 6.93088E-22
1.53845E-02 6.44736E-22
1.59262E-02 6.00497E-22
1.64770E-02 5.59958E-22
1.70371E-02 5.22755E-22
1.76063E-02 4.88567E-22
1.81848E-02 4.57106E-22
1.87724E-02 4.28116E-22
1.93692E-02 4.01369E-22
1.99751E-02 3.76662E-22
2.05901E-02 3.53810E-22
2.12143E-02 3.32650E-22
2.18476E-02 3.13034E-22
2.24900E-02 2.94830E-22
2.31415E-02 2.77918E-22
2.38021E-02 2.62190E-22
2.44717E-02 2.47550E-22
2.51504E-02 2.33907E-22
2.58382E-02 2.21182E-22
2.65349E-02 2.09302E-22
2.72407E-02 1.98202E-22
2.79555E-02 1.87820E-22
2.86793E-02 1.78102E-22
2.94120E-02 1.68999E-22
3.01537E-02 1.60464E-22
3.09043E-02 1.52455E-22
3.16639E-02 1.44934E-22
3.24324E-02 1.37866E-22
3.32098E-02 1.31219E-22
3.39961E-02 1.24964E-22
3.47912E-02 1.19073E-22
3.55952E-02 1.13521E-22
3.64081E-02 1.08286E-22
3.72297E-02 1.03345E-22
3.80602E-02 9.86790E-23
3.88995E-02 9.42707E-23
3.97476E-02 9.01030E-23
4.06044E-02 8.61603E-23
4.14700E-02 8.24283E-23
4.23443E-02 7.88937E-23
4.32273E-02 7.55441E-23
4.41190E-02 7.23681E-23
4.50194E-02 6.93553E-23
4.59284E-02 6.64957E-23
4.68461E-02 6.37800E-23
4.87074E-02 5.87469E-23
5.06030E-02 5.41943E-23
5.25328E-02 5.00687E-23
5.44967E-02 4.63233E-23
5.64946E-02 4.29168E-23
5.85262E-02 3.98135E-23
6.05914E-02 3.69819E-23
6.26901E-02 3.43940E-23
6.48222E-02 3.20252E-23
6.69873E-02 2.98540E-23
6.91854E-02 2.78609E-23
7.14163E-02 2.60288E-23
7.36799E-02 2.43426E-23
7.59760E-02 2.27885E-23
7.83043E-02 2.13545E-23
8.06647E-02 2.00297E-23
8.30571E-02 1.88043E-23
8.54812E-02 1.76696E-23
8.79369E-02 1.66177E-23
9.04240E-02 1.56416E-23
9.29422E-02 1.47348E-23
9.54915E-02 1.38916E-23
9.80716E-02 1.31067E-23
1.00682E-01 1.23754E-23
1.03323E-01 1.16935E-23
1.05995E-01 1.10569E-23
1.08696E-01 1.04622E-23
1.11427E-01 9.90618E-24
1.14188E-01 9.38584E-24
1.16978E-01 8.89848E-24
1.19797E-01 8.44168E-24
1.22645E-01 8.01319E-24
1.25522E-01 7.61093E-24
1.28428E-01 7.23304E-24
1.31361E-01 6.87778E-24
1.34323E-01 6.54356E-24
1.37313E-01 6.22892E-24
1.40330E-01 5.93251E-24
1.43375E-01 5.65310E-24
1.46447E-01 5.38953E-24
1.49545E-01 5.14077E-24
1.52671E-01 4.90582E-24
1.55823E-01 4.68380E-24
1.59001E-01 4.47386E-24
1.62205E-01 4.27524E-24
1.65435E-01 4.08722E-24
1.68690E-01 3.90913E-24
1.71970E-01 3.74037E-24
1.75276E-01 3.58036E-24
1.78606E-01 3.42856E-24
1.81961E-01 3.28449E-24
1.85340E-01 3.14768E-24
1.88743E-01 3.01770E-24
1.92169E-01 2.89415E-24
1.95619E-01 2.77667E-24
1.99092E-01 2.66489E-24
2.02589E-01 2.55850E-24
2.06107E-01 2.45720E-24
2.09649E-01 2.36069E-24
2.13212E-01 2.26870E-24
2.16797E-01 2.18099E-24
2.20404E-01 2.09732E-24
2.24032E-01 2.01749E-24
2.27680E-01 1.94129E-24
2.31350E-01 1.86851E-24
2.35040E-01 1.79898E-24
2.38751E-01 1.73254E-24
2.42481E-01 1.66901E-24
2.46231E-01 1.60826E-24
2.50000E-01 1.55013E-24
2.53788E-01 1.49450E-24
2.57595E-01 1.44124E-24
2.61421E-01 1.39023E-24
2.65264E-01 1.34137E-24
2.69126E-01 1.29453E-24
2.73005E-01 1.24964E-24
2.76901E-01 1.20658E-24
2.80814E-01 1.16528E-24
2.84744E-01 1.12565E-24
2.88691E-01 1.08761E-24
2.92653E-01 1.05109E-24
2.96632E-01 1.01602E-24
3.00625E-01 9.82318E-25
3.04634E-01 9.49937E-25
3.08658E-01 9.18811E-25
3.12697E-01 8.88884E-25
3.16749E-01 8.60101E-25
3.20816E-01 8.32412E-25
3.24896E-01 8.05768E-25
3.28990E-01 7.80123E-25
3.33097E-01 7.55433E-25
3.37216E-01 7.31657E-25
3.41348E-01 7.08755E-25
3.45492E-01 6.86689E-25
3.49647E-01 6.65425E-25
3.53814E-01 6.44927E-25
3.57992E-01 6.25164E-25
3.62181E-01 6.06105E-25
3.66381E-01 5.87721E-25
3.70590E-01 5.69984E-25
3.74810E-01 5.52867E-25
3.79039E-01 5.36346E-25
3.83277E-01 5.20395E-25
3.87524E-01 5.04992E-25
3.91780E-01 4.90115E-25
3.96044E-01 4.75743E-25
4.00316E-01 4.61856E-25
4.04596E-01 4.48436E-25
4.08882E-01 4.35463E-25
4.13176E-01 4.22920E-25
4.17476E-01 4.10792E-25
4.21783E-01 3.99061E-25
4.26095E-01 3.87713E-25
4.30413E-01 3.76733E-25
4.34737E-01 3.66108E-25
4.39065E-01 3.55824E-25
4.43398E-01 3.45867E-25
4.47736E-01 3.36228E-25
4.52077E-01 3.26892E-25
4.56422E-01 3.17850E-25
4.60770E-01 3.09090E-25
4.65122E-01 3.00603E-25
4.69476E-01 2.92378E-25
4.73832E-01 2.84407E-25
4.78190E-01 2.76679E-25
4.82550E-01 2.69187E-25
4.86912E-01 2.61922E-25
4.91274E-01 2.54876E-25
4.95637E-01 2.48041E-25
5.00000E-01 2.41411E-25
5.04363E-01 2.34978E-25
5.08726E-01 2.28735E-25
5.13088E-01 2.22675E-25
5.17450E-01 2.16793E-25
5.21810E-01 2.11083E-25
5.26168E-01 2.05539E-25
5.30524E-01 2.00154E-25
5.34878E-01 1.94925E-25
5.39230E-01 1.89845E-25
5.43578E-01 1.84909E-25
5.47923E-01 1.80114E-25
5.52264E-01 1.75454E-25
5.56602E-01 1.70925E-25
5.60935E-01 1.66523E-25
5.65263E-01 1.62244E-25
5.69587E-01 1.58083E-25
5.73905E-01 1.54037E-25
5.78217E-01 1.50103E-25
5.82524E-01 1.46276E-25
5.86824E-01 1.42554E-25
5.91118E-01 1.38932E-25
5.95404E-01 1.35409E-25
5.99684E-01 1.31981E-25
6.03956E-01 1.28644E-25
6.08220E-01 1.25397E-25
6.12476E-01 1.22236E-25
6.16723E-01 1.19159E-25
6.20961E-01 1.16163E-25
6.25190E-01 1.13246E-25
6.29410E-01 1.10406E-25
6.33619E-01 1.07639E-25
6.37819E-01 1.04945E-25
6.42008E-01 1.02320E-25
6.46186E-01 9.97631E-26
6.50353E-01 9.72719E-26
6.54508E-01 9.48445E-26
6.58652E-01 9.24791E-26
6.62784E-01 9.01738E-26
6.66903E-01 8.79270E-26
6.71010E-01 8.57370E-26
6.75104E-01 8.36020E-26
6.79184E-01 8.15207E-26
6.83251E-01 7.94914E-26
6.87303E-01 7.75126E-26
6.91342E-01 7.55830E-26
6.95366E-01 7.37012E-26
6.99375E-01 7.18658E-26
7.03368E-01 7.00756E-26
7.07347E-01 6.83292E-26
7.11309E-01 6.66256E-26
7.15256E-01 6.49634E-26
7.19186E-01 6.33417E-26
7.23099E-01 6.17593E-26
7.26995E-01 6.02151E-26
7.30874E-01 5.87081E-26
7.34736E-01 5.72372E-26
7.38579E-01 5.58017E-26
7.42405E-01 5.44004E-26
7.46212E-01 5.30325E-26
7.50000E-01 5.16971E-26
7.53769E-01 5.03934E-26
7.57519E-01 4.91205E-26
7.61249E-01 4.78776E-26
7.64960E-01 4.66640E-26
7.68650E-01 4.54789E-26
7.72320E-01 4.43215E-26
7.75968E-01 4.31912E-26
7.79596E-01 4.20872E-26
7.83203E-01 4.10090E-26
7.86788E-01 3.99557E-26
7.90351E-01 3.89269E-26
7.93893E-01 3.79219E-26
7.97411E-01 3.69401E-26
8.00908E-01 3.59809E-26
8.04381E-01 3.50438E-26
8.07831E-01 3.41283E-26
8.11257E-01 3.32337E-26
8.14660E-01 3.23596E-26
8.18039E-01 3.15056E-26
8.21394E-01 3.06710E-26
8.24724E-01 2.98555E-26
8.28030E-01 2.90586E-26
8.31310E-01 2.82798E-26
8.34565E-01 2.75188E-26
8.37795E-01 2.67750E-26
8.40999E-01 2.60482E-26
8.44177E-01 2.53378E-26
8.47329E-01 2.46435E-26
8.50455E-01 2.39650E-26
8.53553E-01 2.33019E-26
8.56625E-01 2.26538E-26
8.59670E-01 2.20205E-26
8.62687E-01 2.14014E-26
8.65677E-01 2.07964E-26
8.68639E-01 2.02051E-26
8.71572E-01 1.96272E-26
8.74478E-01 1.90625E-26
8.77355E-01 1.85106E-26
8.80203E-01 1.79712E-26
8.83022E-01 1.74441E-26
8.85812E-01 1.69290E-26
8.88573E-01 1.64257E-26
8.91304E-01 1.59338E-26
8.94005E-01 1.54533E-26
8.96677E-01 1.49837E-26
8.99318E-01 1.45249E-26
9.01928E-01 1.40767E-26
9.04508E-01 1.36389E-26
9.07058E-01 1.32112E-26
9.09576E-01 1.27934E-26
9.12063E-01 1.23853E-26
9.14519E-01 1.19868E-26
9.16943E-01 1.15976E-26
9.19335E-01 1.12176E-26
9.21696E-01 1.08466E-26
9.24024E-01 1.04843E-26
9.26320E-01 1.01307E-26
9.28584E-01 9.78559E-27
9.30815E-01 9.44878E-27
9.33013E-01 9.12012E-27
9.35178E-01 8.79947E-27
9.37310E-01 8.48668E-27
9.39409E-01 8.18160E-27
9.41474E-01 7.88410E-27
9.43505E-01 7.59403E-27
9.45503E-01 7.31128E-27
9.47467E-01 7.03572E-27
9.49397E-01 6.76721E-27
9.51293E-01 6.50564E-27
9.53154E-01 6.25089E-27
9.54981E-01 6.00286E-27
9.56773E-01 5.76142E-27
9.58530E-01 5.52648E-27
9.60252E-01 5.29793E-27
9.61940E-01 5.07567E-27
9.63592E-01 4.85960E-27
9.65209E-01 4.64964E-27
9.66790E-01 4.44568E-27
9.68336E-01 4.24764E-27
9.69846E-01 4.05543E-27
9.71321E-01 3.86897E-27
9.72759E-01 3.68819E-27
9.74162E-01 3.51300E-27
9.75528E-01 3.34333E-27
9.76858E-01 3.17911E-27
9.78152E-01 3.02026E-27
9.79410E-01 2.86672E-27
9.80631E-01 2.71843E-27
9.81815E-01 2.57532E-27
9.82963E-01 2.43733E-27
9.84074E-01 2.30440E-27
9.85148E-01 2.17648E-27
9.86185E-01 2.05352E-27
9.87185E-01 1.93546E-27
9.88148E-01 1.82225E-27
9.89074E-01 1.71385E-27
9.89962E-01 1.61021E-27
9.90814E-01 1.51129E-27
9.91627E-01 1.41704E-27
9.92404E-01 1.32744E-27
9.93143E-01 1.24243E-27
9.93844E-01 1.16200E-27
9.94508E-01 1.08609E-27
9.95134E-01 1.01469E-27
9.95722E-01 9.47759E-28
9.96273E-01 8.85275E-28
9.96786E-01 8.27210E-28
9.97261E-01 7.73541E-28
9.97698E-01 7.24246E-28
9.98097E-01 6.79304E-28
9.98459E-01 6.38697E-28
9.98782E-01 6.02410E-28
9.99067E-01 5.70426E-28
9.99315E-01 5.42733E-28
9.99524E-01 5.19319E-28
9.99695E-01 5.00176E-28
9.99829E-01 4.85295E-28
9.99924E-01 4.74669E-28
9.99981E-01 4.68296E-28
1.00000E+00 4.66171E-28
