 #
 # Subroutine ELSEPA. Elastic scattering of electrons and positrons
 #                    by neutral atoms and positive ions
 #
 # Projectile: positron
 # Kinetic energy = 8.00000E+07 eV = 2.93995E+06 a.u.
 #
 # WARNING: High-energy factorization with free-atom DF screening.
 #          Absorption, polarization and exchange corrections are
 #          switched off.
 #          Phase shifts are calculated for the bare nucleus.
 #          Scattering amplitudes are not evaluated.
 #
 # Element: Nd,  Z =  60,  atomic weight = 1.44240E+02 g/mol
 #
 # Nuclear model: Fermi distribution
 #                Average radius = 5.61150E-13 cm
 #                Skin thickness = 5.46000E-14 cm
 #
 # Number of electrons = 60
 #
 # Total elastic cross section = 7.26457E-18 cm**2 = 2.59423E-01 a0**2
 # 1st transport cross section = 1.03396E-24 cm**2 = 3.69235E-08 a0**2
 # 2nd transport cross section = 3.06136E-24 cm**2 = 1.09323E-07 a0**2
 #
 #
 # Differential cross section:                       MU=(1-COS(THETA))/2
 #
 #  THETA        MU          DCS          DCS        Sherman      error
 #  (deg)                 (cm**2/sr)   (a0**2/sr)    function
 #----------------------------------------------------------------------
0.00000E+00 6.59944E-10
7.61557E-13 6.57624E-10
1.18994E-12 6.56326E-10
1.71346E-12 6.54747E-10
2.33225E-12 6.52889E-10
3.04617E-12 6.50755E-10
3.85530E-12 6.48351E-10
4.75964E-12 6.45682E-10
5.75917E-12 6.42753E-10
6.85391E-12 6.39569E-10
8.04379E-12 6.36138E-10
9.32893E-12 6.32467E-10
1.07092E-11 6.28562E-10
1.21847E-11 6.24432E-10
1.37554E-11 6.20083E-10
1.54213E-11 6.15527E-10
1.71823E-11 6.10768E-10
1.90386E-11 6.05819E-10
2.09900E-11 6.00686E-10
2.30367E-11 5.95381E-10
2.51785E-11 5.89911E-10
2.74156E-11 5.84286E-10
2.97478E-11 5.78517E-10
3.21752E-11 5.72612E-10
3.46979E-11 5.66583E-10
3.73157E-11 5.60490E-10
4.00286E-11 5.54294E-10
4.28368E-11 5.47976E-10
4.57402E-11 5.41546E-10
4.87388E-11 5.35012E-10
5.18325E-11 5.28380E-10
5.50215E-11 5.21660E-10
5.83057E-11 5.15044E-10
6.16850E-11 5.08370E-10
6.51595E-11 5.01631E-10
6.87293E-11 4.94835E-10
7.23943E-11 4.87987E-10
7.61544E-11 4.81095E-10
1.18991E-10 4.13829E-10
1.71347E-10 3.51536E-10
2.33223E-10 2.97345E-10
3.04617E-10 2.51856E-10
3.85531E-10 2.14498E-10
4.75965E-10 1.84155E-10
5.75917E-10 1.59443E-10
6.85389E-10 1.39266E-10
8.04380E-10 1.22567E-10
9.32891E-10 1.08613E-10
1.07092E-09 9.67979E-11
1.21847E-09 8.66581E-11
1.37554E-09 7.78951E-11
1.54213E-09 7.02193E-11
1.71823E-09 6.34804E-11
1.90386E-09 5.75027E-11
2.09900E-09 5.21968E-11
2.30367E-09 4.74579E-11
2.51785E-09 4.32210E-11
2.74156E-09 3.94235E-11
2.97478E-09 3.60120E-11
3.21752E-09 3.29482E-11
3.46978E-09 3.01860E-11
3.73156E-09 2.75697E-11
4.00286E-09 2.52249E-11
4.28368E-09 2.31673E-11
4.57402E-09 2.13548E-11
4.87388E-09 1.97523E-11
5.18326E-09 1.83305E-11
5.50215E-09 1.70645E-11
5.83057E-09 1.57761E-11
6.16850E-09 1.46148E-11
6.51596E-09 1.35766E-11
6.87293E-09 1.26457E-11
7.23942E-09 1.18086E-11
7.61544E-09 1.10538E-11
1.18991E-08 5.91146E-12
1.71347E-08 3.43918E-12
2.33223E-08 2.11345E-12
3.04617E-08 1.35968E-12
3.85531E-08 9.12208E-13
4.75965E-08 6.35636E-13
5.75917E-08 4.58412E-13
6.85389E-08 3.40214E-13
8.04380E-08 2.58761E-13
9.32891E-08 2.00660E-13
1.07092E-07 1.58137E-13
1.21847E-07 1.26306E-13
1.37554E-07 1.02139E-13
1.54213E-07 8.33955E-14
1.71823E-07 6.87147E-14
1.90386E-07 5.70586E-14
2.09900E-07 4.77425E-14
2.30367E-07 4.02308E-14
2.51785E-07 3.41308E-14
2.74156E-07 2.91382E-14
2.97478E-07 2.50205E-14
3.21752E-07 2.16026E-14
3.46978E-07 1.87467E-14
3.73156E-07 1.63411E-14
4.00286E-07 1.43158E-14
4.28368E-07 1.26039E-14
4.57402E-07 1.11307E-14
4.87388E-07 9.87247E-15
5.18325E-07 8.78908E-15
5.50215E-07 7.84725E-15
5.83057E-07 7.03169E-15
6.16850E-07 6.31878E-15
6.51596E-07 5.69385E-15
6.87293E-07 5.14639E-15
7.23942E-07 4.66134E-15
7.61543E-07 4.23291E-15
1.18991E-06 1.80229E-15
1.71347E-06 8.91275E-16
2.33223E-06 4.89067E-16
3.04617E-06 2.89981E-16
3.85531E-06 1.82562E-16
4.75964E-06 1.20558E-16
5.75916E-06 8.27779E-17
6.85388E-06 5.87059E-17
8.04378E-06 4.27832E-17
9.32888E-06 3.19124E-17
1.07092E-05 2.42861E-17
1.21846E-05 1.88079E-17
1.37553E-05 1.47908E-17
1.54212E-05 1.17912E-17
1.71822E-05 9.51459E-18
1.90385E-05 7.75870E-18
2.09899E-05 6.39485E-18
2.30365E-05 5.31716E-18
2.51783E-05 4.45619E-18
2.74153E-05 3.76179E-18
2.97475E-05 3.19705E-18
3.21749E-05 2.73429E-18
3.46974E-05 2.35241E-18
3.73152E-05 2.03508E-18
4.00281E-05 1.76963E-18
4.28362E-05 1.54613E-18
4.57395E-05 1.35678E-18
4.87380E-05 1.19548E-18
5.18317E-05 1.05736E-18
5.50205E-05 9.38556E-19
5.83045E-05 8.35938E-19
6.16838E-05 7.46962E-19
6.51582E-05 6.69522E-19
6.87277E-05 6.01876E-19
7.23925E-05 5.42568E-19
7.61524E-05 4.90484E-19
9.21439E-05 3.35110E-19
1.09658E-04 2.36614E-19
1.28695E-04 1.71781E-19
1.49255E-04 1.27682E-19
1.71338E-04 9.68640E-20
1.94942E-04 7.47980E-20
2.20070E-04 5.86675E-20
2.46720E-04 4.66568E-20
2.74892E-04 3.75648E-20
3.04586E-04 3.05818E-20
3.35803E-04 2.51466E-20
3.68542E-04 2.08658E-20
4.02802E-04 1.74573E-20
4.38585E-04 1.47164E-20
4.75889E-04 1.24922E-20
5.14715E-04 1.06722E-20
5.55063E-04 9.17149E-21
5.96931E-04 7.92514E-21
6.40321E-04 6.88315E-21
6.85233E-04 6.00666E-21
7.31665E-04 5.26511E-21
7.79618E-04 4.63435E-21
8.29092E-04 4.09511E-21
8.80086E-04 3.63191E-21
9.32601E-04 3.23228E-21
9.86636E-04 2.88601E-21
1.04219E-03 2.58480E-21
1.09927E-03 2.32179E-21
1.15786E-03 2.09132E-21
1.21797E-03 1.88869E-21
1.27961E-03 1.70995E-21
1.34276E-03 1.55181E-21
1.40743E-03 1.41150E-21
1.47362E-03 1.28664E-21
1.54133E-03 1.17526E-21
1.61056E-03 1.07562E-21
1.68131E-03 9.86307E-22
1.75357E-03 9.06038E-22
1.82735E-03 8.33747E-22
1.90265E-03 7.68500E-22
1.97947E-03 7.09491E-22
2.05780E-03 6.56019E-22
2.13765E-03 6.07473E-22
2.21902E-03 5.63319E-22
2.30190E-03 5.23089E-22
2.38630E-03 4.86374E-22
2.47222E-03 4.52811E-22
2.55965E-03 4.22082E-22
2.64859E-03 3.93905E-22
2.73905E-03 3.68030E-22
2.83103E-03 3.44236E-22
2.92452E-03 3.22326E-22
3.01952E-03 3.02123E-22
3.11604E-03 2.83471E-22
3.21407E-03 2.66229E-22
3.31362E-03 2.50272E-22
3.41468E-03 2.35487E-22
3.51725E-03 2.21772E-22
3.62133E-03 2.09035E-22
3.72692E-03 1.97193E-22
3.83403E-03 1.86174E-22
3.94265E-03 1.75909E-22
4.05278E-03 1.66337E-22
4.16442E-03 1.57404E-22
4.27757E-03 1.49058E-22
4.39223E-03 1.41255E-22
4.50840E-03 1.33953E-22
4.62608E-03 1.27113E-22
4.74527E-03 1.20701E-22
4.86597E-03 1.14686E-22
4.98817E-03 1.09038E-22
5.11188E-03 1.03731E-22
5.23711E-03 9.87407E-23
5.36383E-03 9.40445E-23
5.49207E-03 8.96221E-23
5.62181E-03 8.54545E-23
5.75306E-03 8.15244E-23
5.88581E-03 7.78158E-23
6.02007E-03 7.43139E-23
6.15583E-03 7.10052E-23
6.29310E-03 6.78769E-23
6.43187E-03 6.49175E-23
6.57214E-03 6.21162E-23
6.71392E-03 5.94630E-23
6.85720E-03 5.69486E-23
7.00198E-03 5.45644E-23
7.14827E-03 5.23025E-23
7.29605E-03 5.01555E-23
7.44534E-03 4.81164E-23
7.59612E-03 4.61788E-23
7.97965E-03 4.17407E-23
8.37255E-03 3.78179E-23
8.77480E-03 3.43404E-23
9.18641E-03 3.12494E-23
9.60736E-03 2.84945E-23
1.00376E-02 2.60330E-23
1.04773E-02 2.38284E-23
1.09262E-02 2.18494E-23
1.13844E-02 2.00689E-23
1.18520E-02 1.84636E-23
1.23288E-02 1.70135E-23
1.28150E-02 1.57008E-23
1.33104E-02 1.45104E-23
1.38150E-02 1.34290E-23
1.43290E-02 1.24448E-23
1.48521E-02 1.15476E-23
1.53845E-02 1.07285E-23
1.59262E-02 9.97938E-24
1.64770E-02 9.29335E-24
1.70371E-02 8.66414E-24
1.76063E-02 8.08626E-24
1.81848E-02 7.55480E-24
1.87724E-02 7.06539E-24
1.93692E-02 6.61414E-24
1.99751E-02 6.19756E-24
2.05901E-02 5.81253E-24
2.12143E-02 5.45625E-24
2.18476E-02 5.12622E-24
2.24900E-02 4.82016E-24
2.31415E-02 4.53604E-24
2.38021E-02 4.27202E-24
2.44717E-02 4.02643E-24
2.51504E-02 3.79776E-24
2.58382E-02 3.58466E-24
2.65349E-02 3.38588E-24
2.72407E-02 3.20030E-24
2.79555E-02 3.02689E-24
2.86793E-02 2.86472E-24
2.94120E-02 2.71293E-24
3.01537E-02 2.57075E-24
3.09043E-02 2.43748E-24
3.16639E-02 2.31244E-24
3.24324E-02 2.19506E-24
3.32098E-02 2.08478E-24
3.39961E-02 1.98110E-24
3.47912E-02 1.88356E-24
3.55952E-02 1.79174E-24
3.64081E-02 1.70524E-24
3.72297E-02 1.62371E-24
3.80602E-02 1.54681E-24
3.88995E-02 1.47423E-24
3.97476E-02 1.40569E-24
4.06044E-02 1.34094E-24
4.14700E-02 1.27971E-24
4.23443E-02 1.22180E-24
4.32273E-02 1.16699E-24
4.41190E-02 1.11509E-24
4.50194E-02 1.06592E-24
4.59284E-02 1.01931E-24
4.68461E-02 9.75109E-25
4.87074E-02 8.93355E-25
5.06030E-02 8.19616E-25
5.25328E-02 7.52988E-25
5.44967E-02 6.92679E-25
5.64946E-02 6.38001E-25
5.85262E-02 5.88347E-25
6.05914E-02 5.43186E-25
6.26901E-02 5.02052E-25
6.48222E-02 4.64531E-25
6.69873E-02 4.30259E-25
6.91854E-02 3.98913E-25
7.14163E-02 3.70206E-25
7.36799E-02 3.43885E-25
7.59760E-02 3.19720E-25
7.83043E-02 2.97511E-25
8.06647E-02 2.77076E-25
8.30571E-02 2.58253E-25
8.54812E-02 2.40897E-25
8.79369E-02 2.24878E-25
9.04240E-02 2.10077E-25
9.29422E-02 1.96390E-25
9.54915E-02 1.83720E-25
9.80716E-02 1.71982E-25
1.00682E-01 1.61098E-25
1.03323E-01 1.50997E-25
1.05995E-01 1.41615E-25
1.08696E-01 1.32895E-25
1.11427E-01 1.24782E-25
1.14188E-01 1.17230E-25
1.16978E-01 1.10194E-25
1.19797E-01 1.03635E-25
1.22645E-01 9.75159E-26
1.25522E-01 9.18034E-26
1.28428E-01 8.64672E-26
1.31361E-01 8.14793E-26
1.34323E-01 7.68141E-26
1.37313E-01 7.24482E-26
1.40330E-01 6.83599E-26
1.43375E-01 6.45294E-26
1.46447E-01 6.09385E-26
1.49545E-01 5.75704E-26
1.52671E-01 5.44096E-26
1.55823E-01 5.14419E-26
1.59001E-01 4.86540E-26
1.62205E-01 4.60338E-26
1.65435E-01 4.35700E-26
1.68690E-01 4.12523E-26
1.71970E-01 3.90709E-26
1.75276E-01 3.70170E-26
1.78606E-01 3.50823E-26
1.81961E-01 3.32590E-26
1.85340E-01 3.15401E-26
1.88743E-01 2.99190E-26
1.92169E-01 2.83894E-26
1.95619E-01 2.69457E-26
1.99092E-01 2.55825E-26
2.02589E-01 2.42949E-26
2.06107E-01 2.30783E-26
2.09649E-01 2.19283E-26
2.13212E-01 2.08408E-26
2.16797E-01 1.98123E-26
2.20404E-01 1.88391E-26
2.24032E-01 1.79180E-26
2.27680E-01 1.70459E-26
2.31350E-01 1.62200E-26
2.35040E-01 1.54375E-26
2.38751E-01 1.46961E-26
2.42481E-01 1.39932E-26
2.46231E-01 1.33268E-26
2.50000E-01 1.26948E-26
2.53788E-01 1.20952E-26
2.57595E-01 1.15262E-26
2.61421E-01 1.09861E-26
2.65264E-01 1.04733E-26
2.69126E-01 9.98637E-27
2.73005E-01 9.52381E-27
2.76901E-01 9.08433E-27
2.80814E-01 8.66667E-27
2.84744E-01 8.26965E-27
2.88691E-01 7.89218E-27
2.92653E-01 7.53321E-27
2.96632E-01 7.19175E-27
3.00625E-01 6.86690E-27
3.04634E-01 6.55776E-27
3.08658E-01 6.26353E-27
3.12697E-01 5.98342E-27
3.16749E-01 5.71671E-27
3.20816E-01 5.46271E-27
3.24896E-01 5.22076E-27
3.28990E-01 4.99024E-27
3.33097E-01 4.77059E-27
3.37216E-01 4.56124E-27
3.41348E-01 4.36168E-27
3.45492E-01 4.17142E-27
3.49647E-01 3.98999E-27
3.53814E-01 3.81696E-27
3.57992E-01 3.65190E-27
3.62181E-01 3.49442E-27
3.66381E-01 3.34416E-27
3.70590E-01 3.20076E-27
3.74810E-01 3.06388E-27
3.79039E-01 2.93320E-27
3.83277E-01 2.80843E-27
3.87524E-01 2.68929E-27
3.91780E-01 2.57549E-27
3.96044E-01 2.46679E-27
4.00316E-01 2.36295E-27
4.04596E-01 2.26372E-27
4.08882E-01 2.16890E-27
4.13176E-01 2.07828E-27
4.17476E-01 1.99165E-27
4.21783E-01 1.90883E-27
4.26095E-01 1.82965E-27
4.30413E-01 1.75392E-27
4.34737E-01 1.68151E-27
4.39065E-01 1.61224E-27
4.43398E-01 1.54598E-27
4.47736E-01 1.48258E-27
4.52077E-01 1.42192E-27
4.56422E-01 1.36387E-27
4.60770E-01 1.30831E-27
4.65122E-01 1.25513E-27
4.69476E-01 1.20422E-27
4.73832E-01 1.15548E-27
4.78190E-01 1.10881E-27
4.82550E-01 1.06412E-27
4.86912E-01 1.02132E-27
4.91274E-01 9.80322E-28
4.95637E-01 9.41049E-28
5.00000E-01 9.03425E-28
5.04363E-01 8.67377E-28
5.08726E-01 8.32834E-28
5.13088E-01 7.99731E-28
5.17450E-01 7.68004E-28
5.21810E-01 7.37594E-28
5.26168E-01 7.08442E-28
5.30524E-01 6.80494E-28
5.34878E-01 6.53697E-28
5.39230E-01 6.28003E-28
5.43578E-01 6.03362E-28
5.47923E-01 5.79730E-28
5.52264E-01 5.57063E-28
5.56602E-01 5.35319E-28
5.60935E-01 5.14461E-28
5.65263E-01 4.94448E-28
5.69587E-01 4.75246E-28
5.73905E-01 4.56820E-28
5.78217E-01 4.39137E-28
5.82524E-01 4.22166E-28
5.86824E-01 4.05877E-28
5.91118E-01 3.90240E-28
5.95404E-01 3.75229E-28
5.99684E-01 3.60817E-28
6.03956E-01 3.46979E-28
6.08220E-01 3.33692E-28
6.12476E-01 3.20932E-28
6.16723E-01 3.08677E-28
6.20961E-01 2.96906E-28
6.25190E-01 2.85600E-28
6.29410E-01 2.74740E-28
6.33619E-01 2.64306E-28
6.37819E-01 2.54281E-28
6.42008E-01 2.44649E-28
6.46186E-01 2.35394E-28
6.50353E-01 2.26499E-28
6.54508E-01 2.17951E-28
6.58652E-01 2.09735E-28
6.62784E-01 2.01838E-28
6.66903E-01 1.94246E-28
6.71010E-01 1.86948E-28
6.75104E-01 1.79932E-28
6.79184E-01 1.73186E-28
6.83251E-01 1.66699E-28
6.87303E-01 1.60461E-28
6.91342E-01 1.54463E-28
6.95366E-01 1.48693E-28
6.99375E-01 1.43144E-28
7.03368E-01 1.37807E-28
7.07347E-01 1.32672E-28
7.11309E-01 1.27733E-28
7.15256E-01 1.22980E-28
7.19186E-01 1.18408E-28
7.23099E-01 1.14009E-28
7.26995E-01 1.09775E-28
7.30874E-01 1.05701E-28
7.34736E-01 1.01781E-28
7.38579E-01 9.80069E-29
7.42405E-01 9.43748E-29
7.46212E-01 9.08786E-29
7.50000E-01 8.75130E-29
7.53769E-01 8.42729E-29
7.57519E-01 8.11535E-29
7.61249E-01 7.81501E-29
7.64960E-01 7.52582E-29
7.68650E-01 7.24735E-29
7.72320E-01 6.97919E-29
7.75968E-01 6.72094E-29
7.79596E-01 6.47222E-29
7.83203E-01 6.23266E-29
7.86788E-01 6.00191E-29
7.90351E-01 5.77964E-29
7.93893E-01 5.56552E-29
7.97411E-01 5.35925E-29
8.00908E-01 5.16052E-29
8.04381E-01 4.96905E-29
8.07831E-01 4.78456E-29
8.11257E-01 4.60678E-29
8.14660E-01 4.43548E-29
8.18039E-01 4.27039E-29
8.21394E-01 4.11130E-29
8.24724E-01 3.95796E-29
8.28030E-01 3.81017E-29
8.31310E-01 3.66773E-29
8.34565E-01 3.53042E-29
8.37795E-01 3.39806E-29
8.40999E-01 3.27046E-29
8.44177E-01 3.14745E-29
8.47329E-01 3.02885E-29
8.50455E-01 2.91451E-29
8.53553E-01 2.80427E-29
8.56625E-01 2.69796E-29
8.59670E-01 2.59546E-29
8.62687E-01 2.49662E-29
8.65677E-01 2.40131E-29
8.68639E-01 2.30939E-29
8.71572E-01 2.22074E-29
8.74478E-01 2.13524E-29
8.77355E-01 2.05279E-29
8.80203E-01 1.97326E-29
8.83022E-01 1.89655E-29
8.85812E-01 1.82256E-29
8.88573E-01 1.75120E-29
8.91304E-01 1.68236E-29
8.94005E-01 1.61595E-29
8.96677E-01 1.55190E-29
8.99318E-01 1.49011E-29
9.01928E-01 1.43050E-29
9.04508E-01 1.37300E-29
9.07058E-01 1.31752E-29
9.09576E-01 1.26401E-29
9.12063E-01 1.21239E-29
9.14519E-01 1.16259E-29
9.16943E-01 1.11454E-29
9.19335E-01 1.06820E-29
9.21696E-01 1.02349E-29
9.24024E-01 9.80361E-30
9.26320E-01 9.38758E-30
9.28584E-01 8.98627E-30
9.30815E-01 8.59918E-30
9.33013E-01 8.22580E-30
9.35178E-01 7.86568E-30
9.37310E-01 7.51836E-30
9.39409E-01 7.18340E-30
9.41474E-01 6.86038E-30
9.43505E-01 6.54889E-30
9.45503E-01 6.24856E-30
9.47467E-01 5.95900E-30
9.49397E-01 5.67986E-30
9.51293E-01 5.41078E-30
9.53154E-01 5.15144E-30
9.54981E-01 4.90152E-30
9.56773E-01 4.66071E-30
9.58530E-01 4.42871E-30
9.60252E-01 4.20524E-30
9.61940E-01 3.99002E-30
9.63592E-01 3.78280E-30
9.65209E-01 3.58332E-30
9.66790E-01 3.39133E-30
9.68336E-01 3.20661E-30
9.69846E-01 3.02893E-30
9.71321E-01 2.85807E-30
9.72759E-01 2.69384E-30
9.74162E-01 2.53603E-30
9.75528E-01 2.38444E-30
9.76858E-01 2.23891E-30
9.78152E-01 2.09926E-30
9.79410E-01 1.96531E-30
9.80631E-01 1.83691E-30
9.81815E-01 1.71391E-30
9.82963E-01 1.59615E-30
9.84074E-01 1.48351E-30
9.85148E-01 1.37584E-30
9.86185E-01 1.27302E-30
9.87185E-01 1.17492E-30
9.88148E-01 1.08143E-30
9.89074E-01 9.92449E-31
9.89962E-01 9.07857E-31
9.90814E-01 8.27561E-31
9.91627E-01 7.51465E-31
9.92404E-01 6.79481E-31
9.93143E-01 6.11524E-31
9.93844E-01 5.47513E-31
9.94508E-01 4.87375E-31
9.95134E-01 4.31038E-31
9.95722E-01 3.78438E-31
9.96273E-01 3.29512E-31
9.96786E-01 2.84203E-31
9.97261E-01 2.42459E-31
9.97698E-01 2.04231E-31
9.98097E-01 1.69474E-31
9.98459E-01 1.38147E-31
9.98782E-01 1.10216E-31
9.99067E-01 8.56462E-32
9.99315E-01 6.44099E-32
9.99524E-01 4.64823E-32
9.99695E-01 3.18425E-32
9.99829E-01 2.04737E-32
9.99924E-01 1.23625E-32
9.99981E-01 7.49955E-33
1.00000E+00 5.87899E-33
