 #
 # Subroutine ELSEPA. Elastic scattering of electrons and positrons
 #                    by neutral atoms and positive ions
 #
 # Projectile: electron
 # Kinetic energy = 7.00000E+06 eV = 2.57245E+05 a.u.
 #
 # WARNING: High-energy factorization with free-atom DF screening.
 #          Absorption, polarization and exchange corrections are
 #          switched off.
 #          Phase shifts are calculated for the bare nucleus.
 #          Scattering amplitudes are not evaluated.
 #
 # Element: Ru,  Z =  44,  atomic weight = 1.01070E+02 g/mol
 #
 # Nuclear model: Fermi distribution
 #                Average radius = 4.98415E-13 cm
 #                Skin thickness = 5.46000E-14 cm
 #
 # Number of electrons = 44
 #
 # Total elastic cross section = 4.19232E-18 cm**2 = 1.49711E-01 a0**2
 # 1st transport cross section = 5.72574E-23 cm**2 = 2.04470E-06 a0**2
 # 2nd transport cross section = 1.61209E-22 cm**2 = 5.75689E-06 a0**2
 #
 #
 # Differential cross section:                       MU=(1-COS(THETA))/2
 #
 #  THETA        MU          DCS          DCS        Sherman      error
 #  (deg)                 (cm**2/sr)   (a0**2/sr)    function
 #----------------------------------------------------------------------
0.00000E+00 1.92046E-12
7.61557E-13 1.92043E-12
1.18994E-12 1.92041E-12
1.71346E-12 1.92039E-12
2.33225E-12 1.92037E-12
3.04617E-12 1.92035E-12
3.85530E-12 1.92032E-12
4.75964E-12 1.92028E-12
5.75917E-12 1.92025E-12
6.85391E-12 1.92021E-12
8.04379E-12 1.92016E-12
9.32893E-12 1.92012E-12
1.07092E-11 1.92007E-12
1.21847E-11 1.92001E-12
1.37554E-11 1.91995E-12
1.54213E-11 1.91989E-12
1.71823E-11 1.91983E-12
1.90386E-11 1.91976E-12
2.09900E-11 1.91969E-12
2.30367E-11 1.91962E-12
2.51785E-11 1.91954E-12
2.74156E-11 1.91946E-12
2.97478E-11 1.91937E-12
3.21752E-11 1.91928E-12
3.46979E-11 1.91919E-12
3.73157E-11 1.91909E-12
4.00286E-11 1.91900E-12
4.28368E-11 1.91889E-12
4.57402E-11 1.91879E-12
4.87388E-11 1.91868E-12
5.18325E-11 1.91857E-12
5.50215E-11 1.91845E-12
5.83057E-11 1.91833E-12
6.16850E-11 1.91821E-12
6.51595E-11 1.91808E-12
6.87293E-11 1.91795E-12
7.23943E-11 1.91782E-12
7.61544E-11 1.91768E-12
1.18991E-10 1.91612E-12
1.71347E-10 1.91422E-12
2.33223E-10 1.91198E-12
3.04617E-10 1.90940E-12
3.85531E-10 1.90649E-12
4.75965E-10 1.90324E-12
5.75917E-10 1.89966E-12
6.85389E-10 1.89576E-12
8.04380E-10 1.89153E-12
9.32891E-10 1.88698E-12
1.07092E-09 1.88212E-12
1.21847E-09 1.87695E-12
1.37554E-09 1.87148E-12
1.54213E-09 1.86571E-12
1.71823E-09 1.85964E-12
1.90386E-09 1.85329E-12
2.09900E-09 1.84665E-12
2.30367E-09 1.83974E-12
2.51785E-09 1.83256E-12
2.74156E-09 1.82511E-12
2.97478E-09 1.81741E-12
3.21752E-09 1.80945E-12
3.46978E-09 1.80126E-12
3.73156E-09 1.79283E-12
4.00286E-09 1.78417E-12
4.28368E-09 1.77525E-12
4.57402E-09 1.76611E-12
4.87388E-09 1.75678E-12
5.18326E-09 1.74727E-12
5.50215E-09 1.73758E-12
5.83057E-09 1.72772E-12
6.16850E-09 1.71771E-12
6.51596E-09 1.70750E-12
6.87293E-09 1.69705E-12
7.23942E-09 1.68647E-12
7.61544E-09 1.67576E-12
1.18991E-08 1.56251E-12
1.71347E-08 1.44234E-12
2.33223E-08 1.32116E-12
3.04617E-08 1.20372E-12
3.85531E-08 1.09239E-12
4.75965E-08 9.89234E-13
5.75917E-08 8.95038E-13
6.85389E-08 8.09275E-13
8.04380E-08 7.32169E-13
9.32891E-08 6.62907E-13
1.07092E-07 6.00627E-13
1.21847E-07 5.44956E-13
1.37554E-07 4.94930E-13
1.54213E-07 4.50014E-13
1.71823E-07 4.09776E-13
1.90386E-07 3.73425E-13
2.09900E-07 3.40742E-13
2.30367E-07 3.11319E-13
2.51785E-07 2.84636E-13
2.74156E-07 2.60582E-13
2.97478E-07 2.38803E-13
3.21752E-07 2.19032E-13
3.46978E-07 2.01145E-13
3.73156E-07 1.84874E-13
4.00286E-07 1.70090E-13
4.28368E-07 1.55880E-13
4.57402E-07 1.42976E-13
4.87388E-07 1.31574E-13
5.18325E-07 1.21467E-13
5.50215E-07 1.12477E-13
5.83057E-07 1.04456E-13
6.16850E-07 9.72789E-14
6.51596E-07 9.04299E-14
6.87293E-07 8.36800E-14
7.23942E-07 7.76239E-14
7.61543E-07 7.21760E-14
1.18991E-06 3.74534E-14
1.71347E-06 2.14208E-14
2.33223E-06 1.33176E-14
3.04617E-06 8.83626E-15
3.85531E-06 6.12036E-15
4.75964E-06 4.37798E-15
5.75916E-06 3.20865E-15
6.85388E-06 2.39075E-15
8.04378E-06 1.81186E-15
9.32888E-06 1.39331E-15
1.07092E-05 1.08569E-15
1.21846E-05 8.57127E-16
1.37553E-05 6.85118E-16
1.54212E-05 5.54131E-16
1.71822E-05 4.53169E-16
1.90385E-05 3.74190E-16
2.09899E-05 3.11982E-16
2.30365E-05 2.62308E-16
2.51783E-05 2.22218E-16
2.74153E-05 1.89598E-16
2.97475E-05 1.62818E-16
3.21749E-05 1.40650E-16
3.46974E-05 1.22172E-16
3.73152E-05 1.06651E-16
4.00281E-05 9.35331E-17
4.28362E-05 8.23420E-17
4.57395E-05 7.28006E-17
4.87380E-05 6.46444E-17
5.18317E-05 5.75499E-17
5.50205E-05 5.14076E-17
5.83045E-05 4.60866E-17
6.16838E-05 4.14000E-17
6.51582E-05 3.73012E-17
6.87277E-05 3.37114E-17
7.23925E-05 3.05195E-17
7.61524E-05 2.77027E-17
9.21439E-05 1.92112E-17
1.09658E-04 1.37179E-17
1.28695E-04 1.00515E-17
1.49255E-04 7.52913E-18
1.71338E-04 5.74946E-18
1.94942E-04 4.46610E-18
2.20070E-04 3.52179E-18
2.46720E-04 2.81474E-18
2.74892E-04 2.27691E-18
3.04586E-04 1.86185E-18
3.35803E-04 1.53743E-18
3.68542E-04 1.28088E-18
4.02802E-04 1.07579E-18
4.38585E-04 9.10268E-19
4.75889E-04 7.75471E-19
5.14715E-04 6.64775E-19
5.55063E-04 5.73201E-19
5.96931E-04 4.96895E-19
6.40321E-04 4.32901E-19
6.85233E-04 3.78913E-19
7.31665E-04 3.33094E-19
7.79618E-04 2.94013E-19
8.29092E-04 2.60511E-19
8.80086E-04 2.31655E-19
9.32601E-04 2.06694E-19
9.86636E-04 1.85013E-19
1.04219E-03 1.66106E-19
1.09927E-03 1.49559E-19
1.15786E-03 1.35026E-19
1.21797E-03 1.22219E-19
1.27961E-03 1.10899E-19
1.34276E-03 1.00861E-19
1.40743E-03 9.19368E-20
1.47362E-03 8.39802E-20
1.54133E-03 7.68676E-20
1.61056E-03 7.04943E-20
1.68131E-03 6.47695E-20
1.75357E-03 5.96156E-20
1.82735E-03 5.49658E-20
1.90265E-03 5.07615E-20
1.97947E-03 4.69529E-20
2.05780E-03 4.34959E-20
2.13765E-03 4.03521E-20
2.21902E-03 3.74881E-20
2.30190E-03 3.48746E-20
2.38630E-03 3.24856E-20
2.47222E-03 3.02984E-20
2.55965E-03 2.82929E-20
2.64859E-03 2.64511E-20
2.73905E-03 2.47574E-20
2.83103E-03 2.31975E-20
2.92452E-03 2.17591E-20
3.01952E-03 2.04309E-20
3.11604E-03 1.92029E-20
3.21407E-03 1.80661E-20
3.31362E-03 1.70126E-20
3.41468E-03 1.60351E-20
3.51725E-03 1.51272E-20
3.62133E-03 1.42829E-20
3.72692E-03 1.34969E-20
3.83403E-03 1.27645E-20
3.94265E-03 1.20814E-20
4.05278E-03 1.14436E-20
4.16442E-03 1.08475E-20
4.27757E-03 1.02899E-20
4.39223E-03 9.76790E-21
4.50840E-03 9.27877E-21
4.62608E-03 8.82001E-21
4.74527E-03 8.38943E-21
4.86597E-03 7.98494E-21
4.98817E-03 7.60468E-21
5.11188E-03 7.24692E-21
5.23711E-03 6.91007E-21
5.36383E-03 6.59269E-21
5.49207E-03 6.29342E-21
5.62181E-03 6.01107E-21
5.75306E-03 5.74445E-21
5.88581E-03 5.49255E-21
6.02007E-03 5.25439E-21
6.15583E-03 5.02909E-21
6.29310E-03 4.81582E-21
6.43187E-03 4.61380E-21
6.57214E-03 4.42235E-21
6.71392E-03 4.24078E-21
6.85720E-03 4.06851E-21
7.00198E-03 3.90495E-21
7.14827E-03 3.74959E-21
7.29605E-03 3.60193E-21
7.44534E-03 3.46153E-21
7.59612E-03 3.32794E-21
7.97965E-03 3.02132E-21
8.37255E-03 2.74946E-21
8.77480E-03 2.50771E-21
9.18641E-03 2.29216E-21
9.60736E-03 2.09945E-21
1.00376E-02 1.92673E-21
1.04773E-02 1.77155E-21
1.09262E-02 1.63182E-21
1.13844E-02 1.50570E-21
1.18520E-02 1.39164E-21
1.23288E-02 1.28827E-21
1.28150E-02 1.19441E-21
1.33104E-02 1.10902E-21
1.38150E-02 1.03119E-21
1.43290E-02 9.60139E-22
1.48521E-02 8.95159E-22
1.53845E-02 8.35636E-22
1.59262E-02 7.81027E-22
1.64770E-02 7.30851E-22
1.70371E-02 6.84681E-22
1.76063E-02 6.42137E-22
1.81848E-02 6.02880E-22
1.87724E-02 5.66609E-22
1.93692E-02 5.33053E-22
1.99751E-02 5.01972E-22
2.05901E-02 4.73147E-22
2.12143E-02 4.46385E-22
2.18476E-02 4.21509E-22
2.24900E-02 3.98361E-22
2.31415E-02 3.76798E-22
2.38021E-02 3.56691E-22
2.44717E-02 3.37923E-22
2.51504E-02 3.20387E-22
2.58382E-02 3.03987E-22
2.65349E-02 2.88636E-22
2.72407E-02 2.74252E-22
2.79555E-02 2.60764E-22
2.86793E-02 2.48105E-22
2.94120E-02 2.36214E-22
3.01537E-02 2.25036E-22
3.09043E-02 2.14519E-22
3.16639E-02 2.04617E-22
3.24324E-02 1.95286E-22
3.32098E-02 1.86488E-22
3.39961E-02 1.78186E-22
3.47912E-02 1.70346E-22
3.55952E-02 1.62938E-22
3.64081E-02 1.55933E-22
3.72297E-02 1.49306E-22
3.80602E-02 1.43031E-22
3.88995E-02 1.37087E-22
3.97476E-02 1.31452E-22
4.06044E-02 1.26107E-22
4.14700E-02 1.21034E-22
4.23443E-02 1.16218E-22
4.32273E-02 1.11641E-22
4.41190E-02 1.07290E-22
4.50194E-02 1.03152E-22
4.59284E-02 9.92140E-23
4.68461E-02 9.54646E-23
4.87074E-02 8.84885E-23
5.06030E-02 8.21456E-23
5.25328E-02 7.63676E-23
5.44967E-02 7.10946E-23
5.64946E-02 6.62745E-23
5.85262E-02 6.18607E-23
6.05914E-02 5.78125E-23
6.26901E-02 5.40938E-23
6.48222E-02 5.06726E-23
6.69873E-02 4.75208E-23
6.91854E-02 4.46130E-23
7.14163E-02 4.19266E-23
7.36799E-02 3.94414E-23
7.59760E-02 3.71397E-23
7.83043E-02 3.50052E-23
8.06647E-02 3.30233E-23
8.30571E-02 3.11811E-23
8.54812E-02 2.94668E-23
8.79369E-02 2.78698E-23
9.04240E-02 2.63806E-23
9.29422E-02 2.49903E-23
9.54915E-02 2.36912E-23
9.80716E-02 2.24761E-23
1.00682E-01 2.13385E-23
1.03323E-01 2.02726E-23
1.05995E-01 1.92728E-23
1.08696E-01 1.83343E-23
1.11427E-01 1.74526E-23
1.14188E-01 1.66236E-23
1.16978E-01 1.58436E-23
1.19797E-01 1.51089E-23
1.22645E-01 1.44166E-23
1.25522E-01 1.37636E-23
1.28428E-01 1.31473E-23
1.31361E-01 1.25653E-23
1.34323E-01 1.20152E-23
1.37313E-01 1.14949E-23
1.40330E-01 1.10025E-23
1.43375E-01 1.05362E-23
1.46447E-01 1.00945E-23
1.49545E-01 9.67559E-24
1.52671E-01 9.27819E-24
1.55823E-01 8.90096E-24
1.59001E-01 8.54269E-24
1.62205E-01 8.20225E-24
1.65435E-01 7.87853E-24
1.68690E-01 7.57054E-24
1.71970E-01 7.27740E-24
1.75276E-01 6.99827E-24
1.78606E-01 6.73234E-24
1.81961E-01 6.47879E-24
1.85340E-01 6.23696E-24
1.88743E-01 6.00630E-24
1.92169E-01 5.78610E-24
1.95619E-01 5.57577E-24
1.99092E-01 5.37482E-24
2.02589E-01 5.18276E-24
2.06107E-01 4.99911E-24
2.09649E-01 4.82342E-24
2.13212E-01 4.65526E-24
2.16797E-01 4.49428E-24
2.20404E-01 4.34009E-24
2.24032E-01 4.19236E-24
2.27680E-01 4.05075E-24
2.31350E-01 3.91496E-24
2.35040E-01 3.78472E-24
2.38751E-01 3.65975E-24
2.42481E-01 3.53978E-24
2.46231E-01 3.42459E-24
2.50000E-01 3.31394E-24
2.53788E-01 3.20762E-24
2.57595E-01 3.10543E-24
2.61421E-01 3.00717E-24
2.65264E-01 2.91267E-24
2.69126E-01 2.82175E-24
2.73005E-01 2.73425E-24
2.76901E-01 2.65002E-24
2.80814E-01 2.56891E-24
2.84744E-01 2.49078E-24
2.88691E-01 2.41550E-24
2.92653E-01 2.34295E-24
2.96632E-01 2.27301E-24
3.00625E-01 2.20556E-24
3.04634E-01 2.14051E-24
3.08658E-01 2.07774E-24
3.12697E-01 2.01717E-24
3.16749E-01 1.95869E-24
3.20816E-01 1.90223E-24
3.24896E-01 1.84771E-24
3.28990E-01 1.79503E-24
3.33097E-01 1.74414E-24
3.37216E-01 1.69495E-24
3.41348E-01 1.64740E-24
3.45492E-01 1.60142E-24
3.49647E-01 1.55695E-24
3.53814E-01 1.51394E-24
3.57992E-01 1.47232E-24
3.62181E-01 1.43204E-24
3.66381E-01 1.39305E-24
3.70590E-01 1.35530E-24
3.74810E-01 1.31875E-24
3.79039E-01 1.28334E-24
3.83277E-01 1.24905E-24
3.87524E-01 1.21581E-24
3.91780E-01 1.18360E-24
3.96044E-01 1.15238E-24
4.00316E-01 1.12212E-24
4.04596E-01 1.09277E-24
4.08882E-01 1.06430E-24
4.13176E-01 1.03669E-24
4.17476E-01 1.00990E-24
4.21783E-01 9.83902E-25
4.26095E-01 9.58671E-25
4.30413E-01 9.34179E-25
4.34737E-01 9.10400E-25
4.39065E-01 8.87310E-25
4.43398E-01 8.64886E-25
4.47736E-01 8.43103E-25
4.52077E-01 8.21942E-25
4.56422E-01 8.01380E-25
4.60770E-01 7.81397E-25
4.65122E-01 7.61976E-25
4.69476E-01 7.43095E-25
4.73832E-01 7.24739E-25
4.78190E-01 7.06890E-25
4.82550E-01 6.89531E-25
4.86912E-01 6.72646E-25
4.91274E-01 6.56221E-25
4.95637E-01 6.40240E-25
5.00000E-01 6.24689E-25
5.04363E-01 6.09555E-25
5.08726E-01 5.94824E-25
5.13088E-01 5.80484E-25
5.17450E-01 5.66523E-25
5.21810E-01 5.52929E-25
5.26168E-01 5.39691E-25
5.30524E-01 5.26797E-25
5.34878E-01 5.14237E-25
5.39230E-01 5.02001E-25
5.43578E-01 4.90080E-25
5.47923E-01 4.78464E-25
5.52264E-01 4.67143E-25
5.56602E-01 4.56109E-25
5.60935E-01 4.45353E-25
5.65263E-01 4.34868E-25
5.69587E-01 4.24645E-25
5.73905E-01 4.14676E-25
5.78217E-01 4.04955E-25
5.82524E-01 3.95474E-25
5.86824E-01 3.86226E-25
5.91118E-01 3.77205E-25
5.95404E-01 3.68404E-25
5.99684E-01 3.59816E-25
6.03956E-01 3.51437E-25
6.08220E-01 3.43259E-25
6.12476E-01 3.35278E-25
6.16723E-01 3.27488E-25
6.20961E-01 3.19883E-25
6.25190E-01 3.12459E-25
6.29410E-01 3.05211E-25
6.33619E-01 2.98133E-25
6.37819E-01 2.91222E-25
6.42008E-01 2.84472E-25
6.46186E-01 2.77879E-25
6.50353E-01 2.71440E-25
6.54508E-01 2.65150E-25
6.58652E-01 2.59005E-25
6.62784E-01 2.53001E-25
6.66903E-01 2.47135E-25
6.71010E-01 2.41403E-25
6.75104E-01 2.35801E-25
6.79184E-01 2.30326E-25
6.83251E-01 2.24976E-25
6.87303E-01 2.19745E-25
6.91342E-01 2.14633E-25
6.95366E-01 2.09635E-25
6.99375E-01 2.04749E-25
7.03368E-01 1.99971E-25
7.07347E-01 1.95300E-25
7.11309E-01 1.90732E-25
7.15256E-01 1.86265E-25
7.19186E-01 1.81897E-25
7.23099E-01 1.77625E-25
7.26995E-01 1.73446E-25
7.30874E-01 1.69359E-25
7.34736E-01 1.65360E-25
7.38579E-01 1.61449E-25
7.42405E-01 1.57623E-25
7.46212E-01 1.53879E-25
7.50000E-01 1.50216E-25
7.53769E-01 1.46633E-25
7.57519E-01 1.43126E-25
7.61249E-01 1.39695E-25
7.64960E-01 1.36337E-25
7.68650E-01 1.33051E-25
7.72320E-01 1.29835E-25
7.75968E-01 1.26688E-25
7.79596E-01 1.23607E-25
7.83203E-01 1.20592E-25
7.86788E-01 1.17641E-25
7.90351E-01 1.14753E-25
7.93893E-01 1.11925E-25
7.97411E-01 1.09157E-25
8.00908E-01 1.06448E-25
8.04381E-01 1.03795E-25
8.07831E-01 1.01199E-25
8.11257E-01 9.86566E-26
8.14660E-01 9.61678E-26
8.18039E-01 9.37313E-26
8.21394E-01 9.13458E-26
8.24724E-01 8.90104E-26
8.28030E-01 8.67238E-26
8.31310E-01 8.44851E-26
8.34565E-01 8.22932E-26
8.37795E-01 8.01472E-26
8.40999E-01 7.80460E-26
8.44177E-01 7.59889E-26
8.47329E-01 7.39747E-26
8.50455E-01 7.20027E-26
8.53553E-01 7.00720E-26
8.56625E-01 6.81817E-26
8.59670E-01 6.63310E-26
8.62687E-01 6.45192E-26
8.65677E-01 6.27454E-26
8.68639E-01 6.10088E-26
8.71572E-01 5.93088E-26
8.74478E-01 5.76446E-26
8.77355E-01 5.60156E-26
8.80203E-01 5.44210E-26
8.83022E-01 5.28601E-26
8.85812E-01 5.13324E-26
8.88573E-01 4.98371E-26
8.91304E-01 4.83737E-26
8.94005E-01 4.69416E-26
8.96677E-01 4.55402E-26
8.99318E-01 4.41689E-26
9.01928E-01 4.28272E-26
9.04508E-01 4.15145E-26
9.07058E-01 4.02303E-26
9.09576E-01 3.89741E-26
9.12063E-01 3.77454E-26
9.14519E-01 3.65437E-26
9.16943E-01 3.53685E-26
9.19335E-01 3.42194E-26
9.21696E-01 3.30960E-26
9.24024E-01 3.19977E-26
9.26320E-01 3.09242E-26
9.28584E-01 2.98750E-26
9.30815E-01 2.88498E-26
9.33013E-01 2.78481E-26
9.35178E-01 2.68696E-26
9.37310E-01 2.59139E-26
9.39409E-01 2.49806E-26
9.41474E-01 2.40695E-26
9.43505E-01 2.31800E-26
9.45503E-01 2.23120E-26
9.47467E-01 2.14651E-26
9.49397E-01 2.06389E-26
9.51293E-01 1.98332E-26
9.53154E-01 1.90476E-26
9.54981E-01 1.82820E-26
9.56773E-01 1.75359E-26
9.58530E-01 1.68091E-26
9.60252E-01 1.61014E-26
9.61940E-01 1.54125E-26
9.63592E-01 1.47422E-26
9.65209E-01 1.40901E-26
9.66790E-01 1.34562E-26
9.68336E-01 1.28400E-26
9.69846E-01 1.22415E-26
9.71321E-01 1.16604E-26
9.72759E-01 1.10965E-26
9.74162E-01 1.05496E-26
9.75528E-01 1.00195E-26
9.76858E-01 9.50596E-27
9.78152E-01 9.00890E-27
9.79410E-01 8.52809E-27
9.80631E-01 8.06337E-27
9.81815E-01 7.61457E-27
9.82963E-01 7.18155E-27
9.84074E-01 6.76413E-27
9.85148E-01 6.36219E-27
9.86185E-01 5.97558E-27
9.87185E-01 5.60416E-27
9.88148E-01 5.24780E-27
9.89074E-01 4.90639E-27
9.89962E-01 4.57980E-27
9.90814E-01 4.26792E-27
9.91627E-01 3.97064E-27
9.92404E-01 3.68786E-27
9.93143E-01 3.41948E-27
9.93844E-01 3.16542E-27
9.94508E-01 2.92557E-27
9.95134E-01 2.69987E-27
9.95722E-01 2.48823E-27
9.96273E-01 2.29058E-27
9.96786E-01 2.10685E-27
9.97261E-01 1.93698E-27
9.97698E-01 1.78092E-27
9.98097E-01 1.63860E-27
9.98459E-01 1.50998E-27
9.98782E-01 1.39502E-27
9.99067E-01 1.29368E-27
9.99315E-01 1.20591E-27
9.99524E-01 1.13170E-27
9.99695E-01 1.07102E-27
9.99829E-01 1.02384E-27
9.99924E-01 9.90157E-28
9.99981E-01 9.69950E-28
1.00000E+00 9.63215E-28
