 #
 # Subroutine ELSEPA. Elastic scattering of electrons and positrons
 #                    by neutral atoms and positive ions
 #
 # Projectile: electron
 # Kinetic energy = 2.50000E+06 eV = 9.18733E+04 a.u.
 #
 # WARNING: High-energy factorization with free-atom DF screening.
 #          Absorption, polarization and exchange corrections are
 #          switched off.
 #          Phase shifts are calculated for the bare nucleus.
 #          Scattering amplitudes are not evaluated.
 #
 # Element: Ru,  Z =  44,  atomic weight = 1.01070E+02 g/mol
 #
 # Nuclear model: Fermi distribution
 #                Average radius = 4.98415E-13 cm
 #                Skin thickness = 5.46000E-14 cm
 #
 # Number of electrons = 44
 #
 # Total elastic cross section = 4.29841E-18 cm**2 = 1.53499E-01 a0**2
 # 1st transport cross section = 3.21210E-22 cm**2 = 1.14706E-05 a0**2
 # 2nd transport cross section = 8.91845E-22 cm**2 = 3.18484E-05 a0**2
 #
 #
 # Differential cross section:                       MU=(1-COS(THETA))/2
 #
 #  THETA        MU          DCS          DCS        Sherman      error
 #  (deg)                 (cm**2/sr)   (a0**2/sr)    function
 #----------------------------------------------------------------------
0.00000E+00 3.08624E-13
7.61557E-13 3.08624E-13
1.18994E-12 3.08624E-13
1.71346E-12 3.08623E-13
2.33225E-12 3.08623E-13
3.04617E-12 3.08622E-13
3.85530E-12 3.08621E-13
4.75964E-12 3.08620E-13
5.75917E-12 3.08619E-13
6.85391E-12 3.08618E-13
8.04379E-12 3.08617E-13
9.32893E-12 3.08616E-13
1.07092E-11 3.08615E-13
1.21847E-11 3.08614E-13
1.37554E-11 3.08612E-13
1.54213E-11 3.08611E-13
1.71823E-11 3.08609E-13
1.90386E-11 3.08607E-13
2.09900E-11 3.08606E-13
2.30367E-11 3.08604E-13
2.51785E-11 3.08602E-13
2.74156E-11 3.08600E-13
2.97478E-11 3.08598E-13
3.21752E-11 3.08596E-13
3.46979E-11 3.08593E-13
3.73157E-11 3.08591E-13
4.00286E-11 3.08588E-13
4.28368E-11 3.08586E-13
4.57402E-11 3.08583E-13
4.87388E-11 3.08580E-13
5.18325E-11 3.08578E-13
5.50215E-11 3.08575E-13
5.83057E-11 3.08572E-13
6.16850E-11 3.08569E-13
6.51595E-11 3.08565E-13
6.87293E-11 3.08562E-13
7.23943E-11 3.08559E-13
7.61544E-11 3.08555E-13
1.18991E-10 3.08516E-13
1.71347E-10 3.08468E-13
2.33223E-10 3.08412E-13
3.04617E-10 3.08347E-13
3.85531E-10 3.08273E-13
4.75965E-10 3.08190E-13
5.75917E-10 3.08099E-13
6.85389E-10 3.07999E-13
8.04380E-10 3.07890E-13
9.32891E-10 3.07773E-13
1.07092E-09 3.07647E-13
1.21847E-09 3.07512E-13
1.37554E-09 3.07369E-13
1.54213E-09 3.07218E-13
1.71823E-09 3.07058E-13
1.90386E-09 3.06889E-13
2.09900E-09 3.06712E-13
2.30367E-09 3.06526E-13
2.51785E-09 3.06332E-13
2.74156E-09 3.06130E-13
2.97478E-09 3.05919E-13
3.21752E-09 3.05700E-13
3.46978E-09 3.05473E-13
3.73156E-09 3.05237E-13
4.00286E-09 3.04994E-13
4.28368E-09 3.04742E-13
4.57402E-09 3.04482E-13
4.87388E-09 3.04213E-13
5.18326E-09 3.03937E-13
5.50215E-09 3.03653E-13
5.83057E-09 3.03361E-13
6.16850E-09 3.03061E-13
6.51596E-09 3.02752E-13
6.87293E-09 3.02437E-13
7.23942E-09 3.02113E-13
7.61544E-09 3.01781E-13
1.18991E-08 2.98053E-13
1.71347E-08 2.93611E-13
2.33223E-08 2.88518E-13
3.04617E-08 2.82827E-13
3.85531E-08 2.76651E-13
4.75965E-08 2.70020E-13
5.75917E-08 2.63064E-13
6.85389E-08 2.55782E-13
8.04380E-08 2.48336E-13
9.32891E-08 2.40690E-13
1.07092E-07 2.33006E-13
1.21847E-07 2.25256E-13
1.37554E-07 2.17555E-13
1.54213E-07 2.09902E-13
1.71823E-07 2.02356E-13
1.90386E-07 1.94952E-13
2.09900E-07 1.87686E-13
2.30367E-07 1.80634E-13
2.51785E-07 1.73733E-13
2.74156E-07 1.67097E-13
2.97478E-07 1.60610E-13
3.21752E-07 1.54405E-13
3.46978E-07 1.48369E-13
3.73156E-07 1.42600E-13
4.00286E-07 1.37023E-13
4.28368E-07 1.31683E-13
4.57402E-07 1.26551E-13
4.87388E-07 1.21625E-13
5.18325E-07 1.16916E-13
5.50215E-07 1.12380E-13
5.83057E-07 1.08066E-13
6.16850E-07 1.03894E-13
6.51596E-07 9.99449E-14
6.87293E-07 9.61111E-14
7.23942E-07 9.24818E-14
7.61543E-07 8.89742E-14
1.18991E-06 6.11736E-14
1.71347E-06 4.27952E-14
2.33223E-06 3.04409E-14
3.04617E-06 2.17256E-14
3.85531E-06 1.60492E-14
4.75964E-06 1.19509E-14
5.75916E-06 9.12348E-15
6.85388E-06 7.01700E-15
8.04378E-06 5.52498E-15
9.32888E-06 4.39241E-15
1.07092E-05 3.55763E-15
1.21846E-05 2.91352E-15
1.37553E-05 2.41887E-15
1.54212E-05 2.02843E-15
1.71822E-05 1.71766E-15
1.90385E-05 1.46672E-15
2.09899E-05 1.26111E-15
2.30365E-05 1.09239E-15
2.51783E-05 9.49598E-16
2.74153E-05 8.31091E-16
2.97475E-05 7.28472E-16
3.21749E-05 6.42383E-16
3.46974E-05 5.67253E-16
3.73152E-05 5.03256E-16
4.00281E-05 4.47297E-16
4.28362E-05 3.98900E-16
4.57395E-05 3.56527E-16
4.87380E-05 3.19418E-16
5.18317E-05 2.86900E-16
5.50205E-05 2.58149E-16
5.83045E-05 2.32934E-16
6.16838E-05 2.10500E-16
6.51582E-05 1.90789E-16
6.87277E-05 1.73100E-16
7.23925E-05 1.57475E-16
7.61524E-05 1.43491E-16
9.21439E-05 1.00934E-16
1.09658E-04 7.30607E-17
1.28695E-04 5.42273E-17
1.49255E-04 4.11369E-17
1.71338E-04 3.18161E-17
1.94942E-04 2.50239E-17
2.20070E-04 1.99688E-17
2.46720E-04 1.61358E-17
2.74892E-04 1.31755E-17
3.04586E-04 1.08732E-17
3.35803E-04 9.04985E-18
3.68542E-04 7.59626E-18
4.02802E-04 6.41799E-18
4.38585E-04 5.46258E-18
4.75889E-04 4.67401E-18
5.14715E-04 4.02480E-18
5.55063E-04 3.48188E-18
5.96931E-04 3.02832E-18
6.40321E-04 2.64524E-18
6.85233E-04 2.32103E-18
7.31665E-04 2.04466E-18
7.79618E-04 1.80815E-18
8.29092E-04 1.60485E-18
8.80086E-04 1.42919E-18
9.32601E-04 1.27706E-18
9.86636E-04 1.14447E-18
1.04219E-03 1.02881E-18
1.09927E-03 9.27274E-19
1.15786E-03 8.38084E-19
1.21797E-03 7.59318E-19
1.27961E-03 6.89658E-19
1.34276E-03 6.27806E-19
1.40743E-03 5.72770E-19
1.47362E-03 5.23656E-19
1.54133E-03 4.79710E-19
1.61056E-03 4.40307E-19
1.68131E-03 4.04874E-19
1.75357E-03 3.72966E-19
1.82735E-03 3.44140E-19
1.90265E-03 3.18073E-19
1.97947E-03 2.94428E-19
2.05780E-03 2.72961E-19
2.13765E-03 2.53420E-19
2.21902E-03 2.35609E-19
2.30190E-03 2.19343E-19
2.38630E-03 2.04465E-19
2.47222E-03 1.90835E-19
2.55965E-03 1.78327E-19
2.64859E-03 1.66835E-19
2.73905E-03 1.56257E-19
2.83103E-03 1.46512E-19
2.92452E-03 1.37516E-19
3.01952E-03 1.29207E-19
3.11604E-03 1.21517E-19
3.21407E-03 1.14396E-19
3.31362E-03 1.07791E-19
3.41468E-03 1.01659E-19
3.51725E-03 9.59597E-20
3.62133E-03 9.06564E-20
3.72692E-03 8.57170E-20
3.83403E-03 8.11108E-20
3.94265E-03 7.68126E-20
4.05278E-03 7.27959E-20
4.16442E-03 6.90413E-20
4.27757E-03 6.55257E-20
4.39223E-03 6.22334E-20
4.50840E-03 5.91458E-20
4.62608E-03 5.62491E-20
4.74527E-03 5.35282E-20
4.86597E-03 5.09711E-20
4.98817E-03 4.85658E-20
5.11188E-03 4.63014E-20
5.23711E-03 4.41686E-20
5.36383E-03 4.21576E-20
5.49207E-03 4.02609E-20
5.62181E-03 3.84698E-20
5.75306E-03 3.67784E-20
5.88581E-03 3.51790E-20
6.02007E-03 3.36666E-20
6.15583E-03 3.22348E-20
6.29310E-03 3.08790E-20
6.43187E-03 2.95941E-20
6.57214E-03 2.83759E-20
6.71392E-03 2.72201E-20
6.85720E-03 2.61229E-20
7.00198E-03 2.50809E-20
7.14827E-03 2.40906E-20
7.29605E-03 2.31491E-20
7.44534E-03 2.22534E-20
7.59612E-03 2.14010E-20
7.97965E-03 1.94429E-20
8.37255E-03 1.77052E-20
8.77480E-03 1.61587E-20
9.18641E-03 1.47786E-20
9.60736E-03 1.35438E-20
1.00376E-02 1.24362E-20
1.04773E-02 1.14404E-20
1.09262E-02 1.05431E-20
1.13844E-02 9.73271E-21
1.18520E-02 8.99934E-21
1.23288E-02 8.33433E-21
1.28150E-02 7.73013E-21
1.33104E-02 7.18016E-21
1.38150E-02 6.67868E-21
1.43290E-02 6.22060E-21
1.48521E-02 5.80148E-21
1.53845E-02 5.41741E-21
1.59262E-02 5.06488E-21
1.64770E-02 4.74085E-21
1.70371E-02 4.44257E-21
1.76063E-02 4.16761E-21
1.81848E-02 3.91381E-21
1.87724E-02 3.67924E-21
1.93692E-02 3.46216E-21
1.99751E-02 3.26102E-21
2.05901E-02 3.07444E-21
2.12143E-02 2.90115E-21
2.18476E-02 2.74003E-21
2.24900E-02 2.59007E-21
2.31415E-02 2.45034E-21
2.38021E-02 2.32002E-21
2.44717E-02 2.19834E-21
2.51504E-02 2.08463E-21
2.58382E-02 1.97826E-21
2.65349E-02 1.87867E-21
2.72407E-02 1.78534E-21
2.79555E-02 1.69781E-21
2.86793E-02 1.61564E-21
2.94120E-02 1.53844E-21
3.01537E-02 1.46586E-21
3.09043E-02 1.39756E-21
3.16639E-02 1.33324E-21
3.24324E-02 1.27262E-21
3.32098E-02 1.21546E-21
3.39961E-02 1.16151E-21
3.47912E-02 1.11056E-21
3.55952E-02 1.06240E-21
3.64081E-02 1.01687E-21
3.72297E-02 9.73776E-22
3.80602E-02 9.32972E-22
3.88995E-02 8.94313E-22
3.97476E-02 8.57660E-22
4.06044E-02 8.22892E-22
4.14700E-02 7.89891E-22
4.23443E-02 7.58550E-22
4.32273E-02 7.28769E-22
4.41190E-02 7.00455E-22
4.50194E-02 6.73521E-22
4.59284E-02 6.47886E-22
4.68461E-02 6.23476E-22
4.87074E-02 5.78055E-22
5.06030E-02 5.36748E-22
5.25328E-02 4.99113E-22
5.44967E-02 4.64761E-22
5.64946E-02 4.33353E-22
5.85262E-02 4.04588E-22
6.05914E-02 3.78201E-22
6.26901E-02 3.53958E-22
6.48222E-02 3.31651E-22
6.69873E-02 3.11097E-22
6.91854E-02 2.92131E-22
7.14163E-02 2.74606E-22
7.36799E-02 2.58392E-22
7.59760E-02 2.43372E-22
7.83043E-02 2.29441E-22
8.06647E-02 2.16505E-22
8.30571E-02 2.04478E-22
8.54812E-02 1.93285E-22
8.79369E-02 1.82856E-22
9.04240E-02 1.73129E-22
9.29422E-02 1.64047E-22
9.54915E-02 1.55560E-22
9.80716E-02 1.47620E-22
1.00682E-01 1.40185E-22
1.03323E-01 1.33218E-22
1.05995E-01 1.26682E-22
1.08696E-01 1.20546E-22
1.11427E-01 1.14780E-22
1.14188E-01 1.09358E-22
1.16978E-01 1.04255E-22
1.19797E-01 9.94491E-23
1.22645E-01 9.49188E-23
1.25522E-01 9.06453E-23
1.28428E-01 8.66114E-23
1.31361E-01 8.28009E-23
1.34323E-01 7.91989E-23
1.37313E-01 7.57917E-23
1.40330E-01 7.25669E-23
1.43375E-01 6.95125E-23
1.46447E-01 6.66178E-23
1.49545E-01 6.38729E-23
1.52671E-01 6.12683E-23
1.55823E-01 5.87955E-23
1.59001E-01 5.64465E-23
1.62205E-01 5.42138E-23
1.65435E-01 5.20905E-23
1.68690E-01 5.00703E-23
1.71970E-01 4.81470E-23
1.75276E-01 4.63151E-23
1.78606E-01 4.45694E-23
1.81961E-01 4.29051E-23
1.85340E-01 4.13175E-23
1.88743E-01 3.98024E-23
1.92169E-01 3.83559E-23
1.95619E-01 3.69742E-23
1.99092E-01 3.56538E-23
2.02589E-01 3.43915E-23
2.06107E-01 3.31842E-23
2.09649E-01 3.20290E-23
2.13212E-01 3.09232E-23
2.16797E-01 2.98643E-23
2.20404E-01 2.88499E-23
2.24032E-01 2.78778E-23
2.27680E-01 2.69458E-23
2.31350E-01 2.60519E-23
2.35040E-01 2.51943E-23
2.38751E-01 2.43712E-23
2.42481E-01 2.35810E-23
2.46231E-01 2.28220E-23
2.50000E-01 2.20928E-23
2.53788E-01 2.13920E-23
2.57595E-01 2.07183E-23
2.61421E-01 2.00704E-23
2.65264E-01 1.94470E-23
2.69126E-01 1.88472E-23
2.73005E-01 1.82698E-23
2.76901E-01 1.77138E-23
2.80814E-01 1.71783E-23
2.84744E-01 1.66623E-23
2.88691E-01 1.61651E-23
2.92653E-01 1.56858E-23
2.96632E-01 1.52236E-23
3.00625E-01 1.47778E-23
3.04634E-01 1.43477E-23
3.08658E-01 1.39326E-23
3.12697E-01 1.35319E-23
3.16749E-01 1.31450E-23
3.20816E-01 1.27714E-23
3.24896E-01 1.24105E-23
3.28990E-01 1.20617E-23
3.33097E-01 1.17246E-23
3.37216E-01 1.13988E-23
3.41348E-01 1.10837E-23
3.45492E-01 1.07789E-23
3.49647E-01 1.04841E-23
3.53814E-01 1.01988E-23
3.57992E-01 9.92277E-24
3.62181E-01 9.65553E-24
3.66381E-01 9.39677E-24
3.70590E-01 9.14619E-24
3.74810E-01 8.90346E-24
3.79039E-01 8.66830E-24
3.83277E-01 8.44041E-24
3.87524E-01 8.21954E-24
3.91780E-01 8.00543E-24
3.96044E-01 7.79783E-24
4.00316E-01 7.59650E-24
4.04596E-01 7.40122E-24
4.08882E-01 7.21177E-24
4.13176E-01 7.02794E-24
4.17476E-01 6.84955E-24
4.21783E-01 6.67639E-24
4.26095E-01 6.50828E-24
4.30413E-01 6.34504E-24
4.34737E-01 6.18652E-24
4.39065E-01 6.03254E-24
4.43398E-01 5.88294E-24
4.47736E-01 5.73760E-24
4.52077E-01 5.59634E-24
4.56422E-01 5.45905E-24
4.60770E-01 5.32559E-24
4.65122E-01 5.19583E-24
4.69476E-01 5.06966E-24
4.73832E-01 4.94694E-24
4.78190E-01 4.82758E-24
4.82550E-01 4.71147E-24
4.86912E-01 4.59849E-24
4.91274E-01 4.48855E-24
4.95637E-01 4.38155E-24
5.00000E-01 4.27740E-24
5.04363E-01 4.17601E-24
5.08726E-01 4.07729E-24
5.13088E-01 3.98115E-24
5.17450E-01 3.88753E-24
5.21810E-01 3.79634E-24
5.26168E-01 3.70750E-24
5.30524E-01 3.62095E-24
5.34878E-01 3.53661E-24
5.39230E-01 3.45442E-24
5.43578E-01 3.37432E-24
5.47923E-01 3.29624E-24
5.52264E-01 3.22012E-24
5.56602E-01 3.14591E-24
5.60935E-01 3.07355E-24
5.65263E-01 3.00298E-24
5.69587E-01 2.93415E-24
5.73905E-01 2.86701E-24
5.78217E-01 2.80152E-24
5.82524E-01 2.73763E-24
5.86824E-01 2.67528E-24
5.91118E-01 2.61444E-24
5.95404E-01 2.55507E-24
5.99684E-01 2.49711E-24
6.03956E-01 2.44054E-24
6.08220E-01 2.38532E-24
6.12476E-01 2.33140E-24
6.16723E-01 2.27875E-24
6.20961E-01 2.22735E-24
6.25190E-01 2.17714E-24
6.29410E-01 2.12810E-24
6.33619E-01 2.08021E-24
6.37819E-01 2.03342E-24
6.42008E-01 1.98771E-24
6.46186E-01 1.94305E-24
6.50353E-01 1.89941E-24
6.54508E-01 1.85677E-24
6.58652E-01 1.81510E-24
6.62784E-01 1.77437E-24
6.66903E-01 1.73456E-24
6.71010E-01 1.69565E-24
6.75104E-01 1.65761E-24
6.79184E-01 1.62041E-24
6.83251E-01 1.58405E-24
6.87303E-01 1.54849E-24
6.91342E-01 1.51372E-24
6.95366E-01 1.47972E-24
6.99375E-01 1.44647E-24
7.03368E-01 1.41394E-24
7.07347E-01 1.38213E-24
7.11309E-01 1.35101E-24
7.15256E-01 1.32056E-24
7.19186E-01 1.29078E-24
7.23099E-01 1.26164E-24
7.26995E-01 1.23313E-24
7.30874E-01 1.20524E-24
7.34736E-01 1.17794E-24
7.38579E-01 1.15122E-24
7.42405E-01 1.12508E-24
7.46212E-01 1.09950E-24
7.50000E-01 1.07445E-24
7.53769E-01 1.04994E-24
7.57519E-01 1.02595E-24
7.61249E-01 1.00246E-24
7.64960E-01 9.79473E-25
7.68650E-01 9.56965E-25
7.72320E-01 9.34930E-25
7.75968E-01 9.13357E-25
7.79596E-01 8.92235E-25
7.83203E-01 8.71554E-25
7.86788E-01 8.51305E-25
7.90351E-01 8.31477E-25
7.93893E-01 8.12061E-25
7.97411E-01 7.93049E-25
8.00908E-01 7.74431E-25
8.04381E-01 7.56198E-25
8.07831E-01 7.38343E-25
8.11257E-01 7.20858E-25
8.14660E-01 7.03733E-25
8.18039E-01 6.86962E-25
8.21394E-01 6.70537E-25
8.24724E-01 6.54450E-25
8.28030E-01 6.38695E-25
8.31310E-01 6.23265E-25
8.34565E-01 6.08152E-25
8.37795E-01 5.93350E-25
8.40999E-01 5.78853E-25
8.44177E-01 5.64655E-25
8.47329E-01 5.50749E-25
8.50455E-01 5.37129E-25
8.53553E-01 5.23790E-25
8.56625E-01 5.10726E-25
8.59670E-01 4.97931E-25
8.62687E-01 4.85401E-25
8.65677E-01 4.73130E-25
8.68639E-01 4.61113E-25
8.71572E-01 4.49344E-25
8.74478E-01 4.37820E-25
8.77355E-01 4.26536E-25
8.80203E-01 4.15487E-25
8.83022E-01 4.04668E-25
8.85812E-01 3.94076E-25
8.88573E-01 3.83705E-25
8.91304E-01 3.73553E-25
8.94005E-01 3.63614E-25
8.96677E-01 3.53886E-25
8.99318E-01 3.44364E-25
9.01928E-01 3.35044E-25
9.04508E-01 3.25924E-25
9.07058E-01 3.16998E-25
9.09576E-01 3.08265E-25
9.12063E-01 2.99721E-25
9.14519E-01 2.91362E-25
9.16943E-01 2.83185E-25
9.19335E-01 2.75187E-25
9.21696E-01 2.67366E-25
9.24024E-01 2.59718E-25
9.26320E-01 2.52240E-25
9.28584E-01 2.44930E-25
9.30815E-01 2.37785E-25
9.33013E-01 2.30802E-25
9.35178E-01 2.23979E-25
9.37310E-01 2.17313E-25
9.39409E-01 2.10802E-25
9.41474E-01 2.04444E-25
9.43505E-01 1.98236E-25
9.45503E-01 1.92175E-25
9.47467E-01 1.86261E-25
9.49397E-01 1.80490E-25
9.51293E-01 1.74861E-25
9.53154E-01 1.69371E-25
9.54981E-01 1.64019E-25
9.56773E-01 1.58803E-25
9.58530E-01 1.53721E-25
9.60252E-01 1.48771E-25
9.61940E-01 1.43952E-25
9.63592E-01 1.39261E-25
9.65209E-01 1.34697E-25
9.66790E-01 1.30260E-25
9.68336E-01 1.25946E-25
9.69846E-01 1.21754E-25
9.71321E-01 1.17684E-25
9.72759E-01 1.13734E-25
9.74162E-01 1.09902E-25
9.75528E-01 1.06187E-25
9.76858E-01 1.02588E-25
9.78152E-01 9.91032E-26
9.79410E-01 9.57321E-26
9.80631E-01 9.24733E-26
9.81815E-01 8.93257E-26
9.82963E-01 8.62882E-26
9.84074E-01 8.33598E-26
9.85148E-01 8.05396E-26
9.86185E-01 7.78265E-26
9.87185E-01 7.52198E-26
9.88148E-01 7.27185E-26
9.89074E-01 7.03217E-26
9.89962E-01 6.80288E-26
9.90814E-01 6.58388E-26
9.91627E-01 6.37512E-26
9.92404E-01 6.17652E-26
9.93143E-01 5.98802E-26
9.93844E-01 5.80955E-26
9.94508E-01 5.64106E-26
9.95134E-01 5.48249E-26
9.95722E-01 5.33379E-26
9.96273E-01 5.19490E-26
9.96786E-01 5.06579E-26
9.97261E-01 4.94641E-26
9.97698E-01 4.83673E-26
9.98097E-01 4.73670E-26
9.98459E-01 4.64630E-26
9.98782E-01 4.56549E-26
9.99067E-01 4.49425E-26
9.99315E-01 4.43256E-26
9.99524E-01 4.38039E-26
9.99695E-01 4.33773E-26
9.99829E-01 4.30456E-26
9.99924E-01 4.28088E-26
9.99981E-01 4.26667E-26
1.00000E+00 4.26194E-26
