 #
 # Subroutine ELSEPA. Elastic scattering of electrons and positrons
 #                    by neutral atoms and positive ions
 #
 # Projectile: electron
 # Kinetic energy = 4.50000E+08 eV = 1.65372E+07 a.u.
 #
 # WARNING: High-energy factorization with free-atom DF screening.
 #          Absorption, polarization and exchange corrections are
 #          switched off.
 #          Phase shifts are calculated for the bare nucleus.
 #          Scattering amplitudes are not evaluated.
 #
 # Element: Ru,  Z =  44,  atomic weight = 1.01070E+02 g/mol
 #
 # Nuclear model: Fermi distribution
 #                Average radius = 4.98415E-13 cm
 #                Skin thickness = 5.46000E-14 cm
 #
 # Number of electrons = 44
 #
 # Total elastic cross section = 4.16732E-18 cm**2 = 1.48818E-01 a0**2
 # 1st transport cross section = 1.89895E-26 cm**2 = 6.78126E-10 a0**2
 # 2nd transport cross section = 5.69397E-26 cm**2 = 2.03335E-09 a0**2
 #
 #
 # Differential cross section:                       MU=(1-COS(THETA))/2
 #
 #  THETA        MU          DCS          DCS        Sherman      error
 #  (deg)                 (cm**2/sr)   (a0**2/sr)    function
 #----------------------------------------------------------------------
0.00000E+00 6.90908E-09
7.61557E-13 6.56450E-09
1.18994E-12 6.38441E-09
1.71346E-12 6.17674E-09
2.33225E-12 5.94680E-09
3.04617E-12 5.70090E-09
3.85530E-12 5.44468E-09
4.75964E-12 5.18324E-09
5.75917E-12 4.92104E-09
6.85391E-12 4.66074E-09
8.04379E-12 4.40604E-09
9.32893E-12 4.15941E-09
1.07092E-11 3.92249E-09
1.21847E-11 3.69637E-09
1.37554E-11 3.48140E-09
1.54213E-11 3.27725E-09
1.71823E-11 3.08483E-09
1.90386E-11 2.90393E-09
2.09900E-11 2.73417E-09
2.30367E-11 2.57507E-09
2.51785E-11 2.42550E-09
2.74156E-11 2.28522E-09
2.97478E-11 2.15401E-09
3.21752E-11 2.03129E-09
3.46979E-11 1.91650E-09
3.73157E-11 1.80904E-09
4.00286E-11 1.70782E-09
4.28368E-11 1.61308E-09
4.57402E-11 1.52435E-09
4.87388E-11 1.44120E-09
5.18325E-11 1.36326E-09
5.50215E-11 1.28990E-09
5.83057E-11 1.22084E-09
6.16850E-11 1.15601E-09
6.51595E-11 1.09512E-09
6.87293E-11 1.03791E-09
7.23943E-11 9.84113E-10
7.61544E-11 9.33234E-10
1.18991E-10 5.57598E-10
1.71347E-10 3.48033E-10
2.33223E-10 2.24594E-10
3.04617E-10 1.51196E-10
3.85531E-10 1.05728E-10
4.75965E-10 7.65161E-11
5.75917E-10 5.70886E-11
6.85389E-10 4.36479E-11
8.04380E-10 3.40912E-11
9.32891E-10 2.70989E-11
1.07092E-09 2.18497E-11
1.21847E-09 1.78225E-11
1.37554E-09 1.46699E-11
1.54213E-09 1.21570E-11
1.71823E-09 1.01482E-11
1.90386E-09 8.52646E-12
2.09900E-09 7.20632E-12
2.30367E-09 6.12401E-12
2.51785E-09 5.22850E-12
2.74156E-09 4.48667E-12
2.97478E-09 3.86859E-12
3.21752E-09 3.35130E-12
3.46978E-09 2.91672E-12
3.73156E-09 2.54990E-12
4.00286E-09 2.23844E-12
4.28368E-09 1.97332E-12
4.57402E-09 1.74652E-12
4.87388E-09 1.55161E-12
5.18326E-09 1.38334E-12
5.50215E-09 1.23741E-12
5.83057E-09 1.11037E-12
6.16850E-09 9.99425E-13
6.51596E-09 9.02190E-13
6.87293E-09 8.16674E-13
7.23942E-09 7.41216E-13
7.61544E-09 6.74374E-13
1.18991E-08 2.92642E-13
1.71347E-08 1.46981E-13
2.33223E-08 8.14744E-14
3.04617E-08 4.85983E-14
3.85531E-08 3.07059E-14
4.75965E-08 2.03259E-14
5.75917E-08 1.39813E-14
6.85389E-08 9.93049E-15
8.04380E-08 7.24718E-15
9.32891E-08 5.41292E-15
1.07092E-07 4.12459E-15
1.21847E-07 3.19815E-15
1.37554E-07 2.51805E-15
1.54213E-07 2.00963E-15
1.71823E-07 1.62335E-15
1.90386E-07 1.32561E-15
2.09900E-07 1.09311E-15
2.30367E-07 9.09417E-16
2.51785E-07 7.62731E-16
2.74156E-07 6.44452E-16
2.97478E-07 5.48226E-16
3.21752E-07 4.69298E-16
3.46978E-07 4.04068E-16
3.73156E-07 3.49779E-16
4.00286E-07 3.04303E-16
4.28368E-07 2.65977E-16
4.57402E-07 2.33494E-16
4.87388E-07 2.05819E-16
5.18325E-07 1.82121E-16
5.50215E-07 1.61736E-16
5.83057E-07 1.44122E-16
6.16850E-07 1.28840E-16
6.51596E-07 1.15530E-16
6.87293E-07 1.03893E-16
7.23942E-07 9.36844E-17
7.61543E-07 8.46984E-17
1.18991E-06 3.47981E-17
1.71347E-06 1.68094E-17
2.33223E-06 9.08259E-18
3.04617E-06 5.32774E-18
3.85531E-06 3.32778E-18
4.75964E-06 2.18424E-18
5.75916E-06 1.49236E-18
6.85388E-06 1.05401E-18
8.04378E-06 7.65433E-19
9.32888E-06 5.69208E-19
1.07092E-05 4.32030E-19
1.21846E-05 3.33802E-19
1.37553E-05 2.61975E-19
1.54212E-05 2.08472E-19
1.71822E-05 1.67960E-19
1.90385E-05 1.36803E-19
2.09899E-05 1.12598E-19
2.30365E-05 9.35134E-20
2.51783E-05 7.82979E-20
2.74153E-05 6.60482E-20
2.97475E-05 5.61001E-20
3.21749E-05 4.79564E-20
3.46974E-05 4.12405E-20
3.73152E-05 3.56629E-20
4.00281E-05 3.09993E-20
4.28362E-05 2.70749E-20
4.57395E-05 2.37527E-20
4.87380E-05 2.09243E-20
5.18317E-05 1.85040E-20
5.50205E-05 1.64235E-20
5.83045E-05 1.46272E-20
6.16838E-05 1.30701E-20
6.51582E-05 1.17151E-20
6.87277E-05 1.05316E-20
7.23925E-05 9.49415E-21
7.61524E-05 8.58955E-21
9.21439E-05 5.86737E-21
1.09658E-04 4.14215E-21
1.28695E-04 3.00649E-21
1.49255E-04 2.23398E-21
1.71338E-04 1.69401E-21
1.94942E-04 1.30732E-21
2.20070E-04 1.02460E-21
2.46720E-04 8.14049E-22
2.74892E-04 6.54651E-22
3.04586E-04 5.32223E-22
3.35803E-04 4.36935E-22
3.68542E-04 3.61896E-22
4.02802E-04 3.02162E-22
4.38585E-04 2.54141E-22
4.75889E-04 2.15192E-22
5.14715E-04 1.83338E-22
5.55063E-04 1.57088E-22
5.96931E-04 1.35305E-22
6.40321E-04 1.17110E-22
6.85233E-04 1.01820E-22
7.31665E-04 8.88991E-23
7.79618E-04 7.79227E-23
8.29092E-04 6.85519E-23
8.80086E-04 6.05152E-23
9.32601E-04 5.35926E-23
9.86636E-04 4.76054E-23
1.04219E-03 4.24074E-23
1.09927E-03 3.78782E-23
1.15786E-03 3.39182E-23
1.21797E-03 3.04447E-23
1.27961E-03 2.73885E-23
1.34276E-03 2.46918E-23
1.40743E-03 2.23056E-23
1.47362E-03 2.01886E-23
1.54133E-03 1.83059E-23
1.61056E-03 1.66275E-23
1.68131E-03 1.51278E-23
1.75357E-03 1.37849E-23
1.82735E-03 1.25799E-23
1.90265E-03 1.14966E-23
1.97947E-03 1.05208E-23
2.05780E-03 9.64022E-24
2.13765E-03 8.84427E-24
2.21902E-03 8.12359E-24
2.30190E-03 7.47004E-24
2.38630E-03 6.87645E-24
2.47222E-03 6.33654E-24
2.55965E-03 5.84477E-24
2.64859E-03 5.39625E-24
2.73905E-03 4.98663E-24
2.83103E-03 4.61209E-24
2.92452E-03 4.26921E-24
3.01952E-03 3.95495E-24
3.11604E-03 3.66660E-24
3.21407E-03 3.40175E-24
3.31362E-03 3.15823E-24
3.41468E-03 2.93411E-24
3.51725E-03 2.72763E-24
3.62133E-03 2.53725E-24
3.72692E-03 2.36154E-24
3.83403E-03 2.19925E-24
3.94265E-03 2.04921E-24
4.05278E-03 1.91041E-24
4.16442E-03 1.78189E-24
4.27757E-03 1.66281E-24
4.39223E-03 1.55239E-24
4.50840E-03 1.44994E-24
4.62608E-03 1.35482E-24
4.74527E-03 1.26645E-24
4.86597E-03 1.18430E-24
4.98817E-03 1.10788E-24
5.11188E-03 1.03676E-24
5.23711E-03 9.70530E-25
5.36383E-03 9.08821E-25
5.49207E-03 8.51296E-25
5.62181E-03 7.97645E-25
5.75306E-03 7.47583E-25
5.88581E-03 7.00848E-25
6.02007E-03 6.57200E-25
6.15583E-03 6.16418E-25
6.29310E-03 5.78298E-25
6.43187E-03 5.42652E-25
6.57214E-03 5.09307E-25
6.71392E-03 4.78103E-25
6.85720E-03 4.48892E-25
7.00198E-03 4.21538E-25
7.14827E-03 3.95914E-25
7.29605E-03 3.71903E-25
7.44534E-03 3.49398E-25
7.59612E-03 3.28297E-25
7.97965E-03 2.81097E-25
8.37255E-03 2.40830E-25
8.77480E-03 2.06431E-25
9.18641E-03 1.77007E-25
9.60736E-03 1.51812E-25
1.00376E-02 1.30217E-25
1.04773E-02 1.11693E-25
1.09262E-02 9.57941E-26
1.13844E-02 8.21402E-26
1.18520E-02 7.04099E-26
1.23288E-02 6.03296E-26
1.28150E-02 5.16659E-26
1.33104E-02 4.42196E-26
1.38150E-02 3.78203E-26
1.43290E-02 3.23218E-26
1.48521E-02 2.75990E-26
1.53845E-02 2.35441E-26
1.59262E-02 2.00647E-26
1.64770E-02 1.70810E-26
1.70371E-02 1.45244E-26
1.76063E-02 1.23358E-26
1.81848E-02 1.04640E-26
1.87724E-02 8.86497E-27
1.93692E-02 7.50069E-27
1.99751E-02 6.33827E-27
2.05901E-02 5.34931E-27
2.12143E-02 4.50928E-27
2.18476E-02 3.79698E-27
2.24900E-02 3.19412E-27
2.31415E-02 2.68489E-27
2.38021E-02 2.25565E-27
2.44717E-02 1.89466E-27
2.51504E-02 1.59178E-27
2.58382E-02 1.33828E-27
2.65349E-02 1.12666E-27
2.72407E-02 9.50479E-28
2.79555E-02 8.04197E-28
2.86793E-02 6.83078E-28
2.94120E-02 5.83071E-28
3.01537E-02 5.00716E-28
3.09043E-02 4.33067E-28
3.16639E-02 3.77620E-28
3.24324E-02 3.32253E-28
3.32098E-02 2.95172E-28
3.39961E-02 2.64867E-28
3.47912E-02 2.40068E-28
3.55952E-02 2.19717E-28
3.64081E-02 2.02930E-28
3.72297E-02 1.88976E-28
3.80602E-02 1.77255E-28
3.88995E-02 1.67274E-28
3.97476E-02 1.58634E-28
4.06044E-02 1.51012E-28
4.14700E-02 1.44154E-28
4.23443E-02 1.37858E-28
4.32273E-02 1.31969E-28
4.41190E-02 1.26366E-28
4.50194E-02 1.20963E-28
4.59284E-02 1.15697E-28
4.68461E-02 1.10524E-28
4.87074E-02 1.00363E-28
5.06030E-02 9.03952E-29
5.25328E-02 8.06537E-29
5.44967E-02 7.12292E-29
5.64946E-02 6.22324E-29
5.85262E-02 5.37697E-29
6.05914E-02 4.59295E-29
6.26901E-02 3.87754E-29
6.48222E-02 3.23444E-29
6.69873E-02 2.66482E-29
6.91854E-02 2.16760E-29
7.14163E-02 1.73988E-29
7.36799E-02 1.37733E-29
7.59760E-02 1.07465E-29
7.83043E-02 8.25873E-30
8.06647E-02 6.24780E-30
8.30571E-02 4.65109E-30
8.54812E-02 3.40797E-30
8.79369E-02 2.46131E-30
9.04240E-02 1.75862E-30
9.29422E-02 1.25274E-30
9.54915E-02 9.02165E-31
9.80716E-02 6.71115E-31
1.00682E-01 5.29340E-31
1.03323E-01 4.51809E-31
1.05995E-01 4.18263E-31
1.08696E-01 4.12712E-31
1.11427E-01 4.22894E-31
1.14188E-01 4.39733E-31
1.16978E-01 4.56819E-31
1.19797E-01 4.69917E-31
1.22645E-01 4.76517E-31
1.25522E-01 4.75446E-31
1.28428E-01 4.66518E-31
1.31361E-01 4.50243E-31
1.34323E-01 4.27590E-31
1.37313E-01 3.99794E-31
1.40330E-01 3.68198E-31
1.43375E-01 3.34147E-31
1.46447E-01 2.98903E-31
1.49545E-01 2.63589E-31
1.52671E-01 2.29160E-31
1.55823E-01 1.96388E-31
1.59001E-01 1.65860E-31
1.62205E-01 1.37987E-31
1.65435E-01 1.13019E-31
1.68690E-01 9.10663E-32
1.71970E-01 7.21231E-32
1.75276E-01 5.60875E-32
1.78606E-01 4.27849E-32
1.81961E-01 3.19890E-32
1.85340E-01 2.34400E-32
1.88743E-01 1.68604E-32
1.92169E-01 1.19687E-32
1.95619E-01 8.48994E-33
1.99092E-01 6.16414E-33
2.02589E-01 4.75203E-33
2.06107E-01 4.03913E-33
2.09649E-01 3.83787E-33
2.13212E-01 3.98829E-33
2.16797E-01 4.35759E-33
2.20404E-01 4.83875E-33
2.24032E-01 5.34852E-33
2.27680E-01 5.82500E-33
2.31350E-01 6.22487E-33
2.35040E-01 6.52070E-33
2.38751E-01 6.69813E-33
2.42481E-01 6.75327E-33
2.46231E-01 6.69030E-33
2.50000E-01 6.51926E-33
2.53788E-01 6.25420E-33
2.57595E-01 5.91153E-33
2.61421E-01 5.50868E-33
2.65264E-01 5.06309E-33
2.69126E-01 4.59133E-33
2.73005E-01 4.10857E-33
2.76901E-01 3.62813E-33
2.80814E-01 3.16130E-33
2.84744E-01 2.71724E-33
2.88691E-01 2.30297E-33
2.92653E-01 1.92353E-33
2.96632E-01 1.58209E-33
3.00625E-01 1.28022E-33
3.04634E-01 1.01804E-33
3.08658E-01 7.94565E-34
3.12697E-01 6.07846E-34
3.16749E-01 4.55258E-34
3.20816E-01 3.33685E-34
3.24896E-01 2.39713E-34
3.28990E-01 1.69788E-34
3.33097E-01 1.20361E-34
3.37216E-01 8.79861E-35
3.41348E-01 6.94183E-35
3.45492E-01 6.16687E-35
3.49647E-01 6.20502E-35
3.53814E-01 6.82012E-35
3.57992E-01 7.80950E-35
3.62181E-01 9.00359E-35
3.66381E-01 1.02646E-34
3.70590E-01 1.14845E-34
3.74810E-01 1.25820E-34
3.79039E-01 1.35002E-34
3.83277E-01 1.42027E-34
3.87524E-01 1.46711E-34
3.91780E-01 1.49011E-34
3.96044E-01 1.49002E-34
4.00316E-01 1.46846E-34
4.04596E-01 1.42769E-34
4.08882E-01 1.37038E-34
4.13176E-01 1.29942E-34
4.17476E-01 1.21779E-34
4.21783E-01 1.12841E-34
4.26095E-01 1.03403E-34
4.30413E-01 9.37221E-35
4.34737E-01 8.40234E-35
4.39065E-01 7.45040E-35
4.43398E-01 6.53284E-35
4.47736E-01 5.66291E-35
4.52077E-01 4.85080E-35
4.56422E-01 4.10376E-35
4.60770E-01 3.42642E-35
4.65122E-01 2.82105E-35
4.69476E-01 2.28788E-35
4.73832E-01 1.82541E-35
4.78190E-01 1.43073E-35
4.82550E-01 1.09985E-35
4.86912E-01 8.27978E-36
4.91274E-01 6.09738E-36
4.95637E-01 4.39452E-36
5.00000E-01 3.11310E-36
5.04363E-01 2.19548E-36
5.08726E-01 1.58582E-36
5.13088E-01 1.23117E-36
5.17450E-01 1.08232E-36
5.21810E-01 1.09431E-36
5.26168E-01 1.22686E-36
5.30524E-01 1.44450E-36
5.34878E-01 1.71660E-36
5.39230E-01 2.01725E-36
5.43578E-01 2.32504E-36
5.47923E-01 2.62279E-36
5.52264E-01 2.89715E-36
5.56602E-01 3.13829E-36
5.60935E-01 3.33942E-36
5.65263E-01 3.49644E-36
5.69587E-01 3.60748E-36
5.73905E-01 3.67257E-36
5.78217E-01 3.69325E-36
5.82524E-01 3.67223E-36
5.86824E-01 3.61312E-36
5.91118E-01 3.52010E-36
5.95404E-01 3.39777E-36
5.99684E-01 3.25088E-36
6.03956E-01 3.08420E-36
6.08220E-01 2.90236E-36
6.12476E-01 2.70977E-36
6.16723E-01 2.51052E-36
6.20961E-01 2.30834E-36
6.25190E-01 2.10653E-36
6.29410E-01 1.90798E-36
6.33619E-01 1.71515E-36
6.37819E-01 1.53005E-36
6.42008E-01 1.35432E-36
6.46186E-01 1.18918E-36
6.50353E-01 1.03553E-36
6.54508E-01 8.93922E-37
6.58652E-01 7.64644E-37
6.62784E-01 6.47728E-37
6.66903E-01 5.42999E-37
6.71010E-01 4.50103E-37
6.75104E-01 3.68546E-37
6.79184E-01 2.97719E-37
6.83251E-01 2.36932E-37
6.87303E-01 1.85437E-37
6.91342E-01 1.42447E-37
6.95366E-01 1.07165E-37
6.99375E-01 7.87891E-38
7.03368E-01 5.65368E-38
7.07347E-01 3.96504E-38
7.11309E-01 2.74084E-38
7.15256E-01 1.91322E-38
7.19186E-01 1.41912E-38
7.23099E-01 1.20058E-38
7.26995E-01 1.20493E-38
7.30874E-01 1.38489E-38
7.34736E-01 1.69841E-38
7.38579E-01 2.10861E-38
7.42405E-01 2.58352E-38
7.46212E-01 3.09582E-38
7.50000E-01 3.62249E-38
7.53769E-01 4.14451E-38
7.57519E-01 4.64647E-38
7.61249E-01 5.11624E-38
7.64960E-01 5.54459E-38
7.68650E-01 5.92482E-38
7.72320E-01 6.25250E-38
7.75968E-01 6.52507E-38
7.79596E-01 6.74161E-38
7.83203E-01 6.90254E-38
7.86788E-01 7.00938E-38
7.90351E-01 7.06453E-38
7.93893E-01 7.07108E-38
7.97411E-01 7.03262E-38
8.00908E-01 6.95309E-38
8.04381E-01 6.83665E-38
8.07831E-01 6.68759E-38
8.11257E-01 6.51017E-38
8.14660E-01 6.30862E-38
8.18039E-01 6.08697E-38
8.21394E-01 5.84914E-38
8.24724E-01 5.59874E-38
8.28030E-01 5.33919E-38
8.31310E-01 5.07357E-38
8.34565E-01 4.80471E-38
8.37795E-01 4.53514E-38
8.40999E-01 4.26708E-38
8.44177E-01 4.00249E-38
8.47329E-01 3.74306E-38
8.50455E-01 3.49020E-38
8.53553E-01 3.24509E-38
8.56625E-01 3.00873E-38
8.59670E-01 2.78185E-38
8.62687E-01 2.56504E-38
8.65677E-01 2.35873E-38
8.68639E-01 2.16317E-38
8.71572E-01 1.97852E-38
8.74478E-01 1.80479E-38
8.77355E-01 1.64192E-38
8.80203E-01 1.48974E-38
8.83022E-01 1.34803E-38
8.85812E-01 1.21650E-38
8.88573E-01 1.09480E-38
8.91304E-01 9.82539E-39
8.94005E-01 8.79316E-39
8.96677E-01 7.84684E-39
8.99318E-01 6.98190E-39
9.01928E-01 6.19369E-39
9.04508E-01 5.47749E-39
9.07058E-01 4.82870E-39
9.09576E-01 4.24265E-39
9.12063E-01 3.71489E-39
9.14519E-01 3.24105E-39
9.16943E-01 2.81694E-39
9.19335E-01 2.43854E-39
9.21696E-01 2.10206E-39
9.24024E-01 1.80389E-39
9.26320E-01 1.54061E-39
9.28584E-01 1.30904E-39
9.30815E-01 1.10621E-39
9.33013E-01 9.29317E-40
9.35178E-01 1.00000E-45
9.37310E-01 1.00000E-45
9.39409E-01 1.00000E-45
9.41474E-01 1.00000E-45
9.43505E-01 1.00000E-45
9.45503E-01 1.00000E-45
9.47467E-01 1.00000E-45
9.49397E-01 1.00000E-45
9.51293E-01 1.00000E-45
9.53154E-01 1.00000E-45
9.54981E-01 1.00000E-45
9.56773E-01 1.00000E-45
9.58530E-01 1.00000E-45
9.60252E-01 1.00000E-45
9.61940E-01 1.00000E-45
9.63592E-01 1.00000E-45
9.65209E-01 1.00000E-45
9.66790E-01 1.00000E-45
9.68336E-01 1.00000E-45
9.69846E-01 1.00000E-45
9.71321E-01 1.00000E-45
9.72759E-01 1.00000E-45
9.74162E-01 1.00000E-45
9.75528E-01 1.00000E-45
9.76858E-01 1.00000E-45
9.78152E-01 1.00000E-45
9.79410E-01 1.00000E-45
9.80631E-01 1.00000E-45
9.81815E-01 1.00000E-45
9.82963E-01 1.00000E-45
9.84074E-01 1.00000E-45
9.85148E-01 1.00000E-45
9.86185E-01 1.00000E-45
9.87185E-01 1.00000E-45
9.88148E-01 1.00000E-45
9.89074E-01 1.00000E-45
9.89962E-01 1.00000E-45
9.90814E-01 1.00000E-45
9.91627E-01 1.00000E-45
9.92404E-01 1.00000E-45
9.93143E-01 1.00000E-45
9.93844E-01 1.00000E-45
9.94508E-01 1.00000E-45
9.95134E-01 1.00000E-45
9.95722E-01 1.00000E-45
9.96273E-01 1.00000E-45
9.96786E-01 1.00000E-45
9.97261E-01 1.00000E-45
9.97698E-01 1.00000E-45
9.98097E-01 1.00000E-45
9.98459E-01 1.00000E-45
9.98782E-01 1.00000E-45
9.99067E-01 1.00000E-45
9.99315E-01 1.00000E-45
9.99524E-01 1.00000E-45
9.99695E-01 1.00000E-45
9.99829E-01 1.00000E-45
9.99924E-01 1.00000E-45
9.99981E-01 1.00000E-45
1.00000E+00 1.00000E-45
