 #
 # Subroutine ELSEPA. Elastic scattering of electrons and positrons
 #                    by neutral atoms and positive ions
 #
 # Projectile: electron
 # Kinetic energy = 3.00000E+08 eV = 1.10248E+07 a.u.
 #
 # WARNING: High-energy factorization with free-atom DF screening.
 #          Absorption, polarization and exchange corrections are
 #          switched off.
 #          Phase shifts are calculated for the bare nucleus.
 #          Scattering amplitudes are not evaluated.
 #
 # Element: Ru,  Z =  44,  atomic weight = 1.01070E+02 g/mol
 #
 # Nuclear model: Fermi distribution
 #                Average radius = 4.98415E-13 cm
 #                Skin thickness = 5.46000E-14 cm
 #
 # Number of electrons = 44
 #
 # Total elastic cross section = 4.16769E-18 cm**2 = 1.48831E-01 a0**2
 # 1st transport cross section = 4.27240E-26 cm**2 = 1.52570E-09 a0**2
 # 2nd transport cross section = 1.28030E-25 cm**2 = 4.57203E-09 a0**2
 #
 #
 # Differential cross section:                       MU=(1-COS(THETA))/2
 #
 #  THETA        MU          DCS          DCS        Sherman      error
 #  (deg)                 (cm**2/sr)   (a0**2/sr)    function
 #----------------------------------------------------------------------
0.00000E+00 3.07418E-09
7.61557E-13 3.00412E-09
1.18994E-12 2.96604E-09
1.71346E-12 2.92070E-09
2.33225E-12 2.86877E-09
3.04617E-12 2.81080E-09
3.85530E-12 2.74800E-09
4.75964E-12 2.68056E-09
5.75917E-12 2.60996E-09
6.85391E-12 2.53610E-09
8.04379E-12 2.46058E-09
9.32893E-12 2.38337E-09
1.07092E-11 2.30561E-09
1.21847E-11 2.22759E-09
1.37554E-11 2.14983E-09
1.54213E-11 2.07302E-09
1.71823E-11 1.99701E-09
1.90386E-11 1.92290E-09
2.09900E-11 1.84987E-09
2.30367E-11 1.77935E-09
2.51785E-11 1.71027E-09
2.74156E-11 1.64380E-09
2.97478E-11 1.57925E-09
3.21752E-11 1.51715E-09
3.46979E-11 1.45732E-09
3.73157E-11 1.39966E-09
4.00286E-11 1.34451E-09
4.28368E-11 1.29121E-09
4.57402E-11 1.24057E-09
4.87388E-11 1.19146E-09
5.18325E-11 1.14491E-09
5.50215E-11 1.09991E-09
5.83057E-11 1.05713E-09
6.16850E-11 1.01600E-09
6.51595E-11 9.76703E-10
6.87293E-11 9.39127E-10
7.23943E-11 9.03041E-10
7.61544E-11 8.68718E-10
1.18991E-10 5.94754E-10
1.71347E-10 4.14751E-10
2.33223E-10 2.94031E-10
3.04617E-10 2.09117E-10
3.85531E-10 1.54637E-10
4.75965E-10 1.14623E-10
5.75917E-10 8.74809E-11
6.85389E-10 6.71606E-11
8.04380E-10 5.27955E-11
9.32891E-10 4.20007E-11
1.07092E-09 3.39860E-11
1.21847E-09 2.78512E-11
1.37554E-09 2.31049E-11
1.54213E-09 1.93879E-11
1.71823E-09 1.64032E-11
1.90386E-09 1.40182E-11
2.09900E-09 1.20365E-11
2.30367E-09 1.04240E-11
2.51785E-09 9.05417E-12
2.74156E-09 7.91567E-12
2.97478E-09 6.94029E-12
3.21752E-09 6.11192E-12
3.46978E-09 5.39932E-12
3.73156E-09 4.78319E-12
4.00286E-09 4.25222E-12
4.28368E-09 3.78652E-12
4.57402E-09 3.38472E-12
4.87388E-09 3.02840E-12
5.18326E-09 2.71941E-12
5.50215E-09 2.44515E-12
5.83057E-09 2.20509E-12
6.16850E-09 1.99232E-12
6.51596E-09 1.80410E-12
6.87293E-09 1.63687E-12
7.23942E-09 1.48808E-12
7.61544E-09 1.35589E-12
1.18991E-08 5.91580E-13
1.71347E-08 2.99439E-13
2.33223E-08 1.68384E-13
3.04617E-08 1.01974E-13
3.85531E-08 6.52612E-14
4.75965E-08 4.36374E-14
5.75917E-08 3.02376E-14
6.85389E-08 2.15775E-14
8.04380E-08 1.57991E-14
9.32891E-08 1.18263E-14
1.07092E-07 9.02466E-15
1.21847E-07 7.00556E-15
1.37554E-07 5.52049E-15
1.54213E-07 4.40915E-15
1.71823E-07 3.56428E-15
1.90386E-07 2.91250E-15
2.09900E-07 2.40338E-15
2.30367E-07 2.00094E-15
2.51785E-07 1.67939E-15
2.74156E-07 1.42002E-15
2.97478E-07 1.20888E-15
3.21752E-07 1.03560E-15
3.46978E-07 8.92313E-16
3.73156E-07 7.72975E-16
4.00286E-07 6.72951E-16
4.28368E-07 5.88603E-16
4.57402E-07 5.17060E-16
4.87388E-07 4.56069E-16
5.18325E-07 4.03809E-16
5.50215E-07 3.58821E-16
5.83057E-07 3.19929E-16
6.16850E-07 2.86160E-16
6.51596E-07 2.56731E-16
6.87293E-07 2.30988E-16
7.23942E-07 2.08389E-16
7.61543E-07 1.88486E-16
1.18991E-06 7.77057E-17
1.71347E-06 3.76135E-17
2.33223E-06 2.03494E-17
3.04617E-06 1.19465E-17
3.85531E-06 7.46600E-18
4.75964E-06 4.90227E-18
5.75916E-06 3.35034E-18
6.85388E-06 2.36672E-18
8.04378E-06 1.71900E-18
9.32888E-06 1.27847E-18
1.07092E-05 9.70449E-19
1.21846E-05 7.49859E-19
1.37553E-05 5.88540E-19
1.54212E-05 4.68368E-19
1.71822E-05 3.77364E-19
1.90385E-05 3.07372E-19
2.09899E-05 2.52996E-19
2.30365E-05 2.10120E-19
2.51783E-05 1.75935E-19
2.74153E-05 1.48413E-19
2.97475E-05 1.26061E-19
3.21749E-05 1.07763E-19
3.46974E-05 9.26728E-20
3.73152E-05 8.01402E-20
4.00281E-05 6.96610E-20
4.28362E-05 6.08429E-20
4.57395E-05 5.33773E-20
4.87380E-05 4.70216E-20
5.18317E-05 4.15832E-20
5.50205E-05 3.69078E-20
5.83045E-05 3.28713E-20
6.16838E-05 2.93721E-20
6.51582E-05 2.63272E-20
6.87277E-05 2.36676E-20
7.23925E-05 2.13362E-20
7.61524E-05 1.93178E-20
9.21439E-05 1.32036E-20
1.09658E-04 9.32800E-21
1.28695E-04 6.77631E-21
1.49255E-04 5.04011E-21
1.71338E-04 3.82614E-21
1.94942E-04 2.95645E-21
2.20070E-04 2.32027E-21
2.46720E-04 1.84626E-21
2.74892E-04 1.48720E-21
3.04586E-04 1.21124E-21
3.35803E-04 9.96303E-22
3.68542E-04 8.26905E-22
4.02802E-04 6.91939E-22
4.38585E-04 5.83339E-22
4.75889E-04 4.95164E-22
5.14715E-04 4.22971E-22
5.55063E-04 3.63413E-22
5.96931E-04 3.13925E-22
6.40321E-04 2.72535E-22
6.85233E-04 2.37704E-22
7.31665E-04 2.08226E-22
7.79618E-04 1.83145E-22
8.29092E-04 1.61697E-22
8.80086E-04 1.43271E-22
9.32601E-04 1.27370E-22
9.86636E-04 1.13592E-22
1.04219E-03 1.01606E-22
1.09927E-03 9.11407E-23
1.15786E-03 8.19707E-23
1.21797E-03 7.39091E-23
1.27961E-03 6.67996E-23
1.34276E-03 6.05110E-23
1.40743E-03 5.49325E-23
1.47362E-03 4.99707E-23
1.54133E-03 4.55458E-23
1.61056E-03 4.15901E-23
1.68131E-03 3.80455E-23
1.75357E-03 3.48621E-23
1.82735E-03 3.19969E-23
1.90265E-03 2.94128E-23
1.97947E-03 2.70775E-23
2.05780E-03 2.49632E-23
2.13765E-03 2.30454E-23
2.21902E-03 2.13029E-23
2.30190E-03 1.97168E-23
2.38630E-03 1.82709E-23
2.47222E-03 1.69507E-23
2.55965E-03 1.57435E-23
2.64859E-03 1.46379E-23
2.73905E-03 1.36241E-23
2.83103E-03 1.26932E-23
2.92452E-03 1.18372E-23
3.01952E-03 1.10492E-23
3.11604E-03 1.03228E-23
3.21407E-03 9.65254E-24
3.31362E-03 9.03330E-24
3.41468E-03 8.46058E-24
3.51725E-03 7.93034E-24
3.62133E-03 7.43891E-24
3.72692E-03 6.98300E-24
3.83403E-03 6.55963E-24
3.94265E-03 6.16612E-24
4.05278E-03 5.80003E-24
4.16442E-03 5.45914E-24
4.27757E-03 5.14146E-24
4.39223E-03 4.84516E-24
4.50840E-03 4.56858E-24
4.62608E-03 4.31020E-24
4.74527E-03 4.06864E-24
4.86597E-03 3.84264E-24
4.98817E-03 3.63105E-24
5.11188E-03 3.43281E-24
5.23711E-03 3.24696E-24
5.36383E-03 3.07260E-24
5.49207E-03 2.90892E-24
5.62181E-03 2.75517E-24
5.75306E-03 2.61066E-24
5.88581E-03 2.47475E-24
6.02007E-03 2.34687E-24
6.15583E-03 2.22646E-24
6.29310E-03 2.11303E-24
6.43187E-03 2.00611E-24
6.57214E-03 1.90529E-24
6.71392E-03 1.81017E-24
6.85720E-03 1.72037E-24
7.00198E-03 1.63557E-24
7.14827E-03 1.55545E-24
7.29605E-03 1.47970E-24
7.44534E-03 1.40807E-24
7.59612E-03 1.34030E-24
7.97965E-03 1.18627E-24
8.37255E-03 1.05167E-24
8.77480E-03 9.33789E-25
9.18641E-03 8.30313E-25
9.60736E-03 7.39291E-25
1.00376E-02 6.59067E-25
1.04773E-02 5.88228E-25
1.09262E-02 5.25567E-25
1.13844E-02 4.70048E-25
1.18520E-02 4.20782E-25
1.23288E-02 3.77001E-25
1.28150E-02 3.38040E-25
1.33104E-02 3.03325E-25
1.38150E-02 2.72355E-25
1.43290E-02 2.44696E-25
1.48521E-02 2.19967E-25
1.53845E-02 1.97836E-25
1.59262E-02 1.78011E-25
1.64770E-02 1.60237E-25
1.70371E-02 1.44290E-25
1.76063E-02 1.29970E-25
1.81848E-02 1.17102E-25
1.87724E-02 1.05533E-25
1.93692E-02 9.51239E-26
1.99751E-02 8.57546E-26
2.05901E-02 7.73168E-26
2.12143E-02 6.97145E-26
2.18476E-02 6.28622E-26
2.24900E-02 5.66837E-26
2.31415E-02 5.11110E-26
2.38021E-02 4.60835E-26
2.44717E-02 4.15466E-26
2.51504E-02 3.74518E-26
2.58382E-02 3.37553E-26
2.65349E-02 3.04181E-26
2.72407E-02 2.74050E-26
2.79555E-02 2.46845E-26
2.86793E-02 2.22280E-26
2.94120E-02 2.00101E-26
3.01537E-02 1.80077E-26
3.09043E-02 1.62000E-26
3.16639E-02 1.45684E-26
3.24324E-02 1.30959E-26
3.32098E-02 1.17673E-26
3.39961E-02 1.05688E-26
3.47912E-02 9.48799E-27
3.55952E-02 8.51360E-27
3.64081E-02 7.63545E-27
3.72297E-02 6.84433E-27
3.80602E-02 6.13192E-27
3.88995E-02 5.49066E-27
3.97476E-02 4.91373E-27
4.06044E-02 4.39494E-27
4.14700E-02 3.92869E-27
4.23443E-02 3.50991E-27
4.32273E-02 3.13400E-27
4.41190E-02 2.79679E-27
4.50194E-02 2.49452E-27
4.59284E-02 2.22375E-27
4.68461E-02 1.98140E-27
4.87074E-02 1.57098E-27
5.06030E-02 1.24384E-27
5.25328E-02 9.84072E-28
5.44967E-02 7.78638E-28
5.64946E-02 6.16882E-28
5.85262E-02 4.90108E-28
6.05914E-02 3.91230E-28
6.26901E-02 3.14491E-28
6.48222E-02 2.55228E-28
6.69873E-02 2.09675E-28
6.91854E-02 1.74805E-28
7.14163E-02 1.48192E-28
7.36799E-02 1.27906E-28
7.59760E-02 1.12418E-28
7.83043E-02 1.00527E-28
8.06647E-02 9.12943E-29
8.30571E-02 8.39973E-29
8.54812E-02 7.80828E-29
8.79369E-02 7.31342E-29
9.04240E-02 6.88430E-29
9.29422E-02 6.49855E-29
9.54915E-02 6.14037E-29
9.80716E-02 5.79907E-29
1.00682E-01 5.46776E-29
1.03323E-01 5.14245E-29
1.05995E-01 4.82119E-29
1.08696E-01 4.50354E-29
1.11427E-01 4.18999E-29
1.14188E-01 3.88169E-29
1.16978E-01 3.58011E-29
1.19797E-01 3.28686E-29
1.22645E-01 3.00352E-29
1.25522E-01 2.73155E-29
1.28428E-01 2.47222E-29
1.31361E-01 2.22659E-29
1.34323E-01 1.99545E-29
1.37313E-01 1.77934E-29
1.40330E-01 1.57858E-29
1.43375E-01 1.39323E-29
1.46447E-01 1.22318E-29
1.49545E-01 1.06812E-29
1.52671E-01 9.27604E-30
1.55823E-01 8.01041E-30
1.59001E-01 6.87755E-30
1.62205E-01 5.86988E-30
1.65435E-01 4.97930E-30
1.68690E-01 4.19738E-30
1.71970E-01 3.51552E-30
1.75276E-01 2.92513E-30
1.78606E-01 2.41775E-30
1.81961E-01 1.98513E-30
1.85340E-01 1.61939E-30
1.88743E-01 1.31300E-30
1.92169E-01 1.05889E-30
1.95619E-01 8.50482E-31
1.99092E-01 6.81677E-31
2.02589E-01 5.46894E-31
2.06107E-01 4.41061E-31
2.09649E-01 3.59605E-31
2.13212E-01 2.98437E-31
2.16797E-01 2.53934E-31
2.20404E-01 2.22908E-31
2.24032E-01 2.02586E-31
2.27680E-01 1.90574E-31
2.31350E-01 1.84828E-31
2.35040E-01 1.83623E-31
2.38751E-01 1.85522E-31
2.42481E-01 1.89346E-31
2.46231E-01 1.94143E-31
2.50000E-01 1.99162E-31
2.53788E-01 2.03826E-31
2.57595E-01 2.07709E-31
2.61421E-01 2.10510E-31
2.65264E-01 2.12039E-31
2.69126E-01 2.12190E-31
2.73005E-01 2.10933E-31
2.76901E-01 2.08292E-31
2.80814E-01 2.04338E-31
2.84744E-01 1.99173E-31
2.88691E-01 1.92923E-31
2.92653E-01 1.85729E-31
2.96632E-01 1.77742E-31
3.00625E-01 1.69113E-31
3.04634E-01 1.59994E-31
3.08658E-01 1.50528E-31
3.12697E-01 1.40852E-31
3.16749E-01 1.31092E-31
3.20816E-01 1.21363E-31
3.24896E-01 1.11766E-31
3.28990E-01 1.02390E-31
3.33097E-01 9.33100E-32
3.37216E-01 8.45894E-32
3.41348E-01 7.62786E-32
3.45492E-01 6.84168E-32
3.49647E-01 6.10324E-32
3.53814E-01 5.41440E-32
3.57992E-01 4.77615E-32
3.62181E-01 4.18868E-32
3.66381E-01 3.65154E-32
3.70590E-01 3.16365E-32
3.74810E-01 2.72349E-32
3.79039E-01 2.32912E-32
3.83277E-01 1.97827E-32
3.87524E-01 1.66845E-32
3.91780E-01 1.39701E-32
3.96044E-01 1.16116E-32
4.00316E-01 9.58077E-33
4.04596E-01 7.84934E-33
4.08882E-01 6.38928E-33
4.13176E-01 5.17329E-33
4.17476E-01 4.17503E-33
4.21783E-01 3.36936E-33
4.26095E-01 2.73248E-33
4.30413E-01 2.24212E-33
4.34737E-01 1.87755E-33
4.39065E-01 1.61972E-33
4.43398E-01 1.45117E-33
4.47736E-01 1.35612E-33
4.52077E-01 1.32039E-33
4.56422E-01 1.33135E-33
4.60770E-01 1.37786E-33
4.65122E-01 1.45019E-33
4.69476E-01 1.53996E-33
4.73832E-01 1.64001E-33
4.78190E-01 1.74431E-33
4.82550E-01 1.84790E-33
4.86912E-01 1.94674E-33
4.91274E-01 2.03764E-33
4.95637E-01 2.11819E-33
5.00000E-01 2.18662E-33
5.04363E-01 2.24175E-33
5.08726E-01 2.28290E-33
5.13088E-01 2.30981E-33
5.17450E-01 2.32259E-33
5.21810E-01 2.32164E-33
5.26168E-01 2.30758E-33
5.30524E-01 2.28123E-33
5.34878E-01 2.24356E-33
5.39230E-01 2.19562E-33
5.43578E-01 2.13851E-33
5.47923E-01 2.07341E-33
5.52264E-01 2.00145E-33
5.56602E-01 1.92379E-33
5.60935E-01 1.84154E-33
5.65263E-01 1.75575E-33
5.69587E-01 1.66744E-33
5.73905E-01 1.57753E-33
5.78217E-01 1.48690E-33
5.82524E-01 1.39632E-33
5.86824E-01 1.30651E-33
5.91118E-01 1.21809E-33
5.95404E-01 1.13161E-33
5.99684E-01 1.04755E-33
6.03956E-01 9.66292E-34
6.08220E-01 8.88178E-34
6.12476E-01 8.13468E-34
6.16723E-01 7.42364E-34
6.20961E-01 6.75011E-34
6.25190E-01 6.11504E-34
6.29410E-01 5.51890E-34
6.33619E-01 4.96177E-34
6.37819E-01 4.44335E-34
6.42008E-01 3.96302E-34
6.46186E-01 3.51989E-34
6.50353E-01 3.11285E-34
6.54508E-01 2.74060E-34
6.58652E-01 2.40167E-34
6.62784E-01 2.09448E-34
6.66903E-01 1.81738E-34
6.71010E-01 1.56862E-34
6.75104E-01 1.34646E-34
6.79184E-01 1.14911E-34
6.83251E-01 9.74815E-35
6.87303E-01 8.21820E-35
6.91342E-01 6.88420E-35
6.95366E-01 5.72958E-35
6.99375E-01 4.73835E-35
7.03368E-01 3.89518E-35
7.07347E-01 3.18549E-35
7.11309E-01 2.59548E-35
7.15256E-01 2.11213E-35
7.19186E-01 1.72329E-35
7.23099E-01 1.41760E-35
7.26995E-01 1.18456E-35
7.30874E-01 1.01447E-35
7.34736E-01 8.98451E-36
7.38579E-01 8.28380E-36
7.42405E-01 7.96893E-36
7.46212E-01 7.97341E-36
7.50000E-01 8.23753E-36
7.53769E-01 8.70801E-36
7.57519E-01 9.33760E-36
7.61249E-01 1.00847E-35
7.64960E-01 1.09130E-35
7.68650E-01 1.17909E-35
7.72320E-01 1.26913E-35
7.75968E-01 1.35914E-35
7.79596E-01 1.44718E-35
7.83203E-01 1.53166E-35
7.86788E-01 1.61129E-35
7.90351E-01 1.68505E-35
7.93893E-01 1.75217E-35
7.97411E-01 1.81208E-35
8.00908E-01 1.86439E-35
8.04381E-01 1.90890E-35
8.07831E-01 1.94551E-35
8.11257E-01 1.97428E-35
8.14660E-01 1.99533E-35
8.18039E-01 2.00890E-35
8.21394E-01 2.01527E-35
8.24724E-01 2.01479E-35
8.28030E-01 2.00785E-35
8.31310E-01 1.99486E-35
8.34565E-01 1.97627E-35
8.37795E-01 1.95253E-35
8.40999E-01 1.92409E-35
8.44177E-01 1.89142E-35
8.47329E-01 1.85496E-35
8.50455E-01 1.81518E-35
8.53553E-01 1.77248E-35
8.56625E-01 1.72729E-35
8.59670E-01 1.68000E-35
8.62687E-01 1.63099E-35
8.65677E-01 1.58061E-35
8.68639E-01 1.52919E-35
8.71572E-01 1.47704E-35
8.74478E-01 1.42444E-35
8.77355E-01 1.37165E-35
8.80203E-01 1.31891E-35
8.83022E-01 1.26643E-35
8.85812E-01 1.21441E-35
8.88573E-01 1.16302E-35
8.91304E-01 1.11242E-35
8.94005E-01 1.06274E-35
8.96677E-01 1.01409E-35
8.99318E-01 9.66586E-36
9.01928E-01 9.20297E-36
9.04508E-01 8.75299E-36
9.07058E-01 8.31646E-36
9.09576E-01 7.89384E-36
9.12063E-01 7.48544E-36
9.14519E-01 7.09149E-36
9.16943E-01 6.71212E-36
9.19335E-01 6.34737E-36
9.21696E-01 5.99721E-36
9.24024E-01 5.66155E-36
9.26320E-01 5.34023E-36
9.28584E-01 5.03304E-36
9.30815E-01 4.73973E-36
9.33013E-01 4.46001E-36
9.35178E-01 4.19357E-36
9.37310E-01 3.94004E-36
9.39409E-01 3.69906E-36
9.41474E-01 3.47024E-36
9.43505E-01 3.25319E-36
9.45503E-01 3.04749E-36
9.47467E-01 2.85271E-36
9.49397E-01 2.66845E-36
9.51293E-01 2.49428E-36
9.53154E-01 2.32979E-36
9.54981E-01 2.17454E-36
9.56773E-01 2.02815E-36
9.58530E-01 1.89019E-36
9.60252E-01 1.76028E-36
9.61940E-01 1.63803E-36
9.63592E-01 1.52307E-36
9.65209E-01 1.41502E-36
9.66790E-01 1.31354E-36
9.68336E-01 1.21829E-36
9.69846E-01 1.12893E-36
9.71321E-01 1.04515E-36
9.72759E-01 9.66641E-37
9.74162E-01 8.93119E-37
9.75528E-01 8.24301E-37
9.76858E-01 7.59922E-37
9.78152E-01 6.99728E-37
9.79410E-01 6.43478E-37
9.80631E-01 5.90942E-37
9.81815E-01 5.41903E-37
9.82963E-01 4.96154E-37
9.84074E-01 4.53499E-37
9.85148E-01 4.13754E-37
9.86185E-01 3.76745E-37
9.87185E-01 3.42308E-37
9.88148E-01 3.10287E-37
9.89074E-01 2.80536E-37
9.89962E-01 2.52922E-37
9.90814E-01 2.27313E-37
9.91627E-01 2.03592E-37
9.92404E-01 1.81646E-37
9.93143E-01 1.61370E-37
9.93844E-01 1.42667E-37
9.94508E-01 1.25448E-37
9.95134E-01 1.09627E-37
9.95722E-01 9.51285E-38
9.96273E-01 8.18785E-38
9.96786E-01 6.98135E-38
9.97261E-01 5.88720E-38
9.97698E-01 4.90001E-38
9.98097E-01 4.01463E-38
9.98459E-01 3.22673E-38
9.98782E-01 2.53225E-38
9.99067E-01 1.92764E-38
9.99315E-01 1.40983E-38
9.99524E-01 9.76170E-39
9.99695E-01 6.24307E-39
9.99829E-01 3.52524E-39
9.99924E-01 1.59469E-39
9.99981E-01 4.40410E-40
1.00000E+00 5.29327E-41
