 #
 # Subroutine ELSEPA. Elastic scattering of electrons and positrons
 #                    by neutral atoms and positive ions
 #
 # Projectile: electron
 # Kinetic energy = 3.50000E+06 eV = 1.28623E+05 a.u.
 #
 # WARNING: High-energy factorization with free-atom DF screening.
 #          Absorption, polarization and exchange corrections are
 #          switched off.
 #          Phase shifts are calculated for the bare nucleus.
 #          Scattering amplitudes are not evaluated.
 #
 # Element: Ru,  Z =  44,  atomic weight = 1.01070E+02 g/mol
 #
 # Nuclear model: Fermi distribution
 #                Average radius = 4.98415E-13 cm
 #                Skin thickness = 5.46000E-14 cm
 #
 # Number of electrons = 44
 #
 # Total elastic cross section = 4.24176E-18 cm**2 = 1.51476E-01 a0**2
 # 1st transport cross section = 1.85753E-22 cm**2 = 6.63335E-06 a0**2
 # 2nd transport cross section = 5.18257E-22 cm**2 = 1.85073E-05 a0**2
 #
 #
 # Differential cross section:                       MU=(1-COS(THETA))/2
 #
 #  THETA        MU          DCS          DCS        Sherman      error
 #  (deg)                 (cm**2/sr)   (a0**2/sr)    function
 #----------------------------------------------------------------------
0.00000E+00 5.47664E-13
7.61557E-13 5.47662E-13
1.18994E-12 5.47661E-13
1.71346E-12 5.47659E-13
2.33225E-12 5.47657E-13
3.04617E-12 5.47655E-13
3.85530E-12 5.47653E-13
4.75964E-12 5.47650E-13
5.75917E-12 5.47648E-13
6.85391E-12 5.47644E-13
8.04379E-12 5.47641E-13
9.32893E-12 5.47637E-13
1.07092E-11 5.47633E-13
1.21847E-11 5.47629E-13
1.37554E-11 5.47624E-13
1.54213E-11 5.47619E-13
1.71823E-11 5.47614E-13
1.90386E-11 5.47609E-13
2.09900E-11 5.47603E-13
2.30367E-11 5.47597E-13
2.51785E-11 5.47591E-13
2.74156E-11 5.47584E-13
2.97478E-11 5.47578E-13
3.21752E-11 5.47570E-13
3.46979E-11 5.47563E-13
3.73157E-11 5.47555E-13
4.00286E-11 5.47548E-13
4.28368E-11 5.47539E-13
4.57402E-11 5.47531E-13
4.87388E-11 5.47522E-13
5.18325E-11 5.47513E-13
5.50215E-11 5.47504E-13
5.83057E-11 5.47494E-13
6.16850E-11 5.47484E-13
6.51595E-11 5.47474E-13
6.87293E-11 5.47464E-13
7.23943E-11 5.47453E-13
7.61544E-11 5.47442E-13
1.18991E-10 5.47317E-13
1.71347E-10 5.47164E-13
2.33223E-10 5.46983E-13
3.04617E-10 5.46775E-13
3.85531E-10 5.46539E-13
4.75965E-10 5.46275E-13
5.75917E-10 5.45984E-13
6.85389E-10 5.45665E-13
8.04380E-10 5.45319E-13
9.32891E-10 5.44946E-13
1.07092E-09 5.44546E-13
1.21847E-09 5.44119E-13
1.37554E-09 5.43665E-13
1.54213E-09 5.43184E-13
1.71823E-09 5.42676E-13
1.90386E-09 5.42142E-13
2.09900E-09 5.41582E-13
2.30367E-09 5.40995E-13
2.51785E-09 5.40383E-13
2.74156E-09 5.39744E-13
2.97478E-09 5.39080E-13
3.21752E-09 5.38390E-13
3.46978E-09 5.37675E-13
3.73156E-09 5.36935E-13
4.00286E-09 5.36170E-13
4.28368E-09 5.35381E-13
4.57402E-09 5.34566E-13
4.87388E-09 5.33728E-13
5.18326E-09 5.32866E-13
5.50215E-09 5.31979E-13
5.83057E-09 5.31069E-13
6.16850E-09 5.30136E-13
6.51596E-09 5.29180E-13
6.87293E-09 5.28200E-13
7.23942E-09 5.27198E-13
7.61544E-09 5.26174E-13
1.18991E-08 5.14763E-13
1.71347E-08 5.01402E-13
2.33223E-08 4.86476E-13
3.04617E-08 4.70228E-13
3.85531E-08 4.53003E-13
4.75965E-08 4.35143E-13
5.75917E-08 4.16928E-13
6.85389E-08 3.98490E-13
8.04380E-08 3.80167E-13
9.32891E-08 3.62142E-13
1.07092E-07 3.44494E-13
1.21847E-07 3.27320E-13
1.37554E-07 3.10783E-13
1.54213E-07 2.94942E-13
1.71823E-07 2.79714E-13
1.90386E-07 2.65207E-13
2.09900E-07 2.51453E-13
2.30367E-07 2.38416E-13
2.51785E-07 2.25999E-13
2.74156E-07 2.14286E-13
2.97478E-07 2.03251E-13
3.21752E-07 1.92798E-13
3.46978E-07 1.82909E-13
3.73156E-07 1.73607E-13
4.00286E-07 1.64856E-13
4.28368E-07 1.56536E-13
4.57402E-07 1.48701E-13
4.87388E-07 1.41329E-13
5.18325E-07 1.34367E-13
5.50215E-07 1.27756E-13
5.83057E-07 1.21531E-13
6.16850E-07 1.15667E-13
6.51596E-07 1.10097E-13
6.87293E-07 1.04824E-13
7.23942E-07 9.98515E-14
7.61543E-07 9.51588E-14
1.18991E-06 5.96435E-14
1.71347E-06 3.79895E-14
2.33223E-06 2.54735E-14
3.04617E-06 1.73698E-14
3.85531E-06 1.22412E-14
4.75964E-06 8.90206E-15
5.75916E-06 6.65118E-15
6.85388E-06 5.08047E-15
8.04378E-06 3.97067E-15
9.32888E-06 3.16349E-15
1.07092E-05 2.55798E-15
1.21846E-05 2.09295E-15
1.37553E-05 1.73211E-15
1.54212E-05 1.44726E-15
1.71822E-05 1.21608E-15
1.90385E-05 1.02850E-15
2.09899E-05 8.75794E-16
2.30365E-05 7.49511E-16
2.51783E-05 6.43584E-16
2.74153E-05 5.55345E-16
2.97475E-05 4.81361E-16
3.21749E-05 4.18709E-16
3.46974E-05 3.65644E-16
3.73152E-05 3.20607E-16
4.00281E-05 2.82161E-16
4.28362E-05 2.49124E-16
4.57395E-05 2.20777E-16
4.87380E-05 1.96350E-16
5.18317E-05 1.75197E-16
5.50205E-05 1.56797E-16
5.83045E-05 1.40772E-16
6.16838E-05 1.26763E-16
6.51582E-05 1.14458E-16
6.87277E-05 1.03625E-16
7.23925E-05 9.40632E-17
7.61524E-05 8.55950E-17
9.21439E-05 5.99952E-17
1.09658E-04 4.33889E-17
1.28695E-04 3.21985E-17
1.49255E-04 2.43995E-17
1.71338E-04 1.88385E-17
1.94942E-04 1.47691E-17
2.20070E-04 1.17432E-17
2.46720E-04 9.45312E-18
2.74892E-04 7.68825E-18
3.04586E-04 6.31549E-18
3.35803E-04 5.23524E-18
3.68542E-04 4.37544E-18
4.02802E-04 3.68351E-18
4.38585E-04 3.12309E-18
4.75889E-04 2.66526E-18
5.14715E-04 2.28801E-18
5.55063E-04 1.97510E-18
5.96931E-04 1.71398E-18
6.40321E-04 1.49471E-18
6.85233E-04 1.30933E-18
7.31665E-04 1.15191E-18
7.79618E-04 1.01753E-18
8.29092E-04 9.02234E-19
8.80086E-04 8.02835E-19
9.32601E-04 7.16817E-19
9.86636E-04 6.42069E-19
1.04219E-03 5.76836E-19
1.09927E-03 5.19712E-19
1.15786E-03 4.69523E-19
1.21797E-03 4.25279E-19
1.27961E-03 3.86135E-19
1.34276E-03 3.51416E-19
1.40743E-03 3.20534E-19
1.47362E-03 2.92984E-19
1.54133E-03 2.68341E-19
1.61056E-03 2.46249E-19
1.68131E-03 2.26396E-19
1.75357E-03 2.08510E-19
1.82735E-03 1.92363E-19
1.90265E-03 1.77758E-19
1.97947E-03 1.64520E-19
2.05780E-03 1.52494E-19
2.13765E-03 1.41554E-19
2.21902E-03 1.31582E-19
2.30190E-03 1.22476E-19
2.38630E-03 1.14147E-19
2.47222E-03 1.06518E-19
2.55965E-03 9.95189E-20
2.64859E-03 9.30869E-20
2.73905E-03 8.71687E-20
2.83103E-03 8.17159E-20
2.92452E-03 7.66849E-20
3.01952E-03 7.20361E-20
3.11604E-03 6.77363E-20
3.21407E-03 6.37542E-20
3.31362E-03 6.00616E-20
3.41468E-03 5.66335E-20
3.51725E-03 5.34479E-20
3.62133E-03 5.04844E-20
3.72692E-03 4.77239E-20
3.83403E-03 4.51507E-20
3.94265E-03 4.27495E-20
4.05278E-03 4.05065E-20
4.16442E-03 3.84093E-20
4.27757E-03 3.64469E-20
4.39223E-03 3.46089E-20
4.50840E-03 3.28858E-20
4.62608E-03 3.12692E-20
4.74527E-03 2.97512E-20
4.86597E-03 2.83248E-20
4.98817E-03 2.69832E-20
5.11188E-03 2.57205E-20
5.23711E-03 2.45314E-20
5.36383E-03 2.34104E-20
5.49207E-03 2.23532E-20
5.62181E-03 2.13553E-20
5.75306E-03 2.04128E-20
5.88581E-03 1.95220E-20
6.02007E-03 1.86795E-20
6.15583E-03 1.78824E-20
6.29310E-03 1.71275E-20
6.43187E-03 1.64123E-20
6.57214E-03 1.57343E-20
6.71392E-03 1.50911E-20
6.85720E-03 1.44807E-20
7.00198E-03 1.39010E-20
7.14827E-03 1.33503E-20
7.29605E-03 1.28267E-20
7.44534E-03 1.23287E-20
7.59612E-03 1.18549E-20
7.97965E-03 1.07667E-20
8.37255E-03 9.80139E-21
8.77480E-03 8.94260E-21
9.18641E-03 8.17649E-21
9.60736E-03 7.49128E-21
1.00376E-02 6.87690E-21
1.04773E-02 6.32470E-21
1.09262E-02 5.82726E-21
1.13844E-02 5.37816E-21
1.18520E-02 4.97185E-21
1.23288E-02 4.60352E-21
1.28150E-02 4.26897E-21
1.33104E-02 3.96452E-21
1.38150E-02 3.68698E-21
1.43290E-02 3.43352E-21
1.48521E-02 3.20167E-21
1.53845E-02 2.98925E-21
1.59262E-02 2.79434E-21
1.64770E-02 2.61520E-21
1.70371E-02 2.45033E-21
1.76063E-02 2.29839E-21
1.81848E-02 2.15816E-21
1.87724E-02 2.02857E-21
1.93692E-02 1.90867E-21
1.99751E-02 1.79759E-21
2.05901E-02 1.69456E-21
2.12143E-02 1.59889E-21
2.18476E-02 1.50996E-21
2.24900E-02 1.42719E-21
2.31415E-02 1.35007E-21
2.38021E-02 1.27816E-21
2.44717E-02 1.21103E-21
2.51504E-02 1.14830E-21
2.58382E-02 1.08962E-21
2.65349E-02 1.03469E-21
2.72407E-02 9.83223E-22
2.79555E-02 9.34952E-22
2.86793E-02 8.89644E-22
2.94120E-02 8.47082E-22
3.01537E-02 8.07066E-22
3.09043E-02 7.69415E-22
3.16639E-02 7.33961E-22
3.24324E-02 7.00553E-22
3.32098E-02 6.69047E-22
3.39961E-02 6.39315E-22
3.47912E-02 6.11239E-22
3.55952E-02 5.84706E-22
3.64081E-02 5.59616E-22
3.72297E-02 5.35875E-22
3.80602E-02 5.13397E-22
3.88995E-02 4.92100E-22
3.97476E-02 4.71911E-22
4.06044E-02 4.52760E-22
4.14700E-02 4.34584E-22
4.23443E-02 4.17322E-22
4.32273E-02 4.00921E-22
4.41190E-02 3.85329E-22
4.50194E-02 3.70497E-22
4.59284E-02 3.56381E-22
4.68461E-02 3.42941E-22
4.87074E-02 3.17932E-22
5.06030E-02 2.95191E-22
5.25328E-02 2.74473E-22
5.44967E-02 2.55565E-22
5.64946E-02 2.38277E-22
5.85262E-02 2.22446E-22
6.05914E-02 2.07924E-22
6.26901E-02 1.94583E-22
6.48222E-02 1.82308E-22
6.69873E-02 1.70998E-22
6.91854E-02 1.60563E-22
7.14163E-02 1.50921E-22
7.36799E-02 1.42001E-22
7.59760E-02 1.33739E-22
7.83043E-02 1.26075E-22
8.06647E-02 1.18959E-22
8.30571E-02 1.12344E-22
8.54812E-02 1.06188E-22
8.79369E-02 1.00452E-22
9.04240E-02 9.51025E-23
9.29422E-02 9.01081E-23
9.54915E-02 8.54407E-23
9.80716E-02 8.10746E-23
1.00682E-01 7.69866E-23
1.03323E-01 7.31556E-23
1.05995E-01 6.95620E-23
1.08696E-01 6.61884E-23
1.11427E-01 6.30186E-23
1.14188E-01 6.00378E-23
1.16978E-01 5.72326E-23
1.19797E-01 5.45905E-23
1.22645E-01 5.21002E-23
1.25522E-01 4.97512E-23
1.28428E-01 4.75340E-23
1.31361E-01 4.54396E-23
1.34323E-01 4.34599E-23
1.37313E-01 4.15875E-23
1.40330E-01 3.98152E-23
1.43375E-01 3.81367E-23
1.46447E-01 3.65460E-23
1.49545E-01 3.50376E-23
1.52671E-01 3.36064E-23
1.55823E-01 3.22477E-23
1.59001E-01 3.09571E-23
1.62205E-01 2.97304E-23
1.65435E-01 2.85639E-23
1.68690E-01 2.74541E-23
1.71970E-01 2.63975E-23
1.75276E-01 2.53913E-23
1.78606E-01 2.44324E-23
1.81961E-01 2.35181E-23
1.85340E-01 2.26461E-23
1.88743E-01 2.18140E-23
1.92169E-01 2.10195E-23
1.95619E-01 2.02607E-23
1.99092E-01 1.95356E-23
2.02589E-01 1.88424E-23
2.06107E-01 1.81795E-23
2.09649E-01 1.75451E-23
2.13212E-01 1.69380E-23
2.16797E-01 1.63566E-23
2.20404E-01 1.57996E-23
2.24032E-01 1.52659E-23
2.27680E-01 1.47542E-23
2.31350E-01 1.42636E-23
2.35040E-01 1.37928E-23
2.38751E-01 1.33410E-23
2.42481E-01 1.29073E-23
2.46231E-01 1.24907E-23
2.50000E-01 1.20905E-23
2.53788E-01 1.17059E-23
2.57595E-01 1.13361E-23
2.61421E-01 1.09805E-23
2.65264E-01 1.06385E-23
2.69126E-01 1.03094E-23
2.73005E-01 9.99254E-24
2.76901E-01 9.68750E-24
2.80814E-01 9.39371E-24
2.84744E-01 9.11067E-24
2.88691E-01 8.83790E-24
2.92653E-01 8.57496E-24
2.96632E-01 8.32143E-24
3.00625E-01 8.07690E-24
3.04634E-01 7.84099E-24
3.08658E-01 7.61334E-24
3.12697E-01 7.39360E-24
3.16749E-01 7.18145E-24
3.20816E-01 6.97656E-24
3.24896E-01 6.77865E-24
3.28990E-01 6.58743E-24
3.33097E-01 6.40262E-24
3.37216E-01 6.22396E-24
3.41348E-01 6.05122E-24
3.45492E-01 5.88416E-24
3.49647E-01 5.72255E-24
3.53814E-01 5.56619E-24
3.57992E-01 5.41487E-24
3.62181E-01 5.26840E-24
3.66381E-01 5.12660E-24
3.70590E-01 4.98927E-24
3.74810E-01 4.85626E-24
3.79039E-01 4.72740E-24
3.83277E-01 4.60254E-24
3.87524E-01 4.48153E-24
3.91780E-01 4.36422E-24
3.96044E-01 4.25049E-24
4.00316E-01 4.14020E-24
4.04596E-01 4.03324E-24
4.08882E-01 3.92947E-24
4.13176E-01 3.82879E-24
4.17476E-01 3.73109E-24
4.21783E-01 3.63626E-24
4.26095E-01 3.54420E-24
4.30413E-01 3.45482E-24
4.34737E-01 3.36802E-24
4.39065E-01 3.28371E-24
4.43398E-01 3.20181E-24
4.47736E-01 3.12223E-24
4.52077E-01 3.04491E-24
4.56422E-01 2.96976E-24
4.60770E-01 2.89672E-24
4.65122E-01 2.82570E-24
4.69476E-01 2.75665E-24
4.73832E-01 2.68950E-24
4.78190E-01 2.62419E-24
4.82550E-01 2.56065E-24
4.86912E-01 2.49883E-24
4.91274E-01 2.43868E-24
4.95637E-01 2.38014E-24
5.00000E-01 2.32317E-24
5.04363E-01 2.26770E-24
5.08726E-01 2.21371E-24
5.13088E-01 2.16113E-24
5.17450E-01 2.10993E-24
5.21810E-01 2.06006E-24
5.26168E-01 2.01149E-24
5.30524E-01 1.96416E-24
5.34878E-01 1.91805E-24
5.39230E-01 1.87312E-24
5.43578E-01 1.82933E-24
5.47923E-01 1.78664E-24
5.52264E-01 1.74503E-24
5.56602E-01 1.70447E-24
5.60935E-01 1.66492E-24
5.65263E-01 1.62636E-24
5.69587E-01 1.58875E-24
5.73905E-01 1.55207E-24
5.78217E-01 1.51628E-24
5.82524E-01 1.48137E-24
5.86824E-01 1.44731E-24
5.91118E-01 1.41408E-24
5.95404E-01 1.38164E-24
5.99684E-01 1.34999E-24
6.03956E-01 1.31909E-24
6.08220E-01 1.28893E-24
6.12476E-01 1.25949E-24
6.16723E-01 1.23074E-24
6.20961E-01 1.20267E-24
6.25190E-01 1.17526E-24
6.29410E-01 1.14850E-24
6.33619E-01 1.12235E-24
6.37819E-01 1.09681E-24
6.42008E-01 1.07186E-24
6.46186E-01 1.04749E-24
6.50353E-01 1.02367E-24
6.54508E-01 1.00040E-24
6.58652E-01 9.77658E-25
6.62784E-01 9.55437E-25
6.66903E-01 9.33720E-25
6.71010E-01 9.12493E-25
6.75104E-01 8.91742E-25
6.79184E-01 8.71456E-25
6.83251E-01 8.51622E-25
6.87303E-01 8.32230E-25
6.91342E-01 8.13267E-25
6.95366E-01 7.94725E-25
6.99375E-01 7.76592E-25
7.03368E-01 7.58858E-25
7.07347E-01 7.41513E-25
7.11309E-01 7.24549E-25
7.15256E-01 7.07955E-25
7.19186E-01 6.91721E-25
7.23099E-01 6.75841E-25
7.26995E-01 6.60303E-25
7.30874E-01 6.45101E-25
7.34736E-01 6.30226E-25
7.38579E-01 6.15671E-25
7.42405E-01 6.01427E-25
7.46212E-01 5.87487E-25
7.50000E-01 5.73845E-25
7.53769E-01 5.60493E-25
7.57519E-01 5.47424E-25
7.61249E-01 5.34633E-25
7.64960E-01 5.22112E-25
7.68650E-01 5.09856E-25
7.72320E-01 4.97857E-25
7.75968E-01 4.86112E-25
7.79596E-01 4.74612E-25
7.83203E-01 4.63354E-25
7.86788E-01 4.52331E-25
7.90351E-01 4.41539E-25
7.93893E-01 4.30972E-25
7.97411E-01 4.20624E-25
8.00908E-01 4.10492E-25
8.04381E-01 4.00571E-25
8.07831E-01 3.90855E-25
8.11257E-01 3.81341E-25
8.14660E-01 3.72025E-25
8.18039E-01 3.62901E-25
8.21394E-01 3.53966E-25
8.24724E-01 3.45216E-25
8.28030E-01 3.36646E-25
8.31310E-01 3.28254E-25
8.34565E-01 3.20035E-25
8.37795E-01 3.11987E-25
8.40999E-01 3.04104E-25
8.44177E-01 2.96384E-25
8.47329E-01 2.88823E-25
8.50455E-01 2.81419E-25
8.53553E-01 2.74168E-25
8.56625E-01 2.67067E-25
8.59670E-01 2.60113E-25
8.62687E-01 2.53302E-25
8.65677E-01 2.46634E-25
8.68639E-01 2.40103E-25
8.71572E-01 2.33708E-25
8.74478E-01 2.27447E-25
8.77355E-01 2.21316E-25
8.80203E-01 2.15313E-25
8.83022E-01 2.09436E-25
8.85812E-01 2.03682E-25
8.88573E-01 1.98049E-25
8.91304E-01 1.92535E-25
8.94005E-01 1.87137E-25
8.96677E-01 1.81854E-25
8.99318E-01 1.76683E-25
9.01928E-01 1.71622E-25
9.04508E-01 1.66670E-25
9.07058E-01 1.61824E-25
9.09576E-01 1.57083E-25
9.12063E-01 1.52444E-25
9.14519E-01 1.47906E-25
9.16943E-01 1.43468E-25
9.19335E-01 1.39127E-25
9.21696E-01 1.34881E-25
9.24024E-01 1.30731E-25
9.26320E-01 1.26672E-25
9.28584E-01 1.22705E-25
9.30815E-01 1.18828E-25
9.33013E-01 1.15039E-25
9.35178E-01 1.11337E-25
9.37310E-01 1.07720E-25
9.39409E-01 1.04188E-25
9.41474E-01 1.00738E-25
9.43505E-01 9.73703E-26
9.45503E-01 9.40829E-26
9.47467E-01 9.08747E-26
9.49397E-01 8.77446E-26
9.51293E-01 8.46915E-26
9.53154E-01 8.17142E-26
9.54981E-01 7.88118E-26
9.56773E-01 7.59831E-26
9.58530E-01 7.32273E-26
9.60252E-01 7.05432E-26
9.61940E-01 6.79299E-26
9.63592E-01 6.53867E-26
9.65209E-01 6.29124E-26
9.66790E-01 6.05064E-26
9.68336E-01 5.81677E-26
9.69846E-01 5.58955E-26
9.71321E-01 5.36891E-26
9.72759E-01 5.15476E-26
9.74162E-01 4.94705E-26
9.75528E-01 4.74568E-26
9.76858E-01 4.55060E-26
9.78152E-01 4.36174E-26
9.79410E-01 4.17903E-26
9.80631E-01 4.00242E-26
9.81815E-01 3.83183E-26
9.82963E-01 3.66722E-26
9.84074E-01 3.50852E-26
9.85148E-01 3.35569E-26
9.86185E-01 3.20868E-26
9.87185E-01 3.06742E-26
9.88148E-01 2.93188E-26
9.89074E-01 2.80202E-26
9.89962E-01 2.67778E-26
9.90814E-01 2.55912E-26
9.91627E-01 2.44601E-26
9.92404E-01 2.33841E-26
9.93143E-01 2.23628E-26
9.93844E-01 2.13959E-26
9.94508E-01 2.04831E-26
9.95134E-01 1.96240E-26
9.95722E-01 1.88184E-26
9.96273E-01 1.80660E-26
9.96786E-01 1.73665E-26
9.97261E-01 1.67198E-26
9.97698E-01 1.61256E-26
9.98097E-01 1.55838E-26
9.98459E-01 1.50940E-26
9.98782E-01 1.46563E-26
9.99067E-01 1.42704E-26
9.99315E-01 1.39362E-26
9.99524E-01 1.36536E-26
9.99695E-01 1.34225E-26
9.99829E-01 1.32428E-26
9.99924E-01 1.31146E-26
9.99981E-01 1.30376E-26
1.00000E+00 1.30120E-26
