 #
 # Subroutine ELSEPA. Elastic scattering of electrons and positrons
 #                    by neutral atoms and positive ions
 #
 # Projectile: electron
 # Kinetic energy = 4.00000E+08 eV = 1.46997E+07 a.u.
 #
 # WARNING: High-energy factorization with free-atom DF screening.
 #          Absorption, polarization and exchange corrections are
 #          switched off.
 #          Phase shifts are calculated for the bare nucleus.
 #          Scattering amplitudes are not evaluated.
 #
 # Element: Ru,  Z =  44,  atomic weight = 1.01070E+02 g/mol
 #
 # Nuclear model: Fermi distribution
 #                Average radius = 4.98415E-13 cm
 #                Skin thickness = 5.46000E-14 cm
 #
 # Number of electrons = 44
 #
 # Total elastic cross section = 4.16656E-18 cm**2 = 1.48790E-01 a0**2
 # 1st transport cross section = 2.40339E-26 cm**2 = 8.58267E-10 a0**2
 # 2nd transport cross section = 7.20561E-26 cm**2 = 2.57317E-09 a0**2
 #
 #
 # Differential cross section:                       MU=(1-COS(THETA))/2
 #
 #  THETA        MU          DCS          DCS        Sherman      error
 #  (deg)                 (cm**2/sr)   (a0**2/sr)    function
 #----------------------------------------------------------------------
0.00000E+00 5.46057E-09
7.61557E-13 5.24318E-09
1.18994E-12 5.12794E-09
1.71346E-12 4.99310E-09
2.33225E-12 4.84254E-09
3.04617E-12 4.67891E-09
3.85530E-12 4.50547E-09
4.75964E-12 4.32577E-09
5.75917E-12 4.14275E-09
6.85391E-12 3.95772E-09
8.04379E-12 3.77385E-09
9.32893E-12 3.59310E-09
1.07092E-11 3.41668E-09
1.21847E-11 3.24477E-09
1.37554E-11 3.07936E-09
1.54213E-11 2.92102E-09
1.71823E-11 2.76938E-09
1.90386E-11 2.62458E-09
2.09900E-11 2.48737E-09
2.30367E-11 2.35762E-09
2.51785E-11 2.23416E-09
2.74156E-11 2.11750E-09
2.97478E-11 2.00763E-09
3.21752E-11 1.90413E-09
3.46979E-11 1.80576E-09
3.73157E-11 1.71325E-09
4.00286E-11 1.62625E-09
4.28368E-11 1.54408E-09
4.57402E-11 1.46623E-09
4.87388E-11 1.39301E-09
5.18325E-11 1.32411E-09
5.50215E-11 1.25873E-09
5.83057E-11 1.19695E-09
6.16850E-11 1.13876E-09
6.51595E-11 1.08393E-09
6.87293E-11 1.03165E-09
7.23943E-11 9.82346E-10
7.61544E-11 9.35837E-10
1.18991E-10 5.85214E-10
1.71347E-10 3.71858E-10
2.33223E-10 2.48799E-10
3.04617E-10 1.69739E-10
3.85531E-10 1.19447E-10
4.75965E-10 8.67963E-11
5.75917E-10 6.48487E-11
6.85389E-10 4.95349E-11
8.04380E-10 3.87010E-11
9.32891E-10 3.08219E-11
1.07092E-09 2.49319E-11
1.21847E-09 2.03885E-11
1.37554E-09 1.68626E-11
1.54213E-09 1.40796E-11
1.71823E-09 1.18334E-11
1.90386E-09 1.00023E-11
2.09900E-09 8.50830E-12
2.30367E-09 7.27779E-12
2.51785E-09 6.24702E-12
2.74156E-09 5.38717E-12
2.97478E-09 4.66726E-12
3.21752E-09 4.06043E-12
3.46978E-09 3.54425E-12
3.73156E-09 3.10605E-12
4.00286E-09 2.73236E-12
4.28368E-09 2.41214E-12
4.57402E-09 2.13680E-12
4.87388E-09 1.89976E-12
5.18326E-09 1.69481E-12
5.50215E-09 1.51663E-12
5.83057E-09 1.36137E-12
6.16850E-09 1.22567E-12
6.51596E-09 1.10663E-12
6.87293E-09 1.00167E-12
7.23942E-09 9.09032E-13
7.61544E-09 8.27008E-13
1.18991E-08 3.59513E-13
1.71347E-08 1.81415E-13
2.33223E-08 1.01090E-13
3.04617E-08 6.05677E-14
3.85531E-08 3.83890E-14
4.75965E-08 2.54626E-14
5.75917E-08 1.75358E-14
6.85389E-08 1.24637E-14
8.04380E-08 9.09964E-15
9.32891E-08 6.79850E-15
1.07092E-07 5.18162E-15
1.21847E-07 4.01865E-15
1.37554E-07 3.16478E-15
1.54213E-07 2.52632E-15
1.71823E-07 2.04120E-15
1.90386E-07 1.66722E-15
2.09900E-07 1.37516E-15
2.30367E-07 1.14437E-15
2.51785E-07 9.60033E-16
2.74156E-07 8.11358E-16
2.97478E-07 6.90379E-16
3.21752E-07 5.91126E-16
3.46978E-07 5.09080E-16
3.73156E-07 4.40780E-16
4.00286E-07 3.83553E-16
4.28368E-07 3.35312E-16
4.57402E-07 2.94417E-16
4.87388E-07 2.59567E-16
5.18325E-07 2.29720E-16
5.50215E-07 2.04040E-16
5.83057E-07 1.81846E-16
6.16850E-07 1.62587E-16
6.51596E-07 1.45810E-16
6.87293E-07 1.31140E-16
7.23942E-07 1.18268E-16
7.61543E-07 1.06936E-16
1.18991E-06 4.39697E-17
1.71347E-06 2.12493E-17
2.33223E-06 1.14847E-17
3.04617E-06 6.73790E-18
3.85531E-06 4.20905E-18
4.75964E-06 2.76288E-18
5.75916E-06 1.88782E-18
6.85388E-06 1.33336E-18
8.04378E-06 9.68333E-19
9.32888E-06 7.20109E-19
1.07092E-05 5.46574E-19
1.21846E-05 4.22309E-19
1.37553E-05 3.31441E-19
1.54212E-05 2.63754E-19
1.71822E-05 2.12501E-19
1.90385E-05 1.73081E-19
2.09899E-05 1.42460E-19
2.30365E-05 1.18314E-19
2.51783E-05 9.90636E-20
2.74153E-05 8.35655E-20
2.97475E-05 7.09790E-20
3.21749E-05 6.06757E-20
3.46974E-05 5.21786E-20
3.73152E-05 4.51219E-20
4.00281E-05 3.92214E-20
4.28362E-05 3.42563E-20
4.57395E-05 3.00527E-20
4.87380E-05 2.64742E-20
5.18317E-05 2.34122E-20
5.50205E-05 2.07797E-20
5.83045E-05 1.85070E-20
6.16838E-05 1.65369E-20
6.51582E-05 1.48224E-20
6.87277E-05 1.33251E-20
7.23925E-05 1.20125E-20
7.61524E-05 1.08727E-20
9.21439E-05 7.42888E-21
1.09658E-04 5.24616E-21
1.28695E-04 3.80914E-21
1.49255E-04 2.83153E-21
1.71338E-04 2.14810E-21
1.94942E-04 1.65859E-21
2.20070E-04 1.30062E-21
2.46720E-04 1.03398E-21
2.74892E-04 8.32061E-22
3.04586E-04 6.76936E-22
3.35803E-04 5.56163E-22
3.68542E-04 4.61023E-22
4.02802E-04 3.85260E-22
4.38585E-04 3.24331E-22
4.75889E-04 2.74891E-22
5.14715E-04 2.34438E-22
5.55063E-04 2.01088E-22
5.96931E-04 1.73398E-22
6.40321E-04 1.50257E-22
6.85233E-04 1.30799E-22
7.31665E-04 1.14347E-22
7.79618E-04 1.00361E-22
8.29092E-04 8.84137E-23
8.80086E-04 7.81598E-23
9.32601E-04 6.93212E-23
9.86636E-04 6.16710E-23
1.04219E-03 5.50239E-23
1.09927E-03 4.92272E-23
1.15786E-03 4.41547E-23
1.21797E-03 3.97014E-23
1.27961E-03 3.57795E-23
1.34276E-03 3.23155E-23
1.40743E-03 2.92474E-23
1.47362E-03 2.65226E-23
1.54133E-03 2.40967E-23
1.61056E-03 2.19317E-23
1.68131E-03 1.99950E-23
1.75357E-03 1.82588E-23
1.82735E-03 1.66990E-23
1.90265E-03 1.52949E-23
1.97947E-03 1.40286E-23
2.05780E-03 1.28843E-23
2.13765E-03 1.18486E-23
2.21902E-03 1.09095E-23
2.30190E-03 1.00567E-23
2.38630E-03 9.28094E-24
2.47222E-03 8.57427E-24
2.55965E-03 7.92962E-24
2.64859E-03 7.34071E-24
2.73905E-03 6.80201E-24
2.83103E-03 6.30860E-24
2.92452E-03 5.85613E-24
3.01952E-03 5.44069E-24
3.11604E-03 5.05882E-24
3.21407E-03 4.70743E-24
3.31362E-03 4.38372E-24
3.41468E-03 4.08522E-24
3.51725E-03 3.80968E-24
3.62133E-03 3.55510E-24
3.72692E-03 3.31966E-24
3.83403E-03 3.10172E-24
3.94265E-03 2.89982E-24
4.05278E-03 2.71262E-24
4.16442E-03 2.53890E-24
4.27757E-03 2.37757E-24
4.39223E-03 2.22763E-24
4.50840E-03 2.08817E-24
4.62608E-03 1.95838E-24
4.74527E-03 1.83749E-24
4.86597E-03 1.72482E-24
4.98817E-03 1.61975E-24
5.11188E-03 1.52170E-24
5.23711E-03 1.43014E-24
5.36383E-03 1.34461E-24
5.49207E-03 1.26465E-24
5.62181E-03 1.18986E-24
5.75306E-03 1.11987E-24
5.88581E-03 1.05434E-24
6.02007E-03 9.92958E-25
6.15583E-03 9.35428E-25
6.29310E-03 8.81485E-25
6.43187E-03 8.30882E-25
6.57214E-03 7.83393E-25
6.71392E-03 7.38807E-25
6.85720E-03 6.96929E-25
7.00198E-03 6.57579E-25
7.14827E-03 6.20590E-25
7.29605E-03 5.85808E-25
7.44534E-03 5.53090E-25
7.59612E-03 5.22302E-25
7.97965E-03 4.52987E-25
8.37255E-03 3.93281E-25
8.77480E-03 3.41759E-25
9.18641E-03 2.97226E-25
9.60736E-03 2.58674E-25
1.00376E-02 2.25254E-25
1.04773E-02 1.96248E-25
1.09262E-02 1.71043E-25
1.13844E-02 1.49120E-25
1.18520E-02 1.30035E-25
1.23288E-02 1.13406E-25
1.28150E-02 9.89076E-26
1.33104E-02 8.62600E-26
1.38150E-02 7.52213E-26
1.43290E-02 6.55831E-26
1.48521E-02 5.71651E-26
1.53845E-02 4.98114E-26
1.59262E-02 4.33866E-26
1.64770E-02 3.77731E-26
1.70371E-02 3.28687E-26
1.76063E-02 2.85844E-26
1.81848E-02 2.48425E-26
1.87724E-02 2.15753E-26
1.93692E-02 1.87237E-26
1.99751E-02 1.62359E-26
2.05901E-02 1.40666E-26
2.12143E-02 1.21762E-26
2.18476E-02 1.05301E-26
2.24900E-02 9.09764E-27
2.31415E-02 7.85228E-27
2.38021E-02 6.77055E-27
2.44717E-02 5.83193E-27
2.51504E-02 5.01837E-27
2.58382E-02 4.31406E-27
2.65349E-02 3.70510E-27
2.72407E-02 3.17930E-27
2.79555E-02 2.72598E-27
2.86793E-02 2.33573E-27
2.94120E-02 2.00034E-27
3.01537E-02 1.71259E-27
3.09043E-02 1.46616E-27
3.16639E-02 1.25553E-27
3.24324E-02 1.07584E-27
3.32098E-02 9.22864E-28
3.39961E-02 7.92910E-28
3.47912E-02 6.82751E-28
3.55952E-02 5.89577E-28
3.64081E-02 5.10943E-28
3.72297E-02 4.44724E-28
3.80602E-02 3.89074E-28
3.88995E-02 3.42398E-28
3.97476E-02 3.03314E-28
4.06044E-02 2.70632E-28
4.14700E-02 2.43326E-28
4.23443E-02 2.20516E-28
4.32273E-02 2.01450E-28
4.41190E-02 1.85483E-28
4.50194E-02 1.72071E-28
4.59284E-02 1.60748E-28
4.68461E-02 1.51125E-28
4.87074E-02 1.35718E-28
5.06030E-02 1.23830E-28
5.25328E-02 1.14085E-28
5.44967E-02 1.05580E-28
5.64946E-02 9.77483E-29
5.85262E-02 9.02632E-29
6.05914E-02 8.29584E-29
6.26901E-02 7.57747E-29
6.48222E-02 6.87190E-29
6.69873E-02 6.18347E-29
6.91854E-02 5.51825E-29
7.14163E-02 4.88259E-29
7.36799E-02 4.28233E-29
7.59760E-02 3.72227E-29
7.83043E-02 3.20591E-29
8.06647E-02 2.73542E-29
8.30571E-02 2.31167E-29
8.54812E-02 1.93439E-29
8.79369E-02 1.60228E-29
9.04240E-02 1.31328E-29
9.29422E-02 1.06468E-29
9.54915E-02 8.53372E-30
9.80716E-02 6.75956E-30
1.00682E-01 5.28911E-30
1.03323E-01 4.08706E-30
1.05995E-01 3.11899E-30
1.08696E-01 2.35207E-30
1.11427E-01 1.75565E-30
1.14188E-01 1.30158E-30
1.16978E-01 9.64505E-31
1.19797E-01 7.21892E-31
1.22645E-01 5.54051E-31
1.25522E-01 4.44043E-31
1.28428E-01 3.77526E-31
1.31361E-01 3.42565E-31
1.34323E-01 3.29414E-31
1.37313E-01 3.30276E-31
1.40330E-01 3.39066E-31
1.43375E-01 3.51179E-31
1.46447E-01 3.63260E-31
1.49545E-01 3.72995E-31
1.52671E-01 3.78918E-31
1.55823E-01 3.80238E-31
1.59001E-01 3.76685E-31
1.62205E-01 3.68380E-31
1.65435E-01 3.55720E-31
1.68690E-01 3.39284E-31
1.71970E-01 3.19760E-31
1.75276E-01 2.97879E-31
1.78606E-01 2.74372E-31
1.81961E-01 2.49932E-31
1.85340E-01 2.25193E-31
1.88743E-01 2.00713E-31
1.92169E-01 1.76961E-31
1.95619E-01 1.54322E-31
1.99092E-01 1.33092E-31
2.02589E-01 1.13482E-31
2.06107E-01 9.56331E-32
2.09649E-01 7.96148E-32
2.13212E-01 6.54409E-32
2.16797E-01 5.30766E-32
2.20404E-01 4.24484E-32
2.24032E-01 3.34528E-32
2.27680E-01 2.59647E-32
2.31350E-01 1.98449E-32
2.35040E-01 1.49461E-32
2.38751E-01 1.11189E-32
2.42481E-01 8.21575E-33
2.46231E-01 6.09523E-33
2.50000E-01 4.62425E-33
2.53788E-01 3.68028E-33
2.57595E-01 3.15259E-33
2.61421E-01 2.94295E-33
2.65264E-01 2.96589E-33
2.69126E-01 3.14841E-33
2.73005E-01 3.42959E-33
2.76901E-01 3.75971E-33
2.80814E-01 4.09942E-33
2.84744E-01 4.41864E-33
2.88691E-01 4.69549E-33
2.92653E-01 4.91515E-33
2.96632E-01 5.06883E-33
3.00625E-01 5.15267E-33
3.04634E-01 5.16677E-33
3.08658E-01 5.11435E-33
3.12697E-01 5.00089E-33
3.16749E-01 4.83351E-33
3.20816E-01 4.62027E-33
3.24896E-01 4.36977E-33
3.28990E-01 4.09065E-33
3.33097E-01 3.79132E-33
3.37216E-01 3.47968E-33
3.41348E-01 3.16295E-33
3.45492E-01 2.84753E-33
3.49647E-01 2.53895E-33
3.53814E-01 2.24184E-33
3.57992E-01 1.95992E-33
3.62181E-01 1.69604E-33
3.66381E-01 1.45227E-33
3.70590E-01 1.22990E-33
3.74810E-01 1.02959E-33
3.79039E-01 8.51436E-34
3.83277E-01 6.95026E-34
3.87524E-01 5.59566E-34
3.91780E-01 4.43943E-34
3.96044E-01 3.46806E-34
4.00316E-01 2.66637E-34
4.04596E-01 2.01816E-34
4.08882E-01 1.50670E-34
4.13176E-01 1.11526E-34
4.17476E-01 8.27476E-35
4.21783E-01 6.27649E-35
4.26095E-01 5.01018E-35
4.30413E-01 4.33923E-35
4.34737E-01 4.13925E-35
4.39065E-01 4.29886E-35
4.43398E-01 4.71986E-35
4.47736E-01 5.31722E-35
4.52077E-01 6.01861E-35
4.56422E-01 6.76384E-35
4.60770E-01 7.50399E-35
4.65122E-01 8.20051E-35
4.69476E-01 8.82424E-35
4.73832E-01 9.35426E-35
4.78190E-01 9.77693E-35
4.82550E-01 1.00848E-34
4.86912E-01 1.02756E-34
4.91274E-01 1.03513E-34
4.95637E-01 1.03172E-34
5.00000E-01 1.01814E-34
5.04363E-01 9.95364E-35
5.08726E-01 9.64501E-35
5.13088E-01 9.26731E-35
5.17450E-01 8.83263E-35
5.21810E-01 8.35290E-35
5.26168E-01 7.83968E-35
5.30524E-01 7.30382E-35
5.34878E-01 6.75538E-35
5.39230E-01 6.20346E-35
5.43578E-01 5.65610E-35
5.47923E-01 5.12030E-35
5.52264E-01 4.60197E-35
5.56602E-01 4.10598E-35
5.60935E-01 3.63619E-35
5.65263E-01 3.19551E-35
5.69587E-01 2.78600E-35
5.73905E-01 2.40893E-35
5.78217E-01 2.06485E-35
5.82524E-01 1.75373E-35
5.86824E-01 1.47501E-35
5.91118E-01 1.22768E-35
5.95404E-01 1.01040E-35
5.99684E-01 8.21525E-36
6.03956E-01 6.59228E-36
6.08220E-01 5.21527E-36
6.12476E-01 4.06351E-36
6.16723E-01 3.11594E-36
6.20961E-01 2.35153E-36
6.25190E-01 1.74966E-36
6.29410E-01 1.29037E-36
6.33619E-01 9.54677E-37
6.37819E-01 7.24656E-37
6.42008E-01 5.83644E-37
6.46186E-01 5.16293E-37
6.50353E-01 5.08631E-37
6.54508E-01 5.48073E-37
6.58652E-01 6.23413E-37
6.62784E-01 7.24786E-37
6.66903E-01 8.43619E-37
6.71010E-01 9.72564E-37
6.75104E-01 1.10542E-36
6.79184E-01 1.23703E-36
6.83251E-01 1.36324E-36
6.87303E-01 1.48075E-36
6.91342E-01 1.58705E-36
6.95366E-01 1.68033E-36
6.99375E-01 1.75940E-36
7.03368E-01 1.82356E-36
7.07347E-01 1.87259E-36
7.11309E-01 1.90664E-36
7.15256E-01 1.92614E-36
7.19186E-01 1.93178E-36
7.23099E-01 1.92444E-36
7.26995E-01 1.90514E-36
7.30874E-01 1.87498E-36
7.34736E-01 1.83514E-36
7.38579E-01 1.78680E-36
7.42405E-01 1.73118E-36
7.46212E-01 1.66942E-36
7.50000E-01 1.60267E-36
7.53769E-01 1.53199E-36
7.57519E-01 1.45841E-36
7.61249E-01 1.38283E-36
7.64960E-01 1.30613E-36
7.68650E-01 1.22907E-36
7.72320E-01 1.15235E-36
7.75968E-01 1.07657E-36
7.79596E-01 1.00225E-36
7.83203E-01 9.29855E-37
7.86788E-01 8.59757E-37
7.90351E-01 7.92266E-37
7.93893E-01 7.27629E-37
7.97411E-01 6.66033E-37
8.00908E-01 6.07613E-37
8.04381E-01 5.52456E-37
8.07831E-01 5.00606E-37
8.11257E-01 4.52070E-37
8.14660E-01 4.06820E-37
8.18039E-01 3.64804E-37
8.21394E-01 3.25943E-37
8.24724E-01 2.90138E-37
8.28030E-01 2.57277E-37
8.31310E-01 2.27232E-37
8.34565E-01 1.99868E-37
8.37795E-01 1.75041E-37
8.40999E-01 1.52606E-37
8.44177E-01 1.32412E-37
8.47329E-01 1.14310E-37
8.50455E-01 9.81540E-38
8.53553E-01 8.37970E-38
8.56625E-01 7.10985E-38
8.59670E-01 5.99221E-38
8.62687E-01 5.01371E-38
8.65677E-01 4.16187E-38
8.68639E-01 3.42486E-38
8.71572E-01 2.79152E-38
8.74478E-01 2.25139E-38
8.77355E-01 1.79468E-38
8.80203E-01 1.41228E-38
8.83022E-01 1.09577E-38
8.85812E-01 8.37352E-39
8.88573E-01 6.29896E-39
8.91304E-01 4.66859E-39
8.94005E-01 3.42281E-39
8.96677E-01 2.50759E-39
8.99318E-01 1.00000E-45
9.01928E-01 1.00000E-45
9.04508E-01 1.00000E-45
9.07058E-01 1.00000E-45
9.09576E-01 1.00000E-45
9.12063E-01 1.00000E-45
9.14519E-01 1.00000E-45
9.16943E-01 1.00000E-45
9.19335E-01 1.00000E-45
9.21696E-01 1.00000E-45
9.24024E-01 1.00000E-45
9.26320E-01 1.00000E-45
9.28584E-01 1.00000E-45
9.30815E-01 1.00000E-45
9.33013E-01 1.00000E-45
9.35178E-01 1.00000E-45
9.37310E-01 1.00000E-45
9.39409E-01 1.00000E-45
9.41474E-01 1.00000E-45
9.43505E-01 1.00000E-45
9.45503E-01 1.00000E-45
9.47467E-01 1.00000E-45
9.49397E-01 1.00000E-45
9.51293E-01 1.00000E-45
9.53154E-01 1.00000E-45
9.54981E-01 1.00000E-45
9.56773E-01 1.00000E-45
9.58530E-01 1.00000E-45
9.60252E-01 1.00000E-45
9.61940E-01 1.00000E-45
9.63592E-01 1.00000E-45
9.65209E-01 1.00000E-45
9.66790E-01 1.00000E-45
9.68336E-01 1.00000E-45
9.69846E-01 1.00000E-45
9.71321E-01 1.00000E-45
9.72759E-01 1.00000E-45
9.74162E-01 1.00000E-45
9.75528E-01 1.00000E-45
9.76858E-01 1.00000E-45
9.78152E-01 1.00000E-45
9.79410E-01 1.00000E-45
9.80631E-01 1.00000E-45
9.81815E-01 1.00000E-45
9.82963E-01 1.00000E-45
9.84074E-01 1.00000E-45
9.85148E-01 1.00000E-45
9.86185E-01 1.00000E-45
9.87185E-01 1.00000E-45
9.88148E-01 1.00000E-45
9.89074E-01 1.00000E-45
9.89962E-01 1.00000E-45
9.90814E-01 1.00000E-45
9.91627E-01 1.00000E-45
9.92404E-01 1.00000E-45
9.93143E-01 1.00000E-45
9.93844E-01 1.00000E-45
9.94508E-01 1.00000E-45
9.95134E-01 1.00000E-45
9.95722E-01 1.00000E-45
9.96273E-01 1.00000E-45
9.96786E-01 1.00000E-45
9.97261E-01 1.00000E-45
9.97698E-01 1.00000E-45
9.98097E-01 1.00000E-45
9.98459E-01 1.00000E-45
9.98782E-01 1.00000E-45
9.99067E-01 1.00000E-45
9.99315E-01 1.00000E-45
9.99524E-01 1.00000E-45
9.99695E-01 1.00000E-45
9.99829E-01 1.00000E-45
9.99924E-01 1.00000E-45
9.99981E-01 1.00000E-45
1.00000E+00 1.00000E-45
