 #
 # Subroutine ELSEPA. Elastic scattering of electrons and positrons
 #                    by neutral atoms and positive ions
 #
 # Projectile: electron
 # Kinetic energy = 1.50000E+08 eV = 5.51240E+06 a.u.
 #
 # WARNING: High-energy factorization with free-atom DF screening.
 #          Absorption, polarization and exchange corrections are
 #          switched off.
 #          Phase shifts are calculated for the bare nucleus.
 #          Scattering amplitudes are not evaluated.
 #
 # Element: Ru,  Z =  44,  atomic weight = 1.01070E+02 g/mol
 #
 # Nuclear model: Fermi distribution
 #                Average radius = 4.98415E-13 cm
 #                Skin thickness = 5.46000E-14 cm
 #
 # Number of electrons = 44
 #
 # Total elastic cross section = 4.16870E-18 cm**2 = 1.48867E-01 a0**2
 # 1st transport cross section = 1.70604E-25 cm**2 = 6.09237E-09 a0**2
 # 2nd transport cross section = 5.09712E-25 cm**2 = 1.82022E-08 a0**2
 #
 #
 # Differential cross section:                       MU=(1-COS(THETA))/2
 #
 #  THETA        MU          DCS          DCS        Sherman      error
 #  (deg)                 (cm**2/sr)   (a0**2/sr)    function
 #----------------------------------------------------------------------
0.00000E+00 7.71162E-10
7.61557E-13 7.66676E-10
1.18994E-12 7.64178E-10
1.71346E-12 7.61146E-10
2.33225E-12 7.57591E-10
3.04617E-12 7.53529E-10
3.85530E-12 7.48975E-10
4.75964E-12 7.43945E-10
5.75917E-12 7.38459E-10
6.85391E-12 7.32537E-10
8.04379E-12 7.26201E-10
9.32893E-12 7.19471E-10
1.07092E-11 7.12356E-10
1.21847E-11 7.04887E-10
1.37554E-11 6.97122E-10
1.54213E-11 6.89091E-10
1.71823E-11 6.80730E-10
1.90386E-11 6.72127E-10
2.09900E-11 6.63339E-10
2.30367E-11 6.54371E-10
2.51785E-11 6.45142E-10
2.74156E-11 6.35804E-10
2.97478E-11 6.26380E-10
3.21752E-11 6.16814E-10
3.46979E-11 6.07121E-10
3.73157E-11 5.97412E-10
4.00286E-11 5.87706E-10
4.28368E-11 5.77866E-10
4.57402E-11 5.68037E-10
4.87388E-11 5.58267E-10
5.18325E-11 5.48533E-10
5.50215E-11 5.38727E-10
5.83057E-11 5.29026E-10
6.16850E-11 5.19440E-10
6.51595E-11 5.09869E-10
6.87293E-11 5.00344E-10
7.23943E-11 4.90966E-10
7.61544E-11 4.81744E-10
1.18991E-10 3.95490E-10
1.71347E-10 3.23240E-10
2.33223E-10 2.64553E-10
3.04617E-10 2.17355E-10
3.85531E-10 1.79357E-10
4.75965E-10 1.48728E-10
5.75917E-10 1.23909E-10
6.85389E-10 1.03674E-10
8.04380E-10 8.70892E-11
9.32891E-10 7.34645E-11
1.07092E-09 6.18670E-11
1.21847E-09 5.22267E-11
1.37554E-09 4.46532E-11
1.54213E-09 3.86267E-11
1.71823E-09 3.31713E-11
1.90386E-09 2.86146E-11
2.09900E-09 2.49093E-11
2.30367E-09 2.18312E-11
2.51785E-09 1.90608E-11
2.74156E-09 1.67621E-11
2.97478E-09 1.48399E-11
3.21752E-09 1.31743E-11
3.46978E-09 1.17192E-11
3.73156E-09 1.04818E-11
4.00286E-09 9.42325E-12
4.28368E-09 8.48072E-12
4.57402E-09 7.66131E-12
4.87388E-09 6.95065E-12
5.18326E-09 6.32728E-12
5.50215E-09 5.76567E-12
5.83057E-09 5.27285E-12
6.16850E-09 4.83866E-12
6.51596E-09 4.44688E-12
6.87293E-09 4.09338E-12
7.23942E-09 3.77902E-12
7.61544E-09 3.49856E-12
1.18991E-08 1.73164E-12
1.71347E-08 9.44385E-13
2.33223E-08 5.49806E-13
3.04617E-08 3.38041E-13
3.85531E-08 2.18431E-13
4.75965E-08 1.47474E-13
5.75917E-08 1.03299E-13
6.85389E-08 7.46488E-14
8.04380E-08 5.53739E-14
9.32891E-08 4.19767E-14
1.07092E-07 3.23915E-14
1.21847E-07 2.54219E-14
1.37554E-07 2.02076E-14
1.54213E-07 1.62677E-14
1.71823E-07 1.32422E-14
1.90386E-07 1.08774E-14
2.09900E-07 9.01688E-15
2.30367E-07 7.53675E-15
2.51785E-07 6.34460E-15
2.74156E-07 5.37822E-15
2.97478E-07 4.58878E-15
3.21752E-07 3.93795E-15
3.46978E-07 3.39808E-15
3.73156E-07 2.94766E-15
4.00286E-07 2.56920E-15
4.28368E-07 2.24939E-15
4.57402E-07 1.97789E-15
4.87388E-07 1.74615E-15
5.18325E-07 1.54727E-15
5.50215E-07 1.37599E-15
5.83057E-07 1.22782E-15
6.16850E-07 1.09901E-15
6.51596E-07 9.86703E-16
6.87293E-07 8.88423E-16
7.23942E-07 8.02066E-16
7.61543E-07 7.25974E-16
1.18991E-06 3.01347E-16
1.71347E-06 1.46736E-16
2.33223E-06 7.97622E-17
3.04617E-06 4.69951E-17
3.85531E-06 2.94499E-17
4.75964E-06 1.93770E-17
5.75916E-06 1.32636E-17
6.85388E-06 9.38086E-18
8.04378E-06 6.81993E-18
9.32888E-06 5.07594E-18
1.07092E-05 3.85528E-18
1.21846E-05 2.98038E-18
1.37553E-05 2.34012E-18
1.54212E-05 1.86289E-18
1.71822E-05 1.50134E-18
1.90385E-05 1.22315E-18
2.09899E-05 1.00696E-18
2.30365E-05 8.36443E-19
2.51783E-05 7.00459E-19
2.74153E-05 5.90956E-19
2.97475E-05 5.02006E-19
3.21749E-05 4.29179E-19
3.46974E-05 3.69110E-19
3.73152E-05 3.19216E-19
4.00281E-05 2.77493E-19
4.28362E-05 2.42379E-19
4.57395E-05 2.12650E-19
4.87380E-05 1.87338E-19
5.18317E-05 1.65677E-19
5.50205E-05 1.47055E-19
5.83045E-05 1.30976E-19
6.16838E-05 1.17037E-19
6.51582E-05 1.04907E-19
6.87277E-05 9.43120E-20
7.23925E-05 8.50235E-20
7.61524E-05 7.69292E-20
9.21439E-05 5.25907E-20
1.09658E-04 3.71631E-20
1.28695E-04 2.70050E-20
1.49255E-04 2.00931E-20
1.71338E-04 1.52598E-20
1.94942E-04 1.17970E-20
2.20070E-04 9.26375E-21
2.46720E-04 7.37600E-21
2.74892E-04 5.94579E-21
3.04586E-04 4.84639E-21
3.35803E-04 3.98988E-21
3.68542E-04 3.31467E-21
4.02802E-04 2.77654E-21
4.38585E-04 2.34339E-21
4.75889E-04 1.99158E-21
5.14715E-04 1.70340E-21
5.55063E-04 1.46556E-21
5.96931E-04 1.26783E-21
6.40321E-04 1.10237E-21
6.85233E-04 9.63054E-22
7.31665E-04 8.45071E-22
7.79618E-04 7.44619E-22
8.29092E-04 6.58657E-22
8.80086E-04 5.84748E-22
9.32601E-04 5.20920E-22
9.86636E-04 4.65564E-22
1.04219E-03 4.17367E-22
1.09927E-03 3.75244E-22
1.15786E-03 3.38299E-22
1.21797E-03 3.05786E-22
1.27961E-03 2.77083E-22
1.34276E-03 2.51664E-22
1.40743E-03 2.29090E-22
1.47362E-03 2.08987E-22
1.54133E-03 1.91036E-22
1.61056E-03 1.74968E-22
1.68131E-03 1.60549E-22
1.75357E-03 1.47582E-22
1.82735E-03 1.35893E-22
1.90265E-03 1.25335E-22
1.97947E-03 1.15779E-22
2.05780E-03 1.07113E-22
2.13765E-03 9.92393E-23
2.21902E-03 9.20726E-23
2.30190E-03 8.55380E-23
2.38630E-03 7.95699E-23
2.47222E-03 7.41104E-23
2.55965E-03 6.91083E-23
2.64859E-03 6.45185E-23
2.73905E-03 6.03009E-23
2.83103E-03 5.64199E-23
2.92452E-03 5.28438E-23
3.01952E-03 4.95443E-23
3.11604E-03 4.64961E-23
3.21407E-03 4.36768E-23
3.31362E-03 4.10660E-23
3.41468E-03 3.86454E-23
3.51725E-03 3.63988E-23
3.62133E-03 3.43114E-23
3.72692E-03 3.23698E-23
3.83403E-03 3.05621E-23
3.94265E-03 2.88773E-23
4.05278E-03 2.73055E-23
4.16442E-03 2.58379E-23
4.27757E-03 2.44662E-23
4.39223E-03 2.31831E-23
4.50840E-03 2.19817E-23
4.62608E-03 2.08560E-23
4.74527E-03 1.98003E-23
4.86597E-03 1.88096E-23
4.98817E-03 1.78789E-23
5.11188E-03 1.70042E-23
5.23711E-03 1.61813E-23
5.36383E-03 1.54067E-23
5.49207E-03 1.46770E-23
5.62181E-03 1.39891E-23
5.75306E-03 1.33403E-23
5.88581E-03 1.27279E-23
6.02007E-03 1.21495E-23
6.15583E-03 1.16028E-23
6.29310E-03 1.10859E-23
6.43187E-03 1.05967E-23
6.57214E-03 1.01336E-23
6.71392E-03 9.69493E-24
6.85720E-03 9.27913E-24
7.00198E-03 8.88480E-24
7.14827E-03 8.51065E-24
7.29605E-03 8.15546E-24
7.44534E-03 7.81809E-24
7.59612E-03 7.49749E-24
7.97965E-03 6.76310E-24
8.37255E-03 6.11394E-24
8.77480E-03 5.53851E-24
9.18641E-03 5.02710E-24
9.60736E-03 4.57142E-24
1.00376E-02 4.16443E-24
1.04773E-02 3.80009E-24
1.09262E-02 3.47321E-24
1.13844E-02 3.17932E-24
1.18520E-02 2.91457E-24
1.23288E-02 2.67561E-24
1.28150E-02 2.45952E-24
1.33104E-02 2.26379E-24
1.38150E-02 2.08618E-24
1.43290E-02 1.92476E-24
1.48521E-02 1.77783E-24
1.53845E-02 1.64389E-24
1.59262E-02 1.52160E-24
1.64770E-02 1.40981E-24
1.70371E-02 1.30747E-24
1.76063E-02 1.21367E-24
1.81848E-02 1.12759E-24
1.87724E-02 1.04849E-24
1.93692E-02 9.75738E-25
1.99751E-02 9.08739E-25
2.05901E-02 8.46974E-25
2.12143E-02 7.89977E-25
2.18476E-02 7.37328E-25
2.24900E-02 6.88647E-25
2.31415E-02 6.43594E-25
2.38021E-02 6.01861E-25
2.44717E-02 5.63170E-25
2.51504E-02 5.27270E-25
2.58382E-02 4.93931E-25
2.65349E-02 4.62948E-25
2.72407E-02 4.34131E-25
2.79555E-02 4.07310E-25
2.86793E-02 3.82329E-25
2.94120E-02 3.59046E-25
3.01537E-02 3.37330E-25
3.09043E-02 3.17063E-25
3.16639E-02 2.98137E-25
3.24324E-02 2.80452E-25
3.32098E-02 2.63918E-25
3.39961E-02 2.48450E-25
3.47912E-02 2.33972E-25
3.55952E-02 2.20414E-25
3.64081E-02 2.07710E-25
3.72297E-02 1.95800E-25
3.80602E-02 1.84630E-25
3.88995E-02 1.74149E-25
3.97476E-02 1.64309E-25
4.06044E-02 1.55068E-25
4.14700E-02 1.46386E-25
4.23443E-02 1.38224E-25
4.32273E-02 1.30550E-25
4.41190E-02 1.23330E-25
4.50194E-02 1.16536E-25
4.59284E-02 1.10140E-25
4.68461E-02 1.04116E-25
4.87074E-02 9.30944E-26
5.06030E-02 8.33002E-26
5.25328E-02 7.45863E-26
5.44967E-02 6.68247E-26
5.64946E-02 5.99040E-26
5.85262E-02 5.37269E-26
6.05914E-02 4.82084E-26
6.26901E-02 4.32741E-26
6.48222E-02 3.88585E-26
6.69873E-02 3.49043E-26
6.91854E-02 3.13608E-26
7.14163E-02 2.81833E-26
7.36799E-02 2.53325E-26
7.59760E-02 2.27733E-26
7.83043E-02 2.04748E-26
8.06647E-02 1.84096E-26
8.30571E-02 1.65533E-26
8.54812E-02 1.48843E-26
8.79369E-02 1.33831E-26
9.04240E-02 1.20325E-26
9.29422E-02 1.08172E-26
9.54915E-02 9.72347E-27
9.80716E-02 8.73896E-27
1.00682E-01 7.85269E-27
1.03323E-01 7.05482E-27
1.05995E-01 6.33650E-27
1.08696E-01 5.68983E-27
1.11427E-01 5.10767E-27
1.14188E-01 4.58363E-27
1.16978E-01 4.11198E-27
1.19797E-01 3.68752E-27
1.22645E-01 3.30562E-27
1.25522E-01 2.96209E-27
1.28428E-01 2.65313E-27
1.31361E-01 2.37536E-27
1.34323E-01 2.12571E-27
1.37313E-01 1.90140E-27
1.40330E-01 1.69995E-27
1.43375E-01 1.51910E-27
1.46447E-01 1.35681E-27
1.49545E-01 1.21126E-27
1.52671E-01 1.08077E-27
1.55823E-01 9.63872E-28
1.59001E-01 8.59196E-28
1.62205E-01 7.65526E-28
1.65435E-01 6.81759E-28
1.68690E-01 6.06900E-28
1.71970E-01 5.40051E-28
1.75276E-01 4.80399E-28
1.78606E-01 4.27213E-28
1.81961E-01 3.79829E-28
1.85340E-01 3.37652E-28
1.88743E-01 3.00143E-28
1.92169E-01 2.66817E-28
1.95619E-01 2.37234E-28
1.99092E-01 2.11001E-28
2.02589E-01 1.87763E-28
2.06107E-01 1.67197E-28
2.09649E-01 1.49017E-28
2.13212E-01 1.32963E-28
2.16797E-01 1.18802E-28
2.20404E-01 1.06325E-28
2.24032E-01 9.53425E-29
2.27680E-01 8.56867E-29
2.31350E-01 7.72061E-29
2.35040E-01 6.97652E-29
2.38751E-01 6.32428E-29
2.42481E-01 5.75304E-29
2.46231E-01 5.25311E-29
2.50000E-01 4.81586E-29
2.53788E-01 4.43359E-29
2.57595E-01 4.09945E-29
2.61421E-01 3.80735E-29
2.65264E-01 3.55189E-29
2.69126E-01 3.32829E-29
2.73005E-01 3.13230E-29
2.76901E-01 2.96019E-29
2.80814E-01 2.80867E-29
2.84744E-01 2.67485E-29
2.88691E-01 2.55617E-29
2.92653E-01 2.45043E-29
2.96632E-01 2.35568E-29
3.00625E-01 2.27022E-29
3.04634E-01 2.19261E-29
3.08658E-01 2.12156E-29
3.12697E-01 2.05600E-29
3.16749E-01 1.99499E-29
3.20816E-01 1.93773E-29
3.24896E-01 1.88355E-29
3.28990E-01 1.83188E-29
3.33097E-01 1.78224E-29
3.37216E-01 1.73424E-29
3.41348E-01 1.68756E-29
3.45492E-01 1.64193E-29
3.49647E-01 1.59715E-29
3.53814E-01 1.55304E-29
3.57992E-01 1.50949E-29
3.62181E-01 1.46641E-29
3.66381E-01 1.42372E-29
3.70590E-01 1.38140E-29
3.74810E-01 1.33941E-29
3.79039E-01 1.29776E-29
3.83277E-01 1.25645E-29
3.87524E-01 1.21549E-29
3.91780E-01 1.17492E-29
3.96044E-01 1.13477E-29
4.00316E-01 1.09507E-29
4.04596E-01 1.05586E-29
4.08882E-01 1.01718E-29
4.13176E-01 9.79067E-30
4.17476E-01 9.41566E-30
4.21783E-01 9.04714E-30
4.26095E-01 8.68547E-30
4.30413E-01 8.33100E-30
4.34737E-01 7.98406E-30
4.39065E-01 7.64492E-30
4.43398E-01 7.31387E-30
4.47736E-01 6.99112E-30
4.52077E-01 6.67688E-30
4.56422E-01 6.37132E-30
4.60770E-01 6.07456E-30
4.65122E-01 5.78673E-30
4.69476E-01 5.50788E-30
4.73832E-01 5.23808E-30
4.78190E-01 4.97732E-30
4.82550E-01 4.72561E-30
4.86912E-01 4.48291E-30
4.91274E-01 4.24917E-30
4.95637E-01 4.02429E-30
5.00000E-01 3.80819E-30
5.04363E-01 3.60075E-30
5.08726E-01 3.40183E-30
5.13088E-01 3.21128E-30
5.17450E-01 3.02894E-30
5.21810E-01 2.85464E-30
5.26168E-01 2.68819E-30
5.30524E-01 2.52939E-30
5.34878E-01 2.37805E-30
5.39230E-01 2.23395E-30
5.43578E-01 2.09688E-30
5.47923E-01 1.96663E-30
5.52264E-01 1.84297E-30
5.56602E-01 1.72569E-30
5.60935E-01 1.61456E-30
5.65263E-01 1.50935E-30
5.69587E-01 1.40985E-30
5.73905E-01 1.31583E-30
5.78217E-01 1.22707E-30
5.82524E-01 1.14336E-30
5.86824E-01 1.06449E-30
5.91118E-01 9.90236E-31
5.95404E-01 9.20405E-31
5.99684E-01 8.54791E-31
6.03956E-01 7.93197E-31
6.08220E-01 7.35433E-31
6.12476E-01 6.81312E-31
6.16723E-01 6.30653E-31
6.20961E-01 5.83279E-31
6.25190E-01 5.39021E-31
6.29410E-01 4.97715E-31
6.33619E-01 4.59202E-31
6.37819E-01 4.23330E-31
6.42008E-01 3.89951E-31
6.46186E-01 3.58925E-31
6.50353E-01 3.30115E-31
6.54508E-01 3.03392E-31
6.58652E-01 2.78632E-31
6.62784E-01 2.55715E-31
6.66903E-01 2.34529E-31
6.71010E-01 2.14965E-31
6.75104E-01 1.96920E-31
6.79184E-01 1.80297E-31
6.83251E-01 1.65001E-31
6.87303E-01 1.50945E-31
6.91342E-01 1.38045E-31
6.95366E-01 1.26221E-31
6.99375E-01 1.15399E-31
7.03368E-01 1.05507E-31
7.07347E-01 9.64792E-32
7.11309E-01 8.82515E-32
7.15256E-01 8.07649E-32
7.19186E-01 7.39632E-32
7.23099E-01 6.77942E-32
7.26995E-01 6.22083E-32
7.30874E-01 5.71593E-32
7.34736E-01 5.26040E-32
7.38579E-01 4.85019E-32
7.42405E-01 4.48150E-32
7.46212E-01 4.15080E-32
7.50000E-01 3.85481E-32
7.53769E-01 3.59045E-32
7.57519E-01 3.35488E-32
7.61249E-01 3.14545E-32
7.64960E-01 2.95970E-32
7.68650E-01 2.79536E-32
7.72320E-01 2.65033E-32
7.75968E-01 2.52266E-32
7.79596E-01 2.41057E-32
7.83203E-01 2.31240E-32
7.86788E-01 2.22664E-32
7.90351E-01 2.15190E-32
7.93893E-01 2.08690E-32
7.97411E-01 2.03048E-32
8.00908E-01 1.98157E-32
8.04381E-01 1.93922E-32
8.07831E-01 1.90252E-32
8.11257E-01 1.87070E-32
8.14660E-01 1.84302E-32
8.18039E-01 1.81884E-32
8.21394E-01 1.79758E-32
8.24724E-01 1.77869E-32
8.28030E-01 1.76173E-32
8.31310E-01 1.74626E-32
8.34565E-01 1.73193E-32
8.37795E-01 1.71840E-32
8.40999E-01 1.70539E-32
8.44177E-01 1.69266E-32
8.47329E-01 1.67998E-32
8.50455E-01 1.66716E-32
8.53553E-01 1.65406E-32
8.56625E-01 1.64054E-32
8.59670E-01 1.62650E-32
8.62687E-01 1.61183E-32
8.65677E-01 1.59648E-32
8.68639E-01 1.58039E-32
8.71572E-01 1.56351E-32
8.74478E-01 1.54584E-32
8.77355E-01 1.52734E-32
8.80203E-01 1.50802E-32
8.83022E-01 1.48789E-32
8.85812E-01 1.46696E-32
8.88573E-01 1.44525E-32
8.91304E-01 1.42278E-32
8.94005E-01 1.39959E-32
8.96677E-01 1.37572E-32
8.99318E-01 1.35120E-32
9.01928E-01 1.32607E-32
9.04508E-01 1.30039E-32
9.07058E-01 1.27419E-32
9.09576E-01 1.24753E-32
9.12063E-01 1.22044E-32
9.14519E-01 1.19299E-32
9.16943E-01 1.16522E-32
9.19335E-01 1.13717E-32
9.21696E-01 1.10890E-32
9.24024E-01 1.08045E-32
9.26320E-01 1.05186E-32
9.28584E-01 1.02319E-32
9.30815E-01 9.94479E-33
9.33013E-01 9.65762E-33
9.35178E-01 9.37084E-33
9.37310E-01 9.08484E-33
9.39409E-01 8.79999E-33
9.41474E-01 8.51665E-33
9.43505E-01 8.23517E-33
9.45503E-01 7.95587E-33
9.47467E-01 7.67905E-33
9.49397E-01 7.40501E-33
9.51293E-01 7.13402E-33
9.53154E-01 6.86634E-33
9.54981E-01 6.60220E-33
9.56773E-01 6.34184E-33
9.58530E-01 6.08545E-33
9.60252E-01 5.83324E-33
9.61940E-01 5.58538E-33
9.63592E-01 5.34203E-33
9.65209E-01 5.10336E-33
9.66790E-01 4.86948E-33
9.68336E-01 4.64054E-33
9.69846E-01 4.41664E-33
9.71321E-01 4.19789E-33
9.72759E-01 3.98437E-33
9.74162E-01 3.77617E-33
9.75528E-01 3.57335E-33
9.76858E-01 3.37599E-33
9.78152E-01 3.18413E-33
9.79410E-01 2.99782E-33
9.80631E-01 2.81710E-33
9.81815E-01 2.64199E-33
9.82963E-01 2.47253E-33
9.84074E-01 2.30874E-33
9.85148E-01 2.15062E-33
9.86185E-01 1.99819E-33
9.87185E-01 1.85146E-33
9.88148E-01 1.71042E-33
9.89074E-01 1.57507E-33
9.89962E-01 1.44541E-33
9.90814E-01 1.32142E-33
9.91627E-01 1.20311E-33
9.92404E-01 1.09045E-33
9.93143E-01 9.83427E-34
9.93844E-01 8.82035E-34
9.94508E-01 7.86254E-34
9.95134E-01 6.96067E-34
9.95722E-01 6.11456E-34
9.96273E-01 5.32405E-34
9.96786E-01 4.58895E-34
9.97261E-01 3.90909E-34
9.97698E-01 3.28432E-34
9.98097E-01 2.71446E-34
9.98459E-01 2.19938E-34
9.98782E-01 1.73891E-34
9.99067E-01 1.33295E-34
9.99315E-01 9.81356E-35
9.99524E-01 6.84041E-35
9.99695E-01 4.40906E-35
9.99829E-01 2.51881E-35
9.99924E-01 1.16906E-35
9.99981E-01 3.59390E-36
1.00000E+00 8.94608E-37
