 #
 # Subroutine ELSEPA. Elastic scattering of electrons and positrons
 #                    by neutral atoms and positive ions
 #
 # Projectile: electron
 # Kinetic energy = 3.00000E+06 eV = 1.10248E+05 a.u.
 #
 # WARNING: High-energy factorization with free-atom DF screening.
 #          Absorption, polarization and exchange corrections are
 #          switched off.
 #          Phase shifts are calculated for the bare nucleus.
 #          Scattering amplitudes are not evaluated.
 #
 # Element: Ru,  Z =  44,  atomic weight = 1.01070E+02 g/mol
 #
 # Nuclear model: Fermi distribution
 #                Average radius = 4.98415E-13 cm
 #                Skin thickness = 5.46000E-14 cm
 #
 # Number of electrons = 44
 #
 # Total elastic cross section = 4.26410E-18 cm**2 = 1.52274E-01 a0**2
 # 1st transport cross section = 2.39198E-22 cm**2 = 8.54191E-06 a0**2
 # 2nd transport cross section = 6.65928E-22 cm**2 = 2.37807E-05 a0**2
 #
 #
 # Differential cross section:                       MU=(1-COS(THETA))/2
 #
 #  THETA        MU          DCS          DCS        Sherman      error
 #  (deg)                 (cm**2/sr)   (a0**2/sr)    function
 #----------------------------------------------------------------------
0.00000E+00 4.19634E-13
7.61557E-13 4.19633E-13
1.18994E-12 4.19632E-13
1.71346E-12 4.19631E-13
2.33225E-12 4.19630E-13
3.04617E-12 4.19629E-13
3.85530E-12 4.19628E-13
4.75964E-12 4.19626E-13
5.75917E-12 4.19624E-13
6.85391E-12 4.19622E-13
8.04379E-12 4.19620E-13
9.32893E-12 4.19618E-13
1.07092E-11 4.19616E-13
1.21847E-11 4.19613E-13
1.37554E-11 4.19611E-13
1.54213E-11 4.19608E-13
1.71823E-11 4.19605E-13
1.90386E-11 4.19602E-13
2.09900E-11 4.19598E-13
2.30367E-11 4.19595E-13
2.51785E-11 4.19591E-13
2.74156E-11 4.19588E-13
2.97478E-11 4.19584E-13
3.21752E-11 4.19579E-13
3.46979E-11 4.19575E-13
3.73157E-11 4.19571E-13
4.00286E-11 4.19566E-13
4.28368E-11 4.19561E-13
4.57402E-11 4.19556E-13
4.87388E-11 4.19551E-13
5.18325E-11 4.19546E-13
5.50215E-11 4.19541E-13
5.83057E-11 4.19535E-13
6.16850E-11 4.19529E-13
6.51595E-11 4.19523E-13
6.87293E-11 4.19517E-13
7.23943E-11 4.19511E-13
7.61544E-11 4.19505E-13
1.18991E-10 4.19432E-13
1.71347E-10 4.19342E-13
2.33223E-10 4.19237E-13
3.04617E-10 4.19115E-13
3.85531E-10 4.18977E-13
4.75965E-10 4.18823E-13
5.75917E-10 4.18653E-13
6.85389E-10 4.18467E-13
8.04380E-10 4.18264E-13
9.32891E-10 4.18046E-13
1.07092E-09 4.17812E-13
1.21847E-09 4.17562E-13
1.37554E-09 4.17296E-13
1.54213E-09 4.17014E-13
1.71823E-09 4.16716E-13
1.90386E-09 4.16403E-13
2.09900E-09 4.16074E-13
2.30367E-09 4.15730E-13
2.51785E-09 4.15370E-13
2.74156E-09 4.14995E-13
2.97478E-09 4.14605E-13
3.21752E-09 4.14199E-13
3.46978E-09 4.13778E-13
3.73156E-09 4.13342E-13
4.00286E-09 4.12891E-13
4.28368E-09 4.12426E-13
4.57402E-09 4.11945E-13
4.87388E-09 4.11450E-13
5.18326E-09 4.10941E-13
5.50215E-09 4.10416E-13
5.83057E-09 4.09878E-13
6.16850E-09 4.09325E-13
6.51596E-09 4.08758E-13
6.87293E-09 4.08178E-13
7.23942E-09 4.07583E-13
7.61544E-09 4.06974E-13
1.18991E-08 4.00159E-13
1.71347E-08 3.92114E-13
2.33223E-08 3.82965E-13
3.04617E-08 3.72936E-13
3.85531E-08 3.62114E-13
4.75965E-08 3.50714E-13
5.75917E-08 3.38914E-13
6.85389E-08 3.26759E-13
8.04380E-08 3.14499E-13
9.32891E-08 3.02207E-13
1.07092E-07 2.89947E-13
1.21847E-07 2.77902E-13
1.37554E-07 2.66049E-13
1.54213E-07 2.54489E-13
1.71823E-07 2.43322E-13
1.90386E-07 2.32441E-13
2.09900E-07 2.21998E-13
2.30367E-07 2.11988E-13
2.51785E-07 2.02331E-13
2.74156E-07 1.93142E-13
2.97478E-07 1.84352E-13
3.21752E-07 1.75945E-13
3.46978E-07 1.67981E-13
3.73156E-07 1.60351E-13
4.00286E-07 1.53105E-13
4.28368E-07 1.46252E-13
4.57402E-07 1.39667E-13
4.87388E-07 1.33447E-13
5.18325E-07 1.27541E-13
5.50215E-07 1.21892E-13
5.83057E-07 1.16558E-13
6.16850E-07 1.11466E-13
6.51596E-07 1.06619E-13
6.87293E-07 1.02039E-13
7.23942E-07 9.76424E-14
7.61543E-07 9.34754E-14
1.18991E-06 6.12504E-14
1.71347E-06 4.10616E-14
2.33223E-06 2.77439E-14
3.04617E-06 1.96431E-14
3.85531E-06 1.40004E-14
4.75964E-06 1.02805E-14
5.75916E-06 7.72970E-15
6.85388E-06 5.90893E-15
8.04378E-06 4.62277E-15
9.32888E-06 3.68055E-15
1.07092E-05 2.97437E-15
1.21846E-05 2.44088E-15
1.37553E-05 2.02434E-15
1.54212E-05 1.69582E-15
1.71822E-05 1.43495E-15
1.90385E-05 1.21972E-15
2.09899E-05 1.04499E-15
2.30365E-05 9.00518E-16
2.51783E-05 7.78281E-16
2.74153E-05 6.76325E-16
2.97475E-05 5.89670E-16
3.21749E-05 5.15772E-16
3.46974E-05 4.53118E-16
3.73152E-05 3.98997E-16
4.00281E-05 3.52589E-16
4.28362E-05 3.12696E-16
4.57395E-05 2.77898E-16
4.87380E-05 2.47795E-16
5.18317E-05 2.21527E-16
5.50205E-05 1.98533E-16
5.83045E-05 1.78466E-16
6.16838E-05 1.60828E-16
6.51582E-05 1.45315E-16
6.87277E-05 1.31653E-16
7.23925E-05 1.19542E-16
7.61524E-05 1.08810E-16
9.21439E-05 7.63029E-17
1.09658E-04 5.51594E-17
1.28695E-04 4.09411E-17
1.49255E-04 3.10691E-17
1.71338E-04 2.40263E-17
1.94942E-04 1.88714E-17
2.20070E-04 1.50332E-17
2.46720E-04 1.21244E-17
2.74892E-04 9.89093E-18
3.04586E-04 8.13926E-18
3.35803E-04 6.76036E-18
3.68542E-04 5.66096E-18
4.02802E-04 4.77286E-18
4.38585E-04 4.05288E-18
4.75889E-04 3.46267E-18
5.14715E-04 2.97544E-18
5.55063E-04 2.57120E-18
5.96931E-04 2.23269E-18
6.40321E-04 1.94816E-18
6.85233E-04 1.70767E-18
7.31665E-04 1.50287E-18
7.79618E-04 1.32802E-18
8.29092E-04 1.17791E-18
8.80086E-04 1.04839E-18
9.32601E-04 9.36285E-19
9.86636E-04 8.38776E-19
1.04219E-03 7.53674E-19
1.09927E-03 6.79157E-19
1.15786E-03 6.13623E-19
1.21797E-03 5.55851E-19
1.27961E-03 5.04758E-19
1.34276E-03 4.59407E-19
1.40743E-03 4.19071E-19
1.47362E-03 3.83086E-19
1.54133E-03 3.50893E-19
1.61056E-03 3.22036E-19
1.68131E-03 2.96093E-19
1.75357E-03 2.72725E-19
1.82735E-03 2.51633E-19
1.90265E-03 2.32544E-19
1.97947E-03 2.15244E-19
2.05780E-03 1.99532E-19
2.13765E-03 1.85232E-19
2.21902E-03 1.72199E-19
2.30190E-03 1.60297E-19
2.38630E-03 1.49411E-19
2.47222E-03 1.39440E-19
2.55965E-03 1.30289E-19
2.64859E-03 1.21881E-19
2.73905E-03 1.14145E-19
2.83103E-03 1.07014E-19
2.92452E-03 1.00435E-19
3.01952E-03 9.43569E-20
3.11604E-03 8.87332E-20
3.21407E-03 8.35253E-20
3.31362E-03 7.86952E-20
3.41468E-03 7.42111E-20
3.51725E-03 7.00442E-20
3.62133E-03 6.61661E-20
3.72692E-03 6.25547E-20
3.83403E-03 5.91878E-20
3.94265E-03 5.60450E-20
4.05278E-03 5.31096E-20
4.16442E-03 5.03647E-20
4.27757E-03 4.77957E-20
4.39223E-03 4.53897E-20
4.50840E-03 4.31336E-20
4.62608E-03 4.10168E-20
4.74527E-03 3.90293E-20
4.86597E-03 3.71609E-20
4.98817E-03 3.54039E-20
5.11188E-03 3.37501E-20
5.23711E-03 3.21922E-20
5.36383E-03 3.07238E-20
5.49207E-03 2.93385E-20
5.62181E-03 2.80309E-20
5.75306E-03 2.67959E-20
5.88581E-03 2.56284E-20
6.02007E-03 2.45243E-20
6.15583E-03 2.34794E-20
6.29310E-03 2.24898E-20
6.43187E-03 2.15522E-20
6.57214E-03 2.06632E-20
6.71392E-03 1.98199E-20
6.85720E-03 1.90195E-20
7.00198E-03 1.82592E-20
7.14827E-03 1.75369E-20
7.29605E-03 1.68502E-20
7.44534E-03 1.61970E-20
7.59612E-03 1.55753E-20
7.97965E-03 1.41477E-20
8.37255E-03 1.28809E-20
8.77480E-03 1.17538E-20
9.18641E-03 1.07482E-20
9.60736E-03 9.84857E-21
1.00376E-02 9.04183E-21
1.04773E-02 8.31664E-21
1.09262E-02 7.66328E-21
1.13844E-02 7.07333E-21
1.18520E-02 6.53954E-21
1.23288E-02 6.05557E-21
1.28150E-02 5.61593E-21
1.33104E-02 5.21582E-21
1.38150E-02 4.85102E-21
1.43290E-02 4.51785E-21
1.48521E-02 4.21306E-21
1.53845E-02 3.93378E-21
1.59262E-02 3.67749E-21
1.64770E-02 3.44193E-21
1.70371E-02 3.22511E-21
1.76063E-02 3.02528E-21
1.81848E-02 2.84084E-21
1.87724E-02 2.67039E-21
1.93692E-02 2.51265E-21
1.99751E-02 2.36653E-21
2.05901E-02 2.23099E-21
2.12143E-02 2.10511E-21
2.18476E-02 1.98810E-21
2.24900E-02 1.87918E-21
2.31415E-02 1.77771E-21
2.38021E-02 1.68308E-21
2.44717E-02 1.59473E-21
2.51504E-02 1.51217E-21
2.58382E-02 1.43495E-21
2.65349E-02 1.36265E-21
2.72407E-02 1.29490E-21
2.79555E-02 1.23136E-21
2.86793E-02 1.17172E-21
2.94120E-02 1.11569E-21
3.01537E-02 1.06302E-21
3.09043E-02 1.01345E-21
3.16639E-02 9.66774E-22
3.24324E-02 9.22789E-22
3.32098E-02 8.81310E-22
3.39961E-02 8.42163E-22
3.47912E-02 8.05195E-22
3.55952E-02 7.70260E-22
3.64081E-02 7.37223E-22
3.72297E-02 7.05962E-22
3.80602E-02 6.76362E-22
3.88995E-02 6.48317E-22
3.97476E-02 6.21731E-22
4.06044E-02 5.96511E-22
4.14700E-02 5.72574E-22
4.23443E-02 5.49842E-22
4.32273E-02 5.28242E-22
4.41190E-02 5.07706E-22
4.50194E-02 4.88173E-22
4.59284E-02 4.69582E-22
4.68461E-02 4.51880E-22
4.87074E-02 4.18940E-22
5.06030E-02 3.88987E-22
5.25328E-02 3.61697E-22
5.44967E-02 3.36790E-22
5.64946E-02 3.14018E-22
5.85262E-02 2.93162E-22
6.05914E-02 2.74032E-22
6.26901E-02 2.56457E-22
6.48222E-02 2.40286E-22
6.69873E-02 2.25386E-22
6.91854E-02 2.11638E-22
7.14163E-02 1.98935E-22
7.36799E-02 1.87182E-22
7.59760E-02 1.76296E-22
7.83043E-02 1.66198E-22
8.06647E-02 1.56822E-22
8.30571E-02 1.48106E-22
8.54812E-02 1.39994E-22
8.79369E-02 1.32436E-22
9.04240E-02 1.25387E-22
9.29422E-02 1.18805E-22
9.54915E-02 1.12655E-22
9.80716E-02 1.06901E-22
1.00682E-01 1.01514E-22
1.03323E-01 9.64650E-23
1.05995E-01 9.17292E-23
1.08696E-01 8.72831E-23
1.11427E-01 8.31055E-23
1.14188E-01 7.91770E-23
1.16978E-01 7.54798E-23
1.19797E-01 7.19975E-23
1.22645E-01 6.87153E-23
1.25522E-01 6.56193E-23
1.28428E-01 6.26968E-23
1.31361E-01 5.99362E-23
1.34323E-01 5.73268E-23
1.37313E-01 5.48586E-23
1.40330E-01 5.25225E-23
1.43375E-01 5.03099E-23
1.46447E-01 4.82131E-23
1.49545E-01 4.62247E-23
1.52671E-01 4.43381E-23
1.55823E-01 4.25469E-23
1.59001E-01 4.08455E-23
1.62205E-01 3.92283E-23
1.65435E-01 3.76905E-23
1.68690E-01 3.62272E-23
1.71970E-01 3.48343E-23
1.75276E-01 3.35076E-23
1.78606E-01 3.22433E-23
1.81961E-01 3.10380E-23
1.85340E-01 2.98882E-23
1.88743E-01 2.87911E-23
1.92169E-01 2.77435E-23
1.95619E-01 2.67430E-23
1.99092E-01 2.57868E-23
2.02589E-01 2.48727E-23
2.06107E-01 2.39985E-23
2.09649E-01 2.31620E-23
2.13212E-01 2.23614E-23
2.16797E-01 2.15947E-23
2.20404E-01 2.08602E-23
2.24032E-01 2.01564E-23
2.27680E-01 1.94816E-23
2.31350E-01 1.88345E-23
2.35040E-01 1.82136E-23
2.38751E-01 1.76177E-23
2.42481E-01 1.70456E-23
2.46231E-01 1.64961E-23
2.50000E-01 1.59683E-23
2.53788E-01 1.54610E-23
2.57595E-01 1.49732E-23
2.61421E-01 1.45042E-23
2.65264E-01 1.40530E-23
2.69126E-01 1.36189E-23
2.73005E-01 1.32009E-23
2.76901E-01 1.27985E-23
2.80814E-01 1.24109E-23
2.84744E-01 1.20375E-23
2.88691E-01 1.16777E-23
2.92653E-01 1.13308E-23
2.96632E-01 1.09963E-23
3.00625E-01 1.06736E-23
3.04634E-01 1.03624E-23
3.08658E-01 1.00620E-23
3.12697E-01 9.77209E-24
3.16749E-01 9.49215E-24
3.20816E-01 9.22180E-24
3.24896E-01 8.96064E-24
3.28990E-01 8.70829E-24
3.33097E-01 8.46440E-24
3.37216E-01 8.22863E-24
3.41348E-01 8.00066E-24
3.45492E-01 7.78019E-24
3.49647E-01 7.56690E-24
3.53814E-01 7.36054E-24
3.57992E-01 7.16083E-24
3.62181E-01 6.96751E-24
3.66381E-01 6.78033E-24
3.70590E-01 6.59907E-24
3.74810E-01 6.42350E-24
3.79039E-01 6.25340E-24
3.83277E-01 6.08858E-24
3.87524E-01 5.92883E-24
3.91780E-01 5.77397E-24
3.96044E-01 5.62383E-24
4.00316E-01 5.47822E-24
4.04596E-01 5.33700E-24
4.08882E-01 5.20000E-24
4.13176E-01 5.06707E-24
4.17476E-01 4.93807E-24
4.21783E-01 4.81286E-24
4.26095E-01 4.69130E-24
4.30413E-01 4.57328E-24
4.34737E-01 4.45866E-24
4.39065E-01 4.34732E-24
4.43398E-01 4.23917E-24
4.47736E-01 4.13409E-24
4.52077E-01 4.03197E-24
4.56422E-01 3.93272E-24
4.60770E-01 3.83624E-24
4.65122E-01 3.74244E-24
4.69476E-01 3.65123E-24
4.73832E-01 3.56254E-24
4.78190E-01 3.47626E-24
4.82550E-01 3.39234E-24
4.86912E-01 3.31068E-24
4.91274E-01 3.23123E-24
4.95637E-01 3.15390E-24
5.00000E-01 3.07863E-24
5.04363E-01 3.00535E-24
5.08726E-01 2.93401E-24
5.13088E-01 2.86454E-24
5.17450E-01 2.79689E-24
5.21810E-01 2.73099E-24
5.26168E-01 2.66681E-24
5.30524E-01 2.60427E-24
5.34878E-01 2.54334E-24
5.39230E-01 2.48396E-24
5.43578E-01 2.42610E-24
5.47923E-01 2.36969E-24
5.52264E-01 2.31471E-24
5.56602E-01 2.26110E-24
5.60935E-01 2.20882E-24
5.65263E-01 2.15785E-24
5.69587E-01 2.10814E-24
5.73905E-01 2.05964E-24
5.78217E-01 2.01234E-24
5.82524E-01 1.96619E-24
5.86824E-01 1.92116E-24
5.91118E-01 1.87723E-24
5.95404E-01 1.83435E-24
5.99684E-01 1.79250E-24
6.03956E-01 1.75165E-24
6.08220E-01 1.71178E-24
6.12476E-01 1.67285E-24
6.16723E-01 1.63484E-24
6.20961E-01 1.59772E-24
6.25190E-01 1.56148E-24
6.29410E-01 1.52608E-24
6.33619E-01 1.49150E-24
6.37819E-01 1.45772E-24
6.42008E-01 1.42473E-24
6.46186E-01 1.39249E-24
6.50353E-01 1.36099E-24
6.54508E-01 1.33021E-24
6.58652E-01 1.30014E-24
6.62784E-01 1.27074E-24
6.66903E-01 1.24201E-24
6.71010E-01 1.21393E-24
6.75104E-01 1.18647E-24
6.79184E-01 1.15964E-24
6.83251E-01 1.13340E-24
6.87303E-01 1.10774E-24
6.91342E-01 1.08265E-24
6.95366E-01 1.05812E-24
6.99375E-01 1.03413E-24
7.03368E-01 1.01066E-24
7.07347E-01 9.87710E-25
7.11309E-01 9.65260E-25
7.15256E-01 9.43298E-25
7.19186E-01 9.21814E-25
7.23099E-01 9.00795E-25
7.26995E-01 8.80230E-25
7.30874E-01 8.60109E-25
7.34736E-01 8.40420E-25
7.38579E-01 8.21154E-25
7.42405E-01 8.02300E-25
7.46212E-01 7.83848E-25
7.50000E-01 7.65790E-25
7.53769E-01 7.48115E-25
7.57519E-01 7.30814E-25
7.61249E-01 7.13880E-25
7.64960E-01 6.97302E-25
7.68650E-01 6.81074E-25
7.72320E-01 6.65187E-25
7.75968E-01 6.49634E-25
7.79596E-01 6.34406E-25
7.83203E-01 6.19497E-25
7.86788E-01 6.04899E-25
7.90351E-01 5.90606E-25
7.93893E-01 5.76611E-25
7.97411E-01 5.62907E-25
8.00908E-01 5.49487E-25
8.04381E-01 5.36347E-25
8.07831E-01 5.23479E-25
8.11257E-01 5.10877E-25
8.14660E-01 4.98537E-25
8.18039E-01 4.86451E-25
8.21394E-01 4.74616E-25
8.24724E-01 4.63024E-25
8.28030E-01 4.51672E-25
8.31310E-01 4.40554E-25
8.34565E-01 4.29665E-25
8.37795E-01 4.19000E-25
8.40999E-01 4.08556E-25
8.44177E-01 3.98326E-25
8.47329E-01 3.88307E-25
8.50455E-01 3.78495E-25
8.53553E-01 3.68885E-25
8.56625E-01 3.59474E-25
8.59670E-01 3.50258E-25
8.62687E-01 3.41232E-25
8.65677E-01 3.32394E-25
8.68639E-01 3.23739E-25
8.71572E-01 3.15264E-25
8.74478E-01 3.06965E-25
8.77355E-01 2.98839E-25
8.80203E-01 2.90883E-25
8.83022E-01 2.83092E-25
8.85812E-01 2.75465E-25
8.88573E-01 2.67998E-25
8.91304E-01 2.60687E-25
8.94005E-01 2.53532E-25
8.96677E-01 2.46527E-25
8.99318E-01 2.39671E-25
9.01928E-01 2.32961E-25
9.04508E-01 2.26395E-25
9.07058E-01 2.19969E-25
9.09576E-01 2.13682E-25
9.12063E-01 2.07531E-25
9.14519E-01 2.01514E-25
9.16943E-01 1.95628E-25
9.19335E-01 1.89871E-25
9.21696E-01 1.84241E-25
9.24024E-01 1.78736E-25
9.26320E-01 1.73354E-25
9.28584E-01 1.68093E-25
9.30815E-01 1.62950E-25
9.33013E-01 1.57925E-25
9.35178E-01 1.53014E-25
9.37310E-01 1.48217E-25
9.39409E-01 1.43532E-25
9.41474E-01 1.38956E-25
9.43505E-01 1.34489E-25
9.45503E-01 1.30128E-25
9.47467E-01 1.25872E-25
9.49397E-01 1.21720E-25
9.51293E-01 1.17670E-25
9.53154E-01 1.13720E-25
9.54981E-01 1.09869E-25
9.56773E-01 1.06117E-25
9.58530E-01 1.02460E-25
9.60252E-01 9.88990E-26
9.61940E-01 9.54318E-26
9.63592E-01 9.20573E-26
9.65209E-01 8.87744E-26
9.66790E-01 8.55819E-26
9.68336E-01 8.24786E-26
9.69846E-01 7.94636E-26
9.71321E-01 7.65358E-26
9.72759E-01 7.36942E-26
9.74162E-01 7.09378E-26
9.75528E-01 6.82656E-26
9.76858E-01 6.56769E-26
9.78152E-01 6.31705E-26
9.79410E-01 6.07458E-26
9.80631E-01 5.84020E-26
9.81815E-01 5.61381E-26
9.82963E-01 5.39534E-26
9.84074E-01 5.18473E-26
9.85148E-01 4.98190E-26
9.86185E-01 4.78678E-26
9.87185E-01 4.59930E-26
9.88148E-01 4.41941E-26
9.89074E-01 4.24705E-26
9.89962E-01 4.08215E-26
9.90814E-01 3.92466E-26
9.91627E-01 3.77453E-26
9.92404E-01 3.63171E-26
9.93143E-01 3.49615E-26
9.93844E-01 3.36781E-26
9.94508E-01 3.24665E-26
9.95134E-01 3.13262E-26
9.95722E-01 3.02568E-26
9.96273E-01 2.92581E-26
9.96786E-01 2.83297E-26
9.97261E-01 2.74713E-26
9.97698E-01 2.66826E-26
9.98097E-01 2.59633E-26
9.98459E-01 2.53132E-26
9.98782E-01 2.47322E-26
9.99067E-01 2.42199E-26
9.99315E-01 2.37763E-26
9.99524E-01 2.34011E-26
9.99695E-01 2.30944E-26
9.99829E-01 2.28559E-26
9.99924E-01 2.26856E-26
9.99981E-01 2.25835E-26
1.00000E+00 2.25494E-26
