 #
 # Subroutine ELSEPA. Elastic scattering of electrons and positrons
 #                    by neutral atoms and positive ions
 #
 # Projectile: electron
 # Kinetic energy = 1.25000E+08 eV = 4.59367E+06 a.u.
 #
 # WARNING: High-energy factorization with free-atom DF screening.
 #          Absorption, polarization and exchange corrections are
 #          switched off.
 #          Phase shifts are calculated for the bare nucleus.
 #          Scattering amplitudes are not evaluated.
 #
 # Element: Ru,  Z =  44,  atomic weight = 1.01070E+02 g/mol
 #
 # Nuclear model: Fermi distribution
 #                Average radius = 4.98415E-13 cm
 #                Skin thickness = 5.46000E-14 cm
 #
 # Number of electrons = 44
 #
 # Total elastic cross section = 4.16962E-18 cm**2 = 1.48900E-01 a0**2
 # 1st transport cross section = 2.45394E-25 cm**2 = 8.76318E-09 a0**2
 # 2nd transport cross section = 7.31996E-25 cm**2 = 2.61400E-08 a0**2
 #
 #
 # Differential cross section:                       MU=(1-COS(THETA))/2
 #
 #  THETA        MU          DCS          DCS        Sherman      error
 #  (deg)                 (cm**2/sr)   (a0**2/sr)    function
 #----------------------------------------------------------------------
0.00000E+00 5.36257E-10
7.61557E-13 5.34083E-10
1.18994E-12 5.32869E-10
1.71346E-12 5.31394E-10
2.33225E-12 5.29660E-10
3.04617E-12 5.27672E-10
3.85530E-12 5.25437E-10
4.75964E-12 5.22960E-10
5.75917E-12 5.20247E-10
6.85391E-12 5.17306E-10
8.04379E-12 5.14144E-10
9.32893E-12 5.10770E-10
1.07092E-11 5.07192E-10
1.21847E-11 5.03419E-10
1.37554E-11 4.99460E-10
1.54213E-11 4.95312E-10
1.71823E-11 4.90994E-10
1.90386E-11 4.86531E-10
2.09900E-11 4.81934E-10
2.30367E-11 4.77206E-10
2.51785E-11 4.72307E-10
2.74156E-11 4.67308E-10
2.97478E-11 4.62218E-10
3.21752E-11 4.57049E-10
3.46979E-11 4.51746E-10
3.73157E-11 4.46365E-10
4.00286E-11 4.40935E-10
4.28368E-11 4.35466E-10
4.57402E-11 4.29929E-10
4.87388E-11 4.24312E-10
5.18325E-11 4.18684E-10
5.50215E-11 4.13053E-10
5.83057E-11 4.07424E-10
6.16850E-11 4.01702E-10
6.51595E-11 3.96001E-10
6.87293E-11 3.90326E-10
7.23943E-11 3.84686E-10
7.61544E-11 3.79009E-10
1.18991E-10 3.24162E-10
1.71347E-10 2.74834E-10
2.33223E-10 2.32338E-10
3.04617E-10 1.96424E-10
3.85531E-10 1.66467E-10
4.75965E-10 1.41539E-10
5.75917E-10 1.20721E-10
6.85389E-10 1.03294E-10
8.04380E-10 8.86789E-11
9.32891E-10 7.63709E-11
1.07092E-09 6.59416E-11
1.21847E-09 5.71080E-11
1.37554E-09 4.96031E-11
1.54213E-09 4.29450E-11
1.71823E-09 3.72580E-11
1.90386E-09 3.26152E-11
2.09900E-09 2.87904E-11
2.30367E-09 2.55428E-11
2.51785E-09 2.24471E-11
2.74156E-09 1.98599E-11
2.97478E-09 1.76822E-11
3.21752E-09 1.58370E-11
3.46978E-09 1.41429E-11
3.73156E-09 1.26632E-11
4.00286E-09 1.13937E-11
4.28368E-09 1.02989E-11
4.57402E-09 9.32725E-12
4.87388E-09 8.45068E-12
5.18326E-09 7.68617E-12
5.50215E-09 7.01652E-12
5.83057E-09 6.42702E-12
6.16850E-09 5.88504E-12
6.51596E-09 5.40569E-12
6.87293E-09 4.98025E-12
7.23942E-09 4.60140E-12
7.61544E-09 4.25499E-12
1.18991E-08 2.13661E-12
1.71347E-08 1.20158E-12
2.33223E-08 7.21977E-13
3.04617E-08 4.53845E-13
3.85531E-08 2.97097E-13
4.75965E-08 2.01643E-13
5.75917E-08 1.41519E-13
6.85389E-08 1.02296E-13
8.04380E-08 7.58589E-14
9.32891E-08 5.75216E-14
1.07092E-07 4.44649E-14
1.21847E-07 3.49455E-14
1.37554E-07 2.78562E-14
1.54213E-07 2.24684E-14
1.71823E-07 1.83390E-14
1.90386E-07 1.51068E-14
2.09900E-07 1.25651E-14
2.30367E-07 1.05220E-14
2.51785E-07 8.88211E-15
2.74156E-07 7.54497E-15
2.97478E-07 6.44953E-15
3.21752E-07 5.54495E-15
3.46978E-07 4.79153E-15
3.73156E-07 4.16254E-15
4.00286E-07 3.63140E-15
4.28368E-07 3.18282E-15
4.57402E-07 2.80073E-15
4.87388E-07 2.47424E-15
5.18325E-07 2.19390E-15
5.50215E-07 1.95190E-15
5.83057E-07 1.74251E-15
6.16850E-07 1.56020E-15
6.51596E-07 1.40125E-15
6.87293E-07 1.26195E-15
7.23942E-07 1.13956E-15
7.61543E-07 1.03168E-15
1.18991E-06 4.28783E-16
1.71347E-06 2.09028E-16
2.33223E-06 1.13766E-16
3.04617E-06 6.71118E-17
3.85531E-06 4.21024E-17
4.75964E-06 2.77279E-17
5.75916E-06 1.89944E-17
6.85388E-06 1.34427E-17
8.04378E-06 9.77800E-18
9.32888E-06 7.28070E-18
1.07092E-05 5.53180E-18
1.21846E-05 4.27768E-18
1.37553E-05 3.35955E-18
1.54212E-05 2.67497E-18
1.71822E-05 2.15618E-18
1.90385E-05 1.75691E-18
2.09899E-05 1.44656E-18
2.30365E-05 1.20173E-18
2.51783E-05 1.00645E-18
2.74153E-05 8.49178E-19
2.97475E-05 7.21411E-19
3.21749E-05 6.16792E-19
3.46974E-05 5.30493E-19
3.73152E-05 4.58805E-19
4.00281E-05 3.98854E-19
4.28362E-05 3.48397E-19
4.57395E-05 3.05674E-19
4.87380E-05 2.69297E-19
5.18317E-05 2.38167E-19
5.50205E-05 2.11402E-19
5.83045E-05 1.88291E-19
6.16838E-05 1.68256E-19
6.51582E-05 1.50821E-19
6.87277E-05 1.35591E-19
7.23925E-05 1.22239E-19
7.61524E-05 1.10581E-19
9.21439E-05 7.55985E-20
1.09658E-04 5.34228E-20
1.28695E-04 3.88211E-20
1.49255E-04 2.88855E-20
1.71338E-04 2.19378E-20
1.94942E-04 1.69600E-20
2.20070E-04 1.33185E-20
2.46720E-04 1.06048E-20
2.74892E-04 8.54888E-21
3.04586E-04 6.96847E-21
3.35803E-04 5.73723E-21
3.68542E-04 4.76659E-21
4.02802E-04 3.99301E-21
4.38585E-04 3.37034E-21
4.75889E-04 2.86459E-21
5.14715E-04 2.45031E-21
5.55063E-04 2.10838E-21
5.96931E-04 1.82413E-21
6.40321E-04 1.58625E-21
6.85233E-04 1.38595E-21
7.31665E-04 1.21632E-21
7.79618E-04 1.07188E-21
8.29092E-04 9.48285E-22
8.80086E-04 8.42014E-22
9.32601E-04 7.50232E-22
9.86636E-04 6.70629E-22
1.04219E-03 6.01316E-22
1.09927E-03 5.40734E-22
1.15786E-03 4.87595E-22
1.21797E-03 4.40828E-22
1.27961E-03 3.99536E-22
1.34276E-03 3.62968E-22
1.40743E-03 3.30489E-22
1.47362E-03 3.01563E-22
1.54133E-03 2.75732E-22
1.61056E-03 2.52607E-22
1.68131E-03 2.31855E-22
1.75357E-03 2.13189E-22
1.82735E-03 1.96362E-22
1.90265E-03 1.81161E-22
1.97947E-03 1.67402E-22
2.05780E-03 1.54922E-22
2.13765E-03 1.43581E-22
2.21902E-03 1.33258E-22
2.30190E-03 1.23844E-22
2.38630E-03 1.15245E-22
2.47222E-03 1.07377E-22
2.55965E-03 1.00168E-22
2.64859E-03 9.35514E-23
2.73905E-03 8.74707E-23
2.83103E-03 8.18743E-23
2.92452E-03 7.67167E-23
3.01952E-03 7.19572E-23
3.11604E-03 6.75596E-23
3.21407E-03 6.34912E-23
3.31362E-03 5.97230E-23
3.41468E-03 5.62288E-23
3.51725E-03 5.29850E-23
3.62133E-03 4.99704E-23
3.72692E-03 4.71659E-23
3.83403E-03 4.45541E-23
3.94265E-03 4.21193E-23
4.05278E-03 3.98474E-23
4.16442E-03 3.77255E-23
4.27757E-03 3.57419E-23
4.39223E-03 3.38858E-23
4.50840E-03 3.21477E-23
4.62608E-03 3.05186E-23
4.74527E-03 2.89904E-23
4.86597E-03 2.75557E-23
4.98817E-03 2.62078E-23
5.11188E-03 2.49405E-23
5.23711E-03 2.37480E-23
5.36383E-03 2.26251E-23
5.49207E-03 2.15670E-23
5.62181E-03 2.05693E-23
5.75306E-03 1.96280E-23
5.88581E-03 1.87391E-23
6.02007E-03 1.78994E-23
6.15583E-03 1.71054E-23
6.29310E-03 1.63544E-23
6.43187E-03 1.56436E-23
6.57214E-03 1.49704E-23
6.71392E-03 1.43324E-23
6.85720E-03 1.37275E-23
7.00198E-03 1.31536E-23
7.14827E-03 1.26090E-23
7.29605E-03 1.20917E-23
7.44534E-03 1.16002E-23
7.59612E-03 1.11329E-23
7.97965E-03 1.00619E-23
8.37255E-03 9.11420E-24
8.77480E-03 8.27330E-24
9.18641E-03 7.52513E-24
9.60736E-03 6.85776E-24
1.00376E-02 6.26101E-24
1.04773E-02 5.72616E-24
1.09262E-02 5.24572E-24
1.13844E-02 4.81323E-24
1.18520E-02 4.42311E-24
1.23288E-02 4.07052E-24
1.28150E-02 3.75125E-24
1.33104E-02 3.46163E-24
1.38150E-02 3.19846E-24
1.43290E-02 2.95892E-24
1.48521E-02 2.74054E-24
1.53845E-02 2.54114E-24
1.59262E-02 2.35882E-24
1.64770E-02 2.19186E-24
1.70371E-02 2.03876E-24
1.76063E-02 1.89819E-24
1.81848E-02 1.76896E-24
1.87724E-02 1.65000E-24
1.93692E-02 1.54037E-24
1.99751E-02 1.43922E-24
2.05901E-02 1.34580E-24
2.12143E-02 1.25941E-24
2.18476E-02 1.17945E-24
2.24900E-02 1.10536E-24
2.31415E-02 1.03665E-24
2.38021E-02 9.72868E-25
2.44717E-02 9.13602E-25
2.51504E-02 8.58486E-25
2.58382E-02 8.07186E-25
2.65349E-02 7.59398E-25
2.72407E-02 7.14845E-25
2.79555E-02 6.73277E-25
2.86793E-02 6.34463E-25
2.94120E-02 5.98196E-25
3.01537E-02 5.64283E-25
3.09043E-02 5.32551E-25
3.16639E-02 5.02838E-25
3.24324E-02 4.74998E-25
3.32098E-02 4.48897E-25
3.39961E-02 4.24410E-25
3.47912E-02 4.01425E-25
3.55952E-02 3.79837E-25
3.64081E-02 3.59549E-25
3.72297E-02 3.40473E-25
3.80602E-02 3.22526E-25
3.88995E-02 3.05633E-25
3.97476E-02 2.89724E-25
4.06044E-02 2.74734E-25
4.14700E-02 2.60604E-25
4.23443E-02 2.47277E-25
4.32273E-02 2.34704E-25
4.41190E-02 2.22835E-25
4.50194E-02 2.11626E-25
4.59284E-02 2.01037E-25
4.68461E-02 1.91028E-25
4.87074E-02 1.72615E-25
5.06030E-02 1.56128E-25
5.25328E-02 1.41346E-25
5.44967E-02 1.28074E-25
5.64946E-02 1.16142E-25
5.85262E-02 1.05401E-25
6.05914E-02 9.57223E-26
6.26901E-02 8.69900E-26
6.48222E-02 7.91035E-26
6.69873E-02 7.19739E-26
6.91854E-02 6.55225E-26
7.14163E-02 5.96795E-26
7.36799E-02 5.43831E-26
7.59760E-02 4.95784E-26
7.83043E-02 4.52163E-26
8.06647E-02 4.12534E-26
8.30571E-02 3.76506E-26
8.54812E-02 3.43731E-26
8.79369E-02 3.13899E-26
9.04240E-02 2.86729E-26
9.29422E-02 2.61971E-26
9.54915E-02 2.39400E-26
9.80716E-02 2.18814E-26
1.00682E-01 2.00029E-26
1.03323E-01 1.82881E-26
1.05995E-01 1.67222E-26
1.08696E-01 1.52918E-26
1.11427E-01 1.39847E-26
1.14188E-01 1.27899E-26
1.16978E-01 1.16976E-26
1.19797E-01 1.06987E-26
1.22645E-01 9.78501E-27
1.25522E-01 8.94912E-27
1.28428E-01 8.18427E-27
1.31361E-01 7.48434E-27
1.34323E-01 6.84373E-27
1.37313E-01 6.25737E-27
1.40330E-01 5.72062E-27
1.43375E-01 5.22925E-27
1.46447E-01 4.77942E-27
1.49545E-01 4.36760E-27
1.52671E-01 3.99059E-27
1.55823E-01 3.64546E-27
1.59001E-01 3.32953E-27
1.62205E-01 3.04034E-27
1.65435E-01 2.77565E-27
1.68690E-01 2.53342E-27
1.71970E-01 2.31176E-27
1.75276E-01 2.10896E-27
1.78606E-01 1.92344E-27
1.81961E-01 1.75377E-27
1.85340E-01 1.59861E-27
1.88743E-01 1.45675E-27
1.92169E-01 1.32709E-27
1.95619E-01 1.20861E-27
1.99092E-01 1.10037E-27
2.02589E-01 1.00152E-27
2.06107E-01 9.11266E-28
2.09649E-01 8.28889E-28
2.13212E-01 7.53729E-28
2.16797E-01 6.85177E-28
2.20404E-01 6.22676E-28
2.24032E-01 5.65714E-28
2.27680E-01 5.13822E-28
2.31350E-01 4.66569E-28
2.35040E-01 4.23559E-28
2.38751E-01 3.84430E-28
2.42481E-01 3.48849E-28
2.46231E-01 3.16510E-28
2.50000E-01 2.87133E-28
2.53788E-01 2.60461E-28
2.57595E-01 2.36258E-28
2.61421E-01 2.14309E-28
2.65264E-01 1.94414E-28
2.69126E-01 1.76393E-28
2.73005E-01 1.60079E-28
2.76901E-01 1.45319E-28
2.80814E-01 1.31974E-28
2.84744E-01 1.19916E-28
2.88691E-01 1.09029E-28
2.92653E-01 9.92036E-29
2.96632E-01 9.03438E-29
3.00625E-01 8.23594E-29
3.04634E-01 7.51689E-29
3.08658E-01 6.86975E-29
3.12697E-01 6.28769E-29
3.16749E-01 5.76451E-29
3.20816E-01 5.29452E-29
3.24896E-01 4.87254E-29
3.28990E-01 4.49388E-29
3.33097E-01 4.15425E-29
3.37216E-01 3.84973E-29
3.41348E-01 3.57679E-29
3.45492E-01 3.33221E-29
3.49647E-01 3.11306E-29
3.53814E-01 2.91670E-29
3.57992E-01 2.74071E-29
3.62181E-01 2.58294E-29
3.66381E-01 2.44140E-29
3.70590E-01 2.31434E-29
3.74810E-01 2.20013E-29
3.79039E-01 2.09735E-29
3.83277E-01 2.00470E-29
3.87524E-01 1.92099E-29
3.91780E-01 1.84519E-29
3.96044E-01 1.77636E-29
4.00316E-01 1.71365E-29
4.04596E-01 1.65632E-29
4.08882E-01 1.60369E-29
4.13176E-01 1.55517E-29
4.17476E-01 1.51022E-29
4.21783E-01 1.46839E-29
4.26095E-01 1.42926E-29
4.30413E-01 1.39245E-29
4.34737E-01 1.35766E-29
4.39065E-01 1.32459E-29
4.43398E-01 1.29301E-29
4.47736E-01 1.26269E-29
4.52077E-01 1.23347E-29
4.56422E-01 1.20517E-29
4.60770E-01 1.17766E-29
4.65122E-01 1.15083E-29
4.69476E-01 1.12457E-29
4.73832E-01 1.09881E-29
4.78190E-01 1.07348E-29
4.82550E-01 1.04853E-29
4.86912E-01 1.02390E-29
4.91274E-01 9.99560E-30
4.95637E-01 9.75490E-30
5.00000E-01 9.51667E-30
5.04363E-01 9.28076E-30
5.08726E-01 9.04709E-30
5.13088E-01 8.81561E-30
5.17450E-01 8.58633E-30
5.21810E-01 8.35926E-30
5.26168E-01 8.13446E-30
5.30524E-01 7.91199E-30
5.34878E-01 7.69193E-30
5.39230E-01 7.47439E-30
5.43578E-01 7.25945E-30
5.47923E-01 7.04724E-30
5.52264E-01 6.83787E-30
5.56602E-01 6.63143E-30
5.60935E-01 6.42805E-30
5.65263E-01 6.22783E-30
5.69587E-01 6.03087E-30
5.73905E-01 5.83727E-30
5.78217E-01 5.64712E-30
5.82524E-01 5.46051E-30
5.86824E-01 5.27752E-30
5.91118E-01 5.09820E-30
5.95404E-01 4.92263E-30
5.99684E-01 4.75086E-30
6.03956E-01 4.58293E-30
6.08220E-01 4.41888E-30
6.12476E-01 4.25873E-30
6.16723E-01 4.10252E-30
6.20961E-01 3.95024E-30
6.25190E-01 3.80192E-30
6.29410E-01 3.65754E-30
6.33619E-01 3.51709E-30
6.37819E-01 3.38057E-30
6.42008E-01 3.24795E-30
6.46186E-01 3.11921E-30
6.50353E-01 2.99430E-30
6.54508E-01 2.87319E-30
6.58652E-01 2.75585E-30
6.62784E-01 2.64222E-30
6.66903E-01 2.53225E-30
6.71010E-01 2.42588E-30
6.75104E-01 2.32306E-30
6.79184E-01 2.22373E-30
6.83251E-01 2.12782E-30
6.87303E-01 2.03527E-30
6.91342E-01 1.94600E-30
6.95366E-01 1.85995E-30
6.99375E-01 1.77704E-30
7.03368E-01 1.69720E-30
7.07347E-01 1.62035E-30
7.11309E-01 1.54643E-30
7.15256E-01 1.47536E-30
7.19186E-01 1.40705E-30
7.23099E-01 1.34143E-30
7.26995E-01 1.27844E-30
7.30874E-01 1.21798E-30
7.34736E-01 1.15999E-30
7.38579E-01 1.10439E-30
7.42405E-01 1.05110E-30
7.46212E-01 1.00006E-30
7.50000E-01 9.51181E-31
7.53769E-01 9.04403E-31
7.57519E-01 8.59652E-31
7.61249E-01 8.16857E-31
7.64960E-01 7.75950E-31
7.68650E-01 7.36865E-31
7.72320E-01 6.99535E-31
7.75968E-01 6.63895E-31
7.79596E-01 6.29884E-31
7.83203E-01 5.97438E-31
7.86788E-01 5.66499E-31
7.90351E-01 5.37008E-31
7.93893E-01 5.08907E-31
7.97411E-01 4.82141E-31
8.00908E-01 4.56657E-31
8.04381E-01 4.32401E-31
8.07831E-01 4.09324E-31
8.11257E-01 3.87375E-31
8.14660E-01 3.66507E-31
8.18039E-01 3.46674E-31
8.21394E-01 3.27831E-31
8.24724E-01 3.09935E-31
8.28030E-01 2.92943E-31
8.31310E-01 2.76817E-31
8.34565E-01 2.61516E-31
8.37795E-01 2.47003E-31
8.40999E-01 2.33243E-31
8.44177E-01 2.20199E-31
8.47329E-01 2.07840E-31
8.50455E-01 1.96132E-31
8.53553E-01 1.85045E-31
8.56625E-01 1.74549E-31
8.59670E-01 1.64615E-31
8.62687E-01 1.55217E-31
8.65677E-01 1.46327E-31
8.68639E-01 1.37920E-31
8.71572E-01 1.29974E-31
8.74478E-01 1.22463E-31
8.77355E-01 1.15367E-31
8.80203E-01 1.08664E-31
8.83022E-01 1.02335E-31
8.85812E-01 9.63586E-32
8.88573E-01 9.07180E-32
8.91304E-01 8.53950E-32
8.94005E-01 8.03731E-32
8.96677E-01 7.56362E-32
8.99318E-01 7.11691E-32
9.01928E-01 6.69571E-32
9.04508E-01 6.29866E-32
9.07058E-01 5.92444E-32
9.09576E-01 5.57180E-32
9.12063E-01 5.23953E-32
9.14519E-01 4.92653E-32
9.16943E-01 4.63170E-32
9.19335E-01 4.35404E-32
9.21696E-01 4.09257E-32
9.24024E-01 3.84637E-32
9.26320E-01 3.61459E-32
9.28584E-01 3.39638E-32
9.30815E-01 3.19097E-32
9.33013E-01 2.99762E-32
9.35178E-01 2.81562E-32
9.37310E-01 2.64433E-32
9.39409E-01 2.48311E-32
9.41474E-01 2.33136E-32
9.43505E-01 2.18853E-32
9.45503E-01 2.05410E-32
9.47467E-01 1.92756E-32
9.49397E-01 1.80844E-32
9.51293E-01 1.69631E-32
9.53154E-01 1.59074E-32
9.54981E-01 1.49133E-32
9.56773E-01 1.39773E-32
9.58530E-01 1.30958E-32
9.60252E-01 1.22656E-32
9.61940E-01 1.14835E-32
9.63592E-01 1.07466E-32
9.65209E-01 1.00524E-32
9.66790E-01 9.39810E-33
9.68336E-01 8.78144E-33
9.69846E-01 8.20014E-33
9.71321E-01 7.65211E-33
9.72759E-01 7.13538E-33
9.74162E-01 6.64811E-33
9.75528E-01 6.18857E-33
9.76858E-01 5.75516E-33
9.78152E-01 5.34636E-33
9.79410E-01 4.96078E-33
9.80631E-01 4.59710E-33
9.81815E-01 4.25410E-33
9.82963E-01 3.93064E-33
9.84074E-01 3.62566E-33
9.85148E-01 3.33817E-33
9.86185E-01 3.06725E-33
9.87185E-01 2.81206E-33
9.88148E-01 2.57180E-33
9.89074E-01 2.34573E-33
9.89962E-01 2.13318E-33
9.90814E-01 1.93351E-33
9.91627E-01 1.74614E-33
9.92404E-01 1.57054E-33
9.93143E-01 1.40621E-33
9.93844E-01 1.25269E-33
9.94508E-01 1.10956E-33
9.95134E-01 9.76445E-34
9.95722E-01 8.52982E-34
9.96273E-01 7.38851E-34
9.96786E-01 6.33760E-34
9.97261E-01 5.37443E-34
9.97698E-01 4.49659E-34
9.98097E-01 3.70191E-34
9.98459E-01 2.98847E-34
9.98782E-01 2.35455E-34
9.99067E-01 1.79863E-34
9.99315E-01 1.31942E-34
9.99524E-01 9.15779E-35
9.99695E-01 5.86786E-35
9.99829E-01 3.31680E-35
9.99924E-01 1.49876E-35
9.99981E-01 4.09588E-36
1.00000E+00 4.67665E-37
