 #
 # Subroutine ELSEPA. Elastic scattering of electrons and positrons
 #                    by neutral atoms and positive ions
 #
 # Projectile: electron
 # Kinetic energy = 1.00000E+08 eV = 3.67493E+06 a.u.
 #
 # WARNING: High-energy factorization with free-atom DF screening.
 #          Absorption, polarization and exchange corrections are
 #          switched off.
 #          Phase shifts are calculated for the bare nucleus.
 #          Scattering amplitudes are not evaluated.
 #
 # Element: Ru,  Z =  44,  atomic weight = 1.01070E+02 g/mol
 #
 # Nuclear model: Fermi distribution
 #                Average radius = 4.98415E-13 cm
 #                Skin thickness = 5.46000E-14 cm
 #
 # Number of electrons = 44
 #
 # Total elastic cross section = 4.17081E-18 cm**2 = 1.48942E-01 a0**2
 # 1st transport cross section = 3.82591E-25 cm**2 = 1.36626E-08 a0**2
 # 2nd transport cross section = 1.13819E-24 cm**2 = 4.06454E-08 a0**2
 #
 #
 # Differential cross section:                       MU=(1-COS(THETA))/2
 #
 #  THETA        MU          DCS          DCS        Sherman      error
 #  (deg)                 (cm**2/sr)   (a0**2/sr)    function
 #----------------------------------------------------------------------
0.00000E+00 3.43903E-10
7.61557E-13 3.43007E-10
1.18994E-12 3.42506E-10
1.71346E-12 3.41896E-10
2.33225E-12 3.41178E-10
3.04617E-12 3.40352E-10
3.85530E-12 3.39422E-10
4.75964E-12 3.38387E-10
5.75917E-12 3.37251E-10
6.85391E-12 3.36014E-10
8.04379E-12 3.34680E-10
9.32893E-12 3.33250E-10
1.07092E-11 3.31726E-10
1.21847E-11 3.30112E-10
1.37554E-11 3.28410E-10
1.54213E-11 3.26623E-10
1.71823E-11 3.24754E-10
1.90386E-11 3.22804E-10
2.09900E-11 3.20779E-10
2.30367E-11 3.18678E-10
2.51785E-11 3.16498E-10
2.74156E-11 3.14256E-10
2.97478E-11 3.11955E-10
3.21752E-11 3.09600E-10
3.46979E-11 3.07193E-10
3.73157E-11 3.04714E-10
4.00286E-11 3.02181E-10
4.28368E-11 2.99608E-10
4.57402E-11 2.96997E-10
4.87388E-11 2.94353E-10
5.18325E-11 2.91668E-10
5.50215E-11 2.88925E-10
5.83057E-11 2.86157E-10
6.16850E-11 2.83370E-10
6.51595E-11 2.80567E-10
6.87293E-11 2.77749E-10
7.23943E-11 2.74882E-10
7.61544E-11 2.71996E-10
1.18991E-10 2.42912E-10
1.71347E-10 2.14561E-10
2.33223E-10 1.88237E-10
3.04617E-10 1.64623E-10
3.85531E-10 1.43856E-10
4.75965E-10 1.25797E-10
5.75917E-10 1.10175E-10
6.85389E-10 9.66802E-11
8.04380E-10 8.49937E-11
9.32891E-10 7.48839E-11
1.07092E-09 6.61192E-11
1.21847E-09 5.85023E-11
1.37554E-09 5.18672E-11
1.54213E-09 4.60714E-11
1.71823E-09 4.09910E-11
1.90386E-09 3.65396E-11
2.09900E-09 3.26319E-11
2.30367E-09 2.91503E-11
2.51785E-09 2.59215E-11
2.74156E-09 2.31888E-11
2.97478E-09 2.08619E-11
3.21752E-09 1.88692E-11
3.46978E-09 1.71532E-11
3.73156E-09 1.54971E-11
4.00286E-09 1.39989E-11
4.28368E-09 1.26995E-11
4.57402E-09 1.15674E-11
4.87388E-09 1.05768E-11
5.18326E-09 9.68559E-12
5.50215E-09 8.84083E-12
5.83057E-09 8.09620E-12
6.16850E-09 7.43749E-12
6.51596E-09 6.85278E-12
6.87293E-09 6.33207E-12
7.23942E-09 5.84442E-12
7.61544E-09 5.40256E-12
1.18991E-08 2.72018E-12
1.71347E-08 1.55228E-12
2.33223E-08 9.58073E-13
3.04617E-08 6.22183E-13
3.85531E-08 4.18738E-13
4.75965E-08 2.90014E-13
5.75917E-08 2.06071E-13
6.85389E-08 1.49830E-13
8.04380E-08 1.11392E-13
9.32891E-08 8.45447E-14
1.07092E-07 6.53581E-14
1.21847E-07 5.13576E-14
1.37554E-07 4.09511E-14
1.54213E-07 3.30843E-14
1.71823E-07 2.70402E-14
1.90386E-07 2.23275E-14
2.09900E-07 1.86037E-14
2.30367E-07 1.56251E-14
2.51785E-07 1.32158E-14
2.74156E-07 1.12671E-14
2.97478E-07 9.65176E-15
3.21752E-07 8.32302E-15
3.46978E-07 7.20911E-15
3.73156E-07 6.27719E-15
4.00286E-07 5.48905E-15
4.28368E-07 4.82036E-15
4.57402E-07 4.25010E-15
4.87388E-07 3.76040E-15
5.18325E-07 3.33969E-15
5.50215E-07 2.97489E-15
5.83057E-07 2.65924E-15
6.16850E-07 2.38320E-15
6.51596E-07 2.14258E-15
6.87293E-07 1.93093E-15
7.23942E-07 1.74499E-15
7.61543E-07 1.58067E-15
1.18991E-06 6.59097E-16
1.71347E-06 3.21708E-16
2.33223E-06 1.75292E-16
3.04617E-06 1.03533E-16
3.85531E-06 6.50331E-17
4.75964E-06 4.28806E-17
5.75916E-06 2.94062E-17
6.85388E-06 2.08311E-17
8.04378E-06 1.51645E-17
9.32888E-06 1.12994E-17
1.07092E-05 8.59028E-18
1.21846E-05 6.64614E-18
1.37553E-05 5.22190E-18
1.54212E-05 4.15936E-18
1.71822E-05 3.35374E-18
1.90385E-05 2.73344E-18
2.09899E-05 2.25112E-18
2.30365E-05 1.87049E-18
2.51783E-05 1.56681E-18
2.74153E-05 1.32218E-18
2.97475E-05 1.12340E-18
3.21749E-05 9.60595E-19
3.46974E-05 8.26279E-19
3.73152E-05 7.14686E-19
4.00281E-05 6.21351E-19
4.28362E-05 5.42787E-19
4.57395E-05 4.76258E-19
4.87380E-05 4.19606E-19
5.18317E-05 3.71119E-19
5.50205E-05 3.29429E-19
5.83045E-05 2.93429E-19
6.16838E-05 2.62217E-19
6.51582E-05 2.35053E-19
6.87277E-05 2.11324E-19
7.23925E-05 1.90520E-19
7.61524E-05 1.72321E-19
9.21439E-05 1.17815E-19
1.09658E-04 8.32600E-20
1.28695E-04 6.05053E-20
1.49255E-04 4.50212E-20
1.71338E-04 3.41932E-20
1.94942E-04 2.64352E-20
2.20070E-04 2.07597E-20
2.46720E-04 1.65303E-20
2.74892E-04 1.33260E-20
3.04586E-04 1.08627E-20
3.35803E-04 8.94373E-21
3.68542E-04 7.43089E-21
4.02802E-04 6.22519E-21
4.38585E-04 5.25468E-21
4.75889E-04 4.46639E-21
5.14715E-04 3.82071E-21
5.55063E-04 3.28775E-21
5.96931E-04 2.84470E-21
6.40321E-04 2.47392E-21
6.85233E-04 2.16172E-21
7.31665E-04 1.89731E-21
7.79618E-04 1.67218E-21
8.29092E-04 1.47952E-21
8.80086E-04 1.31385E-21
9.32601E-04 1.17078E-21
9.86636E-04 1.04669E-21
1.04219E-03 9.38628E-22
1.09927E-03 8.44182E-22
1.15786E-03 7.61340E-22
1.21797E-03 6.88424E-22
1.27961E-03 6.24044E-22
1.34276E-03 5.67027E-22
1.40743E-03 5.16382E-22
1.47362E-03 4.71274E-22
1.54133E-03 4.30991E-22
1.61056E-03 3.94926E-22
1.68131E-03 3.62558E-22
1.75357E-03 3.33443E-22
1.82735E-03 3.07194E-22
1.90265E-03 2.83479E-22
1.97947E-03 2.62011E-22
2.05780E-03 2.42538E-22
2.13765E-03 2.24841E-22
2.21902E-03 2.08731E-22
2.30190E-03 1.94037E-22
2.38630E-03 1.80615E-22
2.47222E-03 1.68333E-22
2.55965E-03 1.57077E-22
2.64859E-03 1.46746E-22
2.73905E-03 1.37251E-22
2.83103E-03 1.28510E-22
2.92452E-03 1.20454E-22
3.01952E-03 1.13019E-22
3.11604E-03 1.06148E-22
3.21407E-03 9.97912E-23
3.31362E-03 9.39022E-23
3.41468E-03 8.84407E-23
3.51725E-03 8.33697E-23
3.62133E-03 7.86564E-23
3.72692E-03 7.42708E-23
3.83403E-03 7.01859E-23
3.94265E-03 6.63774E-23
4.05278E-03 6.28230E-23
4.16442E-03 5.95026E-23
4.27757E-03 5.63981E-23
4.39223E-03 5.34927E-23
4.50840E-03 5.07714E-23
4.62608E-03 4.82203E-23
4.74527E-03 4.58268E-23
4.86597E-03 4.35793E-23
4.98817E-03 4.14673E-23
5.11188E-03 3.94811E-23
5.23711E-03 3.76118E-23
5.36383E-03 3.58513E-23
5.49207E-03 3.41920E-23
5.62181E-03 3.26270E-23
5.75306E-03 3.11500E-23
5.88581E-03 2.97552E-23
6.02007E-03 2.84370E-23
6.15583E-03 2.71905E-23
6.29310E-03 2.60110E-23
6.43187E-03 2.48944E-23
6.57214E-03 2.38366E-23
6.71392E-03 2.28339E-23
6.85720E-03 2.18829E-23
7.00198E-03 2.09805E-23
7.14827E-03 2.01238E-23
7.29605E-03 1.93099E-23
7.44534E-03 1.85363E-23
7.59612E-03 1.78007E-23
7.97965E-03 1.61137E-23
8.37255E-03 1.46198E-23
8.77480E-03 1.32932E-23
9.18641E-03 1.21119E-23
9.60736E-03 1.10573E-23
1.00376E-02 1.01135E-23
1.04773E-02 9.26676E-24
1.09262E-02 8.50546E-24
1.13844E-02 7.81947E-24
1.18520E-02 7.20006E-24
1.23288E-02 6.63966E-24
1.28150E-02 6.13168E-24
1.33104E-02 5.67036E-24
1.38150E-02 5.25070E-24
1.43290E-02 4.86827E-24
1.48521E-02 4.51922E-24
1.53845E-02 4.20012E-24
1.59262E-02 3.90796E-24
1.64770E-02 3.64008E-24
1.70371E-02 3.39413E-24
1.76063E-02 3.16799E-24
1.81848E-02 2.95980E-24
1.87724E-02 2.76789E-24
1.93692E-02 2.59077E-24
1.99751E-02 2.42712E-24
2.05901E-02 2.27573E-24
2.12143E-02 2.13553E-24
2.18476E-02 2.00555E-24
2.24900E-02 1.88492E-24
2.31415E-02 1.77287E-24
2.38021E-02 1.66867E-24
2.44717E-02 1.57168E-24
2.51504E-02 1.48133E-24
2.58382E-02 1.39709E-24
2.65349E-02 1.31846E-24
2.72407E-02 1.24503E-24
2.79555E-02 1.17638E-24
2.86793E-02 1.11216E-24
2.94120E-02 1.05204E-24
3.01537E-02 9.95701E-25
3.09043E-02 9.42879E-25
3.16639E-02 8.93318E-25
3.24324E-02 8.46783E-25
3.32098E-02 8.03060E-25
3.39961E-02 7.61952E-25
3.47912E-02 7.23280E-25
3.55952E-02 6.86875E-25
3.64081E-02 6.52584E-25
3.72297E-02 6.20265E-25
3.80602E-02 5.89789E-25
3.88995E-02 5.61032E-25
3.97476E-02 5.33885E-25
4.06044E-02 5.08243E-25
4.14700E-02 4.84009E-25
4.23443E-02 4.61096E-25
4.32273E-02 4.39420E-25
4.41190E-02 4.18905E-25
4.50194E-02 3.99480E-25
4.59284E-02 3.81078E-25
4.68461E-02 3.63638E-25
4.87074E-02 3.31416E-25
5.06030E-02 3.02399E-25
5.25328E-02 2.76228E-25
5.44967E-02 2.52586E-25
5.64946E-02 2.31198E-25
5.85262E-02 2.11821E-25
6.05914E-02 1.94244E-25
6.26901E-02 1.78278E-25
6.48222E-02 1.63758E-25
6.69873E-02 1.50537E-25
6.91854E-02 1.38486E-25
7.14163E-02 1.27490E-25
7.36799E-02 1.17446E-25
7.59760E-02 1.08261E-25
7.83043E-02 9.98559E-26
8.06647E-02 9.21563E-26
8.30571E-02 8.50971E-26
8.54812E-02 7.86196E-26
8.79369E-02 7.26713E-26
9.04240E-02 6.72047E-26
9.29422E-02 6.21771E-26
9.54915E-02 5.75501E-26
9.80716E-02 5.32889E-26
1.00682E-01 4.93621E-26
1.03323E-01 4.57412E-26
1.05995E-01 4.24004E-26
1.08696E-01 3.93163E-26
1.11427E-01 3.64677E-26
1.14188E-01 3.38352E-26
1.16978E-01 3.14013E-26
1.19797E-01 2.91499E-26
1.22645E-01 2.70664E-26
1.25522E-01 2.51375E-26
1.28428E-01 2.33509E-26
1.31361E-01 2.16955E-26
1.34323E-01 2.01612E-26
1.37313E-01 1.87385E-26
1.40330E-01 1.74189E-26
1.43375E-01 1.61945E-26
1.46447E-01 1.50582E-26
1.49545E-01 1.40033E-26
1.52671E-01 1.30237E-26
1.55823E-01 1.21137E-26
1.59001E-01 1.12683E-26
1.62205E-01 1.04827E-26
1.65435E-01 9.75253E-27
1.68690E-01 9.07368E-27
1.71970E-01 8.44247E-27
1.75276E-01 7.85544E-27
1.78606E-01 7.30942E-27
1.81961E-01 6.80147E-27
1.85340E-01 6.32887E-27
1.88743E-01 5.88911E-27
1.92169E-01 5.47986E-27
1.95619E-01 5.09896E-27
1.99092E-01 4.74442E-27
2.02589E-01 4.41439E-27
2.06107E-01 4.10716E-27
2.09649E-01 3.82113E-27
2.13212E-01 3.55482E-27
2.16797E-01 3.30688E-27
2.20404E-01 3.07602E-27
2.24032E-01 2.86106E-27
2.27680E-01 2.66091E-27
2.31350E-01 2.47455E-27
2.35040E-01 2.30103E-27
2.38751E-01 2.13946E-27
2.42481E-01 1.98904E-27
2.46231E-01 1.84899E-27
2.50000E-01 1.71861E-27
2.53788E-01 1.59723E-27
2.57595E-01 1.48424E-27
2.61421E-01 1.37907E-27
2.65264E-01 1.28119E-27
2.69126E-01 1.19009E-27
2.73005E-01 1.10532E-27
2.76901E-01 1.02645E-27
2.80814E-01 9.53065E-28
2.84744E-01 8.84802E-28
2.88691E-01 8.21309E-28
2.92653E-01 7.62261E-28
2.96632E-01 7.07354E-28
3.00625E-01 6.56305E-28
3.04634E-01 6.08852E-28
3.08658E-01 5.64747E-28
3.12697E-01 5.23763E-28
3.16749E-01 4.85685E-28
3.20816E-01 4.50314E-28
3.24896E-01 4.17463E-28
3.28990E-01 3.86960E-28
3.33097E-01 3.58642E-28
3.37216E-01 3.32359E-28
3.41348E-01 3.07970E-28
3.45492E-01 2.85343E-28
3.49647E-01 2.64357E-28
3.53814E-01 2.44897E-28
3.57992E-01 2.26856E-28
3.62181E-01 2.10136E-28
3.66381E-01 1.94643E-28
3.70590E-01 1.80292E-28
3.74810E-01 1.67001E-28
3.79039E-01 1.54697E-28
3.83277E-01 1.43308E-28
3.87524E-01 1.32771E-28
3.91780E-01 1.23023E-28
3.96044E-01 1.14009E-28
4.00316E-01 1.05676E-28
4.04596E-01 9.79742E-29
4.08882E-01 9.08585E-29
4.13176E-01 8.42861E-29
4.17476E-01 7.82174E-29
4.21783E-01 7.26155E-29
4.26095E-01 6.74460E-29
4.30413E-01 6.26770E-29
4.34737E-01 5.82787E-29
4.39065E-01 5.42235E-29
4.43398E-01 5.04856E-29
4.47736E-01 4.70412E-29
4.52077E-01 4.38680E-29
4.56422E-01 4.09455E-29
4.60770E-01 3.82544E-29
4.65122E-01 3.57769E-29
4.69476E-01 3.34966E-29
4.73832E-01 3.13981E-29
4.78190E-01 2.94673E-29
4.82550E-01 2.76908E-29
4.86912E-01 2.60565E-29
4.91274E-01 2.45531E-29
4.95637E-01 2.31701E-29
5.00000E-01 2.18978E-29
5.04363E-01 2.07271E-29
5.08726E-01 1.96499E-29
5.13088E-01 1.86584E-29
5.17450E-01 1.77454E-29
5.21810E-01 1.69046E-29
5.26168E-01 1.61297E-29
5.30524E-01 1.54153E-29
5.34878E-01 1.47561E-29
5.39230E-01 1.41475E-29
5.43578E-01 1.35850E-29
5.47923E-01 1.30647E-29
5.52264E-01 1.25828E-29
5.56602E-01 1.21359E-29
5.60935E-01 1.17209E-29
5.65263E-01 1.13350E-29
5.69587E-01 1.09755E-29
5.73905E-01 1.06400E-29
5.78217E-01 1.03264E-29
5.82524E-01 1.00325E-29
5.86824E-01 9.75650E-30
5.91118E-01 9.49681E-30
5.95404E-01 9.25184E-30
5.99684E-01 9.02020E-30
6.03956E-01 8.80062E-30
6.08220E-01 8.59195E-30
6.12476E-01 8.39312E-30
6.16723E-01 8.20320E-30
6.20961E-01 8.02132E-30
6.25190E-01 7.84671E-30
6.29410E-01 7.67865E-30
6.33619E-01 7.51653E-30
6.37819E-01 7.35977E-30
6.42008E-01 7.20785E-30
6.46186E-01 7.06034E-30
6.50353E-01 6.91681E-30
6.54508E-01 6.77690E-30
6.58652E-01 6.64029E-30
6.62784E-01 6.50669E-30
6.66903E-01 6.37586E-30
6.71010E-01 6.24756E-30
6.75104E-01 6.12159E-30
6.79184E-01 5.99780E-30
6.83251E-01 5.87603E-30
6.87303E-01 5.75615E-30
6.91342E-01 5.63805E-30
6.95366E-01 5.52163E-30
6.99375E-01 5.40682E-30
7.03368E-01 5.29355E-30
7.07347E-01 5.18175E-30
7.11309E-01 5.07139E-30
7.15256E-01 4.96243E-30
7.19186E-01 4.85483E-30
7.23099E-01 4.74858E-30
7.26995E-01 4.64365E-30
7.30874E-01 4.54004E-30
7.34736E-01 4.43774E-30
7.38579E-01 4.33673E-30
7.42405E-01 4.23703E-30
7.46212E-01 4.13863E-30
7.50000E-01 4.04153E-30
7.53769E-01 3.94575E-30
7.57519E-01 3.85128E-30
7.61249E-01 3.75813E-30
7.64960E-01 3.66632E-30
7.68650E-01 3.57584E-30
7.72320E-01 3.48671E-30
7.75968E-01 3.39893E-30
7.79596E-01 3.31251E-30
7.83203E-01 3.22746E-30
7.86788E-01 3.14378E-30
7.90351E-01 3.06148E-30
7.93893E-01 2.98057E-30
7.97411E-01 2.90104E-30
8.00908E-01 2.82290E-30
8.04381E-01 2.74615E-30
8.07831E-01 2.67079E-30
8.11257E-01 2.59682E-30
8.14660E-01 2.52425E-30
8.18039E-01 2.45306E-30
8.21394E-01 2.38325E-30
8.24724E-01 2.31483E-30
8.28030E-01 2.24778E-30
8.31310E-01 2.18210E-30
8.34565E-01 2.11778E-30
8.37795E-01 2.05481E-30
8.40999E-01 1.99319E-30
8.44177E-01 1.93290E-30
8.47329E-01 1.87393E-30
8.50455E-01 1.81628E-30
8.53553E-01 1.75992E-30
8.56625E-01 1.70484E-30
8.59670E-01 1.65104E-30
8.62687E-01 1.59850E-30
8.65677E-01 1.54719E-30
8.68639E-01 1.49712E-30
8.71572E-01 1.44825E-30
8.74478E-01 1.40058E-30
8.77355E-01 1.35409E-30
8.80203E-01 1.30876E-30
8.83022E-01 1.26457E-30
8.85812E-01 1.22151E-30
8.88573E-01 1.17955E-30
8.91304E-01 1.13869E-30
8.94005E-01 1.09889E-30
8.96677E-01 1.06015E-30
8.99318E-01 1.02243E-30
9.01928E-01 9.85739E-31
9.04508E-01 9.50040E-31
9.07058E-01 9.15317E-31
9.09576E-01 8.81553E-31
9.12063E-01 8.48728E-31
9.14519E-01 8.16825E-31
9.16943E-01 7.85823E-31
9.19335E-01 7.55705E-31
9.21696E-01 7.26452E-31
9.24024E-01 6.98046E-31
9.26320E-01 6.70468E-31
9.28584E-01 6.43701E-31
9.30815E-01 6.17727E-31
9.33013E-01 5.92528E-31
9.35178E-01 5.68086E-31
9.37310E-01 5.44385E-31
9.39409E-01 5.21408E-31
9.41474E-01 4.99138E-31
9.43505E-01 4.77557E-31
9.45503E-01 4.56652E-31
9.47467E-01 4.36404E-31
9.49397E-01 4.16799E-31
9.51293E-01 3.97822E-31
9.53154E-01 3.79457E-31
9.54981E-01 3.61689E-31
9.56773E-01 3.44505E-31
9.58530E-01 3.27889E-31
9.60252E-01 3.11829E-31
9.61940E-01 2.96310E-31
9.63592E-01 2.81320E-31
9.65209E-01 2.66845E-31
9.66790E-01 2.52873E-31
9.68336E-01 2.39392E-31
9.69846E-01 2.26390E-31
9.71321E-01 2.13854E-31
9.72759E-01 2.01775E-31
9.74162E-01 1.90140E-31
9.75528E-01 1.78940E-31
9.76858E-01 1.68163E-31
9.78152E-01 1.57801E-31
9.79410E-01 1.47842E-31
9.80631E-01 1.38278E-31
9.81815E-01 1.29100E-31
9.82963E-01 1.20299E-31
9.84074E-01 1.11866E-31
9.85148E-01 1.03793E-31
9.86185E-01 9.60731E-32
9.87185E-01 8.86976E-32
9.88148E-01 8.16598E-32
9.89074E-01 7.49525E-32
9.89962E-01 6.85692E-32
9.90814E-01 6.25034E-32
9.91627E-01 5.67492E-32
9.92404E-01 5.13007E-32
9.93143E-01 4.61524E-32
9.93844E-01 4.12990E-32
9.94508E-01 3.67358E-32
9.95134E-01 3.24579E-32
9.95722E-01 2.84610E-32
9.96273E-01 2.47410E-32
9.96786E-01 2.12941E-32
9.97261E-01 1.81166E-32
9.97698E-01 1.52055E-32
9.98097E-01 1.25575E-32
9.98459E-01 1.01699E-32
9.98782E-01 8.04038E-33
9.99067E-01 6.16656E-33
9.99315E-01 4.54653E-33
9.99524E-01 3.17860E-33
9.99695E-01 2.06133E-33
9.99829E-01 1.19355E-33
9.99924E-01 5.74363E-34
9.99981E-01 2.03108E-34
1.00000E+00 7.94047E-35
