 #
 # Subroutine ELSEPA. Elastic scattering of electrons and positrons
 #                    by neutral atoms and positive ions
 #
 # Projectile: electron
 # Kinetic energy = 6.00000E+07 eV = 2.20496E+06 a.u.
 #
 # WARNING: High-energy factorization with free-atom DF screening.
 #          Absorption, polarization and exchange corrections are
 #          switched off.
 #          Phase shifts are calculated for the bare nucleus.
 #          Scattering amplitudes are not evaluated.
 #
 # Element: Ru,  Z =  44,  atomic weight = 1.01070E+02 g/mol
 #
 # Nuclear model: Fermi distribution
 #                Average radius = 4.98415E-13 cm
 #                Skin thickness = 5.46000E-14 cm
 #
 # Number of electrons = 44
 #
 # Total elastic cross section = 4.16876E-18 cm**2 = 1.48869E-01 a0**2
 # 1st transport cross section = 1.05124E-24 cm**2 = 3.75406E-08 a0**2
 # 2nd transport cross section = 3.09558E-24 cm**2 = 1.10545E-07 a0**2
 #
 #
 # Differential cross section:                       MU=(1-COS(THETA))/2
 #
 #  THETA        MU          DCS          DCS        Sherman      error
 #  (deg)                 (cm**2/sr)   (a0**2/sr)    function
 #----------------------------------------------------------------------
0.00000E+00 1.24646E-10
7.61557E-13 1.24528E-10
1.18994E-12 1.24462E-10
1.71346E-12 1.24381E-10
2.33225E-12 1.24286E-10
3.04617E-12 1.24176E-10
3.85530E-12 1.24052E-10
4.75964E-12 1.23914E-10
5.75917E-12 1.23761E-10
6.85391E-12 1.23594E-10
8.04379E-12 1.23414E-10
9.32893E-12 1.23219E-10
1.07092E-11 1.23011E-10
1.21847E-11 1.22789E-10
1.37554E-11 1.22553E-10
1.54213E-11 1.22305E-10
1.71823E-11 1.22043E-10
1.90386E-11 1.21768E-10
2.09900E-11 1.21480E-10
2.30367E-11 1.21179E-10
2.51785E-11 1.20866E-10
2.74156E-11 1.20541E-10
2.97478E-11 1.20204E-10
3.21752E-11 1.19855E-10
3.46979E-11 1.19494E-10
3.73157E-11 1.19121E-10
4.00286E-11 1.18738E-10
4.28368E-11 1.18343E-10
4.57402E-11 1.17937E-10
4.87388E-11 1.17521E-10
5.18325E-11 1.17095E-10
5.50215E-11 1.16658E-10
5.83057E-11 1.16212E-10
6.16850E-11 1.15756E-10
6.51595E-11 1.15289E-10
6.87293E-11 1.14812E-10
7.23943E-11 1.14327E-10
7.61544E-11 1.13834E-10
1.18991E-10 1.08496E-10
1.71347E-10 1.02584E-10
2.33223E-10 9.63401E-11
3.04617E-10 8.99807E-11
3.85531E-10 8.36796E-11
4.75965E-10 7.75648E-11
5.75917E-10 7.17217E-11
6.85389E-10 6.62167E-11
8.04380E-10 6.10794E-11
9.32891E-10 5.63184E-11
1.07092E-09 5.19282E-11
1.21847E-09 4.78934E-11
1.37554E-09 4.41933E-11
1.54213E-09 4.08042E-11
1.71823E-09 3.77016E-11
1.90386E-09 3.48573E-11
2.09900E-09 3.22494E-11
2.30367E-09 2.98604E-11
2.51785E-09 2.76704E-11
2.74156E-09 2.56611E-11
2.97478E-09 2.38162E-11
3.21752E-09 2.21205E-11
3.46978E-09 2.05608E-11
3.73156E-09 1.91249E-11
4.00286E-09 1.78019E-11
4.28368E-09 1.65794E-11
4.57402E-09 1.54510E-11
4.87388E-09 1.44092E-11
5.18326E-09 1.34469E-11
5.50215E-09 1.25572E-11
5.83057E-09 1.17342E-11
6.16850E-09 1.09724E-11
6.51596E-09 1.02240E-11
6.87293E-09 9.52910E-12
7.23942E-09 8.90087E-12
7.61544E-09 8.33164E-12
1.18991E-08 4.55898E-12
1.71347E-08 2.66874E-12
2.33223E-08 1.66844E-12
3.04617E-08 1.10639E-12
3.85531E-08 7.70276E-13
4.75965E-08 5.56780E-13
5.75917E-08 4.13711E-13
6.85389E-08 3.14060E-13
8.04380E-08 2.42398E-13
9.32891E-08 1.89619E-13
1.07092E-07 1.50044E-13
1.21847E-07 1.19954E-13
1.37554E-07 9.68173E-14
1.54213E-07 7.88657E-14
1.71823E-07 6.47752E-14
1.90386E-07 5.36414E-14
2.09900E-07 4.47822E-14
2.30367E-07 3.76781E-14
2.51785E-07 3.19328E-14
2.74156E-07 2.72477E-14
2.97478E-07 2.33970E-14
3.21752E-07 2.02089E-14
3.46978E-07 1.75515E-14
3.73156E-07 1.53224E-14
4.00286E-07 1.34412E-14
4.28368E-07 1.18439E-14
4.57402E-07 1.04801E-14
4.87388E-07 9.30932E-15
5.18325E-07 8.29896E-15
5.50215E-07 7.42291E-15
5.83057E-07 6.66000E-15
6.16850E-07 5.99299E-15
6.51596E-07 5.40537E-15
6.87293E-07 4.88891E-15
7.23942E-07 4.43465E-15
7.61543E-07 4.03312E-15
1.18991E-06 1.72533E-15
1.71347E-06 8.52890E-16
2.33223E-06 4.67417E-16
3.04617E-06 2.76905E-16
3.85531E-06 1.74293E-16
4.75964E-06 1.15141E-16
5.75916E-06 7.91122E-17
6.85388E-06 5.61510E-17
8.04378E-06 4.09545E-17
9.32888E-06 3.05718E-17
1.07092E-05 2.32821E-17
1.21846E-05 1.80418E-17
1.37553E-05 1.41963E-17
1.54212E-05 1.13227E-17
1.71822E-05 9.14065E-18
1.90385E-05 7.45814E-18
2.09899E-05 6.14813E-18
2.30365E-05 5.11305E-18
2.51783E-05 4.28631E-18
2.74153E-05 3.61962E-18
2.97475E-05 3.07739E-18
3.21749E-05 2.63291E-18
3.46974E-05 2.26592E-18
3.73152E-05 1.96081E-18
4.00281E-05 1.70545E-18
4.28362E-05 1.49037E-18
4.57395E-05 1.30815E-18
4.87380E-05 1.15290E-18
5.18317E-05 1.01997E-18
5.50205E-05 9.05623E-19
5.83045E-05 8.06845E-19
6.16838E-05 7.21178E-19
6.51582E-05 6.46596E-19
6.87277E-05 5.81427E-19
7.23925E-05 5.24275E-19
7.61524E-05 4.74120E-19
9.21439E-05 3.24304E-19
1.09658E-04 2.29263E-19
1.28695E-04 1.66647E-19
1.49255E-04 1.24023E-19
1.71338E-04 9.42077E-20
1.94942E-04 7.28412E-20
2.20070E-04 5.72075E-20
2.46720E-04 4.55558E-20
2.74892E-04 3.67272E-20
3.04586E-04 2.99400E-20
3.35803E-04 2.46520E-20
3.68542E-04 2.04831E-20
4.02802E-04 1.71604E-20
4.38585E-04 1.44857E-20
4.75889E-04 1.23133E-20
5.14715E-04 1.05337E-20
5.55063E-04 9.06490E-21
5.96931E-04 7.84379E-21
6.40321E-04 6.82188E-21
6.85233E-04 5.96138E-21
7.31665E-04 5.23263E-21
7.79618E-04 4.61212E-21
8.29092E-04 4.08108E-21
8.80086E-04 3.62448E-21
9.32601E-04 3.23012E-21
9.86636E-04 2.88807E-21
1.04219E-03 2.59022E-21
1.09927E-03 2.32988E-21
1.15786E-03 2.10151E-21
1.21797E-03 1.90052E-21
1.27961E-03 1.72304E-21
1.34276E-03 1.56586E-21
1.40743E-03 1.42624E-21
1.47362E-03 1.30188E-21
1.54133E-03 1.19081E-21
1.61056E-03 1.09138E-21
1.68131E-03 1.00213E-21
1.75357E-03 9.21843E-22
1.82735E-03 8.49463E-22
1.90265E-03 7.84065E-22
1.97947E-03 7.24859E-22
2.05780E-03 6.71154E-22
2.13765E-03 6.22342E-22
2.21902E-03 5.77901E-22
2.30190E-03 5.37370E-22
2.38630E-03 5.00337E-22
2.47222E-03 4.66451E-22
2.55965E-03 4.35393E-22
2.64859E-03 4.06883E-22
2.73905E-03 3.80679E-22
2.83103E-03 3.56551E-22
2.92452E-03 3.34316E-22
3.01952E-03 3.13788E-22
3.11604E-03 2.94818E-22
3.21407E-03 2.77263E-22
3.31362E-03 2.60999E-22
3.41468E-03 2.45914E-22
3.51725E-03 2.31906E-22
3.62133E-03 2.18884E-22
3.72692E-03 2.06765E-22
3.83403E-03 1.95476E-22
3.94265E-03 1.84949E-22
4.05278E-03 1.75123E-22
4.16442E-03 1.65943E-22
4.27757E-03 1.57357E-22
4.39223E-03 1.49322E-22
4.50840E-03 1.41794E-22
4.62608E-03 1.34735E-22
4.74527E-03 1.28111E-22
4.86597E-03 1.21891E-22
4.98817E-03 1.16043E-22
5.11188E-03 1.10544E-22
5.23711E-03 1.05366E-22
5.36383E-03 1.00489E-22
5.49207E-03 9.58918E-23
5.62181E-03 9.15546E-23
5.75306E-03 8.74604E-23
5.88581E-03 8.35929E-23
6.02007E-03 7.99372E-23
6.15583E-03 7.64795E-23
6.29310E-03 7.32070E-23
6.43187E-03 7.01079E-23
6.57214E-03 6.71713E-23
6.71392E-03 6.43871E-23
6.85720E-03 6.17458E-23
7.00198E-03 5.92387E-23
7.14827E-03 5.68577E-23
7.29605E-03 5.45953E-23
7.44534E-03 5.24443E-23
7.59612E-03 5.03984E-23
7.97965E-03 4.57036E-23
8.37255E-03 4.15432E-23
8.77480E-03 3.78456E-23
9.18641E-03 3.45503E-23
9.60736E-03 3.16058E-23
1.00376E-02 2.89682E-23
1.04773E-02 2.65997E-23
1.09262E-02 2.44681E-23
1.13844E-02 2.25454E-23
1.18520E-02 2.08075E-23
1.23288E-02 1.92335E-23
1.28150E-02 1.78051E-23
1.33104E-02 1.65064E-23
1.38150E-02 1.53236E-23
1.43290E-02 1.42444E-23
1.48521E-02 1.32581E-23
1.53845E-02 1.23553E-23
1.59262E-02 1.15277E-23
1.64770E-02 1.07677E-23
1.70371E-02 1.00690E-23
1.76063E-02 9.42569E-24
1.81848E-02 8.83255E-24
1.87724E-02 8.28496E-24
1.93692E-02 7.77880E-24
1.99751E-02 7.31037E-24
2.05901E-02 6.87633E-24
2.12143E-02 6.47371E-24
2.18476E-02 6.09981E-24
2.24900E-02 5.75222E-24
2.31415E-02 5.42875E-24
2.38021E-02 5.12742E-24
2.44717E-02 4.84643E-24
2.51504E-02 4.58417E-24
2.58382E-02 4.33916E-24
2.65349E-02 4.11005E-24
2.72407E-02 3.89563E-24
2.79555E-02 3.69479E-24
2.86793E-02 3.50651E-24
2.94120E-02 3.32986E-24
3.01537E-02 3.16399E-24
3.09043E-02 3.00812E-24
3.16639E-02 2.86155E-24
3.24324E-02 2.72362E-24
3.32098E-02 2.59372E-24
3.39961E-02 2.47131E-24
3.47912E-02 2.35587E-24
3.55952E-02 2.24694E-24
3.64081E-02 2.14408E-24
3.72297E-02 2.04689E-24
3.80602E-02 1.95501E-24
3.88995E-02 1.86809E-24
3.97476E-02 1.78582E-24
4.06044E-02 1.70791E-24
4.14700E-02 1.63407E-24
4.23443E-02 1.56407E-24
4.32273E-02 1.49766E-24
4.41190E-02 1.43463E-24
4.50194E-02 1.37478E-24
4.59284E-02 1.31791E-24
4.68461E-02 1.26386E-24
4.87074E-02 1.16354E-24
5.06030E-02 1.07265E-24
5.25328E-02 9.90156E-25
5.44967E-02 9.15146E-25
5.64946E-02 8.46834E-25
5.85262E-02 7.84523E-25
6.05914E-02 7.27600E-25
6.26901E-02 6.75524E-25
6.48222E-02 6.27815E-25
6.69873E-02 5.84047E-25
6.91854E-02 5.43844E-25
7.14163E-02 5.06868E-25
7.36799E-02 4.72819E-25
7.59760E-02 4.41429E-25
7.83043E-02 4.12457E-25
8.06647E-02 3.85689E-25
8.30571E-02 3.60930E-25
8.54812E-02 3.38007E-25
8.79369E-02 3.16763E-25
9.04240E-02 2.97055E-25
9.29422E-02 2.78757E-25
9.54915E-02 2.61751E-25
9.80716E-02 2.45933E-25
1.00682E-01 2.31209E-25
1.03323E-01 2.17490E-25
1.05995E-01 2.04699E-25
1.08696E-01 1.92764E-25
1.11427E-01 1.81619E-25
1.14188E-01 1.71204E-25
1.16978E-01 1.61465E-25
1.19797E-01 1.52352E-25
1.22645E-01 1.43819E-25
1.25522E-01 1.35825E-25
1.28428E-01 1.28329E-25
1.31361E-01 1.21298E-25
1.34323E-01 1.14698E-25
1.37313E-01 1.08500E-25
1.40330E-01 1.02676E-25
1.43375E-01 9.72007E-26
1.46447E-01 9.20500E-26
1.49545E-01 8.72025E-26
1.52671E-01 8.26382E-26
1.55823E-01 7.83384E-26
1.59001E-01 7.42860E-26
1.62205E-01 7.04649E-26
1.65435E-01 6.68604E-26
1.68690E-01 6.34588E-26
1.71970E-01 6.02473E-26
1.75276E-01 5.72140E-26
1.78606E-01 5.43480E-26
1.81961E-01 5.16390E-26
1.85340E-01 4.90774E-26
1.88743E-01 4.66543E-26
1.92169E-01 4.43614E-26
1.95619E-01 4.21910E-26
1.99092E-01 4.01358E-26
2.02589E-01 3.81891E-26
2.06107E-01 3.63445E-26
2.09649E-01 3.45963E-26
2.13212E-01 3.29387E-26
2.16797E-01 3.13667E-26
2.20404E-01 2.98755E-26
2.24032E-01 2.84604E-26
2.27680E-01 2.71173E-26
2.31350E-01 2.58420E-26
2.35040E-01 2.46310E-26
2.38751E-01 2.34806E-26
2.42481E-01 2.23875E-26
2.46231E-01 2.13487E-26
2.50000E-01 2.03612E-26
2.53788E-01 1.94223E-26
2.57595E-01 1.85293E-26
2.61421E-01 1.76799E-26
2.65264E-01 1.68718E-26
2.69126E-01 1.61027E-26
2.73005E-01 1.53707E-26
2.76901E-01 1.46738E-26
2.80814E-01 1.40102E-26
2.84744E-01 1.33783E-26
2.88691E-01 1.27763E-26
2.92653E-01 1.22028E-26
2.96632E-01 1.16563E-26
3.00625E-01 1.11355E-26
3.04634E-01 1.06391E-26
3.08658E-01 1.01659E-26
3.12697E-01 9.71461E-27
3.16749E-01 9.28428E-27
3.20816E-01 8.87385E-27
3.24896E-01 8.48233E-27
3.28990E-01 8.10881E-27
3.33097E-01 7.75240E-27
3.37216E-01 7.41228E-27
3.41348E-01 7.08766E-27
3.45492E-01 6.77779E-27
3.49647E-01 6.48197E-27
3.53814E-01 6.19953E-27
3.57992E-01 5.92983E-27
3.62181E-01 5.67227E-27
3.66381E-01 5.42627E-27
3.70590E-01 5.19129E-27
3.74810E-01 4.96681E-27
3.79039E-01 4.75234E-27
3.83277E-01 4.54742E-27
3.87524E-01 4.35159E-27
3.91780E-01 4.16444E-27
3.96044E-01 3.98557E-27
4.00316E-01 3.81460E-27
4.04596E-01 3.65116E-27
4.08882E-01 3.49491E-27
4.13176E-01 3.34551E-27
4.17476E-01 3.20267E-27
4.21783E-01 3.06607E-27
4.26095E-01 2.93544E-27
4.30413E-01 2.81050E-27
4.34737E-01 2.69100E-27
4.39065E-01 2.57670E-27
4.43398E-01 2.46736E-27
4.47736E-01 2.36276E-27
4.52077E-01 2.26269E-27
4.56422E-01 2.16694E-27
4.60770E-01 2.07532E-27
4.65122E-01 1.98765E-27
4.69476E-01 1.90376E-27
4.73832E-01 1.82347E-27
4.78190E-01 1.74663E-27
4.82550E-01 1.67309E-27
4.86912E-01 1.60270E-27
4.91274E-01 1.53532E-27
4.95637E-01 1.47082E-27
5.00000E-01 1.40908E-27
5.04363E-01 1.34997E-27
5.08726E-01 1.29338E-27
5.13088E-01 1.23920E-27
5.17450E-01 1.18732E-27
5.21810E-01 1.13765E-27
5.26168E-01 1.09009E-27
5.30524E-01 1.04455E-27
5.34878E-01 1.00093E-27
5.39230E-01 9.59165E-28
5.43578E-01 9.19166E-28
5.47923E-01 8.80858E-28
5.52264E-01 8.44169E-28
5.56602E-01 8.09030E-28
5.60935E-01 7.75372E-28
5.65263E-01 7.43134E-28
5.69587E-01 7.12255E-28
5.73905E-01 6.82675E-28
5.78217E-01 6.54340E-28
5.82524E-01 6.27197E-28
5.86824E-01 6.01194E-28
5.91118E-01 5.76283E-28
5.95404E-01 5.52418E-28
5.99684E-01 5.29554E-28
6.03956E-01 5.07649E-28
6.08220E-01 4.86661E-28
6.12476E-01 4.66552E-28
6.16723E-01 4.47285E-28
6.20961E-01 4.28824E-28
6.25190E-01 4.11135E-28
6.29410E-01 3.94184E-28
6.33619E-01 3.77942E-28
6.37819E-01 3.62378E-28
6.42008E-01 3.47463E-28
6.46186E-01 3.33170E-28
6.50353E-01 3.19472E-28
6.54508E-01 3.06346E-28
6.58652E-01 2.93765E-28
6.62784E-01 2.81709E-28
6.66903E-01 2.70153E-28
6.71010E-01 2.59078E-28
6.75104E-01 2.48464E-28
6.79184E-01 2.38290E-28
6.83251E-01 2.28538E-28
6.87303E-01 2.19191E-28
6.91342E-01 2.10232E-28
6.95366E-01 2.01643E-28
6.99375E-01 1.93411E-28
7.03368E-01 1.85519E-28
7.07347E-01 1.77954E-28
7.11309E-01 1.70701E-28
7.15256E-01 1.63748E-28
7.19186E-01 1.57083E-28
7.23099E-01 1.50692E-28
7.26995E-01 1.44565E-28
7.30874E-01 1.38691E-28
7.34736E-01 1.33058E-28
7.38579E-01 1.27658E-28
7.42405E-01 1.22479E-28
7.46212E-01 1.17514E-28
7.50000E-01 1.12752E-28
7.53769E-01 1.08186E-28
7.57519E-01 1.03807E-28
7.61249E-01 9.96076E-29
7.64960E-01 9.55802E-29
7.68650E-01 9.17175E-29
7.72320E-01 8.80127E-29
7.75968E-01 8.44592E-29
7.79596E-01 8.10507E-29
7.83203E-01 7.77812E-29
7.86788E-01 7.46448E-29
7.90351E-01 7.16360E-29
7.93893E-01 6.87496E-29
7.97411E-01 6.59803E-29
8.00908E-01 6.33233E-29
8.04381E-01 6.07739E-29
8.07831E-01 5.83277E-29
8.11257E-01 5.59804E-29
8.14660E-01 5.37278E-29
8.18039E-01 5.15661E-29
8.21394E-01 4.94914E-29
8.24724E-01 4.75001E-29
8.28030E-01 4.55888E-29
8.31310E-01 4.37541E-29
8.34565E-01 4.19929E-29
8.37795E-01 4.03021E-29
8.40999E-01 3.86789E-29
8.44177E-01 3.71203E-29
8.47329E-01 3.56238E-29
8.50455E-01 3.41868E-29
8.53553E-01 3.28068E-29
8.56625E-01 3.14814E-29
8.59670E-01 3.02085E-29
8.62687E-01 2.89858E-29
8.65677E-01 2.78113E-29
8.68639E-01 2.66830E-29
8.71572E-01 2.55990E-29
8.74478E-01 2.45576E-29
8.77355E-01 2.35568E-29
8.80203E-01 2.25952E-29
8.83022E-01 2.16710E-29
8.85812E-01 2.07828E-29
8.88573E-01 1.99291E-29
8.91304E-01 1.91085E-29
8.94005E-01 1.83197E-29
8.96677E-01 1.75613E-29
8.99318E-01 1.68321E-29
9.01928E-01 1.61310E-29
9.04508E-01 1.54568E-29
9.07058E-01 1.48085E-29
9.09576E-01 1.41850E-29
9.12063E-01 1.35852E-29
9.14519E-01 1.30084E-29
9.16943E-01 1.24535E-29
9.19335E-01 1.19197E-29
9.21696E-01 1.14061E-29
9.24024E-01 1.09120E-29
9.26320E-01 1.04366E-29
9.28584E-01 9.97919E-30
9.30815E-01 9.53901E-30
9.33013E-01 9.11543E-30
9.35178E-01 8.70780E-30
9.37310E-01 8.31551E-30
9.39409E-01 7.93797E-30
9.41474E-01 7.57463E-30
9.43505E-01 7.22494E-30
9.45503E-01 6.88839E-30
9.47467E-01 6.56449E-30
9.49397E-01 6.25276E-30
9.51293E-01 5.95277E-30
9.53154E-01 5.66408E-30
9.54981E-01 5.38627E-30
9.56773E-01 5.11896E-30
9.58530E-01 4.86176E-30
9.60252E-01 4.61433E-30
9.61940E-01 4.37630E-30
9.63592E-01 4.14737E-30
9.65209E-01 3.92720E-30
9.66790E-01 3.71551E-30
9.68336E-01 3.51201E-30
9.69846E-01 3.31641E-30
9.71321E-01 3.12847E-30
9.72759E-01 2.94793E-30
9.74162E-01 2.77456E-30
9.75528E-01 2.60812E-30
9.76858E-01 2.44840E-30
9.78152E-01 2.29520E-30
9.79410E-01 2.14832E-30
9.80631E-01 2.00757E-30
9.81815E-01 1.87277E-30
9.82963E-01 1.74375E-30
9.84074E-01 1.62036E-30
9.85148E-01 1.50243E-30
9.86185E-01 1.38983E-30
9.87185E-01 1.28241E-30
9.88148E-01 1.18005E-30
9.89074E-01 1.08261E-30
9.89962E-01 9.89988E-31
9.90814E-01 9.02065E-31
9.91627E-01 8.18738E-31
9.92404E-01 7.39908E-31
9.93143E-01 6.65482E-31
9.93844E-01 5.95371E-31
9.94508E-01 5.29495E-31
9.95134E-01 4.67777E-31
9.95722E-01 4.10144E-31
9.96273E-01 3.56530E-31
9.96786E-01 3.06875E-31
9.97261E-01 2.61120E-31
9.97698E-01 2.19213E-31
9.98097E-01 1.81107E-31
9.98459E-01 1.46759E-31
9.98782E-01 1.16129E-31
9.99067E-01 8.91832E-32
9.99315E-01 6.58911E-32
9.99524E-01 4.62264E-32
9.99695E-01 3.01671E-32
9.99829E-01 1.76951E-32
9.99924E-01 8.79650E-33
9.99981E-01 3.46130E-33
1.00000E+00 1.68366E-33
