 #
 # Subroutine ELSEPA. Elastic scattering of electrons and positrons
 #                    by neutral atoms and positive ions
 #
 # Projectile: electron
 # Kinetic energy = 1.75000E+08 eV = 6.43113E+06 a.u.
 #
 # WARNING: High-energy factorization with free-atom DF screening.
 #          Absorption, polarization and exchange corrections are
 #          switched off.
 #          Phase shifts are calculated for the bare nucleus.
 #          Scattering amplitudes are not evaluated.
 #
 # Element: Ru,  Z =  44,  atomic weight = 1.01070E+02 g/mol
 #
 # Nuclear model: Fermi distribution
 #                Average radius = 4.98415E-13 cm
 #                Skin thickness = 5.46000E-14 cm
 #
 # Number of electrons = 44
 #
 # Total elastic cross section = 4.16814E-18 cm**2 = 1.48847E-01 a0**2
 # 1st transport cross section = 1.25423E-25 cm**2 = 4.47893E-09 a0**2
 # 2nd transport cross section = 3.75107E-25 cm**2 = 1.33953E-08 a0**2
 #
 #
 # Differential cross section:                       MU=(1-COS(THETA))/2
 #
 #  THETA        MU          DCS          DCS        Sherman      error
 #  (deg)                 (cm**2/sr)   (a0**2/sr)    function
 #----------------------------------------------------------------------
0.00000E+00 1.04862E-09
7.61557E-13 1.04034E-09
1.18994E-12 1.03575E-09
1.71346E-12 1.03018E-09
2.33225E-12 1.02368E-09
3.04617E-12 1.01627E-09
3.85530E-12 1.00799E-09
4.75964E-12 9.98892E-10
5.75917E-12 9.89010E-10
6.85391E-12 9.78394E-10
8.04379E-12 9.67065E-10
9.32893E-12 9.55104E-10
1.07092E-11 9.42615E-10
1.21847E-11 9.29589E-10
1.37554E-11 9.16034E-10
1.54213E-11 9.02124E-10
1.71823E-11 8.87862E-10
1.90386E-11 8.73183E-10
2.09900E-11 8.58317E-10
2.30367E-11 8.43285E-10
2.51785E-11 8.27928E-10
2.74156E-11 8.12534E-10
2.97478E-11 7.97145E-10
3.21752E-11 7.81510E-10
3.46979E-11 7.65959E-10
3.73157E-11 7.50531E-10
4.00286E-11 7.34986E-10
4.28368E-11 7.19586E-10
4.57402E-11 7.04399E-10
4.87388E-11 6.89210E-10
5.18325E-11 6.74198E-10
5.50215E-11 6.59466E-10
5.83057E-11 6.44830E-10
6.16850E-11 6.30379E-10
6.51595E-11 6.16255E-10
6.87293E-11 6.02305E-10
7.23943E-11 5.88534E-10
7.61544E-11 5.75115E-10
1.18991E-10 4.54944E-10
1.71347E-10 3.59981E-10
2.33223E-10 2.86315E-10
3.04617E-10 2.29201E-10
3.85531E-10 1.84668E-10
4.75965E-10 1.49698E-10
5.75917E-10 1.22015E-10
6.85389E-10 1.00010E-10
8.04380E-10 8.18123E-11
9.32891E-10 6.73963E-11
1.07092E-09 5.64633E-11
1.21847E-09 4.75519E-11
1.37554E-09 3.99092E-11
1.54213E-09 3.39176E-11
1.71823E-09 2.90498E-11
1.90386E-09 2.48489E-11
2.09900E-09 2.14597E-11
2.30367E-09 1.86788E-11
2.51785E-09 1.62674E-11
2.74156E-09 1.42740E-11
2.97478E-09 1.26126E-11
3.21752E-09 1.11592E-11
3.46978E-09 9.93235E-12
3.73156E-09 8.89044E-12
4.00286E-09 7.97238E-12
4.28368E-09 7.18056E-12
4.57402E-09 6.49753E-12
4.87388E-09 5.88899E-12
5.18326E-09 5.35414E-12
5.50215E-09 4.88684E-12
5.83057E-09 4.46646E-12
6.16850E-09 4.09040E-12
6.51596E-09 3.75837E-12
6.87293E-09 3.45781E-12
7.23942E-09 3.18450E-12
7.61544E-09 2.94109E-12
1.18991E-08 1.41733E-12
1.71347E-08 7.48916E-13
2.33223E-08 4.26664E-13
3.04617E-08 2.59861E-13
3.85531E-08 1.67426E-13
4.75965E-08 1.12961E-13
5.75917E-08 7.91538E-14
6.85389E-08 5.71812E-14
8.04380E-08 4.23261E-14
9.32891E-08 3.20281E-14
1.07092E-07 2.46765E-14
1.21847E-07 1.92952E-14
1.37554E-07 1.53002E-14
1.54213E-07 1.22834E-14
1.71823E-07 9.97100E-15
1.90386E-07 8.17530E-15
2.09900E-07 6.76246E-15
2.30367E-07 5.64127E-15
2.51785E-07 4.74256E-15
2.74156E-07 4.01554E-15
2.97478E-07 3.42236E-15
3.21752E-07 2.93439E-15
3.46978E-07 2.53038E-15
3.73156E-07 2.19359E-15
4.00286E-07 1.91106E-15
4.28368E-07 1.67262E-15
4.57402E-07 1.47019E-15
4.87388E-07 1.29754E-15
5.18325E-07 1.14955E-15
5.50215E-07 1.02210E-15
5.83057E-07 9.11865E-16
6.16850E-07 8.16097E-16
6.51596E-07 7.32602E-16
6.87293E-07 6.59537E-16
7.23942E-07 5.95373E-16
7.61543E-07 5.38838E-16
1.18991E-06 2.23414E-16
1.71347E-06 1.08651E-16
2.33223E-06 5.89885E-17
3.04617E-06 3.47194E-17
3.85531E-06 2.17389E-17
4.75964E-06 1.42938E-17
5.75916E-06 9.77888E-18
6.85388E-06 6.91334E-18
8.04378E-06 5.02434E-18
9.32888E-06 3.73852E-18
1.07092E-05 2.83887E-18
1.21846E-05 2.19424E-18
1.37553E-05 1.72261E-18
1.54212E-05 1.37115E-18
1.71822E-05 1.10492E-18
1.90385E-05 9.00111E-19
2.09899E-05 7.40966E-19
2.30365E-05 6.15454E-19
2.51783E-05 5.15369E-19
2.74153E-05 4.34781E-19
2.97475E-05 3.69324E-19
3.21749E-05 3.15734E-19
3.46974E-05 2.71535E-19
3.73152E-05 2.34824E-19
4.00281E-05 2.04127E-19
4.28362E-05 1.78293E-19
4.57395E-05 1.56421E-19
4.87380E-05 1.37800E-19
5.18317E-05 1.21865E-19
5.50205E-05 1.08166E-19
5.83045E-05 9.63380E-20
6.16838E-05 8.60844E-20
6.51582E-05 7.71616E-20
6.87277E-05 6.93678E-20
7.23925E-05 6.25355E-20
7.61524E-05 5.65919E-20
9.21439E-05 3.86868E-20
1.09658E-04 2.73374E-20
1.28695E-04 1.98646E-20
1.49255E-04 1.47799E-20
1.71338E-04 1.12243E-20
1.94942E-04 8.67694E-21
2.20070E-04 6.81339E-21
2.46720E-04 5.42469E-21
2.74892E-04 4.37258E-21
3.04586E-04 3.56382E-21
3.35803E-04 2.93374E-21
3.68542E-04 2.43706E-21
4.02802E-04 2.04122E-21
4.38585E-04 1.72260E-21
4.75889E-04 1.46382E-21
5.14715E-04 1.25186E-21
5.55063E-04 1.07692E-21
5.96931E-04 9.31491E-22
6.40321E-04 8.09797E-22
6.85233E-04 7.07336E-22
7.31665E-04 6.20570E-22
7.79618E-04 5.46702E-22
8.29092E-04 4.83493E-22
8.80086E-04 4.29152E-22
9.32601E-04 3.82225E-22
9.86636E-04 3.41530E-22
1.04219E-03 3.06101E-22
1.09927E-03 2.75139E-22
1.15786E-03 2.47986E-22
1.21797E-03 2.24093E-22
1.27961E-03 2.03000E-22
1.34276E-03 1.84324E-22
1.40743E-03 1.67740E-22
1.47362E-03 1.52972E-22
1.54133E-03 1.39788E-22
1.61056E-03 1.27987E-22
1.68131E-03 1.17400E-22
1.75357E-03 1.07879E-22
1.82735E-03 9.92985E-23
1.90265E-03 9.15491E-23
1.97947E-03 8.45363E-23
2.05780E-03 7.81775E-23
2.13765E-03 7.24012E-23
2.21902E-03 6.71444E-23
2.30190E-03 6.23521E-23
2.38630E-03 5.79761E-23
2.47222E-03 5.39738E-23
2.55965E-03 5.03075E-23
2.64859E-03 4.69441E-23
2.73905E-03 4.38541E-23
2.83103E-03 4.10114E-23
2.92452E-03 3.83925E-23
3.01952E-03 3.59767E-23
3.11604E-03 3.37456E-23
3.21407E-03 3.16824E-23
3.31362E-03 2.97722E-23
3.41468E-03 2.80017E-23
3.51725E-03 2.63589E-23
3.62133E-03 2.48329E-23
3.72692E-03 2.34138E-23
3.83403E-03 2.20930E-23
3.94265E-03 2.08623E-23
4.05278E-03 1.97146E-23
4.16442E-03 1.86432E-23
4.27757E-03 1.76421E-23
4.39223E-03 1.67060E-23
4.50840E-03 1.58298E-23
4.62608E-03 1.50091E-23
4.74527E-03 1.42396E-23
4.86597E-03 1.35177E-23
4.98817E-03 1.28399E-23
5.11188E-03 1.22029E-23
5.23711E-03 1.16040E-23
5.36383E-03 1.10404E-23
5.49207E-03 1.05097E-23
5.62181E-03 1.00096E-23
5.75306E-03 9.53805E-24
5.88581E-03 9.09313E-24
6.02007E-03 8.67308E-24
6.15583E-03 8.27626E-24
6.29310E-03 7.90116E-24
6.43187E-03 7.54638E-24
6.57214E-03 7.21063E-24
6.71392E-03 6.89271E-24
6.85720E-03 6.59152E-24
7.00198E-03 6.30601E-24
7.14827E-03 6.03523E-24
7.29605E-03 5.77828E-24
7.44534E-03 5.53435E-24
7.59612E-03 5.30265E-24
7.97965E-03 4.77234E-24
8.37255E-03 4.30415E-24
8.77480E-03 3.88968E-24
9.18641E-03 3.52181E-24
9.60736E-03 3.19447E-24
1.00376E-02 2.90253E-24
1.04773E-02 2.64156E-24
1.09262E-02 2.40778E-24
1.13844E-02 2.19792E-24
1.18520E-02 2.00918E-24
1.23288E-02 1.83910E-24
1.28150E-02 1.68556E-24
1.33104E-02 1.54673E-24
1.38150E-02 1.42098E-24
1.43290E-02 1.30690E-24
1.48521E-02 1.20326E-24
1.53845E-02 1.10896E-24
1.59262E-02 1.02304E-24
1.64770E-02 9.44660E-25
1.70371E-02 8.73056E-25
1.76063E-02 8.07565E-25
1.81848E-02 7.47595E-25
1.87724E-02 6.92619E-25
1.93692E-02 6.42164E-25
1.99751E-02 5.95811E-25
2.05901E-02 5.53183E-25
2.12143E-02 5.13942E-25
2.18476E-02 4.77785E-25
2.24900E-02 4.44440E-25
2.31415E-02 4.13662E-25
2.38021E-02 3.85228E-25
2.44717E-02 3.58939E-25
2.51504E-02 3.34615E-25
2.58382E-02 3.12091E-25
2.65349E-02 2.91219E-25
2.72407E-02 2.71865E-25
2.79555E-02 2.53905E-25
2.86793E-02 2.37230E-25
2.94120E-02 2.21736E-25
3.01537E-02 2.07333E-25
3.09043E-02 1.93934E-25
3.16639E-02 1.81464E-25
3.24324E-02 1.69851E-25
3.32098E-02 1.59031E-25
3.39961E-02 1.48945E-25
3.47912E-02 1.39539E-25
3.55952E-02 1.30762E-25
3.64081E-02 1.22568E-25
3.72297E-02 1.14917E-25
3.80602E-02 1.07768E-25
3.88995E-02 1.01086E-25
3.97476E-02 9.48383E-26
4.06044E-02 8.89945E-26
4.14700E-02 8.35265E-26
4.23443E-02 7.84083E-26
4.32273E-02 7.36160E-26
4.41190E-02 6.91275E-26
4.50194E-02 6.49221E-26
4.59284E-02 6.09808E-26
4.68461E-02 5.72862E-26
4.87074E-02 5.05724E-26
5.06030E-02 4.46633E-26
5.25328E-02 3.94579E-26
5.44967E-02 3.48686E-26
5.64946E-02 3.08194E-26
5.85262E-02 2.72444E-26
6.05914E-02 2.40862E-26
6.26901E-02 2.12948E-26
6.48222E-02 1.88265E-26
6.69873E-02 1.66430E-26
6.91854E-02 1.47110E-26
7.14163E-02 1.30009E-26
7.36799E-02 1.14871E-26
7.59760E-02 1.01469E-26
7.83043E-02 8.96016E-27
8.06647E-02 7.90943E-27
8.30571E-02 6.97913E-27
8.54812E-02 6.15554E-27
8.79369E-02 5.42655E-27
9.04240E-02 4.78143E-27
9.29422E-02 4.21068E-27
9.54915E-02 3.70590E-27
9.80716E-02 3.25962E-27
1.00682E-01 2.86525E-27
1.03323E-01 2.51691E-27
1.05995E-01 2.20940E-27
1.08696E-01 1.93810E-27
1.11427E-01 1.69889E-27
1.14188E-01 1.48814E-27
1.16978E-01 1.30259E-27
1.19797E-01 1.13937E-27
1.22645E-01 9.95914E-28
1.25522E-01 8.69948E-28
1.28428E-01 7.59450E-28
1.31361E-01 6.62620E-28
1.34323E-01 5.77863E-28
1.37313E-01 5.03759E-28
1.40330E-01 4.39049E-28
1.43375E-01 3.82613E-28
1.46447E-01 3.33460E-28
1.49545E-01 2.90709E-28
1.52671E-01 2.53579E-28
1.55823E-01 2.21380E-28
1.59001E-01 1.93499E-28
1.62205E-01 1.69395E-28
1.65435E-01 1.48589E-28
1.68690E-01 1.30658E-28
1.71970E-01 1.15230E-28
1.75276E-01 1.01976E-28
1.78606E-01 9.06061E-29
1.81961E-01 8.08665E-29
1.85340E-01 7.25338E-29
1.88743E-01 6.54125E-29
1.92169E-01 5.93310E-29
1.95619E-01 5.41399E-29
1.99092E-01 4.97087E-29
2.02589E-01 4.59238E-29
2.06107E-01 4.26868E-29
2.09649E-01 3.99121E-29
2.13212E-01 3.75262E-29
2.16797E-01 3.54655E-29
2.20404E-01 3.36756E-29
2.24032E-01 3.21098E-29
2.27680E-01 3.07284E-29
2.31350E-01 2.94979E-29
2.35040E-01 2.83897E-29
2.38751E-01 2.73800E-29
2.42481E-01 2.64489E-29
2.46231E-01 2.55800E-29
2.50000E-01 2.47597E-29
2.53788E-01 2.39770E-29
2.57595E-01 2.32233E-29
2.61421E-01 2.24914E-29
2.65264E-01 2.17760E-29
2.69126E-01 2.10731E-29
2.73005E-01 2.03795E-29
2.76901E-01 1.96933E-29
2.80814E-01 1.90131E-29
2.84744E-01 1.83382E-29
2.88691E-01 1.76684E-29
2.92653E-01 1.70038E-29
2.96632E-01 1.63449E-29
3.00625E-01 1.56924E-29
3.04634E-01 1.50470E-29
3.08658E-01 1.44098E-29
3.12697E-01 1.37816E-29
3.16749E-01 1.31636E-29
3.20816E-01 1.25566E-29
3.24896E-01 1.19617E-29
3.28990E-01 1.13798E-29
3.33097E-01 1.08117E-29
3.37216E-01 1.02582E-29
3.41348E-01 9.71996E-30
3.45492E-01 9.19766E-30
3.49647E-01 8.69176E-30
3.53814E-01 8.20269E-30
3.57992E-01 7.73079E-30
3.62181E-01 7.27628E-30
3.66381E-01 6.83934E-30
3.70590E-01 6.42003E-30
3.74810E-01 6.01836E-30
3.79039E-01 5.63425E-30
3.83277E-01 5.26758E-30
3.87524E-01 4.91814E-30
3.91780E-01 4.58568E-30
3.96044E-01 4.26991E-30
4.00316E-01 3.97047E-30
4.04596E-01 3.68698E-30
4.08882E-01 3.41902E-30
4.13176E-01 3.16615E-30
4.17476E-01 2.92791E-30
4.21783E-01 2.70379E-30
4.26095E-01 2.49329E-30
4.30413E-01 2.29591E-30
4.34737E-01 2.11112E-30
4.39065E-01 1.93838E-30
4.43398E-01 1.77717E-30
4.47736E-01 1.62696E-30
4.52077E-01 1.48723E-30
4.56422E-01 1.35745E-30
4.60770E-01 1.23712E-30
4.65122E-01 1.12574E-30
4.69476E-01 1.02281E-30
4.73832E-01 9.27861E-31
4.78190E-01 8.40423E-31
4.82550E-01 7.60049E-31
4.86912E-01 6.86304E-31
4.91274E-01 6.18769E-31
4.95637E-01 5.57040E-31
5.00000E-01 5.00732E-31
5.04363E-01 4.49474E-31
5.08726E-01 4.02914E-31
5.13088E-01 3.60715E-31
5.17450E-01 3.22558E-31
5.21810E-01 2.88138E-31
5.26168E-01 2.57168E-31
5.30524E-01 2.29377E-31
5.34878E-01 2.04508E-31
5.39230E-01 1.82321E-31
5.43578E-01 1.62588E-31
5.47923E-01 1.45098E-31
5.52264E-01 1.29651E-31
5.56602E-01 1.16062E-31
5.60935E-01 1.04158E-31
5.65263E-01 9.37764E-32
5.69587E-01 8.47691E-32
5.73905E-01 7.69968E-32
5.78217E-01 7.03314E-32
5.82524E-01 6.46546E-32
5.86824E-01 5.98571E-32
5.91118E-01 5.58390E-32
5.95404E-01 5.25082E-32
5.99684E-01 4.97809E-32
6.03956E-01 4.75803E-32
6.08220E-01 4.58368E-32
6.12476E-01 4.44868E-32
6.16723E-01 4.34733E-32
6.20961E-01 4.27444E-32
6.25190E-01 4.22537E-32
6.29410E-01 4.19594E-32
6.33619E-01 4.18245E-32
6.37819E-01 4.18159E-32
6.42008E-01 4.19042E-32
6.46186E-01 4.20637E-32
6.50353E-01 4.22719E-32
6.54508E-01 4.25091E-32
6.58652E-01 4.27583E-32
6.62784E-01 4.30050E-32
6.66903E-01 4.32370E-32
6.71010E-01 4.34438E-32
6.75104E-01 4.36170E-32
6.79184E-01 4.37496E-32
6.83251E-01 4.38363E-32
6.87303E-01 4.38728E-32
6.91342E-01 4.38562E-32
6.95366E-01 4.37845E-32
6.99375E-01 4.36564E-32
7.03368E-01 4.34719E-32
7.07347E-01 4.32310E-32
7.11309E-01 4.29349E-32
7.15256E-01 4.25848E-32
7.19186E-01 4.21827E-32
7.23099E-01 4.17307E-32
7.26995E-01 4.12312E-32
7.30874E-01 4.06869E-32
7.34736E-01 4.01008E-32
7.38579E-01 3.94756E-32
7.42405E-01 3.88145E-32
7.46212E-01 3.81207E-32
7.50000E-01 3.73971E-32
7.53769E-01 3.66470E-32
7.57519E-01 3.58733E-32
7.61249E-01 3.50792E-32
7.64960E-01 3.42675E-32
7.68650E-01 3.34411E-32
7.72320E-01 3.26028E-32
7.75968E-01 3.17552E-32
7.79596E-01 3.09009E-32
7.83203E-01 3.00422E-32
7.86788E-01 2.91814E-32
7.90351E-01 2.83207E-32
7.93893E-01 2.74620E-32
7.97411E-01 2.66074E-32
8.00908E-01 2.57584E-32
8.04381E-01 2.49168E-32
8.07831E-01 2.40840E-32
8.11257E-01 2.32613E-32
8.14660E-01 2.24501E-32
8.18039E-01 2.16514E-32
8.21394E-01 2.08663E-32
8.24724E-01 2.00956E-32
8.28030E-01 1.93401E-32
8.31310E-01 1.86006E-32
8.34565E-01 1.78775E-32
8.37795E-01 1.71715E-32
8.40999E-01 1.64829E-32
8.44177E-01 1.58120E-32
8.47329E-01 1.51592E-32
8.50455E-01 1.45246E-32
8.53553E-01 1.39083E-32
8.56625E-01 1.33104E-32
8.59670E-01 1.27309E-32
8.62687E-01 1.21698E-32
8.65677E-01 1.16270E-32
8.68639E-01 1.11023E-32
8.71572E-01 1.05955E-32
8.74478E-01 1.01065E-32
8.77355E-01 9.63494E-33
8.80203E-01 9.18064E-33
8.83022E-01 8.74326E-33
8.85812E-01 8.32248E-33
8.88573E-01 7.91797E-33
8.91304E-01 7.52936E-33
8.94005E-01 7.15629E-33
8.96677E-01 6.79838E-33
8.99318E-01 6.45522E-33
9.01928E-01 6.12642E-33
9.04508E-01 5.81157E-33
9.07058E-01 5.51027E-33
9.09576E-01 5.22210E-33
9.12063E-01 4.94665E-33
9.14519E-01 4.68350E-33
9.16943E-01 4.43225E-33
9.19335E-01 4.19249E-33
9.21696E-01 3.96381E-33
9.24024E-01 3.74582E-33
9.26320E-01 3.53812E-33
9.28584E-01 3.34033E-33
9.30815E-01 3.15207E-33
9.33013E-01 2.97295E-33
9.35178E-01 2.80263E-33
9.37310E-01 2.64075E-33
9.39409E-01 2.48695E-33
9.41474E-01 2.34090E-33
9.43505E-01 2.20226E-33
9.45503E-01 2.07073E-33
9.47467E-01 1.94599E-33
9.49397E-01 1.82774E-33
9.51293E-01 1.71569E-33
9.53154E-01 1.60956E-33
9.54981E-01 1.50908E-33
9.56773E-01 1.41398E-33
9.58530E-01 1.32401E-33
9.60252E-01 1.23893E-33
9.61940E-01 1.15851E-33
9.63592E-01 1.08252E-33
9.65209E-01 1.01074E-33
9.66790E-01 9.42969E-34
9.68336E-01 8.79009E-34
9.69846E-01 8.18668E-34
9.71321E-01 7.61764E-34
9.72759E-01 7.08124E-34
9.74162E-01 6.57581E-34
9.75528E-01 6.09976E-34
9.76858E-01 5.65159E-34
9.78152E-01 5.22984E-34
9.79410E-01 4.83316E-34
9.80631E-01 4.46022E-34
9.81815E-01 4.10979E-34
9.82963E-01 3.78069E-34
9.84074E-01 3.47179E-34
9.85148E-01 3.18205E-34
9.86185E-01 2.91044E-34
9.87185E-01 2.65603E-34
9.88148E-01 2.41790E-34
9.89074E-01 2.19522E-34
9.89962E-01 1.98718E-34
9.90814E-01 1.79303E-34
9.91627E-01 1.61205E-34
9.92404E-01 1.44358E-34
9.93143E-01 1.28700E-34
9.93844E-01 1.14173E-34
9.94508E-01 1.00721E-34
9.95134E-01 8.82934E-35
9.95722E-01 7.68439E-35
9.96273E-01 6.63282E-35
9.96786E-01 5.67060E-35
9.97261E-01 4.79400E-35
9.97698E-01 3.99965E-35
9.98097E-01 3.28443E-35
9.98459E-01 2.64556E-35
9.98782E-01 2.08054E-35
9.99067E-01 1.58713E-35
9.99315E-01 1.16339E-35
9.99524E-01 8.07655E-36
9.99695E-01 5.18501E-36
9.99829E-01 2.94789E-36
9.99924E-01 1.35630E-36
9.99981E-01 4.03884E-37
1.00000E+00 8.66637E-38
