 #
 # Subroutine ELSEPA. Elastic scattering of electrons and positrons
 #                    by neutral atoms and positive ions
 #
 # Projectile: positron
 # Kinetic energy = 4.00000E+06 eV = 1.46997E+05 a.u.
 #
 # WARNING: High-energy factorization with free-atom DF screening.
 #          Absorption, polarization and exchange corrections are
 #          switched off.
 #          Phase shifts are calculated for the bare nucleus.
 #          Scattering amplitudes are not evaluated.
 #
 # Element:  W,  Z =  74,  atomic weight = 1.83840E+02 g/mol
 #
 # Nuclear model: Fermi distribution
 #                Average radius = 6.08411E-13 cm
 #                Skin thickness = 5.46000E-14 cm
 #
 # Number of electrons = 74
 #
 # Total elastic cross section = 7.60841E-18 cm**2 = 2.71701E-01 a0**2
 # 1st transport cross section = 3.18263E-22 cm**2 = 1.13654E-05 a0**2
 # 2nd transport cross section = 9.13225E-22 cm**2 = 3.26118E-05 a0**2
 #
 #
 # Differential cross section:                       MU=(1-COS(THETA))/2
 #
 #  THETA        MU          DCS          DCS        Sherman      error
 #  (deg)                 (cm**2/sr)   (a0**2/sr)    function
 #----------------------------------------------------------------------
0.00000E+00 1.15992E-12
7.61557E-13 1.15991E-12
1.18994E-12 1.15991E-12
1.71346E-12 1.15990E-12
2.33225E-12 1.15990E-12
3.04617E-12 1.15989E-12
3.85530E-12 1.15988E-12
4.75964E-12 1.15988E-12
5.75917E-12 1.15987E-12
6.85391E-12 1.15986E-12
8.04379E-12 1.15985E-12
9.32893E-12 1.15984E-12
1.07092E-11 1.15983E-12
1.21847E-11 1.15982E-12
1.37554E-11 1.15980E-12
1.54213E-11 1.15979E-12
1.71823E-11 1.15977E-12
1.90386E-11 1.15976E-12
2.09900E-11 1.15974E-12
2.30367E-11 1.15973E-12
2.51785E-11 1.15971E-12
2.74156E-11 1.15969E-12
2.97478E-11 1.15967E-12
3.21752E-11 1.15965E-12
3.46979E-11 1.15963E-12
3.73157E-11 1.15961E-12
4.00286E-11 1.15959E-12
4.28368E-11 1.15957E-12
4.57402E-11 1.15955E-12
4.87388E-11 1.15952E-12
5.18325E-11 1.15950E-12
5.50215E-11 1.15947E-12
5.83057E-11 1.15945E-12
6.16850E-11 1.15942E-12
6.51595E-11 1.15939E-12
6.87293E-11 1.15936E-12
7.23943E-11 1.15933E-12
7.61544E-11 1.15930E-12
1.18991E-10 1.15897E-12
1.71347E-10 1.15855E-12
2.33223E-10 1.15807E-12
3.04617E-10 1.15750E-12
3.85531E-10 1.15687E-12
4.75965E-10 1.15616E-12
5.75917E-10 1.15538E-12
6.85389E-10 1.15452E-12
8.04380E-10 1.15359E-12
9.32891E-10 1.15259E-12
1.07092E-09 1.15152E-12
1.21847E-09 1.15037E-12
1.37554E-09 1.14916E-12
1.54213E-09 1.14787E-12
1.71823E-09 1.14651E-12
1.90386E-09 1.14508E-12
2.09900E-09 1.14358E-12
2.30367E-09 1.14202E-12
2.51785E-09 1.14038E-12
2.74156E-09 1.13867E-12
2.97478E-09 1.13690E-12
3.21752E-09 1.13506E-12
3.46978E-09 1.13315E-12
3.73156E-09 1.13118E-12
4.00286E-09 1.12914E-12
4.28368E-09 1.12704E-12
4.57402E-09 1.12487E-12
4.87388E-09 1.12264E-12
5.18326E-09 1.12035E-12
5.50215E-09 1.11799E-12
5.83057E-09 1.11557E-12
6.16850E-09 1.11309E-12
6.51596E-09 1.11055E-12
6.87293E-09 1.10796E-12
7.23942E-09 1.10530E-12
7.61544E-09 1.10259E-12
1.18991E-08 1.07242E-12
1.71347E-08 1.03744E-12
2.33223E-08 9.98487E-13
3.04617E-08 9.56590E-13
3.85531E-08 9.12693E-13
4.75965E-08 8.67670E-13
5.75917E-08 8.22274E-13
6.85389E-08 7.76951E-13
8.04380E-08 7.32509E-13
9.32891E-08 6.89398E-13
1.07092E-07 6.47951E-13
1.21847E-07 6.08403E-13
1.37554E-07 5.70783E-13
1.54213E-07 5.35247E-13
1.71823E-07 5.01893E-13
1.90386E-07 4.70695E-13
2.09900E-07 4.41592E-13
2.30367E-07 4.14480E-13
2.51785E-07 3.89188E-13
2.74156E-07 3.65716E-13
2.97478E-07 3.43947E-13
3.21752E-07 3.23762E-13
3.46978E-07 3.05046E-13
3.73156E-07 2.87632E-13
4.00286E-07 2.71454E-13
4.28368E-07 2.56437E-13
4.57402E-07 2.42486E-13
4.87388E-07 2.29512E-13
5.18325E-07 2.17422E-13
5.50215E-07 2.06117E-13
5.83057E-07 1.95574E-13
6.16850E-07 1.85731E-13
6.51596E-07 1.76529E-13
6.87293E-07 1.67919E-13
7.23942E-07 1.59820E-13
7.61543E-07 1.52218E-13
1.18991E-06 9.63247E-14
1.71347E-06 6.41392E-14
2.33223E-06 4.41737E-14
3.04617E-06 3.14847E-14
3.85531E-06 2.30742E-14
4.75964E-06 1.73070E-14
5.75916E-06 1.32305E-14
6.85388E-06 1.02418E-14
8.04378E-06 8.04711E-15
9.32888E-06 6.40218E-15
1.07092E-05 5.14862E-15
1.21846E-05 4.18010E-15
1.37553E-05 3.41950E-15
1.54212E-05 2.81998E-15
1.71822E-05 2.34491E-15
1.90385E-05 1.96400E-15
2.09899E-05 1.65906E-15
2.30365E-05 1.41079E-15
2.51783E-05 1.20681E-15
2.74153E-05 1.03902E-15
2.97475E-05 8.99457E-16
3.21749E-05 7.82654E-16
3.46974E-05 6.84736E-16
3.73152E-05 6.02077E-16
4.00281E-05 5.31900E-16
4.28362E-05 4.71938E-16
4.57395E-05 4.20364E-16
4.87380E-05 3.75737E-16
5.18317E-05 3.36893E-16
5.50205E-05 3.02897E-16
5.83045E-05 2.73097E-16
6.16838E-05 2.46893E-16
6.51582E-05 2.23779E-16
6.87277E-05 2.03329E-16
7.23925E-05 1.85155E-16
7.61524E-05 1.68975E-16
9.21439E-05 1.19534E-16
1.09658E-04 8.68444E-17
1.28695E-04 6.45215E-17
1.49255E-04 4.89599E-17
1.71338E-04 3.78173E-17
1.94942E-04 2.96669E-17
2.20070E-04 2.35892E-17
2.46720E-04 1.89876E-17
2.74892E-04 1.54558E-17
3.04586E-04 1.27084E-17
3.35803E-04 1.05452E-17
3.68542E-04 8.82267E-18
4.02802E-04 7.43653E-18
4.38585E-04 6.31245E-18
4.75889E-04 5.39308E-18
5.14715E-04 4.63522E-18
5.55063E-04 4.00595E-18
5.96931E-04 3.47958E-18
6.40321E-04 3.03681E-18
6.85233E-04 2.66227E-18
7.31665E-04 2.34371E-18
7.79618E-04 2.07135E-18
8.29092E-04 1.83735E-18
8.80086E-04 1.63532E-18
9.32601E-04 1.46026E-18
9.86636E-04 1.30797E-18
1.04219E-03 1.17498E-18
1.09927E-03 1.05842E-18
1.15786E-03 9.55877E-19
1.21797E-03 8.65409E-19
1.27961E-03 7.85361E-19
1.34276E-03 7.14327E-19
1.40743E-03 6.51117E-19
1.47362E-03 5.94709E-19
1.54133E-03 5.44245E-19
1.61056E-03 4.99001E-19
1.68131E-03 4.58344E-19
1.75357E-03 4.21730E-19
1.82735E-03 3.88683E-19
1.90265E-03 3.58790E-19
1.97947E-03 3.31704E-19
2.05780E-03 3.07117E-19
2.13765E-03 2.84757E-19
2.21902E-03 2.64387E-19
2.30190E-03 2.45797E-19
2.38630E-03 2.28804E-19
2.47222E-03 2.13249E-19
2.55965E-03 1.98989E-19
2.64859E-03 1.85896E-19
2.73905E-03 1.73858E-19
2.83103E-03 1.62773E-19
2.92452E-03 1.52554E-19
3.01952E-03 1.43122E-19
3.11604E-03 1.34405E-19
3.21407E-03 1.26339E-19
3.31362E-03 1.18866E-19
3.41468E-03 1.11934E-19
3.51725E-03 1.05499E-19
3.62133E-03 9.95182E-20
3.72692E-03 9.39534E-20
3.83403E-03 8.87705E-20
3.94265E-03 8.39382E-20
4.05278E-03 7.94290E-20
4.16442E-03 7.52174E-20
4.27757E-03 7.12801E-20
4.39223E-03 6.75960E-20
4.50840E-03 6.41457E-20
4.62608E-03 6.09117E-20
4.74527E-03 5.78781E-20
4.86597E-03 5.50303E-20
4.98817E-03 5.23547E-20
5.11188E-03 4.98389E-20
5.23711E-03 4.74717E-20
5.36383E-03 4.52428E-20
5.49207E-03 4.31425E-20
5.62181E-03 4.11622E-20
5.75306E-03 3.92936E-20
5.88581E-03 3.75293E-20
6.02007E-03 3.58624E-20
6.15583E-03 3.42866E-20
6.29310E-03 3.27960E-20
6.43187E-03 3.13851E-20
6.57214E-03 3.00489E-20
6.71392E-03 2.87826E-20
6.85720E-03 2.75819E-20
7.00198E-03 2.64429E-20
7.14827E-03 2.53618E-20
7.29605E-03 2.43350E-20
7.44534E-03 2.33594E-20
7.59612E-03 2.24319E-20
7.97965E-03 2.03057E-20
8.37255E-03 1.84242E-20
8.77480E-03 1.67545E-20
9.18641E-03 1.52685E-20
9.60736E-03 1.39428E-20
1.00376E-02 1.27570E-20
1.04773E-02 1.16938E-20
1.09262E-02 1.07383E-20
1.13844E-02 9.87789E-21
1.18520E-02 9.10130E-21
1.23288E-02 8.39903E-21
1.28150E-02 7.76274E-21
1.33104E-02 7.18515E-21
1.38150E-02 6.65991E-21
1.43290E-02 6.18141E-21
1.48521E-02 5.74478E-21
1.53845E-02 5.34574E-21
1.59262E-02 4.98048E-21
1.64770E-02 4.64564E-21
1.70371E-02 4.33823E-21
1.76063E-02 4.05561E-21
1.81848E-02 3.79544E-21
1.87724E-02 3.55562E-21
1.93692E-02 3.33429E-21
1.99751E-02 3.12976E-21
2.05901E-02 2.94052E-21
2.12143E-02 2.76524E-21
2.18476E-02 2.60270E-21
2.24900E-02 2.45182E-21
2.31415E-02 2.31162E-21
2.38021E-02 2.18119E-21
2.44717E-02 2.05974E-21
2.51504E-02 1.94654E-21
2.58382E-02 1.84094E-21
2.65349E-02 1.74232E-21
2.72407E-02 1.65016E-21
2.79555E-02 1.56394E-21
2.86793E-02 1.48322E-21
2.94120E-02 1.40759E-21
3.01537E-02 1.33666E-21
3.09043E-02 1.27010E-21
3.16639E-02 1.20758E-21
3.24324E-02 1.14881E-21
3.32098E-02 1.09354E-21
3.39961E-02 1.04152E-21
3.47912E-02 9.92515E-22
3.55952E-02 9.46325E-22
3.64081E-02 9.02759E-22
3.72297E-02 8.61641E-22
3.80602E-02 8.22810E-22
3.88995E-02 7.86115E-22
3.97476E-02 7.51418E-22
4.06044E-02 7.18590E-22
4.14700E-02 6.87513E-22
4.23443E-02 6.58076E-22
4.32273E-02 6.30178E-22
4.41190E-02 6.03724E-22
4.50194E-02 5.78625E-22
4.59284E-02 5.54799E-22
4.68461E-02 5.32171E-22
4.87074E-02 4.90229E-22
5.06030E-02 4.52285E-22
5.25328E-02 4.17894E-22
5.44967E-02 3.86666E-22
5.64946E-02 3.58262E-22
5.85262E-02 3.32383E-22
6.05914E-02 3.08766E-22
6.26901E-02 2.87179E-22
6.48222E-02 2.67419E-22
6.69873E-02 2.49305E-22
6.91854E-02 2.32675E-22
7.14163E-02 2.17388E-22
7.36799E-02 2.03316E-22
7.59760E-02 1.90347E-22
7.83043E-02 1.78378E-22
8.06647E-02 1.67321E-22
8.30571E-02 1.57092E-22
8.54812E-02 1.47621E-22
8.79369E-02 1.38840E-22
9.04240E-02 1.30691E-22
9.29422E-02 1.23121E-22
9.54915E-02 1.16081E-22
9.80716E-02 1.09528E-22
1.00682E-01 1.03422E-22
1.03323E-01 9.77281E-23
1.05995E-01 9.24130E-23
1.08696E-01 8.74474E-23
1.11427E-01 8.28043E-23
1.14188E-01 7.84591E-23
1.16978E-01 7.43894E-23
1.19797E-01 7.05747E-23
1.22645E-01 6.69962E-23
1.25522E-01 6.36370E-23
1.28428E-01 6.04811E-23
1.31361E-01 5.75142E-23
1.34323E-01 5.47229E-23
1.37313E-01 5.20951E-23
1.40330E-01 4.96195E-23
1.43375E-01 4.72859E-23
1.46447E-01 4.50845E-23
1.49545E-01 4.30067E-23
1.52671E-01 4.10444E-23
1.55823E-01 3.91899E-23
1.59001E-01 3.74364E-23
1.62205E-01 3.57773E-23
1.65435E-01 3.42068E-23
1.68690E-01 3.27193E-23
1.71970E-01 3.13096E-23
1.75276E-01 2.99729E-23
1.78606E-01 2.87049E-23
1.81961E-01 2.75013E-23
1.85340E-01 2.63584E-23
1.88743E-01 2.52726E-23
1.92169E-01 2.42404E-23
1.95619E-01 2.32589E-23
1.99092E-01 2.23250E-23
2.02589E-01 2.14362E-23
2.06107E-01 2.05897E-23
2.09649E-01 1.97833E-23
2.13212E-01 1.90148E-23
2.16797E-01 1.82820E-23
2.20404E-01 1.75830E-23
2.24032E-01 1.69160E-23
2.27680E-01 1.62793E-23
2.31350E-01 1.56711E-23
2.35040E-01 1.50902E-23
2.38751E-01 1.45349E-23
2.42481E-01 1.40041E-23
2.46231E-01 1.34964E-23
2.50000E-01 1.30106E-23
2.53788E-01 1.25457E-23
2.57595E-01 1.21005E-23
2.61421E-01 1.16742E-23
2.65264E-01 1.12657E-23
2.69126E-01 1.08742E-23
2.73005E-01 1.04989E-23
2.76901E-01 1.01390E-23
2.80814E-01 9.79373E-24
2.84744E-01 9.46240E-24
2.88691E-01 9.14437E-24
2.92653E-01 8.83899E-24
2.96632E-01 8.54569E-24
3.00625E-01 8.26391E-24
3.04634E-01 7.99311E-24
3.08658E-01 7.73280E-24
3.12697E-01 7.48250E-24
3.16749E-01 7.24176E-24
3.20816E-01 7.01014E-24
3.24896E-01 6.78726E-24
3.28990E-01 6.57272E-24
3.33097E-01 6.36615E-24
3.37216E-01 6.16722E-24
3.41348E-01 5.97558E-24
3.45492E-01 5.79094E-24
3.49647E-01 5.61298E-24
3.53814E-01 5.44143E-24
3.57992E-01 5.27602E-24
3.62181E-01 5.11648E-24
3.66381E-01 4.96259E-24
3.70590E-01 4.81409E-24
3.74810E-01 4.67078E-24
3.79039E-01 4.53244E-24
3.83277E-01 4.39887E-24
3.87524E-01 4.26987E-24
3.91780E-01 4.14527E-24
3.96044E-01 4.02489E-24
4.00316E-01 3.90856E-24
4.04596E-01 3.79613E-24
4.08882E-01 3.68743E-24
4.13176E-01 3.58234E-24
4.17476E-01 3.48070E-24
4.21783E-01 3.38238E-24
4.26095E-01 3.28727E-24
4.30413E-01 3.19523E-24
4.34737E-01 3.10615E-24
4.39065E-01 3.01992E-24
4.43398E-01 2.93644E-24
4.47736E-01 2.85559E-24
4.52077E-01 2.77729E-24
4.56422E-01 2.70144E-24
4.60770E-01 2.62796E-24
4.65122E-01 2.55675E-24
4.69476E-01 2.48774E-24
4.73832E-01 2.42084E-24
4.78190E-01 2.35599E-24
4.82550E-01 2.29310E-24
4.86912E-01 2.23211E-24
4.91274E-01 2.17295E-24
4.95637E-01 2.11555E-24
5.00000E-01 2.05987E-24
5.04363E-01 2.00583E-24
5.08726E-01 1.95339E-24
5.13088E-01 1.90249E-24
5.17450E-01 1.85307E-24
5.21810E-01 1.80508E-24
5.26168E-01 1.75847E-24
5.30524E-01 1.71321E-24
5.34878E-01 1.66924E-24
5.39230E-01 1.62652E-24
5.43578E-01 1.58502E-24
5.47923E-01 1.54469E-24
5.52264E-01 1.50549E-24
5.56602E-01 1.46739E-24
5.60935E-01 1.43035E-24
5.65263E-01 1.39433E-24
5.69587E-01 1.35931E-24
5.73905E-01 1.32525E-24
5.78217E-01 1.29212E-24
5.82524E-01 1.25989E-24
5.86824E-01 1.22854E-24
5.91118E-01 1.19804E-24
5.95404E-01 1.16835E-24
5.99684E-01 1.13946E-24
6.03956E-01 1.11134E-24
6.08220E-01 1.08397E-24
6.12476E-01 1.05732E-24
6.16723E-01 1.03137E-24
6.20961E-01 1.00611E-24
6.25190E-01 9.81503E-25
6.29410E-01 9.57539E-25
6.33619E-01 9.34196E-25
6.37819E-01 9.11456E-25
6.42008E-01 8.89301E-25
6.46186E-01 8.67714E-25
6.50353E-01 8.46678E-25
6.54508E-01 8.26177E-25
6.58652E-01 8.06196E-25
6.62784E-01 7.86720E-25
6.66903E-01 7.67734E-25
6.71010E-01 7.49224E-25
6.75104E-01 7.31177E-25
6.79184E-01 7.13580E-25
6.83251E-01 6.96419E-25
6.87303E-01 6.79682E-25
6.91342E-01 6.63359E-25
6.95366E-01 6.47436E-25
6.99375E-01 6.31903E-25
7.03368E-01 6.16749E-25
7.07347E-01 6.01964E-25
7.11309E-01 5.87538E-25
7.15256E-01 5.73460E-25
7.19186E-01 5.59722E-25
7.23099E-01 5.46314E-25
7.26995E-01 5.33228E-25
7.30874E-01 5.20454E-25
7.34736E-01 5.07984E-25
7.38579E-01 4.95811E-25
7.42405E-01 4.83926E-25
7.46212E-01 4.72322E-25
7.50000E-01 4.60992E-25
7.53769E-01 4.49927E-25
7.57519E-01 4.39123E-25
7.61249E-01 4.28570E-25
7.64960E-01 4.18264E-25
7.68650E-01 4.08198E-25
7.72320E-01 3.98366E-25
7.75968E-01 3.88761E-25
7.79596E-01 3.79379E-25
7.83203E-01 3.70213E-25
7.86788E-01 3.61258E-25
7.90351E-01 3.52508E-25
7.93893E-01 3.43959E-25
7.97411E-01 3.35606E-25
8.00908E-01 3.27444E-25
8.04381E-01 3.19468E-25
8.07831E-01 3.11673E-25
8.11257E-01 3.04056E-25
8.14660E-01 2.96612E-25
8.18039E-01 2.89336E-25
8.21394E-01 2.82225E-25
8.24724E-01 2.75275E-25
8.28030E-01 2.68482E-25
8.31310E-01 2.61843E-25
8.34565E-01 2.55352E-25
8.37795E-01 2.49009E-25
8.40999E-01 2.42807E-25
8.44177E-01 2.36746E-25
8.47329E-01 2.30820E-25
8.50455E-01 2.25028E-25
8.53553E-01 2.19366E-25
8.56625E-01 2.13831E-25
8.59670E-01 2.08421E-25
8.62687E-01 2.03132E-25
8.65677E-01 1.97961E-25
8.68639E-01 1.92907E-25
8.71572E-01 1.87967E-25
8.74478E-01 1.83138E-25
8.77355E-01 1.78417E-25
8.80203E-01 1.73803E-25
8.83022E-01 1.69293E-25
8.85812E-01 1.64885E-25
8.88573E-01 1.60576E-25
8.91304E-01 1.56366E-25
8.94005E-01 1.52250E-25
8.96677E-01 1.48229E-25
8.99318E-01 1.44298E-25
9.01928E-01 1.40458E-25
9.04508E-01 1.36706E-25
9.07058E-01 1.33039E-25
9.09576E-01 1.29457E-25
9.12063E-01 1.25958E-25
9.14519E-01 1.22540E-25
9.16943E-01 1.19202E-25
9.19335E-01 1.15941E-25
9.21696E-01 1.12757E-25
9.24024E-01 1.09648E-25
9.26320E-01 1.06612E-25
9.28584E-01 1.03649E-25
9.30815E-01 1.00757E-25
9.33013E-01 9.79336E-26
9.35178E-01 9.51789E-26
9.37310E-01 9.24912E-26
9.39409E-01 8.98694E-26
9.41474E-01 8.73122E-26
9.43505E-01 8.48186E-26
9.45503E-01 8.23874E-26
9.47467E-01 8.00176E-26
9.49397E-01 7.77081E-26
9.51293E-01 7.54580E-26
9.53154E-01 7.32661E-26
9.54981E-01 7.11317E-26
9.56773E-01 6.90538E-26
9.58530E-01 6.70314E-26
9.60252E-01 6.50638E-26
9.61940E-01 6.31500E-26
9.63592E-01 6.12893E-26
9.65209E-01 5.94809E-26
9.66790E-01 5.77239E-26
9.68336E-01 5.60178E-26
9.69846E-01 5.43616E-26
9.71321E-01 5.27548E-26
9.72759E-01 5.11967E-26
9.74162E-01 4.96866E-26
9.75528E-01 4.82238E-26
9.76858E-01 4.68079E-26
9.78152E-01 4.54382E-26
9.79410E-01 4.41141E-26
9.80631E-01 4.28350E-26
9.81815E-01 4.16006E-26
9.82963E-01 4.04102E-26
9.84074E-01 3.92633E-26
9.85148E-01 3.81596E-26
9.86185E-01 3.70985E-26
9.87185E-01 3.60796E-26
9.88148E-01 3.51025E-26
9.89074E-01 3.41668E-26
9.89962E-01 3.32721E-26
9.90814E-01 3.24181E-26
9.91627E-01 3.16044E-26
9.92404E-01 3.08307E-26
9.93143E-01 3.00967E-26
9.93844E-01 2.94021E-26
9.94508E-01 2.87466E-26
9.95134E-01 2.81299E-26
9.95722E-01 2.75518E-26
9.96273E-01 2.70121E-26
9.96786E-01 2.65105E-26
9.97261E-01 2.60469E-26
9.97698E-01 2.56210E-26
9.98097E-01 2.52328E-26
9.98459E-01 2.48819E-26
9.98782E-01 2.45684E-26
9.99067E-01 2.42921E-26
9.99315E-01 2.40528E-26
9.99524E-01 2.38505E-26
9.99695E-01 2.36851E-26
9.99829E-01 2.35565E-26
9.99924E-01 2.34647E-26
9.99981E-01 2.34096E-26
1.00000E+00 2.33912E-26
