 #
 # Subroutine ELSEPA. Elastic scattering of electrons and positrons
 #                    by neutral atoms and positive ions
 #
 # Projectile: positron
 # Kinetic energy = 4.50000E+06 eV = 1.65372E+05 a.u.
 #
 # WARNING: High-energy factorization with free-atom DF screening.
 #          Absorption, polarization and exchange corrections are
 #          switched off.
 #          Phase shifts are calculated for the bare nucleus.
 #          Scattering amplitudes are not evaluated.
 #
 # Element:  W,  Z =  74,  atomic weight = 1.83840E+02 g/mol
 #
 # Nuclear model: Fermi distribution
 #                Average radius = 6.08411E-13 cm
 #                Skin thickness = 5.46000E-14 cm
 #
 # Number of electrons = 74
 #
 # Total elastic cross section = 7.58672E-18 cm**2 = 2.70927E-01 a0**2
 # 1st transport cross section = 2.62599E-22 cm**2 = 9.37759E-06 a0**2
 # 2nd transport cross section = 7.54432E-22 cm**2 = 2.69413E-05 a0**2
 #
 #
 # Differential cross section:                       MU=(1-COS(THETA))/2
 #
 #  THETA        MU          DCS          DCS        Sherman      error
 #  (deg)                 (cm**2/sr)   (a0**2/sr)    function
 #----------------------------------------------------------------------
0.00000E+00 1.43130E-12
7.61557E-13 1.43129E-12
1.18994E-12 1.43128E-12
1.71346E-12 1.43127E-12
2.33225E-12 1.43127E-12
3.04617E-12 1.43126E-12
3.85530E-12 1.43125E-12
4.75964E-12 1.43124E-12
5.75917E-12 1.43122E-12
6.85391E-12 1.43121E-12
8.04379E-12 1.43120E-12
9.32893E-12 1.43118E-12
1.07092E-11 1.43116E-12
1.21847E-11 1.43114E-12
1.37554E-11 1.43112E-12
1.54213E-11 1.43110E-12
1.71823E-11 1.43108E-12
1.90386E-11 1.43106E-12
2.09900E-11 1.43104E-12
2.30367E-11 1.43101E-12
2.51785E-11 1.43099E-12
2.74156E-11 1.43096E-12
2.97478E-11 1.43093E-12
3.21752E-11 1.43090E-12
3.46979E-11 1.43087E-12
3.73157E-11 1.43084E-12
4.00286E-11 1.43080E-12
4.28368E-11 1.43077E-12
4.57402E-11 1.43074E-12
4.87388E-11 1.43070E-12
5.18325E-11 1.43066E-12
5.50215E-11 1.43062E-12
5.83057E-11 1.43058E-12
6.16850E-11 1.43054E-12
6.51595E-11 1.43050E-12
6.87293E-11 1.43046E-12
7.23943E-11 1.43041E-12
7.61544E-11 1.43037E-12
1.18991E-10 1.42985E-12
1.71347E-10 1.42922E-12
2.33223E-10 1.42848E-12
3.04617E-10 1.42762E-12
3.85531E-10 1.42665E-12
4.75965E-10 1.42557E-12
5.75917E-10 1.42438E-12
6.85389E-10 1.42308E-12
8.04380E-10 1.42167E-12
9.32891E-10 1.42014E-12
1.07092E-09 1.41851E-12
1.21847E-09 1.41677E-12
1.37554E-09 1.41492E-12
1.54213E-09 1.41296E-12
1.71823E-09 1.41090E-12
1.90386E-09 1.40873E-12
2.09900E-09 1.40646E-12
2.30367E-09 1.40408E-12
2.51785E-09 1.40160E-12
2.74156E-09 1.39901E-12
2.97478E-09 1.39633E-12
3.21752E-09 1.39354E-12
3.46978E-09 1.39066E-12
3.73156E-09 1.38767E-12
4.00286E-09 1.38460E-12
4.28368E-09 1.38142E-12
4.57402E-09 1.37815E-12
4.87388E-09 1.37479E-12
5.18326E-09 1.37133E-12
5.50215E-09 1.36779E-12
5.83057E-09 1.36415E-12
6.16850E-09 1.36043E-12
6.51596E-09 1.35662E-12
6.87293E-09 1.35272E-12
7.23942E-09 1.34874E-12
7.61544E-09 1.34468E-12
1.18991E-08 1.29970E-12
1.71347E-08 1.24822E-12
2.33223E-08 1.19176E-12
3.04617E-08 1.13191E-12
3.85531E-08 1.07014E-12
4.75965E-08 1.00778E-12
5.75917E-08 9.45938E-13
6.85389E-08 8.85404E-13
8.04380E-08 8.27037E-13
9.32891E-08 7.71351E-13
1.07092E-07 7.18682E-13
1.21847E-07 6.69220E-13
1.37554E-07 6.23034E-13
1.54213E-07 5.80105E-13
1.71823E-07 5.40343E-13
1.90386E-07 5.03611E-13
2.09900E-07 4.69741E-13
2.30367E-07 4.38541E-13
2.51785E-07 4.09780E-13
2.74156E-07 3.83323E-13
2.97478E-07 3.58979E-13
3.21752E-07 3.36569E-13
3.46978E-07 3.15924E-13
3.73156E-07 2.96886E-13
4.00286E-07 2.79311E-13
4.28368E-07 2.63068E-13
4.57402E-07 2.48034E-13
4.87388E-07 2.34103E-13
5.18325E-07 2.21168E-13
5.50215E-07 2.09128E-13
5.83057E-07 1.97926E-13
6.16850E-07 1.87489E-13
6.51596E-07 1.77752E-13
6.87293E-07 1.68657E-13
7.23942E-07 1.60151E-13
7.61543E-07 1.52186E-13
1.18991E-06 9.33863E-14
1.71347E-06 6.11865E-14
2.33223E-06 4.17067E-14
3.04617E-06 2.93879E-14
3.85531E-06 2.12995E-14
4.75964E-06 1.58051E-14
5.75916E-06 1.19562E-14
6.85388E-06 9.17714E-15
8.04378E-06 7.14502E-15
9.32888E-06 5.63258E-15
1.07092E-05 4.49056E-15
1.21846E-05 3.61769E-15
1.37553E-05 2.94339E-15
1.54212E-05 2.41738E-15
1.71822E-05 2.00325E-15
1.90385E-05 1.67336E-15
2.09899E-05 1.41086E-15
2.30365E-05 1.19881E-15
2.51783E-05 1.02429E-15
2.74153E-05 8.80856E-16
2.97475E-05 7.62204E-16
3.21749E-05 6.63384E-16
3.46974E-05 5.80500E-16
3.73152E-05 5.10475E-16
4.00281E-05 4.50885E-16
4.28362E-05 3.99831E-16
4.57395E-05 3.55825E-16
4.87380E-05 3.17702E-16
5.18317E-05 2.84530E-16
5.50205E-05 2.55555E-16
5.83045E-05 2.30186E-16
6.16838E-05 2.07902E-16
6.51582E-05 1.88263E-16
6.87277E-05 1.70897E-16
7.23925E-05 1.55488E-16
7.61524E-05 1.41771E-16
9.21439E-05 9.98737E-17
1.09658E-04 7.23034E-17
1.28695E-04 5.36207E-17
1.49255E-04 4.05900E-17
1.71338E-04 3.12868E-17
1.94942E-04 2.44999E-17
2.20070E-04 1.94558E-17
2.46720E-04 1.56448E-17
2.74892E-04 1.27220E-17
3.04586E-04 1.04507E-17
3.35803E-04 8.66414E-18
3.68542E-04 7.24330E-18
4.02802E-04 6.10163E-18
4.38585E-04 5.17630E-18
4.75889E-04 4.41989E-18
5.14715E-04 3.79669E-18
5.55063E-04 3.27948E-18
5.96931E-04 2.84734E-18
6.40321E-04 2.48400E-18
6.85233E-04 2.17672E-18
7.31665E-04 1.91542E-18
7.79618E-04 1.69208E-18
8.29092E-04 1.50028E-18
8.80086E-04 1.33478E-18
9.32601E-04 1.19141E-18
9.86636E-04 1.06673E-18
1.04219E-03 9.57877E-19
1.09927E-03 8.62513E-19
1.15786E-03 7.78681E-19
1.21797E-03 7.04751E-19
1.27961E-03 6.39356E-19
1.34276E-03 5.81341E-19
1.40743E-03 5.29734E-19
1.47362E-03 4.83701E-19
1.54133E-03 4.42538E-19
1.61056E-03 4.05644E-19
1.68131E-03 3.72500E-19
1.75357E-03 3.42661E-19
1.82735E-03 3.15738E-19
1.90265E-03 2.91398E-19
1.97947E-03 2.69349E-19
2.05780E-03 2.49339E-19
2.13765E-03 2.31146E-19
2.21902E-03 2.14575E-19
2.30190E-03 1.99458E-19
2.38630E-03 1.85642E-19
2.47222E-03 1.72998E-19
2.55965E-03 1.61409E-19
2.64859E-03 1.50770E-19
2.73905E-03 1.40990E-19
2.83103E-03 1.31988E-19
2.92452E-03 1.23690E-19
3.01952E-03 1.16031E-19
3.11604E-03 1.08954E-19
3.21407E-03 1.02407E-19
3.31362E-03 9.63414E-20
3.41468E-03 9.07169E-20
3.51725E-03 8.54953E-20
3.62133E-03 8.06426E-20
3.72692E-03 7.61280E-20
3.83403E-03 7.19237E-20
3.94265E-03 6.80045E-20
4.05278E-03 6.43476E-20
4.16442E-03 6.09322E-20
4.27757E-03 5.77396E-20
4.39223E-03 5.47523E-20
4.50840E-03 5.19550E-20
4.62608E-03 4.93332E-20
4.74527E-03 4.68740E-20
4.86597E-03 4.45654E-20
4.98817E-03 4.23966E-20
5.11188E-03 4.03576E-20
5.23711E-03 3.84391E-20
5.36383E-03 3.66327E-20
5.49207E-03 3.49307E-20
5.62181E-03 3.33259E-20
5.75306E-03 3.18118E-20
5.88581E-03 3.03822E-20
6.02007E-03 2.90316E-20
6.15583E-03 2.77549E-20
6.29310E-03 2.65472E-20
6.43187E-03 2.54042E-20
6.57214E-03 2.43216E-20
6.71392E-03 2.32959E-20
6.85720E-03 2.23233E-20
7.00198E-03 2.14007E-20
7.14827E-03 2.05250E-20
7.29605E-03 1.96933E-20
7.44534E-03 1.89031E-20
7.59612E-03 1.81520E-20
7.97965E-03 1.64301E-20
8.37255E-03 1.49064E-20
8.77480E-03 1.35544E-20
9.18641E-03 1.23513E-20
9.60736E-03 1.12779E-20
1.00376E-02 1.03179E-20
1.04773E-02 9.45726E-21
1.09262E-02 8.68392E-21
1.13844E-02 7.98750E-21
1.18520E-02 7.35903E-21
1.23288E-02 6.79074E-21
1.28150E-02 6.27587E-21
1.33104E-02 5.80852E-21
1.38150E-02 5.38354E-21
1.43290E-02 4.99643E-21
1.48521E-02 4.64321E-21
1.53845E-02 4.32042E-21
1.59262E-02 4.02497E-21
1.64770E-02 3.75414E-21
1.70371E-02 3.50552E-21
1.76063E-02 3.27697E-21
1.81848E-02 3.06658E-21
1.87724E-02 2.87266E-21
1.93692E-02 2.69369E-21
1.99751E-02 2.52832E-21
2.05901E-02 2.37533E-21
2.12143E-02 2.23363E-21
2.18476E-02 2.10224E-21
2.24900E-02 1.98028E-21
2.31415E-02 1.86694E-21
2.38021E-02 1.76153E-21
2.44717E-02 1.66337E-21
2.51504E-02 1.57189E-21
2.58382E-02 1.48655E-21
2.65349E-02 1.40686E-21
2.72407E-02 1.33239E-21
2.79555E-02 1.26272E-21
2.86793E-02 1.19750E-21
2.94120E-02 1.13639E-21
3.01537E-02 1.07909E-21
3.09043E-02 1.02531E-21
3.16639E-02 9.74810E-22
3.24324E-02 9.27342E-22
3.32098E-02 8.82695E-22
3.39961E-02 8.40673E-22
3.47912E-02 8.01092E-22
3.55952E-02 7.63785E-22
3.64081E-02 7.28600E-22
3.72297E-02 6.95393E-22
3.80602E-02 6.64033E-22
3.88995E-02 6.34400E-22
3.97476E-02 6.06381E-22
4.06044E-02 5.79873E-22
4.14700E-02 5.54779E-22
4.23443E-02 5.31010E-22
4.32273E-02 5.08485E-22
4.41190E-02 4.87125E-22
4.50194E-02 4.66861E-22
4.59284E-02 4.47625E-22
4.68461E-02 4.29357E-22
4.87074E-02 3.95497E-22
5.06030E-02 3.64867E-22
5.25328E-02 3.37107E-22
5.44967E-02 3.11902E-22
5.64946E-02 2.88977E-22
5.85262E-02 2.68090E-22
6.05914E-02 2.49030E-22
6.26901E-02 2.31610E-22
6.48222E-02 2.15664E-22
6.69873E-02 2.01047E-22
6.91854E-02 1.87629E-22
7.14163E-02 1.75294E-22
7.36799E-02 1.63941E-22
7.59760E-02 1.53477E-22
7.83043E-02 1.43822E-22
8.06647E-02 1.34901E-22
8.30571E-02 1.26650E-22
8.54812E-02 1.19009E-22
8.79369E-02 1.11926E-22
9.04240E-02 1.05353E-22
9.29422E-02 9.92472E-23
9.54915E-02 9.35691E-23
9.80716E-02 8.82837E-23
1.00682E-01 8.33594E-23
1.03323E-01 7.87671E-23
1.05995E-01 7.44807E-23
1.08696E-01 7.04762E-23
1.11427E-01 6.67318E-23
1.14188E-01 6.32279E-23
1.16978E-01 5.99462E-23
1.19797E-01 5.68702E-23
1.22645E-01 5.39849E-23
1.25522E-01 5.12762E-23
1.28428E-01 4.87317E-23
1.31361E-01 4.63396E-23
1.34323E-01 4.40891E-23
1.37313E-01 4.19705E-23
1.40330E-01 3.99747E-23
1.43375E-01 3.80933E-23
1.46447E-01 3.63187E-23
1.49545E-01 3.46437E-23
1.52671E-01 3.30619E-23
1.55823E-01 3.15670E-23
1.59001E-01 3.01535E-23
1.62205E-01 2.88162E-23
1.65435E-01 2.75503E-23
1.68690E-01 2.63513E-23
1.71970E-01 2.52150E-23
1.75276E-01 2.41377E-23
1.78606E-01 2.31157E-23
1.81961E-01 2.21457E-23
1.85340E-01 2.12246E-23
1.88743E-01 2.03495E-23
1.92169E-01 1.95177E-23
1.95619E-01 1.87267E-23
1.99092E-01 1.79742E-23
2.02589E-01 1.72579E-23
2.06107E-01 1.65758E-23
2.09649E-01 1.59261E-23
2.13212E-01 1.53068E-23
2.16797E-01 1.47163E-23
2.20404E-01 1.41531E-23
2.24032E-01 1.36157E-23
2.27680E-01 1.31027E-23
2.31350E-01 1.26127E-23
2.35040E-01 1.21446E-23
2.38751E-01 1.16973E-23
2.42481E-01 1.12696E-23
2.46231E-01 1.08606E-23
2.50000E-01 1.04693E-23
2.53788E-01 1.00947E-23
2.57595E-01 9.73614E-24
2.61421E-01 9.39271E-24
2.65264E-01 9.06367E-24
2.69126E-01 8.74834E-24
2.73005E-01 8.44603E-24
2.76901E-01 8.15613E-24
2.80814E-01 7.87803E-24
2.84744E-01 7.61117E-24
2.88691E-01 7.35502E-24
2.92653E-01 7.10907E-24
2.96632E-01 6.87285E-24
3.00625E-01 6.64591E-24
3.04634E-01 6.42783E-24
3.08658E-01 6.21820E-24
3.12697E-01 6.01663E-24
3.16749E-01 5.82276E-24
3.20816E-01 5.63625E-24
3.24896E-01 5.45678E-24
3.28990E-01 5.28402E-24
3.33097E-01 5.11769E-24
3.37216E-01 4.95751E-24
3.41348E-01 4.80321E-24
3.45492E-01 4.65455E-24
3.49647E-01 4.51127E-24
3.53814E-01 4.37315E-24
3.57992E-01 4.23998E-24
3.62181E-01 4.11154E-24
3.66381E-01 3.98765E-24
3.70590E-01 3.86810E-24
3.74810E-01 3.75273E-24
3.79039E-01 3.64137E-24
3.83277E-01 3.53385E-24
3.87524E-01 3.43002E-24
3.91780E-01 3.32972E-24
3.96044E-01 3.23282E-24
4.00316E-01 3.13919E-24
4.04596E-01 3.04869E-24
4.08882E-01 2.96121E-24
4.13176E-01 2.87663E-24
4.17476E-01 2.79483E-24
4.21783E-01 2.71571E-24
4.26095E-01 2.63916E-24
4.30413E-01 2.56508E-24
4.34737E-01 2.49340E-24
4.39065E-01 2.42401E-24
4.43398E-01 2.35684E-24
4.47736E-01 2.29179E-24
4.52077E-01 2.22878E-24
4.56422E-01 2.16775E-24
4.60770E-01 2.10863E-24
4.65122E-01 2.05133E-24
4.69476E-01 1.99581E-24
4.73832E-01 1.94199E-24
4.78190E-01 1.88981E-24
4.82550E-01 1.83921E-24
4.86912E-01 1.79015E-24
4.91274E-01 1.74256E-24
4.95637E-01 1.69639E-24
5.00000E-01 1.65160E-24
5.04363E-01 1.60813E-24
5.08726E-01 1.56595E-24
5.13088E-01 1.52500E-24
5.17450E-01 1.48525E-24
5.21810E-01 1.44665E-24
5.26168E-01 1.40917E-24
5.30524E-01 1.37277E-24
5.34878E-01 1.33741E-24
5.39230E-01 1.30306E-24
5.43578E-01 1.26968E-24
5.47923E-01 1.23725E-24
5.52264E-01 1.20572E-24
5.56602E-01 1.17509E-24
5.60935E-01 1.14530E-24
5.65263E-01 1.11634E-24
5.69587E-01 1.08818E-24
5.73905E-01 1.06080E-24
5.78217E-01 1.03416E-24
5.82524E-01 1.00825E-24
5.86824E-01 9.83048E-25
5.91118E-01 9.58524E-25
5.95404E-01 9.34661E-25
5.99684E-01 9.11437E-25
6.03956E-01 8.88833E-25
6.08220E-01 8.66830E-25
6.12476E-01 8.45409E-25
6.16723E-01 8.24554E-25
6.20961E-01 8.04246E-25
6.25190E-01 7.84470E-25
6.29410E-01 7.65210E-25
6.33619E-01 7.46449E-25
6.37819E-01 7.28174E-25
6.42008E-01 7.10369E-25
6.46186E-01 6.93022E-25
6.50353E-01 6.76117E-25
6.54508E-01 6.59644E-25
6.58652E-01 6.43588E-25
6.62784E-01 6.27939E-25
6.66903E-01 6.12684E-25
6.71010E-01 5.97812E-25
6.75104E-01 5.83313E-25
6.79184E-01 5.69175E-25
6.83251E-01 5.55388E-25
6.87303E-01 5.41942E-25
6.91342E-01 5.28829E-25
6.95366E-01 5.16037E-25
6.99375E-01 5.03560E-25
7.03368E-01 4.91388E-25
7.07347E-01 4.79512E-25
7.11309E-01 4.67925E-25
7.15256E-01 4.56618E-25
7.19186E-01 4.45584E-25
7.23099E-01 4.34816E-25
7.26995E-01 4.24306E-25
7.30874E-01 4.14047E-25
7.34736E-01 4.04033E-25
7.38579E-01 3.94258E-25
7.42405E-01 3.84714E-25
7.46212E-01 3.75396E-25
7.50000E-01 3.66299E-25
7.53769E-01 3.57415E-25
7.57519E-01 3.48739E-25
7.61249E-01 3.40267E-25
7.64960E-01 3.31993E-25
7.68650E-01 3.23912E-25
7.72320E-01 3.16018E-25
7.75968E-01 3.08308E-25
7.79596E-01 3.00776E-25
7.83203E-01 2.93418E-25
7.86788E-01 2.86230E-25
7.90351E-01 2.79207E-25
7.93893E-01 2.72346E-25
7.97411E-01 2.65641E-25
8.00908E-01 2.59090E-25
8.04381E-01 2.52689E-25
8.07831E-01 2.46433E-25
8.11257E-01 2.40320E-25
8.14660E-01 2.34346E-25
8.18039E-01 2.28508E-25
8.21394E-01 2.22802E-25
8.24724E-01 2.17225E-25
8.28030E-01 2.11774E-25
8.31310E-01 2.06447E-25
8.34565E-01 2.01239E-25
8.37795E-01 1.96150E-25
8.40999E-01 1.91174E-25
8.44177E-01 1.86311E-25
8.47329E-01 1.81558E-25
8.50455E-01 1.76911E-25
8.53553E-01 1.72369E-25
8.56625E-01 1.67929E-25
8.59670E-01 1.63589E-25
8.62687E-01 1.59347E-25
8.65677E-01 1.55200E-25
8.68639E-01 1.51146E-25
8.71572E-01 1.47183E-25
8.74478E-01 1.43310E-25
8.77355E-01 1.39524E-25
8.80203E-01 1.35824E-25
8.83022E-01 1.32207E-25
8.85812E-01 1.28672E-25
8.88573E-01 1.25217E-25
8.91304E-01 1.21840E-25
8.94005E-01 1.18541E-25
8.96677E-01 1.15316E-25
8.99318E-01 1.12165E-25
9.01928E-01 1.09085E-25
9.04508E-01 1.06077E-25
9.07058E-01 1.03137E-25
9.09576E-01 1.00266E-25
9.12063E-01 9.74603E-26
9.14519E-01 9.47201E-26
9.16943E-01 9.20437E-26
9.19335E-01 8.94299E-26
9.21696E-01 8.68775E-26
9.24024E-01 8.43852E-26
9.26320E-01 8.19520E-26
9.28584E-01 7.95767E-26
9.30815E-01 7.72582E-26
9.33013E-01 7.49955E-26
9.35178E-01 7.27876E-26
9.37310E-01 7.06335E-26
9.39409E-01 6.85321E-26
9.41474E-01 6.64827E-26
9.43505E-01 6.44843E-26
9.45503E-01 6.25359E-26
9.47467E-01 6.06367E-26
9.49397E-01 5.87860E-26
9.51293E-01 5.69828E-26
9.53154E-01 5.52264E-26
9.54981E-01 5.35161E-26
9.56773E-01 5.18510E-26
9.58530E-01 5.02306E-26
9.60252E-01 4.86539E-26
9.61940E-01 4.71205E-26
9.63592E-01 4.56297E-26
9.65209E-01 4.41807E-26
9.66790E-01 4.27730E-26
9.68336E-01 4.14060E-26
9.69846E-01 4.00791E-26
9.71321E-01 3.87918E-26
9.72759E-01 3.75435E-26
9.74162E-01 3.63337E-26
9.75528E-01 3.51619E-26
9.76858E-01 3.40275E-26
9.78152E-01 3.29302E-26
9.79410E-01 3.18695E-26
9.80631E-01 3.08449E-26
9.81815E-01 2.98560E-26
9.82963E-01 2.89025E-26
9.84074E-01 2.79838E-26
9.85148E-01 2.70996E-26
9.86185E-01 2.62497E-26
9.87185E-01 2.54335E-26
9.88148E-01 2.46509E-26
9.89074E-01 2.39014E-26
9.89962E-01 2.31848E-26
9.90814E-01 2.25007E-26
9.91627E-01 2.18490E-26
9.92404E-01 2.12293E-26
9.93143E-01 2.06414E-26
9.93844E-01 2.00850E-26
9.94508E-01 1.95600E-26
9.95134E-01 1.90661E-26
9.95722E-01 1.86031E-26
9.96273E-01 1.81708E-26
9.96786E-01 1.77691E-26
9.97261E-01 1.73978E-26
9.97698E-01 1.70567E-26
9.98097E-01 1.67457E-26
9.98459E-01 1.64647E-26
9.98782E-01 1.62137E-26
9.99067E-01 1.59923E-26
9.99315E-01 1.58007E-26
9.99524E-01 1.56387E-26
9.99695E-01 1.55062E-26
9.99829E-01 1.54032E-26
9.99924E-01 1.53297E-26
9.99981E-01 1.52856E-26
1.00000E+00 1.52709E-26
