 #
 # Subroutine ELSEPA. Elastic scattering of electrons and positrons
 #                    by neutral atoms and positive ions
 #
 # Projectile: positron
 # Kinetic energy = 7.00000E+06 eV = 2.57245E+05 a.u.
 #
 # WARNING: High-energy factorization with free-atom DF screening.
 #          Absorption, polarization and exchange corrections are
 #          switched off.
 #          Phase shifts are calculated for the bare nucleus.
 #          Scattering amplitudes are not evaluated.
 #
 # Element:  W,  Z =  74,  atomic weight = 1.83840E+02 g/mol
 #
 # Nuclear model: Fermi distribution
 #                Average radius = 6.08411E-13 cm
 #                Skin thickness = 5.46000E-14 cm
 #
 # Number of electrons = 74
 #
 # Total elastic cross section = 7.54872E-18 cm**2 = 2.69570E-01 a0**2
 # 1st transport cross section = 1.25661E-22 cm**2 = 4.48745E-06 a0**2
 # 2nd transport cross section = 3.62496E-22 cm**2 = 1.29450E-05 a0**2
 #
 #
 # Differential cross section:                       MU=(1-COS(THETA))/2
 #
 #  THETA        MU          DCS          DCS        Sherman      error
 #  (deg)                 (cm**2/sr)   (a0**2/sr)    function
 #----------------------------------------------------------------------
0.00000E+00 3.21571E-12
7.61557E-13 3.21566E-12
1.18994E-12 3.21563E-12
1.71346E-12 3.21560E-12
2.33225E-12 3.21556E-12
3.04617E-12 3.21551E-12
3.85530E-12 3.21546E-12
4.75964E-12 3.21541E-12
5.75917E-12 3.21534E-12
6.85391E-12 3.21528E-12
8.04379E-12 3.21520E-12
9.32893E-12 3.21512E-12
1.07092E-11 3.21504E-12
1.21847E-11 3.21495E-12
1.37554E-11 3.21485E-12
1.54213E-11 3.21475E-12
1.71823E-11 3.21464E-12
1.90386E-11 3.21453E-12
2.09900E-11 3.21441E-12
2.30367E-11 3.21428E-12
2.51785E-11 3.21415E-12
2.74156E-11 3.21401E-12
2.97478E-11 3.21387E-12
3.21752E-11 3.21372E-12
3.46979E-11 3.21357E-12
3.73157E-11 3.21341E-12
4.00286E-11 3.21324E-12
4.28368E-11 3.21307E-12
4.57402E-11 3.21289E-12
4.87388E-11 3.21271E-12
5.18325E-11 3.21252E-12
5.50215E-11 3.21232E-12
5.83057E-11 3.21212E-12
6.16850E-11 3.21192E-12
6.51595E-11 3.21171E-12
6.87293E-11 3.21149E-12
7.23943E-11 3.21126E-12
7.61544E-11 3.21104E-12
1.18991E-10 3.20843E-12
1.71347E-10 3.20525E-12
2.33223E-10 3.20150E-12
3.04617E-10 3.19719E-12
3.85531E-10 3.19232E-12
4.75965E-10 3.18688E-12
5.75917E-10 3.18090E-12
6.85389E-10 3.17437E-12
8.04380E-10 3.16730E-12
9.32891E-10 3.15970E-12
1.07092E-09 3.15156E-12
1.21847E-09 3.14291E-12
1.37554E-09 3.13374E-12
1.54213E-09 3.12406E-12
1.71823E-09 3.11389E-12
1.90386E-09 3.10323E-12
2.09900E-09 3.09209E-12
2.30367E-09 3.08048E-12
2.51785E-09 3.06841E-12
2.74156E-09 3.05589E-12
2.97478E-09 3.04293E-12
3.21752E-09 3.02953E-12
3.46978E-09 3.01572E-12
3.73156E-09 3.00150E-12
4.00286E-09 2.98689E-12
4.28368E-09 2.97179E-12
4.57402E-09 2.95631E-12
4.87388E-09 2.94051E-12
5.18326E-09 2.92440E-12
5.50215E-09 2.90799E-12
5.83057E-09 2.89130E-12
6.16850E-09 2.87434E-12
6.51596E-09 2.85700E-12
6.87293E-09 2.83919E-12
7.23942E-09 2.82115E-12
7.61544E-09 2.80290E-12
1.18991E-08 2.60910E-12
1.71347E-08 2.40165E-12
2.33223E-08 2.19098E-12
3.04617E-08 1.98593E-12
3.85531E-08 1.79118E-12
4.75965E-08 1.61108E-12
5.75917E-08 1.44746E-12
6.85389E-08 1.29982E-12
8.04380E-08 1.16852E-12
9.32891E-08 1.05214E-12
1.07092E-07 9.49124E-13
1.21847E-07 8.58388E-13
1.37554E-07 7.78191E-13
1.54213E-07 7.07295E-13
1.71823E-07 6.44635E-13
1.90386E-07 5.88844E-13
2.09900E-07 5.39232E-13
2.30367E-07 4.94982E-13
2.51785E-07 4.55218E-13
2.74156E-07 4.19564E-13
2.97478E-07 3.87424E-13
3.21752E-07 3.58330E-13
3.46978E-07 3.32021E-13
3.73156E-07 3.08076E-13
4.00286E-07 2.86273E-13
4.28368E-07 2.65196E-13
4.57402E-07 2.45939E-13
4.87388E-07 2.28830E-13
5.18325E-07 2.13579E-13
5.50215E-07 1.99941E-13
5.83057E-07 1.87707E-13
6.16850E-07 1.76699E-13
6.51596E-07 1.66016E-13
6.87293E-07 1.55262E-13
7.23942E-07 1.45562E-13
7.61543E-07 1.36789E-13
1.18991E-06 7.80442E-14
1.71347E-06 4.75810E-14
2.33223E-06 3.05623E-14
3.04617E-06 2.04996E-14
3.85531E-06 1.41432E-14
4.75964E-06 1.00258E-14
5.75916E-06 7.28187E-15
6.85388E-06 5.39606E-15
8.04378E-06 4.08368E-15
9.32888E-06 3.14917E-15
1.07092E-05 2.46984E-15
1.21846E-05 1.96578E-15
1.37553E-05 1.58669E-15
1.54212E-05 1.29671E-15
1.71822E-05 1.07131E-15
1.90385E-05 8.92532E-16
2.09899E-05 7.50587E-16
2.30365E-05 6.35771E-16
2.51783E-05 5.41881E-16
2.74153E-05 4.64692E-16
2.97475E-05 4.00733E-16
3.21749E-05 3.47362E-16
3.46974E-05 3.02607E-16
3.73152E-05 2.64806E-16
4.00281E-05 2.32726E-16
4.28362E-05 2.05229E-16
4.57395E-05 1.81740E-16
4.87380E-05 1.61640E-16
5.18317E-05 1.44090E-16
5.50205E-05 1.28871E-16
5.83045E-05 1.15679E-16
6.16838E-05 1.04039E-16
6.51582E-05 9.38531E-17
6.87277E-05 8.49285E-17
7.23925E-05 7.69836E-17
7.61524E-05 6.99677E-17
9.21439E-05 4.87742E-17
1.09658E-04 3.50070E-17
1.28695E-04 2.57791E-17
1.49255E-04 1.93997E-17
1.71338E-04 1.48758E-17
1.94942E-04 1.15984E-17
2.20070E-04 9.17532E-18
2.46720E-04 7.35307E-18
2.74892E-04 5.96174E-18
3.04586E-04 4.88373E-18
3.35803E-04 4.03852E-18
3.68542E-04 3.36829E-18
4.02802E-04 2.83101E-18
4.38585E-04 2.39654E-18
4.75889E-04 2.04208E-18
5.14715E-04 1.75056E-18
5.55063E-04 1.50914E-18
5.96931E-04 1.30779E-18
6.40321E-04 1.13881E-18
6.85233E-04 9.96206E-19
7.31665E-04 8.75145E-19
7.79618E-04 7.71881E-19
8.29092E-04 6.83369E-19
8.80086E-04 6.07141E-19
9.32601E-04 5.41228E-19
9.86636E-04 4.83997E-19
1.04219E-03 4.34111E-19
1.09927E-03 3.90477E-19
1.15786E-03 3.52172E-19
1.21797E-03 3.18441E-19
1.27961E-03 2.88644E-19
1.34276E-03 2.62241E-19
1.40743E-03 2.38783E-19
1.47362E-03 2.17884E-19
1.54133E-03 1.99216E-19
1.61056E-03 1.82500E-19
1.68131E-03 1.67497E-19
1.75357E-03 1.54000E-19
1.82735E-03 1.41832E-19
1.90265E-03 1.30840E-19
1.97947E-03 1.20889E-19
2.05780E-03 1.11864E-19
2.13765E-03 1.03662E-19
2.21902E-03 9.61972E-20
2.30190E-03 8.93901E-20
2.38630E-03 8.31726E-20
2.47222E-03 7.74848E-20
2.55965E-03 7.22734E-20
2.64859E-03 6.74913E-20
2.73905E-03 6.30971E-20
2.83103E-03 5.90534E-20
2.92452E-03 5.53274E-20
3.01952E-03 5.18896E-20
3.11604E-03 4.87137E-20
3.21407E-03 4.57762E-20
3.31362E-03 4.30559E-20
3.41468E-03 4.05340E-20
3.51725E-03 3.81933E-20
3.62133E-03 3.60184E-20
3.72692E-03 3.39954E-20
3.83403E-03 3.21120E-20
3.94265E-03 3.03566E-20
4.05278E-03 2.87189E-20
4.16442E-03 2.71896E-20
4.27757E-03 2.57606E-20
4.39223E-03 2.44235E-20
4.50840E-03 2.31718E-20
4.62608E-03 2.19988E-20
4.74527E-03 2.08988E-20
4.86597E-03 1.98663E-20
4.98817E-03 1.88965E-20
5.11188E-03 1.79848E-20
5.23711E-03 1.71271E-20
5.36383E-03 1.63198E-20
5.49207E-03 1.55591E-20
5.62181E-03 1.48421E-20
5.75306E-03 1.41656E-20
5.88581E-03 1.35271E-20
6.02007E-03 1.29239E-20
6.15583E-03 1.23537E-20
6.29310E-03 1.18145E-20
6.43187E-03 1.13042E-20
6.57214E-03 1.08210E-20
6.71392E-03 1.03632E-20
6.85720E-03 9.92921E-21
7.00198E-03 9.51753E-21
7.14827E-03 9.12688E-21
7.29605E-03 8.75590E-21
7.44534E-03 8.40349E-21
7.59612E-03 8.06850E-21
7.97965E-03 7.30082E-21
8.37255E-03 6.62174E-21
8.77480E-03 6.01933E-21
9.18641E-03 5.48346E-21
9.60736E-03 5.00552E-21
1.00376E-02 4.57821E-21
1.04773E-02 4.19521E-21
1.09262E-02 3.85117E-21
1.13844E-02 3.54144E-21
1.18520E-02 3.26200E-21
1.23288E-02 3.00939E-21
1.28150E-02 2.78059E-21
1.33104E-02 2.57295E-21
1.38150E-02 2.38419E-21
1.43290E-02 2.21229E-21
1.48521E-02 2.05548E-21
1.53845E-02 1.91221E-21
1.59262E-02 1.78111E-21
1.64770E-02 1.66096E-21
1.70371E-02 1.55068E-21
1.76063E-02 1.44933E-21
1.81848E-02 1.35605E-21
1.87724E-02 1.27009E-21
1.93692E-02 1.19078E-21
1.99751E-02 1.11750E-21
2.05901E-02 1.04972E-21
2.12143E-02 9.86954E-22
2.18476E-02 9.28766E-22
2.24900E-02 8.74762E-22
2.31415E-02 8.24590E-22
2.38021E-02 7.77927E-22
2.44717E-02 7.34486E-22
2.51504E-02 6.94004E-22
2.58382E-02 6.56244E-22
2.65349E-02 6.20992E-22
2.72407E-02 5.88050E-22
2.79555E-02 5.57241E-22
2.86793E-02 5.28401E-22
2.94120E-02 5.01383E-22
3.01537E-02 4.76051E-22
3.09043E-02 4.52281E-22
3.16639E-02 4.29960E-22
3.24324E-02 4.08983E-22
3.32098E-02 3.89255E-22
3.39961E-02 3.70689E-22
3.47912E-02 3.53203E-22
3.55952E-02 3.36724E-22
3.64081E-02 3.21183E-22
3.72297E-02 3.06518E-22
3.80602E-02 2.92671E-22
3.88995E-02 2.79586E-22
3.97476E-02 2.67216E-22
4.06044E-02 2.55514E-22
4.14700E-02 2.44437E-22
4.23443E-02 2.33946E-22
4.32273E-02 2.24005E-22
4.41190E-02 2.14579E-22
4.50194E-02 2.05637E-22
4.59284E-02 1.97150E-22
4.68461E-02 1.89091E-22
4.87074E-02 1.74154E-22
5.06030E-02 1.60644E-22
5.25328E-02 1.48402E-22
5.44967E-02 1.37288E-22
5.64946E-02 1.27180E-22
5.85262E-02 1.17973E-22
6.05914E-02 1.09573E-22
6.26901E-02 1.01895E-22
6.48222E-02 9.48689E-23
6.69873E-02 8.84286E-23
6.91854E-02 8.25172E-23
7.14163E-02 7.70838E-23
7.36799E-02 7.20831E-23
7.59760E-02 6.74749E-23
7.83043E-02 6.32230E-23
8.06647E-02 5.92951E-23
8.30571E-02 5.56624E-23
8.54812E-02 5.22988E-23
8.79369E-02 4.91809E-23
9.04240E-02 4.62878E-23
9.29422E-02 4.36005E-23
9.54915E-02 4.11017E-23
9.80716E-02 3.87760E-23
1.00682E-01 3.66093E-23
1.03323E-01 3.45890E-23
1.05995E-01 3.27033E-23
1.08696E-01 3.09418E-23
1.11427E-01 2.92948E-23
1.14188E-01 2.77538E-23
1.16978E-01 2.63106E-23
1.19797E-01 2.49579E-23
1.22645E-01 2.36892E-23
1.25522E-01 2.24984E-23
1.28428E-01 2.13797E-23
1.31361E-01 2.03281E-23
1.34323E-01 1.93389E-23
1.37313E-01 1.84077E-23
1.40330E-01 1.75305E-23
1.43375E-01 1.67037E-23
1.46447E-01 1.59239E-23
1.49545E-01 1.51879E-23
1.52671E-01 1.44928E-23
1.55823E-01 1.38361E-23
1.59001E-01 1.32151E-23
1.62205E-01 1.26277E-23
1.65435E-01 1.20716E-23
1.68690E-01 1.15450E-23
1.71970E-01 1.10460E-23
1.75276E-01 1.05729E-23
1.78606E-01 1.01241E-23
1.81961E-01 9.69818E-24
1.85340E-01 9.29379E-24
1.88743E-01 8.90957E-24
1.92169E-01 8.54441E-24
1.95619E-01 8.19721E-24
1.99092E-01 7.86690E-24
2.02589E-01 7.55252E-24
2.06107E-01 7.25317E-24
2.09649E-01 6.96803E-24
2.13212E-01 6.69629E-24
2.16797E-01 6.43721E-24
2.20404E-01 6.19011E-24
2.24032E-01 5.95433E-24
2.27680E-01 5.72927E-24
2.31350E-01 5.51437E-24
2.35040E-01 5.30907E-24
2.38751E-01 5.11287E-24
2.42481E-01 4.92532E-24
2.46231E-01 4.74595E-24
2.50000E-01 4.57436E-24
2.53788E-01 4.41014E-24
2.57595E-01 4.25292E-24
2.61421E-01 4.10236E-24
2.65264E-01 3.95813E-24
2.69126E-01 3.81991E-24
2.73005E-01 3.68742E-24
2.76901E-01 3.56036E-24
2.80814E-01 3.43849E-24
2.84744E-01 3.32156E-24
2.88691E-01 3.20932E-24
2.92653E-01 3.10157E-24
2.96632E-01 2.99809E-24
3.00625E-01 2.89868E-24
3.04634E-01 2.80315E-24
3.08658E-01 2.71133E-24
3.12697E-01 2.62306E-24
3.16749E-01 2.53816E-24
3.20816E-01 2.45649E-24
3.24896E-01 2.37791E-24
3.28990E-01 2.30227E-24
3.33097E-01 2.22946E-24
3.37216E-01 2.15934E-24
3.41348E-01 2.09180E-24
3.45492E-01 2.02674E-24
3.49647E-01 1.96404E-24
3.53814E-01 1.90360E-24
3.57992E-01 1.84532E-24
3.62181E-01 1.78913E-24
3.66381E-01 1.73493E-24
3.70590E-01 1.68263E-24
3.74810E-01 1.63217E-24
3.79039E-01 1.58346E-24
3.83277E-01 1.53644E-24
3.87524E-01 1.49103E-24
3.91780E-01 1.44718E-24
3.96044E-01 1.40481E-24
4.00316E-01 1.36388E-24
4.04596E-01 1.32432E-24
4.08882E-01 1.28608E-24
4.13176E-01 1.24911E-24
4.17476E-01 1.21336E-24
4.21783E-01 1.17879E-24
4.26095E-01 1.14534E-24
4.30413E-01 1.11298E-24
4.34737E-01 1.08166E-24
4.39065E-01 1.05135E-24
4.43398E-01 1.02201E-24
4.47736E-01 9.93603E-25
4.52077E-01 9.66092E-25
4.56422E-01 9.39445E-25
4.60770E-01 9.13632E-25
4.65122E-01 8.88620E-25
4.69476E-01 8.64375E-25
4.73832E-01 8.40876E-25
4.78190E-01 8.18097E-25
4.82550E-01 7.96012E-25
4.86912E-01 7.74595E-25
4.91274E-01 7.53825E-25
4.95637E-01 7.33679E-25
5.00000E-01 7.14133E-25
5.04363E-01 6.95169E-25
5.08726E-01 6.76765E-25
5.13088E-01 6.58903E-25
5.17450E-01 6.41564E-25
5.21810E-01 6.24731E-25
5.26168E-01 6.08386E-25
5.30524E-01 5.92513E-25
5.34878E-01 5.77096E-25
5.39230E-01 5.62120E-25
5.43578E-01 5.47570E-25
5.47923E-01 5.33433E-25
5.52264E-01 5.19695E-25
5.56602E-01 5.06343E-25
5.60935E-01 4.93365E-25
5.65263E-01 4.80747E-25
5.69587E-01 4.68480E-25
5.73905E-01 4.56551E-25
5.78217E-01 4.44950E-25
5.82524E-01 4.33666E-25
5.86824E-01 4.22690E-25
5.91118E-01 4.12012E-25
5.95404E-01 4.01623E-25
5.99684E-01 3.91513E-25
6.03956E-01 3.81674E-25
6.08220E-01 3.72097E-25
6.12476E-01 3.62775E-25
6.16723E-01 3.53700E-25
6.20961E-01 3.44865E-25
6.25190E-01 3.36261E-25
6.29410E-01 3.27883E-25
6.33619E-01 3.19723E-25
6.37819E-01 3.11775E-25
6.42008E-01 3.04032E-25
6.46186E-01 2.96489E-25
6.50353E-01 2.89140E-25
6.54508E-01 2.81979E-25
6.58652E-01 2.75000E-25
6.62784E-01 2.68198E-25
6.66903E-01 2.61569E-25
6.71010E-01 2.55107E-25
6.75104E-01 2.48807E-25
6.79184E-01 2.42665E-25
6.83251E-01 2.36676E-25
6.87303E-01 2.30837E-25
6.91342E-01 2.25142E-25
6.95366E-01 2.19587E-25
6.99375E-01 2.14170E-25
7.03368E-01 2.08885E-25
7.07347E-01 2.03730E-25
7.11309E-01 1.98701E-25
7.15256E-01 1.93794E-25
7.19186E-01 1.89006E-25
7.23099E-01 1.84333E-25
7.26995E-01 1.79774E-25
7.30874E-01 1.75324E-25
7.34736E-01 1.70980E-25
7.38579E-01 1.66741E-25
7.42405E-01 1.62602E-25
7.46212E-01 1.58562E-25
7.50000E-01 1.54618E-25
7.53769E-01 1.50767E-25
7.57519E-01 1.47006E-25
7.61249E-01 1.43334E-25
7.64960E-01 1.39749E-25
7.68650E-01 1.36247E-25
7.72320E-01 1.32827E-25
7.75968E-01 1.29487E-25
7.79596E-01 1.26225E-25
7.83203E-01 1.23038E-25
7.86788E-01 1.19925E-25
7.90351E-01 1.16884E-25
7.93893E-01 1.13913E-25
7.97411E-01 1.11011E-25
8.00908E-01 1.08175E-25
8.04381E-01 1.05405E-25
8.07831E-01 1.02698E-25
8.11257E-01 1.00053E-25
8.14660E-01 9.74678E-26
8.18039E-01 9.49420E-26
8.21394E-01 9.24738E-26
8.24724E-01 9.00617E-26
8.28030E-01 8.77045E-26
8.31310E-01 8.54007E-26
8.34565E-01 8.31492E-26
8.37795E-01 8.09488E-26
8.40999E-01 7.87981E-26
8.44177E-01 7.66962E-26
8.47329E-01 7.46418E-26
8.50455E-01 7.26338E-26
8.53553E-01 7.06713E-26
8.56625E-01 6.87530E-26
8.59670E-01 6.68782E-26
8.62687E-01 6.50456E-26
8.65677E-01 6.32545E-26
8.68639E-01 6.15039E-26
8.71572E-01 5.97929E-26
8.74478E-01 5.81207E-26
8.77355E-01 5.64862E-26
8.80203E-01 5.48889E-26
8.83022E-01 5.33277E-26
8.85812E-01 5.18021E-26
8.88573E-01 5.03111E-26
8.91304E-01 4.88541E-26
8.94005E-01 4.74304E-26
8.96677E-01 4.60392E-26
8.99318E-01 4.46799E-26
9.01928E-01 4.33518E-26
9.04508E-01 4.20543E-26
9.07058E-01 4.07867E-26
9.09576E-01 3.95485E-26
9.12063E-01 3.83390E-26
9.14519E-01 3.71577E-26
9.16943E-01 3.60040E-26
9.19335E-01 3.48774E-26
9.21696E-01 3.37773E-26
9.24024E-01 3.27033E-26
9.26320E-01 3.16548E-26
9.28584E-01 3.06313E-26
9.30815E-01 2.96325E-26
9.33013E-01 2.86578E-26
9.35178E-01 2.77067E-26
9.37310E-01 2.67789E-26
9.39409E-01 2.58739E-26
9.41474E-01 2.49914E-26
9.43505E-01 2.41308E-26
9.45503E-01 2.32920E-26
9.47467E-01 2.24743E-26
9.49397E-01 2.16776E-26
9.51293E-01 2.09014E-26
9.53154E-01 2.01454E-26
9.54981E-01 1.94093E-26
9.56773E-01 1.86927E-26
9.58530E-01 1.79954E-26
9.60252E-01 1.73170E-26
9.61940E-01 1.66572E-26
9.63592E-01 1.60158E-26
9.65209E-01 1.53924E-26
9.66790E-01 1.47869E-26
9.68336E-01 1.41989E-26
9.69846E-01 1.36282E-26
9.71321E-01 1.30745E-26
9.72759E-01 1.25377E-26
9.74162E-01 1.20174E-26
9.75528E-01 1.15135E-26
9.76858E-01 1.10258E-26
9.78152E-01 1.05540E-26
9.79410E-01 1.00980E-26
9.80631E-01 9.65750E-27
9.81815E-01 9.23239E-27
9.82963E-01 8.82249E-27
9.84074E-01 8.42761E-27
9.85148E-01 8.04759E-27
9.86185E-01 7.68227E-27
9.87185E-01 7.33151E-27
9.88148E-01 6.99516E-27
9.89074E-01 6.67308E-27
9.89962E-01 6.36513E-27
9.90814E-01 6.07120E-27
9.91627E-01 5.79116E-27
9.92404E-01 5.52489E-27
9.93143E-01 5.27229E-27
9.93844E-01 5.03325E-27
9.94508E-01 4.80768E-27
9.95134E-01 4.59548E-27
9.95722E-01 4.39657E-27
9.96273E-01 4.21087E-27
9.96786E-01 4.03830E-27
9.97261E-01 3.87879E-27
9.97698E-01 3.73227E-27
9.98097E-01 3.59870E-27
9.98459E-01 3.47801E-27
9.98782E-01 3.37015E-27
9.99067E-01 3.27509E-27
9.99315E-01 3.19277E-27
9.99524E-01 3.12318E-27
9.99695E-01 3.06628E-27
9.99829E-01 3.02204E-27
9.99924E-01 2.99046E-27
9.99981E-01 2.97152E-27
1.00000E+00 2.96520E-27
