 #
 # Subroutine ELSEPA. Elastic scattering of electrons and positrons
 #                    by neutral atoms and positive ions
 #
 # Projectile: positron
 # Kinetic energy = 2.50000E+06 eV = 9.18733E+04 a.u.
 #
 # WARNING: High-energy factorization with free-atom DF screening.
 #          Absorption, polarization and exchange corrections are
 #          switched off.
 #          Phase shifts are calculated for the bare nucleus.
 #          Scattering amplitudes are not evaluated.
 #
 # Element:  W,  Z =  74,  atomic weight = 1.83840E+02 g/mol
 #
 # Nuclear model: Fermi distribution
 #                Average radius = 6.08411E-13 cm
 #                Skin thickness = 5.46000E-14 cm
 #
 # Number of electrons = 74
 #
 # Total elastic cross section = 7.72761E-18 cm**2 = 2.75958E-01 a0**2
 # 1st transport cross section = 6.72814E-22 cm**2 = 2.40266E-05 a0**2
 # 2nd transport cross section = 1.91934E-21 cm**2 = 6.85408E-05 a0**2
 #
 #
 # Differential cross section:                       MU=(1-COS(THETA))/2
 #
 #  THETA        MU          DCS          DCS        Sherman      error
 #  (deg)                 (cm**2/sr)   (a0**2/sr)    function
 #----------------------------------------------------------------------
0.00000E+00 5.16776E-13
7.61557E-13 5.16775E-13
1.18994E-12 5.16774E-13
1.71346E-12 5.16773E-13
2.33225E-12 5.16772E-13
3.04617E-12 5.16771E-13
3.85530E-12 5.16769E-13
4.75964E-12 5.16768E-13
5.75917E-12 5.16766E-13
6.85391E-12 5.16764E-13
8.04379E-12 5.16762E-13
9.32893E-12 5.16760E-13
1.07092E-11 5.16758E-13
1.21847E-11 5.16755E-13
1.37554E-11 5.16753E-13
1.54213E-11 5.16750E-13
1.71823E-11 5.16747E-13
1.90386E-11 5.16744E-13
2.09900E-11 5.16741E-13
2.30367E-11 5.16738E-13
2.51785E-11 5.16734E-13
2.74156E-11 5.16731E-13
2.97478E-11 5.16727E-13
3.21752E-11 5.16723E-13
3.46979E-11 5.16719E-13
3.73157E-11 5.16715E-13
4.00286E-11 5.16711E-13
4.28368E-11 5.16706E-13
4.57402E-11 5.16702E-13
4.87388E-11 5.16697E-13
5.18325E-11 5.16692E-13
5.50215E-11 5.16687E-13
5.83057E-11 5.16682E-13
6.16850E-11 5.16677E-13
6.51595E-11 5.16671E-13
6.87293E-11 5.16666E-13
7.23943E-11 5.16660E-13
7.61544E-11 5.16654E-13
1.18991E-10 5.16587E-13
1.71347E-10 5.16506E-13
2.33223E-10 5.16410E-13
3.04617E-10 5.16299E-13
3.85531E-10 5.16174E-13
4.75965E-10 5.16035E-13
5.75917E-10 5.15881E-13
6.85389E-10 5.15712E-13
8.04380E-10 5.15529E-13
9.32891E-10 5.15332E-13
1.07092E-09 5.15121E-13
1.21847E-09 5.14895E-13
1.37554E-09 5.14654E-13
1.54213E-09 5.14400E-13
1.71823E-09 5.14131E-13
1.90386E-09 5.13848E-13
2.09900E-09 5.13551E-13
2.30367E-09 5.13240E-13
2.51785E-09 5.12915E-13
2.74156E-09 5.12576E-13
2.97478E-09 5.12222E-13
3.21752E-09 5.11855E-13
3.46978E-09 5.11474E-13
3.73156E-09 5.11079E-13
4.00286E-09 5.10671E-13
4.28368E-09 5.10248E-13
4.57402E-09 5.09812E-13
4.87388E-09 5.09363E-13
5.18326E-09 5.08899E-13
5.50215E-09 5.08423E-13
5.83057E-09 5.07933E-13
6.16850E-09 5.07430E-13
6.51596E-09 5.06913E-13
6.87293E-09 5.06383E-13
7.23942E-09 5.05840E-13
7.61544E-09 5.05284E-13
1.18991E-08 4.99025E-13
1.71347E-08 4.91553E-13
2.33223E-08 4.82967E-13
3.04617E-08 4.73333E-13
3.85531E-08 4.62864E-13
4.75965E-08 4.51572E-13
5.75917E-08 4.39710E-13
6.85389E-08 4.27217E-13
8.04380E-08 4.14435E-13
9.32891E-08 4.01230E-13
1.07092E-07 3.87949E-13
1.21847E-07 3.74494E-13
1.37554E-07 3.61106E-13
1.54213E-07 3.47766E-13
1.71823E-07 3.34593E-13
1.90386E-07 3.21653E-13
2.09900E-07 3.08943E-13
2.30367E-07 2.96608E-13
2.51785E-07 2.84538E-13
2.74156E-07 2.72943E-13
2.97478E-07 2.61625E-13
3.21752E-07 2.50818E-13
3.46978E-07 2.40338E-13
3.73156E-07 2.30345E-13
4.00286E-07 2.20725E-13
4.28368E-07 2.11547E-13
4.57402E-07 2.02765E-13
4.87388E-07 1.94378E-13
5.18325E-07 1.86395E-13
5.50215E-07 1.78758E-13
5.83057E-07 1.71520E-13
6.16850E-07 1.64582E-13
6.51596E-07 1.58029E-13
6.87293E-07 1.51735E-13
7.23942E-07 1.45792E-13
7.61543E-07 1.40101E-13
1.18991E-06 9.63066E-14
1.71347E-06 6.87065E-14
2.33223E-06 5.05187E-14
3.04617E-06 3.75914E-14
3.85531E-06 2.89874E-14
4.75964E-06 2.25086E-14
5.75916E-06 1.79140E-14
6.85388E-06 1.42718E-14
8.04378E-06 1.16271E-14
9.32888E-06 9.47976E-15
1.07092E-05 7.85966E-15
1.21846E-05 6.54003E-15
1.37553E-05 5.50150E-15
1.54212E-05 4.65079E-15
1.71822E-05 3.95836E-15
1.90385E-05 3.38638E-15
2.09899E-05 2.91206E-15
2.30365E-05 2.51915E-15
2.51783E-05 2.18318E-15
2.74153E-05 1.90383E-15
2.97475E-05 1.66175E-15
3.21749E-05 1.45921E-15
3.46974E-05 1.28370E-15
3.73152E-05 1.13494E-15
4.00281E-05 1.00605E-15
4.28362E-05 8.95282E-16
4.57395E-05 7.99051E-16
4.87380E-05 7.15367E-16
5.18317E-05 6.42423E-16
5.50205E-05 5.78417E-16
5.83045E-05 5.22438E-16
6.16838E-05 4.73079E-16
6.51582E-05 4.29742E-16
6.87277E-05 3.90915E-16
7.23925E-05 3.56610E-16
7.61524E-05 3.25997E-16
9.21439E-05 2.32714E-16
1.09658E-04 1.71067E-16
1.28695E-04 1.28684E-16
1.49255E-04 9.86610E-17
1.71338E-04 7.69262E-17
1.94942E-04 6.08681E-17
2.20070E-04 4.87793E-17
2.46720E-04 3.95316E-17
2.74892E-04 3.23400E-17
3.04586E-04 2.67320E-17
3.35803E-04 2.22788E-17
3.68542E-04 1.87228E-17
4.02802E-04 1.58361E-17
4.38585E-04 1.34940E-17
4.75889E-04 1.15590E-17
5.14715E-04 9.96538E-18
5.55063E-04 8.63130E-18
5.96931E-04 7.51615E-18
6.40321E-04 6.57322E-18
6.85233E-04 5.77444E-18
7.31665E-04 5.09279E-18
7.79618E-04 4.50867E-18
8.29092E-04 4.00610E-18
8.80086E-04 3.57112E-18
9.32601E-04 3.19408E-18
9.86636E-04 2.86485E-18
1.04219E-03 2.57753E-18
1.09927E-03 2.32470E-18
1.15786E-03 2.10253E-18
1.21797E-03 1.90594E-18
1.27961E-03 1.73197E-18
1.34276E-03 1.57726E-18
1.40743E-03 1.43948E-18
1.47362E-03 1.31638E-18
1.54133E-03 1.20612E-18
1.61056E-03 1.10719E-18
1.68131E-03 1.01810E-18
1.75357E-03 9.37859E-19
1.82735E-03 8.65253E-19
1.90265E-03 7.99605E-19
1.97947E-03 7.39966E-19
2.05780E-03 6.85824E-19
2.13765E-03 6.36486E-19
2.21902E-03 5.91514E-19
2.30190E-03 5.50415E-19
2.38630E-03 5.12813E-19
2.47222E-03 4.78356E-19
2.55965E-03 4.46723E-19
2.64859E-03 4.17663E-19
2.73905E-03 3.90899E-19
2.83103E-03 3.66253E-19
2.92452E-03 3.43488E-19
3.01952E-03 3.22473E-19
3.11604E-03 3.03017E-19
3.21407E-03 2.85009E-19
3.31362E-03 2.68304E-19
3.41468E-03 2.52803E-19
3.51725E-03 2.38397E-19
3.62133E-03 2.24996E-19
3.72692E-03 2.12520E-19
3.83403E-03 2.00889E-19
3.94265E-03 1.90043E-19
4.05278E-03 1.79909E-19
4.16442E-03 1.70443E-19
4.27757E-03 1.61582E-19
4.39223E-03 1.53291E-19
4.50840E-03 1.45518E-19
4.62608E-03 1.38231E-19
4.74527E-03 1.31390E-19
4.86597E-03 1.24965E-19
4.98817E-03 1.18926E-19
5.11188E-03 1.13245E-19
5.23711E-03 1.07898E-19
5.36383E-03 1.02859E-19
5.49207E-03 9.81114E-20
5.62181E-03 9.36310E-20
5.75306E-03 8.94036E-20
5.88581E-03 8.54088E-20
6.02007E-03 8.16348E-20
6.15583E-03 7.80647E-20
6.29310E-03 7.46872E-20
6.43187E-03 7.14889E-20
6.57214E-03 6.84591E-20
6.71392E-03 6.55872E-20
6.85720E-03 6.28633E-20
7.00198E-03 6.02788E-20
7.14827E-03 5.78245E-20
7.29605E-03 5.54936E-20
7.44534E-03 5.32778E-20
7.59612E-03 5.11713E-20
7.97965E-03 4.63397E-20
8.37255E-03 4.20621E-20
8.77480E-03 3.82642E-20
9.18641E-03 3.48828E-20
9.60736E-03 3.18648E-20
1.00376E-02 2.91643E-20
1.04773E-02 2.67420E-20
1.09262E-02 2.45647E-20
1.13844E-02 2.26032E-20
1.18520E-02 2.08323E-20
1.23288E-02 1.92304E-20
1.28150E-02 1.77786E-20
1.33104E-02 1.64603E-20
1.38150E-02 1.52611E-20
1.43290E-02 1.41685E-20
1.48521E-02 1.31711E-20
1.53845E-02 1.22594E-20
1.59262E-02 1.14247E-20
1.64770E-02 1.06592E-20
1.70371E-02 9.95639E-21
1.76063E-02 9.31004E-21
1.81848E-02 8.71490E-21
1.87724E-02 8.16619E-21
1.93692E-02 7.65962E-21
1.99751E-02 7.19141E-21
2.05901E-02 6.75814E-21
2.12143E-02 6.35672E-21
2.18476E-02 5.98441E-21
2.24900E-02 5.63873E-21
2.31415E-02 5.31742E-21
2.38021E-02 5.01846E-21
2.44717E-02 4.74003E-21
2.51504E-02 4.48045E-21
2.58382E-02 4.23824E-21
2.65349E-02 4.01199E-21
2.72407E-02 3.80054E-21
2.79555E-02 3.60265E-21
2.86793E-02 3.41738E-21
2.94120E-02 3.24372E-21
3.01537E-02 3.08086E-21
3.09043E-02 2.92797E-21
3.16639E-02 2.78435E-21
3.24324E-02 2.64934E-21
3.32098E-02 2.52232E-21
3.39961E-02 2.40274E-21
3.47912E-02 2.29008E-21
3.55952E-02 2.18388E-21
3.64081E-02 2.08369E-21
3.72297E-02 1.98912E-21
3.80602E-02 1.89978E-21
3.88995E-02 1.81535E-21
3.97476E-02 1.73550E-21
4.06044E-02 1.65994E-21
4.14700E-02 1.58839E-21
4.23443E-02 1.52062E-21
4.32273E-02 1.45637E-21
4.41190E-02 1.39544E-21
4.50194E-02 1.33763E-21
4.59284E-02 1.28274E-21
4.68461E-02 1.23060E-21
4.87074E-02 1.13393E-21
5.06030E-02 1.04645E-21
5.25328E-02 9.67141E-22
5.44967E-02 8.95108E-22
5.64946E-02 8.29568E-22
5.85262E-02 7.69839E-22
6.05914E-02 7.15316E-22
6.26901E-02 6.65469E-22
6.48222E-02 6.19828E-22
6.69873E-02 5.77978E-22
6.91854E-02 5.39550E-22
7.14163E-02 5.04216E-22
7.36799E-02 4.71684E-22
7.59760E-02 4.41694E-22
7.83043E-02 4.14012E-22
8.06647E-02 3.88432E-22
8.30571E-02 3.64766E-22
8.54812E-02 3.42845E-22
8.79369E-02 3.22520E-22
9.04240E-02 3.03653E-22
9.29422E-02 2.86123E-22
9.54915E-02 2.69818E-22
9.80716E-02 2.54638E-22
1.00682E-01 2.40491E-22
1.03323E-01 2.27296E-22
1.05995E-01 2.14977E-22
1.08696E-01 2.03466E-22
1.11427E-01 1.92700E-22
1.14188E-01 1.82624E-22
1.16978E-01 1.73185E-22
1.19797E-01 1.64337E-22
1.22645E-01 1.56035E-22
1.25522E-01 1.48240E-22
1.28428E-01 1.40916E-22
1.31361E-01 1.34029E-22
1.34323E-01 1.27549E-22
1.37313E-01 1.21448E-22
1.40330E-01 1.15699E-22
1.43375E-01 1.10279E-22
1.46447E-01 1.05166E-22
1.49545E-01 1.00339E-22
1.52671E-01 9.57791E-23
1.55823E-01 9.14696E-23
1.59001E-01 8.73941E-23
1.62205E-01 8.35376E-23
1.65435E-01 7.98865E-23
1.68690E-01 7.64277E-23
1.71970E-01 7.31495E-23
1.75276E-01 7.00408E-23
1.78606E-01 6.70913E-23
1.81961E-01 6.42913E-23
1.85340E-01 6.16322E-23
1.88743E-01 5.91054E-23
1.92169E-01 5.67033E-23
1.95619E-01 5.44187E-23
1.99092E-01 5.22448E-23
2.02589E-01 5.01753E-23
2.06107E-01 4.82044E-23
2.09649E-01 4.63265E-23
2.13212E-01 4.45364E-23
2.16797E-01 4.28294E-23
2.20404E-01 4.12010E-23
2.24032E-01 3.96468E-23
2.27680E-01 3.81630E-23
2.31350E-01 3.67458E-23
2.35040E-01 3.53916E-23
2.38751E-01 3.40972E-23
2.42481E-01 3.28596E-23
2.46231E-01 3.16757E-23
2.50000E-01 3.05428E-23
2.53788E-01 2.94584E-23
2.57595E-01 2.84200E-23
2.61421E-01 2.74254E-23
2.65264E-01 2.64723E-23
2.69126E-01 2.55588E-23
2.73005E-01 2.46829E-23
2.76901E-01 2.38428E-23
2.80814E-01 2.30368E-23
2.84744E-01 2.22632E-23
2.88691E-01 2.15206E-23
2.92653E-01 2.08075E-23
2.96632E-01 2.01224E-23
3.00625E-01 1.94642E-23
3.04634E-01 1.88316E-23
3.08658E-01 1.82233E-23
3.12697E-01 1.76384E-23
3.16749E-01 1.70758E-23
3.20816E-01 1.65344E-23
3.24896E-01 1.60134E-23
3.28990E-01 1.55118E-23
3.33097E-01 1.50287E-23
3.37216E-01 1.45635E-23
3.41348E-01 1.41153E-23
3.45492E-01 1.36834E-23
3.49647E-01 1.32670E-23
3.53814E-01 1.28656E-23
3.57992E-01 1.24786E-23
3.62181E-01 1.21052E-23
3.66381E-01 1.17449E-23
3.70590E-01 1.13973E-23
3.74810E-01 1.10618E-23
3.79039E-01 1.07378E-23
3.83277E-01 1.04250E-23
3.87524E-01 1.01228E-23
3.91780E-01 9.83094E-24
3.96044E-01 9.54890E-24
4.00316E-01 9.27631E-24
4.04596E-01 9.01281E-24
4.08882E-01 8.75804E-24
4.13176E-01 8.51167E-24
4.17476E-01 8.27338E-24
4.21783E-01 8.04284E-24
4.26095E-01 7.81978E-24
4.30413E-01 7.60390E-24
4.34737E-01 7.39494E-24
4.39065E-01 7.19263E-24
4.43398E-01 6.99674E-24
4.47736E-01 6.80702E-24
4.52077E-01 6.62324E-24
4.56422E-01 6.44519E-24
4.60770E-01 6.27266E-24
4.65122E-01 6.10546E-24
4.69476E-01 5.94338E-24
4.73832E-01 5.78625E-24
4.78190E-01 5.63389E-24
4.82550E-01 5.48613E-24
4.86912E-01 5.34282E-24
4.91274E-01 5.20378E-24
4.95637E-01 5.06889E-24
5.00000E-01 4.93798E-24
5.04363E-01 4.81094E-24
5.08726E-01 4.68761E-24
5.13088E-01 4.56788E-24
5.17450E-01 4.45163E-24
5.21810E-01 4.33873E-24
5.26168E-01 4.22908E-24
5.30524E-01 4.12257E-24
5.34878E-01 4.01908E-24
5.39230E-01 3.91853E-24
5.43578E-01 3.82082E-24
5.47923E-01 3.72585E-24
5.52264E-01 3.63353E-24
5.56602E-01 3.54378E-24
5.60935E-01 3.45651E-24
5.65263E-01 3.37166E-24
5.69587E-01 3.28913E-24
5.73905E-01 3.20885E-24
5.78217E-01 3.13076E-24
5.82524E-01 3.05479E-24
5.86824E-01 2.98086E-24
5.91118E-01 2.90892E-24
5.95404E-01 2.83890E-24
5.99684E-01 2.77075E-24
6.03956E-01 2.70440E-24
6.08220E-01 2.63980E-24
6.12476E-01 2.57691E-24
6.16723E-01 2.51566E-24
6.20961E-01 2.45601E-24
6.25190E-01 2.39791E-24
6.29410E-01 2.34131E-24
6.33619E-01 2.28617E-24
6.37819E-01 2.23245E-24
6.42008E-01 2.18010E-24
6.46186E-01 2.12908E-24
6.50353E-01 2.07936E-24
6.54508E-01 2.03089E-24
6.58652E-01 1.98365E-24
6.62784E-01 1.93760E-24
6.66903E-01 1.89269E-24
6.71010E-01 1.84890E-24
6.75104E-01 1.80620E-24
6.79184E-01 1.76456E-24
6.83251E-01 1.72395E-24
6.87303E-01 1.68433E-24
6.91342E-01 1.64568E-24
6.95366E-01 1.60798E-24
6.99375E-01 1.57119E-24
7.03368E-01 1.53530E-24
7.07347E-01 1.50027E-24
7.11309E-01 1.46609E-24
7.15256E-01 1.43272E-24
7.19186E-01 1.40016E-24
7.23099E-01 1.36837E-24
7.26995E-01 1.33734E-24
7.30874E-01 1.30705E-24
7.34736E-01 1.27747E-24
7.38579E-01 1.24860E-24
7.42405E-01 1.22040E-24
7.46212E-01 1.19286E-24
7.50000E-01 1.16596E-24
7.53769E-01 1.13970E-24
7.57519E-01 1.11405E-24
7.61249E-01 1.08899E-24
7.64960E-01 1.06451E-24
7.68650E-01 1.04060E-24
7.72320E-01 1.01724E-24
7.75968E-01 9.94412E-25
7.79596E-01 9.72113E-25
7.83203E-01 9.50324E-25
7.86788E-01 9.29033E-25
7.90351E-01 9.08228E-25
7.93893E-01 8.87896E-25
7.97411E-01 8.68026E-25
8.00908E-01 8.48607E-25
8.04381E-01 8.29628E-25
8.07831E-01 8.11078E-25
8.11257E-01 7.92946E-25
8.14660E-01 7.75224E-25
8.18039E-01 7.57900E-25
8.21394E-01 7.40965E-25
8.24724E-01 7.24411E-25
8.28030E-01 7.08228E-25
8.31310E-01 6.92407E-25
8.34565E-01 6.76940E-25
8.37795E-01 6.61820E-25
8.40999E-01 6.47037E-25
8.44177E-01 6.32585E-25
8.47329E-01 6.18455E-25
8.50455E-01 6.04640E-25
8.53553E-01 5.91134E-25
8.56625E-01 5.77929E-25
8.59670E-01 5.65018E-25
8.62687E-01 5.52395E-25
8.65677E-01 5.40054E-25
8.68639E-01 5.27989E-25
8.71572E-01 5.16192E-25
8.74478E-01 5.04660E-25
8.77355E-01 4.93385E-25
8.80203E-01 4.82363E-25
8.83022E-01 4.71587E-25
8.85812E-01 4.61054E-25
8.88573E-01 4.50757E-25
8.91304E-01 4.40692E-25
8.94005E-01 4.30854E-25
8.96677E-01 4.21237E-25
8.99318E-01 4.11839E-25
9.01928E-01 4.02654E-25
9.04508E-01 3.93678E-25
9.07058E-01 3.84907E-25
9.09576E-01 3.76336E-25
9.12063E-01 3.67962E-25
9.14519E-01 3.59781E-25
9.16943E-01 3.51790E-25
9.19335E-01 3.43983E-25
9.21696E-01 3.36359E-25
9.24024E-01 3.28913E-25
9.26320E-01 3.21643E-25
9.28584E-01 3.14544E-25
9.30815E-01 3.07614E-25
9.33013E-01 3.00850E-25
9.35178E-01 2.94249E-25
9.37310E-01 2.87808E-25
9.39409E-01 2.81523E-25
9.41474E-01 2.75393E-25
9.43505E-01 2.69414E-25
9.45503E-01 2.63584E-25
9.47467E-01 2.57901E-25
9.49397E-01 2.52362E-25
9.51293E-01 2.46964E-25
9.53154E-01 2.41706E-25
9.54981E-01 2.36585E-25
9.56773E-01 2.31599E-25
9.58530E-01 2.26745E-25
9.60252E-01 2.22023E-25
9.61940E-01 2.17429E-25
9.63592E-01 2.12962E-25
9.65209E-01 2.08620E-25
9.66790E-01 2.04402E-25
9.68336E-01 2.00305E-25
9.69846E-01 1.96327E-25
9.71321E-01 1.92468E-25
9.72759E-01 1.88725E-25
9.74162E-01 1.85098E-25
9.75528E-01 1.81584E-25
9.76858E-01 1.78182E-25
9.78152E-01 1.74890E-25
9.79410E-01 1.71708E-25
9.80631E-01 1.68635E-25
9.81815E-01 1.65668E-25
9.82963E-01 1.62806E-25
9.84074E-01 1.60049E-25
9.85148E-01 1.57396E-25
9.86185E-01 1.54845E-25
9.87185E-01 1.52395E-25
9.88148E-01 1.50046E-25
9.89074E-01 1.47796E-25
9.89962E-01 1.45644E-25
9.90814E-01 1.43591E-25
9.91627E-01 1.41634E-25
9.92404E-01 1.39773E-25
9.93143E-01 1.38007E-25
9.93844E-01 1.36336E-25
9.94508E-01 1.34760E-25
9.95134E-01 1.33276E-25
9.95722E-01 1.31885E-25
9.96273E-01 1.30587E-25
9.96786E-01 1.29380E-25
9.97261E-01 1.28265E-25
9.97698E-01 1.27240E-25
9.98097E-01 1.26306E-25
9.98459E-01 1.25462E-25
9.98782E-01 1.24707E-25
9.99067E-01 1.24042E-25
9.99315E-01 1.23467E-25
9.99524E-01 1.22980E-25
9.99695E-01 1.22582E-25
9.99829E-01 1.22272E-25
9.99924E-01 1.22051E-25
9.99981E-01 1.21919E-25
1.00000E+00 1.21875E-25
