 #
 # Subroutine ELSEPA. Elastic scattering of electrons and positrons
 #                    by neutral atoms and positive ions
 #
 # Projectile: positron
 # Kinetic energy = 3.00000E+08 eV = 1.10248E+07 a.u.
 #
 # WARNING: High-energy factorization with free-atom DF screening.
 #          Absorption, polarization and exchange corrections are
 #          switched off.
 #          Phase shifts are calculated for the bare nucleus.
 #          Scattering amplitudes are not evaluated.
 #
 # Element:  W,  Z =  74,  atomic weight = 1.83840E+02 g/mol
 #
 # Nuclear model: Fermi distribution
 #                Average radius = 6.08411E-13 cm
 #                Skin thickness = 5.46000E-14 cm
 #
 # Number of electrons = 74
 #
 # Total elastic cross section = 7.52169E-18 cm**2 = 2.68604E-01 a0**2
 # 1st transport cross section = 1.13760E-25 cm**2 = 4.06243E-09 a0**2
 # 2nd transport cross section = 3.40900E-25 cm**2 = 1.21738E-08 a0**2
 #
 #
 # Differential cross section:                       MU=(1-COS(THETA))/2
 #
 #  THETA        MU          DCS          DCS        Sherman      error
 #  (deg)                 (cm**2/sr)   (a0**2/sr)    function
 #----------------------------------------------------------------------
0.00000E+00 5.14757E-09
7.61557E-13 5.03059E-09
1.18994E-12 4.96680E-09
1.71346E-12 4.89069E-09
2.33225E-12 4.80326E-09
3.04617E-12 4.70522E-09
3.85530E-12 4.59890E-09
4.75964E-12 4.48408E-09
5.75917E-12 4.36377E-09
6.85391E-12 4.23708E-09
8.04379E-12 4.10739E-09
9.32893E-12 3.97413E-09
1.07092E-11 3.83965E-09
1.21847E-11 3.70427E-09
1.37554E-11 3.56900E-09
1.54213E-11 3.43517E-09
1.71823E-11 3.30240E-09
1.90386E-11 3.17295E-09
2.09900E-11 3.04515E-09
2.30367E-11 2.92184E-09
2.51785E-11 2.80103E-09
2.74156E-11 2.68495E-09
2.97478E-11 2.57240E-09
3.21752E-11 2.46435E-09
3.46979E-11 2.36050E-09
3.73157E-11 2.26080E-09
4.00286E-11 2.16569E-09
4.28368E-11 2.07430E-09
4.57402E-11 1.98767E-09
4.87388E-11 1.90430E-09
5.18325E-11 1.82549E-09
5.50215E-11 1.74991E-09
5.83057E-11 1.67833E-09
6.16850E-11 1.61002E-09
6.51595E-11 1.54512E-09
6.87293E-11 1.48343E-09
7.23943E-11 1.42463E-09
7.61544E-11 1.36893E-09
1.18991E-10 9.38627E-10
1.71347E-10 6.68615E-10
2.33223E-10 4.90779E-10
3.04617E-10 3.64404E-10
3.85531E-10 2.81500E-10
4.75965E-10 2.17761E-10
5.75917E-10 1.73349E-10
6.85389E-10 1.37874E-10
8.04380E-10 1.12055E-10
9.32891E-10 9.14834E-11
1.07092E-09 7.56895E-11
1.21847E-09 6.30580E-11
1.37554E-09 5.29412E-11
1.54213E-09 4.48036E-11
1.71823E-09 3.80624E-11
1.90386E-09 3.26120E-11
2.09900E-09 2.79767E-11
2.30367E-09 2.41944E-11
2.51785E-09 2.09478E-11
2.74156E-09 1.82522E-11
2.97478E-09 1.59426E-11
3.21752E-09 1.39889E-11
3.46978E-09 1.23159E-11
3.73156E-09 1.08800E-11
4.00286E-09 9.64876E-12
4.28368E-09 8.57976E-12
4.57402E-09 7.66039E-12
4.87388E-09 6.85465E-12
5.18326E-09 6.15723E-12
5.50215E-09 5.54384E-12
5.83057E-09 5.00833E-12
6.16850E-09 4.53682E-12
6.51596E-09 4.11968E-12
6.87293E-09 3.74902E-12
7.23942E-09 3.41985E-12
7.61544E-09 3.12742E-12
1.18991E-08 1.42159E-12
1.71347E-08 7.39837E-13
2.33223E-08 4.22148E-13
3.04617E-08 2.57741E-13
3.85531E-08 1.66015E-13
4.75965E-08 1.11717E-13
5.75917E-08 7.79223E-14
6.85389E-08 5.59693E-14
8.04380E-08 4.12427E-14
9.32891E-08 3.10573E-14
1.07092E-07 2.38312E-14
1.21847E-07 1.85939E-14
1.37554E-07 1.47190E-14
1.54213E-07 1.18040E-14
1.71823E-07 9.57715E-15
1.90386E-07 7.85063E-15
2.09900E-07 6.49649E-15
2.30367E-07 5.42195E-15
2.51785E-07 4.56025E-15
2.74156E-07 3.86309E-15
2.97478E-07 3.29393E-15
3.21752E-07 2.82566E-15
3.46978E-07 2.43767E-15
3.73156E-07 2.11384E-15
4.00286E-07 1.84200E-15
4.28368E-07 1.61244E-15
4.57402E-07 1.41747E-15
4.87388E-07 1.25108E-15
5.18325E-07 1.10837E-15
5.50215E-07 9.85420E-16
5.83057E-07 8.79048E-16
6.16850E-07 7.86630E-16
6.51596E-07 7.06041E-16
6.87293E-07 6.35511E-16
7.23942E-07 5.73564E-16
7.61543E-07 5.18985E-16
1.18991E-06 2.14707E-16
1.71347E-06 1.04251E-16
2.33223E-06 5.65505E-17
3.04617E-06 3.32702E-17
3.85531E-06 2.08275E-17
4.75964E-06 1.36935E-17
5.75916E-06 9.36780E-18
6.85388E-06 6.62248E-18
8.04378E-06 4.81271E-18
9.32888E-06 3.58077E-18
1.07092E-05 2.71880E-18
1.21846E-05 2.10117E-18
1.37553E-05 1.64930E-18
1.54212E-05 1.31257E-18
1.71822E-05 1.05752E-18
1.90385E-05 8.61020E-19
2.09899E-05 7.08899E-19
2.30365E-05 5.88822E-19
2.51783E-05 4.92975E-19
2.74153E-05 4.15742E-19
2.97475E-05 3.52998E-19
3.21749E-05 3.01647E-19
3.46974E-05 2.59323E-19
3.73152E-05 2.24196E-19
4.00281E-05 1.94841E-19
4.28362E-05 1.70145E-19
4.57395E-05 1.49237E-19
4.87380E-05 1.31435E-19
5.18317E-05 1.16200E-19
5.50205E-05 1.03102E-19
5.83045E-05 9.17951E-20
6.16838E-05 8.19965E-20
6.51582E-05 7.34728E-20
6.87277E-05 6.60305E-20
7.23925E-05 5.95083E-20
7.61524E-05 5.40059E-20
9.21439E-05 3.68950E-20
1.09658E-04 2.60539E-20
1.28695E-04 1.89194E-20
1.49255E-04 1.40671E-20
1.71338E-04 1.06755E-20
1.94942E-04 8.24664E-21
2.20070E-04 6.47059E-21
2.46720E-04 5.14766E-21
2.74892E-04 4.14590E-21
3.04586E-04 3.37607E-21
3.35803E-04 2.77650E-21
3.68542E-04 2.30404E-21
4.02802E-04 1.92769E-21
4.38585E-04 1.62491E-21
4.75889E-04 1.37910E-21
5.14715E-04 1.17788E-21
5.55063E-04 1.01189E-21
5.96931E-04 8.73979E-22
6.40321E-04 7.58645E-22
6.85233E-04 6.61596E-22
7.31665E-04 5.79467E-22
7.79618E-04 5.09591E-22
8.29092E-04 4.49843E-22
8.80086E-04 3.98514E-22
9.32601E-04 3.54222E-22
9.86636E-04 3.15845E-22
1.04219E-03 2.82461E-22
1.09927E-03 2.53313E-22
1.15786E-03 2.27775E-22
1.21797E-03 2.05325E-22
1.27961E-03 1.85527E-22
1.34276E-03 1.68017E-22
1.40743E-03 1.52485E-22
1.47362E-03 1.38670E-22
1.54133E-03 1.26352E-22
1.61056E-03 1.15341E-22
1.68131E-03 1.05475E-22
1.75357E-03 9.66152E-23
1.82735E-03 8.86418E-23
1.90265E-03 8.14517E-23
1.97947E-03 7.49548E-23
2.05780E-03 6.90733E-23
2.13765E-03 6.37394E-23
2.21902E-03 5.88934E-23
2.30190E-03 5.44836E-23
2.38630E-03 5.04641E-23
2.47222E-03 4.67948E-23
2.55965E-03 4.34401E-23
2.64859E-03 4.03687E-23
2.73905E-03 3.75527E-23
2.83103E-03 3.49675E-23
2.92452E-03 3.25911E-23
3.01952E-03 3.04039E-23
3.11604E-03 2.83885E-23
3.21407E-03 2.65292E-23
3.31362E-03 2.48120E-23
3.41468E-03 2.32243E-23
3.51725E-03 2.17547E-23
3.62133E-03 2.03933E-23
3.72692E-03 1.91306E-23
3.83403E-03 1.79586E-23
3.94265E-03 1.68696E-23
4.05278E-03 1.58568E-23
4.16442E-03 1.49142E-23
4.27757E-03 1.40361E-23
4.39223E-03 1.32174E-23
4.50840E-03 1.24536E-23
4.62608E-03 1.17403E-23
4.74527E-03 1.10738E-23
4.86597E-03 1.04506E-23
4.98817E-03 9.86732E-24
5.11188E-03 9.32115E-24
5.23711E-03 8.80936E-24
5.36383E-03 8.32948E-24
5.49207E-03 7.87923E-24
5.62181E-03 7.45653E-24
5.75306E-03 7.05945E-24
5.88581E-03 6.68624E-24
6.02007E-03 6.33525E-24
6.15583E-03 6.00498E-24
6.29310E-03 5.69404E-24
6.43187E-03 5.40115E-24
6.57214E-03 5.12513E-24
6.71392E-03 4.86487E-24
6.85720E-03 4.61936E-24
7.00198E-03 4.38764E-24
7.14827E-03 4.16886E-24
7.29605E-03 3.96219E-24
7.44534E-03 3.76687E-24
7.59612E-03 3.58222E-24
7.97965E-03 3.16302E-24
8.37255E-03 2.79743E-24
8.77480E-03 2.47785E-24
9.18641E-03 2.19789E-24
9.60736E-03 1.95213E-24
1.00376E-02 1.73598E-24
1.04773E-02 1.54553E-24
1.09262E-02 1.37744E-24
1.13844E-02 1.22885E-24
1.18520E-02 1.09730E-24
1.23288E-02 9.80676E-25
1.28150E-02 8.77141E-25
1.33104E-02 7.85114E-25
1.38150E-02 7.03221E-25
1.43290E-02 6.30266E-25
1.48521E-02 5.65207E-25
1.53845E-02 5.07133E-25
1.59262E-02 4.55249E-25
1.64770E-02 4.08855E-25
1.70371E-02 3.67339E-25
1.76063E-02 3.30159E-25
1.81848E-02 2.96842E-25
1.87724E-02 2.66966E-25
1.93692E-02 2.40161E-25
1.99751E-02 2.16098E-25
2.05901E-02 1.94487E-25
2.12143E-02 1.75068E-25
2.18476E-02 1.57613E-25
2.24900E-02 1.41916E-25
2.31415E-02 1.27797E-25
2.38021E-02 1.15092E-25
2.44717E-02 1.03657E-25
2.51504E-02 9.33636E-26
2.58382E-02 8.40949E-26
2.65349E-02 7.57478E-26
2.72407E-02 6.82298E-26
2.79555E-02 6.14577E-26
2.86793E-02 5.53570E-26
2.94120E-02 4.98609E-26
3.01537E-02 4.49094E-26
3.09043E-02 4.04484E-26
3.16639E-02 3.64295E-26
3.24324E-02 3.28090E-26
3.32098E-02 2.95476E-26
3.39961E-02 2.66099E-26
3.47912E-02 2.39641E-26
3.55952E-02 2.15814E-26
3.64081E-02 1.94360E-26
3.72297E-02 1.75045E-26
3.80602E-02 1.57658E-26
3.88995E-02 1.42011E-26
3.97476E-02 1.27931E-26
4.06044E-02 1.15263E-26
4.14700E-02 1.03869E-26
4.23443E-02 9.36226E-27
4.32273E-02 8.44095E-27
4.41190E-02 7.61273E-27
4.50194E-02 6.86835E-27
4.59284E-02 6.19943E-27
4.68461E-02 5.59844E-27
4.87074E-02 4.57365E-27
5.06030E-02 3.74708E-27
5.25328E-02 3.08059E-27
5.44967E-02 2.54317E-27
5.64946E-02 2.10965E-27
5.85262E-02 1.75961E-27
6.05914E-02 1.47655E-27
6.26901E-02 1.24713E-27
6.48222E-02 1.06059E-27
6.69873E-02 9.08298E-28
6.91854E-02 7.83322E-28
7.14163E-02 6.80122E-28
7.36799E-02 5.94283E-28
7.59760E-02 5.22297E-28
7.83043E-02 4.61385E-28
8.06647E-02 4.09356E-28
8.30571E-02 3.64487E-28
8.54812E-02 3.25426E-28
8.79369E-02 2.91116E-28
9.04240E-02 2.60735E-28
9.29422E-02 2.33639E-28
9.54915E-02 2.09330E-28
9.80716E-02 1.87416E-28
1.00682E-01 1.67593E-28
1.03323E-01 1.49616E-28
1.05995E-01 1.33294E-28
1.08696E-01 1.18467E-28
1.11427E-01 1.05006E-28
1.14188E-01 9.27994E-29
1.16978E-01 8.17503E-29
1.19797E-01 7.17727E-29
1.22645E-01 6.27881E-29
1.25522E-01 5.47237E-29
1.28428E-01 4.75110E-29
1.31361E-01 4.10848E-29
1.34323E-01 3.53831E-29
1.37313E-01 3.03464E-29
1.40330E-01 2.59176E-29
1.43375E-01 2.20423E-29
1.46447E-01 1.86685E-29
1.49545E-01 1.57470E-29
1.52671E-01 1.32313E-29
1.55823E-01 1.10776E-29
1.59001E-01 9.24525E-30
1.62205E-01 7.69630E-30
1.65435E-01 6.39586E-30
1.68690E-01 5.31190E-30
1.71970E-01 4.41525E-30
1.75276E-01 3.67950E-30
1.78606E-01 3.08093E-30
1.81961E-01 2.59835E-30
1.85340E-01 2.21295E-30
1.88743E-01 1.90819E-30
1.92169E-01 1.66963E-30
1.95619E-01 1.48474E-30
1.99092E-01 1.34276E-30
2.02589E-01 1.23452E-30
2.06107E-01 1.15230E-30
2.09649E-01 1.08966E-30
2.13212E-01 1.04131E-30
2.16797E-01 1.00295E-30
2.20404E-01 9.71142E-31
2.24032E-01 9.43211E-31
2.27680E-01 9.17115E-31
2.31350E-01 8.91355E-31
2.35040E-01 8.64879E-31
2.38751E-01 8.37006E-31
2.42481E-01 8.07352E-31
2.46231E-01 7.75769E-31
2.50000E-01 7.42290E-31
2.53788E-01 7.07085E-31
2.57595E-01 6.70420E-31
2.61421E-01 6.32623E-31
2.65264E-01 5.94061E-31
2.69126E-01 5.55112E-31
2.73005E-01 5.16154E-31
2.76901E-01 4.77548E-31
2.80814E-01 4.39629E-31
2.84744E-01 4.02697E-31
2.88691E-01 3.67017E-31
2.92653E-01 3.32813E-31
2.96632E-01 3.00268E-31
3.00625E-01 2.69525E-31
3.04634E-01 2.40686E-31
3.08658E-01 2.13821E-31
3.12697E-01 1.88964E-31
3.16749E-01 1.66118E-31
3.20816E-01 1.45261E-31
3.24896E-01 1.26350E-31
3.28990E-01 1.09318E-31
3.33097E-01 9.40856E-32
3.37216E-01 8.05605E-32
3.41348E-01 6.86403E-32
3.45492E-01 5.82161E-32
3.49647E-01 4.91750E-32
3.53814E-01 4.14021E-32
3.57992E-01 3.47828E-32
3.62181E-01 2.92043E-32
3.66381E-01 2.45568E-32
3.70590E-01 2.07350E-32
3.74810E-01 1.76388E-32
3.79039E-01 1.51741E-32
3.83277E-01 1.32531E-32
3.87524E-01 1.17950E-32
3.91780E-01 1.07256E-32
3.96044E-01 9.97782E-33
4.00316E-01 9.49132E-33
4.04596E-01 9.21247E-33
4.08882E-01 9.09401E-33
4.13176E-01 9.09476E-33
4.17476E-01 9.17925E-33
4.21783E-01 9.31732E-33
4.26095E-01 9.48370E-33
4.30413E-01 9.65759E-33
4.34737E-01 9.82223E-33
4.39065E-01 9.96449E-33
4.43398E-01 1.00744E-32
4.47736E-01 1.01449E-32
4.52077E-01 1.01712E-32
4.56422E-01 1.01507E-32
4.60770E-01 1.00825E-32
4.65122E-01 9.96732E-33
4.69476E-01 9.80681E-33
4.73832E-01 9.60370E-33
4.78190E-01 9.36140E-33
4.82550E-01 9.08384E-33
4.86912E-01 8.77528E-33
4.91274E-01 8.44020E-33
4.95637E-01 8.08314E-33
5.00000E-01 7.70863E-33
5.04363E-01 7.32105E-33
5.08726E-01 6.92460E-33
5.13088E-01 6.52327E-33
5.17450E-01 6.12073E-33
5.21810E-01 5.72034E-33
5.26168E-01 5.32516E-33
5.30524E-01 4.93788E-33
5.34878E-01 4.56085E-33
5.39230E-01 4.19610E-33
5.43578E-01 3.84531E-33
5.47923E-01 3.50986E-33
5.52264E-01 3.19083E-33
5.56602E-01 2.88902E-33
5.60935E-01 2.60497E-33
5.65263E-01 2.33899E-33
5.69587E-01 2.09119E-33
5.73905E-01 1.86147E-33
5.78217E-01 1.64959E-33
5.82524E-01 1.45515E-33
5.86824E-01 1.27763E-33
5.91118E-01 1.11642E-33
5.95404E-01 9.70811E-34
5.99684E-01 8.40046E-34
6.03956E-01 7.23311E-34
6.08220E-01 6.19760E-34
6.12476E-01 5.28525E-34
6.16723E-01 4.48730E-34
6.20961E-01 3.79502E-34
6.25190E-01 3.19977E-34
6.29410E-01 2.69311E-34
6.33619E-01 2.26682E-34
6.37819E-01 1.91301E-34
6.42008E-01 1.62413E-34
6.46186E-01 1.39301E-34
6.50353E-01 1.21287E-34
6.54508E-01 1.07737E-34
6.58652E-01 9.80595E-35
6.62784E-01 9.17066E-35
6.66903E-01 8.81740E-35
6.71010E-01 8.69996E-35
6.75104E-01 8.77641E-35
6.79184E-01 9.00880E-35
6.83251E-01 9.36312E-35
6.87303E-01 9.80908E-35
6.91342E-01 1.03199E-34
6.95366E-01 1.08720E-34
6.99375E-01 1.14451E-34
7.03368E-01 1.20218E-34
7.07347E-01 1.25871E-34
7.11309E-01 1.31288E-34
7.15256E-01 1.36366E-34
7.19186E-01 1.41024E-34
7.23099E-01 1.45199E-34
7.26995E-01 1.48845E-34
7.30874E-01 1.51929E-34
7.34736E-01 1.54432E-34
7.38579E-01 1.56344E-34
7.42405E-01 1.57667E-34
7.46212E-01 1.58411E-34
7.50000E-01 1.58591E-34
7.53769E-01 1.58229E-34
7.57519E-01 1.57352E-34
7.61249E-01 1.55989E-34
7.64960E-01 1.54174E-34
7.68650E-01 1.51941E-34
7.72320E-01 1.49327E-34
7.75968E-01 1.46368E-34
7.79596E-01 1.43100E-34
7.83203E-01 1.39562E-34
7.86788E-01 1.35788E-34
7.90351E-01 1.31813E-34
7.93893E-01 1.27672E-34
7.97411E-01 1.23397E-34
8.00908E-01 1.19017E-34
8.04381E-01 1.14562E-34
8.07831E-01 1.10057E-34
8.11257E-01 1.05530E-34
8.14660E-01 1.01002E-34
8.18039E-01 9.64932E-35
8.21394E-01 9.20241E-35
8.24724E-01 8.76115E-35
8.28030E-01 8.32704E-35
8.31310E-01 7.90139E-35
8.34565E-01 7.48545E-35
8.37795E-01 7.08020E-35
8.40999E-01 6.68650E-35
8.44177E-01 6.30502E-35
8.47329E-01 5.93636E-35
8.50455E-01 5.58102E-35
8.53553E-01 5.23926E-35
8.56625E-01 4.91132E-35
8.59670E-01 4.59733E-35
8.62687E-01 4.29737E-35
8.65677E-01 4.01132E-35
8.68639E-01 3.73915E-35
8.71572E-01 3.48062E-35
8.74478E-01 3.23557E-35
8.77355E-01 3.00366E-35
8.80203E-01 2.78460E-35
8.83022E-01 2.57803E-35
8.85812E-01 2.38362E-35
8.88573E-01 2.20088E-35
8.91304E-01 2.02941E-35
8.94005E-01 1.86881E-35
8.96677E-01 1.71862E-35
8.99318E-01 1.57841E-35
9.01928E-01 1.44766E-35
9.04508E-01 1.32595E-35
9.07058E-01 1.21284E-35
9.09576E-01 1.10788E-35
9.12063E-01 1.01061E-35
9.14519E-01 9.20626E-36
9.16943E-01 8.37492E-36
9.19335E-01 7.60833E-36
9.21696E-01 6.90207E-36
9.24024E-01 6.25284E-36
9.26320E-01 5.65648E-36
9.28584E-01 5.10994E-36
9.30815E-01 4.60944E-36
9.33013E-01 4.15221E-36
9.35178E-01 3.73484E-36
9.37310E-01 3.35442E-36
9.39409E-01 3.00851E-36
9.41474E-01 2.69433E-36
9.43505E-01 2.40940E-36
9.45503E-01 2.15135E-36
9.47467E-01 1.91830E-36
9.49397E-01 1.70785E-36
9.51293E-01 1.51846E-36
9.53154E-01 1.34793E-36
9.54981E-01 1.19503E-36
9.56773E-01 1.05789E-36
9.58530E-01 9.35214E-37
9.60252E-01 8.25785E-37
9.61940E-01 7.28098E-37
9.63592E-01 6.41275E-37
9.65209E-01 5.64109E-37
9.66790E-01 4.95744E-37
9.68336E-01 4.35279E-37
9.69846E-01 3.81807E-37
9.71321E-01 3.34718E-37
9.72759E-01 2.93278E-37
9.74162E-01 2.56782E-37
9.75528E-01 2.24810E-37
9.76858E-01 1.96821E-37
9.78152E-01 1.72331E-37
9.79410E-01 1.50932E-37
9.80631E-01 1.32296E-37
9.81815E-01 1.15957E-37
9.82963E-01 1.01752E-37
9.84074E-01 8.93562E-38
9.85148E-01 7.85750E-38
9.86185E-01 6.91527E-38
9.87185E-01 6.09122E-38
9.88148E-01 5.37240E-38
9.89074E-01 4.74279E-38
9.89962E-01 4.18886E-38
9.90814E-01 3.69945E-38
9.91627E-01 3.26736E-38
9.92404E-01 2.88398E-38
9.93143E-01 2.54105E-38
9.93844E-01 2.23483E-38
9.94508E-01 1.95879E-38
9.95134E-01 1.71058E-38
9.95722E-01 1.48654E-38
9.96273E-01 1.28255E-38
9.96786E-01 1.09742E-38
9.97261E-01 9.30242E-39
9.97698E-01 7.78078E-39
9.98097E-01 6.40900E-39
9.98459E-01 5.18149E-39
9.98782E-01 4.09345E-39
9.99067E-01 3.13273E-39
9.99315E-01 2.30129E-39
9.99524E-01 1.60127E-39
9.99695E-01 1.02474E-39
9.99829E-01 5.78885E-40
9.99924E-01 2.59798E-40
9.99981E-01 6.78998E-41
1.00000E+00 4.17212E-42
