 #
 # Subroutine ELSEPA. Elastic scattering of electrons and positrons
 #                    by neutral atoms and positive ions
 #
 # Projectile: electron
 # Kinetic energy = 7.00000E+07 eV = 2.57245E+06 a.u.
 #
 # WARNING: High-energy factorization with free-atom DF screening.
 #          Absorption, polarization and exchange corrections are
 #          switched off.
 #          Phase shifts are calculated for the bare nucleus.
 #          Scattering amplitudes are not evaluated.
 #
 # Element: Ge,  Z =  32,  atomic weight = 7.26100E+01 g/mol
 #
 # Nuclear model: Fermi distribution
 #                Average radius = 4.46392E-13 cm
 #                Skin thickness = 5.46000E-14 cm
 #
 # Number of electrons = 32
 #
 # Total elastic cross section = 2.34641E-18 cm**2 = 8.37919E-02 a0**2
 # 1st transport cross section = 4.17404E-25 cm**2 = 1.49058E-08 a0**2
 # 2nd transport cross section = 1.23248E-24 cm**2 = 4.40127E-08 a0**2
 #
 #
 # Differential cross section:                       MU=(1-COS(THETA))/2
 #
 #  THETA        MU          DCS          DCS        Sherman      error
 #  (deg)                 (cm**2/sr)   (a0**2/sr)    function
 #----------------------------------------------------------------------
0.00000E+00 1.01771E-10
7.61557E-13 1.01642E-10
1.18994E-12 1.01570E-10
1.71346E-12 1.01482E-10
2.33225E-12 1.01378E-10
3.04617E-12 1.01259E-10
3.85530E-12 1.01124E-10
4.75964E-12 1.00973E-10
5.75917E-12 1.00807E-10
6.85391E-12 1.00626E-10
8.04379E-12 1.00429E-10
9.32893E-12 1.00218E-10
1.07092E-11 9.99915E-11
1.21847E-11 9.97504E-11
1.37554E-11 9.94948E-11
1.54213E-11 9.92249E-11
1.71823E-11 9.89408E-11
1.90386E-11 9.86427E-11
2.09900E-11 9.83310E-11
2.30367E-11 9.80056E-11
2.51785E-11 9.76670E-11
2.74156E-11 9.73154E-11
2.97478E-11 9.69509E-11
3.21752E-11 9.65739E-11
3.46979E-11 9.61845E-11
3.73157E-11 9.57832E-11
4.00286E-11 9.53700E-11
4.28368E-11 9.49453E-11
4.57402E-11 9.45094E-11
4.87388E-11 9.40585E-11
5.18325E-11 9.35973E-11
5.50215E-11 9.31271E-11
5.83057E-11 9.26483E-11
6.16850E-11 9.21611E-11
6.51595E-11 9.16660E-11
6.87293E-11 9.11634E-11
7.23943E-11 9.06525E-11
7.61544E-11 9.01226E-11
1.18991E-10 8.44734E-11
1.71347E-10 7.83181E-11
2.33223E-10 7.19455E-11
3.04617E-10 6.55525E-11
3.85531E-10 5.93739E-11
4.75965E-10 5.35432E-11
5.75917E-10 4.81258E-11
6.85389E-10 4.31662E-11
8.04380E-10 3.86922E-11
9.32891E-10 3.46895E-11
1.07092E-09 3.11144E-11
1.21847E-09 2.79512E-11
1.37554E-09 2.51603E-11
1.54213E-09 2.26970E-11
1.71823E-09 2.05240E-11
1.90386E-09 1.86104E-11
2.09900E-09 1.69231E-11
2.30367E-09 1.54287E-11
2.51785E-09 1.41065E-11
2.74156E-09 1.29337E-11
2.97478E-09 1.18895E-11
3.21752E-09 1.09568E-11
3.46978E-09 1.01227E-11
3.73156E-09 9.37433E-12
4.00286E-09 8.69903E-12
4.28368E-09 8.08938E-12
4.57402E-09 7.53745E-12
4.87388E-09 7.00779E-12
5.18326E-09 6.53029E-12
5.50215E-09 6.10300E-12
5.83057E-09 5.71951E-12
6.16850E-09 5.37433E-12
6.51596E-09 5.06280E-12
6.87293E-09 4.78088E-12
7.23942E-09 4.52113E-12
7.61544E-09 4.24655E-12
1.18991E-08 2.45541E-12
1.71347E-08 1.49998E-12
2.33223E-08 9.49955E-13
3.04617E-08 6.15736E-13
3.85531E-08 4.12149E-13
4.75965E-08 2.84377E-13
5.75917E-08 2.01774E-13
6.85389E-08 1.47013E-13
8.04380E-08 1.09797E-13
9.32891E-08 8.38232E-14
1.07092E-07 6.52221E-14
1.21847E-07 5.16098E-14
1.37554E-07 4.14360E-14
1.54213E-07 3.36927E-14
1.71823E-07 2.76996E-14
1.90386E-07 2.29961E-14
2.09900E-07 1.92555E-14
2.30367E-07 1.62407E-14
2.51785E-07 1.37918E-14
2.74156E-07 1.17853E-14
2.97478E-07 1.01272E-14
3.21752E-07 8.74722E-15
3.46978E-07 7.59238E-15
3.73156E-07 6.61995E-15
4.00286E-07 5.79552E-15
4.28368E-07 5.09397E-15
4.57402E-07 4.49424E-15
4.87388E-07 3.97687E-15
5.18325E-07 3.53264E-15
5.50215E-07 3.14994E-15
5.83057E-07 2.81548E-15
6.16850E-07 2.52403E-15
6.51596E-07 2.26992E-15
6.87293E-07 2.04620E-15
7.23942E-07 1.84909E-15
7.61543E-07 1.67547E-15
1.18991E-06 6.99599E-16
1.71347E-06 3.42167E-16
2.33223E-06 1.86855E-16
3.04617E-06 1.10588E-16
3.85531E-06 6.95790E-17
4.75964E-06 4.59355E-17
5.75916E-06 3.15304E-17
6.85388E-06 2.23510E-17
8.04378E-06 1.62792E-17
9.32888E-06 1.21342E-17
1.07092E-05 9.22718E-18
1.21846E-05 7.14009E-18
1.37553E-05 5.61063E-18
1.54212E-05 4.46933E-18
1.71822E-05 3.60381E-18
1.90385E-05 2.93764E-18
2.09899E-05 2.41900E-18
2.30365E-05 2.00981E-18
2.51783E-05 1.68346E-18
2.74153E-05 1.42063E-18
2.97475E-05 1.20708E-18
3.21749E-05 1.03218E-18
3.46974E-05 8.87856E-19
3.73152E-05 7.67924E-19
4.00281E-05 6.67597E-19
4.28362E-05 5.83143E-19
4.57395E-05 5.11632E-19
4.87380E-05 4.50747E-19
5.18317E-05 3.98648E-19
5.50205E-05 3.53857E-19
5.83045E-05 3.15182E-19
6.16838E-05 2.81651E-19
6.51582E-05 2.52466E-19
6.87277E-05 2.26970E-19
7.23925E-05 2.04617E-19
7.61524E-05 1.84970E-19
9.21439E-05 1.26434E-19
1.09658E-04 8.93316E-20
1.28695E-04 6.49019E-20
1.49255E-04 4.82823E-20
1.71338E-04 3.66616E-20
1.94942E-04 2.83373E-20
2.20070E-04 2.22485E-20
2.46720E-04 1.77118E-20
2.74892E-04 1.42754E-20
3.04586E-04 1.16341E-20
3.35803E-04 9.57677E-21
3.68542E-04 7.95517E-21
4.02802E-04 6.66298E-21
4.38585E-04 5.62305E-21
4.75889E-04 4.77853E-21
5.14715E-04 4.08689E-21
5.55063E-04 3.51612E-21
5.96931E-04 3.04169E-21
6.40321E-04 2.64473E-21
6.85233E-04 2.31054E-21
7.31665E-04 2.02756E-21
7.79618E-04 1.78666E-21
8.29092E-04 1.58053E-21
8.80086E-04 1.40332E-21
9.32601E-04 1.25030E-21
9.86636E-04 1.11760E-21
1.04219E-03 1.00207E-21
1.09927E-03 9.01112E-22
1.15786E-03 8.12566E-22
1.21797E-03 7.34648E-22
1.27961E-03 6.65859E-22
1.34276E-03 6.04948E-22
1.40743E-03 5.50852E-22
1.47362E-03 5.02679E-22
1.54133E-03 4.59664E-22
1.61056E-03 4.21159E-22
1.68131E-03 3.86608E-22
1.75357E-03 3.55531E-22
1.82735E-03 3.27521E-22
1.90265E-03 3.02217E-22
1.97947E-03 2.79314E-22
2.05780E-03 2.58542E-22
2.13765E-03 2.39668E-22
2.21902E-03 2.22487E-22
2.30190E-03 2.06820E-22
2.38630E-03 1.92509E-22
2.47222E-03 1.79416E-22
2.55965E-03 1.67419E-22
2.64859E-03 1.56408E-22
2.73905E-03 1.46289E-22
2.83103E-03 1.36976E-22
2.92452E-03 1.28393E-22
3.01952E-03 1.20472E-22
3.11604E-03 1.13153E-22
3.21407E-03 1.06382E-22
3.31362E-03 1.00110E-22
3.41468E-03 9.42943E-23
3.51725E-03 8.88947E-23
3.62133E-03 8.38763E-23
3.72692E-03 7.92072E-23
3.83403E-03 7.48586E-23
3.94265E-03 7.08045E-23
4.05278E-03 6.70211E-23
4.16442E-03 6.34871E-23
4.27757E-03 6.01831E-23
4.39223E-03 5.70912E-23
4.50840E-03 5.41952E-23
4.62608E-03 5.14806E-23
4.74527E-03 4.89337E-23
4.86597E-03 4.65424E-23
4.98817E-03 4.42953E-23
5.11188E-03 4.21821E-23
5.23711E-03 4.01934E-23
5.36383E-03 3.83204E-23
5.49207E-03 3.65551E-23
5.62181E-03 3.48903E-23
5.75306E-03 3.33190E-23
5.88581E-03 3.18352E-23
6.02007E-03 3.04329E-23
6.15583E-03 2.91068E-23
6.29310E-03 2.78521E-23
6.43187E-03 2.66642E-23
6.57214E-03 2.55388E-23
6.71392E-03 2.44721E-23
6.85720E-03 2.34604E-23
7.00198E-03 2.25003E-23
7.14827E-03 2.15888E-23
7.29605E-03 2.07228E-23
7.44534E-03 1.98997E-23
7.59612E-03 1.91170E-23
7.97965E-03 1.73217E-23
8.37255E-03 1.57317E-23
8.77480E-03 1.43194E-23
9.18641E-03 1.30616E-23
9.60736E-03 1.19384E-23
1.00376E-02 1.09329E-23
1.04773E-02 1.00306E-23
1.09262E-02 9.21899E-24
1.13844E-02 8.48742E-24
1.18520E-02 7.82659E-24
1.23288E-02 7.22845E-24
1.28150E-02 6.68599E-24
1.33104E-02 6.19313E-24
1.38150E-02 5.74452E-24
1.43290E-02 5.33548E-24
1.48521E-02 4.96191E-24
1.53845E-02 4.62017E-24
1.59262E-02 4.30708E-24
1.64770E-02 4.01981E-24
1.70371E-02 3.75584E-24
1.76063E-02 3.51296E-24
1.81848E-02 3.28916E-24
1.87724E-02 3.08270E-24
1.93692E-02 2.89198E-24
1.99751E-02 2.71559E-24
2.05901E-02 2.55226E-24
2.12143E-02 2.40085E-24
2.18476E-02 2.26034E-24
2.24900E-02 2.12980E-24
2.31415E-02 2.00840E-24
2.38021E-02 1.89538E-24
2.44717E-02 1.79006E-24
2.51504E-02 1.69182E-24
2.58382E-02 1.60011E-24
2.65349E-02 1.51441E-24
2.72407E-02 1.43425E-24
2.79555E-02 1.35922E-24
2.86793E-02 1.28893E-24
2.94120E-02 1.22302E-24
3.01537E-02 1.16118E-24
3.09043E-02 1.10311E-24
3.16639E-02 1.04853E-24
3.24324E-02 9.97204E-25
3.32098E-02 9.48901E-25
3.39961E-02 9.03410E-25
3.47912E-02 8.60539E-25
3.55952E-02 8.20111E-25
3.64081E-02 7.81962E-25
3.72297E-02 7.45941E-25
3.80602E-02 7.11908E-25
3.88995E-02 6.79735E-25
3.97476E-02 6.49301E-25
4.06044E-02 6.20497E-25
4.14700E-02 5.93220E-25
4.23443E-02 5.67375E-25
4.32273E-02 5.42873E-25
4.41190E-02 5.19633E-25
4.50194E-02 4.97579E-25
4.59284E-02 4.76639E-25
4.68461E-02 4.56747E-25
4.87074E-02 4.19868E-25
5.06030E-02 3.86495E-25
5.25328E-02 3.56243E-25
5.44967E-02 3.28772E-25
5.64946E-02 3.03786E-25
5.85262E-02 2.81025E-25
6.05914E-02 2.60257E-25
6.26901E-02 2.41283E-25
6.48222E-02 2.23921E-25
6.69873E-02 2.08014E-25
6.91854E-02 1.93420E-25
7.14163E-02 1.80015E-25
7.36799E-02 1.67687E-25
7.59760E-02 1.56335E-25
7.83043E-02 1.45871E-25
8.06647E-02 1.36215E-25
8.30571E-02 1.27295E-25
8.54812E-02 1.19046E-25
8.79369E-02 1.11411E-25
9.04240E-02 1.04337E-25
9.29422E-02 9.77767E-26
9.54915E-02 9.16874E-26
9.80716E-02 8.60304E-26
1.00682E-01 8.07706E-26
1.03323E-01 7.58762E-26
1.05995E-01 7.13183E-26
1.08696E-01 6.70703E-26
1.11427E-01 6.31084E-26
1.14188E-01 5.94107E-26
1.16978E-01 5.59570E-26
1.19797E-01 5.27292E-26
1.22645E-01 4.97104E-26
1.25522E-01 4.68854E-26
1.28428E-01 4.42400E-26
1.31361E-01 4.17614E-26
1.34323E-01 3.94377E-26
1.37313E-01 3.72580E-26
1.40330E-01 3.52122E-26
1.43375E-01 3.32911E-26
1.46447E-01 3.14861E-26
1.49545E-01 2.97894E-26
1.52671E-01 2.81937E-26
1.55823E-01 2.66922E-26
1.59001E-01 2.52788E-26
1.62205E-01 2.39476E-26
1.65435E-01 2.26934E-26
1.68690E-01 2.15111E-26
1.71970E-01 2.03963E-26
1.75276E-01 1.93445E-26
1.78606E-01 1.83519E-26
1.81961E-01 1.74147E-26
1.85340E-01 1.65296E-26
1.88743E-01 1.56934E-26
1.92169E-01 1.49029E-26
1.95619E-01 1.41556E-26
1.99092E-01 1.34488E-26
2.02589E-01 1.27801E-26
2.06107E-01 1.21472E-26
2.09649E-01 1.15481E-26
2.13212E-01 1.09807E-26
2.16797E-01 1.04432E-26
2.20404E-01 9.93393E-27
2.24032E-01 9.45123E-27
2.27680E-01 8.99360E-27
2.31350E-01 8.55962E-27
2.35040E-01 8.14797E-27
2.38751E-01 7.75739E-27
2.42481E-01 7.38671E-27
2.46231E-01 7.03485E-27
2.50000E-01 6.70076E-27
2.53788E-01 6.38347E-27
2.57595E-01 6.08208E-27
2.61421E-01 5.79572E-27
2.65264E-01 5.52359E-27
2.69126E-01 5.26493E-27
2.73005E-01 5.01902E-27
2.76901E-01 4.78519E-27
2.80814E-01 4.56280E-27
2.84744E-01 4.35126E-27
2.88691E-01 4.14999E-27
2.92653E-01 3.95847E-27
2.96632E-01 3.77620E-27
3.00625E-01 3.60269E-27
3.04634E-01 3.43750E-27
3.08658E-01 3.28021E-27
3.12697E-01 3.13042E-27
3.16749E-01 2.98774E-27
3.20816E-01 2.85182E-27
3.24896E-01 2.72232E-27
3.28990E-01 2.59892E-27
3.33097E-01 2.48132E-27
3.37216E-01 2.36922E-27
3.41348E-01 2.26237E-27
3.45492E-01 2.16050E-27
3.49647E-01 2.06336E-27
3.53814E-01 1.97073E-27
3.57992E-01 1.88239E-27
3.62181E-01 1.79812E-27
3.66381E-01 1.71774E-27
3.70590E-01 1.64105E-27
3.74810E-01 1.56788E-27
3.79039E-01 1.49806E-27
3.83277E-01 1.43143E-27
3.87524E-01 1.36784E-27
3.91780E-01 1.30714E-27
3.96044E-01 1.24920E-27
4.00316E-01 1.19389E-27
4.04596E-01 1.14108E-27
4.08882E-01 1.09066E-27
4.13176E-01 1.04251E-27
4.17476E-01 9.96525E-28
4.21783E-01 9.52611E-28
4.26095E-01 9.10669E-28
4.30413E-01 8.70608E-28
4.34737E-01 8.32339E-28
4.39065E-01 7.95782E-28
4.43398E-01 7.60856E-28
4.47736E-01 7.27488E-28
4.52077E-01 6.95605E-28
4.56422E-01 6.65140E-28
4.60770E-01 6.36028E-28
4.65122E-01 6.08207E-28
4.69476E-01 5.81620E-28
4.73832E-01 5.56209E-28
4.78190E-01 5.31922E-28
4.82550E-01 5.08708E-28
4.86912E-01 4.86518E-28
4.91274E-01 4.65307E-28
4.95637E-01 4.45030E-28
5.00000E-01 4.25645E-28
5.04363E-01 4.07113E-28
5.08726E-01 3.89394E-28
5.13088E-01 3.72454E-28
5.17450E-01 3.56256E-28
5.21810E-01 3.40769E-28
5.26168E-01 3.25960E-28
5.30524E-01 3.11799E-28
5.34878E-01 2.98257E-28
5.39230E-01 2.85308E-28
5.43578E-01 2.72924E-28
5.47923E-01 2.61080E-28
5.52264E-01 2.49754E-28
5.56602E-01 2.38921E-28
5.60935E-01 2.28561E-28
5.65263E-01 2.18652E-28
5.69587E-01 2.09174E-28
5.73905E-01 2.00109E-28
5.78217E-01 1.91439E-28
5.82524E-01 1.83145E-28
5.86824E-01 1.75212E-28
5.91118E-01 1.67624E-28
5.95404E-01 1.60365E-28
5.99684E-01 1.53421E-28
6.03956E-01 1.46779E-28
6.08220E-01 1.40426E-28
6.12476E-01 1.34347E-28
6.16723E-01 1.28533E-28
6.20961E-01 1.22971E-28
6.25190E-01 1.17649E-28
6.29410E-01 1.12559E-28
6.33619E-01 1.07689E-28
6.37819E-01 1.03030E-28
6.42008E-01 9.85722E-29
6.46186E-01 9.43080E-29
6.50353E-01 9.02284E-29
6.54508E-01 8.63253E-29
6.58652E-01 8.25913E-29
6.62784E-01 7.90188E-29
6.66903E-01 7.56009E-29
6.71010E-01 7.23309E-29
6.75104E-01 6.92023E-29
6.79184E-01 6.62091E-29
6.83251E-01 6.33453E-29
6.87303E-01 6.06054E-29
6.91342E-01 5.79840E-29
6.95366E-01 5.54759E-29
6.99375E-01 5.30762E-29
7.03368E-01 5.07803E-29
7.07347E-01 4.85836E-29
7.11309E-01 4.64819E-29
7.15256E-01 4.44710E-29
7.19186E-01 4.25470E-29
7.23099E-01 4.07062E-29
7.26995E-01 3.89449E-29
7.30874E-01 3.72597E-29
7.34736E-01 3.56473E-29
7.38579E-01 3.41045E-29
7.42405E-01 3.26284E-29
7.46212E-01 3.12160E-29
7.50000E-01 2.98647E-29
7.53769E-01 2.85717E-29
7.57519E-01 2.73345E-29
7.61249E-01 2.61507E-29
7.64960E-01 2.50181E-29
7.68650E-01 2.39343E-29
7.72320E-01 2.28973E-29
7.75968E-01 2.19050E-29
7.79596E-01 2.09556E-29
7.83203E-01 2.00471E-29
7.86788E-01 1.91778E-29
7.90351E-01 1.83459E-29
7.93893E-01 1.75500E-29
7.97411E-01 1.67883E-29
8.00908E-01 1.60595E-29
8.04381E-01 1.53621E-29
8.07831E-01 1.46947E-29
8.11257E-01 1.40560E-29
8.14660E-01 1.34449E-29
8.18039E-01 1.28601E-29
8.21394E-01 1.23004E-29
8.24724E-01 1.17648E-29
8.28030E-01 1.12522E-29
8.31310E-01 1.07616E-29
8.34565E-01 1.02922E-29
8.37795E-01 9.84286E-30
8.40999E-01 9.41285E-30
8.44177E-01 9.00128E-30
8.47329E-01 8.60737E-30
8.50455E-01 8.23035E-30
8.53553E-01 7.86949E-30
8.56625E-01 7.52408E-30
8.59670E-01 7.19346E-30
8.62687E-01 6.87699E-30
8.65677E-01 6.57405E-30
8.68639E-01 6.28405E-30
8.71572E-01 6.00645E-30
8.74478E-01 5.74069E-30
8.77355E-01 5.48627E-30
8.80203E-01 5.24270E-30
8.83022E-01 5.00950E-30
8.85812E-01 4.78624E-30
8.88573E-01 4.57247E-30
8.91304E-01 4.36779E-30
8.94005E-01 4.17181E-30
8.96677E-01 3.98415E-30
8.99318E-01 3.80445E-30
9.01928E-01 3.63237E-30
9.04508E-01 3.46758E-30
9.07058E-01 3.30976E-30
9.09576E-01 3.15863E-30
9.12063E-01 3.01388E-30
9.14519E-01 2.87525E-30
9.16943E-01 2.74247E-30
9.19335E-01 2.61529E-30
9.21696E-01 2.49348E-30
9.24024E-01 2.37680E-30
9.26320E-01 2.26503E-30
9.28584E-01 2.15797E-30
9.30815E-01 2.05541E-30
9.33013E-01 1.95717E-30
9.35178E-01 1.86306E-30
9.37310E-01 1.77291E-30
9.39409E-01 1.68655E-30
9.41474E-01 1.60381E-30
9.43505E-01 1.52456E-30
9.45503E-01 1.44863E-30
9.47467E-01 1.37590E-30
9.49397E-01 1.30623E-30
9.51293E-01 1.23950E-30
9.53154E-01 1.17558E-30
9.54981E-01 1.11435E-30
9.56773E-01 1.05571E-30
9.58530E-01 9.99555E-31
9.60252E-01 9.45778E-31
9.61940E-01 8.94285E-31
9.63592E-01 8.44985E-31
9.65209E-01 7.97791E-31
9.66790E-01 7.52618E-31
9.68336E-01 7.09387E-31
9.69846E-01 6.68023E-31
9.71321E-01 6.28454E-31
9.72759E-01 5.90609E-31
9.74162E-01 5.54423E-31
9.75528E-01 5.19834E-31
9.76858E-01 4.86783E-31
9.78152E-01 4.55211E-31
9.79410E-01 4.25066E-31
9.80631E-01 3.96296E-31
9.81815E-01 3.68852E-31
9.82963E-01 3.42687E-31
9.84074E-01 3.17758E-31
9.85148E-01 2.94022E-31
9.86185E-01 2.71440E-31
9.87185E-01 2.49974E-31
9.88148E-01 2.29589E-31
9.89074E-01 2.10251E-31
9.89962E-01 1.91927E-31
9.90814E-01 1.74587E-31
9.91627E-01 1.58204E-31
9.92404E-01 1.42751E-31
9.93143E-01 1.28201E-31
9.93844E-01 1.14532E-31
9.94508E-01 1.01722E-31
9.95134E-01 8.97491E-32
9.95722E-01 7.85947E-32
9.96273E-01 6.82409E-32
9.96786E-01 5.86709E-32
9.97261E-01 4.98696E-32
9.97698E-01 4.18228E-32
9.98097E-01 3.45178E-32
9.98459E-01 2.79429E-32
9.98782E-01 2.20876E-32
9.99067E-01 1.69429E-32
9.99315E-01 1.25003E-32
9.99524E-01 8.75308E-33
9.99695E-01 5.69515E-33
9.99829E-01 3.32175E-33
9.99924E-01 1.62913E-33
9.99981E-01 6.14619E-34
1.00000E+00 2.76641E-34
