 #
 # Subroutine ELSEPA. Elastic scattering of electrons and positrons
 #                    by neutral atoms and positive ions
 #
 # Projectile: electron
 # Kinetic energy = 2.50000E+08 eV = 9.18733E+06 a.u.
 #
 # WARNING: High-energy factorization with free-atom DF screening.
 #          Absorption, polarization and exchange corrections are
 #          switched off.
 #          Phase shifts are calculated for the bare nucleus.
 #          Scattering amplitudes are not evaluated.
 #
 # Element: Ge,  Z =  32,  atomic weight = 7.26100E+01 g/mol
 #
 # Nuclear model: Fermi distribution
 #                Average radius = 4.46392E-13 cm
 #                Skin thickness = 5.46000E-14 cm
 #
 # Number of electrons = 32
 #
 # Total elastic cross section = 2.34702E-18 cm**2 = 8.38137E-02 a0**2
 # 1st transport cross section = 3.32862E-26 cm**2 = 1.18867E-09 a0**2
 # 2nd transport cross section = 9.96864E-26 cm**2 = 3.55987E-09 a0**2
 #
 #
 # Differential cross section:                       MU=(1-COS(THETA))/2
 #
 #  THETA        MU          DCS          DCS        Sherman      error
 #  (deg)                 (cm**2/sr)   (a0**2/sr)    function
 #----------------------------------------------------------------------
0.00000E+00 1.28458E-09
7.61557E-13 1.26439E-09
1.18994E-12 1.25327E-09
1.71346E-12 1.23988E-09
2.33225E-12 1.22435E-09
3.04617E-12 1.20682E-09
3.85530E-12 1.18737E-09
4.75964E-12 1.16620E-09
5.75917E-12 1.14370E-09
6.85391E-12 1.11955E-09
8.04379E-12 1.09453E-09
9.32893E-12 1.06820E-09
1.07092E-11 1.04129E-09
1.21847E-11 1.01353E-09
1.37554E-11 9.85393E-10
1.54213E-11 9.56879E-10
1.71823E-11 9.28111E-10
1.90386E-11 8.99433E-10
2.09900E-11 8.70579E-10
2.30367E-11 8.42237E-10
2.51785E-11 8.13757E-10
2.74156E-11 7.86066E-10
2.97478E-11 7.58422E-10
3.21752E-11 7.31618E-10
3.46979E-11 7.05175E-10
3.73157E-11 6.79502E-10
4.00286E-11 6.54449E-10
4.28368E-11 6.30083E-10
4.57402E-11 6.06533E-10
4.87388E-11 5.83585E-10
5.18325E-11 5.61592E-10
5.50215E-11 5.40119E-10
5.83057E-11 5.19666E-10
6.16850E-11 4.99708E-10
6.51595E-11 4.80705E-10
6.87293E-11 4.62302E-10
7.23943E-11 4.44718E-10
7.61544E-11 4.27801E-10
1.18991E-10 2.93454E-10
1.71347E-10 2.07350E-10
2.33223E-10 1.51702E-10
3.04617E-10 1.14602E-10
3.85531E-10 8.86057E-11
4.75965E-10 6.98310E-11
5.75917E-10 5.67690E-11
6.85389E-10 4.59150E-11
8.04380E-10 3.80777E-11
9.32891E-10 3.14156E-11
1.07092E-09 2.63136E-11
1.21847E-09 2.20390E-11
1.37554E-09 1.85869E-11
1.54213E-09 1.57436E-11
1.71823E-09 1.33615E-11
1.90386E-09 1.14209E-11
2.09900E-09 9.75790E-12
2.30367E-09 8.40724E-12
2.51785E-09 7.23508E-12
2.74156E-09 6.27536E-12
2.97478E-09 5.44551E-12
3.21752E-09 4.75341E-12
3.46978E-09 4.15989E-12
3.73156E-09 3.65592E-12
4.00286E-09 3.22445E-12
4.28368E-09 2.85340E-12
4.57402E-09 2.53488E-12
4.87388E-09 2.25839E-12
5.18326E-09 2.01980E-12
5.50215E-09 1.81112E-12
5.83057E-09 1.62984E-12
6.16850E-09 1.47035E-12
6.51596E-09 1.33067E-12
6.87293E-09 1.20728E-12
7.23942E-09 1.09831E-12
7.61544E-09 1.00160E-12
1.18991E-08 4.45968E-13
1.71347E-08 2.30018E-13
2.33223E-08 1.30304E-13
3.04617E-08 7.89230E-14
3.85531E-08 5.03279E-14
4.75965E-08 3.35177E-14
5.75917E-08 2.31418E-14
6.85389E-08 1.64765E-14
8.04380E-08 1.20447E-14
9.32891E-08 9.00856E-15
1.07092E-07 6.87257E-15
1.21847E-07 5.33512E-15
1.37554E-07 4.20563E-15
1.54213E-07 3.36057E-15
1.71823E-07 2.71799E-15
1.90386E-07 2.22223E-15
2.09900E-07 1.83472E-15
2.30367E-07 1.52818E-15
2.51785E-07 1.28313E-15
2.74156E-07 1.08531E-15
2.97478E-07 9.24208E-16
3.21752E-07 7.91920E-16
3.46978E-07 6.82472E-16
3.73156E-07 5.91288E-16
4.00286E-07 5.14819E-16
4.28368E-07 4.50309E-16
4.57402E-07 3.95586E-16
4.87388E-07 3.48921E-16
5.18325E-07 3.08931E-16
5.50215E-07 2.74503E-16
5.83057E-07 2.44734E-16
6.16850E-07 2.18886E-16
6.51596E-07 1.96358E-16
6.87293E-07 1.76651E-16
7.23942E-07 1.59353E-16
7.61543E-07 1.44118E-16
1.18991E-06 5.93494E-17
1.71347E-06 2.87018E-17
2.33223E-06 1.55176E-17
3.04617E-06 9.10541E-18
3.85531E-06 5.68842E-18
4.75964E-06 3.73408E-18
5.75916E-06 2.55143E-18
6.85388E-06 1.80206E-18
8.04378E-06 1.30870E-18
9.32888E-06 9.73210E-19
1.07092E-05 7.38665E-19
1.21846E-05 5.70715E-19
1.37553E-05 4.47903E-19
1.54212E-05 3.56424E-19
1.71822E-05 2.87155E-19
1.90385E-05 2.33907E-19
2.09899E-05 1.92495E-19
2.30365E-05 1.59852E-19
2.51783E-05 1.33837E-19
2.74153E-05 1.12900E-19
2.97475E-05 9.58984E-20
3.21749E-05 8.19804E-20
3.46974E-05 7.05005E-20
3.73152E-05 6.09643E-20
4.00281E-05 5.29897E-20
4.28362E-05 4.62787E-20
4.57395E-05 4.05976E-20
4.87380E-05 3.57619E-20
5.18317E-05 3.16248E-20
5.50205E-05 2.80686E-20
5.83045E-05 2.49985E-20
6.16838E-05 2.23371E-20
6.51582E-05 2.00211E-20
6.87277E-05 1.79979E-20
7.23925E-05 1.62244E-20
7.61524E-05 1.46607E-20
9.21439E-05 1.00171E-20
1.09658E-04 7.07478E-21
1.28695E-04 5.13793E-21
1.49255E-04 3.82060E-21
1.71338E-04 2.89970E-21
1.94942E-04 2.24017E-21
2.20070E-04 1.75786E-21
2.46720E-04 1.39859E-21
2.74892E-04 1.12651E-21
3.04586E-04 9.17442E-22
3.35803E-04 7.54645E-22
3.68542E-04 6.26365E-22
4.02802E-04 5.24178E-22
4.38585E-04 4.41968E-22
4.75889E-04 3.75230E-22
5.14715E-04 3.20596E-22
5.55063E-04 2.75527E-22
5.96931E-04 2.38083E-22
6.40321E-04 2.06768E-22
6.85233E-04 1.80418E-22
7.31665E-04 1.58117E-22
7.79618E-04 1.39142E-22
8.29092E-04 1.22916E-22
8.80086E-04 1.08976E-22
9.32601E-04 9.69451E-23
9.86636E-04 8.65193E-23
1.04219E-03 7.74486E-23
1.09927E-03 6.95274E-23
1.15786E-03 6.25856E-23
1.21797E-03 5.64817E-23
1.27961E-03 5.10974E-23
1.34276E-03 4.63337E-23
1.40743E-03 4.21067E-23
1.47362E-03 3.83458E-23
1.54133E-03 3.49908E-23
1.61056E-03 3.19905E-23
1.68131E-03 2.93009E-23
1.75357E-03 2.68843E-23
1.82735E-03 2.47084E-23
1.90265E-03 2.27449E-23
1.97947E-03 2.09697E-23
2.05780E-03 1.93615E-23
2.13765E-03 1.79020E-23
2.21902E-03 1.65750E-23
2.30190E-03 1.53665E-23
2.38630E-03 1.42640E-23
2.47222E-03 1.32566E-23
2.55965E-03 1.23348E-23
2.64859E-03 1.14900E-23
2.73905E-03 1.07147E-23
2.83103E-03 1.00021E-23
2.92452E-03 9.34639E-24
3.01952E-03 8.74218E-24
3.11604E-03 8.18475E-24
3.21407E-03 7.66986E-24
3.31362E-03 7.19370E-24
3.41468E-03 6.75286E-24
3.51725E-03 6.34428E-24
3.62133E-03 5.96519E-24
3.72692E-03 5.61311E-24
3.83403E-03 5.28578E-24
3.94265E-03 4.98117E-24
4.05278E-03 4.69743E-24
4.16442E-03 4.43290E-24
4.27757E-03 4.18605E-24
4.39223E-03 3.95550E-24
4.50840E-03 3.74000E-24
4.62608E-03 3.53839E-24
4.74527E-03 3.34964E-24
4.86597E-03 3.17279E-24
4.98817E-03 3.00695E-24
5.11188E-03 2.85134E-24
5.23711E-03 2.70522E-24
5.36383E-03 2.56791E-24
5.49207E-03 2.43879E-24
5.62181E-03 2.31730E-24
5.75306E-03 2.20291E-24
5.88581E-03 2.09514E-24
6.02007E-03 1.99354E-24
6.15583E-03 1.89771E-24
6.29310E-03 1.80725E-24
6.43187E-03 1.72183E-24
6.57214E-03 1.64112E-24
6.71392E-03 1.56481E-24
6.85720E-03 1.49263E-24
7.00198E-03 1.42431E-24
7.14827E-03 1.35963E-24
7.29605E-03 1.29835E-24
7.44534E-03 1.24027E-24
7.59612E-03 1.18519E-24
7.97965E-03 1.05950E-24
8.37255E-03 9.49014E-25
8.77480E-03 8.51632E-25
9.18641E-03 7.65588E-25
9.60736E-03 6.89380E-25
1.00376E-02 6.21733E-25
1.04773E-02 5.61556E-25
1.09262E-02 5.07916E-25
1.13844E-02 4.60009E-25
1.18520E-02 4.17145E-25
1.23288E-02 3.78726E-25
1.28150E-02 3.44232E-25
1.33104E-02 3.13214E-25
1.38150E-02 2.85279E-25
1.43290E-02 2.60085E-25
1.48521E-02 2.37330E-25
1.53845E-02 2.16753E-25
1.59262E-02 1.98120E-25
1.64770E-02 1.81229E-25
1.70371E-02 1.65898E-25
1.76063E-02 1.51969E-25
1.81848E-02 1.39300E-25
1.87724E-02 1.27766E-25
1.93692E-02 1.17254E-25
1.99751E-02 1.07667E-25
2.05901E-02 9.89137E-26
2.12143E-02 9.09165E-26
2.18476E-02 8.36039E-26
2.24900E-02 7.69123E-26
2.31415E-02 7.07846E-26
2.38021E-02 6.51694E-26
2.44717E-02 6.00205E-26
2.51504E-02 5.52964E-26
2.58382E-02 5.09593E-26
2.65349E-02 4.69755E-26
2.72407E-02 4.33141E-26
2.79555E-02 3.99474E-26
2.86793E-02 3.68502E-26
2.94120E-02 3.39997E-26
3.01537E-02 3.13750E-26
3.09043E-02 2.89574E-26
3.16639E-02 2.67297E-26
3.24324E-02 2.46762E-26
3.32098E-02 2.27826E-26
3.39961E-02 2.10361E-26
3.47912E-02 1.94246E-26
3.55952E-02 1.79374E-26
3.64081E-02 1.65646E-26
3.72297E-02 1.52970E-26
3.80602E-02 1.41263E-26
3.88995E-02 1.30450E-26
3.97476E-02 1.20460E-26
4.06044E-02 1.11229E-26
4.14700E-02 1.02699E-26
4.23443E-02 9.48156E-27
4.32273E-02 8.75287E-27
4.41190E-02 8.07927E-27
4.50194E-02 7.45657E-27
4.59284E-02 6.88090E-27
4.68461E-02 6.34868E-27
4.87074E-02 5.40171E-27
5.06030E-02 4.59232E-27
5.25328E-02 3.90065E-27
5.44967E-02 3.30976E-27
5.64946E-02 2.80516E-27
5.85262E-02 2.37451E-27
6.05914E-02 2.00721E-27
6.26901E-02 1.69420E-27
6.48222E-02 1.42771E-27
6.69873E-02 1.20107E-27
6.91854E-02 1.00856E-27
7.14163E-02 8.45264E-28
7.36799E-02 7.06956E-28
7.59760E-02 5.90010E-28
7.83043E-02 4.91311E-28
8.06647E-02 4.08179E-28
8.30571E-02 3.38313E-28
8.54812E-02 2.79739E-28
8.79369E-02 2.30760E-28
9.04240E-02 1.89921E-28
9.29422E-02 1.55975E-28
9.54915E-02 1.27853E-28
9.80716E-02 1.04643E-28
1.00682E-01 8.55616E-29
1.03323E-01 6.99437E-29
1.05995E-01 5.72208E-29
1.08696E-01 4.69096E-29
1.11427E-01 3.85999E-29
1.14188E-01 3.19441E-29
1.16978E-01 2.66484E-29
1.19797E-01 2.24653E-29
1.22645E-01 1.91868E-29
1.25522E-01 1.66384E-29
1.28428E-01 1.46750E-29
1.31361E-01 1.31756E-29
1.34323E-01 1.20404E-29
1.37313E-01 1.11873E-29
1.40330E-01 1.05491E-29
1.43375E-01 1.00715E-29
1.46447E-01 9.71051E-30
1.49545E-01 9.43132E-30
1.52671E-01 9.20646E-30
1.55823E-01 9.01463E-30
1.59001E-01 8.83963E-30
1.62205E-01 8.66944E-30
1.65435E-01 8.49543E-30
1.68690E-01 8.31171E-30
1.71970E-01 8.11457E-30
1.75276E-01 7.90204E-30
1.78606E-01 7.67346E-30
1.81961E-01 7.42921E-30
1.85340E-01 7.17040E-30
1.88743E-01 6.89866E-30
1.92169E-01 6.61600E-30
1.95619E-01 6.32461E-30
1.99092E-01 6.02680E-30
2.02589E-01 5.72489E-30
2.06107E-01 5.42110E-30
2.09649E-01 5.11759E-30
2.13212E-01 4.81635E-30
2.16797E-01 4.51919E-30
2.20404E-01 4.22775E-30
2.24032E-01 3.94345E-30
2.27680E-01 3.66755E-30
2.31350E-01 3.40107E-30
2.35040E-01 3.14487E-30
2.38751E-01 2.89965E-30
2.42481E-01 2.66589E-30
2.46231E-01 2.44397E-30
2.50000E-01 2.23409E-30
2.53788E-01 2.03635E-30
2.57595E-01 1.85072E-30
2.61421E-01 1.67709E-30
2.65264E-01 1.51523E-30
2.69126E-01 1.36488E-30
2.73005E-01 1.22568E-30
2.76901E-01 1.09725E-30
2.80814E-01 9.79138E-31
2.84744E-01 8.70889E-31
2.88691E-01 7.72012E-31
2.92653E-01 6.82002E-31
2.96632E-01 6.00346E-31
3.00625E-01 5.26530E-31
3.04634E-01 4.60041E-31
3.08658E-01 4.00372E-31
3.12697E-01 3.47028E-31
3.16749E-01 2.99529E-31
3.20816E-01 2.57409E-31
3.24896E-01 2.20223E-31
3.28990E-01 1.87543E-31
3.33097E-01 1.58964E-31
3.37216E-01 1.34104E-31
3.41348E-01 1.12602E-31
3.45492E-01 9.41190E-32
3.49647E-01 7.83399E-32
3.53814E-01 6.49715E-32
3.57992E-01 5.37422E-32
3.62181E-01 4.44017E-32
3.66381E-01 3.67202E-32
3.70590E-01 3.04876E-32
3.74810E-01 2.55123E-32
3.79039E-01 2.16209E-32
3.83277E-01 1.86565E-32
3.87524E-01 1.64782E-32
3.91780E-01 1.49597E-32
3.96044E-01 1.39887E-32
4.00316E-01 1.34656E-32
4.04596E-01 1.33027E-32
4.08882E-01 1.34230E-32
4.13176E-01 1.37596E-32
4.17476E-01 1.42546E-32
4.21783E-01 1.48585E-32
4.26095E-01 1.55291E-32
4.30413E-01 1.62310E-32
4.34737E-01 1.69348E-32
4.39065E-01 1.76164E-32
4.43398E-01 1.82566E-32
4.47736E-01 1.88401E-32
4.52077E-01 1.93557E-32
4.56422E-01 1.97951E-32
4.60770E-01 2.01527E-32
4.65122E-01 2.04255E-32
4.69476E-01 2.06124E-32
4.73832E-01 2.07138E-32
4.78190E-01 2.07318E-32
4.82550E-01 2.06695E-32
4.86912E-01 2.05307E-32
4.91274E-01 2.03202E-32
4.95637E-01 2.00432E-32
5.00000E-01 1.97051E-32
5.04363E-01 1.93118E-32
5.08726E-01 1.88692E-32
5.13088E-01 1.83830E-32
5.17450E-01 1.78592E-32
5.21810E-01 1.73033E-32
5.26168E-01 1.67209E-32
5.30524E-01 1.61172E-32
5.34878E-01 1.54972E-32
5.39230E-01 1.48655E-32
5.43578E-01 1.42265E-32
5.47923E-01 1.35841E-32
5.52264E-01 1.29421E-32
5.56602E-01 1.23037E-32
5.60935E-01 1.16721E-32
5.65263E-01 1.10499E-32
5.69587E-01 1.04394E-32
5.73905E-01 9.84279E-33
5.78217E-01 9.26180E-33
5.82524E-01 8.69795E-33
5.86824E-01 8.15249E-33
5.91118E-01 7.62644E-33
5.95404E-01 7.12060E-33
5.99684E-01 6.63555E-33
6.03956E-01 6.17170E-33
6.08220E-01 5.72928E-33
6.12476E-01 5.30837E-33
6.16723E-01 4.90890E-33
6.20961E-01 4.53070E-33
6.25190E-01 4.17346E-33
6.29410E-01 3.83682E-33
6.33619E-01 3.52029E-33
6.37819E-01 3.22335E-33
6.42008E-01 2.94540E-33
6.46186E-01 2.68580E-33
6.50353E-01 2.44386E-33
6.54508E-01 2.21889E-33
6.58652E-01 2.01015E-33
6.62784E-01 1.81690E-33
6.66903E-01 1.63839E-33
6.71010E-01 1.47386E-33
6.75104E-01 1.32257E-33
6.79184E-01 1.18378E-33
6.83251E-01 1.05675E-33
6.87303E-01 9.40775E-34
6.91342E-01 8.35158E-34
6.95366E-01 7.39222E-34
6.99375E-01 6.52316E-34
7.03368E-01 5.73809E-34
7.07347E-01 5.03099E-34
7.11309E-01 4.39607E-34
7.15256E-01 3.82783E-34
7.19186E-01 3.32101E-34
7.23099E-01 2.87066E-34
7.26995E-01 2.47207E-34
7.30874E-01 2.12080E-34
7.34736E-01 1.81268E-34
7.38579E-01 1.54381E-34
7.42405E-01 1.31052E-34
7.46212E-01 1.10939E-34
7.50000E-01 9.37231E-35
7.53769E-01 7.91098E-35
7.57519E-01 6.68246E-35
7.61249E-01 5.66143E-35
7.64960E-01 4.82457E-35
7.68650E-01 4.15041E-35
7.72320E-01 3.61930E-35
7.75968E-01 3.21324E-35
7.79596E-01 2.91581E-35
7.83203E-01 2.71211E-35
7.86788E-01 2.58861E-35
7.90351E-01 2.53311E-35
7.93893E-01 2.53459E-35
7.97411E-01 2.58319E-35
8.00908E-01 2.67009E-35
8.04381E-01 2.78741E-35
8.07831E-01 2.92821E-35
8.11257E-01 3.08635E-35
8.14660E-01 3.25644E-35
8.18039E-01 3.43378E-35
8.21394E-01 3.61431E-35
8.24724E-01 3.79454E-35
8.28030E-01 3.97151E-35
8.31310E-01 4.14270E-35
8.34565E-01 4.30605E-35
8.37795E-01 4.45986E-35
8.40999E-01 4.60277E-35
8.44177E-01 4.73372E-35
8.47329E-01 4.85195E-35
8.50455E-01 4.95688E-35
8.53553E-01 5.04821E-35
8.56625E-01 5.12575E-35
8.59670E-01 5.18952E-35
8.62687E-01 5.23966E-35
8.65677E-01 5.27641E-35
8.68639E-01 5.30011E-35
8.71572E-01 5.31121E-35
8.74478E-01 5.31019E-35
8.77355E-01 5.29760E-35
8.80203E-01 5.27405E-35
8.83022E-01 5.24013E-35
8.85812E-01 5.19650E-35
8.88573E-01 5.14380E-35
8.91304E-01 5.08270E-35
8.94005E-01 5.01385E-35
8.96677E-01 4.93790E-35
8.99318E-01 4.85551E-35
9.01928E-01 4.76730E-35
9.04508E-01 4.67388E-35
9.07058E-01 4.57585E-35
9.09576E-01 4.47376E-35
9.12063E-01 4.36820E-35
9.14519E-01 4.25964E-35
9.16943E-01 4.14861E-35
9.19335E-01 4.03557E-35
9.21696E-01 3.92095E-35
9.24024E-01 3.80519E-35
9.26320E-01 3.68866E-35
9.28584E-01 3.57173E-35
9.30815E-01 3.45473E-35
9.33013E-01 3.33798E-35
9.35178E-01 3.22177E-35
9.37310E-01 3.10634E-35
9.39409E-01 2.99196E-35
9.41474E-01 2.87883E-35
9.43505E-01 2.76715E-35
9.45503E-01 2.65710E-35
9.47467E-01 2.54885E-35
9.49397E-01 2.44251E-35
9.51293E-01 2.33824E-35
9.53154E-01 2.23611E-35
9.54981E-01 2.13624E-35
9.56773E-01 2.03870E-35
9.58530E-01 1.94355E-35
9.60252E-01 1.85086E-35
9.61940E-01 1.76065E-35
9.63592E-01 1.67297E-35
9.65209E-01 1.58785E-35
9.66790E-01 1.50527E-35
9.68336E-01 1.42527E-35
9.69846E-01 1.34783E-35
9.71321E-01 1.27295E-35
9.72759E-01 1.20063E-35
9.74162E-01 1.13083E-35
9.75528E-01 1.06354E-35
9.76858E-01 9.98713E-36
9.78152E-01 9.36357E-36
9.79410E-01 8.76405E-36
9.80631E-01 8.18833E-36
9.81815E-01 7.63607E-36
9.82963E-01 7.10681E-36
9.84074E-01 6.60020E-36
9.85148E-01 6.11577E-36
9.86185E-01 5.65311E-36
9.87185E-01 5.21184E-36
9.88148E-01 4.79141E-36
9.89074E-01 4.39151E-36
9.89962E-01 4.01167E-36
9.90814E-01 3.65141E-36
9.91627E-01 3.31043E-36
9.92404E-01 2.98820E-36
9.93143E-01 2.68442E-36
9.93844E-01 2.39868E-36
9.94508E-01 2.13056E-36
9.95134E-01 1.87978E-36
9.95722E-01 1.64597E-36
9.96273E-01 1.42882E-36
9.96786E-01 1.22798E-36
9.97261E-01 1.04323E-36
9.97698E-01 8.74220E-37
9.98097E-01 7.20770E-37
9.98459E-01 5.82662E-37
9.98782E-01 4.59658E-37
9.99067E-01 3.51497E-37
9.99315E-01 2.58176E-37
9.99524E-01 1.79411E-37
9.99695E-01 1.15158E-37
9.99829E-01 6.52811E-38
9.99924E-01 2.97134E-38
9.99981E-01 8.39479E-39
1.00000E+00 1.27934E-39
