 #
 # Subroutine ELSEPA. Elastic scattering of electrons and positrons
 #                    by neutral atoms and positive ions
 #
 # Projectile: electron
 # Kinetic energy = 1.75000E+08 eV = 6.43113E+06 a.u.
 #
 # WARNING: High-energy factorization with free-atom DF screening.
 #          Absorption, polarization and exchange corrections are
 #          switched off.
 #          Phase shifts are calculated for the bare nucleus.
 #          Scattering amplitudes are not evaluated.
 #
 # Element: Ge,  Z =  32,  atomic weight = 7.26100E+01 g/mol
 #
 # Nuclear model: Fermi distribution
 #                Average radius = 4.46392E-13 cm
 #                Skin thickness = 5.46000E-14 cm
 #
 # Number of electrons = 32
 #
 # Total elastic cross section = 2.34666E-18 cm**2 = 8.38008E-02 a0**2
 # 1st transport cross section = 6.78228E-26 cm**2 = 2.42200E-09 a0**2
 # 2nd transport cross section = 2.02781E-25 cm**2 = 7.24144E-09 a0**2
 #
 #
 # Differential cross section:                       MU=(1-COS(THETA))/2
 #
 #  THETA        MU          DCS          DCS        Sherman      error
 #  (deg)                 (cm**2/sr)   (a0**2/sr)    function
 #----------------------------------------------------------------------
0.00000E+00 6.30547E-10
7.61557E-13 6.25648E-10
1.18994E-12 6.22922E-10
1.71346E-12 6.19617E-10
2.33225E-12 6.15747E-10
3.04617E-12 6.11329E-10
3.85530E-12 6.06384E-10
4.75964E-12 6.00932E-10
5.75917E-12 5.94997E-10
6.85391E-12 5.88603E-10
8.04379E-12 5.81743E-10
9.32893E-12 5.74478E-10
1.07092E-11 5.66893E-10
1.21847E-11 5.58948E-10
1.37554E-11 5.50622E-10
1.54213E-11 5.42081E-10
1.71823E-11 5.33297E-10
1.90386E-11 5.24174E-10
2.09900E-11 5.14937E-10
2.30367E-11 5.05586E-10
2.51785E-11 4.95927E-10
2.74156E-11 4.86248E-10
2.97478E-11 4.76577E-10
3.21752E-11 4.66631E-10
3.46979E-11 4.56744E-10
3.73157E-11 4.46941E-10
4.00286E-11 4.36965E-10
4.28368E-11 4.27074E-10
4.57402E-11 4.17328E-10
4.87388E-11 4.07508E-10
5.18325E-11 3.97785E-10
5.50215E-11 3.88253E-10
5.83057E-11 3.78737E-10
6.16850E-11 3.69317E-10
6.51595E-11 3.60122E-10
6.87293E-11 3.51018E-10
7.23943E-11 3.42006E-10
7.61544E-11 3.33238E-10
1.18991E-10 2.54783E-10
1.71347E-10 1.94139E-10
2.33223E-10 1.49162E-10
3.04617E-10 1.16270E-10
3.85531E-10 9.21754E-11
4.75965E-10 7.43308E-11
5.75917E-10 6.08912E-11
6.85389E-10 5.05881E-11
8.04380E-10 4.23157E-11
9.32891E-10 3.57795E-11
1.07092E-09 3.07576E-11
1.21847E-09 2.65923E-11
1.37554E-09 2.29459E-11
1.54213E-09 2.00473E-11
1.71823E-09 1.76186E-11
1.90386E-09 1.53856E-11
2.09900E-09 1.35653E-11
2.30367E-09 1.20408E-11
2.51785E-09 1.06020E-11
2.74156E-09 9.40591E-12
2.97478E-09 8.40351E-12
3.21752E-09 7.45141E-12
3.46978E-09 6.64615E-12
3.73156E-09 5.96153E-12
4.00286E-09 5.32701E-12
4.28368E-09 4.77644E-12
4.57402E-09 4.30257E-12
4.87388E-09 3.87101E-12
5.18326E-09 3.48983E-12
5.50215E-09 3.15820E-12
5.83057E-09 2.85930E-12
6.16850E-09 2.59212E-12
6.51596E-09 2.35743E-12
6.87293E-09 2.14687E-12
7.23942E-09 1.95714E-12
7.61544E-09 1.78903E-12
1.18991E-08 7.97508E-13
1.71347E-08 4.10472E-13
2.33223E-08 2.34764E-13
3.04617E-08 1.44715E-13
3.85531E-08 9.41274E-14
4.75965E-08 6.37568E-14
5.75917E-08 4.46145E-14
6.85389E-08 3.20796E-14
8.04380E-08 2.35961E-14
9.32891E-08 1.77353E-14
1.07092E-07 1.35740E-14
1.21847E-07 1.05542E-14
1.37554E-07 8.32857E-15
1.54213E-07 6.65958E-15
1.71823E-07 5.38857E-15
1.90386E-07 4.40720E-15
2.09900E-07 3.63945E-15
2.30367E-07 3.03230E-15
2.51785E-07 2.54702E-15
2.74156E-07 2.15535E-15
2.97478E-07 1.83636E-15
3.21752E-07 1.57434E-15
3.46978E-07 1.35756E-15
3.73156E-07 1.17693E-15
4.00286E-07 1.02545E-15
4.28368E-07 8.97618E-16
4.57402E-07 7.89090E-16
4.87388E-07 6.96509E-16
5.18325E-07 6.17134E-16
5.50215E-07 5.48762E-16
5.83057E-07 4.89609E-16
6.16850E-07 4.38201E-16
6.51596E-07 3.93370E-16
6.87293E-07 3.54130E-16
7.23942E-07 3.19663E-16
7.61543E-07 2.89288E-16
1.18991E-06 1.19739E-16
1.71347E-06 5.80934E-17
2.33223E-06 3.14712E-17
3.04617E-06 1.84903E-17
3.85531E-06 1.15612E-17
4.75964E-06 7.59349E-18
5.75916E-06 5.19059E-18
6.85388E-06 3.66714E-18
8.04378E-06 2.66372E-18
9.32888E-06 1.98118E-18
1.07092E-05 1.50390E-18
1.21846E-05 1.16207E-18
1.37553E-05 9.12077E-19
1.54212E-05 7.25840E-19
1.71822E-05 5.84806E-19
1.90385E-05 4.76383E-19
2.09899E-05 3.92056E-19
2.30365E-05 3.25582E-19
2.51783E-05 2.72603E-19
2.74153E-05 2.29962E-19
2.97475E-05 1.95336E-19
3.21749E-05 1.66989E-19
3.46974E-05 1.43607E-19
3.73152E-05 1.24184E-19
4.00281E-05 1.07941E-19
4.28362E-05 9.42711E-20
4.57395E-05 8.26993E-20
4.87380E-05 7.28492E-20
5.18317E-05 6.44220E-20
5.50205E-05 5.71782E-20
5.83045E-05 5.09245E-20
6.16838E-05 4.55032E-20
6.51582E-05 4.07853E-20
6.87277E-05 3.66641E-20
7.23925E-05 3.30512E-20
7.61524E-05 2.98761E-20
9.21439E-05 2.04165E-20
1.09658E-04 1.44222E-20
1.28695E-04 1.04760E-20
1.49255E-04 7.79187E-21
1.71338E-04 5.91530E-21
1.94942E-04 4.57121E-21
2.20070E-04 3.58819E-21
2.46720E-04 2.85583E-21
2.74892E-04 2.30114E-21
3.04586E-04 1.87485E-21
3.35803E-04 1.54284E-21
3.68542E-04 1.28118E-21
4.02802E-04 1.07270E-21
4.38585E-04 9.04946E-22
4.75889E-04 7.68729E-22
5.14715E-04 6.57190E-22
5.55063E-04 5.65157E-22
5.96931E-04 4.88673E-22
6.40321E-04 4.24690E-22
6.85233E-04 3.70834E-22
7.31665E-04 3.25240E-22
7.79618E-04 2.86435E-22
8.29092E-04 2.53239E-22
8.80086E-04 2.24707E-22
9.32601E-04 2.00076E-22
9.86636E-04 1.78721E-22
1.04219E-03 1.60135E-22
1.09927E-03 1.43897E-22
1.15786E-03 1.29660E-22
1.21797E-03 1.17135E-22
1.27961E-03 1.06082E-22
1.34276E-03 9.62983E-23
1.40743E-03 8.76122E-23
1.47362E-03 7.98797E-23
1.54133E-03 7.29780E-23
1.61056E-03 6.68022E-23
1.68131E-03 6.12628E-23
1.75357E-03 5.62828E-23
1.82735E-03 5.17957E-23
1.90265E-03 4.77443E-23
1.97947E-03 4.40789E-23
2.05780E-03 4.07561E-23
2.13765E-03 3.77384E-23
2.21902E-03 3.49927E-23
2.30190E-03 3.24903E-23
2.38630E-03 3.02058E-23
2.47222E-03 2.81168E-23
2.55965E-03 2.62036E-23
2.64859E-03 2.44489E-23
2.73905E-03 2.28371E-23
2.83103E-03 2.13547E-23
2.92452E-03 1.99892E-23
3.01952E-03 1.87299E-23
3.11604E-03 1.75671E-23
3.21407E-03 1.64920E-23
3.31362E-03 1.54969E-23
3.41468E-03 1.45747E-23
3.51725E-03 1.37191E-23
3.62133E-03 1.29245E-23
3.72692E-03 1.21858E-23
3.83403E-03 1.14982E-23
3.94265E-03 1.08578E-23
4.05278E-03 1.02605E-23
4.16442E-03 9.70309E-24
4.27757E-03 9.18235E-24
4.39223E-03 8.69544E-24
4.50840E-03 8.23978E-24
4.62608E-03 7.81301E-24
4.74527E-03 7.41296E-24
4.86597E-03 7.03767E-24
4.98817E-03 6.68533E-24
5.11188E-03 6.35430E-24
5.23711E-03 6.04305E-24
5.36383E-03 5.75018E-24
5.49207E-03 5.47444E-24
5.62181E-03 5.21462E-24
5.75306E-03 4.96966E-24
5.88581E-03 4.73855E-24
6.02007E-03 4.52037E-24
6.15583E-03 4.31427E-24
6.29310E-03 4.11946E-24
6.43187E-03 3.93522E-24
6.57214E-03 3.76087E-24
6.71392E-03 3.59579E-24
6.85720E-03 3.43939E-24
7.00198E-03 3.29115E-24
7.14827E-03 3.15056E-24
7.29605E-03 3.01715E-24
7.44534E-03 2.89050E-24
7.59612E-03 2.77021E-24
7.97965E-03 2.49488E-24
8.37255E-03 2.25179E-24
8.77480E-03 2.03659E-24
9.18641E-03 1.84555E-24
9.60736E-03 1.67555E-24
1.00376E-02 1.52390E-24
1.04773E-02 1.38830E-24
1.09262E-02 1.26681E-24
1.13844E-02 1.15771E-24
1.18520E-02 1.05955E-24
1.23288E-02 9.71070E-25
1.28150E-02 8.91162E-25
1.33104E-02 8.18870E-25
1.38150E-02 7.53358E-25
1.43290E-02 6.93896E-25
1.48521E-02 6.39839E-25
1.53845E-02 5.90625E-25
1.59262E-02 5.45755E-25
1.64770E-02 5.04789E-25
1.70371E-02 4.67338E-25
1.76063E-02 4.33057E-25
1.81848E-02 4.01639E-25
1.87724E-02 3.72811E-25
1.93692E-02 3.46330E-25
1.99751E-02 3.21977E-25
2.05901E-02 2.99557E-25
2.12143E-02 2.78897E-25
2.18476E-02 2.59840E-25
2.24900E-02 2.42243E-25
2.31415E-02 2.25982E-25
2.38021E-02 2.10940E-25
2.44717E-02 1.97014E-25
2.51504E-02 1.84112E-25
2.58382E-02 1.72148E-25
2.65349E-02 1.61045E-25
2.72407E-02 1.50734E-25
2.79555E-02 1.41151E-25
2.86793E-02 1.32239E-25
2.94120E-02 1.23945E-25
3.01537E-02 1.16221E-25
3.09043E-02 1.09024E-25
3.16639E-02 1.02313E-25
3.24324E-02 9.60522E-26
3.32098E-02 9.02077E-26
3.39961E-02 8.47489E-26
3.47912E-02 7.96476E-26
3.55952E-02 7.48778E-26
3.64081E-02 7.04159E-26
3.72297E-02 6.62399E-26
3.80602E-02 6.23297E-26
3.88995E-02 5.86666E-26
3.97476E-02 5.52336E-26
4.06044E-02 5.20148E-26
4.14700E-02 4.89957E-26
4.23443E-02 4.61626E-26
4.32273E-02 4.35032E-26
4.41190E-02 4.10058E-26
4.50194E-02 3.86598E-26
4.59284E-02 3.64551E-26
4.68461E-02 3.43826E-26
4.87074E-02 3.06006E-26
5.06030E-02 2.72522E-26
5.25328E-02 2.42843E-26
5.44967E-02 2.16509E-26
5.64946E-02 1.93120E-26
5.85262E-02 1.72327E-26
6.05914E-02 1.53827E-26
6.26901E-02 1.37353E-26
6.48222E-02 1.22674E-26
6.69873E-02 1.09585E-26
6.91854E-02 9.79077E-27
7.14163E-02 8.74834E-27
7.36799E-02 7.81735E-27
7.59760E-02 6.98553E-27
7.83043E-02 6.24204E-27
8.06647E-02 5.57729E-27
8.30571E-02 4.98278E-27
8.54812E-02 4.45095E-27
8.79369E-02 3.97512E-27
9.04240E-02 3.54934E-27
9.29422E-02 3.16830E-27
9.54915E-02 2.82730E-27
9.80716E-02 2.52211E-27
1.00682E-01 2.24900E-27
1.03323E-01 2.00462E-27
1.05995E-01 1.78596E-27
1.08696E-01 1.59036E-27
1.11427E-01 1.41543E-27
1.14188E-01 1.25901E-27
1.16978E-01 1.11919E-27
1.19797E-01 9.94252E-28
1.22645E-01 8.82656E-28
1.25522E-01 7.83018E-28
1.28428E-01 6.94100E-28
1.31361E-01 6.14790E-28
1.34323E-01 5.44088E-28
1.37313E-01 4.81099E-28
1.40330E-01 4.25019E-28
1.43375E-01 3.75125E-28
1.46447E-01 3.30769E-28
1.49545E-01 2.91367E-28
1.52671E-01 2.56397E-28
1.55823E-01 2.25388E-28
1.59001E-01 1.97920E-28
1.62205E-01 1.73613E-28
1.65435E-01 1.52127E-28
1.68690E-01 1.33157E-28
1.71970E-01 1.16429E-28
1.75276E-01 1.01697E-28
1.78606E-01 8.87424E-29
1.81961E-01 7.73664E-29
1.85340E-01 6.73924E-29
1.88743E-01 5.86623E-29
1.92169E-01 5.10343E-29
1.95619E-01 4.43816E-29
1.99092E-01 3.85909E-29
2.02589E-01 3.35611E-29
2.06107E-01 2.92018E-29
2.09649E-01 2.54324E-29
2.13212E-01 2.21811E-29
2.16797E-01 1.93842E-29
2.20404E-01 1.69848E-29
2.24032E-01 1.49324E-29
2.27680E-01 1.31823E-29
2.31350E-01 1.16948E-29
2.35040E-01 1.04349E-29
2.38751E-01 9.37161E-30
2.42481E-01 8.47752E-30
2.46231E-01 7.72863E-30
2.50000E-01 7.10380E-30
2.53788E-01 6.58450E-30
2.57595E-01 6.15451E-30
2.61421E-01 5.79969E-30
2.65264E-01 5.50774E-30
2.69126E-01 5.26797E-30
2.73005E-01 5.07113E-30
2.76901E-01 4.90928E-30
2.80814E-01 4.77559E-30
2.84744E-01 4.66421E-30
2.88691E-01 4.57020E-30
2.92653E-01 4.48935E-30
2.96632E-01 4.41817E-30
3.00625E-01 4.35372E-30
3.04634E-01 4.29360E-30
3.08658E-01 4.23583E-30
3.12697E-01 4.17885E-30
3.16749E-01 4.12140E-30
3.20816E-01 4.06252E-30
3.24896E-01 4.00151E-30
3.28990E-01 3.93784E-30
3.33097E-01 3.87119E-30
3.37216E-01 3.80137E-30
3.41348E-01 3.72831E-30
3.45492E-01 3.65204E-30
3.49647E-01 3.57269E-30
3.53814E-01 3.49042E-30
3.57992E-01 3.40546E-30
3.62181E-01 3.31809E-30
3.66381E-01 3.22859E-30
3.70590E-01 3.13726E-30
3.74810E-01 3.04444E-30
3.79039E-01 2.95044E-30
3.83277E-01 2.85558E-30
3.87524E-01 2.76019E-30
3.91780E-01 2.66456E-30
3.96044E-01 2.56900E-30
4.00316E-01 2.47378E-30
4.04596E-01 2.37917E-30
4.08882E-01 2.28540E-30
4.13176E-01 2.19272E-30
4.17476E-01 2.10133E-30
4.21783E-01 2.01142E-30
4.26095E-01 1.92316E-30
4.30413E-01 1.83671E-30
4.34737E-01 1.75219E-30
4.39065E-01 1.66974E-30
4.43398E-01 1.58945E-30
4.47736E-01 1.51139E-30
4.52077E-01 1.43566E-30
4.56422E-01 1.36229E-30
4.60770E-01 1.29133E-30
4.65122E-01 1.22281E-30
4.69476E-01 1.15675E-30
4.73832E-01 1.09315E-30
4.78190E-01 1.03200E-30
4.82550E-01 9.73307E-31
4.86912E-01 9.17037E-31
4.91274E-01 8.63165E-31
4.95637E-01 8.11655E-31
5.00000E-01 7.62467E-31
5.04363E-01 7.15556E-31
5.08726E-01 6.70870E-31
5.13088E-01 6.28357E-31
5.17450E-01 5.87958E-31
5.21810E-01 5.49614E-31
5.26168E-01 5.13262E-31
5.30524E-01 4.78838E-31
5.34878E-01 4.46277E-31
5.39230E-01 4.15513E-31
5.43578E-01 3.86479E-31
5.47923E-01 3.59108E-31
5.52264E-01 3.33334E-31
5.56602E-01 3.09089E-31
5.60935E-01 2.86309E-31
5.65263E-01 2.64929E-31
5.69587E-01 2.44883E-31
5.73905E-01 2.26111E-31
5.78217E-01 2.08550E-31
5.82524E-01 1.92140E-31
5.86824E-01 1.76823E-31
5.91118E-01 1.62543E-31
5.95404E-01 1.49244E-31
5.99684E-01 1.36874E-31
6.03956E-01 1.25380E-31
6.08220E-01 1.14714E-31
6.12476E-01 1.04828E-31
6.16723E-01 9.56752E-32
6.20961E-01 8.72129E-32
6.25190E-01 7.93985E-32
6.29410E-01 7.21919E-32
6.33619E-01 6.55547E-32
6.37819E-01 5.94503E-32
6.42008E-01 5.38438E-32
6.46186E-01 4.87022E-32
6.50353E-01 4.39939E-32
6.54508E-01 3.96892E-32
6.58652E-01 3.57598E-32
6.62784E-01 3.21789E-32
6.66903E-01 2.89214E-32
6.71010E-01 2.59635E-32
6.75104E-01 2.32827E-32
6.79184E-01 2.08580E-32
6.83251E-01 1.86695E-32
6.87303E-01 1.66985E-32
6.91342E-01 1.49277E-32
6.95366E-01 1.33407E-32
6.99375E-01 1.19223E-32
7.03368E-01 1.06581E-32
7.07347E-01 9.53480E-33
7.11309E-01 8.54008E-33
7.15256E-01 7.66237E-33
7.19186E-01 6.89093E-33
7.23099E-01 6.21584E-33
7.26995E-01 5.62787E-33
7.30874E-01 5.11849E-33
7.34736E-01 4.67983E-33
7.38579E-01 4.30462E-33
7.42405E-01 3.98615E-33
7.46212E-01 3.71828E-33
7.50000E-01 3.49534E-33
7.53769E-01 3.31216E-33
7.57519E-01 3.16399E-33
7.61249E-01 3.04652E-33
7.64960E-01 2.95578E-33
7.68650E-01 2.88819E-33
7.72320E-01 2.84051E-33
7.75968E-01 2.80977E-33
7.79596E-01 2.79332E-33
7.83203E-01 2.78877E-33
7.86788E-01 2.79396E-33
7.90351E-01 2.80697E-33
7.93893E-01 2.82608E-33
7.97411E-01 2.84976E-33
8.00908E-01 2.87668E-33
8.04381E-01 2.90563E-33
8.07831E-01 2.93559E-33
8.11257E-01 2.96564E-33
8.14660E-01 2.99501E-33
8.18039E-01 3.02303E-33
8.21394E-01 3.04913E-33
8.24724E-01 3.07284E-33
8.28030E-01 3.09376E-33
8.31310E-01 3.11158E-33
8.34565E-01 3.12605E-33
8.37795E-01 3.13698E-33
8.40999E-01 3.14423E-33
8.44177E-01 3.14772E-33
8.47329E-01 3.14740E-33
8.50455E-01 3.14327E-33
8.53553E-01 3.13534E-33
8.56625E-01 3.12367E-33
8.59670E-01 3.10834E-33
8.62687E-01 3.08944E-33
8.65677E-01 3.06709E-33
8.68639E-01 3.04141E-33
8.71572E-01 3.01256E-33
8.74478E-01 2.98069E-33
8.77355E-01 2.94594E-33
8.80203E-01 2.90849E-33
8.83022E-01 2.86850E-33
8.85812E-01 2.82615E-33
8.88573E-01 2.78161E-33
8.91304E-01 2.73505E-33
8.94005E-01 2.68664E-33
8.96677E-01 2.63655E-33
8.99318E-01 2.58495E-33
9.01928E-01 2.53199E-33
9.04508E-01 2.47784E-33
9.07058E-01 2.42265E-33
9.09576E-01 2.36657E-33
9.12063E-01 2.30974E-33
9.14519E-01 2.25230E-33
9.16943E-01 2.19438E-33
9.19335E-01 2.13611E-33
9.21696E-01 2.07760E-33
9.24024E-01 2.01898E-33
9.26320E-01 1.96035E-33
9.28584E-01 1.90181E-33
9.30815E-01 1.84345E-33
9.33013E-01 1.78538E-33
9.35178E-01 1.72767E-33
9.37310E-01 1.67040E-33
9.39409E-01 1.61364E-33
9.41474E-01 1.55747E-33
9.43505E-01 1.50195E-33
9.45503E-01 1.44713E-33
9.47467E-01 1.39307E-33
9.49397E-01 1.33981E-33
9.51293E-01 1.28741E-33
9.53154E-01 1.23590E-33
9.54981E-01 1.18531E-33
9.56773E-01 1.13569E-33
9.58530E-01 1.08705E-33
9.60252E-01 1.03943E-33
9.61940E-01 9.92849E-34
9.63592E-01 9.47321E-34
9.65209E-01 9.02864E-34
9.66790E-01 8.59496E-34
9.68336E-01 8.17224E-34
9.69846E-01 7.76059E-34
9.71321E-01 7.36008E-34
9.72759E-01 6.97074E-34
9.74162E-01 6.59263E-34
9.75528E-01 6.22574E-34
9.76858E-01 5.87010E-34
9.78152E-01 5.52565E-34
9.79410E-01 5.19241E-34
9.80631E-01 4.87032E-34
9.81815E-01 4.55934E-34
9.82963E-01 4.25941E-34
9.84074E-01 3.97045E-34
9.85148E-01 3.69242E-34
9.86185E-01 3.42523E-34
9.87185E-01 3.16878E-34
9.88148E-01 2.92302E-34
9.89074E-01 2.68784E-34
9.89962E-01 2.46315E-34
9.90814E-01 2.24888E-34
9.91627E-01 2.04491E-34
9.92404E-01 1.85116E-34
9.93143E-01 1.66754E-34
9.93844E-01 1.49396E-34
9.94508E-01 1.33033E-34
9.95134E-01 1.17656E-34
9.95722E-01 1.03257E-34
9.96273E-01 8.98275E-35
9.96786E-01 7.73606E-35
9.97261E-01 6.58481E-35
9.97698E-01 5.52838E-35
9.98097E-01 4.56606E-35
9.98459E-01 3.69724E-35
9.98782E-01 2.92139E-35
9.99067E-01 2.23809E-35
9.99315E-01 1.64673E-35
9.99524E-01 1.14707E-35
9.99695E-01 7.38680E-36
9.99829E-01 4.21336E-36
9.99924E-01 1.94818E-36
9.99981E-01 5.89656E-37
1.00000E+00 1.37133E-37
