 #
 # Subroutine ELSEPA. Elastic scattering of electrons and positrons
 #                    by neutral atoms and positive ions
 #
 # Projectile: electron
 # Kinetic energy = 6.00000E+06 eV = 2.20496E+05 a.u.
 #
 # WARNING: High-energy factorization with free-atom DF screening.
 #          Absorption, polarization and exchange corrections are
 #          switched off.
 #          Phase shifts are calculated for the bare nucleus.
 #          Scattering amplitudes are not evaluated.
 #
 # Element: Ge,  Z =  32,  atomic weight = 7.26100E+01 g/mol
 #
 # Nuclear model: Fermi distribution
 #                Average radius = 4.46392E-13 cm
 #                Skin thickness = 5.46000E-14 cm
 #
 # Number of electrons = 32
 #
 # Total elastic cross section = 2.36286E-18 cm**2 = 8.43793E-02 a0**2
 # 1st transport cross section = 3.91074E-23 cm**2 = 1.39655E-06 a0**2
 # 2nd transport cross section = 1.10835E-22 cm**2 = 3.95800E-06 a0**2
 #
 #
 # Differential cross section:                       MU=(1-COS(THETA))/2
 #
 #  THETA        MU          DCS          DCS        Sherman      error
 #  (deg)                 (cm**2/sr)   (a0**2/sr)    function
 #----------------------------------------------------------------------
0.00000E+00 8.67768E-13
7.61557E-13 8.67759E-13
1.18994E-12 8.67754E-13
1.71346E-12 8.67747E-13
2.33225E-12 8.67740E-13
3.04617E-12 8.67731E-13
3.85530E-12 8.67721E-13
4.75964E-12 8.67710E-13
5.75917E-12 8.67698E-13
6.85391E-12 8.67685E-13
8.04379E-12 8.67670E-13
9.32893E-12 8.67654E-13
1.07092E-11 8.67638E-13
1.21847E-11 8.67620E-13
1.37554E-11 8.67601E-13
1.54213E-11 8.67580E-13
1.71823E-11 8.67559E-13
1.90386E-11 8.67536E-13
2.09900E-11 8.67513E-13
2.30367E-11 8.67488E-13
2.51785E-11 8.67462E-13
2.74156E-11 8.67434E-13
2.97478E-11 8.67406E-13
3.21752E-11 8.67377E-13
3.46979E-11 8.67346E-13
3.73157E-11 8.67314E-13
4.00286E-11 8.67281E-13
4.28368E-11 8.67247E-13
4.57402E-11 8.67212E-13
4.87388E-11 8.67175E-13
5.18325E-11 8.67138E-13
5.50215E-11 8.67099E-13
5.83057E-11 8.67059E-13
6.16850E-11 8.67018E-13
6.51595E-11 8.66976E-13
6.87293E-11 8.66932E-13
7.23943E-11 8.66888E-13
7.61544E-11 8.66842E-13
1.18991E-10 8.66322E-13
1.71347E-10 8.65688E-13
2.33223E-10 8.64939E-13
3.04617E-10 8.64076E-13
3.85531E-10 8.63099E-13
4.75965E-10 8.62010E-13
5.75917E-10 8.60809E-13
6.85389E-10 8.59496E-13
8.04380E-10 8.58073E-13
9.32891E-10 8.56540E-13
1.07092E-09 8.54899E-13
1.21847E-09 8.53150E-13
1.37554E-09 8.51294E-13
1.54213E-09 8.49333E-13
1.71823E-09 8.47268E-13
1.90386E-09 8.45099E-13
2.09900E-09 8.42830E-13
2.30367E-09 8.40459E-13
2.51785E-09 8.37990E-13
2.74156E-09 8.35423E-13
2.97478E-09 8.32761E-13
3.21752E-09 8.30004E-13
3.46978E-09 8.27155E-13
3.73156E-09 8.24214E-13
4.00286E-09 8.21184E-13
4.28368E-09 8.18066E-13
4.57402E-09 8.14863E-13
4.87388E-09 8.11575E-13
5.18326E-09 8.08206E-13
5.50215E-09 8.04748E-13
5.83057E-09 8.01184E-13
6.16850E-09 7.97552E-13
6.51596E-09 7.93855E-13
6.87293E-09 7.90095E-13
7.23942E-09 7.86276E-13
7.61544E-09 7.82399E-13
1.18991E-08 7.40195E-13
1.71347E-08 6.93328E-13
2.33223E-08 6.43770E-13
3.04617E-08 5.93412E-13
3.85531E-08 5.43737E-13
4.75965E-08 4.95880E-13
5.75917E-08 4.50626E-13
6.85389E-08 4.08321E-13
8.04380E-08 3.69435E-13
9.32891E-08 3.34030E-13
1.07092E-07 3.02032E-13
1.21847E-07 2.73272E-13
1.37554E-07 2.47480E-13
1.54213E-07 2.24440E-13
1.71823E-07 2.03919E-13
1.90386E-07 1.85657E-13
2.09900E-07 1.69406E-13
2.30367E-07 1.54932E-13
2.51785E-07 1.42007E-13
2.74156E-07 1.30474E-13
2.97478E-07 1.20165E-13
3.21752E-07 1.10929E-13
3.46978E-07 1.02638E-13
3.73156E-07 9.51653E-14
4.00286E-07 8.84197E-14
4.28368E-07 8.23188E-14
4.57402E-07 7.67864E-14
4.87388E-07 7.17563E-14
5.18325E-07 6.71691E-14
5.50215E-07 6.29194E-14
5.83057E-07 5.88416E-14
6.16850E-07 5.51682E-14
6.51596E-07 5.18506E-14
6.87293E-07 4.88468E-14
7.23942E-07 4.61206E-14
7.61543E-07 4.36405E-14
1.18991E-06 2.59423E-14
1.71347E-06 1.61777E-14
2.33223E-06 1.03998E-14
3.04617E-06 6.87979E-15
3.85531E-06 4.67168E-15
4.75964E-06 3.25359E-15
5.75916E-06 2.32245E-15
6.85388E-06 1.69642E-15
8.04378E-06 1.26798E-15
9.32888E-06 9.67800E-16
1.07092E-05 7.52726E-16
1.21846E-05 5.95339E-16
1.37553E-05 4.77854E-16
1.54212E-05 3.88449E-16
1.71822E-05 3.19421E-16
1.90385E-05 2.65311E-16
2.09899E-05 2.22396E-16
2.30365E-05 1.87881E-16
2.51783E-05 1.59791E-16
2.74153E-05 1.36747E-16
2.97475E-05 1.17691E-16
3.21749E-05 1.01821E-16
3.46974E-05 8.85207E-17
3.73152E-05 7.72988E-17
4.00281E-05 6.77820E-17
4.28362E-05 5.96707E-17
4.57395E-05 5.27224E-17
4.87380E-05 4.67429E-17
5.18317E-05 4.15751E-17
5.50205E-05 3.70862E-17
5.83045E-05 3.31680E-17
6.16838E-05 2.97637E-17
6.51582E-05 2.67944E-17
6.87277E-05 2.41671E-17
7.23925E-05 2.18536E-17
7.61524E-05 1.98150E-17
9.21439E-05 1.36791E-17
1.09658E-04 9.73844E-18
1.28695E-04 7.12089E-18
1.49255E-04 5.32795E-18
1.71338E-04 4.06695E-18
1.94942E-04 3.15897E-18
2.20070E-04 2.49150E-18
2.46720E-04 1.99190E-18
2.74892E-04 1.61182E-18
3.04586E-04 1.31849E-18
3.35803E-04 1.08910E-18
3.68542E-04 9.07603E-19
4.02802E-04 7.62420E-19
4.38585E-04 6.45186E-19
4.75889E-04 5.49673E-19
5.14715E-04 4.71216E-19
5.55063E-04 4.06285E-19
5.96931E-04 3.52162E-19
6.40321E-04 3.06763E-19
6.85233E-04 2.68453E-19
7.31665E-04 2.35944E-19
7.79618E-04 2.08213E-19
8.29092E-04 1.84440E-19
8.80086E-04 1.63965E-19
9.32601E-04 1.46255E-19
9.86636E-04 1.30874E-19
1.04219E-03 1.17464E-19
1.09927E-03 1.05729E-19
1.15786E-03 9.54245E-20
1.21797E-03 8.63458E-20
1.27961E-03 7.83225E-20
1.34276E-03 7.12107E-20
1.40743E-03 6.48888E-20
1.47362E-03 5.92538E-20
1.54133E-03 5.42178E-20
1.61056E-03 4.97064E-20
1.68131E-03 4.56552E-20
1.75357E-03 4.20090E-20
1.82735E-03 3.87203E-20
1.90265E-03 3.57475E-20
1.97947E-03 3.30551E-20
2.05780E-03 3.06119E-20
2.13765E-03 2.83907E-20
2.21902E-03 2.63678E-20
2.30190E-03 2.45222E-20
2.38630E-03 2.28356E-20
2.47222E-03 2.12919E-20
2.55965E-03 1.98767E-20
2.64859E-03 1.85775E-20
2.73905E-03 1.73829E-20
2.83103E-03 1.62831E-20
2.92452E-03 1.52691E-20
3.01952E-03 1.43330E-20
3.11604E-03 1.34678E-20
3.21407E-03 1.26670E-20
3.31362E-03 1.19251E-20
3.41468E-03 1.12369E-20
3.51725E-03 1.05977E-20
3.62133E-03 1.00035E-20
3.72692E-03 9.45049E-21
3.83403E-03 8.93529E-21
3.94265E-03 8.45484E-21
4.05278E-03 8.00636E-21
4.16442E-03 7.58732E-21
4.27757E-03 7.19544E-21
4.39223E-03 6.82863E-21
4.50840E-03 6.48498E-21
4.62608E-03 6.16275E-21
4.74527E-03 5.86037E-21
4.86597E-03 5.57637E-21
4.98817E-03 5.30944E-21
5.11188E-03 5.05836E-21
5.23711E-03 4.82200E-21
5.36383E-03 4.59934E-21
5.49207E-03 4.38943E-21
5.62181E-03 4.19142E-21
5.75306E-03 4.00449E-21
5.88581E-03 3.82791E-21
6.02007E-03 3.66101E-21
6.15583E-03 3.50313E-21
6.29310E-03 3.35372E-21
6.43187E-03 3.21222E-21
6.57214E-03 3.07814E-21
6.71392E-03 2.95101E-21
6.85720E-03 2.83042E-21
7.00198E-03 2.71594E-21
7.14827E-03 2.60723E-21
7.29605E-03 2.50392E-21
7.44534E-03 2.40571E-21
7.59612E-03 2.31228E-21
7.97965E-03 2.09791E-21
8.37255E-03 1.90793E-21
8.77480E-03 1.73907E-21
9.18641E-03 1.58858E-21
9.60736E-03 1.45410E-21
1.00376E-02 1.33362E-21
1.04773E-02 1.22543E-21
1.09262E-02 1.12805E-21
1.13844E-02 1.04021E-21
1.18520E-02 9.60795E-22
1.23288E-02 8.88859E-22
1.28150E-02 8.23568E-22
1.33104E-02 7.64198E-22
1.38150E-02 7.10112E-22
1.43290E-02 6.60756E-22
1.48521E-02 6.15639E-22
1.53845E-02 5.74331E-22
1.59262E-02 5.36450E-22
1.64770E-02 5.01661E-22
1.70371E-02 4.69664E-22
1.76063E-02 4.40193E-22
1.81848E-02 4.13012E-22
1.87724E-02 3.87911E-22
1.93692E-02 3.64700E-22
1.99751E-02 3.43210E-22
2.05901E-02 3.23290E-22
2.12143E-02 3.04804E-22
2.18476E-02 2.87629E-22
2.24900E-02 2.71654E-22
2.31415E-02 2.56781E-22
2.38021E-02 2.42918E-22
2.44717E-02 2.29985E-22
2.51504E-02 2.17907E-22
2.58382E-02 2.06616E-22
2.65349E-02 1.96053E-22
2.72407E-02 1.86160E-22
2.79555E-02 1.76888E-22
2.86793E-02 1.68189E-22
2.94120E-02 1.60023E-22
3.01537E-02 1.52349E-22
3.09043E-02 1.45133E-22
3.16639E-02 1.38342E-22
3.24324E-02 1.31947E-22
3.32098E-02 1.25919E-22
3.39961E-02 1.20234E-22
3.47912E-02 1.14868E-22
3.55952E-02 1.09800E-22
3.64081E-02 1.05010E-22
3.72297E-02 1.00481E-22
3.80602E-02 9.61946E-23
3.88995E-02 9.21360E-23
3.97476E-02 8.82906E-23
4.06044E-02 8.46450E-23
4.14700E-02 8.11869E-23
4.23443E-02 7.79047E-23
4.32273E-02 7.47878E-23
4.41190E-02 7.18262E-23
4.50194E-02 6.90106E-23
4.59284E-02 6.63326E-23
4.68461E-02 6.37840E-23
4.87074E-02 5.90458E-23
5.06030E-02 5.47420E-23
5.25328E-02 5.08255E-23
5.44967E-02 4.72550E-23
5.64946E-02 4.39943E-23
5.85262E-02 4.10114E-23
6.05914E-02 3.82784E-23
6.26901E-02 3.57705E-23
6.48222E-02 3.34656E-23
6.69873E-02 3.13442E-23
6.91854E-02 2.93890E-23
7.14163E-02 2.75845E-23
7.36799E-02 2.59170E-23
7.59760E-02 2.43740E-23
7.83043E-02 2.29446E-23
8.06647E-02 2.16188E-23
8.30571E-02 2.03876E-23
8.54812E-02 1.92431E-23
8.79369E-02 1.81780E-23
9.04240E-02 1.71857E-23
9.29422E-02 1.62604E-23
9.54915E-02 1.53965E-23
9.80716E-02 1.45894E-23
1.00682E-01 1.38345E-23
1.03323E-01 1.31278E-23
1.05995E-01 1.24657E-23
1.08696E-01 1.18448E-23
1.11427E-01 1.12620E-23
1.14188E-01 1.07147E-23
1.16978E-01 1.02001E-23
1.19797E-01 9.71598E-24
1.22645E-01 9.26020E-24
1.25522E-01 8.83076E-24
1.28428E-01 8.42584E-24
1.31361E-01 8.04379E-24
1.34323E-01 7.68307E-24
1.37313E-01 7.34226E-24
1.40330E-01 7.02004E-24
1.43375E-01 6.71521E-24
1.46447E-01 6.42664E-24
1.49545E-01 6.15331E-24
1.52671E-01 5.89426E-24
1.55823E-01 5.64860E-24
1.59001E-01 5.41550E-24
1.62205E-01 5.19420E-24
1.65435E-01 4.98397E-24
1.68690E-01 4.78418E-24
1.71970E-01 4.59419E-24
1.75276E-01 4.41345E-24
1.78606E-01 4.24140E-24
1.81961E-01 4.07754E-24
1.85340E-01 3.92142E-24
1.88743E-01 3.77260E-24
1.92169E-01 3.63068E-24
1.95619E-01 3.49527E-24
1.99092E-01 3.36602E-24
2.02589E-01 3.24258E-24
2.06107E-01 3.12466E-24
2.09649E-01 3.01195E-24
2.13212E-01 2.90419E-24
2.16797E-01 2.80112E-24
2.20404E-01 2.70248E-24
2.24032E-01 2.60806E-24
2.27680E-01 2.51763E-24
2.31350E-01 2.43100E-24
2.35040E-01 2.34799E-24
2.38751E-01 2.26841E-24
2.42481E-01 2.19208E-24
2.46231E-01 2.11884E-24
2.50000E-01 2.04857E-24
2.53788E-01 1.98111E-24
2.57595E-01 1.91632E-24
2.61421E-01 1.85408E-24
2.65264E-01 1.79426E-24
2.69126E-01 1.73677E-24
2.73005E-01 1.68150E-24
2.76901E-01 1.62832E-24
2.80814E-01 1.57717E-24
2.84744E-01 1.52793E-24
2.88691E-01 1.48053E-24
2.92653E-01 1.43489E-24
2.96632E-01 1.39093E-24
3.00625E-01 1.34857E-24
3.04634E-01 1.30775E-24
3.08658E-01 1.26840E-24
3.12697E-01 1.23045E-24
3.16749E-01 1.19385E-24
3.20816E-01 1.15855E-24
3.24896E-01 1.12447E-24
3.28990E-01 1.09159E-24
3.33097E-01 1.05984E-24
3.37216E-01 1.02917E-24
3.41348E-01 9.99558E-25
3.45492E-01 9.70944E-25
3.49647E-01 9.43293E-25
3.53814E-01 9.16566E-25
3.57992E-01 8.90727E-25
3.62181E-01 8.65741E-25
3.66381E-01 8.41574E-25
3.70590E-01 8.18195E-25
3.74810E-01 7.95572E-25
3.79039E-01 7.73678E-25
3.83277E-01 7.52485E-25
3.87524E-01 7.31965E-25
3.91780E-01 7.12095E-25
3.96044E-01 6.92848E-25
4.00316E-01 6.74203E-25
4.04596E-01 6.56136E-25
4.08882E-01 6.38628E-25
4.13176E-01 6.21656E-25
4.17476E-01 6.05203E-25
4.21783E-01 5.89249E-25
4.26095E-01 5.73777E-25
4.30413E-01 5.58768E-25
4.34737E-01 5.44208E-25
4.39065E-01 5.30079E-25
4.43398E-01 5.16368E-25
4.47736E-01 5.03059E-25
4.52077E-01 4.90139E-25
4.56422E-01 4.77594E-25
4.60770E-01 4.65411E-25
4.65122E-01 4.53579E-25
4.69476E-01 4.42084E-25
4.73832E-01 4.30917E-25
4.78190E-01 4.20066E-25
4.82550E-01 4.09520E-25
4.86912E-01 3.99269E-25
4.91274E-01 3.89304E-25
4.95637E-01 3.79615E-25
5.00000E-01 3.70194E-25
5.04363E-01 3.61032E-25
5.08726E-01 3.52119E-25
5.13088E-01 3.43449E-25
5.17450E-01 3.35014E-25
5.21810E-01 3.26806E-25
5.26168E-01 3.18818E-25
5.30524E-01 3.11044E-25
5.34878E-01 3.03475E-25
5.39230E-01 2.96107E-25
5.43578E-01 2.88933E-25
5.47923E-01 2.81947E-25
5.52264E-01 2.75143E-25
5.56602E-01 2.68516E-25
5.60935E-01 2.62060E-25
5.65263E-01 2.55770E-25
5.69587E-01 2.49642E-25
5.73905E-01 2.43670E-25
5.78217E-01 2.37849E-25
5.82524E-01 2.32176E-25
5.86824E-01 2.26646E-25
5.91118E-01 2.21255E-25
5.95404E-01 2.15999E-25
5.99684E-01 2.10873E-25
6.03956E-01 2.05875E-25
6.08220E-01 2.01000E-25
6.12476E-01 1.96245E-25
6.16723E-01 1.91607E-25
6.20961E-01 1.87082E-25
6.25190E-01 1.82666E-25
6.29410E-01 1.78358E-25
6.33619E-01 1.74154E-25
6.37819E-01 1.70051E-25
6.42008E-01 1.66046E-25
6.46186E-01 1.62137E-25
6.50353E-01 1.58321E-25
6.54508E-01 1.54596E-25
6.58652E-01 1.50958E-25
6.62784E-01 1.47406E-25
6.66903E-01 1.43937E-25
6.71010E-01 1.40550E-25
6.75104E-01 1.37241E-25
6.79184E-01 1.34010E-25
6.83251E-01 1.30853E-25
6.87303E-01 1.27769E-25
6.91342E-01 1.24756E-25
6.95366E-01 1.21812E-25
6.99375E-01 1.18936E-25
7.03368E-01 1.16125E-25
7.07347E-01 1.13378E-25
7.11309E-01 1.10693E-25
7.15256E-01 1.08069E-25
7.19186E-01 1.05504E-25
7.23099E-01 1.02997E-25
7.26995E-01 1.00546E-25
7.30874E-01 9.81496E-26
7.34736E-01 9.58069E-26
7.38579E-01 9.35163E-26
7.42405E-01 9.12765E-26
7.46212E-01 8.90863E-26
7.50000E-01 8.69445E-26
7.53769E-01 8.48499E-26
7.57519E-01 8.28014E-26
7.61249E-01 8.07978E-26
7.64960E-01 7.88381E-26
7.68650E-01 7.69212E-26
7.72320E-01 7.50461E-26
7.75968E-01 7.32118E-26
7.79596E-01 7.14174E-26
7.83203E-01 6.96619E-26
7.86788E-01 6.79444E-26
7.90351E-01 6.62640E-26
7.93893E-01 6.46199E-26
7.97411E-01 6.30113E-26
8.00908E-01 6.14372E-26
8.04381E-01 5.98970E-26
8.07831E-01 5.83899E-26
8.11257E-01 5.69150E-26
8.14660E-01 5.54718E-26
8.18039E-01 5.40594E-26
8.21394E-01 5.26773E-26
8.24724E-01 5.13247E-26
8.28030E-01 5.00009E-26
8.31310E-01 4.87054E-26
8.34565E-01 4.74376E-26
8.37795E-01 4.61967E-26
8.40999E-01 4.49823E-26
8.44177E-01 4.37938E-26
8.47329E-01 4.26307E-26
8.50455E-01 4.14923E-26
8.53553E-01 4.03782E-26
8.56625E-01 3.92878E-26
8.59670E-01 3.82207E-26
8.62687E-01 3.71764E-26
8.65677E-01 3.61544E-26
8.68639E-01 3.51543E-26
8.71572E-01 3.41755E-26
8.74478E-01 3.32178E-26
8.77355E-01 3.22805E-26
8.80203E-01 3.13635E-26
8.83022E-01 3.04661E-26
8.85812E-01 2.95882E-26
8.88573E-01 2.87291E-26
8.91304E-01 2.78887E-26
8.94005E-01 2.70666E-26
8.96677E-01 2.62623E-26
8.99318E-01 2.54756E-26
9.01928E-01 2.47060E-26
9.04508E-01 2.39534E-26
9.07058E-01 2.32174E-26
9.09576E-01 2.24976E-26
9.12063E-01 2.17938E-26
9.14519E-01 2.11057E-26
9.16943E-01 2.04330E-26
9.19335E-01 1.97754E-26
9.21696E-01 1.91327E-26
9.24024E-01 1.85045E-26
9.26320E-01 1.78907E-26
9.28584E-01 1.72910E-26
9.30815E-01 1.67052E-26
9.33013E-01 1.61330E-26
9.35178E-01 1.55741E-26
9.37310E-01 1.50284E-26
9.39409E-01 1.44957E-26
9.41474E-01 1.39757E-26
9.43505E-01 1.34683E-26
9.45503E-01 1.29732E-26
9.47467E-01 1.24902E-26
9.49397E-01 1.20192E-26
9.51293E-01 1.15600E-26
9.53154E-01 1.11124E-26
9.54981E-01 1.06762E-26
9.56773E-01 1.02513E-26
9.58530E-01 9.83743E-27
9.60252E-01 9.43453E-27
9.61940E-01 9.04241E-27
9.63592E-01 8.66093E-27
9.65209E-01 8.28995E-27
9.66790E-01 7.92932E-27
9.68336E-01 7.57891E-27
9.69846E-01 7.23858E-27
9.71321E-01 6.90822E-27
9.72759E-01 6.58769E-27
9.74162E-01 6.27687E-27
9.75528E-01 5.97566E-27
9.76858E-01 5.68394E-27
9.78152E-01 5.40160E-27
9.79410E-01 5.12854E-27
9.80631E-01 4.86465E-27
9.81815E-01 4.60985E-27
9.82963E-01 4.36404E-27
9.84074E-01 4.12712E-27
9.85148E-01 3.89901E-27
9.86185E-01 3.67964E-27
9.87185E-01 3.46891E-27
9.88148E-01 3.26675E-27
9.89074E-01 3.07310E-27
9.89962E-01 2.88787E-27
9.90814E-01 2.71100E-27
9.91627E-01 2.54244E-27
9.92404E-01 2.38211E-27
9.93143E-01 2.22996E-27
9.93844E-01 2.08594E-27
9.94508E-01 1.94999E-27
9.95134E-01 1.82207E-27
9.95722E-01 1.70212E-27
9.96273E-01 1.59012E-27
9.96786E-01 1.48601E-27
9.97261E-01 1.38976E-27
9.97698E-01 1.30133E-27
9.98097E-01 1.22070E-27
9.98459E-01 1.14784E-27
9.98782E-01 1.08271E-27
9.99067E-01 1.02530E-27
9.99315E-01 9.75585E-28
9.99524E-01 9.33549E-28
9.99695E-01 8.99176E-28
9.99829E-01 8.72454E-28
9.99924E-01 8.53374E-28
9.99981E-01 8.41929E-28
1.00000E+00 8.38115E-28
