 #
 # Subroutine ELSEPA. Elastic scattering of electrons and positrons
 #                    by neutral atoms and positive ions
 #
 # Projectile: electron
 # Kinetic energy = 5.00000E+06 eV = 1.83747E+05 a.u.
 #
 # WARNING: High-energy factorization with free-atom DF screening.
 #          Absorption, polarization and exchange corrections are
 #          switched off.
 #          Phase shifts are calculated for the bare nucleus.
 #          Scattering amplitudes are not evaluated.
 #
 # Element: Ge,  Z =  32,  atomic weight = 7.26100E+01 g/mol
 #
 # Nuclear model: Fermi distribution
 #                Average radius = 4.46392E-13 cm
 #                Skin thickness = 5.46000E-14 cm
 #
 # Number of electrons = 32
 #
 # Total elastic cross section = 2.37279E-18 cm**2 = 8.47340E-02 a0**2
 # 1st transport cross section = 5.34097E-23 cm**2 = 1.90729E-06 a0**2
 # 2nd transport cross section = 1.51077E-22 cm**2 = 5.39504E-06 a0**2
 #
 #
 # Differential cross section:                       MU=(1-COS(THETA))/2
 #
 #  THETA        MU          DCS          DCS        Sherman      error
 #  (deg)                 (cm**2/sr)   (a0**2/sr)    function
 #----------------------------------------------------------------------
0.00000E+00 6.21683E-13
7.61557E-13 6.21678E-13
1.18994E-12 6.21676E-13
1.71346E-12 6.21672E-13
2.33225E-12 6.21669E-13
3.04617E-12 6.21664E-13
3.85530E-12 6.21659E-13
4.75964E-12 6.21654E-13
5.75917E-12 6.21647E-13
6.85391E-12 6.21640E-13
8.04379E-12 6.21633E-13
9.32893E-12 6.21625E-13
1.07092E-11 6.21616E-13
1.21847E-11 6.21607E-13
1.37554E-11 6.21598E-13
1.54213E-11 6.21587E-13
1.71823E-11 6.21576E-13
1.90386E-11 6.21565E-13
2.09900E-11 6.21553E-13
2.30367E-11 6.21540E-13
2.51785E-11 6.21526E-13
2.74156E-11 6.21513E-13
2.97478E-11 6.21498E-13
3.21752E-11 6.21483E-13
3.46979E-11 6.21467E-13
3.73157E-11 6.21451E-13
4.00286E-11 6.21434E-13
4.28368E-11 6.21417E-13
4.57402E-11 6.21399E-13
4.87388E-11 6.21380E-13
5.18325E-11 6.21361E-13
5.50215E-11 6.21341E-13
5.83057E-11 6.21320E-13
6.16850E-11 6.21299E-13
6.51595E-11 6.21278E-13
6.87293E-11 6.21256E-13
7.23943E-11 6.21233E-13
7.61544E-11 6.21209E-13
1.18991E-10 6.20943E-13
1.71347E-10 6.20618E-13
2.33223E-10 6.20234E-13
3.04617E-10 6.19792E-13
3.85531E-10 6.19291E-13
4.75965E-10 6.18732E-13
5.75917E-10 6.18115E-13
6.85389E-10 6.17440E-13
8.04380E-10 6.16708E-13
9.32891E-10 6.15919E-13
1.07092E-09 6.15074E-13
1.21847E-09 6.14172E-13
1.37554E-09 6.13214E-13
1.54213E-09 6.12201E-13
1.71823E-09 6.11132E-13
1.90386E-09 6.10010E-13
2.09900E-09 6.08833E-13
2.30367E-09 6.07603E-13
2.51785E-09 6.06319E-13
2.74156E-09 6.04984E-13
2.97478E-09 6.03596E-13
3.21752E-09 6.02157E-13
3.46978E-09 6.00668E-13
3.73156E-09 5.99128E-13
4.00286E-09 5.97539E-13
4.28368E-09 5.95901E-13
4.57402E-09 5.94216E-13
4.87388E-09 5.92483E-13
5.18326E-09 5.90704E-13
5.50215E-09 5.88878E-13
5.83057E-09 5.87008E-13
6.16850E-09 5.85093E-13
6.51596E-09 5.83135E-13
6.87293E-09 5.81134E-13
7.23942E-09 5.79091E-13
7.61544E-09 5.77006E-13
1.18991E-08 5.54084E-13
1.71347E-08 5.27991E-13
2.33223E-08 4.99614E-13
3.04617E-08 4.69815E-13
3.85531E-08 4.39381E-13
4.75965E-08 4.08997E-13
5.75917E-08 3.79227E-13
6.85389E-08 3.50510E-13
8.04380E-08 3.23168E-13
9.32891E-08 2.97414E-13
1.07092E-07 2.73373E-13
1.21847E-07 2.51096E-13
1.37554E-07 2.30576E-13
1.54213E-07 2.11766E-13
1.71823E-07 1.94587E-13
1.90386E-07 1.78943E-13
2.09900E-07 1.64727E-13
2.30367E-07 1.51826E-13
2.51785E-07 1.40128E-13
2.74156E-07 1.29526E-13
2.97478E-07 1.19916E-13
3.21752E-07 1.11201E-13
3.46978E-07 1.03293E-13
3.73156E-07 9.61101E-14
4.00286E-07 8.95774E-14
4.28368E-07 8.36282E-14
4.57402E-07 7.82023E-14
4.87388E-07 7.32456E-14
5.18325E-07 6.87098E-14
5.50215E-07 6.45516E-14
5.83057E-07 6.07329E-14
6.16850E-07 5.72192E-14
6.51596E-07 5.39802E-14
6.87293E-07 5.09888E-14
7.23942E-07 4.82211E-14
7.61543E-07 4.56555E-14
1.18991E-06 2.77913E-14
1.71347E-06 1.79896E-14
2.33223E-06 1.20632E-14
3.04617E-06 8.28329E-15
3.85531E-06 5.79926E-15
4.75964E-06 4.13476E-15
5.75916E-06 3.00176E-15
6.85388E-06 2.21896E-15
8.04378E-06 1.66984E-15
9.32888E-06 1.27853E-15
1.07092E-05 9.95152E-16
1.21846E-05 7.86576E-16
1.37553E-05 6.30580E-16
1.54212E-05 5.12085E-16
1.71822E-05 4.20731E-16
1.90385E-05 3.49314E-16
2.09899E-05 2.92753E-16
2.30365E-05 2.47419E-16
2.51783E-05 2.10683E-16
2.74153E-05 1.80616E-16
2.97475E-05 1.55783E-16
3.21749E-05 1.35106E-16
3.46974E-05 1.17760E-16
3.73152E-05 1.03111E-16
4.00281E-05 9.06636E-17
4.28362E-05 8.00288E-17
4.57395E-05 7.08965E-17
4.87380E-05 6.30180E-17
5.18317E-05 5.61921E-17
5.50205E-05 5.02548E-17
5.83045E-05 4.50714E-17
6.16838E-05 4.05307E-17
6.51582E-05 3.65402E-17
6.87277E-05 3.30226E-17
7.23925E-05 2.99128E-17
7.61524E-05 2.71562E-17
9.21439E-05 1.88288E-17
1.09658E-04 1.34438E-17
1.28695E-04 9.84628E-18
1.49255E-04 7.37361E-18
1.71338E-04 5.63071E-18
1.94942E-04 4.37438E-18
2.20070E-04 3.45053E-18
2.46720E-04 2.75891E-18
2.74892E-04 2.23277E-18
3.04586E-04 1.82671E-18
3.35803E-04 1.50921E-18
3.68542E-04 1.25800E-18
4.02802E-04 1.05711E-18
4.38585E-04 8.94877E-19
4.75889E-04 7.62679E-19
5.14715E-04 6.54068E-19
5.55063E-04 5.64157E-19
5.96931E-04 4.89204E-19
6.40321E-04 4.26314E-19
6.85233E-04 3.73225E-19
7.31665E-04 3.28157E-19
7.79618E-04 2.89698E-19
8.29092E-04 2.56717E-19
8.80086E-04 2.28301E-19
9.32601E-04 2.03714E-19
9.86636E-04 1.82351E-19
1.04219E-03 1.63718E-19
1.09927E-03 1.47407E-19
1.15786E-03 1.33079E-19
1.21797E-03 1.20451E-19
1.27961E-03 1.09288E-19
1.34276E-03 9.93886E-20
1.40743E-03 9.05863E-20
1.47362E-03 8.27380E-20
1.54133E-03 7.57224E-20
1.61056E-03 6.94355E-20
1.68131E-03 6.37884E-20
1.75357E-03 5.87045E-20
1.82735E-03 5.41177E-20
1.90265E-03 4.99708E-20
1.97947E-03 4.62142E-20
2.05780E-03 4.28045E-20
2.13765E-03 3.97041E-20
2.21902E-03 3.68797E-20
2.30190E-03 3.43026E-20
2.38630E-03 3.19470E-20
2.47222E-03 2.97906E-20
2.55965E-03 2.78134E-20
2.64859E-03 2.59979E-20
2.73905E-03 2.43285E-20
2.83103E-03 2.27912E-20
2.92452E-03 2.13737E-20
3.01952E-03 2.00650E-20
3.11604E-03 1.88552E-20
3.21407E-03 1.77354E-20
3.31362E-03 1.66978E-20
3.41468E-03 1.57351E-20
3.51725E-03 1.48410E-20
3.62133E-03 1.40097E-20
3.72692E-03 1.32360E-20
3.83403E-03 1.25151E-20
3.94265E-03 1.18427E-20
4.05278E-03 1.12151E-20
4.16442E-03 1.06286E-20
4.27757E-03 1.00801E-20
4.39223E-03 9.56666E-21
4.50840E-03 9.08559E-21
4.62608E-03 8.63449E-21
4.74527E-03 8.21113E-21
4.86597E-03 7.81350E-21
4.98817E-03 7.43974E-21
5.11188E-03 7.08815E-21
5.23711E-03 6.75716E-21
5.36383E-03 6.44534E-21
5.49207E-03 6.15137E-21
5.62181E-03 5.87404E-21
5.75306E-03 5.61222E-21
5.88581E-03 5.36489E-21
6.02007E-03 5.13109E-21
6.15583E-03 4.90995E-21
6.29310E-03 4.70064E-21
6.43187E-03 4.50241E-21
6.57214E-03 4.31457E-21
6.71392E-03 4.13647E-21
6.85720E-03 3.96750E-21
7.00198E-03 3.80712E-21
7.14827E-03 3.65479E-21
7.29605E-03 3.51004E-21
7.44534E-03 3.37242E-21
7.59612E-03 3.24151E-21
7.97965E-03 2.94111E-21
8.37255E-03 2.67487E-21
8.77480E-03 2.43822E-21
9.18641E-03 2.22730E-21
9.60736E-03 2.03881E-21
1.00376E-02 1.86994E-21
1.04773E-02 1.71829E-21
1.09262E-02 1.58178E-21
1.13844E-02 1.45864E-21
1.18520E-02 1.34731E-21
1.23288E-02 1.24646E-21
1.28150E-02 1.15493E-21
1.33104E-02 1.07169E-21
1.38150E-02 9.95862E-22
1.43290E-02 9.26661E-22
1.48521E-02 8.63403E-22
1.53845E-02 8.05484E-22
1.59262E-02 7.52370E-22
1.64770E-02 7.03589E-22
1.70371E-02 6.58722E-22
1.76063E-02 6.17398E-22
1.81848E-02 5.79284E-22
1.87724E-02 5.44085E-22
1.93692E-02 5.11536E-22
1.99751E-02 4.81400E-22
2.05901E-02 4.53466E-22
2.12143E-02 4.27542E-22
2.18476E-02 4.03456E-22
2.24900E-02 3.81054E-22
2.31415E-02 3.60196E-22
2.38021E-02 3.40755E-22
2.44717E-02 3.22617E-22
2.51504E-02 3.05677E-22
2.58382E-02 2.89843E-22
2.65349E-02 2.75028E-22
2.72407E-02 2.61153E-22
2.79555E-02 2.48149E-22
2.86793E-02 2.35949E-22
2.94120E-02 2.24495E-22
3.01537E-02 2.13733E-22
3.09043E-02 2.03612E-22
3.16639E-02 1.94087E-22
3.24324E-02 1.85117E-22
3.32098E-02 1.76662E-22
3.39961E-02 1.68688E-22
3.47912E-02 1.61162E-22
3.55952E-02 1.54054E-22
3.64081E-02 1.47336E-22
3.72297E-02 1.40983E-22
3.80602E-02 1.34970E-22
3.88995E-02 1.29277E-22
3.97476E-02 1.23883E-22
4.06044E-02 1.18770E-22
4.14700E-02 1.13919E-22
4.23443E-02 1.09315E-22
4.32273E-02 1.04943E-22
4.41190E-02 1.00788E-22
4.50194E-02 9.68390E-23
4.59284E-02 9.30823E-23
4.68461E-02 8.95072E-23
4.87074E-02 8.28605E-23
5.06030E-02 7.68231E-23
5.25328E-02 7.13289E-23
5.44967E-02 6.63200E-23
5.64946E-02 6.17455E-23
5.85262E-02 5.75609E-23
6.05914E-02 5.37267E-23
6.26901E-02 5.02082E-23
6.48222E-02 4.69744E-23
6.69873E-02 4.39981E-23
6.91854E-02 4.12549E-23
7.14163E-02 3.87232E-23
7.36799E-02 3.63835E-23
7.59760E-02 3.42186E-23
7.83043E-02 3.22129E-23
8.06647E-02 3.03526E-23
8.30571E-02 2.86251E-23
8.54812E-02 2.70191E-23
8.79369E-02 2.55245E-23
9.04240E-02 2.41320E-23
9.29422E-02 2.28335E-23
9.54915E-02 2.16213E-23
9.80716E-02 2.04886E-23
1.00682E-01 1.94292E-23
1.03323E-01 1.84374E-23
1.05995E-01 1.75082E-23
1.08696E-01 1.66368E-23
1.11427E-01 1.58189E-23
1.14188E-01 1.50507E-23
1.16978E-01 1.43284E-23
1.19797E-01 1.36490E-23
1.22645E-01 1.30092E-23
1.25522E-01 1.24064E-23
1.28428E-01 1.18381E-23
1.31361E-01 1.13018E-23
1.34323E-01 1.07954E-23
1.37313E-01 1.03170E-23
1.40330E-01 9.86467E-24
1.43375E-01 9.43674E-24
1.46447E-01 9.03164E-24
1.49545E-01 8.64792E-24
1.52671E-01 8.28422E-24
1.55823E-01 7.93931E-24
1.59001E-01 7.61203E-24
1.62205E-01 7.30131E-24
1.65435E-01 7.00615E-24
1.68690E-01 6.72561E-24
1.71970E-01 6.45885E-24
1.75276E-01 6.20504E-24
1.78606E-01 5.96343E-24
1.81961E-01 5.73333E-24
1.85340E-01 5.51409E-24
1.88743E-01 5.30510E-24
1.92169E-01 5.10578E-24
1.95619E-01 4.91561E-24
1.99092E-01 4.73407E-24
2.02589E-01 4.56071E-24
2.06107E-01 4.39508E-24
2.09649E-01 4.23677E-24
2.13212E-01 4.08540E-24
2.16797E-01 3.94061E-24
2.20404E-01 3.80205E-24
2.24032E-01 3.66941E-24
2.27680E-01 3.54238E-24
2.31350E-01 3.42068E-24
2.35040E-01 3.30404E-24
2.38751E-01 3.19222E-24
2.42481E-01 3.08498E-24
2.46231E-01 2.98210E-24
2.50000E-01 2.88335E-24
2.53788E-01 2.78855E-24
2.57595E-01 2.69751E-24
2.61421E-01 2.61004E-24
2.65264E-01 2.52599E-24
2.69126E-01 2.44520E-24
2.73005E-01 2.36751E-24
2.76901E-01 2.29278E-24
2.80814E-01 2.22088E-24
2.84744E-01 2.15168E-24
2.88691E-01 2.08505E-24
2.92653E-01 2.02090E-24
2.96632E-01 1.95910E-24
3.00625E-01 1.89956E-24
3.04634E-01 1.84217E-24
3.08658E-01 1.78685E-24
3.12697E-01 1.73350E-24
3.16749E-01 1.68204E-24
3.20816E-01 1.63239E-24
3.24896E-01 1.58449E-24
3.28990E-01 1.53825E-24
3.33097E-01 1.49360E-24
3.37216E-01 1.45048E-24
3.41348E-01 1.40883E-24
3.45492E-01 1.36858E-24
3.49647E-01 1.32970E-24
3.53814E-01 1.29211E-24
3.57992E-01 1.25577E-24
3.62181E-01 1.22062E-24
3.66381E-01 1.18662E-24
3.70590E-01 1.15373E-24
3.74810E-01 1.12191E-24
3.79039E-01 1.09111E-24
3.83277E-01 1.06129E-24
3.87524E-01 1.03242E-24
3.91780E-01 1.00446E-24
3.96044E-01 9.77382E-25
4.00316E-01 9.51145E-25
4.04596E-01 9.25721E-25
4.08882E-01 9.01081E-25
4.13176E-01 8.77197E-25
4.17476E-01 8.54040E-25
4.21783E-01 8.31585E-25
4.26095E-01 8.09807E-25
4.30413E-01 7.88681E-25
4.34737E-01 7.68184E-25
4.39065E-01 7.48295E-25
4.43398E-01 7.28992E-25
4.47736E-01 7.10254E-25
4.52077E-01 6.92063E-25
4.56422E-01 6.74399E-25
4.60770E-01 6.57245E-25
4.65122E-01 6.40583E-25
4.69476E-01 6.24396E-25
4.73832E-01 6.08669E-25
4.78190E-01 5.93387E-25
4.82550E-01 5.78533E-25
4.86912E-01 5.64095E-25
4.91274E-01 5.50059E-25
4.95637E-01 5.36411E-25
5.00000E-01 5.23139E-25
5.04363E-01 5.10231E-25
5.08726E-01 4.97674E-25
5.13088E-01 4.85459E-25
5.17450E-01 4.73574E-25
5.21810E-01 4.62008E-25
5.26168E-01 4.50752E-25
5.30524E-01 4.39795E-25
5.34878E-01 4.29129E-25
5.39230E-01 4.18745E-25
5.43578E-01 4.08633E-25
5.47923E-01 3.98786E-25
5.52264E-01 3.89195E-25
5.56602E-01 3.79853E-25
5.60935E-01 3.70751E-25
5.65263E-01 3.61884E-25
5.69587E-01 3.53243E-25
5.73905E-01 3.44823E-25
5.78217E-01 3.36616E-25
5.82524E-01 3.28616E-25
5.86824E-01 3.20818E-25
5.91118E-01 3.13214E-25
5.95404E-01 3.05801E-25
5.99684E-01 2.98572E-25
6.03956E-01 2.91521E-25
6.08220E-01 2.84645E-25
6.12476E-01 2.77937E-25
6.16723E-01 2.71393E-25
6.20961E-01 2.65008E-25
6.25190E-01 2.58779E-25
6.29410E-01 2.52700E-25
6.33619E-01 2.46767E-25
6.37819E-01 2.40977E-25
6.42008E-01 2.35326E-25
6.46186E-01 2.29808E-25
6.50353E-01 2.24422E-25
6.54508E-01 2.19163E-25
6.58652E-01 2.14029E-25
6.62784E-01 2.09014E-25
6.66903E-01 2.04118E-25
6.71010E-01 1.99335E-25
6.75104E-01 1.94663E-25
6.79184E-01 1.90100E-25
6.83251E-01 1.85643E-25
6.87303E-01 1.81287E-25
6.91342E-01 1.77032E-25
6.95366E-01 1.72875E-25
6.99375E-01 1.68812E-25
7.03368E-01 1.64841E-25
7.07347E-01 1.60961E-25
7.11309E-01 1.57168E-25
7.15256E-01 1.53461E-25
7.19186E-01 1.49837E-25
7.23099E-01 1.46294E-25
7.26995E-01 1.42831E-25
7.30874E-01 1.39445E-25
7.34736E-01 1.36134E-25
7.38579E-01 1.32897E-25
7.42405E-01 1.29731E-25
7.46212E-01 1.26636E-25
7.50000E-01 1.23608E-25
7.53769E-01 1.20647E-25
7.57519E-01 1.17751E-25
7.61249E-01 1.14918E-25
7.64960E-01 1.12148E-25
7.68650E-01 1.09437E-25
7.72320E-01 1.06786E-25
7.75968E-01 1.04192E-25
7.79596E-01 1.01654E-25
7.83203E-01 9.91713E-26
7.86788E-01 9.67421E-26
7.90351E-01 9.43652E-26
7.93893E-01 9.20395E-26
7.97411E-01 8.97638E-26
8.00908E-01 8.75370E-26
8.04381E-01 8.53579E-26
8.07831E-01 8.32254E-26
8.11257E-01 8.11386E-26
8.14660E-01 7.90963E-26
8.18039E-01 7.70976E-26
8.21394E-01 7.51415E-26
8.24724E-01 7.32271E-26
8.28030E-01 7.13535E-26
8.31310E-01 6.95197E-26
8.34565E-01 6.77250E-26
8.37795E-01 6.59684E-26
8.40999E-01 6.42491E-26
8.44177E-01 6.25664E-26
8.47329E-01 6.09195E-26
8.50455E-01 5.93076E-26
8.53553E-01 5.77299E-26
8.56625E-01 5.61858E-26
8.59670E-01 5.46746E-26
8.62687E-01 5.31955E-26
8.65677E-01 5.17480E-26
8.68639E-01 5.03313E-26
8.71572E-01 4.89449E-26
8.74478E-01 4.75881E-26
8.77355E-01 4.62603E-26
8.80203E-01 4.49611E-26
8.83022E-01 4.36897E-26
8.85812E-01 4.24456E-26
8.88573E-01 4.12284E-26
8.91304E-01 4.00375E-26
8.94005E-01 3.88723E-26
8.96677E-01 3.77325E-26
8.99318E-01 3.66174E-26
9.01928E-01 3.55267E-26
9.04508E-01 3.44599E-26
9.07058E-01 3.34166E-26
9.09576E-01 3.23962E-26
9.12063E-01 3.13985E-26
9.14519E-01 3.04229E-26
9.16943E-01 2.94692E-26
9.19335E-01 2.85368E-26
9.21696E-01 2.76254E-26
9.24024E-01 2.67347E-26
9.26320E-01 2.58643E-26
9.28584E-01 2.50138E-26
9.30815E-01 2.41830E-26
9.33013E-01 2.33714E-26
9.35178E-01 2.25787E-26
9.37310E-01 2.18047E-26
9.39409E-01 2.10491E-26
9.41474E-01 2.03115E-26
9.43505E-01 1.95916E-26
9.45503E-01 1.88892E-26
9.47467E-01 1.82041E-26
9.49397E-01 1.75358E-26
9.51293E-01 1.68843E-26
9.53154E-01 1.62491E-26
9.54981E-01 1.56302E-26
9.56773E-01 1.50272E-26
9.58530E-01 1.44399E-26
9.60252E-01 1.38682E-26
9.61940E-01 1.33117E-26
9.63592E-01 1.27703E-26
9.65209E-01 1.22438E-26
9.66790E-01 1.17319E-26
9.68336E-01 1.12346E-26
9.69846E-01 1.07515E-26
9.71321E-01 1.02826E-26
9.72759E-01 9.82757E-27
9.74162E-01 9.38635E-27
9.75528E-01 8.95875E-27
9.76858E-01 8.54461E-27
9.78152E-01 8.14378E-27
9.79410E-01 7.75611E-27
9.80631E-01 7.38145E-27
9.81815E-01 7.01969E-27
9.82963E-01 6.67067E-27
9.84074E-01 6.33428E-27
9.85148E-01 6.01039E-27
9.86185E-01 5.69888E-27
9.87185E-01 5.39965E-27
9.88148E-01 5.11259E-27
9.89074E-01 4.83759E-27
9.89962E-01 4.57456E-27
9.90814E-01 4.32339E-27
9.91627E-01 4.08401E-27
9.92404E-01 3.85631E-27
9.93143E-01 3.64024E-27
9.93844E-01 3.43570E-27
9.94508E-01 3.24262E-27
9.95134E-01 3.06094E-27
9.95722E-01 2.89059E-27
9.96273E-01 2.73151E-27
9.96786E-01 2.58364E-27
9.97261E-01 2.44693E-27
9.97698E-01 2.32134E-27
9.98097E-01 2.20682E-27
9.98459E-01 2.10332E-27
9.98782E-01 2.01082E-27
9.99067E-01 1.92928E-27
9.99315E-01 1.85866E-27
9.99524E-01 1.79895E-27
9.99695E-01 1.75013E-27
9.99829E-01 1.71217E-27
9.99924E-01 1.68507E-27
9.99981E-01 1.66882E-27
1.00000E+00 1.66340E-27
