 #
 # Subroutine ELSEPA. Elastic scattering of electrons and positrons
 #                    by neutral atoms and positive ions
 #
 # Projectile: electron
 # Kinetic energy = 5.00000E+07 eV = 1.83747E+06 a.u.
 #
 # WARNING: High-energy factorization with free-atom DF screening.
 #          Absorption, polarization and exchange corrections are
 #          switched off.
 #          Phase shifts are calculated for the bare nucleus.
 #          Scattering amplitudes are not evaluated.
 #
 # Element: Ge,  Z =  32,  atomic weight = 7.26100E+01 g/mol
 #
 # Nuclear model: Fermi distribution
 #                Average radius = 4.46392E-13 cm
 #                Skin thickness = 5.46000E-14 cm
 #
 # Number of electrons = 32
 #
 # Total elastic cross section = 2.34633E-18 cm**2 = 8.37889E-02 a0**2
 # 1st transport cross section = 8.05236E-25 cm**2 = 2.87555E-08 a0**2
 # 2nd transport cross section = 2.35838E-24 cm**2 = 8.42194E-08 a0**2
 #
 #
 # Differential cross section:                       MU=(1-COS(THETA))/2
 #
 #  THETA        MU          DCS          DCS        Sherman      error
 #  (deg)                 (cm**2/sr)   (a0**2/sr)    function
 #----------------------------------------------------------------------
0.00000E+00 5.22252E-11
7.61557E-13 5.21913E-11
1.18994E-12 5.21723E-11
1.71346E-12 5.21491E-11
2.33225E-12 5.21217E-11
3.04617E-12 5.20901E-11
3.85530E-12 5.20544E-11
4.75964E-12 5.20145E-11
5.75917E-12 5.19704E-11
6.85391E-12 5.19223E-11
8.04379E-12 5.18701E-11
9.32893E-12 5.18137E-11
1.07092E-11 5.17533E-11
1.21847E-11 5.16889E-11
1.37554E-11 5.16205E-11
1.54213E-11 5.15480E-11
1.71823E-11 5.14717E-11
1.90386E-11 5.13913E-11
2.09900E-11 5.13071E-11
2.30367E-11 5.12190E-11
2.51785E-11 5.11271E-11
2.74156E-11 5.10314E-11
2.97478E-11 5.09319E-11
3.21752E-11 5.08287E-11
3.46979E-11 5.07217E-11
3.73157E-11 5.06112E-11
4.00286E-11 5.04970E-11
4.28368E-11 5.03792E-11
4.57402E-11 5.02579E-11
4.87388E-11 5.01331E-11
5.18325E-11 5.00049E-11
5.50215E-11 4.98733E-11
5.83057E-11 4.97383E-11
6.16850E-11 4.96000E-11
6.51595E-11 4.94585E-11
6.87293E-11 4.93138E-11
7.23943E-11 4.91659E-11
7.61544E-11 4.90149E-11
1.18991E-10 4.73401E-11
1.71347E-10 4.54186E-11
2.33223E-10 4.33051E-11
3.04617E-10 4.10576E-11
3.85531E-10 3.87312E-11
4.75965E-10 3.63755E-11
5.75917E-10 3.40331E-11
6.85389E-10 3.17394E-11
8.04380E-10 2.95197E-11
9.32891E-10 2.73946E-11
1.07092E-09 2.53821E-11
1.21847E-09 2.34911E-11
1.37554E-09 2.17258E-11
1.54213E-09 2.00866E-11
1.71823E-09 1.85712E-11
1.90386E-09 1.71751E-11
2.09900E-09 1.58926E-11
2.30367E-09 1.47168E-11
2.51785E-09 1.36406E-11
2.74156E-09 1.26566E-11
2.97478E-09 1.17575E-11
3.21752E-09 1.09352E-11
3.46978E-09 1.01840E-11
3.73156E-09 9.49770E-12
4.00286E-09 8.87029E-12
4.28368E-09 8.29625E-12
4.57402E-09 7.77054E-12
4.87388E-09 7.28855E-12
5.18326E-09 6.84609E-12
5.50215E-09 6.43939E-12
5.83057E-09 6.06504E-12
6.16850E-09 5.71994E-12
6.51596E-09 5.40133E-12
6.87293E-09 5.10664E-12
7.23942E-09 4.83349E-12
7.61544E-09 4.58014E-12
1.18991E-08 2.78905E-12
1.71347E-08 1.83121E-12
2.33223E-08 1.25069E-12
3.04617E-08 8.75751E-13
3.85531E-08 6.24504E-13
4.75965E-08 4.52364E-13
5.75917E-08 3.32603E-13
6.85389E-08 2.48219E-13
8.04380E-08 1.87968E-13
9.32891E-08 1.44467E-13
1.07092E-07 1.12704E-13
1.21847E-07 8.91795E-14
1.37554E-07 7.15094E-14
1.54213E-07 5.80529E-14
1.71823E-07 4.76674E-14
1.90386E-07 3.95487E-14
2.09900E-07 3.31253E-14
2.30367E-07 2.79834E-14
2.51785E-07 2.38196E-14
2.74156E-07 2.04183E-14
2.97478E-07 1.76147E-14
3.21752E-07 1.52828E-14
3.46978E-07 1.33288E-14
3.73156E-07 1.16799E-14
4.00286E-07 1.02792E-14
4.28368E-07 9.08225E-15
4.57402E-07 8.05406E-15
4.87388E-07 7.16654E-15
5.18325E-07 6.39711E-15
5.50215E-07 5.72736E-15
5.83057E-07 5.14220E-15
6.16850E-07 4.62913E-15
6.51596E-07 4.17775E-15
6.87293E-07 3.77932E-15
7.23942E-07 3.42650E-15
7.61543E-07 3.11334E-15
1.18991E-06 1.32135E-15
1.71347E-06 6.49465E-16
2.33223E-06 3.55083E-16
3.04617E-06 2.10312E-16
3.85531E-06 1.32490E-16
4.75964E-06 8.76197E-17
5.75916E-06 6.02566E-17
6.85388E-06 4.27979E-17
8.04378E-06 3.12308E-17
9.32888E-06 2.33194E-17
1.07092E-05 1.77608E-17
1.21846E-05 1.37630E-17
1.37553E-05 1.08283E-17
1.54212E-05 8.63500E-18
1.71822E-05 6.96943E-18
1.90385E-05 5.68588E-18
2.09899E-05 4.68542E-18
2.30365E-05 3.89532E-18
2.51783E-05 3.26462E-18
2.74153E-05 2.75626E-18
2.97475E-05 2.34294E-18
3.21749E-05 2.00422E-18
3.46974E-05 1.72455E-18
3.73152E-05 1.49203E-18
4.00281E-05 1.29744E-18
4.28362E-05 1.13357E-18
4.57395E-05 9.94766E-19
4.87380E-05 8.76551E-19
5.18317E-05 7.75365E-19
5.50205E-05 6.88349E-19
5.83045E-05 6.13198E-19
6.16838E-05 5.48029E-19
6.51582E-05 4.91296E-19
6.87277E-05 4.41725E-19
7.23925E-05 3.98257E-19
7.61524E-05 3.60034E-19
9.21439E-05 2.46161E-19
1.09658E-04 1.73958E-19
1.28695E-04 1.26404E-19
1.49255E-04 9.40454E-20
1.71338E-04 7.14165E-20
1.94942E-04 5.52047E-20
2.20070E-04 4.33456E-20
2.46720E-04 3.45088E-20
2.74892E-04 2.78147E-20
3.04586E-04 2.26693E-20
3.35803E-04 1.86613E-20
3.68542E-04 1.55020E-20
4.02802E-04 1.29845E-20
4.38585E-04 1.09583E-20
4.75889E-04 9.31282E-21
5.14715E-04 7.96520E-21
5.55063E-04 6.85306E-21
5.96931E-04 5.92862E-21
6.40321E-04 5.15511E-21
6.85233E-04 4.50390E-21
7.31665E-04 3.95247E-21
7.79618E-04 3.48303E-21
8.29092E-04 3.08134E-21
8.80086E-04 2.73601E-21
9.32601E-04 2.43780E-21
9.86636E-04 2.17919E-21
1.04219E-03 1.95403E-21
1.09927E-03 1.75727E-21
1.15786E-03 1.58469E-21
1.21797E-03 1.43282E-21
1.27961E-03 1.29875E-21
1.34276E-03 1.18002E-21
1.40743E-03 1.07458E-21
1.47362E-03 9.80680E-22
1.54133E-03 8.96832E-22
1.61056E-03 8.21772E-22
1.68131E-03 7.54416E-22
1.75357E-03 6.93835E-22
1.82735E-03 6.39226E-22
1.90265E-03 5.89894E-22
1.97947E-03 5.45241E-22
2.05780E-03 5.04741E-22
2.13765E-03 4.67940E-22
2.21902E-03 4.34439E-22
2.30190E-03 4.03888E-22
2.38630E-03 3.75982E-22
2.47222E-03 3.50449E-22
2.55965E-03 3.27052E-22
2.64859E-03 3.05579E-22
2.73905E-03 2.85843E-22
2.83103E-03 2.67677E-22
2.92452E-03 2.50936E-22
3.01952E-03 2.35485E-22
3.11604E-03 2.21207E-22
3.21407E-03 2.07998E-22
3.31362E-03 1.95762E-22
3.41468E-03 1.84414E-22
3.51725E-03 1.73879E-22
3.62133E-03 1.64086E-22
3.72692E-03 1.54975E-22
3.83403E-03 1.46488E-22
3.94265E-03 1.38576E-22
4.05278E-03 1.31191E-22
4.16442E-03 1.24294E-22
4.27757E-03 1.17844E-22
4.39223E-03 1.11808E-22
4.50840E-03 1.06154E-22
4.62608E-03 1.00854E-22
4.74527E-03 9.58812E-23
4.86597E-03 9.12115E-23
4.98817E-03 8.68231E-23
5.11188E-03 8.26959E-23
5.23711E-03 7.88115E-23
5.36383E-03 7.51529E-23
5.49207E-03 7.17045E-23
5.62181E-03 6.84519E-23
5.75306E-03 6.53819E-23
5.88581E-03 6.24824E-23
6.02007E-03 5.97421E-23
6.15583E-03 5.71506E-23
6.29310E-03 5.46983E-23
6.43187E-03 5.23762E-23
6.57214E-03 5.01763E-23
6.71392E-03 4.80908E-23
6.85720E-03 4.61127E-23
7.00198E-03 4.42353E-23
7.14827E-03 4.24527E-23
7.29605E-03 4.07590E-23
7.44534E-03 3.91490E-23
7.59612E-03 3.76179E-23
7.97965E-03 3.41053E-23
8.37255E-03 3.09935E-23
8.77480E-03 2.82289E-23
9.18641E-03 2.57659E-23
9.60736E-03 2.35658E-23
1.00376E-02 2.15956E-23
1.04773E-02 1.98271E-23
1.09262E-02 1.82359E-23
1.13844E-02 1.68011E-23
1.18520E-02 1.55046E-23
1.23288E-02 1.43307E-23
1.28150E-02 1.32656E-23
1.33104E-02 1.22976E-23
1.38150E-02 1.14162E-23
1.43290E-02 1.06122E-23
1.48521E-02 9.87755E-24
1.53845E-02 9.20529E-24
1.59262E-02 8.58912E-24
1.64770E-02 8.02350E-24
1.70371E-02 7.50355E-24
1.76063E-02 7.02490E-24
1.81848E-02 6.58368E-24
1.87724E-02 6.17643E-24
1.93692E-02 5.80005E-24
1.99751E-02 5.45178E-24
2.05901E-02 5.12914E-24
2.12143E-02 4.82989E-24
2.18476E-02 4.55203E-24
2.24900E-02 4.29375E-24
2.31415E-02 4.05342E-24
2.38021E-02 3.82957E-24
2.44717E-02 3.62084E-24
2.51504E-02 3.42605E-24
2.58382E-02 3.24408E-24
2.65349E-02 3.07393E-24
2.72407E-02 2.91470E-24
2.79555E-02 2.76556E-24
2.86793E-02 2.62575E-24
2.94120E-02 2.49458E-24
3.01537E-02 2.37142E-24
3.09043E-02 2.25569E-24
3.16639E-02 2.14685E-24
3.24324E-02 2.04443E-24
3.32098E-02 1.94797E-24
3.39961E-02 1.85707E-24
3.47912E-02 1.77134E-24
3.55952E-02 1.69044E-24
3.64081E-02 1.61404E-24
3.72297E-02 1.54185E-24
3.80602E-02 1.47359E-24
3.88995E-02 1.40901E-24
3.97476E-02 1.34788E-24
4.06044E-02 1.28997E-24
4.14700E-02 1.23509E-24
4.23443E-02 1.18305E-24
4.32273E-02 1.13368E-24
4.41190E-02 1.08681E-24
4.50194E-02 1.04229E-24
4.59284E-02 9.99982E-25
4.68461E-02 9.59760E-25
4.87074E-02 8.85091E-25
5.06030E-02 8.17401E-25
5.25328E-02 7.55927E-25
5.44967E-02 7.00000E-25
5.64946E-02 6.49034E-25
5.85262E-02 6.02512E-25
6.05914E-02 5.59982E-25
6.26901E-02 5.21041E-25
6.48222E-02 4.85336E-25
6.69873E-02 4.52552E-25
6.91854E-02 4.22408E-25
7.14163E-02 3.94657E-25
7.36799E-02 3.69076E-25
7.59760E-02 3.45467E-25
7.83043E-02 3.23651E-25
8.06647E-02 3.03471E-25
8.30571E-02 2.84782E-25
8.54812E-02 2.67456E-25
8.79369E-02 2.51377E-25
9.04240E-02 2.36440E-25
9.29422E-02 2.22551E-25
9.54915E-02 2.09624E-25
9.80716E-02 1.97581E-25
1.00682E-01 1.86352E-25
1.03323E-01 1.75873E-25
1.05995E-01 1.66086E-25
1.08696E-01 1.56937E-25
1.11427E-01 1.48378E-25
1.14188E-01 1.40365E-25
1.16978E-01 1.32858E-25
1.19797E-01 1.25819E-25
1.22645E-01 1.19215E-25
1.25522E-01 1.13014E-25
1.28428E-01 1.07188E-25
1.31361E-01 1.01711E-25
1.34323E-01 9.65586E-26
1.37313E-01 9.17084E-26
1.40330E-01 8.71401E-26
1.43375E-01 8.28346E-26
1.46447E-01 7.87747E-26
1.49545E-01 7.49441E-26
1.52671E-01 7.13280E-26
1.55823E-01 6.79124E-26
1.59001E-01 6.46847E-26
1.62205E-01 6.16329E-26
1.65435E-01 5.87460E-26
1.68690E-01 5.60138E-26
1.71970E-01 5.34269E-26
1.75276E-01 5.09762E-26
1.78606E-01 4.86537E-26
1.81961E-01 4.64517E-26
1.85340E-01 4.43629E-26
1.88743E-01 4.23808E-26
1.92169E-01 4.04992E-26
1.95619E-01 3.87122E-26
1.99092E-01 3.70144E-26
2.02589E-01 3.54007E-26
2.06107E-01 3.38664E-26
2.09649E-01 3.24071E-26
2.13212E-01 3.10186E-26
2.16797E-01 2.96970E-26
2.20404E-01 2.84386E-26
2.24032E-01 2.72401E-26
2.27680E-01 2.60981E-26
2.31350E-01 2.50098E-26
2.35040E-01 2.39721E-26
2.38751E-01 2.29826E-26
2.42481E-01 2.20385E-26
2.46231E-01 2.11377E-26
2.50000E-01 2.02779E-26
2.53788E-01 1.94569E-26
2.57595E-01 1.86728E-26
2.61421E-01 1.79237E-26
2.65264E-01 1.72080E-26
2.69126E-01 1.65238E-26
2.73005E-01 1.58697E-26
2.76901E-01 1.52442E-26
2.80814E-01 1.46459E-26
2.84744E-01 1.40734E-26
2.88691E-01 1.35256E-26
2.92653E-01 1.30012E-26
2.96632E-01 1.24991E-26
3.00625E-01 1.20182E-26
3.04634E-01 1.15577E-26
3.08658E-01 1.11164E-26
3.12697E-01 1.06936E-26
3.16749E-01 1.02883E-26
3.20816E-01 9.89978E-27
3.24896E-01 9.52725E-27
3.28990E-01 9.16997E-27
3.33097E-01 8.82727E-27
3.37216E-01 8.49847E-27
3.41348E-01 8.18297E-27
3.45492E-01 7.88017E-27
3.49647E-01 7.58950E-27
3.53814E-01 7.31043E-27
3.57992E-01 7.04245E-27
3.62181E-01 6.78508E-27
3.66381E-01 6.53786E-27
3.70590E-01 6.30035E-27
3.74810E-01 6.07213E-27
3.79039E-01 5.85280E-27
3.83277E-01 5.64199E-27
3.87524E-01 5.43933E-27
3.91780E-01 5.24447E-27
3.96044E-01 5.05710E-27
4.00316E-01 4.87690E-27
4.04596E-01 4.70357E-27
4.08882E-01 4.53682E-27
4.13176E-01 4.37638E-27
4.17476E-01 4.22199E-27
4.21783E-01 4.07342E-27
4.26095E-01 3.93041E-27
4.30413E-01 3.79274E-27
4.34737E-01 3.66019E-27
4.39065E-01 3.53257E-27
4.43398E-01 3.40967E-27
4.47736E-01 3.29131E-27
4.52077E-01 3.17729E-27
4.56422E-01 3.06746E-27
4.60770E-01 2.96164E-27
4.65122E-01 2.85968E-27
4.69476E-01 2.76143E-27
4.73832E-01 2.66674E-27
4.78190E-01 2.57547E-27
4.82550E-01 2.48749E-27
4.86912E-01 2.40267E-27
4.91274E-01 2.32089E-27
4.95637E-01 2.24204E-27
5.00000E-01 2.16600E-27
5.04363E-01 2.09266E-27
5.08726E-01 2.02192E-27
5.13088E-01 1.95369E-27
5.17450E-01 1.88787E-27
5.21810E-01 1.82436E-27
5.26168E-01 1.76309E-27
5.30524E-01 1.70396E-27
5.34878E-01 1.64690E-27
5.39230E-01 1.59183E-27
5.43578E-01 1.53868E-27
5.47923E-01 1.48737E-27
5.52264E-01 1.43784E-27
5.56602E-01 1.39002E-27
5.60935E-01 1.34385E-27
5.65263E-01 1.29927E-27
5.69587E-01 1.25622E-27
5.73905E-01 1.21465E-27
5.78217E-01 1.17450E-27
5.82524E-01 1.13572E-27
5.86824E-01 1.09826E-27
5.91118E-01 1.06208E-27
5.95404E-01 1.02712E-27
5.99684E-01 9.93346E-28
6.03956E-01 9.60714E-28
6.08220E-01 9.29183E-28
6.12476E-01 8.98714E-28
6.16723E-01 8.69269E-28
6.20961E-01 8.40812E-28
6.25190E-01 8.13307E-28
6.29410E-01 7.86723E-28
6.33619E-01 7.61025E-28
6.37819E-01 7.36184E-28
6.42008E-01 7.12169E-28
6.46186E-01 6.88952E-28
6.50353E-01 6.66503E-28
6.54508E-01 6.44798E-28
6.58652E-01 6.23810E-28
6.62784E-01 6.03514E-28
6.66903E-01 5.83887E-28
6.71010E-01 5.64905E-28
6.75104E-01 5.46546E-28
6.79184E-01 5.28789E-28
6.83251E-01 5.11613E-28
6.87303E-01 4.94999E-28
6.91342E-01 4.78927E-28
6.95366E-01 4.63378E-28
6.99375E-01 4.48336E-28
7.03368E-01 4.33782E-28
7.07347E-01 4.19700E-28
7.11309E-01 4.06075E-28
7.15256E-01 3.92891E-28
7.19186E-01 3.80132E-28
7.23099E-01 3.67786E-28
7.26995E-01 3.55837E-28
7.30874E-01 3.44273E-28
7.34736E-01 3.33080E-28
7.38579E-01 3.22247E-28
7.42405E-01 3.11762E-28
7.46212E-01 3.01612E-28
7.50000E-01 2.91787E-28
7.53769E-01 2.82275E-28
7.57519E-01 2.73068E-28
7.61249E-01 2.64153E-28
7.64960E-01 2.55523E-28
7.68650E-01 2.47167E-28
7.72320E-01 2.39076E-28
7.75968E-01 2.31242E-28
7.79596E-01 2.23657E-28
7.83203E-01 2.16312E-28
7.86788E-01 2.09199E-28
7.90351E-01 2.02310E-28
7.93893E-01 1.95640E-28
7.97411E-01 1.89179E-28
8.00908E-01 1.82922E-28
8.04381E-01 1.76863E-28
8.07831E-01 1.70993E-28
8.11257E-01 1.65308E-28
8.14660E-01 1.59802E-28
8.18039E-01 1.54468E-28
8.21394E-01 1.49302E-28
8.24724E-01 1.44297E-28
8.28030E-01 1.39449E-28
8.31310E-01 1.34753E-28
8.34565E-01 1.30203E-28
8.37795E-01 1.25795E-28
8.40999E-01 1.21525E-28
8.44177E-01 1.17388E-28
8.47329E-01 1.13381E-28
8.50455E-01 1.09497E-28
8.53553E-01 1.05735E-28
8.56625E-01 1.02090E-28
8.59670E-01 9.85586E-29
8.62687E-01 9.51368E-29
8.65677E-01 9.18214E-29
8.68639E-01 8.86090E-29
8.71572E-01 8.54964E-29
8.74478E-01 8.24805E-29
8.77355E-01 7.95583E-29
8.80203E-01 7.67269E-29
8.83022E-01 7.39833E-29
8.85812E-01 7.13250E-29
8.88573E-01 6.87493E-29
8.91304E-01 6.62536E-29
8.94005E-01 6.38355E-29
8.96677E-01 6.14925E-29
8.99318E-01 5.92224E-29
9.01928E-01 5.70230E-29
9.04508E-01 5.48920E-29
9.07058E-01 5.28274E-29
9.09576E-01 5.08272E-29
9.12063E-01 4.88895E-29
9.14519E-01 4.70122E-29
9.16943E-01 4.51937E-29
9.19335E-01 4.34321E-29
9.21696E-01 4.17258E-29
9.24024E-01 4.00731E-29
9.26320E-01 3.84724E-29
9.28584E-01 3.69222E-29
9.30815E-01 3.54209E-29
9.33013E-01 3.39672E-29
9.35178E-01 3.25596E-29
9.37310E-01 3.11968E-29
9.39409E-01 2.98774E-29
9.41474E-01 2.86004E-29
9.43505E-01 2.73643E-29
9.45503E-01 2.61681E-29
9.47467E-01 2.50106E-29
9.49397E-01 2.38907E-29
9.51293E-01 2.28074E-29
9.53154E-01 2.17596E-29
9.54981E-01 2.07463E-29
9.56773E-01 1.97666E-29
9.58530E-01 1.88196E-29
9.60252E-01 1.79044E-29
9.61940E-01 1.70201E-29
9.63592E-01 1.61659E-29
9.65209E-01 1.53409E-29
9.66790E-01 1.45445E-29
9.68336E-01 1.37759E-29
9.69846E-01 1.30344E-29
9.71321E-01 1.23192E-29
9.72759E-01 1.16297E-29
9.74162E-01 1.09653E-29
9.75528E-01 1.03254E-29
9.76858E-01 9.70931E-30
9.78152E-01 9.11653E-30
9.79410E-01 8.54649E-30
9.80631E-01 7.99868E-30
9.81815E-01 7.47259E-30
9.82963E-01 6.96772E-30
9.84074E-01 6.48363E-30
9.85148E-01 6.01986E-30
9.86185E-01 5.57599E-30
9.87185E-01 5.15160E-30
9.88148E-01 4.74633E-30
9.89074E-01 4.35978E-30
9.89962E-01 3.99161E-30
9.90814E-01 3.64148E-30
9.91627E-01 3.30908E-30
9.92404E-01 2.99409E-30
9.93143E-01 2.69624E-30
9.93844E-01 2.41525E-30
9.94508E-01 2.15086E-30
9.95134E-01 1.90284E-30
9.95722E-01 1.67095E-30
9.96273E-01 1.45500E-30
9.96786E-01 1.25477E-30
9.97261E-01 1.07010E-30
9.97698E-01 9.00813E-31
9.98097E-01 7.46754E-31
9.98459E-01 6.07784E-31
9.98782E-01 4.83778E-31
9.99067E-01 3.74624E-31
9.99315E-01 2.80223E-31
9.99524E-01 2.00489E-31
9.99695E-01 1.35350E-31
9.99829E-01 8.47477E-32
9.99924E-01 4.86359E-32
9.99981E-01 2.69818E-32
1.00000E+00 1.97662E-32
