 #
 # Subroutine ELSEPA. Elastic scattering of electrons and positrons
 #                    by neutral atoms and positive ions
 #
 # Projectile: electron
 # Kinetic energy = 4.00000E+07 eV = 1.46997E+06 a.u.
 #
 # WARNING: High-energy factorization with free-atom DF screening.
 #          Absorption, polarization and exchange corrections are
 #          switched off.
 #          Phase shifts are calculated for the bare nucleus.
 #          Scattering amplitudes are not evaluated.
 #
 # Element: Ge,  Z =  32,  atomic weight = 7.26100E+01 g/mol
 #
 # Nuclear model: Fermi distribution
 #                Average radius = 4.46392E-13 cm
 #                Skin thickness = 5.46000E-14 cm
 #
 # Number of electrons = 32
 #
 # Total elastic cross section = 2.34774E-18 cm**2 = 8.38391E-02 a0**2
 # 1st transport cross section = 1.23812E-24 cm**2 = 4.42141E-08 a0**2
 # 2nd transport cross section = 3.60659E-24 cm**2 = 1.28794E-07 a0**2
 #
 #
 # Differential cross section:                       MU=(1-COS(THETA))/2
 #
 #  THETA        MU          DCS          DCS        Sherman      error
 #  (deg)                 (cm**2/sr)   (a0**2/sr)    function
 #----------------------------------------------------------------------
0.00000E+00 3.35934E-11
7.61557E-13 3.35794E-11
1.18994E-12 3.35715E-11
1.71346E-12 3.35619E-11
2.33225E-12 3.35505E-11
3.04617E-12 3.35374E-11
3.85530E-12 3.35226E-11
4.75964E-12 3.35061E-11
5.75917E-12 3.34878E-11
6.85391E-12 3.34678E-11
8.04379E-12 3.34461E-11
9.32893E-12 3.34227E-11
1.07092E-11 3.33976E-11
1.21847E-11 3.33708E-11
1.37554E-11 3.33423E-11
1.54213E-11 3.33121E-11
1.71823E-11 3.32803E-11
1.90386E-11 3.32468E-11
2.09900E-11 3.32116E-11
2.30367E-11 3.31747E-11
2.51785E-11 3.31363E-11
2.74156E-11 3.30961E-11
2.97478E-11 3.30544E-11
3.21752E-11 3.30111E-11
3.46979E-11 3.29661E-11
3.73157E-11 3.29196E-11
4.00286E-11 3.28714E-11
4.28368E-11 3.28218E-11
4.57402E-11 3.27705E-11
4.87388E-11 3.27177E-11
5.18325E-11 3.26634E-11
5.50215E-11 3.26075E-11
5.83057E-11 3.25502E-11
6.16850E-11 3.24913E-11
6.51595E-11 3.24310E-11
6.87293E-11 3.23692E-11
7.23943E-11 3.23059E-11
7.61544E-11 3.22412E-11
1.18991E-10 3.15186E-11
1.71347E-10 3.06664E-11
2.33223E-10 2.97107E-11
3.04617E-10 2.86660E-11
3.85531E-10 2.75470E-11
4.75965E-10 2.63804E-11
5.75917E-10 2.51849E-11
6.85389E-10 2.39700E-11
8.04380E-10 2.27513E-11
9.32891E-10 2.15483E-11
1.07092E-09 2.03719E-11
1.21847E-09 1.92213E-11
1.37554E-09 1.81098E-11
1.54213E-09 1.70461E-11
1.71823E-09 1.60330E-11
1.90386E-09 1.50639E-11
2.09900E-09 1.41486E-11
2.30367E-09 1.32876E-11
2.51785E-09 1.24792E-11
2.74156E-09 1.17166E-11
2.97478E-09 1.10048E-11
3.21752E-09 1.03411E-11
3.46978E-09 9.72181E-12
3.73156E-09 9.14275E-12
4.00286E-09 8.60470E-12
4.28368E-09 8.10483E-12
4.57402E-09 7.63924E-12
4.87388E-09 7.20551E-12
5.18326E-09 6.80283E-12
5.50215E-09 6.42878E-12
5.83057E-09 6.08006E-12
6.16850E-09 5.75534E-12
6.51596E-09 5.45339E-12
6.87293E-09 5.17239E-12
7.23942E-09 4.90968E-12
7.61544E-09 4.66466E-12
1.18991E-08 2.93061E-12
1.71347E-08 1.95340E-12
2.33223E-08 1.38342E-12
3.04617E-08 1.00717E-12
3.85531E-08 7.43237E-13
4.75965E-08 5.59359E-13
5.75917E-08 4.27076E-13
6.85389E-08 3.28133E-13
8.04380E-08 2.54398E-13
9.32891E-08 1.99615E-13
1.07092E-07 1.58282E-13
1.21847E-07 1.26465E-13
1.37554E-07 1.02076E-13
1.54213E-07 8.32337E-14
1.71823E-07 6.85095E-14
1.90386E-07 5.68499E-14
2.09900E-07 4.75923E-14
2.30367E-07 4.01695E-14
2.51785E-07 3.41614E-14
2.74156E-07 2.92495E-14
2.97478E-07 2.52109E-14
3.21752E-07 2.18637E-14
3.46978E-07 1.90680E-14
3.73156E-07 1.67105E-14
4.00286E-07 1.47152E-14
4.28368E-07 1.30164E-14
4.57402E-07 1.15601E-14
4.87388E-07 1.03043E-14
5.18325E-07 9.21767E-15
5.50215E-07 8.27282E-15
5.83057E-07 7.44595E-15
6.16850E-07 6.71992E-15
6.51596E-07 6.08080E-15
6.87293E-07 5.51614E-15
7.23942E-07 5.01434E-15
7.61543E-07 4.56806E-15
1.18991E-06 1.98406E-15
1.71347E-06 9.86408E-16
2.33223E-06 5.41837E-16
3.04617E-06 3.21406E-16
3.85531E-06 2.02562E-16
4.75964E-06 1.33997E-16
5.75916E-06 9.21977E-17
6.85388E-06 6.55307E-17
8.04378E-06 4.78607E-17
9.32888E-06 3.57705E-17
1.07092E-05 2.72710E-17
1.21846E-05 2.11535E-17
1.37553E-05 1.66590E-17
1.54212E-05 1.32969E-17
1.71822E-05 1.07413E-17
1.90385E-05 8.76982E-18
2.09899E-05 7.23185E-18
2.30365E-05 6.01621E-18
2.51783E-05 5.04503E-18
2.74153E-05 4.26168E-18
2.97475E-05 3.62435E-18
3.21749E-05 3.10170E-18
3.46974E-05 2.66990E-18
3.73152E-05 2.31072E-18
4.00281E-05 2.00998E-18
4.28362E-05 1.75662E-18
4.57395E-05 1.54191E-18
4.87380E-05 1.35899E-18
5.18317E-05 1.20236E-18
5.50205E-05 1.06763E-18
5.83045E-05 9.51232E-19
6.16838E-05 8.50270E-19
6.51582E-05 7.62358E-19
6.87277E-05 6.85527E-19
7.23925E-05 6.18141E-19
7.61524E-05 5.58864E-19
9.21439E-05 3.82240E-19
1.09658E-04 2.70192E-19
1.28695E-04 1.96367E-19
1.49255E-04 1.46120E-19
1.71338E-04 1.10973E-19
1.94942E-04 8.57896E-20
2.20070E-04 6.73650E-20
2.46720E-04 5.36346E-20
2.74892E-04 4.32325E-20
3.04586E-04 3.52364E-20
3.35803E-04 2.90075E-20
3.68542E-04 2.40975E-20
4.02802E-04 2.01846E-20
4.38585E-04 1.70353E-20
4.75889E-04 1.44777E-20
5.14715E-04 1.23830E-20
5.55063E-04 1.06542E-20
5.96931E-04 9.21723E-21
6.40321E-04 8.01484E-21
6.85233E-04 7.00252E-21
7.31665E-04 6.14530E-21
7.79618E-04 5.41552E-21
8.29092E-04 4.79107E-21
8.80086E-04 4.25422E-21
9.32601E-04 3.79062E-21
9.86636E-04 3.38857E-21
1.04219E-03 3.03854E-21
1.09927E-03 2.73262E-21
1.15786E-03 2.46432E-21
1.21797E-03 2.22821E-21
1.27961E-03 2.01976E-21
1.34276E-03 1.83518E-21
1.40743E-03 1.67124E-21
1.47362E-03 1.52524E-21
1.54133E-03 1.39488E-21
1.61056E-03 1.27817E-21
1.68131E-03 1.17345E-21
1.75357E-03 1.07925E-21
1.82735E-03 9.94339E-22
1.90265E-03 9.17634E-22
1.97947E-03 8.48201E-22
2.05780E-03 7.85227E-22
2.13765E-03 7.28002E-22
2.21902E-03 6.75908E-22
2.30190E-03 6.28402E-22
2.38630E-03 5.85007E-22
2.47222E-03 5.45302E-22
2.55965E-03 5.08917E-22
2.64859E-03 4.75524E-22
2.73905E-03 4.44832E-22
2.83103E-03 4.16582E-22
2.92452E-03 3.90545E-22
3.01952E-03 3.66515E-22
3.11604E-03 3.44311E-22
3.21407E-03 3.23767E-22
3.31362E-03 3.04736E-22
3.41468E-03 2.87086E-22
3.51725E-03 2.70699E-22
3.62133E-03 2.55468E-22
3.72692E-03 2.41296E-22
3.83403E-03 2.28095E-22
3.94265E-03 2.15787E-22
4.05278E-03 2.04301E-22
4.16442E-03 1.93571E-22
4.27757E-03 1.83537E-22
4.39223E-03 1.74147E-22
4.50840E-03 1.65352E-22
4.62608E-03 1.57106E-22
4.74527E-03 1.49369E-22
4.86597E-03 1.42104E-22
4.98817E-03 1.35276E-22
5.11188E-03 1.28855E-22
5.23711E-03 1.22811E-22
5.36383E-03 1.17118E-22
5.49207E-03 1.11752E-22
5.62181E-03 1.06691E-22
5.75306E-03 1.01914E-22
5.88581E-03 9.74016E-23
6.02007E-03 9.31372E-23
6.15583E-03 8.91044E-23
6.29310E-03 8.52873E-23
6.43187E-03 8.16735E-23
6.57214E-03 7.82497E-23
6.71392E-03 7.50034E-23
6.85720E-03 7.19243E-23
7.00198E-03 6.90022E-23
7.14827E-03 6.62271E-23
7.29605E-03 6.35905E-23
7.44534E-03 6.10841E-23
7.59612E-03 5.87003E-23
7.97965E-03 5.32313E-23
8.37255E-03 4.83859E-23
8.77480E-03 4.40806E-23
9.18641E-03 4.02446E-23
9.60736E-03 3.68178E-23
1.00376E-02 3.37486E-23
1.04773E-02 3.09933E-23
1.09262E-02 2.85139E-23
1.13844E-02 2.62780E-23
1.18520E-02 2.42573E-23
1.23288E-02 2.24274E-23
1.28150E-02 2.07670E-23
1.33104E-02 1.92576E-23
1.38150E-02 1.78831E-23
1.43290E-02 1.66291E-23
1.48521E-02 1.54832E-23
1.53845E-02 1.44343E-23
1.59262E-02 1.34729E-23
1.64770E-02 1.25901E-23
1.70371E-02 1.17785E-23
1.76063E-02 1.10313E-23
1.81848E-02 1.03423E-23
1.87724E-02 9.70630E-24
1.93692E-02 9.11839E-24
1.99751E-02 8.57429E-24
2.05901E-02 8.07012E-24
2.12143E-02 7.60242E-24
2.18476E-02 7.16806E-24
2.24900E-02 6.76423E-24
2.31415E-02 6.38838E-24
2.38021E-02 6.03822E-24
2.44717E-02 5.71167E-24
2.51504E-02 5.40684E-24
2.58382E-02 5.12201E-24
2.65349E-02 4.85564E-24
2.72407E-02 4.60629E-24
2.79555E-02 4.37269E-24
2.86793E-02 4.15365E-24
2.94120E-02 3.94810E-24
3.01537E-02 3.75505E-24
3.09043E-02 3.57360E-24
3.16639E-02 3.40292E-24
3.24324E-02 3.24225E-24
3.32098E-02 3.09090E-24
3.39961E-02 2.94823E-24
3.47912E-02 2.81364E-24
3.55952E-02 2.68660E-24
3.64081E-02 2.56659E-24
3.72297E-02 2.45316E-24
3.80602E-02 2.34588E-24
3.88995E-02 2.24436E-24
3.97476E-02 2.14822E-24
4.06044E-02 2.05713E-24
4.14700E-02 1.97078E-24
4.23443E-02 1.88886E-24
4.32273E-02 1.81112E-24
4.41190E-02 1.73730E-24
4.50194E-02 1.66716E-24
4.59284E-02 1.60048E-24
4.68461E-02 1.53707E-24
4.87074E-02 1.41929E-24
5.06030E-02 1.31245E-24
5.25328E-02 1.21535E-24
5.44967E-02 1.12695E-24
5.64946E-02 1.04633E-24
5.85262E-02 9.72688E-25
6.05914E-02 9.05311E-25
6.26901E-02 8.43573E-25
6.48222E-02 7.86919E-25
6.69873E-02 7.34857E-25
6.91854E-02 6.86949E-25
7.14163E-02 6.42806E-25
7.36799E-02 6.02079E-25
7.59760E-02 5.64458E-25
7.83043E-02 5.29664E-25
8.06647E-02 4.97448E-25
8.30571E-02 4.67586E-25
8.54812E-02 4.39874E-25
8.79369E-02 4.14132E-25
9.04240E-02 3.90195E-25
9.29422E-02 3.67915E-25
9.54915E-02 3.47156E-25
9.80716E-02 3.27797E-25
1.00682E-01 3.09728E-25
1.03323E-01 2.92847E-25
1.05995E-01 2.77062E-25
1.08696E-01 2.62291E-25
1.11427E-01 2.48457E-25
1.14188E-01 2.35491E-25
1.16978E-01 2.23328E-25
1.19797E-01 2.11911E-25
1.22645E-01 2.01185E-25
1.25522E-01 1.91103E-25
1.28428E-01 1.81619E-25
1.31361E-01 1.72691E-25
1.34323E-01 1.64281E-25
1.37313E-01 1.56354E-25
1.40330E-01 1.48879E-25
1.43375E-01 1.41824E-25
1.46447E-01 1.35162E-25
1.49545E-01 1.28868E-25
1.52671E-01 1.22918E-25
1.55823E-01 1.17291E-25
1.59001E-01 1.11965E-25
1.62205E-01 1.06922E-25
1.65435E-01 1.02144E-25
1.68690E-01 9.76164E-26
1.71970E-01 9.33226E-26
1.75276E-01 8.92488E-26
1.78606E-01 8.53821E-26
1.81961E-01 8.17102E-26
1.85340E-01 7.82217E-26
1.88743E-01 7.49061E-26
1.92169E-01 7.17534E-26
1.95619E-01 6.87544E-26
1.99092E-01 6.59003E-26
2.02589E-01 6.31832E-26
2.06107E-01 6.05954E-26
2.09649E-01 5.81298E-26
2.13212E-01 5.57797E-26
2.16797E-01 5.35390E-26
2.20404E-01 5.14017E-26
2.24032E-01 4.93624E-26
2.27680E-01 4.74158E-26
2.31350E-01 4.55572E-26
2.35040E-01 4.37820E-26
2.38751E-01 4.20858E-26
2.42481E-01 4.04647E-26
2.46231E-01 3.89148E-26
2.50000E-01 3.74326E-26
2.53788E-01 3.60146E-26
2.57595E-01 3.46577E-26
2.61421E-01 3.33588E-26
2.65264E-01 3.21152E-26
2.69126E-01 3.09241E-26
2.73005E-01 2.97830E-26
2.76901E-01 2.86895E-26
2.80814E-01 2.76414E-26
2.84744E-01 2.66365E-26
2.88691E-01 2.56728E-26
2.92653E-01 2.47483E-26
2.96632E-01 2.38613E-26
3.00625E-01 2.30100E-26
3.04634E-01 2.21927E-26
3.08658E-01 2.14081E-26
3.12697E-01 2.06544E-26
3.16749E-01 1.99305E-26
3.20816E-01 1.92349E-26
3.24896E-01 1.85665E-26
3.28990E-01 1.79239E-26
3.33097E-01 1.73061E-26
3.37216E-01 1.67120E-26
3.41348E-01 1.61406E-26
3.45492E-01 1.55908E-26
3.49647E-01 1.50619E-26
3.53814E-01 1.45528E-26
3.57992E-01 1.40627E-26
3.62181E-01 1.35909E-26
3.66381E-01 1.31366E-26
3.70590E-01 1.26991E-26
3.74810E-01 1.22776E-26
3.79039E-01 1.18715E-26
3.83277E-01 1.14802E-26
3.87524E-01 1.11030E-26
3.91780E-01 1.07395E-26
3.96044E-01 1.03889E-26
4.00316E-01 1.00510E-26
4.04596E-01 9.72502E-27
4.08882E-01 9.41062E-27
4.13176E-01 9.10732E-27
4.17476E-01 8.81467E-27
4.21783E-01 8.53227E-27
4.26095E-01 8.25971E-27
4.30413E-01 7.99662E-27
4.34737E-01 7.74262E-27
4.39065E-01 7.49737E-27
4.43398E-01 7.26054E-27
4.47736E-01 7.03180E-27
4.52077E-01 6.81086E-27
4.56422E-01 6.59740E-27
4.60770E-01 6.39117E-27
4.65122E-01 6.19188E-27
4.69476E-01 5.99928E-27
4.73832E-01 5.81312E-27
4.78190E-01 5.63316E-27
4.82550E-01 5.45917E-27
4.86912E-01 5.29095E-27
4.91274E-01 5.12827E-27
4.95637E-01 4.97094E-27
5.00000E-01 4.81876E-27
5.04363E-01 4.67155E-27
5.08726E-01 4.52913E-27
5.13088E-01 4.39133E-27
5.17450E-01 4.25799E-27
5.21810E-01 4.12894E-27
5.26168E-01 4.00405E-27
5.30524E-01 3.88315E-27
5.34878E-01 3.76611E-27
5.39230E-01 3.65280E-27
5.43578E-01 3.54309E-27
5.47923E-01 3.43685E-27
5.52264E-01 3.33396E-27
5.56602E-01 3.23431E-27
5.60935E-01 3.13778E-27
5.65263E-01 3.04428E-27
5.69587E-01 2.95369E-27
5.73905E-01 2.86593E-27
5.78217E-01 2.78088E-27
5.82524E-01 2.69847E-27
5.86824E-01 2.61860E-27
5.91118E-01 2.54119E-27
5.95404E-01 2.46616E-27
5.99684E-01 2.39343E-27
6.03956E-01 2.32291E-27
6.08220E-01 2.25455E-27
6.12476E-01 2.18826E-27
6.16723E-01 2.12398E-27
6.20961E-01 2.06165E-27
6.25190E-01 2.00120E-27
6.29410E-01 1.94256E-27
6.33619E-01 1.88569E-27
6.37819E-01 1.83052E-27
6.42008E-01 1.77700E-27
6.46186E-01 1.72508E-27
6.50353E-01 1.67470E-27
6.54508E-01 1.62582E-27
6.58652E-01 1.57838E-27
6.62784E-01 1.53235E-27
6.66903E-01 1.48768E-27
6.71010E-01 1.44431E-27
6.75104E-01 1.40223E-27
6.79184E-01 1.36137E-27
6.83251E-01 1.32172E-27
6.87303E-01 1.28321E-27
6.91342E-01 1.24584E-27
6.95366E-01 1.20954E-27
6.99375E-01 1.17430E-27
7.03368E-01 1.14008E-27
7.07347E-01 1.10686E-27
7.11309E-01 1.07458E-27
7.15256E-01 1.04324E-27
7.19186E-01 1.01280E-27
7.23099E-01 9.83235E-28
7.26995E-01 9.54515E-28
7.30874E-01 9.26616E-28
7.34736E-01 8.99514E-28
7.38579E-01 8.73184E-28
7.42405E-01 8.47603E-28
7.46212E-01 8.22748E-28
7.50000E-01 7.98599E-28
7.53769E-01 7.75133E-28
7.57519E-01 7.52330E-28
7.61249E-01 7.30172E-28
7.64960E-01 7.08637E-28
7.68650E-01 6.87709E-28
7.72320E-01 6.67369E-28
7.75968E-01 6.47600E-28
7.79596E-01 6.28384E-28
7.83203E-01 6.09707E-28
7.86788E-01 5.91551E-28
7.90351E-01 5.73902E-28
7.93893E-01 5.56746E-28
7.97411E-01 5.40067E-28
8.00908E-01 5.23852E-28
8.04381E-01 5.08087E-28
8.07831E-01 4.92760E-28
8.11257E-01 4.77858E-28
8.14660E-01 4.63368E-28
8.18039E-01 4.49279E-28
8.21394E-01 4.35580E-28
8.24724E-01 4.22259E-28
8.28030E-01 4.09305E-28
8.31310E-01 3.96709E-28
8.34565E-01 3.84460E-28
8.37795E-01 3.72547E-28
8.40999E-01 3.60963E-28
8.44177E-01 3.49697E-28
8.47329E-01 3.38741E-28
8.50455E-01 3.28085E-28
8.53553E-01 3.17722E-28
8.56625E-01 3.07643E-28
8.59670E-01 2.97841E-28
8.62687E-01 2.88308E-28
8.65677E-01 2.79036E-28
8.68639E-01 2.70019E-28
8.71572E-01 2.61249E-28
8.74478E-01 2.52719E-28
8.77355E-01 2.44423E-28
8.80203E-01 2.36355E-28
8.83022E-01 2.28508E-28
8.85812E-01 2.20876E-28
8.88573E-01 2.13455E-28
8.91304E-01 2.06237E-28
8.94005E-01 1.99218E-28
8.96677E-01 1.92392E-28
8.99318E-01 1.85754E-28
9.01928E-01 1.79299E-28
9.04508E-01 1.73022E-28
9.07058E-01 1.66919E-28
9.09576E-01 1.60985E-28
9.12063E-01 1.55216E-28
9.14519E-01 1.49607E-28
9.16943E-01 1.44154E-28
9.19335E-01 1.38854E-28
9.21696E-01 1.33701E-28
9.24024E-01 1.28694E-28
9.26320E-01 1.23827E-28
9.28584E-01 1.19097E-28
9.30815E-01 1.14501E-28
9.33013E-01 1.10036E-28
9.35178E-01 1.05697E-28
9.37310E-01 1.01483E-28
9.39409E-01 9.73901E-29
9.41474E-01 9.34151E-29
9.43505E-01 8.95553E-29
9.45503E-01 8.58080E-29
9.47467E-01 8.21703E-29
9.49397E-01 7.86399E-29
9.51293E-01 7.52140E-29
9.53154E-01 7.18904E-29
9.54981E-01 6.86665E-29
9.56773E-01 6.55402E-29
9.58530E-01 6.25092E-29
9.60252E-01 5.95713E-29
9.61940E-01 5.67245E-29
9.63592E-01 5.39668E-29
9.65209E-01 5.12962E-29
9.66790E-01 4.87108E-29
9.68336E-01 4.62089E-29
9.69846E-01 4.37887E-29
9.71321E-01 4.14484E-29
9.72759E-01 3.91865E-29
9.74162E-01 3.70014E-29
9.75528E-01 3.48915E-29
9.76858E-01 3.28554E-29
9.78152E-01 3.08916E-29
9.79410E-01 2.89988E-29
9.80631E-01 2.71758E-29
9.81815E-01 2.54211E-29
9.82963E-01 2.37337E-29
9.84074E-01 2.21123E-29
9.85148E-01 2.05559E-29
9.86185E-01 1.90632E-29
9.87185E-01 1.76335E-29
9.88148E-01 1.62655E-29
9.89074E-01 1.49585E-29
9.89962E-01 1.37115E-29
9.90814E-01 1.25236E-29
9.91627E-01 1.13941E-29
9.92404E-01 1.03221E-29
9.93143E-01 9.30695E-30
9.93844E-01 8.34794E-30
9.94508E-01 7.44442E-30
9.95134E-01 6.59577E-30
9.95722E-01 5.80140E-30
9.96273E-01 5.06078E-30
9.96786E-01 4.37340E-30
9.97261E-01 3.73880E-30
9.97698E-01 3.15654E-30
9.98097E-01 2.62622E-30
9.98459E-01 2.14750E-30
9.98782E-01 1.72003E-30
9.99067E-01 1.34353E-30
9.99315E-01 1.01775E-30
9.99524E-01 7.42457E-31
9.99695E-01 5.17474E-31
9.99829E-01 3.42646E-31
9.99924E-01 2.17853E-31
9.99981E-01 1.43011E-31
1.00000E+00 1.18070E-31
