 #
 # Subroutine ELSEPA. Elastic scattering of electrons and positrons
 #                    by neutral atoms and positive ions
 #
 # Projectile: electron
 # Kinetic energy = 1.00000E+08 eV = 3.67493E+06 a.u.
 #
 # WARNING: High-energy factorization with free-atom DF screening.
 #          Absorption, polarization and exchange corrections are
 #          switched off.
 #          Phase shifts are calculated for the bare nucleus.
 #          Scattering amplitudes are not evaluated.
 #
 # Element: Ge,  Z =  32,  atomic weight = 7.26100E+01 g/mol
 #
 # Nuclear model: Fermi distribution
 #                Average radius = 4.46392E-13 cm
 #                Skin thickness = 5.46000E-14 cm
 #
 # Number of electrons = 32
 #
 # Total elastic cross section = 2.34632E-18 cm**2 = 8.37887E-02 a0**2
 # 1st transport cross section = 2.06390E-25 cm**2 = 7.37030E-09 a0**2
 # 2nd transport cross section = 6.13552E-25 cm**2 = 2.19103E-08 a0**2
 #
 #
 # Differential cross section:                       MU=(1-COS(THETA))/2
 #
 #  THETA        MU          DCS          DCS        Sherman      error
 #  (deg)                 (cm**2/sr)   (a0**2/sr)    function
 #----------------------------------------------------------------------
0.00000E+00 2.06793E-10
7.61557E-13 2.06263E-10
1.18994E-12 2.05967E-10
1.71346E-12 2.05605E-10
2.33225E-12 2.05180E-10
3.04617E-12 2.04690E-10
3.85530E-12 2.04138E-10
4.75964E-12 2.03523E-10
5.75917E-12 2.02848E-10
6.85391E-12 2.02112E-10
8.04379E-12 2.01317E-10
9.32893E-12 2.00464E-10
1.07092E-11 1.99554E-10
1.21847E-11 1.98589E-10
1.37554E-11 1.97570E-10
1.54213E-11 1.96498E-10
1.71823E-11 1.95374E-10
1.90386E-11 1.94202E-10
2.09900E-11 1.92981E-10
2.30367E-11 1.91711E-10
2.51785E-11 1.90387E-10
2.74156E-11 1.89025E-10
2.97478E-11 1.87628E-10
3.21752E-11 1.86197E-10
3.46979E-11 1.84736E-10
3.73157E-11 1.83218E-10
4.00286E-11 1.81662E-10
4.28368E-11 1.80082E-10
4.57402E-11 1.78479E-10
4.87388E-11 1.76855E-10
5.18325E-11 1.75202E-10
5.50215E-11 1.73496E-10
5.83057E-11 1.71776E-10
6.16850E-11 1.70045E-10
6.51595E-11 1.68303E-10
6.87293E-11 1.66553E-10
7.23943E-11 1.64754E-10
7.61544E-11 1.62939E-10
1.18991E-10 1.44506E-10
1.71347E-10 1.26221E-10
2.33223E-10 1.09042E-10
3.04617E-10 9.35951E-11
3.85531E-10 8.01005E-11
4.75965E-10 6.85425E-11
5.75917E-10 5.87698E-11
6.85389E-10 5.05683E-11
8.04380E-10 4.37042E-11
9.32891E-10 3.79728E-11
1.07092E-09 3.31789E-11
1.21847E-09 2.91555E-11
1.37554E-09 2.57636E-11
1.54213E-09 2.28882E-11
1.71823E-09 2.04345E-11
1.90386E-09 1.83300E-11
2.09900E-09 1.65136E-11
2.30367E-09 1.49200E-11
2.51785E-09 1.34675E-11
2.74156E-09 1.22289E-11
2.97478E-09 1.11664E-11
3.21752E-09 1.02497E-11
3.46978E-09 9.45446E-12
3.73156E-09 8.67473E-12
4.00286E-09 7.96156E-12
4.28368E-09 7.33808E-12
4.57402E-09 6.79056E-12
4.87388E-09 6.30767E-12
5.18326E-09 5.86194E-12
5.50215E-09 5.41432E-12
5.83057E-09 5.01741E-12
6.16850E-09 4.66420E-12
6.51596E-09 4.34881E-12
6.87293E-09 4.06628E-12
7.23942E-09 3.78123E-12
7.61544E-09 3.51738E-12
1.18991E-08 1.82054E-12
1.71347E-08 1.00009E-12
2.33223E-08 5.82257E-13
3.04617E-08 3.59585E-13
3.85531E-08 2.34099E-13
4.75965E-08 1.59473E-13
5.75917E-08 1.12833E-13
6.85389E-08 8.23256E-14
8.04380E-08 6.16133E-14
9.32891E-08 4.70913E-14
1.07092E-07 3.66229E-14
1.21847E-07 2.89024E-14
1.37554E-07 2.31016E-14
1.54213E-07 1.86740E-14
1.71823E-07 1.52463E-14
1.90386E-07 1.25615E-14
2.09900E-07 1.04352E-14
2.30367E-07 8.73367E-15
2.51785E-07 7.35895E-15
2.74156E-07 6.24915E-15
2.97478E-07 5.33342E-15
3.21752E-07 4.58162E-15
3.46978E-07 3.95526E-15
3.73156E-07 3.43271E-15
4.00286E-07 2.99315E-15
4.28368E-07 2.62166E-15
4.57402E-07 2.30609E-15
4.87388E-07 2.03639E-15
5.18325E-07 1.80522E-15
5.50215E-07 1.60579E-15
5.83057E-07 1.43339E-15
6.16850E-07 1.28338E-15
6.51596E-07 1.15268E-15
6.87293E-07 1.03814E-15
7.23942E-07 9.37587E-16
7.61543E-07 8.48919E-16
1.18991E-06 3.53628E-16
1.71347E-06 1.72716E-16
2.33223E-06 9.41017E-17
3.04617E-06 5.55327E-17
3.85531E-06 3.48387E-17
4.75964E-06 2.29398E-17
5.75916E-06 1.57102E-17
6.85388E-06 1.11150E-17
8.04378E-06 8.08251E-18
9.32888E-06 6.01656E-18
1.07092E-05 4.57015E-18
1.21846E-05 3.53323E-18
1.37553E-05 2.77430E-18
1.54212E-05 2.20857E-18
1.71822E-05 1.77993E-18
1.90385E-05 1.45027E-18
2.09899E-05 1.19378E-18
2.30365E-05 9.91528E-19
2.51783E-05 8.30299E-19
2.74153E-05 7.00504E-19
2.97475E-05 5.95087E-19
3.21749E-05 5.08773E-19
3.46974E-05 4.37567E-19
3.73152E-05 3.78410E-19
4.00281E-05 3.28933E-19
4.28362E-05 2.87292E-19
4.57395E-05 2.52038E-19
4.87380E-05 2.22028E-19
5.18317E-05 1.96351E-19
5.50205E-05 1.74278E-19
5.83045E-05 1.55221E-19
6.16838E-05 1.38700E-19
6.51582E-05 1.24323E-19
6.87277E-05 1.11763E-19
7.23925E-05 1.00751E-19
7.61524E-05 9.10783E-20
9.21439E-05 6.22478E-20
1.09658E-04 4.39772E-20
1.28695E-04 3.19483E-20
1.49255E-04 2.37658E-20
1.71338E-04 1.80448E-20
1.94942E-04 1.39468E-20
2.20070E-04 1.09496E-20
2.46720E-04 8.71640E-21
2.74892E-04 7.02488E-21
3.04586E-04 5.72480E-21
3.35803E-04 4.71219E-21
3.68542E-04 3.91406E-21
4.02802E-04 3.27808E-21
4.38585E-04 2.76627E-21
4.75889E-04 2.35064E-21
5.14715E-04 2.01026E-21
5.55063E-04 1.72937E-21
5.96931E-04 1.49591E-21
6.40321E-04 1.30057E-21
6.85233E-04 1.13612E-21
7.31665E-04 9.96879E-22
7.79618E-04 8.78345E-22
8.29092E-04 7.76928E-22
8.80086E-04 6.89743E-22
9.32601E-04 6.14461E-22
9.86636E-04 5.49180E-22
1.04219E-03 4.92345E-22
1.09927E-03 4.42681E-22
1.15786E-03 3.99128E-22
1.21797E-03 3.60802E-22
1.27961E-03 3.26970E-22
1.34276E-03 2.97013E-22
1.40743E-03 2.70410E-22
1.47362E-03 2.46721E-22
1.54133E-03 2.25570E-22
1.61056E-03 2.06638E-22
1.68131E-03 1.89651E-22
1.75357E-03 1.74374E-22
1.82735E-03 1.60605E-22
1.90265E-03 1.48168E-22
1.97947E-03 1.36911E-22
2.05780E-03 1.26702E-22
2.13765E-03 1.17428E-22
2.21902E-03 1.08986E-22
2.30190E-03 1.01288E-22
2.38630E-03 9.42576E-23
2.47222E-03 8.78261E-23
2.55965E-03 8.19334E-23
2.64859E-03 7.65260E-23
2.73905E-03 7.15568E-23
2.83103E-03 6.69840E-23
2.92452E-03 6.27700E-23
3.01952E-03 5.88817E-23
3.11604E-03 5.52892E-23
3.21407E-03 5.19661E-23
3.31362E-03 4.88883E-23
3.41468E-03 4.60346E-23
3.51725E-03 4.33855E-23
3.62133E-03 4.09238E-23
3.72692E-03 3.86337E-23
3.83403E-03 3.65011E-23
3.94265E-03 3.45132E-23
4.05278E-03 3.26583E-23
4.16442E-03 3.09260E-23
4.27757E-03 2.93066E-23
4.39223E-03 2.77914E-23
4.50840E-03 2.63724E-23
4.62608E-03 2.50425E-23
4.74527E-03 2.37950E-23
4.86597E-03 2.26239E-23
4.98817E-03 2.15236E-23
5.11188E-03 2.04890E-23
5.23711E-03 1.95155E-23
5.36383E-03 1.85988E-23
5.49207E-03 1.77351E-23
5.62181E-03 1.69206E-23
5.75306E-03 1.61520E-23
5.88581E-03 1.54263E-23
6.02007E-03 1.47406E-23
6.15583E-03 1.40924E-23
6.29310E-03 1.34791E-23
6.43187E-03 1.28986E-23
6.57214E-03 1.23488E-23
6.71392E-03 1.18277E-23
6.85720E-03 1.13336E-23
7.00198E-03 1.08648E-23
7.14827E-03 1.04198E-23
7.29605E-03 9.99720E-24
7.44534E-03 9.59557E-24
7.59612E-03 9.21372E-24
7.97965E-03 8.33824E-24
8.37255E-03 7.56333E-24
8.77480E-03 6.87547E-24
9.18641E-03 6.26322E-24
9.60736E-03 5.71684E-24
1.00376E-02 5.22803E-24
1.04773E-02 4.78968E-24
1.09262E-02 4.39570E-24
1.13844E-02 4.04082E-24
1.18520E-02 3.72049E-24
1.23288E-02 3.43077E-24
1.28150E-02 3.16823E-24
1.33104E-02 2.92989E-24
1.38150E-02 2.71312E-24
1.43290E-02 2.51564E-24
1.48521E-02 2.33544E-24
1.53845E-02 2.17075E-24
1.59262E-02 2.02000E-24
1.64770E-02 1.88181E-24
1.70371E-02 1.75495E-24
1.76063E-02 1.63833E-24
1.81848E-02 1.53099E-24
1.87724E-02 1.43206E-24
1.93692E-02 1.34077E-24
1.99751E-02 1.25643E-24
2.05901E-02 1.17842E-24
2.12143E-02 1.10618E-24
2.18476E-02 1.03922E-24
2.24900E-02 9.77074E-25
2.31415E-02 9.19351E-25
2.38021E-02 8.65677E-25
2.44717E-02 8.15722E-25
2.51504E-02 7.69184E-25
2.58382E-02 7.25789E-25
2.65349E-02 6.85291E-25
2.72407E-02 6.47464E-25
2.79555E-02 6.12102E-25
2.86793E-02 5.79018E-25
2.94120E-02 5.48040E-25
3.01537E-02 5.19013E-25
3.09043E-02 4.91793E-25
3.16639E-02 4.66250E-25
3.24324E-02 4.42263E-25
3.32098E-02 4.19722E-25
3.39961E-02 3.98526E-25
3.47912E-02 3.78581E-25
3.55952E-02 3.59802E-25
3.64081E-02 3.42110E-25
3.72297E-02 3.25431E-25
3.80602E-02 3.09698E-25
3.88995E-02 2.94850E-25
3.97476E-02 2.80828E-25
4.06044E-02 2.67579E-25
4.14700E-02 2.55055E-25
4.23443E-02 2.43208E-25
4.32273E-02 2.31998E-25
4.41190E-02 2.21383E-25
4.50194E-02 2.11329E-25
4.59284E-02 2.01800E-25
4.68461E-02 1.92765E-25
4.87074E-02 1.76062E-25
5.06030E-02 1.61006E-25
5.25328E-02 1.47412E-25
5.44967E-02 1.35119E-25
5.64946E-02 1.23984E-25
5.85262E-02 1.13885E-25
6.05914E-02 1.04711E-25
6.26901E-02 9.63660E-26
6.48222E-02 8.87662E-26
6.69873E-02 8.18359E-26
6.91854E-02 7.55087E-26
7.14163E-02 6.97255E-26
7.36799E-02 6.44336E-26
7.59760E-02 5.95862E-26
7.83043E-02 5.51414E-26
8.06647E-02 5.10618E-26
8.30571E-02 4.73138E-26
8.54812E-02 4.38675E-26
8.79369E-02 4.06957E-26
9.04240E-02 3.77741E-26
9.29422E-02 3.50809E-26
9.54915E-02 3.25962E-26
9.80716E-02 3.03022E-26
1.00682E-01 2.81828E-26
1.03323E-01 2.62232E-26
1.05995E-01 2.44103E-26
1.08696E-01 2.27320E-26
1.11427E-01 2.11773E-26
1.14188E-01 1.97363E-26
1.16978E-01 1.83999E-26
1.19797E-01 1.71598E-26
1.22645E-01 1.60085E-26
1.25522E-01 1.49391E-26
1.28428E-01 1.39452E-26
1.31361E-01 1.30211E-26
1.34323E-01 1.21615E-26
1.37313E-01 1.13616E-26
1.40330E-01 1.06168E-26
1.43375E-01 9.92320E-27
1.46447E-01 9.27692E-27
1.49545E-01 8.67453E-27
1.52671E-01 8.11285E-27
1.55823E-01 7.58895E-27
1.59001E-01 7.10013E-27
1.62205E-01 6.64390E-27
1.65435E-01 6.21795E-27
1.68690E-01 5.82016E-27
1.71970E-01 5.44856E-27
1.75276E-01 5.10135E-27
1.78606E-01 4.77683E-27
1.81961E-01 4.47344E-27
1.85340E-01 4.18976E-27
1.88743E-01 3.92443E-27
1.92169E-01 3.67623E-27
1.95619E-01 3.44399E-27
1.99092E-01 3.22665E-27
2.02589E-01 3.02322E-27
2.06107E-01 2.83277E-27
2.09649E-01 2.65445E-27
2.13212E-01 2.48746E-27
2.16797E-01 2.33106E-27
2.20404E-01 2.18455E-27
2.24032E-01 2.04730E-27
2.27680E-01 1.91870E-27
2.31350E-01 1.79819E-27
2.35040E-01 1.68526E-27
2.38751E-01 1.57942E-27
2.42481E-01 1.48021E-27
2.46231E-01 1.38721E-27
2.50000E-01 1.30003E-27
2.53788E-01 1.21830E-27
2.57595E-01 1.14167E-27
2.61421E-01 1.06982E-27
2.65264E-01 1.00245E-27
2.69126E-01 9.39271E-28
2.73005E-01 8.80032E-28
2.76901E-01 8.24481E-28
2.80814E-01 7.72387E-28
2.84744E-01 7.23536E-28
2.88691E-01 6.77724E-28
2.92653E-01 6.34764E-28
2.96632E-01 5.94477E-28
3.00625E-01 5.56699E-28
3.04634E-01 5.21273E-28
3.08658E-01 4.88054E-28
3.12697E-01 4.56906E-28
3.16749E-01 4.27700E-28
3.20816E-01 4.00317E-28
3.24896E-01 3.74644E-28
3.28990E-01 3.50576E-28
3.33097E-01 3.28013E-28
3.37216E-01 3.06864E-28
3.41348E-01 2.87041E-28
3.45492E-01 2.68461E-28
3.49647E-01 2.51050E-28
3.53814E-01 2.34734E-28
3.57992E-01 2.19447E-28
3.62181E-01 2.05124E-28
3.66381E-01 1.91706E-28
3.70590E-01 1.79139E-28
3.74810E-01 1.67368E-28
3.79039E-01 1.56345E-28
3.83277E-01 1.46024E-28
3.87524E-01 1.36361E-28
3.91780E-01 1.27316E-28
3.96044E-01 1.18850E-28
4.00316E-01 1.10928E-28
4.04596E-01 1.03515E-28
4.08882E-01 9.65800E-29
4.13176E-01 9.00935E-29
4.17476E-01 8.40273E-29
4.21783E-01 7.83553E-29
4.26095E-01 7.30527E-29
4.30413E-01 6.80964E-29
4.34737E-01 6.34648E-29
4.39065E-01 5.91373E-29
4.43398E-01 5.50950E-29
4.47736E-01 5.13197E-29
4.52077E-01 4.77947E-29
4.56422E-01 4.45040E-29
4.60770E-01 4.14328E-29
4.65122E-01 3.85671E-29
4.69476E-01 3.58939E-29
4.73832E-01 3.34007E-29
4.78190E-01 3.10761E-29
4.82550E-01 2.89093E-29
4.86912E-01 2.68900E-29
4.91274E-01 2.50087E-29
4.95637E-01 2.32565E-29
5.00000E-01 2.16249E-29
5.04363E-01 2.01062E-29
5.08726E-01 1.86929E-29
5.13088E-01 1.73781E-29
5.17450E-01 1.61553E-29
5.21810E-01 1.50184E-29
5.26168E-01 1.39617E-29
5.30524E-01 1.29799E-29
5.34878E-01 1.20680E-29
5.39230E-01 1.12212E-29
5.43578E-01 1.04353E-29
5.47923E-01 9.70597E-30
5.52264E-01 9.02949E-30
5.56602E-01 8.40223E-30
5.60935E-01 7.82079E-30
5.65263E-01 7.28204E-30
5.69587E-01 6.78300E-30
5.73905E-01 6.32093E-30
5.78217E-01 5.89323E-30
5.82524E-01 5.49749E-30
5.86824E-01 5.13146E-30
5.91118E-01 4.79301E-30
5.95404E-01 4.48019E-30
5.99684E-01 4.19115E-30
6.03956E-01 3.92418E-30
6.08220E-01 3.67766E-30
6.12476E-01 3.45012E-30
6.16723E-01 3.24014E-30
6.20961E-01 3.04643E-30
6.25190E-01 2.86778E-30
6.29410E-01 2.70306E-30
6.33619E-01 2.55122E-30
6.37819E-01 2.41127E-30
6.42008E-01 2.28230E-30
6.46186E-01 2.16347E-30
6.50353E-01 2.05399E-30
6.54508E-01 1.95313E-30
6.58652E-01 1.86019E-30
6.62784E-01 1.77456E-30
6.66903E-01 1.69565E-30
6.71010E-01 1.62290E-30
6.75104E-01 1.55582E-30
6.79184E-01 1.49394E-30
6.83251E-01 1.43682E-30
6.87303E-01 1.38406E-30
6.91342E-01 1.33530E-30
6.95366E-01 1.29019E-30
6.99375E-01 1.24841E-30
7.03368E-01 1.20967E-30
7.07347E-01 1.17370E-30
7.11309E-01 1.14025E-30
7.15256E-01 1.10909E-30
7.19186E-01 1.08002E-30
7.23099E-01 1.05284E-30
7.26995E-01 1.02737E-30
7.30874E-01 1.00344E-30
7.34736E-01 9.80919E-31
7.38579E-01 9.59654E-31
7.42405E-01 9.39526E-31
7.46212E-01 9.20420E-31
7.50000E-01 9.02231E-31
7.53769E-01 8.84865E-31
7.57519E-01 8.68235E-31
7.61249E-01 8.52261E-31
7.64960E-01 8.36875E-31
7.68650E-01 8.22010E-31
7.72320E-01 8.07609E-31
7.75968E-01 7.93619E-31
7.79596E-01 7.79994E-31
7.83203E-01 7.66691E-31
7.86788E-01 7.53673E-31
7.90351E-01 7.40905E-31
7.93893E-01 7.28359E-31
7.97411E-01 7.16007E-31
8.00908E-01 7.03827E-31
8.04381E-01 6.91797E-31
8.07831E-01 6.79901E-31
8.11257E-01 6.68123E-31
8.14660E-01 6.56449E-31
8.18039E-01 6.44868E-31
8.21394E-01 6.33372E-31
8.24724E-01 6.21951E-31
8.28030E-01 6.10601E-31
8.31310E-01 5.99315E-31
8.34565E-01 5.88089E-31
8.37795E-01 5.76921E-31
8.40999E-01 5.65809E-31
8.44177E-01 5.54751E-31
8.47329E-01 5.43748E-31
8.50455E-01 5.32798E-31
8.53553E-01 5.21904E-31
8.56625E-01 5.11067E-31
8.59670E-01 5.00287E-31
8.62687E-01 4.89567E-31
8.65677E-01 4.78909E-31
8.68639E-01 4.68317E-31
8.71572E-01 4.57792E-31
8.74478E-01 4.47337E-31
8.77355E-01 4.36957E-31
8.80203E-01 4.26652E-31
8.83022E-01 4.16428E-31
8.85812E-01 4.06287E-31
8.88573E-01 3.96232E-31
8.91304E-01 3.86267E-31
8.94005E-01 3.76394E-31
8.96677E-01 3.66617E-31
8.99318E-01 3.56939E-31
9.01928E-01 3.47363E-31
9.04508E-01 3.37892E-31
9.07058E-01 3.28528E-31
9.09576E-01 3.19275E-31
9.12063E-01 3.10134E-31
9.14519E-01 3.01109E-31
9.16943E-01 2.92201E-31
9.19335E-01 2.83413E-31
9.21696E-01 2.74748E-31
9.24024E-01 2.66206E-31
9.26320E-01 2.57790E-31
9.28584E-01 2.49502E-31
9.30815E-01 2.41343E-31
9.33013E-01 2.33314E-31
9.35178E-01 2.25418E-31
9.37310E-01 2.17655E-31
9.39409E-01 2.10027E-31
9.41474E-01 2.02533E-31
9.43505E-01 1.95177E-31
9.45503E-01 1.87957E-31
9.47467E-01 1.80876E-31
9.49397E-01 1.73933E-31
9.51293E-01 1.67129E-31
9.53154E-01 1.60464E-31
9.54981E-01 1.53940E-31
9.56773E-01 1.47555E-31
9.58530E-01 1.41310E-31
9.60252E-01 1.35206E-31
9.61940E-01 1.29243E-31
9.63592E-01 1.23419E-31
9.65209E-01 1.17736E-31
9.66790E-01 1.12193E-31
9.68336E-01 1.06790E-31
9.69846E-01 1.01526E-31
9.71321E-01 9.64016E-32
9.72759E-01 9.14163E-32
9.74162E-01 8.65696E-32
9.75528E-01 8.18611E-32
9.76858E-01 7.72903E-32
9.78152E-01 7.28568E-32
9.79410E-01 6.85600E-32
9.80631E-01 6.43996E-32
9.81815E-01 6.03748E-32
9.82963E-01 5.64852E-32
9.84074E-01 5.27303E-32
9.85148E-01 4.91094E-32
9.86185E-01 4.56220E-32
9.87185E-01 4.22675E-32
9.88148E-01 3.90453E-32
9.89074E-01 3.59549E-32
9.89962E-01 3.29958E-32
9.90814E-01 3.01672E-32
9.91627E-01 2.74687E-32
9.92404E-01 2.48997E-32
9.93143E-01 2.24598E-32
9.93844E-01 2.01483E-32
9.94508E-01 1.79649E-32
9.95134E-01 1.59089E-32
9.95722E-01 1.39800E-32
9.96273E-01 1.21777E-32
9.96786E-01 1.05016E-32
9.97261E-01 8.95135E-33
9.97698E-01 7.52648E-33
9.98097E-01 6.22670E-33
9.98459E-01 5.05169E-33
9.98782E-01 4.00117E-33
9.99067E-01 3.07484E-33
9.99315E-01 2.27252E-33
9.99524E-01 1.59396E-33
9.99695E-01 1.03902E-33
9.99829E-01 6.07554E-34
9.99924E-01 2.99437E-34
9.99981E-01 1.14601E-34
1.00000E+00 5.29862E-35
