 #
 # Subroutine ELSEPA. Elastic scattering of electrons and positrons
 #                    by neutral atoms and positive ions
 #
 # Projectile: electron
 # Kinetic energy = 8.00000E+07 eV = 2.93995E+06 a.u.
 #
 # WARNING: High-energy factorization with free-atom DF screening.
 #          Absorption, polarization and exchange corrections are
 #          switched off.
 #          Phase shifts are calculated for the bare nucleus.
 #          Scattering amplitudes are not evaluated.
 #
 # Element: Ge,  Z =  32,  atomic weight = 7.26100E+01 g/mol
 #
 # Nuclear model: Fermi distribution
 #                Average radius = 4.46392E-13 cm
 #                Skin thickness = 5.46000E-14 cm
 #
 # Number of electrons = 32
 #
 # Total elastic cross section = 2.34612E-18 cm**2 = 8.37816E-02 a0**2
 # 1st transport cross section = 3.20879E-25 cm**2 = 1.14588E-08 a0**2
 # 2nd transport cross section = 9.50165E-25 cm**2 = 3.39310E-08 a0**2
 #
 #
 # Differential cross section:                       MU=(1-COS(THETA))/2
 #
 #  THETA        MU          DCS          DCS        Sherman      error
 #  (deg)                 (cm**2/sr)   (a0**2/sr)    function
 #----------------------------------------------------------------------
0.00000E+00 1.32684E-10
7.61557E-13 1.32466E-10
1.18994E-12 1.32343E-10
1.71346E-12 1.32194E-10
2.33225E-12 1.32018E-10
3.04617E-12 1.31816E-10
3.85530E-12 1.31587E-10
4.75964E-12 1.31332E-10
5.75917E-12 1.31051E-10
6.85391E-12 1.30744E-10
8.04379E-12 1.30412E-10
9.32893E-12 1.30055E-10
1.07092E-11 1.29673E-10
1.21847E-11 1.29267E-10
1.37554E-11 1.28837E-10
1.54213E-11 1.28384E-10
1.71823E-11 1.27907E-10
1.90386E-11 1.27407E-10
2.09900E-11 1.26886E-10
2.30367E-11 1.26342E-10
2.51785E-11 1.25777E-10
2.74156E-11 1.25192E-10
2.97478E-11 1.24586E-10
3.21752E-11 1.23960E-10
3.46979E-11 1.23315E-10
3.73157E-11 1.22646E-10
4.00286E-11 1.21959E-10
4.28368E-11 1.21257E-10
4.57402E-11 1.20540E-10
4.87388E-11 1.19809E-10
5.18325E-11 1.19065E-10
5.50215E-11 1.18309E-10
5.83057E-11 1.17523E-10
6.16850E-11 1.16724E-10
6.51595E-11 1.15915E-10
6.87293E-11 1.15096E-10
7.23943E-11 1.14269E-10
7.61544E-11 1.13433E-10
1.18991E-10 1.04487E-10
1.71347E-10 9.50304E-11
2.33223E-10 8.55240E-11
3.04617E-10 7.63606E-11
3.85531E-10 6.77933E-11
4.75965E-10 5.99599E-11
5.75917E-10 5.29410E-11
6.85389E-10 4.67125E-11
8.04380E-10 4.12611E-11
9.32891E-10 3.64973E-11
1.07092E-09 3.23736E-11
1.21847E-09 2.87909E-11
1.37554E-09 2.56972E-11
1.54213E-09 2.30116E-11
1.71823E-09 2.06852E-11
1.90386E-09 1.86592E-11
2.09900E-09 1.68934E-11
2.30367E-09 1.53469E-11
2.51785E-09 1.39886E-11
2.74156E-09 1.27907E-11
2.97478E-09 1.17296E-11
3.21752E-09 1.07869E-11
3.46978E-09 9.94454E-12
3.73156E-09 9.15540E-12
4.00286E-09 8.44779E-12
4.28368E-09 7.82424E-12
4.57402E-09 7.27267E-12
4.87388E-09 6.78296E-12
5.18326E-09 6.34664E-12
5.50215E-09 5.95658E-12
5.83057E-09 5.54871E-12
6.16850E-09 5.17907E-12
6.51596E-09 4.84736E-12
6.87293E-09 4.54881E-12
7.23942E-09 4.27934E-12
7.61544E-09 4.03547E-12
1.18991E-08 2.24880E-12
1.71347E-08 1.32040E-12
2.33223E-08 8.05204E-13
3.04617E-08 5.10387E-13
3.85531E-08 3.36241E-13
4.75965E-08 2.29671E-13
5.75917E-08 1.62313E-13
6.85389E-08 1.18173E-13
8.04380E-08 8.83319E-14
9.32891E-08 6.75048E-14
1.07092E-07 5.25839E-14
1.21847E-07 4.16239E-14
1.37554E-07 3.34200E-14
1.54213E-07 2.71482E-14
1.71823E-07 2.22866E-14
1.90386E-07 1.84594E-14
2.09900E-07 1.54157E-14
2.30367E-07 1.29684E-14
2.51785E-07 1.09836E-14
2.74156E-07 9.36017E-15
2.97478E-07 8.02187E-15
3.21752E-07 6.91155E-15
3.46978E-07 5.98403E-15
3.73156E-07 5.20261E-15
4.00286E-07 4.54531E-15
4.28368E-07 3.99049E-15
4.57402E-07 3.51341E-15
4.87388E-07 3.10657E-15
5.18325E-07 2.75698E-15
5.50215E-07 2.45393E-15
5.83057E-07 2.19193E-15
6.16850E-07 1.96366E-15
6.51596E-07 1.76415E-15
6.87293E-07 1.58964E-15
7.23942E-07 1.43585E-15
7.61543E-07 1.30030E-15
1.18991E-06 5.42069E-16
1.71347E-06 2.65068E-16
2.33223E-06 1.44671E-16
3.04617E-06 8.55478E-17
3.85531E-06 5.37708E-17
4.75964E-06 3.54633E-17
5.75916E-06 2.43201E-17
6.85388E-06 1.72260E-17
8.04378E-06 1.25376E-17
9.32888E-06 9.33984E-18
1.07092E-05 7.09880E-18
1.21846E-05 5.49085E-18
1.37553E-05 4.31317E-18
1.54212E-05 3.43479E-18
1.71822E-05 2.76894E-18
1.90385E-05 2.25662E-18
2.09899E-05 1.85789E-18
2.30365E-05 1.54338E-18
2.51783E-05 1.29260E-18
2.74153E-05 1.09067E-18
2.97475E-05 9.26632E-19
3.21749E-05 7.92301E-19
3.46974E-05 6.81467E-19
3.73152E-05 5.89375E-19
4.00281E-05 5.12346E-19
4.28362E-05 4.47510E-19
4.57395E-05 3.92614E-19
4.87380E-05 3.45880E-19
5.18317E-05 3.05890E-19
5.50205E-05 2.71513E-19
5.83045E-05 2.41831E-19
6.16838E-05 2.16098E-19
6.51582E-05 1.93701E-19
6.87277E-05 1.74136E-19
7.23925E-05 1.56983E-19
7.61524E-05 1.41910E-19
9.21439E-05 9.69951E-20
1.09658E-04 6.85289E-20
1.28695E-04 4.97866E-20
1.49255E-04 3.70367E-20
1.71338E-04 2.81220E-20
1.94942E-04 2.17362E-20
2.20070E-04 1.70655E-20
2.46720E-04 1.35855E-20
2.74892E-04 1.09494E-20
3.04586E-04 8.92337E-21
3.35803E-04 7.34527E-21
3.68542E-04 6.10141E-21
4.02802E-04 5.11024E-21
4.38585E-04 4.31257E-21
4.75889E-04 3.66479E-21
5.14715E-04 3.13429E-21
5.55063E-04 2.69649E-21
5.96931E-04 2.33260E-21
6.40321E-04 2.02813E-21
6.85233E-04 1.77181E-21
7.31665E-04 1.55476E-21
7.79618E-04 1.37000E-21
8.29092E-04 1.21190E-21
8.80086E-04 1.07599E-21
9.32601E-04 9.58632E-22
9.86636E-04 8.56858E-22
1.04219E-03 7.68256E-22
1.09927E-03 6.90824E-22
1.15786E-03 6.22918E-22
1.21797E-03 5.63161E-22
1.27961E-03 5.10409E-22
1.34276E-03 4.63696E-22
1.40743E-03 4.22213E-22
1.47362E-03 3.85270E-22
1.54133E-03 3.52286E-22
1.61056E-03 3.22757E-22
1.68131E-03 2.96265E-22
1.75357E-03 2.72436E-22
1.82735E-03 2.50957E-22
1.90265E-03 2.31556E-22
1.97947E-03 2.13995E-22
2.05780E-03 1.98068E-22
2.13765E-03 1.83597E-22
2.21902E-03 1.70424E-22
2.30190E-03 1.58413E-22
2.38630E-03 1.47442E-22
2.47222E-03 1.37404E-22
2.55965E-03 1.28207E-22
2.64859E-03 1.19767E-22
2.73905E-03 1.12010E-22
2.83103E-03 1.04871E-22
2.92452E-03 9.82922E-23
3.01952E-03 9.22211E-23
3.11604E-03 8.66116E-23
3.21407E-03 8.14220E-23
3.31362E-03 7.66153E-23
3.41468E-03 7.21580E-23
3.51725E-03 6.80201E-23
3.62133E-03 6.41744E-23
3.72692E-03 6.05965E-23
3.83403E-03 5.72643E-23
3.94265E-03 5.41579E-23
4.05278E-03 5.12591E-23
4.16442E-03 4.85515E-23
4.27757E-03 4.60202E-23
4.39223E-03 4.36514E-23
4.50840E-03 4.14330E-23
4.62608E-03 3.93535E-23
4.74527E-03 3.74026E-23
4.86597E-03 3.55709E-23
4.98817E-03 3.38498E-23
5.11188E-03 3.22314E-23
5.23711E-03 3.07083E-23
5.36383E-03 2.92739E-23
5.49207E-03 2.79222E-23
5.62181E-03 2.66473E-23
5.75306E-03 2.54442E-23
5.88581E-03 2.43081E-23
6.02007E-03 2.32345E-23
6.15583E-03 2.22193E-23
6.29310E-03 2.12588E-23
6.43187E-03 2.03495E-23
6.57214E-03 1.94881E-23
6.71392E-03 1.86717E-23
6.85720E-03 1.78974E-23
7.00198E-03 1.71626E-23
7.14827E-03 1.64650E-23
7.29605E-03 1.58024E-23
7.44534E-03 1.51726E-23
7.59612E-03 1.45737E-23
7.97965E-03 1.32003E-23
8.37255E-03 1.19842E-23
8.77480E-03 1.09041E-23
9.18641E-03 9.94241E-24
9.60736E-03 9.08376E-24
1.00376E-02 8.31523E-24
1.04773E-02 7.62570E-24
1.09262E-02 7.00565E-24
1.13844E-02 6.44684E-24
1.18520E-02 5.94217E-24
1.23288E-02 5.48549E-24
1.28150E-02 5.07141E-24
1.33104E-02 4.69528E-24
1.38150E-02 4.35300E-24
1.43290E-02 4.04099E-24
1.48521E-02 3.75611E-24
1.53845E-02 3.49557E-24
1.59262E-02 3.25694E-24
1.64770E-02 3.03804E-24
1.70371E-02 2.83695E-24
1.76063E-02 2.65198E-24
1.81848E-02 2.48160E-24
1.87724E-02 2.32446E-24
1.93692E-02 2.17934E-24
1.99751E-02 2.04517E-24
2.05901E-02 1.92098E-24
2.12143E-02 1.80588E-24
2.18476E-02 1.69911E-24
2.24900E-02 1.59994E-24
2.31415E-02 1.50775E-24
2.38021E-02 1.42195E-24
2.44717E-02 1.34203E-24
2.51504E-02 1.26751E-24
2.58382E-02 1.19796E-24
2.65349E-02 1.13299E-24
2.72407E-02 1.07225E-24
2.79555E-02 1.01542E-24
2.86793E-02 9.62200E-25
2.94120E-02 9.12318E-25
3.01537E-02 8.65531E-25
3.09043E-02 8.21613E-25
3.16639E-02 7.80358E-25
3.24324E-02 7.41576E-25
3.32098E-02 7.05093E-25
3.39961E-02 6.70750E-25
3.47912E-02 6.38400E-25
3.55952E-02 6.07907E-25
3.64081E-02 5.79145E-25
3.72297E-02 5.52001E-25
3.80602E-02 5.26367E-25
3.88995E-02 5.02146E-25
3.97476E-02 4.79245E-25
4.06044E-02 4.57581E-25
4.14700E-02 4.37076E-25
4.23443E-02 4.17657E-25
4.32273E-02 3.99257E-25
4.41190E-02 3.81814E-25
4.50194E-02 3.65269E-25
4.59284E-02 3.49569E-25
4.68461E-02 3.34663E-25
4.87074E-02 3.07049E-25
5.06030E-02 2.82090E-25
5.25328E-02 2.59490E-25
5.44967E-02 2.38993E-25
5.64946E-02 2.20372E-25
5.85262E-02 2.03430E-25
6.05914E-02 1.87992E-25
6.26901E-02 1.73905E-25
6.48222E-02 1.61033E-25
6.69873E-02 1.49255E-25
6.91854E-02 1.38465E-25
7.14163E-02 1.28568E-25
7.36799E-02 1.19479E-25
7.59760E-02 1.11122E-25
7.83043E-02 1.03431E-25
8.06647E-02 9.63446E-26
8.30571E-02 8.98086E-26
8.54812E-02 8.37743E-26
8.79369E-02 7.81979E-26
9.04240E-02 7.30400E-26
9.29422E-02 6.82649E-26
9.54915E-02 6.38403E-26
9.80716E-02 5.97372E-26
1.00682E-01 5.59291E-26
1.03323E-01 5.23921E-26
1.05995E-01 4.91043E-26
1.08696E-01 4.60460E-26
1.11427E-01 4.31992E-26
1.14188E-01 4.05474E-26
1.16978E-01 3.80756E-26
1.19797E-01 3.57702E-26
1.22645E-01 3.36186E-26
1.25522E-01 3.16093E-26
1.28428E-01 2.97319E-26
1.31361E-01 2.79766E-26
1.34323E-01 2.63347E-26
1.37313E-01 2.47980E-26
1.40330E-01 2.33590E-26
1.43375E-01 2.20108E-26
1.46447E-01 2.07472E-26
1.49545E-01 1.95621E-26
1.52671E-01 1.84503E-26
1.55823E-01 1.74068E-26
1.59001E-01 1.64269E-26
1.62205E-01 1.55063E-26
1.65435E-01 1.46412E-26
1.68690E-01 1.38279E-26
1.71970E-01 1.30630E-26
1.75276E-01 1.23433E-26
1.78606E-01 1.16659E-26
1.81961E-01 1.10282E-26
1.85340E-01 1.04275E-26
1.88743E-01 9.86163E-27
1.92169E-01 9.32831E-27
1.95619E-01 8.82552E-27
1.99092E-01 8.35139E-27
2.02589E-01 7.90416E-27
2.06107E-01 7.48217E-27
2.09649E-01 7.08389E-27
2.13212E-01 6.70790E-27
2.16797E-01 6.35286E-27
2.20404E-01 6.01751E-27
2.24032E-01 5.70068E-27
2.27680E-01 5.40129E-27
2.31350E-01 5.11831E-27
2.35040E-01 4.85078E-27
2.38751E-01 4.59781E-27
2.42481E-01 4.35855E-27
2.46231E-01 4.13222E-27
2.50000E-01 3.91807E-27
2.53788E-01 3.71541E-27
2.57595E-01 3.52360E-27
2.61421E-01 3.34201E-27
2.65264E-01 3.17008E-27
2.69126E-01 3.00726E-27
2.73005E-01 2.85305E-27
2.76901E-01 2.70697E-27
2.80814E-01 2.56856E-27
2.84744E-01 2.43742E-27
2.88691E-01 2.31314E-27
2.92653E-01 2.19534E-27
2.96632E-01 2.08368E-27
3.00625E-01 1.97781E-27
3.04634E-01 1.87744E-27
3.08658E-01 1.78225E-27
3.12697E-01 1.69198E-27
3.16749E-01 1.60636E-27
3.20816E-01 1.52515E-27
3.24896E-01 1.44810E-27
3.28990E-01 1.37500E-27
3.33097E-01 1.30564E-27
3.37216E-01 1.23982E-27
3.41348E-01 1.17736E-27
3.45492E-01 1.11807E-27
3.49647E-01 1.06181E-27
3.53814E-01 1.00840E-27
3.57992E-01 9.57695E-28
3.62181E-01 9.09561E-28
3.66381E-01 8.63863E-28
3.70590E-01 8.20473E-28
3.74810E-01 7.79274E-28
3.79039E-01 7.40152E-28
3.83277E-01 7.03002E-28
3.87524E-01 6.67721E-28
3.91780E-01 6.34215E-28
3.96044E-01 6.02393E-28
4.00316E-01 5.72169E-28
4.04596E-01 5.43462E-28
4.08882E-01 5.16194E-28
4.13176E-01 4.90293E-28
4.17476E-01 4.65690E-28
4.21783E-01 4.42318E-28
4.26095E-01 4.20116E-28
4.30413E-01 3.99025E-28
4.34737E-01 3.78989E-28
4.39065E-01 3.59954E-28
4.43398E-01 3.41871E-28
4.47736E-01 3.24692E-28
4.52077E-01 3.08370E-28
4.56422E-01 2.92864E-28
4.60770E-01 2.78133E-28
4.65122E-01 2.64137E-28
4.69476E-01 2.50841E-28
4.73832E-01 2.38208E-28
4.78190E-01 2.26207E-28
4.82550E-01 2.14805E-28
4.86912E-01 2.03972E-28
4.91274E-01 1.93681E-28
4.95637E-01 1.83904E-28
5.00000E-01 1.74616E-28
5.04363E-01 1.65792E-28
5.08726E-01 1.57410E-28
5.13088E-01 1.49446E-28
5.17450E-01 1.41882E-28
5.21810E-01 1.34696E-28
5.26168E-01 1.27870E-28
5.30524E-01 1.21386E-28
5.34878E-01 1.15227E-28
5.39230E-01 1.09377E-28
5.43578E-01 1.03821E-28
5.47923E-01 9.85437E-29
5.52264E-01 9.35315E-29
5.56602E-01 8.87712E-29
5.60935E-01 8.42504E-29
5.65263E-01 7.99571E-29
5.69587E-01 7.58801E-29
5.73905E-01 7.20085E-29
5.78217E-01 6.83323E-29
5.82524E-01 6.48415E-29
5.86824E-01 6.15271E-29
5.91118E-01 5.83803E-29
5.95404E-01 5.53926E-29
5.99684E-01 5.25563E-29
6.03956E-01 4.98636E-29
6.08220E-01 4.73075E-29
6.12476E-01 4.48811E-29
6.16723E-01 4.25781E-29
6.20961E-01 4.03921E-29
6.25190E-01 3.83173E-29
6.29410E-01 3.63482E-29
6.33619E-01 3.44796E-29
6.37819E-01 3.27063E-29
6.42008E-01 3.10235E-29
6.46186E-01 2.94268E-29
6.50353E-01 2.79118E-29
6.54508E-01 2.64744E-29
6.58652E-01 2.51106E-29
6.62784E-01 2.38169E-29
6.66903E-01 2.25896E-29
6.71010E-01 2.14254E-29
6.75104E-01 2.03211E-29
6.79184E-01 1.92737E-29
6.83251E-01 1.82803E-29
6.87303E-01 1.73381E-29
6.91342E-01 1.64446E-29
6.95366E-01 1.55973E-29
6.99375E-01 1.47939E-29
7.03368E-01 1.40320E-29
7.07347E-01 1.33096E-29
7.11309E-01 1.26247E-29
7.15256E-01 1.19754E-29
7.19186E-01 1.13598E-29
7.23099E-01 1.07762E-29
7.26995E-01 1.02230E-29
7.30874E-01 9.69854E-30
7.34736E-01 9.20143E-30
7.38579E-01 8.73025E-30
7.42405E-01 8.28364E-30
7.46212E-01 7.86035E-30
7.50000E-01 7.45916E-30
7.53769E-01 7.07893E-30
7.57519E-01 6.71857E-30
7.61249E-01 6.37705E-30
7.64960E-01 6.05340E-30
7.68650E-01 5.74668E-30
7.72320E-01 5.45600E-30
7.75968E-01 5.18054E-30
7.79596E-01 4.91948E-30
7.83203E-01 4.67209E-30
7.86788E-01 4.43764E-30
7.90351E-01 4.21545E-30
7.93893E-01 4.00488E-30
7.97411E-01 3.80531E-30
8.00908E-01 3.61617E-30
8.04381E-01 3.43690E-30
8.07831E-01 3.26698E-30
8.11257E-01 3.10592E-30
8.14660E-01 2.95325E-30
8.18039E-01 2.80851E-30
8.21394E-01 2.67130E-30
8.24724E-01 2.54120E-30
8.28030E-01 2.41783E-30
8.31310E-01 2.30085E-30
8.34565E-01 2.18991E-30
8.37795E-01 2.08467E-30
8.40999E-01 1.98485E-30
8.44177E-01 1.89014E-30
8.47329E-01 1.80028E-30
8.50455E-01 1.71500E-30
8.53553E-01 1.63406E-30
8.56625E-01 1.55722E-30
8.59670E-01 1.48426E-30
8.62687E-01 1.41498E-30
8.65677E-01 1.34917E-30
8.68639E-01 1.28664E-30
8.71572E-01 1.22723E-30
8.74478E-01 1.17076E-30
8.77355E-01 1.11707E-30
8.80203E-01 1.06602E-30
8.83022E-01 1.01746E-30
8.85812E-01 9.71252E-31
8.88573E-01 9.27277E-31
8.91304E-01 8.85411E-31
8.94005E-01 8.45542E-31
8.96677E-01 8.07563E-31
8.99318E-01 7.71371E-31
9.01928E-01 7.36871E-31
9.04508E-01 7.03973E-31
9.07058E-01 6.72591E-31
9.09576E-01 6.42644E-31
9.12063E-01 6.14057E-31
9.14519E-01 5.86758E-31
9.16943E-01 5.60678E-31
9.19335E-01 5.35754E-31
9.21696E-01 5.11926E-31
9.24024E-01 4.89136E-31
9.26320E-01 4.67331E-31
9.28584E-01 4.46460E-31
9.30815E-01 4.26475E-31
9.33013E-01 4.07332E-31
9.35178E-01 3.88987E-31
9.37310E-01 3.71402E-31
9.39409E-01 3.54538E-31
9.41474E-01 3.38361E-31
9.43505E-01 3.22836E-31
9.45503E-01 3.07933E-31
9.47467E-01 2.93621E-31
9.49397E-01 2.79874E-31
9.51293E-01 2.66664E-31
9.53154E-01 2.53969E-31
9.54981E-01 2.41763E-31
9.56773E-01 2.30026E-31
9.58530E-01 2.18738E-31
9.60252E-01 2.07879E-31
9.61940E-01 1.97431E-31
9.63592E-01 1.87377E-31
9.65209E-01 1.77702E-31
9.66790E-01 1.68391E-31
9.68336E-01 1.59429E-31
9.69846E-01 1.50805E-31
9.71321E-01 1.42504E-31
9.72759E-01 1.34517E-31
9.74162E-01 1.26832E-31
9.75528E-01 1.19440E-31
9.76858E-01 1.12330E-31
9.78152E-01 1.05495E-31
9.79410E-01 9.89250E-32
9.80631E-01 9.26135E-32
9.81815E-01 8.65531E-32
9.82963E-01 8.07370E-32
9.84074E-01 7.51590E-32
9.85148E-01 6.98132E-32
9.86185E-01 6.46942E-32
9.87185E-01 5.97970E-32
9.88148E-01 5.51168E-32
9.89074E-01 5.06492E-32
9.89962E-01 4.63902E-32
9.90814E-01 4.23360E-32
9.91627E-01 3.84830E-32
9.92404E-01 3.48281E-32
9.93143E-01 3.13682E-32
9.93844E-01 2.81005E-32
9.94508E-01 2.50224E-32
9.95134E-01 2.21316E-32
9.95722E-01 1.94260E-32
9.96273E-01 1.69035E-32
9.96786E-01 1.45622E-32
9.97261E-01 1.24007E-32
9.97698E-01 1.04173E-32
9.98097E-01 8.61063E-33
9.98459E-01 6.97959E-33
9.98782E-01 5.52303E-33
9.99067E-01 4.24001E-33
9.99315E-01 3.12971E-33
9.99524E-01 2.19141E-33
9.99695E-01 1.42450E-33
9.99829E-01 8.28520E-34
9.99924E-01 4.03078E-34
9.99981E-01 1.47922E-34
1.00000E+00 6.28812E-35
