 #
 # Subroutine ELSEPA. Elastic scattering of electrons and positrons
 #                    by neutral atoms and positive ions
 #
 # Projectile: electron
 # Kinetic energy = 2.00000E+08 eV = 7.34987E+06 a.u.
 #
 # WARNING: High-energy factorization with free-atom DF screening.
 #          Absorption, polarization and exchange corrections are
 #          switched off.
 #          Phase shifts are calculated for the bare nucleus.
 #          Scattering amplitudes are not evaluated.
 #
 # Element: Ge,  Z =  32,  atomic weight = 7.26100E+01 g/mol
 #
 # Nuclear model: Fermi distribution
 #                Average radius = 4.46392E-13 cm
 #                Skin thickness = 5.46000E-14 cm
 #
 # Number of electrons = 32
 #
 # Total elastic cross section = 2.34673E-18 cm**2 = 8.38034E-02 a0**2
 # 1st transport cross section = 5.19656E-26 cm**2 = 1.85572E-09 a0**2
 # 2nd transport cross section = 1.55486E-25 cm**2 = 5.55252E-09 a0**2
 #
 #
 # Differential cross section:                       MU=(1-COS(THETA))/2
 #
 #  THETA        MU          DCS          DCS        Sherman      error
 #  (deg)                 (cm**2/sr)   (a0**2/sr)    function
 #----------------------------------------------------------------------
0.00000E+00 8.22972E-10
7.61557E-13 8.14645E-10
1.18994E-12 8.10024E-10
1.71346E-12 8.04435E-10
2.33225E-12 7.97907E-10
3.04617E-12 7.90481E-10
3.85530E-12 7.82198E-10
4.75964E-12 7.73102E-10
5.75917E-12 7.63239E-10
6.85391E-12 7.52594E-10
8.04379E-12 7.41385E-10
9.32893E-12 7.29585E-10
1.07092E-11 7.17149E-10
1.21847E-11 7.04353E-10
1.37554E-11 6.91046E-10
1.54213E-11 6.77354E-10
1.71823E-11 6.63499E-10
1.90386E-11 6.49177E-10
2.09900E-11 6.34747E-10
2.30367E-11 6.20280E-10
2.51785E-11 6.05460E-10
2.74156E-11 5.90758E-10
2.97478E-11 5.76035E-10
3.21752E-11 5.61213E-10
3.46979E-11 5.46631E-10
3.73157E-11 5.32017E-10
4.00286E-11 5.17535E-10
4.28368E-11 5.03382E-10
4.57402E-11 4.89171E-10
4.87388E-11 4.75287E-10
5.18325E-11 4.61722E-10
5.50215E-11 4.48201E-10
5.83057E-11 4.35096E-10
6.16850E-11 4.22243E-10
6.51595E-11 4.09595E-10
6.87293E-11 3.97376E-10
7.23943E-11 3.85347E-10
7.61544E-11 3.73642E-10
1.18991E-10 2.73855E-10
1.71347E-10 2.02146E-10
2.33223E-10 1.51858E-10
3.04617E-10 1.16627E-10
3.85531E-10 9.15666E-11
4.75965E-10 7.33410E-11
5.75917E-10 5.97269E-11
6.85389E-10 4.89447E-11
8.04380E-10 4.10142E-11
9.32891E-10 3.47386E-11
1.07092E-09 2.93800E-11
1.21847E-09 2.52491E-11
1.37554E-09 2.16918E-11
1.54213E-09 1.86832E-11
1.71823E-09 1.62851E-11
1.90386E-09 1.40990E-11
2.09900E-09 1.22887E-11
2.30367E-09 1.07906E-11
2.51785E-09 9.41743E-12
2.74156E-09 8.28290E-12
2.97478E-09 7.30483E-12
3.21752E-09 6.43581E-12
3.46978E-09 5.70504E-12
3.73156E-09 5.05851E-12
4.00286E-09 4.49473E-12
4.28368E-09 4.01357E-12
4.57402E-09 3.58130E-12
4.87388E-09 3.20736E-12
5.18326E-09 2.88229E-12
5.50215E-09 2.59128E-12
5.83057E-09 2.33798E-12
6.16850E-09 2.11423E-12
6.51596E-09 1.91507E-12
6.87293E-09 1.73991E-12
7.23942E-09 1.58344E-12
7.61544E-09 1.44419E-12
1.18991E-08 6.40501E-13
1.71347E-08 3.30616E-13
2.33223E-08 1.89124E-13
3.04617E-08 1.16091E-13
3.85531E-08 7.50128E-14
4.75965E-08 5.04663E-14
5.75917E-08 3.50940E-14
6.85389E-08 2.51087E-14
8.04380E-08 1.84101E-14
9.32891E-08 1.37941E-14
1.07092E-07 1.05352E-14
1.21847E-07 8.18334E-15
1.37554E-07 6.45291E-15
1.54213E-07 5.15728E-15
1.71823E-07 4.17173E-15
1.90386E-07 3.41132E-15
2.09900E-07 2.81701E-15
2.30367E-07 2.34698E-15
2.51785E-07 1.97129E-15
2.74156E-07 1.66797E-15
2.97478E-07 1.42093E-15
3.21752E-07 1.21807E-15
3.46978E-07 1.05020E-15
3.73156E-07 9.10314E-16
4.00286E-07 7.92984E-16
4.28368E-07 6.93974E-16
4.57402E-07 6.09951E-16
4.87388E-07 5.38269E-16
5.18325E-07 4.76812E-16
5.50215E-07 4.23880E-16
5.83057E-07 3.78086E-16
6.16850E-07 3.38306E-16
6.51596E-07 3.03619E-16
6.87293E-07 2.73262E-16
7.23942E-07 2.46602E-16
7.61543E-07 2.23112E-16
1.18991E-06 9.21557E-17
1.71347E-06 4.46474E-17
2.33223E-06 2.41648E-17
3.04617E-06 1.41890E-17
3.85531E-06 8.86820E-18
4.75964E-06 5.82312E-18
5.75916E-06 3.97966E-18
6.85388E-06 2.81123E-18
8.04378E-06 2.04180E-18
9.32888E-06 1.51850E-18
1.07092E-05 1.15261E-18
1.21846E-05 8.90588E-19
1.37553E-05 6.98971E-19
1.54212E-05 5.56231E-19
1.71822E-05 4.48142E-19
1.90385E-05 3.65049E-19
2.09899E-05 3.00425E-19
2.30365E-05 2.49483E-19
2.51783E-05 2.08884E-19
2.74153E-05 1.76209E-19
2.97475E-05 1.49675E-19
3.21749E-05 1.27953E-19
3.46974E-05 1.10037E-19
3.73152E-05 9.51532E-20
4.00281E-05 8.27068E-20
4.28362E-05 7.22326E-20
4.57395E-05 6.33658E-20
4.87380E-05 5.58183E-20
5.18317E-05 4.93611E-20
5.50205E-05 4.38106E-20
5.83045E-05 3.90188E-20
6.16838E-05 3.48649E-20
6.51582E-05 3.12500E-20
6.87277E-05 2.80922E-20
7.23925E-05 2.53239E-20
7.61524E-05 2.28893E-20
9.21439E-05 1.56412E-20
1.09658E-04 1.10484E-20
1.28695E-04 8.02491E-21
1.49255E-04 5.96838E-21
1.71338E-04 4.53065E-21
1.94942E-04 3.50089E-21
2.20070E-04 2.74779E-21
2.46720E-04 2.18675E-21
2.74892E-04 1.76183E-21
3.04586E-04 1.43528E-21
3.35803E-04 1.18097E-21
3.68542E-04 9.80546E-22
4.02802E-04 8.20872E-22
4.38585E-04 6.92393E-22
4.75889E-04 5.88076E-22
5.14715E-04 5.02664E-22
5.55063E-04 4.32194E-22
5.96931E-04 3.73634E-22
6.40321E-04 3.24649E-22
6.85233E-04 2.83421E-22
7.31665E-04 2.48521E-22
7.79618E-04 2.18820E-22
8.29092E-04 1.93415E-22
8.80086E-04 1.71582E-22
9.32601E-04 1.52735E-22
9.86636E-04 1.36398E-22
1.04219E-03 1.22179E-22
1.09927E-03 1.09759E-22
1.15786E-03 9.88710E-23
1.21797E-03 8.92939E-23
1.27961E-03 8.08430E-23
1.34276E-03 7.33634E-23
1.40743E-03 6.67241E-23
1.47362E-03 6.08146E-23
1.54133E-03 5.55408E-23
1.61056E-03 5.08225E-23
1.68131E-03 4.65912E-23
1.75357E-03 4.27877E-23
1.82735E-03 3.93614E-23
1.90265E-03 3.62682E-23
1.97947E-03 3.34703E-23
2.05780E-03 3.09345E-23
2.13765E-03 2.86319E-23
2.21902E-03 2.65373E-23
2.30190E-03 2.46287E-23
2.38630E-03 2.28866E-23
2.47222E-03 2.12940E-23
2.55965E-03 1.98358E-23
2.64859E-03 1.84986E-23
2.73905E-03 1.72707E-23
2.83103E-03 1.61415E-23
2.92452E-03 1.51018E-23
3.01952E-03 1.41431E-23
3.11604E-03 1.32581E-23
3.21407E-03 1.24400E-23
3.31362E-03 1.16830E-23
3.41468E-03 1.09817E-23
3.51725E-03 1.03312E-23
3.62133E-03 9.72730E-24
3.72692E-03 9.16597E-24
3.83403E-03 8.64372E-24
3.94265E-03 8.15735E-24
4.05278E-03 7.70396E-24
4.16442E-03 7.28092E-24
4.27757E-03 6.88585E-24
4.39223E-03 6.51657E-24
4.50840E-03 6.17110E-24
4.62608E-03 5.84764E-24
4.74527E-03 5.54454E-24
4.86597E-03 5.26030E-24
4.98817E-03 4.99354E-24
5.11188E-03 4.74299E-24
5.23711E-03 4.50750E-24
5.36383E-03 4.28601E-24
5.49207E-03 4.07754E-24
5.62181E-03 3.88119E-24
5.75306E-03 3.69614E-24
5.88581E-03 3.52163E-24
6.02007E-03 3.35694E-24
6.15583E-03 3.20143E-24
6.29310E-03 3.05451E-24
6.43187E-03 2.91561E-24
6.57214E-03 2.78422E-24
6.71392E-03 2.65988E-24
6.85720E-03 2.54213E-24
7.00198E-03 2.43056E-24
7.14827E-03 2.32480E-24
7.29605E-03 2.22449E-24
7.44534E-03 2.12931E-24
7.59612E-03 2.03895E-24
7.97965E-03 1.83229E-24
8.37255E-03 1.65006E-24
8.77480E-03 1.48894E-24
9.18641E-03 1.34610E-24
9.60736E-03 1.21915E-24
1.00376E-02 1.10607E-24
1.04773E-02 1.00511E-24
1.09262E-02 9.14778E-25
1.13844E-02 8.33789E-25
1.18520E-02 7.61035E-25
1.23288E-02 6.95557E-25
1.28150E-02 6.36522E-25
1.33104E-02 5.83205E-25
1.38150E-02 5.34973E-25
1.43290E-02 4.91273E-25
1.48521E-02 4.51619E-25
1.53845E-02 4.15585E-25
1.59262E-02 3.82795E-25
1.64770E-02 3.52917E-25
1.70371E-02 3.25658E-25
1.76063E-02 3.00759E-25
1.81848E-02 2.77987E-25
1.87724E-02 2.57139E-25
1.93692E-02 2.38029E-25
1.99751E-02 2.20496E-25
2.05901E-02 2.04393E-25
2.12143E-02 1.89588E-25
2.18476E-02 1.75965E-25
2.24900E-02 1.63418E-25
2.31415E-02 1.51852E-25
2.38021E-02 1.41182E-25
2.44717E-02 1.31329E-25
2.51504E-02 1.22225E-25
2.58382E-02 1.13807E-25
2.65349E-02 1.06016E-25
2.72407E-02 9.88022E-26
2.79555E-02 9.21174E-26
2.86793E-02 8.59190E-26
2.94120E-02 8.01681E-26
3.01537E-02 7.48293E-26
3.09043E-02 6.98702E-26
3.16639E-02 6.52612E-26
3.24324E-02 6.09753E-26
3.32098E-02 5.69880E-26
3.39961E-02 5.32764E-26
3.47912E-02 4.98201E-26
3.55952E-02 4.65998E-26
3.64081E-02 4.35983E-26
3.72297E-02 4.07994E-26
3.80602E-02 3.81885E-26
3.88995E-02 3.57519E-26
3.97476E-02 3.34772E-26
4.06044E-02 3.13528E-26
4.14700E-02 2.93683E-26
4.23443E-02 2.75136E-26
4.32273E-02 2.57799E-26
4.41190E-02 2.41586E-26
4.50194E-02 2.26422E-26
4.59284E-02 2.12234E-26
4.68461E-02 1.98956E-26
4.87074E-02 1.74888E-26
5.06030E-02 1.53778E-26
5.25328E-02 1.35248E-26
5.44967E-02 1.18970E-26
5.64946E-02 1.04660E-26
5.85262E-02 9.20741E-27
6.05914E-02 8.09983E-27
6.26901E-02 7.12474E-27
6.48222E-02 6.26600E-27
6.69873E-02 5.50950E-27
6.91854E-02 4.84295E-27
7.14163E-02 4.25555E-27
7.36799E-02 3.73788E-27
7.59760E-02 3.28166E-27
7.83043E-02 2.87961E-27
8.06647E-02 2.52535E-27
8.30571E-02 2.21326E-27
8.54812E-02 1.93839E-27
8.79369E-02 1.69638E-27
9.04240E-02 1.48338E-27
9.29422E-02 1.29599E-27
9.54915E-02 1.13123E-27
9.80716E-02 9.86445E-28
1.00682E-01 8.59296E-28
1.03323E-01 7.47714E-28
1.05995E-01 6.49873E-28
1.08696E-01 5.64153E-28
1.11427E-01 4.89124E-28
1.14188E-01 4.23519E-28
1.16978E-01 3.66218E-28
1.19797E-01 3.16229E-28
1.22645E-01 2.72674E-28
1.25522E-01 2.34776E-28
1.28428E-01 2.01850E-28
1.31361E-01 1.73287E-28
1.34323E-01 1.48552E-28
1.37313E-01 1.27169E-28
1.40330E-01 1.08719E-28
1.43375E-01 9.28331E-29
1.46447E-01 7.91844E-29
1.49545E-01 6.74851E-29
1.52671E-01 5.74820E-29
1.55823E-01 4.89519E-29
1.59001E-01 4.16986E-29
1.62205E-01 3.55498E-29
1.65435E-01 3.03544E-29
1.68690E-01 2.59799E-29
1.71970E-01 2.23103E-29
1.75276E-01 1.92443E-29
1.78606E-01 1.66936E-29
1.81961E-01 1.45811E-29
1.85340E-01 1.28399E-29
1.88743E-01 1.14121E-29
1.92169E-01 1.02474E-29
1.95619E-01 9.30247E-30
1.99092E-01 8.54000E-30
2.02589E-01 7.92798E-30
2.06107E-01 7.43902E-30
2.09649E-01 7.04979E-30
2.13212E-01 6.74050E-30
2.16797E-01 6.49444E-30
2.20404E-01 6.29756E-30
2.24032E-01 6.13815E-30
2.27680E-01 6.00650E-30
2.31350E-01 5.89462E-30
2.35040E-01 5.79602E-30
2.38751E-01 5.70548E-30
2.42481E-01 5.61885E-30
2.46231E-01 5.53291E-30
2.50000E-01 5.44523E-30
2.53788E-01 5.35401E-30
2.57595E-01 5.25802E-30
2.61421E-01 5.15646E-30
2.65264E-01 5.04890E-30
2.69126E-01 4.93521E-30
2.73005E-01 4.81551E-30
2.76901E-01 4.69009E-30
2.80814E-01 4.55940E-30
2.84744E-01 4.42396E-30
2.88691E-01 4.28441E-30
2.92653E-01 4.14140E-30
2.96632E-01 3.99562E-30
3.00625E-01 3.84778E-30
3.04634E-01 3.69856E-30
3.08658E-01 3.54863E-30
3.12697E-01 3.39865E-30
3.16749E-01 3.24922E-30
3.20816E-01 3.10090E-30
3.24896E-01 2.95424E-30
3.28990E-01 2.80972E-30
3.33097E-01 2.66776E-30
3.37216E-01 2.52876E-30
3.41348E-01 2.39306E-30
3.45492E-01 2.26097E-30
3.49647E-01 2.13272E-30
3.53814E-01 2.00854E-30
3.57992E-01 1.88860E-30
3.62181E-01 1.77303E-30
3.66381E-01 1.66193E-30
3.70590E-01 1.55537E-30
3.74810E-01 1.45338E-30
3.79039E-01 1.35597E-30
3.83277E-01 1.26314E-30
3.87524E-01 1.17484E-30
3.91780E-01 1.09102E-30
3.96044E-01 1.01160E-30
4.00316E-01 9.36499E-31
4.04596E-01 8.65605E-31
4.08882E-01 7.98809E-31
4.13176E-01 7.35989E-31
4.17476E-01 6.77012E-31
4.21783E-01 6.21744E-31
4.26095E-01 5.70041E-31
4.30413E-01 5.21760E-31
4.34737E-01 4.76754E-31
4.39065E-01 4.34875E-31
4.43398E-01 3.95974E-31
4.47736E-01 3.59905E-31
4.52077E-01 3.26521E-31
4.56422E-01 2.95680E-31
4.60770E-01 2.67239E-31
4.65122E-01 2.41062E-31
4.69476E-01 2.17014E-31
4.73832E-01 1.94965E-31
4.78190E-01 1.74790E-31
4.82550E-01 1.56367E-31
4.86912E-01 1.39580E-31
4.91274E-01 1.24318E-31
4.95637E-01 1.10472E-31
5.00000E-01 9.79425E-32
5.04363E-01 8.66310E-32
5.08726E-01 7.64458E-32
5.13088E-01 6.72998E-32
5.17450E-01 5.91105E-32
5.21810E-01 5.18002E-32
5.26168E-01 4.52957E-32
5.30524E-01 3.95284E-32
5.34878E-01 3.44337E-32
5.39230E-01 2.99515E-32
5.43578E-01 2.60256E-32
5.47923E-01 2.26036E-32
5.52264E-01 1.96369E-32
5.56602E-01 1.70801E-32
5.60935E-01 1.48917E-32
5.65263E-01 1.30328E-32
5.69587E-01 1.14680E-32
5.73905E-01 1.01645E-32
5.78217E-01 9.09217E-33
5.82524E-01 8.22357E-33
5.86824E-01 7.53356E-33
5.91118E-01 6.99922E-33
5.95404E-01 6.59975E-33
5.99684E-01 6.31629E-33
6.03956E-01 6.13180E-33
6.08220E-01 6.03091E-33
6.12476E-01 5.99984E-33
6.16723E-01 6.02624E-33
6.20961E-01 6.09913E-33
6.25190E-01 6.20872E-33
6.29410E-01 6.34638E-33
6.33619E-01 6.50452E-33
6.37819E-01 6.67650E-33
6.42008E-01 6.85654E-33
6.46186E-01 7.03966E-33
6.50353E-01 7.22159E-33
6.54508E-01 7.39872E-33
6.58652E-01 7.56801E-33
6.62784E-01 7.72697E-33
6.66903E-01 7.87356E-33
6.71010E-01 8.00619E-33
6.75104E-01 8.12361E-33
6.79184E-01 8.22494E-33
6.83251E-01 8.30955E-33
6.87303E-01 8.37712E-33
6.91342E-01 8.42752E-33
6.95366E-01 8.46081E-33
6.99375E-01 8.47723E-33
7.03368E-01 8.47715E-33
7.07347E-01 8.46108E-33
7.11309E-01 8.42959E-33
7.15256E-01 8.38338E-33
7.19186E-01 8.32317E-33
7.23099E-01 8.24974E-33
7.26995E-01 8.16393E-33
7.30874E-01 8.06656E-33
7.34736E-01 7.95850E-33
7.38579E-01 7.84060E-33
7.42405E-01 7.71375E-33
7.46212E-01 7.57877E-33
7.50000E-01 7.43650E-33
7.53769E-01 7.28777E-33
7.57519E-01 7.13336E-33
7.61249E-01 6.97404E-33
7.64960E-01 6.81054E-33
7.68650E-01 6.64356E-33
7.72320E-01 6.47378E-33
7.75968E-01 6.30183E-33
7.79596E-01 6.12829E-33
7.83203E-01 5.95375E-33
7.86788E-01 5.77872E-33
7.90351E-01 5.60369E-33
7.93893E-01 5.42913E-33
7.97411E-01 5.25545E-33
8.00908E-01 5.08303E-33
8.04381E-01 4.91225E-33
8.07831E-01 4.74340E-33
8.11257E-01 4.57680E-33
8.14660E-01 4.41270E-33
8.18039E-01 4.25133E-33
8.21394E-01 4.09291E-33
8.24724E-01 3.93761E-33
8.28030E-01 3.78560E-33
8.31310E-01 3.63700E-33
8.34565E-01 3.49194E-33
8.37795E-01 3.35051E-33
8.40999E-01 3.21278E-33
8.44177E-01 3.07881E-33
8.47329E-01 2.94865E-33
8.50455E-01 2.82231E-33
8.53553E-01 2.69982E-33
8.56625E-01 2.58117E-33
8.59670E-01 2.46636E-33
8.62687E-01 2.35535E-33
8.65677E-01 2.24813E-33
8.68639E-01 2.14465E-33
8.71572E-01 2.04486E-33
8.74478E-01 1.94870E-33
8.77355E-01 1.85613E-33
8.80203E-01 1.76707E-33
8.83022E-01 1.68145E-33
8.85812E-01 1.59920E-33
8.88573E-01 1.52024E-33
8.91304E-01 1.44448E-33
8.94005E-01 1.37186E-33
8.96677E-01 1.30228E-33
8.99318E-01 1.23565E-33
9.01928E-01 1.17189E-33
9.04508E-01 1.11092E-33
9.07058E-01 1.05263E-33
9.09576E-01 9.96957E-34
9.12063E-01 9.43799E-34
9.14519E-01 8.93073E-34
9.16943E-01 8.44693E-34
9.19335E-01 7.98573E-34
9.21696E-01 7.54631E-34
9.24024E-01 7.12784E-34
9.26320E-01 6.72951E-34
9.28584E-01 6.35053E-34
9.30815E-01 5.99013E-34
9.33013E-01 5.64754E-34
9.35178E-01 5.32203E-34
9.37310E-01 5.01289E-34
9.39409E-01 4.71941E-34
9.41474E-01 4.44092E-34
9.43505E-01 4.17676E-34
9.45503E-01 3.92629E-34
9.47467E-01 3.68890E-34
9.49397E-01 3.46399E-34
9.51293E-01 3.25099E-34
9.53154E-01 3.04935E-34
9.54981E-01 2.85853E-34
9.56773E-01 2.67802E-34
9.58530E-01 2.50732E-34
9.60252E-01 2.34596E-34
9.61940E-01 2.19349E-34
9.63592E-01 2.04946E-34
9.65209E-01 1.91346E-34
9.66790E-01 1.78509E-34
9.68336E-01 1.66397E-34
9.69846E-01 1.54972E-34
9.71321E-01 1.44200E-34
9.72759E-01 1.34047E-34
9.74162E-01 1.24482E-34
9.75528E-01 1.15474E-34
9.76858E-01 1.06994E-34
9.78152E-01 9.90144E-35
9.79410E-01 9.15094E-35
9.80631E-01 8.44539E-35
9.81815E-01 7.78241E-35
9.82963E-01 7.15977E-35
9.84074E-01 6.57533E-35
9.85148E-01 6.02709E-35
9.86185E-01 5.51315E-35
9.87185E-01 5.03167E-35
9.88148E-01 4.58101E-35
9.89074E-01 4.15951E-35
9.89962E-01 3.76567E-35
9.90814E-01 3.39809E-35
9.91627E-01 3.05539E-35
9.92404E-01 2.73636E-35
9.93143E-01 2.43979E-35
9.93844E-01 2.16457E-35
9.94508E-01 1.90972E-35
9.95134E-01 1.67423E-35
9.95722E-01 1.45724E-35
9.96273E-01 1.25791E-35
9.96786E-01 1.07551E-35
9.97261E-01 9.09304E-36
9.97698E-01 7.58686E-36
9.98097E-01 6.23051E-36
9.98459E-01 5.01869E-36
9.98782E-01 3.94682E-36
9.99067E-01 3.01098E-36
9.99315E-01 2.20691E-36
9.99524E-01 1.53200E-36
9.99695E-01 9.83291E-37
9.99829E-01 5.58759E-37
9.99924E-01 2.56715E-37
9.99981E-01 7.59547E-38
1.00000E+00 1.58452E-38
