 #
 # Subroutine ELSEPA. Elastic scattering of electrons and positrons
 #                    by neutral atoms and positive ions
 #
 # Projectile: electron
 # Kinetic energy = 8.00000E+06 eV = 2.93995E+05 a.u.
 #
 # WARNING: High-energy factorization with free-atom DF screening.
 #          Absorption, polarization and exchange corrections are
 #          switched off.
 #          Phase shifts are calculated for the bare nucleus.
 #          Scattering amplitudes are not evaluated.
 #
 # Element: Ge,  Z =  32,  atomic weight = 7.26100E+01 g/mol
 #
 # Nuclear model: Fermi distribution
 #                Average radius = 4.46392E-13 cm
 #                Skin thickness = 5.46000E-14 cm
 #
 # Number of electrons = 32
 #
 # Total elastic cross section = 2.35562E-18 cm**2 = 8.41209E-02 a0**2
 # 1st transport cross section = 2.37299E-23 cm**2 = 8.47411E-07 a0**2
 # 2nd transport cross section = 6.74578E-23 cm**2 = 2.40896E-06 a0**2
 #
 #
 # Differential cross section:                       MU=(1-COS(THETA))/2
 #
 #  THETA        MU          DCS          DCS        Sherman      error
 #  (deg)                 (cm**2/sr)   (a0**2/sr)    function
 #----------------------------------------------------------------------
0.00000E+00 1.48276E-12
7.61557E-13 1.48273E-12
1.18994E-12 1.48271E-12
1.71346E-12 1.48269E-12
2.33225E-12 1.48267E-12
3.04617E-12 1.48265E-12
3.85530E-12 1.48262E-12
4.75964E-12 1.48258E-12
5.75917E-12 1.48255E-12
6.85391E-12 1.48251E-12
8.04379E-12 1.48247E-12
9.32893E-12 1.48242E-12
1.07092E-11 1.48237E-12
1.21847E-11 1.48232E-12
1.37554E-11 1.48226E-12
1.54213E-11 1.48220E-12
1.71823E-11 1.48214E-12
1.90386E-11 1.48208E-12
2.09900E-11 1.48201E-12
2.30367E-11 1.48193E-12
2.51785E-11 1.48186E-12
2.74156E-11 1.48178E-12
2.97478E-11 1.48169E-12
3.21752E-11 1.48161E-12
3.46979E-11 1.48152E-12
3.73157E-11 1.48143E-12
4.00286E-11 1.48133E-12
4.28368E-11 1.48123E-12
4.57402E-11 1.48113E-12
4.87388E-11 1.48102E-12
5.18325E-11 1.48091E-12
5.50215E-11 1.48080E-12
5.83057E-11 1.48068E-12
6.16850E-11 1.48056E-12
6.51595E-11 1.48044E-12
6.87293E-11 1.48031E-12
7.23943E-11 1.48018E-12
7.61544E-11 1.48005E-12
1.18991E-10 1.47853E-12
1.71347E-10 1.47667E-12
2.33223E-10 1.47449E-12
3.04617E-10 1.47197E-12
3.85531E-10 1.46913E-12
4.75965E-10 1.46596E-12
5.75917E-10 1.46247E-12
6.85389E-10 1.45867E-12
8.04380E-10 1.45455E-12
9.32891E-10 1.45012E-12
1.07092E-09 1.44539E-12
1.21847E-09 1.44036E-12
1.37554E-09 1.43504E-12
1.54213E-09 1.42943E-12
1.71823E-09 1.42354E-12
1.90386E-09 1.41737E-12
2.09900E-09 1.41092E-12
2.30367E-09 1.40422E-12
2.51785E-09 1.39726E-12
2.74156E-09 1.39004E-12
2.97478E-09 1.38259E-12
3.21752E-09 1.37488E-12
3.46978E-09 1.36688E-12
3.73156E-09 1.35868E-12
4.00286E-09 1.35030E-12
4.28368E-09 1.34174E-12
4.57402E-09 1.33302E-12
4.87388E-09 1.32414E-12
5.18326E-09 1.31495E-12
5.50215E-09 1.30555E-12
5.83057E-09 1.29602E-12
6.16850E-09 1.28637E-12
6.51596E-09 1.27661E-12
6.87293E-09 1.26675E-12
7.23942E-09 1.25672E-12
7.61544E-09 1.24640E-12
1.18991E-08 1.13889E-12
1.71347E-08 1.02661E-12
2.33223E-08 9.15655E-13
3.04617E-08 8.10107E-13
3.85531E-08 7.13166E-13
4.75965E-08 6.25625E-13
5.75917E-08 5.48440E-13
6.85389E-08 4.80740E-13
8.04380E-08 4.22216E-13
9.32891E-08 3.71673E-13
1.07092E-07 3.28266E-13
1.21847E-07 2.90973E-13
1.37554E-07 2.58921E-13
1.54213E-07 2.31346E-13
1.71823E-07 2.07522E-13
1.90386E-07 1.86921E-13
2.09900E-07 1.68981E-13
2.30367E-07 1.53349E-13
2.51785E-07 1.39623E-13
2.74156E-07 1.27552E-13
2.97478E-07 1.16867E-13
3.21752E-07 1.07278E-13
3.46978E-07 9.83311E-14
3.73156E-07 9.05185E-14
4.00286E-07 8.36667E-14
4.28368E-07 7.76326E-14
4.57402E-07 7.22972E-14
4.87388E-07 6.75616E-14
5.18325E-07 6.28126E-14
5.50215E-07 5.83800E-14
5.83057E-07 5.44274E-14
6.16850E-07 5.08913E-14
6.51596E-07 4.77179E-14
6.87293E-07 4.48613E-14
7.23942E-07 4.21711E-14
7.61543E-07 3.94204E-14
1.18991E-06 2.16206E-14
1.71347E-06 1.24759E-14
2.33223E-06 7.51852E-15
3.04617E-06 4.72465E-15
3.85531E-06 3.09926E-15
4.75964E-06 2.11277E-15
5.75916E-06 1.49289E-15
6.85388E-06 1.08745E-15
8.04378E-06 8.13453E-16
9.32888E-06 6.21891E-16
1.07092E-05 4.84532E-16
1.21846E-05 3.83576E-16
1.37553E-05 3.07781E-16
1.54212E-05 2.49863E-16
1.71822E-05 2.04875E-16
1.90385E-05 1.69522E-16
2.09899E-05 1.41418E-16
2.30365E-05 1.18866E-16
2.51783E-05 1.00563E-16
2.74153E-05 8.56106E-17
2.97475E-05 7.32934E-17
3.21749E-05 6.30798E-17
3.46974E-05 5.45450E-17
3.73152E-05 4.74342E-17
4.00281E-05 4.14252E-17
4.28362E-05 3.63270E-17
4.57395E-05 3.20016E-17
4.87380E-05 2.82771E-17
5.18317E-05 2.50853E-17
5.50205E-05 2.23300E-17
5.83045E-05 1.99387E-17
6.16838E-05 1.78629E-17
6.51582E-05 1.60469E-17
6.87277E-05 1.44573E-17
7.23925E-05 1.30610E-17
7.61524E-05 1.18282E-17
9.21439E-05 8.14433E-18
1.09658E-04 5.79162E-18
1.28695E-04 4.23301E-18
1.49255E-04 3.16623E-18
1.71338E-04 2.41623E-18
1.94942E-04 1.87610E-18
2.20070E-04 1.47905E-18
2.46720E-04 1.18185E-18
2.74892E-04 9.55723E-19
3.04586E-04 7.81248E-19
3.35803E-04 6.44815E-19
3.68542E-04 5.36932E-19
4.02802E-04 4.50686E-19
4.38585E-04 3.81088E-19
4.75889E-04 3.24419E-19
5.14715E-04 2.77901E-19
5.55063E-04 2.39431E-19
5.96931E-04 2.07391E-19
6.40321E-04 1.80538E-19
6.85233E-04 1.57892E-19
7.31665E-04 1.38690E-19
7.79618E-04 1.22320E-19
8.29092E-04 1.08298E-19
8.80086E-04 9.62282E-20
9.32601E-04 8.57955E-20
9.86636E-04 7.67398E-20
1.04219E-03 6.88490E-20
1.09927E-03 6.19476E-20
1.15786E-03 5.58905E-20
1.21797E-03 5.05567E-20
1.27961E-03 4.58449E-20
1.34276E-03 4.16703E-20
1.40743E-03 3.79607E-20
1.47362E-03 3.46555E-20
1.54133E-03 3.17028E-20
1.61056E-03 2.90585E-20
1.68131E-03 2.66848E-20
1.75357E-03 2.45489E-20
1.82735E-03 2.26230E-20
1.90265E-03 2.08826E-20
1.97947E-03 1.93067E-20
2.05780E-03 1.78771E-20
2.13765E-03 1.65776E-20
2.21902E-03 1.53944E-20
2.30190E-03 1.43151E-20
2.38630E-03 1.33290E-20
2.47222E-03 1.24266E-20
2.55965E-03 1.15994E-20
2.64859E-03 1.08402E-20
2.73905E-03 1.01422E-20
2.83103E-03 9.49967E-21
2.92452E-03 8.90736E-21
3.01952E-03 8.36064E-21
3.11604E-03 7.85536E-21
3.21407E-03 7.38778E-21
3.31362E-03 6.95461E-21
3.41468E-03 6.55281E-21
3.51725E-03 6.17972E-21
3.62133E-03 5.83288E-21
3.72692E-03 5.51013E-21
3.83403E-03 5.20947E-21
3.94265E-03 4.92911E-21
4.05278E-03 4.66743E-21
4.16442E-03 4.42295E-21
4.27757E-03 4.19432E-21
4.39223E-03 3.98034E-21
4.50840E-03 3.77988E-21
4.62608E-03 3.59193E-21
4.74527E-03 3.41556E-21
4.86597E-03 3.24993E-21
4.98817E-03 3.09426E-21
5.11188E-03 2.94783E-21
5.23711E-03 2.81000E-21
5.36383E-03 2.68017E-21
5.49207E-03 2.55778E-21
5.62181E-03 2.44233E-21
5.75306E-03 2.33334E-21
5.88581E-03 2.23040E-21
6.02007E-03 2.13309E-21
6.15583E-03 2.04106E-21
6.29310E-03 1.95396E-21
6.43187E-03 1.87148E-21
6.57214E-03 1.79332E-21
6.71392E-03 1.71922E-21
6.85720E-03 1.64893E-21
7.00198E-03 1.58221E-21
7.14827E-03 1.51884E-21
7.29605E-03 1.45864E-21
7.44534E-03 1.40140E-21
7.59612E-03 1.34695E-21
7.97965E-03 1.22202E-21
8.37255E-03 1.11131E-21
8.77480E-03 1.01292E-21
9.18641E-03 9.25233E-22
9.60736E-03 8.46879E-22
1.00376E-02 7.76688E-22
1.04773E-02 7.13657E-22
1.09262E-02 6.56925E-22
1.13844E-02 6.05751E-22
1.18520E-02 5.59490E-22
1.23288E-02 5.17586E-22
1.28150E-02 4.79554E-22
1.33104E-02 4.44971E-22
1.38150E-02 4.13468E-22
1.43290E-02 3.84720E-22
1.48521E-02 3.58442E-22
1.53845E-02 3.34383E-22
1.59262E-02 3.12321E-22
1.64770E-02 2.92060E-22
1.70371E-02 2.73425E-22
1.76063E-02 2.56262E-22
1.81848E-02 2.40432E-22
1.87724E-02 2.25814E-22
1.93692E-02 2.12297E-22
1.99751E-02 1.99783E-22
2.05901E-02 1.88183E-22
2.12143E-02 1.77418E-22
2.18476E-02 1.67417E-22
2.24900E-02 1.58115E-22
2.31415E-02 1.49455E-22
2.38021E-02 1.41383E-22
2.44717E-02 1.33852E-22
2.51504E-02 1.26819E-22
2.58382E-02 1.20245E-22
2.65349E-02 1.14095E-22
2.72407E-02 1.08335E-22
2.79555E-02 1.02936E-22
2.86793E-02 9.78720E-23
2.94120E-02 9.31174E-23
3.01537E-02 8.86499E-23
3.09043E-02 8.44488E-23
3.16639E-02 8.04953E-23
3.24324E-02 7.67719E-23
3.32098E-02 7.32627E-23
3.39961E-02 6.99530E-23
3.47912E-02 6.68293E-23
3.55952E-02 6.38791E-23
3.64081E-02 6.10910E-23
3.72297E-02 5.84543E-23
3.80602E-02 5.59592E-23
3.88995E-02 5.35967E-23
3.97476E-02 5.13582E-23
4.06044E-02 4.92362E-23
4.14700E-02 4.72233E-23
4.23443E-02 4.53128E-23
4.32273E-02 4.34986E-23
4.41190E-02 4.17748E-23
4.50194E-02 4.01361E-23
4.59284E-02 3.85774E-23
4.68461E-02 3.70940E-23
4.87074E-02 3.43364E-23
5.06030E-02 3.18316E-23
5.25328E-02 2.95523E-23
5.44967E-02 2.74745E-23
5.64946E-02 2.55769E-23
5.85262E-02 2.38412E-23
6.05914E-02 2.22509E-23
6.26901E-02 2.07916E-23
6.48222E-02 1.94505E-23
6.69873E-02 1.82162E-23
6.91854E-02 1.70787E-23
7.14163E-02 1.60289E-23
7.36799E-02 1.50588E-23
7.59760E-02 1.41612E-23
7.83043E-02 1.33296E-23
8.06647E-02 1.25584E-23
8.30571E-02 1.18423E-23
8.54812E-02 1.11766E-23
8.79369E-02 1.05571E-23
9.04240E-02 9.98003E-24
9.29422E-02 9.44187E-24
9.54915E-02 8.93952E-24
9.80716E-02 8.47015E-24
1.00682E-01 8.03118E-24
1.03323E-01 7.62029E-24
1.05995E-01 7.23531E-24
1.08696E-01 6.87431E-24
1.11427E-01 6.53551E-24
1.14188E-01 6.21730E-24
1.16978E-01 5.91817E-24
1.19797E-01 5.63676E-24
1.22645E-01 5.37183E-24
1.25522E-01 5.12223E-24
1.28428E-01 4.88691E-24
1.31361E-01 4.66487E-24
1.34323E-01 4.45523E-24
1.37313E-01 4.25719E-24
1.40330E-01 4.06997E-24
1.43375E-01 3.89283E-24
1.46447E-01 3.72518E-24
1.49545E-01 3.56639E-24
1.52671E-01 3.41589E-24
1.55823E-01 3.27318E-24
1.59001E-01 3.13778E-24
1.62205E-01 3.00924E-24
1.65435E-01 2.88715E-24
1.68690E-01 2.77111E-24
1.71970E-01 2.66078E-24
1.75276E-01 2.55582E-24
1.78606E-01 2.45592E-24
1.81961E-01 2.36078E-24
1.85340E-01 2.27014E-24
1.88743E-01 2.18375E-24
1.92169E-01 2.10136E-24
1.95619E-01 2.02276E-24
1.99092E-01 1.94774E-24
2.02589E-01 1.87610E-24
2.06107E-01 1.80766E-24
2.09649E-01 1.74226E-24
2.13212E-01 1.67973E-24
2.16797E-01 1.61992E-24
2.20404E-01 1.56269E-24
2.24032E-01 1.50792E-24
2.27680E-01 1.45546E-24
2.31350E-01 1.40522E-24
2.35040E-01 1.35706E-24
2.38751E-01 1.31091E-24
2.42481E-01 1.26664E-24
2.46231E-01 1.22418E-24
2.50000E-01 1.18343E-24
2.53788E-01 1.14432E-24
2.57595E-01 1.10676E-24
2.61421E-01 1.07068E-24
2.65264E-01 1.03601E-24
2.69126E-01 1.00269E-24
2.73005E-01 9.70648E-25
2.76901E-01 9.39836E-25
2.80814E-01 9.10192E-25
2.84744E-01 8.81666E-25
2.88691E-01 8.54207E-25
2.92653E-01 8.27767E-25
2.96632E-01 8.02302E-25
3.00625E-01 7.77769E-25
3.04634E-01 7.54127E-25
3.08658E-01 7.31338E-25
3.12697E-01 7.09366E-25
3.16749E-01 6.88176E-25
3.20816E-01 6.67734E-25
3.24896E-01 6.48011E-25
3.28990E-01 6.28974E-25
3.33097E-01 6.10598E-25
3.37216E-01 5.92853E-25
3.41348E-01 5.75715E-25
3.45492E-01 5.59158E-25
3.49647E-01 5.43160E-25
3.53814E-01 5.27699E-25
3.57992E-01 5.12752E-25
3.62181E-01 4.98300E-25
3.66381E-01 4.84324E-25
3.70590E-01 4.70804E-25
3.74810E-01 4.57723E-25
3.79039E-01 4.45065E-25
3.83277E-01 4.32813E-25
3.87524E-01 4.20951E-25
3.91780E-01 4.09466E-25
3.96044E-01 3.98343E-25
4.00316E-01 3.87568E-25
4.04596E-01 3.77129E-25
4.08882E-01 3.67013E-25
4.13176E-01 3.57209E-25
4.17476E-01 3.47705E-25
4.21783E-01 3.38491E-25
4.26095E-01 3.29555E-25
4.30413E-01 3.20889E-25
4.34737E-01 3.12482E-25
4.39065E-01 3.04325E-25
4.43398E-01 2.96410E-25
4.47736E-01 2.88729E-25
4.52077E-01 2.81272E-25
4.56422E-01 2.74033E-25
4.60770E-01 2.67003E-25
4.65122E-01 2.60177E-25
4.69476E-01 2.53546E-25
4.73832E-01 2.47104E-25
4.78190E-01 2.40846E-25
4.82550E-01 2.34764E-25
4.86912E-01 2.28854E-25
4.91274E-01 2.23109E-25
4.95637E-01 2.17523E-25
5.00000E-01 2.12093E-25
5.04363E-01 2.06812E-25
5.08726E-01 2.01676E-25
5.13088E-01 1.96681E-25
5.17450E-01 1.91821E-25
5.21810E-01 1.87093E-25
5.26168E-01 1.82492E-25
5.30524E-01 1.78014E-25
5.34878E-01 1.73656E-25
5.39230E-01 1.69413E-25
5.43578E-01 1.65283E-25
5.47923E-01 1.61262E-25
5.52264E-01 1.57345E-25
5.56602E-01 1.53532E-25
5.60935E-01 1.49817E-25
5.65263E-01 1.46198E-25
5.69587E-01 1.42672E-25
5.73905E-01 1.39237E-25
5.78217E-01 1.35890E-25
5.82524E-01 1.32627E-25
5.86824E-01 1.29448E-25
5.91118E-01 1.26348E-25
5.95404E-01 1.23327E-25
5.99684E-01 1.20381E-25
6.03956E-01 1.17508E-25
6.08220E-01 1.14707E-25
6.12476E-01 1.11975E-25
6.16723E-01 1.09311E-25
6.20961E-01 1.06711E-25
6.25190E-01 1.04176E-25
6.29410E-01 1.01702E-25
6.33619E-01 9.92880E-26
6.37819E-01 9.69325E-26
6.42008E-01 9.46337E-26
6.46186E-01 9.23902E-26
6.50353E-01 9.02003E-26
6.54508E-01 8.80626E-26
6.58652E-01 8.59757E-26
6.62784E-01 8.39382E-26
6.66903E-01 8.19488E-26
6.71010E-01 8.00062E-26
6.75104E-01 7.81091E-26
6.79184E-01 7.62564E-26
6.83251E-01 7.44468E-26
6.87303E-01 7.26792E-26
6.91342E-01 7.09525E-26
6.95366E-01 6.92657E-26
6.99375E-01 6.76177E-26
7.03368E-01 6.60075E-26
7.07347E-01 6.44341E-26
7.11309E-01 6.28966E-26
7.15256E-01 6.13941E-26
7.19186E-01 5.99256E-26
7.23099E-01 5.84904E-26
7.26995E-01 5.70875E-26
7.30874E-01 5.57162E-26
7.34736E-01 5.43757E-26
7.38579E-01 5.30651E-26
7.42405E-01 5.17839E-26
7.46212E-01 5.05312E-26
7.50000E-01 4.93063E-26
7.53769E-01 4.81086E-26
7.57519E-01 4.69374E-26
7.61249E-01 4.57920E-26
7.64960E-01 4.46719E-26
7.68650E-01 4.35764E-26
7.72320E-01 4.25050E-26
7.75968E-01 4.14570E-26
7.79596E-01 4.04319E-26
7.83203E-01 3.94292E-26
7.86788E-01 3.84484E-26
7.90351E-01 3.74889E-26
7.93893E-01 3.65502E-26
7.97411E-01 3.56319E-26
8.00908E-01 3.47334E-26
8.04381E-01 3.38544E-26
8.07831E-01 3.29944E-26
8.11257E-01 3.21530E-26
8.14660E-01 3.13297E-26
8.18039E-01 3.05241E-26
8.21394E-01 2.97358E-26
8.24724E-01 2.89645E-26
8.28030E-01 2.82098E-26
8.31310E-01 2.74712E-26
8.34565E-01 2.67485E-26
8.37795E-01 2.60414E-26
8.40999E-01 2.53493E-26
8.44177E-01 2.46722E-26
8.47329E-01 2.40095E-26
8.50455E-01 2.33611E-26
8.53553E-01 2.27265E-26
8.56625E-01 2.21056E-26
8.59670E-01 2.14980E-26
8.62687E-01 2.09034E-26
8.65677E-01 2.03217E-26
8.68639E-01 1.97524E-26
8.71572E-01 1.91954E-26
8.74478E-01 1.86504E-26
8.77355E-01 1.81172E-26
8.80203E-01 1.75955E-26
8.83022E-01 1.70851E-26
8.85812E-01 1.65857E-26
8.88573E-01 1.60972E-26
8.91304E-01 1.56194E-26
8.94005E-01 1.51519E-26
8.96677E-01 1.46947E-26
8.99318E-01 1.42475E-26
9.01928E-01 1.38102E-26
9.04508E-01 1.33825E-26
9.07058E-01 1.29643E-26
9.09576E-01 1.25554E-26
9.12063E-01 1.21556E-26
9.14519E-01 1.17648E-26
9.16943E-01 1.13827E-26
9.19335E-01 1.10093E-26
9.21696E-01 1.06444E-26
9.24024E-01 1.02877E-26
9.26320E-01 9.93930E-27
9.28584E-01 9.59890E-27
9.30815E-01 9.26640E-27
9.33013E-01 8.94166E-27
9.35178E-01 8.62456E-27
9.37310E-01 8.31496E-27
9.39409E-01 8.01274E-27
9.41474E-01 7.71777E-27
9.43505E-01 7.42995E-27
9.45503E-01 7.14916E-27
9.47467E-01 6.87528E-27
9.49397E-01 6.60821E-27
9.51293E-01 6.34784E-27
9.53154E-01 6.09407E-27
9.54981E-01 5.84680E-27
9.56773E-01 5.60593E-27
9.58530E-01 5.37138E-27
9.60252E-01 5.14305E-27
9.61940E-01 4.92085E-27
9.63592E-01 4.70469E-27
9.65209E-01 4.49450E-27
9.66790E-01 4.29019E-27
9.68336E-01 4.09168E-27
9.69846E-01 3.89891E-27
9.71321E-01 3.71179E-27
9.72759E-01 3.53025E-27
9.74162E-01 3.35423E-27
9.75528E-01 3.18366E-27
9.76858E-01 3.01848E-27
9.78152E-01 2.85862E-27
9.79410E-01 2.70402E-27
9.80631E-01 2.55463E-27
9.81815E-01 2.41039E-27
9.82963E-01 2.27124E-27
9.84074E-01 2.13714E-27
9.85148E-01 2.00804E-27
9.86185E-01 1.88388E-27
9.87185E-01 1.76462E-27
9.88148E-01 1.65022E-27
9.89074E-01 1.54064E-27
9.89962E-01 1.43583E-27
9.90814E-01 1.33575E-27
9.91627E-01 1.24038E-27
9.92404E-01 1.14967E-27
9.93143E-01 1.06359E-27
9.93844E-01 9.82115E-28
9.94508E-01 9.05208E-28
9.95134E-01 8.32844E-28
9.95722E-01 7.64996E-28
9.96273E-01 7.01640E-28
9.96786E-01 6.42752E-28
9.97261E-01 5.88311E-28
9.97698E-01 5.38298E-28
9.98097E-01 4.92694E-28
9.98459E-01 4.51482E-28
9.98782E-01 4.14649E-28
9.99067E-01 3.82180E-28
9.99315E-01 3.54064E-28
9.99524E-01 3.30291E-28
9.99695E-01 3.10851E-28
9.99829E-01 2.95739E-28
9.99924E-01 2.84949E-28
9.99981E-01 2.78476E-28
1.00000E+00 2.76319E-28
