 #
 # Subroutine ELSEPA. Elastic scattering of electrons and positrons
 #                    by neutral atoms and positive ions
 #
 # Projectile: electron
 # Kinetic energy = 3.50000E+07 eV = 1.28623E+06 a.u.
 #
 # WARNING: High-energy factorization with free-atom DF screening.
 #          Absorption, polarization and exchange corrections are
 #          switched off.
 #          Phase shifts are calculated for the bare nucleus.
 #          Scattering amplitudes are not evaluated.
 #
 # Element: Po,  Z =  84,  atomic weight = 2.08982E+02 g/mol
 #
 # Nuclear model: Fermi distribution
 #                Average radius = 6.34971E-13 cm
 #                Skin thickness = 5.46000E-14 cm
 #
 # Number of electrons = 84
 #
 # Total elastic cross section = 9.14740E-18 cm**2 = 3.26660E-01 a0**2
 # 1st transport cross section = 1.06818E-23 cm**2 = 3.81453E-07 a0**2
 # 2nd transport cross section = 3.08177E-23 cm**2 = 1.10052E-06 a0**2
 #
 #
 # Differential cross section:                       MU=(1-COS(THETA))/2
 #
 #  THETA        MU          DCS          DCS        Sherman      error
 #  (deg)                 (cm**2/sr)   (a0**2/sr)    function
 #----------------------------------------------------------------------
0.00000E+00 8.19703E-11
7.61557E-13 8.19486E-11
1.18994E-12 8.19364E-11
1.71346E-12 8.19217E-11
2.33225E-12 8.19042E-11
3.04617E-12 8.18842E-11
3.85530E-12 8.18614E-11
4.75964E-12 8.18360E-11
5.75917E-12 8.18079E-11
6.85391E-12 8.17772E-11
8.04379E-12 8.17439E-11
9.32893E-12 8.17079E-11
1.07092E-11 8.16693E-11
1.21847E-11 8.16280E-11
1.37554E-11 8.15841E-11
1.54213E-11 8.15377E-11
1.71823E-11 8.14886E-11
1.90386E-11 8.14369E-11
2.09900E-11 8.13826E-11
2.30367E-11 8.13258E-11
2.51785E-11 8.12664E-11
2.74156E-11 8.12044E-11
2.97478E-11 8.11399E-11
3.21752E-11 8.10728E-11
3.46979E-11 8.10032E-11
3.73157E-11 8.09311E-11
4.00286E-11 8.08564E-11
4.28368E-11 8.07793E-11
4.57402E-11 8.06997E-11
4.87388E-11 8.06176E-11
5.18325E-11 8.05330E-11
5.50215E-11 8.04461E-11
5.83057E-11 8.03566E-11
6.16850E-11 8.02647E-11
6.51595E-11 8.01705E-11
6.87293E-11 8.00738E-11
7.23943E-11 7.99748E-11
7.61544E-11 7.98734E-11
1.18991E-10 7.87329E-11
1.71347E-10 7.73747E-11
2.33223E-10 7.58088E-11
3.04617E-10 7.40781E-11
3.85531E-10 7.21906E-11
4.75965E-10 7.01653E-11
5.75917E-10 6.80494E-11
6.85389E-10 6.58363E-11
8.04380E-10 6.35620E-11
9.32891E-10 6.12679E-11
1.07092E-09 5.89277E-11
1.21847E-09 5.65955E-11
1.37554E-09 5.42971E-11
1.54213E-09 5.19912E-11
1.71823E-09 4.97448E-11
1.90386E-09 4.75581E-11
2.09900E-09 4.54060E-11
2.30367E-09 4.33367E-11
2.51785E-09 4.13380E-11
2.74156E-09 3.94004E-11
2.97478E-09 3.75536E-11
3.21752E-09 3.57786E-11
3.46978E-09 3.40774E-11
3.73156E-09 3.24651E-11
4.00286E-09 3.09201E-11
4.28368E-09 2.94515E-11
4.57402E-09 2.80645E-11
4.87388E-09 2.67374E-11
5.18326E-09 2.54832E-11
5.50215E-09 2.43010E-11
5.83057E-09 2.31701E-11
6.16850E-09 2.21055E-11
6.51596E-09 2.11004E-11
6.87293E-09 2.01428E-11
7.23942E-09 1.92414E-11
7.61544E-09 1.83887E-11
1.18991E-08 1.19833E-11
1.71347E-08 8.16850E-12
2.33223E-08 5.70862E-12
3.04617E-08 4.17783E-12
3.85531E-08 3.10884E-12
4.75965E-08 2.35370E-12
5.75917E-08 1.82328E-12
6.85389E-08 1.42671E-12
8.04380E-08 1.13411E-12
9.32891E-08 9.16045E-13
1.07092E-07 7.46096E-13
1.21847E-07 6.15385E-13
1.37554E-07 5.13436E-13
1.54213E-07 4.30684E-13
1.71823E-07 3.64709E-13
1.90386E-07 3.11142E-13
2.09900E-07 2.66534E-13
2.30367E-07 2.29875E-13
2.51785E-07 1.99214E-13
2.74156E-07 1.73258E-13
2.97478E-07 1.51467E-13
3.21752E-07 1.32870E-13
3.46978E-07 1.16961E-13
3.73156E-07 1.03393E-13
4.00286E-07 9.16549E-14
4.28368E-07 8.15479E-14
4.57402E-07 7.28224E-14
4.87388E-07 6.51388E-14
5.18325E-07 5.84597E-14
5.50215E-07 5.26344E-14
5.83057E-07 4.75080E-14
6.16850E-07 4.30113E-14
6.51596E-07 3.90474E-14
6.87293E-07 3.55290E-14
7.23942E-07 3.24099E-14
7.61543E-07 2.96303E-14
1.18991E-06 1.33471E-14
1.71347E-06 6.89962E-15
2.33223E-06 3.91783E-15
3.04617E-06 2.39116E-15
3.85531E-06 1.54063E-15
4.75964E-06 1.03735E-15
5.75916E-06 7.23465E-16
6.85388E-06 5.19630E-16
8.04378E-06 3.82767E-16
9.32888E-06 2.88054E-16
1.07092E-05 2.20940E-16
1.21846E-05 1.72304E-16
1.37553E-05 1.36356E-16
1.54212E-05 1.09335E-16
1.71822E-05 8.86936E-17
1.90385E-05 7.26626E-17
2.09899E-05 6.01813E-17
2.30365E-05 5.02566E-17
2.51783E-05 4.22839E-17
2.74153E-05 3.58199E-17
2.97475E-05 3.05391E-17
3.21749E-05 2.61963E-17
3.46974E-05 2.25997E-17
3.73152E-05 1.96024E-17
4.00281E-05 1.70876E-17
4.28362E-05 1.49638E-17
4.57395E-05 1.31596E-17
4.87380E-05 1.16184E-17
5.18317E-05 1.02954E-17
5.50205E-05 9.15487E-18
5.83045E-05 8.16762E-18
6.16838E-05 7.31002E-18
6.51582E-05 6.56227E-18
6.87277E-05 5.90790E-18
7.23925E-05 5.33328E-18
7.61524E-05 4.82540E-18
9.21439E-05 3.31310E-18
1.09658E-04 2.34966E-18
1.28695E-04 1.71265E-18
1.49255E-04 1.27774E-18
1.71338E-04 9.72667E-19
1.94942E-04 7.53530E-19
2.20070E-04 5.92844E-19
2.46720E-04 4.72837E-19
2.74892E-04 3.81755E-19
3.04586E-04 3.11608E-19
3.35803E-04 2.56879E-19
3.68542E-04 2.13670E-19
4.02802E-04 1.79187E-19
4.38585E-04 1.51400E-19
4.75889E-04 1.28803E-19
5.14715E-04 1.10277E-19
5.55063E-04 9.49699E-20
5.96931E-04 8.22343E-20
6.40321E-04 7.15680E-20
6.85233E-04 6.25798E-20
7.31665E-04 5.49628E-20
7.79618E-04 4.84727E-20
8.29092E-04 4.29156E-20
8.80086E-04 3.81345E-20
9.32601E-04 3.40030E-20
9.86636E-04 3.04179E-20
1.04219E-03 2.72945E-20
1.09927E-03 2.45633E-20
1.15786E-03 2.21665E-20
1.21797E-03 2.00562E-20
1.27961E-03 1.81921E-20
1.34276E-03 1.65404E-20
1.40743E-03 1.50729E-20
1.47362E-03 1.37653E-20
1.54133E-03 1.25971E-20
1.61056E-03 1.15508E-20
1.68131E-03 1.06115E-20
1.75357E-03 9.76626E-21
1.82735E-03 9.00396E-21
1.90265E-03 8.31504E-21
1.97947E-03 7.69113E-21
2.05780E-03 7.12502E-21
2.13765E-03 6.61037E-21
2.21902E-03 6.14165E-21
2.30190E-03 5.71403E-21
2.38630E-03 5.32323E-21
2.47222E-03 4.96552E-21
2.55965E-03 4.63756E-21
2.64859E-03 4.33644E-21
2.73905E-03 4.05956E-21
2.83103E-03 3.80460E-21
2.92452E-03 3.56950E-21
3.01952E-03 3.35243E-21
3.11604E-03 3.15175E-21
3.21407E-03 2.96600E-21
3.31362E-03 2.79385E-21
3.41468E-03 2.63413E-21
3.51725E-03 2.48576E-21
3.62133E-03 2.34779E-21
3.72692E-03 2.21935E-21
3.83403E-03 2.09966E-21
3.94265E-03 1.98802E-21
4.05278E-03 1.88377E-21
4.16442E-03 1.78633E-21
4.27757E-03 1.69519E-21
4.39223E-03 1.60984E-21
4.50840E-03 1.52986E-21
4.62608E-03 1.45483E-21
4.74527E-03 1.38441E-21
4.86597E-03 1.31824E-21
4.98817E-03 1.25602E-21
5.11188E-03 1.19748E-21
5.23711E-03 1.14235E-21
5.36383E-03 1.09039E-21
5.49207E-03 1.04139E-21
5.62181E-03 9.95145E-22
5.75306E-03 9.51471E-22
5.88581E-03 9.10198E-22
6.02007E-03 8.71168E-22
6.15583E-03 8.34236E-22
6.29310E-03 7.99267E-22
6.43187E-03 7.66135E-22
6.57214E-03 7.34724E-22
6.71392E-03 7.04930E-22
6.85720E-03 6.76653E-22
7.00198E-03 6.49799E-22
7.14827E-03 6.24282E-22
7.29605E-03 6.00023E-22
7.44534E-03 5.76949E-22
7.59612E-03 5.54991E-22
7.97965E-03 5.04554E-22
8.37255E-03 4.59801E-22
8.77480E-03 4.19970E-22
9.18641E-03 3.84422E-22
9.60736E-03 3.52613E-22
1.00376E-02 3.24074E-22
1.04773E-02 2.98410E-22
1.09262E-02 2.75275E-22
1.13844E-02 2.54373E-22
1.18520E-02 2.35450E-22
1.23288E-02 2.18281E-22
1.28150E-02 2.02675E-22
1.33104E-02 1.88460E-22
1.38150E-02 1.75490E-22
1.43290E-02 1.63636E-22
1.48521E-02 1.52781E-22
1.53845E-02 1.42826E-22
1.59262E-02 1.33683E-22
1.64770E-02 1.25271E-22
1.70371E-02 1.17521E-22
1.76063E-02 1.10371E-22
1.81848E-02 1.03766E-22
1.87724E-02 9.76549E-23
1.93692E-02 9.19948E-23
1.99751E-02 8.67456E-23
2.05901E-02 8.18719E-23
2.12143E-02 7.73419E-23
2.18476E-02 7.31262E-23
2.24900E-02 6.91943E-23
2.31415E-02 6.55269E-23
2.38021E-02 6.21027E-23
2.44717E-02 5.89023E-23
2.51504E-02 5.59082E-23
2.58382E-02 5.31045E-23
2.65349E-02 5.04765E-23
2.72407E-02 4.80111E-23
2.79555E-02 4.56961E-23
2.86793E-02 4.35207E-23
2.94120E-02 4.14745E-23
3.01537E-02 3.95485E-23
3.09043E-02 3.77342E-23
3.16639E-02 3.60237E-23
3.24324E-02 3.44099E-23
3.32098E-02 3.28862E-23
3.39961E-02 3.14466E-23
3.47912E-02 3.00856E-23
3.55952E-02 2.87979E-23
3.64081E-02 2.75787E-23
3.72297E-02 2.64238E-23
3.80602E-02 2.53291E-23
3.88995E-02 2.42907E-23
3.97476E-02 2.33052E-23
4.06044E-02 2.23693E-23
4.14700E-02 2.14800E-23
4.23443E-02 2.06346E-23
4.32273E-02 1.98305E-23
4.41190E-02 1.90651E-23
4.50194E-02 1.83363E-23
4.59284E-02 1.76420E-23
4.68461E-02 1.69802E-23
4.87074E-02 1.57469E-23
5.06030E-02 1.46231E-23
5.25328E-02 1.35973E-23
5.44967E-02 1.26593E-23
5.64946E-02 1.18002E-23
5.85262E-02 1.10120E-23
6.05914E-02 1.02879E-23
6.26901E-02 9.62150E-24
6.48222E-02 9.00744E-24
6.69873E-02 8.44081E-24
6.91854E-02 7.91725E-24
7.14163E-02 7.43289E-24
7.36799E-02 6.98422E-24
7.59760E-02 6.56813E-24
7.83043E-02 6.18182E-24
8.06647E-02 5.82275E-24
8.30571E-02 5.48864E-24
8.54812E-02 5.17745E-24
8.79369E-02 4.88731E-24
9.04240E-02 4.61654E-24
9.29422E-02 4.36361E-24
9.54915E-02 4.12714E-24
9.80716E-02 3.90585E-24
1.00682E-01 3.69860E-24
1.03323E-01 3.50433E-24
1.05995E-01 3.32211E-24
1.08696E-01 3.15103E-24
1.11427E-01 2.99031E-24
1.14188E-01 2.83920E-24
1.16978E-01 2.69704E-24
1.19797E-01 2.56320E-24
1.22645E-01 2.43711E-24
1.25522E-01 2.31825E-24
1.28428E-01 2.20613E-24
1.31361E-01 2.10031E-24
1.34323E-01 2.00037E-24
1.37313E-01 1.90593E-24
1.40330E-01 1.81665E-24
1.43375E-01 1.73219E-24
1.46447E-01 1.65225E-24
1.49545E-01 1.57656E-24
1.52671E-01 1.50484E-24
1.55823E-01 1.43687E-24
1.59001E-01 1.37240E-24
1.62205E-01 1.31124E-24
1.65435E-01 1.25319E-24
1.68690E-01 1.19807E-24
1.71970E-01 1.14570E-24
1.75276E-01 1.09593E-24
1.78606E-01 1.04861E-24
1.81961E-01 1.00360E-24
1.85340E-01 9.60781E-25
1.88743E-01 9.20020E-25
1.92169E-01 8.81208E-25
1.95619E-01 8.44238E-25
1.99092E-01 8.09011E-25
2.02589E-01 7.75434E-25
2.06107E-01 7.43418E-25
2.09649E-01 7.12881E-25
2.13212E-01 6.83746E-25
2.16797E-01 6.55939E-25
2.20404E-01 6.29394E-25
2.24032E-01 6.04044E-25
2.27680E-01 5.79829E-25
2.31350E-01 5.56692E-25
2.35040E-01 5.34579E-25
2.38751E-01 5.13438E-25
2.42481E-01 4.93223E-25
2.46231E-01 4.73887E-25
2.50000E-01 4.55388E-25
2.53788E-01 4.37685E-25
2.57595E-01 4.20740E-25
2.61421E-01 4.04517E-25
2.65264E-01 3.88981E-25
2.69126E-01 3.74100E-25
2.73005E-01 3.59843E-25
2.76901E-01 3.46182E-25
2.80814E-01 3.33088E-25
2.84744E-01 3.20536E-25
2.88691E-01 3.08500E-25
2.92653E-01 2.96958E-25
2.96632E-01 2.85886E-25
3.00625E-01 2.75265E-25
3.04634E-01 2.65072E-25
3.08658E-01 2.55290E-25
3.12697E-01 2.45901E-25
3.16749E-01 2.36886E-25
3.20816E-01 2.28230E-25
3.24896E-01 2.19917E-25
3.28990E-01 2.11931E-25
3.33097E-01 2.04260E-25
3.37216E-01 1.96889E-25
3.41348E-01 1.89805E-25
3.45492E-01 1.82997E-25
3.49647E-01 1.76452E-25
3.53814E-01 1.70160E-25
3.57992E-01 1.64110E-25
3.62181E-01 1.58291E-25
3.66381E-01 1.52695E-25
3.70590E-01 1.47312E-25
3.74810E-01 1.42132E-25
3.79039E-01 1.37149E-25
3.83277E-01 1.32353E-25
3.87524E-01 1.27737E-25
3.91780E-01 1.23295E-25
3.96044E-01 1.19018E-25
4.00316E-01 1.14900E-25
4.04596E-01 1.10934E-25
4.08882E-01 1.07116E-25
4.13176E-01 1.03438E-25
4.17476E-01 9.98955E-26
4.21783E-01 9.64828E-26
4.26095E-01 9.31948E-26
4.30413E-01 9.00267E-26
4.34737E-01 8.69737E-26
4.39065E-01 8.40314E-26
4.43398E-01 8.11954E-26
4.47736E-01 7.84617E-26
4.52077E-01 7.58262E-26
4.56422E-01 7.32853E-26
4.60770E-01 7.08352E-26
4.65122E-01 6.84725E-26
4.69476E-01 6.61939E-26
4.73832E-01 6.39962E-26
4.78190E-01 6.18762E-26
4.82550E-01 5.98312E-26
4.86912E-01 5.78581E-26
4.91274E-01 5.59544E-26
4.95637E-01 5.41174E-26
5.00000E-01 5.23447E-26
5.04363E-01 5.06337E-26
5.08726E-01 4.89824E-26
5.13088E-01 4.73883E-26
5.17450E-01 4.58495E-26
5.21810E-01 4.43638E-26
5.26168E-01 4.29293E-26
5.30524E-01 4.15442E-26
5.34878E-01 4.02065E-26
5.39230E-01 3.89147E-26
5.43578E-01 3.76670E-26
5.47923E-01 3.64618E-26
5.52264E-01 3.52975E-26
5.56602E-01 3.41728E-26
5.60935E-01 3.30861E-26
5.65263E-01 3.20361E-26
5.69587E-01 3.10214E-26
5.73905E-01 3.00409E-26
5.78217E-01 2.90932E-26
5.82524E-01 2.81773E-26
5.86824E-01 2.72919E-26
5.91118E-01 2.64359E-26
5.95404E-01 2.56084E-26
5.99684E-01 2.48084E-26
6.03956E-01 2.40348E-26
6.08220E-01 2.32867E-26
6.12476E-01 2.25632E-26
6.16723E-01 2.18635E-26
6.20961E-01 2.11868E-26
6.25190E-01 2.05321E-26
6.29410E-01 1.98988E-26
6.33619E-01 1.92861E-26
6.37819E-01 1.86933E-26
6.42008E-01 1.81196E-26
6.46186E-01 1.75645E-26
6.50353E-01 1.70273E-26
6.54508E-01 1.65074E-26
6.58652E-01 1.60041E-26
6.62784E-01 1.55169E-26
6.66903E-01 1.50452E-26
6.71010E-01 1.45886E-26
6.75104E-01 1.41465E-26
6.79184E-01 1.37183E-26
6.83251E-01 1.33037E-26
6.87303E-01 1.29022E-26
6.91342E-01 1.25132E-26
6.95366E-01 1.21365E-26
6.99375E-01 1.17715E-26
7.03368E-01 1.14179E-26
7.07347E-01 1.10753E-26
7.11309E-01 1.07434E-26
7.15256E-01 1.04217E-26
7.19186E-01 1.01099E-26
7.23099E-01 9.80769E-27
7.26995E-01 9.51476E-27
7.30874E-01 9.23080E-27
7.34736E-01 8.95550E-27
7.38579E-01 8.68857E-27
7.42405E-01 8.42974E-27
7.46212E-01 8.17873E-27
7.50000E-01 7.93530E-27
7.53769E-01 7.69918E-27
7.57519E-01 7.47015E-27
7.61249E-01 7.24796E-27
7.64960E-01 7.03239E-27
7.68650E-01 6.82324E-27
7.72320E-01 6.62027E-27
7.75968E-01 6.42331E-27
7.79596E-01 6.23215E-27
7.83203E-01 6.04660E-27
7.86788E-01 5.86648E-27
7.90351E-01 5.69163E-27
7.93893E-01 5.52186E-27
7.97411E-01 5.35701E-27
8.00908E-01 5.19694E-27
8.04381E-01 5.04148E-27
8.07831E-01 4.89050E-27
8.11257E-01 4.74384E-27
8.14660E-01 4.60137E-27
8.18039E-01 4.46296E-27
8.21394E-01 4.32849E-27
8.24724E-01 4.19782E-27
8.28030E-01 4.07085E-27
8.31310E-01 3.94745E-27
8.34565E-01 3.82751E-27
8.37795E-01 3.71094E-27
8.40999E-01 3.59761E-27
8.44177E-01 3.48745E-27
8.47329E-01 3.38034E-27
8.50455E-01 3.27620E-27
8.53553E-01 3.17493E-27
8.56625E-01 3.07646E-27
8.59670E-01 2.98069E-27
8.62687E-01 2.88754E-27
8.65677E-01 2.79694E-27
8.68639E-01 2.70881E-27
8.71572E-01 2.62308E-27
8.74478E-01 2.53968E-27
8.77355E-01 2.45854E-27
8.80203E-01 2.37959E-27
8.83022E-01 2.30278E-27
8.85812E-01 2.22803E-27
8.88573E-01 2.15530E-27
8.91304E-01 2.08452E-27
8.94005E-01 2.01564E-27
8.96677E-01 1.94861E-27
8.99318E-01 1.88337E-27
9.01928E-01 1.81987E-27
9.04508E-01 1.75807E-27
9.07058E-01 1.69793E-27
9.09576E-01 1.63939E-27
9.12063E-01 1.58241E-27
9.14519E-01 1.52696E-27
9.16943E-01 1.47298E-27
9.19335E-01 1.42045E-27
9.21696E-01 1.36932E-27
9.24024E-01 1.31957E-27
9.26320E-01 1.27115E-27
9.28584E-01 1.22402E-27
9.30815E-01 1.17817E-27
9.33013E-01 1.13355E-27
9.35178E-01 1.09014E-27
9.37310E-01 1.04791E-27
9.39409E-01 1.00683E-27
9.41474E-01 9.66864E-28
9.43505E-01 9.27998E-28
9.45503E-01 8.90203E-28
9.47467E-01 8.53453E-28
9.49397E-01 8.17726E-28
9.51293E-01 7.82998E-28
9.53154E-01 7.49249E-28
9.54981E-01 7.16457E-28
9.56773E-01 6.84601E-28
9.58530E-01 6.53662E-28
9.60252E-01 6.23621E-28
9.61940E-01 5.94460E-28
9.63592E-01 5.66161E-28
9.65209E-01 5.38708E-28
9.66790E-01 5.12084E-28
9.68336E-01 4.86273E-28
9.69846E-01 4.61262E-28
9.71321E-01 4.37034E-28
9.72759E-01 4.13577E-28
9.74162E-01 3.90876E-28
9.75528E-01 3.68920E-28
9.76858E-01 3.47695E-28
9.78152E-01 3.27190E-28
9.79410E-01 3.07393E-28
9.80631E-01 2.88294E-28
9.81815E-01 2.69883E-28
9.82963E-01 2.52148E-28
9.84074E-01 2.35081E-28
9.85148E-01 2.18672E-28
9.86185E-01 2.02913E-28
9.87185E-01 1.87796E-28
9.88148E-01 1.73311E-28
9.89074E-01 1.59453E-28
9.89962E-01 1.46212E-28
9.90814E-01 1.33584E-28
9.91627E-01 1.21560E-28
9.92404E-01 1.10136E-28
9.93143E-01 9.93043E-29
9.93844E-01 8.90604E-29
9.94508E-01 7.93989E-29
9.95134E-01 7.03148E-29
9.95722E-01 6.18037E-29
9.96273E-01 5.38612E-29
9.96786E-01 4.64834E-29
9.97261E-01 3.96666E-29
9.97698E-01 3.34075E-29
9.98097E-01 2.77028E-29
9.98459E-01 2.25499E-29
9.98782E-01 1.79462E-29
9.99067E-01 1.38893E-29
9.99315E-01 1.03774E-29
9.99524E-01 7.40868E-30
9.99695E-01 4.98169E-30
9.99829E-01 3.09526E-30
9.99924E-01 1.74847E-30
9.99981E-01 9.40656E-31
1.00000E+00 6.71430E-31
