 #
 # Subroutine ELSEPA. Elastic scattering of electrons and positrons
 #                    by neutral atoms and positive ions
 #
 # Projectile: electron
 # Kinetic energy = 1.25000E+07 eV = 4.59367E+05 a.u.
 #
 # WARNING: High-energy factorization with free-atom DF screening.
 #          Absorption, polarization and exchange corrections are
 #          switched off.
 #          Phase shifts are calculated for the bare nucleus.
 #          Scattering amplitudes are not evaluated.
 #
 # Element: Po,  Z =  84,  atomic weight = 2.08982E+02 g/mol
 #
 # Nuclear model: Fermi distribution
 #                Average radius = 6.34971E-13 cm
 #                Skin thickness = 5.46000E-14 cm
 #
 # Number of electrons = 84
 #
 # Total elastic cross section = 9.16217E-18 cm**2 = 3.27187E-01 a0**2
 # 1st transport cross section = 7.67311E-23 cm**2 = 2.74012E-06 a0**2
 # 2nd transport cross section = 2.10942E-22 cm**2 = 7.53288E-06 a0**2
 #
 #
 # Differential cross section:                       MU=(1-COS(THETA))/2
 #
 #  THETA        MU          DCS          DCS        Sherman      error
 #  (deg)                 (cm**2/sr)   (a0**2/sr)    function
 #----------------------------------------------------------------------
0.00000E+00 1.10040E-11
7.61557E-13 1.10036E-11
1.18994E-12 1.10034E-11
1.71346E-12 1.10031E-11
2.33225E-12 1.10028E-11
3.04617E-12 1.10025E-11
3.85530E-12 1.10021E-11
4.75964E-12 1.10016E-11
5.75917E-12 1.10011E-11
6.85391E-12 1.10005E-11
8.04379E-12 1.09999E-11
9.32893E-12 1.09993E-11
1.07092E-11 1.09986E-11
1.21847E-11 1.09978E-11
1.37554E-11 1.09970E-11
1.54213E-11 1.09962E-11
1.71823E-11 1.09953E-11
1.90386E-11 1.09944E-11
2.09900E-11 1.09934E-11
2.30367E-11 1.09923E-11
2.51785E-11 1.09913E-11
2.74156E-11 1.09901E-11
2.97478E-11 1.09889E-11
3.21752E-11 1.09877E-11
3.46979E-11 1.09864E-11
3.73157E-11 1.09851E-11
4.00286E-11 1.09838E-11
4.28368E-11 1.09823E-11
4.57402E-11 1.09809E-11
4.87388E-11 1.09794E-11
5.18325E-11 1.09778E-11
5.50215E-11 1.09762E-11
5.83057E-11 1.09745E-11
6.16850E-11 1.09728E-11
6.51595E-11 1.09711E-11
6.87293E-11 1.09693E-11
7.23943E-11 1.09674E-11
7.61544E-11 1.09655E-11
1.18991E-10 1.09440E-11
1.71347E-10 1.09178E-11
2.33223E-10 1.08870E-11
3.04617E-10 1.08516E-11
3.85531E-10 1.08117E-11
4.75965E-10 1.07675E-11
5.75917E-10 1.07189E-11
6.85389E-10 1.06660E-11
8.04380E-10 1.06091E-11
9.32891E-10 1.05482E-11
1.07092E-09 1.04834E-11
1.21847E-09 1.04148E-11
1.37554E-09 1.03425E-11
1.54213E-09 1.02660E-11
1.71823E-09 1.01866E-11
1.90386E-09 1.01047E-11
2.09900E-09 1.00203E-11
2.30367E-09 9.93117E-12
2.51785E-09 9.83968E-12
2.74156E-09 9.74635E-12
2.97478E-09 9.65140E-12
3.21752E-09 9.55257E-12
3.46978E-09 9.45133E-12
3.73156E-09 9.34904E-12
4.00286E-09 9.24589E-12
4.28368E-09 9.14015E-12
4.57402E-09 9.03161E-12
4.87388E-09 8.92277E-12
5.18326E-09 8.81380E-12
5.50215E-09 8.70375E-12
5.83057E-09 8.59031E-12
6.16850E-09 8.47724E-12
6.51596E-09 8.36468E-12
6.87293E-09 8.25268E-12
7.23942E-09 8.13659E-12
7.61544E-09 8.02143E-12
1.18991E-08 6.88750E-12
1.71347E-08 5.82671E-12
2.33223E-08 4.88965E-12
3.04617E-08 4.09341E-12
3.85531E-08 3.42901E-12
4.75965E-08 2.88375E-12
5.75917E-08 2.43839E-12
6.85389E-08 2.07387E-12
8.04380E-08 1.77550E-12
9.32891E-08 1.52956E-12
1.07092E-07 1.32547E-12
1.21847E-07 1.15518E-12
1.37554E-07 1.01049E-12
1.54213E-07 8.82040E-13
1.71823E-07 7.77527E-13
1.90386E-07 6.91644E-13
2.09900E-07 6.20414E-13
2.30367E-07 5.51156E-13
2.51785E-07 4.92258E-13
2.74156E-07 4.42677E-13
2.97478E-07 4.00635E-13
3.21752E-07 3.61210E-13
3.46978E-07 3.25976E-13
3.73156E-07 2.95738E-13
4.00286E-07 2.69638E-13
4.28368E-07 2.45846E-13
4.57402E-07 2.23897E-13
4.87388E-07 2.04758E-13
5.18325E-07 1.87993E-13
5.50215E-07 1.72953E-13
5.83057E-07 1.58809E-13
6.16850E-07 1.46310E-13
6.51596E-07 1.35224E-13
6.87293E-07 1.25347E-13
7.23942E-07 1.15930E-13
7.61543E-07 1.07514E-13
1.18991E-06 5.49571E-14
1.71347E-06 3.10229E-14
2.33223E-06 1.87227E-14
3.04617E-06 1.19016E-14
3.85531E-06 7.89538E-15
4.75964E-06 5.44502E-15
5.75916E-06 3.88682E-15
6.85388E-06 2.85158E-15
8.04378E-06 2.14145E-15
9.32888E-06 1.64094E-15
1.07092E-05 1.27935E-15
1.21846E-05 1.01237E-15
1.37553E-05 8.11351E-16
1.54212E-05 6.57719E-16
1.71822E-05 5.39315E-16
1.90385E-05 4.46158E-16
2.09899E-05 3.72674E-16
2.30365E-05 3.13910E-16
2.51783E-05 2.65990E-16
2.74153E-05 2.26944E-16
2.97475E-05 1.94753E-16
3.21749E-05 1.68052E-16
3.46974E-05 1.45849E-16
3.73152E-05 1.27134E-16
4.00281E-05 1.11382E-16
4.28362E-05 9.79814E-17
4.57395E-05 8.65329E-17
4.87380E-05 7.67155E-17
5.18317E-05 6.82242E-17
5.50205E-05 6.08857E-17
5.83045E-05 5.44975E-17
6.16838E-05 4.89280E-17
6.51582E-05 4.40568E-17
6.87277E-05 3.97729E-17
7.23925E-05 3.60038E-17
7.61524E-05 3.26642E-17
9.21439E-05 2.26386E-17
1.09658E-04 1.61847E-17
1.28695E-04 1.18805E-17
1.49255E-04 8.91826E-18
1.71338E-04 6.82526E-18
1.94942E-04 5.31227E-18
2.20070E-04 4.19615E-18
2.46720E-04 3.35832E-18
2.74892E-04 2.71954E-18
3.04586E-04 2.22553E-18
3.35803E-04 1.83878E-18
3.68542E-04 1.53249E-18
4.02802E-04 1.28739E-18
4.38585E-04 1.08942E-18
4.75889E-04 9.28084E-19
5.14715E-04 7.95570E-19
5.55063E-04 6.85907E-19
5.96931E-04 5.94525E-19
6.40321E-04 5.17891E-19
6.85233E-04 4.53235E-19
7.31665E-04 3.98381E-19
7.79618E-04 3.51596E-19
8.29092E-04 3.11497E-19
8.80086E-04 2.76968E-19
9.32601E-04 2.47105E-19
9.86636E-04 2.21171E-19
1.04219E-03 1.98561E-19
1.09927E-03 1.78776E-19
1.15786E-03 1.61402E-19
1.21797E-03 1.46095E-19
1.27961E-03 1.32566E-19
1.34276E-03 1.20572E-19
1.40743E-03 1.09909E-19
1.47362E-03 1.00403E-19
1.54133E-03 9.19070E-20
1.61056E-03 8.42939E-20
1.68131E-03 7.74561E-20
1.75357E-03 7.13004E-20
1.82735E-03 6.57466E-20
1.90265E-03 6.07255E-20
1.97947E-03 5.61766E-20
2.05780E-03 5.20477E-20
2.13765E-03 4.82929E-20
2.21902E-03 4.48722E-20
2.30190E-03 4.17505E-20
2.38630E-03 3.88969E-20
2.47222E-03 3.62841E-20
2.55965E-03 3.38883E-20
2.64859E-03 3.16879E-20
2.73905E-03 2.96642E-20
2.83103E-03 2.78004E-20
2.92452E-03 2.60815E-20
3.01952E-03 2.44942E-20
3.11604E-03 2.30265E-20
3.21407E-03 2.16678E-20
3.31362E-03 2.04085E-20
3.41468E-03 1.92399E-20
3.51725E-03 1.81544E-20
3.62133E-03 1.71448E-20
3.72692E-03 1.62049E-20
3.83403E-03 1.53291E-20
3.94265E-03 1.45120E-20
4.05278E-03 1.37490E-20
4.16442E-03 1.30360E-20
4.27757E-03 1.23689E-20
4.39223E-03 1.17442E-20
4.50840E-03 1.11589E-20
4.62608E-03 1.06098E-20
4.74527E-03 1.00944E-20
4.86597E-03 9.61020E-21
4.98817E-03 9.15493E-21
5.11188E-03 8.72655E-21
5.23711E-03 8.32316E-21
5.36383E-03 7.94304E-21
5.49207E-03 7.58458E-21
5.62181E-03 7.24631E-21
5.75306E-03 6.92689E-21
5.88581E-03 6.62505E-21
6.02007E-03 6.33964E-21
6.15583E-03 6.06961E-21
6.29310E-03 5.81396E-21
6.43187E-03 5.57177E-21
6.57214E-03 5.34221E-21
6.71392E-03 5.12449E-21
6.85720E-03 4.91787E-21
7.00198E-03 4.72169E-21
7.14827E-03 4.53532E-21
7.29605E-03 4.35816E-21
7.44534E-03 4.18968E-21
7.59612E-03 4.02937E-21
7.97965E-03 3.66129E-21
8.37255E-03 3.33483E-21
8.77480E-03 3.04442E-21
9.18641E-03 2.78538E-21
9.60736E-03 2.55371E-21
1.00376E-02 2.34598E-21
1.04773E-02 2.15928E-21
1.09262E-02 1.99107E-21
1.13844E-02 1.83920E-21
1.18520E-02 1.70179E-21
1.23288E-02 1.57720E-21
1.28150E-02 1.46400E-21
1.33104E-02 1.36098E-21
1.38150E-02 1.26703E-21
1.43290E-02 1.18121E-21
1.48521E-02 1.10269E-21
1.53845E-02 1.03072E-21
1.59262E-02 9.64654E-22
1.64770E-02 9.03915E-22
1.70371E-02 8.47992E-22
1.76063E-02 7.96426E-22
1.81848E-02 7.48816E-22
1.87724E-02 7.04797E-22
1.93692E-02 6.64047E-22
1.99751E-02 6.26275E-22
2.05901E-02 5.91221E-22
2.12143E-02 5.58651E-22
2.18476E-02 5.28355E-22
2.24900E-02 5.00141E-22
2.31415E-02 4.73838E-22
2.38021E-02 4.49292E-22
2.44717E-02 4.26362E-22
2.51504E-02 4.04920E-22
2.58382E-02 3.84850E-22
2.65349E-02 3.66046E-22
2.72407E-02 3.48412E-22
2.79555E-02 3.31862E-22
2.86793E-02 3.16315E-22
2.94120E-02 3.01697E-22
3.01537E-02 2.87942E-22
3.09043E-02 2.74988E-22
3.16639E-02 2.62780E-22
3.24324E-02 2.51265E-22
3.32098E-02 2.40396E-22
3.39961E-02 2.30129E-22
3.47912E-02 2.20424E-22
3.55952E-02 2.11243E-22
3.64081E-02 2.02554E-22
3.72297E-02 1.94323E-22
3.80602E-02 1.86521E-22
3.88995E-02 1.79122E-22
3.97476E-02 1.72100E-22
4.06044E-02 1.65432E-22
4.14700E-02 1.59096E-22
4.23443E-02 1.53073E-22
4.32273E-02 1.47343E-22
4.41190E-02 1.41889E-22
4.50194E-02 1.36696E-22
4.59284E-02 1.31747E-22
4.68461E-02 1.27030E-22
4.87074E-02 1.18236E-22
5.06030E-02 1.10220E-22
5.25328E-02 1.02899E-22
5.44967E-02 9.61993E-23
5.64946E-02 9.00587E-23
5.85262E-02 8.44198E-23
6.05914E-02 7.92337E-23
6.26901E-02 7.44561E-23
6.48222E-02 7.00481E-23
6.69873E-02 6.59751E-23
6.91854E-02 6.22060E-23
7.14163E-02 5.87138E-23
7.36799E-02 5.54732E-23
7.59760E-02 5.24625E-23
7.83043E-02 4.96619E-23
8.06647E-02 4.70534E-23
8.30571E-02 4.46211E-23
8.54812E-02 4.23504E-23
8.79369E-02 4.02282E-23
9.04240E-02 3.82428E-23
9.29422E-02 3.63833E-23
9.54915E-02 3.46400E-23
9.80716E-02 3.30041E-23
1.00682E-01 3.14674E-23
1.03323E-01 3.00226E-23
1.05995E-01 2.86630E-23
1.08696E-01 2.73825E-23
1.11427E-01 2.61753E-23
1.14188E-01 2.50364E-23
1.16978E-01 2.39611E-23
1.19797E-01 2.29449E-23
1.22645E-01 2.19839E-23
1.25522E-01 2.10745E-23
1.28428E-01 2.02132E-23
1.31361E-01 1.93969E-23
1.34323E-01 1.86228E-23
1.37313E-01 1.78881E-23
1.40330E-01 1.71904E-23
1.43375E-01 1.65275E-23
1.46447E-01 1.58971E-23
1.49545E-01 1.52974E-23
1.52671E-01 1.47266E-23
1.55823E-01 1.41829E-23
1.59001E-01 1.36647E-23
1.62205E-01 1.31708E-23
1.65435E-01 1.26989E-23
1.68690E-01 1.22484E-23
1.71970E-01 1.18181E-23
1.75276E-01 1.14070E-23
1.78606E-01 1.10139E-23
1.81961E-01 1.06378E-23
1.85340E-01 1.02780E-23
1.88743E-01 9.93345E-24
1.92169E-01 9.60344E-24
1.95619E-01 9.28719E-24
1.99092E-01 8.98401E-24
2.02589E-01 8.69322E-24
2.06107E-01 8.41421E-24
2.09649E-01 8.14639E-24
2.13212E-01 7.88921E-24
2.16797E-01 7.64216E-24
2.20404E-01 7.40473E-24
2.24032E-01 7.17648E-24
2.27680E-01 6.95696E-24
2.31350E-01 6.74577E-24
2.35040E-01 6.54252E-24
2.38751E-01 6.34685E-24
2.42481E-01 6.15840E-24
2.46231E-01 5.97685E-24
2.50000E-01 5.80189E-24
2.53788E-01 5.63323E-24
2.57595E-01 5.47059E-24
2.61421E-01 5.31371E-24
2.65264E-01 5.16234E-24
2.69126E-01 5.01624E-24
2.73005E-01 4.87518E-24
2.76901E-01 4.73896E-24
2.80814E-01 4.60737E-24
2.84744E-01 4.48022E-24
2.88691E-01 4.35732E-24
2.92653E-01 4.23851E-24
2.96632E-01 4.12361E-24
3.00625E-01 4.01248E-24
3.04634E-01 3.90495E-24
3.08658E-01 3.80089E-24
3.12697E-01 3.70016E-24
3.16749E-01 3.60262E-24
3.20816E-01 3.50817E-24
3.24896E-01 3.41667E-24
3.28990E-01 3.32802E-24
3.33097E-01 3.24211E-24
3.37216E-01 3.15883E-24
3.41348E-01 3.07809E-24
3.45492E-01 2.99979E-24
3.49647E-01 2.92385E-24
3.53814E-01 2.85017E-24
3.57992E-01 2.77868E-24
3.62181E-01 2.70929E-24
3.66381E-01 2.64194E-24
3.70590E-01 2.57654E-24
3.74810E-01 2.51304E-24
3.79039E-01 2.45136E-24
3.83277E-01 2.39144E-24
3.87524E-01 2.33322E-24
3.91780E-01 2.27664E-24
3.96044E-01 2.22165E-24
4.00316E-01 2.16819E-24
4.04596E-01 2.11622E-24
4.08882E-01 2.06567E-24
4.13176E-01 2.01651E-24
4.17476E-01 1.96868E-24
4.21783E-01 1.92215E-24
4.26095E-01 1.87687E-24
4.30413E-01 1.83280E-24
4.34737E-01 1.78991E-24
4.39065E-01 1.74815E-24
4.43398E-01 1.70749E-24
4.47736E-01 1.66789E-24
4.52077E-01 1.62933E-24
4.56422E-01 1.59176E-24
4.60770E-01 1.55516E-24
4.65122E-01 1.51950E-24
4.69476E-01 1.48475E-24
4.73832E-01 1.45088E-24
4.78190E-01 1.41786E-24
4.82550E-01 1.38568E-24
4.86912E-01 1.35430E-24
4.91274E-01 1.32369E-24
4.95637E-01 1.29385E-24
5.00000E-01 1.26474E-24
5.04363E-01 1.23634E-24
5.08726E-01 1.20864E-24
5.13088E-01 1.18160E-24
5.17450E-01 1.15522E-24
5.21810E-01 1.12948E-24
5.26168E-01 1.10435E-24
5.30524E-01 1.07982E-24
5.34878E-01 1.05587E-24
5.39230E-01 1.03249E-24
5.43578E-01 1.00965E-24
5.47923E-01 9.87354E-25
5.52264E-01 9.65574E-25
5.56602E-01 9.44300E-25
5.60935E-01 9.23517E-25
5.65263E-01 9.03213E-25
5.69587E-01 8.83374E-25
5.73905E-01 8.63987E-25
5.78217E-01 8.45041E-25
5.82524E-01 8.26524E-25
5.86824E-01 8.08425E-25
5.91118E-01 7.90731E-25
5.95404E-01 7.73434E-25
5.99684E-01 7.56522E-25
6.03956E-01 7.39985E-25
6.08220E-01 7.23814E-25
6.12476E-01 7.07999E-25
6.16723E-01 6.92532E-25
6.20961E-01 6.77402E-25
6.25190E-01 6.62603E-25
6.29410E-01 6.48124E-25
6.33619E-01 6.33959E-25
6.37819E-01 6.20100E-25
6.42008E-01 6.06538E-25
6.46186E-01 5.93267E-25
6.50353E-01 5.80278E-25
6.54508E-01 5.67567E-25
6.58652E-01 5.55124E-25
6.62784E-01 5.42945E-25
6.66903E-01 5.31023E-25
6.71010E-01 5.19351E-25
6.75104E-01 5.07923E-25
6.79184E-01 4.96734E-25
6.83251E-01 4.85778E-25
6.87303E-01 4.75050E-25
6.91342E-01 4.64543E-25
6.95366E-01 4.54254E-25
6.99375E-01 4.44176E-25
7.03368E-01 4.34305E-25
7.07347E-01 4.24636E-25
7.11309E-01 4.15165E-25
7.15256E-01 4.05887E-25
7.19186E-01 3.96798E-25
7.23099E-01 3.87892E-25
7.26995E-01 3.79167E-25
7.30874E-01 3.70618E-25
7.34736E-01 3.62241E-25
7.38579E-01 3.54033E-25
7.42405E-01 3.45989E-25
7.46212E-01 3.38106E-25
7.50000E-01 3.30381E-25
7.53769E-01 3.22809E-25
7.57519E-01 3.15389E-25
7.61249E-01 3.08115E-25
7.64960E-01 3.00986E-25
7.68650E-01 2.93999E-25
7.72320E-01 2.87149E-25
7.75968E-01 2.80435E-25
7.79596E-01 2.73853E-25
7.83203E-01 2.67400E-25
7.86788E-01 2.61075E-25
7.90351E-01 2.54874E-25
7.93893E-01 2.48794E-25
7.97411E-01 2.42834E-25
8.00908E-01 2.36990E-25
8.04381E-01 2.31261E-25
8.07831E-01 2.25644E-25
8.11257E-01 2.20137E-25
8.14660E-01 2.14738E-25
8.18039E-01 2.09444E-25
8.21394E-01 2.04253E-25
8.24724E-01 1.99164E-25
8.28030E-01 1.94174E-25
8.31310E-01 1.89282E-25
8.34565E-01 1.84485E-25
8.37795E-01 1.79782E-25
8.40999E-01 1.75170E-25
8.44177E-01 1.70650E-25
8.47329E-01 1.66217E-25
8.50455E-01 1.61871E-25
8.53553E-01 1.57611E-25
8.56625E-01 1.53434E-25
8.59670E-01 1.49340E-25
8.62687E-01 1.45325E-25
8.65677E-01 1.41391E-25
8.68639E-01 1.37533E-25
8.71572E-01 1.33752E-25
8.74478E-01 1.30046E-25
8.77355E-01 1.26414E-25
8.80203E-01 1.22854E-25
8.83022E-01 1.19365E-25
8.85812E-01 1.15946E-25
8.88573E-01 1.12595E-25
8.91304E-01 1.09312E-25
8.94005E-01 1.06095E-25
8.96677E-01 1.02944E-25
8.99318E-01 9.98565E-26
9.01928E-01 9.68323E-26
9.04508E-01 9.38700E-26
9.07058E-01 9.09688E-26
9.09576E-01 8.81277E-26
9.12063E-01 8.53457E-26
9.14519E-01 8.26219E-26
9.16943E-01 7.99553E-26
9.19335E-01 7.73451E-26
9.21696E-01 7.47904E-26
9.24024E-01 7.22904E-26
9.26320E-01 6.98443E-26
9.28584E-01 6.74512E-26
9.30815E-01 6.51104E-26
9.33013E-01 6.28211E-26
9.35178E-01 6.05825E-26
9.37310E-01 5.83941E-26
9.39409E-01 5.62550E-26
9.41474E-01 5.41645E-26
9.43505E-01 5.21221E-26
9.45503E-01 5.01270E-26
9.47467E-01 4.81787E-26
9.49397E-01 4.62765E-26
9.51293E-01 4.44197E-26
9.53154E-01 4.26080E-26
9.54981E-01 4.08406E-26
9.56773E-01 3.91170E-26
9.58530E-01 3.74367E-26
9.60252E-01 3.57992E-26
9.61940E-01 3.42039E-26
9.63592E-01 3.26504E-26
9.65209E-01 3.11382E-26
9.66790E-01 2.96669E-26
9.68336E-01 2.82359E-26
9.69846E-01 2.68449E-26
9.71321E-01 2.54935E-26
9.72759E-01 2.41811E-26
9.74162E-01 2.29075E-26
9.75528E-01 2.16722E-26
9.76858E-01 2.04749E-26
9.78152E-01 1.93153E-26
9.79410E-01 1.81929E-26
9.80631E-01 1.71074E-26
9.81815E-01 1.60586E-26
9.82963E-01 1.50460E-26
9.84074E-01 1.40695E-26
9.85148E-01 1.31287E-26
9.86185E-01 1.22233E-26
9.87185E-01 1.13531E-26
9.88148E-01 1.05178E-26
9.89074E-01 9.71719E-27
9.89962E-01 8.95102E-27
9.90814E-01 8.21906E-27
9.91627E-01 7.52111E-27
9.92404E-01 6.85695E-27
9.93143E-01 6.22640E-27
9.93844E-01 5.62927E-27
9.94508E-01 5.06538E-27
9.95134E-01 4.53459E-27
9.95722E-01 4.03673E-27
9.96273E-01 3.57165E-27
9.96786E-01 3.13923E-27
9.97261E-01 2.73933E-27
9.97698E-01 2.37185E-27
9.98097E-01 2.03668E-27
9.98459E-01 1.73372E-27
9.98782E-01 1.46288E-27
9.99067E-01 1.22409E-27
9.99315E-01 1.01727E-27
9.99524E-01 8.42375E-28
9.99695E-01 6.99346E-28
9.99829E-01 5.88143E-28
9.99924E-01 5.08736E-28
9.99981E-01 4.61101E-28
1.00000E+00 4.45224E-28
