 #
 # Subroutine ELSEPA. Elastic scattering of electrons and positrons
 #                    by neutral atoms and positive ions
 #
 # Projectile: electron
 # Kinetic energy = 7.00000E+08 eV = 2.57245E+07 a.u.
 #
 # WARNING: High-energy factorization with free-atom DF screening.
 #          Absorption, polarization and exchange corrections are
 #          switched off.
 #          Phase shifts are calculated for the bare nucleus.
 #          Scattering amplitudes are not evaluated.
 #
 # Element: Po,  Z =  84,  atomic weight = 2.08982E+02 g/mol
 #
 # Nuclear model: Fermi distribution
 #                Average radius = 6.34971E-13 cm
 #                Skin thickness = 5.46000E-14 cm
 #
 # Number of electrons = 84
 #
 # Total elastic cross section = 9.13102E-18 cm**2 = 3.26075E-01 a0**2
 # 1st transport cross section = 2.68930E-26 cm**2 = 9.60367E-10 a0**2
 # 2nd transport cross section = 8.06629E-26 cm**2 = 2.88052E-09 a0**2
 #
 #
 # Differential cross section:                       MU=(1-COS(THETA))/2
 #
 #  THETA        MU          DCS          DCS        Sherman      error
 #  (deg)                 (cm**2/sr)   (a0**2/sr)    function
 #----------------------------------------------------------------------
0.00000E+00 3.18978E-08
7.61557E-13 2.89034E-08
1.18994E-12 2.74130E-08
1.71346E-12 2.57594E-08
2.33225E-12 2.40125E-08
3.04617E-12 2.22213E-08
3.85530E-12 2.04467E-08
4.75964E-12 1.87325E-08
5.75917E-12 1.71049E-08
6.85391E-12 1.55735E-08
8.04379E-12 1.41605E-08
9.32893E-12 1.28684E-08
1.07092E-11 1.16905E-08
1.21847E-11 1.06236E-08
1.37554E-11 9.66397E-09
1.54213E-11 8.80277E-09
1.71823E-11 8.02704E-09
1.90386E-11 7.33240E-09
2.09900E-11 6.71048E-09
2.30367E-11 6.15238E-09
2.51785E-11 5.65018E-09
2.74156E-11 5.19922E-09
2.97478E-11 4.79350E-09
3.21752E-11 4.42669E-09
3.46979E-11 4.09500E-09
3.73157E-11 3.79484E-09
4.00286E-11 3.52253E-09
4.28368E-11 3.27408E-09
4.57402E-11 3.04784E-09
4.87388E-11 2.83075E-09
5.18325E-11 2.63098E-09
5.50215E-11 2.45242E-09
5.83057E-11 2.29234E-09
6.16850E-11 2.14843E-09
6.51595E-11 2.01869E-09
6.87293E-11 1.90142E-09
7.23943E-11 1.79515E-09
7.61544E-11 1.68382E-09
1.18991E-10 9.50079E-10
1.71347E-10 5.76515E-10
2.33223E-10 3.70888E-10
3.04617E-10 2.49533E-10
3.85531E-10 1.74669E-10
4.75965E-10 1.26227E-10
5.75917E-10 9.34816E-11
6.85389E-10 7.04911E-11
8.04380E-10 5.40852E-11
9.32891E-10 4.21312E-11
1.07092E-09 3.32534E-11
1.21847E-09 2.65766E-11
1.37554E-09 2.14755E-11
1.54213E-09 1.75562E-11
1.71823E-09 1.45011E-11
1.90386E-09 1.20928E-11
2.09900E-09 1.01704E-11
2.30367E-09 8.61766E-12
2.51785E-09 7.35105E-12
2.74156E-09 6.31117E-12
2.97478E-09 5.45096E-12
3.21752E-09 4.73343E-12
3.46978E-09 4.13103E-12
3.73156E-09 3.62208E-12
4.00286E-09 3.18937E-12
4.28368E-09 2.81904E-12
4.57402E-09 2.50108E-12
4.87388E-09 2.22556E-12
5.18326E-09 1.98756E-12
5.50215E-09 1.78198E-12
5.83057E-09 1.60172E-12
6.16850E-09 1.44323E-12
6.51596E-09 1.30469E-12
6.87293E-09 1.18231E-12
7.23942E-09 1.07343E-12
7.61544E-09 9.77304E-13
1.18991E-08 4.24313E-13
1.71347E-08 2.12593E-13
2.33223E-08 1.17845E-13
3.04617E-08 7.04788E-14
3.85531E-08 4.47141E-14
4.75965E-08 2.97303E-14
5.75917E-08 2.05323E-14
6.85389E-08 1.46315E-14
8.04380E-08 1.07051E-14
9.32891E-08 8.01045E-15
1.07092E-07 6.11183E-15
1.21847E-07 4.74315E-15
1.37554E-07 3.73661E-15
1.54213E-07 2.98322E-15
1.71823E-07 2.41037E-15
1.90386E-07 1.96858E-15
2.09900E-07 1.62350E-15
2.30367E-07 1.35081E-15
2.51785E-07 1.13304E-15
2.74156E-07 9.57450E-16
2.97478E-07 8.14599E-16
3.21752E-07 6.97430E-16
3.46978E-07 6.00596E-16
3.73156E-07 5.20004E-16
4.00286E-07 4.52493E-16
4.28368E-07 3.95595E-16
4.57402E-07 3.47368E-16
4.87388E-07 3.06273E-16
5.18325E-07 2.71081E-16
5.50215E-07 2.40802E-16
5.83057E-07 2.14637E-16
6.16850E-07 1.91932E-16
6.51596E-07 1.72151E-16
6.87293E-07 1.54855E-16
7.23942E-07 1.39678E-16
7.61543E-07 1.26315E-16
1.18991E-06 5.20262E-17
1.71347E-06 2.51800E-17
2.33223E-06 1.36249E-17
3.04617E-06 8.00070E-18
3.85531E-06 5.00136E-18
4.75964E-06 3.28472E-18
5.75916E-06 2.24533E-18
6.85388E-06 1.58641E-18
8.04378E-06 1.15242E-18
9.32888E-06 8.57202E-19
1.07092E-05 6.50752E-19
1.21846E-05 5.02883E-19
1.37553E-05 3.94731E-19
1.54212E-05 3.14157E-19
1.71822E-05 2.53135E-19
1.90385E-05 2.06107E-19
2.09899E-05 1.69741E-19
2.30365E-05 1.41026E-19
2.51783E-05 1.18098E-19
2.74153E-05 9.96165E-20
2.97475E-05 8.46004E-20
3.21749E-05 7.23102E-20
3.46974E-05 6.21804E-20
3.73152E-05 5.37727E-20
4.00281E-05 4.67459E-20
4.28362E-05 4.08334E-20
4.57395E-05 3.58271E-20
4.87380E-05 3.15638E-20
5.18317E-05 2.79149E-20
5.50205E-05 2.47781E-20
5.83045E-05 2.20685E-20
6.16838E-05 1.97190E-20
6.51582E-05 1.76748E-20
6.87277E-05 1.58895E-20
7.23925E-05 1.43245E-20
7.61524E-05 1.32757E-20
9.21439E-05 9.09368E-21
1.09658E-04 6.43439E-21
1.28695E-04 4.67806E-21
1.49255E-04 3.47974E-21
1.71338E-04 2.63957E-21
1.94942E-04 2.03634E-21
2.20070E-04 1.59422E-21
2.46720E-04 1.26428E-21
2.74892E-04 1.01409E-21
3.04586E-04 8.21657E-22
3.35803E-04 6.71764E-22
3.68542E-04 5.53660E-22
4.02802E-04 4.59644E-22
4.38585E-04 3.84104E-22
4.75889E-04 3.22889E-22
5.14715E-04 2.72901E-22
5.55063E-04 2.31787E-22
5.96931E-04 1.97755E-22
6.40321E-04 1.69415E-22
6.85233E-04 1.45684E-22
7.31665E-04 1.25713E-22
7.79618E-04 1.08826E-22
8.29092E-04 9.44855E-23
8.80086E-04 8.22572E-23
9.32601E-04 7.17911E-23
9.86636E-04 6.28021E-23
1.04219E-03 5.50562E-23
1.09927E-03 4.83617E-23
1.15786E-03 4.25592E-23
1.21797E-03 3.75166E-23
1.27961E-03 3.31237E-23
1.34276E-03 2.92877E-23
1.40743E-03 2.59311E-23
1.47362E-03 2.29878E-23
1.54133E-03 2.04023E-23
1.61056E-03 1.81269E-23
1.68131E-03 1.61211E-23
1.75357E-03 1.43504E-23
1.82735E-03 1.27849E-23
1.90265E-03 1.13990E-23
1.97947E-03 1.01705E-23
2.05780E-03 9.08031E-24
2.13765E-03 8.11181E-24
2.21902E-03 7.25052E-24
2.30190E-03 6.48389E-24
2.38630E-03 5.80090E-24
2.47222E-03 5.19196E-24
2.55965E-03 4.64862E-24
2.64859E-03 4.16349E-24
2.73905E-03 3.73008E-24
2.83103E-03 3.34264E-24
2.92452E-03 2.99612E-24
3.01952E-03 2.68605E-24
3.11604E-03 2.40849E-24
3.21407E-03 2.15994E-24
3.31362E-03 1.93728E-24
3.41468E-03 1.73777E-24
3.51725E-03 1.55895E-24
3.62133E-03 1.39864E-24
3.72692E-03 1.25491E-24
3.83403E-03 1.12602E-24
3.94265E-03 1.01042E-24
4.05278E-03 9.06742E-25
4.16442E-03 8.13747E-25
4.27757E-03 7.30333E-25
4.39223E-03 6.55515E-25
4.50840E-03 5.88408E-25
4.62608E-03 5.28220E-25
4.74527E-03 4.74243E-25
4.86597E-03 4.25840E-25
4.98817E-03 3.82440E-25
5.11188E-03 3.43531E-25
5.23711E-03 3.08652E-25
5.36383E-03 2.77392E-25
5.49207E-03 2.49377E-25
5.62181E-03 2.24276E-25
5.75306E-03 2.01788E-25
5.88581E-03 1.81645E-25
6.02007E-03 1.63604E-25
6.15583E-03 1.47448E-25
6.29310E-03 1.32982E-25
6.43187E-03 1.20030E-25
6.57214E-03 1.08433E-25
6.71392E-03 9.80509E-26
6.85720E-03 8.87557E-26
7.00198E-03 8.04329E-26
7.14827E-03 7.29800E-26
7.29605E-03 6.63048E-26
7.44534E-03 6.03244E-26
7.59612E-03 5.49648E-26
7.97965E-03 4.38620E-26
8.37255E-03 3.53782E-26
8.77480E-03 2.88586E-26
9.18641E-03 2.38093E-26
9.60736E-03 1.98589E-26
1.00376E-02 1.67300E-26
1.04773E-02 1.42164E-26
1.09262E-02 1.21655E-26
1.13844E-02 1.04654E-26
1.18520E-02 9.03440E-27
1.23288E-02 7.81311E-27
1.28150E-02 6.75853E-27
1.33104E-02 5.83960E-27
1.38150E-02 5.03372E-27
1.43290E-02 4.32435E-27
1.48521E-02 3.69908E-27
1.53845E-02 3.14836E-27
1.59262E-02 2.66454E-27
1.64770E-02 2.24120E-27
1.70371E-02 1.87274E-27
1.76063E-02 1.55405E-27
1.81848E-02 1.28041E-27
1.87724E-02 1.04731E-27
1.93692E-02 8.50479E-28
1.99751E-02 6.85830E-28
2.05901E-02 5.49486E-28
2.12143E-02 4.37793E-28
2.18476E-02 3.47344E-28
2.24900E-02 2.74992E-28
2.31415E-02 2.17871E-28
2.38021E-02 1.73397E-28
2.44717E-02 1.39274E-28
2.51504E-02 1.13488E-28
2.58382E-02 9.42970E-29
2.65349E-02 8.02184E-29
2.72407E-02 7.00088E-29
2.79555E-02 6.26445E-29
2.86793E-02 5.72988E-29
2.94120E-02 5.33193E-29
3.01537E-02 5.02045E-29
3.09043E-02 4.75817E-29
3.16639E-02 4.51859E-29
3.24324E-02 4.28396E-29
3.32098E-02 4.04355E-29
3.39961E-02 3.79203E-29
3.47912E-02 3.52809E-29
3.55952E-02 3.25327E-29
3.64081E-02 2.97095E-29
3.72297E-02 2.68560E-29
3.80602E-02 2.40207E-29
3.88995E-02 2.12521E-29
3.97476E-02 1.85943E-29
4.06044E-02 1.60854E-29
4.14700E-02 1.37557E-29
4.23443E-02 1.16274E-29
4.32273E-02 9.71446E-30
4.41190E-02 8.02300E-30
4.50194E-02 6.55229E-30
4.59284E-02 5.29564E-30
4.68461E-02 4.24148E-30
4.87074E-02 2.67681E-30
5.06030E-02 1.71044E-30
5.25328E-02 1.18249E-30
5.44967E-02 9.43875E-31
5.64946E-02 8.70461E-31
5.85262E-02 8.69387E-31
6.05914E-02 8.79204E-31
6.26901E-02 8.65904E-31
6.48222E-02 8.16744E-31
6.69873E-02 7.33462E-31
6.91854E-02 6.26004E-31
7.14163E-02 5.07438E-31
7.36799E-02 3.90340E-31
7.59760E-02 2.84617E-31
7.83043E-02 1.96571E-31
8.06647E-02 1.28891E-31
8.30571E-02 8.12335E-32
8.54812E-02 5.11051E-32
8.79369E-02 3.47974E-32
9.04240E-02 2.82219E-32
9.29422E-02 2.75458E-32
9.54915E-02 2.96011E-32
9.80716E-02 3.20767E-32
1.00682E-01 3.35358E-32
1.03323E-01 3.33094E-32
1.05995E-01 3.13203E-32
1.08696E-01 2.78831E-32
1.11427E-01 2.35160E-32
1.14188E-01 1.87863E-32
1.16978E-01 1.42004E-32
1.19797E-01 1.01390E-32
1.22645E-01 6.83217E-33
1.25522E-01 4.36596E-33
1.28428E-01 2.70768E-33
1.31361E-01 1.74189E-33
1.34323E-01 1.30782E-33
1.37313E-01 1.23247E-33
1.40330E-01 1.35604E-33
1.43375E-01 1.54828E-33
1.46447E-01 1.71626E-33
1.49545E-01 1.80484E-33
1.52671E-01 1.79208E-33
1.55823E-01 1.68157E-33
1.59001E-01 1.49369E-33
1.62205E-01 1.25724E-33
1.65435E-01 1.00245E-33
1.68690E-01 7.56008E-34
1.71970E-01 5.37971E-34
1.75276E-01 3.60636E-34
1.78606E-01 2.28781E-34
1.81961E-01 1.40925E-34
1.85340E-01 9.10959E-35
1.88743E-01 7.07341E-35
1.92169E-01 7.04296E-35
1.95619E-01 8.13001E-35
1.99092E-01 9.59309E-35
2.02589E-01 1.08871E-34
2.06107E-01 1.16744E-34
2.09649E-01 1.18065E-34
2.13212E-01 1.12871E-34
2.16797E-01 1.02262E-34
2.20404E-01 8.79321E-35
2.24032E-01 7.17649E-35
2.27680E-01 5.55146E-35
2.31350E-01 4.05952E-35
2.35040E-01 2.79748E-35
2.38751E-01 1.81571E-35
2.42481E-01 1.12293E-35
2.46231E-01 6.95161E-36
2.50000E-01 4.86536E-36
2.53788E-01 4.40120E-36
2.57595E-01 4.97287E-36
2.61421E-01 6.04925E-36
2.65264E-01 7.20109E-36
2.69126E-01 8.12342E-36
2.73005E-01 8.63730E-36
2.76901E-01 8.67613E-36
2.80814E-01 8.26227E-36
2.84744E-01 7.47938E-36
2.88691E-01 6.44481E-36
2.92653E-01 5.28550E-36
2.96632E-01 4.11909E-36
3.00625E-01 3.04125E-36
3.04634E-01 2.11911E-36
3.08658E-01 1.38977E-36
3.12697E-01 8.62923E-37
3.16749E-01 5.26028E-37
3.20816E-01 3.50888E-37
3.24896E-01 3.00396E-37
3.28990E-01 3.34689E-37
3.33097E-01 4.16044E-37
3.37216E-01 5.12406E-37
3.41348E-01 5.99335E-37
3.45492E-01 6.60700E-37
3.49647E-01 6.88225E-37
3.53814E-01 6.80344E-37
3.57992E-01 6.40586E-37
3.62181E-01 5.75832E-37
3.66381E-01 4.94645E-37
3.70590E-01 4.05858E-37
3.74810E-01 3.17477E-37
3.79039E-01 2.35967E-37
3.83277E-01 1.65886E-37
3.87524E-01 1.00000E-45
3.91780E-01 1.00000E-45
3.96044E-01 1.00000E-45
4.00316E-01 1.00000E-45
4.04596E-01 1.00000E-45
4.08882E-01 1.00000E-45
4.13176E-01 1.00000E-45
4.17476E-01 1.00000E-45
4.21783E-01 1.00000E-45
4.26095E-01 1.00000E-45
4.30413E-01 1.00000E-45
4.34737E-01 1.00000E-45
4.39065E-01 1.00000E-45
4.43398E-01 1.00000E-45
4.47736E-01 1.00000E-45
4.52077E-01 1.00000E-45
4.56422E-01 1.00000E-45
4.60770E-01 1.00000E-45
4.65122E-01 1.00000E-45
4.69476E-01 1.00000E-45
4.73832E-01 1.00000E-45
4.78190E-01 1.00000E-45
4.82550E-01 1.00000E-45
4.86912E-01 1.00000E-45
4.91274E-01 1.00000E-45
4.95637E-01 1.00000E-45
5.00000E-01 1.00000E-45
5.04363E-01 1.00000E-45
5.08726E-01 1.00000E-45
5.13088E-01 1.00000E-45
5.17450E-01 1.00000E-45
5.21810E-01 1.00000E-45
5.26168E-01 1.00000E-45
5.30524E-01 1.00000E-45
5.34878E-01 1.00000E-45
5.39230E-01 1.00000E-45
5.43578E-01 1.00000E-45
5.47923E-01 1.00000E-45
5.52264E-01 1.00000E-45
5.56602E-01 1.00000E-45
5.60935E-01 1.00000E-45
5.65263E-01 1.00000E-45
5.69587E-01 1.00000E-45
5.73905E-01 1.00000E-45
5.78217E-01 1.00000E-45
5.82524E-01 1.00000E-45
5.86824E-01 1.00000E-45
5.91118E-01 1.00000E-45
5.95404E-01 1.00000E-45
5.99684E-01 1.00000E-45
6.03956E-01 1.00000E-45
6.08220E-01 1.00000E-45
6.12476E-01 1.00000E-45
6.16723E-01 1.00000E-45
6.20961E-01 1.00000E-45
6.25190E-01 1.00000E-45
6.29410E-01 1.00000E-45
6.33619E-01 1.00000E-45
6.37819E-01 1.00000E-45
6.42008E-01 1.00000E-45
6.46186E-01 1.00000E-45
6.50353E-01 1.00000E-45
6.54508E-01 1.00000E-45
6.58652E-01 1.00000E-45
6.62784E-01 1.00000E-45
6.66903E-01 1.00000E-45
6.71010E-01 1.00000E-45
6.75104E-01 1.00000E-45
6.79184E-01 1.00000E-45
6.83251E-01 1.00000E-45
6.87303E-01 1.00000E-45
6.91342E-01 1.00000E-45
6.95366E-01 1.00000E-45
6.99375E-01 1.00000E-45
7.03368E-01 1.00000E-45
7.07347E-01 1.00000E-45
7.11309E-01 1.00000E-45
7.15256E-01 1.00000E-45
7.19186E-01 1.00000E-45
7.23099E-01 1.00000E-45
7.26995E-01 1.00000E-45
7.30874E-01 1.00000E-45
7.34736E-01 1.00000E-45
7.38579E-01 1.00000E-45
7.42405E-01 1.00000E-45
7.46212E-01 1.00000E-45
7.50000E-01 1.00000E-45
7.53769E-01 1.00000E-45
7.57519E-01 1.00000E-45
7.61249E-01 1.00000E-45
7.64960E-01 1.00000E-45
7.68650E-01 1.00000E-45
7.72320E-01 1.00000E-45
7.75968E-01 1.00000E-45
7.79596E-01 1.00000E-45
7.83203E-01 1.00000E-45
7.86788E-01 1.00000E-45
7.90351E-01 1.00000E-45
7.93893E-01 1.00000E-45
7.97411E-01 1.00000E-45
8.00908E-01 1.00000E-45
8.04381E-01 1.00000E-45
8.07831E-01 1.00000E-45
8.11257E-01 1.00000E-45
8.14660E-01 1.00000E-45
8.18039E-01 1.00000E-45
8.21394E-01 1.00000E-45
8.24724E-01 1.00000E-45
8.28030E-01 1.00000E-45
8.31310E-01 1.00000E-45
8.34565E-01 1.00000E-45
8.37795E-01 1.00000E-45
8.40999E-01 1.00000E-45
8.44177E-01 1.00000E-45
8.47329E-01 1.00000E-45
8.50455E-01 1.00000E-45
8.53553E-01 1.00000E-45
8.56625E-01 1.00000E-45
8.59670E-01 1.00000E-45
8.62687E-01 1.00000E-45
8.65677E-01 1.00000E-45
8.68639E-01 1.00000E-45
8.71572E-01 1.00000E-45
8.74478E-01 1.00000E-45
8.77355E-01 1.00000E-45
8.80203E-01 1.00000E-45
8.83022E-01 1.00000E-45
8.85812E-01 1.00000E-45
8.88573E-01 1.00000E-45
8.91304E-01 1.00000E-45
8.94005E-01 1.00000E-45
8.96677E-01 1.00000E-45
8.99318E-01 1.00000E-45
9.01928E-01 1.00000E-45
9.04508E-01 1.00000E-45
9.07058E-01 1.00000E-45
9.09576E-01 1.00000E-45
9.12063E-01 1.00000E-45
9.14519E-01 1.00000E-45
9.16943E-01 1.00000E-45
9.19335E-01 1.00000E-45
9.21696E-01 1.00000E-45
9.24024E-01 1.00000E-45
9.26320E-01 1.00000E-45
9.28584E-01 1.00000E-45
9.30815E-01 1.00000E-45
9.33013E-01 1.00000E-45
9.35178E-01 1.00000E-45
9.37310E-01 1.00000E-45
9.39409E-01 1.00000E-45
9.41474E-01 1.00000E-45
9.43505E-01 1.00000E-45
9.45503E-01 1.00000E-45
9.47467E-01 1.00000E-45
9.49397E-01 1.00000E-45
9.51293E-01 1.00000E-45
9.53154E-01 1.00000E-45
9.54981E-01 1.00000E-45
9.56773E-01 1.00000E-45
9.58530E-01 1.00000E-45
9.60252E-01 1.00000E-45
9.61940E-01 1.00000E-45
9.63592E-01 1.00000E-45
9.65209E-01 1.00000E-45
9.66790E-01 1.00000E-45
9.68336E-01 1.00000E-45
9.69846E-01 1.00000E-45
9.71321E-01 1.00000E-45
9.72759E-01 1.00000E-45
9.74162E-01 1.00000E-45
9.75528E-01 1.00000E-45
9.76858E-01 1.00000E-45
9.78152E-01 1.00000E-45
9.79410E-01 1.00000E-45
9.80631E-01 1.00000E-45
9.81815E-01 1.00000E-45
9.82963E-01 1.00000E-45
9.84074E-01 1.00000E-45
9.85148E-01 1.00000E-45
9.86185E-01 1.00000E-45
9.87185E-01 1.00000E-45
9.88148E-01 1.00000E-45
9.89074E-01 1.00000E-45
9.89962E-01 1.00000E-45
9.90814E-01 1.00000E-45
9.91627E-01 1.00000E-45
9.92404E-01 1.00000E-45
9.93143E-01 1.00000E-45
9.93844E-01 1.00000E-45
9.94508E-01 1.00000E-45
9.95134E-01 1.00000E-45
9.95722E-01 1.00000E-45
9.96273E-01 1.00000E-45
9.96786E-01 1.00000E-45
9.97261E-01 1.00000E-45
9.97698E-01 1.00000E-45
9.98097E-01 1.00000E-45
9.98459E-01 1.00000E-45
9.98782E-01 1.00000E-45
9.99067E-01 1.00000E-45
9.99315E-01 1.00000E-45
9.99524E-01 1.00000E-45
9.99695E-01 1.00000E-45
9.99829E-01 1.00000E-45
9.99924E-01 1.00000E-45
9.99981E-01 1.00000E-45
1.00000E+00 1.00000E-45
