 #
 # Subroutine ELSEPA. Elastic scattering of electrons and positrons
 #                    by neutral atoms and positive ions
 #
 # Projectile: electron
 # Kinetic energy = 8.00000E+08 eV = 2.93995E+07 a.u.
 #
 # WARNING: High-energy factorization with free-atom DF screening.
 #          Absorption, polarization and exchange corrections are
 #          switched off.
 #          Phase shifts are calculated for the bare nucleus.
 #          Scattering amplitudes are not evaluated.
 #
 # Element: Po,  Z =  84,  atomic weight = 2.08982E+02 g/mol
 #
 # Nuclear model: Fermi distribution
 #                Average radius = 6.34971E-13 cm
 #                Skin thickness = 5.46000E-14 cm
 #
 # Number of electrons = 84
 #
 # Total elastic cross section = 9.12170E-18 cm**2 = 3.25742E-01 a0**2
 # 1st transport cross section = 2.05759E-26 cm**2 = 7.34780E-10 a0**2
 # 2nd transport cross section = 6.17183E-26 cm**2 = 2.20400E-09 a0**2
 #
 #
 # Differential cross section:                       MU=(1-COS(THETA))/2
 #
 #  THETA        MU          DCS          DCS        Sherman      error
 #  (deg)                 (cm**2/sr)   (a0**2/sr)    function
 #----------------------------------------------------------------------
0.00000E+00 4.16548E-08
7.61557E-13 3.66667E-08
1.18994E-12 3.42741E-08
1.71346E-12 3.16855E-08
2.33225E-12 2.90201E-08
3.04617E-12 2.63783E-08
3.85530E-12 2.38457E-08
4.75964E-12 2.14603E-08
5.75917E-12 1.92711E-08
6.85391E-12 1.72708E-08
8.04379E-12 1.54808E-08
9.32893E-12 1.38751E-08
1.07092E-11 1.24547E-08
1.21847E-11 1.11946E-08
1.37554E-11 1.00835E-08
1.54213E-11 9.10193E-09
1.71823E-11 8.23531E-09
1.90386E-11 7.46958E-09
2.09900E-11 6.79079E-09
2.30367E-11 6.18945E-09
2.51785E-11 5.65336E-09
2.74156E-11 5.17656E-09
2.97478E-11 4.74877E-09
3.21752E-11 4.36627E-09
3.46979E-11 4.02150E-09
3.73157E-11 3.69743E-09
4.00286E-11 3.40157E-09
4.28368E-11 3.14119E-09
4.57402E-11 2.91118E-09
4.87388E-11 2.70723E-09
5.18325E-11 2.52576E-09
5.50215E-11 2.36374E-09
5.83057E-11 2.19940E-09
6.16850E-11 2.04566E-09
6.51595E-11 1.90793E-09
6.87293E-11 1.78417E-09
7.23943E-11 1.67265E-09
7.61544E-11 1.57190E-09
1.18991E-10 8.63836E-10
1.71347E-10 5.13760E-10
2.33223E-10 3.25951E-10
3.04617E-10 2.17468E-10
3.85531E-10 1.51020E-10
4.75965E-10 1.07892E-10
5.75917E-10 7.90498E-11
6.85389E-10 5.90074E-11
8.04380E-10 4.49009E-11
9.32891E-10 3.47170E-11
1.07092E-09 2.72409E-11
1.21847E-09 2.16894E-11
1.37554E-09 1.75059E-11
1.54213E-09 1.42952E-11
1.71823E-09 1.17936E-11
1.90386E-09 9.81969E-12
2.09900E-09 8.24430E-12
2.30367E-09 6.97622E-12
2.51785E-09 5.94435E-12
2.74156E-09 5.09841E-12
2.97478E-09 4.39735E-12
3.21752E-09 3.81335E-12
3.46978E-09 3.32280E-12
3.73156E-09 2.90727E-12
4.00286E-09 2.55559E-12
4.28368E-09 2.25787E-12
4.57402E-09 2.00014E-12
4.87388E-09 1.77897E-12
5.18326E-09 1.58853E-12
5.50215E-09 1.42148E-12
5.83057E-09 1.27666E-12
6.16850E-09 1.14993E-12
6.51596E-09 1.03810E-12
6.87293E-09 9.40050E-13
7.23942E-09 8.53051E-13
7.61544E-09 7.75848E-13
1.18991E-08 3.34372E-13
1.71347E-08 1.66633E-13
2.33223E-08 9.20678E-14
3.04617E-08 5.49582E-14
3.85531E-08 3.48152E-14
4.75965E-08 2.31147E-14
5.75917E-08 1.59410E-14
6.85389E-08 1.13441E-14
8.04380E-08 8.28939E-15
9.32891E-08 6.19600E-15
1.07092E-07 4.72292E-15
1.21847E-07 3.66239E-15
1.37554E-07 2.88335E-15
1.54213E-07 2.30076E-15
1.71823E-07 1.85814E-15
1.90386E-07 1.51701E-15
2.09900E-07 1.25070E-15
2.30367E-07 1.04036E-15
2.51785E-07 8.72446E-16
2.74156E-07 7.37091E-16
2.97478E-07 6.27006E-16
3.21752E-07 5.36733E-16
3.46978E-07 4.62141E-16
3.73156E-07 4.00072E-16
4.00286E-07 3.48084E-16
4.28368E-07 3.04276E-16
4.57402E-07 2.67149E-16
4.87388E-07 2.35517E-16
5.18325E-07 2.08432E-16
5.50215E-07 1.85131E-16
5.83057E-07 1.64997E-16
6.16850E-07 1.47527E-16
6.51596E-07 1.32310E-16
6.87293E-07 1.19005E-16
7.23942E-07 1.07331E-16
7.61543E-07 9.70537E-17
1.18991E-06 3.99425E-17
1.71347E-06 1.93204E-17
2.33223E-06 1.04499E-17
3.04617E-06 6.13439E-18
3.85531E-06 3.83379E-18
4.75964E-06 2.51746E-18
5.75916E-06 1.72061E-18
6.85388E-06 1.21555E-18
8.04378E-06 8.82934E-19
9.32888E-06 6.56703E-19
1.07092E-05 4.98513E-19
1.21846E-05 3.85218E-19
1.37553E-05 3.02361E-19
1.54212E-05 2.40633E-19
1.71822E-05 1.93887E-19
1.90385E-05 1.57863E-19
2.09899E-05 1.30006E-19
2.30365E-05 1.08011E-19
2.51783E-05 9.04492E-20
2.74153E-05 7.62941E-20
2.97475E-05 6.47930E-20
3.21749E-05 5.53802E-20
3.46974E-05 4.76221E-20
3.73152E-05 4.11834E-20
4.00281E-05 3.58027E-20
4.28362E-05 3.12769E-20
4.57395E-05 2.74413E-20
4.87380E-05 2.41748E-20
5.18317E-05 2.13790E-20
5.50205E-05 1.89749E-20
5.83045E-05 1.68993E-20
6.16838E-05 1.51001E-20
6.51582E-05 1.35348E-20
6.87277E-05 1.21676E-20
7.23925E-05 1.09692E-20
7.61524E-05 1.01912E-20
9.21439E-05 6.97401E-21
1.09658E-04 4.92801E-21
1.28695E-04 3.57682E-21
1.49255E-04 2.65518E-21
1.71338E-04 2.00930E-21
1.94942E-04 1.54589E-21
2.20070E-04 1.20657E-21
2.46720E-04 9.53629E-22
2.74892E-04 7.62096E-22
3.04586E-04 6.15014E-22
3.35803E-04 5.00660E-22
3.68542E-04 4.10746E-22
4.02802E-04 3.39338E-22
4.38585E-04 2.82109E-22
4.75889E-04 2.35862E-22
5.14715E-04 1.98211E-22
5.55063E-04 1.67346E-22
5.96931E-04 1.41886E-22
6.40321E-04 1.20764E-22
6.85233E-04 1.03148E-22
7.31665E-04 8.83858E-23
7.79618E-04 7.59584E-23
8.29092E-04 6.54544E-23
8.80086E-04 5.65419E-23
9.32601E-04 4.89533E-23
9.86636E-04 4.24710E-23
1.04219E-03 3.69168E-23
1.09927E-03 3.21449E-23
1.15786E-03 2.80342E-23
1.21797E-03 2.44849E-23
1.27961E-03 2.14134E-23
1.34276E-03 1.87499E-23
1.40743E-03 1.64359E-23
1.47362E-03 1.44219E-23
1.54133E-03 1.26664E-23
1.61056E-03 1.11337E-23
1.68131E-03 9.79374E-24
1.75357E-03 8.62087E-24
1.82735E-03 7.59300E-24
1.90265E-03 6.69128E-24
1.97947E-03 5.89944E-24
2.05780E-03 5.20349E-24
2.13765E-03 4.59133E-24
2.21902E-03 4.05248E-24
2.30190E-03 3.57786E-24
2.38630E-03 3.15958E-24
2.47222E-03 2.79075E-24
2.55965E-03 2.46540E-24
2.64859E-03 2.17829E-24
2.73905E-03 1.92485E-24
2.83103E-03 1.70106E-24
2.92452E-03 1.50342E-24
3.01952E-03 1.32884E-24
3.11604E-03 1.17462E-24
3.21407E-03 1.03838E-24
3.31362E-03 9.18004E-25
3.41468E-03 8.11659E-25
3.51725E-03 7.17709E-25
3.62133E-03 6.34718E-25
3.72692E-03 5.61414E-25
3.83403E-03 4.96676E-25
3.94265E-03 4.39511E-25
4.05278E-03 3.89042E-25
4.16442E-03 3.44493E-25
4.27757E-03 3.05178E-25
4.39223E-03 2.70487E-25
4.50840E-03 2.39883E-25
4.62608E-03 2.12889E-25
4.74527E-03 1.89084E-25
4.86597E-03 1.68093E-25
4.98817E-03 1.49586E-25
5.11188E-03 1.33270E-25
5.23711E-03 1.18885E-25
5.36383E-03 1.06203E-25
5.49207E-03 9.50196E-26
5.62181E-03 8.51564E-26
5.75306E-03 7.64543E-26
5.88581E-03 6.87735E-26
6.02007E-03 6.19901E-26
6.15583E-03 5.59949E-26
6.29310E-03 5.06917E-26
6.43187E-03 4.59956E-26
6.57214E-03 4.18319E-26
6.71392E-03 3.81350E-26
6.85720E-03 3.48470E-26
7.00198E-03 3.19172E-26
7.14827E-03 2.93011E-26
7.29605E-03 2.69598E-26
7.44534E-03 2.48590E-26
7.59612E-03 2.29690E-26
7.97965E-03 1.90031E-26
8.37255E-03 1.58764E-26
8.77480E-03 1.33605E-26
9.18641E-03 1.12953E-26
9.60736E-03 9.56958E-27
1.00376E-02 8.10639E-27
1.04773E-02 6.85243E-27
1.09262E-02 5.77053E-27
1.13844E-02 4.83428E-27
1.18520E-02 4.02429E-27
1.23288E-02 3.32564E-27
1.28150E-02 2.72617E-27
1.33104E-02 2.21543E-27
1.38150E-02 1.78401E-27
1.43290E-02 1.42314E-27
1.48521E-02 1.12460E-27
1.53845E-02 8.80549E-28
1.59262E-02 6.83636E-28
1.64770E-02 5.26973E-28
1.70371E-02 4.04206E-28
1.76063E-02 3.09558E-28
1.81848E-02 2.37856E-28
1.87724E-02 1.84542E-28
1.93692E-02 1.45670E-28
1.99751E-02 1.17888E-28
2.05901E-02 9.83964E-29
2.12143E-02 8.49133E-29
2.18476E-02 7.56165E-29
2.24900E-02 6.90915E-29
2.31415E-02 6.42732E-29
2.38021E-02 6.03915E-29
2.44717E-02 5.69172E-29
2.51504E-02 5.35137E-29
2.58382E-02 4.99932E-29
2.65349E-02 4.62776E-29
2.72407E-02 4.23667E-29
2.79555E-02 3.83106E-29
2.86793E-02 3.41883E-29
2.94120E-02 3.00908E-29
3.01537E-02 2.61090E-29
3.09043E-02 2.23248E-29
3.16639E-02 1.88060E-29
3.24324E-02 1.56034E-29
3.32098E-02 1.27499E-29
3.39961E-02 1.02612E-29
3.47912E-02 8.13788E-30
3.55952E-02 6.36712E-30
3.64081E-02 4.92600E-30
3.72297E-02 3.78397E-30
3.80602E-02 2.90565E-30
3.88995E-02 2.25317E-30
3.97476E-02 1.78830E-30
4.06044E-02 1.47414E-30
4.14700E-02 1.27643E-30
4.23443E-02 1.16446E-30
4.32273E-02 1.11167E-30
4.41190E-02 1.09585E-30
4.50194E-02 1.09921E-30
4.59284E-02 1.10814E-30
4.68461E-02 1.11284E-30
4.87074E-02 1.08675E-30
5.06030E-02 1.00057E-30
5.25328E-02 8.62653E-31
5.44967E-02 6.95204E-31
5.64946E-02 5.23099E-31
5.85262E-02 3.66887E-31
6.05914E-02 2.39570E-31
6.26901E-02 1.46245E-31
6.48222E-02 8.55269E-32
6.69873E-02 5.17887E-32
6.91854E-02 3.74548E-32
7.14163E-02 3.48915E-32
7.36799E-02 3.76733E-32
7.59760E-02 4.12057E-32
7.83043E-02 4.28166E-32
8.06647E-02 4.14829E-32
8.30571E-02 3.73679E-32
8.54812E-02 3.13185E-32
8.79369E-02 2.44249E-32
9.04240E-02 1.76988E-32
9.29422E-02 1.18854E-32
9.54915E-02 7.39518E-33
9.80716E-02 4.32482E-33
1.00682E-01 2.53226E-33
1.03323E-01 1.73237E-33
1.05995E-01 1.58846E-33
1.08696E-01 1.78405E-33
1.11427E-01 2.06831E-33
1.14188E-01 2.27542E-33
1.16978E-01 2.32308E-33
1.19797E-01 2.19715E-33
1.22645E-01 1.92964E-33
1.25522E-01 1.57610E-33
1.28428E-01 1.19650E-33
1.31361E-01 8.41875E-34
1.34323E-01 5.47095E-34
1.37313E-01 3.28992E-34
1.40330E-01 1.88462E-34
1.43375E-01 1.14816E-34
1.46447E-01 9.08800E-35
1.49545E-01 9.77000E-35
1.52671E-01 1.18132E-34
1.55823E-01 1.39038E-34
1.59001E-01 1.52142E-34
1.62205E-01 1.53806E-34
1.65435E-01 1.44099E-34
1.68690E-01 1.25549E-34
1.71970E-01 1.01864E-34
1.75276E-01 7.68658E-35
1.78606E-01 5.37473E-35
1.81961E-01 3.46663E-35
1.85340E-01 2.06527E-35
1.88743E-01 1.17391E-35
1.92169E-01 7.22658E-36
1.95619E-01 5.99715E-36
1.99092E-01 6.80692E-36
2.02589E-01 8.51521E-36
2.06107E-01 1.02308E-35
2.09649E-01 1.13754E-35
2.13212E-01 1.16783E-35
2.16797E-01 1.11233E-35
2.20404E-01 9.87159E-36
2.24032E-01 8.17808E-36
2.27680E-01 6.31913E-36
2.31350E-01 4.53793E-36
2.35040E-01 3.01191E-36
2.38751E-01 1.84071E-36
2.42481E-01 1.05040E-36
2.46231E-01 6.08583E-37
2.50000E-01 4.44670E-37
2.53788E-01 4.70641E-37
2.57595E-01 5.98804E-37
2.61421E-01 7.54581E-37
2.65264E-01 8.83730E-37
2.69126E-01 9.54476E-37
2.73005E-01 9.55620E-37
2.76901E-01 8.92100E-37
2.80814E-01 7.79377E-37
2.84744E-01 6.37862E-37
2.88691E-01 4.88196E-37
2.92653E-01 3.47857E-37
2.96632E-01 2.29231E-37
3.00625E-01 1.00000E-45
3.04634E-01 1.00000E-45
3.08658E-01 1.00000E-45
3.12697E-01 1.00000E-45
3.16749E-01 1.00000E-45
3.20816E-01 1.00000E-45
3.24896E-01 1.00000E-45
3.28990E-01 1.00000E-45
3.33097E-01 1.00000E-45
3.37216E-01 1.00000E-45
3.41348E-01 1.00000E-45
3.45492E-01 1.00000E-45
3.49647E-01 1.00000E-45
3.53814E-01 1.00000E-45
3.57992E-01 1.00000E-45
3.62181E-01 1.00000E-45
3.66381E-01 1.00000E-45
3.70590E-01 1.00000E-45
3.74810E-01 1.00000E-45
3.79039E-01 1.00000E-45
3.83277E-01 1.00000E-45
3.87524E-01 1.00000E-45
3.91780E-01 1.00000E-45
3.96044E-01 1.00000E-45
4.00316E-01 1.00000E-45
4.04596E-01 1.00000E-45
4.08882E-01 1.00000E-45
4.13176E-01 1.00000E-45
4.17476E-01 1.00000E-45
4.21783E-01 1.00000E-45
4.26095E-01 1.00000E-45
4.30413E-01 1.00000E-45
4.34737E-01 1.00000E-45
4.39065E-01 1.00000E-45
4.43398E-01 1.00000E-45
4.47736E-01 1.00000E-45
4.52077E-01 1.00000E-45
4.56422E-01 1.00000E-45
4.60770E-01 1.00000E-45
4.65122E-01 1.00000E-45
4.69476E-01 1.00000E-45
4.73832E-01 1.00000E-45
4.78190E-01 1.00000E-45
4.82550E-01 1.00000E-45
4.86912E-01 1.00000E-45
4.91274E-01 1.00000E-45
4.95637E-01 1.00000E-45
5.00000E-01 1.00000E-45
5.04363E-01 1.00000E-45
5.08726E-01 1.00000E-45
5.13088E-01 1.00000E-45
5.17450E-01 1.00000E-45
5.21810E-01 1.00000E-45
5.26168E-01 1.00000E-45
5.30524E-01 1.00000E-45
5.34878E-01 1.00000E-45
5.39230E-01 1.00000E-45
5.43578E-01 1.00000E-45
5.47923E-01 1.00000E-45
5.52264E-01 1.00000E-45
5.56602E-01 1.00000E-45
5.60935E-01 1.00000E-45
5.65263E-01 1.00000E-45
5.69587E-01 1.00000E-45
5.73905E-01 1.00000E-45
5.78217E-01 1.00000E-45
5.82524E-01 1.00000E-45
5.86824E-01 1.00000E-45
5.91118E-01 1.00000E-45
5.95404E-01 1.00000E-45
5.99684E-01 1.00000E-45
6.03956E-01 1.00000E-45
6.08220E-01 1.00000E-45
6.12476E-01 1.00000E-45
6.16723E-01 1.00000E-45
6.20961E-01 1.00000E-45
6.25190E-01 1.00000E-45
6.29410E-01 1.00000E-45
6.33619E-01 1.00000E-45
6.37819E-01 1.00000E-45
6.42008E-01 1.00000E-45
6.46186E-01 1.00000E-45
6.50353E-01 1.00000E-45
6.54508E-01 1.00000E-45
6.58652E-01 1.00000E-45
6.62784E-01 1.00000E-45
6.66903E-01 1.00000E-45
6.71010E-01 1.00000E-45
6.75104E-01 1.00000E-45
6.79184E-01 1.00000E-45
6.83251E-01 1.00000E-45
6.87303E-01 1.00000E-45
6.91342E-01 1.00000E-45
6.95366E-01 1.00000E-45
6.99375E-01 1.00000E-45
7.03368E-01 1.00000E-45
7.07347E-01 1.00000E-45
7.11309E-01 1.00000E-45
7.15256E-01 1.00000E-45
7.19186E-01 1.00000E-45
7.23099E-01 1.00000E-45
7.26995E-01 1.00000E-45
7.30874E-01 1.00000E-45
7.34736E-01 1.00000E-45
7.38579E-01 1.00000E-45
7.42405E-01 1.00000E-45
7.46212E-01 1.00000E-45
7.50000E-01 1.00000E-45
7.53769E-01 1.00000E-45
7.57519E-01 1.00000E-45
7.61249E-01 1.00000E-45
7.64960E-01 1.00000E-45
7.68650E-01 1.00000E-45
7.72320E-01 1.00000E-45
7.75968E-01 1.00000E-45
7.79596E-01 1.00000E-45
7.83203E-01 1.00000E-45
7.86788E-01 1.00000E-45
7.90351E-01 1.00000E-45
7.93893E-01 1.00000E-45
7.97411E-01 1.00000E-45
8.00908E-01 1.00000E-45
8.04381E-01 1.00000E-45
8.07831E-01 1.00000E-45
8.11257E-01 1.00000E-45
8.14660E-01 1.00000E-45
8.18039E-01 1.00000E-45
8.21394E-01 1.00000E-45
8.24724E-01 1.00000E-45
8.28030E-01 1.00000E-45
8.31310E-01 1.00000E-45
8.34565E-01 1.00000E-45
8.37795E-01 1.00000E-45
8.40999E-01 1.00000E-45
8.44177E-01 1.00000E-45
8.47329E-01 1.00000E-45
8.50455E-01 1.00000E-45
8.53553E-01 1.00000E-45
8.56625E-01 1.00000E-45
8.59670E-01 1.00000E-45
8.62687E-01 1.00000E-45
8.65677E-01 1.00000E-45
8.68639E-01 1.00000E-45
8.71572E-01 1.00000E-45
8.74478E-01 1.00000E-45
8.77355E-01 1.00000E-45
8.80203E-01 1.00000E-45
8.83022E-01 1.00000E-45
8.85812E-01 1.00000E-45
8.88573E-01 1.00000E-45
8.91304E-01 1.00000E-45
8.94005E-01 1.00000E-45
8.96677E-01 1.00000E-45
8.99318E-01 1.00000E-45
9.01928E-01 1.00000E-45
9.04508E-01 1.00000E-45
9.07058E-01 1.00000E-45
9.09576E-01 1.00000E-45
9.12063E-01 1.00000E-45
9.14519E-01 1.00000E-45
9.16943E-01 1.00000E-45
9.19335E-01 1.00000E-45
9.21696E-01 1.00000E-45
9.24024E-01 1.00000E-45
9.26320E-01 1.00000E-45
9.28584E-01 1.00000E-45
9.30815E-01 1.00000E-45
9.33013E-01 1.00000E-45
9.35178E-01 1.00000E-45
9.37310E-01 1.00000E-45
9.39409E-01 1.00000E-45
9.41474E-01 1.00000E-45
9.43505E-01 1.00000E-45
9.45503E-01 1.00000E-45
9.47467E-01 1.00000E-45
9.49397E-01 1.00000E-45
9.51293E-01 1.00000E-45
9.53154E-01 1.00000E-45
9.54981E-01 1.00000E-45
9.56773E-01 1.00000E-45
9.58530E-01 1.00000E-45
9.60252E-01 1.00000E-45
9.61940E-01 1.00000E-45
9.63592E-01 1.00000E-45
9.65209E-01 1.00000E-45
9.66790E-01 1.00000E-45
9.68336E-01 1.00000E-45
9.69846E-01 1.00000E-45
9.71321E-01 1.00000E-45
9.72759E-01 1.00000E-45
9.74162E-01 1.00000E-45
9.75528E-01 1.00000E-45
9.76858E-01 1.00000E-45
9.78152E-01 1.00000E-45
9.79410E-01 1.00000E-45
9.80631E-01 1.00000E-45
9.81815E-01 1.00000E-45
9.82963E-01 1.00000E-45
9.84074E-01 1.00000E-45
9.85148E-01 1.00000E-45
9.86185E-01 1.00000E-45
9.87185E-01 1.00000E-45
9.88148E-01 1.00000E-45
9.89074E-01 1.00000E-45
9.89962E-01 1.00000E-45
9.90814E-01 1.00000E-45
9.91627E-01 1.00000E-45
9.92404E-01 1.00000E-45
9.93143E-01 1.00000E-45
9.93844E-01 1.00000E-45
9.94508E-01 1.00000E-45
9.95134E-01 1.00000E-45
9.95722E-01 1.00000E-45
9.96273E-01 1.00000E-45
9.96786E-01 1.00000E-45
9.97261E-01 1.00000E-45
9.97698E-01 1.00000E-45
9.98097E-01 1.00000E-45
9.98459E-01 1.00000E-45
9.98782E-01 1.00000E-45
9.99067E-01 1.00000E-45
9.99315E-01 1.00000E-45
9.99524E-01 1.00000E-45
9.99695E-01 1.00000E-45
9.99829E-01 1.00000E-45
9.99924E-01 1.00000E-45
9.99981E-01 1.00000E-45
1.00000E+00 1.00000E-45
