 #
 # Subroutine ELSEPA. Elastic scattering of electrons and positrons
 #                    by neutral atoms and positive ions
 #
 # Projectile: electron
 # Kinetic energy = 1.50000E+08 eV = 5.51240E+06 a.u.
 #
 # WARNING: High-energy factorization with free-atom DF screening.
 #          Absorption, polarization and exchange corrections are
 #          switched off.
 #          Phase shifts are calculated for the bare nucleus.
 #          Scattering amplitudes are not evaluated.
 #
 # Element: Po,  Z =  84,  atomic weight = 2.08982E+02 g/mol
 #
 # Nuclear model: Fermi distribution
 #                Average radius = 6.34971E-13 cm
 #                Skin thickness = 5.46000E-14 cm
 #
 # Number of electrons = 84
 #
 # Total elastic cross section = 9.14270E-18 cm**2 = 3.26492E-01 a0**2
 # 1st transport cross section = 5.88857E-25 cm**2 = 2.10285E-08 a0**2
 # 2nd transport cross section = 1.75965E-24 cm**2 = 6.28382E-08 a0**2
 #
 #
 # Differential cross section:                       MU=(1-COS(THETA))/2
 #
 #  THETA        MU          DCS          DCS        Sherman      error
 #  (deg)                 (cm**2/sr)   (a0**2/sr)    function
 #----------------------------------------------------------------------
0.00000E+00 1.47254E-09
7.61557E-13 1.46564E-09
1.18994E-12 1.46178E-09
1.71346E-12 1.45710E-09
2.33225E-12 1.45160E-09
3.04617E-12 1.44529E-09
3.85530E-12 1.43820E-09
4.75964E-12 1.43034E-09
5.75917E-12 1.42174E-09
6.85391E-12 1.41241E-09
8.04379E-12 1.40238E-09
9.32893E-12 1.39169E-09
1.07092E-11 1.38028E-09
1.21847E-11 1.36823E-09
1.37554E-11 1.35569E-09
1.54213E-11 1.34270E-09
1.71823E-11 1.32897E-09
1.90386E-11 1.31477E-09
2.09900E-11 1.30025E-09
2.30367E-11 1.28538E-09
2.51785E-11 1.26978E-09
2.74156E-11 1.25397E-09
2.97478E-11 1.23801E-09
3.21752E-11 1.22161E-09
3.46979E-11 1.20478E-09
3.73157E-11 1.18791E-09
4.00286E-11 1.17103E-09
4.28368E-11 1.15356E-09
4.57402E-11 1.13603E-09
4.87388E-11 1.11859E-09
5.18325E-11 1.10112E-09
5.50215E-11 1.08317E-09
5.83057E-11 1.06540E-09
6.16850E-11 1.04783E-09
6.51595E-11 1.03005E-09
6.87293E-11 1.01216E-09
7.23943E-11 9.94538E-10
7.61544E-11 9.77197E-10
1.18991E-10 8.08380E-10
1.71347E-10 6.60525E-10
2.33223E-10 5.37602E-10
3.04617E-10 4.38363E-10
3.85531E-10 3.59358E-10
4.75965E-10 2.96896E-10
5.75917E-10 2.47397E-10
6.85389E-10 2.07898E-10
8.04380E-10 1.76093E-10
9.32891E-10 1.50274E-10
1.07092E-09 1.28480E-10
1.21847E-09 1.10335E-10
1.37554E-09 9.59576E-11
1.54213E-09 8.44194E-11
1.71823E-09 7.37618E-11
1.90386E-09 6.47537E-11
2.09900E-09 5.73644E-11
2.30367E-09 5.11376E-11
2.51785E-09 4.52760E-11
2.74156E-09 4.03782E-11
2.97478E-09 3.62536E-11
3.21752E-09 3.25702E-11
3.46978E-09 2.92532E-11
3.73156E-09 2.64189E-11
4.00286E-09 2.39824E-11
4.28368E-09 2.17258E-11
4.57402E-09 1.97441E-11
4.87388E-09 1.80202E-11
5.18326E-09 1.64948E-11
5.50215E-09 1.50822E-11
5.83057E-09 1.38404E-11
6.16850E-09 1.27445E-11
6.51596E-09 1.17434E-11
6.87293E-09 1.08309E-11
7.23942E-09 1.00186E-11
7.61544E-09 9.29316E-12
1.18991E-08 4.64977E-12
1.71347E-08 2.56791E-12
2.33223E-08 1.52115E-12
3.04617E-08 9.53838E-13
3.85531E-08 6.29117E-13
4.75965E-08 4.32847E-13
5.75917E-08 3.07905E-13
6.85389E-08 2.25259E-13
8.04380E-08 1.68730E-13
9.32891E-08 1.28906E-13
1.07092E-07 1.00104E-13
1.21847E-07 7.90394E-14
1.37554E-07 6.31730E-14
1.54213E-07 5.11352E-14
1.71823E-07 4.18538E-14
1.90386E-07 3.45630E-14
2.09900E-07 2.88031E-14
2.30367E-07 2.42019E-14
2.51785E-07 2.04752E-14
2.74156E-07 1.74393E-14
2.97478E-07 1.49481E-14
3.21752E-07 1.28832E-14
3.46978E-07 1.11613E-14
3.73156E-07 9.71869E-15
4.00286E-07 8.50107E-15
4.28368E-07 7.46705E-15
4.57402E-07 6.58621E-15
4.87388E-07 5.83160E-15
5.18325E-07 5.18126E-15
5.50215E-07 4.61955E-15
5.83057E-07 4.13223E-15
6.16850E-07 3.70706E-15
6.51596E-07 3.33548E-15
6.87293E-07 3.00953E-15
7.23942E-07 2.72229E-15
7.61543E-07 2.46863E-15
1.18991E-06 1.03988E-15
1.71347E-06 5.11101E-16
2.33223E-06 2.79496E-16
3.04617E-06 1.65356E-16
3.85531E-06 1.03946E-16
4.75964E-06 6.85701E-17
5.75916E-06 4.70433E-17
6.85388E-06 3.33411E-17
8.04378E-06 2.42854E-17
9.32888E-06 1.81070E-17
1.07092E-05 1.37750E-17
1.21846E-05 1.06650E-17
1.37553E-05 8.38540E-18
1.54212E-05 6.68381E-18
1.71822E-05 5.39288E-18
1.90385E-05 4.39639E-18
2.09899E-05 3.62468E-18
2.30365E-05 3.01453E-18
2.51783E-05 2.52671E-18
2.74153E-05 2.13308E-18
2.97475E-05 1.81291E-18
3.21749E-05 1.55061E-18
3.46974E-05 1.33422E-18
3.73152E-05 1.15448E-18
4.00281E-05 1.00414E-18
4.28362E-05 8.77559E-19
4.57395E-05 7.70304E-19
4.87380E-05 6.78909E-19
5.18317E-05 6.00634E-19
5.50205E-05 5.33293E-19
5.83045E-05 4.75121E-19
6.16838E-05 4.24675E-19
6.51582E-05 3.80763E-19
6.87277E-05 3.42398E-19
7.23925E-05 3.08755E-19
7.61524E-05 2.79327E-19
9.21439E-05 1.91164E-19
1.09658E-04 1.35222E-19
1.28695E-04 9.83537E-20
1.49255E-04 7.32509E-20
1.71338E-04 5.56829E-20
1.94942E-04 4.30892E-20
2.20070E-04 3.38701E-20
2.46720E-04 2.69955E-20
2.74892E-04 2.17844E-20
3.04586E-04 1.77755E-20
3.35803E-04 1.46507E-20
3.68542E-04 1.21855E-20
4.02802E-04 1.02194E-20
4.38585E-04 8.63587E-21
4.75889E-04 7.34861E-21
5.14715E-04 6.29354E-21
5.55063E-04 5.42194E-21
5.96931E-04 4.69682E-21
6.40321E-04 4.08949E-21
6.85233E-04 3.57767E-21
7.31665E-04 3.14386E-21
7.79618E-04 2.77415E-21
8.29092E-04 2.45749E-21
8.80086E-04 2.18496E-21
9.32601E-04 1.94937E-21
9.86636E-04 1.74486E-21
1.04219E-03 1.56660E-21
1.09927E-03 1.41066E-21
1.15786E-03 1.27375E-21
1.21797E-03 1.15317E-21
1.27961E-03 1.04650E-21
1.34276E-03 9.51934E-22
1.40743E-03 8.67854E-22
1.47362E-03 7.92887E-22
1.54133E-03 7.25871E-22
1.61056E-03 6.65810E-22
1.68131E-03 6.11852E-22
1.75357E-03 5.63266E-22
1.82735E-03 5.19417E-22
1.90265E-03 4.79762E-22
1.97947E-03 4.43825E-22
2.05780E-03 4.11195E-22
2.13765E-03 3.81511E-22
2.21902E-03 3.54458E-22
2.30190E-03 3.29760E-22
2.38630E-03 3.07175E-22
2.47222E-03 2.86488E-22
2.55965E-03 2.67510E-22
2.64859E-03 2.50074E-22
2.73905E-03 2.34032E-22
2.83103E-03 2.19250E-22
2.92452E-03 2.05613E-22
3.01952E-03 1.93015E-22
3.11604E-03 1.81361E-22
3.21407E-03 1.70569E-22
3.31362E-03 1.60562E-22
3.41468E-03 1.51272E-22
3.51725E-03 1.42640E-22
3.62133E-03 1.34608E-22
3.72692E-03 1.27129E-22
3.83403E-03 1.20156E-22
3.94265E-03 1.13650E-22
4.05278E-03 1.07573E-22
4.16442E-03 1.01891E-22
4.27757E-03 9.65741E-23
4.39223E-03 9.15946E-23
4.50840E-03 8.69270E-23
4.62608E-03 8.25481E-23
4.74527E-03 7.84367E-23
4.86597E-03 7.45734E-23
4.98817E-03 7.09406E-23
5.11188E-03 6.75219E-23
5.23711E-03 6.43023E-23
5.36383E-03 6.12682E-23
5.49207E-03 5.84068E-23
5.62181E-03 5.57066E-23
5.75306E-03 5.31568E-23
5.88581E-03 5.07475E-23
6.02007E-03 4.84695E-23
6.15583E-03 4.63143E-23
6.29310E-03 4.42742E-23
6.43187E-03 4.23418E-23
6.57214E-03 4.05105E-23
6.71392E-03 3.87739E-23
6.85720E-03 3.71264E-23
7.00198E-03 3.55625E-23
7.14827E-03 3.40772E-23
7.29605E-03 3.26659E-23
7.44534E-03 3.13242E-23
7.59612E-03 3.00480E-23
7.97965E-03 2.71203E-23
8.37255E-03 2.45269E-23
8.77480E-03 2.22236E-23
9.18641E-03 2.01727E-23
9.60736E-03 1.83421E-23
1.00376E-02 1.67043E-23
1.04773E-02 1.52360E-23
1.09262E-02 1.39168E-23
1.13844E-02 1.27293E-23
1.18520E-02 1.16582E-23
1.23288E-02 1.06905E-23
1.28150E-02 9.81462E-24
1.33104E-02 9.02061E-24
1.38150E-02 8.29967E-24
1.43290E-02 7.64410E-24
1.48521E-02 7.04713E-24
1.53845E-02 6.50277E-24
1.59262E-02 6.00574E-24
1.64770E-02 5.55135E-24
1.70371E-02 5.13545E-24
1.76063E-02 4.75434E-24
1.81848E-02 4.40472E-24
1.87724E-02 4.08366E-24
1.93692E-02 3.78852E-24
1.99751E-02 3.51695E-24
2.05901E-02 3.26682E-24
2.12143E-02 3.03625E-24
2.18476E-02 2.82352E-24
2.24900E-02 2.62708E-24
2.31415E-02 2.44555E-24
2.38021E-02 2.27767E-24
2.44717E-02 2.12229E-24
2.51504E-02 1.97839E-24
2.58382E-02 1.84502E-24
2.65349E-02 1.72134E-24
2.72407E-02 1.60656E-24
2.79555E-02 1.50000E-24
2.86793E-02 1.40099E-24
2.94120E-02 1.30895E-24
3.01537E-02 1.22336E-24
3.09043E-02 1.14371E-24
3.16639E-02 1.06956E-24
3.24324E-02 1.00049E-24
3.32098E-02 9.36126E-25
3.39961E-02 8.76127E-25
3.47912E-02 8.20168E-25
3.55952E-02 7.67959E-25
3.64081E-02 7.19229E-25
3.72297E-02 6.73730E-25
3.80602E-02 6.31232E-25
3.88995E-02 5.91524E-25
3.97476E-02 5.54411E-25
4.06044E-02 5.19714E-25
4.14700E-02 4.87264E-25
4.23443E-02 4.56909E-25
4.32273E-02 4.28505E-25
4.41190E-02 4.01919E-25
4.50194E-02 3.77031E-25
4.59284E-02 3.53725E-25
4.68461E-02 3.31897E-25
4.87074E-02 2.92287E-25
5.06030E-02 2.57500E-25
5.25328E-02 2.26925E-25
5.44967E-02 2.00038E-25
5.64946E-02 1.76379E-25
5.85262E-02 1.55552E-25
6.05914E-02 1.37210E-25
6.26901E-02 1.21051E-25
6.48222E-02 1.06811E-25
6.69873E-02 9.42584E-26
6.91854E-02 8.31921E-26
7.14163E-02 7.34345E-26
7.36799E-02 6.48299E-26
7.59760E-02 5.72418E-26
7.83043E-02 5.05499E-26
8.06647E-02 4.46485E-26
8.30571E-02 3.94445E-26
8.54812E-02 3.48558E-26
8.79369E-02 3.08101E-26
9.04240E-02 2.72436E-26
9.29422E-02 2.41000E-26
9.54915E-02 2.13294E-26
9.80716E-02 1.88880E-26
1.00682E-01 1.67371E-26
1.03323E-01 1.48422E-26
1.05995E-01 1.31731E-26
1.08696E-01 1.17032E-26
1.11427E-01 1.04086E-26
1.14188E-01 9.26852E-27
1.16978E-01 8.26450E-27
1.19797E-01 7.38023E-27
1.22645E-01 6.60130E-27
1.25522E-01 5.91500E-27
1.28428E-01 5.31010E-27
1.31361E-01 4.77671E-27
1.34323E-01 4.30610E-27
1.37313E-01 3.89059E-27
1.40330E-01 3.52340E-27
1.43375E-01 3.19857E-27
1.46447E-01 2.91086E-27
1.49545E-01 2.65567E-27
1.52671E-01 2.42894E-27
1.55823E-01 2.22712E-27
1.59001E-01 2.04712E-27
1.62205E-01 1.88619E-27
1.65435E-01 1.74196E-27
1.68690E-01 1.61235E-27
1.71970E-01 1.49553E-27
1.75276E-01 1.38992E-27
1.78606E-01 1.29414E-27
1.81961E-01 1.20699E-27
1.85340E-01 1.12741E-27
1.88743E-01 1.05451E-27
1.92169E-01 9.87506E-28
1.95619E-01 9.25705E-28
1.99092E-01 8.68522E-28
2.02589E-01 8.15448E-28
2.06107E-01 7.66044E-28
2.09649E-01 7.19928E-28
2.13212E-01 6.76773E-28
2.16797E-01 6.36297E-28
2.20404E-01 5.98254E-28
2.24032E-01 5.62434E-28
2.27680E-01 5.28654E-28
2.31350E-01 4.96757E-28
2.35040E-01 4.66604E-28
2.38751E-01 4.38077E-28
2.42481E-01 4.11070E-28
2.46231E-01 3.85492E-28
2.50000E-01 3.61261E-28
2.53788E-01 3.38304E-28
2.57595E-01 3.16558E-28
2.61421E-01 2.95962E-28
2.65264E-01 2.76464E-28
2.69126E-01 2.58014E-28
2.73005E-01 2.40566E-28
2.76901E-01 2.24079E-28
2.80814E-01 2.08510E-28
2.84744E-01 1.93823E-28
2.88691E-01 1.79980E-28
2.92653E-01 1.66946E-28
2.96632E-01 1.54688E-28
3.00625E-01 1.43171E-28
3.04634E-01 1.32365E-28
3.08658E-01 1.22237E-28
3.12697E-01 1.12758E-28
3.16749E-01 1.03897E-28
3.20816E-01 9.56250E-29
3.24896E-01 8.79139E-29
3.28990E-01 8.07356E-29
3.33097E-01 7.40631E-29
3.37216E-01 6.78699E-29
3.41348E-01 6.21302E-29
3.45492E-01 5.68191E-29
3.49647E-01 5.19123E-29
3.53814E-01 4.73861E-29
3.57992E-01 4.32180E-29
3.62181E-01 3.93858E-29
3.66381E-01 3.58686E-29
3.70590E-01 3.26458E-29
3.74810E-01 2.96981E-29
3.79039E-01 2.70066E-29
3.83277E-01 2.45537E-29
3.87524E-01 2.23222E-29
3.91780E-01 2.02958E-29
3.96044E-01 1.84593E-29
4.00316E-01 1.67980E-29
4.04596E-01 1.52980E-29
4.08882E-01 1.39464E-29
4.13176E-01 1.27308E-29
4.17476E-01 1.16398E-29
4.21783E-01 1.06624E-29
4.26095E-01 9.78852E-30
4.30413E-01 9.00872E-30
4.34737E-01 8.31415E-30
4.39065E-01 7.69661E-30
4.43398E-01 7.14849E-30
4.47736E-01 6.66273E-30
4.52077E-01 6.23285E-30
4.56422E-01 5.85284E-30
4.60770E-01 5.51720E-30
4.65122E-01 5.22089E-30
4.69476E-01 4.95932E-30
4.73832E-01 4.72827E-30
4.78190E-01 4.52395E-30
4.82550E-01 4.34289E-30
4.86912E-01 4.18199E-30
4.91274E-01 4.03845E-30
4.95637E-01 3.90975E-30
5.00000E-01 3.79365E-30
5.04363E-01 3.68817E-30
5.08726E-01 3.59154E-30
5.13088E-01 3.50223E-30
5.17450E-01 3.41887E-30
5.21810E-01 3.34028E-30
5.26168E-01 3.26546E-30
5.30524E-01 3.19353E-30
5.34878E-01 3.12375E-30
5.39230E-01 3.05552E-30
5.43578E-01 2.98831E-30
5.47923E-01 2.92171E-30
5.52264E-01 2.85540E-30
5.56602E-01 2.78911E-30
5.60935E-01 2.72266E-30
5.65263E-01 2.65591E-30
5.69587E-01 2.58879E-30
5.73905E-01 2.52125E-30
5.78217E-01 2.45329E-30
5.82524E-01 2.38495E-30
5.86824E-01 2.31627E-30
5.91118E-01 2.24733E-30
5.95404E-01 2.17821E-30
5.99684E-01 2.10903E-30
6.03956E-01 2.03990E-30
6.08220E-01 1.97093E-30
6.12476E-01 1.90224E-30
6.16723E-01 1.83397E-30
6.20961E-01 1.76623E-30
6.25190E-01 1.69915E-30
6.29410E-01 1.63284E-30
6.33619E-01 1.56741E-30
6.37819E-01 1.50298E-30
6.42008E-01 1.43965E-30
6.46186E-01 1.37750E-30
6.50353E-01 1.31662E-30
6.54508E-01 1.25710E-30
6.58652E-01 1.19899E-30
6.62784E-01 1.14237E-30
6.66903E-01 1.08728E-30
6.71010E-01 1.03378E-30
6.75104E-01 9.81889E-31
6.79184E-01 9.31651E-31
6.83251E-01 8.83085E-31
6.87303E-01 8.36206E-31
6.91342E-01 7.91023E-31
6.95366E-01 7.47539E-31
6.99375E-01 7.05750E-31
7.03368E-01 6.65648E-31
7.07347E-01 6.27218E-31
7.11309E-01 5.90442E-31
7.15256E-01 5.55296E-31
7.19186E-01 5.21754E-31
7.23099E-01 4.89786E-31
7.26995E-01 4.59357E-31
7.30874E-01 4.30432E-31
7.34736E-01 4.02971E-31
7.38579E-01 3.76935E-31
7.42405E-01 3.52280E-31
7.46212E-01 3.28964E-31
7.50000E-01 3.06940E-31
7.53769E-01 2.86163E-31
7.57519E-01 2.66588E-31
7.61249E-01 2.48167E-31
7.64960E-01 2.30854E-31
7.68650E-01 2.14602E-31
7.72320E-01 1.99364E-31
7.75968E-01 1.85096E-31
7.79596E-01 1.71750E-31
7.83203E-01 1.59284E-31
7.86788E-01 1.47653E-31
7.90351E-01 1.36814E-31
7.93893E-01 1.26726E-31
7.97411E-01 1.17347E-31
8.00908E-01 1.08640E-31
8.04381E-01 1.00564E-31
8.07831E-01 9.30840E-32
8.11257E-01 8.61636E-32
8.14660E-01 7.97687E-32
8.18039E-01 7.38664E-32
8.21394E-01 6.84252E-32
8.24724E-01 6.34148E-32
8.28030E-01 5.88065E-32
8.31310E-01 5.45727E-32
8.34565E-01 5.06875E-32
8.37795E-01 4.71258E-32
8.40999E-01 4.38642E-32
8.44177E-01 4.08805E-32
8.47329E-01 3.81536E-32
8.50455E-01 3.56636E-32
8.53553E-01 3.33918E-32
8.56625E-01 3.13207E-32
8.59670E-01 2.94338E-32
8.62687E-01 2.77156E-32
8.65677E-01 2.61517E-32
8.68639E-01 2.47287E-32
8.71572E-01 2.34339E-32
8.74478E-01 2.22556E-32
8.77355E-01 2.11830E-32
8.80203E-01 2.02061E-32
8.83022E-01 1.93154E-32
8.85812E-01 1.85025E-32
8.88573E-01 1.77595E-32
8.91304E-01 1.70789E-32
8.94005E-01 1.64542E-32
8.96677E-01 1.58793E-32
8.99318E-01 1.53484E-32
9.01928E-01 1.48567E-32
9.04508E-01 1.43994E-32
9.07058E-01 1.39723E-32
9.09576E-01 1.35716E-32
9.12063E-01 1.31940E-32
9.14519E-01 1.28364E-32
9.16943E-01 1.24960E-32
9.19335E-01 1.21704E-32
9.21696E-01 1.18574E-32
9.24024E-01 1.15552E-32
9.26320E-01 1.12620E-32
9.28584E-01 1.09763E-32
9.30815E-01 1.06969E-32
9.33013E-01 1.04227E-32
9.35178E-01 1.01528E-32
9.37310E-01 9.88637E-33
9.39409E-01 9.62276E-33
9.41474E-01 9.36142E-33
9.43505E-01 9.10196E-33
9.45503E-01 8.84402E-33
9.47467E-01 8.58736E-33
9.49397E-01 8.33182E-33
9.51293E-01 8.07729E-33
9.53154E-01 7.82373E-33
9.54981E-01 7.57115E-33
9.56773E-01 7.31959E-33
9.58530E-01 7.06915E-33
9.60252E-01 6.81995E-33
9.61940E-01 6.57214E-33
9.63592E-01 6.32590E-33
9.65209E-01 6.08141E-33
9.66790E-01 5.83889E-33
9.68336E-01 5.59854E-33
9.69846E-01 5.36060E-33
9.71321E-01 5.12530E-33
9.72759E-01 4.89287E-33
9.74162E-01 4.66354E-33
9.75528E-01 4.43757E-33
9.76858E-01 4.21517E-33
9.78152E-01 3.99657E-33
9.79410E-01 3.78201E-33
9.80631E-01 3.57171E-33
9.81815E-01 3.36587E-33
9.82963E-01 3.16470E-33
9.84074E-01 2.96840E-33
9.85148E-01 2.77717E-33
9.86185E-01 2.59118E-33
9.87185E-01 2.41061E-33
9.88148E-01 2.23563E-33
9.89074E-01 2.06639E-33
9.89962E-01 1.90304E-33
9.90814E-01 1.74572E-33
9.91627E-01 1.59457E-33
9.92404E-01 1.44970E-33
9.93143E-01 1.31124E-33
9.93844E-01 1.17929E-33
9.94508E-01 1.05395E-33
9.95134E-01 9.35318E-34
9.95722E-01 8.23476E-34
9.96273E-01 7.18504E-34
9.96786E-01 6.20477E-34
9.97261E-01 5.29458E-34
9.97698E-01 4.45511E-34
9.98097E-01 3.68690E-34
9.98459E-01 2.99041E-34
9.98782E-01 2.36611E-34
9.99067E-01 1.81437E-34
9.99315E-01 1.33554E-34
9.99524E-01 9.29897E-35
9.99695E-01 5.97678E-35
9.99829E-01 3.39089E-35
9.99924E-01 1.54274E-35
9.99981E-01 4.33424E-36
1.00000E+00 6.36191E-37
