 #
 # Subroutine ELSEPA. Elastic scattering of electrons and positrons
 #                    by neutral atoms and positive ions
 #
 # Projectile: electron
 # Kinetic energy = 7.00000E+07 eV = 2.57245E+06 a.u.
 #
 # WARNING: High-energy factorization with free-atom DF screening.
 #          Absorption, polarization and exchange corrections are
 #          switched off.
 #          Phase shifts are calculated for the bare nucleus.
 #          Scattering amplitudes are not evaluated.
 #
 # Element: Po,  Z =  84,  atomic weight = 2.08982E+02 g/mol
 #
 # Nuclear model: Fermi distribution
 #                Average radius = 6.34971E-13 cm
 #                Skin thickness = 5.46000E-14 cm
 #
 # Number of electrons = 84
 #
 # Total elastic cross section = 9.14565E-18 cm**2 = 3.26597E-01 a0**2
 # 1st transport cross section = 2.70237E-24 cm**2 = 9.65035E-08 a0**2
 # 2nd transport cross section = 7.98909E-24 cm**2 = 2.85296E-07 a0**2
 #
 #
 # Differential cross section:                       MU=(1-COS(THETA))/2
 #
 #  THETA        MU          DCS          DCS        Sherman      error
 #  (deg)                 (cm**2/sr)   (a0**2/sr)    function
 #----------------------------------------------------------------------
0.00000E+00 3.23180E-10
7.61557E-13 3.22845E-10
1.18994E-12 3.22658E-10
1.71346E-12 3.22429E-10
2.33225E-12 3.22160E-10
3.04617E-12 3.21849E-10
3.85530E-12 3.21498E-10
4.75964E-12 3.21106E-10
5.75917E-12 3.20674E-10
6.85391E-12 3.20202E-10
8.04379E-12 3.19690E-10
9.32893E-12 3.19139E-10
1.07092E-11 3.18549E-10
1.21847E-11 3.17920E-10
1.37554E-11 3.17253E-10
1.54213E-11 3.16548E-10
1.71823E-11 3.15806E-10
1.90386E-11 3.15026E-10
2.09900E-11 3.14210E-10
2.30367E-11 3.13358E-10
2.51785E-11 3.12470E-10
2.74156E-11 3.11547E-10
2.97478E-11 3.10590E-10
3.21752E-11 3.09598E-10
3.46979E-11 3.08574E-10
3.73157E-11 3.07516E-10
4.00286E-11 3.06426E-10
4.28368E-11 3.05305E-10
4.57402E-11 3.04152E-10
4.87388E-11 3.02956E-10
5.18325E-11 3.01731E-10
5.50215E-11 3.00481E-10
5.83057E-11 2.99208E-10
6.16850E-11 2.97913E-10
6.51595E-11 2.96595E-10
6.87293E-11 2.95257E-10
7.23943E-11 2.93895E-10
7.61544E-11 2.92473E-10
1.18991E-10 2.77217E-10
1.71347E-10 2.60313E-10
2.33223E-10 2.42482E-10
3.04617E-10 2.24186E-10
3.85531E-10 2.06122E-10
4.75965E-10 1.88701E-10
5.75917E-10 1.72136E-10
6.85389E-10 1.56618E-10
8.04380E-10 1.42319E-10
9.32891E-10 1.29258E-10
1.07092E-09 1.17330E-10
1.21847E-09 1.06572E-10
1.37554E-09 9.69045E-11
1.54213E-09 8.82137E-11
1.71823E-09 8.04102E-11
1.90386E-09 7.34304E-11
2.09900E-09 6.71849E-11
2.30367E-09 6.15660E-11
2.51785E-09 5.65292E-11
2.74156E-09 5.20081E-11
2.97478E-09 4.79342E-11
3.21752E-09 4.42546E-11
3.46978E-09 4.09332E-11
3.73156E-09 3.79281E-11
4.00286E-09 3.51926E-11
4.28368E-09 3.27068E-11
4.57402E-09 3.04435E-11
4.87388E-09 2.82391E-11
5.18326E-09 2.62503E-11
5.50215E-09 2.44727E-11
5.83057E-09 2.28793E-11
6.16850E-09 2.14469E-11
6.51596E-09 2.01556E-11
6.87293E-09 1.89885E-11
7.23942E-09 1.79140E-11
7.61544E-09 1.67764E-11
1.18991E-08 9.45897E-12
1.71347E-08 5.73682E-12
2.33223E-08 3.68949E-12
3.04617E-08 2.47897E-12
3.85531E-08 1.73509E-12
4.75965E-08 1.25369E-12
5.75917E-08 9.27410E-13
6.85389E-08 6.99169E-13
8.04380E-08 5.36322E-13
9.32891E-08 4.17693E-13
1.07092E-07 3.29470E-13
1.21847E-07 2.63250E-13
1.37554E-07 2.12719E-13
1.54213E-07 1.73867E-13
1.71823E-07 1.43613E-13
1.90386E-07 1.19766E-13
2.09900E-07 1.00727E-13
2.30367E-07 8.53288E-14
2.51785E-07 7.27880E-14
2.74156E-07 6.24925E-14
2.97478E-07 5.39704E-14
3.21752E-07 4.68635E-14
3.46978E-07 4.08996E-14
3.73156E-07 3.58606E-14
4.00286E-07 3.15707E-14
4.28368E-07 2.79046E-14
4.57402E-07 2.47572E-14
4.87388E-07 2.20257E-14
5.18325E-07 1.96729E-14
5.50215E-07 1.76404E-14
5.83057E-07 1.58502E-14
6.16850E-07 1.42835E-14
6.51596E-07 1.29140E-14
6.87293E-07 1.16989E-14
7.23942E-07 1.06227E-14
7.61543E-07 9.67243E-15
1.18991E-06 4.19813E-15
1.71347E-06 2.10305E-15
2.33223E-06 1.16579E-15
3.04617E-06 6.97270E-16
3.85531E-06 4.42419E-16
4.75964E-06 2.94184E-16
5.75916E-06 2.03187E-16
6.85388E-06 1.44810E-16
8.04378E-06 1.05961E-16
9.32888E-06 7.92984E-17
1.07092E-05 6.05092E-17
1.21846E-05 4.69645E-17
1.37553E-05 3.70031E-17
1.54212E-05 2.95466E-17
1.71822E-05 2.38763E-17
1.90385E-05 1.94905E-17
2.09899E-05 1.60886E-17
2.30365E-05 1.33950E-17
2.51783E-05 1.12388E-17
2.74153E-05 9.49676E-18
2.97475E-05 8.07840E-18
3.21749E-05 6.91532E-18
3.46974E-05 5.95499E-18
3.73152E-05 5.15661E-18
4.00281E-05 4.48832E-18
4.28362E-05 3.92520E-18
4.57395E-05 3.44772E-18
4.87380E-05 3.04055E-18
5.18317E-05 2.69160E-18
5.50205E-05 2.39121E-18
5.83045E-05 2.13155E-18
6.16838E-05 1.90624E-18
6.51582E-05 1.71000E-18
6.87277E-05 1.53846E-18
7.23925E-05 1.38794E-18
7.61524E-05 1.25490E-18
9.21439E-05 8.59853E-19
1.09658E-04 6.08777E-19
1.28695E-04 4.43083E-19
1.49255E-04 3.30140E-19
1.71338E-04 2.51026E-19
1.94942E-04 1.94272E-19
2.20070E-04 1.52703E-19
2.46720E-04 1.21693E-19
2.74892E-04 9.81807E-20
3.04586E-04 8.00892E-20
3.35803E-04 6.59867E-20
3.68542E-04 5.48611E-20
4.02802E-04 4.59891E-20
4.38585E-04 3.88442E-20
4.75889E-04 3.30375E-20
5.14715E-04 2.82794E-20
5.55063E-04 2.43500E-20
5.96931E-04 2.10821E-20
6.40321E-04 1.83462E-20
6.85233E-04 1.60414E-20
7.31665E-04 1.40889E-20
7.79618E-04 1.24256E-20
8.29092E-04 1.10018E-20
8.80086E-04 9.77697E-21
9.32601E-04 8.71872E-21
9.86636E-04 7.80054E-21
1.04219E-03 7.00065E-21
1.09927E-03 6.30127E-21
1.15786E-03 5.68752E-21
1.21797E-03 5.14712E-21
1.27961E-03 4.66977E-21
1.34276E-03 4.24681E-21
1.40743E-03 3.87098E-21
1.47362E-03 3.53606E-21
1.54133E-03 3.23683E-21
1.61056E-03 2.96881E-21
1.68131E-03 2.72814E-21
1.75357E-03 2.51155E-21
1.82735E-03 2.31618E-21
1.90265E-03 2.13959E-21
1.97947E-03 1.97963E-21
2.05780E-03 1.83446E-21
2.13765E-03 1.70246E-21
2.21902E-03 1.58221E-21
2.30190E-03 1.47248E-21
2.38630E-03 1.37218E-21
2.47222E-03 1.28035E-21
2.55965E-03 1.19613E-21
2.64859E-03 1.11879E-21
2.73905E-03 1.04765E-21
2.83103E-03 9.82127E-22
2.92452E-03 9.21691E-22
3.01952E-03 8.65876E-22
3.11604E-03 8.14258E-22
3.21407E-03 7.66467E-22
3.31362E-03 7.22161E-22
3.41468E-03 6.81041E-22
3.51725E-03 6.42833E-22
3.62133E-03 6.07293E-22
3.72692E-03 5.74197E-22
3.83403E-03 5.43347E-22
3.94265E-03 5.14560E-22
4.05278E-03 4.87673E-22
4.16442E-03 4.62535E-22
4.27757E-03 4.39012E-22
4.39223E-03 4.16979E-22
4.50840E-03 3.96325E-22
4.62608E-03 3.76946E-22
4.74527E-03 3.58748E-22
4.86597E-03 3.41646E-22
4.98817E-03 3.25562E-22
5.11188E-03 3.10422E-22
5.23711E-03 2.96162E-22
5.36383E-03 2.82722E-22
5.49207E-03 2.70045E-22
5.62181E-03 2.58067E-22
5.75306E-03 2.46749E-22
5.88581E-03 2.36050E-22
6.02007E-03 2.25929E-22
6.15583E-03 2.16349E-22
6.29310E-03 2.07276E-22
6.43187E-03 1.98677E-22
6.57214E-03 1.90523E-22
6.71392E-03 1.82786E-22
6.85720E-03 1.75441E-22
7.00198E-03 1.68464E-22
7.14827E-03 1.61832E-22
7.29605E-03 1.55526E-22
7.44534E-03 1.49526E-22
7.59612E-03 1.43815E-22
7.97965E-03 1.30692E-22
8.37255E-03 1.19039E-22
8.77480E-03 1.08663E-22
9.18641E-03 9.93977E-23
9.60736E-03 9.11024E-23
1.00376E-02 8.36570E-23
1.04773E-02 7.69583E-23
1.09262E-02 7.09177E-23
1.13844E-02 6.54585E-23
1.18520E-02 6.05143E-23
1.23288E-02 5.60277E-23
1.28150E-02 5.19483E-23
1.33104E-02 4.82323E-23
1.38150E-02 4.48413E-23
1.43290E-02 4.17416E-23
1.48521E-02 3.89035E-23
1.53845E-02 3.63008E-23
1.59262E-02 3.39103E-23
1.64770E-02 3.17115E-23
1.70371E-02 2.96862E-23
1.76063E-02 2.78181E-23
1.81848E-02 2.60927E-23
1.87724E-02 2.44972E-23
1.93692E-02 2.30199E-23
1.99751E-02 2.16503E-23
2.05901E-02 2.03794E-23
2.12143E-02 1.91985E-23
2.18476E-02 1.81001E-23
2.24900E-02 1.70775E-23
2.31415E-02 1.61243E-23
2.38021E-02 1.52352E-23
2.44717E-02 1.44048E-23
2.51504E-02 1.36287E-23
2.58382E-02 1.29027E-23
2.65349E-02 1.22229E-23
2.72407E-02 1.15859E-23
2.79555E-02 1.09885E-23
2.86793E-02 1.04277E-23
2.94120E-02 9.90099E-24
3.01537E-02 9.40586E-24
3.09043E-02 8.94008E-24
3.16639E-02 8.50162E-24
3.24324E-02 8.08858E-24
3.32098E-02 7.69924E-24
3.39961E-02 7.33199E-24
3.47912E-02 6.98536E-24
3.55952E-02 6.65800E-24
3.64081E-02 6.34864E-24
3.72297E-02 6.05613E-24
3.80602E-02 5.77939E-24
3.88995E-02 5.51742E-24
3.97476E-02 5.26932E-24
4.06044E-02 5.03420E-24
4.14700E-02 4.81130E-24
4.23443E-02 4.59985E-24
4.32273E-02 4.39918E-24
4.41190E-02 4.20865E-24
4.50194E-02 4.02766E-24
4.59284E-02 3.85566E-24
4.68461E-02 3.69212E-24
4.87074E-02 3.38854E-24
5.06030E-02 3.11343E-24
5.25328E-02 2.86371E-24
5.44967E-02 2.63671E-24
5.64946E-02 2.43005E-24
5.85262E-02 2.24166E-24
6.05914E-02 2.06968E-24
6.26901E-02 1.91251E-24
6.48222E-02 1.76868E-24
6.69873E-02 1.63691E-24
6.91854E-02 1.51606E-24
7.14163E-02 1.40510E-24
7.36799E-02 1.30313E-24
7.59760E-02 1.20932E-24
7.83043E-02 1.12294E-24
8.06647E-02 1.04333E-24
8.30571E-02 9.69902E-25
8.54812E-02 9.02115E-25
8.79369E-02 8.39487E-25
9.04240E-02 7.81583E-25
9.29422E-02 7.28008E-25
9.54915E-02 6.78403E-25
9.80716E-02 6.32444E-25
1.00682E-01 5.89836E-25
1.03323E-01 5.50309E-25
1.05995E-01 5.13621E-25
1.08696E-01 4.79546E-25
1.11427E-01 4.47883E-25
1.14188E-01 4.18445E-25
1.16978E-01 3.91063E-25
1.19797E-01 3.65579E-25
1.22645E-01 3.41853E-25
1.25522E-01 3.19752E-25
1.28428E-01 2.99158E-25
1.31361E-01 2.79958E-25
1.34323E-01 2.62053E-25
1.37313E-01 2.45347E-25
1.40330E-01 2.29757E-25
1.43375E-01 2.15201E-25
1.46447E-01 2.01607E-25
1.49545E-01 1.88908E-25
1.52671E-01 1.77040E-25
1.55823E-01 1.65946E-25
1.59001E-01 1.55574E-25
1.62205E-01 1.45872E-25
1.65435E-01 1.36797E-25
1.68690E-01 1.28304E-25
1.71970E-01 1.20356E-25
1.75276E-01 1.12915E-25
1.78606E-01 1.05948E-25
1.81961E-01 9.94223E-26
1.85340E-01 9.33100E-26
1.88743E-01 8.75834E-26
1.92169E-01 8.22173E-26
1.95619E-01 7.71881E-26
1.99092E-01 7.24741E-26
2.02589E-01 6.80546E-26
2.06107E-01 6.39109E-26
2.09649E-01 6.00251E-26
2.13212E-01 5.63807E-26
2.16797E-01 5.29624E-26
2.20404E-01 4.97556E-26
2.24032E-01 4.67471E-26
2.27680E-01 4.39243E-26
2.31350E-01 4.12755E-26
2.35040E-01 3.87896E-26
2.38751E-01 3.64566E-26
2.42481E-01 3.42668E-26
2.46231E-01 3.22113E-26
2.50000E-01 3.02817E-26
2.53788E-01 2.84702E-26
2.57595E-01 2.67694E-26
2.61421E-01 2.51726E-26
2.65264E-01 2.36732E-26
2.69126E-01 2.22652E-26
2.73005E-01 2.09431E-26
2.76901E-01 1.97015E-26
2.80814E-01 1.85354E-26
2.84744E-01 1.74403E-26
2.88691E-01 1.64118E-26
2.92653E-01 1.54458E-26
2.96632E-01 1.45384E-26
3.00625E-01 1.36861E-26
3.04634E-01 1.28855E-26
3.08658E-01 1.21335E-26
3.12697E-01 1.14271E-26
3.16749E-01 1.07635E-26
3.20816E-01 1.01401E-26
3.24896E-01 9.55440E-27
3.28990E-01 9.00417E-27
3.33097E-01 8.48722E-27
3.37216E-01 8.00153E-27
3.41348E-01 7.54519E-27
3.45492E-01 7.11641E-27
3.49647E-01 6.71352E-27
3.53814E-01 6.33493E-27
3.57992E-01 5.97917E-27
3.62181E-01 5.64484E-27
3.66381E-01 5.33064E-27
3.70590E-01 5.03534E-27
3.74810E-01 4.75779E-27
3.79039E-01 4.49691E-27
3.83277E-01 4.25167E-27
3.87524E-01 4.02112E-27
3.91780E-01 3.80437E-27
3.96044E-01 3.60057E-27
4.00316E-01 3.40894E-27
4.04596E-01 3.22872E-27
4.08882E-01 3.05921E-27
4.13176E-01 2.89977E-27
4.17476E-01 2.74978E-27
4.21783E-01 2.60865E-27
4.26095E-01 2.47584E-27
4.30413E-01 2.35085E-27
4.34737E-01 2.23319E-27
4.39065E-01 2.12242E-27
4.43398E-01 2.01810E-27
4.47736E-01 1.91985E-27
4.52077E-01 1.82729E-27
4.56422E-01 1.74007E-27
4.60770E-01 1.65787E-27
4.65122E-01 1.58037E-27
4.69476E-01 1.50729E-27
4.73832E-01 1.43835E-27
4.78190E-01 1.37329E-27
4.82550E-01 1.31189E-27
4.86912E-01 1.25392E-27
4.91274E-01 1.19916E-27
4.95637E-01 1.14742E-27
5.00000E-01 1.09851E-27
5.04363E-01 1.05226E-27
5.08726E-01 1.00851E-27
5.13088E-01 9.67102E-28
5.17450E-01 9.27893E-28
5.21810E-01 8.90750E-28
5.26168E-01 8.55547E-28
5.30524E-01 8.22166E-28
5.34878E-01 7.90496E-28
5.39230E-01 7.60434E-28
5.43578E-01 7.31882E-28
5.47923E-01 7.04750E-28
5.52264E-01 6.78952E-28
5.56602E-01 6.54408E-28
5.60935E-01 6.31043E-28
5.65263E-01 6.08787E-28
5.69587E-01 5.87575E-28
5.73905E-01 5.67345E-28
5.78217E-01 5.48039E-28
5.82524E-01 5.29603E-28
5.86824E-01 5.11987E-28
5.91118E-01 4.95144E-28
5.95404E-01 4.79029E-28
5.99684E-01 4.63600E-28
6.03956E-01 4.48819E-28
6.08220E-01 4.34650E-28
6.12476E-01 4.21058E-28
6.16723E-01 4.08011E-28
6.20961E-01 3.95480E-28
6.25190E-01 3.83437E-28
6.29410E-01 3.71855E-28
6.33619E-01 3.60710E-28
6.37819E-01 3.49980E-28
6.42008E-01 3.39641E-28
6.46186E-01 3.29676E-28
6.50353E-01 3.20063E-28
6.54508E-01 3.10787E-28
6.58652E-01 3.01830E-28
6.62784E-01 2.93176E-28
6.66903E-01 2.84812E-28
6.71010E-01 2.76723E-28
6.75104E-01 2.68897E-28
6.79184E-01 2.61321E-28
6.83251E-01 2.53985E-28
6.87303E-01 2.46877E-28
6.91342E-01 2.39989E-28
6.95366E-01 2.33309E-28
6.99375E-01 2.26830E-28
7.03368E-01 2.20544E-28
7.07347E-01 2.14442E-28
7.11309E-01 2.08517E-28
7.15256E-01 2.02762E-28
7.19186E-01 1.97171E-28
7.23099E-01 1.91737E-28
7.26995E-01 1.86455E-28
7.30874E-01 1.81319E-28
7.34736E-01 1.76324E-28
7.38579E-01 1.71465E-28
7.42405E-01 1.66738E-28
7.46212E-01 1.62137E-28
7.50000E-01 1.57659E-28
7.53769E-01 1.53300E-28
7.57519E-01 1.49056E-28
7.61249E-01 1.44923E-28
7.64960E-01 1.40898E-28
7.68650E-01 1.36977E-28
7.72320E-01 1.33158E-28
7.75968E-01 1.29437E-28
7.79596E-01 1.25812E-28
7.83203E-01 1.22280E-28
7.86788E-01 1.18838E-28
7.90351E-01 1.15484E-28
7.93893E-01 1.12215E-28
7.97411E-01 1.09029E-28
8.00908E-01 1.05924E-28
8.04381E-01 1.02897E-28
8.07831E-01 9.99468E-29
8.11257E-01 9.70711E-29
8.14660E-01 9.42679E-29
8.18039E-01 9.15355E-29
8.21394E-01 8.88720E-29
8.24724E-01 8.62756E-29
8.28030E-01 8.37446E-29
8.31310E-01 8.12775E-29
8.34565E-01 7.88726E-29
8.37795E-01 7.65284E-29
8.40999E-01 7.42434E-29
8.44177E-01 7.20162E-29
8.47329E-01 6.98453E-29
8.50455E-01 6.77293E-29
8.53553E-01 6.56670E-29
8.56625E-01 6.36570E-29
8.59670E-01 6.16981E-29
8.62687E-01 5.97890E-29
8.65677E-01 5.79285E-29
8.68639E-01 5.61155E-29
8.71572E-01 5.43488E-29
8.74478E-01 5.26274E-29
8.77355E-01 5.09501E-29
8.80203E-01 4.93158E-29
8.83022E-01 4.77237E-29
8.85812E-01 4.61726E-29
8.88573E-01 4.46615E-29
8.91304E-01 4.31896E-29
8.94005E-01 4.17559E-29
8.96677E-01 4.03595E-29
8.99318E-01 3.89995E-29
9.01928E-01 3.76751E-29
9.04508E-01 3.63853E-29
9.07058E-01 3.51295E-29
9.09576E-01 3.39067E-29
9.12063E-01 3.27162E-29
9.14519E-01 3.15573E-29
9.16943E-01 3.04292E-29
9.19335E-01 2.93312E-29
9.21696E-01 2.82625E-29
9.24024E-01 2.72226E-29
9.26320E-01 2.62107E-29
9.28584E-01 2.52262E-29
9.30815E-01 2.42684E-29
9.33013E-01 2.33368E-29
9.35178E-01 2.24307E-29
9.37310E-01 2.15495E-29
9.39409E-01 2.06928E-29
9.41474E-01 1.98598E-29
9.43505E-01 1.90502E-29
9.45503E-01 1.82634E-29
9.47467E-01 1.74988E-29
9.49397E-01 1.67560E-29
9.51293E-01 1.60345E-29
9.53154E-01 1.53339E-29
9.54981E-01 1.46536E-29
9.56773E-01 1.39933E-29
9.58530E-01 1.33526E-29
9.60252E-01 1.27309E-29
9.61940E-01 1.21280E-29
9.63592E-01 1.15434E-29
9.65209E-01 1.09768E-29
9.66790E-01 1.04278E-29
9.68336E-01 9.89606E-30
9.69846E-01 9.38122E-30
9.71321E-01 8.88299E-30
9.72759E-01 8.40103E-30
9.74162E-01 7.93505E-30
9.75528E-01 7.48475E-30
9.76858E-01 7.04985E-30
9.78152E-01 6.63008E-30
9.79410E-01 6.22517E-30
9.80631E-01 5.83487E-30
9.81815E-01 5.45894E-30
9.82963E-01 5.09715E-30
9.84074E-01 4.74927E-30
9.85148E-01 4.41509E-30
9.86185E-01 4.09439E-30
9.87185E-01 3.78699E-30
9.88148E-01 3.49269E-30
9.89074E-01 3.21132E-30
9.89962E-01 2.94270E-30
9.90814E-01 2.68667E-30
9.91627E-01 2.44308E-30
9.92404E-01 2.21177E-30
9.93143E-01 1.99260E-30
9.93844E-01 1.78545E-30
9.94508E-01 1.59019E-30
9.95134E-01 1.40670E-30
9.95722E-01 1.23487E-30
9.96273E-01 1.07460E-30
9.96786E-01 9.25793E-31
9.97261E-01 7.88361E-31
9.97698E-01 6.62220E-31
9.98097E-01 5.47297E-31
9.98459E-01 4.43524E-31
9.98782E-01 3.50838E-31
9.99067E-01 2.69184E-31
9.99315E-01 1.98515E-31
9.99524E-01 1.38789E-31
9.99695E-01 8.99696E-32
9.99829E-01 5.20289E-32
9.99924E-01 2.49445E-32
9.99981E-01 8.70015E-33
1.00000E+00 3.28639E-33
