 #
 # Subroutine ELSEPA. Elastic scattering of electrons and positrons
 #                    by neutral atoms and positive ions
 #
 # Projectile: electron
 # Kinetic energy = 4.50000E+06 eV = 1.65372E+05 a.u.
 #
 # WARNING: High-energy factorization with free-atom DF screening.
 #          Absorption, polarization and exchange corrections are
 #          switched off.
 #          Phase shifts are calculated for the bare nucleus.
 #          Scattering amplitudes are not evaluated.
 #
 # Element: Po,  Z =  84,  atomic weight = 2.08982E+02 g/mol
 #
 # Nuclear model: Fermi distribution
 #                Average radius = 6.34971E-13 cm
 #                Skin thickness = 5.46000E-14 cm
 #
 # Number of electrons = 84
 #
 # Total elastic cross section = 9.24925E-18 cm**2 = 3.30297E-01 a0**2
 # 1st transport cross section = 4.73973E-22 cm**2 = 1.69259E-05 a0**2
 # 2nd transport cross section = 1.25952E-21 cm**2 = 4.49782E-05 a0**2
 #
 #
 # Differential cross section:                       MU=(1-COS(THETA))/2
 #
 #  THETA        MU          DCS          DCS        Sherman      error
 #  (deg)                 (cm**2/sr)   (a0**2/sr)    function
 #----------------------------------------------------------------------
0.00000E+00 1.63222E-12
7.61557E-13 1.63221E-12
1.18994E-12 1.63221E-12
1.71346E-12 1.63220E-12
2.33225E-12 1.63220E-12
3.04617E-12 1.63219E-12
3.85530E-12 1.63218E-12
4.75964E-12 1.63217E-12
5.75917E-12 1.63216E-12
6.85391E-12 1.63215E-12
8.04379E-12 1.63213E-12
9.32893E-12 1.63212E-12
1.07092E-11 1.63210E-12
1.21847E-11 1.63209E-12
1.37554E-11 1.63207E-12
1.54213E-11 1.63205E-12
1.71823E-11 1.63203E-12
1.90386E-11 1.63201E-12
2.09900E-11 1.63199E-12
2.30367E-11 1.63197E-12
2.51785E-11 1.63194E-12
2.74156E-11 1.63192E-12
2.97478E-11 1.63189E-12
3.21752E-11 1.63187E-12
3.46979E-11 1.63184E-12
3.73157E-11 1.63181E-12
4.00286E-11 1.63178E-12
4.28368E-11 1.63175E-12
4.57402E-11 1.63172E-12
4.87388E-11 1.63169E-12
5.18325E-11 1.63165E-12
5.50215E-11 1.63162E-12
5.83057E-11 1.63158E-12
6.16850E-11 1.63154E-12
6.51595E-11 1.63150E-12
6.87293E-11 1.63147E-12
7.23943E-11 1.63143E-12
7.61544E-11 1.63138E-12
1.18991E-10 1.63091E-12
1.71347E-10 1.63034E-12
2.33223E-10 1.62966E-12
3.04617E-10 1.62887E-12
3.85531E-10 1.62798E-12
4.75965E-10 1.62699E-12
5.75917E-10 1.62590E-12
6.85389E-10 1.62470E-12
8.04380E-10 1.62340E-12
9.32891E-10 1.62200E-12
1.07092E-09 1.62049E-12
1.21847E-09 1.61889E-12
1.37554E-09 1.61718E-12
1.54213E-09 1.61538E-12
1.71823E-09 1.61347E-12
1.90386E-09 1.61147E-12
2.09900E-09 1.60936E-12
2.30367E-09 1.60716E-12
2.51785E-09 1.60486E-12
2.74156E-09 1.60247E-12
2.97478E-09 1.59998E-12
3.21752E-09 1.59739E-12
3.46978E-09 1.59471E-12
3.73156E-09 1.59194E-12
4.00286E-09 1.58907E-12
4.28368E-09 1.58611E-12
4.57402E-09 1.58307E-12
4.87388E-09 1.57993E-12
5.18326E-09 1.57670E-12
5.50215E-09 1.57338E-12
5.83057E-09 1.56998E-12
6.16850E-09 1.56649E-12
6.51596E-09 1.56292E-12
6.87293E-09 1.55926E-12
7.23942E-09 1.55552E-12
7.61544E-09 1.55170E-12
1.18991E-08 1.50901E-12
1.71347E-08 1.45954E-12
2.33223E-08 1.40444E-12
3.04617E-08 1.34503E-12
3.85531E-08 1.28260E-12
4.75965E-08 1.21834E-12
5.75917E-08 1.15334E-12
6.85389E-08 1.08829E-12
8.04380E-08 1.02428E-12
9.32891E-08 9.61985E-13
1.07092E-07 9.01911E-13
1.21847E-07 8.44436E-13
1.37554E-07 7.89815E-13
1.54213E-07 7.38200E-13
1.71823E-07 6.89655E-13
1.90386E-07 6.44178E-13
2.09900E-07 6.01713E-13
2.30367E-07 5.62147E-13
2.51785E-07 5.25289E-13
2.74156E-07 4.91106E-13
2.97478E-07 4.59441E-13
3.21752E-07 4.30131E-13
3.46978E-07 4.03012E-13
3.73156E-07 3.77927E-13
4.00286E-07 3.54721E-13
4.28368E-07 3.33247E-13
4.57402E-07 3.13369E-13
4.87388E-07 2.94955E-13
5.18325E-07 2.77880E-13
5.50215E-07 2.62015E-13
5.83057E-07 2.47288E-13
6.16850E-07 2.33604E-13
6.51596E-07 2.20876E-13
6.87293E-07 2.09026E-13
7.23942E-07 1.97980E-13
7.61543E-07 1.87673E-13
1.18991E-06 1.13035E-13
1.71347E-06 7.30219E-14
2.33223E-06 4.91747E-14
3.04617E-06 3.42534E-14
3.85531E-06 2.45798E-14
4.75964E-06 1.81166E-14
5.75916E-06 1.36725E-14
6.85388E-06 1.05206E-14
8.04378E-06 8.24048E-15
9.32888E-06 6.55097E-15
1.07092E-05 5.27328E-15
1.21846E-05 4.29032E-15
1.37553E-05 3.52323E-15
1.54212E-05 2.91745E-15
1.71822E-05 2.43427E-15
1.90385E-05 2.04423E-15
2.09899E-05 1.73073E-15
2.30365E-05 1.47496E-15
2.51783E-05 1.26233E-15
2.74153E-05 1.08659E-15
2.97475E-05 9.40670E-16
3.21749E-05 8.18859E-16
3.46974E-05 7.16565E-16
3.73152E-05 6.30098E-16
4.00281E-05 5.56517E-16
4.28362E-05 4.93498E-16
4.57395E-05 4.39214E-16
4.87380E-05 3.92222E-16
5.18317E-05 3.51370E-16
5.50205E-05 3.15718E-16
5.83045E-05 2.84523E-16
6.16838E-05 2.57135E-16
6.51582E-05 2.33006E-16
6.87277E-05 2.11673E-16
7.23925E-05 1.92744E-16
7.61524E-05 1.75888E-16
9.21439E-05 1.24394E-16
1.09658E-04 9.04419E-17
1.28695E-04 6.73656E-17
1.49255E-04 5.12208E-17
1.71338E-04 3.96495E-17
1.94942E-04 3.11754E-17
2.20070E-04 2.48514E-17
2.46720E-04 2.00529E-17
2.74892E-04 1.63582E-17
3.04586E-04 1.34756E-17
3.35803E-04 1.12003E-17
3.68542E-04 9.38505E-18
4.02802E-04 7.92223E-18
4.38585E-04 6.73392E-18
4.75889E-04 5.76054E-18
5.14715E-04 4.95720E-18
5.55063E-04 4.28945E-18
5.96931E-04 3.73077E-18
6.40321E-04 3.26042E-18
6.85233E-04 2.86216E-18
7.31665E-04 2.52311E-18
7.79618E-04 2.23297E-18
8.29092E-04 1.98350E-18
8.80086E-04 1.76798E-18
9.32601E-04 1.58105E-18
9.86636E-04 1.41827E-18
1.04219E-03 1.27596E-18
1.09927E-03 1.15112E-18
1.15786E-03 1.04121E-18
1.21797E-03 9.44140E-19
1.27961E-03 8.58150E-19
1.34276E-03 7.81747E-19
1.40743E-03 7.13679E-19
1.47362E-03 6.52868E-19
1.54133E-03 5.98404E-19
1.61056E-03 5.49513E-19
1.68131E-03 5.05522E-19
1.75357E-03 4.65856E-19
1.82735E-03 4.30011E-19
1.90265E-03 3.97555E-19
1.97947E-03 3.68109E-19
2.05780E-03 3.41346E-19
2.13765E-03 3.16976E-19
2.21902E-03 2.94748E-19
2.30190E-03 2.74438E-19
2.38630E-03 2.55852E-19
2.47222E-03 2.38816E-19
2.55965E-03 2.23180E-19
2.64859E-03 2.08807E-19
2.73905E-03 1.95576E-19
2.83103E-03 1.83381E-19
2.92452E-03 1.72125E-19
3.01952E-03 1.61723E-19
3.11604E-03 1.52098E-19
3.21407E-03 1.43182E-19
3.31362E-03 1.34913E-19
3.41468E-03 1.27234E-19
3.51725E-03 1.20097E-19
3.62133E-03 1.13456E-19
3.72692E-03 1.07271E-19
3.83403E-03 1.01503E-19
3.94265E-03 9.61208E-20
4.05278E-03 9.10925E-20
4.16442E-03 8.63909E-20
4.27757E-03 8.19907E-20
4.39223E-03 7.78691E-20
4.50840E-03 7.40049E-20
4.62608E-03 7.03791E-20
4.74527E-03 6.69744E-20
4.86597E-03 6.37747E-20
4.98817E-03 6.07653E-20
5.11188E-03 5.79328E-20
5.23711E-03 5.52648E-20
5.36383E-03 5.27499E-20
5.49207E-03 5.03778E-20
5.62181E-03 4.81387E-20
5.75306E-03 4.60237E-20
5.88581E-03 4.40247E-20
6.02007E-03 4.21341E-20
6.15583E-03 4.03449E-20
6.29310E-03 3.86506E-20
6.43187E-03 3.70453E-20
6.57214E-03 3.55233E-20
6.71392E-03 3.40795E-20
6.85720E-03 3.27091E-20
7.00198E-03 3.14077E-20
7.14827E-03 3.01711E-20
7.29605E-03 2.89955E-20
7.44534E-03 2.78772E-20
7.59612E-03 2.68130E-20
7.97965E-03 2.43689E-20
8.37255E-03 2.22004E-20
8.77480E-03 2.02707E-20
9.18641E-03 1.85489E-20
9.60736E-03 1.70085E-20
1.00376E-02 1.56270E-20
1.04773E-02 1.43850E-20
1.09262E-02 1.32658E-20
1.13844E-02 1.22551E-20
1.18520E-02 1.13404E-20
1.23288E-02 1.05110E-20
1.28150E-02 9.75732E-21
1.33104E-02 9.07124E-21
1.38150E-02 8.44557E-21
1.43290E-02 7.87396E-21
1.48521E-02 7.35087E-21
1.53845E-02 6.87141E-21
1.59262E-02 6.43126E-21
1.64770E-02 6.02658E-21
1.70371E-02 5.65396E-21
1.76063E-02 5.31038E-21
1.81848E-02 4.99315E-21
1.87724E-02 4.69984E-21
1.93692E-02 4.42832E-21
1.99751E-02 4.17664E-21
2.05901E-02 3.94308E-21
2.12143E-02 3.72607E-21
2.18476E-02 3.52421E-21
2.24900E-02 3.33624E-21
2.31415E-02 3.16102E-21
2.38021E-02 2.99751E-21
2.44717E-02 2.84477E-21
2.51504E-02 2.70195E-21
2.58382E-02 2.56828E-21
2.65349E-02 2.44306E-21
2.72407E-02 2.32564E-21
2.79555E-02 2.21544E-21
2.86793E-02 2.11192E-21
2.94120E-02 2.01461E-21
3.01537E-02 1.92305E-21
3.09043E-02 1.83683E-21
3.16639E-02 1.75558E-21
3.24324E-02 1.67895E-21
3.32098E-02 1.60663E-21
3.39961E-02 1.53832E-21
3.47912E-02 1.47376E-21
3.55952E-02 1.41269E-21
3.64081E-02 1.35490E-21
3.72297E-02 1.30016E-21
3.80602E-02 1.24828E-21
3.88995E-02 1.19908E-21
3.97476E-02 1.15240E-21
4.06044E-02 1.10807E-21
4.14700E-02 1.06596E-21
4.23443E-02 1.02592E-21
4.32273E-02 9.87844E-22
4.41190E-02 9.51604E-22
4.50194E-02 9.17095E-22
4.59284E-02 8.84216E-22
4.68461E-02 8.52875E-22
4.87074E-02 7.94461E-22
5.06030E-02 7.41219E-22
5.25328E-02 6.92599E-22
5.44967E-02 6.48114E-22
5.64946E-02 6.07340E-22
5.85262E-02 5.69903E-22
6.05914E-02 5.35472E-22
6.26901E-02 5.03754E-22
6.48222E-02 4.74489E-22
6.69873E-02 4.47448E-22
6.91854E-02 4.22424E-22
7.14163E-02 3.99234E-22
7.36799E-02 3.77714E-22
7.59760E-02 3.57718E-22
7.83043E-02 3.39113E-22
8.06647E-02 3.21782E-22
8.30571E-02 3.05617E-22
8.54812E-02 2.90522E-22
8.79369E-02 2.76411E-22
9.04240E-02 2.63205E-22
9.29422E-02 2.50831E-22
9.54915E-02 2.39227E-22
9.80716E-02 2.28332E-22
1.00682E-01 2.18094E-22
1.03323E-01 2.08464E-22
1.05995E-01 1.99396E-22
1.08696E-01 1.90851E-22
1.11427E-01 1.82790E-22
1.14188E-01 1.75181E-22
1.16978E-01 1.67992E-22
1.19797E-01 1.61193E-22
1.22645E-01 1.54760E-22
1.25522E-01 1.48666E-22
1.28428E-01 1.42891E-22
1.31361E-01 1.37413E-22
1.34323E-01 1.32213E-22
1.37313E-01 1.27274E-22
1.40330E-01 1.22579E-22
1.43375E-01 1.18113E-22
1.46447E-01 1.13863E-22
1.49545E-01 1.09815E-22
1.52671E-01 1.05957E-22
1.55823E-01 1.02279E-22
1.59001E-01 9.87688E-23
1.62205E-01 9.54178E-23
1.65435E-01 9.22169E-23
1.68690E-01 8.91574E-23
1.71970E-01 8.62317E-23
1.75276E-01 8.34322E-23
1.78606E-01 8.07523E-23
1.81961E-01 7.81854E-23
1.85340E-01 7.57257E-23
1.88743E-01 7.33674E-23
1.92169E-01 7.11054E-23
1.95619E-01 6.89346E-23
1.99092E-01 6.68504E-23
2.02589E-01 6.48484E-23
2.06107E-01 6.29246E-23
2.09649E-01 6.10751E-23
2.13212E-01 5.92963E-23
2.16797E-01 5.75849E-23
2.20404E-01 5.59375E-23
2.24032E-01 5.43512E-23
2.27680E-01 5.28230E-23
2.31350E-01 5.13503E-23
2.35040E-01 4.99305E-23
2.38751E-01 4.85612E-23
2.42481E-01 4.72403E-23
2.46231E-01 4.59654E-23
2.50000E-01 4.47347E-23
2.53788E-01 4.35461E-23
2.57595E-01 4.23978E-23
2.61421E-01 4.12880E-23
2.65264E-01 4.02152E-23
2.69126E-01 3.91778E-23
2.73005E-01 3.81743E-23
2.76901E-01 3.72033E-23
2.80814E-01 3.62635E-23
2.84744E-01 3.53536E-23
2.88691E-01 3.44724E-23
2.92653E-01 3.36188E-23
2.96632E-01 3.27915E-23
3.00625E-01 3.19898E-23
3.04634E-01 3.12124E-23
3.08658E-01 3.04586E-23
3.12697E-01 2.97273E-23
3.16749E-01 2.90178E-23
3.20816E-01 2.83292E-23
3.24896E-01 2.76608E-23
3.28990E-01 2.70117E-23
3.33097E-01 2.63812E-23
3.37216E-01 2.57688E-23
3.41348E-01 2.51738E-23
3.45492E-01 2.45955E-23
3.49647E-01 2.40333E-23
3.53814E-01 2.34867E-23
3.57992E-01 2.29551E-23
3.62181E-01 2.24379E-23
3.66381E-01 2.19348E-23
3.70590E-01 2.14452E-23
3.74810E-01 2.09686E-23
3.79039E-01 2.05047E-23
3.83277E-01 2.00530E-23
3.87524E-01 1.96131E-23
3.91780E-01 1.91846E-23
3.96044E-01 1.87670E-23
4.00316E-01 1.83602E-23
4.04596E-01 1.79637E-23
4.08882E-01 1.75772E-23
4.13176E-01 1.72005E-23
4.17476E-01 1.68331E-23
4.21783E-01 1.64747E-23
4.26095E-01 1.61251E-23
4.30413E-01 1.57841E-23
4.34737E-01 1.54514E-23
4.39065E-01 1.51266E-23
4.43398E-01 1.48097E-23
4.47736E-01 1.45004E-23
4.52077E-01 1.41983E-23
4.56422E-01 1.39033E-23
4.60770E-01 1.36152E-23
4.65122E-01 1.33338E-23
4.69476E-01 1.30589E-23
4.73832E-01 1.27903E-23
4.78190E-01 1.25278E-23
4.82550E-01 1.22713E-23
4.86912E-01 1.20206E-23
4.91274E-01 1.17755E-23
4.95637E-01 1.15359E-23
5.00000E-01 1.13016E-23
5.04363E-01 1.10724E-23
5.08726E-01 1.08483E-23
5.13088E-01 1.06291E-23
5.17450E-01 1.04147E-23
5.21810E-01 1.02048E-23
5.26168E-01 9.99952E-24
5.30524E-01 9.79859E-24
5.34878E-01 9.60193E-24
5.39230E-01 9.40944E-24
5.43578E-01 9.22100E-24
5.47923E-01 9.03651E-24
5.52264E-01 8.85588E-24
5.56602E-01 8.67899E-24
5.60935E-01 8.50576E-24
5.65263E-01 8.33608E-24
5.69587E-01 8.16988E-24
5.73905E-01 8.00706E-24
5.78217E-01 7.84755E-24
5.82524E-01 7.69126E-24
5.86824E-01 7.53811E-24
5.91118E-01 7.38803E-24
5.95404E-01 7.24094E-24
5.99684E-01 7.09677E-24
6.03956E-01 6.95545E-24
6.08220E-01 6.81691E-24
6.12476E-01 6.68108E-24
6.16723E-01 6.54791E-24
6.20961E-01 6.41733E-24
6.25190E-01 6.28928E-24
6.29410E-01 6.16371E-24
6.33619E-01 6.04055E-24
6.37819E-01 5.91975E-24
6.42008E-01 5.80125E-24
6.46186E-01 5.68501E-24
6.50353E-01 5.57098E-24
6.54508E-01 5.45910E-24
6.58652E-01 5.34932E-24
6.62784E-01 5.24161E-24
6.66903E-01 5.13592E-24
6.71010E-01 5.03219E-24
6.75104E-01 4.93040E-24
6.79184E-01 4.83049E-24
6.83251E-01 4.73243E-24
6.87303E-01 4.63618E-24
6.91342E-01 4.54170E-24
6.95366E-01 4.44894E-24
6.99375E-01 4.35789E-24
7.03368E-01 4.26850E-24
7.07347E-01 4.18073E-24
7.11309E-01 4.09455E-24
7.15256E-01 4.00994E-24
7.19186E-01 3.92686E-24
7.23099E-01 3.84527E-24
7.26995E-01 3.76515E-24
7.30874E-01 3.68646E-24
7.34736E-01 3.60919E-24
7.38579E-01 3.53330E-24
7.42405E-01 3.45877E-24
7.46212E-01 3.38556E-24
7.50000E-01 3.31366E-24
7.53769E-01 3.24303E-24
7.57519E-01 3.17365E-24
7.61249E-01 3.10551E-24
7.64960E-01 3.03857E-24
7.68650E-01 2.97281E-24
7.72320E-01 2.90822E-24
7.75968E-01 2.84476E-24
7.79596E-01 2.78243E-24
7.83203E-01 2.72119E-24
7.86788E-01 2.66103E-24
7.90351E-01 2.60192E-24
7.93893E-01 2.54386E-24
7.97411E-01 2.48682E-24
8.00908E-01 2.43077E-24
8.04381E-01 2.37572E-24
8.07831E-01 2.32163E-24
8.11257E-01 2.26849E-24
8.14660E-01 2.21629E-24
8.18039E-01 2.16500E-24
8.21394E-01 2.11462E-24
8.24724E-01 2.06512E-24
8.28030E-01 2.01650E-24
8.31310E-01 1.96873E-24
8.34565E-01 1.92181E-24
8.37795E-01 1.87572E-24
8.40999E-01 1.83044E-24
8.44177E-01 1.78596E-24
8.47329E-01 1.74228E-24
8.50455E-01 1.69937E-24
8.53553E-01 1.65722E-24
8.56625E-01 1.61583E-24
8.59670E-01 1.57518E-24
8.62687E-01 1.53526E-24
8.65677E-01 1.49605E-24
8.68639E-01 1.45756E-24
8.71572E-01 1.41976E-24
8.74478E-01 1.38264E-24
8.77355E-01 1.34620E-24
8.80203E-01 1.31043E-24
8.83022E-01 1.27531E-24
8.85812E-01 1.24084E-24
8.88573E-01 1.20700E-24
8.91304E-01 1.17380E-24
8.94005E-01 1.14121E-24
8.96677E-01 1.10923E-24
8.99318E-01 1.07786E-24
9.01928E-01 1.04708E-24
9.04508E-01 1.01688E-24
9.07058E-01 9.87262E-25
9.09576E-01 9.58214E-25
9.12063E-01 9.29728E-25
9.14519E-01 9.01799E-25
9.16943E-01 8.74417E-25
9.19335E-01 8.47576E-25
9.21696E-01 8.21270E-25
9.24024E-01 7.95491E-25
9.26320E-01 7.70234E-25
9.28584E-01 7.45491E-25
9.30815E-01 7.21257E-25
9.33013E-01 6.97525E-25
9.35178E-01 6.74290E-25
9.37310E-01 6.51546E-25
9.39409E-01 6.29287E-25
9.41474E-01 6.07509E-25
9.43505E-01 5.86205E-25
9.45503E-01 5.65371E-25
9.47467E-01 5.45000E-25
9.49397E-01 5.25090E-25
9.51293E-01 5.05634E-25
9.53154E-01 4.86628E-25
9.54981E-01 4.68068E-25
9.56773E-01 4.49949E-25
9.58530E-01 4.32266E-25
9.60252E-01 4.15016E-25
9.61940E-01 3.98194E-25
9.63592E-01 3.81797E-25
9.65209E-01 3.65820E-25
9.66790E-01 3.50261E-25
9.68336E-01 3.35114E-25
9.69846E-01 3.20378E-25
9.71321E-01 3.06048E-25
9.72759E-01 2.92120E-25
9.74162E-01 2.78593E-25
9.75528E-01 2.65462E-25
9.76858E-01 2.52725E-25
9.78152E-01 2.40379E-25
9.79410E-01 2.28421E-25
9.80631E-01 2.16847E-25
9.81815E-01 2.05657E-25
9.82963E-01 1.94846E-25
9.84074E-01 1.84413E-25
9.85148E-01 1.74355E-25
9.86185E-01 1.64670E-25
9.87185E-01 1.55356E-25
9.88148E-01 1.46410E-25
9.89074E-01 1.37831E-25
9.89962E-01 1.29616E-25
9.90814E-01 1.21765E-25
9.91627E-01 1.14274E-25
9.92404E-01 1.07143E-25
9.93143E-01 1.00370E-25
9.93844E-01 9.39533E-26
9.94508E-01 8.78912E-26
9.95134E-01 8.21827E-26
9.95722E-01 7.68265E-26
9.96273E-01 7.18214E-26
9.96786E-01 6.71662E-26
9.97261E-01 6.28600E-26
9.97698E-01 5.89017E-26
9.98097E-01 5.52906E-26
9.98459E-01 5.20258E-26
9.98782E-01 4.91066E-26
9.99067E-01 4.65323E-26
9.99315E-01 4.43024E-26
9.99524E-01 4.24164E-26
9.99695E-01 4.08739E-26
9.99829E-01 3.96745E-26
9.99924E-01 3.88180E-26
9.99981E-01 3.83042E-26
1.00000E+00 3.81329E-26
