 #
 # Subroutine ELSEPA. Elastic scattering of electrons and positrons
 #                    by neutral atoms and positive ions
 #
 # Projectile: electron
 # Kinetic energy = 5.00000E+07 eV = 1.83747E+06 a.u.
 #
 # WARNING: High-energy factorization with free-atom DF screening.
 #          Absorption, polarization and exchange corrections are
 #          switched off.
 #          Phase shifts are calculated for the bare nucleus.
 #          Scattering amplitudes are not evaluated.
 #
 # Element: Po,  Z =  84,  atomic weight = 2.08982E+02 g/mol
 #
 # Nuclear model: Fermi distribution
 #                Average radius = 6.34971E-13 cm
 #                Skin thickness = 5.46000E-14 cm
 #
 # Number of electrons = 84
 #
 # Total elastic cross section = 9.14246E-18 cm**2 = 3.26483E-01 a0**2
 # 1st transport cross section = 5.27808E-24 cm**2 = 1.88484E-07 a0**2
 # 2nd transport cross section = 1.54527E-23 cm**2 = 5.51826E-07 a0**2
 #
 #
 # Differential cross section:                       MU=(1-COS(THETA))/2
 #
 #  THETA        MU          DCS          DCS        Sherman      error
 #  (deg)                 (cm**2/sr)   (a0**2/sr)    function
 #----------------------------------------------------------------------
0.00000E+00 1.65845E-10
7.61557E-13 1.65757E-10
1.18994E-12 1.65707E-10
1.71346E-12 1.65647E-10
2.33225E-12 1.65576E-10
3.04617E-12 1.65494E-10
3.85530E-12 1.65401E-10
4.75964E-12 1.65297E-10
5.75917E-12 1.65182E-10
6.85391E-12 1.65057E-10
8.04379E-12 1.64921E-10
9.32893E-12 1.64775E-10
1.07092E-11 1.64618E-10
1.21847E-11 1.64450E-10
1.37554E-11 1.64272E-10
1.54213E-11 1.64083E-10
1.71823E-11 1.63884E-10
1.90386E-11 1.63675E-10
2.09900E-11 1.63455E-10
2.30367E-11 1.63226E-10
2.51785E-11 1.62986E-10
2.74156E-11 1.62736E-10
2.97478E-11 1.62476E-10
3.21752E-11 1.62206E-10
3.46979E-11 1.61927E-10
3.73157E-11 1.61638E-10
4.00286E-11 1.61339E-10
4.28368E-11 1.61030E-10
4.57402E-11 1.60712E-10
4.87388E-11 1.60385E-10
5.18325E-11 1.60049E-10
5.50215E-11 1.59703E-10
5.83057E-11 1.59349E-10
6.16850E-11 1.58985E-10
6.51595E-11 1.58613E-10
6.87293E-11 1.58232E-10
7.23943E-11 1.57842E-10
7.61544E-11 1.57444E-10
1.18991E-10 1.53002E-10
1.71347E-10 1.47859E-10
2.33223E-10 1.42139E-10
3.04617E-10 1.35982E-10
3.85531E-10 1.29521E-10
4.75965E-10 1.22884E-10
5.75917E-10 1.16185E-10
6.85389E-10 1.09523E-10
8.04380E-10 1.02969E-10
9.32891E-10 9.65884E-11
1.07092E-09 9.04477E-11
1.21847E-09 8.45844E-11
1.37554E-09 7.90232E-11
1.54213E-09 7.37782E-11
1.71823E-09 6.88546E-11
1.90386E-09 6.42505E-11
2.09900E-09 5.99590E-11
2.30367E-09 5.59689E-11
2.51785E-09 5.22666E-11
2.74156E-09 4.88364E-11
2.97478E-09 4.56618E-11
3.21752E-09 4.27206E-11
3.46978E-09 4.00017E-11
3.73156E-09 3.74895E-11
4.00286E-09 3.51678E-11
4.28368E-09 3.30215E-11
4.57402E-09 3.10363E-11
4.87388E-09 2.91990E-11
5.18326E-09 2.74972E-11
5.50215E-09 2.59196E-11
5.83057E-09 2.44556E-11
6.16850E-09 2.30959E-11
6.51596E-09 2.18315E-11
6.87293E-09 2.06541E-11
7.23942E-09 1.95557E-11
7.61544E-09 1.85311E-11
1.18991E-08 1.11350E-11
1.71347E-08 7.17152E-12
2.33223E-08 4.81685E-12
3.04617E-08 3.34852E-12
3.85531E-08 2.39937E-12
4.75965E-08 1.76658E-12
5.75917E-08 1.33221E-12
6.85389E-08 1.02558E-12
8.04380E-08 8.03043E-13
9.32891E-08 6.37753E-13
1.07092E-07 5.12827E-13
1.21847E-07 4.16790E-13
1.37554E-07 3.41916E-13
1.54213E-07 2.82854E-13
1.71823E-07 2.35802E-13
1.90386E-07 1.97996E-13
2.09900E-07 1.67420E-13
2.30367E-07 1.42488E-13
2.51785E-07 1.21908E-13
2.74156E-07 1.04938E-13
2.97478E-07 9.08626E-14
3.21752E-07 7.91030E-14
3.46978E-07 6.92163E-14
3.73156E-07 6.08480E-14
4.00286E-07 5.37198E-14
4.28368E-07 4.76135E-14
4.57402E-07 4.23565E-14
4.87388E-07 3.78108E-14
5.18325E-07 3.38643E-14
5.50215E-07 3.04247E-14
5.83057E-07 2.74158E-14
6.16850E-07 2.47737E-14
6.51596E-07 2.24451E-14
6.87293E-07 2.03851E-14
7.23942E-07 1.85560E-14
7.61543E-07 1.69279E-14
1.18991E-06 7.47091E-15
1.71347E-06 3.79939E-15
2.33223E-06 2.13184E-15
3.04617E-06 1.28586E-15
3.85531E-06 8.20541E-16
4.75964E-06 5.47832E-16
5.75916E-06 3.79559E-16
6.85388E-06 2.71299E-16
8.04378E-06 1.99088E-16
9.32888E-06 1.49403E-16
1.07092E-05 1.14306E-16
1.21846E-05 8.89410E-17
1.37553E-05 7.02348E-17
1.54212E-05 5.61939E-17
1.71822E-05 4.54904E-17
1.90385E-05 3.71923E-17
2.09899E-05 3.07415E-17
2.30365E-05 2.56242E-17
2.51783E-05 2.15208E-17
2.74153E-05 1.82006E-17
2.97475E-05 1.54938E-17
3.21749E-05 1.32718E-17
3.46974E-05 1.14352E-17
3.73152E-05 9.90712E-18
4.00281E-05 8.62711E-18
4.28362E-05 7.54782E-18
4.57395E-05 6.63214E-18
4.87380E-05 5.85094E-18
5.18317E-05 5.18115E-18
5.50205E-05 4.60429E-18
5.83045E-05 4.10549E-18
6.16838E-05 3.67254E-18
6.51582E-05 3.29534E-18
6.87277E-05 2.96549E-18
7.23925E-05 2.67601E-18
7.61524E-05 2.42011E-18
9.21439E-05 1.65964E-18
1.09658E-04 1.17591E-18
1.28695E-04 8.56426E-19
1.49255E-04 6.38493E-19
1.71338E-04 4.85737E-19
1.94942E-04 3.76088E-19
2.20070E-04 2.95729E-19
2.46720E-04 2.35751E-19
2.74892E-04 1.90254E-19
3.04586E-04 1.55232E-19
3.35803E-04 1.27921E-19
3.68542E-04 1.06368E-19
4.02802E-04 8.91764E-20
4.38585E-04 7.53276E-20
4.75889E-04 6.40700E-20
5.14715E-04 5.48437E-20
5.55063E-04 4.72230E-20
5.96931E-04 4.08844E-20
6.40321E-04 3.55771E-20
6.85233E-04 3.11059E-20
7.31665E-04 2.73177E-20
7.79618E-04 2.40905E-20
8.29092E-04 2.13278E-20
8.80086E-04 1.89513E-20
9.32601E-04 1.68979E-20
9.86636E-04 1.51164E-20
1.04219E-03 1.35644E-20
1.09927E-03 1.22075E-20
1.15786E-03 1.10168E-20
1.21797E-03 9.96849E-21
1.27961E-03 9.04254E-21
1.34276E-03 8.22217E-21
1.40743E-03 7.49327E-21
1.47362E-03 6.84378E-21
1.54133E-03 6.26357E-21
1.61056E-03 5.74393E-21
1.68131E-03 5.27739E-21
1.75357E-03 4.85756E-21
1.82735E-03 4.47893E-21
1.90265E-03 4.13674E-21
1.97947E-03 3.82682E-21
2.05780E-03 3.54559E-21
2.13765E-03 3.28992E-21
2.21902E-03 3.05706E-21
2.30190E-03 2.84459E-21
2.38630E-03 2.65041E-21
2.47222E-03 2.47265E-21
2.55965E-03 2.30967E-21
2.64859E-03 2.16000E-21
2.73905E-03 2.02238E-21
2.83103E-03 1.89563E-21
2.92452E-03 1.77875E-21
3.01952E-03 1.67082E-21
3.11604E-03 1.57103E-21
3.21407E-03 1.47865E-21
3.31362E-03 1.39303E-21
3.41468E-03 1.31357E-21
3.51725E-03 1.23976E-21
3.62133E-03 1.17111E-21
3.72692E-03 1.10720E-21
3.83403E-03 1.04763E-21
3.94265E-03 9.92050E-22
4.05278E-03 9.40157E-22
4.16442E-03 8.91642E-22
4.27757E-03 8.46252E-22
4.39223E-03 8.03749E-22
4.50840E-03 7.63907E-22
4.62608E-03 7.26532E-22
4.74527E-03 6.91443E-22
4.86597E-03 6.58468E-22
4.98817E-03 6.27460E-22
5.11188E-03 5.98277E-22
5.23711E-03 5.70791E-22
5.36383E-03 5.44883E-22
5.49207E-03 5.20447E-22
5.62181E-03 4.97382E-22
5.75306E-03 4.75596E-22
5.88581E-03 4.55004E-22
6.02007E-03 4.35528E-22
6.15583E-03 4.17096E-22
6.29310E-03 3.99641E-22
6.43187E-03 3.83100E-22
6.57214E-03 3.67417E-22
6.71392E-03 3.52539E-22
6.85720E-03 3.38415E-22
7.00198E-03 3.25001E-22
7.14827E-03 3.12252E-22
7.29605E-03 3.00131E-22
7.44534E-03 2.88600E-22
7.59612E-03 2.77624E-22
7.97965E-03 2.52409E-22
8.37255E-03 2.30027E-22
8.77480E-03 2.10100E-22
9.18641E-03 1.92310E-22
9.60736E-03 1.76387E-22
1.00376E-02 1.62097E-22
1.04773E-02 1.49246E-22
1.09262E-02 1.37656E-22
1.13844E-02 1.27175E-22
1.18520E-02 1.17683E-22
1.23288E-02 1.09069E-22
1.28150E-02 1.01237E-22
1.33104E-02 9.41015E-23
1.38150E-02 8.75897E-23
1.43290E-02 8.16365E-23
1.48521E-02 7.61847E-23
1.53845E-02 7.11841E-23
1.59262E-02 6.65900E-23
1.64770E-02 6.23632E-23
1.70371E-02 5.84685E-23
1.76063E-02 5.48749E-23
1.81848E-02 5.15546E-23
1.87724E-02 4.84828E-23
1.93692E-02 4.56372E-23
1.99751E-02 4.29981E-23
2.05901E-02 4.05474E-23
2.12143E-02 3.82692E-23
2.18476E-02 3.61489E-23
2.24900E-02 3.41735E-23
2.31415E-02 3.23311E-23
2.38021E-02 3.06111E-23
2.44717E-02 2.90037E-23
2.51504E-02 2.75001E-23
2.58382E-02 2.60923E-23
2.65349E-02 2.47730E-23
2.72407E-02 2.35356E-23
2.79555E-02 2.23740E-23
2.86793E-02 2.12827E-23
2.94120E-02 2.02565E-23
3.01537E-02 1.92909E-23
3.09043E-02 1.83815E-23
3.16639E-02 1.75245E-23
3.24324E-02 1.67162E-23
3.32098E-02 1.59534E-23
3.39961E-02 1.52330E-23
3.47912E-02 1.45521E-23
3.55952E-02 1.39083E-23
3.64081E-02 1.32991E-23
3.72297E-02 1.27222E-23
3.80602E-02 1.21757E-23
3.88995E-02 1.16576E-23
3.97476E-02 1.11661E-23
4.06044E-02 1.06997E-23
4.14700E-02 1.02569E-23
4.23443E-02 9.83608E-24
4.32273E-02 9.43609E-24
4.41190E-02 9.05568E-24
4.50194E-02 8.69370E-24
4.59284E-02 8.34909E-24
4.68461E-02 8.02087E-24
4.87074E-02 7.40994E-24
5.06030E-02 6.85420E-24
5.25328E-02 6.34781E-24
5.44967E-02 5.88561E-24
5.64946E-02 5.46309E-24
5.85262E-02 5.07625E-24
6.05914E-02 4.72157E-24
6.26901E-02 4.39591E-24
6.48222E-02 4.09650E-24
6.69873E-02 3.82088E-24
6.91854E-02 3.56684E-24
7.14163E-02 3.33240E-24
7.36799E-02 3.11582E-24
7.59760E-02 2.91551E-24
7.83043E-02 2.73005E-24
8.06647E-02 2.55817E-24
8.30571E-02 2.39871E-24
8.54812E-02 2.25064E-24
8.79369E-02 2.11302E-24
9.04240E-02 1.98499E-24
9.29422E-02 1.86580E-24
9.54915E-02 1.75473E-24
9.80716E-02 1.65115E-24
1.00682E-01 1.55449E-24
1.03323E-01 1.46422E-24
1.05995E-01 1.37984E-24
1.08696E-01 1.30093E-24
1.11427E-01 1.22708E-24
1.14188E-01 1.15791E-24
1.16978E-01 1.09310E-24
1.19797E-01 1.03234E-24
1.22645E-01 9.75325E-25
1.25522E-01 9.21808E-25
1.28428E-01 8.71543E-25
1.31361E-01 8.24308E-25
1.34323E-01 7.79897E-25
1.37313E-01 7.38120E-25
1.40330E-01 6.98803E-25
1.43375E-01 6.61784E-25
1.46447E-01 6.26912E-25
1.49545E-01 5.94048E-25
1.52671E-01 5.63065E-25
1.55823E-01 5.33841E-25
1.59001E-01 5.06266E-25
1.62205E-01 4.80238E-25
1.65435E-01 4.55659E-25
1.68690E-01 4.32441E-25
1.71970E-01 4.10501E-25
1.75276E-01 3.89762E-25
1.78606E-01 3.70150E-25
1.81961E-01 3.51600E-25
1.85340E-01 3.34047E-25
1.88743E-01 3.17434E-25
1.92169E-01 3.01705E-25
1.95619E-01 2.86809E-25
1.99092E-01 2.72698E-25
2.02589E-01 2.59327E-25
2.06107E-01 2.46654E-25
2.09649E-01 2.34639E-25
2.13212E-01 2.23246E-25
2.16797E-01 2.12439E-25
2.20404E-01 2.02187E-25
2.24032E-01 1.92458E-25
2.27680E-01 1.83223E-25
2.31350E-01 1.74457E-25
2.35040E-01 1.66133E-25
2.38751E-01 1.58227E-25
2.42481E-01 1.50717E-25
2.46231E-01 1.43582E-25
2.50000E-01 1.36802E-25
2.53788E-01 1.30358E-25
2.57595E-01 1.24232E-25
2.61421E-01 1.18408E-25
2.65264E-01 1.12869E-25
2.69126E-01 1.07602E-25
2.73005E-01 1.02591E-25
2.76901E-01 9.78247E-26
2.80814E-01 9.32893E-26
2.84744E-01 8.89732E-26
2.88691E-01 8.48654E-26
2.92653E-01 8.09552E-26
2.96632E-01 7.72326E-26
3.00625E-01 7.36883E-26
3.04634E-01 7.03133E-26
3.08658E-01 6.70991E-26
3.12697E-01 6.40376E-26
3.16749E-01 6.11214E-26
3.20816E-01 5.83432E-26
3.24896E-01 5.56962E-26
3.28990E-01 5.31740E-26
3.33097E-01 5.07704E-26
3.37216E-01 4.84796E-26
3.41348E-01 4.62962E-26
3.45492E-01 4.42149E-26
3.49647E-01 4.22307E-26
3.53814E-01 4.03390E-26
3.57992E-01 3.85353E-26
3.62181E-01 3.68154E-26
3.66381E-01 3.51752E-26
3.70590E-01 3.36109E-26
3.74810E-01 3.21189E-26
3.79039E-01 3.06957E-26
3.83277E-01 2.93382E-26
3.87524E-01 2.80431E-26
3.91780E-01 2.68074E-26
3.96044E-01 2.56285E-26
4.00316E-01 2.45036E-26
4.04596E-01 2.34301E-26
4.08882E-01 2.24057E-26
4.13176E-01 2.14280E-26
4.17476E-01 2.04948E-26
4.21783E-01 1.96042E-26
4.26095E-01 1.87540E-26
4.30413E-01 1.79424E-26
4.34737E-01 1.71676E-26
4.39065E-01 1.64278E-26
4.43398E-01 1.57216E-26
4.47736E-01 1.50472E-26
4.52077E-01 1.44033E-26
4.56422E-01 1.37883E-26
4.60770E-01 1.32011E-26
4.65122E-01 1.26402E-26
4.69476E-01 1.21046E-26
4.73832E-01 1.15929E-26
4.78190E-01 1.11042E-26
4.82550E-01 1.06373E-26
4.86912E-01 1.01913E-26
4.91274E-01 9.76518E-27
4.95637E-01 9.35807E-27
5.00000E-01 8.96907E-27
5.04363E-01 8.59736E-27
5.08726E-01 8.24215E-27
5.13088E-01 7.90269E-27
5.17450E-01 7.57826E-27
5.21810E-01 7.26818E-27
5.26168E-01 6.97178E-27
5.30524E-01 6.68845E-27
5.34878E-01 6.41759E-27
5.39230E-01 6.15864E-27
5.43578E-01 5.91104E-27
5.47923E-01 5.67430E-27
5.52264E-01 5.44791E-27
5.56602E-01 5.23141E-27
5.60935E-01 5.02434E-27
5.65263E-01 4.82628E-27
5.69587E-01 4.63682E-27
5.73905E-01 4.45557E-27
5.78217E-01 4.28216E-27
5.82524E-01 4.11624E-27
5.86824E-01 3.95747E-27
5.91118E-01 3.80552E-27
5.95404E-01 3.66008E-27
5.99684E-01 3.52087E-27
6.03956E-01 3.38760E-27
6.08220E-01 3.26000E-27
6.12476E-01 3.13782E-27
6.16723E-01 3.02081E-27
6.20961E-01 2.90875E-27
6.25190E-01 2.80140E-27
6.29410E-01 2.69856E-27
6.33619E-01 2.60002E-27
6.37819E-01 2.50560E-27
6.42008E-01 2.41510E-27
6.46186E-01 2.32835E-27
6.50353E-01 2.24518E-27
6.54508E-01 2.16543E-27
6.58652E-01 2.08896E-27
6.62784E-01 2.01560E-27
6.66903E-01 1.94523E-27
6.71010E-01 1.87770E-27
6.75104E-01 1.81290E-27
6.79184E-01 1.75070E-27
6.83251E-01 1.69099E-27
6.87303E-01 1.63365E-27
6.91342E-01 1.57858E-27
6.95366E-01 1.52568E-27
6.99375E-01 1.47485E-27
7.03368E-01 1.42600E-27
7.07347E-01 1.37904E-27
7.11309E-01 1.33389E-27
7.15256E-01 1.29048E-27
7.19186E-01 1.24871E-27
7.23099E-01 1.20853E-27
7.26995E-01 1.16986E-27
7.30874E-01 1.13263E-27
7.34736E-01 1.09678E-27
7.38579E-01 1.06226E-27
7.42405E-01 1.02900E-27
7.46212E-01 9.96952E-28
7.50000E-01 9.66059E-28
7.53769E-01 9.36273E-28
7.57519E-01 9.07545E-28
7.61249E-01 8.79831E-28
7.64960E-01 8.53087E-28
7.68650E-01 8.27272E-28
7.72320E-01 8.02345E-28
7.75968E-01 7.78270E-28
7.79596E-01 7.55010E-28
7.83203E-01 7.32530E-28
7.86788E-01 7.10798E-28
7.90351E-01 6.89783E-28
7.93893E-01 6.69455E-28
7.97411E-01 6.49785E-28
8.00908E-01 6.30746E-28
8.04381E-01 6.12312E-28
8.07831E-01 5.94459E-28
8.11257E-01 5.77162E-28
8.14660E-01 5.60399E-28
8.18039E-01 5.44150E-28
8.21394E-01 5.28392E-28
8.24724E-01 5.13107E-28
8.28030E-01 4.98277E-28
8.31310E-01 4.83882E-28
8.34565E-01 4.69907E-28
8.37795E-01 4.56335E-28
8.40999E-01 4.43151E-28
8.44177E-01 4.30340E-28
8.47329E-01 4.17887E-28
8.50455E-01 4.05780E-28
8.53553E-01 3.94006E-28
8.56625E-01 3.82553E-28
8.59670E-01 3.71408E-28
8.62687E-01 3.60562E-28
8.65677E-01 3.50002E-28
8.68639E-01 3.39720E-28
8.71572E-01 3.29706E-28
8.74478E-01 3.19950E-28
8.77355E-01 3.10444E-28
8.80203E-01 3.01179E-28
8.83022E-01 2.92148E-28
8.85812E-01 2.83342E-28
8.88573E-01 2.74756E-28
8.91304E-01 2.66381E-28
8.94005E-01 2.58211E-28
8.96677E-01 2.50240E-28
8.99318E-01 2.42462E-28
9.01928E-01 2.34872E-28
9.04508E-01 2.27463E-28
9.07058E-01 2.20232E-28
9.09576E-01 2.13172E-28
9.12063E-01 2.06279E-28
9.14519E-01 1.99548E-28
9.16943E-01 1.92976E-28
9.19335E-01 1.86559E-28
9.21696E-01 1.80292E-28
9.24024E-01 1.74171E-28
9.26320E-01 1.68194E-28
9.28584E-01 1.62356E-28
9.30815E-01 1.56655E-28
9.33013E-01 1.51088E-28
9.35178E-01 1.45651E-28
9.37310E-01 1.40342E-28
9.39409E-01 1.35159E-28
9.41474E-01 1.30098E-28
9.43505E-01 1.25158E-28
9.45503E-01 1.20335E-28
9.47467E-01 1.15629E-28
9.49397E-01 1.11036E-28
9.51293E-01 1.06555E-28
9.53154E-01 1.02185E-28
9.54981E-01 9.79219E-29
9.56773E-01 9.37657E-29
9.58530E-01 8.97144E-29
9.60252E-01 8.57663E-29
9.61940E-01 8.19201E-29
9.63592E-01 7.81743E-29
9.65209E-01 7.45275E-29
9.66790E-01 7.09786E-29
9.68336E-01 6.75263E-29
9.69846E-01 6.41695E-29
9.71321E-01 6.09070E-29
9.72759E-01 5.77378E-29
9.74162E-01 5.46610E-29
9.75528E-01 5.16756E-29
9.76858E-01 4.87806E-29
9.78152E-01 4.59753E-29
9.79410E-01 4.32589E-29
9.80631E-01 4.06305E-29
9.81815E-01 3.80895E-29
9.82963E-01 3.56351E-29
9.84074E-01 3.32668E-29
9.85148E-01 3.09838E-29
9.86185E-01 2.87856E-29
9.87185E-01 2.66717E-29
9.88148E-01 2.46415E-29
9.89074E-01 2.26945E-29
9.89962E-01 2.08302E-29
9.90814E-01 1.90483E-29
9.91627E-01 1.73483E-29
9.92404E-01 1.57297E-29
9.93143E-01 1.41923E-29
9.93844E-01 1.27357E-29
9.94508E-01 1.13596E-29
9.95134E-01 1.00636E-29
9.95722E-01 8.84751E-30
9.96273E-01 7.71105E-30
9.96786E-01 6.65398E-30
9.97261E-01 5.67607E-30
9.97698E-01 4.77712E-30
9.98097E-01 3.95695E-30
9.98459E-01 3.21539E-30
9.98782E-01 2.55228E-30
9.99067E-01 1.96750E-30
9.99315E-01 1.46093E-30
9.99524E-01 1.03245E-30
9.99695E-01 6.82001E-31
9.99829E-01 4.09499E-31
9.99924E-01 2.14893E-31
9.99981E-01 9.81453E-32
1.00000E+00 5.92317E-32
