 #
 # Subroutine ELSEPA. Elastic scattering of electrons and positrons
 #                    by neutral atoms and positive ions
 #
 # Projectile: electron
 # Kinetic energy = 2.00000E+07 eV = 7.34987E+05 a.u.
 #
 # WARNING: High-energy factorization with free-atom DF screening.
 #          Absorption, polarization and exchange corrections are
 #          switched off.
 #          Phase shifts are calculated for the bare nucleus.
 #          Scattering amplitudes are not evaluated.
 #
 # Element: Po,  Z =  84,  atomic weight = 2.08982E+02 g/mol
 #
 # Nuclear model: Fermi distribution
 #                Average radius = 6.34971E-13 cm
 #                Skin thickness = 5.46000E-14 cm
 #
 # Number of electrons = 84
 #
 # Total elastic cross section = 9.15028E-18 cm**2 = 3.26762E-01 a0**2
 # 1st transport cross section = 3.16624E-23 cm**2 = 1.13068E-06 a0**2
 # 2nd transport cross section = 8.88823E-23 cm**2 = 3.17405E-06 a0**2
 #
 #
 # Differential cross section:                       MU=(1-COS(THETA))/2
 #
 #  THETA        MU          DCS          DCS        Sherman      error
 #  (deg)                 (cm**2/sr)   (a0**2/sr)    function
 #----------------------------------------------------------------------
0.00000E+00 2.73466E-11
7.61557E-13 2.73442E-11
1.18994E-12 2.73429E-11
1.71346E-12 2.73412E-11
2.33225E-12 2.73393E-11
3.04617E-12 2.73370E-11
3.85530E-12 2.73345E-11
4.75964E-12 2.73317E-11
5.75917E-12 2.73285E-11
6.85391E-12 2.73251E-11
8.04379E-12 2.73214E-11
9.32893E-12 2.73173E-11
1.07092E-11 2.73130E-11
1.21847E-11 2.73084E-11
1.37554E-11 2.73035E-11
1.54213E-11 2.72983E-11
1.71823E-11 2.72928E-11
1.90386E-11 2.72870E-11
2.09900E-11 2.72809E-11
2.30367E-11 2.72745E-11
2.51785E-11 2.72679E-11
2.74156E-11 2.72609E-11
2.97478E-11 2.72536E-11
3.21752E-11 2.72461E-11
3.46979E-11 2.72383E-11
3.73157E-11 2.72301E-11
4.00286E-11 2.72217E-11
4.28368E-11 2.72130E-11
4.57402E-11 2.72040E-11
4.87388E-11 2.71947E-11
5.18325E-11 2.71851E-11
5.50215E-11 2.71752E-11
5.83057E-11 2.71650E-11
6.16850E-11 2.71546E-11
6.51595E-11 2.71438E-11
6.87293E-11 2.71328E-11
7.23943E-11 2.71215E-11
7.61544E-11 2.71099E-11
1.18991E-10 2.69784E-11
1.71347E-10 2.68190E-11
2.33223E-10 2.66327E-11
3.04617E-10 2.64203E-11
3.85531E-10 2.61829E-11
4.75965E-10 2.59218E-11
5.75917E-10 2.56368E-11
6.85389E-10 2.53298E-11
8.04380E-10 2.50065E-11
9.32891E-10 2.46620E-11
1.07092E-09 2.43007E-11
1.21847E-09 2.39289E-11
1.37554E-09 2.35351E-11
1.54213E-09 2.31338E-11
1.71823E-09 2.27233E-11
1.90386E-09 2.22975E-11
2.09900E-09 2.18705E-11
2.30367E-09 2.14329E-11
2.51785E-09 2.09897E-11
2.74156E-09 2.05499E-11
2.97478E-09 2.00970E-11
3.21752E-09 1.96486E-11
3.46978E-09 1.92025E-11
3.73156E-09 1.87498E-11
4.00286E-09 1.83062E-11
4.28368E-09 1.78617E-11
4.57402E-09 1.74196E-11
4.87388E-09 1.69890E-11
5.18326E-09 1.65537E-11
5.50215E-09 1.61290E-11
5.83057E-09 1.57134E-11
6.16850E-09 1.52972E-11
6.51596E-09 1.48946E-11
6.87293E-09 1.44968E-11
7.23942E-09 1.41053E-11
7.61544E-09 1.37277E-11
1.18991E-08 1.03789E-11
1.71347E-08 7.85976E-12
2.33223E-08 6.01900E-12
3.04617E-08 4.67904E-12
3.85531E-08 3.69457E-12
4.75965E-08 2.96050E-12
5.75917E-08 2.39184E-12
6.85389E-08 1.94953E-12
8.04380E-08 1.62552E-12
9.32891E-08 1.35677E-12
1.07092E-07 1.13984E-12
1.21847E-07 9.73286E-13
1.37554E-07 8.25411E-13
1.54213E-07 7.08470E-13
1.71823E-07 6.12827E-13
1.90386E-07 5.29673E-13
2.09900E-07 4.62424E-13
2.30367E-07 4.04739E-13
2.51785E-07 3.55618E-13
2.74156E-07 3.14907E-13
2.97478E-07 2.78770E-13
3.21752E-07 2.48262E-13
3.46978E-07 2.22130E-13
3.73156E-07 1.98924E-13
4.00286E-07 1.79108E-13
4.28368E-07 1.61590E-13
4.57402E-07 1.46132E-13
4.87388E-07 1.32742E-13
5.18325E-07 1.20576E-13
5.50215E-07 1.09898E-13
5.83057E-07 1.00450E-13
6.16850E-07 9.18304E-14
6.51596E-07 8.42305E-14
6.87293E-07 7.73490E-14
7.23942E-07 7.11182E-14
7.61543E-07 6.55758E-14
1.18991E-06 3.10492E-14
1.71347E-06 1.64316E-14
2.33223E-06 9.52775E-15
3.04617E-06 5.91848E-15
3.85531E-06 3.87654E-15
4.75964E-06 2.64796E-15
5.75916E-06 1.86882E-15
6.85388E-06 1.35805E-15
8.04378E-06 1.01078E-15
9.32888E-06 7.67932E-16
1.07092E-05 5.93955E-16
1.21846E-05 4.66526E-16
1.37553E-05 3.71501E-16
1.54212E-05 2.99467E-16
1.71822E-05 2.44055E-16
1.90385E-05 2.00738E-16
2.09899E-05 1.66830E-16
2.30365E-05 1.39752E-16
2.51783E-05 1.17908E-16
2.74153E-05 1.00140E-16
2.97475E-05 8.55837E-17
3.21749E-05 7.35806E-17
3.46974E-05 6.36199E-17
3.73152E-05 5.53001E-17
4.00281E-05 4.83061E-17
4.28362E-05 4.23885E-17
4.57395E-05 3.73509E-17
4.87380E-05 3.30393E-17
5.18317E-05 2.93312E-17
5.50205E-05 2.61285E-17
5.83045E-05 2.33513E-17
6.16838E-05 2.09341E-17
6.51582E-05 1.88227E-17
6.87277E-05 1.69717E-17
7.23925E-05 1.53432E-17
7.61524E-05 1.39031E-17
9.21439E-05 9.59219E-18
1.09658E-04 6.82882E-18
1.28695E-04 4.99234E-18
1.49255E-04 3.73333E-18
1.71338E-04 2.84727E-18
1.94942E-04 2.20912E-18
2.20070E-04 1.74020E-18
2.46720E-04 1.38941E-18
2.74892E-04 1.12281E-18
3.04586E-04 9.17237E-19
3.35803E-04 7.56698E-19
3.68542E-04 6.29839E-19
4.02802E-04 5.28526E-19
4.38585E-04 4.46823E-19
4.75889E-04 3.80339E-19
5.14715E-04 3.25799E-19
5.55063E-04 2.80708E-19
5.96931E-04 2.43174E-19
6.40321E-04 2.11719E-19
6.85233E-04 1.85202E-19
7.31665E-04 1.62717E-19
7.79618E-04 1.43552E-19
8.29092E-04 1.27133E-19
8.80086E-04 1.13002E-19
9.32601E-04 1.00785E-19
9.86636E-04 9.01805E-20
1.04219E-03 8.09377E-20
1.09927E-03 7.28531E-20
1.15786E-03 6.57557E-20
1.21797E-03 5.95048E-20
1.27961E-03 5.39814E-20
1.34276E-03 4.90865E-20
1.40743E-03 4.47358E-20
1.47362E-03 4.08583E-20
1.54133E-03 3.73935E-20
1.61056E-03 3.42897E-20
1.68131E-03 3.15025E-20
1.75357E-03 2.89941E-20
1.82735E-03 2.67314E-20
1.90265E-03 2.46862E-20
1.97947E-03 2.28337E-20
2.05780E-03 2.11526E-20
2.13765E-03 1.96242E-20
2.21902E-03 1.82320E-20
2.30190E-03 1.69618E-20
2.38630E-03 1.58008E-20
2.47222E-03 1.47381E-20
2.55965E-03 1.37637E-20
2.64859E-03 1.28690E-20
2.73905E-03 1.20462E-20
2.83103E-03 1.12886E-20
2.92452E-03 1.05900E-20
3.01952E-03 9.94498E-21
3.11604E-03 9.34865E-21
3.21407E-03 8.79666E-21
3.31362E-03 8.28510E-21
3.41468E-03 7.81045E-21
3.51725E-03 7.36958E-21
3.62133E-03 6.95963E-21
3.72692E-03 6.57800E-21
3.83403E-03 6.22238E-21
3.94265E-03 5.89069E-21
4.05278E-03 5.58098E-21
4.16442E-03 5.29154E-21
4.27757E-03 5.02079E-21
4.39223E-03 4.76729E-21
4.50840E-03 4.52975E-21
4.62608E-03 4.30695E-21
4.74527E-03 4.09782E-21
4.86597E-03 3.90135E-21
4.98817E-03 3.71664E-21
5.11188E-03 3.54284E-21
5.23711E-03 3.37919E-21
5.36383E-03 3.22498E-21
5.49207E-03 3.07957E-21
5.62181E-03 2.94235E-21
5.75306E-03 2.81277E-21
5.88581E-03 2.69033E-21
6.02007E-03 2.57457E-21
6.15583E-03 2.46503E-21
6.29310E-03 2.36133E-21
6.43187E-03 2.26310E-21
6.57214E-03 2.16998E-21
6.71392E-03 2.08166E-21
6.85720E-03 1.99786E-21
7.00198E-03 1.91828E-21
7.14827E-03 1.84268E-21
7.29605E-03 1.77081E-21
7.44534E-03 1.70247E-21
7.59612E-03 1.63744E-21
7.97965E-03 1.48811E-21
8.37255E-03 1.35566E-21
8.77480E-03 1.23783E-21
9.18641E-03 1.13272E-21
9.60736E-03 1.03869E-21
1.00376E-02 9.54380E-22
1.04773E-02 8.78585E-22
1.09262E-02 8.10291E-22
1.13844E-02 7.48620E-22
1.18520E-02 6.92809E-22
1.23288E-02 6.42194E-22
1.28150E-02 5.96205E-22
1.33104E-02 5.54337E-22
1.38150E-02 5.16151E-22
1.43290E-02 4.81262E-22
1.48521E-02 4.49331E-22
1.53845E-02 4.20060E-22
1.59262E-02 3.93183E-22
1.64770E-02 3.68468E-22
1.70371E-02 3.45707E-22
1.76063E-02 3.24715E-22
1.81848E-02 3.05329E-22
1.87724E-02 2.87401E-22
1.93692E-02 2.70800E-22
1.99751E-02 2.55409E-22
2.05901E-02 2.41123E-22
2.12143E-02 2.27845E-22
2.18476E-02 2.15491E-22
2.24900E-02 2.03984E-22
2.31415E-02 1.93254E-22
2.38021E-02 1.83238E-22
2.44717E-02 1.73880E-22
2.51504E-02 1.65126E-22
2.58382E-02 1.56931E-22
2.65349E-02 1.49252E-22
2.72407E-02 1.42048E-22
2.79555E-02 1.35286E-22
2.86793E-02 1.28932E-22
2.94120E-02 1.22957E-22
3.01537E-02 1.17333E-22
3.09043E-02 1.12036E-22
3.16639E-02 1.07043E-22
3.24324E-02 1.02332E-22
3.32098E-02 9.78850E-23
3.39961E-02 9.36834E-23
3.47912E-02 8.97111E-23
3.55952E-02 8.59531E-23
3.64081E-02 8.23951E-23
3.72297E-02 7.90245E-23
3.80602E-02 7.58293E-23
3.88995E-02 7.27985E-23
3.97476E-02 6.99218E-23
4.06044E-02 6.71897E-23
4.14700E-02 6.45935E-23
4.23443E-02 6.21250E-23
4.32273E-02 5.97765E-23
4.41190E-02 5.75410E-23
4.50194E-02 5.54119E-23
4.59284E-02 5.33831E-23
4.68461E-02 5.14488E-23
4.87074E-02 4.78429E-23
5.06030E-02 4.45555E-23
5.25328E-02 4.15528E-23
5.44967E-02 3.88052E-23
5.64946E-02 3.62866E-23
5.85262E-02 3.39742E-23
6.05914E-02 3.18476E-23
6.26901E-02 2.98890E-23
6.48222E-02 2.80828E-23
6.69873E-02 2.64126E-23
6.91854E-02 2.48670E-23
7.14163E-02 2.34353E-23
7.36799E-02 2.21071E-23
7.59760E-02 2.08735E-23
7.83043E-02 1.97264E-23
8.06647E-02 1.86584E-23
8.30571E-02 1.76629E-23
8.54812E-02 1.67340E-23
8.79369E-02 1.58664E-23
9.04240E-02 1.50550E-23
9.29422E-02 1.42955E-23
9.54915E-02 1.35839E-23
9.80716E-02 1.29166E-23
1.00682E-01 1.22902E-23
1.03323E-01 1.17016E-23
1.05995E-01 1.11482E-23
1.08696E-01 1.06274E-23
1.11427E-01 1.01368E-23
1.14188E-01 9.67431E-24
1.16978E-01 9.23804E-24
1.19797E-01 8.82616E-24
1.22645E-01 8.43703E-24
1.25522E-01 8.06913E-24
1.28428E-01 7.72106E-24
1.31361E-01 7.39153E-24
1.34323E-01 7.07935E-24
1.37313E-01 6.78341E-24
1.40330E-01 6.50270E-24
1.43375E-01 6.23627E-24
1.46447E-01 5.98325E-24
1.49545E-01 5.74282E-24
1.52671E-01 5.51422E-24
1.55823E-01 5.29677E-24
1.59001E-01 5.08979E-24
1.62205E-01 4.89269E-24
1.65435E-01 4.70490E-24
1.68690E-01 4.52589E-24
1.71970E-01 4.35517E-24
1.75276E-01 4.19227E-24
1.78606E-01 4.03677E-24
1.81961E-01 3.88825E-24
1.85340E-01 3.74636E-24
1.88743E-01 3.61072E-24
1.92169E-01 3.48102E-24
1.95619E-01 3.35694E-24
1.99092E-01 3.23818E-24
2.02589E-01 3.12448E-24
2.06107E-01 3.01558E-24
2.09649E-01 2.91123E-24
2.13212E-01 2.81122E-24
2.16797E-01 2.71531E-24
2.20404E-01 2.62332E-24
2.24032E-01 2.53505E-24
2.27680E-01 2.45033E-24
2.31350E-01 2.36897E-24
2.35040E-01 2.29084E-24
2.38751E-01 2.21576E-24
2.42481E-01 2.14360E-24
2.46231E-01 2.07423E-24
2.50000E-01 2.00752E-24
2.53788E-01 1.94334E-24
2.57595E-01 1.88158E-24
2.61421E-01 1.82214E-24
2.65264E-01 1.76492E-24
2.69126E-01 1.70980E-24
2.73005E-01 1.65671E-24
2.76901E-01 1.60555E-24
2.80814E-01 1.55624E-24
2.84744E-01 1.50871E-24
2.88691E-01 1.46287E-24
2.92653E-01 1.41865E-24
2.96632E-01 1.37600E-24
3.00625E-01 1.33484E-24
3.04634E-01 1.29511E-24
3.08658E-01 1.25675E-24
3.12697E-01 1.21971E-24
3.16749E-01 1.18393E-24
3.20816E-01 1.14937E-24
3.24896E-01 1.11598E-24
3.28990E-01 1.08370E-24
3.33097E-01 1.05250E-24
3.37216E-01 1.02233E-24
3.41348E-01 9.93158E-25
3.45492E-01 9.64939E-25
3.49647E-01 9.37640E-25
3.53814E-01 9.11224E-25
3.57992E-01 8.85659E-25
3.62181E-01 8.60913E-25
3.66381E-01 8.36955E-25
3.70590E-01 8.13756E-25
3.74810E-01 7.91288E-25
3.79039E-01 7.69524E-25
3.83277E-01 7.48439E-25
3.87524E-01 7.28008E-25
3.91780E-01 7.08208E-25
3.96044E-01 6.89015E-25
4.00316E-01 6.70409E-25
4.04596E-01 6.52369E-25
4.08882E-01 6.34874E-25
4.13176E-01 6.17906E-25
4.17476E-01 6.01446E-25
4.21783E-01 5.85477E-25
4.26095E-01 5.69982E-25
4.30413E-01 5.54945E-25
4.34737E-01 5.40349E-25
4.39065E-01 5.26181E-25
4.43398E-01 5.12425E-25
4.47736E-01 4.99069E-25
4.52077E-01 4.86098E-25
4.56422E-01 4.73499E-25
4.60770E-01 4.61262E-25
4.65122E-01 4.49372E-25
4.69476E-01 4.37820E-25
4.73832E-01 4.26595E-25
4.78190E-01 4.15685E-25
4.82550E-01 4.05080E-25
4.86912E-01 3.94771E-25
4.91274E-01 3.84749E-25
4.95637E-01 3.75004E-25
5.00000E-01 3.65527E-25
5.04363E-01 3.56310E-25
5.08726E-01 3.47345E-25
5.13088E-01 3.38625E-25
5.17450E-01 3.30140E-25
5.21810E-01 3.21885E-25
5.26168E-01 3.13851E-25
5.30524E-01 3.06033E-25
5.34878E-01 2.98424E-25
5.39230E-01 2.91017E-25
5.43578E-01 2.83806E-25
5.47923E-01 2.76786E-25
5.52264E-01 2.69950E-25
5.56602E-01 2.63293E-25
5.60935E-01 2.56810E-25
5.65263E-01 2.50496E-25
5.69587E-01 2.44345E-25
5.73905E-01 2.38353E-25
5.78217E-01 2.32516E-25
5.82524E-01 2.26828E-25
5.86824E-01 2.21285E-25
5.91118E-01 2.15884E-25
5.95404E-01 2.10620E-25
5.99684E-01 2.05489E-25
6.03956E-01 2.00487E-25
6.08220E-01 1.95611E-25
6.12476E-01 1.90857E-25
6.16723E-01 1.86222E-25
6.20961E-01 1.81702E-25
6.25190E-01 1.77294E-25
6.29410E-01 1.72996E-25
6.33619E-01 1.68803E-25
6.37819E-01 1.64713E-25
6.42008E-01 1.60724E-25
6.46186E-01 1.56831E-25
6.50353E-01 1.53034E-25
6.54508E-01 1.49329E-25
6.58652E-01 1.45713E-25
6.62784E-01 1.42185E-25
6.66903E-01 1.38741E-25
6.71010E-01 1.35380E-25
6.75104E-01 1.32100E-25
6.79184E-01 1.28897E-25
6.83251E-01 1.25771E-25
6.87303E-01 1.22719E-25
6.91342E-01 1.19739E-25
6.95366E-01 1.16830E-25
6.99375E-01 1.13989E-25
7.03368E-01 1.11214E-25
7.07347E-01 1.08505E-25
7.11309E-01 1.05859E-25
7.15256E-01 1.03274E-25
7.19186E-01 1.00749E-25
7.23099E-01 9.82832E-26
7.26995E-01 9.58741E-26
7.30874E-01 9.35205E-26
7.34736E-01 9.12210E-26
7.38579E-01 8.89742E-26
7.42405E-01 8.67789E-26
7.46212E-01 8.46338E-26
7.50000E-01 8.25375E-26
7.53769E-01 8.04889E-26
7.57519E-01 7.84869E-26
7.61249E-01 7.65301E-26
7.64960E-01 7.46176E-26
7.68650E-01 7.27482E-26
7.72320E-01 7.09209E-26
7.75968E-01 6.91347E-26
7.79596E-01 6.73886E-26
7.83203E-01 6.56815E-26
7.86788E-01 6.40127E-26
7.90351E-01 6.23810E-26
7.93893E-01 6.07858E-26
7.97411E-01 5.92260E-26
8.00908E-01 5.77009E-26
8.04381E-01 5.62097E-26
8.07831E-01 5.47515E-26
8.11257E-01 5.33255E-26
8.14660E-01 5.19311E-26
8.18039E-01 5.05675E-26
8.21394E-01 4.92340E-26
8.24724E-01 4.79299E-26
8.28030E-01 4.66545E-26
8.31310E-01 4.54072E-26
8.34565E-01 4.41873E-26
8.37795E-01 4.29942E-26
8.40999E-01 4.18274E-26
8.44177E-01 4.06861E-26
8.47329E-01 3.95700E-26
8.50455E-01 3.84783E-26
8.53553E-01 3.74106E-26
8.56625E-01 3.63664E-26
8.59670E-01 3.53451E-26
8.62687E-01 3.43462E-26
8.65677E-01 3.33693E-26
8.68639E-01 3.24138E-26
8.71572E-01 3.14794E-26
8.74478E-01 3.05656E-26
8.77355E-01 2.96719E-26
8.80203E-01 2.87979E-26
8.83022E-01 2.79433E-26
8.85812E-01 2.71076E-26
8.88573E-01 2.62904E-26
8.91304E-01 2.54913E-26
8.94005E-01 2.47101E-26
8.96677E-01 2.39462E-26
8.99318E-01 2.31995E-26
9.01928E-01 2.24694E-26
9.04508E-01 2.17558E-26
9.07058E-01 2.10583E-26
9.09576E-01 2.03765E-26
9.12063E-01 1.97102E-26
9.14519E-01 1.90591E-26
9.16943E-01 1.84228E-26
9.19335E-01 1.78012E-26
9.21696E-01 1.71939E-26
9.24024E-01 1.66007E-26
9.26320E-01 1.60213E-26
9.28584E-01 1.54554E-26
9.30815E-01 1.49029E-26
9.33013E-01 1.43634E-26
9.35178E-01 1.38368E-26
9.37310E-01 1.33228E-26
9.39409E-01 1.28212E-26
9.41474E-01 1.23318E-26
9.43505E-01 1.18544E-26
9.45503E-01 1.13888E-26
9.47467E-01 1.09348E-26
9.49397E-01 1.04922E-26
9.51293E-01 1.00608E-26
9.53154E-01 9.64049E-27
9.54981E-01 9.23103E-27
9.56773E-01 8.83227E-27
9.58530E-01 8.44406E-27
9.60252E-01 8.06623E-27
9.61940E-01 7.69863E-27
9.63592E-01 7.34112E-27
9.65209E-01 6.99354E-27
9.66790E-01 6.65576E-27
9.68336E-01 6.32765E-27
9.69846E-01 6.00907E-27
9.71321E-01 5.69990E-27
9.72759E-01 5.40001E-27
9.74162E-01 5.10929E-27
9.75528E-01 4.82761E-27
9.76858E-01 4.55488E-27
9.78152E-01 4.29098E-27
9.79410E-01 4.03581E-27
9.80631E-01 3.78927E-27
9.81815E-01 3.55127E-27
9.82963E-01 3.32171E-27
9.84074E-01 3.10050E-27
9.85148E-01 2.88756E-27
9.86185E-01 2.68280E-27
9.87185E-01 2.48615E-27
9.88148E-01 2.29753E-27
9.89074E-01 2.11688E-27
9.89962E-01 1.94411E-27
9.90814E-01 1.77917E-27
9.91627E-01 1.62198E-27
9.92404E-01 1.47250E-27
9.93143E-01 1.33067E-27
9.93844E-01 1.19642E-27
9.94508E-01 1.06972E-27
9.95134E-01 9.50509E-28
9.95722E-01 8.38745E-28
9.96273E-01 7.34387E-28
9.96786E-01 6.37395E-28
9.97261E-01 5.47732E-28
9.97698E-01 4.65366E-28
9.98097E-01 3.90265E-28
9.98459E-01 3.22400E-28
9.98782E-01 2.61748E-28
9.99067E-01 2.08284E-28
9.99315E-01 1.61989E-28
9.99524E-01 1.22845E-28
9.99695E-01 9.08387E-29
9.99829E-01 6.59571E-29
9.99924E-01 4.81911E-29
9.99981E-01 3.75342E-29
1.00000E+00 3.39824E-29
