 #
 # Subroutine ELSEPA. Elastic scattering of electrons and positrons
 #                    by neutral atoms and positive ions
 #
 # Projectile: electron
 # Kinetic energy = 6.00000E+07 eV = 2.20496E+06 a.u.
 #
 # WARNING: High-energy factorization with free-atom DF screening.
 #          Absorption, polarization and exchange corrections are
 #          switched off.
 #          Phase shifts are calculated for the bare nucleus.
 #          Scattering amplitudes are not evaluated.
 #
 # Element: Po,  Z =  84,  atomic weight = 2.08982E+02 g/mol
 #
 # Nuclear model: Fermi distribution
 #                Average radius = 6.34971E-13 cm
 #                Skin thickness = 5.46000E-14 cm
 #
 # Number of electrons = 84
 #
 # Total elastic cross section = 9.14222E-18 cm**2 = 3.26475E-01 a0**2
 # 1st transport cross section = 3.67371E-24 cm**2 = 1.31191E-07 a0**2
 # 2nd transport cross section = 1.08177E-23 cm**2 = 3.86307E-07 a0**2
 #
 #
 # Differential cross section:                       MU=(1-COS(THETA))/2
 #
 #  THETA        MU          DCS          DCS        Sherman      error
 #  (deg)                 (cm**2/sr)   (a0**2/sr)    function
 #----------------------------------------------------------------------
0.00000E+00 2.38012E-10
7.61557E-13 2.37830E-10
1.18994E-12 2.37729E-10
1.71346E-12 2.37604E-10
2.33225E-12 2.37458E-10
3.04617E-12 2.37289E-10
3.85530E-12 2.37098E-10
4.75964E-12 2.36885E-10
5.75917E-12 2.36650E-10
6.85391E-12 2.36393E-10
8.04379E-12 2.36115E-10
9.32893E-12 2.35814E-10
1.07092E-11 2.35492E-10
1.21847E-11 2.35149E-10
1.37554E-11 2.34784E-10
1.54213E-11 2.34398E-10
1.71823E-11 2.33992E-10
1.90386E-11 2.33565E-10
2.09900E-11 2.33117E-10
2.30367E-11 2.32649E-10
2.51785E-11 2.32160E-10
2.74156E-11 2.31652E-10
2.97478E-11 2.31125E-10
3.21752E-11 2.30577E-10
3.46979E-11 2.30011E-10
3.73157E-11 2.29425E-10
4.00286E-11 2.28821E-10
4.28368E-11 2.28199E-10
4.57402E-11 2.27558E-10
4.87388E-11 2.26899E-10
5.18325E-11 2.26222E-10
5.50215E-11 2.25529E-10
5.83057E-11 2.24818E-10
6.16850E-11 2.24090E-10
6.51595E-11 2.23339E-10
6.87293E-11 2.22569E-10
7.23943E-11 2.21787E-10
7.61544E-11 2.20991E-10
1.18991E-10 2.12277E-10
1.71347E-10 2.02374E-10
2.33223E-10 1.91621E-10
3.04617E-10 1.80348E-10
3.85531E-10 1.68852E-10
4.75965E-10 1.57376E-10
5.75917E-10 1.46109E-10
6.85389E-10 1.35250E-10
8.04380E-10 1.24917E-10
9.32891E-10 1.15187E-10
1.07092E-09 1.06101E-10
1.21847E-09 9.76769E-11
1.37554E-09 8.99084E-11
1.54213E-09 8.27753E-11
1.71823E-09 7.62474E-11
1.90386E-09 7.02795E-11
2.09900E-09 6.48352E-11
2.30367E-09 5.98801E-11
2.51785E-09 5.53722E-11
2.74156E-09 5.12711E-11
2.97478E-09 4.75387E-11
3.21752E-09 4.41394E-11
3.46978E-09 4.10406E-11
3.73156E-09 3.82126E-11
4.00286E-09 3.56283E-11
4.28368E-09 3.32600E-11
4.57402E-09 3.10890E-11
4.87388E-09 2.90968E-11
5.18326E-09 2.72656E-11
5.50215E-09 2.55797E-11
5.83057E-09 2.40252E-11
6.16850E-09 2.25895E-11
6.51596E-09 2.11869E-11
6.87293E-09 1.98836E-11
7.23942E-09 1.87012E-11
7.61544E-09 1.76261E-11
1.18991E-08 1.03352E-11
1.71347E-08 6.43976E-12
2.33223E-08 4.21106E-12
3.04617E-08 2.87124E-12
3.85531E-08 2.03013E-12
4.75965E-08 1.47946E-12
5.75917E-08 1.10459E-12
6.85389E-08 8.41846E-13
8.04380E-08 6.52481E-13
9.32891E-08 5.12911E-13
1.07092E-07 4.08186E-13
1.21847E-07 3.28458E-13
1.37554E-07 2.67015E-13
1.54213E-07 2.19271E-13
1.71823E-07 1.81483E-13
1.90386E-07 1.51486E-13
2.09900E-07 1.27512E-13
2.30367E-07 1.08179E-13
2.51785E-07 9.24293E-14
2.74156E-07 7.94770E-14
2.97478E-07 6.87341E-14
3.21752E-07 5.97584E-14
3.46978E-07 5.22117E-14
3.73156E-07 4.58304E-14
4.00286E-07 4.04050E-14
4.28368E-07 3.57653E-14
4.57402E-07 3.17781E-14
4.87388E-07 2.83343E-14
5.18325E-07 2.53458E-14
5.50215E-07 2.27414E-14
5.83057E-07 2.04633E-14
6.16850E-07 1.84637E-14
6.51596E-07 1.66937E-14
6.87293E-07 1.51346E-14
7.23942E-07 1.37616E-14
7.61543E-07 1.25460E-14
1.18991E-06 5.48566E-15
1.71347E-06 2.76737E-15
2.33223E-06 1.54205E-15
3.04617E-06 9.25308E-16
3.85531E-06 5.88233E-16
4.75964E-06 3.91734E-16
5.75916E-06 2.70956E-16
6.85388E-06 1.93389E-16
8.04378E-06 1.41707E-16
9.32888E-06 1.06190E-16
1.07092E-05 8.11306E-17
1.21846E-05 6.30401E-17
1.37553E-05 4.97166E-17
1.54212E-05 3.97304E-17
1.71822E-05 3.21280E-17
1.90385E-05 2.62421E-17
2.09899E-05 2.16726E-17
2.30365E-05 1.80516E-17
2.51783E-05 1.51512E-17
2.74153E-05 1.28067E-17
2.97475E-05 1.08969E-17
3.21749E-05 9.33021E-18
3.46974E-05 8.03619E-18
3.73152E-05 6.96010E-18
4.00281E-05 6.05914E-18
4.28362E-05 5.29977E-18
4.57395E-05 4.65577E-18
4.87380E-05 4.10653E-18
5.18317E-05 3.63573E-18
5.50205E-05 3.23038E-18
5.83045E-05 2.87995E-18
6.16838E-05 2.57585E-18
6.51582E-05 2.31094E-18
6.87277E-05 2.07934E-18
7.23925E-05 1.87611E-18
7.61524E-05 1.69645E-18
9.21439E-05 1.16284E-18
1.09658E-04 8.23570E-19
1.28695E-04 5.99589E-19
1.49255E-04 4.46866E-19
1.71338E-04 3.39854E-19
1.94942E-04 2.63066E-19
2.20070E-04 2.06809E-19
2.46720E-04 1.64832E-19
2.74892E-04 1.32998E-19
3.04586E-04 1.08500E-19
3.35803E-04 8.93997E-20
3.68542E-04 7.43297E-20
4.02802E-04 6.23108E-20
4.38585E-04 5.26307E-20
4.75889E-04 4.47631E-20
5.14715E-04 3.83158E-20
5.55063E-04 3.29911E-20
5.96931E-04 2.85626E-20
6.40321E-04 2.48549E-20
6.85233E-04 2.17315E-20
7.31665E-04 1.90854E-20
7.79618E-04 1.68313E-20
8.29092E-04 1.49016E-20
8.80086E-04 1.32418E-20
9.32601E-04 1.18076E-20
9.86636E-04 1.05634E-20
1.04219E-03 9.47945E-21
1.09927E-03 8.53174E-21
1.15786E-03 7.70011E-21
1.21797E-03 6.96790E-21
1.27961E-03 6.32116E-21
1.34276E-03 5.74815E-21
1.40743E-03 5.23899E-21
1.47362E-03 4.78530E-21
1.54133E-03 4.37999E-21
1.61056E-03 4.01695E-21
1.68131E-03 3.69101E-21
1.75357E-03 3.39769E-21
1.82735E-03 3.13313E-21
1.90265E-03 2.89401E-21
1.97947E-03 2.67744E-21
2.05780E-03 2.48090E-21
2.13765E-03 2.30221E-21
2.21902E-03 2.13945E-21
2.30190E-03 1.99093E-21
2.38630E-03 1.85518E-21
2.47222E-03 1.73091E-21
2.55965E-03 1.61695E-21
2.64859E-03 1.51231E-21
2.73905E-03 1.41605E-21
2.83103E-03 1.32742E-21
2.92452E-03 1.24567E-21
3.01952E-03 1.17017E-21
3.11604E-03 1.10037E-21
3.21407E-03 1.03573E-21
3.31362E-03 9.75827E-22
3.41468E-03 9.20229E-22
3.51725E-03 8.68574E-22
3.62133E-03 8.20529E-22
3.72692E-03 7.75792E-22
3.83403E-03 7.34095E-22
3.94265E-03 6.95189E-22
4.05278E-03 6.58854E-22
4.16442E-03 6.24886E-22
4.27757E-03 5.93102E-22
4.39223E-03 5.63335E-22
4.50840E-03 5.35431E-22
4.62608E-03 5.09252E-22
4.74527E-03 4.84670E-22
4.86597E-03 4.61570E-22
4.98817E-03 4.39843E-22
5.11188E-03 4.19395E-22
5.23711E-03 4.00133E-22
5.36383E-03 3.81977E-22
5.49207E-03 3.64850E-22
5.62181E-03 3.48682E-22
5.75306E-03 3.33410E-22
5.88581E-03 3.18974E-22
6.02007E-03 3.05319E-22
6.15583E-03 2.92395E-22
6.29310E-03 2.80155E-22
6.43187E-03 2.68556E-22
6.57214E-03 2.57558E-22
6.71392E-03 2.47124E-22
6.85720E-03 2.37218E-22
7.00198E-03 2.27810E-22
7.14827E-03 2.18869E-22
7.29605E-03 2.10369E-22
7.44534E-03 2.02284E-22
7.59612E-03 1.94581E-22
7.97965E-03 1.76878E-22
8.37255E-03 1.61161E-22
8.77480E-03 1.47166E-22
9.18641E-03 1.34670E-22
9.60736E-03 1.23482E-22
1.00376E-02 1.13442E-22
1.04773E-02 1.04408E-22
1.09262E-02 9.62619E-23
1.13844E-02 8.88995E-23
1.18520E-02 8.22315E-23
1.23288E-02 7.61801E-23
1.28150E-02 7.06776E-23
1.33104E-02 6.56648E-23
1.38150E-02 6.10899E-23
1.43290E-02 5.69074E-23
1.48521E-02 5.30773E-23
1.53845E-02 4.95643E-23
1.59262E-02 4.63371E-23
1.64770E-02 4.33681E-23
1.70371E-02 4.06327E-23
1.76063E-02 3.81090E-23
1.81848E-02 3.57775E-23
1.87724E-02 3.36208E-23
1.93692E-02 3.16233E-23
1.99751E-02 2.97710E-23
2.05901E-02 2.80513E-23
2.12143E-02 2.64530E-23
2.18476E-02 2.49658E-23
2.24900E-02 2.35806E-23
2.31415E-02 2.22890E-23
2.38021E-02 2.10835E-23
2.44717E-02 1.99572E-23
2.51504E-02 1.89041E-23
2.58382E-02 1.79184E-23
2.65349E-02 1.69949E-23
2.72407E-02 1.61291E-23
2.79555E-02 1.53167E-23
2.86793E-02 1.45537E-23
2.94120E-02 1.38366E-23
3.01537E-02 1.31620E-23
3.09043E-02 1.25271E-23
3.16639E-02 1.19290E-23
3.24324E-02 1.13652E-23
3.32098E-02 1.08334E-23
3.39961E-02 1.03314E-23
3.47912E-02 9.85723E-24
3.55952E-02 9.40909E-24
3.64081E-02 8.98528E-24
3.72297E-02 8.58423E-24
3.80602E-02 8.20449E-24
3.88995E-02 7.84474E-24
3.97476E-02 7.50373E-24
4.06044E-02 7.18030E-24
4.14700E-02 6.87340E-24
4.23443E-02 6.58201E-24
4.32273E-02 6.30522E-24
4.41190E-02 6.04217E-24
4.50194E-02 5.79205E-24
4.59284E-02 5.55412E-24
4.68461E-02 5.32768E-24
4.87074E-02 4.90671E-24
5.06030E-02 4.52440E-24
5.25328E-02 4.17665E-24
5.44967E-02 3.85981E-24
5.64946E-02 3.57071E-24
5.85262E-02 3.30654E-24
6.05914E-02 3.06481E-24
6.26901E-02 2.84332E-24
6.48222E-02 2.64011E-24
6.69873E-02 2.45345E-24
6.91854E-02 2.28180E-24
7.14163E-02 2.12376E-24
7.36799E-02 1.97810E-24
7.59760E-02 1.84371E-24
7.83043E-02 1.71959E-24
8.06647E-02 1.60486E-24
8.30571E-02 1.49870E-24
8.54812E-02 1.40038E-24
8.79369E-02 1.30925E-24
9.04240E-02 1.22471E-24
9.29422E-02 1.14623E-24
9.54915E-02 1.07331E-24
9.80716E-02 1.00552E-24
1.00682E-01 9.42435E-25
1.03323E-01 8.83704E-25
1.05995E-01 8.28985E-25
1.08696E-01 7.77973E-25
1.11427E-01 7.30388E-25
1.14188E-01 6.85973E-25
1.16978E-01 6.44494E-25
1.19797E-01 6.05736E-25
1.22645E-01 5.69500E-25
1.25522E-01 5.35606E-25
1.28428E-01 5.03887E-25
1.31361E-01 4.74189E-25
1.34323E-01 4.46370E-25
1.37313E-01 4.20301E-25
1.40330E-01 3.95861E-25
1.43375E-01 3.72938E-25
1.46447E-01 3.51431E-25
1.49545E-01 3.31243E-25
1.52671E-01 3.12287E-25
1.55823E-01 2.94482E-25
1.59001E-01 2.77751E-25
1.62205E-01 2.62026E-25
1.65435E-01 2.47240E-25
1.68690E-01 2.33333E-25
1.71970E-01 2.20250E-25
1.75276E-01 2.07937E-25
1.78606E-01 1.96347E-25
1.81961E-01 1.85434E-25
1.85340E-01 1.75155E-25
1.88743E-01 1.65472E-25
1.92169E-01 1.56348E-25
1.95619E-01 1.47748E-25
1.99092E-01 1.39641E-25
2.02589E-01 1.31996E-25
2.06107E-01 1.24787E-25
2.09649E-01 1.17986E-25
2.13212E-01 1.11570E-25
2.16797E-01 1.05515E-25
2.20404E-01 9.97999E-26
2.24032E-01 9.44053E-26
2.27680E-01 8.93120E-26
2.31350E-01 8.45024E-26
2.35040E-01 7.99601E-26
2.38751E-01 7.56696E-26
2.42481E-01 7.16164E-26
2.46231E-01 6.77868E-26
2.50000E-01 6.41679E-26
2.53788E-01 6.07479E-26
2.57595E-01 5.75153E-26
2.61421E-01 5.44596E-26
2.65264E-01 5.15707E-26
2.69126E-01 4.88393E-26
2.73005E-01 4.62565E-26
2.76901E-01 4.38140E-26
2.80814E-01 4.15039E-26
2.84744E-01 3.93189E-26
2.88691E-01 3.72520E-26
2.92653E-01 3.52967E-26
2.96632E-01 3.34468E-26
3.00625E-01 3.16965E-26
3.04634E-01 3.00403E-26
3.08658E-01 2.84730E-26
3.12697E-01 2.69898E-26
3.16749E-01 2.55861E-26
3.20816E-01 2.42575E-26
3.24896E-01 2.29999E-26
3.28990E-01 2.18095E-26
3.33097E-01 2.06826E-26
3.37216E-01 1.96158E-26
3.41348E-01 1.86058E-26
3.45492E-01 1.76495E-26
3.49647E-01 1.67441E-26
3.53814E-01 1.58867E-26
3.57992E-01 1.50749E-26
3.62181E-01 1.43061E-26
3.66381E-01 1.35781E-26
3.70590E-01 1.28886E-26
3.74810E-01 1.22356E-26
3.79039E-01 1.16171E-26
3.83277E-01 1.10313E-26
3.87524E-01 1.04764E-26
3.91780E-01 9.95080E-27
3.96044E-01 9.45290E-27
4.00316E-01 8.98122E-27
4.04596E-01 8.53437E-27
4.08882E-01 8.11102E-27
4.13176E-01 7.70991E-27
4.17476E-01 7.32987E-27
4.21783E-01 6.96977E-27
4.26095E-01 6.62854E-27
4.30413E-01 6.30518E-27
4.34737E-01 5.99874E-27
4.39065E-01 5.70832E-27
4.43398E-01 5.43306E-27
4.47736E-01 5.17217E-27
4.52077E-01 4.92487E-27
4.56422E-01 4.69043E-27
4.60770E-01 4.46819E-27
4.65122E-01 4.25748E-27
4.69476E-01 4.05770E-27
4.73832E-01 3.86827E-27
4.78190E-01 3.68862E-27
4.82550E-01 3.51825E-27
4.86912E-01 3.35666E-27
4.91274E-01 3.20338E-27
4.95637E-01 3.05797E-27
5.00000E-01 2.92002E-27
5.04363E-01 2.78912E-27
5.08726E-01 2.66490E-27
5.13088E-01 2.54701E-27
5.17450E-01 2.43510E-27
5.21810E-01 2.32887E-27
5.26168E-01 2.22800E-27
5.30524E-01 2.13222E-27
5.34878E-01 2.04125E-27
5.39230E-01 1.95484E-27
5.43578E-01 1.87274E-27
5.47923E-01 1.79473E-27
5.52264E-01 1.72059E-27
5.56602E-01 1.65011E-27
5.60935E-01 1.58310E-27
5.65263E-01 1.51937E-27
5.69587E-01 1.45876E-27
5.73905E-01 1.40109E-27
5.78217E-01 1.34621E-27
5.82524E-01 1.29397E-27
5.86824E-01 1.24423E-27
5.91118E-01 1.19686E-27
5.95404E-01 1.15173E-27
5.99684E-01 1.10873E-27
6.03956E-01 1.06774E-27
6.08220E-01 1.02866E-27
6.12476E-01 9.91383E-28
6.16723E-01 9.55819E-28
6.20961E-01 9.21875E-28
6.25190E-01 8.89468E-28
6.29410E-01 8.58517E-28
6.33619E-01 8.28945E-28
6.37819E-01 8.00681E-28
6.42008E-01 7.73657E-28
6.46186E-01 7.47807E-28
6.50353E-01 7.23071E-28
6.54508E-01 6.99391E-28
6.58652E-01 6.76714E-28
6.62784E-01 6.54986E-28
6.66903E-01 6.34160E-28
6.71010E-01 6.14189E-28
6.75104E-01 5.95030E-28
6.79184E-01 5.76641E-28
6.83251E-01 5.58984E-28
6.87303E-01 5.42021E-28
6.91342E-01 5.25718E-28
6.95366E-01 5.10041E-28
6.99375E-01 4.94960E-28
7.03368E-01 4.80445E-28
7.07347E-01 4.66468E-28
7.11309E-01 4.53002E-28
7.15256E-01 4.40023E-28
7.19186E-01 4.27508E-28
7.23099E-01 4.15433E-28
7.26995E-01 4.03778E-28
7.30874E-01 3.92523E-28
7.34736E-01 3.81649E-28
7.38579E-01 3.71138E-28
7.42405E-01 3.60973E-28
7.46212E-01 3.51139E-28
7.50000E-01 3.41619E-28
7.53769E-01 3.32401E-28
7.57519E-01 3.23471E-28
7.61249E-01 3.14815E-28
7.64960E-01 3.06421E-28
7.68650E-01 2.98279E-28
7.72320E-01 2.90378E-28
7.75968E-01 2.82706E-28
7.79596E-01 2.75255E-28
7.83203E-01 2.68015E-28
7.86788E-01 2.60978E-28
7.90351E-01 2.54135E-28
7.93893E-01 2.47479E-28
7.97411E-01 2.41001E-28
8.00908E-01 2.34696E-28
8.04381E-01 2.28557E-28
8.07831E-01 2.22577E-28
8.11257E-01 2.16750E-28
8.14660E-01 2.11071E-28
8.18039E-01 2.05535E-28
8.21394E-01 2.00135E-28
8.24724E-01 1.94868E-28
8.28030E-01 1.89729E-28
8.31310E-01 1.84714E-28
8.34565E-01 1.79818E-28
8.37795E-01 1.75037E-28
8.40999E-01 1.70368E-28
8.44177E-01 1.65807E-28
8.47329E-01 1.61351E-28
8.50455E-01 1.56997E-28
8.53553E-01 1.52742E-28
8.56625E-01 1.48582E-28
8.59670E-01 1.44515E-28
8.62687E-01 1.40538E-28
8.65677E-01 1.36649E-28
8.68639E-01 1.32846E-28
8.71572E-01 1.29125E-28
8.74478E-01 1.25486E-28
8.77355E-01 1.21925E-28
8.80203E-01 1.18442E-28
8.83022E-01 1.15033E-28
8.85812E-01 1.11697E-28
8.88573E-01 1.08433E-28
8.91304E-01 1.05238E-28
8.94005E-01 1.02112E-28
8.96677E-01 9.90525E-29
8.99318E-01 9.60580E-29
9.01928E-01 9.31273E-29
9.04508E-01 9.02591E-29
9.07058E-01 8.74520E-29
9.09576E-01 8.47048E-29
9.12063E-01 8.20164E-29
9.14519E-01 7.93855E-29
9.16943E-01 7.68112E-29
9.19335E-01 7.42923E-29
9.21696E-01 7.18279E-29
9.24024E-01 6.94170E-29
9.26320E-01 6.70586E-29
9.28584E-01 6.47518E-29
9.30815E-01 6.24958E-29
9.33013E-01 6.02897E-29
9.35178E-01 5.81328E-29
9.37310E-01 5.60242E-29
9.39409E-01 5.39633E-29
9.41474E-01 5.19492E-29
9.43505E-01 4.99813E-29
9.45503E-01 4.80590E-29
9.47467E-01 4.61815E-29
9.49397E-01 4.43483E-29
9.51293E-01 4.25587E-29
9.53154E-01 4.08122E-29
9.54981E-01 3.91082E-29
9.56773E-01 3.74461E-29
9.58530E-01 3.58255E-29
9.60252E-01 3.42459E-29
9.61940E-01 3.27067E-29
9.63592E-01 3.12074E-29
9.65209E-01 2.97477E-29
9.66790E-01 2.83271E-29
9.68336E-01 2.69451E-29
9.69846E-01 2.56014E-29
9.71321E-01 2.42956E-29
9.72759E-01 2.30272E-29
9.74162E-01 2.17960E-29
9.75528E-01 2.06015E-29
9.76858E-01 1.94434E-29
9.78152E-01 1.83214E-29
9.79410E-01 1.72352E-29
9.80631E-01 1.61845E-29
9.81815E-01 1.51689E-29
9.82963E-01 1.41883E-29
9.84074E-01 1.32422E-29
9.85148E-01 1.23306E-29
9.86185E-01 1.14531E-29
9.87185E-01 1.06094E-29
9.88148E-01 9.79946E-30
9.89074E-01 9.02293E-30
9.89962E-01 8.27964E-30
9.90814E-01 7.56939E-30
9.91627E-01 6.89198E-30
9.92404E-01 6.24725E-30
9.93143E-01 5.63502E-30
9.93844E-01 5.05512E-30
9.94508E-01 4.50742E-30
9.95134E-01 3.99177E-30
9.95722E-01 3.50803E-30
9.96273E-01 3.05608E-30
9.96786E-01 2.63579E-30
9.97261E-01 2.24707E-30
9.97698E-01 1.88982E-30
9.98097E-01 1.56393E-30
9.98459E-01 1.26933E-30
9.98782E-01 1.00594E-30
9.99067E-01 7.73702E-31
9.99315E-01 5.72544E-31
9.99524E-01 4.02420E-31
9.99695E-01 2.63287E-31
9.99829E-01 1.55109E-31
9.99924E-01 7.78587E-32
9.99981E-01 3.15163E-32
1.00000E+00 1.60700E-32
