 #
 # Subroutine ELSEPA. Elastic scattering of electrons and positrons
 #                    by neutral atoms and positive ions
 #
 # Projectile: electron
 # Kinetic energy = 1.75000E+06 eV = 6.43113E+04 a.u.
 #
 # WARNING: High-energy factorization with free-atom DF screening.
 #          Absorption, polarization and exchange corrections are
 #          switched off.
 #          Phase shifts are calculated for the bare nucleus.
 #          Scattering amplitudes are not evaluated.
 #
 # Element: Tm,  Z =  69,  atomic weight = 1.68934E+02 g/mol
 #
 # Nuclear model: Fermi distribution
 #                Average radius = 5.91502E-13 cm
 #                Skin thickness = 5.46000E-14 cm
 #
 # Number of electrons = 69
 #
 # Total elastic cross section = 7.42491E-18 cm**2 = 2.65148E-01 a0**2
 # 1st transport cross section = 1.45165E-21 cm**2 = 5.18394E-05 a0**2
 # 2nd transport cross section = 3.87278E-21 cm**2 = 1.38300E-04 a0**2
 #
 #
 # Differential cross section:                       MU=(1-COS(THETA))/2
 #
 #  THETA        MU          DCS          DCS        Sherman      error
 #  (deg)                 (cm**2/sr)   (a0**2/sr)    function
 #----------------------------------------------------------------------
0.00000E+00 3.54961E-13
7.61557E-13 3.54960E-13
1.18994E-12 3.54960E-13
1.71346E-12 3.54959E-13
2.33225E-12 3.54959E-13
3.04617E-12 3.54958E-13
3.85530E-12 3.54957E-13
4.75964E-12 3.54956E-13
5.75917E-12 3.54956E-13
6.85391E-12 3.54954E-13
8.04379E-12 3.54953E-13
9.32893E-12 3.54952E-13
1.07092E-11 3.54951E-13
1.21847E-11 3.54949E-13
1.37554E-11 3.54948E-13
1.54213E-11 3.54946E-13
1.71823E-11 3.54944E-13
1.90386E-11 3.54943E-13
2.09900E-11 3.54941E-13
2.30367E-11 3.54939E-13
2.51785E-11 3.54937E-13
2.74156E-11 3.54934E-13
2.97478E-11 3.54932E-13
3.21752E-11 3.54930E-13
3.46979E-11 3.54927E-13
3.73157E-11 3.54925E-13
4.00286E-11 3.54922E-13
4.28368E-11 3.54919E-13
4.57402E-11 3.54917E-13
4.87388E-11 3.54914E-13
5.18325E-11 3.54911E-13
5.50215E-11 3.54907E-13
5.83057E-11 3.54904E-13
6.16850E-11 3.54901E-13
6.51595E-11 3.54897E-13
6.87293E-11 3.54894E-13
7.23943E-11 3.54890E-13
7.61544E-11 3.54887E-13
1.18991E-10 3.54844E-13
1.71347E-10 3.54793E-13
2.33223E-10 3.54732E-13
3.04617E-10 3.54661E-13
3.85531E-10 3.54581E-13
4.75965E-10 3.54492E-13
5.75917E-10 3.54393E-13
6.85389E-10 3.54285E-13
8.04380E-10 3.54168E-13
9.32891E-10 3.54041E-13
1.07092E-09 3.53905E-13
1.21847E-09 3.53760E-13
1.37554E-09 3.53605E-13
1.54213E-09 3.53441E-13
1.71823E-09 3.53268E-13
1.90386E-09 3.53085E-13
2.09900E-09 3.52893E-13
2.30367E-09 3.52692E-13
2.51785E-09 3.52482E-13
2.74156E-09 3.52263E-13
2.97478E-09 3.52035E-13
3.21752E-09 3.51798E-13
3.46978E-09 3.51551E-13
3.73156E-09 3.51296E-13
4.00286E-09 3.51032E-13
4.28368E-09 3.50758E-13
4.57402E-09 3.50476E-13
4.87388E-09 3.50185E-13
5.18326E-09 3.49885E-13
5.50215E-09 3.49577E-13
5.83057E-09 3.49259E-13
6.16850E-09 3.48933E-13
6.51596E-09 3.48599E-13
6.87293E-09 3.48255E-13
7.23942E-09 3.47903E-13
7.61544E-09 3.47543E-13
1.18991E-08 3.43481E-13
1.71347E-08 3.38624E-13
2.33223E-08 3.33032E-13
3.04617E-08 3.26773E-13
3.85531E-08 3.19919E-13
4.75965E-08 3.12549E-13
5.75917E-08 3.04769E-13
6.85389E-08 2.96583E-13
8.04380E-08 2.88133E-13
9.32891E-08 2.79477E-13
1.07092E-07 2.70629E-13
1.21847E-07 2.61796E-13
1.37554E-07 2.52881E-13
1.54213E-07 2.44041E-13
1.71823E-07 2.35297E-13
1.90386E-07 2.26624E-13
2.09900E-07 2.18227E-13
2.30367E-07 2.09952E-13
2.51785E-07 2.01941E-13
2.74156E-07 1.94180E-13
2.97478E-07 1.86621E-13
3.21752E-07 1.79432E-13
3.46978E-07 1.72449E-13
3.73156E-07 1.65782E-13
4.00286E-07 1.59400E-13
4.28368E-07 1.53251E-13
4.57402E-07 1.47454E-13
4.87388E-07 1.41869E-13
5.18325E-07 1.36575E-13
5.50215E-07 1.31534E-13
5.83057E-07 1.26705E-13
6.16850E-07 1.22162E-13
6.51596E-07 1.17805E-13
6.87293E-07 1.13680E-13
7.23942E-07 1.09757E-13
7.61543E-07 1.06010E-13
1.18991E-06 7.72054E-14
1.71347E-06 5.87325E-14
2.33223E-06 4.59593E-14
3.04617E-06 3.65805E-14
3.85531E-06 2.94346E-14
4.75964E-06 2.38612E-14
5.75916E-06 1.92396E-14
6.85388E-06 1.59311E-14
8.04378E-06 1.32258E-14
9.32888E-06 1.10203E-14
1.07092E-05 9.34270E-15
1.21846E-05 7.86262E-15
1.37553E-05 6.71735E-15
1.54212E-05 5.75803E-15
1.71822E-05 4.95697E-15
1.90385E-05 4.30880E-15
2.09899E-05 3.73847E-15
2.30365E-05 3.27336E-15
2.51783E-05 2.87092E-15
2.74153E-05 2.52501E-15
2.97475E-05 2.23495E-15
3.21749E-05 1.97485E-15
3.46974E-05 1.75613E-15
3.73152E-05 1.56415E-15
4.00281E-05 1.39670E-15
4.28362E-05 1.25283E-15
4.57395E-05 1.12336E-15
4.87380E-05 1.01167E-15
5.18317E-05 9.12423E-16
5.50205E-05 8.24709E-16
5.83045E-05 7.47877E-16
6.16838E-05 6.78686E-16
6.51582E-05 6.17941E-16
6.87277E-05 5.63592E-16
7.23925E-05 5.15113E-16
7.61524E-05 4.72017E-16
9.21439E-05 3.38571E-16
1.09658E-04 2.49897E-16
1.28695E-04 1.88956E-16
1.49255E-04 1.45764E-16
1.71338E-04 1.14538E-16
1.94942E-04 9.13478E-17
2.20070E-04 7.37807E-17
2.46720E-04 6.02385E-17
2.74892E-04 4.96455E-17
3.04586E-04 4.12850E-17
3.35803E-04 3.46054E-17
3.68542E-04 2.92209E-17
4.02802E-04 2.48395E-17
4.38585E-04 2.12414E-17
4.75889E-04 1.82691E-17
5.14715E-04 1.57873E-17
5.55063E-04 1.37280E-17
5.96931E-04 1.19892E-17
6.40321E-04 1.05164E-17
6.85233E-04 9.26909E-18
7.31665E-04 8.19411E-18
7.79618E-04 7.27544E-18
8.29092E-04 6.48087E-18
8.80086E-04 5.79215E-18
9.32601E-04 5.19472E-18
9.86636E-04 4.67007E-18
1.04219E-03 4.21196E-18
1.09927E-03 3.80822E-18
1.15786E-03 3.45195E-18
1.21797E-03 3.13729E-18
1.27961E-03 2.85682E-18
1.34276E-03 2.60787E-18
1.40743E-03 2.38525E-18
1.47362E-03 2.18601E-18
1.54133E-03 2.00757E-18
1.61056E-03 1.84659E-18
1.68131E-03 1.70187E-18
1.75357E-03 1.57093E-18
1.82735E-03 1.45243E-18
1.90265E-03 1.34510E-18
1.97947E-03 1.24732E-18
2.05780E-03 1.15850E-18
2.13765E-03 1.07738E-18
2.21902E-03 1.00329E-18
2.30190E-03 9.35567E-19
2.38630E-03 8.73366E-19
2.47222E-03 8.16378E-19
2.55965E-03 7.63924E-19
2.64859E-03 7.15649E-19
2.73905E-03 6.71189E-19
2.83103E-03 6.30073E-19
2.92452E-03 5.92134E-19
3.01952E-03 5.56983E-19
3.11604E-03 5.24424E-19
3.21407E-03 4.94246E-19
3.31362E-03 4.66176E-19
3.41468E-03 4.40118E-19
3.51725E-03 4.15839E-19
3.62133E-03 3.93228E-19
3.72692E-03 3.72154E-19
3.83403E-03 3.52455E-19
3.94265E-03 3.34073E-19
4.05278E-03 3.16864E-19
4.16442E-03 3.00760E-19
4.27757E-03 2.85680E-19
4.39223E-03 2.71524E-19
4.50840E-03 2.58253E-19
4.62608E-03 2.45778E-19
4.74527E-03 2.34055E-19
4.86597E-03 2.23033E-19
4.98817E-03 2.12646E-19
5.11188E-03 2.02871E-19
5.23711E-03 1.93647E-19
5.36383E-03 1.84949E-19
5.49207E-03 1.76739E-19
5.62181E-03 1.68978E-19
5.75306E-03 1.61647E-19
5.88581E-03 1.54709E-19
6.02007E-03 1.48143E-19
6.15583E-03 1.41927E-19
6.29310E-03 1.36032E-19
6.43187E-03 1.30447E-19
6.57214E-03 1.25145E-19
6.71392E-03 1.20114E-19
6.85720E-03 1.15336E-19
7.00198E-03 1.10794E-19
7.14827E-03 1.06477E-19
7.29605E-03 1.02369E-19
7.44534E-03 9.84605E-20
7.59612E-03 9.47393E-20
7.97965E-03 8.61831E-20
8.37255E-03 7.85818E-20
8.77480E-03 7.18097E-20
9.18641E-03 6.57603E-20
9.60736E-03 6.03426E-20
1.00376E-02 5.54788E-20
1.04773E-02 5.11019E-20
1.09262E-02 4.71543E-20
1.13844E-02 4.35863E-20
1.18520E-02 4.03545E-20
1.23288E-02 3.74216E-20
1.28150E-02 3.47546E-20
1.33104E-02 3.23250E-20
1.38150E-02 3.01078E-20
1.43290E-02 2.80808E-20
1.48521E-02 2.62248E-20
1.53845E-02 2.45224E-20
1.59262E-02 2.29587E-20
1.64770E-02 2.15201E-20
1.70371E-02 2.01947E-20
1.76063E-02 1.89720E-20
1.81848E-02 1.78423E-20
1.87724E-02 1.67974E-20
1.93692E-02 1.58295E-20
1.99751E-02 1.49320E-20
2.05901E-02 1.40986E-20
2.12143E-02 1.33239E-20
2.18476E-02 1.26031E-20
2.24900E-02 1.19315E-20
2.31415E-02 1.13051E-20
2.38021E-02 1.07204E-20
2.44717E-02 1.01740E-20
2.51504E-02 9.66285E-21
2.58382E-02 9.18427E-21
2.65349E-02 8.73576E-21
2.72407E-02 8.31506E-21
2.79555E-02 7.92008E-21
2.86793E-02 7.54895E-21
2.94120E-02 7.19993E-21
3.01537E-02 6.87144E-21
3.09043E-02 6.56203E-21
3.16639E-02 6.27036E-21
3.24324E-02 5.99521E-21
3.32098E-02 5.73545E-21
3.39961E-02 5.49005E-21
3.47912E-02 5.25804E-21
3.55952E-02 5.03856E-21
3.64081E-02 4.83078E-21
3.72297E-02 4.63395E-21
3.80602E-02 4.44737E-21
3.88995E-02 4.27041E-21
3.97476E-02 4.10245E-21
4.06044E-02 3.94296E-21
4.14700E-02 3.79140E-21
4.23443E-02 3.64732E-21
4.32273E-02 3.51025E-21
4.41190E-02 3.37979E-21
4.50194E-02 3.25555E-21
4.59284E-02 3.13717E-21
4.68461E-02 3.02432E-21
4.87074E-02 2.81396E-21
5.06030E-02 2.62223E-21
5.25328E-02 2.44714E-21
5.44967E-02 2.28697E-21
5.64946E-02 2.14015E-21
5.85262E-02 2.00538E-21
6.05914E-02 1.88145E-21
6.26901E-02 1.76732E-21
6.48222E-02 1.66204E-21
6.69873E-02 1.56480E-21
6.91854E-02 1.47484E-21
7.14163E-02 1.39152E-21
7.36799E-02 1.31423E-21
7.59760E-02 1.24245E-21
7.83043E-02 1.17571E-21
8.06647E-02 1.11357E-21
8.30571E-02 1.05566E-21
8.54812E-02 1.00161E-21
8.79369E-02 9.51122E-22
9.04240E-02 9.03909E-22
9.29422E-02 8.59712E-22
9.54915E-02 8.18297E-22
9.80716E-02 7.79448E-22
1.00682E-01 7.42974E-22
1.03323E-01 7.08699E-22
1.05995E-01 6.76460E-22
1.08696E-01 6.46109E-22
1.11427E-01 6.17512E-22
1.14188E-01 5.90545E-22
1.16978E-01 5.65096E-22
1.19797E-01 5.41059E-22
1.22645E-01 5.18338E-22
1.25522E-01 4.96845E-22
1.28428E-01 4.76501E-22
1.31361E-01 4.57228E-22
1.34323E-01 4.38958E-22
1.37313E-01 4.21628E-22
1.40330E-01 4.05178E-22
1.43375E-01 3.89553E-22
1.46447E-01 3.74702E-22
1.49545E-01 3.60578E-22
1.52671E-01 3.47139E-22
1.55823E-01 3.34342E-22
1.59001E-01 3.22151E-22
1.62205E-01 3.10530E-22
1.65435E-01 2.99446E-22
1.68690E-01 2.88869E-22
1.71970E-01 2.78770E-22
1.75276E-01 2.69124E-22
1.78606E-01 2.59904E-22
1.81961E-01 2.51087E-22
1.85340E-01 2.42653E-22
1.88743E-01 2.34580E-22
1.92169E-01 2.26850E-22
1.95619E-01 2.19444E-22
1.99092E-01 2.12347E-22
2.02589E-01 2.05541E-22
2.06107E-01 1.99012E-22
2.09649E-01 1.92747E-22
2.13212E-01 1.86732E-22
2.16797E-01 1.80955E-22
2.20404E-01 1.75404E-22
2.24032E-01 1.70069E-22
2.27680E-01 1.64938E-22
2.31350E-01 1.60003E-22
2.35040E-01 1.55255E-22
2.38751E-01 1.50683E-22
2.42481E-01 1.46282E-22
2.46231E-01 1.42041E-22
2.50000E-01 1.37955E-22
2.53788E-01 1.34017E-22
2.57595E-01 1.30219E-22
2.61421E-01 1.26556E-22
2.65264E-01 1.23021E-22
2.69126E-01 1.19610E-22
2.73005E-01 1.16316E-22
2.76901E-01 1.13136E-22
2.80814E-01 1.10063E-22
2.84744E-01 1.07094E-22
2.88691E-01 1.04224E-22
2.92653E-01 1.01449E-22
2.96632E-01 9.87656E-23
3.00625E-01 9.61696E-23
3.04634E-01 9.36576E-23
3.08658E-01 9.12262E-23
3.12697E-01 8.88723E-23
3.16749E-01 8.65928E-23
3.20816E-01 8.43849E-23
3.24896E-01 8.22458E-23
3.28990E-01 8.01727E-23
3.33097E-01 7.81632E-23
3.37216E-01 7.62150E-23
3.41348E-01 7.43256E-23
3.45492E-01 7.24930E-23
3.49647E-01 7.07150E-23
3.53814E-01 6.89895E-23
3.57992E-01 6.73148E-23
3.62181E-01 6.56889E-23
3.66381E-01 6.41101E-23
3.70590E-01 6.25767E-23
3.74810E-01 6.10872E-23
3.79039E-01 5.96399E-23
3.83277E-01 5.82334E-23
3.87524E-01 5.68663E-23
3.91780E-01 5.55372E-23
3.96044E-01 5.42449E-23
4.00316E-01 5.29881E-23
4.04596E-01 5.17655E-23
4.08882E-01 5.05761E-23
4.13176E-01 4.94187E-23
4.17476E-01 4.82923E-23
4.21783E-01 4.71959E-23
4.26095E-01 4.61284E-23
4.30413E-01 4.50891E-23
4.34737E-01 4.40768E-23
4.39065E-01 4.30909E-23
4.43398E-01 4.21304E-23
4.47736E-01 4.11945E-23
4.52077E-01 4.02825E-23
4.56422E-01 3.93936E-23
4.60770E-01 3.85271E-23
4.65122E-01 3.76824E-23
4.69476E-01 3.68587E-23
4.73832E-01 3.60554E-23
4.78190E-01 3.52719E-23
4.82550E-01 3.45076E-23
4.86912E-01 3.37619E-23
4.91274E-01 3.30344E-23
4.95637E-01 3.23243E-23
5.00000E-01 3.16313E-23
5.04363E-01 3.09549E-23
5.08726E-01 3.02945E-23
5.13088E-01 2.96497E-23
5.17450E-01 2.90200E-23
5.21810E-01 2.84051E-23
5.26168E-01 2.78044E-23
5.30524E-01 2.72177E-23
5.34878E-01 2.66445E-23
5.39230E-01 2.60844E-23
5.43578E-01 2.55371E-23
5.47923E-01 2.50022E-23
5.52264E-01 2.44794E-23
5.56602E-01 2.39683E-23
5.60935E-01 2.34687E-23
5.65263E-01 2.29802E-23
5.69587E-01 2.25026E-23
5.73905E-01 2.20355E-23
5.78217E-01 2.15786E-23
5.82524E-01 2.11318E-23
5.86824E-01 2.06947E-23
5.91118E-01 2.02671E-23
5.95404E-01 1.98487E-23
5.99684E-01 1.94393E-23
6.03956E-01 1.90387E-23
6.08220E-01 1.86466E-23
6.12476E-01 1.82628E-23
6.16723E-01 1.78872E-23
6.20961E-01 1.75195E-23
6.25190E-01 1.71596E-23
6.29410E-01 1.68071E-23
6.33619E-01 1.64620E-23
6.37819E-01 1.61241E-23
6.42008E-01 1.57931E-23
6.46186E-01 1.54690E-23
6.50353E-01 1.51515E-23
6.54508E-01 1.48406E-23
6.58652E-01 1.45359E-23
6.62784E-01 1.42375E-23
6.66903E-01 1.39451E-23
6.71010E-01 1.36586E-23
6.75104E-01 1.33779E-23
6.79184E-01 1.31028E-23
6.83251E-01 1.28333E-23
6.87303E-01 1.25691E-23
6.91342E-01 1.23101E-23
6.95366E-01 1.20563E-23
6.99375E-01 1.18075E-23
7.03368E-01 1.15636E-23
7.07347E-01 1.13245E-23
7.11309E-01 1.10900E-23
7.15256E-01 1.08602E-23
7.19186E-01 1.06349E-23
7.23099E-01 1.04139E-23
7.26995E-01 1.01972E-23
7.30874E-01 9.98474E-24
7.34736E-01 9.77637E-24
7.38579E-01 9.57201E-24
7.42405E-01 9.37159E-24
7.46212E-01 9.17502E-24
7.50000E-01 8.98221E-24
7.53769E-01 8.79309E-24
7.57519E-01 8.60758E-24
7.61249E-01 8.42561E-24
7.64960E-01 8.24711E-24
7.68650E-01 8.07199E-24
7.72320E-01 7.90020E-24
7.75968E-01 7.73166E-24
7.79596E-01 7.56631E-24
7.83203E-01 7.40409E-24
7.86788E-01 7.24493E-24
7.90351E-01 7.08878E-24
7.93893E-01 6.93556E-24
7.97411E-01 6.78523E-24
8.00908E-01 6.63773E-24
8.04381E-01 6.49301E-24
8.07831E-01 6.35100E-24
8.11257E-01 6.21167E-24
8.14660E-01 6.07495E-24
8.18039E-01 5.94079E-24
8.21394E-01 5.80916E-24
8.24724E-01 5.68000E-24
8.28030E-01 5.55327E-24
8.31310E-01 5.42892E-24
8.34565E-01 5.30690E-24
8.37795E-01 5.18718E-24
8.40999E-01 5.06972E-24
8.44177E-01 4.95447E-24
8.47329E-01 4.84139E-24
8.50455E-01 4.73045E-24
8.53553E-01 4.62160E-24
8.56625E-01 4.51482E-24
8.59670E-01 4.41006E-24
8.62687E-01 4.30729E-24
8.65677E-01 4.20647E-24
8.68639E-01 4.10758E-24
8.71572E-01 4.01058E-24
8.74478E-01 3.91543E-24
8.77355E-01 3.82212E-24
8.80203E-01 3.73060E-24
8.83022E-01 3.64085E-24
8.85812E-01 3.55283E-24
8.88573E-01 3.46653E-24
8.91304E-01 3.38192E-24
8.94005E-01 3.29896E-24
8.96677E-01 3.21763E-24
8.99318E-01 3.13790E-24
9.01928E-01 3.05976E-24
9.04508E-01 2.98317E-24
9.07058E-01 2.90812E-24
9.09576E-01 2.83458E-24
9.12063E-01 2.76252E-24
9.14519E-01 2.69193E-24
9.16943E-01 2.62279E-24
9.19335E-01 2.55507E-24
9.21696E-01 2.48875E-24
9.24024E-01 2.42382E-24
9.26320E-01 2.36025E-24
9.28584E-01 2.29802E-24
9.30815E-01 2.23712E-24
9.33013E-01 2.17753E-24
9.35178E-01 2.11924E-24
9.37310E-01 2.06222E-24
9.39409E-01 2.00645E-24
9.41474E-01 1.95193E-24
9.43505E-01 1.89864E-24
9.45503E-01 1.84655E-24
9.47467E-01 1.79566E-24
9.49397E-01 1.74596E-24
9.51293E-01 1.69742E-24
9.53154E-01 1.65003E-24
9.54981E-01 1.60379E-24
9.56773E-01 1.55867E-24
9.58530E-01 1.51467E-24
9.60252E-01 1.47177E-24
9.61940E-01 1.42996E-24
9.63592E-01 1.38923E-24
9.65209E-01 1.34956E-24
9.66790E-01 1.31095E-24
9.68336E-01 1.27339E-24
9.69846E-01 1.23687E-24
9.71321E-01 1.20137E-24
9.72759E-01 1.16688E-24
9.74162E-01 1.13341E-24
9.75528E-01 1.10093E-24
9.76858E-01 1.06943E-24
9.78152E-01 1.03892E-24
9.79410E-01 1.00938E-24
9.80631E-01 9.80807E-25
9.81815E-01 9.53187E-25
9.82963E-01 9.26516E-25
9.84074E-01 9.00786E-25
9.85148E-01 8.75991E-25
9.86185E-01 8.52124E-25
9.87185E-01 8.29179E-25
9.88148E-01 8.07149E-25
9.89074E-01 7.86029E-25
9.89962E-01 7.65814E-25
9.90814E-01 7.46497E-25
9.91627E-01 7.28074E-25
9.92404E-01 7.10539E-25
9.93143E-01 6.93889E-25
9.93844E-01 6.78119E-25
9.94508E-01 6.63224E-25
9.95134E-01 6.49202E-25
9.95722E-01 6.36047E-25
9.96273E-01 6.23757E-25
9.96786E-01 6.12328E-25
9.97261E-01 6.01758E-25
9.97698E-01 5.92044E-25
9.98097E-01 5.83183E-25
9.98459E-01 5.75173E-25
9.98782E-01 5.68011E-25
9.99067E-01 5.61696E-25
9.99315E-01 5.56227E-25
9.99524E-01 5.51602E-25
9.99695E-01 5.47819E-25
9.99829E-01 5.44878E-25
9.99924E-01 5.42777E-25
9.99981E-01 5.41517E-25
1.00000E+00 5.41097E-25
