 #
 # Subroutine ELSEPA. Elastic scattering of electrons and positrons
 #                    by neutral atoms and positive ions
 #
 # Projectile: electron
 # Kinetic energy = 3.00000E+07 eV = 1.10248E+06 a.u.
 #
 # WARNING: High-energy factorization with free-atom DF screening.
 #          Absorption, polarization and exchange corrections are
 #          switched off.
 #          Phase shifts are calculated for the bare nucleus.
 #          Scattering amplitudes are not evaluated.
 #
 # Element: Tm,  Z =  69,  atomic weight = 1.68934E+02 g/mol
 #
 # Nuclear model: Fermi distribution
 #                Average radius = 5.91502E-13 cm
 #                Skin thickness = 5.46000E-14 cm
 #
 # Number of electrons = 69
 #
 # Total elastic cross section = 7.02748E-18 cm**2 = 2.50956E-01 a0**2
 # 1st transport cross section = 9.81356E-24 cm**2 = 3.50449E-07 a0**2
 # 2nd transport cross section = 2.82089E-23 cm**2 = 1.00736E-06 a0**2
 #
 #
 # Differential cross section:                       MU=(1-COS(THETA))/2
 #
 #  THETA        MU          DCS          DCS        Sherman      error
 #  (deg)                 (cm**2/sr)   (a0**2/sr)    function
 #----------------------------------------------------------------------
0.00000E+00 6.46387E-11
7.61557E-13 6.46121E-11
1.18994E-12 6.45972E-11
1.71346E-12 6.45790E-11
2.33225E-12 6.45575E-11
3.04617E-12 6.45327E-11
3.85530E-12 6.45047E-11
4.75964E-12 6.44733E-11
5.75917E-12 6.44388E-11
6.85391E-12 6.44009E-11
8.04379E-12 6.43599E-11
9.32893E-12 6.43155E-11
1.07092E-11 6.42680E-11
1.21847E-11 6.42173E-11
1.37554E-11 6.41634E-11
1.54213E-11 6.41062E-11
1.71823E-11 6.40460E-11
1.90386E-11 6.39825E-11
2.09900E-11 6.39160E-11
2.30367E-11 6.38463E-11
2.51785E-11 6.37735E-11
2.74156E-11 6.36976E-11
2.97478E-11 6.36187E-11
3.21752E-11 6.35367E-11
3.46979E-11 6.34517E-11
3.73157E-11 6.33637E-11
4.00286E-11 6.32727E-11
4.28368E-11 6.31788E-11
4.57402E-11 6.30819E-11
4.87388E-11 6.29821E-11
5.18325E-11 6.28794E-11
5.50215E-11 6.27739E-11
5.83057E-11 6.26655E-11
6.16850E-11 6.25543E-11
6.51595E-11 6.24403E-11
6.87293E-11 6.23236E-11
7.23943E-11 6.22042E-11
7.61544E-11 6.20820E-11
1.18991E-10 6.07189E-11
1.71347E-10 5.91211E-11
2.33223E-10 5.73239E-11
3.04617E-10 5.53711E-11
3.85531E-10 5.32815E-11
4.75965E-10 5.11192E-11
5.75917E-10 4.88920E-11
6.85389E-10 4.66537E-11
8.04380E-10 4.44173E-11
9.32891E-10 4.22140E-11
1.07092E-09 4.00662E-11
1.21847E-09 3.79780E-11
1.37554E-09 3.59835E-11
1.54213E-09 3.40609E-11
1.71823E-09 3.22542E-11
1.90386E-09 3.05296E-11
2.09900E-09 2.89142E-11
2.30367E-09 2.73906E-11
2.51785E-09 2.59642E-11
2.74156E-09 2.46315E-11
2.97478E-09 2.33821E-11
3.21752E-09 2.22229E-11
3.46978E-09 2.11339E-11
3.73156E-09 2.01271E-11
4.00286E-09 1.91821E-11
4.28368E-09 1.83041E-11
4.57402E-09 1.74824E-11
4.87388E-09 1.67153E-11
5.18326E-09 1.59979E-11
5.50215E-09 1.53257E-11
5.83057E-09 1.46959E-11
6.16850E-09 1.41043E-11
6.51596E-09 1.35480E-11
6.87293E-09 1.30244E-11
7.23942E-09 1.25301E-11
7.61544E-09 1.20634E-11
1.18991E-08 8.50782E-12
1.71347E-08 6.21146E-12
2.33223E-08 4.62358E-12
3.04617E-08 3.44123E-12
3.85531E-08 2.67219E-12
4.75965E-08 2.05501E-12
5.75917E-08 1.62711E-12
6.85389E-08 1.29281E-12
8.04380E-08 1.04451E-12
9.32891E-08 8.51271E-13
1.07092E-07 6.99856E-13
1.21847E-07 5.81526E-13
1.37554E-07 4.84841E-13
1.54213E-07 4.08842E-13
1.71823E-07 3.44883E-13
1.90386E-07 2.93720E-13
2.09900E-07 2.50802E-13
2.30367E-07 2.15525E-13
2.51785E-07 1.85988E-13
2.74156E-07 1.61207E-13
2.97478E-07 1.40443E-13
3.21752E-07 1.22752E-13
3.46978E-07 1.07873E-13
3.73156E-07 9.50545E-14
4.00286E-07 8.41715E-14
4.28368E-07 7.47752E-14
4.57402E-07 6.66929E-14
4.87388E-07 5.96869E-14
5.18325E-07 5.35923E-14
5.50215E-07 4.82833E-14
5.83057E-07 4.36280E-14
6.16850E-07 3.95516E-14
6.51596E-07 3.59154E-14
6.87293E-07 3.27091E-14
7.23942E-07 2.98567E-14
7.61543E-07 2.73206E-14
1.18991E-06 1.24587E-14
1.71347E-06 6.46660E-15
2.33223E-06 3.67352E-15
3.04617E-06 2.23353E-15
3.85531E-06 1.43447E-15
4.75964E-06 9.63536E-16
5.75916E-06 6.70884E-16
6.85388E-06 4.81563E-16
8.04378E-06 3.54679E-16
9.32888E-06 2.66952E-16
1.07092E-05 2.04804E-16
1.21846E-05 1.59730E-16
1.37553E-05 1.26403E-16
1.54212E-05 1.01338E-16
1.71822E-05 8.21749E-17
1.90385E-05 6.73014E-17
2.09899E-05 5.56991E-17
2.30365E-05 4.64816E-17
2.51783E-05 3.90837E-17
2.74153E-05 3.30889E-17
2.97475E-05 2.81961E-17
3.21749E-05 2.41739E-17
3.46974E-05 2.08447E-17
3.73152E-05 1.80717E-17
4.00281E-05 1.57460E-17
4.28362E-05 1.37834E-17
4.57395E-05 1.21172E-17
4.87380E-05 1.06947E-17
5.18317E-05 9.47434E-18
5.50205E-05 8.42268E-18
5.83045E-05 7.51284E-18
6.16838E-05 6.72277E-18
6.51582E-05 6.03407E-18
6.87277E-05 5.43167E-18
7.23925E-05 4.90280E-18
7.61524E-05 4.43691E-18
9.21439E-05 3.04568E-18
1.09658E-04 2.15972E-18
1.28695E-04 1.57413E-18
1.49255E-04 1.17431E-18
1.71338E-04 8.93891E-19
1.94942E-04 6.92455E-19
2.20070E-04 5.44745E-19
2.46720E-04 4.34441E-19
2.74892E-04 3.50716E-19
3.04586E-04 2.86245E-19
3.35803E-04 2.35945E-19
3.68542E-04 1.96237E-19
4.02802E-04 1.64551E-19
4.38585E-04 1.39018E-19
4.75889E-04 1.18258E-19
5.14715E-04 1.01238E-19
5.55063E-04 8.71773E-20
5.96931E-04 7.54794E-20
6.40321E-04 6.56832E-20
6.85233E-04 5.74290E-20
7.31665E-04 5.04344E-20
7.79618E-04 4.44753E-20
8.29092E-04 3.93730E-20
8.80086E-04 3.49837E-20
9.32601E-04 3.11909E-20
9.86636E-04 2.79000E-20
1.04219E-03 2.50331E-20
1.09927E-03 2.25264E-20
1.15786E-03 2.03266E-20
1.21797E-03 1.83899E-20
1.27961E-03 1.66792E-20
1.34276E-03 1.51637E-20
1.40743E-03 1.38171E-20
1.47362E-03 1.26173E-20
1.54133E-03 1.15455E-20
1.61056E-03 1.05856E-20
1.68131E-03 9.72382E-21
1.75357E-03 8.94841E-21
1.82735E-03 8.24914E-21
1.90265E-03 7.61720E-21
1.97947E-03 7.04492E-21
2.05780E-03 6.52566E-21
2.13765E-03 6.05363E-21
2.21902E-03 5.62375E-21
2.30190E-03 5.23158E-21
2.38630E-03 4.87320E-21
2.47222E-03 4.54517E-21
2.55965E-03 4.24445E-21
2.64859E-03 3.96834E-21
2.73905E-03 3.71447E-21
2.83103E-03 3.48071E-21
2.92452E-03 3.26517E-21
3.01952E-03 3.06618E-21
3.11604E-03 2.88222E-21
3.21407E-03 2.71194E-21
3.31362E-03 2.55415E-21
3.41468E-03 2.40776E-21
3.51725E-03 2.27178E-21
3.62133E-03 2.14534E-21
3.72692E-03 2.02764E-21
3.83403E-03 1.91797E-21
3.94265E-03 1.81567E-21
4.05278E-03 1.72016E-21
4.16442E-03 1.63090E-21
4.27757E-03 1.54740E-21
4.39223E-03 1.46923E-21
4.50840E-03 1.39597E-21
4.62608E-03 1.32726E-21
4.74527E-03 1.26277E-21
4.86597E-03 1.20218E-21
4.98817E-03 1.14521E-21
5.11188E-03 1.09161E-21
5.23711E-03 1.04114E-21
5.36383E-03 9.93581E-22
5.49207E-03 9.48732E-22
5.62181E-03 9.06411E-22
5.75306E-03 8.66446E-22
5.88581E-03 8.28681E-22
6.02007E-03 7.92973E-22
6.15583E-03 7.59187E-22
6.29310E-03 7.27200E-22
6.43187E-03 6.96898E-22
6.57214E-03 6.68174E-22
6.71392E-03 6.40930E-22
6.85720E-03 6.15076E-22
7.00198E-03 5.90527E-22
7.14827E-03 5.67204E-22
7.29605E-03 5.45033E-22
7.44534E-03 5.23947E-22
7.59612E-03 5.03883E-22
7.97965E-03 4.57811E-22
8.37255E-03 4.16942E-22
8.77480E-03 3.80583E-22
9.18641E-03 3.48146E-22
9.60736E-03 3.19130E-22
1.00376E-02 2.93110E-22
1.04773E-02 2.69718E-22
1.09262E-02 2.48642E-22
1.13844E-02 2.29608E-22
1.18520E-02 2.12384E-22
1.23288E-02 1.96764E-22
1.28150E-02 1.82571E-22
1.33104E-02 1.69651E-22
1.38150E-02 1.57868E-22
1.43290E-02 1.47104E-22
1.48521E-02 1.37252E-22
1.53845E-02 1.28222E-22
1.59262E-02 1.19932E-22
1.64770E-02 1.12309E-22
1.70371E-02 1.05291E-22
1.76063E-02 9.88185E-23
1.81848E-02 9.28424E-23
1.87724E-02 8.73168E-23
1.93692E-02 8.22015E-23
1.99751E-02 7.74599E-23
2.05901E-02 7.30595E-23
2.12143E-02 6.89711E-23
2.18476E-02 6.51682E-23
2.24900E-02 6.16269E-23
2.31415E-02 5.83259E-23
2.38021E-02 5.52456E-23
2.44717E-02 5.23684E-23
2.51504E-02 4.96782E-23
2.58382E-02 4.71607E-23
2.65349E-02 4.48025E-23
2.72407E-02 4.25914E-23
2.79555E-02 4.05160E-23
2.86793E-02 3.85667E-23
2.94120E-02 3.67345E-23
3.01537E-02 3.50109E-23
3.09043E-02 3.33882E-23
3.16639E-02 3.18594E-23
3.24324E-02 3.04178E-23
3.32098E-02 2.90576E-23
3.39961E-02 2.77732E-23
3.47912E-02 2.65596E-23
3.55952E-02 2.54121E-23
3.64081E-02 2.43264E-23
3.72297E-02 2.32984E-23
3.80602E-02 2.23246E-23
3.88995E-02 2.14015E-23
3.97476E-02 2.05258E-23
4.06044E-02 1.96948E-23
4.14700E-02 1.89057E-23
4.23443E-02 1.81558E-23
4.32273E-02 1.74430E-23
4.41190E-02 1.67649E-23
4.50194E-02 1.61196E-23
4.59284E-02 1.55052E-23
4.68461E-02 1.49199E-23
4.87074E-02 1.38299E-23
5.06030E-02 1.28379E-23
5.25328E-02 1.19333E-23
5.44967E-02 1.11069E-23
5.64946E-02 1.03508E-23
5.85262E-02 9.65784E-24
6.05914E-02 9.02171E-24
6.26901E-02 8.43688E-24
6.48222E-02 7.89844E-24
6.69873E-02 7.40201E-24
6.91854E-02 6.94369E-24
7.14163E-02 6.52001E-24
7.36799E-02 6.12784E-24
7.59760E-02 5.76440E-24
7.83043E-02 5.42720E-24
8.06647E-02 5.11397E-24
8.30571E-02 4.82270E-24
8.54812E-02 4.55156E-24
8.79369E-02 4.29889E-24
9.04240E-02 4.06320E-24
9.29422E-02 3.84313E-24
9.54915E-02 3.63746E-24
9.80716E-02 3.44507E-24
1.00682E-01 3.26495E-24
1.03323E-01 3.09616E-24
1.05995E-01 2.93786E-24
1.08696E-01 2.78928E-24
1.11427E-01 2.64971E-24
1.14188E-01 2.51851E-24
1.16978E-01 2.39508E-24
1.19797E-01 2.27889E-24
1.22645E-01 2.16942E-24
1.25522E-01 2.06621E-24
1.28428E-01 1.96886E-24
1.31361E-01 1.87696E-24
1.34323E-01 1.79015E-24
1.37313E-01 1.70810E-24
1.40330E-01 1.63051E-24
1.43375E-01 1.55709E-24
1.46447E-01 1.48757E-24
1.49545E-01 1.42172E-24
1.52671E-01 1.35930E-24
1.55823E-01 1.30011E-24
1.59001E-01 1.24395E-24
1.62205E-01 1.19063E-24
1.65435E-01 1.14000E-24
1.68690E-01 1.09189E-24
1.71970E-01 1.04615E-24
1.75276E-01 1.00265E-24
1.78606E-01 9.61255E-25
1.81961E-01 9.21855E-25
1.85340E-01 8.84333E-25
1.88743E-01 8.48586E-25
1.92169E-01 8.14516E-25
1.95619E-01 7.82031E-25
1.99092E-01 7.51046E-25
2.02589E-01 7.21481E-25
2.06107E-01 6.93259E-25
2.09649E-01 6.66310E-25
2.13212E-01 6.40568E-25
2.16797E-01 6.15970E-25
2.20404E-01 5.92457E-25
2.24032E-01 5.69975E-25
2.27680E-01 5.48470E-25
2.31350E-01 5.27893E-25
2.35040E-01 5.08200E-25
2.38751E-01 4.89345E-25
2.42481E-01 4.71288E-25
2.46231E-01 4.53991E-25
2.50000E-01 4.37415E-25
2.53788E-01 4.21528E-25
2.57595E-01 4.06295E-25
2.61421E-01 3.91687E-25
2.65264E-01 3.77674E-25
2.69126E-01 3.64227E-25
2.73005E-01 3.51322E-25
2.76901E-01 3.38933E-25
2.80814E-01 3.27036E-25
2.84744E-01 3.15610E-25
2.88691E-01 3.04632E-25
2.92653E-01 2.94084E-25
2.96632E-01 2.83945E-25
3.00625E-01 2.74199E-25
3.04634E-01 2.64827E-25
3.08658E-01 2.55813E-25
3.12697E-01 2.47142E-25
3.16749E-01 2.38799E-25
3.20816E-01 2.30771E-25
3.24896E-01 2.23043E-25
3.28990E-01 2.15603E-25
3.33097E-01 2.08438E-25
3.37216E-01 2.01538E-25
3.41348E-01 1.94892E-25
3.45492E-01 1.88488E-25
3.49647E-01 1.82317E-25
3.53814E-01 1.76370E-25
3.57992E-01 1.70637E-25
3.62181E-01 1.65110E-25
3.66381E-01 1.59780E-25
3.70590E-01 1.54639E-25
3.74810E-01 1.49681E-25
3.79039E-01 1.44897E-25
3.83277E-01 1.40281E-25
3.87524E-01 1.35826E-25
3.91780E-01 1.31527E-25
3.96044E-01 1.27376E-25
4.00316E-01 1.23369E-25
4.04596E-01 1.19499E-25
4.08882E-01 1.15762E-25
4.13176E-01 1.12152E-25
4.17476E-01 1.08665E-25
4.21783E-01 1.05296E-25
4.26095E-01 1.02041E-25
4.30413E-01 9.88947E-26
4.34737E-01 9.58539E-26
4.39065E-01 9.29144E-26
4.43398E-01 9.00726E-26
4.47736E-01 8.73248E-26
4.52077E-01 8.46677E-26
4.56422E-01 8.20979E-26
4.60770E-01 7.96122E-26
4.65122E-01 7.72076E-26
4.69476E-01 7.48813E-26
4.73832E-01 7.26303E-26
4.78190E-01 7.04521E-26
4.82550E-01 6.83440E-26
4.86912E-01 6.63036E-26
4.91274E-01 6.43284E-26
4.95637E-01 6.24162E-26
5.00000E-01 6.05648E-26
5.04363E-01 5.87721E-26
5.08726E-01 5.70360E-26
5.13088E-01 5.53545E-26
5.17450E-01 5.37259E-26
5.21810E-01 5.21482E-26
5.26168E-01 5.06198E-26
5.30524E-01 4.91389E-26
5.34878E-01 4.77039E-26
5.39230E-01 4.63133E-26
5.43578E-01 4.49656E-26
5.47923E-01 4.36594E-26
5.52264E-01 4.23932E-26
5.56602E-01 4.11657E-26
5.60935E-01 3.99756E-26
5.65263E-01 3.88218E-26
5.69587E-01 3.77029E-26
5.73905E-01 3.66179E-26
5.78217E-01 3.55656E-26
5.82524E-01 3.45449E-26
5.86824E-01 3.35549E-26
5.91118E-01 3.25945E-26
5.95404E-01 3.16627E-26
5.99684E-01 3.07587E-26
6.03956E-01 2.98815E-26
6.08220E-01 2.90303E-26
6.12476E-01 2.82042E-26
6.16723E-01 2.74025E-26
6.20961E-01 2.66243E-26
6.25190E-01 2.58690E-26
6.29410E-01 2.51357E-26
6.33619E-01 2.44239E-26
6.37819E-01 2.37327E-26
6.42008E-01 2.30616E-26
6.46186E-01 2.24100E-26
6.50353E-01 2.17772E-26
6.54508E-01 2.11626E-26
6.58652E-01 2.05657E-26
6.62784E-01 1.99859E-26
6.66903E-01 1.94227E-26
6.71010E-01 1.88756E-26
6.75104E-01 1.83441E-26
6.79184E-01 1.78277E-26
6.83251E-01 1.73260E-26
6.87303E-01 1.68384E-26
6.91342E-01 1.63646E-26
6.95366E-01 1.59042E-26
6.99375E-01 1.54567E-26
7.03368E-01 1.50218E-26
7.07347E-01 1.45990E-26
7.11309E-01 1.41881E-26
7.15256E-01 1.37886E-26
7.19186E-01 1.34002E-26
7.23099E-01 1.30227E-26
7.26995E-01 1.26555E-26
7.30874E-01 1.22986E-26
7.34736E-01 1.19514E-26
7.38579E-01 1.16139E-26
7.42405E-01 1.12856E-26
7.46212E-01 1.09663E-26
7.50000E-01 1.06557E-26
7.53769E-01 1.03537E-26
7.57519E-01 1.00599E-26
7.61249E-01 9.77403E-27
7.64960E-01 9.49597E-27
7.68650E-01 9.22546E-27
7.72320E-01 8.96226E-27
7.75968E-01 8.70618E-27
7.79596E-01 8.45700E-27
7.83203E-01 8.21454E-27
7.86788E-01 7.97859E-27
7.90351E-01 7.74898E-27
7.93893E-01 7.52551E-27
7.97411E-01 7.30803E-27
8.00908E-01 7.09635E-27
8.04381E-01 6.89032E-27
8.07831E-01 6.68978E-27
8.11257E-01 6.49456E-27
8.14660E-01 6.30453E-27
8.18039E-01 6.11954E-27
8.21394E-01 5.93944E-27
8.24724E-01 5.76411E-27
8.28030E-01 5.59341E-27
8.31310E-01 5.42721E-27
8.34565E-01 5.26539E-27
8.37795E-01 5.10783E-27
8.40999E-01 4.95441E-27
8.44177E-01 4.80502E-27
8.47329E-01 4.65955E-27
8.50455E-01 4.51790E-27
8.53553E-01 4.37995E-27
8.56625E-01 4.24562E-27
8.59670E-01 4.11480E-27
8.62687E-01 3.98740E-27
8.65677E-01 3.86333E-27
8.68639E-01 3.74250E-27
8.71572E-01 3.62483E-27
8.74478E-01 3.51023E-27
8.77355E-01 3.39862E-27
8.80203E-01 3.28992E-27
8.83022E-01 3.18407E-27
8.85812E-01 3.08097E-27
8.88573E-01 2.98057E-27
8.91304E-01 2.88280E-27
8.94005E-01 2.78757E-27
8.96677E-01 2.69485E-27
8.99318E-01 2.60454E-27
9.01928E-01 2.51661E-27
9.04508E-01 2.43098E-27
9.07058E-01 2.34761E-27
9.09576E-01 2.26642E-27
9.12063E-01 2.18738E-27
9.14519E-01 2.11043E-27
9.16943E-01 2.03551E-27
9.19335E-01 1.96257E-27
9.21696E-01 1.89158E-27
9.24024E-01 1.82248E-27
9.26320E-01 1.75522E-27
9.28584E-01 1.68977E-27
9.30815E-01 1.62608E-27
9.33013E-01 1.56411E-27
9.35178E-01 1.50382E-27
9.37310E-01 1.44517E-27
9.39409E-01 1.38812E-27
9.41474E-01 1.33264E-27
9.43505E-01 1.27870E-27
9.45503E-01 1.22625E-27
9.47467E-01 1.17527E-27
9.49397E-01 1.12572E-27
9.51293E-01 1.07757E-27
9.53154E-01 1.03079E-27
9.54981E-01 9.85360E-28
9.56773E-01 9.41242E-28
9.58530E-01 8.98413E-28
9.60252E-01 8.56844E-28
9.61940E-01 8.16512E-28
9.63592E-01 7.77391E-28
9.65209E-01 7.39457E-28
9.66790E-01 7.02688E-28
9.68336E-01 6.67060E-28
9.69846E-01 6.32553E-28
9.71321E-01 5.99146E-28
9.72759E-01 5.66819E-28
9.74162E-01 5.35552E-28
9.75528E-01 5.05326E-28
9.76858E-01 4.76125E-28
9.78152E-01 4.47929E-28
9.79410E-01 4.20724E-28
9.80631E-01 3.94491E-28
9.81815E-01 3.69217E-28
9.82963E-01 3.44886E-28
9.84074E-01 3.21484E-28
9.85148E-01 2.98997E-28
9.86185E-01 2.77412E-28
9.87185E-01 2.56717E-28
9.88148E-01 2.36899E-28
9.89074E-01 2.17947E-28
9.89962E-01 1.99850E-28
9.90814E-01 1.82598E-28
9.91627E-01 1.66180E-28
9.92404E-01 1.50588E-28
9.93143E-01 1.35811E-28
9.93844E-01 1.21842E-28
9.94508E-01 1.08673E-28
9.95134E-01 9.62958E-29
9.95722E-01 8.47037E-29
9.96273E-01 7.38900E-29
9.96786E-01 6.38485E-29
9.97261E-01 5.45735E-29
9.97698E-01 4.60598E-29
9.98097E-01 3.83025E-29
9.98459E-01 3.12971E-29
9.98782E-01 2.50398E-29
9.99067E-01 1.95269E-29
9.99315E-01 1.47554E-29
9.99524E-01 1.07225E-29
9.99695E-01 7.42602E-30
9.99829E-01 4.86399E-30
9.99924E-01 3.03501E-30
9.99981E-01 1.93803E-30
1.00000E+00 1.57243E-30
