 #
 # Subroutine ELSEPA. Elastic scattering of electrons and positrons
 #                    by neutral atoms and positive ions
 #
 # Projectile: electron
 # Kinetic energy = 4.50000E+06 eV = 1.65372E+05 a.u.
 #
 # WARNING: High-energy factorization with free-atom DF screening.
 #          Absorption, polarization and exchange corrections are
 #          switched off.
 #          Phase shifts are calculated for the bare nucleus.
 #          Scattering amplitudes are not evaluated.
 #
 # Element: Tm,  Z =  69,  atomic weight = 1.68934E+02 g/mol
 #
 # Nuclear model: Fermi distribution
 #                Average radius = 5.91502E-13 cm
 #                Skin thickness = 5.46000E-14 cm
 #
 # Number of electrons = 69
 #
 # Total elastic cross section = 7.10095E-18 cm**2 = 2.53580E-01 a0**2
 # 1st transport cross section = 3.11852E-22 cm**2 = 1.11364E-05 a0**2
 # 2nd transport cross section = 8.48950E-22 cm**2 = 3.03165E-05 a0**2
 #
 #
 # Differential cross section:                       MU=(1-COS(THETA))/2
 #
 #  THETA        MU          DCS          DCS        Sherman      error
 #  (deg)                 (cm**2/sr)   (a0**2/sr)    function
 #----------------------------------------------------------------------
0.00000E+00 1.74353E-12
7.61557E-13 1.74351E-12
1.18994E-12 1.74350E-12
1.71346E-12 1.74348E-12
2.33225E-12 1.74347E-12
3.04617E-12 1.74345E-12
3.85530E-12 1.74343E-12
4.75964E-12 1.74341E-12
5.75917E-12 1.74338E-12
6.85391E-12 1.74335E-12
8.04379E-12 1.74333E-12
9.32893E-12 1.74329E-12
1.07092E-11 1.74326E-12
1.21847E-11 1.74322E-12
1.37554E-11 1.74318E-12
1.54213E-11 1.74314E-12
1.71823E-11 1.74310E-12
1.90386E-11 1.74305E-12
2.09900E-11 1.74300E-12
2.30367E-11 1.74295E-12
2.51785E-11 1.74290E-12
2.74156E-11 1.74284E-12
2.97478E-11 1.74278E-12
3.21752E-11 1.74272E-12
3.46979E-11 1.74266E-12
3.73157E-11 1.74259E-12
4.00286E-11 1.74253E-12
4.28368E-11 1.74246E-12
4.57402E-11 1.74238E-12
4.87388E-11 1.74231E-12
5.18325E-11 1.74223E-12
5.50215E-11 1.74215E-12
5.83057E-11 1.74207E-12
6.16850E-11 1.74199E-12
6.51595E-11 1.74190E-12
6.87293E-11 1.74181E-12
7.23943E-11 1.74172E-12
7.61544E-11 1.74163E-12
1.18991E-10 1.74056E-12
1.71347E-10 1.73925E-12
2.33223E-10 1.73771E-12
3.04617E-10 1.73594E-12
3.85531E-10 1.73394E-12
4.75965E-10 1.73170E-12
5.75917E-10 1.72923E-12
6.85389E-10 1.72654E-12
8.04380E-10 1.72362E-12
9.32891E-10 1.72047E-12
1.07092E-09 1.71710E-12
1.21847E-09 1.71352E-12
1.37554E-09 1.70971E-12
1.54213E-09 1.70569E-12
1.71823E-09 1.70146E-12
1.90386E-09 1.69702E-12
2.09900E-09 1.69237E-12
2.30367E-09 1.68751E-12
2.51785E-09 1.68246E-12
2.74156E-09 1.67721E-12
2.97478E-09 1.67177E-12
3.21752E-09 1.66613E-12
3.46978E-09 1.66031E-12
3.73156E-09 1.65431E-12
4.00286E-09 1.64812E-12
4.28368E-09 1.64177E-12
4.57402E-09 1.63523E-12
4.87388E-09 1.62854E-12
5.18326E-09 1.62167E-12
5.50215E-09 1.61465E-12
5.83057E-09 1.60748E-12
6.16850E-09 1.60015E-12
6.51596E-09 1.59267E-12
6.87293E-09 1.58506E-12
7.23942E-09 1.57730E-12
7.61544E-09 1.56941E-12
1.18991E-08 1.48431E-12
1.71347E-08 1.39059E-12
2.33223E-08 1.29257E-12
3.04617E-08 1.19393E-12
3.85531E-08 1.09764E-12
4.75965E-08 1.00590E-12
5.75917E-08 9.20185E-13
6.85389E-08 8.41463E-13
8.04380E-08 7.69811E-13
9.32891E-08 7.05139E-13
1.07092E-07 6.47105E-13
1.21847E-07 5.95220E-13
1.37554E-07 5.48915E-13
1.54213E-07 5.07600E-13
1.71823E-07 4.70702E-13
1.90386E-07 4.37682E-13
2.09900E-07 4.08049E-13
2.30367E-07 3.81365E-13
2.51785E-07 3.57233E-13
2.74156E-07 3.35318E-13
2.97478E-07 3.15336E-13
3.21752E-07 2.97047E-13
3.46978E-07 2.80243E-13
3.73156E-07 2.64750E-13
4.00286E-07 2.50415E-13
4.28368E-07 2.37113E-13
4.57402E-07 2.24734E-13
4.87388E-07 2.13184E-13
5.18325E-07 2.02376E-13
5.50215E-07 1.92227E-13
5.83057E-07 1.82701E-13
6.16850E-07 1.73747E-13
6.51596E-07 1.65320E-13
6.87293E-07 1.57380E-13
7.23942E-07 1.49890E-13
7.61543E-07 1.42820E-13
1.18991E-06 8.86917E-14
1.71347E-06 5.82300E-14
2.33223E-06 3.95806E-14
3.04617E-06 2.77734E-14
3.85531E-06 2.00275E-14
4.75964E-06 1.47704E-14
5.75916E-06 1.10946E-14
6.85388E-06 8.45215E-15
8.04378E-06 6.53332E-15
9.32888E-06 5.11744E-15
1.07092E-05 4.05835E-15
1.21846E-05 3.25644E-15
1.37553E-05 2.64230E-15
1.54212E-05 2.16678E-15
1.71822E-05 1.79462E-15
1.90385E-05 1.49951E-15
2.09899E-05 1.26522E-15
2.30365E-05 1.07624E-15
2.51783E-05 9.20852E-16
2.74153E-05 7.93048E-16
2.97475E-05 6.87168E-16
3.21749E-05 5.98818E-16
3.46974E-05 5.24562E-16
3.73152E-05 4.61695E-16
4.00281E-05 4.08091E-16
4.28362E-05 3.62082E-16
4.57395E-05 3.22362E-16
4.87380E-05 2.87903E-16
5.18317E-05 2.57881E-16
5.50205E-05 2.31628E-16
5.83045E-05 2.08622E-16
6.16838E-05 1.88401E-16
6.51582E-05 1.70572E-16
6.87277E-05 1.54803E-16
7.23925E-05 1.40809E-16
7.61524E-05 1.28351E-16
9.21439E-05 9.03189E-17
1.09658E-04 6.53282E-17
1.28695E-04 4.84221E-17
1.49255E-04 3.66480E-17
1.71338E-04 2.82529E-17
1.94942E-04 2.21340E-17
2.20070E-04 1.75890E-17
2.46720E-04 1.41560E-17
2.74892E-04 1.15230E-17
3.04586E-04 9.47619E-18
3.35803E-04 7.86535E-18
3.68542E-04 6.58330E-18
4.02802E-04 5.55229E-18
4.38585E-04 4.71584E-18
4.75889E-04 4.03143E-18
5.14715E-04 3.46698E-18
5.55063E-04 2.99808E-18
5.96931E-04 2.60592E-18
6.40321E-04 2.27589E-18
6.85233E-04 1.99653E-18
7.31665E-04 1.75878E-18
7.79618E-04 1.55540E-18
8.29092E-04 1.38059E-18
8.80086E-04 1.22965E-18
9.32601E-04 1.09881E-18
9.86636E-04 9.84928E-19
1.04219E-03 8.85440E-19
1.09927E-03 7.98219E-19
1.15786E-03 7.21491E-19
1.21797E-03 6.53779E-19
1.27961E-03 5.93841E-19
1.34276E-03 5.40629E-19
1.40743E-03 4.93260E-19
1.47362E-03 4.50977E-19
1.54133E-03 4.13139E-19
1.61056E-03 3.79198E-19
1.68131E-03 3.48684E-19
1.75357E-03 3.21189E-19
1.82735E-03 2.96360E-19
1.90265E-03 2.73895E-19
1.97947E-03 2.53527E-19
2.05780E-03 2.35026E-19
2.13765E-03 2.18190E-19
2.21902E-03 2.02842E-19
2.30190E-03 1.88826E-19
2.38630E-03 1.76005E-19
2.47222E-03 1.64261E-19
2.55965E-03 1.53485E-19
2.64859E-03 1.43584E-19
2.73905E-03 1.34473E-19
2.83103E-03 1.26077E-19
2.92452E-03 1.18331E-19
3.01952E-03 1.11175E-19
3.11604E-03 1.04555E-19
3.21407E-03 9.84236E-20
3.31362E-03 9.27382E-20
3.41468E-03 8.74603E-20
3.51725E-03 8.25553E-20
3.62133E-03 7.79919E-20
3.72692E-03 7.37418E-20
3.83403E-03 6.97796E-20
3.94265E-03 6.60821E-20
4.05278E-03 6.26282E-20
4.16442E-03 5.93988E-20
4.27757E-03 5.63767E-20
4.39223E-03 5.35459E-20
4.50840E-03 5.08921E-20
4.62608E-03 4.84021E-20
4.74527E-03 4.60638E-20
4.86597E-03 4.38663E-20
4.98817E-03 4.17996E-20
5.11188E-03 3.98542E-20
5.23711E-03 3.80218E-20
5.36383E-03 3.62945E-20
5.49207E-03 3.46651E-20
5.62181E-03 3.31271E-20
5.75306E-03 3.16742E-20
5.88581E-03 3.03010E-20
6.02007E-03 2.90021E-20
6.15583E-03 2.77728E-20
6.29310E-03 2.66086E-20
6.43187E-03 2.55055E-20
6.57214E-03 2.44595E-20
6.71392E-03 2.34672E-20
6.85720E-03 2.25253E-20
7.00198E-03 2.16308E-20
7.14827E-03 2.07807E-20
7.29605E-03 1.99724E-20
7.44534E-03 1.92035E-20
7.59612E-03 1.84718E-20
7.97965E-03 1.67909E-20
8.37255E-03 1.52991E-20
8.77480E-03 1.39714E-20
9.18641E-03 1.27864E-20
9.60736E-03 1.17260E-20
1.00376E-02 1.07747E-20
1.04773E-02 9.91927E-21
1.09262E-02 9.14828E-21
1.13844E-02 8.45185E-21
1.18520E-02 7.82143E-21
1.23288E-02 7.24961E-21
1.28150E-02 6.72994E-21
1.33104E-02 6.25676E-21
1.38150E-02 5.82513E-21
1.43290E-02 5.43072E-21
1.48521E-02 5.06972E-21
1.53845E-02 4.73876E-21
1.59262E-02 4.43487E-21
1.64770E-02 4.15542E-21
1.70371E-02 3.89806E-21
1.76063E-02 3.66071E-21
1.81848E-02 3.44152E-21
1.87724E-02 3.23884E-21
1.93692E-02 3.05117E-21
1.99751E-02 2.87719E-21
2.05901E-02 2.71571E-21
2.12143E-02 2.56565E-21
2.18476E-02 2.42605E-21
2.24900E-02 2.29604E-21
2.31415E-02 2.17483E-21
2.38021E-02 2.06171E-21
2.44717E-02 1.95602E-21
2.51504E-02 1.85720E-21
2.58382E-02 1.76469E-21
2.65349E-02 1.67802E-21
2.72407E-02 1.59675E-21
2.79555E-02 1.52047E-21
2.86793E-02 1.44881E-21
2.94120E-02 1.38144E-21
3.01537E-02 1.31805E-21
3.09043E-02 1.25835E-21
3.16639E-02 1.20210E-21
3.24324E-02 1.14904E-21
3.32098E-02 1.09897E-21
3.39961E-02 1.05167E-21
3.47912E-02 1.00697E-21
3.55952E-02 9.64688E-22
3.64081E-02 9.24672E-22
3.72297E-02 8.86774E-22
3.80602E-02 8.50858E-22
3.88995E-02 8.16800E-22
3.97476E-02 7.84484E-22
4.06044E-02 7.53803E-22
4.14700E-02 7.24655E-22
4.23443E-02 6.96950E-22
4.32273E-02 6.70599E-22
4.41190E-02 6.45525E-22
4.50194E-02 6.21650E-22
4.59284E-02 5.98907E-22
4.68461E-02 5.77231E-22
4.87074E-02 5.36839E-22
5.06030E-02 5.00037E-22
5.25328E-02 4.66442E-22
5.44967E-02 4.35718E-22
5.64946E-02 4.07571E-22
5.85262E-02 3.81740E-22
6.05914E-02 3.57995E-22
6.26901E-02 3.36135E-22
6.48222E-02 3.15979E-22
6.69873E-02 2.97366E-22
6.91854E-02 2.80155E-22
7.14163E-02 2.64217E-22
7.36799E-02 2.49439E-22
7.59760E-02 2.35718E-22
7.83043E-02 2.22964E-22
8.06647E-02 2.11093E-22
8.30571E-02 2.00031E-22
8.54812E-02 1.89713E-22
8.79369E-02 1.80076E-22
9.04240E-02 1.71067E-22
9.29422E-02 1.62636E-22
9.54915E-02 1.54738E-22
9.80716E-02 1.47331E-22
1.00682E-01 1.40379E-22
1.03323E-01 1.33848E-22
1.05995E-01 1.27706E-22
1.08696E-01 1.21926E-22
1.11427E-01 1.16482E-22
1.14188E-01 1.11349E-22
1.16978E-01 1.06506E-22
1.19797E-01 1.01933E-22
1.22645E-01 9.76117E-23
1.25522E-01 9.35252E-23
1.28428E-01 8.96579E-23
1.31361E-01 8.59954E-23
1.34323E-01 8.25244E-23
1.37313E-01 7.92327E-23
1.40330E-01 7.61089E-23
1.43375E-01 7.31427E-23
1.46447E-01 7.03242E-23
1.49545E-01 6.76445E-23
1.52671E-01 6.50953E-23
1.55823E-01 6.26686E-23
1.59001E-01 6.03574E-23
1.62205E-01 5.81548E-23
1.65435E-01 5.60546E-23
1.68690E-01 5.40510E-23
1.71970E-01 5.21385E-23
1.75276E-01 5.03121E-23
1.78606E-01 4.85671E-23
1.81961E-01 4.68988E-23
1.85340E-01 4.53033E-23
1.88743E-01 4.37766E-23
1.92169E-01 4.23150E-23
1.95619E-01 4.09152E-23
1.99092E-01 3.95740E-23
2.02589E-01 3.82883E-23
2.06107E-01 3.70553E-23
2.09649E-01 3.58724E-23
2.13212E-01 3.47371E-23
2.16797E-01 3.36470E-23
2.20404E-01 3.25999E-23
2.24032E-01 3.15937E-23
2.27680E-01 3.06264E-23
2.31350E-01 2.96963E-23
2.35040E-01 2.88016E-23
2.38751E-01 2.79405E-23
2.42481E-01 2.71116E-23
2.46231E-01 2.63133E-23
2.50000E-01 2.55443E-23
2.53788E-01 2.48033E-23
2.57595E-01 2.40890E-23
2.61421E-01 2.34002E-23
2.65264E-01 2.27358E-23
2.69126E-01 2.20947E-23
2.73005E-01 2.14760E-23
2.76901E-01 2.08786E-23
2.80814E-01 2.03017E-23
2.84744E-01 1.97445E-23
2.88691E-01 1.92060E-23
2.92653E-01 1.86855E-23
2.96632E-01 1.81823E-23
3.00625E-01 1.76957E-23
3.04634E-01 1.72249E-23
3.08658E-01 1.67695E-23
3.12697E-01 1.63286E-23
3.16749E-01 1.59019E-23
3.20816E-01 1.54886E-23
3.24896E-01 1.50884E-23
3.28990E-01 1.47007E-23
3.33097E-01 1.43249E-23
3.37216E-01 1.39608E-23
3.41348E-01 1.36077E-23
3.45492E-01 1.32654E-23
3.49647E-01 1.29334E-23
3.53814E-01 1.26113E-23
3.57992E-01 1.22988E-23
3.62181E-01 1.19954E-23
3.66381E-01 1.17010E-23
3.70590E-01 1.14152E-23
3.74810E-01 1.11375E-23
3.79039E-01 1.08679E-23
3.83277E-01 1.06060E-23
3.87524E-01 1.03515E-23
3.91780E-01 1.01041E-23
3.96044E-01 9.86366E-24
4.00316E-01 9.62990E-24
4.04596E-01 9.40259E-24
4.08882E-01 9.18152E-24
4.13176E-01 8.96649E-24
4.17476E-01 8.75729E-24
4.21783E-01 8.55371E-24
4.26095E-01 8.35557E-24
4.30413E-01 8.16272E-24
4.34737E-01 7.97497E-24
4.39065E-01 7.79216E-24
4.43398E-01 7.61412E-24
4.47736E-01 7.44072E-24
4.52077E-01 7.27179E-24
4.56422E-01 7.10720E-24
4.60770E-01 6.94682E-24
4.65122E-01 6.79051E-24
4.69476E-01 6.63816E-24
4.73832E-01 6.48963E-24
4.78190E-01 6.34481E-24
4.82550E-01 6.20359E-24
4.86912E-01 6.06587E-24
4.91274E-01 5.93153E-24
4.95637E-01 5.80047E-24
5.00000E-01 5.67261E-24
5.04363E-01 5.54784E-24
5.08726E-01 5.42607E-24
5.13088E-01 5.30722E-24
5.17450E-01 5.19121E-24
5.21810E-01 5.07795E-24
5.26168E-01 4.96736E-24
5.30524E-01 4.85936E-24
5.34878E-01 4.75390E-24
5.39230E-01 4.65088E-24
5.43578E-01 4.55025E-24
5.47923E-01 4.45194E-24
5.52264E-01 4.35589E-24
5.56602E-01 4.26203E-24
5.60935E-01 4.17030E-24
5.65263E-01 4.08065E-24
5.69587E-01 3.99301E-24
5.73905E-01 3.90734E-24
5.78217E-01 3.82359E-24
5.82524E-01 3.74169E-24
5.86824E-01 3.66161E-24
5.91118E-01 3.58330E-24
5.95404E-01 3.50670E-24
5.99684E-01 3.43178E-24
6.03956E-01 3.35848E-24
6.08220E-01 3.28678E-24
6.12476E-01 3.21663E-24
6.16723E-01 3.14798E-24
6.20961E-01 3.08081E-24
6.25190E-01 3.01507E-24
6.29410E-01 2.95072E-24
6.33619E-01 2.88774E-24
6.37819E-01 2.82609E-24
6.42008E-01 2.76574E-24
6.46186E-01 2.70665E-24
6.50353E-01 2.64880E-24
6.54508E-01 2.59214E-24
6.58652E-01 2.53667E-24
6.62784E-01 2.48234E-24
6.66903E-01 2.42913E-24
6.71010E-01 2.37701E-24
6.75104E-01 2.32596E-24
6.79184E-01 2.27595E-24
6.83251E-01 2.22696E-24
6.87303E-01 2.17896E-24
6.91342E-01 2.13193E-24
6.95366E-01 2.08585E-24
6.99375E-01 2.04070E-24
7.03368E-01 1.99645E-24
7.07347E-01 1.95309E-24
7.11309E-01 1.91059E-24
7.15256E-01 1.86893E-24
7.19186E-01 1.82811E-24
7.23099E-01 1.78809E-24
7.26995E-01 1.74886E-24
7.30874E-01 1.71040E-24
7.34736E-01 1.67270E-24
7.38579E-01 1.63574E-24
7.42405E-01 1.59950E-24
7.46212E-01 1.56397E-24
7.50000E-01 1.52913E-24
7.53769E-01 1.49497E-24
7.57519E-01 1.46147E-24
7.61249E-01 1.42862E-24
7.64960E-01 1.39641E-24
7.68650E-01 1.36482E-24
7.72320E-01 1.33384E-24
7.75968E-01 1.30346E-24
7.79596E-01 1.27366E-24
7.83203E-01 1.24443E-24
7.86788E-01 1.21576E-24
7.90351E-01 1.18765E-24
7.93893E-01 1.16007E-24
7.97411E-01 1.13302E-24
8.00908E-01 1.10649E-24
8.04381E-01 1.08046E-24
8.07831E-01 1.05493E-24
8.11257E-01 1.02989E-24
8.14660E-01 1.00533E-24
8.18039E-01 9.81233E-25
8.21394E-01 9.57598E-25
8.24724E-01 9.34414E-25
8.28030E-01 9.11672E-25
8.31310E-01 8.89364E-25
8.34565E-01 8.67482E-25
8.37795E-01 8.46017E-25
8.40999E-01 8.24963E-25
8.44177E-01 8.04312E-25
8.47329E-01 7.84056E-25
8.50455E-01 7.64188E-25
8.53553E-01 7.44701E-25
8.56625E-01 7.25588E-25
8.59670E-01 7.06843E-25
8.62687E-01 6.88459E-25
8.65677E-01 6.70430E-25
8.68639E-01 6.52749E-25
8.71572E-01 6.35411E-25
8.74478E-01 6.18409E-25
8.77355E-01 6.01739E-25
8.80203E-01 5.85394E-25
8.83022E-01 5.69369E-25
8.85812E-01 5.53658E-25
8.88573E-01 5.38257E-25
8.91304E-01 5.23160E-25
8.94005E-01 5.08362E-25
8.96677E-01 4.93859E-25
8.99318E-01 4.79646E-25
9.01928E-01 4.65717E-25
9.04508E-01 4.52070E-25
9.07058E-01 4.38699E-25
9.09576E-01 4.25600E-25
9.12063E-01 4.12769E-25
9.14519E-01 4.00202E-25
9.16943E-01 3.87895E-25
9.19335E-01 3.75844E-25
9.21696E-01 3.64045E-25
9.24024E-01 3.52495E-25
9.26320E-01 3.41190E-25
9.28584E-01 3.30127E-25
9.30815E-01 3.19302E-25
9.33013E-01 3.08712E-25
9.35178E-01 2.98353E-25
9.37310E-01 2.88223E-25
9.39409E-01 2.78319E-25
9.41474E-01 2.68637E-25
9.43505E-01 2.59175E-25
9.45503E-01 2.49929E-25
9.47467E-01 2.40898E-25
9.49397E-01 2.32077E-25
9.51293E-01 2.23466E-25
9.53154E-01 2.15061E-25
9.54981E-01 2.06859E-25
9.56773E-01 1.98859E-25
9.58530E-01 1.91058E-25
9.60252E-01 1.83453E-25
9.61940E-01 1.76043E-25
9.63592E-01 1.68825E-25
9.65209E-01 1.61798E-25
9.66790E-01 1.54958E-25
9.68336E-01 1.48305E-25
9.69846E-01 1.41837E-25
9.71321E-01 1.35551E-25
9.72759E-01 1.29445E-25
9.74162E-01 1.23519E-25
9.75528E-01 1.17770E-25
9.76858E-01 1.12196E-25
9.78152E-01 1.06797E-25
9.79410E-01 1.01571E-25
9.80631E-01 9.65150E-26
9.81815E-01 9.16293E-26
9.82963E-01 8.69118E-26
9.84074E-01 8.23614E-26
9.85148E-01 7.79767E-26
9.86185E-01 7.37566E-26
9.87185E-01 6.96999E-26
9.88148E-01 6.58054E-26
9.89074E-01 6.20720E-26
9.89962E-01 5.84988E-26
9.90814E-01 5.50848E-26
9.91627E-01 5.18290E-26
9.92404E-01 4.87305E-26
9.93143E-01 4.57884E-26
9.93844E-01 4.30020E-26
9.94508E-01 4.03705E-26
9.95134E-01 3.78932E-26
9.95722E-01 3.55694E-26
9.96273E-01 3.33985E-26
9.96786E-01 3.13798E-26
9.97261E-01 2.95129E-26
9.97698E-01 2.77971E-26
9.98097E-01 2.62322E-26
9.98459E-01 2.48175E-26
9.98782E-01 2.35528E-26
9.99067E-01 2.24377E-26
9.99315E-01 2.14718E-26
9.99524E-01 2.06550E-26
9.99695E-01 1.99871E-26
9.99829E-01 1.94677E-26
9.99924E-01 1.90968E-26
9.99981E-01 1.88743E-26
1.00000E+00 1.88002E-26
