 #
 # Subroutine ELSEPA. Elastic scattering of electrons and positrons
 #                    by neutral atoms and positive ions
 #
 # Projectile: electron
 # Kinetic energy = 1.50000E+06 eV = 5.51240E+04 a.u.
 #
 # WARNING: High-energy factorization with free-atom DF screening.
 #          Absorption, polarization and exchange corrections are
 #          switched off.
 #          Phase shifts are calculated for the bare nucleus.
 #          Scattering amplitudes are not evaluated.
 #
 # Element: Tm,  Z =  69,  atomic weight = 1.68934E+02 g/mol
 #
 # Nuclear model: Fermi distribution
 #                Average radius = 5.91502E-13 cm
 #                Skin thickness = 5.46000E-14 cm
 #
 # Number of electrons = 69
 #
 # Total elastic cross section = 7.53476E-18 cm**2 = 2.69071E-01 a0**2
 # 1st transport cross section = 1.84409E-21 cm**2 = 6.58537E-05 a0**2
 # 2nd transport cross section = 4.90139E-21 cm**2 = 1.75032E-04 a0**2
 #
 #
 # Differential cross section:                       MU=(1-COS(THETA))/2
 #
 #  THETA        MU          DCS          DCS        Sherman      error
 #  (deg)                 (cm**2/sr)   (a0**2/sr)    function
 #----------------------------------------------------------------------
0.00000E+00 2.80804E-13
7.61557E-13 2.80804E-13
1.18994E-12 2.80804E-13
1.71346E-12 2.80803E-13
2.33225E-12 2.80803E-13
3.04617E-12 2.80803E-13
3.85530E-12 2.80802E-13
4.75964E-12 2.80802E-13
5.75917E-12 2.80801E-13
6.85391E-12 2.80800E-13
8.04379E-12 2.80800E-13
9.32893E-12 2.80799E-13
1.07092E-11 2.80798E-13
1.21847E-11 2.80797E-13
1.37554E-11 2.80796E-13
1.54213E-11 2.80795E-13
1.71823E-11 2.80794E-13
1.90386E-11 2.80793E-13
2.09900E-11 2.80792E-13
2.30367E-11 2.80791E-13
2.51785E-11 2.80789E-13
2.74156E-11 2.80788E-13
2.97478E-11 2.80787E-13
3.21752E-11 2.80785E-13
3.46979E-11 2.80784E-13
3.73157E-11 2.80782E-13
4.00286E-11 2.80780E-13
4.28368E-11 2.80779E-13
4.57402E-11 2.80777E-13
4.87388E-11 2.80775E-13
5.18325E-11 2.80773E-13
5.50215E-11 2.80771E-13
5.83057E-11 2.80769E-13
6.16850E-11 2.80767E-13
6.51595E-11 2.80765E-13
6.87293E-11 2.80763E-13
7.23943E-11 2.80761E-13
7.61544E-11 2.80759E-13
1.18991E-10 2.80733E-13
1.71347E-10 2.80701E-13
2.33223E-10 2.80663E-13
3.04617E-10 2.80620E-13
3.85531E-10 2.80571E-13
4.75965E-10 2.80516E-13
5.75917E-10 2.80455E-13
6.85389E-10 2.80388E-13
8.04380E-10 2.80316E-13
9.32891E-10 2.80238E-13
1.07092E-09 2.80154E-13
1.21847E-09 2.80064E-13
1.37554E-09 2.79968E-13
1.54213E-09 2.79867E-13
1.71823E-09 2.79760E-13
1.90386E-09 2.79647E-13
2.09900E-09 2.79529E-13
2.30367E-09 2.79405E-13
2.51785E-09 2.79275E-13
2.74156E-09 2.79139E-13
2.97478E-09 2.78998E-13
3.21752E-09 2.78851E-13
3.46978E-09 2.78699E-13
3.73156E-09 2.78541E-13
4.00286E-09 2.78377E-13
4.28368E-09 2.78208E-13
4.57402E-09 2.78033E-13
4.87388E-09 2.77853E-13
5.18326E-09 2.77667E-13
5.50215E-09 2.77476E-13
5.83057E-09 2.77279E-13
6.16850E-09 2.77077E-13
6.51596E-09 2.76869E-13
6.87293E-09 2.76656E-13
7.23942E-09 2.76437E-13
7.61544E-09 2.76213E-13
1.18991E-08 2.73683E-13
1.71347E-08 2.70642E-13
2.33223E-08 2.67122E-13
3.04617E-08 2.63155E-13
3.85531E-08 2.58780E-13
4.75965E-08 2.54035E-13
5.75917E-08 2.48963E-13
6.85389E-08 2.43625E-13
8.04380E-08 2.38031E-13
9.32891E-08 2.32207E-13
1.07092E-07 2.26274E-13
1.21847E-07 2.20198E-13
1.37554E-07 2.14010E-13
1.54213E-07 2.07843E-13
1.71823E-07 2.01622E-13
1.90386E-07 1.95408E-13
2.09900E-07 1.89292E-13
2.30367E-07 1.83199E-13
2.51785E-07 1.77212E-13
2.74156E-07 1.71365E-13
2.97478E-07 1.65597E-13
3.21752E-07 1.60007E-13
3.46978E-07 1.54573E-13
3.73156E-07 1.49252E-13
4.00286E-07 1.44156E-13
4.28368E-07 1.39212E-13
4.57402E-07 1.34397E-13
4.87388E-07 1.29833E-13
5.18325E-07 1.25404E-13
5.50215E-07 1.21125E-13
5.83057E-07 1.17071E-13
6.16850E-07 1.13147E-13
6.51596E-07 1.09383E-13
6.87293E-07 1.05808E-13
7.23942E-07 1.02356E-13
7.61543E-07 9.90629E-14
1.18991E-06 7.30680E-14
1.71347E-06 5.60766E-14
2.33223E-06 4.43672E-14
3.04617E-06 3.58109E-14
3.85531E-06 2.92814E-14
4.75964E-06 2.41439E-14
5.75916E-06 2.00457E-14
6.85388E-06 1.65466E-14
8.04378E-06 1.38622E-14
9.32888E-06 1.18403E-14
1.07092E-05 9.98721E-15
1.21846E-05 8.52906E-15
1.37553E-05 7.37653E-15
1.54212E-05 6.33049E-15
1.71822E-05 5.49765E-15
1.90385E-05 4.80413E-15
2.09899E-05 4.19395E-15
2.30365E-05 3.69396E-15
2.51783E-05 3.26233E-15
2.74153E-05 2.88216E-15
2.97475E-05 2.56423E-15
3.21749E-05 2.28253E-15
3.46974E-05 2.03651E-15
3.73152E-05 1.82775E-15
4.00281E-05 1.63885E-15
4.28362E-05 1.47438E-15
4.57395E-05 1.33264E-15
4.87380E-05 1.20224E-15
5.18317E-05 1.08876E-15
5.50205E-05 9.89082E-16
5.83045E-05 8.97963E-16
6.16838E-05 8.18077E-16
6.51582E-05 7.46869E-16
6.87277E-05 6.82265E-16
7.23925E-05 6.25104E-16
7.61524E-05 5.73542E-16
9.21439E-05 4.13091E-16
1.09658E-04 3.05416E-16
1.28695E-04 2.30933E-16
1.49255E-04 1.78378E-16
1.71338E-04 1.40105E-16
1.94942E-04 1.11789E-16
2.20070E-04 9.04505E-17
2.46720E-04 7.40347E-17
2.74892E-04 6.12209E-17
3.04586E-04 5.10475E-17
3.35803E-04 4.29016E-17
3.68542E-04 3.63127E-17
4.02802E-04 3.09379E-17
4.38585E-04 2.65240E-17
4.75889E-04 2.28627E-17
5.14715E-04 1.98109E-17
5.55063E-04 1.72471E-17
5.96931E-04 1.50832E-17
6.40321E-04 1.32389E-17
6.85233E-04 1.16743E-17
7.31665E-04 1.03431E-17
7.79618E-04 9.18474E-18
8.29092E-04 8.18901E-18
8.80086E-04 7.32779E-18
9.32601E-04 6.57167E-18
9.86636E-04 5.91377E-18
1.04219E-03 5.33693E-18
1.09927E-03 4.82710E-18
1.15786E-03 4.37864E-18
1.21797E-03 3.98079E-18
1.27961E-03 3.62669E-18
1.34276E-03 3.31231E-18
1.40743E-03 3.03071E-18
1.47362E-03 2.77857E-18
1.54133E-03 2.55292E-18
1.61056E-03 2.34905E-18
1.68131E-03 2.16550E-18
1.75357E-03 2.00004E-18
1.82735E-03 1.84951E-18
1.90265E-03 1.71327E-18
1.97947E-03 1.58956E-18
2.05780E-03 1.47656E-18
2.13765E-03 1.37370E-18
2.21902E-03 1.27969E-18
2.30190E-03 1.19348E-18
2.38630E-03 1.11462E-18
2.47222E-03 1.04213E-18
2.55965E-03 9.75429E-19
2.64859E-03 9.14128E-19
2.73905E-03 8.57491E-19
2.83103E-03 8.05215E-19
2.92452E-03 7.56970E-19
3.01952E-03 7.12190E-19
3.11604E-03 6.70741E-19
3.21407E-03 6.32329E-19
3.31362E-03 5.96555E-19
3.41468E-03 5.63340E-19
3.51725E-03 5.32432E-19
3.62133E-03 5.03580E-19
3.72692E-03 4.76706E-19
3.83403E-03 4.51605E-19
3.94265E-03 4.28124E-19
4.05278E-03 4.06188E-19
4.16442E-03 3.85629E-19
4.27757E-03 3.66359E-19
4.39223E-03 3.48308E-19
4.50840E-03 3.31337E-19
4.62608E-03 3.15401E-19
4.74527E-03 3.00435E-19
4.86597E-03 2.86325E-19
4.98817E-03 2.73052E-19
5.11188E-03 2.60553E-19
5.23711E-03 2.48748E-19
5.36383E-03 2.37620E-19
5.49207E-03 2.27114E-19
5.62181E-03 2.17176E-19
5.75306E-03 2.07789E-19
5.88581E-03 1.98905E-19
6.02007E-03 1.90491E-19
6.15583E-03 1.82527E-19
6.29310E-03 1.74974E-19
6.43187E-03 1.67810E-19
6.57214E-03 1.61018E-19
6.71392E-03 1.54563E-19
6.85720E-03 1.48432E-19
7.00198E-03 1.42610E-19
7.14827E-03 1.37066E-19
7.29605E-03 1.31795E-19
7.44534E-03 1.26780E-19
7.59612E-03 1.21998E-19
7.97965E-03 1.11010E-19
8.37255E-03 1.01244E-19
8.77480E-03 9.25406E-20
9.18641E-03 8.47620E-20
9.60736E-03 7.77928E-20
1.00376E-02 7.15343E-20
1.04773E-02 6.59010E-20
1.09262E-02 6.08189E-20
1.13844E-02 5.62243E-20
1.18520E-02 5.20619E-20
1.23288E-02 4.82835E-20
1.28150E-02 4.48471E-20
1.33104E-02 4.17158E-20
1.38150E-02 3.88577E-20
1.43290E-02 3.62445E-20
1.48521E-02 3.38513E-20
1.53845E-02 3.16561E-20
1.59262E-02 2.96394E-20
1.64770E-02 2.77839E-20
1.70371E-02 2.60743E-20
1.76063E-02 2.44969E-20
1.81848E-02 2.30394E-20
1.87724E-02 2.16911E-20
1.93692E-02 2.04422E-20
1.99751E-02 1.92839E-20
2.05901E-02 1.82085E-20
2.12143E-02 1.72088E-20
2.18476E-02 1.62784E-20
2.24900E-02 1.54115E-20
2.31415E-02 1.46030E-20
2.38021E-02 1.38483E-20
2.44717E-02 1.31429E-20
2.51504E-02 1.24830E-20
2.58382E-02 1.18652E-20
2.65349E-02 1.12862E-20
2.72407E-02 1.07431E-20
2.79555E-02 1.02331E-20
2.86793E-02 9.75392E-21
2.94120E-02 9.30326E-21
3.01537E-02 8.87912E-21
3.09043E-02 8.47959E-21
3.16639E-02 8.10296E-21
3.24324E-02 7.74766E-21
3.32098E-02 7.41223E-21
3.39961E-02 7.09532E-21
3.47912E-02 6.79571E-21
3.55952E-02 6.51225E-21
3.64081E-02 6.24390E-21
3.72297E-02 5.98969E-21
3.80602E-02 5.74873E-21
3.88995E-02 5.52017E-21
3.97476E-02 5.30324E-21
4.06044E-02 5.09723E-21
4.14700E-02 4.90147E-21
4.23443E-02 4.71535E-21
4.32273E-02 4.53829E-21
4.41190E-02 4.36977E-21
4.50194E-02 4.20928E-21
4.59284E-02 4.05636E-21
4.68461E-02 3.91057E-21
4.87074E-02 3.63882E-21
5.06030E-02 3.39111E-21
5.25328E-02 3.16489E-21
5.44967E-02 2.95792E-21
5.64946E-02 2.76822E-21
5.85262E-02 2.59406E-21
6.05914E-02 2.43391E-21
6.26901E-02 2.28640E-21
6.48222E-02 2.15034E-21
6.69873E-02 2.02466E-21
6.91854E-02 1.90839E-21
7.14163E-02 1.80068E-21
7.36799E-02 1.70078E-21
7.59760E-02 1.60799E-21
7.83043E-02 1.52170E-21
8.06647E-02 1.44137E-21
8.30571E-02 1.36649E-21
8.54812E-02 1.29661E-21
8.79369E-02 1.23133E-21
9.04240E-02 1.17028E-21
9.29422E-02 1.11312E-21
9.54915E-02 1.05956E-21
9.80716E-02 1.00933E-21
1.00682E-01 9.62152E-22
1.03323E-01 9.17821E-22
1.05995E-01 8.76124E-22
1.08696E-01 8.36864E-22
1.11427E-01 7.99873E-22
1.14188E-01 7.64990E-22
1.16978E-01 7.32066E-22
1.19797E-01 7.00968E-22
1.22645E-01 6.71574E-22
1.25522E-01 6.43766E-22
1.28428E-01 6.17441E-22
1.31361E-01 5.92505E-22
1.34323E-01 5.68863E-22
1.37313E-01 5.46437E-22
1.40330E-01 5.25149E-22
1.43375E-01 5.04927E-22
1.46447E-01 4.85707E-22
1.49545E-01 4.67429E-22
1.52671E-01 4.50033E-22
1.55823E-01 4.33470E-22
1.59001E-01 4.17690E-22
1.62205E-01 4.02647E-22
1.65435E-01 3.88299E-22
1.68690E-01 3.74607E-22
1.71970E-01 3.61533E-22
1.75276E-01 3.49044E-22
1.78606E-01 3.37107E-22
1.81961E-01 3.25692E-22
1.85340E-01 3.14772E-22
1.88743E-01 3.04319E-22
1.92169E-01 2.94309E-22
1.95619E-01 2.84719E-22
1.99092E-01 2.75528E-22
2.02589E-01 2.66714E-22
2.06107E-01 2.58259E-22
2.09649E-01 2.50144E-22
2.13212E-01 2.42354E-22
2.16797E-01 2.34871E-22
2.20404E-01 2.27681E-22
2.24032E-01 2.20770E-22
2.27680E-01 2.14125E-22
2.31350E-01 2.07732E-22
2.35040E-01 2.01580E-22
2.38751E-01 1.95659E-22
2.42481E-01 1.89956E-22
2.46231E-01 1.84462E-22
2.50000E-01 1.79168E-22
2.53788E-01 1.74065E-22
2.57595E-01 1.69144E-22
2.61421E-01 1.64398E-22
2.65264E-01 1.59818E-22
2.69126E-01 1.55397E-22
2.73005E-01 1.51129E-22
2.76901E-01 1.47007E-22
2.80814E-01 1.43025E-22
2.84744E-01 1.39177E-22
2.88691E-01 1.35457E-22
2.92653E-01 1.31860E-22
2.96632E-01 1.28382E-22
3.00625E-01 1.25017E-22
3.04634E-01 1.21761E-22
3.08658E-01 1.18609E-22
3.12697E-01 1.15558E-22
3.16749E-01 1.12603E-22
3.20816E-01 1.09740E-22
3.24896E-01 1.06967E-22
3.28990E-01 1.04279E-22
3.33097E-01 1.01674E-22
3.37216E-01 9.91475E-23
3.41348E-01 9.66976E-23
3.45492E-01 9.43212E-23
3.49647E-01 9.20156E-23
3.53814E-01 8.97781E-23
3.57992E-01 8.76062E-23
3.62181E-01 8.54976E-23
3.66381E-01 8.34501E-23
3.70590E-01 8.14614E-23
3.74810E-01 7.95294E-23
3.79039E-01 7.76521E-23
3.83277E-01 7.58278E-23
3.87524E-01 7.40546E-23
3.91780E-01 7.23305E-23
3.96044E-01 7.06540E-23
4.00316E-01 6.90236E-23
4.04596E-01 6.74376E-23
4.08882E-01 6.58945E-23
4.13176E-01 6.43929E-23
4.17476E-01 6.29315E-23
4.21783E-01 6.15089E-23
4.26095E-01 6.01239E-23
4.30413E-01 5.87752E-23
4.34737E-01 5.74618E-23
4.39065E-01 5.61823E-23
4.43398E-01 5.49359E-23
4.47736E-01 5.37214E-23
4.52077E-01 5.25378E-23
4.56422E-01 5.13842E-23
4.60770E-01 5.02596E-23
4.65122E-01 4.91632E-23
4.69476E-01 4.80941E-23
4.73832E-01 4.70514E-23
4.78190E-01 4.60345E-23
4.82550E-01 4.50424E-23
4.86912E-01 4.40744E-23
4.91274E-01 4.31299E-23
4.95637E-01 4.22082E-23
5.00000E-01 4.13085E-23
5.04363E-01 4.04303E-23
5.08726E-01 3.95728E-23
5.13088E-01 3.87356E-23
5.17450E-01 3.79181E-23
5.21810E-01 3.71196E-23
5.26168E-01 3.63397E-23
5.30524E-01 3.55778E-23
5.34878E-01 3.48335E-23
5.39230E-01 3.41061E-23
5.43578E-01 3.33953E-23
5.47923E-01 3.27007E-23
5.52264E-01 3.20217E-23
5.56602E-01 3.13580E-23
5.60935E-01 3.07091E-23
5.65263E-01 3.00746E-23
5.69587E-01 2.94542E-23
5.73905E-01 2.88474E-23
5.78217E-01 2.82540E-23
5.82524E-01 2.76736E-23
5.86824E-01 2.71057E-23
5.91118E-01 2.65502E-23
5.95404E-01 2.60067E-23
5.99684E-01 2.54748E-23
6.03956E-01 2.49543E-23
6.08220E-01 2.44449E-23
6.12476E-01 2.39463E-23
6.16723E-01 2.34583E-23
6.20961E-01 2.29805E-23
6.25190E-01 2.25127E-23
6.29410E-01 2.20547E-23
6.33619E-01 2.16063E-23
6.37819E-01 2.11671E-23
6.42008E-01 2.07370E-23
6.46186E-01 2.03158E-23
6.50353E-01 1.99032E-23
6.54508E-01 1.94990E-23
6.58652E-01 1.91031E-23
6.62784E-01 1.87152E-23
6.66903E-01 1.83352E-23
6.71010E-01 1.79628E-23
6.75104E-01 1.75979E-23
6.79184E-01 1.72403E-23
6.83251E-01 1.68898E-23
6.87303E-01 1.65464E-23
6.91342E-01 1.62097E-23
6.95366E-01 1.58797E-23
6.99375E-01 1.55563E-23
7.03368E-01 1.52392E-23
7.07347E-01 1.49283E-23
7.11309E-01 1.46235E-23
7.15256E-01 1.43247E-23
7.19186E-01 1.40317E-23
7.23099E-01 1.37443E-23
7.26995E-01 1.34626E-23
7.30874E-01 1.31863E-23
7.34736E-01 1.29153E-23
7.38579E-01 1.26495E-23
7.42405E-01 1.23889E-23
7.46212E-01 1.21332E-23
7.50000E-01 1.18825E-23
7.53769E-01 1.16365E-23
7.57519E-01 1.13952E-23
7.61249E-01 1.11585E-23
7.64960E-01 1.09263E-23
7.68650E-01 1.06986E-23
7.72320E-01 1.04751E-23
7.75968E-01 1.02558E-23
7.79596E-01 1.00407E-23
7.83203E-01 9.82971E-24
7.86788E-01 9.62266E-24
7.90351E-01 9.41951E-24
7.93893E-01 9.22018E-24
7.97411E-01 9.02460E-24
8.00908E-01 8.83269E-24
8.04381E-01 8.64439E-24
8.07831E-01 8.45962E-24
8.11257E-01 8.27832E-24
8.14660E-01 8.10043E-24
8.18039E-01 7.92587E-24
8.21394E-01 7.75458E-24
8.24724E-01 7.58651E-24
8.28030E-01 7.42159E-24
8.31310E-01 7.25977E-24
8.34565E-01 7.10098E-24
8.37795E-01 6.94518E-24
8.40999E-01 6.79231E-24
8.44177E-01 6.64232E-24
8.47329E-01 6.49515E-24
8.50455E-01 6.35075E-24
8.53553E-01 6.20909E-24
8.56625E-01 6.07010E-24
8.59670E-01 5.93374E-24
8.62687E-01 5.79997E-24
8.65677E-01 5.66875E-24
8.68639E-01 5.54002E-24
8.71572E-01 5.41375E-24
8.74478E-01 5.28990E-24
8.77355E-01 5.16842E-24
8.80203E-01 5.04928E-24
8.83022E-01 4.93244E-24
8.85812E-01 4.81786E-24
8.88573E-01 4.70551E-24
8.91304E-01 4.59534E-24
8.94005E-01 4.48733E-24
8.96677E-01 4.38144E-24
8.99318E-01 4.27764E-24
9.01928E-01 4.17590E-24
9.04508E-01 4.07618E-24
9.07058E-01 3.97846E-24
9.09576E-01 3.88270E-24
9.12063E-01 3.78887E-24
9.14519E-01 3.69696E-24
9.16943E-01 3.60692E-24
9.19335E-01 3.51873E-24
9.21696E-01 3.43237E-24
9.24024E-01 3.34781E-24
9.26320E-01 3.26503E-24
9.28584E-01 3.18400E-24
9.30815E-01 3.10469E-24
9.33013E-01 3.02709E-24
9.35178E-01 2.95116E-24
9.37310E-01 2.87690E-24
9.39409E-01 2.80428E-24
9.41474E-01 2.73327E-24
9.43505E-01 2.66385E-24
9.45503E-01 2.59602E-24
9.47467E-01 2.52974E-24
9.49397E-01 2.46500E-24
9.51293E-01 2.40178E-24
9.53154E-01 2.34006E-24
9.54981E-01 2.27982E-24
9.56773E-01 2.22105E-24
9.58530E-01 2.16374E-24
9.60252E-01 2.10786E-24
9.61940E-01 2.05339E-24
9.63592E-01 2.00034E-24
9.65209E-01 1.94867E-24
9.66790E-01 1.89838E-24
9.68336E-01 1.84945E-24
9.69846E-01 1.80187E-24
9.71321E-01 1.75562E-24
9.72759E-01 1.71070E-24
9.74162E-01 1.66709E-24
9.75528E-01 1.62478E-24
9.76858E-01 1.58375E-24
9.78152E-01 1.54400E-24
9.79410E-01 1.50552E-24
9.80631E-01 1.46829E-24
9.81815E-01 1.43231E-24
9.82963E-01 1.39756E-24
9.84074E-01 1.36404E-24
9.85148E-01 1.33174E-24
9.86185E-01 1.30064E-24
9.87185E-01 1.27075E-24
9.88148E-01 1.24205E-24
9.89074E-01 1.21453E-24
9.89962E-01 1.18819E-24
9.90814E-01 1.16302E-24
9.91627E-01 1.13902E-24
9.92404E-01 1.11617E-24
9.93143E-01 1.09448E-24
9.93844E-01 1.07393E-24
9.94508E-01 1.05453E-24
9.95134E-01 1.03626E-24
9.95722E-01 1.01912E-24
9.96273E-01 1.00310E-24
9.96786E-01 9.88213E-25
9.97261E-01 9.74441E-25
9.97698E-01 9.61784E-25
9.98097E-01 9.50238E-25
9.98459E-01 9.39801E-25
9.98782E-01 9.30470E-25
9.99067E-01 9.22242E-25
9.99315E-01 9.15116E-25
9.99524E-01 9.09089E-25
9.99695E-01 9.04160E-25
9.99829E-01 9.00327E-25
9.99924E-01 8.97591E-25
9.99981E-01 8.95949E-25
1.00000E+00 8.95402E-25
