 #
 # Subroutine ELSEPA. Elastic scattering of electrons and positrons
 #                    by neutral atoms and positive ions
 #
 # Projectile: electron
 # Kinetic energy = 8.00000E+07 eV = 2.93995E+06 a.u.
 #
 # WARNING: High-energy factorization with free-atom DF screening.
 #          Absorption, polarization and exchange corrections are
 #          switched off.
 #          Phase shifts are calculated for the bare nucleus.
 #          Scattering amplitudes are not evaluated.
 #
 # Element: Tm,  Z =  69,  atomic weight = 1.68934E+02 g/mol
 #
 # Nuclear model: Fermi distribution
 #                Average radius = 5.91502E-13 cm
 #                Skin thickness = 5.46000E-14 cm
 #
 # Number of electrons = 69
 #
 # Total elastic cross section = 7.02293E-18 cm**2 = 2.50794E-01 a0**2
 # 1st transport cross section = 1.41871E-24 cm**2 = 5.06632E-08 a0**2
 # 2nd transport cross section = 4.20757E-24 cm**2 = 1.50255E-07 a0**2
 #
 #
 # Differential cross section:                       MU=(1-COS(THETA))/2
 #
 #  THETA        MU          DCS          DCS        Sherman      error
 #  (deg)                 (cm**2/sr)   (a0**2/sr)    function
 #----------------------------------------------------------------------
0.00000E+00 4.50081E-10
7.61557E-13 4.48797E-10
1.18994E-12 4.48080E-10
1.71346E-12 4.47205E-10
2.33225E-12 4.46176E-10
3.04617E-12 4.44993E-10
3.85530E-12 4.43660E-10
4.75964E-12 4.42177E-10
5.75917E-12 4.40548E-10
6.85391E-12 4.38776E-10
8.04379E-12 4.36864E-10
9.32893E-12 4.34814E-10
1.07092E-11 4.32631E-10
1.21847E-11 4.30318E-10
1.37554E-11 4.27878E-10
1.54213E-11 4.25317E-10
1.71823E-11 4.22637E-10
1.90386E-11 4.19844E-10
2.09900E-11 4.16942E-10
2.30367E-11 4.13934E-10
2.51785E-11 4.10827E-10
2.74156E-11 4.07624E-10
2.97478E-11 4.04330E-10
3.21752E-11 4.00950E-10
3.46979E-11 3.97489E-10
3.73157E-11 3.93968E-10
4.00286E-11 3.90376E-10
4.28368E-11 3.86711E-10
4.57402E-11 3.82976E-10
4.87388E-11 3.79177E-10
5.18325E-11 3.75317E-10
5.50215E-11 3.71401E-10
5.83057E-11 3.67489E-10
6.16850E-11 3.63536E-10
6.51595E-11 3.59539E-10
6.87293E-11 3.55503E-10
7.23943E-11 3.51432E-10
7.61544E-11 3.47329E-10
1.18991E-10 3.06269E-10
1.71347E-10 2.66821E-10
2.33223E-10 2.31144E-10
3.04617E-10 2.00092E-10
3.85531E-10 1.73741E-10
4.75965E-10 1.51717E-10
5.75917E-10 1.33374E-10
6.85389E-10 1.18117E-10
8.04380E-10 1.05327E-10
9.32891E-10 9.45305E-11
1.07092E-09 8.53218E-11
1.21847E-09 7.73693E-11
1.37554E-09 7.04547E-11
1.54213E-09 6.43576E-11
1.71823E-09 5.89635E-11
1.90386E-09 5.41345E-11
2.09900E-09 4.98036E-11
2.30367E-09 4.58889E-11
2.51785E-09 4.23434E-11
2.74156E-09 3.91208E-11
2.97478E-09 3.61822E-11
3.21752E-09 3.35034E-11
3.46978E-09 3.10493E-11
3.73156E-09 2.86389E-11
4.00286E-09 2.64486E-11
4.28368E-09 2.45176E-11
4.57402E-09 2.28088E-11
4.87388E-09 2.12910E-11
5.18326E-09 1.99381E-11
5.50215E-09 1.87281E-11
5.83057E-09 1.74197E-11
6.16850E-09 1.62318E-11
6.51596E-09 1.51667E-11
6.87293E-09 1.42089E-11
7.23942E-09 1.33451E-11
7.61544E-09 1.25641E-11
1.18991E-08 6.97474E-12
1.71347E-08 4.16965E-12
2.33223E-08 2.62188E-12
3.04617E-08 1.71621E-12
3.85531E-08 1.16258E-12
4.75965E-08 8.11834E-13
5.75917E-08 5.83793E-13
6.85389E-08 4.30802E-13
8.04380E-08 3.25650E-13
9.32891E-08 2.51237E-13
1.07092E-07 1.97239E-13
1.21847E-07 1.57269E-13
1.37554E-07 1.27155E-13
1.54213E-07 1.03952E-13
1.71823E-07 8.58330E-14
1.90386E-07 7.14663E-14
2.09900E-07 5.99778E-14
2.30367E-07 5.06981E-14
2.51785E-07 4.31420E-14
2.74156E-07 3.69365E-14
2.97478E-07 3.17989E-14
3.21752E-07 2.75185E-14
3.46978E-07 2.39281E-14
3.73156E-07 2.08898E-14
4.00286E-07 1.83271E-14
4.28368E-07 1.61594E-14
4.57402E-07 1.42831E-14
4.87388E-07 1.26800E-14
5.18325E-07 1.12977E-14
5.50215E-07 1.00925E-14
5.83057E-07 9.04863E-15
6.16850E-07 8.13479E-15
6.51596E-07 7.33278E-15
6.87293E-07 6.63007E-15
7.23942E-07 6.00680E-15
7.61543E-07 5.45610E-15
1.18991E-06 2.32884E-15
1.71347E-06 1.15572E-15
2.33223E-06 6.36732E-16
3.04617E-06 3.78907E-16
3.85531E-06 2.39232E-16
4.75964E-06 1.58314E-16
5.75916E-06 1.08869E-16
6.85388E-06 7.72971E-17
8.04378E-06 5.63812E-17
9.32888E-06 4.20858E-17
1.07092E-05 3.20487E-17
1.21846E-05 2.48343E-17
1.37553E-05 1.95414E-17
1.54212E-05 1.55872E-17
1.71822E-05 1.25849E-17
1.90385E-05 1.02670E-17
2.09899E-05 8.46813E-18
2.30365E-05 7.04562E-18
2.51783E-05 5.90826E-18
2.74153E-05 4.99031E-18
2.97475E-05 4.24335E-18
3.21749E-05 3.63104E-18
3.46974E-05 3.12559E-18
3.73152E-05 2.70546E-18
4.00281E-05 2.35389E-18
4.28362E-05 2.05776E-18
4.57395E-05 1.80675E-18
4.87380E-05 1.59280E-18
5.18317E-05 1.40950E-18
5.50205E-05 1.25176E-18
5.83045E-05 1.11545E-18
6.16838E-05 9.97209E-19
6.51582E-05 8.94260E-19
6.87277E-05 8.04297E-19
7.23925E-05 7.25389E-19
7.61524E-05 6.56212E-19
9.21439E-05 4.49210E-19
1.09658E-04 3.17778E-19
1.28695E-04 2.31132E-19
1.49255E-04 1.72110E-19
1.71338E-04 1.30803E-19
1.94942E-04 1.01187E-19
2.20070E-04 7.95069E-20
2.46720E-04 6.33422E-20
2.74892E-04 5.10896E-20
3.04586E-04 4.16664E-20
3.35803E-04 3.43224E-20
3.68542E-04 2.85305E-20
4.02802E-04 2.39128E-20
4.38585E-04 2.01947E-20
4.75889E-04 1.71736E-20
5.14715E-04 1.46983E-20
5.55063E-04 1.26544E-20
5.96931E-04 1.09548E-20
6.40321E-04 9.53193E-21
6.85233E-04 8.33349E-21
7.31665E-04 7.31821E-21
7.79618E-04 6.45345E-21
8.29092E-04 5.71317E-21
8.80086E-04 5.07643E-21
9.32601E-04 4.52631E-21
9.86636E-04 4.04901E-21
1.04219E-03 3.63324E-21
1.09927E-03 3.26971E-21
1.15786E-03 2.95072E-21
1.21797E-03 2.66986E-21
1.27961E-03 2.42178E-21
1.34276E-03 2.20199E-21
1.40743E-03 2.00668E-21
1.47362E-03 1.83266E-21
1.54133E-03 1.67718E-21
1.61056E-03 1.53793E-21
1.68131E-03 1.41290E-21
1.75357E-03 1.30039E-21
1.82735E-03 1.19891E-21
1.90265E-03 1.10719E-21
1.97947E-03 1.02412E-21
2.05780E-03 9.48730E-22
2.13765E-03 8.80190E-22
2.21902E-03 8.17760E-22
2.30190E-03 7.60797E-22
2.38630E-03 7.08733E-22
2.47222E-03 6.61070E-22
2.55965E-03 6.17368E-22
2.64859E-03 5.77237E-22
2.73905E-03 5.40331E-22
2.83103E-03 5.06342E-22
2.92452E-03 4.74998E-22
3.01952E-03 4.46055E-22
3.11604E-03 4.19293E-22
3.21407E-03 3.94519E-22
3.31362E-03 3.71557E-22
3.41468E-03 3.50250E-22
3.51725E-03 3.30455E-22
3.62133E-03 3.12047E-22
3.72692E-03 2.94908E-22
3.83403E-03 2.78937E-22
3.94265E-03 2.64035E-22
4.05278E-03 2.50117E-22
4.16442E-03 2.37107E-22
4.27757E-03 2.24936E-22
4.39223E-03 2.13539E-22
4.50840E-03 2.02857E-22
4.62608E-03 1.92837E-22
4.74527E-03 1.83431E-22
4.86597E-03 1.74593E-22
4.98817E-03 1.66282E-22
5.11188E-03 1.58461E-22
5.23711E-03 1.51096E-22
5.36383E-03 1.44156E-22
5.49207E-03 1.37610E-22
5.62181E-03 1.31432E-22
5.75306E-03 1.25597E-22
5.88581E-03 1.20084E-22
6.02007E-03 1.14870E-22
6.15583E-03 1.09936E-22
6.29310E-03 1.05265E-22
6.43187E-03 1.00839E-22
6.57214E-03 9.66440E-23
6.71392E-03 9.26647E-23
6.85720E-03 8.88880E-23
7.00198E-03 8.53018E-23
7.14827E-03 8.18946E-23
7.29605E-03 7.86557E-23
7.44534E-03 7.55751E-23
7.59612E-03 7.26437E-23
7.97965E-03 6.59126E-23
8.37255E-03 5.99417E-23
8.77480E-03 5.46299E-23
9.18641E-03 4.98915E-23
9.60736E-03 4.56536E-23
1.00376E-02 4.18540E-23
1.04773E-02 3.84391E-23
1.09262E-02 3.53631E-23
1.13844E-02 3.25862E-23
1.18520E-02 3.00743E-23
1.23288E-02 2.77974E-23
1.28150E-02 2.57297E-23
1.33104E-02 2.38484E-23
1.38150E-02 2.21337E-23
1.43290E-02 2.05683E-23
1.48521E-02 1.91368E-23
1.53845E-02 1.78256E-23
1.59262E-02 1.66229E-23
1.64770E-02 1.55181E-23
1.70371E-02 1.45018E-23
1.76063E-02 1.35656E-23
1.81848E-02 1.27021E-23
1.87724E-02 1.19046E-23
1.93692E-02 1.11671E-23
1.99751E-02 1.04845E-23
2.05901E-02 9.85179E-24
2.12143E-02 9.26476E-24
2.18476E-02 8.71950E-24
2.24900E-02 8.21254E-24
2.31415E-02 7.74070E-24
2.38021E-02 7.30112E-24
2.44717E-02 6.89121E-24
2.51504E-02 6.50863E-24
2.58382E-02 6.15123E-24
2.65349E-02 5.81707E-24
2.72407E-02 5.50437E-24
2.79555E-02 5.21152E-24
2.86793E-02 4.93705E-24
2.94120E-02 4.67961E-24
3.01537E-02 4.43795E-24
3.09043E-02 4.21095E-24
3.16639E-02 3.99757E-24
3.24324E-02 3.79686E-24
3.32098E-02 3.60793E-24
3.39961E-02 3.42998E-24
3.47912E-02 3.26227E-24
3.55952E-02 3.10410E-24
3.64081E-02 2.95486E-24
3.72297E-02 2.81395E-24
3.80602E-02 2.68082E-24
3.88995E-02 2.55500E-24
3.97476E-02 2.43599E-24
4.06044E-02 2.32339E-24
4.14700E-02 2.21679E-24
4.23443E-02 2.11582E-24
4.32273E-02 2.02013E-24
4.41190E-02 1.92941E-24
4.50194E-02 1.84336E-24
4.59284E-02 1.76170E-24
4.68461E-02 1.68417E-24
4.87074E-02 1.54057E-24
5.06030E-02 1.41081E-24
5.25328E-02 1.29337E-24
5.44967E-02 1.18693E-24
5.64946E-02 1.09030E-24
5.85262E-02 1.00248E-24
6.05914E-02 9.22538E-25
6.26901E-02 8.49687E-25
6.48222E-02 7.83217E-25
6.69873E-02 7.22497E-25
6.91854E-02 6.66970E-25
7.14163E-02 6.16136E-25
7.36799E-02 5.69554E-25
7.59760E-02 5.26824E-25
7.83043E-02 4.87593E-25
8.06647E-02 4.51542E-25
8.30571E-02 4.18384E-25
8.54812E-02 3.87863E-25
8.79369E-02 3.59747E-25
9.04240E-02 3.33826E-25
9.29422E-02 3.09913E-25
9.54915E-02 2.87837E-25
9.80716E-02 2.67442E-25
1.00682E-01 2.48589E-25
1.03323E-01 2.31152E-25
1.05995E-01 2.15013E-25
1.08696E-01 2.00068E-25
1.11427E-01 1.86222E-25
1.14188E-01 1.73386E-25
1.16978E-01 1.61482E-25
1.19797E-01 1.50436E-25
1.22645E-01 1.40183E-25
1.25522E-01 1.30661E-25
1.28428E-01 1.21814E-25
1.31361E-01 1.13591E-25
1.34323E-01 1.05946E-25
1.37313E-01 9.88346E-26
1.40330E-01 9.22181E-26
1.43375E-01 8.60598E-26
1.46447E-01 8.03262E-26
1.49545E-01 7.49864E-26
1.52671E-01 7.00120E-26
1.55823E-01 6.53767E-26
1.59001E-01 6.10564E-26
1.62205E-01 5.70285E-26
1.65435E-01 5.32725E-26
1.68690E-01 4.97692E-26
1.71970E-01 4.65010E-26
1.75276E-01 4.34515E-26
1.78606E-01 4.06055E-26
1.81961E-01 3.79490E-26
1.85340E-01 3.54690E-26
1.88743E-01 3.31534E-26
1.92169E-01 3.09909E-26
1.95619E-01 2.89713E-26
1.99092E-01 2.70848E-26
2.02589E-01 2.53224E-26
2.06107E-01 2.36758E-26
2.09649E-01 2.21373E-26
2.13212E-01 2.06996E-26
2.16797E-01 1.93560E-26
2.20404E-01 1.81003E-26
2.24032E-01 1.69266E-26
2.27680E-01 1.58295E-26
2.31350E-01 1.48039E-26
2.35040E-01 1.38452E-26
2.38751E-01 1.29490E-26
2.42481E-01 1.21111E-26
2.46231E-01 1.13277E-26
2.50000E-01 1.05953E-26
2.53788E-01 9.91061E-27
2.57595E-01 9.27040E-27
2.61421E-01 8.67184E-27
2.65264E-01 8.11221E-27
2.69126E-01 7.58899E-27
2.73005E-01 7.09980E-27
2.76901E-01 6.64244E-27
2.80814E-01 6.21484E-27
2.84744E-01 5.81509E-27
2.88691E-01 5.44137E-27
2.92653E-01 5.09200E-27
2.96632E-01 4.76541E-27
3.00625E-01 4.46011E-27
3.04634E-01 4.17474E-27
3.08658E-01 3.90799E-27
3.12697E-01 3.65867E-27
3.16749E-01 3.42565E-27
3.20816E-01 3.20787E-27
3.24896E-01 3.00434E-27
3.28990E-01 2.81413E-27
3.33097E-01 2.63639E-27
3.37216E-01 2.47031E-27
3.41348E-01 2.31512E-27
3.45492E-01 2.17012E-27
3.49647E-01 2.03464E-27
3.53814E-01 1.90807E-27
3.57992E-01 1.78982E-27
3.62181E-01 1.67934E-27
3.66381E-01 1.57614E-27
3.70590E-01 1.47973E-27
3.74810E-01 1.38967E-27
3.79039E-01 1.30554E-27
3.83277E-01 1.22696E-27
3.87524E-01 1.15355E-27
3.91780E-01 1.08497E-27
3.96044E-01 1.02091E-27
4.00316E-01 9.61062E-28
4.04596E-01 9.05155E-28
4.08882E-01 8.52922E-28
4.13176E-01 8.04121E-28
4.17476E-01 7.58522E-28
4.21783E-01 7.15912E-28
4.26095E-01 6.76090E-28
4.30413E-01 6.38871E-28
4.34737E-01 6.04078E-28
4.39065E-01 5.71550E-28
4.43398E-01 5.41133E-28
4.47736E-01 5.12685E-28
4.52077E-01 4.86074E-28
4.56422E-01 4.61173E-28
4.60770E-01 4.37869E-28
4.65122E-01 4.16051E-28
4.69476E-01 3.95620E-28
4.73832E-01 3.76480E-28
4.78190E-01 3.58544E-28
4.82550E-01 3.41728E-28
4.86912E-01 3.25957E-28
4.91274E-01 3.11159E-28
4.95637E-01 2.97267E-28
5.00000E-01 2.84219E-28
5.04363E-01 2.71957E-28
5.08726E-01 2.60427E-28
5.13088E-01 2.49579E-28
5.17450E-01 2.39365E-28
5.21810E-01 2.29743E-28
5.26168E-01 2.20671E-28
5.30524E-01 2.12112E-28
5.34878E-01 2.04031E-28
5.39230E-01 1.96394E-28
5.43578E-01 1.89171E-28
5.47923E-01 1.82334E-28
5.52264E-01 1.75858E-28
5.56602E-01 1.69716E-28
5.60935E-01 1.63887E-28
5.65263E-01 1.58349E-28
5.69587E-01 1.53082E-28
5.73905E-01 1.48070E-28
5.78217E-01 1.43294E-28
5.82524E-01 1.38739E-28
5.86824E-01 1.34390E-28
5.91118E-01 1.30235E-28
5.95404E-01 1.26259E-28
5.99684E-01 1.22453E-28
6.03956E-01 1.18804E-28
6.08220E-01 1.15304E-28
6.12476E-01 1.11943E-28
6.16723E-01 1.08711E-28
6.20961E-01 1.05603E-28
6.25190E-01 1.02609E-28
6.29410E-01 9.97234E-29
6.33619E-01 9.69398E-29
6.37819E-01 9.42524E-29
6.42008E-01 9.16557E-29
6.46186E-01 8.91447E-29
6.50353E-01 8.67148E-29
6.54508E-01 8.43617E-29
6.58652E-01 8.20815E-29
6.62784E-01 7.98705E-29
6.66903E-01 7.77253E-29
6.71010E-01 7.56427E-29
6.75104E-01 7.36198E-29
6.79184E-01 7.16539E-29
6.83251E-01 6.97425E-29
6.87303E-01 6.78833E-29
6.91342E-01 6.60740E-29
6.95366E-01 6.43127E-29
6.99375E-01 6.25975E-29
7.03368E-01 6.09266E-29
7.07347E-01 5.92984E-29
7.11309E-01 5.77115E-29
7.15256E-01 5.61643E-29
7.19186E-01 5.46556E-29
7.23099E-01 5.31841E-29
7.26995E-01 5.17487E-29
7.30874E-01 5.03482E-29
7.34736E-01 4.89816E-29
7.38579E-01 4.76481E-29
7.42405E-01 4.63465E-29
7.46212E-01 4.50762E-29
7.50000E-01 4.38362E-29
7.53769E-01 4.26258E-29
7.57519E-01 4.14442E-29
7.61249E-01 4.02908E-29
7.64960E-01 3.91649E-29
7.68650E-01 3.80658E-29
7.72320E-01 3.69929E-29
7.75968E-01 3.59456E-29
7.79596E-01 3.49234E-29
7.83203E-01 3.39256E-29
7.86788E-01 3.29518E-29
7.90351E-01 3.20015E-29
7.93893E-01 3.10741E-29
7.97411E-01 3.01691E-29
8.00908E-01 2.92862E-29
8.04381E-01 2.84248E-29
8.07831E-01 2.75844E-29
8.11257E-01 2.67647E-29
8.14660E-01 2.59653E-29
8.18039E-01 2.51856E-29
8.21394E-01 2.44253E-29
8.24724E-01 2.36840E-29
8.28030E-01 2.29613E-29
8.31310E-01 2.22569E-29
8.34565E-01 2.15702E-29
8.37795E-01 2.09010E-29
8.40999E-01 2.02489E-29
8.44177E-01 1.96136E-29
8.47329E-01 1.89946E-29
8.50455E-01 1.83917E-29
8.53553E-01 1.78044E-29
8.56625E-01 1.72325E-29
8.59670E-01 1.66756E-29
8.62687E-01 1.61334E-29
8.65677E-01 1.56056E-29
8.68639E-01 1.50918E-29
8.71572E-01 1.45917E-29
8.74478E-01 1.41051E-29
8.77355E-01 1.36317E-29
8.80203E-01 1.31710E-29
8.83022E-01 1.27229E-29
8.85812E-01 1.22871E-29
8.88573E-01 1.18632E-29
8.91304E-01 1.14511E-29
8.94005E-01 1.10503E-29
8.96677E-01 1.06607E-29
8.99318E-01 1.02821E-29
9.01928E-01 9.91400E-30
9.04508E-01 9.55633E-30
9.07058E-01 9.20879E-30
9.09576E-01 8.87115E-30
9.12063E-01 8.54315E-30
9.14519E-01 8.22458E-30
9.16943E-01 7.91519E-30
9.19335E-01 7.61477E-30
9.21696E-01 7.32309E-30
9.24024E-01 7.03994E-30
9.26320E-01 6.76511E-30
9.28584E-01 6.49839E-30
9.30815E-01 6.23958E-30
9.33013E-01 5.98849E-30
9.35178E-01 5.74492E-30
9.37310E-01 5.50868E-30
9.39409E-01 5.27960E-30
9.41474E-01 5.05749E-30
9.43505E-01 4.84218E-30
9.45503E-01 4.63350E-30
9.47467E-01 4.43128E-30
9.49397E-01 4.23536E-30
9.51293E-01 4.04559E-30
9.53154E-01 3.86181E-30
9.54981E-01 3.68388E-30
9.56773E-01 3.51164E-30
9.58530E-01 3.34496E-30
9.60252E-01 3.18371E-30
9.61940E-01 3.02774E-30
9.63592E-01 2.87693E-30
9.65209E-01 2.73116E-30
9.66790E-01 2.59031E-30
9.68336E-01 2.45425E-30
9.69846E-01 2.32288E-30
9.71321E-01 2.19608E-30
9.72759E-01 2.07375E-30
9.74162E-01 1.95578E-30
9.75528E-01 1.84207E-30
9.76858E-01 1.73254E-30
9.78152E-01 1.62708E-30
9.79410E-01 1.52560E-30
9.80631E-01 1.42803E-30
9.81815E-01 1.33427E-30
9.82963E-01 1.24425E-30
9.84074E-01 1.15789E-30
9.85148E-01 1.07511E-30
9.86185E-01 9.95853E-31
9.87185E-01 9.20041E-31
9.88148E-01 8.47612E-31
9.89074E-01 7.78503E-31
9.89962E-01 7.12655E-31
9.90814E-01 6.50012E-31
9.91627E-01 5.90519E-31
9.92404E-01 5.34126E-31
9.93143E-01 4.80784E-31
9.93844E-01 4.30447E-31
9.94508E-01 3.83072E-31
9.95134E-01 3.38618E-31
9.95722E-01 2.97047E-31
9.96273E-01 2.58323E-31
9.96786E-01 2.22412E-31
9.97261E-01 1.89284E-31
9.97698E-01 1.58911E-31
9.98097E-01 1.31265E-31
9.98459E-01 1.06324E-31
9.98782E-01 8.40654E-32
9.99067E-01 6.44704E-32
9.99315E-01 4.75220E-32
9.99524E-01 3.32057E-32
9.99695E-01 2.15092E-32
9.99829E-01 1.24223E-32
9.99924E-01 5.93728E-33
9.99981E-01 2.04849E-33
1.00000E+00 7.52549E-34
