 #
 # Subroutine ELSEPA. Elastic scattering of electrons and positrons
 #                    by neutral atoms and positive ions
 #
 # Projectile: electron
 # Kinetic energy = 7.00000E+07 eV = 2.57245E+06 a.u.
 #
 # WARNING: High-energy factorization with free-atom DF screening.
 #          Absorption, polarization and exchange corrections are
 #          switched off.
 #          Phase shifts are calculated for the bare nucleus.
 #          Scattering amplitudes are not evaluated.
 #
 # Element: Tm,  Z =  69,  atomic weight = 1.68934E+02 g/mol
 #
 # Nuclear model: Fermi distribution
 #                Average radius = 5.91502E-13 cm
 #                Skin thickness = 5.46000E-14 cm
 #
 # Number of electrons = 69
 #
 # Total elastic cross section = 7.02335E-18 cm**2 = 2.50809E-01 a0**2
 # 1st transport cross section = 1.85062E-24 cm**2 = 6.60870E-08 a0**2
 # 2nd transport cross section = 5.47354E-24 cm**2 = 1.95464E-07 a0**2
 #
 #
 # Differential cross section:                       MU=(1-COS(THETA))/2
 #
 #  THETA        MU          DCS          DCS        Sherman      error
 #  (deg)                 (cm**2/sr)   (a0**2/sr)    function
 #----------------------------------------------------------------------
0.00000E+00 3.45218E-10
7.61557E-13 3.44462E-10
1.18994E-12 3.44040E-10
1.71346E-12 3.43524E-10
2.33225E-12 3.42916E-10
3.04617E-12 3.42218E-10
3.85530E-12 3.41429E-10
4.75964E-12 3.40551E-10
5.75917E-12 3.39586E-10
6.85391E-12 3.38534E-10
8.04379E-12 3.37396E-10
9.32893E-12 3.36175E-10
1.07092E-11 3.34872E-10
1.21847E-11 3.33488E-10
1.37554E-11 3.32026E-10
1.54213E-11 3.30487E-10
1.71823E-11 3.28873E-10
1.90386E-11 3.27187E-10
2.09900E-11 3.25430E-10
2.30367E-11 3.23605E-10
2.51785E-11 3.21713E-10
2.74156E-11 3.19757E-10
2.97478E-11 3.17740E-10
3.21752E-11 3.15664E-10
3.46979E-11 3.13530E-10
3.73157E-11 3.11343E-10
4.00286E-11 3.09103E-10
4.28368E-11 3.06814E-10
4.57402E-11 3.04478E-10
4.87388E-11 3.02111E-10
5.18325E-11 2.99700E-10
5.50215E-11 2.97245E-10
5.83057E-11 2.94749E-10
6.16850E-11 2.92214E-10
6.51595E-11 2.89643E-10
6.87293E-11 2.87037E-10
7.23943E-11 2.84402E-10
7.61544E-11 2.81775E-10
1.18991E-10 2.54485E-10
1.71347E-10 2.27003E-10
2.33223E-10 2.00861E-10
3.04617E-10 1.77131E-10
3.85531E-10 1.56101E-10
4.75965E-10 1.37831E-10
5.75917E-10 1.22192E-10
6.85389E-10 1.08883E-10
8.04380E-10 9.75431E-11
9.32891E-10 8.78638E-11
1.07092E-09 7.95736E-11
1.21847E-09 7.24104E-11
1.37554E-09 6.61776E-11
1.54213E-09 6.07074E-11
1.71823E-09 5.58650E-11
1.90386E-09 5.15540E-11
2.09900E-09 4.76918E-11
2.30367E-09 4.41935E-11
2.51785E-09 4.10240E-11
2.74156E-09 3.81413E-11
2.97478E-09 3.55025E-11
3.21752E-09 3.30780E-11
3.46978E-09 3.08533E-11
3.73156E-09 2.88078E-11
4.00286E-09 2.69124E-11
4.28368E-09 2.51642E-11
4.57402E-09 2.35502E-11
4.87388E-09 2.19215E-11
5.18326E-09 2.04435E-11
5.50215E-09 1.91204E-11
5.83057E-09 1.79324E-11
6.16850E-09 1.68628E-11
6.51596E-09 1.58970E-11
6.87293E-09 1.50227E-11
7.23942E-09 1.42140E-11
7.61544E-09 1.33309E-11
1.18991E-08 7.61805E-12
1.71347E-08 4.66476E-12
2.33223E-08 3.00938E-12
3.04617E-08 2.00537E-12
3.85531E-08 1.38076E-12
4.75965E-08 9.77225E-13
5.75917E-08 7.08030E-13
6.85389E-08 5.24520E-13
8.04380E-08 3.97088E-13
9.32891E-08 3.06576E-13
1.07092E-07 2.40789E-13
1.21847E-07 1.92101E-13
1.37554E-07 1.55292E-13
1.54213E-07 1.27091E-13
1.71823E-07 1.05131E-13
1.90386E-07 8.77890E-14
2.09900E-07 7.39067E-14
2.30367E-07 6.26391E-14
2.51785E-07 5.34346E-14
2.74156E-07 4.58578E-14
2.97478E-07 3.95717E-14
3.21752E-07 3.43212E-14
3.46978E-07 2.99122E-14
3.73156E-07 2.61862E-14
4.00286E-07 2.30146E-14
4.28368E-07 2.03060E-14
4.57402E-07 1.79828E-14
4.87388E-07 1.59701E-14
5.18325E-07 1.42383E-14
5.50215E-07 1.27435E-14
5.83057E-07 1.14304E-14
6.16850E-07 1.02829E-14
6.51596E-07 9.28061E-15
6.87293E-07 8.39368E-15
7.23942E-07 7.60949E-15
7.61543E-07 6.91759E-15
1.18991E-06 2.96623E-15
1.71347E-06 1.47659E-15
2.33223E-06 8.15891E-16
3.04617E-06 4.86769E-16
3.85531E-06 3.08004E-16
4.75964E-06 2.04187E-16
5.75916E-06 1.40605E-16
6.85388E-06 9.99319E-17
8.04378E-06 7.29490E-17
9.32888E-06 5.44855E-17
1.07092E-05 4.15099E-17
1.21846E-05 3.21775E-17
1.37553E-05 2.53274E-17
1.54212E-05 2.02078E-17
1.71822E-05 1.63195E-17
1.90385E-05 1.33167E-17
2.09899E-05 1.09858E-17
2.30365E-05 9.14216E-18
2.51783E-05 7.66784E-18
2.74153E-05 6.47767E-18
2.97475E-05 5.50906E-18
3.21749E-05 4.71492E-18
3.46974E-05 4.05926E-18
3.73152E-05 3.51420E-18
4.00281E-05 3.05801E-18
4.28362E-05 2.67367E-18
4.57395E-05 2.34787E-18
4.87380E-05 2.07011E-18
5.18317E-05 1.83212E-18
5.50205E-05 1.62728E-18
5.83045E-05 1.45025E-18
6.16838E-05 1.29666E-18
6.51582E-05 1.16293E-18
6.87277E-05 1.04604E-18
7.23925E-05 9.43509E-19
7.61524E-05 8.53501E-19
9.21439E-05 5.84436E-19
1.09658E-04 4.13534E-19
1.28695E-04 3.00834E-19
1.49255E-04 2.24044E-19
1.71338E-04 1.70291E-19
1.94942E-04 1.31744E-19
2.20070E-04 1.03523E-19
2.46720E-04 8.24791E-20
2.74892E-04 6.65266E-20
3.04586E-04 5.42569E-20
3.35803E-04 4.46939E-20
3.68542E-04 3.71517E-20
4.02802E-04 3.11383E-20
4.38585E-04 2.62963E-20
4.75889E-04 2.23619E-20
5.14715E-04 1.91383E-20
5.55063E-04 1.64766E-20
5.96931E-04 1.42631E-20
6.40321E-04 1.24102E-20
6.85233E-04 1.08496E-20
7.31665E-04 9.52741E-21
7.79618E-04 8.40132E-21
8.29092E-04 7.43734E-21
8.80086E-04 6.60822E-21
9.32601E-04 5.89190E-21
9.86636E-04 5.27043E-21
1.04219E-03 4.72909E-21
1.09927E-03 4.25579E-21
1.15786E-03 3.84048E-21
1.21797E-03 3.47484E-21
1.27961E-03 3.15189E-21
1.34276E-03 2.86576E-21
1.40743E-03 2.61153E-21
1.47362E-03 2.38500E-21
1.54133E-03 2.18264E-21
1.61056E-03 2.00139E-21
1.68131E-03 1.83866E-21
1.75357E-03 1.69223E-21
1.82735E-03 1.56016E-21
1.90265E-03 1.44080E-21
1.97947E-03 1.33269E-21
2.05780E-03 1.23459E-21
2.13765E-03 1.14541E-21
2.21902E-03 1.06418E-21
2.30190E-03 9.90059E-22
2.38630E-03 9.22320E-22
2.47222E-03 8.60309E-22
2.55965E-03 8.03453E-22
2.64859E-03 7.51244E-22
2.73905E-03 7.03232E-22
2.83103E-03 6.59017E-22
2.92452E-03 6.18243E-22
3.01952E-03 5.80593E-22
3.11604E-03 5.45782E-22
3.21407E-03 5.13557E-22
3.31362E-03 4.83690E-22
3.41468E-03 4.55975E-22
3.51725E-03 4.30228E-22
3.62133E-03 4.06284E-22
3.72692E-03 3.83993E-22
3.83403E-03 3.63218E-22
3.94265E-03 3.43837E-22
4.05278E-03 3.25740E-22
4.16442E-03 3.08824E-22
4.27757E-03 2.92998E-22
4.39223E-03 2.78179E-22
4.50840E-03 2.64291E-22
4.62608E-03 2.51263E-22
4.74527E-03 2.39033E-22
4.86597E-03 2.27542E-22
4.98817E-03 2.16737E-22
5.11188E-03 2.06569E-22
5.23711E-03 1.96991E-22
5.36383E-03 1.87964E-22
5.49207E-03 1.79451E-22
5.62181E-03 1.71416E-22
5.75306E-03 1.63829E-22
5.88581E-03 1.56658E-22
6.02007E-03 1.49877E-22
6.15583E-03 1.43460E-22
6.29310E-03 1.37385E-22
6.43187E-03 1.31628E-22
6.57214E-03 1.26172E-22
6.71392E-03 1.20996E-22
6.85720E-03 1.16083E-22
7.00198E-03 1.11418E-22
7.14827E-03 1.06986E-22
7.29605E-03 1.02773E-22
7.44534E-03 9.87654E-23
7.59612E-03 9.49518E-23
7.97965E-03 8.61944E-23
8.37255E-03 7.84252E-23
8.77480E-03 7.15127E-23
9.18641E-03 6.53456E-23
9.60736E-03 5.98291E-23
1.00376E-02 5.48822E-23
1.04773E-02 5.04354E-23
1.09262E-02 4.64291E-23
1.13844E-02 4.28117E-23
1.18520E-02 3.95386E-23
1.23288E-02 3.65711E-23
1.28150E-02 3.38755E-23
1.33104E-02 3.14223E-23
1.38150E-02 2.91858E-23
1.43290E-02 2.71432E-23
1.48521E-02 2.52748E-23
1.53845E-02 2.35630E-23
1.59262E-02 2.19922E-23
1.64770E-02 2.05487E-23
1.70371E-02 1.92203E-23
1.76063E-02 1.79962E-23
1.81848E-02 1.68666E-23
1.87724E-02 1.58230E-23
1.93692E-02 1.48575E-23
1.99751E-02 1.39634E-23
2.05901E-02 1.31343E-23
2.12143E-02 1.23646E-23
2.18476E-02 1.16494E-23
2.24900E-02 1.09841E-23
2.31415E-02 1.03645E-23
2.38021E-02 9.78695E-24
2.44717E-02 9.24811E-24
2.51504E-02 8.74489E-24
2.58382E-02 8.27451E-24
2.65349E-02 7.83445E-24
2.72407E-02 7.42240E-24
2.79555E-02 7.03626E-24
2.86793E-02 6.67411E-24
2.94120E-02 6.33420E-24
3.01537E-02 6.01491E-24
3.09043E-02 5.71478E-24
3.16639E-02 5.43246E-24
3.24324E-02 5.16669E-24
3.32098E-02 4.91634E-24
3.39961E-02 4.68036E-24
3.47912E-02 4.45779E-24
3.55952E-02 4.24772E-24
3.64081E-02 4.04933E-24
3.72297E-02 3.86186E-24
3.80602E-02 3.68461E-24
3.88995E-02 3.51693E-24
3.97476E-02 3.35821E-24
4.06044E-02 3.20788E-24
4.14700E-02 3.06544E-24
4.23443E-02 2.93040E-24
4.32273E-02 2.80230E-24
4.41190E-02 2.68074E-24
4.50194E-02 2.56533E-24
4.59284E-02 2.45569E-24
4.68461E-02 2.35150E-24
4.87074E-02 2.15822E-24
5.06030E-02 1.98320E-24
5.25328E-02 1.82447E-24
5.44967E-02 1.68027E-24
5.64946E-02 1.54908E-24
5.85262E-02 1.42955E-24
6.05914E-02 1.32049E-24
6.26901E-02 1.22087E-24
6.48222E-02 1.12973E-24
6.69873E-02 1.04626E-24
6.91854E-02 9.69732E-25
7.14163E-02 8.99480E-25
7.36799E-02 8.34921E-25
7.59760E-02 7.75535E-25
7.83043E-02 7.20851E-25
8.06647E-02 6.70449E-25
8.30571E-02 6.23953E-25
8.54812E-02 5.81020E-25
8.79369E-02 5.41344E-25
9.04240E-02 5.04648E-25
9.29422E-02 4.70683E-25
9.54915E-02 4.39219E-25
9.80716E-02 4.10053E-25
1.00682E-01 3.82998E-25
1.03323E-01 3.57883E-25
1.05995E-01 3.34555E-25
1.08696E-01 3.12873E-25
1.11427E-01 2.92708E-25
1.14188E-01 2.73944E-25
1.16978E-01 2.56473E-25
1.19797E-01 2.40198E-25
1.22645E-01 2.25028E-25
1.25522E-01 2.10882E-25
1.28428E-01 1.97685E-25
1.31361E-01 1.85366E-25
1.34323E-01 1.73863E-25
1.37313E-01 1.63116E-25
1.40330E-01 1.53073E-25
1.43375E-01 1.43682E-25
1.46447E-01 1.34898E-25
1.49545E-01 1.26680E-25
1.52671E-01 1.18987E-25
1.55823E-01 1.11784E-25
1.59001E-01 1.05038E-25
1.62205E-01 9.87170E-26
1.65435E-01 9.27928E-26
1.68690E-01 8.72388E-26
1.71970E-01 8.20306E-26
1.75276E-01 7.71452E-26
1.78606E-01 7.25615E-26
1.81961E-01 6.82598E-26
1.85340E-01 6.42216E-26
1.88743E-01 6.04301E-26
1.92169E-01 5.68694E-26
1.95619E-01 5.35247E-26
1.99092E-01 5.03823E-26
2.02589E-01 4.74294E-26
2.06107E-01 4.46541E-26
2.09649E-01 4.20451E-26
2.13212E-01 3.95922E-26
2.16797E-01 3.72857E-26
2.20404E-01 3.51163E-26
2.24032E-01 3.30758E-26
2.27680E-01 3.11562E-26
2.31350E-01 2.93501E-26
2.35040E-01 2.76505E-26
2.38751E-01 2.60511E-26
2.42481E-01 2.45457E-26
2.46231E-01 2.31286E-26
2.50000E-01 2.17945E-26
2.53788E-01 2.05385E-26
2.57595E-01 1.93559E-26
2.61421E-01 1.82423E-26
2.65264E-01 1.71936E-26
2.69126E-01 1.62059E-26
2.73005E-01 1.52756E-26
2.76901E-01 1.43994E-26
2.80814E-01 1.35740E-26
2.84744E-01 1.27965E-26
2.88691E-01 1.20640E-26
2.92653E-01 1.13739E-26
2.96632E-01 1.07237E-26
3.00625E-01 1.01111E-26
3.04634E-01 9.53393E-27
3.08658E-01 8.99008E-27
3.12697E-01 8.47762E-27
3.16749E-01 7.99473E-27
3.20816E-01 7.53971E-27
3.24896E-01 7.11092E-27
3.28990E-01 6.70686E-27
3.33097E-01 6.32609E-27
3.37216E-01 5.96727E-27
3.41348E-01 5.62912E-27
3.45492E-01 5.31047E-27
3.49647E-01 5.01018E-27
3.53814E-01 4.72719E-27
3.57992E-01 4.46051E-27
3.62181E-01 4.20920E-27
3.66381E-01 3.97238E-27
3.70590E-01 3.74920E-27
3.74810E-01 3.53889E-27
3.79039E-01 3.34071E-27
3.83277E-01 3.15396E-27
3.87524E-01 2.97797E-27
3.91780E-01 2.81214E-27
3.96044E-01 2.65587E-27
4.00316E-01 2.50861E-27
4.04596E-01 2.36986E-27
4.08882E-01 2.23911E-27
4.13176E-01 2.11591E-27
4.17476E-01 1.99982E-27
4.21783E-01 1.89043E-27
4.26095E-01 1.78736E-27
4.30413E-01 1.69023E-27
4.34737E-01 1.59872E-27
4.39065E-01 1.51248E-27
4.43398E-01 1.43122E-27
4.47736E-01 1.35465E-27
4.52077E-01 1.28250E-27
4.56422E-01 1.21451E-27
4.60770E-01 1.15044E-27
4.65122E-01 1.09006E-27
4.69476E-01 1.03316E-27
4.73832E-01 9.79538E-28
4.78190E-01 9.28997E-28
4.82550E-01 8.81361E-28
4.86912E-01 8.36460E-28
4.91274E-01 7.94135E-28
4.95637E-01 7.54235E-28
5.00000E-01 7.16618E-28
5.04363E-01 6.81150E-28
5.08726E-01 6.47705E-28
5.13088E-01 6.16165E-28
5.17450E-01 5.86417E-28
5.21810E-01 5.58357E-28
5.26168E-01 5.31884E-28
5.30524E-01 5.06905E-28
5.34878E-01 4.83333E-28
5.39230E-01 4.61083E-28
5.43578E-01 4.40078E-28
5.47923E-01 4.20244E-28
5.52264E-01 4.01512E-28
5.56602E-01 3.83817E-28
5.60935E-01 3.67096E-28
5.65263E-01 3.51293E-28
5.69587E-01 3.36352E-28
5.73905E-01 3.22222E-28
5.78217E-01 3.08856E-28
5.82524E-01 2.96208E-28
5.86824E-01 2.84234E-28
5.91118E-01 2.72896E-28
5.95404E-01 2.62154E-28
5.99684E-01 2.51974E-28
6.03956E-01 2.42323E-28
6.08220E-01 2.33168E-28
6.12476E-01 2.24480E-28
6.16723E-01 2.16232E-28
6.20961E-01 2.08397E-28
6.25190E-01 2.00951E-28
6.29410E-01 1.93870E-28
6.33619E-01 1.87134E-28
6.37819E-01 1.80721E-28
6.42008E-01 1.74613E-28
6.46186E-01 1.68792E-28
6.50353E-01 1.63241E-28
6.54508E-01 1.57944E-28
6.58652E-01 1.52886E-28
6.62784E-01 1.48053E-28
6.66903E-01 1.43432E-28
6.71010E-01 1.39011E-28
6.75104E-01 1.34779E-28
6.79184E-01 1.30724E-28
6.83251E-01 1.26837E-28
6.87303E-01 1.23107E-28
6.91342E-01 1.19526E-28
6.95366E-01 1.16087E-28
6.99375E-01 1.12780E-28
7.03368E-01 1.09598E-28
7.07347E-01 1.06535E-28
7.11309E-01 1.03584E-28
7.15256E-01 1.00739E-28
7.19186E-01 9.79940E-29
7.23099E-01 9.53443E-29
7.26995E-01 9.27846E-29
7.30874E-01 9.03103E-29
7.34736E-01 8.79170E-29
7.38579E-01 8.56005E-29
7.42405E-01 8.33571E-29
7.46212E-01 8.11830E-29
7.50000E-01 7.90750E-29
7.53769E-01 7.70298E-29
7.57519E-01 7.50446E-29
7.61249E-01 7.31164E-29
7.64960E-01 7.12427E-29
7.68650E-01 6.94211E-29
7.72320E-01 6.76492E-29
7.75968E-01 6.59249E-29
7.79596E-01 6.42462E-29
7.83203E-01 6.26111E-29
7.86788E-01 6.10180E-29
7.90351E-01 5.94650E-29
7.93893E-01 5.79507E-29
7.97411E-01 5.64736E-29
8.00908E-01 5.50323E-29
8.04381E-01 5.36255E-29
8.07831E-01 5.22519E-29
8.11257E-01 5.09104E-29
8.14660E-01 4.95999E-29
8.18039E-01 4.83194E-29
8.21394E-01 4.70679E-29
8.24724E-01 4.58446E-29
8.28030E-01 4.46484E-29
8.31310E-01 4.34787E-29
8.34565E-01 4.23346E-29
8.37795E-01 4.12155E-29
8.40999E-01 4.01206E-29
8.44177E-01 3.90493E-29
8.47329E-01 3.80009E-29
8.50455E-01 3.69749E-29
8.53553E-01 3.59707E-29
8.56625E-01 3.49878E-29
8.59670E-01 3.40256E-29
8.62687E-01 3.30837E-29
8.65677E-01 3.21616E-29
8.68639E-01 3.12589E-29
8.71572E-01 3.03751E-29
8.74478E-01 2.95098E-29
8.77355E-01 2.86627E-29
8.80203E-01 2.78334E-29
8.83022E-01 2.70215E-29
8.85812E-01 2.62266E-29
8.88573E-01 2.54485E-29
8.91304E-01 2.46868E-29
8.94005E-01 2.39412E-29
8.96677E-01 2.32114E-29
8.99318E-01 2.24971E-29
9.01928E-01 2.17981E-29
9.04508E-01 2.11140E-29
9.07058E-01 2.04446E-29
9.09576E-01 1.97897E-29
9.12063E-01 1.91490E-29
9.14519E-01 1.85223E-29
9.16943E-01 1.79093E-29
9.19335E-01 1.73098E-29
9.21696E-01 1.67236E-29
9.24024E-01 1.61505E-29
9.26320E-01 1.55903E-29
9.28584E-01 1.50427E-29
9.30815E-01 1.45076E-29
9.33013E-01 1.39847E-29
9.35178E-01 1.34740E-29
9.37310E-01 1.29751E-29
9.39409E-01 1.24880E-29
9.41474E-01 1.20124E-29
9.43505E-01 1.15482E-29
9.45503E-01 1.10952E-29
9.47467E-01 1.06533E-29
9.49397E-01 1.02223E-29
9.51293E-01 9.80195E-30
9.53154E-01 9.39223E-30
9.54981E-01 8.99295E-30
9.56773E-01 8.60397E-30
9.58530E-01 8.22513E-30
9.60252E-01 7.85631E-30
9.61940E-01 7.49738E-30
9.63592E-01 7.14820E-30
9.65209E-01 6.80864E-30
9.66790E-01 6.47859E-30
9.68336E-01 6.15791E-30
9.69846E-01 5.84650E-30
9.71321E-01 5.54424E-30
9.72759E-01 5.25101E-30
9.74162E-01 4.96672E-30
9.75528E-01 4.69124E-30
9.76858E-01 4.42450E-30
9.78152E-01 4.16637E-30
9.79410E-01 3.91677E-30
9.80631E-01 3.67560E-30
9.81815E-01 3.44278E-30
9.82963E-01 3.21821E-30
9.84074E-01 3.00181E-30
9.85148E-01 2.79350E-30
9.86185E-01 2.59321E-30
9.87185E-01 2.40085E-30
9.88148E-01 2.21635E-30
9.89074E-01 2.03964E-30
9.89962E-01 1.87066E-30
9.90814E-01 1.70934E-30
9.91627E-01 1.55562E-30
9.92404E-01 1.40944E-30
9.93143E-01 1.27074E-30
9.93844E-01 1.13948E-30
9.94508E-01 1.01559E-30
9.95134E-01 8.99041E-31
9.95722E-01 7.89778E-31
9.96273E-01 6.87760E-31
9.96786E-01 5.92949E-31
9.97261E-01 5.05307E-31
9.97698E-01 4.24802E-31
9.98097E-01 3.51401E-31
9.98459E-01 2.85076E-31
9.98782E-01 2.25802E-31
9.99067E-01 1.73556E-31
9.99315E-01 1.28317E-31
9.99524E-01 9.00669E-32
9.99695E-01 5.87920E-32
9.99829E-01 3.44797E-32
9.99924E-01 1.71206E-32
9.99981E-01 6.70776E-33
1.00000E+00 3.23712E-33
