 #
 # Subroutine ELSEPA. Elastic scattering of electrons and positrons
 #                    by neutral atoms and positive ions
 #
 # Projectile: electron
 # Kinetic energy = 1.50000E+07 eV = 5.51240E+05 a.u.
 #
 # WARNING: High-energy factorization with free-atom DF screening.
 #          Absorption, polarization and exchange corrections are
 #          switched off.
 #          Phase shifts are calculated for the bare nucleus.
 #          Scattering amplitudes are not evaluated.
 #
 # Element: Tm,  Z =  69,  atomic weight = 1.68934E+02 g/mol
 #
 # Nuclear model: Fermi distribution
 #                Average radius = 5.91502E-13 cm
 #                Skin thickness = 5.46000E-14 cm
 #
 # Number of electrons = 69
 #
 # Total elastic cross section = 7.03491E-18 cm**2 = 2.51221E-01 a0**2
 # 1st transport cross section = 3.66023E-23 cm**2 = 1.30709E-06 a0**2
 # 2nd transport cross section = 1.02591E-22 cm**2 = 3.66358E-06 a0**2
 #
 #
 # Differential cross section:                       MU=(1-COS(THETA))/2
 #
 #  THETA        MU          DCS          DCS        Sherman      error
 #  (deg)                 (cm**2/sr)   (a0**2/sr)    function
 #----------------------------------------------------------------------
0.00000E+00 1.67055E-11
7.61557E-13 1.67037E-11
1.18994E-12 1.67027E-11
1.71346E-12 1.67015E-11
2.33225E-12 1.67001E-11
3.04617E-12 1.66984E-11
3.85530E-12 1.66965E-11
4.75964E-12 1.66944E-11
5.75917E-12 1.66921E-11
6.85391E-12 1.66896E-11
8.04379E-12 1.66868E-11
9.32893E-12 1.66838E-11
1.07092E-11 1.66806E-11
1.21847E-11 1.66772E-11
1.37554E-11 1.66736E-11
1.54213E-11 1.66697E-11
1.71823E-11 1.66657E-11
1.90386E-11 1.66614E-11
2.09900E-11 1.66569E-11
2.30367E-11 1.66522E-11
2.51785E-11 1.66472E-11
2.74156E-11 1.66421E-11
2.97478E-11 1.66367E-11
3.21752E-11 1.66311E-11
3.46979E-11 1.66253E-11
3.73157E-11 1.66193E-11
4.00286E-11 1.66130E-11
4.28368E-11 1.66066E-11
4.57402E-11 1.65999E-11
4.87388E-11 1.65931E-11
5.18325E-11 1.65860E-11
5.50215E-11 1.65787E-11
5.83057E-11 1.65712E-11
6.16850E-11 1.65634E-11
6.51595E-11 1.65555E-11
6.87293E-11 1.65474E-11
7.23943E-11 1.65390E-11
7.61544E-11 1.65304E-11
1.18991E-10 1.64334E-11
1.71347E-10 1.63161E-11
2.33223E-10 1.61793E-11
3.04617E-10 1.60239E-11
3.85531E-10 1.58507E-11
4.75965E-10 1.56610E-11
5.75917E-10 1.54558E-11
6.85389E-10 1.52363E-11
8.04380E-10 1.50037E-11
9.32891E-10 1.47593E-11
1.07092E-09 1.45055E-11
1.21847E-09 1.42418E-11
1.37554E-09 1.39691E-11
1.54213E-09 1.36898E-11
1.71823E-09 1.34069E-11
1.90386E-09 1.31184E-11
2.09900E-09 1.28253E-11
2.30367E-09 1.25328E-11
2.51785E-09 1.22390E-11
2.74156E-09 1.19435E-11
2.97478E-09 1.16486E-11
3.21752E-09 1.13584E-11
3.46978E-09 1.10689E-11
3.73156E-09 1.07807E-11
4.00286E-09 1.04990E-11
4.28368E-09 1.02218E-11
4.57402E-09 9.94747E-12
4.87388E-09 9.67751E-12
5.18326E-09 9.41689E-12
5.50215E-09 9.16025E-12
5.83057E-09 8.90791E-12
6.16850E-09 8.66392E-12
6.51596E-09 8.42706E-12
6.87293E-09 8.19499E-12
7.23942E-09 7.96826E-12
7.61544E-09 7.75191E-12
1.18991E-08 5.91805E-12
1.71347E-08 4.62455E-12
2.33223E-08 3.70972E-12
3.04617E-08 3.04260E-12
3.85531E-08 2.53735E-12
4.75965E-08 2.14104E-12
5.75917E-08 1.82155E-12
6.85389E-08 1.55873E-12
8.04380E-08 1.33988E-12
9.32891E-08 1.15635E-12
1.07092E-07 9.90853E-13
1.21847E-07 8.58322E-13
1.37554E-07 7.53005E-13
1.54213E-07 6.62874E-13
1.71823E-07 5.78964E-13
1.90386E-07 5.10738E-13
2.09900E-07 4.54681E-13
2.30367E-07 4.02690E-13
2.51785E-07 3.57948E-13
2.74156E-07 3.20509E-13
2.97478E-07 2.88109E-13
3.21752E-07 2.58047E-13
3.46978E-07 2.32493E-13
3.73156E-07 2.10631E-13
4.00286E-07 1.90515E-13
4.28368E-07 1.72615E-13
4.57402E-07 1.57115E-13
4.87388E-07 1.43458E-13
5.18325E-07 1.30619E-13
5.50215E-07 1.19385E-13
5.83057E-07 1.09514E-13
6.16850E-07 1.00409E-13
6.51596E-07 9.21238E-14
6.87293E-07 8.47828E-14
7.23942E-07 7.82301E-14
7.61543E-07 7.20366E-14
1.18991E-06 3.43587E-14
1.71347E-06 1.82776E-14
2.33223E-06 1.06628E-14
3.04617E-06 6.67531E-15
3.85531E-06 4.41613E-15
4.75964E-06 3.04207E-15
5.75916E-06 2.16187E-15
6.85388E-06 1.57736E-15
8.04378E-06 1.17692E-15
9.32888E-06 8.95125E-16
1.07092E-05 6.92036E-16
1.21846E-05 5.43875E-16
1.37553E-05 4.33432E-16
1.54212E-05 3.49336E-16
1.71822E-05 2.84813E-16
1.90385E-05 2.34480E-16
2.09899E-05 1.94956E-16
2.30365E-05 1.63403E-16
2.51783E-05 1.37983E-16
2.74153E-05 1.17305E-16
2.97475E-05 1.00326E-16
3.21749E-05 8.63270E-17
3.46974E-05 7.47043E-17
3.73152E-05 6.49732E-17
4.00281E-05 5.67863E-17
4.28362E-05 4.98576E-17
4.57395E-05 4.39535E-17
4.87380E-05 3.88932E-17
5.18317E-05 3.45408E-17
5.50205E-05 3.07805E-17
5.83045E-05 2.75138E-17
6.16838E-05 2.46705E-17
6.51582E-05 2.21867E-17
6.87277E-05 2.00076E-17
7.23925E-05 1.80894E-17
7.61524E-05 1.63962E-17
9.21439E-05 1.13152E-17
1.09658E-04 8.05629E-18
1.28695E-04 5.89033E-18
1.49255E-04 4.40514E-18
1.71338E-04 3.36005E-18
1.94942E-04 2.60733E-18
2.20070E-04 2.05420E-18
2.46720E-04 1.64041E-18
2.74892E-04 1.32585E-18
3.04586E-04 1.08332E-18
3.35803E-04 8.93869E-19
3.68542E-04 7.44149E-19
4.02802E-04 6.24558E-19
4.38585E-04 5.28095E-19
4.75889E-04 4.49592E-19
5.14715E-04 3.85177E-19
5.55063E-04 3.31918E-19
5.96931E-04 2.87574E-19
6.40321E-04 2.50409E-19
6.85233E-04 2.19070E-19
7.31665E-04 1.92495E-19
7.79618E-04 1.69840E-19
8.29092E-04 1.50429E-19
8.80086E-04 1.33720E-19
9.32601E-04 1.19274E-19
9.86636E-04 1.06731E-19
1.04219E-03 9.57993E-20
1.09927E-03 8.62359E-20
1.15786E-03 7.78396E-20
1.21797E-03 7.04437E-20
1.27961E-03 6.39084E-20
1.34276E-03 5.81161E-20
1.40743E-03 5.29675E-20
1.47362E-03 4.83786E-20
1.54133E-03 4.42778E-20
1.61056E-03 4.06039E-20
1.68131E-03 3.73047E-20
1.75357E-03 3.43351E-20
1.82735E-03 3.16564E-20
1.90265E-03 2.92350E-20
1.97947E-03 2.70418E-20
2.05780E-03 2.50513E-20
2.13765E-03 2.32414E-20
2.21902E-03 2.15928E-20
2.30190E-03 2.00886E-20
2.38630E-03 1.87137E-20
2.47222E-03 1.74551E-20
2.55965E-03 1.63011E-20
2.64859E-03 1.52414E-20
2.73905E-03 1.42669E-20
2.83103E-03 1.33695E-20
2.92452E-03 1.25420E-20
3.01952E-03 1.17779E-20
3.11604E-03 1.10714E-20
3.21407E-03 1.04175E-20
3.31362E-03 9.81151E-21
3.41468E-03 9.24921E-21
3.51725E-03 8.72688E-21
3.62133E-03 8.24117E-21
3.72692E-03 7.78903E-21
3.83403E-03 7.36770E-21
3.94265E-03 6.97469E-21
4.05278E-03 6.60773E-21
4.16442E-03 6.26478E-21
4.27757E-03 5.94397E-21
4.39223E-03 5.64360E-21
4.50840E-03 5.36211E-21
4.62608E-03 5.09811E-21
4.74527E-03 4.85030E-21
4.86597E-03 4.61749E-21
4.98817E-03 4.39861E-21
5.11188E-03 4.19266E-21
5.23711E-03 3.99873E-21
5.36383E-03 3.81600E-21
5.49207E-03 3.64368E-21
5.62181E-03 3.48108E-21
5.75306E-03 3.32753E-21
5.88581E-03 3.18244E-21
6.02007E-03 3.04525E-21
6.15583E-03 2.91545E-21
6.29310E-03 2.79257E-21
6.43187E-03 2.67616E-21
6.57214E-03 2.56582E-21
6.71392E-03 2.46117E-21
6.85720E-03 2.36186E-21
7.00198E-03 2.26757E-21
7.14827E-03 2.17799E-21
7.29605E-03 2.09284E-21
7.44534E-03 2.01186E-21
7.59612E-03 1.93481E-21
7.97965E-03 1.75789E-21
8.37255E-03 1.60097E-21
8.77480E-03 1.46138E-21
9.18641E-03 1.33686E-21
9.60736E-03 1.22550E-21
1.00376E-02 1.12564E-21
1.04773E-02 1.03588E-21
1.09262E-02 9.55016E-22
1.13844E-02 8.82002E-22
1.18520E-02 8.15934E-22
1.23288E-02 7.56027E-22
1.28150E-02 7.01602E-22
1.33104E-02 6.52064E-22
1.38150E-02 6.06890E-22
1.43290E-02 5.65624E-22
1.48521E-02 5.27863E-22
1.53845E-02 4.93255E-22
1.59262E-02 4.61485E-22
1.64770E-02 4.32277E-22
1.70371E-02 4.05384E-22
1.76063E-02 3.80587E-22
1.81848E-02 3.57693E-22
1.87724E-02 3.36526E-22
1.93692E-02 3.16932E-22
1.99751E-02 2.98770E-22
2.05901E-02 2.81915E-22
2.12143E-02 2.66257E-22
2.18476E-02 2.51691E-22
2.24900E-02 2.38129E-22
2.31415E-02 2.25486E-22
2.38021E-02 2.13688E-22
2.44717E-02 2.02668E-22
2.51504E-02 1.92365E-22
2.58382E-02 1.82721E-22
2.65349E-02 1.73688E-22
2.72407E-02 1.65218E-22
2.79555E-02 1.57269E-22
2.86793E-02 1.49803E-22
2.94120E-02 1.42785E-22
3.01537E-02 1.36182E-22
3.09043E-02 1.29965E-22
3.16639E-02 1.24106E-22
3.24324E-02 1.18582E-22
3.32098E-02 1.13368E-22
3.39961E-02 1.08445E-22
3.47912E-02 1.03792E-22
3.55952E-02 9.93919E-23
3.64081E-02 9.52279E-23
3.72297E-02 9.12847E-23
3.80602E-02 8.75484E-23
3.88995E-02 8.40058E-23
3.97476E-02 8.06448E-23
4.06044E-02 7.74542E-23
4.14700E-02 7.44236E-23
4.23443E-02 7.15432E-23
4.32273E-02 6.88044E-23
4.41190E-02 6.61982E-23
4.50194E-02 6.37174E-23
4.59284E-02 6.13545E-23
4.68461E-02 5.91026E-23
4.87074E-02 5.49076E-23
5.06030E-02 5.10867E-23
5.25328E-02 4.75999E-23
5.44967E-02 4.44123E-23
5.64946E-02 4.14931E-23
5.85262E-02 3.88152E-23
6.05914E-02 3.63546E-23
6.26901E-02 3.40903E-23
6.48222E-02 3.20034E-23
6.69873E-02 3.00772E-23
6.91854E-02 2.82969E-23
7.14163E-02 2.66491E-23
7.36799E-02 2.51220E-23
7.59760E-02 2.37050E-23
7.83043E-02 2.23886E-23
8.06647E-02 2.11640E-23
8.30571E-02 2.00237E-23
8.54812E-02 1.89606E-23
8.79369E-02 1.79684E-23
9.04240E-02 1.70415E-23
9.29422E-02 1.61746E-23
9.54915E-02 1.53631E-23
9.80716E-02 1.46027E-23
1.00682E-01 1.38895E-23
1.03323E-01 1.32201E-23
1.05995E-01 1.25910E-23
1.08696E-01 1.19993E-23
1.11427E-01 1.14424E-23
1.14188E-01 1.09179E-23
1.16978E-01 1.04234E-23
1.19797E-01 9.95693E-24
1.22645E-01 9.51654E-24
1.25522E-01 9.10046E-24
1.28428E-01 8.70709E-24
1.31361E-01 8.33491E-24
1.34323E-01 7.98256E-24
1.37313E-01 7.64876E-24
1.40330E-01 7.33232E-24
1.43375E-01 7.03216E-24
1.46447E-01 6.74727E-24
1.49545E-01 6.47671E-24
1.52671E-01 6.21960E-24
1.55823E-01 5.97515E-24
1.59001E-01 5.74260E-24
1.62205E-01 5.52124E-24
1.65435E-01 5.31044E-24
1.68690E-01 5.10958E-24
1.71970E-01 4.91809E-24
1.75276E-01 4.73546E-24
1.78606E-01 4.56118E-24
1.81961E-01 4.39479E-24
1.85340E-01 4.23587E-24
1.88743E-01 4.08400E-24
1.92169E-01 3.93882E-24
1.95619E-01 3.79997E-24
1.99092E-01 3.66711E-24
2.02589E-01 3.53994E-24
2.06107E-01 3.41815E-24
2.09649E-01 3.30148E-24
2.13212E-01 3.18967E-24
2.16797E-01 3.08247E-24
2.20404E-01 2.97966E-24
2.24032E-01 2.88102E-24
2.27680E-01 2.78634E-24
2.31350E-01 2.69543E-24
2.35040E-01 2.60812E-24
2.38751E-01 2.52423E-24
2.42481E-01 2.44360E-24
2.46231E-01 2.36608E-24
2.50000E-01 2.29153E-24
2.53788E-01 2.21981E-24
2.57595E-01 2.15078E-24
2.61421E-01 2.08434E-24
2.65264E-01 2.02036E-24
2.69126E-01 1.95873E-24
2.73005E-01 1.89935E-24
2.76901E-01 1.84212E-24
2.80814E-01 1.78696E-24
2.84744E-01 1.73376E-24
2.88691E-01 1.68245E-24
2.92653E-01 1.63294E-24
2.96632E-01 1.58516E-24
3.00625E-01 1.53904E-24
3.04634E-01 1.49451E-24
3.08658E-01 1.45151E-24
3.12697E-01 1.40996E-24
3.16749E-01 1.36982E-24
3.20816E-01 1.33102E-24
3.24896E-01 1.29351E-24
3.28990E-01 1.25725E-24
3.33097E-01 1.22218E-24
3.37216E-01 1.18825E-24
3.41348E-01 1.15542E-24
3.45492E-01 1.12366E-24
3.49647E-01 1.09291E-24
3.53814E-01 1.06314E-24
3.57992E-01 1.03431E-24
3.62181E-01 1.00638E-24
3.66381E-01 9.79335E-25
3.70590E-01 9.53126E-25
3.74810E-01 9.27727E-25
3.79039E-01 9.03108E-25
3.83277E-01 8.79241E-25
3.87524E-01 8.56098E-25
3.91780E-01 8.33653E-25
3.96044E-01 8.11882E-25
4.00316E-01 7.90761E-25
4.04596E-01 7.70266E-25
4.08882E-01 7.50377E-25
4.13176E-01 7.31071E-25
4.17476E-01 7.12329E-25
4.21783E-01 6.94131E-25
4.26095E-01 6.76458E-25
4.30413E-01 6.59294E-25
4.34737E-01 6.42620E-25
4.39065E-01 6.26420E-25
4.43398E-01 6.10678E-25
4.47736E-01 5.95379E-25
4.52077E-01 5.80509E-25
4.56422E-01 5.66053E-25
4.60770E-01 5.51998E-25
4.65122E-01 5.38331E-25
4.69476E-01 5.25038E-25
4.73832E-01 5.12109E-25
4.78190E-01 4.99532E-25
4.82550E-01 4.87295E-25
4.86912E-01 4.75388E-25
4.91274E-01 4.63800E-25
4.95637E-01 4.52521E-25
5.00000E-01 4.41542E-25
5.04363E-01 4.30853E-25
5.08726E-01 4.20446E-25
5.13088E-01 4.10312E-25
5.17450E-01 4.00442E-25
5.21810E-01 3.90828E-25
5.26168E-01 3.81464E-25
5.30524E-01 3.72340E-25
5.34878E-01 3.63451E-25
5.39230E-01 3.54788E-25
5.43578E-01 3.46347E-25
5.47923E-01 3.38119E-25
5.52264E-01 3.30098E-25
5.56602E-01 3.22279E-25
5.60935E-01 3.14656E-25
5.65263E-01 3.07223E-25
5.69587E-01 2.99975E-25
5.73905E-01 2.92906E-25
5.78217E-01 2.86011E-25
5.82524E-01 2.79285E-25
5.86824E-01 2.72724E-25
5.91118E-01 2.66322E-25
5.95404E-01 2.60076E-25
5.99684E-01 2.53982E-25
6.03956E-01 2.48034E-25
6.08220E-01 2.42228E-25
6.12476E-01 2.36562E-25
6.16723E-01 2.31031E-25
6.20961E-01 2.25631E-25
6.25190E-01 2.20360E-25
6.29410E-01 2.15212E-25
6.33619E-01 2.10186E-25
6.37819E-01 2.05277E-25
6.42008E-01 2.00484E-25
6.46186E-01 1.95802E-25
6.50353E-01 1.91228E-25
6.54508E-01 1.86761E-25
6.58652E-01 1.82396E-25
6.62784E-01 1.78132E-25
6.66903E-01 1.73966E-25
6.71010E-01 1.69895E-25
6.75104E-01 1.65917E-25
6.79184E-01 1.62029E-25
6.83251E-01 1.58229E-25
6.87303E-01 1.54515E-25
6.91342E-01 1.50885E-25
6.95366E-01 1.47337E-25
6.99375E-01 1.43868E-25
7.03368E-01 1.40477E-25
7.07347E-01 1.37161E-25
7.11309E-01 1.33919E-25
7.15256E-01 1.30749E-25
7.19186E-01 1.27649E-25
7.23099E-01 1.24618E-25
7.26995E-01 1.21653E-25
7.30874E-01 1.18754E-25
7.34736E-01 1.15918E-25
7.38579E-01 1.13144E-25
7.42405E-01 1.10431E-25
7.46212E-01 1.07777E-25
7.50000E-01 1.05181E-25
7.53769E-01 1.02641E-25
7.57519E-01 1.00156E-25
7.61249E-01 9.77244E-26
7.64960E-01 9.53456E-26
7.68650E-01 9.30181E-26
7.72320E-01 9.07407E-26
7.75968E-01 8.85121E-26
7.79596E-01 8.63314E-26
7.83203E-01 8.41973E-26
7.86788E-01 8.21089E-26
7.90351E-01 8.00650E-26
7.93893E-01 7.80648E-26
7.97411E-01 7.61071E-26
8.00908E-01 7.41911E-26
8.04381E-01 7.23159E-26
8.07831E-01 7.04804E-26
8.11257E-01 6.86839E-26
8.14660E-01 6.69255E-26
8.18039E-01 6.52043E-26
8.21394E-01 6.35196E-26
8.24724E-01 6.18705E-26
8.28030E-01 6.02563E-26
8.31310E-01 5.86763E-26
8.34565E-01 5.71296E-26
8.37795E-01 5.56156E-26
8.40999E-01 5.41337E-26
8.44177E-01 5.26830E-26
8.47329E-01 5.12631E-26
8.50455E-01 4.98731E-26
8.53553E-01 4.85126E-26
8.56625E-01 4.71809E-26
8.59670E-01 4.58774E-26
8.62687E-01 4.46015E-26
8.65677E-01 4.33527E-26
8.68639E-01 4.21305E-26
8.71572E-01 4.09342E-26
8.74478E-01 3.97634E-26
8.77355E-01 3.86176E-26
8.80203E-01 3.74963E-26
8.83022E-01 3.63990E-26
8.85812E-01 3.53252E-26
8.88573E-01 3.42745E-26
8.91304E-01 3.32464E-26
8.94005E-01 3.22406E-26
8.96677E-01 3.12565E-26
8.99318E-01 3.02938E-26
9.01928E-01 2.93521E-26
9.04508E-01 2.84310E-26
9.07058E-01 2.75301E-26
9.09576E-01 2.66490E-26
9.12063E-01 2.57874E-26
9.14519E-01 2.49450E-26
9.16943E-01 2.41213E-26
9.19335E-01 2.33161E-26
9.21696E-01 2.25290E-26
9.24024E-01 2.17598E-26
9.26320E-01 2.10080E-26
9.28584E-01 2.02735E-26
9.30815E-01 1.95559E-26
9.33013E-01 1.88549E-26
9.35178E-01 1.81703E-26
9.37310E-01 1.75018E-26
9.39409E-01 1.68491E-26
9.41474E-01 1.62120E-26
9.43505E-01 1.55902E-26
9.45503E-01 1.49835E-26
9.47467E-01 1.43917E-26
9.49397E-01 1.38145E-26
9.51293E-01 1.32517E-26
9.53154E-01 1.27031E-26
9.54981E-01 1.21685E-26
9.56773E-01 1.16476E-26
9.58530E-01 1.11404E-26
9.60252E-01 1.06465E-26
9.61940E-01 1.01659E-26
9.63592E-01 9.69822E-27
9.65209E-01 9.24344E-27
9.66790E-01 8.80134E-27
9.68336E-01 8.37175E-27
9.69846E-01 7.95451E-27
9.71321E-01 7.54948E-27
9.72759E-01 7.15649E-27
9.74162E-01 6.77541E-27
9.75528E-01 6.40609E-27
9.76858E-01 6.04840E-27
9.78152E-01 5.70221E-27
9.79410E-01 5.36739E-27
9.80631E-01 5.04381E-27
9.81815E-01 4.73137E-27
9.82963E-01 4.42994E-27
9.84074E-01 4.13942E-27
9.85148E-01 3.85970E-27
9.86185E-01 3.59068E-27
9.87185E-01 3.33226E-27
9.88148E-01 3.08435E-27
9.89074E-01 2.84686E-27
9.89962E-01 2.61971E-27
9.90814E-01 2.40281E-27
9.91627E-01 2.19608E-27
9.92404E-01 1.99946E-27
9.93143E-01 1.81286E-27
9.93844E-01 1.63623E-27
9.94508E-01 1.46950E-27
9.95134E-01 1.31261E-27
9.95722E-01 1.16551E-27
9.96273E-01 1.02814E-27
9.96786E-01 9.00455E-28
9.97261E-01 7.82408E-28
9.97698E-01 6.73958E-28
9.98097E-01 5.75067E-28
9.98459E-01 4.85699E-28
9.98782E-01 4.05823E-28
9.99067E-01 3.35411E-28
9.99315E-01 2.74437E-28
9.99524E-01 2.22880E-28
9.99695E-01 1.80722E-28
9.99829E-01 1.47948E-28
9.99924E-01 1.24547E-28
9.99981E-01 1.10509E-28
1.00000E+00 1.05830E-28
