 #
 # Subroutine ELSEPA. Elastic scattering of electrons and positrons
 #                    by neutral atoms and positive ions
 #
 # Projectile: electron
 # Kinetic energy = 6.00000E+08 eV = 2.20496E+07 a.u.
 #
 # WARNING: High-energy factorization with free-atom DF screening.
 #          Absorption, polarization and exchange corrections are
 #          switched off.
 #          Phase shifts are calculated for the bare nucleus.
 #          Scattering amplitudes are not evaluated.
 #
 # Element: Tm,  Z =  69,  atomic weight = 1.68934E+02 g/mol
 #
 # Nuclear model: Fermi distribution
 #                Average radius = 5.91502E-13 cm
 #                Skin thickness = 5.46000E-14 cm
 #
 # Number of electrons = 69
 #
 # Total elastic cross section = 7.00312E-18 cm**2 = 2.50086E-01 a0**2
 # 1st transport cross section = 2.52059E-26 cm**2 = 9.00120E-10 a0**2
 # 2nd transport cross section = 7.55976E-26 cm**2 = 2.69964E-09 a0**2
 #
 #
 # Differential cross section:                       MU=(1-COS(THETA))/2
 #
 #  THETA        MU          DCS          DCS        Sherman      error
 #  (deg)                 (cm**2/sr)   (a0**2/sr)    function
 #----------------------------------------------------------------------
0.00000E+00 2.50393E-08
7.61557E-13 2.15475E-08
1.18994E-12 1.99361E-08
1.71346E-12 1.82370E-08
2.33225E-12 1.65400E-08
3.04617E-12 1.49136E-08
3.85530E-12 1.34025E-08
4.75964E-12 1.20310E-08
5.75917E-12 1.08084E-08
6.85391E-12 9.73148E-09
8.04379E-12 8.78846E-09
9.32893E-12 7.96569E-09
1.07092E-11 7.24849E-09
1.21847E-11 6.62238E-09
1.37554E-11 6.07404E-09
1.54213E-11 5.59167E-09
1.71823E-11 5.16512E-09
1.90386E-11 4.78573E-09
2.09900E-11 4.44633E-09
2.30367E-11 4.14060E-09
2.51785E-11 3.86380E-09
2.74156E-11 3.61201E-09
2.97478E-11 3.38193E-09
3.21752E-11 3.17083E-09
3.46979E-11 2.97646E-09
3.73157E-11 2.79694E-09
4.00286E-11 2.63070E-09
4.28368E-11 2.47641E-09
4.57402E-11 2.33293E-09
4.87388E-11 2.19922E-09
5.18325E-11 2.07427E-09
5.50215E-11 1.95763E-09
5.83057E-11 1.84864E-09
6.16850E-11 1.74671E-09
6.51595E-11 1.64680E-09
6.87293E-11 1.54953E-09
7.23943E-11 1.46115E-09
7.61544E-11 1.38069E-09
1.18991E-10 8.27444E-10
1.71347E-10 5.21826E-10
2.33223E-10 3.44270E-10
3.04617E-10 2.35604E-10
3.85531E-10 1.65968E-10
4.75965E-10 1.19686E-10
5.75917E-10 8.80137E-11
6.85389E-10 6.58908E-11
8.04380E-10 5.02047E-11
9.32891E-10 3.88919E-11
1.07092E-09 3.06004E-11
1.21847E-09 2.44269E-11
1.37554E-09 1.97590E-11
1.54213E-09 1.61825E-11
1.71823E-09 1.33886E-11
1.90386E-09 1.11832E-11
2.09900E-09 9.42511E-12
2.30367E-09 8.00632E-12
2.51785E-09 6.84890E-12
2.74156E-09 5.89506E-12
2.97478E-09 5.10190E-12
3.21752E-09 4.43738E-12
3.46978E-09 3.87711E-12
3.73156E-09 3.40219E-12
4.00286E-09 2.99760E-12
4.28368E-09 2.65127E-12
4.57402E-09 2.35339E-12
4.87388E-09 2.09596E-12
5.18326E-09 1.87242E-12
5.50215E-09 1.67767E-12
5.83057E-09 1.50739E-12
6.16850E-09 1.35804E-12
6.51596E-09 1.22625E-12
6.87293E-09 1.10988E-12
7.23942E-09 1.00749E-12
7.61544E-09 9.17079E-13
1.18991E-08 3.95665E-13
1.71347E-08 1.97804E-13
2.33223E-08 1.09661E-13
3.04617E-08 6.56090E-14
3.85531E-08 4.16171E-14
4.75965E-08 2.76517E-14
5.75917E-08 1.90775E-14
6.85389E-08 1.35790E-14
8.04380E-08 9.92378E-15
9.32891E-08 7.41849E-15
1.07092E-07 5.65553E-15
1.21847E-07 4.38611E-15
1.37554E-07 3.45356E-15
1.54213E-07 2.75617E-15
1.71823E-07 2.22627E-15
1.90386E-07 1.81782E-15
2.09900E-07 1.49892E-15
2.30367E-07 1.24701E-15
2.51785E-07 1.04588E-15
2.74156E-07 8.83727E-16
2.97478E-07 7.51828E-16
3.21752E-07 6.43652E-16
3.46978E-07 5.54257E-16
3.73156E-07 4.79858E-16
4.00286E-07 4.17537E-16
4.28368E-07 3.65014E-16
4.57402E-07 3.20497E-16
4.87388E-07 2.82563E-16
5.18325E-07 2.50080E-16
5.50215E-07 2.22133E-16
5.83057E-07 1.97982E-16
6.16850E-07 1.77026E-16
6.51596E-07 1.58769E-16
6.87293E-07 1.42807E-16
7.23942E-07 1.28800E-16
7.61543E-07 1.16469E-16
1.18991E-06 4.79338E-17
1.71347E-06 2.31836E-17
2.33223E-06 1.25378E-17
3.04617E-06 7.35924E-18
3.85531E-06 4.59883E-18
4.75964E-06 3.01957E-18
5.75916E-06 2.06366E-18
6.85388E-06 1.45781E-18
8.04378E-06 1.05887E-18
9.32888E-06 7.87530E-19
1.07092E-05 5.97808E-19
1.21846E-05 4.61935E-19
1.37553E-05 3.62569E-19
1.54212E-05 2.88545E-19
1.71822E-05 2.32488E-19
1.90385E-05 1.89313E-19
2.09899E-05 1.55875E-19
2.30365E-05 1.29488E-19
2.51783E-05 1.08429E-19
2.74153E-05 9.14620E-20
2.97475E-05 7.76776E-20
3.21749E-05 6.63950E-20
3.46974E-05 5.70941E-20
3.73152E-05 4.93732E-20
4.00281E-05 4.29198E-20
4.28362E-05 3.74898E-20
4.57395E-05 3.28923E-20
4.87380E-05 2.89772E-20
5.18317E-05 2.56262E-20
5.50205E-05 2.27448E-20
5.83045E-05 2.02569E-20
6.16838E-05 1.81005E-20
6.51582E-05 1.62242E-20
6.87277E-05 1.45858E-20
7.23925E-05 1.31493E-20
7.61524E-05 1.20488E-20
9.21439E-05 8.24114E-21
1.09658E-04 5.82402E-21
1.28695E-04 4.23053E-21
1.49255E-04 3.14494E-21
1.71338E-04 2.38509E-21
1.94942E-04 1.84025E-21
2.20070E-04 1.44144E-21
2.46720E-04 1.14415E-21
2.74892E-04 9.18903E-22
3.04586E-04 7.45786E-22
3.35803E-04 6.10989E-22
3.68542E-04 5.04808E-22
4.02802E-04 4.20281E-22
4.38585E-04 3.52343E-22
4.75889E-04 2.97260E-22
5.14715E-04 2.52240E-22
5.55063E-04 2.15174E-22
5.96931E-04 1.84448E-22
6.40321E-04 1.58820E-22
6.85233E-04 1.37318E-22
7.31665E-04 1.19182E-22
7.79618E-04 1.03807E-22
8.29092E-04 9.07138E-23
8.80086E-04 7.95141E-23
9.32601E-04 6.98955E-23
9.86636E-04 6.16033E-23
1.04219E-03 5.44292E-23
1.09927E-03 4.82018E-23
1.15786E-03 4.27790E-23
1.21797E-03 3.80431E-23
1.27961E-03 3.38954E-23
1.34276E-03 3.02536E-23
1.40743E-03 2.70479E-23
1.47362E-03 2.42196E-23
1.54133E-03 2.17187E-23
1.61056E-03 1.95028E-23
1.68131E-03 1.75356E-23
1.75357E-03 1.57859E-23
1.82735E-03 1.42268E-23
1.90265E-03 1.28355E-23
1.97947E-03 1.15917E-23
2.05780E-03 1.04783E-23
2.13765E-03 9.48020E-24
2.21902E-03 8.58422E-24
2.30190E-03 7.77891E-24
2.38630E-03 7.05423E-24
2.47222E-03 6.40138E-24
2.55965E-03 5.81260E-24
2.64859E-03 5.28108E-24
2.73905E-03 4.80078E-24
2.83103E-03 4.36637E-24
2.92452E-03 3.97315E-24
3.01952E-03 3.61691E-24
3.11604E-03 3.29393E-24
3.21407E-03 3.00091E-24
3.31362E-03 2.73487E-24
3.41468E-03 2.49320E-24
3.51725E-03 2.27351E-24
3.62133E-03 2.07372E-24
3.72692E-03 1.89191E-24
3.83403E-03 1.72639E-24
3.94265E-03 1.57564E-24
4.05278E-03 1.43827E-24
4.16442E-03 1.31306E-24
4.27757E-03 1.19889E-24
4.39223E-03 1.09475E-24
4.50840E-03 9.99729E-25
4.62608E-03 9.13010E-25
4.74527E-03 8.33848E-25
4.86597E-03 7.61568E-25
4.98817E-03 6.95560E-25
5.11188E-03 6.35271E-25
5.23711E-03 5.80197E-25
5.36383E-03 5.29882E-25
5.49207E-03 4.83910E-25
5.62181E-03 4.41903E-25
5.75306E-03 4.03519E-25
5.88581E-03 3.68443E-25
6.02007E-03 3.36390E-25
6.15583E-03 3.07101E-25
6.29310E-03 2.80338E-25
6.43187E-03 2.55884E-25
6.57214E-03 2.33542E-25
6.71392E-03 2.13132E-25
6.85720E-03 1.94488E-25
7.00198E-03 1.77459E-25
7.14827E-03 1.61909E-25
7.29605E-03 1.47711E-25
7.44534E-03 1.34749E-25
7.59612E-03 1.22918E-25
7.97965E-03 9.76764E-26
8.37255E-03 7.76238E-26
8.77480E-03 6.17181E-26
9.18641E-03 4.91226E-26
9.60736E-03 3.91654E-26
1.00376E-02 3.13072E-26
1.04773E-02 2.51154E-26
1.09262E-02 2.02432E-26
1.13844E-02 1.64132E-26
1.18520E-02 1.34037E-26
1.23288E-02 1.10381E-26
1.28150E-02 9.17605E-27
1.33104E-02 7.70630E-27
1.38150E-02 6.54106E-27
1.43290E-02 5.61135E-27
1.48521E-02 4.86319E-27
1.53845E-02 4.25461E-27
1.59262E-02 3.75314E-27
1.64770E-02 3.33385E-27
1.70371E-02 2.97775E-27
1.76063E-02 2.67048E-27
1.81848E-02 2.40127E-27
1.87724E-02 2.16216E-27
1.93692E-02 1.94726E-27
1.99751E-02 1.75234E-27
2.05901E-02 1.57431E-27
2.12143E-02 1.41099E-27
2.18476E-02 1.26079E-27
2.24900E-02 1.12260E-27
2.31415E-02 9.95578E-28
2.38021E-02 8.79079E-28
2.44717E-02 7.72578E-28
2.51504E-02 6.75609E-28
2.58382E-02 5.87730E-28
2.65349E-02 5.08506E-28
2.72407E-02 4.37485E-28
2.79555E-02 3.74203E-28
2.86793E-02 3.18176E-28
2.94120E-02 2.68903E-28
3.01537E-02 2.25877E-28
3.09043E-02 1.88581E-28
3.16639E-02 1.56503E-28
3.24324E-02 1.29138E-28
3.32098E-02 1.05995E-28
3.39961E-02 8.66011E-29
3.47912E-02 7.05083E-29
3.55952E-02 5.72944E-29
3.64081E-02 4.65669E-29
3.72297E-02 3.79648E-29
3.80602E-02 3.11593E-29
3.88995E-02 2.58541E-29
3.97476E-02 2.17848E-29
4.06044E-02 1.87186E-29
4.14700E-02 1.64523E-29
4.23443E-02 1.48110E-29
4.32273E-02 1.36457E-29
4.41190E-02 1.28319E-29
4.50194E-02 1.22665E-29
4.59284E-02 1.18664E-29
4.68461E-02 1.15654E-29
4.87074E-02 1.10705E-29
5.06030E-02 1.05191E-29
5.25328E-02 9.79664E-30
5.44967E-02 8.88607E-30
5.64946E-02 7.82699E-30
5.85262E-02 6.68559E-30
6.05914E-02 5.53362E-30
6.26901E-02 4.43511E-30
6.48222E-02 3.43930E-30
6.69873E-02 2.57802E-30
6.91854E-02 1.86629E-30
7.14163E-02 1.30479E-30
7.36799E-02 8.83283E-31
7.59760E-02 5.84207E-31
7.83043E-02 3.86100E-31
8.06647E-02 2.66414E-31
8.30571E-02 2.03666E-31
8.54812E-02 1.78899E-31
8.79369E-02 1.76495E-31
9.04240E-02 1.84472E-31
9.29422E-02 1.94359E-31
9.54915E-02 2.00817E-31
9.80716E-02 2.01079E-31
1.00682E-01 1.94348E-31
1.03323E-01 1.81191E-31
1.05995E-01 1.63007E-31
1.08696E-01 1.41576E-31
1.11427E-01 1.18730E-31
1.14188E-01 9.61082E-32
1.16978E-01 7.50253E-32
1.19797E-01 5.64060E-32
1.22645E-01 4.07853E-32
1.25522E-01 2.83493E-32
1.28428E-01 1.90007E-32
1.31361E-01 1.24362E-32
1.34323E-01 8.22275E-33
1.37313E-01 5.86686E-33
1.40330E-01 4.87147E-33
1.43375E-01 4.77820E-33
1.46447E-01 5.19520E-33
1.49545E-01 5.81177E-33
1.52671E-01 6.40191E-33
1.55823E-01 6.81957E-33
1.59001E-01 6.98815E-33
1.62205E-01 6.88677E-33
1.65435E-01 6.53548E-33
1.68690E-01 5.98090E-33
1.71970E-01 5.28358E-33
1.75276E-01 4.50761E-33
1.78606E-01 3.71289E-33
1.81961E-01 2.94998E-33
1.85340E-01 2.25727E-33
1.88743E-01 1.66013E-33
1.92169E-01 1.17151E-33
1.95619E-01 7.93618E-34
1.99092E-01 5.20134E-34
2.02589E-01 3.38697E-34
2.06107E-01 2.33317E-34
2.09649E-01 1.86509E-34
2.13212E-01 1.81058E-34
2.16797E-01 2.01314E-34
2.20404E-01 2.34050E-34
2.24032E-01 2.68903E-34
2.27680E-01 2.98468E-34
2.31350E-01 3.18121E-34
2.35040E-01 3.25664E-34
2.38751E-01 3.20849E-34
2.42481E-01 3.04872E-34
2.46231E-01 2.79871E-34
2.50000E-01 2.48472E-34
2.53788E-01 2.13422E-34
2.57595E-01 1.77294E-34
2.61421E-01 1.42293E-34
2.65264E-01 1.10140E-34
2.69126E-01 8.20265E-35
2.73005E-01 5.86309E-35
2.76901E-01 4.01697E-35
2.80814E-01 2.64808E-35
2.84744E-01 1.71168E-35
2.88691E-01 1.14412E-35
2.92653E-01 8.71726E-36
2.96632E-01 8.18501E-36
3.00625E-01 9.12234E-36
3.04634E-01 1.08892E-35
3.08658E-01 1.29551E-35
3.12697E-01 1.49121E-35
3.16749E-01 1.64755E-35
3.20816E-01 1.74745E-35
3.24896E-01 1.78374E-35
3.28990E-01 1.75719E-35
3.33097E-01 1.67445E-35
3.37216E-01 1.54605E-35
3.41348E-01 1.38458E-35
3.45492E-01 1.20314E-35
3.49647E-01 1.01411E-35
3.53814E-01 8.28349E-36
3.57992E-01 6.54599E-36
3.62181E-01 4.99279E-36
3.66381E-01 3.66465E-36
3.70590E-01 2.58066E-36
3.74810E-01 1.74133E-36
3.79039E-01 1.13225E-36
3.83277E-01 7.28162E-37
3.87524E-01 4.96892E-37
3.91780E-01 4.02918E-37
3.96044E-01 4.10437E-37
4.00316E-01 4.85732E-37
4.04596E-01 5.98941E-37
4.08882E-01 7.25136E-37
4.13176E-01 8.44849E-37
4.17476E-01 9.44107E-37
4.21783E-01 1.01409E-36
4.26095E-01 1.05054E-36
4.30413E-01 1.05294E-36
4.34737E-01 1.02371E-36
4.39065E-01 9.67329E-37
4.43398E-01 8.89539E-37
4.47736E-01 7.96651E-37
4.52077E-01 6.94958E-37
4.56422E-01 5.90301E-37
4.60770E-01 4.87753E-37
4.65122E-01 3.91424E-37
4.69476E-01 3.04387E-37
4.73832E-01 2.28674E-37
4.78190E-01 1.65351E-37
4.82550E-01 1.14640E-37
4.86912E-01 7.60636E-38
4.91274E-01 1.00000E-45
4.95637E-01 1.00000E-45
5.00000E-01 1.00000E-45
5.04363E-01 1.00000E-45
5.08726E-01 1.00000E-45
5.13088E-01 1.00000E-45
5.17450E-01 1.00000E-45
5.21810E-01 1.00000E-45
5.26168E-01 1.00000E-45
5.30524E-01 1.00000E-45
5.34878E-01 1.00000E-45
5.39230E-01 1.00000E-45
5.43578E-01 1.00000E-45
5.47923E-01 1.00000E-45
5.52264E-01 1.00000E-45
5.56602E-01 1.00000E-45
5.60935E-01 1.00000E-45
5.65263E-01 1.00000E-45
5.69587E-01 1.00000E-45
5.73905E-01 1.00000E-45
5.78217E-01 1.00000E-45
5.82524E-01 1.00000E-45
5.86824E-01 1.00000E-45
5.91118E-01 1.00000E-45
5.95404E-01 1.00000E-45
5.99684E-01 1.00000E-45
6.03956E-01 1.00000E-45
6.08220E-01 1.00000E-45
6.12476E-01 1.00000E-45
6.16723E-01 1.00000E-45
6.20961E-01 1.00000E-45
6.25190E-01 1.00000E-45
6.29410E-01 1.00000E-45
6.33619E-01 1.00000E-45
6.37819E-01 1.00000E-45
6.42008E-01 1.00000E-45
6.46186E-01 1.00000E-45
6.50353E-01 1.00000E-45
6.54508E-01 1.00000E-45
6.58652E-01 1.00000E-45
6.62784E-01 1.00000E-45
6.66903E-01 1.00000E-45
6.71010E-01 1.00000E-45
6.75104E-01 1.00000E-45
6.79184E-01 1.00000E-45
6.83251E-01 1.00000E-45
6.87303E-01 1.00000E-45
6.91342E-01 1.00000E-45
6.95366E-01 1.00000E-45
6.99375E-01 1.00000E-45
7.03368E-01 1.00000E-45
7.07347E-01 1.00000E-45
7.11309E-01 1.00000E-45
7.15256E-01 1.00000E-45
7.19186E-01 1.00000E-45
7.23099E-01 1.00000E-45
7.26995E-01 1.00000E-45
7.30874E-01 1.00000E-45
7.34736E-01 1.00000E-45
7.38579E-01 1.00000E-45
7.42405E-01 1.00000E-45
7.46212E-01 1.00000E-45
7.50000E-01 1.00000E-45
7.53769E-01 1.00000E-45
7.57519E-01 1.00000E-45
7.61249E-01 1.00000E-45
7.64960E-01 1.00000E-45
7.68650E-01 1.00000E-45
7.72320E-01 1.00000E-45
7.75968E-01 1.00000E-45
7.79596E-01 1.00000E-45
7.83203E-01 1.00000E-45
7.86788E-01 1.00000E-45
7.90351E-01 1.00000E-45
7.93893E-01 1.00000E-45
7.97411E-01 1.00000E-45
8.00908E-01 1.00000E-45
8.04381E-01 1.00000E-45
8.07831E-01 1.00000E-45
8.11257E-01 1.00000E-45
8.14660E-01 1.00000E-45
8.18039E-01 1.00000E-45
8.21394E-01 1.00000E-45
8.24724E-01 1.00000E-45
8.28030E-01 1.00000E-45
8.31310E-01 1.00000E-45
8.34565E-01 1.00000E-45
8.37795E-01 1.00000E-45
8.40999E-01 1.00000E-45
8.44177E-01 1.00000E-45
8.47329E-01 1.00000E-45
8.50455E-01 1.00000E-45
8.53553E-01 1.00000E-45
8.56625E-01 1.00000E-45
8.59670E-01 1.00000E-45
8.62687E-01 1.00000E-45
8.65677E-01 1.00000E-45
8.68639E-01 1.00000E-45
8.71572E-01 1.00000E-45
8.74478E-01 1.00000E-45
8.77355E-01 1.00000E-45
8.80203E-01 1.00000E-45
8.83022E-01 1.00000E-45
8.85812E-01 1.00000E-45
8.88573E-01 1.00000E-45
8.91304E-01 1.00000E-45
8.94005E-01 1.00000E-45
8.96677E-01 1.00000E-45
8.99318E-01 1.00000E-45
9.01928E-01 1.00000E-45
9.04508E-01 1.00000E-45
9.07058E-01 1.00000E-45
9.09576E-01 1.00000E-45
9.12063E-01 1.00000E-45
9.14519E-01 1.00000E-45
9.16943E-01 1.00000E-45
9.19335E-01 1.00000E-45
9.21696E-01 1.00000E-45
9.24024E-01 1.00000E-45
9.26320E-01 1.00000E-45
9.28584E-01 1.00000E-45
9.30815E-01 1.00000E-45
9.33013E-01 1.00000E-45
9.35178E-01 1.00000E-45
9.37310E-01 1.00000E-45
9.39409E-01 1.00000E-45
9.41474E-01 1.00000E-45
9.43505E-01 1.00000E-45
9.45503E-01 1.00000E-45
9.47467E-01 1.00000E-45
9.49397E-01 1.00000E-45
9.51293E-01 1.00000E-45
9.53154E-01 1.00000E-45
9.54981E-01 1.00000E-45
9.56773E-01 1.00000E-45
9.58530E-01 1.00000E-45
9.60252E-01 1.00000E-45
9.61940E-01 1.00000E-45
9.63592E-01 1.00000E-45
9.65209E-01 1.00000E-45
9.66790E-01 1.00000E-45
9.68336E-01 1.00000E-45
9.69846E-01 1.00000E-45
9.71321E-01 1.00000E-45
9.72759E-01 1.00000E-45
9.74162E-01 1.00000E-45
9.75528E-01 1.00000E-45
9.76858E-01 1.00000E-45
9.78152E-01 1.00000E-45
9.79410E-01 1.00000E-45
9.80631E-01 1.00000E-45
9.81815E-01 1.00000E-45
9.82963E-01 1.00000E-45
9.84074E-01 1.00000E-45
9.85148E-01 1.00000E-45
9.86185E-01 1.00000E-45
9.87185E-01 1.00000E-45
9.88148E-01 1.00000E-45
9.89074E-01 1.00000E-45
9.89962E-01 1.00000E-45
9.90814E-01 1.00000E-45
9.91627E-01 1.00000E-45
9.92404E-01 1.00000E-45
9.93143E-01 1.00000E-45
9.93844E-01 1.00000E-45
9.94508E-01 1.00000E-45
9.95134E-01 1.00000E-45
9.95722E-01 1.00000E-45
9.96273E-01 1.00000E-45
9.96786E-01 1.00000E-45
9.97261E-01 1.00000E-45
9.97698E-01 1.00000E-45
9.98097E-01 1.00000E-45
9.98459E-01 1.00000E-45
9.98782E-01 1.00000E-45
9.99067E-01 1.00000E-45
9.99315E-01 1.00000E-45
9.99524E-01 1.00000E-45
9.99695E-01 1.00000E-45
9.99829E-01 1.00000E-45
9.99924E-01 1.00000E-45
9.99981E-01 1.00000E-45
1.00000E+00 1.00000E-45
