 #
 # Subroutine ELSEPA. Elastic scattering of electrons and positrons
 #                    by neutral atoms and positive ions
 #
 # Projectile: electron
 # Kinetic energy = 1.00000E+08 eV = 3.67493E+06 a.u.
 #
 # WARNING: High-energy factorization with free-atom DF screening.
 #          Absorption, polarization and exchange corrections are
 #          switched off.
 #          Phase shifts are calculated for the bare nucleus.
 #          Scattering amplitudes are not evaluated.
 #
 # Element: Tm,  Z =  69,  atomic weight = 1.68934E+02 g/mol
 #
 # Nuclear model: Fermi distribution
 #                Average radius = 5.91502E-13 cm
 #                Skin thickness = 5.46000E-14 cm
 #
 # Number of electrons = 69
 #
 # Total elastic cross section = 7.02363E-18 cm**2 = 2.50818E-01 a0**2
 # 1st transport cross section = 9.09211E-25 cm**2 = 3.24685E-08 a0**2
 # 2nd transport cross section = 2.70616E-24 cm**2 = 9.66387E-08 a0**2
 #
 #
 # Differential cross section:                       MU=(1-COS(THETA))/2
 #
 #  THETA        MU          DCS          DCS        Sherman      error
 #  (deg)                 (cm**2/sr)   (a0**2/sr)    function
 #----------------------------------------------------------------------
0.00000E+00 7.01467E-10
7.61557E-13 6.98356E-10
1.18994E-12 6.96619E-10
1.71346E-12 6.94507E-10
2.33225E-12 6.92024E-10
3.04617E-12 6.89179E-10
3.85530E-12 6.85979E-10
4.75964E-12 6.82432E-10
5.75917E-12 6.78547E-10
6.85391E-12 6.74336E-10
8.04379E-12 6.69810E-10
9.32893E-12 6.64979E-10
1.07092E-11 6.59856E-10
1.21847E-11 6.54454E-10
1.37554E-11 6.48786E-10
1.54213E-11 6.42865E-10
1.71823E-11 6.36708E-10
1.90386E-11 6.30326E-10
2.09900E-11 6.23735E-10
2.30367E-11 6.16957E-10
2.51785E-11 6.10029E-10
2.74156E-11 6.02920E-10
2.97478E-11 5.95643E-10
3.21752E-11 5.88210E-10
3.46979E-11 5.80635E-10
3.73157E-11 5.73015E-10
4.00286E-11 5.65315E-10
4.28368E-11 5.57513E-10
4.57402E-11 5.49620E-10
4.87388E-11 5.41648E-10
5.18325E-11 5.33646E-10
5.50215E-11 5.25699E-10
5.83057E-11 5.17707E-10
6.16850E-11 5.09682E-10
6.51595E-11 5.01632E-10
6.87293E-11 4.93567E-10
7.23943E-11 4.85629E-10
7.61544E-11 4.77730E-10
1.18991E-10 4.01756E-10
1.71347E-10 3.35492E-10
2.33223E-10 2.80814E-10
3.04617E-10 2.36853E-10
3.85531E-10 2.01880E-10
4.75965E-10 1.74005E-10
5.75917E-10 1.51563E-10
6.85389E-10 1.33228E-10
8.04380E-10 1.17983E-10
9.32891E-10 1.05112E-10
1.07092E-09 9.40934E-11
1.21847E-09 8.45507E-11
1.37554E-09 7.62076E-11
1.54213E-09 6.88558E-11
1.71823E-09 6.23303E-11
1.90386E-09 5.65282E-11
2.09900E-09 5.13533E-11
2.30367E-09 4.66491E-11
2.51785E-09 4.21538E-11
2.74156E-09 3.83185E-11
2.97478E-09 3.50266E-11
3.21752E-09 3.21849E-11
3.46978E-09 2.97186E-11
3.73156E-09 2.72354E-11
4.00286E-09 2.49438E-11
4.28368E-09 2.29424E-11
4.57402E-09 2.11867E-11
4.87388E-09 1.96399E-11
5.18326E-09 1.82202E-11
5.50215E-09 1.68140E-11
5.83057E-09 1.55677E-11
6.16850E-09 1.44591E-11
6.51596E-09 1.34696E-11
6.87293E-09 1.25836E-11
7.23942E-09 1.17114E-11
7.61544E-09 1.09085E-11
1.18991E-08 5.78714E-12
1.71347E-08 3.30989E-12
2.33223E-08 1.99975E-12
3.04617E-08 1.27071E-12
3.85531E-08 8.44803E-13
4.75965E-08 5.84650E-13
5.75917E-08 4.19025E-13
6.85389E-08 3.08749E-13
8.04380E-08 2.33176E-13
9.32891E-08 1.79725E-13
1.07092E-07 1.40826E-13
1.21847E-07 1.11881E-13
1.37554E-07 8.99767E-14
1.54213E-07 7.31656E-14
1.71823E-07 6.00853E-14
1.90386E-07 4.97857E-14
2.09900E-07 4.15857E-14
2.30367E-07 3.49902E-14
2.51785E-07 2.96353E-14
2.74156E-07 2.53009E-14
2.97478E-07 2.16996E-14
3.21752E-07 1.87353E-14
3.46978E-07 1.62492E-14
3.73156E-07 1.41680E-14
4.00286E-07 1.24076E-14
4.28368E-07 1.09134E-14
4.57402E-07 9.63852E-15
4.87388E-07 8.54313E-15
5.18325E-07 7.60122E-15
5.50215E-07 6.78373E-15
5.83057E-07 6.07569E-15
6.16850E-07 5.45553E-15
6.51596E-07 4.91441E-15
6.87293E-07 4.43750E-15
7.23942E-07 4.01803E-15
7.61543E-07 3.64654E-15
1.18991E-06 1.54584E-15
1.71347E-06 7.62695E-16
2.33223E-06 4.18198E-16
3.04617E-06 2.47874E-16
3.85531E-06 1.56031E-16
4.75964E-06 1.03034E-16
5.75916E-06 7.07441E-17
6.85388E-06 5.01717E-17
8.04378E-06 3.65649E-17
9.32888E-06 2.72758E-17
1.07092E-05 2.07591E-17
1.21846E-05 1.60783E-17
1.37553E-05 1.26460E-17
1.54212E-05 1.00829E-17
1.71822E-05 8.13769E-18
1.90385E-05 6.63644E-18
2.09899E-05 5.47172E-18
2.30365E-05 4.55100E-18
2.51783E-05 3.81511E-18
2.74153E-05 3.22137E-18
2.97475E-05 2.73838E-18
3.21749E-05 2.34258E-18
3.46974E-05 2.01594E-18
3.73152E-05 1.74454E-18
4.00281E-05 1.51748E-18
4.28362E-05 1.32627E-18
4.57395E-05 1.16424E-18
4.87380E-05 1.02616E-18
5.18317E-05 9.07900E-19
5.50205E-05 8.06148E-19
5.83045E-05 7.18242E-19
6.16838E-05 6.42005E-19
6.51582E-05 5.75641E-19
6.87277E-05 5.17656E-19
7.23925E-05 4.66808E-19
7.61524E-05 4.22367E-19
9.21439E-05 2.89027E-19
1.09658E-04 2.04407E-19
1.28695E-04 1.48644E-19
1.49255E-04 1.10671E-19
1.71338E-04 8.41018E-20
1.94942E-04 6.50556E-20
2.20070E-04 5.11156E-20
2.46720E-04 4.07228E-20
2.74892E-04 3.28460E-20
3.04586E-04 2.67884E-20
3.35803E-04 2.20676E-20
3.68542E-04 1.83445E-20
4.02802E-04 1.53762E-20
4.38585E-04 1.29862E-20
4.75889E-04 1.10441E-20
5.14715E-04 9.45287E-21
5.55063E-04 8.13894E-21
5.96931E-04 7.04624E-21
6.40321E-04 6.13146E-21
6.85233E-04 5.36090E-21
7.31665E-04 4.70807E-21
7.79618E-04 4.15198E-21
8.29092E-04 3.67591E-21
8.80086E-04 3.26640E-21
9.32601E-04 2.91257E-21
9.86636E-04 2.60556E-21
1.04219E-03 2.33810E-21
1.09927E-03 2.10423E-21
1.15786E-03 1.89900E-21
1.21797E-03 1.71829E-21
1.27961E-03 1.55866E-21
1.34276E-03 1.41721E-21
1.40743E-03 1.29152E-21
1.47362E-03 1.17952E-21
1.54133E-03 1.07944E-21
1.61056E-03 9.89806E-22
1.68131E-03 9.09320E-22
1.75357E-03 8.36884E-22
1.82735E-03 7.71548E-22
1.90265E-03 7.12491E-22
1.97947E-03 6.58999E-22
2.05780E-03 6.10455E-22
2.13765E-03 5.66317E-22
2.21902E-03 5.26112E-22
2.30190E-03 4.89426E-22
2.38630E-03 4.55895E-22
2.47222E-03 4.25199E-22
2.55965E-03 3.97046E-22
2.64859E-03 3.71190E-22
2.73905E-03 3.47412E-22
2.83103E-03 3.25512E-22
2.92452E-03 3.05316E-22
3.01952E-03 2.86666E-22
3.11604E-03 2.69422E-22
3.21407E-03 2.53458E-22
3.31362E-03 2.38661E-22
3.41468E-03 2.24931E-22
3.51725E-03 2.12175E-22
3.62133E-03 2.00312E-22
3.72692E-03 1.89267E-22
3.83403E-03 1.78974E-22
3.94265E-03 1.69372E-22
4.05278E-03 1.60405E-22
4.16442E-03 1.52024E-22
4.27757E-03 1.44183E-22
4.39223E-03 1.36841E-22
4.50840E-03 1.29960E-22
4.62608E-03 1.23506E-22
4.74527E-03 1.17447E-22
4.86597E-03 1.11754E-22
4.98817E-03 1.06401E-22
5.11188E-03 1.01364E-22
5.23711E-03 9.66213E-23
5.36383E-03 9.21516E-23
5.49207E-03 8.79365E-23
5.62181E-03 8.39587E-23
5.75306E-03 8.02024E-23
5.88581E-03 7.66529E-23
6.02007E-03 7.32966E-23
6.15583E-03 7.01211E-23
6.29310E-03 6.71147E-23
6.43187E-03 6.42666E-23
6.57214E-03 6.15671E-23
6.71392E-03 5.90069E-23
6.85720E-03 5.65773E-23
7.00198E-03 5.42706E-23
7.14827E-03 5.20792E-23
7.29605E-03 4.99964E-23
7.44534E-03 4.80157E-23
7.59612E-03 4.61312E-23
7.97965E-03 4.18050E-23
8.37255E-03 3.79691E-23
8.77480E-03 3.45580E-23
9.18641E-03 3.15167E-23
9.60736E-03 2.87980E-23
1.00376E-02 2.63617E-23
1.04773E-02 2.41734E-23
1.09262E-02 2.22035E-23
1.13844E-02 2.04263E-23
1.18520E-02 1.88197E-23
1.23288E-02 1.73646E-23
1.28150E-02 1.60441E-23
1.33104E-02 1.48436E-23
1.38150E-02 1.37503E-23
1.43290E-02 1.27530E-23
1.48521E-02 1.18419E-23
1.53845E-02 1.10082E-23
1.59262E-02 1.02441E-23
1.64770E-02 9.54294E-24
1.70371E-02 8.89859E-24
1.76063E-02 8.30568E-24
1.81848E-02 7.75940E-24
1.87724E-02 7.25547E-24
1.93692E-02 6.79005E-24
1.99751E-02 6.35971E-24
2.05901E-02 5.96137E-24
2.12143E-02 5.59225E-24
2.18476E-02 5.24985E-24
2.24900E-02 4.93193E-24
2.31415E-02 4.63644E-24
2.38021E-02 4.36156E-24
2.44717E-02 4.10560E-24
2.51504E-02 3.86706E-24
2.58382E-02 3.64456E-24
2.65349E-02 3.43686E-24
2.72407E-02 3.24281E-24
2.79555E-02 3.06138E-24
2.86793E-02 2.89162E-24
2.94120E-02 2.73266E-24
3.01537E-02 2.58371E-24
3.09043E-02 2.44405E-24
3.16639E-02 2.31300E-24
3.24324E-02 2.18996E-24
3.32098E-02 2.07436E-24
3.39961E-02 1.96569E-24
3.47912E-02 1.86348E-24
3.55952E-02 1.76727E-24
3.64081E-02 1.67668E-24
3.72297E-02 1.59132E-24
3.80602E-02 1.51085E-24
3.88995E-02 1.43496E-24
3.97476E-02 1.36334E-24
4.06044E-02 1.29572E-24
4.14700E-02 1.23184E-24
4.23443E-02 1.17148E-24
4.32273E-02 1.11441E-24
4.41190E-02 1.06044E-24
4.50194E-02 1.00936E-24
4.59284E-02 9.61007E-25
4.68461E-02 9.15216E-25
4.87074E-02 8.30716E-25
5.06030E-02 7.54757E-25
5.25328E-02 6.86376E-25
5.44967E-02 6.24734E-25
5.64946E-02 5.69095E-25
5.85262E-02 5.18812E-25
6.05914E-02 4.73317E-25
6.26901E-02 4.32108E-25
6.48222E-02 3.94742E-25
6.69873E-02 3.60826E-25
6.91854E-02 3.30013E-25
7.14163E-02 3.01994E-25
7.36799E-02 2.76493E-25
7.59760E-02 2.53266E-25
7.83043E-02 2.32093E-25
8.06647E-02 2.12779E-25
8.30571E-02 1.95148E-25
8.54812E-02 1.79043E-25
8.79369E-02 1.64323E-25
9.04240E-02 1.50861E-25
9.29422E-02 1.38543E-25
9.54915E-02 1.27265E-25
9.80716E-02 1.16934E-25
1.00682E-01 1.07467E-25
1.03323E-01 9.87880E-26
1.05995E-01 9.08274E-26
1.08696E-01 8.35234E-26
1.11427E-01 7.68193E-26
1.14188E-01 7.06638E-26
1.16978E-01 6.50102E-26
1.19797E-01 5.98161E-26
1.22645E-01 5.50429E-26
1.25522E-01 5.06554E-26
1.28428E-01 4.66214E-26
1.31361E-01 4.29118E-26
1.34323E-01 3.94998E-26
1.37313E-01 3.63610E-26
1.40330E-01 3.34731E-26
1.43375E-01 3.08156E-26
1.46447E-01 2.83699E-26
1.49545E-01 2.61189E-26
1.52671E-01 2.40469E-26
1.55823E-01 2.21394E-26
1.59001E-01 2.03834E-26
1.62205E-01 1.87668E-26
1.65435E-01 1.72783E-26
1.68690E-01 1.59079E-26
1.71970E-01 1.46462E-26
1.75276E-01 1.34845E-26
1.78606E-01 1.24150E-26
1.81961E-01 1.14303E-26
1.85340E-01 1.05238E-26
1.88743E-01 9.68934E-27
1.92169E-01 8.92116E-27
1.95619E-01 8.21408E-27
1.99092E-01 7.56330E-27
2.02589E-01 6.96438E-27
2.06107E-01 6.41324E-27
2.09649E-01 5.90612E-27
2.13212E-01 5.43956E-27
2.16797E-01 5.01035E-27
2.20404E-01 4.61555E-27
2.24032E-01 4.25245E-27
2.27680E-01 3.91855E-27
2.31350E-01 3.61153E-27
2.35040E-01 3.32927E-27
2.38751E-01 3.06980E-27
2.42481E-01 2.83132E-27
2.46231E-01 2.61215E-27
2.50000E-01 2.41075E-27
2.53788E-01 2.22572E-27
2.57595E-01 2.05573E-27
2.61421E-01 1.89958E-27
2.65264E-01 1.75616E-27
2.69126E-01 1.62444E-27
2.73005E-01 1.50347E-27
2.76901E-01 1.39240E-27
2.80814E-01 1.29040E-27
2.84744E-01 1.19675E-27
2.88691E-01 1.11076E-27
2.92653E-01 1.03181E-27
2.96632E-01 9.59306E-28
3.00625E-01 8.92727E-28
3.04634E-01 8.31581E-28
3.08658E-01 7.75416E-28
3.12697E-01 7.23819E-28
3.16749E-01 6.76408E-28
3.20816E-01 6.32831E-28
3.24896E-01 5.92766E-28
3.28990E-01 5.55917E-28
3.33097E-01 5.22011E-28
3.37216E-01 4.90800E-28
3.41348E-01 4.62052E-28
3.45492E-01 4.35558E-28
3.49647E-01 4.11124E-28
3.53814E-01 3.88574E-28
3.57992E-01 3.67745E-28
3.62181E-01 3.48488E-28
3.66381E-01 3.30668E-28
3.70590E-01 3.14159E-28
3.74810E-01 2.98848E-28
3.79039E-01 2.84631E-28
3.83277E-01 2.71413E-28
3.87524E-01 2.59105E-28
3.91780E-01 2.47631E-28
3.96044E-01 2.36916E-28
4.00316E-01 2.26895E-28
4.04596E-01 2.17507E-28
4.08882E-01 2.08699E-28
4.13176E-01 2.00419E-28
4.17476E-01 1.92624E-28
4.21783E-01 1.85271E-28
4.26095E-01 1.78323E-28
4.30413E-01 1.71746E-28
4.34737E-01 1.65510E-28
4.39065E-01 1.59586E-28
4.43398E-01 1.53949E-28
4.47736E-01 1.48577E-28
4.52077E-01 1.43448E-28
4.56422E-01 1.38543E-28
4.60770E-01 1.33847E-28
4.65122E-01 1.29343E-28
4.69476E-01 1.25017E-28
4.73832E-01 1.20858E-28
4.78190E-01 1.16853E-28
4.82550E-01 1.12994E-28
4.86912E-01 1.09270E-28
4.91274E-01 1.05673E-28
4.95637E-01 1.02196E-28
5.00000E-01 9.88329E-29
5.04363E-01 9.55766E-29
5.08726E-01 9.24220E-29
5.13088E-01 8.93642E-29
5.17450E-01 8.63987E-29
5.21810E-01 8.35216E-29
5.26168E-01 8.07291E-29
5.30524E-01 7.80180E-29
5.34878E-01 7.53852E-29
5.39230E-01 7.28280E-29
5.43578E-01 7.03438E-29
5.47923E-01 6.79305E-29
5.52264E-01 6.55857E-29
5.56602E-01 6.33077E-29
5.60935E-01 6.10944E-29
5.65263E-01 5.89443E-29
5.69587E-01 5.68558E-29
5.73905E-01 5.48273E-29
5.78217E-01 5.28575E-29
5.82524E-01 5.09449E-29
5.86824E-01 4.90883E-29
5.91118E-01 4.72865E-29
5.95404E-01 4.55382E-29
5.99684E-01 4.38424E-29
6.03956E-01 4.21978E-29
6.08220E-01 4.06034E-29
6.12476E-01 3.90581E-29
6.16723E-01 3.75610E-29
6.20961E-01 3.61108E-29
6.25190E-01 3.47067E-29
6.29410E-01 3.33475E-29
6.33619E-01 3.20324E-29
6.37819E-01 3.07603E-29
6.42008E-01 2.95303E-29
6.46186E-01 2.83414E-29
6.50353E-01 2.71926E-29
6.54508E-01 2.60830E-29
6.58652E-01 2.50115E-29
6.62784E-01 2.39774E-29
6.66903E-01 2.29797E-29
6.71010E-01 2.20173E-29
6.75104E-01 2.10895E-29
6.79184E-01 2.01953E-29
6.83251E-01 1.93338E-29
6.87303E-01 1.85041E-29
6.91342E-01 1.77054E-29
6.95366E-01 1.69367E-29
6.99375E-01 1.61972E-29
7.03368E-01 1.54860E-29
7.07347E-01 1.48024E-29
7.11309E-01 1.41454E-29
7.15256E-01 1.35143E-29
7.19186E-01 1.29083E-29
7.23099E-01 1.23265E-29
7.26995E-01 1.17682E-29
7.30874E-01 1.12327E-29
7.34736E-01 1.07192E-29
7.38579E-01 1.02269E-29
7.42405E-01 9.75510E-30
7.46212E-01 9.30316E-30
7.50000E-01 8.87037E-30
7.53769E-01 8.45604E-30
7.57519E-01 8.05952E-30
7.61249E-01 7.68016E-30
7.64960E-01 7.31734E-30
7.68650E-01 6.97045E-30
7.72320E-01 6.63889E-30
7.75968E-01 6.32207E-30
7.79596E-01 6.01944E-30
7.83203E-01 5.73045E-30
7.86788E-01 5.45456E-30
7.90351E-01 5.19126E-30
7.93893E-01 4.94004E-30
7.97411E-01 4.70041E-30
8.00908E-01 4.47190E-30
8.04381E-01 4.25406E-30
8.07831E-01 4.04644E-30
8.11257E-01 3.84861E-30
8.14660E-01 3.66015E-30
8.18039E-01 3.48067E-30
8.21394E-01 3.30977E-30
8.24724E-01 3.14709E-30
8.28030E-01 2.99226E-30
8.31310E-01 2.84494E-30
8.34565E-01 2.70478E-30
8.37795E-01 2.57147E-30
8.40999E-01 2.44469E-30
8.44177E-01 2.32415E-30
8.47329E-01 2.20956E-30
8.50455E-01 2.10064E-30
8.53553E-01 1.99712E-30
8.56625E-01 1.89875E-30
8.59670E-01 1.80529E-30
8.62687E-01 1.71650E-30
8.65677E-01 1.63215E-30
8.68639E-01 1.55202E-30
8.71572E-01 1.47592E-30
8.74478E-01 1.40365E-30
8.77355E-01 1.33500E-30
8.80203E-01 1.26981E-30
8.83022E-01 1.20790E-30
8.85812E-01 1.14910E-30
8.88573E-01 1.09326E-30
8.91304E-01 1.04022E-30
8.94005E-01 9.89841E-31
8.96677E-01 9.41987E-31
8.99318E-01 8.96525E-31
9.01928E-01 8.53331E-31
9.04508E-01 8.12286E-31
9.07058E-01 7.73278E-31
9.09576E-01 7.36198E-31
9.12063E-01 7.00945E-31
9.14519E-01 6.67422E-31
9.16943E-01 6.35536E-31
9.19335E-01 6.05201E-31
9.21696E-01 5.76333E-31
9.24024E-01 5.48853E-31
9.26320E-01 5.22687E-31
9.28584E-01 4.97764E-31
9.30815E-01 4.74018E-31
9.33013E-01 4.51385E-31
9.35178E-01 4.29805E-31
9.37310E-01 4.09222E-31
9.39409E-01 3.89582E-31
9.41474E-01 3.70835E-31
9.43505E-01 3.52933E-31
9.45503E-01 3.35832E-31
9.47467E-01 3.19489E-31
9.49397E-01 3.03865E-31
9.51293E-01 2.88921E-31
9.53154E-01 2.74624E-31
9.54981E-01 2.60939E-31
9.56773E-01 2.47835E-31
9.58530E-01 2.35284E-31
9.60252E-01 2.23258E-31
9.61940E-01 2.11731E-31
9.63592E-01 2.00680E-31
9.65209E-01 1.90082E-31
9.66790E-01 1.79915E-31
9.68336E-01 1.70160E-31
9.69846E-01 1.60800E-31
9.71321E-01 1.51816E-31
9.72759E-01 1.43192E-31
9.74162E-01 1.34915E-31
9.75528E-01 1.26970E-31
9.76858E-01 1.19344E-31
9.78152E-01 1.12025E-31
9.79410E-01 1.05002E-31
9.80631E-01 9.82652E-32
9.81815E-01 9.18048E-32
9.82963E-01 8.56120E-32
9.84074E-01 7.96786E-32
9.85148E-01 7.39973E-32
9.86185E-01 6.85610E-32
9.87185E-01 6.33633E-32
9.88148E-01 5.83985E-32
9.89074E-01 5.36612E-32
9.89962E-01 4.91463E-32
9.90814E-01 4.48495E-32
9.91627E-01 4.07665E-32
9.92404E-01 3.68935E-32
9.93143E-01 3.32272E-32
9.93844E-01 2.97643E-32
9.94508E-01 2.65021E-32
9.95134E-01 2.34379E-32
9.95722E-01 2.05695E-32
9.96273E-01 1.78947E-32
9.96786E-01 1.54116E-32
9.97261E-01 1.31185E-32
9.97698E-01 1.10139E-32
9.98097E-01 9.09638E-33
9.98459E-01 7.36487E-33
9.98782E-01 5.81825E-33
9.99067E-01 4.45562E-33
9.99315E-01 3.27620E-33
9.99524E-01 2.27931E-33
9.99695E-01 1.46441E-33
9.99829E-01 8.31051E-34
9.99924E-01 3.78891E-34
9.99981E-01 1.07690E-34
1.00000E+00 1.73161E-35
