 #
 # Subroutine ELSEPA. Elastic scattering of electrons and positrons
 #                    by neutral atoms and positive ions
 #
 # Projectile: positron
 # Kinetic energy = 9.00000E+06 eV = 3.30744E+05 a.u.
 #
 # WARNING: High-energy factorization with free-atom DF screening.
 #          Absorption, polarization and exchange corrections are
 #          switched off.
 #          Phase shifts are calculated for the bare nucleus.
 #          Scattering amplitudes are not evaluated.
 #
 # Element: Rb,  Z =  37,  atomic weight = 8.54678E+01 g/mol
 #
 # Nuclear model: Fermi distribution
 #                Average radius = 4.71322E-13 cm
 #                Skin thickness = 5.46000E-14 cm
 #
 # Number of electrons = 37
 #
 # Total elastic cross section = 3.33549E-18 cm**2 = 1.19112E-01 a0**2
 # 1st transport cross section = 2.25909E-23 cm**2 = 8.06734E-07 a0**2
 # 2nd transport cross section = 6.53533E-23 cm**2 = 2.33381E-06 a0**2
 #
 #
 # Differential cross section:                       MU=(1-COS(THETA))/2
 #
 #  THETA        MU          DCS          DCS        Sherman      error
 #  (deg)                 (cm**2/sr)   (a0**2/sr)    function
 #----------------------------------------------------------------------
0.00000E+00 4.73664E-12
7.61557E-13 4.73633E-12
1.18994E-12 4.73616E-12
1.71346E-12 4.73596E-12
2.33225E-12 4.73571E-12
3.04617E-12 4.73543E-12
3.85530E-12 4.73511E-12
4.75964E-12 4.73475E-12
5.75917E-12 4.73435E-12
6.85391E-12 4.73392E-12
8.04379E-12 4.73345E-12
9.32893E-12 4.73294E-12
1.07092E-11 4.73239E-12
1.21847E-11 4.73181E-12
1.37554E-11 4.73119E-12
1.54213E-11 4.73053E-12
1.71823E-11 4.72984E-12
1.90386E-11 4.72911E-12
2.09900E-11 4.72834E-12
2.30367E-11 4.72753E-12
2.51785E-11 4.72669E-12
2.74156E-11 4.72581E-12
2.97478E-11 4.72489E-12
3.21752E-11 4.72394E-12
3.46979E-11 4.72294E-12
3.73157E-11 4.72191E-12
4.00286E-11 4.72085E-12
4.28368E-11 4.71975E-12
4.57402E-11 4.71861E-12
4.87388E-11 4.71743E-12
5.18325E-11 4.71622E-12
5.50215E-11 4.71497E-12
5.83057E-11 4.71368E-12
6.16850E-11 4.71236E-12
6.51595E-11 4.71100E-12
6.87293E-11 4.70960E-12
7.23943E-11 4.70817E-12
7.61544E-11 4.70670E-12
1.18991E-10 4.69002E-12
1.71347E-10 4.66977E-12
2.33223E-10 4.64603E-12
3.04617E-10 4.61890E-12
3.85531E-10 4.58848E-12
4.75965E-10 4.55488E-12
5.75917E-10 4.51822E-12
6.85389E-10 4.47866E-12
8.04380E-10 4.43632E-12
9.32891E-10 4.39136E-12
1.07092E-09 4.34393E-12
1.21847E-09 4.29421E-12
1.37554E-09 4.24234E-12
1.54213E-09 4.18850E-12
1.71823E-09 4.13286E-12
1.90386E-09 4.07561E-12
2.09900E-09 4.01689E-12
2.30367E-09 3.95687E-12
2.51785E-09 3.89575E-12
2.74156E-09 3.83502E-12
2.97478E-09 3.77313E-12
3.21752E-09 3.70997E-12
3.46978E-09 3.64567E-12
3.73156E-09 3.58033E-12
4.00286E-09 3.51454E-12
4.28368E-09 3.45161E-12
4.57402E-09 3.38800E-12
4.87388E-09 3.32381E-12
5.18326E-09 3.25913E-12
5.50215E-09 3.19407E-12
5.83057E-09 3.13021E-12
6.16850E-09 3.06914E-12
6.51596E-09 3.00792E-12
6.87293E-09 2.94663E-12
7.23942E-09 2.88533E-12
7.61544E-09 2.82411E-12
1.18991E-08 2.28453E-12
1.71347E-08 1.85320E-12
2.33223E-08 1.52182E-12
3.04617E-08 1.27065E-12
3.85531E-08 1.07707E-12
4.75965E-08 9.24199E-13
5.75917E-08 8.00672E-13
6.85389E-08 6.98394E-13
8.04380E-08 6.12110E-13
9.32891E-08 5.38426E-13
1.07092E-07 4.74889E-13
1.21847E-07 4.19593E-13
1.37554E-07 3.71494E-13
1.54213E-07 3.29560E-13
1.71823E-07 2.92882E-13
1.90386E-07 2.60772E-13
2.09900E-07 2.32707E-13
2.30367E-07 2.08152E-13
2.51785E-07 1.86606E-13
2.74156E-07 1.66846E-13
2.97478E-07 1.49854E-13
3.21752E-07 1.35290E-13
3.46978E-07 1.22740E-13
3.73156E-07 1.11872E-13
4.00286E-07 1.02307E-13
4.28368E-07 9.31537E-14
4.57402E-07 8.51560E-14
4.87388E-07 7.81384E-14
5.18325E-07 7.19562E-14
5.50215E-07 6.64890E-14
5.83057E-07 6.15123E-14
6.16850E-07 5.68547E-14
6.51596E-07 5.27050E-14
6.87293E-07 4.89959E-14
7.23942E-07 4.56706E-14
7.61543E-07 4.26804E-14
1.18991E-06 2.28083E-14
1.71347E-06 1.32827E-14
2.33223E-06 8.14043E-15
3.04617E-06 5.17671E-15
3.85531E-06 3.41173E-15
4.75964E-06 2.32776E-15
5.75916E-06 1.63972E-15
6.85388E-06 1.18867E-15
8.04378E-06 8.84093E-16
9.32888E-06 6.72643E-16
1.07092E-05 5.21803E-16
1.21846E-05 4.11464E-16
1.37553E-05 3.29097E-16
1.54212E-05 2.66500E-16
1.71822E-05 2.18163E-16
1.90385E-05 1.80281E-16
2.09899E-05 1.50308E-16
2.30365E-05 1.26271E-16
2.51783E-05 1.06797E-16
2.74153E-05 9.08263E-17
2.97475E-05 7.77838E-17
3.21749E-05 6.69583E-17
3.46974E-05 5.79317E-17
3.73152E-05 5.03842E-17
4.00281E-05 4.39908E-17
4.28362E-05 3.85980E-17
4.57395E-05 3.39783E-17
4.87380E-05 3.00368E-17
5.18317E-05 2.66417E-17
5.50205E-05 2.37104E-17
5.83045E-05 2.11715E-17
6.16838E-05 1.89593E-17
6.51582E-05 1.70319E-17
6.87277E-05 1.53391E-17
7.23925E-05 1.38538E-17
7.61524E-05 1.25428E-17
9.21439E-05 8.62418E-18
1.09658E-04 6.12331E-18
1.28695E-04 4.46800E-18
1.49255E-04 3.33663E-18
1.71338E-04 2.54223E-18
1.94942E-04 1.97087E-18
2.20070E-04 1.55147E-18
2.46720E-04 1.23796E-18
2.74892E-04 9.99744E-19
3.04586E-04 8.16133E-19
3.35803E-04 6.72763E-19
3.68542E-04 5.59507E-19
4.02802E-04 4.69070E-19
4.38585E-04 3.96158E-19
4.75889E-04 3.36855E-19
5.14715E-04 2.88223E-19
5.55063E-04 2.48039E-19
5.96931E-04 2.14605E-19
6.40321E-04 1.86607E-19
6.85233E-04 1.63019E-19
7.31665E-04 1.43033E-19
7.79618E-04 1.26011E-19
8.29092E-04 1.11442E-19
8.80086E-04 9.89130E-20
9.32601E-04 8.80918E-20
9.86636E-04 7.87070E-20
1.04219E-03 7.05363E-20
1.09927E-03 6.33959E-20
1.15786E-03 5.71342E-20
1.21797E-03 5.16249E-20
1.27961E-03 4.67622E-20
1.34276E-03 4.24571E-20
1.40743E-03 3.86349E-20
1.47362E-03 3.52322E-20
1.54133E-03 3.21949E-20
1.61056E-03 2.94771E-20
1.68131E-03 2.70393E-20
1.75357E-03 2.48477E-20
1.82735E-03 2.28731E-20
1.90265E-03 2.10902E-20
1.97947E-03 1.94772E-20
2.05780E-03 1.80150E-20
2.13765E-03 1.66872E-20
2.21902E-03 1.54790E-20
2.30190E-03 1.43780E-20
2.38630E-03 1.33728E-20
2.47222E-03 1.24537E-20
2.55965E-03 1.16119E-20
2.64859E-03 1.08399E-20
2.73905E-03 1.01307E-20
2.83103E-03 9.47849E-21
2.92452E-03 8.87774E-21
3.01952E-03 8.32366E-21
3.11604E-03 7.81201E-21
3.21407E-03 7.33895E-21
3.31362E-03 6.90104E-21
3.41468E-03 6.49520E-21
3.51725E-03 6.11866E-21
3.62133E-03 5.76892E-21
3.72692E-03 5.44372E-21
3.83403E-03 5.14105E-21
3.94265E-03 4.85904E-21
4.05278E-03 4.59604E-21
4.16442E-03 4.35053E-21
4.27757E-03 4.12114E-21
4.39223E-03 3.90661E-21
4.50840E-03 3.70581E-21
4.62608E-03 3.51770E-21
4.74527E-03 3.34133E-21
4.86597E-03 3.17583E-21
4.98817E-03 3.02042E-21
5.11188E-03 2.87436E-21
5.23711E-03 2.73698E-21
5.36383E-03 2.60769E-21
5.49207E-03 2.48591E-21
5.62181E-03 2.37112E-21
5.75306E-03 2.26286E-21
5.88581E-03 2.16068E-21
6.02007E-03 2.06418E-21
6.15583E-03 1.97298E-21
6.29310E-03 1.88675E-21
6.43187E-03 1.80515E-21
6.57214E-03 1.72790E-21
6.71392E-03 1.65472E-21
6.85720E-03 1.58536E-21
7.00198E-03 1.51957E-21
7.14827E-03 1.45715E-21
7.29605E-03 1.39788E-21
7.44534E-03 1.34159E-21
7.59612E-03 1.28808E-21
7.97965E-03 1.16549E-21
8.37255E-03 1.05708E-21
8.77480E-03 9.60928E-22
9.18641E-03 8.75414E-22
9.60736E-03 7.99159E-22
1.00376E-02 7.30990E-22
1.04773E-02 6.69901E-22
1.09262E-02 6.15030E-22
1.13844E-02 5.65635E-22
1.18520E-02 5.21075E-22
1.23288E-02 4.80794E-22
1.28150E-02 4.44310E-22
1.33104E-02 4.11202E-22
1.38150E-02 3.81105E-22
1.43290E-02 3.53695E-22
1.48521E-02 3.28692E-22
1.53845E-02 3.05846E-22
1.59262E-02 2.84938E-22
1.64770E-02 2.65776E-22
1.70371E-02 2.48188E-22
1.76063E-02 2.32022E-22
1.81848E-02 2.17142E-22
1.87724E-02 2.03429E-22
1.93692E-02 1.90773E-22
1.99751E-02 1.79080E-22
2.05901E-02 1.68263E-22
2.12143E-02 1.58245E-22
2.18476E-02 1.48956E-22
2.24900E-02 1.40333E-22
2.31415E-02 1.32321E-22
2.38021E-02 1.24869E-22
2.44717E-02 1.17930E-22
2.51504E-02 1.11462E-22
2.58382E-02 1.05428E-22
2.65349E-02 9.97942E-23
2.72407E-02 9.45284E-23
2.79555E-02 8.96025E-23
2.86793E-02 8.49907E-23
2.94120E-02 8.06694E-23
3.01537E-02 7.66168E-23
3.09043E-02 7.28136E-23
3.16639E-02 6.92411E-23
3.24324E-02 6.58832E-23
3.32098E-02 6.27245E-23
3.39961E-02 5.97512E-23
3.47912E-02 5.69504E-23
3.55952E-02 5.43103E-23
3.64081E-02 5.18200E-23
3.72297E-02 4.94694E-23
3.80602E-02 4.72492E-23
3.88995E-02 4.51510E-23
3.97476E-02 4.31668E-23
4.06044E-02 4.12894E-23
4.14700E-02 3.95119E-23
4.23443E-02 3.78280E-23
4.32273E-02 3.62320E-23
4.41190E-02 3.47184E-23
4.50194E-02 3.32821E-23
4.59284E-02 3.19185E-23
4.68461E-02 3.06233E-23
4.87074E-02 2.82221E-23
5.06030E-02 2.60492E-23
5.25328E-02 2.40791E-23
5.44967E-02 2.22897E-23
5.64946E-02 2.06617E-23
5.85262E-02 1.91779E-23
6.05914E-02 1.78232E-23
6.26901E-02 1.65847E-23
6.48222E-02 1.54506E-23
6.69873E-02 1.44106E-23
6.91854E-02 1.34554E-23
7.14163E-02 1.25771E-23
7.36799E-02 1.17683E-23
7.59760E-02 1.10226E-23
7.83043E-02 1.03341E-23
8.06647E-02 9.69787E-24
8.30571E-02 9.10912E-24
8.54812E-02 8.56368E-24
8.79369E-02 8.05784E-24
9.04240E-02 7.58823E-24
9.29422E-02 7.15180E-24
9.54915E-02 6.74577E-24
9.80716E-02 6.36767E-24
1.00682E-01 6.01527E-24
1.03323E-01 5.68649E-24
1.05995E-01 5.37945E-24
1.08696E-01 5.09250E-24
1.11427E-01 4.82411E-24
1.14188E-01 4.57279E-24
1.16978E-01 4.33734E-24
1.19797E-01 4.11658E-24
1.22645E-01 3.90937E-24
1.25522E-01 3.71479E-24
1.28428E-01 3.53194E-24
1.31361E-01 3.35995E-24
1.34323E-01 3.19808E-24
1.37313E-01 3.04563E-24
1.40330E-01 2.90197E-24
1.43375E-01 2.76648E-24
1.46447E-01 2.63863E-24
1.49545E-01 2.51791E-24
1.52671E-01 2.40385E-24
1.55823E-01 2.29602E-24
1.59001E-01 2.19402E-24
1.62205E-01 2.09748E-24
1.65435E-01 2.00606E-24
1.68690E-01 1.91943E-24
1.71970E-01 1.83731E-24
1.75276E-01 1.75942E-24
1.78606E-01 1.68550E-24
1.81961E-01 1.61531E-24
1.85340E-01 1.54863E-24
1.88743E-01 1.48526E-24
1.92169E-01 1.42501E-24
1.95619E-01 1.36768E-24
1.99092E-01 1.31313E-24
2.02589E-01 1.26118E-24
2.06107E-01 1.21170E-24
2.09649E-01 1.16454E-24
2.13212E-01 1.11958E-24
2.16797E-01 1.07669E-24
2.20404E-01 1.03578E-24
2.24032E-01 9.96715E-25
2.27680E-01 9.59415E-25
2.31350E-01 9.23781E-25
2.35040E-01 8.89727E-25
2.38751E-01 8.57170E-25
2.42481E-01 8.26033E-25
2.46231E-01 7.96243E-25
2.50000E-01 7.67733E-25
2.53788E-01 7.40436E-25
2.57595E-01 7.14294E-25
2.61421E-01 6.89249E-25
2.65264E-01 6.65246E-25
2.69126E-01 6.42235E-25
2.73005E-01 6.20167E-25
2.76901E-01 5.98999E-25
2.80814E-01 5.78685E-25
2.84744E-01 5.59187E-25
2.88691E-01 5.40466E-25
2.92653E-01 5.22485E-25
2.96632E-01 5.05210E-25
3.00625E-01 4.88608E-25
3.04634E-01 4.72650E-25
3.08658E-01 4.57306E-25
3.12697E-01 4.42547E-25
3.16749E-01 4.28349E-25
3.20816E-01 4.14685E-25
3.24896E-01 4.01533E-25
3.28990E-01 3.88870E-25
3.33097E-01 3.76675E-25
3.37216E-01 3.64928E-25
3.41348E-01 3.53608E-25
3.45492E-01 3.42699E-25
3.49647E-01 3.32183E-25
3.53814E-01 3.22043E-25
3.57992E-01 3.12263E-25
3.62181E-01 3.02829E-25
3.66381E-01 2.93726E-25
3.70590E-01 2.84940E-25
3.74810E-01 2.76460E-25
3.79039E-01 2.68271E-25
3.83277E-01 2.60364E-25
3.87524E-01 2.52725E-25
3.91780E-01 2.45346E-25
3.96044E-01 2.38214E-25
4.00316E-01 2.31322E-25
4.04596E-01 2.24659E-25
4.08882E-01 2.18216E-25
4.13176E-01 2.11985E-25
4.17476E-01 2.05958E-25
4.21783E-01 2.00128E-25
4.26095E-01 1.94485E-25
4.30413E-01 1.89025E-25
4.34737E-01 1.83739E-25
4.39065E-01 1.78621E-25
4.43398E-01 1.73665E-25
4.47736E-01 1.68866E-25
4.52077E-01 1.64216E-25
4.56422E-01 1.59712E-25
4.60770E-01 1.55347E-25
4.65122E-01 1.51117E-25
4.69476E-01 1.47016E-25
4.73832E-01 1.43040E-25
4.78190E-01 1.39186E-25
4.82550E-01 1.35447E-25
4.86912E-01 1.31821E-25
4.91274E-01 1.28303E-25
4.95637E-01 1.24891E-25
5.00000E-01 1.21579E-25
5.04363E-01 1.18364E-25
5.08726E-01 1.15244E-25
5.13088E-01 1.12215E-25
5.17450E-01 1.09274E-25
5.21810E-01 1.06418E-25
5.26168E-01 1.03645E-25
5.30524E-01 1.00950E-25
5.34878E-01 9.83327E-26
5.39230E-01 9.57895E-26
5.43578E-01 9.33181E-26
5.47923E-01 9.09162E-26
5.52264E-01 8.85815E-26
5.56602E-01 8.63119E-26
5.60935E-01 8.41053E-26
5.65263E-01 8.19597E-26
5.69587E-01 7.98731E-26
5.73905E-01 7.78436E-26
5.78217E-01 7.58695E-26
5.82524E-01 7.39491E-26
5.86824E-01 7.20805E-26
5.91118E-01 7.02623E-26
5.95404E-01 6.84929E-26
5.99684E-01 6.67707E-26
6.03956E-01 6.50944E-26
6.08220E-01 6.34624E-26
6.12476E-01 6.18736E-26
6.16723E-01 6.03265E-26
6.20961E-01 5.88199E-26
6.25190E-01 5.73526E-26
6.29410E-01 5.59235E-26
6.33619E-01 5.45313E-26
6.37819E-01 5.31751E-26
6.42008E-01 5.18537E-26
6.46186E-01 5.05661E-26
6.50353E-01 4.93114E-26
6.54508E-01 4.80885E-26
6.58652E-01 4.68966E-26
6.62784E-01 4.57348E-26
6.66903E-01 4.46022E-26
6.71010E-01 4.34980E-26
6.75104E-01 4.24213E-26
6.79184E-01 4.13714E-26
6.83251E-01 4.03476E-26
6.87303E-01 3.93491E-26
6.91342E-01 3.83752E-26
6.95366E-01 3.74252E-26
6.99375E-01 3.64985E-26
7.03368E-01 3.55944E-26
7.07347E-01 3.47122E-26
7.11309E-01 3.38515E-26
7.15256E-01 3.30116E-26
7.19186E-01 3.21919E-26
7.23099E-01 3.13920E-26
7.26995E-01 3.06112E-26
7.30874E-01 2.98491E-26
7.34736E-01 2.91051E-26
7.38579E-01 2.83789E-26
7.42405E-01 2.76698E-26
7.46212E-01 2.69776E-26
7.50000E-01 2.63016E-26
7.53769E-01 2.56416E-26
7.57519E-01 2.49970E-26
7.61249E-01 2.43675E-26
7.64960E-01 2.37528E-26
7.68650E-01 2.31523E-26
7.72320E-01 2.25658E-26
7.75968E-01 2.19930E-26
7.79596E-01 2.14333E-26
7.83203E-01 2.08867E-26
7.86788E-01 2.03526E-26
7.90351E-01 1.98308E-26
7.93893E-01 1.93210E-26
7.97411E-01 1.88229E-26
8.00908E-01 1.83362E-26
8.04381E-01 1.78606E-26
8.07831E-01 1.73958E-26
8.11257E-01 1.69417E-26
8.14660E-01 1.64979E-26
8.18039E-01 1.60641E-26
8.21394E-01 1.56402E-26
8.24724E-01 1.52259E-26
8.28030E-01 1.48210E-26
8.31310E-01 1.44253E-26
8.34565E-01 1.40385E-26
8.37795E-01 1.36604E-26
8.40999E-01 1.32909E-26
8.44177E-01 1.29297E-26
8.47329E-01 1.25766E-26
8.50455E-01 1.22315E-26
8.53553E-01 1.18942E-26
8.56625E-01 1.15645E-26
8.59670E-01 1.12422E-26
8.62687E-01 1.09271E-26
8.65677E-01 1.06192E-26
8.68639E-01 1.03182E-26
8.71572E-01 1.00240E-26
8.74478E-01 9.73641E-27
8.77355E-01 9.45533E-27
8.80203E-01 9.18060E-27
8.83022E-01 8.91210E-27
8.85812E-01 8.64967E-27
8.88573E-01 8.39320E-27
8.91304E-01 8.14256E-27
8.94005E-01 7.89763E-27
8.96677E-01 7.65828E-27
8.99318E-01 7.42440E-27
9.01928E-01 7.19588E-27
9.04508E-01 6.97261E-27
9.07058E-01 6.75448E-27
9.09576E-01 6.54139E-27
9.12063E-01 6.33324E-27
9.14519E-01 6.12993E-27
9.16943E-01 5.93136E-27
9.19335E-01 5.73745E-27
9.21696E-01 5.54809E-27
9.24024E-01 5.36321E-27
9.26320E-01 5.18272E-27
9.28584E-01 5.00653E-27
9.30815E-01 4.83457E-27
9.33013E-01 4.66676E-27
9.35178E-01 4.50301E-27
9.37310E-01 4.34327E-27
9.39409E-01 4.18745E-27
9.41474E-01 4.03548E-27
9.43505E-01 3.88730E-27
9.45503E-01 3.74284E-27
9.47467E-01 3.60204E-27
9.49397E-01 3.46483E-27
9.51293E-01 3.33116E-27
9.53154E-01 3.20096E-27
9.54981E-01 3.07418E-27
9.56773E-01 2.95076E-27
9.58530E-01 2.83066E-27
9.60252E-01 2.71381E-27
9.61940E-01 2.60016E-27
9.63592E-01 2.48968E-27
9.65209E-01 2.38231E-27
9.66790E-01 2.27800E-27
9.68336E-01 2.17671E-27
9.69846E-01 2.07839E-27
9.71321E-01 1.98302E-27
9.72759E-01 1.89053E-27
9.74162E-01 1.80091E-27
9.75528E-01 1.71410E-27
9.76858E-01 1.63007E-27
9.78152E-01 1.54879E-27
9.79410E-01 1.47022E-27
9.80631E-01 1.39433E-27
9.81815E-01 1.32109E-27
9.82963E-01 1.25046E-27
9.84074E-01 1.18242E-27
9.85148E-01 1.11695E-27
9.86185E-01 1.05400E-27
9.87185E-01 9.93563E-28
9.88148E-01 9.35607E-28
9.89074E-01 8.80110E-28
9.89962E-01 8.27048E-28
9.90814E-01 7.76399E-28
9.91627E-01 7.28144E-28
9.92404E-01 6.82262E-28
9.93143E-01 6.38734E-28
9.93844E-01 5.97543E-28
9.94508E-01 5.58673E-28
9.95134E-01 5.22107E-28
9.95722E-01 4.87830E-28
9.96273E-01 4.55829E-28
9.96786E-01 4.26091E-28
9.97261E-01 3.98603E-28
9.97698E-01 3.73355E-28
9.98097E-01 3.50336E-28
9.98459E-01 3.29538E-28
9.98782E-01 3.10951E-28
9.99067E-01 2.94568E-28
9.99315E-01 2.80383E-28
9.99524E-01 2.68390E-28
9.99695E-01 2.58584E-28
9.99829E-01 2.50962E-28
9.99924E-01 2.45519E-28
9.99981E-01 2.42254E-28
1.00000E+00 2.41166E-28
