 #
 # Subroutine ELSEPA. Elastic scattering of electrons and positrons
 #                    by neutral atoms and positive ions
 #
 # Projectile: positron
 # Kinetic energy = 5.00000E+07 eV = 1.83747E+06 a.u.
 #
 # WARNING: High-energy factorization with free-atom DF screening.
 #          Absorption, polarization and exchange corrections are
 #          switched off.
 #          Phase shifts are calculated for the bare nucleus.
 #          Scattering amplitudes are not evaluated.
 #
 # Element: Rb,  Z =  37,  atomic weight = 8.54678E+01 g/mol
 #
 # Nuclear model: Fermi distribution
 #                Average radius = 4.71322E-13 cm
 #                Skin thickness = 5.46000E-14 cm
 #
 # Number of electrons = 37
 #
 # Total elastic cross section = 3.32679E-18 cm**2 = 1.18802E-01 a0**2
 # 1st transport cross section = 1.00753E-24 cm**2 = 3.59795E-08 a0**2
 # 2nd transport cross section = 2.95832E-24 cm**2 = 1.05643E-07 a0**2
 #
 #
 # Differential cross section:                       MU=(1-COS(THETA))/2
 #
 #  THETA        MU          DCS          DCS        Sherman      error
 #  (deg)                 (cm**2/sr)   (a0**2/sr)    function
 #----------------------------------------------------------------------
0.00000E+00 1.33595E-10
7.61557E-13 1.33355E-10
1.18994E-12 1.33221E-10
1.71346E-12 1.33057E-10
2.33225E-12 1.32863E-10
3.04617E-12 1.32641E-10
3.85530E-12 1.32390E-10
4.75964E-12 1.32110E-10
5.75917E-12 1.31802E-10
6.85391E-12 1.31466E-10
8.04379E-12 1.31102E-10
9.32893E-12 1.30711E-10
1.07092E-11 1.30294E-10
1.21847E-11 1.29850E-10
1.37554E-11 1.29380E-10
1.54213E-11 1.28886E-10
1.71823E-11 1.28366E-10
1.90386E-11 1.27822E-10
2.09900E-11 1.27254E-10
2.30367E-11 1.26664E-10
2.51785E-11 1.26050E-10
2.74156E-11 1.25415E-10
2.97478E-11 1.24759E-10
3.21752E-11 1.24082E-10
3.46979E-11 1.23386E-10
3.73157E-11 1.22670E-10
4.00286E-11 1.21936E-10
4.28368E-11 1.21184E-10
4.57402E-11 1.20414E-10
4.87388E-11 1.19629E-10
5.18325E-11 1.18827E-10
5.50215E-11 1.18011E-10
5.83057E-11 1.17180E-10
6.16850E-11 1.16336E-10
6.51595E-11 1.15479E-10
6.87293E-11 1.14610E-10
7.23943E-11 1.13730E-10
7.61544E-11 1.12839E-10
1.18991E-10 1.03573E-10
1.71347E-10 9.39151E-11
2.33223E-10 8.44478E-11
3.04617E-10 7.55469E-11
3.85531E-10 6.74355E-11
4.75965E-10 6.02093E-11
5.75917E-10 5.38721E-11
6.85389E-10 4.83688E-11
8.04380E-10 4.36234E-11
9.32891E-10 3.95325E-11
1.07092E-09 3.59843E-11
1.21847E-09 3.28932E-11
1.37554E-09 3.01844E-11
1.54213E-09 2.77948E-11
1.71823E-09 2.56718E-11
1.90386E-09 2.37725E-11
2.09900E-09 2.20621E-11
2.30367E-09 2.05124E-11
2.51785E-09 1.91009E-11
2.74156E-09 1.78093E-11
2.97478E-09 1.66228E-11
3.21752E-09 1.55274E-11
3.46978E-09 1.45150E-11
3.73156E-09 1.35778E-11
4.00286E-09 1.27089E-11
4.28368E-09 1.19024E-11
4.57402E-09 1.11532E-11
4.87388E-09 1.04568E-11
5.18326E-09 9.80904E-12
5.50215E-09 9.20631E-12
5.83057E-09 8.64529E-12
6.16850E-09 8.12298E-12
6.51596E-09 7.63661E-12
6.87293E-09 7.18340E-12
7.23942E-09 6.76071E-12
7.61544E-09 6.36700E-12
1.18991E-08 3.60150E-12
1.71347E-08 2.22163E-12
2.33223E-08 1.46234E-12
3.04617E-08 1.01349E-12
3.85531E-08 7.29271E-13
4.75965E-08 5.38805E-13
5.75917E-08 4.05697E-13
6.85389E-08 3.09919E-13
8.04380E-08 2.39474E-13
9.32891E-08 1.86985E-13
1.07092E-07 1.47572E-13
1.21847E-07 1.17672E-13
1.37554E-07 9.47731E-14
1.54213E-07 7.70736E-14
1.71823E-07 6.32689E-14
1.90386E-07 5.24046E-14
2.09900E-07 4.37795E-14
2.30367E-07 3.68695E-14
2.51785E-07 3.12794E-14
2.74156E-07 2.67259E-14
2.97478E-07 2.29872E-14
3.21752E-07 1.98923E-14
3.46978E-07 1.73113E-14
3.73156E-07 1.51432E-14
4.00286E-07 1.33095E-14
4.28368E-07 1.17490E-14
4.57402E-07 1.04132E-14
4.87388E-07 9.26382E-15
5.18325E-07 8.27001E-15
5.50215E-07 7.40689E-15
5.83057E-07 6.65410E-15
6.16850E-07 5.99489E-15
6.51596E-07 5.41542E-15
6.87293E-07 4.90415E-15
7.23942E-07 4.45141E-15
7.61543E-07 4.04941E-15
1.18991E-06 1.73792E-15
1.71347E-06 8.59699E-16
2.33223E-06 4.71012E-16
3.04617E-06 2.78971E-16
3.85531E-06 1.75621E-16
4.75964E-06 1.16054E-16
5.75916E-06 7.97628E-17
6.85388E-06 5.66294E-17
8.04378E-06 4.13146E-17
9.32888E-06 3.08460E-17
1.07092E-05 2.34932E-17
1.21846E-05 1.82061E-17
1.37553E-05 1.43253E-17
1.54212E-05 1.14247E-17
1.71822E-05 9.22187E-18
1.90385E-05 7.52365E-18
2.09899E-05 6.20045E-18
2.30365E-05 5.15519E-18
2.51783E-05 4.32058E-18
2.74153E-05 3.64770E-18
2.97475E-05 3.10053E-18
3.21749E-05 2.65209E-18
3.46974E-05 2.28182E-18
3.73152E-05 1.97399E-18
4.00281E-05 1.71638E-18
4.28362E-05 1.49944E-18
4.57395E-05 1.31568E-18
4.87380E-05 1.15917E-18
5.18317E-05 1.02520E-18
5.50205E-05 9.09985E-19
5.83045E-05 8.10487E-19
6.16838E-05 7.24212E-19
6.51582E-05 6.49114E-19
6.87277E-05 5.83504E-19
7.23925E-05 5.25978E-19
7.61524E-05 4.75383E-19
9.21439E-05 3.24737E-19
1.09658E-04 2.29266E-19
1.28695E-04 1.66428E-19
1.49255E-04 1.23696E-19
1.71338E-04 9.38350E-20
1.94942E-04 7.24571E-20
2.20070E-04 5.68307E-20
2.46720E-04 4.51959E-20
2.74892E-04 3.63889E-20
3.04586E-04 2.96250E-20
3.35803E-04 2.43604E-20
3.68542E-04 2.02141E-20
4.02802E-04 1.69126E-20
4.38585E-04 1.42578E-20
4.75889E-04 1.21035E-20
5.14715E-04 1.03406E-20
5.55063E-04 8.88697E-21
5.96931E-04 7.67968E-21
6.40321E-04 6.67035E-21
6.85233E-04 5.82131E-21
7.31665E-04 5.10295E-21
7.79618E-04 4.49191E-21
8.29092E-04 3.96951E-21
8.80086E-04 3.52077E-21
9.32601E-04 3.13358E-21
9.86636E-04 2.79810E-21
1.04219E-03 2.50625E-21
1.09927E-03 2.25142E-21
1.15786E-03 2.02810E-21
1.21797E-03 1.83174E-21
1.27961E-03 1.65854E-21
1.34276E-03 1.50529E-21
1.40743E-03 1.36930E-21
1.47362E-03 1.24830E-21
1.54133E-03 1.14034E-21
1.61056E-03 1.04377E-21
1.68131E-03 9.57193E-22
1.75357E-03 8.79387E-22
1.82735E-03 8.09308E-22
1.90265E-03 7.46054E-22
1.97947E-03 6.88846E-22
2.05780E-03 6.37003E-22
2.13765E-03 5.89932E-22
2.21902E-03 5.47118E-22
2.30190E-03 5.08109E-22
2.38630E-03 4.72504E-22
2.47222E-03 4.39954E-22
2.55965E-03 4.10151E-22
2.64859E-03 3.82822E-22
2.73905E-03 3.57724E-22
2.83103E-03 3.34643E-22
2.92452E-03 3.13388E-22
3.01952E-03 2.93788E-22
3.11604E-03 2.75691E-22
3.21407E-03 2.58962E-22
3.31362E-03 2.43478E-22
3.41468E-03 2.29129E-22
3.51725E-03 2.15819E-22
3.62133E-03 2.03458E-22
3.72692E-03 1.91964E-22
3.83403E-03 1.81269E-22
3.94265E-03 1.71306E-22
4.05278E-03 1.62013E-22
4.16442E-03 1.53341E-22
4.27757E-03 1.45239E-22
4.39223E-03 1.37662E-22
4.50840E-03 1.30571E-22
4.62608E-03 1.23929E-22
4.74527E-03 1.17701E-22
4.86597E-03 1.11859E-22
4.98817E-03 1.06372E-22
5.11188E-03 1.01216E-22
5.23711E-03 9.63679E-23
5.36383E-03 9.18047E-23
5.49207E-03 8.75071E-23
5.62181E-03 8.34568E-23
5.75306E-03 7.96369E-23
5.88581E-03 7.60319E-23
6.02007E-03 7.26276E-23
6.15583E-03 6.94106E-23
6.29310E-03 6.63688E-23
6.43187E-03 6.34909E-23
6.57214E-03 6.07664E-23
6.71392E-03 5.81857E-23
6.85720E-03 5.57397E-23
7.00198E-03 5.34202E-23
7.14827E-03 5.12194E-23
7.29605E-03 4.91301E-23
7.44534E-03 4.71455E-23
7.59612E-03 4.52596E-23
7.97965E-03 4.09389E-23
8.37255E-03 3.71186E-23
8.77480E-03 3.37310E-23
9.18641E-03 3.07187E-23
9.60736E-03 2.80331E-23
1.00376E-02 2.56327E-23
1.04773E-02 2.34820E-23
1.09262E-02 2.15506E-23
1.13844E-02 1.98122E-23
1.18520E-02 1.82443E-23
1.23288E-02 1.68273E-23
1.28150E-02 1.55441E-23
1.33104E-02 1.43798E-23
1.38150E-02 1.33217E-23
1.43290E-02 1.23582E-23
1.48521E-02 1.14795E-23
1.53845E-02 1.06768E-23
1.59262E-02 9.94237E-24
1.64770E-02 9.26941E-24
1.70371E-02 8.65186E-24
1.76063E-02 8.08436E-24
1.81848E-02 7.56215E-24
1.87724E-02 7.08097E-24
1.93692E-02 6.63704E-24
1.99751E-02 6.22697E-24
2.05901E-02 5.84772E-24
2.12143E-02 5.49656E-24
2.18476E-02 5.17105E-24
2.24900E-02 4.86899E-24
2.31415E-02 4.58838E-24
2.38021E-02 4.32744E-24
2.44717E-02 4.08454E-24
2.51504E-02 3.85822E-24
2.58382E-02 3.64714E-24
2.65349E-02 3.45010E-24
2.72407E-02 3.26600E-24
2.79555E-02 3.09384E-24
2.86793E-02 2.93270E-24
2.94120E-02 2.78176E-24
3.01537E-02 2.64025E-24
3.09043E-02 2.50749E-24
3.16639E-02 2.38283E-24
3.24324E-02 2.26570E-24
3.32098E-02 2.15556E-24
3.39961E-02 2.05192E-24
3.47912E-02 1.95432E-24
3.55952E-02 1.86236E-24
3.64081E-02 1.77564E-24
3.72297E-02 1.69382E-24
3.80602E-02 1.61658E-24
3.88995E-02 1.54360E-24
3.97476E-02 1.47462E-24
4.06044E-02 1.40937E-24
4.14700E-02 1.34762E-24
4.23443E-02 1.28915E-24
4.32273E-02 1.23375E-24
4.41190E-02 1.18123E-24
4.50194E-02 1.13142E-24
4.59284E-02 1.08415E-24
4.68461E-02 1.03927E-24
4.87074E-02 9.56115E-25
5.06030E-02 8.80938E-25
5.25328E-02 8.12843E-25
5.44967E-02 7.51052E-25
5.64946E-02 6.94885E-25
5.85262E-02 6.43746E-25
6.05914E-02 5.97108E-25
6.26901E-02 5.54511E-25
6.48222E-02 5.15547E-25
6.69873E-02 4.79853E-25
6.91854E-02 4.47110E-25
7.14163E-02 4.17034E-25
7.36799E-02 3.89372E-25
7.59760E-02 3.63897E-25
7.83043E-02 3.40408E-25
8.06647E-02 3.18725E-25
8.30571E-02 2.98686E-25
8.54812E-02 2.80146E-25
8.79369E-02 2.62975E-25
9.04240E-02 2.47054E-25
9.29422E-02 2.32278E-25
9.54915E-02 2.18550E-25
9.80716E-02 2.05785E-25
1.00682E-01 1.93904E-25
1.03323E-01 1.82835E-25
1.05995E-01 1.72514E-25
1.08696E-01 1.62883E-25
1.11427E-01 1.53887E-25
1.14188E-01 1.45478E-25
1.16978E-01 1.37612E-25
1.19797E-01 1.30248E-25
1.22645E-01 1.23348E-25
1.25522E-01 1.16879E-25
1.28428E-01 1.10809E-25
1.31361E-01 1.05110E-25
1.34323E-01 9.97562E-26
1.37313E-01 9.47224E-26
1.40330E-01 8.99868E-26
1.43375E-01 8.55290E-26
1.46447E-01 8.13300E-26
1.49545E-01 7.73725E-26
1.52671E-01 7.36404E-26
1.55823E-01 7.01188E-26
1.59001E-01 6.67941E-26
1.62205E-01 6.36535E-26
1.65435E-01 6.06851E-26
1.68690E-01 5.78782E-26
1.71970E-01 5.52226E-26
1.75276E-01 5.27088E-26
1.78606E-01 5.03282E-26
1.81961E-01 4.80725E-26
1.85340E-01 4.59342E-26
1.88743E-01 4.39063E-26
1.92169E-01 4.19823E-26
1.95619E-01 4.01559E-26
1.99092E-01 3.84215E-26
2.02589E-01 3.67738E-26
2.06107E-01 3.52078E-26
2.09649E-01 3.37188E-26
2.13212E-01 3.23024E-26
2.16797E-01 3.09547E-26
2.20404E-01 2.96718E-26
2.24032E-01 2.84500E-26
2.27680E-01 2.72861E-26
2.31350E-01 2.61770E-26
2.35040E-01 2.51196E-26
2.38751E-01 2.41113E-26
2.42481E-01 2.31493E-26
2.46231E-01 2.22313E-26
2.50000E-01 2.13550E-26
2.53788E-01 2.05182E-26
2.57595E-01 1.97188E-26
2.61421E-01 1.89550E-26
2.65264E-01 1.82250E-26
2.69126E-01 1.75270E-26
2.73005E-01 1.68594E-26
2.76901E-01 1.62208E-26
2.80814E-01 1.56097E-26
2.84744E-01 1.50247E-26
2.88691E-01 1.44646E-26
2.92653E-01 1.39282E-26
2.96632E-01 1.34143E-26
3.00625E-01 1.29219E-26
3.04634E-01 1.24499E-26
3.08658E-01 1.19975E-26
3.12697E-01 1.15636E-26
3.16749E-01 1.11473E-26
3.20816E-01 1.07480E-26
3.24896E-01 1.03648E-26
3.28990E-01 9.99697E-27
3.33097E-01 9.64381E-27
3.37216E-01 9.30466E-27
3.41348E-01 8.97889E-27
3.45492E-01 8.66592E-27
3.49647E-01 8.36517E-27
3.53814E-01 8.07609E-27
3.57992E-01 7.79819E-27
3.62181E-01 7.53098E-27
3.66381E-01 7.27398E-27
3.70590E-01 7.02677E-27
3.74810E-01 6.78892E-27
3.79039E-01 6.56003E-27
3.83277E-01 6.33972E-27
3.87524E-01 6.12764E-27
3.91780E-01 5.92343E-27
3.96044E-01 5.72677E-27
4.00316E-01 5.53734E-27
4.04596E-01 5.35486E-27
4.08882E-01 5.17902E-27
4.13176E-01 5.00956E-27
4.17476E-01 4.84623E-27
4.21783E-01 4.68876E-27
4.26095E-01 4.53694E-27
4.30413E-01 4.39052E-27
4.34737E-01 4.24930E-27
4.39065E-01 4.11307E-27
4.43398E-01 3.98163E-27
4.47736E-01 3.85480E-27
4.52077E-01 3.73240E-27
4.56422E-01 3.61424E-27
4.60770E-01 3.50018E-27
4.65122E-01 3.39004E-27
4.69476E-01 3.28368E-27
4.73832E-01 3.18096E-27
4.78190E-01 3.08174E-27
4.82550E-01 2.98588E-27
4.86912E-01 2.89326E-27
4.91274E-01 2.80376E-27
4.95637E-01 2.71726E-27
5.00000E-01 2.63364E-27
5.04363E-01 2.55281E-27
5.08726E-01 2.47466E-27
5.13088E-01 2.39908E-27
5.17450E-01 2.32600E-27
5.21810E-01 2.25531E-27
5.26168E-01 2.18693E-27
5.30524E-01 2.12077E-27
5.34878E-01 2.05677E-27
5.39230E-01 1.99483E-27
5.43578E-01 1.93488E-27
5.47923E-01 1.87686E-27
5.52264E-01 1.82070E-27
5.56602E-01 1.76632E-27
5.60935E-01 1.71368E-27
5.65263E-01 1.66270E-27
5.69587E-01 1.61333E-27
5.73905E-01 1.56551E-27
5.78217E-01 1.51920E-27
5.82524E-01 1.47433E-27
5.86824E-01 1.43086E-27
5.91118E-01 1.38874E-27
5.95404E-01 1.34793E-27
5.99684E-01 1.30837E-27
6.03956E-01 1.27004E-27
6.08220E-01 1.23288E-27
6.12476E-01 1.19685E-27
6.16723E-01 1.16193E-27
6.20961E-01 1.12806E-27
6.25190E-01 1.09523E-27
6.29410E-01 1.06339E-27
6.33619E-01 1.03250E-27
6.37819E-01 1.00255E-27
6.42008E-01 9.73493E-28
6.46186E-01 9.45305E-28
6.50353E-01 9.17958E-28
6.54508E-01 8.91424E-28
6.58652E-01 8.65677E-28
6.62784E-01 8.40692E-28
6.66903E-01 8.16443E-28
6.71010E-01 7.92908E-28
6.75104E-01 7.70063E-28
6.79184E-01 7.47887E-28
6.83251E-01 7.26358E-28
6.87303E-01 7.05456E-28
6.91342E-01 6.85161E-28
6.95366E-01 6.65454E-28
6.99375E-01 6.46316E-28
7.03368E-01 6.27731E-28
7.07347E-01 6.09679E-28
7.11309E-01 5.92146E-28
7.15256E-01 5.75115E-28
7.19186E-01 5.58570E-28
7.23099E-01 5.42497E-28
7.26995E-01 5.26880E-28
7.30874E-01 5.11707E-28
7.34736E-01 4.96963E-28
7.38579E-01 4.82636E-28
7.42405E-01 4.68712E-28
7.46212E-01 4.55180E-28
7.50000E-01 4.42028E-28
7.53769E-01 4.29244E-28
7.57519E-01 4.16817E-28
7.61249E-01 4.04737E-28
7.64960E-01 3.92994E-28
7.68650E-01 3.81577E-28
7.72320E-01 3.70476E-28
7.75968E-01 3.59683E-28
7.79596E-01 3.49188E-28
7.83203E-01 3.38983E-28
7.86788E-01 3.29058E-28
7.90351E-01 3.19406E-28
7.93893E-01 3.10020E-28
7.97411E-01 3.00890E-28
8.00908E-01 2.92010E-28
8.04381E-01 2.83373E-28
8.07831E-01 2.74972E-28
8.11257E-01 2.66799E-28
8.14660E-01 2.58848E-28
8.18039E-01 2.51113E-28
8.21394E-01 2.43589E-28
8.24724E-01 2.36268E-28
8.28030E-01 2.29145E-28
8.31310E-01 2.22214E-28
8.34565E-01 2.15471E-28
8.37795E-01 2.08909E-28
8.40999E-01 2.02524E-28
8.44177E-01 1.96312E-28
8.47329E-01 1.90266E-28
8.50455E-01 1.84382E-28
8.53553E-01 1.78657E-28
8.56625E-01 1.73085E-28
8.59670E-01 1.67663E-28
8.62687E-01 1.62386E-28
8.65677E-01 1.57250E-28
8.68639E-01 1.52252E-28
8.71572E-01 1.47388E-28
8.74478E-01 1.42654E-28
8.77355E-01 1.38047E-28
8.80203E-01 1.33563E-28
8.83022E-01 1.29199E-28
8.85812E-01 1.24953E-28
8.88573E-01 1.20820E-28
8.91304E-01 1.16797E-28
8.94005E-01 1.12883E-28
8.96677E-01 1.09074E-28
8.99318E-01 1.05367E-28
9.01928E-01 1.01760E-28
9.04508E-01 9.82496E-29
9.07058E-01 9.48342E-29
9.09576E-01 9.15110E-29
9.12063E-01 8.82777E-29
9.14519E-01 8.51320E-29
9.16943E-01 8.20717E-29
9.19335E-01 7.90947E-29
9.21696E-01 7.61988E-29
9.24024E-01 7.33822E-29
9.26320E-01 7.06428E-29
9.28584E-01 6.79787E-29
9.30815E-01 6.53881E-29
9.33013E-01 6.28693E-29
9.35178E-01 6.04204E-29
9.37310E-01 5.80400E-29
9.39409E-01 5.57262E-29
9.41474E-01 5.34776E-29
9.43505E-01 5.12926E-29
9.45503E-01 4.91698E-29
9.47467E-01 4.71078E-29
9.49397E-01 4.51050E-29
9.51293E-01 4.31603E-29
9.53154E-01 4.12723E-29
9.54981E-01 3.94398E-29
9.56773E-01 3.76615E-29
9.58530E-01 3.59362E-29
9.60252E-01 3.42629E-29
9.61940E-01 3.26404E-29
9.63592E-01 3.10676E-29
9.65209E-01 2.95436E-29
9.66790E-01 2.80673E-29
9.68336E-01 2.66377E-29
9.69846E-01 2.52539E-29
9.71321E-01 2.39151E-29
9.72759E-01 2.26204E-29
9.74162E-01 2.13688E-29
9.75528E-01 2.01596E-29
9.76858E-01 1.89921E-29
9.78152E-01 1.78655E-29
9.79410E-01 1.67789E-29
9.80631E-01 1.57319E-29
9.81815E-01 1.47236E-29
9.82963E-01 1.37534E-29
9.84074E-01 1.28208E-29
9.85148E-01 1.19251E-29
9.86185E-01 1.10657E-29
9.87185E-01 1.02421E-29
9.88148E-01 9.45382E-30
9.89074E-01 8.70030E-30
9.89962E-01 7.98108E-30
9.90814E-01 7.29571E-30
9.91627E-01 6.64374E-30
9.92404E-01 6.02478E-30
9.93143E-01 5.43843E-30
9.93844E-01 4.88432E-30
9.94508E-01 4.36210E-30
9.95134E-01 3.87145E-30
9.95722E-01 3.41205E-30
9.96273E-01 2.98362E-30
9.96786E-01 2.58589E-30
9.97261E-01 2.21861E-30
9.97698E-01 1.88156E-30
9.98097E-01 1.57451E-30
9.98459E-01 1.29728E-30
9.98782E-01 1.04969E-30
9.99067E-01 8.31594E-31
9.99315E-01 6.42851E-31
9.99524E-01 4.83345E-31
9.99695E-01 3.52976E-31
9.99829E-01 2.51662E-31
9.99924E-01 1.79339E-31
9.99981E-01 1.35964E-31
1.00000E+00 1.21508E-31
