 #
 # Subroutine ELSEPA. Elastic scattering of electrons and positrons
 #                    by neutral atoms and positive ions
 #
 # Projectile: positron
 # Kinetic energy = 7.00000E+07 eV = 2.57245E+06 a.u.
 #
 # WARNING: High-energy factorization with free-atom DF screening.
 #          Absorption, polarization and exchange corrections are
 #          switched off.
 #          Phase shifts are calculated for the bare nucleus.
 #          Scattering amplitudes are not evaluated.
 #
 # Element: Rb,  Z =  37,  atomic weight = 8.54678E+01 g/mol
 #
 # Nuclear model: Fermi distribution
 #                Average radius = 4.71322E-13 cm
 #                Skin thickness = 5.46000E-14 cm
 #
 # Number of electrons = 37
 #
 # Total elastic cross section = 3.32795E-18 cm**2 = 1.18843E-01 a0**2
 # 1st transport cross section = 5.31229E-25 cm**2 = 1.89705E-08 a0**2
 # 2nd transport cross section = 1.56834E-24 cm**2 = 5.60064E-08 a0**2
 #
 #
 # Differential cross section:                       MU=(1-COS(THETA))/2
 #
 #  THETA        MU          DCS          DCS        Sherman      error
 #  (deg)                 (cm**2/sr)   (a0**2/sr)    function
 #----------------------------------------------------------------------
0.00000E+00 2.60335E-10
7.61557E-13 2.59426E-10
1.18994E-12 2.58917E-10
1.71346E-12 2.58298E-10
2.33225E-12 2.57570E-10
3.04617E-12 2.56734E-10
3.85530E-12 2.55793E-10
4.75964E-12 2.54747E-10
5.75917E-12 2.53600E-10
6.85391E-12 2.52354E-10
8.04379E-12 2.51011E-10
9.32893E-12 2.49574E-10
1.07092E-11 2.48047E-10
1.21847E-11 2.46432E-10
1.37554E-11 2.44731E-10
1.54213E-11 2.42950E-10
1.71823E-11 2.41092E-10
1.90386E-11 2.39159E-10
2.09900E-11 2.37155E-10
2.30367E-11 2.35085E-10
2.51785E-11 2.32952E-10
2.74156E-11 2.30759E-10
2.97478E-11 2.28511E-10
3.21752E-11 2.26212E-10
3.46979E-11 2.23864E-10
3.73157E-11 2.21472E-10
4.00286E-11 2.19042E-10
4.28368E-11 2.16574E-10
4.57402E-11 2.14073E-10
4.87388E-11 2.11601E-10
5.18325E-11 2.09096E-10
5.50215E-11 2.06550E-10
5.83057E-11 2.03968E-10
6.16850E-11 2.01350E-10
6.51595E-11 1.98701E-10
6.87293E-11 1.96021E-10
7.23943E-11 1.93330E-10
7.61544E-11 1.90768E-10
1.18991E-10 1.64922E-10
1.71347E-10 1.41071E-10
2.33223E-10 1.20291E-10
3.04617E-10 1.03117E-10
3.85531E-10 8.89454E-11
4.75965E-10 7.73422E-11
5.75917E-10 6.78742E-11
6.85389E-10 6.00681E-11
8.04380E-10 5.35206E-11
9.32891E-10 4.79631E-11
1.07092E-09 4.31839E-11
1.21847E-09 3.90196E-11
1.37554E-09 3.53582E-11
1.54213E-09 3.21077E-11
1.71823E-09 2.92015E-11
1.90386E-09 2.65996E-11
2.09900E-09 2.42624E-11
2.30367E-09 2.21455E-11
2.51785E-09 2.02369E-11
2.74156E-09 1.85143E-11
2.97478E-09 1.69543E-11
3.21752E-09 1.55402E-11
3.46978E-09 1.42621E-11
3.73156E-09 1.31060E-11
4.00286E-09 1.20553E-11
4.28368E-09 1.11042E-11
4.57402E-09 1.02428E-11
4.87388E-09 9.42276E-12
5.18326E-09 8.68785E-12
5.50215E-09 8.03370E-12
5.83057E-09 7.44969E-12
6.16850E-09 6.92681E-12
6.51596E-09 6.45736E-12
6.87293E-09 6.03474E-12
7.23942E-09 5.64975E-12
7.61544E-09 5.26728E-12
1.18991E-08 2.87226E-12
1.71347E-08 1.73911E-12
2.33223E-08 1.12552E-12
3.04617E-08 7.54059E-13
3.85531E-08 5.20494E-13
4.75965E-08 3.67878E-13
5.75917E-08 2.65111E-13
6.85389E-08 1.94702E-13
8.04380E-08 1.45808E-13
9.32891E-08 1.11205E-13
1.07092E-07 8.62294E-14
1.21847E-07 6.79348E-14
1.37554E-07 5.42930E-14
1.54213E-07 4.39633E-14
1.71823E-07 3.60203E-14
1.90386E-07 2.98255E-14
2.09900E-07 2.49284E-14
2.30367E-07 2.10053E-14
2.51785E-07 1.78324E-14
2.74156E-07 1.52418E-14
2.97478E-07 1.31073E-14
3.21752E-07 1.13343E-14
3.46978E-07 9.85175E-15
3.73156E-07 8.60358E-15
4.00286E-07 7.54486E-15
4.28368E-07 6.64302E-15
4.57402E-07 5.87104E-15
4.87388E-07 5.20337E-15
5.18325E-07 4.62951E-15
5.50215E-07 4.13473E-15
5.83057E-07 3.70069E-15
6.16850E-07 3.32185E-15
6.51596E-07 2.99133E-15
6.87293E-07 2.69935E-15
7.23942E-07 2.44159E-15
7.61543E-07 2.21442E-15
1.18991E-06 9.28510E-16
1.71347E-06 4.54072E-16
2.33223E-06 2.47727E-16
3.04617E-06 1.46504E-16
3.85531E-06 9.21431E-17
4.75964E-06 6.08286E-17
5.75916E-06 4.17583E-17
6.85388E-06 2.96076E-17
8.04378E-06 2.15696E-17
9.32888E-06 1.60813E-17
1.07092E-05 1.22311E-17
1.21846E-05 9.46601E-18
1.37553E-05 7.43917E-18
1.54212E-05 5.92634E-18
1.71822E-05 4.77883E-18
1.90385E-05 3.89523E-18
2.09899E-05 3.20756E-18
2.30365E-05 2.66489E-18
2.51783E-05 2.23198E-18
2.74153E-05 1.88327E-18
2.97475E-05 1.59994E-18
3.21749E-05 1.36788E-18
3.46974E-05 1.17641E-18
3.73152E-05 1.01732E-18
4.00281E-05 8.84259E-19
4.28362E-05 7.72257E-19
4.57395E-05 6.77426E-19
4.87380E-05 5.96690E-19
5.18317E-05 5.27606E-19
5.50205E-05 4.68219E-19
5.83045E-05 4.16946E-19
6.16838E-05 3.72499E-19
6.51582E-05 3.33820E-19
6.87277E-05 3.00037E-19
7.23925E-05 2.70421E-19
7.61524E-05 2.44388E-19
9.21439E-05 1.66879E-19
1.09658E-04 1.17784E-19
1.28695E-04 8.54833E-20
1.49255E-04 6.35247E-20
1.71338E-04 4.81833E-20
1.94942E-04 3.72022E-20
2.20070E-04 2.91767E-20
2.46720E-04 2.32018E-20
2.74892E-04 1.86796E-20
3.04586E-04 1.52067E-20
3.35803E-04 1.25039E-20
3.68542E-04 1.03752E-20
4.02802E-04 8.68040E-21
4.38585E-04 7.31756E-21
4.75889E-04 6.21172E-21
5.14715E-04 5.30683E-21
5.55063E-04 4.56070E-21
5.96931E-04 3.94103E-21
6.40321E-04 3.42297E-21
6.85233E-04 2.98720E-21
7.31665E-04 2.61850E-21
7.79618E-04 2.30490E-21
8.29092E-04 2.03678E-21
8.80086E-04 1.80648E-21
9.32601E-04 1.60778E-21
9.86636E-04 1.43560E-21
1.04219E-03 1.28583E-21
1.09927E-03 1.15505E-21
1.15786E-03 1.04045E-21
1.21797E-03 9.39681E-22
1.27961E-03 8.50797E-22
1.34276E-03 7.72157E-22
1.40743E-03 7.02373E-22
1.47362E-03 6.40280E-22
1.54133E-03 5.84882E-22
1.61056E-03 5.35332E-22
1.68131E-03 4.90907E-22
1.75357E-03 4.50982E-22
1.82735E-03 4.15025E-22
1.90265E-03 3.82570E-22
1.97947E-03 3.53217E-22
2.05780E-03 3.26617E-22
2.13765E-03 3.02467E-22
2.21902E-03 2.80501E-22
2.30190E-03 2.60487E-22
2.38630E-03 2.42221E-22
2.47222E-03 2.25522E-22
2.55965E-03 2.10233E-22
2.64859E-03 1.96212E-22
2.73905E-03 1.83338E-22
2.83103E-03 1.71497E-22
2.92452E-03 1.60594E-22
3.01952E-03 1.50540E-22
3.11604E-03 1.41257E-22
3.21407E-03 1.32676E-22
3.31362E-03 1.24734E-22
3.41468E-03 1.17375E-22
3.51725E-03 1.10548E-22
3.62133E-03 1.04208E-22
3.72692E-03 9.83139E-23
3.83403E-03 9.28288E-23
3.94265E-03 8.77190E-23
4.05278E-03 8.29542E-23
4.16442E-03 7.85070E-23
4.27757E-03 7.43523E-23
4.39223E-03 7.04673E-23
4.50840E-03 6.68315E-23
4.62608E-03 6.34258E-23
4.74527E-03 6.02331E-23
4.86597E-03 5.72377E-23
4.98817E-03 5.44250E-23
5.11188E-03 5.17820E-23
5.23711E-03 4.92965E-23
5.36383E-03 4.69575E-23
5.49207E-03 4.47547E-23
5.62181E-03 4.26787E-23
5.75306E-03 4.07209E-23
5.88581E-03 3.88734E-23
6.02007E-03 3.71287E-23
6.15583E-03 3.54802E-23
6.29310E-03 3.39215E-23
6.43187E-03 3.24469E-23
6.57214E-03 3.10509E-23
6.71392E-03 2.97287E-23
6.85720E-03 2.84756E-23
7.00198E-03 2.72873E-23
7.14827E-03 2.61599E-23
7.29605E-03 2.50896E-23
7.44534E-03 2.40731E-23
7.59612E-03 2.31071E-23
7.97965E-03 2.08943E-23
8.37255E-03 1.89381E-23
8.77480E-03 1.72037E-23
9.18641E-03 1.56617E-23
9.60736E-03 1.42871E-23
1.00376E-02 1.30587E-23
1.04773E-02 1.19583E-23
1.09262E-02 1.09703E-23
1.13844E-02 1.00812E-23
1.18520E-02 9.27943E-24
1.23288E-02 8.55495E-24
1.28150E-02 7.89902E-24
1.33104E-02 7.30404E-24
1.38150E-02 6.76337E-24
1.43290E-02 6.27120E-24
1.48521E-02 5.82244E-24
1.53845E-02 5.41258E-24
1.59262E-02 5.03767E-24
1.64770E-02 4.69422E-24
1.70371E-02 4.37914E-24
1.76063E-02 4.08966E-24
1.81848E-02 3.82335E-24
1.87724E-02 3.57804E-24
1.93692E-02 3.35178E-24
1.99751E-02 3.14283E-24
2.05901E-02 2.94965E-24
2.12143E-02 2.77082E-24
2.18476E-02 2.60511E-24
2.24900E-02 2.45138E-24
2.31415E-02 2.30862E-24
2.38021E-02 2.17590E-24
2.44717E-02 2.05241E-24
2.51504E-02 1.93737E-24
2.58382E-02 1.83013E-24
2.65349E-02 1.73004E-24
2.72407E-02 1.63657E-24
2.79555E-02 1.54918E-24
2.86793E-02 1.46743E-24
2.94120E-02 1.39087E-24
3.01537E-02 1.31913E-24
3.09043E-02 1.25185E-24
3.16639E-02 1.18869E-24
3.24324E-02 1.12938E-24
3.32098E-02 1.07363E-24
3.39961E-02 1.02118E-24
3.47912E-02 9.71821E-25
3.55952E-02 9.25328E-25
3.64081E-02 8.81507E-25
3.72297E-02 8.40179E-25
3.80602E-02 8.01177E-25
3.88995E-02 7.64349E-25
3.97476E-02 7.29551E-25
4.06044E-02 6.96653E-25
4.14700E-02 6.65533E-25
4.23443E-02 6.36079E-25
4.32273E-02 6.08186E-25
4.41190E-02 5.81758E-25
4.50194E-02 5.56703E-25
4.59284E-02 5.32939E-25
4.68461E-02 5.10388E-25
4.87074E-02 4.68640E-25
5.06030E-02 4.30935E-25
5.25328E-02 3.96819E-25
5.44967E-02 3.65897E-25
5.64946E-02 3.37822E-25
5.85262E-02 3.12289E-25
6.05914E-02 2.89032E-25
6.26901E-02 2.67817E-25
6.48222E-02 2.48435E-25
6.69873E-02 2.30703E-25
6.91854E-02 2.14458E-25
7.14163E-02 1.99557E-25
7.36799E-02 1.85870E-25
7.59760E-02 1.73283E-25
7.83043E-02 1.61695E-25
8.06647E-02 1.51013E-25
8.30571E-02 1.41155E-25
8.54812E-02 1.32049E-25
8.79369E-02 1.23628E-25
9.04240E-02 1.15832E-25
9.29422E-02 1.08609E-25
9.54915E-02 1.01910E-25
9.80716E-02 9.56902E-26
1.00682E-01 8.99111E-26
1.03323E-01 8.45366E-26
1.05995E-01 7.95341E-26
1.08696E-01 7.48740E-26
1.11427E-01 7.05294E-26
1.14188E-01 6.64759E-26
1.16978E-01 6.26909E-26
1.19797E-01 5.91542E-26
1.22645E-01 5.58471E-26
1.25522E-01 5.27524E-26
1.28428E-01 4.98547E-26
1.31361E-01 4.71395E-26
1.34323E-01 4.45938E-26
1.37313E-01 4.22054E-26
1.40330E-01 3.99633E-26
1.43375E-01 3.78571E-26
1.46447E-01 3.58777E-26
1.49545E-01 3.40162E-26
1.52671E-01 3.22646E-26
1.55823E-01 3.06156E-26
1.59001E-01 2.90624E-26
1.62205E-01 2.75985E-26
1.65435E-01 2.62183E-26
1.68690E-01 2.49163E-26
1.71970E-01 2.36874E-26
1.75276E-01 2.25269E-26
1.78606E-01 2.14307E-26
1.81961E-01 2.03947E-26
1.85340E-01 1.94150E-26
1.88743E-01 1.84884E-26
1.92169E-01 1.76114E-26
1.95619E-01 1.67812E-26
1.99092E-01 1.59949E-26
2.02589E-01 1.52499E-26
2.06107E-01 1.45438E-26
2.09649E-01 1.38742E-26
2.13212E-01 1.32391E-26
2.16797E-01 1.26364E-26
2.20404E-01 1.20644E-26
2.24032E-01 1.15212E-26
2.27680E-01 1.10053E-26
2.31350E-01 1.05150E-26
2.35040E-01 1.00490E-26
2.38751E-01 9.60596E-27
2.42481E-01 9.18456E-27
2.46231E-01 8.78366E-27
2.50000E-01 8.40213E-27
2.53788E-01 8.03893E-27
2.57595E-01 7.69308E-27
2.61421E-01 7.36367E-27
2.65264E-01 7.04981E-27
2.69126E-01 6.75070E-27
2.73005E-01 6.46556E-27
2.76901E-01 6.19368E-27
2.80814E-01 5.93437E-27
2.84744E-01 5.68698E-27
2.88691E-01 5.45091E-27
2.92653E-01 5.22559E-27
2.96632E-01 5.01047E-27
3.00625E-01 4.80505E-27
3.04634E-01 4.60884E-27
3.08658E-01 4.42139E-27
3.12697E-01 4.24227E-27
3.16749E-01 4.07106E-27
3.20816E-01 3.90739E-27
3.24896E-01 3.75089E-27
3.28990E-01 3.60121E-27
3.33097E-01 3.45804E-27
3.37216E-01 3.32105E-27
3.41348E-01 3.18995E-27
3.45492E-01 3.06448E-27
3.49647E-01 2.94435E-27
3.53814E-01 2.82933E-27
3.57992E-01 2.71918E-27
3.62181E-01 2.61367E-27
3.66381E-01 2.51259E-27
3.70590E-01 2.41573E-27
3.74810E-01 2.32290E-27
3.79039E-01 2.23393E-27
3.83277E-01 2.14863E-27
3.87524E-01 2.06684E-27
3.91780E-01 1.98840E-27
3.96044E-01 1.91317E-27
4.00316E-01 1.84100E-27
4.04596E-01 1.77175E-27
4.08882E-01 1.70531E-27
4.13176E-01 1.64153E-27
4.17476E-01 1.58032E-27
4.21783E-01 1.52155E-27
4.26095E-01 1.46513E-27
4.30413E-01 1.41094E-27
4.34737E-01 1.35890E-27
4.39065E-01 1.30891E-27
4.43398E-01 1.26089E-27
4.47736E-01 1.21475E-27
4.52077E-01 1.17041E-27
4.56422E-01 1.12779E-27
4.60770E-01 1.08683E-27
4.65122E-01 1.04746E-27
4.69476E-01 1.00960E-27
4.73832E-01 9.73196E-28
4.78190E-01 9.38189E-28
4.82550E-01 9.04520E-28
4.86912E-01 8.72134E-28
4.91274E-01 8.40978E-28
4.95637E-01 8.11003E-28
5.00000E-01 7.82159E-28
5.04363E-01 7.54402E-28
5.08726E-01 7.27688E-28
5.13088E-01 7.01974E-28
5.17450E-01 6.77220E-28
5.21810E-01 6.53388E-28
5.26168E-01 6.30441E-28
5.30524E-01 6.08345E-28
5.34878E-01 5.87064E-28
5.39230E-01 5.66568E-28
5.43578E-01 5.46825E-28
5.47923E-01 5.27806E-28
5.52264E-01 5.09482E-28
5.56602E-01 4.91826E-28
5.60935E-01 4.74813E-28
5.65263E-01 4.58417E-28
5.69587E-01 4.42614E-28
5.73905E-01 4.27382E-28
5.78217E-01 4.12698E-28
5.82524E-01 3.98542E-28
5.86824E-01 3.84894E-28
5.91118E-01 3.71733E-28
5.95404E-01 3.59042E-28
5.99684E-01 3.46802E-28
6.03956E-01 3.34998E-28
6.08220E-01 3.23611E-28
6.12476E-01 3.12627E-28
6.16723E-01 3.02030E-28
6.20961E-01 2.91806E-28
6.25190E-01 2.81941E-28
6.29410E-01 2.72421E-28
6.33619E-01 2.63234E-28
6.37819E-01 2.54368E-28
6.42008E-01 2.45810E-28
6.46186E-01 2.37550E-28
6.50353E-01 2.29575E-28
6.54508E-01 2.21876E-28
6.58652E-01 2.14443E-28
6.62784E-01 2.07266E-28
6.66903E-01 2.00336E-28
6.71010E-01 1.93643E-28
6.75104E-01 1.87179E-28
6.79184E-01 1.80936E-28
6.83251E-01 1.74906E-28
6.87303E-01 1.69081E-28
6.91342E-01 1.63454E-28
6.95366E-01 1.58017E-28
6.99375E-01 1.52764E-28
7.03368E-01 1.47689E-28
7.07347E-01 1.42784E-28
7.11309E-01 1.38045E-28
7.15256E-01 1.33464E-28
7.19186E-01 1.29037E-28
7.23099E-01 1.24758E-28
7.26995E-01 1.20622E-28
7.30874E-01 1.16624E-28
7.34736E-01 1.12758E-28
7.38579E-01 1.09021E-28
7.42405E-01 1.05408E-28
7.46212E-01 1.01914E-28
7.50000E-01 9.85359E-29
7.53769E-01 9.52688E-29
7.57519E-01 9.21093E-29
7.61249E-01 8.90536E-29
7.64960E-01 8.60981E-29
7.68650E-01 8.32394E-29
7.72320E-01 8.04741E-29
7.75968E-01 7.77991E-29
7.79596E-01 7.52112E-29
7.83203E-01 7.27076E-29
7.86788E-01 7.02852E-29
7.90351E-01 6.79414E-29
7.93893E-01 6.56735E-29
7.97411E-01 6.34790E-29
8.00908E-01 6.13553E-29
8.04381E-01 5.93000E-29
8.07831E-01 5.73109E-29
8.11257E-01 5.53858E-29
8.14660E-01 5.35224E-29
8.18039E-01 5.17188E-29
8.21394E-01 4.99729E-29
8.24724E-01 4.82829E-29
8.28030E-01 4.66468E-29
8.31310E-01 4.50629E-29
8.34565E-01 4.35295E-29
8.37795E-01 4.20448E-29
8.40999E-01 4.06073E-29
8.44177E-01 3.92155E-29
8.47329E-01 3.78678E-29
8.50455E-01 3.65627E-29
8.53553E-01 3.52990E-29
8.56625E-01 3.40752E-29
8.59670E-01 3.28901E-29
8.62687E-01 3.17424E-29
8.65677E-01 3.06308E-29
8.68639E-01 2.95543E-29
8.71572E-01 2.85117E-29
8.74478E-01 2.75018E-29
8.77355E-01 2.65238E-29
8.80203E-01 2.55764E-29
8.83022E-01 2.46589E-29
8.85812E-01 2.37701E-29
8.88573E-01 2.29092E-29
8.91304E-01 2.20754E-29
8.94005E-01 2.12677E-29
8.96677E-01 2.04854E-29
8.99318E-01 1.97276E-29
9.01928E-01 1.89935E-29
9.04508E-01 1.82825E-29
9.07058E-01 1.75939E-29
9.09576E-01 1.69268E-29
9.12063E-01 1.62807E-29
9.14519E-01 1.56550E-29
9.16943E-01 1.50489E-29
9.19335E-01 1.44619E-29
9.21696E-01 1.38934E-29
9.24024E-01 1.33428E-29
9.26320E-01 1.28097E-29
9.28584E-01 1.22934E-29
9.30815E-01 1.17935E-29
9.33013E-01 1.13095E-29
9.35178E-01 1.08409E-29
9.37310E-01 1.03873E-29
9.39409E-01 9.94813E-30
9.41474E-01 9.52309E-30
9.43505E-01 9.11174E-30
9.45503E-01 8.71366E-30
9.47467E-01 8.32849E-30
9.49397E-01 7.95585E-30
9.51293E-01 7.59538E-30
9.53154E-01 7.24675E-30
9.54981E-01 6.90962E-30
9.56773E-01 6.58367E-30
9.58530E-01 6.26859E-30
9.60252E-01 5.96409E-30
9.61940E-01 5.66987E-30
9.63592E-01 5.38566E-30
9.65209E-01 5.11120E-30
9.66790E-01 4.84621E-30
9.68336E-01 4.59047E-30
9.69846E-01 4.34373E-30
9.71321E-01 4.10575E-30
9.72759E-01 3.87632E-30
9.74162E-01 3.65523E-30
9.75528E-01 3.44226E-30
9.76858E-01 3.23723E-30
9.78152E-01 3.03994E-30
9.79410E-01 2.85021E-30
9.80631E-01 2.66787E-30
9.81815E-01 2.49275E-30
9.82963E-01 2.32468E-30
9.84074E-01 2.16352E-30
9.85148E-01 2.00912E-30
9.86185E-01 1.86133E-30
9.87185E-01 1.72003E-30
9.88148E-01 1.58507E-30
9.89074E-01 1.45635E-30
9.89962E-01 1.33374E-30
9.90814E-01 1.21713E-30
9.91627E-01 1.10642E-30
9.92404E-01 1.00150E-30
9.93143E-01 9.02286E-31
9.93844E-01 8.08682E-31
9.94508E-01 7.20604E-31
9.95134E-01 6.37974E-31
9.95722E-01 5.60718E-31
9.96273E-01 4.88764E-31
9.96786E-01 4.22050E-31
9.97261E-01 3.60514E-31
9.97698E-01 3.04103E-31
9.98097E-01 2.52764E-31
9.98459E-01 2.06453E-31
9.98782E-01 1.65126E-31
9.99067E-01 1.28749E-31
9.99315E-01 9.72868E-32
9.99524E-01 7.07129E-32
9.99695E-01 4.90029E-32
9.99829E-01 3.21375E-32
9.99924E-01 2.01014E-32
9.99981E-01 1.28842E-32
1.00000E+00 1.04791E-32
