 #
 # Subroutine ELSEPA. Elastic scattering of electrons and positrons
 #                    by neutral atoms and positive ions
 #
 # Projectile: positron
 # Kinetic energy = 2.00000E+08 eV = 7.34987E+06 a.u.
 #
 # WARNING: High-energy factorization with free-atom DF screening.
 #          Absorption, polarization and exchange corrections are
 #          switched off.
 #          Phase shifts are calculated for the bare nucleus.
 #          Scattering amplitudes are not evaluated.
 #
 # Element: Rb,  Z =  37,  atomic weight = 8.54678E+01 g/mol
 #
 # Nuclear model: Fermi distribution
 #                Average radius = 4.71322E-13 cm
 #                Skin thickness = 5.46000E-14 cm
 #
 # Number of electrons = 37
 #
 # Total elastic cross section = 3.32707E-18 cm**2 = 1.18812E-01 a0**2
 # 1st transport cross section = 6.78877E-26 cm**2 = 2.42431E-09 a0**2
 # 2nd transport cross section = 2.03108E-25 cm**2 = 7.25311E-09 a0**2
 #
 #
 # Differential cross section:                       MU=(1-COS(THETA))/2
 #
 #  THETA        MU          DCS          DCS        Sherman      error
 #  (deg)                 (cm**2/sr)   (a0**2/sr)    function
 #----------------------------------------------------------------------
0.00000E+00 2.10521E-09
7.61557E-13 2.04706E-09
1.18994E-12 2.01555E-09
1.71346E-12 1.97815E-09
2.33225E-12 1.93546E-09
3.04617E-12 1.88814E-09
3.85530E-12 1.83687E-09
4.75964E-12 1.78239E-09
5.75917E-12 1.72547E-09
6.85391E-12 1.66769E-09
8.04379E-12 1.60748E-09
9.32893E-12 1.54655E-09
1.07092E-11 1.48682E-09
1.21847E-11 1.42605E-09
1.37554E-11 1.36711E-09
1.54213E-11 1.30964E-09
1.71823E-11 1.25216E-09
1.90386E-11 1.19851E-09
2.09900E-11 1.14595E-09
2.30367E-11 1.09445E-09
2.51785E-11 1.04721E-09
2.74156E-11 1.00081E-09
2.97478E-11 9.56662E-10
3.21752E-11 9.15643E-10
3.46979E-11 8.75651E-10
3.73157E-11 8.38542E-10
4.00286E-11 8.03503E-10
4.28368E-11 7.69522E-10
4.57402E-11 7.38621E-10
4.87388E-11 7.08945E-10
5.18325E-11 6.80549E-10
5.50215E-11 6.54558E-10
5.83057E-11 6.29482E-10
6.16850E-11 6.05849E-10
6.51595E-11 5.83791E-10
6.87293E-11 5.62555E-10
7.23943E-11 5.42724E-10
7.61544E-11 5.23915E-10
1.18991E-10 3.78926E-10
1.71347E-10 2.84209E-10
2.33223E-10 2.16974E-10
3.04617E-10 1.67373E-10
3.85531E-10 1.30188E-10
4.75965E-10 1.02153E-10
5.75917E-10 8.09305E-11
6.85389E-10 6.43472E-11
8.04380E-10 5.23322E-11
9.32891E-10 4.31518E-11
1.07092E-09 3.57337E-11
1.21847E-09 3.00751E-11
1.37554E-09 2.54956E-11
1.54213E-09 2.17840E-11
1.71823E-09 1.88374E-11
1.90386E-09 1.63145E-11
2.09900E-09 1.42467E-11
2.30367E-09 1.25409E-11
2.51785E-09 1.10262E-11
2.74156E-09 9.77013E-12
2.97478E-09 8.68698E-12
3.21752E-09 7.72611E-12
3.46978E-09 6.91426E-12
3.73156E-09 6.18822E-12
4.00286E-09 5.54996E-12
4.28368E-09 5.00267E-12
4.57402E-09 4.50006E-12
4.87388E-09 4.06266E-12
5.18326E-09 3.67946E-12
5.50215E-09 3.32840E-12
5.83057E-09 3.02188E-12
6.16850E-09 2.74764E-12
6.51596E-09 2.49966E-12
6.87293E-09 2.28108E-12
7.23942E-09 2.08267E-12
7.61544E-09 1.90466E-12
1.18991E-08 8.49356E-13
1.71347E-08 4.33208E-13
2.33223E-08 2.45432E-13
3.04617E-08 1.50165E-13
3.85531E-08 9.71940E-14
4.75965E-08 6.56700E-14
5.75917E-08 4.58918E-14
6.85389E-08 3.29857E-14
8.04380E-08 2.42762E-14
9.32891E-08 1.82411E-14
1.07092E-07 1.39599E-14
1.21847E-07 1.08582E-14
1.37554E-07 8.56920E-15
1.54213E-07 6.85161E-15
1.71823E-07 5.54314E-15
1.90386E-07 4.53262E-15
2.09900E-07 3.74242E-15
2.30367E-07 3.11734E-15
2.51785E-07 2.61772E-15
2.74156E-07 2.21443E-15
2.97478E-07 1.88605E-15
3.21752E-07 1.61648E-15
3.46978E-07 1.39348E-15
3.73156E-07 1.20772E-15
4.00286E-07 1.05196E-15
4.28368E-07 9.20556E-16
4.57402E-07 8.09072E-16
4.87388E-07 7.13984E-16
5.18325E-07 6.32476E-16
5.50215E-07 5.62283E-16
5.83057E-07 5.01565E-16
6.16850E-07 4.48826E-16
6.51596E-07 4.02840E-16
6.87293E-07 3.62596E-16
7.23942E-07 3.27254E-16
7.61543E-07 2.96113E-16
1.18991E-06 1.22451E-16
1.71347E-06 5.93809E-17
2.33223E-06 3.21587E-17
3.04617E-06 1.88896E-17
3.85531E-06 1.18081E-17
4.75964E-06 7.75389E-18
5.75916E-06 5.29898E-18
6.85388E-06 3.74283E-18
8.04378E-06 2.71804E-18
9.32888E-06 2.02108E-18
1.07092E-05 1.53379E-18
1.21846E-05 1.18486E-18
1.37553E-05 9.29724E-19
1.54212E-05 7.39689E-19
1.71822E-05 5.95806E-19
1.90385E-05 4.85188E-19
2.09899E-05 3.99213E-19
2.30365E-05 3.31444E-19
2.51783E-05 2.77436E-19
2.74153E-05 2.33972E-19
2.97475E-05 1.98682E-19
3.21749E-05 1.69799E-19
3.46974E-05 1.45982E-19
3.73152E-05 1.26202E-19
4.00281E-05 1.09666E-19
4.28362E-05 9.57525E-20
4.57395E-05 8.39766E-20
4.87380E-05 7.39542E-20
5.18317E-05 6.53809E-20
5.50205E-05 5.80128E-20
5.83045E-05 5.16529E-20
6.16838E-05 4.61408E-20
6.51582E-05 4.13451E-20
6.87277E-05 3.71570E-20
7.23925E-05 3.34863E-20
7.61524E-05 3.02662E-20
9.21439E-05 2.06605E-20
1.09658E-04 1.45786E-20
1.28695E-04 1.05782E-20
1.49255E-04 7.85926E-21
1.71338E-04 5.95998E-21
1.94942E-04 4.60071E-21
2.20070E-04 3.60741E-21
2.46720E-04 2.86802E-21
2.74892E-04 2.30844E-21
3.04586E-04 1.87876E-21
3.35803E-04 1.54438E-21
3.68542E-04 1.28107E-21
4.02802E-04 1.07145E-21
4.38585E-04 9.02903E-22
4.75889E-04 7.66163E-22
5.14715E-04 6.54286E-22
5.55063E-04 5.62051E-22
5.96931E-04 4.85461E-22
6.40321E-04 4.21442E-22
6.85233E-04 3.67600E-22
7.31665E-04 3.22056E-22
7.79618E-04 2.83324E-22
8.29092E-04 2.50218E-22
8.80086E-04 2.21788E-22
9.32601E-04 1.97263E-22
9.86636E-04 1.76019E-22
1.04219E-03 1.57544E-22
1.09927E-03 1.41416E-22
1.15786E-03 1.27287E-22
1.21797E-03 1.14868E-22
1.27961E-03 1.03917E-22
1.34276E-03 9.42315E-23
1.40743E-03 8.56397E-23
1.47362E-03 7.79974E-23
1.54133E-03 7.11818E-23
1.61056E-03 6.50881E-23
1.68131E-03 5.96269E-23
1.75357E-03 5.47210E-23
1.82735E-03 5.03045E-23
1.90265E-03 4.63201E-23
1.97947E-03 4.27182E-23
2.05780E-03 3.94557E-23
2.13765E-03 3.64951E-23
2.21902E-03 3.38037E-23
2.30190E-03 3.13528E-23
2.38630E-03 2.91171E-23
2.47222E-03 2.70744E-23
2.55965E-03 2.52052E-23
2.64859E-03 2.34922E-23
2.73905E-03 2.19201E-23
2.83103E-03 2.04753E-23
2.92452E-03 1.91456E-23
3.01952E-03 1.79204E-23
3.11604E-03 1.67899E-23
3.21407E-03 1.57455E-23
3.31362E-03 1.47797E-23
3.41468E-03 1.38853E-23
3.51725E-03 1.30563E-23
3.62133E-03 1.22870E-23
3.72692E-03 1.15724E-23
3.83403E-03 1.09078E-23
3.94265E-03 1.02893E-23
4.05278E-03 9.71296E-24
4.16442E-03 9.17550E-24
4.27757E-03 8.67384E-24
4.39223E-03 8.20516E-24
4.50840E-03 7.76692E-24
4.62608E-03 7.35681E-24
4.74527E-03 6.97270E-24
4.86597E-03 6.61266E-24
4.98817E-03 6.27493E-24
5.11188E-03 5.95788E-24
5.23711E-03 5.66002E-24
5.36383E-03 5.38000E-24
5.49207E-03 5.11656E-24
5.62181E-03 4.86856E-24
5.75306E-03 4.63492E-24
5.88581E-03 4.41469E-24
6.02007E-03 4.20695E-24
6.15583E-03 4.01087E-24
6.29310E-03 3.82570E-24
6.43187E-03 3.65071E-24
6.57214E-03 3.48526E-24
6.71392E-03 3.32874E-24
6.85720E-03 3.18058E-24
7.00198E-03 3.04026E-24
7.14827E-03 2.90729E-24
7.29605E-03 2.78123E-24
7.44534E-03 2.66165E-24
7.59612E-03 2.54817E-24
7.97965E-03 2.28882E-24
8.37255E-03 2.06033E-24
8.77480E-03 1.85847E-24
9.18641E-03 1.67967E-24
9.60736E-03 1.52089E-24
1.00376E-02 1.37956E-24
1.04773E-02 1.25346E-24
1.09262E-02 1.14072E-24
1.13844E-02 1.03970E-24
1.18520E-02 9.49014E-25
1.23288E-02 8.67440E-25
1.28150E-02 7.93932E-25
1.33104E-02 7.27576E-25
1.38150E-02 6.67577E-25
1.43290E-02 6.13237E-25
1.48521E-02 5.63947E-25
1.53845E-02 5.19172E-25
1.59262E-02 4.78440E-25
1.64770E-02 4.41335E-25
1.70371E-02 4.07490E-25
1.76063E-02 3.76579E-25
1.81848E-02 3.48314E-25
1.87724E-02 3.22438E-25
1.93692E-02 2.98722E-25
1.99751E-02 2.76962E-25
2.05901E-02 2.56976E-25
2.12143E-02 2.38601E-25
2.18476E-02 2.21690E-25
2.24900E-02 2.06112E-25
2.31415E-02 1.91748E-25
2.38021E-02 1.78494E-25
2.44717E-02 1.66252E-25
2.51504E-02 1.54936E-25
2.58382E-02 1.44468E-25
2.65349E-02 1.34776E-25
2.72407E-02 1.25797E-25
2.79555E-02 1.17473E-25
2.86793E-02 1.09750E-25
2.94120E-02 1.02579E-25
3.01537E-02 9.59182E-26
3.09043E-02 8.97262E-26
3.16639E-02 8.39670E-26
3.24324E-02 7.86071E-26
3.32098E-02 7.36160E-26
3.39961E-02 6.89658E-26
3.47912E-02 6.46311E-26
3.55952E-02 6.05882E-26
3.64081E-02 5.68158E-26
3.72297E-02 5.32940E-26
3.80602E-02 5.00048E-26
3.88995E-02 4.69313E-26
3.97476E-02 4.40582E-26
4.06044E-02 4.13713E-26
4.14700E-02 3.88576E-26
4.23443E-02 3.65050E-26
4.32273E-02 3.43024E-26
4.41190E-02 3.22393E-26
4.50194E-02 3.03064E-26
4.59284E-02 2.84948E-26
4.68461E-02 2.67963E-26
4.87074E-02 2.37091E-26
5.06030E-02 2.09905E-26
5.25328E-02 1.85940E-26
5.44967E-02 1.64793E-26
5.64946E-02 1.46114E-26
5.85262E-02 1.29602E-26
6.05914E-02 1.14992E-26
6.26901E-02 1.02058E-26
6.48222E-02 9.05981E-27
6.69873E-02 8.04391E-27
6.91854E-02 7.14283E-27
7.14163E-02 6.34321E-27
7.36799E-02 5.63331E-27
7.59760E-02 5.00283E-27
7.83043E-02 4.44271E-27
8.06647E-02 3.94495E-27
8.30571E-02 3.50252E-27
8.54812E-02 3.10919E-27
8.79369E-02 2.75948E-27
9.04240E-02 2.44851E-27
9.29422E-02 2.17198E-27
9.54915E-02 1.92609E-27
9.80716E-02 1.70744E-27
1.00682E-01 1.51303E-27
1.03323E-01 1.34020E-27
1.05995E-01 1.18659E-27
1.08696E-01 1.05007E-27
1.11427E-01 9.28791E-28
1.14188E-01 8.21070E-28
1.16978E-01 7.25426E-28
1.19797E-01 6.40538E-28
1.22645E-01 5.65227E-28
1.25522E-01 4.98442E-28
1.28428E-01 4.39249E-28
1.31361E-01 3.86811E-28
1.34323E-01 3.40385E-28
1.37313E-01 2.99308E-28
1.40330E-01 2.62986E-28
1.43375E-01 2.30892E-28
1.46447E-01 2.02556E-28
1.49545E-01 1.77557E-28
1.52671E-01 1.55520E-28
1.55823E-01 1.36112E-28
1.59001E-01 1.19035E-28
1.62205E-01 1.04024E-28
1.65435E-01 9.08421E-29
1.68690E-01 7.92794E-29
1.71970E-01 6.91482E-29
1.75276E-01 6.02817E-29
1.78606E-01 5.25317E-29
1.81961E-01 4.57662E-29
1.85340E-01 3.98679E-29
1.88743E-01 3.47329E-29
1.92169E-01 3.02687E-29
1.95619E-01 2.63933E-29
1.99092E-01 2.30343E-29
2.02589E-01 2.01274E-29
2.06107E-01 1.76156E-29
2.09649E-01 1.54488E-29
2.13212E-01 1.35825E-29
2.16797E-01 1.19777E-29
2.20404E-01 1.06000E-29
2.24032E-01 9.41887E-30
2.27680E-01 8.40784E-30
2.31350E-01 7.54352E-30
2.35040E-01 6.80543E-30
2.38751E-01 6.17569E-30
2.42481E-01 5.63866E-30
2.46231E-01 5.18074E-30
2.50000E-01 4.79009E-30
2.53788E-01 4.45646E-30
2.57595E-01 4.17096E-30
2.61421E-01 3.92593E-30
2.65264E-01 3.71476E-30
2.69126E-01 3.53179E-30
2.73005E-01 3.37218E-30
2.76901E-01 3.23181E-30
2.80814E-01 3.10718E-30
2.84744E-01 2.99534E-30
2.88691E-01 2.89381E-30
2.92653E-01 2.80052E-30
2.96632E-01 2.71374E-30
3.00625E-01 2.63207E-30
3.04634E-01 2.55436E-30
3.08658E-01 2.47968E-30
3.12697E-01 2.40730E-30
3.16749E-01 2.33662E-30
3.20816E-01 2.26722E-30
3.24896E-01 2.19877E-30
3.28990E-01 2.13103E-30
3.33097E-01 2.06384E-30
3.37216E-01 1.99712E-30
3.41348E-01 1.93082E-30
3.45492E-01 1.86493E-30
3.49647E-01 1.79950E-30
3.53814E-01 1.73457E-30
3.57992E-01 1.67022E-30
3.62181E-01 1.60652E-30
3.66381E-01 1.54357E-30
3.70590E-01 1.48145E-30
3.74810E-01 1.42028E-30
3.79039E-01 1.36013E-30
3.83277E-01 1.30109E-30
3.87524E-01 1.24326E-30
3.91780E-01 1.18670E-30
3.96044E-01 1.13149E-30
4.00316E-01 1.07769E-30
4.04596E-01 1.02535E-30
4.08882E-01 9.74524E-31
4.13176E-01 9.25247E-31
4.17476E-01 8.77550E-31
4.21783E-01 8.31454E-31
4.26095E-01 7.86975E-31
4.30413E-01 7.44122E-31
4.34737E-01 7.02896E-31
4.39065E-01 6.63293E-31
4.43398E-01 6.25302E-31
4.47736E-01 5.88908E-31
4.52077E-01 5.54091E-31
4.56422E-01 5.20826E-31
4.60770E-01 4.89086E-31
4.65122E-01 4.58838E-31
4.69476E-01 4.30049E-31
4.73832E-01 4.02680E-31
4.78190E-01 3.76694E-31
4.82550E-01 3.52050E-31
4.86912E-01 3.28704E-31
4.91274E-01 3.06615E-31
4.95637E-01 2.85738E-31
5.00000E-01 2.66028E-31
5.04363E-01 2.47440E-31
5.08726E-01 2.29930E-31
5.13088E-01 2.13453E-31
5.17450E-01 1.97965E-31
5.21810E-01 1.83421E-31
5.26168E-01 1.69779E-31
5.30524E-01 1.56995E-31
5.34878E-01 1.45030E-31
5.39230E-01 1.33841E-31
5.43578E-01 1.23390E-31
5.47923E-01 1.13638E-31
5.52264E-01 1.04548E-31
5.56602E-01 9.60838E-32
5.60935E-01 8.82108E-32
5.65263E-01 8.08957E-32
5.69587E-01 7.41060E-32
5.73905E-01 6.78110E-32
5.78217E-01 6.19811E-32
5.82524E-01 5.65879E-32
5.86824E-01 5.16044E-32
5.91118E-01 4.70048E-32
5.95404E-01 4.27644E-32
5.99684E-01 3.88599E-32
6.03956E-01 3.52691E-32
6.08220E-01 3.19709E-32
6.12476E-01 2.89454E-32
6.16723E-01 2.61737E-32
6.20961E-01 2.36380E-32
6.25190E-01 2.13213E-32
6.29410E-01 1.92079E-32
6.33619E-01 1.72829E-32
6.37819E-01 1.55321E-32
6.42008E-01 1.39423E-32
6.46186E-01 1.25013E-32
6.50353E-01 1.11974E-32
6.54508E-01 1.00197E-32
6.58652E-01 8.95809E-33
6.62784E-01 8.00312E-33
6.66903E-01 7.14592E-33
6.71010E-01 6.37826E-33
6.75104E-01 5.69248E-33
6.79184E-01 5.08143E-33
6.83251E-01 4.53851E-33
6.87303E-01 4.05757E-33
6.91342E-01 3.63293E-33
6.95366E-01 3.25934E-33
6.99375E-01 2.93192E-33
7.03368E-01 2.64620E-33
7.07347E-01 2.39804E-33
7.11309E-01 2.18364E-33
7.15256E-01 1.99949E-33
7.19186E-01 1.84239E-33
7.23099E-01 1.70939E-33
7.26995E-01 1.59781E-33
7.30874E-01 1.50518E-33
7.34736E-01 1.42925E-33
7.38579E-01 1.36799E-33
7.42405E-01 1.31953E-33
7.46212E-01 1.28220E-33
7.50000E-01 1.25446E-33
7.53769E-01 1.23495E-33
7.57519E-01 1.22240E-33
7.61249E-01 1.21572E-33
7.64960E-01 1.21390E-33
7.68650E-01 1.21604E-33
7.72320E-01 1.22135E-33
7.75968E-01 1.22911E-33
7.79596E-01 1.23871E-33
7.83203E-01 1.24959E-33
7.86788E-01 1.26126E-33
7.90351E-01 1.27331E-33
7.93893E-01 1.28537E-33
7.97411E-01 1.29711E-33
8.00908E-01 1.30829E-33
8.04381E-01 1.31867E-33
8.07831E-01 1.32805E-33
8.11257E-01 1.33630E-33
8.14660E-01 1.34328E-33
8.18039E-01 1.34889E-33
8.21394E-01 1.35306E-33
8.24724E-01 1.35575E-33
8.28030E-01 1.35691E-33
8.31310E-01 1.35654E-33
8.34565E-01 1.35463E-33
8.37795E-01 1.35119E-33
8.40999E-01 1.34624E-33
8.44177E-01 1.33983E-33
8.47329E-01 1.33198E-33
8.50455E-01 1.32274E-33
8.53553E-01 1.31216E-33
8.56625E-01 1.30032E-33
8.59670E-01 1.28725E-33
8.62687E-01 1.27303E-33
8.65677E-01 1.25772E-33
8.68639E-01 1.24139E-33
8.71572E-01 1.22411E-33
8.74478E-01 1.20594E-33
8.77355E-01 1.18696E-33
8.80203E-01 1.16721E-33
8.83022E-01 1.14679E-33
8.85812E-01 1.12574E-33
8.88573E-01 1.10415E-33
8.91304E-01 1.08205E-33
8.94005E-01 1.05952E-33
8.96677E-01 1.03661E-33
8.99318E-01 1.01339E-33
9.01928E-01 9.89894E-34
9.04508E-01 9.66187E-34
9.07058E-01 9.42316E-34
9.09576E-01 9.18327E-34
9.12063E-01 8.94266E-34
9.14519E-01 8.70171E-34
9.16943E-01 8.46092E-34
9.19335E-01 8.22054E-34
9.21696E-01 7.98101E-34
9.24024E-01 7.74267E-34
9.26320E-01 7.50579E-34
9.28584E-01 7.27066E-34
9.30815E-01 7.03764E-34
9.33013E-01 6.80685E-34
9.35178E-01 6.57867E-34
9.37310E-01 6.35321E-34
9.39409E-01 6.13068E-34
9.41474E-01 5.91128E-34
9.43505E-01 5.69519E-34
9.45503E-01 5.48254E-34
9.47467E-01 5.27350E-34
9.49397E-01 5.06813E-34
9.51293E-01 4.86657E-34
9.53154E-01 4.66892E-34
9.54981E-01 4.47526E-34
9.56773E-01 4.28567E-34
9.58530E-01 4.10022E-34
9.60252E-01 3.91894E-34
9.61940E-01 3.74192E-34
9.63592E-01 3.56910E-34
9.65209E-01 3.40063E-34
9.66790E-01 3.23642E-34
9.68336E-01 3.07658E-34
9.69846E-01 2.92107E-34
9.71321E-01 2.76988E-34
9.72759E-01 2.62304E-34
9.74162E-01 2.48049E-34
9.75528E-01 2.34228E-34
9.76858E-01 2.20838E-34
9.78152E-01 2.07876E-34
9.79410E-01 1.95338E-34
9.80631E-01 1.83224E-34
9.81815E-01 1.71530E-34
9.82963E-01 1.60254E-34
9.84074E-01 1.49393E-34
9.85148E-01 1.38941E-34
9.86185E-01 1.28900E-34
9.87185E-01 1.19260E-34
9.88148E-01 1.10020E-34
9.89074E-01 1.01183E-34
9.89962E-01 9.27360E-35
9.90814E-01 8.46819E-35
9.91627E-01 7.70106E-35
9.92404E-01 6.97239E-35
9.93143E-01 6.28178E-35
9.93844E-01 5.62876E-35
9.94508E-01 5.01297E-35
9.95134E-01 4.43434E-35
9.95722E-01 3.89244E-35
9.96273E-01 3.38681E-35
9.96786E-01 2.91735E-35
9.97261E-01 2.48376E-35
9.97698E-01 2.08604E-35
9.98097E-01 1.72323E-35
9.98459E-01 1.39599E-35
9.98782E-01 1.10354E-35
9.99067E-01 8.46048E-36
9.99315E-01 6.23061E-36
9.99524E-01 4.34691E-36
9.99695E-01 2.80734E-36
9.99829E-01 1.61147E-36
9.99924E-01 7.56367E-37
9.99981E-01 2.44551E-37
1.00000E+00 7.35648E-38
