 #
 # Subroutine ELSEPA. Elastic scattering of electrons and positrons
 #                    by neutral atoms and positive ions
 #
 # Projectile: positron
 # Kinetic energy = 1.75000E+06 eV = 6.43113E+04 a.u.
 #
 # WARNING: High-energy factorization with free-atom DF screening.
 #          Absorption, polarization and exchange corrections are
 #          switched off.
 #          Phase shifts are calculated for the bare nucleus.
 #          Scattering amplitudes are not evaluated.
 #
 # Element: Rb,  Z =  37,  atomic weight = 8.54678E+01 g/mol
 #
 # Nuclear model: Fermi distribution
 #                Average radius = 4.71322E-13 cm
 #                Skin thickness = 5.46000E-14 cm
 #
 # Number of electrons = 37
 #
 # Total elastic cross section = 3.49989E-18 cm**2 = 1.24984E-01 a0**2
 # 1st transport cross section = 3.31887E-22 cm**2 = 1.18519E-05 a0**2
 # 2nd transport cross section = 9.44697E-22 cm**2 = 3.37357E-05 a0**2
 #
 #
 # Differential cross section:                       MU=(1-COS(THETA))/2
 #
 #  THETA        MU          DCS          DCS        Sherman      error
 #  (deg)                 (cm**2/sr)   (a0**2/sr)    function
 #----------------------------------------------------------------------
0.00000E+00 2.67682E-13
7.61557E-13 2.67681E-13
1.18994E-12 2.67680E-13
1.71346E-12 2.67680E-13
2.33225E-12 2.67679E-13
3.04617E-12 2.67678E-13
3.85530E-12 2.67677E-13
4.75964E-12 2.67676E-13
5.75917E-12 2.67674E-13
6.85391E-12 2.67673E-13
8.04379E-12 2.67672E-13
9.32893E-12 2.67670E-13
1.07092E-11 2.67668E-13
1.21847E-11 2.67666E-13
1.37554E-11 2.67665E-13
1.54213E-11 2.67662E-13
1.71823E-11 2.67660E-13
1.90386E-11 2.67658E-13
2.09900E-11 2.67656E-13
2.30367E-11 2.67653E-13
2.51785E-11 2.67651E-13
2.74156E-11 2.67648E-13
2.97478E-11 2.67645E-13
3.21752E-11 2.67642E-13
3.46979E-11 2.67639E-13
3.73157E-11 2.67636E-13
4.00286E-11 2.67632E-13
4.28368E-11 2.67629E-13
4.57402E-11 2.67625E-13
4.87388E-11 2.67622E-13
5.18325E-11 2.67618E-13
5.50215E-11 2.67614E-13
5.83057E-11 2.67610E-13
6.16850E-11 2.67606E-13
6.51595E-11 2.67602E-13
6.87293E-11 2.67598E-13
7.23943E-11 2.67593E-13
7.61544E-11 2.67589E-13
1.18991E-10 2.67537E-13
1.71347E-10 2.67474E-13
2.33223E-10 2.67399E-13
3.04617E-10 2.67313E-13
3.85531E-10 2.67216E-13
4.75965E-10 2.67107E-13
5.75917E-10 2.66987E-13
6.85389E-10 2.66856E-13
8.04380E-10 2.66714E-13
9.32891E-10 2.66560E-13
1.07092E-09 2.66396E-13
1.21847E-09 2.66220E-13
1.37554E-09 2.66033E-13
1.54213E-09 2.65835E-13
1.71823E-09 2.65626E-13
1.90386E-09 2.65406E-13
2.09900E-09 2.65175E-13
2.30367E-09 2.64933E-13
2.51785E-09 2.64681E-13
2.74156E-09 2.64417E-13
2.97478E-09 2.64143E-13
3.21752E-09 2.63859E-13
3.46978E-09 2.63563E-13
3.73156E-09 2.63257E-13
4.00286E-09 2.62941E-13
4.28368E-09 2.62614E-13
4.57402E-09 2.62277E-13
4.87388E-09 2.61930E-13
5.18326E-09 2.61572E-13
5.50215E-09 2.61205E-13
5.83057E-09 2.60827E-13
6.16850E-09 2.60439E-13
6.51596E-09 2.60042E-13
6.87293E-09 2.59635E-13
7.23942E-09 2.59217E-13
7.61544E-09 2.58791E-13
1.18991E-08 2.54013E-13
1.71347E-08 2.48376E-13
2.33223E-08 2.41986E-13
3.04617E-08 2.34959E-13
3.85531E-08 2.27414E-13
4.75965E-08 2.19478E-13
5.75917E-08 2.11395E-13
6.85389E-08 2.02944E-13
8.04380E-08 1.94504E-13
9.32891E-08 1.86106E-13
1.07092E-07 1.77605E-13
1.21847E-07 1.69593E-13
1.37554E-07 1.61560E-13
1.54213E-07 1.53887E-13
1.71823E-07 1.46533E-13
1.90386E-07 1.39311E-13
2.09900E-07 1.32715E-13
2.30367E-07 1.26251E-13
2.51785E-07 1.20213E-13
2.74156E-07 1.14528E-13
2.97478E-07 1.09039E-13
3.21752E-07 1.04076E-13
3.46978E-07 9.92716E-14
3.73156E-07 9.48187E-14
4.00286E-07 9.06472E-14
4.28368E-07 8.66543E-14
4.57402E-07 8.30249E-14
4.87388E-07 7.95358E-14
5.18325E-07 7.62929E-14
5.50215E-07 7.32468E-14
5.83057E-07 7.03410E-14
6.16850E-07 6.76621E-14
6.51596E-07 6.50960E-14
6.87293E-07 6.26895E-14
7.23942E-07 6.04150E-14
7.61543E-07 5.82457E-14
1.18991E-06 4.16629E-14
1.71347E-06 3.07437E-14
2.33223E-06 2.30298E-14
3.04617E-06 1.74299E-14
3.85531E-06 1.33311E-14
4.75964E-06 1.03150E-14
5.75916E-06 8.02405E-15
6.85388E-06 6.41304E-15
8.04378E-06 5.18643E-15
9.32888E-06 4.24087E-15
1.07092E-05 3.53101E-15
1.21846E-05 2.95030E-15
1.37553E-05 2.50256E-15
1.54212E-05 2.13714E-15
1.71822E-05 1.83777E-15
1.90385E-05 1.59655E-15
2.09899E-05 1.38635E-15
2.30365E-05 1.21503E-15
2.51783E-05 1.06705E-15
2.74153E-05 9.40006E-16
2.97475E-05 8.33399E-16
3.21749E-05 7.37196E-16
3.46974E-05 6.56215E-16
3.73152E-05 5.84681E-16
4.00281E-05 5.22031E-16
4.28362E-05 4.68146E-16
4.57395E-05 4.19290E-16
4.87380E-05 3.77181E-16
5.18317E-05 3.39627E-16
5.50205E-05 3.06374E-16
5.83045E-05 2.77258E-16
6.16838E-05 2.50918E-16
6.51582E-05 2.27821E-16
6.87277E-05 2.07121E-16
7.23925E-05 1.88653E-16
7.61524E-05 1.72258E-16
9.21439E-05 1.21598E-16
1.09658E-04 8.82290E-17
1.28695E-04 6.56074E-17
1.49255E-04 4.98561E-17
1.71338E-04 3.86394E-17
1.94942E-04 3.04531E-17
2.20070E-04 2.43541E-17
2.46720E-04 1.97242E-17
2.74892E-04 1.61499E-17
3.04586E-04 1.33554E-17
3.35803E-04 1.11402E-17
3.68542E-04 9.36553E-18
4.02802E-04 7.92909E-18
4.38585E-04 6.75481E-18
4.75889E-04 5.78807E-18
5.14715E-04 4.98313E-18
5.55063E-04 4.31667E-18
5.96931E-04 3.75536E-18
6.40321E-04 3.28108E-18
6.85233E-04 2.88034E-18
7.31665E-04 2.53608E-18
7.79618E-04 2.24255E-18
8.29092E-04 1.98950E-18
8.80086E-04 1.77081E-18
9.32601E-04 1.58160E-18
9.86636E-04 1.41621E-18
1.04219E-03 1.27213E-18
1.09927E-03 1.14568E-18
1.15786E-03 1.03448E-18
1.21797E-03 9.36531E-19
1.27961E-03 8.49688E-19
1.34276E-03 7.72768E-19
1.40743E-03 7.04287E-19
1.47362E-03 6.43212E-19
1.54133E-03 5.88648E-19
1.61056E-03 5.39685E-19
1.68131E-03 4.95746E-19
1.75357E-03 4.56163E-19
1.82735E-03 4.20452E-19
1.90265E-03 3.88183E-19
1.97947E-03 3.58927E-19
2.05780E-03 3.32395E-19
2.13765E-03 3.08257E-19
2.21902E-03 2.86273E-19
2.30190E-03 2.66222E-19
2.38630E-03 2.47883E-19
2.47222E-03 2.31106E-19
2.55965E-03 2.15719E-19
2.64859E-03 2.01592E-19
2.73905E-03 1.88606E-19
2.83103E-03 1.76641E-19
2.92452E-03 1.65616E-19
3.01952E-03 1.55434E-19
3.11604E-03 1.46022E-19
3.21407E-03 1.37314E-19
3.31362E-03 1.29240E-19
3.41468E-03 1.21754E-19
3.51725E-03 1.14799E-19
3.62133E-03 1.08334E-19
3.72692E-03 1.02318E-19
3.83403E-03 9.67102E-20
3.94265E-03 9.14835E-20
4.05278E-03 8.66025E-20
4.16442E-03 8.20425E-20
4.27757E-03 7.77791E-20
4.39223E-03 7.37865E-20
4.50840E-03 7.00479E-20
4.62608E-03 6.65411E-20
4.74527E-03 6.32508E-20
4.86597E-03 6.01615E-20
4.98817E-03 5.72566E-20
5.11188E-03 5.45257E-20
5.23711E-03 5.19541E-20
5.36383E-03 4.95321E-20
5.49207E-03 4.72495E-20
5.62181E-03 4.50956E-20
5.75306E-03 4.30634E-20
5.88581E-03 4.11432E-20
6.02007E-03 3.93287E-20
6.15583E-03 3.76131E-20
6.29310E-03 3.59889E-20
6.43187E-03 3.44517E-20
6.57214E-03 3.29948E-20
6.71392E-03 3.16140E-20
6.85720E-03 3.03046E-20
7.00198E-03 2.90614E-20
7.14827E-03 2.78815E-20
7.29605E-03 2.67603E-20
7.44534E-03 2.56946E-20
7.59612E-03 2.46814E-20
7.97965E-03 2.23571E-20
8.37255E-03 2.02988E-20
8.77480E-03 1.84707E-20
9.18641E-03 1.68428E-20
9.60736E-03 1.53895E-20
1.00376E-02 1.40886E-20
1.04773E-02 1.29216E-20
1.09262E-02 1.18723E-20
1.13844E-02 1.09267E-20
1.18520E-02 1.00729E-20
1.23288E-02 9.30035E-21
1.28150E-02 8.60001E-21
1.33104E-02 7.96395E-21
1.38150E-02 7.38525E-21
1.43290E-02 6.85784E-21
1.48521E-02 6.37637E-21
1.53845E-02 5.93614E-21
1.59262E-02 5.53300E-21
1.64770E-02 5.16328E-21
1.70371E-02 4.82372E-21
1.76063E-02 4.51143E-21
1.81848E-02 4.22383E-21
1.87724E-02 3.95863E-21
1.93692E-02 3.71376E-21
1.99751E-02 3.48741E-21
2.05901E-02 3.27791E-21
2.12143E-02 3.08379E-21
2.18476E-02 2.90373E-21
2.24900E-02 2.73652E-21
2.31415E-02 2.58108E-21
2.38021E-02 2.43645E-21
2.44717E-02 2.30172E-21
2.51504E-02 2.17610E-21
2.58382E-02 2.05888E-21
2.65349E-02 1.94937E-21
2.72407E-02 1.84700E-21
2.79555E-02 1.75120E-21
2.86793E-02 1.66148E-21
2.94120E-02 1.57739E-21
3.01537E-02 1.49850E-21
3.09043E-02 1.42445E-21
3.16639E-02 1.35487E-21
3.24324E-02 1.28946E-21
3.32098E-02 1.22791E-21
3.39961E-02 1.16996E-21
3.47912E-02 1.11535E-21
3.55952E-02 1.06387E-21
3.64081E-02 1.01530E-21
3.72297E-02 9.69439E-22
3.80602E-02 9.26118E-22
3.88995E-02 8.85168E-22
3.97476E-02 8.46435E-22
4.06044E-02 8.09778E-22
4.14700E-02 7.75065E-22
4.23443E-02 7.42175E-22
4.32273E-02 7.10994E-22
4.41190E-02 6.81418E-22
4.50194E-02 6.53349E-22
4.59284E-02 6.26695E-22
4.68461E-02 6.01374E-22
4.87074E-02 5.54417E-22
5.06030E-02 5.11911E-22
5.25328E-02 4.73363E-22
5.44967E-02 4.38339E-22
5.64946E-02 4.06461E-22
5.85262E-02 3.77400E-22
6.05914E-02 3.50863E-22
6.26901E-02 3.26592E-22
6.48222E-02 3.04362E-22
6.69873E-02 2.83970E-22
6.91854E-02 2.65238E-22
7.14163E-02 2.48007E-22
7.36799E-02 2.32138E-22
7.59760E-02 2.17501E-22
7.83043E-02 2.03987E-22
8.06647E-02 1.91493E-22
8.30571E-02 1.79929E-22
8.54812E-02 1.69214E-22
8.79369E-02 1.59274E-22
9.04240E-02 1.50044E-22
9.29422E-02 1.41464E-22
9.54915E-02 1.33480E-22
9.80716E-02 1.26043E-22
1.00682E-01 1.19110E-22
1.03323E-01 1.12641E-22
1.05995E-01 1.06598E-22
1.08696E-01 1.00949E-22
1.11427E-01 9.56635E-23
1.14188E-01 9.07142E-23
1.16978E-01 8.60759E-23
1.19797E-01 8.17255E-23
1.22645E-01 7.76421E-23
1.25522E-01 7.38063E-23
1.28428E-01 7.02006E-23
1.31361E-01 6.68086E-23
1.34323E-01 6.36156E-23
1.37313E-01 6.06076E-23
1.40330E-01 5.77722E-23
1.43375E-01 5.50977E-23
1.46447E-01 5.25733E-23
1.49545E-01 5.01891E-23
1.52671E-01 4.79360E-23
1.55823E-01 4.58054E-23
1.59001E-01 4.37896E-23
1.62205E-01 4.18812E-23
1.65435E-01 4.00736E-23
1.68690E-01 3.83604E-23
1.71970E-01 3.67359E-23
1.75276E-01 3.51946E-23
1.78606E-01 3.37316E-23
1.81961E-01 3.23421E-23
1.85340E-01 3.10219E-23
1.88743E-01 2.97668E-23
1.92169E-01 2.85731E-23
1.95619E-01 2.74372E-23
1.99092E-01 2.63558E-23
2.02589E-01 2.53259E-23
2.06107E-01 2.43446E-23
2.09649E-01 2.34092E-23
2.13212E-01 2.25171E-23
2.16797E-01 2.16660E-23
2.20404E-01 2.08537E-23
2.24032E-01 2.00781E-23
2.27680E-01 1.93372E-23
2.31350E-01 1.86293E-23
2.35040E-01 1.79525E-23
2.38751E-01 1.73054E-23
2.42481E-01 1.66863E-23
2.46231E-01 1.60938E-23
2.50000E-01 1.55266E-23
2.53788E-01 1.49834E-23
2.57595E-01 1.44630E-23
2.61421E-01 1.39644E-23
2.65264E-01 1.34863E-23
2.69126E-01 1.30279E-23
2.73005E-01 1.25881E-23
2.76901E-01 1.21661E-23
2.80814E-01 1.17611E-23
2.84744E-01 1.13722E-23
2.88691E-01 1.09987E-23
2.92653E-01 1.06399E-23
2.96632E-01 1.02950E-23
3.00625E-01 9.96348E-24
3.04634E-01 9.64471E-24
3.08658E-01 9.33811E-24
3.12697E-01 9.04313E-24
3.16749E-01 8.75925E-24
3.20816E-01 8.48599E-24
3.24896E-01 8.22287E-24
3.28990E-01 7.96946E-24
3.33097E-01 7.72533E-24
3.37216E-01 7.49009E-24
3.41348E-01 7.26335E-24
3.45492E-01 7.04476E-24
3.49647E-01 6.83397E-24
3.53814E-01 6.63065E-24
3.57992E-01 6.43449E-24
3.62181E-01 6.24520E-24
3.66381E-01 6.06250E-24
3.70590E-01 5.88611E-24
3.74810E-01 5.71578E-24
3.79039E-01 5.55127E-24
3.83277E-01 5.39234E-24
3.87524E-01 5.23878E-24
3.91780E-01 5.09036E-24
3.96044E-01 4.94688E-24
4.00316E-01 4.80817E-24
4.04596E-01 4.67402E-24
4.08882E-01 4.54426E-24
4.13176E-01 4.41873E-24
4.17476E-01 4.29726E-24
4.21783E-01 4.17970E-24
4.26095E-01 4.06590E-24
4.30413E-01 3.95573E-24
4.34737E-01 3.84904E-24
4.39065E-01 3.74570E-24
4.43398E-01 3.64561E-24
4.47736E-01 3.54862E-24
4.52077E-01 3.45464E-24
4.56422E-01 3.36355E-24
4.60770E-01 3.27525E-24
4.65122E-01 3.18964E-24
4.69476E-01 3.10662E-24
4.73832E-01 3.02611E-24
4.78190E-01 2.94801E-24
4.82550E-01 2.87224E-24
4.86912E-01 2.79871E-24
4.91274E-01 2.72736E-24
4.95637E-01 2.65810E-24
5.00000E-01 2.59087E-24
5.04363E-01 2.52559E-24
5.08726E-01 2.46220E-24
5.13088E-01 2.40064E-24
5.17450E-01 2.34083E-24
5.21810E-01 2.28274E-24
5.26168E-01 2.22629E-24
5.30524E-01 2.17144E-24
5.34878E-01 2.11813E-24
5.39230E-01 2.06631E-24
5.43578E-01 2.01593E-24
5.47923E-01 1.96695E-24
5.52264E-01 1.91932E-24
5.56602E-01 1.87300E-24
5.60935E-01 1.82794E-24
5.65263E-01 1.78411E-24
5.69587E-01 1.74147E-24
5.73905E-01 1.69998E-24
5.78217E-01 1.65960E-24
5.82524E-01 1.62030E-24
5.86824E-01 1.58205E-24
5.91118E-01 1.54481E-24
5.95404E-01 1.50855E-24
5.99684E-01 1.47325E-24
6.03956E-01 1.43887E-24
6.08220E-01 1.40539E-24
6.12476E-01 1.37278E-24
6.16723E-01 1.34100E-24
6.20961E-01 1.31005E-24
6.25190E-01 1.27989E-24
6.29410E-01 1.25050E-24
6.33619E-01 1.22186E-24
6.37819E-01 1.19395E-24
6.42008E-01 1.16674E-24
6.46186E-01 1.14021E-24
6.50353E-01 1.11435E-24
6.54508E-01 1.08913E-24
6.58652E-01 1.06454E-24
6.62784E-01 1.04056E-24
6.66903E-01 1.01718E-24
6.71010E-01 9.94363E-25
6.75104E-01 9.72110E-25
6.79184E-01 9.50400E-25
6.83251E-01 9.29219E-25
6.87303E-01 9.08551E-25
6.91342E-01 8.88383E-25
6.95366E-01 8.68700E-25
6.99375E-01 8.49491E-25
7.03368E-01 8.30741E-25
7.07347E-01 8.12438E-25
7.11309E-01 7.94571E-25
7.15256E-01 7.77128E-25
7.19186E-01 7.60097E-25
7.23099E-01 7.43467E-25
7.26995E-01 7.27228E-25
7.30874E-01 7.11370E-25
7.34736E-01 6.95882E-25
7.38579E-01 6.80755E-25
7.42405E-01 6.65979E-25
7.46212E-01 6.51546E-25
7.50000E-01 6.37446E-25
7.53769E-01 6.23672E-25
7.57519E-01 6.10214E-25
7.61249E-01 5.97064E-25
7.64960E-01 5.84216E-25
7.68650E-01 5.71661E-25
7.72320E-01 5.59392E-25
7.75968E-01 5.47401E-25
7.79596E-01 5.35682E-25
7.83203E-01 5.24229E-25
7.86788E-01 5.13034E-25
7.90351E-01 5.02091E-25
7.93893E-01 4.91395E-25
7.97411E-01 4.80939E-25
8.00908E-01 4.70717E-25
8.04381E-01 4.60723E-25
8.07831E-01 4.50953E-25
8.11257E-01 4.41401E-25
8.14660E-01 4.32062E-25
8.18039E-01 4.22930E-25
8.21394E-01 4.14001E-25
8.24724E-01 4.05271E-25
8.28030E-01 3.96734E-25
8.31310E-01 3.88386E-25
8.34565E-01 3.80223E-25
8.37795E-01 3.72240E-25
8.40999E-01 3.64434E-25
8.44177E-01 3.56800E-25
8.47329E-01 3.49335E-25
8.50455E-01 3.42034E-25
8.53553E-01 3.34895E-25
8.56625E-01 3.27913E-25
8.59670E-01 3.21085E-25
8.62687E-01 3.14408E-25
8.65677E-01 3.07878E-25
8.68639E-01 3.01493E-25
8.71572E-01 2.95248E-25
8.74478E-01 2.89142E-25
8.77355E-01 2.83171E-25
8.80203E-01 2.77332E-25
8.83022E-01 2.71623E-25
8.85812E-01 2.66041E-25
8.88573E-01 2.60583E-25
8.91304E-01 2.55246E-25
8.94005E-01 2.50029E-25
8.96677E-01 2.44929E-25
8.99318E-01 2.39943E-25
9.01928E-01 2.35069E-25
9.04508E-01 2.30304E-25
9.07058E-01 2.25648E-25
9.09576E-01 2.21097E-25
9.12063E-01 2.16650E-25
9.14519E-01 2.12305E-25
9.16943E-01 2.08059E-25
9.19335E-01 2.03911E-25
9.21696E-01 1.99859E-25
9.24024E-01 1.95900E-25
9.26320E-01 1.92035E-25
9.28584E-01 1.88260E-25
9.30815E-01 1.84574E-25
9.33013E-01 1.80976E-25
9.35178E-01 1.77463E-25
9.37310E-01 1.74035E-25
9.39409E-01 1.70690E-25
9.41474E-01 1.67427E-25
9.43505E-01 1.64243E-25
9.45503E-01 1.61139E-25
9.47467E-01 1.58112E-25
9.49397E-01 1.55161E-25
9.51293E-01 1.52286E-25
9.53154E-01 1.49484E-25
9.54981E-01 1.46754E-25
9.56773E-01 1.44097E-25
9.58530E-01 1.41509E-25
9.60252E-01 1.38991E-25
9.61940E-01 1.36542E-25
9.63592E-01 1.34159E-25
9.65209E-01 1.31843E-25
9.66790E-01 1.29593E-25
9.68336E-01 1.27407E-25
9.69846E-01 1.25285E-25
9.71321E-01 1.23225E-25
9.72759E-01 1.21227E-25
9.74162E-01 1.19291E-25
9.75528E-01 1.17415E-25
9.76858E-01 1.15598E-25
9.78152E-01 1.13841E-25
9.79410E-01 1.12142E-25
9.80631E-01 1.10500E-25
9.81815E-01 1.08915E-25
9.82963E-01 1.07387E-25
9.84074E-01 1.05914E-25
9.85148E-01 1.04496E-25
9.86185E-01 1.03133E-25
9.87185E-01 1.01824E-25
9.88148E-01 1.00568E-25
9.89074E-01 9.93659E-26
9.89962E-01 9.82159E-26
9.90814E-01 9.71180E-26
9.91627E-01 9.60719E-26
9.92404E-01 9.50770E-26
9.93143E-01 9.41331E-26
9.93844E-01 9.32397E-26
9.94508E-01 9.23965E-26
9.95134E-01 9.16032E-26
9.95722E-01 9.08595E-26
9.96273E-01 9.01650E-26
9.96786E-01 8.95196E-26
9.97261E-01 8.89230E-26
9.97698E-01 8.83750E-26
9.98097E-01 8.78753E-26
9.98459E-01 8.74238E-26
9.98782E-01 8.70202E-26
9.99067E-01 8.66645E-26
9.99315E-01 8.63565E-26
9.99524E-01 8.60961E-26
9.99695E-01 8.58832E-26
9.99829E-01 8.57176E-26
9.99924E-01 8.55994E-26
9.99981E-01 8.55285E-26
1.00000E+00 8.55049E-26
