 #
 # Subroutine ELSEPA. Elastic scattering of electrons and positrons
 #                    by neutral atoms and positive ions
 #
 # Projectile: positron
 # Kinetic energy = 2.50000E+07 eV = 9.18733E+05 a.u.
 #
 # WARNING: High-energy factorization with free-atom DF screening.
 #          Absorption, polarization and exchange corrections are
 #          switched off.
 #          Phase shifts are calculated for the bare nucleus.
 #          Scattering amplitudes are not evaluated.
 #
 # Element: Rb,  Z =  37,  atomic weight = 8.54678E+01 g/mol
 #
 # Nuclear model: Fermi distribution
 #                Average radius = 4.71322E-13 cm
 #                Skin thickness = 5.46000E-14 cm
 #
 # Number of electrons = 37
 #
 # Total elastic cross section = 3.32736E-18 cm**2 = 1.18822E-01 a0**2
 # 1st transport cross section = 3.64451E-24 cm**2 = 1.30148E-07 a0**2
 # 2nd transport cross section = 1.06204E-23 cm**2 = 3.79262E-07 a0**2
 #
 #
 # Differential cross section:                       MU=(1-COS(THETA))/2
 #
 #  THETA        MU          DCS          DCS        Sherman      error
 #  (deg)                 (cm**2/sr)   (a0**2/sr)    function
 #----------------------------------------------------------------------
0.00000E+00 3.40779E-11
7.61557E-13 3.40622E-11
1.18994E-12 3.40535E-11
1.71346E-12 3.40427E-11
2.33225E-12 3.40301E-11
3.04617E-12 3.40155E-11
3.85530E-12 3.39990E-11
4.75964E-12 3.39805E-11
5.75917E-12 3.39601E-11
6.85391E-12 3.39378E-11
8.04379E-12 3.39137E-11
9.32893E-12 3.38876E-11
1.07092E-11 3.38596E-11
1.21847E-11 3.38297E-11
1.37554E-11 3.37980E-11
1.54213E-11 3.37643E-11
1.71823E-11 3.37289E-11
1.90386E-11 3.36916E-11
2.09900E-11 3.36524E-11
2.30367E-11 3.36114E-11
2.51785E-11 3.35686E-11
2.74156E-11 3.35240E-11
2.97478E-11 3.34776E-11
3.21752E-11 3.34294E-11
3.46979E-11 3.33795E-11
3.73157E-11 3.33278E-11
4.00286E-11 3.32744E-11
4.28368E-11 3.32193E-11
4.57402E-11 3.31625E-11
4.87388E-11 3.31039E-11
5.18325E-11 3.30437E-11
5.50215E-11 3.29818E-11
5.83057E-11 3.29183E-11
6.16850E-11 3.28532E-11
6.51595E-11 3.27865E-11
6.87293E-11 3.27182E-11
7.23943E-11 3.26483E-11
7.61544E-11 3.25768E-11
1.18991E-10 3.17814E-11
1.71347E-10 3.08536E-11
2.33223E-10 2.98159E-11
3.04617E-10 2.86919E-11
3.85531E-10 2.75166E-11
4.75965E-10 2.62966E-11
5.75917E-10 2.50416E-11
6.85389E-10 2.38085E-11
8.04380E-10 2.25594E-11
9.32891E-10 2.13775E-11
1.07092E-09 2.01940E-11
1.21847E-09 1.90993E-11
1.37554E-09 1.80230E-11
1.54213E-09 1.70295E-11
1.71823E-09 1.60749E-11
1.90386E-09 1.51908E-11
2.09900E-09 1.43582E-11
2.30367E-09 1.35821E-11
2.51785E-09 1.28632E-11
2.74156E-09 1.21878E-11
2.97478E-09 1.15699E-11
3.21752E-09 1.09847E-11
3.46978E-09 1.04534E-11
3.73156E-09 9.94698E-12
4.00286E-09 9.48858E-12
4.28368E-09 9.05173E-12
4.57402E-09 8.65153E-12
4.87388E-09 8.27279E-12
5.18326E-09 7.92124E-12
5.50215E-09 7.59019E-12
5.83057E-09 7.27977E-12
6.16850E-09 6.98785E-12
6.51596E-09 6.71220E-12
6.87293E-09 6.45249E-12
7.23942E-09 6.20630E-12
7.61544E-09 5.97332E-12
1.18991E-08 4.16771E-12
1.71347E-08 2.97782E-12
2.33223E-08 2.15743E-12
3.04617E-08 1.58596E-12
3.85531E-08 1.17842E-12
4.75965E-08 8.95480E-13
5.75917E-08 6.99451E-13
6.85389E-08 5.51730E-13
8.04380E-08 4.45805E-13
9.32891E-08 3.62989E-13
1.07092E-07 3.01463E-13
1.21847E-07 2.51435E-13
1.37554E-07 2.12844E-13
1.54213E-07 1.80763E-13
1.71823E-07 1.55030E-13
1.90386E-07 1.33397E-13
2.09900E-07 1.15447E-13
2.30367E-07 1.00311E-13
2.51785E-07 8.74070E-14
2.74156E-07 7.65297E-14
2.97478E-07 6.70706E-14
3.21752E-07 5.90982E-14
3.46978E-07 5.20717E-14
3.73156E-07 4.61395E-14
4.00286E-07 4.08674E-14
4.28368E-07 3.63798E-14
4.57402E-07 3.24089E-14
4.87388E-07 2.89823E-14
5.18325E-07 2.59625E-14
5.50215E-07 2.33260E-14
5.83057E-07 2.10048E-14
6.16850E-07 1.89602E-14
6.51596E-07 1.71577E-14
6.87293E-07 1.55589E-14
7.23942E-07 1.41453E-14
7.61543E-07 1.28844E-14
1.18991E-06 5.65071E-15
1.71347E-06 2.88851E-15
2.33223E-06 1.63531E-15
3.04617E-06 9.94715E-16
3.85531E-06 6.37400E-16
4.75964E-06 4.26489E-16
5.75916E-06 2.95474E-16
6.85388E-06 2.10843E-16
8.04378E-06 1.54297E-16
9.32888E-06 1.15449E-16
1.07092E-05 8.80818E-17
1.21846E-05 6.83648E-17
1.37553E-05 5.38731E-17
1.54212E-05 4.30310E-17
1.71822E-05 3.47876E-17
1.90385E-05 2.84258E-17
2.09899E-05 2.34641E-17
2.30365E-05 1.95402E-17
2.51783E-05 1.64031E-17
2.74153E-05 1.38706E-17
2.97475E-05 1.18083E-17
3.21749E-05 1.01155E-17
3.46974E-05 8.71583E-18
3.73152E-05 7.55052E-18
4.00281E-05 6.57391E-18
4.28362E-05 5.75031E-18
4.57395E-05 5.05168E-18
4.87380E-05 4.45576E-18
5.18317E-05 3.94500E-18
5.50205E-05 3.50522E-18
5.83045E-05 3.12495E-18
6.16838E-05 2.79483E-18
6.51582E-05 2.50715E-18
6.87277E-05 2.25552E-18
7.23925E-05 2.03467E-18
7.61524E-05 1.84020E-18
9.21439E-05 1.26009E-18
1.09658E-04 8.91314E-19
1.28695E-04 6.47978E-19
1.49255E-04 4.82174E-19
1.71338E-04 3.66118E-19
1.94942E-04 2.82922E-19
2.20070E-04 2.22044E-19
2.46720E-04 1.76676E-19
2.74892E-04 1.42309E-19
3.04586E-04 1.15898E-19
3.35803E-04 9.53304E-20
3.68542E-04 7.91245E-20
4.02802E-04 6.62161E-20
4.38585E-04 5.58323E-20
4.75889E-04 4.74041E-20
5.14715E-04 4.05056E-20
5.55063E-04 3.48159E-20
5.96931E-04 3.00897E-20
6.40321E-04 2.61377E-20
6.85233E-04 2.28128E-20
7.31665E-04 1.99994E-20
7.79618E-04 1.76060E-20
8.29092E-04 1.55595E-20
8.80086E-04 1.38015E-20
9.32601E-04 1.22845E-20
9.86636E-04 1.09699E-20
1.04219E-03 9.82626E-21
1.09927E-03 8.82758E-21
1.15786E-03 7.95238E-21
1.21797E-03 7.18280E-21
1.27961E-03 6.50392E-21
1.34276E-03 5.90322E-21
1.40743E-03 5.37016E-21
1.47362E-03 4.89581E-21
1.54133E-03 4.47259E-21
1.61056E-03 4.09402E-21
1.68131E-03 3.75459E-21
1.75357E-03 3.44953E-21
1.82735E-03 3.17477E-21
1.90265E-03 2.92676E-21
1.97947E-03 2.70245E-21
2.05780E-03 2.49917E-21
2.13765E-03 2.31459E-21
2.21902E-03 2.14671E-21
2.30190E-03 1.99373E-21
2.38630E-03 1.85411E-21
2.47222E-03 1.72646E-21
2.55965E-03 1.60958E-21
2.64859E-03 1.50240E-21
2.73905E-03 1.40397E-21
2.83103E-03 1.31344E-21
2.92452E-03 1.23008E-21
3.01952E-03 1.15320E-21
3.11604E-03 1.08222E-21
3.21407E-03 1.01660E-21
3.31362E-03 9.55863E-22
3.41468E-03 8.99581E-22
3.51725E-03 8.47368E-22
3.62133E-03 7.98875E-22
3.72692E-03 7.53791E-22
3.83403E-03 7.11832E-22
3.94265E-03 6.72742E-22
4.05278E-03 6.36290E-22
4.16442E-03 6.02264E-22
4.27757E-03 5.70476E-22
4.39223E-03 5.40748E-22
4.50840E-03 5.12926E-22
4.62608E-03 4.86862E-22
4.74527E-03 4.62428E-22
4.86597E-03 4.39501E-22
4.98817E-03 4.17973E-22
5.11188E-03 3.97741E-22
5.23711E-03 3.78714E-22
5.36383E-03 3.60806E-22
5.49207E-03 3.43940E-22
5.62181E-03 3.28044E-22
5.75306E-03 3.13052E-22
5.88581E-03 2.98903E-22
6.02007E-03 2.85541E-22
6.15583E-03 2.72915E-22
6.29310E-03 2.60975E-22
6.43187E-03 2.49678E-22
6.57214E-03 2.38983E-22
6.71392E-03 2.28852E-22
6.85720E-03 2.19250E-22
7.00198E-03 2.10144E-22
7.14827E-03 2.01504E-22
7.29605E-03 1.93300E-22
7.44534E-03 1.85508E-22
7.59612E-03 1.78103E-22
7.97965E-03 1.61137E-22
8.37255E-03 1.46134E-22
8.77480E-03 1.32829E-22
9.18641E-03 1.20997E-22
9.60736E-03 1.10447E-22
1.00376E-02 1.01016E-22
1.04773E-02 9.25656E-23
1.09262E-02 8.49754E-23
1.13844E-02 7.81434E-23
1.18520E-02 7.19804E-23
1.23288E-02 6.64095E-23
1.28150E-02 6.13643E-23
1.33104E-02 5.67860E-23
1.38150E-02 5.26244E-23
1.43290E-02 4.88347E-23
1.48521E-02 4.53776E-23
1.53845E-02 4.22194E-23
1.59262E-02 3.93289E-23
1.64770E-02 3.66804E-23
1.70371E-02 3.42492E-23
1.76063E-02 3.20148E-23
1.81848E-02 2.99583E-23
1.87724E-02 2.80631E-23
1.93692E-02 2.63143E-23
1.99751E-02 2.46985E-23
2.05901E-02 2.32039E-23
2.12143E-02 2.18197E-23
2.18476E-02 2.05364E-23
2.24900E-02 1.93452E-23
2.31415E-02 1.82385E-23
2.38021E-02 1.72090E-23
2.44717E-02 1.62506E-23
2.51504E-02 1.53573E-23
2.58382E-02 1.45241E-23
2.65349E-02 1.37460E-23
2.72407E-02 1.30189E-23
2.79555E-02 1.23388E-23
2.86793E-02 1.17021E-23
2.94120E-02 1.11055E-23
3.01537E-02 1.05461E-23
3.09043E-02 1.00211E-23
3.16639E-02 9.52801E-24
3.24324E-02 9.06457E-24
3.32098E-02 8.62868E-24
3.39961E-02 8.21839E-24
3.47912E-02 7.83193E-24
3.55952E-02 7.46768E-24
3.64081E-02 7.12411E-24
3.72297E-02 6.79985E-24
3.80602E-02 6.49362E-24
3.88995E-02 6.20423E-24
3.97476E-02 5.93059E-24
4.06044E-02 5.67169E-24
4.14700E-02 5.42659E-24
4.23443E-02 5.19443E-24
4.32273E-02 4.97439E-24
4.41190E-02 4.76573E-24
4.50194E-02 4.56776E-24
4.59284E-02 4.37982E-24
4.68461E-02 4.20133E-24
4.87074E-02 3.87045E-24
5.06030E-02 3.57109E-24
5.25328E-02 3.29974E-24
5.44967E-02 3.05332E-24
5.64946E-02 2.82916E-24
5.85262E-02 2.62491E-24
6.05914E-02 2.43848E-24
6.26901E-02 2.26807E-24
6.48222E-02 2.11205E-24
6.69873E-02 1.96901E-24
6.91854E-02 1.83768E-24
7.14163E-02 1.71694E-24
7.36799E-02 1.60578E-24
7.59760E-02 1.50332E-24
7.83043E-02 1.40875E-24
8.06647E-02 1.32138E-24
8.30571E-02 1.24054E-24
8.54812E-02 1.16568E-24
8.79369E-02 1.09627E-24
9.04240E-02 1.03185E-24
9.29422E-02 9.71991E-25
9.54915E-02 9.16324E-25
9.80716E-02 8.64502E-25
1.00682E-01 8.16213E-25
1.03323E-01 7.71175E-25
1.05995E-01 7.29132E-25
1.08696E-01 6.89849E-25
1.11427E-01 6.53115E-25
1.14188E-01 6.18736E-25
1.16978E-01 5.86535E-25
1.19797E-01 5.56349E-25
1.22645E-01 5.28032E-25
1.25522E-01 5.01448E-25
1.28428E-01 4.76472E-25
1.31361E-01 4.52990E-25
1.34323E-01 4.30898E-25
1.37313E-01 4.10099E-25
1.40330E-01 3.90505E-25
1.43375E-01 3.72034E-25
1.46447E-01 3.54610E-25
1.49545E-01 3.38164E-25
1.52671E-01 3.22632E-25
1.55823E-01 3.07954E-25
1.59001E-01 2.94075E-25
1.62205E-01 2.80945E-25
1.65435E-01 2.68515E-25
1.68690E-01 2.56743E-25
1.71970E-01 2.45587E-25
1.75276E-01 2.35010E-25
1.78606E-01 2.24976E-25
1.81961E-01 2.15454E-25
1.85340E-01 2.06412E-25
1.88743E-01 1.97822E-25
1.92169E-01 1.89658E-25
1.95619E-01 1.81895E-25
1.99092E-01 1.74509E-25
2.02589E-01 1.67481E-25
2.06107E-01 1.60788E-25
2.09649E-01 1.54414E-25
2.13212E-01 1.48339E-25
2.16797E-01 1.42547E-25
2.20404E-01 1.37024E-25
2.24032E-01 1.31754E-25
2.27680E-01 1.26724E-25
2.31350E-01 1.21922E-25
2.35040E-01 1.17334E-25
2.38751E-01 1.12950E-25
2.42481E-01 1.08760E-25
2.46231E-01 1.04753E-25
2.50000E-01 1.00921E-25
2.53788E-01 9.72532E-26
2.57595E-01 9.37427E-26
2.61421E-01 9.03812E-26
2.65264E-01 8.71615E-26
2.69126E-01 8.40765E-26
2.73005E-01 8.11197E-26
2.76901E-01 7.82849E-26
2.80814E-01 7.55662E-26
2.84744E-01 7.29581E-26
2.88691E-01 7.04553E-26
2.92653E-01 6.80529E-26
2.96632E-01 6.57463E-26
3.00625E-01 6.35309E-26
3.04634E-01 6.14026E-26
3.08658E-01 5.93574E-26
3.12697E-01 5.73915E-26
3.16749E-01 5.55014E-26
3.20816E-01 5.36836E-26
3.24896E-01 5.19350E-26
3.28990E-01 5.02525E-26
3.33097E-01 4.86331E-26
3.37216E-01 4.70742E-26
3.41348E-01 4.55731E-26
3.45492E-01 4.41273E-26
3.49647E-01 4.27345E-26
3.53814E-01 4.13924E-26
3.57992E-01 4.00988E-26
3.62181E-01 3.88518E-26
3.66381E-01 3.76495E-26
3.70590E-01 3.64898E-26
3.74810E-01 3.53711E-26
3.79039E-01 3.42918E-26
3.83277E-01 3.32502E-26
3.87524E-01 3.22447E-26
3.91780E-01 3.12740E-26
3.96044E-01 3.03367E-26
4.00316E-01 2.94313E-26
4.04596E-01 2.85568E-26
4.08882E-01 2.77117E-26
4.13176E-01 2.68951E-26
4.17476E-01 2.61058E-26
4.21783E-01 2.53427E-26
4.26095E-01 2.46049E-26
4.30413E-01 2.38913E-26
4.34737E-01 2.32011E-26
4.39065E-01 2.25334E-26
4.43398E-01 2.18873E-26
4.47736E-01 2.12620E-26
4.52077E-01 2.06567E-26
4.56422E-01 2.00708E-26
4.60770E-01 1.95035E-26
4.65122E-01 1.89541E-26
4.69476E-01 1.84220E-26
4.73832E-01 1.79065E-26
4.78190E-01 1.74071E-26
4.82550E-01 1.69232E-26
4.86912E-01 1.64541E-26
4.91274E-01 1.59995E-26
4.95637E-01 1.55588E-26
5.00000E-01 1.51314E-26
5.04363E-01 1.47171E-26
5.08726E-01 1.43151E-26
5.13088E-01 1.39253E-26
5.17450E-01 1.35471E-26
5.21810E-01 1.31801E-26
5.26168E-01 1.28240E-26
5.30524E-01 1.24784E-26
5.34878E-01 1.21430E-26
5.39230E-01 1.18173E-26
5.43578E-01 1.15011E-26
5.47923E-01 1.11941E-26
5.52264E-01 1.08959E-26
5.56602E-01 1.06063E-26
5.60935E-01 1.03250E-26
5.65263E-01 1.00517E-26
5.69587E-01 9.78618E-27
5.73905E-01 9.52814E-27
5.78217E-01 9.27736E-27
5.82524E-01 9.03362E-27
5.86824E-01 8.79669E-27
5.91118E-01 8.56635E-27
5.95404E-01 8.34239E-27
5.99684E-01 8.12461E-27
6.03956E-01 7.91283E-27
6.08220E-01 7.70684E-27
6.12476E-01 7.50648E-27
6.16723E-01 7.31157E-27
6.20961E-01 7.12194E-27
6.25190E-01 6.93744E-27
6.29410E-01 6.75789E-27
6.33619E-01 6.58316E-27
6.37819E-01 6.41310E-27
6.42008E-01 6.24756E-27
6.46186E-01 6.08641E-27
6.50353E-01 5.92953E-27
6.54508E-01 5.77678E-27
6.58652E-01 5.62804E-27
6.62784E-01 5.48319E-27
6.66903E-01 5.34213E-27
6.71010E-01 5.20473E-27
6.75104E-01 5.07089E-27
6.79184E-01 4.94051E-27
6.83251E-01 4.81349E-27
6.87303E-01 4.68973E-27
6.91342E-01 4.56913E-27
6.95366E-01 4.45162E-27
6.99375E-01 4.33710E-27
7.03368E-01 4.22548E-27
7.07347E-01 4.11668E-27
7.11309E-01 4.01063E-27
7.15256E-01 3.90725E-27
7.19186E-01 3.80646E-27
7.23099E-01 3.70819E-27
7.26995E-01 3.61238E-27
7.30874E-01 3.51894E-27
7.34736E-01 3.42783E-27
7.38579E-01 3.33897E-27
7.42405E-01 3.25231E-27
7.46212E-01 3.16778E-27
7.50000E-01 3.08532E-27
7.53769E-01 3.00489E-27
7.57519E-01 2.92642E-27
7.61249E-01 2.84987E-27
7.64960E-01 2.77518E-27
7.68650E-01 2.70231E-27
7.72320E-01 2.63120E-27
7.75968E-01 2.56181E-27
7.79596E-01 2.49410E-27
7.83203E-01 2.42802E-27
7.86788E-01 2.36353E-27
7.90351E-01 2.30058E-27
7.93893E-01 2.23914E-27
7.97411E-01 2.17917E-27
8.00908E-01 2.12064E-27
8.04381E-01 2.06350E-27
8.07831E-01 2.00772E-27
8.11257E-01 1.95326E-27
8.14660E-01 1.90010E-27
8.18039E-01 1.84819E-27
8.21394E-01 1.79752E-27
8.24724E-01 1.74804E-27
8.28030E-01 1.69973E-27
8.31310E-01 1.65256E-27
8.34565E-01 1.60650E-27
8.37795E-01 1.56153E-27
8.40999E-01 1.51762E-27
8.44177E-01 1.47474E-27
8.47329E-01 1.43286E-27
8.50455E-01 1.39197E-27
8.53553E-01 1.35204E-27
8.56625E-01 1.31305E-27
8.59670E-01 1.27497E-27
8.62687E-01 1.23779E-27
8.65677E-01 1.20148E-27
8.68639E-01 1.16602E-27
8.71572E-01 1.13139E-27
8.74478E-01 1.09758E-27
8.77355E-01 1.06457E-27
8.80203E-01 1.03233E-27
8.83022E-01 1.00084E-27
8.85812E-01 9.70105E-28
8.88573E-01 9.40091E-28
8.91304E-01 9.10786E-28
8.94005E-01 8.82175E-28
8.96677E-01 8.54241E-28
8.99318E-01 8.26971E-28
9.01928E-01 8.00349E-28
9.04508E-01 7.74363E-28
9.07058E-01 7.48997E-28
9.09576E-01 7.24238E-28
9.12063E-01 7.00075E-28
9.14519E-01 6.76494E-28
9.16943E-01 6.53483E-28
9.19335E-01 6.31030E-28
9.21696E-01 6.09124E-28
9.24024E-01 5.87753E-28
9.26320E-01 5.66907E-28
9.28584E-01 5.46575E-28
9.30815E-01 5.26746E-28
9.33013E-01 5.07411E-28
9.35178E-01 4.88561E-28
9.37310E-01 4.70184E-28
9.39409E-01 4.52274E-28
9.41474E-01 4.34819E-28
9.43505E-01 4.17813E-28
9.45503E-01 4.01246E-28
9.47467E-01 3.85110E-28
9.49397E-01 3.69398E-28
9.51293E-01 3.54102E-28
9.53154E-01 3.39213E-28
9.54981E-01 3.24726E-28
9.56773E-01 3.10633E-28
9.58530E-01 2.96927E-28
9.60252E-01 2.83602E-28
9.61940E-01 2.70651E-28
9.63592E-01 2.58068E-28
9.65209E-01 2.45846E-28
9.66790E-01 2.33982E-28
9.68336E-01 2.22467E-28
9.69846E-01 2.11298E-28
9.71321E-01 2.00468E-28
9.72759E-01 1.89973E-28
9.74162E-01 1.79808E-28
9.75528E-01 1.69968E-28
9.76858E-01 1.60448E-28
9.78152E-01 1.51245E-28
9.79410E-01 1.42352E-28
9.80631E-01 1.33768E-28
9.81815E-01 1.25487E-28
9.82963E-01 1.17505E-28
9.84074E-01 1.09819E-28
9.85148E-01 1.02426E-28
9.86185E-01 9.53222E-29
9.87185E-01 8.85038E-29
9.88148E-01 8.19680E-29
9.89074E-01 7.57119E-29
9.89962E-01 6.97325E-29
9.90814E-01 6.40272E-29
9.91627E-01 5.85932E-29
9.92404E-01 5.34282E-29
9.93143E-01 4.85298E-29
9.93844E-01 4.38957E-29
9.94508E-01 3.95239E-29
9.95134E-01 3.54123E-29
9.95722E-01 3.15592E-29
9.96273E-01 2.79627E-29
9.96786E-01 2.46213E-29
9.97261E-01 2.15333E-29
9.97698E-01 1.86975E-29
9.98097E-01 1.61126E-29
9.98459E-01 1.37773E-29
9.98782E-01 1.16907E-29
9.99067E-01 9.85173E-30
9.99315E-01 8.25964E-30
9.99524E-01 6.91371E-30
9.99695E-01 5.81331E-30
9.99829E-01 4.95795E-30
9.99924E-01 4.34726E-30
9.99981E-01 3.98096E-30
1.00000E+00 3.85887E-30
