 #
 # Subroutine ELSEPA. Elastic scattering of electrons and positrons
 #                    by neutral atoms and positive ions
 #
 # Projectile: positron
 # Kinetic energy = 1.25000E+07 eV = 4.59367E+05 a.u.
 #
 # WARNING: High-energy factorization with free-atom DF screening.
 #          Absorption, polarization and exchange corrections are
 #          switched off.
 #          Phase shifts are calculated for the bare nucleus.
 #          Scattering amplitudes are not evaluated.
 #
 # Element: Rb,  Z =  37,  atomic weight = 8.54678E+01 g/mol
 #
 # Nuclear model: Fermi distribution
 #                Average radius = 4.71322E-13 cm
 #                Skin thickness = 5.46000E-14 cm
 #
 # Number of electrons = 37
 #
 # Total elastic cross section = 3.33131E-18 cm**2 = 1.18963E-01 a0**2
 # 1st transport cross section = 1.26878E-23 cm**2 = 4.53090E-07 a0**2
 # 2nd transport cross section = 3.67878E-23 cm**2 = 1.31372E-06 a0**2
 #
 #
 # Differential cross section:                       MU=(1-COS(THETA))/2
 #
 #  THETA        MU          DCS          DCS        Sherman      error
 #  (deg)                 (cm**2/sr)   (a0**2/sr)    function
 #----------------------------------------------------------------------
0.00000E+00 8.86420E-12
7.61557E-13 8.86313E-12
1.18994E-12 8.86253E-12
1.71346E-12 8.86181E-12
2.33225E-12 8.86095E-12
3.04617E-12 8.85996E-12
3.85530E-12 8.85883E-12
4.75964E-12 8.85758E-12
5.75917E-12 8.85619E-12
6.85391E-12 8.85468E-12
8.04379E-12 8.85303E-12
9.32893E-12 8.85126E-12
1.07092E-11 8.84935E-12
1.21847E-11 8.84731E-12
1.37554E-11 8.84514E-12
1.54213E-11 8.84284E-12
1.71823E-11 8.84041E-12
1.90386E-11 8.83785E-12
2.09900E-11 8.83516E-12
2.30367E-11 8.83235E-12
2.51785E-11 8.82940E-12
2.74156E-11 8.82632E-12
2.97478E-11 8.82312E-12
3.21752E-11 8.81978E-12
3.46979E-11 8.81632E-12
3.73157E-11 8.81273E-12
4.00286E-11 8.80901E-12
4.28368E-11 8.80517E-12
4.57402E-11 8.80120E-12
4.87388E-11 8.79710E-12
5.18325E-11 8.79287E-12
5.50215E-11 8.78852E-12
5.83057E-11 8.78404E-12
6.16850E-11 8.77944E-12
6.51595E-11 8.77471E-12
6.87293E-11 8.76985E-12
7.23943E-11 8.76487E-12
7.61544E-11 8.75977E-12
1.18991E-10 8.70199E-12
1.71347E-10 8.63225E-12
2.33223E-10 8.55105E-12
3.04617E-10 8.45895E-12
3.85531E-10 8.35663E-12
4.75965E-10 8.24475E-12
5.75917E-10 8.12403E-12
6.85389E-10 7.99530E-12
8.04380E-10 7.85930E-12
9.32891E-10 7.71688E-12
1.07092E-09 7.56887E-12
1.21847E-09 7.41601E-12
1.37554E-09 7.25971E-12
1.54213E-09 7.10307E-12
1.71823E-09 6.94183E-12
1.90386E-09 6.77657E-12
2.09900E-09 6.60784E-12
2.30367E-09 6.44569E-12
2.51785E-09 6.28227E-12
2.74156E-09 6.11697E-12
2.97478E-09 5.95027E-12
3.21752E-09 5.79040E-12
3.46978E-09 5.63364E-12
3.73156E-09 5.47661E-12
4.00286E-09 5.31966E-12
4.28368E-09 5.16839E-12
4.57402E-09 5.02396E-12
4.87388E-09 4.88034E-12
5.18326E-09 4.73776E-12
5.50215E-09 4.59899E-12
5.83057E-09 4.46973E-12
6.16850E-09 4.34190E-12
6.51596E-09 4.21565E-12
6.87293E-09 4.09127E-12
7.23942E-09 3.97787E-12
7.61544E-09 3.86618E-12
1.18991E-08 2.93371E-12
1.71347E-08 2.29281E-12
2.33223E-08 1.84138E-12
3.04617E-08 1.50869E-12
3.85531E-08 1.25241E-12
4.75965E-08 1.04832E-12
5.75917E-08 8.82337E-13
6.85389E-08 7.45316E-13
8.04380E-08 6.31948E-13
9.32891E-08 5.37667E-13
1.07092E-07 4.59140E-13
1.21847E-07 3.93782E-13
1.37554E-07 3.38829E-13
1.54213E-07 2.91329E-13
1.71823E-07 2.52971E-13
1.90386E-07 2.21686E-13
2.09900E-07 1.95931E-13
2.30367E-07 1.72506E-13
2.51785E-07 1.52799E-13
2.74156E-07 1.36278E-13
2.97478E-07 1.22327E-13
3.21752E-07 1.09849E-13
3.46978E-07 9.89354E-14
3.73156E-07 8.95787E-14
4.00286E-07 8.15106E-14
4.28368E-07 7.42723E-14
4.57402E-07 6.77096E-14
4.87388E-07 6.19842E-14
5.18325E-07 5.69664E-14
5.50215E-07 5.24638E-14
5.83057E-07 4.82295E-14
6.16850E-07 4.44856E-14
6.51596E-07 4.11631E-14
6.87293E-07 3.82005E-14
7.23942E-07 3.53239E-14
7.61543E-07 3.27536E-14
1.18991E-06 1.63971E-14
1.71347E-06 8.83924E-15
2.33223E-06 5.09143E-15
3.04617E-06 3.12049E-15
3.85531E-06 2.01887E-15
4.75964E-06 1.36809E-15
5.75916E-06 9.63274E-16
6.85388E-06 6.99280E-16
8.04378E-06 5.20548E-16
9.32888E-06 3.95688E-16
1.07092E-05 3.06124E-16
1.21846E-05 2.40436E-16
1.37553E-05 1.91281E-16
1.54212E-05 1.53917E-16
1.71822E-05 1.25263E-16
1.90385E-05 1.02895E-16
2.09899E-05 8.52621E-17
2.30365E-05 7.12539E-17
2.51783E-05 5.99464E-17
2.74153E-05 5.07971E-17
2.97475E-05 4.33126E-17
3.21749E-05 3.71506E-17
3.46974E-05 3.20500E-17
3.73152E-05 2.77882E-17
4.00281E-05 2.42159E-17
4.28362E-05 2.11985E-17
4.57395E-05 1.86369E-17
4.87380E-05 1.64517E-17
5.18317E-05 1.45760E-17
5.50205E-05 1.29611E-17
5.83045E-05 1.15635E-17
6.16838E-05 1.03498E-17
6.51582E-05 9.29180E-18
6.87277E-05 8.36563E-18
7.23925E-05 7.55270E-18
7.61524E-05 6.83613E-18
9.21439E-05 4.69637E-18
1.09658E-04 3.33247E-18
1.28695E-04 2.43005E-18
1.49255E-04 1.81333E-18
1.71338E-04 1.38037E-18
1.94942E-04 1.06915E-18
2.20070E-04 8.40800E-19
2.46720E-04 6.70213E-19
2.74892E-04 5.40707E-19
3.04586E-04 4.40973E-19
3.35803E-04 3.63167E-19
3.68542E-04 3.01759E-19
4.02802E-04 2.52773E-19
4.38585E-04 2.13317E-19
4.75889E-04 1.81252E-19
5.14715E-04 1.54979E-19
5.55063E-04 1.33290E-19
5.96931E-04 1.15257E-19
6.40321E-04 1.00167E-19
6.85233E-04 8.74624E-20
7.31665E-04 7.67052E-20
7.79618E-04 6.75490E-20
8.29092E-04 5.97160E-20
8.80086E-04 5.29839E-20
9.32601E-04 4.71722E-20
9.86636E-04 4.21341E-20
1.04219E-03 3.77497E-20
1.09927E-03 3.39196E-20
1.15786E-03 3.05622E-20
1.21797E-03 2.76091E-20
1.27961E-03 2.50034E-20
1.34276E-03 2.26973E-20
1.40743E-03 2.06504E-20
1.47362E-03 1.88286E-20
1.54133E-03 1.72029E-20
1.61056E-03 1.57484E-20
1.68131E-03 1.44441E-20
1.75357E-03 1.32718E-20
1.82735E-03 1.22157E-20
1.90265E-03 1.12623E-20
1.97947E-03 1.03999E-20
2.05780E-03 9.61830E-21
2.13765E-03 8.90855E-21
2.21902E-03 8.26290E-21
2.30190E-03 7.67454E-21
2.38630E-03 7.13748E-21
2.47222E-03 6.64646E-21
2.55965E-03 6.19682E-21
2.64859E-03 5.78446E-21
2.73905E-03 5.40574E-21
2.83103E-03 5.05742E-21
2.92452E-03 4.73662E-21
3.01952E-03 4.44079E-21
3.11604E-03 4.16762E-21
3.21407E-03 3.91507E-21
3.31362E-03 3.68130E-21
3.41468E-03 3.46467E-21
3.51725E-03 3.26369E-21
3.62133E-03 3.07703E-21
3.72692E-03 2.90347E-21
3.83403E-03 2.74194E-21
3.94265E-03 2.59146E-21
4.05278E-03 2.45112E-21
4.16442E-03 2.32012E-21
4.27757E-03 2.19772E-21
4.39223E-03 2.08326E-21
4.50840E-03 1.97613E-21
4.62608E-03 1.87577E-21
4.74527E-03 1.78168E-21
4.86597E-03 1.69340E-21
4.98817E-03 1.61049E-21
5.11188E-03 1.53258E-21
5.23711E-03 1.45930E-21
5.36383E-03 1.39033E-21
5.49207E-03 1.32538E-21
5.62181E-03 1.26416E-21
5.75306E-03 1.20641E-21
5.88581E-03 1.15192E-21
6.02007E-03 1.10045E-21
6.15583E-03 1.05182E-21
6.29310E-03 1.00583E-21
6.43187E-03 9.62314E-22
6.57214E-03 9.21117E-22
6.71392E-03 8.82093E-22
6.85720E-03 8.45104E-22
7.00198E-03 8.10024E-22
7.14827E-03 7.76739E-22
7.29605E-03 7.45137E-22
7.44534E-03 7.15120E-22
7.59612E-03 6.86591E-22
7.97965E-03 6.21226E-22
8.37255E-03 5.63424E-22
8.77480E-03 5.12161E-22
9.18641E-03 4.66570E-22
9.60736E-03 4.25917E-22
1.00376E-02 3.89576E-22
1.04773E-02 3.57011E-22
1.09262E-02 3.27760E-22
1.13844E-02 3.01430E-22
1.18520E-02 2.77677E-22
1.23288E-02 2.56206E-22
1.28150E-02 2.36759E-22
1.33104E-02 2.19113E-22
1.38150E-02 2.03071E-22
1.43290E-02 1.88461E-22
1.48521E-02 1.75135E-22
1.53845E-02 1.62958E-22
1.59262E-02 1.51816E-22
1.64770E-02 1.41604E-22
1.70371E-02 1.32230E-22
1.76063E-02 1.23614E-22
1.81848E-02 1.15684E-22
1.87724E-02 1.08376E-22
1.93692E-02 1.01632E-22
1.99751E-02 9.54005E-23
2.05901E-02 8.96361E-23
2.12143E-02 8.42974E-23
2.18476E-02 7.93474E-23
2.24900E-02 7.47529E-23
2.31415E-02 7.04836E-23
2.38021E-02 6.65124E-23
2.44717E-02 6.28148E-23
2.51504E-02 5.93685E-23
2.58382E-02 5.61536E-23
2.65349E-02 5.31516E-23
2.72407E-02 5.03459E-23
2.79555E-02 4.77213E-23
2.86793E-02 4.52640E-23
2.94120E-02 4.29616E-23
3.01537E-02 4.08025E-23
3.09043E-02 3.87761E-23
3.16639E-02 3.68728E-23
3.24324E-02 3.50837E-23
3.32098E-02 3.34009E-23
3.39961E-02 3.18169E-23
3.47912E-02 3.03248E-23
3.55952E-02 2.89183E-23
3.64081E-02 2.75915E-23
3.72297E-02 2.63393E-23
3.80602E-02 2.51566E-23
3.88995E-02 2.40389E-23
3.97476E-02 2.29819E-23
4.06044E-02 2.19818E-23
4.14700E-02 2.10349E-23
4.23443E-02 2.01379E-23
4.32273E-02 1.92877E-23
4.41190E-02 1.84815E-23
4.50194E-02 1.77165E-23
4.59284E-02 1.69901E-23
4.68461E-02 1.63002E-23
4.87074E-02 1.50213E-23
5.06030E-02 1.38640E-23
5.25328E-02 1.28147E-23
5.44967E-02 1.18617E-23
5.64946E-02 1.09946E-23
5.85262E-02 1.02045E-23
6.05914E-02 9.48310E-24
6.26901E-02 8.82356E-24
6.48222E-02 8.21965E-24
6.69873E-02 7.66583E-24
6.91854E-02 7.15729E-24
7.14163E-02 6.68960E-24
7.36799E-02 6.25900E-24
7.59760E-02 5.86197E-24
7.83043E-02 5.49548E-24
8.06647E-02 5.15676E-24
8.30571E-02 4.84333E-24
8.54812E-02 4.55300E-24
8.79369E-02 4.28374E-24
9.04240E-02 4.03377E-24
9.29422E-02 3.80147E-24
9.54915E-02 3.58537E-24
9.80716E-02 3.38415E-24
1.00682E-01 3.19660E-24
1.03323E-01 3.02163E-24
1.05995E-01 2.85825E-24
1.08696E-01 2.70556E-24
1.11427E-01 2.56274E-24
1.14188E-01 2.42903E-24
1.16978E-01 2.30377E-24
1.19797E-01 2.18631E-24
1.22645E-01 2.07608E-24
1.25522E-01 1.97258E-24
1.28428E-01 1.87530E-24
1.31361E-01 1.78382E-24
1.34323E-01 1.69773E-24
1.37313E-01 1.61665E-24
1.40330E-01 1.54025E-24
1.43375E-01 1.46820E-24
1.46447E-01 1.40021E-24
1.49545E-01 1.33602E-24
1.52671E-01 1.27537E-24
1.55823E-01 1.21804E-24
1.59001E-01 1.16382E-24
1.62205E-01 1.11250E-24
1.65435E-01 1.06390E-24
1.68690E-01 1.01785E-24
1.71970E-01 9.74206E-25
1.75276E-01 9.32807E-25
1.78606E-01 8.93522E-25
1.81961E-01 8.56223E-25
1.85340E-01 8.20793E-25
1.88743E-01 7.87122E-25
1.92169E-01 7.55108E-25
1.95619E-01 7.24654E-25
1.99092E-01 6.95671E-25
2.02589E-01 6.68077E-25
2.06107E-01 6.41793E-25
2.09649E-01 6.16745E-25
2.13212E-01 5.92867E-25
2.16797E-01 5.70093E-25
2.20404E-01 5.48364E-25
2.24032E-01 5.27624E-25
2.27680E-01 5.07819E-25
2.31350E-01 4.88901E-25
2.35040E-01 4.70823E-25
2.38751E-01 4.53540E-25
2.42481E-01 4.37013E-25
2.46231E-01 4.21202E-25
2.50000E-01 4.06071E-25
2.53788E-01 3.91586E-25
2.57595E-01 3.77714E-25
2.61421E-01 3.64425E-25
2.65264E-01 3.51691E-25
2.69126E-01 3.39483E-25
2.73005E-01 3.27777E-25
2.76901E-01 3.16549E-25
2.80814E-01 3.05775E-25
2.84744E-01 2.95435E-25
2.88691E-01 2.85507E-25
2.92653E-01 2.75973E-25
2.96632E-01 2.66814E-25
3.00625E-01 2.58012E-25
3.04634E-01 2.49553E-25
3.08658E-01 2.41419E-25
3.12697E-01 2.33597E-25
3.16749E-01 2.26072E-25
3.20816E-01 2.18832E-25
3.24896E-01 2.11863E-25
3.28990E-01 2.05154E-25
3.33097E-01 1.98693E-25
3.37216E-01 1.92470E-25
3.41348E-01 1.86474E-25
3.45492E-01 1.80697E-25
3.49647E-01 1.75127E-25
3.53814E-01 1.69758E-25
3.57992E-01 1.64580E-25
3.62181E-01 1.59585E-25
3.66381E-01 1.54766E-25
3.70590E-01 1.50116E-25
3.74810E-01 1.45627E-25
3.79039E-01 1.41294E-25
3.83277E-01 1.37109E-25
3.87524E-01 1.33068E-25
3.91780E-01 1.29163E-25
3.96044E-01 1.25391E-25
4.00316E-01 1.21745E-25
4.04596E-01 1.18221E-25
4.08882E-01 1.14814E-25
4.13176E-01 1.11519E-25
4.17476E-01 1.08332E-25
4.21783E-01 1.05250E-25
4.26095E-01 1.02267E-25
4.30413E-01 9.93809E-26
4.34737E-01 9.65873E-26
4.39065E-01 9.38829E-26
4.43398E-01 9.12643E-26
4.47736E-01 8.87285E-26
4.52077E-01 8.62724E-26
4.56422E-01 8.38931E-26
4.60770E-01 8.15877E-26
4.65122E-01 7.93537E-26
4.69476E-01 7.71884E-26
4.73832E-01 7.50894E-26
4.78190E-01 7.30544E-26
4.82550E-01 7.10811E-26
4.86912E-01 6.91673E-26
4.91274E-01 6.73110E-26
4.95637E-01 6.55101E-26
5.00000E-01 6.37628E-26
5.04363E-01 6.20671E-26
5.08726E-01 6.04214E-26
5.13088E-01 5.88239E-26
5.17450E-01 5.72729E-26
5.21810E-01 5.57670E-26
5.26168E-01 5.43046E-26
5.30524E-01 5.28843E-26
5.34878E-01 5.15047E-26
5.39230E-01 5.01643E-26
5.43578E-01 4.88620E-26
5.47923E-01 4.75965E-26
5.52264E-01 4.63665E-26
5.56602E-01 4.51710E-26
5.60935E-01 4.40088E-26
5.65263E-01 4.28789E-26
5.69587E-01 4.17802E-26
5.73905E-01 4.07117E-26
5.78217E-01 3.96725E-26
5.82524E-01 3.86617E-26
5.86824E-01 3.76783E-26
5.91118E-01 3.67216E-26
5.95404E-01 3.57906E-26
5.99684E-01 3.48846E-26
6.03956E-01 3.40029E-26
6.08220E-01 3.31446E-26
6.12476E-01 3.23091E-26
6.16723E-01 3.14957E-26
6.20961E-01 3.07036E-26
6.25190E-01 2.99324E-26
6.29410E-01 2.91812E-26
6.33619E-01 2.84497E-26
6.37819E-01 2.77371E-26
6.42008E-01 2.70429E-26
6.46186E-01 2.63665E-26
6.50353E-01 2.57075E-26
6.54508E-01 2.50654E-26
6.58652E-01 2.44395E-26
6.62784E-01 2.38296E-26
6.66903E-01 2.32351E-26
6.71010E-01 2.26555E-26
6.75104E-01 2.20906E-26
6.79184E-01 2.15397E-26
6.83251E-01 2.10026E-26
6.87303E-01 2.04788E-26
6.91342E-01 1.99680E-26
6.95366E-01 1.94699E-26
6.99375E-01 1.89840E-26
7.03368E-01 1.85100E-26
7.07347E-01 1.80476E-26
7.11309E-01 1.75965E-26
7.15256E-01 1.71564E-26
7.19186E-01 1.67270E-26
7.23099E-01 1.63079E-26
7.26995E-01 1.58989E-26
7.30874E-01 1.54998E-26
7.34736E-01 1.51103E-26
7.38579E-01 1.47300E-26
7.42405E-01 1.43589E-26
7.46212E-01 1.39965E-26
7.50000E-01 1.36428E-26
7.53769E-01 1.32974E-26
7.57519E-01 1.29602E-26
7.61249E-01 1.26309E-26
7.64960E-01 1.23094E-26
7.68650E-01 1.19954E-26
7.72320E-01 1.16887E-26
7.75968E-01 1.13893E-26
7.79596E-01 1.10967E-26
7.83203E-01 1.08110E-26
7.86788E-01 1.05319E-26
7.90351E-01 1.02593E-26
7.93893E-01 9.99299E-27
7.97411E-01 9.73282E-27
8.00908E-01 9.47863E-27
8.04381E-01 9.23030E-27
8.07831E-01 8.98766E-27
8.11257E-01 8.75059E-27
8.14660E-01 8.51894E-27
8.18039E-01 8.29259E-27
8.21394E-01 8.07141E-27
8.24724E-01 7.85527E-27
8.28030E-01 7.64406E-27
8.31310E-01 7.43766E-27
8.34565E-01 7.23594E-27
8.37795E-01 7.03882E-27
8.40999E-01 6.84617E-27
8.44177E-01 6.65789E-27
8.47329E-01 6.47388E-27
8.50455E-01 6.29405E-27
8.53553E-01 6.11829E-27
8.56625E-01 5.94651E-27
8.59670E-01 5.77863E-27
8.62687E-01 5.61455E-27
8.65677E-01 5.45419E-27
8.68639E-01 5.29747E-27
8.71572E-01 5.14431E-27
8.74478E-01 4.99462E-27
8.77355E-01 4.84833E-27
8.80203E-01 4.70537E-27
8.83022E-01 4.56567E-27
8.85812E-01 4.42914E-27
8.88573E-01 4.29574E-27
8.91304E-01 4.16538E-27
8.94005E-01 4.03801E-27
8.96677E-01 3.91356E-27
8.99318E-01 3.79197E-27
9.01928E-01 3.67318E-27
9.04508E-01 3.55713E-27
9.07058E-01 3.44378E-27
9.09576E-01 3.33305E-27
9.12063E-01 3.22491E-27
9.14519E-01 3.11929E-27
9.16943E-01 3.01615E-27
9.19335E-01 2.91544E-27
9.21696E-01 2.81711E-27
9.24024E-01 2.72111E-27
9.26320E-01 2.62741E-27
9.28584E-01 2.53595E-27
9.30815E-01 2.44669E-27
9.33013E-01 2.35960E-27
9.35178E-01 2.27463E-27
9.37310E-01 2.19174E-27
9.39409E-01 2.11090E-27
9.41474E-01 2.03207E-27
9.43505E-01 1.95521E-27
9.45503E-01 1.88029E-27
9.47467E-01 1.80728E-27
9.49397E-01 1.73613E-27
9.51293E-01 1.66683E-27
9.53154E-01 1.59933E-27
9.54981E-01 1.53361E-27
9.56773E-01 1.46965E-27
9.58530E-01 1.40740E-27
9.60252E-01 1.34685E-27
9.61940E-01 1.28797E-27
9.63592E-01 1.23072E-27
9.65209E-01 1.17510E-27
9.66790E-01 1.12106E-27
9.68336E-01 1.06860E-27
9.69846E-01 1.01768E-27
9.71321E-01 9.68289E-28
9.72759E-01 9.20398E-28
9.74162E-01 8.73990E-28
9.75528E-01 8.29045E-28
9.76858E-01 7.85543E-28
9.78152E-01 7.43466E-28
9.79410E-01 7.02797E-28
9.80631E-01 6.63516E-28
9.81815E-01 6.25609E-28
9.82963E-01 5.89059E-28
9.84074E-01 5.53851E-28
9.85148E-01 5.19970E-28
9.86185E-01 4.87401E-28
9.87185E-01 4.56131E-28
9.88148E-01 4.26147E-28
9.89074E-01 3.97437E-28
9.89962E-01 3.69987E-28
9.90814E-01 3.43788E-28
9.91627E-01 3.18828E-28
9.92404E-01 2.95097E-28
9.93143E-01 2.72584E-28
9.93844E-01 2.51281E-28
9.94508E-01 2.31179E-28
9.95134E-01 2.12269E-28
9.95722E-01 1.94544E-28
9.96273E-01 1.77996E-28
9.96786E-01 1.62619E-28
9.97261E-01 1.48406E-28
9.97698E-01 1.35352E-28
9.98097E-01 1.23450E-28
9.98459E-01 1.12696E-28
9.98782E-01 1.03087E-28
9.99067E-01 9.46167E-29
9.99315E-01 8.72831E-29
9.99524E-01 8.10828E-29
9.99695E-01 7.60132E-29
9.99829E-01 7.20724E-29
9.99924E-01 6.92587E-29
9.99981E-01 6.75709E-29
1.00000E+00 6.70084E-29
