 #
 # Subroutine ELSEPA. Elastic scattering of electrons and positrons
 #                    by neutral atoms and positive ions
 #
 # Projectile: positron
 # Kinetic energy = 6.00000E+06 eV = 2.20496E+05 a.u.
 #
 # WARNING: High-energy factorization with free-atom DF screening.
 #          Absorption, polarization and exchange corrections are
 #          switched off.
 #          Phase shifts are calculated for the bare nucleus.
 #          Scattering amplitudes are not evaluated.
 #
 # Element: Rb,  Z =  37,  atomic weight = 8.54678E+01 g/mol
 #
 # Nuclear model: Fermi distribution
 #                Average radius = 4.71322E-13 cm
 #                Skin thickness = 5.46000E-14 cm
 #
 # Number of electrons = 37
 #
 # Total elastic cross section = 3.34637E-18 cm**2 = 1.19501E-01 a0**2
 # 1st transport cross section = 4.53402E-23 cm**2 = 1.61913E-06 a0**2
 # 2nd transport cross section = 1.30773E-22 cm**2 = 4.66997E-06 a0**2
 #
 #
 # Differential cross section:                       MU=(1-COS(THETA))/2
 #
 #  THETA        MU          DCS          DCS        Sherman      error
 #  (deg)                 (cm**2/sr)   (a0**2/sr)    function
 #----------------------------------------------------------------------
0.00000E+00 2.21980E-12
7.61557E-13 2.21973E-12
1.18994E-12 2.21969E-12
1.71346E-12 2.21965E-12
2.33225E-12 2.21959E-12
3.04617E-12 2.21953E-12
3.85530E-12 2.21946E-12
4.75964E-12 2.21938E-12
5.75917E-12 2.21929E-12
6.85391E-12 2.21920E-12
8.04379E-12 2.21910E-12
9.32893E-12 2.21898E-12
1.07092E-11 2.21886E-12
1.21847E-11 2.21874E-12
1.37554E-11 2.21860E-12
1.54213E-11 2.21846E-12
1.71823E-11 2.21830E-12
1.90386E-11 2.21814E-12
2.09900E-11 2.21797E-12
2.30367E-11 2.21780E-12
2.51785E-11 2.21761E-12
2.74156E-11 2.21742E-12
2.97478E-11 2.21722E-12
3.21752E-11 2.21701E-12
3.46979E-11 2.21679E-12
3.73157E-11 2.21656E-12
4.00286E-11 2.21633E-12
4.28368E-11 2.21608E-12
4.57402E-11 2.21583E-12
4.87388E-11 2.21558E-12
5.18325E-11 2.21531E-12
5.50215E-11 2.21503E-12
5.83057E-11 2.21475E-12
6.16850E-11 2.21446E-12
6.51595E-11 2.21416E-12
6.87293E-11 2.21385E-12
7.23943E-11 2.21354E-12
7.61544E-11 2.21321E-12
1.18991E-10 2.20953E-12
1.71347E-10 2.20505E-12
2.33223E-10 2.19977E-12
3.04617E-10 2.19371E-12
3.85531E-10 2.18687E-12
4.75965E-10 2.17928E-12
5.75917E-10 2.17093E-12
6.85389E-10 2.16186E-12
8.04380E-10 2.15207E-12
9.32891E-10 2.14158E-12
1.07092E-09 2.13041E-12
1.21847E-09 2.11858E-12
1.37554E-09 2.10611E-12
1.54213E-09 2.09302E-12
1.71823E-09 2.07933E-12
1.90386E-09 2.06507E-12
2.09900E-09 2.05026E-12
2.30367E-09 2.03491E-12
2.51785E-09 2.01908E-12
2.74156E-09 2.00276E-12
2.97478E-09 1.98598E-12
3.21752E-09 1.96878E-12
3.46978E-09 1.95117E-12
3.73156E-09 1.93319E-12
4.00286E-09 1.91486E-12
4.28368E-09 1.89621E-12
4.57402E-09 1.87725E-12
4.87388E-09 1.85801E-12
5.18326E-09 1.83852E-12
5.50215E-09 1.81892E-12
5.83057E-09 1.79950E-12
6.16850E-09 1.77978E-12
6.51596E-09 1.75977E-12
6.87293E-09 1.73949E-12
7.23942E-09 1.71896E-12
7.61544E-09 1.69819E-12
1.18991E-08 1.49157E-12
1.71347E-08 1.29583E-12
2.33223E-08 1.12093E-12
3.04617E-08 9.69757E-13
3.85531E-08 8.42239E-13
4.75965E-08 7.36061E-13
5.75917E-08 6.48055E-13
6.85389E-08 5.75285E-13
8.04380E-08 5.14070E-13
9.32891E-08 4.62066E-13
1.07092E-07 4.17402E-13
1.21847E-07 3.78618E-13
1.37554E-07 3.44558E-13
1.54213E-07 3.14348E-13
1.71823E-07 2.87375E-13
1.90386E-07 2.63158E-13
2.09900E-07 2.41317E-13
2.30367E-07 2.21541E-13
2.51785E-07 2.03530E-13
2.74156E-07 1.87164E-13
2.97478E-07 1.72275E-13
3.21752E-07 1.58716E-13
3.46978E-07 1.46360E-13
3.73156E-07 1.35065E-13
4.00286E-07 1.24754E-13
4.28368E-07 1.15350E-13
4.57402E-07 1.06771E-13
4.87388E-07 9.89390E-14
5.18325E-07 9.17828E-14
5.50215E-07 8.51621E-14
5.83057E-07 7.88646E-14
6.16850E-07 7.32194E-14
6.51596E-07 6.81459E-14
6.87293E-07 6.35747E-14
7.23942E-07 5.94460E-14
7.61543E-07 5.57083E-14
1.18991E-06 3.07409E-14
1.71347E-06 1.86694E-14
2.33223E-06 1.21231E-14
3.04617E-06 8.23344E-15
3.85531E-06 5.76184E-15
4.75964E-06 4.12258E-15
5.75916E-06 3.00432E-15
6.85388E-06 2.22319E-15
8.04378E-06 1.67357E-15
9.32888E-06 1.28056E-15
1.07092E-05 9.95169E-16
1.21846E-05 7.84777E-16
1.37553E-05 6.27340E-16
1.54212E-05 5.07678E-16
1.71822E-05 4.15669E-16
1.90385E-05 3.43921E-16
2.09899E-05 2.87391E-16
2.30365E-05 2.42200E-16
2.51783E-05 2.05641E-16
2.74153E-05 1.75793E-16
2.97475E-05 1.51214E-16
3.21749E-05 1.30818E-16
3.46974E-05 1.13772E-16
3.73152E-05 9.94229E-17
4.00281E-05 8.72694E-17
4.28362E-05 7.69166E-17
4.57395E-05 6.80473E-17
4.87380E-05 6.04101E-17
5.18317E-05 5.38034E-17
5.50205E-05 4.80562E-17
5.83045E-05 4.30295E-17
6.16838E-05 3.86599E-17
6.51582E-05 3.48465E-17
6.87277E-05 3.14602E-17
7.23925E-05 2.84748E-17
7.61524E-05 2.58431E-17
9.21439E-05 1.78873E-17
1.09658E-04 1.27485E-17
1.28695E-04 9.32332E-18
1.49255E-04 6.97214E-18
1.71338E-04 5.31690E-18
1.94942E-04 4.12484E-18
2.20070E-04 3.24889E-18
2.46720E-04 2.59381E-18
2.74892E-04 2.09598E-18
3.04586E-04 1.71224E-18
3.35803E-04 1.41251E-18
3.68542E-04 1.17565E-18
4.02802E-04 9.86420E-19
4.38585E-04 8.33793E-19
4.75889E-04 7.09583E-19
5.14715E-04 6.07659E-19
5.55063E-04 5.23388E-19
5.96931E-04 4.53213E-19
6.40321E-04 3.94400E-19
6.85233E-04 3.44814E-19
7.31665E-04 3.02769E-19
7.79618E-04 2.66932E-19
8.29092E-04 2.36233E-19
8.80086E-04 2.09811E-19
9.32601E-04 1.86974E-19
9.86636E-04 1.67154E-19
1.04219E-03 1.49886E-19
1.09927E-03 1.34785E-19
1.15786E-03 1.21533E-19
1.21797E-03 1.09866E-19
1.27961E-03 9.95620E-20
1.34276E-03 9.04347E-20
1.40743E-03 8.23266E-20
1.47362E-03 7.51043E-20
1.54133E-03 6.86541E-20
1.61056E-03 6.28796E-20
1.68131E-03 5.76978E-20
1.75357E-03 5.30372E-20
1.82735E-03 4.88364E-20
1.90265E-03 4.50418E-20
1.97947E-03 4.16074E-20
2.05780E-03 3.84932E-20
2.13765E-03 3.56640E-20
2.21902E-03 3.30891E-20
2.30190E-03 3.07416E-20
2.38630E-03 2.85979E-20
2.47222E-03 2.66372E-20
2.55965E-03 2.48411E-20
2.64859E-03 2.31934E-20
2.73905E-03 2.16795E-20
2.83103E-03 2.02867E-20
2.92452E-03 1.90036E-20
3.01952E-03 1.78199E-20
3.11604E-03 1.67267E-20
3.21407E-03 1.57157E-20
3.31362E-03 1.47796E-20
3.41468E-03 1.39120E-20
3.51725E-03 1.31069E-20
3.62133E-03 1.23589E-20
3.72692E-03 1.16634E-20
3.83403E-03 1.10159E-20
3.94265E-03 1.04125E-20
4.05278E-03 9.84978E-21
4.16442E-03 9.32437E-21
4.27757E-03 8.83340E-21
4.39223E-03 8.37419E-21
4.50840E-03 7.94432E-21
4.62608E-03 7.54156E-21
4.74527E-03 7.16390E-21
4.86597E-03 6.80950E-21
4.98817E-03 6.47665E-21
5.11188E-03 6.16381E-21
5.23711E-03 5.86954E-21
5.36383E-03 5.59256E-21
5.49207E-03 5.33165E-21
5.62181E-03 5.08571E-21
5.75306E-03 4.85374E-21
5.88581E-03 4.63478E-21
6.02007E-03 4.42798E-21
6.15583E-03 4.23253E-21
6.29310E-03 4.04770E-21
6.43187E-03 3.87280E-21
6.57214E-03 3.70721E-21
6.71392E-03 3.55033E-21
6.85720E-03 3.40163E-21
7.00198E-03 3.26059E-21
7.14827E-03 3.12675E-21
7.29605E-03 2.99968E-21
7.44534E-03 2.87897E-21
7.59612E-03 2.76424E-21
7.97965E-03 2.50134E-21
8.37255E-03 2.26882E-21
8.77480E-03 2.06258E-21
9.18641E-03 1.87914E-21
9.60736E-03 1.71555E-21
1.00376E-02 1.56929E-21
1.04773E-02 1.43822E-21
1.09262E-02 1.32047E-21
1.13844E-02 1.21448E-21
1.18520E-02 1.11885E-21
1.23288E-02 1.03240E-21
1.28150E-02 9.54094E-22
1.33104E-02 8.83034E-22
1.38150E-02 8.18430E-22
1.43290E-02 7.59593E-22
1.48521E-02 7.05918E-22
1.53845E-02 6.56874E-22
1.59262E-02 6.11990E-22
1.64770E-02 5.70851E-22
1.70371E-02 5.33090E-22
1.76063E-02 4.98380E-22
1.81848E-02 4.66431E-22
1.87724E-02 4.36985E-22
1.93692E-02 4.09811E-22
1.99751E-02 3.84702E-22
2.05901E-02 3.61474E-22
2.12143E-02 3.39961E-22
2.18476E-02 3.20013E-22
2.24900E-02 3.01496E-22
2.31415E-02 2.84290E-22
2.38021E-02 2.68285E-22
2.44717E-02 2.53382E-22
2.51504E-02 2.39491E-22
2.58382E-02 2.26532E-22
2.65349E-02 2.14431E-22
2.72407E-02 2.03121E-22
2.79555E-02 1.92541E-22
2.86793E-02 1.82635E-22
2.94120E-02 1.73353E-22
3.01537E-02 1.64648E-22
3.09043E-02 1.56478E-22
3.16639E-02 1.48804E-22
3.24324E-02 1.41591E-22
3.32098E-02 1.34806E-22
3.39961E-02 1.28419E-22
3.47912E-02 1.22402E-22
3.55952E-02 1.16730E-22
3.64081E-02 1.11380E-22
3.72297E-02 1.06330E-22
3.80602E-02 1.01561E-22
3.88995E-02 9.70528E-23
3.97476E-02 9.27899E-23
4.06044E-02 8.87563E-23
4.14700E-02 8.49373E-23
4.23443E-02 8.13194E-23
4.32273E-02 7.78902E-23
4.41190E-02 7.46379E-23
4.50194E-02 7.15519E-23
4.59284E-02 6.86220E-23
4.68461E-02 6.58390E-23
4.87074E-02 6.06793E-23
5.06030E-02 5.60101E-23
5.25328E-02 5.17766E-23
5.44967E-02 4.79314E-23
5.64946E-02 4.44326E-23
5.85262E-02 4.12437E-23
6.05914E-02 3.83324E-23
6.26901E-02 3.56706E-23
6.48222E-02 3.32330E-23
6.69873E-02 3.09976E-23
6.91854E-02 2.89446E-23
7.14163E-02 2.70566E-23
7.36799E-02 2.53180E-23
7.59760E-02 2.37150E-23
7.83043E-02 2.22352E-23
8.06647E-02 2.08673E-23
8.30571E-02 1.96016E-23
8.54812E-02 1.84290E-23
8.79369E-02 1.73414E-23
9.04240E-02 1.63317E-23
9.29422E-02 1.53934E-23
9.54915E-02 1.45203E-23
9.80716E-02 1.37073E-23
1.00682E-01 1.29495E-23
1.03323E-01 1.22425E-23
1.05995E-01 1.15822E-23
1.08696E-01 1.09651E-23
1.11427E-01 1.03878E-23
1.14188E-01 9.84737E-24
1.16978E-01 9.34095E-24
1.19797E-01 8.86608E-24
1.22645E-01 8.42043E-24
1.25522E-01 8.00188E-24
1.28428E-01 7.60850E-24
1.31361E-01 7.23851E-24
1.34323E-01 6.89028E-24
1.37313E-01 6.56231E-24
1.40330E-01 6.25322E-24
1.43375E-01 5.96171E-24
1.46447E-01 5.68661E-24
1.49545E-01 5.42684E-24
1.52671E-01 5.18140E-24
1.55823E-01 4.94936E-24
1.59001E-01 4.72986E-24
1.62205E-01 4.52210E-24
1.65435E-01 4.32534E-24
1.68690E-01 4.13889E-24
1.71970E-01 3.96214E-24
1.75276E-01 3.79447E-24
1.78606E-01 3.63535E-24
1.81961E-01 3.48426E-24
1.85340E-01 3.34071E-24
1.88743E-01 3.20428E-24
1.92169E-01 3.07455E-24
1.95619E-01 2.95113E-24
1.99092E-01 2.83366E-24
2.02589E-01 2.72180E-24
2.06107E-01 2.61524E-24
2.09649E-01 2.51368E-24
2.13212E-01 2.41685E-24
2.16797E-01 2.32449E-24
2.20404E-01 2.23636E-24
2.24032E-01 2.15222E-24
2.27680E-01 2.07187E-24
2.31350E-01 1.99510E-24
2.35040E-01 1.92175E-24
2.38751E-01 1.85161E-24
2.42481E-01 1.78451E-24
2.46231E-01 1.72032E-24
2.50000E-01 1.65888E-24
2.53788E-01 1.60007E-24
2.57595E-01 1.54373E-24
2.61421E-01 1.48975E-24
2.65264E-01 1.43801E-24
2.69126E-01 1.38841E-24
2.73005E-01 1.34085E-24
2.76901E-01 1.29522E-24
2.80814E-01 1.25142E-24
2.84744E-01 1.20938E-24
2.88691E-01 1.16902E-24
2.92653E-01 1.13025E-24
2.96632E-01 1.09300E-24
3.00625E-01 1.05720E-24
3.04634E-01 1.02278E-24
3.08658E-01 9.89683E-25
3.12697E-01 9.57851E-25
3.16749E-01 9.27224E-25
3.20816E-01 8.97750E-25
3.24896E-01 8.69376E-25
3.28990E-01 8.42055E-25
3.33097E-01 8.15742E-25
3.37216E-01 7.90394E-25
3.41348E-01 7.65968E-25
3.45492E-01 7.42424E-25
3.49647E-01 7.19727E-25
3.53814E-01 6.97840E-25
3.57992E-01 6.76730E-25
3.62181E-01 6.56364E-25
3.66381E-01 6.36712E-25
3.70590E-01 6.17744E-25
3.74810E-01 5.99433E-25
3.79039E-01 5.81751E-25
3.83277E-01 5.64675E-25
3.87524E-01 5.48179E-25
3.91780E-01 5.32240E-25
3.96044E-01 5.16837E-25
4.00316E-01 5.01948E-25
4.04596E-01 4.87553E-25
4.08882E-01 4.73634E-25
4.13176E-01 4.60172E-25
4.17476E-01 4.47149E-25
4.21783E-01 4.34549E-25
4.26095E-01 4.22355E-25
4.30413E-01 4.10553E-25
4.34737E-01 3.99128E-25
4.39065E-01 3.88065E-25
4.43398E-01 3.77352E-25
4.47736E-01 3.66975E-25
4.52077E-01 3.56922E-25
4.56422E-01 3.47182E-25
4.60770E-01 3.37743E-25
4.65122E-01 3.28594E-25
4.69476E-01 3.19724E-25
4.73832E-01 3.11125E-25
4.78190E-01 3.02786E-25
4.82550E-01 2.94698E-25
4.86912E-01 2.86853E-25
4.91274E-01 2.79242E-25
4.95637E-01 2.71856E-25
5.00000E-01 2.64689E-25
5.04363E-01 2.57732E-25
5.08726E-01 2.50978E-25
5.13088E-01 2.44421E-25
5.17450E-01 2.38054E-25
5.21810E-01 2.31871E-25
5.26168E-01 2.25865E-25
5.30524E-01 2.20030E-25
5.34878E-01 2.14361E-25
5.39230E-01 2.08853E-25
5.43578E-01 2.03499E-25
5.47923E-01 1.98296E-25
5.52264E-01 1.93238E-25
5.56602E-01 1.88321E-25
5.60935E-01 1.83539E-25
5.65263E-01 1.78889E-25
5.69587E-01 1.74367E-25
5.73905E-01 1.69968E-25
5.78217E-01 1.65689E-25
5.82524E-01 1.61525E-25
5.86824E-01 1.57474E-25
5.91118E-01 1.53532E-25
5.95404E-01 1.49695E-25
5.99684E-01 1.45960E-25
6.03956E-01 1.42324E-25
6.08220E-01 1.38784E-25
6.12476E-01 1.35337E-25
6.16723E-01 1.31980E-25
6.20961E-01 1.28711E-25
6.25190E-01 1.25527E-25
6.29410E-01 1.22426E-25
6.33619E-01 1.19404E-25
6.37819E-01 1.16460E-25
6.42008E-01 1.13591E-25
6.46186E-01 1.10796E-25
6.50353E-01 1.08071E-25
6.54508E-01 1.05416E-25
6.58652E-01 1.02827E-25
6.62784E-01 1.00304E-25
6.66903E-01 9.78434E-26
6.71010E-01 9.54445E-26
6.75104E-01 9.31052E-26
6.79184E-01 9.08240E-26
6.83251E-01 8.85990E-26
6.87303E-01 8.64289E-26
6.91342E-01 8.43120E-26
6.95366E-01 8.22469E-26
6.99375E-01 8.02321E-26
7.03368E-01 7.82663E-26
7.07347E-01 7.63481E-26
7.11309E-01 7.44763E-26
7.15256E-01 7.26495E-26
7.19186E-01 7.08666E-26
7.23099E-01 6.91263E-26
7.26995E-01 6.74276E-26
7.30874E-01 6.57693E-26
7.34736E-01 6.41504E-26
7.38579E-01 6.25697E-26
7.42405E-01 6.10264E-26
7.46212E-01 5.95195E-26
7.50000E-01 5.80479E-26
7.53769E-01 5.66107E-26
7.57519E-01 5.52072E-26
7.61249E-01 5.38364E-26
7.64960E-01 5.24974E-26
7.68650E-01 5.11895E-26
7.72320E-01 4.99118E-26
7.75968E-01 4.86637E-26
7.79596E-01 4.74444E-26
7.83203E-01 4.62530E-26
7.86788E-01 4.50891E-26
7.90351E-01 4.39517E-26
7.93893E-01 4.28404E-26
7.97411E-01 4.17545E-26
8.00908E-01 4.06933E-26
8.04381E-01 3.96562E-26
8.07831E-01 3.86427E-26
8.11257E-01 3.76522E-26
8.14660E-01 3.66841E-26
8.18039E-01 3.57379E-26
8.21394E-01 3.48130E-26
8.24724E-01 3.39091E-26
8.28030E-01 3.30255E-26
8.31310E-01 3.21618E-26
8.34565E-01 3.13175E-26
8.37795E-01 3.04922E-26
8.40999E-01 2.96855E-26
8.44177E-01 2.88968E-26
8.47329E-01 2.81259E-26
8.50455E-01 2.73722E-26
8.53553E-01 2.66355E-26
8.56625E-01 2.59153E-26
8.59670E-01 2.52112E-26
8.62687E-01 2.45229E-26
8.65677E-01 2.38501E-26
8.68639E-01 2.31923E-26
8.71572E-01 2.25493E-26
8.74478E-01 2.19208E-26
8.77355E-01 2.13064E-26
8.80203E-01 2.07058E-26
8.83022E-01 2.01188E-26
8.85812E-01 1.95450E-26
8.88573E-01 1.89842E-26
8.91304E-01 1.84360E-26
8.94005E-01 1.79003E-26
8.96677E-01 1.73768E-26
8.99318E-01 1.68651E-26
9.01928E-01 1.63652E-26
9.04508E-01 1.58767E-26
9.07058E-01 1.53994E-26
9.09576E-01 1.49330E-26
9.12063E-01 1.44775E-26
9.14519E-01 1.40324E-26
9.16943E-01 1.35978E-26
9.19335E-01 1.31732E-26
9.21696E-01 1.27587E-26
9.24024E-01 1.23538E-26
9.26320E-01 1.19586E-26
9.28584E-01 1.15727E-26
9.30815E-01 1.11961E-26
9.33013E-01 1.08285E-26
9.35178E-01 1.04698E-26
9.37310E-01 1.01199E-26
9.39409E-01 9.77848E-27
9.41474E-01 9.44550E-27
9.43505E-01 9.12079E-27
9.45503E-01 8.80421E-27
9.47467E-01 8.49562E-27
9.49397E-01 8.19489E-27
9.51293E-01 7.90187E-27
9.53154E-01 7.61646E-27
9.54981E-01 7.33852E-27
9.56773E-01 7.06793E-27
9.58530E-01 6.80458E-27
9.60252E-01 6.54835E-27
9.61940E-01 6.29913E-27
9.63592E-01 6.05683E-27
9.65209E-01 5.82133E-27
9.66790E-01 5.59254E-27
9.68336E-01 5.37036E-27
9.69846E-01 5.15469E-27
9.71321E-01 4.94545E-27
9.72759E-01 4.74254E-27
9.74162E-01 4.54589E-27
9.75528E-01 4.35542E-27
9.76858E-01 4.17103E-27
9.78152E-01 3.99266E-27
9.79410E-01 3.82023E-27
9.80631E-01 3.65368E-27
9.81815E-01 3.49292E-27
9.82963E-01 3.33790E-27
9.84074E-01 3.18856E-27
9.85148E-01 3.04483E-27
9.86185E-01 2.90665E-27
9.87185E-01 2.77397E-27
9.88148E-01 2.64673E-27
9.89074E-01 2.52489E-27
9.89962E-01 2.40838E-27
9.90814E-01 2.29718E-27
9.91627E-01 2.19122E-27
9.92404E-01 2.09047E-27
9.93143E-01 1.99488E-27
9.93844E-01 1.90443E-27
9.94508E-01 1.81907E-27
9.95134E-01 1.73877E-27
9.95722E-01 1.66349E-27
9.96273E-01 1.59321E-27
9.96786E-01 1.52789E-27
9.97261E-01 1.46752E-27
9.97698E-01 1.41207E-27
9.98097E-01 1.36151E-27
9.98459E-01 1.31583E-27
9.98782E-01 1.27500E-27
9.99067E-01 1.23902E-27
9.99315E-01 1.20786E-27
9.99524E-01 1.18151E-27
9.99695E-01 1.15997E-27
9.99829E-01 1.14323E-27
9.99924E-01 1.13128E-27
9.99981E-01 1.12410E-27
1.00000E+00 1.12171E-27
