 #
 # Subroutine ELSEPA. Elastic scattering of electrons and positrons
 #                    by neutral atoms and positive ions
 #
 # Projectile: positron
 # Kinetic energy = 1.25000E+08 eV = 4.59367E+06 a.u.
 #
 # WARNING: High-energy factorization with free-atom DF screening.
 #          Absorption, polarization and exchange corrections are
 #          switched off.
 #          Phase shifts are calculated for the bare nucleus.
 #          Scattering amplitudes are not evaluated.
 #
 # Element: Rb,  Z =  37,  atomic weight = 8.54678E+01 g/mol
 #
 # Nuclear model: Fermi distribution
 #                Average radius = 4.71322E-13 cm
 #                Skin thickness = 5.46000E-14 cm
 #
 # Number of electrons = 37
 #
 # Total elastic cross section = 3.32710E-18 cm**2 = 1.18813E-01 a0**2
 # 1st transport cross section = 1.71847E-25 cm**2 = 6.13678E-09 a0**2
 # 2nd transport cross section = 5.12114E-25 cm**2 = 1.82879E-08 a0**2
 #
 #
 # Differential cross section:                       MU=(1-COS(THETA))/2
 #
 #  THETA        MU          DCS          DCS        Sherman      error
 #  (deg)                 (cm**2/sr)   (a0**2/sr)    function
 #----------------------------------------------------------------------
0.00000E+00 8.24863E-10
7.61557E-13 8.15803E-10
1.18994E-12 8.10784E-10
1.71346E-12 8.04722E-10
2.33225E-12 7.97654E-10
3.04617E-12 7.89632E-10
3.85530E-12 7.80705E-10
4.75964E-12 7.70928E-10
5.75917E-12 7.60366E-10
6.85391E-12 7.49080E-10
8.04379E-12 7.37137E-10
9.32893E-12 7.24601E-10
1.07092E-11 7.11550E-10
1.21847E-11 6.98044E-10
1.37554E-11 6.84150E-10
1.54213E-11 6.70129E-10
1.71823E-11 6.55903E-10
1.90386E-11 6.41296E-10
2.09900E-11 6.26354E-10
2.30367E-11 6.11258E-10
2.51785E-11 5.96739E-10
2.74156E-11 5.82024E-10
2.97478E-11 5.67152E-10
3.21752E-11 5.52164E-10
3.46979E-11 5.37892E-10
3.73157E-11 5.23808E-10
4.00286E-11 5.09701E-10
4.28368E-11 4.95602E-10
4.57402E-11 4.81948E-10
4.87388E-11 4.68968E-10
5.18325E-11 4.56056E-10
5.50215E-11 4.43231E-10
5.83057E-11 4.30538E-10
6.16850E-11 4.18899E-10
6.51595E-11 4.07380E-10
6.87293E-11 3.95994E-10
7.23943E-11 3.84755E-10
7.61544E-11 3.74220E-10
1.18991E-10 2.85905E-10
1.71347E-10 2.24065E-10
2.33223E-10 1.80292E-10
3.04617E-10 1.48130E-10
3.85531E-10 1.23382E-10
4.75965E-10 1.03695E-10
5.75917E-10 8.76400E-11
6.85389E-10 7.43641E-11
8.04380E-10 6.33218E-11
9.32891E-10 5.40986E-11
1.07092E-09 4.63600E-11
1.21847E-09 3.98811E-11
1.37554E-09 3.44484E-11
1.54213E-09 2.97555E-11
1.71823E-09 2.58089E-11
1.90386E-09 2.25873E-11
2.09900E-09 1.99337E-11
2.30367E-09 1.76977E-11
2.51785E-09 1.56557E-11
2.74156E-09 1.39435E-11
2.97478E-09 1.24975E-11
3.21752E-09 1.12682E-11
3.46978E-09 1.01539E-11
3.73156E-09 9.18076E-12
4.00286E-09 8.34181E-12
4.28368E-09 7.61469E-12
4.57402E-09 6.96211E-12
4.87388E-09 6.36500E-12
5.18326E-09 5.84185E-12
5.50215E-09 5.38153E-12
5.83057E-09 4.97405E-12
6.16850E-09 4.58250E-12
6.51596E-09 4.23514E-12
6.87293E-09 3.92589E-12
7.23942E-09 3.64966E-12
7.61544E-09 3.38809E-12
1.18991E-08 1.70955E-12
1.71347E-08 9.30362E-13
2.33223E-08 5.39114E-13
3.04617E-08 3.30916E-13
3.85531E-08 2.14256E-13
4.75965E-08 1.45159E-13
5.75917E-08 1.02179E-13
6.85389E-08 7.41929E-14
8.04380E-08 5.52546E-14
9.32891E-08 4.20290E-14
1.07092E-07 3.25413E-14
1.21847E-07 2.55826E-14
1.37554E-07 2.03781E-14
1.54213E-07 1.64101E-14
1.71823E-07 1.33678E-14
1.90386E-07 1.09868E-14
2.09900E-07 9.11601E-15
2.30367E-07 7.61584E-15
2.51785E-07 6.41394E-15
2.74156E-07 5.43684E-15
2.97478E-07 4.63845E-15
3.21752E-07 3.98084E-15
3.46978E-07 3.43487E-15
3.73156E-07 2.97978E-15
4.00286E-07 2.59684E-15
4.28368E-07 2.27381E-15
4.57402E-07 1.99930E-15
4.87388E-07 1.76508E-15
5.18325E-07 1.56423E-15
5.50215E-07 1.39111E-15
5.83057E-07 1.24142E-15
6.16850E-07 1.11128E-15
6.51596E-07 9.97846E-16
6.87293E-07 8.98523E-16
7.23942E-07 8.11291E-16
7.61543E-07 7.34426E-16
1.18991E-06 3.05222E-16
1.71347E-06 1.48752E-16
2.33223E-06 8.08954E-17
3.04617E-06 4.76696E-17
3.85531E-06 2.98711E-17
4.75964E-06 1.96509E-17
5.75916E-06 1.34478E-17
6.85388E-06 9.50850E-18
8.04378E-06 6.91063E-18
9.32888E-06 5.14182E-18
1.07092E-05 3.90406E-18
1.21846E-05 3.01710E-18
1.37553E-05 2.36818E-18
1.54212E-05 1.88461E-18
1.71822E-05 1.51835E-18
1.90385E-05 1.23667E-18
2.09899E-05 1.01769E-18
2.30365E-05 8.45035E-19
2.51783E-05 7.07416E-19
2.74153E-05 5.96645E-19
2.97475E-05 5.06695E-19
3.21749E-05 4.33065E-19
3.46974E-05 3.72342E-19
3.73152E-05 3.21910E-19
4.00281E-05 2.79743E-19
4.28362E-05 2.44262E-19
4.57395E-05 2.14230E-19
4.87380E-05 1.88669E-19
5.18317E-05 1.66802E-19
5.50205E-05 1.48008E-19
5.83045E-05 1.31785E-19
6.16838E-05 1.17724E-19
6.51582E-05 1.05491E-19
6.87277E-05 9.48066E-20
7.23925E-05 8.54421E-20
7.61524E-05 7.72203E-20
9.21439E-05 5.27174E-20
1.09658E-04 3.72021E-20
1.28695E-04 2.69964E-20
1.49255E-04 2.00595E-20
1.71338E-04 1.52137E-20
1.94942E-04 1.17455E-20
2.20070E-04 9.21104E-21
2.46720E-04 7.32428E-21
2.74892E-04 5.89630E-21
3.04586E-04 4.79973E-21
3.35803E-04 3.94633E-21
3.68542E-04 3.27426E-21
4.02802E-04 2.73918E-21
4.38585E-04 2.30893E-21
4.75889E-04 1.95983E-21
5.14715E-04 1.67417E-21
5.55063E-04 1.43863E-21
5.96931E-04 1.24303E-21
6.40321E-04 1.07952E-21
6.85233E-04 9.41971E-22
7.31665E-04 8.25603E-22
7.79618E-04 7.26626E-22
8.29092E-04 6.42012E-22
8.80086E-04 5.69335E-22
9.32601E-04 5.06631E-22
9.86636E-04 4.52303E-22
1.04219E-03 4.05045E-22
1.09927E-03 3.63783E-22
1.15786E-03 3.27628E-22
1.21797E-03 2.95840E-22
1.27961E-03 2.67803E-22
1.34276E-03 2.42998E-22
1.40743E-03 2.20989E-22
1.47362E-03 2.01407E-22
1.54133E-03 1.83938E-22
1.61056E-03 1.68314E-22
1.68131E-03 1.54307E-22
1.75357E-03 1.41721E-22
1.82735E-03 1.30387E-22
1.90265E-03 1.20157E-22
1.97947E-03 1.10907E-22
2.05780E-03 1.02525E-22
2.13765E-03 9.49156E-23
2.21902E-03 8.79954E-23
2.30190E-03 8.16909E-23
2.38630E-03 7.59376E-23
2.47222E-03 7.06789E-23
2.55965E-03 6.58646E-23
2.64859E-03 6.14506E-23
2.73905E-03 5.73977E-23
2.83103E-03 5.36712E-23
2.92452E-03 5.02400E-23
3.01952E-03 4.70766E-23
3.11604E-03 4.41564E-23
3.21407E-03 4.14573E-23
3.31362E-03 3.89597E-23
3.41468E-03 3.66457E-23
3.51725E-03 3.44995E-23
3.62133E-03 3.25068E-23
3.72692E-03 3.06546E-23
3.83403E-03 2.89311E-23
3.94265E-03 2.73260E-23
4.05278E-03 2.58295E-23
4.16442E-03 2.44330E-23
4.27757E-03 2.31287E-23
4.39223E-03 2.19093E-23
4.50840E-03 2.07684E-23
4.62608E-03 1.96999E-23
4.74527E-03 1.86985E-23
4.86597E-03 1.77591E-23
4.98817E-03 1.68773E-23
5.11188E-03 1.60489E-23
5.23711E-03 1.52700E-23
5.36383E-03 1.45372E-23
5.49207E-03 1.38473E-23
5.62181E-03 1.31973E-23
5.75306E-03 1.25844E-23
5.88581E-03 1.20062E-23
6.02007E-03 1.14604E-23
6.15583E-03 1.09447E-23
6.29310E-03 1.04573E-23
6.43187E-03 9.99635E-24
6.57214E-03 9.56010E-24
6.71392E-03 9.14702E-24
6.85720E-03 8.75564E-24
7.00198E-03 8.38462E-24
7.14827E-03 8.03272E-24
7.29605E-03 7.69877E-24
7.44534E-03 7.38169E-24
7.59612E-03 7.08048E-24
7.97965E-03 6.39087E-24
8.37255E-03 5.78175E-24
8.77480E-03 5.24217E-24
9.18641E-03 4.76290E-24
9.60736E-03 4.33608E-24
1.00376E-02 3.95503E-24
1.04773E-02 3.61402E-24
1.09262E-02 3.30816E-24
1.13844E-02 3.03323E-24
1.18520E-02 2.78558E-24
1.23288E-02 2.56205E-24
1.28150E-02 2.35992E-24
1.33104E-02 2.17679E-24
1.38150E-02 2.01059E-24
1.43290E-02 1.85949E-24
1.48521E-02 1.72189E-24
1.53845E-02 1.59639E-24
1.59262E-02 1.48176E-24
1.64770E-02 1.37689E-24
1.70371E-02 1.28082E-24
1.76063E-02 1.19269E-24
1.81848E-02 1.11174E-24
1.87724E-02 1.03729E-24
1.93692E-02 9.68725E-25
1.99751E-02 9.05511E-25
2.05901E-02 8.47162E-25
2.12143E-02 7.93243E-25
2.18476E-02 7.43364E-25
2.24900E-02 6.97173E-25
2.31415E-02 6.54354E-25
2.38021E-02 6.14621E-25
2.44717E-02 5.77717E-25
2.51504E-02 5.43409E-25
2.58382E-02 5.11485E-25
2.65349E-02 4.81752E-25
2.72407E-02 4.54038E-25
2.79555E-02 4.28184E-25
2.86793E-02 4.04044E-25
2.94120E-02 3.81489E-25
3.01537E-02 3.60398E-25
3.09043E-02 3.40661E-25
3.16639E-02 3.22178E-25
3.24324E-02 3.04856E-25
3.32098E-02 2.88613E-25
3.39961E-02 2.73370E-25
3.47912E-02 2.59057E-25
3.55952E-02 2.45609E-25
3.64081E-02 2.32965E-25
3.72297E-02 2.21070E-25
3.80602E-02 2.09873E-25
3.88995E-02 1.99327E-25
3.97476E-02 1.89390E-25
4.06044E-02 1.80019E-25
4.14700E-02 1.71179E-25
4.23443E-02 1.62836E-25
4.32273E-02 1.54956E-25
4.41190E-02 1.47511E-25
4.50194E-02 1.40474E-25
4.59284E-02 1.33818E-25
4.68461E-02 1.27521E-25
4.87074E-02 1.15914E-25
5.06030E-02 1.05497E-25
5.25328E-02 9.61296E-26
5.44967E-02 8.76942E-26
5.64946E-02 8.00861E-26
5.85262E-02 7.32141E-26
6.05914E-02 6.69981E-26
6.26901E-02 6.13681E-26
6.48222E-02 5.62621E-26
6.69873E-02 5.16257E-26
6.91854E-02 4.74107E-26
7.14163E-02 4.35744E-26
7.36799E-02 4.00789E-26
7.59760E-02 3.68907E-26
7.83043E-02 3.39797E-26
8.06647E-02 3.13193E-26
8.30571E-02 2.88857E-26
8.54812E-02 2.66575E-26
8.79369E-02 2.46156E-26
9.04240E-02 2.27428E-26
9.29422E-02 2.10239E-26
9.54915E-02 1.94449E-26
9.80716E-02 1.79935E-26
1.00682E-01 1.66582E-26
1.03323E-01 1.54291E-26
1.05995E-01 1.42968E-26
1.08696E-01 1.32532E-26
1.11427E-01 1.22907E-26
1.14188E-01 1.14025E-26
1.16978E-01 1.05823E-26
1.19797E-01 9.82456E-27
1.22645E-01 9.12415E-27
1.25522E-01 8.47641E-27
1.28428E-01 7.87707E-27
1.31361E-01 7.32227E-27
1.34323E-01 6.80847E-27
1.37313E-01 6.33242E-27
1.40330E-01 5.89118E-27
1.43375E-01 5.48203E-27
1.46447E-01 5.10249E-27
1.49545E-01 4.75029E-27
1.52671E-01 4.42335E-27
1.55823E-01 4.11975E-27
1.59001E-01 3.83772E-27
1.62205E-01 3.57566E-27
1.65435E-01 3.33208E-27
1.68690E-01 3.10561E-27
1.71970E-01 2.89499E-27
1.75276E-01 2.69905E-27
1.78606E-01 2.51673E-27
1.81961E-01 2.34704E-27
1.85340E-01 2.18907E-27
1.88743E-01 2.04197E-27
1.92169E-01 1.90497E-27
1.95619E-01 1.77734E-27
1.99092E-01 1.65843E-27
2.02589E-01 1.54761E-27
2.06107E-01 1.44432E-27
2.09649E-01 1.34804E-27
2.13212E-01 1.25826E-27
2.16797E-01 1.17454E-27
2.20404E-01 1.09645E-27
2.24032E-01 1.02362E-27
2.27680E-01 9.55671E-28
2.31350E-01 8.92274E-28
2.35040E-01 8.33115E-28
2.38751E-01 7.77906E-28
2.42481E-01 7.26378E-28
2.46231E-01 6.78280E-28
2.50000E-01 6.33380E-28
2.53788E-01 5.91463E-28
2.57595E-01 5.52326E-28
2.61421E-01 5.15783E-28
2.65264E-01 4.81660E-28
2.69126E-01 4.49794E-28
2.73005E-01 4.20035E-28
2.76901E-01 3.92241E-28
2.80814E-01 3.66283E-28
2.84744E-01 3.42037E-28
2.88691E-01 3.19390E-28
2.92653E-01 2.98236E-28
2.96632E-01 2.78476E-28
3.00625E-01 2.60017E-28
3.04634E-01 2.42775E-28
3.08658E-01 2.26668E-28
3.12697E-01 2.11621E-28
3.16749E-01 1.97565E-28
3.20816E-01 1.84435E-28
3.24896E-01 1.72169E-28
3.28990E-01 1.60711E-28
3.33097E-01 1.50008E-28
3.37216E-01 1.40010E-28
3.41348E-01 1.30671E-28
3.45492E-01 1.21948E-28
3.49647E-01 1.13800E-28
3.53814E-01 1.06189E-28
3.57992E-01 9.90812E-29
3.62181E-01 9.24428E-29
3.66381E-01 8.62432E-29
3.70590E-01 8.04536E-29
3.74810E-01 7.50472E-29
3.79039E-01 6.99988E-29
3.83277E-01 6.52851E-29
3.87524E-01 6.08840E-29
3.91780E-01 5.67752E-29
3.96044E-01 5.29395E-29
4.00316E-01 4.93588E-29
4.04596E-01 4.60166E-29
4.08882E-01 4.28972E-29
4.13176E-01 3.99859E-29
4.17476E-01 3.72691E-29
4.21783E-01 3.47339E-29
4.26095E-01 3.23685E-29
4.30413E-01 3.01617E-29
4.34737E-01 2.81029E-29
4.39065E-01 2.61825E-29
4.43398E-01 2.43913E-29
4.47736E-01 2.27209E-29
4.52077E-01 2.11631E-29
4.56422E-01 1.97106E-29
4.60770E-01 1.83563E-29
4.65122E-01 1.70939E-29
4.69476E-01 1.59171E-29
4.73832E-01 1.48202E-29
4.78190E-01 1.37981E-29
4.82550E-01 1.28456E-29
4.86912E-01 1.19582E-29
4.91274E-01 1.11314E-29
4.95637E-01 1.03613E-29
5.00000E-01 9.64401E-30
5.04363E-01 8.97602E-30
5.08726E-01 8.35403E-30
5.13088E-01 7.77492E-30
5.17450E-01 7.23581E-30
5.21810E-01 6.73400E-30
5.26168E-01 6.26697E-30
5.30524E-01 5.83236E-30
5.34878E-01 5.42798E-30
5.39230E-01 5.05177E-30
5.43578E-01 4.70181E-30
5.47923E-01 4.37632E-30
5.52264E-01 4.07361E-30
5.56602E-01 3.79214E-30
5.60935E-01 3.53044E-30
5.65263E-01 3.28716E-30
5.69587E-01 3.06103E-30
5.73905E-01 2.85086E-30
5.78217E-01 2.65555E-30
5.82524E-01 2.47407E-30
5.86824E-01 2.30546E-30
5.91118E-01 2.14883E-30
5.95404E-01 2.00334E-30
5.99684E-01 1.86820E-30
6.03956E-01 1.74271E-30
6.08220E-01 1.62617E-30
6.12476E-01 1.51795E-30
6.16723E-01 1.41748E-30
6.20961E-01 1.32421E-30
6.25190E-01 1.23761E-30
6.29410E-01 1.15722E-30
6.33619E-01 1.08260E-30
6.37819E-01 1.01334E-30
6.42008E-01 9.49041E-31
6.46186E-01 8.89360E-31
6.50353E-01 8.33960E-31
6.54508E-01 7.82533E-31
6.58652E-01 7.34793E-31
6.62784E-01 6.90471E-31
6.66903E-01 6.49319E-31
6.71010E-01 6.11107E-31
6.75104E-01 5.75618E-31
6.79184E-01 5.42655E-31
6.83251E-01 5.12031E-31
6.87303E-01 4.83574E-31
6.91342E-01 4.57124E-31
6.95366E-01 4.32533E-31
6.99375E-01 4.09663E-31
7.03368E-01 3.88385E-31
7.07347E-01 3.68582E-31
7.11309E-01 3.50143E-31
7.15256E-01 3.32966E-31
7.19186E-01 3.16957E-31
7.23099E-01 3.02027E-31
7.26995E-01 2.88095E-31
7.30874E-01 2.75086E-31
7.34736E-01 2.62930E-31
7.38579E-01 2.51563E-31
7.42405E-01 2.40924E-31
7.46212E-01 2.30960E-31
7.50000E-01 2.21617E-31
7.53769E-01 2.12849E-31
7.57519E-01 2.04613E-31
7.61249E-01 1.96868E-31
7.64960E-01 1.89576E-31
7.68650E-01 1.82703E-31
7.72320E-01 1.76217E-31
7.75968E-01 1.70089E-31
7.79596E-01 1.64291E-31
7.83203E-01 1.58799E-31
7.86788E-01 1.53590E-31
7.90351E-01 1.48642E-31
7.93893E-01 1.43936E-31
7.97411E-01 1.39454E-31
8.00908E-01 1.35178E-31
8.04381E-01 1.31095E-31
8.07831E-01 1.27190E-31
8.11257E-01 1.23449E-31
8.14660E-01 1.19862E-31
8.18039E-01 1.16416E-31
8.21394E-01 1.13103E-31
8.24724E-01 1.09913E-31
8.28030E-01 1.06837E-31
8.31310E-01 1.03868E-31
8.34565E-01 1.00999E-31
8.37795E-01 9.82234E-32
8.40999E-01 9.55347E-32
8.44177E-01 9.29279E-32
8.47329E-01 9.03978E-32
8.50455E-01 8.79401E-32
8.53553E-01 8.55504E-32
8.56625E-01 8.32249E-32
8.59670E-01 8.09602E-32
8.62687E-01 7.87531E-32
8.65677E-01 7.66006E-32
8.68639E-01 7.45001E-32
8.71572E-01 7.24492E-32
8.74478E-01 7.04455E-32
8.77355E-01 6.84871E-32
8.80203E-01 6.65723E-32
8.83022E-01 6.46991E-32
8.85812E-01 6.28662E-32
8.88573E-01 6.10720E-32
8.91304E-01 5.93155E-32
8.94005E-01 5.75951E-32
8.96677E-01 5.59100E-32
8.99318E-01 5.42591E-32
9.01928E-01 5.26416E-32
9.04508E-01 5.10565E-32
9.07058E-01 4.95032E-32
9.09576E-01 4.79810E-32
9.12063E-01 4.64891E-32
9.14519E-01 4.50270E-32
9.16943E-01 4.35941E-32
9.19335E-01 4.21899E-32
9.21696E-01 4.08140E-32
9.24024E-01 3.94659E-32
9.26320E-01 3.81451E-32
9.28584E-01 3.68514E-32
9.30815E-01 3.55842E-32
9.33013E-01 3.43434E-32
9.35178E-01 3.31285E-32
9.37310E-01 3.19393E-32
9.39409E-01 3.07754E-32
9.41474E-01 2.96366E-32
9.43505E-01 2.85226E-32
9.45503E-01 2.74332E-32
9.47467E-01 2.63681E-32
9.49397E-01 2.53270E-32
9.51293E-01 2.43098E-32
9.53154E-01 2.33162E-32
9.54981E-01 2.23460E-32
9.56773E-01 2.13990E-32
9.58530E-01 2.04750E-32
9.60252E-01 1.95738E-32
9.61940E-01 1.86951E-32
9.63592E-01 1.78389E-32
9.65209E-01 1.70048E-32
9.66790E-01 1.61928E-32
9.68336E-01 1.54025E-32
9.69846E-01 1.46340E-32
9.71321E-01 1.38869E-32
9.72759E-01 1.31611E-32
9.74162E-01 1.24565E-32
9.75528E-01 1.17728E-32
9.76858E-01 1.11099E-32
9.78152E-01 1.04677E-32
9.79410E-01 9.84598E-33
9.80631E-01 9.24457E-33
9.81815E-01 8.66333E-33
9.82963E-01 8.10214E-33
9.84074E-01 7.56082E-33
9.85148E-01 7.03927E-33
9.86185E-01 6.53730E-33
9.87185E-01 6.05484E-33
9.88148E-01 5.59173E-33
9.89074E-01 5.14779E-33
9.89962E-01 4.72298E-33
9.90814E-01 4.31712E-33
9.91627E-01 3.93017E-33
9.92404E-01 3.56196E-33
9.93143E-01 3.21239E-33
9.93844E-01 2.88138E-33
9.94508E-01 2.56882E-33
9.95134E-01 2.27462E-33
9.95722E-01 1.99868E-33
9.96273E-01 1.74095E-33
9.96786E-01 1.50133E-33
9.97261E-01 1.27976E-33
9.97698E-01 1.07613E-33
9.98097E-01 8.90475E-34
9.98459E-01 7.22630E-34
9.98782E-01 5.72615E-34
9.99067E-01 4.40343E-34
9.99315E-01 3.25806E-34
9.99524E-01 2.28942E-34
9.99695E-01 1.49730E-34
9.99829E-01 8.81405E-35
9.99924E-01 4.41776E-35
9.99981E-01 1.77932E-35
1.00000E+00 9.00458E-36
