 #
 # Subroutine ELSEPA. Elastic scattering of electrons and positrons
 #                    by neutral atoms and positive ions
 #
 # Projectile: positron
 # Kinetic energy = 5.00000E+06 eV = 1.83747E+05 a.u.
 #
 # WARNING: High-energy factorization with free-atom DF screening.
 #          Absorption, polarization and exchange corrections are
 #          switched off.
 #          Phase shifts are calculated for the bare nucleus.
 #          Scattering amplitudes are not evaluated.
 #
 # Element: Rb,  Z =  37,  atomic weight = 8.54678E+01 g/mol
 #
 # Nuclear model: Fermi distribution
 #                Average radius = 4.71322E-13 cm
 #                Skin thickness = 5.46000E-14 cm
 #
 # Number of electrons = 37
 #
 # Total elastic cross section = 3.35701E-18 cm**2 = 1.19881E-01 a0**2
 # 1st transport cross section = 6.16462E-23 cm**2 = 2.20143E-06 a0**2
 # 2nd transport cross section = 1.77542E-22 cm**2 = 6.34014E-06 a0**2
 #
 #
 # Differential cross section:                       MU=(1-COS(THETA))/2
 #
 #  THETA        MU          DCS          DCS        Sherman      error
 #  (deg)                 (cm**2/sr)   (a0**2/sr)    function
 #----------------------------------------------------------------------
0.00000E+00 1.59030E-12
7.61557E-13 1.59026E-12
1.18994E-12 1.59024E-12
1.71346E-12 1.59022E-12
2.33225E-12 1.59019E-12
3.04617E-12 1.59016E-12
3.85530E-12 1.59013E-12
4.75964E-12 1.59008E-12
5.75917E-12 1.59004E-12
6.85391E-12 1.58999E-12
8.04379E-12 1.58994E-12
9.32893E-12 1.58988E-12
1.07092E-11 1.58982E-12
1.21847E-11 1.58975E-12
1.37554E-11 1.58968E-12
1.54213E-11 1.58961E-12
1.71823E-11 1.58953E-12
1.90386E-11 1.58945E-12
2.09900E-11 1.58936E-12
2.30367E-11 1.58927E-12
2.51785E-11 1.58918E-12
2.74156E-11 1.58908E-12
2.97478E-11 1.58897E-12
3.21752E-11 1.58887E-12
3.46979E-11 1.58876E-12
3.73157E-11 1.58864E-12
4.00286E-11 1.58852E-12
4.28368E-11 1.58839E-12
4.57402E-11 1.58827E-12
4.87388E-11 1.58813E-12
5.18325E-11 1.58800E-12
5.50215E-11 1.58786E-12
5.83057E-11 1.58771E-12
6.16850E-11 1.58756E-12
6.51595E-11 1.58741E-12
6.87293E-11 1.58725E-12
7.23943E-11 1.58709E-12
7.61544E-11 1.58692E-12
1.18991E-10 1.58503E-12
1.71347E-10 1.58273E-12
2.33223E-10 1.58002E-12
3.04617E-10 1.57690E-12
3.85531E-10 1.57337E-12
4.75965E-10 1.56945E-12
5.75917E-10 1.56514E-12
6.85389E-10 1.56043E-12
8.04380E-10 1.55535E-12
9.32891E-10 1.54989E-12
1.07092E-09 1.54407E-12
1.21847E-09 1.53788E-12
1.37554E-09 1.53134E-12
1.54213E-09 1.52445E-12
1.71823E-09 1.51723E-12
1.90386E-09 1.50969E-12
2.09900E-09 1.50182E-12
2.30367E-09 1.49365E-12
2.51785E-09 1.48517E-12
2.74156E-09 1.47641E-12
2.97478E-09 1.46737E-12
3.21752E-09 1.45806E-12
3.46978E-09 1.44850E-12
3.73156E-09 1.43868E-12
4.00286E-09 1.42863E-12
4.28368E-09 1.41836E-12
4.57402E-09 1.40787E-12
4.87388E-09 1.39718E-12
5.18326E-09 1.38629E-12
5.50215E-09 1.37523E-12
5.83057E-09 1.36399E-12
6.16850E-09 1.35259E-12
6.51596E-09 1.34105E-12
6.87293E-09 1.32937E-12
7.23942E-09 1.31756E-12
7.61544E-09 1.30564E-12
1.18991E-08 1.18229E-12
1.71347E-08 1.05774E-12
2.33223E-08 9.39025E-13
3.04617E-08 8.30513E-13
3.85531E-08 7.34236E-13
4.75965E-08 6.50521E-13
5.75917E-08 5.78617E-13
6.85389E-08 5.17219E-13
8.04380E-08 4.64829E-13
9.32891E-08 4.19983E-13
1.07092E-07 3.81368E-13
1.21847E-07 3.47861E-13
1.37554E-07 3.18541E-13
1.54213E-07 2.92663E-13
1.71823E-07 2.69632E-13
1.90386E-07 2.48981E-13
2.09900E-07 2.30340E-13
2.30367E-07 2.13420E-13
2.51785E-07 1.97992E-13
2.74156E-07 1.83871E-13
2.97478E-07 1.70909E-13
3.21752E-07 1.58984E-13
3.46978E-07 1.47993E-13
3.73156E-07 1.37851E-13
4.00286E-07 1.28484E-13
4.28368E-07 1.19826E-13
4.57402E-07 1.11820E-13
4.87388E-07 1.04413E-13
5.18325E-07 9.75604E-14
5.50215E-07 9.12182E-14
5.83057E-07 8.53477E-14
6.16850E-07 7.99127E-14
6.51596E-07 7.48798E-14
6.87293E-07 7.02182E-14
7.23942E-07 6.58994E-14
7.61543E-07 6.18971E-14
1.18991E-06 3.47075E-14
1.71347E-06 2.12089E-14
2.33223E-06 1.39104E-14
3.04617E-06 9.59863E-15
3.85531E-06 6.85603E-15
4.75964E-06 5.01522E-15
5.75916E-06 3.73411E-15
6.85388E-06 2.82079E-15
8.04378E-06 2.15862E-15
9.32888E-06 1.67224E-15
1.07092E-05 1.31095E-15
1.21846E-05 1.03973E-15
1.37553E-05 8.33980E-16
1.54212E-05 6.76249E-16
1.71822E-05 5.54048E-16
1.90385E-05 4.58364E-16
2.09899E-05 3.82681E-16
2.30365E-05 3.22202E-16
2.51783E-05 2.73403E-16
2.74153E-05 2.33663E-16
2.97475E-05 2.01014E-16
3.21749E-05 1.73970E-16
3.46974E-05 1.51395E-16
3.73152E-05 1.32418E-16
4.00281E-05 1.16357E-16
4.28362E-05 1.02681E-16
4.57395E-05 9.09699E-17
4.87380E-05 8.08890E-17
5.18317E-05 7.21690E-17
5.50205E-05 6.45923E-17
5.83045E-05 5.79818E-17
6.16838E-05 5.21922E-17
6.51582E-05 4.71030E-17
6.87277E-05 4.26147E-17
7.23925E-05 3.86439E-17
7.61524E-05 3.51208E-17
9.21439E-05 2.44474E-17
1.09658E-04 1.75072E-17
1.28695E-04 1.28464E-17
1.49255E-04 9.62901E-18
1.71338E-04 7.35397E-18
1.94942E-04 5.71067E-18
2.20070E-04 4.50087E-18
2.46720E-04 3.59483E-18
2.74892E-04 2.90569E-18
3.04586E-04 2.37412E-18
3.35803E-04 1.95882E-18
3.68542E-04 1.63058E-18
4.02802E-04 1.36837E-18
4.38585E-04 1.15687E-18
4.75889E-04 9.84724E-19
5.14715E-04 8.43463E-19
5.55063E-04 7.26659E-19
5.96931E-04 6.29395E-19
6.40321E-04 5.47873E-19
6.85233E-04 4.79127E-19
7.31665E-04 4.20827E-19
7.79618E-04 3.71123E-19
8.29092E-04 3.28537E-19
8.80086E-04 2.91879E-19
9.32601E-04 2.60186E-19
9.86636E-04 2.32673E-19
1.04219E-03 2.08695E-19
1.09927E-03 1.87721E-19
1.15786E-03 1.69311E-19
1.21797E-03 1.53098E-19
1.27961E-03 1.38775E-19
1.34276E-03 1.26084E-19
1.40743E-03 1.14807E-19
1.47362E-03 1.04759E-19
1.54133E-03 9.57832E-20
1.61056E-03 8.77457E-20
1.68131E-03 8.05311E-20
1.75357E-03 7.40405E-20
1.82735E-03 6.81887E-20
1.90265E-03 6.29018E-20
1.97947E-03 5.81158E-20
2.05780E-03 5.37748E-20
2.13765E-03 4.98302E-20
2.21902E-03 4.62395E-20
2.30190E-03 4.29652E-20
2.38630E-03 3.99747E-20
2.47222E-03 3.72389E-20
2.55965E-03 3.47323E-20
2.64859E-03 3.24324E-20
2.73905E-03 3.03189E-20
2.83103E-03 2.83742E-20
2.92452E-03 2.65823E-20
3.01952E-03 2.49292E-20
3.11604E-03 2.34020E-20
3.21407E-03 2.19896E-20
3.31362E-03 2.06817E-20
3.41468E-03 1.94693E-20
3.51725E-03 1.83440E-20
3.62133E-03 1.72985E-20
3.72692E-03 1.63262E-20
3.83403E-03 1.54210E-20
3.94265E-03 1.45773E-20
4.05278E-03 1.37904E-20
4.16442E-03 1.30556E-20
4.27757E-03 1.23689E-20
4.39223E-03 1.17266E-20
4.50840E-03 1.11253E-20
4.62608E-03 1.05618E-20
4.74527E-03 1.00334E-20
4.86597E-03 9.53755E-21
4.98817E-03 9.07178E-21
5.11188E-03 8.63399E-21
5.23711E-03 8.22216E-21
5.36383E-03 7.83449E-21
5.49207E-03 7.46930E-21
5.62181E-03 7.12505E-21
5.75306E-03 6.80031E-21
5.88581E-03 6.49378E-21
6.02007E-03 6.20425E-21
6.15583E-03 5.93060E-21
6.29310E-03 5.67181E-21
6.43187E-03 5.42691E-21
6.57214E-03 5.19503E-21
6.71392E-03 4.97534E-21
6.85720E-03 4.76709E-21
7.00198E-03 4.56956E-21
7.14827E-03 4.38212E-21
7.29605E-03 4.20414E-21
7.44534E-03 4.03506E-21
7.59612E-03 3.87435E-21
7.97965E-03 3.50607E-21
8.37255E-03 3.18033E-21
8.77480E-03 2.89138E-21
9.18641E-03 2.63435E-21
9.60736E-03 2.40512E-21
1.00376E-02 2.20016E-21
1.04773E-02 2.01647E-21
1.09262E-02 1.85146E-21
1.13844E-02 1.70289E-21
1.18520E-02 1.56886E-21
1.23288E-02 1.44768E-21
1.28150E-02 1.33792E-21
1.33104E-02 1.23830E-21
1.38150E-02 1.14773E-21
1.43290E-02 1.06525E-21
1.48521E-02 9.90000E-22
1.53845E-02 9.21239E-22
1.59262E-02 8.58309E-22
1.64770E-02 8.00629E-22
1.70371E-02 7.47682E-22
1.76063E-02 6.99014E-22
1.81848E-02 6.54215E-22
1.87724E-02 6.12925E-22
1.93692E-02 5.74820E-22
1.99751E-02 5.39610E-22
2.05901E-02 5.07037E-22
2.12143E-02 4.76867E-22
2.18476E-02 4.48893E-22
2.24900E-02 4.22925E-22
2.31415E-02 3.98795E-22
2.38021E-02 3.76348E-22
2.44717E-02 3.55447E-22
2.51504E-02 3.35966E-22
2.58382E-02 3.17791E-22
2.65349E-02 3.00819E-22
2.72407E-02 2.84956E-22
2.79555E-02 2.70116E-22
2.86793E-02 2.56223E-22
2.94120E-02 2.43203E-22
3.01537E-02 2.30994E-22
3.09043E-02 2.19534E-22
3.16639E-02 2.08771E-22
3.24324E-02 1.98653E-22
3.32098E-02 1.89135E-22
3.39961E-02 1.80176E-22
3.47912E-02 1.71736E-22
3.55952E-02 1.63780E-22
3.64081E-02 1.56275E-22
3.72297E-02 1.49192E-22
3.80602E-02 1.42501E-22
3.88995E-02 1.36177E-22
3.97476E-02 1.30197E-22
4.06044E-02 1.24539E-22
4.14700E-02 1.19182E-22
4.23443E-02 1.14106E-22
4.32273E-02 1.09296E-22
4.41190E-02 1.04733E-22
4.50194E-02 1.00404E-22
4.59284E-02 9.62937E-23
4.68461E-02 9.23894E-23
4.87074E-02 8.51508E-23
5.06030E-02 7.86001E-23
5.25328E-02 7.26608E-23
5.44967E-02 6.72660E-23
5.64946E-02 6.23572E-23
5.85262E-02 5.78831E-23
6.05914E-02 5.37985E-23
6.26901E-02 5.00637E-23
6.48222E-02 4.66436E-23
6.69873E-02 4.35070E-23
6.91854E-02 4.06264E-23
7.14163E-02 3.79773E-23
7.36799E-02 3.55378E-23
7.59760E-02 3.32885E-23
7.83043E-02 3.12119E-23
8.06647E-02 2.92925E-23
8.30571E-02 2.75164E-23
8.54812E-02 2.58709E-23
8.79369E-02 2.43448E-23
9.04240E-02 2.29278E-23
9.29422E-02 2.16110E-23
9.54915E-02 2.03858E-23
9.80716E-02 1.92449E-23
1.00682E-01 1.81814E-23
1.03323E-01 1.71891E-23
1.05995E-01 1.62625E-23
1.08696E-01 1.53964E-23
1.11427E-01 1.45862E-23
1.14188E-01 1.38277E-23
1.16978E-01 1.31169E-23
1.19797E-01 1.24504E-23
1.22645E-01 1.18249E-23
1.25522E-01 1.12374E-23
1.28428E-01 1.06853E-23
1.31361E-01 1.01660E-23
1.34323E-01 9.67720E-24
1.37313E-01 9.21683E-24
1.40330E-01 8.78294E-24
1.43375E-01 8.37375E-24
1.46447E-01 7.98759E-24
1.49545E-01 7.62295E-24
1.52671E-01 7.27841E-24
1.55823E-01 6.95267E-24
1.59001E-01 6.64452E-24
1.62205E-01 6.35285E-24
1.65435E-01 6.07662E-24
1.68690E-01 5.81488E-24
1.71970E-01 5.56673E-24
1.75276E-01 5.33134E-24
1.78606E-01 5.10793E-24
1.81961E-01 4.89579E-24
1.85340E-01 4.69425E-24
1.88743E-01 4.50270E-24
1.92169E-01 4.32055E-24
1.95619E-01 4.14726E-24
1.99092E-01 3.98232E-24
2.02589E-01 3.82525E-24
2.06107E-01 3.67561E-24
2.09649E-01 3.53300E-24
2.13212E-01 3.39703E-24
2.16797E-01 3.26733E-24
2.20404E-01 3.14357E-24
2.24032E-01 3.02542E-24
2.27680E-01 2.91258E-24
2.31350E-01 2.80477E-24
2.35040E-01 2.70174E-24
2.38751E-01 2.60323E-24
2.42481E-01 2.50901E-24
2.46231E-01 2.41886E-24
2.50000E-01 2.33257E-24
2.53788E-01 2.24995E-24
2.57595E-01 2.17082E-24
2.61421E-01 2.09500E-24
2.65264E-01 2.02233E-24
2.69126E-01 1.95266E-24
2.73005E-01 1.88585E-24
2.76901E-01 1.82175E-24
2.80814E-01 1.76023E-24
2.84744E-01 1.70117E-24
2.88691E-01 1.64446E-24
2.92653E-01 1.59000E-24
2.96632E-01 1.53766E-24
3.00625E-01 1.48737E-24
3.04634E-01 1.43902E-24
3.08658E-01 1.39252E-24
3.12697E-01 1.34779E-24
3.16749E-01 1.30476E-24
3.20816E-01 1.26334E-24
3.24896E-01 1.22347E-24
3.28990E-01 1.18509E-24
3.33097E-01 1.14812E-24
3.37216E-01 1.11250E-24
3.41348E-01 1.07817E-24
3.45492E-01 1.04508E-24
3.49647E-01 1.01319E-24
3.53814E-01 9.82432E-25
3.57992E-01 9.52765E-25
3.62181E-01 9.24141E-25
3.66381E-01 8.96519E-25
3.70590E-01 8.69858E-25
3.74810E-01 8.44122E-25
3.79039E-01 8.19271E-25
3.83277E-01 7.95270E-25
3.87524E-01 7.72083E-25
3.91780E-01 7.49677E-25
3.96044E-01 7.28024E-25
4.00316E-01 7.07094E-25
4.04596E-01 6.86858E-25
4.08882E-01 6.67291E-25
4.13176E-01 6.48365E-25
4.17476E-01 6.30057E-25
4.21783E-01 6.12341E-25
4.26095E-01 5.95197E-25
4.30413E-01 5.78603E-25
4.34737E-01 5.62538E-25
4.39065E-01 5.46983E-25
4.43398E-01 5.31919E-25
4.47736E-01 5.17327E-25
4.52077E-01 5.03190E-25
4.56422E-01 4.89493E-25
4.60770E-01 4.76218E-25
4.65122E-01 4.63351E-25
4.69476E-01 4.50877E-25
4.73832E-01 4.38783E-25
4.78190E-01 4.27054E-25
4.82550E-01 4.15678E-25
4.86912E-01 4.04643E-25
4.91274E-01 3.93937E-25
4.95637E-01 3.83548E-25
5.00000E-01 3.73465E-25
5.04363E-01 3.63678E-25
5.08726E-01 3.54177E-25
5.13088E-01 3.44953E-25
5.17450E-01 3.35995E-25
5.21810E-01 3.27295E-25
5.26168E-01 3.18844E-25
5.30524E-01 3.10635E-25
5.34878E-01 3.02658E-25
5.39230E-01 2.94907E-25
5.43578E-01 2.87374E-25
5.47923E-01 2.80052E-25
5.52264E-01 2.72934E-25
5.56602E-01 2.66014E-25
5.60935E-01 2.59284E-25
5.65263E-01 2.52740E-25
5.69587E-01 2.46375E-25
5.73905E-01 2.40184E-25
5.78217E-01 2.34160E-25
5.82524E-01 2.28300E-25
5.86824E-01 2.22597E-25
5.91118E-01 2.17047E-25
5.95404E-01 2.11646E-25
5.99684E-01 2.06388E-25
6.03956E-01 2.01269E-25
6.08220E-01 1.96285E-25
6.12476E-01 1.91432E-25
6.16723E-01 1.86706E-25
6.20961E-01 1.82103E-25
6.25190E-01 1.77619E-25
6.29410E-01 1.73252E-25
6.33619E-01 1.68997E-25
6.37819E-01 1.64851E-25
6.42008E-01 1.60811E-25
6.46186E-01 1.56874E-25
6.50353E-01 1.53037E-25
6.54508E-01 1.49296E-25
6.58652E-01 1.45650E-25
6.62784E-01 1.42096E-25
6.66903E-01 1.38630E-25
6.71010E-01 1.35251E-25
6.75104E-01 1.31956E-25
6.79184E-01 1.28742E-25
6.83251E-01 1.25607E-25
6.87303E-01 1.22550E-25
6.91342E-01 1.19567E-25
6.95366E-01 1.16658E-25
6.99375E-01 1.13819E-25
7.03368E-01 1.11049E-25
7.07347E-01 1.08346E-25
7.11309E-01 1.05708E-25
7.15256E-01 1.03134E-25
7.19186E-01 1.00621E-25
7.23099E-01 9.81683E-26
7.26995E-01 9.57741E-26
7.30874E-01 9.34368E-26
7.34736E-01 9.11549E-26
7.38579E-01 8.89269E-26
7.42405E-01 8.67514E-26
7.46212E-01 8.46271E-26
7.50000E-01 8.25525E-26
7.53769E-01 8.05265E-26
7.57519E-01 7.85477E-26
7.61249E-01 7.66149E-26
7.64960E-01 7.47270E-26
7.68650E-01 7.28829E-26
7.72320E-01 7.10813E-26
7.75968E-01 6.93213E-26
7.79596E-01 6.76018E-26
7.83203E-01 6.59218E-26
7.86788E-01 6.42802E-26
7.90351E-01 6.26762E-26
7.93893E-01 6.11088E-26
7.97411E-01 5.95772E-26
8.00908E-01 5.80803E-26
8.04381E-01 5.66175E-26
8.07831E-01 5.51878E-26
8.11257E-01 5.37905E-26
8.14660E-01 5.24248E-26
8.18039E-01 5.10899E-26
8.21394E-01 4.97851E-26
8.24724E-01 4.85097E-26
8.28030E-01 4.72630E-26
8.31310E-01 4.60444E-26
8.34565E-01 4.48531E-26
8.37795E-01 4.36885E-26
8.40999E-01 4.25500E-26
8.44177E-01 4.14371E-26
8.47329E-01 4.03491E-26
8.50455E-01 3.92855E-26
8.53553E-01 3.82457E-26
8.56625E-01 3.72291E-26
8.59670E-01 3.62353E-26
8.62687E-01 3.52638E-26
8.65677E-01 3.43140E-26
8.68639E-01 3.33855E-26
8.71572E-01 3.24779E-26
8.74478E-01 3.15905E-26
8.77355E-01 3.07231E-26
8.80203E-01 2.98752E-26
8.83022E-01 2.90464E-26
8.85812E-01 2.82362E-26
8.88573E-01 2.74443E-26
8.91304E-01 2.66703E-26
8.94005E-01 2.59138E-26
8.96677E-01 2.51745E-26
8.99318E-01 2.44520E-26
9.01928E-01 2.37459E-26
9.04508E-01 2.30560E-26
9.07058E-01 2.23819E-26
9.09576E-01 2.17233E-26
9.12063E-01 2.10798E-26
9.14519E-01 2.04512E-26
9.16943E-01 1.98372E-26
9.19335E-01 1.92376E-26
9.21696E-01 1.86519E-26
9.24024E-01 1.80800E-26
9.26320E-01 1.75217E-26
9.28584E-01 1.69766E-26
9.30815E-01 1.64445E-26
9.33013E-01 1.59251E-26
9.35178E-01 1.54183E-26
9.37310E-01 1.49239E-26
9.39409E-01 1.44415E-26
9.41474E-01 1.39710E-26
9.43505E-01 1.35121E-26
9.45503E-01 1.30648E-26
9.47467E-01 1.26287E-26
9.49397E-01 1.22037E-26
9.51293E-01 1.17896E-26
9.53154E-01 1.13862E-26
9.54981E-01 1.09934E-26
9.56773E-01 1.06110E-26
9.58530E-01 1.02388E-26
9.60252E-01 9.87664E-27
9.61940E-01 9.52439E-27
9.63592E-01 9.18190E-27
9.65209E-01 8.84902E-27
9.66790E-01 8.52561E-27
9.68336E-01 8.21154E-27
9.69846E-01 7.90667E-27
9.71321E-01 7.61088E-27
9.72759E-01 7.32404E-27
9.74162E-01 7.04603E-27
9.75528E-01 6.77675E-27
9.76858E-01 6.51607E-27
9.78152E-01 6.26389E-27
9.79410E-01 6.02011E-27
9.80631E-01 5.78463E-27
9.81815E-01 5.55734E-27
9.82963E-01 5.33816E-27
9.84074E-01 5.12700E-27
9.85148E-01 4.92378E-27
9.86185E-01 4.72840E-27
9.87185E-01 4.54079E-27
9.88148E-01 4.36087E-27
9.89074E-01 4.18858E-27
9.89962E-01 4.02383E-27
9.90814E-01 3.86658E-27
9.91627E-01 3.71674E-27
9.92404E-01 3.57427E-27
9.93143E-01 3.43911E-27
9.93844E-01 3.31119E-27
9.94508E-01 3.19048E-27
9.95134E-01 3.07691E-27
9.95722E-01 2.97046E-27
9.96273E-01 2.87107E-27
9.96786E-01 2.77870E-27
9.97261E-01 2.69332E-27
9.97698E-01 2.61490E-27
9.98097E-01 2.54339E-27
9.98459E-01 2.47879E-27
9.98782E-01 2.42105E-27
9.99067E-01 2.37016E-27
9.99315E-01 2.32609E-27
9.99524E-01 2.28883E-27
9.99695E-01 2.25837E-27
9.99829E-01 2.23469E-27
9.99924E-01 2.21778E-27
9.99981E-01 2.20764E-27
1.00000E+00 2.20426E-27
