 #
 # Subroutine ELSEPA. Elastic scattering of electrons and positrons
 #                    by neutral atoms and positive ions
 #
 # Projectile: positron
 # Kinetic energy = 4.50000E+07 eV = 1.65372E+06 a.u.
 #
 # WARNING: High-energy factorization with free-atom DF screening.
 #          Absorption, polarization and exchange corrections are
 #          switched off.
 #          Phase shifts are calculated for the bare nucleus.
 #          Scattering amplitudes are not evaluated.
 #
 # Element: Tb,  Z =  65,  atomic weight = 1.58925E+02 g/mol
 #
 # Nuclear model: Fermi distribution
 #                Average radius = 5.79582E-13 cm
 #                Skin thickness = 5.46000E-14 cm
 #
 # Number of electrons = 65
 #
 # Total elastic cross section = 7.14661E-18 cm**2 = 2.55210E-01 a0**2
 # 1st transport cross section = 3.57775E-24 cm**2 = 1.27764E-07 a0**2
 # 2nd transport cross section = 1.04916E-23 cm**2 = 3.74661E-07 a0**2
 #
 #
 # Differential cross section:                       MU=(1-COS(THETA))/2
 #
 #  THETA        MU          DCS          DCS        Sherman      error
 #  (deg)                 (cm**2/sr)   (a0**2/sr)    function
 #----------------------------------------------------------------------
0.00000E+00 1.69239E-10
7.61557E-13 1.69069E-10
1.18994E-12 1.68975E-10
1.71346E-12 1.68859E-10
2.33225E-12 1.68723E-10
3.04617E-12 1.68566E-10
3.85530E-12 1.68388E-10
4.75964E-12 1.68190E-10
5.75917E-12 1.67972E-10
6.85391E-12 1.67733E-10
8.04379E-12 1.67474E-10
9.32893E-12 1.67196E-10
1.07092E-11 1.66897E-10
1.21847E-11 1.66579E-10
1.37554E-11 1.66241E-10
1.54213E-11 1.65885E-10
1.71823E-11 1.65509E-10
1.90386E-11 1.65115E-10
2.09900E-11 1.64702E-10
2.30367E-11 1.64270E-10
2.51785E-11 1.63821E-10
2.74156E-11 1.63354E-10
2.97478E-11 1.62870E-10
3.21752E-11 1.62368E-10
3.46979E-11 1.61849E-10
3.73157E-11 1.61314E-10
4.00286E-11 1.60762E-10
4.28368E-11 1.60195E-10
4.57402E-11 1.59611E-10
4.87388E-11 1.59013E-10
5.18325E-11 1.58399E-10
5.50215E-11 1.57770E-10
5.83057E-11 1.57127E-10
6.16850E-11 1.56470E-10
6.51595E-11 1.55800E-10
6.87293E-11 1.55116E-10
7.23943E-11 1.54419E-10
7.61544E-11 1.53710E-10
1.18991E-10 1.46015E-10
1.71347E-10 1.37446E-10
2.33223E-10 1.28416E-10
3.04617E-10 1.19220E-10
3.85531E-10 1.10128E-10
4.75965E-10 1.01352E-10
5.75917E-10 9.30429E-11
6.85389E-10 8.53137E-11
8.04380E-10 7.82327E-11
9.32891E-10 7.17733E-11
1.07092E-09 6.59224E-11
1.21847E-09 6.06498E-11
1.37554E-09 5.59144E-11
1.54213E-09 5.16780E-11
1.71823E-09 4.78876E-11
1.90386E-09 4.44827E-11
2.09900E-09 4.14199E-11
2.30367E-09 3.86592E-11
2.51785E-09 3.61646E-11
2.74156E-09 3.39036E-11
2.97478E-09 3.18448E-11
3.21752E-09 2.99633E-11
3.46978E-09 2.82384E-11
3.73156E-09 2.66521E-11
4.00286E-09 2.51888E-11
4.28368E-09 2.38311E-11
4.57402E-09 2.25690E-11
4.87388E-09 2.13942E-11
5.18326E-09 2.02983E-11
5.50215E-09 1.92739E-11
5.83057E-09 1.83146E-11
6.16850E-09 1.74103E-11
6.51596E-09 1.65600E-11
6.87293E-09 1.57601E-11
7.23942E-09 1.50069E-11
7.61544E-09 1.42968E-11
1.18991E-08 8.92671E-12
1.71347E-08 5.85899E-12
2.33223E-08 3.94902E-12
3.04617E-08 2.76403E-12
3.85531E-08 1.99407E-12
4.75965E-08 1.47406E-12
5.75917E-08 1.11123E-12
6.85389E-08 8.50338E-13
8.04380E-08 6.58562E-13
9.32891E-08 5.17020E-13
1.07092E-07 4.10946E-13
1.21847E-07 3.30409E-13
1.37554E-07 2.68552E-13
1.54213E-07 2.20463E-13
1.71823E-07 1.82733E-13
1.90386E-07 1.52897E-13
2.09900E-07 1.29049E-13
2.30367E-07 1.09794E-13
2.51785E-07 9.41009E-14
2.74156E-07 8.12036E-14
2.97478E-07 7.04387E-14
3.21752E-07 6.14396E-14
3.46978E-07 5.38680E-14
3.73156E-07 4.74538E-14
4.00286E-07 4.19842E-14
4.28368E-07 3.72821E-14
4.57402E-07 3.32205E-14
4.87388E-07 2.96970E-14
5.18325E-07 2.66262E-14
5.50215E-07 2.39389E-14
5.83057E-07 2.15787E-14
6.16850E-07 1.94955E-14
6.51596E-07 1.76554E-14
6.87293E-07 1.60262E-14
7.23942E-07 1.45797E-14
7.61543E-07 1.32920E-14
1.18991E-06 5.80674E-15
1.71347E-06 2.92266E-15
2.33223E-06 1.62849E-15
3.04617E-06 9.78623E-16
3.85531E-06 6.23191E-16
4.75964E-06 4.15456E-16
5.75916E-06 2.87452E-16
6.85388E-06 2.05104E-16
8.04378E-06 1.50197E-16
9.32888E-06 1.12461E-16
1.07092E-05 8.58438E-17
1.21846E-05 6.66436E-17
1.37553E-05 5.25163E-17
1.54212E-05 4.19375E-17
1.71822E-05 3.38910E-17
1.90385E-05 2.76717E-17
2.09899E-05 2.28363E-17
2.30365E-05 1.90096E-17
2.51783E-05 1.59480E-17
2.74153E-05 1.34757E-17
2.97475E-05 1.14630E-17
3.21749E-05 9.81227E-18
3.46974E-05 8.44894E-18
3.73152E-05 7.31524E-18
4.00281E-05 6.36615E-18
4.28362E-05 5.56642E-18
4.57395E-05 4.88837E-18
4.87380E-05 4.31026E-18
5.18317E-05 3.81485E-18
5.50205E-05 3.38841E-18
5.83045E-05 3.01982E-18
6.16838E-05 2.70001E-18
6.51582E-05 2.42150E-18
6.87277E-05 2.17805E-18
7.23925E-05 1.96449E-18
7.61524E-05 1.77655E-18
9.21439E-05 1.21597E-18
1.09658E-04 8.59866E-19
1.28695E-04 6.25048E-19
1.49255E-04 4.65078E-19
1.71338E-04 3.53136E-19
1.94942E-04 2.72893E-19
2.20070E-04 2.14177E-19
2.46720E-04 1.70420E-19
2.74892E-04 1.37272E-19
3.04586E-04 1.11797E-19
3.35803E-04 9.19580E-20
3.68542E-04 7.63251E-20
4.02802E-04 6.38726E-20
4.38585E-04 5.38553E-20
4.75889E-04 4.57242E-20
5.14715E-04 3.90688E-20
5.55063E-04 3.35795E-20
5.96931E-04 2.90196E-20
6.40321E-04 2.52068E-20
6.85233E-04 2.19990E-20
7.31665E-04 1.92847E-20
7.79618E-04 1.69755E-20
8.29092E-04 1.50013E-20
8.80086E-04 1.33053E-20
9.32601E-04 1.18418E-20
9.86636E-04 1.05737E-20
1.04219E-03 9.47053E-21
1.09927E-03 8.50723E-21
1.15786E-03 7.66306E-21
1.21797E-03 6.92080E-21
1.27961E-03 6.26606E-21
1.34276E-03 5.68676E-21
1.40743E-03 5.17271E-21
1.47362E-03 4.71529E-21
1.54133E-03 4.30721E-21
1.61056E-03 3.94222E-21
1.68131E-03 3.61497E-21
1.75357E-03 3.32088E-21
1.82735E-03 3.05602E-21
1.90265E-03 2.81696E-21
1.97947E-03 2.60075E-21
2.05780E-03 2.40483E-21
2.13765E-03 2.22696E-21
2.21902E-03 2.06518E-21
2.30190E-03 1.91778E-21
2.38630E-03 1.78325E-21
2.47222E-03 1.66027E-21
2.55965E-03 1.54768E-21
2.64859E-03 1.44444E-21
2.73905E-03 1.34963E-21
2.83103E-03 1.26244E-21
2.92452E-03 1.18216E-21
3.01952E-03 1.10813E-21
3.11604E-03 1.03979E-21
3.21407E-03 9.76609E-22
3.31362E-03 9.18138E-22
3.41468E-03 8.63958E-22
3.51725E-03 8.13701E-22
3.62133E-03 7.67030E-22
3.72692E-03 7.23642E-22
3.83403E-03 6.83264E-22
3.94265E-03 6.45652E-22
4.05278E-03 6.10581E-22
4.16442E-03 5.77847E-22
4.27757E-03 5.47268E-22
4.39223E-03 5.18675E-22
4.50840E-03 4.91916E-22
4.62608E-03 4.66851E-22
4.74527E-03 4.43356E-22
4.86597E-03 4.21312E-22
4.98817E-03 4.00613E-22
5.11188E-03 3.81164E-22
5.23711E-03 3.62875E-22
5.36383E-03 3.45663E-22
5.49207E-03 3.29454E-22
5.62181E-03 3.14179E-22
5.75306E-03 2.99774E-22
5.88581E-03 2.86180E-22
6.02007E-03 2.73343E-22
6.15583E-03 2.61214E-22
6.29310E-03 2.49746E-22
6.43187E-03 2.38897E-22
6.57214E-03 2.28627E-22
6.71392E-03 2.18900E-22
6.85720E-03 2.09681E-22
7.00198E-03 2.00939E-22
7.14827E-03 1.92645E-22
7.29605E-03 1.84771E-22
7.44534E-03 1.77293E-22
7.59612E-03 1.70187E-22
7.97965E-03 1.53909E-22
8.37255E-03 1.39519E-22
8.77480E-03 1.26761E-22
9.18641E-03 1.15418E-22
9.60736E-03 1.05307E-22
1.00376E-02 9.62712E-23
1.04773E-02 8.81767E-23
1.09262E-02 8.09089E-23
1.13844E-02 7.43687E-23
1.18520E-02 6.84708E-23
1.23288E-02 6.31402E-23
1.28150E-02 5.83139E-23
1.33104E-02 5.39358E-23
1.38150E-02 4.99572E-23
1.43290E-02 4.63353E-23
1.48521E-02 4.30325E-23
1.53845E-02 4.00159E-23
1.59262E-02 3.72563E-23
1.64770E-02 3.47281E-23
1.70371E-02 3.24084E-23
1.76063E-02 3.02771E-23
1.81848E-02 2.83162E-23
1.87724E-02 2.65096E-23
1.93692E-02 2.48432E-23
1.99751E-02 2.33041E-23
2.05901E-02 2.18809E-23
2.12143E-02 2.05633E-23
2.18476E-02 1.93421E-23
2.24900E-02 1.82091E-23
2.31415E-02 1.71568E-23
2.38021E-02 1.61783E-23
2.44717E-02 1.52676E-23
2.51504E-02 1.44192E-23
2.58382E-02 1.36281E-23
2.65349E-02 1.28897E-23
2.72407E-02 1.21998E-23
2.79555E-02 1.15549E-23
2.86793E-02 1.09513E-23
2.94120E-02 1.03860E-23
3.01537E-02 9.85606E-24
3.09043E-02 9.35898E-24
3.16639E-02 8.89232E-24
3.24324E-02 8.45389E-24
3.32098E-02 8.04168E-24
3.39961E-02 7.65385E-24
3.47912E-02 7.28871E-24
3.55952E-02 6.94468E-24
3.64081E-02 6.62034E-24
3.72297E-02 6.31436E-24
3.80602E-02 6.02551E-24
3.88995E-02 5.75267E-24
3.97476E-02 5.49480E-24
4.06044E-02 5.25093E-24
4.14700E-02 5.02016E-24
4.23443E-02 4.80167E-24
4.32273E-02 4.59469E-24
4.41190E-02 4.39851E-24
4.50194E-02 4.21246E-24
4.59284E-02 4.03593E-24
4.68461E-02 3.86834E-24
4.87074E-02 3.55792E-24
5.06030E-02 3.27734E-24
5.25328E-02 3.02326E-24
5.44967E-02 2.79276E-24
5.64946E-02 2.58330E-24
5.85262E-02 2.39264E-24
6.05914E-02 2.21881E-24
6.26901E-02 2.06008E-24
6.48222E-02 1.91492E-24
6.69873E-02 1.78198E-24
6.91854E-02 1.66006E-24
7.14163E-02 1.54810E-24
7.36799E-02 1.44514E-24
7.59760E-02 1.35036E-24
7.83043E-02 1.26298E-24
8.06647E-02 1.18234E-24
8.30571E-02 1.10783E-24
8.54812E-02 1.03891E-24
8.79369E-02 9.75096E-25
9.04240E-02 9.15939E-25
9.29422E-02 8.61047E-25
9.54915E-02 8.10063E-25
9.80716E-02 7.62662E-25
1.00682E-01 7.18553E-25
1.03323E-01 6.77469E-25
1.05995E-01 6.39169E-25
1.08696E-01 6.03434E-25
1.11427E-01 5.70064E-25
1.14188E-01 5.38877E-25
1.16978E-01 5.09708E-25
1.19797E-01 4.82405E-25
1.22645E-01 4.56829E-25
1.25522E-01 4.32853E-25
1.28428E-01 4.10362E-25
1.31361E-01 3.89248E-25
1.34323E-01 3.69415E-25
1.37313E-01 3.50771E-25
1.40330E-01 3.33234E-25
1.43375E-01 3.16729E-25
1.46447E-01 3.01184E-25
1.49545E-01 2.86535E-25
1.52671E-01 2.72722E-25
1.55823E-01 2.59690E-25
1.59001E-01 2.47388E-25
1.62205E-01 2.35769E-25
1.65435E-01 2.24788E-25
1.68690E-01 2.14406E-25
1.71970E-01 2.04584E-25
1.75276E-01 1.95288E-25
1.78606E-01 1.86485E-25
1.81961E-01 1.78145E-25
1.85340E-01 1.70240E-25
1.88743E-01 1.62743E-25
1.92169E-01 1.55631E-25
1.95619E-01 1.48880E-25
1.99092E-01 1.42469E-25
2.02589E-01 1.36380E-25
2.06107E-01 1.30592E-25
2.09649E-01 1.25090E-25
2.13212E-01 1.19856E-25
2.16797E-01 1.14876E-25
2.20404E-01 1.10135E-25
2.24032E-01 1.05621E-25
2.27680E-01 1.01320E-25
2.31350E-01 9.72222E-26
2.35040E-01 9.33153E-26
2.38751E-01 8.95895E-26
2.42481E-01 8.60351E-26
2.46231E-01 8.26432E-26
2.50000E-01 7.94051E-26
2.53788E-01 7.63130E-26
2.57595E-01 7.33592E-26
2.61421E-01 7.05367E-26
2.65264E-01 6.78387E-26
2.69126E-01 6.52591E-26
2.73005E-01 6.27919E-26
2.76901E-01 6.04314E-26
2.80814E-01 5.81724E-26
2.84744E-01 5.60100E-26
2.88691E-01 5.39393E-26
2.92653E-01 5.19560E-26
2.96632E-01 5.00559E-26
3.00625E-01 4.82349E-26
3.04634E-01 4.64893E-26
3.08658E-01 4.48157E-26
3.12697E-01 4.32104E-26
3.16749E-01 4.16705E-26
3.20816E-01 4.01929E-26
3.24896E-01 3.87747E-26
3.28990E-01 3.74132E-26
3.33097E-01 3.61058E-26
3.37216E-01 3.48500E-26
3.41348E-01 3.36436E-26
3.45492E-01 3.24844E-26
3.49647E-01 3.13703E-26
3.53814E-01 3.02992E-26
3.57992E-01 2.92693E-26
3.62181E-01 2.82788E-26
3.66381E-01 2.73260E-26
3.70590E-01 2.64092E-26
3.74810E-01 2.55270E-26
3.79039E-01 2.46778E-26
3.83277E-01 2.38603E-26
3.87524E-01 2.30731E-26
3.91780E-01 2.23149E-26
3.96044E-01 2.15846E-26
4.00316E-01 2.08809E-26
4.04596E-01 2.02028E-26
4.08882E-01 1.95493E-26
4.13176E-01 1.89193E-26
4.17476E-01 1.83119E-26
4.21783E-01 1.77261E-26
4.26095E-01 1.71611E-26
4.30413E-01 1.66161E-26
4.34737E-01 1.60903E-26
4.39065E-01 1.55829E-26
4.43398E-01 1.50931E-26
4.47736E-01 1.46204E-26
4.52077E-01 1.41640E-26
4.56422E-01 1.37233E-26
4.60770E-01 1.32977E-26
4.65122E-01 1.28866E-26
4.69476E-01 1.24895E-26
4.73832E-01 1.21058E-26
4.78190E-01 1.17350E-26
4.82550E-01 1.13766E-26
4.86912E-01 1.10302E-26
4.91274E-01 1.06954E-26
4.95637E-01 1.03716E-26
5.00000E-01 1.00585E-26
5.04363E-01 9.75571E-27
5.08726E-01 9.46281E-27
5.13088E-01 9.17946E-27
5.17450E-01 8.90530E-27
5.21810E-01 8.64002E-27
5.26168E-01 8.38328E-27
5.30524E-01 8.13479E-27
5.34878E-01 7.89424E-27
5.39230E-01 7.66135E-27
5.43578E-01 7.43586E-27
5.47923E-01 7.21749E-27
5.52264E-01 7.00601E-27
5.56602E-01 6.80116E-27
5.60935E-01 6.60273E-27
5.65263E-01 6.41048E-27
5.69587E-01 6.22419E-27
5.73905E-01 6.04368E-27
5.78217E-01 5.86873E-27
5.82524E-01 5.69916E-27
5.86824E-01 5.53478E-27
5.91118E-01 5.37543E-27
5.95404E-01 5.22092E-27
5.99684E-01 5.07109E-27
6.03956E-01 4.92580E-27
6.08220E-01 4.78488E-27
6.12476E-01 4.64819E-27
6.16723E-01 4.51560E-27
6.20961E-01 4.38696E-27
6.25190E-01 4.26214E-27
6.29410E-01 4.14103E-27
6.33619E-01 4.02350E-27
6.37819E-01 3.90943E-27
6.42008E-01 3.79871E-27
6.46186E-01 3.69124E-27
6.50353E-01 3.58690E-27
6.54508E-01 3.48560E-27
6.58652E-01 3.38724E-27
6.62784E-01 3.29173E-27
6.66903E-01 3.19897E-27
6.71010E-01 3.10888E-27
6.75104E-01 3.02138E-27
6.79184E-01 2.93638E-27
6.83251E-01 2.85381E-27
6.87303E-01 2.77359E-27
6.91342E-01 2.69564E-27
6.95366E-01 2.61990E-27
6.99375E-01 2.54630E-27
7.03368E-01 2.47477E-27
7.07347E-01 2.40525E-27
7.11309E-01 2.33767E-27
7.15256E-01 2.27199E-27
7.19186E-01 2.20813E-27
7.23099E-01 2.14605E-27
7.26995E-01 2.08569E-27
7.30874E-01 2.02701E-27
7.34736E-01 1.96994E-27
7.38579E-01 1.91444E-27
7.42405E-01 1.86046E-27
7.46212E-01 1.80797E-27
7.50000E-01 1.75691E-27
7.53769E-01 1.70724E-27
7.57519E-01 1.65893E-27
7.61249E-01 1.61193E-27
7.64960E-01 1.56620E-27
7.68650E-01 1.52171E-27
7.72320E-01 1.47842E-27
7.75968E-01 1.43630E-27
7.79596E-01 1.39531E-27
7.83203E-01 1.35542E-27
7.86788E-01 1.31659E-27
7.90351E-01 1.27881E-27
7.93893E-01 1.24203E-27
7.97411E-01 1.20624E-27
8.00908E-01 1.17139E-27
8.04381E-01 1.13747E-27
8.07831E-01 1.10445E-27
8.11257E-01 1.07231E-27
8.14660E-01 1.04101E-27
8.18039E-01 1.01054E-27
8.21394E-01 9.80876E-28
8.24724E-01 9.51989E-28
8.28030E-01 9.23862E-28
8.31310E-01 8.96474E-28
8.34565E-01 8.69803E-28
8.37795E-01 8.43831E-28
8.40999E-01 8.18539E-28
8.44177E-01 7.93908E-28
8.47329E-01 7.69920E-28
8.50455E-01 7.46558E-28
8.53553E-01 7.23806E-28
8.56625E-01 7.01646E-28
8.59670E-01 6.80064E-28
8.62687E-01 6.59043E-28
8.65677E-01 6.38570E-28
8.68639E-01 6.18629E-28
8.71572E-01 5.99207E-28
8.74478E-01 5.80290E-28
8.77355E-01 5.61865E-28
8.80203E-01 5.43919E-28
8.83022E-01 5.26440E-28
8.85812E-01 5.09416E-28
8.88573E-01 4.92835E-28
8.91304E-01 4.76686E-28
8.94005E-01 4.60958E-28
8.96677E-01 4.45641E-28
8.99318E-01 4.30723E-28
9.01928E-01 4.16196E-28
9.04508E-01 4.02049E-28
9.07058E-01 3.88273E-28
9.09576E-01 3.74859E-28
9.12063E-01 3.61798E-28
9.14519E-01 3.49081E-28
9.16943E-01 3.36700E-28
9.19335E-01 3.24647E-28
9.21696E-01 3.12915E-28
9.24024E-01 3.01494E-28
9.26320E-01 2.90379E-28
9.28584E-01 2.79562E-28
9.30815E-01 2.69036E-28
9.33013E-01 2.58794E-28
9.35178E-01 2.48829E-28
9.37310E-01 2.39136E-28
9.39409E-01 2.29708E-28
9.41474E-01 2.20540E-28
9.43505E-01 2.11624E-28
9.45503E-01 2.02957E-28
9.47467E-01 1.94532E-28
9.49397E-01 1.86344E-28
9.51293E-01 1.78388E-28
9.53154E-01 1.70659E-28
9.54981E-01 1.63152E-28
9.56773E-01 1.55863E-28
9.58530E-01 1.48787E-28
9.60252E-01 1.41920E-28
9.61940E-01 1.35258E-28
9.63592E-01 1.28796E-28
9.65209E-01 1.22530E-28
9.66790E-01 1.16457E-28
9.68336E-01 1.10573E-28
9.69846E-01 1.04875E-28
9.71321E-01 9.93587E-29
9.72759E-01 9.40210E-29
9.74162E-01 8.88588E-29
9.75528E-01 8.38690E-29
9.76858E-01 7.90485E-29
9.78152E-01 7.43945E-29
9.79410E-01 6.99043E-29
9.80631E-01 6.55750E-29
9.81815E-01 6.14042E-29
9.82963E-01 5.73894E-29
9.84074E-01 5.35281E-29
9.85148E-01 4.98182E-29
9.86185E-01 4.62574E-29
9.87185E-01 4.28435E-29
9.88148E-01 3.95747E-29
9.89074E-01 3.64490E-29
9.89962E-01 3.34645E-29
9.90814E-01 3.06194E-29
9.91627E-01 2.79122E-29
9.92404E-01 2.53413E-29
9.93143E-01 2.29050E-29
9.93844E-01 2.06021E-29
9.94508E-01 1.84311E-29
9.95134E-01 1.63909E-29
9.95722E-01 1.44801E-29
9.96273E-01 1.26978E-29
9.96786E-01 1.10428E-29
9.97261E-01 9.51422E-30
9.97698E-01 8.11117E-30
9.98097E-01 6.83283E-30
9.98459E-01 5.67845E-30
9.98782E-01 4.64737E-30
9.99067E-01 3.73899E-30
9.99315E-01 2.95279E-30
9.99524E-01 2.28831E-30
9.99695E-01 1.74516E-30
9.99829E-01 1.32305E-30
9.99924E-01 1.02170E-30
9.99981E-01 8.40970E-31
1.00000E+00 7.80741E-31
