 #
 # Subroutine ELSEPA. Elastic scattering of electrons and positrons
 #                    by neutral atoms and positive ions
 #
 # Projectile: positron
 # Kinetic energy = 7.00000E+08 eV = 2.57245E+07 a.u.
 #
 # WARNING: High-energy factorization with free-atom DF screening.
 #          Absorption, polarization and exchange corrections are
 #          switched off.
 #          Phase shifts are calculated for the bare nucleus.
 #          Scattering amplitudes are not evaluated.
 #
 # Element: Tb,  Z =  65,  atomic weight = 1.58925E+02 g/mol
 #
 # Nuclear model: Fermi distribution
 #                Average radius = 5.79582E-13 cm
 #                Skin thickness = 5.46000E-14 cm
 #
 # Number of electrons = 65
 #
 # Total elastic cross section = 7.11290E-18 cm**2 = 2.54006E-01 a0**2
 # 1st transport cross section = 1.64513E-26 cm**2 = 5.87487E-10 a0**2
 # 2nd transport cross section = 4.93440E-26 cm**2 = 1.76211E-09 a0**2
 #
 #
 # Differential cross section:                       MU=(1-COS(THETA))/2
 #
 #  THETA        MU          DCS          DCS        Sherman      error
 #  (deg)                 (cm**2/sr)   (a0**2/sr)    function
 #----------------------------------------------------------------------
0.00000E+00 4.00956E-08
7.61557E-13 3.22343E-08
1.18994E-12 2.89076E-08
1.71346E-12 2.55922E-08
2.33225E-12 2.24725E-08
3.04617E-12 1.96719E-08
3.85530E-12 1.72199E-08
4.75964E-12 1.51106E-08
5.75917E-12 1.33186E-08
6.85391E-12 1.18090E-08
8.04379E-12 1.05307E-08
9.32893E-12 9.44486E-09
1.07092E-11 8.51826E-09
1.21847E-11 7.72061E-09
1.37554E-11 7.02801E-09
1.54213E-11 6.42193E-09
1.71823E-11 5.88582E-09
1.90386E-11 5.40915E-09
2.09900E-11 4.98283E-09
2.30367E-11 4.59883E-09
2.51785E-11 4.25052E-09
2.74156E-11 3.93460E-09
2.97478E-11 3.64714E-09
3.21752E-11 3.38376E-09
3.46979E-11 3.14255E-09
3.73157E-11 2.92169E-09
4.00286E-11 2.71904E-09
4.28368E-11 2.53199E-09
4.57402E-11 2.36014E-09
4.87388E-11 2.19225E-09
5.18325E-11 2.03675E-09
5.50215E-11 1.89779E-09
5.83057E-11 1.77323E-09
6.16850E-11 1.66128E-09
6.51595E-11 1.56037E-09
6.87293E-11 1.46917E-09
7.23943E-11 1.38655E-09
7.61544E-11 1.29942E-09
1.18991E-10 7.27137E-10
1.71347E-10 4.39219E-10
2.33223E-10 2.80421E-10
3.04617E-10 1.85532E-10
3.85531E-10 1.26821E-10
4.75965E-10 8.92802E-11
5.75917E-10 6.45303E-11
6.85389E-10 4.77550E-11
8.04380E-10 3.61669E-11
9.32891E-10 2.79596E-11
1.07092E-09 2.20030E-11
1.21847E-09 1.75870E-11
1.37554E-09 1.42393E-11
1.54213E-09 1.16692E-11
1.71823E-09 9.65961E-12
1.90386E-09 8.06849E-12
2.09900E-09 6.79231E-12
2.30367E-09 5.75654E-12
2.51785E-09 4.90779E-12
2.74156E-09 4.20871E-12
2.97478E-09 3.62909E-12
3.21752E-09 3.14487E-12
3.46978E-09 2.73824E-12
3.73156E-09 2.39491E-12
4.00286E-09 2.10336E-12
4.28368E-09 1.85426E-12
4.57402E-09 1.64082E-12
4.87388E-09 1.45646E-12
5.18326E-09 1.29755E-12
5.50215E-09 1.16044E-12
5.83057E-09 1.04065E-12
6.16850E-09 9.35671E-13
6.51596E-09 8.44005E-13
6.87293E-09 7.63254E-13
7.23942E-09 6.91684E-13
7.61544E-09 6.28550E-13
1.18991E-08 2.69163E-13
1.71347E-08 1.33891E-13
2.33223E-08 7.39014E-14
3.04617E-08 4.40318E-14
3.85531E-08 2.78238E-14
4.75965E-08 1.84241E-14
5.75917E-08 1.26746E-14
6.85389E-08 9.00107E-15
8.04380E-08 6.56654E-15
9.32891E-08 4.90208E-15
1.07092E-07 3.73316E-15
1.21847E-07 2.89285E-15
1.37554E-07 2.27628E-15
1.54213E-07 1.81563E-15
1.71823E-07 1.46587E-15
1.90386E-07 1.19644E-15
2.09900E-07 9.86175E-16
2.30367E-07 8.20144E-16
2.51785E-07 6.87633E-16
2.74156E-07 5.80835E-16
2.97478E-07 4.93988E-16
3.21752E-07 4.22781E-16
3.46978E-07 3.63950E-16
3.73156E-07 3.15004E-16
4.00286E-07 2.74013E-16
4.28368E-07 2.39476E-16
4.57402E-07 2.10211E-16
4.87388E-07 1.85281E-16
5.18325E-07 1.63937E-16
5.50215E-07 1.45579E-16
5.83057E-07 1.29719E-16
6.16850E-07 1.15961E-16
6.51596E-07 1.03977E-16
6.87293E-07 9.35020E-17
7.23942E-07 8.43128E-17
7.61543E-07 7.62245E-17
1.18991E-06 3.13144E-17
1.71347E-06 1.51256E-17
2.33223E-06 8.17183E-18
3.04617E-06 4.79269E-18
3.85531E-06 2.99296E-18
4.75964E-06 1.96400E-18
5.75916E-06 1.34154E-18
6.85388E-06 9.47222E-19
8.04378E-06 6.87684E-19
9.32888E-06 5.11236E-19
1.07092E-05 3.87910E-19
1.21846E-05 2.99619E-19
1.37553E-05 2.35073E-19
1.54212E-05 1.87005E-19
1.71822E-05 1.50615E-19
1.90385E-05 1.22606E-19
2.09899E-05 1.00907E-19
2.30365E-05 8.37903E-20
2.51783E-05 7.01365E-20
2.74153E-05 5.91401E-20
2.97475E-05 5.02096E-20
3.21749E-05 4.29017E-20
3.46974E-05 3.68788E-20
3.73152E-05 3.18801E-20
4.00281E-05 2.77031E-20
4.28362E-05 2.41894E-20
4.57395E-05 2.12153E-20
4.87380E-05 1.86835E-20
5.18317E-05 1.65169E-20
5.50205E-05 1.46543E-20
5.83045E-05 1.30465E-20
6.16838E-05 1.16533E-20
6.51582E-05 1.04415E-20
6.87277E-05 9.38340E-21
7.23925E-05 8.45621E-21
7.61524E-05 7.70490E-21
9.21439E-05 5.25448E-21
1.09658E-04 3.70189E-21
1.28695E-04 2.68039E-21
1.49255E-04 1.98592E-21
1.71338E-04 1.50091E-21
1.94942E-04 1.15392E-21
2.20070E-04 9.00542E-22
2.46720E-04 7.12128E-22
2.74892E-04 5.69735E-22
3.04586E-04 4.60585E-22
3.35803E-04 3.75825E-22
3.68542E-04 3.09245E-22
4.02802E-04 2.56394E-22
4.38585E-04 2.14039E-22
4.75889E-04 1.79801E-22
5.14715E-04 1.51904E-22
5.55063E-04 1.29007E-22
5.96931E-04 1.10088E-22
6.40321E-04 9.43586E-23
6.85233E-04 8.12060E-23
7.31665E-04 7.01496E-23
7.79618E-04 6.08094E-23
8.29092E-04 5.28827E-23
8.80086E-04 4.61269E-23
9.32601E-04 4.03459E-23
9.86636E-04 3.53807E-23
1.04219E-03 3.11012E-23
1.09927E-03 2.74006E-23
1.15786E-03 2.41908E-23
1.21797E-03 2.13987E-23
1.27961E-03 1.89634E-23
1.34276E-03 1.68338E-23
1.40743E-03 1.49671E-23
1.47362E-03 1.33271E-23
1.54133E-03 1.18833E-23
1.61056E-03 1.06097E-23
1.68131E-03 9.48402E-24
1.75357E-03 8.48737E-24
1.82735E-03 7.60345E-24
1.90265E-03 6.81829E-24
1.97947E-03 6.11982E-24
2.05780E-03 5.49757E-24
2.13765E-03 4.94252E-24
2.21902E-03 4.44677E-24
2.30190E-03 4.00347E-24
2.38630E-03 3.60664E-24
2.47222E-03 3.25104E-24
2.55965E-03 2.93207E-24
2.64859E-03 2.64569E-24
2.73905E-03 2.38836E-24
2.83103E-03 2.15693E-24
2.92452E-03 1.94866E-24
3.01952E-03 1.76108E-24
3.11604E-03 1.59204E-24
3.21407E-03 1.43960E-24
3.31362E-03 1.30206E-24
3.41468E-03 1.17791E-24
3.51725E-03 1.06577E-24
3.62133E-03 9.64452E-25
3.72692E-03 8.72867E-25
3.83403E-03 7.90052E-25
3.94265E-03 7.15143E-25
4.05278E-03 6.47366E-25
4.16442E-03 5.86025E-25
4.27757E-03 5.30497E-25
4.39223E-03 4.80221E-25
4.50840E-03 4.34695E-25
4.62608E-03 3.93462E-25
4.74527E-03 3.56116E-25
4.86597E-03 3.22286E-25
4.98817E-03 2.91642E-25
5.11188E-03 2.63881E-25
5.23711E-03 2.38734E-25
5.36383E-03 2.15955E-25
5.49207E-03 1.95322E-25
5.62181E-03 1.76635E-25
5.75306E-03 1.59712E-25
5.88581E-03 1.44388E-25
6.02007E-03 1.30515E-25
6.15583E-03 1.17958E-25
6.29310E-03 1.06593E-25
6.43187E-03 9.63104E-26
6.57214E-03 8.70089E-26
6.71392E-03 7.85971E-26
6.85720E-03 7.09919E-26
7.00198E-03 6.41180E-26
7.14827E-03 5.79070E-26
7.29605E-03 5.22967E-26
7.44534E-03 4.72308E-26
7.59612E-03 4.26579E-26
7.97965E-03 3.30879E-26
8.37255E-03 2.57024E-26
8.77480E-03 2.00157E-26
9.18641E-03 1.56467E-26
9.60736E-03 1.22965E-26
1.00376E-02 9.73134E-27
1.04773E-02 7.76866E-27
1.09262E-02 6.26648E-27
1.13844E-02 5.11469E-27
1.18520E-02 4.22827E-27
1.23288E-02 3.54190E-27
1.28150E-02 3.00566E-27
1.33104E-02 2.58167E-27
1.38150E-02 2.24137E-27
1.43290E-02 1.96341E-27
1.48521E-02 1.73196E-27
1.53845E-02 1.53544E-27
1.59262E-02 1.36541E-27
1.64770E-02 1.21587E-27
1.70371E-02 1.08253E-27
1.76063E-02 9.62423E-28
1.81848E-02 8.53469E-28
1.87724E-02 7.54249E-28
1.93692E-02 6.63777E-28
1.99751E-02 5.81353E-28
2.05901E-02 5.06456E-28
2.12143E-02 4.38668E-28
2.18476E-02 3.77620E-28
2.24900E-02 3.22964E-28
2.31415E-02 2.74347E-28
2.38021E-02 2.31407E-28
2.44717E-02 1.93766E-28
2.51504E-02 1.61032E-28
2.58382E-02 1.32803E-28
2.65349E-02 1.08675E-28
2.72407E-02 8.82427E-29
2.79555E-02 7.11113E-29
2.86793E-02 5.68977E-29
2.94120E-02 4.52369E-29
3.01537E-02 3.57859E-29
3.09043E-02 2.82263E-29
3.16639E-02 2.22664E-29
3.24324E-02 1.76422E-29
3.32098E-02 1.41178E-29
3.39961E-02 1.14849E-29
3.47912E-02 9.56224E-30
3.55952E-02 8.19394E-30
3.64081E-02 7.24794E-30
3.72297E-02 6.61406E-30
3.80602E-02 6.20198E-30
3.88995E-02 5.93902E-30
3.97476E-02 5.76808E-30
4.06044E-02 5.64552E-30
4.14700E-02 5.53916E-30
4.23443E-02 5.42643E-30
4.32273E-02 5.29263E-30
4.41190E-02 5.12940E-30
4.50194E-02 4.93332E-30
4.59284E-02 4.70471E-30
4.68461E-02 4.44657E-30
4.87074E-02 3.86216E-30
5.06030E-02 3.22846E-30
5.25328E-02 2.59551E-30
5.44967E-02 2.00520E-30
5.64946E-02 1.48686E-30
5.85262E-02 1.05651E-30
6.05914E-02 7.18407E-31
6.26901E-02 4.67689E-31
6.48222E-02 2.93451E-31
6.69873E-02 1.81563E-31
6.91854E-02 1.17032E-31
7.14163E-02 8.57214E-32
7.36799E-02 7.54573E-32
7.59760E-02 7.65734E-32
7.83043E-02 8.20250E-32
8.06647E-02 8.71917E-32
8.30571E-02 8.94942E-32
8.54812E-02 8.79250E-32
8.79369E-02 8.25716E-32
9.04240E-02 7.41875E-32
9.29422E-02 6.38382E-32
9.54915E-02 5.26388E-32
9.80716E-02 4.15776E-32
1.00682E-01 3.14188E-32
1.03323E-01 2.26663E-32
1.05995E-01 1.55729E-32
1.08696E-01 1.01783E-32
1.11427E-01 6.36106E-33
1.14188E-01 3.89492E-33
1.16978E-01 2.50018E-33
1.19797E-01 1.88651E-33
1.22645E-01 1.78452E-33
1.25522E-01 1.96594E-33
1.28428E-01 2.25373E-33
1.31361E-01 2.52380E-33
1.34323E-01 2.70085E-33
1.37313E-01 2.75039E-33
1.40330E-01 2.66897E-33
1.43375E-01 2.47424E-33
1.46447E-01 2.19578E-33
1.49545E-01 1.86762E-33
1.52671E-01 1.52259E-33
1.55823E-01 1.18859E-33
1.59001E-01 8.86567E-34
1.62205E-01 6.29917E-34
1.65435E-01 4.24933E-34
1.68690E-01 2.71919E-34
1.71970E-01 1.66665E-34
1.75276E-01 1.02004E-34
1.78606E-01 6.92639E-35
1.81961E-01 5.94826E-35
1.85340E-01 6.43267E-35
1.88743E-01 7.67001E-35
1.92169E-01 9.10639E-35
1.95619E-01 1.03517E-34
1.99092E-01 1.11694E-34
2.02589E-01 1.14544E-34
2.06107E-01 1.12038E-34
2.09649E-01 1.04867E-34
2.13212E-01 9.41461E-35
2.16797E-01 8.11712E-35
2.20404E-01 6.72195E-35
2.24032E-01 5.34126E-35
2.27680E-01 4.06352E-35
2.31350E-01 2.94998E-35
2.35040E-01 2.03503E-35
2.38751E-01 1.32920E-35
2.42481E-01 8.23776E-36
2.46231E-01 4.96192E-36
2.50000E-01 3.15389E-36
2.53788E-01 2.46623E-36
2.57595E-01 2.55411E-36
2.61421E-01 3.10470E-36
2.65264E-01 3.85594E-36
2.69126E-01 4.60628E-36
2.73005E-01 5.21611E-36
2.76901E-01 5.60324E-36
2.80814E-01 5.73484E-36
2.84744E-01 5.61652E-36
2.88691E-01 5.28135E-36
2.92653E-01 4.77889E-36
2.96632E-01 4.16602E-36
3.00625E-01 3.49916E-36
3.04634E-01 2.82913E-36
3.08658E-01 2.19723E-36
3.12697E-01 1.63382E-36
3.16749E-01 1.15788E-36
3.20816E-01 7.77981E-37
3.24896E-01 4.93756E-37
3.28990E-01 2.98005E-37
3.33097E-01 1.78786E-37
3.37216E-01 1.21451E-37
3.41348E-01 1.10439E-37
3.45492E-01 1.30722E-37
3.49647E-01 1.68843E-37
3.53814E-01 2.13567E-37
3.57992E-01 2.56269E-37
3.62181E-01 2.90906E-37
3.66381E-01 3.13898E-37
3.70590E-01 3.23724E-37
3.74810E-01 3.20584E-37
3.79039E-01 3.05898E-37
3.83277E-01 2.81899E-37
3.87524E-01 2.51217E-37
3.91780E-01 2.16585E-37
3.96044E-01 1.80548E-37
4.00316E-01 1.45331E-37
4.04596E-01 1.12663E-37
4.08882E-01 8.37947E-38
4.13176E-01 5.94887E-38
4.17476E-01 4.00527E-38
4.21783E-01 2.54160E-38
4.26095E-01 1.00000E-45
4.30413E-01 1.00000E-45
4.34737E-01 1.00000E-45
4.39065E-01 1.00000E-45
4.43398E-01 1.00000E-45
4.47736E-01 1.00000E-45
4.52077E-01 1.00000E-45
4.56422E-01 1.00000E-45
4.60770E-01 1.00000E-45
4.65122E-01 1.00000E-45
4.69476E-01 1.00000E-45
4.73832E-01 1.00000E-45
4.78190E-01 1.00000E-45
4.82550E-01 1.00000E-45
4.86912E-01 1.00000E-45
4.91274E-01 1.00000E-45
4.95637E-01 1.00000E-45
5.00000E-01 1.00000E-45
5.04363E-01 1.00000E-45
5.08726E-01 1.00000E-45
5.13088E-01 1.00000E-45
5.17450E-01 1.00000E-45
5.21810E-01 1.00000E-45
5.26168E-01 1.00000E-45
5.30524E-01 1.00000E-45
5.34878E-01 1.00000E-45
5.39230E-01 1.00000E-45
5.43578E-01 1.00000E-45
5.47923E-01 1.00000E-45
5.52264E-01 1.00000E-45
5.56602E-01 1.00000E-45
5.60935E-01 1.00000E-45
5.65263E-01 1.00000E-45
5.69587E-01 1.00000E-45
5.73905E-01 1.00000E-45
5.78217E-01 1.00000E-45
5.82524E-01 1.00000E-45
5.86824E-01 1.00000E-45
5.91118E-01 1.00000E-45
5.95404E-01 1.00000E-45
5.99684E-01 1.00000E-45
6.03956E-01 1.00000E-45
6.08220E-01 1.00000E-45
6.12476E-01 1.00000E-45
6.16723E-01 1.00000E-45
6.20961E-01 1.00000E-45
6.25190E-01 1.00000E-45
6.29410E-01 1.00000E-45
6.33619E-01 1.00000E-45
6.37819E-01 1.00000E-45
6.42008E-01 1.00000E-45
6.46186E-01 1.00000E-45
6.50353E-01 1.00000E-45
6.54508E-01 1.00000E-45
6.58652E-01 1.00000E-45
6.62784E-01 1.00000E-45
6.66903E-01 1.00000E-45
6.71010E-01 1.00000E-45
6.75104E-01 1.00000E-45
6.79184E-01 1.00000E-45
6.83251E-01 1.00000E-45
6.87303E-01 1.00000E-45
6.91342E-01 1.00000E-45
6.95366E-01 1.00000E-45
6.99375E-01 1.00000E-45
7.03368E-01 1.00000E-45
7.07347E-01 1.00000E-45
7.11309E-01 1.00000E-45
7.15256E-01 1.00000E-45
7.19186E-01 1.00000E-45
7.23099E-01 1.00000E-45
7.26995E-01 1.00000E-45
7.30874E-01 1.00000E-45
7.34736E-01 1.00000E-45
7.38579E-01 1.00000E-45
7.42405E-01 1.00000E-45
7.46212E-01 1.00000E-45
7.50000E-01 1.00000E-45
7.53769E-01 1.00000E-45
7.57519E-01 1.00000E-45
7.61249E-01 1.00000E-45
7.64960E-01 1.00000E-45
7.68650E-01 1.00000E-45
7.72320E-01 1.00000E-45
7.75968E-01 1.00000E-45
7.79596E-01 1.00000E-45
7.83203E-01 1.00000E-45
7.86788E-01 1.00000E-45
7.90351E-01 1.00000E-45
7.93893E-01 1.00000E-45
7.97411E-01 1.00000E-45
8.00908E-01 1.00000E-45
8.04381E-01 1.00000E-45
8.07831E-01 1.00000E-45
8.11257E-01 1.00000E-45
8.14660E-01 1.00000E-45
8.18039E-01 1.00000E-45
8.21394E-01 1.00000E-45
8.24724E-01 1.00000E-45
8.28030E-01 1.00000E-45
8.31310E-01 1.00000E-45
8.34565E-01 1.00000E-45
8.37795E-01 1.00000E-45
8.40999E-01 1.00000E-45
8.44177E-01 1.00000E-45
8.47329E-01 1.00000E-45
8.50455E-01 1.00000E-45
8.53553E-01 1.00000E-45
8.56625E-01 1.00000E-45
8.59670E-01 1.00000E-45
8.62687E-01 1.00000E-45
8.65677E-01 1.00000E-45
8.68639E-01 1.00000E-45
8.71572E-01 1.00000E-45
8.74478E-01 1.00000E-45
8.77355E-01 1.00000E-45
8.80203E-01 1.00000E-45
8.83022E-01 1.00000E-45
8.85812E-01 1.00000E-45
8.88573E-01 1.00000E-45
8.91304E-01 1.00000E-45
8.94005E-01 1.00000E-45
8.96677E-01 1.00000E-45
8.99318E-01 1.00000E-45
9.01928E-01 1.00000E-45
9.04508E-01 1.00000E-45
9.07058E-01 1.00000E-45
9.09576E-01 1.00000E-45
9.12063E-01 1.00000E-45
9.14519E-01 1.00000E-45
9.16943E-01 1.00000E-45
9.19335E-01 1.00000E-45
9.21696E-01 1.00000E-45
9.24024E-01 1.00000E-45
9.26320E-01 1.00000E-45
9.28584E-01 1.00000E-45
9.30815E-01 1.00000E-45
9.33013E-01 1.00000E-45
9.35178E-01 1.00000E-45
9.37310E-01 1.00000E-45
9.39409E-01 1.00000E-45
9.41474E-01 1.00000E-45
9.43505E-01 1.00000E-45
9.45503E-01 1.00000E-45
9.47467E-01 1.00000E-45
9.49397E-01 1.00000E-45
9.51293E-01 1.00000E-45
9.53154E-01 1.00000E-45
9.54981E-01 1.00000E-45
9.56773E-01 1.00000E-45
9.58530E-01 1.00000E-45
9.60252E-01 1.00000E-45
9.61940E-01 1.00000E-45
9.63592E-01 1.00000E-45
9.65209E-01 1.00000E-45
9.66790E-01 1.00000E-45
9.68336E-01 1.00000E-45
9.69846E-01 1.00000E-45
9.71321E-01 1.00000E-45
9.72759E-01 1.00000E-45
9.74162E-01 1.00000E-45
9.75528E-01 1.00000E-45
9.76858E-01 1.00000E-45
9.78152E-01 1.00000E-45
9.79410E-01 1.00000E-45
9.80631E-01 1.00000E-45
9.81815E-01 1.00000E-45
9.82963E-01 1.00000E-45
9.84074E-01 1.00000E-45
9.85148E-01 1.00000E-45
9.86185E-01 1.00000E-45
9.87185E-01 1.00000E-45
9.88148E-01 1.00000E-45
9.89074E-01 1.00000E-45
9.89962E-01 1.00000E-45
9.90814E-01 1.00000E-45
9.91627E-01 1.00000E-45
9.92404E-01 1.00000E-45
9.93143E-01 1.00000E-45
9.93844E-01 1.00000E-45
9.94508E-01 1.00000E-45
9.95134E-01 1.00000E-45
9.95722E-01 1.00000E-45
9.96273E-01 1.00000E-45
9.96786E-01 1.00000E-45
9.97261E-01 1.00000E-45
9.97698E-01 1.00000E-45
9.98097E-01 1.00000E-45
9.98459E-01 1.00000E-45
9.98782E-01 1.00000E-45
9.99067E-01 1.00000E-45
9.99315E-01 1.00000E-45
9.99524E-01 1.00000E-45
9.99695E-01 1.00000E-45
9.99829E-01 1.00000E-45
9.99924E-01 1.00000E-45
9.99981E-01 1.00000E-45
1.00000E+00 1.00000E-45
