 #
 # Subroutine ELSEPA. Elastic scattering of electrons and positrons
 #                    by neutral atoms and positive ions
 #
 # Projectile: positron
 # Kinetic energy = 4.50000E+08 eV = 1.65372E+07 a.u.
 #
 # WARNING: High-energy factorization with free-atom DF screening.
 #          Absorption, polarization and exchange corrections are
 #          switched off.
 #          Phase shifts are calculated for the bare nucleus.
 #          Scattering amplitudes are not evaluated.
 #
 # Element: Tb,  Z =  65,  atomic weight = 1.58925E+02 g/mol
 #
 # Nuclear model: Fermi distribution
 #                Average radius = 5.79582E-13 cm
 #                Skin thickness = 5.46000E-14 cm
 #
 # Number of electrons = 65
 #
 # Total elastic cross section = 7.13948E-18 cm**2 = 2.54956E-01 a0**2
 # 1st transport cross section = 3.97273E-26 cm**2 = 1.41869E-09 a0**2
 # 2nd transport cross section = 1.19124E-25 cm**2 = 4.25398E-09 a0**2
 #
 #
 # Differential cross section:                       MU=(1-COS(THETA))/2
 #
 #  THETA        MU          DCS          DCS        Sherman      error
 #  (deg)                 (cm**2/sr)   (a0**2/sr)    function
 #----------------------------------------------------------------------
0.00000E+00 1.65835E-08
7.61557E-13 1.50900E-08
1.18994E-12 1.43478E-08
1.71346E-12 1.35211E-08
2.33225E-12 1.26471E-08
3.04617E-12 1.17550E-08
3.85530E-12 1.08709E-08
4.75964E-12 1.00153E-08
5.75917E-12 9.20331E-09
6.85391E-12 8.44915E-09
8.04379E-12 7.75409E-09
9.32893E-12 7.11870E-09
1.07092E-11 6.54213E-09
1.21847E-11 6.02172E-09
1.37554E-11 5.55437E-09
1.54213E-11 5.13637E-09
1.71823E-11 4.76077E-09
1.90386E-11 4.42315E-09
2.09900E-11 4.11937E-09
2.30367E-11 3.84552E-09
2.51785E-11 3.59824E-09
2.74156E-11 3.37384E-09
2.97478E-11 3.16947E-09
3.21752E-11 2.98278E-09
3.46979E-11 2.81170E-09
3.73157E-11 2.65440E-09
4.00286E-11 2.50887E-09
4.28368E-11 2.37413E-09
4.57402E-11 2.24906E-09
4.87388E-11 2.13269E-09
5.18325E-11 2.02416E-09
5.50215E-11 1.92245E-09
5.83057E-11 1.82692E-09
6.16850E-11 1.73729E-09
6.51595E-11 1.65310E-09
6.87293E-11 1.57389E-09
7.23943E-11 1.49928E-09
7.61544E-11 1.42855E-09
1.18991E-10 8.96198E-10
1.71347E-10 5.87184E-10
2.33223E-10 3.96873E-10
3.04617E-10 2.78330E-10
3.85531E-10 2.01120E-10
4.75965E-10 1.48892E-10
5.75917E-10 1.12400E-10
6.85389E-10 8.59301E-11
8.04380E-10 6.66448E-11
9.32891E-10 5.23828E-11
1.07092E-09 4.16737E-11
1.21847E-09 3.35282E-11
1.37554E-09 2.72554E-11
1.54213E-09 2.23712E-11
1.71823E-09 1.85481E-11
1.90386E-09 1.55222E-11
2.09900E-09 1.31024E-11
2.30367E-09 1.11482E-11
2.51785E-09 9.55264E-12
2.74156E-09 8.24221E-12
2.97478E-09 7.15177E-12
3.21752E-09 6.23864E-12
3.46978E-09 5.47036E-12
3.73156E-09 4.81951E-12
4.00286E-09 4.26332E-12
4.28368E-09 3.78620E-12
4.57402E-09 3.37452E-12
4.87388E-09 3.01742E-12
5.18326E-09 2.70617E-12
5.50215E-09 2.43336E-12
5.83057E-09 2.19344E-12
6.16850E-09 1.98214E-12
6.51596E-09 1.79549E-12
6.87293E-09 1.63015E-12
7.23942E-09 1.48329E-12
7.61544E-09 1.35232E-12
1.18991E-08 5.91469E-13
1.71347E-08 2.97840E-13
2.33223E-08 1.66011E-13
3.04617E-08 9.97946E-14
3.85531E-08 6.35697E-14
4.75965E-08 4.23927E-14
5.75917E-08 2.93403E-14
6.85389E-08 2.09412E-14
8.04380E-08 1.53395E-14
9.32891E-08 1.14887E-14
1.07092E-07 8.77202E-15
1.21847E-07 6.81173E-15
1.37554E-07 5.36900E-15
1.54213E-07 4.28842E-15
1.71823E-07 3.46631E-15
1.90386E-07 2.83199E-15
2.09900E-07 2.33631E-15
2.30367E-07 1.94448E-15
2.51785E-07 1.63147E-15
2.74156E-07 1.37899E-15
2.97478E-07 1.17353E-15
3.21752E-07 1.00496E-15
3.46978E-07 8.65612E-16
3.73156E-07 7.49608E-16
4.00286E-07 6.52409E-16
4.28368E-07 5.70470E-16
4.57402E-07 5.01004E-16
4.87388E-07 4.41800E-16
5.18325E-07 3.91089E-16
5.50215E-07 3.47451E-16
5.83057E-07 3.09734E-16
6.16850E-07 2.76999E-16
6.51596E-07 2.48476E-16
6.87293E-07 2.23531E-16
7.23942E-07 2.01639E-16
7.61543E-07 1.82362E-16
1.18991E-06 7.51414E-17
1.71347E-06 3.63680E-17
2.33223E-06 1.96751E-17
3.04617E-06 1.15502E-17
3.85531E-06 7.21774E-18
4.75964E-06 4.73866E-18
5.75916E-06 3.23799E-18
6.85388E-06 2.28691E-18
8.04378E-06 1.66066E-18
9.32888E-06 1.23478E-18
1.07092E-05 9.37043E-19
1.21846E-05 7.23850E-19
1.37553E-05 5.67967E-19
1.54212E-05 4.51863E-19
1.71822E-05 3.63959E-19
1.90385E-05 2.96292E-19
2.09899E-05 2.43865E-19
2.30365E-05 2.02507E-19
2.51783E-05 1.69514E-19
2.74153E-05 1.42941E-19
2.97475E-05 1.21359E-19
3.21749E-05 1.03698E-19
3.46974E-05 8.91417E-20
3.73152E-05 7.70605E-20
4.00281E-05 6.69645E-20
4.28362E-05 5.84717E-20
4.57395E-05 5.12827E-20
4.87380E-05 4.51626E-20
5.18317E-05 3.99256E-20
5.50205E-05 3.54239E-20
5.83045E-05 3.15380E-20
6.16838E-05 2.81705E-20
6.51582E-05 2.52413E-20
6.87277E-05 2.26838E-20
7.23925E-05 2.04427E-20
7.61524E-05 1.85963E-20
9.21439E-05 1.27004E-20
1.09658E-04 8.96460E-21
1.28695E-04 6.50602E-21
1.49255E-04 4.83360E-21
1.71338E-04 3.66480E-21
1.94942E-04 2.82787E-21
2.20070E-04 2.21602E-21
2.46720E-04 1.76039E-21
2.74892E-04 1.41548E-21
3.04586E-04 1.15057E-21
3.35803E-04 9.44403E-22
3.68542E-04 7.82050E-22
4.02802E-04 6.52814E-22
4.38585E-04 5.48927E-22
4.75889E-04 4.64668E-22
5.14715E-04 3.95761E-22
5.55063E-04 3.38983E-22
5.96931E-04 2.91868E-22
6.40321E-04 2.52518E-22
6.85233E-04 2.19455E-22
7.31665E-04 1.91518E-22
7.79618E-04 1.67787E-22
8.29092E-04 1.47532E-22
8.80086E-04 1.30163E-22
9.32601E-04 1.15205E-22
9.86636E-04 1.02271E-22
1.04219E-03 9.10446E-23
1.09927E-03 8.12650E-23
1.15786E-03 7.27169E-23
1.21797E-03 6.52212E-23
1.27961E-03 5.86284E-23
1.34276E-03 5.28129E-23
1.40743E-03 4.76691E-23
1.47362E-03 4.31076E-23
1.54133E-03 3.90524E-23
1.61056E-03 3.54389E-23
1.68131E-03 3.22117E-23
1.75357E-03 2.93235E-23
1.82735E-03 2.67332E-23
1.90265E-03 2.44058E-23
1.97947E-03 2.23105E-23
2.05780E-03 2.04210E-23
2.13765E-03 1.87140E-23
2.21902E-03 1.71695E-23
2.30190E-03 1.57698E-23
2.38630E-03 1.44994E-23
2.47222E-03 1.33448E-23
2.55965E-03 1.22939E-23
2.64859E-03 1.13362E-23
2.73905E-03 1.04623E-23
2.83103E-03 9.66389E-24
2.92452E-03 8.93359E-24
3.01952E-03 8.26484E-24
3.11604E-03 7.65180E-24
3.21407E-03 7.08925E-24
3.31362E-03 6.57250E-24
3.41468E-03 6.09738E-24
3.51725E-03 5.66012E-24
3.62133E-03 5.25735E-24
3.72692E-03 4.88603E-24
3.83403E-03 4.54342E-24
3.94265E-03 4.22705E-24
4.05278E-03 3.93468E-24
4.16442E-03 3.66430E-24
4.27757E-03 3.41407E-24
4.39223E-03 3.18233E-24
4.50840E-03 2.96758E-24
4.62608E-03 2.76843E-24
4.74527E-03 2.58365E-24
4.86597E-03 2.41210E-24
4.98817E-03 2.25273E-24
5.11188E-03 2.10461E-24
5.23711E-03 1.96686E-24
5.36383E-03 1.83869E-24
5.49207E-03 1.71938E-24
5.62181E-03 1.60827E-24
5.75306E-03 1.50474E-24
5.88581E-03 1.40823E-24
6.02007E-03 1.31823E-24
6.15583E-03 1.23427E-24
6.29310E-03 1.15591E-24
6.43187E-03 1.08275E-24
6.57214E-03 1.01441E-24
6.71392E-03 9.50572E-25
6.85720E-03 8.90904E-25
7.00198E-03 8.35120E-25
7.14827E-03 7.82952E-25
7.29605E-03 7.34149E-25
7.44534E-03 6.88483E-25
7.59612E-03 6.45741E-25
7.97965E-03 5.50416E-25
8.37255E-03 4.69454E-25
8.77480E-03 4.00601E-25
9.18641E-03 3.41980E-25
9.60736E-03 2.92019E-25
1.00376E-02 2.49405E-25
1.04773E-02 2.13030E-25
1.09262E-02 1.81962E-25
1.13844E-02 1.55417E-25
1.18520E-02 1.32726E-25
1.23288E-02 1.13327E-25
1.28150E-02 9.67404E-26
1.33104E-02 8.25577E-26
1.38150E-02 7.04317E-26
1.43290E-02 6.00662E-26
1.48521E-02 5.12080E-26
1.53845E-02 4.36407E-26
1.59262E-02 3.71790E-26
1.64770E-02 3.16642E-26
1.70371E-02 2.69605E-26
1.76063E-02 2.29511E-26
1.81848E-02 1.95360E-26
1.87724E-02 1.66294E-26
1.93692E-02 1.41576E-26
1.99751E-02 1.20573E-26
2.05901E-02 1.02742E-26
2.12143E-02 8.76178E-27
2.18476E-02 7.47997E-27
2.24900E-02 6.39452E-27
2.31415E-02 5.47607E-27
2.38021E-02 4.69944E-27
2.44717E-02 4.04310E-27
2.51504E-02 3.48864E-27
2.58382E-02 3.02034E-27
2.65349E-02 2.62478E-27
2.72407E-02 2.29054E-27
2.79555E-02 2.00788E-27
2.86793E-02 1.76857E-27
2.94120E-02 1.56560E-27
3.01537E-02 1.39306E-27
3.09043E-02 1.24594E-27
3.16639E-02 1.12003E-27
3.24324E-02 1.01180E-27
3.32098E-02 9.18291E-28
3.39961E-02 8.37018E-28
3.47912E-02 7.65922E-28
3.55952E-02 7.03291E-28
3.64081E-02 6.47709E-28
3.72297E-02 5.98009E-28
3.80602E-02 5.53232E-28
3.88995E-02 5.12594E-28
3.97476E-02 4.75459E-28
4.06044E-02 4.41307E-28
4.14700E-02 4.09723E-28
4.23443E-02 3.80370E-28
4.32273E-02 3.52979E-28
4.41190E-02 3.27336E-28
4.50194E-02 3.03269E-28
4.59284E-02 2.80643E-28
4.68461E-02 2.59346E-28
4.87074E-02 2.20410E-28
5.06030E-02 1.85932E-28
5.25328E-02 1.55532E-28
5.44967E-02 1.28909E-28
5.64946E-02 1.05791E-28
5.85262E-02 8.59141E-29
6.05914E-02 6.90098E-29
6.26901E-02 5.48023E-29
6.48222E-02 4.30113E-29
6.69873E-02 3.33568E-29
6.91854E-02 2.55648E-29
7.14163E-02 1.93724E-29
7.36799E-02 1.45331E-29
7.59760E-02 1.08199E-29
7.83043E-02 8.02816E-30
8.06647E-02 5.97644E-30
8.30571E-02 4.50715E-30
8.54812E-02 3.48588E-30
8.79369E-02 2.80021E-30
9.04240E-02 2.35801E-30
9.29422E-02 2.08543E-30
9.54915E-02 1.92476E-30
9.80716E-02 1.83213E-30
1.00682E-01 1.77541E-30
1.03323E-01 1.73208E-30
1.05995E-01 1.68736E-30
1.08696E-01 1.63249E-30
1.11427E-01 1.56328E-30
1.14188E-01 1.47881E-30
1.16978E-01 1.38044E-30
1.19797E-01 1.27089E-30
1.22645E-01 1.15363E-30
1.25522E-01 1.03239E-30
1.28428E-01 9.10742E-31
1.31361E-01 7.91924E-31
1.34323E-01 6.78646E-31
1.37313E-01 5.73039E-31
1.40330E-01 4.76634E-31
1.43375E-01 3.90393E-31
1.46447E-01 3.14761E-31
1.49545E-01 2.49740E-31
1.52671E-01 1.94973E-31
1.55823E-01 1.49823E-31
1.59001E-01 1.13453E-31
1.62205E-01 8.48993E-32
1.65435E-01 6.31359E-32
1.68690E-01 4.71244E-32
1.71970E-01 3.58584E-32
1.75276E-01 2.83946E-32
1.78606E-01 2.38762E-32
1.81961E-01 2.15460E-32
1.85340E-01 2.07542E-32
1.88743E-01 2.09590E-32
1.92169E-01 2.17227E-32
1.95619E-01 2.27053E-32
1.99092E-01 2.36540E-32
2.02589E-01 2.43932E-32
2.06107E-01 2.48121E-32
2.09649E-01 2.48535E-32
2.13212E-01 2.45027E-32
2.16797E-01 2.37766E-32
2.20404E-01 2.27154E-32
2.24032E-01 2.13735E-32
2.27680E-01 1.98139E-32
2.31350E-01 1.81018E-32
2.35040E-01 1.63010E-32
2.38751E-01 1.44704E-32
2.42481E-01 1.26622E-32
2.46231E-01 1.09203E-32
2.50000E-01 9.27979E-33
2.53788E-01 7.76698E-33
2.57595E-01 6.39981E-33
2.61421E-01 5.18853E-33
2.65264E-01 4.13666E-33
2.69126E-01 3.24202E-33
2.73005E-01 2.49781E-33
2.76901E-01 1.89372E-33
2.80814E-01 1.41690E-33
2.84744E-01 1.05295E-33
2.88691E-01 7.86635E-34
2.92653E-01 6.02658E-34
2.96632E-01 4.86157E-34
3.00625E-01 4.23161E-34
3.04634E-01 4.00902E-34
3.08658E-01 4.08013E-34
3.12697E-01 4.34657E-34
3.16749E-01 4.72550E-34
3.20816E-01 5.14945E-34
3.24896E-01 5.56542E-34
3.28990E-01 5.93382E-34
3.33097E-01 6.22701E-34
3.37216E-01 6.42775E-34
3.41348E-01 6.52758E-34
3.45492E-01 6.52524E-34
3.49647E-01 6.42509E-34
3.53814E-01 6.23574E-34
3.57992E-01 5.96870E-34
3.62181E-01 5.63732E-34
3.66381E-01 5.25579E-34
3.70590E-01 4.83837E-34
3.74810E-01 4.39878E-34
3.79039E-01 3.94970E-34
3.83277E-01 3.50246E-34
3.87524E-01 3.06681E-34
3.91780E-01 2.65083E-34
3.96044E-01 2.26092E-34
4.00316E-01 1.90179E-34
4.04596E-01 1.57664E-34
4.08882E-01 1.28725E-34
4.13176E-01 1.03417E-34
4.17476E-01 8.16896E-35
4.21783E-01 6.34052E-35
4.26095E-01 4.83578E-35
4.30413E-01 3.62904E-35
4.34737E-01 2.69110E-35
4.39065E-01 1.99072E-35
4.43398E-01 1.49585E-35
4.47736E-01 1.17467E-35
4.52077E-01 9.96560E-36
4.56422E-01 9.32646E-36
4.60770E-01 9.56420E-36
4.65122E-01 1.04401E-35
4.69476E-01 1.17440E-35
4.73832E-01 1.32957E-35
4.78190E-01 1.49437E-35
4.82550E-01 1.65652E-35
4.86912E-01 1.80637E-35
4.91274E-01 1.93674E-35
4.95637E-01 2.04260E-35
5.00000E-01 2.12089E-35
5.04363E-01 2.17016E-35
5.08726E-01 2.19037E-35
5.13088E-01 2.18256E-35
5.17450E-01 2.14867E-35
5.21810E-01 2.09128E-35
5.26168E-01 2.01338E-35
5.30524E-01 1.91824E-35
5.34878E-01 1.80924E-35
5.39230E-01 1.68974E-35
5.43578E-01 1.56297E-35
5.47923E-01 1.43197E-35
5.52264E-01 1.29950E-35
5.56602E-01 1.16803E-35
5.60935E-01 1.03969E-35
5.65263E-01 9.16278E-36
5.69587E-01 7.99261E-36
5.73905E-01 6.89771E-36
5.78217E-01 5.88630E-36
5.82524E-01 4.96384E-36
5.86824E-01 4.13321E-36
5.91118E-01 3.39500E-36
5.95404E-01 2.74790E-36
5.99684E-01 2.18893E-36
6.03956E-01 1.71389E-36
6.08220E-01 1.31738E-36
6.12476E-01 9.93441E-37
6.16723E-01 7.35496E-37
6.20961E-01 5.36701E-37
6.25190E-01 3.90118E-37
6.29410E-01 2.88886E-37
6.33619E-01 2.26342E-37
6.37819E-01 1.96101E-37
6.42008E-01 1.92261E-37
6.46186E-01 2.09295E-37
6.50353E-01 2.42221E-37
6.54508E-01 2.86576E-37
6.58652E-01 3.38420E-37
6.62784E-01 3.94342E-37
6.66903E-01 4.51479E-37
6.71010E-01 5.07421E-37
6.75104E-01 5.60226E-37
6.79184E-01 6.08381E-37
6.83251E-01 6.50748E-37
6.87303E-01 6.86555E-37
6.91342E-01 7.15312E-37
6.95366E-01 7.36796E-37
6.99375E-01 7.51001E-37
7.03368E-01 7.58112E-37
7.07347E-01 7.58467E-37
7.11309E-01 7.52527E-37
7.15256E-01 7.40811E-37
7.19186E-01 7.23933E-37
7.23099E-01 7.02515E-37
7.26995E-01 6.77210E-37
7.30874E-01 6.48668E-37
7.34736E-01 6.17541E-37
7.38579E-01 5.84421E-37
7.42405E-01 5.49889E-37
7.46212E-01 5.14476E-37
7.50000E-01 4.78682E-37
7.53769E-01 4.42936E-37
7.57519E-01 4.07625E-37
7.61249E-01 3.73088E-37
7.64960E-01 3.39615E-37
7.68650E-01 3.07443E-37
7.72320E-01 2.76756E-37
7.75968E-01 2.47708E-37
7.79596E-01 2.20406E-37
7.83203E-01 1.94930E-37
7.86788E-01 1.71310E-37
7.90351E-01 1.49562E-37
7.93893E-01 1.29673E-37
7.97411E-01 1.11608E-37
8.00908E-01 9.53095E-38
8.04381E-01 8.07129E-38
8.07831E-01 6.77341E-38
8.11257E-01 5.62860E-38
8.14660E-01 4.62705E-38
8.18039E-01 3.75910E-38
8.21394E-01 3.01428E-38
8.24724E-01 2.38251E-38
8.28030E-01 1.85346E-38
8.31310E-01 1.41730E-38
8.34565E-01 1.06406E-38
8.37795E-01 7.84708E-39
8.40999E-01 5.70494E-39
8.44177E-01 4.13004E-39
8.47329E-01 3.04793E-39
8.50455E-01 2.38339E-39
8.53553E-01 2.07298E-39
8.56625E-01 2.05838E-39
8.59670E-01 2.28028E-39
8.62687E-01 2.69176E-39
8.65677E-01 3.25149E-39
8.68639E-01 3.91831E-39
8.71572E-01 4.66167E-39
8.74478E-01 5.44747E-39
8.77355E-01 6.25593E-39
8.80203E-01 7.06147E-39
8.83022E-01 7.85020E-39
8.85812E-01 8.60626E-39
8.88573E-01 9.31528E-39
8.91304E-01 9.97324E-39
8.94005E-01 1.05699E-38
8.96677E-01 1.11039E-38
8.99318E-01 1.15682E-38
9.01928E-01 1.19663E-38
9.04508E-01 1.22941E-38
9.07058E-01 1.25542E-38
9.09576E-01 1.27467E-38
9.12063E-01 1.28768E-38
9.14519E-01 1.29454E-38
9.16943E-01 1.29577E-38
9.19335E-01 1.29160E-38
9.21696E-01 1.28242E-38
9.24024E-01 1.26869E-38
9.26320E-01 1.25093E-38
9.28584E-01 1.22948E-38
9.30815E-01 1.20460E-38
9.33013E-01 1.17700E-38
9.35178E-01 1.14691E-38
9.37310E-01 1.11463E-38
9.39409E-01 1.08064E-38
9.41474E-01 1.04529E-38
9.43505E-01 1.00876E-38
9.45503E-01 9.71394E-39
9.47467E-01 9.33506E-39
9.49397E-01 8.95345E-39
9.51293E-01 8.57119E-39
9.53154E-01 8.18973E-39
9.54981E-01 7.81034E-39
9.56773E-01 7.43570E-39
9.58530E-01 7.06715E-39
9.60252E-01 6.70566E-39
9.61940E-01 6.35202E-39
9.63592E-01 6.00796E-39
9.65209E-01 5.67193E-39
9.66790E-01 5.34707E-39
9.68336E-01 5.03337E-39
9.69846E-01 4.72982E-39
9.71321E-01 4.43645E-39
9.72759E-01 4.15521E-39
9.74162E-01 3.88570E-39
9.75528E-01 3.62684E-39
9.76858E-01 3.37936E-39
9.78152E-01 3.14360E-39
9.79410E-01 2.91956E-39
9.80631E-01 2.70622E-39
9.81815E-01 2.50271E-39
9.82963E-01 2.31061E-39
9.84074E-01 2.12832E-39
9.85148E-01 1.95644E-39
9.86185E-01 1.79419E-39
9.87185E-01 1.64097E-39
9.88148E-01 1.49703E-39
9.89074E-01 1.36105E-39
9.89962E-01 1.23435E-39
9.90814E-01 1.11513E-39
9.91627E-01 1.00363E-39
9.92404E-01 8.99842E-40
9.93143E-01 8.02961E-40
9.93844E-01 7.12401E-40
9.94508E-01 6.28970E-40
9.95134E-01 5.51904E-40
9.95722E-01 4.79942E-40
9.96273E-01 4.14352E-40
9.96786E-01 3.54027E-40
9.97261E-01 2.99376E-40
9.97698E-01 2.49662E-40
9.98097E-01 2.05068E-40
9.98459E-01 1.65133E-40
9.98782E-01 1.29872E-40
9.99067E-01 9.90016E-41
9.99315E-01 7.24806E-41
9.99524E-01 5.02830E-41
9.99695E-01 3.20303E-41
9.99829E-01 1.81513E-41
9.99924E-01 8.32449E-42
9.99981E-01 2.36014E-42
1.00000E+00 5.85148E-43
