 #
 # Subroutine ELSEPA. Elastic scattering of electrons and positrons
 #                    by neutral atoms and positive ions
 #
 # Projectile: positron
 # Kinetic energy = 2.00000E+07 eV = 7.34987E+05 a.u.
 #
 # WARNING: High-energy factorization with free-atom DF screening.
 #          Absorption, polarization and exchange corrections are
 #          switched off.
 #          Phase shifts are calculated for the bare nucleus.
 #          Scattering amplitudes are not evaluated.
 #
 # Element: Tb,  Z =  65,  atomic weight = 1.58925E+02 g/mol
 #
 # Nuclear model: Fermi distribution
 #                Average radius = 5.79582E-13 cm
 #                Skin thickness = 5.46000E-14 cm
 #
 # Number of electrons = 65
 #
 # Total elastic cross section = 7.15107E-18 cm**2 = 2.55369E-01 a0**2
 # 1st transport cross section = 1.57954E-23 cm**2 = 5.64066E-07 a0**2
 # 2nd transport cross section = 4.59499E-23 cm**2 = 1.64090E-06 a0**2
 #
 #
 # Differential cross section:                       MU=(1-COS(THETA))/2
 #
 #  THETA        MU          DCS          DCS        Sherman      error
 #  (deg)                 (cm**2/sr)   (a0**2/sr)    function
 #----------------------------------------------------------------------
0.00000E+00 3.43748E-11
7.61557E-13 3.43678E-11
1.18994E-12 3.43638E-11
1.71346E-12 3.43590E-11
2.33225E-12 3.43534E-11
3.04617E-12 3.43469E-11
3.85530E-12 3.43395E-11
4.75964E-12 3.43312E-11
5.75917E-12 3.43221E-11
6.85391E-12 3.43121E-11
8.04379E-12 3.43013E-11
9.32893E-12 3.42896E-11
1.07092E-11 3.42771E-11
1.21847E-11 3.42637E-11
1.37554E-11 3.42495E-11
1.54213E-11 3.42344E-11
1.71823E-11 3.42184E-11
1.90386E-11 3.42016E-11
2.09900E-11 3.41840E-11
2.30367E-11 3.41655E-11
2.51785E-11 3.41462E-11
2.74156E-11 3.41260E-11
2.97478E-11 3.41050E-11
3.21752E-11 3.40832E-11
3.46979E-11 3.40605E-11
3.73157E-11 3.40370E-11
4.00286E-11 3.40127E-11
4.28368E-11 3.39876E-11
4.57402E-11 3.39616E-11
4.87388E-11 3.39348E-11
5.18325E-11 3.39073E-11
5.50215E-11 3.38789E-11
5.83057E-11 3.38497E-11
6.16850E-11 3.38197E-11
6.51595E-11 3.37889E-11
6.87293E-11 3.37573E-11
7.23943E-11 3.37249E-11
7.61544E-11 3.36917E-11
1.18991E-10 3.33178E-11
1.71347E-10 3.28701E-11
2.33223E-10 3.23538E-11
3.04617E-10 3.17750E-11
3.85531E-10 3.11399E-11
4.75965E-10 3.04551E-11
5.75917E-10 2.97294E-11
6.85389E-10 2.89693E-11
8.04380E-10 2.81746E-11
9.32891E-10 2.73622E-11
1.07092E-09 2.65339E-11
1.21847E-09 2.56886E-11
1.37554E-09 2.48513E-11
1.54213E-09 2.40081E-11
1.71823E-09 2.31686E-11
1.90386E-09 2.23474E-11
2.09900E-09 2.15310E-11
2.30367E-09 2.07367E-11
2.51785E-09 1.99625E-11
2.74156E-09 1.92009E-11
2.97478E-09 1.84753E-11
3.21752E-09 1.77674E-11
3.46978E-09 1.70817E-11
3.73156E-09 1.64305E-11
4.00286E-09 1.57974E-11
4.28368E-09 1.51943E-11
4.57402E-09 1.46183E-11
4.87388E-09 1.40611E-11
5.18326E-09 1.35377E-11
5.50215E-09 1.30344E-11
5.83057E-09 1.25521E-11
6.16850E-09 1.20985E-11
6.51596E-09 1.16618E-11
6.87293E-09 1.12478E-11
7.23942E-09 1.08549E-11
7.61544E-09 1.04774E-11
1.18991E-08 7.57803E-12
1.71347E-08 5.72380E-12
2.33223E-08 4.45317E-12
3.04617E-08 3.52799E-12
3.85531E-08 2.82726E-12
4.75965E-08 2.28563E-12
5.75917E-08 1.85148E-12
6.85389E-08 1.50734E-12
8.04380E-08 1.25539E-12
9.32891E-08 1.04552E-12
1.07092E-07 8.75821E-13
1.21847E-07 7.45728E-13
1.37554E-07 6.31421E-13
1.54213E-07 5.41143E-13
1.71823E-07 4.67418E-13
1.90386E-07 4.03491E-13
2.09900E-07 3.51824E-13
2.30367E-07 3.07302E-13
2.51785E-07 2.69297E-13
2.74156E-07 2.37840E-13
2.97478E-07 2.09592E-13
3.21752E-07 1.85770E-13
3.46978E-07 1.65356E-13
3.73156E-07 1.47111E-13
4.00286E-07 1.31583E-13
4.28368E-07 1.17866E-13
4.57402E-07 1.05781E-13
4.87388E-07 9.53541E-14
5.18325E-07 8.59518E-14
5.50215E-07 7.77359E-14
5.83057E-07 7.05134E-14
6.16850E-07 6.40115E-14
6.51596E-07 5.82991E-14
6.87293E-07 5.31928E-14
7.23942E-07 4.86216E-14
7.61543E-07 4.45674E-14
1.18991E-06 2.05245E-14
1.71347E-06 1.08866E-14
2.33223E-06 6.34502E-15
3.04617E-06 3.93871E-15
3.85531E-06 2.56538E-15
4.75964E-06 1.73891E-15
5.75916E-06 1.21768E-15
6.85388E-06 8.78375E-16
8.04378E-06 6.49477E-16
9.32888E-06 4.90580E-16
1.07092E-05 3.77556E-16
1.21846E-05 2.95299E-16
1.37553E-05 2.34314E-16
1.54212E-05 1.88314E-16
1.71822E-05 1.53078E-16
1.90385E-05 1.25662E-16
2.09899E-05 1.04215E-16
2.30365E-05 8.71400E-17
2.51783E-05 7.34031E-17
2.74153E-05 6.22523E-17
2.97475E-05 5.31305E-17
3.21749E-05 4.56161E-17
3.46974E-05 3.93847E-17
3.73152E-05 3.41837E-17
4.00281E-05 2.98147E-17
4.28362E-05 2.61216E-17
4.57395E-05 2.29812E-17
4.87380E-05 2.02965E-17
5.18317E-05 1.79906E-17
5.50205E-05 1.60014E-17
5.83045E-05 1.42788E-17
6.16838E-05 1.27815E-17
6.51582E-05 1.14754E-17
6.87277E-05 1.03321E-17
7.23925E-05 9.32776E-18
7.61524E-05 8.44252E-18
9.21439E-05 5.79633E-18
1.09658E-04 4.10936E-18
1.28695E-04 2.99383E-18
1.49255E-04 2.23210E-18
1.71338E-04 1.69797E-18
1.94942E-04 1.31435E-18
2.20070E-04 1.03316E-18
2.46720E-04 8.23271E-19
2.74892E-04 6.64026E-19
3.04586E-04 5.41458E-19
3.35803E-04 4.45877E-19
3.68542E-04 3.70464E-19
4.02802E-04 3.10320E-19
4.38585E-04 2.61882E-19
4.75889E-04 2.22523E-19
5.14715E-04 1.90275E-19
5.55063E-04 1.63652E-19
5.96931E-04 1.41519E-19
6.40321E-04 1.22997E-19
6.85233E-04 1.07402E-19
7.31665E-04 9.41966E-20
7.79618E-04 8.29557E-20
8.29092E-04 7.33386E-20
8.80086E-04 6.50726E-20
9.32601E-04 5.79360E-20
9.86636E-04 5.17493E-20
1.04219E-03 4.63645E-20
1.09927E-03 4.16606E-20
1.15786E-03 3.75367E-20
1.21797E-03 3.39093E-20
1.27961E-03 3.07085E-20
1.34276E-03 2.78755E-20
1.40743E-03 2.53609E-20
1.47362E-03 2.31227E-20
1.54133E-03 2.11253E-20
1.61056E-03 1.93384E-20
1.68131E-03 1.77359E-20
1.75357E-03 1.62954E-20
1.82735E-03 1.49978E-20
1.90265E-03 1.38265E-20
1.97947E-03 1.27668E-20
2.05780E-03 1.18065E-20
2.13765E-03 1.09344E-20
2.21902E-03 1.01412E-20
2.30190E-03 9.41830E-21
2.38630E-03 8.75848E-21
2.47222E-03 8.15522E-21
2.55965E-03 7.60283E-21
2.64859E-03 7.09625E-21
2.73905E-03 6.63101E-21
2.83103E-03 6.20313E-21
2.92452E-03 5.80908E-21
3.01952E-03 5.44570E-21
3.11604E-03 5.11019E-21
3.21407E-03 4.80001E-21
3.31362E-03 4.51292E-21
3.41468E-03 4.24688E-21
3.51725E-03 4.00008E-21
3.62133E-03 3.77088E-21
3.72692E-03 3.55778E-21
3.83403E-03 3.35946E-21
3.94265E-03 3.17471E-21
4.05278E-03 3.00243E-21
4.16442E-03 2.84162E-21
4.27757E-03 2.69139E-21
4.39223E-03 2.55091E-21
4.50840E-03 2.41943E-21
4.62608E-03 2.29627E-21
4.74527E-03 2.18082E-21
4.86597E-03 2.07249E-21
4.98817E-03 1.97078E-21
5.11188E-03 1.87519E-21
5.23711E-03 1.78531E-21
5.36383E-03 1.70071E-21
5.49207E-03 1.62105E-21
5.62181E-03 1.54596E-21
5.75306E-03 1.47515E-21
5.88581E-03 1.40833E-21
6.02007E-03 1.34523E-21
6.15583E-03 1.28561E-21
6.29310E-03 1.22923E-21
6.43187E-03 1.17589E-21
6.57214E-03 1.12540E-21
6.71392E-03 1.07757E-21
6.85720E-03 1.03225E-21
7.00198E-03 9.89264E-22
7.14827E-03 9.48482E-22
7.29605E-03 9.09768E-22
7.44534E-03 8.72997E-22
7.59612E-03 8.38055E-22
7.97965E-03 7.58006E-22
8.37255E-03 6.87235E-22
8.77480E-03 6.24485E-22
9.18641E-03 5.68695E-22
9.60736E-03 5.18958E-22
1.00376E-02 4.74507E-22
1.04773E-02 4.34685E-22
1.09262E-02 3.98927E-22
1.13844E-02 3.66745E-22
1.18520E-02 3.37722E-22
1.23288E-02 3.11494E-22
1.28150E-02 2.87745E-22
1.33104E-02 2.66200E-22
1.38150E-02 2.46619E-22
1.43290E-02 2.28793E-22
1.48521E-02 2.12535E-22
1.53845E-02 1.97685E-22
1.59262E-02 1.84099E-22
1.64770E-02 1.71651E-22
1.70371E-02 1.60228E-22
1.76063E-02 1.49732E-22
1.81848E-02 1.40074E-22
1.87724E-02 1.31176E-22
1.93692E-02 1.22966E-22
1.99751E-02 1.15383E-22
2.05901E-02 1.08371E-22
2.12143E-02 1.01878E-22
2.18476E-02 9.58591E-23
2.24900E-02 9.02740E-23
2.31415E-02 8.50859E-23
2.38021E-02 8.02616E-23
2.44717E-02 7.57707E-23
2.51504E-02 7.15864E-23
2.58382E-02 6.76841E-23
2.65349E-02 6.40411E-23
2.72407E-02 6.06374E-23
2.79555E-02 5.74544E-23
2.86793E-02 5.44751E-23
2.94120E-02 5.16844E-23
3.01537E-02 4.90680E-23
3.09043E-02 4.66132E-23
3.16639E-02 4.43082E-23
3.24324E-02 4.21423E-23
3.32098E-02 4.01055E-23
3.39961E-02 3.81888E-23
3.47912E-02 3.63839E-23
3.55952E-02 3.46830E-23
3.64081E-02 3.30791E-23
3.72297E-02 3.15656E-23
3.80602E-02 3.01366E-23
3.88995E-02 2.87865E-23
3.97476E-02 2.75102E-23
4.06044E-02 2.63029E-23
4.14700E-02 2.51602E-23
4.23443E-02 2.40780E-23
4.32273E-02 2.30526E-23
4.41190E-02 2.20804E-23
4.50194E-02 2.11583E-23
4.59284E-02 2.02830E-23
4.68461E-02 1.94519E-23
4.87074E-02 1.79118E-23
5.06030E-02 1.65190E-23
5.25328E-02 1.52571E-23
5.44967E-02 1.41116E-23
5.64946E-02 1.30701E-23
5.85262E-02 1.21214E-23
6.05914E-02 1.12557E-23
6.26901E-02 1.04647E-23
6.48222E-02 9.74083E-24
6.69873E-02 9.07744E-24
6.91854E-02 8.46860E-24
7.14163E-02 7.90907E-24
7.36799E-02 7.39417E-24
7.59760E-02 6.91973E-24
7.83043E-02 6.48204E-24
8.06647E-02 6.07775E-24
8.30571E-02 5.70390E-24
8.54812E-02 5.35778E-24
8.79369E-02 5.03700E-24
9.04240E-02 4.73938E-24
9.29422E-02 4.46296E-24
9.54915E-02 4.20598E-24
9.80716E-02 3.96684E-24
1.00682E-01 3.74408E-24
1.03323E-01 3.53638E-24
1.05995E-01 3.34257E-24
1.08696E-01 3.16155E-24
1.11427E-01 2.99232E-24
1.14188E-01 2.83400E-24
1.16978E-01 2.68576E-24
1.19797E-01 2.54685E-24
1.22645E-01 2.41657E-24
1.25522E-01 2.29431E-24
1.28428E-01 2.17948E-24
1.31361E-01 2.07155E-24
1.34323E-01 1.97005E-24
1.37313E-01 1.87451E-24
1.40330E-01 1.78454E-24
1.43375E-01 1.69975E-24
1.46447E-01 1.61979E-24
1.49545E-01 1.54434E-24
1.52671E-01 1.47310E-24
1.55823E-01 1.40580E-24
1.59001E-01 1.34218E-24
1.62205E-01 1.28201E-24
1.65435E-01 1.22507E-24
1.68690E-01 1.17115E-24
1.71970E-01 1.12007E-24
1.75276E-01 1.07165E-24
1.78606E-01 1.02573E-24
1.81961E-01 9.82161E-25
1.85340E-01 9.40802E-25
1.88743E-01 9.01520E-25
1.92169E-01 8.64194E-25
1.95619E-01 8.28709E-25
1.99092E-01 7.94961E-25
2.02589E-01 7.62849E-25
2.06107E-01 7.32280E-25
2.09649E-01 7.03169E-25
2.13212E-01 6.75433E-25
2.16797E-01 6.48998E-25
2.20404E-01 6.23791E-25
2.24032E-01 5.99746E-25
2.27680E-01 5.76800E-25
2.31350E-01 5.54895E-25
2.35040E-01 5.33976E-25
2.38751E-01 5.13990E-25
2.42481E-01 4.94890E-25
2.46231E-01 4.76629E-25
2.50000E-01 4.59165E-25
2.53788E-01 4.42456E-25
2.57595E-01 4.26465E-25
2.61421E-01 4.11156E-25
2.65264E-01 3.96495E-25
2.69126E-01 3.82449E-25
2.73005E-01 3.68990E-25
2.76901E-01 3.56087E-25
2.80814E-01 3.43715E-25
2.84744E-01 3.31848E-25
2.88691E-01 3.20461E-25
2.92653E-01 3.09533E-25
2.96632E-01 2.99042E-25
3.00625E-01 2.88967E-25
3.04634E-01 2.79289E-25
3.08658E-01 2.69990E-25
3.12697E-01 2.61053E-25
3.16749E-01 2.52462E-25
3.20816E-01 2.44200E-25
3.24896E-01 2.36253E-25
3.28990E-01 2.28607E-25
3.33097E-01 2.21249E-25
3.37216E-01 2.14166E-25
3.41348E-01 2.07347E-25
3.45492E-01 2.00779E-25
3.49647E-01 1.94453E-25
3.53814E-01 1.88357E-25
3.57992E-01 1.82482E-25
3.62181E-01 1.76819E-25
3.66381E-01 1.71359E-25
3.70590E-01 1.66094E-25
3.74810E-01 1.61014E-25
3.79039E-01 1.56114E-25
3.83277E-01 1.51385E-25
3.87524E-01 1.46820E-25
3.91780E-01 1.42414E-25
3.96044E-01 1.38159E-25
4.00316E-01 1.34049E-25
4.04596E-01 1.30079E-25
4.08882E-01 1.26243E-25
4.13176E-01 1.22537E-25
4.17476E-01 1.18954E-25
4.21783E-01 1.15490E-25
4.26095E-01 1.12141E-25
4.30413E-01 1.08903E-25
4.34737E-01 1.05770E-25
4.39065E-01 1.02739E-25
4.43398E-01 9.98064E-26
4.47736E-01 9.69682E-26
4.52077E-01 9.42210E-26
4.56422E-01 9.15614E-26
4.60770E-01 8.89862E-26
4.65122E-01 8.64923E-26
4.69476E-01 8.40767E-26
4.73832E-01 8.17365E-26
4.78190E-01 7.94692E-26
4.82550E-01 7.72720E-26
4.86912E-01 7.51425E-26
4.91274E-01 7.30783E-26
4.95637E-01 7.10770E-26
5.00000E-01 6.91365E-26
5.04363E-01 6.72546E-26
5.08726E-01 6.54292E-26
5.13088E-01 6.36586E-26
5.17450E-01 6.19406E-26
5.21810E-01 6.02737E-26
5.26168E-01 5.86559E-26
5.30524E-01 5.70857E-26
5.34878E-01 5.55614E-26
5.39230E-01 5.40816E-26
5.43578E-01 5.26446E-26
5.47923E-01 5.12492E-26
5.52264E-01 4.98938E-26
5.56602E-01 4.85773E-26
5.60935E-01 4.72983E-26
5.65263E-01 4.60556E-26
5.69587E-01 4.48480E-26
5.73905E-01 4.36744E-26
5.78217E-01 4.25337E-26
5.82524E-01 4.14249E-26
5.86824E-01 4.03469E-26
5.91118E-01 3.92987E-26
5.95404E-01 3.82795E-26
5.99684E-01 3.72882E-26
6.03956E-01 3.63241E-26
6.08220E-01 3.53862E-26
6.12476E-01 3.44738E-26
6.16723E-01 3.35861E-26
6.20961E-01 3.27223E-26
6.25190E-01 3.18817E-26
6.29410E-01 3.10636E-26
6.33619E-01 3.02673E-26
6.37819E-01 2.94921E-26
6.42008E-01 2.87375E-26
6.46186E-01 2.80027E-26
6.50353E-01 2.72872E-26
6.54508E-01 2.65904E-26
6.58652E-01 2.59119E-26
6.62784E-01 2.52509E-26
6.66903E-01 2.46071E-26
6.71010E-01 2.39799E-26
6.75104E-01 2.33688E-26
6.79184E-01 2.27734E-26
6.83251E-01 2.21932E-26
6.87303E-01 2.16279E-26
6.91342E-01 2.10768E-26
6.95366E-01 2.05397E-26
6.99375E-01 2.00162E-26
7.03368E-01 1.95058E-26
7.07347E-01 1.90083E-26
7.11309E-01 1.85232E-26
7.15256E-01 1.80502E-26
7.19186E-01 1.75889E-26
7.23099E-01 1.71391E-26
7.26995E-01 1.67004E-26
7.30874E-01 1.62725E-26
7.34736E-01 1.58552E-26
7.38579E-01 1.54480E-26
7.42405E-01 1.50509E-26
7.46212E-01 1.46634E-26
7.50000E-01 1.42853E-26
7.53769E-01 1.39164E-26
7.57519E-01 1.35565E-26
7.61249E-01 1.32053E-26
7.64960E-01 1.28625E-26
7.68650E-01 1.25279E-26
7.72320E-01 1.22014E-26
7.75968E-01 1.18827E-26
7.79596E-01 1.15716E-26
7.83203E-01 1.12679E-26
7.86788E-01 1.09715E-26
7.90351E-01 1.06820E-26
7.93893E-01 1.03995E-26
7.97411E-01 1.01236E-26
8.00908E-01 9.85426E-27
8.04381E-01 9.59125E-27
8.07831E-01 9.33443E-27
8.11257E-01 9.08364E-27
8.14660E-01 8.83874E-27
8.18039E-01 8.59958E-27
8.21394E-01 8.36602E-27
8.24724E-01 8.13791E-27
8.28030E-01 7.91513E-27
8.31310E-01 7.69755E-27
8.34565E-01 7.48503E-27
8.37795E-01 7.27746E-27
8.40999E-01 7.07472E-27
8.44177E-01 6.87670E-27
8.47329E-01 6.68327E-27
8.50455E-01 6.49433E-27
8.53553E-01 6.30978E-27
8.56625E-01 6.12951E-27
8.59670E-01 5.95342E-27
8.62687E-01 5.78142E-27
8.65677E-01 5.61341E-27
8.68639E-01 5.44929E-27
8.71572E-01 5.28899E-27
8.74478E-01 5.13241E-27
8.77355E-01 4.97946E-27
8.80203E-01 4.83007E-27
8.83022E-01 4.68416E-27
8.85812E-01 4.54165E-27
8.88573E-01 4.40246E-27
8.91304E-01 4.26652E-27
8.94005E-01 4.13376E-27
8.96677E-01 4.00411E-27
8.99318E-01 3.87751E-27
9.01928E-01 3.75388E-27
9.04508E-01 3.63317E-27
9.07058E-01 3.51531E-27
9.09576E-01 3.40024E-27
9.12063E-01 3.28791E-27
9.14519E-01 3.17825E-27
9.16943E-01 3.07121E-27
9.19335E-01 2.96675E-27
9.21696E-01 2.86480E-27
9.24024E-01 2.76532E-27
9.26320E-01 2.66825E-27
9.28584E-01 2.57355E-27
9.30815E-01 2.48118E-27
9.33013E-01 2.39108E-27
9.35178E-01 2.30321E-27
9.37310E-01 2.21754E-27
9.39409E-01 2.13401E-27
9.41474E-01 2.05259E-27
9.43505E-01 1.97325E-27
9.45503E-01 1.89593E-27
9.47467E-01 1.82061E-27
9.49397E-01 1.74725E-27
9.51293E-01 1.67582E-27
9.53154E-01 1.60627E-27
9.54981E-01 1.53858E-27
9.56773E-01 1.47272E-27
9.58530E-01 1.40865E-27
9.60252E-01 1.34635E-27
9.61940E-01 1.28579E-27
9.63592E-01 1.22693E-27
9.65209E-01 1.16976E-27
9.66790E-01 1.11424E-27
9.68336E-01 1.06035E-27
9.69846E-01 1.00806E-27
9.71321E-01 9.57361E-28
9.72759E-01 9.08214E-28
9.74162E-01 8.60603E-28
9.75528E-01 8.14505E-28
9.76858E-01 7.69901E-28
9.78152E-01 7.26769E-28
9.79410E-01 6.85091E-28
9.80631E-01 6.44847E-28
9.81815E-01 6.06020E-28
9.82963E-01 5.68591E-28
9.84074E-01 5.32546E-28
9.85148E-01 4.97866E-28
9.86185E-01 4.64538E-28
9.87185E-01 4.32546E-28
9.88148E-01 4.01876E-28
9.89074E-01 3.72514E-28
9.89962E-01 3.44447E-28
9.90814E-01 3.17664E-28
9.91627E-01 2.92151E-28
9.92404E-01 2.67899E-28
9.93143E-01 2.44896E-28
9.93844E-01 2.23132E-28
9.94508E-01 2.02598E-28
9.95134E-01 1.83285E-28
9.95722E-01 1.65184E-28
9.96273E-01 1.48287E-28
9.96786E-01 1.32587E-28
9.97261E-01 1.18078E-28
9.97698E-01 1.04752E-28
9.98097E-01 9.26046E-29
9.98459E-01 8.16298E-29
9.98782E-01 7.18229E-29
9.99067E-01 6.31798E-29
9.99315E-01 5.56966E-29
9.99524E-01 4.93702E-29
9.99695E-01 4.41978E-29
9.99829E-01 4.01771E-29
9.99924E-01 3.73064E-29
9.99981E-01 3.55845E-29
1.00000E+00 3.50107E-29
