 #
 # Subroutine ELSEPA. Elastic scattering of electrons and positrons
 #                    by neutral atoms and positive ions
 #
 # Projectile: positron
 # Kinetic energy = 8.00000E+06 eV = 2.93995E+05 a.u.
 #
 # WARNING: High-energy factorization with free-atom DF screening.
 #          Absorption, polarization and exchange corrections are
 #          switched off.
 #          Phase shifts are calculated for the bare nucleus.
 #          Scattering amplitudes are not evaluated.
 #
 # Element: Tb,  Z =  65,  atomic weight = 1.58925E+02 g/mol
 #
 # Nuclear model: Fermi distribution
 #                Average radius = 5.79582E-13 cm
 #                Skin thickness = 5.46000E-14 cm
 #
 # Number of electrons = 65
 #
 # Total elastic cross section = 7.16757E-18 cm**2 = 2.55959E-01 a0**2
 # 1st transport cross section = 7.91832E-23 cm**2 = 2.82768E-06 a0**2
 # 2nd transport cross section = 2.28793E-22 cm**2 = 8.17033E-06 a0**2
 #
 #
 # Differential cross section:                       MU=(1-COS(THETA))/2
 #
 #  THETA        MU          DCS          DCS        Sherman      error
 #  (deg)                 (cm**2/sr)   (a0**2/sr)    function
 #----------------------------------------------------------------------
0.00000E+00 5.91872E-12
7.61557E-13 5.91850E-12
1.18994E-12 5.91838E-12
1.71346E-12 5.91824E-12
2.33225E-12 5.91807E-12
3.04617E-12 5.91788E-12
3.85530E-12 5.91766E-12
4.75964E-12 5.91741E-12
5.75917E-12 5.91714E-12
6.85391E-12 5.91684E-12
8.04379E-12 5.91652E-12
9.32893E-12 5.91617E-12
1.07092E-11 5.91580E-12
1.21847E-11 5.91540E-12
1.37554E-11 5.91497E-12
1.54213E-11 5.91452E-12
1.71823E-11 5.91405E-12
1.90386E-11 5.91354E-12
2.09900E-11 5.91302E-12
2.30367E-11 5.91247E-12
2.51785E-11 5.91189E-12
2.74156E-11 5.91128E-12
2.97478E-11 5.91065E-12
3.21752E-11 5.91000E-12
3.46979E-11 5.90932E-12
3.73157E-11 5.90862E-12
4.00286E-11 5.90788E-12
4.28368E-11 5.90713E-12
4.57402E-11 5.90635E-12
4.87388E-11 5.90554E-12
5.18325E-11 5.90471E-12
5.50215E-11 5.90385E-12
5.83057E-11 5.90297E-12
6.16850E-11 5.90206E-12
6.51595E-11 5.90113E-12
6.87293E-11 5.90017E-12
7.23943E-11 5.89918E-12
7.61544E-11 5.89818E-12
1.18991E-10 5.88670E-12
1.71347E-10 5.87274E-12
2.33223E-10 5.85632E-12
3.04617E-10 5.83746E-12
3.85531E-10 5.81622E-12
4.75965E-10 5.79263E-12
5.75917E-10 5.76675E-12
6.85389E-10 5.73863E-12
8.04380E-10 5.70832E-12
9.32891E-10 5.67589E-12
1.07092E-09 5.64140E-12
1.21847E-09 5.60492E-12
1.37554E-09 5.56652E-12
1.54213E-09 5.52628E-12
1.71823E-09 5.48427E-12
1.90386E-09 5.44057E-12
2.09900E-09 5.39526E-12
2.30367E-09 5.34842E-12
2.51785E-09 5.30014E-12
2.74156E-09 5.25050E-12
2.97478E-09 5.19959E-12
3.21752E-09 5.14756E-12
3.46978E-09 5.09477E-12
3.73156E-09 5.04081E-12
4.00286E-09 4.98576E-12
4.28368E-09 4.92969E-12
4.57402E-09 4.87267E-12
4.87388E-09 4.81479E-12
5.18326E-09 4.75698E-12
5.50215E-09 4.69882E-12
5.83057E-09 4.64001E-12
6.16850E-09 4.58062E-12
6.51596E-09 4.52071E-12
6.87293E-09 4.46035E-12
7.23942E-09 4.39998E-12
7.61544E-09 4.34041E-12
1.18991E-08 3.74680E-12
1.71347E-08 3.19824E-12
2.33223E-08 2.71951E-12
3.04617E-08 2.31789E-12
3.85531E-08 1.98654E-12
4.75965E-08 1.71704E-12
5.75917E-08 1.49649E-12
6.85389E-08 1.31570E-12
8.04380E-08 1.16545E-12
9.32891E-08 1.03920E-12
1.07092E-07 9.31751E-13
1.21847E-07 8.39198E-13
1.37554E-07 7.58591E-13
1.54213E-07 6.87860E-13
1.71823E-07 6.25137E-13
1.90386E-07 5.69466E-13
2.09900E-07 5.19480E-13
2.30367E-07 4.74786E-13
2.51785E-07 4.34423E-13
2.74156E-07 3.98118E-13
2.97478E-07 3.65268E-13
3.21752E-07 3.35132E-13
3.46978E-07 3.06117E-13
3.73156E-07 2.80824E-13
4.00286E-07 2.58680E-13
4.28368E-07 2.39211E-13
4.57402E-07 2.22026E-13
4.87388E-07 2.06798E-13
5.18325E-07 1.91430E-13
5.50215E-07 1.77075E-13
5.83057E-07 1.64305E-13
6.16850E-07 1.52908E-13
6.51596E-07 1.42704E-13
6.87293E-07 1.33540E-13
7.23942E-07 1.25011E-13
7.61543E-07 1.16535E-13
1.18991E-06 6.28840E-14
1.71347E-06 3.67001E-14
2.33223E-06 2.26323E-14
3.04617E-06 1.45678E-14
3.85531E-06 9.76655E-15
4.75964E-06 6.78263E-15
5.75916E-06 4.87186E-15
6.85388E-06 3.59909E-15
8.04378E-06 2.72683E-15
9.32888E-06 2.10582E-15
1.07092E-05 1.65542E-15
1.21846E-05 1.32078E-15
1.37553E-05 1.06682E-15
1.54212E-05 8.70806E-16
1.71822E-05 7.17213E-16
1.90385E-05 5.95569E-16
2.09899E-05 4.98807E-16
2.30365E-05 4.20822E-16
2.51783E-05 3.57246E-16
2.74153E-05 3.05100E-16
2.97475E-05 2.62003E-16
3.21749E-05 2.26185E-16
3.46974E-05 1.96201E-16
3.73152E-05 1.71198E-16
4.00281E-05 1.50020E-16
4.28362E-05 1.32009E-16
4.57395E-05 1.16702E-16
4.87380E-05 1.03449E-16
5.18317E-05 9.20690E-17
5.50205E-05 8.22115E-17
5.83045E-05 7.36222E-17
6.16838E-05 6.61563E-17
6.51582E-05 5.95907E-17
6.87277E-05 5.38332E-17
7.23925E-05 4.87641E-17
7.61524E-05 4.42661E-17
9.21439E-05 3.07455E-17
1.09658E-04 2.20079E-17
1.28695E-04 1.61693E-17
1.49255E-04 1.21402E-17
1.71338E-04 9.29066E-18
1.94942E-04 7.22812E-18
2.20070E-04 5.70609E-18
2.46720E-04 4.56353E-18
2.74892E-04 3.69216E-18
3.04586E-04 3.01884E-18
3.35803E-04 2.49166E-18
3.68542E-04 2.07452E-18
4.02802E-04 1.74086E-18
4.38585E-04 1.47155E-18
4.75889E-04 1.25224E-18
5.14715E-04 1.07223E-18
5.55063E-04 9.23379E-19
5.96931E-04 7.99436E-19
6.40321E-04 6.95582E-19
6.85233E-04 6.08024E-19
7.31665E-04 5.33806E-19
7.79618E-04 4.70550E-19
8.29092E-04 4.16383E-19
8.80086E-04 3.69776E-19
9.32601E-04 3.29503E-19
9.86636E-04 2.94557E-19
1.04219E-03 2.64115E-19
1.09927E-03 2.37500E-19
1.15786E-03 2.14147E-19
1.21797E-03 1.93591E-19
1.27961E-03 1.75437E-19
1.34276E-03 1.59358E-19
1.40743E-03 1.45075E-19
1.47362E-03 1.32354E-19
1.54133E-03 1.20994E-19
1.61056E-03 1.10823E-19
1.68131E-03 1.01697E-19
1.75357E-03 9.34877E-20
1.82735E-03 8.60884E-20
1.90265E-03 7.94046E-20
1.97947E-03 7.33553E-20
2.05780E-03 6.78691E-20
2.13765E-03 6.28849E-20
2.21902E-03 5.83483E-20
2.30190E-03 5.42123E-20
2.38630E-03 5.04349E-20
2.47222E-03 4.69798E-20
2.55965E-03 4.38144E-20
2.64859E-03 4.09102E-20
2.73905E-03 3.82418E-20
2.83103E-03 3.57865E-20
2.92452E-03 3.35244E-20
3.01952E-03 3.14375E-20
3.11604E-03 2.95098E-20
3.21407E-03 2.77269E-20
3.31362E-03 2.60762E-20
3.41468E-03 2.45459E-20
3.51725E-03 2.31259E-20
3.62133E-03 2.18065E-20
3.72692E-03 2.05794E-20
3.83403E-03 1.94372E-20
3.94265E-03 1.83726E-20
4.05278E-03 1.73797E-20
4.16442E-03 1.64526E-20
4.27757E-03 1.55861E-20
4.39223E-03 1.47757E-20
4.50840E-03 1.40170E-20
4.62608E-03 1.33062E-20
4.74527E-03 1.26396E-20
4.86597E-03 1.20140E-20
4.98817E-03 1.14265E-20
5.11188E-03 1.08742E-20
5.23711E-03 1.03547E-20
5.36383E-03 9.86577E-21
5.49207E-03 9.40514E-21
5.62181E-03 8.97094E-21
5.75306E-03 8.56139E-21
5.88581E-03 8.17478E-21
6.02007E-03 7.80965E-21
6.15583E-03 7.46456E-21
6.29310E-03 7.13820E-21
6.43187E-03 6.82940E-21
6.57214E-03 6.53699E-21
6.71392E-03 6.25999E-21
6.85720E-03 5.99742E-21
7.00198E-03 5.74838E-21
7.14827E-03 5.51206E-21
7.29605E-03 5.28769E-21
7.44534E-03 5.07454E-21
7.59612E-03 4.87197E-21
7.97965E-03 4.40777E-21
8.37255E-03 3.99725E-21
8.77480E-03 3.63313E-21
9.18641E-03 3.30929E-21
9.60736E-03 3.02052E-21
1.00376E-02 2.76237E-21
1.04773E-02 2.53103E-21
1.09262E-02 2.32325E-21
1.13844E-02 2.13622E-21
1.18520E-02 1.96751E-21
1.23288E-02 1.81501E-21
1.28150E-02 1.67689E-21
1.33104E-02 1.55158E-21
1.38150E-02 1.43767E-21
1.43290E-02 1.33394E-21
1.48521E-02 1.23933E-21
1.53845E-02 1.15290E-21
1.59262E-02 1.07381E-21
1.64770E-02 1.00133E-21
1.70371E-02 9.34819E-22
1.76063E-02 8.73693E-22
1.81848E-02 8.17441E-22
1.87724E-02 7.65605E-22
1.93692E-02 7.17779E-22
1.99751E-02 6.73596E-22
2.05901E-02 6.32731E-22
2.12143E-02 5.94891E-22
2.18476E-02 5.59811E-22
2.24900E-02 5.27256E-22
2.31415E-02 4.97012E-22
2.38021E-02 4.68885E-22
2.44717E-02 4.42700E-22
2.51504E-02 4.18301E-22
2.58382E-02 3.95542E-22
2.65349E-02 3.74295E-22
2.72407E-02 3.54442E-22
2.79555E-02 3.35874E-22
2.86793E-02 3.18493E-22
2.94120E-02 3.02211E-22
3.01537E-02 2.86945E-22
3.09043E-02 2.72621E-22
3.16639E-02 2.59170E-22
3.24324E-02 2.46529E-22
3.32098E-02 2.34641E-22
3.39961E-02 2.23452E-22
3.47912E-02 2.12916E-22
3.55952E-02 2.02986E-22
3.64081E-02 1.93621E-22
3.72297E-02 1.84784E-22
3.80602E-02 1.76440E-22
3.88995E-02 1.68556E-22
3.97476E-02 1.61101E-22
4.06044E-02 1.54050E-22
4.14700E-02 1.47375E-22
4.23443E-02 1.41053E-22
4.32273E-02 1.35063E-22
4.41190E-02 1.29383E-22
4.50194E-02 1.23995E-22
4.59284E-02 1.18880E-22
4.68461E-02 1.14023E-22
4.87074E-02 1.05022E-22
5.06030E-02 9.68806E-23
5.25328E-02 8.95029E-23
5.44967E-02 8.28049E-23
5.64946E-02 7.67134E-23
5.85262E-02 7.11642E-23
6.05914E-02 6.61009E-23
6.26901E-02 6.14735E-23
6.48222E-02 5.72382E-23
6.69873E-02 5.33559E-23
6.91854E-02 4.97924E-23
7.14163E-02 4.65169E-23
7.36799E-02 4.35022E-23
7.59760E-02 4.07238E-23
7.83043E-02 3.81602E-23
8.06647E-02 3.57918E-23
8.30571E-02 3.36013E-23
8.54812E-02 3.15729E-23
8.79369E-02 2.96927E-23
9.04240E-02 2.79479E-23
9.29422E-02 2.63271E-23
9.54915E-02 2.48199E-23
9.80716E-02 2.34171E-23
1.00682E-01 2.21101E-23
1.03323E-01 2.08913E-23
1.05995E-01 1.97537E-23
1.08696E-01 1.86909E-23
1.11427E-01 1.76972E-23
1.14188E-01 1.67674E-23
1.16978E-01 1.58965E-23
1.19797E-01 1.50802E-23
1.22645E-01 1.43145E-23
1.25522E-01 1.35958E-23
1.28428E-01 1.29206E-23
1.31361E-01 1.22858E-23
1.34323E-01 1.16887E-23
1.37313E-01 1.11266E-23
1.40330E-01 1.05970E-23
1.43375E-01 1.00978E-23
1.46447E-01 9.62694E-24
1.49545E-01 9.18254E-24
1.52671E-01 8.76282E-24
1.55823E-01 8.36620E-24
1.59001E-01 7.99118E-24
1.62205E-01 7.63639E-24
1.65435E-01 7.30053E-24
1.68690E-01 6.98243E-24
1.71970E-01 6.68099E-24
1.75276E-01 6.39518E-24
1.78606E-01 6.12405E-24
1.81961E-01 5.86672E-24
1.85340E-01 5.62236E-24
1.88743E-01 5.39022E-24
1.92169E-01 5.16956E-24
1.95619E-01 4.95973E-24
1.99092E-01 4.76010E-24
2.02589E-01 4.57009E-24
2.06107E-01 4.38916E-24
2.09649E-01 4.21680E-24
2.13212E-01 4.05254E-24
2.16797E-01 3.89592E-24
2.20404E-01 3.74653E-24
2.24032E-01 3.60398E-24
2.27680E-01 3.46790E-24
2.31350E-01 3.33796E-24
2.35040E-01 3.21381E-24
2.38751E-01 3.09517E-24
2.42481E-01 2.98175E-24
2.46231E-01 2.87327E-24
2.50000E-01 2.76948E-24
2.53788E-01 2.67015E-24
2.57595E-01 2.57506E-24
2.61421E-01 2.48398E-24
2.65264E-01 2.39673E-24
2.69126E-01 2.31311E-24
2.73005E-01 2.23295E-24
2.76901E-01 2.15608E-24
2.80814E-01 2.08234E-24
2.84744E-01 2.01158E-24
2.88691E-01 1.94367E-24
2.92653E-01 1.87846E-24
2.96632E-01 1.81584E-24
3.00625E-01 1.75567E-24
3.04634E-01 1.69786E-24
3.08658E-01 1.64229E-24
3.12697E-01 1.58885E-24
3.16749E-01 1.53747E-24
3.20816E-01 1.48803E-24
3.24896E-01 1.44046E-24
3.28990E-01 1.39467E-24
3.33097E-01 1.35059E-24
3.37216E-01 1.30814E-24
3.41348E-01 1.26724E-24
3.45492E-01 1.22784E-24
3.49647E-01 1.18987E-24
3.53814E-01 1.15326E-24
3.57992E-01 1.11797E-24
3.62181E-01 1.08394E-24
3.66381E-01 1.05111E-24
3.70590E-01 1.01943E-24
3.74810E-01 9.88862E-25
3.79039E-01 9.59356E-25
3.83277E-01 9.30870E-25
3.87524E-01 9.03362E-25
3.91780E-01 8.76793E-25
3.96044E-01 8.51125E-25
4.00316E-01 8.26324E-25
4.04596E-01 8.02355E-25
4.08882E-01 7.79185E-25
4.13176E-01 7.56784E-25
4.17476E-01 7.35121E-25
4.21783E-01 7.14168E-25
4.26095E-01 6.93899E-25
4.30413E-01 6.74288E-25
4.34737E-01 6.55309E-25
4.39065E-01 6.36938E-25
4.43398E-01 6.19154E-25
4.47736E-01 6.01934E-25
4.52077E-01 5.85257E-25
4.56422E-01 5.69104E-25
4.60770E-01 5.53456E-25
4.65122E-01 5.38294E-25
4.69476E-01 5.23600E-25
4.73832E-01 5.09359E-25
4.78190E-01 4.95553E-25
4.82550E-01 4.82167E-25
4.86912E-01 4.69186E-25
4.91274E-01 4.56597E-25
4.95637E-01 4.44385E-25
5.00000E-01 4.32538E-25
5.04363E-01 4.21042E-25
5.08726E-01 4.09886E-25
5.13088E-01 3.99058E-25
5.17450E-01 3.88547E-25
5.21810E-01 3.78343E-25
5.26168E-01 3.68434E-25
5.30524E-01 3.58811E-25
5.34878E-01 3.49464E-25
5.39230E-01 3.40384E-25
5.43578E-01 3.31563E-25
5.47923E-01 3.22992E-25
5.52264E-01 3.14663E-25
5.56602E-01 3.06567E-25
5.60935E-01 2.98698E-25
5.65263E-01 2.91047E-25
5.69587E-01 2.83609E-25
5.73905E-01 2.76376E-25
5.78217E-01 2.69341E-25
5.82524E-01 2.62499E-25
5.86824E-01 2.55844E-25
5.91118E-01 2.49368E-25
5.95404E-01 2.43068E-25
5.99684E-01 2.36937E-25
6.03956E-01 2.30971E-25
6.08220E-01 2.25163E-25
6.12476E-01 2.19510E-25
6.16723E-01 2.14007E-25
6.20961E-01 2.08649E-25
6.25190E-01 2.03431E-25
6.29410E-01 1.98350E-25
6.33619E-01 1.93401E-25
6.37819E-01 1.88581E-25
6.42008E-01 1.83885E-25
6.46186E-01 1.79311E-25
6.50353E-01 1.74854E-25
6.54508E-01 1.70510E-25
6.58652E-01 1.66278E-25
6.62784E-01 1.62153E-25
6.66903E-01 1.58132E-25
6.71010E-01 1.54213E-25
6.75104E-01 1.50392E-25
6.79184E-01 1.46667E-25
6.83251E-01 1.43035E-25
6.87303E-01 1.39493E-25
6.91342E-01 1.36039E-25
6.95366E-01 1.32670E-25
6.99375E-01 1.29385E-25
7.03368E-01 1.26180E-25
7.07347E-01 1.23053E-25
7.11309E-01 1.20003E-25
7.15256E-01 1.17027E-25
7.19186E-01 1.14123E-25
7.23099E-01 1.11289E-25
7.26995E-01 1.08523E-25
7.30874E-01 1.05824E-25
7.34736E-01 1.03190E-25
7.38579E-01 1.00619E-25
7.42405E-01 9.81087E-26
7.46212E-01 9.56584E-26
7.50000E-01 9.32661E-26
7.53769E-01 9.09305E-26
7.57519E-01 8.86499E-26
7.61249E-01 8.64230E-26
7.64960E-01 8.42484E-26
7.68650E-01 8.21247E-26
7.72320E-01 8.00507E-26
7.75968E-01 7.80250E-26
7.79596E-01 7.60464E-26
7.83203E-01 7.41138E-26
7.86788E-01 7.22259E-26
7.90351E-01 7.03817E-26
7.93893E-01 6.85801E-26
7.97411E-01 6.68200E-26
8.00908E-01 6.51003E-26
8.04381E-01 6.34201E-26
8.07831E-01 6.17785E-26
8.11257E-01 6.01744E-26
8.14660E-01 5.86070E-26
8.18039E-01 5.70753E-26
8.21394E-01 5.55785E-26
8.24724E-01 5.41159E-26
8.28030E-01 5.26864E-26
8.31310E-01 5.12895E-26
8.34565E-01 4.99242E-26
8.37795E-01 4.85899E-26
8.40999E-01 4.72859E-26
8.44177E-01 4.60113E-26
8.47329E-01 4.47656E-26
8.50455E-01 4.35481E-26
8.53553E-01 4.23581E-26
8.56625E-01 4.11951E-26
8.59670E-01 4.00583E-26
8.62687E-01 3.89472E-26
8.65677E-01 3.78613E-26
8.68639E-01 3.67999E-26
8.71572E-01 3.57625E-26
8.74478E-01 3.47486E-26
8.77355E-01 3.37577E-26
8.80203E-01 3.27893E-26
8.83022E-01 3.18429E-26
8.85812E-01 3.09179E-26
8.88573E-01 3.00141E-26
8.91304E-01 2.91308E-26
8.94005E-01 2.82677E-26
8.96677E-01 2.74243E-26
8.99318E-01 2.66003E-26
9.01928E-01 2.57952E-26
9.04508E-01 2.50087E-26
9.07058E-01 2.42403E-26
9.09576E-01 2.34897E-26
9.12063E-01 2.27566E-26
9.14519E-01 2.20405E-26
9.16943E-01 2.13412E-26
9.19335E-01 2.06583E-26
9.21696E-01 1.99915E-26
9.24024E-01 1.93406E-26
9.26320E-01 1.87051E-26
9.28584E-01 1.80848E-26
9.30815E-01 1.74794E-26
9.33013E-01 1.68886E-26
9.35178E-01 1.63122E-26
9.37310E-01 1.57499E-26
9.39409E-01 1.52014E-26
9.41474E-01 1.46665E-26
9.43505E-01 1.41450E-26
9.45503E-01 1.36366E-26
9.47467E-01 1.31411E-26
9.49397E-01 1.26583E-26
9.51293E-01 1.21879E-26
9.53154E-01 1.17298E-26
9.54981E-01 1.12837E-26
9.56773E-01 1.08495E-26
9.58530E-01 1.04269E-26
9.60252E-01 1.00158E-26
9.61940E-01 9.61605E-27
9.63592E-01 9.22738E-27
9.65209E-01 8.84967E-27
9.66790E-01 8.48275E-27
9.68336E-01 8.12647E-27
9.69846E-01 7.78067E-27
9.71321E-01 7.44520E-27
9.72759E-01 7.11993E-27
9.74162E-01 6.80471E-27
9.75528E-01 6.49940E-27
9.76858E-01 6.20389E-27
9.78152E-01 5.91805E-27
9.79410E-01 5.64175E-27
9.80631E-01 5.37488E-27
9.81815E-01 5.11733E-27
9.82963E-01 4.86898E-27
9.84074E-01 4.62974E-27
9.85148E-01 4.39951E-27
9.86185E-01 4.17819E-27
9.87185E-01 3.96569E-27
9.88148E-01 3.76192E-27
9.89074E-01 3.56680E-27
9.89962E-01 3.38024E-27
9.90814E-01 3.20217E-27
9.91627E-01 3.03252E-27
9.92404E-01 2.87122E-27
9.93143E-01 2.71819E-27
9.93844E-01 2.57338E-27
9.94508E-01 2.43673E-27
9.95134E-01 2.30819E-27
9.95722E-01 2.18769E-27
9.96273E-01 2.07520E-27
9.96786E-01 1.97066E-27
9.97261E-01 1.87403E-27
9.97698E-01 1.78528E-27
9.98097E-01 1.70436E-27
9.98459E-01 1.63125E-27
9.98782E-01 1.56591E-27
9.99067E-01 1.50833E-27
9.99315E-01 1.45847E-27
9.99524E-01 1.41631E-27
9.99695E-01 1.38184E-27
9.99829E-01 1.35505E-27
9.99924E-01 1.33591E-27
9.99981E-01 1.32444E-27
1.00000E+00 1.32061E-27
