 #
 # Subroutine ELSEPA. Elastic scattering of electrons and positrons
 #                    by neutral atoms and positive ions
 #
 # Projectile: positron
 # Kinetic energy = 4.50000E+06 eV = 1.65372E+05 a.u.
 #
 # WARNING: High-energy factorization with free-atom DF screening.
 #          Absorption, polarization and exchange corrections are
 #          switched off.
 #          Phase shifts are calculated for the bare nucleus.
 #          Scattering amplitudes are not evaluated.
 #
 # Element: Tb,  Z =  65,  atomic weight = 1.58925E+02 g/mol
 #
 # Nuclear model: Fermi distribution
 #                Average radius = 5.79582E-13 cm
 #                Skin thickness = 5.46000E-14 cm
 #
 # Number of electrons = 65
 #
 # Total elastic cross section = 7.20898E-18 cm**2 = 2.57437E-01 a0**2
 # 1st transport cross section = 2.08264E-22 cm**2 = 7.43725E-06 a0**2
 # 2nd transport cross section = 5.98762E-22 cm**2 = 2.13822E-05 a0**2
 #
 #
 # Differential cross section:                       MU=(1-COS(THETA))/2
 #
 #  THETA        MU          DCS          DCS        Sherman      error
 #  (deg)                 (cm**2/sr)   (a0**2/sr)    function
 #----------------------------------------------------------------------
0.00000E+00 2.05171E-12
7.61557E-13 2.05168E-12
1.18994E-12 2.05166E-12
1.71346E-12 2.05165E-12
2.33225E-12 2.05163E-12
3.04617E-12 2.05160E-12
3.85530E-12 2.05158E-12
4.75964E-12 2.05155E-12
5.75917E-12 2.05151E-12
6.85391E-12 2.05148E-12
8.04379E-12 2.05144E-12
9.32893E-12 2.05140E-12
1.07092E-11 2.05135E-12
1.21847E-11 2.05130E-12
1.37554E-11 2.05125E-12
1.54213E-11 2.05120E-12
1.71823E-11 2.05114E-12
1.90386E-11 2.05108E-12
2.09900E-11 2.05102E-12
2.30367E-11 2.05095E-12
2.51785E-11 2.05088E-12
2.74156E-11 2.05081E-12
2.97478E-11 2.05073E-12
3.21752E-11 2.05066E-12
3.46979E-11 2.05057E-12
3.73157E-11 2.05049E-12
4.00286E-11 2.05040E-12
4.28368E-11 2.05031E-12
4.57402E-11 2.05022E-12
4.87388E-11 2.05012E-12
5.18325E-11 2.05002E-12
5.50215E-11 2.04992E-12
5.83057E-11 2.04981E-12
6.16850E-11 2.04970E-12
6.51595E-11 2.04959E-12
6.87293E-11 2.04947E-12
7.23943E-11 2.04936E-12
7.61544E-11 2.04924E-12
1.18991E-10 2.04786E-12
1.71347E-10 2.04617E-12
2.33223E-10 2.04419E-12
3.04617E-10 2.04191E-12
3.85531E-10 2.03932E-12
4.75965E-10 2.03644E-12
5.75917E-10 2.03327E-12
6.85389E-10 2.02980E-12
8.04380E-10 2.02605E-12
9.32891E-10 2.02201E-12
1.07092E-09 2.01768E-12
1.21847E-09 2.01307E-12
1.37554E-09 2.00819E-12
1.54213E-09 2.00303E-12
1.71823E-09 1.99760E-12
1.90386E-09 1.99191E-12
2.09900E-09 1.98595E-12
2.30367E-09 1.97973E-12
2.51785E-09 1.97326E-12
2.74156E-09 1.96654E-12
2.97478E-09 1.95957E-12
3.21752E-09 1.95237E-12
3.46978E-09 1.94493E-12
3.73156E-09 1.93726E-12
4.00286E-09 1.92936E-12
4.28368E-09 1.92124E-12
4.57402E-09 1.91291E-12
4.87388E-09 1.90437E-12
5.18326E-09 1.89563E-12
5.50215E-09 1.88668E-12
5.83057E-09 1.87755E-12
6.16850E-09 1.86823E-12
6.51596E-09 1.85873E-12
6.87293E-09 1.84905E-12
7.23942E-09 1.83920E-12
7.61544E-09 1.82919E-12
1.18991E-08 1.72171E-12
1.71347E-08 1.60416E-12
2.33223E-08 1.48225E-12
3.04617E-08 1.36069E-12
3.85531E-08 1.24314E-12
4.75965E-08 1.13223E-12
5.75917E-08 1.02961E-12
6.85389E-08 9.36308E-13
8.04380E-08 8.52134E-13
9.32891E-08 7.76788E-13
1.07092E-07 7.09689E-13
1.21847E-07 6.50108E-13
1.37554E-07 5.97257E-13
1.54213E-07 5.50351E-13
1.71823E-07 5.08646E-13
1.90386E-07 4.71463E-13
2.09900E-07 4.38197E-13
2.30367E-07 4.08316E-13
2.51785E-07 3.81348E-13
2.74156E-07 3.56894E-13
2.97478E-07 3.34628E-13
3.21752E-07 3.14272E-13
3.46978E-07 2.95591E-13
3.73156E-07 2.78387E-13
4.00286E-07 2.62490E-13
4.28368E-07 2.47759E-13
4.57402E-07 2.34071E-13
4.87388E-07 2.21323E-13
5.18325E-07 2.09418E-13
5.50215E-07 1.98264E-13
5.83057E-07 1.87822E-13
6.16850E-07 1.78032E-13
6.51596E-07 1.68845E-13
6.87293E-07 1.60215E-13
7.23942E-07 1.52101E-13
7.61543E-07 1.44467E-13
1.18991E-06 8.72624E-14
1.71347E-06 5.60833E-14
2.33223E-06 3.75450E-14
3.04617E-06 2.60546E-14
3.85531E-06 1.86227E-14
4.75964E-06 1.36282E-14
5.75916E-06 1.01643E-14
6.85388E-06 7.69504E-15
8.04378E-06 5.91657E-15
9.32888E-06 4.61495E-15
1.07092E-05 3.64880E-15
1.21846E-05 2.92221E-15
1.37553E-05 2.36889E-15
1.54212E-05 1.94227E-15
1.71822E-05 1.60935E-15
1.90385E-05 1.34586E-15
2.09899E-05 1.13661E-15
2.30365E-05 9.67737E-16
2.51783E-05 8.28787E-16
2.74153E-05 7.14311E-16
2.97475E-05 6.19287E-16
3.21749E-05 5.39836E-16
3.46974E-05 4.72928E-16
3.73152E-05 4.16186E-16
4.00281E-05 3.67736E-16
4.28362E-05 3.26106E-16
4.57395E-05 2.90140E-16
4.87380E-05 2.58923E-16
5.18317E-05 2.31721E-16
5.50205E-05 2.07933E-16
5.83045E-05 1.87094E-16
6.16838E-05 1.68785E-16
6.51582E-05 1.52653E-16
6.87277E-05 1.38394E-16
7.23925E-05 1.25752E-16
7.61524E-05 1.14509E-16
9.21439E-05 8.02715E-17
1.09658E-04 5.78736E-17
1.28695E-04 4.27798E-17
1.49255E-04 3.23020E-17
1.71338E-04 2.48518E-17
1.94942E-04 1.94336E-17
2.20070E-04 1.54168E-17
2.46720E-04 1.23874E-17
2.74892E-04 1.00671E-17
3.04586E-04 8.26553E-18
3.35803E-04 6.84931E-18
3.68542E-04 5.72336E-18
4.02802E-04 4.81888E-18
4.38585E-04 4.08587E-18
4.75889E-04 3.48679E-18
5.14715E-04 2.99330E-18
5.55063E-04 2.58385E-18
5.96931E-04 2.24185E-18
6.40321E-04 1.95442E-18
6.85233E-04 1.71145E-18
7.31665E-04 1.50494E-18
7.79618E-04 1.32855E-18
8.29092E-04 1.17715E-18
8.80086E-04 1.04662E-18
9.32601E-04 9.33623E-19
9.86636E-04 8.35420E-19
1.04219E-03 7.49751E-19
1.09927E-03 6.74749E-19
1.15786E-03 6.08864E-19
1.21797E-03 5.50802E-19
1.27961E-03 4.99477E-19
1.34276E-03 4.53974E-19
1.40743E-03 4.13521E-19
1.47362E-03 3.77459E-19
1.54133E-03 3.45231E-19
1.61056E-03 3.16361E-19
1.68131E-03 2.90437E-19
1.75357E-03 2.67108E-19
1.82735E-03 2.46069E-19
1.90265E-03 2.27055E-19
1.97947E-03 2.09837E-19
2.05780E-03 1.94217E-19
2.13765E-03 1.80019E-19
2.21902E-03 1.67092E-19
2.30190E-03 1.55301E-19
2.38630E-03 1.44528E-19
2.47222E-03 1.34671E-19
2.55965E-03 1.25638E-19
2.64859E-03 1.17347E-19
2.73905E-03 1.09727E-19
2.83103E-03 1.02713E-19
2.92452E-03 9.62495E-20
3.01952E-03 9.02847E-20
3.11604E-03 8.47734E-20
3.21407E-03 7.96749E-20
3.31362E-03 7.49525E-20
3.41468E-03 7.05736E-20
3.51725E-03 6.65087E-20
3.62133E-03 6.27312E-20
3.72692E-03 5.92171E-20
3.83403E-03 5.59448E-20
3.94265E-03 5.28945E-20
4.05278E-03 5.00485E-20
4.16442E-03 4.73905E-20
4.27757E-03 4.49060E-20
4.39223E-03 4.25815E-20
4.50840E-03 4.04047E-20
4.62608E-03 3.83648E-20
4.74527E-03 3.64512E-20
4.86597E-03 3.46551E-20
4.98817E-03 3.29677E-20
5.11188E-03 3.13812E-20
5.23711E-03 2.98886E-20
5.36383E-03 2.84833E-20
5.49207E-03 2.71592E-20
5.62181E-03 2.59107E-20
5.75306E-03 2.47328E-20
5.88581E-03 2.36208E-20
6.02007E-03 2.25701E-20
6.15583E-03 2.15770E-20
6.29310E-03 2.06376E-20
6.43187E-03 1.97484E-20
6.57214E-03 1.89064E-20
6.71392E-03 1.81086E-20
6.85720E-03 1.73521E-20
7.00198E-03 1.66345E-20
7.14827E-03 1.59534E-20
7.29605E-03 1.53066E-20
7.44534E-03 1.46920E-20
7.59612E-03 1.41078E-20
7.97965E-03 1.27687E-20
8.37255E-03 1.15839E-20
8.77480E-03 1.05325E-20
9.18641E-03 9.59708E-21
9.60736E-03 8.76253E-21
1.00376E-02 8.01618E-21
1.04773E-02 7.34712E-21
1.09262E-02 6.74596E-21
1.13844E-02 6.20463E-21
1.18520E-02 5.71615E-21
1.23288E-02 5.27447E-21
1.28150E-02 4.87433E-21
1.33104E-02 4.51115E-21
1.38150E-02 4.18092E-21
1.43290E-02 3.88013E-21
1.48521E-02 3.60569E-21
1.53845E-02 3.35491E-21
1.59262E-02 3.12538E-21
1.64770E-02 2.91499E-21
1.70371E-02 2.72186E-21
1.76063E-02 2.54434E-21
1.81848E-02 2.38093E-21
1.87724E-02 2.23032E-21
1.93692E-02 2.09132E-21
1.99751E-02 1.96290E-21
2.05901E-02 1.84409E-21
2.12143E-02 1.73405E-21
2.18476E-02 1.63203E-21
2.24900E-02 1.53733E-21
2.31415E-02 1.44933E-21
2.38021E-02 1.36749E-21
2.44717E-02 1.29128E-21
2.51504E-02 1.22026E-21
2.58382E-02 1.15400E-21
2.65349E-02 1.09214E-21
2.72407E-02 1.03433E-21
2.79555E-02 9.80248E-22
2.86793E-02 9.29622E-22
2.94120E-02 8.82188E-22
3.01537E-02 8.37709E-22
3.09043E-02 7.95968E-22
3.16639E-02 7.56767E-22
3.24324E-02 7.19924E-22
3.32098E-02 6.85271E-22
3.39961E-02 6.52654E-22
3.47912E-02 6.21934E-22
3.55952E-02 5.92980E-22
3.64081E-02 5.65671E-22
3.72297E-02 5.39899E-22
3.80602E-02 5.15560E-22
3.88995E-02 4.92562E-22
3.97476E-02 4.70816E-22
4.06044E-02 4.50243E-22
4.14700E-02 4.30768E-22
4.23443E-02 4.12321E-22
4.32273E-02 3.94839E-22
4.41190E-02 3.78262E-22
4.50194E-02 3.62535E-22
4.59284E-02 3.47607E-22
4.68461E-02 3.33429E-22
4.87074E-02 3.07150E-22
5.06030E-02 2.83378E-22
5.25328E-02 2.61832E-22
5.44967E-02 2.42270E-22
5.64946E-02 2.24476E-22
5.85262E-02 2.08265E-22
6.05914E-02 1.93470E-22
6.26901E-02 1.79948E-22
6.48222E-02 1.67571E-22
6.69873E-02 1.56224E-22
6.91854E-02 1.45808E-22
7.14163E-02 1.36232E-22
7.36799E-02 1.27418E-22
7.59760E-02 1.19294E-22
7.83043E-02 1.11797E-22
8.06647E-02 1.04871E-22
8.30571E-02 9.84636E-23
8.54812E-02 9.25305E-23
8.79369E-02 8.70302E-23
9.04240E-02 8.19255E-23
9.29422E-02 7.71832E-23
9.54915E-02 7.27730E-23
9.80716E-02 6.86677E-23
1.00682E-01 6.48425E-23
1.03323E-01 6.12752E-23
1.05995E-01 5.79452E-23
1.08696E-01 5.48341E-23
1.11427E-01 5.19249E-23
1.14188E-01 4.92023E-23
1.16978E-01 4.66522E-23
1.19797E-01 4.42619E-23
1.22645E-01 4.20195E-23
1.25522E-01 3.99144E-23
1.28428E-01 3.79367E-23
1.31361E-01 3.60773E-23
1.34323E-01 3.43280E-23
1.37313E-01 3.26810E-23
1.40330E-01 3.11293E-23
1.43375E-01 2.96666E-23
1.46447E-01 2.82867E-23
1.49545E-01 2.69843E-23
1.52671E-01 2.57541E-23
1.55823E-01 2.45916E-23
1.59001E-01 2.34922E-23
1.62205E-01 2.24521E-23
1.65435E-01 2.14673E-23
1.68690E-01 2.05346E-23
1.71970E-01 1.96507E-23
1.75276E-01 1.88125E-23
1.78606E-01 1.80173E-23
1.81961E-01 1.72626E-23
1.85340E-01 1.65458E-23
1.88743E-01 1.58648E-23
1.92169E-01 1.52174E-23
1.95619E-01 1.46017E-23
1.99092E-01 1.40160E-23
2.02589E-01 1.34584E-23
2.06107E-01 1.29274E-23
2.09649E-01 1.24215E-23
2.13212E-01 1.19393E-23
2.16797E-01 1.14796E-23
2.20404E-01 1.10410E-23
2.24032E-01 1.06225E-23
2.27680E-01 1.02229E-23
2.31350E-01 9.84133E-24
2.35040E-01 9.47675E-24
2.38751E-01 9.12830E-24
2.42481E-01 8.79513E-24
2.46231E-01 8.47646E-24
2.50000E-01 8.17156E-24
2.53788E-01 7.87972E-24
2.57595E-01 7.60030E-24
2.61421E-01 7.33266E-24
2.65264E-01 7.07624E-24
2.69126E-01 6.83048E-24
2.73005E-01 6.59485E-24
2.76901E-01 6.36887E-24
2.80814E-01 6.15208E-24
2.84744E-01 5.94403E-24
2.88691E-01 5.74432E-24
2.92653E-01 5.55256E-24
2.96632E-01 5.36838E-24
3.00625E-01 5.19142E-24
3.04634E-01 5.02134E-24
3.08658E-01 4.85785E-24
3.12697E-01 4.70064E-24
3.16749E-01 4.54942E-24
3.20816E-01 4.40393E-24
3.24896E-01 4.26393E-24
3.28990E-01 4.12916E-24
3.33097E-01 3.99939E-24
3.37216E-01 3.87441E-24
3.41348E-01 3.75401E-24
3.45492E-01 3.63800E-24
3.49647E-01 3.52619E-24
3.53814E-01 3.41840E-24
3.57992E-01 3.31446E-24
3.62181E-01 3.21421E-24
3.66381E-01 3.11750E-24
3.70590E-01 3.02419E-24
3.74810E-01 2.93412E-24
3.79039E-01 2.84718E-24
3.83277E-01 2.76323E-24
3.87524E-01 2.68215E-24
3.91780E-01 2.60384E-24
3.96044E-01 2.52817E-24
4.00316E-01 2.45505E-24
4.04596E-01 2.38437E-24
4.08882E-01 2.31605E-24
4.13176E-01 2.24998E-24
4.17476E-01 2.18608E-24
4.21783E-01 2.12427E-24
4.26095E-01 2.06447E-24
4.30413E-01 2.00661E-24
4.34737E-01 1.95060E-24
4.39065E-01 1.89639E-24
4.43398E-01 1.84389E-24
4.47736E-01 1.79306E-24
4.52077E-01 1.74382E-24
4.56422E-01 1.69613E-24
4.60770E-01 1.64992E-24
4.65122E-01 1.60514E-24
4.69476E-01 1.56174E-24
4.73832E-01 1.51967E-24
4.78190E-01 1.47888E-24
4.82550E-01 1.43933E-24
4.86912E-01 1.40097E-24
4.91274E-01 1.36376E-24
4.95637E-01 1.32766E-24
5.00000E-01 1.29264E-24
5.04363E-01 1.25865E-24
5.08726E-01 1.22566E-24
5.13088E-01 1.19364E-24
5.17450E-01 1.16255E-24
5.21810E-01 1.13236E-24
5.26168E-01 1.10305E-24
5.30524E-01 1.07458E-24
5.34878E-01 1.04692E-24
5.39230E-01 1.02004E-24
5.43578E-01 9.93934E-25
5.47923E-01 9.68560E-25
5.52264E-01 9.43898E-25
5.56602E-01 9.19926E-25
5.60935E-01 8.96620E-25
5.65263E-01 8.73960E-25
5.69587E-01 8.51925E-25
5.73905E-01 8.30496E-25
5.78217E-01 8.09652E-25
5.82524E-01 7.89375E-25
5.86824E-01 7.69648E-25
5.91118E-01 7.50454E-25
5.95404E-01 7.31775E-25
5.99684E-01 7.13597E-25
6.03956E-01 6.95903E-25
6.08220E-01 6.78678E-25
6.12476E-01 6.61910E-25
6.16723E-01 6.45582E-25
6.20961E-01 6.29683E-25
6.25190E-01 6.14200E-25
6.29410E-01 5.99119E-25
6.33619E-01 5.84429E-25
6.37819E-01 5.70119E-25
6.42008E-01 5.56177E-25
6.46186E-01 5.42592E-25
6.50353E-01 5.29354E-25
6.54508E-01 5.16452E-25
6.58652E-01 5.03878E-25
6.62784E-01 4.91621E-25
6.66903E-01 4.79673E-25
6.71010E-01 4.68024E-25
6.75104E-01 4.56666E-25
6.79184E-01 4.45592E-25
6.83251E-01 4.34791E-25
6.87303E-01 4.24258E-25
6.91342E-01 4.13985E-25
6.95366E-01 4.03964E-25
6.99375E-01 3.94189E-25
7.03368E-01 3.84652E-25
7.07347E-01 3.75347E-25
7.11309E-01 3.66267E-25
7.15256E-01 3.57408E-25
7.19186E-01 3.48762E-25
7.23099E-01 3.40323E-25
7.26995E-01 3.32087E-25
7.30874E-01 3.24048E-25
7.34736E-01 3.16200E-25
7.38579E-01 3.08539E-25
7.42405E-01 3.01059E-25
7.46212E-01 2.93756E-25
7.50000E-01 2.86625E-25
7.53769E-01 2.79662E-25
7.57519E-01 2.72862E-25
7.61249E-01 2.66221E-25
7.64960E-01 2.59735E-25
7.68650E-01 2.53400E-25
7.72320E-01 2.47212E-25
7.75968E-01 2.41167E-25
7.79596E-01 2.35262E-25
7.83203E-01 2.29494E-25
7.86788E-01 2.23858E-25
7.90351E-01 2.18352E-25
7.93893E-01 2.12972E-25
7.97411E-01 2.07715E-25
8.00908E-01 2.02579E-25
8.04381E-01 1.97559E-25
8.07831E-01 1.92654E-25
8.11257E-01 1.87861E-25
8.14660E-01 1.83176E-25
8.18039E-01 1.78598E-25
8.21394E-01 1.74123E-25
8.24724E-01 1.69749E-25
8.28030E-01 1.65475E-25
8.31310E-01 1.61296E-25
8.34565E-01 1.57212E-25
8.37795E-01 1.53220E-25
8.40999E-01 1.49318E-25
8.44177E-01 1.45504E-25
8.47329E-01 1.41776E-25
8.50455E-01 1.38131E-25
8.53553E-01 1.34568E-25
8.56625E-01 1.31085E-25
8.59670E-01 1.27681E-25
8.62687E-01 1.24353E-25
8.65677E-01 1.21100E-25
8.68639E-01 1.17920E-25
8.71572E-01 1.14812E-25
8.74478E-01 1.11773E-25
8.77355E-01 1.08803E-25
8.80203E-01 1.05900E-25
8.83022E-01 1.03062E-25
8.85812E-01 1.00289E-25
8.88573E-01 9.75783E-26
8.91304E-01 9.49291E-26
8.94005E-01 9.23400E-26
8.96677E-01 8.98098E-26
8.99318E-01 8.73373E-26
9.01928E-01 8.49213E-26
9.04508E-01 8.25607E-26
9.07058E-01 8.02542E-26
9.09576E-01 7.80009E-26
9.12063E-01 7.57997E-26
9.14519E-01 7.36495E-26
9.16943E-01 7.15493E-26
9.19335E-01 6.94982E-26
9.21696E-01 6.74952E-26
9.24024E-01 6.55395E-26
9.26320E-01 6.36300E-26
9.28584E-01 6.17660E-26
9.30815E-01 5.99465E-26
9.33013E-01 5.81708E-26
9.35178E-01 5.64381E-26
9.37310E-01 5.47476E-26
9.39409E-01 5.30985E-26
9.41474E-01 5.14900E-26
9.43505E-01 4.99216E-26
9.45503E-01 4.83925E-26
9.47467E-01 4.69019E-26
9.49397E-01 4.54494E-26
9.51293E-01 4.40342E-26
9.53154E-01 4.26556E-26
9.54981E-01 4.13132E-26
9.56773E-01 4.00064E-26
9.58530E-01 3.87345E-26
9.60252E-01 3.74970E-26
9.61940E-01 3.62934E-26
9.63592E-01 3.51232E-26
9.65209E-01 3.39859E-26
9.66790E-01 3.28810E-26
9.68336E-01 3.18080E-26
9.69846E-01 3.07665E-26
9.71321E-01 2.97560E-26
9.72759E-01 2.87762E-26
9.74162E-01 2.78265E-26
9.75528E-01 2.69067E-26
9.76858E-01 2.60163E-26
9.78152E-01 2.51549E-26
9.79410E-01 2.43223E-26
9.80631E-01 2.35180E-26
9.81815E-01 2.27417E-26
9.82963E-01 2.19932E-26
9.84074E-01 2.12720E-26
9.85148E-01 2.05779E-26
9.86185E-01 1.99107E-26
9.87185E-01 1.92700E-26
9.88148E-01 1.86556E-26
9.89074E-01 1.80673E-26
9.89962E-01 1.75047E-26
9.90814E-01 1.69677E-26
9.91627E-01 1.64561E-26
9.92404E-01 1.59696E-26
9.93143E-01 1.55081E-26
9.93844E-01 1.50713E-26
9.94508E-01 1.46591E-26
9.95134E-01 1.42714E-26
9.95722E-01 1.39079E-26
9.96273E-01 1.35685E-26
9.96786E-01 1.32532E-26
9.97261E-01 1.29617E-26
9.97698E-01 1.26939E-26
9.98097E-01 1.24498E-26
9.98459E-01 1.22292E-26
9.98782E-01 1.20321E-26
9.99067E-01 1.18583E-26
9.99315E-01 1.17079E-26
9.99524E-01 1.15807E-26
9.99695E-01 1.14767E-26
9.99829E-01 1.13958E-26
9.99924E-01 1.13381E-26
9.99981E-01 1.13035E-26
1.00000E+00 1.12919E-26
