 #
 # Subroutine ELSEPA. Elastic scattering of electrons and positrons
 #                    by neutral atoms and positive ions
 #
 # Projectile: positron
 # Kinetic energy = 2.00000E+07 eV = 7.34987E+05 a.u.
 #
 # WARNING: High-energy factorization with free-atom DF screening.
 #          Absorption, polarization and exchange corrections are
 #          switched off.
 #          Phase shifts are calculated for the bare nucleus.
 #          Scattering amplitudes are not evaluated.
 #
 # Element: Er,  Z =  68,  atomic weight = 1.67260E+02 g/mol
 #
 # Nuclear model: Fermi distribution
 #                Average radius = 5.89542E-13 cm
 #                Skin thickness = 5.46000E-14 cm
 #
 # Number of electrons = 68
 #
 # Total elastic cross section = 7.05923E-18 cm**2 = 2.52090E-01 a0**2
 # 1st transport cross section = 1.71582E-23 cm**2 = 6.12731E-07 a0**2
 # 2nd transport cross section = 4.99089E-23 cm**2 = 1.78228E-06 a0**2
 #
 #
 # Differential cross section:                       MU=(1-COS(THETA))/2
 #
 #  THETA        MU          DCS          DCS        Sherman      error
 #  (deg)                 (cm**2/sr)   (a0**2/sr)    function
 #----------------------------------------------------------------------
0.00000E+00 3.03987E-11
7.61557E-13 3.03928E-11
1.18994E-12 3.03896E-11
1.71346E-12 3.03856E-11
2.33225E-12 3.03809E-11
3.04617E-12 3.03755E-11
3.85530E-12 3.03694E-11
4.75964E-12 3.03626E-11
5.75917E-12 3.03550E-11
6.85391E-12 3.03468E-11
8.04379E-12 3.03378E-11
9.32893E-12 3.03281E-11
1.07092E-11 3.03178E-11
1.21847E-11 3.03067E-11
1.37554E-11 3.02949E-11
1.54213E-11 3.02824E-11
1.71823E-11 3.02692E-11
1.90386E-11 3.02553E-11
2.09900E-11 3.02407E-11
2.30367E-11 3.02253E-11
2.51785E-11 3.02093E-11
2.74156E-11 3.01926E-11
2.97478E-11 3.01753E-11
3.21752E-11 3.01572E-11
3.46979E-11 3.01384E-11
3.73157E-11 3.01190E-11
4.00286E-11 3.00988E-11
4.28368E-11 3.00780E-11
4.57402E-11 3.00565E-11
4.87388E-11 3.00343E-11
5.18325E-11 3.00115E-11
5.50215E-11 2.99879E-11
5.83057E-11 2.99637E-11
6.16850E-11 2.99389E-11
6.51595E-11 2.99134E-11
6.87293E-11 2.98872E-11
7.23943E-11 2.98603E-11
7.61544E-11 2.98328E-11
1.18991E-10 2.95226E-11
1.71347E-10 2.91509E-11
2.33223E-10 2.87217E-11
3.04617E-10 2.82397E-11
3.85531E-10 2.77099E-11
4.75965E-10 2.71377E-11
5.75917E-10 2.65297E-11
6.85389E-10 2.58913E-11
8.04380E-10 2.52233E-11
9.32891E-10 2.45379E-11
1.07092E-09 2.38373E-11
1.21847E-09 2.31217E-11
1.37554E-09 2.24089E-11
1.54213E-09 2.16902E-11
1.71823E-09 2.09730E-11
1.90386E-09 2.02680E-11
2.09900E-09 1.95663E-11
2.30367E-09 1.88808E-11
2.51785E-09 1.82105E-11
2.74156E-09 1.75504E-11
2.97478E-09 1.69178E-11
3.21752E-09 1.62996E-11
3.46978E-09 1.56996E-11
3.73156E-09 1.51268E-11
4.00286E-09 1.45695E-11
4.28368E-09 1.40366E-11
4.57402E-09 1.35261E-11
4.87388E-09 1.30318E-11
5.18326E-09 1.25652E-11
5.50215E-09 1.21159E-11
5.83057E-09 1.16847E-11
6.16850E-09 1.12774E-11
6.51596E-09 1.08850E-11
6.87293E-09 1.05121E-11
7.23942E-09 1.01573E-11
7.61544E-09 9.81619E-12
1.18991E-08 7.17443E-12
1.71347E-08 5.46985E-12
2.33223E-08 4.29666E-12
3.04617E-08 3.43851E-12
3.85531E-08 2.78390E-12
4.75965E-08 2.27301E-12
5.75917E-08 1.85783E-12
6.85389E-08 1.52451E-12
8.04380E-08 1.27952E-12
9.32891E-08 1.07220E-12
1.07092E-07 9.02942E-13
1.21847E-07 7.72838E-13
1.37554E-07 6.56764E-13
1.54213E-07 5.64857E-13
1.71823E-07 4.89506E-13
1.90386E-07 4.23687E-13
2.09900E-07 3.70419E-13
2.30367E-07 3.24333E-13
2.51785E-07 2.84873E-13
2.74156E-07 2.52174E-13
2.97478E-07 2.22685E-13
3.21752E-07 1.97784E-13
3.46978E-07 1.76403E-13
3.73156E-07 1.57222E-13
4.00286E-07 1.40882E-13
4.28368E-07 1.26400E-13
4.57402E-07 1.13606E-13
4.87388E-07 1.02559E-13
5.18325E-07 9.25474E-14
5.50215E-07 8.37899E-14
5.83057E-07 7.60794E-14
6.16850E-07 6.91084E-14
6.51596E-07 6.29820E-14
6.87293E-07 5.74911E-14
7.23942E-07 5.25646E-14
7.61543E-07 4.81946E-14
1.18991E-06 2.21384E-14
1.71347E-06 1.16978E-14
2.33223E-06 6.81048E-15
3.04617E-06 4.23269E-15
3.85531E-06 2.76278E-15
4.75964E-06 1.87675E-15
5.75916E-06 1.31642E-15
6.85388E-06 9.50831E-16
8.04378E-06 7.03678E-16
9.32888E-06 5.31835E-16
1.07092E-05 4.09462E-16
1.21846E-05 3.20333E-16
1.37553E-05 2.54224E-16
1.54212E-05 2.04346E-16
1.71822E-05 1.66136E-16
1.90385E-05 1.36399E-16
2.09899E-05 1.13144E-16
2.30365E-05 9.46288E-17
2.51783E-05 7.97304E-17
2.74153E-05 6.76349E-17
2.97475E-05 5.77391E-17
3.21749E-05 4.95860E-17
3.46974E-05 4.28242E-17
3.73152E-05 3.71796E-17
4.00281E-05 3.24369E-17
4.28362E-05 2.84270E-17
4.57395E-05 2.50162E-17
4.87380E-05 2.20993E-17
5.18317E-05 1.95932E-17
5.50205E-05 1.74306E-17
5.83045E-05 1.55572E-17
6.16838E-05 1.39285E-17
6.51582E-05 1.25074E-17
6.87277E-05 1.12631E-17
7.23925E-05 1.01698E-17
7.61524E-05 9.20585E-18
9.21439E-05 6.32306E-18
1.09658E-04 4.48405E-18
1.28695E-04 3.26741E-18
1.49255E-04 2.43639E-18
1.71338E-04 1.85354E-18
1.94942E-04 1.43489E-18
2.20070E-04 1.12799E-18
2.46720E-04 8.98884E-19
2.74892E-04 7.25058E-19
3.04586E-04 5.91262E-19
3.35803E-04 4.86920E-19
3.68542E-04 4.04591E-19
4.02802E-04 3.38928E-19
4.38585E-04 2.86043E-19
4.75889E-04 2.43068E-19
5.14715E-04 2.07856E-19
5.55063E-04 1.78784E-19
5.96931E-04 1.54614E-19
6.40321E-04 1.34385E-19
6.85233E-04 1.17353E-19
7.31665E-04 1.02929E-19
7.79618E-04 9.06510E-20
8.29092E-04 8.01456E-20
8.80086E-04 7.11156E-20
9.32601E-04 6.33191E-20
9.86636E-04 5.65599E-20
1.04219E-03 5.06765E-20
1.09927E-03 4.55368E-20
1.15786E-03 4.10306E-20
1.21797E-03 3.70669E-20
1.27961E-03 3.35690E-20
1.34276E-03 3.04731E-20
1.40743E-03 2.77249E-20
1.47362E-03 2.52787E-20
1.54133E-03 2.30957E-20
1.61056E-03 2.11426E-20
1.68131E-03 1.93910E-20
1.75357E-03 1.78165E-20
1.82735E-03 1.63981E-20
1.90265E-03 1.51176E-20
1.97947E-03 1.39593E-20
2.05780E-03 1.29094E-20
2.13765E-03 1.19561E-20
2.21902E-03 1.10889E-20
2.30190E-03 1.02986E-20
2.38630E-03 9.57720E-21
2.47222E-03 8.91766E-21
2.55965E-03 8.31371E-21
2.64859E-03 7.75984E-21
2.73905E-03 7.25116E-21
2.83103E-03 6.78332E-21
2.92452E-03 6.35246E-21
3.01952E-03 5.95514E-21
3.11604E-03 5.58828E-21
3.21407E-03 5.24912E-21
3.31362E-03 4.93519E-21
3.41468E-03 4.64428E-21
3.51725E-03 4.37441E-21
3.62133E-03 4.12377E-21
3.72692E-03 3.89074E-21
3.83403E-03 3.67388E-21
3.94265E-03 3.47184E-21
4.05278E-03 3.28345E-21
4.16442E-03 3.10760E-21
4.27757E-03 2.94331E-21
4.39223E-03 2.78968E-21
4.50840E-03 2.64590E-21
4.62608E-03 2.51122E-21
4.74527E-03 2.38496E-21
4.86597E-03 2.26649E-21
4.98817E-03 2.15526E-21
5.11188E-03 2.05073E-21
5.23711E-03 1.95242E-21
5.36383E-03 1.85991E-21
5.49207E-03 1.77278E-21
5.62181E-03 1.69067E-21
5.75306E-03 1.61323E-21
5.88581E-03 1.54015E-21
6.02007E-03 1.47114E-21
6.15583E-03 1.40594E-21
6.29310E-03 1.34428E-21
6.43187E-03 1.28595E-21
6.57214E-03 1.23073E-21
6.71392E-03 1.17842E-21
6.85720E-03 1.12885E-21
7.00198E-03 1.08184E-21
7.14827E-03 1.03724E-21
7.29605E-03 9.94900E-22
7.44534E-03 9.54686E-22
7.59612E-03 9.16471E-22
7.97965E-03 8.28925E-22
8.37255E-03 7.51525E-22
8.77480E-03 6.82899E-22
9.18641E-03 6.21883E-22
9.60736E-03 5.67488E-22
1.00376E-02 5.18874E-22
1.04773E-02 4.75323E-22
1.09262E-02 4.36216E-22
1.13844E-02 4.01021E-22
1.18520E-02 3.69281E-22
1.23288E-02 3.40597E-22
1.28150E-02 3.14625E-22
1.33104E-02 2.91063E-22
1.38150E-02 2.69650E-22
1.43290E-02 2.50154E-22
1.48521E-02 2.32375E-22
1.53845E-02 2.16136E-22
1.59262E-02 2.01279E-22
1.64770E-02 1.87666E-22
1.70371E-02 1.75175E-22
1.76063E-02 1.63697E-22
1.81848E-02 1.53136E-22
1.87724E-02 1.43405E-22
1.93692E-02 1.34428E-22
1.99751E-02 1.26136E-22
2.05901E-02 1.18468E-22
2.12143E-02 1.11368E-22
2.18476E-02 1.04787E-22
2.24900E-02 9.86799E-23
2.31415E-02 9.30071E-23
2.38021E-02 8.77320E-23
2.44717E-02 8.28218E-23
2.51504E-02 7.82467E-23
2.58382E-02 7.39799E-23
2.65349E-02 6.99969E-23
2.72407E-02 6.62754E-23
2.79555E-02 6.27952E-23
2.86793E-02 5.95380E-23
2.94120E-02 5.64868E-23
3.01537E-02 5.36264E-23
3.09043E-02 5.09426E-23
3.16639E-02 4.84226E-23
3.24324E-02 4.60547E-23
3.32098E-02 4.38280E-23
3.39961E-02 4.17327E-23
3.47912E-02 3.97595E-23
3.55952E-02 3.79000E-23
3.64081E-02 3.61467E-23
3.72297E-02 3.44922E-23
3.80602E-02 3.29301E-23
3.88995E-02 3.14543E-23
3.97476E-02 3.00591E-23
4.06044E-02 2.87394E-23
4.14700E-02 2.74903E-23
4.23443E-02 2.63074E-23
4.32273E-02 2.51866E-23
4.41190E-02 2.41240E-23
4.50194E-02 2.31160E-23
4.59284E-02 2.21594E-23
4.68461E-02 2.12510E-23
4.87074E-02 1.95677E-23
5.06030E-02 1.80455E-23
5.25328E-02 1.66663E-23
5.44967E-02 1.54144E-23
5.64946E-02 1.42762E-23
5.85262E-02 1.32395E-23
6.05914E-02 1.22936E-23
6.26901E-02 1.14292E-23
6.48222E-02 1.06382E-23
6.69873E-02 9.91331E-24
6.91854E-02 9.24805E-24
7.14163E-02 8.63669E-24
7.36799E-02 8.07410E-24
7.59760E-02 7.55575E-24
7.83043E-02 7.07755E-24
8.06647E-02 6.63587E-24
8.30571E-02 6.22744E-24
8.54812E-02 5.84933E-24
8.79369E-02 5.49891E-24
9.04240E-02 5.17381E-24
9.29422E-02 4.87187E-24
9.54915E-02 4.59117E-24
9.80716E-02 4.32996E-24
1.00682E-01 4.08665E-24
1.03323E-01 3.85981E-24
1.05995E-01 3.64814E-24
1.08696E-01 3.45044E-24
1.11427E-01 3.26563E-24
1.14188E-01 3.09274E-24
1.16978E-01 2.93086E-24
1.19797E-01 2.77916E-24
1.22645E-01 2.63691E-24
1.25522E-01 2.50341E-24
1.28428E-01 2.37803E-24
1.31361E-01 2.26019E-24
1.34323E-01 2.14937E-24
1.37313E-01 2.04506E-24
1.40330E-01 1.94684E-24
1.43375E-01 1.85427E-24
1.46447E-01 1.76698E-24
1.49545E-01 1.68461E-24
1.52671E-01 1.60685E-24
1.55823E-01 1.53339E-24
1.59001E-01 1.46394E-24
1.62205E-01 1.39827E-24
1.65435E-01 1.33611E-24
1.68690E-01 1.27726E-24
1.71970E-01 1.22151E-24
1.75276E-01 1.16867E-24
1.78606E-01 1.11856E-24
1.81961E-01 1.07101E-24
1.85340E-01 1.02588E-24
1.88743E-01 9.83014E-25
1.92169E-01 9.42284E-25
1.95619E-01 9.03565E-25
1.99092E-01 8.66741E-25
2.02589E-01 8.31703E-25
2.06107E-01 7.98351E-25
2.09649E-01 7.66590E-25
2.13212E-01 7.36330E-25
2.16797E-01 7.07490E-25
2.20404E-01 6.79990E-25
2.24032E-01 6.53760E-25
2.27680E-01 6.28729E-25
2.31350E-01 6.04834E-25
2.35040E-01 5.82015E-25
2.38751E-01 5.60216E-25
2.42481E-01 5.39382E-25
2.46231E-01 5.19465E-25
2.50000E-01 5.00417E-25
2.53788E-01 4.82194E-25
2.57595E-01 4.64754E-25
2.61421E-01 4.48058E-25
2.65264E-01 4.32069E-25
2.69126E-01 4.16752E-25
2.73005E-01 4.02074E-25
2.76901E-01 3.88005E-25
2.80814E-01 3.74514E-25
2.84744E-01 3.61574E-25
2.88691E-01 3.49158E-25
2.92653E-01 3.37243E-25
2.96632E-01 3.25804E-25
3.00625E-01 3.14820E-25
3.04634E-01 3.04269E-25
3.08658E-01 2.94131E-25
3.12697E-01 2.84388E-25
3.16749E-01 2.75022E-25
3.20816E-01 2.66015E-25
3.24896E-01 2.57352E-25
3.28990E-01 2.49018E-25
3.33097E-01 2.40997E-25
3.37216E-01 2.33277E-25
3.41348E-01 2.25844E-25
3.45492E-01 2.18685E-25
3.49647E-01 2.11790E-25
3.53814E-01 2.05146E-25
3.57992E-01 1.98744E-25
3.62181E-01 1.92572E-25
3.66381E-01 1.86622E-25
3.70590E-01 1.80883E-25
3.74810E-01 1.75348E-25
3.79039E-01 1.70008E-25
3.83277E-01 1.64854E-25
3.87524E-01 1.59881E-25
3.91780E-01 1.55079E-25
3.96044E-01 1.50442E-25
4.00316E-01 1.45964E-25
4.04596E-01 1.41639E-25
4.08882E-01 1.37460E-25
4.13176E-01 1.33421E-25
4.17476E-01 1.29518E-25
4.21783E-01 1.25744E-25
4.26095E-01 1.22096E-25
4.30413E-01 1.18568E-25
4.34737E-01 1.15155E-25
4.39065E-01 1.11853E-25
4.43398E-01 1.08658E-25
4.47736E-01 1.05567E-25
4.52077E-01 1.02574E-25
4.56422E-01 9.96771E-26
4.60770E-01 9.68720E-26
4.65122E-01 9.41556E-26
4.69476E-01 9.15245E-26
4.73832E-01 8.89757E-26
4.78190E-01 8.65062E-26
4.82550E-01 8.41132E-26
4.86912E-01 8.17939E-26
4.91274E-01 7.95458E-26
4.95637E-01 7.73663E-26
5.00000E-01 7.52529E-26
5.04363E-01 7.32035E-26
5.08726E-01 7.12157E-26
5.13088E-01 6.92875E-26
5.17450E-01 6.74167E-26
5.21810E-01 6.56015E-26
5.26168E-01 6.38399E-26
5.30524E-01 6.21301E-26
5.34878E-01 6.04704E-26
5.39230E-01 5.88590E-26
5.43578E-01 5.72944E-26
5.47923E-01 5.57751E-26
5.52264E-01 5.42994E-26
5.56602E-01 5.28660E-26
5.60935E-01 5.14734E-26
5.65263E-01 5.01205E-26
5.69587E-01 4.88057E-26
5.73905E-01 4.75281E-26
5.78217E-01 4.62862E-26
5.82524E-01 4.50791E-26
5.86824E-01 4.39055E-26
5.91118E-01 4.27644E-26
5.95404E-01 4.16549E-26
5.99684E-01 4.05758E-26
6.03956E-01 3.95263E-26
6.08220E-01 3.85054E-26
6.12476E-01 3.75122E-26
6.16723E-01 3.65459E-26
6.20961E-01 3.56057E-26
6.25190E-01 3.46907E-26
6.29410E-01 3.38002E-26
6.33619E-01 3.29335E-26
6.37819E-01 3.20897E-26
6.42008E-01 3.12683E-26
6.46186E-01 3.04686E-26
6.50353E-01 2.96899E-26
6.54508E-01 2.89315E-26
6.58652E-01 2.81930E-26
6.62784E-01 2.74737E-26
6.66903E-01 2.67730E-26
6.71010E-01 2.60904E-26
6.75104E-01 2.54254E-26
6.79184E-01 2.47774E-26
6.83251E-01 2.41460E-26
6.87303E-01 2.35307E-26
6.91342E-01 2.29310E-26
6.95366E-01 2.23466E-26
6.99375E-01 2.17768E-26
7.03368E-01 2.12215E-26
7.07347E-01 2.06800E-26
7.11309E-01 2.01522E-26
7.15256E-01 1.96374E-26
7.19186E-01 1.91355E-26
7.23099E-01 1.86461E-26
7.26995E-01 1.81687E-26
7.30874E-01 1.77031E-26
7.34736E-01 1.72490E-26
7.38579E-01 1.68060E-26
7.42405E-01 1.63738E-26
7.46212E-01 1.59522E-26
7.50000E-01 1.55409E-26
7.53769E-01 1.51395E-26
7.57519E-01 1.47479E-26
7.61249E-01 1.43657E-26
7.64960E-01 1.39928E-26
7.68650E-01 1.36288E-26
7.72320E-01 1.32735E-26
7.75968E-01 1.29268E-26
7.79596E-01 1.25883E-26
7.83203E-01 1.22579E-26
7.86788E-01 1.19354E-26
7.90351E-01 1.16205E-26
7.93893E-01 1.13131E-26
7.97411E-01 1.10130E-26
8.00908E-01 1.07199E-26
8.04381E-01 1.04338E-26
8.07831E-01 1.01544E-26
8.11257E-01 9.88155E-27
8.14660E-01 9.61513E-27
8.18039E-01 9.35495E-27
8.21394E-01 9.10086E-27
8.24724E-01 8.85271E-27
8.28030E-01 8.61035E-27
8.31310E-01 8.37365E-27
8.34565E-01 8.14247E-27
8.37795E-01 7.91667E-27
8.40999E-01 7.69612E-27
8.44177E-01 7.48070E-27
8.47329E-01 7.27029E-27
8.50455E-01 7.06476E-27
8.53553E-01 6.86400E-27
8.56625E-01 6.66790E-27
8.59670E-01 6.47635E-27
8.62687E-01 6.28925E-27
8.65677E-01 6.10649E-27
8.68639E-01 5.92797E-27
8.71572E-01 5.75359E-27
8.74478E-01 5.58327E-27
8.77355E-01 5.41690E-27
8.80203E-01 5.25440E-27
8.83022E-01 5.09569E-27
8.85812E-01 4.94067E-27
8.88573E-01 4.78927E-27
8.91304E-01 4.64140E-27
8.94005E-01 4.49699E-27
8.96677E-01 4.35597E-27
8.99318E-01 4.21826E-27
9.01928E-01 4.08379E-27
9.04508E-01 3.95248E-27
9.07058E-01 3.82428E-27
9.09576E-01 3.69912E-27
9.12063E-01 3.57694E-27
9.14519E-01 3.45766E-27
9.16943E-01 3.34124E-27
9.19335E-01 3.22761E-27
9.21696E-01 3.11672E-27
9.24024E-01 3.00852E-27
9.26320E-01 2.90294E-27
9.28584E-01 2.79994E-27
9.30815E-01 2.69946E-27
9.33013E-01 2.60146E-27
9.35178E-01 2.50589E-27
9.37310E-01 2.41271E-27
9.39409E-01 2.32186E-27
9.41474E-01 2.23331E-27
9.43505E-01 2.14700E-27
9.45503E-01 2.06291E-27
9.47467E-01 1.98099E-27
9.49397E-01 1.90119E-27
9.51293E-01 1.82350E-27
9.53154E-01 1.74785E-27
9.54981E-01 1.67423E-27
9.56773E-01 1.60260E-27
9.58530E-01 1.53292E-27
9.60252E-01 1.46516E-27
9.61940E-01 1.39928E-27
9.63592E-01 1.33527E-27
9.65209E-01 1.27308E-27
9.66790E-01 1.21270E-27
9.68336E-01 1.15409E-27
9.69846E-01 1.09722E-27
9.71321E-01 1.04207E-27
9.72759E-01 9.88618E-28
9.74162E-01 9.36834E-28
9.75528E-01 8.86697E-28
9.76858E-01 8.38184E-28
9.78152E-01 7.91272E-28
9.79410E-01 7.45942E-28
9.80631E-01 7.02171E-28
9.81815E-01 6.59942E-28
9.82963E-01 6.19234E-28
9.84074E-01 5.80029E-28
9.85148E-01 5.42311E-28
9.86185E-01 5.06063E-28
9.87185E-01 4.71267E-28
9.88148E-01 4.37909E-28
9.89074E-01 4.05974E-28
9.89962E-01 3.75449E-28
9.90814E-01 3.46318E-28
9.91627E-01 3.18571E-28
9.92404E-01 2.92193E-28
9.93143E-01 2.67175E-28
9.93844E-01 2.43504E-28
9.94508E-01 2.21171E-28
9.95134E-01 2.00165E-28
9.95722E-01 1.80478E-28
9.96273E-01 1.62101E-28
9.96786E-01 1.45026E-28
9.97261E-01 1.29245E-28
9.97698E-01 1.14752E-28
9.98097E-01 1.01540E-28
9.98459E-01 8.96033E-29
9.98782E-01 7.89372E-29
9.99067E-01 6.95368E-29
9.99315E-01 6.13980E-29
9.99524E-01 5.45173E-29
9.99695E-01 4.88917E-29
9.99829E-01 4.45187E-29
9.99924E-01 4.13965E-29
9.99981E-01 3.95238E-29
1.00000E+00 3.88995E-29
