 #
 # Subroutine ELSEPA. Elastic scattering of electrons and positrons
 #                    by neutral atoms and positive ions
 #
 # Projectile: positron
 # Kinetic energy = 3.50000E+07 eV = 1.28623E+06 a.u.
 #
 # WARNING: High-energy factorization with free-atom DF screening.
 #          Absorption, polarization and exchange corrections are
 #          switched off.
 #          Phase shifts are calculated for the bare nucleus.
 #          Scattering amplitudes are not evaluated.
 #
 # Element: Er,  Z =  68,  atomic weight = 1.67260E+02 g/mol
 #
 # Nuclear model: Fermi distribution
 #                Average radius = 5.89542E-13 cm
 #                Skin thickness = 5.46000E-14 cm
 #
 # Number of electrons = 68
 #
 # Total elastic cross section = 7.05399E-18 cm**2 = 2.51902E-01 a0**2
 # 1st transport cross section = 6.19765E-24 cm**2 = 2.21322E-07 a0**2
 # 2nd transport cross section = 1.81176E-23 cm**2 = 6.46991E-07 a0**2
 #
 #
 # Differential cross section:                       MU=(1-COS(THETA))/2
 #
 #  THETA        MU          DCS          DCS        Sherman      error
 #  (deg)                 (cm**2/sr)   (a0**2/sr)    function
 #----------------------------------------------------------------------
0.00000E+00 9.11185E-11
7.61557E-13 9.10664E-11
1.18994E-12 9.10373E-11
1.71346E-12 9.10018E-11
2.33225E-12 9.09599E-11
3.04617E-12 9.09116E-11
3.85530E-12 9.08569E-11
4.75964E-12 9.07959E-11
5.75917E-12 9.07285E-11
6.85391E-12 9.06548E-11
8.04379E-12 9.05749E-11
9.32893E-12 9.04887E-11
1.07092E-11 9.03962E-11
1.21847E-11 9.02976E-11
1.37554E-11 9.01928E-11
1.54213E-11 9.00819E-11
1.71823E-11 8.99649E-11
1.90386E-11 8.98419E-11
2.09900E-11 8.97129E-11
2.30367E-11 8.95779E-11
2.51785E-11 8.94370E-11
2.74156E-11 8.92903E-11
2.97478E-11 8.91377E-11
3.21752E-11 8.89794E-11
3.46979E-11 8.88154E-11
3.73157E-11 8.86458E-11
4.00286E-11 8.84706E-11
4.28368E-11 8.82898E-11
4.57402E-11 8.81035E-11
4.87388E-11 8.79119E-11
5.18325E-11 8.77149E-11
5.50215E-11 8.75127E-11
5.83057E-11 8.73052E-11
6.16850E-11 8.70926E-11
6.51595E-11 8.68749E-11
6.87293E-11 8.66523E-11
7.23943E-11 8.64246E-11
7.61544E-11 8.61921E-11
1.18991E-10 8.36173E-11
1.71347E-10 8.06445E-11
2.33223E-10 7.73693E-11
3.04617E-10 7.38553E-11
3.85531E-10 7.02018E-11
4.75965E-10 6.64898E-11
5.75917E-10 6.27641E-11
6.85389E-10 5.91112E-11
8.04380E-10 5.55636E-11
9.32891E-10 5.21392E-11
1.07092E-09 4.89039E-11
1.21847E-09 4.58416E-11
1.37554E-09 4.29552E-11
1.54213E-09 4.02893E-11
1.71823E-09 3.77994E-11
1.90386E-09 3.54891E-11
2.09900E-09 3.33697E-11
2.30367E-09 3.14056E-11
2.51785E-09 2.95969E-11
2.74156E-09 2.79368E-11
2.97478E-09 2.64020E-11
3.21752E-09 2.49901E-11
3.46978E-09 2.36881E-11
3.73156E-09 2.24829E-11
4.00286E-09 2.13698E-11
4.28368E-09 2.03371E-11
4.57402E-09 1.93779E-11
4.87388E-09 1.84854E-11
5.18326E-09 1.76526E-11
5.50215E-09 1.68757E-11
5.83057E-09 1.61457E-11
6.16850E-09 1.54617E-11
6.51596E-09 1.48198E-11
6.87293E-09 1.42122E-11
7.23942E-09 1.36405E-11
7.61544E-09 1.31003E-11
1.18991E-08 8.95970E-12
1.71347E-08 6.30811E-12
2.33223E-08 4.46852E-12
3.04617E-08 3.30110E-12
3.85531E-08 2.46676E-12
4.75965E-08 1.87450E-12
5.75917E-08 1.45691E-12
6.85389E-08 1.14286E-12
8.04380E-08 9.08961E-13
9.32891E-08 7.33502E-13
1.07092E-07 5.94672E-13
1.21847E-07 4.87267E-13
1.37554E-07 4.03186E-13
1.54213E-07 3.34630E-13
1.71823E-07 2.80256E-13
1.90386E-07 2.36343E-13
2.09900E-07 2.00227E-13
2.30367E-07 1.70867E-13
2.51785E-07 1.46644E-13
2.74156E-07 1.26505E-13
2.97478E-07 1.09792E-13
3.21752E-07 9.57572E-14
3.46978E-07 8.39233E-14
3.73156E-07 7.39221E-14
4.00286E-07 6.53824E-14
4.28368E-07 5.80846E-14
4.57402E-07 5.18185E-14
4.87388E-07 4.63523E-14
5.18325E-07 4.16124E-14
5.50215E-07 3.74866E-14
5.83057E-07 3.38619E-14
6.16850E-07 3.06815E-14
6.51596E-07 2.78772E-14
6.87293E-07 2.53846E-14
7.23942E-07 2.31725E-14
7.61543E-07 2.11982E-14
1.18991E-06 9.53954E-15
1.71347E-06 4.88622E-15
2.33223E-06 2.74627E-15
3.04617E-06 1.66073E-15
3.85531E-06 1.06217E-15
4.75964E-06 7.11090E-16
5.75916E-06 4.93878E-16
6.85388E-06 3.53679E-16
8.04378E-06 2.59936E-16
9.32888E-06 1.95253E-16
1.07092E-05 1.49498E-16
1.21846E-05 1.16381E-16
1.37553E-05 9.19277E-17
1.54212E-05 7.35667E-17
1.71822E-05 5.95581E-17
1.90385E-05 4.87022E-17
2.09899E-05 4.02474E-17
2.30365E-05 3.35407E-17
2.51783E-05 2.81661E-17
2.74153E-05 2.38189E-17
2.97475E-05 2.02750E-17
3.21749E-05 1.73658E-17
3.46974E-05 1.49606E-17
3.73152E-05 1.29593E-17
4.00281E-05 1.12828E-17
4.28362E-05 9.86919E-18
4.57395E-05 8.67015E-18
4.87380E-05 7.64729E-18
5.18317E-05 6.77041E-18
5.50205E-05 6.01534E-18
5.83045E-05 5.36245E-18
6.16838E-05 4.79584E-18
6.51582E-05 4.30226E-18
6.87277E-05 3.87070E-18
7.23925E-05 3.49204E-18
7.61524E-05 3.15865E-18
9.21439E-05 2.16395E-18
1.09658E-04 1.53154E-18
1.28695E-04 1.11418E-18
1.49255E-04 8.29629E-19
1.71338E-04 6.30356E-19
1.94942E-04 4.87409E-19
2.20070E-04 3.82744E-19
2.46720E-04 3.04694E-19
2.74892E-04 2.45535E-19
3.04586E-04 2.00046E-19
3.35803E-04 1.64604E-19
3.68542E-04 1.36663E-19
4.02802E-04 1.14398E-19
4.38585E-04 9.64809E-20
4.75889E-04 8.19324E-20
5.14715E-04 7.00207E-20
5.55063E-04 6.01935E-20
5.96931E-04 5.20282E-20
6.40321E-04 4.51990E-20
6.85233E-04 3.94522E-20
7.31665E-04 3.45887E-20
7.79618E-04 3.04504E-20
8.29092E-04 2.69117E-20
8.80086E-04 2.38713E-20
9.32601E-04 2.12474E-20
9.86636E-04 1.89735E-20
1.04219E-03 1.69952E-20
1.09927E-03 1.52675E-20
1.15786E-03 1.37533E-20
1.21797E-03 1.24218E-20
1.27961E-03 1.12472E-20
1.34276E-03 1.02078E-20
1.40743E-03 9.28548E-21
1.47362E-03 8.46471E-21
1.54133E-03 7.73241E-21
1.61056E-03 7.07739E-21
1.68131E-03 6.49008E-21
1.75357E-03 5.96228E-21
1.82735E-03 5.48689E-21
1.90265E-03 5.05780E-21
1.97947E-03 4.66971E-21
2.05780E-03 4.31803E-21
2.13765E-03 3.99873E-21
2.21902E-03 3.70831E-21
2.30190E-03 3.44369E-21
2.38630E-03 3.20218E-21
2.47222E-03 2.98140E-21
2.55965E-03 2.77926E-21
2.64859E-03 2.59390E-21
2.73905E-03 2.42368E-21
2.83103E-03 2.26714E-21
2.92452E-03 2.12299E-21
3.01952E-03 1.99008E-21
3.11604E-03 1.86736E-21
3.21407E-03 1.75392E-21
3.31362E-03 1.64893E-21
3.41468E-03 1.55165E-21
3.51725E-03 1.46140E-21
3.62133E-03 1.37760E-21
3.72692E-03 1.29969E-21
3.83403E-03 1.22718E-21
3.94265E-03 1.15964E-21
4.05278E-03 1.09667E-21
4.16442E-03 1.03789E-21
4.27757E-03 9.82974E-22
4.39223E-03 9.31627E-22
4.50840E-03 8.83574E-22
4.62608E-03 8.38565E-22
4.74527E-03 7.96372E-22
4.86597E-03 7.56785E-22
4.98817E-03 7.19615E-22
5.11188E-03 6.84688E-22
5.23711E-03 6.51844E-22
5.36383E-03 6.20935E-22
5.49207E-03 5.91826E-22
5.62181E-03 5.64394E-22
5.75306E-03 5.38524E-22
5.88581E-03 5.14112E-22
6.02007E-03 4.91060E-22
6.15583E-03 4.69277E-22
6.29310E-03 4.48682E-22
6.43187E-03 4.29199E-22
6.57214E-03 4.10755E-22
6.71392E-03 3.93285E-22
6.85720E-03 3.76728E-22
7.00198E-03 3.61029E-22
7.14827E-03 3.46133E-22
7.29605E-03 3.31993E-22
7.44534E-03 3.18563E-22
7.59612E-03 3.05801E-22
7.97965E-03 2.76567E-22
8.37255E-03 2.50722E-22
8.77480E-03 2.27809E-22
9.18641E-03 2.07436E-22
9.60736E-03 1.89276E-22
1.00376E-02 1.73047E-22
1.04773E-02 1.58508E-22
1.09262E-02 1.45453E-22
1.13844E-02 1.33706E-22
1.18520E-02 1.23111E-22
1.23288E-02 1.13537E-22
1.28150E-02 1.04869E-22
1.33104E-02 9.70054E-23
1.38150E-02 8.98592E-23
1.43290E-02 8.33534E-23
1.48521E-02 7.74208E-23
1.53845E-02 7.20020E-23
1.59262E-02 6.70447E-23
1.64770E-02 6.25029E-23
1.70371E-02 5.83356E-23
1.76063E-02 5.45066E-23
1.81848E-02 5.09835E-23
1.87724E-02 4.77377E-23
1.93692E-02 4.47436E-23
1.99751E-02 4.19781E-23
2.05901E-02 3.94201E-23
2.12143E-02 3.70519E-23
2.18476E-02 3.48569E-23
2.24900E-02 3.28202E-23
2.31415E-02 3.09283E-23
2.38021E-02 2.91692E-23
2.44717E-02 2.75319E-23
2.51504E-02 2.60065E-23
2.58382E-02 2.45840E-23
2.65349E-02 2.32561E-23
2.72407E-02 2.20156E-23
2.79555E-02 2.08556E-23
2.86793E-02 1.97699E-23
2.94120E-02 1.87531E-23
3.01537E-02 1.77998E-23
3.09043E-02 1.69056E-23
3.16639E-02 1.60660E-23
3.24324E-02 1.52771E-23
3.32098E-02 1.45353E-23
3.39961E-02 1.38374E-23
3.47912E-02 1.31802E-23
3.55952E-02 1.25609E-23
3.64081E-02 1.19770E-23
3.72297E-02 1.14262E-23
3.80602E-02 1.09061E-23
3.88995E-02 1.04148E-23
3.97476E-02 9.95039E-24
4.06044E-02 9.51115E-24
4.14700E-02 9.09547E-24
4.23443E-02 8.70186E-24
4.32273E-02 8.32895E-24
4.41190E-02 7.97544E-24
4.50194E-02 7.64015E-24
4.59284E-02 7.32198E-24
4.68461E-02 7.01989E-24
4.87074E-02 6.46021E-24
5.06030E-02 5.95420E-24
5.25328E-02 5.49586E-24
5.44967E-02 5.07995E-24
5.64946E-02 4.70189E-24
5.85262E-02 4.35764E-24
6.05914E-02 4.04369E-24
6.26901E-02 3.75691E-24
6.48222E-02 3.49457E-24
6.69873E-02 3.25422E-24
6.91854E-02 3.03373E-24
7.14163E-02 2.83117E-24
7.36799E-02 2.64483E-24
7.59760E-02 2.47321E-24
7.83043E-02 2.31495E-24
8.06647E-02 2.16883E-24
8.30571E-02 2.03376E-24
8.54812E-02 1.90877E-24
8.79369E-02 1.79298E-24
9.04240E-02 1.68560E-24
9.29422E-02 1.58592E-24
9.54915E-02 1.49329E-24
9.80716E-02 1.40713E-24
1.00682E-01 1.32691E-24
1.03323E-01 1.25216E-24
1.05995E-01 1.18244E-24
1.08696E-01 1.11736E-24
1.11427E-01 1.05655E-24
1.14188E-01 9.99684E-25
1.16978E-01 9.46472E-25
1.19797E-01 8.96636E-25
1.22645E-01 8.49927E-25
1.25522E-01 8.06115E-25
1.28428E-01 7.64992E-25
1.31361E-01 7.26364E-25
1.34323E-01 6.90057E-25
1.37313E-01 6.55906E-25
1.40330E-01 6.23763E-25
1.43375E-01 5.93491E-25
1.46447E-01 5.64963E-25
1.49545E-01 5.38061E-25
1.52671E-01 5.12678E-25
1.55823E-01 4.88714E-25
1.59001E-01 4.66077E-25
1.62205E-01 4.44681E-25
1.65435E-01 4.24448E-25
1.68690E-01 4.05302E-25
1.71970E-01 3.87178E-25
1.75276E-01 3.70011E-25
1.78606E-01 3.53742E-25
1.81961E-01 3.38317E-25
1.85340E-01 3.23686E-25
1.88743E-01 3.09800E-25
1.92169E-01 2.96616E-25
1.95619E-01 2.84092E-25
1.99092E-01 2.72190E-25
2.02589E-01 2.60874E-25
2.06107E-01 2.50112E-25
2.09649E-01 2.39870E-25
2.13212E-01 2.30121E-25
2.16797E-01 2.20836E-25
2.20404E-01 2.11990E-25
2.24032E-01 2.03560E-25
2.27680E-01 1.95521E-25
2.31350E-01 1.87854E-25
2.35040E-01 1.80539E-25
2.38751E-01 1.73556E-25
2.42481E-01 1.66889E-25
2.46231E-01 1.60520E-25
2.50000E-01 1.54434E-25
2.53788E-01 1.48618E-25
2.57595E-01 1.43056E-25
2.61421E-01 1.37737E-25
2.65264E-01 1.32647E-25
2.69126E-01 1.27776E-25
2.73005E-01 1.23112E-25
2.76901E-01 1.18646E-25
2.80814E-01 1.14368E-25
2.84744E-01 1.10268E-25
2.88691E-01 1.06339E-25
2.92653E-01 1.02571E-25
2.96632E-01 9.89578E-26
3.00625E-01 9.54913E-26
3.04634E-01 9.21649E-26
3.08658E-01 8.89721E-26
3.12697E-01 8.59067E-26
3.16749E-01 8.29628E-26
3.20816E-01 8.01350E-26
3.24896E-01 7.74178E-26
3.28990E-01 7.48064E-26
3.33097E-01 7.22961E-26
3.37216E-01 6.98823E-26
3.41348E-01 6.75607E-26
3.45492E-01 6.53274E-26
3.49647E-01 6.31784E-26
3.53814E-01 6.11102E-26
3.57992E-01 5.91192E-26
3.62181E-01 5.72021E-26
3.66381E-01 5.53558E-26
3.70590E-01 5.35773E-26
3.74810E-01 5.18638E-26
3.79039E-01 5.02125E-26
3.83277E-01 4.86208E-26
3.87524E-01 4.70863E-26
3.91780E-01 4.56066E-26
3.96044E-01 4.41795E-26
4.00316E-01 4.28028E-26
4.04596E-01 4.14745E-26
4.08882E-01 4.01928E-26
4.13176E-01 3.89556E-26
4.17476E-01 3.77613E-26
4.21783E-01 3.66081E-26
4.26095E-01 3.54944E-26
4.30413E-01 3.44187E-26
4.34737E-01 3.33795E-26
4.39065E-01 3.23755E-26
4.43398E-01 3.14051E-26
4.47736E-01 3.04672E-26
4.52077E-01 2.95606E-26
4.56422E-01 2.86839E-26
4.60770E-01 2.78362E-26
4.65122E-01 2.70163E-26
4.69476E-01 2.62232E-26
4.73832E-01 2.54559E-26
4.78190E-01 2.47134E-26
4.82550E-01 2.39948E-26
4.86912E-01 2.32993E-26
4.91274E-01 2.26260E-26
4.95637E-01 2.19741E-26
5.00000E-01 2.13428E-26
5.04363E-01 2.07315E-26
5.08726E-01 2.01393E-26
5.13088E-01 1.95656E-26
5.17450E-01 1.90098E-26
5.21810E-01 1.84712E-26
5.26168E-01 1.79492E-26
5.30524E-01 1.74432E-26
5.34878E-01 1.69528E-26
5.39230E-01 1.64773E-26
5.43578E-01 1.60162E-26
5.47923E-01 1.55690E-26
5.52264E-01 1.51354E-26
5.56602E-01 1.47147E-26
5.60935E-01 1.43066E-26
5.65263E-01 1.39106E-26
5.69587E-01 1.35264E-26
5.73905E-01 1.31535E-26
5.78217E-01 1.27916E-26
5.82524E-01 1.24403E-26
5.86824E-01 1.20993E-26
5.91118E-01 1.17682E-26
5.95404E-01 1.14467E-26
5.99684E-01 1.11344E-26
6.03956E-01 1.08312E-26
6.08220E-01 1.05366E-26
6.12476E-01 1.02505E-26
6.16723E-01 9.97253E-27
6.20961E-01 9.70243E-27
6.25190E-01 9.43997E-27
6.29410E-01 9.18490E-27
6.33619E-01 8.93700E-27
6.37819E-01 8.69604E-27
6.42008E-01 8.46180E-27
6.46186E-01 8.23408E-27
6.50353E-01 8.01266E-27
6.54508E-01 7.79737E-27
6.58652E-01 7.58800E-27
6.62784E-01 7.38438E-27
6.66903E-01 7.18633E-27
6.71010E-01 6.99368E-27
6.75104E-01 6.80627E-27
6.79184E-01 6.62395E-27
6.83251E-01 6.44655E-27
6.87303E-01 6.27394E-27
6.91342E-01 6.10596E-27
6.95366E-01 5.94248E-27
6.99375E-01 5.78338E-27
7.03368E-01 5.62851E-27
7.07347E-01 5.47775E-27
7.11309E-01 5.33099E-27
7.15256E-01 5.18811E-27
7.19186E-01 5.04899E-27
7.23099E-01 4.91353E-27
7.26995E-01 4.78161E-27
7.30874E-01 4.65315E-27
7.34736E-01 4.52804E-27
7.38579E-01 4.40618E-27
7.42405E-01 4.28748E-27
7.46212E-01 4.17186E-27
7.50000E-01 4.05922E-27
7.53769E-01 3.94948E-27
7.57519E-01 3.84256E-27
7.61249E-01 3.73839E-27
7.64960E-01 3.63687E-27
7.68650E-01 3.53796E-27
7.72320E-01 3.44156E-27
7.75968E-01 3.34761E-27
7.79596E-01 3.25604E-27
7.83203E-01 3.16680E-27
7.86788E-01 3.07981E-27
7.90351E-01 2.99501E-27
7.93893E-01 2.91235E-27
7.97411E-01 2.83176E-27
8.00908E-01 2.75320E-27
8.04381E-01 2.67660E-27
8.07831E-01 2.60192E-27
8.11257E-01 2.52911E-27
8.14660E-01 2.45811E-27
8.18039E-01 2.38888E-27
8.21394E-01 2.32137E-27
8.24724E-01 2.25553E-27
8.28030E-01 2.19133E-27
8.31310E-01 2.12871E-27
8.34565E-01 2.06765E-27
8.37795E-01 2.00810E-27
8.40999E-01 1.95001E-27
8.44177E-01 1.89336E-27
8.47329E-01 1.83811E-27
8.50455E-01 1.78422E-27
8.53553E-01 1.73165E-27
8.56625E-01 1.68038E-27
8.59670E-01 1.63037E-27
8.62687E-01 1.58159E-27
8.65677E-01 1.53401E-27
8.68639E-01 1.48760E-27
8.71572E-01 1.44233E-27
8.74478E-01 1.39818E-27
8.77355E-01 1.35511E-27
8.80203E-01 1.31310E-27
8.83022E-01 1.27212E-27
8.85812E-01 1.23216E-27
8.88573E-01 1.19318E-27
8.91304E-01 1.15516E-27
8.94005E-01 1.11808E-27
8.96677E-01 1.08192E-27
8.99318E-01 1.04666E-27
9.01928E-01 1.01227E-27
9.04508E-01 9.78730E-28
9.07058E-01 9.46030E-28
9.09576E-01 9.14146E-28
9.12063E-01 8.83059E-28
9.14519E-01 8.52752E-28
9.16943E-01 8.23208E-28
9.19335E-01 7.94408E-28
9.21696E-01 7.66337E-28
9.24024E-01 7.38979E-28
9.26320E-01 7.12317E-28
9.28584E-01 6.86338E-28
9.30815E-01 6.61026E-28
9.33013E-01 6.36367E-28
9.35178E-01 6.12348E-28
9.37310E-01 5.88954E-28
9.39409E-01 5.66174E-28
9.41474E-01 5.43993E-28
9.43505E-01 5.22401E-28
9.45503E-01 5.01384E-28
9.47467E-01 4.80932E-28
9.49397E-01 4.61034E-28
9.51293E-01 4.41677E-28
9.53154E-01 4.22853E-28
9.54981E-01 4.04551E-28
9.56773E-01 3.86760E-28
9.58530E-01 3.69471E-28
9.60252E-01 3.52675E-28
9.61940E-01 3.36364E-28
9.63592E-01 3.20527E-28
9.65209E-01 3.05157E-28
9.66790E-01 2.90245E-28
9.68336E-01 2.75784E-28
9.69846E-01 2.61766E-28
9.71321E-01 2.48184E-28
9.72759E-01 2.35029E-28
9.74162E-01 2.22297E-28
9.75528E-01 2.09978E-28
9.76858E-01 1.98069E-28
9.78152E-01 1.86561E-28
9.79410E-01 1.75449E-28
9.80631E-01 1.64728E-28
9.81815E-01 1.54391E-28
9.82963E-01 1.44433E-28
9.84074E-01 1.34850E-28
9.85148E-01 1.25636E-28
9.86185E-01 1.16787E-28
9.87185E-01 1.08297E-28
9.88148E-01 1.00163E-28
9.89074E-01 9.23802E-29
9.89962E-01 8.49449E-29
9.90814E-01 7.78532E-29
9.91627E-01 7.11014E-29
9.92404E-01 6.46862E-29
9.93143E-01 5.86042E-29
9.93844E-01 5.28524E-29
9.94508E-01 4.74278E-29
9.95134E-01 4.23277E-29
9.95722E-01 3.75494E-29
9.96273E-01 3.30907E-29
9.96786E-01 2.89491E-29
9.97261E-01 2.51227E-29
9.97698E-01 2.16094E-29
9.98097E-01 1.84075E-29
9.98459E-01 1.55154E-29
9.98782E-01 1.29317E-29
9.99067E-01 1.06550E-29
9.99315E-01 8.68411E-30
9.99524E-01 7.01814E-30
9.99695E-01 5.65622E-30
9.99829E-01 4.59766E-30
9.99924E-01 3.84192E-30
9.99981E-01 3.38863E-30
1.00000E+00 3.23756E-30
