 #
 # Subroutine ELSEPA. Elastic scattering of electrons and positrons
 #                    by neutral atoms and positive ions
 #
 # Projectile: positron
 # Kinetic energy = 4.00000E+06 eV = 1.46997E+05 a.u.
 #
 # WARNING: High-energy factorization with free-atom DF screening.
 #          Absorption, polarization and exchange corrections are
 #          switched off.
 #          Phase shifts are calculated for the bare nucleus.
 #          Scattering amplitudes are not evaluated.
 #
 # Element: Er,  Z =  68,  atomic weight = 1.67260E+02 g/mol
 #
 # Nuclear model: Fermi distribution
 #                Average radius = 5.89542E-13 cm
 #                Skin thickness = 5.46000E-14 cm
 #
 # Number of electrons = 68
 #
 # Total elastic cross section = 7.13583E-18 cm**2 = 2.54825E-01 a0**2
 # 1st transport cross section = 2.73690E-22 cm**2 = 9.77365E-06 a0**2
 # 2nd transport cross section = 7.85728E-22 cm**2 = 2.80589E-05 a0**2
 #
 #
 # Differential cross section:                       MU=(1-COS(THETA))/2
 #
 #  THETA        MU          DCS          DCS        Sherman      error
 #  (deg)                 (cm**2/sr)   (a0**2/sr)    function
 #----------------------------------------------------------------------
0.00000E+00 1.47037E-12
7.61557E-13 1.47035E-12
1.18994E-12 1.47035E-12
1.71346E-12 1.47034E-12
2.33225E-12 1.47032E-12
3.04617E-12 1.47031E-12
3.85530E-12 1.47030E-12
4.75964E-12 1.47028E-12
5.75917E-12 1.47026E-12
6.85391E-12 1.47024E-12
8.04379E-12 1.47022E-12
9.32893E-12 1.47020E-12
1.07092E-11 1.47017E-12
1.21847E-11 1.47015E-12
1.37554E-11 1.47012E-12
1.54213E-11 1.47009E-12
1.71823E-11 1.47006E-12
1.90386E-11 1.47003E-12
2.09900E-11 1.46999E-12
2.30367E-11 1.46996E-12
2.51785E-11 1.46992E-12
2.74156E-11 1.46988E-12
2.97478E-11 1.46984E-12
3.21752E-11 1.46980E-12
3.46979E-11 1.46975E-12
3.73157E-11 1.46971E-12
4.00286E-11 1.46966E-12
4.28368E-11 1.46961E-12
4.57402E-11 1.46956E-12
4.87388E-11 1.46950E-12
5.18325E-11 1.46945E-12
5.50215E-11 1.46939E-12
5.83057E-11 1.46934E-12
6.16850E-11 1.46928E-12
6.51595E-11 1.46922E-12
6.87293E-11 1.46915E-12
7.23943E-11 1.46909E-12
7.61544E-11 1.46902E-12
1.18991E-10 1.46828E-12
1.71347E-10 1.46736E-12
2.33223E-10 1.46628E-12
3.04617E-10 1.46504E-12
3.85531E-10 1.46364E-12
4.75965E-10 1.46207E-12
5.75917E-10 1.46035E-12
6.85389E-10 1.45846E-12
8.04380E-10 1.45641E-12
9.32891E-10 1.45421E-12
1.07092E-09 1.45185E-12
1.21847E-09 1.44933E-12
1.37554E-09 1.44666E-12
1.54213E-09 1.44384E-12
1.71823E-09 1.44087E-12
1.90386E-09 1.43774E-12
2.09900E-09 1.43447E-12
2.30367E-09 1.43106E-12
2.51785E-09 1.42750E-12
2.74156E-09 1.42379E-12
2.97478E-09 1.41995E-12
3.21752E-09 1.41597E-12
3.46978E-09 1.41185E-12
3.73156E-09 1.40760E-12
4.00286E-09 1.40322E-12
4.28368E-09 1.39871E-12
4.57402E-09 1.39407E-12
4.87388E-09 1.38931E-12
5.18326E-09 1.38442E-12
5.50215E-09 1.37942E-12
5.83057E-09 1.37430E-12
6.16850E-09 1.36906E-12
6.51596E-09 1.36371E-12
6.87293E-09 1.35826E-12
7.23942E-09 1.35269E-12
7.61544E-09 1.34702E-12
1.18991E-08 1.28527E-12
1.71347E-08 1.21614E-12
2.33223E-08 1.14254E-12
3.04617E-08 1.06690E-12
3.85531E-08 9.91386E-13
4.75965E-08 9.17757E-13
5.75917E-08 8.47378E-13
6.85389E-08 7.81493E-13
8.04380E-08 7.20246E-13
9.32891E-08 6.63865E-13
1.07092E-07 6.12363E-13
1.21847E-07 5.65591E-13
1.37554E-07 5.23426E-13
1.54213E-07 4.85416E-13
1.71823E-07 4.51117E-13
1.90386E-07 4.20175E-13
2.09900E-07 3.92244E-13
2.30367E-07 3.67007E-13
2.51785E-07 3.44163E-13
2.74156E-07 3.23384E-13
2.97478E-07 3.04436E-13
3.21752E-07 2.87109E-13
3.46978E-07 2.71219E-13
3.73156E-07 2.56573E-13
4.00286E-07 2.43033E-13
4.28368E-07 2.30490E-13
4.57402E-07 2.18841E-13
4.87388E-07 2.07993E-13
5.18325E-07 1.97855E-13
5.50215E-07 1.88329E-13
5.83057E-07 1.79397E-13
6.16850E-07 1.71007E-13
6.51596E-07 1.63113E-13
6.87293E-07 1.55675E-13
7.23942E-07 1.48621E-13
7.61543E-07 1.41949E-13
1.18991E-06 9.11520E-14
1.71347E-06 6.06846E-14
2.33223E-06 4.15698E-14
3.04617E-06 2.94409E-14
3.85531E-06 2.14345E-14
4.75964E-06 1.59673E-14
5.75916E-06 1.21156E-14
6.85388E-06 9.30212E-15
8.04378E-06 7.24782E-15
9.32888E-06 5.71943E-15
1.07092E-05 4.56478E-15
1.21846E-05 3.68135E-15
1.37553E-05 2.99552E-15
1.54212E-05 2.46060E-15
1.71822E-05 2.04036E-15
1.90385E-05 1.70607E-15
2.09899E-05 1.43987E-15
2.30365E-05 1.22428E-15
2.51783E-05 1.04786E-15
2.74153E-05 9.02952E-16
2.97475E-05 7.82531E-16
3.21749E-05 6.81757E-16
3.46974E-05 5.97184E-16
3.73152E-05 5.25655E-16
4.00281E-05 4.64802E-16
4.28362E-05 4.12706E-16
4.57395E-05 3.67813E-16
4.87380E-05 3.28898E-16
5.18317E-05 2.94966E-16
5.50205E-05 2.65217E-16
5.83045E-05 2.39108E-16
6.16838E-05 2.16123E-16
6.51582E-05 1.95831E-16
6.87277E-05 1.77863E-16
7.23925E-05 1.61885E-16
7.61524E-05 1.47655E-16
9.21439E-05 1.04176E-16
1.09658E-04 7.54733E-17
1.28695E-04 5.59322E-17
1.49255E-04 4.23467E-17
1.71338E-04 3.26474E-17
1.94942E-04 2.55714E-17
2.20070E-04 2.03090E-17
2.46720E-04 1.63326E-17
2.74892E-04 1.32852E-17
3.04586E-04 1.09178E-17
3.35803E-04 9.05541E-18
3.68542E-04 7.57370E-18
4.02802E-04 6.38202E-18
4.38585E-04 5.41590E-18
4.75889E-04 4.62592E-18
5.14715E-04 3.97481E-18
5.55063E-04 3.43423E-18
5.96931E-04 2.98209E-18
6.40321E-04 2.60178E-18
6.85233E-04 2.28011E-18
7.31665E-04 2.00655E-18
7.79618E-04 1.77271E-18
8.29092E-04 1.57183E-18
8.80086E-04 1.39844E-18
9.32601E-04 1.24825E-18
9.86636E-04 1.11763E-18
1.04219E-03 1.00360E-18
1.09927E-03 9.03696E-19
1.15786E-03 8.15839E-19
1.21797E-03 7.38360E-19
1.27961E-03 6.69833E-19
1.34276E-03 6.09047E-19
1.40743E-03 5.54977E-19
1.47362E-03 5.06748E-19
1.54133E-03 4.63618E-19
1.61056E-03 4.24965E-19
1.68131E-03 3.90244E-19
1.75357E-03 3.58985E-19
1.82735E-03 3.30784E-19
1.90265E-03 3.05283E-19
1.97947E-03 2.82184E-19
2.05780E-03 2.61222E-19
2.13765E-03 2.42164E-19
2.21902E-03 2.24808E-19
2.30190E-03 2.08972E-19
2.38630E-03 1.94501E-19
2.47222E-03 1.81257E-19
2.55965E-03 1.69118E-19
2.64859E-03 1.57974E-19
2.73905E-03 1.47731E-19
2.83103E-03 1.38301E-19
2.92452E-03 1.29609E-19
3.01952E-03 1.21586E-19
3.11604E-03 1.14173E-19
3.21407E-03 1.07315E-19
3.31362E-03 1.00962E-19
3.41468E-03 9.50699E-20
3.51725E-03 8.96001E-20
3.62133E-03 8.45168E-20
3.72692E-03 7.97876E-20
3.83403E-03 7.53834E-20
3.94265E-03 7.12774E-20
4.05278E-03 6.74462E-20
4.16442E-03 6.38681E-20
4.27757E-03 6.05231E-20
4.39223E-03 5.73936E-20
4.50840E-03 5.44627E-20
4.62608E-03 5.17156E-20
4.74527E-03 4.91390E-20
4.86597E-03 4.67201E-20
4.98817E-03 4.44477E-20
5.11188E-03 4.23111E-20
5.23711E-03 4.03007E-20
5.36383E-03 3.84078E-20
5.49207E-03 3.66241E-20
5.62181E-03 3.49424E-20
5.75306E-03 3.33557E-20
5.88581E-03 3.18575E-20
6.02007E-03 3.04420E-20
6.15583E-03 2.91040E-20
6.29310E-03 2.78382E-20
6.43187E-03 2.66402E-20
6.57214E-03 2.55056E-20
6.71392E-03 2.44304E-20
6.85720E-03 2.34110E-20
7.00198E-03 2.24439E-20
7.14827E-03 2.15259E-20
7.29605E-03 2.06542E-20
7.44534E-03 1.98258E-20
7.59612E-03 1.90384E-20
7.97965E-03 1.72332E-20
8.37255E-03 1.56359E-20
8.77480E-03 1.42183E-20
9.18641E-03 1.29569E-20
9.60736E-03 1.18314E-20
1.00376E-02 1.08248E-20
1.04773E-02 9.92230E-21
1.09262E-02 9.11131E-21
1.13844E-02 8.38096E-21
1.18520E-02 7.72180E-21
1.23288E-02 7.12575E-21
1.28150E-02 6.58572E-21
1.33104E-02 6.09553E-21
1.38150E-02 5.64977E-21
1.43290E-02 5.24370E-21
1.48521E-02 4.87317E-21
1.53845E-02 4.53456E-21
1.59262E-02 4.22461E-21
1.64770E-02 3.94049E-21
1.70371E-02 3.67966E-21
1.76063E-02 3.43987E-21
1.81848E-02 3.21913E-21
1.87724E-02 3.01567E-21
1.93692E-02 2.82789E-21
1.99751E-02 2.65437E-21
2.05901E-02 2.49384E-21
2.12143E-02 2.34515E-21
2.18476E-02 2.20727E-21
2.24900E-02 2.07929E-21
2.31415E-02 1.96036E-21
2.38021E-02 1.84973E-21
2.44717E-02 1.74672E-21
2.51504E-02 1.65071E-21
2.58382E-02 1.56114E-21
2.65349E-02 1.47750E-21
2.72407E-02 1.39934E-21
2.79555E-02 1.32622E-21
2.86793E-02 1.25776E-21
2.94120E-02 1.19362E-21
3.01537E-02 1.13347E-21
3.09043E-02 1.07702E-21
3.16639E-02 1.02401E-21
3.24324E-02 9.74179E-22
3.32098E-02 9.27310E-22
3.39961E-02 8.83194E-22
3.47912E-02 8.41642E-22
3.55952E-02 8.02476E-22
3.64081E-02 7.65535E-22
3.72297E-02 7.30670E-22
3.80602E-02 6.97745E-22
3.88995E-02 6.66631E-22
3.97476E-02 6.37212E-22
4.06044E-02 6.09377E-22
4.14700E-02 5.83027E-22
4.23443E-02 5.58069E-22
4.32273E-02 5.34415E-22
4.41190E-02 5.11985E-22
4.50194E-02 4.90705E-22
4.59284E-02 4.70505E-22
4.68461E-02 4.51320E-22
4.87074E-02 4.15759E-22
5.06030E-02 3.83588E-22
5.25328E-02 3.54430E-22
5.44967E-02 3.27954E-22
5.64946E-02 3.03872E-22
5.85262E-02 2.81930E-22
6.05914E-02 2.61906E-22
6.26901E-02 2.43604E-22
6.48222E-02 2.26850E-22
6.69873E-02 2.11491E-22
6.91854E-02 1.97391E-22
7.14163E-02 1.84429E-22
7.36799E-02 1.72497E-22
7.59760E-02 1.61500E-22
7.83043E-02 1.51352E-22
8.06647E-02 1.41975E-22
8.30571E-02 1.33302E-22
8.54812E-02 1.25270E-22
8.79369E-02 1.17824E-22
9.04240E-02 1.10913E-22
9.29422E-02 1.04493E-22
9.54915E-02 9.85226E-23
9.80716E-02 9.29648E-23
1.00682E-01 8.77863E-23
1.03323E-01 8.29568E-23
1.05995E-01 7.84486E-23
1.08696E-01 7.42367E-23
1.11427E-01 7.02982E-23
1.14188E-01 6.66123E-23
1.16978E-01 6.31600E-23
1.19797E-01 5.99239E-23
1.22645E-01 5.68881E-23
1.25522E-01 5.40382E-23
1.28428E-01 5.13607E-23
1.31361E-01 4.88435E-23
1.34323E-01 4.64752E-23
1.37313E-01 4.42455E-23
1.40330E-01 4.21449E-23
1.43375E-01 4.01646E-23
1.46447E-01 3.82965E-23
1.49545E-01 3.65332E-23
1.52671E-01 3.48679E-23
1.55823E-01 3.32940E-23
1.59001E-01 3.18057E-23
1.62205E-01 3.03976E-23
1.65435E-01 2.90646E-23
1.68690E-01 2.78019E-23
1.71970E-01 2.66052E-23
1.75276E-01 2.54706E-23
1.78606E-01 2.43941E-23
1.81961E-01 2.33723E-23
1.85340E-01 2.24020E-23
1.88743E-01 2.14801E-23
1.92169E-01 2.06037E-23
1.95619E-01 1.97703E-23
1.99092E-01 1.89774E-23
2.02589E-01 1.82226E-23
2.06107E-01 1.75038E-23
2.09649E-01 1.68189E-23
2.13212E-01 1.61662E-23
2.16797E-01 1.55439E-23
2.20404E-01 1.49502E-23
2.24032E-01 1.43837E-23
2.27680E-01 1.38428E-23
2.31350E-01 1.33263E-23
2.35040E-01 1.28327E-23
2.38751E-01 1.23611E-23
2.42481E-01 1.19101E-23
2.46231E-01 1.14787E-23
2.50000E-01 1.10660E-23
2.53788E-01 1.06710E-23
2.57595E-01 1.02927E-23
2.61421E-01 9.93047E-24
2.65264E-01 9.58337E-24
2.69126E-01 9.25070E-24
2.73005E-01 8.93176E-24
2.76901E-01 8.62587E-24
2.80814E-01 8.33243E-24
2.84744E-01 8.05083E-24
2.88691E-01 7.78051E-24
2.92653E-01 7.52095E-24
2.96632E-01 7.27164E-24
3.00625E-01 7.03211E-24
3.04634E-01 6.80190E-24
3.08658E-01 6.58060E-24
3.12697E-01 6.36780E-24
3.16749E-01 6.16313E-24
3.20816E-01 5.96621E-24
3.24896E-01 5.77670E-24
3.28990E-01 5.59428E-24
3.33097E-01 5.41863E-24
3.37216E-01 5.24947E-24
3.41348E-01 5.08650E-24
3.45492E-01 4.92947E-24
3.49647E-01 4.77813E-24
3.53814E-01 4.63223E-24
3.57992E-01 4.49154E-24
3.62181E-01 4.35585E-24
3.66381E-01 4.22495E-24
3.70590E-01 4.09864E-24
3.74810E-01 3.97673E-24
3.79039E-01 3.85905E-24
3.83277E-01 3.74542E-24
3.87524E-01 3.63568E-24
3.91780E-01 3.52967E-24
3.96044E-01 3.42725E-24
4.00316E-01 3.32827E-24
4.04596E-01 3.23261E-24
4.08882E-01 3.14012E-24
4.13176E-01 3.05070E-24
4.17476E-01 2.96421E-24
4.21783E-01 2.88054E-24
4.26095E-01 2.79960E-24
4.30413E-01 2.72127E-24
4.34737E-01 2.64546E-24
4.39065E-01 2.57207E-24
4.43398E-01 2.50101E-24
4.47736E-01 2.43220E-24
4.52077E-01 2.36556E-24
4.56422E-01 2.30099E-24
4.60770E-01 2.23844E-24
4.65122E-01 2.17782E-24
4.69476E-01 2.11907E-24
4.73832E-01 2.06212E-24
4.78190E-01 2.00691E-24
4.82550E-01 1.95336E-24
4.86912E-01 1.90144E-24
4.91274E-01 1.85107E-24
4.95637E-01 1.80220E-24
5.00000E-01 1.75479E-24
5.04363E-01 1.70877E-24
5.08726E-01 1.66412E-24
5.13088E-01 1.62077E-24
5.17450E-01 1.57868E-24
5.21810E-01 1.53781E-24
5.26168E-01 1.49812E-24
5.30524E-01 1.45957E-24
5.34878E-01 1.42213E-24
5.39230E-01 1.38575E-24
5.43578E-01 1.35040E-24
5.47923E-01 1.31604E-24
5.52264E-01 1.28265E-24
5.56602E-01 1.25020E-24
5.60935E-01 1.21864E-24
5.65263E-01 1.18796E-24
5.69587E-01 1.15813E-24
5.73905E-01 1.12911E-24
5.78217E-01 1.10089E-24
5.82524E-01 1.07343E-24
5.86824E-01 1.04672E-24
5.91118E-01 1.02073E-24
5.95404E-01 9.95441E-25
5.99684E-01 9.70826E-25
6.03956E-01 9.46866E-25
6.08220E-01 9.23543E-25
6.12476E-01 9.00835E-25
6.16723E-01 8.78725E-25
6.20961E-01 8.57195E-25
6.25190E-01 8.36227E-25
6.29410E-01 8.15805E-25
6.33619E-01 7.95911E-25
6.37819E-01 7.76531E-25
6.42008E-01 7.57650E-25
6.46186E-01 7.39251E-25
6.50353E-01 7.21323E-25
6.54508E-01 7.03850E-25
6.58652E-01 6.86820E-25
6.62784E-01 6.70219E-25
6.66903E-01 6.54036E-25
6.71010E-01 6.38258E-25
6.75104E-01 6.22875E-25
6.79184E-01 6.07874E-25
6.83251E-01 5.93245E-25
6.87303E-01 5.78978E-25
6.91342E-01 5.65062E-25
6.95366E-01 5.51488E-25
6.99375E-01 5.38246E-25
7.03368E-01 5.25327E-25
7.07347E-01 5.12722E-25
7.11309E-01 5.00422E-25
7.15256E-01 4.88420E-25
7.19186E-01 4.76706E-25
7.23099E-01 4.65275E-25
7.26995E-01 4.54116E-25
7.30874E-01 4.43225E-25
7.34736E-01 4.32592E-25
7.38579E-01 4.22212E-25
7.42405E-01 4.12078E-25
7.46212E-01 4.02183E-25
7.50000E-01 3.92521E-25
7.53769E-01 3.83086E-25
7.57519E-01 3.73872E-25
7.61249E-01 3.64873E-25
7.64960E-01 3.56084E-25
7.68650E-01 3.47499E-25
7.72320E-01 3.39114E-25
7.75968E-01 3.30923E-25
7.79596E-01 3.22921E-25
7.83203E-01 3.15103E-25
7.86788E-01 3.07466E-25
7.90351E-01 3.00003E-25
7.93893E-01 2.92712E-25
7.97411E-01 2.85588E-25
8.00908E-01 2.78626E-25
8.04381E-01 2.71822E-25
8.07831E-01 2.65174E-25
8.11257E-01 2.58677E-25
8.14660E-01 2.52327E-25
8.18039E-01 2.46121E-25
8.21394E-01 2.40055E-25
8.24724E-01 2.34126E-25
8.28030E-01 2.28332E-25
8.31310E-01 2.22668E-25
8.34565E-01 2.17131E-25
8.37795E-01 2.11719E-25
8.40999E-01 2.06429E-25
8.44177E-01 2.01258E-25
8.47329E-01 1.96203E-25
8.50455E-01 1.91262E-25
8.53553E-01 1.86431E-25
8.56625E-01 1.81709E-25
8.59670E-01 1.77093E-25
8.62687E-01 1.72581E-25
8.65677E-01 1.68170E-25
8.68639E-01 1.63858E-25
8.71572E-01 1.59643E-25
8.74478E-01 1.55523E-25
8.77355E-01 1.51495E-25
8.80203E-01 1.47558E-25
8.83022E-01 1.43710E-25
8.85812E-01 1.39949E-25
8.88573E-01 1.36273E-25
8.91304E-01 1.32680E-25
8.94005E-01 1.29168E-25
8.96677E-01 1.25737E-25
8.99318E-01 1.22383E-25
9.01928E-01 1.19106E-25
9.04508E-01 1.15905E-25
9.07058E-01 1.12776E-25
9.09576E-01 1.09720E-25
9.12063E-01 1.06734E-25
9.14519E-01 1.03817E-25
9.16943E-01 1.00968E-25
9.19335E-01 9.81859E-26
9.21696E-01 9.54688E-26
9.24024E-01 9.28156E-26
9.26320E-01 9.02252E-26
9.28584E-01 8.76964E-26
9.30815E-01 8.52280E-26
9.33013E-01 8.28190E-26
9.35178E-01 8.04682E-26
9.37310E-01 7.81745E-26
9.39409E-01 7.59371E-26
9.41474E-01 7.37548E-26
9.43505E-01 7.16267E-26
9.45503E-01 6.95519E-26
9.47467E-01 6.75295E-26
9.49397E-01 6.55585E-26
9.51293E-01 6.36382E-26
9.53154E-01 6.17676E-26
9.54981E-01 5.99460E-26
9.56773E-01 5.81726E-26
9.58530E-01 5.64466E-26
9.60252E-01 5.47673E-26
9.61940E-01 5.31340E-26
9.63592E-01 5.15460E-26
9.65209E-01 5.00025E-26
9.66790E-01 4.85030E-26
9.68336E-01 4.70468E-26
9.69846E-01 4.56334E-26
9.71321E-01 4.42620E-26
9.72759E-01 4.29321E-26
9.74162E-01 4.16433E-26
9.75528E-01 4.03948E-26
9.76858E-01 3.91864E-26
9.78152E-01 3.80173E-26
9.79410E-01 3.68872E-26
9.80631E-01 3.57955E-26
9.81815E-01 3.47419E-26
9.82963E-01 3.37258E-26
9.84074E-01 3.27470E-26
9.85148E-01 3.18049E-26
9.86185E-01 3.08992E-26
9.87185E-01 3.00296E-26
9.88148E-01 2.91956E-26
9.89074E-01 2.83970E-26
9.89962E-01 2.76334E-26
9.90814E-01 2.69044E-26
9.91627E-01 2.62099E-26
9.92404E-01 2.55496E-26
9.93143E-01 2.49230E-26
9.93844E-01 2.43301E-26
9.94508E-01 2.37706E-26
9.95134E-01 2.32443E-26
9.95722E-01 2.27508E-26
9.96273E-01 2.22902E-26
9.96786E-01 2.18620E-26
9.97261E-01 2.14663E-26
9.97698E-01 2.11028E-26
9.98097E-01 2.07714E-26
9.98459E-01 2.04720E-26
9.98782E-01 2.02044E-26
9.99067E-01 1.99685E-26
9.99315E-01 1.97643E-26
9.99524E-01 1.95916E-26
9.99695E-01 1.94504E-26
9.99829E-01 1.93407E-26
9.99924E-01 1.92623E-26
9.99981E-01 1.92153E-26
1.00000E+00 1.91996E-26
