 #
 # Subroutine ELSEPA. Elastic scattering of electrons and positrons
 #                    by neutral atoms and positive ions
 #
 # Projectile: positron
 # Kinetic energy = 6.00000E+06 eV = 2.20496E+05 a.u.
 #
 # WARNING: High-energy factorization with free-atom DF screening.
 #          Absorption, polarization and exchange corrections are
 #          switched off.
 #          Phase shifts are calculated for the bare nucleus.
 #          Scattering amplitudes are not evaluated.
 #
 # Element: Er,  Z =  68,  atomic weight = 1.67260E+02 g/mol
 #
 # Nuclear model: Fermi distribution
 #                Average radius = 5.89542E-13 cm
 #                Skin thickness = 5.46000E-14 cm
 #
 # Number of electrons = 68
 #
 # Total elastic cross section = 7.09151E-18 cm**2 = 2.53242E-01 a0**2
 # 1st transport cross section = 1.39967E-22 cm**2 = 4.99832E-06 a0**2
 # 2nd transport cross section = 4.03387E-22 cm**2 = 1.44052E-05 a0**2
 #
 #
 # Differential cross section:                       MU=(1-COS(THETA))/2
 #
 #  THETA        MU          DCS          DCS        Sherman      error
 #  (deg)                 (cm**2/sr)   (a0**2/sr)    function
 #----------------------------------------------------------------------
0.00000E+00 3.06320E-12
7.61557E-13 3.06314E-12
1.18994E-12 3.06311E-12
1.71346E-12 3.06307E-12
2.33225E-12 3.06302E-12
3.04617E-12 3.06296E-12
3.85530E-12 3.06290E-12
4.75964E-12 3.06283E-12
5.75917E-12 3.06275E-12
6.85391E-12 3.06267E-12
8.04379E-12 3.06258E-12
9.32893E-12 3.06248E-12
1.07092E-11 3.06237E-12
1.21847E-11 3.06226E-12
1.37554E-11 3.06214E-12
1.54213E-11 3.06201E-12
1.71823E-11 3.06187E-12
1.90386E-11 3.06173E-12
2.09900E-11 3.06158E-12
2.30367E-11 3.06143E-12
2.51785E-11 3.06126E-12
2.74156E-11 3.06109E-12
2.97478E-11 3.06091E-12
3.21752E-11 3.06073E-12
3.46979E-11 3.06053E-12
3.73157E-11 3.06033E-12
4.00286E-11 3.06013E-12
4.28368E-11 3.05991E-12
4.57402E-11 3.05969E-12
4.87388E-11 3.05946E-12
5.18325E-11 3.05923E-12
5.50215E-11 3.05898E-12
5.83057E-11 3.05873E-12
6.16850E-11 3.05847E-12
6.51595E-11 3.05821E-12
6.87293E-11 3.05794E-12
7.23943E-11 3.05766E-12
7.61544E-11 3.05737E-12
1.18991E-10 3.05411E-12
1.71347E-10 3.05014E-12
2.33223E-10 3.04546E-12
3.04617E-10 3.04008E-12
3.85531E-10 3.03400E-12
4.75965E-10 3.02723E-12
5.75917E-10 3.01978E-12
6.85389E-10 3.01165E-12
8.04380E-10 3.00287E-12
9.32891E-10 2.99342E-12
1.07092E-09 2.98334E-12
1.21847E-09 2.97262E-12
1.37554E-09 2.96129E-12
1.54213E-09 2.94934E-12
1.71823E-09 2.93681E-12
1.90386E-09 2.92369E-12
2.09900E-09 2.91001E-12
2.30367E-09 2.89578E-12
2.51785E-09 2.88101E-12
2.74156E-09 2.86573E-12
2.97478E-09 2.84994E-12
3.21752E-09 2.83366E-12
3.46978E-09 2.81691E-12
3.73156E-09 2.79971E-12
4.00286E-09 2.78208E-12
4.28368E-09 2.76402E-12
4.57402E-09 2.74556E-12
4.87388E-09 2.72672E-12
5.18326E-09 2.70751E-12
5.50215E-09 2.68798E-12
5.83057E-09 2.66823E-12
6.16850E-09 2.64813E-12
6.51596E-09 2.62770E-12
6.87293E-09 2.60696E-12
7.23942E-09 2.58592E-12
7.61544E-09 2.56460E-12
1.18991E-08 2.34228E-12
1.71347E-08 2.11371E-12
2.33223E-08 1.89161E-12
3.04617E-08 1.68423E-12
3.85531E-08 1.49640E-12
4.75965E-08 1.32998E-12
5.75917E-08 1.18476E-12
6.85389E-08 1.05960E-12
8.04380E-08 9.51732E-13
9.32891E-08 8.58860E-13
1.07092E-07 7.78739E-13
1.21847E-07 7.09340E-13
1.37554E-07 6.48899E-13
1.54213E-07 5.95866E-13
1.71823E-07 5.49014E-13
1.90386E-07 5.07347E-13
2.09900E-07 4.70056E-13
2.30367E-07 4.36467E-13
2.51785E-07 4.05963E-13
2.74156E-07 3.78210E-13
2.97478E-07 3.52858E-13
3.21752E-07 3.29617E-13
3.46978E-07 3.08249E-13
3.73156E-07 2.88494E-13
4.00286E-07 2.70222E-13
4.28368E-07 2.53320E-13
4.57402E-07 2.37663E-13
4.87388E-07 2.23140E-13
5.18325E-07 2.09645E-13
5.50215E-07 1.96825E-13
5.83057E-07 1.84044E-13
6.16850E-07 1.72530E-13
6.51596E-07 1.62132E-13
6.87293E-07 1.52719E-13
7.23942E-07 1.44176E-13
7.61543E-07 1.36404E-13
1.18991E-06 7.98552E-14
1.71347E-06 4.93380E-14
2.33223E-06 3.19697E-14
3.04617E-06 2.15554E-14
3.85531E-06 1.49867E-14
4.75964E-06 1.06866E-14
5.75916E-06 7.79131E-15
6.85388E-06 5.79157E-15
8.04378E-06 4.39253E-15
9.32888E-06 3.39390E-15
1.07092E-05 2.66725E-15
1.21846E-05 2.12861E-15
1.37553E-05 1.72259E-15
1.54212E-05 1.40944E-15
1.71822E-05 1.16603E-15
1.90385E-05 9.73734E-16
2.09899E-05 8.21030E-16
2.30365E-05 6.97295E-16
2.51783E-05 5.95752E-16
2.74153E-05 5.11856E-16
2.97475E-05 4.42084E-16
3.21749E-05 3.83744E-16
3.46974E-05 3.34712E-16
3.73152E-05 2.93246E-16
4.00281E-05 2.57998E-16
4.28362E-05 2.27874E-16
4.57395E-05 2.01986E-16
4.87380E-05 1.79633E-16
5.18317E-05 1.60250E-16
5.50205E-05 1.43359E-16
5.83045E-05 1.28571E-16
6.16838E-05 1.15706E-16
6.51582E-05 1.04472E-16
6.87277E-05 9.44899E-17
7.23925E-05 8.56829E-17
7.61524E-05 7.79124E-17
9.21439E-05 5.43524E-17
1.09658E-04 3.90486E-17
1.28695E-04 2.87800E-17
1.49255E-04 2.16782E-17
1.71338E-04 1.66407E-17
1.94942E-04 1.29856E-17
2.20070E-04 1.02801E-17
2.46720E-04 8.24329E-18
2.74892E-04 6.68646E-18
3.04586E-04 5.48009E-18
3.35803E-04 4.53346E-18
3.68542E-04 3.78224E-18
4.02802E-04 3.17976E-18
4.38585E-04 2.69230E-18
4.75889E-04 2.29453E-18
5.14715E-04 1.96737E-18
5.55063E-04 1.69632E-18
5.96931E-04 1.47019E-18
6.40321E-04 1.28039E-18
6.85233E-04 1.12016E-18
7.31665E-04 9.84160E-19
7.79618E-04 8.68129E-19
8.29092E-04 7.68653E-19
8.80086E-04 6.82975E-19
9.32601E-04 6.08878E-19
9.86636E-04 5.44538E-19
1.04219E-03 4.88456E-19
1.09927E-03 4.39394E-19
1.15786E-03 3.96321E-19
1.21797E-03 3.58387E-19
1.27961E-03 3.24874E-19
1.34276E-03 2.95179E-19
1.40743E-03 2.68794E-19
1.47362E-03 2.45284E-19
1.54133E-03 2.24283E-19
1.61056E-03 2.05476E-19
1.68131E-03 1.88596E-19
1.75357E-03 1.73410E-19
1.82735E-03 1.59718E-19
1.90265E-03 1.47347E-19
1.97947E-03 1.36148E-19
2.05780E-03 1.25991E-19
2.13765E-03 1.16760E-19
2.21902E-03 1.08358E-19
2.30190E-03 1.00695E-19
2.38630E-03 9.36961E-20
2.47222E-03 8.72929E-20
2.55965E-03 8.14258E-20
2.64859E-03 7.60418E-20
2.73905E-03 7.10943E-20
2.83103E-03 6.65409E-20
2.92452E-03 6.23452E-20
3.01952E-03 5.84738E-20
3.11604E-03 5.48973E-20
3.21407E-03 5.15891E-20
3.31362E-03 4.85254E-20
3.41468E-03 4.56848E-20
3.51725E-03 4.30483E-20
3.62133E-03 4.05985E-20
3.72692E-03 3.83198E-20
3.83403E-03 3.61980E-20
3.94265E-03 3.42205E-20
4.05278E-03 3.23755E-20
4.16442E-03 3.06527E-20
4.27757E-03 2.90424E-20
4.39223E-03 2.75361E-20
4.50840E-03 2.61256E-20
4.62608E-03 2.48039E-20
4.74527E-03 2.35643E-20
4.86597E-03 2.24008E-20
4.98817E-03 2.13079E-20
5.11188E-03 2.02805E-20
5.23711E-03 1.93140E-20
5.36383E-03 1.84040E-20
5.49207E-03 1.75467E-20
5.62181E-03 1.67384E-20
5.75306E-03 1.59760E-20
5.88581E-03 1.52562E-20
6.02007E-03 1.45763E-20
6.15583E-03 1.39336E-20
6.29310E-03 1.33258E-20
6.43187E-03 1.27505E-20
6.57214E-03 1.22058E-20
6.71392E-03 1.16897E-20
6.85720E-03 1.12004E-20
7.00198E-03 1.07363E-20
7.14827E-03 1.02958E-20
7.29605E-03 9.87756E-21
7.44534E-03 9.48023E-21
7.59612E-03 9.10251E-21
7.97965E-03 8.23689E-21
8.37255E-03 7.47115E-21
8.77480E-03 6.79183E-21
9.18641E-03 6.18750E-21
9.60736E-03 5.64848E-21
1.00376E-02 5.16651E-21
1.04773E-02 4.73454E-21
1.09262E-02 4.34647E-21
1.13844E-02 3.99709E-21
1.18520E-02 3.68187E-21
1.23288E-02 3.39689E-21
1.28150E-02 3.13876E-21
1.33104E-02 2.90450E-21
1.38150E-02 2.69154E-21
1.43290E-02 2.49759E-21
1.48521E-02 2.32066E-21
1.53845E-02 2.15900E-21
1.59262E-02 2.01106E-21
1.64770E-02 1.87547E-21
1.70371E-02 1.75103E-21
1.76063E-02 1.63665E-21
1.81848E-02 1.53138E-21
1.87724E-02 1.43436E-21
1.93692E-02 1.34485E-21
1.99751E-02 1.26214E-21
2.05901E-02 1.18564E-21
2.12143E-02 1.11479E-21
2.18476E-02 1.04911E-21
2.24900E-02 9.88148E-22
2.31415E-02 9.31510E-22
2.38021E-02 8.78833E-22
2.44717E-02 8.29791E-22
2.51504E-02 7.84089E-22
2.58382E-02 7.41458E-22
2.65349E-02 7.01657E-22
2.72407E-02 6.64464E-22
2.79555E-02 6.29677E-22
2.86793E-02 5.97113E-22
2.94120E-02 5.66605E-22
3.01537E-02 5.38000E-22
3.09043E-02 5.11158E-22
3.16639E-02 4.85951E-22
3.24324E-02 4.62261E-22
3.32098E-02 4.39982E-22
3.39961E-02 4.19013E-22
3.47912E-02 3.99265E-22
3.55952E-02 3.80652E-22
3.64081E-02 3.63100E-22
3.72297E-02 3.46535E-22
3.80602E-02 3.30893E-22
3.88995E-02 3.16114E-22
3.97476E-02 3.02140E-22
4.06044E-02 2.88920E-22
4.14700E-02 2.76407E-22
4.23443E-02 2.64555E-22
4.32273E-02 2.53324E-22
4.41190E-02 2.42675E-22
4.50194E-02 2.32572E-22
4.59284E-02 2.22983E-22
4.68461E-02 2.13876E-22
4.87074E-02 1.96998E-22
5.06030E-02 1.81732E-22
5.25328E-02 1.67897E-22
5.44967E-02 1.55336E-22
5.64946E-02 1.43913E-22
5.85262E-02 1.33506E-22
6.05914E-02 1.24010E-22
6.26901E-02 1.15331E-22
6.48222E-02 1.07387E-22
6.69873E-02 1.00106E-22
6.91854E-02 9.34221E-23
7.14163E-02 8.72782E-23
7.36799E-02 8.16234E-23
7.59760E-02 7.64120E-23
7.83043E-02 7.16033E-23
8.06647E-02 6.71607E-23
8.30571E-02 6.30516E-23
8.54812E-02 5.92466E-23
8.79369E-02 5.57195E-23
9.04240E-02 5.24464E-23
9.29422E-02 4.94059E-23
9.54915E-02 4.65785E-23
9.80716E-02 4.39468E-23
1.00682E-01 4.14948E-23
1.03323E-01 3.92083E-23
1.05995E-01 3.70741E-23
1.08696E-01 3.50803E-23
1.11427E-01 3.32160E-23
1.14188E-01 3.14715E-23
1.16978E-01 2.98376E-23
1.19797E-01 2.83062E-23
1.22645E-01 2.68696E-23
1.25522E-01 2.55211E-23
1.28428E-01 2.42543E-23
1.31361E-01 2.30634E-23
1.34323E-01 2.19430E-23
1.37313E-01 2.08882E-23
1.40330E-01 1.98946E-23
1.43375E-01 1.89580E-23
1.46447E-01 1.80745E-23
1.49545E-01 1.72407E-23
1.52671E-01 1.64531E-23
1.55823E-01 1.57089E-23
1.59001E-01 1.50052E-23
1.62205E-01 1.43395E-23
1.65435E-01 1.37093E-23
1.68690E-01 1.31124E-23
1.71970E-01 1.25467E-23
1.75276E-01 1.20104E-23
1.78606E-01 1.15016E-23
1.81961E-01 1.10187E-23
1.85340E-01 1.05602E-23
1.88743E-01 1.01245E-23
1.92169E-01 9.71044E-24
1.95619E-01 9.31667E-24
1.99092E-01 8.94203E-24
2.02589E-01 8.58544E-24
2.06107E-01 8.24588E-24
2.09649E-01 7.92240E-24
2.13212E-01 7.61411E-24
2.16797E-01 7.32017E-24
2.20404E-01 7.03979E-24
2.24032E-01 6.77224E-24
2.27680E-01 6.51684E-24
2.31350E-01 6.27294E-24
2.35040E-01 6.03993E-24
2.38751E-01 5.81724E-24
2.42481E-01 5.60433E-24
2.46231E-01 5.40071E-24
2.50000E-01 5.20590E-24
2.53788E-01 5.01944E-24
2.57595E-01 4.84093E-24
2.61421E-01 4.66997E-24
2.65264E-01 4.50617E-24
2.69126E-01 4.34919E-24
2.73005E-01 4.19870E-24
2.76901E-01 4.05439E-24
2.80814E-01 3.91595E-24
2.84744E-01 3.78310E-24
2.88691E-01 3.65559E-24
2.92653E-01 3.53316E-24
2.96632E-01 3.41557E-24
3.00625E-01 3.30261E-24
3.04634E-01 3.19405E-24
3.08658E-01 3.08970E-24
3.12697E-01 2.98936E-24
3.16749E-01 2.89286E-24
3.20816E-01 2.80002E-24
3.24896E-01 2.71068E-24
3.28990E-01 2.62469E-24
3.33097E-01 2.54190E-24
3.37216E-01 2.46217E-24
3.41348E-01 2.38537E-24
3.45492E-01 2.31137E-24
3.49647E-01 2.24006E-24
3.53814E-01 2.17131E-24
3.57992E-01 2.10503E-24
3.62181E-01 2.04111E-24
3.66381E-01 1.97944E-24
3.70590E-01 1.91995E-24
3.74810E-01 1.86253E-24
3.79039E-01 1.80710E-24
3.83277E-01 1.75359E-24
3.87524E-01 1.70191E-24
3.91780E-01 1.65200E-24
3.96044E-01 1.60378E-24
4.00316E-01 1.55718E-24
4.04596E-01 1.51215E-24
4.08882E-01 1.46861E-24
4.13176E-01 1.42652E-24
4.17476E-01 1.38582E-24
4.21783E-01 1.34644E-24
4.26095E-01 1.30835E-24
4.30413E-01 1.27150E-24
4.34737E-01 1.23583E-24
4.39065E-01 1.20130E-24
4.43398E-01 1.16788E-24
4.47736E-01 1.13551E-24
4.52077E-01 1.10417E-24
4.56422E-01 1.07380E-24
4.60770E-01 1.04439E-24
4.65122E-01 1.01588E-24
4.69476E-01 9.88260E-25
4.73832E-01 9.61484E-25
4.78190E-01 9.35527E-25
4.82550E-01 9.10359E-25
4.86912E-01 8.85952E-25
4.91274E-01 8.62279E-25
4.95637E-01 8.39315E-25
5.00000E-01 8.17036E-25
5.04363E-01 7.95417E-25
5.08726E-01 7.74436E-25
5.13088E-01 7.54070E-25
5.17450E-01 7.34300E-25
5.21810E-01 7.15105E-25
5.26168E-01 6.96465E-25
5.30524E-01 6.78363E-25
5.34878E-01 6.60779E-25
5.39230E-01 6.43697E-25
5.43578E-01 6.27101E-25
5.47923E-01 6.10974E-25
5.52264E-01 5.95301E-25
5.56602E-01 5.80068E-25
5.60935E-01 5.65259E-25
5.65263E-01 5.50862E-25
5.69587E-01 5.36863E-25
5.73905E-01 5.23250E-25
5.78217E-01 5.10010E-25
5.82524E-01 4.97131E-25
5.86824E-01 4.84603E-25
5.91118E-01 4.72413E-25
5.95404E-01 4.60552E-25
5.99684E-01 4.49008E-25
6.03956E-01 4.37772E-25
6.08220E-01 4.26836E-25
6.12476E-01 4.16189E-25
6.16723E-01 4.05824E-25
6.20961E-01 3.95731E-25
6.25190E-01 3.85903E-25
6.29410E-01 3.76332E-25
6.33619E-01 3.67009E-25
6.37819E-01 3.57928E-25
6.42008E-01 3.49082E-25
6.46186E-01 3.40462E-25
6.50353E-01 3.32064E-25
6.54508E-01 3.23880E-25
6.58652E-01 3.15903E-25
6.62784E-01 3.08129E-25
6.66903E-01 3.00552E-25
6.71010E-01 2.93164E-25
6.75104E-01 2.85963E-25
6.79184E-01 2.78940E-25
6.83251E-01 2.72093E-25
6.87303E-01 2.65416E-25
6.91342E-01 2.58904E-25
6.95366E-01 2.52552E-25
6.99375E-01 2.46356E-25
7.03368E-01 2.40312E-25
7.07347E-01 2.34416E-25
7.11309E-01 2.28663E-25
7.15256E-01 2.23050E-25
7.19186E-01 2.17572E-25
7.23099E-01 2.12227E-25
7.26995E-01 2.07010E-25
7.30874E-01 2.01918E-25
7.34736E-01 1.96948E-25
7.38579E-01 1.92096E-25
7.42405E-01 1.87360E-25
7.46212E-01 1.82736E-25
7.50000E-01 1.78221E-25
7.53769E-01 1.73813E-25
7.57519E-01 1.69508E-25
7.61249E-01 1.65305E-25
7.64960E-01 1.61200E-25
7.68650E-01 1.57191E-25
7.72320E-01 1.53275E-25
7.75968E-01 1.49451E-25
7.79596E-01 1.45715E-25
7.83203E-01 1.42065E-25
7.86788E-01 1.38500E-25
7.90351E-01 1.35017E-25
7.93893E-01 1.31615E-25
7.97411E-01 1.28290E-25
8.00908E-01 1.25042E-25
8.04381E-01 1.21868E-25
8.07831E-01 1.18766E-25
8.11257E-01 1.15736E-25
8.14660E-01 1.12774E-25
8.18039E-01 1.09880E-25
8.21394E-01 1.07052E-25
8.24724E-01 1.04287E-25
8.28030E-01 1.01586E-25
8.31310E-01 9.89456E-26
8.34565E-01 9.63650E-26
8.37795E-01 9.38427E-26
8.40999E-01 9.13775E-26
8.44177E-01 8.89679E-26
8.47329E-01 8.66126E-26
8.50455E-01 8.43106E-26
8.53553E-01 8.20604E-26
8.56625E-01 7.98609E-26
8.59670E-01 7.77111E-26
8.62687E-01 7.56097E-26
8.65677E-01 7.35557E-26
8.68639E-01 7.15480E-26
8.71572E-01 6.95856E-26
8.74478E-01 6.76676E-26
8.77355E-01 6.57929E-26
8.80203E-01 6.39606E-26
8.83022E-01 6.21698E-26
8.85812E-01 6.04195E-26
8.88573E-01 5.87090E-26
8.91304E-01 5.70374E-26
8.94005E-01 5.54039E-26
8.96677E-01 5.38076E-26
8.99318E-01 5.22479E-26
9.01928E-01 5.07238E-26
9.04508E-01 4.92348E-26
9.07058E-01 4.77801E-26
9.09576E-01 4.63590E-26
9.12063E-01 4.49709E-26
9.14519E-01 4.36150E-26
9.16943E-01 4.22907E-26
9.19335E-01 4.09975E-26
9.21696E-01 3.97347E-26
9.24024E-01 3.85017E-26
9.26320E-01 3.72980E-26
9.28584E-01 3.61231E-26
9.30815E-01 3.49762E-26
9.33013E-01 3.38571E-26
9.35178E-01 3.27651E-26
9.37310E-01 3.16997E-26
9.39409E-01 3.06605E-26
9.41474E-01 2.96470E-26
9.43505E-01 2.86588E-26
9.45503E-01 2.76954E-26
9.47467E-01 2.67564E-26
9.49397E-01 2.58413E-26
9.51293E-01 2.49498E-26
9.53154E-01 2.40814E-26
9.54981E-01 2.32359E-26
9.56773E-01 2.24128E-26
9.58530E-01 2.16117E-26
9.60252E-01 2.08324E-26
9.61940E-01 2.00745E-26
9.63592E-01 1.93376E-26
9.65209E-01 1.86214E-26
9.66790E-01 1.79257E-26
9.68336E-01 1.72502E-26
9.69846E-01 1.65944E-26
9.71321E-01 1.59583E-26
9.72759E-01 1.53414E-26
9.74162E-01 1.47436E-26
9.75528E-01 1.41646E-26
9.76858E-01 1.36041E-26
9.78152E-01 1.30620E-26
9.79410E-01 1.25379E-26
9.80631E-01 1.20317E-26
9.81815E-01 1.15431E-26
9.82963E-01 1.10720E-26
9.84074E-01 1.06182E-26
9.85148E-01 1.01814E-26
9.86185E-01 9.76157E-27
9.87185E-01 9.35842E-27
9.88148E-01 8.97182E-27
9.89074E-01 8.60162E-27
9.89962E-01 8.24766E-27
9.90814E-01 7.90980E-27
9.91627E-01 7.58790E-27
9.92404E-01 7.28183E-27
9.93143E-01 6.99146E-27
9.93844E-01 6.71668E-27
9.94508E-01 6.45738E-27
9.95134E-01 6.21345E-27
9.95722E-01 5.98479E-27
9.96273E-01 5.77131E-27
9.96786E-01 5.57293E-27
9.97261E-01 5.38955E-27
9.97698E-01 5.22112E-27
9.98097E-01 5.06756E-27
9.98459E-01 4.92881E-27
9.98782E-01 4.80482E-27
9.99067E-01 4.69552E-27
9.99315E-01 4.60089E-27
9.99524E-01 4.52089E-27
9.99695E-01 4.45547E-27
9.99829E-01 4.40462E-27
9.99924E-01 4.36831E-27
9.99981E-01 4.34653E-27
1.00000E+00 4.33927E-27
