 #
 # Subroutine ELSEPA. Elastic scattering of electrons and positrons
 #                    by neutral atoms and positive ions
 #
 # Projectile: positron
 # Kinetic energy = 1.00000E+08 eV = 3.67493E+06 a.u.
 #
 # WARNING: High-energy factorization with free-atom DF screening.
 #          Absorption, polarization and exchange corrections are
 #          switched off.
 #          Phase shifts are calculated for the bare nucleus.
 #          Scattering amplitudes are not evaluated.
 #
 # Element: Er,  Z =  68,  atomic weight = 1.67260E+02 g/mol
 #
 # Nuclear model: Fermi distribution
 #                Average radius = 5.89542E-13 cm
 #                Skin thickness = 5.46000E-14 cm
 #
 # Number of electrons = 68
 #
 # Total elastic cross section = 7.05510E-18 cm**2 = 2.51942E-01 a0**2
 # 1st transport cross section = 8.48245E-25 cm**2 = 3.02914E-08 a0**2
 # 2nd transport cross section = 2.52125E-24 cm**2 = 9.00354E-08 a0**2
 #
 #
 # Differential cross section:                       MU=(1-COS(THETA))/2
 #
 #  THETA        MU          DCS          DCS        Sherman      error
 #  (deg)                 (cm**2/sr)   (a0**2/sr)    function
 #----------------------------------------------------------------------
0.00000E+00 7.29975E-10
7.61557E-13 7.26667E-10
1.18994E-12 7.24820E-10
1.71346E-12 7.22574E-10
2.33225E-12 7.19936E-10
3.04617E-12 7.16912E-10
3.85530E-12 7.13511E-10
4.75964E-12 7.09742E-10
5.75917E-12 7.05616E-10
6.85391E-12 7.01143E-10
8.04379E-12 6.96336E-10
9.32893E-12 6.91207E-10
1.07092E-11 6.85769E-10
1.21847E-11 6.80036E-10
1.37554E-11 6.74023E-10
1.54213E-11 6.67744E-10
1.71823E-11 6.61215E-10
1.90386E-11 6.54450E-10
2.09900E-11 6.47466E-10
2.30367E-11 6.40286E-10
2.51785E-11 6.32953E-10
2.74156E-11 6.25429E-10
2.97478E-11 6.17728E-10
3.21752E-11 6.09864E-10
3.46979E-11 6.01850E-10
3.73157E-11 5.93798E-10
4.00286E-11 5.85666E-10
4.28368E-11 5.77426E-10
4.57402E-11 5.69092E-10
4.87388E-11 5.60676E-10
5.18325E-11 5.52232E-10
5.50215E-11 5.43858E-10
5.83057E-11 5.35438E-10
6.16850E-11 5.26983E-10
6.51595E-11 5.18504E-10
6.87293E-11 5.10011E-10
7.23943E-11 5.01663E-10
7.61544E-11 4.93361E-10
1.18991E-10 4.13672E-10
1.71347E-10 3.44492E-10
2.33223E-10 2.87662E-10
3.04617E-10 2.42141E-10
3.85531E-10 2.06034E-10
4.75965E-10 1.77318E-10
5.75917E-10 1.54234E-10
6.85389E-10 1.35393E-10
8.04380E-10 1.19736E-10
9.32891E-10 1.06524E-10
1.07092E-09 9.52199E-11
1.21847E-09 8.54360E-11
1.37554E-09 7.68893E-11
1.54213E-09 6.93660E-11
1.71823E-09 6.26968E-11
1.90386E-09 5.67755E-11
2.09900E-09 5.15024E-11
2.30367E-09 4.67191E-11
2.51785E-09 4.21636E-11
2.74156E-09 3.82794E-11
2.97478E-09 3.49476E-11
3.21752E-09 3.20732E-11
3.46978E-09 2.95801E-11
3.73156E-09 2.70820E-11
4.00286E-09 2.47812E-11
4.28368E-09 2.27729E-11
4.57402E-09 2.10118E-11
4.87388E-09 1.94608E-11
5.18326E-09 1.80397E-11
5.50215E-09 1.66373E-11
5.83057E-09 1.53947E-11
6.16850E-09 1.42897E-11
6.51596E-09 1.33038E-11
6.87293E-09 1.24212E-11
7.23942E-09 1.15546E-11
7.61544E-09 1.07575E-11
1.18991E-08 5.68369E-12
1.71347E-08 3.24009E-12
2.33223E-08 1.95297E-12
3.04617E-08 1.23939E-12
3.85531E-08 8.23698E-13
4.75965E-08 5.70192E-13
5.75917E-08 4.08864E-13
6.85389E-08 3.01419E-13
8.04380E-08 2.27720E-13
9.32891E-08 1.75546E-13
1.07092E-07 1.37549E-13
1.21847E-07 1.09259E-13
1.37554E-07 8.78464E-14
1.54213E-07 7.14110E-14
1.71823E-07 5.86242E-14
1.90386E-07 4.85581E-14
2.09900E-07 4.05466E-14
2.30367E-07 3.41054E-14
2.51785E-07 2.88782E-14
2.74156E-07 2.46477E-14
2.97478E-07 2.11349E-14
3.21752E-07 1.82438E-14
3.46978E-07 1.58202E-14
3.73156E-07 1.37917E-14
4.00286E-07 1.20765E-14
4.28368E-07 1.06209E-14
4.57402E-07 9.37915E-15
4.87388E-07 8.31245E-15
5.18325E-07 7.39531E-15
5.50215E-07 6.59947E-15
5.83057E-07 5.91022E-15
6.16850E-07 5.30660E-15
6.51596E-07 4.77994E-15
6.87293E-07 4.31581E-15
7.23942E-07 3.90760E-15
7.61543E-07 3.54611E-15
1.18991E-06 1.50226E-15
1.71347E-06 7.40624E-16
2.33223E-06 4.05789E-16
3.04617E-06 2.40359E-16
3.85531E-06 1.51215E-16
4.75964E-06 9.98052E-17
5.75916E-06 6.84968E-17
6.85388E-06 4.85577E-17
8.04378E-06 3.53745E-17
9.32888E-06 2.63774E-17
1.07092E-05 2.00675E-17
1.21846E-05 1.55366E-17
1.37553E-05 1.22152E-17
1.54212E-05 9.73564E-18
1.71822E-05 7.85435E-18
1.90385E-05 6.40314E-18
2.09899E-05 5.27725E-18
2.30365E-05 4.38752E-18
2.51783E-05 3.67665E-18
2.74153E-05 3.10327E-18
2.97475E-05 2.63698E-18
3.21749E-05 2.25499E-18
3.46974E-05 1.93984E-18
3.73152E-05 1.67804E-18
4.00281E-05 1.45909E-18
4.28362E-05 1.27475E-18
4.57395E-05 1.11860E-18
4.87380E-05 9.85564E-19
5.18317E-05 8.71654E-19
5.50205E-05 7.73675E-19
5.83045E-05 6.89054E-19
6.16838E-05 6.15687E-19
6.51582E-05 5.51840E-19
6.87277E-05 4.96071E-19
7.23925E-05 4.47179E-19
7.61524E-05 4.04287E-19
9.21439E-05 2.76205E-19
1.09658E-04 1.95019E-19
1.28695E-04 1.41582E-19
1.49255E-04 1.05237E-19
1.71338E-04 7.98375E-20
1.94942E-04 6.16517E-20
2.20070E-04 4.83579E-20
2.46720E-04 3.84590E-20
2.74892E-04 3.09658E-20
3.04586E-04 2.52104E-20
3.35803E-04 2.07308E-20
3.68542E-04 1.72024E-20
4.02802E-04 1.43930E-20
4.38585E-04 1.21338E-20
4.75889E-04 1.03004E-20
5.14715E-04 8.80016E-21
5.55063E-04 7.56302E-21
5.96931E-04 6.53555E-21
6.40321E-04 5.67653E-21
6.85233E-04 4.95391E-21
7.31665E-04 4.34253E-21
7.79618E-04 3.82246E-21
8.29092E-04 3.37783E-21
8.80086E-04 2.99589E-21
9.32601E-04 2.66634E-21
9.86636E-04 2.38079E-21
1.04219E-03 2.13239E-21
1.09927E-03 1.91548E-21
1.15786E-03 1.72540E-21
1.21797E-03 1.55827E-21
1.27961E-03 1.41084E-21
1.34276E-03 1.28040E-21
1.40743E-03 1.16465E-21
1.47362E-03 1.06166E-21
1.54133E-03 9.69763E-22
1.61056E-03 8.87571E-22
1.68131E-03 8.13877E-22
1.75357E-03 7.47651E-22
1.82735E-03 6.88002E-22
1.90265E-03 6.34165E-22
1.97947E-03 5.85473E-22
2.05780E-03 5.41348E-22
2.13765E-03 5.01287E-22
2.21902E-03 4.64849E-22
2.30190E-03 4.31649E-22
2.38630E-03 4.01349E-22
2.47222E-03 3.73651E-22
2.55965E-03 3.48284E-22
2.64859E-03 3.25023E-22
2.73905E-03 3.03662E-22
2.83103E-03 2.84018E-22
2.92452E-03 2.65928E-22
3.01952E-03 2.49248E-22
3.11604E-03 2.33848E-22
3.21407E-03 2.19612E-22
3.31362E-03 2.06437E-22
3.41468E-03 1.94228E-22
3.51725E-03 1.82904E-22
3.62133E-03 1.72387E-22
3.72692E-03 1.62610E-22
3.83403E-03 1.53511E-22
3.94265E-03 1.45035E-22
4.05278E-03 1.37132E-22
4.16442E-03 1.29756E-22
4.27757E-03 1.22866E-22
4.39223E-03 1.16423E-22
4.50840E-03 1.10393E-22
4.62608E-03 1.04745E-22
4.74527E-03 9.94510E-23
4.86597E-03 9.44840E-23
4.98817E-03 8.98205E-23
5.11188E-03 8.54384E-23
5.23711E-03 8.13178E-23
5.36383E-03 7.74402E-23
5.49207E-03 7.37886E-23
5.62181E-03 7.03475E-23
5.75306E-03 6.71025E-23
5.88581E-03 6.40405E-23
6.02007E-03 6.11493E-23
6.15583E-03 5.84175E-23
6.29310E-03 5.58348E-23
6.43187E-03 5.33916E-23
6.57214E-03 5.10789E-23
6.71392E-03 4.88886E-23
6.85720E-03 4.68130E-23
7.00198E-03 4.48449E-23
7.14827E-03 4.29778E-23
7.29605E-03 4.12056E-23
7.44534E-03 3.95225E-23
7.59612E-03 3.79234E-23
7.97965E-03 3.42607E-23
8.37255E-03 3.10237E-23
8.77480E-03 2.81546E-23
9.18641E-03 2.56047E-23
9.60736E-03 2.33325E-23
1.00376E-02 2.13028E-23
1.04773E-02 1.94852E-23
1.09262E-02 1.78540E-23
1.13844E-02 1.63867E-23
1.18520E-02 1.50643E-23
1.23288E-02 1.38698E-23
1.28150E-02 1.27890E-23
1.33104E-02 1.18092E-23
1.38150E-02 1.09193E-23
1.43290E-02 1.01097E-23
1.48521E-02 9.37201E-24
1.53845E-02 8.69868E-24
1.59262E-02 8.08320E-24
1.64770E-02 7.51975E-24
1.70371E-02 7.00320E-24
1.76063E-02 6.52900E-24
1.81848E-02 6.09310E-24
1.87724E-02 5.69188E-24
1.93692E-02 5.32212E-24
1.99751E-02 4.98096E-24
2.05901E-02 4.66580E-24
2.12143E-02 4.37435E-24
2.18476E-02 4.10451E-24
2.24900E-02 3.85443E-24
2.31415E-02 3.62241E-24
2.38021E-02 3.40695E-24
2.44717E-02 3.20665E-24
2.51504E-02 3.02029E-24
2.58382E-02 2.84673E-24
2.65349E-02 2.68495E-24
2.72407E-02 2.53402E-24
2.79555E-02 2.39309E-24
2.86793E-02 2.26140E-24
2.94120E-02 2.13823E-24
3.01537E-02 2.02296E-24
3.09043E-02 1.91499E-24
3.16639E-02 1.81378E-24
3.24324E-02 1.71885E-24
3.32098E-02 1.62974E-24
3.39961E-02 1.54604E-24
3.47912E-02 1.46737E-24
3.55952E-02 1.39338E-24
3.64081E-02 1.32375E-24
3.72297E-02 1.25817E-24
3.80602E-02 1.19639E-24
3.88995E-02 1.13813E-24
3.97476E-02 1.08318E-24
4.06044E-02 1.03131E-24
4.14700E-02 9.82323E-25
4.23443E-02 9.36037E-25
4.32273E-02 8.92280E-25
4.41190E-02 8.50891E-25
4.50194E-02 8.11723E-25
4.59284E-02 7.74640E-25
4.68461E-02 7.39513E-25
4.87074E-02 6.74661E-25
5.06030E-02 6.16313E-25
5.25328E-02 5.63726E-25
5.44967E-02 5.16253E-25
5.64946E-02 4.73328E-25
5.85262E-02 4.34457E-25
6.05914E-02 3.99206E-25
6.26901E-02 3.67191E-25
6.48222E-02 3.38077E-25
6.69873E-02 3.11567E-25
6.91854E-02 2.87397E-25
7.14163E-02 2.65335E-25
7.36799E-02 2.45172E-25
7.59760E-02 2.26726E-25
7.83043E-02 2.09831E-25
8.06647E-02 1.94342E-25
8.30571E-02 1.80127E-25
8.54812E-02 1.67068E-25
8.79369E-02 1.55060E-25
9.04240E-02 1.44010E-25
9.29422E-02 1.33830E-25
9.54915E-02 1.24446E-25
9.80716E-02 1.15788E-25
1.00682E-01 1.07793E-25
1.03323E-01 1.00405E-25
1.05995E-01 9.35730E-26
1.08696E-01 8.72504E-26
1.11427E-01 8.13953E-26
1.14188E-01 7.59694E-26
1.16978E-01 7.09382E-26
1.19797E-01 6.62698E-26
1.22645E-01 6.19356E-26
1.25522E-01 5.79092E-26
1.28428E-01 5.41667E-26
1.31361E-01 5.06861E-26
1.34323E-01 4.74473E-26
1.37313E-01 4.44319E-26
1.40330E-01 4.16232E-26
1.43375E-01 3.90056E-26
1.46447E-01 3.65651E-26
1.49545E-01 3.42885E-26
1.52671E-01 3.21640E-26
1.55823E-01 3.01804E-26
1.59001E-01 2.83277E-26
1.62205E-01 2.65965E-26
1.65435E-01 2.49782E-26
1.68690E-01 2.34649E-26
1.71970E-01 2.20491E-26
1.75276E-01 2.07242E-26
1.78606E-01 1.94838E-26
1.81961E-01 1.83222E-26
1.85340E-01 1.72340E-26
1.88743E-01 1.62142E-26
1.92169E-01 1.52582E-26
1.95619E-01 1.43617E-26
1.99092E-01 1.35208E-26
2.02589E-01 1.27319E-26
2.06107E-01 1.19914E-26
2.09649E-01 1.12962E-26
2.13212E-01 1.06434E-26
2.16797E-01 1.00302E-26
2.20404E-01 9.45408E-27
2.24032E-01 8.91265E-27
2.27680E-01 8.40369E-27
2.31350E-01 7.92515E-27
2.35040E-01 7.47511E-27
2.38751E-01 7.05176E-27
2.42481E-01 6.65345E-27
2.46231E-01 6.27861E-27
2.50000E-01 5.92578E-27
2.53788E-01 5.59361E-27
2.57595E-01 5.28081E-27
2.61421E-01 4.98621E-27
2.65264E-01 4.70870E-27
2.69126E-01 4.44723E-27
2.73005E-01 4.20083E-27
2.76901E-01 3.96859E-27
2.80814E-01 3.74967E-27
2.84744E-01 3.54326E-27
2.88691E-01 3.34862E-27
2.92653E-01 3.16504E-27
2.96632E-01 2.99188E-27
3.00625E-01 2.82851E-27
3.04634E-01 2.67436E-27
3.08658E-01 2.52888E-27
3.12697E-01 2.39158E-27
3.16749E-01 2.26197E-27
3.20816E-01 2.13960E-27
3.24896E-01 2.02405E-27
3.28990E-01 1.91494E-27
3.33097E-01 1.81188E-27
3.37216E-01 1.71454E-27
3.41348E-01 1.62258E-27
3.45492E-01 1.53569E-27
3.49647E-01 1.45359E-27
3.53814E-01 1.37600E-27
3.57992E-01 1.30266E-27
3.62181E-01 1.23334E-27
3.66381E-01 1.16781E-27
3.70590E-01 1.10586E-27
3.74810E-01 1.04728E-27
3.79039E-01 9.91877E-28
3.83277E-01 9.39486E-28
3.87524E-01 8.89932E-28
3.91780E-01 8.43058E-28
3.96044E-01 7.98715E-28
4.00316E-01 7.56762E-28
4.04596E-01 7.17066E-28
4.08882E-01 6.79504E-28
4.13176E-01 6.43956E-28
4.17476E-01 6.10312E-28
4.21783E-01 5.78468E-28
4.26095E-01 5.48325E-28
4.30413E-01 5.19788E-28
4.34737E-01 4.92772E-28
4.39065E-01 4.67192E-28
4.43398E-01 4.42970E-28
4.47736E-01 4.20032E-28
4.52077E-01 3.98309E-28
4.56422E-01 3.77734E-28
4.60770E-01 3.58246E-28
4.65122E-01 3.39786E-28
4.69476E-01 3.22298E-28
4.73832E-01 3.05730E-28
4.78190E-01 2.90032E-28
4.82550E-01 2.75158E-28
4.86912E-01 2.61063E-28
4.91274E-01 2.47706E-28
4.95637E-01 2.35047E-28
5.00000E-01 2.23049E-28
5.04363E-01 2.11677E-28
5.08726E-01 2.00896E-28
5.13088E-01 1.90677E-28
5.17450E-01 1.80988E-28
5.21810E-01 1.71803E-28
5.26168E-01 1.63093E-28
5.30524E-01 1.54835E-28
5.34878E-01 1.47003E-28
5.39230E-01 1.39576E-28
5.43578E-01 1.32533E-28
5.47923E-01 1.25852E-28
5.52264E-01 1.19515E-28
5.56602E-01 1.13504E-28
5.60935E-01 1.07802E-28
5.65263E-01 1.02393E-28
5.69587E-01 9.72604E-29
5.73905E-01 9.23909E-29
5.78217E-01 8.77705E-29
5.82524E-01 8.33861E-29
5.86824E-01 7.92254E-29
5.91118E-01 7.52768E-29
5.95404E-01 7.15293E-29
5.99684E-01 6.79724E-29
6.03956E-01 6.45962E-29
6.08220E-01 6.13914E-29
6.12476E-01 5.83491E-29
6.16723E-01 5.54608E-29
6.20961E-01 5.27187E-29
6.25190E-01 5.01151E-29
6.29410E-01 4.76430E-29
6.33619E-01 4.52956E-29
6.37819E-01 4.30664E-29
6.42008E-01 4.09493E-29
6.46186E-01 3.89387E-29
6.50353E-01 3.70291E-29
6.54508E-01 3.52152E-29
6.58652E-01 3.34922E-29
6.62784E-01 3.18554E-29
6.66903E-01 3.03004E-29
6.71010E-01 2.88231E-29
6.75104E-01 2.74195E-29
6.79184E-01 2.60858E-29
6.83251E-01 2.48185E-29
6.87303E-01 2.36142E-29
6.91342E-01 2.24697E-29
6.95366E-01 2.13820E-29
6.99375E-01 2.03481E-29
7.03368E-01 1.93655E-29
7.07347E-01 1.84314E-29
7.11309E-01 1.75434E-29
7.15256E-01 1.66992E-29
7.19186E-01 1.58966E-29
7.23099E-01 1.51335E-29
7.26995E-01 1.44078E-29
7.30874E-01 1.37178E-29
7.34736E-01 1.30617E-29
7.38579E-01 1.24376E-29
7.42405E-01 1.18441E-29
7.46212E-01 1.12795E-29
7.50000E-01 1.07425E-29
7.53769E-01 1.02317E-29
7.57519E-01 9.74567E-30
7.61249E-01 9.28329E-30
7.64960E-01 8.84335E-30
7.68650E-01 8.42473E-30
7.72320E-01 8.02637E-30
7.75968E-01 7.64727E-30
7.79596E-01 7.28647E-30
7.83203E-01 6.94305E-30
7.86788E-01 6.61617E-30
7.90351E-01 6.30500E-30
7.93893E-01 6.00876E-30
7.97411E-01 5.72672E-30
8.00908E-01 5.45818E-30
8.04381E-01 5.20248E-30
8.07831E-01 4.95897E-30
8.11257E-01 4.72707E-30
8.14660E-01 4.50620E-30
8.18039E-01 4.29582E-30
8.21394E-01 4.09541E-30
8.24724E-01 3.90450E-30
8.28030E-01 3.72261E-30
8.31310E-01 3.54931E-30
8.34565E-01 3.38417E-30
8.37795E-01 3.22680E-30
8.40999E-01 3.07682E-30
8.44177E-01 2.93387E-30
8.47329E-01 2.79762E-30
8.50455E-01 2.66772E-30
8.53553E-01 2.54389E-30
8.56625E-01 2.42583E-30
8.59670E-01 2.31325E-30
8.62687E-01 2.20589E-30
8.65677E-01 2.10350E-30
8.68639E-01 2.00585E-30
8.71572E-01 1.91270E-30
8.74478E-01 1.82385E-30
8.77355E-01 1.73907E-30
8.80203E-01 1.65819E-30
8.83022E-01 1.58101E-30
8.85812E-01 1.50736E-30
8.88573E-01 1.43707E-30
8.91304E-01 1.36997E-30
8.94005E-01 1.30593E-30
8.96677E-01 1.24479E-30
8.99318E-01 1.18642E-30
9.01928E-01 1.13069E-30
9.04508E-01 1.07747E-30
9.07058E-01 1.02665E-30
9.09576E-01 9.78104E-31
9.12063E-01 9.31740E-31
9.14519E-01 8.87451E-31
9.16943E-01 8.45141E-31
9.19335E-01 8.04718E-31
9.21696E-01 7.66094E-31
9.24024E-01 7.29187E-31
9.26320E-01 6.93918E-31
9.28584E-01 6.60211E-31
9.30815E-01 6.27995E-31
9.33013E-01 5.97202E-31
9.35178E-01 5.67767E-31
9.37310E-01 5.39628E-31
9.39409E-01 5.12727E-31
9.41474E-01 4.87009E-31
9.43505E-01 4.62419E-31
9.45503E-01 4.38908E-31
9.47467E-01 4.16428E-31
9.49397E-01 3.94933E-31
9.51293E-01 3.74379E-31
9.53154E-01 3.54725E-31
9.54981E-01 3.35932E-31
9.56773E-01 3.17962E-31
9.58530E-01 3.00779E-31
9.60252E-01 2.84351E-31
9.61940E-01 2.68644E-31
9.63592E-01 2.53628E-31
9.65209E-01 2.39274E-31
9.66790E-01 2.25553E-31
9.68336E-01 2.12440E-31
9.69846E-01 1.99910E-31
9.71321E-01 1.87938E-31
9.72759E-01 1.76503E-31
9.74162E-01 1.65582E-31
9.75528E-01 1.55155E-31
9.76858E-01 1.45202E-31
9.78152E-01 1.35706E-31
9.79410E-01 1.26648E-31
9.80631E-01 1.18012E-31
9.81815E-01 1.09782E-31
9.82963E-01 1.01943E-31
9.84074E-01 9.44818E-32
9.85148E-01 8.73837E-32
9.86185E-01 8.06365E-32
9.87185E-01 7.42281E-32
9.88148E-01 6.81470E-32
9.89074E-01 6.23825E-32
9.89962E-01 5.69245E-32
9.90814E-01 5.17634E-32
9.91627E-01 4.68902E-32
9.92404E-01 4.22963E-32
9.93143E-01 3.79738E-32
9.93844E-01 3.39152E-32
9.94508E-01 3.01137E-32
9.95134E-01 2.65625E-32
9.95722E-01 2.32557E-32
9.96273E-01 2.01875E-32
9.96786E-01 1.73529E-32
9.97261E-01 1.47470E-32
9.97698E-01 1.23653E-32
9.98097E-01 1.02039E-32
9.98459E-01 8.25912E-33
9.98782E-01 6.52768E-33
9.99067E-01 5.00667E-33
9.99315E-01 3.69357E-33
9.99524E-01 2.58617E-33
9.99695E-01 1.68263E-33
9.99829E-01 9.81420E-34
9.99924E-01 4.81393E-34
9.99981E-01 1.81708E-34
1.00000E+00 8.18785E-35
