 #
 # Subroutine ELSEPA. Elastic scattering of electrons and positrons
 #                    by neutral atoms and positive ions
 #
 # Projectile: positron
 # Kinetic energy = 4.50000E+06 eV = 1.65372E+05 a.u.
 #
 # WARNING: High-energy factorization with free-atom DF screening.
 #          Absorption, polarization and exchange corrections are
 #          switched off.
 #          Phase shifts are calculated for the bare nucleus.
 #          Scattering amplitudes are not evaluated.
 #
 # Element: Er,  Z =  68,  atomic weight = 1.67260E+02 g/mol
 #
 # Nuclear model: Fermi distribution
 #                Average radius = 5.89542E-13 cm
 #                Skin thickness = 5.46000E-14 cm
 #
 # Number of electrons = 68
 #
 # Total elastic cross section = 7.11520E-18 cm**2 = 2.54088E-01 a0**2
 # 1st transport cross section = 2.25737E-22 cm**2 = 8.06123E-06 a0**2
 # 2nd transport cross section = 6.48841E-22 cm**2 = 2.31705E-05 a0**2
 #
 #
 # Differential cross section:                       MU=(1-COS(THETA))/2
 #
 #  THETA        MU          DCS          DCS        Sherman      error
 #  (deg)                 (cm**2/sr)   (a0**2/sr)    function
 #----------------------------------------------------------------------
0.00000E+00 1.81438E-12
7.61557E-13 1.81436E-12
1.18994E-12 1.81435E-12
1.71346E-12 1.81434E-12
2.33225E-12 1.81432E-12
3.04617E-12 1.81430E-12
3.85530E-12 1.81428E-12
4.75964E-12 1.81425E-12
5.75917E-12 1.81422E-12
6.85391E-12 1.81419E-12
8.04379E-12 1.81416E-12
9.32893E-12 1.81413E-12
1.07092E-11 1.81409E-12
1.21847E-11 1.81405E-12
1.37554E-11 1.81401E-12
1.54213E-11 1.81396E-12
1.71823E-11 1.81392E-12
1.90386E-11 1.81387E-12
2.09900E-11 1.81381E-12
2.30367E-11 1.81376E-12
2.51785E-11 1.81370E-12
2.74156E-11 1.81364E-12
2.97478E-11 1.81358E-12
3.21752E-11 1.81351E-12
3.46979E-11 1.81345E-12
3.73157E-11 1.81338E-12
4.00286E-11 1.81330E-12
4.28368E-11 1.81323E-12
4.57402E-11 1.81315E-12
4.87388E-11 1.81307E-12
5.18325E-11 1.81299E-12
5.50215E-11 1.81290E-12
5.83057E-11 1.81281E-12
6.16850E-11 1.81272E-12
6.51595E-11 1.81263E-12
6.87293E-11 1.81254E-12
7.23943E-11 1.81244E-12
7.61544E-11 1.81234E-12
1.18991E-10 1.81120E-12
1.71347E-10 1.80980E-12
2.33223E-10 1.80816E-12
3.04617E-10 1.80627E-12
3.85531E-10 1.80413E-12
4.75965E-10 1.80175E-12
5.75917E-10 1.79912E-12
6.85389E-10 1.79625E-12
8.04380E-10 1.79314E-12
9.32891E-10 1.78979E-12
1.07092E-09 1.78620E-12
1.21847E-09 1.78238E-12
1.37554E-09 1.77833E-12
1.54213E-09 1.77405E-12
1.71823E-09 1.76955E-12
1.90386E-09 1.76482E-12
2.09900E-09 1.75988E-12
2.30367E-09 1.75472E-12
2.51785E-09 1.74935E-12
2.74156E-09 1.74376E-12
2.97478E-09 1.73798E-12
3.21752E-09 1.73199E-12
3.46978E-09 1.72580E-12
3.73156E-09 1.71942E-12
4.00286E-09 1.71285E-12
4.28368E-09 1.70610E-12
4.57402E-09 1.69916E-12
4.87388E-09 1.69205E-12
5.18326E-09 1.68476E-12
5.50215E-09 1.67731E-12
5.83057E-09 1.66969E-12
6.16850E-09 1.66191E-12
6.51596E-09 1.65398E-12
6.87293E-09 1.64590E-12
7.23942E-09 1.63768E-12
7.61544E-09 1.62931E-12
1.18991E-08 1.53916E-12
1.71347E-08 1.44006E-12
2.33223E-08 1.33662E-12
3.04617E-08 1.23277E-12
3.85531E-08 1.13163E-12
4.75965E-08 1.03550E-12
5.75917E-08 9.45890E-13
6.85389E-08 8.63798E-13
8.04380E-08 7.89241E-13
9.32891E-08 7.22085E-13
1.07092E-07 6.61936E-13
1.21847E-07 6.08251E-13
1.37554E-07 5.60412E-13
1.54213E-07 5.17787E-13
1.71823E-07 4.79760E-13
1.90386E-07 4.45763E-13
2.09900E-07 4.15276E-13
2.30367E-07 3.87841E-13
2.51785E-07 3.63044E-13
2.74156E-07 3.40532E-13
2.97478E-07 3.20013E-13
3.21752E-07 3.01237E-13
3.46978E-07 2.83992E-13
3.73156E-07 2.68094E-13
4.00286E-07 2.53390E-13
4.28368E-07 2.39749E-13
4.57402E-07 2.27059E-13
4.87388E-07 2.15223E-13
5.18325E-07 2.04153E-13
5.50215E-07 1.93762E-13
5.83057E-07 1.84015E-13
6.16850E-07 1.74859E-13
6.51596E-07 1.66246E-13
6.87293E-07 1.58137E-13
7.23942E-07 1.50494E-13
7.61543E-07 1.43284E-13
1.18991E-06 8.83628E-14
1.71347E-06 5.76938E-14
2.33223E-06 3.90541E-14
3.04617E-06 2.73183E-14
3.85531E-06 1.96493E-14
4.75964E-06 1.44589E-14
5.75916E-06 1.08382E-14
6.85388E-06 8.24137E-15
8.04378E-06 6.35979E-15
9.32888E-06 4.97448E-15
1.07092E-05 3.94046E-15
1.21846E-05 3.15906E-15
1.37553E-05 2.56164E-15
1.54212E-05 2.09971E-15
1.71822E-05 1.73858E-15
1.90385E-05 1.45249E-15
2.09899E-05 1.22540E-15
2.30365E-05 1.04226E-15
2.51783E-05 8.91721E-16
2.74153E-05 7.67893E-16
2.97475E-05 6.65288E-16
3.21749E-05 5.79652E-16
3.46974E-05 5.07660E-16
3.73152E-05 4.46697E-16
4.00281E-05 3.94708E-16
4.28362E-05 3.50083E-16
4.57395E-05 3.11556E-16
4.87380E-05 2.78134E-16
5.18317E-05 2.49020E-16
5.50205E-05 2.23564E-16
5.83045E-05 2.01262E-16
6.16838E-05 1.81665E-16
6.51582E-05 1.64391E-16
6.87277E-05 1.49118E-16
7.23925E-05 1.35569E-16
7.61524E-05 1.23512E-16
9.21439E-05 8.67406E-17
1.09658E-04 6.26223E-17
1.28695E-04 4.63343E-17
1.49255E-04 3.50090E-17
1.71338E-04 2.69461E-17
1.94942E-04 2.10775E-17
2.20070E-04 1.67242E-17
2.46720E-04 1.34401E-17
2.74892E-04 1.09241E-17
3.04586E-04 8.97050E-18
3.35803E-04 7.43469E-18
3.68542E-04 6.21367E-18
4.02802E-04 5.23279E-18
4.38585E-04 4.43786E-18
4.75889E-04 3.78810E-18
5.14715E-04 3.25282E-18
5.55063E-04 2.80863E-18
5.96931E-04 2.43754E-18
6.40321E-04 2.12560E-18
6.85233E-04 1.86184E-18
7.31665E-04 1.63762E-18
7.79618E-04 1.44603E-18
8.29092E-04 1.28155E-18
8.80086E-04 1.13969E-18
9.32601E-04 1.01686E-18
9.86636E-04 9.10080E-19
1.04219E-03 8.16901E-19
1.09927E-03 7.35304E-19
1.15786E-03 6.63607E-19
1.21797E-03 6.00408E-19
1.27961E-03 5.44529E-19
1.34276E-03 4.94978E-19
1.40743E-03 4.50918E-19
1.47362E-03 4.11634E-19
1.54133E-03 3.76520E-19
1.61056E-03 3.45058E-19
1.68131E-03 3.16805E-19
1.75357E-03 2.91376E-19
1.82735E-03 2.68439E-19
1.90265E-03 2.47709E-19
1.97947E-03 2.28935E-19
2.05780E-03 2.11901E-19
2.13765E-03 1.96418E-19
2.21902E-03 1.82318E-19
2.30190E-03 1.69458E-19
2.38630E-03 1.57707E-19
2.47222E-03 1.46954E-19
2.55965E-03 1.37100E-19
2.64859E-03 1.28055E-19
2.73905E-03 1.19741E-19
2.83103E-03 1.12090E-19
2.92452E-03 1.05037E-19
3.01952E-03 9.85293E-20
3.11604E-03 9.25159E-20
3.21407E-03 8.69527E-20
3.31362E-03 8.17999E-20
3.41468E-03 7.70217E-20
3.51725E-03 7.25861E-20
3.62133E-03 6.84642E-20
3.72692E-03 6.46295E-20
3.83403E-03 6.10587E-20
3.94265E-03 5.77301E-20
4.05278E-03 5.46244E-20
4.16442E-03 5.17239E-20
4.27757E-03 4.90126E-20
4.39223E-03 4.64759E-20
4.50840E-03 4.41005E-20
4.62608E-03 4.18743E-20
4.74527E-03 3.97861E-20
4.86597E-03 3.78259E-20
4.98817E-03 3.59844E-20
5.11188E-03 3.42531E-20
5.23711E-03 3.26242E-20
5.36383E-03 3.10905E-20
5.49207E-03 2.96455E-20
5.62181E-03 2.82830E-20
5.75306E-03 2.69975E-20
5.88581E-03 2.57838E-20
6.02007E-03 2.46372E-20
6.15583E-03 2.35533E-20
6.29310E-03 2.25281E-20
6.43187E-03 2.15577E-20
6.57214E-03 2.06387E-20
6.71392E-03 1.97679E-20
6.85720E-03 1.89423E-20
7.00198E-03 1.81591E-20
7.14827E-03 1.74158E-20
7.29605E-03 1.67098E-20
7.44534E-03 1.60391E-20
7.59612E-03 1.54014E-20
7.97965E-03 1.39399E-20
8.37255E-03 1.26466E-20
8.77480E-03 1.14990E-20
9.18641E-03 1.04780E-20
9.60736E-03 9.56700E-21
1.00376E-02 8.75230E-21
1.04773E-02 8.02194E-21
1.09262E-02 7.36569E-21
1.13844E-02 6.77474E-21
1.18520E-02 6.24148E-21
1.23288E-02 5.75929E-21
1.28150E-02 5.32245E-21
1.33104E-02 4.92594E-21
1.38150E-02 4.56540E-21
1.43290E-02 4.23699E-21
1.48521E-02 3.93736E-21
1.53845E-02 3.66354E-21
1.59262E-02 3.41293E-21
1.64770E-02 3.18321E-21
1.70371E-02 2.97233E-21
1.76063E-02 2.77848E-21
1.81848E-02 2.60005E-21
1.87724E-02 2.43559E-21
1.93692E-02 2.28382E-21
1.99751E-02 2.14357E-21
2.05901E-02 2.01384E-21
2.12143E-02 1.89368E-21
2.18476E-02 1.78226E-21
2.24900E-02 1.67884E-21
2.31415E-02 1.58275E-21
2.38021E-02 1.49337E-21
2.44717E-02 1.41015E-21
2.51504E-02 1.33258E-21
2.58382E-02 1.26023E-21
2.65349E-02 1.19267E-21
2.72407E-02 1.12953E-21
2.79555E-02 1.07047E-21
2.86793E-02 1.01518E-21
2.94120E-02 9.63372E-22
3.01537E-02 9.14795E-22
3.09043E-02 8.69209E-22
3.16639E-02 8.26396E-22
3.24324E-02 7.86157E-22
3.32098E-02 7.48311E-22
3.39961E-02 7.12689E-22
3.47912E-02 6.79138E-22
3.55952E-02 6.47515E-22
3.64081E-02 6.17690E-22
3.72297E-02 5.89543E-22
3.80602E-02 5.62962E-22
3.88995E-02 5.37844E-22
3.97476E-02 5.14094E-22
4.06044E-02 4.91625E-22
4.14700E-02 4.70355E-22
4.23443E-02 4.50209E-22
4.32273E-02 4.31116E-22
4.41190E-02 4.13012E-22
4.50194E-02 3.95836E-22
4.59284E-02 3.79532E-22
4.68461E-02 3.64048E-22
4.87074E-02 3.35348E-22
5.06030E-02 3.09386E-22
5.25328E-02 2.85856E-22
5.44967E-02 2.64492E-22
5.64946E-02 2.45060E-22
5.85262E-02 2.27356E-22
6.05914E-02 2.11200E-22
6.26901E-02 1.96433E-22
6.48222E-02 1.82917E-22
6.69873E-02 1.70526E-22
6.91854E-02 1.59152E-22
7.14163E-02 1.48696E-22
7.36799E-02 1.39071E-22
7.59760E-02 1.30200E-22
7.83043E-02 1.22015E-22
8.06647E-02 1.14452E-22
8.30571E-02 1.07456E-22
8.54812E-02 1.00978E-22
8.79369E-02 9.49730E-23
9.04240E-02 8.93998E-23
9.29422E-02 8.42223E-23
9.54915E-02 7.94075E-23
9.80716E-02 7.49257E-23
1.00682E-01 7.07498E-23
1.03323E-01 6.68555E-23
1.05995E-01 6.32203E-23
1.08696E-01 5.98242E-23
1.11427E-01 5.66486E-23
1.14188E-01 5.36767E-23
1.16978E-01 5.08932E-23
1.19797E-01 4.82841E-23
1.22645E-01 4.58366E-23
1.25522E-01 4.35390E-23
1.28428E-01 4.13805E-23
1.31361E-01 3.93512E-23
1.34323E-01 3.74419E-23
1.37313E-01 3.56445E-23
1.40330E-01 3.39512E-23
1.43375E-01 3.23549E-23
1.46447E-01 3.08491E-23
1.49545E-01 2.94278E-23
1.52671E-01 2.80854E-23
1.55823E-01 2.68169E-23
1.59001E-01 2.56173E-23
1.62205E-01 2.44824E-23
1.65435E-01 2.34080E-23
1.68690E-01 2.23903E-23
1.71970E-01 2.14259E-23
1.75276E-01 2.05114E-23
1.78606E-01 1.96439E-23
1.81961E-01 1.88205E-23
1.85340E-01 1.80385E-23
1.88743E-01 1.72956E-23
1.92169E-01 1.65894E-23
1.95619E-01 1.59178E-23
1.99092E-01 1.52788E-23
2.02589E-01 1.46706E-23
2.06107E-01 1.40914E-23
2.09649E-01 1.35397E-23
2.13212E-01 1.30137E-23
2.16797E-01 1.25123E-23
2.20404E-01 1.20340E-23
2.24032E-01 1.15775E-23
2.27680E-01 1.11417E-23
2.31350E-01 1.07256E-23
2.35040E-01 1.03280E-23
2.38751E-01 9.94800E-24
2.42481E-01 9.58469E-24
2.46231E-01 9.23719E-24
2.50000E-01 8.90472E-24
2.53788E-01 8.58649E-24
2.57595E-01 8.28181E-24
2.61421E-01 7.99000E-24
2.65264E-01 7.71041E-24
2.69126E-01 7.44246E-24
2.73005E-01 7.18556E-24
2.76901E-01 6.93918E-24
2.80814E-01 6.70283E-24
2.84744E-01 6.47602E-24
2.88691E-01 6.25831E-24
2.92653E-01 6.04926E-24
2.96632E-01 5.84847E-24
3.00625E-01 5.65557E-24
3.04634E-01 5.47018E-24
3.08658E-01 5.29196E-24
3.12697E-01 5.12060E-24
3.16749E-01 4.95577E-24
3.20816E-01 4.79720E-24
3.24896E-01 4.64460E-24
3.28990E-01 4.49771E-24
3.33097E-01 4.35628E-24
3.37216E-01 4.22007E-24
3.41348E-01 4.08885E-24
3.45492E-01 3.96242E-24
3.49647E-01 3.84057E-24
3.53814E-01 3.72310E-24
3.57992E-01 3.60984E-24
3.62181E-01 3.50059E-24
3.66381E-01 3.39521E-24
3.70590E-01 3.29353E-24
3.74810E-01 3.19539E-24
3.79039E-01 3.10065E-24
3.83277E-01 3.00918E-24
3.87524E-01 2.92084E-24
3.91780E-01 2.83551E-24
3.96044E-01 2.75307E-24
4.00316E-01 2.67340E-24
4.04596E-01 2.59640E-24
4.08882E-01 2.52196E-24
4.13176E-01 2.44999E-24
4.17476E-01 2.38038E-24
4.21783E-01 2.31304E-24
4.26095E-01 2.24790E-24
4.30413E-01 2.18486E-24
4.34737E-01 2.12385E-24
4.39065E-01 2.06479E-24
4.43398E-01 2.00761E-24
4.47736E-01 1.95224E-24
4.52077E-01 1.89861E-24
4.56422E-01 1.84666E-24
4.60770E-01 1.79633E-24
4.65122E-01 1.74756E-24
4.69476E-01 1.70029E-24
4.73832E-01 1.65447E-24
4.78190E-01 1.61004E-24
4.82550E-01 1.56696E-24
4.86912E-01 1.52519E-24
4.91274E-01 1.48467E-24
4.95637E-01 1.44536E-24
5.00000E-01 1.40721E-24
5.04363E-01 1.37020E-24
5.08726E-01 1.33428E-24
5.13088E-01 1.29941E-24
5.17450E-01 1.26555E-24
5.21810E-01 1.23268E-24
5.26168E-01 1.20076E-24
5.30524E-01 1.16975E-24
5.34878E-01 1.13964E-24
5.39230E-01 1.11038E-24
5.43578E-01 1.08195E-24
5.47923E-01 1.05432E-24
5.52264E-01 1.02747E-24
5.56602E-01 1.00137E-24
5.60935E-01 9.75994E-25
5.65263E-01 9.51323E-25
5.69587E-01 9.27333E-25
5.73905E-01 9.04002E-25
5.78217E-01 8.81310E-25
5.82524E-01 8.59235E-25
5.86824E-01 8.37759E-25
5.91118E-01 8.16864E-25
5.95404E-01 7.96530E-25
5.99684E-01 7.76740E-25
6.03956E-01 7.57479E-25
6.08220E-01 7.38729E-25
6.12476E-01 7.20475E-25
6.16723E-01 7.02702E-25
6.20961E-01 6.85396E-25
6.25190E-01 6.68542E-25
6.29410E-01 6.52127E-25
6.33619E-01 6.36137E-25
6.37819E-01 6.20561E-25
6.42008E-01 6.05386E-25
6.46186E-01 5.90599E-25
6.50353E-01 5.76191E-25
6.54508E-01 5.62149E-25
6.58652E-01 5.48463E-25
6.62784E-01 5.35123E-25
6.66903E-01 5.22119E-25
6.71010E-01 5.09441E-25
6.75104E-01 4.97080E-25
6.79184E-01 4.85028E-25
6.83251E-01 4.73274E-25
6.87303E-01 4.61811E-25
6.91342E-01 4.50631E-25
6.95366E-01 4.39725E-25
6.99375E-01 4.29087E-25
7.03368E-01 4.18708E-25
7.07347E-01 4.08583E-25
7.11309E-01 3.98702E-25
7.15256E-01 3.89061E-25
7.19186E-01 3.79653E-25
7.23099E-01 3.70470E-25
7.26995E-01 3.61508E-25
7.30874E-01 3.52760E-25
7.34736E-01 3.44221E-25
7.38579E-01 3.35884E-25
7.42405E-01 3.27746E-25
7.46212E-01 3.19799E-25
7.50000E-01 3.12040E-25
7.53769E-01 3.04464E-25
7.57519E-01 2.97065E-25
7.61249E-01 2.89839E-25
7.64960E-01 2.82782E-25
7.68650E-01 2.75889E-25
7.72320E-01 2.69157E-25
7.75968E-01 2.62580E-25
7.79596E-01 2.56156E-25
7.83203E-01 2.49880E-25
7.86788E-01 2.43748E-25
7.90351E-01 2.37758E-25
7.93893E-01 2.31905E-25
7.97411E-01 2.26186E-25
8.00908E-01 2.20597E-25
8.04381E-01 2.15137E-25
8.07831E-01 2.09800E-25
8.11257E-01 2.04585E-25
8.14660E-01 1.99489E-25
8.18039E-01 1.94508E-25
8.21394E-01 1.89640E-25
8.24724E-01 1.84882E-25
8.28030E-01 1.80232E-25
8.31310E-01 1.75687E-25
8.34565E-01 1.71244E-25
8.37795E-01 1.66902E-25
8.40999E-01 1.62657E-25
8.44177E-01 1.58508E-25
8.47329E-01 1.54452E-25
8.50455E-01 1.50487E-25
8.53553E-01 1.46612E-25
8.56625E-01 1.42823E-25
8.59670E-01 1.39120E-25
8.62687E-01 1.35500E-25
8.65677E-01 1.31961E-25
8.68639E-01 1.28502E-25
8.71572E-01 1.25121E-25
8.74478E-01 1.21816E-25
8.77355E-01 1.18585E-25
8.80203E-01 1.15428E-25
8.83022E-01 1.12341E-25
8.85812E-01 1.09325E-25
8.88573E-01 1.06376E-25
8.91304E-01 1.03495E-25
8.94005E-01 1.00679E-25
8.96677E-01 9.79266E-26
8.99318E-01 9.52373E-26
9.01928E-01 9.26095E-26
9.04508E-01 9.00419E-26
9.07058E-01 8.75333E-26
9.09576E-01 8.50825E-26
9.12063E-01 8.26883E-26
9.14519E-01 8.03497E-26
9.16943E-01 7.80655E-26
9.19335E-01 7.58347E-26
9.21696E-01 7.36562E-26
9.24024E-01 7.15291E-26
9.26320E-01 6.94523E-26
9.28584E-01 6.74250E-26
9.30815E-01 6.54462E-26
9.33013E-01 6.35150E-26
9.35178E-01 6.16305E-26
9.37310E-01 5.97919E-26
9.39409E-01 5.79983E-26
9.41474E-01 5.62491E-26
9.43505E-01 5.45433E-26
9.45503E-01 5.28802E-26
9.47467E-01 5.12592E-26
9.49397E-01 4.96795E-26
9.51293E-01 4.81403E-26
9.53154E-01 4.66411E-26
9.54981E-01 4.51812E-26
9.56773E-01 4.37600E-26
9.58530E-01 4.23767E-26
9.60252E-01 4.10309E-26
9.61940E-01 3.97220E-26
9.63592E-01 3.84494E-26
9.65209E-01 3.72125E-26
9.66790E-01 3.60109E-26
9.68336E-01 3.48440E-26
9.69846E-01 3.37114E-26
9.71321E-01 3.26125E-26
9.72759E-01 3.15469E-26
9.74162E-01 3.05141E-26
9.75528E-01 2.95138E-26
9.76858E-01 2.85455E-26
9.78152E-01 2.76088E-26
9.79410E-01 2.67033E-26
9.80631E-01 2.58287E-26
9.81815E-01 2.49845E-26
9.82963E-01 2.41705E-26
9.84074E-01 2.33862E-26
9.85148E-01 2.26315E-26
9.86185E-01 2.19059E-26
9.87185E-01 2.12091E-26
9.88148E-01 2.05410E-26
9.89074E-01 1.99012E-26
9.89962E-01 1.92894E-26
9.90814E-01 1.87055E-26
9.91627E-01 1.81491E-26
9.92404E-01 1.76201E-26
9.93143E-01 1.71182E-26
9.93844E-01 1.66432E-26
9.94508E-01 1.61950E-26
9.95134E-01 1.57733E-26
9.95722E-01 1.53781E-26
9.96273E-01 1.50090E-26
9.96786E-01 1.46661E-26
9.97261E-01 1.43491E-26
9.97698E-01 1.40579E-26
9.98097E-01 1.37925E-26
9.98459E-01 1.35526E-26
9.98782E-01 1.33382E-26
9.99067E-01 1.31493E-26
9.99315E-01 1.29857E-26
9.99524E-01 1.28474E-26
9.99695E-01 1.27343E-26
9.99829E-01 1.26464E-26
9.99924E-01 1.25836E-26
9.99981E-01 1.25459E-26
1.00000E+00 1.25334E-26
