 #
 # Subroutine ELSEPA. Elastic scattering of electrons and positrons
 #                    by neutral atoms and positive ions
 #
 # Projectile: positron
 # Kinetic energy = 5.00000E+06 eV = 1.83747E+05 a.u.
 #
 # WARNING: High-energy factorization with free-atom DF screening.
 #          Absorption, polarization and exchange corrections are
 #          switched off.
 #          Phase shifts are calculated for the bare nucleus.
 #          Scattering amplitudes are not evaluated.
 #
 # Element: Er,  Z =  68,  atomic weight = 1.67260E+02 g/mol
 #
 # Nuclear model: Fermi distribution
 #                Average radius = 5.89542E-13 cm
 #                Skin thickness = 5.46000E-14 cm
 #
 # Number of electrons = 68
 #
 # Total elastic cross section = 7.11899E-18 cm**2 = 2.54224E-01 a0**2
 # 1st transport cross section = 1.89778E-22 cm**2 = 6.77710E-06 a0**2
 # 2nd transport cross section = 5.46046E-22 cm**2 = 1.94997E-05 a0**2
 #
 #
 # Differential cross section:                       MU=(1-COS(THETA))/2
 #
 #  THETA        MU          DCS          DCS        Sherman      error
 #  (deg)                 (cm**2/sr)   (a0**2/sr)    function
 #----------------------------------------------------------------------
0.00000E+00 2.19453E-12
7.61557E-13 2.19450E-12
1.18994E-12 2.19448E-12
1.71346E-12 2.19446E-12
2.33225E-12 2.19443E-12
3.04617E-12 2.19440E-12
3.85530E-12 2.19437E-12
4.75964E-12 2.19434E-12
5.75917E-12 2.19430E-12
6.85391E-12 2.19425E-12
8.04379E-12 2.19421E-12
9.32893E-12 2.19415E-12
1.07092E-11 2.19410E-12
1.21847E-11 2.19404E-12
1.37554E-11 2.19398E-12
1.54213E-11 2.19391E-12
1.71823E-11 2.19385E-12
1.90386E-11 2.19377E-12
2.09900E-11 2.19370E-12
2.30367E-11 2.19361E-12
2.51785E-11 2.19353E-12
2.74156E-11 2.19344E-12
2.97478E-11 2.19335E-12
3.21752E-11 2.19326E-12
3.46979E-11 2.19316E-12
3.73157E-11 2.19305E-12
4.00286E-11 2.19295E-12
4.28368E-11 2.19284E-12
4.57402E-11 2.19272E-12
4.87388E-11 2.19261E-12
5.18325E-11 2.19249E-12
5.50215E-11 2.19236E-12
5.83057E-11 2.19223E-12
6.16850E-11 2.19210E-12
6.51595E-11 2.19196E-12
6.87293E-11 2.19182E-12
7.23943E-11 2.19168E-12
7.61544E-11 2.19153E-12
1.18991E-10 2.18986E-12
1.71347E-10 2.18782E-12
2.33223E-10 2.18542E-12
3.04617E-10 2.18265E-12
3.85531E-10 2.17953E-12
4.75965E-10 2.17604E-12
5.75917E-10 2.17220E-12
6.85389E-10 2.16801E-12
8.04380E-10 2.16347E-12
9.32891E-10 2.15858E-12
1.07092E-09 2.15335E-12
1.21847E-09 2.14779E-12
1.37554E-09 2.14190E-12
1.54213E-09 2.13568E-12
1.71823E-09 2.12913E-12
1.90386E-09 2.12227E-12
2.09900E-09 2.11510E-12
2.30367E-09 2.10762E-12
2.51785E-09 2.09985E-12
2.74156E-09 2.09178E-12
2.97478E-09 2.08342E-12
3.21752E-09 2.07478E-12
3.46978E-09 2.06587E-12
3.73156E-09 2.05669E-12
4.00286E-09 2.04725E-12
4.28368E-09 2.03755E-12
4.57402E-09 2.02761E-12
4.87388E-09 2.01743E-12
5.18326E-09 2.00702E-12
5.50215E-09 1.99638E-12
5.83057E-09 1.98553E-12
6.16850E-09 1.97447E-12
6.51596E-09 1.96321E-12
6.87293E-09 1.95175E-12
7.23942E-09 1.94011E-12
7.61544E-09 1.92829E-12
1.18991E-08 1.80196E-12
1.71347E-08 1.66611E-12
2.33223E-08 1.52755E-12
3.04617E-08 1.39178E-12
3.85531E-08 1.26283E-12
4.75965E-08 1.14327E-12
5.75917E-08 1.03442E-12
6.85389E-08 9.36674E-13
8.04380E-08 8.49721E-13
9.32891E-08 7.72845E-13
1.07092E-07 7.05100E-13
1.21847E-07 6.45456E-13
1.37554E-07 5.92893E-13
1.54213E-07 5.46456E-13
1.71823E-07 5.05285E-13
1.90386E-07 4.68625E-13
2.09900E-07 4.35825E-13
2.30367E-07 4.06331E-13
2.51785E-07 3.79675E-13
2.74156E-07 3.55466E-13
2.97478E-07 3.33379E-13
3.21752E-07 3.13139E-13
3.46978E-07 2.94520E-13
3.73156E-07 2.77333E-13
4.00286E-07 2.61418E-13
4.28368E-07 2.46640E-13
4.57402E-07 2.32887E-13
4.87388E-07 2.20062E-13
5.18325E-07 2.08082E-13
5.50215E-07 1.96874E-13
5.83057E-07 1.86376E-13
6.16850E-07 1.76532E-13
6.51596E-07 1.67294E-13
6.87293E-07 1.58618E-13
7.23942E-07 1.50464E-13
7.61543E-07 1.42797E-13
1.18991E-06 8.68183E-14
1.71347E-06 5.52843E-14
2.33223E-06 3.67618E-14
3.04617E-06 2.53534E-14
3.85531E-06 1.80021E-14
4.75964E-06 1.30837E-14
5.75916E-06 9.69569E-15
6.85388E-06 7.30902E-15
8.04378E-06 5.59748E-15
9.32888E-06 4.35117E-15
1.07092E-05 3.43075E-15
1.21846E-05 2.74171E-15
1.37553E-05 2.21890E-15
1.54212E-05 1.81691E-15
1.71822E-05 1.50377E-15
1.90385E-05 1.25678E-15
2.09899E-05 1.05959E-15
2.30365E-05 9.00407E-16
2.51783E-05 7.70567E-16
2.74153E-05 6.63654E-16
2.97475E-05 5.74860E-16
3.21749E-05 5.00538E-16
3.46974E-05 4.37891E-16
3.73152E-05 3.84749E-16
4.00281E-05 3.39410E-16
4.28362E-05 3.00528E-16
4.57395E-05 2.67023E-16
4.87380E-05 2.38025E-16
5.18317E-05 2.12828E-16
5.50205E-05 1.90851E-16
5.83045E-05 1.71615E-16
6.16838E-05 1.54724E-16
6.51582E-05 1.39845E-16
6.87277E-05 1.26700E-16
7.23925E-05 1.15055E-16
7.61524E-05 1.04710E-16
9.21439E-05 7.33063E-17
1.09658E-04 5.28246E-17
1.28695E-04 3.90206E-17
1.49255E-04 2.94471E-17
1.71338E-04 2.26397E-17
1.94942E-04 1.76919E-17
2.20070E-04 1.40256E-17
2.46720E-04 1.12621E-17
2.74892E-04 9.14686E-18
3.04586E-04 7.50558E-18
3.35803E-04 6.21621E-18
3.68542E-04 5.19188E-18
4.02802E-04 4.36980E-18
4.38585E-04 3.70386E-18
4.75889E-04 3.15979E-18
5.14715E-04 2.71179E-18
5.55063E-04 2.34021E-18
5.96931E-04 2.02995E-18
6.40321E-04 1.76927E-18
6.85233E-04 1.54898E-18
7.31665E-04 1.36181E-18
7.79618E-04 1.20198E-18
8.29092E-04 1.06483E-18
8.80086E-04 9.46628E-19
9.32601E-04 8.44322E-19
9.86636E-04 7.55423E-19
1.04219E-03 6.77881E-19
1.09927E-03 6.10004E-19
1.15786E-03 5.50385E-19
1.21797E-03 4.97852E-19
1.27961E-03 4.51419E-19
1.34276E-03 4.10259E-19
1.40743E-03 3.73670E-19
1.47362E-03 3.41058E-19
1.54133E-03 3.11917E-19
1.61056E-03 2.85814E-19
1.68131E-03 2.62378E-19
1.75357E-03 2.41288E-19
1.82735E-03 2.22269E-19
1.90265E-03 2.05082E-19
1.97947E-03 1.89520E-19
2.05780E-03 1.75402E-19
2.13765E-03 1.62571E-19
2.21902E-03 1.50889E-19
2.30190E-03 1.40234E-19
2.38630E-03 1.30501E-19
2.47222E-03 1.21595E-19
2.55965E-03 1.13434E-19
2.64859E-03 1.05943E-19
2.73905E-03 9.90595E-20
2.83103E-03 9.27238E-20
2.92452E-03 8.68851E-20
3.01952E-03 8.14972E-20
3.11604E-03 7.65191E-20
3.21407E-03 7.19141E-20
3.31362E-03 6.76491E-20
3.41468E-03 6.36944E-20
3.51725E-03 6.00236E-20
3.62133E-03 5.66123E-20
3.72692E-03 5.34390E-20
3.83403E-03 5.04842E-20
3.94265E-03 4.77299E-20
4.05278E-03 4.51601E-20
4.16442E-03 4.27603E-20
4.27757E-03 4.05171E-20
4.39223E-03 3.84185E-20
4.50840E-03 3.64533E-20
4.62608E-03 3.46117E-20
4.74527E-03 3.28844E-20
4.86597E-03 3.12629E-20
4.98817E-03 2.97397E-20
5.11188E-03 2.83078E-20
5.23711E-03 2.69605E-20
5.36383E-03 2.56921E-20
5.49207E-03 2.44970E-20
5.62181E-03 2.33702E-20
5.75306E-03 2.23071E-20
5.88581E-03 2.13035E-20
6.02007E-03 2.03554E-20
6.15583E-03 1.94592E-20
6.29310E-03 1.86115E-20
6.43187E-03 1.78091E-20
6.57214E-03 1.70494E-20
6.71392E-03 1.63294E-20
6.85720E-03 1.56469E-20
7.00198E-03 1.49994E-20
7.14827E-03 1.43849E-20
7.29605E-03 1.38013E-20
7.44534E-03 1.32469E-20
7.59612E-03 1.27198E-20
7.97965E-03 1.15118E-20
8.37255E-03 1.04430E-20
8.77480E-03 9.49461E-21
9.18641E-03 8.65084E-21
9.60736E-03 7.89817E-21
1.00376E-02 7.22508E-21
1.04773E-02 6.62171E-21
1.09262E-02 6.07960E-21
1.13844E-02 5.59147E-21
1.18520E-02 5.15102E-21
1.23288E-02 4.75278E-21
1.28150E-02 4.39202E-21
1.33104E-02 4.06459E-21
1.38150E-02 3.76688E-21
1.43290E-02 3.49573E-21
1.48521E-02 3.24835E-21
1.53845E-02 3.02229E-21
1.59262E-02 2.81541E-21
1.64770E-02 2.62578E-21
1.70371E-02 2.45172E-21
1.76063E-02 2.29172E-21
1.81848E-02 2.14445E-21
1.87724E-02 2.00872E-21
1.93692E-02 1.88347E-21
1.99751E-02 1.76774E-21
2.05901E-02 1.66069E-21
2.12143E-02 1.56154E-21
2.18476E-02 1.46962E-21
2.24900E-02 1.38429E-21
2.31415E-02 1.30501E-21
2.38021E-02 1.23127E-21
2.44717E-02 1.16262E-21
2.51504E-02 1.09864E-21
2.58382E-02 1.03895E-21
2.65349E-02 9.83223E-22
2.72407E-02 9.31144E-22
2.79555E-02 8.82432E-22
2.86793E-02 8.36830E-22
2.94120E-02 7.94106E-22
3.01537E-02 7.54044E-22
3.09043E-02 7.16450E-22
3.16639E-02 6.81144E-22
3.24324E-02 6.47962E-22
3.32098E-02 6.16754E-22
3.39961E-02 5.87381E-22
3.47912E-02 5.59716E-22
3.55952E-02 5.33642E-22
3.64081E-02 5.09050E-22
3.72297E-02 4.85843E-22
3.80602E-02 4.63927E-22
3.88995E-02 4.43219E-22
3.97476E-02 4.23639E-22
4.06044E-02 4.05115E-22
4.14700E-02 3.87580E-22
4.23443E-02 3.70972E-22
4.32273E-02 3.55233E-22
4.41190E-02 3.40309E-22
4.50194E-02 3.26150E-22
4.59284E-02 3.12711E-22
4.68461E-02 2.99948E-22
4.87074E-02 2.76292E-22
5.06030E-02 2.54893E-22
5.25328E-02 2.35500E-22
5.44967E-02 2.17892E-22
5.64946E-02 2.01877E-22
5.85262E-02 1.87287E-22
6.05914E-02 1.73973E-22
6.26901E-02 1.61805E-22
6.48222E-02 1.50667E-22
6.69873E-02 1.40457E-22
6.91854E-02 1.31084E-22
7.14163E-02 1.22469E-22
7.36799E-02 1.14539E-22
7.59760E-02 1.07230E-22
7.83043E-02 1.00486E-22
8.06647E-02 9.42548E-23
8.30571E-02 8.84915E-23
8.54812E-02 8.31546E-23
8.79369E-02 7.82073E-23
9.04240E-02 7.36161E-23
9.29422E-02 6.93509E-23
9.54915E-02 6.53847E-23
9.80716E-02 6.16927E-23
1.00682E-01 5.82530E-23
1.03323E-01 5.50451E-23
1.05995E-01 5.20509E-23
1.08696E-01 4.92535E-23
1.11427E-01 4.66379E-23
1.14188E-01 4.41901E-23
1.16978E-01 4.18975E-23
1.19797E-01 3.97486E-23
1.22645E-01 3.77328E-23
1.25522E-01 3.58405E-23
1.28428E-01 3.40628E-23
1.31361E-01 3.23915E-23
1.34323E-01 3.08192E-23
1.37313E-01 2.93390E-23
1.40330E-01 2.79445E-23
1.43375E-01 2.66299E-23
1.46447E-01 2.53900E-23
1.49545E-01 2.42196E-23
1.52671E-01 2.31142E-23
1.55823E-01 2.20696E-23
1.59001E-01 2.10818E-23
1.62205E-01 2.01473E-23
1.65435E-01 1.92626E-23
1.68690E-01 1.84247E-23
1.71970E-01 1.76306E-23
1.75276E-01 1.68777E-23
1.78606E-01 1.61634E-23
1.81961E-01 1.54855E-23
1.85340E-01 1.48417E-23
1.88743E-01 1.42300E-23
1.92169E-01 1.36486E-23
1.95619E-01 1.30957E-23
1.99092E-01 1.25697E-23
2.02589E-01 1.20690E-23
2.06107E-01 1.15922E-23
2.09649E-01 1.11379E-23
2.13212E-01 1.07050E-23
2.16797E-01 1.02922E-23
2.20404E-01 9.89847E-24
2.24032E-01 9.52273E-24
2.27680E-01 9.16403E-24
2.31350E-01 8.82148E-24
2.35040E-01 8.49421E-24
2.38751E-01 8.18143E-24
2.42481E-01 7.88239E-24
2.46231E-01 7.59637E-24
2.50000E-01 7.32273E-24
2.53788E-01 7.06081E-24
2.57595E-01 6.81005E-24
2.61421E-01 6.56988E-24
2.65264E-01 6.33977E-24
2.69126E-01 6.11924E-24
2.73005E-01 5.90782E-24
2.76901E-01 5.70507E-24
2.80814E-01 5.51056E-24
2.84744E-01 5.32391E-24
2.88691E-01 5.14475E-24
2.92653E-01 4.97272E-24
2.96632E-01 4.80749E-24
3.00625E-01 4.64875E-24
3.04634E-01 4.49620E-24
3.08658E-01 4.34956E-24
3.12697E-01 4.20855E-24
3.16749E-01 4.07293E-24
3.20816E-01 3.94246E-24
3.24896E-01 3.81690E-24
3.28990E-01 3.69604E-24
3.33097E-01 3.57968E-24
3.37216E-01 3.46761E-24
3.41348E-01 3.35966E-24
3.45492E-01 3.25565E-24
3.49647E-01 3.15540E-24
3.53814E-01 3.05876E-24
3.57992E-01 2.96558E-24
3.62181E-01 2.87571E-24
3.66381E-01 2.78902E-24
3.70590E-01 2.70537E-24
3.74810E-01 2.62464E-24
3.79039E-01 2.54671E-24
3.83277E-01 2.47147E-24
3.87524E-01 2.39880E-24
3.91780E-01 2.32862E-24
3.96044E-01 2.26081E-24
4.00316E-01 2.19528E-24
4.04596E-01 2.13195E-24
4.08882E-01 2.07072E-24
4.13176E-01 2.01153E-24
4.17476E-01 1.95428E-24
4.21783E-01 1.89890E-24
4.26095E-01 1.84532E-24
4.30413E-01 1.79348E-24
4.34737E-01 1.74331E-24
4.39065E-01 1.69474E-24
4.43398E-01 1.64772E-24
4.47736E-01 1.60219E-24
4.52077E-01 1.55809E-24
4.56422E-01 1.51537E-24
4.60770E-01 1.47399E-24
4.65122E-01 1.43388E-24
4.69476E-01 1.39501E-24
4.73832E-01 1.35734E-24
4.78190E-01 1.32081E-24
4.82550E-01 1.28540E-24
4.86912E-01 1.25105E-24
4.91274E-01 1.21773E-24
4.95637E-01 1.18542E-24
5.00000E-01 1.15406E-24
5.04363E-01 1.12363E-24
5.08726E-01 1.09410E-24
5.13088E-01 1.06543E-24
5.17450E-01 1.03760E-24
5.21810E-01 1.01058E-24
5.26168E-01 9.84344E-25
5.30524E-01 9.58859E-25
5.34878E-01 9.34104E-25
5.39230E-01 9.10054E-25
5.43578E-01 8.86687E-25
5.47923E-01 8.63980E-25
5.52264E-01 8.41911E-25
5.56602E-01 8.20460E-25
5.60935E-01 7.99606E-25
5.65263E-01 7.79331E-25
5.69587E-01 7.59616E-25
5.73905E-01 7.40443E-25
5.78217E-01 7.21795E-25
5.82524E-01 7.03655E-25
5.86824E-01 6.86008E-25
5.91118E-01 6.68838E-25
5.95404E-01 6.52130E-25
5.99684E-01 6.35869E-25
6.03956E-01 6.20043E-25
6.08220E-01 6.04638E-25
6.12476E-01 5.89640E-25
6.16723E-01 5.75038E-25
6.20961E-01 5.60820E-25
6.25190E-01 5.46974E-25
6.29410E-01 5.33488E-25
6.33619E-01 5.20353E-25
6.37819E-01 5.07557E-25
6.42008E-01 4.95091E-25
6.46186E-01 4.82945E-25
6.50353E-01 4.71109E-25
6.54508E-01 4.59575E-25
6.58652E-01 4.48334E-25
6.62784E-01 4.37377E-25
6.66903E-01 4.26696E-25
6.71010E-01 4.16283E-25
6.75104E-01 4.06131E-25
6.79184E-01 3.96233E-25
6.83251E-01 3.86580E-25
6.87303E-01 3.77166E-25
6.91342E-01 3.67985E-25
6.95366E-01 3.59029E-25
6.99375E-01 3.50293E-25
7.03368E-01 3.41771E-25
7.07347E-01 3.33456E-25
7.11309E-01 3.25344E-25
7.15256E-01 3.17428E-25
7.19186E-01 3.09702E-25
7.23099E-01 3.02163E-25
7.26995E-01 2.94805E-25
7.30874E-01 2.87623E-25
7.34736E-01 2.80612E-25
7.38579E-01 2.73769E-25
7.42405E-01 2.67087E-25
7.46212E-01 2.60564E-25
7.50000E-01 2.54194E-25
7.53769E-01 2.47975E-25
7.57519E-01 2.41902E-25
7.61249E-01 2.35971E-25
7.64960E-01 2.30178E-25
7.68650E-01 2.24521E-25
7.72320E-01 2.18995E-25
7.75968E-01 2.13597E-25
7.79596E-01 2.08325E-25
7.83203E-01 2.03174E-25
7.86788E-01 1.98142E-25
7.90351E-01 1.93226E-25
7.93893E-01 1.88423E-25
7.97411E-01 1.83730E-25
8.00908E-01 1.79144E-25
8.04381E-01 1.74663E-25
8.07831E-01 1.70284E-25
8.11257E-01 1.66005E-25
8.14660E-01 1.61824E-25
8.18039E-01 1.57737E-25
8.21394E-01 1.53743E-25
8.24724E-01 1.49840E-25
8.28030E-01 1.46025E-25
8.31310E-01 1.42296E-25
8.34565E-01 1.38651E-25
8.37795E-01 1.35088E-25
8.40999E-01 1.31605E-25
8.44177E-01 1.28201E-25
8.47329E-01 1.24874E-25
8.50455E-01 1.21622E-25
8.53553E-01 1.18443E-25
8.56625E-01 1.15335E-25
8.59670E-01 1.12297E-25
8.62687E-01 1.09328E-25
8.65677E-01 1.06425E-25
8.68639E-01 1.03588E-25
8.71572E-01 1.00815E-25
8.74478E-01 9.81043E-26
8.77355E-01 9.54548E-26
8.80203E-01 9.28650E-26
8.83022E-01 9.03338E-26
8.85812E-01 8.78599E-26
8.88573E-01 8.54420E-26
8.91304E-01 8.30790E-26
8.94005E-01 8.07697E-26
8.96677E-01 7.85131E-26
8.99318E-01 7.63079E-26
9.01928E-01 7.41532E-26
9.04508E-01 7.20479E-26
9.07058E-01 6.99910E-26
9.09576E-01 6.79816E-26
9.12063E-01 6.60187E-26
9.14519E-01 6.41013E-26
9.16943E-01 6.22286E-26
9.19335E-01 6.03997E-26
9.21696E-01 5.86138E-26
9.24024E-01 5.68700E-26
9.26320E-01 5.51675E-26
9.28584E-01 5.35056E-26
9.30815E-01 5.18835E-26
9.33013E-01 5.03004E-26
9.35178E-01 4.87557E-26
9.37310E-01 4.72486E-26
9.39409E-01 4.57785E-26
9.41474E-01 4.43448E-26
9.43505E-01 4.29467E-26
9.45503E-01 4.15836E-26
9.47467E-01 4.02550E-26
9.49397E-01 3.89603E-26
9.51293E-01 3.76989E-26
9.53154E-01 3.64702E-26
9.54981E-01 3.52738E-26
9.56773E-01 3.41090E-26
9.58530E-01 3.29754E-26
9.60252E-01 3.18726E-26
9.61940E-01 3.07999E-26
9.63592E-01 2.97571E-26
9.65209E-01 2.87436E-26
9.66790E-01 2.77589E-26
9.68336E-01 2.68027E-26
9.69846E-01 2.58746E-26
9.71321E-01 2.49742E-26
9.72759E-01 2.41011E-26
9.74162E-01 2.32549E-26
9.75528E-01 2.24353E-26
9.76858E-01 2.16419E-26
9.78152E-01 2.08745E-26
9.79410E-01 2.01326E-26
9.80631E-01 1.94160E-26
9.81815E-01 1.87244E-26
9.82963E-01 1.80574E-26
9.84074E-01 1.74149E-26
9.85148E-01 1.67966E-26
9.86185E-01 1.62021E-26
9.87185E-01 1.56314E-26
9.88148E-01 1.50840E-26
9.89074E-01 1.45598E-26
9.89962E-01 1.40587E-26
9.90814E-01 1.35803E-26
9.91627E-01 1.31245E-26
9.92404E-01 1.26911E-26
9.93143E-01 1.22800E-26
9.93844E-01 1.18909E-26
9.94508E-01 1.15238E-26
9.95134E-01 1.11783E-26
9.95722E-01 1.08546E-26
9.96273E-01 1.05523E-26
9.96786E-01 1.02713E-26
9.97261E-01 1.00117E-26
9.97698E-01 9.77316E-27
9.98097E-01 9.55571E-27
9.98459E-01 9.35922E-27
9.98782E-01 9.18363E-27
9.99067E-01 9.02886E-27
9.99315E-01 8.89485E-27
9.99524E-01 8.78155E-27
9.99695E-01 8.68891E-27
9.99829E-01 8.61690E-27
9.99924E-01 8.56548E-27
9.99981E-01 8.53464E-27
1.00000E+00 8.52436E-27
