 #
 # Subroutine ELSEPA. Elastic scattering of electrons and positrons
 #                    by neutral atoms and positive ions
 #
 # Projectile: positron
 # Kinetic energy = 3.50000E+08 eV = 1.28623E+07 a.u.
 #
 # WARNING: High-energy factorization with free-atom DF screening.
 #          Absorption, polarization and exchange corrections are
 #          switched off.
 #          Phase shifts are calculated for the bare nucleus.
 #          Scattering amplitudes are not evaluated.
 #
 # Element: Er,  Z =  68,  atomic weight = 1.67260E+02 g/mol
 #
 # Nuclear model: Fermi distribution
 #                Average radius = 5.89542E-13 cm
 #                Skin thickness = 5.46000E-14 cm
 #
 # Number of electrons = 68
 #
 # Total elastic cross section = 7.05187E-18 cm**2 = 2.51827E-01 a0**2
 # 1st transport cross section = 7.13572E-26 cm**2 = 2.54821E-09 a0**2
 # 2nd transport cross section = 2.13898E-25 cm**2 = 7.63842E-09 a0**2
 #
 #
 # Differential cross section:                       MU=(1-COS(THETA))/2
 #
 #  THETA        MU          DCS          DCS        Sherman      error
 #  (deg)                 (cm**2/sr)   (a0**2/sr)    function
 #----------------------------------------------------------------------
0.00000E+00 8.87736E-09
7.61557E-13 8.40916E-09
1.18994E-12 8.16397E-09
1.71346E-12 7.88053E-09
2.33225E-12 7.56771E-09
3.04617E-12 7.23126E-09
3.85530E-12 6.88147E-09
4.75964E-12 6.52459E-09
5.75917E-12 6.16544E-09
6.85391E-12 5.81378E-09
8.04379E-12 5.47023E-09
9.32893E-12 5.13849E-09
1.07092E-11 4.82450E-09
1.21847E-11 4.52582E-09
1.37554E-11 4.24532E-09
1.54213E-11 3.98419E-09
1.71823E-11 3.73984E-09
1.90386E-11 3.51421E-09
2.09900E-11 3.30549E-09
2.30367E-11 3.11186E-09
2.51785E-11 2.93447E-09
2.74156E-11 2.77040E-09
2.97478E-11 2.61878E-09
3.21752E-11 2.47967E-09
3.46979E-11 2.35077E-09
3.73157E-11 2.23168E-09
4.00286E-11 2.12158E-09
4.28368E-11 2.01933E-09
4.57402E-11 1.92444E-09
4.87388E-11 1.83606E-09
5.18325E-11 1.75369E-09
5.50215E-11 1.67664E-09
5.83057E-11 1.60447E-09
6.16850E-11 1.53692E-09
6.51595E-11 1.47312E-09
6.87293E-11 1.41316E-09
7.23943E-11 1.35666E-09
7.61544E-11 1.30300E-09
1.18991E-10 8.93746E-10
1.71347E-10 6.30983E-10
2.33223E-10 4.48129E-10
3.04617E-10 3.32420E-10
3.85531E-10 2.47977E-10
4.75965E-10 1.89043E-10
5.75917E-10 1.47295E-10
6.85389E-10 1.15390E-10
8.04380E-10 9.19906E-11
9.32891E-10 7.42695E-11
1.07092E-09 6.02505E-11
1.21847E-09 4.94683E-11
1.37554E-09 4.08982E-11
1.54213E-09 3.40065E-11
1.71823E-09 2.85226E-11
1.90386E-09 2.40393E-11
2.09900E-09 2.03903E-11
2.30367E-09 1.74154E-11
2.51785E-09 1.49399E-11
2.74156E-09 1.28964E-11
2.97478E-09 1.11961E-11
3.21752E-09 9.76248E-12
3.46978E-09 8.55872E-12
3.73156E-09 7.53832E-12
4.00286E-09 6.66716E-12
4.28368E-09 5.92346E-12
4.57402E-09 5.28365E-12
4.87388E-09 4.72773E-12
5.18326E-09 4.24494E-12
5.50215E-09 3.82294E-12
5.83057E-09 3.45383E-12
6.16850E-09 3.12999E-12
6.51596E-09 2.84316E-12
6.87293E-09 2.58958E-12
7.23942E-09 2.36427E-12
7.61544E-09 2.16263E-12
1.18991E-08 9.74900E-13
1.71347E-08 4.99905E-13
2.33223E-08 2.81236E-13
3.04617E-08 1.70092E-13
3.85531E-08 1.08858E-13
4.75965E-08 7.29090E-14
5.75917E-08 5.06466E-14
6.85389E-08 3.62854E-14
8.04380E-08 2.66723E-14
9.32891E-08 2.00427E-14
1.07092E-07 1.53512E-14
1.21847E-07 1.19529E-14
1.37554E-07 9.44474E-15
1.54213E-07 7.55998E-15
1.71823E-07 6.12207E-15
1.90386E-07 5.00992E-15
2.09900E-07 4.13860E-15
2.30367E-07 3.44859E-15
2.51785E-07 2.89630E-15
2.74156E-07 2.45017E-15
2.97478E-07 2.08665E-15
3.21752E-07 1.78803E-15
3.46978E-07 1.54096E-15
3.73156E-07 1.33510E-15
4.00286E-07 1.16249E-15
4.28368E-07 1.01689E-15
4.57402E-07 8.93383E-16
4.87388E-07 7.88078E-16
5.18325E-07 6.97839E-16
5.50215E-07 6.20158E-16
5.83057E-07 5.52995E-16
6.16850E-07 4.94683E-16
6.51596E-07 4.43864E-16
6.87293E-07 3.99406E-16
7.23942E-07 3.60380E-16
7.61543E-07 3.26008E-16
1.18991E-06 1.34629E-16
1.71347E-06 6.52789E-17
2.33223E-06 3.53665E-17
3.04617E-06 2.07847E-17
3.85531E-06 1.29995E-17
4.75964E-06 8.54016E-18
5.75916E-06 5.83861E-18
6.85388E-06 4.12532E-18
8.04378E-06 2.99662E-18
9.32888E-06 2.22871E-18
1.07092E-05 1.69168E-18
1.21846E-05 1.30702E-18
1.37553E-05 1.02570E-18
1.54212E-05 8.16131E-19
1.71822E-05 6.57431E-19
1.90385E-05 5.35233E-19
2.09899E-05 4.40579E-19
2.30365E-05 3.65893E-19
2.51783E-05 3.06300E-19
2.74153E-05 2.58296E-19
2.97475E-05 2.19303E-19
3.21749E-05 1.87393E-19
3.46974E-05 1.61092E-19
3.73152E-05 1.39264E-19
4.00281E-05 1.21022E-19
4.28362E-05 1.05677E-19
4.57395E-05 9.26866E-20
4.87380E-05 8.16272E-20
5.18317E-05 7.21631E-20
5.50205E-05 6.40274E-20
5.83045E-05 5.70043E-20
6.16838E-05 5.09183E-20
6.51582E-05 4.56242E-20
6.87277E-05 4.10020E-20
7.23925E-05 3.69513E-20
7.61524E-05 3.35634E-20
9.21439E-05 2.29266E-20
1.09658E-04 1.61873E-20
1.28695E-04 1.17524E-20
1.49255E-04 8.73599E-21
1.71338E-04 6.62787E-21
1.94942E-04 5.11827E-21
2.20070E-04 4.01438E-21
2.46720E-04 3.19211E-21
2.74892E-04 2.56950E-21
3.04586E-04 2.09117E-21
3.35803E-04 1.71877E-21
3.68542E-04 1.42538E-21
4.02802E-04 1.19172E-21
4.38585E-04 1.00379E-21
4.75889E-04 8.51266E-22
5.14715E-04 7.26445E-22
5.55063E-04 6.23512E-22
5.96931E-04 5.38026E-22
6.40321E-04 4.66563E-22
6.85233E-04 4.06457E-22
7.31665E-04 3.55614E-22
7.79618E-04 3.12379E-22
8.29092E-04 2.75429E-22
8.80086E-04 2.43703E-22
9.32601E-04 2.16344E-22
9.86636E-04 1.92652E-22
1.04219E-03 1.72056E-22
1.09927E-03 1.54086E-22
1.15786E-03 1.38353E-22
1.21797E-03 1.24532E-22
1.27961E-03 1.12353E-22
1.34276E-03 1.01590E-22
1.40743E-03 9.20509E-23
1.47362E-03 8.35739E-23
1.54133E-03 7.60218E-23
1.61056E-03 6.92770E-23
1.68131E-03 6.32395E-23
1.75357E-03 5.78230E-23
1.82735E-03 5.29533E-23
1.90265E-03 4.85664E-23
1.97947E-03 4.46068E-23
2.05780E-03 4.10261E-23
2.13765E-03 3.77824E-23
2.21902E-03 3.48388E-23
2.30190E-03 3.21633E-23
2.38630E-03 2.97276E-23
2.47222E-03 2.75068E-23
2.55965E-03 2.54790E-23
2.64859E-03 2.36248E-23
2.73905E-03 2.19272E-23
2.83103E-03 2.03707E-23
2.92452E-03 1.89419E-23
3.01952E-03 1.76288E-23
3.11604E-03 1.64205E-23
3.21407E-03 1.53075E-23
3.31362E-03 1.42810E-23
3.41468E-03 1.33335E-23
3.51725E-03 1.24578E-23
3.62133E-03 1.16478E-23
3.72692E-03 1.08979E-23
3.83403E-03 1.02029E-23
3.94265E-03 9.55821E-24
4.05278E-03 8.95973E-24
4.16442E-03 8.40366E-24
4.27757E-03 7.88657E-24
4.39223E-03 7.40536E-24
4.50840E-03 6.95720E-24
4.62608E-03 6.53950E-24
4.74527E-03 6.14993E-24
4.86597E-03 5.78634E-24
4.98817E-03 5.44676E-24
5.11188E-03 5.12941E-24
5.23711E-03 4.83265E-24
5.36383E-03 4.55496E-24
5.49207E-03 4.29496E-24
5.62181E-03 4.05140E-24
5.75306E-03 3.82310E-24
5.88581E-03 3.60899E-24
6.02007E-03 3.40808E-24
6.15583E-03 3.21946E-24
6.29310E-03 3.04229E-24
6.43187E-03 2.87580E-24
6.57214E-03 2.71927E-24
6.71392E-03 2.57203E-24
6.85720E-03 2.43347E-24
7.00198E-03 2.30303E-24
7.14827E-03 2.18018E-24
7.29605E-03 2.06442E-24
7.44534E-03 1.95531E-24
7.59612E-03 1.85242E-24
7.97965E-03 1.61994E-24
8.37255E-03 1.41858E-24
8.77480E-03 1.24381E-24
9.18641E-03 1.09183E-24
9.60736E-03 9.59434E-25
1.00376E-02 8.43903E-25
1.04773E-02 7.42934E-25
1.09262E-02 6.54564E-25
1.13844E-02 5.77119E-25
1.18520E-02 5.09165E-25
1.23288E-02 4.49471E-25
1.28150E-02 3.96977E-25
1.33104E-02 3.50773E-25
1.38150E-02 3.10067E-25
1.43290E-02 2.74178E-25
1.48521E-02 2.42512E-25
1.53845E-02 2.14555E-25
1.59262E-02 1.89857E-25
1.64770E-02 1.68027E-25
1.70371E-02 1.48724E-25
1.76063E-02 1.31647E-25
1.81848E-02 1.16536E-25
1.87724E-02 1.03159E-25
1.93692E-02 9.13162E-26
1.99751E-02 8.08284E-26
2.05901E-02 7.15398E-26
2.12143E-02 6.33126E-26
2.18476E-02 5.60251E-26
2.24900E-02 4.95702E-26
2.31415E-02 4.38529E-26
2.38021E-02 3.87894E-26
2.44717E-02 3.43055E-26
2.51504E-02 3.03356E-26
2.58382E-02 2.68214E-26
2.65349E-02 2.37113E-26
2.72407E-02 2.09596E-26
2.79555E-02 1.85258E-26
2.86793E-02 1.63737E-26
2.94120E-02 1.44714E-26
3.01537E-02 1.27906E-26
3.09043E-02 1.13060E-26
3.16639E-02 9.99520E-27
3.24324E-02 8.83840E-27
3.32098E-02 7.81790E-27
3.39961E-02 6.91801E-27
3.47912E-02 6.12481E-27
3.55952E-02 5.42592E-27
3.64081E-02 4.81039E-27
3.72297E-02 4.26844E-27
3.80602E-02 3.79146E-27
3.88995E-02 3.37176E-27
3.97476E-02 3.00255E-27
4.06044E-02 2.67781E-27
4.14700E-02 2.39220E-27
4.23443E-02 2.14101E-27
4.32273E-02 1.92005E-27
4.41190E-02 1.72565E-27
4.50194E-02 1.55454E-27
4.59284E-02 1.40383E-27
4.68461E-02 1.27101E-27
4.87074E-02 1.05032E-27
5.06030E-02 8.77643E-28
5.25328E-02 7.41534E-28
5.44967E-02 6.33221E-28
5.64946E-02 5.46006E-28
5.85262E-02 4.74810E-28
6.05914E-02 4.15804E-28
6.26901E-02 3.66121E-28
6.48222E-02 3.23632E-28
6.69873E-02 2.86762E-28
6.91854E-02 2.54361E-28
7.14163E-02 2.25587E-28
7.36799E-02 1.99829E-28
7.59760E-02 1.76645E-28
7.83043E-02 1.55709E-28
8.06647E-02 1.36779E-28
8.30571E-02 1.19671E-28
8.54812E-02 1.04238E-28
8.79369E-02 9.03564E-29
9.04240E-02 7.79197E-29
9.29422E-02 6.68288E-29
9.54915E-02 5.69897E-29
9.80716E-02 4.83112E-29
1.00682E-01 4.07035E-29
1.03323E-01 3.40782E-29
1.05995E-01 2.83484E-29
1.08696E-01 2.34292E-29
1.11427E-01 1.92383E-29
1.14188E-01 1.56969E-29
1.16978E-01 1.27297E-29
1.19797E-01 1.02662E-29
1.22645E-01 8.24069E-30
1.25522E-01 6.59242E-30
1.28428E-01 5.26606E-30
1.31361E-01 4.21160E-30
1.34323E-01 3.38427E-30
1.37313E-01 2.74445E-30
1.40330E-01 2.25743E-30
1.43375E-01 1.89308E-30
1.46447E-01 1.62562E-30
1.49545E-01 1.43318E-30
1.52671E-01 1.29748E-30
1.55823E-01 1.20345E-30
1.59001E-01 1.13887E-30
1.62205E-01 1.09400E-30
1.65435E-01 1.06123E-30
1.68690E-01 1.03480E-30
1.71970E-01 1.01049E-30
1.75276E-01 9.85350E-31
1.78606E-01 9.57453E-31
1.81961E-01 9.25711E-31
1.85340E-01 8.89671E-31
1.88743E-01 8.49365E-31
1.92169E-01 8.05172E-31
1.95619E-01 7.57708E-31
1.99092E-01 7.07733E-31
2.02589E-01 6.56078E-31
2.06107E-01 6.03589E-31
2.09649E-01 5.51080E-31
2.13212E-01 4.99305E-31
2.16797E-01 4.48933E-31
2.20404E-01 4.00538E-31
2.24032E-01 3.54589E-31
2.27680E-01 3.11454E-31
2.31350E-01 2.71400E-31
2.35040E-01 2.34598E-31
2.38751E-01 2.01135E-31
2.42481E-01 1.71023E-31
2.46231E-01 1.44206E-31
2.50000E-01 1.20577E-31
2.53788E-01 9.99834E-32
2.57595E-01 8.22386E-32
2.61421E-01 6.71327E-32
2.65264E-01 5.44391E-32
2.69126E-01 4.39234E-32
2.73005E-01 3.53487E-32
2.76901E-01 2.84818E-32
2.80814E-01 2.30974E-32
2.84744E-01 1.89814E-32
2.88691E-01 1.59339E-32
2.92653E-01 1.37707E-32
2.96632E-01 1.23250E-32
3.00625E-01 1.14471E-32
3.04634E-01 1.10054E-32
3.08658E-01 1.08855E-32
3.12697E-01 1.09895E-32
3.16749E-01 1.12355E-32
3.20816E-01 1.15560E-32
3.24896E-01 1.18967E-32
3.28990E-01 1.22154E-32
3.33097E-01 1.24807E-32
3.37216E-01 1.26700E-32
3.41348E-01 1.27690E-32
3.45492E-01 1.27699E-32
3.49647E-01 1.26706E-32
3.53814E-01 1.24732E-32
3.57992E-01 1.21833E-32
3.62181E-01 1.18091E-32
3.66381E-01 1.13607E-32
3.70590E-01 1.08491E-32
3.74810E-01 1.02862E-32
3.79039E-01 9.68380E-33
3.83277E-01 9.05341E-33
3.87524E-01 8.40611E-33
3.91780E-01 7.75212E-33
3.96044E-01 7.10073E-33
4.00316E-01 6.46020E-33
4.04596E-01 5.83766E-33
4.08882E-01 5.23912E-33
4.13176E-01 4.66947E-33
4.17476E-01 4.13256E-33
4.21783E-01 3.63120E-33
4.26095E-01 3.16729E-33
4.30413E-01 2.74189E-33
4.34737E-01 2.35529E-33
4.39065E-01 2.00716E-33
4.43398E-01 1.69658E-33
4.47736E-01 1.42219E-33
4.52077E-01 1.18225E-33
4.56422E-01 9.74719E-34
4.60770E-01 7.97359E-34
4.65122E-01 6.47780E-34
4.69476E-01 5.23516E-34
4.73832E-01 4.22071E-34
4.78190E-01 3.40974E-34
4.82550E-01 2.77811E-34
4.86912E-01 2.30261E-34
4.91274E-01 1.96121E-34
4.95637E-01 1.73327E-34
5.00000E-01 1.59965E-34
5.04363E-01 1.54282E-34
5.08726E-01 1.54690E-34
5.13088E-01 1.59768E-34
5.17450E-01 1.68261E-34
5.21810E-01 1.79071E-34
5.26168E-01 1.91256E-34
5.30524E-01 2.04015E-34
5.34878E-01 2.16686E-34
5.39230E-01 2.28728E-34
5.43578E-01 2.39715E-34
5.47923E-01 2.49322E-34
5.52264E-01 2.57317E-34
5.56602E-01 2.63546E-34
5.60935E-01 2.67925E-34
5.65263E-01 2.70427E-34
5.69587E-01 2.71079E-34
5.73905E-01 2.69943E-34
5.78217E-01 2.67118E-34
5.82524E-01 2.62726E-34
5.86824E-01 2.56908E-34
5.91118E-01 2.49817E-34
5.95404E-01 2.41616E-34
5.99684E-01 2.32466E-34
6.03956E-01 2.22534E-34
6.08220E-01 2.11978E-34
6.12476E-01 2.00952E-34
6.16723E-01 1.89602E-34
6.20961E-01 1.78063E-34
6.25190E-01 1.66460E-34
6.29410E-01 1.54905E-34
6.33619E-01 1.43500E-34
6.37819E-01 1.32334E-34
6.42008E-01 1.21482E-34
6.46186E-01 1.11010E-34
6.50353E-01 1.00972E-34
6.54508E-01 9.14090E-35
6.58652E-01 8.23556E-35
6.62784E-01 7.38346E-35
6.66903E-01 6.58610E-35
6.71010E-01 5.84426E-35
6.75104E-01 5.15796E-35
6.79184E-01 4.52669E-35
6.83251E-01 3.94939E-35
6.87303E-01 3.42455E-35
6.91342E-01 2.95036E-35
6.95366E-01 2.52456E-35
6.99375E-01 2.14483E-35
7.03368E-01 1.80855E-35
7.07347E-01 1.51302E-35
7.11309E-01 1.25547E-35
7.15256E-01 1.03307E-35
7.19186E-01 8.43007E-36
7.23099E-01 6.82483E-36
7.26995E-01 5.48797E-36
7.30874E-01 4.39299E-36
7.34736E-01 3.51456E-36
7.38579E-01 2.82848E-36
7.42405E-01 2.31182E-36
7.46212E-01 1.94313E-36
7.50000E-01 1.70227E-36
7.53769E-01 1.57069E-36
7.57519E-01 1.53118E-36
7.61249E-01 1.56812E-36
7.64960E-01 1.66713E-36
7.68650E-01 1.81547E-36
7.72320E-01 2.00160E-36
7.75968E-01 2.21525E-36
7.79596E-01 2.44746E-36
7.83203E-01 2.69030E-36
7.86788E-01 2.93704E-36
7.90351E-01 3.18183E-36
7.93893E-01 3.41982E-36
7.97411E-01 3.64696E-36
8.00908E-01 3.85997E-36
8.04381E-01 4.05630E-36
8.07831E-01 4.23393E-36
8.11257E-01 4.39151E-36
8.14660E-01 4.52810E-36
8.18039E-01 4.64319E-36
8.21394E-01 4.73668E-36
8.24724E-01 4.80873E-36
8.28030E-01 4.85986E-36
8.31310E-01 4.89065E-36
8.34565E-01 4.90202E-36
8.37795E-01 4.89505E-36
8.40999E-01 4.87075E-36
8.44177E-01 4.83040E-36
8.47329E-01 4.77522E-36
8.50455E-01 4.70647E-36
8.53553E-01 4.62553E-36
8.56625E-01 4.53358E-36
8.59670E-01 4.43206E-36
8.62687E-01 4.32207E-36
8.65677E-01 4.20494E-36
8.68639E-01 4.08164E-36
8.71572E-01 3.95346E-36
8.74478E-01 3.82132E-36
8.77355E-01 3.68630E-36
8.80203E-01 3.54918E-36
8.83022E-01 3.41080E-36
8.85812E-01 3.27198E-36
8.88573E-01 3.13342E-36
8.91304E-01 2.99575E-36
8.94005E-01 2.85950E-36
8.96677E-01 2.72519E-36
8.99318E-01 2.59324E-36
9.01928E-01 2.46406E-36
9.04508E-01 2.33801E-36
9.07058E-01 2.21528E-36
9.09576E-01 2.09620E-36
9.12063E-01 1.98088E-36
9.14519E-01 1.86955E-36
9.16943E-01 1.76223E-36
9.19335E-01 1.65905E-36
9.21696E-01 1.56005E-36
9.24024E-01 1.46526E-36
9.26320E-01 1.37463E-36
9.28584E-01 1.28816E-36
9.30815E-01 1.20585E-36
9.33013E-01 1.12755E-36
9.35178E-01 1.05324E-36
9.37310E-01 9.82757E-37
9.39409E-01 9.16069E-37
9.41474E-01 8.53060E-37
9.43505E-01 7.93568E-37
9.45503E-01 7.37508E-37
9.47467E-01 6.84732E-37
9.49397E-01 6.35117E-37
9.51293E-01 5.88508E-37
9.53154E-01 5.44822E-37
9.54981E-01 5.03880E-37
9.56773E-01 4.65593E-37
9.58530E-01 4.29801E-37
9.60252E-01 3.96380E-37
9.61940E-01 3.65218E-37
9.63592E-01 3.36148E-37
9.65209E-01 3.09131E-37
9.66790E-01 2.83993E-37
9.68336E-01 2.60621E-37
9.69846E-01 2.38939E-37
9.71321E-01 2.18843E-37
9.72759E-01 2.00222E-37
9.74162E-01 1.82969E-37
9.75528E-01 1.67018E-37
9.76858E-01 1.52271E-37
9.78152E-01 1.38668E-37
9.79410E-01 1.26128E-37
9.80631E-01 1.14538E-37
9.81815E-01 1.03885E-37
9.82963E-01 9.40598E-38
9.84074E-01 8.50360E-38
9.85148E-01 7.67428E-38
9.86185E-01 6.91413E-38
9.87185E-01 6.21537E-38
9.88148E-01 5.57554E-38
9.89074E-01 4.99032E-38
9.89962E-01 4.45260E-38
9.90814E-01 3.96299E-38
9.91627E-01 3.51539E-38
9.92404E-01 3.10752E-38
9.93143E-01 2.73466E-38
9.93844E-01 2.39627E-38
9.94508E-01 2.09075E-38
9.95134E-01 1.81212E-38
9.95722E-01 1.56020E-38
9.96273E-01 1.33204E-38
9.96786E-01 1.12801E-38
9.97261E-01 9.45644E-39
9.97698E-01 7.81800E-39
9.98097E-01 6.37083E-39
9.98459E-01 5.09504E-39
9.98782E-01 3.98105E-39
9.99067E-01 3.01498E-39
9.99315E-01 2.19520E-39
9.99524E-01 1.51896E-39
9.99695E-01 9.66380E-40
9.99829E-01 5.43622E-40
9.99924E-01 2.44451E-40
9.99981E-01 6.43698E-41
1.00000E+00 9.68723E-42
