 #
 # Subroutine ELSEPA. Elastic scattering of electrons and positrons
 #                    by neutral atoms and positive ions
 #
 # Projectile: positron
 # Kinetic energy = 1.75000E+06 eV = 6.43113E+04 a.u.
 #
 # WARNING: High-energy factorization with free-atom DF screening.
 #          Absorption, polarization and exchange corrections are
 #          switched off.
 #          Phase shifts are calculated for the bare nucleus.
 #          Scattering amplitudes are not evaluated.
 #
 # Element: Er,  Z =  68,  atomic weight = 1.67260E+02 g/mol
 #
 # Nuclear model: Fermi distribution
 #                Average radius = 5.89542E-13 cm
 #                Skin thickness = 5.46000E-14 cm
 #
 # Number of electrons = 68
 #
 # Total elastic cross section = 7.41670E-18 cm**2 = 2.64855E-01 a0**2
 # 1st transport cross section = 1.00512E-21 cm**2 = 3.58934E-05 a0**2
 # 2nd transport cross section = 2.85318E-21 cm**2 = 1.01889E-04 a0**2
 #
 #
 # Differential cross section:                       MU=(1-COS(THETA))/2
 #
 #  THETA        MU          DCS          DCS        Sherman      error
 #  (deg)                 (cm**2/sr)   (a0**2/sr)    function
 #----------------------------------------------------------------------
0.00000E+00 3.69387E-13
7.61557E-13 3.69386E-13
1.18994E-12 3.69385E-13
1.71346E-12 3.69385E-13
2.33225E-12 3.69384E-13
3.04617E-12 3.69383E-13
3.85530E-12 3.69382E-13
4.75964E-12 3.69381E-13
5.75917E-12 3.69380E-13
6.85391E-12 3.69379E-13
8.04379E-12 3.69377E-13
9.32893E-12 3.69376E-13
1.07092E-11 3.69374E-13
1.21847E-11 3.69373E-13
1.37554E-11 3.69371E-13
1.54213E-11 3.69369E-13
1.71823E-11 3.69367E-13
1.90386E-11 3.69365E-13
2.09900E-11 3.69363E-13
2.30367E-11 3.69360E-13
2.51785E-11 3.69358E-13
2.74156E-11 3.69356E-13
2.97478E-11 3.69353E-13
3.21752E-11 3.69350E-13
3.46979E-11 3.69348E-13
3.73157E-11 3.69345E-13
4.00286E-11 3.69342E-13
4.28368E-11 3.69339E-13
4.57402E-11 3.69336E-13
4.87388E-11 3.69332E-13
5.18325E-11 3.69329E-13
5.50215E-11 3.69326E-13
5.83057E-11 3.69322E-13
6.16850E-11 3.69318E-13
6.51595E-11 3.69315E-13
6.87293E-11 3.69311E-13
7.23943E-11 3.69307E-13
7.61544E-11 3.69303E-13
1.18991E-10 3.69257E-13
1.71347E-10 3.69200E-13
2.33223E-10 3.69134E-13
3.04617E-10 3.69058E-13
3.85531E-10 3.68972E-13
4.75965E-10 3.68876E-13
5.75917E-10 3.68769E-13
6.85389E-10 3.68653E-13
8.04380E-10 3.68527E-13
9.32891E-10 3.68391E-13
1.07092E-09 3.68245E-13
1.21847E-09 3.68089E-13
1.37554E-09 3.67923E-13
1.54213E-09 3.67748E-13
1.71823E-09 3.67562E-13
1.90386E-09 3.67367E-13
2.09900E-09 3.67162E-13
2.30367E-09 3.66947E-13
2.51785E-09 3.66723E-13
2.74156E-09 3.66488E-13
2.97478E-09 3.66244E-13
3.21752E-09 3.65991E-13
3.46978E-09 3.65728E-13
3.73156E-09 3.65455E-13
4.00286E-09 3.65173E-13
4.28368E-09 3.64881E-13
4.57402E-09 3.64580E-13
4.87388E-09 3.64270E-13
5.18326E-09 3.63950E-13
5.50215E-09 3.63620E-13
5.83057E-09 3.63282E-13
6.16850E-09 3.62934E-13
6.51596E-09 3.62577E-13
6.87293E-09 3.62211E-13
7.23942E-09 3.61836E-13
7.61544E-09 3.61452E-13
1.18991E-08 3.57124E-13
1.71347E-08 3.51955E-13
2.33223E-08 3.46009E-13
3.04617E-08 3.39358E-13
3.85531E-08 3.32082E-13
4.75965E-08 3.24264E-13
5.75917E-08 3.16022E-13
6.85389E-08 3.07353E-13
8.04380E-08 2.98414E-13
9.32891E-08 2.89268E-13
1.07092E-07 2.79922E-13
1.21847E-07 2.70611E-13
1.37554E-07 2.61217E-13
1.54213E-07 2.51913E-13
1.71823E-07 2.42722E-13
1.90386E-07 2.33609E-13
2.09900E-07 2.24805E-13
2.30367E-07 2.16131E-13
2.51785E-07 2.07746E-13
2.74156E-07 1.99632E-13
2.97478E-07 1.91733E-13
3.21752E-07 1.84235E-13
3.46978E-07 1.76954E-13
3.73156E-07 1.70013E-13
4.00286E-07 1.63374E-13
4.28368E-07 1.56980E-13
4.57402E-07 1.50963E-13
4.87388E-07 1.45168E-13
5.18325E-07 1.39681E-13
5.50215E-07 1.34460E-13
5.83057E-07 1.29461E-13
6.16850E-07 1.24764E-13
6.51596E-07 1.20260E-13
6.87293E-07 1.16000E-13
7.23942E-07 1.11952E-13
7.61543E-07 1.08085E-13
1.18991E-06 7.84382E-14
1.71347E-06 5.94726E-14
2.33223E-06 4.63768E-14
3.04617E-06 3.67786E-14
3.85531E-06 2.94860E-14
4.75964E-06 2.38192E-14
5.75916E-06 1.91463E-14
6.85388E-06 1.58060E-14
8.04378E-06 1.30881E-14
9.32888E-06 1.08808E-14
1.07092E-05 9.20422E-15
1.21846E-05 7.73310E-15
1.37553E-05 6.59570E-15
1.54212E-05 5.64539E-15
1.71822E-05 4.85347E-15
1.90385E-05 4.21338E-15
2.09899E-05 3.65132E-15
2.30365E-05 3.19324E-15
2.51783E-05 2.79747E-15
2.74153E-05 2.45772E-15
2.97475E-05 2.17303E-15
3.21749E-05 1.91820E-15
3.46974E-05 1.70404E-15
3.73152E-05 1.51632E-15
4.00281E-05 1.35276E-15
4.28362E-05 1.21233E-15
4.57395E-05 1.08620E-15
4.87380E-05 9.77438E-16
5.18317E-05 8.80935E-16
5.50205E-05 7.95734E-16
5.83045E-05 7.21144E-16
6.16838E-05 6.54089E-16
6.51582E-05 5.95237E-16
6.87277E-05 5.42643E-16
7.23925E-05 4.95764E-16
7.61524E-05 4.54108E-16
9.21439E-05 3.25337E-16
1.09658E-04 2.39903E-16
1.28695E-04 1.81244E-16
1.49255E-04 1.39688E-16
1.71338E-04 1.09649E-16
1.94942E-04 8.73437E-17
2.20070E-04 7.04524E-17
2.46720E-04 5.74381E-17
2.74892E-04 4.72653E-17
3.04586E-04 3.92436E-17
3.35803E-04 3.28412E-17
3.68542E-04 2.76860E-17
4.02802E-04 2.34963E-17
4.38585E-04 2.00603E-17
4.75889E-04 1.72255E-17
5.14715E-04 1.48622E-17
5.55063E-04 1.29032E-17
5.96931E-04 1.12515E-17
6.40321E-04 9.85429E-18
6.85233E-04 8.67224E-18
7.31665E-04 7.65510E-18
7.79618E-04 6.78675E-18
8.29092E-04 6.03666E-18
8.80086E-04 5.38728E-18
9.32601E-04 4.82455E-18
9.86636E-04 4.33104E-18
1.04219E-03 3.90054E-18
1.09927E-03 3.52158E-18
1.15786E-03 3.18755E-18
1.21797E-03 2.89282E-18
1.27961E-03 2.63043E-18
1.34276E-03 2.39776E-18
1.40743E-03 2.18991E-18
1.47362E-03 2.00410E-18
1.54133E-03 1.83785E-18
1.61056E-03 1.68804E-18
1.68131E-03 1.55348E-18
1.75357E-03 1.43187E-18
1.82735E-03 1.32193E-18
1.90265E-03 1.22245E-18
1.97947E-03 1.13192E-18
2.05780E-03 1.04977E-18
2.13765E-03 9.74815E-19
2.21902E-03 9.06428E-19
2.30190E-03 8.43986E-19
2.38630E-03 7.86695E-19
2.47222E-03 7.34259E-19
2.55965E-03 6.86047E-19
2.64859E-03 6.41723E-19
2.73905E-03 6.00944E-19
2.83103E-03 5.63274E-19
2.92452E-03 5.28550E-19
3.01952E-03 4.96414E-19
3.11604E-03 4.66679E-19
3.21407E-03 4.39148E-19
3.31362E-03 4.13569E-19
3.41468E-03 3.89847E-19
3.51725E-03 3.67772E-19
3.62133E-03 3.47234E-19
3.72692E-03 3.28113E-19
3.83403E-03 3.10261E-19
3.94265E-03 2.93619E-19
4.05278E-03 2.78058E-19
4.16442E-03 2.63511E-19
4.27757E-03 2.49905E-19
4.39223E-03 2.37147E-19
4.50840E-03 2.25200E-19
4.62608E-03 2.13982E-19
4.74527E-03 2.03452E-19
4.86597E-03 1.93563E-19
4.98817E-03 1.84255E-19
5.11188E-03 1.75503E-19
5.23711E-03 1.67257E-19
5.36383E-03 1.59487E-19
5.49207E-03 1.52163E-19
5.62181E-03 1.45247E-19
5.75306E-03 1.38722E-19
5.88581E-03 1.32553E-19
6.02007E-03 1.26723E-19
6.15583E-03 1.21208E-19
6.29310E-03 1.15986E-19
6.43187E-03 1.11043E-19
6.57214E-03 1.06356E-19
6.71392E-03 1.01913E-19
6.85720E-03 9.76998E-20
7.00198E-03 9.36981E-20
7.14827E-03 8.99001E-20
7.29605E-03 8.62897E-20
7.44534E-03 8.28581E-20
7.59612E-03 7.95950E-20
7.97965E-03 7.21075E-20
8.37255E-03 6.54748E-20
8.77480E-03 5.95829E-20
9.18641E-03 5.43353E-20
9.60736E-03 4.96493E-20
1.00376E-02 4.54547E-20
1.04773E-02 4.16913E-20
1.09262E-02 3.83070E-20
1.13844E-02 3.52572E-20
1.18520E-02 3.25030E-20
1.23288E-02 3.00109E-20
1.28150E-02 2.77517E-20
1.33104E-02 2.56997E-20
1.38150E-02 2.38327E-20
1.43290E-02 2.21311E-20
1.48521E-02 2.05777E-20
1.53845E-02 1.91573E-20
1.59262E-02 1.78565E-20
1.64770E-02 1.66635E-20
1.70371E-02 1.55678E-20
1.76063E-02 1.45600E-20
1.81848E-02 1.36319E-20
1.87724E-02 1.27761E-20
1.93692E-02 1.19858E-20
1.99751E-02 1.12553E-20
2.05901E-02 1.05791E-20
2.12143E-02 9.95254E-21
2.18476E-02 9.37134E-21
2.24900E-02 8.83159E-21
2.31415E-02 8.32982E-21
2.38021E-02 7.86291E-21
2.44717E-02 7.42795E-21
2.51504E-02 7.02241E-21
2.58382E-02 6.64393E-21
2.65349E-02 6.29037E-21
2.72407E-02 5.95982E-21
2.79555E-02 5.65049E-21
2.86793E-02 5.36078E-21
2.94120E-02 5.08924E-21
3.01537E-02 4.83450E-21
3.09043E-02 4.59535E-21
3.16639E-02 4.37067E-21
3.24324E-02 4.15941E-21
3.32098E-02 3.96063E-21
3.39961E-02 3.77347E-21
3.47912E-02 3.59712E-21
3.55952E-02 3.43084E-21
3.64081E-02 3.27396E-21
3.72297E-02 3.12585E-21
3.80602E-02 2.98593E-21
3.88995E-02 2.85367E-21
3.97476E-02 2.72857E-21
4.06044E-02 2.61017E-21
4.14700E-02 2.49806E-21
4.23443E-02 2.39183E-21
4.32273E-02 2.29112E-21
4.41190E-02 2.19560E-21
4.50194E-02 2.10494E-21
4.59284E-02 2.01886E-21
4.68461E-02 1.93709E-21
4.87074E-02 1.78543E-21
5.06030E-02 1.64817E-21
5.25328E-02 1.52370E-21
5.44967E-02 1.41062E-21
5.64946E-02 1.30770E-21
5.85262E-02 1.21388E-21
6.05914E-02 1.12823E-21
6.26901E-02 1.04990E-21
6.48222E-02 9.78159E-22
6.69873E-02 9.12360E-22
6.91854E-02 8.51929E-22
7.14163E-02 7.96352E-22
7.36799E-02 7.45172E-22
7.59760E-02 6.97977E-22
7.83043E-02 6.54407E-22
8.06647E-02 6.14135E-22
8.30571E-02 5.76869E-22
8.54812E-02 5.42344E-22
8.79369E-02 5.10324E-22
9.04240E-02 4.80596E-22
9.29422E-02 4.52968E-22
9.54915E-02 4.27266E-22
9.80716E-02 4.03331E-22
1.00682E-01 3.81022E-22
1.03323E-01 3.60209E-22
1.05995E-01 3.40774E-22
1.08696E-01 3.22610E-22
1.11427E-01 3.05619E-22
1.14188E-01 2.89713E-22
1.16978E-01 2.74810E-22
1.19797E-01 2.60836E-22
1.22645E-01 2.47722E-22
1.25522E-01 2.35408E-22
1.28428E-01 2.23835E-22
1.31361E-01 2.12951E-22
1.34323E-01 2.02708E-22
1.37313E-01 1.93062E-22
1.40330E-01 1.83972E-22
1.43375E-01 1.75399E-22
1.46447E-01 1.67310E-22
1.49545E-01 1.59673E-22
1.52671E-01 1.52457E-22
1.55823E-01 1.45636E-22
1.59001E-01 1.39185E-22
1.62205E-01 1.33078E-22
1.65435E-01 1.27296E-22
1.68690E-01 1.21818E-22
1.71970E-01 1.16624E-22
1.75276E-01 1.11698E-22
1.78606E-01 1.07024E-22
1.81961E-01 1.02586E-22
1.85340E-01 9.83698E-23
1.88743E-01 9.43632E-23
1.92169E-01 9.05536E-23
1.95619E-01 8.69296E-23
1.99092E-01 8.34806E-23
2.02589E-01 8.01968E-23
2.06107E-01 7.70688E-23
2.09649E-01 7.40878E-23
2.13212E-01 7.12458E-23
2.16797E-01 6.85352E-23
2.20404E-01 6.59489E-23
2.24032E-01 6.34801E-23
2.27680E-01 6.11226E-23
2.31350E-01 5.88705E-23
2.35040E-01 5.67183E-23
2.38751E-01 5.46607E-23
2.42481E-01 5.26929E-23
2.46231E-01 5.08102E-23
2.50000E-01 4.90084E-23
2.53788E-01 4.72834E-23
2.57595E-01 4.56313E-23
2.61421E-01 4.40485E-23
2.65264E-01 4.25316E-23
2.69126E-01 4.10774E-23
2.73005E-01 3.96828E-23
2.76901E-01 3.83450E-23
2.80814E-01 3.70612E-23
2.84744E-01 3.58289E-23
2.88691E-01 3.46456E-23
2.92653E-01 3.35091E-23
2.96632E-01 3.24173E-23
3.00625E-01 3.13679E-23
3.04634E-01 3.03592E-23
3.08658E-01 2.93892E-23
3.12697E-01 2.84563E-23
3.16749E-01 2.75587E-23
3.20816E-01 2.66949E-23
3.24896E-01 2.58633E-23
3.28990E-01 2.50627E-23
3.33097E-01 2.42916E-23
3.37216E-01 2.35487E-23
3.41348E-01 2.28329E-23
3.45492E-01 2.21429E-23
3.49647E-01 2.14778E-23
3.53814E-01 2.08364E-23
3.57992E-01 2.02177E-23
3.62181E-01 1.96209E-23
3.66381E-01 1.90449E-23
3.70590E-01 1.84890E-23
3.74810E-01 1.79524E-23
3.79039E-01 1.74341E-23
3.83277E-01 1.69336E-23
3.87524E-01 1.64501E-23
3.91780E-01 1.59829E-23
3.96044E-01 1.55314E-23
4.00316E-01 1.50949E-23
4.04596E-01 1.46729E-23
4.08882E-01 1.42648E-23
4.13176E-01 1.38701E-23
4.17476E-01 1.34883E-23
4.21783E-01 1.31188E-23
4.26095E-01 1.27612E-23
4.30413E-01 1.24151E-23
4.34737E-01 1.20800E-23
4.39065E-01 1.17555E-23
4.43398E-01 1.14413E-23
4.47736E-01 1.11369E-23
4.52077E-01 1.08419E-23
4.56422E-01 1.05562E-23
4.60770E-01 1.02792E-23
4.65122E-01 1.00107E-23
4.69476E-01 9.75039E-24
4.73832E-01 9.49798E-24
4.78190E-01 9.25318E-24
4.82550E-01 9.01574E-24
4.86912E-01 8.78538E-24
4.91274E-01 8.56187E-24
4.95637E-01 8.34496E-24
5.00000E-01 8.13444E-24
5.04363E-01 7.93007E-24
5.08726E-01 7.73165E-24
5.13088E-01 7.53899E-24
5.17450E-01 7.35188E-24
5.21810E-01 7.17013E-24
5.26168E-01 6.99357E-24
5.30524E-01 6.82204E-24
5.34878E-01 6.65535E-24
5.39230E-01 6.49335E-24
5.43578E-01 6.33589E-24
5.47923E-01 6.18282E-24
5.52264E-01 6.03400E-24
5.56602E-01 5.88929E-24
5.60935E-01 5.74855E-24
5.65263E-01 5.61167E-24
5.69587E-01 5.47852E-24
5.73905E-01 5.34898E-24
5.78217E-01 5.22294E-24
5.82524E-01 5.10029E-24
5.86824E-01 4.98092E-24
5.91118E-01 4.86473E-24
5.95404E-01 4.75163E-24
5.99684E-01 4.64151E-24
6.03956E-01 4.53429E-24
6.08220E-01 4.42988E-24
6.12476E-01 4.32820E-24
6.16723E-01 4.22916E-24
6.20961E-01 4.13268E-24
6.25190E-01 4.03870E-24
6.29410E-01 3.94712E-24
6.33619E-01 3.85788E-24
6.37819E-01 3.77092E-24
6.42008E-01 3.68617E-24
6.46186E-01 3.60356E-24
6.50353E-01 3.52303E-24
6.54508E-01 3.44451E-24
6.58652E-01 3.36796E-24
6.62784E-01 3.29332E-24
6.66903E-01 3.22053E-24
6.71010E-01 3.14953E-24
6.75104E-01 3.08029E-24
6.79184E-01 3.01274E-24
6.83251E-01 2.94685E-24
6.87303E-01 2.88256E-24
6.91342E-01 2.81983E-24
6.95366E-01 2.75863E-24
6.99375E-01 2.69889E-24
7.03368E-01 2.64060E-24
7.07347E-01 2.58370E-24
7.11309E-01 2.52816E-24
7.15256E-01 2.47394E-24
7.19186E-01 2.42101E-24
7.23099E-01 2.36933E-24
7.26995E-01 2.31887E-24
7.30874E-01 2.26960E-24
7.34736E-01 2.22148E-24
7.38579E-01 2.17449E-24
7.42405E-01 2.12860E-24
7.46212E-01 2.08377E-24
7.50000E-01 2.03999E-24
7.53769E-01 1.99721E-24
7.57519E-01 1.95543E-24
7.61249E-01 1.91460E-24
7.64960E-01 1.87471E-24
7.68650E-01 1.83574E-24
7.72320E-01 1.79766E-24
7.75968E-01 1.76044E-24
7.79596E-01 1.72407E-24
7.83203E-01 1.68853E-24
7.86788E-01 1.65379E-24
7.90351E-01 1.61984E-24
7.93893E-01 1.58666E-24
7.97411E-01 1.55422E-24
8.00908E-01 1.52251E-24
8.04381E-01 1.49151E-24
8.07831E-01 1.46121E-24
8.11257E-01 1.43158E-24
8.14660E-01 1.40262E-24
8.18039E-01 1.37430E-24
8.21394E-01 1.34662E-24
8.24724E-01 1.31955E-24
8.28030E-01 1.29308E-24
8.31310E-01 1.26720E-24
8.34565E-01 1.24189E-24
8.37795E-01 1.21715E-24
8.40999E-01 1.19295E-24
8.44177E-01 1.16929E-24
8.47329E-01 1.14615E-24
8.50455E-01 1.12352E-24
8.53553E-01 1.10140E-24
8.56625E-01 1.07976E-24
8.59670E-01 1.05861E-24
8.62687E-01 1.03792E-24
8.65677E-01 1.01768E-24
8.68639E-01 9.97900E-25
8.71572E-01 9.78554E-25
8.74478E-01 9.59637E-25
8.77355E-01 9.41140E-25
8.80203E-01 9.23053E-25
8.83022E-01 9.05368E-25
8.85812E-01 8.88077E-25
8.88573E-01 8.71171E-25
8.91304E-01 8.54642E-25
8.94005E-01 8.38484E-25
8.96677E-01 8.22687E-25
8.99318E-01 8.07246E-25
9.01928E-01 7.92152E-25
9.04508E-01 7.77399E-25
9.07058E-01 7.62981E-25
9.09576E-01 7.48889E-25
9.12063E-01 7.35119E-25
9.14519E-01 7.21664E-25
9.16943E-01 7.08518E-25
9.19335E-01 6.95675E-25
9.21696E-01 6.83129E-25
9.24024E-01 6.70875E-25
9.26320E-01 6.58907E-25
9.28584E-01 6.47221E-25
9.30815E-01 6.35811E-25
9.33013E-01 6.24671E-25
9.35178E-01 6.13799E-25
9.37310E-01 6.03187E-25
9.39409E-01 5.92833E-25
9.41474E-01 5.82731E-25
9.43505E-01 5.72878E-25
9.45503E-01 5.63269E-25
9.47467E-01 5.53900E-25
9.49397E-01 5.44767E-25
9.51293E-01 5.35867E-25
9.53154E-01 5.27195E-25
9.54981E-01 5.18748E-25
9.56773E-01 5.10523E-25
9.58530E-01 5.02515E-25
9.60252E-01 4.94723E-25
9.61940E-01 4.87142E-25
9.63592E-01 4.79769E-25
9.65209E-01 4.72602E-25
9.66790E-01 4.65638E-25
9.68336E-01 4.58873E-25
9.69846E-01 4.52306E-25
9.71321E-01 4.45932E-25
9.72759E-01 4.39751E-25
9.74162E-01 4.33759E-25
9.75528E-01 4.27954E-25
9.76858E-01 4.22333E-25
9.78152E-01 4.16895E-25
9.79410E-01 4.11637E-25
9.80631E-01 4.06557E-25
9.81815E-01 4.01653E-25
9.82963E-01 3.96924E-25
9.84074E-01 3.92367E-25
9.85148E-01 3.87980E-25
9.86185E-01 3.83763E-25
9.87185E-01 3.79712E-25
9.88148E-01 3.75827E-25
9.89074E-01 3.72107E-25
9.89962E-01 3.68548E-25
9.90814E-01 3.65152E-25
9.91627E-01 3.61915E-25
9.92404E-01 3.58837E-25
9.93143E-01 3.55916E-25
9.93844E-01 3.53152E-25
9.94508E-01 3.50543E-25
9.95134E-01 3.48089E-25
9.95722E-01 3.45788E-25
9.96273E-01 3.43639E-25
9.96786E-01 3.41643E-25
9.97261E-01 3.39797E-25
9.97698E-01 3.38101E-25
9.98097E-01 3.36555E-25
9.98459E-01 3.35158E-25
9.98782E-01 3.33910E-25
9.99067E-01 3.32809E-25
9.99315E-01 3.31856E-25
9.99524E-01 3.31051E-25
9.99695E-01 3.30392E-25
9.99829E-01 3.29880E-25
9.99924E-01 3.29514E-25
9.99981E-01 3.29295E-25
1.00000E+00 3.29222E-25
