 #
 # Subroutine ELSEPA. Elastic scattering of electrons and positrons
 #                    by neutral atoms and positive ions
 #
 # Projectile: positron
 # Kinetic energy = 4.50000E+08 eV = 1.65372E+07 a.u.
 #
 # WARNING: High-energy factorization with free-atom DF screening.
 #          Absorption, polarization and exchange corrections are
 #          switched off.
 #          Phase shifts are calculated for the bare nucleus.
 #          Scattering amplitudes are not evaluated.
 #
 # Element: Er,  Z =  68,  atomic weight = 1.67260E+02 g/mol
 #
 # Nuclear model: Fermi distribution
 #                Average radius = 5.89542E-13 cm
 #                Skin thickness = 5.46000E-14 cm
 #
 # Number of electrons = 68
 #
 # Total elastic cross section = 7.04871E-18 cm**2 = 2.51714E-01 a0**2
 # 1st transport cross section = 4.32497E-26 cm**2 = 1.54448E-09 a0**2
 # 2nd transport cross section = 1.29686E-25 cm**2 = 4.63116E-09 a0**2
 #
 #
 # Differential cross section:                       MU=(1-COS(THETA))/2
 #
 #  THETA        MU          DCS          DCS        Sherman      error
 #  (deg)                 (cm**2/sr)   (a0**2/sr)    function
 #----------------------------------------------------------------------
0.00000E+00 1.46653E-08
7.61557E-13 1.34242E-08
1.18994E-12 1.28033E-08
1.71346E-12 1.21086E-08
2.33225E-12 1.13698E-08
3.04617E-12 1.06114E-08
3.85530E-12 9.85505E-09
4.75964E-12 9.11847E-09
5.75917E-12 8.41489E-09
6.85391E-12 7.75653E-09
8.04379E-12 7.14586E-09
9.32893E-12 6.58427E-09
1.07092E-11 6.07176E-09
1.21847E-11 5.60670E-09
1.37554E-11 5.18689E-09
1.54213E-11 4.80954E-09
1.71823E-11 4.46919E-09
1.90386E-11 4.16224E-09
2.09900E-11 3.88524E-09
2.30367E-11 3.63491E-09
2.51785E-11 3.40835E-09
2.74156E-11 3.20241E-09
2.97478E-11 3.01458E-09
3.21752E-11 2.84281E-09
3.46979E-11 2.68524E-09
3.73157E-11 2.54024E-09
4.00286E-11 2.40598E-09
4.28368E-11 2.28158E-09
4.57402E-11 2.16600E-09
4.87388E-11 2.05836E-09
5.18325E-11 1.95788E-09
5.50215E-11 1.86362E-09
5.83057E-11 1.77496E-09
6.16850E-11 1.69167E-09
6.51595E-11 1.61331E-09
6.87293E-11 1.53947E-09
7.23943E-11 1.46980E-09
7.61544E-11 1.40361E-09
1.18991E-10 8.99170E-10
1.71347E-10 5.99297E-10
2.33223E-10 4.09979E-10
3.04617E-10 2.90094E-10
3.85531E-10 2.11060E-10
4.75965E-10 1.57134E-10
5.75917E-10 1.19218E-10
6.85389E-10 9.15567E-11
8.04380E-10 7.12981E-11
9.32891E-10 5.62378E-11
1.07092E-09 4.48697E-11
1.21847E-09 3.61785E-11
1.37554E-09 2.94515E-11
1.54213E-09 2.41891E-11
1.71823E-09 2.00574E-11
1.90386E-09 1.67800E-11
2.09900E-09 1.41551E-11
2.30367E-09 1.20336E-11
2.51785E-09 1.03014E-11
2.74156E-09 8.87984E-12
2.97478E-09 7.69794E-12
3.21752E-09 6.70943E-12
3.46978E-09 5.87898E-12
3.73156E-09 5.17662E-12
4.00286E-09 4.57755E-12
4.28368E-09 4.06435E-12
4.57402E-09 3.62209E-12
4.87388E-09 3.23886E-12
5.18326E-09 2.90512E-12
5.50215E-09 2.61284E-12
5.83057E-09 2.35595E-12
6.16850E-09 2.12977E-12
6.51596E-09 1.93000E-12
6.87293E-09 1.75306E-12
7.23942E-09 1.59590E-12
7.61544E-09 1.45570E-12
1.18991E-08 6.39422E-13
1.71347E-08 3.22736E-13
2.33223E-08 1.80060E-13
3.04617E-08 1.08286E-13
3.85531E-08 6.90024E-14
4.75965E-08 4.60354E-14
5.75917E-08 3.18787E-14
6.85389E-08 2.27669E-14
8.04380E-08 1.66873E-14
9.32891E-08 1.25057E-14
1.07092E-07 9.55365E-15
1.21847E-07 7.42218E-15
1.37554E-07 5.85247E-15
1.54213E-07 4.67611E-15
1.71823E-07 3.78069E-15
1.90386E-07 3.08950E-15
2.09900E-07 2.54919E-15
2.30367E-07 2.12195E-15
2.51785E-07 1.78056E-15
2.74156E-07 1.50514E-15
2.97478E-07 1.28098E-15
3.21752E-07 1.09705E-15
3.46978E-07 9.44978E-16
3.73156E-07 8.18377E-16
4.00286E-07 7.12291E-16
4.28368E-07 6.22857E-16
4.57402E-07 5.47033E-16
4.87388E-07 4.82407E-16
5.18325E-07 4.27052E-16
5.50215E-07 3.79415E-16
5.83057E-07 3.38240E-16
6.16850E-07 3.02503E-16
6.51596E-07 2.71364E-16
6.87293E-07 2.44131E-16
7.23942E-07 2.20230E-16
7.61543E-07 1.99183E-16
1.18991E-06 8.21033E-17
1.71347E-06 3.97504E-17
2.33223E-06 2.15105E-17
3.04617E-06 1.26301E-17
3.85531E-06 7.89381E-18
4.75964E-06 5.18313E-18
5.75916E-06 3.54203E-18
6.85388E-06 2.50182E-18
8.04378E-06 1.81682E-18
9.32888E-06 1.35096E-18
1.07092E-05 1.02525E-18
1.21846E-05 7.92012E-19
1.37553E-05 6.21466E-19
1.54212E-05 4.94436E-19
1.71822E-05 3.98257E-19
1.90385E-05 3.24208E-19
2.09899E-05 2.66855E-19
2.30365E-05 2.21607E-19
2.51783E-05 1.85505E-19
2.74153E-05 1.56425E-19
2.97475E-05 1.32806E-19
3.21749E-05 1.13478E-19
3.46974E-05 9.75483E-20
3.73152E-05 8.43280E-20
4.00281E-05 7.32806E-20
4.28362E-05 6.39873E-20
4.57395E-05 5.61207E-20
4.87380E-05 4.94235E-20
5.18317E-05 4.36925E-20
5.50205E-05 3.87660E-20
5.83045E-05 3.45134E-20
6.16838E-05 3.08282E-20
6.51582E-05 2.76227E-20
6.87277E-05 2.48240E-20
7.23925E-05 2.23714E-20
7.61524E-05 2.03673E-20
9.21439E-05 1.39126E-20
1.09658E-04 9.82221E-21
1.28695E-04 7.12995E-21
1.49255E-04 5.29820E-21
1.71338E-04 4.01786E-21
1.94942E-04 3.10092E-21
2.20070E-04 2.43046E-21
2.46720E-04 1.93111E-21
2.74892E-04 1.55303E-21
3.04586E-04 1.26261E-21
3.35803E-04 1.03654E-21
3.68542E-04 8.58489E-22
4.02802E-04 7.16733E-22
4.38585E-04 6.02763E-22
4.75889E-04 5.10310E-22
5.14715E-04 4.34691E-22
5.55063E-04 3.72371E-22
5.96931E-04 3.20650E-22
6.40321E-04 2.77447E-22
6.85233E-04 2.41141E-22
7.31665E-04 2.10459E-22
7.79618E-04 1.84394E-22
8.29092E-04 1.62143E-22
8.80086E-04 1.43061E-22
9.32601E-04 1.26625E-22
9.86636E-04 1.12412E-22
1.04219E-03 1.00074E-22
1.09927E-03 8.93246E-23
1.15786E-03 7.99283E-23
1.21797E-03 7.16881E-23
1.27961E-03 6.44398E-23
1.34276E-03 5.80458E-23
1.40743E-03 5.23899E-23
1.47362E-03 4.73739E-23
1.54133E-03 4.29146E-23
1.61056E-03 3.89407E-23
1.68131E-03 3.53917E-23
1.75357E-03 3.22152E-23
1.82735E-03 2.93665E-23
1.90265E-03 2.68068E-23
1.97947E-03 2.45024E-23
2.05780E-03 2.24242E-23
2.13765E-03 2.05470E-23
2.21902E-03 1.88484E-23
2.30190E-03 1.73091E-23
2.38630E-03 1.59121E-23
2.47222E-03 1.46424E-23
2.55965E-03 1.34869E-23
2.64859E-03 1.24339E-23
2.73905E-03 1.14730E-23
2.83103E-03 1.05953E-23
2.92452E-03 9.79250E-24
3.01952E-03 9.05743E-24
3.11604E-03 8.38367E-24
3.21407E-03 7.76546E-24
3.31362E-03 7.19765E-24
3.41468E-03 6.67565E-24
3.51725E-03 6.19530E-24
3.62133E-03 5.75291E-24
3.72692E-03 5.34511E-24
3.83403E-03 4.96891E-24
3.94265E-03 4.62157E-24
4.05278E-03 4.30065E-24
4.16442E-03 4.00390E-24
4.27757E-03 3.72933E-24
4.39223E-03 3.47509E-24
4.50840E-03 3.23953E-24
4.62608E-03 3.02114E-24
4.74527E-03 2.81855E-24
4.86597E-03 2.63050E-24
4.98817E-03 2.45585E-24
5.11188E-03 2.29356E-24
5.23711E-03 2.14267E-24
5.36383E-03 2.00231E-24
5.49207E-03 1.87169E-24
5.62181E-03 1.75007E-24
5.75306E-03 1.63679E-24
5.88581E-03 1.53121E-24
6.02007E-03 1.43279E-24
6.15583E-03 1.34100E-24
6.29310E-03 1.25535E-24
6.43187E-03 1.17541E-24
6.57214E-03 1.10078E-24
6.71392E-03 1.03107E-24
6.85720E-03 9.65937E-25
7.00198E-03 9.05067E-25
7.14827E-03 8.48162E-25
7.29605E-03 7.94947E-25
7.44534E-03 7.45170E-25
7.59612E-03 6.98598E-25
7.97965E-03 5.94797E-25
8.37255E-03 5.06723E-25
8.77480E-03 4.31900E-25
9.18641E-03 3.68262E-25
9.60736E-03 3.14087E-25
1.00376E-02 2.67930E-25
1.04773E-02 2.28578E-25
1.09262E-02 1.95010E-25
1.13844E-02 1.66363E-25
1.18520E-02 1.41909E-25
1.23288E-02 1.21030E-25
1.28150E-02 1.03201E-25
1.33104E-02 8.79782E-26
1.38150E-02 7.49813E-26
1.43290E-02 6.38872E-26
1.48521E-02 5.44200E-26
1.53845E-02 4.63443E-26
1.59262E-02 3.94586E-26
1.64770E-02 3.35906E-26
1.70371E-02 2.85928E-26
1.76063E-02 2.43388E-26
1.81848E-02 2.07204E-26
1.87724E-02 1.76448E-26
1.93692E-02 1.50326E-26
1.99751E-02 1.28156E-26
2.05901E-02 1.09354E-26
2.12143E-02 9.34207E-27
2.18476E-02 7.99269E-27
2.24900E-02 6.85064E-27
2.31415E-02 5.88454E-27
2.38021E-02 5.06760E-27
2.44717E-02 4.37693E-27
2.51504E-02 3.79301E-27
2.58382E-02 3.29919E-27
2.65349E-02 2.88131E-27
2.72407E-02 2.52735E-27
2.79555E-02 2.22710E-27
2.86793E-02 1.97191E-27
2.94120E-02 1.75447E-27
3.01537E-02 1.56862E-27
3.09043E-02 1.40916E-27
3.16639E-02 1.27173E-27
3.24324E-02 1.15269E-27
3.32098E-02 1.04898E-27
3.39961E-02 9.58063E-28
3.47912E-02 8.77826E-28
3.55952E-02 8.06523E-28
3.64081E-02 7.42712E-28
3.72297E-02 6.85207E-28
3.80602E-02 6.33037E-28
3.88995E-02 5.85407E-28
3.97476E-02 5.41673E-28
4.06044E-02 5.01310E-28
4.14700E-02 4.63895E-28
4.23443E-02 4.29084E-28
4.32273E-02 3.96602E-28
4.41190E-02 3.66227E-28
4.50194E-02 3.37776E-28
4.59284E-02 3.11104E-28
4.68461E-02 2.86091E-28
4.87074E-02 2.40653E-28
5.06030E-02 2.00825E-28
5.25328E-02 1.66112E-28
5.44967E-02 1.36087E-28
5.64946E-02 1.10355E-28
5.85262E-02 8.85313E-29
6.05914E-02 7.02332E-29
6.26901E-02 5.50795E-29
6.48222E-02 4.26953E-29
6.69873E-02 3.27174E-29
6.91854E-02 2.48004E-29
7.14163E-02 1.86220E-29
7.36799E-02 1.38869E-29
7.59760E-02 1.03297E-29
7.83043E-02 7.71630E-30
8.06647E-02 5.84370E-30
8.30571E-02 4.53946E-30
8.54812E-02 3.65980E-30
8.79369E-02 3.08728E-30
9.04240E-02 2.72815E-30
9.29422E-02 2.50941E-30
9.54915E-02 2.37591E-30
9.80716E-02 2.28742E-30
1.00682E-01 2.21600E-30
1.03323E-01 2.14347E-30
1.05995E-01 2.05926E-30
1.08696E-01 1.95845E-30
1.11427E-01 1.84021E-30
1.14188E-01 1.70643E-30
1.16978E-01 1.56066E-30
1.19797E-01 1.40730E-30
1.22645E-01 1.25095E-30
1.25522E-01 1.09599E-30
1.28428E-01 9.46282E-31
1.31361E-01 8.05010E-31
1.34323E-01 6.74598E-31
1.37313E-01 5.56705E-31
1.40330E-01 4.52279E-31
1.43375E-01 3.61632E-31
1.46447E-01 2.84542E-31
1.49545E-01 2.20362E-31
1.52671E-01 1.68124E-31
1.55823E-01 1.26645E-31
1.59001E-01 9.46161E-32
1.62205E-01 7.06772E-32
1.65435E-01 5.34850E-32
1.68690E-01 4.17611E-32
1.71970E-01 3.43280E-32
1.75276E-01 3.01338E-32
1.78606E-01 2.82658E-32
1.81961E-01 2.79549E-32
1.85340E-01 2.85735E-32
1.88743E-01 2.96277E-32
1.92169E-01 3.07456E-32
1.95619E-01 3.16628E-32
1.99092E-01 3.22075E-32
2.02589E-01 3.22844E-32
2.06107E-01 3.18590E-32
2.09649E-01 3.09439E-32
2.13212E-01 2.95852E-32
2.16797E-01 2.78515E-32
2.20404E-01 2.58240E-32
2.24032E-01 2.35890E-32
2.27680E-01 2.12316E-32
2.31350E-01 1.88311E-32
2.35040E-01 1.64577E-32
2.38751E-01 1.41710E-32
2.42481E-01 1.20186E-32
2.46231E-01 1.00362E-32
2.50000E-01 8.24792E-33
2.53788E-01 6.66759E-33
2.57595E-01 5.29971E-33
2.61421E-01 4.14103E-33
2.65264E-01 3.18203E-33
2.69126E-01 2.40842E-33
2.73005E-01 1.80254E-33
2.76901E-01 1.34464E-33
2.80814E-01 1.01398E-33
2.84744E-01 7.89814E-34
2.88691E-01 6.52088E-34
2.92653E-01 5.82065E-34
2.96632E-01 5.62734E-34
3.00625E-01 5.79074E-34
3.04634E-01 6.18193E-34
3.08658E-01 6.69367E-34
3.12697E-01 7.23978E-34
3.16749E-01 7.75385E-34
3.20816E-01 8.18757E-34
3.24896E-01 8.50858E-34
3.28990E-01 8.69830E-34
3.33097E-01 8.74958E-34
3.37216E-01 8.66443E-34
3.41348E-01 8.45193E-34
3.45492E-01 8.12624E-34
3.49647E-01 7.70488E-34
3.53814E-01 7.20721E-34
3.57992E-01 6.65321E-34
3.62181E-01 6.06240E-34
3.66381E-01 5.45314E-34
3.70590E-01 4.84202E-34
3.74810E-01 4.24347E-34
3.79039E-01 3.66958E-34
3.83277E-01 3.13000E-34
3.87524E-01 2.63198E-34
3.91780E-01 2.18053E-34
3.96044E-01 1.77856E-34
4.00316E-01 1.42715E-34
4.04596E-01 1.12580E-34
4.08882E-01 8.72716E-35
4.13176E-01 6.65061E-35
4.17476E-01 4.99229E-35
4.21783E-01 3.71079E-35
4.26095E-01 2.76159E-35
4.30413E-01 2.09886E-35
4.34737E-01 1.67711E-35
4.39065E-01 1.45249E-35
4.43398E-01 1.38382E-35
4.47736E-01 1.43332E-35
4.52077E-01 1.56714E-35
4.56422E-01 1.75567E-35
4.60770E-01 1.97364E-35
4.65122E-01 2.20008E-35
4.69476E-01 2.41812E-35
4.73832E-01 2.61479E-35
4.78190E-01 2.78064E-35
4.82550E-01 2.90936E-35
4.86912E-01 2.99739E-35
4.91274E-01 3.04349E-35
4.95637E-01 3.04833E-35
5.00000E-01 3.01411E-35
5.04363E-01 2.94417E-35
5.08726E-01 2.84269E-35
5.13088E-01 2.71436E-35
5.17450E-01 2.56414E-35
5.21810E-01 2.39708E-35
5.26168E-01 2.21805E-35
5.30524E-01 2.03170E-35
5.34878E-01 1.84229E-35
5.39230E-01 1.65364E-35
5.43578E-01 1.46907E-35
5.47923E-01 1.29139E-35
5.52264E-01 1.12289E-35
5.56602E-01 9.65356E-36
5.60935E-01 8.20081E-36
5.65263E-01 6.87926E-36
5.69587E-01 5.69347E-36
5.73905E-01 4.64450E-36
5.78217E-01 3.73024E-36
5.82524E-01 2.94617E-36
5.86824E-01 2.28566E-36
5.91118E-01 1.74047E-36
5.95404E-01 1.30122E-36
5.99684E-01 9.57824E-37
6.03956E-01 6.99698E-37
6.08220E-01 5.16163E-37
6.12476E-01 3.96747E-37
6.16723E-01 3.31308E-37
6.20961E-01 3.10225E-37
6.25190E-01 3.24576E-37
6.29410E-01 3.66138E-37
6.33619E-01 4.27592E-37
6.37819E-01 5.02382E-37
6.42008E-01 5.84856E-37
6.46186E-01 6.70178E-37
6.50353E-01 7.54329E-37
6.54508E-01 8.34043E-37
6.58652E-01 9.06770E-37
6.62784E-01 9.70587E-37
6.66903E-01 1.02417E-36
6.71010E-01 1.06668E-36
6.75104E-01 1.09775E-36
6.79184E-01 1.11738E-36
6.83251E-01 1.12585E-36
6.87303E-01 1.12373E-36
6.91342E-01 1.11175E-36
6.95366E-01 1.09082E-36
6.99375E-01 1.06193E-36
7.03368E-01 1.02612E-36
7.07347E-01 9.84460E-37
7.11309E-01 9.38038E-37
7.15256E-01 8.87893E-37
7.19186E-01 8.35010E-37
7.23099E-01 7.80316E-37
7.26995E-01 7.24683E-37
7.30874E-01 6.68872E-37
7.34736E-01 6.13586E-37
7.38579E-01 5.59418E-37
7.42405E-01 5.06874E-37
7.46212E-01 4.56385E-37
7.50000E-01 4.08288E-37
7.53769E-01 3.62866E-37
7.57519E-01 3.20307E-37
7.61249E-01 2.80747E-37
7.64960E-01 2.44247E-37
7.68650E-01 2.10838E-37
7.72320E-01 1.80498E-37
7.75968E-01 1.53155E-37
7.79596E-01 1.28722E-37
7.83203E-01 1.07074E-37
7.86788E-01 8.80682E-38
7.90351E-01 7.15486E-38
7.93893E-01 5.73415E-38
7.97411E-01 4.52704E-38
8.00908E-01 3.51533E-38
8.04381E-01 2.68140E-38
8.07831E-01 2.00776E-38
8.11257E-01 1.47664E-38
8.14660E-01 1.07100E-38
8.18039E-01 7.75964E-39
8.21394E-01 5.76037E-39
8.24724E-01 4.57380E-39
8.28030E-01 4.06989E-39
8.31310E-01 4.13791E-39
8.34565E-01 4.66229E-39
8.37795E-01 5.54759E-39
8.40999E-01 6.71068E-39
8.44177E-01 8.07259E-39
8.47329E-01 9.56745E-39
8.50455E-01 1.11397E-38
8.53553E-01 1.27361E-38
8.56625E-01 1.43187E-38
8.59670E-01 1.58489E-38
8.62687E-01 1.73029E-38
8.65677E-01 1.86547E-38
8.68639E-01 1.98902E-38
8.71572E-01 2.09952E-38
8.74478E-01 2.19626E-38
8.77355E-01 2.27905E-38
8.80203E-01 2.34723E-38
8.83022E-01 2.40114E-38
8.85812E-01 2.44115E-38
8.88573E-01 2.46791E-38
8.91304E-01 2.48190E-38
8.94005E-01 2.48391E-38
8.96677E-01 2.47471E-38
8.99318E-01 2.45511E-38
9.01928E-01 2.42626E-38
9.04508E-01 2.38893E-38
9.07058E-01 2.34404E-38
9.09576E-01 2.29254E-38
9.12063E-01 2.23524E-38
9.14519E-01 2.17322E-38
9.16943E-01 2.10701E-38
9.19335E-01 2.03734E-38
9.21696E-01 1.96510E-38
9.24024E-01 1.89101E-38
9.26320E-01 1.81553E-38
9.28584E-01 1.73921E-38
9.30815E-01 1.66277E-38
9.33013E-01 1.58646E-38
9.35178E-01 1.51076E-38
9.37310E-01 1.43582E-38
9.39409E-01 1.36223E-38
9.41474E-01 1.29027E-38
9.43505E-01 1.22002E-38
9.45503E-01 1.15174E-38
9.47467E-01 1.08549E-38
9.49397E-01 1.02151E-38
9.51293E-01 9.59772E-39
9.53154E-01 9.00574E-39
9.54981E-01 8.43757E-39
9.56773E-01 7.89545E-39
9.58530E-01 7.37695E-39
9.60252E-01 6.88335E-39
9.61940E-01 6.41495E-39
9.63592E-01 5.96855E-39
9.65209E-01 5.54811E-39
9.66790E-01 5.14979E-39
9.68336E-01 4.77259E-39
9.69846E-01 4.41812E-39
9.71321E-01 4.08451E-39
9.72759E-01 3.77121E-39
9.74162E-01 3.47630E-39
9.75528E-01 3.20016E-39
9.76858E-01 2.94122E-39
9.78152E-01 2.70035E-39
9.79410E-01 2.47558E-39
9.80631E-01 2.26467E-39
9.81815E-01 2.06923E-39
9.82963E-01 1.88622E-39
9.84074E-01 1.71669E-39
9.85148E-01 1.55943E-39
9.86185E-01 1.41447E-39
9.87185E-01 1.27895E-39
9.88148E-01 1.15415E-39
9.89074E-01 1.03930E-39
9.89962E-01 9.31939E-40
9.90814E-01 8.33928E-40
9.91627E-01 7.43488E-40
9.92404E-01 6.60708E-40
9.93143E-01 5.83321E-40
9.93844E-01 5.13129E-40
9.94508E-01 4.50284E-40
9.95134E-01 3.91919E-40
9.95722E-01 3.38550E-40
9.96273E-01 2.89635E-40
9.96786E-01 2.46040E-40
9.97261E-01 2.07416E-40
9.97698E-01 1.71665E-40
9.98097E-01 1.40426E-40
9.98459E-01 1.12575E-40
9.98782E-01 8.82753E-41
9.99067E-01 6.67853E-41
9.99315E-01 4.86458E-41
9.99524E-01 3.39037E-41
9.99695E-01 2.16004E-41
9.99829E-01 1.21813E-41
9.99924E-01 5.50769E-42
9.99981E-01 1.49275E-42
1.00000E+00 2.74548E-43
