 #
 # Subroutine ELSEPA. Elastic scattering of electrons and positrons
 #                    by neutral atoms and positive ions
 #
 # Projectile: positron
 # Kinetic energy = 1.25000E+07 eV = 4.59367E+05 a.u.
 #
 # WARNING: High-energy factorization with free-atom DF screening.
 #          Absorption, polarization and exchange corrections are
 #          switched off.
 #          Phase shifts are calculated for the bare nucleus.
 #          Scattering amplitudes are not evaluated.
 #
 # Element: Er,  Z =  68,  atomic weight = 1.67260E+02 g/mol
 #
 # Nuclear model: Fermi distribution
 #                Average radius = 5.89542E-13 cm
 #                Skin thickness = 5.46000E-14 cm
 #
 # Number of electrons = 68
 #
 # Total elastic cross section = 7.06319E-18 cm**2 = 2.52231E-01 a0**2
 # 1st transport cross section = 3.95784E-23 cm**2 = 1.41337E-06 a0**2
 # 2nd transport cross section = 1.14724E-22 cm**2 = 4.09688E-06 a0**2
 #
 #
 # Differential cross section:                       MU=(1-COS(THETA))/2
 #
 #  THETA        MU          DCS          DCS        Sherman      error
 #  (deg)                 (cm**2/sr)   (a0**2/sr)    function
 #----------------------------------------------------------------------
0.00000E+00 1.22321E-11
7.61557E-13 1.22312E-11
1.18994E-12 1.22306E-11
1.71346E-12 1.22300E-11
2.33225E-12 1.22292E-11
3.04617E-12 1.22284E-11
3.85530E-12 1.22274E-11
4.75964E-12 1.22263E-11
5.75917E-12 1.22250E-11
6.85391E-12 1.22237E-11
8.04379E-12 1.22222E-11
9.32893E-12 1.22207E-11
1.07092E-11 1.22190E-11
1.21847E-11 1.22172E-11
1.37554E-11 1.22153E-11
1.54213E-11 1.22132E-11
1.71823E-11 1.22111E-11
1.90386E-11 1.22088E-11
2.09900E-11 1.22064E-11
2.30367E-11 1.22039E-11
2.51785E-11 1.22013E-11
2.74156E-11 1.21986E-11
2.97478E-11 1.21958E-11
3.21752E-11 1.21928E-11
3.46979E-11 1.21898E-11
3.73157E-11 1.21866E-11
4.00286E-11 1.21833E-11
4.28368E-11 1.21799E-11
4.57402E-11 1.21764E-11
4.87388E-11 1.21727E-11
5.18325E-11 1.21690E-11
5.50215E-11 1.21651E-11
5.83057E-11 1.21612E-11
6.16850E-11 1.21571E-11
6.51595E-11 1.21529E-11
6.87293E-11 1.21486E-11
7.23943E-11 1.21441E-11
7.61544E-11 1.21396E-11
1.18991E-10 1.20882E-11
1.71347E-10 1.20258E-11
2.33223E-10 1.19528E-11
3.04617E-10 1.18695E-11
3.85531E-10 1.17763E-11
4.75965E-10 1.16737E-11
5.75917E-10 1.15619E-11
6.85389E-10 1.14416E-11
8.04380E-10 1.13132E-11
9.32891E-10 1.11774E-11
1.07092E-09 1.10345E-11
1.21847E-09 1.08852E-11
1.37554E-09 1.07302E-11
1.54213E-09 1.05707E-11
1.71823E-09 1.04059E-11
1.90386E-09 1.02364E-11
2.09900E-09 1.00626E-11
2.30367E-09 9.88783E-12
2.51785E-09 9.71012E-12
2.74156E-09 9.52968E-12
2.97478E-09 9.34695E-12
3.21752E-09 9.16487E-12
3.46978E-09 8.98257E-12
3.73156E-09 8.79926E-12
4.00286E-09 8.61535E-12
4.28368E-09 8.43306E-12
4.57402E-09 8.25310E-12
4.87388E-09 8.07351E-12
5.18326E-09 7.89460E-12
5.50215E-09 7.71769E-12
5.83057E-09 7.54529E-12
6.16850E-09 7.37427E-12
6.51596E-09 7.20485E-12
6.87293E-09 7.03729E-12
7.23942E-09 6.87597E-12
7.61544E-09 6.71670E-12
1.18991E-08 5.30219E-12
1.71347E-08 4.22354E-12
2.33223E-08 3.42298E-12
3.04617E-08 2.82689E-12
3.85531E-08 2.37456E-12
4.75965E-08 2.02171E-12
5.75917E-08 1.73909E-12
6.85389E-08 1.50687E-12
8.04380E-08 1.31317E-12
9.32891E-08 1.14916E-12
1.07092E-07 1.00898E-12
1.21847E-07 8.88704E-13
1.37554E-07 7.83523E-13
1.54213E-07 6.86867E-13
1.71823E-07 6.08053E-13
1.90386E-07 5.43150E-13
2.09900E-07 4.89209E-13
2.30367E-07 4.35376E-13
2.51785E-07 3.89442E-13
2.74156E-07 3.50745E-13
2.97478E-07 3.17907E-13
3.21752E-07 2.87008E-13
3.46978E-07 2.59342E-13
3.73156E-07 2.35584E-13
4.00286E-07 2.15064E-13
4.28368E-07 1.96301E-13
4.57402E-07 1.78934E-13
4.87388E-07 1.63784E-13
5.18325E-07 1.50507E-13
5.50215E-07 1.38553E-13
5.83057E-07 1.27192E-13
6.16850E-07 1.17154E-13
6.51596E-07 1.08253E-13
6.87293E-07 1.00321E-13
7.23942E-07 9.26252E-14
7.61543E-07 8.57544E-14
1.18991E-06 4.25109E-14
1.71347E-06 2.30344E-14
2.33223E-06 1.35003E-14
3.04617E-06 8.46878E-15
3.85531E-06 5.60824E-15
4.75964E-06 3.87715E-15
5.75916E-06 2.77409E-15
6.85388E-06 2.03674E-15
8.04378E-06 1.52801E-15
9.32888E-06 1.16799E-15
1.07092E-05 9.07530E-16
1.21846E-05 7.15364E-16
1.37553E-05 5.70993E-16
1.54212E-05 4.61025E-16
1.71822E-05 3.76543E-16
1.90385E-05 3.10373E-16
2.09899E-05 2.58289E-16
2.30365E-05 2.16780E-16
2.51783E-05 1.83128E-16
2.74153E-05 1.55796E-16
2.97475E-05 1.33349E-16
3.21749E-05 1.14799E-16
3.46974E-05 9.94078E-17
3.73152E-05 8.64885E-17
4.00281E-05 7.56343E-17
4.28362E-05 6.64282E-17
4.57395E-05 5.85821E-17
4.87380E-05 5.18664E-17
5.18317E-05 4.60722E-17
5.50205E-05 4.10704E-17
5.83045E-05 3.67242E-17
6.16838E-05 3.29392E-17
6.51582E-05 2.96321E-17
6.87277E-05 2.67272E-17
7.23925E-05 2.41731E-17
7.61524E-05 2.19145E-17
9.21439E-05 1.51353E-17
1.09658E-04 1.07806E-17
1.28695E-04 7.88365E-18
1.49255E-04 5.89510E-18
1.71338E-04 4.49477E-18
1.94942E-04 3.48584E-18
2.20070E-04 2.74424E-18
2.46720E-04 2.18951E-18
2.74892E-04 1.76793E-18
3.04586E-04 1.44299E-18
3.35803E-04 1.18930E-18
3.68542E-04 9.88941E-19
4.02802E-04 8.29006E-19
4.38585E-04 7.00107E-19
4.75889E-04 5.95288E-19
5.14715E-04 5.09350E-19
5.55063E-04 4.38360E-19
5.96931E-04 3.79301E-19
6.40321E-04 3.29849E-19
6.85233E-04 2.88189E-19
7.31665E-04 2.52892E-19
7.79618E-04 2.22830E-19
8.29092E-04 1.97096E-19
8.80086E-04 1.74966E-19
9.32601E-04 1.55850E-19
9.86636E-04 1.39269E-19
1.04219E-03 1.24832E-19
1.09927E-03 1.12213E-19
1.15786E-03 1.01145E-19
1.21797E-03 9.14054E-20
1.27961E-03 8.28074E-20
1.34276E-03 7.51941E-20
1.40743E-03 6.84335E-20
1.47362E-03 6.24138E-20
1.54133E-03 5.70398E-20
1.61056E-03 5.22301E-20
1.68131E-03 4.79153E-20
1.75357E-03 4.40356E-20
1.82735E-03 4.05394E-20
1.90265E-03 3.73823E-20
1.97947E-03 3.45255E-20
2.05780E-03 3.19355E-20
2.13765E-03 2.95831E-20
2.21902E-03 2.74425E-20
2.30190E-03 2.54914E-20
2.38630E-03 2.37100E-20
2.47222E-03 2.20809E-20
2.55965E-03 2.05888E-20
2.64859E-03 1.92202E-20
2.73905E-03 1.79629E-20
2.83103E-03 1.68064E-20
2.92452E-03 1.57411E-20
3.01952E-03 1.47585E-20
3.11604E-03 1.38510E-20
3.21407E-03 1.30120E-20
3.31362E-03 1.22352E-20
3.41468E-03 1.15153E-20
3.51725E-03 1.08474E-20
3.62133E-03 1.02270E-20
3.72692E-03 9.65004E-21
3.83403E-03 9.11306E-21
3.94265E-03 8.61273E-21
4.05278E-03 8.14611E-21
4.16442E-03 7.71052E-21
4.27757E-03 7.30352E-21
4.39223E-03 6.92288E-21
4.50840E-03 6.56660E-21
4.62608E-03 6.23283E-21
4.74527E-03 5.91990E-21
4.86597E-03 5.62625E-21
4.98817E-03 5.35050E-21
5.11188E-03 5.09134E-21
5.23711E-03 4.84761E-21
5.36383E-03 4.61821E-21
5.49207E-03 4.40214E-21
5.62181E-03 4.19850E-21
5.75306E-03 4.00643E-21
5.88581E-03 3.82516E-21
6.02007E-03 3.65397E-21
6.15583E-03 3.49220E-21
6.29310E-03 3.33923E-21
6.43187E-03 3.19449E-21
6.57214E-03 3.05747E-21
6.71392E-03 2.92767E-21
6.85720E-03 2.80465E-21
7.00198E-03 2.68798E-21
7.14827E-03 2.57728E-21
7.29605E-03 2.47218E-21
7.44534E-03 2.37236E-21
7.59612E-03 2.27749E-21
7.97965E-03 2.06014E-21
8.37255E-03 1.86796E-21
8.77480E-03 1.69754E-21
9.18641E-03 1.54600E-21
9.60736E-03 1.41090E-21
1.00376E-02 1.29014E-21
1.04773E-02 1.18195E-21
1.09262E-02 1.08478E-21
1.13844E-02 9.97334E-22
1.18520E-02 9.18461E-22
1.23288E-02 8.47178E-22
1.28150E-02 7.82630E-22
1.33104E-02 7.24068E-22
1.38150E-02 6.70842E-22
1.43290E-02 6.22380E-22
1.48521E-02 5.78183E-22
1.53845E-02 5.37810E-22
1.59262E-02 5.00872E-22
1.64770E-02 4.67026E-22
1.70371E-02 4.35967E-22
1.76063E-02 4.07426E-22
1.81848E-02 3.81162E-22
1.87724E-02 3.56964E-22
1.93692E-02 3.34639E-22
1.99751E-02 3.14016E-22
2.05901E-02 2.94943E-22
2.12143E-02 2.77283E-22
2.18476E-02 2.60914E-22
2.24900E-02 2.45723E-22
2.31415E-02 2.31611E-22
2.38021E-02 2.18488E-22
2.44717E-02 2.06272E-22
2.51504E-02 1.94890E-22
2.58382E-02 1.84274E-22
2.65349E-02 1.74364E-22
2.72407E-02 1.65104E-22
2.79555E-02 1.56444E-22
2.86793E-02 1.48339E-22
2.94120E-02 1.40746E-22
3.01537E-02 1.33627E-22
3.09043E-02 1.26948E-22
3.16639E-02 1.20677E-22
3.24324E-02 1.14783E-22
3.32098E-02 1.09241E-22
3.39961E-02 1.04026E-22
3.47912E-02 9.91141E-23
3.55952E-02 9.44855E-23
3.64081E-02 9.01207E-23
3.72297E-02 8.60020E-23
3.80602E-02 8.21131E-23
3.88995E-02 7.84388E-23
3.97476E-02 7.49652E-23
4.06044E-02 7.16792E-23
4.14700E-02 6.85691E-23
4.23443E-02 6.56236E-23
4.32273E-02 6.28325E-23
4.41190E-02 6.01863E-23
4.50194E-02 5.76761E-23
4.59284E-02 5.52936E-23
4.68461E-02 5.30312E-23
4.87074E-02 4.88386E-23
5.06030E-02 4.50467E-23
5.25328E-02 4.16108E-23
5.44967E-02 3.84919E-23
5.64946E-02 3.56556E-23
5.85262E-02 3.30720E-23
6.05914E-02 3.07149E-23
6.26901E-02 2.85609E-23
6.48222E-02 2.65896E-23
6.69873E-02 2.47828E-23
6.91854E-02 2.31244E-23
7.14163E-02 2.16003E-23
7.36799E-02 2.01976E-23
7.59760E-02 1.89050E-23
7.83043E-02 1.77125E-23
8.06647E-02 1.66108E-23
8.30571E-02 1.55920E-23
8.54812E-02 1.46487E-23
8.79369E-02 1.37744E-23
9.04240E-02 1.29631E-23
9.29422E-02 1.22095E-23
9.54915E-02 1.15089E-23
9.80716E-02 1.08568E-23
1.00682E-01 1.02493E-23
1.03323E-01 9.68291E-24
1.05995E-01 9.15426E-24
1.08696E-01 8.66045E-24
1.11427E-01 8.19878E-24
1.14188E-01 7.76680E-24
1.16978E-01 7.36227E-24
1.19797E-01 6.98315E-24
1.22645E-01 6.62757E-24
1.25522E-01 6.29381E-24
1.28428E-01 5.98031E-24
1.31361E-01 5.68562E-24
1.34323E-01 5.40843E-24
1.37313E-01 5.14751E-24
1.40330E-01 4.90174E-24
1.43375E-01 4.67010E-24
1.46447E-01 4.45164E-24
1.49545E-01 4.24544E-24
1.52671E-01 4.05070E-24
1.55823E-01 3.86669E-24
1.59001E-01 3.69273E-24
1.62205E-01 3.52816E-24
1.65435E-01 3.37240E-24
1.68690E-01 3.22490E-24
1.71970E-01 3.08513E-24
1.75276E-01 2.95262E-24
1.78606E-01 2.82694E-24
1.81961E-01 2.70767E-24
1.85340E-01 2.59443E-24
1.88743E-01 2.48685E-24
1.92169E-01 2.38462E-24
1.95619E-01 2.28741E-24
1.99092E-01 2.19494E-24
2.02589E-01 2.10693E-24
2.06107E-01 2.02315E-24
2.09649E-01 1.94334E-24
2.13212E-01 1.86728E-24
2.16797E-01 1.79478E-24
2.20404E-01 1.72564E-24
2.24032E-01 1.65966E-24
2.27680E-01 1.59670E-24
2.31350E-01 1.53657E-24
2.35040E-01 1.47914E-24
2.38751E-01 1.42426E-24
2.42481E-01 1.37180E-24
2.46231E-01 1.32164E-24
2.50000E-01 1.27365E-24
2.53788E-01 1.22773E-24
2.57595E-01 1.18377E-24
2.61421E-01 1.14168E-24
2.65264E-01 1.10136E-24
2.69126E-01 1.06272E-24
2.73005E-01 1.02569E-24
2.76901E-01 9.90178E-25
2.80814E-01 9.56120E-25
2.84744E-01 9.23445E-25
2.88691E-01 8.92086E-25
2.92653E-01 8.61982E-25
2.96632E-01 8.33073E-25
3.00625E-01 8.05305E-25
3.04634E-01 7.78625E-25
3.08658E-01 7.52984E-25
3.12697E-01 7.28333E-25
3.16749E-01 7.04629E-25
3.20816E-01 6.81828E-25
3.24896E-01 6.59891E-25
3.28990E-01 6.38780E-25
3.33097E-01 6.18458E-25
3.37216E-01 5.98891E-25
3.41348E-01 5.80046E-25
3.45492E-01 5.61892E-25
3.49647E-01 5.44399E-25
3.53814E-01 5.27540E-25
3.57992E-01 5.11288E-25
3.62181E-01 4.95616E-25
3.66381E-01 4.80502E-25
3.70590E-01 4.65922E-25
3.74810E-01 4.51854E-25
3.79039E-01 4.38277E-25
3.83277E-01 4.25171E-25
3.87524E-01 4.12517E-25
3.91780E-01 4.00297E-25
3.96044E-01 3.88494E-25
4.00316E-01 3.77091E-25
4.04596E-01 3.66072E-25
4.08882E-01 3.55422E-25
4.13176E-01 3.45127E-25
4.17476E-01 3.35174E-25
4.21783E-01 3.25548E-25
4.26095E-01 3.16238E-25
4.30413E-01 3.07231E-25
4.34737E-01 2.98516E-25
4.39065E-01 2.90082E-25
4.43398E-01 2.81919E-25
4.47736E-01 2.74016E-25
4.52077E-01 2.66364E-25
4.56422E-01 2.58953E-25
4.60770E-01 2.51775E-25
4.65122E-01 2.44821E-25
4.69476E-01 2.38083E-25
4.73832E-01 2.31554E-25
4.78190E-01 2.25225E-25
4.82550E-01 2.19090E-25
4.86912E-01 2.13142E-25
4.91274E-01 2.07374E-25
4.95637E-01 2.01781E-25
5.00000E-01 1.96355E-25
5.04363E-01 1.91091E-25
5.08726E-01 1.85983E-25
5.13088E-01 1.81027E-25
5.17450E-01 1.76216E-25
5.21810E-01 1.71547E-25
5.26168E-01 1.67013E-25
5.30524E-01 1.62612E-25
5.34878E-01 1.58337E-25
5.39230E-01 1.54186E-25
5.43578E-01 1.50153E-25
5.47923E-01 1.46235E-25
5.52264E-01 1.42429E-25
5.56602E-01 1.38730E-25
5.60935E-01 1.35135E-25
5.65263E-01 1.31641E-25
5.69587E-01 1.28244E-25
5.73905E-01 1.24942E-25
5.78217E-01 1.21731E-25
5.82524E-01 1.18608E-25
5.86824E-01 1.15571E-25
5.91118E-01 1.12617E-25
5.95404E-01 1.09743E-25
5.99684E-01 1.06947E-25
6.03956E-01 1.04227E-25
6.08220E-01 1.01579E-25
6.12476E-01 9.90028E-26
6.16723E-01 9.64950E-26
6.20961E-01 9.40537E-26
6.25190E-01 9.16770E-26
6.29410E-01 8.93629E-26
6.33619E-01 8.71095E-26
6.37819E-01 8.49151E-26
6.42008E-01 8.27778E-26
6.46186E-01 8.06961E-26
6.50353E-01 7.86681E-26
6.54508E-01 7.66924E-26
6.58652E-01 7.47675E-26
6.62784E-01 7.28917E-26
6.66903E-01 7.10638E-26
6.71010E-01 6.92824E-26
6.75104E-01 6.75460E-26
6.79184E-01 6.58535E-26
6.83251E-01 6.42035E-26
6.87303E-01 6.25949E-26
6.91342E-01 6.10265E-26
6.95366E-01 5.94971E-26
6.99375E-01 5.80057E-26
7.03368E-01 5.65512E-26
7.07347E-01 5.51326E-26
7.11309E-01 5.37488E-26
7.15256E-01 5.23990E-26
7.19186E-01 5.10822E-26
7.23099E-01 4.97975E-26
7.26995E-01 4.85440E-26
7.30874E-01 4.73208E-26
7.34736E-01 4.61273E-26
7.38579E-01 4.49625E-26
7.42405E-01 4.38257E-26
7.46212E-01 4.27161E-26
7.50000E-01 4.16331E-26
7.53769E-01 4.05759E-26
7.57519E-01 3.95438E-26
7.61249E-01 3.85362E-26
7.64960E-01 3.75525E-26
7.68650E-01 3.65920E-26
7.72320E-01 3.56542E-26
7.75968E-01 3.47384E-26
7.79596E-01 3.38441E-26
7.83203E-01 3.29707E-26
7.86788E-01 3.21177E-26
7.90351E-01 3.12846E-26
7.93893E-01 3.04709E-26
7.97411E-01 2.96761E-26
8.00908E-01 2.88998E-26
8.04381E-01 2.81414E-26
8.07831E-01 2.74005E-26
8.11257E-01 2.66767E-26
8.14660E-01 2.59697E-26
8.18039E-01 2.52789E-26
8.21394E-01 2.46039E-26
8.24724E-01 2.39445E-26
8.28030E-01 2.33001E-26
8.31310E-01 2.26706E-26
8.34565E-01 2.20554E-26
8.37795E-01 2.14543E-26
8.40999E-01 2.08670E-26
8.44177E-01 2.02930E-26
8.47329E-01 1.97321E-26
8.50455E-01 1.91841E-26
8.53553E-01 1.86485E-26
8.56625E-01 1.81251E-26
8.59670E-01 1.76137E-26
8.62687E-01 1.71139E-26
8.65677E-01 1.66255E-26
8.68639E-01 1.61483E-26
8.71572E-01 1.56819E-26
8.74478E-01 1.52262E-26
8.77355E-01 1.47809E-26
8.80203E-01 1.43458E-26
8.83022E-01 1.39206E-26
8.85812E-01 1.35052E-26
8.88573E-01 1.30993E-26
8.91304E-01 1.27027E-26
8.94005E-01 1.23152E-26
8.96677E-01 1.19367E-26
8.99318E-01 1.15669E-26
9.01928E-01 1.12056E-26
9.04508E-01 1.08528E-26
9.07058E-01 1.05082E-26
9.09576E-01 1.01716E-26
9.12063E-01 9.84282E-27
9.14519E-01 9.52181E-27
9.16943E-01 9.20836E-27
9.19335E-01 8.90232E-27
9.21696E-01 8.60354E-27
9.24024E-01 8.31189E-27
9.26320E-01 8.02722E-27
9.28584E-01 7.74940E-27
9.30815E-01 7.47829E-27
9.33013E-01 7.21379E-27
9.35178E-01 6.95575E-27
9.37310E-01 6.70405E-27
9.39409E-01 6.45859E-27
9.41474E-01 6.21925E-27
9.43505E-01 5.98592E-27
9.45503E-01 5.75849E-27
9.47467E-01 5.53686E-27
9.49397E-01 5.32093E-27
9.51293E-01 5.11060E-27
9.53154E-01 4.90577E-27
9.54981E-01 4.70635E-27
9.56773E-01 4.51226E-27
9.58530E-01 4.32340E-27
9.60252E-01 4.13970E-27
9.61940E-01 3.96107E-27
9.63592E-01 3.78742E-27
9.65209E-01 3.61870E-27
9.66790E-01 3.45481E-27
9.68336E-01 3.29569E-27
9.69846E-01 3.14128E-27
9.71321E-01 2.99149E-27
9.72759E-01 2.84627E-27
9.74162E-01 2.70555E-27
9.75528E-01 2.56927E-27
9.76858E-01 2.43738E-27
9.78152E-01 2.30982E-27
9.79410E-01 2.18652E-27
9.80631E-01 2.06745E-27
9.81815E-01 1.95254E-27
9.82963E-01 1.84175E-27
9.84074E-01 1.73503E-27
9.85148E-01 1.63234E-27
9.86185E-01 1.53363E-27
9.87185E-01 1.43887E-27
9.88148E-01 1.34800E-27
9.89074E-01 1.26099E-27
9.89962E-01 1.17781E-27
9.90814E-01 1.09842E-27
9.91627E-01 1.02279E-27
9.92404E-01 9.50882E-28
9.93143E-01 8.82670E-28
9.93844E-01 8.18124E-28
9.94508E-01 7.57219E-28
9.95134E-01 6.99927E-28
9.95722E-01 6.46226E-28
9.96273E-01 5.96093E-28
9.96786E-01 5.49507E-28
9.97261E-01 5.06449E-28
9.97698E-01 4.66901E-28
9.98097E-01 4.30846E-28
9.98459E-01 3.98270E-28
9.98782E-01 3.69159E-28
9.99067E-01 3.43501E-28
9.99315E-01 3.21286E-28
9.99524E-01 3.02504E-28
9.99695E-01 2.87147E-28
9.99829E-01 2.75210E-28
9.99924E-01 2.66687E-28
9.99981E-01 2.61574E-28
1.00000E+00 2.59870E-28
