 #
 # Subroutine ELSEPA. Elastic scattering of electrons and positrons
 #                    by neutral atoms and positive ions
 #
 # Projectile: positron
 # Kinetic energy = 3.50000E+06 eV = 1.28623E+05 a.u.
 #
 # WARNING: High-energy factorization with free-atom DF screening.
 #          Absorption, polarization and exchange corrections are
 #          switched off.
 #          Phase shifts are calculated for the bare nucleus.
 #          Scattering amplitudes are not evaluated.
 #
 # Element: Er,  Z =  68,  atomic weight = 1.67260E+02 g/mol
 #
 # Nuclear model: Fermi distribution
 #                Average radius = 5.89542E-13 cm
 #                Skin thickness = 5.46000E-14 cm
 #
 # Number of electrons = 68
 #
 # Total elastic cross section = 7.15817E-18 cm**2 = 2.55623E-01 a0**2
 # 1st transport cross section = 3.39709E-22 cm**2 = 1.21312E-05 a0**2
 # 2nd transport cross section = 9.73844E-22 cm**2 = 3.47766E-05 a0**2
 #
 #
 # Differential cross section:                       MU=(1-COS(THETA))/2
 #
 #  THETA        MU          DCS          DCS        Sherman      error
 #  (deg)                 (cm**2/sr)   (a0**2/sr)    function
 #----------------------------------------------------------------------
0.00000E+00 1.16248E-12
7.61557E-13 1.16247E-12
1.18994E-12 1.16247E-12
1.71346E-12 1.16246E-12
2.33225E-12 1.16245E-12
3.04617E-12 1.16244E-12
3.85530E-12 1.16244E-12
4.75964E-12 1.16243E-12
5.75917E-12 1.16241E-12
6.85391E-12 1.16240E-12
8.04379E-12 1.16239E-12
9.32893E-12 1.16237E-12
1.07092E-11 1.16236E-12
1.21847E-11 1.16234E-12
1.37554E-11 1.16233E-12
1.54213E-11 1.16231E-12
1.71823E-11 1.16229E-12
1.90386E-11 1.16227E-12
2.09900E-11 1.16225E-12
2.30367E-11 1.16222E-12
2.51785E-11 1.16220E-12
2.74156E-11 1.16217E-12
2.97478E-11 1.16215E-12
3.21752E-11 1.16212E-12
3.46979E-11 1.16209E-12
3.73157E-11 1.16207E-12
4.00286E-11 1.16204E-12
4.28368E-11 1.16201E-12
4.57402E-11 1.16197E-12
4.87388E-11 1.16194E-12
5.18325E-11 1.16191E-12
5.50215E-11 1.16187E-12
5.83057E-11 1.16184E-12
6.16850E-11 1.16180E-12
6.51595E-11 1.16176E-12
6.87293E-11 1.16172E-12
7.23943E-11 1.16168E-12
7.61544E-11 1.16164E-12
1.18991E-10 1.16117E-12
1.71347E-10 1.16060E-12
2.33223E-10 1.15993E-12
3.04617E-10 1.15916E-12
3.85531E-10 1.15828E-12
4.75965E-10 1.15730E-12
5.75917E-10 1.15622E-12
6.85389E-10 1.15504E-12
8.04380E-10 1.15376E-12
9.32891E-10 1.15239E-12
1.07092E-09 1.15091E-12
1.21847E-09 1.14933E-12
1.37554E-09 1.14766E-12
1.54213E-09 1.14589E-12
1.71823E-09 1.14403E-12
1.90386E-09 1.14207E-12
2.09900E-09 1.14001E-12
2.30367E-09 1.13786E-12
2.51785E-09 1.13562E-12
2.74156E-09 1.13329E-12
2.97478E-09 1.13087E-12
3.21752E-09 1.12835E-12
3.46978E-09 1.12575E-12
3.73156E-09 1.12307E-12
4.00286E-09 1.12029E-12
4.28368E-09 1.11743E-12
4.57402E-09 1.11449E-12
4.87388E-09 1.11146E-12
5.18326E-09 1.10836E-12
5.50215E-09 1.10517E-12
5.83057E-09 1.10190E-12
6.16850E-09 1.09856E-12
6.51596E-09 1.09514E-12
6.87293E-09 1.09165E-12
7.23942E-09 1.08808E-12
7.61544E-09 1.08444E-12
1.18991E-08 1.04440E-12
1.71347E-08 9.98927E-13
2.33223E-08 9.49265E-13
3.04617E-08 8.97252E-13
3.85531E-08 8.44165E-13
4.75965E-08 7.91072E-13
5.75917E-08 7.38988E-13
6.85389E-08 6.89100E-13
8.04380E-08 6.41528E-13
9.32891E-08 5.96645E-13
1.07092E-07 5.54875E-13
1.21847E-07 5.16306E-13
1.37554E-07 4.80681E-13
1.54213E-07 4.47932E-13
1.71823E-07 4.18151E-13
1.90386E-07 3.90932E-13
2.09900E-07 3.66052E-13
2.30367E-07 3.43366E-13
2.51785E-07 3.22739E-13
2.74156E-07 3.03856E-13
2.97478E-07 2.86566E-13
3.21752E-07 2.70737E-13
3.46978E-07 2.56190E-13
3.73156E-07 2.42785E-13
4.00286E-07 2.30415E-13
4.28368E-07 2.18950E-13
4.57402E-07 2.08305E-13
4.87388E-07 1.98408E-13
5.18325E-07 1.89177E-13
5.50215E-07 1.80516E-13
5.83057E-07 1.72409E-13
6.16850E-07 1.64809E-13
6.51596E-07 1.57633E-13
6.87293E-07 1.50857E-13
7.23942E-07 1.44472E-13
7.61543E-07 1.38448E-13
1.18991E-06 9.22216E-14
1.71347E-06 6.23597E-14
2.33223E-06 4.42489E-14
3.04617E-06 3.17408E-14
3.85531E-06 2.33594E-14
4.75964E-06 1.76159E-14
5.75916E-06 1.35364E-14
6.85388E-06 1.04990E-14
8.04378E-06 8.27378E-15
9.32888E-06 6.60481E-15
1.07092E-05 5.31705E-15
1.21846E-05 4.31496E-15
1.37553E-05 3.53645E-15
1.54212E-05 2.92366E-15
1.71822E-05 2.43206E-15
1.90385E-05 2.03846E-15
2.09899E-05 1.72359E-15
2.30365E-05 1.46719E-15
2.51783E-05 1.25619E-15
2.74153E-05 1.08243E-15
2.97475E-05 9.38284E-16
3.21749E-05 8.17704E-16
3.46974E-05 7.16540E-16
3.73152E-05 6.30956E-16
4.00281E-05 5.57964E-16
4.28362E-05 4.95390E-16
4.57395E-05 4.41611E-16
4.87380E-05 3.95139E-16
5.18317E-05 3.54734E-16
5.50205E-05 3.19365E-16
5.83045E-05 2.88370E-16
6.16838E-05 2.61102E-16
6.51582E-05 2.36949E-16
6.87277E-05 2.15513E-16
7.23925E-05 1.96462E-16
7.61524E-05 1.79475E-16
9.21439E-05 1.27228E-16
1.09658E-04 9.26107E-17
1.28695E-04 6.89432E-17
1.49255E-04 5.23034E-17
1.71338E-04 4.04000E-17
1.94942E-04 3.16818E-17
2.20070E-04 2.52007E-17
2.46720E-04 2.02984E-17
2.74892E-04 1.65250E-17
3.04586E-04 1.35909E-17
3.35803E-04 1.12822E-17
3.68542E-04 9.44403E-18
4.02802E-04 7.96342E-18
4.38585E-04 6.76289E-18
4.75889E-04 5.78085E-18
5.14715E-04 4.97017E-18
5.55063E-04 4.29643E-18
5.96931E-04 3.73328E-18
6.40321E-04 3.25956E-18
6.85233E-04 2.85805E-18
7.31665E-04 2.51651E-18
7.79618E-04 2.22451E-18
8.29092E-04 1.97353E-18
8.80086E-04 1.75673E-18
9.32601E-04 1.56888E-18
9.86636E-04 1.40545E-18
1.04219E-03 1.26261E-18
1.09927E-03 1.13738E-18
1.15786E-03 1.02728E-18
1.21797E-03 9.30148E-19
1.27961E-03 8.44118E-19
1.34276E-03 7.67788E-19
1.40743E-03 6.99873E-19
1.47362E-03 6.39263E-19
1.54133E-03 5.85030E-19
1.61056E-03 5.36414E-19
1.68131E-03 4.92729E-19
1.75357E-03 4.53370E-19
1.82735E-03 4.17846E-19
1.90265E-03 3.85726E-19
1.97947E-03 3.56621E-19
2.05780E-03 3.30190E-19
2.13765E-03 3.06156E-19
2.21902E-03 2.84264E-19
2.30190E-03 2.64283E-19
2.38630E-03 2.46018E-19
2.47222E-03 2.29299E-19
2.55965E-03 2.13973E-19
2.64859E-03 1.99898E-19
2.73905E-03 1.86957E-19
2.83103E-03 1.75044E-19
2.92452E-03 1.64061E-19
3.01952E-03 1.53921E-19
3.11604E-03 1.44550E-19
3.21407E-03 1.35879E-19
3.31362E-03 1.27846E-19
3.41468E-03 1.20395E-19
3.51725E-03 1.13477E-19
3.62133E-03 1.07048E-19
3.72692E-03 1.01064E-19
3.83403E-03 9.54920E-20
3.94265E-03 9.02973E-20
4.05278E-03 8.54495E-20
4.16442E-03 8.09210E-20
4.27757E-03 7.66876E-20
4.39223E-03 7.27265E-20
4.50840E-03 6.90165E-20
4.62608E-03 6.55391E-20
4.74527E-03 6.22772E-20
4.86597E-03 5.92149E-20
4.98817E-03 5.63374E-20
5.11188E-03 5.36320E-20
5.23711E-03 5.10864E-20
5.36383E-03 4.86893E-20
5.49207E-03 4.64304E-20
5.62181E-03 4.43005E-20
5.75306E-03 4.22909E-20
5.88581E-03 4.03932E-20
6.02007E-03 3.86003E-20
6.15583E-03 3.69053E-20
6.29310E-03 3.53020E-20
6.43187E-03 3.37841E-20
6.57214E-03 3.23467E-20
6.71392E-03 3.09846E-20
6.85720E-03 2.96929E-20
7.00198E-03 2.84675E-20
7.14827E-03 2.73044E-20
7.29605E-03 2.61998E-20
7.44534E-03 2.51500E-20
7.59612E-03 2.41521E-20
7.97965E-03 2.18644E-20
8.37255E-03 1.98398E-20
8.77480E-03 1.80429E-20
9.18641E-03 1.64437E-20
9.60736E-03 1.50168E-20
1.00376E-02 1.37405E-20
1.04773E-02 1.25961E-20
1.09262E-02 1.15676E-20
1.13844E-02 1.06413E-20
1.18520E-02 9.80523E-21
1.23288E-02 9.04915E-21
1.28150E-02 8.36405E-21
1.33104E-02 7.74211E-21
1.38150E-02 7.17650E-21
1.43290E-02 6.66122E-21
1.48521E-02 6.19098E-21
1.53845E-02 5.76124E-21
1.59262E-02 5.36786E-21
1.64770E-02 5.00718E-21
1.70371E-02 4.67606E-21
1.76063E-02 4.37165E-21
1.81848E-02 4.09140E-21
1.87724E-02 3.83305E-21
1.93692E-02 3.59460E-21
1.99751E-02 3.37425E-21
2.05901E-02 3.17037E-21
2.12143E-02 2.98151E-21
2.18476E-02 2.80639E-21
2.24900E-02 2.64382E-21
2.31415E-02 2.49273E-21
2.38021E-02 2.35219E-21
2.44717E-02 2.22132E-21
2.51504E-02 2.09933E-21
2.58382E-02 1.98551E-21
2.65349E-02 1.87924E-21
2.72407E-02 1.77990E-21
2.79555E-02 1.68697E-21
2.86793E-02 1.59997E-21
2.94120E-02 1.51845E-21
3.01537E-02 1.44200E-21
3.09043E-02 1.37024E-21
3.16639E-02 1.30285E-21
3.24324E-02 1.23950E-21
3.32098E-02 1.17991E-21
3.39961E-02 1.12383E-21
3.47912E-02 1.07099E-21
3.55952E-02 1.02119E-21
3.64081E-02 9.74221E-22
3.72297E-02 9.29887E-22
3.80602E-02 8.88017E-22
3.88995E-02 8.48449E-22
3.97476E-02 8.11033E-22
4.06044E-02 7.75633E-22
4.14700E-02 7.42120E-22
4.23443E-02 7.10374E-22
4.32273E-02 6.80287E-22
4.41190E-02 6.51756E-22
4.50194E-02 6.24686E-22
4.59284E-02 5.98989E-22
4.68461E-02 5.74582E-22
4.87074E-02 5.29341E-22
5.06030E-02 4.88410E-22
5.25328E-02 4.51309E-22
5.44967E-02 4.17619E-22
5.64946E-02 3.86974E-22
5.85262E-02 3.59050E-22
6.05914E-02 3.33566E-22
6.26901E-02 3.10272E-22
6.48222E-02 2.88947E-22
6.69873E-02 2.69397E-22
6.91854E-02 2.51448E-22
7.14163E-02 2.34947E-22
7.36799E-02 2.19758E-22
7.59760E-02 2.05757E-22
7.83043E-02 1.92836E-22
8.06647E-02 1.80898E-22
8.30571E-02 1.69854E-22
8.54812E-02 1.59626E-22
8.79369E-02 1.50144E-22
9.04240E-02 1.41344E-22
9.29422E-02 1.33168E-22
9.54915E-02 1.25564E-22
9.80716E-02 1.18486E-22
1.00682E-01 1.11891E-22
1.03323E-01 1.05739E-22
1.05995E-01 9.99970E-23
1.08696E-01 9.46320E-23
1.11427E-01 8.96152E-23
1.14188E-01 8.49199E-23
1.16978E-01 8.05220E-23
1.19797E-01 7.63994E-23
1.22645E-01 7.25320E-23
1.25522E-01 6.89010E-23
1.28428E-01 6.54898E-23
1.31361E-01 6.22825E-23
1.34323E-01 5.92650E-23
1.37313E-01 5.64240E-23
1.40330E-01 5.37474E-23
1.43375E-01 5.12240E-23
1.46447E-01 4.88436E-23
1.49545E-01 4.65967E-23
1.52671E-01 4.44743E-23
1.55823E-01 4.24686E-23
1.59001E-01 4.05719E-23
1.62205E-01 3.87773E-23
1.65435E-01 3.70783E-23
1.68690E-01 3.54690E-23
1.71970E-01 3.39438E-23
1.75276E-01 3.24976E-23
1.78606E-01 3.11254E-23
1.81961E-01 2.98230E-23
1.85340E-01 2.85861E-23
1.88743E-01 2.74109E-23
1.92169E-01 2.62937E-23
1.95619E-01 2.52313E-23
1.99092E-01 2.42204E-23
2.02589E-01 2.32581E-23
2.06107E-01 2.23417E-23
2.09649E-01 2.14686E-23
2.13212E-01 2.06364E-23
2.16797E-01 1.98429E-23
2.20404E-01 1.90859E-23
2.24032E-01 1.83635E-23
2.27680E-01 1.76739E-23
2.31350E-01 1.70152E-23
2.35040E-01 1.63859E-23
2.38751E-01 1.57844E-23
2.42481E-01 1.52093E-23
2.46231E-01 1.46592E-23
2.50000E-01 1.41328E-23
2.53788E-01 1.36290E-23
2.57595E-01 1.31466E-23
2.61421E-01 1.26846E-23
2.65264E-01 1.22418E-23
2.69126E-01 1.18175E-23
2.73005E-01 1.14107E-23
2.76901E-01 1.10205E-23
2.80814E-01 1.06462E-23
2.84744E-01 1.02870E-23
2.88691E-01 9.94218E-24
2.92653E-01 9.61105E-24
2.96632E-01 9.29299E-24
3.00625E-01 8.98740E-24
3.04634E-01 8.69371E-24
3.08658E-01 8.41136E-24
3.12697E-01 8.13986E-24
3.16749E-01 7.87871E-24
3.20816E-01 7.62745E-24
3.24896E-01 7.38564E-24
3.28990E-01 7.15287E-24
3.33097E-01 6.92874E-24
3.37216E-01 6.71287E-24
3.41348E-01 6.50490E-24
3.45492E-01 6.30451E-24
3.49647E-01 6.11136E-24
3.53814E-01 5.92516E-24
3.57992E-01 5.74561E-24
3.62181E-01 5.57242E-24
3.66381E-01 5.40535E-24
3.70590E-01 5.24413E-24
3.74810E-01 5.08852E-24
3.79039E-01 4.93831E-24
3.83277E-01 4.79326E-24
3.87524E-01 4.65317E-24
3.91780E-01 4.51784E-24
3.96044E-01 4.38709E-24
4.00316E-01 4.26074E-24
4.04596E-01 4.13860E-24
4.08882E-01 4.02052E-24
4.13176E-01 3.90634E-24
4.17476E-01 3.79591E-24
4.21783E-01 3.68909E-24
4.26095E-01 3.58573E-24
4.30413E-01 3.48571E-24
4.34737E-01 3.38891E-24
4.39065E-01 3.29519E-24
4.43398E-01 3.20445E-24
4.47736E-01 3.11657E-24
4.52077E-01 3.03146E-24
4.56422E-01 2.94900E-24
4.60770E-01 2.86911E-24
4.65122E-01 2.79169E-24
4.69476E-01 2.71665E-24
4.73832E-01 2.64390E-24
4.78190E-01 2.57337E-24
4.82550E-01 2.50498E-24
4.86912E-01 2.43864E-24
4.91274E-01 2.37430E-24
4.95637E-01 2.31187E-24
5.00000E-01 2.25129E-24
5.04363E-01 2.19251E-24
5.08726E-01 2.13545E-24
5.13088E-01 2.08006E-24
5.17450E-01 2.02629E-24
5.21810E-01 1.97407E-24
5.26168E-01 1.92335E-24
5.30524E-01 1.87409E-24
5.34878E-01 1.82624E-24
5.39230E-01 1.77975E-24
5.43578E-01 1.73457E-24
5.47923E-01 1.69066E-24
5.52264E-01 1.64799E-24
5.56602E-01 1.60650E-24
5.60935E-01 1.56617E-24
5.65263E-01 1.52696E-24
5.69587E-01 1.48882E-24
5.73905E-01 1.45173E-24
5.78217E-01 1.41565E-24
5.82524E-01 1.38055E-24
5.86824E-01 1.34640E-24
5.91118E-01 1.31318E-24
5.95404E-01 1.28084E-24
5.99684E-01 1.24937E-24
6.03956E-01 1.21873E-24
6.08220E-01 1.18891E-24
6.12476E-01 1.15987E-24
6.16723E-01 1.13160E-24
6.20961E-01 1.10407E-24
6.25190E-01 1.07725E-24
6.29410E-01 1.05113E-24
6.33619E-01 1.02569E-24
6.37819E-01 1.00090E-24
6.42008E-01 9.76751E-25
6.46186E-01 9.53219E-25
6.50353E-01 9.30286E-25
6.54508E-01 9.07935E-25
6.58652E-01 8.86149E-25
6.62784E-01 8.64912E-25
6.66903E-01 8.44208E-25
6.71010E-01 8.24023E-25
6.75104E-01 8.04340E-25
6.79184E-01 7.85147E-25
6.83251E-01 7.66430E-25
6.87303E-01 7.48174E-25
6.91342E-01 7.30367E-25
6.95366E-01 7.12996E-25
6.99375E-01 6.96050E-25
7.03368E-01 6.79517E-25
7.07347E-01 6.63385E-25
7.11309E-01 6.47643E-25
7.15256E-01 6.32281E-25
7.19186E-01 6.17288E-25
7.23099E-01 6.02655E-25
7.26995E-01 5.88372E-25
7.30874E-01 5.74430E-25
7.34736E-01 5.60818E-25
7.38579E-01 5.47530E-25
7.42405E-01 5.34555E-25
7.46212E-01 5.21887E-25
7.50000E-01 5.09516E-25
7.53769E-01 4.97435E-25
7.57519E-01 4.85637E-25
7.61249E-01 4.74114E-25
7.64960E-01 4.62859E-25
7.68650E-01 4.51866E-25
7.72320E-01 4.41127E-25
7.75968E-01 4.30636E-25
7.79596E-01 4.20388E-25
7.83203E-01 4.10375E-25
7.86788E-01 4.00592E-25
7.90351E-01 3.91034E-25
7.93893E-01 3.81694E-25
7.97411E-01 3.72567E-25
8.00908E-01 3.63649E-25
8.04381E-01 3.54933E-25
8.07831E-01 3.46416E-25
8.11257E-01 3.38091E-25
8.14660E-01 3.29955E-25
8.18039E-01 3.22004E-25
8.21394E-01 3.14231E-25
8.24724E-01 3.06635E-25
8.28030E-01 2.99209E-25
8.31310E-01 2.91951E-25
8.34565E-01 2.84855E-25
8.37795E-01 2.77920E-25
8.40999E-01 2.71140E-25
8.44177E-01 2.64512E-25
8.47329E-01 2.58033E-25
8.50455E-01 2.51699E-25
8.53553E-01 2.45507E-25
8.56625E-01 2.39454E-25
8.59670E-01 2.33537E-25
8.62687E-01 2.27752E-25
8.65677E-01 2.22097E-25
8.68639E-01 2.16569E-25
8.71572E-01 2.11164E-25
8.74478E-01 2.05882E-25
8.77355E-01 2.00717E-25
8.80203E-01 1.95669E-25
8.83022E-01 1.90735E-25
8.85812E-01 1.85912E-25
8.88573E-01 1.81198E-25
8.91304E-01 1.76590E-25
8.94005E-01 1.72087E-25
8.96677E-01 1.67685E-25
8.99318E-01 1.63384E-25
9.01928E-01 1.59181E-25
9.04508E-01 1.55074E-25
9.07058E-01 1.51062E-25
9.09576E-01 1.47141E-25
9.12063E-01 1.43311E-25
9.14519E-01 1.39569E-25
9.16943E-01 1.35914E-25
9.19335E-01 1.32345E-25
9.21696E-01 1.28859E-25
9.24024E-01 1.25455E-25
9.26320E-01 1.22131E-25
9.28584E-01 1.18887E-25
9.30815E-01 1.15720E-25
9.33013E-01 1.12628E-25
9.35178E-01 1.09612E-25
9.37310E-01 1.06669E-25
9.39409E-01 1.03797E-25
9.41474E-01 1.00997E-25
9.43505E-01 9.82658E-26
9.45503E-01 9.56030E-26
9.47467E-01 9.30074E-26
9.49397E-01 9.04778E-26
9.51293E-01 8.80130E-26
9.53154E-01 8.56121E-26
9.54981E-01 8.32740E-26
9.56773E-01 8.09977E-26
9.58530E-01 7.87822E-26
9.60252E-01 7.66266E-26
9.61940E-01 7.45300E-26
9.63592E-01 7.24914E-26
9.65209E-01 7.05100E-26
9.66790E-01 6.85850E-26
9.68336E-01 6.67155E-26
9.69846E-01 6.49008E-26
9.71321E-01 6.31402E-26
9.72759E-01 6.14328E-26
9.74162E-01 5.97780E-26
9.75528E-01 5.81751E-26
9.76858E-01 5.66235E-26
9.78152E-01 5.51224E-26
9.79410E-01 5.36713E-26
9.80631E-01 5.22696E-26
9.81815E-01 5.09166E-26
9.82963E-01 4.96120E-26
9.84074E-01 4.83550E-26
9.85148E-01 4.71453E-26
9.86185E-01 4.59823E-26
9.87185E-01 4.48655E-26
9.88148E-01 4.37945E-26
9.89074E-01 4.27689E-26
9.89962E-01 4.17882E-26
9.90814E-01 4.08521E-26
9.91627E-01 3.99602E-26
9.92404E-01 3.91121E-26
9.93143E-01 3.83075E-26
9.93844E-01 3.75460E-26
9.94508E-01 3.68274E-26
9.95134E-01 3.61514E-26
9.95722E-01 3.55177E-26
9.96273E-01 3.49260E-26
9.96786E-01 3.43762E-26
9.97261E-01 3.38679E-26
9.97698E-01 3.34010E-26
9.98097E-01 3.29754E-26
9.98459E-01 3.25908E-26
9.98782E-01 3.22471E-26
9.99067E-01 3.19441E-26
9.99315E-01 3.16818E-26
9.99524E-01 3.14600E-26
9.99695E-01 3.12787E-26
9.99829E-01 3.11377E-26
9.99924E-01 3.10370E-26
9.99981E-01 3.09767E-26
1.00000E+00 3.09565E-26
