 #
 # Subroutine ELSEPA. Elastic scattering of electrons and positrons
 #                    by neutral atoms and positive ions
 #
 # Projectile: positron
 # Kinetic energy = 2.00000E+08 eV = 7.34987E+06 a.u.
 #
 # WARNING: High-energy factorization with free-atom DF screening.
 #          Absorption, polarization and exchange corrections are
 #          switched off.
 #          Phase shifts are calculated for the bare nucleus.
 #          Scattering amplitudes are not evaluated.
 #
 # Element:  Y,  Z =  39,  atomic weight = 8.89059E+01 g/mol
 #
 # Nuclear model: Fermi distribution
 #                Average radius = 4.77559E-13 cm
 #                Skin thickness = 5.46000E-14 cm
 #
 # Number of electrons = 39
 #
 # Total elastic cross section = 3.94182E-18 cm**2 = 1.40765E-01 a0**2
 # 1st transport cross section = 7.51725E-26 cm**2 = 2.68446E-09 a0**2
 # 2nd transport cross section = 2.24906E-25 cm**2 = 8.03154E-09 a0**2
 #
 #
 # Differential cross section:                       MU=(1-COS(THETA))/2
 #
 #  THETA        MU          DCS          DCS        Sherman      error
 #  (deg)                 (cm**2/sr)   (a0**2/sr)    function
 #----------------------------------------------------------------------
0.00000E+00 2.43145E-09
7.61557E-13 2.38588E-09
1.18994E-12 2.36084E-09
1.71346E-12 2.33078E-09
2.33225E-12 2.29602E-09
3.04617E-12 2.25690E-09
3.85530E-12 2.21380E-09
4.75964E-12 2.16712E-09
5.75917E-12 2.11730E-09
6.85391E-12 2.06491E-09
8.04379E-12 2.01005E-09
9.32893E-12 1.95332E-09
1.07092E-11 1.89534E-09
1.21847E-11 1.83608E-09
1.37554E-11 1.77634E-09
1.54213E-11 1.71634E-09
1.71823E-11 1.65608E-09
1.90386E-11 1.59659E-09
2.09900E-11 1.53752E-09
2.30367E-11 1.47906E-09
2.51785E-11 1.42219E-09
2.74156E-11 1.36619E-09
2.97478E-11 1.31161E-09
3.21752E-11 1.25882E-09
3.46979E-11 1.20727E-09
3.73157E-11 1.15770E-09
4.00286E-11 1.10987E-09
4.28368E-11 1.06347E-09
4.57402E-11 1.01938E-09
4.87388E-11 9.76842E-10
5.18325E-11 9.35912E-10
5.50215E-11 8.97153E-10
5.83057E-11 8.59822E-10
6.16850E-11 8.24227E-10
6.51595E-11 7.90435E-10
6.87293E-11 7.57979E-10
7.23943E-11 7.27268E-10
7.61544E-11 6.98005E-10
1.18991E-10 4.73080E-10
1.71347E-10 3.35231E-10
2.33223E-10 2.46868E-10
3.04617E-10 1.87036E-10
3.85531E-10 1.44589E-10
4.75965E-10 1.13434E-10
5.75917E-10 9.00092E-11
6.85389E-10 7.15505E-11
8.04380E-10 5.81782E-11
9.32891E-10 4.78964E-11
1.07092E-09 3.94820E-11
1.21847E-09 3.30780E-11
1.37554E-09 2.78936E-11
1.54213E-09 2.36949E-11
1.71823E-09 2.03713E-11
1.90386E-09 1.75643E-11
2.09900E-09 1.52733E-11
2.30367E-09 1.33914E-11
2.51785E-09 1.17532E-11
2.74156E-09 1.03959E-11
2.97478E-09 9.23435E-12
3.21752E-09 8.21586E-12
3.46978E-09 7.35517E-12
3.73156E-09 6.59088E-12
4.00286E-09 5.92132E-12
4.28368E-09 5.34671E-12
4.57402E-09 4.82065E-12
4.87388E-09 4.36251E-12
5.18326E-09 3.96062E-12
5.50215E-09 3.59170E-12
5.83057E-09 3.26919E-12
6.16850E-09 2.97976E-12
6.51596E-09 2.71708E-12
6.87293E-09 2.48528E-12
7.23942E-09 2.27375E-12
7.61544E-09 2.08342E-12
1.18991E-08 9.39361E-13
1.71347E-08 4.79115E-13
2.33223E-08 2.70565E-13
3.04617E-08 1.65120E-13
3.85531E-08 1.06768E-13
4.75965E-08 7.21641E-14
5.75917E-08 5.04852E-14
6.85389E-08 3.63384E-14
8.04380E-08 2.67813E-14
9.32891E-08 2.01486E-14
1.07092E-07 1.54358E-14
1.21847E-07 1.20160E-14
1.37554E-07 9.48882E-15
1.54213E-07 7.59026E-15
1.71823E-07 6.14258E-15
1.90386E-07 5.02374E-15
2.09900E-07 4.14838E-15
2.30367E-07 3.45566E-15
2.51785E-07 2.90185E-15
2.74156E-07 2.45474E-15
2.97478E-07 2.09066E-15
3.21752E-07 1.79177E-15
3.46978E-07 1.54453E-15
3.73156E-07 1.33858E-15
4.00286E-07 1.16590E-15
4.28368E-07 1.02023E-15
4.57402E-07 8.96656E-16
4.87388E-07 7.91262E-16
5.18325E-07 7.00927E-16
5.50215E-07 6.23136E-16
5.83057E-07 5.55851E-16
6.16850E-07 4.97409E-16
6.51596E-07 4.46454E-16
6.87293E-07 4.01862E-16
7.23942E-07 3.62702E-16
7.61543E-07 3.28198E-16
1.18991E-06 1.35776E-16
1.71347E-06 6.58708E-17
2.33223E-06 3.56858E-17
3.04617E-06 2.09667E-17
3.85531E-06 1.31090E-17
4.75964E-06 8.60936E-18
5.75916E-06 5.88422E-18
6.85388E-06 4.15653E-18
8.04378E-06 3.01865E-18
9.32888E-06 2.24471E-18
1.07092E-05 1.70357E-18
1.21846E-05 1.31605E-18
1.37553E-05 1.03269E-18
1.54212E-05 8.21621E-19
1.71822E-05 6.61810E-19
1.90385E-05 5.38933E-19
2.09899E-05 4.43447E-19
2.30365E-05 3.68177E-19
2.51783E-05 3.08187E-19
2.74153E-05 2.59905E-19
2.97475E-05 2.20703E-19
3.21749E-05 1.88617E-19
3.46974E-05 1.62159E-19
3.73152E-05 1.40187E-19
4.00281E-05 1.21819E-19
4.28362E-05 1.06364E-19
4.57395E-05 9.32838E-20
4.87380E-05 8.21507E-20
5.18317E-05 7.26271E-20
5.50205E-05 6.44420E-20
5.83045E-05 5.73770E-20
6.16838E-05 5.12538E-20
6.51582E-05 4.59265E-20
6.87277E-05 4.12743E-20
7.23925E-05 3.71968E-20
7.61524E-05 3.36242E-20
9.21439E-05 2.29531E-20
1.09658E-04 1.61964E-20
1.28695E-04 1.17523E-20
1.49255E-04 8.73161E-21
1.71338E-04 6.62161E-21
1.94942E-04 5.11149E-21
2.20070E-04 4.00797E-21
2.46720E-04 3.18651E-21
2.74892E-04 2.56482E-21
3.04586E-04 2.08745E-21
3.35803E-04 1.71595E-21
3.68542E-04 1.42340E-21
4.02802E-04 1.19050E-21
4.38585E-04 1.00325E-21
4.75889E-04 8.51318E-22
5.14715E-04 7.27015E-22
5.55063E-04 6.24534E-22
5.96931E-04 5.39436E-22
6.40321E-04 4.68304E-22
6.85233E-04 4.08480E-22
7.31665E-04 3.57874E-22
7.79618E-04 3.14838E-22
8.29092E-04 2.78052E-22
8.80086E-04 2.46461E-22
9.32601E-04 2.19210E-22
9.86636E-04 1.95604E-22
1.04219E-03 1.75074E-22
1.09927E-03 1.57153E-22
1.15786E-03 1.41453E-22
1.21797E-03 1.27653E-22
1.27961E-03 1.15484E-22
1.34276E-03 1.04721E-22
1.40743E-03 9.51729E-23
1.47362E-03 8.66803E-23
1.54133E-03 7.91062E-23
1.61056E-03 7.23344E-23
1.68131E-03 6.62653E-23
1.75357E-03 6.08134E-23
1.82735E-03 5.59053E-23
1.90265E-03 5.14773E-23
1.97947E-03 4.74743E-23
2.05780E-03 4.38486E-23
2.13765E-03 4.05584E-23
2.21902E-03 3.75673E-23
2.30190E-03 3.48434E-23
2.38630E-03 3.23586E-23
2.47222E-03 3.00885E-23
2.55965E-03 2.80111E-23
2.64859E-03 2.61073E-23
2.73905E-03 2.43600E-23
2.83103E-03 2.27542E-23
2.92452E-03 2.12764E-23
3.01952E-03 1.99147E-23
3.11604E-03 1.86582E-23
3.21407E-03 1.74975E-23
3.31362E-03 1.64240E-23
3.41468E-03 1.54300E-23
3.51725E-03 1.45086E-23
3.62133E-03 1.36536E-23
3.72692E-03 1.28593E-23
3.83403E-03 1.21207E-23
3.94265E-03 1.14332E-23
4.05278E-03 1.07927E-23
4.16442E-03 1.01953E-23
4.27757E-03 9.63776E-24
4.39223E-03 9.11685E-24
4.50840E-03 8.62978E-24
4.62608E-03 8.17396E-24
4.74527E-03 7.74705E-24
4.86597E-03 7.34689E-24
4.98817E-03 6.97152E-24
5.11188E-03 6.61914E-24
5.23711E-03 6.28810E-24
5.36383E-03 5.97688E-24
5.49207E-03 5.68409E-24
5.62181E-03 5.40845E-24
5.75306E-03 5.14879E-24
5.88581E-03 4.90402E-24
6.02007E-03 4.67314E-24
6.15583E-03 4.45522E-24
6.29310E-03 4.24942E-24
6.43187E-03 4.05495E-24
6.57214E-03 3.87108E-24
6.71392E-03 3.69712E-24
6.85720E-03 3.53246E-24
7.00198E-03 3.37652E-24
7.14827E-03 3.22875E-24
7.29605E-03 3.08866E-24
7.44534E-03 2.95577E-24
7.59612E-03 2.82966E-24
7.97965E-03 2.54145E-24
8.37255E-03 2.28754E-24
8.77480E-03 2.06324E-24
9.18641E-03 1.86457E-24
9.60736E-03 1.68815E-24
1.00376E-02 1.53112E-24
1.04773E-02 1.39103E-24
1.09262E-02 1.26577E-24
1.13844E-02 1.15355E-24
1.18520E-02 1.05281E-24
1.23288E-02 9.62203E-25
1.28150E-02 8.80557E-25
1.33104E-02 8.06859E-25
1.38150E-02 7.40226E-25
1.43290E-02 6.79882E-25
1.48521E-02 6.25151E-25
1.53845E-02 5.75436E-25
1.59262E-02 5.30213E-25
1.64770E-02 4.89022E-25
1.70371E-02 4.51452E-25
1.76063E-02 4.17143E-25
1.81848E-02 3.85773E-25
1.87724E-02 3.57057E-25
1.93692E-02 3.30740E-25
1.99751E-02 3.06597E-25
2.05901E-02 2.84424E-25
2.12143E-02 2.64040E-25
2.18476E-02 2.45283E-25
2.24900E-02 2.28006E-25
2.31415E-02 2.12079E-25
2.38021E-02 1.97382E-25
2.44717E-02 1.83810E-25
2.51504E-02 1.71266E-25
2.58382E-02 1.59663E-25
2.65349E-02 1.48923E-25
2.72407E-02 1.38974E-25
2.79555E-02 1.29751E-25
2.86793E-02 1.21195E-25
2.94120E-02 1.13253E-25
3.01537E-02 1.05876E-25
3.09043E-02 9.90200E-26
3.16639E-02 9.26439E-26
3.24324E-02 8.67108E-26
3.32098E-02 8.11869E-26
3.39961E-02 7.60411E-26
3.47912E-02 7.12451E-26
3.55952E-02 6.67729E-26
3.64081E-02 6.26005E-26
3.72297E-02 5.87060E-26
3.80602E-02 5.50693E-26
3.88995E-02 5.16718E-26
3.97476E-02 4.84964E-26
4.06044E-02 4.55274E-26
4.14700E-02 4.27503E-26
4.23443E-02 4.01516E-26
4.32273E-02 3.77191E-26
4.41190E-02 3.54412E-26
4.50194E-02 3.33074E-26
4.59284E-02 3.13080E-26
4.68461E-02 2.94338E-26
4.87074E-02 2.60283E-26
5.06030E-02 2.30308E-26
5.25328E-02 2.03896E-26
5.44967E-02 1.80600E-26
5.64946E-02 1.60034E-26
5.85262E-02 1.41862E-26
6.05914E-02 1.25792E-26
6.26901E-02 1.11573E-26
6.48222E-02 9.89809E-27
6.69873E-02 8.78247E-27
6.91854E-02 7.79349E-27
7.14163E-02 6.91637E-27
7.36799E-02 6.13814E-27
7.59760E-02 5.44739E-27
7.83043E-02 4.83411E-27
8.06647E-02 4.28946E-27
8.30571E-02 3.80567E-27
8.54812E-02 3.37585E-27
8.79369E-02 2.99395E-27
9.04240E-02 2.65460E-27
9.29422E-02 2.35306E-27
9.54915E-02 2.08510E-27
9.80716E-02 1.84702E-27
1.00682E-01 1.63549E-27
1.03323E-01 1.44759E-27
1.05995E-01 1.28070E-27
1.08696E-01 1.13251E-27
1.11427E-01 1.00097E-27
1.14188E-01 8.84224E-28
1.16978E-01 7.80659E-28
1.19797E-01 6.88818E-28
1.22645E-01 6.07409E-28
1.25522E-01 5.35281E-28
1.28428E-01 4.71408E-28
1.31361E-01 4.14876E-28
1.34323E-01 3.64872E-28
1.37313E-01 3.20668E-28
1.40330E-01 2.81619E-28
1.43375E-01 2.47148E-28
1.46447E-01 2.16741E-28
1.49545E-01 1.89941E-28
1.52671E-01 1.66339E-28
1.55823E-01 1.45572E-28
1.59001E-01 1.27316E-28
1.62205E-01 1.11284E-28
1.65435E-01 9.72191E-29
1.68690E-01 8.48924E-29
1.71970E-01 7.41014E-29
1.75276E-01 6.46654E-29
1.78606E-01 5.64242E-29
1.81961E-01 4.92353E-29
1.85340E-01 4.29723E-29
1.88743E-01 3.75230E-29
1.92169E-01 3.27880E-29
1.95619E-01 2.86794E-29
1.99092E-01 2.51191E-29
2.02589E-01 2.20382E-29
2.06107E-01 1.93759E-29
2.09649E-01 1.70785E-29
2.13212E-01 1.50986E-29
2.16797E-01 1.33945E-29
2.20404E-01 1.19296E-29
2.24032E-01 1.06715E-29
2.27680E-01 9.59207E-30
2.31350E-01 8.66654E-30
2.35040E-01 7.87328E-30
2.38751E-01 7.19340E-30
2.42481E-01 6.61043E-30
2.46231E-01 6.11007E-30
2.50000E-01 5.67990E-30
2.53788E-01 5.30918E-30
2.57595E-01 4.98862E-30
2.61421E-01 4.71024E-30
2.65264E-01 4.46716E-30
2.69126E-01 4.25353E-30
2.73005E-01 4.06433E-30
2.76901E-01 3.89531E-30
2.80814E-01 3.74286E-30
2.84744E-01 3.60397E-30
2.88691E-01 3.47610E-30
2.92653E-01 3.35713E-30
2.96632E-01 3.24533E-30
3.00625E-01 3.13927E-30
3.04634E-01 3.03779E-30
3.08658E-01 2.93996E-30
3.12697E-01 2.84504E-30
3.16749E-01 2.75247E-30
3.20816E-01 2.66180E-30
3.24896E-01 2.57273E-30
3.28990E-01 2.48501E-30
3.33097E-01 2.39851E-30
3.37216E-01 2.31313E-30
3.41348E-01 2.22883E-30
3.45492E-01 2.14562E-30
3.49647E-01 2.06353E-30
3.53814E-01 1.98261E-30
3.57992E-01 1.90292E-30
3.62181E-01 1.82455E-30
3.66381E-01 1.74757E-30
3.70590E-01 1.67208E-30
3.74810E-01 1.59815E-30
3.79039E-01 1.52587E-30
3.83277E-01 1.45532E-30
3.87524E-01 1.38655E-30
3.91780E-01 1.31965E-30
3.96044E-01 1.25465E-30
4.00316E-01 1.19161E-30
4.04596E-01 1.13056E-30
4.08882E-01 1.07153E-30
4.13176E-01 1.01454E-30
4.17476E-01 9.59597E-31
4.21783E-01 9.06715E-31
4.26095E-01 8.55885E-31
4.30413E-01 8.07096E-31
4.34737E-01 7.60332E-31
4.39065E-01 7.15569E-31
4.43398E-01 6.72778E-31
4.47736E-01 6.31926E-31
4.52077E-01 5.92975E-31
4.56422E-01 5.55884E-31
4.60770E-01 5.20607E-31
4.65122E-01 4.87096E-31
4.69476E-01 4.55302E-31
4.73832E-01 4.25171E-31
4.78190E-01 3.96651E-31
4.82550E-01 3.69685E-31
4.86912E-01 3.44218E-31
4.91274E-01 3.20195E-31
4.95637E-01 2.97557E-31
5.00000E-01 2.76249E-31
5.04363E-01 2.56215E-31
5.08726E-01 2.37398E-31
5.13088E-01 2.19745E-31
5.17450E-01 2.03200E-31
5.21810E-01 1.87711E-31
5.26168E-01 1.73226E-31
5.30524E-01 1.59694E-31
5.34878E-01 1.47067E-31
5.39230E-01 1.35296E-31
5.43578E-01 1.24335E-31
5.47923E-01 1.14139E-31
5.52264E-01 1.04666E-31
5.56602E-01 9.58739E-32
5.60935E-01 8.77225E-32
5.65263E-01 8.01739E-32
5.69587E-01 7.31914E-32
5.73905E-01 6.67400E-32
5.78217E-01 6.07864E-32
5.82524E-01 5.52986E-32
5.86824E-01 5.02464E-32
5.91118E-01 4.56009E-32
5.95404E-01 4.13350E-32
5.99684E-01 3.74226E-32
6.03956E-01 3.38392E-32
6.08220E-01 3.05618E-32
6.12476E-01 2.75685E-32
6.16723E-01 2.48386E-32
6.20961E-01 2.23528E-32
6.25190E-01 2.00928E-32
6.29410E-01 1.80414E-32
6.33619E-01 1.61827E-32
6.37819E-01 1.45014E-32
6.42008E-01 1.29835E-32
6.46186E-01 1.16159E-32
6.50353E-01 1.03861E-32
6.54508E-01 9.28273E-33
6.58652E-01 8.29508E-33
6.62784E-01 7.41318E-33
6.66903E-01 6.62777E-33
6.71010E-01 5.93027E-33
6.75104E-01 5.31270E-33
6.79184E-01 4.76770E-33
6.83251E-01 4.28843E-33
6.87303E-01 3.86861E-33
6.91342E-01 3.50241E-33
6.95366E-01 3.18447E-33
6.99375E-01 2.90989E-33
7.03368E-01 2.67411E-33
7.07347E-01 2.47301E-33
7.11309E-01 2.30276E-33
7.15256E-01 2.15990E-33
7.19186E-01 2.04125E-33
7.23099E-01 1.94392E-33
7.26995E-01 1.86526E-33
7.30874E-01 1.80290E-33
7.34736E-01 1.75466E-33
7.38579E-01 1.71858E-33
7.42405E-01 1.69289E-33
7.46212E-01 1.67600E-33
7.50000E-01 1.66649E-33
7.53769E-01 1.66306E-33
7.57519E-01 1.66459E-33
7.61249E-01 1.67004E-33
7.64960E-01 1.67852E-33
7.68650E-01 1.68924E-33
7.72320E-01 1.70149E-33
7.75968E-01 1.71465E-33
7.79596E-01 1.72822E-33
7.83203E-01 1.74170E-33
7.86788E-01 1.75472E-33
7.90351E-01 1.76695E-33
7.93893E-01 1.77809E-33
7.97411E-01 1.78792E-33
8.00908E-01 1.79625E-33
8.04381E-01 1.80293E-33
8.07831E-01 1.80784E-33
8.11257E-01 1.81089E-33
8.14660E-01 1.81203E-33
8.18039E-01 1.81122E-33
8.21394E-01 1.80844E-33
8.24724E-01 1.80371E-33
8.28030E-01 1.79704E-33
8.31310E-01 1.78847E-33
8.34565E-01 1.77805E-33
8.37795E-01 1.76582E-33
8.40999E-01 1.75186E-33
8.44177E-01 1.73624E-33
8.47329E-01 1.71902E-33
8.50455E-01 1.70030E-33
8.53553E-01 1.68015E-33
8.56625E-01 1.65867E-33
8.59670E-01 1.63594E-33
8.62687E-01 1.61204E-33
8.65677E-01 1.58708E-33
8.68639E-01 1.56112E-33
8.71572E-01 1.53427E-33
8.74478E-01 1.50661E-33
8.77355E-01 1.47821E-33
8.80203E-01 1.44917E-33
8.83022E-01 1.41956E-33
8.85812E-01 1.38946E-33
8.88573E-01 1.35893E-33
8.91304E-01 1.32807E-33
8.94005E-01 1.29692E-33
8.96677E-01 1.26556E-33
8.99318E-01 1.23406E-33
9.01928E-01 1.20245E-33
9.04508E-01 1.17082E-33
9.07058E-01 1.13919E-33
9.09576E-01 1.10764E-33
9.12063E-01 1.07620E-33
9.14519E-01 1.04492E-33
9.16943E-01 1.01383E-33
9.19335E-01 9.82982E-34
9.21696E-01 9.52408E-34
9.24024E-01 9.22136E-34
9.26320E-01 8.92204E-34
9.28584E-01 8.62630E-34
9.30815E-01 8.33445E-34
9.33013E-01 8.04672E-34
9.35178E-01 7.76337E-34
9.37310E-01 7.48452E-34
9.39409E-01 7.21037E-34
9.41474E-01 6.94103E-34
9.43505E-01 6.67673E-34
9.45503E-01 6.41748E-34
9.47467E-01 6.16351E-34
9.49397E-01 5.91476E-34
9.51293E-01 5.67143E-34
9.53154E-01 5.43344E-34
9.54981E-01 5.20100E-34
9.56773E-01 4.97405E-34
9.58530E-01 4.75267E-34
9.60252E-01 4.53679E-34
9.61940E-01 4.32651E-34
9.63592E-01 4.12179E-34
9.65209E-01 3.92264E-34
9.66790E-01 3.72904E-34
9.68336E-01 3.54094E-34
9.69846E-01 3.35833E-34
9.71321E-01 3.18122E-34
9.72759E-01 3.00950E-34
9.74162E-01 2.84317E-34
9.75528E-01 2.68220E-34
9.76858E-01 2.52652E-34
9.78152E-01 2.37610E-34
9.79410E-01 2.23084E-34
9.80631E-01 2.09072E-34
9.81815E-01 1.95570E-34
9.82963E-01 1.82569E-34
9.84074E-01 1.70066E-34
9.85148E-01 1.58054E-34
9.86185E-01 1.46527E-34
9.87185E-01 1.35476E-34
9.88148E-01 1.24903E-34
9.89074E-01 1.14796E-34
9.89962E-01 1.05151E-34
9.90814E-01 9.59596E-35
9.91627E-01 8.72216E-35
9.92404E-01 7.89280E-35
9.93143E-01 7.10733E-35
9.93844E-01 6.36561E-35
9.94508E-01 5.66673E-35
9.95134E-01 5.01063E-35
9.95722E-01 4.39645E-35
9.96273E-01 3.82406E-35
9.96786E-01 3.29275E-35
9.97261E-01 2.80256E-35
9.97698E-01 2.35278E-35
9.98097E-01 1.94345E-35
9.98459E-01 1.57393E-35
9.98782E-01 1.24401E-35
9.99067E-01 9.53501E-36
9.99315E-01 7.02105E-36
9.99524E-01 4.89800E-36
9.99695E-01 3.16273E-36
9.99829E-01 1.81489E-36
9.99924E-01 8.52560E-37
9.99981E-01 2.75550E-37
1.00000E+00 8.32194E-38
