 #
 # Subroutine ELSEPA. Elastic scattering of electrons and positrons
 #                    by neutral atoms and positive ions
 #
 # Projectile: positron
 # Kinetic energy = 1.00000E+07 eV = 3.67493E+05 a.u.
 #
 # WARNING: High-energy factorization with free-atom DF screening.
 #          Absorption, polarization and exchange corrections are
 #          switched off.
 #          Phase shifts are calculated for the bare nucleus.
 #          Scattering amplitudes are not evaluated.
 #
 # Element:  Y,  Z =  39,  atomic weight = 8.89059E+01 g/mol
 #
 # Nuclear model: Fermi distribution
 #                Average radius = 4.77559E-13 cm
 #                Skin thickness = 5.46000E-14 cm
 #
 # Number of electrons = 39
 #
 # Total elastic cross section = 3.94859E-18 cm**2 = 1.41007E-01 a0**2
 # 1st transport cross section = 2.07721E-23 cm**2 = 7.41784E-07 a0**2
 # 2nd transport cross section = 6.01388E-23 cm**2 = 2.14760E-06 a0**2
 #
 #
 # Differential cross section:                       MU=(1-COS(THETA))/2
 #
 #  THETA        MU          DCS          DCS        Sherman      error
 #  (deg)                 (cm**2/sr)   (a0**2/sr)    function
 #----------------------------------------------------------------------
0.00000E+00 6.68154E-12
7.61557E-13 6.68118E-12
1.18994E-12 6.68098E-12
1.71346E-12 6.68074E-12
2.33225E-12 6.68046E-12
3.04617E-12 6.68013E-12
3.85530E-12 6.67976E-12
4.75964E-12 6.67934E-12
5.75917E-12 6.67888E-12
6.85391E-12 6.67838E-12
8.04379E-12 6.67783E-12
9.32893E-12 6.67724E-12
1.07092E-11 6.67661E-12
1.21847E-11 6.67593E-12
1.37554E-11 6.67521E-12
1.54213E-11 6.67445E-12
1.71823E-11 6.67364E-12
1.90386E-11 6.67280E-12
2.09900E-11 6.67190E-12
2.30367E-11 6.67097E-12
2.51785E-11 6.66999E-12
2.74156E-11 6.66897E-12
2.97478E-11 6.66790E-12
3.21752E-11 6.66679E-12
3.46979E-11 6.66564E-12
3.73157E-11 6.66445E-12
4.00286E-11 6.66321E-12
4.28368E-11 6.66193E-12
4.57402E-11 6.66061E-12
4.87388E-11 6.65924E-12
5.18325E-11 6.65783E-12
5.50215E-11 6.65638E-12
5.83057E-11 6.65489E-12
6.16850E-11 6.65335E-12
6.51595E-11 6.65177E-12
6.87293E-11 6.65015E-12
7.23943E-11 6.64848E-12
7.61544E-11 6.64678E-12
1.18991E-10 6.62738E-12
1.71347E-10 6.60379E-12
2.33223E-10 6.57609E-12
3.04617E-10 6.54435E-12
3.85531E-10 6.50867E-12
4.75965E-10 6.46915E-12
5.75917E-10 6.42590E-12
6.85389E-10 6.37904E-12
8.04380E-10 6.32870E-12
9.32891E-10 6.27503E-12
1.07092E-09 6.21816E-12
1.21847E-09 6.15826E-12
1.37554E-09 6.09546E-12
1.54213E-09 6.02995E-12
1.71823E-09 5.96187E-12
1.90386E-09 5.89140E-12
2.09900E-09 5.81874E-12
2.30367E-09 5.74428E-12
2.51785E-09 5.66781E-12
2.74156E-09 5.58951E-12
2.97478E-09 5.50952E-12
3.21752E-09 5.42800E-12
3.46978E-09 5.34587E-12
3.73156E-09 5.26264E-12
4.00286E-09 5.17835E-12
4.28368E-09 5.09316E-12
4.57402E-09 5.00719E-12
4.87388E-09 4.92129E-12
5.18326E-09 4.83530E-12
5.50215E-09 4.74893E-12
5.83057E-09 4.66232E-12
6.16850E-09 4.57558E-12
6.51596E-09 4.48937E-12
6.87293E-09 4.40400E-12
7.23942E-09 4.31881E-12
7.61544E-09 4.23391E-12
1.18991E-08 3.43324E-12
1.71347E-08 2.75193E-12
2.33223E-08 2.20381E-12
3.04617E-08 1.77632E-12
3.85531E-08 1.44712E-12
4.75965E-08 1.19360E-12
5.75917E-08 9.96700E-13
6.85389E-08 8.41717E-13
8.04380E-08 7.17804E-13
9.32891E-08 6.17200E-13
1.07092E-07 5.34363E-13
1.21847E-07 4.65308E-13
1.37554E-07 4.07143E-13
1.54213E-07 3.57732E-13
1.71823E-07 3.15470E-13
1.90386E-07 2.79124E-13
2.09900E-07 2.47542E-13
2.30367E-07 2.18844E-13
2.51785E-07 1.94742E-13
2.74156E-07 1.74367E-13
2.97478E-07 1.57034E-13
3.21752E-07 1.42200E-13
3.46978E-07 1.28000E-13
3.73156E-07 1.15582E-13
4.00286E-07 1.04850E-13
4.28368E-07 9.55303E-14
4.57402E-07 8.73990E-14
4.87388E-07 7.98977E-14
5.18325E-07 7.31183E-14
5.50215E-07 6.71502E-14
5.83057E-07 6.18761E-14
6.16850E-07 5.71984E-14
6.51596E-07 5.29256E-14
6.87293E-07 4.89702E-14
7.23942E-07 4.54356E-14
7.61543E-07 4.22675E-14
1.18991E-06 2.21071E-14
1.71347E-06 1.26911E-14
2.33223E-06 7.70010E-15
3.04617E-06 4.87095E-15
3.85531E-06 3.19905E-15
4.75964E-06 2.17660E-15
5.75916E-06 1.53008E-15
6.85388E-06 1.10769E-15
8.04378E-06 8.23222E-16
9.32888E-06 6.25703E-16
1.07092E-05 4.84725E-16
1.21846E-05 3.81716E-16
1.37553E-05 3.04918E-16
1.54212E-05 2.46620E-16
1.71822E-05 2.01639E-16
1.90385E-05 1.66410E-16
2.09899E-05 1.38546E-16
2.30365E-05 1.16167E-16
2.51783E-05 9.82371E-17
2.74153E-05 8.34779E-17
2.97475E-05 7.14459E-17
3.21749E-05 6.14277E-17
3.46974E-05 5.31295E-17
3.73152E-05 4.61543E-17
4.00281E-05 4.02960E-17
4.28362E-05 3.53229E-17
4.57395E-05 3.10944E-17
4.87380E-05 2.74732E-17
5.18317E-05 2.43624E-17
5.50205E-05 2.16769E-17
5.83045E-05 1.93498E-17
6.16838E-05 1.73265E-17
6.51582E-05 1.55599E-17
6.87277E-05 1.40136E-17
7.23925E-05 1.26540E-17
7.61524E-05 1.14562E-17
9.21439E-05 7.87392E-18
1.09658E-04 5.58925E-18
1.28695E-04 4.07727E-18
1.49255E-04 3.04400E-18
1.71338E-04 2.31863E-18
1.94942E-04 1.79707E-18
2.20070E-04 1.41429E-18
2.46720E-04 1.12820E-18
2.74892E-04 9.10871E-19
3.04586E-04 7.43413E-19
3.35803E-04 6.12678E-19
3.68542E-04 5.09425E-19
4.02802E-04 4.27000E-19
4.38585E-04 3.60560E-19
4.75889E-04 3.06532E-19
5.14715E-04 2.62233E-19
5.55063E-04 2.25640E-19
5.96931E-04 1.95198E-19
6.40321E-04 1.69710E-19
6.85233E-04 1.48240E-19
7.31665E-04 1.30052E-19
7.79618E-04 1.14564E-19
8.29092E-04 1.01308E-19
8.80086E-04 8.99109E-20
9.32601E-04 8.00681E-20
9.86636E-04 7.15326E-20
1.04219E-03 6.41020E-20
1.09927E-03 5.76091E-20
1.15786E-03 5.19157E-20
1.21797E-03 4.69068E-20
1.27961E-03 4.24861E-20
1.34276E-03 3.85727E-20
1.40743E-03 3.50985E-20
1.47362E-03 3.20057E-20
1.54133E-03 2.92453E-20
1.61056E-03 2.67754E-20
1.68131E-03 2.45600E-20
1.75357E-03 2.25685E-20
1.82735E-03 2.07742E-20
1.90265E-03 1.91542E-20
1.97947E-03 1.76887E-20
2.05780E-03 1.63602E-20
2.13765E-03 1.51538E-20
2.21902E-03 1.40562E-20
2.30190E-03 1.30560E-20
2.38630E-03 1.21429E-20
2.47222E-03 1.13080E-20
2.55965E-03 1.05434E-20
2.64859E-03 9.84211E-21
2.73905E-03 9.19802E-21
2.83103E-03 8.60559E-21
2.92452E-03 8.05994E-21
3.01952E-03 7.55673E-21
3.11604E-03 7.09205E-21
3.21407E-03 6.66242E-21
3.31362E-03 6.26473E-21
3.41468E-03 5.89618E-21
3.51725E-03 5.55424E-21
3.62133E-03 5.23664E-21
3.72692E-03 4.94134E-21
3.83403E-03 4.66650E-21
3.94265E-03 4.41043E-21
4.05278E-03 4.17162E-21
4.16442E-03 3.94870E-21
4.27757E-03 3.74042E-21
4.39223E-03 3.54564E-21
4.50840E-03 3.36332E-21
4.62608E-03 3.19253E-21
4.74527E-03 3.03240E-21
4.86597E-03 2.88215E-21
4.98817E-03 2.74105E-21
5.11188E-03 2.60845E-21
5.23711E-03 2.48374E-21
5.36383E-03 2.36636E-21
5.49207E-03 2.25580E-21
5.62181E-03 2.15160E-21
5.75306E-03 2.05332E-21
5.88581E-03 1.96057E-21
6.02007E-03 1.87297E-21
6.15583E-03 1.79019E-21
6.29310E-03 1.71191E-21
6.43187E-03 1.63785E-21
6.57214E-03 1.56773E-21
6.71392E-03 1.50130E-21
6.85720E-03 1.43834E-21
7.00198E-03 1.37863E-21
7.14827E-03 1.32198E-21
7.29605E-03 1.26819E-21
7.44534E-03 1.21709E-21
7.59612E-03 1.16853E-21
7.97965E-03 1.05727E-21
8.37255E-03 9.58885E-22
8.77480E-03 8.71627E-22
9.18641E-03 7.94026E-22
9.60736E-03 7.24829E-22
1.00376E-02 6.62972E-22
1.04773E-02 6.07541E-22
1.09262E-02 5.57754E-22
1.13844E-02 5.12938E-22
1.18520E-02 4.72509E-22
1.23288E-02 4.35964E-22
1.28150E-02 4.02866E-22
1.33104E-02 3.72831E-22
1.38150E-02 3.45528E-22
1.43290E-02 3.20663E-22
1.48521E-02 2.97983E-22
1.53845E-02 2.77260E-22
1.59262E-02 2.58296E-22
1.64770E-02 2.40916E-22
1.70371E-02 2.24964E-22
1.76063E-02 2.10302E-22
1.81848E-02 1.96807E-22
1.87724E-02 1.84370E-22
1.93692E-02 1.72894E-22
1.99751E-02 1.62290E-22
2.05901E-02 1.52481E-22
2.12143E-02 1.43397E-22
2.18476E-02 1.34974E-22
2.24900E-02 1.27156E-22
2.31415E-02 1.19891E-22
2.38021E-02 1.13135E-22
2.44717E-02 1.06843E-22
2.51504E-02 1.00980E-22
2.58382E-02 9.55098E-23
2.65349E-02 9.04022E-23
2.72407E-02 8.56285E-23
2.79555E-02 8.11633E-23
2.86793E-02 7.69829E-23
2.94120E-02 7.30659E-23
3.01537E-02 6.93927E-23
3.09043E-02 6.59454E-23
3.16639E-02 6.27075E-23
3.24324E-02 5.96641E-23
3.32098E-02 5.68015E-23
3.39961E-02 5.41069E-23
3.47912E-02 5.15687E-23
3.55952E-02 4.91762E-23
3.64081E-02 4.69194E-23
3.72297E-02 4.47894E-23
3.80602E-02 4.27776E-23
3.88995E-02 4.08765E-23
3.97476E-02 3.90787E-23
4.06044E-02 3.73777E-23
4.14700E-02 3.57672E-23
4.23443E-02 3.42416E-23
4.32273E-02 3.27956E-23
4.41190E-02 3.14244E-23
4.50194E-02 3.01232E-23
4.59284E-02 2.88880E-23
4.68461E-02 2.77148E-23
4.87074E-02 2.55397E-23
5.06030E-02 2.35715E-23
5.25328E-02 2.17872E-23
5.44967E-02 2.01667E-23
5.64946E-02 1.86923E-23
5.85262E-02 1.73486E-23
6.05914E-02 1.61221E-23
6.26901E-02 1.50007E-23
6.48222E-02 1.39738E-23
6.69873E-02 1.30322E-23
6.91854E-02 1.21676E-23
7.14163E-02 1.13725E-23
7.36799E-02 1.06404E-23
7.59760E-02 9.96543E-24
7.83043E-02 9.34235E-24
8.06647E-02 8.76651E-24
8.30571E-02 8.23372E-24
8.54812E-02 7.74015E-24
8.79369E-02 7.28242E-24
9.04240E-02 6.85754E-24
9.29422E-02 6.46266E-24
9.54915E-02 6.09531E-24
9.80716E-02 5.75331E-24
1.00682E-01 5.43449E-24
1.03323E-01 5.13709E-24
1.05995E-01 4.85940E-24
1.08696E-01 4.59986E-24
1.11427E-01 4.35710E-24
1.14188E-01 4.12985E-24
1.16978E-01 3.91693E-24
1.19797E-01 3.71729E-24
1.22645E-01 3.52996E-24
1.25522E-01 3.35403E-24
1.28428E-01 3.18870E-24
1.31361E-01 3.03322E-24
1.34323E-01 2.88690E-24
1.37313E-01 2.74910E-24
1.40330E-01 2.61924E-24
1.43375E-01 2.49678E-24
1.46447E-01 2.38122E-24
1.49545E-01 2.27212E-24
1.52671E-01 2.16905E-24
1.55823E-01 2.07161E-24
1.59001E-01 1.97944E-24
1.62205E-01 1.89222E-24
1.65435E-01 1.80962E-24
1.68690E-01 1.73136E-24
1.71970E-01 1.65717E-24
1.75276E-01 1.58681E-24
1.78606E-01 1.52004E-24
1.81961E-01 1.45664E-24
1.85340E-01 1.39642E-24
1.88743E-01 1.33919E-24
1.92169E-01 1.28478E-24
1.95619E-01 1.23301E-24
1.99092E-01 1.18375E-24
2.02589E-01 1.13684E-24
2.06107E-01 1.09217E-24
2.09649E-01 1.04959E-24
2.13212E-01 1.00900E-24
2.16797E-01 9.70289E-25
2.20404E-01 9.33352E-25
2.24032E-01 8.98095E-25
2.27680E-01 8.64428E-25
2.31350E-01 8.32268E-25
2.35040E-01 8.01535E-25
2.38751E-01 7.72154E-25
2.42481E-01 7.44057E-25
2.46231E-01 7.17177E-25
2.50000E-01 6.91452E-25
2.53788E-01 6.66824E-25
2.57595E-01 6.43239E-25
2.61421E-01 6.20645E-25
2.65264E-01 5.98992E-25
2.69126E-01 5.78235E-25
2.73005E-01 5.58331E-25
2.76901E-01 5.39238E-25
2.80814E-01 5.20917E-25
2.84744E-01 5.03333E-25
2.88691E-01 4.86450E-25
2.92653E-01 4.70236E-25
2.96632E-01 4.54659E-25
3.00625E-01 4.39691E-25
3.04634E-01 4.25303E-25
3.08658E-01 4.11469E-25
3.12697E-01 3.98165E-25
3.16749E-01 3.85365E-25
3.20816E-01 3.73049E-25
3.24896E-01 3.61195E-25
3.28990E-01 3.49781E-25
3.33097E-01 3.38791E-25
3.37216E-01 3.28204E-25
3.41348E-01 3.18003E-25
3.45492E-01 3.08173E-25
3.49647E-01 2.98697E-25
3.53814E-01 2.89561E-25
3.57992E-01 2.80750E-25
3.62181E-01 2.72250E-25
3.66381E-01 2.64050E-25
3.70590E-01 2.56136E-25
3.74810E-01 2.48497E-25
3.79039E-01 2.41121E-25
3.83277E-01 2.33999E-25
3.87524E-01 2.27120E-25
3.91780E-01 2.20474E-25
3.96044E-01 2.14052E-25
4.00316E-01 2.07846E-25
4.04596E-01 2.01846E-25
4.08882E-01 1.96045E-25
4.13176E-01 1.90436E-25
4.17476E-01 1.85010E-25
4.21783E-01 1.79761E-25
4.26095E-01 1.74682E-25
4.30413E-01 1.69767E-25
4.34737E-01 1.65009E-25
4.39065E-01 1.60403E-25
4.43398E-01 1.55943E-25
4.47736E-01 1.51623E-25
4.52077E-01 1.47440E-25
4.56422E-01 1.43386E-25
4.60770E-01 1.39459E-25
4.65122E-01 1.35653E-25
4.69476E-01 1.31963E-25
4.73832E-01 1.28387E-25
4.78190E-01 1.24919E-25
4.82550E-01 1.21556E-25
4.86912E-01 1.18295E-25
4.91274E-01 1.15131E-25
4.95637E-01 1.12061E-25
5.00000E-01 1.09083E-25
5.04363E-01 1.06192E-25
5.08726E-01 1.03386E-25
5.13088E-01 1.00663E-25
5.17450E-01 9.80185E-26
5.21810E-01 9.54507E-26
5.26168E-01 9.29570E-26
5.30524E-01 9.05348E-26
5.34878E-01 8.81818E-26
5.39230E-01 8.58956E-26
5.43578E-01 8.36742E-26
5.47923E-01 8.15154E-26
5.52264E-01 7.94171E-26
5.56602E-01 7.73775E-26
5.60935E-01 7.53945E-26
5.65263E-01 7.34665E-26
5.69587E-01 7.15916E-26
5.73905E-01 6.97681E-26
5.78217E-01 6.79945E-26
5.82524E-01 6.62691E-26
5.86824E-01 6.45905E-26
5.91118E-01 6.29572E-26
5.95404E-01 6.13678E-26
5.99684E-01 5.98209E-26
6.03956E-01 5.83153E-26
6.08220E-01 5.68497E-26
6.12476E-01 5.54228E-26
6.16723E-01 5.40335E-26
6.20961E-01 5.26807E-26
6.25190E-01 5.13632E-26
6.29410E-01 5.00800E-26
6.33619E-01 4.88301E-26
6.37819E-01 4.76125E-26
6.42008E-01 4.64263E-26
6.46186E-01 4.52705E-26
6.50353E-01 4.41442E-26
6.54508E-01 4.30466E-26
6.58652E-01 4.19769E-26
6.62784E-01 4.09342E-26
6.66903E-01 3.99177E-26
6.71010E-01 3.89268E-26
6.75104E-01 3.79607E-26
6.79184E-01 3.70187E-26
6.83251E-01 3.61001E-26
6.87303E-01 3.52043E-26
6.91342E-01 3.43306E-26
6.95366E-01 3.34784E-26
6.99375E-01 3.26471E-26
7.03368E-01 3.18361E-26
7.07347E-01 3.10449E-26
7.11309E-01 3.02729E-26
7.15256E-01 2.95197E-26
7.19186E-01 2.87846E-26
7.23099E-01 2.80672E-26
7.26995E-01 2.73671E-26
7.30874E-01 2.66838E-26
7.34736E-01 2.60168E-26
7.38579E-01 2.53656E-26
7.42405E-01 2.47300E-26
7.46212E-01 2.41094E-26
7.50000E-01 2.35035E-26
7.53769E-01 2.29118E-26
7.57519E-01 2.23341E-26
7.61249E-01 2.17699E-26
7.64960E-01 2.12190E-26
7.68650E-01 2.06809E-26
7.72320E-01 2.01553E-26
7.75968E-01 1.96420E-26
7.79596E-01 1.91406E-26
7.83203E-01 1.86508E-26
7.86788E-01 1.81723E-26
7.90351E-01 1.77048E-26
7.93893E-01 1.72481E-26
7.97411E-01 1.68019E-26
8.00908E-01 1.63659E-26
8.04381E-01 1.59400E-26
8.07831E-01 1.55237E-26
8.11257E-01 1.51170E-26
8.14660E-01 1.47195E-26
8.18039E-01 1.43311E-26
8.21394E-01 1.39515E-26
8.24724E-01 1.35806E-26
8.28030E-01 1.32180E-26
8.31310E-01 1.28637E-26
8.34565E-01 1.25174E-26
8.37795E-01 1.21789E-26
8.40999E-01 1.18481E-26
8.44177E-01 1.15248E-26
8.47329E-01 1.12088E-26
8.50455E-01 1.08999E-26
8.53553E-01 1.05980E-26
8.56625E-01 1.03029E-26
8.59670E-01 1.00144E-26
8.62687E-01 9.73249E-27
8.65677E-01 9.45692E-27
8.68639E-01 9.18758E-27
8.71572E-01 8.92433E-27
8.74478E-01 8.66703E-27
8.77355E-01 8.41556E-27
8.80203E-01 8.16977E-27
8.83022E-01 7.92957E-27
8.85812E-01 7.69481E-27
8.88573E-01 7.46539E-27
8.91304E-01 7.24120E-27
8.94005E-01 7.02212E-27
8.96677E-01 6.80805E-27
8.99318E-01 6.59887E-27
9.01928E-01 6.39450E-27
9.04508E-01 6.19484E-27
9.07058E-01 5.99978E-27
9.09576E-01 5.80923E-27
9.12063E-01 5.62310E-27
9.14519E-01 5.44132E-27
9.16943E-01 5.26378E-27
9.19335E-01 5.09040E-27
9.21696E-01 4.92112E-27
9.24024E-01 4.75583E-27
9.26320E-01 4.59448E-27
9.28584E-01 4.43699E-27
9.30815E-01 4.28327E-27
9.33013E-01 4.13327E-27
9.35178E-01 3.98692E-27
9.37310E-01 3.84414E-27
9.39409E-01 3.70487E-27
9.41474E-01 3.56905E-27
9.43505E-01 3.43663E-27
9.45503E-01 3.30753E-27
9.47467E-01 3.18171E-27
9.49397E-01 3.05910E-27
9.51293E-01 2.93965E-27
9.53154E-01 2.82332E-27
9.54981E-01 2.71004E-27
9.56773E-01 2.59977E-27
9.58530E-01 2.49246E-27
9.60252E-01 2.38806E-27
9.61940E-01 2.28654E-27
9.63592E-01 2.18783E-27
9.65209E-01 2.09191E-27
9.66790E-01 1.99873E-27
9.68336E-01 1.90825E-27
9.69846E-01 1.82043E-27
9.71321E-01 1.73524E-27
9.72759E-01 1.65263E-27
9.74162E-01 1.57258E-27
9.75528E-01 1.49504E-27
9.76858E-01 1.41999E-27
9.78152E-01 1.34740E-27
9.79410E-01 1.27723E-27
9.80631E-01 1.20945E-27
9.81815E-01 1.14404E-27
9.82963E-01 1.08097E-27
9.84074E-01 1.02021E-27
9.85148E-01 9.61738E-28
9.86185E-01 9.05529E-28
9.87185E-01 8.51559E-28
9.88148E-01 7.99808E-28
9.89074E-01 7.50252E-28
9.89962E-01 7.02871E-28
9.90814E-01 6.57647E-28
9.91627E-01 6.14559E-28
9.92404E-01 5.73592E-28
9.93143E-01 5.34728E-28
9.93844E-01 4.97950E-28
9.94508E-01 4.63245E-28
9.95134E-01 4.30597E-28
9.95722E-01 3.99994E-28
9.96273E-01 3.71423E-28
9.96786E-01 3.44872E-28
9.97261E-01 3.20332E-28
9.97698E-01 2.97790E-28
9.98097E-01 2.77240E-28
9.98459E-01 2.58671E-28
9.98782E-01 2.42077E-28
9.99067E-01 2.27452E-28
9.99315E-01 2.14788E-28
9.99524E-01 2.04081E-28
9.99695E-01 1.95327E-28
9.99829E-01 1.88522E-28
9.99924E-01 1.83663E-28
9.99981E-01 1.80748E-28
1.00000E+00 1.79777E-28
