 #
 # Subroutine ELSEPA. Elastic scattering of electrons and positrons
 #                    by neutral atoms and positive ions
 #
 # Projectile: positron
 # Kinetic energy = 2.50000E+06 eV = 9.18733E+04 a.u.
 #
 # WARNING: High-energy factorization with free-atom DF screening.
 #          Absorption, polarization and exchange corrections are
 #          switched off.
 #          Phase shifts are calculated for the bare nucleus.
 #          Scattering amplitudes are not evaluated.
 #
 # Element:  Y,  Z =  39,  atomic weight = 8.89059E+01 g/mol
 #
 # Nuclear model: Fermi distribution
 #                Average radius = 4.77559E-13 cm
 #                Skin thickness = 5.46000E-14 cm
 #
 # Number of electrons = 39
 #
 # Total elastic cross section = 4.05347E-18 cm**2 = 1.44752E-01 a0**2
 # 1st transport cross section = 2.10033E-22 cm**2 = 7.50042E-06 a0**2
 # 2nd transport cross section = 6.00715E-22 cm**2 = 2.14519E-05 a0**2
 #
 #
 # Differential cross section:                       MU=(1-COS(THETA))/2
 #
 #  THETA        MU          DCS          DCS        Sherman      error
 #  (deg)                 (cm**2/sr)   (a0**2/sr)    function
 #----------------------------------------------------------------------
0.00000E+00 5.48290E-13
7.61557E-13 5.48287E-13
1.18994E-12 5.48285E-13
1.71346E-12 5.48284E-13
2.33225E-12 5.48282E-13
3.04617E-12 5.48279E-13
3.85530E-12 5.48277E-13
4.75964E-12 5.48274E-13
5.75917E-12 5.48271E-13
6.85391E-12 5.48267E-13
8.04379E-12 5.48264E-13
9.32893E-12 5.48260E-13
1.07092E-11 5.48256E-13
1.21847E-11 5.48251E-13
1.37554E-11 5.48246E-13
1.54213E-11 5.48241E-13
1.71823E-11 5.48236E-13
1.90386E-11 5.48230E-13
2.09900E-11 5.48224E-13
2.30367E-11 5.48218E-13
2.51785E-11 5.48211E-13
2.74156E-11 5.48204E-13
2.97478E-11 5.48197E-13
3.21752E-11 5.48190E-13
3.46979E-11 5.48182E-13
3.73157E-11 5.48174E-13
4.00286E-11 5.48166E-13
4.28368E-11 5.48158E-13
4.57402E-11 5.48149E-13
4.87388E-11 5.48140E-13
5.18325E-11 5.48130E-13
5.50215E-11 5.48121E-13
5.83057E-11 5.48111E-13
6.16850E-11 5.48100E-13
6.51595E-11 5.48090E-13
6.87293E-11 5.48079E-13
7.23943E-11 5.48068E-13
7.61544E-11 5.48057E-13
1.18991E-10 5.47927E-13
1.71347E-10 5.47769E-13
2.33223E-10 5.47583E-13
3.04617E-10 5.47368E-13
3.85531E-10 5.47126E-13
4.75965E-10 5.46855E-13
5.75917E-10 5.46555E-13
6.85389E-10 5.46228E-13
8.04380E-10 5.45873E-13
9.32891E-10 5.45489E-13
1.07092E-09 5.45078E-13
1.21847E-09 5.44639E-13
1.37554E-09 5.44173E-13
1.54213E-09 5.43679E-13
1.71823E-09 5.43157E-13
1.90386E-09 5.42609E-13
2.09900E-09 5.42033E-13
2.30367E-09 5.41430E-13
2.51785E-09 5.40800E-13
2.74156E-09 5.40143E-13
2.97478E-09 5.39460E-13
3.21752E-09 5.38751E-13
3.46978E-09 5.38015E-13
3.73156E-09 5.37253E-13
4.00286E-09 5.36465E-13
4.28368E-09 5.35652E-13
4.57402E-09 5.34813E-13
4.87388E-09 5.33948E-13
5.18326E-09 5.33059E-13
5.50215E-09 5.32144E-13
5.83057E-09 5.31205E-13
6.16850E-09 5.30241E-13
6.51596E-09 5.29253E-13
6.87293E-09 5.28241E-13
7.23942E-09 5.27205E-13
7.61544E-09 5.26145E-13
1.18991E-08 5.14303E-13
1.71347E-08 5.00383E-13
2.33223E-08 4.84675E-13
3.04617E-08 4.67522E-13
3.85531E-08 4.49158E-13
4.75965E-08 4.29991E-13
5.75917E-08 4.10204E-13
6.85389E-08 3.90240E-13
8.04380E-08 3.70149E-13
9.32891E-08 3.50380E-13
1.07092E-07 3.30898E-13
1.21847E-07 3.12043E-13
1.37554E-07 2.93796E-13
1.54213E-07 2.76341E-13
1.71823E-07 2.59702E-13
1.90386E-07 2.43912E-13
2.09900E-07 2.29044E-13
2.30367E-07 2.15005E-13
2.51785E-07 2.01920E-13
2.74156E-07 1.89595E-13
2.97478E-07 1.78200E-13
3.21752E-07 1.67498E-13
3.46978E-07 1.57617E-13
3.73156E-07 1.48381E-13
4.00286E-07 1.39840E-13
4.28368E-07 1.31888E-13
4.57402E-07 1.24516E-13
4.87388E-07 1.17671E-13
5.18325E-07 1.11307E-13
5.50215E-07 1.05404E-13
5.83057E-07 9.98995E-14
6.16850E-07 9.47927E-14
6.51596E-07 9.00194E-14
6.87293E-07 8.55824E-14
7.23942E-07 8.14299E-14
7.61543E-07 7.75540E-14
1.18991E-06 4.96520E-14
1.71347E-06 3.35724E-14
2.33223E-06 2.34940E-14
3.04617E-06 1.66957E-14
3.85531E-06 1.23190E-14
4.75964E-06 9.23011E-15
5.75916E-06 7.10776E-15
6.85388E-06 5.54187E-15
8.04378E-06 4.42663E-15
9.32888E-06 3.57173E-15
1.07092E-05 2.93439E-15
1.21846E-05 2.43113E-15
1.37553E-05 2.03836E-15
1.54212E-05 1.72074E-15
1.71822E-05 1.46319E-15
1.90385E-05 1.25167E-15
2.09899E-05 1.07530E-15
2.30365E-05 9.29417E-16
2.51783E-05 8.04559E-16
2.74153E-05 7.00860E-16
2.97475E-05 6.10702E-16
3.21749E-05 5.35278E-16
3.46974E-05 4.69680E-16
3.73152E-05 4.14058E-16
4.00281E-05 3.65777E-16
4.28362E-05 3.24299E-16
4.57395E-05 2.88282E-16
4.87380E-05 2.57009E-16
5.18317E-05 2.29802E-16
5.50205E-05 2.05984E-16
5.83045E-05 1.85202E-16
6.16838E-05 1.66900E-16
6.51582E-05 1.50866E-16
6.87277E-05 1.36631E-16
7.23925E-05 1.24085E-16
7.61524E-05 1.12935E-16
9.21439E-05 7.92585E-17
1.09658E-04 5.73974E-17
1.28695E-04 4.26671E-17
1.49255E-04 3.24170E-17
1.71338E-04 2.50953E-17
1.94942E-04 1.97403E-17
2.20070E-04 1.57421E-17
2.46720E-04 1.27036E-17
2.74892E-04 1.03524E-17
3.04586E-04 8.52431E-18
3.35803E-04 7.07711E-18
3.68542E-04 5.92454E-18
4.02802E-04 4.99199E-18
4.38585E-04 4.23712E-18
4.75889E-04 3.61589E-18
5.14715E-04 3.10540E-18
5.55063E-04 2.67993E-18
5.96931E-04 2.32520E-18
6.40321E-04 2.02653E-18
6.85233E-04 1.77430E-18
7.31665E-04 1.55986E-18
7.79618E-04 1.37677E-18
8.29092E-04 1.21972E-18
8.80086E-04 1.08434E-18
9.32601E-04 9.67269E-19
9.86636E-04 8.65475E-19
1.04219E-03 7.76791E-19
1.09927E-03 6.99101E-19
1.15786E-03 6.30935E-19
1.21797E-03 5.70838E-19
1.27961E-03 5.17751E-19
1.34276E-03 4.70680E-19
1.40743E-03 4.28846E-19
1.47362E-03 3.91557E-19
1.54133E-03 3.58230E-19
1.61056E-03 3.28380E-19
1.68131E-03 3.01568E-19
1.75357E-03 2.77446E-19
1.82735E-03 2.55676E-19
1.90265E-03 2.36008E-19
1.97947E-03 2.18186E-19
2.05780E-03 2.02021E-19
2.13765E-03 1.87319E-19
2.21902E-03 1.73932E-19
2.30190E-03 1.61716E-19
2.38630E-03 1.50554E-19
2.47222E-03 1.40337E-19
2.55965E-03 1.30970E-19
2.64859E-03 1.22371E-19
2.73905E-03 1.14463E-19
2.83103E-03 1.07186E-19
2.92452E-03 1.00473E-19
3.01952E-03 9.42783E-20
3.11604E-03 8.85507E-20
3.21407E-03 8.32519E-20
3.31362E-03 7.83414E-20
3.41468E-03 7.37872E-20
3.51725E-03 6.95578E-20
3.62133E-03 6.56262E-20
3.72692E-03 6.19679E-20
3.83403E-03 5.85595E-20
3.94265E-03 5.53821E-20
4.05278E-03 5.24157E-20
4.16442E-03 4.96455E-20
4.27757E-03 4.70541E-20
4.39223E-03 4.46297E-20
4.50840E-03 4.23582E-20
4.62608E-03 4.02293E-20
4.74527E-03 3.82315E-20
4.86597E-03 3.63559E-20
4.98817E-03 3.45933E-20
5.11188E-03 3.29357E-20
5.23711E-03 3.13759E-20
5.36383E-03 2.99068E-20
5.49207E-03 2.85224E-20
5.62181E-03 2.72166E-20
5.75306E-03 2.59845E-20
5.88581E-03 2.48208E-20
6.02007E-03 2.37214E-20
6.15583E-03 2.26816E-20
6.29310E-03 2.16981E-20
6.43187E-03 2.07670E-20
6.57214E-03 1.98850E-20
6.71392E-03 1.90491E-20
6.85720E-03 1.82565E-20
7.00198E-03 1.75044E-20
7.14827E-03 1.67904E-20
7.29605E-03 1.61123E-20
7.44534E-03 1.54678E-20
7.59612E-03 1.48552E-20
7.97965E-03 1.34503E-20
8.37255E-03 1.22068E-20
8.77480E-03 1.11029E-20
9.18641E-03 1.01204E-20
9.60736E-03 9.24356E-21
1.00376E-02 8.45914E-21
1.04773E-02 7.75569E-21
1.09262E-02 7.12345E-21
1.13844E-02 6.55396E-21
1.18520E-02 6.03991E-21
1.23288E-02 5.57498E-21
1.28150E-02 5.15366E-21
1.33104E-02 4.77114E-21
1.38150E-02 4.42325E-21
1.43290E-02 4.10629E-21
1.48521E-02 3.81702E-21
1.53845E-02 3.55263E-21
1.59262E-02 3.31058E-21
1.64770E-02 3.08865E-21
1.70371E-02 2.88489E-21
1.76063E-02 2.69754E-21
1.81848E-02 2.52505E-21
1.87724E-02 2.36604E-21
1.93692E-02 2.21925E-21
1.99751E-02 2.08359E-21
2.05901E-02 1.95806E-21
2.12143E-02 1.84178E-21
2.18476E-02 1.73394E-21
2.24900E-02 1.63381E-21
2.31415E-02 1.54075E-21
2.38021E-02 1.45418E-21
2.44717E-02 1.37355E-21
2.51504E-02 1.29839E-21
2.58382E-02 1.22826E-21
2.65349E-02 1.16276E-21
2.72407E-02 1.10154E-21
2.79555E-02 1.04426E-21
2.86793E-02 9.90625E-22
2.94120E-02 9.40358E-22
3.01537E-02 8.93214E-22
3.09043E-02 8.48961E-22
3.16639E-02 8.07392E-22
3.24324E-02 7.68313E-22
3.32098E-02 7.31550E-22
3.39961E-02 6.96939E-22
3.47912E-02 6.64333E-22
3.55952E-02 6.33594E-22
3.64081E-02 6.04596E-22
3.72297E-02 5.77223E-22
3.80602E-02 5.51366E-22
3.88995E-02 5.26928E-22
3.97476E-02 5.03815E-22
4.06044E-02 4.81944E-22
4.14700E-02 4.61234E-22
4.23443E-02 4.41615E-22
4.32273E-02 4.23017E-22
4.41190E-02 4.05378E-22
4.50194E-02 3.88639E-22
4.59284E-02 3.72747E-22
4.68461E-02 3.57650E-22
4.87074E-02 3.29658E-22
5.06030E-02 3.04324E-22
5.25328E-02 2.81352E-22
5.44967E-02 2.60485E-22
5.64946E-02 2.41496E-22
5.85262E-02 2.24187E-22
6.05914E-02 2.08384E-22
6.26901E-02 1.93934E-22
6.48222E-02 1.80700E-22
6.69873E-02 1.68562E-22
6.91854E-02 1.57415E-22
7.14163E-02 1.47162E-22
7.36799E-02 1.37720E-22
7.59760E-02 1.29014E-22
7.83043E-02 1.20976E-22
8.06647E-02 1.13546E-22
8.30571E-02 1.06670E-22
8.54812E-02 1.00300E-22
8.79369E-02 9.43915E-23
9.04240E-02 8.89056E-23
9.29422E-02 8.38066E-23
9.54915E-02 7.90626E-23
9.80716E-02 7.46445E-23
1.00682E-01 7.05261E-23
1.03323E-01 6.66833E-23
1.05995E-01 6.30947E-23
1.08696E-01 5.97403E-23
1.11427E-01 5.66022E-23
1.14188E-01 5.36640E-23
1.16978E-01 5.09108E-23
1.19797E-01 4.83289E-23
1.22645E-01 4.59057E-23
1.25522E-01 4.36297E-23
1.28428E-01 4.14905E-23
1.31361E-01 3.94784E-23
1.34323E-01 3.75845E-23
1.37313E-01 3.58006E-23
1.40330E-01 3.41193E-23
1.43375E-01 3.25335E-23
1.46447E-01 3.10370E-23
1.49545E-01 2.96237E-23
1.52671E-01 2.82883E-23
1.55823E-01 2.70257E-23
1.59001E-01 2.58313E-23
1.62205E-01 2.47006E-23
1.65435E-01 2.36298E-23
1.68690E-01 2.26150E-23
1.71970E-01 2.16529E-23
1.75276E-01 2.07402E-23
1.78606E-01 1.98740E-23
1.81961E-01 1.90513E-23
1.85340E-01 1.82698E-23
1.88743E-01 1.75269E-23
1.92169E-01 1.68205E-23
1.95619E-01 1.61483E-23
1.99092E-01 1.55085E-23
2.02589E-01 1.48993E-23
2.06107E-01 1.43188E-23
2.09649E-01 1.37655E-23
2.13212E-01 1.32380E-23
2.16797E-01 1.27347E-23
2.20404E-01 1.22545E-23
2.24032E-01 1.17960E-23
2.27680E-01 1.13581E-23
2.31350E-01 1.09397E-23
2.35040E-01 1.05398E-23
2.38751E-01 1.01574E-23
2.42481E-01 9.79165E-24
2.46231E-01 9.44167E-24
2.50000E-01 9.10667E-24
2.53788E-01 8.78589E-24
2.57595E-01 8.47863E-24
2.61421E-01 8.18421E-24
2.65264E-01 7.90200E-24
2.69126E-01 7.63141E-24
2.73005E-01 7.37188E-24
2.76901E-01 7.12287E-24
2.80814E-01 6.88389E-24
2.84744E-01 6.65447E-24
2.88691E-01 6.43414E-24
2.92653E-01 6.22249E-24
2.96632E-01 6.01913E-24
3.00625E-01 5.82367E-24
3.04634E-01 5.63574E-24
3.08658E-01 5.45500E-24
3.12697E-01 5.28115E-24
3.16749E-01 5.11386E-24
3.20816E-01 4.95284E-24
3.24896E-01 4.79781E-24
3.28990E-01 4.64853E-24
3.33097E-01 4.50475E-24
3.37216E-01 4.36621E-24
3.41348E-01 4.23269E-24
3.45492E-01 4.10399E-24
3.49647E-01 3.97990E-24
3.53814E-01 3.86023E-24
3.57992E-01 3.74479E-24
3.62181E-01 3.63340E-24
3.66381E-01 3.52591E-24
3.70590E-01 3.42215E-24
3.74810E-01 3.32196E-24
3.79039E-01 3.22521E-24
3.83277E-01 3.13176E-24
3.87524E-01 3.04147E-24
3.91780E-01 2.95422E-24
3.96044E-01 2.86989E-24
4.00316E-01 2.78836E-24
4.04596E-01 2.70954E-24
4.08882E-01 2.63330E-24
4.13176E-01 2.55956E-24
4.17476E-01 2.48821E-24
4.21783E-01 2.41918E-24
4.26095E-01 2.35236E-24
4.30413E-01 2.28767E-24
4.34737E-01 2.22505E-24
4.39065E-01 2.16440E-24
4.43398E-01 2.10566E-24
4.47736E-01 2.04875E-24
4.52077E-01 1.99361E-24
4.56422E-01 1.94018E-24
4.60770E-01 1.88839E-24
4.65122E-01 1.83819E-24
4.69476E-01 1.78952E-24
4.73832E-01 1.74232E-24
4.78190E-01 1.69654E-24
4.82550E-01 1.65213E-24
4.86912E-01 1.60905E-24
4.91274E-01 1.56725E-24
4.95637E-01 1.52668E-24
5.00000E-01 1.48730E-24
5.04363E-01 1.44908E-24
5.08726E-01 1.41196E-24
5.13088E-01 1.37592E-24
5.17450E-01 1.34092E-24
5.21810E-01 1.30692E-24
5.26168E-01 1.27389E-24
5.30524E-01 1.24180E-24
5.34878E-01 1.21061E-24
5.39230E-01 1.18030E-24
5.43578E-01 1.15084E-24
5.47923E-01 1.12220E-24
5.52264E-01 1.09436E-24
5.56602E-01 1.06728E-24
5.60935E-01 1.04095E-24
5.65263E-01 1.01534E-24
5.69587E-01 9.90432E-25
5.73905E-01 9.66196E-25
5.78217E-01 9.42615E-25
5.82524E-01 9.19667E-25
5.86824E-01 8.97335E-25
5.91118E-01 8.75597E-25
5.95404E-01 8.54437E-25
5.99684E-01 8.33836E-25
6.03956E-01 8.13777E-25
6.08220E-01 7.94244E-25
6.12476E-01 7.75222E-25
6.16723E-01 7.56694E-25
6.20961E-01 7.38646E-25
6.25190E-01 7.21064E-25
6.29410E-01 7.03934E-25
6.33619E-01 6.87243E-25
6.37819E-01 6.70977E-25
6.42008E-01 6.55125E-25
6.46186E-01 6.39674E-25
6.50353E-01 6.24612E-25
6.54508E-01 6.09929E-25
6.58652E-01 5.95614E-25
6.62784E-01 5.81656E-25
6.66903E-01 5.68044E-25
6.71010E-01 5.54770E-25
6.75104E-01 5.41823E-25
6.79184E-01 5.29194E-25
6.83251E-01 5.16875E-25
6.87303E-01 5.04857E-25
6.91342E-01 4.93131E-25
6.95366E-01 4.81689E-25
6.99375E-01 4.70525E-25
7.03368E-01 4.59629E-25
7.07347E-01 4.48995E-25
7.11309E-01 4.38616E-25
7.15256E-01 4.28485E-25
7.19186E-01 4.18595E-25
7.23099E-01 4.08940E-25
7.26995E-01 3.99513E-25
7.30874E-01 3.90309E-25
7.34736E-01 3.81322E-25
7.38579E-01 3.72545E-25
7.42405E-01 3.63974E-25
7.46212E-01 3.55602E-25
7.50000E-01 3.47426E-25
7.53769E-01 3.39440E-25
7.57519E-01 3.31638E-25
7.61249E-01 3.24017E-25
7.64960E-01 3.16571E-25
7.68650E-01 3.09296E-25
7.72320E-01 3.02188E-25
7.75968E-01 2.95243E-25
7.79596E-01 2.88457E-25
7.83203E-01 2.81825E-25
7.86788E-01 2.75344E-25
7.90351E-01 2.69010E-25
7.93893E-01 2.62820E-25
7.97411E-01 2.56770E-25
8.00908E-01 2.50856E-25
8.04381E-01 2.45076E-25
8.07831E-01 2.39425E-25
8.11257E-01 2.33902E-25
8.14660E-01 2.28503E-25
8.18039E-01 2.23224E-25
8.21394E-01 2.18064E-25
8.24724E-01 2.13019E-25
8.28030E-01 2.08087E-25
8.31310E-01 2.03265E-25
8.34565E-01 1.98551E-25
8.37795E-01 1.93941E-25
8.40999E-01 1.89434E-25
8.44177E-01 1.85028E-25
8.47329E-01 1.80719E-25
8.50455E-01 1.76506E-25
8.53553E-01 1.72387E-25
8.56625E-01 1.68359E-25
8.59670E-01 1.64421E-25
8.62687E-01 1.60570E-25
8.65677E-01 1.56805E-25
8.68639E-01 1.53124E-25
8.71572E-01 1.49524E-25
8.74478E-01 1.46005E-25
8.77355E-01 1.42564E-25
8.80203E-01 1.39200E-25
8.83022E-01 1.35911E-25
8.85812E-01 1.32696E-25
8.88573E-01 1.29552E-25
8.91304E-01 1.26480E-25
8.94005E-01 1.23476E-25
8.96677E-01 1.20540E-25
8.99318E-01 1.17670E-25
9.01928E-01 1.14865E-25
9.04508E-01 1.12124E-25
9.07058E-01 1.09445E-25
9.09576E-01 1.06828E-25
9.12063E-01 1.04270E-25
9.14519E-01 1.01771E-25
9.16943E-01 9.93299E-26
9.19335E-01 9.69452E-26
9.21696E-01 9.46160E-26
9.24024E-01 9.23412E-26
9.26320E-01 9.01198E-26
9.28584E-01 8.79508E-26
9.30815E-01 8.58333E-26
9.33013E-01 8.37663E-26
9.35178E-01 8.17490E-26
9.37310E-01 7.97804E-26
9.39409E-01 7.78597E-26
9.41474E-01 7.59860E-26
9.43505E-01 7.41586E-26
9.45503E-01 7.23766E-26
9.47467E-01 7.06394E-26
9.49397E-01 6.89461E-26
9.51293E-01 6.72960E-26
9.53154E-01 6.56884E-26
9.54981E-01 6.41228E-26
9.56773E-01 6.25983E-26
9.58530E-01 6.11144E-26
9.60252E-01 5.96704E-26
9.61940E-01 5.82657E-26
9.63592E-01 5.68998E-26
9.65209E-01 5.55721E-26
9.66790E-01 5.42820E-26
9.68336E-01 5.30291E-26
9.69846E-01 5.18127E-26
9.71321E-01 5.06324E-26
9.72759E-01 4.94877E-26
9.74162E-01 4.83782E-26
9.75528E-01 4.73034E-26
9.76858E-01 4.62628E-26
9.78152E-01 4.52561E-26
9.79410E-01 4.42828E-26
9.80631E-01 4.33425E-26
9.81815E-01 4.24350E-26
9.82963E-01 4.15597E-26
9.84074E-01 4.07163E-26
9.85148E-01 3.99046E-26
9.86185E-01 3.91242E-26
9.87185E-01 3.83747E-26
9.88148E-01 3.76560E-26
9.89074E-01 3.69676E-26
9.89962E-01 3.63094E-26
9.90814E-01 3.56811E-26
9.91627E-01 3.50823E-26
9.92404E-01 3.45130E-26
9.93143E-01 3.39728E-26
9.93844E-01 3.34616E-26
9.94508E-01 3.29791E-26
9.95134E-01 3.25252E-26
9.95722E-01 3.20997E-26
9.96273E-01 3.17024E-26
9.96786E-01 3.13331E-26
9.97261E-01 3.09918E-26
9.97698E-01 3.06783E-26
9.98097E-01 3.03924E-26
9.98459E-01 3.01341E-26
9.98782E-01 2.99033E-26
9.99067E-01 2.96998E-26
9.99315E-01 2.95236E-26
9.99524E-01 2.93747E-26
9.99695E-01 2.92529E-26
9.99829E-01 2.91582E-26
9.99924E-01 2.90906E-26
9.99981E-01 2.90500E-26
1.00000E+00 2.90365E-26
