 #
 # Subroutine ELSEPA. Elastic scattering of electrons and positrons
 #                    by neutral atoms and positive ions
 #
 # Projectile: positron
 # Kinetic energy = 1.75000E+06 eV = 6.43113E+04 a.u.
 #
 # WARNING: High-energy factorization with free-atom DF screening.
 #          Absorption, polarization and exchange corrections are
 #          switched off.
 #          Phase shifts are calculated for the bare nucleus.
 #          Scattering amplitudes are not evaluated.
 #
 # Element:  Y,  Z =  39,  atomic weight = 8.89059E+01 g/mol
 #
 # Nuclear model: Fermi distribution
 #                Average radius = 4.77559E-13 cm
 #                Skin thickness = 5.46000E-14 cm
 #
 # Number of electrons = 39
 #
 # Total elastic cross section = 4.14726E-18 cm**2 = 1.48101E-01 a0**2
 # 1st transport cross section = 3.66174E-22 cm**2 = 1.30763E-05 a0**2
 # 2nd transport cross section = 1.04223E-21 cm**2 = 3.72187E-05 a0**2
 #
 #
 # Differential cross section:                       MU=(1-COS(THETA))/2
 #
 #  THETA        MU          DCS          DCS        Sherman      error
 #  (deg)                 (cm**2/sr)   (a0**2/sr)    function
 #----------------------------------------------------------------------
0.00000E+00 3.09164E-13
7.61557E-13 3.09163E-13
1.18994E-12 3.09163E-13
1.71346E-12 3.09162E-13
2.33225E-12 3.09162E-13
3.04617E-12 3.09161E-13
3.85530E-12 3.09160E-13
4.75964E-12 3.09159E-13
5.75917E-12 3.09158E-13
6.85391E-12 3.09157E-13
8.04379E-12 3.09156E-13
9.32893E-12 3.09155E-13
1.07092E-11 3.09153E-13
1.21847E-11 3.09152E-13
1.37554E-11 3.09151E-13
1.54213E-11 3.09149E-13
1.71823E-11 3.09147E-13
1.90386E-11 3.09145E-13
2.09900E-11 3.09144E-13
2.30367E-11 3.09142E-13
2.51785E-11 3.09140E-13
2.74156E-11 3.09137E-13
2.97478E-11 3.09135E-13
3.21752E-11 3.09133E-13
3.46979E-11 3.09130E-13
3.73157E-11 3.09128E-13
4.00286E-11 3.09125E-13
4.28368E-11 3.09123E-13
4.57402E-11 3.09120E-13
4.87388E-11 3.09117E-13
5.18325E-11 3.09114E-13
5.50215E-11 3.09111E-13
5.83057E-11 3.09108E-13
6.16850E-11 3.09105E-13
6.51595E-11 3.09101E-13
6.87293E-11 3.09098E-13
7.23943E-11 3.09095E-13
7.61544E-11 3.09091E-13
1.18991E-10 3.09051E-13
1.71347E-10 3.09001E-13
2.33223E-10 3.08943E-13
3.04617E-10 3.08876E-13
3.85531E-10 3.08800E-13
4.75965E-10 3.08716E-13
5.75917E-10 3.08622E-13
6.85389E-10 3.08520E-13
8.04380E-10 3.08409E-13
9.32891E-10 3.08290E-13
1.07092E-09 3.08161E-13
1.21847E-09 3.08024E-13
1.37554E-09 3.07878E-13
1.54213E-09 3.07724E-13
1.71823E-09 3.07560E-13
1.90386E-09 3.07388E-13
2.09900E-09 3.07208E-13
2.30367E-09 3.07019E-13
2.51785E-09 3.06821E-13
2.74156E-09 3.06615E-13
2.97478E-09 3.06400E-13
3.21752E-09 3.06177E-13
3.46978E-09 3.05945E-13
3.73156E-09 3.05705E-13
4.00286E-09 3.05457E-13
4.28368E-09 3.05200E-13
4.57402E-09 3.04934E-13
4.87388E-09 3.04661E-13
5.18326E-09 3.04379E-13
5.50215E-09 3.04089E-13
5.83057E-09 3.03791E-13
6.16850E-09 3.03484E-13
6.51596E-09 3.03170E-13
6.87293E-09 3.02847E-13
7.23942E-09 3.02516E-13
7.61544E-09 3.02178E-13
1.18991E-08 2.98361E-13
1.71347E-08 2.93798E-13
2.33223E-08 2.88544E-13
3.04617E-08 2.82661E-13
3.85531E-08 2.76217E-13
4.75965E-08 2.69282E-13
5.75917E-08 2.61949E-13
6.85389E-08 2.54244E-13
8.04380E-08 2.46280E-13
9.32891E-08 2.38116E-13
1.07092E-07 2.29782E-13
1.21847E-07 2.21434E-13
1.37554E-07 2.13025E-13
1.54213E-07 2.04676E-13
1.71823E-07 1.96416E-13
1.90386E-07 1.88239E-13
2.09900E-07 1.80297E-13
2.30367E-07 1.72492E-13
2.51785E-07 1.64932E-13
2.74156E-07 1.57611E-13
2.97478E-07 1.50500E-13
3.21752E-07 1.43726E-13
3.46978E-07 1.37167E-13
3.73156E-07 1.30910E-13
4.00286E-07 1.24929E-13
4.28368E-07 1.19187E-13
4.57402E-07 1.13774E-13
4.87388E-07 1.08581E-13
5.18325E-07 1.03669E-13
5.50215E-07 9.90059E-14
5.83057E-07 9.45575E-14
6.16850E-07 9.03838E-14
6.51596E-07 8.63985E-14
6.87293E-07 8.26416E-14
7.23942E-07 7.90845E-14
7.61543E-07 7.57017E-14
1.18991E-06 5.04605E-14
1.71347E-06 3.54069E-14
2.33223E-06 2.58367E-14
3.04617E-06 1.93695E-14
3.85531E-06 1.48005E-14
4.75964E-06 1.14717E-14
5.75916E-06 8.92176E-15
6.85388E-06 7.12882E-15
8.04378E-06 5.74905E-15
9.32888E-06 4.67734E-15
1.07092E-05 3.87462E-15
1.21846E-05 3.21683E-15
1.37553E-05 2.71129E-15
1.54212E-05 2.30290E-15
1.71822E-05 1.97113E-15
1.90385E-05 1.70475E-15
2.09899E-05 1.47746E-15
2.30365E-05 1.29238E-15
2.51783E-05 1.13431E-15
2.74153E-05 9.99641E-16
2.97475E-05 8.86718E-16
3.21749E-05 7.85837E-16
3.46974E-05 7.00841E-16
3.73152E-05 6.25892E-16
4.00281E-05 5.60295E-16
4.28362E-05 5.03797E-16
4.57395E-05 4.52462E-16
4.87380E-05 4.08155E-16
5.18317E-05 3.68480E-16
5.50205E-05 3.33246E-16
5.83045E-05 3.02332E-16
6.16838E-05 2.74184E-16
6.51582E-05 2.49476E-16
6.87277E-05 2.27220E-16
7.23925E-05 2.07296E-16
7.61524E-05 1.89580E-16
9.21439E-05 1.34344E-16
1.09658E-04 9.76301E-17
1.28695E-04 7.25902E-17
1.49255E-04 5.51022E-17
1.71338E-04 4.26435E-17
1.94942E-04 3.35595E-17
2.20070E-04 2.68036E-17
2.46720E-04 2.16857E-17
2.74892E-04 1.77435E-17
3.04586E-04 1.46673E-17
3.35803E-04 1.22332E-17
3.68542E-04 1.02856E-17
4.02802E-04 8.71063E-18
4.38585E-04 7.42383E-18
4.75889E-04 6.36465E-18
5.14715E-04 5.48276E-18
5.55063E-04 4.75236E-18
5.96931E-04 4.13688E-18
6.40321E-04 3.61658E-18
6.85233E-04 3.17679E-18
7.31665E-04 2.79853E-18
7.79618E-04 2.47594E-18
8.29092E-04 2.19756E-18
8.80086E-04 1.95681E-18
9.32601E-04 1.74845E-18
9.86636E-04 1.56609E-18
1.04219E-03 1.40719E-18
1.09927E-03 1.26763E-18
1.15786E-03 1.14485E-18
1.21797E-03 1.03666E-18
1.27961E-03 9.40660E-19
1.34276E-03 8.55624E-19
1.40743E-03 7.79879E-19
1.47362E-03 7.12306E-19
1.54133E-03 6.51931E-19
1.61056E-03 5.97726E-19
1.68131E-03 5.49083E-19
1.75357E-03 5.05250E-19
1.82735E-03 4.65700E-19
1.90265E-03 4.29961E-19
1.97947E-03 3.97552E-19
2.05780E-03 3.68160E-19
2.13765E-03 3.41419E-19
2.21902E-03 3.17062E-19
2.30190E-03 2.94847E-19
2.38630E-03 2.74527E-19
2.47222E-03 2.55940E-19
2.55965E-03 2.38891E-19
2.64859E-03 2.23239E-19
2.73905E-03 2.08852E-19
2.83103E-03 1.95596E-19
2.92452E-03 1.83382E-19
3.01952E-03 1.72101E-19
3.11604E-03 1.61675E-19
3.21407E-03 1.52029E-19
3.31362E-03 1.43085E-19
3.41468E-03 1.34793E-19
3.51725E-03 1.27090E-19
3.62133E-03 1.19929E-19
3.72692E-03 1.13267E-19
3.83403E-03 1.07056E-19
3.94265E-03 1.01268E-19
4.05278E-03 9.58630E-20
4.16442E-03 9.08137E-20
4.27757E-03 8.60929E-20
4.39223E-03 8.16721E-20
4.50840E-03 7.75329E-20
4.62608E-03 7.36503E-20
4.74527E-03 7.00076E-20
4.86597E-03 6.65875E-20
4.98817E-03 6.33717E-20
5.11188E-03 6.03485E-20
5.23711E-03 5.75018E-20
5.36383E-03 5.48208E-20
5.49207E-03 5.22942E-20
5.62181E-03 4.99101E-20
5.75306E-03 4.76607E-20
5.88581E-03 4.55354E-20
6.02007E-03 4.35271E-20
6.15583E-03 4.16282E-20
6.29310E-03 3.98306E-20
6.43187E-03 3.81293E-20
6.57214E-03 3.65170E-20
6.71392E-03 3.49888E-20
6.85720E-03 3.35396E-20
7.00198E-03 3.21638E-20
7.14827E-03 3.08580E-20
7.29605E-03 2.96171E-20
7.44534E-03 2.84378E-20
7.59612E-03 2.73165E-20
7.97965E-03 2.47443E-20
8.37255E-03 2.24665E-20
8.77480E-03 2.04435E-20
9.18641E-03 1.86420E-20
9.60736E-03 1.70336E-20
1.00376E-02 1.55940E-20
1.04773E-02 1.43025E-20
1.09262E-02 1.31412E-20
1.13844E-02 1.20947E-20
1.18520E-02 1.11498E-20
1.23288E-02 1.02947E-20
1.28150E-02 9.51963E-21
1.33104E-02 8.81565E-21
1.38150E-02 8.17514E-21
1.43290E-02 7.59138E-21
1.48521E-02 7.05846E-21
1.53845E-02 6.57119E-21
1.59262E-02 6.12496E-21
1.64770E-02 5.71571E-21
1.70371E-02 5.33984E-21
1.76063E-02 4.99415E-21
1.81848E-02 4.67579E-21
1.87724E-02 4.38221E-21
1.93692E-02 4.11114E-21
1.99751E-02 3.86056E-21
2.05901E-02 3.62864E-21
2.12143E-02 3.41375E-21
2.18476E-02 3.21441E-21
2.24900E-02 3.02930E-21
2.31415E-02 2.85722E-21
2.38021E-02 2.69709E-21
2.44717E-02 2.54793E-21
2.51504E-02 2.40886E-21
2.58382E-02 2.27908E-21
2.65349E-02 2.15784E-21
2.72407E-02 2.04450E-21
2.79555E-02 1.93844E-21
2.86793E-02 1.83911E-21
2.94120E-02 1.74601E-21
3.01537E-02 1.65867E-21
3.09043E-02 1.57668E-21
3.16639E-02 1.49965E-21
3.24324E-02 1.42723E-21
3.32098E-02 1.35909E-21
3.39961E-02 1.29493E-21
3.47912E-02 1.23447E-21
3.55952E-02 1.17748E-21
3.64081E-02 1.12370E-21
3.72297E-02 1.07293E-21
3.80602E-02 1.02497E-21
3.88995E-02 9.79632E-22
3.97476E-02 9.36751E-22
4.06044E-02 8.96168E-22
4.14700E-02 8.57738E-22
4.23443E-02 8.21326E-22
4.32273E-02 7.86807E-22
4.41190E-02 7.54064E-22
4.50194E-02 7.22989E-22
4.59284E-02 6.93483E-22
4.68461E-02 6.65452E-22
4.87074E-02 6.13469E-22
5.06030E-02 5.66415E-22
5.25328E-02 5.23743E-22
5.44967E-02 4.84974E-22
5.64946E-02 4.49688E-22
5.85262E-02 4.17519E-22
6.05914E-02 3.88146E-22
6.26901E-02 3.61283E-22
6.48222E-02 3.36678E-22
6.69873E-02 3.14108E-22
6.91854E-02 2.93377E-22
7.14163E-02 2.74308E-22
7.36799E-02 2.56745E-22
7.59760E-02 2.40548E-22
7.83043E-02 2.25592E-22
8.06647E-02 2.11767E-22
8.30571E-02 1.98971E-22
8.54812E-02 1.87114E-22
8.79369E-02 1.76116E-22
9.04240E-02 1.65903E-22
9.29422E-02 1.56410E-22
9.54915E-02 1.47577E-22
9.80716E-02 1.39350E-22
1.00682E-01 1.31680E-22
1.03323E-01 1.24523E-22
1.05995E-01 1.17838E-22
1.08696E-01 1.11589E-22
1.11427E-01 1.05743E-22
1.14188E-01 1.00268E-22
1.16978E-01 9.51377E-23
1.19797E-01 9.03260E-23
1.22645E-01 8.58097E-23
1.25522E-01 8.15675E-23
1.28428E-01 7.75798E-23
1.31361E-01 7.38287E-23
1.34323E-01 7.02976E-23
1.37313E-01 6.69713E-23
1.40330E-01 6.38360E-23
1.43375E-01 6.08786E-23
1.46447E-01 5.80874E-23
1.49545E-01 5.54512E-23
1.52671E-01 5.29601E-23
1.55823E-01 5.06046E-23
1.59001E-01 4.83759E-23
1.62205E-01 4.62662E-23
1.65435E-01 4.42679E-23
1.68690E-01 4.23740E-23
1.71970E-01 4.05782E-23
1.75276E-01 3.88746E-23
1.78606E-01 3.72574E-23
1.81961E-01 3.57216E-23
1.85340E-01 3.42624E-23
1.88743E-01 3.28752E-23
1.92169E-01 3.15559E-23
1.95619E-01 3.03005E-23
1.99092E-01 2.91054E-23
2.02589E-01 2.79673E-23
2.06107E-01 2.68829E-23
2.09649E-01 2.58492E-23
2.13212E-01 2.48635E-23
2.16797E-01 2.39230E-23
2.20404E-01 2.30255E-23
2.24032E-01 2.21685E-23
2.27680E-01 2.13500E-23
2.31350E-01 2.05678E-23
2.35040E-01 1.98201E-23
2.38751E-01 1.91052E-23
2.42481E-01 1.84212E-23
2.46231E-01 1.77667E-23
2.50000E-01 1.71401E-23
2.53788E-01 1.65401E-23
2.57595E-01 1.59653E-23
2.61421E-01 1.54145E-23
2.65264E-01 1.48864E-23
2.69126E-01 1.43801E-23
2.73005E-01 1.38944E-23
2.76901E-01 1.34283E-23
2.80814E-01 1.29810E-23
2.84744E-01 1.25515E-23
2.88691E-01 1.21390E-23
2.92653E-01 1.17427E-23
2.96632E-01 1.13619E-23
3.00625E-01 1.09958E-23
3.04634E-01 1.06438E-23
3.08658E-01 1.03053E-23
3.12697E-01 9.97956E-24
3.16749E-01 9.66611E-24
3.20816E-01 9.36439E-24
3.24896E-01 9.07389E-24
3.28990E-01 8.79410E-24
3.33097E-01 8.52457E-24
3.37216E-01 8.26486E-24
3.41348E-01 8.01454E-24
3.45492E-01 7.77323E-24
3.49647E-01 7.54053E-24
3.53814E-01 7.31608E-24
3.57992E-01 7.09955E-24
3.62181E-01 6.89060E-24
3.66381E-01 6.68893E-24
3.70590E-01 6.49423E-24
3.74810E-01 6.30623E-24
3.79039E-01 6.12465E-24
3.83277E-01 5.94924E-24
3.87524E-01 5.77974E-24
3.91780E-01 5.61594E-24
3.96044E-01 5.45760E-24
4.00316E-01 5.30450E-24
4.04596E-01 5.15646E-24
4.08882E-01 5.01326E-24
4.13176E-01 4.87473E-24
4.17476E-01 4.74068E-24
4.21783E-01 4.61096E-24
4.26095E-01 4.48538E-24
4.30413E-01 4.36381E-24
4.34737E-01 4.24608E-24
4.39065E-01 4.13207E-24
4.43398E-01 4.02162E-24
4.47736E-01 3.91461E-24
4.52077E-01 3.81092E-24
4.56422E-01 3.71042E-24
4.60770E-01 3.61300E-24
4.65122E-01 3.51855E-24
4.69476E-01 3.42696E-24
4.73832E-01 3.33813E-24
4.78190E-01 3.25197E-24
4.82550E-01 3.16838E-24
4.86912E-01 3.08727E-24
4.91274E-01 3.00855E-24
4.95637E-01 2.93216E-24
5.00000E-01 2.85799E-24
5.04363E-01 2.78598E-24
5.08726E-01 2.71606E-24
5.13088E-01 2.64815E-24
5.17450E-01 2.58219E-24
5.21810E-01 2.51811E-24
5.26168E-01 2.45585E-24
5.30524E-01 2.39535E-24
5.34878E-01 2.33655E-24
5.39230E-01 2.27939E-24
5.43578E-01 2.22383E-24
5.47923E-01 2.16981E-24
5.52264E-01 2.11728E-24
5.56602E-01 2.06620E-24
5.60935E-01 2.01651E-24
5.65263E-01 1.96817E-24
5.69587E-01 1.92115E-24
5.73905E-01 1.87539E-24
5.78217E-01 1.83086E-24
5.82524E-01 1.78752E-24
5.86824E-01 1.74534E-24
5.91118E-01 1.70428E-24
5.95404E-01 1.66430E-24
5.99684E-01 1.62537E-24
6.03956E-01 1.58746E-24
6.08220E-01 1.55054E-24
6.12476E-01 1.51458E-24
6.16723E-01 1.47955E-24
6.20961E-01 1.44542E-24
6.25190E-01 1.41216E-24
6.29410E-01 1.37976E-24
6.33619E-01 1.34818E-24
6.37819E-01 1.31740E-24
6.42008E-01 1.28740E-24
6.46186E-01 1.25816E-24
6.50353E-01 1.22965E-24
6.54508E-01 1.20185E-24
6.58652E-01 1.17474E-24
6.62784E-01 1.14830E-24
6.66903E-01 1.12252E-24
6.71010E-01 1.09737E-24
6.75104E-01 1.07283E-24
6.79184E-01 1.04890E-24
6.83251E-01 1.02555E-24
6.87303E-01 1.00277E-24
6.91342E-01 9.80535E-25
6.95366E-01 9.58838E-25
6.99375E-01 9.37662E-25
7.03368E-01 9.16994E-25
7.07347E-01 8.96818E-25
7.11309E-01 8.77123E-25
7.15256E-01 8.57896E-25
7.19186E-01 8.39123E-25
7.23099E-01 8.20792E-25
7.26995E-01 8.02893E-25
7.30874E-01 7.85413E-25
7.34736E-01 7.68341E-25
7.38579E-01 7.51668E-25
7.42405E-01 7.35382E-25
7.46212E-01 7.19474E-25
7.50000E-01 7.03933E-25
7.53769E-01 6.88751E-25
7.57519E-01 6.73918E-25
7.61249E-01 6.59425E-25
7.64960E-01 6.45264E-25
7.68650E-01 6.31427E-25
7.72320E-01 6.17904E-25
7.75968E-01 6.04689E-25
7.79596E-01 5.91774E-25
7.83203E-01 5.79151E-25
7.86788E-01 5.66813E-25
7.90351E-01 5.54754E-25
7.93893E-01 5.42965E-25
7.97411E-01 5.31442E-25
8.00908E-01 5.20177E-25
8.04381E-01 5.09163E-25
8.07831E-01 4.98396E-25
8.11257E-01 4.87870E-25
8.14660E-01 4.77578E-25
8.18039E-01 4.67514E-25
8.21394E-01 4.57675E-25
8.24724E-01 4.48054E-25
8.28030E-01 4.38646E-25
8.31310E-01 4.29447E-25
8.34565E-01 4.20451E-25
8.37795E-01 4.11654E-25
8.40999E-01 4.03052E-25
8.44177E-01 3.94640E-25
8.47329E-01 3.86414E-25
8.50455E-01 3.78369E-25
8.53553E-01 3.70502E-25
8.56625E-01 3.62808E-25
8.59670E-01 3.55284E-25
8.62687E-01 3.47927E-25
8.65677E-01 3.40732E-25
8.68639E-01 3.33696E-25
8.71572E-01 3.26815E-25
8.74478E-01 3.20087E-25
8.77355E-01 3.13507E-25
8.80203E-01 3.07074E-25
8.83022E-01 3.00783E-25
8.85812E-01 2.94632E-25
8.88573E-01 2.88618E-25
8.91304E-01 2.82738E-25
8.94005E-01 2.76989E-25
8.96677E-01 2.71369E-25
8.99318E-01 2.65875E-25
9.01928E-01 2.60505E-25
9.04508E-01 2.55256E-25
9.07058E-01 2.50125E-25
9.09576E-01 2.45111E-25
9.12063E-01 2.40211E-25
9.14519E-01 2.35424E-25
9.16943E-01 2.30745E-25
9.19335E-01 2.26175E-25
9.21696E-01 2.21710E-25
9.24024E-01 2.17349E-25
9.26320E-01 2.13090E-25
9.28584E-01 2.08931E-25
9.30815E-01 2.04870E-25
9.33013E-01 2.00905E-25
9.35178E-01 1.97036E-25
9.37310E-01 1.93259E-25
9.39409E-01 1.89573E-25
9.41474E-01 1.85978E-25
9.43505E-01 1.82470E-25
9.45503E-01 1.79050E-25
9.47467E-01 1.75715E-25
9.49397E-01 1.72464E-25
9.51293E-01 1.69296E-25
9.53154E-01 1.66209E-25
9.54981E-01 1.63202E-25
9.56773E-01 1.60274E-25
9.58530E-01 1.57423E-25
9.60252E-01 1.54649E-25
9.61940E-01 1.51950E-25
9.63592E-01 1.49326E-25
9.65209E-01 1.46774E-25
9.66790E-01 1.44295E-25
9.68336E-01 1.41886E-25
9.69846E-01 1.39548E-25
9.71321E-01 1.37279E-25
9.72759E-01 1.35078E-25
9.74162E-01 1.32945E-25
9.75528E-01 1.30878E-25
9.76858E-01 1.28877E-25
9.78152E-01 1.26941E-25
9.79410E-01 1.25069E-25
9.80631E-01 1.23260E-25
9.81815E-01 1.21514E-25
9.82963E-01 1.19830E-25
9.84074E-01 1.18207E-25
9.85148E-01 1.16646E-25
9.86185E-01 1.15144E-25
9.87185E-01 1.13702E-25
9.88148E-01 1.12318E-25
9.89074E-01 1.10993E-25
9.89962E-01 1.09727E-25
9.90814E-01 1.08517E-25
9.91627E-01 1.07365E-25
9.92404E-01 1.06269E-25
9.93143E-01 1.05229E-25
9.93844E-01 1.04244E-25
9.94508E-01 1.03315E-25
9.95134E-01 1.02441E-25
9.95722E-01 1.01622E-25
9.96273E-01 1.00857E-25
9.96786E-01 1.00146E-25
9.97261E-01 9.94888E-26
9.97698E-01 9.88851E-26
9.98097E-01 9.83346E-26
9.98459E-01 9.78371E-26
9.98782E-01 9.73926E-26
9.99067E-01 9.70007E-26
9.99315E-01 9.66614E-26
9.99524E-01 9.63745E-26
9.99695E-01 9.61399E-26
9.99829E-01 9.59575E-26
9.99924E-01 9.58273E-26
9.99981E-01 9.57492E-26
1.00000E+00 9.57231E-26
