 #
 # Subroutine ELSEPA. Elastic scattering of electrons and positrons
 #                    by neutral atoms and positive ions
 #
 # Projectile: positron
 # Kinetic energy = 1.00000E+09 eV = 3.67493E+07 a.u.
 #
 # WARNING: High-energy factorization with free-atom DF screening.
 #          Absorption, polarization and exchange corrections are
 #          switched off.
 #          Phase shifts are calculated for the bare nucleus.
 #          Scattering amplitudes are not evaluated.
 #
 # Element:  Y,  Z =  39,  atomic weight = 8.89059E+01 g/mol
 #
 # Nuclear model: Fermi distribution
 #                Average radius = 4.77559E-13 cm
 #                Skin thickness = 5.46000E-14 cm
 #
 # Number of electrons = 39
 #
 # Total elastic cross section = 3.85613E-18 cm**2 = 1.37705E-01 a0**2
 # 1st transport cross section = 3.04427E-27 cm**2 = 1.08713E-10 a0**2
 # 2nd transport cross section = 9.13180E-27 cm**2 = 3.26103E-10 a0**2
 #
 #
 # Differential cross section:                       MU=(1-COS(THETA))/2
 #
 #  THETA        MU          DCS          DCS        Sherman      error
 #  (deg)                 (cm**2/sr)   (a0**2/sr)    function
 #----------------------------------------------------------------------
0.00000E+00 6.05386E-08
7.61557E-13 3.98121E-08
1.18994E-12 3.27241E-08
1.71346E-12 2.65482E-08
2.33225E-12 2.14730E-08
3.04617E-12 1.74373E-08
3.85530E-12 1.42811E-08
4.75964E-12 1.18229E-08
5.75917E-12 9.89960E-09
6.85391E-12 8.37977E-09
8.04379E-12 7.16186E-09
9.32893E-12 6.17207E-09
1.07092E-11 5.35691E-09
1.21847E-11 4.67725E-09
1.37554E-11 4.10442E-09
1.54213E-11 3.61642E-09
1.71823E-11 3.19832E-09
1.90386E-11 2.83794E-09
2.09900E-11 2.52581E-09
2.30367E-11 2.25327E-09
2.51785E-11 2.00291E-09
2.74156E-11 1.79102E-09
2.97478E-11 1.61060E-09
3.21752E-11 1.45611E-09
3.46979E-11 1.32309E-09
3.73157E-11 1.19944E-09
4.00286E-11 1.08662E-09
4.28368E-11 9.88617E-10
4.57402E-11 9.03103E-10
4.87388E-11 8.28161E-10
5.18325E-11 7.61721E-10
5.50215E-11 6.98606E-10
5.83057E-11 6.42837E-10
6.16850E-11 5.93380E-10
6.51595E-11 5.49373E-10
6.87293E-11 5.10085E-10
7.23943E-11 4.73527E-10
7.61544E-11 4.39915E-10
1.18991E-10 2.31337E-10
1.71347E-10 1.33942E-10
2.33223E-10 8.19381E-11
3.04617E-10 5.22412E-11
3.85531E-10 3.45122E-11
4.75965E-10 2.35655E-11
5.75917E-10 1.65985E-11
6.85389E-10 1.20203E-11
8.04380E-10 8.93190E-12
9.32891E-10 6.78812E-12
1.07092E-09 5.25929E-12
1.21847E-09 4.14273E-12
1.37554E-09 3.31047E-12
1.54213E-09 2.67874E-12
1.71823E-09 2.19169E-12
1.90386E-09 1.81068E-12
2.09900E-09 1.50880E-12
2.30367E-09 1.26692E-12
2.51785E-09 1.07058E-12
2.74156E-09 9.11853E-13
2.97478E-09 7.80396E-13
3.21752E-09 6.72095E-13
3.46978E-09 5.81539E-13
3.73156E-09 5.05687E-13
4.00286E-09 4.41723E-13
4.28368E-09 3.87430E-13
4.57402E-09 3.41253E-13
4.87388E-09 3.01614E-13
5.18326E-09 2.67627E-13
5.50215E-09 2.38188E-13
5.83057E-09 2.12738E-13
6.16850E-09 1.90537E-13
6.51596E-09 1.71181E-13
6.87293E-09 1.54200E-13
7.23942E-09 1.39279E-13
7.61544E-09 1.26117E-13
1.18991E-08 5.24879E-14
1.71347E-08 2.56157E-14
2.33223E-08 1.39571E-14
3.04617E-08 8.24149E-15
3.85531E-08 5.17456E-15
4.75965E-08 3.41001E-15
5.75917E-08 2.33709E-15
6.85389E-08 1.65457E-15
8.04380E-08 1.20380E-15
9.32891E-08 8.96492E-16
1.07092E-07 6.81206E-16
1.21847E-07 5.26791E-16
1.37554E-07 4.13722E-16
1.54213E-07 3.29407E-16
1.71823E-07 2.65505E-16
1.90386E-07 2.16366E-16
2.09900E-07 1.78081E-16
2.30367E-07 1.47897E-16
2.51785E-07 1.23844E-16
2.74156E-07 1.04485E-16
2.97478E-07 8.87642E-17
3.21752E-07 7.58909E-17
3.46978E-07 6.52682E-17
3.73156E-07 5.64403E-17
4.00286E-07 4.90552E-17
4.28368E-07 4.28392E-17
4.57402E-07 3.75771E-17
4.87388E-07 3.30984E-17
5.18325E-07 2.92675E-17
5.50215E-07 2.59749E-17
5.83057E-07 2.31326E-17
6.16850E-07 2.06685E-17
6.51596E-07 1.85239E-17
6.87293E-07 1.66503E-17
7.23942E-07 1.50077E-17
7.61543E-07 1.35627E-17
1.18991E-06 5.55621E-18
1.71347E-06 2.67952E-18
2.33223E-06 1.44626E-18
3.04617E-06 8.47689E-19
3.85531E-06 5.29150E-19
4.75964E-06 3.47133E-19
5.75916E-06 2.37065E-19
6.85388E-06 1.67362E-19
8.04378E-06 1.21492E-19
9.32888E-06 9.03127E-20
1.07092E-05 6.85229E-20
1.21846E-05 5.29245E-20
1.37553E-05 4.15222E-20
1.54212E-05 3.30311E-20
1.71822E-05 2.66032E-20
1.90385E-05 2.16617E-20
2.09899E-05 1.78223E-20
2.30365E-05 1.47961E-20
2.51783E-05 1.23845E-20
2.74153E-05 1.04438E-20
2.97475E-05 8.86810E-21
3.21749E-05 7.57854E-21
3.46974E-05 6.51525E-21
3.73152E-05 5.63230E-21
4.00281E-05 4.89417E-21
4.28362E-05 4.27317E-21
4.57395E-05 3.74758E-21
4.87380E-05 3.30026E-21
5.18317E-05 2.91761E-21
5.50205E-05 2.58875E-21
5.83045E-05 2.30490E-21
6.16838E-05 2.05890E-21
6.51582E-05 1.84488E-21
6.87277E-05 1.65798E-21
7.23925E-05 1.49417E-21
7.61524E-05 1.32046E-21
9.21439E-05 8.95172E-22
1.09658E-04 6.26711E-22
1.28695E-04 4.50751E-22
1.49255E-04 3.31637E-22
1.71338E-04 2.48811E-22
1.94942E-04 1.89833E-22
2.20070E-04 1.46977E-22
2.46720E-04 1.15271E-22
2.74892E-04 9.14372E-23
3.04586E-04 7.32693E-23
3.35803E-04 5.92423E-23
3.68542E-04 4.82900E-23
4.02802E-04 3.96499E-23
4.38585E-04 3.27702E-23
4.75889E-04 2.72461E-23
5.14715E-04 2.27758E-23
5.55063E-04 1.91329E-23
5.96931E-04 1.61448E-23
6.40321E-04 1.36794E-23
6.85233E-04 1.16339E-23
7.31665E-04 9.92832E-24
7.79618E-04 8.49948E-24
8.29092E-04 7.29725E-24
8.80086E-04 6.28168E-24
9.32601E-04 5.42059E-24
9.86636E-04 4.68795E-24
1.04219E-03 4.06262E-24
1.09927E-03 3.52728E-24
1.15786E-03 3.06773E-24
1.21797E-03 2.67222E-24
1.27961E-03 2.33102E-24
1.34276E-03 2.03602E-24
1.40743E-03 1.78043E-24
1.47362E-03 1.55858E-24
1.54133E-03 1.36568E-24
1.61056E-03 1.19766E-24
1.68131E-03 1.05111E-24
1.75357E-03 9.23098E-25
1.82735E-03 8.11143E-25
1.90265E-03 7.13115E-25
1.97947E-03 6.27192E-25
2.05780E-03 5.51805E-25
2.13765E-03 4.85606E-25
2.21902E-03 4.27429E-25
2.30190E-03 3.76267E-25
2.38630E-03 3.31246E-25
2.47222E-03 2.91608E-25
2.55965E-03 2.56694E-25
2.64859E-03 2.25929E-25
2.73905E-03 1.98813E-25
2.83103E-03 1.74906E-25
2.92452E-03 1.53825E-25
3.01952E-03 1.35235E-25
3.11604E-03 1.18841E-25
3.21407E-03 1.04384E-25
3.31362E-03 9.16363E-26
3.41468E-03 8.03982E-26
3.51725E-03 7.04931E-26
3.62133E-03 6.17655E-26
3.72692E-03 5.40784E-26
3.83403E-03 4.73104E-26
3.94265E-03 4.13549E-26
4.05278E-03 3.61170E-26
4.16442E-03 3.15134E-26
4.27757E-03 2.74699E-26
4.39223E-03 2.39212E-26
4.50840E-03 2.08093E-26
4.62608E-03 1.80830E-26
4.74527E-03 1.56967E-26
4.86597E-03 1.36103E-26
4.98817E-03 1.17881E-26
5.11188E-03 1.01987E-26
5.23711E-03 8.81396E-27
5.36383E-03 7.60931E-27
5.49207E-03 6.56281E-27
5.62181E-03 5.65510E-27
5.75306E-03 4.86906E-27
5.88581E-03 4.18955E-27
6.02007E-03 3.60320E-27
6.15583E-03 3.09820E-27
6.29310E-03 2.66414E-27
6.43187E-03 2.29183E-27
6.57214E-03 1.97318E-27
6.71392E-03 1.70109E-27
6.85720E-03 1.46929E-27
7.00198E-03 1.27230E-27
7.14827E-03 1.10529E-27
7.29605E-03 9.64066E-28
7.44534E-03 8.44934E-28
7.59612E-03 7.44682E-28
7.97965E-03 5.59173E-28
8.37255E-03 4.40594E-28
8.77480E-03 3.64936E-28
9.18641E-03 3.15832E-28
9.60736E-03 2.82390E-28
1.00376E-02 2.57588E-28
1.04773E-02 2.37091E-28
1.09262E-02 2.18398E-28
1.13844E-02 2.00215E-28
1.18520E-02 1.82019E-28
1.23288E-02 1.63747E-28
1.28150E-02 1.45585E-28
1.33104E-02 1.27829E-28
1.38150E-02 1.10794E-28
1.43290E-02 9.47652E-29
1.48521E-02 7.99673E-29
1.53845E-02 6.65550E-29
1.59262E-02 5.46129E-29
1.64770E-02 4.41626E-29
1.70371E-02 3.51724E-29
1.76063E-02 2.75689E-29
1.81848E-02 2.12483E-29
1.87724E-02 1.60869E-29
1.93692E-02 1.19507E-29
1.99751E-02 8.70233E-30
2.05901E-02 6.20742E-30
2.12143E-02 4.33901E-30
2.18476E-02 2.98053E-30
2.24900E-02 2.02776E-30
2.31415E-02 1.38969E-30
2.38021E-02 9.88694E-31
2.44717E-02 7.60082E-31
2.51504E-02 6.51224E-31
2.58382E-02 6.20412E-31
2.65349E-02 6.35570E-31
2.72407E-02 6.72891E-31
2.79555E-02 7.15498E-31
2.86793E-02 7.52163E-31
2.94120E-02 7.76142E-31
3.01537E-02 7.84124E-31
3.09043E-02 7.75329E-31
3.16639E-02 7.50745E-31
3.24324E-02 7.12496E-31
3.32098E-02 6.63345E-31
3.39961E-02 6.06311E-31
3.47912E-02 5.44380E-31
3.55952E-02 4.80312E-31
3.64081E-02 4.16517E-31
3.72297E-02 3.54981E-31
3.80602E-02 2.97246E-31
3.88995E-02 2.44420E-31
3.97476E-02 1.97208E-31
4.06044E-02 1.55959E-31
4.14700E-02 1.20728E-31
4.23443E-02 9.13268E-32
4.32273E-02 6.73878E-32
4.41190E-02 4.84160E-32
4.50194E-02 3.38374E-32
4.59284E-02 2.30404E-32
4.68461E-02 1.54093E-32
4.87074E-02 7.31542E-33
5.06030E-02 5.39398E-33
5.25328E-02 6.46112E-33
5.44967E-02 8.37156E-33
5.64946E-02 9.89533E-33
5.85262E-02 1.05053E-32
6.05914E-02 1.01448E-32
6.26901E-02 9.02080E-33
6.48222E-02 7.44301E-33
6.69873E-02 5.71688E-33
6.91854E-02 4.08367E-33
7.14163E-02 2.69814E-33
7.36799E-02 1.63138E-33
7.59760E-02 8.87749E-34
7.83043E-02 4.27177E-34
8.06647E-02 1.86678E-34
8.30571E-02 9.77768E-35
8.54812E-02 9.84458E-35
8.79369E-02 1.39657E-34
9.04240E-02 1.87541E-34
9.29422E-02 2.22437E-34
9.54915E-02 2.36159E-34
9.80716E-02 2.28564E-34
1.00682E-01 2.04223E-34
1.03323E-01 1.69659E-34
1.05995E-01 1.31371E-34
1.08696E-01 9.46435E-35
1.11427E-01 6.30320E-35
1.14188E-01 3.83367E-35
1.16978E-01 2.08871E-35
1.19797E-01 9.96871E-36
1.22645E-01 4.26973E-36
1.25522E-01 2.26774E-36
1.28428E-01 2.51571E-36
1.31361E-01 3.81825E-36
1.34323E-01 5.31000E-36
1.37313E-01 6.45822E-36
1.40330E-01 7.01598E-36
1.43375E-01 6.95022E-36
1.46447E-01 6.36450E-36
1.49545E-01 5.42913E-36
1.52671E-01 4.32764E-36
1.55823E-01 3.22021E-36
1.59001E-01 2.22502E-36
1.62205E-01 1.41234E-36
1.65435E-01 8.08945E-37
1.68690E-01 4.07444E-37
1.71970E-01 1.77975E-37
1.75276E-01 7.92805E-38
1.78606E-01 6.79101E-38
1.81961E-01 1.04750E-37
1.85340E-01 1.58803E-37
1.88743E-01 2.08613E-37
1.92169E-01 2.41886E-37
1.95619E-01 2.53967E-37
1.99092E-01 2.45749E-37
2.02589E-01 2.21510E-37
2.06107E-01 1.87034E-37
2.09649E-01 1.48171E-37
2.13212E-01 1.09897E-37
2.16797E-01 7.58274E-38
2.20404E-01 4.80977E-38
2.24032E-01 2.75016E-38
2.27680E-01 1.00000E-45
2.31350E-01 1.00000E-45
2.35040E-01 1.00000E-45
2.38751E-01 1.00000E-45
2.42481E-01 1.00000E-45
2.46231E-01 1.00000E-45
2.50000E-01 1.00000E-45
2.53788E-01 1.00000E-45
2.57595E-01 1.00000E-45
2.61421E-01 1.00000E-45
2.65264E-01 1.00000E-45
2.69126E-01 1.00000E-45
2.73005E-01 1.00000E-45
2.76901E-01 1.00000E-45
2.80814E-01 1.00000E-45
2.84744E-01 1.00000E-45
2.88691E-01 1.00000E-45
2.92653E-01 1.00000E-45
2.96632E-01 1.00000E-45
3.00625E-01 1.00000E-45
3.04634E-01 1.00000E-45
3.08658E-01 1.00000E-45
3.12697E-01 1.00000E-45
3.16749E-01 1.00000E-45
3.20816E-01 1.00000E-45
3.24896E-01 1.00000E-45
3.28990E-01 1.00000E-45
3.33097E-01 1.00000E-45
3.37216E-01 1.00000E-45
3.41348E-01 1.00000E-45
3.45492E-01 1.00000E-45
3.49647E-01 1.00000E-45
3.53814E-01 1.00000E-45
3.57992E-01 1.00000E-45
3.62181E-01 1.00000E-45
3.66381E-01 1.00000E-45
3.70590E-01 1.00000E-45
3.74810E-01 1.00000E-45
3.79039E-01 1.00000E-45
3.83277E-01 1.00000E-45
3.87524E-01 1.00000E-45
3.91780E-01 1.00000E-45
3.96044E-01 1.00000E-45
4.00316E-01 1.00000E-45
4.04596E-01 1.00000E-45
4.08882E-01 1.00000E-45
4.13176E-01 1.00000E-45
4.17476E-01 1.00000E-45
4.21783E-01 1.00000E-45
4.26095E-01 1.00000E-45
4.30413E-01 1.00000E-45
4.34737E-01 1.00000E-45
4.39065E-01 1.00000E-45
4.43398E-01 1.00000E-45
4.47736E-01 1.00000E-45
4.52077E-01 1.00000E-45
4.56422E-01 1.00000E-45
4.60770E-01 1.00000E-45
4.65122E-01 1.00000E-45
4.69476E-01 1.00000E-45
4.73832E-01 1.00000E-45
4.78190E-01 1.00000E-45
4.82550E-01 1.00000E-45
4.86912E-01 1.00000E-45
4.91274E-01 1.00000E-45
4.95637E-01 1.00000E-45
5.00000E-01 1.00000E-45
5.04363E-01 1.00000E-45
5.08726E-01 1.00000E-45
5.13088E-01 1.00000E-45
5.17450E-01 1.00000E-45
5.21810E-01 1.00000E-45
5.26168E-01 1.00000E-45
5.30524E-01 1.00000E-45
5.34878E-01 1.00000E-45
5.39230E-01 1.00000E-45
5.43578E-01 1.00000E-45
5.47923E-01 1.00000E-45
5.52264E-01 1.00000E-45
5.56602E-01 1.00000E-45
5.60935E-01 1.00000E-45
5.65263E-01 1.00000E-45
5.69587E-01 1.00000E-45
5.73905E-01 1.00000E-45
5.78217E-01 1.00000E-45
5.82524E-01 1.00000E-45
5.86824E-01 1.00000E-45
5.91118E-01 1.00000E-45
5.95404E-01 1.00000E-45
5.99684E-01 1.00000E-45
6.03956E-01 1.00000E-45
6.08220E-01 1.00000E-45
6.12476E-01 1.00000E-45
6.16723E-01 1.00000E-45
6.20961E-01 1.00000E-45
6.25190E-01 1.00000E-45
6.29410E-01 1.00000E-45
6.33619E-01 1.00000E-45
6.37819E-01 1.00000E-45
6.42008E-01 1.00000E-45
6.46186E-01 1.00000E-45
6.50353E-01 1.00000E-45
6.54508E-01 1.00000E-45
6.58652E-01 1.00000E-45
6.62784E-01 1.00000E-45
6.66903E-01 1.00000E-45
6.71010E-01 1.00000E-45
6.75104E-01 1.00000E-45
6.79184E-01 1.00000E-45
6.83251E-01 1.00000E-45
6.87303E-01 1.00000E-45
6.91342E-01 1.00000E-45
6.95366E-01 1.00000E-45
6.99375E-01 1.00000E-45
7.03368E-01 1.00000E-45
7.07347E-01 1.00000E-45
7.11309E-01 1.00000E-45
7.15256E-01 1.00000E-45
7.19186E-01 1.00000E-45
7.23099E-01 1.00000E-45
7.26995E-01 1.00000E-45
7.30874E-01 1.00000E-45
7.34736E-01 1.00000E-45
7.38579E-01 1.00000E-45
7.42405E-01 1.00000E-45
7.46212E-01 1.00000E-45
7.50000E-01 1.00000E-45
7.53769E-01 1.00000E-45
7.57519E-01 1.00000E-45
7.61249E-01 1.00000E-45
7.64960E-01 1.00000E-45
7.68650E-01 1.00000E-45
7.72320E-01 1.00000E-45
7.75968E-01 1.00000E-45
7.79596E-01 1.00000E-45
7.83203E-01 1.00000E-45
7.86788E-01 1.00000E-45
7.90351E-01 1.00000E-45
7.93893E-01 1.00000E-45
7.97411E-01 1.00000E-45
8.00908E-01 1.00000E-45
8.04381E-01 1.00000E-45
8.07831E-01 1.00000E-45
8.11257E-01 1.00000E-45
8.14660E-01 1.00000E-45
8.18039E-01 1.00000E-45
8.21394E-01 1.00000E-45
8.24724E-01 1.00000E-45
8.28030E-01 1.00000E-45
8.31310E-01 1.00000E-45
8.34565E-01 1.00000E-45
8.37795E-01 1.00000E-45
8.40999E-01 1.00000E-45
8.44177E-01 1.00000E-45
8.47329E-01 1.00000E-45
8.50455E-01 1.00000E-45
8.53553E-01 1.00000E-45
8.56625E-01 1.00000E-45
8.59670E-01 1.00000E-45
8.62687E-01 1.00000E-45
8.65677E-01 1.00000E-45
8.68639E-01 1.00000E-45
8.71572E-01 1.00000E-45
8.74478E-01 1.00000E-45
8.77355E-01 1.00000E-45
8.80203E-01 1.00000E-45
8.83022E-01 1.00000E-45
8.85812E-01 1.00000E-45
8.88573E-01 1.00000E-45
8.91304E-01 1.00000E-45
8.94005E-01 1.00000E-45
8.96677E-01 1.00000E-45
8.99318E-01 1.00000E-45
9.01928E-01 1.00000E-45
9.04508E-01 1.00000E-45
9.07058E-01 1.00000E-45
9.09576E-01 1.00000E-45
9.12063E-01 1.00000E-45
9.14519E-01 1.00000E-45
9.16943E-01 1.00000E-45
9.19335E-01 1.00000E-45
9.21696E-01 1.00000E-45
9.24024E-01 1.00000E-45
9.26320E-01 1.00000E-45
9.28584E-01 1.00000E-45
9.30815E-01 1.00000E-45
9.33013E-01 1.00000E-45
9.35178E-01 1.00000E-45
9.37310E-01 1.00000E-45
9.39409E-01 1.00000E-45
9.41474E-01 1.00000E-45
9.43505E-01 1.00000E-45
9.45503E-01 1.00000E-45
9.47467E-01 1.00000E-45
9.49397E-01 1.00000E-45
9.51293E-01 1.00000E-45
9.53154E-01 1.00000E-45
9.54981E-01 1.00000E-45
9.56773E-01 1.00000E-45
9.58530E-01 1.00000E-45
9.60252E-01 1.00000E-45
9.61940E-01 1.00000E-45
9.63592E-01 1.00000E-45
9.65209E-01 1.00000E-45
9.66790E-01 1.00000E-45
9.68336E-01 1.00000E-45
9.69846E-01 1.00000E-45
9.71321E-01 1.00000E-45
9.72759E-01 1.00000E-45
9.74162E-01 1.00000E-45
9.75528E-01 1.00000E-45
9.76858E-01 1.00000E-45
9.78152E-01 1.00000E-45
9.79410E-01 1.00000E-45
9.80631E-01 1.00000E-45
9.81815E-01 1.00000E-45
9.82963E-01 1.00000E-45
9.84074E-01 1.00000E-45
9.85148E-01 1.00000E-45
9.86185E-01 1.00000E-45
9.87185E-01 1.00000E-45
9.88148E-01 1.00000E-45
9.89074E-01 1.00000E-45
9.89962E-01 1.00000E-45
9.90814E-01 1.00000E-45
9.91627E-01 1.00000E-45
9.92404E-01 1.00000E-45
9.93143E-01 1.00000E-45
9.93844E-01 1.00000E-45
9.94508E-01 1.00000E-45
9.95134E-01 1.00000E-45
9.95722E-01 1.00000E-45
9.96273E-01 1.00000E-45
9.96786E-01 1.00000E-45
9.97261E-01 1.00000E-45
9.97698E-01 1.00000E-45
9.98097E-01 1.00000E-45
9.98459E-01 1.00000E-45
9.98782E-01 1.00000E-45
9.99067E-01 1.00000E-45
9.99315E-01 1.00000E-45
9.99524E-01 1.00000E-45
9.99695E-01 1.00000E-45
9.99829E-01 1.00000E-45
9.99924E-01 1.00000E-45
9.99981E-01 1.00000E-45
1.00000E+00 1.00000E-45
