 #
 # Subroutine ELSEPA. Elastic scattering of electrons and positrons
 #                    by neutral atoms and positive ions
 #
 # Projectile: positron
 # Kinetic energy = 4.00000E+08 eV = 1.46997E+07 a.u.
 #
 # WARNING: High-energy factorization with free-atom DF screening.
 #          Absorption, polarization and exchange corrections are
 #          switched off.
 #          Phase shifts are calculated for the bare nucleus.
 #          Scattering amplitudes are not evaluated.
 #
 # Element:  Y,  Z =  39,  atomic weight = 8.89059E+01 g/mol
 #
 # Nuclear model: Fermi distribution
 #                Average radius = 4.77559E-13 cm
 #                Skin thickness = 5.46000E-14 cm
 #
 # Number of electrons = 39
 #
 # Total elastic cross section = 3.93813E-18 cm**2 = 1.40633E-01 a0**2
 # 1st transport cross section = 1.89388E-26 cm**2 = 6.76317E-10 a0**2
 # 2nd transport cross section = 5.67775E-26 cm**2 = 2.02756E-09 a0**2
 #
 #
 # Differential cross section:                       MU=(1-COS(THETA))/2
 #
 #  THETA        MU          DCS          DCS        Sherman      error
 #  (deg)                 (cm**2/sr)   (a0**2/sr)    function
 #----------------------------------------------------------------------
0.00000E+00 9.70103E-09
7.61557E-13 9.00626E-09
1.18994E-12 8.64884E-09
1.71346E-12 8.24187E-09
2.33225E-12 7.79743E-09
3.04617E-12 7.33046E-09
3.85530E-12 6.85339E-09
4.75964E-12 6.37612E-09
5.75917E-12 5.90757E-09
6.85391E-12 5.45761E-09
8.04379E-12 5.02934E-09
9.32893E-12 4.62590E-09
1.07092E-11 4.25002E-09
1.21847E-11 3.90422E-09
1.37554E-11 3.58605E-09
1.54213E-11 3.29482E-09
1.71823E-11 3.03034E-09
1.90386E-11 2.79074E-09
2.09900E-11 2.57325E-09
2.30367E-11 2.37617E-09
2.51785E-11 2.19855E-09
2.74156E-11 2.03772E-09
2.97478E-11 1.89190E-09
3.21752E-11 1.75969E-09
3.46979E-11 1.63996E-09
3.73157E-11 1.53093E-09
4.00286E-11 1.43153E-09
4.28368E-11 1.34082E-09
4.57402E-11 1.25780E-09
4.87388E-11 1.18163E-09
5.18325E-11 1.11165E-09
5.50215E-11 1.04712E-09
5.83057E-11 9.87509E-10
6.16850E-11 9.32384E-10
6.51595E-11 8.81331E-10
6.87293E-11 8.33744E-10
7.23943E-11 7.89488E-10
7.61544E-11 7.48278E-10
1.18991E-10 4.53944E-10
1.71347E-10 2.86427E-10
2.33223E-10 1.91788E-10
3.04617E-10 1.32433E-10
3.85531E-10 9.48802E-11
4.75965E-10 7.03378E-11
5.75917E-10 5.36320E-11
6.85389E-10 4.16297E-11
8.04380E-10 3.29040E-11
9.32891E-10 2.64000E-11
1.07092E-09 2.14142E-11
1.21847E-09 1.74755E-11
1.37554E-09 1.43902E-11
1.54213E-09 1.19403E-11
1.71823E-09 9.95822E-12
1.90386E-09 8.34923E-12
2.09900E-09 7.04518E-12
2.30367E-09 5.97949E-12
2.51785E-09 5.09739E-12
2.74156E-09 4.36934E-12
2.97478E-09 3.76558E-12
3.21752E-09 3.26155E-12
3.46978E-09 2.83773E-12
3.73156E-09 2.48063E-12
4.00286E-09 2.17816E-12
4.28368E-09 1.92069E-12
4.57402E-09 1.70054E-12
4.87388E-09 1.51163E-12
5.18326E-09 1.34875E-12
5.50215E-09 1.20754E-12
5.83057E-09 1.08466E-12
6.16850E-09 9.77322E-13
6.51596E-09 8.83200E-13
6.87293E-09 8.00208E-13
7.23942E-09 7.26906E-13
7.61544E-09 6.61950E-13
1.18991E-08 2.89313E-13
1.71347E-08 1.45692E-13
2.33223E-08 8.07913E-14
3.04617E-08 4.81852E-14
3.85531E-08 3.04389E-14
4.75965E-08 2.01472E-14
5.75917E-08 1.38589E-14
6.85389E-08 9.84482E-15
8.04380E-08 7.18608E-15
9.32891E-08 5.36860E-15
1.07092E-07 4.09190E-15
1.21847E-07 3.17362E-15
1.37554E-07 2.49934E-15
1.54213E-07 1.99508E-15
1.71823E-07 1.61188E-15
1.90386E-07 1.31644E-15
2.09900E-07 1.08569E-15
2.30367E-07 9.03340E-16
2.51785E-07 7.57698E-16
2.74156E-07 6.40236E-16
2.97478E-07 5.44663E-16
3.21752E-07 4.66262E-16
3.46978E-07 4.01462E-16
3.73156E-07 3.47527E-16
4.00286E-07 3.02344E-16
4.28368E-07 2.64262E-16
4.57402E-07 2.31986E-16
4.87388E-07 2.04485E-16
5.18325E-07 1.80937E-16
5.50215E-07 1.60680E-16
5.83057E-07 1.43177E-16
6.16850E-07 1.27991E-16
6.51596E-07 1.14765E-16
6.87293E-07 1.03201E-16
7.23942E-07 9.30575E-17
7.61543E-07 8.41286E-17
1.18991E-06 3.45504E-17
1.71347E-06 1.66832E-17
2.33223E-06 9.01102E-18
3.04617E-06 5.28388E-18
3.85531E-06 3.29926E-18
4.75964E-06 2.16479E-18
5.75916E-06 1.47859E-18
6.85388E-06 1.04394E-18
8.04378E-06 7.57880E-19
9.32888E-06 5.63412E-19
1.07092E-05 4.27495E-19
1.21846E-05 3.30194E-19
1.37553E-05 2.59062E-19
1.54212E-05 2.06090E-19
1.71822E-05 1.65989E-19
1.90385E-05 1.35159E-19
2.09899E-05 1.11205E-19
2.30365E-05 9.23239E-20
2.51783E-05 7.72773E-20
2.74153E-05 6.51679E-20
2.97475E-05 5.53364E-20
3.21749E-05 4.72901E-20
3.46974E-05 4.06554E-20
3.73152E-05 3.51461E-20
4.00281E-05 3.05402E-20
4.28362E-05 2.66653E-20
4.57395E-05 2.33856E-20
4.87380E-05 2.05943E-20
5.18317E-05 1.82066E-20
5.50205E-05 1.61545E-20
5.83045E-05 1.43833E-20
6.16838E-05 1.28482E-20
6.51582E-05 1.15126E-20
6.87277E-05 1.03463E-20
7.23925E-05 9.32417E-21
7.61524E-05 8.42187E-21
9.21439E-05 5.74613E-21
1.09658E-04 4.05218E-21
1.28695E-04 2.93820E-21
1.49255E-04 2.18123E-21
1.71338E-04 1.65262E-21
1.94942E-04 1.27442E-21
2.20070E-04 9.98156E-22
2.46720E-04 7.92590E-22
2.74892E-04 6.37092E-22
3.04586E-04 5.17752E-22
3.35803E-04 4.24935E-22
3.68542E-04 3.51892E-22
4.02802E-04 2.93782E-22
4.38585E-04 2.47096E-22
4.75889E-04 2.09249E-22
5.14715E-04 1.78311E-22
5.55063E-04 1.52828E-22
5.96931E-04 1.31688E-22
6.40321E-04 1.14037E-22
6.85233E-04 9.92082E-23
7.31665E-04 8.66793E-23
7.79618E-04 7.60377E-23
8.29092E-04 6.69537E-23
8.80086E-04 5.91632E-23
9.32601E-04 5.24527E-23
9.86636E-04 4.66485E-23
1.04219E-03 4.16088E-23
1.09927E-03 3.72165E-23
1.15786E-03 3.33753E-23
1.21797E-03 3.00049E-23
1.27961E-03 2.70384E-23
1.34276E-03 2.44195E-23
1.40743E-03 2.21011E-23
1.47362E-03 2.00432E-23
1.54133E-03 1.82117E-23
1.61056E-03 1.65778E-23
1.68131E-03 1.51168E-23
1.75357E-03 1.38075E-23
1.82735E-03 1.26316E-23
1.90265E-03 1.15734E-23
1.97947E-03 1.06192E-23
2.05780E-03 9.75726E-24
2.13765E-03 8.97717E-24
2.21902E-03 8.26999E-24
2.30190E-03 7.62782E-24
2.38630E-03 7.04376E-24
2.47222E-03 6.51175E-24
2.55965E-03 6.02643E-24
2.64859E-03 5.58308E-24
2.73905E-03 5.17751E-24
2.83103E-03 4.80601E-24
2.92452E-03 4.46529E-24
3.01952E-03 4.15242E-24
3.11604E-03 3.86479E-24
3.21407E-03 3.60004E-24
3.31362E-03 3.35610E-24
3.41468E-03 3.13109E-24
3.51725E-03 2.92333E-24
3.62133E-03 2.73129E-24
3.72692E-03 2.55363E-24
3.83403E-03 2.38912E-24
3.94265E-03 2.23663E-24
4.05278E-03 2.09517E-24
4.16442E-03 1.96384E-24
4.27757E-03 1.84180E-24
4.39223E-03 1.72831E-24
4.50840E-03 1.62268E-24
4.62608E-03 1.52431E-24
4.74527E-03 1.43262E-24
4.86597E-03 1.34710E-24
4.98817E-03 1.26728E-24
5.11188E-03 1.19274E-24
5.23711E-03 1.12307E-24
5.36383E-03 1.05793E-24
5.49207E-03 9.96970E-25
5.62181E-03 9.39899E-25
5.75306E-03 8.86436E-25
5.88581E-03 8.36325E-25
6.02007E-03 7.89332E-25
6.15583E-03 7.45238E-25
6.29310E-03 7.03844E-25
6.43187E-03 6.64966E-25
6.57214E-03 6.28434E-25
6.71392E-03 5.94089E-25
6.85720E-03 5.61786E-25
7.00198E-03 5.31390E-25
7.14827E-03 5.02778E-25
7.29605E-03 4.75832E-25
7.44534E-03 4.50445E-25
7.59612E-03 4.26519E-25
7.97965E-03 3.72499E-25
8.37255E-03 3.25765E-25
8.77480E-03 2.85250E-25
9.18641E-03 2.50058E-25
9.60736E-03 2.19433E-25
1.00376E-02 1.92737E-25
1.04773E-02 1.69431E-25
1.09262E-02 1.49054E-25
1.13844E-02 1.31214E-25
1.18520E-02 1.15577E-25
1.23288E-02 1.01854E-25
1.28150E-02 8.97994E-26
1.33104E-02 7.91996E-26
1.38150E-02 6.98711E-26
1.43290E-02 6.16553E-26
1.48521E-02 5.44142E-26
1.53845E-02 4.80283E-26
1.59262E-02 4.23935E-26
1.64770E-02 3.74191E-26
1.70371E-02 3.30260E-26
1.76063E-02 2.91448E-26
1.81848E-02 2.57151E-26
1.87724E-02 2.26836E-26
1.93692E-02 2.00037E-26
1.99751E-02 1.76345E-26
2.05901E-02 1.55399E-26
2.12143E-02 1.36881E-26
2.18476E-02 1.20512E-26
2.24900E-02 1.06044E-26
2.31415E-02 9.32587E-27
2.38021E-02 8.19642E-27
2.44717E-02 7.19897E-27
2.51504E-02 6.31841E-27
2.58382E-02 5.54141E-27
2.65349E-02 4.85612E-27
2.72407E-02 4.25205E-27
2.79555E-02 3.71990E-27
2.86793E-02 3.25143E-27
2.94120E-02 2.83933E-27
3.01537E-02 2.47709E-27
3.09043E-02 2.15896E-27
3.16639E-02 1.87982E-27
3.24324E-02 1.63515E-27
3.32098E-02 1.42090E-27
3.39961E-02 1.23350E-27
3.47912E-02 1.06979E-27
3.55952E-02 9.26953E-28
3.64081E-02 8.02491E-28
3.72297E-02 6.94193E-28
3.80602E-02 6.00101E-28
3.88995E-02 5.18477E-28
3.97476E-02 4.47786E-28
4.06044E-02 3.86669E-28
4.14700E-02 3.33922E-28
4.23443E-02 2.88485E-28
4.32273E-02 2.49420E-28
4.41190E-02 2.15900E-28
4.50194E-02 1.87198E-28
4.59284E-02 1.62673E-28
4.68461E-02 1.41762E-28
4.87074E-02 1.08864E-28
5.06030E-02 8.52427E-29
5.25328E-02 6.84059E-29
5.44967E-02 5.64666E-29
5.64946E-02 4.80070E-29
5.85262E-02 4.19738E-29
6.05914E-02 3.75944E-29
6.26901E-02 3.43105E-29
6.48222E-02 3.17268E-29
6.69873E-02 2.95703E-29
6.91854E-02 2.76584E-29
7.14163E-02 2.58748E-29
7.36799E-02 2.41506E-29
7.59760E-02 2.24501E-29
7.83043E-02 2.07597E-29
8.06647E-02 1.90805E-29
8.30571E-02 1.74217E-29
8.54812E-02 1.57971E-29
8.79369E-02 1.42218E-29
9.04240E-02 1.27104E-29
9.29422E-02 1.12757E-29
9.54915E-02 9.92822E-30
9.80716E-02 8.67564E-30
1.00682E-01 7.52295E-30
1.03323E-01 6.47254E-30
1.05995E-01 5.52448E-30
1.08696E-01 4.67683E-30
1.11427E-01 3.92601E-30
1.14188E-01 3.26714E-30
1.16978E-01 2.69437E-30
1.19797E-01 2.20117E-30
1.22645E-01 1.78065E-30
1.25522E-01 1.42573E-30
1.28428E-01 1.12938E-30
1.31361E-01 8.84750E-31
1.34323E-01 6.85284E-31
1.37313E-01 5.24837E-31
1.40330E-01 3.97714E-31
1.43375E-01 2.98717E-31
1.46447E-01 2.23160E-31
1.49545E-01 1.66873E-31
1.52671E-01 1.26186E-31
1.55823E-01 9.79137E-32
1.59001E-01 7.93214E-32
1.62205E-01 6.80940E-32
1.65435E-01 6.22977E-32
1.68690E-01 6.03421E-32
1.71970E-01 6.09412E-32
1.75276E-01 6.30755E-32
1.78606E-01 6.59561E-32
1.81961E-01 6.89900E-32
1.85340E-01 7.17496E-32
1.88743E-01 7.39433E-32
1.92169E-01 7.53902E-32
1.95619E-01 7.59977E-32
1.99092E-01 7.57414E-32
2.02589E-01 7.46482E-32
2.06107E-01 7.27821E-32
2.09649E-01 7.02319E-32
2.13212E-01 6.71015E-32
2.16797E-01 6.35023E-32
2.20404E-01 5.95465E-32
2.24032E-01 5.53428E-32
2.27680E-01 5.09926E-32
2.31350E-01 4.65882E-32
2.35040E-01 4.22108E-32
2.38751E-01 3.79299E-32
2.42481E-01 3.38033E-32
2.46231E-01 2.98771E-32
2.50000E-01 2.61867E-32
2.53788E-01 2.27571E-32
2.57595E-01 1.96045E-32
2.61421E-01 1.67369E-32
2.65264E-01 1.41554E-32
2.69126E-01 1.18553E-32
2.73005E-01 9.82719E-33
2.76901E-01 8.05797E-33
2.80814E-01 6.53168E-33
2.84744E-01 5.23039E-33
2.88691E-01 4.13493E-33
2.92653E-01 3.22549E-33
2.96632E-01 2.48218E-33
3.00625E-01 1.88547E-33
3.04634E-01 1.41652E-33
3.08658E-01 1.05746E-33
3.12697E-01 7.91628E-34
3.16749E-01 6.03647E-34
3.20816E-01 4.79554E-34
3.24896E-01 4.06823E-34
3.28990E-01 3.74358E-34
3.33097E-01 3.72466E-34
3.37216E-01 3.92795E-34
3.41348E-01 4.28258E-34
3.45492E-01 4.72941E-34
3.49647E-01 5.22004E-34
3.53814E-01 5.71579E-34
3.57992E-01 6.18657E-34
3.62181E-01 6.60990E-34
3.66381E-01 6.96985E-34
3.70590E-01 7.25609E-34
3.74810E-01 7.46300E-34
3.79039E-01 7.58876E-34
3.83277E-01 7.63472E-34
3.87524E-01 7.60460E-34
3.91780E-01 7.50394E-34
3.96044E-01 7.33958E-34
4.00316E-01 7.11921E-34
4.04596E-01 6.85096E-34
4.08882E-01 6.54313E-34
4.13176E-01 6.20391E-34
4.17476E-01 5.84116E-34
4.21783E-01 5.46229E-34
4.26095E-01 5.07410E-34
4.30413E-01 4.68280E-34
4.34737E-01 4.29384E-34
4.39065E-01 3.91198E-34
4.43398E-01 3.54126E-34
4.47736E-01 3.18502E-34
4.52077E-01 2.84592E-34
4.56422E-01 2.52604E-34
4.60770E-01 2.22684E-34
4.65122E-01 1.94930E-34
4.69476E-01 1.69391E-34
4.73832E-01 1.46080E-34
4.78190E-01 1.24968E-34
4.82550E-01 1.06005E-34
4.86912E-01 8.91109E-35
4.91274E-01 7.41901E-35
4.95637E-01 6.11306E-35
5.00000E-01 4.98105E-35
5.04363E-01 4.01001E-35
5.08726E-01 3.18662E-35
5.13088E-01 2.49749E-35
5.17450E-01 1.92928E-35
5.21810E-01 1.46901E-35
5.26168E-01 1.10413E-35
5.30524E-01 8.22729E-36
5.34878E-01 6.13574E-36
5.39230E-01 4.66154E-36
5.43578E-01 3.70819E-36
5.47923E-01 3.18697E-36
5.52264E-01 3.01782E-36
5.56602E-01 3.12876E-36
5.60935E-01 3.45593E-36
5.65263E-01 3.94316E-36
5.69587E-01 4.54161E-36
5.73905E-01 5.20945E-36
5.78217E-01 5.91117E-36
5.82524E-01 6.61718E-36
5.86824E-01 7.30335E-36
5.91118E-01 7.95051E-36
5.95404E-01 8.54347E-36
5.99684E-01 9.07130E-36
6.03956E-01 9.52631E-36
6.08220E-01 9.90365E-36
6.12476E-01 1.02010E-35
6.16723E-01 1.04183E-35
6.20961E-01 1.05570E-35
6.25190E-01 1.06202E-35
6.29410E-01 1.06118E-35
6.33619E-01 1.05366E-35
6.37819E-01 1.04004E-35
6.42008E-01 1.02089E-35
6.46186E-01 9.96860E-36
6.50353E-01 9.68542E-36
6.54508E-01 9.36557E-36
6.58652E-01 9.01523E-36
6.62784E-01 8.64033E-36
6.66903E-01 8.24611E-36
6.71010E-01 7.83791E-36
6.75104E-01 7.42070E-36
6.79184E-01 6.99853E-36
6.83251E-01 6.57550E-36
6.87303E-01 6.15518E-36
6.91342E-01 5.74084E-36
6.95366E-01 5.33518E-36
6.99375E-01 4.94040E-36
7.03368E-01 4.55851E-36
7.07347E-01 4.19132E-36
7.11309E-01 3.83988E-36
7.15256E-01 3.50518E-36
7.19186E-01 3.18813E-36
7.23099E-01 2.88909E-36
7.26995E-01 2.60814E-36
7.30874E-01 2.34551E-36
7.34736E-01 2.10098E-36
7.38579E-01 1.87433E-36
7.42405E-01 1.66495E-36
7.46212E-01 1.47251E-36
7.50000E-01 1.29633E-36
7.53769E-01 1.13568E-36
7.57519E-01 9.89888E-37
7.61249E-01 8.58145E-37
7.64960E-01 7.39625E-37
7.68650E-01 6.33555E-37
7.72320E-01 5.39073E-37
7.75968E-01 4.55355E-37
7.79596E-01 3.81680E-37
7.83203E-01 3.17130E-37
7.86788E-01 2.61042E-37
7.90351E-01 2.12659E-37
7.93893E-01 1.71229E-37
7.97411E-01 1.36148E-37
8.00908E-01 1.06740E-37
8.04381E-01 8.24195E-38
8.07831E-01 6.26402E-38
8.11257E-01 4.68533E-38
8.14660E-01 3.45819E-38
8.18039E-01 2.53883E-38
8.21394E-01 1.88438E-38
8.24724E-01 1.45927E-38
8.28030E-01 1.22764E-38
8.31310E-01 1.15942E-38
8.34565E-01 1.22614E-38
8.37795E-01 1.40304E-38
8.40999E-01 1.66722E-38
8.44177E-01 1.99963E-38
8.47329E-01 2.38231E-38
8.50455E-01 2.80028E-38
8.53553E-01 3.23965E-38
8.56625E-01 3.68994E-38
8.59670E-01 4.14077E-38
8.62687E-01 4.58455E-38
8.65677E-01 5.01239E-38
8.68639E-01 5.42330E-38
8.71572E-01 5.80739E-38
8.74478E-01 6.16624E-38
8.77355E-01 6.49352E-38
8.80203E-01 6.78893E-38
8.83022E-01 7.05024E-38
8.85812E-01 7.27877E-38
8.88573E-01 7.47456E-38
8.91304E-01 7.63339E-38
8.94005E-01 7.76143E-38
8.96677E-01 7.85755E-38
8.99318E-01 7.92076E-38
9.01928E-01 7.95657E-38
9.04508E-01 7.96262E-38
9.07058E-01 7.94502E-38
9.09576E-01 7.90194E-38
9.12063E-01 7.83530E-38
9.14519E-01 7.75098E-38
9.16943E-01 7.64533E-38
9.19335E-01 7.52429E-38
9.21696E-01 7.38633E-38
9.24024E-01 7.23629E-38
9.26320E-01 7.07245E-38
9.28584E-01 6.90064E-38
9.30815E-01 6.72003E-38
9.33013E-01 6.53267E-38
9.35178E-01 6.33679E-38
9.37310E-01 6.13738E-38
9.39409E-01 5.93434E-38
9.41474E-01 5.73038E-38
9.43505E-01 5.52257E-38
9.45503E-01 5.31597E-38
9.47467E-01 5.10640E-38
9.49397E-01 4.90116E-38
9.51293E-01 4.69475E-38
9.53154E-01 4.49458E-38
9.54981E-01 4.29334E-38
9.56773E-01 4.09685E-38
9.58530E-01 3.90257E-38
9.60252E-01 3.71484E-38
9.61940E-01 3.52937E-38
9.63592E-01 3.34948E-38
9.65209E-01 3.17323E-38
9.66790E-01 3.00192E-38
9.68336E-01 2.83693E-38
9.69846E-01 2.67733E-38
9.71321E-01 2.52166E-38
9.72759E-01 2.37296E-38
9.74162E-01 2.22956E-38
9.75528E-01 2.09122E-38
9.76858E-01 1.95831E-38
9.78152E-01 1.82998E-38
9.79410E-01 1.70866E-38
9.80631E-01 1.59231E-38
9.81815E-01 1.48043E-38
9.82963E-01 1.37430E-38
9.84074E-01 1.27240E-38
9.85148E-01 1.17540E-38
9.86185E-01 1.08313E-38
9.87185E-01 9.97170E-39
9.88148E-01 9.13167E-39
9.89074E-01 8.34432E-39
9.89962E-01 7.60052E-39
9.90814E-01 6.90497E-39
9.91627E-01 6.23957E-39
9.92404E-01 5.61760E-39
9.93143E-01 5.03861E-39
9.93844E-01 4.48623E-39
9.94508E-01 3.97780E-39
9.95134E-01 3.49503E-39
9.95722E-01 3.05372E-39
9.96273E-01 2.64160E-39
9.96786E-01 2.27068E-39
9.97261E-01 1.92232E-39
9.97698E-01 1.61029E-39
9.98097E-01 1.31917E-39
9.98459E-01 1.06184E-39
9.98782E-01 8.35446E-40
9.99067E-01 6.37139E-40
9.99315E-01 4.69679E-40
9.99524E-01 3.24968E-40
9.99695E-01 2.09000E-40
9.99829E-01 1.17415E-40
9.99924E-01 5.36069E-41
9.99981E-01 1.51158E-41
1.00000E+00 2.10440E-42
