 #
 # Subroutine ELSEPA. Elastic scattering of electrons and positrons
 #                    by neutral atoms and positive ions
 #
 # Projectile: positron
 # Kinetic energy = 3.00000E+07 eV = 1.10248E+06 a.u.
 #
 # WARNING: High-energy factorization with free-atom DF screening.
 #          Absorption, polarization and exchange corrections are
 #          switched off.
 #          Phase shifts are calculated for the bare nucleus.
 #          Scattering amplitudes are not evaluated.
 #
 # Element: Nb,  Z =  41,  atomic weight = 9.29064E+01 g/mol
 #
 # Nuclear model: Fermi distribution
 #                Average radius = 4.84617E-13 cm
 #                Skin thickness = 5.46000E-14 cm
 #
 # Number of electrons = 41
 #
 # Total elastic cross section = 3.98751E-18 cm**2 = 1.42397E-01 a0**2
 # 1st transport cross section = 3.17397E-24 cm**2 = 1.13345E-07 a0**2
 # 2nd transport cross section = 9.26477E-24 cm**2 = 3.30851E-07 a0**2
 #
 #
 # Differential cross section:                       MU=(1-COS(THETA))/2
 #
 #  THETA        MU          DCS          DCS        Sherman      error
 #  (deg)                 (cm**2/sr)   (a0**2/sr)    function
 #----------------------------------------------------------------------
0.00000E+00 4.00496E-11
7.61557E-13 4.00368E-11
1.18994E-12 4.00297E-11
1.71346E-12 4.00210E-11
2.33225E-12 4.00108E-11
3.04617E-12 3.99989E-11
3.85530E-12 3.99855E-11
4.75964E-12 3.99706E-11
5.75917E-12 3.99540E-11
6.85391E-12 3.99360E-11
8.04379E-12 3.99163E-11
9.32893E-12 3.98952E-11
1.07092E-11 3.98724E-11
1.21847E-11 3.98482E-11
1.37554E-11 3.98224E-11
1.54213E-11 3.97951E-11
1.71823E-11 3.97662E-11
1.90386E-11 3.97358E-11
2.09900E-11 3.97040E-11
2.30367E-11 3.96706E-11
2.51785E-11 3.96357E-11
2.74156E-11 3.95993E-11
2.97478E-11 3.95615E-11
3.21752E-11 3.95221E-11
3.46979E-11 3.94813E-11
3.73157E-11 3.94390E-11
4.00286E-11 3.93953E-11
4.28368E-11 3.93501E-11
4.57402E-11 3.93035E-11
4.87388E-11 3.92555E-11
5.18325E-11 3.92060E-11
5.50215E-11 3.91552E-11
5.83057E-11 3.91029E-11
6.16850E-11 3.90492E-11
6.51595E-11 3.89942E-11
6.87293E-11 3.89378E-11
7.23943E-11 3.88801E-11
7.61544E-11 3.88210E-11
1.18991E-10 3.81585E-11
1.71347E-10 3.73749E-11
2.33223E-10 3.64840E-11
3.04617E-10 3.55002E-11
3.85531E-10 3.44413E-11
4.75965E-10 3.33196E-11
5.75917E-10 3.21538E-11
6.85389E-10 3.09557E-11
8.04380E-10 2.97407E-11
9.32891E-10 2.85201E-11
1.07092E-09 2.73046E-11
1.21847E-09 2.61048E-11
1.37554E-09 2.49262E-11
1.54213E-09 2.37787E-11
1.71823E-09 2.26630E-11
1.90386E-09 2.15874E-11
2.09900E-09 2.05514E-11
2.30367E-09 1.95589E-11
2.51785E-09 1.86100E-11
2.74156E-09 1.77048E-11
2.97478E-09 1.68447E-11
3.21752E-09 1.60258E-11
3.46978E-09 1.52514E-11
3.73156E-09 1.45148E-11
4.00286E-09 1.38198E-11
4.28368E-09 1.31607E-11
4.57402E-09 1.25382E-11
4.87388E-09 1.19497E-11
5.18326E-09 1.13929E-11
5.50215E-09 1.08679E-11
5.83057E-09 1.03696E-11
6.16850E-09 9.90098E-12
6.51596E-09 9.45483E-12
6.87293E-09 9.03496E-12
7.23942E-09 8.63611E-12
7.61544E-09 8.25924E-12
1.18991E-08 5.40351E-12
1.71347E-08 3.65673E-12
2.33223E-08 2.54248E-12
3.04617E-08 1.78901E-12
3.85531E-08 1.31676E-12
4.75965E-08 9.73326E-13
5.75917E-08 7.42970E-13
6.85389E-08 5.75135E-13
8.04380E-08 4.54955E-13
9.32891E-08 3.65577E-13
1.07092E-07 2.98026E-13
1.21847E-07 2.46445E-13
1.37554E-07 2.05523E-13
1.54213E-07 1.73565E-13
1.71823E-07 1.47120E-13
1.90386E-07 1.25934E-13
2.09900E-07 1.08176E-13
2.30367E-07 9.35014E-14
2.51785E-07 8.11361E-14
2.74156E-07 7.06562E-14
2.97478E-07 6.18135E-14
3.21752E-07 5.41705E-14
3.46978E-07 4.77145E-14
3.73156E-07 4.20615E-14
4.00286E-07 3.72466E-14
4.28368E-07 3.30436E-14
4.57402E-07 2.94136E-14
4.87388E-07 2.62489E-14
5.18325E-07 2.34856E-14
5.50215E-07 2.10750E-14
5.83057E-07 1.89532E-14
6.16850E-07 1.70975E-14
6.51596E-07 1.54493E-14
6.87293E-07 1.39995E-14
7.23942E-07 1.27128E-14
7.61543E-07 1.15726E-14
1.18991E-06 5.04835E-15
1.71347E-06 2.56406E-15
2.33223E-06 1.44312E-15
3.04617E-06 8.72457E-16
3.85531E-06 5.56923E-16
4.75964E-06 3.71468E-16
5.75916E-06 2.56691E-16
6.85388E-06 1.82858E-16
8.04378E-06 1.33702E-16
9.32888E-06 9.99708E-17
1.07092E-05 7.62390E-17
1.21846E-05 5.91494E-17
1.37553E-05 4.65949E-17
1.54212E-05 3.72063E-17
1.71822E-05 3.00692E-17
1.90385E-05 2.45626E-17
2.09899E-05 2.02701E-17
2.30365E-05 1.68756E-17
2.51783E-05 1.41622E-17
2.74153E-05 1.19717E-17
2.97475E-05 1.01885E-17
3.21749E-05 8.72526E-18
3.46974E-05 7.51572E-18
3.73152E-05 6.50911E-18
4.00281E-05 5.66568E-18
4.28362E-05 4.95463E-18
4.57395E-05 4.35165E-18
4.87380E-05 3.83745E-18
5.18317E-05 3.39684E-18
5.50205E-05 3.01752E-18
5.83045E-05 2.68959E-18
6.16838E-05 2.40500E-18
6.51582E-05 2.15704E-18
6.87277E-05 1.94024E-18
7.23925E-05 1.75000E-18
7.61524E-05 1.58251E-18
9.21439E-05 1.08308E-18
1.09658E-04 7.65794E-19
1.28695E-04 5.56550E-19
1.49255E-04 4.14032E-19
1.71338E-04 3.14312E-19
1.94942E-04 2.42847E-19
2.20070E-04 1.90564E-19
2.46720E-04 1.51609E-19
2.74892E-04 1.22105E-19
3.04586E-04 9.94345E-20
3.35803E-04 8.17821E-20
3.68542E-04 6.78746E-20
4.02802E-04 5.67976E-20
4.38585E-04 4.78880E-20
4.75889E-04 4.06567E-20
5.14715E-04 3.47382E-20
5.55063E-04 2.98572E-20
5.96931E-04 2.58028E-20
6.40321E-04 2.24129E-20
6.85233E-04 1.95610E-20
7.31665E-04 1.71478E-20
7.79618E-04 1.50951E-20
8.29092E-04 1.33399E-20
8.80086E-04 1.18322E-20
9.32601E-04 1.05312E-20
9.86636E-04 9.40391E-21
1.04219E-03 8.42322E-21
1.09927E-03 7.56685E-21
1.15786E-03 6.81639E-21
1.21797E-03 6.15651E-21
1.27961E-03 5.57443E-21
1.34276E-03 5.05940E-21
1.40743E-03 4.60236E-21
1.47362E-03 4.19569E-21
1.54133E-03 3.83284E-21
1.61056E-03 3.50830E-21
1.68131E-03 3.21731E-21
1.75357E-03 2.95581E-21
1.82735E-03 2.72027E-21
1.90265E-03 2.50768E-21
1.97947E-03 2.31541E-21
2.05780E-03 2.14116E-21
2.13765E-03 1.98295E-21
2.21902E-03 1.83906E-21
2.30190E-03 1.70794E-21
2.38630E-03 1.58828E-21
2.47222E-03 1.47888E-21
2.55965E-03 1.37871E-21
2.64859E-03 1.28686E-21
2.73905E-03 1.20250E-21
2.83103E-03 1.12493E-21
2.92452E-03 1.05349E-21
3.01952E-03 9.87615E-22
3.11604E-03 9.26791E-22
3.21407E-03 8.70563E-22
3.31362E-03 8.18522E-22
3.41468E-03 7.70299E-22
3.51725E-03 7.25563E-22
3.62133E-03 6.84017E-22
3.72692E-03 6.45390E-22
3.83403E-03 6.09442E-22
3.94265E-03 5.75954E-22
4.05278E-03 5.44726E-22
4.16442E-03 5.15579E-22
4.27757E-03 4.88347E-22
4.39223E-03 4.62882E-22
4.50840E-03 4.39049E-22
4.62608E-03 4.16724E-22
4.74527E-03 3.95795E-22
4.86597E-03 3.76158E-22
4.98817E-03 3.57719E-22
5.11188E-03 3.40390E-22
5.23711E-03 3.24094E-22
5.36383E-03 3.08757E-22
5.49207E-03 2.94313E-22
5.62181E-03 2.80700E-22
5.75306E-03 2.67862E-22
5.88581E-03 2.55745E-22
6.02007E-03 2.44303E-22
6.15583E-03 2.33491E-22
6.29310E-03 2.23267E-22
6.43187E-03 2.13595E-22
6.57214E-03 2.04437E-22
6.71392E-03 1.95763E-22
6.85720E-03 1.87542E-22
7.00198E-03 1.79745E-22
7.14827E-03 1.72348E-22
7.29605E-03 1.65326E-22
7.44534E-03 1.58655E-22
7.59612E-03 1.52315E-22
7.97965E-03 1.37792E-22
8.37255E-03 1.24950E-22
8.77480E-03 1.13562E-22
9.18641E-03 1.03436E-22
9.60736E-03 9.44072E-23
1.00376E-02 8.63372E-23
1.04773E-02 7.91059E-23
1.09262E-02 7.26122E-23
1.13844E-02 6.67668E-23
1.18520E-02 6.14944E-23
1.23288E-02 5.67291E-23
1.28150E-02 5.24134E-23
1.33104E-02 4.84978E-23
1.38150E-02 4.49385E-23
1.43290E-02 4.16976E-23
1.48521E-02 3.87416E-23
1.53845E-02 3.60410E-23
1.59262E-02 3.35699E-23
1.64770E-02 3.13054E-23
1.70371E-02 2.92272E-23
1.76063E-02 2.73173E-23
1.81848E-02 2.55595E-23
1.87724E-02 2.39397E-23
1.93692E-02 2.24451E-23
1.99751E-02 2.10644E-23
2.05901E-02 1.97873E-23
2.12143E-02 1.86046E-23
2.18476E-02 1.75082E-23
2.24900E-02 1.64907E-23
2.31415E-02 1.55453E-23
2.38021E-02 1.46660E-23
2.44717E-02 1.38475E-23
2.51504E-02 1.30847E-23
2.58382E-02 1.23731E-23
2.65349E-02 1.17088E-23
2.72407E-02 1.10880E-23
2.79555E-02 1.05074E-23
2.86793E-02 9.96389E-24
2.94120E-02 9.45468E-24
3.01537E-02 8.97722E-24
3.09043E-02 8.52919E-24
3.16639E-02 8.10844E-24
3.24324E-02 7.71301E-24
3.32098E-02 7.34111E-24
3.39961E-02 6.99109E-24
3.47912E-02 6.66143E-24
3.55952E-02 6.35073E-24
3.64081E-02 6.05771E-24
3.72297E-02 5.78118E-24
3.80602E-02 5.52005E-24
3.88995E-02 5.27330E-24
3.97476E-02 5.04000E-24
4.06044E-02 4.81929E-24
4.14700E-02 4.61036E-24
4.23443E-02 4.41247E-24
4.32273E-02 4.22494E-24
4.41190E-02 4.04713E-24
4.50194E-02 3.87843E-24
4.59284E-02 3.71831E-24
4.68461E-02 3.56624E-24
4.87074E-02 3.28439E-24
5.06030E-02 3.02944E-24
5.25328E-02 2.79839E-24
5.44967E-02 2.58861E-24
5.64946E-02 2.39781E-24
5.85262E-02 2.22399E-24
6.05914E-02 2.06538E-24
6.26901E-02 1.92042E-24
6.48222E-02 1.78773E-24
6.69873E-02 1.66611E-24
6.91854E-02 1.55446E-24
7.14163E-02 1.45184E-24
7.36799E-02 1.35738E-24
7.59760E-02 1.27034E-24
7.83043E-02 1.19002E-24
8.06647E-02 1.11582E-24
8.30571E-02 1.04719E-24
8.54812E-02 9.83648E-25
8.79369E-02 9.24747E-25
9.04240E-02 8.70091E-25
9.29422E-02 8.19321E-25
9.54915E-02 7.72116E-25
9.80716E-02 7.28181E-25
1.00682E-01 6.87251E-25
1.03323E-01 6.49086E-25
1.05995E-01 6.13468E-25
1.08696E-01 5.80196E-25
1.11427E-01 5.49091E-25
1.14188E-01 5.19987E-25
1.16978E-01 4.92734E-25
1.19797E-01 4.67193E-25
1.22645E-01 4.43240E-25
1.25522E-01 4.20757E-25
1.28428E-01 3.99641E-25
1.31361E-01 3.79793E-25
1.34323E-01 3.61125E-25
1.37313E-01 3.43555E-25
1.40330E-01 3.27007E-25
1.43375E-01 3.11411E-25
1.46447E-01 2.96703E-25
1.49545E-01 2.82825E-25
1.52671E-01 2.69722E-25
1.55823E-01 2.57343E-25
1.59001E-01 2.45641E-25
1.62205E-01 2.34573E-25
1.65435E-01 2.24099E-25
1.68690E-01 2.14182E-25
1.71970E-01 2.04787E-25
1.75276E-01 1.95882E-25
1.78606E-01 1.87438E-25
1.81961E-01 1.79425E-25
1.85340E-01 1.71819E-25
1.88743E-01 1.64596E-25
1.92169E-01 1.57733E-25
1.95619E-01 1.51209E-25
1.99092E-01 1.45005E-25
2.02589E-01 1.39102E-25
2.06107E-01 1.33483E-25
2.09649E-01 1.28132E-25
2.13212E-01 1.23035E-25
2.16797E-01 1.18178E-25
2.20404E-01 1.13546E-25
2.24032E-01 1.09129E-25
2.27680E-01 1.04914E-25
2.31350E-01 1.00891E-25
2.35040E-01 9.70496E-26
2.38751E-01 9.33801E-26
2.42481E-01 8.98737E-26
2.46231E-01 8.65219E-26
2.50000E-01 8.33167E-26
2.53788E-01 8.02509E-26
2.57595E-01 7.73172E-26
2.61421E-01 7.45091E-26
2.65264E-01 7.18204E-26
2.69126E-01 6.92451E-26
2.73005E-01 6.67777E-26
2.76901E-01 6.44130E-26
2.80814E-01 6.21459E-26
2.84744E-01 5.99719E-26
2.88691E-01 5.78864E-26
2.92653E-01 5.58853E-26
2.96632E-01 5.39647E-26
3.00625E-01 5.21207E-26
3.04634E-01 5.03499E-26
3.08658E-01 4.86489E-26
3.12697E-01 4.70145E-26
3.16749E-01 4.54436E-26
3.20816E-01 4.39335E-26
3.24896E-01 4.24814E-26
3.28990E-01 4.10847E-26
3.33097E-01 3.97409E-26
3.37216E-01 3.84478E-26
3.41348E-01 3.72032E-26
3.45492E-01 3.60049E-26
3.49647E-01 3.48510E-26
3.53814E-01 3.37396E-26
3.57992E-01 3.26688E-26
3.62181E-01 3.16369E-26
3.66381E-01 3.06424E-26
3.70590E-01 2.96836E-26
3.74810E-01 2.87590E-26
3.79039E-01 2.78674E-26
3.83277E-01 2.70072E-26
3.87524E-01 2.61773E-26
3.91780E-01 2.53764E-26
3.96044E-01 2.46033E-26
4.00316E-01 2.38570E-26
4.04596E-01 2.31363E-26
4.08882E-01 2.24403E-26
4.13176E-01 2.17679E-26
4.17476E-01 2.11184E-26
4.21783E-01 2.04906E-26
4.26095E-01 1.98840E-26
4.30413E-01 1.92975E-26
4.34737E-01 1.87305E-26
4.39065E-01 1.81821E-26
4.43398E-01 1.76518E-26
4.47736E-01 1.71388E-26
4.52077E-01 1.66425E-26
4.56422E-01 1.61622E-26
4.60770E-01 1.56974E-26
4.65122E-01 1.52475E-26
4.69476E-01 1.48119E-26
4.73832E-01 1.43901E-26
4.78190E-01 1.39817E-26
4.82550E-01 1.35861E-26
4.86912E-01 1.32028E-26
4.91274E-01 1.28315E-26
4.95637E-01 1.24718E-26
5.00000E-01 1.21231E-26
5.04363E-01 1.17851E-26
5.08726E-01 1.14575E-26
5.13088E-01 1.11399E-26
5.17450E-01 1.08319E-26
5.21810E-01 1.05332E-26
5.26168E-01 1.02434E-26
5.30524E-01 9.96237E-27
5.34878E-01 9.68970E-27
5.39230E-01 9.42512E-27
5.43578E-01 9.16836E-27
5.47923E-01 8.91916E-27
5.52264E-01 8.67727E-27
5.56602E-01 8.44244E-27
5.60935E-01 8.21445E-27
5.65263E-01 7.99306E-27
5.69587E-01 7.77806E-27
5.73905E-01 7.56923E-27
5.78217E-01 7.36639E-27
5.82524E-01 7.16933E-27
5.86824E-01 6.97788E-27
5.91118E-01 6.79184E-27
5.95404E-01 6.61105E-27
5.99684E-01 6.43534E-27
6.03956E-01 6.26454E-27
6.08220E-01 6.09852E-27
6.12476E-01 5.93710E-27
6.16723E-01 5.78016E-27
6.20961E-01 5.62754E-27
6.25190E-01 5.47912E-27
6.29410E-01 5.33477E-27
6.33619E-01 5.19436E-27
6.37819E-01 5.05777E-27
6.42008E-01 4.92489E-27
6.46186E-01 4.79560E-27
6.50353E-01 4.66979E-27
6.54508E-01 4.54736E-27
6.58652E-01 4.42820E-27
6.62784E-01 4.31223E-27
6.66903E-01 4.19934E-27
6.71010E-01 4.08944E-27
6.75104E-01 3.98244E-27
6.79184E-01 3.87827E-27
6.83251E-01 3.77683E-27
6.87303E-01 3.67805E-27
6.91342E-01 3.58184E-27
6.95366E-01 3.48814E-27
6.99375E-01 3.39688E-27
7.03368E-01 3.30797E-27
7.07347E-01 3.22136E-27
7.11309E-01 3.13698E-27
7.15256E-01 3.05476E-27
7.19186E-01 2.97465E-27
7.23099E-01 2.89659E-27
7.26995E-01 2.82051E-27
7.30874E-01 2.74636E-27
7.34736E-01 2.67410E-27
7.38579E-01 2.60365E-27
7.42405E-01 2.53499E-27
7.46212E-01 2.46805E-27
7.50000E-01 2.40279E-27
7.53769E-01 2.33916E-27
7.57519E-01 2.27712E-27
7.61249E-01 2.21662E-27
7.64960E-01 2.15763E-27
7.68650E-01 2.10011E-27
7.72320E-01 2.04400E-27
7.75968E-01 1.98929E-27
7.79596E-01 1.93592E-27
7.83203E-01 1.88386E-27
7.86788E-01 1.83308E-27
7.90351E-01 1.78355E-27
7.93893E-01 1.73523E-27
7.97411E-01 1.68809E-27
8.00908E-01 1.64209E-27
8.04381E-01 1.59722E-27
8.07831E-01 1.55344E-27
8.11257E-01 1.51072E-27
8.14660E-01 1.46904E-27
8.18039E-01 1.42836E-27
8.21394E-01 1.38867E-27
8.24724E-01 1.34994E-27
8.28030E-01 1.31214E-27
8.31310E-01 1.27525E-27
8.34565E-01 1.23925E-27
8.37795E-01 1.20412E-27
8.40999E-01 1.16982E-27
8.44177E-01 1.13636E-27
8.47329E-01 1.10369E-27
8.50455E-01 1.07181E-27
8.53553E-01 1.04069E-27
8.56625E-01 1.01032E-27
8.59670E-01 9.80680E-28
8.62687E-01 9.51747E-28
8.65677E-01 9.23506E-28
8.68639E-01 8.95942E-28
8.71572E-01 8.69039E-28
8.74478E-01 8.42780E-28
8.77355E-01 8.17151E-28
8.80203E-01 7.92137E-28
8.83022E-01 7.67724E-28
8.85812E-01 7.43897E-28
8.88573E-01 7.20643E-28
8.91304E-01 6.97950E-28
8.94005E-01 6.75804E-28
8.96677E-01 6.54192E-28
8.99318E-01 6.33104E-28
9.01928E-01 6.12526E-28
9.04508E-01 5.92448E-28
9.07058E-01 5.72859E-28
9.09576E-01 5.53748E-28
9.12063E-01 5.35104E-28
9.14519E-01 5.16917E-28
9.16943E-01 4.99178E-28
9.19335E-01 4.81876E-28
9.21696E-01 4.65003E-28
9.24024E-01 4.48549E-28
9.26320E-01 4.32506E-28
9.28584E-01 4.16865E-28
9.30815E-01 4.01618E-28
9.33013E-01 3.86757E-28
9.35178E-01 3.72273E-28
9.37310E-01 3.58160E-28
9.39409E-01 3.44409E-28
9.41474E-01 3.31014E-28
9.43505E-01 3.17968E-28
9.45503E-01 3.05264E-28
9.47467E-01 2.92895E-28
9.49397E-01 2.80856E-28
9.51293E-01 2.69139E-28
9.53154E-01 2.57738E-28
9.54981E-01 2.46649E-28
9.56773E-01 2.35866E-28
9.58530E-01 2.25382E-28
9.60252E-01 2.15193E-28
9.61940E-01 2.05293E-28
9.63592E-01 1.95677E-28
9.65209E-01 1.86341E-28
9.66790E-01 1.77281E-28
9.68336E-01 1.68490E-28
9.69846E-01 1.59966E-28
9.71321E-01 1.51703E-28
9.72759E-01 1.43698E-28
9.74162E-01 1.35947E-28
9.75528E-01 1.28445E-28
9.76858E-01 1.21190E-28
9.78152E-01 1.14177E-28
9.79410E-01 1.07404E-28
9.80631E-01 1.00866E-28
9.81815E-01 9.45615E-29
9.82963E-01 8.84862E-29
9.84074E-01 8.26375E-29
9.85148E-01 7.70126E-29
9.86185E-01 7.16088E-29
9.87185E-01 6.64234E-29
9.88148E-01 6.14539E-29
9.89074E-01 5.66980E-29
9.89962E-01 5.21533E-29
9.90814E-01 4.78177E-29
9.91627E-01 4.36890E-29
9.92404E-01 3.97653E-29
9.93143E-01 3.60447E-29
9.93844E-01 3.25255E-29
9.94508E-01 2.92058E-29
9.95134E-01 2.60843E-29
9.95722E-01 2.31592E-29
9.96273E-01 2.04294E-29
9.96786E-01 1.78934E-29
9.97261E-01 1.55500E-29
9.97698E-01 1.33982E-29
9.98097E-01 1.14369E-29
9.98459E-01 9.66521E-30
9.98782E-01 8.08225E-30
9.99067E-01 6.68727E-30
9.99315E-01 5.47963E-30
9.99524E-01 4.45875E-30
9.99695E-01 3.62414E-30
9.99829E-01 2.97541E-30
9.99924E-01 2.51224E-30
9.99981E-01 2.23444E-30
1.00000E+00 2.14185E-30
