 #
 # Subroutine ELSEPA. Elastic scattering of electrons and positrons
 #                    by neutral atoms and positive ions
 #
 # Projectile: positron
 # Kinetic energy = 3.00000E+06 eV = 1.10248E+05 a.u.
 #
 # WARNING: High-energy factorization with free-atom DF screening.
 #          Absorption, polarization and exchange corrections are
 #          switched off.
 #          Phase shifts are calculated for the bare nucleus.
 #          Scattering amplitudes are not evaluated.
 #
 # Element: Nb,  Z =  41,  atomic weight = 9.29064E+01 g/mol
 #
 # Nuclear model: Fermi distribution
 #                Average radius = 4.84617E-13 cm
 #                Skin thickness = 5.46000E-14 cm
 #
 # Number of electrons = 41
 #
 # Total elastic cross section = 4.06764E-18 cm**2 = 1.45258E-01 a0**2
 # 1st transport cross section = 1.72448E-22 cm**2 = 6.15824E-06 a0**2
 # 2nd transport cross section = 4.94227E-22 cm**2 = 1.76492E-05 a0**2
 #
 #
 # Differential cross section:                       MU=(1-COS(THETA))/2
 #
 #  THETA        MU          DCS          DCS        Sherman      error
 #  (deg)                 (cm**2/sr)   (a0**2/sr)    function
 #----------------------------------------------------------------------
0.00000E+00 5.30331E-13
7.61557E-13 5.30328E-13
1.18994E-12 5.30327E-13
1.71346E-12 5.30325E-13
2.33225E-12 5.30323E-13
3.04617E-12 5.30321E-13
3.85530E-12 5.30318E-13
4.75964E-12 5.30316E-13
5.75917E-12 5.30313E-13
6.85391E-12 5.30310E-13
8.04379E-12 5.30306E-13
9.32893E-12 5.30302E-13
1.07092E-11 5.30298E-13
1.21847E-11 5.30294E-13
1.37554E-11 5.30289E-13
1.54213E-11 5.30284E-13
1.71823E-11 5.30279E-13
1.90386E-11 5.30274E-13
2.09900E-11 5.30268E-13
2.30367E-11 5.30262E-13
2.51785E-11 5.30256E-13
2.74156E-11 5.30250E-13
2.97478E-11 5.30243E-13
3.21752E-11 5.30236E-13
3.46979E-11 5.30228E-13
3.73157E-11 5.30221E-13
4.00286E-11 5.30213E-13
4.28368E-11 5.30205E-13
4.57402E-11 5.30197E-13
4.87388E-11 5.30188E-13
5.18325E-11 5.30179E-13
5.50215E-11 5.30170E-13
5.83057E-11 5.30160E-13
6.16850E-11 5.30151E-13
6.51595E-11 5.30141E-13
6.87293E-11 5.30130E-13
7.23943E-11 5.30120E-13
7.61544E-11 5.30109E-13
1.18991E-10 5.29986E-13
1.71347E-10 5.29836E-13
2.33223E-10 5.29660E-13
3.04617E-10 5.29456E-13
3.85531E-10 5.29225E-13
4.75965E-10 5.28968E-13
5.75917E-10 5.28684E-13
6.85389E-10 5.28374E-13
8.04380E-10 5.28037E-13
9.32891E-10 5.27673E-13
1.07092E-09 5.27283E-13
1.21847E-09 5.26867E-13
1.37554E-09 5.26425E-13
1.54213E-09 5.25957E-13
1.71823E-09 5.25462E-13
1.90386E-09 5.24942E-13
2.09900E-09 5.24397E-13
2.30367E-09 5.23826E-13
2.51785E-09 5.23229E-13
2.74156E-09 5.22607E-13
2.97478E-09 5.21961E-13
3.21752E-09 5.21289E-13
3.46978E-09 5.20593E-13
3.73156E-09 5.19872E-13
4.00286E-09 5.19126E-13
4.28368E-09 5.18357E-13
4.57402E-09 5.17563E-13
4.87388E-09 5.16746E-13
5.18326E-09 5.15905E-13
5.50215E-09 5.15041E-13
5.83057E-09 5.14154E-13
6.16850E-09 5.13243E-13
6.51596E-09 5.12310E-13
6.87293E-09 5.11355E-13
7.23942E-09 5.10377E-13
7.61544E-09 5.09377E-13
1.18991E-08 4.98222E-13
1.71347E-08 4.85152E-13
2.33223E-08 4.70444E-13
3.04617E-08 4.54431E-13
3.85531E-08 4.37385E-13
4.75965E-08 4.19624E-13
5.75917E-08 4.01433E-13
6.85389E-08 3.83028E-13
8.04380E-08 3.64672E-13
9.32891E-08 3.46540E-13
1.07092E-07 3.28777E-13
1.21847E-07 3.11539E-13
1.37554E-07 2.94891E-13
1.54213E-07 2.78917E-13
1.71823E-07 2.63682E-13
1.90386E-07 2.49164E-13
2.09900E-07 2.35418E-13
2.30367E-07 2.22435E-13
2.51785E-07 2.10166E-13
2.74156E-07 1.98636E-13
2.97478E-07 1.87792E-13
3.21752E-07 1.77596E-13
3.46978E-07 1.68050E-13
3.73156E-07 1.59072E-13
4.00286E-07 1.50657E-13
4.28368E-07 1.42787E-13
4.57402E-07 1.35367E-13
4.87388E-07 1.28427E-13
5.18325E-07 1.21917E-13
5.50215E-07 1.15783E-13
5.83057E-07 1.10040E-13
6.16850E-07 1.04630E-13
6.51596E-07 9.95358E-14
6.87293E-07 9.47601E-14
7.23942E-07 9.02357E-14
7.61543E-07 8.59813E-14
1.18991E-06 5.43781E-14
1.71347E-06 3.57016E-14
2.33223E-06 2.39003E-14
3.04617E-06 1.68197E-14
3.85531E-06 1.20151E-14
4.75964E-06 8.86889E-15
5.75916E-06 6.72220E-15
6.85388E-06 5.18944E-15
8.04378E-06 4.09896E-15
9.32888E-06 3.29252E-15
1.07092E-05 2.67844E-15
1.21846E-05 2.20981E-15
1.37553E-05 1.83772E-15
1.54212E-05 1.54095E-15
1.71822E-05 1.30361E-15
1.90385E-05 1.10561E-15
2.09899E-05 9.44499E-16
2.30365E-05 8.11008E-16
2.51783E-05 6.98065E-16
2.74153E-05 6.04084E-16
2.97475E-05 5.24463E-16
3.21749E-05 4.56897E-16
3.46974E-05 3.99831E-16
3.73152E-05 3.50854E-16
4.00281E-05 3.09068E-16
4.28362E-05 2.73299E-16
4.57395E-05 2.42321E-16
4.87380E-05 2.15621E-16
5.18317E-05 1.92431E-16
5.50205E-05 1.72232E-16
5.83045E-05 1.54648E-16
6.16838E-05 1.39249E-16
6.51582E-05 1.25740E-16
6.87277E-05 1.13863E-16
7.23925E-05 1.03361E-16
7.61524E-05 9.40654E-17
9.21439E-05 6.59704E-17
1.09658E-04 4.77165E-17
1.28695E-04 3.54265E-17
1.49255E-04 2.68764E-17
1.71338E-04 2.07664E-17
1.94942E-04 1.62884E-17
2.20070E-04 1.29528E-17
2.46720E-04 1.04260E-17
2.74892E-04 8.48735E-18
3.04586E-04 6.96873E-18
3.35803E-04 5.77523E-18
3.68542E-04 4.82527E-18
4.02802E-04 4.05962E-18
4.38585E-04 3.44003E-18
4.75889E-04 2.93321E-18
5.14715E-04 2.51571E-18
5.55063E-04 2.16992E-18
5.96931E-04 1.88099E-18
6.40321E-04 1.63854E-18
6.85233E-04 1.43393E-18
7.31665E-04 1.26002E-18
7.79618E-04 1.11175E-18
8.29092E-04 9.84644E-19
8.80086E-04 8.75130E-19
9.32601E-04 7.80456E-19
9.86636E-04 6.98218E-19
1.04219E-03 6.26529E-19
1.09927E-03 5.63825E-19
1.15786E-03 5.08747E-19
1.21797E-03 4.60242E-19
1.27961E-03 4.17390E-19
1.34276E-03 3.79393E-19
1.40743E-03 3.45632E-19
1.47362E-03 3.15542E-19
1.54133E-03 2.88650E-19
1.61056E-03 2.64567E-19
1.68131E-03 2.42937E-19
1.75357E-03 2.23472E-19
1.82735E-03 2.05920E-19
1.90265E-03 1.90050E-19
1.97947E-03 1.75680E-19
2.05780E-03 1.62642E-19
2.13765E-03 1.50787E-19
2.21902E-03 1.39993E-19
2.30190E-03 1.30145E-19
2.38630E-03 1.21145E-19
2.47222E-03 1.12910E-19
2.55965E-03 1.05359E-19
2.64859E-03 9.84283E-20
2.73905E-03 9.20575E-20
2.83103E-03 8.61907E-20
2.92452E-03 8.07835E-20
3.01952E-03 7.57925E-20
3.11604E-03 7.11792E-20
3.21407E-03 6.69111E-20
3.31362E-03 6.29566E-20
3.41468E-03 5.92890E-20
3.51725E-03 5.58841E-20
3.62133E-03 5.27185E-20
3.72692E-03 4.97734E-20
3.83403E-03 4.70305E-20
3.94265E-03 4.44727E-20
4.05278E-03 4.20861E-20
4.16442E-03 3.98567E-20
4.27757E-03 3.77722E-20
4.39223E-03 3.58219E-20
4.50840E-03 3.39950E-20
4.62608E-03 3.22827E-20
4.74527E-03 3.06765E-20
4.86597E-03 2.91682E-20
4.98817E-03 2.77512E-20
5.11188E-03 2.64188E-20
5.23711E-03 2.51649E-20
5.36383E-03 2.39843E-20
5.49207E-03 2.28717E-20
5.62181E-03 2.18225E-20
5.75306E-03 2.08327E-20
5.88581E-03 1.98978E-20
6.02007E-03 1.90147E-20
6.15583E-03 1.81797E-20
6.29310E-03 1.73898E-20
6.43187E-03 1.66421E-20
6.57214E-03 1.59340E-20
6.71392E-03 1.52629E-20
6.85720E-03 1.46266E-20
7.00198E-03 1.40229E-20
7.14827E-03 1.34499E-20
7.29605E-03 1.29057E-20
7.44534E-03 1.23885E-20
7.59612E-03 1.18969E-20
7.97965E-03 1.07699E-20
8.37255E-03 9.77243E-21
8.77480E-03 8.88726E-21
9.18641E-03 8.09948E-21
9.60736E-03 7.39662E-21
1.00376E-02 6.76793E-21
1.04773E-02 6.20426E-21
1.09262E-02 5.69772E-21
1.13844E-02 5.24152E-21
1.18520E-02 4.82981E-21
1.23288E-02 4.45749E-21
1.28150E-02 4.12014E-21
1.33104E-02 3.81391E-21
1.38150E-02 3.53543E-21
1.43290E-02 3.28174E-21
1.48521E-02 3.05025E-21
1.53845E-02 2.83869E-21
1.59262E-02 2.64503E-21
1.64770E-02 2.46749E-21
1.70371E-02 2.30450E-21
1.76063E-02 2.15465E-21
1.81848E-02 2.01670E-21
1.87724E-02 1.88954E-21
1.93692E-02 1.77217E-21
1.99751E-02 1.66371E-21
2.05901E-02 1.56335E-21
2.12143E-02 1.47040E-21
2.18476E-02 1.38420E-21
2.24900E-02 1.30417E-21
2.31415E-02 1.22980E-21
2.38021E-02 1.16062E-21
2.44717E-02 1.09619E-21
2.51504E-02 1.03614E-21
2.58382E-02 9.80109E-22
2.65349E-02 9.27784E-22
2.72407E-02 8.78877E-22
2.79555E-02 8.33121E-22
2.86793E-02 7.90280E-22
2.94120E-02 7.50134E-22
3.01537E-02 7.12482E-22
3.09043E-02 6.77143E-22
3.16639E-02 6.43948E-22
3.24324E-02 6.12744E-22
3.32098E-02 5.83391E-22
3.39961E-02 5.55757E-22
3.47912E-02 5.29726E-22
3.55952E-02 5.05187E-22
3.64081E-02 4.82038E-22
3.72297E-02 4.60188E-22
3.80602E-02 4.39550E-22
3.88995E-02 4.20044E-22
3.97476E-02 4.01599E-22
4.06044E-02 3.84144E-22
4.14700E-02 3.67617E-22
4.23443E-02 3.51961E-22
4.32273E-02 3.37121E-22
4.41190E-02 3.23047E-22
4.50194E-02 3.09692E-22
4.59284E-02 2.97012E-22
4.68461E-02 2.84968E-22
4.87074E-02 2.62638E-22
5.06030E-02 2.42430E-22
5.25328E-02 2.24108E-22
5.44967E-02 2.07465E-22
5.64946E-02 1.92323E-22
5.85262E-02 1.78521E-22
6.05914E-02 1.65921E-22
6.26901E-02 1.54400E-22
6.48222E-02 1.43850E-22
6.69873E-02 1.34175E-22
6.91854E-02 1.25290E-22
7.14163E-02 1.17118E-22
7.36799E-02 1.09594E-22
7.59760E-02 1.02656E-22
7.83043E-02 9.62514E-23
8.06647E-02 9.03315E-23
8.30571E-02 8.48536E-23
8.54812E-02 7.97787E-23
8.79369E-02 7.50721E-23
9.04240E-02 7.07024E-23
9.29422E-02 6.66413E-23
9.54915E-02 6.28632E-23
9.80716E-02 5.93448E-23
1.00682E-01 5.60653E-23
1.03323E-01 5.30056E-23
1.05995E-01 5.01484E-23
1.08696E-01 4.74779E-23
1.11427E-01 4.49798E-23
1.14188E-01 4.26411E-23
1.16978E-01 4.04497E-23
1.19797E-01 3.83947E-23
1.22645E-01 3.64662E-23
1.25522E-01 3.46550E-23
1.28428E-01 3.29528E-23
1.31361E-01 3.13518E-23
1.34323E-01 2.98450E-23
1.37313E-01 2.84258E-23
1.40330E-01 2.70883E-23
1.43375E-01 2.58269E-23
1.46447E-01 2.46365E-23
1.49545E-01 2.35125E-23
1.52671E-01 2.24505E-23
1.55823E-01 2.14464E-23
1.59001E-01 2.04966E-23
1.62205E-01 1.95976E-23
1.65435E-01 1.87462E-23
1.68690E-01 1.79394E-23
1.71970E-01 1.71745E-23
1.75276E-01 1.64490E-23
1.78606E-01 1.57605E-23
1.81961E-01 1.51066E-23
1.85340E-01 1.44855E-23
1.88743E-01 1.38952E-23
1.92169E-01 1.33338E-23
1.95619E-01 1.27997E-23
1.99092E-01 1.22913E-23
2.02589E-01 1.18072E-23
2.06107E-01 1.13461E-23
2.09649E-01 1.09066E-23
2.13212E-01 1.04875E-23
2.16797E-01 1.00878E-23
2.20404E-01 9.70640E-24
2.24032E-01 9.34226E-24
2.27680E-01 8.99452E-24
2.31350E-01 8.66230E-24
2.35040E-01 8.34475E-24
2.38751E-01 8.04115E-24
2.42481E-01 7.75078E-24
2.46231E-01 7.47294E-24
2.50000E-01 7.20701E-24
2.53788E-01 6.95239E-24
2.57595E-01 6.70851E-24
2.61421E-01 6.47485E-24
2.65264E-01 6.25089E-24
2.69126E-01 6.03617E-24
2.73005E-01 5.83024E-24
2.76901E-01 5.63267E-24
2.80814E-01 5.44307E-24
2.84744E-01 5.26105E-24
2.88691E-01 5.08627E-24
2.92653E-01 4.91839E-24
2.96632E-01 4.75708E-24
3.00625E-01 4.60205E-24
3.04634E-01 4.45301E-24
3.08658E-01 4.30969E-24
3.12697E-01 4.17183E-24
3.16749E-01 4.03918E-24
3.20816E-01 3.91152E-24
3.24896E-01 3.78862E-24
3.28990E-01 3.67028E-24
3.33097E-01 3.55630E-24
3.37216E-01 3.44648E-24
3.41348E-01 3.34066E-24
3.45492E-01 3.23866E-24
3.49647E-01 3.14032E-24
3.53814E-01 3.04549E-24
3.57992E-01 2.95401E-24
3.62181E-01 2.86576E-24
3.66381E-01 2.78060E-24
3.70590E-01 2.69840E-24
3.74810E-01 2.61903E-24
3.79039E-01 2.54240E-24
3.83277E-01 2.46838E-24
3.87524E-01 2.39687E-24
3.91780E-01 2.32777E-24
3.96044E-01 2.26099E-24
4.00316E-01 2.19644E-24
4.04596E-01 2.13402E-24
4.08882E-01 2.07366E-24
4.13176E-01 2.01528E-24
4.17476E-01 1.95881E-24
4.21783E-01 1.90416E-24
4.26095E-01 1.85127E-24
4.30413E-01 1.80008E-24
4.34737E-01 1.75051E-24
4.39065E-01 1.70252E-24
4.43398E-01 1.65604E-24
4.47736E-01 1.61101E-24
4.52077E-01 1.56739E-24
4.56422E-01 1.52511E-24
4.60770E-01 1.48415E-24
4.65122E-01 1.44443E-24
4.69476E-01 1.40594E-24
4.73832E-01 1.36861E-24
4.78190E-01 1.33240E-24
4.82550E-01 1.29729E-24
4.86912E-01 1.26322E-24
4.91274E-01 1.23017E-24
4.95637E-01 1.19809E-24
5.00000E-01 1.16696E-24
5.04363E-01 1.13674E-24
5.08726E-01 1.10740E-24
5.13088E-01 1.07892E-24
5.17450E-01 1.05125E-24
5.21810E-01 1.02438E-24
5.26168E-01 9.98279E-25
5.30524E-01 9.72921E-25
5.34878E-01 9.48281E-25
5.39230E-01 9.24336E-25
5.43578E-01 9.01063E-25
5.47923E-01 8.78440E-25
5.52264E-01 8.56447E-25
5.56602E-01 8.35062E-25
5.60935E-01 8.14266E-25
5.65263E-01 7.94041E-25
5.69587E-01 7.74368E-25
5.73905E-01 7.55230E-25
5.78217E-01 7.36610E-25
5.82524E-01 7.18493E-25
5.86824E-01 7.00861E-25
5.91118E-01 6.83702E-25
5.95404E-01 6.66999E-25
5.99684E-01 6.50739E-25
6.03956E-01 6.34909E-25
6.08220E-01 6.19495E-25
6.12476E-01 6.04485E-25
6.16723E-01 5.89866E-25
6.20961E-01 5.75627E-25
6.25190E-01 5.61756E-25
6.29410E-01 5.48242E-25
6.33619E-01 5.35076E-25
6.37819E-01 5.22246E-25
6.42008E-01 5.09743E-25
6.46186E-01 4.97557E-25
6.50353E-01 4.85679E-25
6.54508E-01 4.74101E-25
6.58652E-01 4.62814E-25
6.62784E-01 4.51808E-25
6.66903E-01 4.41078E-25
6.71010E-01 4.30614E-25
6.75104E-01 4.20408E-25
6.79184E-01 4.10455E-25
6.83251E-01 4.00746E-25
6.87303E-01 3.91275E-25
6.91342E-01 3.82035E-25
6.95366E-01 3.73020E-25
6.99375E-01 3.64223E-25
7.03368E-01 3.55639E-25
7.07347E-01 3.47262E-25
7.11309E-01 3.39086E-25
7.15256E-01 3.31106E-25
7.19186E-01 3.23316E-25
7.23099E-01 3.15712E-25
7.26995E-01 3.08289E-25
7.30874E-01 3.01041E-25
7.34736E-01 2.93965E-25
7.38579E-01 2.87055E-25
7.42405E-01 2.80307E-25
7.46212E-01 2.73717E-25
7.50000E-01 2.67281E-25
7.53769E-01 2.60995E-25
7.57519E-01 2.54855E-25
7.61249E-01 2.48857E-25
7.64960E-01 2.42998E-25
7.68650E-01 2.37274E-25
7.72320E-01 2.31681E-25
7.75968E-01 2.26217E-25
7.79596E-01 2.20878E-25
7.83203E-01 2.15661E-25
7.86788E-01 2.10563E-25
7.90351E-01 2.05581E-25
7.93893E-01 2.00713E-25
7.97411E-01 1.95955E-25
8.00908E-01 1.91305E-25
8.04381E-01 1.86760E-25
8.07831E-01 1.82317E-25
8.11257E-01 1.77975E-25
8.14660E-01 1.73731E-25
8.18039E-01 1.69582E-25
8.21394E-01 1.65526E-25
8.24724E-01 1.61561E-25
8.28030E-01 1.57685E-25
8.31310E-01 1.53895E-25
8.34565E-01 1.50191E-25
8.37795E-01 1.46569E-25
8.40999E-01 1.43027E-25
8.44177E-01 1.39565E-25
8.47329E-01 1.36180E-25
8.50455E-01 1.32870E-25
8.53553E-01 1.29635E-25
8.56625E-01 1.26471E-25
8.59670E-01 1.23378E-25
8.62687E-01 1.20353E-25
8.65677E-01 1.17397E-25
8.68639E-01 1.14506E-25
8.71572E-01 1.11680E-25
8.74478E-01 1.08917E-25
8.77355E-01 1.06216E-25
8.80203E-01 1.03576E-25
8.83022E-01 1.00994E-25
8.85812E-01 9.84704E-26
8.88573E-01 9.60033E-26
8.91304E-01 9.35918E-26
8.94005E-01 9.12346E-26
8.96677E-01 8.89305E-26
8.99318E-01 8.66787E-26
9.01928E-01 8.44779E-26
9.04508E-01 8.23272E-26
9.07058E-01 8.02255E-26
9.09576E-01 7.81720E-26
9.12063E-01 7.61655E-26
9.14519E-01 7.42054E-26
9.16943E-01 7.22905E-26
9.19335E-01 7.04201E-26
9.21696E-01 6.85934E-26
9.24024E-01 6.68094E-26
9.26320E-01 6.50674E-26
9.28584E-01 6.33666E-26
9.30815E-01 6.17063E-26
9.33013E-01 6.00857E-26
9.35178E-01 5.85041E-26
9.37310E-01 5.69607E-26
9.39409E-01 5.54551E-26
9.41474E-01 5.39863E-26
9.43505E-01 5.25539E-26
9.45503E-01 5.11572E-26
9.47467E-01 4.97956E-26
9.49397E-01 4.84686E-26
9.51293E-01 4.71754E-26
9.53154E-01 4.59157E-26
9.54981E-01 4.46888E-26
9.56773E-01 4.34943E-26
9.58530E-01 4.23315E-26
9.60252E-01 4.12002E-26
9.61940E-01 4.00996E-26
9.63592E-01 3.90295E-26
9.65209E-01 3.79894E-26
9.66790E-01 3.69788E-26
9.68336E-01 3.59973E-26
9.69846E-01 3.50445E-26
9.71321E-01 3.41200E-26
9.72759E-01 3.32234E-26
9.74162E-01 3.23544E-26
9.75528E-01 3.15126E-26
9.76858E-01 3.06976E-26
9.78152E-01 2.99092E-26
9.79410E-01 2.91470E-26
9.80631E-01 2.84107E-26
9.81815E-01 2.76999E-26
9.82963E-01 2.70146E-26
9.84074E-01 2.63542E-26
9.85148E-01 2.57186E-26
9.86185E-01 2.51076E-26
9.87185E-01 2.45208E-26
9.88148E-01 2.39580E-26
9.89074E-01 2.34191E-26
9.89962E-01 2.29038E-26
9.90814E-01 2.24118E-26
9.91627E-01 2.19431E-26
9.92404E-01 2.14974E-26
9.93143E-01 2.10745E-26
9.93844E-01 2.06743E-26
9.94508E-01 2.02966E-26
9.95134E-01 1.99413E-26
9.95722E-01 1.96082E-26
9.96273E-01 1.92972E-26
9.96786E-01 1.90082E-26
9.97261E-01 1.87410E-26
9.97698E-01 1.84956E-26
9.98097E-01 1.82719E-26
9.98459E-01 1.80697E-26
9.98782E-01 1.78890E-26
9.99067E-01 1.77298E-26
9.99315E-01 1.75919E-26
9.99524E-01 1.74753E-26
9.99695E-01 1.73799E-26
9.99829E-01 1.73058E-26
9.99924E-01 1.72529E-26
9.99981E-01 1.72212E-26
1.00000E+00 1.72106E-26
