 #
 # Subroutine ELSEPA. Elastic scattering of electrons and positrons
 #                    by neutral atoms and positive ions
 #
 # Projectile: positron
 # Kinetic energy = 6.00000E+06 eV = 2.20496E+05 a.u.
 #
 # WARNING: High-energy factorization with free-atom DF screening.
 #          Absorption, polarization and exchange corrections are
 #          switched off.
 #          Phase shifts are calculated for the bare nucleus.
 #          Scattering amplitudes are not evaluated.
 #
 # Element: Nb,  Z =  41,  atomic weight = 9.29064E+01 g/mol
 #
 # Nuclear model: Fermi distribution
 #                Average radius = 4.84617E-13 cm
 #                Skin thickness = 5.46000E-14 cm
 #
 # Number of electrons = 41
 #
 # Total elastic cross section = 4.00988E-18 cm**2 = 1.43195E-01 a0**2
 # 1st transport cross section = 5.50082E-23 cm**2 = 1.96438E-06 a0**2
 # 2nd transport cross section = 1.58664E-22 cm**2 = 5.66599E-06 a0**2
 #
 #
 # Differential cross section:                       MU=(1-COS(THETA))/2
 #
 #  THETA        MU          DCS          DCS        Sherman      error
 #  (deg)                 (cm**2/sr)   (a0**2/sr)    function
 #----------------------------------------------------------------------
0.00000E+00 1.82381E-12
7.61557E-13 1.82379E-12
1.18994E-12 1.82377E-12
1.71346E-12 1.82375E-12
2.33225E-12 1.82373E-12
3.04617E-12 1.82371E-12
3.85530E-12 1.82368E-12
4.75964E-12 1.82365E-12
5.75917E-12 1.82361E-12
6.85391E-12 1.82357E-12
8.04379E-12 1.82353E-12
9.32893E-12 1.82349E-12
1.07092E-11 1.82344E-12
1.21847E-11 1.82339E-12
1.37554E-11 1.82333E-12
1.54213E-11 1.82328E-12
1.71823E-11 1.82322E-12
1.90386E-11 1.82315E-12
2.09900E-11 1.82309E-12
2.30367E-11 1.82301E-12
2.51785E-11 1.82294E-12
2.74156E-11 1.82286E-12
2.97478E-11 1.82278E-12
3.21752E-11 1.82270E-12
3.46979E-11 1.82261E-12
3.73157E-11 1.82252E-12
4.00286E-11 1.82243E-12
4.28368E-11 1.82234E-12
4.57402E-11 1.82224E-12
4.87388E-11 1.82213E-12
5.18325E-11 1.82203E-12
5.50215E-11 1.82192E-12
5.83057E-11 1.82181E-12
6.16850E-11 1.82169E-12
6.51595E-11 1.82157E-12
6.87293E-11 1.82145E-12
7.23943E-11 1.82132E-12
7.61544E-11 1.82119E-12
1.18991E-10 1.81973E-12
1.71347E-10 1.81795E-12
2.33223E-10 1.81584E-12
3.04617E-10 1.81342E-12
3.85531E-10 1.81069E-12
4.75965E-10 1.80764E-12
5.75917E-10 1.80428E-12
6.85389E-10 1.80061E-12
8.04380E-10 1.79664E-12
9.32891E-10 1.79237E-12
1.07092E-09 1.78781E-12
1.21847E-09 1.78295E-12
1.37554E-09 1.77780E-12
1.54213E-09 1.77237E-12
1.71823E-09 1.76666E-12
1.90386E-09 1.76067E-12
2.09900E-09 1.75442E-12
2.30367E-09 1.74790E-12
2.51785E-09 1.74112E-12
2.74156E-09 1.73410E-12
2.97478E-09 1.72682E-12
3.21752E-09 1.71930E-12
3.46978E-09 1.71155E-12
3.73156E-09 1.70357E-12
4.00286E-09 1.69537E-12
4.28368E-09 1.68695E-12
4.57402E-09 1.67832E-12
4.87388E-09 1.66949E-12
5.18326E-09 1.66046E-12
5.50215E-09 1.65124E-12
5.83057E-09 1.64183E-12
6.16850E-09 1.63224E-12
6.51596E-09 1.62249E-12
6.87293E-09 1.61258E-12
7.23942E-09 1.60252E-12
7.61544E-09 1.59231E-12
1.18991E-08 1.48356E-12
1.71347E-08 1.36726E-12
2.33223E-08 1.24917E-12
3.04617E-08 1.13386E-12
3.85531E-08 1.02451E-12
4.75965E-08 9.23075E-13
5.75917E-08 8.30494E-13
6.85389E-08 7.46888E-13
8.04380E-08 6.72061E-13
9.32891E-08 6.05434E-13
1.07092E-07 5.46279E-13
1.21847E-07 4.93817E-13
1.37554E-07 4.47222E-13
1.54213E-07 4.05807E-13
1.71823E-07 3.68972E-13
1.90386E-07 3.36142E-13
2.09900E-07 3.06815E-13
2.30367E-07 2.80544E-13
2.51785E-07 2.56896E-13
2.74156E-07 2.35623E-13
2.97478E-07 2.16444E-13
3.21752E-07 1.99116E-13
3.46978E-07 1.83427E-13
3.73156E-07 1.69166E-13
4.00286E-07 1.56197E-13
4.28368E-07 1.44398E-13
4.57402E-07 1.33647E-13
4.87388E-07 1.23838E-13
5.18325E-07 1.14872E-13
5.50215E-07 1.06549E-13
5.83057E-07 9.85601E-14
6.16850E-07 9.14028E-14
6.51596E-07 8.49738E-14
6.87293E-07 7.91846E-14
7.23942E-07 7.39589E-14
7.61543E-07 6.92306E-14
1.18991E-06 3.72450E-14
1.71347E-06 2.18610E-14
2.33223E-06 1.38509E-14
3.04617E-06 9.31489E-15
3.85531E-06 6.53608E-15
4.75964E-06 4.72573E-15
5.75916E-06 3.49175E-15
6.85388E-06 2.61939E-15
8.04378E-06 1.99495E-15
9.32888E-06 1.54028E-15
1.07092E-05 1.20453E-15
1.21846E-05 9.53499E-16
1.37553E-05 7.63501E-16
1.54212E-05 6.17911E-16
1.71822E-05 5.05477E-16
1.90385E-05 4.17598E-16
2.09899E-05 3.48360E-16
2.30365E-05 2.93053E-16
2.51783E-05 2.48388E-16
2.74153E-05 2.12004E-16
2.97475E-05 1.82119E-16
3.21749E-05 1.57388E-16
3.46974E-05 1.36776E-16
3.73152E-05 1.19473E-16
4.00281E-05 1.04851E-16
4.28362E-05 9.24171E-17
4.57395E-05 8.17800E-17
4.87380E-05 7.26302E-17
5.18317E-05 6.47205E-17
5.50205E-05 5.78437E-17
5.83045E-05 5.18314E-17
6.16838E-05 4.66031E-17
6.51582E-05 4.20388E-17
6.87277E-05 3.79839E-17
7.23925E-05 3.44077E-17
7.61524E-05 3.12539E-17
9.21439E-05 2.16989E-17
1.09658E-04 1.55027E-17
1.28695E-04 1.13580E-17
1.49255E-04 8.50436E-18
1.71338E-04 6.49059E-18
1.94942E-04 5.03774E-18
2.20070E-04 3.96879E-18
2.46720E-04 3.16874E-18
2.74892E-04 2.56048E-18
3.04586E-04 2.09151E-18
3.35803E-04 1.72520E-18
3.68542E-04 1.43575E-18
4.02802E-04 1.20452E-18
4.38585E-04 1.01806E-18
4.75889E-04 8.66336E-19
5.14715E-04 7.41857E-19
5.55063E-04 6.38955E-19
5.96931E-04 5.53278E-19
6.40321E-04 4.81482E-19
6.85233E-04 4.20956E-19
7.31665E-04 3.69639E-19
7.79618E-04 3.25902E-19
8.29092E-04 2.88435E-19
8.80086E-04 2.56190E-19
9.32601E-04 2.28320E-19
9.86636E-04 2.04132E-19
1.04219E-03 1.83057E-19
1.09927E-03 1.64627E-19
1.15786E-03 1.48453E-19
1.21797E-03 1.34211E-19
1.27961E-03 1.21633E-19
1.34276E-03 1.10491E-19
1.40743E-03 1.00592E-19
1.47362E-03 9.17741E-20
1.54133E-03 8.38982E-20
1.61056E-03 7.68467E-20
1.68131E-03 7.05185E-20
1.75357E-03 6.48265E-20
1.82735E-03 5.96954E-20
1.90265E-03 5.50602E-20
1.97947E-03 5.08648E-20
2.05780E-03 4.70601E-20
2.13765E-03 4.36034E-20
2.21902E-03 4.04572E-20
2.30190E-03 3.75886E-20
2.38630E-03 3.49689E-20
2.47222E-03 3.25727E-20
2.55965E-03 3.03774E-20
2.64859E-03 2.83634E-20
2.73905E-03 2.65129E-20
2.83103E-03 2.48103E-20
2.92452E-03 2.32417E-20
3.01952E-03 2.17946E-20
3.11604E-03 2.04580E-20
3.21407E-03 1.92219E-20
3.31362E-03 1.80773E-20
3.41468E-03 1.70164E-20
3.51725E-03 1.60319E-20
3.62133E-03 1.51172E-20
3.72692E-03 1.42666E-20
3.83403E-03 1.34747E-20
3.94265E-03 1.27368E-20
4.05278E-03 1.20485E-20
4.16442E-03 1.14059E-20
4.27757E-03 1.08054E-20
4.39223E-03 1.02437E-20
4.50840E-03 9.71788E-21
4.62608E-03 9.22522E-21
4.74527E-03 8.76325E-21
4.86597E-03 8.32972E-21
4.98817E-03 7.92255E-21
5.11188E-03 7.53984E-21
5.23711E-03 7.17986E-21
5.36383E-03 6.84101E-21
5.49207E-03 6.52181E-21
5.62181E-03 6.22094E-21
5.75306E-03 5.93715E-21
5.88581E-03 5.66927E-21
6.02007E-03 5.41626E-21
6.15583E-03 5.17714E-21
6.29310E-03 4.95102E-21
6.43187E-03 4.73703E-21
6.57214E-03 4.53445E-21
6.71392E-03 4.34250E-21
6.85720E-03 4.16057E-21
7.00198E-03 3.98801E-21
7.14827E-03 3.82427E-21
7.29605E-03 3.66880E-21
7.44534E-03 3.52111E-21
7.59612E-03 3.38074E-21
7.97965E-03 3.05909E-21
8.37255E-03 2.77461E-21
8.77480E-03 2.52228E-21
9.18641E-03 2.29786E-21
9.60736E-03 2.09772E-21
1.00376E-02 1.91878E-21
1.04773E-02 1.75843E-21
1.09262E-02 1.61439E-21
1.13844E-02 1.48472E-21
1.18520E-02 1.36774E-21
1.23288E-02 1.26199E-21
1.28150E-02 1.16621E-21
1.33104E-02 1.07929E-21
1.38150E-02 1.00027E-21
1.43290E-02 9.28311E-22
1.48521E-02 8.62665E-22
1.53845E-02 8.02684E-22
1.59262E-02 7.47793E-22
1.64770E-02 6.97485E-22
1.70371E-02 6.51309E-22
1.76063E-02 6.08865E-22
1.81848E-02 5.69800E-22
1.87724E-02 5.33796E-22
1.93692E-02 5.00572E-22
1.99751E-02 4.69874E-22
2.05901E-02 4.41476E-22
2.12143E-02 4.15177E-22
2.18476E-02 3.90792E-22
2.24900E-02 3.68157E-22
2.31415E-02 3.47126E-22
2.38021E-02 3.27563E-22
2.44717E-02 3.09348E-22
2.51504E-02 2.92372E-22
2.58382E-02 2.76535E-22
2.65349E-02 2.61747E-22
2.72407E-02 2.47926E-22
2.79555E-02 2.34998E-22
2.86793E-02 2.22895E-22
2.94120E-02 2.11554E-22
3.01537E-02 2.00918E-22
3.09043E-02 1.90937E-22
3.16639E-02 1.81563E-22
3.24324E-02 1.72751E-22
3.32098E-02 1.64463E-22
3.39961E-02 1.56661E-22
3.47912E-02 1.49312E-22
3.55952E-02 1.42385E-22
3.64081E-02 1.35851E-22
3.72297E-02 1.29684E-22
3.80602E-02 1.23860E-22
3.88995E-02 1.18355E-22
3.97476E-02 1.13150E-22
4.06044E-02 1.08225E-22
4.14700E-02 1.03562E-22
4.23443E-02 9.91454E-23
4.32273E-02 9.49590E-23
4.41190E-02 9.09887E-23
4.50194E-02 8.72216E-23
4.59284E-02 8.36453E-23
4.68461E-02 8.02485E-23
4.87074E-02 7.39511E-23
5.06030E-02 6.82529E-23
5.25328E-02 6.30871E-23
5.44967E-02 5.83954E-23
5.64946E-02 5.41267E-23
5.85262E-02 5.02365E-23
6.05914E-02 4.66854E-23
6.26901E-02 4.34389E-23
6.48222E-02 4.04661E-23
6.69873E-02 3.77402E-23
6.91854E-02 3.52368E-23
7.14163E-02 3.29349E-23
7.36799E-02 3.08155E-23
7.59760E-02 2.88614E-23
7.83043E-02 2.70576E-23
8.06647E-02 2.53906E-23
8.30571E-02 2.38480E-23
8.54812E-02 2.24191E-23
8.79369E-02 2.10940E-23
9.04240E-02 1.98639E-23
9.29422E-02 1.87207E-23
9.54915E-02 1.76573E-23
9.80716E-02 1.66670E-23
1.00682E-01 1.57441E-23
1.03323E-01 1.48831E-23
1.05995E-01 1.40791E-23
1.08696E-01 1.33277E-23
1.11427E-01 1.26249E-23
1.14188E-01 1.19669E-23
1.16978E-01 1.13505E-23
1.19797E-01 1.07725E-23
1.22645E-01 1.02301E-23
1.25522E-01 9.72074E-24
1.28428E-01 9.24204E-24
1.31361E-01 8.79185E-24
1.34323E-01 8.36817E-24
1.37313E-01 7.96918E-24
1.40330E-01 7.59318E-24
1.43375E-01 7.23859E-24
1.46447E-01 6.90400E-24
1.49545E-01 6.58807E-24
1.52671E-01 6.28960E-24
1.55823E-01 6.00745E-24
1.59001E-01 5.74057E-24
1.62205E-01 5.48797E-24
1.65435E-01 5.24877E-24
1.68690E-01 5.02212E-24
1.71970E-01 4.80728E-24
1.75276E-01 4.60350E-24
1.78606E-01 4.41011E-24
1.81961E-01 4.22650E-24
1.85340E-01 4.05207E-24
1.88743E-01 3.88630E-24
1.92169E-01 3.72868E-24
1.95619E-01 3.57875E-24
1.99092E-01 3.43605E-24
2.02589E-01 3.30017E-24
2.06107E-01 3.17074E-24
2.09649E-01 3.04739E-24
2.13212E-01 2.92980E-24
2.16797E-01 2.81765E-24
2.20404E-01 2.71063E-24
2.24032E-01 2.60847E-24
2.27680E-01 2.51092E-24
2.31350E-01 2.41773E-24
2.35040E-01 2.32868E-24
2.38751E-01 2.24354E-24
2.42481E-01 2.16211E-24
2.46231E-01 2.08419E-24
2.50000E-01 2.00964E-24
2.53788E-01 1.93827E-24
2.57595E-01 1.86990E-24
2.61421E-01 1.80440E-24
2.65264E-01 1.74163E-24
2.69126E-01 1.68146E-24
2.73005E-01 1.62376E-24
2.76901E-01 1.56841E-24
2.80814E-01 1.51529E-24
2.84744E-01 1.46430E-24
2.88691E-01 1.41534E-24
2.92653E-01 1.36833E-24
2.96632E-01 1.32315E-24
3.00625E-01 1.27974E-24
3.04634E-01 1.23801E-24
3.08658E-01 1.19789E-24
3.12697E-01 1.15929E-24
3.16749E-01 1.12217E-24
3.20816E-01 1.08644E-24
3.24896E-01 1.05205E-24
3.28990E-01 1.01893E-24
3.33097E-01 9.87041E-25
3.37216E-01 9.56321E-25
3.41348E-01 9.26721E-25
3.45492E-01 8.98193E-25
3.49647E-01 8.70690E-25
3.53814E-01 8.44171E-25
3.57992E-01 8.18596E-25
3.62181E-01 7.93923E-25
3.66381E-01 7.70117E-25
3.70590E-01 7.47140E-25
3.74810E-01 7.24960E-25
3.79039E-01 7.03544E-25
3.83277E-01 6.82862E-25
3.87524E-01 6.62884E-25
3.91780E-01 6.43581E-25
3.96044E-01 6.24928E-25
4.00316E-01 6.06900E-25
4.04596E-01 5.89470E-25
4.08882E-01 5.72617E-25
4.13176E-01 5.56318E-25
4.17476E-01 5.40552E-25
4.21783E-01 5.25298E-25
4.26095E-01 5.10538E-25
4.30413E-01 4.96252E-25
4.34737E-01 4.82422E-25
4.39065E-01 4.69033E-25
4.43398E-01 4.56067E-25
4.47736E-01 4.43508E-25
4.52077E-01 4.31343E-25
4.56422E-01 4.19556E-25
4.60770E-01 4.08134E-25
4.65122E-01 3.97064E-25
4.69476E-01 3.86333E-25
4.73832E-01 3.75929E-25
4.78190E-01 3.65840E-25
4.82550E-01 3.56056E-25
4.86912E-01 3.46566E-25
4.91274E-01 3.37359E-25
4.95637E-01 3.28425E-25
5.00000E-01 3.19756E-25
5.04363E-01 3.11342E-25
5.08726E-01 3.03174E-25
5.13088E-01 2.95244E-25
5.17450E-01 2.87544E-25
5.21810E-01 2.80067E-25
5.26168E-01 2.72804E-25
5.30524E-01 2.65749E-25
5.34878E-01 2.58895E-25
5.39230E-01 2.52235E-25
5.43578E-01 2.45763E-25
5.47923E-01 2.39473E-25
5.52264E-01 2.33358E-25
5.56602E-01 2.27414E-25
5.60935E-01 2.21634E-25
5.65263E-01 2.16013E-25
5.69587E-01 2.10547E-25
5.73905E-01 2.05231E-25
5.78217E-01 2.00059E-25
5.82524E-01 1.95027E-25
5.86824E-01 1.90131E-25
5.91118E-01 1.85367E-25
5.95404E-01 1.80730E-25
5.99684E-01 1.76217E-25
6.03956E-01 1.71823E-25
6.08220E-01 1.67546E-25
6.12476E-01 1.63382E-25
6.16723E-01 1.59326E-25
6.20961E-01 1.55377E-25
6.25190E-01 1.51530E-25
6.29410E-01 1.47783E-25
6.33619E-01 1.44133E-25
6.37819E-01 1.40577E-25
6.42008E-01 1.37112E-25
6.46186E-01 1.33735E-25
6.50353E-01 1.30445E-25
6.54508E-01 1.27238E-25
6.58652E-01 1.24111E-25
6.62784E-01 1.21064E-25
6.66903E-01 1.18092E-25
6.71010E-01 1.15196E-25
6.75104E-01 1.12371E-25
6.79184E-01 1.09616E-25
6.83251E-01 1.06930E-25
6.87303E-01 1.04309E-25
6.91342E-01 1.01753E-25
6.95366E-01 9.92599E-26
6.99375E-01 9.68274E-26
7.03368E-01 9.44541E-26
7.07347E-01 9.21384E-26
7.11309E-01 8.98787E-26
7.15256E-01 8.76734E-26
7.19186E-01 8.55212E-26
7.23099E-01 8.34205E-26
7.26995E-01 8.13701E-26
7.30874E-01 7.93685E-26
7.34736E-01 7.74144E-26
7.38579E-01 7.55067E-26
7.42405E-01 7.36441E-26
7.46212E-01 7.18253E-26
7.50000E-01 7.00494E-26
7.53769E-01 6.83150E-26
7.57519E-01 6.66212E-26
7.61249E-01 6.49670E-26
7.64960E-01 6.33512E-26
7.68650E-01 6.17730E-26
7.72320E-01 6.02314E-26
7.75968E-01 5.87254E-26
7.79596E-01 5.72541E-26
7.83203E-01 5.58167E-26
7.86788E-01 5.44124E-26
7.90351E-01 5.30402E-26
7.93893E-01 5.16995E-26
7.97411E-01 5.03894E-26
8.00908E-01 4.91092E-26
8.04381E-01 4.78581E-26
8.07831E-01 4.66355E-26
8.11257E-01 4.54406E-26
8.14660E-01 4.42728E-26
8.18039E-01 4.31315E-26
8.21394E-01 4.20159E-26
8.24724E-01 4.09256E-26
8.28030E-01 3.98599E-26
8.31310E-01 3.88181E-26
8.34565E-01 3.77999E-26
8.37795E-01 3.68045E-26
8.40999E-01 3.58315E-26
8.44177E-01 3.48804E-26
8.47329E-01 3.39507E-26
8.50455E-01 3.30418E-26
8.53553E-01 3.21534E-26
8.56625E-01 3.12848E-26
8.59670E-01 3.04358E-26
8.62687E-01 2.96058E-26
8.65677E-01 2.87945E-26
8.68639E-01 2.80014E-26
8.71572E-01 2.72261E-26
8.74478E-01 2.64682E-26
8.77355E-01 2.57274E-26
8.80203E-01 2.50033E-26
8.83022E-01 2.42955E-26
8.85812E-01 2.36037E-26
8.88573E-01 2.29276E-26
8.91304E-01 2.22667E-26
8.94005E-01 2.16209E-26
8.96677E-01 2.09897E-26
8.99318E-01 2.03729E-26
9.01928E-01 1.97702E-26
9.04508E-01 1.91813E-26
9.07058E-01 1.86059E-26
9.09576E-01 1.80437E-26
9.12063E-01 1.74946E-26
9.14519E-01 1.69581E-26
9.16943E-01 1.64342E-26
9.19335E-01 1.59224E-26
9.21696E-01 1.54227E-26
9.24024E-01 1.49348E-26
9.26320E-01 1.44584E-26
9.28584E-01 1.39933E-26
9.30815E-01 1.35393E-26
9.33013E-01 1.30963E-26
9.35178E-01 1.26640E-26
9.37310E-01 1.22422E-26
9.39409E-01 1.18307E-26
9.41474E-01 1.14294E-26
9.43505E-01 1.10381E-26
9.45503E-01 1.06565E-26
9.47467E-01 1.02846E-26
9.49397E-01 9.92221E-27
9.51293E-01 9.56909E-27
9.53154E-01 9.22513E-27
9.54981E-01 8.89018E-27
9.56773E-01 8.56410E-27
9.58530E-01 8.24674E-27
9.60252E-01 7.93797E-27
9.61940E-01 7.63765E-27
9.63592E-01 7.34567E-27
9.65209E-01 7.06189E-27
9.66790E-01 6.78619E-27
9.68336E-01 6.51846E-27
9.69846E-01 6.25858E-27
9.71321E-01 6.00645E-27
9.72759E-01 5.76196E-27
9.74162E-01 5.52500E-27
9.75528E-01 5.29549E-27
9.76858E-01 5.07332E-27
9.78152E-01 4.85839E-27
9.79410E-01 4.65063E-27
9.80631E-01 4.44995E-27
9.81815E-01 4.25626E-27
9.82963E-01 4.06948E-27
9.84074E-01 3.88954E-27
9.85148E-01 3.71636E-27
9.86185E-01 3.54988E-27
9.87185E-01 3.39002E-27
9.88148E-01 3.23671E-27
9.89074E-01 3.08991E-27
9.89962E-01 2.94954E-27
9.90814E-01 2.81556E-27
9.91627E-01 2.68790E-27
9.92404E-01 2.56651E-27
9.93143E-01 2.45135E-27
9.93844E-01 2.34238E-27
9.94508E-01 2.23953E-27
9.95134E-01 2.14278E-27
9.95722E-01 2.05209E-27
9.96273E-01 1.96742E-27
9.96786E-01 1.88873E-27
9.97261E-01 1.81599E-27
9.97698E-01 1.74919E-27
9.98097E-01 1.68827E-27
9.98459E-01 1.63324E-27
9.98782E-01 1.58405E-27
9.99067E-01 1.54070E-27
9.99315E-01 1.50316E-27
9.99524E-01 1.47142E-27
9.99695E-01 1.44547E-27
9.99829E-01 1.42530E-27
9.99924E-01 1.41090E-27
9.99981E-01 1.40226E-27
1.00000E+00 1.39938E-27
