 #
 # Subroutine ELSEPA. Elastic scattering of electrons and positrons
 #                    by neutral atoms and positive ions
 #
 # Projectile: positron
 # Kinetic energy = 1.00000E+09 eV = 3.67493E+07 a.u.
 #
 # WARNING: High-energy factorization with free-atom DF screening.
 #          Absorption, polarization and exchange corrections are
 #          switched off.
 #          Phase shifts are calculated for the bare nucleus.
 #          Scattering amplitudes are not evaluated.
 #
 # Element: Nb,  Z =  41,  atomic weight = 9.29064E+01 g/mol
 #
 # Nuclear model: Fermi distribution
 #                Average radius = 4.84617E-13 cm
 #                Skin thickness = 5.46000E-14 cm
 #
 # Number of electrons = 41
 #
 # Total elastic cross section = 3.94030E-18 cm**2 = 1.40711E-01 a0**2
 # 1st transport cross section = 3.35205E-27 cm**2 = 1.19704E-10 a0**2
 # 2nd transport cross section = 1.00551E-26 cm**2 = 3.59073E-10 a0**2
 #
 #
 # Differential cross section:                       MU=(1-COS(THETA))/2
 #
 #  THETA        MU          DCS          DCS        Sherman      error
 #  (deg)                 (cm**2/sr)   (a0**2/sr)    function
 #----------------------------------------------------------------------
0.00000E+00 4.30655E-08
7.61557E-13 3.18250E-08
1.18994E-12 2.75633E-08
1.71346E-12 2.35822E-08
2.33225E-12 2.00544E-08
3.04617E-12 1.70314E-08
3.85530E-12 1.44894E-08
4.75964E-12 1.23709E-08
5.75917E-12 1.06095E-08
6.85391E-12 9.14094E-09
8.04379E-12 7.91186E-09
9.32893E-12 6.87829E-09
1.07092E-11 6.00427E-09
1.21847E-11 5.26101E-09
1.37554E-11 4.62561E-09
1.54213E-11 4.07878E-09
1.71823E-11 3.60730E-09
1.90386E-11 3.19925E-09
2.09900E-11 2.84494E-09
2.30367E-11 2.53510E-09
2.51785E-11 2.24979E-09
2.74156E-11 2.00852E-09
2.97478E-11 1.80326E-09
3.21752E-11 1.62763E-09
3.46979E-11 1.47653E-09
3.73157E-11 1.33589E-09
4.00286E-11 1.20750E-09
4.28368E-11 1.09610E-09
4.57402E-11 9.99011E-10
4.87388E-11 9.14019E-10
5.18325E-11 8.38754E-10
5.50215E-11 7.67337E-10
5.83057E-11 7.04310E-10
6.16850E-11 6.48488E-10
6.51595E-11 5.98879E-10
6.87293E-11 5.54646E-10
7.23943E-11 5.13714E-10
7.61544E-11 4.76227E-10
1.18991E-10 2.46392E-10
1.71347E-10 1.42430E-10
2.33223E-10 8.77887E-11
3.04617E-10 5.65150E-11
3.85531E-10 3.76420E-11
4.75965E-10 2.58418E-11
5.75917E-10 1.82516E-11
6.85389E-10 1.32259E-11
8.04380E-10 9.82251E-12
9.32891E-10 7.45693E-12
1.07092E-09 5.77035E-12
1.21847E-09 4.54010E-12
1.37554E-09 3.62471E-12
1.54213E-09 2.93128E-12
1.71823E-09 2.39759E-12
1.90386E-09 1.98069E-12
2.09900E-09 1.65073E-12
2.30367E-09 1.38653E-12
2.51785E-09 1.17222E-12
2.74156E-09 9.98908E-13
2.97478E-09 8.55379E-13
3.21752E-09 7.37103E-13
3.46978E-09 6.38150E-13
3.73156E-09 5.55227E-13
4.00286E-09 4.85255E-13
4.28368E-09 4.25822E-13
4.57402E-09 3.75247E-13
4.87388E-09 3.31791E-13
5.18326E-09 2.94522E-13
5.50215E-09 2.62205E-13
5.83057E-09 2.34263E-13
6.16850E-09 2.09866E-13
6.51596E-09 1.88589E-13
6.87293E-09 1.69913E-13
7.23942E-09 1.53496E-13
7.61544E-09 1.39009E-13
1.18991E-08 5.78807E-14
1.71347E-08 2.82449E-14
2.33223E-08 1.53886E-14
3.04617E-08 9.08735E-15
3.85531E-08 5.70647E-15
4.75965E-08 3.76124E-15
5.75917E-08 2.57832E-15
6.85389E-08 1.82570E-15
8.04380E-08 1.32854E-15
9.32891E-08 9.89545E-16
1.07092E-07 7.52018E-16
1.21847E-07 5.81622E-16
1.37554E-07 4.56833E-16
1.54213E-07 3.63766E-16
1.71823E-07 2.93222E-16
1.90386E-07 2.38970E-16
2.09900E-07 1.96697E-16
2.30367E-07 1.63367E-16
2.51785E-07 1.36804E-16
2.74156E-07 1.15424E-16
2.97478E-07 9.80611E-17
3.21752E-07 8.38422E-17
3.46978E-07 7.21087E-17
3.73156E-07 6.23571E-17
4.00286E-07 5.41991E-17
4.28368E-07 4.73323E-17
4.57402E-07 4.15190E-17
4.87388E-07 3.65711E-17
5.18325E-07 3.23387E-17
5.50215E-07 2.87011E-17
5.83057E-07 2.55607E-17
6.16850E-07 2.28383E-17
6.51596E-07 2.04687E-17
6.87293E-07 1.83986E-17
7.23942E-07 1.65837E-17
7.61543E-07 1.49871E-17
1.18991E-06 6.14004E-18
1.71347E-06 2.96115E-18
2.33223E-06 1.59828E-18
3.04617E-06 9.36803E-19
3.85531E-06 5.84779E-19
4.75964E-06 3.83627E-19
5.75916E-06 2.61988E-19
6.85388E-06 1.84956E-19
8.04378E-06 1.34264E-19
9.32888E-06 9.98067E-20
1.07092E-05 7.57260E-20
1.21846E-05 5.84878E-20
1.37553E-05 4.58867E-20
1.54212E-05 3.65031E-20
1.71822E-05 2.93995E-20
1.90385E-05 2.39381E-20
2.09899E-05 1.96955E-20
2.30365E-05 1.63514E-20
2.51783E-05 1.36863E-20
2.74153E-05 1.15414E-20
2.97475E-05 9.80002E-21
3.21749E-05 8.37483E-21
3.46974E-05 7.19974E-21
3.73152E-05 6.22400E-21
4.00281E-05 5.40833E-21
4.28362E-05 4.72210E-21
4.57395E-05 4.14129E-21
4.87380E-05 3.64697E-21
5.18317E-05 3.22411E-21
5.50205E-05 2.86069E-21
5.83045E-05 2.54700E-21
6.16838E-05 2.27514E-21
6.51582E-05 2.03863E-21
6.87277E-05 1.83209E-21
7.23925E-05 1.65108E-21
7.61524E-05 1.46115E-21
9.21439E-05 9.90599E-22
1.09658E-04 6.93536E-22
1.28695E-04 4.98816E-22
1.49255E-04 3.66989E-22
1.71338E-04 2.75318E-22
1.94942E-04 2.10039E-22
2.20070E-04 1.62602E-22
2.46720E-04 1.27507E-22
2.74892E-04 1.01126E-22
3.04586E-04 8.10173E-23
3.35803E-04 6.54921E-23
3.68542E-04 5.33709E-23
4.02802E-04 4.38094E-23
4.38585E-04 3.61968E-23
4.75889E-04 3.00850E-23
5.14715E-04 2.51398E-23
5.55063E-04 2.11106E-23
5.96931E-04 1.78063E-23
6.40321E-04 1.50805E-23
6.85233E-04 1.28196E-23
7.31665E-04 1.09348E-23
7.79618E-04 9.35625E-24
8.29092E-04 8.02847E-24
8.80086E-04 6.90721E-24
9.32601E-04 5.95682E-24
9.86636E-04 5.14852E-24
1.04219E-03 4.45887E-24
1.09927E-03 3.86872E-24
1.15786E-03 3.36234E-24
1.21797E-03 2.92673E-24
1.27961E-03 2.55111E-24
1.34276E-03 2.22653E-24
1.40743E-03 1.94547E-24
1.47362E-03 1.70165E-24
1.54133E-03 1.48976E-24
1.61056E-03 1.30533E-24
1.68131E-03 1.14456E-24
1.75357E-03 1.00422E-24
1.82735E-03 8.81580E-25
1.90265E-03 7.74272E-25
1.97947E-03 6.80286E-25
2.05780E-03 5.97892E-25
2.13765E-03 5.25598E-25
2.21902E-03 4.62120E-25
2.30190E-03 4.06345E-25
2.38630E-03 3.57311E-25
2.47222E-03 3.14180E-25
2.55965E-03 2.76228E-25
2.64859E-03 2.42819E-25
2.73905E-03 2.13404E-25
2.83103E-03 1.87498E-25
2.92452E-03 1.64681E-25
3.01952E-03 1.44583E-25
3.11604E-03 1.26881E-25
3.21407E-03 1.11289E-25
3.31362E-03 9.75594E-26
3.41468E-03 8.54712E-26
3.51725E-03 7.48314E-26
3.62133E-03 6.54696E-26
3.72692E-03 5.72358E-26
3.83403E-03 4.99975E-26
3.94265E-03 4.36378E-26
4.05278E-03 3.80535E-26
4.16442E-03 3.31533E-26
4.27757E-03 2.88567E-26
4.39223E-03 2.50923E-26
4.50840E-03 2.17971E-26
4.62608E-03 1.89155E-26
4.74527E-03 1.63980E-26
4.86597E-03 1.42012E-26
4.98817E-03 1.22863E-26
5.11188E-03 1.06194E-26
5.23711E-03 9.17022E-27
5.36383E-03 7.91212E-27
5.49207E-03 6.82153E-27
5.62181E-03 5.87764E-27
5.75306E-03 5.06207E-27
5.88581E-03 4.35859E-27
6.02007E-03 3.75291E-27
6.15583E-03 3.23242E-27
6.29310E-03 2.78602E-27
6.43187E-03 2.40394E-27
6.57214E-03 2.07760E-27
6.71392E-03 1.79948E-27
6.85720E-03 1.56295E-27
7.00198E-03 1.36225E-27
7.14827E-03 1.19231E-27
7.29605E-03 1.04871E-27
7.44534E-03 9.27607E-28
7.59612E-03 8.25658E-28
7.97965E-03 6.36444E-28
8.37255E-03 5.14138E-28
8.77480E-03 4.34212E-28
9.18641E-03 3.80153E-28
9.60736E-03 3.41137E-28
1.00376E-02 3.10320E-28
1.04773E-02 2.83588E-28
1.09262E-02 2.58661E-28
1.13844E-02 2.34439E-28
1.18520E-02 2.10559E-28
1.23288E-02 1.87072E-28
1.28150E-02 1.64238E-28
1.33104E-02 1.42393E-28
1.38150E-02 1.21859E-28
1.43290E-02 1.02902E-28
1.48521E-02 8.57119E-29
1.53845E-02 7.03944E-29
1.59262E-02 5.69785E-29
1.64770E-02 4.54262E-29
1.70371E-02 3.56468E-29
1.76063E-02 2.75100E-29
1.81848E-02 2.08596E-29
1.87724E-02 1.55253E-29
1.93692E-02 1.13319E-29
1.99751E-02 8.10764E-30
2.05901E-02 5.68972E-30
2.12143E-02 3.92848E-30
2.18476E-02 2.68991E-30
2.24900E-02 1.85693E-30
2.31415E-02 1.32959E-30
2.38021E-02 1.02461E-30
2.44717E-02 8.74238E-31
2.51504E-02 8.24810E-31
2.58382E-02 8.35087E-31
2.65349E-02 8.74496E-31
2.72407E-02 9.21400E-31
2.79555E-02 9.61437E-31
2.86793E-02 9.86006E-31
2.94120E-02 9.90914E-31
3.01537E-02 9.75201E-31
3.09043E-02 9.40153E-31
3.16639E-02 8.88496E-31
3.24324E-02 8.23748E-31
3.32098E-02 7.49729E-31
3.39961E-02 6.70199E-31
3.47912E-02 5.88612E-31
3.55952E-02 5.07954E-31
3.64081E-02 4.30665E-31
3.72297E-02 3.58611E-31
3.80602E-02 2.93104E-31
3.88995E-02 2.34942E-31
3.97476E-02 1.84483E-31
4.06044E-02 1.41711E-31
4.14700E-02 1.06315E-31
4.23443E-02 7.77704E-32
4.32273E-02 5.53990E-32
4.41190E-02 3.84373E-32
4.50194E-02 2.60853E-32
4.59284E-02 1.75493E-32
4.68461E-02 1.20740E-32
4.87074E-02 7.61009E-33
5.06030E-02 8.11780E-33
5.25328E-02 1.03947E-32
5.44967E-02 1.25120E-32
5.64946E-02 1.35564E-32
5.85262E-02 1.33215E-32
6.05914E-02 1.20162E-32
6.26901E-02 1.00327E-32
6.48222E-02 7.78414E-33
6.69873E-02 5.61061E-33
6.91854E-02 3.73895E-33
7.14163E-02 2.28116E-33
7.36799E-02 1.25473E-33
7.59760E-02 6.12423E-34
7.83043E-02 2.72158E-34
8.06647E-02 1.41844E-34
8.30571E-02 1.36713E-34
8.54812E-02 1.89119E-34
8.79369E-02 2.52030E-34
9.04240E-02 2.98012E-34
9.29422E-02 3.15564E-34
9.54915E-02 3.04388E-34
9.80716E-02 2.70744E-34
1.00682E-01 2.23587E-34
1.03323E-01 1.71806E-34
1.05995E-01 1.22568E-34
1.08696E-01 8.06158E-35
1.11427E-01 4.82573E-35
1.14188E-01 2.57844E-35
1.16978E-01 1.20840E-35
1.19797E-01 5.26821E-36
1.22645E-01 3.21078E-36
1.25522E-01 3.93546E-36
1.28428E-01 5.84736E-36
1.31361E-01 7.82593E-36
1.34323E-01 9.21411E-36
1.37313E-01 9.74216E-36
1.40330E-01 9.42055E-36
1.43375E-01 8.42967E-36
1.46447E-01 7.02376E-36
1.49545E-01 5.45902E-36
1.52671E-01 3.94794E-36
1.55823E-01 2.63763E-36
1.59001E-01 1.60653E-36
1.62205E-01 8.73691E-37
1.65435E-01 4.14377E-37
1.68690E-01 1.77286E-37
1.71970E-01 1.00139E-37
1.75276E-01 1.21822E-37
1.78606E-01 1.90385E-37
1.81961E-01 2.67082E-37
1.85340E-01 3.27197E-37
1.88743E-01 3.58621E-37
1.92169E-01 3.59089E-37
1.95619E-01 3.32953E-37
1.99092E-01 2.88087E-37
2.02589E-01 2.33357E-37
2.06107E-01 1.76846E-37
2.09649E-01 1.24781E-37
2.13212E-01 8.11604E-38
2.16797E-01 4.78535E-38
2.20404E-01 2.49325E-38
2.24032E-01 1.00000E-45
2.27680E-01 1.00000E-45
2.31350E-01 1.00000E-45
2.35040E-01 1.00000E-45
2.38751E-01 1.00000E-45
2.42481E-01 1.00000E-45
2.46231E-01 1.00000E-45
2.50000E-01 1.00000E-45
2.53788E-01 1.00000E-45
2.57595E-01 1.00000E-45
2.61421E-01 1.00000E-45
2.65264E-01 1.00000E-45
2.69126E-01 1.00000E-45
2.73005E-01 1.00000E-45
2.76901E-01 1.00000E-45
2.80814E-01 1.00000E-45
2.84744E-01 1.00000E-45
2.88691E-01 1.00000E-45
2.92653E-01 1.00000E-45
2.96632E-01 1.00000E-45
3.00625E-01 1.00000E-45
3.04634E-01 1.00000E-45
3.08658E-01 1.00000E-45
3.12697E-01 1.00000E-45
3.16749E-01 1.00000E-45
3.20816E-01 1.00000E-45
3.24896E-01 1.00000E-45
3.28990E-01 1.00000E-45
3.33097E-01 1.00000E-45
3.37216E-01 1.00000E-45
3.41348E-01 1.00000E-45
3.45492E-01 1.00000E-45
3.49647E-01 1.00000E-45
3.53814E-01 1.00000E-45
3.57992E-01 1.00000E-45
3.62181E-01 1.00000E-45
3.66381E-01 1.00000E-45
3.70590E-01 1.00000E-45
3.74810E-01 1.00000E-45
3.79039E-01 1.00000E-45
3.83277E-01 1.00000E-45
3.87524E-01 1.00000E-45
3.91780E-01 1.00000E-45
3.96044E-01 1.00000E-45
4.00316E-01 1.00000E-45
4.04596E-01 1.00000E-45
4.08882E-01 1.00000E-45
4.13176E-01 1.00000E-45
4.17476E-01 1.00000E-45
4.21783E-01 1.00000E-45
4.26095E-01 1.00000E-45
4.30413E-01 1.00000E-45
4.34737E-01 1.00000E-45
4.39065E-01 1.00000E-45
4.43398E-01 1.00000E-45
4.47736E-01 1.00000E-45
4.52077E-01 1.00000E-45
4.56422E-01 1.00000E-45
4.60770E-01 1.00000E-45
4.65122E-01 1.00000E-45
4.69476E-01 1.00000E-45
4.73832E-01 1.00000E-45
4.78190E-01 1.00000E-45
4.82550E-01 1.00000E-45
4.86912E-01 1.00000E-45
4.91274E-01 1.00000E-45
4.95637E-01 1.00000E-45
5.00000E-01 1.00000E-45
5.04363E-01 1.00000E-45
5.08726E-01 1.00000E-45
5.13088E-01 1.00000E-45
5.17450E-01 1.00000E-45
5.21810E-01 1.00000E-45
5.26168E-01 1.00000E-45
5.30524E-01 1.00000E-45
5.34878E-01 1.00000E-45
5.39230E-01 1.00000E-45
5.43578E-01 1.00000E-45
5.47923E-01 1.00000E-45
5.52264E-01 1.00000E-45
5.56602E-01 1.00000E-45
5.60935E-01 1.00000E-45
5.65263E-01 1.00000E-45
5.69587E-01 1.00000E-45
5.73905E-01 1.00000E-45
5.78217E-01 1.00000E-45
5.82524E-01 1.00000E-45
5.86824E-01 1.00000E-45
5.91118E-01 1.00000E-45
5.95404E-01 1.00000E-45
5.99684E-01 1.00000E-45
6.03956E-01 1.00000E-45
6.08220E-01 1.00000E-45
6.12476E-01 1.00000E-45
6.16723E-01 1.00000E-45
6.20961E-01 1.00000E-45
6.25190E-01 1.00000E-45
6.29410E-01 1.00000E-45
6.33619E-01 1.00000E-45
6.37819E-01 1.00000E-45
6.42008E-01 1.00000E-45
6.46186E-01 1.00000E-45
6.50353E-01 1.00000E-45
6.54508E-01 1.00000E-45
6.58652E-01 1.00000E-45
6.62784E-01 1.00000E-45
6.66903E-01 1.00000E-45
6.71010E-01 1.00000E-45
6.75104E-01 1.00000E-45
6.79184E-01 1.00000E-45
6.83251E-01 1.00000E-45
6.87303E-01 1.00000E-45
6.91342E-01 1.00000E-45
6.95366E-01 1.00000E-45
6.99375E-01 1.00000E-45
7.03368E-01 1.00000E-45
7.07347E-01 1.00000E-45
7.11309E-01 1.00000E-45
7.15256E-01 1.00000E-45
7.19186E-01 1.00000E-45
7.23099E-01 1.00000E-45
7.26995E-01 1.00000E-45
7.30874E-01 1.00000E-45
7.34736E-01 1.00000E-45
7.38579E-01 1.00000E-45
7.42405E-01 1.00000E-45
7.46212E-01 1.00000E-45
7.50000E-01 1.00000E-45
7.53769E-01 1.00000E-45
7.57519E-01 1.00000E-45
7.61249E-01 1.00000E-45
7.64960E-01 1.00000E-45
7.68650E-01 1.00000E-45
7.72320E-01 1.00000E-45
7.75968E-01 1.00000E-45
7.79596E-01 1.00000E-45
7.83203E-01 1.00000E-45
7.86788E-01 1.00000E-45
7.90351E-01 1.00000E-45
7.93893E-01 1.00000E-45
7.97411E-01 1.00000E-45
8.00908E-01 1.00000E-45
8.04381E-01 1.00000E-45
8.07831E-01 1.00000E-45
8.11257E-01 1.00000E-45
8.14660E-01 1.00000E-45
8.18039E-01 1.00000E-45
8.21394E-01 1.00000E-45
8.24724E-01 1.00000E-45
8.28030E-01 1.00000E-45
8.31310E-01 1.00000E-45
8.34565E-01 1.00000E-45
8.37795E-01 1.00000E-45
8.40999E-01 1.00000E-45
8.44177E-01 1.00000E-45
8.47329E-01 1.00000E-45
8.50455E-01 1.00000E-45
8.53553E-01 1.00000E-45
8.56625E-01 1.00000E-45
8.59670E-01 1.00000E-45
8.62687E-01 1.00000E-45
8.65677E-01 1.00000E-45
8.68639E-01 1.00000E-45
8.71572E-01 1.00000E-45
8.74478E-01 1.00000E-45
8.77355E-01 1.00000E-45
8.80203E-01 1.00000E-45
8.83022E-01 1.00000E-45
8.85812E-01 1.00000E-45
8.88573E-01 1.00000E-45
8.91304E-01 1.00000E-45
8.94005E-01 1.00000E-45
8.96677E-01 1.00000E-45
8.99318E-01 1.00000E-45
9.01928E-01 1.00000E-45
9.04508E-01 1.00000E-45
9.07058E-01 1.00000E-45
9.09576E-01 1.00000E-45
9.12063E-01 1.00000E-45
9.14519E-01 1.00000E-45
9.16943E-01 1.00000E-45
9.19335E-01 1.00000E-45
9.21696E-01 1.00000E-45
9.24024E-01 1.00000E-45
9.26320E-01 1.00000E-45
9.28584E-01 1.00000E-45
9.30815E-01 1.00000E-45
9.33013E-01 1.00000E-45
9.35178E-01 1.00000E-45
9.37310E-01 1.00000E-45
9.39409E-01 1.00000E-45
9.41474E-01 1.00000E-45
9.43505E-01 1.00000E-45
9.45503E-01 1.00000E-45
9.47467E-01 1.00000E-45
9.49397E-01 1.00000E-45
9.51293E-01 1.00000E-45
9.53154E-01 1.00000E-45
9.54981E-01 1.00000E-45
9.56773E-01 1.00000E-45
9.58530E-01 1.00000E-45
9.60252E-01 1.00000E-45
9.61940E-01 1.00000E-45
9.63592E-01 1.00000E-45
9.65209E-01 1.00000E-45
9.66790E-01 1.00000E-45
9.68336E-01 1.00000E-45
9.69846E-01 1.00000E-45
9.71321E-01 1.00000E-45
9.72759E-01 1.00000E-45
9.74162E-01 1.00000E-45
9.75528E-01 1.00000E-45
9.76858E-01 1.00000E-45
9.78152E-01 1.00000E-45
9.79410E-01 1.00000E-45
9.80631E-01 1.00000E-45
9.81815E-01 1.00000E-45
9.82963E-01 1.00000E-45
9.84074E-01 1.00000E-45
9.85148E-01 1.00000E-45
9.86185E-01 1.00000E-45
9.87185E-01 1.00000E-45
9.88148E-01 1.00000E-45
9.89074E-01 1.00000E-45
9.89962E-01 1.00000E-45
9.90814E-01 1.00000E-45
9.91627E-01 1.00000E-45
9.92404E-01 1.00000E-45
9.93143E-01 1.00000E-45
9.93844E-01 1.00000E-45
9.94508E-01 1.00000E-45
9.95134E-01 1.00000E-45
9.95722E-01 1.00000E-45
9.96273E-01 1.00000E-45
9.96786E-01 1.00000E-45
9.97261E-01 1.00000E-45
9.97698E-01 1.00000E-45
9.98097E-01 1.00000E-45
9.98459E-01 1.00000E-45
9.98782E-01 1.00000E-45
9.99067E-01 1.00000E-45
9.99315E-01 1.00000E-45
9.99524E-01 1.00000E-45
9.99695E-01 1.00000E-45
9.99829E-01 1.00000E-45
9.99924E-01 1.00000E-45
9.99981E-01 1.00000E-45
1.00000E+00 1.00000E-45
