 #
 # Subroutine ELSEPA. Elastic scattering of electrons and positrons
 #                    by neutral atoms and positive ions
 #
 # Projectile: positron
 # Kinetic energy = 1.75000E+08 eV = 6.43113E+06 a.u.
 #
 # WARNING: High-energy factorization with free-atom DF screening.
 #          Absorption, polarization and exchange corrections are
 #          switched off.
 #          Phase shifts are calculated for the bare nucleus.
 #          Scattering amplitudes are not evaluated.
 #
 # Element: Nb,  Z =  41,  atomic weight = 9.29064E+01 g/mol
 #
 # Nuclear model: Fermi distribution
 #                Average radius = 4.84617E-13 cm
 #                Skin thickness = 5.46000E-14 cm
 #
 # Number of electrons = 41
 #
 # Total elastic cross section = 3.98592E-18 cm**2 = 1.42340E-01 a0**2
 # 1st transport cross section = 1.07825E-25 cm**2 = 3.85051E-09 a0**2
 # 2nd transport cross section = 3.22346E-25 cm**2 = 1.15112E-08 a0**2
 #
 #
 # Differential cross section:                       MU=(1-COS(THETA))/2
 #
 #  THETA        MU          DCS          DCS        Sherman      error
 #  (deg)                 (cm**2/sr)   (a0**2/sr)    function
 #----------------------------------------------------------------------
0.00000E+00 1.32524E-09
7.61557E-13 1.31153E-09
1.18994E-12 1.30394E-09
1.71346E-12 1.29476E-09
2.33225E-12 1.28405E-09
3.04617E-12 1.27189E-09
3.85530E-12 1.25834E-09
4.75964E-12 1.24349E-09
5.75917E-12 1.22743E-09
6.85391E-12 1.21024E-09
8.04379E-12 1.19202E-09
9.32893E-12 1.17286E-09
1.07092E-11 1.15290E-09
1.21847E-11 1.13220E-09
1.37554E-11 1.11085E-09
1.54213E-11 1.08899E-09
1.71823E-11 1.06669E-09
1.90386E-11 1.04400E-09
2.09900E-11 1.02107E-09
2.30367E-11 9.97989E-10
2.51785E-11 9.74745E-10
2.74156E-11 9.51504E-10
2.97478E-11 9.28335E-10
3.21752E-11 9.05196E-10
3.46979E-11 8.82250E-10
3.73157E-11 8.59548E-10
4.00286E-11 8.37044E-10
4.28368E-11 8.14860E-10
4.57402E-11 7.93047E-10
4.87388E-11 7.71554E-10
5.18325E-11 7.50463E-10
5.50215E-11 7.29825E-10
5.83057E-11 7.09590E-10
6.16850E-11 6.89800E-10
6.51595E-11 6.70511E-10
6.87293E-11 6.51675E-10
7.23943E-11 6.33295E-10
7.61544E-11 6.15435E-10
1.18991E-10 4.62612E-10
1.71347E-10 3.50963E-10
2.33223E-10 2.70020E-10
3.04617E-10 2.10683E-10
3.85531E-10 1.66446E-10
4.75965E-10 1.32914E-10
5.75917E-10 1.07103E-10
6.85389E-10 8.70320E-11
8.04380E-10 7.08304E-11
9.32891E-10 5.81532E-11
1.07092E-09 4.85551E-11
1.21847E-09 4.08239E-11
1.37554E-09 3.43067E-11
1.54213E-09 2.91941E-11
1.71823E-09 2.50540E-11
1.90386E-09 2.15204E-11
2.09900E-09 1.86636E-11
2.30367E-09 1.63156E-11
2.51785E-09 1.42827E-11
2.74156E-09 1.25978E-11
2.97478E-09 1.11898E-11
3.21752E-09 9.94593E-12
3.46978E-09 8.89350E-12
3.73156E-09 7.99760E-12
4.00286E-09 7.19595E-12
4.28368E-09 6.50191E-12
4.57402E-09 5.90226E-12
4.87388E-09 5.36001E-12
5.18326E-09 4.88067E-12
5.50215E-09 4.46155E-12
5.83057E-09 4.08041E-12
6.16850E-09 3.73716E-12
6.51596E-09 3.43409E-12
6.87293E-09 3.15811E-12
7.23942E-09 2.90564E-12
7.61544E-09 2.68089E-12
1.18991E-08 1.26883E-12
1.71347E-08 6.60099E-13
2.33223E-08 3.73588E-13
3.04617E-08 2.27408E-13
3.85531E-08 1.46796E-13
4.75965E-08 9.92548E-14
5.75917E-08 6.96445E-14
6.85389E-08 5.03349E-14
8.04380E-08 3.72448E-14
9.32891E-08 2.81619E-14
1.07092E-07 2.16739E-14
1.21847E-07 1.69264E-14
1.37554E-07 1.34053E-14
1.54213E-07 1.07496E-14
1.71823E-07 8.71666E-15
1.90386E-07 7.14018E-15
2.09900E-07 5.90177E-15
2.30367E-07 4.92015E-15
2.51785E-07 4.13415E-15
2.74156E-07 3.49890E-15
2.97478E-07 2.98103E-15
3.21752E-07 2.55536E-15
3.46978E-07 2.20310E-15
3.73156E-07 1.90959E-15
4.00286E-07 1.66345E-15
4.28368E-07 1.45578E-15
4.57402E-07 1.27953E-15
4.87388E-07 1.12922E-15
5.18325E-07 1.00039E-15
5.50215E-07 8.89459E-16
5.83057E-07 7.93513E-16
6.16850E-07 7.10162E-16
6.51596E-07 6.37494E-16
6.87293E-07 5.73903E-16
7.23942E-07 5.18059E-16
7.61543E-07 4.68854E-16
1.18991E-06 1.94311E-16
1.71347E-06 9.44311E-17
2.33223E-06 5.12298E-17
3.04617E-06 3.01311E-17
3.85531E-06 1.88537E-17
4.75964E-06 1.23894E-17
5.75916E-06 8.47146E-18
6.85388E-06 5.98610E-18
8.04378E-06 4.34847E-18
9.32888E-06 3.23423E-18
1.07092E-05 2.45493E-18
1.21846E-05 1.89674E-18
1.37553E-05 1.48849E-18
1.54212E-05 1.18436E-18
1.71822E-05 9.54062E-19
1.90385E-05 7.76953E-19
2.09899E-05 6.39339E-19
2.30365E-05 5.30848E-19
2.51783E-05 4.44368E-19
2.74153E-05 3.74759E-19
2.97475E-05 3.18238E-19
3.21749E-05 2.71975E-19
3.46974E-05 2.33827E-19
3.73152E-05 2.02147E-19
4.00281E-05 1.75663E-19
4.28362E-05 1.53380E-19
4.57395E-05 1.34520E-19
4.87380E-05 1.18467E-19
5.18317E-05 1.04734E-19
5.50205E-05 9.29305E-20
5.83045E-05 8.27422E-20
6.16838E-05 7.39122E-20
6.51582E-05 6.62299E-20
6.87277E-05 5.95211E-20
7.23925E-05 5.36413E-20
7.61524E-05 4.84924E-20
9.21439E-05 3.31038E-20
1.09658E-04 2.33600E-20
1.28695E-04 1.69509E-20
1.49255E-04 1.25947E-20
1.71338E-04 9.55166E-21
1.94942E-04 7.37377E-21
2.20070E-04 5.78223E-21
2.46720E-04 4.59746E-21
2.74892E-04 3.70080E-21
3.04586E-04 3.01225E-21
3.35803E-04 2.47639E-21
3.68542E-04 2.05442E-21
4.02802E-04 1.71847E-21
4.38585E-04 1.44834E-21
4.75889E-04 1.22917E-21
5.14715E-04 1.04984E-21
5.55063E-04 9.01988E-22
5.96931E-04 7.79202E-22
6.40321E-04 6.76562E-22
6.85233E-04 5.90232E-22
7.31665E-04 5.17201E-22
7.79618E-04 4.55088E-22
8.29092E-04 4.01993E-22
8.80086E-04 3.56392E-22
9.32601E-04 3.17053E-22
9.86636E-04 2.82972E-22
1.04219E-03 2.53330E-22
1.09927E-03 2.27451E-22
1.15786E-03 2.04778E-22
1.21797E-03 1.84846E-22
1.27961E-03 1.67268E-22
1.34276E-03 1.51719E-22
1.40743E-03 1.37925E-22
1.47362E-03 1.25653E-22
1.54133E-03 1.14707E-22
1.61056E-03 1.04919E-22
1.68131E-03 9.61459E-23
1.75357E-03 8.82638E-23
1.82735E-03 8.11666E-23
1.90265E-03 7.47628E-23
1.97947E-03 6.89728E-23
2.05780E-03 6.37275E-23
2.13765E-03 5.89669E-23
2.21902E-03 5.46383E-23
2.30190E-03 5.06956E-23
2.38630E-03 4.70986E-23
2.47222E-03 4.38115E-23
2.55965E-03 4.08030E-23
2.64859E-03 3.80453E-23
2.73905E-03 3.55140E-23
2.83103E-03 3.31870E-23
2.92452E-03 3.10451E-23
3.01952E-03 2.90710E-23
3.11604E-03 2.72491E-23
3.21407E-03 2.55657E-23
3.31362E-03 2.40084E-23
3.41468E-03 2.25661E-23
3.51725E-03 2.12289E-23
3.62133E-03 1.99876E-23
3.72692E-03 1.88343E-23
3.83403E-03 1.77615E-23
3.94265E-03 1.67627E-23
4.05278E-03 1.58319E-23
4.16442E-03 1.49636E-23
4.27757E-03 1.41529E-23
4.39223E-03 1.33953E-23
4.50840E-03 1.26868E-23
4.62608E-03 1.20235E-23
4.74527E-03 1.14020E-23
4.86597E-03 1.08194E-23
4.98817E-03 1.02726E-23
5.11188E-03 9.75925E-24
5.23711E-03 9.27678E-24
5.36383E-03 8.82306E-24
5.49207E-03 8.39607E-24
5.62181E-03 7.99396E-24
5.75306E-03 7.61503E-24
5.88581E-03 7.25771E-24
6.02007E-03 6.92056E-24
6.15583E-03 6.60222E-24
6.29310E-03 6.30148E-24
6.43187E-03 6.01718E-24
6.57214E-03 5.74828E-24
6.71392E-03 5.49380E-24
6.85720E-03 5.25282E-24
7.00198E-03 5.02451E-24
7.14827E-03 4.80808E-24
7.29605E-03 4.60281E-24
7.44534E-03 4.40803E-24
7.59612E-03 4.22311E-24
7.97965E-03 3.80017E-24
8.37255E-03 3.42719E-24
8.77480E-03 3.09733E-24
9.18641E-03 2.80483E-24
9.60736E-03 2.54479E-24
1.00376E-02 2.31305E-24
1.04773E-02 2.10606E-24
1.09262E-02 1.92075E-24
1.13844E-02 1.75451E-24
1.18520E-02 1.60507E-24
1.23288E-02 1.47047E-24
1.28150E-02 1.34901E-24
1.33104E-02 1.23922E-24
1.38150E-02 1.13980E-24
1.43290E-02 1.04963E-24
1.48521E-02 9.67712E-25
1.53845E-02 8.93184E-25
1.59262E-02 8.25277E-25
1.64770E-02 7.63318E-25
1.70371E-02 7.06708E-25
1.76063E-02 6.54918E-25
1.81848E-02 6.07478E-25
1.87724E-02 5.63970E-25
1.93692E-02 5.24021E-25
1.99751E-02 4.87300E-25
2.05901E-02 4.53507E-25
2.12143E-02 4.22378E-25
2.18476E-02 3.93673E-25
2.24900E-02 3.67176E-25
2.31415E-02 3.42696E-25
2.38021E-02 3.20057E-25
2.44717E-02 2.99103E-25
2.51504E-02 2.79691E-25
2.58382E-02 2.61693E-25
2.65349E-02 2.44993E-25
2.72407E-02 2.29484E-25
2.79555E-02 2.15072E-25
2.86793E-02 2.01667E-25
2.94120E-02 1.89192E-25
3.01537E-02 1.77574E-25
3.09043E-02 1.66746E-25
3.16639E-02 1.56649E-25
3.24324E-02 1.47227E-25
3.32098E-02 1.38429E-25
3.39961E-02 1.30210E-25
3.47912E-02 1.22527E-25
3.55952E-02 1.15340E-25
3.64081E-02 1.08615E-25
3.72297E-02 1.02318E-25
3.80602E-02 9.64192E-26
3.88995E-02 9.08904E-26
3.97476E-02 8.57061E-26
4.06044E-02 8.08424E-26
4.14700E-02 7.62775E-26
4.23443E-02 7.19912E-26
4.32273E-02 6.79646E-26
4.41190E-02 6.41806E-26
4.50194E-02 6.06231E-26
4.59284E-02 5.72772E-26
4.68461E-02 5.41291E-26
4.87074E-02 4.83761E-26
5.06030E-02 4.32724E-26
5.25328E-02 3.87388E-26
5.44967E-02 3.47064E-26
5.64946E-02 3.11156E-26
5.85262E-02 2.79145E-26
6.05914E-02 2.50578E-26
6.26901E-02 2.25060E-26
6.48222E-02 2.02243E-26
6.69873E-02 1.81825E-26
6.91854E-02 1.63538E-26
7.14163E-02 1.47147E-26
7.36799E-02 1.32446E-26
7.59760E-02 1.19250E-26
7.83043E-02 1.07400E-26
8.06647E-02 9.67506E-27
8.30571E-02 8.71761E-27
8.54812E-02 7.85635E-27
8.79369E-02 7.08126E-27
9.04240E-02 6.38344E-27
9.29422E-02 5.75494E-27
9.54915E-02 5.18869E-27
9.80716E-02 4.67835E-27
1.00682E-01 4.21828E-27
1.03323E-01 3.80343E-27
1.05995E-01 3.42928E-27
1.08696E-01 3.09176E-27
1.11427E-01 2.78725E-27
1.14188E-01 2.51247E-27
1.16978E-01 2.26452E-27
1.19797E-01 2.04074E-27
1.22645E-01 1.83878E-27
1.25522E-01 1.65650E-27
1.28428E-01 1.49200E-27
1.31361E-01 1.34353E-27
1.34323E-01 1.20954E-27
1.37313E-01 1.08864E-27
1.40330E-01 9.79557E-28
1.43375E-01 8.81146E-28
1.46447E-01 7.92378E-28
1.49545E-01 7.12323E-28
1.52671E-01 6.40140E-28
1.55823E-01 5.75070E-28
1.59001E-01 5.16426E-28
1.62205E-01 4.63587E-28
1.65435E-01 4.15994E-28
1.68690E-01 3.73138E-28
1.71970E-01 3.34561E-28
1.75276E-01 2.99848E-28
1.78606E-01 2.68624E-28
1.81961E-01 2.40550E-28
1.85340E-01 2.15319E-28
1.88743E-01 1.92652E-28
1.92169E-01 1.72299E-28
1.95619E-01 1.54033E-28
1.99092E-01 1.37647E-28
2.02589E-01 1.22956E-28
2.06107E-01 1.09793E-28
2.09649E-01 9.80041E-29
2.13212E-01 8.74532E-29
2.16797E-01 7.80159E-29
2.20404E-01 6.95800E-29
2.24032E-01 6.20441E-29
2.27680E-01 5.53169E-29
2.31350E-01 4.93156E-29
2.35040E-01 4.39657E-29
2.38751E-01 3.92000E-29
2.42481E-01 3.49579E-29
2.46231E-01 3.11845E-29
2.50000E-01 2.78308E-29
2.53788E-01 2.48522E-29
2.57595E-01 2.22089E-29
2.61421E-01 1.98649E-29
2.65264E-01 1.77878E-29
2.69126E-01 1.59488E-29
2.73005E-01 1.43216E-29
2.76901E-01 1.28829E-29
2.80814E-01 1.16116E-29
2.84744E-01 1.04891E-29
2.88691E-01 9.49831E-30
2.92653E-01 8.62431E-30
2.96632E-01 7.85358E-30
3.00625E-01 7.17409E-30
3.04634E-01 6.57510E-30
3.08658E-01 6.04704E-30
3.12697E-01 5.58140E-30
3.16749E-01 5.17058E-30
3.20816E-01 4.80786E-30
3.24896E-01 4.48727E-30
3.28990E-01 4.20351E-30
3.33097E-01 3.95190E-30
3.37216E-01 3.72831E-30
3.41348E-01 3.52909E-30
3.45492E-01 3.35103E-30
3.49647E-01 3.19130E-30
3.53814E-01 3.04744E-30
3.57992E-01 2.91727E-30
3.62181E-01 2.79890E-30
3.66381E-01 2.69068E-30
3.70590E-01 2.59119E-30
3.74810E-01 2.49917E-30
3.79039E-01 2.41356E-30
3.83277E-01 2.33343E-30
3.87524E-01 2.25798E-30
3.91780E-01 2.18655E-30
3.96044E-01 2.11856E-30
4.00316E-01 2.05351E-30
4.04596E-01 1.99100E-30
4.08882E-01 1.93068E-30
4.13176E-01 1.87227E-30
4.17476E-01 1.81552E-30
4.21783E-01 1.76025E-30
4.26095E-01 1.70631E-30
4.30413E-01 1.65355E-30
4.34737E-01 1.60190E-30
4.39065E-01 1.55127E-30
4.43398E-01 1.50161E-30
4.47736E-01 1.45288E-30
4.52077E-01 1.40505E-30
4.56422E-01 1.35810E-30
4.60770E-01 1.31202E-30
4.65122E-01 1.26681E-30
4.69476E-01 1.22247E-30
4.73832E-01 1.17902E-30
4.78190E-01 1.13645E-30
4.82550E-01 1.09477E-30
4.86912E-01 1.05401E-30
4.91274E-01 1.01417E-30
4.95637E-01 9.75251E-31
5.00000E-01 9.37276E-31
5.04363E-01 9.00250E-31
5.08726E-01 8.64180E-31
5.13088E-01 8.29072E-31
5.17450E-01 7.94930E-31
5.21810E-01 7.61755E-31
5.26168E-01 7.29549E-31
5.30524E-01 6.98309E-31
5.34878E-01 6.68033E-31
5.39230E-01 6.38716E-31
5.43578E-01 6.10349E-31
5.47923E-01 5.82926E-31
5.52264E-01 5.56436E-31
5.56602E-01 5.30868E-31
5.60935E-01 5.06208E-31
5.65263E-01 4.82443E-31
5.69587E-01 4.59557E-31
5.73905E-01 4.37534E-31
5.78217E-01 4.16357E-31
5.82524E-01 3.96008E-31
5.86824E-01 3.76469E-31
5.91118E-01 3.57719E-31
5.95404E-01 3.39739E-31
5.99684E-01 3.22509E-31
6.03956E-01 3.06008E-31
6.08220E-01 2.90215E-31
6.12476E-01 2.75111E-31
6.16723E-01 2.60672E-31
6.20961E-01 2.46880E-31
6.25190E-01 2.33711E-31
6.29410E-01 2.21146E-31
6.33619E-01 2.09164E-31
6.37819E-01 1.97744E-31
6.42008E-01 1.86866E-31
6.46186E-01 1.76510E-31
6.50353E-01 1.66656E-31
6.54508E-01 1.57285E-31
6.58652E-01 1.48377E-31
6.62784E-01 1.39915E-31
6.66903E-01 1.31881E-31
6.71010E-01 1.24255E-31
6.75104E-01 1.17022E-31
6.79184E-01 1.10164E-31
6.83251E-01 1.03666E-31
6.87303E-01 9.75106E-32
6.91342E-01 9.16834E-32
6.95366E-01 8.61693E-32
6.99375E-01 8.09539E-32
7.03368E-01 7.60233E-32
7.07347E-01 7.13643E-32
7.11309E-01 6.69637E-32
7.15256E-01 6.28093E-32
7.19186E-01 5.88890E-32
7.23099E-01 5.51912E-32
7.26995E-01 5.17050E-32
7.30874E-01 4.84197E-32
7.34736E-01 4.53250E-32
7.38579E-01 4.24112E-32
7.42405E-01 3.96690E-32
7.46212E-01 3.70893E-32
7.50000E-01 3.46636E-32
7.53769E-01 3.23838E-32
7.57519E-01 3.02419E-32
7.61249E-01 2.82306E-32
7.64960E-01 2.63426E-32
7.68650E-01 2.45712E-32
7.72320E-01 2.29099E-32
7.75968E-01 2.13526E-32
7.79596E-01 1.98934E-32
7.83203E-01 1.85266E-32
7.86788E-01 1.72471E-32
7.90351E-01 1.60498E-32
7.93893E-01 1.49298E-32
7.97411E-01 1.38828E-32
8.00908E-01 1.29042E-32
8.04381E-01 1.19901E-32
8.07831E-01 1.11367E-32
8.11257E-01 1.03402E-32
8.14660E-01 9.59712E-33
8.18039E-01 8.90430E-33
8.21394E-01 8.25858E-33
8.24724E-01 7.65706E-33
8.28030E-01 7.09695E-33
8.31310E-01 6.57565E-33
8.34565E-01 6.09069E-33
8.37795E-01 5.63975E-33
8.40999E-01 5.22065E-33
8.44177E-01 4.83131E-33
8.47329E-01 4.46980E-33
8.50455E-01 4.13428E-33
8.53553E-01 3.82303E-33
8.56625E-01 3.53444E-33
8.59670E-01 3.26698E-33
8.62687E-01 3.01921E-33
8.65677E-01 2.78981E-33
8.68639E-01 2.57751E-33
8.71572E-01 2.38112E-33
8.74478E-01 2.19953E-33
8.77355E-01 2.03172E-33
8.80203E-01 1.87670E-33
8.83022E-01 1.73356E-33
8.85812E-01 1.60145E-33
8.88573E-01 1.47957E-33
8.91304E-01 1.36718E-33
8.94005E-01 1.26358E-33
8.96677E-01 1.16811E-33
8.99318E-01 1.08018E-33
9.01928E-01 9.99207E-34
9.04508E-01 9.24671E-34
9.07058E-01 8.56081E-34
9.09576E-01 7.92975E-34
9.12063E-01 7.34929E-34
9.14519E-01 6.81546E-34
9.16943E-01 6.32457E-34
9.19335E-01 5.87320E-34
9.21696E-01 5.45818E-34
9.24024E-01 5.07656E-34
9.26320E-01 4.72561E-34
9.28584E-01 4.40280E-34
9.30815E-01 4.10579E-34
9.33013E-01 3.83242E-34
9.35178E-01 3.58069E-34
9.37310E-01 3.34876E-34
9.39409E-01 3.13493E-34
9.41474E-01 2.93761E-34
9.43505E-01 2.75538E-34
9.45503E-01 2.58691E-34
9.47467E-01 2.43098E-34
9.49397E-01 2.28646E-34
9.51293E-01 2.15237E-34
9.53154E-01 2.02771E-34
9.54981E-01 1.91166E-34
9.56773E-01 1.80344E-34
9.58530E-01 1.70232E-34
9.60252E-01 1.60767E-34
9.61940E-01 1.51888E-34
9.63592E-01 1.43544E-34
9.65209E-01 1.35685E-34
9.66790E-01 1.28266E-34
9.68336E-01 1.21249E-34
9.69846E-01 1.14601E-34
9.71321E-01 1.08288E-34
9.72759E-01 1.02280E-34
9.74162E-01 9.65554E-35
9.75528E-01 9.10880E-35
9.76858E-01 8.58612E-35
9.78152E-01 8.08554E-35
9.79410E-01 7.60569E-35
9.80631E-01 7.14489E-35
9.81815E-01 6.70256E-35
9.82963E-01 6.27715E-35
9.84074E-01 5.86801E-35
9.85148E-01 5.47429E-35
9.86185E-01 5.09582E-35
9.87185E-01 4.73147E-35
9.88148E-01 4.38142E-35
9.89074E-01 4.04493E-35
9.89962E-01 3.72190E-35
9.90814E-01 3.41232E-35
9.91627E-01 3.11568E-35
9.92404E-01 2.83221E-35
9.93143E-01 2.56184E-35
9.93844E-01 2.30444E-35
9.94508E-01 2.06024E-35
9.95134E-01 1.82909E-35
9.95722E-01 1.61122E-35
9.96273E-01 1.40664E-35
9.96786E-01 1.21558E-35
9.97261E-01 1.03799E-35
9.97698E-01 8.74055E-36
9.98097E-01 7.23873E-36
9.98459E-01 5.87670E-36
9.98782E-01 4.65390E-36
9.99067E-01 3.57247E-36
9.99315E-01 2.63313E-36
9.99524E-01 1.83691E-36
9.99695E-01 1.18471E-36
9.99829E-01 6.76468E-37
9.99924E-01 3.12530E-37
9.99981E-01 9.44420E-38
1.00000E+00 2.15938E-38
