 #
 # Subroutine ELSEPA. Elastic scattering of electrons and positrons
 #                    by neutral atoms and positive ions
 #
 # Projectile: positron
 # Kinetic energy = 2.50000E+08 eV = 9.18733E+06 a.u.
 #
 # WARNING: High-energy factorization with free-atom DF screening.
 #          Absorption, polarization and exchange corrections are
 #          switched off.
 #          Phase shifts are calculated for the bare nucleus.
 #          Scattering amplitudes are not evaluated.
 #
 # Element: Nb,  Z =  41,  atomic weight = 9.29064E+01 g/mol
 #
 # Nuclear model: Fermi distribution
 #                Average radius = 4.84617E-13 cm
 #                Skin thickness = 5.46000E-14 cm
 #
 # Number of electrons = 41
 #
 # Total elastic cross section = 3.98630E-18 cm**2 = 1.42353E-01 a0**2
 # 1st transport cross section = 5.31454E-26 cm**2 = 1.89786E-09 a0**2
 # 2nd transport cross section = 1.59160E-25 cm**2 = 5.68370E-09 a0**2
 #
 #
 # Differential cross section:                       MU=(1-COS(THETA))/2
 #
 #  THETA        MU          DCS          DCS        Sherman      error
 #  (deg)                 (cm**2/sr)   (a0**2/sr)    function
 #----------------------------------------------------------------------
0.00000E+00 2.69985E-09
7.61557E-13 2.64351E-09
1.18994E-12 2.61272E-09
1.71346E-12 2.57592E-09
2.33225E-12 2.53358E-09
3.04617E-12 2.48619E-09
3.85530E-12 2.43429E-09
4.75964E-12 2.37846E-09
5.75917E-12 2.31938E-09
6.85391E-12 2.25744E-09
8.04379E-12 2.19344E-09
9.32893E-12 2.12770E-09
1.07092E-11 2.06095E-09
1.21847E-11 1.99351E-09
1.37554E-11 1.92595E-09
1.54213E-11 1.85860E-09
1.71823E-11 1.79183E-09
1.90386E-11 1.72600E-09
2.09900E-11 1.66125E-09
2.30367E-11 1.59801E-09
2.51785E-11 1.53619E-09
2.74156E-11 1.47624E-09
2.97478E-11 1.41796E-09
3.21752E-11 1.36172E-09
3.46979E-11 1.30736E-09
3.73157E-11 1.25505E-09
4.00286E-11 1.20472E-09
4.28368E-11 1.15638E-09
4.57402E-11 1.11006E-09
4.87388E-11 1.06560E-09
5.18325E-11 1.02315E-09
5.50215E-11 9.82401E-10
5.83057E-11 9.43614E-10
6.16850E-11 9.06355E-10
6.51595E-11 8.70924E-10
6.87293E-11 8.36961E-10
7.23943E-11 8.04620E-10
7.61544E-11 7.73690E-10
1.18991E-10 5.31377E-10
1.71347E-10 3.75256E-10
2.33223E-10 2.71295E-10
3.04617E-10 1.99838E-10
3.85531E-10 1.48990E-10
4.75965E-10 1.12595E-10
5.75917E-10 8.78444E-11
6.85389E-10 6.84177E-11
8.04380E-10 5.46526E-11
9.32891E-10 4.39554E-11
1.07092E-09 3.59599E-11
1.21847E-09 2.97192E-11
1.37554E-09 2.48564E-11
1.54213E-09 2.09983E-11
1.71823E-09 1.78855E-11
1.90386E-09 1.53750E-11
2.09900E-09 1.32806E-11
2.30367E-09 1.15726E-11
2.51785E-09 1.01015E-11
2.74156E-09 8.88836E-12
2.97478E-09 7.82576E-12
3.21752E-09 6.93251E-12
3.46978E-09 6.14983E-12
3.73156E-09 5.47685E-12
4.00286E-09 4.88869E-12
4.28368E-09 4.37328E-12
4.57402E-09 3.92414E-12
4.87388E-09 3.52469E-12
5.18326E-09 3.17723E-12
5.50215E-09 2.86486E-12
5.83057E-09 2.59273E-12
6.16850E-09 2.34704E-12
6.51596E-09 2.13125E-12
6.87293E-09 1.93741E-12
7.23942E-09 1.76525E-12
7.61544E-09 1.61100E-12
1.18991E-08 7.08392E-13
1.71347E-08 3.59677E-13
2.33223E-08 2.02871E-13
3.04617E-08 1.23455E-13
3.85531E-08 7.93739E-14
4.75965E-08 5.33082E-14
5.75917E-08 3.70692E-14
6.85389E-08 2.65352E-14
8.04380E-08 1.94704E-14
9.32891E-08 1.45970E-14
1.07092E-07 1.11502E-14
1.21847E-07 8.66104E-15
1.37554E-07 6.82862E-15
1.54213E-07 5.45604E-15
1.71823E-07 4.41180E-15
1.90386E-07 3.60606E-15
2.09900E-07 2.97639E-15
2.30367E-07 2.47847E-15
2.51785E-07 2.08061E-15
2.74156E-07 1.75960E-15
2.97478E-07 1.49828E-15
3.21752E-07 1.28379E-15
3.46978E-07 1.10639E-15
3.73156E-07 9.58636E-16
4.00286E-07 8.34758E-16
4.28368E-07 7.30269E-16
4.57402E-07 6.41641E-16
4.87388E-07 5.66064E-16
5.18325E-07 5.01298E-16
5.50215E-07 4.45537E-16
5.83057E-07 3.97317E-16
6.16850E-07 3.55444E-16
6.51596E-07 3.18942E-16
6.87293E-07 2.87005E-16
7.23942E-07 2.58966E-16
7.61543E-07 2.34267E-16
1.18991E-06 9.66859E-17
1.71347E-06 4.68269E-17
2.33223E-06 2.53398E-17
3.04617E-06 1.48766E-17
3.85531E-06 9.29641E-18
4.75964E-06 6.10317E-18
5.75916E-06 4.17022E-18
6.85388E-06 2.94520E-18
8.04378E-06 2.13862E-18
9.32888E-06 1.59012E-18
1.07092E-05 1.20668E-18
1.21846E-05 9.32125E-19
1.37553E-05 7.31381E-19
1.54212E-05 5.81870E-19
1.71822E-05 4.68674E-19
1.90385E-05 3.81636E-19
2.09899E-05 3.14017E-19
2.30365E-05 2.60713E-19
2.51783E-05 2.18229E-19
2.74153E-05 1.84036E-19
2.97475E-05 1.56273E-19
3.21749E-05 1.33550E-19
3.46974E-05 1.14814E-19
3.73152E-05 9.92563E-20
4.00281E-05 8.62501E-20
4.28362E-05 7.53077E-20
4.57395E-05 6.60461E-20
4.87380E-05 5.81633E-20
5.18317E-05 5.14201E-20
5.50205E-05 4.56246E-20
5.83045E-05 4.06220E-20
6.16838E-05 3.62866E-20
6.51582E-05 3.25147E-20
6.87277E-05 2.92208E-20
7.23925E-05 2.63340E-20
7.61524E-05 2.38097E-20
9.21439E-05 1.62526E-20
1.09658E-04 1.14676E-20
1.28695E-04 8.32036E-21
1.49255E-04 6.18125E-21
1.71338E-04 4.68706E-21
1.94942E-04 3.61768E-21
2.20070E-04 2.83625E-21
2.46720E-04 2.25458E-21
2.74892E-04 1.81438E-21
3.04586E-04 1.47638E-21
3.35803E-04 1.21336E-21
3.68542E-04 1.00625E-21
4.02802E-04 8.41384E-22
4.38585E-04 7.08839E-22
4.75889E-04 6.01312E-22
5.14715E-04 5.13346E-22
5.55063E-04 4.40831E-22
5.96931E-04 3.80623E-22
6.40321E-04 3.30304E-22
6.85233E-04 2.87989E-22
7.31665E-04 2.52201E-22
7.79618E-04 2.21771E-22
8.29092E-04 1.95765E-22
8.80086E-04 1.73436E-22
9.32601E-04 1.54178E-22
9.86636E-04 1.37500E-22
1.04219E-03 1.22998E-22
1.09927E-03 1.10342E-22
1.15786E-03 9.92578E-23
1.21797E-03 8.95170E-23
1.27961E-03 8.09298E-23
1.34276E-03 7.33368E-23
1.40743E-03 6.66033E-23
1.47362E-03 6.06158E-23
1.54133E-03 5.52776E-23
1.61056E-03 5.05064E-23
1.68131E-03 4.62318E-23
1.75357E-03 4.23933E-23
1.82735E-03 3.89389E-23
1.90265E-03 3.58236E-23
1.97947E-03 3.30085E-23
2.05780E-03 3.04598E-23
2.13765E-03 2.81478E-23
2.21902E-03 2.60470E-23
2.30190E-03 2.41347E-23
2.38630E-03 2.23911E-23
2.47222E-03 2.07988E-23
2.55965E-03 1.93425E-23
2.64859E-03 1.80085E-23
2.73905E-03 1.67849E-23
2.83103E-03 1.56609E-23
2.92452E-03 1.46271E-23
3.01952E-03 1.36749E-23
3.11604E-03 1.27970E-23
3.21407E-03 1.19864E-23
3.31362E-03 1.12371E-23
3.41468E-03 1.05438E-23
3.51725E-03 9.90152E-24
3.62133E-03 9.30587E-24
3.72692E-03 8.75292E-24
3.83403E-03 8.23908E-24
3.94265E-03 7.76112E-24
4.05278E-03 7.31612E-24
4.16442E-03 6.90142E-24
4.27757E-03 6.51462E-24
4.39223E-03 6.15352E-24
4.50840E-03 5.81613E-24
4.62608E-03 5.50064E-24
4.74527E-03 5.20539E-24
4.86597E-03 4.92887E-24
4.98817E-03 4.66969E-24
5.11188E-03 4.42659E-24
5.23711E-03 4.19840E-24
5.36383E-03 3.98406E-24
5.49207E-03 3.78259E-24
5.62181E-03 3.59310E-24
5.75306E-03 3.41475E-24
5.88581E-03 3.24678E-24
6.02007E-03 3.08850E-24
6.15583E-03 2.93925E-24
6.29310E-03 2.79844E-24
6.43187E-03 2.66551E-24
6.57214E-03 2.53995E-24
6.71392E-03 2.42128E-24
6.85720E-03 2.30908E-24
7.00198E-03 2.20292E-24
7.14827E-03 2.10244E-24
7.29605E-03 2.00728E-24
7.44534E-03 1.91712E-24
7.59612E-03 1.83165E-24
7.97965E-03 1.63670E-24
8.37255E-03 1.46547E-24
8.77480E-03 1.31466E-24
9.18641E-03 1.18151E-24
9.60736E-03 1.06366E-24
1.00376E-02 9.59116E-25
1.04773E-02 8.66175E-25
1.09262E-02 7.83379E-25
1.13844E-02 7.09475E-25
1.18520E-02 6.43384E-25
1.23288E-02 5.84174E-25
1.28150E-02 5.31039E-25
1.33104E-02 4.83278E-25
1.38150E-02 4.40280E-25
1.43290E-02 4.01513E-25
1.48521E-02 3.66512E-25
1.53845E-02 3.34867E-25
1.59262E-02 3.06220E-25
1.64770E-02 2.80255E-25
1.70371E-02 2.56693E-25
1.76063E-02 2.35286E-25
1.81848E-02 2.15818E-25
1.87724E-02 1.98093E-25
1.93692E-02 1.81941E-25
1.99751E-02 1.67206E-25
2.05901E-02 1.53754E-25
2.12143E-02 1.41460E-25
2.18476E-02 1.30217E-25
2.24900E-02 1.19926E-25
2.31415E-02 1.10500E-25
2.38021E-02 1.01859E-25
2.44717E-02 9.39327E-26
2.51504E-02 8.66569E-26
2.58382E-02 7.99741E-26
2.65349E-02 7.38321E-26
2.72407E-02 6.81840E-26
2.79555E-02 6.29871E-26
2.86793E-02 5.82029E-26
2.94120E-02 5.37963E-26
3.01537E-02 4.97357E-26
3.09043E-02 4.59921E-26
3.16639E-02 4.25393E-26
3.24324E-02 3.93534E-26
3.32098E-02 3.64126E-26
3.39961E-02 3.36970E-26
3.47912E-02 3.11885E-26
3.55952E-02 2.88706E-26
3.64081E-02 2.67281E-26
3.72297E-02 2.47471E-26
3.80602E-02 2.29150E-26
3.88995E-02 2.12201E-26
3.97476E-02 1.96518E-26
4.06044E-02 1.82003E-26
4.14700E-02 1.68566E-26
4.23443E-02 1.56125E-26
4.32273E-02 1.44603E-26
4.41190E-02 1.33932E-26
4.50194E-02 1.24046E-26
4.59284E-02 1.14887E-26
4.68461E-02 1.06401E-26
4.87074E-02 9.12485E-27
5.06030E-02 7.82321E-27
5.25328E-02 6.70482E-27
5.44967E-02 5.74375E-27
5.64946E-02 4.91786E-27
5.85262E-02 4.20819E-27
6.05914E-02 3.59848E-27
6.26901E-02 3.07481E-27
6.48222E-02 2.62519E-27
6.69873E-02 2.23933E-27
6.91854E-02 1.90837E-27
7.14163E-02 1.62469E-27
7.36799E-02 1.38171E-27
7.59760E-02 1.17376E-27
7.83043E-02 9.95965E-28
8.06647E-02 8.44102E-28
8.30571E-02 7.14534E-28
8.54812E-02 6.04124E-28
8.79369E-02 5.10161E-28
9.04240E-02 4.30309E-28
9.29422E-02 3.62551E-28
9.54915E-02 3.05149E-28
9.80716E-02 2.56602E-28
1.00682E-01 2.15619E-28
1.03323E-01 1.81088E-28
1.05995E-01 1.52051E-28
1.08696E-01 1.27685E-28
1.11427E-01 1.07284E-28
1.14188E-01 9.02415E-29
1.16978E-01 7.60367E-29
1.19797E-01 6.42253E-29
1.22645E-01 5.44272E-29
1.25522E-01 4.63181E-29
1.28428E-01 3.96219E-29
1.31361E-01 3.41037E-29
1.34323E-01 2.95646E-29
1.37313E-01 2.58361E-29
1.40330E-01 2.27760E-29
1.43375E-01 2.02649E-29
1.46447E-01 1.82024E-29
1.49545E-01 1.65046E-29
1.52671E-01 1.51017E-29
1.55823E-01 1.39357E-29
1.59001E-01 1.29591E-29
1.62205E-01 1.21324E-29
1.65435E-01 1.14237E-29
1.68690E-01 1.08070E-29
1.71970E-01 1.02616E-29
1.75276E-01 9.77073E-30
1.78606E-01 9.32132E-30
1.81961E-01 8.90316E-30
1.85340E-01 8.50845E-30
1.88743E-01 8.13129E-30
1.92169E-01 7.76738E-30
1.95619E-01 7.41367E-30
1.99092E-01 7.06809E-30
2.02589E-01 6.72938E-30
2.06107E-01 6.39684E-30
2.09649E-01 6.07025E-30
2.13212E-01 5.74969E-30
2.16797E-01 5.43548E-30
2.20404E-01 5.12808E-30
2.24032E-01 4.82806E-30
2.27680E-01 4.53599E-30
2.31350E-01 4.25245E-30
2.35040E-01 3.97800E-30
2.38751E-01 3.71313E-30
2.42481E-01 3.45830E-30
2.46231E-01 3.21384E-30
2.50000E-01 2.98005E-30
2.53788E-01 2.75712E-30
2.57595E-01 2.54519E-30
2.61421E-01 2.34428E-30
2.65264E-01 2.15437E-30
2.69126E-01 1.97537E-30
2.73005E-01 1.80712E-30
2.76901E-01 1.64941E-30
2.80814E-01 1.50198E-30
2.84744E-01 1.36453E-30
2.88691E-01 1.23674E-30
2.92653E-01 1.11823E-30
2.96632E-01 1.00863E-30
3.00625E-01 9.07535E-31
3.04634E-01 8.14528E-31
3.08658E-01 7.29193E-31
3.12697E-01 6.51105E-31
3.16749E-01 5.79843E-31
3.20816E-01 5.14988E-31
3.24896E-01 4.56128E-31
3.28990E-01 4.02860E-31
3.33097E-01 3.54792E-31
3.37216E-01 3.11547E-31
3.41348E-01 2.72759E-31
3.45492E-01 2.38080E-31
3.49647E-01 2.07176E-31
3.53814E-01 1.79731E-31
3.57992E-01 1.55446E-31
3.62181E-01 1.34038E-31
3.66381E-01 1.15242E-31
3.70590E-01 9.88096E-32
3.74810E-01 8.45098E-32
3.79039E-01 7.21268E-32
3.83277E-01 6.14609E-32
3.87524E-01 5.23276E-32
3.91780E-01 4.45572E-32
3.96044E-01 3.79935E-32
4.00316E-01 3.24938E-32
4.04596E-01 2.79281E-32
4.08882E-01 2.41778E-32
4.13176E-01 2.11359E-32
4.17476E-01 1.87054E-32
4.21783E-01 1.67993E-32
4.26095E-01 1.53396E-32
4.30413E-01 1.42565E-32
4.34737E-01 1.34881E-32
4.39065E-01 1.29795E-32
4.43398E-01 1.26824E-32
4.47736E-01 1.25544E-32
4.52077E-01 1.25586E-32
4.56422E-01 1.26630E-32
4.60770E-01 1.28400E-32
4.65122E-01 1.30662E-32
4.69476E-01 1.33215E-32
4.73832E-01 1.35895E-32
4.78190E-01 1.38561E-32
4.82550E-01 1.41103E-32
4.86912E-01 1.43429E-32
4.91274E-01 1.45470E-32
4.95637E-01 1.47173E-32
5.00000E-01 1.48499E-32
5.04363E-01 1.49423E-32
5.08726E-01 1.49932E-32
5.13088E-01 1.50019E-32
5.17450E-01 1.49689E-32
5.21810E-01 1.48951E-32
5.26168E-01 1.47818E-32
5.30524E-01 1.46311E-32
5.34878E-01 1.44451E-32
5.39230E-01 1.42263E-32
5.43578E-01 1.39773E-32
5.47923E-01 1.37008E-32
5.52264E-01 1.33997E-32
5.56602E-01 1.30767E-32
5.60935E-01 1.27347E-32
5.65263E-01 1.23764E-32
5.69587E-01 1.20045E-32
5.73905E-01 1.16214E-32
5.78217E-01 1.12296E-32
5.82524E-01 1.08315E-32
5.86824E-01 1.04291E-32
5.91118E-01 1.00246E-32
5.95404E-01 9.61966E-33
5.99684E-01 9.21614E-33
6.03956E-01 8.81554E-33
6.08220E-01 8.41931E-33
6.12476E-01 8.02869E-33
6.16723E-01 7.64483E-33
6.20961E-01 7.26872E-33
6.25190E-01 6.90122E-33
6.29410E-01 6.54310E-33
6.33619E-01 6.19496E-33
6.37819E-01 5.85735E-33
6.42008E-01 5.53067E-33
6.46186E-01 5.21526E-33
6.50353E-01 4.91137E-33
6.54508E-01 4.61914E-33
6.58652E-01 4.33868E-33
6.62784E-01 4.07000E-33
6.66903E-01 3.81309E-33
6.71010E-01 3.56785E-33
6.75104E-01 3.33413E-33
6.79184E-01 3.11178E-33
6.83251E-01 2.90057E-33
6.87303E-01 2.70027E-33
6.91342E-01 2.51060E-33
6.95366E-01 2.33127E-33
6.99375E-01 2.16197E-33
7.03368E-01 2.00238E-33
7.07347E-01 1.85215E-33
7.11309E-01 1.71094E-33
7.15256E-01 1.57840E-33
7.19186E-01 1.45417E-33
7.23099E-01 1.33790E-33
7.26995E-01 1.22922E-33
7.30874E-01 1.12779E-33
7.34736E-01 1.03325E-33
7.38579E-01 9.45261E-34
7.42405E-01 8.63486E-34
7.46212E-01 7.87594E-34
7.50000E-01 7.17266E-34
7.53769E-01 6.52185E-34
7.57519E-01 5.92053E-34
7.61249E-01 5.36576E-34
7.64960E-01 4.85475E-34
7.68650E-01 4.38472E-34
7.72320E-01 3.95316E-34
7.75968E-01 3.55753E-34
7.79596E-01 3.19547E-34
7.83203E-01 2.86472E-34
7.86788E-01 2.56310E-34
7.90351E-01 2.28858E-34
7.93893E-01 2.03921E-34
7.97411E-01 1.81313E-34
8.00908E-01 1.60864E-34
8.04381E-01 1.42407E-34
8.07831E-01 1.25788E-34
8.11257E-01 1.10860E-34
8.14660E-01 9.74888E-35
8.18039E-01 8.55450E-35
8.21394E-01 7.49089E-35
8.24724E-01 6.54673E-35
8.28030E-01 5.71172E-35
8.31310E-01 4.97595E-35
8.34565E-01 4.33043E-35
8.37795E-01 3.76667E-35
8.40999E-01 3.27687E-35
8.44177E-01 2.85376E-35
8.47329E-01 2.49066E-35
8.50455E-01 2.18138E-35
8.53553E-01 1.92021E-35
8.56625E-01 1.70191E-35
8.59670E-01 1.52166E-35
8.62687E-01 1.37505E-35
8.65677E-01 1.25803E-35
8.68639E-01 1.16694E-35
8.71572E-01 1.09840E-35
8.74478E-01 1.04937E-35
8.77355E-01 1.01707E-35
8.80203E-01 9.99019E-36
8.83022E-01 9.92939E-36
8.85812E-01 9.96798E-36
8.88573E-01 1.00880E-35
8.91304E-01 1.02728E-35
8.94005E-01 1.05081E-35
8.96677E-01 1.07809E-35
8.99318E-01 1.10799E-35
9.01928E-01 1.13956E-35
9.04508E-01 1.17186E-35
9.07058E-01 1.20417E-35
9.09576E-01 1.23582E-35
9.12063E-01 1.26629E-35
9.14519E-01 1.29506E-35
9.16943E-01 1.32179E-35
9.19335E-01 1.34612E-35
9.21696E-01 1.36782E-35
9.24024E-01 1.38667E-35
9.26320E-01 1.40253E-35
9.28584E-01 1.41533E-35
9.30815E-01 1.42493E-35
9.33013E-01 1.43138E-35
9.35178E-01 1.43463E-35
9.37310E-01 1.43474E-35
9.39409E-01 1.43173E-35
9.41474E-01 1.42574E-35
9.43505E-01 1.41681E-35
9.45503E-01 1.40506E-35
9.47467E-01 1.39055E-35
9.49397E-01 1.37354E-35
9.51293E-01 1.35400E-35
9.53154E-01 1.33223E-35
9.54981E-01 1.30830E-35
9.56773E-01 1.28235E-35
9.58530E-01 1.25457E-35
9.60252E-01 1.22508E-35
9.61940E-01 1.19407E-35
9.63592E-01 1.16165E-35
9.65209E-01 1.12797E-35
9.66790E-01 1.09327E-35
9.68336E-01 1.05762E-35
9.69846E-01 1.02112E-35
9.71321E-01 9.83968E-36
9.72759E-01 9.46305E-36
9.74162E-01 9.08224E-36
9.75528E-01 8.69912E-36
9.76858E-01 8.31407E-36
9.78152E-01 7.92886E-36
9.79410E-01 7.54410E-36
9.80631E-01 7.16183E-36
9.81815E-01 6.78142E-36
9.82963E-01 6.40537E-36
9.84074E-01 6.03403E-36
9.85148E-01 5.66865E-36
9.86185E-01 5.30882E-36
9.87185E-01 4.95708E-36
9.88148E-01 4.61257E-36
9.89074E-01 4.27711E-36
9.89962E-01 3.95092E-36
9.90814E-01 3.63420E-36
9.91627E-01 3.32858E-36
9.92404E-01 3.03374E-36
9.93143E-01 2.75026E-36
9.93844E-01 2.47904E-36
9.94508E-01 2.21996E-36
9.95134E-01 1.97395E-36
9.95722E-01 1.74097E-36
9.96273E-01 1.52166E-36
9.96786E-01 1.31594E-36
9.97261E-01 1.12454E-36
9.97698E-01 9.47561E-37
9.98097E-01 7.85240E-37
9.98459E-01 6.37579E-37
9.98782E-01 5.05144E-37
9.99067E-01 3.87842E-37
9.99315E-01 2.85892E-37
9.99524E-01 1.99388E-37
9.99695E-01 1.28380E-37
9.99829E-01 7.31296E-38
9.99924E-01 3.37525E-38
9.99981E-01 1.00012E-38
1.00000E+00 2.11631E-39
