 #
 # Subroutine ELSEPA. Elastic scattering of electrons and positrons
 #                    by neutral atoms and positive ions
 #
 # Projectile: positron
 # Kinetic energy = 2.50000E+07 eV = 9.18733E+05 a.u.
 #
 # WARNING: High-energy factorization with free-atom DF screening.
 #          Absorption, polarization and exchange corrections are
 #          switched off.
 #          Phase shifts are calculated for the bare nucleus.
 #          Scattering amplitudes are not evaluated.
 #
 # Element: Nb,  Z =  41,  atomic weight = 9.29064E+01 g/mol
 #
 # Nuclear model: Fermi distribution
 #                Average radius = 4.84617E-13 cm
 #                Skin thickness = 5.46000E-14 cm
 #
 # Number of electrons = 41
 #
 # Total elastic cross section = 3.98721E-18 cm**2 = 1.42386E-01 a0**2
 # 1st transport cross section = 4.43263E-24 cm**2 = 1.58292E-07 a0**2
 # 2nd transport cross section = 1.29181E-23 cm**2 = 4.61315E-07 a0**2
 #
 #
 # Differential cross section:                       MU=(1-COS(THETA))/2
 #
 #  THETA        MU          DCS          DCS        Sherman      error
 #  (deg)                 (cm**2/sr)   (a0**2/sr)    function
 #----------------------------------------------------------------------
0.00000E+00 2.79989E-11
7.61557E-13 2.79926E-11
1.18994E-12 2.79891E-11
1.71346E-12 2.79849E-11
2.33225E-12 2.79798E-11
3.04617E-12 2.79740E-11
3.85530E-12 2.79675E-11
4.75964E-12 2.79602E-11
5.75917E-12 2.79521E-11
6.85391E-12 2.79432E-11
8.04379E-12 2.79336E-11
9.32893E-12 2.79232E-11
1.07092E-11 2.79121E-11
1.21847E-11 2.79002E-11
1.37554E-11 2.78876E-11
1.54213E-11 2.78742E-11
1.71823E-11 2.78600E-11
1.90386E-11 2.78451E-11
2.09900E-11 2.78295E-11
2.30367E-11 2.78131E-11
2.51785E-11 2.77959E-11
2.74156E-11 2.77781E-11
2.97478E-11 2.77594E-11
3.21752E-11 2.77401E-11
3.46979E-11 2.77200E-11
3.73157E-11 2.76992E-11
4.00286E-11 2.76776E-11
4.28368E-11 2.76553E-11
4.57402E-11 2.76324E-11
4.87388E-11 2.76086E-11
5.18325E-11 2.75842E-11
5.50215E-11 2.75591E-11
5.83057E-11 2.75332E-11
6.16850E-11 2.75067E-11
6.51595E-11 2.74794E-11
6.87293E-11 2.74514E-11
7.23943E-11 2.74228E-11
7.61544E-11 2.73934E-11
1.18991E-10 2.70630E-11
1.71347E-10 2.66684E-11
2.33223E-10 2.62146E-11
3.04617E-10 2.57075E-11
3.85531E-10 2.51526E-11
4.75965E-10 2.45567E-11
5.75917E-10 2.39266E-11
6.85389E-10 2.32675E-11
8.04380E-10 2.25873E-11
9.32891E-10 2.18897E-11
1.07092E-09 2.11831E-11
1.21847E-09 2.04697E-11
1.37554E-09 1.97570E-11
1.54213E-09 1.90469E-11
1.71823E-09 1.83452E-11
1.90386E-09 1.76535E-11
2.09900E-09 1.69756E-11
2.30367E-09 1.63134E-11
2.51785E-09 1.56685E-11
2.74156E-09 1.50431E-11
2.97478E-09 1.44371E-11
3.21752E-09 1.38529E-11
3.46978E-09 1.32888E-11
3.73156E-09 1.27478E-11
4.00286E-09 1.22264E-11
4.28368E-09 1.17281E-11
4.57402E-09 1.12492E-11
4.87388E-09 1.07924E-11
5.18326E-09 1.03545E-11
5.50215E-09 9.93690E-12
5.83057E-09 9.53760E-12
6.16850E-09 9.15665E-12
6.51596E-09 8.79321E-12
6.87293E-09 8.44604E-12
7.23942E-09 8.11558E-12
7.61544E-09 7.79925E-12
1.18991E-08 5.33303E-12
1.71347E-08 3.75264E-12
2.33223E-08 2.70296E-12
3.04617E-08 1.98518E-12
3.85531E-08 1.47214E-12
4.75965E-08 1.11376E-12
5.75917E-08 8.64616E-13
6.85389E-08 6.74148E-13
8.04380E-08 5.38312E-13
9.32891E-08 4.32312E-13
1.07092E-07 3.54106E-13
1.21847E-07 2.92102E-13
1.37554E-07 2.44594E-13
1.54213E-07 2.06313E-13
1.71823E-07 1.75925E-13
1.90386E-07 1.50974E-13
2.09900E-07 1.30543E-13
2.30367E-07 1.13522E-13
2.51785E-07 9.91832E-14
2.74156E-07 8.71323E-14
2.97478E-07 7.67241E-14
3.21752E-07 6.79357E-14
3.46978E-07 6.01896E-14
3.73156E-07 5.36308E-14
4.00286E-07 4.77614E-14
4.28368E-07 4.27518E-14
4.57402E-07 3.82727E-14
4.87388E-07 3.43940E-14
5.18325E-07 3.09404E-14
5.50215E-07 2.79099E-14
5.83057E-07 2.52191E-14
6.16850E-07 2.28335E-14
6.51596E-07 2.07176E-14
6.87293E-07 1.88269E-14
7.23942E-07 1.71492E-14
7.61543E-07 1.56410E-14
1.18991E-06 6.86629E-15
1.71347E-06 3.48605E-15
2.33223E-06 1.96587E-15
3.04617E-06 1.19587E-15
3.85531E-06 7.68168E-16
4.75964E-06 5.15608E-16
5.75916E-06 3.58321E-16
6.85388E-06 2.56359E-16
8.04378E-06 1.87969E-16
9.32888E-06 1.40835E-16
1.07092E-05 1.07547E-16
1.21846E-05 8.35189E-17
1.37553E-05 6.58349E-17
1.54212E-05 5.25924E-17
1.71822E-05 4.25181E-17
1.90385E-05 3.47396E-17
2.09899E-05 2.86749E-17
2.30365E-05 2.38781E-17
2.51783E-05 2.00431E-17
2.74153E-05 1.69472E-17
2.97475E-05 1.44264E-17
3.21749E-05 1.23576E-17
3.46974E-05 1.06474E-17
3.73152E-05 9.22386E-18
4.00281E-05 8.03104E-18
4.28362E-05 7.02523E-18
4.57395E-05 6.17207E-18
4.87380E-05 5.44436E-18
5.18317E-05 4.82063E-18
5.50205E-05 4.28355E-18
5.83045E-05 3.81914E-18
6.16838E-05 3.41598E-18
6.51582E-05 3.06465E-18
6.87277E-05 2.75734E-18
7.23925E-05 2.48761E-18
7.61524E-05 2.25008E-18
9.21439E-05 1.54137E-18
1.09658E-04 1.09067E-18
1.28695E-04 7.93171E-19
1.49255E-04 5.90380E-19
1.71338E-04 4.48389E-19
1.94942E-04 3.46569E-19
2.20070E-04 2.72042E-19
2.46720E-04 2.16489E-19
2.74892E-04 1.74399E-19
3.04586E-04 1.42047E-19
3.35803E-04 1.16848E-19
3.68542E-04 9.69912E-20
4.02802E-04 8.11724E-20
4.38585E-04 6.84463E-20
4.75889E-04 5.81161E-20
5.14715E-04 4.96600E-20
5.55063E-04 4.26854E-20
5.96931E-04 3.68914E-20
6.40321E-04 3.20464E-20
6.85233E-04 2.79701E-20
7.31665E-04 2.45207E-20
7.79618E-04 2.15861E-20
8.29092E-04 1.90770E-20
8.80086E-04 1.69214E-20
9.32601E-04 1.50613E-20
9.86636E-04 1.34494E-20
1.04219E-03 1.20472E-20
1.09927E-03 1.08226E-20
1.15786E-03 9.74946E-21
1.21797E-03 8.80581E-21
1.27961E-03 7.97339E-21
1.34276E-03 7.23683E-21
1.40743E-03 6.58322E-21
1.47362E-03 6.00159E-21
1.54133E-03 5.48266E-21
1.61056E-03 5.01849E-21
1.68131E-03 4.60230E-21
1.75357E-03 4.22828E-21
1.82735E-03 3.89139E-21
1.90265E-03 3.58731E-21
1.97947E-03 3.31229E-21
2.05780E-03 3.06306E-21
2.13765E-03 2.83677E-21
2.21902E-03 2.63094E-21
2.30190E-03 2.44339E-21
2.38630E-03 2.27222E-21
2.47222E-03 2.11573E-21
2.55965E-03 1.97244E-21
2.64859E-03 1.84105E-21
2.73905E-03 1.72039E-21
2.83103E-03 1.60942E-21
2.92452E-03 1.50722E-21
3.01952E-03 1.41299E-21
3.11604E-03 1.32598E-21
3.21407E-03 1.24554E-21
3.31362E-03 1.17110E-21
3.41468E-03 1.10211E-21
3.51725E-03 1.03811E-21
3.62133E-03 9.78678E-22
3.72692E-03 9.23421E-22
3.83403E-03 8.71995E-22
3.94265E-03 8.24086E-22
4.05278E-03 7.79412E-22
4.16442E-03 7.37712E-22
4.27757E-03 6.98755E-22
4.39223E-03 6.62324E-22
4.50840E-03 6.28228E-22
4.62608E-03 5.96289E-22
4.74527E-03 5.66347E-22
4.86597E-03 5.38253E-22
4.98817E-03 5.11872E-22
5.11188E-03 4.87082E-22
5.23711E-03 4.63767E-22
5.36383E-03 4.41825E-22
5.49207E-03 4.21160E-22
5.62181E-03 4.01683E-22
5.75306E-03 3.83315E-22
5.88581E-03 3.65981E-22
6.02007E-03 3.49610E-22
6.15583E-03 3.34141E-22
6.29310E-03 3.19513E-22
6.43187E-03 3.05674E-22
6.57214E-03 2.92572E-22
6.71392E-03 2.80162E-22
6.85720E-03 2.68399E-22
7.00198E-03 2.57245E-22
7.14827E-03 2.46660E-22
7.29605E-03 2.36612E-22
7.44534E-03 2.27068E-22
7.59612E-03 2.17997E-22
7.97965E-03 1.97217E-22
8.37255E-03 1.78843E-22
8.77480E-03 1.62548E-22
9.18641E-03 1.48059E-22
9.60736E-03 1.35139E-22
1.00376E-02 1.23592E-22
1.04773E-02 1.13245E-22
1.09262E-02 1.03952E-22
1.13844E-02 9.55873E-23
1.18520E-02 8.80425E-23
1.23288E-02 8.12229E-23
1.28150E-02 7.50472E-23
1.33104E-02 6.94434E-23
1.38150E-02 6.43497E-23
1.43290E-02 5.97117E-23
1.48521E-02 5.54808E-23
1.53845E-02 5.16161E-23
1.59262E-02 4.80790E-23
1.64770E-02 4.48383E-23
1.70371E-02 4.18635E-23
1.76063E-02 3.91298E-23
1.81848E-02 3.66139E-23
1.87724E-02 3.42954E-23
1.93692E-02 3.21561E-23
1.99751E-02 3.01796E-23
2.05901E-02 2.83515E-23
2.12143E-02 2.66585E-23
2.18476E-02 2.50890E-23
2.24900E-02 2.36323E-23
2.31415E-02 2.22788E-23
2.38021E-02 2.10201E-23
2.44717E-02 1.98481E-23
2.51504E-02 1.87560E-23
2.58382E-02 1.77372E-23
2.65349E-02 1.67860E-23
2.72407E-02 1.58970E-23
2.79555E-02 1.50656E-23
2.86793E-02 1.42873E-23
2.94120E-02 1.35581E-23
3.01537E-02 1.28743E-23
3.09043E-02 1.22327E-23
3.16639E-02 1.16301E-23
3.24324E-02 1.10637E-23
3.32098E-02 1.05310E-23
3.39961E-02 1.00297E-23
3.47912E-02 9.55748E-24
3.55952E-02 9.11241E-24
3.64081E-02 8.69266E-24
3.72297E-02 8.29651E-24
3.80602E-02 7.92240E-24
3.88995E-02 7.56889E-24
3.97476E-02 7.23464E-24
4.06044E-02 6.91840E-24
4.14700E-02 6.61904E-24
4.23443E-02 6.33549E-24
4.32273E-02 6.06676E-24
4.41190E-02 5.81194E-24
4.50194E-02 5.57019E-24
4.59284E-02 5.34070E-24
4.68461E-02 5.12276E-24
4.87074E-02 4.71878E-24
5.06030E-02 4.35331E-24
5.25328E-02 4.02207E-24
5.44967E-02 3.72130E-24
5.64946E-02 3.44772E-24
5.85262E-02 3.19845E-24
6.05914E-02 2.97097E-24
6.26901E-02 2.76304E-24
6.48222E-02 2.57270E-24
6.69873E-02 2.39821E-24
6.91854E-02 2.23801E-24
7.14163E-02 2.09075E-24
7.36799E-02 1.95519E-24
7.59760E-02 1.83024E-24
7.83043E-02 1.71494E-24
8.06647E-02 1.60841E-24
8.30571E-02 1.50986E-24
8.54812E-02 1.41860E-24
8.79369E-02 1.33400E-24
9.04240E-02 1.25549E-24
9.29422E-02 1.18254E-24
9.54915E-02 1.11471E-24
9.80716E-02 1.05157E-24
1.00682E-01 9.92736E-25
1.03323E-01 9.37869E-25
1.05995E-01 8.86655E-25
1.08696E-01 8.38808E-25
1.11427E-01 7.94069E-25
1.14188E-01 7.52201E-25
1.16978E-01 7.12989E-25
1.19797E-01 6.76235E-25
1.22645E-01 6.41759E-25
1.25522E-01 6.09395E-25
1.28428E-01 5.78992E-25
1.31361E-01 5.50410E-25
1.34323E-01 5.23522E-25
1.37313E-01 4.98210E-25
1.40330E-01 4.74366E-25
1.43375E-01 4.51890E-25
1.46447E-01 4.30690E-25
1.49545E-01 4.10682E-25
1.52671E-01 3.91787E-25
1.55823E-01 3.73933E-25
1.59001E-01 3.57052E-25
1.62205E-01 3.41082E-25
1.65435E-01 3.25966E-25
1.68690E-01 3.11650E-25
1.71970E-01 2.98086E-25
1.75276E-01 2.85226E-25
1.78606E-01 2.73028E-25
1.81961E-01 2.61451E-25
1.85340E-01 2.50460E-25
1.88743E-01 2.40019E-25
1.92169E-01 2.30097E-25
1.95619E-01 2.20662E-25
1.99092E-01 2.11688E-25
2.02589E-01 2.03147E-25
2.06107E-01 1.95016E-25
2.09649E-01 1.87271E-25
2.13212E-01 1.79891E-25
2.16797E-01 1.72856E-25
2.20404E-01 1.66147E-25
2.24032E-01 1.59746E-25
2.27680E-01 1.53637E-25
2.31350E-01 1.47805E-25
2.35040E-01 1.42234E-25
2.38751E-01 1.36911E-25
2.42481E-01 1.31824E-25
2.46231E-01 1.26959E-25
2.50000E-01 1.22306E-25
2.53788E-01 1.17854E-25
2.57595E-01 1.13593E-25
2.61421E-01 1.09513E-25
2.65264E-01 1.05605E-25
2.69126E-01 1.01861E-25
2.73005E-01 9.82731E-26
2.76901E-01 9.48333E-26
2.80814E-01 9.15345E-26
2.84744E-01 8.83702E-26
2.88691E-01 8.53338E-26
2.92653E-01 8.24195E-26
2.96632E-01 7.96214E-26
3.00625E-01 7.69343E-26
3.04634E-01 7.43529E-26
3.08658E-01 7.18724E-26
3.12697E-01 6.94883E-26
3.16749E-01 6.71962E-26
3.20816E-01 6.49920E-26
3.24896E-01 6.28717E-26
3.28990E-01 6.08317E-26
3.33097E-01 5.88685E-26
3.37216E-01 5.69786E-26
3.41348E-01 5.51589E-26
3.45492E-01 5.34064E-26
3.49647E-01 5.17182E-26
3.53814E-01 5.00915E-26
3.57992E-01 4.85238E-26
3.62181E-01 4.70126E-26
3.66381E-01 4.55555E-26
3.70590E-01 4.41503E-26
3.74810E-01 4.27949E-26
3.79039E-01 4.14871E-26
3.83277E-01 4.02251E-26
3.87524E-01 3.90071E-26
3.91780E-01 3.78311E-26
3.96044E-01 3.66957E-26
4.00316E-01 3.55990E-26
4.04596E-01 3.45397E-26
4.08882E-01 3.35163E-26
4.13176E-01 3.25273E-26
4.17476E-01 3.15714E-26
4.21783E-01 3.06473E-26
4.26095E-01 2.97539E-26
4.30413E-01 2.88898E-26
4.34737E-01 2.80541E-26
4.39065E-01 2.72457E-26
4.43398E-01 2.64635E-26
4.47736E-01 2.57065E-26
4.52077E-01 2.49738E-26
4.56422E-01 2.42646E-26
4.60770E-01 2.35779E-26
4.65122E-01 2.29129E-26
4.69476E-01 2.22689E-26
4.73832E-01 2.16450E-26
4.78190E-01 2.10406E-26
4.82550E-01 2.04550E-26
4.86912E-01 1.98874E-26
4.91274E-01 1.93373E-26
4.95637E-01 1.88040E-26
5.00000E-01 1.82869E-26
5.04363E-01 1.77856E-26
5.08726E-01 1.72993E-26
5.13088E-01 1.68277E-26
5.17450E-01 1.63702E-26
5.21810E-01 1.59263E-26
5.26168E-01 1.54955E-26
5.30524E-01 1.50775E-26
5.34878E-01 1.46717E-26
5.39230E-01 1.42779E-26
5.43578E-01 1.38954E-26
5.47923E-01 1.35241E-26
5.52264E-01 1.31636E-26
5.56602E-01 1.28133E-26
5.60935E-01 1.24732E-26
5.65263E-01 1.21427E-26
5.69587E-01 1.18216E-26
5.73905E-01 1.15096E-26
5.78217E-01 1.12064E-26
5.82524E-01 1.09117E-26
5.86824E-01 1.06253E-26
5.91118E-01 1.03468E-26
5.95404E-01 1.00761E-26
5.99684E-01 9.81281E-27
6.03956E-01 9.55681E-27
6.08220E-01 9.30782E-27
6.12476E-01 9.06564E-27
6.16723E-01 8.83006E-27
6.20961E-01 8.60087E-27
6.25190E-01 8.37787E-27
6.29410E-01 8.16088E-27
6.33619E-01 7.94971E-27
6.37819E-01 7.74420E-27
6.42008E-01 7.54415E-27
6.46186E-01 7.34943E-27
6.50353E-01 7.15985E-27
6.54508E-01 6.97528E-27
6.58652E-01 6.79556E-27
6.62784E-01 6.62055E-27
6.66903E-01 6.45010E-27
6.71010E-01 6.28410E-27
6.75104E-01 6.12240E-27
6.79184E-01 5.96489E-27
6.83251E-01 5.81144E-27
6.87303E-01 5.66193E-27
6.91342E-01 5.51625E-27
6.95366E-01 5.37430E-27
6.99375E-01 5.23596E-27
7.03368E-01 5.10113E-27
7.07347E-01 4.96972E-27
7.11309E-01 4.84163E-27
7.15256E-01 4.71676E-27
7.19186E-01 4.59502E-27
7.23099E-01 4.47634E-27
7.26995E-01 4.36062E-27
7.30874E-01 4.24778E-27
7.34736E-01 4.13774E-27
7.38579E-01 4.03043E-27
7.42405E-01 3.92577E-27
7.46212E-01 3.82369E-27
7.50000E-01 3.72412E-27
7.53769E-01 3.62700E-27
7.57519E-01 3.53225E-27
7.61249E-01 3.43981E-27
7.64960E-01 3.34963E-27
7.68650E-01 3.26164E-27
7.72320E-01 3.17578E-27
7.75968E-01 3.09200E-27
7.79596E-01 3.01025E-27
7.83203E-01 2.93046E-27
7.86788E-01 2.85260E-27
7.90351E-01 2.77661E-27
7.93893E-01 2.70243E-27
7.97411E-01 2.63004E-27
8.00908E-01 2.55937E-27
8.04381E-01 2.49039E-27
8.07831E-01 2.42305E-27
8.11257E-01 2.35731E-27
8.14660E-01 2.29313E-27
8.18039E-01 2.23048E-27
8.21394E-01 2.16931E-27
8.24724E-01 2.10958E-27
8.28030E-01 2.05127E-27
8.31310E-01 1.99434E-27
8.34565E-01 1.93874E-27
8.37795E-01 1.88446E-27
8.40999E-01 1.83146E-27
8.44177E-01 1.77970E-27
8.47329E-01 1.72916E-27
8.50455E-01 1.67981E-27
8.53553E-01 1.63161E-27
8.56625E-01 1.58455E-27
8.59670E-01 1.53860E-27
8.62687E-01 1.49372E-27
8.65677E-01 1.44990E-27
8.68639E-01 1.40711E-27
8.71572E-01 1.36532E-27
8.74478E-01 1.32451E-27
8.77355E-01 1.28467E-27
8.80203E-01 1.24576E-27
8.83022E-01 1.20777E-27
8.85812E-01 1.17067E-27
8.88573E-01 1.13445E-27
8.91304E-01 1.09909E-27
8.94005E-01 1.06456E-27
8.96677E-01 1.03085E-27
8.99318E-01 9.97947E-28
9.01928E-01 9.65823E-28
9.04508E-01 9.34464E-28
9.07058E-01 9.03856E-28
9.09576E-01 8.73981E-28
9.12063E-01 8.44824E-28
9.14519E-01 8.16370E-28
9.16943E-01 7.88603E-28
9.19335E-01 7.61511E-28
9.21696E-01 7.35078E-28
9.24024E-01 7.09292E-28
9.26320E-01 6.84139E-28
9.28584E-01 6.59606E-28
9.30815E-01 6.35681E-28
9.33013E-01 6.12352E-28
9.35178E-01 5.89608E-28
9.37310E-01 5.67435E-28
9.39409E-01 5.45825E-28
9.41474E-01 5.24766E-28
9.43505E-01 5.04247E-28
9.45503E-01 4.84258E-28
9.47467E-01 4.64790E-28
9.49397E-01 4.45833E-28
9.51293E-01 4.27377E-28
9.53154E-01 4.09415E-28
9.54981E-01 3.91936E-28
9.56773E-01 3.74932E-28
9.58530E-01 3.58396E-28
9.60252E-01 3.42319E-28
9.61940E-01 3.26694E-28
9.63592E-01 3.11513E-28
9.65209E-01 2.96769E-28
9.66790E-01 2.82454E-28
9.68336E-01 2.68562E-28
9.69846E-01 2.55087E-28
9.71321E-01 2.42021E-28
9.72759E-01 2.29360E-28
9.74162E-01 2.17096E-28
9.75528E-01 2.05225E-28
9.76858E-01 1.93740E-28
9.78152E-01 1.82636E-28
9.79410E-01 1.71908E-28
9.80631E-01 1.61551E-28
9.81815E-01 1.51561E-28
9.82963E-01 1.41932E-28
9.84074E-01 1.32660E-28
9.85148E-01 1.23740E-28
9.86185E-01 1.15170E-28
9.87185E-01 1.06944E-28
9.88148E-01 9.90594E-29
9.89074E-01 9.15120E-29
9.89962E-01 8.42984E-29
9.90814E-01 7.74155E-29
9.91627E-01 7.08599E-29
9.92404E-01 6.46289E-29
9.93143E-01 5.87195E-29
9.93844E-01 5.31289E-29
9.94508E-01 4.78548E-29
9.95134E-01 4.28947E-29
9.95722E-01 3.82463E-29
9.96273E-01 3.39075E-29
9.96786E-01 2.98765E-29
9.97261E-01 2.61512E-29
9.97698E-01 2.27302E-29
9.98097E-01 1.96117E-29
9.98459E-01 1.67945E-29
9.98782E-01 1.42772E-29
9.99067E-01 1.20587E-29
9.99315E-01 1.01381E-29
9.99524E-01 8.51436E-30
9.99695E-01 7.18686E-30
9.99829E-01 6.15498E-30
9.99924E-01 5.41825E-30
9.99981E-01 4.97635E-30
1.00000E+00 4.82907E-30
