 #
 # Subroutine ELSEPA. Elastic scattering of electrons and positrons
 #                    by neutral atoms and positive ions
 #
 # Projectile: positron
 # Kinetic energy = 3.50000E+08 eV = 1.28623E+07 a.u.
 #
 # WARNING: High-energy factorization with free-atom DF screening.
 #          Absorption, polarization and exchange corrections are
 #          switched off.
 #          Phase shifts are calculated for the bare nucleus.
 #          Scattering amplitudes are not evaluated.
 #
 # Element: Nb,  Z =  41,  atomic weight = 9.29064E+01 g/mol
 #
 # Nuclear model: Fermi distribution
 #                Average radius = 4.84617E-13 cm
 #                Skin thickness = 5.46000E-14 cm
 #
 # Number of electrons = 41
 #
 # Total elastic cross section = 3.98553E-18 cm**2 = 1.42326E-01 a0**2
 # 1st transport cross section = 2.72097E-26 cm**2 = 9.71676E-10 a0**2
 # 2nd transport cross section = 8.15567E-26 cm**2 = 2.91244E-09 a0**2
 #
 #
 # Differential cross section:                       MU=(1-COS(THETA))/2
 #
 #  THETA        MU          DCS          DCS        Sherman      error
 #  (deg)                 (cm**2/sr)   (a0**2/sr)    function
 #----------------------------------------------------------------------
0.00000E+00 5.28553E-09
7.61557E-13 5.07333E-09
1.18994E-12 4.96038E-09
1.71346E-12 4.82812E-09
2.33225E-12 4.67939E-09
3.04617E-12 4.51760E-09
3.85530E-12 4.34558E-09
4.75964E-12 4.16649E-09
5.75917E-12 3.98331E-09
6.85391E-12 3.79818E-09
8.04379E-12 3.61373E-09
9.32893E-12 3.43186E-09
1.07092E-11 3.25379E-09
1.21847E-11 3.08120E-09
1.37554E-11 2.91483E-09
1.54213E-11 2.75526E-09
1.71823E-11 2.60323E-09
1.90386E-11 2.45867E-09
2.09900E-11 2.32177E-09
2.30367E-11 2.19269E-09
2.51785E-11 2.07080E-09
2.74156E-11 1.95626E-09
2.97478E-11 1.84884E-09
3.21752E-11 1.74770E-09
3.46979E-11 1.65304E-09
3.73157E-11 1.56434E-09
4.00286E-11 1.48099E-09
4.28368E-11 1.40308E-09
4.57402E-11 1.32993E-09
4.87388E-11 1.26126E-09
5.18325E-11 1.19704E-09
5.50215E-11 1.13652E-09
5.83057E-11 1.07974E-09
6.16850E-11 1.02658E-09
6.51595E-11 9.76243E-10
6.87293E-11 9.29053E-10
7.23943E-11 8.84671E-10
7.61544E-11 8.42647E-10
1.18991E-10 5.31795E-10
1.71347E-10 3.48356E-10
2.33223E-10 2.32830E-10
3.04617E-10 1.63508E-10
3.85531E-10 1.16913E-10
4.75965E-10 8.62002E-11
5.75917E-10 6.53596E-11
6.85389E-10 5.04597E-11
8.04380E-10 3.98413E-11
9.32891E-10 3.20327E-11
1.07092E-09 2.60449E-11
1.21847E-09 2.14736E-11
1.37554E-09 1.78722E-11
1.54213E-09 1.49730E-11
1.71823E-09 1.26552E-11
1.90386E-09 1.07420E-11
2.09900E-09 9.16574E-12
2.30367E-09 7.86887E-12
2.51785E-09 6.77054E-12
2.74156E-09 5.85485E-12
2.97478E-09 5.08605E-12
3.21752E-09 4.42840E-12
3.46978E-09 3.87365E-12
3.73156E-09 3.40039E-12
4.00286E-09 2.99413E-12
4.28368E-09 2.64692E-12
4.57402E-09 2.34738E-12
4.87388E-09 2.08819E-12
5.18326E-09 1.86388E-12
5.50215E-09 1.66841E-12
5.83057E-09 1.49816E-12
6.16850E-09 1.34940E-12
6.51596E-09 1.21858E-12
6.87293E-09 1.10357E-12
7.23942E-09 1.00202E-12
7.61544E-09 9.11955E-13
1.18991E-08 3.98033E-13
1.71347E-08 2.01868E-13
2.33223E-08 1.12955E-13
3.04617E-08 6.78928E-14
3.85531E-08 4.31214E-14
4.75965E-08 2.86432E-14
5.75917E-08 1.97386E-14
6.85389E-08 1.40374E-14
8.04380E-08 1.02521E-14
9.32891E-08 7.66146E-15
1.07092E-07 5.84081E-15
1.21847E-07 4.53069E-15
1.37554E-07 3.56879E-15
1.54213E-07 2.84943E-15
1.71823E-07 2.30275E-15
1.90386E-07 1.88128E-15
2.09900E-07 1.55201E-15
2.30367E-07 1.29180E-15
2.51785E-07 1.08391E-15
2.74156E-07 9.16218E-16
2.97478E-07 7.79744E-16
3.21752E-07 6.67744E-16
3.46978E-07 5.75151E-16
3.73156E-07 4.98053E-16
4.00286E-07 4.33444E-16
4.28368E-07 3.78975E-16
4.57402E-07 3.32789E-16
4.87388E-07 2.93426E-16
5.18325E-07 2.59708E-16
5.50215E-07 2.30693E-16
5.83057E-07 2.05616E-16
6.16850E-07 1.83851E-16
6.51596E-07 1.64889E-16
6.87293E-07 1.48307E-16
7.23942E-07 1.33756E-16
7.61543E-07 1.20945E-16
1.18991E-06 4.97385E-17
1.71347E-06 2.40357E-17
2.33223E-06 1.29883E-17
3.04617E-06 7.61826E-18
3.85531E-06 4.75774E-18
4.75964E-06 3.12217E-18
5.75916E-06 2.13269E-18
6.85388E-06 1.50586E-18
8.04378E-06 1.09328E-18
9.32888E-06 8.12777E-19
1.07092E-05 6.16721E-19
1.21846E-05 4.76361E-19
1.37553E-05 3.73747E-19
1.54212E-05 2.97329E-19
1.71822E-05 2.39476E-19
1.90385E-05 1.94996E-19
2.09899E-05 1.60441E-19
2.30365E-05 1.33203E-19
2.51783E-05 1.11495E-19
2.74153E-05 9.40232E-20
2.97475E-05 7.98376E-20
3.21749E-05 6.82282E-20
3.46974E-05 5.86555E-20
3.73152E-05 5.07069E-20
4.00281E-05 4.40619E-20
4.28362E-05 3.84716E-20
4.57395E-05 3.37398E-20
4.87380E-05 2.97128E-20
5.18317E-05 2.62677E-20
5.50205E-05 2.33070E-20
5.83045E-05 2.07514E-20
6.16838E-05 1.85366E-20
6.51582E-05 1.66096E-20
6.87277E-05 1.49270E-20
7.23925E-05 1.34522E-20
7.61524E-05 1.21602E-20
9.21439E-05 8.29867E-21
1.09658E-04 5.85384E-21
1.28695E-04 4.24589E-21
1.49255E-04 3.15308E-21
1.71338E-04 2.38983E-21
1.94942E-04 1.84367E-21
2.20070E-04 1.44464E-21
2.46720E-04 1.14767E-21
2.74892E-04 9.22981E-22
3.04586E-04 7.50498E-22
3.35803E-04 6.16316E-22
3.68542E-04 5.10691E-22
4.02802E-04 4.26636E-22
4.38585E-04 3.59084E-22
4.75889E-04 3.04304E-22
5.14715E-04 2.59508E-22
5.55063E-04 2.22597E-22
5.96931E-04 1.91965E-22
6.40321E-04 1.66378E-22
6.85233E-04 1.44873E-22
7.31665E-04 1.26695E-22
7.79618E-04 1.11248E-22
8.29092E-04 9.80550E-23
8.80086E-04 8.67354E-23
9.32601E-04 7.69797E-23
9.86636E-04 6.85370E-23
1.04219E-03 6.12020E-23
1.09927E-03 5.48055E-23
1.15786E-03 4.92082E-23
1.21797E-03 4.42938E-23
1.27961E-03 3.99654E-23
1.34276E-03 3.61417E-23
1.40743E-03 3.27543E-23
1.47362E-03 2.97452E-23
1.54133E-03 2.70654E-23
1.61056E-03 2.46728E-23
1.68131E-03 2.25317E-23
1.75357E-03 2.06112E-23
1.82735E-03 1.88851E-23
1.90265E-03 1.73303E-23
1.97947E-03 1.59272E-23
2.05780E-03 1.46585E-23
2.13765E-03 1.35093E-23
2.21902E-03 1.24665E-23
2.30190E-03 1.15186E-23
2.38630E-03 1.06556E-23
2.47222E-03 9.86875E-24
2.55965E-03 9.15018E-24
2.64859E-03 8.49304E-24
2.73905E-03 7.89124E-24
2.83103E-03 7.33938E-24
2.92452E-03 6.83265E-24
3.01952E-03 6.36680E-24
3.11604E-03 5.93800E-24
3.21407E-03 5.54285E-24
3.31362E-03 5.17828E-24
3.41468E-03 4.84158E-24
3.51725E-03 4.53028E-24
3.62133E-03 4.24216E-24
3.72692E-03 3.97525E-24
3.83403E-03 3.72774E-24
3.94265E-03 3.49800E-24
4.05278E-03 3.28457E-24
4.16442E-03 3.08612E-24
4.27757E-03 2.90144E-24
4.39223E-03 2.72943E-24
4.50840E-03 2.56910E-24
4.62608E-03 2.41953E-24
4.74527E-03 2.27990E-24
4.86597E-03 2.14946E-24
4.98817E-03 2.02750E-24
5.11188E-03 1.91341E-24
5.23711E-03 1.80660E-24
5.36383E-03 1.70654E-24
5.49207E-03 1.61275E-24
5.62181E-03 1.52477E-24
5.75306E-03 1.44221E-24
5.88581E-03 1.36467E-24
6.02007E-03 1.29182E-24
6.15583E-03 1.22333E-24
6.29310E-03 1.15891E-24
6.43187E-03 1.09827E-24
6.57214E-03 1.04118E-24
6.71392E-03 9.87398E-25
6.85720E-03 9.36703E-25
7.00198E-03 8.88900E-25
7.14827E-03 8.43801E-25
7.29605E-03 8.01234E-25
7.44534E-03 7.61041E-25
7.59612E-03 7.23072E-25
7.97965E-03 6.36999E-25
8.37255E-03 5.62085E-25
8.77480E-03 4.96730E-25
9.18641E-03 4.39589E-25
9.60736E-03 3.89528E-25
1.00376E-02 3.45584E-25
1.04773E-02 3.06940E-25
1.09262E-02 2.72898E-25
1.13844E-02 2.42864E-25
1.18520E-02 2.16324E-25
1.23288E-02 1.92840E-25
1.28150E-02 1.72033E-25
1.33104E-02 1.53574E-25
1.38150E-02 1.37179E-25
1.43290E-02 1.22603E-25
1.48521E-02 1.09630E-25
1.53845E-02 9.80740E-26
1.59262E-02 8.77702E-26
1.64770E-02 7.85759E-26
1.70371E-02 7.03657E-26
1.76063E-02 6.30290E-26
1.81848E-02 5.64690E-26
1.87724E-02 5.06000E-26
1.93692E-02 4.53464E-26
1.99751E-02 4.06416E-26
2.05901E-02 3.64265E-26
2.12143E-02 3.26486E-26
2.18476E-02 2.92616E-26
2.24900E-02 2.62241E-26
2.31415E-02 2.34995E-26
2.38021E-02 2.10550E-26
2.44717E-02 1.88615E-26
2.51504E-02 1.68930E-26
2.58382E-02 1.51263E-26
2.65349E-02 1.35407E-26
2.72407E-02 1.21176E-26
2.79555E-02 1.08405E-26
2.86793E-02 9.69447E-27
2.94120E-02 8.66618E-27
3.01537E-02 7.74369E-27
3.09043E-02 6.91628E-27
3.16639E-02 6.17433E-27
3.24324E-02 5.50921E-27
3.32098E-02 4.91313E-27
3.39961E-02 4.37913E-27
3.47912E-02 3.90092E-27
3.55952E-02 3.47286E-27
3.64081E-02 3.08986E-27
3.72297E-02 2.74736E-27
3.80602E-02 2.44123E-27
3.88995E-02 2.16778E-27
3.97476E-02 1.92366E-27
4.06044E-02 1.70588E-27
4.14700E-02 1.51173E-27
4.23443E-02 1.33876E-27
4.32273E-02 1.18480E-27
4.41190E-02 1.04786E-27
4.50194E-02 9.26165E-28
4.59284E-02 8.18120E-28
4.68461E-02 7.22283E-28
4.87074E-02 5.62183E-28
5.06030E-02 4.36991E-28
5.25328E-02 3.39542E-28
5.44967E-02 2.64057E-28
5.64946E-02 2.05886E-28
5.85262E-02 1.61299E-28
6.05914E-02 1.27312E-28
6.26901E-02 1.01544E-28
6.48222E-02 8.21075E-29
6.69873E-02 6.75086E-29
6.91854E-02 5.65740E-29
7.14163E-02 4.83869E-29
7.36799E-02 4.22362E-29
7.59760E-02 3.75751E-29
7.83043E-02 3.39870E-29
8.06647E-02 3.11581E-29
8.30571E-02 2.88556E-29
8.54812E-02 2.69094E-29
8.79369E-02 2.51979E-29
9.04240E-02 2.36367E-29
9.29422E-02 2.21694E-29
9.54915E-02 2.07602E-29
9.80716E-02 1.93885E-29
1.00682E-01 1.80442E-29
1.03323E-01 1.67247E-29
1.05995E-01 1.54321E-29
1.08696E-01 1.41712E-29
1.11427E-01 1.29483E-29
1.14188E-01 1.17702E-29
1.16978E-01 1.06430E-29
1.19797E-01 9.57232E-30
1.22645E-01 8.56279E-30
1.25522E-01 7.61774E-30
1.28428E-01 6.73935E-30
1.31361E-01 5.92865E-30
1.34323E-01 5.18560E-30
1.37313E-01 4.50920E-30
1.40330E-01 3.89765E-30
1.43375E-01 3.34845E-30
1.46447E-01 2.85857E-30
1.49545E-01 2.42457E-30
1.52671E-01 2.04273E-30
1.55823E-01 1.70913E-30
1.59001E-01 1.41979E-30
1.62205E-01 1.17071E-30
1.65435E-01 9.57974E-31
1.68690E-01 7.77771E-31
1.71970E-01 6.26472E-31
1.75276E-01 5.00647E-31
1.78606E-01 3.97087E-31
1.81961E-01 3.12828E-31
1.85340E-01 2.45152E-31
1.88743E-01 1.91590E-31
1.92169E-01 1.49922E-31
1.95619E-01 1.18166E-31
1.99092E-01 9.45725E-32
2.02589E-01 7.76055E-32
2.06107E-01 6.59331E-32
2.09649E-01 5.84101E-32
2.13212E-01 5.40621E-32
2.16797E-01 5.20695E-32
2.20404E-01 5.17513E-32
2.24032E-01 5.25501E-32
2.27680E-01 5.40167E-32
2.31350E-01 5.57963E-32
2.35040E-01 5.76160E-32
2.38751E-01 5.92719E-32
2.42481E-01 6.06189E-32
2.46231E-01 6.15606E-32
2.50000E-01 6.20403E-32
2.53788E-01 6.20336E-32
2.57595E-01 6.15412E-32
2.61421E-01 6.05832E-32
2.65264E-01 5.91938E-32
2.69126E-01 5.74172E-32
2.73005E-01 5.53042E-32
2.76901E-01 5.29088E-32
2.80814E-01 5.02859E-32
2.84744E-01 4.74900E-32
2.88691E-01 4.45728E-32
2.92653E-01 4.15829E-32
2.96632E-01 3.85647E-32
3.00625E-01 3.55580E-32
3.04634E-01 3.25977E-32
3.08658E-01 2.97138E-32
3.12697E-01 2.69313E-32
3.16749E-01 2.42707E-32
3.20816E-01 2.17478E-32
3.24896E-01 1.93744E-32
3.28990E-01 1.71585E-32
3.33097E-01 1.51049E-32
3.37216E-01 1.32153E-32
3.41348E-01 1.14888E-32
3.45492E-01 9.92235E-33
3.49647E-01 8.51114E-33
3.53814E-01 7.24884E-33
3.57992E-01 6.12800E-33
3.62181E-01 5.14030E-33
3.66381E-01 4.27681E-33
3.70590E-01 3.52825E-33
3.74810E-01 2.88517E-33
3.79039E-01 2.33810E-33
3.83277E-01 1.87774E-33
3.87524E-01 1.49507E-33
3.91780E-01 1.18141E-33
3.96044E-01 9.28516E-34
4.00316E-01 7.28652E-34
4.04596E-01 5.74603E-34
4.08882E-01 4.59713E-34
4.13176E-01 3.77889E-34
4.17476E-01 3.23606E-34
4.21783E-01 2.91891E-34
4.26095E-01 2.78315E-34
4.30413E-01 2.78962E-34
4.34737E-01 2.90408E-34
4.39065E-01 3.09689E-34
4.43398E-01 3.34267E-34
4.47736E-01 3.61999E-34
4.52077E-01 3.91099E-34
4.56422E-01 4.20108E-34
4.60770E-01 4.47855E-34
4.65122E-01 4.73429E-34
4.69476E-01 4.96148E-34
4.73832E-01 5.15523E-34
4.78190E-01 5.31241E-34
4.82550E-01 5.43129E-34
4.86912E-01 5.51140E-34
4.91274E-01 5.55321E-34
4.95637E-01 5.55804E-34
5.00000E-01 5.52785E-34
5.04363E-01 5.46506E-34
5.08726E-01 5.37246E-34
5.13088E-01 5.25305E-34
5.17450E-01 5.10998E-34
5.21810E-01 4.94649E-34
5.26168E-01 4.76571E-34
5.30524E-01 4.57077E-34
5.34878E-01 4.36467E-34
5.39230E-01 4.15020E-34
5.43578E-01 3.93003E-34
5.47923E-01 3.70657E-34
5.52264E-01 3.48206E-34
5.56602E-01 3.25850E-34
5.60935E-01 3.03765E-34
5.65263E-01 2.82106E-34
5.69587E-01 2.61008E-34
5.73905E-01 2.40583E-34
5.78217E-01 2.20926E-34
5.82524E-01 2.02110E-34
5.86824E-01 1.84193E-34
5.91118E-01 1.67220E-34
5.95404E-01 1.51217E-34
5.99684E-01 1.36200E-34
6.03956E-01 1.22174E-34
6.08220E-01 1.09131E-34
6.12476E-01 9.70577E-35
6.16723E-01 8.59322E-35
6.20961E-01 7.57254E-35
6.25190E-01 6.64052E-35
6.29410E-01 5.79330E-35
6.33619E-01 5.02691E-35
6.37819E-01 4.33698E-35
6.42008E-01 3.71912E-35
6.46186E-01 3.16876E-35
6.50353E-01 2.68130E-35
6.54508E-01 2.25225E-35
6.58652E-01 1.87706E-35
6.62784E-01 1.55134E-35
6.66903E-01 1.27082E-35
6.71010E-01 1.03144E-35
6.75104E-01 8.29250E-36
6.79184E-01 6.60524E-36
6.83251E-01 5.21723E-36
6.87303E-01 4.09542E-36
6.91342E-01 3.20865E-36
6.95366E-01 2.52822E-36
6.99375E-01 2.02728E-36
7.03368E-01 1.68136E-36
7.07347E-01 1.46793E-36
7.11309E-01 1.36648E-36
7.15256E-01 1.35841E-36
7.19186E-01 1.42698E-36
7.23099E-01 1.55718E-36
7.26995E-01 1.73561E-36
7.30874E-01 1.95053E-36
7.34736E-01 2.19139E-36
7.38579E-01 2.44934E-36
7.42405E-01 2.71633E-36
7.46212E-01 2.98575E-36
7.50000E-01 3.25198E-36
7.53769E-01 3.51009E-36
7.57519E-01 3.75642E-36
7.61249E-01 3.98772E-36
7.64960E-01 4.20174E-36
7.68650E-01 4.39615E-36
7.72320E-01 4.57021E-36
7.75968E-01 4.72272E-36
7.79596E-01 4.85337E-36
7.83203E-01 4.96217E-36
7.86788E-01 5.04896E-36
7.90351E-01 5.11466E-36
7.93893E-01 5.15977E-36
7.97411E-01 5.18480E-36
8.00908E-01 5.19135E-36
8.04381E-01 5.18010E-36
8.07831E-01 5.15240E-36
8.11257E-01 5.10891E-36
8.14660E-01 5.05158E-36
8.18039E-01 4.98130E-36
8.21394E-01 4.89952E-36
8.24724E-01 4.80701E-36
8.28030E-01 4.70557E-36
8.31310E-01 4.59593E-36
8.34565E-01 4.47942E-36
8.37795E-01 4.35702E-36
8.40999E-01 4.22977E-36
8.44177E-01 4.09854E-36
8.47329E-01 3.96445E-36
8.50455E-01 3.82816E-36
8.53553E-01 3.69040E-36
8.56625E-01 3.55196E-36
8.59670E-01 3.41348E-36
8.62687E-01 3.27556E-36
8.65677E-01 3.13876E-36
8.68639E-01 3.00344E-36
8.71572E-01 2.87014E-36
8.74478E-01 2.73923E-36
8.77355E-01 2.61097E-36
8.80203E-01 2.48560E-36
8.83022E-01 2.36346E-36
8.85812E-01 2.24476E-36
8.88573E-01 2.12952E-36
8.91304E-01 2.01807E-36
8.94005E-01 1.91036E-36
8.96677E-01 1.80655E-36
8.99318E-01 1.70667E-36
9.01928E-01 1.61058E-36
9.04508E-01 1.51850E-36
9.07058E-01 1.43026E-36
9.09576E-01 1.34595E-36
9.12063E-01 1.26537E-36
9.14519E-01 1.18860E-36
9.16943E-01 1.11546E-36
9.19335E-01 1.04595E-36
9.21696E-01 9.79900E-37
9.24024E-01 9.17273E-37
9.26320E-01 8.57930E-37
9.28584E-01 8.01724E-37
9.30815E-01 7.48650E-37
9.33013E-01 6.98494E-37
9.35178E-01 6.51189E-37
9.37310E-01 6.06604E-37
9.39409E-01 5.64659E-37
9.41474E-01 5.25149E-37
9.43505E-01 4.88043E-37
9.45503E-01 4.53195E-37
9.47467E-01 4.20576E-37
9.49397E-01 3.89911E-37
9.51293E-01 3.61302E-37
9.53154E-01 3.34461E-37
9.54981E-01 3.09382E-37
9.56773E-01 2.85980E-37
9.58530E-01 2.64117E-37
9.60252E-01 2.43750E-37
9.61940E-01 2.24750E-37
9.63592E-01 2.07078E-37
9.65209E-01 1.90662E-37
9.66790E-01 1.75335E-37
9.68336E-01 1.61099E-37
9.69846E-01 1.47926E-37
9.71321E-01 1.35691E-37
9.72759E-01 1.24336E-37
9.74162E-01 1.13832E-37
9.75528E-01 1.04073E-37
9.76858E-01 9.50746E-38
9.78152E-01 8.67394E-38
9.79410E-01 7.90586E-38
9.80631E-01 7.19180E-38
9.81815E-01 6.53947E-38
9.82963E-01 5.93416E-38
9.84074E-01 5.37639E-38
9.85148E-01 4.86020E-38
9.86185E-01 4.39055E-38
9.87185E-01 3.95316E-38
9.88148E-01 3.55549E-38
9.89074E-01 3.18782E-38
9.89962E-01 2.85062E-38
9.90814E-01 2.54400E-38
9.91627E-01 2.25975E-38
9.92404E-01 2.00101E-38
9.93143E-01 1.76557E-38
9.93844E-01 1.54930E-38
9.94508E-01 1.35380E-38
9.95134E-01 1.17480E-38
9.95722E-01 1.01328E-38
9.96273E-01 8.66533E-39
9.96786E-01 7.35477E-39
9.97261E-01 6.16877E-39
9.97698E-01 5.10709E-39
9.98097E-01 4.16162E-39
9.98459E-01 3.33594E-39
9.98782E-01 2.60463E-39
9.99067E-01 1.97543E-39
9.99315E-01 1.43961E-39
9.99524E-01 9.94591E-40
9.99695E-01 6.39825E-40
9.99829E-01 3.63629E-40
9.99924E-01 1.61059E-40
9.99981E-01 4.55197E-41
1.00000E+00 5.37163E-42
