 #
 # Subroutine ELSEPA. Elastic scattering of electrons and positrons
 #                    by neutral atoms and positive ions
 #
 # Projectile: positron
 # Kinetic energy = 4.00000E+08 eV = 1.46997E+07 a.u.
 #
 # WARNING: High-energy factorization with free-atom DF screening.
 #          Absorption, polarization and exchange corrections are
 #          switched off.
 #          Phase shifts are calculated for the bare nucleus.
 #          Scattering amplitudes are not evaluated.
 #
 # Element: Nb,  Z =  41,  atomic weight = 9.29064E+01 g/mol
 #
 # Nuclear model: Fermi distribution
 #                Average radius = 4.84617E-13 cm
 #                Skin thickness = 5.46000E-14 cm
 #
 # Number of electrons = 41
 #
 # Total elastic cross section = 3.98472E-18 cm**2 = 1.42297E-01 a0**2
 # 1st transport cross section = 2.08534E-26 cm**2 = 7.44689E-10 a0**2
 # 2nd transport cross section = 6.25177E-26 cm**2 = 2.23255E-09 a0**2
 #
 #
 # Differential cross section:                       MU=(1-COS(THETA))/2
 #
 #  THETA        MU          DCS          DCS        Sherman      error
 #  (deg)                 (cm**2/sr)   (a0**2/sr)    function
 #----------------------------------------------------------------------
0.00000E+00 6.90103E-09
7.61557E-13 6.54313E-09
1.18994E-12 6.35568E-09
1.71346E-12 6.13877E-09
2.33225E-12 5.89870E-09
3.04617E-12 5.64130E-09
3.85530E-12 5.37244E-09
4.75964E-12 5.09771E-09
5.75917E-12 4.82192E-09
6.85391E-12 4.54870E-09
8.04379E-12 4.28172E-09
9.32893E-12 4.02360E-09
1.07092E-11 3.77615E-09
1.21847E-11 3.54035E-09
1.37554E-11 3.31735E-09
1.54213E-11 3.10754E-09
1.71823E-11 2.91068E-09
1.90386E-11 2.72648E-09
2.09900E-11 2.55482E-09
2.30367E-11 2.39517E-09
2.51785E-11 2.24641E-09
2.74156E-11 2.10820E-09
2.97478E-11 1.97999E-09
3.21752E-11 1.86104E-09
3.46979E-11 1.75015E-09
3.73157E-11 1.64726E-09
4.00286E-11 1.55175E-09
4.28368E-11 1.46283E-09
4.57402E-11 1.37984E-09
4.87388E-11 1.30265E-09
5.18325E-11 1.23078E-09
5.50215E-11 1.16349E-09
5.83057E-11 1.10059E-09
6.16850E-11 1.04188E-09
6.51595E-11 9.87033E-10
6.87293E-11 9.35350E-10
7.23943E-11 8.86986E-10
7.61544E-11 8.41694E-10
1.18991E-10 5.11732E-10
1.71347E-10 3.21201E-10
2.33223E-10 2.13596E-10
3.04617E-10 1.46154E-10
3.85531E-10 1.03685E-10
4.75965E-10 7.61386E-11
5.75917E-10 5.75630E-11
6.85389E-10 4.44350E-11
8.04380E-10 3.50078E-11
9.32891E-10 2.80526E-11
1.07092E-09 2.27715E-11
1.21847E-09 1.86298E-11
1.37554E-09 1.53901E-11
1.54213E-09 1.28177E-11
1.71823E-09 1.07326E-11
1.90386E-09 9.03278E-12
2.09900E-09 7.64923E-12
2.30367E-09 6.51340E-12
2.51785E-09 5.56740E-12
2.74156E-09 4.78279E-12
2.97478E-09 4.12941E-12
3.21752E-09 3.58175E-12
3.46978E-09 3.11913E-12
3.73156E-09 2.72828E-12
4.00286E-09 2.39644E-12
4.28368E-09 2.11333E-12
4.57402E-09 1.87085E-12
4.87388E-09 1.66261E-12
5.18326E-09 1.48296E-12
5.50215E-09 1.32712E-12
5.83057E-09 1.19151E-12
6.16850E-09 1.07307E-12
6.51596E-09 9.69241E-13
6.87293E-09 8.77739E-13
7.23942E-09 7.96967E-13
7.61544E-09 7.25434E-13
1.18991E-08 3.16477E-13
1.71347E-08 1.59603E-13
2.33223E-08 8.87071E-14
3.04617E-08 5.30068E-14
3.85531E-08 3.35269E-14
4.75965E-08 2.22068E-14
5.75917E-08 1.52808E-14
6.85389E-08 1.08562E-14
8.04380E-08 7.92433E-15
9.32891E-08 5.91990E-15
1.07092E-07 4.51187E-15
1.21847E-07 3.49921E-15
1.37554E-07 2.75569E-15
1.54213E-07 2.19972E-15
1.71823E-07 1.77724E-15
1.90386E-07 1.45155E-15
2.09900E-07 1.19717E-15
2.30367E-07 9.96159E-16
2.51785E-07 8.35610E-16
2.74156E-07 7.06121E-16
2.97478E-07 6.00760E-16
3.21752E-07 5.14325E-16
3.46978E-07 4.42880E-16
3.73156E-07 3.83411E-16
4.00286E-07 3.33588E-16
4.28368E-07 2.91592E-16
4.57402E-07 2.55997E-16
4.87388E-07 2.25665E-16
5.18325E-07 1.99692E-16
5.50215E-07 1.77346E-16
5.83057E-07 1.58037E-16
6.16850E-07 1.41284E-16
6.51596E-07 1.26690E-16
6.87293E-07 1.13931E-16
7.23942E-07 1.02738E-16
7.61543E-07 9.28844E-17
1.18991E-06 3.81595E-17
1.71347E-06 1.84296E-17
2.33223E-06 9.95552E-18
3.04617E-06 5.83816E-18
3.85531E-06 3.64553E-18
4.75964E-06 2.39208E-18
5.75916E-06 1.63386E-18
6.85388E-06 1.15360E-18
8.04378E-06 8.37495E-19
9.32888E-06 6.22603E-19
1.07092E-05 4.72410E-19
1.21846E-05 3.64887E-19
1.37553E-05 2.86282E-19
1.54212E-05 2.27744E-19
1.71822E-05 1.83430E-19
1.90385E-05 1.49358E-19
2.09899E-05 1.22890E-19
2.30365E-05 1.02026E-19
2.51783E-05 8.53984E-20
2.74153E-05 7.20159E-20
2.97475E-05 6.11505E-20
3.21749E-05 5.22581E-20
3.46974E-05 4.49260E-20
3.73152E-05 3.88378E-20
4.00281E-05 3.37482E-20
4.28362E-05 2.94663E-20
4.57395E-05 2.58422E-20
4.87380E-05 2.27577E-20
5.18317E-05 2.01191E-20
5.50205E-05 1.78513E-20
5.83045E-05 1.58939E-20
6.16838E-05 1.41975E-20
6.51582E-05 1.27216E-20
6.87277E-05 1.14328E-20
7.23925E-05 1.03033E-20
7.61524E-05 9.31052E-21
9.21439E-05 6.35279E-21
1.09658E-04 4.48024E-21
1.28695E-04 3.24875E-21
1.49255E-04 2.41189E-21
1.71338E-04 1.82747E-21
1.94942E-04 1.40932E-21
2.20070E-04 1.10386E-21
2.46720E-04 8.76559E-22
2.74892E-04 7.04614E-22
3.04586E-04 5.72646E-22
3.35803E-04 4.70003E-22
3.68542E-04 3.89224E-22
4.02802E-04 3.24958E-22
4.38585E-04 2.73323E-22
4.75889E-04 2.31464E-22
5.14715E-04 1.97244E-22
5.55063E-04 1.69057E-22
5.96931E-04 1.45673E-22
6.40321E-04 1.26148E-22
6.85233E-04 1.09744E-22
7.31665E-04 9.58842E-23
7.79618E-04 8.41118E-23
8.29092E-04 7.40622E-23
8.80086E-04 6.54435E-23
9.32601E-04 5.80195E-23
9.86636E-04 5.15980E-23
1.04219E-03 4.60222E-23
1.09927E-03 4.11627E-23
1.15786E-03 3.69129E-23
1.21797E-03 3.31839E-23
1.27961E-03 2.99017E-23
1.34276E-03 2.70042E-23
1.40743E-03 2.44391E-23
1.47362E-03 2.21622E-23
1.54133E-03 2.01359E-23
1.61056E-03 1.83282E-23
1.68131E-03 1.67118E-23
1.75357E-03 1.52633E-23
1.82735E-03 1.39623E-23
1.90265E-03 1.27916E-23
1.97947E-03 1.17360E-23
2.05780E-03 1.07824E-23
2.13765E-03 9.91948E-24
2.21902E-03 9.13718E-24
2.30190E-03 8.42684E-24
2.38630E-03 7.78080E-24
2.47222E-03 7.19235E-24
2.55965E-03 6.65557E-24
2.64859E-03 6.16523E-24
2.73905E-03 5.71669E-24
2.83103E-03 5.30586E-24
2.92452E-03 4.92909E-24
3.01952E-03 4.58313E-24
3.11604E-03 4.26509E-24
3.21407E-03 3.97238E-24
3.31362E-03 3.70269E-24
3.41468E-03 3.45395E-24
3.51725E-03 3.22428E-24
3.62133E-03 3.01203E-24
3.72692E-03 2.81567E-24
3.83403E-03 2.63385E-24
3.94265E-03 2.46535E-24
4.05278E-03 2.30904E-24
4.16442E-03 2.16393E-24
4.27757E-03 2.02911E-24
4.39223E-03 1.90374E-24
4.50840E-03 1.78707E-24
4.62608E-03 1.67843E-24
4.74527E-03 1.57717E-24
4.86597E-03 1.48274E-24
4.98817E-03 1.39462E-24
5.11188E-03 1.31232E-24
5.23711E-03 1.23542E-24
5.36383E-03 1.16352E-24
5.49207E-03 1.09625E-24
5.62181E-03 1.03328E-24
5.75306E-03 9.74295E-25
5.88581E-03 9.19017E-25
6.02007E-03 8.67184E-25
6.15583E-03 8.18557E-25
6.29310E-03 7.72914E-25
6.43187E-03 7.30051E-25
6.57214E-03 6.89779E-25
6.71392E-03 6.51925E-25
6.85720E-03 6.16328E-25
7.00198E-03 5.82838E-25
7.14827E-03 5.51317E-25
7.29605E-03 5.21637E-25
7.44534E-03 4.93680E-25
7.59612E-03 4.67335E-25
7.97965E-03 4.07873E-25
8.37255E-03 3.56456E-25
8.77480E-03 3.11902E-25
9.18641E-03 2.73221E-25
9.60736E-03 2.39578E-25
1.00376E-02 2.10268E-25
1.04773E-02 1.84694E-25
1.09262E-02 1.62347E-25
1.13844E-02 1.42796E-25
1.18520E-02 1.25669E-25
1.23288E-02 1.10649E-25
1.28150E-02 9.74642E-26
1.33104E-02 8.58790E-26
1.38150E-02 7.56911E-26
1.43290E-02 6.67251E-26
1.48521E-02 5.88293E-26
1.53845E-02 5.18718E-26
1.59262E-02 4.57378E-26
1.64770E-02 4.03276E-26
1.70371E-02 3.55538E-26
1.76063E-02 3.13404E-26
1.81848E-02 2.76206E-26
1.87724E-02 2.43361E-26
1.93692E-02 2.14355E-26
1.99751E-02 1.88739E-26
2.05901E-02 1.66117E-26
2.12143E-02 1.46140E-26
2.18476E-02 1.28501E-26
2.24900E-02 1.12929E-26
2.31415E-02 9.91858E-27
2.38021E-02 8.70600E-27
2.44717E-02 7.63652E-27
2.51504E-02 6.69365E-27
2.58382E-02 5.86279E-27
2.65349E-02 5.13102E-27
2.72407E-02 4.48692E-27
2.79555E-02 3.92035E-27
2.86793E-02 3.42233E-27
2.94120E-02 2.98491E-27
3.01537E-02 2.60103E-27
3.09043E-02 2.26444E-27
3.16639E-02 1.96960E-27
3.24324E-02 1.71160E-27
3.32098E-02 1.48607E-27
3.39961E-02 1.28916E-27
3.47912E-02 1.11745E-27
3.55952E-02 9.67898E-28
3.64081E-02 8.37827E-28
3.72297E-02 7.24859E-28
3.80602E-02 6.26891E-28
3.88995E-02 5.42063E-28
3.97476E-02 4.68733E-28
4.06044E-02 4.05448E-28
4.14700E-02 3.50928E-28
4.23443E-02 3.04043E-28
4.32273E-02 2.63798E-28
4.41190E-02 2.29316E-28
4.50194E-02 1.99829E-28
4.59284E-02 1.74660E-28
4.68461E-02 1.53216E-28
4.87074E-02 1.19494E-28
5.06030E-02 9.52494E-29
5.25328E-02 7.78906E-29
5.44967E-02 6.54668E-29
5.64946E-02 5.65233E-29
5.85262E-02 4.99879E-29
6.05914E-02 4.50813E-29
6.26901E-02 4.12470E-29
6.48222E-02 3.80959E-29
6.69873E-02 3.53635E-29
6.91854E-02 3.28771E-29
7.14163E-02 3.05297E-29
7.36799E-02 2.82607E-29
7.59760E-02 2.60416E-29
7.83043E-02 2.38646E-29
8.06647E-02 2.17346E-29
8.30571E-02 1.96639E-29
8.54812E-02 1.76673E-29
8.79369E-02 1.57604E-29
9.04240E-02 1.39569E-29
9.29422E-02 1.22681E-29
9.54915E-02 1.07025E-29
9.80716E-02 9.26508E-30
1.00682E-01 7.95808E-30
1.03323E-01 6.78087E-30
1.05995E-01 5.73048E-30
1.08696E-01 4.80195E-30
1.11427E-01 3.98880E-30
1.14188E-01 3.28338E-30
1.16978E-01 2.67732E-30
1.19797E-01 2.16175E-30
1.22645E-01 1.72768E-30
1.25522E-01 1.36620E-30
1.28428E-01 1.06863E-30
1.31361E-01 8.26757E-31
1.34323E-01 6.32843E-31
1.37313E-01 4.79770E-31
1.40330E-01 3.61049E-31
1.43375E-01 2.70854E-31
1.46447E-01 2.04010E-31
1.49545E-01 1.55985E-31
1.52671E-01 1.22853E-31
1.55823E-01 1.01260E-31
1.59001E-01 8.83766E-32
1.62205E-01 8.18531E-32
1.65435E-01 7.97659E-32
1.68690E-01 8.05699E-32
1.71970E-01 8.30497E-32
1.75276E-01 8.62733E-32
1.78606E-01 8.95491E-32
1.81961E-01 9.23863E-32
1.85340E-01 9.44589E-32
1.88743E-01 9.55741E-32
1.92169E-01 9.56433E-32
1.95619E-01 9.46587E-32
1.99092E-01 9.26713E-32
2.02589E-01 8.97745E-32
2.06107E-01 8.60884E-32
2.09649E-01 8.17488E-32
2.13212E-01 7.68974E-32
2.16797E-01 7.16747E-32
2.20404E-01 6.62145E-32
2.24032E-01 6.06400E-32
2.27680E-01 5.50613E-32
2.31350E-01 4.95741E-32
2.35040E-01 4.42587E-32
2.38751E-01 3.91804E-32
2.42481E-01 3.43900E-32
2.46231E-01 2.99246E-32
2.50000E-01 2.58090E-32
2.53788E-01 2.20569E-32
2.57595E-01 1.86728E-32
2.61421E-01 1.56526E-32
2.65264E-01 1.29861E-32
2.69126E-01 1.06573E-32
2.73005E-01 8.64644E-33
2.76901E-01 6.93085E-33
2.80814E-01 5.48585E-33
2.84744E-01 4.28579E-33
2.88691E-01 3.30471E-33
2.92653E-01 2.51701E-33
2.96632E-01 1.89790E-33
3.00625E-01 1.42382E-33
3.04634E-01 1.07271E-33
3.08658E-01 8.24242E-34
3.12697E-01 6.59908E-34
3.16749E-01 5.63105E-34
3.20816E-01 5.19131E-34
3.24896E-01 5.15146E-34
3.28990E-01 5.40102E-34
3.33097E-01 5.84635E-34
3.37216E-01 6.40954E-34
3.41348E-01 7.02697E-34
3.45492E-01 7.64798E-34
3.49647E-01 8.23346E-34
3.53814E-01 8.75434E-34
3.57992E-01 9.19030E-34
3.62181E-01 9.52839E-34
3.66381E-01 9.76195E-34
3.70590E-01 9.88928E-34
3.74810E-01 9.91276E-34
3.79039E-01 9.83795E-34
3.83277E-01 9.67265E-34
3.87524E-01 9.42633E-34
3.91780E-01 9.10949E-34
3.96044E-01 8.73312E-34
4.00316E-01 8.30834E-34
4.04596E-01 7.84605E-34
4.08882E-01 7.35661E-34
4.13176E-01 6.84975E-34
4.17476E-01 6.33433E-34
4.21783E-01 5.81833E-34
4.26095E-01 5.30870E-34
4.30413E-01 4.81147E-34
4.34737E-01 4.33165E-34
4.39065E-01 3.87334E-34
4.43398E-01 3.43972E-34
4.47736E-01 3.03318E-34
4.52077E-01 2.65533E-34
4.56422E-01 2.30712E-34
4.60770E-01 1.98892E-34
4.65122E-01 1.70054E-34
4.69476E-01 1.44140E-34
4.73832E-01 1.21054E-34
4.78190E-01 1.00670E-34
4.82550E-01 8.28411E-35
4.86912E-01 6.74035E-35
4.91274E-01 5.41803E-35
4.95637E-01 4.29900E-35
5.00000E-01 3.36477E-35
5.04363E-01 2.59689E-35
5.08726E-01 1.97735E-35
5.13088E-01 1.48874E-35
5.17450E-01 1.11445E-35
5.21810E-01 8.38854E-36
5.26168E-01 6.47302E-36
5.30524E-01 5.26353E-36
5.34878E-01 4.63689E-36
5.39230E-01 4.48167E-36
5.43578E-01 4.69820E-36
5.47923E-01 5.19818E-36
5.52264E-01 5.90423E-36
5.56602E-01 6.74931E-36
5.60935E-01 7.67625E-36
5.65263E-01 8.63688E-36
5.69587E-01 9.59145E-36
5.73905E-01 1.05076E-35
5.78217E-01 1.13600E-35
5.82524E-01 1.21294E-35
5.86824E-01 1.28018E-35
5.91118E-01 1.33677E-35
5.95404E-01 1.38221E-35
5.99684E-01 1.41631E-35
6.03956E-01 1.43916E-35
6.08220E-01 1.45110E-35
6.12476E-01 1.45264E-35
6.16723E-01 1.44444E-35
6.20961E-01 1.42730E-35
6.25190E-01 1.40201E-35
6.29410E-01 1.36949E-35
6.33619E-01 1.33063E-35
6.37819E-01 1.28636E-35
6.42008E-01 1.23754E-35
6.46186E-01 1.18505E-35
6.50353E-01 1.12971E-35
6.54508E-01 1.07226E-35
6.58652E-01 1.01344E-35
6.62784E-01 9.53912E-36
6.66903E-01 8.94273E-36
6.71010E-01 8.35018E-36
6.75104E-01 7.76638E-36
6.79184E-01 7.19526E-36
6.83251E-01 6.64036E-36
6.87303E-01 6.10447E-36
6.91342E-01 5.59015E-36
6.95366E-01 5.09901E-36
6.99375E-01 4.63277E-36
7.03368E-01 4.19225E-36
7.07347E-01 3.77807E-36
7.11309E-01 3.39046E-36
7.15256E-01 3.02951E-36
7.19186E-01 2.69491E-36
7.23099E-01 2.38616E-36
7.26995E-01 2.10254E-36
7.30874E-01 1.84331E-36
7.34736E-01 1.60734E-36
7.38579E-01 1.39375E-36
7.42405E-01 1.20122E-36
7.46212E-01 1.02864E-36
7.50000E-01 8.74792E-37
7.53769E-01 7.38340E-37
7.57519E-01 6.18148E-37
7.61249E-01 5.12928E-37
7.64960E-01 4.21531E-37
7.68650E-01 3.42648E-37
7.72320E-01 2.75299E-37
7.75968E-01 2.18310E-37
7.79596E-01 1.70679E-37
7.83203E-01 1.31435E-37
7.86788E-01 9.96136E-38
7.90351E-01 7.44093E-38
7.93893E-01 5.49969E-38
7.97411E-01 4.06200E-38
8.00908E-01 3.06260E-38
8.04381E-01 2.43677E-38
8.07831E-01 2.12776E-38
8.11257E-01 2.08384E-38
8.14660E-01 2.25823E-38
8.18039E-01 2.60918E-38
8.21394E-01 3.09833E-38
8.24724E-01 3.69520E-38
8.28030E-01 4.36725E-38
8.31310E-01 5.09183E-38
8.34565E-01 5.84553E-38
8.37795E-01 6.61011E-38
8.40999E-01 7.36946E-38
8.44177E-01 8.11125E-38
8.47329E-01 8.82198E-38
8.50455E-01 9.49454E-38
8.53553E-01 1.01228E-37
8.56625E-01 1.07004E-37
8.59670E-01 1.12237E-37
8.62687E-01 1.16896E-37
8.65677E-01 1.20965E-37
8.68639E-01 1.24459E-37
8.71572E-01 1.27361E-37
8.74478E-01 1.29679E-37
8.77355E-01 1.31443E-37
8.80203E-01 1.32682E-37
8.83022E-01 1.33400E-37
8.85812E-01 1.33621E-37
8.88573E-01 1.33403E-37
8.91304E-01 1.32737E-37
8.94005E-01 1.31683E-37
8.96677E-01 1.30256E-37
8.99318E-01 1.28490E-37
9.01928E-01 1.26454E-37
9.04508E-01 1.24130E-37
9.07058E-01 1.21581E-37
9.09576E-01 1.18811E-37
9.12063E-01 1.15880E-37
9.14519E-01 1.12783E-37
9.16943E-01 1.09572E-37
9.19335E-01 1.06249E-37
9.21696E-01 1.02856E-37
9.24024E-01 9.93975E-38
9.26320E-01 9.59034E-38
9.28584E-01 9.24016E-38
9.30815E-01 8.88778E-38
9.33013E-01 8.53757E-38
9.35178E-01 8.18944E-38
9.37310E-01 7.84492E-38
9.39409E-01 7.50402E-38
9.41474E-01 7.17048E-38
9.43505E-01 6.84248E-38
9.45503E-01 6.52172E-38
9.47467E-01 6.20618E-38
9.49397E-01 5.90196E-38
9.51293E-01 5.60239E-38
9.53154E-01 5.31423E-38
9.54981E-01 5.03454E-38
9.56773E-01 4.76319E-38
9.58530E-01 4.50190E-38
9.60252E-01 4.24919E-38
9.61940E-01 4.00668E-38
9.63592E-01 3.77278E-38
9.65209E-01 3.54726E-38
9.66790E-01 3.33359E-38
9.68336E-01 3.12885E-38
9.69846E-01 2.93134E-38
9.71321E-01 2.74333E-38
9.72759E-01 2.56446E-38
9.74162E-01 2.39341E-38
9.75528E-01 2.23202E-38
9.76858E-01 2.07734E-38
9.78152E-01 1.93107E-38
9.79410E-01 1.79141E-38
9.80631E-01 1.66113E-38
9.81815E-01 1.53487E-38
9.82963E-01 1.41712E-38
9.84074E-01 1.30578E-38
9.85148E-01 1.20176E-38
9.86185E-01 1.10118E-38
9.87185E-01 1.00890E-38
9.88148E-01 9.20034E-39
9.89074E-01 8.37629E-39
9.89962E-01 7.60216E-39
9.90814E-01 6.86440E-39
9.91627E-01 6.18986E-39
9.92404E-01 5.55319E-39
9.93143E-01 4.95494E-39
9.93844E-01 4.40496E-39
9.94508E-01 3.88688E-39
9.95134E-01 3.41318E-39
9.95722E-01 2.97192E-39
9.96273E-01 2.56880E-39
9.96786E-01 2.19295E-39
9.97261E-01 1.85453E-39
9.97698E-01 1.54816E-39
9.98097E-01 1.27303E-39
9.98459E-01 1.02248E-39
9.98782E-01 8.05414E-40
9.99067E-01 6.14348E-40
9.99315E-01 4.50366E-40
9.99524E-01 3.11958E-40
9.99695E-01 1.97250E-40
9.99829E-01 1.10195E-40
9.99924E-01 5.17202E-41
9.99981E-01 1.40555E-41
1.00000E+00 2.34754E-42
