 #
 # Subroutine ELSEPA. Elastic scattering of electrons and positrons
 #                    by neutral atoms and positive ions
 #
 # Projectile: positron
 # Kinetic energy = 3.50000E+06 eV = 1.28623E+05 a.u.
 #
 # WARNING: High-energy factorization with free-atom DF screening.
 #          Absorption, polarization and exchange corrections are
 #          switched off.
 #          Phase shifts are calculated for the bare nucleus.
 #          Scattering amplitudes are not evaluated.
 #
 # Element: Nb,  Z =  41,  atomic weight = 9.29064E+01 g/mol
 #
 # Nuclear model: Fermi distribution
 #                Average radius = 4.84617E-13 cm
 #                Skin thickness = 5.46000E-14 cm
 #
 # Number of electrons = 41
 #
 # Total elastic cross section = 4.04772E-18 cm**2 = 1.44547E-01 a0**2
 # 1st transport cross section = 1.34486E-22 cm**2 = 4.80259E-06 a0**2
 # 2nd transport cross section = 3.86053E-22 cm**2 = 1.37862E-05 a0**2
 #
 #
 # Differential cross section:                       MU=(1-COS(THETA))/2
 #
 #  THETA        MU          DCS          DCS        Sherman      error
 #  (deg)                 (cm**2/sr)   (a0**2/sr)    function
 #----------------------------------------------------------------------
0.00000E+00 6.92134E-13
7.61557E-13 6.92130E-13
1.18994E-12 6.92128E-13
1.71346E-12 6.92125E-13
2.33225E-12 6.92122E-13
3.04617E-12 6.92118E-13
3.85530E-12 6.92114E-13
4.75964E-12 6.92109E-13
5.75917E-12 6.92104E-13
6.85391E-12 6.92099E-13
8.04379E-12 6.92093E-13
9.32893E-12 6.92086E-13
1.07092E-11 6.92080E-13
1.21847E-11 6.92072E-13
1.37554E-11 6.92064E-13
1.54213E-11 6.92056E-13
1.71823E-11 6.92047E-13
1.90386E-11 6.92038E-13
2.09900E-11 6.92028E-13
2.30367E-11 6.92018E-13
2.51785E-11 6.92008E-13
2.74156E-11 6.91997E-13
2.97478E-11 6.91985E-13
3.21752E-11 6.91973E-13
3.46979E-11 6.91961E-13
3.73157E-11 6.91948E-13
4.00286E-11 6.91934E-13
4.28368E-11 6.91921E-13
4.57402E-11 6.91906E-13
4.87388E-11 6.91892E-13
5.18325E-11 6.91876E-13
5.50215E-11 6.91861E-13
5.83057E-11 6.91844E-13
6.16850E-11 6.91828E-13
6.51595E-11 6.91811E-13
6.87293E-11 6.91793E-13
7.23943E-11 6.91775E-13
7.61544E-11 6.91757E-13
1.18991E-10 6.91547E-13
1.71347E-10 6.91291E-13
2.33223E-10 6.90989E-13
3.04617E-10 6.90641E-13
3.85531E-10 6.90247E-13
4.75965E-10 6.89808E-13
5.75917E-10 6.89323E-13
6.85389E-10 6.88793E-13
8.04380E-10 6.88217E-13
9.32891E-10 6.87597E-13
1.07092E-09 6.86932E-13
1.21847E-09 6.86222E-13
1.37554E-09 6.85469E-13
1.54213E-09 6.84671E-13
1.71823E-09 6.83829E-13
1.90386E-09 6.82944E-13
2.09900E-09 6.82015E-13
2.30367E-09 6.81044E-13
2.51785E-09 6.80030E-13
2.74156E-09 6.78974E-13
2.97478E-09 6.77877E-13
3.21752E-09 6.76737E-13
3.46978E-09 6.75557E-13
3.73156E-09 6.74335E-13
4.00286E-09 6.73074E-13
4.28368E-09 6.71772E-13
4.57402E-09 6.70431E-13
4.87388E-09 6.69051E-13
5.18326E-09 6.67632E-13
5.50215E-09 6.66175E-13
5.83057E-09 6.64680E-13
6.16850E-09 6.63148E-13
6.51596E-09 6.61579E-13
6.87293E-09 6.59974E-13
7.23942E-09 6.58333E-13
7.61544E-09 6.56657E-13
1.18991E-08 6.38071E-13
1.71347E-08 6.16550E-13
2.33223E-08 5.92717E-13
3.04617E-08 5.67135E-13
3.85531E-08 5.40396E-13
4.75965E-08 5.13048E-13
5.75917E-08 4.85562E-13
6.85389E-08 4.58303E-13
8.04380E-08 4.31644E-13
9.32891E-08 4.05845E-13
1.07092E-07 3.81075E-13
1.21847E-07 3.57458E-13
1.37554E-07 3.35106E-13
1.54213E-07 3.14057E-13
1.71823E-07 2.94272E-13
1.90386E-07 2.75763E-13
2.09900E-07 2.58503E-13
2.30367E-07 2.42430E-13
2.51785E-07 2.27441E-13
2.74156E-07 2.13520E-13
2.97478E-07 2.00601E-13
3.21752E-07 1.88581E-13
3.46978E-07 1.77399E-13
3.73156E-07 1.67020E-13
4.00286E-07 1.57383E-13
4.28368E-07 1.48377E-13
4.57402E-07 1.39998E-13
4.87388E-07 1.32203E-13
5.18325E-07 1.24931E-13
5.50215E-07 1.18117E-13
5.83057E-07 1.11762E-13
6.16850E-07 1.05830E-13
6.51596E-07 1.00259E-13
6.87293E-07 9.50343E-14
7.23942E-07 9.01452E-14
7.61543E-07 8.55657E-14
1.18991E-06 5.21101E-14
1.71347E-06 3.27643E-14
2.33223E-06 2.18195E-14
3.04617E-06 1.49174E-14
3.85531E-06 1.05905E-14
4.75964E-06 7.77901E-15
5.75916E-06 5.87929E-15
6.85388E-06 4.53687E-15
8.04378E-06 3.57525E-15
9.32888E-06 2.86604E-15
1.07092E-05 2.32483E-15
1.21846E-05 1.90305E-15
1.37553E-05 1.57307E-15
1.54212E-05 1.31091E-15
1.71822E-05 1.09710E-15
1.90385E-05 9.23723E-16
2.09899E-05 7.82814E-16
2.30365E-05 6.66696E-16
2.51783E-05 5.69895E-16
2.74153E-05 4.89706E-16
2.97475E-05 4.22846E-16
3.21749E-05 3.66613E-16
3.46974E-05 3.19275E-16
3.73152E-05 2.79297E-16
4.00281E-05 2.45334E-16
4.28362E-05 2.16312E-16
4.57395E-05 1.91493E-16
4.87380E-05 1.70168E-16
5.18317E-05 1.51754E-16
5.50205E-05 1.35778E-16
5.83045E-05 1.21883E-16
6.16838E-05 1.09751E-16
6.51582E-05 9.91063E-17
6.87277E-05 8.97397E-17
7.23925E-05 8.14738E-17
7.61524E-05 7.41542E-17
9.21439E-05 5.20129E-17
1.09658E-04 3.76189E-17
1.28695E-04 2.78975E-17
1.49255E-04 2.11113E-17
1.71338E-04 1.62700E-17
1.94942E-04 1.27280E-17
2.20070E-04 1.00971E-17
2.46720E-04 8.10864E-18
2.74892E-04 6.57928E-18
3.04586E-04 5.39222E-18
3.35803E-04 4.46005E-18
3.68542E-04 3.71974E-18
4.02802E-04 3.12541E-18
4.38585E-04 2.64497E-18
4.75889E-04 2.25323E-18
5.14715E-04 1.93107E-18
5.55063E-04 1.66432E-18
5.96931E-04 1.44208E-18
6.40321E-04 1.25572E-18
6.85233E-04 1.09842E-18
7.31665E-04 9.65001E-19
7.79618E-04 8.51259E-19
8.29092E-04 7.53787E-19
8.80086E-04 6.69853E-19
9.32601E-04 5.97296E-19
9.86636E-04 5.34311E-19
1.04219E-03 4.79402E-19
1.09927E-03 4.31366E-19
1.15786E-03 3.89204E-19
1.21797E-03 3.52071E-19
1.27961E-03 3.19250E-19
1.34276E-03 2.90167E-19
1.40743E-03 2.64322E-19
1.47362E-03 2.41288E-19
1.54133E-03 2.20703E-19
1.61056E-03 2.02267E-19
1.68131E-03 1.85714E-19
1.75357E-03 1.70816E-19
1.82735E-03 1.57379E-19
1.90265E-03 1.45237E-19
1.97947E-03 1.34241E-19
2.05780E-03 1.24262E-19
2.13765E-03 1.15192E-19
2.21902E-03 1.06933E-19
2.30190E-03 9.93987E-20
2.38630E-03 9.25139E-20
2.47222E-03 8.62138E-20
2.55965E-03 8.04398E-20
2.64859E-03 7.51387E-20
2.73905E-03 7.02659E-20
2.83103E-03 6.57808E-20
2.92452E-03 6.16466E-20
3.01952E-03 5.78305E-20
3.11604E-03 5.43043E-20
3.21407E-03 5.10420E-20
3.31362E-03 4.80198E-20
3.41468E-03 4.52171E-20
3.51725E-03 4.26152E-20
3.62133E-03 4.01972E-20
3.72692E-03 3.79471E-20
3.83403E-03 3.58518E-20
3.94265E-03 3.38986E-20
4.05278E-03 3.20760E-20
4.16442E-03 3.03736E-20
4.27757E-03 2.87822E-20
4.39223E-03 2.72933E-20
4.50840E-03 2.58988E-20
4.62608E-03 2.45919E-20
4.74527E-03 2.33660E-20
4.86597E-03 2.22153E-20
4.98817E-03 2.11340E-20
5.11188E-03 2.01175E-20
5.23711E-03 1.91611E-20
5.36383E-03 1.82606E-20
5.49207E-03 1.74120E-20
5.62181E-03 1.66120E-20
5.75306E-03 1.58571E-20
5.88581E-03 1.51444E-20
6.02007E-03 1.44711E-20
6.15583E-03 1.38346E-20
6.29310E-03 1.32325E-20
6.43187E-03 1.26627E-20
6.57214E-03 1.21230E-20
6.71392E-03 1.16117E-20
6.85720E-03 1.11268E-20
7.00198E-03 1.06669E-20
7.14827E-03 1.02303E-20
7.29605E-03 9.81578E-21
7.44534E-03 9.42187E-21
7.59612E-03 9.04742E-21
7.97965E-03 8.18914E-21
8.37255E-03 7.42973E-21
8.77480E-03 6.75587E-21
9.18641E-03 6.15629E-21
9.60736E-03 5.62140E-21
1.00376E-02 5.14305E-21
1.04773E-02 4.71422E-21
1.09262E-02 4.32891E-21
1.13844E-02 3.98194E-21
1.18520E-02 3.66884E-21
1.23288E-02 3.38574E-21
1.28150E-02 3.12926E-21
1.33104E-02 2.89646E-21
1.38150E-02 2.68477E-21
1.43290E-02 2.49195E-21
1.48521E-02 2.31602E-21
1.53845E-02 2.15525E-21
1.59262E-02 2.00810E-21
1.64770E-02 1.87321E-21
1.70371E-02 1.74937E-21
1.76063E-02 1.63554E-21
1.81848E-02 1.53075E-21
1.87724E-02 1.43416E-21
1.93692E-02 1.34502E-21
1.99751E-02 1.26264E-21
2.05901E-02 1.18643E-21
2.12143E-02 1.11584E-21
2.18476E-02 1.05038E-21
2.24900E-02 9.89621E-22
2.31415E-02 9.33154E-22
2.38021E-02 8.80627E-22
2.44717E-02 8.31715E-22
2.51504E-02 7.86124E-22
2.58382E-02 7.43589E-22
2.65349E-02 7.03870E-22
2.72407E-02 6.66745E-22
2.79555E-02 6.32015E-22
2.86793E-02 5.99498E-22
2.94120E-02 5.69027E-22
3.01537E-02 5.40451E-22
3.09043E-02 5.13631E-22
3.16639E-02 4.88439E-22
3.24324E-02 4.64759E-22
3.32098E-02 4.42483E-22
3.39961E-02 4.21514E-22
3.47912E-02 4.01761E-22
3.55952E-02 3.83141E-22
3.64081E-02 3.65576E-22
3.72297E-02 3.48997E-22
3.80602E-02 3.33338E-22
3.88995E-02 3.18539E-22
3.97476E-02 3.04544E-22
4.06044E-02 2.91302E-22
4.14700E-02 2.78764E-22
4.23443E-02 2.66886E-22
4.32273E-02 2.55628E-22
4.41190E-02 2.44951E-22
4.50194E-02 2.34820E-22
4.59284E-02 2.25201E-22
4.68461E-02 2.16065E-22
4.87074E-02 1.99127E-22
5.06030E-02 1.83799E-22
5.25328E-02 1.69901E-22
5.44967E-02 1.57279E-22
5.64946E-02 1.45794E-22
5.85262E-02 1.35327E-22
6.05914E-02 1.25771E-22
6.26901E-02 1.17034E-22
6.48222E-02 1.09033E-22
6.69873E-02 1.01697E-22
6.91854E-02 9.49588E-23
7.14163E-02 8.87627E-23
7.36799E-02 8.30572E-23
7.59760E-02 7.77967E-23
7.83043E-02 7.29405E-23
8.06647E-02 6.84521E-23
8.30571E-02 6.42988E-23
8.54812E-02 6.04512E-23
8.79369E-02 5.68830E-23
9.04240E-02 5.35702E-23
9.29422E-02 5.04914E-23
9.54915E-02 4.76272E-23
9.80716E-02 4.49601E-23
1.00682E-01 4.24741E-23
1.03323E-01 4.01547E-23
1.05995E-01 3.79889E-23
1.08696E-01 3.59647E-23
1.11427E-01 3.40711E-23
1.14188E-01 3.22984E-23
1.16978E-01 3.06374E-23
1.19797E-01 2.90799E-23
1.22645E-01 2.76183E-23
1.25522E-01 2.62456E-23
1.28428E-01 2.49555E-23
1.31361E-01 2.37422E-23
1.34323E-01 2.26002E-23
1.37313E-01 2.15247E-23
1.40330E-01 2.05111E-23
1.43375E-01 1.95553E-23
1.46447E-01 1.86532E-23
1.49545E-01 1.78015E-23
1.52671E-01 1.69967E-23
1.55823E-01 1.62359E-23
1.59001E-01 1.55162E-23
1.62205E-01 1.48350E-23
1.65435E-01 1.41900E-23
1.68690E-01 1.35787E-23
1.71970E-01 1.29992E-23
1.75276E-01 1.24496E-23
1.78606E-01 1.19279E-23
1.81961E-01 1.14325E-23
1.85340E-01 1.09620E-23
1.88743E-01 1.05147E-23
1.92169E-01 1.00895E-23
1.95619E-01 9.68487E-24
1.99092E-01 9.29980E-24
2.02589E-01 8.93313E-24
2.06107E-01 8.58383E-24
2.09649E-01 8.25093E-24
2.13212E-01 7.93353E-24
2.16797E-01 7.63077E-24
2.20404E-01 7.34187E-24
2.24032E-01 7.06608E-24
2.27680E-01 6.80270E-24
2.31350E-01 6.55109E-24
2.35040E-01 6.31061E-24
2.38751E-01 6.08070E-24
2.42481E-01 5.86081E-24
2.46231E-01 5.65041E-24
2.50000E-01 5.44904E-24
2.53788E-01 5.25623E-24
2.57595E-01 5.07156E-24
2.61421E-01 4.89463E-24
2.65264E-01 4.72505E-24
2.69126E-01 4.56247E-24
2.73005E-01 4.40655E-24
2.76901E-01 4.25697E-24
2.80814E-01 4.11343E-24
2.84744E-01 3.97563E-24
2.88691E-01 3.84332E-24
2.92653E-01 3.71622E-24
2.96632E-01 3.59411E-24
3.00625E-01 3.47675E-24
3.04634E-01 3.36393E-24
3.08658E-01 3.25544E-24
3.12697E-01 3.15108E-24
3.16749E-01 3.05068E-24
3.20816E-01 2.95406E-24
3.24896E-01 2.86104E-24
3.28990E-01 2.77148E-24
3.33097E-01 2.68521E-24
3.37216E-01 2.60210E-24
3.41348E-01 2.52202E-24
3.45492E-01 2.44483E-24
3.49647E-01 2.37041E-24
3.53814E-01 2.29865E-24
3.57992E-01 2.22943E-24
3.62181E-01 2.16265E-24
3.66381E-01 2.09821E-24
3.70590E-01 2.03602E-24
3.74810E-01 1.97597E-24
3.79039E-01 1.91799E-24
3.83277E-01 1.86199E-24
3.87524E-01 1.80789E-24
3.91780E-01 1.75562E-24
3.96044E-01 1.70510E-24
4.00316E-01 1.65626E-24
4.04596E-01 1.60905E-24
4.08882E-01 1.56340E-24
4.13176E-01 1.51924E-24
4.17476E-01 1.47652E-24
4.21783E-01 1.43519E-24
4.26095E-01 1.39519E-24
4.30413E-01 1.35647E-24
4.34737E-01 1.31898E-24
4.39065E-01 1.28269E-24
4.43398E-01 1.24754E-24
4.47736E-01 1.21349E-24
4.52077E-01 1.18050E-24
4.56422E-01 1.14854E-24
4.60770E-01 1.11756E-24
4.65122E-01 1.08754E-24
4.69476E-01 1.05843E-24
4.73832E-01 1.03021E-24
4.78190E-01 1.00284E-24
4.82550E-01 9.76289E-25
4.86912E-01 9.50535E-25
4.91274E-01 9.25548E-25
4.95637E-01 9.01301E-25
5.00000E-01 8.77769E-25
5.04363E-01 8.54927E-25
5.08726E-01 8.32753E-25
5.13088E-01 8.11223E-25
5.17450E-01 7.90315E-25
5.21810E-01 7.70009E-25
5.26168E-01 7.50284E-25
5.30524E-01 7.31121E-25
5.34878E-01 7.12501E-25
5.39230E-01 6.94406E-25
5.43578E-01 6.76820E-25
5.47923E-01 6.59726E-25
5.52264E-01 6.43108E-25
5.56602E-01 6.26951E-25
5.60935E-01 6.11240E-25
5.65263E-01 5.95961E-25
5.69587E-01 5.81100E-25
5.73905E-01 5.66643E-25
5.78217E-01 5.52579E-25
5.82524E-01 5.38894E-25
5.86824E-01 5.25577E-25
5.91118E-01 5.12616E-25
5.95404E-01 5.00001E-25
5.99684E-01 4.87720E-25
6.03956E-01 4.75764E-25
6.08220E-01 4.64124E-25
6.12476E-01 4.52788E-25
6.16723E-01 4.41749E-25
6.20961E-01 4.30998E-25
6.25190E-01 4.20526E-25
6.29410E-01 4.10323E-25
6.33619E-01 4.00383E-25
6.37819E-01 3.90697E-25
6.42008E-01 3.81258E-25
6.46186E-01 3.72058E-25
6.50353E-01 3.63091E-25
6.54508E-01 3.54351E-25
6.58652E-01 3.45831E-25
6.62784E-01 3.37525E-25
6.66903E-01 3.29427E-25
6.71010E-01 3.21530E-25
6.75104E-01 3.13829E-25
6.79184E-01 3.06317E-25
6.83251E-01 2.98990E-25
6.87303E-01 2.91843E-25
6.91342E-01 2.84871E-25
6.95366E-01 2.78068E-25
6.99375E-01 2.71431E-25
7.03368E-01 2.64955E-25
7.07347E-01 2.58635E-25
7.11309E-01 2.52467E-25
7.15256E-01 2.46447E-25
7.19186E-01 2.40572E-25
7.23099E-01 2.34836E-25
7.26995E-01 2.29237E-25
7.30874E-01 2.23771E-25
7.34736E-01 2.18434E-25
7.38579E-01 2.13222E-25
7.42405E-01 2.08133E-25
7.46212E-01 2.03164E-25
7.50000E-01 1.98310E-25
7.53769E-01 1.93570E-25
7.57519E-01 1.88940E-25
7.61249E-01 1.84418E-25
7.64960E-01 1.80000E-25
7.68650E-01 1.75685E-25
7.72320E-01 1.71469E-25
7.75968E-01 1.67350E-25
7.79596E-01 1.63325E-25
7.83203E-01 1.59393E-25
7.86788E-01 1.55551E-25
7.90351E-01 1.51796E-25
7.93893E-01 1.48127E-25
7.97411E-01 1.44541E-25
8.00908E-01 1.41037E-25
8.04381E-01 1.37611E-25
8.07831E-01 1.34264E-25
8.11257E-01 1.30992E-25
8.14660E-01 1.27793E-25
8.18039E-01 1.24667E-25
8.21394E-01 1.21611E-25
8.24724E-01 1.18624E-25
8.28030E-01 1.15704E-25
8.31310E-01 1.12849E-25
8.34565E-01 1.10058E-25
8.37795E-01 1.07330E-25
8.40999E-01 1.04663E-25
8.44177E-01 1.02055E-25
8.47329E-01 9.95057E-26
8.50455E-01 9.70133E-26
8.53553E-01 9.45766E-26
8.56625E-01 9.21942E-26
8.59670E-01 8.98650E-26
8.62687E-01 8.75879E-26
8.65677E-01 8.53616E-26
8.68639E-01 8.31850E-26
8.71572E-01 8.10571E-26
8.74478E-01 7.89769E-26
8.77355E-01 7.69432E-26
8.80203E-01 7.49551E-26
8.83022E-01 7.30116E-26
8.85812E-01 7.11118E-26
8.88573E-01 6.92547E-26
8.91304E-01 6.74395E-26
8.94005E-01 6.56653E-26
8.96677E-01 6.39313E-26
8.99318E-01 6.22365E-26
9.01928E-01 6.05803E-26
9.04508E-01 5.89618E-26
9.07058E-01 5.73803E-26
9.09576E-01 5.58350E-26
9.12063E-01 5.43253E-26
9.14519E-01 5.28504E-26
9.16943E-01 5.14097E-26
9.19335E-01 5.00024E-26
9.21696E-01 4.86280E-26
9.24024E-01 4.72859E-26
9.26320E-01 4.59754E-26
9.28584E-01 4.46959E-26
9.30815E-01 4.34469E-26
9.33013E-01 4.22278E-26
9.35178E-01 4.10381E-26
9.37310E-01 3.98772E-26
9.39409E-01 3.87447E-26
9.41474E-01 3.76400E-26
9.43505E-01 3.65626E-26
9.45503E-01 3.55122E-26
9.47467E-01 3.44882E-26
9.49397E-01 3.34902E-26
9.51293E-01 3.25177E-26
9.53154E-01 3.15704E-26
9.54981E-01 3.06478E-26
9.56773E-01 2.97496E-26
9.58530E-01 2.88753E-26
9.60252E-01 2.80246E-26
9.61940E-01 2.71971E-26
9.63592E-01 2.63926E-26
9.65209E-01 2.56106E-26
9.66790E-01 2.48508E-26
9.68336E-01 2.41129E-26
9.69846E-01 2.33966E-26
9.71321E-01 2.27016E-26
9.72759E-01 2.20276E-26
9.74162E-01 2.13743E-26
9.75528E-01 2.07415E-26
9.76858E-01 2.01289E-26
9.78152E-01 1.95363E-26
9.79410E-01 1.89634E-26
9.80631E-01 1.84099E-26
9.81815E-01 1.78757E-26
9.82963E-01 1.73606E-26
9.84074E-01 1.68643E-26
9.85148E-01 1.63866E-26
9.86185E-01 1.59273E-26
9.87185E-01 1.54863E-26
9.88148E-01 1.50634E-26
9.89074E-01 1.46584E-26
9.89962E-01 1.42711E-26
9.90814E-01 1.39014E-26
9.91627E-01 1.35491E-26
9.92404E-01 1.32142E-26
9.93143E-01 1.28964E-26
9.93844E-01 1.25957E-26
9.94508E-01 1.23119E-26
9.95134E-01 1.20449E-26
9.95722E-01 1.17946E-26
9.96273E-01 1.15609E-26
9.96786E-01 1.13437E-26
9.97261E-01 1.11429E-26
9.97698E-01 1.09585E-26
9.98097E-01 1.07904E-26
9.98459E-01 1.06385E-26
9.98782E-01 1.05027E-26
9.99067E-01 1.03831E-26
9.99315E-01 1.02794E-26
9.99524E-01 1.01918E-26
9.99695E-01 1.01202E-26
9.99829E-01 1.00645E-26
9.99924E-01 1.00248E-26
9.99981E-01 1.00009E-26
1.00000E+00 9.99296E-27
