 #
 # Subroutine ELSEPA. Elastic scattering of electrons and positrons
 #                    by neutral atoms and positive ions
 #
 # Projectile: positron
 # Kinetic energy = 7.00000E+06 eV = 2.57245E+05 a.u.
 #
 # WARNING: High-energy factorization with free-atom DF screening.
 #          Absorption, polarization and exchange corrections are
 #          switched off.
 #          Phase shifts are calculated for the bare nucleus.
 #          Scattering amplitudes are not evaluated.
 #
 # Element: Nb,  Z =  41,  atomic weight = 9.29064E+01 g/mol
 #
 # Nuclear model: Fermi distribution
 #                Average radius = 4.84617E-13 cm
 #                Skin thickness = 5.46000E-14 cm
 #
 # Number of electrons = 41
 #
 # Total elastic cross section = 4.00402E-18 cm**2 = 1.42986E-01 a0**2
 # 1st transport cross section = 4.23141E-23 cm**2 = 1.51107E-06 a0**2
 # 2nd transport cross section = 1.22195E-22 cm**2 = 4.36366E-06 a0**2
 #
 #
 # Differential cross section:                       MU=(1-COS(THETA))/2
 #
 #  THETA        MU          DCS          DCS        Sherman      error
 #  (deg)                 (cm**2/sr)   (a0**2/sr)    function
 #----------------------------------------------------------------------
0.00000E+00 2.42706E-12
7.61557E-13 2.42701E-12
1.18994E-12 2.42698E-12
1.71346E-12 2.42695E-12
2.33225E-12 2.42691E-12
3.04617E-12 2.42687E-12
3.85530E-12 2.42682E-12
4.75964E-12 2.42676E-12
5.75917E-12 2.42670E-12
6.85391E-12 2.42664E-12
8.04379E-12 2.42656E-12
9.32893E-12 2.42648E-12
1.07092E-11 2.42640E-12
1.21847E-11 2.42631E-12
1.37554E-11 2.42621E-12
1.54213E-11 2.42611E-12
1.71823E-11 2.42601E-12
1.90386E-11 2.42589E-12
2.09900E-11 2.42577E-12
2.30367E-11 2.42565E-12
2.51785E-11 2.42552E-12
2.74156E-11 2.42538E-12
2.97478E-11 2.42524E-12
3.21752E-11 2.42509E-12
3.46979E-11 2.42494E-12
3.73157E-11 2.42478E-12
4.00286E-11 2.42462E-12
4.28368E-11 2.42444E-12
4.57402E-11 2.42427E-12
4.87388E-11 2.42409E-12
5.18325E-11 2.42390E-12
5.50215E-11 2.42371E-12
5.83057E-11 2.42351E-12
6.16850E-11 2.42330E-12
6.51595E-11 2.42309E-12
6.87293E-11 2.42287E-12
7.23943E-11 2.42265E-12
7.61544E-11 2.42243E-12
1.18991E-10 2.41984E-12
1.71347E-10 2.41668E-12
2.33223E-10 2.41296E-12
3.04617E-10 2.40868E-12
3.85531E-10 2.40384E-12
4.75965E-10 2.39846E-12
5.75917E-10 2.39254E-12
6.85389E-10 2.38608E-12
8.04380E-10 2.37910E-12
9.32891E-10 2.37160E-12
1.07092E-09 2.36358E-12
1.21847E-09 2.35507E-12
1.37554E-09 2.34606E-12
1.54213E-09 2.33658E-12
1.71823E-09 2.32662E-12
1.90386E-09 2.31621E-12
2.09900E-09 2.30535E-12
2.30367E-09 2.29405E-12
2.51785E-09 2.28233E-12
2.74156E-09 2.27020E-12
2.97478E-09 2.25767E-12
3.21752E-09 2.24475E-12
3.46978E-09 2.23147E-12
3.73156E-09 2.21782E-12
4.00286E-09 2.20384E-12
4.28368E-09 2.18950E-12
4.57402E-09 2.17485E-12
4.87388E-09 2.15990E-12
5.18326E-09 2.14467E-12
5.50215E-09 2.12918E-12
5.83057E-09 2.11343E-12
6.16850E-09 2.09744E-12
6.51596E-09 2.08121E-12
6.87293E-09 2.06473E-12
7.23942E-09 2.04806E-12
7.61544E-09 2.03120E-12
1.18991E-08 1.85519E-12
1.71347E-08 1.67381E-12
2.33223E-08 1.49674E-12
3.04617E-08 1.33061E-12
3.85531E-08 1.17886E-12
4.75965E-08 1.04308E-12
5.75917E-08 9.23215E-13
6.85389E-08 8.18042E-13
8.04380E-08 7.26385E-13
9.32891E-08 6.46565E-13
1.07092E-07 5.76936E-13
1.21847E-07 5.16266E-13
1.37554E-07 4.63126E-13
1.54213E-07 4.16484E-13
1.71823E-07 3.75506E-13
1.90386E-07 3.39216E-13
2.09900E-07 3.07110E-13
2.30367E-07 2.78625E-13
2.51785E-07 2.53169E-13
2.74156E-07 2.30484E-13
2.97478E-07 2.10172E-13
3.21752E-07 1.91926E-13
3.46978E-07 1.75560E-13
3.73156E-07 1.60802E-13
4.00286E-07 1.47496E-13
4.28368E-07 1.34922E-13
4.57402E-07 1.23572E-13
4.87388E-07 1.13551E-13
5.18325E-07 1.04673E-13
5.50215E-07 9.67837E-14
5.83057E-07 8.97498E-14
6.16850E-07 8.34600E-14
6.51596E-07 7.75295E-14
6.87293E-07 7.17797E-14
7.23942E-07 6.66194E-14
7.61543E-07 6.19762E-14
1.18991E-06 3.25727E-14
1.71347E-06 1.90243E-14
2.33223E-06 1.20295E-14
3.04617E-06 8.04998E-15
3.85531E-06 5.57259E-15
4.75964E-06 3.96292E-15
5.75916E-06 2.88042E-15
6.85388E-06 2.12778E-15
8.04378E-06 1.60031E-15
9.32888E-06 1.22324E-15
1.07092E-05 9.49182E-16
1.21846E-05 7.47337E-16
1.37553E-05 5.96516E-16
1.54212E-05 4.82223E-16
1.71822E-05 3.94386E-16
1.90385E-05 3.25809E-16
2.09899E-05 2.71808E-16
2.30365E-05 2.28679E-16
2.51783E-05 1.93843E-16
2.74153E-05 1.65467E-16
2.97475E-05 1.42141E-16
3.21749E-05 1.22806E-16
3.46974E-05 1.06670E-16
3.73152E-05 9.31001E-17
4.00281E-05 8.16219E-17
4.28362E-05 7.18183E-17
4.57395E-05 6.34594E-17
4.87380E-05 5.63167E-17
5.18317E-05 5.01000E-17
5.50205E-05 4.47186E-17
5.83045E-05 4.00590E-17
6.16838E-05 3.59561E-17
6.51582E-05 3.23694E-17
6.87277E-05 2.92295E-17
7.23925E-05 2.64402E-17
7.61524E-05 2.39798E-17
9.21439E-05 1.65771E-17
1.09658E-04 1.18049E-17
1.28695E-04 8.62939E-18
1.49255E-04 6.45083E-18
1.71338E-04 4.91745E-18
1.94942E-04 3.81380E-18
2.20070E-04 3.00310E-18
2.46720E-04 2.39693E-18
2.74892E-04 1.93640E-18
3.04586E-04 1.58139E-18
3.35803E-04 1.30417E-18
3.68542E-04 1.08517E-18
4.02802E-04 9.10253E-19
4.38585E-04 7.69207E-19
4.75889E-04 6.54446E-19
5.14715E-04 5.60288E-19
5.55063E-04 4.82466E-19
5.96931E-04 4.17679E-19
6.40321E-04 3.63396E-19
6.85233E-04 3.17643E-19
7.31665E-04 2.78852E-19
7.79618E-04 2.45797E-19
8.29092E-04 2.17488E-19
8.80086E-04 1.93130E-19
9.32601E-04 1.72081E-19
9.86636E-04 1.53816E-19
1.04219E-03 1.37905E-19
1.09927E-03 1.23994E-19
1.15786E-03 1.11789E-19
1.21797E-03 1.01045E-19
1.27961E-03 9.15576E-20
1.34276E-03 8.31544E-20
1.40743E-03 7.56909E-20
1.47362E-03 6.90439E-20
1.54133E-03 6.31081E-20
1.61056E-03 5.77950E-20
1.68131E-03 5.30276E-20
1.75357E-03 4.87401E-20
1.82735E-03 4.48760E-20
1.90265E-03 4.13860E-20
1.97947E-03 3.82276E-20
2.05780E-03 3.53640E-20
2.13765E-03 3.27624E-20
2.21902E-03 3.03951E-20
2.30190E-03 2.82369E-20
2.38630E-03 2.62663E-20
2.47222E-03 2.44640E-20
2.55965E-03 2.28131E-20
2.64859E-03 2.12987E-20
2.73905E-03 1.99074E-20
2.83103E-03 1.86275E-20
2.92452E-03 1.74484E-20
3.01952E-03 1.63608E-20
3.11604E-03 1.53563E-20
3.21407E-03 1.44275E-20
3.31362E-03 1.35675E-20
3.41468E-03 1.27704E-20
3.51725E-03 1.20308E-20
3.62133E-03 1.13438E-20
3.72692E-03 1.07049E-20
3.83403E-03 1.01102E-20
3.94265E-03 9.55604E-21
4.05278E-03 9.03919E-21
4.16442E-03 8.55665E-21
4.27757E-03 8.10580E-21
4.39223E-03 7.68409E-21
4.50840E-03 7.28936E-21
4.62608E-03 6.91953E-21
4.74527E-03 6.57278E-21
4.86597E-03 6.24738E-21
4.98817E-03 5.94178E-21
5.11188E-03 5.65456E-21
5.23711E-03 5.38441E-21
5.36383E-03 5.13013E-21
5.49207E-03 4.89062E-21
5.62181E-03 4.66486E-21
5.75306E-03 4.45192E-21
5.88581E-03 4.25094E-21
6.02007E-03 4.06112E-21
6.15583E-03 3.88173E-21
6.29310E-03 3.71208E-21
6.43187E-03 3.55156E-21
6.57214E-03 3.39959E-21
6.71392E-03 3.25562E-21
6.85720E-03 3.11915E-21
7.00198E-03 2.98972E-21
7.14827E-03 2.86691E-21
7.29605E-03 2.75030E-21
7.44534E-03 2.63954E-21
7.59612E-03 2.53426E-21
7.97965E-03 2.29304E-21
8.37255E-03 2.07972E-21
8.77480E-03 1.89051E-21
9.18641E-03 1.72223E-21
9.60736E-03 1.57218E-21
1.00376E-02 1.43803E-21
1.04773E-02 1.31781E-21
1.09262E-02 1.20983E-21
1.13844E-02 1.11263E-21
1.18520E-02 1.02494E-21
1.23288E-02 9.45674E-22
1.28150E-02 8.73880E-22
1.33104E-02 8.08731E-22
1.38150E-02 7.49505E-22
1.43290E-02 6.95571E-22
1.48521E-02 6.46371E-22
1.53845E-02 6.01418E-22
1.59262E-02 5.60281E-22
1.64770E-02 5.22579E-22
1.70371E-02 4.87974E-22
1.76063E-02 4.56168E-22
1.81848E-02 4.26894E-22
1.87724E-02 3.99914E-22
1.93692E-02 3.75018E-22
1.99751E-02 3.52015E-22
2.05901E-02 3.30736E-22
2.12143E-02 3.11029E-22
2.18476E-02 2.92758E-22
2.24900E-02 2.75798E-22
2.31415E-02 2.60040E-22
2.38021E-02 2.45382E-22
2.44717E-02 2.31735E-22
2.51504E-02 2.19015E-22
2.58382E-02 2.07149E-22
2.65349E-02 1.96070E-22
2.72407E-02 1.85715E-22
2.79555E-02 1.76029E-22
2.86793E-02 1.66961E-22
2.94120E-02 1.58464E-22
3.01537E-02 1.50496E-22
3.09043E-02 1.43019E-22
3.16639E-02 1.35996E-22
3.24324E-02 1.29394E-22
3.32098E-02 1.23185E-22
3.39961E-02 1.17340E-22
3.47912E-02 1.11835E-22
3.55952E-02 1.06645E-22
3.64081E-02 1.01750E-22
3.72297E-02 9.71305E-23
3.80602E-02 9.27673E-23
3.88995E-02 8.86438E-23
3.97476E-02 8.47446E-23
4.06044E-02 8.10552E-23
4.14700E-02 7.75623E-23
4.23443E-02 7.42535E-23
4.32273E-02 7.11175E-23
4.41190E-02 6.81434E-23
4.50194E-02 6.53216E-23
4.59284E-02 6.26427E-23
4.68461E-02 6.00982E-23
4.87074E-02 5.53811E-23
5.06030E-02 5.11129E-23
5.25328E-02 4.72434E-23
5.44967E-02 4.37291E-23
5.64946E-02 4.05319E-23
5.85262E-02 3.76181E-23
6.05914E-02 3.49583E-23
6.26901E-02 3.25266E-23
6.48222E-02 3.03000E-23
6.69873E-02 2.82583E-23
6.91854E-02 2.63835E-23
7.14163E-02 2.46595E-23
7.36799E-02 2.30721E-23
7.59760E-02 2.16086E-23
7.83043E-02 2.02577E-23
8.06647E-02 1.90092E-23
8.30571E-02 1.78540E-23
8.54812E-02 1.67839E-23
8.79369E-02 1.57915E-23
9.04240E-02 1.48703E-23
9.29422E-02 1.40142E-23
9.54915E-02 1.32178E-23
9.80716E-02 1.24763E-23
1.00682E-01 1.17851E-23
1.03323E-01 1.11404E-23
1.05995E-01 1.05384E-23
1.08696E-01 9.97572E-24
1.11427E-01 9.44943E-24
1.14188E-01 8.95676E-24
1.16978E-01 8.49519E-24
1.19797E-01 8.06240E-24
1.22645E-01 7.65626E-24
1.25522E-01 7.27487E-24
1.28428E-01 6.91645E-24
1.31361E-01 6.57940E-24
1.34323E-01 6.26219E-24
1.37313E-01 5.96345E-24
1.40330E-01 5.68192E-24
1.43375E-01 5.41645E-24
1.46447E-01 5.16596E-24
1.49545E-01 4.92945E-24
1.52671E-01 4.70599E-24
1.55823E-01 4.49474E-24
1.59001E-01 4.29494E-24
1.62205E-01 4.10585E-24
1.65435E-01 3.92679E-24
1.68690E-01 3.75712E-24
1.71970E-01 3.59628E-24
1.75276E-01 3.44374E-24
1.78606E-01 3.29899E-24
1.81961E-01 3.16154E-24
1.85340E-01 3.03096E-24
1.88743E-01 2.90689E-24
1.92169E-01 2.78892E-24
1.95619E-01 2.67668E-24
1.99092E-01 2.56987E-24
2.02589E-01 2.46817E-24
2.06107E-01 2.37130E-24
2.09649E-01 2.27899E-24
2.13212E-01 2.19097E-24
2.16797E-01 2.10703E-24
2.20404E-01 2.02694E-24
2.24032E-01 1.95049E-24
2.27680E-01 1.87748E-24
2.31350E-01 1.80774E-24
2.35040E-01 1.74109E-24
2.38751E-01 1.67738E-24
2.42481E-01 1.61644E-24
2.46231E-01 1.55815E-24
2.50000E-01 1.50235E-24
2.53788E-01 1.44894E-24
2.57595E-01 1.39779E-24
2.61421E-01 1.34878E-24
2.65264E-01 1.30182E-24
2.69126E-01 1.25679E-24
2.73005E-01 1.21362E-24
2.76901E-01 1.17220E-24
2.80814E-01 1.13246E-24
2.84744E-01 1.09431E-24
2.88691E-01 1.05769E-24
2.92653E-01 1.02251E-24
2.96632E-01 9.88715E-25
3.00625E-01 9.56239E-25
3.04634E-01 9.25021E-25
3.08658E-01 8.95004E-25
3.12697E-01 8.66134E-25
3.16749E-01 8.38360E-25
3.20816E-01 8.11634E-25
3.24896E-01 7.85908E-25
3.28990E-01 7.61139E-25
3.33097E-01 7.37285E-25
3.37216E-01 7.14307E-25
3.41348E-01 6.92167E-25
3.45492E-01 6.70830E-25
3.49647E-01 6.50261E-25
3.53814E-01 6.30428E-25
3.57992E-01 6.11301E-25
3.62181E-01 5.92849E-25
3.66381E-01 5.75045E-25
3.70590E-01 5.57863E-25
3.74810E-01 5.41277E-25
3.79039E-01 5.25262E-25
3.83277E-01 5.09797E-25
3.87524E-01 4.94858E-25
3.91780E-01 4.80426E-25
3.96044E-01 4.66479E-25
4.00316E-01 4.52999E-25
4.04596E-01 4.39968E-25
4.08882E-01 4.27368E-25
4.13176E-01 4.15183E-25
4.17476E-01 4.03396E-25
4.21783E-01 3.91993E-25
4.26095E-01 3.80958E-25
4.30413E-01 3.70279E-25
4.34737E-01 3.59941E-25
4.39065E-01 3.49933E-25
4.43398E-01 3.40241E-25
4.47736E-01 3.30854E-25
4.52077E-01 3.21761E-25
4.56422E-01 3.12951E-25
4.60770E-01 3.04414E-25
4.65122E-01 2.96141E-25
4.69476E-01 2.88121E-25
4.73832E-01 2.80346E-25
4.78190E-01 2.72806E-25
4.82550E-01 2.65495E-25
4.86912E-01 2.58403E-25
4.91274E-01 2.51523E-25
4.95637E-01 2.44847E-25
5.00000E-01 2.38369E-25
5.04363E-01 2.32082E-25
5.08726E-01 2.25980E-25
5.13088E-01 2.20055E-25
5.17450E-01 2.14303E-25
5.21810E-01 2.08716E-25
5.26168E-01 2.03290E-25
5.30524E-01 1.98020E-25
5.34878E-01 1.92900E-25
5.39230E-01 1.87925E-25
5.43578E-01 1.83090E-25
5.47923E-01 1.78391E-25
5.52264E-01 1.73824E-25
5.56602E-01 1.69384E-25
5.60935E-01 1.65067E-25
5.65263E-01 1.60870E-25
5.69587E-01 1.56787E-25
5.73905E-01 1.52817E-25
5.78217E-01 1.48954E-25
5.82524E-01 1.45197E-25
5.86824E-01 1.41541E-25
5.91118E-01 1.37983E-25
5.95404E-01 1.34521E-25
5.99684E-01 1.31151E-25
6.03956E-01 1.27870E-25
6.08220E-01 1.24677E-25
6.12476E-01 1.21568E-25
6.16723E-01 1.18540E-25
6.20961E-01 1.15592E-25
6.25190E-01 1.12720E-25
6.29410E-01 1.09923E-25
6.33619E-01 1.07198E-25
6.37819E-01 1.04544E-25
6.42008E-01 1.01957E-25
6.46186E-01 9.94370E-26
6.50353E-01 9.69809E-26
6.54508E-01 9.45871E-26
6.58652E-01 9.22539E-26
6.62784E-01 8.99794E-26
6.66903E-01 8.77621E-26
6.71010E-01 8.56003E-26
6.75104E-01 8.34923E-26
6.79184E-01 8.14368E-26
6.83251E-01 7.94322E-26
6.87303E-01 7.74770E-26
6.91342E-01 7.55699E-26
6.95366E-01 7.37097E-26
6.99375E-01 7.18949E-26
7.03368E-01 7.01243E-26
7.07347E-01 6.83967E-26
7.11309E-01 6.67110E-26
7.15256E-01 6.50659E-26
7.19186E-01 6.34605E-26
7.23099E-01 6.18936E-26
7.26995E-01 6.03642E-26
7.30874E-01 5.88713E-26
7.34736E-01 5.74139E-26
7.38579E-01 5.59911E-26
7.42405E-01 5.46020E-26
7.46212E-01 5.32456E-26
7.50000E-01 5.19212E-26
7.53769E-01 5.06279E-26
7.57519E-01 4.93649E-26
7.61249E-01 4.81315E-26
7.64960E-01 4.69267E-26
7.68650E-01 4.57500E-26
7.72320E-01 4.46006E-26
7.75968E-01 4.34778E-26
7.79596E-01 4.23810E-26
7.83203E-01 4.13095E-26
7.86788E-01 4.02626E-26
7.90351E-01 3.92397E-26
7.93893E-01 3.82403E-26
7.97411E-01 3.72638E-26
8.00908E-01 3.63096E-26
8.04381E-01 3.53771E-26
8.07831E-01 3.44659E-26
8.11257E-01 3.35754E-26
8.14660E-01 3.27051E-26
8.18039E-01 3.18546E-26
8.21394E-01 3.10233E-26
8.24724E-01 3.02108E-26
8.28030E-01 2.94167E-26
8.31310E-01 2.86405E-26
8.34565E-01 2.78818E-26
8.37795E-01 2.71402E-26
8.40999E-01 2.64153E-26
8.44177E-01 2.57067E-26
8.47329E-01 2.50141E-26
8.50455E-01 2.43370E-26
8.53553E-01 2.36752E-26
8.56625E-01 2.30282E-26
8.59670E-01 2.23958E-26
8.62687E-01 2.17776E-26
8.65677E-01 2.11733E-26
8.68639E-01 2.05826E-26
8.71572E-01 2.00051E-26
8.74478E-01 1.94407E-26
8.77355E-01 1.88890E-26
8.80203E-01 1.83498E-26
8.83022E-01 1.78227E-26
8.85812E-01 1.73076E-26
8.88573E-01 1.68041E-26
8.91304E-01 1.63120E-26
8.94005E-01 1.58311E-26
8.96677E-01 1.53612E-26
8.99318E-01 1.49020E-26
9.01928E-01 1.44532E-26
9.04508E-01 1.40148E-26
9.07058E-01 1.35864E-26
9.09576E-01 1.31680E-26
9.12063E-01 1.27592E-26
9.14519E-01 1.23598E-26
9.16943E-01 1.19698E-26
9.19335E-01 1.15889E-26
9.21696E-01 1.12170E-26
9.24024E-01 1.08538E-26
9.26320E-01 1.04992E-26
9.28584E-01 1.01531E-26
9.30815E-01 9.81526E-27
9.33013E-01 9.48554E-27
9.35178E-01 9.16382E-27
9.37310E-01 8.84993E-27
9.39409E-01 8.54374E-27
9.41474E-01 8.24511E-27
9.43505E-01 7.95392E-27
9.45503E-01 7.67002E-27
9.47467E-01 7.39330E-27
9.49397E-01 7.12364E-27
9.51293E-01 6.86091E-27
9.53154E-01 6.60500E-27
9.54981E-01 6.35580E-27
9.56773E-01 6.11320E-27
9.58530E-01 5.87710E-27
9.60252E-01 5.64739E-27
9.61940E-01 5.42398E-27
9.63592E-01 5.20677E-27
9.65209E-01 4.99567E-27
9.66790E-01 4.79059E-27
9.68336E-01 4.59144E-27
9.69846E-01 4.39813E-27
9.71321E-01 4.21059E-27
9.72759E-01 4.02874E-27
9.74162E-01 3.85249E-27
9.75528E-01 3.68178E-27
9.76858E-01 3.51654E-27
9.78152E-01 3.35669E-27
9.79410E-01 3.20217E-27
9.80631E-01 3.05292E-27
9.81815E-01 2.90887E-27
9.82963E-01 2.76996E-27
9.84074E-01 2.63614E-27
9.85148E-01 2.50736E-27
9.86185E-01 2.38355E-27
9.87185E-01 2.26467E-27
9.88148E-01 2.15067E-27
9.89074E-01 2.04150E-27
9.89962E-01 1.93712E-27
9.90814E-01 1.83748E-27
9.91627E-01 1.74256E-27
9.92404E-01 1.65229E-27
9.93143E-01 1.56666E-27
9.93844E-01 1.48563E-27
9.94508E-01 1.40916E-27
9.95134E-01 1.33722E-27
9.95722E-01 1.26978E-27
9.96273E-01 1.20683E-27
9.96786E-01 1.14832E-27
9.97261E-01 1.09424E-27
9.97698E-01 1.04456E-27
9.98097E-01 9.99272E-28
9.98459E-01 9.58351E-28
9.98782E-01 9.21781E-28
9.99067E-01 8.89547E-28
9.99315E-01 8.61637E-28
9.99524E-01 8.38040E-28
9.99695E-01 8.18747E-28
9.99829E-01 8.03748E-28
9.99924E-01 7.93039E-28
9.99981E-01 7.86616E-28
1.00000E+00 7.84475E-28
