 #
 # Subroutine ELSEPA. Elastic scattering of electrons and positrons
 #                    by neutral atoms and positive ions
 #
 # Projectile: positron
 # Kinetic energy = 9.00000E+08 eV = 3.30744E+07 a.u.
 #
 # WARNING: High-energy factorization with free-atom DF screening.
 #          Absorption, polarization and exchange corrections are
 #          switched off.
 #          Phase shifts are calculated for the bare nucleus.
 #          Scattering amplitudes are not evaluated.
 #
 # Element: Nb,  Z =  41,  atomic weight = 9.29064E+01 g/mol
 #
 # Nuclear model: Fermi distribution
 #                Average radius = 4.84617E-13 cm
 #                Skin thickness = 5.46000E-14 cm
 #
 # Number of electrons = 41
 #
 # Total elastic cross section = 3.95465E-18 cm**2 = 1.41223E-01 a0**2
 # 1st transport cross section = 4.13630E-27 cm**2 = 1.47710E-10 a0**2
 # 2nd transport cross section = 1.24072E-26 cm**2 = 4.43070E-10 a0**2
 #
 #
 # Differential cross section:                       MU=(1-COS(THETA))/2
 #
 #  THETA        MU          DCS          DCS        Sherman      error
 #  (deg)                 (cm**2/sr)   (a0**2/sr)    function
 #----------------------------------------------------------------------
0.00000E+00 3.48870E-08
7.61557E-13 2.71681E-08
1.18994E-12 2.40395E-08
1.71346E-12 2.09998E-08
2.33225E-12 1.82024E-08
3.04617E-12 1.57228E-08
3.85530E-12 1.35736E-08
4.75964E-12 1.17368E-08
5.75917E-12 1.01791E-08
6.85391E-12 8.85789E-09
8.04379E-12 7.73819E-09
9.32893E-12 6.78679E-09
1.07092E-11 5.97222E-09
1.21847E-11 5.27441E-09
1.37554E-11 4.67309E-09
1.54213E-11 4.15156E-09
1.71823E-11 3.69899E-09
1.90386E-11 3.30377E-09
2.09900E-11 2.95754E-09
2.30367E-11 2.65402E-09
2.51785E-11 2.38634E-09
2.74156E-11 2.15018E-09
2.97478E-11 1.93287E-09
3.21752E-11 1.74021E-09
3.46979E-11 1.57416E-09
3.73157E-11 1.43036E-09
4.00286E-11 1.30526E-09
4.28368E-11 1.19595E-09
4.57402E-11 1.09327E-09
4.87388E-11 9.97648E-10
5.18325E-11 9.13563E-10
5.50215E-11 8.39348E-10
5.83057E-11 7.73614E-10
6.16850E-11 7.15193E-10
6.51595E-11 6.61221E-10
6.87293E-11 6.10789E-10
7.23943E-11 5.65691E-10
7.61544E-11 5.25248E-10
1.18991E-10 2.72543E-10
1.71347E-10 1.58591E-10
2.33223E-10 9.91040E-11
3.04617E-10 6.49509E-11
3.85531E-10 4.39008E-11
4.75965E-10 3.04873E-11
5.75917E-10 2.17101E-11
6.85389E-10 1.58095E-11
8.04380E-10 1.17658E-11
9.32891E-10 8.93640E-12
1.07092E-09 6.91384E-12
1.21847E-09 5.43921E-12
1.37554E-09 4.34213E-12
1.54213E-09 3.51116E-12
1.71823E-09 2.87236E-12
1.90386E-09 2.37410E-12
2.09900E-09 1.98033E-12
2.30367E-09 1.66551E-12
2.51785E-09 1.41087E-12
2.74156E-09 1.20306E-12
2.97478E-09 1.03148E-12
3.21752E-09 8.89730E-13
3.46978E-09 7.71874E-13
3.73156E-09 6.72120E-13
4.00286E-09 5.88377E-13
4.28368E-09 5.16845E-13
4.57402E-09 4.55877E-13
4.87388E-09 4.03652E-13
5.18326E-09 3.58487E-13
5.50215E-09 3.19584E-13
5.83057E-09 2.85629E-13
6.16850E-09 2.56103E-13
6.51596E-09 2.30274E-13
6.87293E-09 2.07572E-13
7.23942E-09 1.87640E-13
7.61544E-09 1.69972E-13
1.18991E-08 7.09251E-14
1.71347E-08 3.46324E-14
2.33223E-08 1.88768E-14
3.04617E-08 1.11531E-14
3.85531E-08 7.00768E-15
4.75965E-08 4.62165E-15
5.75917E-08 3.16988E-15
6.85389E-08 2.24572E-15
8.04380E-08 1.63491E-15
9.32891E-08 1.21821E-15
1.07092E-07 9.26106E-16
1.21847E-07 7.16470E-16
1.37554E-07 5.62888E-16
1.54213E-07 4.48310E-16
1.71823E-07 3.61436E-16
1.90386E-07 2.94609E-16
2.09900E-07 2.42526E-16
2.30367E-07 2.01454E-16
2.51785E-07 1.68715E-16
2.74156E-07 1.42361E-16
2.97478E-07 1.20955E-16
3.21752E-07 1.03424E-16
3.46978E-07 8.89552E-17
3.73156E-07 7.69296E-17
4.00286E-07 6.68682E-17
4.28368E-07 5.83987E-17
4.57402E-07 5.12283E-17
4.87388E-07 4.51249E-17
5.18325E-07 3.99037E-17
5.50215E-07 3.54162E-17
5.83057E-07 3.15418E-17
6.16850E-07 2.81830E-17
6.51596E-07 2.52595E-17
6.87293E-07 2.27053E-17
7.23942E-07 2.04658E-17
7.61543E-07 1.84958E-17
1.18991E-06 7.57829E-18
1.71347E-06 3.65497E-18
2.33223E-06 1.97283E-18
3.04617E-06 1.15636E-18
3.85531E-06 7.21839E-19
4.75964E-06 4.73545E-19
5.75916E-06 3.23397E-19
6.85388E-06 2.28310E-19
8.04378E-06 1.65736E-19
9.32888E-06 1.23202E-19
1.07092E-05 9.34766E-20
1.21846E-05 7.21982E-20
1.37553E-05 5.66430E-20
1.54212E-05 4.50599E-20
1.71822E-05 3.62912E-20
1.90385E-05 2.95497E-20
2.09899E-05 2.43127E-20
2.30365E-05 2.01847E-20
2.51783E-05 1.68948E-20
2.74153E-05 1.42471E-20
2.97475E-05 1.20974E-20
3.21749E-05 1.03381E-20
3.46974E-05 8.88756E-21
3.73152E-05 7.68308E-21
4.00281E-05 6.67619E-21
4.28362E-05 5.82909E-21
4.57395E-05 5.11213E-21
4.87380E-05 4.50192E-21
5.18317E-05 3.97993E-21
5.50205E-05 3.53131E-21
5.83045E-05 3.14409E-21
6.16838E-05 2.80850E-21
6.51582E-05 2.51654E-21
6.87277E-05 2.26159E-21
7.23925E-05 2.03814E-21
7.61524E-05 1.81430E-21
9.21439E-05 1.23203E-21
1.09658E-04 8.64152E-22
1.28695E-04 6.22795E-22
1.49255E-04 4.59229E-22
1.71338E-04 3.45357E-22
1.94942E-04 2.64168E-22
2.20070E-04 2.05087E-22
2.46720E-04 1.61312E-22
2.74892E-04 1.28351E-22
3.04586E-04 1.03182E-22
3.35803E-04 8.37129E-23
3.68542E-04 6.84812E-23
4.02802E-04 5.64397E-23
4.38585E-04 4.68302E-23
4.75889E-04 3.90958E-23
5.14715E-04 3.28212E-23
5.55063E-04 2.76945E-23
5.96931E-04 2.34778E-23
6.40321E-04 1.99884E-23
6.85233E-04 1.70846E-23
7.31665E-04 1.46555E-23
7.79618E-04 1.26138E-23
8.29092E-04 1.08898E-23
8.80086E-04 9.42820E-24
9.32601E-04 8.18417E-24
9.86636E-04 7.12150E-24
1.04219E-03 6.21072E-24
1.09927E-03 5.42763E-24
1.15786E-03 4.75237E-24
1.21797E-03 4.16850E-24
1.27961E-03 3.66234E-24
1.34276E-03 3.22251E-24
1.40743E-03 2.83945E-24
1.47362E-03 2.50514E-24
1.54133E-03 2.21280E-24
1.61056E-03 1.95669E-24
1.68131E-03 1.73194E-24
1.75357E-03 1.53439E-24
1.82735E-03 1.36049E-24
1.90265E-03 1.20720E-24
1.97947E-03 1.07190E-24
2.05780E-03 9.52340E-25
2.13765E-03 8.46565E-25
2.21902E-03 7.52890E-25
2.30190E-03 6.69853E-25
2.38630E-03 5.96181E-25
2.47222E-03 5.30766E-25
2.55965E-03 4.72639E-25
2.64859E-03 4.20955E-25
2.73905E-03 3.74971E-25
2.83103E-03 3.34037E-25
2.92452E-03 2.97581E-25
3.01952E-03 2.65099E-25
3.11604E-03 2.36148E-25
3.21407E-03 2.10336E-25
3.31362E-03 1.87317E-25
3.41468E-03 1.66785E-25
3.51725E-03 1.48468E-25
3.62133E-03 1.32127E-25
3.72692E-03 1.17546E-25
3.83403E-03 1.04537E-25
3.94265E-03 9.29306E-26
4.05278E-03 8.25770E-26
4.16442E-03 7.33421E-26
4.27757E-03 6.51069E-26
4.39223E-03 5.77648E-26
4.50840E-03 5.12209E-26
4.62608E-03 4.53905E-26
4.74527E-03 4.01977E-26
4.86597E-03 3.55750E-26
4.98817E-03 3.14616E-26
5.11188E-03 2.78035E-26
5.23711E-03 2.45521E-26
5.36383E-03 2.16640E-26
5.49207E-03 1.91005E-26
5.62181E-03 1.68266E-26
5.75306E-03 1.48113E-26
5.88581E-03 1.30267E-26
6.02007E-03 1.14477E-26
6.15583E-03 1.00520E-26
6.29310E-03 8.81953E-27
6.43187E-03 7.73237E-27
6.57214E-03 6.77445E-27
6.71392E-03 5.93140E-27
6.85720E-03 5.19035E-27
7.00198E-03 4.53981E-27
7.14827E-03 3.96949E-27
7.29605E-03 3.47020E-27
7.44534E-03 3.03375E-27
7.59612E-03 2.65279E-27
7.97965E-03 1.90209E-27
8.37255E-03 1.37526E-27
8.77480E-03 1.00954E-27
9.18641E-03 7.58351E-28
9.60736E-03 5.87456E-28
1.00376E-02 4.71894E-28
1.04773E-02 3.93688E-28
1.09262E-02 3.40075E-28
1.13844E-02 3.02152E-28
1.18520E-02 2.73845E-28
1.23288E-02 2.51135E-28
1.28150E-02 2.31466E-28
1.33104E-02 2.13303E-28
1.38150E-02 1.95815E-28
1.43290E-02 1.78628E-28
1.48521E-02 1.61657E-28
1.53845E-02 1.44987E-28
1.59262E-02 1.28781E-28
1.64770E-02 1.13233E-28
1.70371E-02 9.85269E-29
1.76063E-02 8.48175E-29
1.81848E-02 7.22201E-29
1.87724E-02 6.08073E-29
1.93692E-02 5.06109E-29
1.99751E-02 4.16253E-29
2.05901E-02 3.38142E-29
2.12143E-02 2.71168E-29
2.18476E-02 2.14538E-29
2.24900E-02 1.67340E-29
2.31415E-02 1.28592E-29
2.38021E-02 9.72880E-30
2.44717E-02 7.24344E-30
2.51504E-02 5.30790E-30
2.58382E-02 3.83312E-30
2.65349E-02 2.73768E-30
2.72407E-02 1.94862E-30
2.79555E-02 1.40180E-30
2.86793E-02 1.04188E-30
2.94120E-02 8.22049E-31
3.01537E-02 7.03435E-31
3.09043E-02 6.54471E-31
3.16639E-02 6.50112E-31
3.24324E-02 6.71031E-31
3.32098E-02 7.02811E-31
3.39961E-02 7.35160E-31
3.47912E-02 7.61178E-31
3.55952E-02 7.76680E-31
3.64081E-02 7.79603E-31
3.72297E-02 7.69475E-31
3.80602E-02 7.46970E-31
3.88995E-02 7.13531E-31
3.97476E-02 6.71068E-31
4.06044E-02 6.21713E-31
4.14700E-02 5.67635E-31
4.23443E-02 5.10906E-31
4.32273E-02 4.53403E-31
4.41190E-02 3.96754E-31
4.50194E-02 3.42305E-31
4.59284E-02 2.91108E-31
4.68461E-02 2.43933E-31
4.87074E-02 1.63451E-31
5.06030E-02 1.02307E-31
5.25328E-02 5.92871E-32
5.44967E-02 3.15812E-32
5.64946E-02 1.56974E-32
5.85262E-02 8.13611E-33
6.05914E-02 5.82237E-33
6.26901E-02 6.32250E-33
6.48222E-02 7.89802E-33
6.69873E-02 9.44964E-33
6.91854E-02 1.04003E-32
7.14163E-02 1.05555E-32
7.36799E-02 9.96869E-33
7.59760E-02 8.82614E-33
7.83043E-02 7.36055E-33
8.06647E-02 5.79279E-33
8.30571E-02 4.29900E-33
8.54812E-02 2.99768E-33
8.79369E-02 1.95063E-33
9.04240E-02 1.17221E-33
9.29422E-02 6.42434E-34
9.54915E-02 3.20471E-34
9.80716E-02 1.56439E-34
1.00682E-01 1.00489E-34
1.03323E-01 1.08802E-34
1.05995E-01 1.46797E-34
1.08696E-01 1.90054E-34
1.11427E-01 2.23648E-34
1.14188E-01 2.40516E-34
1.16978E-01 2.39400E-34
1.19797E-01 2.22790E-34
1.22645E-01 1.95122E-34
1.25522E-01 1.61378E-34
1.28428E-01 1.26122E-34
1.31361E-01 9.29500E-35
1.34323E-01 6.42693E-35
1.37313E-01 4.13275E-35
1.40330E-01 2.43946E-35
1.43375E-01 1.30188E-35
1.46447E-01 6.29843E-36
1.49545E-01 3.12528E-36
1.52671E-01 2.37814E-36
1.55823E-01 3.05645E-36
1.59001E-01 4.35710E-36
1.62205E-01 5.70256E-36
1.65435E-01 6.73302E-36
1.68690E-01 7.27477E-36
1.71970E-01 7.29658E-36
1.75276E-01 6.86319E-36
1.78606E-01 6.09275E-36
1.81961E-01 5.12174E-36
1.85340E-01 4.07990E-36
1.88743E-01 3.07399E-36
1.92169E-01 2.18039E-36
1.95619E-01 1.44397E-36
1.99092E-01 8.81492E-37
2.02589E-01 4.87502E-37
2.06107E-01 2.41226E-37
2.09649E-01 1.13312E-37
2.13212E-01 7.15045E-38
2.16797E-01 8.49958E-38
2.20404E-01 1.27370E-37
2.24032E-01 1.78115E-37
2.27680E-01 2.23027E-37
2.31350E-01 2.53813E-37
2.35040E-01 2.67095E-37
2.38751E-01 2.63208E-37
2.42481E-01 2.44902E-37
2.46231E-01 2.16237E-37
2.50000E-01 1.81596E-37
2.53788E-01 1.45054E-37
2.57595E-01 1.09953E-37
2.61421E-01 7.87078E-38
2.65264E-01 5.27497E-38
2.69126E-01 3.26669E-38
2.73005E-01 1.83470E-38
2.76901E-01 1.00000E-45
2.80814E-01 1.00000E-45
2.84744E-01 1.00000E-45
2.88691E-01 1.00000E-45
2.92653E-01 1.00000E-45
2.96632E-01 1.00000E-45
3.00625E-01 1.00000E-45
3.04634E-01 1.00000E-45
3.08658E-01 1.00000E-45
3.12697E-01 1.00000E-45
3.16749E-01 1.00000E-45
3.20816E-01 1.00000E-45
3.24896E-01 1.00000E-45
3.28990E-01 1.00000E-45
3.33097E-01 1.00000E-45
3.37216E-01 1.00000E-45
3.41348E-01 1.00000E-45
3.45492E-01 1.00000E-45
3.49647E-01 1.00000E-45
3.53814E-01 1.00000E-45
3.57992E-01 1.00000E-45
3.62181E-01 1.00000E-45
3.66381E-01 1.00000E-45
3.70590E-01 1.00000E-45
3.74810E-01 1.00000E-45
3.79039E-01 1.00000E-45
3.83277E-01 1.00000E-45
3.87524E-01 1.00000E-45
3.91780E-01 1.00000E-45
3.96044E-01 1.00000E-45
4.00316E-01 1.00000E-45
4.04596E-01 1.00000E-45
4.08882E-01 1.00000E-45
4.13176E-01 1.00000E-45
4.17476E-01 1.00000E-45
4.21783E-01 1.00000E-45
4.26095E-01 1.00000E-45
4.30413E-01 1.00000E-45
4.34737E-01 1.00000E-45
4.39065E-01 1.00000E-45
4.43398E-01 1.00000E-45
4.47736E-01 1.00000E-45
4.52077E-01 1.00000E-45
4.56422E-01 1.00000E-45
4.60770E-01 1.00000E-45
4.65122E-01 1.00000E-45
4.69476E-01 1.00000E-45
4.73832E-01 1.00000E-45
4.78190E-01 1.00000E-45
4.82550E-01 1.00000E-45
4.86912E-01 1.00000E-45
4.91274E-01 1.00000E-45
4.95637E-01 1.00000E-45
5.00000E-01 1.00000E-45
5.04363E-01 1.00000E-45
5.08726E-01 1.00000E-45
5.13088E-01 1.00000E-45
5.17450E-01 1.00000E-45
5.21810E-01 1.00000E-45
5.26168E-01 1.00000E-45
5.30524E-01 1.00000E-45
5.34878E-01 1.00000E-45
5.39230E-01 1.00000E-45
5.43578E-01 1.00000E-45
5.47923E-01 1.00000E-45
5.52264E-01 1.00000E-45
5.56602E-01 1.00000E-45
5.60935E-01 1.00000E-45
5.65263E-01 1.00000E-45
5.69587E-01 1.00000E-45
5.73905E-01 1.00000E-45
5.78217E-01 1.00000E-45
5.82524E-01 1.00000E-45
5.86824E-01 1.00000E-45
5.91118E-01 1.00000E-45
5.95404E-01 1.00000E-45
5.99684E-01 1.00000E-45
6.03956E-01 1.00000E-45
6.08220E-01 1.00000E-45
6.12476E-01 1.00000E-45
6.16723E-01 1.00000E-45
6.20961E-01 1.00000E-45
6.25190E-01 1.00000E-45
6.29410E-01 1.00000E-45
6.33619E-01 1.00000E-45
6.37819E-01 1.00000E-45
6.42008E-01 1.00000E-45
6.46186E-01 1.00000E-45
6.50353E-01 1.00000E-45
6.54508E-01 1.00000E-45
6.58652E-01 1.00000E-45
6.62784E-01 1.00000E-45
6.66903E-01 1.00000E-45
6.71010E-01 1.00000E-45
6.75104E-01 1.00000E-45
6.79184E-01 1.00000E-45
6.83251E-01 1.00000E-45
6.87303E-01 1.00000E-45
6.91342E-01 1.00000E-45
6.95366E-01 1.00000E-45
6.99375E-01 1.00000E-45
7.03368E-01 1.00000E-45
7.07347E-01 1.00000E-45
7.11309E-01 1.00000E-45
7.15256E-01 1.00000E-45
7.19186E-01 1.00000E-45
7.23099E-01 1.00000E-45
7.26995E-01 1.00000E-45
7.30874E-01 1.00000E-45
7.34736E-01 1.00000E-45
7.38579E-01 1.00000E-45
7.42405E-01 1.00000E-45
7.46212E-01 1.00000E-45
7.50000E-01 1.00000E-45
7.53769E-01 1.00000E-45
7.57519E-01 1.00000E-45
7.61249E-01 1.00000E-45
7.64960E-01 1.00000E-45
7.68650E-01 1.00000E-45
7.72320E-01 1.00000E-45
7.75968E-01 1.00000E-45
7.79596E-01 1.00000E-45
7.83203E-01 1.00000E-45
7.86788E-01 1.00000E-45
7.90351E-01 1.00000E-45
7.93893E-01 1.00000E-45
7.97411E-01 1.00000E-45
8.00908E-01 1.00000E-45
8.04381E-01 1.00000E-45
8.07831E-01 1.00000E-45
8.11257E-01 1.00000E-45
8.14660E-01 1.00000E-45
8.18039E-01 1.00000E-45
8.21394E-01 1.00000E-45
8.24724E-01 1.00000E-45
8.28030E-01 1.00000E-45
8.31310E-01 1.00000E-45
8.34565E-01 1.00000E-45
8.37795E-01 1.00000E-45
8.40999E-01 1.00000E-45
8.44177E-01 1.00000E-45
8.47329E-01 1.00000E-45
8.50455E-01 1.00000E-45
8.53553E-01 1.00000E-45
8.56625E-01 1.00000E-45
8.59670E-01 1.00000E-45
8.62687E-01 1.00000E-45
8.65677E-01 1.00000E-45
8.68639E-01 1.00000E-45
8.71572E-01 1.00000E-45
8.74478E-01 1.00000E-45
8.77355E-01 1.00000E-45
8.80203E-01 1.00000E-45
8.83022E-01 1.00000E-45
8.85812E-01 1.00000E-45
8.88573E-01 1.00000E-45
8.91304E-01 1.00000E-45
8.94005E-01 1.00000E-45
8.96677E-01 1.00000E-45
8.99318E-01 1.00000E-45
9.01928E-01 1.00000E-45
9.04508E-01 1.00000E-45
9.07058E-01 1.00000E-45
9.09576E-01 1.00000E-45
9.12063E-01 1.00000E-45
9.14519E-01 1.00000E-45
9.16943E-01 1.00000E-45
9.19335E-01 1.00000E-45
9.21696E-01 1.00000E-45
9.24024E-01 1.00000E-45
9.26320E-01 1.00000E-45
9.28584E-01 1.00000E-45
9.30815E-01 1.00000E-45
9.33013E-01 1.00000E-45
9.35178E-01 1.00000E-45
9.37310E-01 1.00000E-45
9.39409E-01 1.00000E-45
9.41474E-01 1.00000E-45
9.43505E-01 1.00000E-45
9.45503E-01 1.00000E-45
9.47467E-01 1.00000E-45
9.49397E-01 1.00000E-45
9.51293E-01 1.00000E-45
9.53154E-01 1.00000E-45
9.54981E-01 1.00000E-45
9.56773E-01 1.00000E-45
9.58530E-01 1.00000E-45
9.60252E-01 1.00000E-45
9.61940E-01 1.00000E-45
9.63592E-01 1.00000E-45
9.65209E-01 1.00000E-45
9.66790E-01 1.00000E-45
9.68336E-01 1.00000E-45
9.69846E-01 1.00000E-45
9.71321E-01 1.00000E-45
9.72759E-01 1.00000E-45
9.74162E-01 1.00000E-45
9.75528E-01 1.00000E-45
9.76858E-01 1.00000E-45
9.78152E-01 1.00000E-45
9.79410E-01 1.00000E-45
9.80631E-01 1.00000E-45
9.81815E-01 1.00000E-45
9.82963E-01 1.00000E-45
9.84074E-01 1.00000E-45
9.85148E-01 1.00000E-45
9.86185E-01 1.00000E-45
9.87185E-01 1.00000E-45
9.88148E-01 1.00000E-45
9.89074E-01 1.00000E-45
9.89962E-01 1.00000E-45
9.90814E-01 1.00000E-45
9.91627E-01 1.00000E-45
9.92404E-01 1.00000E-45
9.93143E-01 1.00000E-45
9.93844E-01 1.00000E-45
9.94508E-01 1.00000E-45
9.95134E-01 1.00000E-45
9.95722E-01 1.00000E-45
9.96273E-01 1.00000E-45
9.96786E-01 1.00000E-45
9.97261E-01 1.00000E-45
9.97698E-01 1.00000E-45
9.98097E-01 1.00000E-45
9.98459E-01 1.00000E-45
9.98782E-01 1.00000E-45
9.99067E-01 1.00000E-45
9.99315E-01 1.00000E-45
9.99524E-01 1.00000E-45
9.99695E-01 1.00000E-45
9.99829E-01 1.00000E-45
9.99924E-01 1.00000E-45
9.99981E-01 1.00000E-45
1.00000E+00 1.00000E-45
