 #
 # Subroutine ELSEPA. Elastic scattering of electrons and positrons
 #                    by neutral atoms and positive ions
 #
 # Projectile: electron
 # Kinetic energy = 1.50000E+08 eV = 5.51240E+06 a.u.
 #
 # WARNING: High-energy factorization with free-atom DF screening.
 #          Absorption, polarization and exchange corrections are
 #          switched off.
 #          Phase shifts are calculated for the bare nucleus.
 #          Scattering amplitudes are not evaluated.
 #
 # Element: Ac,  Z =  89,  atomic weight = 2.27028E+02 g/mol
 #
 # Nuclear model: Fermi distribution
 #                Average radius = 6.52745E-13 cm
 #                Skin thickness = 5.46000E-14 cm
 #
 # Number of electrons = 89
 #
 # Total elastic cross section = 1.15431E-17 cm**2 = 4.12210E-01 a0**2
 # 1st transport cross section = 6.57456E-25 cm**2 = 2.34782E-08 a0**2
 # 2nd transport cross section = 1.96462E-24 cm**2 = 7.01579E-08 a0**2
 #
 #
 # Differential cross section:                       MU=(1-COS(THETA))/2
 #
 #  THETA        MU          DCS          DCS        Sherman      error
 #  (deg)                 (cm**2/sr)   (a0**2/sr)    function
 #----------------------------------------------------------------------
0.00000E+00 3.43059E-09
7.61557E-13 3.39453E-09
1.18994E-12 3.37453E-09
1.71346E-12 3.35036E-09
2.33225E-12 3.32216E-09
3.04617E-12 3.29010E-09
3.85530E-12 3.25437E-09
4.75964E-12 3.21518E-09
5.75917E-12 3.17276E-09
6.85391E-12 3.12734E-09
8.04379E-12 3.07919E-09
9.32893E-12 3.02853E-09
1.07092E-11 2.97578E-09
1.21847E-11 2.92111E-09
1.37554E-11 2.86452E-09
1.54213E-11 2.80624E-09
1.71823E-11 2.74721E-09
1.90386E-11 2.68716E-09
2.09900E-11 2.62611E-09
2.30367E-11 2.56439E-09
2.51785E-11 2.50305E-09
2.74156E-11 2.44131E-09
2.97478E-11 2.37932E-09
3.21752E-11 2.31788E-09
3.46979E-11 2.25717E-09
3.73157E-11 2.19669E-09
4.00286E-11 2.13656E-09
4.28368E-11 2.07800E-09
4.57402E-11 2.02022E-09
4.87388E-11 1.96311E-09
5.18325E-11 1.90700E-09
5.50215E-11 1.85275E-09
5.83057E-11 1.79937E-09
6.16850E-11 1.74692E-09
6.51595E-11 1.69610E-09
6.87293E-11 1.64684E-09
7.23943E-11 1.59860E-09
7.61544E-11 1.55142E-09
1.18991E-10 1.15654E-09
1.71347E-10 8.75991E-10
2.33223E-10 6.78049E-10
3.04617E-10 5.35768E-10
3.85531E-10 4.30553E-10
4.75965E-10 3.50723E-10
5.75917E-10 2.88864E-10
6.85389E-10 2.40122E-10
8.04380E-10 2.01227E-10
9.32891E-10 1.69934E-10
1.07092E-09 1.43943E-10
1.21847E-09 1.22614E-10
1.37554E-09 1.05782E-10
1.54213E-09 9.23275E-11
1.71823E-09 8.03063E-11
1.90386E-09 7.02494E-11
2.09900E-09 6.20144E-11
2.30367E-09 5.51109E-11
2.51785E-09 4.87675E-11
2.74156E-09 4.34685E-11
2.97478E-09 3.90073E-11
3.21752E-09 3.50390E-11
3.46978E-09 3.14792E-11
3.73156E-09 2.84370E-11
4.00286E-09 2.58214E-11
4.28368E-09 2.33916E-11
4.57402E-09 2.12567E-11
4.87388E-09 1.93996E-11
5.18326E-09 1.77546E-11
5.50215E-09 1.62250E-11
5.83057E-09 1.48808E-11
6.16850E-09 1.36948E-11
6.51596E-09 1.26105E-11
6.87293E-09 1.16216E-11
7.23942E-09 1.07417E-11
7.61544E-09 9.95614E-12
1.18991E-08 4.96472E-12
1.71347E-08 2.75708E-12
2.33223E-08 1.64661E-12
3.04617E-08 1.03853E-12
3.85531E-08 6.86988E-13
4.75965E-08 4.73284E-13
5.75917E-08 3.36910E-13
6.85389E-08 2.46619E-13
8.04380E-08 1.84823E-13
9.32891E-08 1.41268E-13
1.07092E-07 1.09754E-13
1.21847E-07 8.66964E-14
1.37554E-07 6.93248E-14
1.54213E-07 5.61446E-14
1.71823E-07 4.59817E-14
1.90386E-07 3.79984E-14
2.09900E-07 3.16906E-14
2.30367E-07 2.66505E-14
2.51785E-07 2.25663E-14
2.74156E-07 1.92369E-14
2.97478E-07 1.65031E-14
3.21752E-07 1.42348E-14
3.46978E-07 1.23413E-14
3.73156E-07 1.07536E-14
4.00286E-07 9.41205E-15
4.28368E-07 8.27144E-15
4.57402E-07 7.29905E-15
4.87388E-07 6.46534E-15
5.18325E-07 5.74611E-15
5.50215E-07 5.12455E-15
5.83057E-07 4.58504E-15
6.16850E-07 4.11402E-15
6.51596E-07 3.70223E-15
6.87293E-07 3.34090E-15
7.23942E-07 3.02238E-15
7.61543E-07 2.74105E-15
1.18991E-06 1.15586E-15
1.71347E-06 5.68944E-16
2.33223E-06 3.11587E-16
3.04617E-06 1.84554E-16
3.85531E-06 1.16107E-16
4.75964E-06 7.66339E-17
5.75916E-06 5.25945E-17
6.85388E-06 3.72847E-17
8.04378E-06 2.71631E-17
9.32888E-06 2.02557E-17
1.07092E-05 1.54117E-17
1.21846E-05 1.19337E-17
1.37553E-05 9.38408E-18
1.54212E-05 7.48073E-18
1.71822E-05 6.03659E-18
1.90385E-05 4.92149E-18
2.09899E-05 4.05827E-18
2.30365E-05 3.37561E-18
2.51783E-05 2.82969E-18
2.74153E-05 2.38909E-18
2.97475E-05 2.03068E-18
3.21749E-05 1.73703E-18
3.46974E-05 1.49477E-18
3.73152E-05 1.29352E-18
4.00281E-05 1.12517E-18
4.28362E-05 9.83410E-19
4.57395E-05 8.63283E-19
4.87380E-05 7.60911E-19
5.18317E-05 6.73231E-19
5.50205E-05 5.97795E-19
5.83045E-05 5.32627E-19
6.16838E-05 4.76109E-19
6.51582E-05 4.26907E-19
6.87277E-05 3.83914E-19
7.23925E-05 3.46209E-19
7.61524E-05 3.13054E-19
9.21439E-05 2.14271E-19
1.09658E-04 1.51584E-19
1.28695E-04 1.10262E-19
1.49255E-04 8.21274E-20
1.71338E-04 6.24345E-20
1.94942E-04 4.83175E-20
2.20070E-04 3.79826E-20
2.46720E-04 3.02755E-20
2.74892E-04 2.44335E-20
3.04586E-04 1.99387E-20
3.35803E-04 1.64353E-20
3.68542E-04 1.36712E-20
4.02802E-04 1.14668E-20
4.38585E-04 9.69115E-21
4.75889E-04 8.24764E-21
5.14715E-04 7.06449E-21
5.55063E-04 6.08701E-21
5.96931E-04 5.27376E-21
6.40321E-04 4.59258E-21
6.85233E-04 4.01848E-21
7.31665E-04 3.53184E-21
7.79618E-04 3.11707E-21
8.29092E-04 2.76180E-21
8.80086E-04 2.45600E-21
9.32601E-04 2.19163E-21
9.86636E-04 1.96210E-21
1.04219E-03 1.76202E-21
1.09927E-03 1.58696E-21
1.15786E-03 1.43327E-21
1.21797E-03 1.29791E-21
1.27961E-03 1.17816E-21
1.34276E-03 1.07193E-21
1.40743E-03 9.77475E-22
1.47362E-03 8.93242E-22
1.54133E-03 8.17932E-22
1.61056E-03 7.50427E-22
1.68131E-03 6.89772E-22
1.75357E-03 6.35145E-22
1.82735E-03 5.85838E-22
1.90265E-03 5.41239E-22
1.97947E-03 5.00814E-22
2.05780E-03 4.64102E-22
2.13765E-03 4.30698E-22
2.21902E-03 4.00250E-22
2.30190E-03 3.72448E-22
2.38630E-03 3.47018E-22
2.47222E-03 3.23721E-22
2.55965E-03 3.02345E-22
2.64859E-03 2.82703E-22
2.73905E-03 2.64626E-22
2.83103E-03 2.47967E-22
2.92452E-03 2.32594E-22
3.01952E-03 2.18390E-22
3.11604E-03 2.05248E-22
3.21407E-03 1.93075E-22
3.31362E-03 1.81785E-22
3.41468E-03 1.71303E-22
3.51725E-03 1.61559E-22
3.62133E-03 1.52493E-22
3.72692E-03 1.44048E-22
3.83403E-03 1.36173E-22
3.94265E-03 1.28824E-22
4.05278E-03 1.21958E-22
4.16442E-03 1.15537E-22
4.27757E-03 1.09528E-22
4.39223E-03 1.03898E-22
4.50840E-03 9.86203E-23
4.62608E-03 9.36679E-23
4.74527E-03 8.90170E-23
4.86597E-03 8.46460E-23
4.98817E-03 8.05349E-23
5.11188E-03 7.66653E-23
5.23711E-03 7.30204E-23
5.36383E-03 6.95848E-23
5.49207E-03 6.63442E-23
5.62181E-03 6.32854E-23
5.75306E-03 6.03965E-23
5.88581E-03 5.76662E-23
6.02007E-03 5.50843E-23
6.15583E-03 5.26411E-23
6.29310E-03 5.03280E-23
6.43187E-03 4.81366E-23
6.57214E-03 4.60594E-23
6.71392E-03 4.40894E-23
6.85720E-03 4.22200E-23
7.00198E-03 4.04452E-23
7.14827E-03 3.87593E-23
7.29605E-03 3.71571E-23
7.44534E-03 3.56337E-23
7.59612E-03 3.41845E-23
7.97965E-03 3.08588E-23
8.37255E-03 2.79118E-23
8.77480E-03 2.52935E-23
9.18641E-03 2.29612E-23
9.60736E-03 2.08788E-23
1.00376E-02 1.90152E-23
1.04773E-02 1.73439E-23
1.09262E-02 1.58419E-23
1.13844E-02 1.44895E-23
1.18520E-02 1.32694E-23
1.23288E-02 1.21668E-23
1.28150E-02 1.11687E-23
1.33104E-02 1.02637E-23
1.38150E-02 9.44185E-24
1.43290E-02 8.69443E-24
1.48521E-02 8.01374E-24
1.53845E-02 7.39299E-24
1.59262E-02 6.82618E-24
1.64770E-02 6.30797E-24
1.70371E-02 5.83364E-24
1.76063E-02 5.39899E-24
1.81848E-02 5.00027E-24
1.87724E-02 4.63412E-24
1.93692E-02 4.29756E-24
1.99751E-02 3.98790E-24
2.05901E-02 3.70272E-24
2.12143E-02 3.43987E-24
2.18476E-02 3.19740E-24
2.24900E-02 2.97353E-24
2.31415E-02 2.76669E-24
2.38021E-02 2.57544E-24
2.44717E-02 2.39848E-24
2.51504E-02 2.23462E-24
2.58382E-02 2.08281E-24
2.65349E-02 1.94206E-24
2.72407E-02 1.81149E-24
2.79555E-02 1.69029E-24
2.86793E-02 1.57774E-24
2.94120E-02 1.47315E-24
3.01537E-02 1.37591E-24
3.09043E-02 1.28546E-24
3.16639E-02 1.20130E-24
3.24324E-02 1.12294E-24
3.32098E-02 1.04996E-24
3.39961E-02 9.81950E-25
3.47912E-02 9.18557E-25
3.55952E-02 8.59443E-25
3.64081E-02 8.04298E-25
3.72297E-02 7.52837E-25
3.80602E-02 7.04800E-25
3.88995E-02 6.59944E-25
3.97476E-02 6.18045E-25
4.06044E-02 5.78897E-25
4.14700E-02 5.42310E-25
4.23443E-02 5.08107E-25
4.32273E-02 4.76124E-25
4.41190E-02 4.46211E-25
4.50194E-02 4.18227E-25
4.59284E-02 3.92042E-25
4.68461E-02 3.67536E-25
4.87074E-02 3.23118E-25
5.06030E-02 2.84170E-25
5.25328E-02 2.49997E-25
5.44967E-02 2.19995E-25
5.64946E-02 1.93645E-25
5.85262E-02 1.70490E-25
6.05914E-02 1.50137E-25
6.26901E-02 1.32240E-25
6.48222E-02 1.16500E-25
6.69873E-02 1.02654E-25
6.91854E-02 9.04717E-26
7.14163E-02 7.97526E-26
7.36799E-02 7.03200E-26
7.59760E-02 6.20193E-26
7.83043E-02 5.47145E-26
8.06647E-02 4.82864E-26
8.30571E-02 4.26299E-26
8.54812E-02 3.76527E-26
8.79369E-02 3.32736E-26
9.04240E-02 2.94209E-26
9.29422E-02 2.60317E-26
9.54915E-02 2.30503E-26
9.80716E-02 2.04279E-26
1.00682E-01 1.81213E-26
1.03323E-01 1.60924E-26
1.05995E-01 1.43079E-26
1.08696E-01 1.27380E-26
1.11427E-01 1.13568E-26
1.14188E-01 1.01414E-26
1.16978E-01 9.07151E-27
1.19797E-01 8.12934E-27
1.22645E-01 7.29924E-27
1.25522E-01 6.56742E-27
1.28428E-01 5.92175E-27
1.31361E-01 5.35156E-27
1.34323E-01 4.84748E-27
1.37313E-01 4.40130E-27
1.40330E-01 4.00579E-27
1.43375E-01 3.65463E-27
1.46447E-01 3.34226E-27
1.49545E-01 3.06384E-27
1.52671E-01 2.81511E-27
1.55823E-01 2.59238E-27
1.59001E-01 2.39239E-27
1.62205E-01 2.21233E-27
1.65435E-01 2.04974E-27
1.68690E-01 1.90246E-27
1.71970E-01 1.76864E-27
1.75276E-01 1.64665E-27
1.78606E-01 1.53509E-27
1.81961E-01 1.43275E-27
1.85340E-01 1.33856E-27
1.88743E-01 1.25162E-27
1.92169E-01 1.17112E-27
1.95619E-01 1.09639E-27
1.99092E-01 1.02683E-27
2.02589E-01 9.61937E-28
2.06107E-01 9.01260E-28
2.09649E-01 8.44417E-28
2.13212E-01 7.91077E-28
2.16797E-01 7.40950E-28
2.20404E-01 6.93786E-28
2.24032E-01 6.49365E-28
2.27680E-01 6.07495E-28
2.31350E-01 5.68007E-28
2.35040E-01 5.30751E-28
2.38751E-01 4.95596E-28
2.42481E-01 4.62420E-28
2.46231E-01 4.31118E-28
2.50000E-01 4.01591E-28
2.53788E-01 3.73752E-28
2.57595E-01 3.47516E-28
2.61421E-01 3.22808E-28
2.65264E-01 2.99557E-28
2.69126E-01 2.77694E-28
2.73005E-01 2.57155E-28
2.76901E-01 2.37880E-28
2.80814E-01 2.19811E-28
2.84744E-01 2.02890E-28
2.88691E-01 1.87064E-28
2.92653E-01 1.72280E-28
2.96632E-01 1.58487E-28
3.00625E-01 1.45636E-28
3.04634E-01 1.33679E-28
3.08658E-01 1.22570E-28
3.12697E-01 1.12264E-28
3.16749E-01 1.02716E-28
3.20816E-01 9.38852E-29
3.24896E-01 8.57296E-29
3.28990E-01 7.82099E-29
3.33097E-01 7.12876E-29
3.37216E-01 6.49260E-29
3.41348E-01 5.90895E-29
3.45492E-01 5.37439E-29
3.49647E-01 4.88566E-29
3.53814E-01 4.43961E-29
3.57992E-01 4.03326E-29
3.62181E-01 3.66374E-29
3.66381E-01 3.32835E-29
3.70590E-01 3.02451E-29
3.74810E-01 2.74977E-29
3.79039E-01 2.50181E-29
3.83277E-01 2.27847E-29
3.87524E-01 2.07768E-29
3.91780E-01 1.89751E-29
3.96044E-01 1.73616E-29
4.00316E-01 1.59192E-29
4.04596E-01 1.46323E-29
4.08882E-01 1.34861E-29
4.13176E-01 1.24669E-29
4.17476E-01 1.15620E-29
4.21783E-01 1.07598E-29
4.26095E-01 1.00493E-29
4.30413E-01 9.42080E-30
4.34737E-01 8.86502E-30
4.39065E-01 8.37365E-30
4.43398E-01 7.93909E-30
4.47736E-01 7.55441E-30
4.52077E-01 7.21334E-30
4.56422E-01 6.91020E-30
4.60770E-01 6.63988E-30
4.65122E-01 6.39779E-30
4.69476E-01 6.17985E-30
4.73832E-01 5.98240E-30
4.78190E-01 5.80222E-30
4.82550E-01 5.63646E-30
4.86912E-01 5.48261E-30
4.91274E-01 5.33852E-30
4.95637E-01 5.20228E-30
5.00000E-01 5.07230E-30
5.04363E-01 4.94718E-30
5.08726E-01 4.82578E-30
5.13088E-01 4.70712E-30
5.17450E-01 4.59042E-30
5.21810E-01 4.47503E-30
5.26168E-01 4.36046E-30
5.30524E-01 4.24632E-30
5.34878E-01 4.13234E-30
5.39230E-01 4.01834E-30
5.43578E-01 3.90420E-30
5.47923E-01 3.78990E-30
5.52264E-01 3.67544E-30
5.56602E-01 3.56088E-30
5.60935E-01 3.44633E-30
5.65263E-01 3.33192E-30
5.69587E-01 3.21779E-30
5.73905E-01 3.10413E-30
5.78217E-01 2.99111E-30
5.82524E-01 2.87893E-30
5.86824E-01 2.76777E-30
5.91118E-01 2.65782E-30
5.95404E-01 2.54928E-30
5.99684E-01 2.44233E-30
6.03956E-01 2.33714E-30
6.08220E-01 2.23388E-30
6.12476E-01 2.13269E-30
6.16723E-01 2.03373E-30
6.20961E-01 1.93711E-30
6.25190E-01 1.84296E-30
6.29410E-01 1.75136E-30
6.33619E-01 1.66242E-30
6.37819E-01 1.57621E-30
6.42008E-01 1.49278E-30
6.46186E-01 1.41217E-30
6.50353E-01 1.33443E-30
6.54508E-01 1.25958E-30
6.58652E-01 1.18762E-30
6.62784E-01 1.11855E-30
6.66903E-01 1.05236E-30
6.71010E-01 9.89039E-31
6.75104E-01 9.28544E-31
6.79184E-01 8.70842E-31
6.83251E-01 8.15887E-31
6.87303E-01 7.63627E-31
6.91342E-01 7.14004E-31
6.95366E-01 6.66953E-31
6.99375E-01 6.22408E-31
7.03368E-01 5.80297E-31
7.07347E-01 5.40543E-31
7.11309E-01 5.03071E-31
7.15256E-01 4.67799E-31
7.19186E-01 4.34646E-31
7.23099E-01 4.03530E-31
7.26995E-01 3.74367E-31
7.30874E-01 3.47074E-31
7.34736E-01 3.21567E-31
7.38579E-01 2.97764E-31
7.42405E-01 2.75583E-31
7.46212E-01 2.54943E-31
7.50000E-01 2.35764E-31
7.53769E-01 2.17968E-31
7.57519E-01 2.01481E-31
7.61249E-01 1.86227E-31
7.64960E-01 1.72134E-31
7.68650E-01 1.59134E-31
7.72320E-01 1.47159E-31
7.75968E-01 1.36144E-31
7.79596E-01 1.26027E-31
7.83203E-01 1.16747E-31
7.86788E-01 1.08249E-31
7.90351E-01 1.00476E-31
7.93893E-01 9.33781E-32
7.97411E-01 8.69043E-32
8.00908E-01 8.10080E-32
8.04381E-01 7.56448E-32
8.07831E-01 7.07726E-32
8.11257E-01 6.63517E-32
8.14660E-01 6.23448E-32
8.18039E-01 5.87168E-32
8.21394E-01 5.54348E-32
8.24724E-01 5.24680E-32
8.28030E-01 4.97878E-32
8.31310E-01 4.73673E-32
8.34565E-01 4.51816E-32
8.37795E-01 4.32078E-32
8.40999E-01 4.14243E-32
8.44177E-01 3.98115E-32
8.47329E-01 3.83512E-32
8.50455E-01 3.70266E-32
8.53553E-01 3.58225E-32
8.56625E-01 3.47247E-32
8.59670E-01 3.37205E-32
8.62687E-01 3.27984E-32
8.65677E-01 3.19476E-32
8.68639E-01 3.11587E-32
8.71572E-01 3.04232E-32
8.74478E-01 2.97332E-32
8.77355E-01 2.90819E-32
8.80203E-01 2.84631E-32
8.83022E-01 2.78715E-32
8.85812E-01 2.73022E-32
8.88573E-01 2.67510E-32
8.91304E-01 2.62143E-32
8.94005E-01 2.56890E-32
8.96677E-01 2.51722E-32
8.99318E-01 2.46617E-32
9.01928E-01 2.41557E-32
9.04508E-01 2.36524E-32
9.07058E-01 2.31506E-32
9.09576E-01 2.26494E-32
9.12063E-01 2.21478E-32
9.14519E-01 2.16455E-32
9.16943E-01 2.11419E-32
9.19335E-01 2.06370E-32
9.21696E-01 2.01305E-32
9.24024E-01 1.96227E-32
9.26320E-01 1.91137E-32
9.28584E-01 1.86036E-32
9.30815E-01 1.80930E-32
9.33013E-01 1.75821E-32
9.35178E-01 1.70714E-32
9.37310E-01 1.65613E-32
9.39409E-01 1.60525E-32
9.41474E-01 1.55455E-32
9.43505E-01 1.50407E-32
9.45503E-01 1.45387E-32
9.47467E-01 1.40401E-32
9.49397E-01 1.35454E-32
9.51293E-01 1.30552E-32
9.53154E-01 1.25700E-32
9.54981E-01 1.20902E-32
9.56773E-01 1.16164E-32
9.58530E-01 1.11491E-32
9.60252E-01 1.06886E-32
9.61940E-01 1.02353E-32
9.63592E-01 9.78977E-33
9.65209E-01 9.35223E-33
9.66790E-01 8.92305E-33
9.68336E-01 8.50254E-33
9.69846E-01 8.09099E-33
9.71321E-01 7.68864E-33
9.72759E-01 7.29575E-33
9.74162E-01 6.91250E-33
9.75528E-01 6.53910E-33
9.76858E-01 6.17570E-33
9.78152E-01 5.82244E-33
9.79410E-01 5.47944E-33
9.80631E-01 5.14681E-33
9.81815E-01 4.82463E-33
9.82963E-01 4.51296E-33
9.84074E-01 4.21186E-33
9.85148E-01 3.92135E-33
9.86185E-01 3.64148E-33
9.87185E-01 3.37224E-33
9.88148E-01 3.11363E-33
9.89074E-01 2.86566E-33
9.89962E-01 2.62829E-33
9.90814E-01 2.40150E-33
9.91627E-01 2.18527E-33
9.92404E-01 1.97955E-33
9.93143E-01 1.78429E-33
9.93844E-01 1.59947E-33
9.94508E-01 1.42502E-33
9.95134E-01 1.26090E-33
9.95722E-01 1.10705E-33
9.96273E-01 9.63428E-34
9.96786E-01 8.29975E-34
9.97261E-01 7.06642E-34
9.97698E-01 5.93380E-34
9.98097E-01 4.90141E-34
9.98459E-01 3.96881E-34
9.98782E-01 3.13558E-34
9.99067E-01 2.40133E-34
9.99315E-01 1.76571E-34
9.99524E-01 1.22842E-34
9.99695E-01 7.89186E-35
9.99829E-01 4.47791E-35
9.99924E-01 2.04063E-35
9.99981E-01 5.78772E-36
1.00000E+00 9.15705E-37
