 #
 # Subroutine ELSEPA. Elastic scattering of electrons and positrons
 #                    by neutral atoms and positive ions
 #
 # Projectile: electron
 # Kinetic energy = 2.50000E+07 eV = 9.18733E+05 a.u.
 #
 # WARNING: High-energy factorization with free-atom DF screening.
 #          Absorption, polarization and exchange corrections are
 #          switched off.
 #          Phase shifts are calculated for the bare nucleus.
 #          Scattering amplitudes are not evaluated.
 #
 # Element: Ac,  Z =  89,  atomic weight = 2.27028E+02 g/mol
 #
 # Nuclear model: Fermi distribution
 #                Average radius = 6.52745E-13 cm
 #                Skin thickness = 5.46000E-14 cm
 #
 # Number of electrons = 89
 #
 # Total elastic cross section = 1.15507E-17 cm**2 = 4.12483E-01 a0**2
 # 1st transport cross section = 2.31017E-23 cm**2 = 8.24978E-07 a0**2
 # 2nd transport cross section = 6.54582E-23 cm**2 = 2.33756E-06 a0**2
 #
 #
 # Differential cross section:                       MU=(1-COS(THETA))/2
 #
 #  THETA        MU          DCS          DCS        Sherman      error
 #  (deg)                 (cm**2/sr)   (a0**2/sr)    function
 #----------------------------------------------------------------------
0.00000E+00 9.85568E-11
7.61557E-13 9.85266E-11
1.18994E-12 9.85097E-11
1.71346E-12 9.84891E-11
2.33225E-12 9.84647E-11
3.04617E-12 9.84366E-11
3.85530E-12 9.84048E-11
4.75964E-12 9.83693E-11
5.75917E-12 9.83300E-11
6.85391E-12 9.82871E-11
8.04379E-12 9.82405E-11
9.32893E-12 9.81901E-11
1.07092E-11 9.81361E-11
1.21847E-11 9.80785E-11
1.37554E-11 9.80172E-11
1.54213E-11 9.79522E-11
1.71823E-11 9.78836E-11
1.90386E-11 9.78114E-11
2.09900E-11 9.77356E-11
2.30367E-11 9.76561E-11
2.51785E-11 9.75732E-11
2.74156E-11 9.74866E-11
2.97478E-11 9.73965E-11
3.21752E-11 9.73028E-11
3.46979E-11 9.72057E-11
3.73157E-11 9.71050E-11
4.00286E-11 9.70009E-11
4.28368E-11 9.68933E-11
4.57402E-11 9.67823E-11
4.87388E-11 9.66678E-11
5.18325E-11 9.65500E-11
5.50215E-11 9.64288E-11
5.83057E-11 9.63042E-11
6.16850E-11 9.61763E-11
6.51595E-11 9.60450E-11
6.87293E-11 9.59105E-11
7.23943E-11 9.57727E-11
7.61544E-11 9.56317E-11
1.18991E-10 9.40485E-11
1.71347E-10 9.21711E-11
2.33223E-10 9.00304E-11
3.04617E-10 8.76603E-11
3.85531E-10 8.51022E-11
4.75965E-10 8.23844E-11
5.75917E-10 7.95368E-11
6.85389E-10 7.66150E-11
8.04380E-10 7.36206E-11
9.32891E-10 7.06265E-11
1.07092E-09 6.76092E-11
1.21847E-09 6.46490E-11
1.37554E-09 6.17121E-11
1.54213E-09 5.88626E-11
1.71823E-09 5.60773E-11
1.90386E-09 5.33953E-11
2.09900E-09 5.08072E-11
2.30367E-09 4.83270E-11
2.51785E-09 4.59599E-11
2.74156E-09 4.36974E-11
2.97478E-09 4.15579E-11
3.21752E-09 3.95155E-11
3.46978E-09 3.75980E-11
3.73156E-09 3.57683E-11
4.00286E-09 3.40593E-11
4.28368E-09 3.24322E-11
4.57402E-09 3.09105E-11
4.87388E-09 2.94681E-11
5.18326E-09 2.81150E-11
5.50215E-09 2.68372E-11
5.83057E-09 2.56349E-11
6.16850E-09 2.45020E-11
6.51596E-09 2.34333E-11
6.87293E-09 2.24270E-11
7.23942E-09 2.14758E-11
7.61544E-09 2.05795E-11
1.18991E-08 1.38540E-11
1.71347E-08 9.74796E-12
2.33223E-08 7.07254E-12
3.04617E-08 5.25769E-12
3.85531E-08 3.96729E-12
4.75965E-08 3.06272E-12
5.75917E-08 2.42681E-12
6.85389E-08 1.93395E-12
8.04380E-08 1.57758E-12
9.32891E-08 1.28835E-12
1.07092E-07 1.07315E-12
1.21847E-07 8.93915E-13
1.37554E-07 7.55548E-13
1.54213E-07 6.40233E-13
1.71823E-07 5.47758E-13
1.90386E-07 4.70720E-13
2.09900E-07 4.07126E-13
2.30367E-07 3.54054E-13
2.51785E-07 3.09267E-13
2.74156E-07 2.71730E-13
2.97478E-07 2.39481E-13
3.21752E-07 2.12302E-13
3.46978E-07 1.88581E-13
3.73156E-07 1.68478E-13
4.00286E-07 1.50676E-13
4.28368E-07 1.35449E-13
4.57402E-07 1.21909E-13
4.87388E-07 1.10165E-13
5.18325E-07 9.97089E-14
5.50215E-07 9.05156E-14
5.83057E-07 8.23240E-14
6.16850E-07 7.50360E-14
6.51596E-07 6.85389E-14
6.87293E-07 6.26995E-14
7.23942E-07 5.74911E-14
7.61543E-07 5.27703E-14
1.18991E-06 2.44155E-14
1.71347E-06 1.28288E-14
2.33223E-06 7.39214E-15
3.04617E-06 4.56709E-15
3.85531E-06 2.97049E-15
4.75964E-06 2.01801E-15
5.75916E-06 1.41968E-15
6.85388E-06 1.02836E-15
8.04378E-06 7.63226E-16
9.32888E-06 5.78373E-16
1.07092E-05 4.46278E-16
1.21846E-05 3.49797E-16
1.37553E-05 2.77991E-16
1.54212E-05 2.23660E-16
1.71822E-05 1.81936E-16
1.90385E-05 1.49379E-16
2.09899E-05 1.23966E-16
2.30365E-05 1.03714E-16
2.51783E-05 8.74086E-17
2.74153E-05 7.41674E-17
2.97475E-05 6.33344E-17
3.21749E-05 5.44113E-17
3.46974E-05 4.70148E-17
3.73152E-05 4.08430E-17
4.00281E-05 3.56584E-17
4.28362E-05 3.12746E-17
4.57395E-05 2.75449E-17
4.87380E-05 2.43538E-17
5.18317E-05 2.16107E-17
5.50205E-05 1.92425E-17
5.83045E-05 1.71899E-17
6.16838E-05 1.54040E-17
6.51582E-05 1.38446E-17
6.87277E-05 1.24777E-17
7.23925E-05 1.12756E-17
7.61524E-05 1.02120E-17
9.21439E-05 7.03474E-18
1.09658E-04 5.00158E-18
1.28695E-04 3.65244E-18
1.49255E-04 2.72893E-18
1.71338E-04 2.07970E-18
1.94942E-04 1.61264E-18
2.20070E-04 1.26972E-18
2.46720E-04 1.01336E-18
2.74892E-04 8.18634E-19
3.04586E-04 6.68557E-19
3.35803E-04 5.51403E-19
3.68542E-04 4.58854E-19
4.02802E-04 3.84962E-19
4.38585E-04 3.25389E-19
4.75889E-04 2.76923E-19
5.14715E-04 2.37173E-19
5.55063E-04 2.04316E-19
5.96931E-04 1.76970E-19
6.40321E-04 1.54058E-19
6.85233E-04 1.34743E-19
7.31665E-04 1.18370E-19
7.79618E-04 1.04415E-19
8.29092E-04 9.24620E-20
8.80086E-04 8.21755E-20
9.32601E-04 7.32842E-20
9.86636E-04 6.55668E-20
1.04219E-03 5.88415E-20
1.09927E-03 5.29595E-20
1.15786E-03 4.77965E-20
1.21797E-03 4.32496E-20
1.27961E-03 3.92325E-20
1.34276E-03 3.56726E-20
1.40743E-03 3.25091E-20
1.47362E-03 2.96898E-20
1.54133E-03 2.71708E-20
1.61056E-03 2.49144E-20
1.68131E-03 2.28885E-20
1.75357E-03 2.10652E-20
1.82735E-03 1.94207E-20
1.90265E-03 1.79344E-20
1.97947E-03 1.65883E-20
2.05780E-03 1.53667E-20
2.13765E-03 1.42562E-20
2.21902E-03 1.32447E-20
2.30190E-03 1.23219E-20
2.38630E-03 1.14785E-20
2.47222E-03 1.07065E-20
2.55965E-03 9.99867E-21
2.64859E-03 9.34879E-21
2.73905E-03 8.75121E-21
2.83103E-03 8.20095E-21
2.92452E-03 7.69357E-21
3.01952E-03 7.22510E-21
3.11604E-03 6.79202E-21
3.21407E-03 6.39116E-21
3.31362E-03 6.01966E-21
3.41468E-03 5.67499E-21
3.51725E-03 5.35484E-21
3.62133E-03 5.05714E-21
3.72692E-03 4.78003E-21
3.83403E-03 4.52180E-21
3.94265E-03 4.28095E-21
4.05278E-03 4.05606E-21
4.16442E-03 3.84589E-21
4.27757E-03 3.64929E-21
4.39223E-03 3.46522E-21
4.50840E-03 3.29273E-21
4.62608E-03 3.13096E-21
4.74527E-03 2.97910E-21
4.86597E-03 2.83644E-21
4.98817E-03 2.70231E-21
5.11188E-03 2.57611E-21
5.23711E-03 2.45727E-21
5.36383E-03 2.34530E-21
5.49207E-03 2.23970E-21
5.62181E-03 2.14005E-21
5.75306E-03 2.04595E-21
5.88581E-03 1.95704E-21
6.02007E-03 1.87296E-21
6.15583E-03 1.79341E-21
6.29310E-03 1.71810E-21
6.43187E-03 1.64675E-21
6.57214E-03 1.57912E-21
6.71392E-03 1.51497E-21
6.85720E-03 1.45410E-21
7.00198E-03 1.39629E-21
7.14827E-03 1.34137E-21
7.29605E-03 1.28917E-21
7.44534E-03 1.23952E-21
7.59612E-03 1.19227E-21
7.97965E-03 1.08378E-21
8.37255E-03 9.87541E-22
8.77480E-03 9.01912E-22
9.18641E-03 8.25511E-22
9.60736E-03 7.57165E-22
1.00376E-02 6.95866E-22
1.04773E-02 6.40753E-22
1.09262E-02 5.91088E-22
1.13844E-02 5.46229E-22
1.18520E-02 5.05627E-22
1.23288E-02 4.68800E-22
1.28150E-02 4.35330E-22
1.33104E-02 4.04855E-22
1.38150E-02 3.77055E-22
1.43290E-02 3.51649E-22
1.48521E-02 3.28394E-22
1.53845E-02 3.07068E-22
1.59262E-02 2.87487E-22
1.64770E-02 2.69474E-22
1.70371E-02 2.52883E-22
1.76063E-02 2.37577E-22
1.81848E-02 2.23439E-22
1.87724E-02 2.10362E-22
1.93692E-02 1.98250E-22
1.99751E-02 1.87018E-22
2.05901E-02 1.76589E-22
2.12143E-02 1.66895E-22
2.18476E-02 1.57873E-22
2.24900E-02 1.49467E-22
2.31415E-02 1.41627E-22
2.38021E-02 1.34307E-22
2.44717E-02 1.27466E-22
2.51504E-02 1.21065E-22
2.58382E-02 1.15072E-22
2.65349E-02 1.09454E-22
2.72407E-02 1.04183E-22
2.79555E-02 9.92335E-23
2.86793E-02 9.45820E-23
2.94120E-02 9.02066E-23
3.01537E-02 8.60877E-23
3.09043E-02 8.22070E-23
3.16639E-02 7.85481E-23
3.24324E-02 7.50955E-23
3.32098E-02 7.18352E-23
3.39961E-02 6.87543E-23
3.47912E-02 6.58409E-23
3.55952E-02 6.30840E-23
3.64081E-02 6.04734E-23
3.72297E-02 5.79997E-23
3.80602E-02 5.56544E-23
3.88995E-02 5.34294E-23
3.97476E-02 5.13172E-23
4.06044E-02 4.93111E-23
4.14700E-02 4.74047E-23
4.23443E-02 4.55924E-23
4.32273E-02 4.38674E-23
4.41190E-02 4.22230E-23
4.50194E-02 4.06565E-23
4.59284E-02 3.91635E-23
4.68461E-02 3.77398E-23
4.87074E-02 3.50850E-23
5.06030E-02 3.26639E-23
5.25328E-02 3.04517E-23
5.44967E-02 2.84268E-23
5.64946E-02 2.65700E-23
5.85262E-02 2.48647E-23
6.05914E-02 2.32960E-23
6.26901E-02 2.18506E-23
6.48222E-02 2.05169E-23
6.69873E-02 1.92845E-23
6.91854E-02 1.81442E-23
7.14163E-02 1.70877E-23
7.36799E-02 1.61075E-23
7.59760E-02 1.51970E-23
7.83043E-02 1.43503E-23
8.06647E-02 1.35619E-23
8.30571E-02 1.28271E-23
8.54812E-02 1.21414E-23
8.79369E-02 1.15009E-23
9.04240E-02 1.09021E-23
9.29422E-02 1.03416E-23
9.54915E-02 9.81645E-24
9.80716E-02 9.32405E-24
1.00682E-01 8.86192E-24
1.03323E-01 8.42783E-24
1.05995E-01 8.01972E-24
1.08696E-01 7.63573E-24
1.11427E-01 7.27415E-24
1.14188E-01 6.93342E-24
1.16978E-01 6.61209E-24
1.19797E-01 6.30883E-24
1.22645E-01 6.02244E-24
1.25522E-01 5.75178E-24
1.28428E-01 5.49583E-24
1.31361E-01 5.25363E-24
1.34323E-01 5.02429E-24
1.37313E-01 4.80700E-24
1.40330E-01 4.60101E-24
1.43375E-01 4.40562E-24
1.46447E-01 4.22017E-24
1.49545E-01 4.04406E-24
1.52671E-01 3.87674E-24
1.55823E-01 3.71768E-24
1.59001E-01 3.56639E-24
1.62205E-01 3.42244E-24
1.65435E-01 3.28539E-24
1.68690E-01 3.15485E-24
1.71970E-01 3.03046E-24
1.75276E-01 2.91187E-24
1.78606E-01 2.79877E-24
1.81961E-01 2.69085E-24
1.85340E-01 2.58783E-24
1.88743E-01 2.48946E-24
1.92169E-01 2.39548E-24
1.95619E-01 2.30567E-24
1.99092E-01 2.21980E-24
2.02589E-01 2.13768E-24
2.06107E-01 2.05910E-24
2.09649E-01 1.98390E-24
2.13212E-01 1.91190E-24
2.16797E-01 1.84295E-24
2.20404E-01 1.77688E-24
2.24032E-01 1.71357E-24
2.27680E-01 1.65287E-24
2.31350E-01 1.59467E-24
2.35040E-01 1.53883E-24
2.38751E-01 1.48525E-24
2.42481E-01 1.43383E-24
2.46231E-01 1.38446E-24
2.50000E-01 1.33704E-24
2.53788E-01 1.29150E-24
2.57595E-01 1.24773E-24
2.61421E-01 1.20567E-24
2.65264E-01 1.16523E-24
2.69126E-01 1.12634E-24
2.73005E-01 1.08894E-24
2.76901E-01 1.05296E-24
2.80814E-01 1.01833E-24
2.84744E-01 9.84998E-25
2.88691E-01 9.52909E-25
2.92653E-01 9.22008E-25
2.96632E-01 8.92245E-25
3.00625E-01 8.63572E-25
3.04634E-01 8.35943E-25
3.08658E-01 8.09314E-25
3.12697E-01 7.83645E-25
3.16749E-01 7.58895E-25
3.20816E-01 7.35028E-25
3.24896E-01 7.12006E-25
3.28990E-01 6.89797E-25
3.33097E-01 6.68366E-25
3.37216E-01 6.47684E-25
3.41348E-01 6.27721E-25
3.45492E-01 6.08447E-25
3.49647E-01 5.89837E-25
3.53814E-01 5.71864E-25
3.57992E-01 5.54503E-25
3.62181E-01 5.37731E-25
3.66381E-01 5.21525E-25
3.70590E-01 5.05864E-25
3.74810E-01 4.90727E-25
3.79039E-01 4.76094E-25
3.83277E-01 4.61946E-25
3.87524E-01 4.48265E-25
3.91780E-01 4.35033E-25
3.96044E-01 4.22235E-25
4.00316E-01 4.09854E-25
4.04596E-01 3.97874E-25
4.08882E-01 3.86282E-25
4.13176E-01 3.75063E-25
4.17476E-01 3.64203E-25
4.21783E-01 3.53690E-25
4.26095E-01 3.43511E-25
4.30413E-01 3.33655E-25
4.34737E-01 3.24109E-25
4.39065E-01 3.14864E-25
4.43398E-01 3.05907E-25
4.47736E-01 2.97230E-25
4.52077E-01 2.88823E-25
4.56422E-01 2.80676E-25
4.60770E-01 2.72780E-25
4.65122E-01 2.65126E-25
4.69476E-01 2.57707E-25
4.73832E-01 2.50514E-25
4.78190E-01 2.43540E-25
4.82550E-01 2.36776E-25
4.86912E-01 2.30217E-25
4.91274E-01 2.23855E-25
4.95637E-01 2.17684E-25
5.00000E-01 2.11696E-25
5.04363E-01 2.05887E-25
5.08726E-01 2.00251E-25
5.13088E-01 1.94780E-25
5.17450E-01 1.89471E-25
5.21810E-01 1.84318E-25
5.26168E-01 1.79315E-25
5.30524E-01 1.74459E-25
5.34878E-01 1.69743E-25
5.39230E-01 1.65164E-25
5.43578E-01 1.60717E-25
5.47923E-01 1.56398E-25
5.52264E-01 1.52203E-25
5.56602E-01 1.48128E-25
5.60935E-01 1.44170E-25
5.65263E-01 1.40323E-25
5.69587E-01 1.36586E-25
5.73905E-01 1.32954E-25
5.78217E-01 1.29424E-25
5.82524E-01 1.25994E-25
5.86824E-01 1.22659E-25
5.91118E-01 1.19417E-25
5.95404E-01 1.16266E-25
5.99684E-01 1.13202E-25
6.03956E-01 1.10222E-25
6.08220E-01 1.07325E-25
6.12476E-01 1.04507E-25
6.16723E-01 1.01766E-25
6.20961E-01 9.91002E-26
6.25190E-01 9.65068E-26
6.29410E-01 9.39839E-26
6.33619E-01 9.15292E-26
6.37819E-01 8.91408E-26
6.42008E-01 8.68166E-26
6.46186E-01 8.45548E-26
6.50353E-01 8.23534E-26
6.54508E-01 8.02107E-26
6.58652E-01 7.81250E-26
6.62784E-01 7.60947E-26
6.66903E-01 7.41179E-26
6.71010E-01 7.21933E-26
6.75104E-01 7.03193E-26
6.79184E-01 6.84944E-26
6.83251E-01 6.67172E-26
6.87303E-01 6.49864E-26
6.91342E-01 6.33005E-26
6.95366E-01 6.16583E-26
6.99375E-01 6.00585E-26
7.03368E-01 5.85000E-26
7.07347E-01 5.69816E-26
7.11309E-01 5.55021E-26
7.15256E-01 5.40604E-26
7.19186E-01 5.26554E-26
7.23099E-01 5.12862E-26
7.26995E-01 4.99517E-26
7.30874E-01 4.86510E-26
7.34736E-01 4.73831E-26
7.38579E-01 4.61471E-26
7.42405E-01 4.49421E-26
7.46212E-01 4.37673E-26
7.50000E-01 4.26218E-26
7.53769E-01 4.15048E-26
7.57519E-01 4.04156E-26
7.61249E-01 3.93534E-26
7.64960E-01 3.83174E-26
7.68650E-01 3.73070E-26
7.72320E-01 3.63215E-26
7.75968E-01 3.53601E-26
7.79596E-01 3.44223E-26
7.83203E-01 3.35075E-26
7.86788E-01 3.26149E-26
7.90351E-01 3.17440E-26
7.93893E-01 3.08943E-26
7.97411E-01 3.00651E-26
8.00908E-01 2.92560E-26
8.04381E-01 2.84665E-26
8.07831E-01 2.76959E-26
8.11257E-01 2.69438E-26
8.14660E-01 2.62098E-26
8.18039E-01 2.54934E-26
8.21394E-01 2.47941E-26
8.24724E-01 2.41115E-26
8.28030E-01 2.34451E-26
8.31310E-01 2.27946E-26
8.34565E-01 2.21596E-26
8.37795E-01 2.15396E-26
8.40999E-01 2.09343E-26
8.44177E-01 2.03433E-26
8.47329E-01 1.97663E-26
8.50455E-01 1.92029E-26
8.53553E-01 1.86528E-26
8.56625E-01 1.81156E-26
8.59670E-01 1.75911E-26
8.62687E-01 1.70790E-26
8.65677E-01 1.65789E-26
8.68639E-01 1.60906E-26
8.71572E-01 1.56137E-26
8.74478E-01 1.51480E-26
8.77355E-01 1.46933E-26
8.80203E-01 1.42493E-26
8.83022E-01 1.38157E-26
8.85812E-01 1.33923E-26
8.88573E-01 1.29789E-26
8.91304E-01 1.25752E-26
8.94005E-01 1.21811E-26
8.96677E-01 1.17962E-26
8.99318E-01 1.14204E-26
9.01928E-01 1.10535E-26
9.04508E-01 1.06953E-26
9.07058E-01 1.03457E-26
9.09576E-01 1.00043E-26
9.12063E-01 9.67108E-27
9.14519E-01 9.34583E-27
9.16943E-01 9.02837E-27
9.19335E-01 8.71856E-27
9.21696E-01 8.41621E-27
9.24024E-01 8.12119E-27
9.26320E-01 7.83334E-27
9.28584E-01 7.55252E-27
9.30815E-01 7.27858E-27
9.33013E-01 7.01139E-27
9.35178E-01 6.75081E-27
9.37310E-01 6.49672E-27
9.39409E-01 6.24900E-27
9.41474E-01 6.00751E-27
9.43505E-01 5.77215E-27
9.45503E-01 5.54279E-27
9.47467E-01 5.31934E-27
9.49397E-01 5.10168E-27
9.51293E-01 4.88970E-27
9.53154E-01 4.68332E-27
9.54981E-01 4.48242E-27
9.56773E-01 4.28692E-27
9.58530E-01 4.09673E-27
9.60252E-01 3.91175E-27
9.61940E-01 3.73191E-27
9.63592E-01 3.55711E-27
9.65209E-01 3.38728E-27
9.66790E-01 3.22234E-27
9.68336E-01 3.06222E-27
9.69846E-01 2.90684E-27
9.71321E-01 2.75613E-27
9.72759E-01 2.61003E-27
9.74162E-01 2.46847E-27
9.75528E-01 2.33139E-27
9.76858E-01 2.19872E-27
9.78152E-01 2.07042E-27
9.79410E-01 1.94641E-27
9.80631E-01 1.82665E-27
9.81815E-01 1.71109E-27
9.82963E-01 1.59968E-27
9.84074E-01 1.49236E-27
9.85148E-01 1.38909E-27
9.86185E-01 1.28983E-27
9.87185E-01 1.19453E-27
9.88148E-01 1.10316E-27
9.89074E-01 1.01567E-27
9.89962E-01 9.32022E-28
9.90814E-01 8.52191E-28
9.91627E-01 7.76137E-28
9.92404E-01 7.03830E-28
9.93143E-01 6.35237E-28
9.93844E-01 5.70332E-28
9.94508E-01 5.09086E-28
9.95134E-01 4.51474E-28
9.95722E-01 3.97472E-28
9.96273E-01 3.47058E-28
9.96786E-01 3.00211E-28
9.97261E-01 2.56910E-28
9.97698E-01 2.17139E-28
9.98097E-01 1.80881E-28
9.98459E-01 1.48121E-28
9.98782E-01 1.18845E-28
9.99067E-01 9.30419E-29
9.99315E-01 7.07005E-29
9.99524E-01 5.18117E-29
9.99695E-01 3.63677E-29
9.99829E-01 2.43623E-29
9.99924E-01 1.57905E-29
9.99981E-01 1.06489E-29
1.00000E+00 8.93523E-30
