 #
 # Subroutine ELSEPA. Elastic scattering of electrons and positrons
 #                    by neutral atoms and positive ions
 #
 # Projectile: electron
 # Kinetic energy = 4.00000E+08 eV = 1.46997E+07 a.u.
 #
 # WARNING: High-energy factorization with free-atom DF screening.
 #          Absorption, polarization and exchange corrections are
 #          switched off.
 #          Phase shifts are calculated for the bare nucleus.
 #          Scattering amplitudes are not evaluated.
 #
 # Element: Ac,  Z =  89,  atomic weight = 2.27028E+02 g/mol
 #
 # Nuclear model: Fermi distribution
 #                Average radius = 6.52745E-13 cm
 #                Skin thickness = 5.46000E-14 cm
 #
 # Number of electrons = 89
 #
 # Total elastic cross section = 1.15348E-17 cm**2 = 4.11914E-01 a0**2
 # 1st transport cross section = 9.21400E-26 cm**2 = 3.29038E-09 a0**2
 # 2nd transport cross section = 2.76253E-25 cm**2 = 9.86518E-09 a0**2
 #
 #
 # Differential cross section:                       MU=(1-COS(THETA))/2
 #
 #  THETA        MU          DCS          DCS        Sherman      error
 #  (deg)                 (cm**2/sr)   (a0**2/sr)    function
 #----------------------------------------------------------------------
0.00000E+00 2.42919E-08
7.61557E-13 2.25756E-08
1.18994E-12 2.16959E-08
1.71346E-12 2.06976E-08
2.33225E-12 1.96092E-08
3.04617E-12 1.84696E-08
3.85530E-12 1.73090E-08
4.75964E-12 1.61504E-08
5.75917E-12 1.50149E-08
6.85391E-12 1.39279E-08
8.04379E-12 1.28942E-08
9.32893E-12 1.19206E-08
1.07092E-11 1.10135E-08
1.21847E-11 1.01786E-08
1.37554E-11 9.40865E-09
1.54213E-11 8.70204E-09
1.71823E-11 8.05810E-09
1.90386E-11 7.47195E-09
2.09900E-11 6.93716E-09
2.30367E-11 6.44985E-09
2.51785E-11 6.00731E-09
2.74156E-11 5.60366E-09
2.97478E-11 5.23504E-09
3.21752E-11 4.89826E-09
3.46979E-11 4.59010E-09
3.73157E-11 4.30730E-09
4.00286E-11 4.04749E-09
4.28368E-11 3.80826E-09
4.57402E-11 3.58725E-09
4.87388E-11 3.38303E-09
5.18325E-11 3.19409E-09
5.50215E-11 3.01842E-09
5.83057E-11 2.85503E-09
6.16850E-11 2.70309E-09
6.51595E-11 2.56164E-09
6.87293E-11 2.42893E-09
7.23943E-11 2.30502E-09
7.61544E-11 2.18922E-09
1.18991E-10 1.35217E-09
1.71347E-10 8.72751E-10
2.33223E-10 5.99209E-10
3.04617E-10 4.24286E-10
3.85531E-10 3.09543E-10
4.75965E-10 2.32245E-10
5.75917E-10 1.78101E-10
6.85389E-10 1.38198E-10
8.04380E-10 1.09092E-10
9.32891E-10 8.74307E-11
1.07092E-09 7.09432E-11
1.21847E-09 5.81099E-11
1.37554E-09 4.81403E-11
1.54213E-09 4.02750E-11
1.71823E-09 3.39476E-11
1.90386E-09 2.88080E-11
2.09900E-09 2.46210E-11
2.30367E-09 2.11751E-11
2.51785E-09 1.82891E-11
2.74156E-09 1.58759E-11
2.97478E-09 1.38488E-11
3.21752E-09 1.21333E-11
3.46978E-09 1.06692E-11
3.73156E-09 9.41472E-12
4.00286E-09 8.33645E-12
4.28368E-09 7.40742E-12
4.57402E-09 6.60401E-12
4.87388E-09 5.90871E-12
5.18326E-09 5.30423E-12
5.50215E-09 4.77501E-12
5.83057E-09 4.31067E-12
6.16850E-09 3.90225E-12
6.51596E-09 3.54167E-12
6.87293E-09 3.22107E-12
7.23942E-09 2.93642E-12
7.61544E-09 2.68295E-12
1.18991E-08 1.20318E-12
1.71347E-08 6.18528E-13
2.33223E-08 3.50207E-13
3.04617E-08 2.13237E-13
3.85531E-08 1.37267E-13
4.75965E-08 9.23079E-14
5.75917E-08 6.43077E-14
6.85389E-08 4.61356E-14
8.04380E-08 3.39415E-14
9.32891E-08 2.55217E-14
1.07092E-07 1.95598E-14
1.21847E-07 1.52436E-14
1.37554E-07 1.20569E-14
1.54213E-07 9.66204E-15
1.71823E-07 7.83425E-15
1.90386E-07 6.41945E-15
2.09900E-07 5.31031E-15
2.30367E-07 4.43077E-15
2.51785E-07 3.72596E-15
2.74156E-07 3.15573E-15
2.97478E-07 2.69045E-15
3.21752E-07 2.30775E-15
3.46978E-07 1.99067E-15
3.73156E-07 1.72615E-15
4.00286E-07 1.50407E-15
4.28368E-07 1.31653E-15
4.57402E-07 1.15730E-15
4.87388E-07 1.02140E-15
5.18325E-07 9.04855E-16
5.50215E-07 8.04453E-16
5.83057E-07 7.17583E-16
6.16850E-07 6.42119E-16
6.51596E-07 5.76314E-16
6.87293E-07 5.18723E-16
7.23942E-07 4.68148E-16
7.61543E-07 4.23586E-16
1.18991E-06 1.75196E-16
1.71347E-06 8.50584E-17
2.33223E-06 4.61427E-17
3.04617E-06 2.71524E-17
3.85531E-06 1.70027E-17
4.75964E-06 1.11826E-17
5.75916E-06 7.65305E-18
6.85388E-06 5.41244E-18
8.04378E-06 3.93498E-18
9.32888E-06 2.92894E-18
1.07092E-05 2.22483E-18
1.21846E-05 1.72014E-18
1.37553E-05 1.35077E-18
1.54212E-05 1.07544E-18
1.71822E-05 8.66820E-19
1.90385E-05 7.05945E-19
2.09899E-05 5.81554E-19
2.30365E-05 4.83291E-19
2.51783E-05 4.04793E-19
2.74153E-05 3.41502E-19
2.97475E-05 2.90064E-19
3.21749E-05 2.47956E-19
3.46974E-05 2.13245E-19
3.73152E-05 1.84430E-19
4.00281E-05 1.60344E-19
4.28362E-05 1.40074E-19
4.57395E-05 1.22908E-19
4.87380E-05 1.08287E-19
5.18317E-05 9.57716E-20
5.50205E-05 8.50094E-20
5.83045E-05 7.57161E-20
6.16838E-05 6.76602E-20
6.51582E-05 6.06502E-20
6.87277E-05 5.45268E-20
7.23925E-05 4.91586E-20
7.61524E-05 4.49502E-20
9.21439E-05 3.08094E-20
1.09658E-04 2.18295E-20
1.28695E-04 1.59043E-20
1.49255E-04 1.18651E-20
1.71338E-04 9.03485E-21
1.94942E-04 7.00146E-21
2.20070E-04 5.51008E-21
2.46720E-04 4.39605E-21
2.74892E-04 3.55018E-21
3.04586E-04 2.89830E-21
3.35803E-04 2.38934E-21
3.68542E-04 1.98715E-21
4.02802E-04 1.66590E-21
4.38585E-04 1.40677E-21
4.75889E-04 1.19584E-21
5.14715E-04 1.02274E-21
5.55063E-04 8.79587E-22
5.96931E-04 7.60376E-22
6.40321E-04 6.60453E-22
6.85233E-04 5.76190E-22
7.31665E-04 5.04738E-22
7.79618E-04 4.43827E-22
8.29092E-04 3.91653E-22
8.80086E-04 3.46754E-22
9.32601E-04 3.07953E-22
9.86636E-04 2.74287E-22
1.04219E-03 2.44964E-22
1.09927E-03 2.19335E-22
1.15786E-03 1.96858E-22
1.21797E-03 1.77084E-22
1.27961E-03 1.59635E-22
1.34276E-03 1.44195E-22
1.40743E-03 1.30495E-22
1.47362E-03 1.18309E-22
1.54133E-03 1.07442E-22
1.61056E-03 9.77311E-23
1.68131E-03 8.90330E-23
1.75357E-03 8.12264E-23
1.82735E-03 7.42059E-23
1.90265E-03 6.78806E-23
1.97947E-03 6.21714E-23
2.05780E-03 5.70095E-23
2.13765E-03 5.23347E-23
2.21902E-03 4.80946E-23
2.30190E-03 4.42429E-23
2.38630E-03 4.07391E-23
2.47222E-03 3.75474E-23
2.55965E-03 3.46363E-23
2.64859E-03 3.19777E-23
2.73905E-03 2.95468E-23
2.83103E-03 2.73215E-23
2.92452E-03 2.52824E-23
3.01952E-03 2.34117E-23
3.11604E-03 2.16938E-23
3.21407E-03 2.01148E-23
3.31362E-03 1.86621E-23
3.41468E-03 1.73243E-23
3.51725E-03 1.60913E-23
3.62133E-03 1.49540E-23
3.72692E-03 1.39041E-23
3.83403E-03 1.29342E-23
3.94265E-03 1.20374E-23
4.05278E-03 1.12078E-23
4.16442E-03 1.04398E-23
4.27757E-03 9.72825E-24
4.39223E-03 9.06871E-24
4.50840E-03 8.45698E-24
4.62608E-03 7.88927E-24
4.74527E-03 7.36212E-24
4.86597E-03 6.87237E-24
4.98817E-03 6.41715E-24
5.11188E-03 5.99381E-24
5.23711E-03 5.59993E-24
5.36383E-03 5.23330E-24
5.49207E-03 4.89190E-24
5.62181E-03 4.57384E-24
5.75306E-03 4.27743E-24
5.88581E-03 4.00108E-24
6.02007E-03 3.74334E-24
6.15583E-03 3.50288E-24
6.29310E-03 3.27846E-24
6.43187E-03 3.06894E-24
6.57214E-03 2.87329E-24
6.71392E-03 2.69052E-24
6.85720E-03 2.51974E-24
7.00198E-03 2.36013E-24
7.14827E-03 2.21091E-24
7.29605E-03 2.07138E-24
7.44534E-03 1.94088E-24
7.59612E-03 1.81880E-24
7.97965E-03 1.54680E-24
8.37255E-03 1.31620E-24
8.77480E-03 1.12048E-24
9.18641E-03 9.54242E-25
9.60736E-03 8.12937E-25
1.00376E-02 6.92757E-25
1.04773E-02 5.90496E-25
1.09262E-02 5.03451E-25
1.13844E-02 4.29340E-25
1.18520E-02 3.66231E-25
1.23288E-02 3.12485E-25
1.28150E-02 2.66714E-25
1.33104E-02 2.27736E-25
1.38150E-02 1.94547E-25
1.43290E-02 1.66291E-25
1.48521E-02 1.42240E-25
1.53845E-02 1.21770E-25
1.59262E-02 1.04353E-25
1.64770E-02 8.95360E-26
1.70371E-02 7.69320E-26
1.76063E-02 6.62115E-26
1.81848E-02 5.70929E-26
1.87724E-02 4.93360E-26
1.93692E-02 4.27357E-26
1.99751E-02 3.71170E-26
2.05901E-02 3.23310E-26
2.12143E-02 2.82508E-26
2.18476E-02 2.47681E-26
2.24900E-02 2.17911E-26
2.31415E-02 1.92417E-26
2.38021E-02 1.70538E-26
2.44717E-02 1.51711E-26
2.51504E-02 1.35462E-26
2.58382E-02 1.21389E-26
2.65349E-02 1.09155E-26
2.72407E-02 9.84728E-27
2.79555E-02 8.91040E-27
2.86793E-02 8.08469E-27
2.94120E-02 7.35331E-27
3.01537E-02 6.70215E-27
3.09043E-02 6.11944E-27
3.16639E-02 5.59537E-27
3.24324E-02 5.12178E-27
3.32098E-02 4.69187E-27
3.39961E-02 4.29999E-27
3.47912E-02 3.94148E-27
3.55952E-02 3.61242E-27
3.64081E-02 3.30958E-27
3.72297E-02 3.03026E-27
3.80602E-02 2.77219E-27
3.88995E-02 2.53346E-27
3.97476E-02 2.31247E-27
4.06044E-02 2.10783E-27
4.14700E-02 1.91834E-27
4.23443E-02 1.74297E-27
4.32273E-02 1.58079E-27
4.41190E-02 1.43098E-27
4.50194E-02 1.29278E-27
4.59284E-02 1.16549E-27
4.68461E-02 1.04848E-27
4.87074E-02 8.42863E-28
5.06030E-02 6.71391E-28
5.25328E-02 5.29891E-28
5.44967E-02 4.14478E-28
5.64946E-02 3.21532E-28
5.85262E-02 2.47704E-28
6.05914E-02 1.89924E-28
6.26901E-02 1.45416E-28
6.48222E-02 1.11705E-28
6.69873E-02 8.66220E-29
6.91854E-02 6.82984E-29
7.14163E-02 5.51518E-29
7.36799E-02 4.58693E-29
7.59760E-02 3.93841E-29
7.83043E-02 3.48498E-29
8.06647E-02 3.16124E-29
8.30571E-02 2.91825E-29
8.54812E-02 2.72083E-29
8.79369E-02 2.54493E-29
9.04240E-02 2.37536E-29
9.29422E-02 2.20367E-29
9.54915E-02 2.02635E-29
9.80716E-02 1.84330E-29
1.00682E-01 1.65664E-29
1.03323E-01 1.46968E-29
1.05995E-01 1.28621E-29
1.08696E-01 1.10995E-29
1.11427E-01 9.44157E-30
1.14188E-01 7.91475E-30
1.16978E-01 6.53772E-30
1.19797E-01 5.32146E-30
1.22645E-01 4.26966E-30
1.25522E-01 3.37967E-30
1.28428E-01 2.64354E-30
1.31361E-01 2.04932E-30
1.34323E-01 1.58226E-30
1.37313E-01 1.22596E-30
1.40330E-01 9.63401E-31
1.43375E-01 7.77773E-31
1.46447E-01 6.53165E-31
1.49545E-01 5.75050E-31
1.52671E-01 5.30617E-31
1.55823E-01 5.08947E-31
1.59001E-01 5.01066E-31
1.62205E-01 4.99900E-31
1.65435E-01 5.00139E-31
1.68690E-01 4.98062E-31
1.71970E-01 4.91316E-31
1.75276E-01 4.78684E-31
1.78606E-01 4.59852E-31
1.81961E-01 4.35186E-31
1.85340E-01 4.05524E-31
1.88743E-01 3.72002E-31
1.92169E-01 3.35899E-31
1.95619E-01 2.98515E-31
1.99092E-01 2.61082E-31
2.02589E-01 2.24692E-31
2.06107E-01 1.90256E-31
2.09649E-01 1.58484E-31
2.13212E-01 1.29877E-31
2.16797E-01 1.04738E-31
2.20404E-01 8.31878E-32
2.24032E-01 6.51905E-32
2.27680E-01 5.05818E-32
2.31350E-01 3.90985E-32
2.35040E-01 3.04078E-32
2.38751E-01 2.41342E-32
2.42481E-01 1.98841E-32
2.46231E-01 1.72656E-32
2.50000E-01 1.59057E-32
2.53788E-01 1.54622E-32
2.57595E-01 1.56325E-32
2.61421E-01 1.61590E-32
2.65264E-01 1.68306E-32
2.69126E-01 1.74828E-32
2.73005E-01 1.79951E-32
2.76901E-01 1.82866E-32
2.80814E-01 1.83116E-32
2.84744E-01 1.80533E-32
2.88691E-01 1.75189E-32
2.92653E-01 1.67332E-32
2.96632E-01 1.57335E-32
3.00625E-01 1.45651E-32
3.04634E-01 1.32767E-32
3.08658E-01 1.19173E-32
3.12697E-01 1.05332E-32
3.16749E-01 9.16618E-33
3.20816E-01 7.85210E-33
3.24896E-01 6.61999E-33
3.28990E-01 5.49187E-33
3.33097E-01 4.48278E-33
3.37216E-01 3.60128E-33
3.41348E-01 2.85006E-33
3.45492E-01 2.22681E-33
3.49647E-01 1.72513E-33
3.53814E-01 1.33544E-33
3.57992E-01 1.04588E-33
3.62181E-01 8.43237E-34
3.66381E-01 7.13611E-34
3.70590E-01 6.43135E-34
3.74810E-01 6.18484E-34
3.79039E-01 6.27306E-34
3.83277E-01 6.58517E-34
3.87524E-01 7.02505E-34
3.91780E-01 7.51227E-34
3.96044E-01 7.98229E-34
4.00316E-01 8.38595E-34
4.04596E-01 8.68850E-34
4.08882E-01 8.86811E-34
4.13176E-01 8.91425E-34
4.17476E-01 8.82586E-34
4.21783E-01 8.60949E-34
4.26095E-01 8.27751E-34
4.30413E-01 7.84634E-34
4.34737E-01 7.33501E-34
4.39065E-01 6.76373E-34
4.43398E-01 6.15276E-34
4.47736E-01 5.52151E-34
4.52077E-01 4.88780E-34
4.56422E-01 4.26737E-34
4.60770E-01 3.67354E-34
4.65122E-01 3.11704E-34
4.69476E-01 2.60599E-34
4.73832E-01 2.14600E-34
4.78190E-01 1.74031E-34
4.82550E-01 1.39007E-34
4.86912E-01 1.09459E-34
4.91274E-01 8.51656E-35
4.95637E-01 6.57845E-35
5.00000E-01 5.08829E-35
5.04363E-01 3.99660E-35
5.08726E-01 3.25039E-35
5.13088E-01 2.79542E-35
5.17450E-01 2.57820E-35
5.21810E-01 2.54761E-35
5.26168E-01 2.65615E-35
5.30524E-01 2.86085E-35
5.34878E-01 3.12391E-35
5.39230E-01 3.41300E-35
5.43578E-01 3.70137E-35
5.47923E-01 3.96770E-35
5.52264E-01 4.19587E-35
5.56602E-01 4.37449E-35
5.60935E-01 4.49650E-35
5.65263E-01 4.55851E-35
5.69587E-01 4.56032E-35
5.73905E-01 4.50430E-35
5.78217E-01 4.39484E-35
5.82524E-01 4.23779E-35
5.86824E-01 4.04006E-35
5.91118E-01 3.80911E-35
5.95404E-01 3.55262E-35
5.99684E-01 3.27816E-35
6.03956E-01 2.99298E-35
6.08220E-01 2.70375E-35
6.12476E-01 2.41651E-35
6.16723E-01 2.13645E-35
6.20961E-01 1.86800E-35
6.25190E-01 1.61471E-35
6.29410E-01 1.37933E-35
6.33619E-01 1.16379E-35
6.37819E-01 9.69328E-36
6.42008E-01 7.96499E-36
6.46186E-01 6.45306E-36
6.50353E-01 5.15243E-36
6.54508E-01 4.05412E-36
6.58652E-01 3.14587E-36
6.62784E-01 2.41311E-36
6.66903E-01 1.83951E-36
6.71010E-01 1.40778E-36
6.75104E-01 1.10023E-36
6.79184E-01 8.99239E-37
6.83251E-01 7.87696E-37
6.87303E-01 7.49338E-37
6.91342E-01 7.69005E-37
6.95366E-01 8.32823E-37
6.99375E-01 9.28336E-37
7.03368E-01 1.04456E-36
7.07347E-01 1.17201E-36
7.11309E-01 1.30267E-36
7.15256E-01 1.42993E-36
7.19186E-01 1.54854E-36
7.23099E-01 1.65440E-36
7.26995E-01 1.74464E-36
7.30874E-01 1.81728E-36
7.34736E-01 1.87123E-36
7.38579E-01 1.90617E-36
7.42405E-01 1.92234E-36
7.46212E-01 1.92052E-36
7.50000E-01 1.90187E-36
7.53769E-01 1.86782E-36
7.57519E-01 1.82004E-36
7.61249E-01 1.76029E-36
7.64960E-01 1.69042E-36
7.68650E-01 1.61230E-36
7.72320E-01 1.52766E-36
7.75968E-01 1.43828E-36
7.79596E-01 1.34573E-36
7.83203E-01 1.25150E-36
7.86788E-01 1.15693E-36
7.90351E-01 1.06319E-36
7.93893E-01 9.71289E-37
7.97411E-01 8.82134E-37
8.00908E-01 7.96425E-37
8.04381E-01 7.14757E-37
8.07831E-01 6.37566E-37
8.11257E-01 5.65181E-37
8.14660E-01 4.97805E-37
8.18039E-01 4.35573E-37
8.21394E-01 3.78489E-37
8.24724E-01 3.26521E-37
8.28030E-01 2.79549E-37
8.31310E-01 2.37409E-37
8.34565E-01 1.99900E-37
8.37795E-01 1.66771E-37
8.40999E-01 1.37772E-37
8.44177E-01 1.12610E-37
8.47329E-01 9.10009E-38
8.50455E-01 7.26477E-38
8.53553E-01 5.72538E-38
8.56625E-01 1.00000E-45
8.59670E-01 1.00000E-45
8.62687E-01 1.00000E-45
8.65677E-01 1.00000E-45
8.68639E-01 1.00000E-45
8.71572E-01 1.00000E-45
8.74478E-01 1.00000E-45
8.77355E-01 1.00000E-45
8.80203E-01 1.00000E-45
8.83022E-01 1.00000E-45
8.85812E-01 1.00000E-45
8.88573E-01 1.00000E-45
8.91304E-01 1.00000E-45
8.94005E-01 1.00000E-45
8.96677E-01 1.00000E-45
8.99318E-01 1.00000E-45
9.01928E-01 1.00000E-45
9.04508E-01 1.00000E-45
9.07058E-01 1.00000E-45
9.09576E-01 1.00000E-45
9.12063E-01 1.00000E-45
9.14519E-01 1.00000E-45
9.16943E-01 1.00000E-45
9.19335E-01 1.00000E-45
9.21696E-01 1.00000E-45
9.24024E-01 1.00000E-45
9.26320E-01 1.00000E-45
9.28584E-01 1.00000E-45
9.30815E-01 1.00000E-45
9.33013E-01 1.00000E-45
9.35178E-01 1.00000E-45
9.37310E-01 1.00000E-45
9.39409E-01 1.00000E-45
9.41474E-01 1.00000E-45
9.43505E-01 1.00000E-45
9.45503E-01 1.00000E-45
9.47467E-01 1.00000E-45
9.49397E-01 1.00000E-45
9.51293E-01 1.00000E-45
9.53154E-01 1.00000E-45
9.54981E-01 1.00000E-45
9.56773E-01 1.00000E-45
9.58530E-01 1.00000E-45
9.60252E-01 1.00000E-45
9.61940E-01 1.00000E-45
9.63592E-01 1.00000E-45
9.65209E-01 1.00000E-45
9.66790E-01 1.00000E-45
9.68336E-01 1.00000E-45
9.69846E-01 1.00000E-45
9.71321E-01 1.00000E-45
9.72759E-01 1.00000E-45
9.74162E-01 1.00000E-45
9.75528E-01 1.00000E-45
9.76858E-01 1.00000E-45
9.78152E-01 1.00000E-45
9.79410E-01 1.00000E-45
9.80631E-01 1.00000E-45
9.81815E-01 1.00000E-45
9.82963E-01 1.00000E-45
9.84074E-01 1.00000E-45
9.85148E-01 1.00000E-45
9.86185E-01 1.00000E-45
9.87185E-01 1.00000E-45
9.88148E-01 1.00000E-45
9.89074E-01 1.00000E-45
9.89962E-01 1.00000E-45
9.90814E-01 1.00000E-45
9.91627E-01 1.00000E-45
9.92404E-01 1.00000E-45
9.93143E-01 1.00000E-45
9.93844E-01 1.00000E-45
9.94508E-01 1.00000E-45
9.95134E-01 1.00000E-45
9.95722E-01 1.00000E-45
9.96273E-01 1.00000E-45
9.96786E-01 1.00000E-45
9.97261E-01 1.00000E-45
9.97698E-01 1.00000E-45
9.98097E-01 1.00000E-45
9.98459E-01 1.00000E-45
9.98782E-01 1.00000E-45
9.99067E-01 1.00000E-45
9.99315E-01 1.00000E-45
9.99524E-01 1.00000E-45
9.99695E-01 1.00000E-45
9.99829E-01 1.00000E-45
9.99924E-01 1.00000E-45
9.99981E-01 1.00000E-45
1.00000E+00 1.00000E-45
