 #
 # Subroutine ELSEPA. Elastic scattering of electrons and positrons
 #                    by neutral atoms and positive ions
 #
 # Projectile: electron
 # Kinetic energy = 1.25000E+08 eV = 4.59367E+06 a.u.
 #
 # WARNING: High-energy factorization with free-atom DF screening.
 #          Absorption, polarization and exchange corrections are
 #          switched off.
 #          Phase shifts are calculated for the bare nucleus.
 #          Scattering amplitudes are not evaluated.
 #
 # Element: Ac,  Z =  89,  atomic weight = 2.27028E+02 g/mol
 #
 # Nuclear model: Fermi distribution
 #                Average radius = 6.52745E-13 cm
 #                Skin thickness = 5.46000E-14 cm
 #
 # Number of electrons = 89
 #
 # Total elastic cross section = 1.15429E-17 cm**2 = 4.12206E-01 a0**2
 # 1st transport cross section = 9.47183E-25 cm**2 = 3.38245E-08 a0**2
 # 2nd transport cross section = 2.82600E-24 cm**2 = 1.00918E-07 a0**2
 #
 #
 # Differential cross section:                       MU=(1-COS(THETA))/2
 #
 #  THETA        MU          DCS          DCS        Sherman      error
 #  (deg)                 (cm**2/sr)   (a0**2/sr)    function
 #----------------------------------------------------------------------
0.00000E+00 2.38559E-09
7.61557E-13 2.36810E-09
1.18994E-12 2.35837E-09
1.71346E-12 2.34656E-09
2.33225E-12 2.33273E-09
3.04617E-12 2.31694E-09
3.85530E-12 2.29926E-09
4.75964E-12 2.27975E-09
5.75917E-12 2.25850E-09
6.85391E-12 2.23560E-09
8.04379E-12 2.21114E-09
9.32893E-12 2.18521E-09
1.07092E-11 2.15792E-09
1.21847E-11 2.12936E-09
1.37554E-11 2.09963E-09
1.54213E-11 2.06894E-09
1.71823E-11 2.03733E-09
1.90386E-11 2.00477E-09
2.09900E-11 1.97135E-09
2.30367E-11 1.93725E-09
2.51785E-11 1.90294E-09
2.74156E-11 1.86805E-09
2.97478E-11 1.83268E-09
3.21752E-11 1.79691E-09
3.46979E-11 1.76132E-09
3.73157E-11 1.72563E-09
4.00286E-11 1.68978E-09
4.28368E-11 1.65383E-09
4.57402E-11 1.61813E-09
4.87388E-11 1.58291E-09
5.18325E-11 1.54777E-09
5.50215E-11 1.51278E-09
5.83057E-11 1.47800E-09
6.16850E-11 1.44420E-09
6.51595E-11 1.41067E-09
6.87293E-11 1.37746E-09
7.23943E-11 1.34460E-09
7.61544E-11 1.31261E-09
1.18991E-10 1.02613E-09
1.71347E-10 8.03459E-10
2.33223E-10 6.36312E-10
3.04617E-10 5.11705E-10
3.85531E-10 4.17632E-10
4.75965E-10 3.45365E-10
5.75917E-10 2.88732E-10
6.85389E-10 2.43561E-10
8.04380E-10 2.07041E-10
9.32891E-10 1.77172E-10
1.07092E-09 1.52474E-10
1.21847E-09 1.31954E-10
1.37554E-09 1.14797E-10
1.54213E-09 9.99275E-11
1.71823E-09 8.73486E-11
1.90386E-09 7.70408E-11
2.09900E-09 6.85171E-11
2.30367E-09 6.12773E-11
2.51785E-09 5.44798E-11
2.74156E-09 4.87657E-11
2.97478E-09 4.39280E-11
3.21752E-09 3.98047E-11
3.46978E-09 3.59499E-11
3.73156E-09 3.25518E-11
4.00286E-09 2.96201E-11
4.28368E-09 2.70773E-11
4.57402E-09 2.47708E-11
4.87388E-09 2.26287E-11
5.18326E-09 2.07528E-11
5.50215E-09 1.91028E-11
5.83057E-09 1.76426E-11
6.16850E-09 1.62342E-11
6.51596E-09 1.49854E-11
6.87293E-09 1.38744E-11
7.23942E-09 1.28826E-11
7.61544E-09 1.19518E-11
1.18991E-08 6.08660E-12
1.71347E-08 3.44514E-12
2.33223E-08 2.09983E-12
3.04617E-08 1.34734E-12
3.85531E-08 9.01744E-13
4.75965E-08 6.24571E-13
5.75917E-08 4.46795E-13
6.85389E-08 3.28338E-13
8.04380E-08 2.46837E-13
9.32891E-08 1.89304E-13
1.07092E-07 1.47709E-13
1.21847E-07 1.16992E-13
1.37554E-07 9.38713E-14
1.54213E-07 7.61367E-14
1.71823E-07 6.24778E-14
1.90386E-07 5.17262E-14
2.09900E-07 4.32413E-14
2.30367E-07 3.63903E-14
2.51785E-07 3.08749E-14
2.74156E-07 2.63595E-14
2.97478E-07 2.26468E-14
3.21752E-07 1.95700E-14
3.46978E-07 1.69940E-14
3.73156E-07 1.48361E-14
4.00286E-07 1.30022E-14
4.28368E-07 1.14478E-14
4.57402E-07 1.01164E-14
4.87388E-07 8.97321E-15
5.18325E-07 7.98724E-15
5.50215E-07 7.13134E-15
5.83057E-07 6.38858E-15
6.16850E-07 5.73769E-15
6.51596E-07 5.16865E-15
6.87293E-07 4.66771E-15
7.23942E-07 4.22606E-15
7.61543E-07 3.83550E-15
1.18991E-06 1.62408E-15
1.71347E-06 8.01809E-16
2.33223E-06 4.40465E-16
3.04617E-06 2.61609E-16
3.85531E-06 1.64950E-16
4.75964E-06 1.09052E-16
5.75916E-06 7.49337E-17
6.85388E-06 5.31678E-17
8.04378E-06 3.87598E-17
9.32888E-06 2.89182E-17
1.07092E-05 2.20118E-17
1.21846E-05 1.70502E-17
1.37553E-05 1.34116E-17
1.54212E-05 1.06944E-17
1.71822E-05 8.63205E-18
1.90385E-05 7.03924E-18
2.09899E-05 5.80594E-18
2.30365E-05 4.83035E-18
2.51783E-05 4.05002E-18
2.74153E-05 3.42010E-18
2.97475E-05 2.90757E-18
3.21749E-05 2.48758E-18
3.46974E-05 2.14102E-18
3.73152E-05 1.85306E-18
4.00281E-05 1.61215E-18
4.28362E-05 1.40925E-18
4.57395E-05 1.23728E-18
4.87380E-05 1.09070E-18
5.18317E-05 9.65147E-19
5.50205E-05 8.57107E-19
5.83045E-05 7.63759E-19
6.16838E-05 6.82792E-19
6.51582E-05 6.12296E-19
6.87277E-05 5.50689E-19
7.23925E-05 4.96652E-19
7.61524E-05 4.48935E-19
9.21439E-05 3.07322E-19
1.09658E-04 2.17428E-19
1.28695E-04 1.58160E-19
1.49255E-04 1.17799E-19
1.71338E-04 8.95458E-20
1.94942E-04 6.92908E-20
2.20070E-04 5.44621E-20
2.46720E-04 4.34040E-20
2.74892E-04 3.50223E-20
3.04586E-04 2.85741E-20
3.35803E-04 2.35484E-20
3.68542E-04 1.95839E-20
4.02802E-04 1.64225E-20
4.38585E-04 1.38763E-20
4.75889E-04 1.18069E-20
5.14715E-04 1.01109E-20
5.55063E-04 8.71006E-21
5.96931E-04 7.54477E-21
6.40321E-04 6.56893E-21
6.85233E-04 5.74667E-21
7.31665E-04 5.04985E-21
7.79618E-04 4.45605E-21
8.29092E-04 3.94754E-21
8.80086E-04 3.50994E-21
9.32601E-04 3.13170E-21
9.86636E-04 2.80338E-21
1.04219E-03 2.51724E-21
1.09927E-03 2.26693E-21
1.15786E-03 2.04717E-21
1.21797E-03 1.85358E-21
1.27961E-03 1.68249E-21
1.34276E-03 1.53082E-21
1.40743E-03 1.39599E-21
1.47362E-03 1.27577E-21
1.54133E-03 1.16831E-21
1.61056E-03 1.07202E-21
1.68131E-03 9.85528E-22
1.75357E-03 9.07683E-22
1.82735E-03 8.37367E-22
1.90265E-03 7.73743E-22
1.97947E-03 7.16082E-22
2.05780E-03 6.63725E-22
2.13765E-03 6.16094E-22
2.21902E-03 5.72681E-22
2.30190E-03 5.33045E-22
2.38630E-03 4.96796E-22
2.47222E-03 4.63590E-22
2.55965E-03 4.33125E-22
2.64859E-03 4.05131E-22
2.73905E-03 3.79370E-22
2.83103E-03 3.55631E-22
2.92452E-03 3.33726E-22
3.01952E-03 3.13485E-22
3.11604E-03 2.94759E-22
3.21407E-03 2.77413E-22
3.31362E-03 2.61326E-22
3.41468E-03 2.46389E-22
3.51725E-03 2.32504E-22
3.62133E-03 2.19583E-22
3.72692E-03 2.07546E-22
3.83403E-03 1.96322E-22
3.94265E-03 1.85846E-22
4.05278E-03 1.76056E-22
4.16442E-03 1.66902E-22
4.27757E-03 1.58332E-22
4.39223E-03 1.50303E-22
4.50840E-03 1.42774E-22
4.62608E-03 1.35708E-22
4.74527E-03 1.29071E-22
4.86597E-03 1.22832E-22
4.98817E-03 1.16962E-22
5.11188E-03 1.11436E-22
5.23711E-03 1.06230E-22
5.36383E-03 1.01321E-22
5.49207E-03 9.66900E-23
5.62181E-03 9.23173E-23
5.75306E-03 8.81860E-23
5.88581E-03 8.42803E-23
6.02007E-03 8.05856E-23
6.15583E-03 7.70882E-23
6.29310E-03 7.37756E-23
6.43187E-03 7.06362E-23
6.57214E-03 6.76593E-23
6.71392E-03 6.48348E-23
6.85720E-03 6.21535E-23
7.00198E-03 5.96066E-23
7.14827E-03 5.71863E-23
7.29605E-03 5.48850E-23
7.44534E-03 5.26958E-23
7.59612E-03 5.06122E-23
7.97965E-03 4.58264E-23
8.37255E-03 4.15797E-23
8.77480E-03 3.78009E-23
9.18641E-03 3.44299E-23
9.60736E-03 3.14149E-23
1.00376E-02 2.87122E-23
1.04773E-02 2.62838E-23
1.09262E-02 2.40972E-23
1.13844E-02 2.21244E-23
1.18520E-02 2.03410E-23
1.23288E-02 1.87257E-23
1.28150E-02 1.72602E-23
1.33104E-02 1.59283E-23
1.38150E-02 1.47157E-23
1.43290E-02 1.36102E-23
1.48521E-02 1.26008E-23
1.53845E-02 1.16777E-23
1.59262E-02 1.08325E-23
1.64770E-02 1.00575E-23
1.70371E-02 9.34602E-24
1.76063E-02 8.69208E-24
1.81848E-02 8.09030E-24
1.87724E-02 7.53590E-24
1.93692E-02 7.02461E-24
1.99751E-02 6.55258E-24
2.05901E-02 6.11636E-24
2.12143E-02 5.71286E-24
2.18476E-02 5.33926E-24
2.24900E-02 4.99305E-24
2.31415E-02 4.67195E-24
2.38021E-02 4.37388E-24
2.44717E-02 4.09698E-24
2.51504E-02 3.83954E-24
2.58382E-02 3.60002E-24
2.65349E-02 3.37702E-24
2.72407E-02 3.16924E-24
2.79555E-02 2.97553E-24
2.86793E-02 2.79481E-24
2.94120E-02 2.62611E-24
3.01537E-02 2.46854E-24
3.09043E-02 2.32127E-24
3.16639E-02 2.18356E-24
3.24324E-02 2.05472E-24
3.32098E-02 1.93411E-24
3.39961E-02 1.82115E-24
3.47912E-02 1.71531E-24
3.55952E-02 1.61609E-24
3.64081E-02 1.52303E-24
3.72297E-02 1.43571E-24
3.80602E-02 1.35375E-24
3.88995E-02 1.27678E-24
3.97476E-02 1.20448E-24
4.06044E-02 1.13652E-24
4.14700E-02 1.07264E-24
4.23443E-02 1.01256E-24
4.32273E-02 9.56043E-25
4.41190E-02 9.02852E-25
4.50194E-02 8.52779E-25
4.59284E-02 8.05628E-25
4.68461E-02 7.61213E-25
4.87074E-02 6.79925E-25
5.06030E-02 6.07684E-25
5.25328E-02 5.43419E-25
5.44967E-02 4.86196E-25
5.64946E-02 4.35201E-25
5.85262E-02 3.89719E-25
6.05914E-02 3.49126E-25
6.26901E-02 3.12871E-25
6.48222E-02 2.80471E-25
6.69873E-02 2.51500E-25
6.91854E-02 2.25582E-25
7.14163E-02 2.02384E-25
7.36799E-02 1.81613E-25
7.59760E-02 1.63007E-25
7.83043E-02 1.46335E-25
8.06647E-02 1.31392E-25
8.30571E-02 1.17995E-25
8.54812E-02 1.05981E-25
8.79369E-02 9.52059E-26
9.04240E-02 8.55397E-26
9.29422E-02 7.68674E-26
9.54915E-02 6.90859E-26
9.80716E-02 6.21032E-26
1.00682E-01 5.58368E-26
1.03323E-01 5.02130E-26
1.05995E-01 4.51659E-26
1.08696E-01 4.06362E-26
1.11427E-01 3.65709E-26
1.14188E-01 3.29225E-26
1.16978E-01 2.96483E-26
1.19797E-01 2.67100E-26
1.22645E-01 2.40733E-26
1.25522E-01 2.17072E-26
1.28428E-01 1.95841E-26
1.31361E-01 1.76791E-26
1.34323E-01 1.59697E-26
1.37313E-01 1.44358E-26
1.40330E-01 1.30595E-26
1.43375E-01 1.18245E-26
1.46447E-01 1.07162E-26
1.49545E-01 9.72142E-27
1.52671E-01 8.82849E-27
1.55823E-01 8.02681E-27
1.59001E-01 7.30687E-27
1.62205E-01 6.66015E-27
1.65435E-01 6.07900E-27
1.68690E-01 5.55653E-27
1.71970E-01 5.08659E-27
1.75276E-01 4.66363E-27
1.78606E-01 4.28272E-27
1.81961E-01 3.93939E-27
1.85340E-01 3.62968E-27
1.88743E-01 3.35000E-27
1.92169E-01 3.09718E-27
1.95619E-01 2.86835E-27
1.99092E-01 2.66096E-27
2.02589E-01 2.47274E-27
2.06107E-01 2.30164E-27
2.09649E-01 2.14584E-27
2.13212E-01 2.00373E-27
2.16797E-01 1.87385E-27
2.20404E-01 1.75491E-27
2.24032E-01 1.64578E-27
2.27680E-01 1.54542E-27
2.31350E-01 1.45293E-27
2.35040E-01 1.36750E-27
2.38751E-01 1.28842E-27
2.42481E-01 1.21505E-27
2.46231E-01 1.14682E-27
2.50000E-01 1.08323E-27
2.53788E-01 1.02385E-27
2.57595E-01 9.68268E-28
2.61421E-01 9.16147E-28
2.65264E-01 8.67177E-28
2.69126E-01 8.21082E-28
2.73005E-01 7.77623E-28
2.76901E-01 7.36583E-28
2.80814E-01 6.97772E-28
2.84744E-01 6.61023E-28
2.88691E-01 6.26185E-28
2.92653E-01 5.93124E-28
2.96632E-01 5.61722E-28
3.00625E-01 5.31873E-28
3.04634E-01 5.03482E-28
3.08658E-01 4.76463E-28
3.12697E-01 4.50740E-28
3.16749E-01 4.26243E-28
3.20816E-01 4.02910E-28
3.24896E-01 3.80684E-28
3.28990E-01 3.59511E-28
3.33097E-01 3.39343E-28
3.37216E-01 3.20137E-28
3.41348E-01 3.01850E-28
3.45492E-01 2.84443E-28
3.49647E-01 2.67881E-28
3.53814E-01 2.52129E-28
3.57992E-01 2.37155E-28
3.62181E-01 2.22927E-28
3.66381E-01 2.09416E-28
3.70590E-01 1.96594E-28
3.74810E-01 1.84433E-28
3.79039E-01 1.72908E-28
3.83277E-01 1.61992E-28
3.87524E-01 1.51662E-28
3.91780E-01 1.41893E-28
3.96044E-01 1.32662E-28
4.00316E-01 1.23946E-28
4.04596E-01 1.15724E-28
4.08882E-01 1.07975E-28
4.13176E-01 1.00677E-28
4.17476E-01 9.38101E-29
4.21783E-01 8.73551E-29
4.26095E-01 8.12928E-29
4.30413E-01 7.56045E-29
4.34737E-01 7.02722E-29
4.39065E-01 6.52785E-29
4.43398E-01 6.06064E-29
4.47736E-01 5.62396E-29
4.52077E-01 5.21620E-29
4.56422E-01 4.83585E-29
4.60770E-01 4.48141E-29
4.65122E-01 4.15147E-29
4.69476E-01 3.84464E-29
4.73832E-01 3.55961E-29
4.78190E-01 3.29510E-29
4.82550E-01 3.04990E-29
4.86912E-01 2.82284E-29
4.91274E-01 2.61280E-29
4.95637E-01 2.41872E-29
5.00000E-01 2.23956E-29
5.04363E-01 2.07437E-29
5.08726E-01 1.92222E-29
5.13088E-01 1.78222E-29
5.17450E-01 1.65354E-29
5.21810E-01 1.53538E-29
5.26168E-01 1.42701E-29
5.30524E-01 1.32771E-29
5.34878E-01 1.23680E-29
5.39230E-01 1.15366E-29
5.43578E-01 1.07770E-29
5.47923E-01 1.00834E-29
5.52264E-01 9.45075E-30
5.56602E-01 8.87402E-30
5.60935E-01 8.34863E-30
5.65263E-01 7.87025E-30
5.69587E-01 7.43487E-30
5.73905E-01 7.03873E-30
5.78217E-01 6.67834E-30
5.82524E-01 6.35047E-30
5.86824E-01 6.05209E-30
5.91118E-01 5.78044E-30
5.95404E-01 5.53292E-30
5.99684E-01 5.30718E-30
6.03956E-01 5.10103E-30
6.08220E-01 4.91245E-30
6.12476E-01 4.73961E-30
6.16723E-01 4.58082E-30
6.20961E-01 4.43454E-30
6.25190E-01 4.29937E-30
6.29410E-01 4.17403E-30
6.33619E-01 4.05738E-30
6.37819E-01 3.94836E-30
6.42008E-01 3.84603E-30
6.46186E-01 3.74955E-30
6.50353E-01 3.65817E-30
6.54508E-01 3.57121E-30
6.58652E-01 3.48806E-30
6.62784E-01 3.40819E-30
6.66903E-01 3.33115E-30
6.71010E-01 3.25651E-30
6.75104E-01 3.18393E-30
6.79184E-01 3.11309E-30
6.83251E-01 3.04373E-30
6.87303E-01 2.97562E-30
6.91342E-01 2.90857E-30
6.95366E-01 2.84243E-30
6.99375E-01 2.77706E-30
7.03368E-01 2.71236E-30
7.07347E-01 2.64826E-30
7.11309E-01 2.58469E-30
7.15256E-01 2.52161E-30
7.19186E-01 2.45898E-30
7.23099E-01 2.39681E-30
7.26995E-01 2.33507E-30
7.30874E-01 2.27378E-30
7.34736E-01 2.21296E-30
7.38579E-01 2.15262E-30
7.42405E-01 2.09280E-30
7.46212E-01 2.03351E-30
7.50000E-01 1.97481E-30
7.53769E-01 1.91671E-30
7.57519E-01 1.85927E-30
7.61249E-01 1.80252E-30
7.64960E-01 1.74650E-30
7.68650E-01 1.69125E-30
7.72320E-01 1.63681E-30
7.75968E-01 1.58321E-30
7.79596E-01 1.53048E-30
7.83203E-01 1.47867E-30
7.86788E-01 1.42780E-30
7.90351E-01 1.37790E-30
7.93893E-01 1.32899E-30
7.97411E-01 1.28111E-30
8.00908E-01 1.23427E-30
8.04381E-01 1.18849E-30
8.07831E-01 1.14378E-30
8.11257E-01 1.10016E-30
8.14660E-01 1.05764E-30
8.18039E-01 1.01623E-30
8.21394E-01 9.75926E-31
8.24724E-01 9.36738E-31
8.28030E-01 8.98665E-31
8.31310E-01 8.61705E-31
8.34565E-01 8.25854E-31
8.37795E-01 7.91106E-31
8.40999E-01 7.57452E-31
8.44177E-01 7.24882E-31
8.47329E-01 6.93386E-31
8.50455E-01 6.62950E-31
8.53553E-01 6.33560E-31
8.56625E-01 6.05199E-31
8.59670E-01 5.77850E-31
8.62687E-01 5.51496E-31
8.65677E-01 5.26117E-31
8.68639E-01 5.01693E-31
8.71572E-01 4.78203E-31
8.74478E-01 4.55626E-31
8.77355E-01 4.33939E-31
8.80203E-01 4.13121E-31
8.83022E-01 3.93147E-31
8.85812E-01 3.73996E-31
8.88573E-01 3.55643E-31
8.91304E-01 3.38065E-31
8.94005E-01 3.21239E-31
8.96677E-01 3.05140E-31
8.99318E-01 2.89746E-31
9.01928E-01 2.75033E-31
9.04508E-01 2.60977E-31
9.07058E-01 2.47556E-31
9.09576E-01 2.34747E-31
9.12063E-01 2.22527E-31
9.14519E-01 2.10875E-31
9.16943E-01 1.99768E-31
9.19335E-01 1.89187E-31
9.21696E-01 1.79108E-31
9.24024E-01 1.69513E-31
9.26320E-01 1.60382E-31
9.28584E-01 1.51694E-31
9.30815E-01 1.43432E-31
9.33013E-01 1.35577E-31
9.35178E-01 1.28110E-31
9.37310E-01 1.21015E-31
9.39409E-01 1.14276E-31
9.41474E-01 1.07875E-31
9.43505E-01 1.01798E-31
9.45503E-01 9.60283E-32
9.47467E-01 9.05527E-32
9.49397E-01 8.53567E-32
9.51293E-01 8.04271E-32
9.53154E-01 7.57507E-32
9.54981E-01 7.13153E-32
9.56773E-01 6.71089E-32
9.58530E-01 6.31202E-32
9.60252E-01 5.93384E-32
9.61940E-01 5.57530E-32
9.63592E-01 5.23541E-32
9.65209E-01 4.91323E-32
9.66790E-01 4.60785E-32
9.68336E-01 4.31843E-32
9.69846E-01 4.04413E-32
9.71321E-01 3.78421E-32
9.72759E-01 3.53791E-32
9.74162E-01 3.30454E-32
9.75528E-01 3.08346E-32
9.76858E-01 2.87402E-32
9.78152E-01 2.67566E-32
9.79410E-01 2.48781E-32
9.80631E-01 2.30994E-32
9.81815E-01 2.14158E-32
9.82963E-01 1.98225E-32
9.84074E-01 1.83153E-32
9.85148E-01 1.68899E-32
9.86185E-01 1.55427E-32
9.87185E-01 1.42700E-32
9.88148E-01 1.30685E-32
9.89074E-01 1.19350E-32
9.89962E-01 1.08667E-32
9.90814E-01 9.86084E-33
9.91627E-01 8.91485E-33
9.92404E-01 8.02643E-33
9.93143E-01 7.19342E-33
9.93844E-01 6.41377E-33
9.94508E-01 5.68565E-33
9.95134E-01 5.00736E-33
9.95722E-01 4.37731E-33
9.96273E-01 3.79408E-33
9.96786E-01 3.25635E-33
9.97261E-01 2.76292E-33
9.97698E-01 2.31272E-33
9.98097E-01 1.90476E-33
9.98459E-01 1.53817E-33
9.98782E-01 1.21218E-33
9.99067E-01 9.26096E-34
9.99315E-01 6.79337E-34
9.99524E-01 4.71377E-34
9.99695E-01 3.01802E-34
9.99829E-01 1.70268E-34
9.99924E-01 7.64998E-35
9.99981E-01 2.03149E-35
1.00000E+00 1.59839E-36
