 #
 # Subroutine ELSEPA. Elastic scattering of electrons and positrons
 #                    by neutral atoms and positive ions
 #
 # Projectile: electron
 # Kinetic energy = 8.00000E+07 eV = 2.93995E+06 a.u.
 #
 # WARNING: High-energy factorization with free-atom DF screening.
 #          Absorption, polarization and exchange corrections are
 #          switched off.
 #          Phase shifts are calculated for the bare nucleus.
 #          Scattering amplitudes are not evaluated.
 #
 # Element: Ac,  Z =  89,  atomic weight = 2.27028E+02 g/mol
 #
 # Nuclear model: Fermi distribution
 #                Average radius = 6.52745E-13 cm
 #                Skin thickness = 5.46000E-14 cm
 #
 # Number of electrons = 89
 #
 # Total elastic cross section = 1.15435E-17 cm**2 = 4.12225E-01 a0**2
 # 1st transport cross section = 2.31288E-24 cm**2 = 8.25943E-08 a0**2
 # 2nd transport cross section = 6.85662E-24 cm**2 = 2.44854E-07 a0**2
 #
 #
 # Differential cross section:                       MU=(1-COS(THETA))/2
 #
 #  THETA        MU          DCS          DCS        Sherman      error
 #  (deg)                 (cm**2/sr)   (a0**2/sr)    function
 #----------------------------------------------------------------------
0.00000E+00 9.81617E-10
7.61557E-13 9.78643E-10
1.18994E-12 9.76979E-10
1.71346E-12 9.74952E-10
2.33225E-12 9.72566E-10
3.04617E-12 9.69826E-10
3.85530E-12 9.66735E-10
4.75964E-12 9.63300E-10
5.75917E-12 9.59526E-10
6.85391E-12 9.55421E-10
8.04379E-12 9.50991E-10
9.32893E-12 9.46244E-10
1.07092E-11 9.41189E-10
1.21847E-11 9.35835E-10
1.37554E-11 9.30188E-10
1.54213E-11 9.24261E-10
1.71823E-11 9.18062E-10
1.90386E-11 9.11602E-10
2.09900E-11 9.04890E-10
2.30367E-11 8.97938E-10
2.51785E-11 8.90756E-10
2.74156E-11 8.83355E-10
2.97478E-11 8.75747E-10
3.21752E-11 8.67942E-10
3.46979E-11 8.59953E-10
3.73157E-11 8.51827E-10
4.00286E-11 8.43540E-10
4.28368E-11 8.35086E-10
4.57402E-11 8.26476E-10
4.87388E-11 8.17719E-10
5.18325E-11 8.08826E-10
5.50215E-11 7.99807E-10
5.83057E-11 7.90801E-10
6.16850E-11 7.81701E-10
6.51595E-11 7.72505E-10
6.87293E-11 7.63223E-10
7.23943E-11 7.53864E-10
7.61544E-11 7.44437E-10
1.18991E-10 6.50280E-10
1.71347E-10 5.60187E-10
2.33223E-10 4.79031E-10
3.04617E-10 4.08669E-10
3.85531E-10 3.49183E-10
4.75965E-10 2.99646E-10
5.75917E-10 2.58562E-10
6.85389E-10 2.24553E-10
8.04380E-10 1.96230E-10
9.32891E-10 1.72510E-10
1.07092E-09 1.52489E-10
1.21847E-09 1.35425E-10
1.37554E-09 1.20807E-10
1.54213E-09 1.08152E-10
1.71823E-09 9.71669E-11
1.90386E-09 8.75473E-11
2.09900E-09 7.91078E-11
2.30367E-09 7.16592E-11
2.51785E-09 6.50705E-11
2.74156E-09 5.92234E-11
2.97478E-09 5.40177E-11
3.21752E-09 4.93783E-11
3.46978E-09 4.52256E-11
3.73156E-09 4.13439E-11
4.00286E-09 3.78762E-11
4.28368E-09 3.48314E-11
4.57402E-09 3.21476E-11
4.87388E-09 2.97732E-11
5.18326E-09 2.76650E-11
5.50215E-09 2.57868E-11
5.83057E-09 2.38917E-11
6.16850E-09 2.21831E-11
6.51596E-09 2.06537E-11
6.87293E-09 1.92809E-11
7.23942E-09 1.80450E-11
7.61544E-09 1.69294E-11
1.18991E-08 9.25178E-12
1.71347E-08 5.50459E-12
2.33223E-08 3.47885E-12
3.04617E-08 2.31227E-12
3.85531E-08 1.60159E-12
4.75965E-08 1.14559E-12
5.75917E-08 8.41536E-13
6.85389E-08 6.30897E-13
8.04380E-08 4.81990E-13
9.32891E-08 3.73892E-13
1.07092E-07 2.94168E-13
1.21847E-07 2.34607E-13
1.37554E-07 1.89601E-13
1.54213E-07 1.54917E-13
1.71823E-07 1.27877E-13
1.90386E-07 1.06497E-13
2.09900E-07 8.94452E-14
2.30367E-07 7.57021E-14
2.51785E-07 6.45255E-14
2.74156E-07 5.53505E-14
2.97478E-07 4.77525E-14
3.21752E-07 4.14176E-14
3.46978E-07 3.60976E-14
3.73156E-07 3.15862E-14
4.00286E-07 2.77754E-14
4.28368E-07 2.45480E-14
4.57402E-07 2.17452E-14
4.87388E-07 1.93478E-14
5.18325E-07 1.72769E-14
5.50215E-07 1.54665E-14
5.83057E-07 1.38967E-14
6.16850E-07 1.25188E-14
6.51596E-07 1.13067E-14
6.87293E-07 1.02436E-14
7.23942E-07 9.29764E-15
7.61543E-07 8.46064E-15
1.18991E-06 3.66180E-15
1.71347E-06 1.83018E-15
2.33223E-06 1.01241E-15
3.04617E-06 6.04725E-16
3.85531E-06 3.83350E-16
4.75964E-06 2.54720E-16
5.75916E-06 1.75825E-16
6.85388E-06 1.25243E-16
8.04378E-06 9.15970E-17
9.32888E-06 6.85191E-17
1.07092E-05 5.22660E-17
1.21846E-05 4.05538E-17
1.37553E-05 3.19438E-17
1.54212E-05 2.55012E-17
1.71822E-05 2.06033E-17
1.90385E-05 1.68152E-17
2.09899E-05 1.38791E-17
2.30365E-05 1.15544E-17
2.51783E-05 9.69341E-18
2.74153E-05 8.19013E-18
2.97475E-05 6.96626E-18
3.21749E-05 5.96280E-18
3.46974E-05 5.13439E-18
3.73152E-05 4.44573E-18
4.00281E-05 3.86933E-18
4.28362E-05 3.38368E-18
4.57395E-05 2.97189E-18
4.87380E-05 2.62080E-18
5.18317E-05 2.31991E-18
5.50205E-05 2.06093E-18
5.83045E-05 1.83707E-18
6.16838E-05 1.64284E-18
6.51582E-05 1.47367E-18
6.87277E-05 1.32579E-18
7.23925E-05 1.19604E-18
7.61524E-05 1.08109E-18
9.21439E-05 7.40655E-19
1.09658E-04 5.24334E-19
1.28695E-04 3.81586E-19
1.49255E-04 2.84305E-19
1.71338E-04 2.16163E-19
1.94942E-04 1.67288E-19
2.20070E-04 1.31491E-19
2.46720E-04 1.04788E-19
2.74892E-04 8.45436E-20
3.04586E-04 6.89663E-20
3.35803E-04 5.68245E-20
3.68542E-04 4.72457E-20
4.02802E-04 3.96073E-20
4.38585E-04 3.34560E-20
4.75889E-04 2.84567E-20
5.14715E-04 2.43602E-20
5.55063E-04 2.09771E-20
5.96931E-04 1.81635E-20
6.40321E-04 1.58079E-20
6.85233E-04 1.38235E-20
7.31665E-04 1.21423E-20
7.79618E-04 1.07101E-20
8.29092E-04 9.48396E-21
8.80086E-04 8.42921E-21
9.32601E-04 7.51782E-21
9.86636E-04 6.72703E-21
1.04219E-03 6.03807E-21
1.09927E-03 5.43564E-21
1.15786E-03 4.90692E-21
1.21797E-03 4.44137E-21
1.27961E-03 4.03009E-21
1.34276E-03 3.66565E-21
1.40743E-03 3.34178E-21
1.47362E-03 3.05315E-21
1.54133E-03 2.79523E-21
1.61056E-03 2.56421E-21
1.68131E-03 2.35672E-21
1.75357E-03 2.16999E-21
1.82735E-03 2.00153E-21
1.90265E-03 1.84924E-21
1.97947E-03 1.71128E-21
2.05780E-03 1.58605E-21
2.13765E-03 1.47218E-21
2.21902E-03 1.36843E-21
2.30190E-03 1.27374E-21
2.38630E-03 1.18718E-21
2.47222E-03 1.10791E-21
2.55965E-03 1.03521E-21
2.64859E-03 9.68431E-22
2.73905E-03 9.07002E-22
2.83103E-03 8.50412E-22
2.92452E-03 7.98210E-22
3.01952E-03 7.49990E-22
3.11604E-03 7.05392E-22
3.21407E-03 6.64092E-22
3.31362E-03 6.25800E-22
3.41468E-03 5.90256E-22
3.51725E-03 5.57224E-22
3.62133E-03 5.26494E-22
3.72692E-03 4.97874E-22
3.83403E-03 4.71194E-22
3.94265E-03 4.46296E-22
4.05278E-03 4.23039E-22
4.16442E-03 4.01299E-22
4.27757E-03 3.80961E-22
4.39223E-03 3.61886E-22
4.50840E-03 3.43993E-22
4.62608E-03 3.27202E-22
4.74527E-03 3.11432E-22
4.86597E-03 2.96609E-22
4.98817E-03 2.82665E-22
5.11188E-03 2.69537E-22
5.23711E-03 2.57168E-22
5.36383E-03 2.45507E-22
5.49207E-03 2.34504E-22
5.62181E-03 2.24115E-22
5.75306E-03 2.14299E-22
5.88581E-03 2.05019E-22
6.02007E-03 1.96239E-22
6.15583E-03 1.87927E-22
6.29310E-03 1.80053E-22
6.43187E-03 1.72590E-22
6.57214E-03 1.65511E-22
6.71392E-03 1.58794E-22
6.85720E-03 1.52416E-22
7.00198E-03 1.46356E-22
7.14827E-03 1.40596E-22
7.29605E-03 1.35118E-22
7.44534E-03 1.29905E-22
7.59612E-03 1.24942E-22
7.97965E-03 1.13535E-22
8.37255E-03 1.03404E-22
8.77480E-03 9.43789E-23
9.18641E-03 8.63177E-23
9.60736E-03 7.90984E-23
1.00376E-02 7.26169E-23
1.04773E-02 6.67840E-23
1.09262E-02 6.15228E-23
1.13844E-02 5.67669E-23
1.18520E-02 5.24589E-23
1.23288E-02 4.85488E-23
1.28150E-02 4.49930E-23
1.33104E-02 4.17535E-23
1.38150E-02 3.87970E-23
1.43290E-02 3.60943E-23
1.48521E-02 3.36194E-23
1.53845E-02 3.13497E-23
1.59262E-02 2.92650E-23
1.64770E-02 2.73475E-23
1.70371E-02 2.55812E-23
1.76063E-02 2.39522E-23
1.81848E-02 2.24478E-23
1.87724E-02 2.10567E-23
1.93692E-02 1.97688E-23
1.99751E-02 1.85751E-23
2.05901E-02 1.74674E-23
2.12143E-02 1.64385E-23
2.18476E-02 1.54817E-23
2.24900E-02 1.45911E-23
2.31415E-02 1.37613E-23
2.38021E-02 1.29874E-23
2.44717E-02 1.22650E-23
2.51504E-02 1.15900E-23
2.58382E-02 1.09588E-23
2.65349E-02 1.03680E-23
2.72407E-02 9.81464E-24
2.79555E-02 9.29592E-24
2.86793E-02 8.80930E-24
2.94120E-02 8.35244E-24
3.01537E-02 7.92323E-24
3.09043E-02 7.51971E-24
3.16639E-02 7.14008E-24
3.24324E-02 6.78269E-24
3.32098E-02 6.44603E-24
3.39961E-02 6.12870E-24
3.47912E-02 5.82940E-24
3.55952E-02 5.54695E-24
3.64081E-02 5.28024E-24
3.72297E-02 5.02826E-24
3.80602E-02 4.79007E-24
3.88995E-02 4.56479E-24
3.97476E-02 4.35161E-24
4.06044E-02 4.14979E-24
4.14700E-02 3.95862E-24
4.23443E-02 3.77746E-24
4.32273E-02 3.60571E-24
4.41190E-02 3.44280E-24
4.50194E-02 3.28821E-24
4.59284E-02 3.14146E-24
4.68461E-02 3.00209E-24
4.87074E-02 2.74381E-24
5.06030E-02 2.51031E-24
5.25328E-02 2.29889E-24
5.44967E-02 2.10720E-24
5.64946E-02 1.93317E-24
5.85262E-02 1.77496E-24
6.05914E-02 1.63098E-24
6.26901E-02 1.49977E-24
6.48222E-02 1.38009E-24
6.69873E-02 1.27080E-24
6.91854E-02 1.17090E-24
7.14163E-02 1.07950E-24
7.36799E-02 9.95802E-25
7.59760E-02 9.19087E-25
7.83043E-02 8.48715E-25
8.06647E-02 7.84111E-25
8.30571E-02 7.24759E-25
8.54812E-02 6.70193E-25
8.79369E-02 6.19992E-25
9.04240E-02 5.73777E-25
9.29422E-02 5.31206E-25
9.54915E-02 4.91967E-25
9.80716E-02 4.55781E-25
1.00682E-01 4.22391E-25
1.03323E-01 3.91566E-25
1.05995E-01 3.63095E-25
1.08696E-01 3.36785E-25
1.11427E-01 3.12463E-25
1.14188E-01 2.89969E-25
1.16978E-01 2.69156E-25
1.19797E-01 2.49893E-25
1.22645E-01 2.32057E-25
1.25522E-01 2.15537E-25
1.28428E-01 2.00231E-25
1.31361E-01 1.86046E-25
1.34323E-01 1.72895E-25
1.37313E-01 1.60699E-25
1.40330E-01 1.49388E-25
1.43375E-01 1.38893E-25
1.46447E-01 1.29153E-25
1.49545E-01 1.20113E-25
1.52671E-01 1.11721E-25
1.55823E-01 1.03928E-25
1.59001E-01 9.66899E-26
1.62205E-01 8.99669E-26
1.65435E-01 8.37210E-26
1.68690E-01 7.79174E-26
1.71970E-01 7.25242E-26
1.75276E-01 6.75116E-26
1.78606E-01 6.28523E-26
1.81961E-01 5.85209E-26
1.85340E-01 5.44939E-26
1.88743E-01 5.07495E-26
1.92169E-01 4.72676E-26
1.95619E-01 4.40297E-26
1.99092E-01 4.10182E-26
2.02589E-01 3.82173E-26
2.06107E-01 3.56120E-26
2.09649E-01 3.31886E-26
2.13212E-01 3.09342E-26
2.16797E-01 2.88369E-26
2.20404E-01 2.68858E-26
2.24032E-01 2.50705E-26
2.27680E-01 2.33815E-26
2.31350E-01 2.18101E-26
2.35040E-01 2.03479E-26
2.38751E-01 1.89873E-26
2.42481E-01 1.77213E-26
2.46231E-01 1.65432E-26
2.50000E-01 1.54469E-26
2.53788E-01 1.44266E-26
2.57595E-01 1.34771E-26
2.61421E-01 1.25935E-26
2.65264E-01 1.17711E-26
2.69126E-01 1.10056E-26
2.73005E-01 1.02932E-26
2.76901E-01 9.62998E-27
2.80814E-01 9.01264E-27
2.84744E-01 8.43794E-27
2.88691E-01 7.90290E-27
2.92653E-01 7.40475E-27
2.96632E-01 6.94090E-27
3.00625E-01 6.50895E-27
3.04634E-01 6.10667E-27
3.08658E-01 5.73197E-27
3.12697E-01 5.38293E-27
3.16749E-01 5.05773E-27
3.20816E-01 4.75471E-27
3.24896E-01 4.47231E-27
3.28990E-01 4.20906E-27
3.33097E-01 3.96364E-27
3.37216E-01 3.73477E-27
3.41348E-01 3.52129E-27
3.45492E-01 3.32212E-27
3.49647E-01 3.13624E-27
3.53814E-01 2.96272E-27
3.57992E-01 2.80069E-27
3.62181E-01 2.64932E-27
3.66381E-01 2.50787E-27
3.70590E-01 2.37564E-27
3.74810E-01 2.25197E-27
3.79039E-01 2.13625E-27
3.83277E-01 2.02793E-27
3.87524E-01 1.92649E-27
3.91780E-01 1.83142E-27
3.96044E-01 1.74230E-27
4.00316E-01 1.65869E-27
4.04596E-01 1.58020E-27
4.08882E-01 1.50649E-27
4.13176E-01 1.43720E-27
4.17476E-01 1.37204E-27
4.21783E-01 1.31071E-27
4.26095E-01 1.25294E-27
4.30413E-01 1.19849E-27
4.34737E-01 1.14713E-27
4.39065E-01 1.09864E-27
4.43398E-01 1.05283E-27
4.47736E-01 1.00950E-27
4.52077E-01 9.68505E-28
4.56422E-01 9.29671E-28
4.60770E-01 8.92855E-28
4.65122E-01 8.57923E-28
4.69476E-01 8.24750E-28
4.73832E-01 7.93219E-28
4.78190E-01 7.63223E-28
4.82550E-01 7.34663E-28
4.86912E-01 7.07446E-28
4.91274E-01 6.81487E-28
4.95637E-01 6.56706E-28
5.00000E-01 6.33032E-28
5.04363E-01 6.10396E-28
5.08726E-01 5.88735E-28
5.13088E-01 5.67991E-28
5.17450E-01 5.48110E-28
5.21810E-01 5.29042E-28
5.26168E-01 5.10741E-28
5.30524E-01 4.93164E-28
5.34878E-01 4.76272E-28
5.39230E-01 4.60026E-28
5.43578E-01 4.44394E-28
5.47923E-01 4.29343E-28
5.52264E-01 4.14844E-28
5.56602E-01 4.00870E-28
5.60935E-01 3.87394E-28
5.65263E-01 3.74393E-28
5.69587E-01 3.61845E-28
5.73905E-01 3.49730E-28
5.78217E-01 3.38027E-28
5.82524E-01 3.26720E-28
5.86824E-01 3.15792E-28
5.91118E-01 3.05226E-28
5.95404E-01 2.95008E-28
5.99684E-01 2.85124E-28
6.03956E-01 2.75562E-28
6.08220E-01 2.66308E-28
6.12476E-01 2.57353E-28
6.16723E-01 2.48684E-28
6.20961E-01 2.40292E-28
6.25190E-01 2.32167E-28
6.29410E-01 2.24300E-28
6.33619E-01 2.16682E-28
6.37819E-01 2.09305E-28
6.42008E-01 2.02161E-28
6.46186E-01 1.95243E-28
6.50353E-01 1.88543E-28
6.54508E-01 1.82056E-28
6.58652E-01 1.75773E-28
6.62784E-01 1.69690E-28
6.66903E-01 1.63800E-28
6.71010E-01 1.58096E-28
6.75104E-01 1.52575E-28
6.79184E-01 1.47230E-28
6.83251E-01 1.42056E-28
6.87303E-01 1.37049E-28
6.91342E-01 1.32202E-28
6.95366E-01 1.27513E-28
6.99375E-01 1.22976E-28
7.03368E-01 1.18586E-28
7.07347E-01 1.14340E-28
7.11309E-01 1.10234E-28
7.15256E-01 1.06262E-28
7.19186E-01 1.02423E-28
7.23099E-01 9.87108E-29
7.26995E-01 9.51227E-29
7.30874E-01 9.16550E-29
7.34736E-01 8.83041E-29
7.38579E-01 8.50666E-29
7.42405E-01 8.19391E-29
7.46212E-01 7.89183E-29
7.50000E-01 7.60012E-29
7.53769E-01 7.31845E-29
7.57519E-01 7.04652E-29
7.61249E-01 6.78405E-29
7.64960E-01 6.53073E-29
7.68650E-01 6.28629E-29
7.72320E-01 6.05045E-29
7.75968E-01 5.82294E-29
7.79596E-01 5.60351E-29
7.83203E-01 5.39190E-29
7.86788E-01 5.18785E-29
7.90351E-01 4.99113E-29
7.93893E-01 4.80151E-29
7.97411E-01 4.61874E-29
8.00908E-01 4.44260E-29
8.04381E-01 4.27288E-29
8.07831E-01 4.10936E-29
8.11257E-01 3.95184E-29
8.14660E-01 3.80012E-29
8.18039E-01 3.65398E-29
8.21394E-01 3.51326E-29
8.24724E-01 3.37775E-29
8.28030E-01 3.24729E-29
8.31310E-01 3.12168E-29
8.34565E-01 3.00077E-29
8.37795E-01 2.88438E-29
8.40999E-01 2.77237E-29
8.44177E-01 2.66456E-29
8.47329E-01 2.56080E-29
8.50455E-01 2.46096E-29
8.53553E-01 2.36489E-29
8.56625E-01 2.27245E-29
8.59670E-01 2.18350E-29
8.62687E-01 2.09792E-29
8.65677E-01 2.01558E-29
8.68639E-01 1.93636E-29
8.71572E-01 1.86015E-29
8.74478E-01 1.78682E-29
8.77355E-01 1.71627E-29
8.80203E-01 1.64839E-29
8.83022E-01 1.58309E-29
8.85812E-01 1.52025E-29
8.88573E-01 1.45979E-29
8.91304E-01 1.40161E-29
8.94005E-01 1.34563E-29
8.96677E-01 1.29176E-29
8.99318E-01 1.23991E-29
9.01928E-01 1.19001E-29
9.04508E-01 1.14198E-29
9.07058E-01 1.09575E-29
9.09576E-01 1.05124E-29
9.12063E-01 1.00839E-29
9.14519E-01 9.67130E-30
9.16943E-01 9.27400E-30
9.19335E-01 8.89137E-30
9.21696E-01 8.52285E-30
9.24024E-01 8.16788E-30
9.26320E-01 7.82591E-30
9.28584E-01 7.49643E-30
9.30815E-01 7.17897E-30
9.33013E-01 6.87303E-30
9.35178E-01 6.57818E-30
9.37310E-01 6.29398E-30
9.39409E-01 6.02002E-30
9.41474E-01 5.75590E-30
9.43505E-01 5.50125E-30
9.45503E-01 5.25570E-30
9.47467E-01 5.01892E-30
9.49397E-01 4.79056E-30
9.51293E-01 4.57033E-30
9.53154E-01 4.35792E-30
9.54981E-01 4.15304E-30
9.56773E-01 3.95543E-30
9.58530E-01 3.76482E-30
9.60252E-01 3.58097E-30
9.61940E-01 3.40365E-30
9.63592E-01 3.23263E-30
9.65209E-01 3.06771E-30
9.66790E-01 2.90867E-30
9.68336E-01 2.75534E-30
9.69846E-01 2.60752E-30
9.71321E-01 2.46506E-30
9.72759E-01 2.32778E-30
9.74162E-01 2.19554E-30
9.75528E-01 2.06818E-30
9.76858E-01 1.94558E-30
9.78152E-01 1.82760E-30
9.79410E-01 1.71411E-30
9.80631E-01 1.60501E-30
9.81815E-01 1.50018E-30
9.82963E-01 1.39952E-30
9.84074E-01 1.30293E-30
9.85148E-01 1.21033E-30
9.86185E-01 1.12162E-30
9.87185E-01 1.03674E-30
9.88148E-01 9.55587E-31
9.89074E-01 8.78109E-31
9.89962E-01 8.04234E-31
9.90814E-01 7.33902E-31
9.91627E-01 6.67054E-31
9.92404E-01 6.03635E-31
9.93143E-01 5.43597E-31
9.93844E-01 4.86892E-31
9.94508E-01 4.33477E-31
9.95134E-01 3.83311E-31
9.95722E-01 3.36359E-31
9.96273E-01 2.92584E-31
9.96786E-01 2.51957E-31
9.97261E-01 2.14448E-31
9.97698E-01 1.80032E-31
9.98097E-01 1.48684E-31
9.98459E-01 1.20384E-31
9.98782E-01 9.51119E-32
9.99067E-01 7.28519E-32
9.99315E-01 5.35888E-32
9.99524E-01 3.73104E-32
9.99695E-01 2.40058E-32
9.99829E-01 1.36666E-32
9.99924E-01 6.28617E-33
9.99981E-01 1.85980E-33
1.00000E+00 3.84674E-34
