 #
 # Subroutine ELSEPA. Elastic scattering of electrons and positrons
 #                    by neutral atoms and positive ions
 #
 # Projectile: electron
 # Kinetic energy = 3.50000E+07 eV = 1.28623E+06 a.u.
 #
 # WARNING: High-energy factorization with free-atom DF screening.
 #          Absorption, polarization and exchange corrections are
 #          switched off.
 #          Phase shifts are calculated for the bare nucleus.
 #          Scattering amplitudes are not evaluated.
 #
 # Element: Ac,  Z =  89,  atomic weight = 2.27028E+02 g/mol
 #
 # Nuclear model: Fermi distribution
 #                Average radius = 6.52745E-13 cm
 #                Skin thickness = 5.46000E-14 cm
 #
 # Number of electrons = 89
 #
 # Total elastic cross section = 1.15471E-17 cm**2 = 4.12354E-01 a0**2
 # 1st transport cross section = 1.19564E-23 cm**2 = 4.26971E-07 a0**2
 # 2nd transport cross section = 3.44722E-23 cm**2 = 1.23102E-06 a0**2
 #
 #
 # Differential cross section:                       MU=(1-COS(THETA))/2
 #
 #  THETA        MU          DCS          DCS        Sherman      error
 #  (deg)                 (cm**2/sr)   (a0**2/sr)    function
 #----------------------------------------------------------------------
0.00000E+00 1.90967E-10
7.61557E-13 1.90853E-10
1.18994E-12 1.90790E-10
1.71346E-12 1.90713E-10
2.33225E-12 1.90621E-10
3.04617E-12 1.90516E-10
3.85530E-12 1.90397E-10
4.75964E-12 1.90264E-10
5.75917E-12 1.90117E-10
6.85391E-12 1.89957E-10
8.04379E-12 1.89782E-10
9.32893E-12 1.89594E-10
1.07092E-11 1.89393E-10
1.21847E-11 1.89178E-10
1.37554E-11 1.88949E-10
1.54213E-11 1.88708E-10
1.71823E-11 1.88453E-10
1.90386E-11 1.88185E-10
2.09900E-11 1.87903E-10
2.30367E-11 1.87609E-10
2.51785E-11 1.87302E-10
2.74156E-11 1.86982E-10
2.97478E-11 1.86650E-10
3.21752E-11 1.86305E-10
3.46979E-11 1.85947E-10
3.73157E-11 1.85577E-10
4.00286E-11 1.85195E-10
4.28368E-11 1.84801E-10
4.57402E-11 1.84395E-10
4.87388E-11 1.83978E-10
5.18325E-11 1.83548E-10
5.50215E-11 1.83107E-10
5.83057E-11 1.82655E-10
6.16850E-11 1.82192E-10
6.51595E-11 1.81717E-10
6.87293E-11 1.81232E-10
7.23943E-11 1.80736E-10
7.61544E-11 1.80229E-10
1.18991E-10 1.74617E-10
1.71347E-10 1.68139E-10
2.33223E-10 1.61002E-10
3.04617E-10 1.53348E-10
3.85531E-10 1.45391E-10
4.75965E-10 1.37306E-10
5.75917E-10 1.29197E-10
6.85389E-10 1.21244E-10
8.04380E-10 1.13521E-10
9.32891E-10 1.06072E-10
1.07092E-09 9.90293E-11
1.21847E-09 9.23659E-11
1.37554E-09 8.60904E-11
1.54213E-09 8.02868E-11
1.71823E-09 7.48715E-11
1.90386E-09 6.98501E-11
2.09900E-09 6.52397E-11
2.30367E-09 6.09728E-11
2.51785E-09 5.70461E-11
2.74156E-09 5.34422E-11
2.97478E-09 5.01165E-11
3.21752E-09 4.70601E-11
3.46978E-09 4.42461E-11
3.73156E-09 4.16481E-11
4.00286E-09 3.92532E-11
4.28368E-09 3.70385E-11
4.57402E-09 3.49887E-11
4.87388E-09 3.30882E-11
5.18326E-09 3.13232E-11
5.50215E-09 2.96842E-11
5.83057E-09 2.81535E-11
6.16850E-09 2.67274E-11
6.51596E-09 2.53968E-11
6.87293E-09 2.41477E-11
7.23942E-09 2.29801E-11
7.61544E-09 2.18851E-11
1.18991E-08 1.38711E-11
1.71347E-08 9.22251E-12
2.33223E-08 6.31765E-12
3.04617E-08 4.55055E-12
3.85531E-08 3.35812E-12
4.75965E-08 2.53440E-12
5.75917E-08 1.96146E-12
6.85389E-08 1.53582E-12
8.04380E-08 1.22102E-12
9.32891E-08 9.85996E-13
1.07092E-07 8.02006E-13
1.21847E-07 6.60442E-13
1.37554E-07 5.50020E-13
1.54213E-07 4.60665E-13
1.71823E-07 3.89640E-13
1.90386E-07 3.32165E-13
2.09900E-07 2.84577E-13
2.30367E-07 2.45559E-13
2.51785E-07 2.13026E-13
2.74156E-07 1.85550E-13
2.97478E-07 1.62489E-13
3.21752E-07 1.42815E-13
3.46978E-07 1.25964E-13
3.73156E-07 1.11574E-13
4.00286E-07 9.90937E-14
4.28368E-07 8.83226E-14
4.57402E-07 7.90047E-14
4.87388E-07 7.07651E-14
5.18325E-07 6.35866E-14
5.50215E-07 5.73137E-14
5.83057E-07 5.17757E-14
6.16850E-07 4.69107E-14
6.51596E-07 4.26152E-14
6.87293E-07 3.87944E-14
7.23942E-07 3.54039E-14
7.61543E-07 3.23789E-14
1.18991E-06 1.46111E-14
1.71347E-06 7.56188E-15
2.33223E-06 4.29838E-15
3.04617E-06 2.62678E-15
3.85531E-06 1.69540E-15
4.75964E-06 1.14388E-15
5.75916E-06 7.99338E-16
6.85388E-06 5.75070E-16
8.04378E-06 4.24140E-16
9.32888E-06 3.19460E-16
1.07092E-05 2.45167E-16
1.21846E-05 1.91269E-16
1.37553E-05 1.51405E-16
1.54212E-05 1.21429E-16
1.71822E-05 9.85269E-17
1.90385E-05 8.07352E-17
2.09899E-05 6.68896E-17
2.30365E-05 5.58779E-17
2.51783E-05 4.70298E-17
2.74153E-05 3.98544E-17
2.97475E-05 3.39910E-17
3.21749E-05 2.91679E-17
3.46974E-05 2.51726E-17
3.73152E-05 2.18417E-17
4.00281E-05 1.90462E-17
4.28362E-05 1.66842E-17
4.57395E-05 1.46770E-17
4.87380E-05 1.29616E-17
5.18317E-05 1.14886E-17
5.50205E-05 1.02185E-17
5.83045E-05 9.11859E-18
6.16838E-05 8.16285E-18
6.51582E-05 7.32925E-18
6.87277E-05 6.59951E-18
7.23925E-05 5.95850E-18
7.61524E-05 5.39134E-18
9.21439E-05 3.70320E-18
1.09658E-04 2.62708E-18
1.28695E-04 1.91520E-18
1.49255E-04 1.42908E-18
1.71338E-04 1.08799E-18
1.94942E-04 8.42953E-19
2.20070E-04 6.63257E-19
2.46720E-04 5.29037E-19
2.74892E-04 4.27164E-19
3.04586E-04 3.48697E-19
3.35803E-04 2.87475E-19
3.68542E-04 2.39135E-19
4.02802E-04 2.00555E-19
4.38585E-04 1.69464E-19
4.75889E-04 1.44179E-19
5.14715E-04 1.23448E-19
5.55063E-04 1.06318E-19
5.96931E-04 9.20649E-20
6.40321E-04 8.01268E-20
6.85233E-04 7.00664E-20
7.31665E-04 6.15404E-20
7.79618E-04 5.42753E-20
8.29092E-04 4.80544E-20
8.80086E-04 4.27019E-20
9.32601E-04 3.80765E-20
9.86636E-04 3.40627E-20
1.04219E-03 3.05656E-20
1.09927E-03 2.75077E-20
1.15786E-03 2.48240E-20
1.21797E-03 2.24609E-20
1.27961E-03 2.03736E-20
1.34276E-03 1.85242E-20
1.40743E-03 1.68809E-20
1.47362E-03 1.54165E-20
1.54133E-03 1.41084E-20
1.61056E-03 1.29367E-20
1.68131E-03 1.18848E-20
1.75357E-03 1.09383E-20
1.82735E-03 1.00846E-20
1.90265E-03 9.31310E-21
1.97947E-03 8.61440E-21
2.05780E-03 7.98042E-21
2.13765E-03 7.40406E-21
2.21902E-03 6.87914E-21
2.30190E-03 6.40025E-21
2.38630E-03 5.96260E-21
2.47222E-03 5.56200E-21
2.55965E-03 5.19472E-21
2.64859E-03 4.85750E-21
2.73905E-03 4.54743E-21
2.83103E-03 4.26190E-21
2.92452E-03 3.99862E-21
3.01952E-03 3.75552E-21
3.11604E-03 3.53079E-21
3.21407E-03 3.32277E-21
3.31362E-03 3.12999E-21
3.41468E-03 2.95112E-21
3.51725E-03 2.78496E-21
3.62133E-03 2.63045E-21
3.72692E-03 2.48662E-21
3.83403E-03 2.35259E-21
3.94265E-03 2.22757E-21
4.05278E-03 2.11082E-21
4.16442E-03 2.00171E-21
4.27757E-03 1.89964E-21
4.39223E-03 1.80407E-21
4.50840E-03 1.71450E-21
4.62608E-03 1.63048E-21
4.74527E-03 1.55161E-21
4.86597E-03 1.47752E-21
4.98817E-03 1.40785E-21
5.11188E-03 1.34228E-21
5.23711E-03 1.28054E-21
5.36383E-03 1.22236E-21
5.49207E-03 1.16748E-21
5.62181E-03 1.11570E-21
5.75306E-03 1.06679E-21
5.88581E-03 1.02057E-21
6.02007E-03 9.76858E-22
6.15583E-03 9.35498E-22
6.29310E-03 8.96336E-22
6.43187E-03 8.59230E-22
6.57214E-03 8.24052E-22
6.71392E-03 7.90684E-22
6.85720E-03 7.59015E-22
7.00198E-03 7.28939E-22
7.14827E-03 7.00360E-22
7.29605E-03 6.73189E-22
7.44534E-03 6.47346E-22
7.59612E-03 6.22752E-22
7.97965E-03 5.66258E-22
8.37255E-03 5.16128E-22
8.77480E-03 4.71509E-22
9.18641E-03 4.31685E-22
9.60736E-03 3.96047E-22
1.00376E-02 3.64071E-22
1.04773E-02 3.35313E-22
1.09262E-02 3.09387E-22
1.13844E-02 2.85962E-22
1.18520E-02 2.64751E-22
1.23288E-02 2.45506E-22
1.28150E-02 2.28009E-22
1.33104E-02 2.12071E-22
1.38150E-02 1.97527E-22
1.43290E-02 1.84231E-22
1.48521E-02 1.72056E-22
1.53845E-02 1.60888E-22
1.59262E-02 1.50629E-22
1.64770E-02 1.41189E-22
1.70371E-02 1.32491E-22
1.76063E-02 1.24465E-22
1.81848E-02 1.17049E-22
1.87724E-02 1.10187E-22
1.93692E-02 1.03830E-22
1.99751E-02 9.79336E-23
2.05901E-02 9.24579E-23
2.12143E-02 8.73675E-23
2.18476E-02 8.26308E-23
2.24900E-02 7.82141E-23
2.31415E-02 7.40900E-23
2.38021E-02 7.02385E-23
2.44717E-02 6.66380E-23
2.51504E-02 6.32689E-23
2.58382E-02 6.01133E-23
2.65349E-02 5.71549E-23
2.72407E-02 5.43789E-23
2.79555E-02 5.17717E-23
2.86793E-02 4.93210E-23
2.94120E-02 4.70156E-23
3.01537E-02 4.48449E-23
3.09043E-02 4.27997E-23
3.16639E-02 4.08710E-23
3.24324E-02 3.90509E-23
3.32098E-02 3.73321E-23
3.39961E-02 3.57078E-23
3.47912E-02 3.41717E-23
3.55952E-02 3.27180E-23
3.64081E-02 3.13414E-23
3.72297E-02 3.00370E-23
3.80602E-02 2.88002E-23
3.88995E-02 2.76268E-23
3.97476E-02 2.65128E-23
4.06044E-02 2.54547E-23
4.14700E-02 2.44491E-23
4.23443E-02 2.34928E-23
4.32273E-02 2.25829E-23
4.41190E-02 2.17168E-23
4.50194E-02 2.08917E-23
4.59284E-02 2.01056E-23
4.68461E-02 1.93560E-23
4.87074E-02 1.79586E-23
5.06030E-02 1.66847E-23
5.25328E-02 1.55212E-23
5.44967E-02 1.44569E-23
5.64946E-02 1.34815E-23
5.85262E-02 1.25862E-23
6.05914E-02 1.17632E-23
6.26901E-02 1.10055E-23
6.48222E-02 1.03069E-23
6.69873E-02 9.66202E-24
6.91854E-02 9.06586E-24
7.14163E-02 8.51405E-24
7.36799E-02 8.00268E-24
7.59760E-02 7.52822E-24
7.83043E-02 7.08750E-24
8.06647E-02 6.67769E-24
8.30571E-02 6.29620E-24
8.54812E-02 5.94073E-24
8.79369E-02 5.60916E-24
9.04240E-02 5.29959E-24
9.29422E-02 5.01031E-24
9.54915E-02 4.73973E-24
9.80716E-02 4.48644E-24
1.00682E-01 4.24912E-24
1.03323E-01 4.02660E-24
1.05995E-01 3.81778E-24
1.08696E-01 3.62167E-24
1.11427E-01 3.43737E-24
1.14188E-01 3.26404E-24
1.16978E-01 3.10092E-24
1.19797E-01 2.94729E-24
1.22645E-01 2.80252E-24
1.25522E-01 2.66601E-24
1.28428E-01 2.53721E-24
1.31361E-01 2.41561E-24
1.34323E-01 2.30074E-24
1.37313E-01 2.19217E-24
1.40330E-01 2.08949E-24
1.43375E-01 1.99234E-24
1.46447E-01 1.90037E-24
1.49545E-01 1.81327E-24
1.52671E-01 1.73073E-24
1.55823E-01 1.65247E-24
1.59001E-01 1.57825E-24
1.62205E-01 1.50782E-24
1.65435E-01 1.44096E-24
1.68690E-01 1.37746E-24
1.71970E-01 1.31713E-24
1.75276E-01 1.25978E-24
1.78606E-01 1.20526E-24
1.81961E-01 1.15339E-24
1.85340E-01 1.10403E-24
1.88743E-01 1.05705E-24
1.92169E-01 1.01231E-24
1.95619E-01 9.69688E-25
1.99092E-01 9.29075E-25
2.02589E-01 8.90362E-25
2.06107E-01 8.53448E-25
2.09649E-01 8.18239E-25
2.13212E-01 7.84646E-25
2.16797E-01 7.52585E-25
2.20404E-01 7.21977E-25
2.24032E-01 6.92748E-25
2.27680E-01 6.64829E-25
2.31350E-01 6.38154E-25
2.35040E-01 6.12660E-25
2.38751E-01 5.88290E-25
2.42481E-01 5.64987E-25
2.46231E-01 5.42699E-25
2.50000E-01 5.21378E-25
2.53788E-01 5.00976E-25
2.57595E-01 4.81449E-25
2.61421E-01 4.62756E-25
2.65264E-01 4.44857E-25
2.69126E-01 4.27715E-25
2.73005E-01 4.11295E-25
2.76901E-01 3.95562E-25
2.80814E-01 3.80485E-25
2.84744E-01 3.66034E-25
2.88691E-01 3.52180E-25
2.92653E-01 3.38897E-25
2.96632E-01 3.26157E-25
3.00625E-01 3.13937E-25
3.04634E-01 3.02214E-25
3.08658E-01 2.90965E-25
3.12697E-01 2.80170E-25
3.16749E-01 2.69808E-25
3.20816E-01 2.59860E-25
3.24896E-01 2.50309E-25
3.28990E-01 2.41136E-25
3.33097E-01 2.32327E-25
3.37216E-01 2.23865E-25
3.41348E-01 2.15735E-25
3.45492E-01 2.07923E-25
3.49647E-01 2.00415E-25
3.53814E-01 1.93199E-25
3.57992E-01 1.86263E-25
3.62181E-01 1.79595E-25
3.66381E-01 1.73183E-25
3.70590E-01 1.67017E-25
3.74810E-01 1.61086E-25
3.79039E-01 1.55382E-25
3.83277E-01 1.49894E-25
3.87524E-01 1.44615E-25
3.91780E-01 1.39534E-25
3.96044E-01 1.34645E-25
4.00316E-01 1.29940E-25
4.04596E-01 1.25410E-25
4.08882E-01 1.21050E-25
4.13176E-01 1.16852E-25
4.17476E-01 1.12810E-25
4.21783E-01 1.08918E-25
4.26095E-01 1.05169E-25
4.30413E-01 1.01558E-25
4.34737E-01 9.80801E-26
4.39065E-01 9.47295E-26
4.43398E-01 9.15012E-26
4.47736E-01 8.83905E-26
4.52077E-01 8.53929E-26
4.56422E-01 8.25040E-26
4.60770E-01 7.97196E-26
4.65122E-01 7.70357E-26
4.69476E-01 7.44483E-26
4.73832E-01 7.19538E-26
4.78190E-01 6.95486E-26
4.82550E-01 6.72294E-26
4.86912E-01 6.49928E-26
4.91274E-01 6.28357E-26
4.95637E-01 6.07552E-26
5.00000E-01 5.87483E-26
5.04363E-01 5.68122E-26
5.08726E-01 5.49444E-26
5.13088E-01 5.31421E-26
5.17450E-01 5.14031E-26
5.21810E-01 4.97249E-26
5.26168E-01 4.81053E-26
5.30524E-01 4.65420E-26
5.34878E-01 4.50331E-26
5.39230E-01 4.35764E-26
5.43578E-01 4.21702E-26
5.47923E-01 4.08124E-26
5.52264E-01 3.95014E-26
5.56602E-01 3.82354E-26
5.60935E-01 3.70127E-26
5.65263E-01 3.58319E-26
5.69587E-01 3.46913E-26
5.73905E-01 3.35896E-26
5.78217E-01 3.25252E-26
5.82524E-01 3.14969E-26
5.86824E-01 3.05033E-26
5.91118E-01 2.95433E-26
5.95404E-01 2.86155E-26
5.99684E-01 2.77188E-26
6.03956E-01 2.68521E-26
6.08220E-01 2.60144E-26
6.12476E-01 2.52046E-26
6.16723E-01 2.44216E-26
6.20961E-01 2.36647E-26
6.25190E-01 2.29327E-26
6.29410E-01 2.22249E-26
6.33619E-01 2.15403E-26
6.37819E-01 2.08783E-26
6.42008E-01 2.02378E-26
6.46186E-01 1.96183E-26
6.50353E-01 1.90190E-26
6.54508E-01 1.84391E-26
6.58652E-01 1.78780E-26
6.62784E-01 1.73350E-26
6.66903E-01 1.68095E-26
6.71010E-01 1.63009E-26
6.75104E-01 1.58085E-26
6.79184E-01 1.53319E-26
6.83251E-01 1.48705E-26
6.87303E-01 1.44237E-26
6.91342E-01 1.39911E-26
6.95366E-01 1.35721E-26
6.99375E-01 1.31663E-26
7.03368E-01 1.27733E-26
7.07347E-01 1.23925E-26
7.11309E-01 1.20237E-26
7.15256E-01 1.16663E-26
7.19186E-01 1.13200E-26
7.23099E-01 1.09843E-26
7.26995E-01 1.06591E-26
7.30874E-01 1.03438E-26
7.34736E-01 1.00381E-26
7.38579E-01 9.74181E-27
7.42405E-01 9.45450E-27
7.46212E-01 9.17590E-27
7.50000E-01 8.90571E-27
7.53769E-01 8.64366E-27
7.57519E-01 8.38946E-27
7.61249E-01 8.14287E-27
7.64960E-01 7.90362E-27
7.68650E-01 7.67147E-27
7.72320E-01 7.44619E-27
7.75968E-01 7.22755E-27
7.79596E-01 7.01533E-27
7.83203E-01 6.80932E-27
7.86788E-01 6.60932E-27
7.90351E-01 6.41513E-27
7.93893E-01 6.22656E-27
7.97411E-01 6.04343E-27
8.00908E-01 5.86556E-27
8.04381E-01 5.69279E-27
8.07831E-01 5.52494E-27
8.11257E-01 5.36186E-27
8.14660E-01 5.20340E-27
8.18039E-01 5.04941E-27
8.21394E-01 4.89976E-27
8.24724E-01 4.75429E-27
8.28030E-01 4.61288E-27
8.31310E-01 4.47540E-27
8.34565E-01 4.34174E-27
8.37795E-01 4.21176E-27
8.40999E-01 4.08536E-27
8.44177E-01 3.96242E-27
8.47329E-01 3.84285E-27
8.50455E-01 3.72653E-27
8.53553E-01 3.61336E-27
8.56625E-01 3.50326E-27
8.59670E-01 3.39613E-27
8.62687E-01 3.29187E-27
8.65677E-01 3.19041E-27
8.68639E-01 3.09166E-27
8.71572E-01 2.99554E-27
8.74478E-01 2.90198E-27
8.77355E-01 2.81089E-27
8.80203E-01 2.72222E-27
8.83022E-01 2.63588E-27
8.85812E-01 2.55181E-27
8.88573E-01 2.46995E-27
8.91304E-01 2.39023E-27
8.94005E-01 2.31259E-27
8.96677E-01 2.23699E-27
8.99318E-01 2.16335E-27
9.01928E-01 2.09163E-27
9.04508E-01 2.02178E-27
9.07058E-01 1.95374E-27
9.09576E-01 1.88747E-27
9.12063E-01 1.82292E-27
9.14519E-01 1.76004E-27
9.16943E-01 1.69879E-27
9.19335E-01 1.63914E-27
9.21696E-01 1.58103E-27
9.24024E-01 1.52443E-27
9.26320E-01 1.46931E-27
9.28584E-01 1.41562E-27
9.30815E-01 1.36334E-27
9.33013E-01 1.31242E-27
9.35178E-01 1.26284E-27
9.37310E-01 1.21456E-27
9.39409E-01 1.16756E-27
9.41474E-01 1.12181E-27
9.43505E-01 1.07727E-27
9.45503E-01 1.03393E-27
9.47467E-01 9.91744E-28
9.49397E-01 9.50703E-28
9.51293E-01 9.10778E-28
9.53154E-01 8.71945E-28
9.54981E-01 8.34183E-28
9.56773E-01 7.97469E-28
9.58530E-01 7.61784E-28
9.60252E-01 7.27107E-28
9.61940E-01 6.93420E-28
9.63592E-01 6.60703E-28
9.65209E-01 6.28939E-28
9.66790E-01 5.98112E-28
9.68336E-01 5.68203E-28
9.69846E-01 5.39199E-28
9.71321E-01 5.11084E-28
9.72759E-01 4.83842E-28
9.74162E-01 4.57461E-28
9.75528E-01 4.31927E-28
9.76858E-01 4.07226E-28
9.78152E-01 3.83348E-28
9.79410E-01 3.60279E-28
9.80631E-01 3.38009E-28
9.81815E-01 3.16526E-28
9.82963E-01 2.95821E-28
9.84074E-01 2.75884E-28
9.85148E-01 2.56704E-28
9.86185E-01 2.38273E-28
9.87185E-01 2.20583E-28
9.88148E-01 2.03624E-28
9.89074E-01 1.87390E-28
9.89962E-01 1.71872E-28
9.90814E-01 1.57065E-28
9.91627E-01 1.42960E-28
9.92404E-01 1.29552E-28
9.93143E-01 1.16835E-28
9.93844E-01 1.04802E-28
9.94508E-01 9.34494E-29
9.95134E-01 8.27714E-29
9.95722E-01 7.27634E-29
9.96273E-01 6.34210E-29
9.96786E-01 5.47402E-29
9.97261E-01 4.67173E-29
9.97698E-01 3.93487E-29
9.98097E-01 3.26313E-29
9.98459E-01 2.65622E-29
9.98782E-01 2.11389E-29
9.99067E-01 1.63590E-29
9.99315E-01 1.22205E-29
9.99524E-01 8.72160E-30
9.99695E-01 5.86092E-30
9.99829E-01 3.63719E-30
9.99924E-01 2.04948E-30
9.99981E-01 1.09712E-30
1.00000E+00 7.79717E-31
