 #
 # Subroutine ELSEPA. Elastic scattering of electrons and positrons
 #                    by neutral atoms and positive ions
 #
 # Projectile: electron
 # Kinetic energy = 1.00000E+08 eV = 3.67493E+06 a.u.
 #
 # WARNING: High-energy factorization with free-atom DF screening.
 #          Absorption, polarization and exchange corrections are
 #          switched off.
 #          Phase shifts are calculated for the bare nucleus.
 #          Scattering amplitudes are not evaluated.
 #
 # Element: Ac,  Z =  89,  atomic weight = 2.27028E+02 g/mol
 #
 # Nuclear model: Fermi distribution
 #                Average radius = 6.52745E-13 cm
 #                Skin thickness = 5.46000E-14 cm
 #
 # Number of electrons = 89
 #
 # Total elastic cross section = 1.15433E-17 cm**2 = 4.12218E-01 a0**2
 # 1st transport cross section = 1.48046E-24 cm**2 = 5.28682E-08 a0**2
 # 2nd transport cross section = 4.40536E-24 cm**2 = 1.57318E-07 a0**2
 #
 #
 # Differential cross section:                       MU=(1-COS(THETA))/2
 #
 #  THETA        MU          DCS          DCS        Sherman      error
 #  (deg)                 (cm**2/sr)   (a0**2/sr)    function
 #----------------------------------------------------------------------
0.00000E+00 1.52989E-09
7.61557E-13 1.52267E-09
1.18994E-12 1.51865E-09
1.71346E-12 1.51375E-09
2.33225E-12 1.50800E-09
3.04617E-12 1.50141E-09
3.85530E-12 1.49399E-09
4.75964E-12 1.48578E-09
5.75917E-12 1.47678E-09
6.85391E-12 1.46703E-09
8.04379E-12 1.45655E-09
9.32893E-12 1.44537E-09
1.07092E-11 1.43352E-09
1.21847E-11 1.42102E-09
1.37554E-11 1.40792E-09
1.54213E-11 1.39423E-09
1.71823E-11 1.38000E-09
1.90386E-11 1.36526E-09
2.09900E-11 1.35004E-09
2.30367E-11 1.33440E-09
2.51785E-11 1.31841E-09
2.74156E-11 1.30201E-09
2.97478E-11 1.28524E-09
3.21752E-11 1.26811E-09
3.46979E-11 1.25066E-09
3.73157E-11 1.23311E-09
4.00286E-11 1.21539E-09
4.28368E-11 1.19744E-09
4.57402E-11 1.17929E-09
4.87388E-11 1.16097E-09
5.18325E-11 1.14259E-09
5.50215E-11 1.12434E-09
5.83057E-11 1.10600E-09
6.16850E-11 1.08759E-09
6.51595E-11 1.06914E-09
6.87293E-11 1.05067E-09
7.23943E-11 1.03248E-09
7.61544E-11 1.01440E-09
1.18991E-10 8.40966E-10
1.71347E-10 6.90460E-10
2.33223E-10 5.66832E-10
3.04617E-10 4.67896E-10
3.85531E-10 3.89598E-10
4.75965E-10 3.27601E-10
5.75917E-10 2.78131E-10
6.85389E-10 2.38202E-10
8.04380E-10 2.05534E-10
9.32891E-10 1.78495E-10
1.07092E-09 1.55882E-10
1.21847E-09 1.36800E-10
1.37554E-09 1.20578E-10
1.54213E-09 1.06697E-10
1.71823E-09 9.47460E-11
1.90386E-09 8.44290E-11
2.09900E-09 7.54878E-11
2.30367E-09 6.76349E-11
2.51785E-09 6.05061E-11
2.74156E-09 5.44543E-11
2.97478E-09 4.92857E-11
3.21752E-09 4.48461E-11
3.46978E-09 4.10115E-11
3.73156E-09 3.73604E-11
4.00286E-09 3.40643E-11
4.28368E-09 3.11923E-11
4.57402E-09 2.86784E-11
4.87388E-09 2.64683E-11
5.18326E-09 2.44626E-11
5.50215E-09 2.25299E-11
5.83057E-09 2.08186E-11
6.16850E-09 1.92980E-11
6.51596E-09 1.79420E-11
6.87293E-09 1.67291E-11
7.23942E-09 1.55509E-11
7.61544E-09 1.44706E-11
1.18991E-08 7.64147E-12
1.71347E-08 4.41784E-12
2.33223E-08 2.73796E-12
3.04617E-08 1.79259E-12
3.85531E-08 1.22278E-12
4.75965E-08 8.61126E-13
5.75917E-08 6.23028E-13
6.85389E-08 4.60467E-13
8.04380E-08 3.47821E-13
9.32891E-08 2.67912E-13
1.07092E-07 2.09819E-13
1.21847E-07 1.66720E-13
1.37554E-07 1.34214E-13
1.54213E-07 1.09330E-13
1.71823E-07 8.99891E-14
1.90386E-07 7.47581E-14
2.09900E-07 6.26211E-14
2.30367E-07 5.28424E-14
2.51785E-07 4.48834E-14
2.74156E-07 3.84318E-14
2.97478E-07 3.30517E-14
3.21752E-07 2.86169E-14
3.46978E-07 2.48858E-14
3.73156E-07 2.17567E-14
4.00286E-07 1.91019E-14
4.28368E-07 1.68430E-14
4.57402E-07 1.49109E-14
4.87388E-07 1.32464E-14
5.18325E-07 1.18122E-14
5.50215E-07 1.05628E-14
5.83057E-07 9.47943E-15
6.16850E-07 8.52643E-15
6.51596E-07 7.69418E-15
6.87293E-07 6.95783E-15
7.23942E-07 6.30940E-15
7.61543E-07 5.73336E-15
1.18991E-06 2.45066E-15
1.71347E-06 1.21488E-15
2.33223E-06 6.69410E-16
3.04617E-06 3.98795E-16
3.85531E-06 2.52197E-16
4.75964E-06 1.67170E-16
5.75916E-06 1.15116E-16
6.85388E-06 8.18186E-17
8.04378E-06 5.97247E-17
9.32888E-06 4.46054E-17
1.07092E-05 3.39794E-17
1.21846E-05 2.63368E-17
1.37553E-05 2.07271E-17
1.54212E-05 1.65348E-17
1.71822E-05 1.33512E-17
1.90385E-05 1.08912E-17
2.09899E-05 8.98573E-18
2.30365E-05 7.47789E-18
2.51783E-05 6.27152E-18
2.74153E-05 5.29741E-18
2.97475E-05 4.50462E-18
3.21749E-05 3.85481E-18
3.46974E-05 3.31849E-18
3.73152E-05 2.87279E-18
4.00281E-05 2.49981E-18
4.28362E-05 2.18562E-18
4.57395E-05 1.91927E-18
4.87380E-05 1.69221E-18
5.18317E-05 1.49767E-18
5.50205E-05 1.33024E-18
5.83045E-05 1.18556E-18
6.16838E-05 1.06004E-18
6.51582E-05 9.50734E-19
6.87277E-05 8.55195E-19
7.23925E-05 7.71382E-19
7.61524E-05 6.97187E-19
9.21439E-05 4.77428E-19
1.09658E-04 3.37860E-19
1.28695E-04 2.45804E-19
1.49255E-04 1.83096E-19
1.71338E-04 1.39187E-19
1.94942E-04 1.07702E-19
2.20070E-04 8.46494E-20
2.46720E-04 6.74563E-20
2.74892E-04 5.44235E-20
3.04586E-04 4.43970E-20
3.35803E-04 3.65826E-20
3.68542E-04 3.04182E-20
4.02802E-04 2.55028E-20
4.38585E-04 2.15445E-20
4.75889E-04 1.83274E-20
5.14715E-04 1.56914E-20
5.55063E-04 1.35143E-20
5.96931E-04 1.17036E-20
6.40321E-04 1.01875E-20
6.85233E-04 8.91024E-21
7.31665E-04 7.82802E-21
7.79618E-04 6.90600E-21
8.29092E-04 6.11655E-21
8.80086E-04 5.43736E-21
9.32601E-04 4.85041E-21
9.86636E-04 4.34103E-21
1.04219E-03 3.89721E-21
1.09927E-03 3.50905E-21
1.15786E-03 3.16832E-21
1.21797E-03 2.86826E-21
1.27961E-03 2.60313E-21
1.34276E-03 2.36815E-21
1.40743E-03 2.15929E-21
1.47362E-03 1.97312E-21
1.54133E-03 1.80673E-21
1.61056E-03 1.65765E-21
1.68131E-03 1.52376E-21
1.75357E-03 1.40321E-21
1.82735E-03 1.29445E-21
1.90265E-03 1.19611E-21
1.97947E-03 1.10700E-21
2.05780E-03 1.02610E-21
2.13765E-03 9.52526E-22
2.21902E-03 8.85478E-22
2.30190E-03 8.24277E-22
2.38630E-03 7.68316E-22
2.47222E-03 7.17066E-22
2.55965E-03 6.70058E-22
2.64859E-03 6.26881E-22
2.73905E-03 5.87173E-22
2.83103E-03 5.50552E-22
2.92452E-03 5.16746E-22
3.01952E-03 4.85514E-22
3.11604E-03 4.56623E-22
3.21407E-03 4.29865E-22
3.31362E-03 4.05050E-22
3.41468E-03 3.82013E-22
3.51725E-03 3.60600E-22
3.62133E-03 3.40676E-22
3.72692E-03 3.22118E-22
3.83403E-03 3.04813E-22
3.94265E-03 2.88661E-22
4.05278E-03 2.73569E-22
4.16442E-03 2.59457E-22
4.27757E-03 2.46246E-22
4.39223E-03 2.33869E-22
4.50840E-03 2.22263E-22
4.62608E-03 2.11371E-22
4.74527E-03 2.01140E-22
4.86597E-03 1.91522E-22
4.98817E-03 1.82473E-22
5.11188E-03 1.73954E-22
5.23711E-03 1.65926E-22
5.36383E-03 1.58357E-22
5.49207E-03 1.51215E-22
5.62181E-03 1.44472E-22
5.75306E-03 1.38099E-22
5.88581E-03 1.32074E-22
6.02007E-03 1.26374E-22
6.15583E-03 1.20978E-22
6.29310E-03 1.15865E-22
6.43187E-03 1.11020E-22
6.57214E-03 1.06424E-22
6.71392E-03 1.02062E-22
6.85720E-03 9.79210E-23
7.00198E-03 9.39867E-23
7.14827E-03 9.02469E-23
7.29605E-03 8.66902E-23
7.44534E-03 8.33058E-23
7.59612E-03 8.00838E-23
7.97965E-03 7.26795E-23
8.37255E-03 6.61042E-23
8.77480E-03 6.02484E-23
9.18641E-03 5.50194E-23
9.60736E-03 5.03381E-23
1.00376E-02 4.61369E-23
1.04773E-02 4.23577E-23
1.09262E-02 3.89507E-23
1.13844E-02 3.58726E-23
1.18520E-02 3.30860E-23
1.23288E-02 3.05584E-23
1.28150E-02 2.82616E-23
1.33104E-02 2.61706E-23
1.38150E-02 2.42639E-23
1.43290E-02 2.25223E-23
1.48521E-02 2.09291E-23
1.53845E-02 1.94693E-23
1.59262E-02 1.81300E-23
1.64770E-02 1.68993E-23
1.70371E-02 1.57671E-23
1.76063E-02 1.47241E-23
1.81848E-02 1.37620E-23
1.87724E-02 1.28735E-23
1.93692E-02 1.20521E-23
1.99751E-02 1.12919E-23
2.05901E-02 1.05874E-23
2.12143E-02 9.93405E-24
2.18476E-02 9.32743E-24
2.24900E-02 8.76367E-24
2.31415E-02 8.23927E-24
2.38021E-02 7.75102E-24
2.44717E-02 7.29606E-24
2.51504E-02 6.87174E-24
2.58382E-02 6.47569E-24
2.65349E-02 6.10572E-24
2.72407E-02 5.75987E-24
2.79555E-02 5.43632E-24
2.86793E-02 5.13341E-24
2.94120E-02 4.84964E-24
3.01537E-02 4.58362E-24
3.09043E-02 4.33407E-24
3.16639E-02 4.09982E-24
3.24324E-02 3.87982E-24
3.32098E-02 3.67306E-24
3.39961E-02 3.47864E-24
3.47912E-02 3.29572E-24
3.55952E-02 3.12353E-24
3.64081E-02 2.96135E-24
3.72297E-02 2.80853E-24
3.80602E-02 2.66446E-24
3.88995E-02 2.52856E-24
3.97476E-02 2.40032E-24
4.06044E-02 2.27924E-24
4.14700E-02 2.16489E-24
4.23443E-02 2.05684E-24
4.32273E-02 1.95470E-24
4.41190E-02 1.85810E-24
4.50194E-02 1.76672E-24
4.59284E-02 1.68024E-24
4.68461E-02 1.59836E-24
4.87074E-02 1.44736E-24
5.06030E-02 1.31172E-24
5.25328E-02 1.18975E-24
5.44967E-02 1.07992E-24
5.64946E-02 9.80910E-25
5.85262E-02 8.91563E-25
6.05914E-02 8.10852E-25
6.26901E-02 7.37870E-25
6.48222E-02 6.71819E-25
6.69873E-02 6.11988E-25
6.91854E-02 5.57748E-25
7.14163E-02 5.08539E-25
7.36799E-02 4.63862E-25
7.59760E-02 4.23273E-25
7.83043E-02 3.86375E-25
8.06647E-02 3.52811E-25
8.30571E-02 3.22263E-25
8.54812E-02 2.94446E-25
8.79369E-02 2.69104E-25
9.04240E-02 2.46005E-25
9.29422E-02 2.24941E-25
9.54915E-02 2.05727E-25
9.80716E-02 1.88193E-25
1.00682E-01 1.72186E-25
1.03323E-01 1.57569E-25
1.05995E-01 1.44218E-25
1.08696E-01 1.32019E-25
1.11427E-01 1.20870E-25
1.14188E-01 1.10679E-25
1.16978E-01 1.01361E-25
1.19797E-01 9.28402E-26
1.22645E-01 8.50467E-26
1.25522E-01 7.79175E-26
1.28428E-01 7.13950E-26
1.31361E-01 6.54269E-26
1.34323E-01 5.99655E-26
1.37313E-01 5.49673E-26
1.40330E-01 5.03927E-26
1.43375E-01 4.62055E-26
1.46447E-01 4.23727E-26
1.49545E-01 3.88641E-26
1.52671E-01 3.56522E-26
1.55823E-01 3.27118E-26
1.59001E-01 3.00199E-26
1.62205E-01 2.75555E-26
1.65435E-01 2.52993E-26
1.68690E-01 2.32337E-26
1.71970E-01 2.13426E-26
1.75276E-01 1.96112E-26
1.78606E-01 1.80261E-26
1.81961E-01 1.65749E-26
1.85340E-01 1.52463E-26
1.88743E-01 1.40298E-26
1.92169E-01 1.29161E-26
1.95619E-01 1.18963E-26
1.99092E-01 1.09626E-26
2.02589E-01 1.01077E-26
2.06107E-01 9.32475E-27
2.09649E-01 8.60777E-27
2.13212E-01 7.95109E-27
2.16797E-01 7.34959E-27
2.20404E-01 6.79856E-27
2.24032E-01 6.29367E-27
2.27680E-01 5.83098E-27
2.31350E-01 5.40687E-27
2.35040E-01 5.01803E-27
2.38751E-01 4.66143E-27
2.42481E-01 4.33428E-27
2.46231E-01 4.03405E-27
2.50000E-01 3.75842E-27
2.53788E-01 3.50526E-27
2.57595E-01 3.27261E-27
2.61421E-01 3.05871E-27
2.65264E-01 2.86193E-27
2.69126E-01 2.68077E-27
2.73005E-01 2.51389E-27
2.76901E-01 2.36003E-27
2.80814E-01 2.21808E-27
2.84744E-01 2.08698E-27
2.88691E-01 1.96581E-27
2.92653E-01 1.85369E-27
2.96632E-01 1.74985E-27
3.00625E-01 1.65356E-27
3.04634E-01 1.56418E-27
3.08658E-01 1.48110E-27
3.12697E-01 1.40379E-27
3.16749E-01 1.33176E-27
3.20816E-01 1.26454E-27
3.24896E-01 1.20175E-27
3.28990E-01 1.14300E-27
3.33097E-01 1.08795E-27
3.37216E-01 1.03631E-27
3.41348E-01 9.87779E-28
3.45492E-01 9.42120E-28
3.49647E-01 8.99097E-28
3.53814E-01 8.58500E-28
3.57992E-01 8.20141E-28
3.62181E-01 7.83847E-28
3.66381E-01 7.49461E-28
3.70590E-01 7.16841E-28
3.74810E-01 6.85858E-28
3.79039E-01 6.56396E-28
3.83277E-01 6.28347E-28
3.87524E-01 6.01616E-28
3.91780E-01 5.76115E-28
3.96044E-01 5.51764E-28
4.00316E-01 5.28491E-28
4.04596E-01 5.06229E-28
4.08882E-01 4.84919E-28
4.13176E-01 4.64506E-28
4.17476E-01 4.44939E-28
4.21783E-01 4.26174E-28
4.26095E-01 4.08168E-28
4.30413E-01 3.90883E-28
4.34737E-01 3.74285E-28
4.39065E-01 3.58339E-28
4.43398E-01 3.43017E-28
4.47736E-01 3.28292E-28
4.52077E-01 3.14136E-28
4.56422E-01 3.00528E-28
4.60770E-01 2.87444E-28
4.65122E-01 2.74864E-28
4.69476E-01 2.62768E-28
4.73832E-01 2.51139E-28
4.78190E-01 2.39959E-28
4.82550E-01 2.29213E-28
4.86912E-01 2.18884E-28
4.91274E-01 2.08958E-28
4.95637E-01 1.99422E-28
5.00000E-01 1.90262E-28
5.04363E-01 1.81465E-28
5.08726E-01 1.73019E-28
5.13088E-01 1.64913E-28
5.17450E-01 1.57135E-28
5.21810E-01 1.49675E-28
5.26168E-01 1.42521E-28
5.30524E-01 1.35663E-28
5.34878E-01 1.29092E-28
5.39230E-01 1.22798E-28
5.43578E-01 1.16772E-28
5.47923E-01 1.11004E-28
5.52264E-01 1.05485E-28
5.56602E-01 1.00208E-28
5.60935E-01 9.51625E-29
5.65263E-01 9.03418E-29
5.69587E-01 8.57375E-29
5.73905E-01 8.13416E-29
5.78217E-01 7.71468E-29
5.82524E-01 7.31455E-29
5.86824E-01 6.93305E-29
5.91118E-01 6.56948E-29
5.95404E-01 6.22315E-29
5.99684E-01 5.89341E-29
6.03956E-01 5.57959E-29
6.08220E-01 5.28108E-29
6.12476E-01 4.99724E-29
6.16723E-01 4.72750E-29
6.20961E-01 4.47126E-29
6.25190E-01 4.22797E-29
6.29410E-01 3.99708E-29
6.33619E-01 3.77806E-29
6.37819E-01 3.57040E-29
6.42008E-01 3.37359E-29
6.46186E-01 3.18717E-29
6.50353E-01 3.01065E-29
6.54508E-01 2.84360E-29
6.58652E-01 2.68558E-29
6.62784E-01 2.53616E-29
6.66903E-01 2.39495E-29
6.71010E-01 2.26155E-29
6.75104E-01 2.13559E-29
6.79184E-01 2.01670E-29
6.83251E-01 1.90454E-29
6.87303E-01 1.79876E-29
6.91342E-01 1.69906E-29
6.95366E-01 1.60512E-29
6.99375E-01 1.51663E-29
7.03368E-01 1.43333E-29
7.07347E-01 1.35493E-29
7.11309E-01 1.28117E-29
7.15256E-01 1.21181E-29
7.19186E-01 1.14660E-29
7.23099E-01 1.08532E-29
7.26995E-01 1.02775E-29
7.30874E-01 9.73679E-30
7.34736E-01 9.22908E-30
7.38579E-01 8.75249E-30
7.42405E-01 8.30523E-30
7.46212E-01 7.88556E-30
7.50000E-01 7.49187E-30
7.53769E-01 7.12260E-30
7.57519E-01 6.77627E-30
7.61249E-01 6.45150E-30
7.64960E-01 6.14695E-30
7.68650E-01 5.86137E-30
7.72320E-01 5.59356E-30
7.75968E-01 5.34241E-30
7.79596E-01 5.10684E-30
7.83203E-01 4.88585E-30
7.86788E-01 4.67848E-30
7.90351E-01 4.48385E-30
7.93893E-01 4.30110E-30
7.97411E-01 4.12944E-30
8.00908E-01 3.96811E-30
8.04381E-01 3.81641E-30
8.07831E-01 3.67368E-30
8.11257E-01 3.53929E-30
8.14660E-01 3.41266E-30
8.18039E-01 3.29324E-30
8.21394E-01 3.18051E-30
8.24724E-01 3.07400E-30
8.28030E-01 2.97324E-30
8.31310E-01 2.87783E-30
8.34565E-01 2.78736E-30
8.37795E-01 2.70147E-30
8.40999E-01 2.61983E-30
8.44177E-01 2.54210E-30
8.47329E-01 2.46800E-30
8.50455E-01 2.39724E-30
8.53553E-01 2.32958E-30
8.56625E-01 2.26478E-30
8.59670E-01 2.20262E-30
8.62687E-01 2.14288E-30
8.65677E-01 2.08540E-30
8.68639E-01 2.02999E-30
8.71572E-01 1.97649E-30
8.74478E-01 1.92477E-30
8.77355E-01 1.87467E-30
8.80203E-01 1.82608E-30
8.83022E-01 1.77889E-30
8.85812E-01 1.73299E-30
8.88573E-01 1.68828E-30
8.91304E-01 1.64469E-30
8.94005E-01 1.60213E-30
8.96677E-01 1.56052E-30
8.99318E-01 1.51982E-30
9.01928E-01 1.47995E-30
9.04508E-01 1.44086E-30
9.07058E-01 1.40251E-30
9.09576E-01 1.36486E-30
9.12063E-01 1.32787E-30
9.14519E-01 1.29150E-30
9.16943E-01 1.25572E-30
9.19335E-01 1.22051E-30
9.21696E-01 1.18585E-30
9.24024E-01 1.15172E-30
9.26320E-01 1.11809E-30
9.28584E-01 1.08496E-30
9.30815E-01 1.05231E-30
9.33013E-01 1.02013E-30
9.35178E-01 9.88411E-31
9.37310E-01 9.57151E-31
9.39409E-01 9.26344E-31
9.41474E-01 8.95983E-31
9.43505E-01 8.66068E-31
9.45503E-01 8.36596E-31
9.47467E-01 8.07568E-31
9.49397E-01 7.78984E-31
9.51293E-01 7.50844E-31
9.53154E-01 7.23151E-31
9.54981E-01 6.95907E-31
9.56773E-01 6.69116E-31
9.58530E-01 6.42780E-31
9.60252E-01 6.16903E-31
9.61940E-01 5.91490E-31
9.63592E-01 5.66546E-31
9.65209E-01 5.42074E-31
9.66790E-01 5.18079E-31
9.68336E-01 4.94566E-31
9.69846E-01 4.71541E-31
9.71321E-01 4.49009E-31
9.72759E-01 4.26974E-31
9.74162E-01 4.05442E-31
9.75528E-01 3.84417E-31
9.76858E-01 3.63906E-31
9.78152E-01 3.43912E-31
9.79410E-01 3.24441E-31
9.80631E-01 3.05498E-31
9.81815E-01 2.87087E-31
9.82963E-01 2.69213E-31
9.84074E-01 2.51881E-31
9.85148E-01 2.35095E-31
9.86185E-01 2.18860E-31
9.87185E-01 2.03179E-31
9.88148E-01 1.88056E-31
9.89074E-01 1.73496E-31
9.89962E-01 1.59502E-31
9.90814E-01 1.46077E-31
9.91627E-01 1.33226E-31
9.92404E-01 1.20951E-31
9.93143E-01 1.09255E-31
9.93844E-01 9.81416E-32
9.94508E-01 8.76132E-32
9.95134E-01 7.76726E-32
9.95722E-01 6.83221E-32
9.96273E-01 5.95642E-32
9.96786E-01 5.14009E-32
9.97261E-01 4.38344E-32
9.97698E-01 3.68664E-32
9.98097E-01 3.04986E-32
9.98459E-01 2.47327E-32
9.98782E-01 1.95699E-32
9.99067E-01 1.50116E-32
9.99315E-01 1.10589E-32
9.99524E-01 7.71265E-33
9.99695E-01 4.97372E-33
9.99829E-01 2.84276E-33
9.99924E-01 1.32028E-33
9.99981E-01 4.06641E-34
1.00000E+00 1.02066E-34
