 #
 # Subroutine ELSEPA. Elastic scattering of electrons and positrons
 #                    by neutral atoms and positive ions
 #
 # Projectile: electron
 # Kinetic energy = 7.00000E+06 eV = 2.57245E+05 a.u.
 #
 # WARNING: High-energy factorization with free-atom DF screening.
 #          Absorption, polarization and exchange corrections are
 #          switched off.
 #          Phase shifts are calculated for the bare nucleus.
 #          Scattering amplitudes are not evaluated.
 #
 # Element: Ac,  Z =  89,  atomic weight = 2.27028E+02 g/mol
 #
 # Nuclear model: Fermi distribution
 #                Average radius = 6.52745E-13 cm
 #                Skin thickness = 5.46000E-14 cm
 #
 # Number of electrons = 89
 #
 # Total elastic cross section = 1.16054E-17 cm**2 = 4.14435E-01 a0**2
 # 1st transport cross section = 2.48181E-22 cm**2 = 8.86271E-06 a0**2
 # 2nd transport cross section = 6.63280E-22 cm**2 = 2.36862E-05 a0**2
 #
 #
 # Differential cross section:                       MU=(1-COS(THETA))/2
 #
 #  THETA        MU          DCS          DCS        Sherman      error
 #  (deg)                 (cm**2/sr)   (a0**2/sr)    function
 #----------------------------------------------------------------------
0.00000E+00 8.54333E-12
7.61557E-13 8.54310E-12
1.18994E-12 8.54298E-12
1.71346E-12 8.54282E-12
2.33225E-12 8.54264E-12
3.04617E-12 8.54243E-12
3.85530E-12 8.54219E-12
4.75964E-12 8.54192E-12
5.75917E-12 8.54163E-12
6.85391E-12 8.54131E-12
8.04379E-12 8.54095E-12
9.32893E-12 8.54058E-12
1.07092E-11 8.54017E-12
1.21847E-11 8.53974E-12
1.37554E-11 8.53927E-12
1.54213E-11 8.53878E-12
1.71823E-11 8.53826E-12
1.90386E-11 8.53772E-12
2.09900E-11 8.53714E-12
2.30367E-11 8.53654E-12
2.51785E-11 8.53591E-12
2.74156E-11 8.53525E-12
2.97478E-11 8.53457E-12
3.21752E-11 8.53385E-12
3.46979E-11 8.53311E-12
3.73157E-11 8.53234E-12
4.00286E-11 8.53155E-12
4.28368E-11 8.53072E-12
4.57402E-11 8.52987E-12
4.87388E-11 8.52899E-12
5.18325E-11 8.52808E-12
5.50215E-11 8.52714E-12
5.83057E-11 8.52618E-12
6.16850E-11 8.52519E-12
6.51595E-11 8.52417E-12
6.87293E-11 8.52312E-12
7.23943E-11 8.52205E-12
7.61544E-11 8.52095E-12
1.18991E-10 8.50840E-12
1.71347E-10 8.49312E-12
2.33223E-10 8.47511E-12
3.04617E-10 8.45441E-12
3.85531E-10 8.43104E-12
4.75965E-10 8.40506E-12
5.75917E-10 8.37649E-12
6.85389E-10 8.34538E-12
8.04380E-10 8.31178E-12
9.32891E-10 8.27574E-12
1.07092E-09 8.23731E-12
1.21847E-09 8.19655E-12
1.37554E-09 8.15353E-12
1.54213E-09 8.10830E-12
1.71823E-09 8.06092E-12
1.90386E-09 8.01148E-12
2.09900E-09 7.96003E-12
2.30367E-09 7.90665E-12
2.51785E-09 7.85142E-12
2.74156E-09 7.79441E-12
2.97478E-09 7.73569E-12
3.21752E-09 7.67535E-12
3.46978E-09 7.61345E-12
3.73156E-09 7.55009E-12
4.00286E-09 7.48534E-12
4.28368E-09 7.41957E-12
4.57402E-09 7.35260E-12
4.87388E-09 7.28437E-12
5.18326E-09 7.21493E-12
5.50215E-09 7.14437E-12
5.83057E-09 7.07276E-12
6.16850E-09 7.00016E-12
6.51596E-09 6.92709E-12
6.87293E-09 6.85387E-12
7.23942E-09 6.77989E-12
7.61544E-09 6.70521E-12
1.18991E-08 5.94223E-12
1.71347E-08 5.19389E-12
2.33223E-08 4.50117E-12
3.04617E-08 3.88385E-12
3.85531E-08 3.35139E-12
4.75965E-08 2.89838E-12
5.75917E-08 2.51647E-12
6.85389E-08 2.19685E-12
8.04380E-08 1.92803E-12
9.32891E-08 1.70133E-12
1.07092E-07 1.50907E-12
1.21847E-07 1.34489E-12
1.37554E-07 1.20361E-12
1.54213E-07 1.08124E-12
1.71823E-07 9.74721E-13
1.90386E-07 8.81163E-13
2.09900E-07 7.98833E-13
2.30367E-07 7.26083E-13
2.51785E-07 6.61313E-13
2.74156E-07 6.03727E-13
2.97478E-07 5.52278E-13
3.21752E-07 5.06146E-13
3.46978E-07 4.64818E-13
3.73156E-07 4.27597E-13
4.00286E-07 3.94061E-13
4.28368E-07 3.62498E-13
4.57402E-07 3.33985E-13
4.87388E-07 3.08735E-13
5.18325E-07 2.86300E-13
5.50215E-07 2.66302E-13
5.83057E-07 2.48420E-13
6.16850E-07 2.32382E-13
6.51596E-07 2.17189E-13
6.87293E-07 2.02376E-13
7.23942E-07 1.89039E-13
7.61543E-07 1.77000E-13
1.18991E-06 9.83186E-14
1.71347E-06 5.90472E-14
2.33223E-06 3.75745E-14
3.04617E-06 2.51458E-14
3.85531E-06 1.74716E-14
4.75964E-06 1.25520E-14
5.75916E-06 9.26689E-15
6.85388E-06 6.97746E-15
8.04378E-06 5.35292E-15
9.32888E-06 4.17076E-15
1.07092E-05 3.29341E-15
1.21846E-05 2.63205E-15
1.37553E-05 2.12921E-15
1.54212E-05 1.74203E-15
1.71822E-05 1.44004E-15
1.90385E-05 1.19995E-15
2.09899E-05 1.00966E-15
2.30365E-05 8.55759E-16
2.51783E-05 7.29970E-16
2.74153E-05 6.26586E-16
2.97475E-05 5.40943E-16
3.21749E-05 4.69490E-16
3.46974E-05 4.09569E-16
3.73152E-05 3.58949E-16
4.00281E-05 3.15964E-16
4.28362E-05 2.79086E-16
4.57395E-05 2.47550E-16
4.87380E-05 2.20541E-16
5.18317E-05 1.96929E-16
5.50205E-05 1.76433E-16
5.83045E-05 1.58651E-16
6.16838E-05 1.42940E-16
6.51582E-05 1.29176E-16
6.87277E-05 1.17104E-16
7.23925E-05 1.06334E-16
7.61524E-05 9.68072E-17
9.21439E-05 6.79581E-17
1.09658E-04 4.90867E-17
1.28695E-04 3.63488E-17
1.49255E-04 2.74828E-17
1.71338E-04 2.11538E-17
1.94942E-04 1.65462E-17
2.20070E-04 1.31250E-17
2.46720E-04 1.05437E-17
2.74892E-04 8.56830E-18
3.04586E-04 7.03455E-18
3.35803E-04 5.83024E-18
3.68542E-04 4.87379E-18
4.02802E-04 4.10596E-18
4.38585E-04 3.48417E-18
4.75889E-04 2.97604E-18
5.14715E-04 2.55746E-18
5.55063E-04 2.21017E-18
5.96931E-04 1.91995E-18
6.40321E-04 1.67592E-18
6.85233E-04 1.46955E-18
7.31665E-04 1.29398E-18
7.79618E-04 1.14390E-18
8.29092E-04 1.01499E-18
8.80086E-04 9.03724E-19
9.32601E-04 8.07319E-19
9.86636E-04 7.23438E-19
1.04219E-03 6.50172E-19
1.09927E-03 5.85966E-19
1.15786E-03 5.29490E-19
1.21797E-03 4.79665E-19
1.27961E-03 4.35574E-19
1.34276E-03 3.96433E-19
1.40743E-03 3.61601E-19
1.47362E-03 3.30517E-19
1.54133E-03 3.02705E-19
1.61056E-03 2.77765E-19
1.68131E-03 2.55346E-19
1.75357E-03 2.35148E-19
1.82735E-03 2.16913E-19
1.90265E-03 2.00416E-19
1.97947E-03 1.85462E-19
2.05780E-03 1.71882E-19
2.13765E-03 1.59525E-19
2.21902E-03 1.48263E-19
2.30190E-03 1.37982E-19
2.38630E-03 1.28578E-19
2.47222E-03 1.19966E-19
2.55965E-03 1.12066E-19
2.64859E-03 1.04808E-19
2.73905E-03 9.81313E-20
2.83103E-03 9.19797E-20
2.92452E-03 8.63051E-20
3.01952E-03 8.10637E-20
3.11604E-03 7.62159E-20
3.21407E-03 7.17273E-20
3.31362E-03 6.75659E-20
3.41468E-03 6.37036E-20
3.51725E-03 6.01151E-20
3.62133E-03 5.67771E-20
3.72692E-03 5.36690E-20
3.83403E-03 5.07721E-20
3.94265E-03 4.80691E-20
4.05278E-03 4.55449E-20
4.16442E-03 4.31850E-20
4.27757E-03 4.09776E-20
4.39223E-03 3.89099E-20
4.50840E-03 3.69723E-20
4.62608E-03 3.51544E-20
4.74527E-03 3.34479E-20
4.86597E-03 3.18444E-20
4.98817E-03 3.03367E-20
5.11188E-03 2.89178E-20
5.23711E-03 2.75816E-20
5.36383E-03 2.63224E-20
5.49207E-03 2.51347E-20
5.62181E-03 2.40140E-20
5.75306E-03 2.29555E-20
5.88581E-03 2.19553E-20
6.02007E-03 2.10094E-20
6.15583E-03 2.01144E-20
6.29310E-03 1.92670E-20
6.43187E-03 1.84643E-20
6.57214E-03 1.77033E-20
6.71392E-03 1.69815E-20
6.85720E-03 1.62966E-20
7.00198E-03 1.56461E-20
7.14827E-03 1.50282E-20
7.29605E-03 1.44407E-20
7.44534E-03 1.38821E-20
7.59612E-03 1.33505E-20
7.97965E-03 1.21300E-20
8.37255E-03 1.10473E-20
8.77480E-03 1.00842E-20
9.18641E-03 9.22507E-21
9.60736E-03 8.45671E-21
1.00376E-02 7.76780E-21
1.04773E-02 7.14861E-21
1.09262E-02 6.59081E-21
1.13844E-02 6.08722E-21
1.18520E-02 5.63158E-21
1.23288E-02 5.21850E-21
1.28150E-02 4.84326E-21
1.33104E-02 4.50175E-21
1.38150E-02 4.19040E-21
1.43290E-02 3.90601E-21
1.48521E-02 3.64583E-21
1.53845E-02 3.40741E-21
1.59262E-02 3.18858E-21
1.64770E-02 2.98744E-21
1.70371E-02 2.80227E-21
1.76063E-02 2.63157E-21
1.81848E-02 2.47399E-21
1.87724E-02 2.32833E-21
1.93692E-02 2.19352E-21
1.99751E-02 2.06858E-21
2.05901E-02 1.95266E-21
2.12143E-02 1.84498E-21
2.18476E-02 1.74484E-21
2.24900E-02 1.65160E-21
2.31415E-02 1.56470E-21
2.38021E-02 1.48363E-21
2.44717E-02 1.40791E-21
2.51504E-02 1.33711E-21
2.58382E-02 1.27087E-21
2.65349E-02 1.20882E-21
2.72407E-02 1.15064E-21
2.79555E-02 1.09606E-21
2.86793E-02 1.04479E-21
2.94120E-02 9.96599E-22
3.01537E-02 9.51264E-22
3.09043E-02 9.08580E-22
3.16639E-02 8.68361E-22
3.24324E-02 8.30436E-22
3.32098E-02 7.94645E-22
3.39961E-02 7.60845E-22
3.47912E-02 7.28903E-22
3.55952E-02 6.98694E-22
3.64081E-02 6.70105E-22
3.72297E-02 6.43032E-22
3.80602E-02 6.17375E-22
3.88995E-02 5.93047E-22
3.97476E-02 5.69965E-22
4.06044E-02 5.48049E-22
4.14700E-02 5.27230E-22
4.23443E-02 5.07440E-22
4.32273E-02 4.88619E-22
4.41190E-02 4.70707E-22
4.50194E-02 4.53652E-22
4.59284E-02 4.37405E-22
4.68461E-02 4.21917E-22
4.87074E-02 3.93055E-22
5.06030E-02 3.66751E-22
5.25328E-02 3.42732E-22
5.44967E-02 3.20759E-22
5.64946E-02 3.00619E-22
5.85262E-02 2.82129E-22
6.05914E-02 2.65124E-22
6.26901E-02 2.49459E-22
6.48222E-02 2.35007E-22
6.69873E-02 2.21652E-22
6.91854E-02 2.09294E-22
7.14163E-02 1.97841E-22
7.36799E-02 1.87213E-22
7.59760E-02 1.77337E-22
7.83043E-02 1.68148E-22
8.06647E-02 1.59587E-22
8.30571E-02 1.51601E-22
8.54812E-02 1.44145E-22
8.79369E-02 1.37173E-22
9.04240E-02 1.30647E-22
9.29422E-02 1.24533E-22
9.54915E-02 1.18798E-22
9.80716E-02 1.13413E-22
1.00682E-01 1.08352E-22
1.03323E-01 1.03591E-22
1.05995E-01 9.91076E-23
1.08696E-01 9.48818E-23
1.11427E-01 9.08954E-23
1.14188E-01 8.71315E-23
1.16978E-01 8.35745E-23
1.19797E-01 8.02104E-23
1.22645E-01 7.70264E-23
1.25522E-01 7.40103E-23
1.28428E-01 7.11510E-23
1.31361E-01 6.84383E-23
1.34323E-01 6.58630E-23
1.37313E-01 6.34164E-23
1.40330E-01 6.10905E-23
1.43375E-01 5.88776E-23
1.46447E-01 5.67709E-23
1.49545E-01 5.47641E-23
1.52671E-01 5.28514E-23
1.55823E-01 5.10271E-23
1.59001E-01 4.92860E-23
1.62205E-01 4.76233E-23
1.65435E-01 4.60348E-23
1.68690E-01 4.45163E-23
1.71970E-01 4.30639E-23
1.75276E-01 4.16737E-23
1.78606E-01 4.03426E-23
1.81961E-01 3.90675E-23
1.85340E-01 3.78455E-23
1.88743E-01 3.66733E-23
1.92169E-01 3.55488E-23
1.95619E-01 3.44695E-23
1.99092E-01 3.34331E-23
2.02589E-01 3.24373E-23
2.06107E-01 3.14801E-23
2.09649E-01 3.05597E-23
2.13212E-01 2.96744E-23
2.16797E-01 2.88224E-23
2.20404E-01 2.80020E-23
2.24032E-01 2.72119E-23
2.27680E-01 2.64507E-23
2.31350E-01 2.57169E-23
2.35040E-01 2.50093E-23
2.38751E-01 2.43268E-23
2.42481E-01 2.36682E-23
2.46231E-01 2.30325E-23
2.50000E-01 2.24186E-23
2.53788E-01 2.18256E-23
2.57595E-01 2.12526E-23
2.61421E-01 2.06988E-23
2.65264E-01 2.01633E-23
2.69126E-01 1.96454E-23
2.73005E-01 1.91443E-23
2.76901E-01 1.86593E-23
2.80814E-01 1.81898E-23
2.84744E-01 1.77352E-23
2.88691E-01 1.72948E-23
2.92653E-01 1.68681E-23
2.96632E-01 1.64546E-23
3.00625E-01 1.60537E-23
3.04634E-01 1.56650E-23
3.08658E-01 1.52879E-23
3.12697E-01 1.49221E-23
3.16749E-01 1.45671E-23
3.20816E-01 1.42225E-23
3.24896E-01 1.38879E-23
3.28990E-01 1.35630E-23
3.33097E-01 1.32474E-23
3.37216E-01 1.29407E-23
3.41348E-01 1.26427E-23
3.45492E-01 1.23530E-23
3.49647E-01 1.20714E-23
3.53814E-01 1.17975E-23
3.57992E-01 1.15311E-23
3.62181E-01 1.12719E-23
3.66381E-01 1.10198E-23
3.70590E-01 1.07743E-23
3.74810E-01 1.05354E-23
3.79039E-01 1.03027E-23
3.83277E-01 1.00762E-23
3.87524E-01 9.85553E-24
3.91780E-01 9.64057E-24
3.96044E-01 9.43112E-24
4.00316E-01 9.22699E-24
4.04596E-01 9.02803E-24
4.08882E-01 8.83407E-24
4.13176E-01 8.64495E-24
4.17476E-01 8.46051E-24
4.21783E-01 8.28062E-24
4.26095E-01 8.10513E-24
4.30413E-01 7.93390E-24
4.34737E-01 7.76682E-24
4.39065E-01 7.60375E-24
4.43398E-01 7.44457E-24
4.47736E-01 7.28917E-24
4.52077E-01 7.13744E-24
4.56422E-01 6.98925E-24
4.60770E-01 6.84453E-24
4.65122E-01 6.70317E-24
4.69476E-01 6.56506E-24
4.73832E-01 6.43013E-24
4.78190E-01 6.29826E-24
4.82550E-01 6.16940E-24
4.86912E-01 6.04345E-24
4.91274E-01 5.92034E-24
4.95637E-01 5.80000E-24
5.00000E-01 5.68218E-24
5.04363E-01 5.56689E-24
5.08726E-01 5.45413E-24
5.13088E-01 5.34382E-24
5.17450E-01 5.23590E-24
5.21810E-01 5.13030E-24
5.26168E-01 5.02697E-24
5.30524E-01 4.92584E-24
5.34878E-01 4.82686E-24
5.39230E-01 4.72997E-24
5.43578E-01 4.63511E-24
5.47923E-01 4.54224E-24
5.52264E-01 4.45130E-24
5.56602E-01 4.36224E-24
5.60935E-01 4.27502E-24
5.65263E-01 4.18959E-24
5.69587E-01 4.10590E-24
5.73905E-01 4.02391E-24
5.78217E-01 3.94359E-24
5.82524E-01 3.86488E-24
5.86824E-01 3.78776E-24
5.91118E-01 3.71217E-24
5.95404E-01 3.63809E-24
5.99684E-01 3.56547E-24
6.03956E-01 3.49429E-24
6.08220E-01 3.42451E-24
6.12476E-01 3.35610E-24
6.16723E-01 3.28901E-24
6.20961E-01 3.22324E-24
6.25190E-01 3.15873E-24
6.29410E-01 3.09547E-24
6.33619E-01 3.03342E-24
6.37819E-01 2.97256E-24
6.42008E-01 2.91286E-24
6.46186E-01 2.85430E-24
6.50353E-01 2.79684E-24
6.54508E-01 2.74047E-24
6.58652E-01 2.68516E-24
6.62784E-01 2.63089E-24
6.66903E-01 2.57763E-24
6.71010E-01 2.52537E-24
6.75104E-01 2.47407E-24
6.79184E-01 2.42373E-24
6.83251E-01 2.37432E-24
6.87303E-01 2.32581E-24
6.91342E-01 2.27820E-24
6.95366E-01 2.23146E-24
6.99375E-01 2.18557E-24
7.03368E-01 2.14052E-24
7.07347E-01 2.09629E-24
7.11309E-01 2.05286E-24
7.15256E-01 2.01021E-24
7.19186E-01 1.96834E-24
7.23099E-01 1.92722E-24
7.26995E-01 1.88684E-24
7.30874E-01 1.84718E-24
7.34736E-01 1.80823E-24
7.38579E-01 1.76998E-24
7.42405E-01 1.73241E-24
7.46212E-01 1.69551E-24
7.50000E-01 1.65927E-24
7.53769E-01 1.62367E-24
7.57519E-01 1.58870E-24
7.61249E-01 1.55435E-24
7.64960E-01 1.52061E-24
7.68650E-01 1.48747E-24
7.72320E-01 1.45491E-24
7.75968E-01 1.42292E-24
7.79596E-01 1.39150E-24
7.83203E-01 1.36063E-24
7.86788E-01 1.33030E-24
7.90351E-01 1.30051E-24
7.93893E-01 1.27124E-24
7.97411E-01 1.24248E-24
8.00908E-01 1.21423E-24
8.04381E-01 1.18647E-24
8.07831E-01 1.15921E-24
8.11257E-01 1.13242E-24
8.14660E-01 1.10610E-24
8.18039E-01 1.08025E-24
8.21394E-01 1.05485E-24
8.24724E-01 1.02989E-24
8.28030E-01 1.00538E-24
8.31310E-01 9.81298E-25
8.34565E-01 9.57641E-25
8.37795E-01 9.34402E-25
8.40999E-01 9.11575E-25
8.44177E-01 8.89152E-25
8.47329E-01 8.67126E-25
8.50455E-01 8.45493E-25
8.53553E-01 8.24244E-25
8.56625E-01 8.03375E-25
8.59670E-01 7.82879E-25
8.62687E-01 7.62750E-25
8.65677E-01 7.42984E-25
8.68639E-01 7.23573E-25
8.71572E-01 7.04514E-25
8.74478E-01 6.85800E-25
8.77355E-01 6.67427E-25
8.80203E-01 6.49389E-25
8.83022E-01 6.31682E-25
8.85812E-01 6.14300E-25
8.88573E-01 5.97240E-25
8.91304E-01 5.80496E-25
8.94005E-01 5.64064E-25
8.96677E-01 5.47940E-25
8.99318E-01 5.32119E-25
9.01928E-01 5.16598E-25
9.04508E-01 5.01371E-25
9.07058E-01 4.86436E-25
9.09576E-01 4.71789E-25
9.12063E-01 4.57424E-25
9.14519E-01 4.43340E-25
9.16943E-01 4.29532E-25
9.19335E-01 4.15997E-25
9.21696E-01 4.02731E-25
9.24024E-01 3.89731E-25
9.26320E-01 3.76994E-25
9.28584E-01 3.64516E-25
9.30815E-01 3.52295E-25
9.33013E-01 3.40327E-25
9.35178E-01 3.28609E-25
9.37310E-01 3.17139E-25
9.39409E-01 3.05914E-25
9.41474E-01 2.94931E-25
9.43505E-01 2.84187E-25
9.45503E-01 2.73679E-25
9.47467E-01 2.63406E-25
9.49397E-01 2.53365E-25
9.51293E-01 2.43552E-25
9.53154E-01 2.33967E-25
9.54981E-01 2.24606E-25
9.56773E-01 2.15467E-25
9.58530E-01 2.06549E-25
9.60252E-01 1.97849E-25
9.61940E-01 1.89365E-25
9.63592E-01 1.81095E-25
9.65209E-01 1.73037E-25
9.66790E-01 1.65189E-25
9.68336E-01 1.57549E-25
9.69846E-01 1.50117E-25
9.71321E-01 1.42889E-25
9.72759E-01 1.35864E-25
9.74162E-01 1.29041E-25
9.75528E-01 1.22418E-25
9.76858E-01 1.15994E-25
9.78152E-01 1.09766E-25
9.79410E-01 1.03734E-25
9.80631E-01 9.78969E-26
9.81815E-01 9.22523E-26
9.82963E-01 8.67993E-26
9.84074E-01 8.15368E-26
9.85148E-01 7.64635E-26
9.86185E-01 7.15782E-26
9.87185E-01 6.68799E-26
9.88148E-01 6.23675E-26
9.89074E-01 5.80401E-26
9.89962E-01 5.38966E-26
9.90814E-01 4.99361E-26
9.91627E-01 4.61577E-26
9.92404E-01 4.25606E-26
9.93143E-01 3.91440E-26
9.93844E-01 3.59071E-26
9.94508E-01 3.28492E-26
9.95134E-01 2.99696E-26
9.95722E-01 2.72678E-26
9.96273E-01 2.47430E-26
9.96786E-01 2.23948E-26
9.97261E-01 2.02225E-26
9.97698E-01 1.82258E-26
9.98097E-01 1.64042E-26
9.98459E-01 1.47573E-26
9.98782E-01 1.32847E-26
9.99067E-01 1.19862E-26
9.99315E-01 1.08613E-26
9.99524E-01 9.90993E-27
9.99695E-01 9.13181E-27
9.99829E-01 8.52679E-27
9.99924E-01 8.09472E-27
9.99981E-01 7.83552E-27
1.00000E+00 7.74913E-27
