 #
 # Subroutine ELSEPA. Elastic scattering of electrons and positrons
 #                    by neutral atoms and positive ions
 #
 # Projectile: electron
 # Kinetic energy = 8.00000E+06 eV = 2.93995E+05 a.u.
 #
 # WARNING: High-energy factorization with free-atom DF screening.
 #          Absorption, polarization and exchange corrections are
 #          switched off.
 #          Phase shifts are calculated for the bare nucleus.
 #          Scattering amplitudes are not evaluated.
 #
 # Element: Ac,  Z =  89,  atomic weight = 2.27028E+02 g/mol
 #
 # Nuclear model: Fermi distribution
 #                Average radius = 6.52745E-13 cm
 #                Skin thickness = 5.46000E-14 cm
 #
 # Number of electrons = 89
 #
 # Total elastic cross section = 1.15924E-17 cm**2 = 4.13971E-01 a0**2
 # 1st transport cross section = 1.95463E-22 cm**2 = 6.98010E-06 a0**2
 # 2nd transport cross section = 5.24965E-22 cm**2 = 1.87468E-05 a0**2
 #
 #
 # Differential cross section:                       MU=(1-COS(THETA))/2
 #
 #  THETA        MU          DCS          DCS        Sherman      error
 #  (deg)                 (cm**2/sr)   (a0**2/sr)    function
 #----------------------------------------------------------------------
0.00000E+00 1.09697E-11
7.61557E-13 1.09693E-11
1.18994E-12 1.09691E-11
1.71346E-12 1.09688E-11
2.33225E-12 1.09685E-11
3.04617E-12 1.09682E-11
3.85530E-12 1.09678E-11
4.75964E-12 1.09673E-11
5.75917E-12 1.09668E-11
6.85391E-12 1.09663E-11
8.04379E-12 1.09657E-11
9.32893E-12 1.09651E-11
1.07092E-11 1.09644E-11
1.21847E-11 1.09637E-11
1.37554E-11 1.09630E-11
1.54213E-11 1.09621E-11
1.71823E-11 1.09613E-11
1.90386E-11 1.09604E-11
2.09900E-11 1.09594E-11
2.30367E-11 1.09584E-11
2.51785E-11 1.09574E-11
2.74156E-11 1.09563E-11
2.97478E-11 1.09552E-11
3.21752E-11 1.09540E-11
3.46979E-11 1.09528E-11
3.73157E-11 1.09515E-11
4.00286E-11 1.09502E-11
4.28368E-11 1.09488E-11
4.57402E-11 1.09474E-11
4.87388E-11 1.09460E-11
5.18325E-11 1.09445E-11
5.50215E-11 1.09429E-11
5.83057E-11 1.09414E-11
6.16850E-11 1.09397E-11
6.51595E-11 1.09380E-11
6.87293E-11 1.09363E-11
7.23943E-11 1.09345E-11
7.61544E-11 1.09327E-11
1.18991E-10 1.09121E-11
1.71347E-10 1.08869E-11
2.33223E-10 1.08573E-11
3.04617E-10 1.08232E-11
3.85531E-10 1.07849E-11
4.75965E-10 1.07423E-11
5.75917E-10 1.06955E-11
6.85389E-10 1.06447E-11
8.04380E-10 1.05899E-11
9.32891E-10 1.05312E-11
1.07092E-09 1.04688E-11
1.21847E-09 1.04027E-11
1.37554E-09 1.03331E-11
1.54213E-09 1.02601E-11
1.71823E-09 1.01839E-11
1.90386E-09 1.01045E-11
2.09900E-09 1.00222E-11
2.30367E-09 9.93703E-12
2.51785E-09 9.84917E-12
2.74156E-09 9.75875E-12
2.97478E-09 9.66595E-12
3.21752E-09 9.57099E-12
3.46978E-09 9.47439E-12
3.73156E-09 9.37564E-12
4.00286E-09 9.27489E-12
4.28368E-09 9.17226E-12
4.57402E-09 9.06789E-12
4.87388E-09 8.96192E-12
5.18326E-09 8.85564E-12
5.50215E-09 8.74852E-12
5.83057E-09 8.64019E-12
6.16850E-09 8.53078E-12
6.51596E-09 8.42041E-12
6.87293E-09 8.30920E-12
7.23942E-09 8.19776E-12
7.61544E-09 8.08724E-12
1.18991E-08 6.98179E-12
1.71347E-08 5.94782E-12
2.33223E-08 5.03463E-12
3.04617E-08 4.25945E-12
3.85531E-08 3.61413E-12
4.75965E-08 3.08496E-12
5.75917E-08 2.65045E-12
6.85389E-08 2.29378E-12
8.04380E-08 1.99842E-12
9.32891E-08 1.75194E-12
1.07092E-07 1.54441E-12
1.21847E-07 1.36808E-12
1.37554E-07 1.21702E-12
1.54213E-07 1.08682E-12
1.71823E-07 9.73680E-13
1.90386E-07 8.75184E-13
2.09900E-07 7.88657E-13
2.30367E-07 7.12761E-13
2.51785E-07 6.45645E-13
2.74156E-07 5.86368E-13
2.97478E-07 5.33726E-13
3.21752E-07 4.86469E-13
3.46978E-07 4.42536E-13
3.73156E-07 4.04317E-13
4.00286E-07 3.70925E-13
4.28368E-07 3.41626E-13
4.57402E-07 3.15816E-13
4.87388E-07 2.92991E-13
5.18325E-07 2.70753E-13
5.50215E-07 2.50253E-13
5.83057E-07 2.32023E-13
6.16850E-07 2.15760E-13
6.51596E-07 2.01204E-13
6.87293E-07 1.88137E-13
7.23942E-07 1.76035E-13
7.61543E-07 1.64155E-13
1.18991E-06 8.90344E-14
1.71347E-06 5.25480E-14
2.33223E-06 3.30665E-14
3.04617E-06 2.18926E-14
3.85531E-06 1.51275E-14
4.75964E-06 1.07802E-14
5.75916E-06 7.89412E-15
6.85388E-06 5.89686E-15
8.04378E-06 4.49359E-15
9.32888E-06 3.47393E-15
1.07092E-05 2.72963E-15
1.21846E-05 2.17611E-15
1.37553E-05 1.75706E-15
1.54212E-05 1.43480E-15
1.71822E-05 1.18333E-15
1.90385E-05 9.84514E-16
2.09899E-05 8.27200E-16
2.30365E-05 7.00333E-16
2.51783E-05 5.96721E-16
2.74153E-05 5.11517E-16
2.97475E-05 4.40902E-16
3.21749E-05 3.82025E-16
3.46974E-05 3.32543E-16
3.73152E-05 2.91216E-16
4.00281E-05 2.56061E-16
4.28362E-05 2.26054E-16
4.57395E-05 2.00506E-16
4.87380E-05 1.78259E-16
5.18317E-05 1.59125E-16
5.50205E-05 1.42496E-16
5.83045E-05 1.27949E-16
6.16838E-05 1.15286E-16
6.51582E-05 1.04101E-16
6.87277E-05 9.42728E-17
7.23925E-05 8.55992E-17
7.61524E-05 7.78637E-17
9.21439E-05 5.45144E-17
1.09658E-04 3.92725E-17
1.28695E-04 2.90062E-17
1.49255E-04 2.18756E-17
1.71338E-04 1.68066E-17
1.94942E-04 1.31238E-17
2.20070E-04 1.03974E-17
2.46720E-04 8.34505E-18
2.74892E-04 6.77595E-18
3.04586E-04 5.56007E-18
3.35803E-04 4.60562E-18
3.68542E-04 3.84816E-18
4.02802E-04 3.24043E-18
4.38585E-04 2.74843E-18
4.75889E-04 2.34644E-18
5.14715E-04 2.01547E-18
5.55063E-04 1.74090E-18
5.96931E-04 1.51156E-18
6.40321E-04 1.31881E-18
6.85233E-04 1.15581E-18
7.31665E-04 1.01728E-18
7.79618E-04 8.98863E-19
8.29092E-04 7.97215E-19
8.80086E-04 7.09529E-19
9.32601E-04 6.33586E-19
9.86636E-04 5.67541E-19
1.04219E-03 5.09886E-19
1.09927E-03 4.59379E-19
1.15786E-03 4.14977E-19
1.21797E-03 3.75822E-19
1.27961E-03 3.41181E-19
1.34276E-03 3.10450E-19
1.40743E-03 2.83106E-19
1.47362E-03 2.58715E-19
1.54133E-03 2.36900E-19
1.61056E-03 2.17342E-19
1.68131E-03 1.99767E-19
1.75357E-03 1.83938E-19
1.82735E-03 1.69650E-19
1.90265E-03 1.56728E-19
1.97947E-03 1.45017E-19
2.05780E-03 1.34383E-19
2.13765E-03 1.24710E-19
2.21902E-03 1.15895E-19
2.30190E-03 1.07848E-19
2.38630E-03 1.00491E-19
2.47222E-03 9.37527E-20
2.55965E-03 8.75727E-20
2.64859E-03 8.18959E-20
2.73905E-03 7.66740E-20
2.83103E-03 7.18635E-20
2.92452E-03 6.74266E-20
3.01952E-03 6.33284E-20
3.11604E-03 5.95387E-20
3.21407E-03 5.60294E-20
3.31362E-03 5.27768E-20
3.41468E-03 4.97579E-20
3.51725E-03 4.69533E-20
3.62133E-03 4.43446E-20
3.72692E-03 4.19157E-20
3.83403E-03 3.96522E-20
3.94265E-03 3.75400E-20
4.05278E-03 3.55677E-20
4.16442E-03 3.37242E-20
4.27757E-03 3.19992E-20
4.39223E-03 3.03841E-20
4.50840E-03 2.88702E-20
4.62608E-03 2.74502E-20
4.74527E-03 2.61172E-20
4.86597E-03 2.48646E-20
4.98817E-03 2.36869E-20
5.11188E-03 2.25787E-20
5.23711E-03 2.15350E-20
5.36383E-03 2.05515E-20
5.49207E-03 1.96239E-20
5.62181E-03 1.87486E-20
5.75306E-03 1.79220E-20
5.88581E-03 1.71408E-20
6.02007E-03 1.64021E-20
6.15583E-03 1.57032E-20
6.29310E-03 1.50415E-20
6.43187E-03 1.44146E-20
6.57214E-03 1.38204E-20
6.71392E-03 1.32568E-20
6.85720E-03 1.27219E-20
7.00198E-03 1.22140E-20
7.14827E-03 1.17316E-20
7.29605E-03 1.12729E-20
7.44534E-03 1.08367E-20
7.59612E-03 1.04217E-20
7.97965E-03 9.46871E-21
8.37255E-03 8.62347E-21
8.77480E-03 7.87159E-21
9.18641E-03 7.20093E-21
9.60736E-03 6.60114E-21
1.00376E-02 6.06335E-21
1.04773E-02 5.58003E-21
1.09262E-02 5.14463E-21
1.13844E-02 4.75154E-21
1.18520E-02 4.39590E-21
1.23288E-02 4.07348E-21
1.28150E-02 3.78060E-21
1.33104E-02 3.51405E-21
1.38150E-02 3.27103E-21
1.43290E-02 3.04907E-21
1.48521E-02 2.84601E-21
1.53845E-02 2.65992E-21
1.59262E-02 2.48913E-21
1.64770E-02 2.33214E-21
1.70371E-02 2.18762E-21
1.76063E-02 2.05438E-21
1.81848E-02 1.93139E-21
1.87724E-02 1.81771E-21
1.93692E-02 1.71248E-21
1.99751E-02 1.61496E-21
2.05901E-02 1.52448E-21
2.12143E-02 1.44043E-21
2.18476E-02 1.36226E-21
2.24900E-02 1.28948E-21
2.31415E-02 1.22165E-21
2.38021E-02 1.15836E-21
2.44717E-02 1.09925E-21
2.51504E-02 1.04399E-21
2.58382E-02 9.92273E-22
2.65349E-02 9.43832E-22
2.72407E-02 8.98416E-22
2.79555E-02 8.55799E-22
2.86793E-02 8.15771E-22
2.94120E-02 7.78145E-22
3.01537E-02 7.42747E-22
3.09043E-02 7.09419E-22
3.16639E-02 6.78014E-22
3.24324E-02 6.48399E-22
3.32098E-02 6.20451E-22
3.39961E-02 5.94056E-22
3.47912E-02 5.69111E-22
3.55952E-02 5.45519E-22
3.64081E-02 5.23191E-22
3.72297E-02 5.02046E-22
3.80602E-02 4.82007E-22
3.88995E-02 4.63005E-22
3.97476E-02 4.44976E-22
4.06044E-02 4.27857E-22
4.14700E-02 4.11594E-22
4.23443E-02 3.96135E-22
4.32273E-02 3.81431E-22
4.41190E-02 3.67438E-22
4.50194E-02 3.54114E-22
4.59284E-02 3.41420E-22
4.68461E-02 3.29320E-22
4.87074E-02 3.06769E-22
5.06030E-02 2.86216E-22
5.25328E-02 2.67447E-22
5.44967E-02 2.50275E-22
5.64946E-02 2.34536E-22
5.85262E-02 2.20085E-22
6.05914E-02 2.06794E-22
6.26901E-02 1.94550E-22
6.48222E-02 1.83253E-22
6.69873E-02 1.72815E-22
6.91854E-02 1.63154E-22
7.14163E-02 1.54201E-22
7.36799E-02 1.45892E-22
7.59760E-02 1.38172E-22
7.83043E-02 1.30988E-22
8.06647E-02 1.24295E-22
8.30571E-02 1.18052E-22
8.54812E-02 1.12222E-22
8.79369E-02 1.06772E-22
9.04240E-02 1.01671E-22
9.29422E-02 9.68906E-23
9.54915E-02 9.24073E-23
9.80716E-02 8.81979E-23
1.00682E-01 8.42417E-23
1.03323E-01 8.05198E-23
1.05995E-01 7.70152E-23
1.08696E-01 7.37124E-23
1.11427E-01 7.05966E-23
1.14188E-01 6.76549E-23
1.16978E-01 6.48752E-23
1.19797E-01 6.22465E-23
1.22645E-01 5.97586E-23
1.25522E-01 5.74019E-23
1.28428E-01 5.51680E-23
1.31361E-01 5.30491E-23
1.34323E-01 5.10377E-23
1.37313E-01 4.91266E-23
1.40330E-01 4.73100E-23
1.43375E-01 4.55823E-23
1.46447E-01 4.39375E-23
1.49545E-01 4.23707E-23
1.52671E-01 4.08777E-23
1.55823E-01 3.94539E-23
1.59001E-01 3.80952E-23
1.62205E-01 3.67979E-23
1.65435E-01 3.55588E-23
1.68690E-01 3.43743E-23
1.71970E-01 3.32414E-23
1.75276E-01 3.21575E-23
1.78606E-01 3.11198E-23
1.81961E-01 3.01258E-23
1.85340E-01 2.91732E-23
1.88743E-01 2.82600E-23
1.92169E-01 2.73839E-23
1.95619E-01 2.65432E-23
1.99092E-01 2.57360E-23
2.02589E-01 2.49606E-23
2.06107E-01 2.42156E-23
2.09649E-01 2.34993E-23
2.13212E-01 2.28103E-23
2.16797E-01 2.21475E-23
2.20404E-01 2.15094E-23
2.24032E-01 2.08950E-23
2.27680E-01 2.03032E-23
2.31350E-01 1.97328E-23
2.35040E-01 1.91830E-23
2.38751E-01 1.86528E-23
2.42481E-01 1.81413E-23
2.46231E-01 1.76476E-23
2.50000E-01 1.71710E-23
2.53788E-01 1.67108E-23
2.57595E-01 1.62663E-23
2.61421E-01 1.58366E-23
2.65264E-01 1.54214E-23
2.69126E-01 1.50198E-23
2.73005E-01 1.46314E-23
2.76901E-01 1.42556E-23
2.80814E-01 1.38919E-23
2.84744E-01 1.35399E-23
2.88691E-01 1.31989E-23
2.92653E-01 1.28687E-23
2.96632E-01 1.25487E-23
3.00625E-01 1.22386E-23
3.04634E-01 1.19380E-23
3.08658E-01 1.16466E-23
3.12697E-01 1.13638E-23
3.16749E-01 1.10896E-23
3.20816E-01 1.08234E-23
3.24896E-01 1.05651E-23
3.28990E-01 1.03143E-23
3.33097E-01 1.00708E-23
3.37216E-01 9.83425E-24
3.41348E-01 9.60446E-24
3.45492E-01 9.38117E-24
3.49647E-01 9.16416E-24
3.53814E-01 8.95319E-24
3.57992E-01 8.74807E-24
3.62181E-01 8.54860E-24
3.66381E-01 8.35457E-24
3.70590E-01 8.16582E-24
3.74810E-01 7.98216E-24
3.79039E-01 7.80343E-24
3.83277E-01 7.62949E-24
3.87524E-01 7.46009E-24
3.91780E-01 7.29487E-24
3.96044E-01 7.13394E-24
4.00316E-01 6.97716E-24
4.04596E-01 6.82439E-24
4.08882E-01 6.67552E-24
4.13176E-01 6.53040E-24
4.17476E-01 6.38893E-24
4.21783E-01 6.25099E-24
4.26095E-01 6.11648E-24
4.30413E-01 5.98527E-24
4.34737E-01 5.85728E-24
4.39065E-01 5.73241E-24
4.43398E-01 5.61056E-24
4.47736E-01 5.49164E-24
4.52077E-01 5.37556E-24
4.56422E-01 5.26224E-24
4.60770E-01 5.15159E-24
4.65122E-01 5.04355E-24
4.69476E-01 4.93803E-24
4.73832E-01 4.83495E-24
4.78190E-01 4.73426E-24
4.82550E-01 4.63588E-24
4.86912E-01 4.53975E-24
4.91274E-01 4.44580E-24
4.95637E-01 4.35397E-24
5.00000E-01 4.26420E-24
5.04363E-01 4.17644E-24
5.08726E-01 4.09063E-24
5.13088E-01 4.00672E-24
5.17450E-01 3.92466E-24
5.21810E-01 3.84439E-24
5.26168E-01 3.76586E-24
5.30524E-01 3.68904E-24
5.34878E-01 3.61388E-24
5.39230E-01 3.54033E-24
5.43578E-01 3.46835E-24
5.47923E-01 3.39789E-24
5.52264E-01 3.32893E-24
5.56602E-01 3.26142E-24
5.60935E-01 3.19533E-24
5.65263E-01 3.13061E-24
5.69587E-01 3.06724E-24
5.73905E-01 3.00518E-24
5.78217E-01 2.94440E-24
5.82524E-01 2.88486E-24
5.86824E-01 2.82653E-24
5.91118E-01 2.76939E-24
5.95404E-01 2.71341E-24
5.99684E-01 2.65856E-24
6.03956E-01 2.60480E-24
6.08220E-01 2.55213E-24
6.12476E-01 2.50050E-24
6.16723E-01 2.44989E-24
6.20961E-01 2.40028E-24
6.25190E-01 2.35166E-24
6.29410E-01 2.30398E-24
6.33619E-01 2.25724E-24
6.37819E-01 2.21140E-24
6.42008E-01 2.16646E-24
6.46186E-01 2.12238E-24
6.50353E-01 2.07915E-24
6.54508E-01 2.03676E-24
6.58652E-01 1.99517E-24
6.62784E-01 1.95438E-24
6.66903E-01 1.91436E-24
6.71010E-01 1.87510E-24
6.75104E-01 1.83659E-24
6.79184E-01 1.79880E-24
6.83251E-01 1.76172E-24
6.87303E-01 1.72533E-24
6.91342E-01 1.68963E-24
6.95366E-01 1.65459E-24
6.99375E-01 1.62020E-24
7.03368E-01 1.58644E-24
7.07347E-01 1.55332E-24
7.11309E-01 1.52080E-24
7.15256E-01 1.48888E-24
7.19186E-01 1.45755E-24
7.23099E-01 1.42679E-24
7.26995E-01 1.39659E-24
7.30874E-01 1.36694E-24
7.34736E-01 1.33784E-24
7.38579E-01 1.30926E-24
7.42405E-01 1.28120E-24
7.46212E-01 1.25365E-24
7.50000E-01 1.22660E-24
7.53769E-01 1.20003E-24
7.57519E-01 1.17394E-24
7.61249E-01 1.14833E-24
7.64960E-01 1.12317E-24
7.68650E-01 1.09847E-24
7.72320E-01 1.07420E-24
7.75968E-01 1.05038E-24
7.79596E-01 1.02697E-24
7.83203E-01 1.00399E-24
7.86788E-01 9.81419E-25
7.90351E-01 9.59249E-25
7.93893E-01 9.37475E-25
7.97411E-01 9.16090E-25
8.00908E-01 8.95086E-25
8.04381E-01 8.74456E-25
8.07831E-01 8.54195E-25
8.11257E-01 8.34294E-25
8.14660E-01 8.14748E-25
8.18039E-01 7.95551E-25
8.21394E-01 7.76696E-25
8.24724E-01 7.58178E-25
8.28030E-01 7.39991E-25
8.31310E-01 7.22129E-25
8.34565E-01 7.04586E-25
8.37795E-01 6.87358E-25
8.40999E-01 6.70438E-25
8.44177E-01 6.53822E-25
8.47329E-01 6.37505E-25
8.50455E-01 6.21482E-25
8.53553E-01 6.05749E-25
8.56625E-01 5.90299E-25
8.59670E-01 5.75130E-25
8.62687E-01 5.60235E-25
8.65677E-01 5.45612E-25
8.68639E-01 5.31256E-25
8.71572E-01 5.17163E-25
8.74478E-01 5.03328E-25
8.77355E-01 4.89748E-25
8.80203E-01 4.76418E-25
8.83022E-01 4.63336E-25
8.85812E-01 4.50497E-25
8.88573E-01 4.37898E-25
8.91304E-01 4.25536E-25
8.94005E-01 4.13406E-25
8.96677E-01 4.01506E-25
8.99318E-01 3.89831E-25
9.01928E-01 3.78381E-25
9.04508E-01 3.67150E-25
9.07058E-01 3.56136E-25
9.09576E-01 3.45335E-25
9.12063E-01 3.34746E-25
9.14519E-01 3.24366E-25
9.16943E-01 3.14190E-25
9.19335E-01 3.04218E-25
9.21696E-01 2.94446E-25
9.24024E-01 2.84871E-25
9.26320E-01 2.75491E-25
9.28584E-01 2.66304E-25
9.30815E-01 2.57308E-25
9.33013E-01 2.48499E-25
9.35178E-01 2.39876E-25
9.37310E-01 2.31437E-25
9.39409E-01 2.23179E-25
9.41474E-01 2.15100E-25
9.43505E-01 2.07198E-25
9.45503E-01 1.99472E-25
9.47467E-01 1.91919E-25
9.49397E-01 1.84537E-25
9.51293E-01 1.77325E-25
9.53154E-01 1.70280E-25
9.54981E-01 1.63402E-25
9.56773E-01 1.56688E-25
9.58530E-01 1.50136E-25
9.60252E-01 1.43746E-25
9.61940E-01 1.37515E-25
9.63592E-01 1.31442E-25
9.65209E-01 1.25525E-25
9.66790E-01 1.19763E-25
9.68336E-01 1.14156E-25
9.69846E-01 1.08700E-25
9.71321E-01 1.03395E-25
9.72759E-01 9.82403E-26
9.74162E-01 9.32339E-26
9.75528E-01 8.83747E-26
9.76858E-01 8.36616E-26
9.78152E-01 7.90935E-26
9.79410E-01 7.46693E-26
9.80631E-01 7.03880E-26
9.81815E-01 6.62486E-26
9.82963E-01 6.22500E-26
9.84074E-01 5.83914E-26
9.85148E-01 5.46718E-26
9.86185E-01 5.10904E-26
9.87185E-01 4.76463E-26
9.88148E-01 4.43388E-26
9.89074E-01 4.11670E-26
9.89962E-01 3.81302E-26
9.90814E-01 3.52277E-26
9.91627E-01 3.24589E-26
9.92404E-01 2.98231E-26
9.93143E-01 2.73197E-26
9.93844E-01 2.49480E-26
9.94508E-01 2.27077E-26
9.95134E-01 2.05981E-26
9.95722E-01 1.86187E-26
9.96273E-01 1.67692E-26
9.96786E-01 1.50491E-26
9.97261E-01 1.34579E-26
9.97698E-01 1.19954E-26
9.98097E-01 1.06611E-26
9.98459E-01 9.45489E-27
9.98782E-01 8.37636E-27
9.99067E-01 7.42529E-27
9.99315E-01 6.60147E-27
9.99524E-01 5.90470E-27
9.99695E-01 5.33484E-27
9.99829E-01 4.89175E-27
9.99924E-01 4.57533E-27
9.99981E-01 4.38550E-27
1.00000E+00 4.32223E-27
