 #
 # Subroutine ELSEPA. Elastic scattering of electrons and positrons
 #                    by neutral atoms and positive ions
 #
 # Projectile: electron
 # Kinetic energy = 1.50000E+07 eV = 5.51240E+05 a.u.
 #
 # WARNING: High-energy factorization with free-atom DF screening.
 #          Absorption, polarization and exchange corrections are
 #          switched off.
 #          Phase shifts are calculated for the bare nucleus.
 #          Scattering amplitudes are not evaluated.
 #
 # Element: Ac,  Z =  89,  atomic weight = 2.27028E+02 g/mol
 #
 # Nuclear model: Fermi distribution
 #                Average radius = 6.52745E-13 cm
 #                Skin thickness = 5.46000E-14 cm
 #
 # Number of electrons = 89
 #
 # Total elastic cross section = 1.15599E-17 cm**2 = 4.12811E-01 a0**2
 # 1st transport cross section = 6.14273E-23 cm**2 = 2.19361E-06 a0**2
 # 2nd transport cross section = 1.69501E-22 cm**2 = 6.05298E-06 a0**2
 #
 #
 # Differential cross section:                       MU=(1-COS(THETA))/2
 #
 #  THETA        MU          DCS          DCS        Sherman      error
 #  (deg)                 (cm**2/sr)   (a0**2/sr)    function
 #----------------------------------------------------------------------
0.00000E+00 3.64344E-11
7.61557E-13 3.64302E-11
1.18994E-12 3.64279E-11
1.71346E-12 3.64251E-11
2.33225E-12 3.64218E-11
3.04617E-12 3.64179E-11
3.85530E-12 3.64136E-11
4.75964E-12 3.64087E-11
5.75917E-12 3.64033E-11
6.85391E-12 3.63974E-11
8.04379E-12 3.63911E-11
9.32893E-12 3.63842E-11
1.07092E-11 3.63767E-11
1.21847E-11 3.63688E-11
1.37554E-11 3.63604E-11
1.54213E-11 3.63515E-11
1.71823E-11 3.63420E-11
1.90386E-11 3.63321E-11
2.09900E-11 3.63217E-11
2.30367E-11 3.63107E-11
2.51785E-11 3.62993E-11
2.74156E-11 3.62873E-11
2.97478E-11 3.62749E-11
3.21752E-11 3.62619E-11
3.46979E-11 3.62485E-11
3.73157E-11 3.62345E-11
4.00286E-11 3.62201E-11
4.28368E-11 3.62051E-11
4.57402E-11 3.61897E-11
4.87388E-11 3.61737E-11
5.18325E-11 3.61573E-11
5.50215E-11 3.61404E-11
5.83057E-11 3.61230E-11
6.16850E-11 3.61051E-11
6.51595E-11 3.60867E-11
6.87293E-11 3.60678E-11
7.23943E-11 3.60484E-11
7.61544E-11 3.60286E-11
1.18991E-10 3.58037E-11
1.71347E-10 3.55319E-11
2.33223E-10 3.52151E-11
3.04617E-10 3.48552E-11
3.85531E-10 3.44545E-11
4.75965E-10 3.40155E-11
5.75917E-10 3.35410E-11
6.85389E-10 3.30335E-11
8.04380E-10 3.24962E-11
9.32891E-10 3.19319E-11
1.07092E-09 3.13463E-11
1.21847E-09 3.07383E-11
1.37554E-09 3.01098E-11
1.54213E-09 2.94666E-11
1.71823E-09 2.88155E-11
1.90386E-09 2.81519E-11
2.09900E-09 2.74784E-11
2.30367E-09 2.68066E-11
2.51785E-09 2.61324E-11
2.74156E-09 2.54549E-11
2.97478E-09 2.47793E-11
3.21752E-09 2.41149E-11
3.46978E-09 2.34526E-11
3.73156E-09 2.27941E-11
4.00286E-09 2.21506E-11
4.28368E-09 2.15178E-11
4.57402E-09 2.08924E-11
4.87388E-09 2.02775E-11
5.18326E-09 1.96838E-11
5.50215E-09 1.90999E-11
5.83057E-09 1.85265E-11
6.16850E-09 1.79722E-11
6.51596E-09 1.74343E-11
6.87293E-09 1.69080E-11
7.23942E-09 1.63945E-11
7.61544E-09 1.59041E-11
1.18991E-08 1.17662E-11
1.71347E-08 8.86982E-12
2.33223E-08 6.84353E-12
3.04617E-08 5.39208E-12
3.85531E-08 4.32171E-12
4.75965E-08 3.51111E-12
5.75917E-08 2.88419E-12
6.85389E-08 2.39137E-12
8.04380E-08 1.99949E-12
9.32891E-08 1.68512E-12
1.07092E-07 1.42030E-12
1.21847E-07 1.21158E-12
1.37554E-07 1.04698E-12
1.54213E-07 9.10268E-13
1.71823E-07 7.89589E-13
1.90386E-07 6.91802E-13
2.09900E-07 6.11729E-13
2.30367E-07 5.39659E-13
2.51785E-07 4.78237E-13
2.74156E-07 4.26917E-13
2.97478E-07 3.82732E-13
3.21752E-07 3.42276E-13
3.46978E-07 3.07913E-13
3.73156E-07 2.78536E-13
4.00286E-07 2.51741E-13
4.28368E-07 2.27993E-13
4.57402E-07 2.07432E-13
4.87388E-07 1.89356E-13
5.18325E-07 1.72562E-13
5.50215E-07 1.57861E-13
5.83057E-07 1.44938E-13
6.16850E-07 1.33121E-13
6.51596E-07 1.22419E-13
6.87293E-07 1.12926E-13
7.23942E-07 1.04450E-13
7.61543E-07 9.65221E-14
1.18991E-06 4.80615E-14
1.71347E-06 2.66034E-14
2.33223E-06 1.58325E-14
3.04617E-06 9.95765E-15
3.85531E-06 6.58374E-15
4.75964E-06 4.53235E-15
5.75916E-06 3.22468E-15
6.85388E-06 2.35969E-15
8.04378E-06 1.76756E-15
9.32888E-06 1.35028E-15
1.07092E-05 1.04855E-15
1.21846E-05 8.27695E-16
1.37553E-05 6.62478E-16
1.54212E-05 5.36126E-16
1.71822E-05 4.38822E-16
1.90385E-05 3.62573E-16
2.09899E-05 3.02591E-16
2.30365E-05 2.54464E-16
2.51783E-05 2.15523E-16
2.74153E-05 1.83711E-16
2.97475E-05 1.57469E-16
3.21749E-05 1.35768E-16
3.46974E-05 1.17700E-16
3.73152E-05 1.02525E-16
4.00281E-05 8.97268E-17
4.28362E-05 7.88735E-17
4.57395E-05 6.96063E-17
4.87380E-05 6.16487E-17
5.18317E-05 5.47963E-17
5.50205E-05 4.88699E-17
5.83045E-05 4.37164E-17
6.16838E-05 3.92276E-17
6.51582E-05 3.53037E-17
6.87277E-05 3.18590E-17
7.23925E-05 2.88251E-17
7.61524E-05 2.61419E-17
9.21439E-05 1.80951E-17
1.09658E-04 1.29244E-17
1.28695E-04 9.47857E-18
1.49255E-04 7.10951E-18
1.71338E-04 5.43684E-18
1.94942E-04 4.22848E-18
2.20070E-04 3.33785E-18
2.46720E-04 2.66970E-18
2.74892E-04 2.16064E-18
3.04586E-04 1.76727E-18
3.35803E-04 1.45950E-18
3.68542E-04 1.21589E-18
4.02802E-04 1.02108E-18
4.38585E-04 8.63782E-19
4.75889E-04 7.35658E-19
5.14715E-04 6.30466E-19
5.55063E-04 5.43439E-19
5.96931E-04 4.70947E-19
6.40321E-04 4.10169E-19
6.85233E-04 3.58902E-19
7.31665E-04 3.15418E-19
7.79618E-04 2.78336E-19
8.29092E-04 2.46561E-19
8.80086E-04 2.19203E-19
9.32601E-04 1.95546E-19
9.86636E-04 1.75003E-19
1.04219E-03 1.57096E-19
1.09927E-03 1.41429E-19
1.15786E-03 1.27672E-19
1.21797E-03 1.15553E-19
1.27961E-03 1.04842E-19
1.34276E-03 9.53485E-20
1.40743E-03 8.69091E-20
1.47362E-03 7.93860E-20
1.54133E-03 7.26626E-20
1.61056E-03 6.66384E-20
1.68131E-03 6.12280E-20
1.75357E-03 5.63579E-20
1.82735E-03 5.19642E-20
1.90265E-03 4.79924E-20
1.97947E-03 4.43943E-20
2.05780E-03 4.11287E-20
2.13765E-03 3.81591E-20
2.21902E-03 3.54540E-20
2.30190E-03 3.29854E-20
2.38630E-03 3.07291E-20
2.47222E-03 2.86633E-20
2.55965E-03 2.67692E-20
2.64859E-03 2.50297E-20
2.73905E-03 2.34301E-20
2.83103E-03 2.19568E-20
2.92452E-03 2.05983E-20
3.01952E-03 1.93438E-20
3.11604E-03 1.81839E-20
3.21407E-03 1.71102E-20
3.31362E-03 1.61151E-20
3.41468E-03 1.51918E-20
3.51725E-03 1.43341E-20
3.62133E-03 1.35364E-20
3.72692E-03 1.27939E-20
3.83403E-03 1.21020E-20
3.94265E-03 1.14566E-20
4.05278E-03 1.08539E-20
4.16442E-03 1.02907E-20
4.27757E-03 9.76379E-21
4.39223E-03 9.27047E-21
4.50840E-03 8.80818E-21
4.62608E-03 8.37459E-21
4.74527E-03 7.96759E-21
4.86597E-03 7.58524E-21
4.98817E-03 7.22576E-21
5.11188E-03 6.88752E-21
5.23711E-03 6.56903E-21
5.36383E-03 6.26892E-21
5.49207E-03 5.98592E-21
5.62181E-03 5.71888E-21
5.75306E-03 5.46672E-21
5.88581E-03 5.22845E-21
6.02007E-03 5.00316E-21
6.15583E-03 4.79001E-21
6.29310E-03 4.58822E-21
6.43187E-03 4.39707E-21
6.57214E-03 4.21589E-21
6.71392E-03 4.04405E-21
6.85720E-03 3.88099E-21
7.00198E-03 3.72616E-21
7.14827E-03 3.57908E-21
7.29605E-03 3.43928E-21
7.44534E-03 3.30633E-21
7.59612E-03 3.17983E-21
7.97965E-03 2.88938E-21
8.37255E-03 2.63180E-21
8.77480E-03 2.40267E-21
9.18641E-03 2.19830E-21
9.60736E-03 2.01552E-21
1.00376E-02 1.85165E-21
1.04773E-02 1.70436E-21
1.09262E-02 1.57168E-21
1.13844E-02 1.45188E-21
1.18520E-02 1.34348E-21
1.23288E-02 1.24520E-21
1.28150E-02 1.15591E-21
1.33104E-02 1.07465E-21
1.38150E-02 1.00054E-21
1.43290E-02 9.32848E-22
1.48521E-02 8.70907E-22
1.53845E-02 8.14136E-22
1.59262E-02 7.62021E-22
1.64770E-02 7.14107E-22
1.70371E-02 6.69990E-22
1.76063E-02 6.29312E-22
1.81848E-02 5.91751E-22
1.87724E-02 5.57023E-22
1.93692E-02 5.24872E-22
1.99751E-02 4.95070E-22
2.05901E-02 4.67412E-22
2.12143E-02 4.41711E-22
2.18476E-02 4.17803E-22
2.24900E-02 3.95538E-22
2.31415E-02 3.74780E-22
2.38021E-02 3.55407E-22
2.44717E-02 3.37308E-22
2.51504E-02 3.20382E-22
2.58382E-02 3.04538E-22
2.65349E-02 2.89693E-22
2.72407E-02 2.75771E-22
2.79555E-02 2.62702E-22
2.86793E-02 2.50425E-22
2.94120E-02 2.38882E-22
3.01537E-02 2.28018E-22
3.09043E-02 2.17786E-22
3.16639E-02 2.08142E-22
3.24324E-02 1.99045E-22
3.32098E-02 1.90458E-22
3.39961E-02 1.82345E-22
3.47912E-02 1.74675E-22
3.55952E-02 1.67420E-22
3.64081E-02 1.60552E-22
3.72297E-02 1.54045E-22
3.80602E-02 1.47877E-22
3.88995E-02 1.42027E-22
3.97476E-02 1.36474E-22
4.06044E-02 1.31201E-22
4.14700E-02 1.26189E-22
4.23443E-02 1.21425E-22
4.32273E-02 1.16893E-22
4.41190E-02 1.12577E-22
4.50194E-02 1.08467E-22
4.59284E-02 1.04551E-22
4.68461E-02 1.00817E-22
4.87074E-02 9.38557E-23
5.06030E-02 8.75084E-23
5.25328E-02 8.17095E-23
5.44967E-02 7.64022E-23
5.64946E-02 7.15359E-23
5.85262E-02 6.70664E-23
6.05914E-02 6.29545E-23
6.26901E-02 5.91656E-23
6.48222E-02 5.56689E-23
6.69873E-02 5.24371E-23
6.91854E-02 4.94457E-23
7.14163E-02 4.66732E-23
7.36799E-02 4.41000E-23
7.59760E-02 4.17087E-23
7.83043E-02 3.94837E-23
8.06647E-02 3.74108E-23
8.30571E-02 3.54775E-23
8.54812E-02 3.36722E-23
8.79369E-02 3.19846E-23
9.04240E-02 3.04054E-23
9.29422E-02 2.89261E-23
9.54915E-02 2.75390E-23
9.80716E-02 2.62370E-23
1.00682E-01 2.50138E-23
1.03323E-01 2.38636E-23
1.05995E-01 2.27810E-23
1.08696E-01 2.17614E-23
1.11427E-01 2.08002E-23
1.14188E-01 1.98935E-23
1.16978E-01 1.90372E-23
1.19797E-01 1.82268E-23
1.22645E-01 1.74602E-23
1.25522E-01 1.67347E-23
1.28428E-01 1.60475E-23
1.31361E-01 1.53961E-23
1.34323E-01 1.47783E-23
1.37313E-01 1.41919E-23
1.40330E-01 1.36349E-23
1.43375E-01 1.31056E-23
1.46447E-01 1.26023E-23
1.49545E-01 1.21234E-23
1.52671E-01 1.16675E-23
1.55823E-01 1.12332E-23
1.59001E-01 1.08192E-23
1.62205E-01 1.04244E-23
1.65435E-01 1.00477E-23
1.68690E-01 9.68814E-24
1.71970E-01 9.34467E-24
1.75276E-01 9.01646E-24
1.78606E-01 8.70266E-24
1.81961E-01 8.40251E-24
1.85340E-01 8.11527E-24
1.88743E-01 7.84028E-24
1.92169E-01 7.57688E-24
1.95619E-01 7.32449E-24
1.99092E-01 7.08253E-24
2.02589E-01 6.85049E-24
2.06107E-01 6.62787E-24
2.09649E-01 6.41420E-24
2.13212E-01 6.20904E-24
2.16797E-01 6.01197E-24
2.20404E-01 5.82261E-24
2.24032E-01 5.64060E-24
2.27680E-01 5.46557E-24
2.31350E-01 5.29721E-24
2.35040E-01 5.13521E-24
2.38751E-01 4.97927E-24
2.42481E-01 4.82911E-24
2.46231E-01 4.68449E-24
2.50000E-01 4.54514E-24
2.53788E-01 4.41084E-24
2.57595E-01 4.28136E-24
2.61421E-01 4.15649E-24
2.65264E-01 4.03604E-24
2.69126E-01 3.91981E-24
2.73005E-01 3.80762E-24
2.76901E-01 3.69931E-24
2.80814E-01 3.59471E-24
2.84744E-01 3.49366E-24
2.88691E-01 3.39603E-24
2.92653E-01 3.30167E-24
2.96632E-01 3.21044E-24
3.00625E-01 3.12223E-24
3.04634E-01 3.03691E-24
3.08658E-01 2.95437E-24
3.12697E-01 2.87450E-24
3.16749E-01 2.79720E-24
3.20816E-01 2.72236E-24
3.24896E-01 2.64988E-24
3.28990E-01 2.57969E-24
3.33097E-01 2.51170E-24
3.37216E-01 2.44581E-24
3.41348E-01 2.38196E-24
3.45492E-01 2.32006E-24
3.49647E-01 2.26005E-24
3.53814E-01 2.20186E-24
3.57992E-01 2.14541E-24
3.62181E-01 2.09065E-24
3.66381E-01 2.03752E-24
3.70590E-01 1.98596E-24
3.74810E-01 1.93591E-24
3.79039E-01 1.88732E-24
3.83277E-01 1.84014E-24
3.87524E-01 1.79432E-24
3.91780E-01 1.74981E-24
3.96044E-01 1.70657E-24
4.00316E-01 1.66456E-24
4.04596E-01 1.62373E-24
4.08882E-01 1.58405E-24
4.13176E-01 1.54547E-24
4.17476E-01 1.50796E-24
4.21783E-01 1.47148E-24
4.26095E-01 1.43600E-24
4.30413E-01 1.40149E-24
4.34737E-01 1.36792E-24
4.39065E-01 1.33525E-24
4.43398E-01 1.30346E-24
4.47736E-01 1.27252E-24
4.52077E-01 1.24240E-24
4.56422E-01 1.21308E-24
4.60770E-01 1.18453E-24
4.65122E-01 1.15672E-24
4.69476E-01 1.12964E-24
4.73832E-01 1.10326E-24
4.78190E-01 1.07756E-24
4.82550E-01 1.05252E-24
4.86912E-01 1.02812E-24
4.91274E-01 1.00434E-24
4.95637E-01 9.81167E-25
5.00000E-01 9.58574E-25
5.04363E-01 9.36547E-25
5.08726E-01 9.15069E-25
5.13088E-01 8.94125E-25
5.17450E-01 8.73700E-25
5.21810E-01 8.53777E-25
5.26168E-01 8.34343E-25
5.30524E-01 8.15383E-25
5.34878E-01 7.96884E-25
5.39230E-01 7.78833E-25
5.43578E-01 7.61216E-25
5.47923E-01 7.44023E-25
5.52264E-01 7.27240E-25
5.56602E-01 7.10857E-25
5.60935E-01 6.94862E-25
5.65263E-01 6.79245E-25
5.69587E-01 6.63994E-25
5.73905E-01 6.49101E-25
5.78217E-01 6.34556E-25
5.82524E-01 6.20348E-25
5.86824E-01 6.06469E-25
5.91118E-01 5.92910E-25
5.95404E-01 5.79662E-25
5.99684E-01 5.66718E-25
6.03956E-01 5.54069E-25
6.08220E-01 5.41707E-25
6.12476E-01 5.29625E-25
6.16723E-01 5.17815E-25
6.20961E-01 5.06270E-25
6.25190E-01 4.94985E-25
6.29410E-01 4.83950E-25
6.33619E-01 4.73162E-25
6.37819E-01 4.62612E-25
6.42008E-01 4.52295E-25
6.46186E-01 4.42205E-25
6.50353E-01 4.32337E-25
6.54508E-01 4.22684E-25
6.58652E-01 4.13242E-25
6.62784E-01 4.04005E-25
6.66903E-01 3.94968E-25
6.71010E-01 3.86126E-25
6.75104E-01 3.77475E-25
6.79184E-01 3.69009E-25
6.83251E-01 3.60724E-25
6.87303E-01 3.52617E-25
6.91342E-01 3.44681E-25
6.95366E-01 3.36914E-25
6.99375E-01 3.29311E-25
7.03368E-01 3.21869E-25
7.07347E-01 3.14583E-25
7.11309E-01 3.07451E-25
7.15256E-01 3.00467E-25
7.19186E-01 2.93629E-25
7.23099E-01 2.86934E-25
7.26995E-01 2.80378E-25
7.30874E-01 2.73958E-25
7.34736E-01 2.67670E-25
7.38579E-01 2.61513E-25
7.42405E-01 2.55482E-25
7.46212E-01 2.49575E-25
7.50000E-01 2.43789E-25
7.53769E-01 2.38122E-25
7.57519E-01 2.32570E-25
7.61249E-01 2.27131E-25
7.64960E-01 2.21804E-25
7.68650E-01 2.16584E-25
7.72320E-01 2.11470E-25
7.75968E-01 2.06460E-25
7.79596E-01 2.01551E-25
7.83203E-01 1.96741E-25
7.86788E-01 1.92028E-25
7.90351E-01 1.87410E-25
7.93893E-01 1.82885E-25
7.97411E-01 1.78451E-25
8.00908E-01 1.74105E-25
8.04381E-01 1.69847E-25
8.07831E-01 1.65674E-25
8.11257E-01 1.61585E-25
8.14660E-01 1.57577E-25
8.18039E-01 1.53650E-25
8.21394E-01 1.49801E-25
8.24724E-01 1.46028E-25
8.28030E-01 1.42332E-25
8.31310E-01 1.38708E-25
8.34565E-01 1.35158E-25
8.37795E-01 1.31678E-25
8.40999E-01 1.28267E-25
8.44177E-01 1.24925E-25
8.47329E-01 1.21650E-25
8.50455E-01 1.18440E-25
8.53553E-01 1.15294E-25
8.56625E-01 1.12211E-25
8.59670E-01 1.09190E-25
8.62687E-01 1.06230E-25
8.65677E-01 1.03329E-25
8.68639E-01 1.00486E-25
8.71572E-01 9.77007E-26
8.74478E-01 9.49716E-26
8.77355E-01 9.22977E-26
8.80203E-01 8.96780E-26
8.83022E-01 8.71115E-26
8.85812E-01 8.45972E-26
8.88573E-01 8.21343E-26
8.91304E-01 7.97217E-26
8.94005E-01 7.73587E-26
8.96677E-01 7.50444E-26
8.99318E-01 7.27779E-26
9.01928E-01 7.05584E-26
9.04508E-01 6.83852E-26
9.07058E-01 6.62574E-26
9.09576E-01 6.41742E-26
9.12063E-01 6.21350E-26
9.14519E-01 6.01391E-26
9.16943E-01 5.81856E-26
9.19335E-01 5.62740E-26
9.21696E-01 5.44036E-26
9.24024E-01 5.25737E-26
9.26320E-01 5.07837E-26
9.28584E-01 4.90330E-26
9.30815E-01 4.73209E-26
9.33013E-01 4.56470E-26
9.35178E-01 4.40106E-26
9.37310E-01 4.24112E-26
9.39409E-01 4.08482E-26
9.41474E-01 3.93212E-26
9.43505E-01 3.78296E-26
9.45503E-01 3.63728E-26
9.47467E-01 3.49505E-26
9.49397E-01 3.35622E-26
9.51293E-01 3.22074E-26
9.53154E-01 3.08856E-26
9.54981E-01 2.95965E-26
9.56773E-01 2.83395E-26
9.58530E-01 2.71144E-26
9.60252E-01 2.59207E-26
9.61940E-01 2.47580E-26
9.63592E-01 2.36259E-26
9.65209E-01 2.25241E-26
9.66790E-01 2.14523E-26
9.68336E-01 2.04101E-26
9.69846E-01 1.93971E-26
9.71321E-01 1.84131E-26
9.72759E-01 1.74577E-26
9.74162E-01 1.65306E-26
9.75528E-01 1.56316E-26
9.76858E-01 1.47603E-26
9.78152E-01 1.39165E-26
9.79410E-01 1.31000E-26
9.80631E-01 1.23104E-26
9.81815E-01 1.15475E-26
9.82963E-01 1.08112E-26
9.84074E-01 1.01011E-26
9.85148E-01 9.41702E-27
9.86185E-01 8.75881E-27
9.87185E-01 8.12623E-27
9.88148E-01 7.51910E-27
9.89074E-01 6.93722E-27
9.89962E-01 6.38042E-27
9.90814E-01 5.84854E-27
9.91627E-01 5.34140E-27
9.92404E-01 4.85886E-27
9.93143E-01 4.40076E-27
9.93844E-01 3.96698E-27
9.94508E-01 3.55738E-27
9.95134E-01 3.17184E-27
9.95722E-01 2.81024E-27
9.96273E-01 2.47247E-27
9.96786E-01 2.15843E-27
9.97261E-01 1.86803E-27
9.97698E-01 1.60117E-27
9.98097E-01 1.35779E-27
9.98459E-01 1.13781E-27
9.98782E-01 9.41159E-28
9.99067E-01 7.67780E-28
9.99315E-01 6.17624E-28
9.99524E-01 4.90643E-28
9.99695E-01 3.86802E-28
9.99829E-01 3.06069E-28
9.99924E-01 2.48419E-28
9.99981E-01 2.13836E-28
1.00000E+00 2.02310E-28
