 #
 # Subroutine ELSEPA. Elastic scattering of electrons and positrons
 #                    by neutral atoms and positive ions
 #
 # Projectile: electron
 # Kinetic energy = 5.00000E+07 eV = 1.83747E+06 a.u.
 #
 # WARNING: High-energy factorization with free-atom DF screening.
 #          Absorption, polarization and exchange corrections are
 #          switched off.
 #          Phase shifts are calculated for the bare nucleus.
 #          Scattering amplitudes are not evaluated.
 #
 # Element: Ac,  Z =  89,  atomic weight = 2.27028E+02 g/mol
 #
 # Nuclear model: Fermi distribution
 #                Average radius = 6.52745E-13 cm
 #                Skin thickness = 5.46000E-14 cm
 #
 # Number of electrons = 89
 #
 # Total elastic cross section = 1.15425E-17 cm**2 = 4.12189E-01 a0**2
 # 1st transport cross section = 5.90163E-24 cm**2 = 2.10751E-07 a0**2
 # 2nd transport cross section = 1.72742E-23 cm**2 = 6.16873E-07 a0**2
 #
 #
 # Differential cross section:                       MU=(1-COS(THETA))/2
 #
 #  THETA        MU          DCS          DCS        Sherman      error
 #  (deg)                 (cm**2/sr)   (a0**2/sr)    function
 #----------------------------------------------------------------------
0.00000E+00 3.86370E-10
7.61557E-13 3.85908E-10
1.18994E-12 3.85649E-10
1.71346E-12 3.85333E-10
2.33225E-12 3.84960E-10
3.04617E-12 3.84531E-10
3.85530E-12 3.84046E-10
4.75964E-12 3.83504E-10
5.75917E-12 3.82907E-10
6.85391E-12 3.82255E-10
8.04379E-12 3.81549E-10
9.32893E-12 3.80788E-10
1.07092E-11 3.79974E-10
1.21847E-11 3.79107E-10
1.37554E-11 3.78187E-10
1.54213E-11 3.77216E-10
1.71823E-11 3.76194E-10
1.90386E-11 3.75121E-10
2.09900E-11 3.73999E-10
2.30367E-11 3.72828E-10
2.51785E-11 3.71608E-10
2.74156E-11 3.70342E-10
2.97478E-11 3.69029E-10
3.21752E-11 3.67671E-10
3.46979E-11 3.66268E-10
3.73157E-11 3.64821E-10
4.00286E-11 3.63332E-10
4.28368E-11 3.61800E-10
4.57402E-11 3.60228E-10
4.87388E-11 3.58616E-10
5.18325E-11 3.56966E-10
5.50215E-11 3.55277E-10
5.83057E-11 3.53552E-10
6.16850E-11 3.51791E-10
6.51595E-11 3.49996E-10
6.87293E-11 3.48167E-10
7.23943E-11 3.46306E-10
7.61544E-11 3.44413E-10
1.18991E-10 3.24045E-10
1.71347E-10 3.01723E-10
2.33223E-10 2.78501E-10
3.04617E-10 2.55265E-10
3.85531E-10 2.32716E-10
4.75965E-10 2.11357E-10
5.75917E-10 1.91509E-10
6.85389E-10 1.73339E-10
8.04380E-10 1.56905E-10
9.32891E-10 1.42163E-10
1.07092E-09 1.28995E-10
1.21847E-09 1.17274E-10
1.37554E-09 1.06857E-10
1.54213E-09 9.76018E-11
1.71823E-09 8.93710E-11
1.90386E-09 8.20383E-11
2.09900E-09 7.54901E-11
2.30367E-09 6.96259E-11
2.51785E-09 6.43580E-11
2.74156E-09 5.96107E-11
2.97478E-09 5.53188E-11
3.21752E-09 5.14231E-11
3.46978E-09 4.78782E-11
3.73156E-09 4.46443E-11
4.00286E-09 4.16868E-11
4.28368E-09 3.89757E-11
4.57402E-09 3.64853E-11
4.87388E-09 3.41932E-11
5.18326E-09 3.20799E-11
5.50215E-09 3.01284E-11
5.83057E-09 2.83237E-11
6.16850E-09 2.66526E-11
6.51596E-09 2.51031E-11
6.87293E-09 2.36643E-11
7.23942E-09 2.23260E-11
7.61544E-09 2.10816E-11
1.18991E-08 1.22967E-11
1.71347E-08 7.77646E-12
2.33223E-08 5.18693E-12
3.04617E-08 3.60317E-12
3.85531E-08 2.58332E-12
4.75965E-08 1.90092E-12
5.75917E-08 1.43067E-12
6.85389E-08 1.09854E-12
8.04380E-08 8.58295E-13
9.32891E-08 6.80888E-13
1.07092E-07 5.47580E-13
1.21847E-07 4.45576E-13
1.37554E-07 3.66281E-13
1.54213E-07 3.03791E-13
1.71823E-07 2.53967E-13
1.90386E-07 2.13842E-13
2.09900E-07 1.81289E-13
2.30367E-07 1.54646E-13
2.51785E-07 1.32558E-13
2.74156E-07 1.14281E-13
2.97478E-07 9.90724E-14
3.21752E-07 8.63298E-14
3.46978E-07 7.55927E-14
3.73156E-07 6.64886E-14
4.00286E-07 5.87232E-14
4.28368E-07 5.20646E-14
4.57402E-07 4.63283E-14
4.87388E-07 4.13658E-14
5.18325E-07 3.70559E-14
5.50215E-07 3.32988E-14
5.83057E-07 3.00113E-14
6.16850E-07 2.71240E-14
6.51596E-07 2.45788E-14
6.87293E-07 2.23267E-14
7.23942E-07 2.03268E-14
7.61543E-07 1.85462E-14
1.18991E-06 8.19759E-15
1.71347E-06 4.17744E-15
2.33223E-06 2.35057E-15
3.04617E-06 1.42165E-15
3.85531E-06 9.09027E-16
4.75964E-06 6.07659E-16
5.75916E-06 4.21288E-16
6.85388E-06 3.01246E-16
8.04378E-06 2.21135E-16
9.32888E-06 1.66005E-16
1.07092E-05 1.27060E-16
1.21846E-05 9.89111E-17
1.37553E-05 7.81476E-17
1.54212E-05 6.25576E-17
1.71822E-05 5.06682E-17
1.90385E-05 4.14441E-17
2.09899E-05 3.42734E-17
2.30365E-05 2.85811E-17
2.51783E-05 2.40136E-17
2.74153E-05 2.03156E-17
2.97475E-05 1.72993E-17
3.21749E-05 1.48222E-17
3.46974E-05 1.27740E-17
3.73152E-05 1.10693E-17
4.00281E-05 9.64082E-18
4.28362E-05 8.43600E-18
4.57395E-05 7.41353E-18
4.87380E-05 6.54106E-18
5.18317E-05 5.79288E-18
5.50205E-05 5.14842E-18
5.83045E-05 4.59111E-18
6.16838E-05 4.10730E-18
6.51582E-05 3.68571E-18
6.87277E-05 3.31701E-18
7.23925E-05 2.99338E-18
7.61524E-05 2.70689E-18
9.21439E-05 1.85660E-18
1.09658E-04 1.31565E-18
1.28695E-04 9.58312E-19
1.49255E-04 7.14548E-19
1.71338E-04 5.43653E-19
1.94942E-04 4.20976E-19
2.20070E-04 3.31060E-19
2.46720E-04 2.63940E-19
2.74892E-04 2.13022E-19
3.04586E-04 1.73822E-19
3.35803E-04 1.43251E-19
3.68542E-04 1.19123E-19
4.02802E-04 9.98756E-20
4.38585E-04 8.43699E-20
4.75889E-04 7.17642E-20
5.14715E-04 6.14326E-20
5.55063E-04 5.28984E-20
5.96931E-04 4.57997E-20
6.40321E-04 3.98556E-20
6.85233E-04 3.48476E-20
7.31665E-04 3.06045E-20
7.79618E-04 2.69898E-20
8.29092E-04 2.38951E-20
8.80086E-04 2.12330E-20
9.32601E-04 1.89328E-20
9.86636E-04 1.69371E-20
1.04219E-03 1.51985E-20
1.09927E-03 1.36784E-20
1.15786E-03 1.23445E-20
1.21797E-03 1.11700E-20
1.27961E-03 1.01327E-20
1.34276E-03 9.21362E-21
1.40743E-03 8.39701E-21
1.47362E-03 7.66937E-21
1.54133E-03 7.01934E-21
1.61056E-03 6.43716E-21
1.68131E-03 5.91448E-21
1.75357E-03 5.44413E-21
1.82735E-03 5.01993E-21
1.90265E-03 4.63655E-21
1.97947E-03 4.28934E-21
2.05780E-03 3.97426E-21
2.13765E-03 3.68782E-21
2.21902E-03 3.42692E-21
2.30190E-03 3.18888E-21
2.38630E-03 2.97132E-21
2.47222E-03 2.77217E-21
2.55965E-03 2.58956E-21
2.64859E-03 2.42188E-21
2.73905E-03 2.26769E-21
2.83103E-03 2.12568E-21
2.92452E-03 1.99472E-21
3.01952E-03 1.87380E-21
3.11604E-03 1.76199E-21
3.21407E-03 1.65848E-21
3.31362E-03 1.56254E-21
3.41468E-03 1.47352E-21
3.51725E-03 1.39081E-21
3.62133E-03 1.31388E-21
3.72692E-03 1.24227E-21
3.83403E-03 1.17552E-21
3.94265E-03 1.11324E-21
4.05278E-03 1.05509E-21
4.16442E-03 1.00072E-21
4.27757E-03 9.49853E-22
4.39223E-03 9.02221E-22
4.50840E-03 8.57569E-22
4.62608E-03 8.15682E-22
4.74527E-03 7.76354E-22
4.86597E-03 7.39396E-22
4.98817E-03 7.04641E-22
5.11188E-03 6.71931E-22
5.23711E-03 6.41120E-22
5.36383E-03 6.12079E-22
5.49207E-03 5.84686E-22
5.62181E-03 5.58829E-22
5.75306E-03 5.34404E-22
5.88581E-03 5.11318E-22
6.02007E-03 4.89482E-22
6.15583E-03 4.68815E-22
6.29310E-03 4.49243E-22
6.43187E-03 4.30695E-22
6.57214E-03 4.13108E-22
6.71392E-03 3.96423E-22
6.85720E-03 3.80583E-22
7.00198E-03 3.65538E-22
7.14827E-03 3.51239E-22
7.29605E-03 3.37642E-22
7.44534E-03 3.24707E-22
7.59612E-03 3.12394E-22
7.97965E-03 2.84105E-22
8.37255E-03 2.58989E-22
8.77480E-03 2.36625E-22
9.18641E-03 2.16656E-22
9.60736E-03 1.98778E-22
1.00376E-02 1.82733E-22
1.04773E-02 1.68299E-22
1.09262E-02 1.55290E-22
1.13844E-02 1.43512E-22
1.18520E-02 1.32843E-22
1.23288E-02 1.23159E-22
1.28150E-02 1.14352E-22
1.33104E-02 1.06327E-22
1.38150E-02 9.90016E-23
1.43290E-02 9.23027E-23
1.48521E-02 8.61665E-23
1.53845E-02 8.05367E-23
1.59262E-02 7.53633E-23
1.64770E-02 7.06023E-23
1.70371E-02 6.62142E-23
1.76063E-02 6.21643E-23
1.81848E-02 5.84214E-23
1.87724E-02 5.49576E-23
1.93692E-02 5.17482E-23
1.99751E-02 4.87706E-23
2.05901E-02 4.60050E-23
2.12143E-02 4.34333E-23
2.18476E-02 4.10392E-23
2.24900E-02 3.88080E-23
2.31415E-02 3.67265E-23
2.38021E-02 3.47826E-23
2.44717E-02 3.29655E-23
2.51504E-02 3.12653E-23
2.58382E-02 2.96730E-23
2.65349E-02 2.81803E-23
2.72407E-02 2.67799E-23
2.79555E-02 2.54649E-23
2.86793E-02 2.42290E-23
2.94120E-02 2.30666E-23
3.01537E-02 2.19725E-23
3.09043E-02 2.09419E-23
3.16639E-02 1.99703E-23
3.24324E-02 1.90537E-23
3.32098E-02 1.81884E-23
3.39961E-02 1.73710E-23
3.47912E-02 1.65982E-23
3.55952E-02 1.58673E-23
3.64081E-02 1.51754E-23
3.72297E-02 1.45201E-23
3.80602E-02 1.38992E-23
3.88995E-02 1.33103E-23
3.97476E-02 1.27516E-23
4.06044E-02 1.22212E-23
4.14700E-02 1.17175E-23
4.23443E-02 1.12387E-23
4.32273E-02 1.07835E-23
4.41190E-02 1.03505E-23
4.50194E-02 9.93833E-24
4.59284E-02 9.54585E-24
4.68461E-02 9.17193E-24
4.87074E-02 8.47570E-24
5.06030E-02 7.84206E-24
5.25328E-02 7.26441E-24
5.44967E-02 6.73694E-24
5.64946E-02 6.25453E-24
5.85262E-02 5.81268E-24
6.05914E-02 5.40738E-24
6.26901E-02 5.03510E-24
6.48222E-02 4.69270E-24
6.69873E-02 4.37739E-24
6.91854E-02 4.08665E-24
7.14163E-02 3.81827E-24
7.36799E-02 3.57025E-24
7.59760E-02 3.34078E-24
7.83043E-02 3.12827E-24
8.06647E-02 2.93126E-24
8.30571E-02 2.74845E-24
8.54812E-02 2.57865E-24
8.79369E-02 2.42080E-24
9.04240E-02 2.27392E-24
9.29422E-02 2.13715E-24
9.54915E-02 2.00968E-24
9.80716E-02 1.89080E-24
1.00682E-01 1.77983E-24
1.03323E-01 1.67617E-24
1.05995E-01 1.57929E-24
1.08696E-01 1.48866E-24
1.11427E-01 1.40385E-24
1.14188E-01 1.32441E-24
1.16978E-01 1.24997E-24
1.19797E-01 1.18017E-24
1.22645E-01 1.11468E-24
1.25522E-01 1.05321E-24
1.28428E-01 9.95473E-25
1.31361E-01 9.41219E-25
1.34323E-01 8.90212E-25
1.37313E-01 8.42234E-25
1.40330E-01 7.97084E-25
1.43375E-01 7.54577E-25
1.46447E-01 7.14540E-25
1.49545E-01 6.76814E-25
1.52671E-01 6.41250E-25
1.55823E-01 6.07712E-25
1.59001E-01 5.76072E-25
1.62205E-01 5.46212E-25
1.65435E-01 5.18021E-25
1.68690E-01 4.91397E-25
1.71970E-01 4.66243E-25
1.75276E-01 4.42472E-25
1.78606E-01 4.20000E-25
1.81961E-01 3.98749E-25
1.85340E-01 3.78647E-25
1.88743E-01 3.59626E-25
1.92169E-01 3.41624E-25
1.95619E-01 3.24580E-25
1.99092E-01 3.08441E-25
2.02589E-01 2.93153E-25
2.06107E-01 2.78668E-25
2.09649E-01 2.64941E-25
2.13212E-01 2.51929E-25
2.16797E-01 2.39593E-25
2.20404E-01 2.27894E-25
2.24032E-01 2.16797E-25
2.27680E-01 2.06268E-25
2.31350E-01 1.96278E-25
2.35040E-01 1.86796E-25
2.38751E-01 1.77796E-25
2.42481E-01 1.69250E-25
2.46231E-01 1.61135E-25
2.50000E-01 1.53427E-25
2.53788E-01 1.46105E-25
2.57595E-01 1.39148E-25
2.61421E-01 1.32538E-25
2.65264E-01 1.26256E-25
2.69126E-01 1.20284E-25
2.73005E-01 1.14607E-25
2.76901E-01 1.09209E-25
2.80814E-01 1.04077E-25
2.84744E-01 9.91951E-26
2.88691E-01 9.45520E-26
2.92653E-01 9.01350E-26
2.96632E-01 8.59327E-26
3.00625E-01 8.19342E-26
3.04634E-01 7.81291E-26
3.08658E-01 7.45077E-26
3.12697E-01 7.10608E-26
3.16749E-01 6.77797E-26
3.20816E-01 6.46559E-26
3.24896E-01 6.16818E-26
3.28990E-01 5.88498E-26
3.33097E-01 5.61529E-26
3.37216E-01 5.35845E-26
3.41348E-01 5.11382E-26
3.45492E-01 4.88080E-26
3.49647E-01 4.65883E-26
3.53814E-01 4.44735E-26
3.57992E-01 4.24586E-26
3.62181E-01 4.05388E-26
3.66381E-01 3.87093E-26
3.70590E-01 3.69659E-26
3.74810E-01 3.53043E-26
3.79039E-01 3.37206E-26
3.83277E-01 3.22110E-26
3.87524E-01 3.07720E-26
3.91780E-01 2.94002E-26
3.96044E-01 2.80924E-26
4.00316E-01 2.68455E-26
4.04596E-01 2.56565E-26
4.08882E-01 2.45228E-26
4.13176E-01 2.34416E-26
4.17476E-01 2.24106E-26
4.21783E-01 2.14272E-26
4.26095E-01 2.04893E-26
4.30413E-01 1.95947E-26
4.34737E-01 1.87413E-26
4.39065E-01 1.79273E-26
4.43398E-01 1.71506E-26
4.47736E-01 1.64096E-26
4.52077E-01 1.57026E-26
4.56422E-01 1.50280E-26
4.60770E-01 1.43843E-26
4.65122E-01 1.37700E-26
4.69476E-01 1.31837E-26
4.73832E-01 1.26241E-26
4.78190E-01 1.20901E-26
4.82550E-01 1.15803E-26
4.86912E-01 1.10936E-26
4.91274E-01 1.06290E-26
4.95637E-01 1.01854E-26
5.00000E-01 9.76191E-27
5.04363E-01 9.35751E-27
5.08726E-01 8.97133E-27
5.13088E-01 8.60254E-27
5.17450E-01 8.25031E-27
5.21810E-01 7.91388E-27
5.26168E-01 7.59251E-27
5.30524E-01 7.28551E-27
5.34878E-01 6.99221E-27
5.39230E-01 6.71197E-27
5.43578E-01 6.44419E-27
5.47923E-01 6.18829E-27
5.52264E-01 5.94371E-27
5.56602E-01 5.70994E-27
5.60935E-01 5.48648E-27
5.65263E-01 5.27285E-27
5.69587E-01 5.06859E-27
5.73905E-01 4.87327E-27
5.78217E-01 4.68648E-27
5.82524E-01 4.50782E-27
5.86824E-01 4.33693E-27
5.91118E-01 4.17344E-27
5.95404E-01 4.01701E-27
5.99684E-01 3.86731E-27
6.03956E-01 3.72404E-27
6.08220E-01 3.58691E-27
6.12476E-01 3.45562E-27
6.16723E-01 3.32991E-27
6.20961E-01 3.20952E-27
6.25190E-01 3.09422E-27
6.29410E-01 2.98376E-27
6.33619E-01 2.87793E-27
6.37819E-01 2.77651E-27
6.42008E-01 2.67930E-27
6.46186E-01 2.58611E-27
6.50353E-01 2.49676E-27
6.54508E-01 2.41106E-27
6.58652E-01 2.32886E-27
6.62784E-01 2.25000E-27
6.66903E-01 2.17432E-27
6.71010E-01 2.10167E-27
6.75104E-01 2.03193E-27
6.79184E-01 1.96495E-27
6.83251E-01 1.90062E-27
6.87303E-01 1.83882E-27
6.91342E-01 1.77942E-27
6.95366E-01 1.72233E-27
6.99375E-01 1.66743E-27
7.03368E-01 1.61464E-27
7.07347E-01 1.56385E-27
7.11309E-01 1.51497E-27
7.15256E-01 1.46793E-27
7.19186E-01 1.42263E-27
7.23099E-01 1.37901E-27
7.26995E-01 1.33698E-27
7.30874E-01 1.29647E-27
7.34736E-01 1.25743E-27
7.38579E-01 1.21978E-27
7.42405E-01 1.18347E-27
7.46212E-01 1.14843E-27
7.50000E-01 1.11461E-27
7.53769E-01 1.08195E-27
7.57519E-01 1.05041E-27
7.61249E-01 1.01994E-27
7.64960E-01 9.90495E-28
7.68650E-01 9.62024E-28
7.72320E-01 9.34490E-28
7.75968E-01 9.07853E-28
7.79596E-01 8.82075E-28
7.83203E-01 8.57119E-28
7.86788E-01 8.32951E-28
7.90351E-01 8.09539E-28
7.93893E-01 7.86851E-28
7.97411E-01 7.64858E-28
8.00908E-01 7.43531E-28
8.04381E-01 7.22843E-28
8.07831E-01 7.02768E-28
8.11257E-01 6.83281E-28
8.14660E-01 6.64360E-28
8.18039E-01 6.45982E-28
8.21394E-01 6.28125E-28
8.24724E-01 6.10770E-28
8.28030E-01 5.93897E-28
8.31310E-01 5.77488E-28
8.34565E-01 5.61524E-28
8.37795E-01 5.45990E-28
8.40999E-01 5.30870E-28
8.44177E-01 5.16148E-28
8.47329E-01 5.01809E-28
8.50455E-01 4.87841E-28
8.53553E-01 4.74230E-28
8.56625E-01 4.60963E-28
8.59670E-01 4.48029E-28
8.62687E-01 4.35416E-28
8.65677E-01 4.23113E-28
8.68639E-01 4.11110E-28
8.71572E-01 3.99397E-28
8.74478E-01 3.87965E-28
8.77355E-01 3.76805E-28
8.80203E-01 3.65909E-28
8.83022E-01 3.55267E-28
8.85812E-01 3.44874E-28
8.88573E-01 3.34720E-28
8.91304E-01 3.24800E-28
8.94005E-01 3.15106E-28
8.96677E-01 3.05632E-28
8.99318E-01 2.96372E-28
9.01928E-01 2.87321E-28
9.04508E-01 2.78472E-28
9.07058E-01 2.69821E-28
9.09576E-01 2.61363E-28
9.12063E-01 2.53092E-28
9.14519E-01 2.45005E-28
9.16943E-01 2.37096E-28
9.19335E-01 2.29362E-28
9.21696E-01 2.21799E-28
9.24024E-01 2.14404E-28
9.26320E-01 2.07171E-28
9.28584E-01 2.00099E-28
9.30815E-01 1.93184E-28
9.33013E-01 1.86423E-28
9.35178E-01 1.79812E-28
9.37310E-01 1.73350E-28
9.39409E-01 1.67033E-28
9.41474E-01 1.60858E-28
9.43505E-01 1.54825E-28
9.45503E-01 1.48929E-28
9.47467E-01 1.43170E-28
9.49397E-01 1.37544E-28
9.51293E-01 1.32050E-28
9.53154E-01 1.26686E-28
9.54981E-01 1.21450E-28
9.56773E-01 1.16341E-28
9.58530E-01 1.11356E-28
9.60252E-01 1.06494E-28
9.61940E-01 1.01755E-28
9.63592E-01 9.71351E-29
9.65209E-01 9.26345E-29
9.66790E-01 8.82516E-29
9.68336E-01 8.39852E-29
9.69846E-01 7.98340E-29
9.71321E-01 7.57969E-29
9.72759E-01 7.18730E-29
9.74162E-01 6.80611E-29
9.75528E-01 6.43604E-29
9.76858E-01 6.07700E-29
9.78152E-01 5.72889E-29
9.79410E-01 5.39164E-29
9.80631E-01 5.06517E-29
9.81815E-01 4.74940E-29
9.82963E-01 4.44426E-29
9.84074E-01 4.14969E-29
9.85148E-01 3.86563E-29
9.86185E-01 3.59202E-29
9.87185E-01 3.32879E-29
9.88148E-01 3.07589E-29
9.89074E-01 2.83329E-29
9.89962E-01 2.60092E-29
9.90814E-01 2.37874E-29
9.91627E-01 2.16671E-29
9.92404E-01 1.96479E-29
9.93143E-01 1.77294E-29
9.93844E-01 1.59113E-29
9.94508E-01 1.41933E-29
9.95134E-01 1.25750E-29
9.95722E-01 1.10561E-29
9.96273E-01 9.63644E-30
9.96786E-01 8.31570E-30
9.97261E-01 7.09368E-30
9.97698E-01 5.97016E-30
9.98097E-01 4.94497E-30
9.98459E-01 4.01791E-30
9.98782E-01 3.18885E-30
9.99067E-01 2.45765E-30
9.99315E-01 1.82417E-30
9.99524E-01 1.28833E-30
9.99695E-01 8.50034E-31
9.99829E-01 5.09209E-31
9.99924E-01 2.65803E-31
9.99981E-01 1.19774E-31
1.00000E+00 7.11012E-32
