 #
 # Subroutine ELSEPA. Elastic scattering of electrons and positrons
 #                    by neutral atoms and positive ions
 #
 # Projectile: electron
 # Kinetic energy = 5.00000E+08 eV = 1.83747E+07 a.u.
 #
 # WARNING: High-energy factorization with free-atom DF screening.
 #          Absorption, polarization and exchange corrections are
 #          switched off.
 #          Phase shifts are calculated for the bare nucleus.
 #          Scattering amplitudes are not evaluated.
 #
 # Element: Ac,  Z =  89,  atomic weight = 2.27028E+02 g/mol
 #
 # Nuclear model: Fermi distribution
 #                Average radius = 6.52745E-13 cm
 #                Skin thickness = 5.46000E-14 cm
 #
 # Number of electrons = 89
 #
 # Total elastic cross section = 1.15220E-17 cm**2 = 4.11458E-01 a0**2
 # 1st transport cross section = 5.89125E-26 cm**2 = 2.10380E-09 a0**2
 # 2nd transport cross section = 1.76669E-25 cm**2 = 6.30895E-09 a0**2
 #
 #
 # Differential cross section:                       MU=(1-COS(THETA))/2
 #
 #  THETA        MU          DCS          DCS        Sherman      error
 #  (deg)                 (cm**2/sr)   (a0**2/sr)    function
 #----------------------------------------------------------------------
0.00000E+00 3.79366E-08
7.61557E-13 3.38844E-08
1.18994E-12 3.19124E-08
1.71346E-12 2.97474E-08
2.33225E-12 2.74901E-08
3.04617E-12 2.52266E-08
3.85530E-12 2.30249E-08
4.75964E-12 2.09348E-08
5.75917E-12 1.89883E-08
6.85391E-12 1.72050E-08
8.04379E-12 1.55887E-08
9.32893E-12 1.41343E-08
1.07092E-11 1.28332E-08
1.21847E-11 1.16734E-08
1.37554E-11 1.06415E-08
1.54213E-11 9.72382E-09
1.71823E-11 8.90710E-09
1.90386E-11 8.17906E-09
2.09900E-11 7.52864E-09
2.30367E-11 6.94596E-09
2.51785E-11 6.42236E-09
2.74156E-11 5.95010E-09
2.97478E-11 5.52290E-09
3.21752E-11 5.13531E-09
3.46979E-11 4.78264E-09
3.73157E-11 4.46089E-09
4.00286E-11 4.16659E-09
4.28368E-11 3.89679E-09
4.57402E-11 3.64890E-09
4.87388E-11 3.42070E-09
5.18325E-11 3.21025E-09
5.50215E-11 3.01586E-09
5.83057E-11 2.83576E-09
6.16850E-11 2.66890E-09
6.51595E-11 2.51418E-09
6.87293E-11 2.37055E-09
7.23943E-11 2.23707E-09
7.61544E-11 2.11290E-09
1.18991E-10 1.23421E-09
1.71347E-10 7.81602E-10
2.33223E-10 5.21932E-10
3.04617E-10 3.62959E-10
3.85531E-10 2.60475E-10
4.75965E-10 1.91814E-10
5.75917E-10 1.44446E-10
6.85389E-10 1.10876E-10
8.04380E-10 8.66182E-11
9.32891E-10 6.87453E-11
1.07092E-09 5.53094E-11
1.21847E-09 4.50259E-11
1.37554E-09 3.70295E-11
1.54213E-09 3.07258E-11
1.71823E-09 2.56976E-11
1.90386E-09 2.16463E-11
2.09900E-09 1.83554E-11
2.30367E-09 1.56668E-11
2.51785E-09 1.34309E-11
2.74156E-09 1.15783E-11
2.97478E-09 1.00370E-11
3.21752E-09 8.74682E-12
3.46978E-09 7.65972E-12
3.73156E-09 6.73795E-12
4.00286E-09 5.95171E-12
4.28368E-09 5.27746E-12
4.57402E-09 4.69648E-12
4.87388E-09 4.19374E-12
5.18326E-09 3.75702E-12
5.50215E-09 3.37625E-12
5.83057E-09 3.04287E-12
6.16850E-09 2.75007E-12
6.51596E-09 2.49200E-12
6.87293E-09 2.26371E-12
7.23942E-09 2.06110E-12
7.61544E-09 1.88070E-12
1.18991E-08 8.31646E-13
1.71347E-08 4.23804E-13
2.33223E-08 2.38542E-13
3.04617E-08 1.44292E-13
3.85531E-08 9.22643E-14
4.75965E-08 6.16760E-14
5.75917E-08 4.27637E-14
6.85389E-08 3.05749E-14
8.04380E-08 2.24411E-14
9.32891E-08 1.68453E-14
1.07092E-07 1.28919E-14
1.21847E-07 1.00345E-14
1.37554E-07 7.92720E-15
1.54213E-07 6.34523E-15
1.71823E-07 5.13862E-15
1.90386E-07 4.20548E-15
2.09900E-07 3.47467E-15
2.30367E-07 2.89570E-15
2.51785E-07 2.43228E-15
2.74156E-07 2.05787E-15
2.97478E-07 1.75272E-15
3.21752E-07 1.50201E-15
3.46978E-07 1.29452E-15
3.73156E-07 1.12163E-15
4.00286E-07 9.76642E-16
4.28368E-07 8.54325E-16
4.57402E-07 7.50565E-16
4.87388E-07 6.62086E-16
5.18325E-07 5.86263E-16
5.50215E-07 5.20990E-16
5.83057E-07 4.64554E-16
6.16850E-07 4.15558E-16
6.51596E-07 3.72854E-16
6.87293E-07 3.35500E-16
7.23942E-07 3.02709E-16
7.61543E-07 2.73830E-16
1.18991E-06 1.13068E-16
1.71347E-06 5.48349E-17
2.33223E-06 2.97202E-17
3.04617E-06 1.74752E-17
3.85531E-06 1.09357E-17
4.75964E-06 7.18834E-18
5.75916E-06 4.91714E-18
6.85388E-06 3.47613E-18
8.04378E-06 2.52637E-18
9.32888E-06 1.87992E-18
1.07092E-05 1.42762E-18
1.21846E-05 1.10353E-18
1.37553E-05 8.66409E-19
1.54212E-05 6.89691E-19
1.71822E-05 5.55821E-19
1.90385E-05 4.52607E-19
2.09899E-05 3.72813E-19
2.30365E-05 3.09789E-19
2.51783E-05 2.59450E-19
2.74153E-05 2.18866E-19
2.97475E-05 1.85887E-19
3.21749E-05 1.58892E-19
3.46974E-05 1.36641E-19
3.73152E-05 1.18171E-19
4.00281E-05 1.02733E-19
4.28362E-05 8.97425E-20
4.57395E-05 7.87417E-20
4.87380E-05 6.93728E-20
5.18317E-05 6.13529E-20
5.50205E-05 5.44568E-20
5.83045E-05 4.85025E-20
6.16838E-05 4.33410E-20
6.51582E-05 3.88497E-20
6.87277E-05 3.49268E-20
7.23925E-05 3.14878E-20
7.61524E-05 2.89659E-20
9.21439E-05 1.98643E-20
1.09658E-04 1.40818E-20
1.28695E-04 1.02612E-20
1.49255E-04 7.65429E-21
1.71338E-04 5.82586E-21
1.94942E-04 4.51234E-21
2.20070E-04 3.54870E-21
2.46720E-04 2.82857E-21
2.74892E-04 2.28163E-21
3.04586E-04 1.86004E-21
3.35803E-04 1.53087E-21
3.68542E-04 1.27077E-21
4.02802E-04 1.06307E-21
4.38585E-04 8.95589E-22
4.75889E-04 7.59332E-22
5.14715E-04 6.47590E-22
5.55063E-04 5.55253E-22
5.96931E-04 4.78437E-22
6.40321E-04 4.14122E-22
6.85233E-04 3.59956E-22
7.31665E-04 3.14092E-22
7.79618E-04 2.75057E-22
8.29092E-04 2.41681E-22
8.80086E-04 2.13014E-22
9.32601E-04 1.88292E-22
9.86636E-04 1.66890E-22
1.04219E-03 1.48294E-22
1.09927E-03 1.32083E-22
1.15786E-03 1.17904E-22
1.21797E-03 1.05466E-22
1.27961E-03 9.45239E-23
1.34276E-03 8.48724E-23
1.40743E-03 7.63379E-23
1.47362E-03 6.87727E-23
1.54133E-03 6.20521E-23
1.61056E-03 5.60687E-23
1.68131E-03 5.07310E-23
1.75357E-03 4.59603E-23
1.82735E-03 4.16884E-23
1.90265E-03 3.78568E-23
1.97947E-03 3.44143E-23
2.05780E-03 3.13167E-23
2.13765E-03 2.85253E-23
2.21902E-03 2.60064E-23
2.30190E-03 2.37302E-23
2.38630E-03 2.16708E-23
2.47222E-03 1.98053E-23
2.55965E-03 1.81135E-23
2.64859E-03 1.65776E-23
2.73905E-03 1.51817E-23
2.83103E-03 1.39119E-23
2.92452E-03 1.27556E-23
3.01952E-03 1.17018E-23
3.11604E-03 1.07405E-23
3.21407E-03 9.86299E-24
3.31362E-03 9.06130E-24
3.41468E-03 8.32835E-24
3.51725E-03 7.65777E-24
3.62133E-03 7.04386E-24
3.72692E-03 6.48148E-24
3.83403E-03 5.96600E-24
3.94265E-03 5.49324E-24
4.05278E-03 5.05942E-24
4.16442E-03 4.66115E-24
4.27757E-03 4.29533E-24
4.39223E-03 3.95917E-24
4.50840E-03 3.65013E-24
4.62608E-03 3.36592E-24
4.74527E-03 3.10443E-24
4.86597E-03 2.86377E-24
4.98817E-03 2.64221E-24
5.11188E-03 2.43816E-24
5.23711E-03 2.25019E-24
5.36383E-03 2.07698E-24
5.49207E-03 1.91734E-24
5.62181E-03 1.77016E-24
5.75306E-03 1.63445E-24
5.88581E-03 1.50928E-24
6.02007E-03 1.39383E-24
6.15583E-03 1.28731E-24
6.29310E-03 1.18901E-24
6.43187E-03 1.09830E-24
6.57214E-03 1.01458E-24
6.71392E-03 9.37300E-25
6.85720E-03 8.65956E-25
7.00198E-03 8.00089E-25
7.14827E-03 7.39275E-25
7.29605E-03 6.83122E-25
7.44534E-03 6.31272E-25
7.59612E-03 5.83392E-25
7.97965E-03 4.79119E-25
8.37255E-03 3.93669E-25
8.77480E-03 3.23648E-25
9.18641E-03 2.66281E-25
9.60736E-03 2.19291E-25
1.00376E-02 1.80813E-25
1.04773E-02 1.49315E-25
1.09262E-02 1.23536E-25
1.13844E-02 1.02442E-25
1.18520E-02 8.51831E-26
1.23288E-02 7.10597E-26
1.28150E-02 5.94976E-26
1.33104E-02 5.00256E-26
1.38150E-02 4.22569E-26
1.43290E-02 3.58749E-26
1.48521E-02 3.06204E-26
1.53845E-02 2.62818E-26
1.59262E-02 2.26864E-26
1.64770E-02 1.96939E-26
1.70371E-02 1.71902E-26
1.76063E-02 1.50829E-26
1.81848E-02 1.32974E-26
1.87724E-02 1.17736E-26
1.93692E-02 1.04632E-26
1.99751E-02 9.32750E-27
2.05901E-02 8.33550E-27
2.12143E-02 7.46255E-27
2.18476E-02 6.68899E-27
2.24900E-02 5.99920E-27
2.31415E-02 5.38078E-27
2.38021E-02 4.82384E-27
2.44717E-02 4.32050E-27
2.51504E-02 3.86442E-27
2.58382E-02 3.45050E-27
2.65349E-02 3.07453E-27
2.72407E-02 2.73305E-27
2.79555E-02 2.42311E-27
2.86793E-02 2.14218E-27
2.94120E-02 1.88803E-27
3.01537E-02 1.65867E-27
3.09043E-02 1.45227E-27
3.16639E-02 1.26714E-27
3.24324E-02 1.10168E-27
3.32098E-02 9.54379E-28
3.39961E-02 8.23798E-28
3.47912E-02 7.08558E-28
3.55952E-02 6.07341E-28
3.64081E-02 5.18885E-28
3.72297E-02 4.41989E-28
3.80602E-02 3.75512E-28
3.88995E-02 3.18375E-28
3.97476E-02 2.69561E-28
4.06044E-02 2.28121E-28
4.14700E-02 1.93172E-28
4.23443E-02 1.63898E-28
4.32273E-02 1.39548E-28
4.41190E-02 1.19439E-28
4.50194E-02 1.02953E-28
4.59284E-02 8.95313E-29
4.68461E-02 7.86787E-29
4.87074E-02 6.29755E-29
5.06030E-02 5.29517E-29
5.25328E-02 4.64607E-29
5.44967E-02 4.19797E-29
5.64946E-02 3.84889E-29
5.85262E-02 3.53587E-29
6.05914E-02 3.22485E-29
6.26901E-02 2.90203E-29
6.48222E-02 2.56672E-29
6.69873E-02 2.22581E-29
6.91854E-02 1.88957E-29
7.14163E-02 1.56880E-29
7.36799E-02 1.27289E-29
7.59760E-02 1.00888E-29
7.83043E-02 7.81036E-30
8.06647E-02 5.90908E-30
8.30571E-02 4.37701E-30
8.54812E-02 3.18767E-30
8.79369E-02 2.30169E-30
9.04240E-02 1.67228E-30
9.29422E-02 1.25000E-30
9.54915E-02 9.86676E-31
9.80716E-02 8.38247E-31
1.00682E-01 7.66635E-31
1.03323E-01 7.40708E-31
1.05995E-01 7.36499E-31
1.08696E-01 7.36842E-31
1.11427E-01 7.30620E-31
1.14188E-01 7.11766E-31
1.16978E-01 6.78173E-31
1.19797E-01 6.30600E-31
1.22645E-01 5.71680E-31
1.25522E-01 5.05063E-31
1.28428E-01 4.34723E-31
1.31361E-01 3.64448E-31
1.34323E-01 2.97493E-31
1.37313E-01 2.36380E-31
1.40330E-01 1.82824E-31
1.43375E-01 1.37749E-31
1.46447E-01 1.01379E-31
1.49545E-01 7.33585E-32
1.52671E-01 5.29056E-32
1.55823E-01 3.89546E-32
1.59001E-01 3.02951E-32
1.62205E-01 2.56887E-32
1.65435E-01 2.39610E-32
1.68690E-01 2.40676E-32
1.71970E-01 2.51353E-32
1.75276E-01 2.64808E-32
1.78606E-01 2.76111E-32
1.81961E-01 2.82096E-32
1.85340E-01 2.81133E-32
1.88743E-01 2.72832E-32
1.92169E-01 2.57742E-32
1.95619E-01 2.37043E-32
1.99092E-01 2.12278E-32
2.02589E-01 1.85119E-32
2.06107E-01 1.57182E-32
2.09649E-01 1.29903E-32
2.13212E-01 1.04447E-32
2.16797E-01 8.16687E-33
2.20404E-01 6.21099E-33
2.24032E-01 4.60168E-33
2.27680E-01 3.33813E-33
2.31350E-01 2.39921E-33
2.35040E-01 1.74895E-33
2.38751E-01 1.34205E-33
2.42481E-01 1.12884E-33
2.46231E-01 1.05949E-33
2.50000E-01 1.08735E-33
2.53788E-01 1.17131E-33
2.57595E-01 1.27729E-33
2.61421E-01 1.37893E-33
2.65264E-01 1.45751E-33
2.69126E-01 1.50147E-33
2.73005E-01 1.50546E-33
2.76901E-01 1.46925E-33
2.80814E-01 1.39645E-33
2.84744E-01 1.29334E-33
2.88691E-01 1.16773E-33
2.92653E-01 1.02799E-33
2.96632E-01 8.82288E-34
3.00625E-01 7.37959E-34
3.04634E-01 6.01153E-34
3.08658E-01 4.76596E-34
3.12697E-01 3.67531E-34
3.16749E-01 2.75766E-34
3.20816E-01 2.01830E-34
3.24896E-01 1.45170E-34
3.28990E-01 1.04397E-34
3.33097E-01 7.75287E-35
3.37216E-01 6.22265E-35
3.41348E-01 5.60087E-35
3.45492E-01 5.64284E-35
3.49647E-01 6.12138E-35
3.53814E-01 6.83679E-35
3.57992E-01 7.62315E-35
3.62181E-01 8.35113E-35
3.66381E-01 8.92793E-35
3.70590E-01 9.29506E-35
3.74810E-01 9.42430E-35
3.79039E-01 9.31282E-35
3.83277E-01 8.97761E-35
3.87524E-01 8.44995E-35
3.91780E-01 7.77020E-35
3.96044E-01 6.98305E-35
4.00316E-01 6.13360E-35
4.04596E-01 5.26424E-35
4.08882E-01 4.41234E-35
4.13176E-01 3.60878E-35
4.17476E-01 2.87723E-35
4.21783E-01 2.23391E-35
4.26095E-01 1.68804E-35
4.30413E-01 1.24251E-35
4.34737E-01 8.94821E-36
4.39065E-01 6.38249E-36
4.43398E-01 4.62935E-36
4.47736E-01 3.57000E-36
4.52077E-01 3.07547E-36
4.56422E-01 3.01540E-36
4.60770E-01 3.26505E-36
4.65122E-01 3.71074E-36
4.69476E-01 4.25359E-36
4.73832E-01 4.81177E-36
4.78190E-01 5.32134E-36
4.82550E-01 5.73591E-36
4.86912E-01 6.02559E-36
4.91274E-01 6.17512E-36
4.95637E-01 6.18165E-36
5.00000E-01 6.05228E-36
5.04363E-01 5.80160E-36
5.08726E-01 5.44939E-36
5.13088E-01 5.01835E-36
5.17450E-01 4.53223E-36
5.21810E-01 4.01437E-36
5.26168E-01 3.48635E-36
5.30524E-01 2.96725E-36
5.34878E-01 2.47299E-36
5.39230E-01 2.01608E-36
5.43578E-01 1.60554E-36
5.47923E-01 1.24712E-36
5.52264E-01 9.43512E-37
5.56602E-01 6.94785E-37
5.60935E-01 4.98784E-37
5.65263E-01 3.51694E-37
5.69587E-01 2.48388E-37
5.73905E-01 1.82984E-37
5.78217E-01 1.49166E-37
5.82524E-01 1.40572E-37
5.86824E-01 1.51046E-37
5.91118E-01 1.74880E-37
5.95404E-01 2.06966E-37
5.99684E-01 2.42897E-37
6.03956E-01 2.79022E-37
6.08220E-01 3.12457E-37
6.12476E-01 3.41060E-37
6.16723E-01 3.63365E-37
6.20961E-01 3.78541E-37
6.25190E-01 3.86277E-37
6.29410E-01 3.86688E-37
6.33619E-01 3.80256E-37
6.37819E-01 3.67710E-37
6.42008E-01 3.49942E-37
6.46186E-01 3.27971E-37
6.50353E-01 3.02823E-37
6.54508E-01 2.75532E-37
6.58652E-01 2.47055E-37
6.62784E-01 2.18281E-37
6.66903E-01 1.89971E-37
6.71010E-01 1.62773E-37
6.75104E-01 1.37207E-37
6.79184E-01 1.13671E-37
6.83251E-01 9.24290E-38
6.87303E-01 1.00000E-45
6.91342E-01 1.00000E-45
6.95366E-01 1.00000E-45
6.99375E-01 1.00000E-45
7.03368E-01 1.00000E-45
7.07347E-01 1.00000E-45
7.11309E-01 1.00000E-45
7.15256E-01 1.00000E-45
7.19186E-01 1.00000E-45
7.23099E-01 1.00000E-45
7.26995E-01 1.00000E-45
7.30874E-01 1.00000E-45
7.34736E-01 1.00000E-45
7.38579E-01 1.00000E-45
7.42405E-01 1.00000E-45
7.46212E-01 1.00000E-45
7.50000E-01 1.00000E-45
7.53769E-01 1.00000E-45
7.57519E-01 1.00000E-45
7.61249E-01 1.00000E-45
7.64960E-01 1.00000E-45
7.68650E-01 1.00000E-45
7.72320E-01 1.00000E-45
7.75968E-01 1.00000E-45
7.79596E-01 1.00000E-45
7.83203E-01 1.00000E-45
7.86788E-01 1.00000E-45
7.90351E-01 1.00000E-45
7.93893E-01 1.00000E-45
7.97411E-01 1.00000E-45
8.00908E-01 1.00000E-45
8.04381E-01 1.00000E-45
8.07831E-01 1.00000E-45
8.11257E-01 1.00000E-45
8.14660E-01 1.00000E-45
8.18039E-01 1.00000E-45
8.21394E-01 1.00000E-45
8.24724E-01 1.00000E-45
8.28030E-01 1.00000E-45
8.31310E-01 1.00000E-45
8.34565E-01 1.00000E-45
8.37795E-01 1.00000E-45
8.40999E-01 1.00000E-45
8.44177E-01 1.00000E-45
8.47329E-01 1.00000E-45
8.50455E-01 1.00000E-45
8.53553E-01 1.00000E-45
8.56625E-01 1.00000E-45
8.59670E-01 1.00000E-45
8.62687E-01 1.00000E-45
8.65677E-01 1.00000E-45
8.68639E-01 1.00000E-45
8.71572E-01 1.00000E-45
8.74478E-01 1.00000E-45
8.77355E-01 1.00000E-45
8.80203E-01 1.00000E-45
8.83022E-01 1.00000E-45
8.85812E-01 1.00000E-45
8.88573E-01 1.00000E-45
8.91304E-01 1.00000E-45
8.94005E-01 1.00000E-45
8.96677E-01 1.00000E-45
8.99318E-01 1.00000E-45
9.01928E-01 1.00000E-45
9.04508E-01 1.00000E-45
9.07058E-01 1.00000E-45
9.09576E-01 1.00000E-45
9.12063E-01 1.00000E-45
9.14519E-01 1.00000E-45
9.16943E-01 1.00000E-45
9.19335E-01 1.00000E-45
9.21696E-01 1.00000E-45
9.24024E-01 1.00000E-45
9.26320E-01 1.00000E-45
9.28584E-01 1.00000E-45
9.30815E-01 1.00000E-45
9.33013E-01 1.00000E-45
9.35178E-01 1.00000E-45
9.37310E-01 1.00000E-45
9.39409E-01 1.00000E-45
9.41474E-01 1.00000E-45
9.43505E-01 1.00000E-45
9.45503E-01 1.00000E-45
9.47467E-01 1.00000E-45
9.49397E-01 1.00000E-45
9.51293E-01 1.00000E-45
9.53154E-01 1.00000E-45
9.54981E-01 1.00000E-45
9.56773E-01 1.00000E-45
9.58530E-01 1.00000E-45
9.60252E-01 1.00000E-45
9.61940E-01 1.00000E-45
9.63592E-01 1.00000E-45
9.65209E-01 1.00000E-45
9.66790E-01 1.00000E-45
9.68336E-01 1.00000E-45
9.69846E-01 1.00000E-45
9.71321E-01 1.00000E-45
9.72759E-01 1.00000E-45
9.74162E-01 1.00000E-45
9.75528E-01 1.00000E-45
9.76858E-01 1.00000E-45
9.78152E-01 1.00000E-45
9.79410E-01 1.00000E-45
9.80631E-01 1.00000E-45
9.81815E-01 1.00000E-45
9.82963E-01 1.00000E-45
9.84074E-01 1.00000E-45
9.85148E-01 1.00000E-45
9.86185E-01 1.00000E-45
9.87185E-01 1.00000E-45
9.88148E-01 1.00000E-45
9.89074E-01 1.00000E-45
9.89962E-01 1.00000E-45
9.90814E-01 1.00000E-45
9.91627E-01 1.00000E-45
9.92404E-01 1.00000E-45
9.93143E-01 1.00000E-45
9.93844E-01 1.00000E-45
9.94508E-01 1.00000E-45
9.95134E-01 1.00000E-45
9.95722E-01 1.00000E-45
9.96273E-01 1.00000E-45
9.96786E-01 1.00000E-45
9.97261E-01 1.00000E-45
9.97698E-01 1.00000E-45
9.98097E-01 1.00000E-45
9.98459E-01 1.00000E-45
9.98782E-01 1.00000E-45
9.99067E-01 1.00000E-45
9.99315E-01 1.00000E-45
9.99524E-01 1.00000E-45
9.99695E-01 1.00000E-45
9.99829E-01 1.00000E-45
9.99924E-01 1.00000E-45
9.99981E-01 1.00000E-45
1.00000E+00 1.00000E-45
