 #
 # Subroutine ELSEPA. Elastic scattering of electrons and positrons
 #                    by neutral atoms and positive ions
 #
 # Projectile: electron
 # Kinetic energy = 7.00000E+08 eV = 2.57245E+07 a.u.
 #
 # WARNING: High-energy factorization with free-atom DF screening.
 #          Absorption, polarization and exchange corrections are
 #          switched off.
 #          Phase shifts are calculated for the bare nucleus.
 #          Scattering amplitudes are not evaluated.
 #
 # Element: Ac,  Z =  89,  atomic weight = 2.27028E+02 g/mol
 #
 # Nuclear model: Fermi distribution
 #                Average radius = 6.52745E-13 cm
 #                Skin thickness = 5.46000E-14 cm
 #
 # Number of electrons = 89
 #
 # Total elastic cross section = 1.14811E-17 cm**2 = 4.09999E-01 a0**2
 # 1st transport cross section = 3.00072E-26 cm**2 = 1.07157E-09 a0**2
 # 2nd transport cross section = 9.00034E-26 cm**2 = 3.21408E-09 a0**2
 #
 #
 # Differential cross section:                       MU=(1-COS(THETA))/2
 #
 #  THETA        MU          DCS          DCS        Sherman      error
 #  (deg)                 (cm**2/sr)   (a0**2/sr)    function
 #----------------------------------------------------------------------
0.00000E+00 7.43125E-08
7.61557E-13 6.00005E-08
1.18994E-12 5.38579E-08
1.71346E-12 4.76814E-08
2.33225E-12 4.18143E-08
3.04617E-12 3.64888E-08
3.85530E-12 3.17815E-08
4.75964E-12 2.76982E-08
5.75917E-12 2.42036E-08
6.85391E-12 2.12396E-08
8.04379E-12 1.87215E-08
9.32893E-12 1.65804E-08
1.07092E-11 1.47549E-08
1.21847E-11 1.31893E-08
1.37554E-11 1.18388E-08
1.54213E-11 1.06671E-08
1.71823E-11 9.64258E-09
1.90386E-11 8.74313E-09
2.09900E-11 7.94991E-09
2.30367E-11 7.24643E-09
2.51785E-11 6.61911E-09
2.74156E-11 6.05932E-09
2.97478E-11 5.55826E-09
3.21752E-11 5.10728E-09
3.46979E-11 4.70112E-09
3.73157E-11 4.33501E-09
4.00286E-11 4.00422E-09
4.28368E-11 3.70384E-09
4.57402E-11 3.43162E-09
4.87388E-11 3.17420E-09
5.18325E-11 2.93903E-09
5.50215E-11 2.72922E-09
5.83057E-11 2.54149E-09
6.16850E-11 2.37303E-09
6.51595E-11 2.22145E-09
6.87293E-11 2.08469E-09
7.23943E-11 1.96098E-09
7.61544E-11 1.83572E-09
1.18991E-10 1.02320E-09
1.71347E-10 6.20542E-10
2.33223E-10 3.99264E-10
3.04617E-10 2.67910E-10
3.85531E-10 1.86898E-10
4.75965E-10 1.34783E-10
5.75917E-10 9.98293E-11
6.85389E-10 7.54524E-11
8.04380E-10 5.80934E-11
9.32891E-10 4.54308E-11
1.07092E-09 3.59911E-11
1.21847E-09 2.88550E-11
1.37554E-09 2.33728E-11
1.54213E-09 1.91418E-11
1.71823E-09 1.58300E-11
1.90386E-09 1.32121E-11
2.09900E-09 1.11182E-11
2.30367E-09 9.42464E-12
2.51785E-09 8.04201E-12
2.74156E-09 6.90638E-12
2.97478E-09 5.96665E-12
3.21752E-09 5.18254E-12
3.46978E-09 4.52407E-12
3.73156E-09 3.96762E-12
4.00286E-09 3.49441E-12
4.28368E-09 3.08934E-12
4.57402E-09 2.74150E-12
4.87388E-09 2.43998E-12
5.18326E-09 2.17950E-12
5.50215E-09 1.95446E-12
5.83057E-09 1.75711E-12
6.16850E-09 1.58359E-12
6.51596E-09 1.43189E-12
6.87293E-09 1.29789E-12
7.23942E-09 1.17870E-12
7.61544E-09 1.07344E-12
1.18991E-08 4.67760E-13
1.71347E-08 2.35221E-13
2.33223E-08 1.30675E-13
3.04617E-08 7.82308E-14
3.85531E-08 4.96575E-14
4.75965E-08 3.30324E-14
5.75917E-08 2.28258E-14
6.85389E-08 1.62769E-14
8.04380E-08 1.19175E-14
9.32891E-08 8.92407E-15
1.07092E-07 6.81340E-15
1.21847E-07 5.29071E-15
1.37554E-07 4.17007E-15
1.54213E-07 3.33071E-15
1.71823E-07 2.69209E-15
1.90386E-07 2.19932E-15
2.09900E-07 1.81424E-15
2.30367E-07 1.50981E-15
2.51785E-07 1.26663E-15
2.74156E-07 1.07048E-15
2.97478E-07 9.10878E-16
3.21752E-07 7.79941E-16
3.46978E-07 6.71711E-16
3.73156E-07 5.81625E-16
4.00286E-07 5.06151E-16
4.28368E-07 4.42537E-16
4.57402E-07 3.88612E-16
4.87388E-07 3.42659E-16
5.18325E-07 3.03304E-16
5.50215E-07 2.69442E-16
5.83057E-07 2.40179E-16
6.16850E-07 2.14785E-16
6.51596E-07 1.92659E-16
6.87293E-07 1.73312E-16
7.23942E-07 1.56334E-16
7.61543E-07 1.41386E-16
1.18991E-06 5.82637E-17
1.71347E-06 2.82114E-17
2.33223E-06 1.52707E-17
3.04617E-06 8.96971E-18
3.85531E-06 5.60838E-18
4.75964E-06 3.68406E-18
5.75916E-06 2.51867E-18
6.85388E-06 1.77974E-18
8.04378E-06 1.29298E-18
9.32888E-06 9.61830E-19
1.07092E-05 7.30227E-19
1.21846E-05 5.64328E-19
1.37553E-05 4.42981E-19
1.54212E-05 3.52570E-19
1.71822E-05 2.84095E-19
1.90385E-05 2.31311E-19
2.09899E-05 1.90512E-19
2.30365E-05 1.58291E-19
2.51783E-05 1.32558E-19
2.74153E-05 1.11815E-19
2.97475E-05 9.49609E-20
3.21749E-05 8.11663E-20
3.46974E-05 6.97966E-20
3.73152E-05 6.03598E-20
4.00281E-05 5.24727E-20
4.28362E-05 4.58362E-20
4.57395E-05 4.02168E-20
4.87380E-05 3.54313E-20
5.18317E-05 3.13357E-20
5.50205E-05 2.78151E-20
5.83045E-05 2.47753E-20
6.16838E-05 2.21380E-20
6.51582E-05 1.98431E-20
6.87277E-05 1.78389E-20
7.23925E-05 1.60819E-20
7.61524E-05 1.49503E-20
9.21439E-05 1.02491E-20
1.09658E-04 7.25800E-21
1.28695E-04 5.28104E-21
1.49255E-04 3.93137E-21
1.71338E-04 2.98432E-21
1.94942E-04 2.30389E-21
2.20070E-04 1.80483E-21
2.46720E-04 1.43211E-21
2.74892E-04 1.14930E-21
3.04586E-04 9.31616E-22
3.35803E-04 7.61951E-22
3.68542E-04 6.28183E-22
4.02802E-04 5.21638E-22
4.38585E-04 4.35985E-22
4.75889E-04 3.66538E-22
5.14715E-04 3.09805E-22
5.55063E-04 2.63124E-22
5.96931E-04 2.24470E-22
6.40321E-04 1.92271E-22
6.85233E-04 1.65303E-22
7.31665E-04 1.42604E-22
7.79618E-04 1.23406E-22
8.29092E-04 1.07102E-22
8.80086E-04 9.31990E-23
9.32601E-04 8.12998E-23
9.86636E-04 7.10806E-23
1.04219E-03 6.22758E-23
1.09927E-03 5.46675E-23
1.15786E-03 4.80744E-23
1.21797E-03 4.23465E-23
1.27961E-03 3.73581E-23
1.34276E-03 3.30040E-23
1.40743E-03 2.91956E-23
1.47362E-03 2.58578E-23
1.54133E-03 2.29272E-23
1.61056E-03 2.03498E-23
1.68131E-03 1.80792E-23
1.75357E-03 1.60762E-23
1.82735E-03 1.43065E-23
1.90265E-03 1.27411E-23
1.97947E-03 1.13547E-23
2.05780E-03 1.01254E-23
2.13765E-03 9.03439E-24
2.21902E-03 8.06508E-24
2.30190E-03 7.20318E-24
2.38630E-03 6.43613E-24
2.47222E-03 5.75299E-24
2.55965E-03 5.14416E-24
2.64859E-03 4.60120E-24
2.73905E-03 4.11671E-24
2.83103E-03 3.68416E-24
2.92452E-03 3.29781E-24
3.01952E-03 2.95257E-24
3.11604E-03 2.64394E-24
3.21407E-03 2.36796E-24
3.31362E-03 2.12109E-24
3.41468E-03 1.90021E-24
3.51725E-03 1.70253E-24
3.62133E-03 1.52560E-24
3.72692E-03 1.36720E-24
3.83403E-03 1.22538E-24
3.94265E-03 1.09840E-24
4.05278E-03 9.84683E-25
4.16442E-03 8.82855E-25
4.27757E-03 7.91667E-25
4.39223E-03 7.10008E-25
4.50840E-03 6.36885E-25
4.62608E-03 5.71409E-25
4.74527E-03 5.12784E-25
4.86597E-03 4.60296E-25
4.98817E-03 4.13307E-25
5.11188E-03 3.71245E-25
5.23711E-03 3.33596E-25
5.36383E-03 2.99901E-25
5.49207E-03 2.69746E-25
5.62181E-03 2.42763E-25
5.75306E-03 2.18618E-25
5.88581E-03 1.97015E-25
6.02007E-03 1.77685E-25
6.15583E-03 1.60391E-25
6.29310E-03 1.44916E-25
6.43187E-03 1.31068E-25
6.57214E-03 1.18675E-25
6.71392E-03 1.07582E-25
6.85720E-03 9.76493E-26
7.00198E-03 8.87535E-26
7.14827E-03 8.07829E-26
7.29605E-03 7.36381E-26
7.44534E-03 6.72296E-26
7.59612E-03 6.14778E-26
7.97965E-03 4.95215E-26
8.37255E-03 4.03217E-26
8.77480E-03 3.31847E-26
9.18641E-03 2.75907E-26
9.60736E-03 2.31523E-26
1.00376E-02 1.95818E-26
1.04773E-02 1.66671E-26
1.09262E-02 1.42524E-26
1.13844E-02 1.22237E-26
1.18520E-02 1.04979E-26
1.23288E-02 9.01459E-27
1.28150E-02 7.72963E-27
1.33104E-02 6.61054E-27
1.38150E-02 5.63310E-27
1.43290E-02 4.77884E-27
1.48521E-02 4.03320E-27
1.53845E-02 3.38432E-27
1.59262E-02 2.82214E-27
1.64770E-02 2.33780E-27
1.70371E-02 1.92330E-27
1.76063E-02 1.57123E-27
1.81848E-02 1.27468E-27
1.87724E-02 1.02716E-27
1.93692E-02 8.22584E-28
1.99751E-02 6.55272E-28
2.05901E-02 5.19967E-28
2.12143E-02 4.11847E-28
2.18476E-02 3.26538E-28
2.24900E-02 2.60119E-28
2.31415E-02 2.09117E-28
2.38021E-02 1.70502E-28
2.44717E-02 1.41660E-28
2.51504E-02 1.20376E-28
2.58382E-02 1.04801E-28
2.65349E-02 9.34181E-29
2.72407E-02 8.50100E-29
2.79555E-02 7.86203E-29
2.86793E-02 7.35190E-29
2.94120E-02 6.91671E-29
3.01537E-02 6.51848E-29
3.09043E-02 6.13209E-29
3.16639E-02 5.74258E-29
3.24324E-02 5.34277E-29
3.32098E-02 4.93116E-29
3.39961E-02 4.51022E-29
3.47912E-02 4.08491E-29
3.55952E-02 3.66151E-29
3.64081E-02 3.24677E-29
3.72297E-02 2.84719E-29
3.80602E-02 2.46855E-29
3.88995E-02 2.11567E-29
3.97476E-02 1.79215E-29
4.06044E-02 1.50043E-29
4.14700E-02 1.24171E-29
4.23443E-02 1.01615E-29
4.32273E-02 8.22930E-30
4.41190E-02 6.60463E-30
4.50194E-02 5.26536E-30
4.59284E-02 4.18497E-30
4.68461E-02 3.33413E-30
4.87074E-02 2.19844E-30
5.06030E-02 1.61848E-30
5.25328E-02 1.38218E-30
5.44967E-02 1.32198E-30
5.64946E-02 1.32008E-30
5.85262E-02 1.30515E-30
6.05914E-02 1.24394E-30
6.26901E-02 1.13063E-30
6.48222E-02 9.76266E-31
6.69873E-02 7.99712E-31
6.91854E-02 6.20878E-31
7.14163E-02 4.56396E-31
7.36799E-02 3.17486E-31
7.59760E-02 2.09529E-31
7.83043E-02 1.32806E-31
8.06647E-02 8.38551E-32
8.30571E-02 5.70068E-32
8.54812E-02 4.58043E-32
8.79369E-02 4.41052E-32
9.04240E-02 4.68036E-32
9.29422E-02 5.01803E-32
9.54915E-02 5.19460E-32
9.80716E-02 5.10682E-32
1.00682E-01 4.74753E-32
1.03323E-01 4.17195E-32
1.05995E-01 3.46616E-32
1.08696E-01 2.72154E-32
1.11427E-01 2.01703E-32
1.14188E-01 1.40927E-32
1.16978E-01 9.29521E-33
1.19797E-01 5.85581E-33
1.22645E-01 3.66877E-33
1.25522E-01 2.50871E-33
1.28428E-01 2.09429E-33
1.31361E-01 2.14185E-33
1.34323E-01 2.40396E-33
1.37313E-01 2.69172E-33
1.40330E-01 2.88234E-33
1.43375E-01 2.91518E-33
1.46447E-01 2.78033E-33
1.49545E-01 2.50348E-33
1.52671E-01 2.13043E-33
1.55823E-01 1.71341E-33
1.59001E-01 1.30073E-33
1.62205E-01 9.30152E-34
1.65435E-01 6.25871E-34
1.68690E-01 3.98403E-34
1.71970E-01 2.46558E-34
1.75276E-01 1.60581E-34
1.78606E-01 1.25676E-34
1.81961E-01 1.25272E-34
1.85340E-01 1.43660E-34
1.88743E-01 1.67787E-34
1.92169E-01 1.88196E-34
1.95619E-01 1.99225E-34
1.99092E-01 1.98639E-34
2.02589E-01 1.86905E-34
2.06107E-01 1.66308E-34
2.09649E-01 1.40076E-34
2.13212E-01 1.11629E-34
2.16797E-01 8.40120E-35
2.20404E-01 5.95481E-35
2.24032E-01 3.96869E-35
2.27680E-01 2.50189E-35
2.31350E-01 1.54049E-35
2.35040E-01 1.01729E-35
2.38751E-01 8.33401E-36
2.42481E-01 8.78605E-36
2.46231E-01 1.04782E-35
2.50000E-01 1.25269E-35
2.53788E-01 1.42796E-35
2.57595E-01 1.53325E-35
2.61421E-01 1.55122E-35
2.65264E-01 1.48324E-35
2.69126E-01 1.34397E-35
2.73005E-01 1.15561E-35
2.76901E-01 9.42807E-36
2.80814E-01 7.28629E-36
2.84744E-01 5.31813E-36
2.88691E-01 3.65333E-36
2.92653E-01 2.36082E-36
2.96632E-01 1.45431E-36
3.00625E-01 9.03478E-37
3.04634E-01 6.47944E-37
3.08658E-01 6.11466E-37
3.12697E-01 7.14634E-37
3.16749E-01 8.84707E-37
3.20816E-01 1.06228E-36
3.24896E-01 1.20466E-36
3.28990E-01 1.28643E-36
3.33097E-01 1.29782E-36
3.37216E-01 1.24169E-36
3.41348E-01 1.12981E-36
3.45492E-01 9.79024E-37
3.49647E-01 8.07827E-37
3.53814E-01 6.33674E-37
3.57992E-01 4.71055E-37
3.62181E-01 3.30434E-37
3.66381E-01 1.00000E-45
3.70590E-01 1.00000E-45
3.74810E-01 1.00000E-45
3.79039E-01 1.00000E-45
3.83277E-01 1.00000E-45
3.87524E-01 1.00000E-45
3.91780E-01 1.00000E-45
3.96044E-01 1.00000E-45
4.00316E-01 1.00000E-45
4.04596E-01 1.00000E-45
4.08882E-01 1.00000E-45
4.13176E-01 1.00000E-45
4.17476E-01 1.00000E-45
4.21783E-01 1.00000E-45
4.26095E-01 1.00000E-45
4.30413E-01 1.00000E-45
4.34737E-01 1.00000E-45
4.39065E-01 1.00000E-45
4.43398E-01 1.00000E-45
4.47736E-01 1.00000E-45
4.52077E-01 1.00000E-45
4.56422E-01 1.00000E-45
4.60770E-01 1.00000E-45
4.65122E-01 1.00000E-45
4.69476E-01 1.00000E-45
4.73832E-01 1.00000E-45
4.78190E-01 1.00000E-45
4.82550E-01 1.00000E-45
4.86912E-01 1.00000E-45
4.91274E-01 1.00000E-45
4.95637E-01 1.00000E-45
5.00000E-01 1.00000E-45
5.04363E-01 1.00000E-45
5.08726E-01 1.00000E-45
5.13088E-01 1.00000E-45
5.17450E-01 1.00000E-45
5.21810E-01 1.00000E-45
5.26168E-01 1.00000E-45
5.30524E-01 1.00000E-45
5.34878E-01 1.00000E-45
5.39230E-01 1.00000E-45
5.43578E-01 1.00000E-45
5.47923E-01 1.00000E-45
5.52264E-01 1.00000E-45
5.56602E-01 1.00000E-45
5.60935E-01 1.00000E-45
5.65263E-01 1.00000E-45
5.69587E-01 1.00000E-45
5.73905E-01 1.00000E-45
5.78217E-01 1.00000E-45
5.82524E-01 1.00000E-45
5.86824E-01 1.00000E-45
5.91118E-01 1.00000E-45
5.95404E-01 1.00000E-45
5.99684E-01 1.00000E-45
6.03956E-01 1.00000E-45
6.08220E-01 1.00000E-45
6.12476E-01 1.00000E-45
6.16723E-01 1.00000E-45
6.20961E-01 1.00000E-45
6.25190E-01 1.00000E-45
6.29410E-01 1.00000E-45
6.33619E-01 1.00000E-45
6.37819E-01 1.00000E-45
6.42008E-01 1.00000E-45
6.46186E-01 1.00000E-45
6.50353E-01 1.00000E-45
6.54508E-01 1.00000E-45
6.58652E-01 1.00000E-45
6.62784E-01 1.00000E-45
6.66903E-01 1.00000E-45
6.71010E-01 1.00000E-45
6.75104E-01 1.00000E-45
6.79184E-01 1.00000E-45
6.83251E-01 1.00000E-45
6.87303E-01 1.00000E-45
6.91342E-01 1.00000E-45
6.95366E-01 1.00000E-45
6.99375E-01 1.00000E-45
7.03368E-01 1.00000E-45
7.07347E-01 1.00000E-45
7.11309E-01 1.00000E-45
7.15256E-01 1.00000E-45
7.19186E-01 1.00000E-45
7.23099E-01 1.00000E-45
7.26995E-01 1.00000E-45
7.30874E-01 1.00000E-45
7.34736E-01 1.00000E-45
7.38579E-01 1.00000E-45
7.42405E-01 1.00000E-45
7.46212E-01 1.00000E-45
7.50000E-01 1.00000E-45
7.53769E-01 1.00000E-45
7.57519E-01 1.00000E-45
7.61249E-01 1.00000E-45
7.64960E-01 1.00000E-45
7.68650E-01 1.00000E-45
7.72320E-01 1.00000E-45
7.75968E-01 1.00000E-45
7.79596E-01 1.00000E-45
7.83203E-01 1.00000E-45
7.86788E-01 1.00000E-45
7.90351E-01 1.00000E-45
7.93893E-01 1.00000E-45
7.97411E-01 1.00000E-45
8.00908E-01 1.00000E-45
8.04381E-01 1.00000E-45
8.07831E-01 1.00000E-45
8.11257E-01 1.00000E-45
8.14660E-01 1.00000E-45
8.18039E-01 1.00000E-45
8.21394E-01 1.00000E-45
8.24724E-01 1.00000E-45
8.28030E-01 1.00000E-45
8.31310E-01 1.00000E-45
8.34565E-01 1.00000E-45
8.37795E-01 1.00000E-45
8.40999E-01 1.00000E-45
8.44177E-01 1.00000E-45
8.47329E-01 1.00000E-45
8.50455E-01 1.00000E-45
8.53553E-01 1.00000E-45
8.56625E-01 1.00000E-45
8.59670E-01 1.00000E-45
8.62687E-01 1.00000E-45
8.65677E-01 1.00000E-45
8.68639E-01 1.00000E-45
8.71572E-01 1.00000E-45
8.74478E-01 1.00000E-45
8.77355E-01 1.00000E-45
8.80203E-01 1.00000E-45
8.83022E-01 1.00000E-45
8.85812E-01 1.00000E-45
8.88573E-01 1.00000E-45
8.91304E-01 1.00000E-45
8.94005E-01 1.00000E-45
8.96677E-01 1.00000E-45
8.99318E-01 1.00000E-45
9.01928E-01 1.00000E-45
9.04508E-01 1.00000E-45
9.07058E-01 1.00000E-45
9.09576E-01 1.00000E-45
9.12063E-01 1.00000E-45
9.14519E-01 1.00000E-45
9.16943E-01 1.00000E-45
9.19335E-01 1.00000E-45
9.21696E-01 1.00000E-45
9.24024E-01 1.00000E-45
9.26320E-01 1.00000E-45
9.28584E-01 1.00000E-45
9.30815E-01 1.00000E-45
9.33013E-01 1.00000E-45
9.35178E-01 1.00000E-45
9.37310E-01 1.00000E-45
9.39409E-01 1.00000E-45
9.41474E-01 1.00000E-45
9.43505E-01 1.00000E-45
9.45503E-01 1.00000E-45
9.47467E-01 1.00000E-45
9.49397E-01 1.00000E-45
9.51293E-01 1.00000E-45
9.53154E-01 1.00000E-45
9.54981E-01 1.00000E-45
9.56773E-01 1.00000E-45
9.58530E-01 1.00000E-45
9.60252E-01 1.00000E-45
9.61940E-01 1.00000E-45
9.63592E-01 1.00000E-45
9.65209E-01 1.00000E-45
9.66790E-01 1.00000E-45
9.68336E-01 1.00000E-45
9.69846E-01 1.00000E-45
9.71321E-01 1.00000E-45
9.72759E-01 1.00000E-45
9.74162E-01 1.00000E-45
9.75528E-01 1.00000E-45
9.76858E-01 1.00000E-45
9.78152E-01 1.00000E-45
9.79410E-01 1.00000E-45
9.80631E-01 1.00000E-45
9.81815E-01 1.00000E-45
9.82963E-01 1.00000E-45
9.84074E-01 1.00000E-45
9.85148E-01 1.00000E-45
9.86185E-01 1.00000E-45
9.87185E-01 1.00000E-45
9.88148E-01 1.00000E-45
9.89074E-01 1.00000E-45
9.89962E-01 1.00000E-45
9.90814E-01 1.00000E-45
9.91627E-01 1.00000E-45
9.92404E-01 1.00000E-45
9.93143E-01 1.00000E-45
9.93844E-01 1.00000E-45
9.94508E-01 1.00000E-45
9.95134E-01 1.00000E-45
9.95722E-01 1.00000E-45
9.96273E-01 1.00000E-45
9.96786E-01 1.00000E-45
9.97261E-01 1.00000E-45
9.97698E-01 1.00000E-45
9.98097E-01 1.00000E-45
9.98459E-01 1.00000E-45
9.98782E-01 1.00000E-45
9.99067E-01 1.00000E-45
9.99315E-01 1.00000E-45
9.99524E-01 1.00000E-45
9.99695E-01 1.00000E-45
9.99829E-01 1.00000E-45
9.99924E-01 1.00000E-45
9.99981E-01 1.00000E-45
1.00000E+00 1.00000E-45
