 #
 # Subroutine ELSEPA. Elastic scattering of electrons and positrons
 #                    by neutral atoms and positive ions
 #
 # Projectile: electron
 # Kinetic energy = 7.00000E+07 eV = 2.57245E+06 a.u.
 #
 # WARNING: High-energy factorization with free-atom DF screening.
 #          Absorption, polarization and exchange corrections are
 #          switched off.
 #          Phase shifts are calculated for the bare nucleus.
 #          Scattering amplitudes are not evaluated.
 #
 # Element: At,  Z =  85,  atomic weight = 2.09987E+02 g/mol
 #
 # Nuclear model: Fermi distribution
 #                Average radius = 6.35987E-13 cm
 #                Skin thickness = 5.46000E-14 cm
 #
 # Number of electrons = 85
 #
 # Total elastic cross section = 9.37764E-18 cm**2 = 3.34882E-01 a0**2
 # 1st transport cross section = 2.76579E-24 cm**2 = 9.87683E-08 a0**2
 # 2nd transport cross section = 8.17582E-24 cm**2 = 2.91964E-07 a0**2
 #
 #
 # Differential cross section:                       MU=(1-COS(THETA))/2
 #
 #  THETA        MU          DCS          DCS        Sherman      error
 #  (deg)                 (cm**2/sr)   (a0**2/sr)    function
 #----------------------------------------------------------------------
0.00000E+00 3.22728E-10
7.61557E-13 3.22424E-10
1.18994E-12 3.22254E-10
1.71346E-12 3.22046E-10
2.33225E-12 3.21801E-10
3.04617E-12 3.21518E-10
3.85530E-12 3.21199E-10
4.75964E-12 3.20843E-10
5.75917E-12 3.20450E-10
6.85391E-12 3.20020E-10
8.04379E-12 3.19554E-10
9.32893E-12 3.19053E-10
1.07092E-11 3.18515E-10
1.21847E-11 3.17942E-10
1.37554E-11 3.17334E-10
1.54213E-11 3.16691E-10
1.71823E-11 3.16014E-10
1.90386E-11 3.15302E-10
2.09900E-11 3.14557E-10
2.30367E-11 3.13778E-10
2.51785E-11 3.12967E-10
2.74156E-11 3.12123E-10
2.97478E-11 3.11247E-10
3.21752E-11 3.10339E-10
3.46979E-11 3.09400E-10
3.73157E-11 3.08430E-10
4.00286E-11 3.07430E-10
4.28368E-11 3.06401E-10
4.57402E-11 3.05342E-10
4.87388E-11 3.04240E-10
5.18325E-11 3.03111E-10
5.50215E-11 3.01960E-10
5.83057E-11 3.00786E-10
6.16850E-11 2.99592E-10
6.51595E-11 2.98377E-10
6.87293E-11 2.97143E-10
7.23943E-11 2.95886E-10
7.61544E-11 2.94567E-10
1.18991E-10 2.80373E-10
1.71347E-10 2.64490E-10
2.33223E-10 2.47556E-10
3.04617E-10 2.29952E-10
3.85531E-10 2.12366E-10
4.75965E-10 1.95209E-10
5.75917E-10 1.78697E-10
6.85389E-10 1.63050E-10
8.04380E-10 1.48492E-10
9.32891E-10 1.35078E-10
1.07092E-09 1.22716E-10
1.21847E-09 1.11493E-10
1.37554E-09 1.01354E-10
1.54213E-09 9.21959E-11
1.71823E-09 8.39432E-11
1.90386E-09 7.65455E-11
2.09900E-09 6.99171E-11
2.30367E-09 6.39495E-11
2.51785E-09 5.86020E-11
2.74156E-09 5.38064E-11
2.97478E-09 4.94917E-11
3.21752E-09 4.56025E-11
3.46978E-09 4.20997E-11
3.73156E-09 3.89387E-11
4.00286E-09 3.60699E-11
4.28368E-09 3.34703E-11
4.57402E-09 3.11102E-11
4.87388E-09 2.88319E-11
5.18326E-09 2.67796E-11
5.50215E-09 2.49460E-11
5.83057E-09 2.33030E-11
6.16850E-09 2.18266E-11
6.51596E-09 2.04962E-11
6.87293E-09 1.92942E-11
7.23942E-09 1.81894E-11
7.61544E-09 1.70324E-11
1.18991E-08 9.59948E-12
1.71347E-08 5.82575E-12
2.33223E-08 3.74553E-12
3.04617E-08 2.51410E-12
3.85531E-08 1.75828E-12
4.75965E-08 1.27015E-12
5.75917E-08 9.39928E-13
6.85389E-08 7.09160E-13
8.04380E-08 5.44494E-13
9.32891E-08 4.24450E-13
1.07092E-07 3.35059E-13
1.21847E-07 2.67876E-13
1.37554E-07 2.16549E-13
1.54213E-07 1.77047E-13
1.71823E-07 1.46264E-13
1.90386E-07 1.21989E-13
2.09900E-07 1.02604E-13
2.30367E-07 8.69216E-14
2.51785E-07 7.41488E-14
2.74156E-07 6.36626E-14
2.97478E-07 5.49825E-14
3.21752E-07 4.77438E-14
3.46978E-07 4.16694E-14
3.73156E-07 3.65368E-14
4.00286E-07 3.21673E-14
4.28368E-07 2.84331E-14
4.57402E-07 2.52273E-14
4.87388E-07 2.24449E-14
5.18325E-07 2.00484E-14
5.50215E-07 1.79780E-14
5.83057E-07 1.61544E-14
6.16850E-07 1.45585E-14
6.51596E-07 1.31633E-14
6.87293E-07 1.19256E-14
7.23942E-07 1.08293E-14
7.61543E-07 9.86127E-15
1.18991E-06 4.28370E-15
1.71347E-06 2.14742E-15
2.33223E-06 1.19082E-15
3.04617E-06 7.12359E-16
3.85531E-06 4.52038E-16
4.75964E-06 3.00613E-16
5.75916E-06 2.07656E-16
6.85388E-06 1.48017E-16
8.04378E-06 1.08325E-16
9.32888E-06 8.10797E-17
1.07092E-05 6.18766E-17
1.21846E-05 4.80312E-17
1.37553E-05 3.78472E-17
1.54212E-05 3.02230E-17
1.71822E-05 2.44244E-17
1.90385E-05 1.99388E-17
2.09899E-05 1.64596E-17
2.30365E-05 1.37045E-17
2.51783E-05 1.14988E-17
2.74153E-05 9.71670E-18
2.97475E-05 8.26565E-18
3.21749E-05 7.07573E-18
3.46974E-05 6.09322E-18
3.73152E-05 5.27639E-18
4.00281E-05 4.59265E-18
4.28362E-05 4.01649E-18
4.57395E-05 3.52795E-18
4.87380E-05 3.11135E-18
5.18317E-05 2.75431E-18
5.50205E-05 2.44695E-18
5.83045E-05 2.18128E-18
6.16838E-05 1.95073E-18
6.51582E-05 1.74994E-18
6.87277E-05 1.57440E-18
7.23925E-05 1.42038E-18
7.61524E-05 1.28418E-18
9.21439E-05 8.79951E-19
1.09658E-04 6.23028E-19
1.28695E-04 4.53467E-19
1.49255E-04 3.37887E-19
1.71338E-04 2.56921E-19
1.94942E-04 1.98839E-19
2.20070E-04 1.56296E-19
2.46720E-04 1.24558E-19
2.74892E-04 1.00493E-19
3.04586E-04 8.19765E-20
3.35803E-04 6.75423E-20
3.68542E-04 5.61549E-20
4.02802E-04 4.70740E-20
4.38585E-04 3.97608E-20
4.75889E-04 3.38173E-20
5.14715E-04 2.89470E-20
5.55063E-04 2.49249E-20
5.96931E-04 2.15800E-20
6.40321E-04 1.87795E-20
6.85233E-04 1.64204E-20
7.31665E-04 1.44218E-20
7.79618E-04 1.27193E-20
8.29092E-04 1.12619E-20
8.80086E-04 1.00082E-20
9.32601E-04 8.92494E-21
9.86636E-04 7.98509E-21
1.04219E-03 7.16633E-21
1.09927E-03 6.45044E-21
1.15786E-03 5.82220E-21
1.21797E-03 5.26904E-21
1.27961E-03 4.78043E-21
1.34276E-03 4.34749E-21
1.40743E-03 3.96278E-21
1.47362E-03 3.61996E-21
1.54133E-03 3.31367E-21
1.61056E-03 3.03932E-21
1.68131E-03 2.79297E-21
1.75357E-03 2.57127E-21
1.82735E-03 2.37128E-21
1.90265E-03 2.19052E-21
1.97947E-03 2.02678E-21
2.05780E-03 1.87818E-21
2.13765E-03 1.74306E-21
2.21902E-03 1.61998E-21
2.30190E-03 1.50766E-21
2.38630E-03 1.40498E-21
2.47222E-03 1.31098E-21
2.55965E-03 1.22477E-21
2.64859E-03 1.14560E-21
2.73905E-03 1.07278E-21
2.83103E-03 1.00570E-21
2.92452E-03 9.43837E-22
3.01952E-03 8.86699E-22
3.11604E-03 8.33859E-22
3.21407E-03 7.84935E-22
3.31362E-03 7.39579E-22
3.41468E-03 6.97484E-22
3.51725E-03 6.58369E-22
3.62133E-03 6.21985E-22
3.72692E-03 5.88103E-22
3.83403E-03 5.56520E-22
3.94265E-03 5.27049E-22
4.05278E-03 4.99522E-22
4.16442E-03 4.73787E-22
4.27757E-03 4.49703E-22
4.39223E-03 4.27146E-22
4.50840E-03 4.05999E-22
4.62608E-03 3.86158E-22
4.74527E-03 3.67526E-22
4.86597E-03 3.50016E-22
4.98817E-03 3.33547E-22
5.11188E-03 3.18046E-22
5.23711E-03 3.03444E-22
5.36383E-03 2.89682E-22
5.49207E-03 2.76702E-22
5.62181E-03 2.64439E-22
5.75306E-03 2.52850E-22
5.88581E-03 2.41893E-22
6.02007E-03 2.31529E-22
6.15583E-03 2.21719E-22
6.29310E-03 2.12427E-22
6.43187E-03 2.03621E-22
6.57214E-03 1.95270E-22
6.71392E-03 1.87347E-22
6.85720E-03 1.79824E-22
7.00198E-03 1.72678E-22
7.14827E-03 1.65886E-22
7.29605E-03 1.59427E-22
7.44534E-03 1.53282E-22
7.59612E-03 1.47432E-22
7.97965E-03 1.33989E-22
8.37255E-03 1.22053E-22
8.77480E-03 1.11424E-22
9.18641E-03 1.01931E-22
9.60736E-03 9.34324E-23
1.00376E-02 8.58038E-23
1.04773E-02 7.89399E-23
1.09262E-02 7.27498E-23
1.13844E-02 6.71552E-23
1.18520E-02 6.20882E-23
1.23288E-02 5.74896E-23
1.28150E-02 5.33082E-23
1.33104E-02 4.94991E-23
1.38150E-02 4.60228E-23
1.43290E-02 4.28449E-23
1.48521E-02 3.99351E-23
1.53845E-02 3.72664E-23
1.59262E-02 3.48151E-23
1.64770E-02 3.25602E-23
1.70371E-02 3.04831E-23
1.76063E-02 2.85670E-23
1.81848E-02 2.67973E-23
1.87724E-02 2.51606E-23
1.93692E-02 2.36450E-23
1.99751E-02 2.22399E-23
2.05901E-02 2.09359E-23
2.12143E-02 1.97242E-23
2.18476E-02 1.85971E-23
2.24900E-02 1.75476E-23
2.31415E-02 1.65693E-23
2.38021E-02 1.56567E-23
2.44717E-02 1.48044E-23
2.51504E-02 1.40077E-23
2.58382E-02 1.32623E-23
2.65349E-02 1.25644E-23
2.72407E-02 1.19103E-23
2.79555E-02 1.12969E-23
2.86793E-02 1.07210E-23
2.94120E-02 1.01801E-23
3.01537E-02 9.67157E-24
3.09043E-02 9.19317E-24
3.16639E-02 8.74278E-24
3.24324E-02 8.31849E-24
3.32098E-02 7.91851E-24
3.39961E-02 7.54120E-24
3.47912E-02 7.18505E-24
3.55952E-02 6.84868E-24
3.64081E-02 6.53079E-24
3.72297E-02 6.23019E-24
3.80602E-02 5.94578E-24
3.88995E-02 5.67654E-24
3.97476E-02 5.42152E-24
4.06044E-02 5.17985E-24
4.14700E-02 4.95071E-24
4.23443E-02 4.73334E-24
4.32273E-02 4.52703E-24
4.41190E-02 4.33114E-24
4.50194E-02 4.14504E-24
4.59284E-02 3.96818E-24
4.68461E-02 3.80001E-24
4.87074E-02 3.48781E-24
5.06030E-02 3.20486E-24
5.25328E-02 2.94800E-24
5.44967E-02 2.71447E-24
5.64946E-02 2.50186E-24
5.85262E-02 2.30802E-24
6.05914E-02 2.13107E-24
6.26901E-02 1.96932E-24
6.48222E-02 1.82129E-24
6.69873E-02 1.68567E-24
6.91854E-02 1.56128E-24
7.14163E-02 1.44706E-24
7.36799E-02 1.34208E-24
7.59760E-02 1.24550E-24
7.83043E-02 1.15657E-24
8.06647E-02 1.07460E-24
8.30571E-02 9.98986E-25
8.54812E-02 9.29181E-25
8.79369E-02 8.64686E-25
9.04240E-02 8.05053E-25
9.29422E-02 7.49875E-25
9.54915E-02 6.98785E-25
9.80716E-02 6.51448E-25
1.00682E-01 6.07560E-25
1.03323E-01 5.66846E-25
1.05995E-01 5.29054E-25
1.08696E-01 4.93954E-25
1.11427E-01 4.61337E-25
1.14188E-01 4.31012E-25
1.16978E-01 4.02803E-25
1.19797E-01 3.76551E-25
1.22645E-01 3.52108E-25
1.25522E-01 3.29340E-25
1.28428E-01 3.08123E-25
1.31361E-01 2.88344E-25
1.34323E-01 2.69897E-25
1.37313E-01 2.52688E-25
1.40330E-01 2.36626E-25
1.43375E-01 2.21631E-25
1.46447E-01 2.07627E-25
1.49545E-01 1.94544E-25
1.52671E-01 1.82318E-25
1.55823E-01 1.70890E-25
1.59001E-01 1.60205E-25
1.62205E-01 1.50211E-25
1.65435E-01 1.40863E-25
1.68690E-01 1.32115E-25
1.71970E-01 1.23928E-25
1.75276E-01 1.16263E-25
1.78606E-01 1.09087E-25
1.81961E-01 1.02366E-25
1.85340E-01 9.60710E-26
1.88743E-01 9.01732E-26
1.92169E-01 8.46469E-26
1.95619E-01 7.94677E-26
1.99092E-01 7.46132E-26
2.02589E-01 7.00623E-26
2.06107E-01 6.57954E-26
2.09649E-01 6.17943E-26
2.13212E-01 5.80420E-26
2.16797E-01 5.45225E-26
2.20404E-01 5.12210E-26
2.24032E-01 4.81238E-26
2.27680E-01 4.52178E-26
2.31350E-01 4.24910E-26
2.35040E-01 3.99322E-26
2.38751E-01 3.75307E-26
2.42481E-01 3.52768E-26
2.46231E-01 3.31612E-26
2.50000E-01 3.11753E-26
2.53788E-01 2.93109E-26
2.57595E-01 2.75607E-26
2.61421E-01 2.59174E-26
2.65264E-01 2.43745E-26
2.69126E-01 2.29258E-26
2.73005E-01 2.15654E-26
2.76901E-01 2.02879E-26
2.80814E-01 1.90882E-26
2.84744E-01 1.79615E-26
2.88691E-01 1.69034E-26
2.92653E-01 1.59096E-26
2.96632E-01 1.49761E-26
3.00625E-01 1.40994E-26
3.04634E-01 1.32759E-26
3.08658E-01 1.25023E-26
3.12697E-01 1.17757E-26
3.16749E-01 1.10931E-26
3.20816E-01 1.04519E-26
3.24896E-01 9.84945E-27
3.28990E-01 9.28350E-27
3.33097E-01 8.75179E-27
3.37216E-01 8.25223E-27
3.41348E-01 7.78286E-27
3.45492E-01 7.34183E-27
3.49647E-01 6.92742E-27
3.53814E-01 6.53800E-27
3.57992E-01 6.17205E-27
3.62181E-01 5.82815E-27
3.66381E-01 5.50493E-27
3.70590E-01 5.20114E-27
3.74810E-01 4.91560E-27
3.79039E-01 4.64719E-27
3.83277E-01 4.39486E-27
3.87524E-01 4.15763E-27
3.91780E-01 3.93457E-27
3.96044E-01 3.72483E-27
4.00316E-01 3.52759E-27
4.04596E-01 3.34207E-27
4.08882E-01 3.16757E-27
4.13176E-01 3.00341E-27
4.17476E-01 2.84895E-27
4.21783E-01 2.70360E-27
4.26095E-01 2.56680E-27
4.30413E-01 2.43803E-27
4.34737E-01 2.31679E-27
4.39065E-01 2.20262E-27
4.43398E-01 2.09509E-27
4.47736E-01 1.99379E-27
4.52077E-01 1.89833E-27
4.56422E-01 1.80836E-27
4.60770E-01 1.72354E-27
4.65122E-01 1.64356E-27
4.69476E-01 1.56811E-27
4.73832E-01 1.49692E-27
4.78190E-01 1.42972E-27
4.82550E-01 1.36628E-27
4.86912E-01 1.30636E-27
4.91274E-01 1.24974E-27
4.95637E-01 1.19622E-27
5.00000E-01 1.14561E-27
5.04363E-01 1.09774E-27
5.08726E-01 1.05243E-27
5.13088E-01 1.00953E-27
5.17450E-01 9.68897E-28
5.21810E-01 9.30386E-28
5.26168E-01 8.93871E-28
5.30524E-01 8.59231E-28
5.34878E-01 8.26352E-28
5.39230E-01 7.95128E-28
5.43578E-01 7.65458E-28
5.47923E-01 7.37251E-28
5.52264E-01 7.10417E-28
5.56602E-01 6.84876E-28
5.60935E-01 6.60551E-28
5.65263E-01 6.37369E-28
5.69587E-01 6.15263E-28
5.73905E-01 5.94170E-28
5.78217E-01 5.74032E-28
5.82524E-01 5.54792E-28
5.86824E-01 5.36399E-28
5.91118E-01 5.18805E-28
5.95404E-01 5.01963E-28
5.99684E-01 4.85832E-28
6.03956E-01 4.70371E-28
6.08220E-01 4.55543E-28
6.12476E-01 4.41314E-28
6.16723E-01 4.27650E-28
6.20961E-01 4.14521E-28
6.25190E-01 4.01899E-28
6.29410E-01 3.89755E-28
6.33619E-01 3.78066E-28
6.37819E-01 3.66807E-28
6.42008E-01 3.55957E-28
6.46186E-01 3.45495E-28
6.50353E-01 3.35401E-28
6.54508E-01 3.25657E-28
6.58652E-01 3.16246E-28
6.62784E-01 3.07152E-28
6.66903E-01 2.98361E-28
6.71010E-01 2.89857E-28
6.75104E-01 2.81628E-28
6.79184E-01 2.73662E-28
6.83251E-01 2.65946E-28
6.87303E-01 2.58471E-28
6.91342E-01 2.51224E-28
6.95366E-01 2.44197E-28
6.99375E-01 2.37382E-28
7.03368E-01 2.30768E-28
7.07347E-01 2.24348E-28
7.11309E-01 2.18114E-28
7.15256E-01 2.12060E-28
7.19186E-01 2.06178E-28
7.23099E-01 2.00462E-28
7.26995E-01 1.94906E-28
7.30874E-01 1.89504E-28
7.34736E-01 1.84251E-28
7.38579E-01 1.79141E-28
7.42405E-01 1.74170E-28
7.46212E-01 1.69334E-28
7.50000E-01 1.64626E-28
7.53769E-01 1.60045E-28
7.57519E-01 1.55585E-28
7.61249E-01 1.51242E-28
7.64960E-01 1.47014E-28
7.68650E-01 1.42897E-28
7.72320E-01 1.38886E-28
7.75968E-01 1.34980E-28
7.79596E-01 1.31175E-28
7.83203E-01 1.27469E-28
7.86788E-01 1.23857E-28
7.90351E-01 1.20339E-28
7.93893E-01 1.16911E-28
7.97411E-01 1.13571E-28
8.00908E-01 1.10316E-28
8.04381E-01 1.07144E-28
8.07831E-01 1.04054E-28
8.11257E-01 1.01042E-28
8.14660E-01 9.81066E-29
8.18039E-01 9.52462E-29
8.21394E-01 9.24587E-29
8.24724E-01 8.97421E-29
8.28030E-01 8.70948E-29
8.31310E-01 8.45148E-29
8.34565E-01 8.20007E-29
8.37795E-01 7.95506E-29
8.40999E-01 7.71630E-29
8.44177E-01 7.48364E-29
8.47329E-01 7.25692E-29
8.50455E-01 7.03599E-29
8.53553E-01 6.82073E-29
8.56625E-01 6.61098E-29
8.59670E-01 6.40661E-29
8.62687E-01 6.20749E-29
8.65677E-01 6.01349E-29
8.68639E-01 5.82450E-29
8.71572E-01 5.64037E-29
8.74478E-01 5.46100E-29
8.77355E-01 5.28628E-29
8.80203E-01 5.11608E-29
8.83022E-01 4.95031E-29
8.85812E-01 4.78884E-29
8.88573E-01 4.63159E-29
8.91304E-01 4.47844E-29
8.94005E-01 4.32930E-29
8.96677E-01 4.18407E-29
8.99318E-01 4.04266E-29
9.01928E-01 3.90498E-29
9.04508E-01 3.77093E-29
9.07058E-01 3.64042E-29
9.09576E-01 3.51338E-29
9.12063E-01 3.38973E-29
9.14519E-01 3.26937E-29
9.16943E-01 3.15223E-29
9.19335E-01 3.03824E-29
9.21696E-01 2.92732E-29
9.24024E-01 2.81939E-29
9.26320E-01 2.71440E-29
9.28584E-01 2.61226E-29
9.30815E-01 2.51291E-29
9.33013E-01 2.41628E-29
9.35178E-01 2.32232E-29
9.37310E-01 2.23096E-29
9.39409E-01 2.14214E-29
9.41474E-01 2.05581E-29
9.43505E-01 1.97190E-29
9.45503E-01 1.89036E-29
9.47467E-01 1.81113E-29
9.49397E-01 1.73418E-29
9.51293E-01 1.65944E-29
9.53154E-01 1.58686E-29
9.54981E-01 1.51640E-29
9.56773E-01 1.44802E-29
9.58530E-01 1.38167E-29
9.60252E-01 1.31730E-29
9.61940E-01 1.25488E-29
9.63592E-01 1.19435E-29
9.65209E-01 1.13570E-29
9.66790E-01 1.07887E-29
9.68336E-01 1.02383E-29
9.69846E-01 9.70542E-30
9.71321E-01 9.18977E-30
9.72759E-01 8.69100E-30
9.74162E-01 8.20878E-30
9.75528E-01 7.74282E-30
9.76858E-01 7.29280E-30
9.78152E-01 6.85846E-30
9.79410E-01 6.43952E-30
9.80631E-01 6.03570E-30
9.81815E-01 5.64677E-30
9.82963E-01 5.27247E-30
9.84074E-01 4.91257E-30
9.85148E-01 4.56686E-30
9.86185E-01 4.23510E-30
9.87185E-01 3.91710E-30
9.88148E-01 3.61267E-30
9.89074E-01 3.32160E-30
9.89962E-01 3.04374E-30
9.90814E-01 2.77890E-30
9.91627E-01 2.52692E-30
9.92404E-01 2.28766E-30
9.93143E-01 2.06096E-30
9.93844E-01 1.84669E-30
9.94508E-01 1.64472E-30
9.95134E-01 1.45492E-30
9.95722E-01 1.27719E-30
9.96273E-01 1.11141E-30
9.96786E-01 9.57496E-31
9.97261E-01 8.15343E-31
9.97698E-01 6.84871E-31
9.98097E-01 5.66001E-31
9.98459E-01 4.58663E-31
9.98782E-01 3.62794E-31
9.99067E-01 2.78337E-31
9.99315E-01 2.05241E-31
9.99524E-01 1.43464E-31
9.99695E-01 9.29679E-32
9.99829E-01 5.37244E-32
9.99924E-01 2.57099E-32
9.99981E-01 8.90771E-33
1.00000E+00 3.30806E-33
