 #
 # Subroutine ELSEPA. Elastic scattering of electrons and positrons
 #                    by neutral atoms and positive ions
 #
 # Projectile: electron
 # Kinetic energy = 1.75000E+07 eV = 6.43113E+05 a.u.
 #
 # WARNING: High-energy factorization with free-atom DF screening.
 #          Absorption, polarization and exchange corrections are
 #          switched off.
 #          Phase shifts are calculated for the bare nucleus.
 #          Scattering amplitudes are not evaluated.
 #
 # Element: At,  Z =  85,  atomic weight = 2.09987E+02 g/mol
 #
 # Nuclear model: Fermi distribution
 #                Average radius = 6.35987E-13 cm
 #                Skin thickness = 5.46000E-14 cm
 #
 # Number of electrons = 85
 #
 # Total elastic cross section = 9.38378E-18 cm**2 = 3.35101E-01 a0**2
 # 1st transport cross section = 4.18284E-23 cm**2 = 1.49372E-06 a0**2
 # 2nd transport cross section = 1.16592E-22 cm**2 = 4.16358E-06 a0**2
 #
 #
 # Differential cross section:                       MU=(1-COS(THETA))/2
 #
 #  THETA        MU          DCS          DCS        Sherman      error
 #  (deg)                 (cm**2/sr)   (a0**2/sr)    function
 #----------------------------------------------------------------------
0.00000E+00 2.10571E-11
7.61557E-13 2.10558E-11
1.18994E-12 2.10551E-11
1.71346E-12 2.10542E-11
2.33225E-12 2.10531E-11
3.04617E-12 2.10519E-11
3.85530E-12 2.10505E-11
4.75964E-12 2.10490E-11
5.75917E-12 2.10473E-11
6.85391E-12 2.10455E-11
8.04379E-12 2.10434E-11
9.32893E-12 2.10413E-11
1.07092E-11 2.10389E-11
1.21847E-11 2.10364E-11
1.37554E-11 2.10338E-11
1.54213E-11 2.10310E-11
1.71823E-11 2.10280E-11
1.90386E-11 2.10249E-11
2.09900E-11 2.10216E-11
2.30367E-11 2.10181E-11
2.51785E-11 2.10145E-11
2.74156E-11 2.10107E-11
2.97478E-11 2.10068E-11
3.21752E-11 2.10027E-11
3.46979E-11 2.09985E-11
3.73157E-11 2.09941E-11
4.00286E-11 2.09895E-11
4.28368E-11 2.09848E-11
4.57402E-11 2.09799E-11
4.87388E-11 2.09749E-11
5.18325E-11 2.09697E-11
5.50215E-11 2.09643E-11
5.83057E-11 2.09588E-11
6.16850E-11 2.09532E-11
6.51595E-11 2.09473E-11
6.87293E-11 2.09414E-11
7.23943E-11 2.09352E-11
7.61544E-11 2.09289E-11
1.18991E-10 2.08575E-11
1.71347E-10 2.07707E-11
2.33223E-10 2.06688E-11
3.04617E-10 2.05523E-11
3.85531E-10 2.04215E-11
4.75965E-10 2.02769E-11
5.75917E-10 2.01189E-11
6.85389E-10 1.99481E-11
8.04380E-10 1.97631E-11
9.32891E-10 1.95677E-11
1.07092E-09 1.93637E-11
1.21847E-09 1.91457E-11
1.37554E-09 1.89188E-11
1.54213E-09 1.86859E-11
1.71823E-09 1.84405E-11
1.90386E-09 1.81880E-11
2.09900E-09 1.79321E-11
2.30367E-09 1.76657E-11
2.51785E-09 1.73937E-11
2.74156E-09 1.71209E-11
2.97478E-09 1.68397E-11
3.21752E-09 1.65541E-11
3.46978E-09 1.62701E-11
3.73156E-09 1.59799E-11
4.00286E-09 1.56865E-11
4.28368E-09 1.53966E-11
4.57402E-09 1.51029E-11
4.87388E-09 1.48068E-11
5.18326E-09 1.45158E-11
5.50215E-09 1.42232E-11
5.83057E-09 1.39288E-11
6.16850E-09 1.36408E-11
6.51596E-09 1.33532E-11
6.87293E-09 1.30644E-11
7.23942E-09 1.27829E-11
7.61544E-09 1.25035E-11
1.18991E-08 9.90400E-12
1.71347E-08 7.76511E-12
2.33223E-08 6.08869E-12
3.04617E-08 4.80419E-12
3.85531E-08 3.83052E-12
4.75965E-08 3.09088E-12
5.75917E-08 2.52387E-12
6.85389E-08 2.08380E-12
8.04380E-08 1.72332E-12
9.32891E-08 1.44778E-12
1.07092E-07 1.23703E-12
1.21847E-07 1.05273E-12
1.37554E-07 9.03000E-13
1.54213E-07 7.84424E-13
1.71823E-07 6.79787E-13
1.90386E-07 5.92057E-13
2.09900E-07 5.20673E-13
2.30367E-07 4.57634E-13
2.51785E-07 4.03622E-13
2.74156E-07 3.58704E-13
2.97478E-07 3.19038E-13
3.21752E-07 2.84516E-13
3.46978E-07 2.55283E-13
3.73156E-07 2.29398E-13
4.00286E-07 2.06582E-13
4.28368E-07 1.86965E-13
4.57402E-07 1.69504E-13
4.87388E-07 1.53934E-13
5.18325E-07 1.40375E-13
5.50215E-07 1.28227E-13
5.83057E-07 1.17276E-13
6.16850E-07 1.07634E-13
6.51596E-07 9.89426E-14
6.87293E-07 9.10261E-14
7.23942E-07 8.39929E-14
7.61543E-07 7.76173E-14
1.18991E-06 3.77546E-14
1.71347E-06 2.03439E-14
2.33223E-06 1.18543E-14
3.04617E-06 7.39303E-15
3.85531E-06 4.85868E-15
4.75964E-06 3.32942E-15
5.75916E-06 2.36069E-15
6.85388E-06 1.72039E-15
8.04378E-06 1.28262E-15
9.32888E-06 9.76744E-16
1.07092E-05 7.57189E-16
1.21846E-05 5.96193E-16
1.37553E-05 4.75836E-16
1.54212E-05 3.84297E-16
1.71822E-05 3.13797E-16
1.90385E-05 2.58597E-16
2.09899E-05 2.15312E-16
2.30365E-05 1.80670E-16
2.51783E-05 1.52627E-16
2.74153E-05 1.29771E-16
2.97475E-05 1.11018E-16
3.21749E-05 9.55329E-17
3.46974E-05 8.26654E-17
3.73152E-05 7.19031E-17
4.00281E-05 6.28398E-17
4.28362E-05 5.51675E-17
4.57395E-05 4.86335E-17
4.87380E-05 4.30387E-17
5.18317E-05 3.82253E-17
5.50205E-05 3.40645E-17
5.83045E-05 3.04549E-17
6.16838E-05 2.73128E-17
6.51582E-05 2.45676E-17
6.87277E-05 2.21604E-17
7.23925E-05 2.00423E-17
7.61524E-05 1.81681E-17
9.21439E-05 1.25544E-17
1.09658E-04 8.95109E-18
1.28695E-04 6.55290E-18
1.49255E-04 4.90626E-18
1.71338E-04 3.74554E-18
1.94942E-04 2.90850E-18
2.20070E-04 2.29270E-18
2.46720E-04 1.83157E-18
2.74892E-04 1.48079E-18
3.04586E-04 1.21013E-18
3.35803E-04 9.98646E-19
3.68542E-04 8.31441E-19
4.02802E-04 6.97854E-19
4.38585E-04 5.90091E-19
4.75889E-04 5.02377E-19
5.14715E-04 4.30403E-19
5.55063E-04 3.70889E-19
5.96931E-04 3.21338E-19
6.40321E-04 2.79808E-19
6.85233E-04 2.44789E-19
7.31665E-04 2.15094E-19
7.79618E-04 1.89779E-19
8.29092E-04 1.68089E-19
8.80086E-04 1.49419E-19
9.32601E-04 1.33278E-19
9.86636E-04 1.19263E-19
1.04219E-03 1.07049E-19
1.09927E-03 9.63635E-20
1.15786E-03 8.69818E-20
1.21797E-03 7.87183E-20
1.27961E-03 7.14165E-20
1.34276E-03 6.49443E-20
1.40743E-03 5.91916E-20
1.47362E-03 5.40640E-20
1.54133E-03 4.94819E-20
1.61056E-03 4.53767E-20
1.68131E-03 4.16902E-20
1.75357E-03 3.83721E-20
1.82735E-03 3.53788E-20
1.90265E-03 3.26731E-20
1.97947E-03 3.02223E-20
2.05780E-03 2.79980E-20
2.13765E-03 2.59756E-20
2.21902E-03 2.41334E-20
2.30190E-03 2.24524E-20
2.38630E-03 2.09160E-20
2.47222E-03 1.95095E-20
2.55965E-03 1.82199E-20
2.64859E-03 1.70357E-20
2.73905E-03 1.59467E-20
2.83103E-03 1.49438E-20
2.92452E-03 1.40191E-20
3.01952E-03 1.31652E-20
3.11604E-03 1.23757E-20
3.21407E-03 1.16450E-20
3.31362E-03 1.09678E-20
3.41468E-03 1.03394E-20
3.51725E-03 9.75568E-21
3.62133E-03 9.21290E-21
3.72692E-03 8.70763E-21
3.83403E-03 8.23680E-21
3.94265E-03 7.79761E-21
4.05278E-03 7.38755E-21
4.16442E-03 7.00432E-21
4.27757E-03 6.64582E-21
4.39223E-03 6.31016E-21
4.50840E-03 5.99563E-21
4.62608E-03 5.70061E-21
4.74527E-03 5.42370E-21
4.86597E-03 5.16356E-21
4.98817E-03 4.91898E-21
5.11188E-03 4.68885E-21
5.23711E-03 4.47217E-21
5.36383E-03 4.26798E-21
5.49207E-03 4.07544E-21
5.62181E-03 3.89375E-21
5.75306E-03 3.72218E-21
5.88581E-03 3.56007E-21
6.02007E-03 3.40679E-21
6.15583E-03 3.26176E-21
6.29310E-03 3.12446E-21
6.43187E-03 2.99440E-21
6.57214E-03 2.87111E-21
6.71392E-03 2.75419E-21
6.85720E-03 2.64323E-21
7.00198E-03 2.53788E-21
7.14827E-03 2.43779E-21
7.29605E-03 2.34265E-21
7.44534E-03 2.25217E-21
7.59612E-03 2.16608E-21
7.97965E-03 1.96842E-21
8.37255E-03 1.79310E-21
8.77480E-03 1.63713E-21
9.18641E-03 1.49801E-21
9.60736E-03 1.37358E-21
1.00376E-02 1.26200E-21
1.04773E-02 1.16171E-21
1.09262E-02 1.07135E-21
1.13844E-02 9.89752E-22
1.18520E-02 9.15915E-22
1.23288E-02 8.48963E-22
1.28150E-02 7.88132E-22
1.33104E-02 7.32757E-22
1.38150E-02 6.82256E-22
1.43290E-02 6.36119E-22
1.48521E-02 5.93898E-22
1.53845E-02 5.55197E-22
1.59262E-02 5.19664E-22
1.64770E-02 4.86992E-22
1.70371E-02 4.56907E-22
1.76063E-02 4.29162E-22
1.81848E-02 4.03540E-22
1.87724E-02 3.79849E-22
1.93692E-02 3.57913E-22
1.99751E-02 3.37577E-22
2.05901E-02 3.18702E-22
2.12143E-02 3.01161E-22
2.18476E-02 2.84842E-22
2.24900E-02 2.69643E-22
2.31415E-02 2.55471E-22
2.38021E-02 2.42243E-22
2.44717E-02 2.29884E-22
2.51504E-02 2.18325E-22
2.58382E-02 2.07504E-22
2.65349E-02 1.97365E-22
2.72407E-02 1.87855E-22
2.79555E-02 1.78927E-22
2.86793E-02 1.70539E-22
2.94120E-02 1.62653E-22
3.01537E-02 1.55230E-22
3.09043E-02 1.48237E-22
3.16639E-02 1.41648E-22
3.24324E-02 1.35431E-22
3.32098E-02 1.29561E-22
3.39961E-02 1.24017E-22
3.47912E-02 1.18775E-22
3.55952E-02 1.13816E-22
3.64081E-02 1.09121E-22
3.72297E-02 1.04674E-22
3.80602E-02 1.00458E-22
3.88995E-02 9.64586E-23
3.97476E-02 9.26631E-23
4.06044E-02 8.90583E-23
4.14700E-02 8.56328E-23
4.23443E-02 8.23758E-23
4.32273E-02 7.92773E-23
4.41190E-02 7.63278E-23
4.50194E-02 7.35186E-23
4.59284E-02 7.08418E-23
4.68461E-02 6.82897E-23
4.87074E-02 6.35318E-23
5.06030E-02 5.91939E-23
5.25328E-02 5.52315E-23
5.44967E-02 5.16054E-23
5.64946E-02 4.82812E-23
5.85262E-02 4.52286E-23
6.05914E-02 4.24208E-23
6.26901E-02 3.98341E-23
6.48222E-02 3.74475E-23
6.69873E-02 3.52423E-23
6.91854E-02 3.32018E-23
7.14163E-02 3.13112E-23
7.36799E-02 2.95571E-23
7.59760E-02 2.79276E-23
7.83043E-02 2.64122E-23
8.06647E-02 2.50010E-23
8.30571E-02 2.36857E-23
8.54812E-02 2.24581E-23
8.79369E-02 2.13098E-23
9.04240E-02 2.02357E-23
9.29422E-02 1.92300E-23
9.54915E-02 1.82875E-23
9.80716E-02 1.74032E-23
1.00682E-01 1.65729E-23
1.03323E-01 1.57925E-23
1.05995E-01 1.50584E-23
1.08696E-01 1.43672E-23
1.11427E-01 1.37160E-23
1.14188E-01 1.31018E-23
1.16978E-01 1.25222E-23
1.19797E-01 1.19747E-23
1.22645E-01 1.14573E-23
1.25522E-01 1.09678E-23
1.28428E-01 1.05045E-23
1.31361E-01 1.00657E-23
1.34323E-01 9.64974E-24
1.37313E-01 9.25525E-24
1.40330E-01 8.88087E-24
1.43375E-01 8.52534E-24
1.46447E-01 8.18752E-24
1.49545E-01 7.86633E-24
1.52671E-01 7.56079E-24
1.55823E-01 7.26996E-24
1.59001E-01 6.99299E-24
1.62205E-01 6.72907E-24
1.65435E-01 6.47747E-24
1.68690E-01 6.23748E-24
1.71970E-01 6.00846E-24
1.75276E-01 5.78979E-24
1.78606E-01 5.58092E-24
1.81961E-01 5.38130E-24
1.85340E-01 5.19045E-24
1.88743E-01 5.00790E-24
1.92169E-01 4.83321E-24
1.95619E-01 4.66598E-24
1.99092E-01 4.50581E-24
2.02589E-01 4.35235E-24
2.06107E-01 4.20526E-24
2.09649E-01 4.06422E-24
2.13212E-01 3.92893E-24
2.16797E-01 3.79911E-24
2.20404E-01 3.67449E-24
2.24032E-01 3.55482E-24
2.27680E-01 3.43986E-24
2.31350E-01 3.32939E-24
2.35040E-01 3.22321E-24
2.38751E-01 3.12110E-24
2.42481E-01 3.02288E-24
2.46231E-01 2.92838E-24
2.50000E-01 2.83742E-24
2.53788E-01 2.74985E-24
2.57595E-01 2.66552E-24
2.61421E-01 2.58427E-24
2.65264E-01 2.50598E-24
2.69126E-01 2.43052E-24
2.73005E-01 2.35776E-24
2.76901E-01 2.28760E-24
2.80814E-01 2.21991E-24
2.84744E-01 2.15459E-24
2.88691E-01 2.09155E-24
2.92653E-01 2.03069E-24
2.96632E-01 1.97193E-24
3.00625E-01 1.91516E-24
3.04634E-01 1.86032E-24
3.08658E-01 1.80733E-24
3.12697E-01 1.75611E-24
3.16749E-01 1.70659E-24
3.20816E-01 1.65870E-24
3.24896E-01 1.61239E-24
3.28990E-01 1.56758E-24
3.33097E-01 1.52423E-24
3.37216E-01 1.48227E-24
3.41348E-01 1.44165E-24
3.45492E-01 1.40233E-24
3.49647E-01 1.36425E-24
3.53814E-01 1.32736E-24
3.57992E-01 1.29163E-24
3.62181E-01 1.25700E-24
3.66381E-01 1.22344E-24
3.70590E-01 1.19092E-24
3.74810E-01 1.15939E-24
3.79039E-01 1.12881E-24
3.83277E-01 1.09916E-24
3.87524E-01 1.07039E-24
3.91780E-01 1.04249E-24
3.96044E-01 1.01541E-24
4.00316E-01 9.89133E-25
4.04596E-01 9.63628E-25
4.08882E-01 9.38868E-25
4.13176E-01 9.14828E-25
4.17476E-01 8.91483E-25
4.21783E-01 8.68810E-25
4.26095E-01 8.46786E-25
4.30413E-01 8.25389E-25
4.34737E-01 8.04599E-25
4.39065E-01 7.84394E-25
4.43398E-01 7.64757E-25
4.47736E-01 7.45669E-25
4.52077E-01 7.27111E-25
4.56422E-01 7.09066E-25
4.60770E-01 6.91518E-25
4.65122E-01 6.74451E-25
4.69476E-01 6.57850E-25
4.73832E-01 6.41699E-25
4.78190E-01 6.25985E-25
4.82550E-01 6.10694E-25
4.86912E-01 5.95812E-25
4.91274E-01 5.81327E-25
4.95637E-01 5.67227E-25
5.00000E-01 5.53500E-25
5.04363E-01 5.40134E-25
5.08726E-01 5.27119E-25
5.13088E-01 5.14443E-25
5.17450E-01 5.02096E-25
5.21810E-01 4.90070E-25
5.26168E-01 4.78353E-25
5.30524E-01 4.66937E-25
5.34878E-01 4.55813E-25
5.39230E-01 4.44972E-25
5.43578E-01 4.34406E-25
5.47923E-01 4.24107E-25
5.52264E-01 4.14067E-25
5.56602E-01 4.04278E-25
5.60935E-01 3.94735E-25
5.65263E-01 3.85428E-25
5.69587E-01 3.76352E-25
5.73905E-01 3.67500E-25
5.78217E-01 3.58866E-25
5.82524E-01 3.50444E-25
5.86824E-01 3.42227E-25
5.91118E-01 3.34209E-25
5.95404E-01 3.26387E-25
5.99684E-01 3.18753E-25
6.03956E-01 3.11303E-25
6.08220E-01 3.04031E-25
6.12476E-01 2.96934E-25
6.16723E-01 2.90005E-25
6.20961E-01 2.83241E-25
6.25190E-01 2.76637E-25
6.29410E-01 2.70188E-25
6.33619E-01 2.63891E-25
6.37819E-01 2.57742E-25
6.42008E-01 2.51736E-25
6.46186E-01 2.45870E-25
6.50353E-01 2.40140E-25
6.54508E-01 2.34542E-25
6.58652E-01 2.29074E-25
6.62784E-01 2.23731E-25
6.66903E-01 2.18511E-25
6.71010E-01 2.13409E-25
6.75104E-01 2.08425E-25
6.79184E-01 2.03553E-25
6.83251E-01 1.98792E-25
6.87303E-01 1.94138E-25
6.91342E-01 1.89589E-25
6.95366E-01 1.85142E-25
6.99375E-01 1.80795E-25
7.03368E-01 1.76545E-25
7.07347E-01 1.72389E-25
7.11309E-01 1.68326E-25
7.15256E-01 1.64353E-25
7.19186E-01 1.60468E-25
7.23099E-01 1.56668E-25
7.26995E-01 1.52952E-25
7.30874E-01 1.49318E-25
7.34736E-01 1.45763E-25
7.38579E-01 1.42286E-25
7.42405E-01 1.38884E-25
7.46212E-01 1.35557E-25
7.50000E-01 1.32302E-25
7.53769E-01 1.29117E-25
7.57519E-01 1.26001E-25
7.61249E-01 1.22953E-25
7.64960E-01 1.19970E-25
7.68650E-01 1.17051E-25
7.72320E-01 1.14194E-25
7.75968E-01 1.11399E-25
7.79596E-01 1.08664E-25
7.83203E-01 1.05987E-25
7.86788E-01 1.03367E-25
7.90351E-01 1.00803E-25
7.93893E-01 9.82934E-26
7.97411E-01 9.58370E-26
8.00908E-01 9.34328E-26
8.04381E-01 9.10794E-26
8.07831E-01 8.87758E-26
8.11257E-01 8.65208E-26
8.14660E-01 8.43135E-26
8.18039E-01 8.21527E-26
8.21394E-01 8.00375E-26
8.24724E-01 7.79668E-26
8.28030E-01 7.59398E-26
8.31310E-01 7.39553E-26
8.34565E-01 7.20126E-26
8.37795E-01 7.01108E-26
8.40999E-01 6.82489E-26
8.44177E-01 6.64262E-26
8.47329E-01 6.46419E-26
8.50455E-01 6.28950E-26
8.53553E-01 6.11849E-26
8.56625E-01 5.95108E-26
8.59670E-01 5.78719E-26
8.62687E-01 5.62676E-26
8.65677E-01 5.46971E-26
8.68639E-01 5.31597E-26
8.71572E-01 5.16549E-26
8.74478E-01 5.01819E-26
8.77355E-01 4.87401E-26
8.80203E-01 4.73289E-26
8.83022E-01 4.59477E-26
8.85812E-01 4.45959E-26
8.88573E-01 4.32730E-26
8.91304E-01 4.19784E-26
8.94005E-01 4.07115E-26
8.96677E-01 3.94719E-26
8.99318E-01 3.82590E-26
9.01928E-01 3.70724E-26
9.04508E-01 3.59115E-26
9.07058E-01 3.47759E-26
9.09576E-01 3.36651E-26
9.12063E-01 3.25787E-26
9.14519E-01 3.15162E-26
9.16943E-01 3.04773E-26
9.19335E-01 2.94614E-26
9.21696E-01 2.84683E-26
9.24024E-01 2.74975E-26
9.26320E-01 2.65486E-26
9.28584E-01 2.56213E-26
9.30815E-01 2.47151E-26
9.33013E-01 2.38299E-26
9.35178E-01 2.29651E-26
9.37310E-01 2.21205E-26
9.39409E-01 2.12958E-26
9.41474E-01 2.04906E-26
9.43505E-01 1.97047E-26
9.45503E-01 1.89377E-26
9.47467E-01 1.81894E-26
9.49397E-01 1.74594E-26
9.51293E-01 1.67475E-26
9.53154E-01 1.60534E-26
9.54981E-01 1.53770E-26
9.56773E-01 1.47178E-26
9.58530E-01 1.40757E-26
9.60252E-01 1.34505E-26
9.61940E-01 1.28419E-26
9.63592E-01 1.22497E-26
9.65209E-01 1.16737E-26
9.66790E-01 1.11136E-26
9.68336E-01 1.05693E-26
9.69846E-01 1.00405E-26
9.71321E-01 9.52719E-27
9.72759E-01 9.02904E-27
9.74162E-01 8.54589E-27
9.75528E-01 8.07760E-27
9.76858E-01 7.62398E-27
9.78152E-01 7.18488E-27
9.79410E-01 6.76014E-27
9.80631E-01 6.34961E-27
9.81815E-01 5.95315E-27
9.82963E-01 5.57061E-27
9.84074E-01 5.20187E-27
9.85148E-01 4.84679E-27
9.86185E-01 4.50526E-27
9.87185E-01 4.17715E-27
9.88148E-01 3.86234E-27
9.89074E-01 3.56073E-27
9.89962E-01 3.27222E-27
9.90814E-01 2.99669E-27
9.91627E-01 2.73407E-27
9.92404E-01 2.48426E-27
9.93143E-01 2.24717E-27
9.93844E-01 2.02271E-27
9.94508E-01 1.81083E-27
9.95134E-01 1.61143E-27
9.95722E-01 1.42446E-27
9.96273E-01 1.24984E-27
9.96786E-01 1.08753E-27
9.97261E-01 9.37453E-28
9.97698E-01 7.99574E-28
9.98097E-01 6.73841E-28
9.98459E-01 5.60210E-28
9.98782E-01 4.58644E-28
9.99067E-01 3.69108E-28
9.99315E-01 2.91571E-28
9.99524E-01 2.26008E-28
9.99695E-01 1.72395E-28
9.99829E-01 1.30715E-28
9.99924E-01 1.00954E-28
9.99981E-01 8.31011E-29
1.00000E+00 7.71509E-29
