 #
 # Subroutine ELSEPA. Elastic scattering of electrons and positrons
 #                    by neutral atoms and positive ions
 #
 # Projectile: electron
 # Kinetic energy = 3.50000E+08 eV = 1.28623E+07 a.u.
 #
 # WARNING: High-energy factorization with free-atom DF screening.
 #          Absorption, polarization and exchange corrections are
 #          switched off.
 #          Phase shifts are calculated for the bare nucleus.
 #          Scattering amplitudes are not evaluated.
 #
 # Element: At,  Z =  85,  atomic weight = 2.09987E+02 g/mol
 #
 # Nuclear model: Fermi distribution
 #                Average radius = 6.35987E-13 cm
 #                Skin thickness = 5.46000E-14 cm
 #
 # Number of electrons = 85
 #
 # Total elastic cross section = 9.37513E-18 cm**2 = 3.34792E-01 a0**2
 # 1st transport cross section = 1.10389E-25 cm**2 = 3.94208E-09 a0**2
 # 2nd transport cross section = 3.30908E-25 cm**2 = 1.18169E-08 a0**2
 #
 #
 # Differential cross section:                       MU=(1-COS(THETA))/2
 #
 #  THETA        MU          DCS          DCS        Sherman      error
 #  (deg)                 (cm**2/sr)   (a0**2/sr)    function
 #----------------------------------------------------------------------
0.00000E+00 7.97493E-09
7.61557E-13 7.79346E-09
1.18994E-12 7.69434E-09
1.71346E-12 7.57588E-09
2.33225E-12 7.43858E-09
3.04617E-12 7.28656E-09
3.85530E-12 7.11908E-09
4.75964E-12 6.93905E-09
5.75917E-12 6.75023E-09
6.85391E-12 6.54976E-09
8.04379E-12 6.34386E-09
9.32893E-12 6.13420E-09
1.07092E-11 5.91820E-09
1.21847E-11 5.70265E-09
1.37554E-11 5.48665E-09
1.54213E-11 5.27008E-09
1.71823E-11 5.05797E-09
1.90386E-11 4.84748E-09
2.09900E-11 4.64105E-09
2.30367E-11 4.44149E-09
2.51785E-11 4.24473E-09
2.74156E-11 4.05513E-09
2.97478E-11 3.87311E-09
3.21752E-11 3.69521E-09
3.46979E-11 3.52571E-09
3.73157E-11 3.36321E-09
4.00286E-11 3.20649E-09
4.28368E-11 3.05789E-09
4.57402E-11 2.91547E-09
4.87388E-11 2.77952E-09
5.18325E-11 2.65101E-09
5.50215E-11 2.52779E-09
5.83057E-11 2.41107E-09
6.16850E-11 2.30089E-09
6.51595E-11 2.19522E-09
6.87293E-11 2.09564E-09
7.23943E-11 2.00138E-09
7.61544E-11 1.91151E-09
1.18991E-10 1.23769E-09
1.71347E-10 8.37741E-10
2.33223E-10 5.83664E-10
3.04617E-10 4.27213E-10
3.85531E-10 3.17195E-10
4.75965E-10 2.40921E-10
5.75917E-10 1.87152E-10
6.85389E-10 1.46279E-10
8.04380E-10 1.16492E-10
9.32891E-10 9.40764E-11
1.07092E-09 7.65996E-11
1.21847E-09 6.32232E-11
1.37554E-09 5.26717E-11
1.54213E-09 4.42189E-11
1.71823E-09 3.74780E-11
1.90386E-09 3.19463E-11
2.09900E-09 2.74013E-11
2.30367E-09 2.36636E-11
2.51785E-09 2.05014E-11
2.74156E-09 1.78570E-11
2.97478E-09 1.56297E-11
3.21752E-09 1.37134E-11
3.46978E-09 1.20878E-11
3.73156E-09 1.06920E-11
4.00286E-09 9.48364E-12
4.28368E-09 8.44507E-12
4.57402E-09 7.54328E-12
4.87388E-09 6.75339E-12
5.18326E-09 6.06448E-12
5.50215E-09 5.45950E-12
5.83057E-09 4.92970E-12
6.16850E-09 4.46447E-12
6.51596E-09 4.05228E-12
6.87293E-09 3.68813E-12
7.23942E-09 3.36481E-12
7.61544E-09 3.07596E-12
1.18991E-08 1.38676E-12
1.71347E-08 7.17281E-13
2.33223E-08 4.07629E-13
3.04617E-08 2.48803E-13
3.85531E-08 1.60446E-13
4.75965E-08 1.08110E-13
5.75917E-08 7.54214E-14
6.85389E-08 5.42028E-14
8.04380E-08 3.99305E-14
9.32891E-08 3.00571E-14
1.07092E-07 2.30564E-14
1.21847E-07 1.79792E-14
1.37554E-07 1.42287E-14
1.54213E-07 1.14079E-14
1.71823E-07 9.25388E-15
1.90386E-07 7.58600E-15
2.09900E-07 6.27751E-15
2.30367E-07 5.23976E-15
2.51785E-07 4.40777E-15
2.74156E-07 3.73453E-15
2.97478E-07 3.18503E-15
3.21752E-07 2.73280E-15
3.46978E-07 2.35804E-15
3.73156E-07 2.04525E-15
4.00286E-07 1.78258E-15
4.28368E-07 1.56071E-15
4.57402E-07 1.37224E-15
4.87388E-07 1.21136E-15
5.18325E-07 1.07334E-15
5.50215E-07 9.54404E-16
5.83057E-07 8.51483E-16
6.16850E-07 7.62047E-16
6.51596E-07 6.84047E-16
6.87293E-07 6.15765E-16
7.23942E-07 5.55790E-16
7.61543E-07 5.02939E-16
1.18991E-06 2.08167E-16
1.71347E-06 1.01109E-16
2.33223E-06 5.48668E-17
3.04617E-06 3.22941E-17
3.85531E-06 2.02264E-17
4.75964E-06 1.33050E-17
5.75916E-06 9.10673E-18
6.85388E-06 6.44121E-18
8.04378E-06 4.68332E-18
9.32888E-06 3.48622E-18
1.07092E-05 2.64829E-18
1.21846E-05 2.04764E-18
1.37553E-05 1.60802E-18
1.54212E-05 1.28030E-18
1.71822E-05 1.03197E-18
1.90385E-05 8.40497E-19
2.09899E-05 6.92388E-19
2.30365E-05 5.75397E-19
2.51783E-05 4.81947E-19
2.74153E-05 4.06601E-19
2.97475E-05 3.45366E-19
3.21749E-05 2.95235E-19
3.46974E-05 2.53908E-19
3.73152E-05 2.19600E-19
4.00281E-05 1.90922E-19
4.28362E-05 1.66788E-19
4.57395E-05 1.46350E-19
4.87380E-05 1.28942E-19
5.18317E-05 1.14040E-19
5.50205E-05 1.01225E-19
5.83045E-05 9.01590E-20
6.16838E-05 8.05659E-20
6.51582E-05 7.22186E-20
6.87277E-05 6.49275E-20
7.23925E-05 5.85359E-20
7.61524E-05 5.33757E-20
9.21439E-05 3.65636E-20
1.09658E-04 2.58917E-20
1.28695E-04 1.88540E-20
1.49255E-04 1.40584E-20
1.71338E-04 1.06989E-20
1.94942E-04 8.28817E-21
2.20070E-04 6.52183E-21
2.46720E-04 5.20245E-21
2.74892E-04 4.20093E-21
3.04586E-04 3.42951E-21
3.35803E-04 2.82749E-21
3.68542E-04 2.35199E-21
4.02802E-04 1.97233E-21
4.38585E-04 1.66619E-21
4.75889E-04 1.41707E-21
5.14715E-04 1.21269E-21
5.55063E-04 1.04370E-21
5.96931E-04 9.03000E-22
6.40321E-04 7.85072E-22
6.85233E-04 6.85629E-22
7.31665E-04 6.01302E-22
7.79618E-04 5.29407E-22
8.29092E-04 4.67815E-22
8.80086E-04 4.14799E-22
9.32601E-04 3.68969E-22
9.86636E-04 3.29188E-22
1.04219E-03 2.94524E-22
1.09927E-03 2.64211E-22
1.15786E-03 2.37610E-22
1.21797E-03 2.14191E-22
1.27961E-03 1.93511E-22
1.34276E-03 1.75196E-22
1.40743E-03 1.58931E-22
1.47362E-03 1.44448E-22
1.54133E-03 1.31521E-22
1.61056E-03 1.19954E-22
1.68131E-03 1.09582E-22
1.75357E-03 1.00260E-22
1.82735E-03 9.18659E-23
1.90265E-03 8.42917E-23
1.97947E-03 7.74446E-23
2.05780E-03 7.12440E-23
2.13765E-03 6.56190E-23
2.21902E-03 6.05079E-23
2.30190E-03 5.58565E-23
2.38630E-03 5.16170E-23
2.47222E-03 4.77474E-23
2.55965E-03 4.42104E-23
2.64859E-03 4.09733E-23
2.73905E-03 3.80068E-23
2.83103E-03 3.52849E-23
2.92452E-03 3.27846E-23
3.01952E-03 3.04852E-23
3.11604E-03 2.83682E-23
3.21407E-03 2.64171E-23
3.31362E-03 2.46171E-23
3.41468E-03 2.29549E-23
3.51725E-03 2.14185E-23
3.62133E-03 1.99971E-23
3.72692E-03 1.86809E-23
3.83403E-03 1.74611E-23
3.94265E-03 1.63298E-23
4.05278E-03 1.52797E-23
4.16442E-03 1.43042E-23
4.27757E-03 1.33974E-23
4.39223E-03 1.25539E-23
4.50840E-03 1.17686E-23
4.62608E-03 1.10372E-23
4.74527E-03 1.03555E-23
4.86597E-03 9.71965E-24
4.98817E-03 9.12631E-24
5.11188E-03 8.57230E-24
5.23711E-03 8.05472E-24
5.36383E-03 7.57092E-24
5.49207E-03 7.11847E-24
5.62181E-03 6.69513E-24
5.75306E-03 6.29883E-24
5.88581E-03 5.92768E-24
6.02007E-03 5.57992E-24
6.15583E-03 5.25395E-24
6.29310E-03 4.94826E-24
6.43187E-03 4.66148E-24
6.57214E-03 4.39235E-24
6.71392E-03 4.13967E-24
6.85720E-03 3.90235E-24
7.00198E-03 3.67940E-24
7.14827E-03 3.46985E-24
7.29605E-03 3.27286E-24
7.44534E-03 3.08759E-24
7.59612E-03 2.91332E-24
7.97965E-03 2.52121E-24
8.37255E-03 2.18387E-24
8.77480E-03 1.89318E-24
9.18641E-03 1.64236E-24
9.60736E-03 1.42565E-24
1.00376E-02 1.23821E-24
1.04773E-02 1.07592E-24
1.09262E-02 9.35273E-25
1.13844E-02 8.13294E-25
1.18520E-02 7.07430E-25
1.23288E-02 6.15496E-25
1.28150E-02 5.35620E-25
1.33104E-02 4.66190E-25
1.38150E-02 4.05819E-25
1.43290E-02 3.53313E-25
1.48521E-02 3.07636E-25
1.53845E-02 2.67895E-25
1.59262E-02 2.33318E-25
1.64770E-02 2.03231E-25
1.70371E-02 1.77053E-25
1.76063E-02 1.54278E-25
1.81848E-02 1.34466E-25
1.87724E-02 1.17234E-25
1.93692E-02 1.02249E-25
1.99751E-02 8.92207E-26
2.05901E-02 7.78957E-26
2.12143E-02 6.80536E-26
2.18476E-02 5.95023E-26
2.24900E-02 5.20738E-26
2.31415E-02 4.56219E-26
2.38021E-02 4.00190E-26
2.44717E-02 3.51537E-26
2.51504E-02 3.09291E-26
2.58382E-02 2.72605E-26
2.65349E-02 2.40741E-26
2.72407E-02 2.13059E-26
2.79555E-02 1.88997E-26
2.86793E-02 1.68071E-26
2.94120E-02 1.49856E-26
3.01537E-02 1.33986E-26
3.09043E-02 1.20140E-26
3.16639E-02 1.08044E-26
3.24324E-02 9.74554E-27
3.32098E-02 8.81683E-27
3.39961E-02 8.00030E-27
3.47912E-02 7.28045E-27
3.55952E-02 6.64394E-27
3.64081E-02 6.07926E-27
3.72297E-02 5.57653E-27
3.80602E-02 5.12727E-27
3.88995E-02 4.72419E-27
3.97476E-02 4.36106E-27
4.06044E-02 4.03257E-27
4.14700E-02 3.73418E-27
4.23443E-02 3.46202E-27
4.32273E-02 3.21279E-27
4.41190E-02 2.98371E-27
4.50194E-02 2.77239E-27
4.59284E-02 2.57684E-27
4.68461E-02 2.39533E-27
4.87074E-02 2.06891E-27
5.06030E-02 1.78400E-27
5.25328E-02 1.53397E-27
5.44967E-02 1.31396E-27
5.64946E-02 1.12029E-27
5.85262E-02 9.50077E-28
6.05914E-02 8.00982E-28
6.26901E-02 6.70999E-28
6.48222E-02 5.58338E-28
6.69873E-02 4.61355E-28
6.91854E-02 3.78505E-28
7.14163E-02 3.08318E-28
7.36799E-02 2.49397E-28
7.59760E-02 2.00411E-28
7.83043E-02 1.60105E-28
8.06647E-02 1.27306E-28
8.30571E-02 1.00928E-28
8.54812E-02 7.99762E-29
8.79369E-02 6.35539E-29
9.04240E-02 5.08598E-29
9.29422E-02 4.11888E-29
9.54915E-02 3.39287E-29
9.80716E-02 2.85554E-29
1.00682E-01 2.46275E-29
1.03323E-01 2.17787E-29
1.05995E-01 1.97114E-29
1.08696E-01 1.81881E-29
1.11427E-01 1.70240E-29
1.14188E-01 1.60796E-29
1.16978E-01 1.52529E-29
1.19797E-01 1.44735E-29
1.22645E-01 1.36959E-29
1.25522E-01 1.28942E-29
1.28428E-01 1.20575E-29
1.31361E-01 1.11858E-29
1.34323E-01 1.02862E-29
1.37313E-01 9.37077E-30
1.40330E-01 8.45363E-30
1.43375E-01 7.54968E-30
1.46447E-01 6.67315E-30
1.49545E-01 5.83673E-30
1.52671E-01 5.05105E-30
1.55823E-01 4.32432E-30
1.59001E-01 3.66230E-30
1.62205E-01 3.06830E-30
1.65435E-01 2.54343E-30
1.68690E-01 2.08683E-30
1.71970E-01 1.69599E-30
1.75276E-01 1.36707E-30
1.78606E-01 1.09522E-30
1.81961E-01 8.74942E-31
1.85340E-01 7.00314E-31
1.88743E-01 5.65284E-31
1.92169E-01 4.63870E-31
1.95619E-01 3.90334E-31
1.99092E-01 3.39319E-31
2.02589E-01 3.05944E-31
2.06107E-01 2.85868E-31
2.09649E-01 2.75322E-31
2.13212E-01 2.71118E-31
2.16797E-01 2.70630E-31
2.20404E-01 2.71771E-31
2.24032E-01 2.72944E-31
2.27680E-01 2.72991E-31
2.31350E-01 2.71141E-31
2.35040E-01 2.66948E-31
2.38751E-01 2.60234E-31
2.42481E-01 2.51033E-31
2.46231E-01 2.39543E-31
2.50000E-01 2.26074E-31
2.53788E-01 2.11010E-31
2.57595E-01 1.94776E-31
2.61421E-01 1.77804E-31
2.65264E-01 1.60515E-31
2.69126E-01 1.43300E-31
2.73005E-01 1.26503E-31
2.76901E-01 1.10421E-31
2.80814E-01 9.52918E-32
2.84744E-01 8.12992E-32
2.88691E-01 6.85704E-32
2.92653E-01 5.71811E-32
2.96632E-01 4.71605E-32
3.00625E-01 3.84968E-32
3.04634E-01 3.11441E-32
3.08658E-01 2.50288E-32
3.12697E-01 2.00563E-32
3.16749E-01 1.61172E-32
3.20816E-01 1.30929E-32
3.24896E-01 1.08607E-32
3.28990E-01 9.29837E-33
3.33097E-01 8.28739E-33
3.37216E-01 7.71616E-33
3.41348E-01 7.48199E-33
3.45492E-01 7.49273E-33
3.49647E-01 7.66760E-33
3.53814E-01 7.93766E-33
3.57992E-01 8.24571E-33
3.62181E-01 8.54590E-33
3.66381E-01 8.80305E-33
3.70590E-01 8.99171E-33
3.74810E-01 9.09514E-33
3.79039E-01 9.10411E-33
3.83277E-01 9.01580E-33
3.87524E-01 8.83259E-33
3.91780E-01 8.56096E-33
3.96044E-01 8.21043E-33
4.00316E-01 7.79264E-33
4.04596E-01 7.32050E-33
4.08882E-01 6.80745E-33
4.13176E-01 6.26687E-33
4.17476E-01 5.71158E-33
4.21783E-01 5.15347E-33
4.26095E-01 4.60319E-33
4.30413E-01 4.07002E-33
4.34737E-01 3.56170E-33
4.39065E-01 3.08445E-33
4.43398E-01 2.64295E-33
4.47736E-01 2.24045E-33
4.52077E-01 1.87886E-33
4.56422E-01 1.55888E-33
4.60770E-01 1.28015E-33
4.65122E-01 1.04143E-33
4.69476E-01 8.40724E-34
4.73832E-01 6.75481E-34
4.78190E-01 5.42719E-34
4.82550E-01 4.39175E-34
4.86912E-01 3.61428E-34
4.91274E-01 3.06014E-34
4.95637E-01 2.69515E-34
5.00000E-01 2.48645E-34
5.04363E-01 2.40306E-34
5.08726E-01 2.41641E-34
5.13088E-01 2.50063E-34
5.17450E-01 2.63280E-34
5.21810E-01 2.79303E-34
5.26168E-01 2.96445E-34
5.30524E-01 3.13317E-34
5.34878E-01 3.28807E-34
5.39230E-01 3.42067E-34
5.43578E-01 3.52488E-34
5.47923E-01 3.59671E-34
5.52264E-01 3.63407E-34
5.56602E-01 3.63643E-34
5.60935E-01 3.60459E-34
5.65263E-01 3.54042E-34
5.69587E-01 3.44661E-34
5.73905E-01 3.32645E-34
5.78217E-01 3.18363E-34
5.82524E-01 3.02208E-34
5.86824E-01 2.84578E-34
5.91118E-01 2.65868E-34
5.95404E-01 2.46455E-34
5.99684E-01 2.26694E-34
6.03956E-01 2.06908E-34
6.08220E-01 1.87387E-34
6.12476E-01 1.68382E-34
6.16723E-01 1.50107E-34
6.20961E-01 1.32737E-34
6.25190E-01 1.16409E-34
6.29410E-01 1.01227E-34
6.33619E-01 8.72574E-35
6.37819E-01 7.45404E-35
6.42008E-01 6.30875E-35
6.46186E-01 5.28866E-35
6.50353E-01 4.39061E-35
6.54508E-01 3.60973E-35
6.58652E-01 2.93978E-35
6.62784E-01 2.37356E-35
6.66903E-01 1.90306E-35
6.71010E-01 1.51982E-35
6.75104E-01 1.21513E-35
6.79184E-01 9.80209E-36
6.83251E-01 8.06429E-36
6.87303E-01 6.85422E-36
6.91342E-01 6.09209E-36
6.95366E-01 5.70291E-36
6.99375E-01 5.61718E-36
7.03368E-01 5.77135E-36
7.07347E-01 6.10807E-36
7.11309E-01 6.57632E-36
7.15256E-01 7.13132E-36
7.19186E-01 7.73447E-36
7.23099E-01 8.35298E-36
7.26995E-01 8.95964E-36
7.30874E-01 9.53235E-36
7.34736E-01 1.00538E-35
7.38579E-01 1.05108E-35
7.42405E-01 1.08943E-35
7.46212E-01 1.11981E-35
7.50000E-01 1.14195E-35
7.53769E-01 1.15578E-35
7.57519E-01 1.16147E-35
7.61249E-01 1.15932E-35
7.64960E-01 1.14980E-35
7.68650E-01 1.13347E-35
7.72320E-01 1.11096E-35
7.75968E-01 1.08293E-35
7.79596E-01 1.05011E-35
7.83203E-01 1.01319E-35
7.86788E-01 9.72888E-36
7.90351E-01 9.29873E-36
7.93893E-01 8.84806E-36
7.97411E-01 8.38296E-36
8.00908E-01 7.90907E-36
8.04381E-01 7.43154E-36
8.07831E-01 6.95502E-36
8.11257E-01 6.48372E-36
8.14660E-01 6.02117E-36
8.18039E-01 5.57051E-36
8.21394E-01 5.13431E-36
8.24724E-01 4.71471E-36
8.28030E-01 4.31345E-36
8.31310E-01 3.93179E-36
8.34565E-01 3.57067E-36
8.37795E-01 3.23067E-36
8.40999E-01 2.91208E-36
8.44177E-01 2.61495E-36
8.47329E-01 2.33909E-36
8.50455E-01 2.08411E-36
8.53553E-01 1.84940E-36
8.56625E-01 1.63436E-36
8.59670E-01 1.43815E-36
8.62687E-01 1.25990E-36
8.65677E-01 1.09867E-36
8.68639E-01 9.53507E-37
8.71572E-01 8.23372E-37
8.74478E-01 7.07274E-37
8.77355E-01 6.04200E-37
8.80203E-01 5.13169E-37
8.83022E-01 4.33191E-37
8.85812E-01 3.63348E-37
8.88573E-01 3.02720E-37
8.91304E-01 2.50462E-37
8.94005E-01 2.05744E-37
8.96677E-01 1.67808E-37
8.99318E-01 1.35928E-37
9.01928E-01 1.09431E-37
9.04508E-01 8.76957E-38
9.07058E-01 7.01423E-38
9.09576E-01 5.62463E-38
9.12063E-01 4.55209E-38
9.14519E-01 3.75256E-38
9.16943E-01 3.18599E-38
9.19335E-01 2.81649E-38
9.21696E-01 2.61168E-38
9.24024E-01 2.54263E-38
9.26320E-01 2.58378E-38
9.28584E-01 2.71220E-38
9.30815E-01 2.90833E-38
9.33013E-01 3.15441E-38
9.35178E-01 3.43564E-38
9.37310E-01 3.73912E-38
9.39409E-01 4.05299E-38
9.41474E-01 4.36842E-38
9.43505E-01 4.67768E-38
9.45503E-01 4.97477E-38
9.47467E-01 5.25330E-38
9.49397E-01 5.51006E-38
9.51293E-01 5.74146E-38
9.53154E-01 5.94558E-38
9.54981E-01 6.12004E-38
9.56773E-01 6.26505E-38
9.58530E-01 6.37902E-38
9.60252E-01 6.46286E-38
9.61940E-01 6.51587E-38
9.63592E-01 6.54027E-38
9.65209E-01 6.53650E-38
9.66790E-01 6.50567E-38
9.68336E-01 6.44914E-38
9.69846E-01 6.36928E-38
9.71321E-01 6.26645E-38
9.72759E-01 6.14350E-38
9.74162E-01 6.00082E-38
9.75528E-01 5.84244E-38
9.76858E-01 5.66853E-38
9.78152E-01 5.48112E-38
9.79410E-01 5.28226E-38
9.80631E-01 5.07371E-38
9.81815E-01 4.85729E-38
9.82963E-01 4.63409E-38
9.84074E-01 4.40589E-38
9.85148E-01 4.17397E-38
9.86185E-01 3.93974E-38
9.87185E-01 3.70477E-38
9.88148E-01 3.47009E-38
9.89074E-01 3.23634E-38
9.89962E-01 3.00658E-38
9.90814E-01 2.77976E-38
9.91627E-01 2.55684E-38
9.92404E-01 2.34019E-38
9.93143E-01 2.12942E-38
9.93844E-01 1.92592E-38
9.94508E-01 1.72971E-38
9.95134E-01 1.54225E-38
9.95722E-01 1.36333E-38
9.96273E-01 1.19409E-38
9.96786E-01 1.03478E-38
9.97261E-01 8.85801E-39
9.97698E-01 7.47201E-39
9.98097E-01 6.19654E-39
9.98459E-01 5.03639E-39
9.98782E-01 3.98924E-39
9.99067E-01 3.06481E-39
9.99315E-01 2.25767E-39
9.99524E-01 1.57181E-39
9.99695E-01 1.00957E-39
9.99829E-01 5.71348E-40
9.99924E-01 2.57465E-40
9.99981E-01 6.95052E-41
1.00000E+00 6.32423E-42
