 #
 # Subroutine ELSEPA. Elastic scattering of electrons and positrons
 #                    by neutral atoms and positive ions
 #
 # Projectile: electron
 # Kinetic energy = 1.25000E+08 eV = 4.59367E+06 a.u.
 #
 # WARNING: High-energy factorization with free-atom DF screening.
 #          Absorption, polarization and exchange corrections are
 #          switched off.
 #          Phase shifts are calculated for the bare nucleus.
 #          Scattering amplitudes are not evaluated.
 #
 # Element: At,  Z =  85,  atomic weight = 2.09987E+02 g/mol
 #
 # Nuclear model: Fermi distribution
 #                Average radius = 6.35987E-13 cm
 #                Skin thickness = 5.46000E-14 cm
 #
 # Number of electrons = 85
 #
 # Total elastic cross section = 9.37560E-18 cm**2 = 3.34809E-01 a0**2
 # 1st transport cross section = 8.68038E-25 cm**2 = 3.09982E-08 a0**2
 # 2nd transport cross section = 2.58982E-24 cm**2 = 9.24841E-08 a0**2
 #
 #
 # Differential cross section:                       MU=(1-COS(THETA))/2
 #
 #  THETA        MU          DCS          DCS        Sherman      error
 #  (deg)                 (cm**2/sr)   (a0**2/sr)    function
 #----------------------------------------------------------------------
0.00000E+00 1.02256E-09
7.61557E-13 1.01951E-09
1.18994E-12 1.01782E-09
1.71346E-12 1.01575E-09
2.33225E-12 1.01331E-09
3.04617E-12 1.01051E-09
3.85530E-12 1.00735E-09
4.75964E-12 1.00384E-09
5.75917E-12 9.99983E-10
6.85391E-12 9.95785E-10
8.04379E-12 9.91254E-10
9.32893E-12 9.86398E-10
1.07092E-11 9.81223E-10
1.21847E-11 9.75738E-10
1.37554E-11 9.69954E-10
1.54213E-11 9.63829E-10
1.71823E-11 9.57407E-10
1.90386E-11 9.50763E-10
2.09900E-11 9.43913E-10
2.30367E-11 9.36834E-10
2.51785E-11 9.29341E-10
2.74156E-11 9.21684E-10
2.97478E-11 9.13879E-10
3.21752E-11 9.05943E-10
3.46979E-11 8.97620E-10
3.73157E-11 8.89112E-10
4.00286E-11 8.80517E-10
4.28368E-11 8.71849E-10
4.57402E-11 8.62957E-10
4.87388E-11 8.53770E-10
5.18325E-11 8.44552E-10
5.50215E-11 8.35318E-10
5.83057E-11 8.26069E-10
6.16850E-11 8.16374E-10
6.51595E-11 8.06703E-10
6.87293E-11 7.97066E-10
7.23943E-11 7.87474E-10
7.61544E-11 7.77613E-10
1.18991E-10 6.78390E-10
1.71347E-10 5.82553E-10
2.33223E-10 4.95127E-10
3.04617E-10 4.18145E-10
3.85531E-10 3.52569E-10
4.75965E-10 2.97665E-10
5.75917E-10 2.52074E-10
6.85389E-10 2.14439E-10
8.04380E-10 1.83443E-10
9.32891E-10 1.57851E-10
1.07092E-09 1.36592E-10
1.21847E-09 1.18882E-10
1.37554E-09 1.04034E-10
1.54213E-09 9.10697E-11
1.71823E-09 8.00318E-11
1.90386E-09 7.09624E-11
2.09900E-09 6.34431E-11
2.30367E-09 5.70148E-11
2.51785E-09 5.08311E-11
2.74156E-09 4.56257E-11
2.97478E-09 4.12126E-11
3.21752E-09 3.74461E-11
3.46978E-09 3.38570E-11
3.73156E-09 3.06755E-11
4.00286E-09 2.79299E-11
4.28368E-09 2.55478E-11
4.57402E-09 2.33787E-11
4.87388E-09 2.13537E-11
5.18326E-09 1.95804E-11
5.50215E-09 1.80209E-11
5.83057E-09 1.66408E-11
6.16850E-09 1.53118E-11
6.51596E-09 1.41334E-11
6.87293E-09 1.30850E-11
7.23942E-09 1.21491E-11
7.61544E-09 1.12733E-11
1.18991E-08 5.76397E-12
1.71347E-08 3.26961E-12
2.33223E-08 1.98716E-12
3.04617E-08 1.26833E-12
3.85531E-08 8.44863E-13
4.75965E-08 5.83369E-13
5.75917E-08 4.16606E-13
6.85389E-08 3.05881E-13
8.04380E-08 2.29828E-13
9.32891E-08 1.76181E-13
1.07092E-07 1.37417E-13
1.21847E-07 1.08803E-13
1.37554E-07 8.72726E-14
1.54213E-07 7.07642E-14
1.71823E-07 5.80531E-14
1.90386E-07 4.80495E-14
2.09900E-07 4.01561E-14
2.30367E-07 3.37816E-14
2.51785E-07 2.86504E-14
2.74156E-07 2.44494E-14
2.97478E-07 2.09955E-14
3.21752E-07 1.81332E-14
3.46978E-07 1.57375E-14
3.73156E-07 1.37313E-14
4.00286E-07 1.20271E-14
4.28368E-07 1.05833E-14
4.57402E-07 9.34729E-15
4.87388E-07 8.28679E-15
5.18325E-07 7.37266E-15
5.50215E-07 6.57978E-15
5.83057E-07 5.89200E-15
6.16850E-07 5.28992E-15
6.51596E-07 4.76374E-15
6.87293E-07 4.30087E-15
7.23942E-07 3.89298E-15
7.61543E-07 3.53245E-15
1.18991E-06 1.49421E-15
1.71347E-06 7.37186E-16
2.33223E-06 4.04581E-16
3.04617E-06 2.40055E-16
3.85531E-06 1.51227E-16
4.75964E-06 9.99123E-17
5.75916E-06 6.86196E-17
6.85388E-06 4.86705E-17
8.04378E-06 3.54722E-17
9.32888E-06 2.64605E-17
1.07092E-05 2.01382E-17
1.21846E-05 1.55971E-17
1.37553E-05 1.22674E-17
1.54212E-05 9.78108E-18
1.71822E-05 7.89423E-18
1.90385E-05 6.43726E-18
2.09899E-05 5.30879E-18
2.30365E-05 4.41630E-18
2.51783E-05 3.70255E-18
2.74153E-05 3.12646E-18
2.97475E-05 2.65775E-18
3.21749E-05 2.27368E-18
3.46974E-05 1.95677E-18
3.73152E-05 1.69347E-18
4.00281E-05 1.47321E-18
4.28362E-05 1.28770E-18
4.57395E-05 1.13050E-18
4.87380E-05 9.96514E-19
5.18317E-05 8.81744E-19
5.50205E-05 7.82991E-19
5.83045E-05 6.97669E-19
6.16838E-05 6.23669E-19
6.51582E-05 5.59245E-19
6.87277E-05 5.02949E-19
7.23925E-05 4.53575E-19
7.61524E-05 4.10132E-19
9.21439E-05 2.80727E-19
1.09658E-04 1.98591E-19
1.28695E-04 1.44448E-19
1.49255E-04 1.07578E-19
1.71338E-04 8.17713E-20
1.94942E-04 6.32711E-20
2.20070E-04 4.97281E-20
2.46720E-04 3.96293E-20
2.74892E-04 3.19747E-20
3.04586E-04 2.60863E-20
3.35803E-04 2.14970E-20
3.68542E-04 1.78768E-20
4.02802E-04 1.49900E-20
4.38585E-04 1.26652E-20
4.75889E-04 1.07755E-20
5.14715E-04 9.22703E-21
5.55063E-04 7.94800E-21
5.96931E-04 6.88408E-21
6.40321E-04 5.99314E-21
6.85233E-04 5.24246E-21
7.31665E-04 4.60631E-21
7.79618E-04 4.06424E-21
8.29092E-04 3.60005E-21
8.80086E-04 3.20060E-21
9.32601E-04 2.85536E-21
9.86636E-04 2.55569E-21
1.04219E-03 2.29454E-21
1.09927E-03 2.06611E-21
1.15786E-03 1.86556E-21
1.21797E-03 1.68891E-21
1.27961E-03 1.53281E-21
1.34276E-03 1.39443E-21
1.40743E-03 1.27142E-21
1.47362E-03 1.16176E-21
1.54133E-03 1.06375E-21
1.61056E-03 9.75921E-22
1.68131E-03 8.97041E-22
1.75357E-03 8.26040E-22
1.82735E-03 7.61900E-22
1.90265E-03 7.03900E-22
1.97947E-03 6.51341E-22
2.05780E-03 6.03622E-22
2.13765E-03 5.60214E-22
2.21902E-03 5.20655E-22
2.30190E-03 4.84542E-22
2.38630E-03 4.51518E-22
2.47222E-03 4.21271E-22
2.55965E-03 3.93522E-22
2.64859E-03 3.68029E-22
2.73905E-03 3.44572E-22
2.83103E-03 3.22958E-22
2.92452E-03 3.03017E-22
3.01952E-03 2.84594E-22
3.11604E-03 2.67551E-22
3.21407E-03 2.51766E-22
3.31362E-03 2.37129E-22
3.41468E-03 2.23540E-22
3.51725E-03 2.10910E-22
3.62133E-03 1.99159E-22
3.72692E-03 1.88213E-22
3.83403E-03 1.78008E-22
3.94265E-03 1.68483E-22
4.05278E-03 1.59585E-22
4.16442E-03 1.51265E-22
4.27757E-03 1.43478E-22
4.39223E-03 1.36182E-22
4.50840E-03 1.29343E-22
4.62608E-03 1.22924E-22
4.74527E-03 1.16897E-22
4.86597E-03 1.11231E-22
4.98817E-03 1.05902E-22
5.11188E-03 1.00886E-22
5.23711E-03 9.61604E-23
5.36383E-03 9.17056E-23
5.49207E-03 8.75030E-23
5.62181E-03 8.35358E-23
5.75306E-03 7.97881E-23
5.88581E-03 7.62456E-23
6.02007E-03 7.28949E-23
6.15583E-03 6.97236E-23
6.29310E-03 6.67204E-23
6.43187E-03 6.38745E-23
6.57214E-03 6.11763E-23
6.71392E-03 5.86166E-23
6.85720E-03 5.61870E-23
7.00198E-03 5.38796E-23
7.14827E-03 5.16871E-23
7.29605E-03 4.96027E-23
7.44534E-03 4.76201E-23
7.59612E-03 4.57334E-23
7.97965E-03 4.14008E-23
8.37255E-03 3.75575E-23
8.77480E-03 3.41388E-23
9.18641E-03 3.10899E-23
9.60736E-03 2.83639E-23
1.00376E-02 2.59208E-23
1.04773E-02 2.37264E-23
1.09262E-02 2.17510E-23
1.13844E-02 1.99692E-23
1.18520E-02 1.83588E-23
1.23288E-02 1.69006E-23
1.28150E-02 1.55779E-23
1.33104E-02 1.43759E-23
1.38150E-02 1.32820E-23
1.43290E-02 1.22848E-23
1.48521E-02 1.13744E-23
1.53845E-02 1.05420E-23
1.59262E-02 9.77992E-24
1.64770E-02 9.08128E-24
1.70371E-02 8.43997E-24
1.76063E-02 7.85056E-24
1.81848E-02 7.30822E-24
1.87724E-02 6.80862E-24
1.93692E-02 6.34790E-24
1.99751E-02 5.92257E-24
2.05901E-02 5.52952E-24
2.12143E-02 5.16596E-24
2.18476E-02 4.82934E-24
2.24900E-02 4.51740E-24
2.31415E-02 4.22807E-24
2.38021E-02 3.95949E-24
2.44717E-02 3.70997E-24
2.51504E-02 3.47797E-24
2.58382E-02 3.26210E-24
2.65349E-02 3.06109E-24
2.72407E-02 2.87380E-24
2.79555E-02 2.69915E-24
2.86793E-02 2.53620E-24
2.94120E-02 2.38407E-24
3.01537E-02 2.24195E-24
3.09043E-02 2.10909E-24
3.16639E-02 1.98484E-24
3.24324E-02 1.86856E-24
3.32098E-02 1.75969E-24
3.39961E-02 1.65770E-24
3.47912E-02 1.56211E-24
3.55952E-02 1.47248E-24
3.64081E-02 1.38839E-24
3.72297E-02 1.30947E-24
3.80602E-02 1.23536E-24
3.88995E-02 1.16575E-24
3.97476E-02 1.10034E-24
4.06044E-02 1.03884E-24
4.14700E-02 9.81003E-25
4.23443E-02 9.26591E-25
4.32273E-02 8.75382E-25
4.41190E-02 8.27172E-25
4.50194E-02 7.81769E-25
4.59284E-02 7.38996E-25
4.68461E-02 6.98689E-25
4.87074E-02 6.24870E-25
5.06030E-02 5.59205E-25
5.25328E-02 5.00732E-25
5.44967E-02 4.48612E-25
5.64946E-02 4.02115E-25
5.85262E-02 3.60597E-25
6.05914E-02 3.23498E-25
6.26901E-02 2.90323E-25
6.48222E-02 2.60639E-25
6.69873E-02 2.34060E-25
6.91854E-02 2.10251E-25
7.14163E-02 1.88910E-25
7.36799E-02 1.69774E-25
7.59760E-02 1.52607E-25
7.83043E-02 1.37202E-25
8.06647E-02 1.23372E-25
8.30571E-02 1.10954E-25
8.54812E-02 9.97996E-26
8.79369E-02 8.97785E-26
9.04240E-02 8.07738E-26
9.29422E-02 7.26811E-26
9.54915E-02 6.54070E-26
9.80716E-02 5.88681E-26
1.00682E-01 5.29896E-26
1.03323E-01 4.77045E-26
1.05995E-01 4.29528E-26
1.08696E-01 3.86805E-26
1.11427E-01 3.48393E-26
1.14188E-01 3.13858E-26
1.16978E-01 2.82809E-26
1.19797E-01 2.54896E-26
1.22645E-01 2.29804E-26
1.25522E-01 2.07248E-26
1.28428E-01 1.86975E-26
1.31361E-01 1.68754E-26
1.34323E-01 1.52378E-26
1.37313E-01 1.37662E-26
1.40330E-01 1.24439E-26
1.43375E-01 1.12557E-26
1.46447E-01 1.01881E-26
1.49545E-01 9.22892E-27
1.52671E-01 8.36704E-27
1.55823E-01 7.59262E-27
1.59001E-01 6.89672E-27
1.62205E-01 6.27133E-27
1.65435E-01 5.70921E-27
1.68690E-01 5.20386E-27
1.71970E-01 4.74944E-27
1.75276E-01 4.34067E-27
1.78606E-01 3.97284E-27
1.81961E-01 3.64168E-27
1.85340E-01 3.34338E-27
1.88743E-01 3.07452E-27
1.92169E-01 2.83199E-27
1.95619E-01 2.61305E-27
1.99092E-01 2.41522E-27
2.02589E-01 2.23626E-27
2.06107E-01 2.07419E-27
2.09649E-01 1.92723E-27
2.13212E-01 1.79377E-27
2.16797E-01 1.67239E-27
2.20404E-01 1.56181E-27
2.24032E-01 1.46090E-27
2.27680E-01 1.36863E-27
2.31350E-01 1.28409E-27
2.35040E-01 1.20648E-27
2.38751E-01 1.13507E-27
2.42481E-01 1.06923E-27
2.46231E-01 1.00838E-27
2.50000E-01 9.52005E-28
2.53788E-01 8.99665E-28
2.57595E-01 8.50956E-28
2.61421E-01 8.05521E-28
2.65264E-01 7.63046E-28
2.69126E-01 7.23252E-28
2.73005E-01 6.85889E-28
2.76901E-01 6.50740E-28
2.80814E-01 6.17610E-28
2.84744E-01 5.86326E-28
2.88691E-01 5.56738E-28
2.92653E-01 5.28710E-28
2.96632E-01 5.02122E-28
3.00625E-01 4.76869E-28
3.04634E-01 4.52857E-28
3.08658E-01 4.30001E-28
3.12697E-01 4.08228E-28
3.16749E-01 3.87472E-28
3.20816E-01 3.67672E-28
3.24896E-01 3.48777E-28
3.28990E-01 3.30737E-28
3.33097E-01 3.13510E-28
3.37216E-01 2.97056E-28
3.41348E-01 2.81339E-28
3.45492E-01 2.66328E-28
3.49647E-01 2.51991E-28
3.53814E-01 2.38301E-28
3.57992E-01 2.25232E-28
3.62181E-01 2.12759E-28
3.66381E-01 2.00860E-28
3.70590E-01 1.89514E-28
3.74810E-01 1.78699E-28
3.79039E-01 1.68396E-28
3.83277E-01 1.58586E-28
3.87524E-01 1.49252E-28
3.91780E-01 1.40375E-28
3.96044E-01 1.31939E-28
4.00316E-01 1.23928E-28
4.04596E-01 1.16325E-28
4.08882E-01 1.09115E-28
4.13176E-01 1.02284E-28
4.17476E-01 9.58151E-29
4.21783E-01 8.96952E-29
4.26095E-01 8.39100E-29
4.30413E-01 7.84457E-29
4.34737E-01 7.32889E-29
4.39065E-01 6.84265E-29
4.43398E-01 6.38455E-29
4.47736E-01 5.95337E-29
4.52077E-01 5.54788E-29
4.56422E-01 5.16689E-29
4.60770E-01 4.80926E-29
4.65122E-01 4.47386E-29
4.69476E-01 4.15960E-29
4.73832E-01 3.86544E-29
4.78190E-01 3.59035E-29
4.82550E-01 3.33335E-29
4.86912E-01 3.09347E-29
4.91274E-01 2.86980E-29
4.95637E-01 2.66144E-29
5.00000E-01 2.46755E-29
5.04363E-01 2.28730E-29
5.08726E-01 2.11990E-29
5.13088E-01 1.96459E-29
5.17450E-01 1.82064E-29
5.21810E-01 1.68736E-29
5.26168E-01 1.56408E-29
5.30524E-01 1.45018E-29
5.34878E-01 1.34504E-29
5.39230E-01 1.24809E-29
5.43578E-01 1.15879E-29
5.47923E-01 1.07661E-29
5.52264E-01 1.00106E-29
5.56602E-01 9.31672E-30
5.60935E-01 8.68008E-30
5.65263E-01 8.09651E-30
5.69587E-01 7.56205E-30
5.73905E-01 7.07300E-30
5.78217E-01 6.62588E-30
5.82524E-01 6.21741E-30
5.86824E-01 5.84450E-30
5.91118E-01 5.50429E-30
5.95404E-01 5.19406E-30
5.99684E-01 4.91131E-30
6.03956E-01 4.65368E-30
6.08220E-01 4.41899E-30
6.12476E-01 4.20518E-30
6.16723E-01 4.01038E-30
6.20961E-01 3.83283E-30
6.25190E-01 3.67091E-30
6.29410E-01 3.52311E-30
6.33619E-01 3.38805E-30
6.37819E-01 3.26446E-30
6.42008E-01 3.15116E-30
6.46186E-01 3.04709E-30
6.50353E-01 2.95125E-30
6.54508E-01 2.86275E-30
6.58652E-01 2.78077E-30
6.62784E-01 2.70457E-30
6.66903E-01 2.63347E-30
6.71010E-01 2.56686E-30
6.75104E-01 2.50418E-30
6.79184E-01 2.44495E-30
6.83251E-01 2.38873E-30
6.87303E-01 2.33510E-30
6.91342E-01 2.28373E-30
6.95366E-01 2.23429E-30
6.99375E-01 2.18651E-30
7.03368E-01 2.14016E-30
7.07347E-01 2.09501E-30
7.11309E-01 2.05089E-30
7.15256E-01 2.00764E-30
7.19186E-01 1.96512E-30
7.23099E-01 1.92322E-30
7.26995E-01 1.88185E-30
7.30874E-01 1.84092E-30
7.34736E-01 1.80038E-30
7.38579E-01 1.76018E-30
7.42405E-01 1.72027E-30
7.46212E-01 1.68064E-30
7.50000E-01 1.64126E-30
7.53769E-01 1.60212E-30
7.57519E-01 1.56323E-30
7.61249E-01 1.52458E-30
7.64960E-01 1.48618E-30
7.68650E-01 1.44805E-30
7.72320E-01 1.41020E-30
7.75968E-01 1.37264E-30
7.79596E-01 1.33541E-30
7.83203E-01 1.29851E-30
7.86788E-01 1.26198E-30
7.90351E-01 1.22583E-30
7.93893E-01 1.19010E-30
7.97411E-01 1.15480E-30
8.00908E-01 1.11996E-30
8.04381E-01 1.08559E-30
8.07831E-01 1.05173E-30
8.11257E-01 1.01840E-30
8.14660E-01 9.85605E-31
8.18039E-01 9.53374E-31
8.21394E-01 9.21721E-31
8.24724E-01 8.90664E-31
8.28030E-01 8.60216E-31
8.31310E-01 8.30390E-31
8.34565E-01 8.01197E-31
8.37795E-01 7.72647E-31
8.40999E-01 7.44748E-31
8.44177E-01 7.17507E-31
8.47329E-01 6.90929E-31
8.50455E-01 6.65017E-31
8.53553E-01 6.39774E-31
8.56625E-01 6.15200E-31
8.59670E-01 5.91296E-31
8.62687E-01 5.68060E-31
8.65677E-01 5.45488E-31
8.68639E-01 5.23578E-31
8.71572E-01 5.02323E-31
8.74478E-01 4.81718E-31
8.77355E-01 4.61757E-31
8.80203E-01 4.42430E-31
8.83022E-01 4.23730E-31
8.85812E-01 4.05648E-31
8.88573E-01 3.88173E-31
8.91304E-01 3.71295E-31
8.94005E-01 3.55003E-31
8.96677E-01 3.39285E-31
8.99318E-01 3.24129E-31
9.01928E-01 3.09524E-31
9.04508E-01 2.95456E-31
9.07058E-01 2.81913E-31
9.09576E-01 2.68881E-31
9.12063E-01 2.56347E-31
9.14519E-01 2.44299E-31
9.16943E-01 2.32722E-31
9.19335E-01 2.21603E-31
9.21696E-01 2.10929E-31
9.24024E-01 2.00687E-31
9.26320E-01 1.90862E-31
9.28584E-01 1.81442E-31
9.30815E-01 1.72414E-31
9.33013E-01 1.63764E-31
9.35178E-01 1.55480E-31
9.37310E-01 1.47550E-31
9.39409E-01 1.39960E-31
9.41474E-01 1.32699E-31
9.43505E-01 1.25755E-31
9.45503E-01 1.19116E-31
9.47467E-01 1.12771E-31
9.49397E-01 1.06708E-31
9.51293E-01 1.00917E-31
9.53154E-01 9.53870E-32
9.54981E-01 9.01080E-32
9.56773E-01 8.50699E-32
9.58530E-01 8.02630E-32
9.60252E-01 7.56779E-32
9.61940E-01 7.13056E-32
9.63592E-01 6.71374E-32
9.65209E-01 6.31648E-32
9.66790E-01 5.93796E-32
9.68336E-01 5.57739E-32
9.69846E-01 5.23403E-32
9.71321E-01 4.90714E-32
9.72759E-01 4.59602E-32
9.74162E-01 4.30001E-32
9.75528E-01 4.01847E-32
9.76858E-01 3.75078E-32
9.78152E-01 3.49634E-32
9.79410E-01 3.25462E-32
9.80631E-01 3.02506E-32
9.81815E-01 2.80715E-32
9.82963E-01 2.60042E-32
9.84074E-01 2.40439E-32
9.85148E-01 2.21863E-32
9.86185E-01 2.04272E-32
9.87185E-01 1.87627E-32
9.88148E-01 1.71890E-32
9.89074E-01 1.57025E-32
9.89962E-01 1.43000E-32
9.90814E-01 1.29783E-32
9.91627E-01 1.17343E-32
9.92404E-01 1.05654E-32
9.93143E-01 9.46893E-33
9.93844E-01 8.44239E-33
9.94508E-01 7.48351E-33
9.95134E-01 6.59017E-33
9.95722E-01 5.76038E-33
9.96273E-01 4.99231E-33
9.96786E-01 4.28428E-33
9.97261E-01 3.63470E-33
9.97698E-01 3.04216E-33
9.98097E-01 2.50537E-33
9.98459E-01 2.02315E-33
9.98782E-01 1.59446E-33
9.99067E-01 1.21835E-33
9.99315E-01 8.94019E-34
9.99524E-01 6.20758E-34
9.99695E-01 3.97981E-34
9.99829E-01 2.25206E-34
9.99924E-01 1.02060E-34
9.99981E-01 2.82791E-35
1.00000E+00 3.70270E-36
