 #
 # Subroutine ELSEPA. Elastic scattering of electrons and positrons
 #                    by neutral atoms and positive ions
 #
 # Projectile: electron
 # Kinetic energy = 3.00000E+07 eV = 1.10248E+06 a.u.
 #
 # WARNING: High-energy factorization with free-atom DF screening.
 #          Absorption, polarization and exchange corrections are
 #          switched off.
 #          Phase shifts are calculated for the bare nucleus.
 #          Scattering amplitudes are not evaluated.
 #
 # Element: At,  Z =  85,  atomic weight = 2.09987E+02 g/mol
 #
 # Nuclear model: Fermi distribution
 #                Average radius = 6.35987E-13 cm
 #                Skin thickness = 5.46000E-14 cm
 #
 # Number of electrons = 85
 #
 # Total elastic cross section = 9.38085E-18 cm**2 = 3.34996E-01 a0**2
 # 1st transport cross section = 1.47968E-23 cm**2 = 5.28402E-07 a0**2
 # 2nd transport cross section = 4.23610E-23 cm**2 = 1.51274E-06 a0**2
 #
 #
 # Differential cross section:                       MU=(1-COS(THETA))/2
 #
 #  THETA        MU          DCS          DCS        Sherman      error
 #  (deg)                 (cm**2/sr)   (a0**2/sr)    function
 #----------------------------------------------------------------------
0.00000E+00 6.04277E-11
7.61557E-13 6.04169E-11
1.18994E-12 6.04109E-11
1.71346E-12 6.04036E-11
2.33225E-12 6.03950E-11
3.04617E-12 6.03850E-11
3.85530E-12 6.03737E-11
4.75964E-12 6.03611E-11
5.75917E-12 6.03472E-11
6.85391E-12 6.03320E-11
8.04379E-12 6.03154E-11
9.32893E-12 6.02976E-11
1.07092E-11 6.02784E-11
1.21847E-11 6.02580E-11
1.37554E-11 6.02362E-11
1.54213E-11 6.02131E-11
1.71823E-11 6.01887E-11
1.90386E-11 6.01630E-11
2.09900E-11 6.01361E-11
2.30367E-11 6.01078E-11
2.51785E-11 6.00782E-11
2.74156E-11 6.00474E-11
2.97478E-11 6.00153E-11
3.21752E-11 5.99818E-11
3.46979E-11 5.99471E-11
3.73157E-11 5.99112E-11
4.00286E-11 5.98740E-11
4.28368E-11 5.98355E-11
4.57402E-11 5.97957E-11
4.87388E-11 5.97547E-11
5.18325E-11 5.97124E-11
5.50215E-11 5.96689E-11
5.83057E-11 5.96241E-11
6.16850E-11 5.95781E-11
6.51595E-11 5.95308E-11
6.87293E-11 5.94824E-11
7.23943E-11 5.94327E-11
7.61544E-11 5.93817E-11
1.18991E-10 5.88064E-11
1.71347E-10 5.81152E-11
2.33223E-10 5.73148E-11
3.04617E-10 5.64053E-11
3.85531E-10 5.54171E-11
4.75965E-10 5.43271E-11
5.75917E-10 5.31768E-11
6.85389E-10 5.19493E-11
8.04380E-10 5.06727E-11
9.32891E-10 4.93483E-11
1.07092E-09 4.79817E-11
1.21847E-09 4.65989E-11
1.37554E-09 4.51773E-11
1.54213E-09 4.37698E-11
1.71823E-09 4.23261E-11
1.90386E-09 4.09099E-11
2.09900E-09 3.94858E-11
2.30367E-09 3.80861E-11
2.51785E-09 3.67037E-11
2.74156E-09 3.53410E-11
2.97478E-09 3.40171E-11
3.21752E-09 3.27072E-11
3.46978E-09 3.14520E-11
3.73156E-09 3.02076E-11
4.00286E-09 2.90191E-11
4.28368E-09 2.78569E-11
4.57402E-09 2.67409E-11
4.87388E-09 2.56630E-11
5.18326E-09 2.46223E-11
5.50215E-09 2.36281E-11
5.83057E-09 2.26632E-11
6.16850E-09 2.17493E-11
6.51596E-09 2.08598E-11
6.87293E-09 2.00178E-11
7.23942E-09 1.92057E-11
7.61544E-09 1.84324E-11
1.18991E-08 1.23700E-11
1.71347E-08 8.56703E-12
2.33223E-08 6.13699E-12
3.04617E-08 4.47874E-12
3.85531E-08 3.41987E-12
4.75965E-08 2.61221E-12
5.75917E-08 2.05548E-12
6.85389E-08 1.62582E-12
8.04380E-08 1.30830E-12
9.32891E-08 1.06267E-12
1.07092E-07 8.72015E-13
1.21847E-07 7.23900E-13
1.37554E-07 6.04635E-13
1.54213E-07 5.11133E-13
1.71823E-07 4.33638E-13
1.90386E-07 3.71617E-13
2.09900E-07 3.19890E-13
2.30367E-07 2.77261E-13
2.51785E-07 2.41484E-13
2.74156E-07 2.11249E-13
2.97478E-07 1.85754E-13
3.21752E-07 1.63740E-13
3.46978E-07 1.45106E-13
3.73156E-07 1.28753E-13
4.00286E-07 1.14773E-13
4.28368E-07 1.02508E-13
4.57402E-07 9.18601E-14
4.87388E-07 8.25227E-14
5.18325E-07 7.43136E-14
5.50215E-07 6.71135E-14
5.83057E-07 6.07360E-14
6.16850E-07 5.51350E-14
6.51596E-07 5.00830E-14
6.87293E-07 4.56222E-14
7.23942E-07 4.16365E-14
7.61543E-07 3.80885E-14
1.18991E-06 1.72906E-14
1.71347E-06 8.99520E-15
2.33223E-06 5.14656E-15
3.04617E-06 3.15450E-15
3.85531E-06 2.04127E-15
4.75964E-06 1.38034E-15
5.75916E-06 9.66370E-16
6.85388E-06 6.96649E-16
8.04378E-06 5.14775E-16
9.32888E-06 3.88339E-16
1.07092E-05 2.98452E-16
1.21846E-05 2.33086E-16
1.37553E-05 1.84672E-16
1.54212E-05 1.48223E-16
1.71822E-05 1.20334E-16
1.90385E-05 9.86615E-17
2.09899E-05 8.17748E-17
2.30365E-05 6.83423E-17
2.51783E-05 5.75463E-17
2.74153E-05 4.87851E-17
2.97475E-05 4.16258E-17
3.21749E-05 3.57333E-17
3.46974E-05 3.08504E-17
3.73152E-05 2.67787E-17
4.00281E-05 2.33591E-17
4.28362E-05 2.04695E-17
4.57395E-05 1.80129E-17
4.87380E-05 1.59125E-17
5.18317E-05 1.41084E-17
5.50205E-05 1.25517E-17
5.83045E-05 1.12035E-17
6.16838E-05 1.00316E-17
6.51582E-05 9.00900E-18
6.87277E-05 8.11372E-18
7.23925E-05 7.32700E-18
7.61524E-05 6.63147E-18
9.21439E-05 4.55776E-18
1.09658E-04 3.23473E-18
1.28695E-04 2.35904E-18
1.49255E-04 1.76074E-18
1.71338E-04 1.34081E-18
1.94942E-04 1.03905E-18
2.20070E-04 8.17691E-19
2.46720E-04 6.52329E-19
2.74892E-04 5.26789E-19
3.04586E-04 4.30081E-19
3.35803E-04 3.54616E-19
3.68542E-04 2.95021E-19
4.02802E-04 2.47452E-19
4.38585E-04 2.09112E-19
4.75889E-04 1.77928E-19
5.14715E-04 1.52357E-19
5.55063E-04 1.31226E-19
5.96931E-04 1.13641E-19
6.40321E-04 9.89117E-20
6.85233E-04 8.64978E-20
7.31665E-04 7.59761E-20
7.79618E-04 6.70098E-20
8.29092E-04 5.93316E-20
8.80086E-04 5.27249E-20
9.32601E-04 4.70150E-20
9.86636E-04 4.20599E-20
1.04219E-03 3.77425E-20
1.09927E-03 3.39670E-20
1.15786E-03 3.06533E-20
1.21797E-03 2.77355E-20
1.27961E-03 2.51580E-20
1.34276E-03 2.28742E-20
1.40743E-03 2.08448E-20
1.47362E-03 1.90364E-20
1.54133E-03 1.74207E-20
1.61056E-03 1.59737E-20
1.68131E-03 1.46745E-20
1.75357E-03 1.35054E-20
1.82735E-03 1.24510E-20
1.90265E-03 1.14981E-20
1.97947E-03 1.06351E-20
2.05780E-03 9.85202E-21
2.13765E-03 9.14011E-21
2.21902E-03 8.49175E-21
2.30190E-03 7.90022E-21
2.38630E-03 7.35964E-21
2.47222E-03 6.86481E-21
2.55965E-03 6.41117E-21
2.64859E-03 5.99464E-21
2.73905E-03 5.61164E-21
2.83103E-03 5.25896E-21
2.92452E-03 4.93379E-21
3.01952E-03 4.63353E-21
3.11604E-03 4.35597E-21
3.21407E-03 4.09905E-21
3.31362E-03 3.86095E-21
3.41468E-03 3.64004E-21
3.51725E-03 3.43485E-21
3.62133E-03 3.24404E-21
3.72692E-03 3.06642E-21
3.83403E-03 2.90091E-21
3.94265E-03 2.74652E-21
4.05278E-03 2.60236E-21
4.16442E-03 2.46764E-21
4.27757E-03 2.34161E-21
4.39223E-03 2.22361E-21
4.50840E-03 2.11303E-21
4.62608E-03 2.00931E-21
4.74527E-03 1.91195E-21
4.86597E-03 1.82048E-21
4.98817E-03 1.73448E-21
5.11188E-03 1.65356E-21
5.23711E-03 1.57735E-21
5.36383E-03 1.50554E-21
5.49207E-03 1.43782E-21
5.62181E-03 1.37391E-21
5.75306E-03 1.31356E-21
5.88581E-03 1.25653E-21
6.02007E-03 1.20260E-21
6.15583E-03 1.15157E-21
6.29310E-03 1.10325E-21
6.43187E-03 1.05748E-21
6.57214E-03 1.01409E-21
6.71392E-03 9.72932E-22
6.85720E-03 9.33871E-22
7.00198E-03 8.96778E-22
7.14827E-03 8.61535E-22
7.29605E-03 8.28031E-22
7.44534E-03 7.96166E-22
7.59612E-03 7.65841E-22
7.97965E-03 6.96200E-22
8.37255E-03 6.34411E-22
8.77480E-03 5.79427E-22
9.18641E-03 5.30362E-22
9.60736E-03 4.86463E-22
1.00376E-02 4.47083E-22
1.04773E-02 4.11675E-22
1.09262E-02 3.79759E-22
1.13844E-02 3.50930E-22
1.18520E-02 3.24831E-22
1.23288E-02 3.01156E-22
1.28150E-02 2.79637E-22
1.33104E-02 2.60040E-22
1.38150E-02 2.42161E-22
1.43290E-02 2.25820E-22
1.48521E-02 2.10860E-22
1.53845E-02 1.97142E-22
1.59262E-02 1.84542E-22
1.64770E-02 1.72952E-22
1.70371E-02 1.62275E-22
1.76063E-02 1.52424E-22
1.81848E-02 1.43325E-22
1.87724E-02 1.34907E-22
1.93692E-02 1.27110E-22
1.99751E-02 1.19879E-22
2.05901E-02 1.13165E-22
2.12143E-02 1.06924E-22
2.18476E-02 1.01115E-22
2.24900E-02 9.57030E-23
2.31415E-02 9.06552E-23
2.38021E-02 8.59422E-23
2.44717E-02 8.15374E-23
2.51504E-02 7.74166E-23
2.58382E-02 7.35578E-23
2.65349E-02 6.99411E-23
2.72407E-02 6.65483E-23
2.79555E-02 6.33628E-23
2.86793E-02 6.03697E-23
2.94120E-02 5.75552E-23
3.01537E-02 5.49035E-23
3.09043E-02 5.24045E-23
3.16639E-02 5.00484E-23
3.24324E-02 4.78255E-23
3.32098E-02 4.57266E-23
3.39961E-02 4.37433E-23
3.47912E-02 4.18681E-23
3.55952E-02 4.00938E-23
3.64081E-02 3.84138E-23
3.72297E-02 3.68221E-23
3.80602E-02 3.53132E-23
3.88995E-02 3.38818E-23
3.97476E-02 3.25231E-23
4.06044E-02 3.12327E-23
4.14700E-02 3.00064E-23
4.23443E-02 2.88404E-23
4.32273E-02 2.77311E-23
4.41190E-02 2.66752E-23
4.50194E-02 2.56695E-23
4.59284E-02 2.47112E-23
4.68461E-02 2.37977E-23
4.87074E-02 2.20947E-23
5.06030E-02 2.05424E-23
5.25328E-02 1.91248E-23
5.44967E-02 1.78279E-23
5.64946E-02 1.66395E-23
5.85262E-02 1.55487E-23
6.05914E-02 1.45458E-23
6.26901E-02 1.36225E-23
6.48222E-02 1.27711E-23
6.69873E-02 1.19850E-23
6.91854E-02 1.12582E-23
7.14163E-02 1.05853E-23
7.36799E-02 9.96155E-24
7.59760E-02 9.38267E-24
7.83043E-02 8.84479E-24
8.06647E-02 8.34444E-24
8.30571E-02 7.87850E-24
8.54812E-02 7.44415E-24
8.79369E-02 7.03882E-24
9.04240E-02 6.66021E-24
9.29422E-02 6.30622E-24
9.54915E-02 5.97494E-24
9.80716E-02 5.66463E-24
1.00682E-01 5.37372E-24
1.03323E-01 5.10076E-24
1.05995E-01 4.84444E-24
1.08696E-01 4.60355E-24
1.11427E-01 4.37699E-24
1.14188E-01 4.16375E-24
1.16978E-01 3.96290E-24
1.19797E-01 3.77359E-24
1.22645E-01 3.59503E-24
1.25522E-01 3.42650E-24
1.28428E-01 3.26733E-24
1.31361E-01 3.11692E-24
1.34323E-01 2.97468E-24
1.37313E-01 2.84011E-24
1.40330E-01 2.71271E-24
1.43375E-01 2.59203E-24
1.46447E-01 2.47765E-24
1.49545E-01 2.36920E-24
1.52671E-01 2.26630E-24
1.55823E-01 2.16863E-24
1.59001E-01 2.07587E-24
1.62205E-01 1.98774E-24
1.65435E-01 1.90396E-24
1.68690E-01 1.82429E-24
1.71970E-01 1.74848E-24
1.75276E-01 1.67633E-24
1.78606E-01 1.60762E-24
1.81961E-01 1.54217E-24
1.85340E-01 1.47979E-24
1.88743E-01 1.42032E-24
1.92169E-01 1.36359E-24
1.95619E-01 1.30948E-24
1.99092E-01 1.25782E-24
2.02589E-01 1.20850E-24
2.06107E-01 1.16140E-24
2.09649E-01 1.11639E-24
2.13212E-01 1.07337E-24
2.16797E-01 1.03224E-24
2.20404E-01 9.92909E-25
2.24032E-01 9.55279E-25
2.27680E-01 9.19269E-25
2.31350E-01 8.84798E-25
2.35040E-01 8.51791E-25
2.38751E-01 8.20176E-25
2.42481E-01 7.89888E-25
2.46231E-01 7.60862E-25
2.50000E-01 7.33038E-25
2.53788E-01 7.06360E-25
2.57595E-01 6.80773E-25
2.61421E-01 6.56228E-25
2.65264E-01 6.32676E-25
2.69126E-01 6.10071E-25
2.73005E-01 5.88371E-25
2.76901E-01 5.67533E-25
2.80814E-01 5.47520E-25
2.84744E-01 5.28295E-25
2.88691E-01 5.09823E-25
2.92653E-01 4.92069E-25
2.96632E-01 4.75004E-25
3.00625E-01 4.58597E-25
3.04634E-01 4.42819E-25
3.08658E-01 4.27643E-25
3.12697E-01 4.13043E-25
3.16749E-01 3.98996E-25
3.20816E-01 3.85477E-25
3.24896E-01 3.72464E-25
3.28990E-01 3.59937E-25
3.33097E-01 3.47874E-25
3.37216E-01 3.36257E-25
3.41348E-01 3.25067E-25
3.45492E-01 3.14287E-25
3.49647E-01 3.03901E-25
3.53814E-01 2.93891E-25
3.57992E-01 2.84244E-25
3.62181E-01 2.74943E-25
3.66381E-01 2.65977E-25
3.70590E-01 2.57330E-25
3.74810E-01 2.48992E-25
3.79039E-01 2.40949E-25
3.83277E-01 2.33189E-25
3.87524E-01 2.25703E-25
3.91780E-01 2.18479E-25
3.96044E-01 2.11507E-25
4.00316E-01 2.04778E-25
4.04596E-01 1.98281E-25
4.08882E-01 1.92009E-25
4.13176E-01 1.85953E-25
4.17476E-01 1.80104E-25
4.21783E-01 1.74455E-25
4.26095E-01 1.68999E-25
4.30413E-01 1.63727E-25
4.34737E-01 1.58634E-25
4.39065E-01 1.53712E-25
4.43398E-01 1.48956E-25
4.47736E-01 1.44359E-25
4.52077E-01 1.39915E-25
4.56422E-01 1.35619E-25
4.60770E-01 1.31466E-25
4.65122E-01 1.27449E-25
4.69476E-01 1.23565E-25
4.73832E-01 1.19809E-25
4.78190E-01 1.16176E-25
4.82550E-01 1.12661E-25
4.86912E-01 1.09260E-25
4.91274E-01 1.05970E-25
4.95637E-01 1.02786E-25
5.00000E-01 9.97054E-26
5.04363E-01 9.67235E-26
5.08726E-01 9.38371E-26
5.13088E-01 9.10430E-26
5.17450E-01 8.83380E-26
5.21810E-01 8.57190E-26
5.26168E-01 8.31830E-26
5.30524E-01 8.07271E-26
5.34878E-01 7.83486E-26
5.39230E-01 7.60449E-26
5.43578E-01 7.38134E-26
5.47923E-01 7.16516E-26
5.52264E-01 6.95572E-26
5.56602E-01 6.75279E-26
5.60935E-01 6.55615E-26
5.65263E-01 6.36559E-26
5.69587E-01 6.18090E-26
5.73905E-01 6.00190E-26
5.78217E-01 5.82838E-26
5.82524E-01 5.66016E-26
5.86824E-01 5.49708E-26
5.91118E-01 5.33896E-26
5.95404E-01 5.18564E-26
5.99684E-01 5.03695E-26
6.03956E-01 4.89275E-26
6.08220E-01 4.75289E-26
6.12476E-01 4.61723E-26
6.16723E-01 4.48563E-26
6.20961E-01 4.35796E-26
6.25190E-01 4.23409E-26
6.29410E-01 4.11390E-26
6.33619E-01 3.99727E-26
6.37819E-01 3.88409E-26
6.42008E-01 3.77424E-26
6.46186E-01 3.66762E-26
6.50353E-01 3.56413E-26
6.54508E-01 3.46366E-26
6.58652E-01 3.36613E-26
6.62784E-01 3.27143E-26
6.66903E-01 3.17947E-26
6.71010E-01 3.09018E-26
6.75104E-01 3.00347E-26
6.79184E-01 2.91925E-26
6.83251E-01 2.83744E-26
6.87303E-01 2.75799E-26
6.91342E-01 2.68080E-26
6.95366E-01 2.60580E-26
6.99375E-01 2.53294E-26
7.03368E-01 2.46215E-26
7.07347E-01 2.39335E-26
7.11309E-01 2.32650E-26
7.15256E-01 2.26152E-26
7.19186E-01 2.19837E-26
7.23099E-01 2.13698E-26
7.26995E-01 2.07730E-26
7.30874E-01 2.01929E-26
7.34736E-01 1.96288E-26
7.38579E-01 1.90804E-26
7.42405E-01 1.85471E-26
7.46212E-01 1.80285E-26
7.50000E-01 1.75241E-26
7.53769E-01 1.70336E-26
7.57519E-01 1.65564E-26
7.61249E-01 1.60923E-26
7.64960E-01 1.56407E-26
7.68650E-01 1.52015E-26
7.72320E-01 1.47741E-26
7.75968E-01 1.43582E-26
7.79596E-01 1.39535E-26
7.83203E-01 1.35597E-26
7.86788E-01 1.31765E-26
7.90351E-01 1.28034E-26
7.93893E-01 1.24404E-26
7.97411E-01 1.20869E-26
8.00908E-01 1.17429E-26
8.04381E-01 1.14079E-26
8.07831E-01 1.10818E-26
8.11257E-01 1.07643E-26
8.14660E-01 1.04551E-26
8.18039E-01 1.01541E-26
8.21394E-01 9.86090E-27
8.24724E-01 9.57537E-27
8.28030E-01 9.29728E-27
8.31310E-01 9.02643E-27
8.34565E-01 8.76260E-27
8.37795E-01 8.50560E-27
8.40999E-01 8.25526E-27
8.44177E-01 8.01137E-27
8.47329E-01 7.77376E-27
8.50455E-01 7.54227E-27
8.53553E-01 7.31672E-27
8.56625E-01 7.09695E-27
8.59670E-01 6.88281E-27
8.62687E-01 6.67414E-27
8.65677E-01 6.47080E-27
8.68639E-01 6.27265E-27
8.71572E-01 6.07954E-27
8.74478E-01 5.89135E-27
8.77355E-01 5.70794E-27
8.80203E-01 5.52920E-27
8.83022E-01 5.35499E-27
8.85812E-01 5.18521E-27
8.88573E-01 5.01973E-27
8.91304E-01 4.85845E-27
8.94005E-01 4.70126E-27
8.96677E-01 4.54806E-27
8.99318E-01 4.39875E-27
9.01928E-01 4.25323E-27
9.04508E-01 4.11140E-27
9.07058E-01 3.97318E-27
9.09576E-01 3.83848E-27
9.12063E-01 3.70721E-27
9.14519E-01 3.57928E-27
9.16943E-01 3.45463E-27
9.19335E-01 3.33317E-27
9.21696E-01 3.21483E-27
9.24024E-01 3.09953E-27
9.26320E-01 2.98720E-27
9.28584E-01 2.87778E-27
9.30815E-01 2.77119E-27
9.33013E-01 2.66739E-27
9.35178E-01 2.56629E-27
9.37310E-01 2.46785E-27
9.39409E-01 2.37201E-27
9.41474E-01 2.27870E-27
9.43505E-01 2.18788E-27
9.45503E-01 2.09950E-27
9.47467E-01 2.01349E-27
9.49397E-01 1.92982E-27
9.51293E-01 1.84843E-27
9.53154E-01 1.76929E-27
9.54981E-01 1.69233E-27
9.56773E-01 1.61753E-27
9.58530E-01 1.54484E-27
9.60252E-01 1.47423E-27
9.61940E-01 1.40564E-27
9.63592E-01 1.33904E-27
9.65209E-01 1.27441E-27
9.66790E-01 1.21169E-27
9.68336E-01 1.15087E-27
9.69846E-01 1.09190E-27
9.71321E-01 1.03476E-27
9.72759E-01 9.79418E-28
9.74162E-01 9.25838E-28
9.75528E-01 8.73996E-28
9.76858E-01 8.23865E-28
9.78152E-01 7.75420E-28
9.79410E-01 7.28634E-28
9.80631E-01 6.83484E-28
9.81815E-01 6.39947E-28
9.82963E-01 5.98001E-28
9.84074E-01 5.57625E-28
9.85148E-01 5.18797E-28
9.86185E-01 4.81499E-28
9.87185E-01 4.45711E-28
9.88148E-01 4.11417E-28
9.89074E-01 3.78598E-28
9.89962E-01 3.47239E-28
9.90814E-01 3.17324E-28
9.91627E-01 2.88839E-28
9.92404E-01 2.61769E-28
9.93143E-01 2.36101E-28
9.93844E-01 2.11822E-28
9.94508E-01 1.88922E-28
9.95134E-01 1.67388E-28
9.95722E-01 1.47211E-28
9.96273E-01 1.28380E-28
9.96786E-01 1.10887E-28
9.97261E-01 9.47225E-29
9.97698E-01 7.98796E-29
9.98097E-01 6.63510E-29
9.98459E-01 5.41302E-29
9.98782E-01 4.32113E-29
9.99067E-01 3.35892E-29
9.99315E-01 2.52593E-29
9.99524E-01 1.82176E-29
9.99695E-01 1.24607E-29
9.99829E-01 7.98595E-30
9.99924E-01 4.79122E-30
9.99981E-01 2.87499E-30
1.00000E+00 2.23635E-30
