 #
 # Subroutine ELSEPA. Elastic scattering of electrons and positrons
 #                    by neutral atoms and positive ions
 #
 # Projectile: electron
 # Kinetic energy = 2.50000E+08 eV = 9.18733E+06 a.u.
 #
 # WARNING: High-energy factorization with free-atom DF screening.
 #          Absorption, polarization and exchange corrections are
 #          switched off.
 #          Phase shifts are calculated for the bare nucleus.
 #          Scattering amplitudes are not evaluated.
 #
 # Element: At,  Z =  85,  atomic weight = 2.09987E+02 g/mol
 #
 # Nuclear model: Fermi distribution
 #                Average radius = 6.35987E-13 cm
 #                Skin thickness = 5.46000E-14 cm
 #
 # Number of electrons = 85
 #
 # Total elastic cross section = 9.37407E-18 cm**2 = 3.34754E-01 a0**2
 # 1st transport cross section = 2.16607E-25 cm**2 = 7.73516E-09 a0**2
 # 2nd transport cross section = 6.48840E-25 cm**2 = 2.31705E-08 a0**2
 #
 #
 # Differential cross section:                       MU=(1-COS(THETA))/2
 #
 #  THETA        MU          DCS          DCS        Sherman      error
 #  (deg)                 (cm**2/sr)   (a0**2/sr)    function
 #----------------------------------------------------------------------
0.00000E+00 4.07359E-09
7.61557E-13 4.02579E-09
1.18994E-12 3.99932E-09
1.71346E-12 3.96736E-09
2.33225E-12 3.93010E-09
3.04617E-12 3.88780E-09
3.85530E-12 3.84055E-09
4.75964E-12 3.78867E-09
5.75917E-12 3.73341E-09
6.85391E-12 3.67323E-09
8.04379E-12 3.61071E-09
9.32893E-12 3.54391E-09
1.07092E-11 3.47531E-09
1.21847E-11 3.40356E-09
1.37554E-11 3.33021E-09
1.54213E-11 3.25502E-09
1.71823E-11 3.17824E-09
1.90386E-11 3.10102E-09
2.09900E-11 3.02206E-09
2.30367E-11 2.94408E-09
2.51785E-11 2.86410E-09
2.74156E-11 2.78607E-09
2.97478E-11 2.70651E-09
3.21752E-11 2.62897E-09
3.46979E-11 2.55112E-09
3.73157E-11 2.47487E-09
4.00286E-11 2.39944E-09
4.28368E-11 2.32516E-09
4.57402E-11 2.25266E-09
4.87388E-11 2.18089E-09
5.18325E-11 2.11171E-09
5.50215E-11 2.04285E-09
5.83057E-11 1.97708E-09
6.16850E-11 1.91158E-09
6.51595E-11 1.84899E-09
6.87293E-11 1.78738E-09
7.23943E-11 1.72813E-09
7.61544E-11 1.67041E-09
1.18991E-10 1.18982E-09
1.71347E-10 8.57581E-10
2.33223E-10 6.31460E-10
3.04617E-10 4.75683E-10
3.85531E-10 3.64573E-10
4.75965E-10 2.84027E-10
5.75917E-10 2.28332E-10
6.85389E-10 1.82688E-10
8.04380E-10 1.49907E-10
9.32891E-10 1.22870E-10
1.07092E-09 1.02314E-10
1.21847E-09 8.55567E-11
1.37554E-09 7.21921E-11
1.54213E-09 6.13613E-11
1.71823E-09 5.24306E-11
1.90386E-09 4.51838E-11
2.09900E-09 3.90602E-11
2.30367E-09 3.40639E-11
2.51785E-09 2.97545E-11
2.74156E-09 2.61997E-11
2.97478E-09 2.31047E-11
3.21752E-09 2.05025E-11
3.46978E-09 1.82357E-11
3.73156E-09 1.62891E-11
4.00286E-09 1.45922E-11
4.28368E-09 1.31079E-11
4.57402E-09 1.18138E-11
4.87388E-09 1.06636E-11
5.18326E-09 9.66080E-12
5.50215E-09 8.75765E-12
5.83057E-09 7.96875E-12
6.16850E-09 7.25314E-12
6.51596E-09 6.62282E-12
6.87293E-09 6.05319E-12
7.23942E-09 5.54536E-12
7.61544E-09 5.08766E-12
1.18991E-08 2.34042E-12
1.71347E-08 1.22727E-12
2.33223E-08 7.06905E-13
3.04617E-08 4.36582E-13
3.85531E-08 2.83973E-13
4.75965E-08 1.92822E-13
5.75917E-08 1.35566E-13
6.85389E-08 9.81162E-14
8.04380E-08 7.27697E-14
9.32891E-08 5.51067E-14
1.07092E-07 4.24755E-14
1.21847E-07 3.32587E-14
1.37554E-07 2.64077E-14
1.54213E-07 2.12309E-14
1.71823E-07 1.72613E-14
1.90386E-07 1.41772E-14
2.09900E-07 1.17522E-14
2.30367E-07 9.82402E-15
2.51785E-07 8.27592E-15
2.74156E-07 7.02168E-15
2.97478E-07 5.99672E-15
3.21752E-07 5.15249E-15
3.46978E-07 4.45198E-15
3.73156E-07 3.86677E-15
4.00286E-07 3.37462E-15
4.28368E-07 2.95840E-15
4.57402E-07 2.60445E-15
4.87388E-07 2.30190E-15
5.18325E-07 2.04203E-15
5.50215E-07 1.81781E-15
5.83057E-07 1.62352E-15
6.16850E-07 1.45446E-15
6.51596E-07 1.30682E-15
6.87293E-07 1.17742E-15
7.23942E-07 1.06363E-15
7.61543E-07 9.63243E-16
1.18991E-06 4.00854E-16
1.71347E-06 1.95237E-16
2.33223E-06 1.06126E-16
3.04617E-06 6.25446E-17
3.85531E-06 3.92154E-17
4.75964E-06 2.58209E-17
5.75916E-06 1.76886E-17
6.85388E-06 1.25208E-17
8.04378E-06 9.10996E-18
9.32888E-06 6.78548E-18
1.07092E-05 5.15732E-18
1.21846E-05 3.98949E-18
1.37553E-05 3.13429E-18
1.54212E-05 2.49644E-18
1.71822E-05 2.01290E-18
1.90385E-05 1.63991E-18
2.09899E-05 1.35129E-18
2.30365E-05 1.12323E-18
2.51783E-05 9.41009E-19
2.74153E-05 7.94048E-19
2.97475E-05 6.74579E-19
3.21749E-05 5.76754E-19
3.46974E-05 4.96091E-19
3.73152E-05 4.29117E-19
4.00281E-05 3.73123E-19
4.28362E-05 3.25993E-19
4.57395E-05 2.86075E-19
4.87380E-05 2.52071E-19
5.18317E-05 2.22957E-19
5.50205E-05 1.97918E-19
5.83045E-05 1.76294E-19
6.16838E-05 1.57547E-19
6.51582E-05 1.41232E-19
6.87277E-05 1.26981E-19
7.23925E-05 1.14486E-19
7.61524E-05 1.03898E-19
9.21439E-05 7.11263E-20
1.09658E-04 5.03342E-20
1.28695E-04 3.66304E-20
1.49255E-04 2.72979E-20
1.71338E-04 2.07644E-20
1.94942E-04 1.60790E-20
2.20070E-04 1.26474E-20
2.46720E-04 1.00870E-20
2.74892E-04 8.14510E-21
3.04586E-04 6.65022E-21
3.35803E-04 5.48428E-21
3.68542E-04 4.56385E-21
4.02802E-04 3.82935E-21
4.38585E-04 3.23756E-21
4.75889E-04 2.75573E-21
5.14715E-04 2.36054E-21
5.55063E-04 2.03386E-21
5.96931E-04 1.76190E-21
6.40321E-04 1.53398E-21
6.85233E-04 1.34179E-21
7.31665E-04 1.17879E-21
7.79618E-04 1.03981E-21
8.29092E-04 9.20705E-22
8.80086E-04 8.18150E-22
9.32601E-04 7.29456E-22
9.86636E-04 6.52427E-22
1.04219E-03 5.85262E-22
1.09927E-03 5.26484E-22
1.15786E-03 4.74861E-22
1.21797E-03 4.29372E-22
1.27961E-03 3.89160E-22
1.34276E-03 3.53507E-22
1.40743E-03 3.21806E-22
1.47362E-03 2.93540E-22
1.54133E-03 2.68274E-22
1.61056E-03 2.45633E-22
1.68131E-03 2.25296E-22
1.75357E-03 2.06988E-22
1.82735E-03 1.90470E-22
1.90265E-03 1.75537E-22
1.97947E-03 1.62010E-22
2.05780E-03 1.49734E-22
2.13765E-03 1.38573E-22
2.21902E-03 1.28407E-22
2.30190E-03 1.19133E-22
2.38630E-03 1.10659E-22
2.47222E-03 1.02903E-22
2.55965E-03 9.57945E-23
2.64859E-03 8.92698E-23
2.73905E-03 8.32729E-23
2.83103E-03 7.77536E-23
2.92452E-03 7.26674E-23
3.01952E-03 6.79746E-23
3.11604E-03 6.36394E-23
3.21407E-03 5.96301E-23
3.31362E-03 5.59181E-23
3.41468E-03 5.24775E-23
3.51725E-03 4.92853E-23
3.62133E-03 4.63204E-23
3.72692E-03 4.35641E-23
3.83403E-03 4.09993E-23
3.94265E-03 3.86104E-23
4.05278E-03 3.63834E-23
4.16442E-03 3.43057E-23
4.27757E-03 3.23655E-23
4.39223E-03 3.05523E-23
4.50840E-03 2.88565E-23
4.62608E-03 2.72693E-23
4.74527E-03 2.57826E-23
4.86597E-03 2.43891E-23
4.98817E-03 2.30820E-23
5.11188E-03 2.18551E-23
5.23711E-03 2.07028E-23
5.36383E-03 1.96199E-23
5.49207E-03 1.86015E-23
5.62181E-03 1.76433E-23
5.75306E-03 1.67410E-23
5.88581E-03 1.58911E-23
6.02007E-03 1.50900E-23
6.15583E-03 1.43346E-23
6.29310E-03 1.36217E-23
6.43187E-03 1.29488E-23
6.57214E-03 1.23132E-23
6.71392E-03 1.17126E-23
6.85720E-03 1.11448E-23
7.00198E-03 1.06078E-23
7.14827E-03 1.00996E-23
7.29605E-03 9.61855E-24
7.44534E-03 9.16296E-24
7.59612E-03 8.73133E-24
7.97965E-03 7.74793E-24
8.37255E-03 6.88584E-24
8.77480E-03 6.12840E-24
9.18641E-03 5.46153E-24
9.60736E-03 4.87323E-24
1.00376E-02 4.35329E-24
1.04773E-02 3.89298E-24
1.09262E-02 3.48479E-24
1.13844E-02 3.12227E-24
1.18520E-02 2.79986E-24
1.23288E-02 2.51273E-24
1.28150E-02 2.25670E-24
1.33104E-02 2.02813E-24
1.38150E-02 1.82386E-24
1.43290E-02 1.64110E-24
1.48521E-02 1.47745E-24
1.53845E-02 1.33077E-24
1.59262E-02 1.19918E-24
1.64770E-02 1.08105E-24
1.70371E-02 9.74924E-25
1.76063E-02 8.79514E-25
1.81848E-02 7.93686E-25
1.87724E-02 7.16433E-25
1.93692E-02 6.46862E-25
1.99751E-02 5.84178E-25
2.05901E-02 5.27676E-25
2.12143E-02 4.76724E-25
2.18476E-02 4.30761E-25
2.24900E-02 3.89284E-25
2.31415E-02 3.51845E-25
2.38021E-02 3.18043E-25
2.44717E-02 2.87516E-25
2.51504E-02 2.59942E-25
2.58382E-02 2.35031E-25
2.65349E-02 2.12523E-25
2.72407E-02 1.92184E-25
2.79555E-02 1.73803E-25
2.86793E-02 1.57191E-25
2.94120E-02 1.42177E-25
3.01537E-02 1.28607E-25
3.09043E-02 1.16342E-25
3.16639E-02 1.05257E-25
3.24324E-02 9.52389E-26
3.32098E-02 8.61851E-26
3.39961E-02 7.80036E-26
3.47912E-02 7.06109E-26
3.55952E-02 6.39316E-26
3.64081E-02 5.78974E-26
3.72297E-02 5.24467E-26
3.80602E-02 4.75234E-26
3.88995E-02 4.30772E-26
3.97476E-02 3.90622E-26
4.06044E-02 3.54369E-26
4.14700E-02 3.21640E-26
4.23443E-02 2.92094E-26
4.32273E-02 2.65423E-26
4.41190E-02 2.41350E-26
4.50194E-02 2.19622E-26
4.59284E-02 2.00011E-26
4.68461E-02 1.82311E-26
4.87074E-02 1.51914E-26
5.06030E-02 1.27137E-26
5.25328E-02 1.06925E-26
5.44967E-02 9.04154E-27
5.64946E-02 7.69027E-27
5.85262E-02 6.58137E-27
6.05914E-02 5.66822E-27
6.26901E-02 4.91297E-27
6.48222E-02 4.28502E-27
6.69873E-02 3.75967E-27
6.91854E-02 3.31702E-27
7.14163E-02 2.94113E-27
7.36799E-02 2.61924E-27
7.59760E-02 2.34116E-27
7.83043E-02 2.09881E-27
8.06647E-02 1.88579E-27
8.30571E-02 1.69704E-27
8.54812E-02 1.52856E-27
8.79369E-02 1.37721E-27
9.04240E-02 1.24053E-27
9.29422E-02 1.11657E-27
9.54915E-02 1.00379E-27
9.80716E-02 9.00952E-28
1.00682E-01 8.07080E-28
1.03323E-01 7.21363E-28
1.05995E-01 6.43129E-28
1.08696E-01 5.71806E-28
1.11427E-01 5.06898E-28
1.14188E-01 4.47959E-28
1.16978E-01 3.94584E-28
1.19797E-01 3.46396E-28
1.22645E-01 3.03039E-28
1.25522E-01 2.64173E-28
1.28428E-01 2.29470E-28
1.31361E-01 1.98616E-28
1.34323E-01 1.71304E-28
1.37313E-01 1.47241E-28
1.40330E-01 1.26144E-28
1.43375E-01 1.07742E-28
1.46447E-01 9.17755E-29
1.49545E-01 7.79992E-29
1.52671E-01 6.61813E-29
1.55823E-01 5.61045E-29
1.59001E-01 4.75660E-29
1.62205E-01 4.03780E-29
1.65435E-01 3.43679E-29
1.68690E-01 2.93774E-29
1.71970E-01 2.52630E-29
1.75276E-01 2.18952E-29
1.78606E-01 1.91580E-29
1.81961E-01 1.69484E-29
1.85340E-01 1.51753E-29
1.88743E-01 1.37592E-29
1.92169E-01 1.26310E-29
1.95619E-01 1.17315E-29
1.99092E-01 1.10102E-29
2.02589E-01 1.04247E-29
2.06107E-01 9.93982E-30
2.09649E-01 9.52676E-30
2.13212E-01 9.16238E-30
2.16797E-01 8.82847E-30
2.20404E-01 8.51105E-30
2.24032E-01 8.19980E-30
2.27680E-01 7.88745E-30
2.31350E-01 7.56927E-30
2.35040E-01 7.24261E-30
2.38751E-01 6.90646E-30
2.42481E-01 6.56113E-30
2.46231E-01 6.20788E-30
2.50000E-01 5.84866E-30
2.53788E-01 5.48590E-30
2.57595E-01 5.12229E-30
2.61421E-01 4.76062E-30
2.65264E-01 4.40365E-30
2.69126E-01 4.05403E-30
2.73005E-01 3.71421E-30
2.76901E-01 3.38635E-30
2.80814E-01 3.07235E-30
2.84744E-01 2.77377E-30
2.88691E-01 2.49187E-30
2.92653E-01 2.22757E-30
2.96632E-01 1.98149E-30
3.00625E-01 1.75395E-30
3.04634E-01 1.54502E-30
3.08658E-01 1.35450E-30
3.12697E-01 1.18202E-30
3.16749E-01 1.02698E-30
3.20816E-01 8.88667E-31
3.24896E-01 7.66215E-31
3.28990E-01 6.58679E-31
3.33097E-01 5.65037E-31
3.37216E-01 4.84225E-31
3.41348E-01 4.15153E-31
3.45492E-01 3.56728E-31
3.49647E-01 3.07869E-31
3.53814E-01 2.67522E-31
3.57992E-01 2.34675E-31
3.62181E-01 2.08362E-31
3.66381E-01 1.87675E-31
3.70590E-01 1.71770E-31
3.74810E-01 1.59869E-31
3.79039E-01 1.51261E-31
3.83277E-01 1.45306E-31
3.87524E-01 1.41434E-31
3.91780E-01 1.39139E-31
3.96044E-01 1.37985E-31
4.00316E-01 1.37593E-31
4.04596E-01 1.37645E-31
4.08882E-01 1.37877E-31
4.13176E-01 1.38074E-31
4.17476E-01 1.38066E-31
4.21783E-01 1.37724E-31
4.26095E-01 1.36955E-31
4.30413E-01 1.35698E-31
4.34737E-01 1.33917E-31
4.39065E-01 1.31603E-31
4.43398E-01 1.28762E-31
4.47736E-01 1.25419E-31
4.52077E-01 1.21610E-31
4.56422E-01 1.17380E-31
4.60770E-01 1.12781E-31
4.65122E-01 1.07872E-31
4.69476E-01 1.02710E-31
4.73832E-01 9.73560E-32
4.78190E-01 9.18693E-32
4.82550E-01 8.63067E-32
4.86912E-01 8.07226E-32
4.91274E-01 7.51672E-32
4.95637E-01 6.96867E-32
5.00000E-01 6.43223E-32
5.04363E-01 5.91105E-32
5.08726E-01 5.40825E-32
5.13088E-01 4.92647E-32
5.17450E-01 4.46784E-32
5.21810E-01 4.03403E-32
5.26168E-01 3.62623E-32
5.30524E-01 3.24526E-32
5.34878E-01 2.89153E-32
5.39230E-01 2.56508E-32
5.43578E-01 2.26569E-32
5.47923E-01 1.99283E-32
5.52264E-01 1.74574E-32
5.56602E-01 1.52348E-32
5.60935E-01 1.32492E-32
5.65263E-01 1.14883E-32
5.69587E-01 9.93855E-33
5.73905E-01 8.58597E-33
5.78217E-01 7.41595E-33
5.82524E-01 6.41378E-33
5.86824E-01 5.56472E-33
5.91118E-01 4.85427E-33
5.95404E-01 4.26825E-33
5.99684E-01 3.79299E-33
6.03956E-01 3.41540E-33
6.08220E-01 3.12306E-33
6.12476E-01 2.90433E-33
6.16723E-01 2.74832E-33
6.20961E-01 2.64500E-33
6.25190E-01 2.58516E-33
6.29410E-01 2.56042E-33
6.33619E-01 2.56325E-33
6.37819E-01 2.58692E-33
6.42008E-01 2.62549E-33
6.46186E-01 2.67376E-33
6.50353E-01 2.72724E-33
6.54508E-01 2.78212E-33
6.58652E-01 2.83520E-33
6.62784E-01 2.88386E-33
6.66903E-01 2.92598E-33
6.71010E-01 2.95994E-33
6.75104E-01 2.98454E-33
6.79184E-01 2.99894E-33
6.83251E-01 3.00267E-33
6.87303E-01 2.99550E-33
6.91342E-01 2.97750E-33
6.95366E-01 2.94891E-33
6.99375E-01 2.91015E-33
7.03368E-01 2.86181E-33
7.07347E-01 2.80455E-33
7.11309E-01 2.73914E-33
7.15256E-01 2.66640E-33
7.19186E-01 2.58719E-33
7.23099E-01 2.50239E-33
7.26995E-01 2.41287E-33
7.30874E-01 2.31951E-33
7.34736E-01 2.22314E-33
7.38579E-01 2.12458E-33
7.42405E-01 2.02459E-33
7.46212E-01 1.92390E-33
7.50000E-01 1.82318E-33
7.53769E-01 1.72304E-33
7.57519E-01 1.62404E-33
7.61249E-01 1.52667E-33
7.64960E-01 1.43140E-33
7.68650E-01 1.33859E-33
7.72320E-01 1.24858E-33
7.75968E-01 1.16165E-33
7.79596E-01 1.07803E-33
7.83203E-01 9.97896E-34
7.86788E-01 9.21385E-34
7.90351E-01 8.48591E-34
7.93893E-01 7.79574E-34
7.97411E-01 7.14355E-34
8.00908E-01 6.52928E-34
8.04381E-01 5.95256E-34
8.07831E-01 5.41282E-34
8.11257E-01 4.90926E-34
8.14660E-01 4.44090E-34
8.18039E-01 4.00661E-34
8.21394E-01 3.60514E-34
8.24724E-01 3.23515E-34
8.28030E-01 2.89522E-34
8.31310E-01 2.58386E-34
8.34565E-01 2.29956E-34
8.37795E-01 2.04079E-34
8.40999E-01 1.80602E-34
8.44177E-01 1.59370E-34
8.47329E-01 1.40236E-34
8.50455E-01 1.23050E-34
8.53553E-01 1.07670E-34
8.56625E-01 9.39567E-35
8.59670E-01 8.17771E-35
8.62687E-01 7.10035E-35
8.65677E-01 6.15141E-35
8.68639E-01 5.31938E-35
8.71572E-01 4.59334E-35
8.74478E-01 3.96306E-35
8.77355E-01 3.41895E-35
8.80203E-01 2.95206E-35
8.83022E-01 2.55409E-35
8.85812E-01 2.21734E-35
8.88573E-01 1.93473E-35
8.91304E-01 1.69972E-35
8.94005E-01 1.50638E-35
8.96677E-01 1.34927E-35
8.99318E-01 1.22345E-35
9.01928E-01 1.12449E-35
9.04508E-01 1.04836E-35
9.07058E-01 9.91471E-36
9.09576E-01 9.50621E-36
9.12063E-01 9.22964E-36
9.14519E-01 9.05987E-36
9.16943E-01 8.97487E-36
9.19335E-01 8.95537E-36
9.21696E-01 8.98462E-36
9.24024E-01 9.04830E-36
9.26320E-01 9.13420E-36
9.28584E-01 9.23180E-36
9.30815E-01 9.33266E-36
9.33013E-01 9.42945E-36
9.35178E-01 9.51652E-36
9.37310E-01 9.58928E-36
9.39409E-01 9.64397E-36
9.41474E-01 9.67814E-36
9.43505E-01 9.68996E-36
9.45503E-01 9.67836E-36
9.47467E-01 9.64253E-36
9.49397E-01 9.58260E-36
9.51293E-01 9.49880E-36
9.53154E-01 9.39188E-36
9.54981E-01 9.26268E-36
9.56773E-01 9.11255E-36
9.58530E-01 8.94263E-36
9.60252E-01 8.75453E-36
9.61940E-01 8.54960E-36
9.63592E-01 8.32969E-36
9.65209E-01 8.09630E-36
9.66790E-01 7.85105E-36
9.68336E-01 7.59554E-36
9.69846E-01 7.33147E-36
9.71321E-01 7.06017E-36
9.72759E-01 6.78327E-36
9.74162E-01 6.50199E-36
9.75528E-01 6.21797E-36
9.76858E-01 5.93226E-36
9.78152E-01 5.64608E-36
9.79410E-01 5.36058E-36
9.80631E-01 5.07679E-36
9.81815E-01 4.79568E-36
9.82963E-01 4.51806E-36
9.84074E-01 4.24480E-36
9.85148E-01 3.97658E-36
9.86185E-01 3.71408E-36
9.87185E-01 3.45796E-36
9.88148E-01 3.20870E-36
9.89074E-01 2.96676E-36
9.89962E-01 2.73279E-36
9.90814E-01 2.50695E-36
9.91627E-01 2.28956E-36
9.92404E-01 2.08112E-36
9.93143E-01 1.88174E-36
9.93844E-01 1.69174E-36
9.94508E-01 1.51123E-36
9.95134E-01 1.34050E-36
9.95722E-01 1.17957E-36
9.96273E-01 1.02866E-36
9.96786E-01 8.87843E-37
9.97261E-01 7.57214E-37
9.97698E-01 6.36809E-37
9.98097E-01 5.26722E-37
9.98459E-01 4.27030E-37
9.98782E-01 3.37714E-37
9.99067E-01 2.58896E-37
9.99315E-01 1.90512E-37
9.99524E-01 1.32620E-37
9.99695E-01 8.52424E-38
9.99829E-01 4.83794E-38
9.99924E-01 2.20394E-38
9.99981E-01 6.24065E-39
1.00000E+00 9.70359E-40
