 #
 # Subroutine ELSEPA. Elastic scattering of electrons and positrons
 #                    by neutral atoms and positive ions
 #
 # Projectile: electron
 # Kinetic energy = 4.50000E+07 eV = 1.65372E+06 a.u.
 #
 # WARNING: High-energy factorization with free-atom DF screening.
 #          Absorption, polarization and exchange corrections are
 #          switched off.
 #          Phase shifts are calculated for the bare nucleus.
 #          Scattering amplitudes are not evaluated.
 #
 # Element: At,  Z =  85,  atomic weight = 2.09987E+02 g/mol
 #
 # Nuclear model: Fermi distribution
 #                Average radius = 6.35987E-13 cm
 #                Skin thickness = 5.46000E-14 cm
 #
 # Number of electrons = 85
 #
 # Total elastic cross section = 9.38071E-18 cm**2 = 3.34991E-01 a0**2
 # 1st transport cross section = 6.65800E-24 cm**2 = 2.37762E-07 a0**2
 # 2nd transport cross section = 1.94134E-23 cm**2 = 6.93266E-07 a0**2
 #
 #
 # Differential cross section:                       MU=(1-COS(THETA))/2
 #
 #  THETA        MU          DCS          DCS        Sherman      error
 #  (deg)                 (cm**2/sr)   (a0**2/sr)    function
 #----------------------------------------------------------------------
0.00000E+00 1.34449E-10
7.61557E-13 1.34395E-10
1.18994E-12 1.34366E-10
1.71346E-12 1.34330E-10
2.33225E-12 1.34287E-10
3.04617E-12 1.34238E-10
3.85530E-12 1.34182E-10
4.75964E-12 1.34120E-10
5.75917E-12 1.34051E-10
6.85391E-12 1.33976E-10
8.04379E-12 1.33895E-10
9.32893E-12 1.33807E-10
1.07092E-11 1.33712E-10
1.21847E-11 1.33611E-10
1.37554E-11 1.33504E-10
1.54213E-11 1.33391E-10
1.71823E-11 1.33271E-10
1.90386E-11 1.33145E-10
2.09900E-11 1.33013E-10
2.30367E-11 1.32874E-10
2.51785E-11 1.32729E-10
2.74156E-11 1.32578E-10
2.97478E-11 1.32421E-10
3.21752E-11 1.32258E-10
3.46979E-11 1.32089E-10
3.73157E-11 1.31914E-10
4.00286E-11 1.31733E-10
4.28368E-11 1.31546E-10
4.57402E-11 1.31353E-10
4.87388E-11 1.31154E-10
5.18325E-11 1.30949E-10
5.50215E-11 1.30739E-10
5.83057E-11 1.30523E-10
6.16850E-11 1.30301E-10
6.51595E-11 1.30073E-10
6.87293E-11 1.29840E-10
7.23943E-11 1.29602E-10
7.61544E-11 1.29358E-10
1.18991E-10 1.26620E-10
1.71347E-10 1.23412E-10
2.33223E-10 1.19765E-10
3.04617E-10 1.15766E-10
3.85531E-10 1.11491E-10
4.75965E-10 1.07011E-10
5.75917E-10 1.02396E-10
6.85389E-10 9.76936E-11
8.04380E-10 9.29368E-11
9.32891E-10 8.82130E-11
1.07092E-09 8.35658E-11
1.21847E-09 7.90308E-11
1.37554E-09 7.46361E-11
1.54213E-09 7.03860E-11
1.71823E-09 6.62942E-11
1.90386E-09 6.23960E-11
2.09900E-09 5.86970E-11
2.30367E-09 5.51989E-11
2.51785E-09 5.19002E-11
2.74156E-09 4.87846E-11
2.97478E-09 4.58532E-11
3.21752E-09 4.31091E-11
3.46978E-09 4.05438E-11
3.73156E-09 3.81481E-11
4.00286E-09 3.59123E-11
4.28368E-09 3.38192E-11
4.57402E-09 3.18660E-11
4.87388E-09 3.00469E-11
5.18326E-09 2.83525E-11
5.50215E-09 2.67739E-11
5.83057E-09 2.53029E-11
6.16850E-09 2.39266E-11
6.51596E-09 2.26427E-11
6.87293E-09 2.14452E-11
7.23942E-09 2.03276E-11
7.61544E-09 1.92836E-11
1.18991E-08 1.17702E-11
1.71347E-08 7.70486E-12
2.33223E-08 5.22137E-12
3.04617E-08 3.67034E-12
3.85531E-08 2.65690E-12
4.75965E-08 1.97162E-12
5.75917E-08 1.49541E-12
6.85389E-08 1.15564E-12
8.04380E-08 9.07369E-13
9.32891E-08 7.23717E-13
1.07092E-07 5.84989E-13
1.21847E-07 4.78267E-13
1.37554E-07 3.94851E-13
1.54213E-07 3.28549E-13
1.71823E-07 2.75265E-13
1.90386E-07 2.32251E-13
2.09900E-07 1.97221E-13
2.30367E-07 1.68471E-13
2.51785E-07 1.44721E-13
2.74156E-07 1.24994E-13
2.97478E-07 1.08374E-13
3.21752E-07 9.44303E-14
3.46978E-07 8.26848E-14
3.73156E-07 7.27386E-14
4.00286E-07 6.42705E-14
4.28368E-07 5.70106E-14
4.57402E-07 5.07585E-14
4.87388E-07 4.53505E-14
5.18325E-07 4.06508E-14
5.50215E-07 3.65494E-14
5.83057E-07 3.29566E-14
6.16850E-07 2.97942E-14
6.51596E-07 2.70061E-14
6.87293E-07 2.45409E-14
7.23942E-07 2.23544E-14
7.61543E-07 2.04090E-14
1.18991E-06 9.06800E-15
1.71347E-06 4.63310E-15
2.33223E-06 2.61076E-15
3.04617E-06 1.58143E-15
3.85531E-06 1.01250E-15
4.75964E-06 6.77567E-16
5.75916E-06 4.70246E-16
6.85388E-06 3.36500E-16
8.04378E-06 2.47143E-16
9.32888E-06 1.85613E-16
1.07092E-05 1.42121E-16
1.21846E-05 1.10669E-16
1.37553E-05 8.74629E-17
1.54212E-05 7.00347E-17
1.71822E-05 5.67386E-17
1.90385E-05 4.64217E-17
2.09899E-05 3.83972E-17
2.30365E-05 3.20258E-17
2.51783E-05 2.69124E-17
2.74153E-05 2.27721E-17
2.97475E-05 1.93942E-17
3.21749E-05 1.66193E-17
3.46974E-05 1.43246E-17
3.73152E-05 1.24142E-17
4.00281E-05 1.08132E-17
4.28362E-05 9.46269E-18
4.57395E-05 8.31650E-18
4.87380E-05 7.33830E-18
5.18317E-05 6.49934E-18
5.50205E-05 5.77663E-18
5.83045E-05 5.15155E-18
6.16838E-05 4.60888E-18
6.51582E-05 4.13599E-18
6.87277E-05 3.72241E-18
7.23925E-05 3.35937E-18
7.61524E-05 3.03840E-18
9.21439E-05 2.08432E-18
1.09658E-04 1.47721E-18
1.28695E-04 1.07613E-18
1.49255E-04 8.02470E-19
1.71338E-04 6.10609E-19
1.94942E-04 4.72859E-19
2.20070E-04 3.71887E-19
2.46720E-04 2.96510E-19
2.74892E-04 2.39320E-19
3.04586E-04 1.95289E-19
3.35803E-04 1.60949E-19
3.68542E-04 1.33844E-19
4.02802E-04 1.12221E-19
4.38585E-04 9.48001E-20
4.75889E-04 8.06373E-20
5.14715E-04 6.90287E-20
5.55063E-04 5.94394E-20
5.96931E-04 5.14628E-20
6.40321E-04 4.47834E-20
6.85233E-04 3.91558E-20
7.31665E-04 3.43876E-20
7.79618E-04 3.03254E-20
8.29092E-04 2.68477E-20
8.80086E-04 2.38560E-20
9.32601E-04 2.12710E-20
9.86636E-04 1.90282E-20
1.04219E-03 1.70743E-20
1.09927E-03 1.53660E-20
1.15786E-03 1.38669E-20
1.21797E-03 1.25470E-20
1.27961E-03 1.13812E-20
1.34276E-03 1.03483E-20
1.40743E-03 9.43065E-21
1.47362E-03 8.61295E-21
1.54133E-03 7.88247E-21
1.61056E-03 7.22823E-21
1.68131E-03 6.64088E-21
1.75357E-03 6.11235E-21
1.82735E-03 5.63568E-21
1.90265E-03 5.20489E-21
1.97947E-03 4.81476E-21
2.05780E-03 4.46075E-21
2.13765E-03 4.13891E-21
2.21902E-03 3.84578E-21
2.30190E-03 3.57835E-21
2.38630E-03 3.33394E-21
2.47222E-03 3.11021E-21
2.55965E-03 2.90508E-21
2.64859E-03 2.71673E-21
2.73905E-03 2.54353E-21
2.83103E-03 2.38403E-21
2.92452E-03 2.23695E-21
3.01952E-03 2.10114E-21
3.11604E-03 1.97558E-21
3.21407E-03 1.85934E-21
3.31362E-03 1.75161E-21
3.41468E-03 1.65165E-21
3.51725E-03 1.55879E-21
3.62133E-03 1.47242E-21
3.72692E-03 1.39202E-21
3.83403E-03 1.31710E-21
3.94265E-03 1.24719E-21
4.05278E-03 1.18192E-21
4.16442E-03 1.12090E-21
4.27757E-03 1.06382E-21
4.39223E-03 1.01036E-21
4.50840E-03 9.60262E-22
4.62608E-03 9.13267E-22
4.74527E-03 8.69142E-22
4.86597E-03 8.27680E-22
4.98817E-03 7.88697E-22
5.11188E-03 7.52005E-22
5.23711E-03 7.17448E-22
5.36383E-03 6.84882E-22
5.49207E-03 6.54163E-22
5.62181E-03 6.25168E-22
5.75306E-03 5.97784E-22
5.88581E-03 5.71903E-22
6.02007E-03 5.47423E-22
6.15583E-03 5.24258E-22
6.29310E-03 5.02322E-22
6.43187E-03 4.81535E-22
6.57214E-03 4.61827E-22
6.71392E-03 4.43131E-22
6.85720E-03 4.25384E-22
7.00198E-03 4.08528E-22
7.14827E-03 3.92511E-22
7.29605E-03 3.77282E-22
7.44534E-03 3.62794E-22
7.59612E-03 3.49005E-22
7.97965E-03 3.17330E-22
8.37255E-03 2.89214E-22
8.77480E-03 2.64184E-22
9.18641E-03 2.41840E-22
9.60736E-03 2.21840E-22
1.00376E-02 2.03893E-22
1.04773E-02 1.87748E-22
1.09262E-02 1.73192E-22
1.13844E-02 1.60038E-22
1.18520E-02 1.48126E-22
1.23288E-02 1.37318E-22
1.28150E-02 1.27492E-22
1.33104E-02 1.18544E-22
1.38150E-02 1.10368E-22
1.43290E-02 1.02893E-22
1.48521E-02 9.60485E-23
1.53845E-02 8.97698E-23
1.59262E-02 8.40015E-23
1.64770E-02 7.86941E-23
1.70371E-02 7.38037E-23
1.76063E-02 6.92911E-23
1.81848E-02 6.51214E-23
1.87724E-02 6.12635E-23
1.93692E-02 5.76896E-23
1.99751E-02 5.43746E-23
2.05901E-02 5.12961E-23
2.12143E-02 4.84339E-23
2.18476E-02 4.57699E-23
2.24900E-02 4.32876E-23
2.31415E-02 4.09722E-23
2.38021E-02 3.88103E-23
2.44717E-02 3.67896E-23
2.51504E-02 3.48992E-23
2.58382E-02 3.31290E-23
2.65349E-02 3.14698E-23
2.72407E-02 2.99132E-23
2.79555E-02 2.84518E-23
2.86793E-02 2.70785E-23
2.94120E-02 2.57869E-23
3.01537E-02 2.45713E-23
3.09043E-02 2.34263E-23
3.16639E-02 2.23469E-23
3.24324E-02 2.13287E-23
3.32098E-02 2.03675E-23
3.39961E-02 1.94596E-23
3.47912E-02 1.86012E-23
3.55952E-02 1.77894E-23
3.64081E-02 1.70209E-23
3.72297E-02 1.62930E-23
3.80602E-02 1.56033E-23
3.88995E-02 1.49492E-23
3.97476E-02 1.43286E-23
4.06044E-02 1.37394E-23
4.14700E-02 1.31797E-23
4.23443E-02 1.26478E-23
4.32273E-02 1.21421E-23
4.41190E-02 1.16609E-23
4.50194E-02 1.12028E-23
4.59284E-02 1.07666E-23
4.68461E-02 1.03510E-23
4.87074E-02 9.57687E-24
5.06030E-02 8.87217E-24
5.25328E-02 8.22951E-24
5.44967E-02 7.64245E-24
5.64946E-02 7.10530E-24
5.85262E-02 6.61307E-24
6.05914E-02 6.16133E-24
6.26901E-02 5.74616E-24
6.48222E-02 5.36408E-24
6.69873E-02 5.01198E-24
6.91854E-02 4.68711E-24
7.14163E-02 4.38699E-24
7.36799E-02 4.10942E-24
7.59760E-02 3.85241E-24
7.83043E-02 3.61417E-24
8.06647E-02 3.39312E-24
8.30571E-02 3.18779E-24
8.54812E-02 2.99689E-24
8.79369E-02 2.81924E-24
9.04240E-02 2.65376E-24
9.29422E-02 2.49949E-24
9.54915E-02 2.35554E-24
9.80716E-02 2.22112E-24
1.00682E-01 2.09550E-24
1.03323E-01 1.97801E-24
1.05995E-01 1.86804E-24
1.08696E-01 1.76503E-24
1.11427E-01 1.66849E-24
1.14188E-01 1.57794E-24
1.16978E-01 1.49296E-24
1.19797E-01 1.41315E-24
1.22645E-01 1.33816E-24
1.25522E-01 1.26764E-24
1.28428E-01 1.20131E-24
1.31361E-01 1.13887E-24
1.34323E-01 1.08006E-24
1.37313E-01 1.02465E-24
1.40330E-01 9.72403E-25
1.43375E-01 9.23126E-25
1.46447E-01 8.76625E-25
1.49545E-01 8.32723E-25
1.52671E-01 7.91256E-25
1.55823E-01 7.52072E-25
1.59001E-01 7.15030E-25
1.62205E-01 6.79997E-25
1.65435E-01 6.46853E-25
1.68690E-01 6.15482E-25
1.71970E-01 5.85780E-25
1.75276E-01 5.57647E-25
1.78606E-01 5.30990E-25
1.81961E-01 5.05724E-25
1.85340E-01 4.81767E-25
1.88743E-01 4.59045E-25
1.92169E-01 4.37487E-25
1.95619E-01 4.17028E-25
1.99092E-01 3.97605E-25
2.02589E-01 3.79160E-25
2.06107E-01 3.61639E-25
2.09649E-01 3.44992E-25
2.13212E-01 3.29171E-25
2.16797E-01 3.14130E-25
2.20404E-01 2.99827E-25
2.24032E-01 2.86224E-25
2.27680E-01 2.73282E-25
2.31350E-01 2.60967E-25
2.35040E-01 2.49245E-25
2.38751E-01 2.38086E-25
2.42481E-01 2.27460E-25
2.46231E-01 2.17339E-25
2.50000E-01 2.07698E-25
2.53788E-01 1.98512E-25
2.57595E-01 1.89758E-25
2.61421E-01 1.81414E-25
2.65264E-01 1.73459E-25
2.69126E-01 1.65874E-25
2.73005E-01 1.58640E-25
2.76901E-01 1.51740E-25
2.80814E-01 1.45158E-25
2.84744E-01 1.38877E-25
2.88691E-01 1.32883E-25
2.92653E-01 1.27162E-25
2.96632E-01 1.21700E-25
3.00625E-01 1.16486E-25
3.04634E-01 1.11507E-25
3.08658E-01 1.06752E-25
3.12697E-01 1.02211E-25
3.16749E-01 9.78722E-26
3.20816E-01 9.37273E-26
3.24896E-01 8.97667E-26
3.28990E-01 8.59819E-26
3.33097E-01 8.23646E-26
3.37216E-01 7.89070E-26
3.41348E-01 7.56016E-26
3.45492E-01 7.24414E-26
3.49647E-01 6.94197E-26
3.53814E-01 6.65301E-26
3.57992E-01 6.37666E-26
3.62181E-01 6.11233E-26
3.66381E-01 5.85949E-26
3.70590E-01 5.61760E-26
3.74810E-01 5.38617E-26
3.79039E-01 5.16472E-26
3.83277E-01 4.95282E-26
3.87524E-01 4.75002E-26
3.91780E-01 4.55592E-26
3.96044E-01 4.37013E-26
4.00316E-01 4.19228E-26
4.04596E-01 4.02201E-26
4.08882E-01 3.85900E-26
4.13176E-01 3.70291E-26
4.17476E-01 3.55344E-26
4.21783E-01 3.41031E-26
4.26095E-01 3.27322E-26
4.30413E-01 3.14193E-26
4.34737E-01 3.01616E-26
4.39065E-01 2.89568E-26
4.43398E-01 2.78026E-26
4.47736E-01 2.66969E-26
4.52077E-01 2.56374E-26
4.56422E-01 2.46221E-26
4.60770E-01 2.36493E-26
4.65122E-01 2.27169E-26
4.69476E-01 2.18234E-26
4.73832E-01 2.09670E-26
4.78190E-01 2.01460E-26
4.82550E-01 1.93591E-26
4.86912E-01 1.86047E-26
4.91274E-01 1.78814E-26
4.95637E-01 1.71879E-26
5.00000E-01 1.65230E-26
5.04363E-01 1.58854E-26
5.08726E-01 1.52739E-26
5.13088E-01 1.46875E-26
5.17450E-01 1.41251E-26
5.21810E-01 1.35856E-26
5.26168E-01 1.30681E-26
5.30524E-01 1.25717E-26
5.34878E-01 1.20955E-26
5.39230E-01 1.16385E-26
5.43578E-01 1.12001E-26
5.47923E-01 1.07794E-26
5.52264E-01 1.03757E-26
5.56602E-01 9.98826E-27
5.60935E-01 9.61640E-27
5.65263E-01 9.25947E-27
5.69587E-01 8.91684E-27
5.73905E-01 8.58792E-27
5.78217E-01 8.27214E-27
5.82524E-01 7.96894E-27
5.86824E-01 7.67781E-27
5.91118E-01 7.39823E-27
5.95404E-01 7.12973E-27
5.99684E-01 6.87184E-27
6.03956E-01 6.62413E-27
6.08220E-01 6.38618E-27
6.12476E-01 6.15757E-27
6.16723E-01 5.93792E-27
6.20961E-01 5.72686E-27
6.25190E-01 5.52403E-27
6.29410E-01 5.32910E-27
6.33619E-01 5.14173E-27
6.37819E-01 4.96162E-27
6.42008E-01 4.78847E-27
6.46186E-01 4.62198E-27
6.50353E-01 4.46189E-27
6.54508E-01 4.30794E-27
6.58652E-01 4.15986E-27
6.62784E-01 4.01742E-27
6.66903E-01 3.88038E-27
6.71010E-01 3.74853E-27
6.75104E-01 3.62166E-27
6.79184E-01 3.49956E-27
6.83251E-01 3.38203E-27
6.87303E-01 3.26889E-27
6.91342E-01 3.15996E-27
6.95366E-01 3.05506E-27
6.99375E-01 2.95404E-27
7.03368E-01 2.85674E-27
7.07347E-01 2.76301E-27
7.11309E-01 2.67269E-27
7.15256E-01 2.58566E-27
7.19186E-01 2.50178E-27
7.23099E-01 2.42092E-27
7.26995E-01 2.34296E-27
7.30874E-01 2.26779E-27
7.34736E-01 2.19529E-27
7.38579E-01 2.12535E-27
7.42405E-01 2.05788E-27
7.46212E-01 1.99277E-27
7.50000E-01 1.92993E-27
7.53769E-01 1.86927E-27
7.57519E-01 1.81070E-27
7.61249E-01 1.75415E-27
7.64960E-01 1.69952E-27
7.68650E-01 1.64675E-27
7.72320E-01 1.59575E-27
7.75968E-01 1.54647E-27
7.79596E-01 1.49884E-27
7.83203E-01 1.45278E-27
7.86788E-01 1.40824E-27
7.90351E-01 1.36515E-27
7.93893E-01 1.32347E-27
7.97411E-01 1.28314E-27
8.00908E-01 1.24411E-27
8.04381E-01 1.20632E-27
8.07831E-01 1.16973E-27
8.11257E-01 1.13429E-27
8.14660E-01 1.09996E-27
8.18039E-01 1.06670E-27
8.21394E-01 1.03446E-27
8.24724E-01 1.00322E-27
8.28030E-01 9.72924E-28
8.31310E-01 9.43545E-28
8.34565E-01 9.15050E-28
8.37795E-01 8.87404E-28
8.40999E-01 8.60577E-28
8.44177E-01 8.34539E-28
8.47329E-01 8.09261E-28
8.50455E-01 7.84717E-28
8.53553E-01 7.60880E-28
8.56625E-01 7.37725E-28
8.59670E-01 7.15228E-28
8.62687E-01 6.93366E-28
8.65677E-01 6.72117E-28
8.68639E-01 6.51459E-28
8.71572E-01 6.31373E-28
8.74478E-01 6.11840E-28
8.77355E-01 5.92840E-28
8.80203E-01 5.74356E-28
8.83022E-01 5.56372E-28
8.85812E-01 5.38869E-28
8.88573E-01 5.21834E-28
8.91304E-01 5.05251E-28
8.94005E-01 4.89106E-28
8.96677E-01 4.73386E-28
8.99318E-01 4.58076E-28
9.01928E-01 4.43164E-28
9.04508E-01 4.28640E-28
9.07058E-01 4.14490E-28
9.09576E-01 4.00704E-28
9.12063E-01 3.87272E-28
9.14519E-01 3.74184E-28
9.16943E-01 3.61429E-28
9.19335E-01 3.48998E-28
9.21696E-01 3.36883E-28
9.24024E-01 3.25076E-28
9.26320E-01 3.13567E-28
9.28584E-01 3.02350E-28
9.30815E-01 2.91417E-28
9.33013E-01 2.80761E-28
9.35178E-01 2.70375E-28
9.37310E-01 2.60252E-28
9.39409E-01 2.50387E-28
9.41474E-01 2.40774E-28
9.43505E-01 2.31406E-28
9.45503E-01 2.22279E-28
9.47467E-01 2.13387E-28
9.49397E-01 2.04725E-28
9.51293E-01 1.96289E-28
9.53154E-01 1.88073E-28
9.54981E-01 1.80075E-28
9.56773E-01 1.72288E-28
9.58530E-01 1.64711E-28
9.60252E-01 1.57338E-28
9.61940E-01 1.50166E-28
9.63592E-01 1.43192E-28
9.65209E-01 1.36413E-28
9.66790E-01 1.29824E-28
9.68336E-01 1.23424E-28
9.69846E-01 1.17210E-28
9.71321E-01 1.11178E-28
9.72759E-01 1.05326E-28
9.74162E-01 9.96524E-29
9.75528E-01 9.41536E-29
9.76858E-01 8.88278E-29
9.78152E-01 8.36728E-29
9.79410E-01 7.86867E-29
9.80631E-01 7.38674E-29
9.81815E-01 6.92132E-29
9.82963E-01 6.47222E-29
9.84074E-01 6.03929E-29
9.85148E-01 5.62235E-29
9.86185E-01 5.22126E-29
9.87185E-01 4.83588E-29
9.88148E-01 4.46607E-29
9.89074E-01 4.11170E-29
9.89962E-01 3.77265E-29
9.90814E-01 3.44881E-29
9.91627E-01 3.14007E-29
9.92404E-01 2.84632E-29
9.93143E-01 2.56748E-29
9.93844E-01 2.30345E-29
9.94508E-01 2.05414E-29
9.95134E-01 1.81949E-29
9.95722E-01 1.59940E-29
9.96273E-01 1.39383E-29
9.96786E-01 1.20270E-29
9.97261E-01 1.02595E-29
9.97698E-01 8.63538E-30
9.98097E-01 7.15407E-30
9.98459E-01 5.81515E-30
9.98782E-01 4.61821E-30
9.99067E-01 3.56292E-30
9.99315E-01 2.64895E-30
9.99524E-01 1.87605E-30
9.99695E-01 1.24397E-30
9.99829E-01 7.52550E-31
9.99924E-01 4.01635E-31
9.99981E-01 1.91127E-31
1.00000E+00 1.20963E-31
