 #
 # Subroutine ELSEPA. Elastic scattering of electrons and positrons
 #                    by neutral atoms and positive ions
 #
 # Projectile: electron
 # Kinetic energy = 6.00000E+07 eV = 2.20496E+06 a.u.
 #
 # WARNING: High-energy factorization with free-atom DF screening.
 #          Absorption, polarization and exchange corrections are
 #          switched off.
 #          Phase shifts are calculated for the bare nucleus.
 #          Scattering amplitudes are not evaluated.
 #
 # Element: At,  Z =  85,  atomic weight = 2.09987E+02 g/mol
 #
 # Nuclear model: Fermi distribution
 #                Average radius = 6.35987E-13 cm
 #                Skin thickness = 5.46000E-14 cm
 #
 # Number of electrons = 85
 #
 # Total elastic cross section = 9.37463E-18 cm**2 = 3.34774E-01 a0**2
 # 1st transport cross section = 3.76013E-24 cm**2 = 1.34277E-07 a0**2
 # 2nd transport cross section = 1.10709E-23 cm**2 = 3.95347E-07 a0**2
 #
 #
 # Differential cross section:                       MU=(1-COS(THETA))/2
 #
 #  THETA        MU          DCS          DCS        Sherman      error
 #  (deg)                 (cm**2/sr)   (a0**2/sr)    function
 #----------------------------------------------------------------------
0.00000E+00 2.37680E-10
7.61557E-13 2.37514E-10
1.18994E-12 2.37422E-10
1.71346E-12 2.37309E-10
2.33225E-12 2.37176E-10
3.04617E-12 2.37023E-10
3.85530E-12 2.36849E-10
4.75964E-12 2.36655E-10
5.75917E-12 2.36441E-10
6.85391E-12 2.36208E-10
8.04379E-12 2.35954E-10
9.32893E-12 2.35681E-10
1.07092E-11 2.35387E-10
1.21847E-11 2.35075E-10
1.37554E-11 2.34743E-10
1.54213E-11 2.34391E-10
1.71823E-11 2.34021E-10
1.90386E-11 2.33631E-10
2.09900E-11 2.33223E-10
2.30367E-11 2.32796E-10
2.51785E-11 2.32350E-10
2.74156E-11 2.31886E-10
2.97478E-11 2.31404E-10
3.21752E-11 2.30904E-10
3.46979E-11 2.30386E-10
3.73157E-11 2.29851E-10
4.00286E-11 2.29298E-10
4.28368E-11 2.28728E-10
4.57402E-11 2.28141E-10
4.87388E-11 2.27537E-10
5.18325E-11 2.26917E-10
5.50215E-11 2.26280E-10
5.83057E-11 2.25627E-10
6.16850E-11 2.24959E-10
6.51595E-11 2.24267E-10
6.87293E-11 2.23558E-10
7.23943E-11 2.22837E-10
7.61544E-11 2.22104E-10
1.18991E-10 2.14045E-10
1.71347E-10 2.04814E-10
2.33223E-10 1.94703E-10
3.04617E-10 1.84000E-10
3.85531E-10 1.72976E-10
4.75965E-10 1.61854E-10
5.75917E-10 1.50815E-10
6.85389E-10 1.40067E-10
8.04380E-10 1.29739E-10
9.32891E-10 1.19922E-10
1.07092E-09 1.10676E-10
1.21847E-09 1.02035E-10
1.37554E-09 9.40087E-11
1.54213E-09 8.65929E-11
1.71823E-09 7.97690E-11
1.90386E-09 7.35008E-11
2.09900E-09 6.77605E-11
2.30367E-09 6.25212E-11
2.51785E-09 5.77447E-11
2.74156E-09 5.33933E-11
2.97478E-09 4.94302E-11
3.21752E-09 4.58204E-11
3.46978E-09 4.25310E-11
3.73156E-09 3.95316E-11
4.00286E-09 3.67943E-11
4.28368E-09 3.42899E-11
4.57402E-09 3.19988E-11
4.87388E-09 2.99008E-11
5.18326E-09 2.79768E-11
5.50215E-09 2.62099E-11
5.83057E-09 2.45847E-11
6.16850E-09 2.30876E-11
6.51596E-09 2.16361E-11
6.87293E-09 2.02909E-11
7.23942E-09 1.90710E-11
7.61544E-09 1.79622E-11
1.18991E-08 1.04897E-11
1.71347E-08 6.53631E-12
2.33223E-08 4.27635E-12
3.04617E-08 2.91506E-12
3.85531E-08 2.05946E-12
4.75965E-08 1.49960E-12
5.75917E-08 1.11913E-12
6.85389E-08 8.52946E-13
8.04380E-08 6.61363E-13
9.32891E-08 5.20247E-13
1.07092E-07 4.14355E-13
1.21847E-07 3.33688E-13
1.37554E-07 2.71462E-13
1.54213E-07 2.23058E-13
1.71823E-07 1.84701E-13
1.90386E-07 1.54222E-13
2.09900E-07 1.29845E-13
2.30367E-07 1.10174E-13
2.51785E-07 9.41433E-14
2.74156E-07 8.09558E-14
2.97478E-07 7.00158E-14
3.21752E-07 6.08744E-14
3.46978E-07 5.31881E-14
3.73156E-07 4.66885E-14
4.00286E-07 4.11626E-14
4.28368E-07 3.64369E-14
4.57402E-07 3.23757E-14
4.87388E-07 2.88680E-14
5.18325E-07 2.58241E-14
5.50215E-07 2.31713E-14
5.83057E-07 2.08509E-14
6.16850E-07 1.88142E-14
6.51596E-07 1.70113E-14
6.87293E-07 1.54231E-14
7.23942E-07 1.40245E-14
7.61543E-07 1.27863E-14
1.18991E-06 5.59405E-15
1.71347E-06 2.82412E-15
2.33223E-06 1.57459E-15
3.04617E-06 9.45150E-16
3.85531E-06 6.00943E-16
4.75964E-06 4.00234E-16
5.75916E-06 2.76860E-16
6.85388E-06 1.97623E-16
8.04378E-06 1.44827E-16
9.32888E-06 1.08543E-16
1.07092E-05 8.29391E-17
1.21846E-05 6.44537E-17
1.37553E-05 5.08374E-17
1.54212E-05 4.06303E-17
1.71822E-05 3.28588E-17
1.90385E-05 2.68408E-17
2.09899E-05 2.21688E-17
2.30365E-05 1.84661E-17
2.51783E-05 1.54998E-17
2.74153E-05 1.31019E-17
2.97475E-05 1.11485E-17
3.21749E-05 9.54583E-18
3.46974E-05 8.22210E-18
3.73152E-05 7.12127E-18
4.00281E-05 6.19956E-18
4.28362E-05 5.42268E-18
4.57395E-05 4.76382E-18
4.87380E-05 4.20189E-18
5.18317E-05 3.72021E-18
5.50205E-05 3.30549E-18
5.83045E-05 2.94695E-18
6.16838E-05 2.63580E-18
6.51582E-05 2.36476E-18
6.87277E-05 2.12779E-18
7.23925E-05 1.91984E-18
7.61524E-05 1.73594E-18
9.21439E-05 1.18995E-18
1.09658E-04 8.42797E-19
1.28695E-04 6.13603E-19
1.49255E-04 4.57324E-19
1.71338E-04 3.47815E-19
1.94942E-04 2.69234E-19
2.20070E-04 2.11663E-19
2.46720E-04 1.68703E-19
2.74892E-04 1.36124E-19
3.04586E-04 1.11051E-19
3.35803E-04 9.15031E-20
3.68542E-04 7.60792E-20
4.02802E-04 6.37781E-20
4.38585E-04 5.38705E-20
4.75889E-04 4.58178E-20
5.14715E-04 3.92188E-20
5.55063E-04 3.37688E-20
5.96931E-04 2.92360E-20
6.40321E-04 2.54410E-20
6.85233E-04 2.22441E-20
7.31665E-04 1.95356E-20
7.79618E-04 1.72284E-20
8.29092E-04 1.52533E-20
8.80086E-04 1.35543E-20
9.32601E-04 1.20864E-20
9.86636E-04 1.08128E-20
1.04219E-03 9.70329E-21
1.09927E-03 8.73324E-21
1.15786E-03 7.88201E-21
1.21797E-03 7.13254E-21
1.27961E-03 6.47055E-21
1.34276E-03 5.88403E-21
1.40743E-03 5.36287E-21
1.47362E-03 4.89849E-21
1.54133E-03 4.48362E-21
1.61056E-03 4.11202E-21
1.68131E-03 3.77840E-21
1.75357E-03 3.47816E-21
1.82735E-03 3.20736E-21
1.90265E-03 2.96261E-21
1.97947E-03 2.74093E-21
2.05780E-03 2.53976E-21
2.13765E-03 2.35686E-21
2.21902E-03 2.19025E-21
2.30190E-03 2.03823E-21
2.38630E-03 1.89928E-21
2.47222E-03 1.77207E-21
2.55965E-03 1.65543E-21
2.64859E-03 1.54832E-21
2.73905E-03 1.44980E-21
2.83103E-03 1.35907E-21
2.92452E-03 1.27539E-21
3.01952E-03 1.19811E-21
3.11604E-03 1.12666E-21
3.21407E-03 1.06050E-21
3.31362E-03 9.99177E-22
3.41468E-03 9.42264E-22
3.51725E-03 8.89389E-22
3.62133E-03 8.40208E-22
3.72692E-03 7.94414E-22
3.83403E-03 7.51731E-22
3.94265E-03 7.11905E-22
4.05278E-03 6.74710E-22
4.16442E-03 6.39938E-22
4.27757E-03 6.07402E-22
4.39223E-03 5.76929E-22
4.50840E-03 5.48364E-22
4.62608E-03 5.21564E-22
4.74527E-03 4.96399E-22
4.86597E-03 4.72751E-22
4.98817E-03 4.50509E-22
5.11188E-03 4.29575E-22
5.23711E-03 4.09856E-22
5.36383E-03 3.91268E-22
5.49207E-03 3.73733E-22
5.62181E-03 3.57182E-22
5.75306E-03 3.41546E-22
5.88581E-03 3.26766E-22
6.02007E-03 3.12786E-22
6.15583E-03 2.99554E-22
6.29310E-03 2.87022E-22
6.43187E-03 2.75146E-22
6.57214E-03 2.63885E-22
6.71392E-03 2.53201E-22
6.85720E-03 2.43059E-22
7.00198E-03 2.33425E-22
7.14827E-03 2.24271E-22
7.29605E-03 2.15567E-22
7.44534E-03 2.07288E-22
7.59612E-03 1.99403E-22
7.97965E-03 1.81274E-22
8.37255E-03 1.65178E-22
8.77480E-03 1.50846E-22
9.18641E-03 1.38047E-22
9.60736E-03 1.26589E-22
1.00376E-02 1.16305E-22
1.04773E-02 1.07051E-22
1.09262E-02 9.87065E-23
1.13844E-02 9.11643E-23
1.18520E-02 8.43330E-23
1.23288E-02 7.81331E-23
1.28150E-02 7.24952E-23
1.33104E-02 6.73587E-23
1.38150E-02 6.26707E-23
1.43290E-02 5.83846E-23
1.48521E-02 5.44593E-23
1.53845E-02 5.08588E-23
1.59262E-02 4.75510E-23
1.64770E-02 4.45077E-23
1.70371E-02 4.17036E-23
1.76063E-02 3.91164E-23
1.81848E-02 3.67261E-23
1.87724E-02 3.45148E-23
1.93692E-02 3.24666E-23
1.99751E-02 3.05672E-23
2.05901E-02 2.88037E-23
2.12143E-02 2.71645E-23
2.18476E-02 2.56392E-23
2.24900E-02 2.42183E-23
2.31415E-02 2.28934E-23
2.38021E-02 2.16567E-23
2.44717E-02 2.05013E-23
2.51504E-02 1.94208E-23
2.58382E-02 1.84094E-23
2.65349E-02 1.74619E-23
2.72407E-02 1.65734E-23
2.79555E-02 1.57396E-23
2.86793E-02 1.49565E-23
2.94120E-02 1.42205E-23
3.01537E-02 1.35281E-23
3.09043E-02 1.28763E-23
3.16639E-02 1.22623E-23
3.24324E-02 1.16834E-23
3.32098E-02 1.11374E-23
3.39961E-02 1.06219E-23
3.47912E-02 1.01350E-23
3.55952E-02 9.67483E-24
3.64081E-02 9.23957E-24
3.72297E-02 8.82766E-24
3.80602E-02 8.43762E-24
3.88995E-02 8.06808E-24
3.97476E-02 7.71777E-24
4.06044E-02 7.38550E-24
4.14700E-02 7.07018E-24
4.23443E-02 6.77080E-24
4.32273E-02 6.48639E-24
4.41190E-02 6.21608E-24
4.50194E-02 5.95905E-24
4.59284E-02 5.71453E-24
4.68461E-02 5.48180E-24
4.87074E-02 5.04909E-24
5.06030E-02 4.65609E-24
5.25328E-02 4.29856E-24
5.44967E-02 3.97279E-24
5.64946E-02 3.67551E-24
5.85262E-02 3.40383E-24
6.05914E-02 3.15520E-24
6.26901E-02 2.92737E-24
6.48222E-02 2.71832E-24
6.69873E-02 2.52629E-24
6.91854E-02 2.34966E-24
7.14163E-02 2.18704E-24
7.36799E-02 2.03714E-24
7.59760E-02 1.89883E-24
7.83043E-02 1.77108E-24
8.06647E-02 1.65298E-24
8.30571E-02 1.54369E-24
8.54812E-02 1.44248E-24
8.79369E-02 1.34865E-24
9.04240E-02 1.26161E-24
9.29422E-02 1.18079E-24
9.54915E-02 1.10571E-24
9.80716E-02 1.03589E-24
1.00682E-01 9.70922E-25
1.03323E-01 9.10432E-25
1.05995E-01 8.54072E-25
1.08696E-01 8.01528E-25
1.11427E-01 7.52511E-25
1.14188E-01 7.06758E-25
1.16978E-01 6.64028E-25
1.19797E-01 6.24098E-25
1.22645E-01 5.86767E-25
1.25522E-01 5.51846E-25
1.28428E-01 5.19165E-25
1.31361E-01 4.88566E-25
1.34323E-01 4.59903E-25
1.37313E-01 4.33042E-25
1.40330E-01 4.07858E-25
1.43375E-01 3.84238E-25
1.46447E-01 3.62076E-25
1.49545E-01 3.41273E-25
1.52671E-01 3.21740E-25
1.55823E-01 3.03392E-25
1.59001E-01 2.86151E-25
1.62205E-01 2.69946E-25
1.65435E-01 2.54709E-25
1.68690E-01 2.40379E-25
1.71970E-01 2.26896E-25
1.75276E-01 2.14208E-25
1.78606E-01 2.02265E-25
1.81961E-01 1.91018E-25
1.85340E-01 1.80427E-25
1.88743E-01 1.70449E-25
1.92169E-01 1.61046E-25
1.95619E-01 1.52185E-25
1.99092E-01 1.43831E-25
2.02589E-01 1.35954E-25
2.06107E-01 1.28526E-25
2.09649E-01 1.21518E-25
2.13212E-01 1.14907E-25
2.16797E-01 1.08669E-25
2.20404E-01 1.02781E-25
2.24032E-01 9.72229E-26
2.27680E-01 9.19755E-26
2.31350E-01 8.70207E-26
2.35040E-01 8.23413E-26
2.38751E-01 7.79214E-26
2.42481E-01 7.37461E-26
2.46231E-01 6.98012E-26
2.50000E-01 6.60737E-26
2.53788E-01 6.25510E-26
2.57595E-01 5.92215E-26
2.61421E-01 5.60743E-26
2.65264E-01 5.30990E-26
2.69126E-01 5.02860E-26
2.73005E-01 4.76262E-26
2.76901E-01 4.51109E-26
2.80814E-01 4.27321E-26
2.84744E-01 4.04822E-26
2.88691E-01 3.83540E-26
2.92653E-01 3.63408E-26
2.96632E-01 3.44362E-26
3.00625E-01 3.26342E-26
3.04634E-01 3.09291E-26
3.08658E-01 2.93157E-26
3.12697E-01 2.77889E-26
3.16749E-01 2.63440E-26
3.20816E-01 2.49764E-26
3.24896E-01 2.36820E-26
3.28990E-01 2.24568E-26
3.33097E-01 2.12970E-26
3.37216E-01 2.01991E-26
3.41348E-01 1.91596E-26
3.45492E-01 1.81756E-26
3.49647E-01 1.72438E-26
3.53814E-01 1.63616E-26
3.57992E-01 1.55263E-26
3.62181E-01 1.47353E-26
3.66381E-01 1.39862E-26
3.70590E-01 1.32768E-26
3.74810E-01 1.26050E-26
3.79039E-01 1.19687E-26
3.83277E-01 1.13660E-26
3.87524E-01 1.07952E-26
3.91780E-01 1.02545E-26
3.96044E-01 9.74227E-27
4.00316E-01 9.25707E-27
4.04596E-01 8.79741E-27
4.08882E-01 8.36193E-27
4.13176E-01 7.94933E-27
4.17476E-01 7.55841E-27
4.21783E-01 7.18800E-27
4.26095E-01 6.83700E-27
4.30413E-01 6.50439E-27
4.34737E-01 6.18918E-27
4.39065E-01 5.89044E-27
4.43398E-01 5.60730E-27
4.47736E-01 5.33892E-27
4.52077E-01 5.08453E-27
4.56422E-01 4.84337E-27
4.60770E-01 4.61473E-27
4.65122E-01 4.39797E-27
4.69476E-01 4.19243E-27
4.73832E-01 3.99752E-27
4.78190E-01 3.81269E-27
4.82550E-01 3.63738E-27
4.86912E-01 3.47110E-27
4.91274E-01 3.31336E-27
4.95637E-01 3.16371E-27
5.00000E-01 3.02172E-27
5.04363E-01 2.88697E-27
5.08726E-01 2.75910E-27
5.13088E-01 2.63772E-27
5.17450E-01 2.52250E-27
5.21810E-01 2.41310E-27
5.26168E-01 2.30922E-27
5.30524E-01 2.21056E-27
5.34878E-01 2.11685E-27
5.39230E-01 2.02782E-27
5.43578E-01 1.94322E-27
5.47923E-01 1.86282E-27
5.52264E-01 1.78640E-27
5.56602E-01 1.71374E-27
5.60935E-01 1.64464E-27
5.65263E-01 1.57891E-27
5.69587E-01 1.51638E-27
5.73905E-01 1.45688E-27
5.78217E-01 1.40024E-27
5.82524E-01 1.34631E-27
5.86824E-01 1.29496E-27
5.91118E-01 1.24604E-27
5.95404E-01 1.19942E-27
5.99684E-01 1.15499E-27
6.03956E-01 1.11262E-27
6.08220E-01 1.07222E-27
6.12476E-01 1.03367E-27
6.16723E-01 9.96880E-28
6.20961E-01 9.61757E-28
6.25190E-01 9.28213E-28
6.29410E-01 8.96166E-28
6.33619E-01 8.65538E-28
6.37819E-01 8.36253E-28
6.42008E-01 8.08244E-28
6.46186E-01 7.81444E-28
6.50353E-01 7.55789E-28
6.54508E-01 7.31221E-28
6.58652E-01 7.07685E-28
6.62784E-01 6.85126E-28
6.66903E-01 6.63495E-28
6.71010E-01 6.42746E-28
6.75104E-01 6.22832E-28
6.79184E-01 6.03712E-28
6.83251E-01 5.85345E-28
6.87303E-01 5.67694E-28
6.91342E-01 5.50724E-28
6.95366E-01 5.34399E-28
6.99375E-01 5.18689E-28
7.03368E-01 5.03563E-28
7.07347E-01 4.88992E-28
7.11309E-01 4.74950E-28
7.15256E-01 4.61410E-28
7.19186E-01 4.48349E-28
7.23099E-01 4.35743E-28
7.26995E-01 4.23572E-28
7.30874E-01 4.11814E-28
7.34736E-01 4.00450E-28
7.38579E-01 3.89462E-28
7.42405E-01 3.78833E-28
7.46212E-01 3.68546E-28
7.50000E-01 3.58586E-28
7.53769E-01 3.48937E-28
7.57519E-01 3.39587E-28
7.61249E-01 3.30523E-28
7.64960E-01 3.21730E-28
7.68650E-01 3.13199E-28
7.72320E-01 3.04918E-28
7.75968E-01 2.96876E-28
7.79596E-01 2.89063E-28
7.83203E-01 2.81470E-28
7.86788E-01 2.74088E-28
7.90351E-01 2.66909E-28
7.93893E-01 2.59924E-28
7.97411E-01 2.53125E-28
8.00908E-01 2.46507E-28
8.04381E-01 2.40061E-28
8.07831E-01 2.33782E-28
8.11257E-01 2.27662E-28
8.14660E-01 2.21697E-28
8.18039E-01 2.15881E-28
8.21394E-01 2.10209E-28
8.24724E-01 2.04675E-28
8.28030E-01 1.99275E-28
8.31310E-01 1.94005E-28
8.34565E-01 1.88859E-28
8.37795E-01 1.83835E-28
8.40999E-01 1.78927E-28
8.44177E-01 1.74134E-28
8.47329E-01 1.69450E-28
8.50455E-01 1.64873E-28
8.53553E-01 1.60400E-28
8.56625E-01 1.56027E-28
8.59670E-01 1.51751E-28
8.62687E-01 1.47571E-28
8.65677E-01 1.43483E-28
8.68639E-01 1.39484E-28
8.71572E-01 1.35574E-28
8.74478E-01 1.31748E-28
8.77355E-01 1.28005E-28
8.80203E-01 1.24343E-28
8.83022E-01 1.20760E-28
8.85812E-01 1.17254E-28
8.88573E-01 1.13823E-28
8.91304E-01 1.10465E-28
8.94005E-01 1.07180E-28
8.96677E-01 1.03964E-28
8.99318E-01 1.00817E-28
9.01928E-01 9.77378E-29
9.04508E-01 9.47239E-29
9.07058E-01 9.17744E-29
9.09576E-01 8.88880E-29
9.12063E-01 8.60636E-29
9.14519E-01 8.32998E-29
9.16943E-01 8.05955E-29
9.19335E-01 7.79496E-29
9.21696E-01 7.53611E-29
9.24024E-01 7.28289E-29
9.26320E-01 7.03520E-29
9.28584E-01 6.79295E-29
9.30815E-01 6.55605E-29
9.33013E-01 6.32441E-29
9.35178E-01 6.09793E-29
9.37310E-01 5.87655E-29
9.39409E-01 5.66018E-29
9.41474E-01 5.44875E-29
9.43505E-01 5.24218E-29
9.45503E-01 5.04040E-29
9.47467E-01 4.84334E-29
9.49397E-01 4.65094E-29
9.51293E-01 4.46312E-29
9.53154E-01 4.27984E-29
9.54981E-01 4.10103E-29
9.56773E-01 3.92664E-29
9.58530E-01 3.75660E-29
9.60252E-01 3.59086E-29
9.61940E-01 3.42938E-29
9.63592E-01 3.27209E-29
9.65209E-01 3.11897E-29
9.66790E-01 2.96995E-29
9.68336E-01 2.82499E-29
9.69846E-01 2.68405E-29
9.71321E-01 2.54709E-29
9.72759E-01 2.41406E-29
9.74162E-01 2.28494E-29
9.75528E-01 2.15967E-29
9.76858E-01 2.03823E-29
9.78152E-01 1.92057E-29
9.79410E-01 1.80667E-29
9.80631E-01 1.69650E-29
9.81815E-01 1.59002E-29
9.82963E-01 1.48720E-29
9.84074E-01 1.38802E-29
9.85148E-01 1.29244E-29
9.86185E-01 1.20044E-29
9.87185E-01 1.11200E-29
9.88148E-01 1.02709E-29
9.89074E-01 9.45686E-30
9.89962E-01 8.67769E-30
9.90814E-01 7.93317E-30
9.91627E-01 7.22311E-30
9.92404E-01 6.54730E-30
9.93143E-01 5.90557E-30
9.93844E-01 5.29776E-30
9.94508E-01 4.72370E-30
9.95134E-01 4.18323E-30
9.95722E-01 3.67622E-30
9.96273E-01 3.20254E-30
9.96786E-01 2.76205E-30
9.97261E-01 2.35465E-30
9.97698E-01 1.98023E-30
9.98097E-01 1.63869E-30
9.98459E-01 1.32995E-30
9.98782E-01 1.05391E-30
9.99067E-01 8.10520E-31
9.99315E-01 5.99707E-31
9.99524E-01 4.21418E-31
9.99695E-01 2.75608E-31
9.99829E-01 1.62239E-31
9.99924E-01 8.12822E-32
9.99981E-01 3.27163E-32
1.00000E+00 1.65290E-32
