 #
 # Subroutine ELSEPA. Elastic scattering of electrons and positrons
 #                    by neutral atoms and positive ions
 #
 # Projectile: electron
 # Kinetic energy = 5.00000E+07 eV = 1.83747E+06 a.u.
 #
 # WARNING: High-energy factorization with free-atom DF screening.
 #          Absorption, polarization and exchange corrections are
 #          switched off.
 #          Phase shifts are calculated for the bare nucleus.
 #          Scattering amplitudes are not evaluated.
 #
 # Element:  C,  Z =   6,  atomic weight = 1.20107E+01 g/mol
 #
 # Nuclear model: Fermi distribution
 #                Average radius = 2.45042E-13 cm
 #                Skin thickness = 5.46000E-14 cm
 #
 # Number of electrons =  6
 #
 # Total elastic cross section = 2.41412E-19 cm**2 = 8.62098E-03 a0**2
 # 1st transport cross section = 3.05111E-26 cm**2 = 1.08957E-09 a0**2
 # 2nd transport cross section = 8.92382E-26 cm**2 = 3.18675E-09 a0**2
 #
 #
 # Differential cross section:                       MU=(1-COS(THETA))/2
 #
 #  THETA        MU          DCS          DCS        Sherman      error
 #  (deg)                 (cm**2/sr)   (a0**2/sr)    function
 #----------------------------------------------------------------------
0.00000E+00 5.99221E-12
7.61557E-13 5.98965E-12
1.18994E-12 5.98822E-12
1.71346E-12 5.98647E-12
2.33225E-12 5.98441E-12
3.04617E-12 5.98203E-12
3.85530E-12 5.97934E-12
4.75964E-12 5.97634E-12
5.75917E-12 5.97302E-12
6.85391E-12 5.96938E-12
8.04379E-12 5.96544E-12
9.32893E-12 5.96119E-12
1.07092E-11 5.95662E-12
1.21847E-11 5.95174E-12
1.37554E-11 5.94657E-12
1.54213E-11 5.94107E-12
1.71823E-11 5.93528E-12
1.90386E-11 5.92918E-12
2.09900E-11 5.92278E-12
2.30367E-11 5.91608E-12
2.51785E-11 5.90908E-12
2.74156E-11 5.90177E-12
2.97478E-11 5.89418E-12
3.21752E-11 5.88628E-12
3.46979E-11 5.87809E-12
3.73157E-11 5.86963E-12
4.00286E-11 5.86085E-12
4.28368E-11 5.85179E-12
4.57402E-11 5.84247E-12
4.87388E-11 5.83282E-12
5.18325E-11 5.82292E-12
5.50215E-11 5.81275E-12
5.83057E-11 5.80226E-12
6.16850E-11 5.79153E-12
6.51595E-11 5.78053E-12
6.87293E-11 5.76922E-12
7.23943E-11 5.75769E-12
7.61544E-11 5.74587E-12
1.18991E-10 5.61363E-12
1.71347E-10 5.45780E-12
2.33223E-10 5.28148E-12
3.04617E-10 5.08782E-12
3.85531E-10 4.88043E-12
4.75965E-10 4.66233E-12
5.75917E-10 4.43718E-12
6.85389E-10 4.19677E-12
8.04380E-10 3.96395E-12
9.32891E-10 3.74590E-12
1.07092E-09 3.50937E-12
1.21847E-09 3.28902E-12
1.37554E-09 3.08356E-12
1.54213E-09 2.86840E-12
1.71823E-09 2.67334E-12
1.90386E-09 2.48922E-12
2.09900E-09 2.30598E-12
2.30367E-09 2.14109E-12
2.51785E-09 1.98374E-12
2.74156E-09 1.83327E-12
2.97478E-09 1.69826E-12
3.21752E-09 1.56838E-12
3.46978E-09 1.44781E-12
3.73156E-09 1.33967E-12
4.00286E-09 1.23509E-12
4.28368E-09 1.14003E-12
4.57402E-09 1.05444E-12
4.87388E-09 9.71865E-13
5.18326E-09 8.97648E-13
5.50215E-09 8.29960E-13
5.83057E-09 7.66032E-13
6.16850E-09 7.08399E-13
6.51596E-09 6.55338E-13
6.87293E-09 6.05959E-13
7.23942E-09 5.61292E-13
7.61544E-09 5.19892E-13
1.18991E-08 2.51601E-13
1.71347E-08 1.32164E-13
2.33223E-08 7.51771E-14
3.04617E-08 4.60077E-14
3.85531E-08 2.98832E-14
4.75965E-08 2.03840E-14
5.75917E-08 1.44730E-14
6.85389E-08 1.06033E-14
8.04380E-08 7.97591E-15
9.32891E-08 6.13071E-15
1.07092E-07 4.79784E-15
1.21847E-07 3.81275E-15
1.37554E-07 3.07000E-15
1.54213E-07 2.49993E-15
1.71823E-07 2.05586E-15
1.90386E-07 1.70584E-15
2.09900E-07 1.42698E-15
2.30367E-07 1.20252E-15
2.51785E-07 1.02017E-15
2.74156E-07 8.70818E-16
2.97478E-07 7.47587E-16
3.21752E-07 6.45165E-16
3.46978E-07 5.59524E-16
3.73156E-07 4.87424E-16
4.00286E-07 4.26464E-16
4.28368E-07 3.74655E-16
4.57402E-07 3.30402E-16
4.87388E-07 2.92434E-16
5.18325E-07 2.59717E-16
5.50215E-07 2.31407E-16
5.83057E-07 2.06819E-16
6.16850E-07 1.85382E-16
6.51596E-07 1.66623E-16
6.87293E-07 1.50161E-16
7.23942E-07 1.35668E-16
7.61543E-07 1.22871E-16
1.18991E-06 5.10241E-17
1.71347E-06 2.47542E-17
2.33223E-06 1.34006E-17
3.04617E-06 7.86727E-18
3.85531E-06 4.91584E-18
4.75964E-06 3.22702E-18
5.75916E-06 2.20487E-18
6.85388E-06 1.55716E-18
8.04378E-06 1.13073E-18
9.32888E-06 8.40733E-19
1.07092E-05 6.38021E-19
1.21846E-05 4.92886E-19
1.37553E-05 3.86773E-19
1.54212E-05 3.07740E-19
1.71822E-05 2.47902E-19
1.90385E-05 2.01928E-19
2.09899E-05 1.65989E-19
2.30365E-05 1.37871E-19
2.51783E-05 1.15474E-19
2.74153E-05 9.74383E-20
2.97475E-05 8.27725E-20
3.21749E-05 7.07486E-20
3.46974E-05 6.08209E-20
3.73152E-05 5.25727E-20
4.00281E-05 4.56798E-20
4.28362E-05 3.98861E-20
4.57395E-05 3.49877E-20
4.87380E-05 3.08218E-20
5.18317E-05 2.72584E-20
5.50205E-05 2.41941E-20
5.83045E-05 2.15464E-20
6.16838E-05 1.92493E-20
6.51582E-05 1.72493E-20
6.87277E-05 1.55025E-20
7.23925E-05 1.39719E-20
7.61524E-05 1.26260E-20
9.21439E-05 8.62733E-21
1.09658E-04 6.09081E-21
1.28695E-04 4.42297E-21
1.49255E-04 3.28866E-21
1.71338E-04 2.49562E-21
1.94942E-04 1.92818E-21
2.20070E-04 1.51297E-21
2.46720E-04 1.20395E-21
2.74892E-04 9.69854E-22
3.04586E-04 7.90020E-22
3.35803E-04 6.50026E-22
3.68542E-04 5.39677E-22
4.02802E-04 4.51823E-22
4.38585E-04 3.81114E-22
4.75889E-04 3.23728E-22
5.14715E-04 2.76746E-22
5.55063E-04 2.37982E-22
5.96931E-04 2.05783E-22
6.40321E-04 1.78842E-22
6.85233E-04 1.56176E-22
7.31665E-04 1.36987E-22
7.79618E-04 1.20657E-22
8.29092E-04 1.06691E-22
8.80086E-04 9.46867E-23
9.32601E-04 8.43267E-23
9.86636E-04 7.53438E-23
1.04219E-03 6.75270E-23
1.09927E-03 6.06979E-23
1.15786E-03 5.47104E-23
1.21797E-03 4.94441E-23
1.27961E-03 4.47957E-23
1.34276E-03 4.06816E-23
1.40743E-03 3.70288E-23
1.47362E-03 3.37770E-23
1.54133E-03 3.08747E-23
1.61056E-03 2.82771E-23
1.68131E-03 2.59475E-23
1.75357E-03 2.38525E-23
1.82735E-03 2.19650E-23
1.90265E-03 2.02605E-23
1.97947E-03 1.87181E-23
2.05780E-03 1.73198E-23
2.13765E-03 1.60496E-23
2.21902E-03 1.48938E-23
2.30190E-03 1.38401E-23
2.38630E-03 1.28779E-23
2.47222E-03 1.19980E-23
2.55965E-03 1.11919E-23
2.64859E-03 1.04524E-23
2.73905E-03 9.77291E-24
2.83103E-03 9.14778E-24
2.92452E-03 8.57183E-24
3.01952E-03 8.04046E-24
3.11604E-03 7.54967E-24
3.21407E-03 7.09571E-24
3.31362E-03 6.67538E-24
3.41468E-03 6.28569E-24
3.51725E-03 5.92402E-24
3.62133E-03 5.58800E-24
3.72692E-03 5.27543E-24
3.83403E-03 4.98443E-24
3.94265E-03 4.71319E-24
4.05278E-03 4.46016E-24
4.16442E-03 4.22387E-24
4.27757E-03 4.00301E-24
4.39223E-03 3.79640E-24
4.50840E-03 3.60293E-24
4.62608E-03 3.42163E-24
4.74527E-03 3.25158E-24
4.86597E-03 3.09196E-24
4.98817E-03 2.94201E-24
5.11188E-03 2.80103E-24
5.23711E-03 2.66839E-24
5.36383E-03 2.54350E-24
5.49207E-03 2.42583E-24
5.62181E-03 2.31488E-24
5.75306E-03 2.21020E-24
5.88581E-03 2.11136E-24
6.02007E-03 2.01798E-24
6.15583E-03 1.92970E-24
6.29310E-03 1.84619E-24
6.43187E-03 1.76715E-24
6.57214E-03 1.69228E-24
6.71392E-03 1.62133E-24
6.85720E-03 1.55407E-24
7.00198E-03 1.49024E-24
7.14827E-03 1.42966E-24
7.29605E-03 1.37212E-24
7.44534E-03 1.31744E-24
7.59612E-03 1.26546E-24
7.97965E-03 1.14627E-24
8.37255E-03 1.04077E-24
8.77480E-03 9.47118E-25
9.18641E-03 8.63749E-25
9.60736E-03 7.89339E-25
1.00376E-02 7.22758E-25
1.04773E-02 6.63038E-25
1.09262E-02 6.09349E-25
1.13844E-02 5.60974E-25
1.18520E-02 5.17295E-25
1.23288E-02 4.77776E-25
1.28150E-02 4.41950E-25
1.33104E-02 4.09411E-25
1.38150E-02 3.79805E-25
1.43290E-02 3.52819E-25
1.48521E-02 3.28181E-25
1.53845E-02 3.05649E-25
1.59262E-02 2.85012E-25
1.64770E-02 2.66082E-25
1.70371E-02 2.48692E-25
1.76063E-02 2.32695E-25
1.81848E-02 2.17958E-25
1.87724E-02 2.04365E-25
1.93692E-02 1.91811E-25
1.99751E-02 1.80202E-25
2.05901E-02 1.69454E-25
2.12143E-02 1.59491E-25
2.18476E-02 1.50247E-25
2.24900E-02 1.41659E-25
2.31415E-02 1.33674E-25
2.38021E-02 1.26239E-25
2.44717E-02 1.19312E-25
2.51504E-02 1.12851E-25
2.58382E-02 1.06818E-25
2.65349E-02 1.01181E-25
2.72407E-02 9.59085E-26
2.79555E-02 9.09727E-26
2.86793E-02 8.63482E-26
2.94120E-02 8.20118E-26
3.01537E-02 7.79422E-26
3.09043E-02 7.41202E-26
3.16639E-02 7.05277E-26
3.24324E-02 6.71486E-26
3.32098E-02 6.39678E-26
3.39961E-02 6.09716E-26
3.47912E-02 5.81473E-26
3.55952E-02 5.54833E-26
3.64081E-02 5.29687E-26
3.72297E-02 5.05936E-26
3.80602E-02 4.83489E-26
3.88995E-02 4.62262E-26
3.97476E-02 4.42175E-26
4.06044E-02 4.23157E-26
4.14700E-02 4.05139E-26
4.23443E-02 3.88060E-26
4.32273E-02 3.71862E-26
4.41190E-02 3.56491E-26
4.50194E-02 3.41897E-26
4.59284E-02 3.28033E-26
4.68461E-02 3.14857E-26
4.87074E-02 2.90408E-26
5.06030E-02 2.68258E-26
5.25328E-02 2.48154E-26
5.44967E-02 2.29874E-26
5.64946E-02 2.13224E-26
5.85262E-02 1.98033E-26
6.05914E-02 1.84152E-26
6.26901E-02 1.71447E-26
6.48222E-02 1.59802E-26
6.69873E-02 1.49113E-26
6.91854E-02 1.39288E-26
7.14163E-02 1.30244E-26
7.36799E-02 1.21910E-26
7.59760E-02 1.14219E-26
7.83043E-02 1.07113E-26
8.06647E-02 1.00541E-26
8.30571E-02 9.44544E-27
8.54812E-02 8.88118E-27
8.79369E-02 8.35751E-27
9.04240E-02 7.87101E-27
9.29422E-02 7.41857E-27
9.54915E-02 6.99740E-27
9.80716E-02 6.60496E-27
1.00682E-01 6.23896E-27
1.03323E-01 5.89731E-27
1.05995E-01 5.57810E-27
1.08696E-01 5.27961E-27
1.11427E-01 5.00026E-27
1.14188E-01 4.73861E-27
1.16978E-01 4.49335E-27
1.19797E-01 4.26327E-27
1.22645E-01 4.04728E-27
1.25522E-01 3.84436E-27
1.28428E-01 3.65358E-27
1.31361E-01 3.47411E-27
1.34323E-01 3.30514E-27
1.37313E-01 3.14597E-27
1.40330E-01 2.99592E-27
1.43375E-01 2.85439E-27
1.46447E-01 2.72081E-27
1.49545E-01 2.59466E-27
1.52671E-01 2.47545E-27
1.55823E-01 2.36275E-27
1.59001E-01 2.25612E-27
1.62205E-01 2.15520E-27
1.65435E-01 2.05962E-27
1.68690E-01 1.96906E-27
1.71970E-01 1.88320E-27
1.75276E-01 1.80177E-27
1.78606E-01 1.72449E-27
1.81961E-01 1.65113E-27
1.85340E-01 1.58144E-27
1.88743E-01 1.51521E-27
1.92169E-01 1.45225E-27
1.95619E-01 1.39236E-27
1.99092E-01 1.33538E-27
2.02589E-01 1.28113E-27
2.06107E-01 1.22947E-27
2.09649E-01 1.18024E-27
2.13212E-01 1.13333E-27
2.16797E-01 1.08860E-27
2.20404E-01 1.04593E-27
2.24032E-01 1.00521E-27
2.27680E-01 9.66344E-28
2.31350E-01 9.29230E-28
2.35040E-01 8.93776E-28
2.38751E-01 8.59897E-28
2.42481E-01 8.27510E-28
2.46231E-01 7.96541E-28
2.50000E-01 7.66918E-28
2.53788E-01 7.38572E-28
2.57595E-01 7.11439E-28
2.61421E-01 6.85461E-28
2.65264E-01 6.60580E-28
2.69126E-01 6.36742E-28
2.73005E-01 6.13898E-28
2.76901E-01 5.91998E-28
2.80814E-01 5.70999E-28
2.84744E-01 5.50858E-28
2.88691E-01 5.31533E-28
2.92653E-01 5.12988E-28
2.96632E-01 4.95185E-28
3.00625E-01 4.78091E-28
3.04634E-01 4.61672E-28
3.08658E-01 4.45900E-28
3.12697E-01 4.30743E-28
3.16749E-01 4.16175E-28
3.20816E-01 4.02169E-28
3.24896E-01 3.88700E-28
3.28990E-01 3.75746E-28
3.33097E-01 3.63282E-28
3.37216E-01 3.51288E-28
3.41348E-01 3.39744E-28
3.45492E-01 3.28630E-28
3.49647E-01 3.17929E-28
3.53814E-01 3.07621E-28
3.57992E-01 2.97692E-28
3.62181E-01 2.88124E-28
3.66381E-01 2.78903E-28
3.70590E-01 2.70015E-28
3.74810E-01 2.61446E-28
3.79039E-01 2.53183E-28
3.83277E-01 2.45213E-28
3.87524E-01 2.37525E-28
3.91780E-01 2.30107E-28
3.96044E-01 2.22948E-28
4.00316E-01 2.16038E-28
4.04596E-01 2.09368E-28
4.08882E-01 2.02927E-28
4.13176E-01 1.96707E-28
4.17476E-01 1.90700E-28
4.21783E-01 1.84896E-28
4.26095E-01 1.79289E-28
4.30413E-01 1.73870E-28
4.34737E-01 1.68633E-28
4.39065E-01 1.63570E-28
4.43398E-01 1.58675E-28
4.47736E-01 1.53942E-28
4.52077E-01 1.49365E-28
4.56422E-01 1.44937E-28
4.60770E-01 1.40654E-28
4.65122E-01 1.36510E-28
4.69476E-01 1.32499E-28
4.73832E-01 1.28618E-28
4.78190E-01 1.24861E-28
4.82550E-01 1.21225E-28
4.86912E-01 1.17703E-28
4.91274E-01 1.14293E-28
4.95637E-01 1.10991E-28
5.00000E-01 1.07792E-28
5.04363E-01 1.04693E-28
5.08726E-01 1.01691E-28
5.13088E-01 9.87821E-29
5.17450E-01 9.59629E-29
5.21810E-01 9.32305E-29
5.26168E-01 9.05820E-29
5.30524E-01 8.80143E-29
5.34878E-01 8.55249E-29
5.39230E-01 8.31109E-29
5.43578E-01 8.07699E-29
5.47923E-01 7.84993E-29
5.52264E-01 7.62969E-29
5.56602E-01 7.41602E-29
5.60935E-01 7.20873E-29
5.65263E-01 7.00759E-29
5.69587E-01 6.81239E-29
5.73905E-01 6.62295E-29
5.78217E-01 6.43908E-29
5.82524E-01 6.26059E-29
5.86824E-01 6.08731E-29
5.91118E-01 5.91907E-29
5.95404E-01 5.75571E-29
5.99684E-01 5.59707E-29
6.03956E-01 5.44300E-29
6.08220E-01 5.29335E-29
6.12476E-01 5.14798E-29
6.16723E-01 5.00677E-29
6.20961E-01 4.86957E-29
6.25190E-01 4.73626E-29
6.29410E-01 4.60672E-29
6.33619E-01 4.48084E-29
6.37819E-01 4.35849E-29
6.42008E-01 4.23957E-29
6.46186E-01 4.12397E-29
6.50353E-01 4.01160E-29
6.54508E-01 3.90234E-29
6.58652E-01 3.79612E-29
6.62784E-01 3.69283E-29
6.66903E-01 3.59238E-29
6.71010E-01 3.49470E-29
6.75104E-01 3.39969E-29
6.79184E-01 3.30728E-29
6.83251E-01 3.21739E-29
6.87303E-01 3.12995E-29
6.91342E-01 3.04487E-29
6.95366E-01 2.96210E-29
6.99375E-01 2.88156E-29
7.03368E-01 2.80319E-29
7.07347E-01 2.72692E-29
7.11309E-01 2.65270E-29
7.15256E-01 2.58046E-29
7.19186E-01 2.51015E-29
7.23099E-01 2.44171E-29
7.26995E-01 2.37508E-29
7.30874E-01 2.31022E-29
7.34736E-01 2.24708E-29
7.38579E-01 2.18560E-29
7.42405E-01 2.12573E-29
7.46212E-01 2.06744E-29
7.50000E-01 2.01068E-29
7.53769E-01 1.95540E-29
7.57519E-01 1.90156E-29
7.61249E-01 1.84913E-29
7.64960E-01 1.79806E-29
7.68650E-01 1.74832E-29
7.72320E-01 1.69986E-29
7.75968E-01 1.65266E-29
7.79596E-01 1.60668E-29
7.83203E-01 1.56188E-29
7.86788E-01 1.51823E-29
7.90351E-01 1.47571E-29
7.93893E-01 1.43427E-29
7.97411E-01 1.39390E-29
8.00908E-01 1.35456E-29
8.04381E-01 1.31623E-29
8.07831E-01 1.27887E-29
8.11257E-01 1.24246E-29
8.14660E-01 1.20698E-29
8.18039E-01 1.17240E-29
8.21394E-01 1.13870E-29
8.24724E-01 1.10586E-29
8.28030E-01 1.07385E-29
8.31310E-01 1.04264E-29
8.34565E-01 1.01223E-29
8.37795E-01 9.82581E-30
8.40999E-01 9.53683E-30
8.44177E-01 9.25515E-30
8.47329E-01 8.98056E-30
8.50455E-01 8.71290E-30
8.53553E-01 8.45198E-30
8.56625E-01 8.19763E-30
8.59670E-01 7.94969E-30
8.62687E-01 7.70799E-30
8.65677E-01 7.47237E-30
8.68639E-01 7.24268E-30
8.71572E-01 7.01877E-30
8.74478E-01 6.80051E-30
8.77355E-01 6.58774E-30
8.80203E-01 6.38034E-30
8.83022E-01 6.17816E-30
8.85812E-01 5.98109E-30
8.88573E-01 5.78899E-30
8.91304E-01 5.60175E-30
8.94005E-01 5.41925E-30
8.96677E-01 5.24137E-30
8.99318E-01 5.06801E-30
9.01928E-01 4.89905E-30
9.04508E-01 4.73439E-30
9.07058E-01 4.57394E-30
9.09576E-01 4.41758E-30
9.12063E-01 4.26523E-30
9.14519E-01 4.11679E-30
9.16943E-01 3.97217E-30
9.19335E-01 3.83128E-30
9.21696E-01 3.69405E-30
9.24024E-01 3.56037E-30
9.26320E-01 3.43018E-30
9.28584E-01 3.30340E-30
9.30815E-01 3.17995E-30
9.33013E-01 3.05976E-30
9.35178E-01 2.94275E-30
9.37310E-01 2.82886E-30
9.39409E-01 2.71801E-30
9.41474E-01 2.61015E-30
9.43505E-01 2.50521E-30
9.45503E-01 2.40313E-30
9.47467E-01 2.30385E-30
9.49397E-01 2.20730E-30
9.51293E-01 2.11344E-30
9.53154E-01 2.02221E-30
9.54981E-01 1.93356E-30
9.56773E-01 1.84743E-30
9.58530E-01 1.76378E-30
9.60252E-01 1.68255E-30
9.61940E-01 1.60371E-30
9.63592E-01 1.52720E-30
9.65209E-01 1.45299E-30
9.66790E-01 1.38102E-30
9.68336E-01 1.31127E-30
9.69846E-01 1.24368E-30
9.71321E-01 1.17822E-30
9.72759E-01 1.11486E-30
9.74162E-01 1.05355E-30
9.75528E-01 9.94274E-31
9.76858E-01 9.36983E-31
9.78152E-01 8.81649E-31
9.79410E-01 8.28242E-31
9.80631E-01 7.76733E-31
9.81815E-01 7.27090E-31
9.82963E-01 6.79289E-31
9.84074E-01 6.33301E-31
9.85148E-01 5.89101E-31
9.86185E-01 5.46665E-31
9.87185E-01 5.05969E-31
9.88148E-01 4.66991E-31
9.89074E-01 4.29708E-31
9.89962E-01 3.94102E-31
9.90814E-01 3.60150E-31
9.91627E-01 3.27837E-31
9.92404E-01 2.97141E-31
9.93143E-01 2.68048E-31
9.93844E-01 2.40540E-31
9.94508E-01 2.14606E-31
9.95134E-01 1.90227E-31
9.95722E-01 1.67391E-31
9.96273E-01 1.46087E-31
9.96786E-01 1.26302E-31
9.97261E-01 1.08026E-31
9.97698E-01 9.12483E-32
9.98097E-01 7.59600E-32
9.98459E-01 6.21531E-32
9.98782E-01 4.98188E-32
9.99067E-01 3.89523E-32
9.99315E-01 2.95465E-32
9.99524E-01 2.15961E-32
9.99695E-01 1.50968E-32
9.99829E-01 1.00461E-32
9.99924E-01 6.43992E-33
9.99981E-01 4.27733E-33
1.00000E+00 3.55557E-33
