 #
 # Subroutine ELSEPA. Elastic scattering of electrons and positrons
 #                    by neutral atoms and positive ions
 #
 # Projectile: electron
 # Kinetic energy = 4.00000E+07 eV = 1.46997E+06 a.u.
 #
 # WARNING: High-energy factorization with free-atom DF screening.
 #          Absorption, polarization and exchange corrections are
 #          switched off.
 #          Phase shifts are calculated for the bare nucleus.
 #          Scattering amplitudes are not evaluated.
 #
 # Element:  C,  Z =   6,  atomic weight = 1.20107E+01 g/mol
 #
 # Nuclear model: Fermi distribution
 #                Average radius = 2.45042E-13 cm
 #                Skin thickness = 5.46000E-14 cm
 #
 # Number of electrons =  6
 #
 # Total elastic cross section = 2.41289E-19 cm**2 = 8.61658E-03 a0**2
 # 1st transport cross section = 4.64950E-26 cm**2 = 1.66037E-09 a0**2
 # 2nd transport cross section = 1.35623E-25 cm**2 = 4.84320E-09 a0**2
 #
 #
 # Differential cross section:                       MU=(1-COS(THETA))/2
 #
 #  THETA        MU          DCS          DCS        Sherman      error
 #  (deg)                 (cm**2/sr)   (a0**2/sr)    function
 #----------------------------------------------------------------------
0.00000E+00 3.85444E-12
7.61557E-13 3.85338E-12
1.18994E-12 3.85278E-12
1.71346E-12 3.85206E-12
2.33225E-12 3.85120E-12
3.04617E-12 3.85022E-12
3.85530E-12 3.84910E-12
4.75964E-12 3.84786E-12
5.75917E-12 3.84648E-12
6.85391E-12 3.84498E-12
8.04379E-12 3.84334E-12
9.32893E-12 3.84158E-12
1.07092E-11 3.83968E-12
1.21847E-11 3.83766E-12
1.37554E-11 3.83551E-12
1.54213E-11 3.83322E-12
1.71823E-11 3.83081E-12
1.90386E-11 3.82828E-12
2.09900E-11 3.82562E-12
2.30367E-11 3.82282E-12
2.51785E-11 3.81991E-12
2.74156E-11 3.81686E-12
2.97478E-11 3.81370E-12
3.21752E-11 3.81040E-12
3.46979E-11 3.80698E-12
3.73157E-11 3.80344E-12
4.00286E-11 3.79977E-12
4.28368E-11 3.79598E-12
4.57402E-11 3.79207E-12
4.87388E-11 3.78803E-12
5.18325E-11 3.78387E-12
5.50215E-11 3.77959E-12
5.83057E-11 3.77520E-12
6.16850E-11 3.77067E-12
6.51595E-11 3.76603E-12
6.87293E-11 3.76128E-12
7.23943E-11 3.75641E-12
7.61544E-11 3.75141E-12
1.18991E-10 3.69521E-12
1.71347E-10 3.62814E-12
2.33223E-10 3.55108E-12
3.04617E-10 3.46499E-12
3.85531E-10 3.37096E-12
4.75965E-10 3.27011E-12
5.75917E-10 3.16355E-12
6.85389E-10 3.05242E-12
8.04380E-10 2.93781E-12
9.32891E-10 2.82069E-12
1.07092E-09 2.69491E-12
1.21847E-09 2.57429E-12
1.37554E-09 2.45972E-12
1.54213E-09 2.34272E-12
1.71823E-09 2.22253E-12
1.90386E-09 2.11021E-12
2.09900E-09 2.00552E-12
2.30367E-09 1.89281E-12
2.51785E-09 1.78758E-12
2.74156E-09 1.69037E-12
2.97478E-09 1.59498E-12
3.21752E-09 1.49998E-12
3.46978E-09 1.41268E-12
3.73156E-09 1.33246E-12
4.00286E-09 1.25004E-12
4.28368E-09 1.17376E-12
4.57402E-09 1.10383E-12
4.87388E-09 1.03688E-12
5.18326E-09 9.71651E-13
5.50215E-09 9.11907E-13
5.83057E-09 8.57135E-13
6.16850E-09 8.02781E-13
6.51596E-09 7.52526E-13
6.87293E-09 7.06438E-13
7.23942E-09 6.62915E-13
7.61544E-09 6.21136E-13
1.18991E-08 3.31853E-13
1.71347E-08 1.84431E-13
2.33223E-08 1.07968E-13
3.04617E-08 6.65917E-14
3.85531E-08 4.31973E-14
4.75965E-08 2.93241E-14
5.75917E-08 2.06779E-14
6.85389E-08 1.50616E-14
8.04380E-08 1.12828E-14
9.32891E-08 8.65068E-15
1.07092E-07 6.76019E-15
1.21847E-07 5.37306E-15
1.37554E-07 4.33388E-15
1.54213E-07 3.53721E-15
1.71823E-07 2.91787E-15
1.90386E-07 2.43069E-15
2.09900E-07 2.04216E-15
2.30367E-07 1.72738E-15
2.51785E-07 1.47157E-15
2.74156E-07 1.26173E-15
2.97478E-07 1.08737E-15
3.21752E-07 9.41989E-16
3.46978E-07 8.20140E-16
3.73156E-07 7.17229E-16
4.00286E-07 6.29607E-16
4.28368E-07 5.54953E-16
4.57402E-07 4.91005E-16
4.87388E-07 4.35797E-16
5.18325E-07 3.88070E-16
5.50215E-07 3.46673E-16
5.83057E-07 3.10586E-16
6.16850E-07 2.78983E-16
6.51596E-07 2.51283E-16
6.87293E-07 2.26917E-16
7.23942E-07 2.05374E-16
7.61543E-07 1.86309E-16
1.18991E-06 7.82686E-17
1.71347E-06 3.81926E-17
2.33223E-06 2.07386E-17
3.04617E-06 1.21961E-17
3.85531E-06 7.62825E-18
4.75964E-06 5.01066E-18
5.75916E-06 3.42488E-18
6.85388E-06 2.41940E-18
8.04378E-06 1.75715E-18
9.32888E-06 1.30671E-18
1.07092E-05 9.91767E-19
1.21846E-05 7.66229E-19
1.37553E-05 6.01289E-19
1.54212E-05 4.78428E-19
1.71822E-05 3.85406E-19
1.90385E-05 3.13933E-19
2.09899E-05 2.58062E-19
2.30365E-05 2.14348E-19
2.51783E-05 1.79529E-19
2.74153E-05 1.51489E-19
2.97475E-05 1.28688E-19
3.21749E-05 1.09995E-19
3.46974E-05 9.45603E-20
3.73152E-05 8.17368E-20
4.00281E-05 7.10204E-20
4.28362E-05 6.20129E-20
4.57395E-05 5.43973E-20
4.87380E-05 4.79204E-20
5.18317E-05 4.23802E-20
5.50205E-05 3.76160E-20
5.83045E-05 3.34995E-20
6.16838E-05 2.99281E-20
6.51582E-05 2.68187E-20
6.87277E-05 2.41028E-20
7.23925E-05 2.17232E-20
7.61524E-05 1.96309E-20
9.21439E-05 1.34139E-20
1.09658E-04 9.47014E-21
1.28695E-04 6.87699E-21
1.49255E-04 5.11336E-21
1.71338E-04 3.88033E-21
1.94942E-04 2.99807E-21
2.20070E-04 2.35248E-21
2.46720E-04 1.87200E-21
2.74892E-04 1.50803E-21
3.04586E-04 1.22841E-21
3.35803E-04 1.01074E-21
3.68542E-04 8.39166E-22
4.02802E-04 7.02564E-22
4.38585E-04 5.92620E-22
4.75889E-04 5.03393E-22
5.14715E-04 4.30340E-22
5.55063E-04 3.70067E-22
5.96931E-04 3.20000E-22
6.40321E-04 2.78109E-22
6.85233E-04 2.42865E-22
7.31665E-04 2.13026E-22
7.79618E-04 1.87635E-22
8.29092E-04 1.65918E-22
8.80086E-04 1.47252E-22
9.32601E-04 1.31142E-22
9.86636E-04 1.17174E-22
1.04219E-03 1.05019E-22
1.09927E-03 9.43997E-23
1.15786E-03 8.50889E-23
1.21797E-03 7.68997E-23
1.27961E-03 6.96711E-23
1.34276E-03 6.32735E-23
1.40743E-03 5.75932E-23
1.47362E-03 5.25364E-23
1.54133E-03 4.80229E-23
1.61056E-03 4.39835E-23
1.68131E-03 4.03605E-23
1.75357E-03 3.71026E-23
1.82735E-03 3.41672E-23
1.90265E-03 3.15165E-23
1.97947E-03 2.91177E-23
2.05780E-03 2.69431E-23
2.13765E-03 2.49676E-23
2.21902E-03 2.31701E-23
2.30190E-03 2.15313E-23
2.38630E-03 2.00349E-23
2.47222E-03 1.86664E-23
2.55965E-03 1.74126E-23
2.64859E-03 1.62625E-23
2.73905E-03 1.52057E-23
2.83103E-03 1.42334E-23
2.92452E-03 1.33375E-23
3.01952E-03 1.25111E-23
3.11604E-03 1.17477E-23
3.21407E-03 1.10416E-23
3.31362E-03 1.03878E-23
3.41468E-03 9.78162E-24
3.51725E-03 9.21904E-24
3.62133E-03 8.69635E-24
3.72692E-03 8.21014E-24
3.83403E-03 7.75748E-24
3.94265E-03 7.33554E-24
4.05278E-03 6.94193E-24
4.16442E-03 6.57435E-24
4.27757E-03 6.23077E-24
4.39223E-03 5.90935E-24
4.50840E-03 5.60837E-24
4.62608E-03 5.32633E-24
4.74527E-03 5.06177E-24
4.86597E-03 4.81344E-24
4.98817E-03 4.58015E-24
5.11188E-03 4.36081E-24
5.23711E-03 4.15445E-24
5.36383E-03 3.96013E-24
5.49207E-03 3.77705E-24
5.62181E-03 3.60442E-24
5.75306E-03 3.44154E-24
5.88581E-03 3.28775E-24
6.02007E-03 3.14245E-24
6.15583E-03 3.00509E-24
6.29310E-03 2.87514E-24
6.43187E-03 2.75214E-24
6.57214E-03 2.63564E-24
6.71392E-03 2.52524E-24
6.85720E-03 2.42056E-24
7.00198E-03 2.32124E-24
7.14827E-03 2.22696E-24
7.29605E-03 2.13741E-24
7.44534E-03 2.05232E-24
7.59612E-03 1.97141E-24
7.97965E-03 1.78591E-24
8.37255E-03 1.62171E-24
8.77480E-03 1.47593E-24
9.18641E-03 1.34616E-24
9.60736E-03 1.23033E-24
1.00376E-02 1.12667E-24
1.04773E-02 1.03370E-24
1.09262E-02 9.50106E-25
1.13844E-02 8.74783E-25
1.18520E-02 8.06769E-25
1.23288E-02 7.45227E-25
1.28150E-02 6.89434E-25
1.33104E-02 6.38757E-25
1.38150E-02 5.92643E-25
1.43290E-02 5.50608E-25
1.48521E-02 5.12228E-25
1.53845E-02 4.77127E-25
1.59262E-02 4.44975E-25
1.64770E-02 4.15479E-25
1.70371E-02 3.88382E-25
1.76063E-02 3.63452E-25
1.81848E-02 3.40486E-25
1.87724E-02 3.19300E-25
1.93692E-02 2.99732E-25
1.99751E-02 2.81636E-25
2.05901E-02 2.64880E-25
2.12143E-02 2.49348E-25
2.18476E-02 2.34934E-25
2.24900E-02 2.21543E-25
2.31415E-02 2.09089E-25
2.38021E-02 1.97495E-25
2.44717E-02 1.86690E-25
2.51504E-02 1.76611E-25
2.58382E-02 1.67200E-25
2.65349E-02 1.58405E-25
2.72407E-02 1.50178E-25
2.79555E-02 1.42476E-25
2.86793E-02 1.35259E-25
2.94120E-02 1.28491E-25
3.01537E-02 1.22138E-25
3.09043E-02 1.16172E-25
3.16639E-02 1.10563E-25
3.24324E-02 1.05287E-25
3.32098E-02 1.00320E-25
3.39961E-02 9.56402E-26
3.47912E-02 9.12289E-26
3.55952E-02 8.70673E-26
3.64081E-02 8.31388E-26
3.72297E-02 7.94279E-26
3.80602E-02 7.59204E-26
3.88995E-02 7.26029E-26
3.97476E-02 6.94634E-26
4.06044E-02 6.64905E-26
4.14700E-02 6.36737E-26
4.23443E-02 6.10034E-26
4.32273E-02 5.84704E-26
4.41190E-02 5.60665E-26
4.50194E-02 5.37838E-26
4.59284E-02 5.16151E-26
4.68461E-02 4.95537E-26
4.87074E-02 4.57279E-26
5.06030E-02 4.22609E-26
5.25328E-02 3.91134E-26
5.44967E-02 3.62506E-26
5.64946E-02 3.36424E-26
5.85262E-02 3.12620E-26
6.05914E-02 2.90862E-26
6.26901E-02 2.70943E-26
6.48222E-02 2.52680E-26
6.69873E-02 2.35911E-26
6.91854E-02 2.20492E-26
7.14163E-02 2.06296E-26
7.36799E-02 1.93208E-26
7.59760E-02 1.81127E-26
7.83043E-02 1.69962E-26
8.06647E-02 1.59630E-26
8.30571E-02 1.50060E-26
8.54812E-02 1.41184E-26
8.79369E-02 1.32944E-26
9.04240E-02 1.25286E-26
9.29422E-02 1.18161E-26
9.54915E-02 1.11526E-26
9.80716E-02 1.05342E-26
1.00682E-01 9.95720E-27
1.03323E-01 9.41837E-27
1.05995E-01 8.91473E-27
1.08696E-01 8.44360E-27
1.11427E-01 8.00249E-27
1.14188E-01 7.58917E-27
1.16978E-01 7.20157E-27
1.19797E-01 6.83781E-27
1.22645E-01 6.49616E-27
1.25522E-01 6.17506E-27
1.28428E-01 5.87304E-27
1.31361E-01 5.58877E-27
1.34323E-01 5.32104E-27
1.37313E-01 5.06870E-27
1.40330E-01 4.83072E-27
1.43375E-01 4.60614E-27
1.46447E-01 4.39407E-27
1.49545E-01 4.19370E-27
1.52671E-01 4.00426E-27
1.55823E-01 3.82506E-27
1.59001E-01 3.65545E-27
1.62205E-01 3.49483E-27
1.65435E-01 3.34263E-27
1.68690E-01 3.19835E-27
1.71970E-01 3.06149E-27
1.75276E-01 2.93161E-27
1.78606E-01 2.80829E-27
1.81961E-01 2.69114E-27
1.85340E-01 2.57981E-27
1.88743E-01 2.47395E-27
1.92169E-01 2.37325E-27
1.95619E-01 2.27741E-27
1.99092E-01 2.18617E-27
2.02589E-01 2.09925E-27
2.06107E-01 2.01643E-27
2.09649E-01 1.93748E-27
2.13212E-01 1.86217E-27
2.16797E-01 1.79033E-27
2.20404E-01 1.72176E-27
2.24032E-01 1.65629E-27
2.27680E-01 1.59375E-27
2.31350E-01 1.53399E-27
2.35040E-01 1.47687E-27
2.38751E-01 1.42226E-27
2.42481E-01 1.37001E-27
2.46231E-01 1.32002E-27
2.50000E-01 1.27216E-27
2.53788E-01 1.22634E-27
2.57595E-01 1.18245E-27
2.61421E-01 1.14040E-27
2.65264E-01 1.10010E-27
2.69126E-01 1.06146E-27
2.73005E-01 1.02441E-27
2.76901E-01 9.88859E-28
2.80814E-01 9.54748E-28
2.84744E-01 9.22006E-28
2.88691E-01 8.90569E-28
2.92653E-01 8.60378E-28
2.96632E-01 8.31374E-28
3.00625E-01 8.03503E-28
3.04634E-01 7.76715E-28
3.08658E-01 7.50959E-28
3.12697E-01 7.26191E-28
3.16749E-01 7.02366E-28
3.20816E-01 6.79443E-28
3.24896E-01 6.57382E-28
3.28990E-01 6.36146E-28
3.33097E-01 6.15698E-28
3.37216E-01 5.96006E-28
3.41348E-01 5.77036E-28
3.45492E-01 5.58758E-28
3.49647E-01 5.41144E-28
3.53814E-01 5.24164E-28
3.57992E-01 5.07794E-28
3.62181E-01 4.92007E-28
3.66381E-01 4.76779E-28
3.70590E-01 4.62089E-28
3.74810E-01 4.47913E-28
3.79039E-01 4.34231E-28
3.83277E-01 4.21024E-28
3.87524E-01 4.08271E-28
3.91780E-01 3.95957E-28
3.96044E-01 3.84062E-28
4.00316E-01 3.72571E-28
4.04596E-01 3.61468E-28
4.08882E-01 3.50737E-28
4.13176E-01 3.40365E-28
4.17476E-01 3.30338E-28
4.21783E-01 3.20642E-28
4.26095E-01 3.11265E-28
4.30413E-01 3.02196E-28
4.34737E-01 2.93422E-28
4.39065E-01 2.84932E-28
4.43398E-01 2.76716E-28
4.47736E-01 2.68764E-28
4.52077E-01 2.61066E-28
4.56422E-01 2.53613E-28
4.60770E-01 2.46395E-28
4.65122E-01 2.39406E-28
4.69476E-01 2.32635E-28
4.73832E-01 2.26076E-28
4.78190E-01 2.19721E-28
4.82550E-01 2.13562E-28
4.86912E-01 2.07593E-28
4.91274E-01 2.01808E-28
4.95637E-01 1.96198E-28
5.00000E-01 1.90760E-28
5.04363E-01 1.85486E-28
5.08726E-01 1.80371E-28
5.13088E-01 1.75410E-28
5.17450E-01 1.70597E-28
5.21810E-01 1.65927E-28
5.26168E-01 1.61396E-28
5.30524E-01 1.56999E-28
5.34878E-01 1.52731E-28
5.39230E-01 1.48588E-28
5.43578E-01 1.44566E-28
5.47923E-01 1.40660E-28
5.52264E-01 1.36868E-28
5.56602E-01 1.33185E-28
5.60935E-01 1.29609E-28
5.65263E-01 1.26134E-28
5.69587E-01 1.22759E-28
5.73905E-01 1.19479E-28
5.78217E-01 1.16292E-28
5.82524E-01 1.13196E-28
5.86824E-01 1.10186E-28
5.91118E-01 1.07260E-28
5.95404E-01 1.04416E-28
5.99684E-01 1.01652E-28
6.03956E-01 9.89635E-29
6.08220E-01 9.63495E-29
6.12476E-01 9.38075E-29
6.16723E-01 9.13353E-29
6.20961E-01 8.89306E-29
6.25190E-01 8.65914E-29
6.29410E-01 8.43158E-29
6.33619E-01 8.21018E-29
6.37819E-01 7.99475E-29
6.42008E-01 7.78512E-29
6.46186E-01 7.58110E-29
6.50353E-01 7.38255E-29
6.54508E-01 7.18928E-29
6.58652E-01 7.00115E-29
6.62784E-01 6.81800E-29
6.66903E-01 6.63968E-29
6.71010E-01 6.46607E-29
6.75104E-01 6.29701E-29
6.79184E-01 6.13238E-29
6.83251E-01 5.97204E-29
6.87303E-01 5.81588E-29
6.91342E-01 5.66378E-29
6.95366E-01 5.51561E-29
6.99375E-01 5.37127E-29
7.03368E-01 5.23065E-29
7.07347E-01 5.09364E-29
7.11309E-01 4.96013E-29
7.15256E-01 4.83004E-29
7.19186E-01 4.70327E-29
7.23099E-01 4.57972E-29
7.26995E-01 4.45930E-29
7.30874E-01 4.34194E-29
7.34736E-01 4.22753E-29
7.38579E-01 4.11601E-29
7.42405E-01 4.00729E-29
7.46212E-01 3.90129E-29
7.50000E-01 3.79795E-29
7.53769E-01 3.69719E-29
7.57519E-01 3.59893E-29
7.61249E-01 3.50313E-29
7.64960E-01 3.40969E-29
7.68650E-01 3.31858E-29
7.72320E-01 3.22971E-29
7.75968E-01 3.14304E-29
7.79596E-01 3.05850E-29
7.83203E-01 2.97604E-29
7.86788E-01 2.89560E-29
7.90351E-01 2.81714E-29
7.93893E-01 2.74059E-29
7.97411E-01 2.66592E-29
8.00908E-01 2.59306E-29
8.04381E-01 2.52198E-29
8.07831E-01 2.45263E-29
8.11257E-01 2.38496E-29
8.14660E-01 2.31894E-29
8.18039E-01 2.25451E-29
8.21394E-01 2.19164E-29
8.24724E-01 2.13030E-29
8.28030E-01 2.07043E-29
8.31310E-01 2.01201E-29
8.34565E-01 1.95500E-29
8.37795E-01 1.89936E-29
8.40999E-01 1.84506E-29
8.44177E-01 1.79207E-29
8.47329E-01 1.74036E-29
8.50455E-01 1.68988E-29
8.53553E-01 1.64062E-29
8.56625E-01 1.59255E-29
8.59670E-01 1.54563E-29
8.62687E-01 1.49983E-29
8.65677E-01 1.45514E-29
8.68639E-01 1.41152E-29
8.71572E-01 1.36895E-29
8.74478E-01 1.32741E-29
8.77355E-01 1.28686E-29
8.80203E-01 1.24729E-29
8.83022E-01 1.20868E-29
8.85812E-01 1.17099E-29
8.88573E-01 1.13422E-29
8.91304E-01 1.09834E-29
8.94005E-01 1.06332E-29
8.96677E-01 1.02916E-29
8.99318E-01 9.95819E-30
9.01928E-01 9.63295E-30
9.04508E-01 9.31564E-30
9.07058E-01 9.00609E-30
9.09576E-01 8.70413E-30
9.12063E-01 8.40959E-30
9.14519E-01 8.12230E-30
9.16943E-01 7.84211E-30
9.19335E-01 7.56887E-30
9.21696E-01 7.30244E-30
9.24024E-01 7.04265E-30
9.26320E-01 6.78938E-30
9.28584E-01 6.54249E-30
9.30815E-01 6.30184E-30
9.33013E-01 6.06731E-30
9.35178E-01 5.83877E-30
9.37310E-01 5.61610E-30
9.39409E-01 5.39919E-30
9.41474E-01 5.18791E-30
9.43505E-01 4.98216E-30
9.45503E-01 4.78182E-30
9.47467E-01 4.58680E-30
9.49397E-01 4.39699E-30
9.51293E-01 4.21230E-30
9.53154E-01 4.03262E-30
9.54981E-01 3.85786E-30
9.56773E-01 3.68794E-30
9.58530E-01 3.52276E-30
9.60252E-01 3.36225E-30
9.61940E-01 3.20631E-30
9.63592E-01 3.05487E-30
9.65209E-01 2.90785E-30
9.66790E-01 2.76518E-30
9.68336E-01 2.62678E-30
9.69846E-01 2.49259E-30
9.71321E-01 2.36253E-30
9.72759E-01 2.23654E-30
9.74162E-01 2.11456E-30
9.75528E-01 1.99652E-30
9.76858E-01 1.88237E-30
9.78152E-01 1.77205E-30
9.79410E-01 1.66550E-30
9.80631E-01 1.56267E-30
9.81815E-01 1.46352E-30
9.82963E-01 1.36798E-30
9.84074E-01 1.27601E-30
9.85148E-01 1.18757E-30
9.86185E-01 1.10261E-30
9.87185E-01 1.02110E-30
9.88148E-01 9.42989E-31
9.89074E-01 8.68237E-31
9.89962E-01 7.96813E-31
9.90814E-01 7.28678E-31
9.91627E-01 6.63804E-31
9.92404E-01 6.02150E-31
9.93143E-01 5.43693E-31
9.93844E-01 4.88402E-31
9.94508E-01 4.36253E-31
9.95134E-01 3.87217E-31
9.95722E-01 3.41270E-31
9.96273E-01 2.98392E-31
9.96786E-01 2.58560E-31
9.97261E-01 2.21756E-31
9.97698E-01 1.87962E-31
9.98097E-01 1.57161E-31
9.98459E-01 1.29339E-31
9.98782E-01 1.04480E-31
9.99067E-01 8.25757E-32
9.99315E-01 6.36130E-32
9.99524E-01 4.75825E-32
9.99695E-01 3.44770E-32
9.99829E-01 2.42913E-32
9.99924E-01 1.70184E-32
9.99981E-01 1.26568E-32
1.00000E+00 1.12009E-32
