 #
 # Subroutine ELSEPA. Elastic scattering of electrons and positrons
 #                    by neutral atoms and positive ions
 #
 # Projectile: electron
 # Kinetic energy = 4.50000E+08 eV = 1.65372E+07 a.u.
 #
 # WARNING: High-energy factorization with free-atom DF screening.
 #          Absorption, polarization and exchange corrections are
 #          switched off.
 #          Phase shifts are calculated for the bare nucleus.
 #          Scattering amplitudes are not evaluated.
 #
 # Element:  C,  Z =   6,  atomic weight = 1.20107E+01 g/mol
 #
 # Nuclear model: Fermi distribution
 #                Average radius = 2.45042E-13 cm
 #                Skin thickness = 5.46000E-14 cm
 #
 # Number of electrons =  6
 #
 # Total elastic cross section = 2.41243E-19 cm**2 = 8.61495E-03 a0**2
 # 1st transport cross section = 4.06724E-28 cm**2 = 1.45244E-11 a0**2
 # 2nd transport cross section = 1.21893E-27 cm**2 = 4.35288E-11 a0**2
 #
 #
 # Differential cross section:                       MU=(1-COS(THETA))/2
 #
 #  THETA        MU          DCS          DCS        Sherman      error
 #  (deg)                 (cm**2/sr)   (a0**2/sr)    function
 #----------------------------------------------------------------------
0.00000E+00 4.76679E-10
7.61557E-13 4.60991E-10
1.18994E-12 4.52493E-10
1.71346E-12 4.42409E-10
2.33225E-12 4.30890E-10
3.04617E-12 4.18122E-10
3.85530E-12 4.04292E-10
4.75964E-12 3.89592E-10
5.75917E-12 3.74212E-10
6.85391E-12 3.58337E-10
8.04379E-12 3.41659E-10
9.32893E-12 3.24683E-10
1.07092E-11 3.08610E-10
1.21847E-11 2.92900E-10
1.37554E-11 2.76205E-10
1.54213E-11 2.60716E-10
1.71823E-11 2.46248E-10
1.90386E-11 2.30823E-10
2.09900E-11 2.16687E-10
2.30367E-11 2.03747E-10
2.51785E-11 1.90319E-10
2.74156E-11 1.77936E-10
2.97478E-11 1.66664E-10
3.21752E-11 1.55420E-10
3.46979E-11 1.44902E-10
3.73157E-11 1.35354E-10
4.00286E-11 1.26125E-10
4.28368E-11 1.17393E-10
4.57402E-11 1.09471E-10
4.87388E-11 1.01995E-10
5.18325E-11 9.48647E-11
5.50215E-11 8.83911E-11
5.83057E-11 8.23847E-11
6.16850E-11 7.66288E-11
6.51595E-11 7.13947E-11
6.87293E-11 6.65926E-11
7.23943E-11 6.19806E-11
7.61544E-11 5.77773E-11
1.18991E-10 2.93456E-11
1.71347E-10 1.58074E-11
2.33223E-10 9.09705E-12
3.04617E-10 5.57260E-12
3.85531E-10 3.61389E-12
4.75965E-10 2.45646E-12
5.75917E-10 1.73693E-12
6.85389E-10 1.26976E-12
8.04380E-10 9.53273E-13
9.32891E-10 7.32147E-13
1.07092E-09 5.73051E-13
1.21847E-09 4.55570E-13
1.37554E-09 3.67214E-13
1.54213E-09 2.99574E-13
1.71823E-09 2.46972E-13
1.90386E-09 2.05357E-13
2.09900E-09 1.72166E-13
2.30367E-09 1.45422E-13
2.51785E-09 1.23665E-13
2.74156E-09 1.05818E-13
2.97478E-09 9.10159E-14
3.21752E-09 7.86986E-14
3.46978E-09 6.83843E-14
3.73156E-09 5.96937E-14
4.00286E-09 5.23249E-14
4.28368E-09 4.60392E-14
4.57402E-09 4.06620E-14
4.87388E-09 3.60409E-14
5.18326E-09 3.20524E-14
5.50215E-09 2.85942E-14
5.83057E-09 2.55828E-14
6.16850E-09 2.29549E-14
6.51596E-09 2.06533E-14
6.87293E-09 1.86305E-14
7.23942E-09 1.68467E-14
7.61544E-09 1.52690E-14
1.18991E-08 6.37424E-15
1.71347E-08 3.10035E-15
2.33223E-08 1.68056E-15
3.04617E-08 9.87328E-16
3.85531E-08 6.17174E-16
4.75965E-08 4.05241E-16
5.75917E-08 2.76920E-16
6.85389E-08 1.95586E-16
8.04380E-08 1.42031E-16
9.32891E-08 1.05612E-16
1.07092E-07 8.01498E-17
1.21847E-07 6.19164E-17
1.37554E-07 4.85853E-17
1.54213E-07 3.86566E-17
1.71823E-07 3.11394E-17
1.90386E-07 2.53638E-17
2.09900E-07 2.08673E-17
2.30367E-07 1.73245E-17
2.51785E-07 1.45026E-17
2.74156E-07 1.22326E-17
2.97478E-07 1.03898E-17
3.21752E-07 8.88139E-18
3.46978E-07 7.63702E-18
3.73156E-07 6.60315E-18
4.00286E-07 5.73846E-18
4.28368E-07 5.01079E-18
4.57402E-07 4.39489E-18
4.87388E-07 3.87077E-18
5.18325E-07 3.42251E-18
5.50215E-07 3.03730E-18
5.83057E-07 2.70480E-18
6.16850E-07 2.41657E-18
6.51596E-07 2.16573E-18
6.87293E-07 1.94662E-18
7.23942E-07 1.75452E-18
7.61543E-07 1.58555E-18
1.18991E-06 6.49470E-19
1.71347E-06 3.13221E-19
2.33223E-06 1.69075E-19
3.04617E-06 9.91120E-20
3.85531E-06 6.18772E-20
4.75964E-06 4.05989E-20
5.75916E-06 2.77305E-20
6.85388E-06 1.95802E-20
8.04378E-06 1.42162E-20
9.32888E-06 1.05696E-20
1.07092E-05 8.02080E-21
1.21846E-05 6.19607E-21
1.37553E-05 4.86199E-21
1.54212E-05 3.86842E-21
1.71822E-05 3.11618E-21
1.90385E-05 2.53823E-21
2.09899E-05 2.08644E-21
2.30365E-05 1.73298E-21
2.51783E-05 1.45146E-21
2.74153E-05 1.22475E-21
2.97475E-05 1.04040E-21
3.21749E-05 8.89261E-22
3.46974E-05 7.64470E-22
3.73152E-05 6.60791E-22
4.00281E-05 5.74150E-22
4.28362E-05 5.01327E-22
4.57395E-05 4.39758E-22
4.87380E-05 3.87396E-22
5.18317E-05 3.42608E-22
5.50205E-05 3.04092E-22
5.83045E-05 2.70812E-22
6.16838E-05 2.41940E-22
6.51582E-05 2.16802E-22
6.87277E-05 1.94846E-22
7.23925E-05 1.75608E-22
7.61524E-05 1.58059E-22
9.21439E-05 1.07910E-22
1.09658E-04 7.61119E-23
1.28695E-04 5.52142E-23
1.49255E-04 4.10090E-23
1.71338E-04 3.10832E-23
1.94942E-04 2.39855E-23
2.20070E-04 1.87952E-23
2.46720E-04 1.49350E-23
2.74892E-04 1.20129E-23
3.04586E-04 9.76990E-24
3.35803E-04 8.02522E-24
3.68542E-04 6.65117E-24
4.02802E-04 5.55821E-24
4.38585E-04 4.67937E-24
4.75889E-04 3.96684E-24
5.14715E-04 3.38407E-24
5.55063E-04 2.90377E-24
5.96931E-04 2.50525E-24
6.40321E-04 2.17219E-24
6.85233E-04 1.89233E-24
7.31665E-04 1.65568E-24
7.79618E-04 1.45456E-24
8.29092E-04 1.28278E-24
8.80086E-04 1.13533E-24
9.32601E-04 1.00825E-24
9.86636E-04 8.98234E-25
1.04219E-03 8.02641E-25
1.09927E-03 7.19257E-25
1.15786E-03 6.46265E-25
1.21797E-03 5.82170E-25
1.27961E-03 5.25691E-25
1.34276E-03 4.75790E-25
1.40743E-03 4.31563E-25
1.47362E-03 3.92264E-25
1.54133E-03 3.57253E-25
1.61056E-03 3.25978E-25
1.68131E-03 2.97984E-25
1.75357E-03 2.72862E-25
1.82735E-03 2.50272E-25
1.90265E-03 2.29916E-25
1.97947E-03 2.11535E-25
2.05780E-03 1.94909E-25
2.13765E-03 1.79838E-25
2.21902E-03 1.66157E-25
2.30190E-03 1.53714E-25
2.38630E-03 1.42379E-25
2.47222E-03 1.32037E-25
2.55965E-03 1.22587E-25
2.64859E-03 1.13939E-25
2.73905E-03 1.06014E-25
2.83103E-03 9.87419E-26
2.92452E-03 9.20598E-26
3.01952E-03 8.59118E-26
3.11604E-03 8.02490E-26
3.21407E-03 7.50259E-26
3.31362E-03 7.02037E-26
3.41468E-03 6.57461E-26
3.51725E-03 6.16213E-26
3.62133E-03 5.78006E-26
3.72692E-03 5.42576E-26
3.83403E-03 5.09694E-26
3.94265E-03 4.79142E-26
4.05278E-03 4.50733E-26
4.16442E-03 4.24291E-26
4.27757E-03 3.99658E-26
4.39223E-03 3.76693E-26
4.50840E-03 3.55263E-26
4.62608E-03 3.35251E-26
4.74527E-03 3.16547E-26
4.86597E-03 2.99053E-26
4.98817E-03 2.82680E-26
5.11188E-03 2.67343E-26
5.23711E-03 2.52968E-26
5.36383E-03 2.39485E-26
5.49207E-03 2.26830E-26
5.62181E-03 2.14945E-26
5.75306E-03 2.03776E-26
5.88581E-03 1.93273E-26
6.02007E-03 1.83391E-26
6.15583E-03 1.74088E-26
6.29310E-03 1.65324E-26
6.43187E-03 1.57065E-26
6.57214E-03 1.49276E-26
6.71392E-03 1.41927E-26
6.85720E-03 1.34990E-26
7.00198E-03 1.28438E-26
7.14827E-03 1.22247E-26
7.29605E-03 1.16394E-26
7.44534E-03 1.10858E-26
7.59612E-03 1.05620E-26
7.97965E-03 9.37100E-27
8.37255E-03 8.32978E-27
8.77480E-03 7.41719E-27
9.18641E-03 6.61544E-27
9.60736E-03 5.90947E-27
1.00376E-02 5.28652E-27
1.04773E-02 4.73571E-27
1.09262E-02 4.24776E-27
1.13844E-02 3.81472E-27
1.18520E-02 3.42974E-27
1.23288E-02 3.08693E-27
1.28150E-02 2.78120E-27
1.33104E-02 2.50815E-27
1.38150E-02 2.26394E-27
1.43290E-02 2.04523E-27
1.48521E-02 1.84912E-27
1.53845E-02 1.67307E-27
1.59262E-02 1.51484E-27
1.64770E-02 1.37248E-27
1.70371E-02 1.24427E-27
1.76063E-02 1.12869E-27
1.81848E-02 1.02440E-27
1.87724E-02 9.30221E-28
1.93692E-02 8.45096E-28
1.99751E-02 7.68100E-28
2.05901E-02 6.98403E-28
2.12143E-02 6.35270E-28
2.18476E-02 5.78047E-28
2.24900E-02 5.26146E-28
2.31415E-02 4.79047E-28
2.38021E-02 4.36281E-28
2.44717E-02 3.97429E-28
2.51504E-02 3.62117E-28
2.58382E-02 3.30007E-28
2.65349E-02 3.00796E-28
2.72407E-02 2.74212E-28
2.79555E-02 2.50010E-28
2.86793E-02 2.27968E-28
2.94120E-02 2.07888E-28
3.01537E-02 1.89590E-28
3.09043E-02 1.72911E-28
3.16639E-02 1.57703E-28
3.24324E-02 1.43835E-28
3.32098E-02 1.31185E-28
3.39961E-02 1.19644E-28
3.47912E-02 1.09114E-28
3.55952E-02 9.95049E-29
3.64081E-02 9.07346E-29
3.72297E-02 8.27293E-29
3.80602E-02 7.54217E-29
3.88995E-02 6.87506E-29
3.97476E-02 6.26603E-29
4.06044E-02 5.71001E-29
4.14700E-02 5.20239E-29
4.23443E-02 4.73895E-29
4.32273E-02 4.31586E-29
4.41190E-02 3.92963E-29
4.50194E-02 3.57706E-29
4.59284E-02 3.25526E-29
4.68461E-02 2.96156E-29
4.87074E-02 2.44900E-29
5.06030E-02 2.02240E-29
5.25328E-02 1.66759E-29
5.44967E-02 1.37273E-29
5.64946E-02 1.12794E-29
5.85262E-02 9.24938E-30
6.05914E-02 7.56806E-30
6.26901E-02 6.17752E-30
6.48222E-02 5.02929E-30
6.69873E-02 4.08280E-30
6.91854E-02 3.30413E-30
7.14163E-02 2.66488E-30
7.36799E-02 2.14132E-30
7.59760E-02 1.71362E-30
7.83043E-02 1.36522E-30
8.06647E-02 1.08229E-30
8.30571E-02 8.53333E-31
8.54812E-02 6.68749E-31
8.79369E-02 5.20567E-31
9.04240E-02 4.02166E-31
9.29422E-02 3.08059E-31
9.54915E-02 2.33702E-31
9.80716E-02 1.75346E-31
1.00682E-01 1.29899E-31
1.03323E-01 9.48206E-32
1.05995E-01 6.80264E-32
1.08696E-01 4.78140E-32
1.11427E-01 3.27959E-32
1.14188E-01 2.18461E-32
1.16978E-01 1.40543E-32
1.19797E-01 8.68820E-33
1.22645E-01 5.16165E-33
1.25522E-01 3.00845E-33
1.28428E-01 1.86029E-33
1.31361E-01 1.42854E-33
1.34323E-01 1.48917E-33
1.37313E-01 1.87029E-33
1.40330E-01 2.44183E-33
1.43375E-01 3.10709E-33
1.46447E-01 3.79580E-33
1.49545E-01 4.45851E-33
1.52671E-01 5.06191E-33
1.55823E-01 5.58515E-33
1.59001E-01 6.01678E-33
1.62205E-01 6.35242E-33
1.65435E-01 6.59280E-33
1.68690E-01 6.74223E-33
1.71970E-01 6.80742E-33
1.75276E-01 6.79666E-33
1.78606E-01 6.71894E-33
1.81961E-01 6.58360E-33
1.85340E-01 6.39986E-33
1.88743E-01 6.17654E-33
1.92169E-01 5.92194E-33
1.95619E-01 5.64363E-33
1.99092E-01 5.34845E-33
2.02589E-01 5.04248E-33
2.06107E-01 4.73101E-33
2.09649E-01 4.41861E-33
2.13212E-01 4.10909E-33
2.16797E-01 3.80570E-33
2.20404E-01 3.51099E-33
2.24032E-01 3.22704E-33
2.27680E-01 2.95544E-33
2.31350E-01 2.69731E-33
2.35040E-01 2.45345E-33
2.38751E-01 2.22432E-33
2.42481E-01 2.01012E-33
2.46231E-01 1.81081E-33
2.50000E-01 1.62618E-33
2.53788E-01 1.45587E-33
2.57595E-01 1.29940E-33
2.61421E-01 1.15618E-33
2.65264E-01 1.02558E-33
2.69126E-01 9.06915E-34
2.73005E-01 7.99461E-34
2.76901E-01 7.02496E-34
2.80814E-01 6.15290E-34
2.84744E-01 5.37115E-34
2.88691E-01 4.67272E-34
2.92653E-01 4.05076E-34
2.96632E-01 3.49876E-34
3.00625E-01 3.01046E-34
3.04634E-01 2.57999E-34
3.08658E-01 2.20180E-34
3.12697E-01 1.87074E-34
3.16749E-01 1.58198E-34
3.20816E-01 1.33110E-34
3.24896E-01 1.11397E-34
3.28990E-01 9.26857E-35
3.33097E-01 7.66306E-35
3.37216E-01 6.29197E-35
3.41348E-01 5.12714E-35
3.45492E-01 4.14286E-35
3.49647E-01 3.31604E-35
3.53814E-01 2.62615E-35
3.57992E-01 2.05475E-35
3.62181E-01 1.58540E-35
3.66381E-01 1.20349E-35
3.70590E-01 8.96207E-36
3.74810E-01 6.52211E-36
3.79039E-01 4.61526E-36
3.83277E-01 3.15512E-36
3.87524E-01 2.06563E-36
3.91780E-01 1.28176E-36
3.96044E-01 7.46618E-37
4.00316E-01 4.12090E-37
4.04596E-01 2.36707E-37
4.08882E-01 1.85420E-37
4.13176E-01 2.28632E-37
4.17476E-01 3.41674E-37
4.21783E-01 5.03972E-37
4.26095E-01 6.98646E-37
4.30413E-01 9.11829E-37
4.34737E-01 1.13277E-36
4.39065E-01 1.35257E-36
4.43398E-01 1.56457E-36
4.47736E-01 1.76351E-36
4.52077E-01 1.94587E-36
4.56422E-01 2.10931E-36
4.60770E-01 2.25202E-36
4.65122E-01 2.37345E-36
4.69476E-01 2.47328E-36
4.73832E-01 2.55207E-36
4.78190E-01 2.61009E-36
4.82550E-01 2.64887E-36
4.86912E-01 2.66944E-36
4.91274E-01 2.67321E-36
4.95637E-01 2.66166E-36
5.00000E-01 2.63595E-36
5.04363E-01 2.59807E-36
5.08726E-01 2.54922E-36
5.13088E-01 2.49110E-36
5.17450E-01 2.42485E-36
5.21810E-01 2.35206E-36
5.26168E-01 2.27362E-36
5.30524E-01 2.19107E-36
5.34878E-01 2.10526E-36
5.39230E-01 2.01686E-36
5.43578E-01 1.92719E-36
5.47923E-01 1.83668E-36
5.52264E-01 1.74643E-36
5.56602E-01 1.65656E-36
5.60935E-01 1.56806E-36
5.65263E-01 1.48103E-36
5.69587E-01 1.39593E-36
5.73905E-01 1.31322E-36
5.78217E-01 1.23306E-36
5.82524E-01 1.15578E-36
5.86824E-01 1.08143E-36
5.91118E-01 1.00998E-36
5.95404E-01 9.41759E-37
5.99684E-01 8.76695E-37
6.03956E-01 8.14867E-37
6.08220E-01 7.56193E-37
6.12476E-01 7.00675E-37
6.16723E-01 6.48257E-37
6.20961E-01 5.98823E-37
6.25190E-01 5.52500E-37
6.29410E-01 5.08792E-37
6.33619E-01 4.68043E-37
6.37819E-01 4.29968E-37
6.42008E-01 3.94328E-37
6.46186E-01 3.61186E-37
6.50353E-01 3.30325E-37
6.54508E-01 3.01707E-37
6.58652E-01 2.75158E-37
6.62784E-01 2.50591E-37
6.66903E-01 2.27956E-37
6.71010E-01 2.07028E-37
6.75104E-01 1.87721E-37
6.79184E-01 1.70018E-37
6.83251E-01 1.53768E-37
6.87303E-01 1.38834E-37
6.91342E-01 1.25150E-37
6.95366E-01 1.12657E-37
6.99375E-01 1.01286E-37
7.03368E-01 9.08517E-38
7.07347E-01 8.14289E-38
7.11309E-01 7.28235E-38
7.15256E-01 6.50385E-38
7.19186E-01 5.79383E-38
7.23099E-01 5.15477E-38
7.26995E-01 4.57569E-38
7.30874E-01 4.05747E-38
7.34736E-01 3.58718E-38
7.38579E-01 3.16420E-38
7.42405E-01 2.78460E-38
7.46212E-01 2.44686E-38
7.50000E-01 2.14298E-38
7.53769E-01 1.87206E-38
7.57519E-01 1.63089E-38
7.61249E-01 1.41513E-38
7.64960E-01 1.22569E-38
7.68650E-01 1.05613E-38
7.72320E-01 9.08097E-39
7.75968E-01 7.77034E-39
7.79596E-01 6.61445E-39
7.83203E-01 5.61068E-39
7.86788E-01 4.72766E-39
7.90351E-01 3.96734E-39
7.93893E-01 3.30180E-39
7.97411E-01 2.73210E-39
8.00908E-01 2.23897E-39
8.04381E-01 1.82272E-39
8.07831E-01 1.46554E-39
8.11257E-01 1.16714E-39
8.14660E-01 9.17482E-40
8.18039E-01 7.05582E-40
8.21394E-01 5.38614E-40
8.24724E-01 3.97947E-40
8.28030E-01 2.86351E-40
8.31310E-01 1.97680E-40
8.34565E-01 1.31816E-40
8.37795E-01 8.26631E-41
8.40999E-01 4.82870E-41
8.44177E-01 1.00000E-45
8.47329E-01 1.00000E-45
8.50455E-01 1.00000E-45
8.53553E-01 1.00000E-45
8.56625E-01 1.00000E-45
8.59670E-01 1.00000E-45
8.62687E-01 1.00000E-45
8.65677E-01 1.00000E-45
8.68639E-01 1.00000E-45
8.71572E-01 1.00000E-45
8.74478E-01 1.00000E-45
8.77355E-01 1.00000E-45
8.80203E-01 1.00000E-45
8.83022E-01 1.00000E-45
8.85812E-01 1.00000E-45
8.88573E-01 1.00000E-45
8.91304E-01 1.00000E-45
8.94005E-01 1.00000E-45
8.96677E-01 1.00000E-45
8.99318E-01 1.00000E-45
9.01928E-01 1.00000E-45
9.04508E-01 1.00000E-45
9.07058E-01 1.00000E-45
9.09576E-01 1.00000E-45
9.12063E-01 1.00000E-45
9.14519E-01 1.00000E-45
9.16943E-01 1.00000E-45
9.19335E-01 1.00000E-45
9.21696E-01 1.00000E-45
9.24024E-01 1.00000E-45
9.26320E-01 1.00000E-45
9.28584E-01 1.00000E-45
9.30815E-01 1.00000E-45
9.33013E-01 1.00000E-45
9.35178E-01 1.00000E-45
9.37310E-01 1.00000E-45
9.39409E-01 1.00000E-45
9.41474E-01 1.00000E-45
9.43505E-01 1.00000E-45
9.45503E-01 1.00000E-45
9.47467E-01 1.00000E-45
9.49397E-01 1.00000E-45
9.51293E-01 1.00000E-45
9.53154E-01 1.00000E-45
9.54981E-01 1.00000E-45
9.56773E-01 1.00000E-45
9.58530E-01 1.00000E-45
9.60252E-01 1.00000E-45
9.61940E-01 1.00000E-45
9.63592E-01 1.00000E-45
9.65209E-01 1.00000E-45
9.66790E-01 1.00000E-45
9.68336E-01 1.00000E-45
9.69846E-01 1.00000E-45
9.71321E-01 1.00000E-45
9.72759E-01 1.00000E-45
9.74162E-01 1.00000E-45
9.75528E-01 1.00000E-45
9.76858E-01 1.00000E-45
9.78152E-01 1.00000E-45
9.79410E-01 1.00000E-45
9.80631E-01 1.00000E-45
9.81815E-01 1.00000E-45
9.82963E-01 1.00000E-45
9.84074E-01 1.00000E-45
9.85148E-01 1.00000E-45
9.86185E-01 1.00000E-45
9.87185E-01 1.00000E-45
9.88148E-01 1.00000E-45
9.89074E-01 1.00000E-45
9.89962E-01 1.00000E-45
9.90814E-01 1.00000E-45
9.91627E-01 1.00000E-45
9.92404E-01 1.00000E-45
9.93143E-01 1.00000E-45
9.93844E-01 1.00000E-45
9.94508E-01 1.00000E-45
9.95134E-01 1.00000E-45
9.95722E-01 1.00000E-45
9.96273E-01 1.00000E-45
9.96786E-01 1.00000E-45
9.97261E-01 1.00000E-45
9.97698E-01 1.00000E-45
9.98097E-01 1.00000E-45
9.98459E-01 1.00000E-45
9.98782E-01 1.00000E-45
9.99067E-01 1.00000E-45
9.99315E-01 1.00000E-45
9.99524E-01 1.00000E-45
9.99695E-01 1.00000E-45
9.99829E-01 1.00000E-45
9.99924E-01 1.00000E-45
9.99981E-01 1.00000E-45
1.00000E+00 1.00000E-45
