 #
 # Subroutine ELSEPA. Elastic scattering of electrons and positrons
 #                    by neutral atoms and positive ions
 #
 # Projectile: electron
 # Kinetic energy = 9.00000E+08 eV = 3.30744E+07 a.u.
 #
 # WARNING: High-energy factorization with free-atom DF screening.
 #          Absorption, polarization and exchange corrections are
 #          switched off.
 #          Phase shifts are calculated for the bare nucleus.
 #          Scattering amplitudes are not evaluated.
 #
 # Element:  C,  Z =   6,  atomic weight = 1.20107E+01 g/mol
 #
 # Nuclear model: Fermi distribution
 #                Average radius = 2.45042E-13 cm
 #                Skin thickness = 5.46000E-14 cm
 #
 # Number of electrons =  6
 #
 # Total elastic cross section = 2.40384E-19 cm**2 = 8.58428E-03 a0**2
 # 1st transport cross section = 1.01917E-28 cm**2 = 3.63951E-12 a0**2
 # 2nd transport cross section = 3.05671E-28 cm**2 = 1.09157E-11 a0**2
 #
 #
 # Differential cross section:                       MU=(1-COS(THETA))/2
 #
 #  THETA        MU          DCS          DCS        Sherman      error
 #  (deg)                 (cm**2/sr)   (a0**2/sr)    function
 #----------------------------------------------------------------------
0.00000E+00 1.90455E-09
7.61557E-13 1.67083E-09
1.18994E-12 1.55693E-09
1.71346E-12 1.43216E-09
2.33225E-12 1.29778E-09
3.04617E-12 1.17090E-09
3.85530E-12 1.04229E-09
4.75964E-12 9.22916E-10
5.75917E-12 8.14681E-10
6.85391E-12 7.11576E-10
8.04379E-12 6.21627E-10
9.32893E-12 5.41377E-10
1.07092E-11 4.69604E-10
1.21847E-11 4.08058E-10
1.37554E-11 3.53639E-10
1.54213E-11 3.06615E-10
1.71823E-11 2.66485E-10
1.90386E-11 2.31211E-10
2.09900E-11 2.01176E-10
2.30367E-11 1.75411E-10
2.51785E-11 1.53037E-10
2.74156E-11 1.33946E-10
2.97478E-11 1.17464E-10
3.21752E-11 1.03238E-10
3.46979E-11 9.10128E-11
3.73157E-11 8.04004E-11
4.00286E-11 7.12274E-11
4.28368E-11 6.32839E-11
4.57402E-11 5.63768E-11
4.87388E-11 5.03604E-11
5.18325E-11 4.50916E-11
5.50215E-11 4.04723E-11
5.83057E-11 3.64222E-11
6.16850E-11 3.28583E-11
6.51595E-11 2.97185E-11
6.87293E-11 2.69447E-11
7.23943E-11 2.44900E-11
7.61544E-11 2.23116E-11
1.18991E-10 9.83504E-12
1.71347E-10 5.08361E-12
2.33223E-10 2.93119E-12
3.04617E-10 1.82387E-12
3.85531E-10 1.19937E-12
4.75965E-10 8.22160E-13
5.75917E-10 5.82227E-13
6.85389E-10 4.23678E-13
8.04380E-10 3.15098E-13
9.32891E-10 2.39012E-13
1.07092E-09 1.84341E-13
1.21847E-09 1.44311E-13
1.37554E-09 1.14494E-13
1.54213E-09 9.19153E-14
1.71823E-09 7.46009E-14
1.90386E-09 6.11410E-14
2.09900E-09 5.05640E-14
2.30367E-09 4.21628E-14
2.51785E-09 3.54246E-14
2.74156E-09 2.99734E-14
2.97478E-09 2.55248E-14
3.21752E-09 2.18683E-14
3.46978E-09 1.88405E-14
3.73156E-09 1.63169E-14
4.00286E-09 1.42006E-14
4.28368E-09 1.24151E-14
4.57402E-09 1.09009E-14
4.87388E-09 9.60986E-15
5.18326E-09 8.50393E-15
5.50215E-09 7.55223E-15
5.83057E-09 6.72969E-15
6.16850E-09 6.01593E-15
6.51596E-09 5.39413E-15
6.87293E-09 4.85051E-15
7.23942E-09 4.37355E-15
7.61544E-09 3.95371E-15
1.18991E-08 1.62277E-15
1.71347E-08 7.83217E-16
2.33223E-08 4.22916E-16
3.04617E-08 2.47940E-16
3.85531E-08 1.54797E-16
4.75965E-08 1.01567E-16
5.75917E-08 6.93741E-17
6.85389E-08 4.89841E-17
8.04380E-08 3.55644E-17
9.32891E-08 2.64414E-17
1.07092E-07 2.00650E-17
1.21847E-07 1.54999E-17
1.37554E-07 1.21624E-17
1.54213E-07 9.67671E-18
1.71823E-07 7.79484E-18
1.90386E-07 6.34900E-18
2.09900E-07 5.22337E-18
2.30367E-07 4.33651E-18
2.51785E-07 3.63013E-18
2.74156E-07 3.06190E-18
2.97478E-07 2.60063E-18
3.21752E-07 2.22304E-18
3.46978E-07 1.91156E-18
3.73156E-07 1.65277E-18
4.00286E-07 1.43633E-18
4.28368E-07 1.25419E-18
4.57402E-07 1.10003E-18
4.87388E-07 9.68841E-19
5.18325E-07 8.56641E-19
5.50215E-07 7.60222E-19
5.83057E-07 6.76995E-19
6.16850E-07 6.04852E-19
6.51596E-07 5.42069E-19
6.87293E-07 4.87224E-19
7.23942E-07 4.39143E-19
7.61543E-07 3.96850E-19
1.18991E-06 1.62555E-19
1.71347E-06 7.83952E-20
2.33223E-06 4.23171E-20
3.04617E-06 2.48063E-20
3.85531E-06 1.54869E-20
4.75964E-06 1.01613E-20
5.75916E-06 6.94051E-21
6.85388E-06 4.90061E-21
8.04378E-06 3.55808E-21
9.32888E-06 2.64539E-21
1.07092E-05 2.00748E-21
1.21846E-05 1.55078E-21
1.37553E-05 1.21688E-21
1.54212E-05 9.68201E-22
1.71822E-05 7.79929E-22
1.90385E-05 6.35276E-22
2.09899E-05 5.22201E-22
2.30365E-05 4.33737E-22
2.51783E-05 3.63278E-22
2.74153E-05 3.06535E-22
2.97475E-05 2.60395E-22
3.21749E-05 2.22567E-22
3.46974E-05 1.91334E-22
3.73152E-05 1.65385E-22
4.00281E-05 1.43700E-22
4.28362E-05 1.25474E-22
4.57395E-05 1.10064E-22
4.87380E-05 9.69589E-23
5.18317E-05 8.57490E-23
5.50205E-05 7.61091E-23
5.83045E-05 6.77799E-23
6.16838E-05 6.05536E-23
6.51582E-05 5.42620E-23
6.87277E-05 4.87666E-23
7.23925E-05 4.39519E-23
7.61524E-05 3.90823E-23
9.21439E-05 2.66138E-23
1.09658E-04 1.87186E-23
1.28695E-04 1.35376E-23
1.49255E-04 1.00215E-23
1.71338E-04 7.56892E-24
1.94942E-04 5.81842E-24
2.20070E-04 4.54091E-24
2.46720E-04 3.59281E-24
2.74892E-04 2.87676E-24
3.04586E-04 2.32843E-24
3.35803E-04 1.90301E-24
3.68542E-04 1.56886E-24
4.02802E-04 1.30383E-24
4.38585E-04 1.09134E-24
4.75889E-04 9.19602E-25
5.14715E-04 7.79597E-25
5.55063E-04 6.64600E-25
5.96931E-04 5.69521E-25
6.40321E-04 4.90355E-25
6.85233E-04 4.24086E-25
7.31665E-04 3.68275E-25
7.79618E-04 3.21040E-25
8.29092E-04 2.80870E-25
8.80086E-04 2.46542E-25
9.32601E-04 2.17096E-25
9.86636E-04 1.91723E-25
1.04219E-03 1.69786E-25
1.09927E-03 1.50749E-25
1.15786E-03 1.34172E-25
1.21797E-03 1.19695E-25
1.27961E-03 1.07009E-25
1.34276E-03 9.58664E-26
1.40743E-03 8.60492E-26
1.47362E-03 7.73794E-26
1.54133E-03 6.97043E-26
1.61056E-03 6.28930E-26
1.68131E-03 5.68367E-26
1.75357E-03 5.14389E-26
1.82735E-03 4.66197E-26
1.90265E-03 4.23082E-26
1.97947E-03 3.84440E-26
2.05780E-03 3.49752E-26
2.13765E-03 3.18556E-26
2.21902E-03 2.90462E-26
2.30190E-03 2.65119E-26
2.38630E-03 2.42227E-26
2.47222E-03 2.21521E-26
2.55965E-03 2.02766E-26
2.64859E-03 1.85759E-26
2.73905E-03 1.70315E-26
2.83103E-03 1.56278E-26
2.92452E-03 1.43503E-26
3.01952E-03 1.31866E-26
3.11604E-03 1.21254E-26
3.21407E-03 1.11567E-26
3.31362E-03 1.02717E-26
3.41468E-03 9.46233E-27
3.51725E-03 8.72159E-27
3.62133E-03 8.04309E-27
3.72692E-03 7.42105E-27
3.83403E-03 6.85043E-27
3.94265E-03 6.32651E-27
4.05278E-03 5.84520E-27
4.16442E-03 5.40271E-27
4.27757E-03 4.99564E-27
4.39223E-03 4.62097E-27
4.50840E-03 4.27585E-27
4.62608E-03 3.95784E-27
4.74527E-03 3.66461E-27
4.86597E-03 3.39411E-27
4.98817E-03 3.14445E-27
5.11188E-03 2.91390E-27
5.23711E-03 2.70093E-27
5.36383E-03 2.50409E-27
5.49207E-03 2.32210E-27
5.62181E-03 2.15377E-27
5.75306E-03 1.99801E-27
5.88581E-03 1.85384E-27
6.02007E-03 1.72034E-27
6.15583E-03 1.59669E-27
6.29310E-03 1.48212E-27
6.43187E-03 1.37595E-27
6.57214E-03 1.27752E-27
6.71392E-03 1.18624E-27
6.85720E-03 1.10158E-27
7.00198E-03 1.02304E-27
7.14827E-03 9.50163E-28
7.29605E-03 8.82521E-28
7.44534E-03 8.19728E-28
7.59612E-03 7.61430E-28
7.97965E-03 6.33227E-28
8.37255E-03 5.26597E-28
8.77480E-03 4.37846E-28
9.18641E-03 3.63935E-28
9.60736E-03 3.02359E-28
1.00376E-02 2.51048E-28
1.04773E-02 2.08286E-28
1.09262E-02 1.72653E-28
1.13844E-02 1.42967E-28
1.18520E-02 1.18243E-28
1.23288E-02 9.76640E-29
1.28150E-02 8.05454E-29
1.33104E-02 6.63168E-29
1.38150E-02 5.45016E-29
1.43290E-02 4.47012E-29
1.48521E-02 3.65823E-29
1.53845E-02 2.98658E-29
1.59262E-02 2.43183E-29
1.64770E-02 1.97443E-29
1.70371E-02 1.59804E-29
1.76063E-02 1.28898E-29
1.81848E-02 1.03580E-29
1.87724E-02 8.28937E-30
1.93692E-02 6.60403E-30
1.99751E-02 5.23529E-30
2.05901E-02 4.12753E-30
2.12143E-02 3.23444E-30
2.18476E-02 2.51749E-30
2.24900E-02 1.94466E-30
2.31415E-02 1.48941E-30
2.38021E-02 1.12977E-30
2.44717E-02 8.47562E-31
2.51504E-02 6.27833E-31
2.58382E-02 4.58274E-31
2.65349E-02 3.28790E-31
2.72407E-02 2.31131E-31
2.79555E-02 1.58577E-31
2.86793E-02 1.05670E-31
2.94120E-02 6.80035E-32
3.01537E-02 4.20308E-32
3.09043E-02 2.49158E-32
3.16639E-02 1.44041E-32
3.24324E-02 8.71646E-33
3.32098E-02 6.46030E-33
3.39961E-02 6.55652E-33
3.47912E-02 8.17879E-33
3.55952E-02 1.07035E-32
3.64081E-02 1.36685E-32
3.72297E-02 1.67396E-32
3.80602E-02 1.96830E-32
3.88995E-02 2.23425E-32
3.97476E-02 2.46219E-32
4.06044E-02 2.64700E-32
4.14700E-02 2.78690E-32
4.23443E-02 2.88255E-32
4.32273E-02 2.93627E-32
4.41190E-02 2.95149E-32
4.50194E-02 2.93233E-32
4.59284E-02 2.88324E-32
4.68461E-02 2.80875E-32
4.87074E-02 2.60115E-32
5.06030E-02 2.34197E-32
5.25328E-02 2.05813E-32
5.44967E-02 1.77041E-32
5.64946E-02 1.49373E-32
5.85262E-02 1.23794E-32
6.05914E-02 1.00874E-32
6.26901E-02 8.08682E-33
6.48222E-02 6.37974E-33
6.69873E-02 4.95259E-33
6.91854E-02 3.78183E-33
7.14163E-02 2.83860E-33
7.36799E-02 2.09196E-33
7.59760E-02 1.51133E-33
7.83043E-02 1.06799E-33
8.06647E-02 7.35963E-34
8.30571E-02 4.92498E-34
8.54812E-02 3.18152E-34
8.79369E-02 1.96701E-34
9.04240E-02 1.14885E-34
9.29422E-02 6.20903E-35
9.54915E-02 2.99841E-35
9.80716E-02 1.21628E-35
1.00682E-01 3.81174E-36
1.03323E-01 1.39912E-36
1.05995E-01 2.40632E-36
1.08696E-01 5.09860E-36
1.11427E-01 8.33411E-36
1.14188E-01 1.14086E-35
1.16978E-01 1.39299E-35
1.19797E-01 1.57237E-35
1.22645E-01 1.67573E-35
1.25522E-01 1.70868E-35
1.28428E-01 1.68166E-35
1.31361E-01 1.60718E-35
1.34323E-01 1.49803E-35
1.37313E-01 1.36602E-35
1.40330E-01 1.22150E-35
1.43375E-01 1.07291E-35
1.46447E-01 9.26891E-36
1.49545E-01 7.88233E-36
1.52671E-01 6.60246E-36
1.55823E-01 5.44864E-36
1.59001E-01 4.43070E-36
1.62205E-01 3.54942E-36
1.65435E-01 2.79994E-36
1.68690E-01 2.17337E-36
1.71970E-01 1.65855E-36
1.75276E-01 1.24225E-36
1.78606E-01 9.11686E-37
1.81961E-01 6.53869E-37
1.85340E-01 4.56668E-37
1.88743E-01 3.09104E-37
1.92169E-01 2.01313E-37
1.95619E-01 1.24917E-37
1.99092E-01 7.26742E-38
2.02589E-01 3.86157E-38
2.06107E-01 1.79133E-38
2.09649E-01 6.67080E-39
2.13212E-01 1.88951E-39
2.16797E-01 1.25955E-39
2.20404E-01 3.07538E-39
2.24032E-01 6.10236E-39
2.27680E-01 9.50501E-39
2.31350E-01 1.27124E-38
2.35040E-01 1.54055E-38
2.38751E-01 1.74074E-38
2.42481E-01 1.86761E-38
2.46231E-01 1.92376E-38
2.50000E-01 1.91801E-38
2.53788E-01 1.85975E-38
2.57595E-01 1.76097E-38
2.61421E-01 1.63337E-38
2.65264E-01 1.48716E-38
2.69126E-01 1.33154E-38
2.73005E-01 1.17230E-38
2.76901E-01 1.01655E-38
2.80814E-01 8.68651E-39
2.84744E-01 7.30397E-39
2.88691E-01 6.05115E-39
2.92653E-01 4.92896E-39
2.96632E-01 3.94964E-39
3.00625E-01 3.10764E-39
3.04634E-01 2.39758E-39
3.08658E-01 1.80738E-39
3.12697E-01 1.33180E-39
3.16749E-01 9.52751E-40
3.20816E-01 6.60438E-40
3.24896E-01 4.38843E-40
3.28990E-01 2.77000E-40
3.33097E-01 1.00000E-45
3.37216E-01 1.00000E-45
3.41348E-01 1.00000E-45
3.45492E-01 1.00000E-45
3.49647E-01 1.00000E-45
3.53814E-01 1.00000E-45
3.57992E-01 1.00000E-45
3.62181E-01 1.00000E-45
3.66381E-01 1.00000E-45
3.70590E-01 1.00000E-45
3.74810E-01 1.00000E-45
3.79039E-01 1.00000E-45
3.83277E-01 1.00000E-45
3.87524E-01 1.00000E-45
3.91780E-01 1.00000E-45
3.96044E-01 1.00000E-45
4.00316E-01 1.00000E-45
4.04596E-01 1.00000E-45
4.08882E-01 1.00000E-45
4.13176E-01 1.00000E-45
4.17476E-01 1.00000E-45
4.21783E-01 1.00000E-45
4.26095E-01 1.00000E-45
4.30413E-01 1.00000E-45
4.34737E-01 1.00000E-45
4.39065E-01 1.00000E-45
4.43398E-01 1.00000E-45
4.47736E-01 1.00000E-45
4.52077E-01 1.00000E-45
4.56422E-01 1.00000E-45
4.60770E-01 1.00000E-45
4.65122E-01 1.00000E-45
4.69476E-01 1.00000E-45
4.73832E-01 1.00000E-45
4.78190E-01 1.00000E-45
4.82550E-01 1.00000E-45
4.86912E-01 1.00000E-45
4.91274E-01 1.00000E-45
4.95637E-01 1.00000E-45
5.00000E-01 1.00000E-45
5.04363E-01 1.00000E-45
5.08726E-01 1.00000E-45
5.13088E-01 1.00000E-45
5.17450E-01 1.00000E-45
5.21810E-01 1.00000E-45
5.26168E-01 1.00000E-45
5.30524E-01 1.00000E-45
5.34878E-01 1.00000E-45
5.39230E-01 1.00000E-45
5.43578E-01 1.00000E-45
5.47923E-01 1.00000E-45
5.52264E-01 1.00000E-45
5.56602E-01 1.00000E-45
5.60935E-01 1.00000E-45
5.65263E-01 1.00000E-45
5.69587E-01 1.00000E-45
5.73905E-01 1.00000E-45
5.78217E-01 1.00000E-45
5.82524E-01 1.00000E-45
5.86824E-01 1.00000E-45
5.91118E-01 1.00000E-45
5.95404E-01 1.00000E-45
5.99684E-01 1.00000E-45
6.03956E-01 1.00000E-45
6.08220E-01 1.00000E-45
6.12476E-01 1.00000E-45
6.16723E-01 1.00000E-45
6.20961E-01 1.00000E-45
6.25190E-01 1.00000E-45
6.29410E-01 1.00000E-45
6.33619E-01 1.00000E-45
6.37819E-01 1.00000E-45
6.42008E-01 1.00000E-45
6.46186E-01 1.00000E-45
6.50353E-01 1.00000E-45
6.54508E-01 1.00000E-45
6.58652E-01 1.00000E-45
6.62784E-01 1.00000E-45
6.66903E-01 1.00000E-45
6.71010E-01 1.00000E-45
6.75104E-01 1.00000E-45
6.79184E-01 1.00000E-45
6.83251E-01 1.00000E-45
6.87303E-01 1.00000E-45
6.91342E-01 1.00000E-45
6.95366E-01 1.00000E-45
6.99375E-01 1.00000E-45
7.03368E-01 1.00000E-45
7.07347E-01 1.00000E-45
7.11309E-01 1.00000E-45
7.15256E-01 1.00000E-45
7.19186E-01 1.00000E-45
7.23099E-01 1.00000E-45
7.26995E-01 1.00000E-45
7.30874E-01 1.00000E-45
7.34736E-01 1.00000E-45
7.38579E-01 1.00000E-45
7.42405E-01 1.00000E-45
7.46212E-01 1.00000E-45
7.50000E-01 1.00000E-45
7.53769E-01 1.00000E-45
7.57519E-01 1.00000E-45
7.61249E-01 1.00000E-45
7.64960E-01 1.00000E-45
7.68650E-01 1.00000E-45
7.72320E-01 1.00000E-45
7.75968E-01 1.00000E-45
7.79596E-01 1.00000E-45
7.83203E-01 1.00000E-45
7.86788E-01 1.00000E-45
7.90351E-01 1.00000E-45
7.93893E-01 1.00000E-45
7.97411E-01 1.00000E-45
8.00908E-01 1.00000E-45
8.04381E-01 1.00000E-45
8.07831E-01 1.00000E-45
8.11257E-01 1.00000E-45
8.14660E-01 1.00000E-45
8.18039E-01 1.00000E-45
8.21394E-01 1.00000E-45
8.24724E-01 1.00000E-45
8.28030E-01 1.00000E-45
8.31310E-01 1.00000E-45
8.34565E-01 1.00000E-45
8.37795E-01 1.00000E-45
8.40999E-01 1.00000E-45
8.44177E-01 1.00000E-45
8.47329E-01 1.00000E-45
8.50455E-01 1.00000E-45
8.53553E-01 1.00000E-45
8.56625E-01 1.00000E-45
8.59670E-01 1.00000E-45
8.62687E-01 1.00000E-45
8.65677E-01 1.00000E-45
8.68639E-01 1.00000E-45
8.71572E-01 1.00000E-45
8.74478E-01 1.00000E-45
8.77355E-01 1.00000E-45
8.80203E-01 1.00000E-45
8.83022E-01 1.00000E-45
8.85812E-01 1.00000E-45
8.88573E-01 1.00000E-45
8.91304E-01 1.00000E-45
8.94005E-01 1.00000E-45
8.96677E-01 1.00000E-45
8.99318E-01 1.00000E-45
9.01928E-01 1.00000E-45
9.04508E-01 1.00000E-45
9.07058E-01 1.00000E-45
9.09576E-01 1.00000E-45
9.12063E-01 1.00000E-45
9.14519E-01 1.00000E-45
9.16943E-01 1.00000E-45
9.19335E-01 1.00000E-45
9.21696E-01 1.00000E-45
9.24024E-01 1.00000E-45
9.26320E-01 1.00000E-45
9.28584E-01 1.00000E-45
9.30815E-01 1.00000E-45
9.33013E-01 1.00000E-45
9.35178E-01 1.00000E-45
9.37310E-01 1.00000E-45
9.39409E-01 1.00000E-45
9.41474E-01 1.00000E-45
9.43505E-01 1.00000E-45
9.45503E-01 1.00000E-45
9.47467E-01 1.00000E-45
9.49397E-01 1.00000E-45
9.51293E-01 1.00000E-45
9.53154E-01 1.00000E-45
9.54981E-01 1.00000E-45
9.56773E-01 1.00000E-45
9.58530E-01 1.00000E-45
9.60252E-01 1.00000E-45
9.61940E-01 1.00000E-45
9.63592E-01 1.00000E-45
9.65209E-01 1.00000E-45
9.66790E-01 1.00000E-45
9.68336E-01 1.00000E-45
9.69846E-01 1.00000E-45
9.71321E-01 1.00000E-45
9.72759E-01 1.00000E-45
9.74162E-01 1.00000E-45
9.75528E-01 1.00000E-45
9.76858E-01 1.00000E-45
9.78152E-01 1.00000E-45
9.79410E-01 1.00000E-45
9.80631E-01 1.00000E-45
9.81815E-01 1.00000E-45
9.82963E-01 1.00000E-45
9.84074E-01 1.00000E-45
9.85148E-01 1.00000E-45
9.86185E-01 1.00000E-45
9.87185E-01 1.00000E-45
9.88148E-01 1.00000E-45
9.89074E-01 1.00000E-45
9.89962E-01 1.00000E-45
9.90814E-01 1.00000E-45
9.91627E-01 1.00000E-45
9.92404E-01 1.00000E-45
9.93143E-01 1.00000E-45
9.93844E-01 1.00000E-45
9.94508E-01 1.00000E-45
9.95134E-01 1.00000E-45
9.95722E-01 1.00000E-45
9.96273E-01 1.00000E-45
9.96786E-01 1.00000E-45
9.97261E-01 1.00000E-45
9.97698E-01 1.00000E-45
9.98097E-01 1.00000E-45
9.98459E-01 1.00000E-45
9.98782E-01 1.00000E-45
9.99067E-01 1.00000E-45
9.99315E-01 1.00000E-45
9.99524E-01 1.00000E-45
9.99695E-01 1.00000E-45
9.99829E-01 1.00000E-45
9.99924E-01 1.00000E-45
9.99981E-01 1.00000E-45
1.00000E+00 1.00000E-45
