 #
 # Subroutine ELSEPA. Elastic scattering of electrons and positrons
 #                    by neutral atoms and positive ions
 #
 # Projectile: electron
 # Kinetic energy = 6.00000E+07 eV = 2.20496E+06 a.u.
 #
 # WARNING: High-energy factorization with free-atom DF screening.
 #          Absorption, polarization and exchange corrections are
 #          switched off.
 #          Phase shifts are calculated for the bare nucleus.
 #          Scattering amplitudes are not evaluated.
 #
 # Element:  C,  Z =   6,  atomic weight = 1.20107E+01 g/mol
 #
 # Nuclear model: Fermi distribution
 #                Average radius = 2.45042E-13 cm
 #                Skin thickness = 5.46000E-14 cm
 #
 # Number of electrons =  6
 #
 # Total elastic cross section = 2.41473E-19 cm**2 = 8.62317E-03 a0**2
 # 1st transport cross section = 2.15629E-26 cm**2 = 7.70026E-10 a0**2
 # 2nd transport cross section = 6.32291E-26 cm**2 = 2.25795E-09 a0**2
 #
 #
 # Differential cross section:                       MU=(1-COS(THETA))/2
 #
 #  THETA        MU          DCS          DCS        Sherman      error
 #  (deg)                 (cm**2/sr)   (a0**2/sr)    function
 #----------------------------------------------------------------------
0.00000E+00 8.59971E-12
7.61557E-13 8.59445E-12
1.18994E-12 8.59150E-12
1.71346E-12 8.58791E-12
2.33225E-12 8.58367E-12
3.04617E-12 8.57878E-12
3.85530E-12 8.57324E-12
4.75964E-12 8.56705E-12
5.75917E-12 8.56023E-12
6.85391E-12 8.55277E-12
8.04379E-12 8.54467E-12
9.32893E-12 8.53594E-12
1.07092E-11 8.52656E-12
1.21847E-11 8.51657E-12
1.37554E-11 8.50594E-12
1.54213E-11 8.49469E-12
1.71823E-11 8.48284E-12
1.90386E-11 8.47034E-12
2.09900E-11 8.45727E-12
2.30367E-11 8.44355E-12
2.51785E-11 8.42925E-12
2.74156E-11 8.41435E-12
2.97478E-11 8.39885E-12
3.21752E-11 8.38279E-12
3.46979E-11 8.36609E-12
3.73157E-11 8.34887E-12
4.00286E-11 8.33102E-12
4.28368E-11 8.31264E-12
4.57402E-11 8.29369E-12
4.87388E-11 8.27417E-12
5.18325E-11 8.25415E-12
5.50215E-11 8.23350E-12
5.83057E-11 8.21239E-12
6.16850E-11 8.19068E-12
6.51595E-11 8.16849E-12
6.87293E-11 8.14578E-12
7.23943E-11 8.12252E-12
7.61544E-11 8.09885E-12
1.18991E-10 7.83515E-12
1.71347E-10 7.52915E-12
2.33223E-10 7.18898E-12
3.04617E-10 6.82297E-12
3.85531E-10 6.43904E-12
4.75965E-10 6.02988E-12
5.75917E-10 5.63158E-12
6.85389E-10 5.24768E-12
8.04380E-10 4.85165E-12
9.32891E-10 4.49429E-12
1.07092E-09 4.12543E-12
1.21847E-09 3.79229E-12
1.37554E-09 3.47294E-12
1.54213E-09 3.17292E-12
1.71823E-09 2.90195E-12
1.90386E-09 2.63922E-12
2.09900E-09 2.40853E-12
2.30367E-09 2.18709E-12
2.51785E-09 1.98979E-12
2.74156E-09 1.80875E-12
2.97478E-09 1.64260E-12
3.21752E-09 1.49494E-12
3.46978E-09 1.35665E-12
3.73156E-09 1.23486E-12
4.00286E-09 1.12214E-12
4.28368E-09 1.02139E-12
4.57402E-09 9.30304E-13
4.87388E-09 8.47395E-13
5.18326E-09 7.73541E-13
5.50215E-09 7.05526E-13
5.83057E-09 6.44984E-13
6.16850E-09 5.89718E-13
6.51596E-09 5.39962E-13
6.87293E-09 4.95007E-13
7.23942E-09 4.54111E-13
7.61544E-09 4.17358E-13
1.18991E-08 1.90827E-13
1.71347E-08 9.78679E-14
2.33223E-08 5.55437E-14
3.04617E-08 3.41155E-14
3.85531E-08 2.23152E-14
4.75965E-08 1.53081E-14
5.75917E-08 1.09080E-14
6.85389E-08 8.00908E-15
8.04380E-08 6.02491E-15
9.32891E-08 4.62427E-15
1.07092E-07 3.60926E-15
1.21847E-07 2.85822E-15
1.37554E-07 2.29168E-15
1.54213E-07 1.85820E-15
1.71823E-07 1.52180E-15
1.90386E-07 1.25757E-15
2.09900E-07 1.04778E-15
2.30367E-07 8.79538E-16
2.51785E-07 7.43427E-16
2.74156E-07 6.32386E-16
2.97478E-07 5.41126E-16
3.21752E-07 4.65585E-16
3.46978E-07 4.02659E-16
3.73156E-07 3.49913E-16
4.00286E-07 3.05454E-16
4.28368E-07 2.67778E-16
4.57402E-07 2.35688E-16
4.87388E-07 2.08227E-16
5.18325E-07 1.84619E-16
5.50215E-07 1.64244E-16
5.83057E-07 1.46585E-16
6.16850E-07 1.31223E-16
6.51596E-07 1.17810E-16
6.87293E-07 1.06059E-16
7.23942E-07 9.57301E-17
7.61543E-07 8.66222E-17
1.18991E-06 3.57619E-17
1.71347E-06 1.73033E-17
2.33223E-06 9.35453E-18
3.04617E-06 5.48798E-18
3.85531E-06 3.42774E-18
4.75964E-06 2.24960E-18
5.75916E-06 1.53681E-18
6.85388E-06 1.08518E-18
8.04378E-06 7.87924E-19
9.32888E-06 5.85832E-19
1.07092E-05 4.44575E-19
1.21846E-05 3.43441E-19
1.37553E-05 2.69500E-19
1.54212E-05 2.14429E-19
1.71822E-05 1.72734E-19
1.90385E-05 1.40699E-19
2.09899E-05 1.15657E-19
2.30365E-05 9.60647E-20
2.51783E-05 8.04594E-20
2.74153E-05 6.78921E-20
2.97475E-05 5.76733E-20
3.21749E-05 4.92953E-20
3.46974E-05 4.23779E-20
3.73152E-05 3.66308E-20
4.00281E-05 3.18280E-20
4.28362E-05 2.77911E-20
4.57395E-05 2.43781E-20
4.87380E-05 2.14754E-20
5.18317E-05 1.89926E-20
5.50205E-05 1.68575E-20
5.83045E-05 1.50126E-20
6.16838E-05 1.34121E-20
6.51582E-05 1.20186E-20
6.87277E-05 1.08015E-20
7.23925E-05 9.73504E-21
7.61524E-05 8.79704E-21
9.21439E-05 6.01097E-21
1.09658E-04 4.24366E-21
1.28695E-04 3.08160E-21
1.49255E-04 2.29128E-21
1.71338E-04 1.73874E-21
1.94942E-04 1.34339E-21
2.20070E-04 1.05409E-21
2.46720E-04 8.38789E-22
2.74892E-04 6.75690E-22
3.04586E-04 5.50396E-22
3.35803E-04 4.52860E-22
3.68542E-04 3.75978E-22
4.02802E-04 3.14769E-22
4.38585E-04 2.65505E-22
4.75889E-04 2.25525E-22
5.14715E-04 1.92792E-22
5.55063E-04 1.65786E-22
5.96931E-04 1.43353E-22
6.40321E-04 1.24584E-22
6.85233E-04 1.08793E-22
7.31665E-04 9.54239E-23
7.79618E-04 8.40476E-23
8.29092E-04 7.43181E-23
8.80086E-04 6.59550E-23
9.32601E-04 5.87377E-23
9.86636E-04 5.24797E-23
1.04219E-03 4.70342E-23
1.09927E-03 4.22769E-23
1.15786E-03 3.81058E-23
1.21797E-03 3.44372E-23
1.27961E-03 3.11990E-23
1.34276E-03 2.83331E-23
1.40743E-03 2.57885E-23
1.47362E-03 2.35234E-23
1.54133E-03 2.15016E-23
1.61056E-03 1.96922E-23
1.68131E-03 1.80694E-23
1.75357E-03 1.66102E-23
1.82735E-03 1.52954E-23
1.90265E-03 1.41082E-23
1.97947E-03 1.30338E-23
2.05780E-03 1.20599E-23
2.13765E-03 1.11751E-23
2.21902E-03 1.03701E-23
2.30190E-03 9.63616E-24
2.38630E-03 8.96603E-24
2.47222E-03 8.35317E-24
2.55965E-03 7.79172E-24
2.64859E-03 7.27669E-24
2.73905E-03 6.80346E-24
2.83103E-03 6.36809E-24
2.92452E-03 5.96697E-24
3.01952E-03 5.59692E-24
3.11604E-03 5.25512E-24
3.21407E-03 4.93897E-24
3.31362E-03 4.64626E-24
3.41468E-03 4.37489E-24
3.51725E-03 4.12303E-24
3.62133E-03 3.88903E-24
3.72692E-03 3.67138E-24
3.83403E-03 3.46874E-24
3.94265E-03 3.27987E-24
4.05278E-03 3.10368E-24
4.16442E-03 2.93915E-24
4.27757E-03 2.78537E-24
4.39223E-03 2.64151E-24
4.50840E-03 2.50680E-24
4.62608E-03 2.38058E-24
4.74527E-03 2.26218E-24
4.86597E-03 2.15105E-24
4.98817E-03 2.04665E-24
5.11188E-03 1.94850E-24
5.23711E-03 1.85616E-24
5.36383E-03 1.76921E-24
5.49207E-03 1.68730E-24
5.62181E-03 1.61006E-24
5.75306E-03 1.53718E-24
5.88581E-03 1.46838E-24
6.02007E-03 1.40338E-24
6.15583E-03 1.34193E-24
6.29310E-03 1.28380E-24
6.43187E-03 1.22878E-24
6.57214E-03 1.17667E-24
6.71392E-03 1.12729E-24
6.85720E-03 1.08047E-24
7.00198E-03 1.03605E-24
7.14827E-03 9.93885E-25
7.29605E-03 9.53840E-25
7.44534E-03 9.15787E-25
7.59612E-03 8.79610E-25
7.97965E-03 7.96668E-25
8.37255E-03 7.23256E-25
8.77480E-03 6.58090E-25
9.18641E-03 6.00084E-25
9.60736E-03 5.48316E-25
1.00376E-02 5.01997E-25
1.04773E-02 4.60455E-25
1.09262E-02 4.23110E-25
1.13844E-02 3.89464E-25
1.18520E-02 3.59086E-25
1.23288E-02 3.31604E-25
1.28150E-02 3.06692E-25
1.33104E-02 2.84067E-25
1.38150E-02 2.63483E-25
1.43290E-02 2.44722E-25
1.48521E-02 2.27595E-25
1.53845E-02 2.11934E-25
1.59262E-02 1.97591E-25
1.64770E-02 1.84435E-25
1.70371E-02 1.72351E-25
1.76063E-02 1.61235E-25
1.81848E-02 1.50997E-25
1.87724E-02 1.41553E-25
1.93692E-02 1.32833E-25
1.99751E-02 1.24769E-25
2.05901E-02 1.17305E-25
2.12143E-02 1.10387E-25
2.18476E-02 1.03968E-25
2.24900E-02 9.80057E-26
2.31415E-02 9.24617E-26
2.38021E-02 8.73014E-26
2.44717E-02 8.24934E-26
2.51504E-02 7.80093E-26
2.58382E-02 7.38233E-26
2.65349E-02 6.99120E-26
2.72407E-02 6.62542E-26
2.79555E-02 6.28304E-26
2.86793E-02 5.96229E-26
2.94120E-02 5.66155E-26
3.01537E-02 5.37937E-26
3.09043E-02 5.11437E-26
3.16639E-02 4.86532E-26
3.24324E-02 4.63110E-26
3.32098E-02 4.41065E-26
3.39961E-02 4.20302E-26
3.47912E-02 4.00732E-26
3.55952E-02 3.82276E-26
3.64081E-02 3.64857E-26
3.72297E-02 3.48407E-26
3.80602E-02 3.32863E-26
3.88995E-02 3.18164E-26
3.97476E-02 3.04258E-26
4.06044E-02 2.91093E-26
4.14700E-02 2.78623E-26
4.23443E-02 2.66804E-26
4.32273E-02 2.55596E-26
4.41190E-02 2.44962E-26
4.50194E-02 2.34868E-26
4.59284E-02 2.25280E-26
4.68461E-02 2.16168E-26
4.87074E-02 1.99266E-26
5.06030E-02 1.83958E-26
5.25328E-02 1.70069E-26
5.44967E-02 1.57444E-26
5.64946E-02 1.45948E-26
5.85262E-02 1.35464E-26
6.05914E-02 1.25887E-26
6.26901E-02 1.17124E-26
6.48222E-02 1.09096E-26
6.69873E-02 1.01729E-26
6.91854E-02 9.49608E-27
7.14163E-02 8.87333E-27
7.36799E-02 8.29961E-27
7.59760E-02 7.77042E-27
7.83043E-02 7.28170E-27
8.06647E-02 6.82983E-27
8.30571E-02 6.41156E-27
8.54812E-02 6.02396E-27
8.79369E-02 5.66440E-27
9.04240E-02 5.33050E-27
9.29422E-02 5.02013E-27
9.54915E-02 4.73134E-27
9.80716E-02 4.46238E-27
1.00682E-01 4.21165E-27
1.03323E-01 3.97772E-27
1.05995E-01 3.75927E-27
1.08696E-01 3.55509E-27
1.11427E-01 3.36410E-27
1.14188E-01 3.18531E-27
1.16978E-01 3.01781E-27
1.19797E-01 2.86075E-27
1.22645E-01 2.71339E-27
1.25522E-01 2.57503E-27
1.28428E-01 2.44502E-27
1.31361E-01 2.32277E-27
1.34323E-01 2.20775E-27
1.37313E-01 2.09946E-27
1.40330E-01 1.99744E-27
1.43375E-01 1.90126E-27
1.46447E-01 1.81054E-27
1.49545E-01 1.72492E-27
1.52671E-01 1.64406E-27
1.55823E-01 1.56766E-27
1.59001E-01 1.49542E-27
1.62205E-01 1.42710E-27
1.65435E-01 1.36243E-27
1.68690E-01 1.30119E-27
1.71970E-01 1.24318E-27
1.75276E-01 1.18819E-27
1.78606E-01 1.13604E-27
1.81961E-01 1.08657E-27
1.85340E-01 1.03960E-27
1.88743E-01 9.95008E-28
1.92169E-01 9.52638E-28
1.95619E-01 9.12367E-28
1.99092E-01 8.74074E-28
2.02589E-01 8.37647E-28
2.06107E-01 8.02982E-28
2.09649E-01 7.69979E-28
2.13212E-01 7.38547E-28
2.16797E-01 7.08599E-28
2.20404E-01 6.80055E-28
2.24032E-01 6.52839E-28
2.27680E-01 6.26879E-28
2.31350E-01 6.02109E-28
2.35040E-01 5.78467E-28
2.38751E-01 5.55892E-28
2.42481E-01 5.34330E-28
2.46231E-01 5.13728E-28
2.50000E-01 4.94038E-28
2.53788E-01 4.75213E-28
2.57595E-01 4.57209E-28
2.61421E-01 4.39986E-28
2.65264E-01 4.23504E-28
2.69126E-01 4.07727E-28
2.73005E-01 3.92620E-28
2.76901E-01 3.78152E-28
2.80814E-01 3.64290E-28
2.84744E-01 3.51007E-28
2.88691E-01 3.38274E-28
2.92653E-01 3.26065E-28
2.96632E-01 3.14357E-28
3.00625E-01 3.03124E-28
3.04634E-01 2.92346E-28
3.08658E-01 2.82002E-28
3.12697E-01 2.72071E-28
3.16749E-01 2.62534E-28
3.20816E-01 2.53375E-28
3.24896E-01 2.44576E-28
3.28990E-01 2.36120E-28
3.33097E-01 2.27994E-28
3.37216E-01 2.20181E-28
3.41348E-01 2.12669E-28
3.45492E-01 2.05444E-28
3.49647E-01 1.98494E-28
3.53814E-01 1.91807E-28
3.57992E-01 1.85372E-28
3.62181E-01 1.79178E-28
3.66381E-01 1.73215E-28
3.70590E-01 1.67473E-28
3.74810E-01 1.61943E-28
3.79039E-01 1.56616E-28
3.83277E-01 1.51483E-28
3.87524E-01 1.46538E-28
3.91780E-01 1.41771E-28
3.96044E-01 1.37176E-28
4.00316E-01 1.32746E-28
4.04596E-01 1.28473E-28
4.08882E-01 1.24353E-28
4.13176E-01 1.20379E-28
4.17476E-01 1.16544E-28
4.21783E-01 1.12844E-28
4.26095E-01 1.09273E-28
4.30413E-01 1.05826E-28
4.34737E-01 1.02498E-28
4.39065E-01 9.92852E-29
4.43398E-01 9.61825E-29
4.47736E-01 9.31857E-29
4.52077E-01 9.02910E-29
4.56422E-01 8.74944E-29
4.60770E-01 8.47921E-29
4.65122E-01 8.21807E-29
4.69476E-01 7.96568E-29
4.73832E-01 7.72170E-29
4.78190E-01 7.48583E-29
4.82550E-01 7.25777E-29
4.86912E-01 7.03723E-29
4.91274E-01 6.82393E-29
4.95637E-01 6.61761E-29
5.00000E-01 6.41802E-29
5.04363E-01 6.22491E-29
5.08726E-01 6.03805E-29
5.13088E-01 5.85722E-29
5.17450E-01 5.68220E-29
5.21810E-01 5.51279E-29
5.26168E-01 5.34878E-29
5.30524E-01 5.18999E-29
5.34878E-01 5.03623E-29
5.39230E-01 4.88733E-29
5.43578E-01 4.74312E-29
5.47923E-01 4.60343E-29
5.52264E-01 4.46811E-29
5.56602E-01 4.33700E-29
5.60935E-01 4.20997E-29
5.65263E-01 4.08688E-29
5.69587E-01 3.96759E-29
5.73905E-01 3.85196E-29
5.78217E-01 3.73989E-29
5.82524E-01 3.63124E-29
5.86824E-01 3.52591E-29
5.91118E-01 3.42378E-29
5.95404E-01 3.32475E-29
5.99684E-01 3.22871E-29
6.03956E-01 3.13556E-29
6.08220E-01 3.04521E-29
6.12476E-01 2.95757E-29
6.16723E-01 2.87255E-29
6.20961E-01 2.79006E-29
6.25190E-01 2.71002E-29
6.29410E-01 2.63236E-29
6.33619E-01 2.55699E-29
6.37819E-01 2.48384E-29
6.42008E-01 2.41284E-29
6.46186E-01 2.34392E-29
6.50353E-01 2.27702E-29
6.54508E-01 2.21206E-29
6.58652E-01 2.14900E-29
6.62784E-01 2.08777E-29
6.66903E-01 2.02831E-29
6.71010E-01 1.97056E-29
6.75104E-01 1.91448E-29
6.79184E-01 1.86001E-29
6.83251E-01 1.80710E-29
6.87303E-01 1.75571E-29
6.91342E-01 1.70578E-29
6.95366E-01 1.65727E-29
6.99375E-01 1.61014E-29
7.03368E-01 1.56434E-29
7.07347E-01 1.51984E-29
7.11309E-01 1.47659E-29
7.15256E-01 1.43456E-29
7.19186E-01 1.39372E-29
7.23099E-01 1.35401E-29
7.26995E-01 1.31542E-29
7.30874E-01 1.27790E-29
7.34736E-01 1.24143E-29
7.38579E-01 1.20597E-29
7.42405E-01 1.17150E-29
7.46212E-01 1.13798E-29
7.50000E-01 1.10539E-29
7.53769E-01 1.07369E-29
7.57519E-01 1.04287E-29
7.61249E-01 1.01290E-29
7.64960E-01 9.83748E-30
7.68650E-01 9.55395E-30
7.72320E-01 9.27817E-30
7.75968E-01 9.00992E-30
7.79596E-01 8.74898E-30
7.83203E-01 8.49514E-30
7.86788E-01 8.24819E-30
7.90351E-01 8.00795E-30
7.93893E-01 7.77421E-30
7.97411E-01 7.54679E-30
8.00908E-01 7.32551E-30
8.04381E-01 7.11020E-30
8.07831E-01 6.90069E-30
8.11257E-01 6.69682E-30
8.14660E-01 6.49842E-30
8.18039E-01 6.30534E-30
8.21394E-01 6.11745E-30
8.24724E-01 5.93458E-30
8.28030E-01 5.75661E-30
8.31310E-01 5.58339E-30
8.34565E-01 5.41480E-30
8.37795E-01 5.25070E-30
8.40999E-01 5.09098E-30
8.44177E-01 4.93551E-30
8.47329E-01 4.78418E-30
8.50455E-01 4.63687E-30
8.53553E-01 4.49348E-30
8.56625E-01 4.35391E-30
8.59670E-01 4.21803E-30
8.62687E-01 4.08577E-30
8.65677E-01 3.95702E-30
8.68639E-01 3.83169E-30
8.71572E-01 3.70968E-30
8.74478E-01 3.59092E-30
8.77355E-01 3.47530E-30
8.80203E-01 3.36276E-30
8.83022E-01 3.25320E-30
8.85812E-01 3.14656E-30
8.88573E-01 3.04275E-30
8.91304E-01 2.94170E-30
8.94005E-01 2.84335E-30
8.96677E-01 2.74761E-30
8.99318E-01 2.65443E-30
9.01928E-01 2.56374E-30
9.04508E-01 2.47548E-30
9.07058E-01 2.38957E-30
9.09576E-01 2.30598E-30
9.12063E-01 2.22463E-30
9.14519E-01 2.14547E-30
9.16943E-01 2.06845E-30
9.19335E-01 1.99351E-30
9.21696E-01 1.92060E-30
9.24024E-01 1.84968E-30
9.26320E-01 1.78069E-30
9.28584E-01 1.71359E-30
9.30815E-01 1.64833E-30
9.33013E-01 1.58487E-30
9.35178E-01 1.52316E-30
9.37310E-01 1.46317E-30
9.39409E-01 1.40486E-30
9.41474E-01 1.34817E-30
9.43505E-01 1.29309E-30
9.45503E-01 1.23957E-30
9.47467E-01 1.18757E-30
9.49397E-01 1.13706E-30
9.51293E-01 1.08802E-30
9.53154E-01 1.04039E-30
9.54981E-01 9.94164E-31
9.56773E-01 9.49299E-31
9.58530E-01 9.05768E-31
9.60252E-01 8.63544E-31
9.61940E-01 8.22599E-31
9.63592E-01 7.82906E-31
9.65209E-01 7.44440E-31
9.66790E-01 7.07175E-31
9.68336E-01 6.71087E-31
9.69846E-01 6.36154E-31
9.71321E-01 6.02351E-31
9.72759E-01 5.69660E-31
9.74162E-01 5.38057E-31
9.75528E-01 5.07523E-31
9.76858E-01 4.78039E-31
9.78152E-01 4.49584E-31
9.79410E-01 4.22142E-31
9.80631E-01 3.95696E-31
9.81815E-01 3.70227E-31
9.82963E-01 3.45721E-31
9.84074E-01 3.22161E-31
9.85148E-01 2.99532E-31
9.86185E-01 2.77820E-31
9.87185E-01 2.57013E-31
9.88148E-01 2.37096E-31
9.89074E-01 2.18056E-31
9.89962E-01 1.99884E-31
9.90814E-01 1.82565E-31
9.91627E-01 1.66091E-31
9.92404E-01 1.50449E-31
9.93143E-01 1.35632E-31
9.93844E-01 1.21628E-31
9.94508E-01 1.08431E-31
9.95134E-01 9.60308E-32
9.95722E-01 8.44203E-32
9.96273E-01 7.35921E-32
9.96786E-01 6.35395E-32
9.97261E-01 5.42569E-32
9.97698E-01 4.57377E-32
9.98097E-01 3.79769E-32
9.98459E-01 3.09698E-32
9.98782E-01 2.47115E-32
9.99067E-01 1.91990E-32
9.99315E-01 1.44284E-32
9.99524E-01 1.03965E-32
9.99695E-01 7.10092E-33
9.99829E-01 4.54017E-33
9.99924E-01 2.71191E-33
9.99981E-01 1.61557E-33
1.00000E+00 1.24971E-33
