 #
 # Subroutine ELSEPA. Elastic scattering of electrons and positrons
 #                    by neutral atoms and positive ions
 #
 # Projectile: electron
 # Kinetic energy = 2.50000E+07 eV = 9.18733E+05 a.u.
 #
 # WARNING: High-energy factorization with free-atom DF screening.
 #          Absorption, polarization and exchange corrections are
 #          switched off.
 #          Phase shifts are calculated for the bare nucleus.
 #          Scattering amplitudes are not evaluated.
 #
 # Element: Tc,  Z =  43,  atomic weight = 9.89063E+01 g/mol
 #
 # Nuclear model: Fermi distribution
 #                Average radius = 4.94833E-13 cm
 #                Skin thickness = 5.46000E-14 cm
 #
 # Number of electrons = 43
 #
 # Total elastic cross section = 4.11941E-18 cm**2 = 1.47107E-01 a0**2
 # 1st transport cross section = 5.43393E-24 cm**2 = 1.94049E-07 a0**2
 # 2nd transport cross section = 1.56309E-23 cm**2 = 5.58191E-07 a0**2
 #
 #
 # Differential cross section:                       MU=(1-COS(THETA))/2
 #
 #  THETA        MU          DCS          DCS        Sherman      error
 #  (deg)                 (cm**2/sr)   (a0**2/sr)    function
 #----------------------------------------------------------------------
0.00000E+00 2.38377E-11
7.61557E-13 2.38334E-11
1.18994E-12 2.38309E-11
1.71346E-12 2.38279E-11
2.33225E-12 2.38244E-11
3.04617E-12 2.38204E-11
3.85530E-12 2.38158E-11
4.75964E-12 2.38107E-11
5.75917E-12 2.38050E-11
6.85391E-12 2.37988E-11
8.04379E-12 2.37921E-11
9.32893E-12 2.37848E-11
1.07092E-11 2.37770E-11
1.21847E-11 2.37687E-11
1.37554E-11 2.37598E-11
1.54213E-11 2.37504E-11
1.71823E-11 2.37405E-11
1.90386E-11 2.37300E-11
2.09900E-11 2.37191E-11
2.30367E-11 2.37076E-11
2.51785E-11 2.36955E-11
2.74156E-11 2.36830E-11
2.97478E-11 2.36699E-11
3.21752E-11 2.36563E-11
3.46979E-11 2.36422E-11
3.73157E-11 2.36276E-11
4.00286E-11 2.36125E-11
4.28368E-11 2.35969E-11
4.57402E-11 2.35807E-11
4.87388E-11 2.35640E-11
5.18325E-11 2.35469E-11
5.50215E-11 2.35292E-11
5.83057E-11 2.35110E-11
6.16850E-11 2.34924E-11
6.51595E-11 2.34732E-11
6.87293E-11 2.34535E-11
7.23943E-11 2.34334E-11
7.61544E-11 2.34127E-11
1.18991E-10 2.31798E-11
1.71347E-10 2.29008E-11
2.33223E-10 2.25789E-11
3.04617E-10 2.22176E-11
3.85531E-10 2.18200E-11
4.75965E-10 2.13911E-11
5.75917E-10 2.09356E-11
6.85389E-10 2.04553E-11
8.04380E-10 1.99580E-11
9.32891E-10 1.94425E-11
1.07092E-09 1.89188E-11
1.21847E-09 1.83836E-11
1.37554E-09 1.78470E-11
1.54213E-09 1.73062E-11
1.71823E-09 1.67689E-11
1.90386E-09 1.62337E-11
2.09900E-09 1.57054E-11
2.30367E-09 1.51845E-11
2.51785E-09 1.46725E-11
2.74156E-09 1.41723E-11
2.97478E-09 1.36820E-11
3.21752E-09 1.32068E-11
3.46978E-09 1.27416E-11
3.73156E-09 1.22940E-11
4.00286E-09 1.18559E-11
4.28368E-09 1.14360E-11
4.57402E-09 1.10267E-11
4.87388E-09 1.06346E-11
5.18326E-09 1.02542E-11
5.50215E-09 9.88922E-12
5.83057E-09 9.53683E-12
6.16850E-09 9.19805E-12
6.51596E-09 8.87240E-12
6.87293E-09 8.55844E-12
7.23942E-09 8.25799E-12
7.61544E-09 7.96734E-12
1.18991E-08 5.62557E-12
1.71347E-08 4.04185E-12
2.33223E-08 2.95052E-12
3.04617E-08 2.18571E-12
3.85531E-08 1.62797E-12
4.75965E-08 1.23437E-12
5.75917E-08 9.59394E-13
6.85389E-08 7.46527E-13
8.04380E-08 5.94748E-13
9.32891E-08 4.75459E-13
1.07092E-07 3.87650E-13
1.21847E-07 3.18115E-13
1.37554E-07 2.64971E-13
1.54213E-07 2.22474E-13
1.71823E-07 1.88863E-13
1.90386E-07 1.61523E-13
2.09900E-07 1.39266E-13
2.30367E-07 1.20863E-13
2.51785E-07 1.05475E-13
2.74156E-07 9.25968E-14
2.97478E-07 8.15579E-14
3.21752E-07 7.22484E-14
3.46978E-07 6.40915E-14
3.73156E-07 5.71814E-14
4.00286E-07 5.10168E-14
4.28368E-07 4.57503E-14
4.57402E-07 4.10403E-14
4.87388E-07 3.69578E-14
5.18325E-07 3.33146E-14
5.50215E-07 3.01132E-14
5.83057E-07 2.72625E-14
6.16850E-07 2.47293E-14
6.51596E-07 2.24767E-14
6.87293E-07 2.04575E-14
7.23942E-07 1.86622E-14
7.61543E-07 1.70422E-14
1.18991E-06 7.52591E-15
1.71347E-06 3.81696E-15
2.33223E-06 2.14846E-15
3.04617E-06 1.30613E-15
3.85531E-06 8.39525E-16
4.75964E-06 5.64204E-16
5.75916E-06 3.92688E-16
6.85388E-06 2.81373E-16
8.04378E-06 2.06589E-16
9.32888E-06 1.54961E-16
1.07092E-05 1.18445E-16
1.21846E-05 9.20527E-17
1.37553E-05 7.26072E-17
1.54212E-05 5.80325E-17
1.71822E-05 4.69363E-17
1.90385E-05 3.83637E-17
2.09899E-05 3.16778E-17
2.30365E-05 2.63875E-17
2.51783E-05 2.21563E-17
2.74153E-05 1.87395E-17
2.97475E-05 1.59567E-17
3.21749E-05 1.36723E-17
3.46974E-05 1.17837E-17
3.73152E-05 1.02114E-17
4.00281E-05 8.89370E-18
4.28362E-05 7.78240E-18
4.57395E-05 6.83956E-18
4.87380E-05 6.03517E-18
5.18317E-05 5.34555E-18
5.50205E-05 4.75161E-18
5.83045E-05 4.23791E-18
6.16838E-05 3.79185E-18
6.51582E-05 3.40306E-18
6.87277E-05 3.06290E-18
7.23925E-05 2.76428E-18
7.61524E-05 2.50138E-18
9.21439E-05 1.71601E-18
1.09658E-04 1.21601E-18
1.28695E-04 8.85604E-19
1.49255E-04 6.60126E-19
1.71338E-04 5.02075E-19
1.94942E-04 3.88611E-19
2.20070E-04 3.05470E-19
2.46720E-04 2.43428E-19
2.74892E-04 1.96370E-19
3.04586E-04 1.60162E-19
3.35803E-04 1.31930E-19
3.68542E-04 1.09658E-19
4.02802E-04 9.18977E-20
4.38585E-04 7.75947E-20
4.75889E-04 6.59724E-20
5.14715E-04 5.64490E-20
5.55063E-04 4.85860E-20
5.96931E-04 4.20473E-20
6.40321E-04 3.65741E-20
6.85233E-04 3.19645E-20
7.31665E-04 2.80599E-20
7.79618E-04 2.47347E-20
8.29092E-04 2.18887E-20
8.80086E-04 1.94413E-20
9.32601E-04 1.73273E-20
9.86636E-04 1.54935E-20
1.04219E-03 1.38966E-20
1.09927E-03 1.25007E-20
1.15786E-03 1.12761E-20
1.21797E-03 1.01983E-20
1.27961E-03 9.24649E-21
1.34276E-03 8.40349E-21
1.40743E-03 7.65467E-21
1.47362E-03 6.98766E-21
1.54133E-03 6.39195E-21
1.61056E-03 5.85858E-21
1.68131E-03 5.37986E-21
1.75357E-03 4.94920E-21
1.82735E-03 4.56092E-21
1.90265E-03 4.21011E-21
1.97947E-03 3.89250E-21
2.05780E-03 3.60438E-21
2.13765E-03 3.34253E-21
2.21902E-03 3.10411E-21
2.30190E-03 2.88665E-21
2.38630E-03 2.68798E-21
2.47222E-03 2.50617E-21
2.55965E-03 2.33954E-21
2.64859E-03 2.18658E-21
2.73905E-03 2.04597E-21
2.83103E-03 1.91653E-21
2.92452E-03 1.79720E-21
3.01952E-03 1.68706E-21
3.11604E-03 1.58526E-21
3.21407E-03 1.49106E-21
3.31362E-03 1.40379E-21
3.41468E-03 1.32284E-21
3.51725E-03 1.24766E-21
3.62133E-03 1.17777E-21
3.72692E-03 1.11274E-21
3.83403E-03 1.05215E-21
3.94265E-03 9.95645E-22
4.05278E-03 9.42905E-22
4.16442E-03 8.93627E-22
4.27757E-03 8.47544E-22
4.39223E-03 8.04407E-22
4.50840E-03 7.63993E-22
4.62608E-03 7.26099E-22
4.74527E-03 6.90537E-22
4.86597E-03 6.57138E-22
4.98817E-03 6.25745E-22
5.11188E-03 5.96214E-22
5.23711E-03 5.68414E-22
5.36383E-03 5.42223E-22
5.49207E-03 5.17532E-22
5.62181E-03 4.94239E-22
5.75306E-03 4.72249E-22
5.88581E-03 4.51475E-22
6.02007E-03 4.31838E-22
6.15583E-03 4.13263E-22
6.29310E-03 3.95681E-22
6.43187E-03 3.79029E-22
6.57214E-03 3.63250E-22
6.71392E-03 3.48288E-22
6.85720E-03 3.34094E-22
7.00198E-03 3.20619E-22
7.14827E-03 3.07821E-22
7.29605E-03 2.95659E-22
7.44534E-03 2.84095E-22
7.59612E-03 2.73095E-22
7.97965E-03 2.47849E-22
8.37255E-03 2.25471E-22
8.77480E-03 2.05576E-22
9.18641E-03 1.87842E-22
9.60736E-03 1.71990E-22
1.00376E-02 1.57786E-22
1.04773E-02 1.45027E-22
1.09262E-02 1.33540E-22
1.13844E-02 1.23175E-22
1.18520E-02 1.13803E-22
1.23288E-02 1.05311E-22
1.28150E-02 9.76015E-23
1.33104E-02 9.05889E-23
1.38150E-02 8.41992E-23
1.43290E-02 7.83668E-23
1.48521E-02 7.30334E-23
1.53845E-02 6.81498E-23
1.59262E-02 6.36693E-23
1.64770E-02 5.95544E-23
1.70371E-02 5.57679E-23
1.76063E-02 5.22799E-23
1.81848E-02 4.90621E-23
1.87724E-02 4.60895E-23
1.93692E-02 4.33402E-23
1.99751E-02 4.07940E-23
2.05901E-02 3.84334E-23
2.12143E-02 3.62420E-23
2.18476E-02 3.42056E-23
2.24900E-02 3.23111E-23
2.31415E-02 3.05467E-23
2.38021E-02 2.89019E-23
2.44717E-02 2.73669E-23
2.51504E-02 2.59331E-23
2.58382E-02 2.45924E-23
2.65349E-02 2.33378E-23
2.72407E-02 2.21625E-23
2.79555E-02 2.10608E-23
2.86793E-02 2.00269E-23
2.94120E-02 1.90561E-23
3.01537E-02 1.81437E-23
3.09043E-02 1.72855E-23
3.16639E-02 1.64777E-23
3.24324E-02 1.57168E-23
3.32098E-02 1.49994E-23
3.39961E-02 1.43227E-23
3.47912E-02 1.36839E-23
3.55952E-02 1.30805E-23
3.64081E-02 1.25101E-23
3.72297E-02 1.19705E-23
3.80602E-02 1.14599E-23
3.88995E-02 1.09762E-23
3.97476E-02 1.05179E-23
4.06044E-02 1.00834E-23
4.14700E-02 9.67109E-24
4.23443E-02 9.27971E-24
4.32273E-02 8.90798E-24
4.41190E-02 8.55472E-24
4.50194E-02 8.21883E-24
4.59284E-02 7.89930E-24
4.68461E-02 7.59517E-24
4.87074E-02 7.02962E-24
5.06030E-02 6.51580E-24
5.25328E-02 6.04809E-24
5.44967E-02 5.62160E-24
5.64946E-02 5.23203E-24
5.85262E-02 4.87560E-24
6.05914E-02 4.54895E-24
6.26901E-02 4.24916E-24
6.48222E-02 3.97359E-24
6.69873E-02 3.71994E-24
6.91854E-02 3.48613E-24
7.14163E-02 3.27033E-24
7.36799E-02 3.07088E-24
7.59760E-02 2.88633E-24
7.83043E-02 2.71535E-24
8.06647E-02 2.55677E-24
8.30571E-02 2.40950E-24
8.54812E-02 2.27260E-24
8.79369E-02 2.14521E-24
9.04240E-02 2.02653E-24
9.29422E-02 1.91586E-24
9.54915E-02 1.81257E-24
9.80716E-02 1.71606E-24
1.00682E-01 1.62581E-24
1.03323E-01 1.54134E-24
1.05995E-01 1.46221E-24
1.08696E-01 1.38803E-24
1.11427E-01 1.31841E-24
1.14188E-01 1.25303E-24
1.16978E-01 1.19159E-24
1.19797E-01 1.13381E-24
1.22645E-01 1.07942E-24
1.25522E-01 1.02819E-24
1.28428E-01 9.79897E-25
1.31361E-01 9.34352E-25
1.34323E-01 8.91364E-25
1.37313E-01 8.50765E-25
1.40330E-01 8.12398E-25
1.43375E-01 7.76116E-25
1.46447E-01 7.41786E-25
1.49545E-01 7.09285E-25
1.52671E-01 6.78496E-25
1.55823E-01 6.49313E-25
1.59001E-01 6.21638E-25
1.62205E-01 5.95378E-25
1.65435E-01 5.70448E-25
1.68690E-01 5.46768E-25
1.71970E-01 5.24264E-25
1.75276E-01 5.02868E-25
1.78606E-01 4.82515E-25
1.81961E-01 4.63145E-25
1.85340E-01 4.44703E-25
1.88743E-01 4.27135E-25
1.92169E-01 4.10393E-25
1.95619E-01 3.94432E-25
1.99092E-01 3.79209E-25
2.02589E-01 3.64682E-25
2.06107E-01 3.50816E-25
2.09649E-01 3.37574E-25
2.13212E-01 3.24924E-25
2.16797E-01 3.12834E-25
2.20404E-01 3.01276E-25
2.24032E-01 2.90222E-25
2.27680E-01 2.79646E-25
2.31350E-01 2.69523E-25
2.35040E-01 2.59832E-25
2.38751E-01 2.50551E-25
2.42481E-01 2.41658E-25
2.46231E-01 2.33136E-25
2.50000E-01 2.24966E-25
2.53788E-01 2.17132E-25
2.57595E-01 2.09616E-25
2.61421E-01 2.02404E-25
2.65264E-01 1.95482E-25
2.69126E-01 1.88835E-25
2.73005E-01 1.82452E-25
2.76901E-01 1.76320E-25
2.80814E-01 1.70427E-25
2.84744E-01 1.64763E-25
2.88691E-01 1.59317E-25
2.92653E-01 1.54079E-25
2.96632E-01 1.49041E-25
3.00625E-01 1.44193E-25
3.04634E-01 1.39527E-25
3.08658E-01 1.35035E-25
3.12697E-01 1.30709E-25
3.16749E-01 1.26543E-25
3.20816E-01 1.22530E-25
3.24896E-01 1.18662E-25
3.28990E-01 1.14935E-25
3.33097E-01 1.11341E-25
3.37216E-01 1.07876E-25
3.41348E-01 1.04535E-25
3.45492E-01 1.01311E-25
3.49647E-01 9.82004E-26
3.53814E-01 9.51987E-26
3.57992E-01 9.23012E-26
3.62181E-01 8.95038E-26
3.66381E-01 8.68026E-26
3.70590E-01 8.41936E-26
3.74810E-01 8.16734E-26
3.79039E-01 7.92384E-26
3.83277E-01 7.68852E-26
3.87524E-01 7.46109E-26
3.91780E-01 7.24122E-26
3.96044E-01 7.02863E-26
4.00316E-01 6.82305E-26
4.04596E-01 6.62420E-26
4.08882E-01 6.43185E-26
4.13176E-01 6.24573E-26
4.17476E-01 6.06563E-26
4.21783E-01 5.89132E-26
4.26095E-01 5.72259E-26
4.30413E-01 5.55922E-26
4.34737E-01 5.40104E-26
4.39065E-01 5.24784E-26
4.43398E-01 5.09946E-26
4.47736E-01 4.95571E-26
4.52077E-01 4.81644E-26
4.56422E-01 4.68148E-26
4.60770E-01 4.55069E-26
4.65122E-01 4.42391E-26
4.69476E-01 4.30100E-26
4.73832E-01 4.18184E-26
4.78190E-01 4.06629E-26
4.82550E-01 3.95422E-26
4.86912E-01 3.84553E-26
4.91274E-01 3.74009E-26
4.95637E-01 3.63779E-26
5.00000E-01 3.53853E-26
5.04363E-01 3.44221E-26
5.08726E-01 3.34872E-26
5.13088E-01 3.25797E-26
5.17450E-01 3.16988E-26
5.21810E-01 3.08435E-26
5.26168E-01 3.00130E-26
5.30524E-01 2.92065E-26
5.34878E-01 2.84232E-26
5.39230E-01 2.76624E-26
5.43578E-01 2.69233E-26
5.47923E-01 2.62053E-26
5.52264E-01 2.55076E-26
5.56602E-01 2.48296E-26
5.60935E-01 2.41707E-26
5.65263E-01 2.35303E-26
5.69587E-01 2.29079E-26
5.73905E-01 2.23027E-26
5.78217E-01 2.17144E-26
5.82524E-01 2.11423E-26
5.86824E-01 2.05861E-26
5.91118E-01 2.00451E-26
5.95404E-01 1.95190E-26
5.99684E-01 1.90072E-26
6.03956E-01 1.85093E-26
6.08220E-01 1.80250E-26
6.12476E-01 1.75538E-26
6.16723E-01 1.70953E-26
6.20961E-01 1.66491E-26
6.25190E-01 1.62149E-26
6.29410E-01 1.57923E-26
6.33619E-01 1.53809E-26
6.37819E-01 1.49805E-26
6.42008E-01 1.45907E-26
6.46186E-01 1.42112E-26
6.50353E-01 1.38417E-26
6.54508E-01 1.34819E-26
6.58652E-01 1.31315E-26
6.62784E-01 1.27902E-26
6.66903E-01 1.24579E-26
6.71010E-01 1.21342E-26
6.75104E-01 1.18189E-26
6.79184E-01 1.15117E-26
6.83251E-01 1.12125E-26
6.87303E-01 1.09209E-26
6.91342E-01 1.06368E-26
6.95366E-01 1.03600E-26
6.99375E-01 1.00903E-26
7.03368E-01 9.82743E-27
7.07347E-01 9.57124E-27
7.11309E-01 9.32154E-27
7.15256E-01 9.07815E-27
7.19186E-01 8.84090E-27
7.23099E-01 8.60963E-27
7.26995E-01 8.38416E-27
7.30874E-01 8.16434E-27
7.34736E-01 7.95003E-27
7.38579E-01 7.74106E-27
7.42405E-01 7.53729E-27
7.46212E-01 7.33859E-27
7.50000E-01 7.14482E-27
7.53769E-01 6.95585E-27
7.57519E-01 6.77155E-27
7.61249E-01 6.59179E-27
7.64960E-01 6.41646E-27
7.68650E-01 6.24545E-27
7.72320E-01 6.07862E-27
7.75968E-01 5.91589E-27
7.79596E-01 5.75714E-27
7.83203E-01 5.60226E-27
7.86788E-01 5.45116E-27
7.90351E-01 5.30374E-27
7.93893E-01 5.15990E-27
7.97411E-01 5.01956E-27
8.00908E-01 4.88262E-27
8.04381E-01 4.74900E-27
8.07831E-01 4.61861E-27
8.11257E-01 4.49137E-27
8.14660E-01 4.36721E-27
8.18039E-01 4.24604E-27
8.21394E-01 4.12779E-27
8.24724E-01 4.01238E-27
8.28030E-01 3.89975E-27
8.31310E-01 3.78983E-27
8.34565E-01 3.68255E-27
8.37795E-01 3.57785E-27
8.40999E-01 3.47566E-27
8.44177E-01 3.37592E-27
8.47329E-01 3.27857E-27
8.50455E-01 3.18355E-27
8.53553E-01 3.09082E-27
8.56625E-01 3.00030E-27
8.59670E-01 2.91196E-27
8.62687E-01 2.82573E-27
8.65677E-01 2.74157E-27
8.68639E-01 2.65943E-27
8.71572E-01 2.57927E-27
8.74478E-01 2.50102E-27
8.77355E-01 2.42466E-27
8.80203E-01 2.35013E-27
8.83022E-01 2.27740E-27
8.85812E-01 2.20642E-27
8.88573E-01 2.13715E-27
8.91304E-01 2.06955E-27
8.94005E-01 2.00360E-27
8.96677E-01 1.93923E-27
8.99318E-01 1.87644E-27
9.01928E-01 1.81517E-27
9.04508E-01 1.75539E-27
9.07058E-01 1.69707E-27
9.09576E-01 1.64019E-27
9.12063E-01 1.58470E-27
9.14519E-01 1.53057E-27
9.16943E-01 1.47779E-27
9.19335E-01 1.42631E-27
9.21696E-01 1.37612E-27
9.24024E-01 1.32718E-27
9.26320E-01 1.27946E-27
9.28584E-01 1.23295E-27
9.30815E-01 1.18762E-27
9.33013E-01 1.14343E-27
9.35178E-01 1.10038E-27
9.37310E-01 1.05843E-27
9.39409E-01 1.01757E-27
9.41474E-01 9.77771E-28
9.43505E-01 9.39013E-28
9.45503E-01 9.01276E-28
9.47467E-01 8.64541E-28
9.49397E-01 8.28788E-28
9.51293E-01 7.93999E-28
9.53154E-01 7.60155E-28
9.54981E-01 7.27239E-28
9.56773E-01 6.95235E-28
9.58530E-01 6.64125E-28
9.60252E-01 6.33894E-28
9.61940E-01 6.04525E-28
9.63592E-01 5.76005E-28
9.65209E-01 5.48318E-28
9.66790E-01 5.21450E-28
9.68336E-01 4.95387E-28
9.69846E-01 4.70117E-28
9.71321E-01 4.45626E-28
9.72759E-01 4.21903E-28
9.74162E-01 3.98934E-28
9.75528E-01 3.76709E-28
9.76858E-01 3.55216E-28
9.78152E-01 3.34444E-28
9.79410E-01 3.14384E-28
9.80631E-01 2.95025E-28
9.81815E-01 2.76356E-28
9.82963E-01 2.58370E-28
9.84074E-01 2.41057E-28
9.85148E-01 2.24408E-28
9.86185E-01 2.08415E-28
9.87185E-01 1.93071E-28
9.88148E-01 1.78367E-28
9.89074E-01 1.64296E-28
9.89962E-01 1.50852E-28
9.90814E-01 1.38027E-28
9.91627E-01 1.25816E-28
9.92404E-01 1.14212E-28
9.93143E-01 1.03209E-28
9.93844E-01 9.28030E-29
9.94508E-01 8.29878E-29
9.95134E-01 7.37589E-29
9.95722E-01 6.51117E-29
9.96273E-01 5.70420E-29
9.96786E-01 4.95458E-29
9.97261E-01 4.26195E-29
9.97698E-01 3.62597E-29
9.98097E-01 3.04632E-29
9.98459E-01 2.52273E-29
9.98782E-01 2.05494E-29
9.99067E-01 1.64272E-29
9.99315E-01 1.28586E-29
9.99524E-01 9.84204E-30
9.99695E-01 7.37592E-30
9.99829E-01 5.45907E-30
9.99924E-01 4.09056E-30
9.99981E-01 3.26972E-30
1.00000E+00 2.99615E-30
