 #
 # Subroutine ELSEPA. Elastic scattering of electrons and positrons
 #                    by neutral atoms and positive ions
 #
 # Projectile: electron
 # Kinetic energy = 9.00000E+08 eV = 3.30744E+07 a.u.
 #
 # WARNING: High-energy factorization with free-atom DF screening.
 #          Absorption, polarization and exchange corrections are
 #          switched off.
 #          Phase shifts are calculated for the bare nucleus.
 #          Scattering amplitudes are not evaluated.
 #
 # Element: Tc,  Z =  43,  atomic weight = 9.89063E+01 g/mol
 #
 # Nuclear model: Fermi distribution
 #                Average radius = 4.94833E-13 cm
 #                Skin thickness = 5.46000E-14 cm
 #
 # Number of electrons = 43
 #
 # Total elastic cross section = 4.09548E-18 cm**2 = 1.46252E-01 a0**2
 # 1st transport cross section = 4.54357E-27 cm**2 = 1.62254E-10 a0**2
 # 2nd transport cross section = 1.36290E-26 cm**2 = 4.86699E-10 a0**2
 #
 #
 # Differential cross section:                       MU=(1-COS(THETA))/2
 #
 #  THETA        MU          DCS          DCS        Sherman      error
 #  (deg)                 (cm**2/sr)   (a0**2/sr)    function
 #----------------------------------------------------------------------
0.00000E+00 2.97021E-08
7.61557E-13 2.41456E-08
1.18994E-12 2.17971E-08
1.71346E-12 1.94492E-08
2.33225E-12 1.72197E-08
3.04617E-12 1.51821E-08
3.85530E-12 1.33580E-08
4.75964E-12 1.17510E-08
5.75917E-12 1.03499E-08
6.85391E-12 9.12791E-09
8.04379E-12 8.06768E-09
9.32893E-12 7.14764E-09
1.07092E-11 6.34390E-09
1.21847E-11 5.64423E-09
1.37554E-11 5.03250E-09
1.54213E-11 4.49498E-09
1.71823E-11 4.02359E-09
1.90386E-11 3.60795E-09
2.09900E-11 3.24076E-09
2.30367E-11 2.91660E-09
2.51785E-11 2.62881E-09
2.74156E-11 2.37348E-09
2.97478E-11 2.13608E-09
3.21752E-11 1.92464E-09
3.46979E-11 1.74233E-09
3.73157E-11 1.58439E-09
4.00286E-11 1.44694E-09
4.28368E-11 1.32679E-09
4.57402E-11 1.21285E-09
4.87388E-11 1.10596E-09
5.18325E-11 1.01201E-09
5.50215E-11 9.29119E-10
5.83057E-11 8.55725E-10
6.16850E-11 7.90521E-10
6.51595E-11 7.30047E-10
6.87293E-11 6.73275E-10
7.23943E-11 6.22550E-10
7.61544E-11 5.77098E-10
1.18991E-10 2.94187E-10
1.71347E-10 1.68992E-10
2.33223E-10 1.05261E-10
3.04617E-10 6.92228E-11
3.85531E-10 4.71059E-11
4.75965E-10 3.29410E-11
5.75917E-10 2.35931E-11
6.85389E-10 1.72472E-11
8.04380E-10 1.28643E-11
9.32891E-10 9.77985E-12
1.07092E-09 7.56624E-12
1.21847E-09 5.94939E-12
1.37554E-09 4.74567E-12
1.54213E-09 3.83421E-12
1.71823E-09 3.13418E-12
1.90386E-09 2.58887E-12
2.09900E-09 2.15851E-12
2.30367E-09 1.81486E-12
2.51785E-09 1.53721E-12
2.74156E-09 1.31083E-12
2.97478E-09 1.12410E-12
3.21752E-09 9.69868E-13
3.46978E-09 8.41637E-13
3.73156E-09 7.33156E-13
4.00286E-09 6.42068E-13
4.28368E-09 5.64250E-13
4.57402E-09 4.97910E-13
4.87388E-09 4.41063E-13
5.18326E-09 3.91877E-13
5.50215E-09 3.49501E-13
5.83057E-09 3.12485E-13
6.16850E-09 2.80287E-13
6.51596E-09 2.52106E-13
6.87293E-09 2.27322E-13
7.23942E-09 2.05558E-13
7.61544E-09 1.86247E-13
1.18991E-08 7.78320E-14
1.71347E-08 3.80169E-14
2.33223E-08 2.07216E-14
3.04617E-08 1.22430E-14
3.85531E-08 7.69299E-15
4.75965E-08 5.07427E-15
5.75917E-08 3.48090E-15
6.85389E-08 2.46651E-15
8.04380E-08 1.79599E-15
9.32891E-08 1.33848E-15
1.07092E-07 1.01772E-15
1.21847E-07 7.87470E-16
1.37554E-07 6.18762E-16
1.54213E-07 4.92878E-16
1.71823E-07 3.97418E-16
1.90386E-07 3.23975E-16
2.09900E-07 2.66730E-16
2.30367E-07 2.21581E-16
2.51785E-07 1.85588E-16
2.74156E-07 1.56611E-16
2.97478E-07 1.33073E-16
3.21752E-07 1.13794E-16
3.46978E-07 9.78812E-17
3.73156E-07 8.46546E-17
4.00286E-07 7.35875E-17
4.28368E-07 6.42707E-17
4.57402E-07 5.63825E-17
4.87388E-07 4.96677E-17
5.18325E-07 4.39232E-17
5.50215E-07 3.89856E-17
5.83057E-07 3.47225E-17
6.16850E-07 3.10264E-17
6.51596E-07 2.78092E-17
6.87293E-07 2.49983E-17
7.23942E-07 2.25337E-17
7.61543E-07 2.03654E-17
1.18991E-06 8.34761E-18
1.71347E-06 4.02743E-18
2.33223E-06 2.17460E-18
3.04617E-06 1.27504E-18
3.85531E-06 7.96177E-19
4.75964E-06 5.22479E-19
5.75916E-06 3.56929E-19
6.85388E-06 2.52061E-19
8.04378E-06 1.83035E-19
9.32888E-06 1.36104E-19
1.07092E-05 1.03298E-19
1.21846E-05 7.98089E-20
1.37553E-05 6.26335E-20
1.54212E-05 4.98409E-20
1.71822E-05 4.01543E-20
1.90385E-05 3.27053E-20
2.09899E-05 2.69181E-20
2.30365E-05 2.23551E-20
2.51783E-05 1.87174E-20
2.74153E-05 1.57889E-20
2.97475E-05 1.34106E-20
3.21749E-05 1.14638E-20
3.46974E-05 9.85835E-21
3.73152E-05 8.52498E-21
4.00281E-05 7.41012E-21
4.28362E-05 6.47196E-21
4.57395E-05 5.67774E-21
4.87380E-05 5.00161E-21
5.18317E-05 4.42307E-21
5.50205E-05 3.92573E-21
5.83045E-05 3.49634E-21
6.16838E-05 3.12413E-21
6.51582E-05 2.80024E-21
6.87277E-05 2.51734E-21
7.23925E-05 2.26934E-21
7.61524E-05 2.02153E-21
9.21439E-05 1.37394E-21
1.09658E-04 9.64416E-22
1.28695E-04 6.95506E-22
1.49255E-04 5.13117E-22
1.71338E-04 3.86048E-22
1.94942E-04 2.95384E-22
2.20070E-04 2.29367E-22
2.46720E-04 1.80425E-22
2.74892E-04 1.43556E-22
3.04586E-04 1.15390E-22
3.35803E-04 9.35942E-23
3.68542E-04 7.65375E-23
4.02802E-04 6.30501E-23
4.38585E-04 5.22851E-23
4.75889E-04 4.36200E-23
5.14715E-04 3.65903E-23
5.55063E-04 3.08472E-23
5.96931E-04 2.61241E-23
6.40321E-04 2.22166E-23
6.85233E-04 1.89659E-23
7.31665E-04 1.62477E-23
7.79618E-04 1.39640E-23
8.29092E-04 1.20369E-23
8.80086E-04 1.04041E-23
9.32601E-04 9.01535E-24
9.86636E-04 7.83006E-24
1.04219E-03 6.81511E-24
1.09927E-03 5.94333E-24
1.15786E-03 5.19244E-24
1.21797E-03 4.54393E-24
1.27961E-03 3.98247E-24
1.34276E-03 3.49526E-24
1.40743E-03 3.07157E-24
1.47362E-03 2.70238E-24
1.54133E-03 2.38009E-24
1.61056E-03 2.09826E-24
1.68131E-03 1.85141E-24
1.75357E-03 1.63487E-24
1.82735E-03 1.44466E-24
1.90265E-03 1.27737E-24
1.97947E-03 1.13006E-24
2.05780E-03 1.00021E-24
2.13765E-03 8.85630E-25
2.21902E-03 7.84436E-25
2.30190E-03 6.94989E-25
2.38630E-03 6.15868E-25
2.47222E-03 5.45833E-25
2.55965E-03 4.83804E-25
2.64859E-03 4.28837E-25
2.73905E-03 3.80105E-25
2.83103E-03 3.36886E-25
2.92452E-03 2.98541E-25
3.01952E-03 2.64514E-25
3.11604E-03 2.34312E-25
3.21407E-03 2.07500E-25
3.31362E-03 1.83697E-25
3.41468E-03 1.62565E-25
3.51725E-03 1.43804E-25
3.62133E-03 1.27149E-25
3.72692E-03 1.12368E-25
3.83403E-03 9.92508E-26
3.94265E-03 8.76141E-26
4.05278E-03 7.72938E-26
4.16442E-03 6.81444E-26
4.27757E-03 6.00365E-26
4.39223E-03 5.28551E-26
4.50840E-03 4.64976E-26
4.62608E-03 4.08730E-26
4.74527E-03 3.58999E-26
4.86597E-03 3.15061E-26
4.98817E-03 2.76270E-26
5.11188E-03 2.42052E-26
5.23711E-03 2.11894E-26
5.36383E-03 1.85339E-26
5.49207E-03 1.61982E-26
5.62181E-03 1.41458E-26
5.75306E-03 1.23446E-26
5.88581E-03 1.07655E-26
6.02007E-03 9.38303E-27
6.15583E-03 8.17427E-27
6.29310E-03 7.11887E-27
6.43187E-03 6.19872E-27
6.57214E-03 5.39771E-27
6.71392E-03 4.70152E-27
6.85720E-03 4.09742E-27
7.00198E-03 3.57413E-27
7.14827E-03 3.12162E-27
7.29605E-03 2.73103E-27
7.44534E-03 2.39448E-27
7.59612E-03 2.10503E-27
7.97965E-03 1.54890E-27
8.37255E-03 1.17298E-27
8.77480E-03 9.20884E-28
9.18641E-03 7.52222E-28
9.60736E-03 6.38420E-28
1.00376E-02 5.59620E-28
1.04773E-02 5.02318E-28
1.09262E-02 4.57583E-28
1.13844E-02 4.19740E-28
1.18520E-02 3.85371E-28
1.23288E-02 3.52600E-28
1.28150E-02 3.20560E-28
1.33104E-02 2.89012E-28
1.38150E-02 2.58084E-28
1.43290E-02 2.28085E-28
1.48521E-02 1.99385E-28
1.53845E-02 1.72338E-28
1.59262E-02 1.47239E-28
1.64770E-02 1.24306E-28
1.70371E-02 1.03667E-28
1.76063E-02 8.53691E-29
1.81848E-02 6.93865E-29
1.87724E-02 5.56325E-29
1.93692E-02 4.39732E-29
1.99751E-02 3.42414E-29
2.05901E-02 2.62483E-29
2.12143E-02 1.97946E-29
2.18476E-02 1.46793E-29
2.24900E-02 1.07067E-29
2.31415E-02 7.69197E-30
2.38021E-02 5.46493E-30
2.44717E-02 3.87226E-30
2.51504E-02 2.77893E-30
2.58382E-02 2.06839E-30
2.65349E-02 1.64216E-30
2.72407E-02 1.41879E-30
2.79555E-02 1.33247E-30
2.86793E-02 1.33145E-30
2.94120E-02 1.37620E-30
3.01537E-02 1.43772E-30
3.09043E-02 1.49578E-30
3.16639E-02 1.53728E-30
3.24324E-02 1.55480E-30
3.32098E-02 1.54526E-30
3.39961E-02 1.50875E-30
3.47912E-02 1.44762E-30
3.55952E-02 1.36561E-30
3.64081E-02 1.26724E-30
3.72297E-02 1.15731E-30
3.80602E-02 1.04050E-30
3.88995E-02 9.21128E-31
3.97476E-02 8.02978E-31
4.06044E-02 6.89194E-31
4.14700E-02 5.82247E-31
4.23443E-02 4.83946E-31
4.32273E-02 3.95480E-31
4.41190E-02 3.17482E-31
4.50194E-02 2.50109E-31
4.59284E-02 1.93124E-31
4.68461E-02 1.45985E-31
4.87074E-02 7.80126E-32
5.06030E-02 3.85974E-32
5.25328E-02 1.95731E-32
5.44967E-02 1.35021E-32
5.64946E-02 1.43877E-32
5.85262E-02 1.79150E-32
6.05914E-02 2.13648E-32
6.26901E-02 2.33371E-32
6.48222E-02 2.33979E-32
6.69873E-02 2.17282E-32
6.91854E-02 1.88258E-32
7.14163E-02 1.52812E-32
7.36799E-02 1.16315E-32
7.59760E-02 8.28289E-33
7.83043E-02 5.48602E-33
8.06647E-02 3.34656E-33
8.30571E-02 1.85616E-33
8.54812E-02 9.30421E-34
8.79369E-02 4.45441E-34
9.04240E-02 2.67734E-34
9.29422E-02 2.75259E-34
9.54915E-02 3.69596E-34
9.80716E-02 4.80601E-34
1.00682E-01 5.65485E-34
1.03323E-01 6.04435E-34
1.05995E-01 5.94609E-34
1.08696E-01 5.43928E-34
1.11427E-01 4.65623E-34
1.14188E-01 3.74026E-34
1.16978E-01 2.81770E-34
1.19797E-01 1.98275E-34
1.22645E-01 1.29283E-34
1.25522E-01 7.71274E-35
1.28428E-01 4.14366E-35
1.31361E-01 2.00087E-35
1.34323E-01 9.66945E-36
1.37313E-01 6.99288E-36
1.40330E-01 8.82424E-36
1.43375E-01 1.25970E-35
1.46447E-01 1.64669E-35
1.49545E-01 1.93049E-35
1.52671E-01 2.05972E-35
1.55823E-01 2.02956E-35
1.59001E-01 1.86567E-35
1.62205E-01 1.60939E-35
1.65435E-01 1.30592E-35
1.68690E-01 9.95957E-36
1.71970E-01 7.10936E-36
1.75276E-01 4.71138E-36
1.78606E-01 2.86084E-36
1.81961E-01 1.56351E-36
1.85340E-01 7.60771E-37
1.88743E-01 3.55997E-37
1.92169E-01 2.37877E-37
1.95619E-01 2.98610E-37
1.99092E-01 4.46028E-37
2.02589E-01 6.09960E-37
2.06107E-01 7.43817E-37
2.09649E-01 8.22687E-37
2.13212E-01 8.39307E-37
2.16797E-01 7.99073E-37
2.20404E-01 7.15047E-37
2.24032E-01 6.03569E-37
2.27680E-01 4.80868E-37
2.31350E-01 3.60762E-37
2.35040E-01 2.53433E-37
2.38751E-01 1.65067E-37
2.42481E-01 9.81593E-38
2.46231E-01 5.22241E-38
2.50000E-01 1.00000E-45
2.53788E-01 1.00000E-45
2.57595E-01 1.00000E-45
2.61421E-01 1.00000E-45
2.65264E-01 1.00000E-45
2.69126E-01 1.00000E-45
2.73005E-01 1.00000E-45
2.76901E-01 1.00000E-45
2.80814E-01 1.00000E-45
2.84744E-01 1.00000E-45
2.88691E-01 1.00000E-45
2.92653E-01 1.00000E-45
2.96632E-01 1.00000E-45
3.00625E-01 1.00000E-45
3.04634E-01 1.00000E-45
3.08658E-01 1.00000E-45
3.12697E-01 1.00000E-45
3.16749E-01 1.00000E-45
3.20816E-01 1.00000E-45
3.24896E-01 1.00000E-45
3.28990E-01 1.00000E-45
3.33097E-01 1.00000E-45
3.37216E-01 1.00000E-45
3.41348E-01 1.00000E-45
3.45492E-01 1.00000E-45
3.49647E-01 1.00000E-45
3.53814E-01 1.00000E-45
3.57992E-01 1.00000E-45
3.62181E-01 1.00000E-45
3.66381E-01 1.00000E-45
3.70590E-01 1.00000E-45
3.74810E-01 1.00000E-45
3.79039E-01 1.00000E-45
3.83277E-01 1.00000E-45
3.87524E-01 1.00000E-45
3.91780E-01 1.00000E-45
3.96044E-01 1.00000E-45
4.00316E-01 1.00000E-45
4.04596E-01 1.00000E-45
4.08882E-01 1.00000E-45
4.13176E-01 1.00000E-45
4.17476E-01 1.00000E-45
4.21783E-01 1.00000E-45
4.26095E-01 1.00000E-45
4.30413E-01 1.00000E-45
4.34737E-01 1.00000E-45
4.39065E-01 1.00000E-45
4.43398E-01 1.00000E-45
4.47736E-01 1.00000E-45
4.52077E-01 1.00000E-45
4.56422E-01 1.00000E-45
4.60770E-01 1.00000E-45
4.65122E-01 1.00000E-45
4.69476E-01 1.00000E-45
4.73832E-01 1.00000E-45
4.78190E-01 1.00000E-45
4.82550E-01 1.00000E-45
4.86912E-01 1.00000E-45
4.91274E-01 1.00000E-45
4.95637E-01 1.00000E-45
5.00000E-01 1.00000E-45
5.04363E-01 1.00000E-45
5.08726E-01 1.00000E-45
5.13088E-01 1.00000E-45
5.17450E-01 1.00000E-45
5.21810E-01 1.00000E-45
5.26168E-01 1.00000E-45
5.30524E-01 1.00000E-45
5.34878E-01 1.00000E-45
5.39230E-01 1.00000E-45
5.43578E-01 1.00000E-45
5.47923E-01 1.00000E-45
5.52264E-01 1.00000E-45
5.56602E-01 1.00000E-45
5.60935E-01 1.00000E-45
5.65263E-01 1.00000E-45
5.69587E-01 1.00000E-45
5.73905E-01 1.00000E-45
5.78217E-01 1.00000E-45
5.82524E-01 1.00000E-45
5.86824E-01 1.00000E-45
5.91118E-01 1.00000E-45
5.95404E-01 1.00000E-45
5.99684E-01 1.00000E-45
6.03956E-01 1.00000E-45
6.08220E-01 1.00000E-45
6.12476E-01 1.00000E-45
6.16723E-01 1.00000E-45
6.20961E-01 1.00000E-45
6.25190E-01 1.00000E-45
6.29410E-01 1.00000E-45
6.33619E-01 1.00000E-45
6.37819E-01 1.00000E-45
6.42008E-01 1.00000E-45
6.46186E-01 1.00000E-45
6.50353E-01 1.00000E-45
6.54508E-01 1.00000E-45
6.58652E-01 1.00000E-45
6.62784E-01 1.00000E-45
6.66903E-01 1.00000E-45
6.71010E-01 1.00000E-45
6.75104E-01 1.00000E-45
6.79184E-01 1.00000E-45
6.83251E-01 1.00000E-45
6.87303E-01 1.00000E-45
6.91342E-01 1.00000E-45
6.95366E-01 1.00000E-45
6.99375E-01 1.00000E-45
7.03368E-01 1.00000E-45
7.07347E-01 1.00000E-45
7.11309E-01 1.00000E-45
7.15256E-01 1.00000E-45
7.19186E-01 1.00000E-45
7.23099E-01 1.00000E-45
7.26995E-01 1.00000E-45
7.30874E-01 1.00000E-45
7.34736E-01 1.00000E-45
7.38579E-01 1.00000E-45
7.42405E-01 1.00000E-45
7.46212E-01 1.00000E-45
7.50000E-01 1.00000E-45
7.53769E-01 1.00000E-45
7.57519E-01 1.00000E-45
7.61249E-01 1.00000E-45
7.64960E-01 1.00000E-45
7.68650E-01 1.00000E-45
7.72320E-01 1.00000E-45
7.75968E-01 1.00000E-45
7.79596E-01 1.00000E-45
7.83203E-01 1.00000E-45
7.86788E-01 1.00000E-45
7.90351E-01 1.00000E-45
7.93893E-01 1.00000E-45
7.97411E-01 1.00000E-45
8.00908E-01 1.00000E-45
8.04381E-01 1.00000E-45
8.07831E-01 1.00000E-45
8.11257E-01 1.00000E-45
8.14660E-01 1.00000E-45
8.18039E-01 1.00000E-45
8.21394E-01 1.00000E-45
8.24724E-01 1.00000E-45
8.28030E-01 1.00000E-45
8.31310E-01 1.00000E-45
8.34565E-01 1.00000E-45
8.37795E-01 1.00000E-45
8.40999E-01 1.00000E-45
8.44177E-01 1.00000E-45
8.47329E-01 1.00000E-45
8.50455E-01 1.00000E-45
8.53553E-01 1.00000E-45
8.56625E-01 1.00000E-45
8.59670E-01 1.00000E-45
8.62687E-01 1.00000E-45
8.65677E-01 1.00000E-45
8.68639E-01 1.00000E-45
8.71572E-01 1.00000E-45
8.74478E-01 1.00000E-45
8.77355E-01 1.00000E-45
8.80203E-01 1.00000E-45
8.83022E-01 1.00000E-45
8.85812E-01 1.00000E-45
8.88573E-01 1.00000E-45
8.91304E-01 1.00000E-45
8.94005E-01 1.00000E-45
8.96677E-01 1.00000E-45
8.99318E-01 1.00000E-45
9.01928E-01 1.00000E-45
9.04508E-01 1.00000E-45
9.07058E-01 1.00000E-45
9.09576E-01 1.00000E-45
9.12063E-01 1.00000E-45
9.14519E-01 1.00000E-45
9.16943E-01 1.00000E-45
9.19335E-01 1.00000E-45
9.21696E-01 1.00000E-45
9.24024E-01 1.00000E-45
9.26320E-01 1.00000E-45
9.28584E-01 1.00000E-45
9.30815E-01 1.00000E-45
9.33013E-01 1.00000E-45
9.35178E-01 1.00000E-45
9.37310E-01 1.00000E-45
9.39409E-01 1.00000E-45
9.41474E-01 1.00000E-45
9.43505E-01 1.00000E-45
9.45503E-01 1.00000E-45
9.47467E-01 1.00000E-45
9.49397E-01 1.00000E-45
9.51293E-01 1.00000E-45
9.53154E-01 1.00000E-45
9.54981E-01 1.00000E-45
9.56773E-01 1.00000E-45
9.58530E-01 1.00000E-45
9.60252E-01 1.00000E-45
9.61940E-01 1.00000E-45
9.63592E-01 1.00000E-45
9.65209E-01 1.00000E-45
9.66790E-01 1.00000E-45
9.68336E-01 1.00000E-45
9.69846E-01 1.00000E-45
9.71321E-01 1.00000E-45
9.72759E-01 1.00000E-45
9.74162E-01 1.00000E-45
9.75528E-01 1.00000E-45
9.76858E-01 1.00000E-45
9.78152E-01 1.00000E-45
9.79410E-01 1.00000E-45
9.80631E-01 1.00000E-45
9.81815E-01 1.00000E-45
9.82963E-01 1.00000E-45
9.84074E-01 1.00000E-45
9.85148E-01 1.00000E-45
9.86185E-01 1.00000E-45
9.87185E-01 1.00000E-45
9.88148E-01 1.00000E-45
9.89074E-01 1.00000E-45
9.89962E-01 1.00000E-45
9.90814E-01 1.00000E-45
9.91627E-01 1.00000E-45
9.92404E-01 1.00000E-45
9.93143E-01 1.00000E-45
9.93844E-01 1.00000E-45
9.94508E-01 1.00000E-45
9.95134E-01 1.00000E-45
9.95722E-01 1.00000E-45
9.96273E-01 1.00000E-45
9.96786E-01 1.00000E-45
9.97261E-01 1.00000E-45
9.97698E-01 1.00000E-45
9.98097E-01 1.00000E-45
9.98459E-01 1.00000E-45
9.98782E-01 1.00000E-45
9.99067E-01 1.00000E-45
9.99315E-01 1.00000E-45
9.99524E-01 1.00000E-45
9.99695E-01 1.00000E-45
9.99829E-01 1.00000E-45
9.99924E-01 1.00000E-45
9.99981E-01 1.00000E-45
1.00000E+00 1.00000E-45
