 #
 # Subroutine ELSEPA. Elastic scattering of electrons and positrons
 #                    by neutral atoms and positive ions
 #
 # Projectile: electron
 # Kinetic energy = 2.00000E+08 eV = 7.34987E+06 a.u.
 #
 # WARNING: High-energy factorization with free-atom DF screening.
 #          Absorption, polarization and exchange corrections are
 #          switched off.
 #          Phase shifts are calculated for the bare nucleus.
 #          Scattering amplitudes are not evaluated.
 #
 # Element: Tc,  Z =  43,  atomic weight = 9.89063E+01 g/mol
 #
 # Nuclear model: Fermi distribution
 #                Average radius = 4.94833E-13 cm
 #                Skin thickness = 5.46000E-14 cm
 #
 # Number of electrons = 43
 #
 # Total elastic cross section = 4.11724E-18 cm**2 = 1.47029E-01 a0**2
 # 1st transport cross section = 9.18992E-26 cm**2 = 3.28178E-09 a0**2
 # 2nd transport cross section = 2.75031E-25 cm**2 = 9.82155E-09 a0**2
 #
 #
 # Differential cross section:                       MU=(1-COS(THETA))/2
 #
 #  THETA        MU          DCS          DCS        Sherman      error
 #  (deg)                 (cm**2/sr)   (a0**2/sr)    function
 #----------------------------------------------------------------------
0.00000E+00 1.47260E-09
7.61557E-13 1.45627E-09
1.18994E-12 1.44723E-09
1.71346E-12 1.43632E-09
2.33225E-12 1.42363E-09
3.04617E-12 1.40923E-09
3.85530E-12 1.39323E-09
4.75964E-12 1.37574E-09
5.75917E-12 1.35686E-09
6.85391E-12 1.33666E-09
8.04379E-12 1.31540E-09
9.32893E-12 1.29313E-09
1.07092E-11 1.26990E-09
1.21847E-11 1.24600E-09
1.37554E-11 1.22138E-09
1.54213E-11 1.19622E-09
1.71823E-11 1.17077E-09
1.90386E-11 1.14483E-09
2.09900E-11 1.11877E-09
2.30367E-11 1.09270E-09
2.51785E-11 1.06638E-09
2.74156E-11 1.04028E-09
2.97478E-11 1.01430E-09
3.21752E-11 9.88402E-10
3.46979E-11 9.62924E-10
3.73157E-11 9.37634E-10
4.00286E-11 9.12703E-10
4.28368E-11 8.88331E-10
4.57402E-11 8.64151E-10
4.87388E-11 8.40551E-10
5.18325E-11 8.17524E-10
5.50215E-11 7.94790E-10
5.83057E-11 7.72738E-10
6.16850E-11 7.51186E-10
6.51595E-11 7.30082E-10
6.87293E-11 7.09675E-10
7.23943E-11 6.89671E-10
7.61544E-11 6.70234E-10
1.18991E-10 5.04515E-10
1.71347E-10 3.82875E-10
2.33223E-10 2.93610E-10
3.04617E-10 2.27591E-10
3.85531E-10 1.78123E-10
4.75965E-10 1.40622E-10
5.75917E-10 1.11865E-10
6.85389E-10 8.87880E-11
8.04380E-10 7.20829E-11
9.32891E-10 5.91667E-11
1.07092E-09 4.84728E-11
1.21847E-09 4.03591E-11
1.37554E-09 3.37758E-11
1.54213E-09 2.84441E-11
1.71823E-09 2.42418E-11
1.90386E-09 2.07251E-11
2.09900E-09 1.78695E-11
2.30367E-09 1.55387E-11
2.51785E-09 1.35528E-11
2.74156E-09 1.19126E-11
2.97478E-09 1.05267E-11
3.21752E-09 9.33474E-12
3.46978E-09 8.32911E-12
3.73156E-09 7.45188E-12
4.00286E-09 6.69112E-12
4.28368E-09 6.03842E-12
4.57402E-09 5.45136E-12
4.87388E-09 4.94079E-12
5.18326E-09 4.49338E-12
5.50215E-09 4.08625E-12
5.83057E-09 3.72983E-12
6.16850E-09 3.41006E-12
6.51596E-09 3.12004E-12
6.87293E-09 2.86368E-12
7.23942E-09 2.62902E-12
7.61544E-09 2.41739E-12
1.18991E-08 1.12029E-12
1.71347E-08 5.76751E-13
2.33223E-08 3.25228E-13
3.04617E-08 1.97670E-13
3.85531E-08 1.27425E-13
4.75965E-08 8.60355E-14
5.75917E-08 6.02223E-14
6.85389E-08 4.34148E-14
8.04380E-08 3.20622E-14
9.32891E-08 2.41730E-14
1.07092E-07 1.85559E-14
1.21847E-07 1.44704E-14
1.37554E-07 1.14438E-14
1.54213E-07 9.16504E-15
1.71823E-07 7.42391E-15
1.90386E-07 6.07598E-15
2.09900E-07 5.01988E-15
2.30367E-07 4.18319E-15
2.51785E-07 3.51368E-15
2.74156E-07 2.97278E-15
2.97478E-07 2.53212E-15
3.21752E-07 2.17024E-15
3.46978E-07 1.87083E-15
3.73156E-07 1.62139E-15
4.00286E-07 1.41222E-15
4.28368E-07 1.23578E-15
4.57402E-07 1.08609E-15
4.87388E-07 9.58432E-16
5.18325E-07 8.49016E-16
5.50215E-07 7.54802E-16
5.83057E-07 6.73314E-16
6.16850E-07 6.02542E-16
6.51596E-07 5.40838E-16
6.87293E-07 4.86843E-16
7.23942E-07 4.39427E-16
7.61543E-07 3.97649E-16
1.18991E-06 1.64656E-16
1.71347E-06 7.99649E-17
2.33223E-06 4.33629E-17
3.04617E-06 2.54984E-17
3.85531E-06 1.59537E-17
4.75964E-06 1.04840E-17
5.75916E-06 7.16938E-18
6.85388E-06 5.06683E-18
8.04378E-06 3.68142E-18
9.32888E-06 2.73870E-18
1.07092E-05 2.07931E-18
1.21846E-05 1.60694E-18
1.37553E-05 1.26140E-18
1.54212E-05 1.00395E-18
1.71822E-05 8.08958E-19
1.90385E-05 6.58972E-19
2.09899E-05 5.42425E-19
2.30365E-05 4.50519E-19
2.51783E-05 3.77240E-19
2.74153E-05 3.18241E-19
2.97475E-05 2.70322E-19
3.21749E-05 2.31093E-19
3.46974E-05 1.98738E-19
3.73152E-05 1.71866E-19
4.00281E-05 1.49395E-19
4.28362E-05 1.30486E-19
4.57395E-05 1.14477E-19
4.87380E-05 1.00847E-19
5.18317E-05 8.91840E-20
5.50205E-05 7.91577E-20
5.83045E-05 7.05011E-20
6.16838E-05 6.29969E-20
6.51582E-05 5.64668E-20
6.87277E-05 5.07630E-20
7.23925E-05 4.57627E-20
7.61524E-05 4.14147E-20
9.21439E-05 2.83100E-20
1.09658E-04 2.00037E-20
1.28695E-04 1.45347E-20
1.49255E-04 1.08135E-20
1.71338E-04 8.21149E-21
1.94942E-04 6.34729E-21
2.20070E-04 4.98360E-21
2.46720E-04 3.96743E-21
2.74892E-04 3.19757E-21
3.04586E-04 2.60581E-21
3.35803E-04 2.14483E-21
3.68542E-04 1.78144E-21
4.02802E-04 1.49185E-21
4.38585E-04 1.25876E-21
4.75889E-04 1.06946E-21
5.14715E-04 9.14423E-22
5.55063E-04 7.86473E-22
5.96931E-04 6.80118E-22
6.40321E-04 5.91130E-22
6.85233E-04 5.16213E-22
7.31665E-04 4.52777E-22
7.79618E-04 3.98777E-22
8.29092E-04 3.52575E-22
8.80086E-04 3.12858E-22
9.32601E-04 2.78565E-22
9.86636E-04 2.48830E-22
1.04219E-03 2.22946E-22
1.09927E-03 2.00328E-22
1.15786E-03 1.80496E-22
1.21797E-03 1.63047E-22
1.27961E-03 1.47647E-22
1.34276E-03 1.34013E-22
1.40743E-03 1.21908E-22
1.47362E-03 1.11130E-22
1.54133E-03 1.01510E-22
1.61056E-03 9.29016E-23
1.68131E-03 8.51795E-23
1.75357E-03 7.82367E-23
1.82735E-03 7.19810E-23
1.90265E-03 6.63324E-23
1.97947E-03 6.12218E-23
2.05780E-03 5.65890E-23
2.13765E-03 5.23814E-23
2.21902E-03 4.85532E-23
2.30190E-03 4.50642E-23
2.38630E-03 4.18790E-23
2.47222E-03 3.89666E-23
2.55965E-03 3.62995E-23
2.64859E-03 3.38533E-23
2.73905E-03 3.16067E-23
2.83103E-03 2.95404E-23
2.92452E-03 2.76373E-23
3.01952E-03 2.58825E-23
3.11604E-03 2.42622E-23
3.21407E-03 2.27643E-23
3.31362E-03 2.13780E-23
3.41468E-03 2.00935E-23
3.51725E-03 1.89020E-23
3.62133E-03 1.77956E-23
3.72692E-03 1.67672E-23
3.83403E-03 1.58102E-23
3.94265E-03 1.49189E-23
4.05278E-03 1.40880E-23
4.16442E-03 1.33126E-23
4.27757E-03 1.25884E-23
4.39223E-03 1.19115E-23
4.50840E-03 1.12781E-23
4.62608E-03 1.06851E-23
4.74527E-03 1.01294E-23
4.86597E-03 9.60818E-24
4.98817E-03 9.11903E-24
5.11188E-03 8.65959E-24
5.23711E-03 8.22776E-24
5.36383E-03 7.82158E-24
5.49207E-03 7.43928E-24
5.62181E-03 7.07920E-24
5.75306E-03 6.73984E-24
5.88581E-03 6.41979E-24
6.02007E-03 6.11778E-24
6.15583E-03 5.83261E-24
6.29310E-03 5.56318E-24
6.43187E-03 5.30848E-24
6.57214E-03 5.06757E-24
6.71392E-03 4.83957E-24
6.85720E-03 4.62368E-24
7.00198E-03 4.41914E-24
7.14827E-03 4.22526E-24
7.29605E-03 4.04139E-24
7.44534E-03 3.86692E-24
7.59612E-03 3.70131E-24
7.97965E-03 3.32262E-24
8.37255E-03 2.98879E-24
8.77480E-03 2.69372E-24
9.18641E-03 2.43223E-24
9.60736E-03 2.19995E-24
1.00376E-02 1.99313E-24
1.04773E-02 1.80857E-24
1.09262E-02 1.64353E-24
1.13844E-02 1.49566E-24
1.18520E-02 1.36292E-24
1.23288E-02 1.24353E-24
1.28150E-02 1.13598E-24
1.33104E-02 1.03892E-24
1.38150E-02 9.51193E-25
1.43290E-02 8.71784E-25
1.48521E-02 7.99798E-25
1.53845E-02 7.34451E-25
1.59262E-02 6.75051E-25
1.64770E-02 6.20989E-25
1.70371E-02 5.71724E-25
1.76063E-02 5.26778E-25
1.81848E-02 4.85727E-25
1.87724E-02 4.48193E-25
1.93692E-02 4.13838E-25
1.99751E-02 3.82364E-25
2.05901E-02 3.53499E-25
2.12143E-02 3.27005E-25
2.18476E-02 3.02665E-25
2.24900E-02 2.80285E-25
2.31415E-02 2.59691E-25
2.38021E-02 2.40726E-25
2.44717E-02 2.23247E-25
2.51504E-02 2.07127E-25
2.58382E-02 1.92250E-25
2.65349E-02 1.78511E-25
2.72407E-02 1.65816E-25
2.79555E-02 1.54077E-25
2.86793E-02 1.43217E-25
2.94120E-02 1.33164E-25
3.01537E-02 1.23853E-25
3.09043E-02 1.15225E-25
3.16639E-02 1.07226E-25
3.24324E-02 9.98064E-26
3.32098E-02 9.29219E-26
3.39961E-02 8.65307E-26
3.47912E-02 8.05952E-26
3.55952E-02 7.50807E-26
3.64081E-02 6.99554E-26
3.72297E-02 6.51903E-26
3.80602E-02 6.07585E-26
3.88995E-02 5.66354E-26
3.97476E-02 5.27984E-26
4.06044E-02 4.92265E-26
4.14700E-02 4.59006E-26
4.23443E-02 4.28029E-26
4.32273E-02 3.99171E-26
4.41190E-02 3.72280E-26
4.50194E-02 3.47218E-26
4.59284E-02 3.23855E-26
4.68461E-02 3.02072E-26
4.87074E-02 2.62814E-26
5.06030E-02 2.28654E-26
5.25328E-02 1.98916E-26
5.44967E-02 1.73016E-26
5.64946E-02 1.50452E-26
5.85262E-02 1.30790E-26
6.05914E-02 1.13654E-26
6.26901E-02 9.87181E-27
6.48222E-02 8.57014E-27
6.69873E-02 7.43581E-27
6.91854E-02 6.44751E-27
7.14163E-02 5.58669E-27
7.36799E-02 4.83717E-27
7.59760E-02 4.18485E-27
7.83043E-02 3.61743E-27
8.06647E-02 3.12415E-27
8.30571E-02 2.69562E-27
8.54812E-02 2.32363E-27
8.79369E-02 2.00100E-27
9.04240E-02 1.72143E-27
9.29422E-02 1.47942E-27
9.54915E-02 1.27017E-27
9.80716E-02 1.08945E-27
1.00682E-01 9.33570E-28
1.03323E-01 7.99303E-28
1.05995E-01 6.83820E-28
1.08696E-01 5.84648E-28
1.11427E-01 4.99624E-28
1.14188E-01 4.26855E-28
1.16978E-01 3.64690E-28
1.19797E-01 3.11684E-28
1.22645E-01 2.66580E-28
1.25522E-01 2.28279E-28
1.28428E-01 1.95825E-28
1.31361E-01 1.68387E-28
1.34323E-01 1.45241E-28
1.37313E-01 1.25761E-28
1.40330E-01 1.09402E-28
1.43375E-01 9.56939E-29
1.46447E-01 8.42307E-29
1.49545E-01 7.46620E-29
1.52671E-01 6.66863E-29
1.55823E-01 6.00451E-29
1.59001E-01 5.45169E-29
1.62205E-01 4.99126E-29
1.65435E-01 4.60715E-29
1.68690E-01 4.28569E-29
1.71970E-01 4.01537E-29
1.75276E-01 3.78647E-29
1.78606E-01 3.59086E-29
1.81961E-01 3.42178E-29
1.85340E-01 3.27362E-29
1.88743E-01 3.14177E-29
1.92169E-01 3.02247E-29
1.95619E-01 2.91268E-29
1.99092E-01 2.80996E-29
2.02589E-01 2.71240E-29
2.06107E-01 2.61853E-29
2.09649E-01 2.52721E-29
2.13212E-01 2.43761E-29
2.16797E-01 2.34915E-29
2.20404E-01 2.26144E-29
2.24032E-01 2.17425E-29
2.27680E-01 2.08748E-29
2.31350E-01 2.00112E-29
2.35040E-01 1.91523E-29
2.38751E-01 1.82994E-29
2.42481E-01 1.74540E-29
2.46231E-01 1.66180E-29
2.50000E-01 1.57933E-29
2.53788E-01 1.49820E-29
2.57595E-01 1.41860E-29
2.61421E-01 1.34072E-29
2.65264E-01 1.26475E-29
2.69126E-01 1.19083E-29
2.73005E-01 1.11912E-29
2.76901E-01 1.04974E-29
2.80814E-01 9.82793E-30
2.84744E-01 9.18376E-30
2.88691E-01 8.56552E-30
2.92653E-01 7.97369E-30
2.96632E-01 7.40859E-30
3.00625E-01 6.87036E-30
3.04634E-01 6.35896E-30
3.08658E-01 5.87425E-30
3.12697E-01 5.41592E-30
3.16749E-01 4.98356E-30
3.20816E-01 4.57665E-30
3.24896E-01 4.19459E-30
3.28990E-01 3.83667E-30
3.33097E-01 3.50214E-30
3.37216E-01 3.19019E-30
3.41348E-01 2.89995E-30
3.45492E-01 2.63054E-30
3.49647E-01 2.38104E-30
3.53814E-01 2.15051E-30
3.57992E-01 1.93800E-30
3.62181E-01 1.74258E-30
3.66381E-01 1.56331E-30
3.70590E-01 1.39924E-30
3.74810E-01 1.24948E-30
3.79039E-01 1.11311E-30
3.83277E-01 9.89281E-31
3.87524E-01 8.77136E-31
3.91780E-01 7.75859E-31
3.96044E-01 6.84665E-31
4.00316E-01 6.02800E-31
4.04596E-01 5.29543E-31
4.08882E-01 4.64208E-31
4.13176E-01 4.06145E-31
4.17476E-01 3.54736E-31
4.21783E-01 3.09401E-31
4.26095E-01 2.69593E-31
4.30413E-01 2.34797E-31
4.34737E-01 2.04535E-31
4.39065E-01 1.78358E-31
4.43398E-01 1.55851E-31
4.47736E-01 1.36627E-31
4.52077E-01 1.20329E-31
4.56422E-01 1.06627E-31
4.60770E-01 9.52203E-32
4.65122E-01 8.58301E-32
4.69476E-01 7.82032E-32
4.73832E-01 7.21087E-32
4.78190E-01 6.73370E-32
4.82550E-01 6.36984E-32
4.86912E-01 6.10219E-32
4.91274E-01 5.91539E-32
4.95637E-01 5.79572E-32
5.00000E-01 5.73093E-32
5.04363E-01 5.71020E-32
5.08726E-01 5.72396E-32
5.13088E-01 5.76383E-32
5.17450E-01 5.82250E-32
5.21810E-01 5.89367E-32
5.26168E-01 5.97190E-32
5.30524E-01 6.05258E-32
5.34878E-01 6.13185E-32
5.39230E-01 6.20648E-32
5.43578E-01 6.27384E-32
5.47923E-01 6.33185E-32
5.52264E-01 6.37887E-32
5.56602E-01 6.41368E-32
5.60935E-01 6.43544E-32
5.65263E-01 6.44361E-32
5.69587E-01 6.43793E-32
5.73905E-01 6.41838E-32
5.78217E-01 6.38513E-32
5.82524E-01 6.33852E-32
5.86824E-01 6.27903E-32
5.91118E-01 6.20728E-32
5.95404E-01 6.12393E-32
5.99684E-01 6.02976E-32
6.03956E-01 5.92557E-32
6.08220E-01 5.81220E-32
6.12476E-01 5.69053E-32
6.16723E-01 5.56142E-32
6.20961E-01 5.42575E-32
6.25190E-01 5.28438E-32
6.29410E-01 5.13816E-32
6.33619E-01 4.98790E-32
6.37819E-01 4.83440E-32
6.42008E-01 4.67841E-32
6.46186E-01 4.52065E-32
6.50353E-01 4.36180E-32
6.54508E-01 4.20248E-32
6.58652E-01 4.04330E-32
6.62784E-01 3.88480E-32
6.66903E-01 3.72749E-32
6.71010E-01 3.57182E-32
6.75104E-01 3.41823E-32
6.79184E-01 3.26707E-32
6.83251E-01 3.11870E-32
6.87303E-01 2.97341E-32
6.91342E-01 2.83146E-32
6.95366E-01 2.69307E-32
6.99375E-01 2.55844E-32
7.03368E-01 2.42772E-32
7.07347E-01 2.30105E-32
7.11309E-01 2.17852E-32
7.15256E-01 2.06020E-32
7.19186E-01 1.94615E-32
7.23099E-01 1.83640E-32
7.26995E-01 1.73096E-32
7.30874E-01 1.62981E-32
7.34736E-01 1.53292E-32
7.38579E-01 1.44026E-32
7.42405E-01 1.35176E-32
7.46212E-01 1.26736E-32
7.50000E-01 1.18699E-32
7.53769E-01 1.11054E-32
7.57519E-01 1.03794E-32
7.61249E-01 9.69062E-33
7.64960E-01 9.03815E-33
7.68650E-01 8.42080E-33
7.72320E-01 7.83743E-33
7.75968E-01 7.28684E-33
7.79596E-01 6.76784E-33
7.83203E-01 6.27919E-33
7.86788E-01 5.81968E-33
7.90351E-01 5.38808E-33
7.93893E-01 4.98319E-33
7.97411E-01 4.60379E-33
8.00908E-01 4.24872E-33
8.04381E-01 3.91679E-33
8.07831E-01 3.60686E-33
8.11257E-01 3.31782E-33
8.14660E-01 3.04858E-33
8.18039E-01 2.79809E-33
8.21394E-01 2.56530E-33
8.24724E-01 2.34924E-33
8.28030E-01 2.14894E-33
8.31310E-01 1.96348E-33
8.34565E-01 1.79197E-33
8.37795E-01 1.63357E-33
8.40999E-01 1.48744E-33
8.44177E-01 1.35282E-33
8.47329E-01 1.22896E-33
8.50455E-01 1.11515E-33
8.53553E-01 1.01072E-33
8.56625E-01 9.15015E-34
8.59670E-01 8.27438E-34
8.62687E-01 7.47409E-34
8.65677E-01 6.74386E-34
8.68639E-01 6.07854E-34
8.71572E-01 5.47329E-34
8.74478E-01 4.92353E-34
8.77355E-01 4.42500E-34
8.80203E-01 3.97365E-34
8.83022E-01 3.56571E-34
8.85812E-01 3.19766E-34
8.88573E-01 2.86618E-34
8.91304E-01 2.56821E-34
8.94005E-01 2.30085E-34
8.96677E-01 2.06145E-34
8.99318E-01 1.84751E-34
9.01928E-01 1.65672E-34
9.04508E-01 1.48694E-34
9.07058E-01 1.33620E-34
9.09576E-01 1.20266E-34
9.12063E-01 1.08464E-34
9.14519E-01 9.80581E-35
9.16943E-01 8.89055E-35
9.19335E-01 8.08749E-35
9.21696E-01 7.38460E-35
9.24024E-01 6.77086E-35
9.26320E-01 6.23623E-35
9.28584E-01 5.77155E-35
9.30815E-01 5.36848E-35
9.33013E-01 5.01948E-35
9.35178E-01 4.71768E-35
9.37310E-01 4.45691E-35
9.39409E-01 4.23160E-35
9.41474E-01 4.03674E-35
9.43505E-01 3.86785E-35
9.45503E-01 3.72093E-35
9.47467E-01 3.59241E-35
9.49397E-01 3.47914E-35
9.51293E-01 3.37834E-35
9.53154E-01 3.28755E-35
9.54981E-01 3.20464E-35
9.56773E-01 3.12775E-35
9.58530E-01 3.05529E-35
9.60252E-01 2.98588E-35
9.61940E-01 2.91837E-35
9.63592E-01 2.85178E-35
9.65209E-01 2.78532E-35
9.66790E-01 2.71834E-35
9.68336E-01 2.65032E-35
9.69846E-01 2.58089E-35
9.71321E-01 2.50975E-35
9.72759E-01 2.43672E-35
9.74162E-01 2.36170E-35
9.75528E-01 2.28466E-35
9.76858E-01 2.20563E-35
9.78152E-01 2.12469E-35
9.79410E-01 2.04199E-35
9.80631E-01 1.95771E-35
9.81815E-01 1.87204E-35
9.82963E-01 1.78522E-35
9.84074E-01 1.69752E-35
9.85148E-01 1.60920E-35
9.86185E-01 1.52057E-35
9.87185E-01 1.43190E-35
9.88148E-01 1.34352E-35
9.89074E-01 1.25572E-35
9.89962E-01 1.16881E-35
9.90814E-01 1.08309E-35
9.91627E-01 9.98875E-36
9.92404E-01 9.16450E-36
9.93143E-01 8.36102E-36
9.93844E-01 7.58112E-36
9.94508E-01 6.82748E-36
9.95134E-01 6.10265E-36
9.95722E-01 5.40909E-36
9.96273E-01 4.74914E-36
9.96786E-01 4.12499E-36
9.97261E-01 3.53870E-36
9.97698E-01 2.99217E-36
9.98097E-01 2.48719E-36
9.98459E-01 2.02537E-36
9.98782E-01 1.60819E-36
9.99067E-01 1.23696E-36
9.99315E-01 9.12878E-37
9.99524E-01 6.36907E-37
9.99695E-01 4.09968E-37
9.99829E-01 2.32703E-37
9.99924E-01 1.05713E-37
9.99981E-01 2.93582E-38
1.00000E+00 3.88016E-39
