 #
 # Subroutine ELSEPA. Elastic scattering of electrons and positrons
 #                    by neutral atoms and positive ions
 #
 # Projectile: electron
 # Kinetic energy = 2.50000E+08 eV = 9.18733E+06 a.u.
 #
 # WARNING: High-energy factorization with free-atom DF screening.
 #          Absorption, polarization and exchange corrections are
 #          switched off.
 #          Phase shifts are calculated for the bare nucleus.
 #          Scattering amplitudes are not evaluated.
 #
 # Element: Tc,  Z =  43,  atomic weight = 9.89063E+01 g/mol
 #
 # Nuclear model: Fermi distribution
 #                Average radius = 4.94833E-13 cm
 #                Skin thickness = 5.46000E-14 cm
 #
 # Number of electrons = 43
 #
 # Total elastic cross section = 4.11726E-18 cm**2 = 1.47030E-01 a0**2
 # 1st transport cross section = 5.88445E-26 cm**2 = 2.10137E-09 a0**2
 # 2nd transport cross section = 1.76254E-25 cm**2 = 6.29415E-09 a0**2
 #
 #
 # Differential cross section:                       MU=(1-COS(THETA))/2
 #
 #  THETA        MU          DCS          DCS        Sherman      error
 #  (deg)                 (cm**2/sr)   (a0**2/sr)    function
 #----------------------------------------------------------------------
0.00000E+00 2.29860E-09
7.61557E-13 2.25903E-09
1.18994E-12 2.23733E-09
1.71346E-12 2.21132E-09
2.33225E-12 2.18128E-09
3.04617E-12 2.14754E-09
3.85530E-12 2.11039E-09
4.75964E-12 2.07021E-09
5.75917E-12 2.02759E-09
6.85391E-12 1.98247E-09
8.04379E-12 1.93574E-09
9.32893E-12 1.88724E-09
1.07092E-11 1.83781E-09
1.21847E-11 1.78739E-09
1.37554E-11 1.73657E-09
1.54213E-11 1.68550E-09
1.71823E-11 1.63442E-09
1.90386E-11 1.58374E-09
2.09900E-11 1.53333E-09
2.30367E-11 1.48388E-09
2.51785E-11 1.43486E-09
2.74156E-11 1.38717E-09
2.97478E-11 1.34014E-09
3.21752E-11 1.29457E-09
3.46979E-11 1.24997E-09
3.73157E-11 1.20677E-09
4.00286E-11 1.16480E-09
4.28368E-11 1.12413E-09
4.57402E-11 1.08488E-09
4.87388E-11 1.04678E-09
5.18325E-11 1.01024E-09
5.50215E-11 9.74676E-10
5.83057E-11 9.40747E-10
6.16850E-11 9.07680E-10
6.51595E-11 8.76146E-10
6.87293E-11 8.45567E-10
7.23943E-11 8.16302E-10
7.61544E-11 7.88066E-10
1.18991E-10 5.59144E-10
1.71347E-10 4.03368E-10
2.33223E-10 2.95687E-10
3.04617E-10 2.19756E-10
3.85531E-10 1.64662E-10
4.75965E-10 1.24705E-10
5.75917E-10 9.74827E-11
6.85389E-10 7.57716E-11
8.04380E-10 6.04034E-11
9.32891E-10 4.83793E-11
1.07092E-09 3.93990E-11
1.21847E-09 3.24001E-11
1.37554E-09 2.69580E-11
1.54213E-09 2.26642E-11
1.71823E-09 1.92199E-11
1.90386E-09 1.64569E-11
2.09900E-09 1.41751E-11
2.30367E-09 1.23190E-11
2.51785E-09 1.07406E-11
2.74156E-09 9.43975E-12
2.97478E-09 8.31210E-12
3.21752E-09 7.36509E-12
3.46978E-09 6.53968E-12
3.73156E-09 5.83115E-12
4.00286E-09 5.21279E-12
4.28368E-09 4.67152E-12
4.57402E-09 4.19956E-12
4.87388E-09 3.77961E-12
5.18326E-09 3.41388E-12
5.50215E-09 3.08429E-12
5.83057E-09 2.79689E-12
6.16850E-09 2.53637E-12
6.51596E-09 2.30733E-12
6.87293E-09 2.10078E-12
7.23942E-09 1.91700E-12
7.61544E-09 1.75184E-12
1.18991E-08 7.75293E-13
1.71347E-08 3.93258E-13
2.33223E-08 2.21326E-13
3.04617E-08 1.34544E-13
3.85531E-08 8.65193E-14
4.75965E-08 5.81580E-14
5.75917E-08 4.04898E-14
6.85389E-08 2.90193E-14
8.04380E-08 2.13166E-14
9.32891E-08 1.59956E-14
1.07092E-07 1.22270E-14
1.21847E-07 9.50236E-15
1.37554E-07 7.49473E-15
1.54213E-07 5.98982E-15
1.71823E-07 4.84426E-15
1.90386E-07 3.96000E-15
2.09900E-07 3.26876E-15
2.30367E-07 2.72205E-15
2.51785E-07 2.28515E-15
2.74156E-07 1.93262E-15
2.97478E-07 1.64563E-15
3.21752E-07 1.41006E-15
3.46978E-07 1.21524E-15
3.73156E-07 1.05297E-15
4.00286E-07 9.16931E-16
4.28368E-07 8.02185E-16
4.57402E-07 7.04857E-16
4.87388E-07 6.21863E-16
5.18325E-07 5.50741E-16
5.50215E-07 4.89506E-16
5.83057E-07 4.36554E-16
6.16850E-07 3.90570E-16
6.51596E-07 3.50484E-16
6.87293E-07 3.15411E-16
7.23942E-07 2.84617E-16
7.61543E-07 2.57490E-16
1.18991E-06 1.06349E-16
1.71347E-06 5.15421E-17
2.33223E-06 2.79078E-17
3.04617E-06 1.63926E-17
3.85531E-06 1.02485E-17
4.75964E-06 6.73103E-18
5.75916E-06 4.60103E-18
6.85388E-06 3.25067E-18
8.04378E-06 2.36128E-18
9.32888E-06 1.75629E-18
1.07092E-05 1.33323E-18
1.21846E-05 1.03023E-18
1.37553E-05 8.08625E-19
1.54212E-05 6.43534E-19
1.71822E-05 5.18510E-19
1.90385E-05 4.22351E-19
2.09899E-05 3.47638E-19
2.30365E-05 2.88725E-19
2.51783E-05 2.41754E-19
2.74153E-05 2.03938E-19
2.97475E-05 1.73226E-19
3.21749E-05 1.48084E-19
3.46974E-05 1.27349E-19
3.73152E-05 1.10128E-19
4.00281E-05 9.57277E-20
4.28362E-05 8.36099E-20
4.57395E-05 7.33509E-20
4.87380E-05 6.46170E-20
5.18317E-05 5.71436E-20
5.50205E-05 5.07189E-20
5.83045E-05 4.51719E-20
6.16838E-05 4.03636E-20
6.51582E-05 3.61793E-20
6.87277E-05 3.25245E-20
7.23925E-05 2.93206E-20
7.61524E-05 2.65398E-20
9.21439E-05 1.81407E-20
1.09658E-04 1.28171E-20
1.28695E-04 9.31195E-21
1.49255E-04 6.92707E-21
1.71338E-04 5.25950E-21
1.94942E-04 4.06478E-21
2.20070E-04 3.19088E-21
2.46720E-04 2.53970E-21
2.74892E-04 2.04640E-21
3.04586E-04 1.66723E-21
3.35803E-04 1.37187E-21
3.68542E-04 1.13907E-21
4.02802E-04 9.53566E-22
4.38585E-04 8.04280E-22
4.75889E-04 6.83053E-22
5.14715E-04 5.83780E-22
5.55063E-04 5.01866E-22
5.96931E-04 4.33788E-22
6.40321E-04 3.76837E-22
6.85233E-04 3.28900E-22
7.31665E-04 2.88319E-22
7.79618E-04 2.53781E-22
8.29092E-04 2.24237E-22
8.80086E-04 1.98848E-22
9.32601E-04 1.76931E-22
9.86636E-04 1.57932E-22
1.04219E-03 1.41399E-22
1.09927E-03 1.26957E-22
1.15786E-03 1.14298E-22
1.21797E-03 1.03163E-22
1.27961E-03 9.33395E-23
1.34276E-03 8.46458E-23
1.40743E-03 7.69301E-23
1.47362E-03 7.00636E-23
1.54133E-03 6.39368E-23
1.61056E-03 5.84566E-23
1.68131E-03 5.35430E-23
1.75357E-03 4.91274E-23
1.82735E-03 4.51507E-23
1.90265E-03 4.15617E-23
1.97947E-03 3.83163E-23
2.05780E-03 3.53758E-23
2.13765E-03 3.27067E-23
2.21902E-03 3.02796E-23
2.30190E-03 2.80689E-23
2.38630E-03 2.60519E-23
2.47222E-03 2.42088E-23
2.55965E-03 2.25220E-23
2.64859E-03 2.09760E-23
2.73905E-03 1.95570E-23
2.83103E-03 1.82528E-23
2.92452E-03 1.70525E-23
3.01952E-03 1.59464E-23
3.11604E-03 1.49260E-23
3.21407E-03 1.39833E-23
3.31362E-03 1.31116E-23
3.41468E-03 1.23045E-23
3.51725E-03 1.15565E-23
3.62133E-03 1.08624E-23
3.72692E-03 1.02178E-23
3.83403E-03 9.61852E-24
3.94265E-03 9.06086E-24
4.05278E-03 8.54143E-24
4.16442E-03 8.05718E-24
4.27757E-03 7.60533E-24
4.39223E-03 7.18335E-24
4.50840E-03 6.78894E-24
4.62608E-03 6.42000E-24
4.74527E-03 6.07462E-24
4.86597E-03 5.75104E-24
4.98817E-03 5.44767E-24
5.11188E-03 5.16303E-24
5.23711E-03 4.89579E-24
5.36383E-03 4.64471E-24
5.49207E-03 4.40865E-24
5.62181E-03 4.18656E-24
5.75306E-03 3.97750E-24
5.88581E-03 3.78058E-24
6.02007E-03 3.59497E-24
6.15583E-03 3.41993E-24
6.29310E-03 3.25476E-24
6.43187E-03 3.09882E-24
6.57214E-03 2.95151E-24
6.71392E-03 2.81227E-24
6.85720E-03 2.68060E-24
7.00198E-03 2.55603E-24
7.14827E-03 2.43811E-24
7.29605E-03 2.32643E-24
7.44534E-03 2.22062E-24
7.59612E-03 2.12031E-24
7.97965E-03 1.89154E-24
8.37255E-03 1.69063E-24
8.77480E-03 1.51374E-24
9.18641E-03 1.35761E-24
9.60736E-03 1.21949E-24
1.00376E-02 1.09704E-24
1.04773E-02 9.88260E-25
1.09262E-02 8.91431E-25
1.13844E-02 8.05082E-25
1.18520E-02 7.27942E-25
1.23288E-02 6.58916E-25
1.28150E-02 5.97050E-25
1.33104E-02 5.41519E-25
1.38150E-02 4.91603E-25
1.43290E-02 4.46673E-25
1.48521E-02 4.06178E-25
1.53845E-02 3.69636E-25
1.59262E-02 3.36623E-25
1.64770E-02 3.06764E-25
1.70371E-02 2.79730E-25
1.76063E-02 2.55229E-25
1.81848E-02 2.33002E-25
1.87724E-02 2.12820E-25
1.93692E-02 1.94480E-25
1.99751E-02 1.77799E-25
2.05901E-02 1.62617E-25
2.12143E-02 1.48787E-25
2.18476E-02 1.36182E-25
2.24900E-02 1.24684E-25
2.31415E-02 1.14191E-25
2.38021E-02 1.04609E-25
2.44717E-02 9.58541E-26
2.51504E-02 8.78507E-26
2.58382E-02 8.05310E-26
2.65349E-02 7.38334E-26
2.72407E-02 6.77025E-26
2.79555E-02 6.20882E-26
2.86793E-02 5.69451E-26
2.94120E-02 5.22320E-26
3.01537E-02 4.79117E-26
3.09043E-02 4.39502E-26
3.16639E-02 4.03169E-26
3.24324E-02 3.69839E-26
3.32098E-02 3.39255E-26
3.39961E-02 3.11187E-26
3.47912E-02 2.85425E-26
3.55952E-02 2.61774E-26
3.64081E-02 2.40060E-26
3.72297E-02 2.20121E-26
3.80602E-02 2.01813E-26
3.88995E-02 1.84999E-26
3.97476E-02 1.69559E-26
4.06044E-02 1.55379E-26
4.14700E-02 1.42356E-26
4.23443E-02 1.30398E-26
4.32273E-02 1.19417E-26
4.41190E-02 1.09334E-26
4.50194E-02 1.00076E-26
4.59284E-02 9.15777E-27
4.68461E-02 8.37770E-27
4.87074E-02 7.00485E-27
5.06030E-02 5.84937E-27
5.25328E-02 4.87770E-27
5.44967E-02 4.06145E-27
5.64946E-02 3.37658E-27
5.85262E-02 2.80273E-27
6.05914E-02 2.32265E-27
6.26901E-02 1.92168E-27
6.48222E-02 1.58742E-27
6.69873E-02 1.30934E-27
6.91854E-02 1.07851E-27
7.14163E-02 8.87369E-28
7.36799E-02 7.29495E-28
7.59760E-02 5.99463E-28
7.83043E-02 4.92680E-28
8.06647E-02 4.05263E-28
8.30571E-02 3.33937E-28
8.54812E-02 2.75940E-28
8.79369E-02 2.28949E-28
9.04240E-02 1.91014E-28
9.29422E-02 1.60500E-28
9.54915E-02 1.36040E-28
9.80716E-02 1.16496E-28
1.00682E-01 1.00921E-28
1.03323E-01 8.85318E-29
1.05995E-01 7.86819E-29
1.08696E-01 7.08409E-29
1.11427E-01 6.45752E-29
1.14188E-01 5.95328E-29
1.16978E-01 5.54296E-29
1.19797E-01 5.20380E-29
1.22645E-01 4.91773E-29
1.25522E-01 4.67059E-29
1.28428E-01 4.45135E-29
1.31361E-01 4.25161E-29
1.34323E-01 4.06508E-29
1.37313E-01 3.88716E-29
1.40330E-01 3.71459E-29
1.43375E-01 3.54519E-29
1.46447E-01 3.37760E-29
1.49545E-01 3.21112E-29
1.52671E-01 3.04550E-29
1.55823E-01 2.88083E-29
1.59001E-01 2.71747E-29
1.62205E-01 2.55591E-29
1.65435E-01 2.39673E-29
1.68690E-01 2.24056E-29
1.71970E-01 2.08804E-29
1.75276E-01 1.93976E-29
1.78606E-01 1.79627E-29
1.81961E-01 1.65806E-29
1.85340E-01 1.52554E-29
1.88743E-01 1.39905E-29
1.92169E-01 1.27884E-29
1.95619E-01 1.16511E-29
1.99092E-01 1.05795E-29
2.02589E-01 9.57428E-30
2.06107E-01 8.63506E-30
2.09649E-01 7.76116E-30
2.13212E-01 6.95131E-30
2.16797E-01 6.20384E-30
2.20404E-01 5.51673E-30
2.24032E-01 4.88763E-30
2.27680E-01 4.31397E-30
2.31350E-01 3.79301E-30
2.35040E-01 3.32184E-30
2.38751E-01 2.89751E-30
2.42481E-01 2.51701E-30
2.46231E-01 2.17731E-30
2.50000E-01 1.87542E-30
2.53788E-01 1.60841E-30
2.57595E-01 1.37342E-30
2.61421E-01 1.16769E-30
2.65264E-01 9.88565E-31
2.69126E-01 8.33526E-31
2.73005E-01 7.00181E-31
2.76901E-01 5.86277E-31
2.80814E-01 4.89706E-31
2.84744E-01 4.08505E-31
2.88691E-01 3.40856E-31
2.92653E-01 2.85083E-31
2.96632E-01 2.39650E-31
3.00625E-01 2.03157E-31
3.04634E-01 1.74333E-31
3.08658E-01 1.52031E-31
3.12697E-01 1.35223E-31
3.16749E-01 1.22992E-31
3.20816E-01 1.14522E-31
3.24896E-01 1.09097E-31
3.28990E-01 1.06090E-31
3.33097E-01 1.04953E-31
3.37216E-01 1.05218E-31
3.41348E-01 1.06483E-31
3.45492E-01 1.08408E-31
3.49647E-01 1.10710E-31
3.53814E-01 1.13155E-31
3.57992E-01 1.15554E-31
3.62181E-01 1.17758E-31
3.66381E-01 1.19651E-31
3.70590E-01 1.21146E-31
3.74810E-01 1.22186E-31
3.79039E-01 1.22731E-31
3.83277E-01 1.22763E-31
3.87524E-01 1.22279E-31
3.91780E-01 1.21286E-31
3.96044E-01 1.19806E-31
4.00316E-01 1.17865E-31
4.04596E-01 1.15498E-31
4.08882E-01 1.12742E-31
4.13176E-01 1.09638E-31
4.17476E-01 1.06231E-31
4.21783E-01 1.02562E-31
4.26095E-01 9.86772E-32
4.30413E-01 9.46175E-32
4.34737E-01 9.04245E-32
4.39065E-01 8.61371E-32
4.43398E-01 8.17922E-32
4.47736E-01 7.74239E-32
4.52077E-01 7.30636E-32
4.56422E-01 6.87396E-32
4.60770E-01 6.44776E-32
4.65122E-01 6.03001E-32
4.69476E-01 5.62267E-32
4.73832E-01 5.22745E-32
4.78190E-01 4.84575E-32
4.82550E-01 4.47876E-32
4.86912E-01 4.12739E-32
4.91274E-01 3.79234E-32
4.95637E-01 3.47413E-32
5.00000E-01 3.17306E-32
5.04363E-01 2.88928E-32
5.08726E-01 2.62277E-32
5.13088E-01 2.37338E-32
5.17450E-01 2.14086E-32
5.21810E-01 1.92484E-32
5.26168E-01 1.72486E-32
5.30524E-01 1.54040E-32
5.34878E-01 1.37087E-32
5.39230E-01 1.21563E-32
5.43578E-01 1.07401E-32
5.47923E-01 9.45311E-33
5.52264E-01 8.28822E-33
5.56602E-01 7.23817E-33
5.60935E-01 6.29569E-33
5.65263E-01 5.45358E-33
5.69587E-01 4.70473E-33
5.73905E-01 4.04220E-33
5.78217E-01 3.45923E-33
5.82524E-01 2.94929E-33
5.86824E-01 2.50612E-33
5.91118E-01 2.12372E-33
5.95404E-01 1.79639E-33
5.99684E-01 1.51873E-33
6.03956E-01 1.28565E-33
6.08220E-01 1.09239E-33
6.12476E-01 9.34490E-34
6.16723E-01 8.07805E-34
6.20961E-01 7.08499E-34
6.25190E-01 6.33036E-34
6.29410E-01 5.78169E-34
6.33619E-01 5.40932E-34
6.37819E-01 5.18626E-34
6.42008E-01 5.08810E-34
6.46186E-01 5.09281E-34
6.50353E-01 5.18070E-34
6.54508E-01 5.33418E-34
6.58652E-01 5.53770E-34
6.62784E-01 5.77758E-34
6.66903E-01 6.04185E-34
6.71010E-01 6.32015E-34
6.75104E-01 6.60360E-34
6.79184E-01 6.88464E-34
6.83251E-01 7.15695E-34
6.87303E-01 7.41530E-34
6.91342E-01 7.65547E-34
6.95366E-01 7.87412E-34
6.99375E-01 8.06871E-34
7.03368E-01 8.23740E-34
7.07347E-01 8.37897E-34
7.11309E-01 8.49276E-34
7.15256E-01 8.57853E-34
7.19186E-01 8.63649E-34
7.23099E-01 8.66717E-34
7.26995E-01 8.67136E-34
7.30874E-01 8.65013E-34
7.34736E-01 8.60470E-34
7.38579E-01 8.53646E-34
7.42405E-01 8.44689E-34
7.46212E-01 8.33757E-34
7.50000E-01 8.21012E-34
7.53769E-01 8.06617E-34
7.57519E-01 7.90739E-34
7.61249E-01 7.73540E-34
7.64960E-01 7.55182E-34
7.68650E-01 7.35819E-34
7.72320E-01 7.15604E-34
7.75968E-01 6.94680E-34
7.79596E-01 6.73186E-34
7.83203E-01 6.51251E-34
7.86788E-01 6.28998E-34
7.90351E-01 6.06540E-34
7.93893E-01 5.83985E-34
7.97411E-01 5.61429E-34
8.00908E-01 5.38962E-34
8.04381E-01 5.16666E-34
8.07831E-01 4.94614E-34
8.11257E-01 4.72873E-34
8.14660E-01 4.51500E-34
8.18039E-01 4.30549E-34
8.21394E-01 4.10064E-34
8.24724E-01 3.90082E-34
8.28030E-01 3.70638E-34
8.31310E-01 3.51759E-34
8.34565E-01 3.33465E-34
8.37795E-01 3.15775E-34
8.40999E-01 2.98701E-34
8.44177E-01 2.82251E-34
8.47329E-01 2.66431E-34
8.50455E-01 2.51241E-34
8.53553E-01 2.36681E-34
8.56625E-01 2.22746E-34
8.59670E-01 2.09428E-34
8.62687E-01 1.96720E-34
8.65677E-01 1.84610E-34
8.68639E-01 1.73086E-34
8.71572E-01 1.62134E-34
8.74478E-01 1.51740E-34
8.77355E-01 1.41886E-34
8.80203E-01 1.32557E-34
8.83022E-01 1.23734E-34
8.85812E-01 1.15400E-34
8.88573E-01 1.07537E-34
8.91304E-01 1.00127E-34
8.94005E-01 9.31505E-35
8.96677E-01 8.65895E-35
8.99318E-01 8.04256E-35
9.01928E-01 7.46408E-35
9.04508E-01 6.92171E-35
9.07058E-01 6.41369E-35
9.09576E-01 5.93832E-35
9.12063E-01 5.49392E-35
9.14519E-01 5.07885E-35
9.16943E-01 4.69155E-35
9.19335E-01 4.33047E-35
9.21696E-01 3.99416E-35
9.24024E-01 3.68117E-35
9.26320E-01 3.39017E-35
9.28584E-01 3.11982E-35
9.30815E-01 2.86889E-35
9.33013E-01 2.63616E-35
9.35178E-01 2.42051E-35
9.37310E-01 2.22085E-35
9.39409E-01 2.03614E-35
9.41474E-01 1.86540E-35
9.43505E-01 1.70770E-35
9.45503E-01 1.56216E-35
9.47467E-01 1.42795E-35
9.49397E-01 1.30429E-35
9.51293E-01 1.19044E-35
9.53154E-01 1.08569E-35
9.54981E-01 9.89406E-36
9.56773E-01 9.00959E-36
9.58530E-01 8.19777E-36
9.60252E-01 7.45320E-36
9.61940E-01 6.77081E-36
9.63592E-01 6.14590E-36
9.65209E-01 5.57404E-36
9.66790E-01 5.05113E-36
9.68336E-01 4.57332E-36
9.69846E-01 4.13705E-36
9.71321E-01 3.73900E-36
9.72759E-01 3.37609E-36
9.74162E-01 3.04546E-36
9.75528E-01 2.74445E-36
9.76858E-01 2.47062E-36
9.78152E-01 2.22168E-36
9.79410E-01 1.99554E-36
9.80631E-01 1.79026E-36
9.81815E-01 1.60405E-36
9.82963E-01 1.43527E-36
9.84074E-01 1.28238E-36
9.85148E-01 1.14400E-36
9.86185E-01 1.01885E-36
9.87185E-01 9.05739E-37
9.88148E-01 8.03596E-37
9.89074E-01 7.11428E-37
9.89962E-01 6.28333E-37
9.90814E-01 5.53481E-37
9.91627E-01 4.86117E-37
9.92404E-01 4.25554E-37
9.93143E-01 3.71161E-37
9.93844E-01 3.22373E-37
9.94508E-01 2.78669E-37
9.95134E-01 2.39580E-37
9.95722E-01 2.04683E-37
9.96273E-01 1.73595E-37
9.96786E-01 1.45971E-37
9.97261E-01 1.21502E-37
9.97698E-01 9.99122E-38
9.98097E-01 8.09563E-38
9.98459E-01 6.44150E-38
9.98782E-01 5.00975E-38
9.99067E-01 3.78369E-38
9.99315E-01 2.74915E-38
9.99524E-01 1.89340E-38
9.99695E-01 1.20715E-38
9.99829E-01 6.81310E-39
9.99924E-01 3.10444E-39
9.99981E-01 8.96002E-40
1.00000E+00 1.62965E-40
