 #
 # Subroutine ELSEPA. Elastic scattering of electrons and positrons
 #                    by neutral atoms and positive ions
 #
 # Projectile: positron
 # Kinetic energy = 6.00000E+06 eV = 2.20496E+05 a.u.
 #
 # WARNING: High-energy factorization with free-atom DF screening.
 #          Absorption, polarization and exchange corrections are
 #          switched off.
 #          Phase shifts are calculated for the bare nucleus.
 #          Scattering amplitudes are not evaluated.
 #
 # Element: Cu,  Z =  29,  atomic weight = 6.35460E+01 g/mol
 #
 # Nuclear model: Fermi distribution
 #                Average radius = 4.26986E-13 cm
 #                Skin thickness = 5.46000E-14 cm
 #
 # Number of electrons = 29
 #
 # Total elastic cross section = 1.85046E-18 cm**2 = 6.60813E-02 a0**2
 # 1st transport cross section = 2.86696E-23 cm**2 = 1.02381E-06 a0**2
 # 2nd transport cross section = 8.26847E-23 cm**2 = 2.95272E-06 a0**2
 #
 #
 # Differential cross section:                       MU=(1-COS(THETA))/2
 #
 #  THETA        MU          DCS          DCS        Sherman      error
 #  (deg)                 (cm**2/sr)   (a0**2/sr)    function
 #----------------------------------------------------------------------
0.00000E+00 5.01891E-13
7.61557E-13 5.01885E-13
1.18994E-12 5.01882E-13
1.71346E-12 5.01879E-13
2.33225E-12 5.01874E-13
3.04617E-12 5.01869E-13
3.85530E-12 5.01864E-13
4.75964E-12 5.01858E-13
5.75917E-12 5.01851E-13
6.85391E-12 5.01843E-13
8.04379E-12 5.01835E-13
9.32893E-12 5.01826E-13
1.07092E-11 5.01817E-13
1.21847E-11 5.01807E-13
1.37554E-11 5.01796E-13
1.54213E-11 5.01785E-13
1.71823E-11 5.01773E-13
1.90386E-11 5.01760E-13
2.09900E-11 5.01747E-13
2.30367E-11 5.01733E-13
2.51785E-11 5.01719E-13
2.74156E-11 5.01703E-13
2.97478E-11 5.01688E-13
3.21752E-11 5.01671E-13
3.46979E-11 5.01654E-13
3.73157E-11 5.01636E-13
4.00286E-11 5.01618E-13
4.28368E-11 5.01599E-13
4.57402E-11 5.01579E-13
4.87388E-11 5.01559E-13
5.18325E-11 5.01538E-13
5.50215E-11 5.01517E-13
5.83057E-11 5.01494E-13
6.16850E-11 5.01472E-13
6.51595E-11 5.01448E-13
6.87293E-11 5.01424E-13
7.23943E-11 5.01399E-13
7.61544E-11 5.01374E-13
1.18991E-10 5.01085E-13
1.71347E-10 5.00733E-13
2.33223E-10 5.00318E-13
3.04617E-10 4.99840E-13
3.85531E-10 4.99299E-13
4.75965E-10 4.98696E-13
5.75917E-10 4.98032E-13
6.85389E-10 4.97306E-13
8.04380E-10 4.96520E-13
9.32891E-10 4.95673E-13
1.07092E-09 4.94767E-13
1.21847E-09 4.93802E-13
1.37554E-09 4.92778E-13
1.54213E-09 4.91697E-13
1.71823E-09 4.90559E-13
1.90386E-09 4.89366E-13
2.09900E-09 4.88117E-13
2.30367E-09 4.86813E-13
2.51785E-09 4.85456E-13
2.74156E-09 4.84047E-13
2.97478E-09 4.82586E-13
3.21752E-09 4.81074E-13
3.46978E-09 4.79512E-13
3.73156E-09 4.77902E-13
4.00286E-09 4.76244E-13
4.28368E-09 4.74539E-13
4.57402E-09 4.72789E-13
4.87388E-09 4.70995E-13
5.18326E-09 4.69157E-13
5.50215E-09 4.67275E-13
5.83057E-09 4.65342E-13
6.16850E-09 4.63372E-13
6.51596E-09 4.61366E-13
6.87293E-09 4.59327E-13
7.23942E-09 4.57254E-13
7.61544E-09 4.55150E-13
1.18991E-08 4.32401E-13
1.71347E-08 4.07416E-13
2.33223E-08 3.81294E-13
3.04617E-08 3.55010E-13
3.85531E-08 3.29303E-13
4.75965E-08 3.04701E-13
5.75917E-08 2.81536E-13
6.85389E-08 2.59930E-13
8.04380E-08 2.40021E-13
9.32891E-08 2.21788E-13
1.07092E-07 2.05157E-13
1.21847E-07 1.90018E-13
1.37554E-07 1.76218E-13
1.54213E-07 1.63645E-13
1.71823E-07 1.52198E-13
1.90386E-07 1.41761E-13
2.09900E-07 1.32229E-13
2.30367E-07 1.23498E-13
2.51785E-07 1.15458E-13
2.74156E-07 1.08070E-13
2.97478E-07 1.01266E-13
3.21752E-07 9.49884E-14
3.46978E-07 8.91841E-14
3.73156E-07 8.37908E-14
4.00286E-07 7.87802E-14
4.28368E-07 7.41257E-14
4.57402E-07 6.97958E-14
4.87388E-07 6.57622E-14
5.18325E-07 6.19967E-14
5.50215E-07 5.83897E-14
5.83057E-07 5.47330E-14
6.16850E-07 5.14351E-14
6.51596E-07 4.84532E-14
6.87293E-07 4.57502E-14
7.23942E-07 4.32942E-14
7.61543E-07 4.10575E-14
1.18991E-06 2.41652E-14
1.71347E-06 1.45825E-14
2.33223E-06 9.06342E-15
3.04617E-06 5.83407E-15
3.85531E-06 3.88601E-15
4.75964E-06 2.67513E-15
5.75916E-06 1.89940E-15
6.85388E-06 1.38688E-15
8.04378E-06 1.03896E-15
9.32888E-06 7.95914E-16
1.07092E-05 6.21611E-16
1.21846E-05 4.93604E-16
1.37553E-05 3.97527E-16
1.54212E-05 3.23987E-16
1.71822E-05 2.66884E-16
1.90385E-05 2.21886E-16
2.09899E-05 1.86040E-16
2.30365E-05 1.57114E-16
2.51783E-05 1.33511E-16
2.74153E-05 1.14123E-16
2.97475E-05 9.80810E-17
3.21749E-05 8.47212E-17
3.46974E-05 7.35299E-17
3.73152E-05 6.40966E-17
4.00281E-05 5.61074E-17
4.28362E-05 4.93094E-17
4.57395E-05 4.34969E-17
4.87380E-05 3.85047E-17
5.18317E-05 3.41988E-17
5.50205E-05 3.04673E-17
5.83045E-05 2.72189E-17
6.16838E-05 2.43982E-17
6.51582E-05 2.19393E-17
6.87277E-05 1.97713E-17
7.23925E-05 1.78645E-17
7.61524E-05 1.61850E-17
9.21439E-05 1.11473E-17
1.09658E-04 7.92456E-18
1.28695E-04 5.78870E-18
1.49255E-04 4.32778E-18
1.71338E-04 3.30116E-18
1.94942E-04 2.56235E-18
2.20070E-04 2.01943E-18
2.46720E-04 1.61316E-18
2.74892E-04 1.30420E-18
3.04586E-04 1.06583E-18
3.35803E-04 8.79513E-19
3.68542E-04 7.32167E-19
4.02802E-04 6.14368E-19
4.38585E-04 5.19309E-19
4.75889E-04 4.41918E-19
5.14715E-04 3.78395E-19
5.55063E-04 3.25865E-19
5.96931E-04 2.82117E-19
6.40321E-04 2.45451E-19
6.85233E-04 2.14540E-19
7.31665E-04 1.88332E-19
7.79618E-04 1.65997E-19
8.29092E-04 1.46867E-19
8.80086E-04 1.30407E-19
9.32601E-04 1.16183E-19
9.86636E-04 1.03841E-19
1.04219E-03 9.30912E-20
1.09927E-03 8.36931E-20
1.15786E-03 7.54478E-20
1.21797E-03 6.81904E-20
1.27961E-03 6.17826E-20
1.34276E-03 5.61080E-20
1.40743E-03 5.10684E-20
1.47362E-03 4.65805E-20
1.54133E-03 4.25733E-20
1.61056E-03 3.89868E-20
1.68131E-03 3.57690E-20
1.75357E-03 3.28756E-20
1.82735E-03 3.02681E-20
1.90265E-03 2.79132E-20
1.97947E-03 2.57823E-20
2.05780E-03 2.38504E-20
2.13765E-03 2.20955E-20
2.21902E-03 2.04987E-20
2.30190E-03 1.90431E-20
2.38630E-03 1.77140E-20
2.47222E-03 1.64986E-20
2.55965E-03 1.53854E-20
2.64859E-03 1.43642E-20
2.73905E-03 1.34261E-20
2.83103E-03 1.25631E-20
2.92452E-03 1.17681E-20
3.01952E-03 1.10349E-20
3.11604E-03 1.03577E-20
3.21407E-03 9.73149E-21
3.31362E-03 9.15177E-21
3.41468E-03 8.61444E-21
3.51725E-03 8.11586E-21
3.62133E-03 7.65271E-21
3.72692E-03 7.22204E-21
3.83403E-03 6.82114E-21
3.94265E-03 6.44759E-21
4.05278E-03 6.09918E-21
4.16442E-03 5.77391E-21
4.27757E-03 5.46997E-21
4.39223E-03 5.18570E-21
4.50840E-03 4.91960E-21
4.62608E-03 4.67029E-21
4.74527E-03 4.43652E-21
4.86597E-03 4.21715E-21
4.98817E-03 4.01112E-21
5.11188E-03 3.81748E-21
5.23711E-03 3.63534E-21
5.36383E-03 3.46390E-21
5.49207E-03 3.30241E-21
5.62181E-03 3.15019E-21
5.75306E-03 3.00661E-21
5.88581E-03 2.87108E-21
6.02007E-03 2.74308E-21
6.15583E-03 2.62211E-21
6.29310E-03 2.50771E-21
6.43187E-03 2.39945E-21
6.57214E-03 2.29695E-21
6.71392E-03 2.19985E-21
6.85720E-03 2.10780E-21
7.00198E-03 2.02050E-21
7.14827E-03 1.93765E-21
7.29605E-03 1.85899E-21
7.44534E-03 1.78427E-21
7.59612E-03 1.71324E-21
7.97965E-03 1.55049E-21
8.37255E-03 1.40654E-21
8.77480E-03 1.27885E-21
9.18641E-03 1.16526E-21
9.60736E-03 1.06396E-21
1.00376E-02 9.73389E-22
1.04773E-02 8.92210E-22
1.09262E-02 8.19283E-22
1.13844E-02 7.53624E-22
1.18520E-02 6.94382E-22
1.23288E-02 6.40821E-22
1.28150E-02 5.92303E-22
1.33104E-02 5.48268E-22
1.38150E-02 5.08230E-22
1.43290E-02 4.71762E-22
1.48521E-02 4.38491E-22
1.53845E-02 4.08086E-22
1.59262E-02 3.80258E-22
1.64770E-02 3.54749E-22
1.70371E-02 3.31332E-22
1.76063E-02 3.09804E-22
1.81848E-02 2.89987E-22
1.87724E-02 2.71720E-22
1.93692E-02 2.54861E-22
1.99751E-02 2.39281E-22
2.05901E-02 2.24867E-22
2.12143E-02 2.11515E-22
2.18476E-02 1.99133E-22
2.24900E-02 1.87639E-22
2.31415E-02 1.76956E-22
2.38021E-02 1.67018E-22
2.44717E-02 1.57763E-22
2.51504E-02 1.49136E-22
2.58382E-02 1.41087E-22
2.65349E-02 1.33570E-22
2.72407E-02 1.26543E-22
2.79555E-02 1.19969E-22
2.86793E-02 1.13813E-22
2.94120E-02 1.08045E-22
3.01537E-02 1.02634E-22
3.09043E-02 9.75551E-23
3.16639E-02 9.27841E-23
3.24324E-02 8.82990E-23
3.32098E-02 8.40795E-23
3.39961E-02 8.01071E-23
3.47912E-02 7.63645E-23
3.55952E-02 7.28362E-23
3.64081E-02 6.95077E-23
3.72297E-02 6.63655E-23
3.80602E-02 6.33973E-23
3.88995E-02 6.05918E-23
3.97476E-02 5.79384E-23
4.06044E-02 5.54274E-23
4.14700E-02 5.30497E-23
4.23443E-02 5.07970E-23
4.32273E-02 4.86615E-23
4.41190E-02 4.66360E-23
4.50194E-02 4.47137E-23
4.59284E-02 4.28886E-23
4.68461E-02 4.11547E-23
4.87074E-02 3.79396E-23
5.06030E-02 3.50294E-23
5.25328E-02 3.23902E-23
5.44967E-02 2.99925E-23
5.64946E-02 2.78104E-23
5.85262E-02 2.58210E-23
6.05914E-02 2.40045E-23
6.26901E-02 2.23433E-23
6.48222E-02 2.08216E-23
6.69873E-02 1.94258E-23
6.91854E-02 1.81437E-23
7.14163E-02 1.69644E-23
7.36799E-02 1.58781E-23
7.59760E-02 1.48764E-23
7.83043E-02 1.39514E-23
8.06647E-02 1.30962E-23
8.30571E-02 1.23047E-23
8.54812E-02 1.15713E-23
8.79369E-02 1.08910E-23
9.04240E-02 1.02592E-23
9.29422E-02 9.67190E-24
9.54915E-02 9.12541E-24
9.80716E-02 8.61639E-24
1.00682E-01 8.14183E-24
1.03323E-01 7.69897E-24
1.05995E-01 7.28534E-24
1.08696E-01 6.89866E-24
1.11427E-01 6.53686E-24
1.14188E-01 6.19807E-24
1.16978E-01 5.88056E-24
1.19797E-01 5.58276E-24
1.22645E-01 5.30323E-24
1.25522E-01 5.04066E-24
1.28428E-01 4.79383E-24
1.31361E-01 4.56163E-24
1.34323E-01 4.34305E-24
1.37313E-01 4.13714E-24
1.40330E-01 3.94304E-24
1.43375E-01 3.75996E-24
1.46447E-01 3.58715E-24
1.49545E-01 3.42394E-24
1.52671E-01 3.26970E-24
1.55823E-01 3.12386E-24
1.59001E-01 2.98588E-24
1.62205E-01 2.85525E-24
1.65435E-01 2.73151E-24
1.68690E-01 2.61424E-24
1.71970E-01 2.50305E-24
1.75276E-01 2.39755E-24
1.78606E-01 2.29742E-24
1.81961E-01 2.20232E-24
1.85340E-01 2.11195E-24
1.88743E-01 2.02605E-24
1.92169E-01 1.94435E-24
1.95619E-01 1.86662E-24
1.99092E-01 1.79262E-24
2.02589E-01 1.72214E-24
2.06107E-01 1.65499E-24
2.09649E-01 1.59098E-24
2.13212E-01 1.52994E-24
2.16797E-01 1.47171E-24
2.20404E-01 1.41613E-24
2.24032E-01 1.36307E-24
2.27680E-01 1.31238E-24
2.31350E-01 1.26396E-24
2.35040E-01 1.21766E-24
2.38751E-01 1.17340E-24
2.42481E-01 1.13105E-24
2.46231E-01 1.09053E-24
2.50000E-01 1.05174E-24
2.53788E-01 1.01460E-24
2.57595E-01 9.79015E-25
2.61421E-01 9.44918E-25
2.65264E-01 9.12234E-25
2.69126E-01 8.80893E-25
2.73005E-01 8.50832E-25
2.76901E-01 8.21989E-25
2.80814E-01 7.94306E-25
2.84744E-01 7.67727E-25
2.88691E-01 7.42203E-25
2.92653E-01 7.17682E-25
2.96632E-01 6.94120E-25
3.00625E-01 6.71472E-25
3.04634E-01 6.49697E-25
3.08658E-01 6.28755E-25
3.12697E-01 6.08608E-25
3.16749E-01 5.89222E-25
3.20816E-01 5.70563E-25
3.24896E-01 5.52598E-25
3.28990E-01 5.35298E-25
3.33097E-01 5.18634E-25
3.37216E-01 5.02578E-25
3.41348E-01 4.87104E-25
3.45492E-01 4.72188E-25
3.49647E-01 4.57806E-25
3.53814E-01 4.43935E-25
3.57992E-01 4.30555E-25
3.62181E-01 4.17645E-25
3.66381E-01 4.05186E-25
3.70590E-01 3.93159E-25
3.74810E-01 3.81547E-25
3.79039E-01 3.70333E-25
3.83277E-01 3.59501E-25
3.87524E-01 3.49036E-25
3.91780E-01 3.38923E-25
3.96044E-01 3.29149E-25
4.00316E-01 3.19700E-25
4.04596E-01 3.10564E-25
4.08882E-01 3.01728E-25
4.13176E-01 2.93181E-25
4.17476E-01 2.84912E-25
4.21783E-01 2.76911E-25
4.26095E-01 2.69167E-25
4.30413E-01 2.61671E-25
4.34737E-01 2.54413E-25
4.39065E-01 2.47384E-25
4.43398E-01 2.40577E-25
4.47736E-01 2.33983E-25
4.52077E-01 2.27594E-25
4.56422E-01 2.21403E-25
4.60770E-01 2.15402E-25
4.65122E-01 2.09586E-25
4.69476E-01 2.03946E-25
4.73832E-01 1.98478E-25
4.78190E-01 1.93175E-25
4.82550E-01 1.88030E-25
4.86912E-01 1.83040E-25
4.91274E-01 1.78197E-25
4.95637E-01 1.73498E-25
5.00000E-01 1.68938E-25
5.04363E-01 1.64510E-25
5.08726E-01 1.60212E-25
5.13088E-01 1.56038E-25
5.17450E-01 1.51985E-25
5.21810E-01 1.48048E-25
5.26168E-01 1.44224E-25
5.30524E-01 1.40508E-25
5.34878E-01 1.36898E-25
5.39230E-01 1.33390E-25
5.43578E-01 1.29980E-25
5.47923E-01 1.26665E-25
5.52264E-01 1.23442E-25
5.56602E-01 1.20309E-25
5.60935E-01 1.17262E-25
5.65263E-01 1.14299E-25
5.69587E-01 1.11416E-25
5.73905E-01 1.08612E-25
5.78217E-01 1.05884E-25
5.82524E-01 1.03230E-25
5.86824E-01 1.00647E-25
5.91118E-01 9.81326E-26
5.95404E-01 9.56856E-26
5.99684E-01 9.33034E-26
6.03956E-01 9.09842E-26
6.08220E-01 8.87260E-26
6.12476E-01 8.65270E-26
6.16723E-01 8.43854E-26
6.20961E-01 8.22995E-26
6.25190E-01 8.02676E-26
6.29410E-01 7.82882E-26
6.33619E-01 7.63596E-26
6.37819E-01 7.44804E-26
6.42008E-01 7.26491E-26
6.46186E-01 7.08644E-26
6.50353E-01 6.91249E-26
6.54508E-01 6.74293E-26
6.58652E-01 6.57762E-26
6.62784E-01 6.41646E-26
6.66903E-01 6.25933E-26
6.71010E-01 6.10610E-26
6.75104E-01 5.95667E-26
6.79184E-01 5.81093E-26
6.83251E-01 5.66878E-26
6.87303E-01 5.53011E-26
6.91342E-01 5.39484E-26
6.95366E-01 5.26287E-26
6.99375E-01 5.13410E-26
7.03368E-01 5.00846E-26
7.07347E-01 4.88585E-26
7.11309E-01 4.76619E-26
7.15256E-01 4.64940E-26
7.19186E-01 4.53541E-26
7.23099E-01 4.42413E-26
7.26995E-01 4.31551E-26
7.30874E-01 4.20946E-26
7.34736E-01 4.10592E-26
7.38579E-01 4.00483E-26
7.42405E-01 3.90611E-26
7.46212E-01 3.80971E-26
7.50000E-01 3.71557E-26
7.53769E-01 3.62362E-26
7.57519E-01 3.53382E-26
7.61249E-01 3.44611E-26
7.64960E-01 3.36042E-26
7.68650E-01 3.27672E-26
7.72320E-01 3.19496E-26
7.75968E-01 3.11507E-26
7.79596E-01 3.03702E-26
7.83203E-01 2.96076E-26
7.86788E-01 2.88624E-26
7.90351E-01 2.81343E-26
7.93893E-01 2.74228E-26
7.97411E-01 2.67275E-26
8.00908E-01 2.60479E-26
8.04381E-01 2.53838E-26
8.07831E-01 2.47348E-26
8.11257E-01 2.41004E-26
8.14660E-01 2.34803E-26
8.18039E-01 2.28742E-26
8.21394E-01 2.22818E-26
8.24724E-01 2.17027E-26
8.28030E-01 2.11366E-26
8.31310E-01 2.05833E-26
8.34565E-01 2.00423E-26
8.37795E-01 1.95135E-26
8.40999E-01 1.89965E-26
8.44177E-01 1.84911E-26
8.47329E-01 1.79971E-26
8.50455E-01 1.75140E-26
8.53553E-01 1.70418E-26
8.56625E-01 1.65802E-26
8.59670E-01 1.61289E-26
8.62687E-01 1.56876E-26
8.65677E-01 1.52563E-26
8.68639E-01 1.48346E-26
8.71572E-01 1.44223E-26
8.74478E-01 1.40193E-26
8.77355E-01 1.36254E-26
8.80203E-01 1.32403E-26
8.83022E-01 1.28638E-26
8.85812E-01 1.24958E-26
8.88573E-01 1.21361E-26
8.91304E-01 1.17846E-26
8.94005E-01 1.14410E-26
8.96677E-01 1.11051E-26
8.99318E-01 1.07770E-26
9.01928E-01 1.04562E-26
9.04508E-01 1.01428E-26
9.07058E-01 9.83662E-27
9.09576E-01 9.53743E-27
9.12063E-01 9.24514E-27
9.14519E-01 8.95960E-27
9.16943E-01 8.68069E-27
9.19335E-01 8.40827E-27
9.21696E-01 8.14223E-27
9.24024E-01 7.88244E-27
9.26320E-01 7.62879E-27
9.28584E-01 7.38115E-27
9.30815E-01 7.13943E-27
9.33013E-01 6.90350E-27
9.35178E-01 6.67327E-27
9.37310E-01 6.44863E-27
9.39409E-01 6.22948E-27
9.41474E-01 6.01573E-27
9.43505E-01 5.80728E-27
9.45503E-01 5.60404E-27
9.47467E-01 5.40593E-27
9.49397E-01 5.21285E-27
9.51293E-01 5.02472E-27
9.53154E-01 4.84147E-27
9.54981E-01 4.66301E-27
9.56773E-01 4.48926E-27
9.58530E-01 4.32016E-27
9.60252E-01 4.15562E-27
9.61940E-01 3.99559E-27
9.63592E-01 3.83999E-27
9.65209E-01 3.68875E-27
9.66790E-01 3.54181E-27
9.68336E-01 3.39912E-27
9.69846E-01 3.26061E-27
9.71321E-01 3.12622E-27
9.72759E-01 2.99590E-27
9.74162E-01 2.86959E-27
9.75528E-01 2.74725E-27
9.76858E-01 2.62881E-27
9.78152E-01 2.51424E-27
9.79410E-01 2.40348E-27
9.80631E-01 2.29649E-27
9.81815E-01 2.19322E-27
9.82963E-01 2.09364E-27
9.84074E-01 1.99770E-27
9.85148E-01 1.90536E-27
9.86185E-01 1.81659E-27
9.87185E-01 1.73135E-27
9.88148E-01 1.64961E-27
9.89074E-01 1.57133E-27
9.89962E-01 1.49648E-27
9.90814E-01 1.42503E-27
9.91627E-01 1.35695E-27
9.92404E-01 1.29222E-27
9.93143E-01 1.23081E-27
9.93844E-01 1.17269E-27
9.94508E-01 1.11784E-27
9.95134E-01 1.06625E-27
9.95722E-01 1.01788E-27
9.96273E-01 9.72718E-28
9.96786E-01 9.30750E-28
9.97261E-01 8.91958E-28
9.97698E-01 8.56326E-28
9.98097E-01 8.23839E-28
9.98459E-01 7.94484E-28
9.98782E-01 7.68251E-28
9.99067E-01 7.45128E-28
9.99315E-01 7.25107E-28
9.99524E-01 7.08179E-28
9.99695E-01 6.94338E-28
9.99829E-01 6.83579E-28
9.99924E-01 6.75896E-28
9.99981E-01 6.71288E-28
1.00000E+00 6.69752E-28
