 #
 # Subroutine ELSEPA. Elastic scattering of electrons and positrons
 #                    by neutral atoms and positive ions
 #
 # Projectile: positron
 # Kinetic energy = 3.50000E+07 eV = 1.28623E+06 a.u.
 #
 # WARNING: High-energy factorization with free-atom DF screening.
 #          Absorption, polarization and exchange corrections are
 #          switched off.
 #          Phase shifts are calculated for the bare nucleus.
 #          Scattering amplitudes are not evaluated.
 #
 # Element: Cu,  Z =  29,  atomic weight = 6.35460E+01 g/mol
 #
 # Nuclear model: Fermi distribution
 #                Average radius = 4.26986E-13 cm
 #                Skin thickness = 5.46000E-14 cm
 #
 # Number of electrons = 29
 #
 # Total elastic cross section = 1.84027E-18 cm**2 = 6.57174E-02 a0**2
 # 1st transport cross section = 1.23272E-24 cm**2 = 4.40211E-08 a0**2
 # 2nd transport cross section = 3.60216E-24 cm**2 = 1.28636E-07 a0**2
 #
 #
 # Differential cross section:                       MU=(1-COS(THETA))/2
 #
 #  THETA        MU          DCS          DCS        Sherman      error
 #  (deg)                 (cm**2/sr)   (a0**2/sr)    function
 #----------------------------------------------------------------------
0.00000E+00 1.49293E-11
7.61557E-13 1.49247E-11
1.18994E-12 1.49221E-11
1.71346E-12 1.49190E-11
2.33225E-12 1.49153E-11
3.04617E-12 1.49110E-11
3.85530E-12 1.49062E-11
4.75964E-12 1.49007E-11
5.75917E-12 1.48948E-11
6.85391E-12 1.48882E-11
8.04379E-12 1.48811E-11
9.32893E-12 1.48735E-11
1.07092E-11 1.48653E-11
1.21847E-11 1.48565E-11
1.37554E-11 1.48472E-11
1.54213E-11 1.48373E-11
1.71823E-11 1.48269E-11
1.90386E-11 1.48159E-11
2.09900E-11 1.48044E-11
2.30367E-11 1.47923E-11
2.51785E-11 1.47797E-11
2.74156E-11 1.47666E-11
2.97478E-11 1.47529E-11
3.21752E-11 1.47387E-11
3.46979E-11 1.47240E-11
3.73157E-11 1.47087E-11
4.00286E-11 1.46929E-11
4.28368E-11 1.46766E-11
4.57402E-11 1.46598E-11
4.87388E-11 1.46425E-11
5.18325E-11 1.46246E-11
5.50215E-11 1.46063E-11
5.83057E-11 1.45874E-11
6.16850E-11 1.45681E-11
6.51595E-11 1.45483E-11
6.87293E-11 1.45279E-11
7.23943E-11 1.45071E-11
7.61544E-11 1.44858E-11
1.18991E-10 1.42473E-11
1.71347E-10 1.39659E-11
2.33223E-10 1.36458E-11
3.04617E-10 1.32948E-11
3.85531E-10 1.29173E-11
4.75965E-10 1.25186E-11
5.75917E-10 1.21064E-11
6.85389E-10 1.16833E-11
8.04380E-10 1.12553E-11
9.32891E-10 1.08284E-11
1.07092E-09 1.04022E-11
1.21847E-09 9.98316E-12
1.37554E-09 9.57457E-12
1.54213E-09 9.17383E-12
1.71823E-09 8.78717E-12
1.90386E-09 8.41493E-12
2.09900E-09 8.05497E-12
2.30367E-09 7.71135E-12
2.51785E-09 7.38281E-12
2.74156E-09 7.06800E-12
2.97478E-09 6.76932E-12
3.21752E-09 6.48451E-12
3.46978E-09 6.21314E-12
3.73156E-09 5.95646E-12
4.00286E-09 5.71160E-12
4.28368E-09 5.47909E-12
4.57402E-09 5.25937E-12
4.87388E-09 5.04922E-12
5.18326E-09 4.85010E-12
5.50215E-09 4.66186E-12
5.83057E-09 4.48111E-12
6.16850E-09 4.31010E-12
6.51596E-09 4.14783E-12
6.87293E-09 3.99208E-12
7.23942E-09 3.84452E-12
7.61544E-09 3.70388E-12
1.18991E-08 2.59548E-12
1.71347E-08 1.86404E-12
2.33223E-08 1.33934E-12
3.04617E-08 9.98676E-13
3.85531E-08 7.46295E-13
4.75965E-08 5.61701E-13
5.75917E-08 4.30190E-13
6.85389E-08 3.30114E-13
8.04380E-08 2.56271E-13
9.32891E-08 2.01564E-13
1.07092E-07 1.59375E-13
1.21847E-07 1.27564E-13
1.37554E-07 1.03229E-13
1.54213E-07 8.41563E-14
1.71823E-07 6.93497E-14
1.90386E-07 5.76717E-14
2.09900E-07 4.83453E-14
2.30367E-07 4.08748E-14
2.51785E-07 3.48197E-14
2.74156E-07 2.98664E-14
2.97478E-07 2.57913E-14
3.21752E-07 2.24053E-14
3.46978E-07 1.95708E-14
3.73156E-07 1.71861E-14
4.00286E-07 1.51605E-14
4.28368E-07 1.34320E-14
4.57402E-07 1.19508E-14
4.87388E-07 1.06675E-14
5.18325E-07 9.55542E-15
5.50215E-07 8.58822E-15
5.83057E-07 7.73834E-15
6.16850E-07 6.99314E-15
6.51596E-07 6.33648E-15
6.87293E-07 5.75337E-15
7.23942E-07 5.23667E-15
7.61543E-07 4.77632E-15
1.18991E-06 2.08883E-15
1.71347E-06 1.04209E-15
2.33223E-06 5.72976E-16
3.04617E-06 3.40156E-16
3.85531E-06 2.14440E-16
4.75964E-06 1.41905E-16
5.75916E-06 9.76692E-17
6.85388E-06 6.94405E-17
8.04378E-06 5.07337E-17
9.32888E-06 3.79279E-17
1.07092E-05 2.89236E-17
1.21846E-05 2.24403E-17
1.37553E-05 1.76748E-17
1.54212E-05 1.41095E-17
1.71822E-05 1.13983E-17
1.90385E-05 9.30639E-18
2.09899E-05 7.67427E-18
2.30365E-05 6.38387E-18
2.51783E-05 5.35303E-18
2.74153E-05 4.52150E-18
2.97475E-05 3.84492E-18
3.21749E-05 3.29008E-18
3.46974E-05 2.83166E-18
3.73152E-05 2.45033E-18
4.00281E-05 2.13105E-18
4.28362E-05 1.86206E-18
4.57395E-05 1.63415E-18
4.87380E-05 1.43999E-18
5.18317E-05 1.27377E-18
5.50205E-05 1.13080E-18
5.83045E-05 1.00730E-18
6.16838E-05 9.00189E-19
6.51582E-05 8.06934E-19
6.87277E-05 7.25441E-19
7.23925E-05 6.53976E-19
7.61524E-05 5.91093E-19
9.21439E-05 4.03890E-19
1.09658E-04 2.85210E-19
1.28695E-04 2.07071E-19
1.49255E-04 1.53927E-19
1.71338E-04 1.16782E-19
1.94942E-04 9.01861E-20
2.20070E-04 7.07435E-20
2.46720E-04 5.62657E-20
2.74892E-04 4.53060E-20
3.04586E-04 3.68878E-20
3.35803E-04 3.03353E-20
3.68542E-04 2.51742E-20
4.02802E-04 2.10644E-20
4.38585E-04 1.77594E-20
4.75889E-04 1.50773E-20
5.14715E-04 1.28824E-20
5.55063E-04 1.10723E-20
5.96931E-04 9.56898E-21
6.40321E-04 8.31205E-21
6.85233E-04 7.25466E-21
7.31665E-04 6.35997E-21
7.79618E-04 5.59889E-21
8.29092E-04 4.94817E-21
8.80086E-04 4.38918E-21
9.32601E-04 3.90683E-21
9.86636E-04 3.48886E-21
1.04219E-03 3.12524E-21
1.09927E-03 2.80771E-21
1.15786E-03 2.52944E-21
1.21797E-03 2.28475E-21
1.27961E-03 2.06889E-21
1.34276E-03 1.87790E-21
1.40743E-03 1.70840E-21
1.47362E-03 1.55757E-21
1.54133E-03 1.42299E-21
1.61056E-03 1.30261E-21
1.68131E-03 1.19468E-21
1.75357E-03 1.09767E-21
1.82735E-03 1.01029E-21
1.90265E-03 9.31414E-22
1.97947E-03 8.60073E-22
2.05780E-03 7.95419E-22
2.13765E-03 7.36714E-22
2.21902E-03 6.83315E-22
2.30190E-03 6.34654E-22
2.38630E-03 5.90240E-22
2.47222E-03 5.49634E-22
2.55965E-03 5.12453E-22
2.64859E-03 4.78355E-22
2.73905E-03 4.47039E-22
2.83103E-03 4.18237E-22
2.92452E-03 3.91712E-22
3.01952E-03 3.67251E-22
3.11604E-03 3.44665E-22
3.21407E-03 3.23784E-22
3.31362E-03 3.04455E-22
3.41468E-03 2.86544E-22
3.51725E-03 2.69927E-22
3.62133E-03 2.54493E-22
3.72692E-03 2.40144E-22
3.83403E-03 2.26788E-22
3.94265E-03 2.14345E-22
4.05278E-03 2.02741E-22
4.16442E-03 1.91910E-22
4.27757E-03 1.81790E-22
4.39223E-03 1.72325E-22
4.50840E-03 1.63467E-22
4.62608E-03 1.55169E-22
4.74527E-03 1.47389E-22
4.86597E-03 1.40088E-22
4.98817E-03 1.33232E-22
5.11188E-03 1.26790E-22
5.23711E-03 1.20730E-22
5.36383E-03 1.15027E-22
5.49207E-03 1.09655E-22
5.62181E-03 1.04592E-22
5.75306E-03 9.98167E-23
5.88581E-03 9.53098E-23
6.02007E-03 9.10534E-23
6.15583E-03 8.70309E-23
6.29310E-03 8.32271E-23
6.43187E-03 7.96281E-23
6.57214E-03 7.62208E-23
6.71392E-03 7.29929E-23
6.85720E-03 6.99333E-23
7.00198E-03 6.70316E-23
7.14827E-03 6.42782E-23
7.29605E-03 6.16642E-23
7.44534E-03 5.91810E-23
7.59612E-03 5.68209E-23
7.97965E-03 5.14135E-23
8.37255E-03 4.66312E-23
8.77480E-03 4.23897E-23
9.18641E-03 3.86174E-23
9.60736E-03 3.52535E-23
1.00376E-02 3.22461E-23
1.04773E-02 2.95510E-23
1.09262E-02 2.71302E-23
1.13844E-02 2.49509E-23
1.18520E-02 2.29849E-23
1.23288E-02 2.12076E-23
1.28150E-02 1.95979E-23
1.33104E-02 1.81370E-23
1.38150E-02 1.68089E-23
1.43290E-02 1.55995E-23
1.48521E-02 1.44961E-23
1.53845E-02 1.34879E-23
1.59262E-02 1.25653E-23
1.64770E-02 1.17197E-23
1.70371E-02 1.09435E-23
1.76063E-02 1.02300E-23
1.81848E-02 9.57336E-24
1.87724E-02 8.96813E-24
1.93692E-02 8.40960E-24
1.99751E-02 7.89353E-24
2.05901E-02 7.41612E-24
2.12143E-02 6.97396E-24
2.18476E-02 6.56399E-24
2.24900E-02 6.18344E-24
2.31415E-02 5.82983E-24
2.38021E-02 5.50090E-24
2.44717E-02 5.19464E-24
2.51504E-02 4.90920E-24
2.58382E-02 4.64291E-24
2.65349E-02 4.39425E-24
2.72407E-02 4.16185E-24
2.79555E-02 3.94446E-24
2.86793E-02 3.74093E-24
2.94120E-02 3.55023E-24
3.01537E-02 3.37139E-24
3.09043E-02 3.20355E-24
3.16639E-02 3.04591E-24
3.24324E-02 2.89773E-24
3.32098E-02 2.75836E-24
3.39961E-02 2.62717E-24
3.47912E-02 2.50359E-24
3.55952E-02 2.38711E-24
3.64081E-02 2.27723E-24
3.72297E-02 2.17353E-24
3.80602E-02 2.07560E-24
3.88995E-02 1.98304E-24
3.97476E-02 1.89552E-24
4.06044E-02 1.81271E-24
4.14700E-02 1.73431E-24
4.23443E-02 1.66005E-24
4.32273E-02 1.58966E-24
4.41190E-02 1.52292E-24
4.50194E-02 1.45959E-24
4.59284E-02 1.39947E-24
4.68461E-02 1.34236E-24
4.87074E-02 1.23651E-24
5.06030E-02 1.14074E-24
5.25328E-02 1.05392E-24
5.44967E-02 9.75081E-25
5.64946E-02 9.03361E-25
5.85262E-02 8.38008E-25
6.05914E-02 7.78361E-25
6.26901E-02 7.23836E-25
6.48222E-02 6.73919E-25
6.69873E-02 6.28154E-25
6.91854E-02 5.86136E-25
7.14163E-02 5.47507E-25
7.36799E-02 5.11945E-25
7.59760E-02 4.79167E-25
7.83043E-02 4.48917E-25
8.06647E-02 4.20967E-25
8.30571E-02 3.95112E-25
8.54812E-02 3.71168E-25
8.79369E-02 3.48969E-25
9.04240E-02 3.28367E-25
9.29422E-02 3.09228E-25
9.54915E-02 2.91429E-25
9.80716E-02 2.74861E-25
1.00682E-01 2.59425E-25
1.03323E-01 2.45029E-25
1.05995E-01 2.31591E-25
1.08696E-01 2.19038E-25
1.11427E-01 2.07300E-25
1.14188E-01 1.96317E-25
1.16978E-01 1.86030E-25
1.19797E-01 1.76389E-25
1.22645E-01 1.67346E-25
1.25522E-01 1.58857E-25
1.28428E-01 1.50884E-25
1.31361E-01 1.43388E-25
1.34323E-01 1.36338E-25
1.37313E-01 1.29701E-25
1.40330E-01 1.23450E-25
1.43375E-01 1.17559E-25
1.46447E-01 1.12002E-25
1.49545E-01 1.06759E-25
1.52671E-01 1.01807E-25
1.55823E-01 9.71295E-26
1.59001E-01 9.27073E-26
1.62205E-01 8.85245E-26
1.65435E-01 8.45659E-26
1.68690E-01 8.08175E-26
1.71970E-01 7.72663E-26
1.75276E-01 7.39001E-26
1.78606E-01 7.07079E-26
1.81961E-01 6.76789E-26
1.85340E-01 6.48036E-26
1.88743E-01 6.20728E-26
1.92169E-01 5.94781E-26
1.95619E-01 5.70116E-26
1.99092E-01 5.46658E-26
2.02589E-01 5.24340E-26
2.06107E-01 5.03096E-26
2.09649E-01 4.82866E-26
2.13212E-01 4.63595E-26
2.16797E-01 4.45229E-26
2.20404E-01 4.27718E-26
2.24032E-01 4.11017E-26
2.27680E-01 3.95082E-26
2.31350E-01 3.79872E-26
2.35040E-01 3.65349E-26
2.38751E-01 3.51476E-26
2.42481E-01 3.38220E-26
2.46231E-01 3.25549E-26
2.50000E-01 3.13434E-26
2.53788E-01 3.01845E-26
2.57595E-01 2.90756E-26
2.61421E-01 2.80143E-26
2.65264E-01 2.69981E-26
2.69126E-01 2.60248E-26
2.73005E-01 2.50924E-26
2.76901E-01 2.41988E-26
2.80814E-01 2.33422E-26
2.84744E-01 2.25208E-26
2.88691E-01 2.17330E-26
2.92653E-01 2.09770E-26
2.96632E-01 2.02516E-26
3.00625E-01 1.95551E-26
3.04634E-01 1.88864E-26
3.08658E-01 1.82440E-26
3.12697E-01 1.76269E-26
3.16749E-01 1.70338E-26
3.20816E-01 1.64637E-26
3.24896E-01 1.59156E-26
3.28990E-01 1.53884E-26
3.33097E-01 1.48813E-26
3.37216E-01 1.43934E-26
3.41348E-01 1.39238E-26
3.45492E-01 1.34718E-26
3.49647E-01 1.30366E-26
3.53814E-01 1.26174E-26
3.57992E-01 1.22136E-26
3.62181E-01 1.18246E-26
3.66381E-01 1.14496E-26
3.70590E-01 1.10883E-26
3.74810E-01 1.07399E-26
3.79039E-01 1.04039E-26
3.83277E-01 1.00798E-26
3.87524E-01 9.76722E-27
3.91780E-01 9.46560E-27
3.96044E-01 9.17450E-27
4.00316E-01 8.89352E-27
4.04596E-01 8.62226E-27
4.08882E-01 8.36032E-27
4.13176E-01 8.10734E-27
4.17476E-01 7.86297E-27
4.21783E-01 7.62687E-27
4.26095E-01 7.39873E-27
4.30413E-01 7.17823E-27
4.34737E-01 6.96509E-27
4.39065E-01 6.75902E-27
4.43398E-01 6.55976E-27
4.47736E-01 6.36706E-27
4.52077E-01 6.18065E-27
4.56422E-01 6.00031E-27
4.60770E-01 5.82582E-27
4.65122E-01 5.65696E-27
4.69476E-01 5.49352E-27
4.73832E-01 5.33530E-27
4.78190E-01 5.18211E-27
4.82550E-01 5.03378E-27
4.86912E-01 4.89012E-27
4.91274E-01 4.75097E-27
4.95637E-01 4.61618E-27
5.00000E-01 4.48557E-27
5.04363E-01 4.35901E-27
5.08726E-01 4.23636E-27
5.13088E-01 4.11747E-27
5.17450E-01 4.00223E-27
5.21810E-01 3.89049E-27
5.26168E-01 3.78214E-27
5.30524E-01 3.67706E-27
5.34878E-01 3.57515E-27
5.39230E-01 3.47629E-27
5.43578E-01 3.38038E-27
5.47923E-01 3.28732E-27
5.52264E-01 3.19701E-27
5.56602E-01 3.10938E-27
5.60935E-01 3.02431E-27
5.65263E-01 2.94174E-27
5.69587E-01 2.86157E-27
5.73905E-01 2.78373E-27
5.78217E-01 2.70814E-27
5.82524E-01 2.63474E-27
5.86824E-01 2.56344E-27
5.91118E-01 2.49418E-27
5.95404E-01 2.42690E-27
5.99684E-01 2.36153E-27
6.03956E-01 2.29801E-27
6.08220E-01 2.23628E-27
6.12476E-01 2.17629E-27
6.16723E-01 2.11798E-27
6.20961E-01 2.06130E-27
6.25190E-01 2.00620E-27
6.29410E-01 1.95262E-27
6.33619E-01 1.90052E-27
6.37819E-01 1.84987E-27
6.42008E-01 1.80060E-27
6.46186E-01 1.75268E-27
6.50353E-01 1.70607E-27
6.54508E-01 1.66073E-27
6.58652E-01 1.61661E-27
6.62784E-01 1.57369E-27
6.66903E-01 1.53193E-27
6.71010E-01 1.49129E-27
6.75104E-01 1.45174E-27
6.79184E-01 1.41324E-27
6.83251E-01 1.37577E-27
6.87303E-01 1.33929E-27
6.91342E-01 1.30378E-27
6.95366E-01 1.26921E-27
6.99375E-01 1.23555E-27
7.03368E-01 1.20277E-27
7.07347E-01 1.17086E-27
7.11309E-01 1.13977E-27
7.15256E-01 1.10950E-27
7.19186E-01 1.08001E-27
7.23099E-01 1.05128E-27
7.26995E-01 1.02330E-27
7.30874E-01 9.96041E-28
7.34736E-01 9.69482E-28
7.38579E-01 9.43605E-28
7.42405E-01 9.18390E-28
7.46212E-01 8.93819E-28
7.50000E-01 8.69874E-28
7.53769E-01 8.46538E-28
7.57519E-01 8.23794E-28
7.61249E-01 8.01626E-28
7.64960E-01 7.80018E-28
7.68650E-01 7.58954E-28
7.72320E-01 7.38420E-28
7.75968E-01 7.18402E-28
7.79596E-01 6.98886E-28
7.83203E-01 6.79857E-28
7.86788E-01 6.61304E-28
7.90351E-01 6.43213E-28
7.93893E-01 6.25572E-28
7.97411E-01 6.08370E-28
8.00908E-01 5.91593E-28
8.04381E-01 5.75233E-28
8.07831E-01 5.59276E-28
8.11257E-01 5.43714E-28
8.14660E-01 5.28535E-28
8.18039E-01 5.13730E-28
8.21394E-01 4.99289E-28
8.24724E-01 4.85202E-28
8.28030E-01 4.71461E-28
8.31310E-01 4.58057E-28
8.34565E-01 4.44981E-28
8.37795E-01 4.32225E-28
8.40999E-01 4.19781E-28
8.44177E-01 4.07640E-28
8.47329E-01 3.95796E-28
8.50455E-01 3.84241E-28
8.53553E-01 3.72968E-28
8.56625E-01 3.61970E-28
8.59670E-01 3.51239E-28
8.62687E-01 3.40770E-28
8.65677E-01 3.30556E-28
8.68639E-01 3.20591E-28
8.71572E-01 3.10869E-28
8.74478E-01 3.01384E-28
8.77355E-01 2.92130E-28
8.80203E-01 2.83102E-28
8.83022E-01 2.74294E-28
8.85812E-01 2.65702E-28
8.88573E-01 2.57319E-28
8.91304E-01 2.49142E-28
8.94005E-01 2.41166E-28
8.96677E-01 2.33385E-28
8.99318E-01 2.25795E-28
9.01928E-01 2.18393E-28
9.04508E-01 2.11173E-28
9.07058E-01 2.04131E-28
9.09576E-01 1.97264E-28
9.12063E-01 1.90568E-28
9.14519E-01 1.84038E-28
9.16943E-01 1.77671E-28
9.19335E-01 1.71464E-28
9.21696E-01 1.65413E-28
9.24024E-01 1.59515E-28
9.26320E-01 1.53766E-28
9.28584E-01 1.48163E-28
9.30815E-01 1.42703E-28
9.33013E-01 1.37384E-28
9.35178E-01 1.32201E-28
9.37310E-01 1.27153E-28
9.39409E-01 1.22236E-28
9.41474E-01 1.17448E-28
9.43505E-01 1.12787E-28
9.45503E-01 1.08249E-28
9.47467E-01 1.03832E-28
9.49397E-01 9.95348E-29
9.51293E-01 9.53538E-29
9.53154E-01 9.12872E-29
9.54981E-01 8.73329E-29
9.56773E-01 8.34886E-29
9.58530E-01 7.97524E-29
9.60252E-01 7.61224E-29
9.61940E-01 7.25965E-29
9.63592E-01 6.91729E-29
9.65209E-01 6.58499E-29
9.66790E-01 6.26256E-29
9.68336E-01 5.94985E-29
9.69846E-01 5.64669E-29
9.71321E-01 5.35291E-29
9.72759E-01 5.06838E-29
9.74162E-01 4.79293E-29
9.75528E-01 4.52643E-29
9.76858E-01 4.26874E-29
9.78152E-01 4.01973E-29
9.79410E-01 3.77928E-29
9.80631E-01 3.54724E-29
9.81815E-01 3.32352E-29
9.82963E-01 3.10799E-29
9.84074E-01 2.90055E-29
9.85148E-01 2.70108E-29
9.86185E-01 2.50950E-29
9.87185E-01 2.32569E-29
9.88148E-01 2.14957E-29
9.89074E-01 1.98105E-29
9.89962E-01 1.82004E-29
9.90814E-01 1.66646E-29
9.91627E-01 1.52024E-29
9.92404E-01 1.38130E-29
9.93143E-01 1.24957E-29
9.93844E-01 1.12499E-29
9.94508E-01 1.00749E-29
9.95134E-01 8.97012E-30
9.95722E-01 7.93504E-30
9.96273E-01 6.96913E-30
9.96786E-01 6.07190E-30
9.97261E-01 5.24292E-30
9.97698E-01 4.48177E-30
9.98097E-01 3.78806E-30
9.98459E-01 3.16146E-30
9.98782E-01 2.60165E-30
9.99067E-01 2.10835E-30
9.99315E-01 1.68131E-30
9.99524E-01 1.32034E-30
9.99695E-01 1.02524E-30
9.99829E-01 7.95872E-31
9.99924E-01 6.32117E-31
9.99981E-01 5.33895E-31
1.00000E+00 5.01160E-31
