 #
 # Subroutine ELSEPA. Elastic scattering of electrons and positrons
 #                    by neutral atoms and positive ions
 #
 # Projectile: positron
 # Kinetic energy = 3.50000E+08 eV = 1.28623E+07 a.u.
 #
 # WARNING: High-energy factorization with free-atom DF screening.
 #          Absorption, polarization and exchange corrections are
 #          switched off.
 #          Phase shifts are calculated for the bare nucleus.
 #          Scattering amplitudes are not evaluated.
 #
 # Element: Cu,  Z =  29,  atomic weight = 6.35460E+01 g/mol
 #
 # Nuclear model: Fermi distribution
 #                Average radius = 4.26986E-13 cm
 #                Skin thickness = 5.46000E-14 cm
 #
 # Number of electrons = 29
 #
 # Total elastic cross section = 1.84002E-18 cm**2 = 6.57083E-02 a0**2
 # 1st transport cross section = 1.40001E-26 cm**2 = 4.99952E-10 a0**2
 # 2nd transport cross section = 4.19588E-26 cm**2 = 1.49838E-09 a0**2
 #
 #
 # Differential cross section:                       MU=(1-COS(THETA))/2
 #
 #  THETA        MU          DCS          DCS        Sherman      error
 #  (deg)                 (cm**2/sr)   (a0**2/sr)    function
 #----------------------------------------------------------------------
0.00000E+00 1.45451E-09
7.61557E-13 1.41238E-09
1.18994E-12 1.38970E-09
1.71346E-12 1.36291E-09
2.33225E-12 1.33241E-09
3.04617E-12 1.29895E-09
3.85530E-12 1.26285E-09
4.75964E-12 1.22474E-09
5.75917E-12 1.18531E-09
6.85391E-12 1.14465E-09
8.04379E-12 1.10358E-09
9.32893E-12 1.06248E-09
1.07092E-11 1.02139E-09
1.21847E-11 9.81008E-10
1.37554E-11 9.41402E-10
1.54213E-11 9.02672E-10
1.71823E-11 8.65260E-10
1.90386E-11 8.28997E-10
2.09900E-11 7.94078E-10
2.30367E-11 7.60709E-10
2.51785E-11 7.28560E-10
2.74156E-11 6.97923E-10
2.97478E-11 6.68801E-10
3.21752E-11 6.40852E-10
3.46979E-11 6.14378E-10
3.73157E-11 5.89213E-10
4.00286E-11 5.65181E-10
4.28368E-11 5.42457E-10
4.57402E-11 5.20803E-10
4.87388E-11 5.00194E-10
5.18325E-11 4.80711E-10
5.50215E-11 4.62065E-10
5.83057E-11 4.44366E-10
6.16850E-11 4.27619E-10
6.51595E-11 4.11508E-10
6.87293E-11 3.96251E-10
7.23943E-11 3.81737E-10
7.61544E-11 3.67800E-10
1.18991E-10 2.58544E-10
1.71347E-10 1.86182E-10
2.33223E-10 1.34154E-10
3.04617E-10 1.00562E-10
3.85531E-10 7.50195E-11
4.75965E-10 5.67405E-11
5.75917E-10 4.36251E-11
6.85389E-10 3.34419E-11
8.04380E-10 2.60449E-11
9.32891E-10 2.05005E-11
1.07092E-09 1.62250E-11
1.21847E-09 1.30080E-11
1.37554E-09 1.05219E-11
1.54213E-09 8.58738E-12
1.71823E-09 7.08099E-12
1.90386E-09 5.88670E-12
2.09900E-09 4.93646E-12
2.30367E-09 4.17429E-12
2.51785E-09 3.55486E-12
2.74156E-09 3.04936E-12
2.97478E-09 2.63325E-12
3.21752E-09 2.28698E-12
3.46978E-09 1.99776E-12
3.73156E-09 1.75415E-12
4.00286E-09 1.54725E-12
4.28368E-09 1.37102E-12
4.57402E-09 1.21963E-12
4.87388E-09 1.08881E-12
5.18326E-09 9.75537E-13
5.50215E-09 8.76575E-13
5.83057E-09 7.90048E-13
6.16850E-09 7.14177E-13
6.51596E-09 6.46978E-13
6.87293E-09 5.87640E-13
7.23942E-09 5.34972E-13
7.61544E-09 4.87926E-13
1.18991E-08 2.13798E-13
1.71347E-08 1.06783E-13
2.33223E-08 5.87584E-14
3.04617E-08 3.48881E-14
3.85531E-08 2.20000E-14
4.75965E-08 1.45607E-14
5.75917E-08 1.00223E-14
6.85389E-08 7.12681E-15
8.04380E-08 5.20731E-15
9.32891E-08 3.89364E-15
1.07092E-07 2.96982E-15
1.21847E-07 2.30440E-15
1.37554E-07 1.81540E-15
1.54213E-07 1.44941E-15
1.71823E-07 1.17110E-15
1.90386E-07 9.56448E-16
2.09900E-07 7.88714E-16
2.30367E-07 6.56156E-16
2.51785E-07 5.50266E-16
2.74156E-07 4.64871E-16
2.97478E-07 3.95396E-16
3.21752E-07 3.38404E-16
3.46978E-07 2.91309E-16
3.73156E-07 2.52116E-16
4.00286E-07 2.19289E-16
4.28368E-07 1.91629E-16
4.57402E-07 1.68189E-16
4.87388E-07 1.48222E-16
5.18325E-07 1.31129E-16
5.50215E-07 1.16427E-16
5.83057E-07 1.03727E-16
6.16850E-07 9.27105E-17
6.51596E-07 8.31172E-17
6.87293E-07 7.47320E-17
7.23942E-07 6.73771E-17
7.61543E-07 6.09045E-17
1.18991E-06 2.49891E-17
1.71347E-06 1.20600E-17
2.33223E-06 6.51190E-18
3.04617E-06 3.81773E-18
3.85531E-06 2.38350E-18
4.75964E-06 1.56381E-18
5.75916E-06 1.06805E-18
6.85388E-06 7.54069E-19
8.04378E-06 5.47430E-19
9.32888E-06 4.06959E-19
1.07092E-05 3.08785E-19
1.21846E-05 2.38504E-19
1.37553E-05 1.87126E-19
1.54212E-05 1.48865E-19
1.71822E-05 1.19900E-19
1.90385E-05 9.76385E-20
2.09899E-05 8.03281E-20
2.30365E-05 6.66872E-20
2.51783E-05 5.58193E-20
2.74153E-05 4.70747E-20
2.97475E-05 3.99756E-20
3.21749E-05 3.41651E-20
3.46974E-05 2.93732E-20
3.73152E-05 2.53933E-20
4.00281E-05 2.20657E-20
4.28362E-05 1.92659E-20
4.57395E-05 1.68963E-20
4.87380E-05 1.48797E-20
5.18317E-05 1.31549E-20
5.50205E-05 1.16726E-20
5.83045E-05 1.03932E-20
6.16838E-05 9.28434E-21
6.51582E-05 8.31949E-21
6.87277E-05 7.47685E-21
7.23925E-05 6.73825E-21
7.61524E-05 6.07938E-21
9.21439E-05 4.14821E-21
1.09658E-04 2.92572E-21
1.28695E-04 2.12174E-21
1.49255E-04 1.57547E-21
1.71338E-04 1.19396E-21
1.94942E-04 9.21005E-22
2.20070E-04 7.21604E-22
2.46720E-04 5.73222E-22
2.74892E-04 4.60971E-22
3.04586E-04 3.74809E-22
3.35803E-04 3.07789E-22
3.68542E-04 2.55037E-22
4.02802E-04 2.13062E-22
4.38585E-04 1.79332E-22
4.75889E-04 1.51981E-22
5.14715E-04 1.29616E-22
5.55063E-04 1.11190E-22
5.96931E-04 9.58992E-23
6.40321E-04 8.31270E-23
6.85233E-04 7.23930E-23
7.31665E-04 6.33200E-23
7.79618E-04 5.56103E-23
8.29092E-04 4.90260E-23
8.80086E-04 4.33763E-23
9.32601E-04 3.85072E-23
9.86636E-04 3.42934E-23
1.04219E-03 3.06322E-23
1.09927E-03 2.74395E-23
1.15786E-03 2.46454E-23
1.21797E-03 2.21921E-23
1.27961E-03 2.00311E-23
1.34276E-03 1.81220E-23
1.40743E-03 1.64305E-23
1.47362E-03 1.49278E-23
1.54133E-03 1.35892E-23
1.61056E-03 1.23940E-23
1.68131E-03 1.13243E-23
1.75357E-03 1.03647E-23
1.82735E-03 9.50194E-24
1.90265E-03 8.72473E-24
1.97947E-03 8.02317E-24
2.05780E-03 7.38867E-24
2.13765E-03 6.81379E-24
2.21902E-03 6.29200E-24
2.30190E-03 5.81759E-24
2.38630E-03 5.38557E-24
2.47222E-03 4.99151E-24
2.55965E-03 4.63155E-24
2.64859E-03 4.30226E-24
2.73905E-03 4.00059E-24
2.83103E-03 3.72386E-24
2.92452E-03 3.46967E-24
3.01952E-03 3.23589E-24
3.11604E-03 3.02061E-24
3.21407E-03 2.82215E-24
3.31362E-03 2.63897E-24
3.41468E-03 2.46971E-24
3.51725E-03 2.31315E-24
3.62133E-03 2.16818E-24
3.72692E-03 2.03381E-24
3.83403E-03 1.90915E-24
3.94265E-03 1.79338E-24
4.05278E-03 1.68576E-24
4.16442E-03 1.58564E-24
4.27757E-03 1.49242E-24
4.39223E-03 1.40554E-24
4.50840E-03 1.32451E-24
4.62608E-03 1.24887E-24
4.74527E-03 1.17821E-24
4.86597E-03 1.11216E-24
4.98817E-03 1.05036E-24
5.11188E-03 9.92511E-25
5.23711E-03 9.38312E-25
5.36383E-03 8.87502E-25
5.49207E-03 8.39839E-25
5.62181E-03 7.95098E-25
5.75306E-03 7.53075E-25
5.88581E-03 7.13581E-25
6.02007E-03 6.76441E-25
6.15583E-03 6.41496E-25
6.29310E-03 6.08598E-25
6.43187E-03 5.77609E-25
6.57214E-03 5.48404E-25
6.71392E-03 5.20865E-25
6.85720E-03 4.94885E-25
7.00198E-03 4.70363E-25
7.14827E-03 4.47206E-25
7.29605E-03 4.25329E-25
7.44534E-03 4.04650E-25
7.59612E-03 3.85096E-25
7.97965E-03 3.40687E-25
8.37255E-03 3.01931E-25
8.77480E-03 2.68025E-25
9.18641E-03 2.38293E-25
9.60736E-03 2.12163E-25
1.00376E-02 1.89154E-25
1.04773E-02 1.68851E-25
1.09262E-02 1.50905E-25
1.13844E-02 1.35014E-25
1.18520E-02 1.20920E-25
1.23288E-02 1.08401E-25
1.28150E-02 9.72636E-26
1.33104E-02 8.73426E-26
1.38150E-02 7.84935E-26
1.43290E-02 7.05908E-26
1.48521E-02 6.35253E-26
1.53845E-02 5.72014E-26
1.59262E-02 5.15354E-26
1.64770E-02 4.64542E-26
1.70371E-02 4.18931E-26
1.76063E-02 3.77956E-26
1.81848E-02 3.41117E-26
1.87724E-02 3.07970E-26
1.93692E-02 2.78126E-26
1.99751E-02 2.51239E-26
2.05901E-02 2.27000E-26
2.12143E-02 2.05138E-26
2.18476E-02 1.85409E-26
2.24900E-02 1.67596E-26
2.31415E-02 1.51507E-26
2.38021E-02 1.36970E-26
2.44717E-02 1.23830E-26
2.51504E-02 1.11949E-26
2.58382E-02 1.01203E-26
2.65349E-02 9.14822E-27
2.72407E-02 8.26866E-27
2.79555E-02 7.47267E-27
2.86793E-02 6.75223E-27
2.94120E-02 6.10009E-27
3.01537E-02 5.50973E-27
3.09043E-02 4.97528E-27
3.16639E-02 4.49143E-27
3.24324E-02 4.05342E-27
3.32098E-02 3.65691E-27
3.39961E-02 3.29800E-27
3.47912E-02 2.97317E-27
3.55952E-02 2.67922E-27
3.64081E-02 2.41326E-27
3.72297E-02 2.17268E-27
3.80602E-02 1.95510E-27
3.88995E-02 1.75838E-27
3.97476E-02 1.58057E-27
4.06044E-02 1.41990E-27
4.14700E-02 1.27478E-27
4.23443E-02 1.14376E-27
4.32273E-02 1.02550E-27
4.41190E-02 9.18823E-28
4.50194E-02 8.22637E-28
4.59284E-02 7.35955E-28
4.68461E-02 6.57882E-28
4.87074E-02 5.24386E-28
5.06030E-02 4.16501E-28
5.25328E-02 3.29567E-28
5.44967E-02 2.59746E-28
5.64946E-02 2.03871E-28
5.85262E-02 1.59339E-28
6.05914E-02 1.24005E-28
6.26901E-02 9.61095E-29
6.48222E-02 7.42075E-29
6.69873E-02 5.71169E-29
6.91854E-02 4.38715E-29
7.14163E-02 3.36843E-29
7.36799E-02 2.59156E-29
7.59760E-02 2.00473E-29
7.83043E-02 1.56615E-29
8.06647E-02 1.24225E-29
8.30571E-02 1.00618E-29
8.54812E-02 8.36619E-30
8.79369E-02 7.16708E-30
9.04240E-02 6.33247E-30
9.29422E-02 5.75978E-30
9.54915E-02 5.37013E-30
9.80716E-02 5.10370E-30
1.00682E-01 4.91573E-30
1.03323E-01 4.77348E-30
1.05995E-01 4.65352E-30
1.08696E-01 4.53975E-30
1.11427E-01 4.42159E-30
1.14188E-01 4.29271E-30
1.16978E-01 4.14990E-30
1.19797E-01 3.99219E-30
1.22645E-01 3.82022E-30
1.25522E-01 3.63565E-30
1.28428E-01 3.44081E-30
1.31361E-01 3.23837E-30
1.34323E-01 3.03110E-30
1.37313E-01 2.82173E-30
1.40330E-01 2.61282E-30
1.43375E-01 2.40669E-30
1.46447E-01 2.20538E-30
1.49545E-01 2.01061E-30
1.52671E-01 1.82382E-30
1.55823E-01 1.64612E-30
1.59001E-01 1.47835E-30
1.62205E-01 1.32110E-30
1.65435E-01 1.17469E-30
1.68690E-01 1.03928E-30
1.71970E-01 9.14816E-31
1.75276E-01 8.01116E-31
1.78606E-01 6.97864E-31
1.81961E-01 6.04650E-31
1.85340E-01 5.20986E-31
1.88743E-01 4.46329E-31
1.92169E-01 3.80099E-31
1.95619E-01 3.21692E-31
1.99092E-01 2.70495E-31
2.02589E-01 2.25898E-31
2.06107E-01 1.87302E-31
2.09649E-01 1.54126E-31
2.13212E-01 1.25814E-31
2.16797E-01 1.01838E-31
2.20404E-01 8.17023E-32
2.24032E-01 6.49464E-32
2.27680E-01 5.11429E-32
2.31350E-01 3.99009E-32
2.35040E-01 3.08639E-32
2.38751E-01 2.37100E-32
2.42481E-01 1.81501E-32
2.46231E-01 1.39264E-32
2.50000E-01 1.08109E-32
2.53788E-01 8.60316E-33
2.57595E-01 7.12837E-33
2.61421E-01 6.23531E-33
2.65264E-01 5.79424E-33
2.69126E-01 5.69486E-33
2.73005E-01 5.84434E-33
2.76901E-01 6.16547E-33
2.80814E-01 6.59479E-33
2.84744E-01 7.08101E-33
2.88691E-01 7.58337E-33
2.92653E-01 8.07027E-33
2.96632E-01 8.51792E-33
3.00625E-01 8.90917E-33
3.04634E-01 9.23243E-33
3.08658E-01 9.48073E-33
3.12697E-01 9.65085E-33
3.16749E-01 9.74262E-33
3.20816E-01 9.75823E-33
3.24896E-01 9.70166E-33
3.28990E-01 9.57827E-33
3.33097E-01 9.39430E-33
3.37216E-01 9.15659E-33
3.41348E-01 8.87229E-33
3.45492E-01 8.54861E-33
3.49647E-01 8.19264E-33
3.53814E-01 7.81121E-33
3.57992E-01 7.41080E-33
3.62181E-01 6.99743E-33
3.66381E-01 6.57660E-33
3.70590E-01 6.15331E-33
3.74810E-01 5.73198E-33
3.79039E-01 5.31651E-33
3.83277E-01 4.91022E-33
3.87524E-01 4.51595E-33
3.91780E-01 4.13603E-33
3.96044E-01 3.77231E-33
4.00316E-01 3.42626E-33
4.04596E-01 3.09892E-33
4.08882E-01 2.79099E-33
4.13176E-01 2.50288E-33
4.17476E-01 2.23470E-33
4.21783E-01 1.98633E-33
4.26095E-01 1.75745E-33
4.30413E-01 1.54756E-33
4.34737E-01 1.35604E-33
4.39065E-01 1.18214E-33
4.43398E-01 1.02502E-33
4.47736E-01 8.83782E-34
4.52077E-01 7.57484E-34
4.56422E-01 6.45156E-34
4.60770E-01 5.45814E-34
4.65122E-01 4.58477E-34
4.69476E-01 3.82182E-34
4.73832E-01 3.15983E-34
4.78190E-01 2.58967E-34
4.82550E-01 2.10258E-34
4.86912E-01 1.69022E-34
4.91274E-01 1.34471E-34
4.95637E-01 1.05860E-34
5.00000E-01 8.24999E-35
5.04363E-01 6.37459E-35
5.08726E-01 4.90056E-35
5.13088E-01 3.77347E-35
5.17450E-01 2.94356E-35
5.21810E-01 2.36590E-35
5.26168E-01 1.99980E-35
5.30524E-01 1.80886E-35
5.34878E-01 1.76062E-35
5.39230E-01 1.82634E-35
5.43578E-01 1.98078E-35
5.47923E-01 2.20190E-35
5.52264E-01 2.47064E-35
5.56602E-01 2.77062E-35
5.60935E-01 3.08798E-35
5.65263E-01 3.41105E-35
5.69587E-01 3.73022E-35
5.73905E-01 4.03762E-35
5.78217E-01 4.32705E-35
5.82524E-01 4.59365E-35
5.86824E-01 4.83385E-35
5.91118E-01 5.04510E-35
5.95404E-01 5.22584E-35
5.99684E-01 5.37529E-35
6.03956E-01 5.49325E-35
6.08220E-01 5.58021E-35
6.12476E-01 5.63697E-35
6.16723E-01 5.66485E-35
6.20961E-01 5.66530E-35
6.25190E-01 5.64012E-35
6.29410E-01 5.59121E-35
6.33619E-01 5.52053E-35
6.37819E-01 5.43017E-35
6.42008E-01 5.32222E-35
6.46186E-01 5.19874E-35
6.50353E-01 5.06174E-35
6.54508E-01 4.91319E-35
6.58652E-01 4.75497E-35
6.62784E-01 4.58889E-35
6.66903E-01 4.41661E-35
6.71010E-01 4.23973E-35
6.75104E-01 4.05968E-35
6.79184E-01 3.87784E-35
6.83251E-01 3.69542E-35
6.87303E-01 3.51352E-35
6.91342E-01 3.33308E-35
6.95366E-01 3.15508E-35
6.99375E-01 2.98022E-35
7.03368E-01 2.80918E-35
7.07347E-01 2.64255E-35
7.11309E-01 2.48082E-35
7.15256E-01 2.32436E-35
7.19186E-01 2.17351E-35
7.23099E-01 2.02853E-35
7.26995E-01 1.88953E-35
7.30874E-01 1.75672E-35
7.34736E-01 1.63014E-35
7.38579E-01 1.50980E-35
7.42405E-01 1.39569E-35
7.46212E-01 1.28774E-35
7.50000E-01 1.18587E-35
7.53769E-01 1.08993E-35
7.57519E-01 9.99818E-36
7.61249E-01 9.15369E-36
7.64960E-01 8.36361E-36
7.68650E-01 7.62619E-36
7.72320E-01 6.93956E-36
7.75968E-01 6.30136E-36
7.79596E-01 5.70956E-36
7.83203E-01 5.16181E-36
7.86788E-01 4.65597E-36
7.90351E-01 4.18989E-36
7.93893E-01 3.76118E-36
7.97411E-01 3.36815E-36
8.00908E-01 3.00813E-36
8.04381E-01 2.67932E-36
8.07831E-01 2.37967E-36
8.11257E-01 2.10730E-36
8.14660E-01 1.86029E-36
8.18039E-01 1.63679E-36
8.21394E-01 1.43516E-36
8.24724E-01 1.25369E-36
8.28030E-01 1.09097E-36
8.31310E-01 9.45380E-37
8.34565E-01 8.15558E-37
8.37795E-01 7.00181E-37
8.40999E-01 5.98133E-37
8.44177E-01 5.08024E-37
8.47329E-01 4.28914E-37
8.50455E-01 3.59810E-37
8.53553E-01 2.99720E-37
8.56625E-01 2.47772E-37
8.59670E-01 2.03128E-37
8.62687E-01 1.65060E-37
8.65677E-01 1.32833E-37
8.68639E-01 1.05873E-37
8.71572E-01 8.35291E-38
8.74478E-01 6.53293E-38
8.77355E-01 5.07238E-38
8.80203E-01 3.92887E-38
8.83022E-01 3.05882E-38
8.85812E-01 2.42785E-38
8.88573E-01 2.00202E-38
8.91304E-01 1.75016E-38
8.94005E-01 1.64533E-38
8.96677E-01 1.66270E-38
8.99318E-01 1.78152E-38
9.01928E-01 1.98097E-38
9.04508E-01 2.24513E-38
9.07058E-01 2.55811E-38
9.09576E-01 2.90696E-38
9.12063E-01 3.27975E-38
9.14519E-01 3.66664E-38
9.16943E-01 4.05891E-38
9.19335E-01 4.44905E-38
9.21696E-01 4.83024E-38
9.24024E-01 5.19844E-38
9.26320E-01 5.54790E-38
9.28584E-01 5.87719E-38
9.30815E-01 6.18016E-38
9.33013E-01 6.45905E-38
9.35178E-01 6.70858E-38
9.37310E-01 6.93044E-38
9.39409E-01 7.12197E-38
9.41474E-01 7.28238E-38
9.43505E-01 7.41539E-38
9.45503E-01 7.51735E-38
9.47467E-01 7.59100E-38
9.49397E-01 7.63748E-38
9.51293E-01 7.65706E-38
9.53154E-01 7.65134E-38
9.54981E-01 7.61956E-38
9.56773E-01 7.56684E-38
9.58530E-01 7.49143E-38
9.60252E-01 7.39468E-38
9.61940E-01 7.27961E-38
9.63592E-01 7.14740E-38
9.65209E-01 6.99783E-38
9.66790E-01 6.83454E-38
9.68336E-01 6.65621E-38
9.69846E-01 6.46961E-38
9.71321E-01 6.26928E-38
9.72759E-01 6.06299E-38
9.74162E-01 5.84549E-38
9.75528E-01 5.62580E-38
9.76858E-01 5.39793E-38
9.78152E-01 5.16756E-38
9.79410E-01 4.93304E-38
9.80631E-01 4.69789E-38
9.81815E-01 4.45922E-38
9.82963E-01 4.22398E-38
9.84074E-01 3.98669E-38
9.85148E-01 3.75350E-38
9.86185E-01 3.52262E-38
9.87185E-01 3.29552E-38
9.88148E-01 3.06876E-38
9.89074E-01 2.85120E-38
9.89962E-01 2.63606E-38
9.90814E-01 2.42855E-38
9.91627E-01 2.22680E-38
9.92404E-01 2.03045E-38
9.93143E-01 1.84352E-38
9.93844E-01 1.66380E-38
9.94508E-01 1.49054E-38
9.95134E-01 1.32689E-38
9.95722E-01 1.17118E-38
9.96273E-01 1.02468E-38
9.96786E-01 8.85196E-39
9.97261E-01 7.56706E-39
9.97698E-01 6.38438E-39
9.98097E-01 5.29463E-39
9.98459E-01 4.29297E-39
9.98782E-01 3.39470E-39
9.99067E-01 2.60646E-39
9.99315E-01 1.91392E-39
9.99524E-01 1.34097E-39
9.99695E-01 8.60670E-40
9.99829E-01 4.88648E-40
9.99924E-01 2.20487E-40
9.99981E-01 5.98046E-41
1.00000E+00 4.67422E-42
