 #
 # Subroutine ELSEPA. Elastic scattering of electrons and positrons
 #                    by neutral atoms and positive ions
 #
 # Projectile: positron
 # Kinetic energy = 7.00000E+06 eV = 2.57245E+05 a.u.
 #
 # WARNING: High-energy factorization with free-atom DF screening.
 #          Absorption, polarization and exchange corrections are
 #          switched off.
 #          Phase shifts are calculated for the bare nucleus.
 #          Scattering amplitudes are not evaluated.
 #
 # Element: Cu,  Z =  29,  atomic weight = 6.35460E+01 g/mol
 #
 # Nuclear model: Fermi distribution
 #                Average radius = 4.26986E-13 cm
 #                Skin thickness = 5.46000E-14 cm
 #
 # Number of electrons = 29
 #
 # Total elastic cross section = 1.84741E-18 cm**2 = 6.59724E-02 a0**2
 # 1st transport cross section = 2.20304E-23 cm**2 = 7.86719E-07 a0**2
 # 2nd transport cross section = 6.36097E-23 cm**2 = 2.27154E-06 a0**2
 #
 #
 # Differential cross section:                       MU=(1-COS(THETA))/2
 #
 #  THETA        MU          DCS          DCS        Sherman      error
 #  (deg)                 (cm**2/sr)   (a0**2/sr)    function
 #----------------------------------------------------------------------
0.00000E+00 6.67897E-13
7.61557E-13 6.67887E-13
1.18994E-12 6.67882E-13
1.71346E-12 6.67875E-13
2.33225E-12 6.67868E-13
3.04617E-12 6.67859E-13
3.85530E-12 6.67849E-13
4.75964E-12 6.67838E-13
5.75917E-12 6.67826E-13
6.85391E-12 6.67813E-13
8.04379E-12 6.67799E-13
9.32893E-12 6.67783E-13
1.07092E-11 6.67766E-13
1.21847E-11 6.67749E-13
1.37554E-11 6.67730E-13
1.54213E-11 6.67710E-13
1.71823E-11 6.67688E-13
1.90386E-11 6.67666E-13
2.09900E-11 6.67643E-13
2.30367E-11 6.67618E-13
2.51785E-11 6.67592E-13
2.74156E-11 6.67566E-13
2.97478E-11 6.67538E-13
3.21752E-11 6.67508E-13
3.46979E-11 6.67478E-13
3.73157E-11 6.67447E-13
4.00286E-11 6.67414E-13
4.28368E-11 6.67381E-13
4.57402E-11 6.67346E-13
4.87388E-11 6.67310E-13
5.18325E-11 6.67273E-13
5.50215E-11 6.67235E-13
5.83057E-11 6.67196E-13
6.16850E-11 6.67155E-13
6.51595E-11 6.67114E-13
6.87293E-11 6.67071E-13
7.23943E-11 6.67027E-13
7.61544E-11 6.66982E-13
1.18991E-10 6.66471E-13
1.71347E-10 6.65848E-13
2.33223E-10 6.65113E-13
3.04617E-10 6.64267E-13
3.85531E-10 6.63312E-13
4.75965E-10 6.62247E-13
5.75917E-10 6.61074E-13
6.85389E-10 6.59794E-13
8.04380E-10 6.58408E-13
9.32891E-10 6.56918E-13
1.07092E-09 6.55324E-13
1.21847E-09 6.53629E-13
1.37554E-09 6.51834E-13
1.54213E-09 6.49940E-13
1.71823E-09 6.47949E-13
1.90386E-09 6.45864E-13
2.09900E-09 6.43685E-13
2.30367E-09 6.41415E-13
2.51785E-09 6.39056E-13
2.74156E-09 6.36610E-13
2.97478E-09 6.34079E-13
3.21752E-09 6.31464E-13
3.46978E-09 6.28769E-13
3.73156E-09 6.25996E-13
4.00286E-09 6.23146E-13
4.28368E-09 6.20209E-13
4.57402E-09 6.17199E-13
4.87388E-09 6.14125E-13
5.18326E-09 6.10991E-13
5.50215E-09 6.07798E-13
5.83057E-09 6.04550E-13
6.16850E-09 6.01250E-13
6.51596E-09 5.97880E-13
6.87293E-09 5.94429E-13
7.23942E-09 5.90934E-13
7.61544E-09 5.87398E-13
1.18991E-08 5.49914E-13
1.71347E-08 5.09993E-13
2.33223E-08 4.69619E-13
3.04617E-08 4.30401E-13
3.85531E-08 3.93183E-13
4.75965E-08 3.58690E-13
5.75917E-08 3.27198E-13
6.85389E-08 2.98571E-13
8.04380E-08 2.72850E-13
9.32891E-08 2.49763E-13
1.07092E-07 2.29011E-13
1.21847E-07 2.10437E-13
1.37554E-07 1.93714E-13
1.54213E-07 1.78645E-13
1.71823E-07 1.65075E-13
1.90386E-07 1.52734E-13
2.09900E-07 1.41547E-13
2.30367E-07 1.31380E-13
2.51785E-07 1.22055E-13
2.74156E-07 1.13548E-13
2.97478E-07 1.05742E-13
3.21752E-07 9.85510E-14
3.46978E-07 9.19495E-14
3.73156E-07 8.58451E-14
4.00286E-07 8.02065E-14
4.28368E-07 7.45621E-14
4.57402E-07 6.93424E-14
4.87388E-07 6.46986E-14
5.18325E-07 6.05534E-14
5.50215E-07 5.68413E-14
5.83057E-07 5.35068E-14
6.16850E-07 5.05027E-14
6.51596E-07 4.75069E-14
6.87293E-07 4.43843E-14
7.23942E-07 4.15691E-14
7.61543E-07 3.90245E-14
1.18991E-06 2.16639E-14
1.71347E-06 1.24838E-14
2.33223E-06 7.50264E-15
3.04617E-06 4.72623E-15
3.85531E-06 3.10338E-15
4.75964E-06 2.12245E-15
5.75916E-06 1.50491E-15
6.85388E-06 1.10014E-15
8.04378E-06 8.25812E-16
9.32888E-06 6.33717E-16
1.07092E-05 4.95259E-16
1.21846E-05 3.93143E-16
1.37553E-05 3.16206E-16
1.54212E-05 2.57238E-16
1.71822E-05 2.11396E-16
1.90385E-05 1.75171E-16
2.09899E-05 1.46338E-16
2.30365E-05 1.23128E-16
2.51783E-05 1.04248E-16
2.74153E-05 8.88065E-17
2.97475E-05 7.60781E-17
3.21749E-05 6.55140E-17
3.46974E-05 5.67021E-17
3.73152E-05 4.93029E-17
4.00281E-05 4.30597E-17
4.28362E-05 3.77518E-17
4.57395E-05 3.32388E-17
4.87380E-05 2.93899E-17
5.18317E-05 2.60662E-17
5.50205E-05 2.31987E-17
5.83045E-05 2.07194E-17
6.16838E-05 1.85553E-17
6.51582E-05 1.66678E-17
6.87277E-05 1.50172E-17
7.23925E-05 1.35627E-17
7.61524E-05 1.22816E-17
9.21439E-05 8.45194E-18
1.09658E-04 6.00697E-18
1.28695E-04 4.38791E-18
1.49255E-04 3.28043E-18
1.71338E-04 2.50184E-18
1.94942E-04 1.94149E-18
2.20070E-04 1.52966E-18
2.46720E-04 1.22147E-18
2.74892E-04 9.87128E-19
3.04586E-04 8.06305E-19
3.35803E-04 6.65013E-19
3.68542E-04 5.53322E-19
4.02802E-04 4.64066E-19
4.38585E-04 3.92075E-19
4.75889E-04 3.33488E-19
5.14715E-04 2.85417E-19
5.55063E-04 2.45687E-19
5.96931E-04 2.12616E-19
6.40321E-04 1.84913E-19
6.85233E-04 1.61569E-19
7.31665E-04 1.41783E-19
7.79618E-04 1.24929E-19
8.29092E-04 1.10499E-19
8.80086E-04 9.80882E-20
9.32601E-04 8.73677E-20
9.86636E-04 7.80686E-20
1.04219E-03 6.99711E-20
1.09927E-03 6.28943E-20
1.15786E-03 5.66874E-20
1.21797E-03 5.12257E-20
1.27961E-03 4.64047E-20
1.34276E-03 4.21360E-20
1.40743E-03 3.83459E-20
1.47362E-03 3.49714E-20
1.54133E-03 3.19591E-20
1.61056E-03 2.92635E-20
1.68131E-03 2.68454E-20
1.75357E-03 2.46713E-20
1.82735E-03 2.27124E-20
1.90265E-03 2.09436E-20
1.97947E-03 1.93432E-20
2.05780E-03 1.78924E-20
2.13765E-03 1.65747E-20
2.21902E-03 1.53758E-20
2.30190E-03 1.42831E-20
2.38630E-03 1.32855E-20
2.47222E-03 1.23733E-20
2.55965E-03 1.15378E-20
2.64859E-03 1.07715E-20
2.73905E-03 1.00675E-20
2.83103E-03 9.42000E-21
2.92452E-03 8.82356E-21
3.01952E-03 8.27347E-21
3.11604E-03 7.76545E-21
3.21407E-03 7.29572E-21
3.31362E-03 6.86087E-21
3.41468E-03 6.45785E-21
3.51725E-03 6.08391E-21
3.62133E-03 5.73656E-21
3.72692E-03 5.41357E-21
3.83403E-03 5.11294E-21
3.94265E-03 4.83281E-21
4.05278E-03 4.57156E-21
4.16442E-03 4.32766E-21
4.27757E-03 4.09977E-21
4.39223E-03 3.88662E-21
4.50840E-03 3.68712E-21
4.62608E-03 3.50020E-21
4.74527E-03 3.32494E-21
4.86597E-03 3.16048E-21
4.98817E-03 3.00603E-21
5.11188E-03 2.86087E-21
5.23711E-03 2.72433E-21
5.36383E-03 2.59582E-21
5.49207E-03 2.47477E-21
5.62181E-03 2.36067E-21
5.75306E-03 2.25304E-21
5.88581E-03 2.15146E-21
6.02007E-03 2.05552E-21
6.15583E-03 1.96484E-21
6.29310E-03 1.87910E-21
6.43187E-03 1.79796E-21
6.57214E-03 1.72114E-21
6.71392E-03 1.64836E-21
6.85720E-03 1.57937E-21
7.00198E-03 1.51395E-21
7.14827E-03 1.45186E-21
7.29605E-03 1.39291E-21
7.44534E-03 1.33691E-21
7.59612E-03 1.28368E-21
7.97965E-03 1.16171E-21
8.37255E-03 1.05384E-21
8.77480E-03 9.58149E-22
9.18641E-03 8.73036E-22
9.60736E-03 7.97128E-22
1.00376E-02 7.29260E-22
1.04773E-02 6.68432E-22
1.09262E-02 6.13789E-22
1.13844E-02 5.64592E-22
1.18520E-02 5.20204E-22
1.23288E-02 4.80073E-22
1.28150E-02 4.43721E-22
1.33104E-02 4.10728E-22
1.38150E-02 3.80730E-22
1.43290E-02 3.53408E-22
1.48521E-02 3.28481E-22
1.53845E-02 3.05702E-22
1.59262E-02 2.84853E-22
1.64770E-02 2.65742E-22
1.70371E-02 2.48198E-22
1.76063E-02 2.32070E-22
1.81848E-02 2.17224E-22
1.87724E-02 2.03539E-22
1.93692E-02 1.90909E-22
1.99751E-02 1.79237E-22
2.05901E-02 1.68439E-22
2.12143E-02 1.58436E-22
2.18476E-02 1.49160E-22
2.24900E-02 1.40549E-22
2.31415E-02 1.32547E-22
2.38021E-02 1.25102E-22
2.44717E-02 1.18169E-22
2.51504E-02 1.11707E-22
2.58382E-02 1.05677E-22
2.65349E-02 1.00046E-22
2.72407E-02 9.47818E-23
2.79555E-02 8.98572E-23
2.86793E-02 8.52460E-23
2.94120E-02 8.09245E-23
3.01537E-02 7.68714E-23
3.09043E-02 7.30670E-23
3.16639E-02 6.94932E-23
3.24324E-02 6.61335E-23
3.32098E-02 6.29728E-23
3.39961E-02 5.99971E-23
3.47912E-02 5.71937E-23
3.55952E-02 5.45508E-23
3.64081E-02 5.20575E-23
3.72297E-02 4.97038E-23
3.80602E-02 4.74805E-23
3.88995E-02 4.53791E-23
3.97476E-02 4.33915E-23
4.06044E-02 4.15107E-23
4.14700E-02 3.97297E-23
4.23443E-02 3.80423E-23
4.32273E-02 3.64428E-23
4.41190E-02 3.49256E-23
4.50194E-02 3.34858E-23
4.59284E-02 3.21188E-23
4.68461E-02 3.08201E-23
4.87074E-02 2.84119E-23
5.06030E-02 2.62321E-23
5.25328E-02 2.42554E-23
5.44967E-02 2.24595E-23
5.64946E-02 2.08251E-23
5.85262E-02 1.93352E-23
6.05914E-02 1.79747E-23
6.26901E-02 1.67304E-23
6.48222E-02 1.55908E-23
6.69873E-02 1.45454E-23
6.91854E-02 1.35852E-23
7.14163E-02 1.27019E-23
7.36799E-02 1.18884E-23
7.59760E-02 1.11382E-23
7.83043E-02 1.04454E-23
8.06647E-02 9.80500E-24
8.30571E-02 9.21224E-24
8.54812E-02 8.66299E-24
8.79369E-02 8.15349E-24
9.04240E-02 7.68037E-24
9.29422E-02 7.24057E-24
9.54915E-02 6.83132E-24
9.80716E-02 6.45014E-24
1.00682E-01 6.09477E-24
1.03323E-01 5.76314E-24
1.05995E-01 5.45341E-24
1.08696E-01 5.16385E-24
1.11427E-01 4.89293E-24
1.14188E-01 4.63924E-24
1.16978E-01 4.40149E-24
1.19797E-01 4.17851E-24
1.22645E-01 3.96920E-24
1.25522E-01 3.77259E-24
1.28428E-01 3.58778E-24
1.31361E-01 3.41392E-24
1.34323E-01 3.25026E-24
1.37313E-01 3.09609E-24
1.40330E-01 2.95077E-24
1.43375E-01 2.81369E-24
1.46447E-01 2.68431E-24
1.49545E-01 2.56212E-24
1.52671E-01 2.44664E-24
1.55823E-01 2.33745E-24
1.59001E-01 2.23415E-24
1.62205E-01 2.13635E-24
1.65435E-01 2.04372E-24
1.68690E-01 1.95593E-24
1.71970E-01 1.87269E-24
1.75276E-01 1.79371E-24
1.78606E-01 1.71875E-24
1.81961E-01 1.64756E-24
1.85340E-01 1.57992E-24
1.88743E-01 1.51562E-24
1.92169E-01 1.45446E-24
1.95619E-01 1.39627E-24
1.99092E-01 1.34088E-24
2.02589E-01 1.28812E-24
2.06107E-01 1.23786E-24
2.09649E-01 1.18995E-24
2.13212E-01 1.14426E-24
2.16797E-01 1.10068E-24
2.20404E-01 1.05908E-24
2.24032E-01 1.01936E-24
2.27680E-01 9.81431E-25
2.31350E-01 9.45186E-25
2.35040E-01 9.10540E-25
2.38751E-01 8.77411E-25
2.42481E-01 8.45721E-25
2.46231E-01 8.15396E-25
2.50000E-01 7.86368E-25
2.53788E-01 7.58570E-25
2.57595E-01 7.31943E-25
2.61421E-01 7.06428E-25
2.65264E-01 6.81970E-25
2.69126E-01 6.58518E-25
2.73005E-01 6.36024E-25
2.76901E-01 6.14442E-25
2.80814E-01 5.93728E-25
2.84744E-01 5.73842E-25
2.88691E-01 5.54743E-25
2.92653E-01 5.36397E-25
2.96632E-01 5.18768E-25
3.00625E-01 5.01824E-25
3.04634E-01 4.85532E-25
3.08658E-01 4.69865E-25
3.12697E-01 4.54792E-25
3.16749E-01 4.40289E-25
3.20816E-01 4.26330E-25
3.24896E-01 4.12891E-25
3.28990E-01 3.99950E-25
3.33097E-01 3.87484E-25
3.37216E-01 3.75473E-25
3.41348E-01 3.63898E-25
3.45492E-01 3.52741E-25
3.49647E-01 3.41983E-25
3.53814E-01 3.31609E-25
3.57992E-01 3.21601E-25
3.62181E-01 3.11945E-25
3.66381E-01 3.02626E-25
3.70590E-01 2.93631E-25
3.74810E-01 2.84947E-25
3.79039E-01 2.76560E-25
3.83277E-01 2.68459E-25
3.87524E-01 2.60633E-25
3.91780E-01 2.53070E-25
3.96044E-01 2.45761E-25
4.00316E-01 2.38695E-25
4.04596E-01 2.31863E-25
4.08882E-01 2.25257E-25
4.13176E-01 2.18866E-25
4.17476E-01 2.12683E-25
4.21783E-01 2.06700E-25
4.26095E-01 2.00910E-25
4.30413E-01 1.95306E-25
4.34737E-01 1.89879E-25
4.39065E-01 1.84625E-25
4.43398E-01 1.79535E-25
4.47736E-01 1.74606E-25
4.52077E-01 1.69829E-25
4.56422E-01 1.65201E-25
4.60770E-01 1.60716E-25
4.65122E-01 1.56368E-25
4.69476E-01 1.52152E-25
4.73832E-01 1.48065E-25
4.78190E-01 1.44101E-25
4.82550E-01 1.40256E-25
4.86912E-01 1.36526E-25
4.91274E-01 1.32907E-25
4.95637E-01 1.29395E-25
5.00000E-01 1.25986E-25
5.04363E-01 1.22677E-25
5.08726E-01 1.19465E-25
5.13088E-01 1.16346E-25
5.17450E-01 1.13317E-25
5.21810E-01 1.10375E-25
5.26168E-01 1.07518E-25
5.30524E-01 1.04742E-25
5.34878E-01 1.02044E-25
5.39230E-01 9.94226E-26
5.43578E-01 9.68748E-26
5.47923E-01 9.43982E-26
5.52264E-01 9.19906E-26
5.56602E-01 8.96498E-26
5.60935E-01 8.73735E-26
5.65263E-01 8.51597E-26
5.69587E-01 8.30065E-26
5.73905E-01 8.09120E-26
5.78217E-01 7.88742E-26
5.82524E-01 7.68915E-26
5.86824E-01 7.49620E-26
5.91118E-01 7.30843E-26
5.95404E-01 7.12566E-26
5.99684E-01 6.94775E-26
6.03956E-01 6.77454E-26
6.08220E-01 6.60589E-26
6.12476E-01 6.44167E-26
6.16723E-01 6.28175E-26
6.20961E-01 6.12598E-26
6.25190E-01 5.97426E-26
6.29410E-01 5.82645E-26
6.33619E-01 5.68245E-26
6.37819E-01 5.54213E-26
6.42008E-01 5.40541E-26
6.46186E-01 5.27216E-26
6.50353E-01 5.14229E-26
6.54508E-01 5.01570E-26
6.58652E-01 4.89229E-26
6.62784E-01 4.77199E-26
6.66903E-01 4.65468E-26
6.71010E-01 4.54030E-26
6.75104E-01 4.42876E-26
6.79184E-01 4.31998E-26
6.83251E-01 4.21388E-26
6.87303E-01 4.11039E-26
6.91342E-01 4.00943E-26
6.95366E-01 3.91093E-26
6.99375E-01 3.81484E-26
7.03368E-01 3.72107E-26
7.07347E-01 3.62957E-26
7.11309E-01 3.54028E-26
7.15256E-01 3.45313E-26
7.19186E-01 3.36807E-26
7.23099E-01 3.28505E-26
7.26995E-01 3.20400E-26
7.30874E-01 3.12488E-26
7.34736E-01 3.04763E-26
7.38579E-01 2.97221E-26
7.42405E-01 2.89857E-26
7.46212E-01 2.82665E-26
7.50000E-01 2.75643E-26
7.53769E-01 2.68784E-26
7.57519E-01 2.62085E-26
7.61249E-01 2.55543E-26
7.64960E-01 2.49152E-26
7.68650E-01 2.42909E-26
7.72320E-01 2.36811E-26
7.75968E-01 2.30853E-26
7.79596E-01 2.25032E-26
7.83203E-01 2.19345E-26
7.86788E-01 2.13788E-26
7.90351E-01 2.08359E-26
7.93893E-01 2.03053E-26
7.97411E-01 1.97868E-26
8.00908E-01 1.92802E-26
8.04381E-01 1.87850E-26
8.07831E-01 1.83011E-26
8.11257E-01 1.78281E-26
8.14660E-01 1.73658E-26
8.18039E-01 1.69140E-26
8.21394E-01 1.64724E-26
8.24724E-01 1.60407E-26
8.28030E-01 1.56187E-26
8.31310E-01 1.52063E-26
8.34565E-01 1.48031E-26
8.37795E-01 1.44089E-26
8.40999E-01 1.40236E-26
8.44177E-01 1.36469E-26
8.47329E-01 1.32787E-26
8.50455E-01 1.29187E-26
8.53553E-01 1.25668E-26
8.56625E-01 1.22228E-26
8.59670E-01 1.18865E-26
8.62687E-01 1.15577E-26
8.65677E-01 1.12363E-26
8.68639E-01 1.09221E-26
8.71572E-01 1.06150E-26
8.74478E-01 1.03147E-26
8.77355E-01 1.00212E-26
8.80203E-01 9.73428E-27
8.83022E-01 9.45382E-27
8.85812E-01 9.17969E-27
8.88573E-01 8.91175E-27
8.91304E-01 8.64987E-27
8.94005E-01 8.39391E-27
8.96677E-01 8.14377E-27
8.99318E-01 7.89932E-27
9.01928E-01 7.66044E-27
9.04508E-01 7.42703E-27
9.07058E-01 7.19896E-27
9.09576E-01 6.97614E-27
9.12063E-01 6.75846E-27
9.14519E-01 6.54581E-27
9.16943E-01 6.33811E-27
9.19335E-01 6.13525E-27
9.21696E-01 5.93715E-27
9.24024E-01 5.74370E-27
9.26320E-01 5.55483E-27
9.28584E-01 5.37044E-27
9.30815E-01 5.19046E-27
9.33013E-01 5.01480E-27
9.35178E-01 4.84339E-27
9.37310E-01 4.67614E-27
9.39409E-01 4.51299E-27
9.41474E-01 4.35386E-27
9.43505E-01 4.19868E-27
9.45503E-01 4.04739E-27
9.47467E-01 3.89991E-27
9.49397E-01 3.75618E-27
9.51293E-01 3.61615E-27
9.53154E-01 3.47974E-27
9.54981E-01 3.34690E-27
9.56773E-01 3.21758E-27
9.58530E-01 3.09171E-27
9.60252E-01 2.96925E-27
9.61940E-01 2.85014E-27
9.63592E-01 2.73433E-27
9.65209E-01 2.62178E-27
9.66790E-01 2.51243E-27
9.68336E-01 2.40623E-27
9.69846E-01 2.30315E-27
9.71321E-01 2.20314E-27
9.72759E-01 2.10616E-27
9.74162E-01 2.01217E-27
9.75528E-01 1.92113E-27
9.76858E-01 1.83300E-27
9.78152E-01 1.74774E-27
9.79410E-01 1.66533E-27
9.80631E-01 1.58572E-27
9.81815E-01 1.50888E-27
9.82963E-01 1.43478E-27
9.84074E-01 1.36340E-27
9.85148E-01 1.29470E-27
9.86185E-01 1.22865E-27
9.87185E-01 1.16523E-27
9.88148E-01 1.10441E-27
9.89074E-01 1.04617E-27
9.89962E-01 9.90483E-28
9.90814E-01 9.37326E-28
9.91627E-01 8.86679E-28
9.92404E-01 8.38521E-28
9.93143E-01 7.92833E-28
9.93844E-01 7.49595E-28
9.94508E-01 7.08793E-28
9.95134E-01 6.70407E-28
9.95722E-01 6.34425E-28
9.96273E-01 6.00830E-28
9.96786E-01 5.69609E-28
9.97261E-01 5.40752E-28
9.97698E-01 5.14244E-28
9.98097E-01 4.90077E-28
9.98459E-01 4.68240E-28
9.98782E-01 4.48725E-28
9.99067E-01 4.31524E-28
9.99315E-01 4.16631E-28
9.99524E-01 4.04038E-28
9.99695E-01 3.93742E-28
9.99829E-01 3.85738E-28
9.99924E-01 3.80024E-28
9.99981E-01 3.76596E-28
1.00000E+00 3.75453E-28
