 #
 # Subroutine ELSEPA. Elastic scattering of electrons and positrons
 #                    by neutral atoms and positive ions
 #
 # Projectile: positron
 # Kinetic energy = 4.00000E+08 eV = 1.46997E+07 a.u.
 #
 # WARNING: High-energy factorization with free-atom DF screening.
 #          Absorption, polarization and exchange corrections are
 #          switched off.
 #          Phase shifts are calculated for the bare nucleus.
 #          Scattering amplitudes are not evaluated.
 #
 # Element: Cu,  Z =  29,  atomic weight = 6.35460E+01 g/mol
 #
 # Nuclear model: Fermi distribution
 #                Average radius = 4.26986E-13 cm
 #                Skin thickness = 5.46000E-14 cm
 #
 # Number of electrons = 29
 #
 # Total elastic cross section = 1.83950E-18 cm**2 = 6.56896E-02 a0**2
 # 1st transport cross section = 1.07293E-26 cm**2 = 3.83149E-10 a0**2
 # 2nd transport cross section = 3.21635E-26 cm**2 = 1.14858E-09 a0**2
 #
 #
 # Differential cross section:                       MU=(1-COS(THETA))/2
 #
 #  THETA        MU          DCS          DCS        Sherman      error
 #  (deg)                 (cm**2/sr)   (a0**2/sr)    function
 #----------------------------------------------------------------------
0.00000E+00 1.89908E-09
7.61557E-13 1.82787E-09
1.18994E-12 1.79002E-09
1.71346E-12 1.74565E-09
2.33225E-12 1.69603E-09
3.04617E-12 1.64199E-09
3.85530E-12 1.58458E-09
4.75964E-12 1.52499E-09
5.75917E-12 1.46419E-09
6.85391E-12 1.40260E-09
8.04379E-12 1.34132E-09
9.32893E-12 1.28100E-09
1.07092E-11 1.22206E-09
1.21847E-11 1.16461E-09
1.37554E-11 1.10931E-09
1.54213E-11 1.05635E-09
1.71823E-11 1.00564E-09
1.90386E-11 9.57258E-10
2.09900E-11 9.11413E-10
2.30367E-11 8.68068E-10
2.51785E-11 8.26879E-10
2.74156E-11 7.87978E-10
2.97478E-11 7.51341E-10
3.21752E-11 7.16827E-10
3.46979E-11 6.84063E-10
3.73157E-11 6.53230E-10
4.00286E-11 6.24209E-10
4.28368E-11 5.96779E-10
4.57402E-11 5.70775E-10
4.87388E-11 5.46266E-10
5.18325E-11 5.23153E-10
5.50215E-11 5.01175E-10
5.83057E-11 4.80346E-10
6.16850E-11 4.60660E-10
6.51595E-11 4.42039E-10
6.87293E-11 4.24210E-10
7.23943E-11 4.07318E-10
7.61544E-11 3.91305E-10
1.18991E-10 2.66550E-10
1.71347E-10 1.83186E-10
2.33223E-10 1.31359E-10
3.04617E-10 9.43434E-11
3.85531E-10 6.85367E-11
4.75965E-10 5.06668E-11
5.75917E-10 3.79710E-11
6.85389E-10 2.86133E-11
8.04380E-10 2.18968E-11
9.32891E-10 1.69948E-11
1.07092E-09 1.33522E-11
1.21847E-09 1.06074E-11
1.37554E-09 8.53592E-12
1.54213E-09 6.94928E-12
1.71823E-09 5.71678E-12
1.90386E-09 4.74990E-12
2.09900E-09 3.98401E-12
2.30367E-09 3.37056E-12
2.51785E-09 2.87327E-12
2.74156E-09 2.46690E-12
2.97478E-09 2.13201E-12
3.21752E-09 1.85364E-12
3.46978E-09 1.61986E-12
3.73156E-09 1.42254E-12
4.00286E-09 1.25492E-12
4.28368E-09 1.11154E-12
4.57402E-09 9.88082E-13
4.87388E-09 8.81510E-13
5.18326E-09 7.89059E-13
5.50215E-09 7.08263E-13
5.83057E-09 6.37484E-13
6.16850E-09 5.75328E-13
6.51596E-09 5.20539E-13
6.87293E-09 4.71897E-13
7.23942E-09 4.28770E-13
7.61544E-09 3.90419E-13
1.18991E-08 1.68259E-13
1.71347E-08 8.31959E-14
2.33223E-08 4.55845E-14
3.04617E-08 2.70252E-14
3.85531E-08 1.70357E-14
4.75965E-08 1.12738E-14
5.75917E-08 7.75979E-15
6.85389E-08 5.51633E-15
8.04380E-08 4.02891E-15
9.32891E-08 3.01096E-15
1.07092E-07 2.29513E-15
1.21847E-07 1.77985E-15
1.37554E-07 1.40127E-15
1.54213E-07 1.11808E-15
1.71823E-07 9.02861E-16
1.90386E-07 7.36957E-16
2.09900E-07 6.07418E-16
2.30367E-07 5.05091E-16
2.51785E-07 4.23402E-16
2.74156E-07 3.57554E-16
2.97478E-07 3.04007E-16
3.21752E-07 2.60106E-16
3.46978E-07 2.23842E-16
3.73156E-07 1.93676E-16
4.00286E-07 1.68418E-16
4.28368E-07 1.47142E-16
4.57402E-07 1.29119E-16
4.87388E-07 1.13770E-16
5.18325E-07 1.00634E-16
5.50215E-07 8.93382E-17
5.83057E-07 7.95825E-17
6.16850E-07 7.11217E-17
6.51596E-07 6.37552E-17
6.87293E-07 5.73176E-17
7.23942E-07 5.16719E-17
7.61543E-07 4.67040E-17
1.18991E-06 1.91521E-17
1.71347E-06 9.24060E-18
2.33223E-06 4.98885E-18
3.04617E-06 2.92457E-18
3.85531E-06 1.82579E-18
4.75964E-06 1.19785E-18
5.75916E-06 8.18096E-19
6.85388E-06 5.77584E-19
8.04378E-06 4.19302E-19
9.32888E-06 3.11706E-19
1.07092E-05 2.36509E-19
1.21846E-05 1.82678E-19
1.37553E-05 1.43325E-19
1.54212E-05 1.14019E-19
1.71822E-05 9.18342E-20
1.90385E-05 7.47832E-20
2.09899E-05 6.15248E-20
2.30365E-05 5.10768E-20
2.51783E-05 4.27528E-20
2.74153E-05 3.60552E-20
2.97475E-05 3.06179E-20
3.21749E-05 2.61675E-20
3.46974E-05 2.24973E-20
3.73152E-05 1.94490E-20
4.00281E-05 1.69003E-20
4.28362E-05 1.47559E-20
4.57395E-05 1.29410E-20
4.87380E-05 1.13965E-20
5.18317E-05 1.00755E-20
5.50205E-05 8.94017E-21
5.83045E-05 7.96027E-21
6.16838E-05 7.11096E-21
6.51582E-05 6.37197E-21
6.87277E-05 5.72657E-21
7.23925E-05 5.16087E-21
7.61524E-05 4.65271E-21
9.21439E-05 3.17405E-21
1.09658E-04 2.23810E-21
1.28695E-04 1.62264E-21
1.49255E-04 1.20450E-21
1.71338E-04 9.12522E-22
1.94942E-04 7.03656E-22
2.20070E-04 5.51097E-22
2.46720E-04 4.37592E-22
2.74892E-04 3.51742E-22
3.04586E-04 2.85859E-22
3.35803E-04 2.34624E-22
3.68542E-04 1.94307E-22
4.02802E-04 1.62235E-22
4.38585E-04 1.36468E-22
4.75889E-04 1.15582E-22
5.14715E-04 9.85083E-23
5.55063E-04 8.44457E-23
5.96931E-04 7.27800E-23
6.40321E-04 6.30394E-23
6.85233E-04 5.48561E-23
7.31665E-04 4.79420E-23
7.79618E-04 4.20691E-23
8.29092E-04 3.70555E-23
8.80086E-04 3.27556E-23
9.32601E-04 2.90514E-23
9.86636E-04 2.58473E-23
1.04219E-03 2.30648E-23
1.09927E-03 2.06395E-23
1.15786E-03 1.85182E-23
1.21797E-03 1.66567E-23
1.27961E-03 1.50179E-23
1.34276E-03 1.35709E-23
1.40743E-03 1.22897E-23
1.47362E-03 1.11521E-23
1.54133E-03 1.01395E-23
1.61056E-03 9.23596E-24
1.68131E-03 8.42778E-24
1.75357E-03 7.70330E-24
1.82735E-03 7.05246E-24
1.90265E-03 6.46656E-24
1.97947E-03 5.93810E-24
2.05780E-03 5.46052E-24
2.13765E-03 5.02817E-24
2.21902E-03 4.63606E-24
2.30190E-03 4.27986E-24
2.38630E-03 3.95577E-24
2.47222E-03 3.66042E-24
2.55965E-03 3.39087E-24
2.64859E-03 3.14451E-24
2.73905E-03 2.91904E-24
2.83103E-03 2.71240E-24
2.92452E-03 2.52278E-24
3.01952E-03 2.34857E-24
3.11604E-03 2.18832E-24
3.21407E-03 2.04073E-24
3.31362E-03 1.90466E-24
3.41468E-03 1.77907E-24
3.51725E-03 1.66303E-24
3.62133E-03 1.55571E-24
3.72692E-03 1.45635E-24
3.83403E-03 1.36428E-24
3.94265E-03 1.27888E-24
4.05278E-03 1.19959E-24
4.16442E-03 1.12593E-24
4.27757E-03 1.05742E-24
4.39223E-03 9.93665E-25
4.50840E-03 9.34278E-25
4.62608E-03 8.78920E-25
4.74527E-03 8.27280E-25
4.86597E-03 7.79072E-25
4.98817E-03 7.34038E-25
5.11188E-03 6.91939E-25
5.23711E-03 6.52559E-25
5.36383E-03 6.15697E-25
5.49207E-03 5.81171E-25
5.62181E-03 5.48814E-25
5.75306E-03 5.18471E-25
5.88581E-03 4.90001E-25
6.02007E-03 4.63272E-25
6.15583E-03 4.38166E-25
6.29310E-03 4.14570E-25
6.43187E-03 3.92383E-25
6.57214E-03 3.71509E-25
6.71392E-03 3.51863E-25
6.85720E-03 3.33362E-25
7.00198E-03 3.15932E-25
7.14827E-03 2.99503E-25
7.29605E-03 2.84012E-25
7.44534E-03 2.69398E-25
7.59612E-03 2.55606E-25
7.97965E-03 2.24394E-25
8.37255E-03 1.97295E-25
8.77480E-03 1.73716E-25
9.18641E-03 1.53155E-25
9.60736E-03 1.35190E-25
1.00376E-02 1.19465E-25
1.04773E-02 1.05676E-25
1.09262E-02 9.35659E-26
1.13844E-02 8.29137E-26
1.18520E-02 7.35309E-26
1.23288E-02 6.52552E-26
1.28150E-02 5.79472E-26
1.33104E-02 5.14863E-26
1.38150E-02 4.57683E-26
1.43290E-02 4.07029E-26
1.48521E-02 3.62116E-26
1.53845E-02 3.22260E-26
1.59262E-02 2.86865E-26
1.64770E-02 2.55410E-26
1.70371E-02 2.27439E-26
1.76063E-02 2.02552E-26
1.81848E-02 1.80397E-26
1.87724E-02 1.60667E-26
1.93692E-02 1.43088E-26
1.99751E-02 1.27421E-26
2.05901E-02 1.13455E-26
2.12143E-02 1.01001E-26
2.18476E-02 8.98936E-27
2.24900E-02 7.99864E-27
2.31415E-02 7.11489E-27
2.38021E-02 6.32653E-27
2.44717E-02 5.62328E-27
2.51504E-02 4.99599E-27
2.58382E-02 4.43651E-27
2.65349E-02 3.93760E-27
2.72407E-02 3.49279E-27
2.79555E-02 3.09632E-27
2.86793E-02 2.74303E-27
2.94120E-02 2.42834E-27
3.01537E-02 2.14814E-27
3.09043E-02 1.89875E-27
3.16639E-02 1.67690E-27
3.24324E-02 1.47966E-27
3.32098E-02 1.30440E-27
3.39961E-02 1.14877E-27
3.47912E-02 1.01066E-27
3.55952E-02 8.88204E-28
3.64081E-02 7.79709E-28
3.72297E-02 6.83667E-28
3.80602E-02 5.98728E-28
3.88995E-02 5.23683E-28
3.97476E-02 4.57449E-28
4.06044E-02 3.99058E-28
4.14700E-02 3.47643E-28
4.23443E-02 3.02428E-28
4.32273E-02 2.62720E-28
4.41190E-02 2.27898E-28
4.50194E-02 1.97407E-28
4.59284E-02 1.70752E-28
4.68461E-02 1.47491E-28
4.87074E-02 1.09612E-28
5.06030E-02 8.10992E-29
5.25328E-02 5.98298E-29
5.44967E-02 4.41270E-29
5.64946E-02 3.26692E-29
5.85262E-02 2.44200E-29
6.05914E-02 1.85708E-29
6.26901E-02 1.44948E-29
6.48222E-02 1.17092E-29
6.69873E-02 9.84591E-30
6.91854E-02 8.62640E-30
7.14163E-02 7.84293E-30
7.36799E-02 7.34266E-30
7.59760E-02 7.01523E-30
7.83043E-02 6.78285E-30
8.06647E-02 6.59244E-30
8.30571E-02 6.40938E-30
8.54812E-02 6.21270E-30
8.79369E-02 5.99127E-30
9.04240E-02 5.74085E-30
9.29422E-02 5.46191E-30
9.54915E-02 5.15790E-30
9.80716E-02 4.83403E-30
1.00682E-01 4.49633E-30
1.03323E-01 4.15105E-30
1.05995E-01 3.80415E-30
1.08696E-01 3.46110E-30
1.11427E-01 3.12663E-30
1.14188E-01 2.80470E-30
1.16978E-01 2.49849E-30
1.19797E-01 2.21037E-30
1.22645E-01 1.94202E-30
1.25522E-01 1.69446E-30
1.28428E-01 1.46813E-30
1.31361E-01 1.26301E-30
1.34323E-01 1.07867E-30
1.37313E-01 9.14375E-31
1.40330E-01 7.69129E-31
1.43375E-01 6.41766E-31
1.46447E-01 5.30999E-31
1.49545E-01 4.35470E-31
1.52671E-01 3.53792E-31
1.55823E-01 2.84583E-31
1.59001E-01 2.26495E-31
1.62205E-01 1.78234E-31
1.65435E-01 1.38580E-31
1.68690E-01 1.06391E-31
1.71970E-01 8.06173E-32
1.75276E-01 6.03000E-32
1.78606E-01 4.45753E-32
1.81961E-01 3.26719E-32
1.85340E-01 2.39078E-32
1.88743E-01 1.76863E-32
1.92169E-01 1.34905E-32
1.95619E-01 1.08772E-32
1.99092E-01 9.47092E-33
2.02589E-01 8.95692E-33
2.06107E-01 9.07520E-33
2.09649E-01 9.61395E-33
2.13212E-01 1.04036E-32
2.16797E-01 1.13113E-32
2.20404E-01 1.22354E-32
2.24032E-01 1.31008E-32
2.27680E-01 1.38547E-32
2.31350E-01 1.44623E-32
2.35040E-01 1.49038E-32
2.38751E-01 1.51710E-32
2.42481E-01 1.52650E-32
2.46231E-01 1.51935E-32
2.50000E-01 1.49694E-32
2.53788E-01 1.46086E-32
2.57595E-01 1.41294E-32
2.61421E-01 1.35508E-32
2.65264E-01 1.28920E-32
2.69126E-01 1.21718E-32
2.73005E-01 1.14077E-32
2.76901E-01 1.06162E-32
2.80814E-01 9.81187E-33
2.84744E-01 9.00789E-33
2.88691E-01 8.21546E-33
2.92653E-01 7.44411E-33
2.96632E-01 6.70163E-33
3.00625E-01 5.99423E-33
3.04634E-01 5.32664E-33
3.08658E-01 4.70220E-33
3.12697E-01 4.12308E-33
3.16749E-01 3.59035E-33
3.20816E-01 3.10419E-33
3.24896E-01 2.66400E-33
3.28990E-01 2.26852E-33
3.33097E-01 1.91601E-33
3.37216E-01 1.60430E-33
3.41348E-01 1.33093E-33
3.45492E-01 1.09325E-33
3.49647E-01 8.88469E-34
3.53814E-01 7.13746E-34
3.57992E-01 5.66246E-34
3.62181E-01 4.43185E-34
3.66381E-01 3.41867E-34
3.70590E-01 2.59720E-34
3.74810E-01 1.94315E-34
3.79039E-01 1.43387E-34
3.83277E-01 1.04841E-34
3.87524E-01 7.67580E-35
3.91780E-01 5.74018E-35
3.96044E-01 4.52115E-35
4.00316E-01 3.87984E-35
4.04596E-01 3.69394E-35
4.08882E-01 3.85684E-35
4.13176E-01 4.27656E-35
4.17476E-01 4.87470E-35
4.21783E-01 5.58532E-35
4.26095E-01 6.35381E-35
4.30413E-01 7.13569E-35
4.34737E-01 7.89558E-35
4.39065E-01 8.60605E-35
4.43398E-01 9.24666E-35
4.47736E-01 9.80296E-35
4.52077E-01 1.02656E-34
4.56422E-01 1.06296E-34
4.60770E-01 1.08934E-34
4.65122E-01 1.10586E-34
4.69476E-01 1.11287E-34
4.73832E-01 1.11094E-34
4.78190E-01 1.10073E-34
4.82550E-01 1.08302E-34
4.86912E-01 1.05863E-34
4.91274E-01 1.02843E-34
4.95637E-01 9.93262E-35
5.00000E-01 9.53979E-35
5.04363E-01 9.11395E-35
5.08726E-01 8.66280E-35
5.13088E-01 8.19354E-35
5.17450E-01 7.71287E-35
5.21810E-01 7.22674E-35
5.26168E-01 6.74060E-35
5.30524E-01 6.25918E-35
5.34878E-01 5.78663E-35
5.39230E-01 5.32649E-35
5.43578E-01 4.88170E-35
5.47923E-01 4.45466E-35
5.52264E-01 4.04729E-35
5.56602E-01 3.66100E-35
5.60935E-01 3.29685E-35
5.65263E-01 2.95543E-35
5.69587E-01 2.63709E-35
5.73905E-01 2.34175E-35
5.78217E-01 2.06923E-35
5.82524E-01 1.81901E-35
5.86824E-01 1.59048E-35
5.91118E-01 1.38280E-35
5.95404E-01 1.19509E-35
5.99684E-01 1.02635E-35
6.03956E-01 8.75469E-36
6.08220E-01 7.41370E-36
6.12476E-01 6.22883E-36
6.16723E-01 5.18893E-36
6.20961E-01 4.28240E-36
6.25190E-01 3.49822E-36
6.29410E-01 2.82557E-36
6.33619E-01 2.25383E-36
6.37819E-01 1.77304E-36
6.42008E-01 1.37376E-36
6.46186E-01 1.04693E-36
6.50353E-01 7.84161E-37
6.54508E-01 5.77595E-37
6.58652E-01 4.19977E-37
6.62784E-01 3.04663E-37
6.66903E-01 2.25508E-37
6.71010E-01 1.76969E-37
6.75104E-01 1.54001E-37
6.79184E-01 1.52101E-37
6.83251E-01 1.67220E-37
6.87303E-01 1.95774E-37
6.91342E-01 2.34596E-37
6.95366E-01 2.80936E-37
6.99375E-01 3.32390E-37
7.03368E-01 3.86900E-37
7.07347E-01 4.42718E-37
7.11309E-01 4.98368E-37
7.15256E-01 5.52644E-37
7.19186E-01 6.04543E-37
7.23099E-01 6.53270E-37
7.26995E-01 6.98274E-37
7.30874E-01 7.39049E-37
7.34736E-01 7.75291E-37
7.38579E-01 8.06839E-37
7.42405E-01 8.33586E-37
7.46212E-01 8.55521E-37
7.50000E-01 8.72730E-37
7.53769E-01 8.85389E-37
7.57519E-01 8.93608E-37
7.61249E-01 8.97586E-37
7.64960E-01 8.97658E-37
7.68650E-01 8.94059E-37
7.72320E-01 8.87031E-37
7.75968E-01 8.76913E-37
7.79596E-01 8.63972E-37
7.83203E-01 8.48532E-37
7.86788E-01 8.30864E-37
7.90351E-01 8.11234E-37
7.93893E-01 7.89964E-37
7.97411E-01 7.67174E-37
8.00908E-01 7.43281E-37
8.04381E-01 7.18425E-37
8.07831E-01 6.92846E-37
8.11257E-01 6.66716E-37
8.14660E-01 6.40243E-37
8.18039E-01 6.13614E-37
8.21394E-01 5.86956E-37
8.24724E-01 5.60435E-37
8.28030E-01 5.34117E-37
8.31310E-01 5.08172E-37
8.34565E-01 4.82686E-37
8.37795E-01 4.57742E-37
8.40999E-01 4.33351E-37
8.44177E-01 4.09696E-37
8.47329E-01 3.86747E-37
8.50455E-01 3.64531E-37
8.53553E-01 3.43103E-37
8.56625E-01 3.22484E-37
8.59670E-01 3.02705E-37
8.62687E-01 2.83758E-37
8.65677E-01 2.65676E-37
8.68639E-01 2.48405E-37
8.71572E-01 2.31991E-37
8.74478E-01 2.16359E-37
8.77355E-01 2.01548E-37
8.80203E-01 1.87515E-37
8.83022E-01 1.74273E-37
8.85812E-01 1.61765E-37
8.88573E-01 1.49967E-37
8.91304E-01 1.38877E-37
8.94005E-01 1.28457E-37
8.96677E-01 1.18692E-37
8.99318E-01 1.09524E-37
9.01928E-01 1.00987E-37
9.04508E-01 9.29751E-38
9.07058E-01 8.55226E-38
9.09576E-01 7.85834E-38
9.12063E-01 7.21142E-38
9.14519E-01 6.61146E-38
9.16943E-01 6.05493E-38
9.19335E-01 5.53909E-38
9.21696E-01 5.06077E-38
9.24024E-01 4.61991E-38
9.26320E-01 4.21162E-38
9.28584E-01 3.83703E-38
9.30815E-01 3.48973E-38
9.33013E-01 3.17252E-38
9.35178E-01 2.87974E-38
9.37310E-01 2.61207E-38
9.39409E-01 2.36613E-38
9.41474E-01 2.14009E-38
9.43505E-01 1.93476E-38
9.45503E-01 1.74615E-38
9.47467E-01 1.57422E-38
9.49397E-01 1.41784E-38
9.51293E-01 1.27540E-38
9.53154E-01 1.14609E-38
9.54981E-01 1.02795E-38
9.56773E-01 9.21678E-39
9.58530E-01 8.25076E-39
9.60252E-01 7.37342E-39
9.61940E-01 6.58274E-39
9.63592E-01 5.87022E-39
9.65209E-01 5.22436E-39
9.66790E-01 4.64545E-39
9.68336E-01 4.11990E-39
9.69846E-01 3.65733E-39
9.71321E-01 3.23448E-39
9.72759E-01 2.86327E-39
9.74162E-01 2.52368E-39
9.75528E-01 2.22966E-39
9.76858E-01 1.96188E-39
9.78152E-01 1.72664E-39
9.79410E-01 1.51515E-39
9.80631E-01 1.32986E-39
9.81815E-01 1.16102E-39
9.82963E-01 1.01711E-39
9.84074E-01 8.85025E-40
9.85148E-01 7.71873E-40
9.86185E-01 6.71686E-40
9.87185E-01 5.84155E-40
9.88148E-01 5.01905E-40
9.89074E-01 4.35624E-40
9.89962E-01 3.73905E-40
9.90814E-01 3.22108E-40
9.91627E-01 2.76114E-40
9.92404E-01 2.34303E-40
9.93143E-01 2.00414E-40
9.93844E-01 1.70582E-40
9.94508E-01 1.43121E-40
9.95134E-01 1.20713E-40
9.95722E-01 1.00819E-40
9.96273E-01 8.39766E-41
9.96786E-01 6.74616E-41
9.97261E-01 5.48425E-41
9.97698E-01 4.46954E-41
9.98097E-01 3.57563E-41
9.98459E-01 2.72858E-41
9.98782E-01 2.03849E-41
9.99067E-01 1.52824E-41
9.99315E-01 1.04940E-41
9.99524E-01 7.91329E-42
9.99695E-01 5.05163E-42
9.99829E-01 3.13821E-42
9.99924E-01 1.60929E-42
9.99981E-01 7.60510E-43
1.00000E+00 2.78642E-43
