 #
 # Subroutine ELSEPA. Elastic scattering of electrons and positrons
 #                    by neutral atoms and positive ions
 #
 # Projectile: positron
 # Kinetic energy = 1.25000E+08 eV = 4.59367E+06 a.u.
 #
 # WARNING: High-energy factorization with free-atom DF screening.
 #          Absorption, polarization and exchange corrections are
 #          switched off.
 #          Phase shifts are calculated for the bare nucleus.
 #          Scattering amplitudes are not evaluated.
 #
 # Element: Cu,  Z =  29,  atomic weight = 6.35460E+01 g/mol
 #
 # Nuclear model: Fermi distribution
 #                Average radius = 4.26986E-13 cm
 #                Skin thickness = 5.46000E-14 cm
 #
 # Number of electrons = 29
 #
 # Total elastic cross section = 1.84115E-18 cm**2 = 6.57486E-02 a0**2
 # 1st transport cross section = 1.07866E-25 cm**2 = 3.85198E-09 a0**2
 # 2nd transport cross section = 3.21282E-25 cm**2 = 1.14732E-08 a0**2
 #
 #
 # Differential cross section:                       MU=(1-COS(THETA))/2
 #
 #  THETA        MU          DCS          DCS        Sherman      error
 #  (deg)                 (cm**2/sr)   (a0**2/sr)    function
 #----------------------------------------------------------------------
0.00000E+00 1.86500E-10
7.61557E-13 1.85788E-10
1.18994E-12 1.85391E-10
1.71346E-12 1.84908E-10
2.33225E-12 1.84341E-10
3.04617E-12 1.83690E-10
3.85530E-12 1.82958E-10
4.75964E-12 1.82146E-10
5.75917E-12 1.81257E-10
6.85391E-12 1.80292E-10
8.04379E-12 1.79255E-10
9.32893E-12 1.78148E-10
1.07092E-11 1.76973E-10
1.21847E-11 1.75733E-10
1.37554E-11 1.74431E-10
1.54213E-11 1.73066E-10
1.71823E-11 1.71644E-10
1.90386E-11 1.70174E-10
2.09900E-11 1.68660E-10
2.30367E-11 1.67101E-10
2.51785E-11 1.65484E-10
2.74156E-11 1.63833E-10
2.97478E-11 1.62151E-10
3.21752E-11 1.60443E-10
3.46979E-11 1.58688E-10
3.73157E-11 1.56906E-10
4.00286E-11 1.55108E-10
4.28368E-11 1.53296E-10
4.57402E-11 1.51459E-10
4.87388E-11 1.49595E-10
5.18325E-11 1.47726E-10
5.50215E-11 1.45855E-10
5.83057E-11 1.43984E-10
6.16850E-11 1.42081E-10
6.51595E-11 1.40183E-10
6.87293E-11 1.38294E-10
7.23943E-11 1.36415E-10
7.61544E-11 1.34524E-10
1.18991E-10 1.16212E-10
1.71347E-10 9.97174E-11
2.33223E-10 8.55164E-11
3.04617E-10 7.35394E-11
3.85531E-10 6.35551E-11
4.75965E-10 5.52311E-11
5.75917E-10 4.82426E-11
6.85389E-10 4.23353E-11
8.04380E-10 3.73115E-11
9.32891E-10 3.30050E-11
1.07092E-09 2.92763E-11
1.21847E-09 2.60412E-11
1.37554E-09 2.32199E-11
1.54213E-09 2.06005E-11
1.71823E-09 1.82916E-11
1.90386E-09 1.63847E-11
2.09900E-09 1.47957E-11
2.30367E-09 1.34123E-11
2.51785E-09 1.19781E-11
2.74156E-09 1.07698E-11
2.97478E-09 9.74450E-12
3.21752E-09 8.86870E-12
3.46978E-09 7.99978E-12
3.73156E-09 7.22225E-12
4.00286E-09 6.55244E-12
4.28368E-09 5.97235E-12
4.57402E-09 5.43868E-12
4.87388E-09 4.93324E-12
5.18326E-09 4.49215E-12
5.50215E-09 4.10558E-12
5.83057E-09 3.76457E-12
6.16850E-09 3.43263E-12
6.51596E-09 3.13966E-12
6.87293E-09 2.88020E-12
7.23942E-09 2.64965E-12
7.61544E-09 2.43452E-12
1.18991E-08 1.12228E-12
1.71347E-08 5.82908E-13
2.33223E-08 3.34469E-13
3.04617E-08 2.07276E-13
3.85531E-08 1.36117E-13
4.75965E-08 9.33357E-14
5.75917E-08 6.61639E-14
6.85389E-08 4.81518E-14
8.04380E-08 3.58155E-14
9.32891E-08 2.71427E-14
1.07092E-07 2.09085E-14
1.21847E-07 1.63458E-14
1.37554E-07 1.29491E-14
1.54213E-07 1.03778E-14
1.71823E-07 8.41525E-15
1.90386E-07 6.89131E-15
2.09900E-07 5.69848E-15
2.30367E-07 4.75013E-15
2.51785E-07 3.99230E-15
2.74156E-07 3.37943E-15
2.97478E-07 2.88013E-15
3.21752E-07 2.46997E-15
3.46978E-07 2.13037E-15
3.73156E-07 1.84757E-15
4.00286E-07 1.61010E-15
4.28368E-07 1.40985E-15
4.57402E-07 1.23983E-15
4.87388E-07 1.09478E-15
5.18325E-07 9.70430E-16
5.50215E-07 8.63243E-16
5.83057E-07 7.70552E-16
6.16850E-07 6.89939E-16
6.51596E-07 6.19662E-16
6.87293E-07 5.58103E-16
7.23942E-07 5.04019E-16
7.61543E-07 4.56348E-16
1.18991E-06 1.89732E-16
1.71347E-06 9.23608E-17
2.33223E-06 5.01474E-17
3.04617E-06 2.95051E-17
3.85531E-06 1.84647E-17
4.75964E-06 1.21343E-17
5.75916E-06 8.29700E-18
6.85388E-06 5.86267E-18
8.04378E-06 4.25868E-18
9.32888E-06 3.16734E-18
1.07092E-05 2.40410E-18
1.21846E-05 1.85742E-18
1.37553E-05 1.45761E-18
1.54212E-05 1.15978E-18
1.71822E-05 9.34252E-19
1.90385E-05 7.60878E-19
2.09899E-05 6.26042E-19
2.30365E-05 5.19772E-19
2.51783E-05 4.35095E-19
2.74153E-05 3.66955E-19
2.97475E-05 3.11632E-19
3.21749E-05 2.66348E-19
3.46974E-05 2.28999E-19
3.73152E-05 1.97977E-19
4.00281E-05 1.72039E-19
4.28362E-05 1.50213E-19
4.57395E-05 1.31741E-19
4.87380E-05 1.16020E-19
5.18317E-05 1.02573E-19
5.50205E-05 9.10170E-20
5.83045E-05 8.10420E-20
6.16838E-05 7.23963E-20
6.51582E-05 6.48736E-20
6.87277E-05 5.83034E-20
7.23925E-05 5.25445E-20
7.61524E-05 4.74788E-20
9.21439E-05 3.24135E-20
1.09658E-04 2.28744E-20
1.28695E-04 1.65995E-20
1.49255E-04 1.23346E-20
1.71338E-04 9.35515E-21
1.94942E-04 7.22276E-21
2.20070E-04 5.66439E-21
2.46720E-04 4.50426E-21
2.74892E-04 3.62623E-21
3.04586E-04 2.95194E-21
3.35803E-04 2.42717E-21
3.68542E-04 2.01389E-21
4.02802E-04 1.68484E-21
4.38585E-04 1.42025E-21
4.75889E-04 1.20556E-21
5.14715E-04 1.02988E-21
5.55063E-04 8.85027E-22
5.96931E-04 7.64726E-22
6.40321E-04 6.64154E-22
6.85233E-04 5.79554E-22
7.31665E-04 5.07979E-22
7.79618E-04 4.47099E-22
8.29092E-04 3.95052E-22
8.80086E-04 3.50346E-22
9.32601E-04 3.11774E-22
9.86636E-04 2.78353E-22
1.04219E-03 2.49282E-22
1.09927E-03 2.23898E-22
1.15786E-03 2.01655E-22
1.21797E-03 1.82099E-22
1.27961E-03 1.64849E-22
1.34276E-03 1.49588E-22
1.40743E-03 1.36046E-22
1.47362E-03 1.23997E-22
1.54133E-03 1.13248E-22
1.61056E-03 1.03635E-22
1.68131E-03 9.50157E-23
1.75357E-03 8.72706E-23
1.82735E-03 8.02955E-23
1.90265E-03 7.40003E-23
1.97947E-03 6.83072E-23
2.05780E-03 6.31486E-23
2.13765E-03 5.84654E-23
2.21902E-03 5.42061E-23
2.30190E-03 5.03257E-23
2.38630E-03 4.67844E-23
2.47222E-03 4.35474E-23
2.55965E-03 4.05839E-23
2.64859E-03 3.78667E-23
2.73905E-03 3.53717E-23
2.83103E-03 3.30776E-23
2.92452E-03 3.09651E-23
3.01952E-03 2.90175E-23
3.11604E-03 2.72196E-23
3.21407E-03 2.55577E-23
3.31362E-03 2.40198E-23
3.41468E-03 2.25949E-23
3.51725E-03 2.12733E-23
3.62133E-03 2.00462E-23
3.72692E-03 1.89055E-23
3.83403E-03 1.78441E-23
3.94265E-03 1.68555E-23
4.05278E-03 1.59338E-23
4.16442E-03 1.50737E-23
4.27757E-03 1.42702E-23
4.39223E-03 1.35191E-23
4.50840E-03 1.28162E-23
4.62608E-03 1.21580E-23
4.74527E-03 1.15411E-23
4.86597E-03 1.09623E-23
4.98817E-03 1.04190E-23
5.11188E-03 9.90855E-24
5.23711E-03 9.42863E-24
5.36383E-03 8.97706E-24
5.49207E-03 8.55189E-24
5.62181E-03 8.15128E-24
5.75306E-03 7.77356E-24
5.88581E-03 7.41718E-24
6.02007E-03 7.08073E-24
6.15583E-03 6.76289E-24
6.29310E-03 6.46243E-24
6.43187E-03 6.17825E-24
6.57214E-03 5.90929E-24
6.71392E-03 5.65460E-24
6.85720E-03 5.41328E-24
7.00198E-03 5.18451E-24
7.14827E-03 4.96751E-24
7.29605E-03 4.76156E-24
7.44534E-03 4.56601E-24
7.59612E-03 4.38023E-24
7.97965E-03 3.95485E-24
8.37255E-03 3.57906E-24
8.77480E-03 3.24612E-24
9.18641E-03 2.95034E-24
9.60736E-03 2.68689E-24
1.00376E-02 2.45164E-24
1.04773E-02 2.24108E-24
1.09262E-02 2.05218E-24
1.13844E-02 1.88235E-24
1.18520E-02 1.72934E-24
1.23288E-02 1.59121E-24
1.28150E-02 1.46627E-24
1.33104E-02 1.35305E-24
1.38150E-02 1.25028E-24
1.43290E-02 1.15682E-24
1.48521E-02 1.07169E-24
1.53845E-02 9.94036E-25
1.59262E-02 9.23081E-25
1.64770E-02 8.58155E-25
1.70371E-02 7.98661E-25
1.76063E-02 7.44070E-25
1.81848E-02 6.93911E-25
1.87724E-02 6.47766E-25
1.93692E-02 6.05259E-25
1.99751E-02 5.66058E-25
2.05901E-02 5.29863E-25
2.12143E-02 4.96405E-25
2.18476E-02 4.65445E-25
2.24900E-02 4.36766E-25
2.31415E-02 4.10171E-25
2.38021E-02 3.85485E-25
2.44717E-02 3.62549E-25
2.51504E-02 3.41219E-25
2.58382E-02 3.21365E-25
2.65349E-02 3.02867E-25
2.72407E-02 2.85618E-25
2.79555E-02 2.69521E-25
2.86793E-02 2.54487E-25
2.94120E-02 2.40434E-25
3.01537E-02 2.27287E-25
3.09043E-02 2.14980E-25
3.16639E-02 2.03451E-25
3.24324E-02 1.92641E-25
3.32098E-02 1.82501E-25
3.39961E-02 1.72981E-25
3.47912E-02 1.64038E-25
3.55952E-02 1.55631E-25
3.64081E-02 1.47724E-25
3.72297E-02 1.40282E-25
3.80602E-02 1.33274E-25
3.88995E-02 1.26670E-25
3.97476E-02 1.20444E-25
4.06044E-02 1.14570E-25
4.14700E-02 1.09027E-25
4.23443E-02 1.03792E-25
4.32273E-02 9.88461E-26
4.41190E-02 9.41706E-26
4.50194E-02 8.97487E-26
4.59284E-02 8.55646E-26
4.68461E-02 8.16037E-26
4.87074E-02 7.42978E-26
5.06030E-02 6.77329E-26
5.25328E-02 6.18237E-26
5.44967E-02 5.64962E-26
5.64946E-02 5.16856E-26
5.85262E-02 4.73351E-26
6.05914E-02 4.33953E-26
6.26901E-02 3.98223E-26
6.48222E-02 3.65778E-26
6.69873E-02 3.36278E-26
6.91854E-02 3.09424E-26
7.14163E-02 2.84949E-26
7.36799E-02 2.62617E-26
7.59760E-02 2.42219E-26
7.83043E-02 2.23568E-26
8.06647E-02 2.06497E-26
8.30571E-02 1.90858E-26
8.54812E-02 1.76516E-26
8.79369E-02 1.63353E-26
9.04240E-02 1.51261E-26
9.29422E-02 1.40144E-26
9.54915E-02 1.29915E-26
9.80716E-02 1.20496E-26
1.00682E-01 1.11817E-26
1.03323E-01 1.03813E-26
1.05995E-01 9.64267E-27
1.08696E-01 8.96063E-27
1.11427E-01 8.33042E-27
1.14188E-01 7.74774E-27
1.16978E-01 7.20869E-27
1.19797E-01 6.70971E-27
1.22645E-01 6.24756E-27
1.25522E-01 5.81930E-27
1.28428E-01 5.42224E-27
1.31361E-01 5.05392E-27
1.34323E-01 4.71210E-27
1.37313E-01 4.39472E-27
1.40330E-01 4.09990E-27
1.43375E-01 3.82592E-27
1.46447E-01 3.57120E-27
1.49545E-01 3.33429E-27
1.52671E-01 3.11387E-27
1.55823E-01 2.90870E-27
1.59001E-01 2.71766E-27
1.62205E-01 2.53972E-27
1.65435E-01 2.37393E-27
1.68690E-01 2.21939E-27
1.71970E-01 2.07531E-27
1.75276E-01 1.94094E-27
1.78606E-01 1.81559E-27
1.81961E-01 1.69861E-27
1.85340E-01 1.58942E-27
1.88743E-01 1.48748E-27
1.92169E-01 1.39228E-27
1.95619E-01 1.30335E-27
1.99092E-01 1.22026E-27
2.02589E-01 1.14261E-27
2.06107E-01 1.07003E-27
2.09649E-01 1.00217E-27
2.13212E-01 9.38714E-28
2.16797E-01 8.79366E-28
2.20404E-01 8.23849E-28
2.24032E-01 7.71907E-28
2.27680E-01 7.23300E-28
2.31350E-01 6.77809E-28
2.35040E-01 6.35226E-28
2.38751E-01 5.95360E-28
2.42481E-01 5.58033E-28
2.46231E-01 5.23077E-28
2.50000E-01 4.90339E-28
2.53788E-01 4.59674E-28
2.57595E-01 4.30947E-28
2.61421E-01 4.04032E-28
2.65264E-01 3.78814E-28
2.69126E-01 3.55182E-28
2.73005E-01 3.33035E-28
2.76901E-01 3.12278E-28
2.80814E-01 2.92821E-28
2.84744E-01 2.74583E-28
2.88691E-01 2.57485E-28
2.92653E-01 2.41455E-28
2.96632E-01 2.26425E-28
3.00625E-01 2.12332E-28
3.04634E-01 1.99117E-28
3.08658E-01 1.86725E-28
3.12697E-01 1.75103E-28
3.16749E-01 1.64204E-28
3.20816E-01 1.53983E-28
3.24896E-01 1.44395E-28
3.28990E-01 1.35403E-28
3.33097E-01 1.26969E-28
3.37216E-01 1.19058E-28
3.41348E-01 1.11637E-28
3.45492E-01 1.04676E-28
3.49647E-01 9.81466E-29
3.53814E-01 9.20216E-29
3.57992E-01 8.62762E-29
3.62181E-01 8.08866E-29
3.66381E-01 7.58309E-29
3.70590E-01 7.10884E-29
3.74810E-01 6.66398E-29
3.79039E-01 6.24667E-29
3.83277E-01 5.85523E-29
3.87524E-01 5.48806E-29
3.91780E-01 5.14365E-29
3.96044E-01 4.82060E-29
4.00316E-01 4.51760E-29
4.04596E-01 4.23340E-29
4.08882E-01 3.96685E-29
4.13176E-01 3.71686E-29
4.17476E-01 3.48240E-29
4.21783E-01 3.26253E-29
4.26095E-01 3.05634E-29
4.30413E-01 2.86298E-29
4.34737E-01 2.68167E-29
4.39065E-01 2.51167E-29
4.43398E-01 2.35227E-29
4.47736E-01 2.20283E-29
4.52077E-01 2.06272E-29
4.56422E-01 1.93138E-29
4.60770E-01 1.80825E-29
4.65122E-01 1.69285E-29
4.69476E-01 1.58467E-29
4.73832E-01 1.48329E-29
4.78190E-01 1.38828E-29
4.82550E-01 1.29924E-29
4.86912E-01 1.21581E-29
4.91274E-01 1.13764E-29
4.95637E-01 1.06440E-29
5.00000E-01 9.95791E-30
5.04363E-01 9.31518E-30
5.08726E-01 8.71316E-30
5.13088E-01 8.14930E-30
5.17450E-01 7.62124E-30
5.21810E-01 7.12675E-30
5.26168E-01 6.66372E-30
5.30524E-01 6.23021E-30
5.34878E-01 5.82437E-30
5.39230E-01 5.44446E-30
5.43578E-01 5.08887E-30
5.47923E-01 4.75607E-30
5.52264E-01 4.44464E-30
5.56602E-01 4.15322E-30
5.60935E-01 3.88057E-30
5.65263E-01 3.62550E-30
5.69587E-01 3.38690E-30
5.73905E-01 3.16374E-30
5.78217E-01 2.95503E-30
5.82524E-01 2.75987E-30
5.86824E-01 2.57740E-30
5.91118E-01 2.40681E-30
5.95404E-01 2.24735E-30
5.99684E-01 2.09831E-30
6.03956E-01 1.95902E-30
6.08220E-01 1.82886E-30
6.12476E-01 1.70726E-30
6.16723E-01 1.59365E-30
6.20961E-01 1.48754E-30
6.25190E-01 1.38843E-30
6.29410E-01 1.29587E-30
6.33619E-01 1.20946E-30
6.37819E-01 1.12878E-30
6.42008E-01 1.05346E-30
6.46186E-01 9.83167E-31
6.50353E-01 9.17565E-31
6.54508E-01 8.56351E-31
6.58652E-01 7.99238E-31
6.62784E-01 7.45960E-31
6.66903E-01 6.96264E-31
6.71010E-01 6.49917E-31
6.75104E-01 6.06697E-31
6.79184E-01 5.66399E-31
6.83251E-01 5.28831E-31
6.87303E-01 4.93811E-31
6.91342E-01 4.61170E-31
6.95366E-01 4.30752E-31
6.99375E-01 4.02407E-31
7.03368E-01 3.75997E-31
7.07347E-01 3.51393E-31
7.11309E-01 3.28473E-31
7.15256E-01 3.07125E-31
7.19186E-01 2.87243E-31
7.23099E-01 2.68727E-31
7.26995E-01 2.51485E-31
7.30874E-01 2.35430E-31
7.34736E-01 2.20482E-31
7.38579E-01 2.06566E-31
7.42405E-01 1.93609E-31
7.46212E-01 1.81547E-31
7.50000E-01 1.70319E-31
7.53769E-01 1.59866E-31
7.57519E-01 1.50134E-31
7.61249E-01 1.41075E-31
7.64960E-01 1.32641E-31
7.68650E-01 1.24788E-31
7.72320E-01 1.17476E-31
7.75968E-01 1.10666E-31
7.79596E-01 1.04325E-31
7.83203E-01 9.84175E-32
7.86788E-01 9.29141E-32
7.90351E-01 8.77858E-32
7.93893E-01 8.30059E-32
7.97411E-01 7.85495E-32
8.00908E-01 7.43935E-32
8.04381E-01 7.05164E-32
8.07831E-01 6.68981E-32
8.11257E-01 6.35199E-32
8.14660E-01 6.03645E-32
8.18039E-01 5.74156E-32
8.21394E-01 5.46584E-32
8.24724E-01 5.20788E-32
8.28030E-01 4.96638E-32
8.31310E-01 4.74014E-32
8.34565E-01 4.52805E-32
8.37795E-01 4.32906E-32
8.40999E-01 4.14220E-32
8.44177E-01 3.96659E-32
8.47329E-01 3.80140E-32
8.50455E-01 3.64584E-32
8.53553E-01 3.49923E-32
8.56625E-01 3.36088E-32
8.59670E-01 3.23019E-32
8.62687E-01 3.10660E-32
8.65677E-01 2.98958E-32
8.68639E-01 2.87864E-32
8.71572E-01 2.77334E-32
8.74478E-01 2.67326E-32
8.77355E-01 2.57802E-32
8.80203E-01 2.48727E-32
8.83022E-01 2.40069E-32
8.85812E-01 2.31796E-32
8.88573E-01 2.23882E-32
8.91304E-01 2.16301E-32
8.94005E-01 2.09029E-32
8.96677E-01 2.02044E-32
8.99318E-01 1.95328E-32
9.01928E-01 1.88861E-32
9.04508E-01 1.82627E-32
9.07058E-01 1.76611E-32
9.09576E-01 1.70797E-32
9.12063E-01 1.65174E-32
9.14519E-01 1.59729E-32
9.16943E-01 1.54452E-32
9.19335E-01 1.49332E-32
9.21696E-01 1.44361E-32
9.24024E-01 1.39530E-32
9.26320E-01 1.34832E-32
9.28584E-01 1.30259E-32
9.30815E-01 1.25806E-32
9.33013E-01 1.21467E-32
9.35178E-01 1.17236E-32
9.37310E-01 1.13109E-32
9.39409E-01 1.09082E-32
9.41474E-01 1.05151E-32
9.43505E-01 1.01312E-32
9.45503E-01 9.75628E-33
9.47467E-01 9.38998E-33
9.49397E-01 9.03207E-33
9.51293E-01 8.68232E-33
9.53154E-01 8.34053E-33
9.54981E-01 8.00653E-33
9.56773E-01 7.68013E-33
9.58530E-01 7.36122E-33
9.60252E-01 7.04965E-33
9.61940E-01 6.74532E-33
9.63592E-01 6.44812E-33
9.65209E-01 6.15797E-33
9.66790E-01 5.87479E-33
9.68336E-01 5.59853E-33
9.69846E-01 5.32909E-33
9.71321E-01 5.06647E-33
9.72759E-01 4.81059E-33
9.74162E-01 4.56145E-33
9.75528E-01 4.31897E-33
9.76858E-01 4.08318E-33
9.78152E-01 3.85403E-33
9.79410E-01 3.63151E-33
9.80631E-01 3.41559E-33
9.81815E-01 3.20630E-33
9.82963E-01 3.00359E-33
9.84074E-01 2.80749E-33
9.85148E-01 2.61797E-33
9.86185E-01 2.43504E-33
9.87185E-01 2.25870E-33
9.88148E-01 2.08898E-33
9.89074E-01 1.92582E-33
9.89962E-01 1.76928E-33
9.90814E-01 1.61934E-33
9.91627E-01 1.47600E-33
9.92404E-01 1.33929E-33
9.93143E-01 1.20919E-33
9.93844E-01 1.08572E-33
9.94508E-01 9.68887E-34
9.95134E-01 8.58685E-34
9.95722E-01 7.55132E-34
9.96273E-01 6.58227E-34
9.96786E-01 5.67991E-34
9.97261E-01 4.84406E-34
9.97698E-01 4.07483E-34
9.98097E-01 3.37235E-34
9.98459E-01 2.73669E-34
9.98782E-01 2.16781E-34
9.99067E-01 1.66572E-34
9.99315E-01 1.23055E-34
9.99524E-01 8.62189E-35
9.99695E-01 5.60836E-35
9.99829E-01 3.26410E-35
9.99924E-01 1.58965E-35
9.99981E-01 5.84941E-36
1.00000E+00 2.50134E-36
