 #
 # Subroutine ELSEPA. Elastic scattering of electrons and positrons
 #                    by neutral atoms and positive ions
 #
 # Projectile: positron
 # Kinetic energy = 7.00000E+07 eV = 2.57245E+06 a.u.
 #
 # WARNING: High-energy factorization with free-atom DF screening.
 #          Absorption, polarization and exchange corrections are
 #          switched off.
 #          Phase shifts are calculated for the bare nucleus.
 #          Scattering amplitudes are not evaluated.
 #
 # Element: Cu,  Z =  29,  atomic weight = 6.35460E+01 g/mol
 #
 # Nuclear model: Fermi distribution
 #                Average radius = 4.26986E-13 cm
 #                Skin thickness = 5.46000E-14 cm
 #
 # Number of electrons = 29
 #
 # Total elastic cross section = 1.84003E-18 cm**2 = 6.57088E-02 a0**2
 # 1st transport cross section = 3.33379E-25 cm**2 = 1.19052E-08 a0**2
 # 2nd transport cross section = 9.83622E-25 cm**2 = 3.51258E-08 a0**2
 #
 #
 # Differential cross section:                       MU=(1-COS(THETA))/2
 #
 #  THETA        MU          DCS          DCS        Sherman      error
 #  (deg)                 (cm**2/sr)   (a0**2/sr)    function
 #----------------------------------------------------------------------
0.00000E+00 5.88610E-11
7.61557E-13 5.87898E-11
1.18994E-12 5.87500E-11
1.71346E-12 5.87014E-11
2.33225E-12 5.86441E-11
3.04617E-12 5.85781E-11
3.85530E-12 5.85035E-11
4.75964E-12 5.84203E-11
5.75917E-12 5.83286E-11
6.85391E-12 5.82286E-11
8.04379E-12 5.81202E-11
9.32893E-12 5.80036E-11
1.07092E-11 5.78788E-11
1.21847E-11 5.77460E-11
1.37554E-11 5.76053E-11
1.54213E-11 5.74567E-11
1.71823E-11 5.73005E-11
1.90386E-11 5.71367E-11
2.09900E-11 5.69655E-11
2.30367E-11 5.67869E-11
2.51785E-11 5.66012E-11
2.74156E-11 5.64085E-11
2.97478E-11 5.62089E-11
3.21752E-11 5.60026E-11
3.46979E-11 5.57898E-11
3.73157E-11 5.55705E-11
4.00286E-11 5.53450E-11
4.28368E-11 5.51134E-11
4.57402E-11 5.48760E-11
4.87388E-11 5.46314E-11
5.18325E-11 5.43814E-11
5.50215E-11 5.41264E-11
5.83057E-11 5.38667E-11
6.16850E-11 5.36025E-11
6.51595E-11 5.33339E-11
6.87293E-11 5.30612E-11
7.23943E-11 5.27842E-11
7.61544E-11 5.24994E-11
1.18991E-10 4.94707E-11
1.71347E-10 4.62062E-11
2.33223E-10 4.28620E-11
3.04617E-10 3.95477E-11
3.85531E-10 3.63682E-11
4.75965E-10 3.33818E-11
5.75917E-10 3.06135E-11
6.85389E-10 2.80745E-11
8.04380E-10 2.57689E-11
9.32891E-10 2.36846E-11
1.07092E-09 2.17948E-11
1.21847E-09 2.00914E-11
1.37554E-09 1.85555E-11
1.54213E-09 1.71647E-11
1.71823E-09 1.59022E-11
1.90386E-09 1.47576E-11
2.09900E-09 1.37173E-11
2.30367E-09 1.27632E-11
2.51785E-09 1.18917E-11
2.74156E-09 1.10939E-11
2.97478E-09 1.03598E-11
3.21752E-09 9.68216E-12
3.46978E-09 9.05811E-12
3.73156E-09 8.48227E-12
4.00286E-09 7.94667E-12
4.28368E-09 7.45081E-12
4.57402E-09 6.99127E-12
4.87388E-09 6.52011E-12
5.18326E-09 6.09132E-12
5.50215E-09 5.70713E-12
5.83057E-09 5.36189E-12
6.16850E-09 5.05076E-12
6.51596E-09 4.76960E-12
6.87293E-09 4.51486E-12
7.23942E-09 4.27803E-12
7.61544E-09 4.00977E-12
1.18991E-08 2.25924E-12
1.71347E-08 1.32986E-12
2.33223E-08 8.14350E-13
3.04617E-08 5.15764E-13
3.85531E-08 3.40385E-13
4.75965E-08 2.33304E-13
5.75917E-08 1.65400E-13
6.85389E-08 1.20839E-13
8.04380E-08 9.06378E-14
9.32891E-08 6.95284E-14
1.07092E-07 5.43368E-14
1.21847E-07 4.31528E-14
1.37554E-07 3.47415E-14
1.54213E-07 2.82980E-14
1.71823E-07 2.32828E-14
1.90386E-07 1.93306E-14
2.09900E-07 1.61781E-14
2.30367E-07 1.36317E-14
2.51785E-07 1.15613E-14
2.74156E-07 9.86462E-15
2.97478E-07 8.46321E-15
3.21752E-07 7.29804E-15
3.46978E-07 6.32427E-15
3.73156E-07 5.50565E-15
4.00286E-07 4.81300E-15
4.28368E-07 4.22472E-15
4.57402E-07 3.72277E-15
4.87388E-07 3.29105E-15
5.18325E-07 2.92067E-15
5.50215E-07 2.60174E-15
5.83057E-07 2.32390E-15
6.16850E-07 2.08209E-15
6.51596E-07 1.87132E-15
6.87293E-07 1.68616E-15
7.23942E-07 1.52323E-15
7.61543E-07 1.37973E-15
1.18991E-06 5.75734E-16
1.71347E-06 2.81765E-16
2.33223E-06 1.53921E-16
3.04617E-06 9.10834E-17
3.85531E-06 5.72810E-17
4.75964E-06 3.77928E-17
5.75916E-06 2.59234E-17
6.85388E-06 1.83637E-17
8.04378E-06 1.33662E-17
9.32888E-06 9.95680E-18
1.07092E-05 7.56703E-18
1.21846E-05 5.85231E-18
1.37553E-05 4.59641E-18
1.54212E-05 3.65971E-18
1.71822E-05 2.94969E-18
1.90385E-05 2.40341E-18
2.09899E-05 1.97826E-18
2.30365E-05 1.64299E-18
2.51783E-05 1.37570E-18
2.74153E-05 1.16053E-18
2.97475E-05 9.85761E-19
3.21749E-05 8.42661E-19
3.46974E-05 7.24608E-19
3.73152E-05 6.26529E-19
4.00281E-05 5.44504E-19
4.28362E-05 4.75474E-19
4.57395E-05 4.17040E-19
4.87380E-05 3.67303E-19
5.18317E-05 3.24754E-19
5.50205E-05 2.88184E-19
5.83045E-05 2.56615E-19
6.16838E-05 2.29250E-19
6.51582E-05 2.05438E-19
6.87277E-05 1.84640E-19
7.23925E-05 1.66408E-19
7.61524E-05 1.50374E-19
9.21439E-05 1.02672E-19
1.09658E-04 7.24642E-20
1.28695E-04 5.25902E-20
1.49255E-04 3.90814E-20
1.71338E-04 2.96435E-20
1.94942E-04 2.28883E-20
2.20070E-04 1.79513E-20
2.46720E-04 1.42758E-20
2.74892E-04 1.14938E-20
3.04586E-04 9.35737E-21
3.35803E-04 7.69457E-21
3.68542E-04 6.38498E-21
4.02802E-04 5.34227E-21
4.38585E-04 4.50378E-21
4.75889E-04 3.82338E-21
5.14715E-04 3.26660E-21
5.55063E-04 2.80749E-21
5.96931E-04 2.42617E-21
6.40321E-04 2.10737E-21
6.85233E-04 1.83920E-21
7.31665E-04 1.61229E-21
7.79618E-04 1.41928E-21
8.29092E-04 1.25426E-21
8.80086E-04 1.11251E-21
9.32601E-04 9.90197E-22
9.86636E-04 8.84213E-22
1.04219E-03 7.92014E-22
1.09927E-03 7.11502E-22
1.15786E-03 6.40948E-22
1.21797E-03 5.78910E-22
1.27961E-03 5.24184E-22
1.34276E-03 4.75762E-22
1.40743E-03 4.32792E-22
1.47362E-03 3.94556E-22
1.54133E-03 3.60441E-22
1.61056E-03 3.29926E-22
1.68131E-03 3.02565E-22
1.75357E-03 2.77976E-22
1.82735E-03 2.55828E-22
1.90265E-03 2.35837E-22
1.97947E-03 2.17756E-22
2.05780E-03 2.01370E-22
2.13765E-03 1.86492E-22
2.21902E-03 1.72960E-22
2.30190E-03 1.60629E-22
2.38630E-03 1.49374E-22
2.47222E-03 1.39085E-22
2.55965E-03 1.29664E-22
2.64859E-03 1.21024E-22
2.73905E-03 1.13090E-22
2.83103E-03 1.05793E-22
2.92452E-03 9.90735E-23
3.01952E-03 9.28770E-23
3.11604E-03 8.71556E-23
3.21407E-03 8.18663E-23
3.31362E-03 7.69707E-23
3.41468E-03 7.24342E-23
3.51725E-03 6.82256E-23
3.62133E-03 6.43171E-23
3.72692E-03 6.06832E-23
3.83403E-03 5.73013E-23
3.94265E-03 5.41507E-23
4.05278E-03 5.12127E-23
4.16442E-03 4.84703E-23
4.27757E-03 4.59082E-23
4.39223E-03 4.35124E-23
4.50840E-03 4.12700E-23
4.62608E-03 3.91695E-23
4.74527E-03 3.72003E-23
4.86597E-03 3.53527E-23
4.98817E-03 3.36177E-23
5.11188E-03 3.19873E-23
5.23711E-03 3.04540E-23
5.36383E-03 2.90110E-23
5.49207E-03 2.76519E-23
5.62181E-03 2.63710E-23
5.75306E-03 2.51630E-23
5.88581E-03 2.40230E-23
6.02007E-03 2.29464E-23
6.15583E-03 2.19291E-23
6.29310E-03 2.09671E-23
6.43187E-03 2.00570E-23
6.57214E-03 1.91955E-23
6.71392E-03 1.83793E-23
6.85720E-03 1.76058E-23
7.00198E-03 1.68723E-23
7.14827E-03 1.61763E-23
7.29605E-03 1.55156E-23
7.44534E-03 1.48880E-23
7.59612E-03 1.42916E-23
7.97965E-03 1.29253E-23
8.37255E-03 1.17173E-23
8.77480E-03 1.06461E-23
9.18641E-03 9.69360E-24
9.60736E-03 8.84445E-24
1.00376E-02 8.08549E-24
1.04773E-02 7.40553E-24
1.09262E-02 6.79493E-24
1.13844E-02 6.24539E-24
1.18520E-02 5.74978E-24
1.23288E-02 5.30188E-24
1.28150E-02 4.89631E-24
1.33104E-02 4.52837E-24
1.38150E-02 4.19399E-24
1.43290E-02 3.88955E-24
1.48521E-02 3.61193E-24
1.53845E-02 3.35834E-24
1.59262E-02 3.12635E-24
1.64770E-02 2.91380E-24
1.70371E-02 2.71877E-24
1.76063E-02 2.53957E-24
1.81848E-02 2.37469E-24
1.87724E-02 2.22279E-24
1.93692E-02 2.08266E-24
1.99751E-02 1.95324E-24
2.05901E-02 1.83357E-24
2.12143E-02 1.72278E-24
2.18476E-02 1.62009E-24
2.24900E-02 1.52482E-24
2.31415E-02 1.43633E-24
2.38021E-02 1.35406E-24
2.44717E-02 1.27749E-24
2.51504E-02 1.20616E-24
2.58382E-02 1.13964E-24
2.65349E-02 1.07756E-24
2.72407E-02 1.01957E-24
2.79555E-02 9.65353E-25
2.86793E-02 9.14617E-25
2.94120E-02 8.67102E-25
3.01537E-02 8.22568E-25
3.09043E-02 7.80794E-25
3.16639E-02 7.41581E-25
3.24324E-02 7.04743E-25
3.32098E-02 6.70112E-25
3.39961E-02 6.37533E-25
3.47912E-02 6.06862E-25
3.55952E-02 5.77969E-25
3.64081E-02 5.50733E-25
3.72297E-02 5.25042E-25
3.80602E-02 5.00793E-25
3.88995E-02 4.77891E-25
3.97476E-02 4.56248E-25
4.06044E-02 4.35784E-25
4.14700E-02 4.16422E-25
4.23443E-02 3.98094E-25
4.32273E-02 3.80734E-25
4.41190E-02 3.64283E-25
4.50194E-02 3.48685E-25
4.59284E-02 3.33887E-25
4.68461E-02 3.19842E-25
4.87074E-02 2.93834E-25
5.06030E-02 2.70337E-25
5.25328E-02 2.49069E-25
5.44967E-02 2.29785E-25
5.64946E-02 2.12269E-25
5.85262E-02 1.96334E-25
6.05914E-02 1.81814E-25
6.26901E-02 1.68563E-25
6.48222E-02 1.56453E-25
6.69873E-02 1.45369E-25
6.91854E-02 1.35211E-25
7.14163E-02 1.25890E-25
7.36799E-02 1.17324E-25
7.59760E-02 1.09444E-25
7.83043E-02 1.02186E-25
8.06647E-02 9.54921E-26
8.30571E-02 8.93129E-26
8.54812E-02 8.36021E-26
8.79369E-02 7.83187E-26
9.04240E-02 7.34257E-26
9.29422E-02 6.88898E-26
9.54915E-02 6.46810E-26
9.80716E-02 6.07719E-26
1.00682E-01 5.71380E-26
1.03323E-01 5.37569E-26
1.05995E-01 5.06084E-26
1.08696E-01 4.76741E-26
1.11427E-01 4.49371E-26
1.14188E-01 4.23822E-26
1.16978E-01 3.99955E-26
1.19797E-01 3.77642E-26
1.22645E-01 3.56768E-26
1.25522E-01 3.37225E-26
1.28428E-01 3.18916E-26
1.31361E-01 3.01752E-26
1.34323E-01 2.85651E-26
1.37313E-01 2.70538E-26
1.40330E-01 2.56342E-26
1.43375E-01 2.43001E-26
1.46447E-01 2.30456E-26
1.49545E-01 2.18651E-26
1.52671E-01 2.07538E-26
1.55823E-01 1.97071E-26
1.59001E-01 1.87205E-26
1.62205E-01 1.77903E-26
1.65435E-01 1.69127E-26
1.68690E-01 1.60843E-26
1.71970E-01 1.53021E-26
1.75276E-01 1.45630E-26
1.78606E-01 1.38644E-26
1.81961E-01 1.32038E-26
1.85340E-01 1.25788E-26
1.88743E-01 1.19872E-26
1.92169E-01 1.14271E-26
1.95619E-01 1.08965E-26
1.99092E-01 1.03936E-26
2.02589E-01 9.91691E-27
2.06107E-01 9.46479E-27
2.09649E-01 9.03584E-27
2.13212E-01 8.62871E-27
2.16797E-01 8.24215E-27
2.20404E-01 7.87500E-27
2.24032E-01 7.52616E-27
2.27680E-01 7.19459E-27
2.31350E-01 6.87935E-27
2.35040E-01 6.57952E-27
2.38751E-01 6.29426E-27
2.42481E-01 6.02279E-27
2.46231E-01 5.76434E-27
2.50000E-01 5.51823E-27
2.53788E-01 5.28378E-27
2.57595E-01 5.06040E-27
2.61421E-01 4.84749E-27
2.65264E-01 4.64450E-27
2.69126E-01 4.45092E-27
2.73005E-01 4.26626E-27
2.76901E-01 4.09007E-27
2.80814E-01 3.92191E-27
2.84744E-01 3.76138E-27
2.88691E-01 3.60809E-27
2.92653E-01 3.46167E-27
2.96632E-01 3.32180E-27
3.00625E-01 3.18813E-27
3.04634E-01 3.06037E-27
3.08658E-01 2.93824E-27
3.12697E-01 2.82144E-27
3.16749E-01 2.70973E-27
3.20816E-01 2.60286E-27
3.24896E-01 2.50061E-27
3.28990E-01 2.40274E-27
3.33097E-01 2.30906E-27
3.37216E-01 2.21936E-27
3.41348E-01 2.13346E-27
3.45492E-01 2.05118E-27
3.49647E-01 1.97236E-27
3.53814E-01 1.89683E-27
3.57992E-01 1.82444E-27
3.62181E-01 1.75505E-27
3.66381E-01 1.68853E-27
3.70590E-01 1.62474E-27
3.74810E-01 1.56357E-27
3.79039E-01 1.50488E-27
3.83277E-01 1.44858E-27
3.87524E-01 1.39456E-27
3.91780E-01 1.34272E-27
3.96044E-01 1.29295E-27
4.00316E-01 1.24518E-27
4.04596E-01 1.19930E-27
4.08882E-01 1.15525E-27
4.13176E-01 1.11294E-27
4.17476E-01 1.07230E-27
4.21783E-01 1.03325E-27
4.26095E-01 9.95729E-28
4.30413E-01 9.59671E-28
4.34737E-01 9.25014E-28
4.39065E-01 8.91698E-28
4.43398E-01 8.59667E-28
4.47736E-01 8.28868E-28
4.52077E-01 7.99249E-28
4.56422E-01 7.70762E-28
4.60770E-01 7.43359E-28
4.65122E-01 7.16996E-28
4.69476E-01 6.91630E-28
4.73832E-01 6.67220E-28
4.78190E-01 6.43729E-28
4.82550E-01 6.21117E-28
4.86912E-01 5.99351E-28
4.91274E-01 5.78395E-28
4.95637E-01 5.58217E-28
5.00000E-01 5.38786E-28
5.04363E-01 5.20073E-28
5.08726E-01 5.02049E-28
5.13088E-01 4.84686E-28
5.17450E-01 4.67959E-28
5.21810E-01 4.51842E-28
5.26168E-01 4.36312E-28
5.30524E-01 4.21345E-28
5.34878E-01 4.06920E-28
5.39230E-01 3.93016E-28
5.43578E-01 3.79612E-28
5.47923E-01 3.66690E-28
5.52264E-01 3.54230E-28
5.56602E-01 3.42216E-28
5.60935E-01 3.30629E-28
5.65263E-01 3.19454E-28
5.69587E-01 3.08675E-28
5.73905E-01 2.98278E-28
5.78217E-01 2.88247E-28
5.82524E-01 2.78568E-28
5.86824E-01 2.69230E-28
5.91118E-01 2.60218E-28
5.95404E-01 2.51521E-28
5.99684E-01 2.43127E-28
6.03956E-01 2.35025E-28
6.08220E-01 2.27203E-28
6.12476E-01 2.19653E-28
6.16723E-01 2.12362E-28
6.20961E-01 2.05323E-28
6.25190E-01 1.98526E-28
6.29410E-01 1.91962E-28
6.33619E-01 1.85622E-28
6.37819E-01 1.79499E-28
6.42008E-01 1.73584E-28
6.46186E-01 1.67870E-28
6.50353E-01 1.62350E-28
6.54508E-01 1.57016E-28
6.58652E-01 1.51863E-28
6.62784E-01 1.46883E-28
6.66903E-01 1.42071E-28
6.71010E-01 1.37420E-28
6.75104E-01 1.32925E-28
6.79184E-01 1.28580E-28
6.83251E-01 1.24380E-28
6.87303E-01 1.20319E-28
6.91342E-01 1.16394E-28
6.95366E-01 1.12599E-28
6.99375E-01 1.08929E-28
7.03368E-01 1.05380E-28
7.07347E-01 1.01949E-28
7.11309E-01 9.86298E-29
7.15256E-01 9.54199E-29
7.19186E-01 9.23153E-29
7.23099E-01 8.93122E-29
7.26995E-01 8.64071E-29
7.30874E-01 8.35967E-29
7.34736E-01 8.08778E-29
7.38579E-01 7.82471E-29
7.42405E-01 7.57017E-29
7.46212E-01 7.32386E-29
7.50000E-01 7.08552E-29
7.53769E-01 6.85485E-29
7.57519E-01 6.63162E-29
7.61249E-01 6.41555E-29
7.64960E-01 6.20642E-29
7.68650E-01 6.00399E-29
7.72320E-01 5.80803E-29
7.75968E-01 5.61833E-29
7.79596E-01 5.43468E-29
7.83203E-01 5.25687E-29
7.86788E-01 5.08471E-29
7.90351E-01 4.91801E-29
7.93893E-01 4.75660E-29
7.97411E-01 4.60029E-29
8.00908E-01 4.44892E-29
8.04381E-01 4.30232E-29
8.07831E-01 4.16034E-29
8.11257E-01 4.02283E-29
8.14660E-01 3.88964E-29
8.18039E-01 3.76063E-29
8.21394E-01 3.63566E-29
8.24724E-01 3.51460E-29
8.28030E-01 3.39732E-29
8.31310E-01 3.28371E-29
8.34565E-01 3.17363E-29
8.37795E-01 3.06699E-29
8.40999E-01 2.96366E-29
8.44177E-01 2.86355E-29
8.47329E-01 2.76654E-29
8.50455E-01 2.67254E-29
8.53553E-01 2.58146E-29
8.56625E-01 2.49319E-29
8.59670E-01 2.40766E-29
8.62687E-01 2.32476E-29
8.65677E-01 2.24443E-29
8.68639E-01 2.16658E-29
8.71572E-01 2.09113E-29
8.74478E-01 2.01800E-29
8.77355E-01 1.94713E-29
8.80203E-01 1.87844E-29
8.83022E-01 1.81187E-29
8.85812E-01 1.74734E-29
8.88573E-01 1.68480E-29
8.91304E-01 1.62418E-29
8.94005E-01 1.56543E-29
8.96677E-01 1.50849E-29
8.99318E-01 1.45330E-29
9.01928E-01 1.39980E-29
9.04508E-01 1.34796E-29
9.07058E-01 1.29771E-29
9.09576E-01 1.24900E-29
9.12063E-01 1.20180E-29
9.14519E-01 1.15606E-29
9.16943E-01 1.11173E-29
9.19335E-01 1.06877E-29
9.21696E-01 1.02714E-29
9.24024E-01 9.86800E-30
9.26320E-01 9.47713E-30
9.28584E-01 9.09842E-30
9.30815E-01 8.73151E-30
9.33013E-01 8.37607E-30
9.35178E-01 8.03175E-30
9.37310E-01 7.69823E-30
9.39409E-01 7.37521E-30
9.41474E-01 7.06239E-30
9.43505E-01 6.75947E-30
9.45503E-01 6.46618E-30
9.47467E-01 6.18225E-30
9.49397E-01 5.90742E-30
9.51293E-01 5.64143E-30
9.53154E-01 5.38405E-30
9.54981E-01 5.13503E-30
9.56773E-01 4.89415E-30
9.58530E-01 4.66120E-30
9.60252E-01 4.43595E-30
9.61940E-01 4.21822E-30
9.63592E-01 4.00779E-30
9.65209E-01 3.80449E-30
9.66790E-01 3.60812E-30
9.68336E-01 3.41852E-30
9.69846E-01 3.23551E-30
9.71321E-01 3.05893E-30
9.72759E-01 2.88862E-30
9.74162E-01 2.72443E-30
9.75528E-01 2.56622E-30
9.76858E-01 2.41384E-30
9.78152E-01 2.26716E-30
9.79410E-01 2.12605E-30
9.80631E-01 1.99038E-30
9.81815E-01 1.86004E-30
9.82963E-01 1.73491E-30
9.84074E-01 1.61488E-30
9.85148E-01 1.49984E-30
9.86185E-01 1.38970E-30
9.87185E-01 1.28436E-30
9.88148E-01 1.18372E-30
9.89074E-01 1.08771E-30
9.89962E-01 9.96224E-31
9.90814E-01 9.09198E-31
9.91627E-01 8.26550E-31
9.92404E-01 7.48209E-31
9.93143E-01 6.74109E-31
9.93844E-01 6.04185E-31
9.94508E-01 5.38374E-31
9.95134E-01 4.76623E-31
9.95722E-01 4.18876E-31
9.96273E-01 3.65083E-31
9.96786E-01 3.15199E-31
9.97261E-01 2.69180E-31
9.97698E-01 2.26987E-31
9.98097E-01 1.88584E-31
9.98459E-01 1.53936E-31
9.98782E-01 1.23015E-31
9.99067E-01 9.57948E-32
9.99315E-01 7.22504E-32
9.99524E-01 5.23629E-32
9.99695E-01 3.61140E-32
9.99829E-01 2.34907E-32
9.99924E-01 1.44816E-32
9.99981E-01 9.07917E-33
1.00000E+00 7.27888E-33
