 #
 # Subroutine ELSEPA. Elastic scattering of electrons and positrons
 #                    by neutral atoms and positive ions
 #
 # Projectile: positron
 # Kinetic energy = 9.00000E+06 eV = 3.30744E+05 a.u.
 #
 # WARNING: High-energy factorization with free-atom DF screening.
 #          Absorption, polarization and exchange corrections are
 #          switched off.
 #          Phase shifts are calculated for the bare nucleus.
 #          Scattering amplitudes are not evaluated.
 #
 # Element: Cu,  Z =  29,  atomic weight = 6.35460E+01 g/mol
 #
 # Nuclear model: Fermi distribution
 #                Average radius = 4.26986E-13 cm
 #                Skin thickness = 5.46000E-14 cm
 #
 # Number of electrons = 29
 #
 # Total elastic cross section = 1.84521E-18 cm**2 = 6.58936E-02 a0**2
 # 1st transport cross section = 1.42598E-23 cm**2 = 5.09228E-07 a0**2
 # 2nd transport cross section = 4.12465E-23 cm**2 = 1.47294E-06 a0**2
 #
 #
 # Differential cross section:                       MU=(1-COS(THETA))/2
 #
 #  THETA        MU          DCS          DCS        Sherman      error
 #  (deg)                 (cm**2/sr)   (a0**2/sr)    function
 #----------------------------------------------------------------------
0.00000E+00 1.07094E-12
7.61557E-13 1.07092E-12
1.18994E-12 1.07090E-12
1.71346E-12 1.07089E-12
2.33225E-12 1.07087E-12
3.04617E-12 1.07085E-12
3.85530E-12 1.07082E-12
4.75964E-12 1.07079E-12
5.75917E-12 1.07076E-12
6.85391E-12 1.07073E-12
8.04379E-12 1.07069E-12
9.32893E-12 1.07065E-12
1.07092E-11 1.07061E-12
1.21847E-11 1.07056E-12
1.37554E-11 1.07051E-12
1.54213E-11 1.07046E-12
1.71823E-11 1.07041E-12
1.90386E-11 1.07035E-12
2.09900E-11 1.07029E-12
2.30367E-11 1.07023E-12
2.51785E-11 1.07016E-12
2.74156E-11 1.07009E-12
2.97478E-11 1.07002E-12
3.21752E-11 1.06995E-12
3.46979E-11 1.06987E-12
3.73157E-11 1.06979E-12
4.00286E-11 1.06970E-12
4.28368E-11 1.06962E-12
4.57402E-11 1.06953E-12
4.87388E-11 1.06944E-12
5.18325E-11 1.06934E-12
5.50215E-11 1.06924E-12
5.83057E-11 1.06914E-12
6.16850E-11 1.06904E-12
6.51595E-11 1.06893E-12
6.87293E-11 1.06882E-12
7.23943E-11 1.06871E-12
7.61544E-11 1.06859E-12
1.18991E-10 1.06728E-12
1.71347E-10 1.06568E-12
2.33223E-10 1.06380E-12
3.04617E-10 1.06163E-12
3.85531E-10 1.05919E-12
4.75965E-10 1.05647E-12
5.75917E-10 1.05349E-12
6.85389E-10 1.05023E-12
8.04380E-10 1.04672E-12
9.32891E-10 1.04295E-12
1.07092E-09 1.03893E-12
1.21847E-09 1.03466E-12
1.37554E-09 1.03016E-12
1.54213E-09 1.02542E-12
1.71823E-09 1.02046E-12
1.90386E-09 1.01528E-12
2.09900E-09 1.00989E-12
2.30367E-09 1.00429E-12
2.51785E-09 9.98500E-13
2.74156E-09 9.92484E-13
2.97478E-09 9.86296E-13
3.21752E-09 9.79948E-13
3.46978E-09 9.73451E-13
3.73156E-09 9.66813E-13
4.00286E-09 9.60031E-13
4.28368E-09 9.53031E-13
4.57402E-09 9.45915E-13
4.87388E-09 9.38694E-13
5.18326E-09 9.31375E-13
5.50215E-09 9.23969E-13
5.83057E-09 9.16438E-13
6.16850E-09 9.08749E-13
6.51596E-09 9.00996E-13
6.87293E-09 8.93188E-13
7.23942E-09 8.85333E-13
7.61544E-09 8.77438E-13
1.18991E-08 7.95875E-13
1.71347E-08 7.14652E-13
2.33223E-08 6.37936E-13
3.04617E-08 5.67878E-13
3.85531E-08 5.05384E-13
4.75965E-08 4.50483E-13
5.75917E-08 4.02588E-13
6.85389E-08 3.60758E-13
8.04380E-08 3.24295E-13
9.32891E-08 2.92441E-13
1.07092E-07 2.64483E-13
1.21847E-07 2.39754E-13
1.37554E-07 2.17874E-13
1.54213E-07 1.98431E-13
1.71823E-07 1.81045E-13
1.90386E-07 1.65435E-13
2.09900E-07 1.51413E-13
2.30367E-07 1.38780E-13
2.51785E-07 1.27331E-13
2.74156E-07 1.15953E-13
2.97478E-07 1.06007E-13
3.21752E-07 9.74055E-14
3.46978E-07 8.99286E-14
3.73156E-07 8.33970E-14
4.00286E-07 7.74968E-14
4.28368E-07 7.10731E-14
4.57402E-07 6.54399E-14
4.87388E-07 6.04793E-14
5.18325E-07 5.60934E-14
5.50215E-07 5.22010E-14
5.83057E-07 4.85034E-14
6.16850E-07 4.47801E-14
6.51596E-07 4.14647E-14
6.87293E-07 3.85030E-14
7.23942E-07 3.58493E-14
7.61543E-07 3.34644E-14
1.18991E-06 1.67637E-14
1.71347E-06 9.04935E-15
2.33223E-06 5.24226E-15
3.04617E-06 3.23891E-15
3.85531E-06 2.11756E-15
4.75964E-06 1.45068E-15
5.75916E-06 1.03195E-15
6.85388E-06 7.56203E-16
8.04378E-06 5.67633E-16
9.32888E-06 4.34688E-16
1.07092E-05 3.38435E-16
1.21846E-05 2.67133E-16
1.37553E-05 2.13460E-16
1.54212E-05 1.72447E-16
1.71822E-05 1.40687E-16
1.90385E-05 1.15799E-16
2.09899E-05 9.61339E-17
2.30365E-05 8.04198E-17
2.51783E-05 6.77463E-17
2.74153E-05 5.74216E-17
2.97475E-05 4.90087E-17
3.21749E-05 4.20670E-17
3.46974E-05 3.63049E-17
3.73152E-05 3.15013E-17
4.00281E-05 2.74577E-17
4.28362E-05 2.40497E-17
4.57395E-05 2.11488E-17
4.87380E-05 1.86760E-17
5.18317E-05 1.65532E-17
5.50205E-05 1.47242E-17
5.83045E-05 1.31420E-17
6.16838E-05 1.17666E-17
6.51582E-05 1.05682E-17
6.87277E-05 9.51793E-18
7.23925E-05 8.59629E-18
7.61524E-05 7.78346E-18
9.21439E-05 5.35533E-18
1.09658E-04 3.80558E-18
1.28695E-04 2.77877E-18
1.49255E-04 2.07620E-18
1.71338E-04 1.58231E-18
1.94942E-04 1.22676E-18
2.20070E-04 9.65616E-19
2.46720E-04 7.70320E-19
2.74892E-04 6.21898E-19
3.04586E-04 5.07494E-19
3.35803E-04 4.18175E-19
3.68542E-04 3.47632E-19
4.02802E-04 2.91320E-19
4.38585E-04 2.45936E-19
4.75889E-04 2.09038E-19
5.14715E-04 1.78791E-19
5.55063E-04 1.53810E-19
5.96931E-04 1.33033E-19
6.40321E-04 1.15641E-19
6.85233E-04 1.00995E-19
7.31665E-04 8.85897E-20
7.79618E-04 7.80283E-20
8.29092E-04 6.89914E-20
8.80086E-04 6.12229E-20
9.32601E-04 5.45152E-20
9.86636E-04 4.86995E-20
1.04219E-03 4.36375E-20
1.09927E-03 3.92149E-20
1.15786E-03 3.53374E-20
1.21797E-03 3.19266E-20
1.27961E-03 2.89166E-20
1.34276E-03 2.62524E-20
1.40743E-03 2.38873E-20
1.47362E-03 2.17822E-20
1.54133E-03 1.99033E-20
1.61056E-03 1.82223E-20
1.68131E-03 1.67147E-20
1.75357E-03 1.53595E-20
1.82735E-03 1.41386E-20
1.90265E-03 1.30363E-20
1.97947E-03 1.20391E-20
2.05780E-03 1.11353E-20
2.13765E-03 1.03145E-20
2.21902E-03 9.56777E-21
2.30190E-03 8.88725E-21
2.38630E-03 8.26602E-21
2.47222E-03 7.69800E-21
2.55965E-03 7.17782E-21
2.64859E-03 6.70074E-21
2.73905E-03 6.26254E-21
2.83103E-03 5.85949E-21
2.92452E-03 5.48826E-21
3.01952E-03 5.14590E-21
3.11604E-03 4.82974E-21
3.21407E-03 4.53744E-21
3.31362E-03 4.26685E-21
3.41468E-03 4.01608E-21
3.51725E-03 3.78341E-21
3.62133E-03 3.56731E-21
3.72692E-03 3.36637E-21
3.83403E-03 3.17934E-21
3.94265E-03 3.00508E-21
4.05278E-03 2.84256E-21
4.16442E-03 2.69085E-21
4.27757E-03 2.54909E-21
4.39223E-03 2.41652E-21
4.50840E-03 2.29243E-21
4.62608E-03 2.17618E-21
4.74527E-03 2.06718E-21
4.86597E-03 1.96490E-21
4.98817E-03 1.86884E-21
5.11188E-03 1.77857E-21
5.23711E-03 1.69366E-21
5.36383E-03 1.61374E-21
5.49207E-03 1.53847E-21
5.62181E-03 1.46751E-21
5.75306E-03 1.40059E-21
5.88581E-03 1.33742E-21
6.02007E-03 1.27777E-21
6.15583E-03 1.22139E-21
6.29310E-03 1.16807E-21
6.43187E-03 1.11762E-21
6.57214E-03 1.06986E-21
6.71392E-03 1.02461E-21
6.85720E-03 9.81720E-22
7.00198E-03 9.41041E-22
7.14827E-03 9.02439E-22
7.29605E-03 8.65789E-22
7.44534E-03 8.30973E-22
7.59612E-03 7.97883E-22
7.97965E-03 7.22058E-22
8.37255E-03 6.54996E-22
8.77480E-03 5.95511E-22
9.18641E-03 5.42602E-22
9.60736E-03 4.95416E-22
1.00376E-02 4.53229E-22
1.04773E-02 4.15418E-22
1.09262E-02 3.81453E-22
1.13844E-02 3.50873E-22
1.18520E-02 3.23283E-22
1.23288E-02 2.98340E-22
1.28150E-02 2.75745E-22
1.33104E-02 2.55239E-22
1.38150E-02 2.36594E-22
1.43290E-02 2.19613E-22
1.48521E-02 2.04121E-22
1.53845E-02 1.89963E-22
1.59262E-02 1.77006E-22
1.64770E-02 1.65128E-22
1.70371E-02 1.54225E-22
1.76063E-02 1.44202E-22
1.81848E-02 1.34975E-22
1.87724E-02 1.26470E-22
1.93692E-02 1.18621E-22
1.99751E-02 1.11368E-22
2.05901E-02 1.04657E-22
2.12143E-02 9.84409E-23
2.18476E-02 9.26766E-23
2.24900E-02 8.73254E-23
2.31415E-02 8.23524E-23
2.38021E-02 7.77260E-23
2.44717E-02 7.34177E-23
2.51504E-02 6.94018E-23
2.58382E-02 6.56549E-23
2.65349E-02 6.21556E-23
2.72407E-02 5.88847E-23
2.79555E-02 5.58245E-23
2.86793E-02 5.29591E-23
2.94120E-02 5.02739E-23
3.01537E-02 4.77553E-23
3.09043E-02 4.53914E-23
3.16639E-02 4.31707E-23
3.24324E-02 4.10831E-23
3.32098E-02 3.91191E-23
3.39961E-02 3.72702E-23
3.47912E-02 3.55283E-23
3.55952E-02 3.38861E-23
3.64081E-02 3.23369E-23
3.72297E-02 3.08745E-23
3.80602E-02 2.94930E-23
3.88995E-02 2.81873E-23
3.97476E-02 2.69524E-23
4.06044E-02 2.57838E-23
4.14700E-02 2.46773E-23
4.23443E-02 2.36289E-23
4.32273E-02 2.26351E-23
4.41190E-02 2.16925E-23
4.50194E-02 2.07979E-23
4.59284E-02 1.99486E-23
4.68461E-02 1.91417E-23
4.87074E-02 1.76456E-23
5.06030E-02 1.62913E-23
5.25328E-02 1.50633E-23
5.44967E-02 1.39476E-23
5.64946E-02 1.29322E-23
5.85262E-02 1.20066E-23
6.05914E-02 1.11614E-23
6.26901E-02 1.03885E-23
6.48222E-02 9.68056E-24
6.69873E-02 9.03120E-24
6.91854E-02 8.43471E-24
7.14163E-02 7.88607E-24
7.36799E-02 7.38076E-24
7.59760E-02 6.91475E-24
7.83043E-02 6.48446E-24
8.06647E-02 6.08667E-24
8.30571E-02 5.71851E-24
8.54812E-02 5.37737E-24
8.79369E-02 5.06093E-24
9.04240E-02 4.76709E-24
9.29422E-02 4.49394E-24
9.54915E-02 4.23978E-24
9.80716E-02 4.00305E-24
1.00682E-01 3.78236E-24
1.03323E-01 3.57642E-24
1.05995E-01 3.38407E-24
1.08696E-01 3.20426E-24
1.11427E-01 3.03604E-24
1.14188E-01 2.87850E-24
1.16978E-01 2.73087E-24
1.19797E-01 2.59242E-24
1.22645E-01 2.46246E-24
1.25522E-01 2.34038E-24
1.28428E-01 2.22563E-24
1.31361E-01 2.11769E-24
1.34323E-01 2.01608E-24
1.37313E-01 1.92036E-24
1.40330E-01 1.83014E-24
1.43375E-01 1.74504E-24
1.46447E-01 1.66472E-24
1.49545E-01 1.58887E-24
1.52671E-01 1.51719E-24
1.55823E-01 1.44941E-24
1.59001E-01 1.38529E-24
1.62205E-01 1.32458E-24
1.65435E-01 1.26709E-24
1.68690E-01 1.21260E-24
1.71970E-01 1.16093E-24
1.75276E-01 1.11192E-24
1.78606E-01 1.06540E-24
1.81961E-01 1.02121E-24
1.85340E-01 9.79236E-25
1.88743E-01 9.39333E-25
1.92169E-01 9.01383E-25
1.95619E-01 8.65275E-25
1.99092E-01 8.30903E-25
2.02589E-01 7.98170E-25
2.06107E-01 7.66983E-25
2.09649E-01 7.37257E-25
2.13212E-01 7.08912E-25
2.16797E-01 6.81871E-25
2.20404E-01 6.56065E-25
2.24032E-01 6.31427E-25
2.27680E-01 6.07895E-25
2.31350E-01 5.85411E-25
2.35040E-01 5.63921E-25
2.38751E-01 5.43371E-25
2.42481E-01 5.23715E-25
2.46231E-01 5.04906E-25
2.50000E-01 4.86902E-25
2.53788E-01 4.69662E-25
2.57595E-01 4.53149E-25
2.61421E-01 4.37325E-25
2.65264E-01 4.22158E-25
2.69126E-01 4.07616E-25
2.73005E-01 3.93668E-25
2.76901E-01 3.80285E-25
2.80814E-01 3.67442E-25
2.84744E-01 3.55112E-25
2.88691E-01 3.43271E-25
2.92653E-01 3.31897E-25
2.96632E-01 3.20968E-25
3.00625E-01 3.10464E-25
3.04634E-01 3.00365E-25
3.08658E-01 2.90653E-25
3.12697E-01 2.81310E-25
3.16749E-01 2.72321E-25
3.20816E-01 2.63669E-25
3.24896E-01 2.55340E-25
3.28990E-01 2.47320E-25
3.33097E-01 2.39594E-25
3.37216E-01 2.32152E-25
3.41348E-01 2.24979E-25
3.45492E-01 2.18066E-25
3.49647E-01 2.11400E-25
3.53814E-01 2.04972E-25
3.57992E-01 1.98772E-25
3.62181E-01 1.92789E-25
3.66381E-01 1.87016E-25
3.70590E-01 1.81444E-25
3.74810E-01 1.76065E-25
3.79039E-01 1.70870E-25
3.83277E-01 1.65852E-25
3.87524E-01 1.61005E-25
3.91780E-01 1.56321E-25
3.96044E-01 1.51795E-25
4.00316E-01 1.47419E-25
4.04596E-01 1.43188E-25
4.08882E-01 1.39097E-25
4.13176E-01 1.35140E-25
4.17476E-01 1.31312E-25
4.21783E-01 1.27608E-25
4.26095E-01 1.24023E-25
4.30413E-01 1.20554E-25
4.34737E-01 1.17195E-25
4.39065E-01 1.13942E-25
4.43398E-01 1.10792E-25
4.47736E-01 1.07741E-25
4.52077E-01 1.04785E-25
4.56422E-01 1.01920E-25
4.60770E-01 9.91445E-26
4.65122E-01 9.64539E-26
4.69476E-01 9.38455E-26
4.73832E-01 9.13164E-26
4.78190E-01 8.88638E-26
4.82550E-01 8.64850E-26
4.86912E-01 8.41774E-26
4.91274E-01 8.19386E-26
4.95637E-01 7.97661E-26
5.00000E-01 7.76577E-26
5.04363E-01 7.56113E-26
5.08726E-01 7.36246E-26
5.13088E-01 7.16957E-26
5.17450E-01 6.98226E-26
5.21810E-01 6.80035E-26
5.26168E-01 6.62365E-26
5.30524E-01 6.45199E-26
5.34878E-01 6.28521E-26
5.39230E-01 6.12315E-26
5.43578E-01 5.96564E-26
5.47923E-01 5.81255E-26
5.52264E-01 5.66373E-26
5.56602E-01 5.51905E-26
5.60935E-01 5.37836E-26
5.65263E-01 5.24155E-26
5.69587E-01 5.10848E-26
5.73905E-01 4.97905E-26
5.78217E-01 4.85314E-26
5.82524E-01 4.73063E-26
5.86824E-01 4.61143E-26
5.91118E-01 4.49542E-26
5.95404E-01 4.38251E-26
5.99684E-01 4.27261E-26
6.03956E-01 4.16563E-26
6.08220E-01 4.06147E-26
6.12476E-01 3.96004E-26
6.16723E-01 3.86128E-26
6.20961E-01 3.76509E-26
6.25190E-01 3.67140E-26
6.29410E-01 3.58014E-26
6.33619E-01 3.49123E-26
6.37819E-01 3.40461E-26
6.42008E-01 3.32020E-26
6.46186E-01 3.23795E-26
6.50353E-01 3.15778E-26
6.54508E-01 3.07965E-26
6.58652E-01 3.00349E-26
6.62784E-01 2.92925E-26
6.66903E-01 2.85686E-26
6.71010E-01 2.78628E-26
6.75104E-01 2.71746E-26
6.79184E-01 2.65035E-26
6.83251E-01 2.58489E-26
6.87303E-01 2.52105E-26
6.91342E-01 2.45877E-26
6.95366E-01 2.39802E-26
6.99375E-01 2.33875E-26
7.03368E-01 2.28092E-26
7.07347E-01 2.22450E-26
7.11309E-01 2.16944E-26
7.15256E-01 2.11570E-26
7.19186E-01 2.06326E-26
7.23099E-01 2.01207E-26
7.26995E-01 1.96211E-26
7.30874E-01 1.91334E-26
7.34736E-01 1.86572E-26
7.38579E-01 1.81923E-26
7.42405E-01 1.77385E-26
7.46212E-01 1.72953E-26
7.50000E-01 1.68625E-26
7.53769E-01 1.64399E-26
7.57519E-01 1.60272E-26
7.61249E-01 1.56241E-26
7.64960E-01 1.52304E-26
7.68650E-01 1.48459E-26
7.72320E-01 1.44702E-26
7.75968E-01 1.41032E-26
7.79596E-01 1.37448E-26
7.83203E-01 1.33945E-26
7.86788E-01 1.30523E-26
7.90351E-01 1.27180E-26
7.93893E-01 1.23913E-26
7.97411E-01 1.20721E-26
8.00908E-01 1.17602E-26
8.04381E-01 1.14554E-26
8.07831E-01 1.11575E-26
8.11257E-01 1.08664E-26
8.14660E-01 1.05819E-26
8.18039E-01 1.03038E-26
8.21394E-01 1.00321E-26
8.24724E-01 9.76643E-27
8.28030E-01 9.50680E-27
8.31310E-01 9.25302E-27
8.34565E-01 9.00497E-27
8.37795E-01 8.76250E-27
8.40999E-01 8.52548E-27
8.44177E-01 8.29380E-27
8.47329E-01 8.06733E-27
8.50455E-01 7.84595E-27
8.53553E-01 7.62954E-27
8.56625E-01 7.41799E-27
8.59670E-01 7.21120E-27
8.62687E-01 7.00905E-27
8.65677E-01 6.81145E-27
8.68639E-01 6.61829E-27
8.71572E-01 6.42948E-27
8.74478E-01 6.24491E-27
8.77355E-01 6.06451E-27
8.80203E-01 5.88817E-27
8.83022E-01 5.71581E-27
8.85812E-01 5.54735E-27
8.88573E-01 5.38271E-27
8.91304E-01 5.22179E-27
8.94005E-01 5.06453E-27
8.96677E-01 4.91085E-27
8.99318E-01 4.76068E-27
9.01928E-01 4.61394E-27
9.04508E-01 4.47056E-27
9.07058E-01 4.33048E-27
9.09576E-01 4.19363E-27
9.12063E-01 4.05994E-27
9.14519E-01 3.92935E-27
9.16943E-01 3.80181E-27
9.19335E-01 3.67724E-27
9.21696E-01 3.55560E-27
9.24024E-01 3.43684E-27
9.26320E-01 3.32088E-27
9.28584E-01 3.20769E-27
9.30815E-01 3.09720E-27
9.33013E-01 2.98938E-27
9.35178E-01 2.88416E-27
9.37310E-01 2.78151E-27
9.39409E-01 2.68138E-27
9.41474E-01 2.58372E-27
9.43505E-01 2.48850E-27
9.45503E-01 2.39565E-27
9.47467E-01 2.30516E-27
9.49397E-01 2.21697E-27
9.51293E-01 2.13106E-27
9.53154E-01 2.04737E-27
9.54981E-01 1.96587E-27
9.56773E-01 1.88654E-27
9.58530E-01 1.80933E-27
9.60252E-01 1.73421E-27
9.61940E-01 1.66115E-27
9.63592E-01 1.59012E-27
9.65209E-01 1.52109E-27
9.66790E-01 1.45403E-27
9.68336E-01 1.38890E-27
9.69846E-01 1.32569E-27
9.71321E-01 1.26436E-27
9.72759E-01 1.20489E-27
9.74162E-01 1.14726E-27
9.75528E-01 1.09144E-27
9.76858E-01 1.03740E-27
9.78152E-01 9.85129E-28
9.79410E-01 9.34601E-28
9.80631E-01 8.85795E-28
9.81815E-01 8.38691E-28
9.82963E-01 7.93268E-28
9.84074E-01 7.49510E-28
9.85148E-01 7.07397E-28
9.86185E-01 6.66912E-28
9.87185E-01 6.28038E-28
9.88148E-01 5.90761E-28
9.89074E-01 5.55064E-28
9.89962E-01 5.20932E-28
9.90814E-01 4.88353E-28
9.91627E-01 4.57313E-28
9.92404E-01 4.27798E-28
9.93143E-01 3.99798E-28
9.93844E-01 3.73301E-28
9.94508E-01 3.48296E-28
9.95134E-01 3.24773E-28
9.95722E-01 3.02723E-28
9.96273E-01 2.82136E-28
9.96786E-01 2.63005E-28
9.97261E-01 2.45322E-28
9.97698E-01 2.29079E-28
9.98097E-01 2.14270E-28
9.98459E-01 2.00889E-28
9.98782E-01 1.88932E-28
9.99067E-01 1.78392E-28
9.99315E-01 1.69266E-28
9.99524E-01 1.61550E-28
9.99695E-01 1.55242E-28
9.99829E-01 1.50338E-28
9.99924E-01 1.46836E-28
9.99981E-01 1.44736E-28
1.00000E+00 1.44036E-28
