 #
 # Subroutine ELSEPA. Elastic scattering of electrons and positrons
 #                    by neutral atoms and positive ions
 #
 # Projectile: positron
 # Kinetic energy = 4.50000E+07 eV = 1.65372E+06 a.u.
 #
 # WARNING: High-energy factorization with free-atom DF screening.
 #          Absorption, polarization and exchange corrections are
 #          switched off.
 #          Phase shifts are calculated for the bare nucleus.
 #          Scattering amplitudes are not evaluated.
 #
 # Element: Cu,  Z =  29,  atomic weight = 6.35460E+01 g/mol
 #
 # Nuclear model: Fermi distribution
 #                Average radius = 4.26986E-13 cm
 #                Skin thickness = 5.46000E-14 cm
 #
 # Number of electrons = 29
 #
 # Total elastic cross section = 1.84051E-18 cm**2 = 6.57257E-02 a0**2
 # 1st transport cross section = 7.71224E-25 cm**2 = 2.75409E-08 a0**2
 # 2nd transport cross section = 2.26017E-24 cm**2 = 8.07123E-08 a0**2
 #
 #
 # Differential cross section:                       MU=(1-COS(THETA))/2
 #
 #  THETA        MU          DCS          DCS        Sherman      error
 #  (deg)                 (cm**2/sr)   (a0**2/sr)    function
 #----------------------------------------------------------------------
0.00000E+00 2.45215E-11
7.61557E-13 2.45091E-11
1.18994E-12 2.45021E-11
1.71346E-12 2.44937E-11
2.33225E-12 2.44837E-11
3.04617E-12 2.44722E-11
3.85530E-12 2.44591E-11
4.75964E-12 2.44446E-11
5.75917E-12 2.44285E-11
6.85391E-12 2.44109E-11
8.04379E-12 2.43919E-11
9.32893E-12 2.43713E-11
1.07092E-11 2.43493E-11
1.21847E-11 2.43258E-11
1.37554E-11 2.43008E-11
1.54213E-11 2.42743E-11
1.71823E-11 2.42464E-11
1.90386E-11 2.42171E-11
2.09900E-11 2.41863E-11
2.30367E-11 2.41542E-11
2.51785E-11 2.41206E-11
2.74156E-11 2.40856E-11
2.97478E-11 2.40492E-11
3.21752E-11 2.40114E-11
3.46979E-11 2.39723E-11
3.73157E-11 2.39319E-11
4.00286E-11 2.38901E-11
4.28368E-11 2.38470E-11
4.57402E-11 2.38025E-11
4.87388E-11 2.37568E-11
5.18325E-11 2.37099E-11
5.50215E-11 2.36616E-11
5.83057E-11 2.36121E-11
6.16850E-11 2.35614E-11
6.51595E-11 2.35095E-11
6.87293E-11 2.34564E-11
7.23943E-11 2.34021E-11
7.61544E-11 2.33466E-11
1.18991E-10 2.27313E-11
1.71347E-10 2.20218E-11
2.33223E-10 2.12348E-11
3.04617E-10 2.03923E-11
3.85531E-10 1.95136E-11
4.75965E-10 1.86165E-11
5.75917E-10 1.77162E-11
6.85389E-10 1.68247E-11
8.04380E-10 1.59507E-11
9.32891E-10 1.51048E-11
1.07092E-09 1.42929E-11
1.21847E-09 1.35187E-11
1.37554E-09 1.27845E-11
1.54213E-09 1.20899E-11
1.71823E-09 1.14344E-11
1.90386E-09 1.08190E-11
2.09900E-09 1.02423E-11
2.30367E-09 9.70244E-12
2.51785E-09 9.19744E-12
2.74156E-09 8.72375E-12
2.97478E-09 8.27967E-12
3.21752E-09 7.86419E-12
3.46978E-09 7.47525E-12
3.73156E-09 7.11089E-12
4.00286E-09 6.76927E-12
4.28368E-09 6.44728E-12
4.57402E-09 6.14426E-12
4.87388E-09 5.85933E-12
5.18326E-09 5.59113E-12
5.50215E-09 5.33841E-12
5.83057E-09 5.10002E-12
6.16850E-09 4.87369E-12
6.51596E-09 4.65960E-12
6.87293E-09 4.45711E-12
7.23942E-09 4.26541E-12
7.61544E-09 4.08376E-12
1.18991E-08 2.66581E-12
1.71347E-08 1.81002E-12
2.33223E-08 1.23518E-12
3.04617E-08 8.60918E-13
3.85531E-08 6.11002E-13
4.75965E-08 4.40876E-13
5.75917E-08 3.23253E-13
6.85389E-08 2.40617E-13
8.04380E-08 1.81853E-13
9.32891E-08 1.39799E-13
1.07092E-07 1.09184E-13
1.21847E-07 8.65389E-14
1.37554E-07 6.95357E-14
1.54213E-07 5.65758E-14
1.71823E-07 4.65613E-14
1.90386E-07 3.87248E-14
2.09900E-07 3.25136E-14
2.30367E-07 2.75322E-14
2.51785E-07 2.34934E-14
2.74156E-07 2.01833E-14
2.97478E-07 1.74423E-14
3.21752E-07 1.51581E-14
3.46978E-07 1.32404E-14
3.73156E-07 1.16192E-14
4.00286E-07 1.02400E-14
4.28368E-07 9.05782E-15
4.57402E-07 8.04024E-15
4.87388E-07 7.16075E-15
5.18325E-07 6.39720E-15
5.50215E-07 5.73160E-15
5.83057E-07 5.14920E-15
6.16850E-07 4.63709E-15
6.51596E-07 4.18614E-15
6.87293E-07 3.78797E-15
7.23942E-07 3.43540E-15
7.61543E-07 3.12235E-15
1.18991E-06 1.32659E-15
1.71347E-06 6.52191E-16
2.33223E-06 3.56697E-16
3.04617E-06 2.11371E-16
3.85531E-06 1.33218E-16
4.75964E-06 8.81359E-17
5.75916E-06 6.06342E-17
6.85388E-06 4.30771E-17
8.04378E-06 3.14393E-17
9.32888E-06 2.34774E-17
1.07092E-05 1.78814E-17
1.21846E-05 1.38558E-17
1.37553E-05 1.09005E-17
1.54212E-05 8.69158E-18
1.71822E-05 7.01410E-18
1.90385E-05 5.72128E-18
2.09899E-05 4.71363E-18
2.30365E-05 3.91795E-18
2.51783E-05 3.28289E-18
2.74153E-05 2.77111E-18
2.97475E-05 2.35507E-18
3.21749E-05 2.01414E-18
3.46974E-05 1.73268E-18
3.73152E-05 1.49870E-18
4.00281E-05 1.30290E-18
4.28362E-05 1.13805E-18
4.57395E-05 9.98440E-19
4.87380E-05 8.79562E-19
5.18317E-05 7.77830E-19
5.50205E-05 6.90364E-19
5.83045E-05 6.14837E-19
6.16838E-05 5.49353E-19
6.51582E-05 4.92357E-19
6.87277E-05 4.42563E-19
7.23925E-05 3.98907E-19
7.61524E-05 3.60504E-19
9.21439E-05 2.46223E-19
1.09658E-04 1.73819E-19
1.28695E-04 1.26169E-19
1.49255E-04 9.37719E-20
1.71338E-04 7.11336E-20
1.94942E-04 5.49281E-20
2.20070E-04 4.30830E-20
2.46720E-04 3.42637E-20
2.74892E-04 2.75881E-20
3.04586E-04 2.24610E-20
3.35803E-04 1.84705E-20
3.68542E-04 1.53275E-20
4.02802E-04 1.28248E-20
4.38585E-04 1.08123E-20
4.75889E-04 9.17918E-21
5.14715E-04 7.84273E-21
5.55063E-04 6.74067E-21
5.96931E-04 5.82534E-21
6.40321E-04 5.06007E-21
6.85233E-04 4.41630E-21
7.31665E-04 3.87159E-21
7.79618E-04 3.40824E-21
8.29092E-04 3.01208E-21
8.80086E-04 2.67177E-21
9.32601E-04 2.37812E-21
9.86636E-04 2.12367E-21
1.04219E-03 1.90231E-21
1.09927E-03 1.70901E-21
1.15786E-03 1.53961E-21
1.21797E-03 1.39065E-21
1.27961E-03 1.25925E-21
1.34276E-03 1.14298E-21
1.40743E-03 1.03980E-21
1.47362E-03 9.47987E-22
1.54133E-03 8.66066E-22
1.61056E-03 7.92789E-22
1.68131E-03 7.27084E-22
1.75357E-03 6.68033E-22
1.82735E-03 6.14845E-22
1.90265E-03 5.66834E-22
1.97947E-03 5.23409E-22
2.05780E-03 4.84055E-22
2.13765E-03 4.48322E-22
2.21902E-03 4.15818E-22
2.30190E-03 3.86200E-22
2.38630E-03 3.59166E-22
2.47222E-03 3.34451E-22
2.55965E-03 3.11820E-22
2.64859E-03 2.91066E-22
2.73905E-03 2.72006E-22
2.83103E-03 2.54476E-22
2.92452E-03 2.38332E-22
3.01952E-03 2.23444E-22
3.11604E-03 2.09697E-22
3.21407E-03 1.96989E-22
3.31362E-03 1.85225E-22
3.41468E-03 1.74324E-22
3.51725E-03 1.64211E-22
3.62133E-03 1.54818E-22
3.72692E-03 1.46085E-22
3.83403E-03 1.37957E-22
3.94265E-03 1.30385E-22
4.05278E-03 1.23323E-22
4.16442E-03 1.16731E-22
4.27757E-03 1.10573E-22
4.39223E-03 1.04813E-22
4.50840E-03 9.94229E-23
4.62608E-03 9.43729E-23
4.74527E-03 8.96385E-23
4.86597E-03 8.51962E-23
4.98817E-03 8.10244E-23
5.11188E-03 7.71039E-23
5.23711E-03 7.34167E-23
5.36383E-03 6.99463E-23
5.49207E-03 6.66777E-23
5.62181E-03 6.35970E-23
5.75306E-03 6.06915E-23
5.88581E-03 5.79492E-23
6.02007E-03 5.53594E-23
6.15583E-03 5.29120E-23
6.29310E-03 5.05977E-23
6.43187E-03 4.84080E-23
6.57214E-03 4.63349E-23
6.71392E-03 4.43711E-23
6.85720E-03 4.25097E-23
7.00198E-03 4.07444E-23
7.14827E-03 3.90693E-23
7.29605E-03 3.74790E-23
7.44534E-03 3.59684E-23
7.59612E-03 3.45327E-23
7.97965E-03 3.12432E-23
8.37255E-03 2.83343E-23
8.77480E-03 2.57544E-23
9.18641E-03 2.34600E-23
9.60736E-03 2.14141E-23
1.00376E-02 1.95851E-23
1.04773E-02 1.79462E-23
1.09262E-02 1.64741E-23
1.13844E-02 1.51489E-23
1.18520E-02 1.39535E-23
1.23288E-02 1.28730E-23
1.28150E-02 1.18943E-23
1.33104E-02 1.10062E-23
1.38150E-02 1.01989E-23
1.43290E-02 9.46371E-24
1.48521E-02 8.79309E-24
1.53845E-02 8.18037E-24
1.59262E-02 7.61968E-24
1.64770E-02 7.10581E-24
1.70371E-02 6.63418E-24
1.76063E-02 6.20070E-24
1.81848E-02 5.80173E-24
1.87724E-02 5.43406E-24
1.93692E-02 5.09478E-24
1.99751E-02 4.78132E-24
2.05901E-02 4.49137E-24
2.12143E-02 4.22285E-24
2.18476E-02 3.97390E-24
2.24900E-02 3.74284E-24
2.31415E-02 3.52815E-24
2.38021E-02 3.32847E-24
2.44717E-02 3.14256E-24
2.51504E-02 2.96930E-24
2.58382E-02 2.80769E-24
2.65349E-02 2.65679E-24
2.72407E-02 2.51578E-24
2.79555E-02 2.38388E-24
2.86793E-02 2.26041E-24
2.94120E-02 2.14472E-24
3.01537E-02 2.03625E-24
3.09043E-02 1.93446E-24
3.16639E-02 1.83887E-24
3.24324E-02 1.74902E-24
3.32098E-02 1.66453E-24
3.39961E-02 1.58500E-24
3.47912E-02 1.51009E-24
3.55952E-02 1.43950E-24
3.64081E-02 1.37292E-24
3.72297E-02 1.31008E-24
3.80602E-02 1.25075E-24
3.88995E-02 1.19468E-24
3.97476E-02 1.14167E-24
4.06044E-02 1.09152E-24
4.14700E-02 1.04405E-24
4.23443E-02 9.99086E-25
4.32273E-02 9.56477E-25
4.41190E-02 9.16076E-25
4.50194E-02 8.77748E-25
4.59284E-02 8.41368E-25
4.68461E-02 8.06819E-25
4.87074E-02 7.42788E-25
5.06030E-02 6.84871E-25
5.25328E-02 6.32386E-25
5.44967E-02 5.84738E-25
5.64946E-02 5.41407E-25
5.85262E-02 5.01935E-25
6.05914E-02 4.65921E-25
6.26901E-02 4.33011E-25
6.48222E-02 4.02892E-25
6.69873E-02 3.75288E-25
6.91854E-02 3.49953E-25
7.14163E-02 3.26670E-25
7.36799E-02 3.05244E-25
7.59760E-02 2.85503E-25
7.83043E-02 2.67291E-25
8.06647E-02 2.50470E-25
8.30571E-02 2.34916E-25
8.54812E-02 2.20518E-25
8.79369E-02 2.07175E-25
9.04240E-02 1.94797E-25
9.29422E-02 1.83302E-25
9.54915E-02 1.72618E-25
9.80716E-02 1.62677E-25
1.00682E-01 1.53418E-25
1.03323E-01 1.44788E-25
1.05995E-01 1.36736E-25
1.08696E-01 1.29218E-25
1.11427E-01 1.22191E-25
1.14188E-01 1.15619E-25
1.16978E-01 1.09468E-25
1.19797E-01 1.03705E-25
1.22645E-01 9.83020E-26
1.25522E-01 9.32334E-26
1.28428E-01 8.84747E-26
1.31361E-01 8.40039E-26
1.34323E-01 7.98007E-26
1.37313E-01 7.58464E-26
1.40330E-01 7.21240E-26
1.43375E-01 6.86175E-26
1.46447E-01 6.53124E-26
1.49545E-01 6.21953E-26
1.52671E-01 5.92537E-26
1.55823E-01 5.64761E-26
1.59001E-01 5.38520E-26
1.62205E-01 5.13714E-26
1.65435E-01 4.90252E-26
1.68690E-01 4.68051E-26
1.71970E-01 4.47030E-26
1.75276E-01 4.27119E-26
1.78606E-01 4.08247E-26
1.81961E-01 3.90354E-26
1.85340E-01 3.73379E-26
1.88743E-01 3.57268E-26
1.92169E-01 3.41971E-26
1.95619E-01 3.27439E-26
1.99092E-01 3.13628E-26
2.02589E-01 3.00498E-26
2.06107E-01 2.88008E-26
2.09649E-01 2.76124E-26
2.13212E-01 2.64811E-26
2.16797E-01 2.54037E-26
2.20404E-01 2.43772E-26
2.24032E-01 2.33990E-26
2.27680E-01 2.24663E-26
2.31350E-01 2.15768E-26
2.35040E-01 2.07281E-26
2.38751E-01 1.99180E-26
2.42481E-01 1.91446E-26
2.46231E-01 1.84059E-26
2.50000E-01 1.77001E-26
2.53788E-01 1.70256E-26
2.57595E-01 1.63807E-26
2.61421E-01 1.57640E-26
2.65264E-01 1.51740E-26
2.69126E-01 1.46094E-26
2.73005E-01 1.40690E-26
2.76901E-01 1.35515E-26
2.80814E-01 1.30559E-26
2.84744E-01 1.25810E-26
2.88691E-01 1.21260E-26
2.92653E-01 1.16897E-26
2.96632E-01 1.12715E-26
3.00625E-01 1.08703E-26
3.04634E-01 1.04854E-26
3.08658E-01 1.01161E-26
3.12697E-01 9.76161E-27
3.16749E-01 9.42125E-27
3.20816E-01 9.09439E-27
3.24896E-01 8.78043E-27
3.28990E-01 8.47877E-27
3.33097E-01 8.18886E-27
3.37216E-01 7.91020E-27
3.41348E-01 7.64227E-27
3.45492E-01 7.38460E-27
3.49647E-01 7.13676E-27
3.53814E-01 6.89831E-27
3.57992E-01 6.66885E-27
3.62181E-01 6.44798E-27
3.66381E-01 6.23536E-27
3.70590E-01 6.03062E-27
3.74810E-01 5.83344E-27
3.79039E-01 5.64349E-27
3.83277E-01 5.46048E-27
3.87524E-01 5.28412E-27
3.91780E-01 5.11413E-27
3.96044E-01 4.95026E-27
4.00316E-01 4.79225E-27
4.04596E-01 4.63988E-27
4.08882E-01 4.49290E-27
4.13176E-01 4.35110E-27
4.17476E-01 4.21429E-27
4.21783E-01 4.08225E-27
4.26095E-01 3.95481E-27
4.30413E-01 3.83177E-27
4.34737E-01 3.71298E-27
4.39065E-01 3.59826E-27
4.43398E-01 3.48745E-27
4.47736E-01 3.38041E-27
4.52077E-01 3.27700E-27
4.56422E-01 3.17707E-27
4.60770E-01 3.08049E-27
4.65122E-01 2.98713E-27
4.69476E-01 2.89689E-27
4.73832E-01 2.80962E-27
4.78190E-01 2.72524E-27
4.82550E-01 2.64363E-27
4.86912E-01 2.56469E-27
4.91274E-01 2.48831E-27
4.95637E-01 2.41442E-27
5.00000E-01 2.34291E-27
5.04363E-01 2.27371E-27
5.08726E-01 2.20672E-27
5.13088E-01 2.14187E-27
5.17450E-01 2.07908E-27
5.21810E-01 2.01828E-27
5.26168E-01 1.95940E-27
5.30524E-01 1.90238E-27
5.34878E-01 1.84714E-27
5.39230E-01 1.79362E-27
5.43578E-01 1.74176E-27
5.47923E-01 1.69152E-27
5.52264E-01 1.64282E-27
5.56602E-01 1.59562E-27
5.60935E-01 1.54987E-27
5.65263E-01 1.50552E-27
5.69587E-01 1.46251E-27
5.73905E-01 1.42081E-27
5.78217E-01 1.38037E-27
5.82524E-01 1.34115E-27
5.86824E-01 1.30310E-27
5.91118E-01 1.26620E-27
5.95404E-01 1.23039E-27
5.99684E-01 1.19565E-27
6.03956E-01 1.16194E-27
6.08220E-01 1.12922E-27
6.12476E-01 1.09747E-27
6.16723E-01 1.06665E-27
6.20961E-01 1.03673E-27
6.25190E-01 1.00768E-27
6.29410E-01 9.79482E-28
6.33619E-01 9.52097E-28
6.37819E-01 9.25504E-28
6.42008E-01 8.99677E-28
6.46186E-01 8.74592E-28
6.50353E-01 8.50226E-28
6.54508E-01 8.26556E-28
6.58652E-01 8.03560E-28
6.62784E-01 7.81217E-28
6.66903E-01 7.59506E-28
6.71010E-01 7.38409E-28
6.75104E-01 7.17907E-28
6.79184E-01 6.97980E-28
6.83251E-01 6.78611E-28
6.87303E-01 6.59784E-28
6.91342E-01 6.41481E-28
6.95366E-01 6.23687E-28
6.99375E-01 6.06386E-28
7.03368E-01 5.89564E-28
7.07347E-01 5.73205E-28
7.11309E-01 5.57297E-28
7.15256E-01 5.41826E-28
7.19186E-01 5.26778E-28
7.23099E-01 5.12141E-28
7.26995E-01 4.97903E-28
7.30874E-01 4.84052E-28
7.34736E-01 4.70577E-28
7.38579E-01 4.57467E-28
7.42405E-01 4.44710E-28
7.46212E-01 4.32298E-28
7.50000E-01 4.20219E-28
7.53769E-01 4.08464E-28
7.57519E-01 3.97024E-28
7.61249E-01 3.85890E-28
7.64960E-01 3.75053E-28
7.68650E-01 3.64504E-28
7.72320E-01 3.54236E-28
7.75968E-01 3.44240E-28
7.79596E-01 3.34508E-28
7.83203E-01 3.25034E-28
7.86788E-01 3.15809E-28
7.90351E-01 3.06827E-28
7.93893E-01 2.98082E-28
7.97411E-01 2.89565E-28
8.00908E-01 2.81272E-28
8.04381E-01 2.73196E-28
8.07831E-01 2.65331E-28
8.11257E-01 2.57671E-28
8.14660E-01 2.50211E-28
8.18039E-01 2.42944E-28
8.21394E-01 2.35867E-28
8.24724E-01 2.28973E-28
8.28030E-01 2.22258E-28
8.31310E-01 2.15717E-28
8.34565E-01 2.09344E-28
8.37795E-01 2.03137E-28
8.40999E-01 1.97090E-28
8.44177E-01 1.91199E-28
8.47329E-01 1.85459E-28
8.50455E-01 1.79868E-28
8.53553E-01 1.74420E-28
8.56625E-01 1.69113E-28
8.59670E-01 1.63942E-28
8.62687E-01 1.58905E-28
8.65677E-01 1.53996E-28
8.68639E-01 1.49214E-28
8.71572E-01 1.44555E-28
8.74478E-01 1.40015E-28
8.77355E-01 1.35593E-28
8.80203E-01 1.31283E-28
8.83022E-01 1.27085E-28
8.85812E-01 1.22995E-28
8.88573E-01 1.19010E-28
8.91304E-01 1.15128E-28
8.94005E-01 1.11346E-28
8.96677E-01 1.07662E-28
8.99318E-01 1.04072E-28
9.01928E-01 1.00576E-28
9.04508E-01 9.71706E-29
9.07058E-01 9.38535E-29
9.09576E-01 9.06226E-29
9.12063E-01 8.74759E-29
9.14519E-01 8.44114E-29
9.16943E-01 8.14271E-29
9.19335E-01 7.85212E-29
9.21696E-01 7.56917E-29
9.24024E-01 7.29370E-29
9.26320E-01 7.02552E-29
9.28584E-01 6.76447E-29
9.30815E-01 6.51039E-29
9.33013E-01 6.26311E-29
9.35178E-01 6.02248E-29
9.37310E-01 5.78835E-29
9.39409E-01 5.56058E-29
9.41474E-01 5.33902E-29
9.43505E-01 5.12355E-29
9.45503E-01 4.91402E-29
9.47467E-01 4.71032E-29
9.49397E-01 4.51230E-29
9.51293E-01 4.31987E-29
9.53154E-01 4.13289E-29
9.54981E-01 3.95125E-29
9.56773E-01 3.77485E-29
9.58530E-01 3.60358E-29
9.60252E-01 3.43733E-29
9.61940E-01 3.27600E-29
9.63592E-01 3.11951E-29
9.65209E-01 2.96775E-29
9.66790E-01 2.82064E-29
9.68336E-01 2.67808E-29
9.69846E-01 2.54000E-29
9.71321E-01 2.40631E-29
9.72759E-01 2.27693E-29
9.74162E-01 2.15178E-29
9.75528E-01 2.03080E-29
9.76858E-01 1.91391E-29
9.78152E-01 1.80104E-29
9.79410E-01 1.69213E-29
9.80631E-01 1.58712E-29
9.81815E-01 1.48593E-29
9.82963E-01 1.38852E-29
9.84074E-01 1.29482E-29
9.85148E-01 1.20479E-29
9.86185E-01 1.11837E-29
9.87185E-01 1.03550E-29
9.88148E-01 9.56151E-30
9.89074E-01 8.80267E-30
9.89962E-01 8.07804E-30
9.90814E-01 7.38723E-30
9.91627E-01 6.72982E-30
9.92404E-01 6.10546E-30
9.93143E-01 5.51377E-30
9.93844E-01 4.95442E-30
9.94508E-01 4.42709E-30
9.95134E-01 3.93147E-30
9.95722E-01 3.46730E-30
9.96273E-01 3.03429E-30
9.96786E-01 2.63220E-30
9.97261E-01 2.26081E-30
9.97698E-01 1.91990E-30
9.98097E-01 1.60928E-30
9.98459E-01 1.32877E-30
9.98782E-01 1.07821E-30
9.99067E-01 8.57465E-31
9.99315E-01 6.66405E-31
9.99524E-01 5.04924E-31
9.99695E-01 3.72925E-31
9.99829E-01 2.70338E-31
9.99924E-01 1.97102E-31
9.99981E-01 1.53177E-31
1.00000E+00 1.38538E-31
