 #
 # Subroutine ELSEPA. Elastic scattering of electrons and positrons
 #                    by neutral atoms and positive ions
 #
 # Projectile: positron
 # Kinetic energy = 5.00000E+07 eV = 1.83747E+06 a.u.
 #
 # WARNING: High-energy factorization with free-atom DF screening.
 #          Absorption, polarization and exchange corrections are
 #          switched off.
 #          Phase shifts are calculated for the bare nucleus.
 #          Scattering amplitudes are not evaluated.
 #
 # Element: Cu,  Z =  29,  atomic weight = 6.35460E+01 g/mol
 #
 # Nuclear model: Fermi distribution
 #                Average radius = 4.26986E-13 cm
 #                Skin thickness = 5.46000E-14 cm
 #
 # Number of electrons = 29
 #
 # Total elastic cross section = 1.83857E-18 cm**2 = 6.56565E-02 a0**2
 # 1st transport cross section = 6.32466E-25 cm**2 = 2.25858E-08 a0**2
 # 2nd transport cross section = 1.85615E-24 cm**2 = 6.62843E-08 a0**2
 #
 #
 # Differential cross section:                       MU=(1-COS(THETA))/2
 #
 #  THETA        MU          DCS          DCS        Sherman      error
 #  (deg)                 (cm**2/sr)   (a0**2/sr)    function
 #----------------------------------------------------------------------
0.00000E+00 3.02055E-11
7.61557E-13 3.01867E-11
1.18994E-12 3.01762E-11
1.71346E-12 3.01633E-11
2.33225E-12 3.01482E-11
3.04617E-12 3.01307E-11
3.85530E-12 3.01110E-11
4.75964E-12 3.00889E-11
5.75917E-12 3.00646E-11
6.85391E-12 3.00380E-11
8.04379E-12 3.00091E-11
9.32893E-12 2.99780E-11
1.07092E-11 2.99447E-11
1.21847E-11 2.99091E-11
1.37554E-11 2.98713E-11
1.54213E-11 2.98314E-11
1.71823E-11 2.97893E-11
1.90386E-11 2.97450E-11
2.09900E-11 2.96986E-11
2.30367E-11 2.96500E-11
2.51785E-11 2.95994E-11
2.74156E-11 2.95467E-11
2.97478E-11 2.94920E-11
3.21752E-11 2.94352E-11
3.46979E-11 2.93764E-11
3.73157E-11 2.93157E-11
4.00286E-11 2.92529E-11
4.28368E-11 2.91883E-11
4.57402E-11 2.91217E-11
4.87388E-11 2.90533E-11
5.18325E-11 2.89830E-11
5.50215E-11 2.89109E-11
5.83057E-11 2.88370E-11
6.16850E-11 2.87613E-11
6.51595E-11 2.86839E-11
6.87293E-11 2.86048E-11
7.23943E-11 2.85240E-11
7.61544E-11 2.84416E-11
1.18991E-10 2.75319E-11
1.71347E-10 2.64949E-11
2.33223E-10 2.53632E-11
3.04617E-10 2.41696E-11
3.85531E-10 2.29441E-11
4.75965E-10 2.17128E-11
5.75917E-10 2.04972E-11
6.85389E-10 1.93140E-11
8.04380E-10 1.81750E-11
9.32891E-10 1.70882E-11
1.07092E-09 1.60602E-11
1.21847E-09 1.50934E-11
1.37554E-09 1.41881E-11
1.54213E-09 1.33432E-11
1.71823E-09 1.25563E-11
1.90386E-09 1.18246E-11
2.09900E-09 1.11446E-11
2.30367E-09 1.05128E-11
2.51785E-09 9.92561E-12
2.74156E-09 9.37962E-12
2.97478E-09 8.87148E-12
3.21752E-09 8.39708E-12
3.46978E-09 7.95445E-12
3.73156E-09 7.54112E-12
4.00286E-09 7.15467E-12
4.28368E-09 6.79289E-12
4.57402E-09 6.45376E-12
4.87388E-09 6.13548E-12
5.18326E-09 5.83639E-12
5.50215E-09 5.55503E-12
5.83057E-09 5.29004E-12
6.16850E-09 5.04021E-12
6.51596E-09 4.80444E-12
6.87293E-09 4.58156E-12
7.23942E-09 4.37044E-12
7.61544E-09 4.17072E-12
1.18991E-08 2.61985E-12
1.71347E-08 1.71833E-12
2.33223E-08 1.15010E-12
3.04617E-08 7.84319E-13
3.85531E-08 5.45049E-13
4.75965E-08 3.86204E-13
5.75917E-08 2.79145E-13
6.85389E-08 2.05825E-13
8.04380E-08 1.54720E-13
9.32891E-08 1.18493E-13
1.07092E-07 9.23646E-14
1.21847E-07 7.31677E-14
1.37554E-07 5.88110E-14
1.54213E-07 4.78927E-14
1.71823E-07 3.94583E-14
1.90386E-07 3.28475E-14
2.09900E-07 2.75972E-14
2.30367E-07 2.33759E-14
2.51785E-07 1.99419E-14
2.74156E-07 1.71237E-14
2.97478E-07 1.47903E-14
3.21752E-07 1.28413E-14
3.46978E-07 1.12027E-14
3.73156E-07 9.81605E-15
4.00286E-07 8.63573E-15
4.28368E-07 7.62560E-15
4.57402E-07 6.75697E-15
4.87388E-07 6.00676E-15
5.18325E-07 5.35625E-15
5.50215E-07 4.79011E-15
5.83057E-07 4.29571E-15
6.16850E-07 3.86253E-15
6.51596E-07 3.48179E-15
6.87293E-07 3.14609E-15
7.23942E-07 2.84921E-15
7.61543E-07 2.58605E-15
1.18991E-06 1.08971E-15
1.71347E-06 5.34304E-16
2.33223E-06 2.92069E-16
3.04617E-06 1.73056E-16
3.85531E-06 1.09053E-16
4.75964E-06 7.21246E-17
5.75916E-06 4.95912E-17
6.85388E-06 3.52101E-17
8.04378E-06 2.56818E-17
9.32888E-06 1.91658E-17
1.07092E-05 1.45890E-17
1.21846E-05 1.12987E-17
1.37553E-05 8.88455E-18
1.54212E-05 7.08108E-18
1.71822E-05 5.71225E-18
1.90385E-05 4.65782E-18
2.09899E-05 3.83631E-18
2.30365E-05 3.18788E-18
2.51783E-05 2.67054E-18
2.74153E-05 2.25376E-18
2.97475E-05 1.91504E-18
3.21749E-05 1.63755E-18
3.46974E-05 1.40852E-18
3.73152E-05 1.21816E-18
4.00281E-05 1.05890E-18
4.28362E-05 9.24834E-19
4.57395E-05 8.11307E-19
4.87380E-05 7.14655E-19
5.18317E-05 6.31952E-19
5.50205E-05 5.60854E-19
5.83045E-05 4.99467E-19
6.16838E-05 4.46248E-19
6.51582E-05 3.99930E-19
6.87277E-05 3.59469E-19
7.23925E-05 3.23997E-19
7.61524E-05 2.92795E-19
9.21439E-05 1.99956E-19
1.09658E-04 1.41146E-19
1.28695E-04 1.02446E-19
1.49255E-04 7.61376E-20
1.71338E-04 5.77545E-20
1.94942E-04 4.45959E-20
2.20070E-04 3.49781E-20
2.46720E-04 2.78174E-20
2.74892E-04 2.23974E-20
3.04586E-04 1.82348E-20
3.35803E-04 1.49949E-20
3.68542E-04 1.24432E-20
4.02802E-04 1.04114E-20
4.38585E-04 8.77753E-21
4.75889E-04 7.45167E-21
5.14715E-04 6.36670E-21
5.55063E-04 5.47201E-21
5.96931E-04 4.72892E-21
6.40321E-04 4.10766E-21
6.85233E-04 3.58503E-21
7.31665E-04 3.14284E-21
7.79618E-04 2.76668E-21
8.29092E-04 2.44508E-21
8.80086E-04 2.16881E-21
9.32601E-04 1.93043E-21
9.86636E-04 1.72387E-21
1.04219E-03 1.54417E-21
1.09927E-03 1.38725E-21
1.15786E-03 1.24974E-21
1.21797E-03 1.12881E-21
1.27961E-03 1.02215E-21
1.34276E-03 9.27762E-22
1.40743E-03 8.44005E-22
1.47362E-03 7.69472E-22
1.54133E-03 7.02971E-22
1.61056E-03 6.43488E-22
1.68131E-03 5.90151E-22
1.75357E-03 5.42217E-22
1.82735E-03 4.99041E-22
1.90265E-03 4.60068E-22
1.97947E-03 4.24819E-22
2.05780E-03 3.92873E-22
2.13765E-03 3.63867E-22
2.21902E-03 3.37483E-22
2.30190E-03 3.13442E-22
2.38630E-03 2.91498E-22
2.47222E-03 2.71435E-22
2.55965E-03 2.53066E-22
2.64859E-03 2.36219E-22
2.73905E-03 2.20748E-22
2.83103E-03 2.06519E-22
2.92452E-03 1.93415E-22
3.01952E-03 1.81330E-22
3.11604E-03 1.70172E-22
3.21407E-03 1.59857E-22
3.31362E-03 1.50309E-22
3.41468E-03 1.41461E-22
3.51725E-03 1.33252E-22
3.62133E-03 1.25628E-22
3.72692E-03 1.18540E-22
3.83403E-03 1.11943E-22
3.94265E-03 1.05797E-22
4.05278E-03 1.00065E-22
4.16442E-03 9.47152E-23
4.27757E-03 8.97165E-23
4.39223E-03 8.50420E-23
4.50840E-03 8.06668E-23
4.62608E-03 7.65683E-23
4.74527E-03 7.27258E-23
4.86597E-03 6.91203E-23
4.98817E-03 6.57345E-23
5.11188E-03 6.25527E-23
5.23711E-03 5.95602E-23
5.36383E-03 5.67438E-23
5.49207E-03 5.40911E-23
5.62181E-03 5.15909E-23
5.75306E-03 4.92329E-23
5.88581E-03 4.70075E-23
6.02007E-03 4.49057E-23
6.15583E-03 4.29196E-23
6.29310E-03 4.10415E-23
6.43187E-03 3.92645E-23
6.57214E-03 3.75822E-23
6.71392E-03 3.59886E-23
6.85720E-03 3.44781E-23
7.00198E-03 3.30456E-23
7.14827E-03 3.16863E-23
7.29605E-03 3.03958E-23
7.44534E-03 2.91700E-23
7.59612E-03 2.80050E-23
7.97965E-03 2.53358E-23
8.37255E-03 2.29755E-23
8.77480E-03 2.08822E-23
9.18641E-03 1.90206E-23
9.60736E-03 1.73607E-23
1.00376E-02 1.58768E-23
1.04773E-02 1.45472E-23
1.09262E-02 1.33529E-23
1.13844E-02 1.22779E-23
1.18520E-02 1.13082E-23
1.23288E-02 1.04317E-23
1.28150E-02 9.63783E-24
1.33104E-02 8.91750E-24
1.38150E-02 8.26271E-24
1.43290E-02 7.66644E-24
1.48521E-02 7.12256E-24
1.53845E-02 6.62566E-24
1.59262E-02 6.17096E-24
1.64770E-02 5.75426E-24
1.70371E-02 5.37183E-24
1.76063E-02 5.02035E-24
1.81848E-02 4.69687E-24
1.87724E-02 4.39877E-24
1.93692E-02 4.12371E-24
1.99751E-02 3.86960E-24
2.05901E-02 3.63455E-24
2.12143E-02 3.41689E-24
2.18476E-02 3.21511E-24
2.24900E-02 3.02783E-24
2.31415E-02 2.85383E-24
2.38021E-02 2.69200E-24
2.44717E-02 2.54135E-24
2.51504E-02 2.40096E-24
2.58382E-02 2.27000E-24
2.65349E-02 2.14774E-24
2.72407E-02 2.03349E-24
2.79555E-02 1.92664E-24
2.86793E-02 1.82662E-24
2.94120E-02 1.73291E-24
3.01537E-02 1.64505E-24
3.09043E-02 1.56261E-24
3.16639E-02 1.48519E-24
3.24324E-02 1.41244E-24
3.32098E-02 1.34402E-24
3.39961E-02 1.27962E-24
3.47912E-02 1.21898E-24
3.55952E-02 1.16183E-24
3.64081E-02 1.10793E-24
3.72297E-02 1.05707E-24
3.80602E-02 1.00904E-24
3.88995E-02 9.63665E-25
3.97476E-02 9.20766E-25
4.06044E-02 8.80184E-25
4.14700E-02 8.41773E-25
4.23443E-02 8.05395E-25
4.32273E-02 7.70924E-25
4.41190E-02 7.38242E-25
4.50194E-02 7.07240E-25
4.59284E-02 6.77816E-25
4.68461E-02 6.49875E-25
4.87074E-02 5.98098E-25
5.06030E-02 5.51273E-25
5.25328E-02 5.08849E-25
5.44967E-02 4.70341E-25
5.64946E-02 4.35329E-25
5.85262E-02 4.03441E-25
6.05914E-02 3.74353E-25
6.26901E-02 3.47777E-25
6.48222E-02 3.23460E-25
6.69873E-02 3.01179E-25
6.91854E-02 2.80734E-25
7.14163E-02 2.61948E-25
7.36799E-02 2.44666E-25
7.59760E-02 2.28745E-25
7.83043E-02 2.14062E-25
8.06647E-02 2.00503E-25
8.30571E-02 1.87969E-25
8.54812E-02 1.76369E-25
8.79369E-02 1.65622E-25
9.04240E-02 1.55655E-25
9.29422E-02 1.46402E-25
9.54915E-02 1.37803E-25
9.80716E-02 1.29804E-25
1.00682E-01 1.22357E-25
1.03323E-01 1.15418E-25
1.05995E-01 1.08945E-25
1.08696E-01 1.02903E-25
1.11427E-01 9.72575E-26
1.14188E-01 9.19791E-26
1.16978E-01 8.70397E-26
1.19797E-01 8.24141E-26
1.22645E-01 7.80790E-26
1.25522E-01 7.40132E-26
1.28428E-01 7.01973E-26
1.31361E-01 6.66134E-26
1.34323E-01 6.32452E-26
1.37313E-01 6.00776E-26
1.40330E-01 5.70967E-26
1.43375E-01 5.42897E-26
1.46447E-01 5.16449E-26
1.49545E-01 4.91514E-26
1.52671E-01 4.67992E-26
1.55823E-01 4.45790E-26
1.59001E-01 4.24822E-26
1.62205E-01 4.05009E-26
1.65435E-01 3.86277E-26
1.68690E-01 3.68557E-26
1.71970E-01 3.51787E-26
1.75276E-01 3.35908E-26
1.78606E-01 3.20865E-26
1.81961E-01 3.06607E-26
1.85340E-01 2.93087E-26
1.88743E-01 2.80260E-26
1.92169E-01 2.68086E-26
1.95619E-01 2.56527E-26
1.99092E-01 2.45545E-26
2.02589E-01 2.35110E-26
2.06107E-01 2.25188E-26
2.09649E-01 2.15751E-26
2.13212E-01 2.06771E-26
2.16797E-01 1.98224E-26
2.20404E-01 1.90085E-26
2.24032E-01 1.82331E-26
2.27680E-01 1.74943E-26
2.31350E-01 1.67899E-26
2.35040E-01 1.61182E-26
2.38751E-01 1.54774E-26
2.42481E-01 1.48658E-26
2.46231E-01 1.42821E-26
2.50000E-01 1.37246E-26
2.53788E-01 1.31921E-26
2.57595E-01 1.26832E-26
2.61421E-01 1.21968E-26
2.65264E-01 1.17317E-26
2.69126E-01 1.12869E-26
2.73005E-01 1.08614E-26
2.76901E-01 1.04541E-26
2.80814E-01 1.00643E-26
2.84744E-01 9.69101E-27
2.88691E-01 9.33347E-27
2.92653E-01 8.99092E-27
2.96632E-01 8.66265E-27
3.00625E-01 8.34798E-27
3.04634E-01 8.04626E-27
3.08658E-01 7.75690E-27
3.12697E-01 7.47931E-27
3.16749E-01 7.21296E-27
3.20816E-01 6.95732E-27
3.24896E-01 6.71191E-27
3.28990E-01 6.47626E-27
3.33097E-01 6.24993E-27
3.37216E-01 6.03250E-27
3.41348E-01 5.82358E-27
3.45492E-01 5.62278E-27
3.49647E-01 5.42976E-27
3.53814E-01 5.24417E-27
3.57992E-01 5.06569E-27
3.62181E-01 4.89401E-27
3.66381E-01 4.72883E-27
3.70590E-01 4.56989E-27
3.74810E-01 4.41690E-27
3.79039E-01 4.26963E-27
3.83277E-01 4.12783E-27
3.87524E-01 3.99127E-27
3.91780E-01 3.85974E-27
3.96044E-01 3.73302E-27
4.00316E-01 3.61091E-27
4.04596E-01 3.49324E-27
4.08882E-01 3.37981E-27
4.13176E-01 3.27046E-27
4.17476E-01 3.16502E-27
4.21783E-01 3.06334E-27
4.26095E-01 2.96526E-27
4.30413E-01 2.87064E-27
4.34737E-01 2.77934E-27
4.39065E-01 2.69124E-27
4.43398E-01 2.60620E-27
4.47736E-01 2.52412E-27
4.52077E-01 2.44487E-27
4.56422E-01 2.36834E-27
4.60770E-01 2.29444E-27
4.65122E-01 2.22305E-27
4.69476E-01 2.15410E-27
4.73832E-01 2.08747E-27
4.78190E-01 2.02309E-27
4.82550E-01 1.96087E-27
4.86912E-01 1.90072E-27
4.91274E-01 1.84258E-27
4.95637E-01 1.78637E-27
5.00000E-01 1.73202E-27
5.04363E-01 1.67946E-27
5.08726E-01 1.62861E-27
5.13088E-01 1.57943E-27
5.17450E-01 1.53186E-27
5.21810E-01 1.48582E-27
5.26168E-01 1.44127E-27
5.30524E-01 1.39816E-27
5.34878E-01 1.35642E-27
5.39230E-01 1.31603E-27
5.43578E-01 1.27692E-27
5.47923E-01 1.23905E-27
5.52264E-01 1.20238E-27
5.56602E-01 1.16686E-27
5.60935E-01 1.13247E-27
5.65263E-01 1.09915E-27
5.69587E-01 1.06687E-27
5.73905E-01 1.03559E-27
5.78217E-01 1.00528E-27
5.82524E-01 9.75913E-28
5.86824E-01 9.47449E-28
5.91118E-01 9.19859E-28
5.95404E-01 8.93114E-28
5.99684E-01 8.67185E-28
6.03956E-01 8.42045E-28
6.08220E-01 8.17668E-28
6.12476E-01 7.94028E-28
6.16723E-01 7.71101E-28
6.20961E-01 7.48864E-28
6.25190E-01 7.27293E-28
6.29410E-01 7.06367E-28
6.33619E-01 6.86064E-28
6.37819E-01 6.66366E-28
6.42008E-01 6.47250E-28
6.46186E-01 6.28700E-28
6.50353E-01 6.10697E-28
6.54508E-01 5.93222E-28
6.58652E-01 5.76260E-28
6.62784E-01 5.59794E-28
6.66903E-01 5.43808E-28
6.71010E-01 5.28286E-28
6.75104E-01 5.13215E-28
6.79184E-01 4.98580E-28
6.83251E-01 4.84367E-28
6.87303E-01 4.70563E-28
6.91342E-01 4.57155E-28
6.95366E-01 4.44132E-28
6.99375E-01 4.31480E-28
7.03368E-01 4.19189E-28
7.07347E-01 4.07247E-28
7.11309E-01 3.95644E-28
7.15256E-01 3.84370E-28
7.19186E-01 3.73413E-28
7.23099E-01 3.62765E-28
7.26995E-01 3.52417E-28
7.30874E-01 3.42359E-28
7.34736E-01 3.32582E-28
7.38579E-01 3.23078E-28
7.42405E-01 3.13839E-28
7.46212E-01 3.04856E-28
7.50000E-01 2.96123E-28
7.53769E-01 2.87632E-28
7.57519E-01 2.79375E-28
7.61249E-01 2.71346E-28
7.64960E-01 2.63538E-28
7.68650E-01 2.55945E-28
7.72320E-01 2.48559E-28
7.75968E-01 2.41376E-28
7.79596E-01 2.34389E-28
7.83203E-01 2.27593E-28
7.86788E-01 2.20982E-28
7.90351E-01 2.14550E-28
7.93893E-01 2.08293E-28
7.97411E-01 2.02206E-28
8.00908E-01 1.96283E-28
8.04381E-01 1.90520E-28
8.07831E-01 1.84913E-28
8.11257E-01 1.79456E-28
8.14660E-01 1.74146E-28
8.18039E-01 1.68979E-28
8.21394E-01 1.63951E-28
8.24724E-01 1.59057E-28
8.28030E-01 1.54294E-28
8.31310E-01 1.49659E-28
8.34565E-01 1.45147E-28
8.37795E-01 1.40756E-28
8.40999E-01 1.36482E-28
8.44177E-01 1.32321E-28
8.47329E-01 1.28271E-28
8.50455E-01 1.24329E-28
8.53553E-01 1.20492E-28
8.56625E-01 1.16757E-28
8.59670E-01 1.13120E-28
8.62687E-01 1.09580E-28
8.65677E-01 1.06134E-28
8.68639E-01 1.02780E-28
8.71572E-01 9.95141E-29
8.74478E-01 9.63350E-29
8.77355E-01 9.32402E-29
8.80203E-01 9.02274E-29
8.83022E-01 8.72945E-29
8.85812E-01 8.44394E-29
8.88573E-01 8.16600E-29
8.91304E-01 7.89545E-29
8.94005E-01 7.63208E-29
8.96677E-01 7.37572E-29
8.99318E-01 7.12618E-29
9.01928E-01 6.88329E-29
9.04508E-01 6.64688E-29
9.07058E-01 6.41679E-29
9.09576E-01 6.19285E-29
9.12063E-01 5.97492E-29
9.14519E-01 5.76284E-29
9.16943E-01 5.55647E-29
9.19335E-01 5.35566E-29
9.21696E-01 5.16029E-29
9.24024E-01 4.97021E-29
9.26320E-01 4.78530E-29
9.28584E-01 4.60544E-29
9.30815E-01 4.43050E-29
9.33013E-01 4.26036E-29
9.35178E-01 4.09492E-29
9.37310E-01 3.93406E-29
9.39409E-01 3.77767E-29
9.41474E-01 3.62566E-29
9.43505E-01 3.47791E-29
9.45503E-01 3.33434E-29
9.47467E-01 3.19485E-29
9.49397E-01 3.05935E-29
9.51293E-01 2.92774E-29
9.53154E-01 2.79995E-29
9.54981E-01 2.67589E-29
9.56773E-01 2.55547E-29
9.58530E-01 2.43863E-29
9.60252E-01 2.32528E-29
9.61940E-01 2.21536E-29
9.63592E-01 2.10878E-29
9.65209E-01 2.00549E-29
9.66790E-01 1.90542E-29
9.68336E-01 1.80850E-29
9.69846E-01 1.71467E-29
9.71321E-01 1.62387E-29
9.72759E-01 1.53605E-29
9.74162E-01 1.45114E-29
9.75528E-01 1.36910E-29
9.76858E-01 1.28987E-29
9.78152E-01 1.21340E-29
9.79410E-01 1.13965E-29
9.80631E-01 1.06857E-29
9.81815E-01 1.00011E-29
9.82963E-01 9.34229E-30
9.84074E-01 8.70889E-30
9.85148E-01 8.10048E-30
9.86185E-01 7.51670E-30
9.87185E-01 6.95718E-30
9.88148E-01 6.42155E-30
9.89074E-01 5.90952E-30
9.89962E-01 5.42073E-30
9.90814E-01 4.95490E-30
9.91627E-01 4.51174E-30
9.92404E-01 4.09098E-30
9.93143E-01 3.69235E-30
9.93844E-01 3.31561E-30
9.94508E-01 2.96052E-30
9.95134E-01 2.62687E-30
9.95722E-01 2.31446E-30
9.96273E-01 2.02309E-30
9.96786E-01 1.75257E-30
9.97261E-01 1.50276E-30
9.97698E-01 1.27349E-30
9.98097E-01 1.06462E-30
9.98459E-01 8.76029E-31
9.98782E-01 7.07596E-31
9.99067E-01 5.59221E-31
9.99315E-01 4.30811E-31
9.99524E-01 3.22290E-31
9.99695E-01 2.33590E-31
9.99829E-01 1.64657E-31
9.99924E-01 1.15449E-31
9.99981E-01 8.59358E-32
1.00000E+00 7.61002E-32
