 #
 # Subroutine ELSEPA. Elastic scattering of electrons and positrons
 #                    by neutral atoms and positive ions
 #
 # Projectile: electron
 # Kinetic energy = 3.00000E+07 eV = 1.10248E+06 a.u.
 #
 # WARNING: High-energy factorization with free-atom DF screening.
 #          Absorption, polarization and exchange corrections are
 #          switched off.
 #          Phase shifts are calculated for the bare nucleus.
 #          Scattering amplitudes are not evaluated.
 #
 # Element: Fe,  Z =  26,  atomic weight = 5.58450E+01 g/mol
 #
 # Nuclear model: Fermi distribution
 #                Average radius = 4.08989E-13 cm
 #                Skin thickness = 5.46000E-14 cm
 #
 # Number of electrons = 26
 #
 # Total elastic cross section = 1.96068E-18 cm**2 = 7.00173E-02 a0**2
 # 1st transport cross section = 1.42359E-24 cm**2 = 5.08372E-08 a0**2
 # 2nd transport cross section = 4.12499E-24 cm**2 = 1.47306E-07 a0**2
 #
 #
 # Differential cross section:                       MU=(1-COS(THETA))/2
 #
 #  THETA        MU          DCS          DCS        Sherman      error
 #  (deg)                 (cm**2/sr)   (a0**2/sr)    function
 #----------------------------------------------------------------------
0.00000E+00 1.81150E-11
7.61557E-13 1.81099E-11
1.18994E-12 1.81071E-11
1.71346E-12 1.81036E-11
2.33225E-12 1.80996E-11
3.04617E-12 1.80948E-11
3.85530E-12 1.80895E-11
4.75964E-12 1.80835E-11
5.75917E-12 1.80769E-11
6.85391E-12 1.80697E-11
8.04379E-12 1.80619E-11
9.32893E-12 1.80534E-11
1.07092E-11 1.80444E-11
1.21847E-11 1.80347E-11
1.37554E-11 1.80244E-11
1.54213E-11 1.80134E-11
1.71823E-11 1.80019E-11
1.90386E-11 1.79898E-11
2.09900E-11 1.79770E-11
2.30367E-11 1.79637E-11
2.51785E-11 1.79497E-11
2.74156E-11 1.79351E-11
2.97478E-11 1.79200E-11
3.21752E-11 1.79042E-11
3.46979E-11 1.78879E-11
3.73157E-11 1.78709E-11
4.00286E-11 1.78534E-11
4.28368E-11 1.78353E-11
4.57402E-11 1.78166E-11
4.87388E-11 1.77973E-11
5.18325E-11 1.77775E-11
5.50215E-11 1.77570E-11
5.83057E-11 1.77360E-11
6.16850E-11 1.77145E-11
6.51595E-11 1.76923E-11
6.87293E-11 1.76697E-11
7.23943E-11 1.76464E-11
7.61544E-11 1.76226E-11
1.18991E-10 1.73552E-11
1.71347E-10 1.70371E-11
2.33223E-10 1.66732E-11
3.04617E-10 1.62675E-11
3.85531E-10 1.58295E-11
4.75965E-10 1.53593E-11
5.75917E-10 1.48684E-11
6.85389E-10 1.43579E-11
8.04380E-10 1.38363E-11
9.32891E-10 1.33073E-11
1.07092E-09 1.27751E-11
1.21847E-09 1.22464E-11
1.37554E-09 1.17206E-11
1.54213E-09 1.12067E-11
1.71823E-09 1.07003E-11
1.90386E-09 1.02105E-11
2.09900E-09 9.73424E-12
2.30367E-09 9.27584E-12
2.51785E-09 8.83491E-12
2.74156E-09 8.41205E-12
2.97478E-09 8.00888E-12
3.21752E-09 7.62314E-12
3.46978E-09 7.25789E-12
3.73156E-09 6.90909E-12
4.00286E-09 6.57978E-12
4.28368E-09 6.26703E-12
4.57402E-09 5.97165E-12
4.87388E-09 5.69234E-12
5.18326E-09 5.42828E-12
5.50215E-09 5.17944E-12
5.83057E-09 4.94380E-12
6.16850E-09 4.72229E-12
6.51596E-09 4.51219E-12
6.87293E-09 4.31463E-12
7.23942E-09 4.12761E-12
7.61544E-09 3.95126E-12
1.18991E-08 2.63277E-12
1.71347E-08 1.83884E-12
2.33223E-08 1.32720E-12
3.04617E-08 9.65033E-13
3.85531E-08 7.32943E-13
4.75965E-08 5.49439E-13
5.75917E-08 4.23654E-13
6.85389E-08 3.26198E-13
8.04380E-08 2.55119E-13
9.32891E-08 2.00887E-13
1.07092E-07 1.59717E-13
1.21847E-07 1.28373E-13
1.37554E-07 1.03936E-13
1.54213E-07 8.51556E-14
1.71823E-07 7.02411E-14
1.90386E-07 5.85529E-14
2.09900E-07 4.91863E-14
2.30367E-07 4.16721E-14
2.51785E-07 3.55694E-14
2.74156E-07 3.05754E-14
2.97478E-07 2.64604E-14
3.21752E-07 2.30319E-14
3.46978E-07 2.01681E-14
3.73156E-07 1.77424E-14
4.00286E-07 1.56883E-14
4.28368E-07 1.39281E-14
4.57402E-07 1.24165E-14
4.87388E-07 1.11089E-14
5.18325E-07 9.97117E-15
5.50215E-07 8.97999E-15
5.83057E-07 8.10705E-15
6.16850E-07 7.34227E-15
6.51596E-07 6.66115E-15
6.87293E-07 6.06008E-15
7.23942E-07 5.52328E-15
7.61543E-07 5.04518E-15
1.18991E-06 2.23227E-15
1.71347E-06 1.11979E-15
2.33223E-06 6.17623E-16
3.04617E-06 3.67077E-16
3.85531E-06 2.31653E-16
4.75964E-06 1.53449E-16
5.75916E-06 1.05711E-16
6.85388E-06 7.52315E-17
8.04378E-06 5.50176E-17
9.32888E-06 4.11691E-17
1.07092E-05 3.14245E-17
1.21846E-05 2.44010E-17
1.37553E-05 1.92349E-17
1.54212E-05 1.53667E-17
1.71822E-05 1.24223E-17
1.90385E-05 1.01500E-17
2.09899E-05 8.37466E-18
2.30365E-05 6.97024E-18
2.51783E-05 5.84773E-18
2.74153E-05 4.94168E-18
2.97475E-05 4.20424E-18
3.21749E-05 3.59917E-18
3.46974E-05 3.09902E-18
3.73152E-05 2.68279E-18
4.00281E-05 2.33409E-18
4.28362E-05 2.04020E-18
4.57395E-05 1.79109E-18
4.87380E-05 1.57880E-18
5.18317E-05 1.39700E-18
5.50205E-05 1.24059E-18
5.83045E-05 1.10544E-18
6.16838E-05 9.88202E-19
6.51582E-05 8.86091E-19
6.87277E-05 7.96838E-19
7.23925E-05 7.18543E-19
7.61524E-05 6.49630E-19
9.21439E-05 4.44364E-19
1.09658E-04 3.14121E-19
1.28695E-04 2.28291E-19
1.49255E-04 1.69871E-19
1.71338E-04 1.29005E-19
1.94942E-04 9.97228E-20
2.20070E-04 7.83004E-20
2.46720E-04 6.23361E-20
2.74892E-04 5.02424E-20
3.04586E-04 4.09463E-20
3.35803E-04 3.37052E-20
3.68542E-04 2.79974E-20
4.02802E-04 2.34491E-20
4.38585E-04 1.97888E-20
4.75889E-04 1.68162E-20
5.14715E-04 1.43818E-20
5.55063E-04 1.23728E-20
5.96931E-04 1.07030E-20
6.40321E-04 9.30595E-21
6.85233E-04 8.12980E-21
7.31665E-04 7.13392E-21
7.79618E-04 6.28615E-21
8.29092E-04 5.56079E-21
8.80086E-04 4.93724E-21
9.32601E-04 4.39879E-21
9.86636E-04 3.93188E-21
1.04219E-03 3.52539E-21
1.09927E-03 3.17017E-21
1.15786E-03 2.85865E-21
1.21797E-03 2.58453E-21
1.27961E-03 2.34254E-21
1.34276E-03 2.12826E-21
1.40743E-03 1.93797E-21
1.47362E-03 1.76851E-21
1.54133E-03 1.61721E-21
1.61056E-03 1.48177E-21
1.68131E-03 1.36025E-21
1.75357E-03 1.25095E-21
1.82735E-03 1.15243E-21
1.90265E-03 1.06344E-21
1.97947E-03 9.82891E-22
2.05780E-03 9.09840E-22
2.13765E-03 8.43464E-22
2.21902E-03 7.83044E-22
2.30190E-03 7.27948E-22
2.38630E-03 6.77624E-22
2.47222E-03 6.31582E-22
2.55965E-03 5.89393E-22
2.64859E-03 5.50677E-22
2.73905E-03 5.15094E-22
2.83103E-03 4.82345E-22
2.92452E-03 4.52163E-22
3.01952E-03 4.24311E-22
3.11604E-03 3.98575E-22
3.21407E-03 3.74765E-22
3.31362E-03 3.52711E-22
3.41468E-03 3.32259E-22
3.51725E-03 3.13271E-22
3.62133E-03 2.95624E-22
3.72692E-03 2.79205E-22
3.83403E-03 2.63912E-22
3.94265E-03 2.49655E-22
4.05278E-03 2.36350E-22
4.16442E-03 2.23922E-22
4.27757E-03 2.12302E-22
4.39223E-03 2.01427E-22
4.50840E-03 1.91242E-22
4.62608E-03 1.81694E-22
4.74527E-03 1.72736E-22
4.86597E-03 1.64324E-22
4.98817E-03 1.56420E-22
5.11188E-03 1.48986E-22
5.23711E-03 1.41990E-22
5.36383E-03 1.35401E-22
5.49207E-03 1.29190E-22
5.62181E-03 1.23333E-22
5.75306E-03 1.17804E-22
5.88581E-03 1.12583E-22
6.02007E-03 1.07648E-22
6.15583E-03 1.02981E-22
6.29310E-03 9.85656E-23
6.43187E-03 9.43846E-23
6.57214E-03 9.04235E-23
6.71392E-03 8.66685E-23
6.85720E-03 8.31069E-23
7.00198E-03 7.97268E-23
7.14827E-03 7.65173E-23
7.29605E-03 7.34681E-23
7.44534E-03 7.05696E-23
7.59612E-03 6.78130E-23
7.97965E-03 6.14895E-23
8.37255E-03 5.58878E-23
8.77480E-03 5.09111E-23
9.18641E-03 4.64775E-23
9.60736E-03 4.25172E-23
1.00376E-02 3.89708E-23
1.04773E-02 3.57874E-23
1.09262E-02 3.29232E-23
1.13844E-02 3.03404E-23
1.18520E-02 2.80066E-23
1.23288E-02 2.58933E-23
1.28150E-02 2.39761E-23
1.33104E-02 2.22334E-23
1.38150E-02 2.06465E-23
1.43290E-02 1.91989E-23
1.48521E-02 1.78763E-23
1.53845E-02 1.66658E-23
1.59262E-02 1.55562E-23
1.64770E-02 1.45375E-23
1.70371E-02 1.36010E-23
1.76063E-02 1.27389E-23
1.81848E-02 1.19440E-23
1.87724E-02 1.12103E-23
1.93692E-02 1.05321E-23
1.99751E-02 9.90451E-24
2.05901E-02 9.32300E-24
2.12143E-02 8.78358E-24
2.18476E-02 8.28264E-24
2.24900E-02 7.81693E-24
2.31415E-02 7.38351E-24
2.38021E-02 6.97972E-24
2.44717E-02 6.60317E-24
2.51504E-02 6.25168E-24
2.58382E-02 5.92326E-24
2.65349E-02 5.61613E-24
2.72407E-02 5.32864E-24
2.79555E-02 5.05930E-24
2.86793E-02 4.80676E-24
2.94120E-02 4.56976E-24
3.01537E-02 4.34718E-24
3.09043E-02 4.13798E-24
3.16639E-02 3.94119E-24
3.24324E-02 3.75595E-24
3.32098E-02 3.58144E-24
3.39961E-02 3.41694E-24
3.47912E-02 3.26175E-24
3.55952E-02 3.11526E-24
3.64081E-02 2.97688E-24
3.72297E-02 2.84608E-24
3.80602E-02 2.72237E-24
3.88995E-02 2.60528E-24
3.97476E-02 2.49441E-24
4.06044E-02 2.38935E-24
4.14700E-02 2.28975E-24
4.23443E-02 2.19526E-24
4.32273E-02 2.10558E-24
4.41190E-02 2.02041E-24
4.50194E-02 1.93949E-24
4.59284E-02 1.86256E-24
4.68461E-02 1.78939E-24
4.87074E-02 1.65346E-24
5.06030E-02 1.53013E-24
5.25328E-02 1.41803E-24
5.44967E-02 1.31594E-24
5.64946E-02 1.22282E-24
5.85262E-02 1.13774E-24
6.05914E-02 1.05987E-24
6.26901E-02 9.88499E-25
6.48222E-02 9.22984E-25
6.69873E-02 8.62759E-25
6.91854E-02 8.07320E-25
7.14163E-02 7.56218E-25
7.36799E-02 7.09053E-25
7.59760E-02 6.65467E-25
7.83043E-02 6.25140E-25
8.06647E-02 5.87784E-25
8.30571E-02 5.53140E-25
8.54812E-02 5.20977E-25
8.79369E-02 4.91084E-25
9.04240E-02 4.63274E-25
9.29422E-02 4.37373E-25
9.54915E-02 4.13229E-25
9.80716E-02 3.90700E-25
1.00682E-01 3.69658E-25
1.03323E-01 3.49989E-25
1.05995E-01 3.31585E-25
1.08696E-01 3.14352E-25
1.11427E-01 2.98202E-25
1.14188E-01 2.83054E-25
1.16978E-01 2.68834E-25
1.19797E-01 2.55477E-25
1.22645E-01 2.42920E-25
1.25522E-01 2.31106E-25
1.28428E-01 2.19985E-25
1.31361E-01 2.09507E-25
1.34323E-01 1.99630E-25
1.37313E-01 1.90312E-25
1.40330E-01 1.81516E-25
1.43375E-01 1.73209E-25
1.46447E-01 1.65357E-25
1.49545E-01 1.57932E-25
1.52671E-01 1.50907E-25
1.55823E-01 1.44255E-25
1.59001E-01 1.37954E-25
1.62205E-01 1.31982E-25
1.65435E-01 1.26318E-25
1.68690E-01 1.20945E-25
1.71970E-01 1.15844E-25
1.75276E-01 1.10999E-25
1.78606E-01 1.06395E-25
1.81961E-01 1.02019E-25
1.85340E-01 9.78565E-26
1.88743E-01 9.38957E-26
1.92169E-01 9.01251E-26
1.95619E-01 8.65339E-26
1.99092E-01 8.31123E-26
2.02589E-01 7.98508E-26
2.06107E-01 7.67406E-26
2.09649E-01 7.37735E-26
2.13212E-01 7.09418E-26
2.16797E-01 6.82384E-26
2.20404E-01 6.56563E-26
2.24032E-01 6.31892E-26
2.27680E-01 6.08312E-26
2.31350E-01 5.85765E-26
2.35040E-01 5.64200E-26
2.38751E-01 5.43566E-26
2.42481E-01 5.23816E-26
2.46231E-01 5.04906E-26
2.50000E-01 4.86795E-26
2.53788E-01 4.69443E-26
2.57595E-01 4.52813E-26
2.61421E-01 4.36870E-26
2.65264E-01 4.21581E-26
2.69126E-01 4.06915E-26
2.73005E-01 3.92842E-26
2.76901E-01 3.79334E-26
2.80814E-01 3.66365E-26
2.84744E-01 3.53911E-26
2.88691E-01 3.41946E-26
2.92653E-01 3.30450E-26
2.96632E-01 3.19400E-26
3.00625E-01 3.08777E-26
3.04634E-01 2.98562E-26
3.08658E-01 2.88735E-26
3.12697E-01 2.79281E-26
3.16749E-01 2.70183E-26
3.20816E-01 2.61425E-26
3.24896E-01 2.52993E-26
3.28990E-01 2.44873E-26
3.33097E-01 2.37050E-26
3.37216E-01 2.29514E-26
3.41348E-01 2.22251E-26
3.45492E-01 2.15250E-26
3.49647E-01 2.08501E-26
3.53814E-01 2.01992E-26
3.57992E-01 1.95715E-26
3.62181E-01 1.89659E-26
3.66381E-01 1.83815E-26
3.70590E-01 1.78176E-26
3.74810E-01 1.72732E-26
3.79039E-01 1.67476E-26
3.83277E-01 1.62401E-26
3.87524E-01 1.57499E-26
3.91780E-01 1.52764E-26
3.96044E-01 1.48189E-26
4.00316E-01 1.43767E-26
4.04596E-01 1.39494E-26
4.08882E-01 1.35363E-26
4.13176E-01 1.31369E-26
4.17476E-01 1.27507E-26
4.21783E-01 1.23771E-26
4.26095E-01 1.20157E-26
4.30413E-01 1.16661E-26
4.34737E-01 1.13278E-26
4.39065E-01 1.10003E-26
4.43398E-01 1.06834E-26
4.47736E-01 1.03766E-26
4.52077E-01 1.00795E-26
4.56422E-01 9.79181E-27
4.60770E-01 9.51317E-27
4.65122E-01 9.24325E-27
4.69476E-01 8.98176E-27
4.73832E-01 8.72838E-27
4.78190E-01 8.48284E-27
4.82550E-01 8.24486E-27
4.86912E-01 8.01418E-27
4.91274E-01 7.79053E-27
4.95637E-01 7.57369E-27
5.00000E-01 7.36341E-27
5.04363E-01 7.15947E-27
5.08726E-01 6.96165E-27
5.13088E-01 6.76975E-27
5.17450E-01 6.58357E-27
5.21810E-01 6.40292E-27
5.26168E-01 6.22760E-27
5.30524E-01 6.05745E-27
5.34878E-01 5.89229E-27
5.39230E-01 5.73195E-27
5.43578E-01 5.57628E-27
5.47923E-01 5.42513E-27
5.52264E-01 5.27835E-27
5.56602E-01 5.13579E-27
5.60935E-01 4.99732E-27
5.65263E-01 4.86281E-27
5.69587E-01 4.73213E-27
5.73905E-01 4.60517E-27
5.78217E-01 4.48179E-27
5.82524E-01 4.36189E-27
5.86824E-01 4.24537E-27
5.91118E-01 4.13210E-27
5.95404E-01 4.02200E-27
5.99684E-01 3.91495E-27
6.03956E-01 3.81088E-27
6.08220E-01 3.70968E-27
6.12476E-01 3.61127E-27
6.16723E-01 3.51557E-27
6.20961E-01 3.42248E-27
6.25190E-01 3.33193E-27
6.29410E-01 3.24385E-27
6.33619E-01 3.15816E-27
6.37819E-01 3.07478E-27
6.42008E-01 2.99365E-27
6.46186E-01 2.91470E-27
6.50353E-01 2.83787E-27
6.54508E-01 2.76310E-27
6.58652E-01 2.69031E-27
6.62784E-01 2.61946E-27
6.66903E-01 2.55049E-27
6.71010E-01 2.48334E-27
6.75104E-01 2.41797E-27
6.79184E-01 2.35431E-27
6.83251E-01 2.29232E-27
6.87303E-01 2.23195E-27
6.91342E-01 2.17316E-27
6.95366E-01 2.11589E-27
6.99375E-01 2.06011E-27
7.03368E-01 2.00578E-27
7.07347E-01 1.95285E-27
7.11309E-01 1.90129E-27
7.15256E-01 1.85105E-27
7.19186E-01 1.80209E-27
7.23099E-01 1.75439E-27
7.26995E-01 1.70791E-27
7.30874E-01 1.66262E-27
7.34736E-01 1.61847E-27
7.38579E-01 1.57544E-27
7.42405E-01 1.53351E-27
7.46212E-01 1.49263E-27
7.50000E-01 1.45278E-27
7.53769E-01 1.41394E-27
7.57519E-01 1.37607E-27
7.61249E-01 1.33915E-27
7.64960E-01 1.30315E-27
7.68650E-01 1.26806E-27
7.72320E-01 1.23384E-27
7.75968E-01 1.20046E-27
7.79596E-01 1.16792E-27
7.83203E-01 1.13619E-27
7.86788E-01 1.10524E-27
7.90351E-01 1.07506E-27
7.93893E-01 1.04562E-27
7.97411E-01 1.01691E-27
8.00908E-01 9.88904E-28
8.04381E-01 9.61588E-28
8.07831E-01 9.34943E-28
8.11257E-01 9.08951E-28
8.14660E-01 8.83597E-28
8.18039E-01 8.58863E-28
8.21394E-01 8.34734E-28
8.24724E-01 8.11194E-28
8.28030E-01 7.88230E-28
8.31310E-01 7.65825E-28
8.34565E-01 7.43966E-28
8.37795E-01 7.22640E-28
8.40999E-01 7.01833E-28
8.44177E-01 6.81532E-28
8.47329E-01 6.61725E-28
8.50455E-01 6.42400E-28
8.53553E-01 6.23545E-28
8.56625E-01 6.05147E-28
8.59670E-01 5.87197E-28
8.62687E-01 5.69683E-28
8.65677E-01 5.52595E-28
8.68639E-01 5.35923E-28
8.71572E-01 5.19655E-28
8.74478E-01 5.03784E-28
8.77355E-01 4.88299E-28
8.80203E-01 4.73192E-28
8.83022E-01 4.58453E-28
8.85812E-01 4.44074E-28
8.88573E-01 4.30046E-28
8.91304E-01 4.16361E-28
8.94005E-01 4.03012E-28
8.96677E-01 3.89990E-28
8.99318E-01 3.77288E-28
9.01928E-01 3.64899E-28
9.04508E-01 3.52816E-28
9.07058E-01 3.41032E-28
9.09576E-01 3.29540E-28
9.12063E-01 3.18333E-28
9.14519E-01 3.07405E-28
9.16943E-01 2.96751E-28
9.19335E-01 2.86364E-28
9.21696E-01 2.76238E-28
9.24024E-01 2.66368E-28
9.26320E-01 2.56749E-28
9.28584E-01 2.47374E-28
9.30815E-01 2.38239E-28
9.33013E-01 2.29338E-28
9.35178E-01 2.20667E-28
9.37310E-01 2.12222E-28
9.39409E-01 2.03997E-28
9.41474E-01 1.95987E-28
9.43505E-01 1.88190E-28
9.45503E-01 1.80599E-28
9.47467E-01 1.73212E-28
9.49397E-01 1.66025E-28
9.51293E-01 1.59032E-28
9.53154E-01 1.52232E-28
9.54981E-01 1.45619E-28
9.56773E-01 1.39191E-28
9.58530E-01 1.32944E-28
9.60252E-01 1.26875E-28
9.61940E-01 1.20980E-28
9.63592E-01 1.15257E-28
9.65209E-01 1.09702E-28
9.66790E-01 1.04312E-28
9.68336E-01 9.90856E-29
9.69846E-01 9.40187E-29
9.71321E-01 8.91090E-29
9.72759E-01 8.43540E-29
9.74162E-01 7.97512E-29
9.75528E-01 7.52982E-29
9.76858E-01 7.09926E-29
9.78152E-01 6.68324E-29
9.79410E-01 6.28152E-29
9.80631E-01 5.89390E-29
9.81815E-01 5.52018E-29
9.82963E-01 5.16017E-29
9.84074E-01 4.81368E-29
9.85148E-01 4.48054E-29
9.86185E-01 4.16057E-29
9.87185E-01 3.85362E-29
9.88148E-01 3.55951E-29
9.89074E-01 3.27811E-29
9.89962E-01 3.00927E-29
9.90814E-01 2.75284E-29
9.91627E-01 2.50871E-29
9.92404E-01 2.27675E-29
9.93143E-01 2.05683E-29
9.93844E-01 1.84885E-29
9.94508E-01 1.65271E-29
9.95134E-01 1.46829E-29
9.95722E-01 1.29552E-29
9.96273E-01 1.13429E-29
9.96786E-01 9.84537E-30
9.97261E-01 8.46176E-30
9.97698E-01 7.19139E-30
9.98097E-01 6.03362E-30
9.98459E-01 4.98787E-30
9.98782E-01 4.05360E-30
9.99067E-01 3.23036E-30
9.99315E-01 2.51771E-30
9.99524E-01 1.91531E-30
9.99695E-01 1.42285E-30
9.99829E-01 1.04008E-30
9.99924E-01 7.66812E-31
9.99981E-01 6.02909E-31
1.00000E+00 5.48275E-31
