 #
 # Subroutine ELSEPA. Elastic scattering of electrons and positrons
 #                    by neutral atoms and positive ions
 #
 # Projectile: electron
 # Kinetic energy = 1.25000E+08 eV = 4.59367E+06 a.u.
 #
 # WARNING: High-energy factorization with free-atom DF screening.
 #          Absorption, polarization and exchange corrections are
 #          switched off.
 #          Phase shifts are calculated for the bare nucleus.
 #          Scattering amplitudes are not evaluated.
 #
 # Element: Fe,  Z =  26,  atomic weight = 5.58450E+01 g/mol
 #
 # Nuclear model: Fermi distribution
 #                Average radius = 4.08989E-13 cm
 #                Skin thickness = 5.46000E-14 cm
 #
 # Number of electrons = 26
 #
 # Total elastic cross section = 1.95986E-18 cm**2 = 6.99878E-02 a0**2
 # 1st transport cross section = 8.90957E-26 cm**2 = 3.18167E-09 a0**2
 # 2nd transport cross section = 2.65487E-25 cm**2 = 9.48071E-09 a0**2
 #
 #
 # Differential cross section:                       MU=(1-COS(THETA))/2
 #
 #  THETA        MU          DCS          DCS        Sherman      error
 #  (deg)                 (cm**2/sr)   (a0**2/sr)    function
 #----------------------------------------------------------------------
0.00000E+00 3.06542E-10
7.61557E-13 3.05103E-10
1.18994E-12 3.04300E-10
1.71346E-12 3.03322E-10
2.33225E-12 3.02174E-10
3.04617E-12 3.00858E-10
3.85530E-12 2.99378E-10
4.75964E-12 2.97737E-10
5.75917E-12 2.95941E-10
6.85391E-12 2.93993E-10
8.04379E-12 2.91900E-10
9.32893E-12 2.89666E-10
1.07092E-11 2.87298E-10
1.21847E-11 2.84801E-10
1.37554E-11 2.82181E-10
1.54213E-11 2.79435E-10
1.71823E-11 2.76577E-10
1.90386E-11 2.73626E-10
2.09900E-11 2.70589E-10
2.30367E-11 2.67467E-10
2.51785E-11 2.64230E-10
2.74156E-11 2.60930E-10
2.97478E-11 2.57573E-10
3.21752E-11 2.54167E-10
3.46979E-11 2.50674E-10
3.73157E-11 2.47131E-10
4.00286E-11 2.43561E-10
4.28368E-11 2.39969E-10
4.57402E-11 2.36336E-10
4.87388E-11 2.32654E-10
5.18325E-11 2.28969E-10
5.50215E-11 2.25288E-10
5.83057E-11 2.21613E-10
6.16850E-11 2.17884E-10
6.51595E-11 2.14174E-10
6.87293E-11 2.10488E-10
7.23943E-11 2.06828E-10
7.61544E-11 2.03157E-10
1.18991E-10 1.68136E-10
1.71347E-10 1.37632E-10
2.33223E-10 1.12442E-10
3.04617E-10 9.22321E-11
3.85531E-10 7.62578E-11
4.75965E-10 6.36553E-11
5.75917E-10 5.36502E-11
6.85389E-10 4.56309E-11
8.04380E-10 3.91328E-11
9.32891E-10 3.38019E-11
1.07092E-09 2.93676E-11
1.21847E-09 2.56482E-11
1.37554E-09 2.24987E-11
1.54213E-09 1.96864E-11
1.71823E-09 1.72621E-11
1.90386E-09 1.52723E-11
2.09900E-09 1.36244E-11
2.30367E-09 1.22082E-11
2.51785E-09 1.08003E-11
2.74156E-09 9.61982E-12
2.97478E-09 8.62282E-12
3.21752E-09 7.77516E-12
3.46978E-09 6.95841E-12
3.73156E-09 6.23521E-12
4.00286E-09 5.61453E-12
4.28368E-09 5.07902E-12
4.57402E-09 4.59378E-12
4.87388E-09 4.14308E-12
5.18326E-09 3.75090E-12
5.50215E-09 3.40817E-12
5.83057E-09 3.10693E-12
6.16850E-09 2.82168E-12
6.51596E-09 2.57044E-12
6.87293E-09 2.34838E-12
7.23942E-09 2.15146E-12
7.61544E-09 1.97082E-12
1.18991E-08 8.95756E-13
1.71347E-08 4.68168E-13
2.33223E-08 2.71992E-13
3.04617E-08 1.70251E-13
3.85531E-08 1.12387E-13
4.75965E-08 7.71427E-14
5.75917E-08 5.45775E-14
6.85389E-08 3.95816E-14
8.04380E-08 2.93259E-14
9.32891E-08 2.21414E-14
1.07092E-07 1.70004E-14
1.21847E-07 1.32552E-14
1.37554E-07 1.04793E-14
1.54213E-07 8.38738E-15
1.71823E-07 6.79404E-15
1.90386E-07 5.56048E-15
2.09900E-07 4.59604E-15
2.30367E-07 3.83107E-15
2.51785E-07 3.21996E-15
2.74156E-07 2.72616E-15
2.97478E-07 2.32392E-15
3.21752E-07 1.99354E-15
3.46978E-07 1.71996E-15
3.73156E-07 1.49209E-15
4.00286E-07 1.30069E-15
4.28368E-07 1.13923E-15
4.57402E-07 1.00209E-15
4.87388E-07 8.85053E-16
5.18325E-07 7.84677E-16
5.50215E-07 6.98117E-16
5.83057E-07 6.23250E-16
6.16850E-07 5.58103E-16
6.51596E-07 5.01301E-16
6.87293E-07 4.51528E-16
7.23942E-07 4.07790E-16
7.61543E-07 3.69230E-16
1.18991E-06 1.53451E-16
1.71347E-06 7.46416E-17
2.33223E-06 4.04998E-17
3.04617E-06 2.38177E-17
3.85531E-06 1.49012E-17
4.75964E-06 9.79104E-18
5.75916E-06 6.69442E-18
6.85388E-06 4.73038E-18
8.04378E-06 3.43643E-18
9.32888E-06 2.55608E-18
1.07092E-05 1.94040E-18
1.21846E-05 1.49941E-18
1.37553E-05 1.17686E-18
1.54212E-05 9.36569E-19
1.71822E-05 7.54593E-19
1.90385E-05 6.14730E-19
2.09899E-05 5.05884E-19
2.30365E-05 4.20087E-19
2.51783E-05 3.51718E-19
2.74153E-05 2.96699E-19
2.97475E-05 2.52026E-19
3.21749E-05 2.15455E-19
3.46974E-05 1.85288E-19
3.73152E-05 1.60227E-19
4.00281E-05 1.39266E-19
4.28362E-05 1.21626E-19
4.57395E-05 1.06693E-19
4.87380E-05 9.39821E-20
5.18317E-05 8.31084E-20
5.50205E-05 7.37624E-20
5.83045E-05 6.56941E-20
6.16838E-05 5.86999E-20
6.51582E-05 5.26131E-20
6.87277E-05 4.72959E-20
7.23925E-05 4.26344E-20
7.61524E-05 3.85299E-20
9.21439E-05 2.63282E-20
1.09658E-04 1.85973E-20
1.28695E-04 1.35079E-20
1.49255E-04 1.00466E-20
1.71338E-04 7.62678E-21
1.94942E-04 5.89371E-21
2.20070E-04 4.62628E-21
2.46720E-04 3.68208E-21
2.74892E-04 2.96698E-21
3.04586E-04 2.41743E-21
3.35803E-04 1.98945E-21
3.68542E-04 1.65215E-21
4.02802E-04 1.38343E-21
4.38585E-04 1.16719E-21
4.75889E-04 9.91612E-22
5.14715E-04 8.47844E-22
5.55063E-04 7.29218E-22
5.96931E-04 6.30632E-22
6.40321E-04 5.48159E-22
6.85233E-04 4.78738E-22
7.31665E-04 4.19965E-22
7.79618E-04 3.69941E-22
8.29092E-04 3.27147E-22
8.80086E-04 2.90364E-22
9.32601E-04 2.58607E-22
9.86636E-04 2.31073E-22
1.04219E-03 2.07106E-22
1.09927E-03 1.86166E-22
1.15786E-03 1.67805E-22
1.21797E-03 1.51651E-22
1.27961E-03 1.37393E-22
1.34276E-03 1.24771E-22
1.40743E-03 1.13564E-22
1.47362E-03 1.03585E-22
1.54133E-03 9.46780E-23
1.61056E-03 8.67064E-23
1.68131E-03 7.95551E-23
1.75357E-03 7.31248E-23
1.82735E-03 6.73301E-23
1.90265E-03 6.20970E-23
1.97947E-03 5.73615E-23
2.05780E-03 5.30679E-23
2.13765E-03 4.91677E-23
2.21902E-03 4.56183E-23
2.30190E-03 4.23826E-23
2.38630E-03 3.94279E-23
2.47222E-03 3.67255E-23
2.55965E-03 3.42499E-23
2.64859E-03 3.19787E-23
2.73905E-03 2.98920E-23
2.83103E-03 2.79721E-23
2.92452E-03 2.62032E-23
3.01952E-03 2.45714E-23
3.11604E-03 2.30641E-23
3.21407E-03 2.16701E-23
3.31362E-03 2.03793E-23
3.41468E-03 1.91827E-23
3.51725E-03 1.80722E-23
3.62133E-03 1.70404E-23
3.72692E-03 1.60808E-23
3.83403E-03 1.51874E-23
3.94265E-03 1.43548E-23
4.05278E-03 1.35781E-23
4.16442E-03 1.28529E-23
4.27757E-03 1.21751E-23
4.39223E-03 1.15411E-23
4.50840E-03 1.09475E-23
4.62608E-03 1.03913E-23
4.74527E-03 9.86968E-24
4.86597E-03 9.38011E-24
4.98817E-03 8.92026E-24
5.11188E-03 8.48799E-24
5.23711E-03 8.08135E-24
5.36383E-03 7.69853E-24
5.49207E-03 7.33790E-24
5.62181E-03 6.99793E-24
5.75306E-03 6.67721E-24
5.88581E-03 6.37446E-24
6.02007E-03 6.08849E-24
6.15583E-03 5.81819E-24
6.29310E-03 5.56255E-24
6.43187E-03 5.32063E-24
6.57214E-03 5.09156E-24
6.71392E-03 4.87453E-24
6.85720E-03 4.66879E-24
7.00198E-03 4.47365E-24
7.14827E-03 4.28845E-24
7.29605E-03 4.11261E-24
7.44534E-03 3.94556E-24
7.59612E-03 3.78678E-24
7.97965E-03 3.42292E-24
8.37255E-03 3.10110E-24
8.77480E-03 2.81563E-24
9.18641E-03 2.56174E-24
9.60736E-03 2.33533E-24
1.00376E-02 2.13294E-24
1.04773E-02 1.95158E-24
1.09262E-02 1.78871E-24
1.13844E-02 1.64212E-24
1.18520E-02 1.50992E-24
1.23288E-02 1.39044E-24
1.28150E-02 1.28227E-24
1.33104E-02 1.18415E-24
1.38150E-02 1.09499E-24
1.43290E-02 1.01383E-24
1.48521E-02 9.39843E-25
1.53845E-02 8.72283E-25
1.59262E-02 8.10499E-25
1.64770E-02 7.53915E-25
1.70371E-02 7.02020E-25
1.76063E-02 6.54362E-25
1.81848E-02 6.10537E-25
1.87724E-02 5.70185E-25
1.93692E-02 5.32987E-25
1.99751E-02 4.98655E-25
2.05901E-02 4.66931E-25
2.12143E-02 4.37586E-25
2.18476E-02 4.10412E-25
2.24900E-02 3.85222E-25
2.31415E-02 3.61847E-25
2.38021E-02 3.40136E-25
2.44717E-02 3.19952E-25
2.51504E-02 3.01169E-25
2.58382E-02 2.83674E-25
2.65349E-02 2.67366E-25
2.72407E-02 2.52151E-25
2.79555E-02 2.37944E-25
2.86793E-02 2.24668E-25
2.94120E-02 2.12252E-25
3.01537E-02 2.00632E-25
3.09043E-02 1.89749E-25
3.16639E-02 1.79549E-25
3.24324E-02 1.69983E-25
3.32098E-02 1.61004E-25
3.39961E-02 1.52572E-25
3.47912E-02 1.44648E-25
3.55952E-02 1.37197E-25
3.64081E-02 1.30186E-25
3.72297E-02 1.23586E-25
3.80602E-02 1.17369E-25
3.88995E-02 1.11509E-25
3.97476E-02 1.05983E-25
4.06044E-02 1.00769E-25
4.14700E-02 9.58471E-26
4.23443E-02 9.11983E-26
4.32273E-02 8.68054E-26
4.41190E-02 8.26523E-26
4.50194E-02 7.87240E-26
4.59284E-02 7.50066E-26
4.68461E-02 7.14874E-26
4.87074E-02 6.49958E-26
5.06030E-02 5.91628E-26
5.25328E-02 5.39129E-26
5.44967E-02 4.91807E-26
5.64946E-02 4.49088E-26
5.85262E-02 4.10470E-26
6.05914E-02 3.75513E-26
6.26901E-02 3.43829E-26
6.48222E-02 3.15076E-26
6.69873E-02 2.88952E-26
6.91854E-02 2.65191E-26
7.14163E-02 2.43555E-26
7.36799E-02 2.23835E-26
7.59760E-02 2.05842E-26
7.83043E-02 1.89410E-26
8.06647E-02 1.74390E-26
8.30571E-02 1.60649E-26
8.54812E-02 1.48068E-26
8.79369E-02 1.36539E-26
9.04240E-02 1.25967E-26
9.29422E-02 1.16265E-26
9.54915E-02 1.07355E-26
9.80716E-02 9.91676E-27
1.00682E-01 9.16388E-27
1.03323E-01 8.47117E-27
1.05995E-01 7.83344E-27
1.08696E-01 7.24601E-27
1.11427E-01 6.70463E-27
1.14188E-01 6.20542E-27
1.16978E-01 5.74488E-27
1.19797E-01 5.31982E-27
1.22645E-01 4.92734E-27
1.25522E-01 4.56478E-27
1.28428E-01 4.22973E-27
1.31361E-01 3.91999E-27
1.34323E-01 3.63353E-27
1.37313E-01 3.36853E-27
1.40330E-01 3.12329E-27
1.43375E-01 2.89627E-27
1.46447E-01 2.68606E-27
1.49545E-01 2.49136E-27
1.52671E-01 2.31097E-27
1.55823E-01 2.14380E-27
1.59001E-01 1.98886E-27
1.62205E-01 1.84521E-27
1.65435E-01 1.71201E-27
1.68690E-01 1.58847E-27
1.71970E-01 1.47387E-27
1.75276E-01 1.36756E-27
1.78606E-01 1.26890E-27
1.81961E-01 1.17735E-27
1.85340E-01 1.09238E-27
1.88743E-01 1.01351E-27
1.92169E-01 9.40295E-28
1.95619E-01 8.72321E-28
1.99092E-01 8.09210E-28
2.02589E-01 7.50610E-28
2.06107E-01 6.96197E-28
2.09649E-01 6.45669E-28
2.13212E-01 5.98748E-28
2.16797E-01 5.55175E-28
2.20404E-01 5.14712E-28
2.24032E-01 4.77136E-28
2.27680E-01 4.42242E-28
2.31350E-01 4.09840E-28
2.35040E-01 3.79752E-28
2.38751E-01 3.51815E-28
2.42481E-01 3.25876E-28
2.46231E-01 3.01794E-28
2.50000E-01 2.79437E-28
2.53788E-01 2.58685E-28
2.57595E-01 2.39423E-28
2.61421E-01 2.21546E-28
2.65264E-01 2.04957E-28
2.69126E-01 1.89565E-28
2.73005E-01 1.75285E-28
2.76901E-01 1.62039E-28
2.80814E-01 1.49754E-28
2.84744E-01 1.38363E-28
2.88691E-01 1.27801E-28
2.92653E-01 1.18011E-28
2.96632E-01 1.08937E-28
3.00625E-01 1.00530E-28
3.04634E-01 9.27415E-29
3.08658E-01 8.55280E-29
3.12697E-01 7.88486E-29
3.16749E-01 7.26653E-29
3.20816E-01 6.69427E-29
3.24896E-01 6.16481E-29
3.28990E-01 5.67507E-29
3.33097E-01 5.22221E-29
3.37216E-01 4.80358E-29
3.41348E-01 4.41672E-29
3.45492E-01 4.05933E-29
3.49647E-01 3.72929E-29
3.53814E-01 3.42462E-29
3.57992E-01 3.14346E-29
3.62181E-01 2.88411E-29
3.66381E-01 2.64496E-29
3.70590E-01 2.42454E-29
3.74810E-01 2.22147E-29
3.79039E-01 2.03447E-29
3.83277E-01 1.86234E-29
3.87524E-01 1.70399E-29
3.91780E-01 1.55837E-29
3.96044E-01 1.42453E-29
4.00316E-01 1.30160E-29
4.04596E-01 1.18874E-29
4.08882E-01 1.08518E-29
4.13176E-01 9.90224E-30
4.17476E-01 9.03203E-30
4.21783E-01 8.23508E-30
4.26095E-01 7.50571E-30
4.30413E-01 6.83865E-30
4.34737E-01 6.22901E-30
4.39065E-01 5.67228E-30
4.43398E-01 5.16425E-30
4.47736E-01 4.70104E-30
4.52077E-01 4.27905E-30
4.56422E-01 3.89495E-30
4.60770E-01 3.54565E-30
4.65122E-01 3.22829E-30
4.69476E-01 2.94025E-30
4.73832E-01 2.67907E-30
4.78190E-01 2.44251E-30
4.82550E-01 2.22848E-30
4.86912E-01 2.03506E-30
4.91274E-01 1.86047E-30
4.95637E-01 1.70308E-30
5.00000E-01 1.56137E-30
5.04363E-01 1.43396E-30
5.08726E-01 1.31957E-30
5.13088E-01 1.21700E-30
5.17450E-01 1.12519E-30
5.21810E-01 1.04314E-30
5.26168E-01 9.69917E-31
5.30524E-01 9.04694E-31
5.34878E-01 8.46696E-31
5.39230E-01 7.95217E-31
5.43578E-01 7.49608E-31
5.47923E-01 7.09277E-31
5.52264E-01 6.73683E-31
5.56602E-01 6.42329E-31
5.60935E-01 6.14764E-31
5.65263E-01 5.90577E-31
5.69587E-01 5.69392E-31
5.73905E-01 5.50869E-31
5.78217E-01 5.34698E-31
5.82524E-01 5.20597E-31
5.86824E-01 5.08314E-31
5.91118E-01 4.97616E-31
5.95404E-01 4.88297E-31
5.99684E-01 4.80169E-31
6.03956E-01 4.73063E-31
6.08220E-01 4.66830E-31
6.12476E-01 4.61332E-31
6.16723E-01 4.56449E-31
6.20961E-01 4.52074E-31
6.25190E-01 4.48110E-31
6.29410E-01 4.44472E-31
6.33619E-01 4.41087E-31
6.37819E-01 4.37887E-31
6.42008E-01 4.34817E-31
6.46186E-01 4.31825E-31
6.50353E-01 4.28869E-31
6.54508E-01 4.25912E-31
6.58652E-01 4.22921E-31
6.62784E-01 4.19872E-31
6.66903E-01 4.16741E-31
6.71010E-01 4.13511E-31
6.75104E-01 4.10167E-31
6.79184E-01 4.06698E-31
6.83251E-01 4.03096E-31
6.87303E-01 3.99355E-31
6.91342E-01 3.95471E-31
6.95366E-01 3.91444E-31
6.99375E-01 3.87272E-31
7.03368E-01 3.82957E-31
7.07347E-01 3.78503E-31
7.11309E-01 3.73914E-31
7.15256E-01 3.69194E-31
7.19186E-01 3.64348E-31
7.23099E-01 3.59385E-31
7.26995E-01 3.54309E-31
7.30874E-01 3.49129E-31
7.34736E-01 3.43853E-31
7.38579E-01 3.38488E-31
7.42405E-01 3.33041E-31
7.46212E-01 3.27523E-31
7.50000E-01 3.21940E-31
7.53769E-01 3.16300E-31
7.57519E-01 3.10612E-31
7.61249E-01 3.04884E-31
7.64960E-01 2.99124E-31
7.68650E-01 2.93338E-31
7.72320E-01 2.87535E-31
7.75968E-01 2.81722E-31
7.79596E-01 2.75905E-31
7.83203E-01 2.70092E-31
7.86788E-01 2.64289E-31
7.90351E-01 2.58501E-31
7.93893E-01 2.52736E-31
7.97411E-01 2.46998E-31
8.00908E-01 2.41292E-31
8.04381E-01 2.35624E-31
8.07831E-01 2.29999E-31
8.11257E-01 2.24420E-31
8.14660E-01 2.18893E-31
8.18039E-01 2.13420E-31
8.21394E-01 2.08006E-31
8.24724E-01 2.02653E-31
8.28030E-01 1.97365E-31
8.31310E-01 1.92144E-31
8.34565E-01 1.86994E-31
8.37795E-01 1.81916E-31
8.40999E-01 1.76913E-31
8.44177E-01 1.71986E-31
8.47329E-01 1.67138E-31
8.50455E-01 1.62368E-31
8.53553E-01 1.57680E-31
8.56625E-01 1.53074E-31
8.59670E-01 1.48550E-31
8.62687E-01 1.44110E-31
8.65677E-01 1.39754E-31
8.68639E-01 1.35483E-31
8.71572E-01 1.31297E-31
8.74478E-01 1.27195E-31
8.77355E-01 1.23179E-31
8.80203E-01 1.19248E-31
8.83022E-01 1.15401E-31
8.85812E-01 1.11639E-31
8.88573E-01 1.07961E-31
8.91304E-01 1.04367E-31
8.94005E-01 1.00856E-31
8.96677E-01 9.74265E-32
8.99318E-01 9.40791E-32
9.01928E-01 9.08126E-32
9.04508E-01 8.76261E-32
9.07058E-01 8.45188E-32
9.09576E-01 8.14895E-32
9.12063E-01 7.85375E-32
9.14519E-01 7.56616E-32
9.16943E-01 7.28609E-32
9.19335E-01 7.01341E-32
9.21696E-01 6.74801E-32
9.24024E-01 6.48979E-32
9.26320E-01 6.23862E-32
9.28584E-01 5.99438E-32
9.30815E-01 5.75697E-32
9.33013E-01 5.52624E-32
9.35178E-01 5.30209E-32
9.37310E-01 5.08440E-32
9.39409E-01 4.87303E-32
9.41474E-01 4.66787E-32
9.43505E-01 4.46879E-32
9.45503E-01 4.27568E-32
9.47467E-01 4.08841E-32
9.49397E-01 3.90687E-32
9.51293E-01 3.73092E-32
9.53154E-01 3.56047E-32
9.54981E-01 3.39538E-32
9.56773E-01 3.23554E-32
9.58530E-01 3.08084E-32
9.60252E-01 2.93117E-32
9.61940E-01 2.78642E-32
9.63592E-01 2.64647E-32
9.65209E-01 2.51123E-32
9.66790E-01 2.38058E-32
9.68336E-01 2.25442E-32
9.69846E-01 2.13266E-32
9.71321E-01 2.01519E-32
9.72759E-01 1.90192E-32
9.74162E-01 1.79275E-32
9.75528E-01 1.68759E-32
9.76858E-01 1.58635E-32
9.78152E-01 1.48895E-32
9.79410E-01 1.39530E-32
9.80631E-01 1.30532E-32
9.81815E-01 1.21893E-32
9.82963E-01 1.13605E-32
9.84074E-01 1.05661E-32
9.85148E-01 9.80526E-33
9.86185E-01 9.07740E-33
9.87185E-01 8.38181E-33
9.88148E-01 7.71784E-33
9.89074E-01 7.08487E-33
9.89962E-01 6.48228E-33
9.90814E-01 5.90953E-33
9.91627E-01 5.36605E-33
9.92404E-01 4.85133E-33
9.93143E-01 4.36485E-33
9.93844E-01 3.90616E-33
9.94508E-01 3.47479E-33
9.95134E-01 3.07034E-33
9.95722E-01 2.69239E-33
9.96273E-01 2.34056E-33
9.96786E-01 2.01452E-33
9.97261E-01 1.71393E-33
9.97698E-01 1.43850E-33
9.98097E-01 1.18794E-33
9.98459E-01 9.62001E-34
9.98782E-01 7.60464E-34
9.99067E-01 5.83114E-34
9.99315E-01 4.29774E-34
9.99524E-01 3.00288E-34
9.99695E-01 1.94526E-34
9.99829E-01 1.12376E-34
9.99924E-01 5.37610E-35
9.99981E-01 1.86126E-35
1.00000E+00 6.90782E-36
