 #
 # Subroutine ELSEPA. Elastic scattering of electrons and positrons
 #                    by neutral atoms and positive ions
 #
 # Projectile: electron
 # Kinetic energy = 1.75000E+08 eV = 6.43113E+06 a.u.
 #
 # WARNING: High-energy factorization with free-atom DF screening.
 #          Absorption, polarization and exchange corrections are
 #          switched off.
 #          Phase shifts are calculated for the bare nucleus.
 #          Scattering amplitudes are not evaluated.
 #
 # Element: Fe,  Z =  26,  atomic weight = 5.58450E+01 g/mol
 #
 # Nuclear model: Fermi distribution
 #                Average radius = 4.08989E-13 cm
 #                Skin thickness = 5.46000E-14 cm
 #
 # Number of electrons = 26
 #
 # Total elastic cross section = 1.95964E-18 cm**2 = 6.99799E-02 a0**2
 # 1st transport cross section = 4.56258E-26 cm**2 = 1.62933E-09 a0**2
 # 2nd transport cross section = 1.36373E-25 cm**2 = 4.86997E-09 a0**2
 #
 #
 # Differential cross section:                       MU=(1-COS(THETA))/2
 #
 #  THETA        MU          DCS          DCS        Sherman      error
 #  (deg)                 (cm**2/sr)   (a0**2/sr)    function
 #----------------------------------------------------------------------
0.00000E+00 5.99425E-10
7.61557E-13 5.93947E-10
1.18994E-12 5.90904E-10
1.71346E-12 5.87219E-10
2.33225E-12 5.82911E-10
3.04617E-12 5.78005E-10
3.85530E-12 5.72525E-10
4.75964E-12 5.66499E-10
5.75917E-12 5.59957E-10
6.85391E-12 5.52932E-10
8.04379E-12 5.45434E-10
9.32893E-12 5.37521E-10
1.07092E-11 5.29268E-10
1.21847E-11 5.20664E-10
1.37554E-11 5.11711E-10
1.54213E-11 5.02538E-10
1.71823E-11 4.93142E-10
1.90386E-11 4.83476E-10
2.09900E-11 4.73703E-10
2.30367E-11 4.63836E-10
2.51785E-11 4.53769E-10
2.74156E-11 4.43695E-10
2.97478E-11 4.33644E-10
3.21752E-11 4.23459E-10
3.46979E-11 4.13349E-10
3.73157E-11 4.03340E-10
4.00286E-11 3.93295E-10
4.28368E-11 3.83367E-10
4.57402E-11 3.73600E-10
4.87388E-11 3.63880E-10
5.18325E-11 3.54306E-10
5.50215E-11 3.44933E-10
5.83057E-11 3.35675E-10
6.16850E-11 3.26577E-10
6.51595E-11 3.17707E-10
6.87293E-11 3.09000E-10
7.23943E-11 3.00460E-10
7.61544E-11 2.92160E-10
1.18991E-10 2.20233E-10
1.71347E-10 1.67280E-10
2.33223E-10 1.29206E-10
3.04617E-10 1.01708E-10
3.85531E-10 8.14811E-11
4.75965E-10 6.62517E-11
5.75917E-10 5.45024E-11
6.85389E-10 4.52601E-11
8.04380E-10 3.75751E-11
9.32891E-10 3.14177E-11
1.07092E-09 2.67132E-11
1.21847E-09 2.27841E-11
1.37554E-09 1.93019E-11
1.54213E-09 1.65591E-11
1.71823E-09 1.42880E-11
1.90386E-09 1.22350E-11
2.09900E-09 1.05779E-11
2.30367E-09 9.20943E-12
2.51785E-09 7.96944E-12
2.74156E-09 6.94767E-12
2.97478E-09 6.09883E-12
3.21752E-09 5.33468E-12
3.46978E-09 4.69312E-12
3.73156E-09 4.15145E-12
4.00286E-09 3.67232E-12
4.28368E-09 3.26125E-12
4.57402E-09 2.90917E-12
4.87388E-09 2.59967E-12
5.18326E-09 2.33018E-12
5.50215E-09 2.09641E-12
5.83057E-09 1.89064E-12
6.16850E-09 1.70952E-12
6.51596E-09 1.55062E-12
6.87293E-09 1.41001E-12
7.23942E-09 1.28510E-12
7.61544E-09 1.17444E-12
1.18991E-08 5.34024E-13
1.71347E-08 2.81606E-13
2.33223E-08 1.62860E-13
3.04617E-08 1.00311E-13
3.85531E-08 6.47810E-14
4.75965E-08 4.34861E-14
5.75917E-08 3.01748E-14
6.85389E-08 2.15506E-14
8.04380E-08 1.57795E-14
9.32891E-08 1.18196E-14
1.07092E-07 9.02753E-15
1.21847E-07 7.01323E-15
1.37554E-07 5.53271E-15
1.54213E-07 4.42448E-15
1.71823E-07 3.58140E-15
1.90386E-07 2.93070E-15
2.09900E-07 2.42154E-15
2.30367E-07 2.01869E-15
2.51785E-07 1.69648E-15
2.74156E-07 1.43624E-15
2.97478E-07 1.22414E-15
3.21752E-07 1.04975E-15
3.46978E-07 9.05385E-16
3.73156E-07 7.85026E-16
4.00286E-07 6.84029E-16
4.28368E-07 5.98765E-16
4.57402E-07 5.26343E-16
4.87388E-07 4.64546E-16
5.18325E-07 4.11553E-16
5.50215E-07 3.65900E-16
5.83057E-07 3.26398E-16
6.16850E-07 2.92067E-16
6.51596E-07 2.62129E-16
6.87293E-07 2.35926E-16
7.23942E-07 2.12913E-16
7.61543E-07 1.92634E-16
1.18991E-06 7.95426E-17
1.71347E-06 3.85207E-17
2.33223E-06 2.08415E-17
3.04617E-06 1.22344E-17
3.85531E-06 7.64504E-18
4.75964E-06 5.01919E-18
5.75916E-06 3.42982E-18
6.85388E-06 2.42259E-18
8.04378E-06 1.75940E-18
9.32888E-06 1.30839E-18
1.07092E-05 9.93072E-19
1.21846E-05 7.67277E-19
1.37553E-05 6.02165E-19
1.54212E-05 4.79176E-19
1.71822E-05 3.86047E-19
1.90385E-05 3.14477E-19
2.09899E-05 2.58783E-19
2.30365E-05 2.14886E-19
2.51783E-05 1.79908E-19
2.74153E-05 1.51761E-19
2.97475E-05 1.28908E-19
3.21749E-05 1.10201E-19
3.46974E-05 9.47693E-20
3.73152E-05 8.19498E-20
4.00281E-05 7.12285E-20
4.28362E-05 6.22056E-20
4.57395E-05 5.45675E-20
4.87380E-05 4.80663E-20
5.18317E-05 4.25047E-20
5.50205E-05 3.77245E-20
5.83045E-05 3.35979E-20
6.16838E-05 3.00207E-20
6.51582E-05 2.69076E-20
6.87277E-05 2.41882E-20
7.23925E-05 2.18040E-20
7.61524E-05 1.97007E-20
9.21439E-05 1.34608E-20
1.09658E-04 9.50735E-21
1.28695E-04 6.90489E-21
1.49255E-04 5.13500E-21
1.71338E-04 3.89772E-21
1.94942E-04 3.01164E-21
2.20070E-04 2.36366E-21
2.46720E-04 1.88096E-21
2.74892E-04 1.51541E-21
3.04586E-04 1.23451E-21
3.35803E-04 1.01576E-21
3.68542E-04 8.43377E-22
4.02802E-04 7.06049E-22
4.38585E-04 5.95556E-22
4.75889E-04 5.05848E-22
5.14715E-04 4.32400E-22
5.55063E-04 3.71803E-22
5.96931E-04 3.21450E-22
6.40321E-04 2.79331E-22
6.85233E-04 2.43882E-22
7.31665E-04 2.13875E-22
7.79618E-04 1.88338E-22
8.29092E-04 1.66495E-22
8.80086E-04 1.47724E-22
9.32601E-04 1.31519E-22
9.86636E-04 1.17472E-22
1.04219E-03 1.05247E-22
1.09927E-03 9.45677E-23
1.15786E-03 8.52054E-23
1.21797E-03 7.69700E-23
1.27961E-03 6.97028E-23
1.34276E-03 6.32704E-23
1.40743E-03 5.75604E-23
1.47362E-03 5.24777E-23
1.54133E-03 4.79415E-23
1.61056E-03 4.38828E-23
1.68131E-03 4.02425E-23
1.75357E-03 3.69701E-23
1.82735E-03 3.40219E-23
1.90265E-03 3.13602E-23
1.97947E-03 2.89521E-23
2.05780E-03 2.67694E-23
2.13765E-03 2.47871E-23
2.21902E-03 2.29837E-23
2.30190E-03 2.13402E-23
2.38630E-03 1.98399E-23
2.47222E-03 1.84680E-23
2.55965E-03 1.72118E-23
2.64859E-03 1.60596E-23
2.73905E-03 1.50013E-23
2.83103E-03 1.40280E-23
2.92452E-03 1.31315E-23
3.01952E-03 1.23048E-23
3.11604E-03 1.15414E-23
3.21407E-03 1.08357E-23
3.31362E-03 1.01825E-23
3.41468E-03 9.57713E-24
3.51725E-03 9.01556E-24
3.62133E-03 8.49402E-24
3.72692E-03 8.00915E-24
3.83403E-03 7.55791E-24
3.94265E-03 7.13755E-24
4.05278E-03 6.74559E-24
4.16442E-03 6.37975E-24
4.27757E-03 6.03800E-24
4.39223E-03 5.71845E-24
4.50840E-03 5.41941E-24
4.62608E-03 5.13934E-24
4.74527E-03 4.87680E-24
4.86597E-03 4.63051E-24
4.98817E-03 4.39928E-24
5.11188E-03 4.18203E-24
5.23711E-03 3.97776E-24
5.36383E-03 3.78556E-24
5.49207E-03 3.60458E-24
5.62181E-03 3.43406E-24
5.75306E-03 3.27329E-24
5.88581E-03 3.12160E-24
6.02007E-03 2.97839E-24
6.15583E-03 2.84311E-24
6.29310E-03 2.71524E-24
6.43187E-03 2.59430E-24
6.57214E-03 2.47984E-24
6.71392E-03 2.37147E-24
6.85720E-03 2.26879E-24
7.00198E-03 2.17146E-24
7.14827E-03 2.07915E-24
7.29605E-03 1.99155E-24
7.44534E-03 1.90839E-24
7.59612E-03 1.82939E-24
7.97965E-03 1.64856E-24
8.37255E-03 1.48888E-24
8.77480E-03 1.34748E-24
9.18641E-03 1.22193E-24
9.60736E-03 1.11018E-24
1.00376E-02 1.01047E-24
1.04773E-02 9.21285E-25
1.09262E-02 8.41349E-25
1.13844E-02 7.69549E-25
1.18520E-02 7.04926E-25
1.23288E-02 6.46649E-25
1.28150E-02 5.93999E-25
1.33104E-02 5.46348E-25
1.38150E-02 5.03146E-25
1.43290E-02 4.63916E-25
1.48521E-02 4.28234E-25
1.53845E-02 3.95733E-25
1.59262E-02 3.66084E-25
1.64770E-02 3.39000E-25
1.70371E-02 3.14225E-25
1.76063E-02 2.91534E-25
1.81848E-02 2.70724E-25
1.87724E-02 2.51617E-25
1.93692E-02 2.34054E-25
1.99751E-02 2.17891E-25
2.05901E-02 2.03000E-25
2.12143E-02 1.89268E-25
2.18476E-02 1.76591E-25
2.24900E-02 1.64876E-25
2.31415E-02 1.54041E-25
2.38021E-02 1.44010E-25
2.44717E-02 1.34716E-25
2.51504E-02 1.26096E-25
2.58382E-02 1.18096E-25
2.65349E-02 1.10664E-25
2.72407E-02 1.03756E-25
2.79555E-02 9.73288E-26
2.86793E-02 9.13453E-26
2.94120E-02 8.57709E-26
3.01537E-02 8.05741E-26
3.09043E-02 7.57260E-26
3.16639E-02 7.12003E-26
3.24324E-02 6.69730E-26
3.32098E-02 6.30221E-26
3.39961E-02 5.93273E-26
3.47912E-02 5.58701E-26
3.55952E-02 5.26333E-26
3.64081E-02 4.96015E-26
3.72297E-02 4.67600E-26
3.80602E-02 4.40956E-26
3.88995E-02 4.15961E-26
3.97476E-02 3.92502E-26
4.06044E-02 3.70474E-26
4.14700E-02 3.49781E-26
4.23443E-02 3.30333E-26
4.32273E-02 3.12048E-26
4.41190E-02 2.94850E-26
4.50194E-02 2.78667E-26
4.59284E-02 2.63434E-26
4.68461E-02 2.49090E-26
4.87074E-02 2.22844E-26
5.06030E-02 1.99524E-26
5.25328E-02 1.78776E-26
5.44967E-02 1.60295E-26
5.64946E-02 1.43813E-26
5.85262E-02 1.29100E-26
6.05914E-02 1.15951E-26
6.26901E-02 1.04191E-26
6.48222E-02 9.36627E-27
6.69873E-02 8.42299E-27
6.91854E-02 7.57721E-27
7.14163E-02 6.81833E-27
7.36799E-02 6.13698E-27
7.59760E-02 5.52486E-27
7.83043E-02 4.97465E-27
8.06647E-02 4.47982E-27
8.30571E-02 4.03461E-27
8.54812E-02 3.63386E-27
8.79369E-02 3.27301E-27
9.04240E-02 2.94796E-27
9.29422E-02 2.65509E-27
9.54915E-02 2.39115E-27
9.80716E-02 2.15321E-27
1.00682E-01 1.93868E-27
1.03323E-01 1.74523E-27
1.05995E-01 1.57077E-27
1.08696E-01 1.41342E-27
1.11427E-01 1.27150E-27
1.14188E-01 1.14350E-27
1.16978E-01 1.02805E-27
1.19797E-01 9.23926E-28
1.22645E-01 8.30029E-28
1.25522E-01 7.45363E-28
1.28428E-01 6.69034E-28
1.31361E-01 6.00234E-28
1.34323E-01 5.38233E-28
1.37313E-01 4.82375E-28
1.40330E-01 4.32064E-28
1.43375E-01 3.86765E-28
1.46447E-01 3.45994E-28
1.49545E-01 3.09311E-28
1.52671E-01 2.76321E-28
1.55823E-01 2.46665E-28
1.59001E-01 2.20021E-28
1.62205E-01 1.96095E-28
1.65435E-01 1.74622E-28
1.68690E-01 1.55362E-28
1.71970E-01 1.38098E-28
1.75276E-01 1.22635E-28
1.78606E-01 1.08795E-28
1.81961E-01 9.64164E-29
1.85340E-01 8.53551E-29
1.88743E-01 7.54793E-29
1.92169E-01 6.66703E-29
1.95619E-01 5.88205E-29
1.99092E-01 5.18329E-29
2.02589E-01 4.56195E-29
2.06107E-01 4.01012E-29
2.09649E-01 3.52062E-29
2.13212E-01 3.08699E-29
2.16797E-01 2.70339E-29
2.20404E-01 2.36454E-29
2.24032E-01 2.06569E-29
2.27680E-01 1.80257E-29
2.31350E-01 1.57131E-29
2.35040E-01 1.36843E-29
2.38751E-01 1.19081E-29
2.42481E-01 1.03565E-29
2.46231E-01 9.00406E-30
2.50000E-01 7.82818E-30
2.53788E-01 6.80850E-30
2.57595E-01 5.92677E-30
2.61421E-01 5.16666E-30
2.65264E-01 4.51356E-30
2.69126E-01 3.95441E-30
2.73005E-01 3.47755E-30
2.76901E-01 3.07258E-30
2.80814E-01 2.73027E-30
2.84744E-01 2.44237E-30
2.88691E-01 2.20160E-30
2.92653E-01 2.00147E-30
2.96632E-01 1.83627E-30
3.00625E-01 1.70094E-30
3.04634E-01 1.59102E-30
3.08658E-01 1.50260E-30
3.12697E-01 1.43225E-30
3.16749E-01 1.37696E-30
3.20816E-01 1.33411E-30
3.24896E-01 1.30144E-30
3.28990E-01 1.27696E-30
3.33097E-01 1.25897E-30
3.37216E-01 1.24603E-30
3.41348E-01 1.23687E-30
3.45492E-01 1.23045E-30
3.49647E-01 1.22587E-30
3.53814E-01 1.22238E-30
3.57992E-01 1.21937E-30
3.62181E-01 1.21633E-30
3.66381E-01 1.21286E-30
3.70590E-01 1.20862E-30
3.74810E-01 1.20338E-30
3.79039E-01 1.19694E-30
3.83277E-01 1.18918E-30
3.87524E-01 1.18000E-30
3.91780E-01 1.16937E-30
3.96044E-01 1.15726E-30
4.00316E-01 1.14370E-30
4.04596E-01 1.12873E-30
4.08882E-01 1.11238E-30
4.13176E-01 1.09475E-30
4.17476E-01 1.07590E-30
4.21783E-01 1.05592E-30
4.26095E-01 1.03492E-30
4.30413E-01 1.01299E-30
4.34737E-01 9.90236E-31
4.39065E-01 9.66756E-31
4.43398E-01 9.42653E-31
4.47736E-01 9.18027E-31
4.52077E-01 8.92977E-31
4.56422E-01 8.67596E-31
4.60770E-01 8.41975E-31
4.65122E-01 8.16200E-31
4.69476E-01 7.90353E-31
4.73832E-01 7.64510E-31
4.78190E-01 7.38744E-31
4.82550E-01 7.13121E-31
4.86912E-01 6.87703E-31
4.91274E-01 6.62547E-31
4.95637E-01 6.37704E-31
5.00000E-01 6.13221E-31
5.04363E-01 5.89140E-31
5.08726E-01 5.65499E-31
5.13088E-01 5.42331E-31
5.17450E-01 5.19666E-31
5.21810E-01 4.97527E-31
5.26168E-01 4.75936E-31
5.30524E-01 4.54911E-31
5.34878E-01 4.34467E-31
5.39230E-01 4.14614E-31
5.43578E-01 3.95362E-31
5.47923E-01 3.76714E-31
5.52264E-01 3.58675E-31
5.56602E-01 3.41246E-31
5.60935E-01 3.24426E-31
5.65263E-01 3.08210E-31
5.69587E-01 2.92594E-31
5.73905E-01 2.77573E-31
5.78217E-01 2.63138E-31
5.82524E-01 2.49279E-31
5.86824E-01 2.35987E-31
5.91118E-01 2.23252E-31
5.95404E-01 2.11059E-31
5.99684E-01 1.99398E-31
6.03956E-01 1.88255E-31
6.08220E-01 1.77616E-31
6.12476E-01 1.67467E-31
6.16723E-01 1.57793E-31
6.20961E-01 1.48581E-31
6.25190E-01 1.39813E-31
6.29410E-01 1.31477E-31
6.33619E-01 1.23557E-31
6.37819E-01 1.16038E-31
6.42008E-01 1.08906E-31
6.46186E-01 1.02145E-31
6.50353E-01 9.57402E-32
6.54508E-01 8.96785E-32
6.58652E-01 8.39453E-32
6.62784E-01 7.85267E-32
6.66903E-01 7.34092E-32
6.71010E-01 6.85795E-32
6.75104E-01 6.40247E-32
6.79184E-01 5.97323E-32
6.83251E-01 5.56899E-32
6.87303E-01 5.18858E-32
6.91342E-01 4.83084E-32
6.95366E-01 4.49466E-32
6.99375E-01 4.17896E-32
7.03368E-01 3.88271E-32
7.07347E-01 3.60491E-32
7.11309E-01 3.34459E-32
7.15256E-01 3.10083E-32
7.19186E-01 2.87274E-32
7.23099E-01 2.65947E-32
7.26995E-01 2.46019E-32
7.30874E-01 2.27414E-32
7.34736E-01 2.10056E-32
7.38579E-01 1.93873E-32
7.42405E-01 1.78798E-32
7.46212E-01 1.64766E-32
7.50000E-01 1.51713E-32
7.53769E-01 1.39583E-32
7.57519E-01 1.28318E-32
7.61249E-01 1.17866E-32
7.64960E-01 1.08175E-32
7.68650E-01 9.91976E-33
7.72320E-01 9.08888E-33
7.75968E-01 8.32054E-33
7.79596E-01 7.61065E-33
7.83203E-01 6.95537E-33
7.86788E-01 6.35105E-33
7.90351E-01 5.79427E-33
7.93893E-01 5.28179E-33
7.97411E-01 4.81056E-33
8.00908E-01 4.37769E-33
8.04381E-01 3.98050E-33
8.07831E-01 3.61643E-33
8.11257E-01 3.28310E-33
8.14660E-01 2.97826E-33
8.18039E-01 2.69981E-33
8.21394E-01 2.44578E-33
8.24724E-01 2.21432E-33
8.28030E-01 2.00370E-33
8.31310E-01 1.81231E-33
8.34565E-01 1.63864E-33
8.37795E-01 1.48128E-33
8.40999E-01 1.33891E-33
8.44177E-01 1.21031E-33
8.47329E-01 1.09433E-33
8.50455E-01 9.89927E-34
8.53553E-01 8.96101E-34
8.56625E-01 8.11939E-34
8.59670E-01 7.36594E-34
8.62687E-01 6.69275E-34
8.65677E-01 6.09256E-34
8.68639E-01 5.55860E-34
8.71572E-01 5.08465E-34
8.74478E-01 4.66497E-34
8.77355E-01 4.29425E-34
8.80203E-01 3.96761E-34
8.83022E-01 3.68056E-34
8.85812E-01 3.42897E-34
8.88573E-01 3.20908E-34
8.91304E-01 3.01740E-34
8.94005E-01 2.85079E-34
8.96677E-01 2.70633E-34
8.99318E-01 2.58141E-34
9.01928E-01 2.47361E-34
9.04508E-01 2.38076E-34
9.07058E-01 2.30088E-34
9.09576E-01 2.23219E-34
9.12063E-01 2.17307E-34
9.14519E-01 2.12207E-34
9.16943E-01 2.07790E-34
9.19335E-01 2.03938E-34
9.21696E-01 2.00547E-34
9.24024E-01 1.97526E-34
9.26320E-01 1.94791E-34
9.28584E-01 1.92272E-34
9.30815E-01 1.89905E-34
9.33013E-01 1.87635E-34
9.35178E-01 1.85414E-34
9.37310E-01 1.83202E-34
9.39409E-01 1.80964E-34
9.41474E-01 1.78671E-34
9.43505E-01 1.76299E-34
9.45503E-01 1.73828E-34
9.47467E-01 1.71244E-34
9.49397E-01 1.68534E-34
9.51293E-01 1.65689E-34
9.53154E-01 1.62706E-34
9.54981E-01 1.59580E-34
9.56773E-01 1.56311E-34
9.58530E-01 1.52902E-34
9.60252E-01 1.49354E-34
9.61940E-01 1.45674E-34
9.63592E-01 1.41867E-34
9.65209E-01 1.37941E-34
9.66790E-01 1.33905E-34
9.68336E-01 1.29767E-34
9.69846E-01 1.25538E-34
9.71321E-01 1.21229E-34
9.72759E-01 1.16849E-34
9.74162E-01 1.12411E-34
9.75528E-01 1.07926E-34
9.76858E-01 1.03406E-34
9.78152E-01 9.88621E-35
9.79410E-01 9.43069E-35
9.80631E-01 8.97514E-35
9.81815E-01 8.52078E-35
9.82963E-01 8.06875E-35
9.84074E-01 7.62013E-35
9.85148E-01 7.17610E-35
9.86185E-01 6.73770E-35
9.87185E-01 6.30595E-35
9.88148E-01 5.88193E-35
9.89074E-01 5.46657E-35
9.89962E-01 5.06087E-35
9.90814E-01 4.66572E-35
9.91627E-01 4.28200E-35
9.92404E-01 3.91054E-35
9.93143E-01 3.55217E-35
9.93844E-01 3.20762E-35
9.94508E-01 2.87765E-35
9.95134E-01 2.56291E-35
9.95722E-01 2.26404E-35
9.96273E-01 1.98170E-35
9.96786E-01 1.71638E-35
9.97261E-01 1.46863E-35
9.97698E-01 1.23894E-35
9.98097E-01 1.02778E-35
9.98459E-01 8.35496E-36
9.98782E-01 6.62469E-36
9.99067E-01 5.09050E-36
9.99315E-01 3.75510E-36
9.99524E-01 2.62098E-36
9.99695E-01 1.69014E-36
9.99829E-01 9.64487E-37
9.99924E-01 4.45102E-37
9.99981E-01 1.33203E-37
1.00000E+00 2.88878E-38
