 #
 # Subroutine ELSEPA. Elastic scattering of electrons and positrons
 #                    by neutral atoms and positive ions
 #
 # Projectile: electron
 # Kinetic energy = 1.75000E+07 eV = 6.43113E+05 a.u.
 #
 # WARNING: High-energy factorization with free-atom DF screening.
 #          Absorption, polarization and exchange corrections are
 #          switched off.
 #          Phase shifts are calculated for the bare nucleus.
 #          Scattering amplitudes are not evaluated.
 #
 # Element: Fe,  Z =  26,  atomic weight = 5.58450E+01 g/mol
 #
 # Nuclear model: Fermi distribution
 #                Average radius = 4.08989E-13 cm
 #                Skin thickness = 5.46000E-14 cm
 #
 # Number of electrons = 26
 #
 # Total elastic cross section = 1.96156E-18 cm**2 = 7.00486E-02 a0**2
 # 1st transport cross section = 3.86491E-24 cm**2 = 1.38018E-07 a0**2
 # 2nd transport cross section = 1.11144E-23 cm**2 = 3.96901E-07 a0**2
 #
 #
 # Differential cross section:                       MU=(1-COS(THETA))/2
 #
 #  THETA        MU          DCS          DCS        Sherman      error
 #  (deg)                 (cm**2/sr)   (a0**2/sr)    function
 #----------------------------------------------------------------------
0.00000E+00 6.31250E-12
7.61557E-13 6.31188E-12
1.18994E-12 6.31154E-12
1.71346E-12 6.31112E-12
2.33225E-12 6.31062E-12
3.04617E-12 6.31005E-12
3.85530E-12 6.30940E-12
4.75964E-12 6.30867E-12
5.75917E-12 6.30787E-12
6.85391E-12 6.30699E-12
8.04379E-12 6.30604E-12
9.32893E-12 6.30501E-12
1.07092E-11 6.30390E-12
1.21847E-11 6.30272E-12
1.37554E-11 6.30146E-12
1.54213E-11 6.30013E-12
1.71823E-11 6.29872E-12
1.90386E-11 6.29723E-12
2.09900E-11 6.29567E-12
2.30367E-11 6.29404E-12
2.51785E-11 6.29233E-12
2.74156E-11 6.29054E-12
2.97478E-11 6.28868E-12
3.21752E-11 6.28675E-12
3.46979E-11 6.28474E-12
3.73157E-11 6.28265E-12
4.00286E-11 6.28049E-12
4.28368E-11 6.27826E-12
4.57402E-11 6.27595E-12
4.87388E-11 6.27357E-12
5.18325E-11 6.27111E-12
5.50215E-11 6.26858E-12
5.83057E-11 6.26598E-12
6.16850E-11 6.26330E-12
6.51595E-11 6.26055E-12
6.87293E-11 6.25772E-12
7.23943E-11 6.25482E-12
7.61544E-11 6.25185E-12
1.18991E-10 6.21817E-12
1.71347E-10 6.17740E-12
2.33223E-10 6.12978E-12
3.04617E-10 6.07556E-12
3.85531E-10 6.01504E-12
4.75965E-10 5.94856E-12
5.75917E-10 5.87645E-12
6.85389E-10 5.79909E-12
8.04380E-10 5.71649E-12
9.32891E-10 5.62968E-12
1.07092E-09 5.53927E-12
1.21847E-09 5.44457E-12
1.37554E-09 5.34679E-12
1.54213E-09 5.24676E-12
1.71823E-09 5.14363E-12
1.90386E-09 5.03858E-12
2.09900E-09 4.93254E-12
2.30367E-09 4.82460E-12
2.51785E-09 4.71577E-12
2.74156E-09 4.60707E-12
2.97478E-09 4.49756E-12
3.21752E-09 4.38803E-12
3.46978E-09 4.27954E-12
3.73156E-09 4.17119E-12
4.00286E-09 4.06353E-12
4.28368E-09 3.95758E-12
4.57402E-09 3.85257E-12
4.87388E-09 3.74875E-12
5.18326E-09 3.64714E-12
5.50215E-09 3.54704E-12
5.83057E-09 3.44850E-12
6.16850E-09 3.35246E-12
6.51596E-09 3.25835E-12
6.87293E-09 3.16601E-12
7.23942E-09 3.07633E-12
7.61544E-09 2.98881E-12
1.18991E-08 2.23671E-12
1.71347E-08 1.69061E-12
2.33223E-08 1.30154E-12
3.04617E-08 1.02190E-12
3.85531E-08 8.16860E-13
4.75965E-08 6.62773E-13
5.75917E-08 5.44110E-13
6.85389E-08 4.50764E-13
8.04380E-08 3.71965E-13
9.32891E-08 3.11504E-13
1.07092E-07 2.65334E-13
1.21847E-07 2.23741E-13
1.37554E-07 1.89807E-13
1.54213E-07 1.63080E-13
1.71823E-07 1.39304E-13
1.90386E-07 1.19414E-13
2.09900E-07 1.03358E-13
2.30367E-07 8.92789E-14
2.51785E-07 7.73163E-14
2.74156E-07 6.74587E-14
2.97478E-07 5.88914E-14
3.21752E-07 5.15348E-14
3.46978E-07 4.53640E-14
3.73156E-07 4.00139E-14
4.00286E-07 3.53821E-14
4.28368E-07 3.14360E-14
4.57402E-07 2.80058E-14
4.87388E-07 2.50137E-14
5.18325E-07 2.24296E-14
5.50215E-07 2.01699E-14
5.83057E-07 1.81838E-14
6.16850E-07 1.64481E-14
6.51596E-07 1.49183E-14
6.87293E-07 1.35631E-14
7.23942E-07 1.23663E-14
7.61543E-07 1.13027E-14
1.18991E-06 5.14434E-15
1.71347E-06 2.71243E-15
2.33223E-06 1.56648E-15
3.04617E-06 9.62674E-16
3.85531E-06 6.20449E-16
4.75964E-06 4.15919E-16
5.75916E-06 2.88361E-16
6.85388E-06 2.05825E-16
8.04378E-06 1.50671E-16
9.32888E-06 1.12838E-16
1.07092E-05 8.61798E-17
1.21846E-05 6.69667E-17
1.37553E-05 5.28378E-17
1.54212E-05 4.22562E-17
1.71822E-05 3.42066E-17
1.90385E-05 2.79924E-17
2.09899E-05 2.31352E-17
2.30365E-05 1.92901E-17
2.51783E-05 1.62121E-17
2.74153E-05 1.37247E-17
2.97475E-05 1.16974E-17
3.21749E-05 1.00315E-17
3.46974E-05 8.65236E-18
3.73152E-05 7.50255E-18
4.00281E-05 6.53740E-18
4.28362E-05 5.72265E-18
4.57395E-05 5.03095E-18
4.87380E-05 4.44058E-18
5.18317E-05 3.93420E-18
5.50205E-05 3.49779E-18
5.83045E-05 3.12014E-18
6.16838E-05 2.79208E-18
6.51582E-05 2.50600E-18
6.87277E-05 2.25563E-18
7.23925E-05 2.03573E-18
7.61524E-05 1.84192E-18
9.21439E-05 1.26329E-18
1.09658E-04 8.94835E-19
1.28695E-04 6.51353E-19
1.49255E-04 4.85263E-19
1.71338E-04 3.68873E-19
1.94942E-04 2.85361E-19
2.20070E-04 2.24195E-19
2.46720E-04 1.78573E-19
2.74892E-04 1.43985E-19
3.04586E-04 1.17383E-19
3.35803E-04 9.66508E-20
3.68542E-04 8.03020E-20
4.02802E-04 6.72697E-20
4.38585E-04 5.67784E-20
4.75889E-04 4.82563E-20
5.14715E-04 4.12756E-20
5.55063E-04 3.55138E-20
5.96931E-04 3.07239E-20
6.40321E-04 2.67157E-20
6.85233E-04 2.33410E-20
7.31665E-04 2.04832E-20
7.79618E-04 1.80502E-20
8.29092E-04 1.59683E-20
8.80086E-04 1.41785E-20
9.32601E-04 1.26328E-20
9.86636E-04 1.12924E-20
1.04219E-03 1.01255E-20
1.09927E-03 9.10560E-21
1.15786E-03 8.21115E-21
1.21797E-03 7.42404E-21
1.27961E-03 6.72918E-21
1.34276E-03 6.11386E-21
1.40743E-03 5.56741E-21
1.47362E-03 5.08077E-21
1.54133E-03 4.64625E-21
1.61056E-03 4.25729E-21
1.68131E-03 3.90826E-21
1.75357E-03 3.59434E-21
1.82735E-03 3.31138E-21
1.90265E-03 3.05577E-21
1.97947E-03 2.82441E-21
2.05780E-03 2.61458E-21
2.13765E-03 2.42392E-21
2.21902E-03 2.25036E-21
2.30190E-03 2.09209E-21
2.38630E-03 1.94753E-21
2.47222E-03 1.81526E-21
2.55965E-03 1.69406E-21
2.64859E-03 1.58284E-21
2.73905E-03 1.48061E-21
2.83103E-03 1.38652E-21
2.92452E-03 1.29981E-21
3.01952E-03 1.21979E-21
3.11604E-03 1.14585E-21
3.21407E-03 1.07744E-21
3.31362E-03 1.01407E-21
3.41468E-03 9.55307E-22
3.51725E-03 9.00749E-22
3.62133E-03 8.50041E-22
3.72692E-03 8.02861E-22
3.83403E-03 7.58918E-22
3.94265E-03 7.17949E-22
4.05278E-03 6.79715E-22
4.16442E-03 6.44000E-22
4.27757E-03 6.10606E-22
4.39223E-03 5.79355E-22
4.50840E-03 5.50084E-22
4.62608E-03 5.22644E-22
4.74527E-03 4.96898E-22
4.86597E-03 4.72723E-22
4.98817E-03 4.50005E-22
5.11188E-03 4.28639E-22
5.23711E-03 4.08530E-22
5.36383E-03 3.89591E-22
5.49207E-03 3.71739E-22
5.62181E-03 3.54902E-22
5.75306E-03 3.39010E-22
5.88581E-03 3.24000E-22
6.02007E-03 3.09815E-22
6.15583E-03 2.96400E-22
6.29310E-03 2.83705E-22
6.43187E-03 2.71686E-22
6.57214E-03 2.60298E-22
6.71392E-03 2.49502E-22
6.85720E-03 2.39262E-22
7.00198E-03 2.29544E-22
7.14827E-03 2.20316E-22
7.29605E-03 2.11548E-22
7.44534E-03 2.03214E-22
7.59612E-03 1.95288E-22
7.97965E-03 1.77104E-22
8.37255E-03 1.60995E-22
8.77480E-03 1.46682E-22
9.18641E-03 1.33930E-22
9.60736E-03 1.22538E-22
1.00376E-02 1.12337E-22
1.04773E-02 1.03178E-22
1.09262E-02 9.49376E-23
1.13844E-02 8.75062E-23
1.18520E-02 8.07904E-23
1.23288E-02 7.47088E-23
1.28150E-02 6.91907E-23
1.33104E-02 6.41746E-23
1.38150E-02 5.96065E-23
1.43290E-02 5.54390E-23
1.48521E-02 5.16308E-23
1.53845E-02 4.81451E-23
1.59262E-02 4.49496E-23
1.64770E-02 4.20159E-23
1.70371E-02 3.93184E-23
1.76063E-02 3.68347E-23
1.81848E-02 3.45447E-23
1.87724E-02 3.24305E-23
1.93692E-02 3.04761E-23
1.99751E-02 2.86673E-23
2.05901E-02 2.69911E-23
2.12143E-02 2.54361E-23
2.18476E-02 2.39918E-23
2.24900E-02 2.26489E-23
2.31415E-02 2.13990E-23
2.38021E-02 2.02343E-23
2.44717E-02 1.91481E-23
2.51504E-02 1.81340E-23
2.58382E-02 1.71864E-23
2.65349E-02 1.63000E-23
2.72407E-02 1.54702E-23
2.79555E-02 1.46927E-23
2.86793E-02 1.39636E-23
2.94120E-02 1.32792E-23
3.01537E-02 1.26364E-23
3.09043E-02 1.20321E-23
3.16639E-02 1.14636E-23
3.24324E-02 1.09283E-23
3.32098E-02 1.04241E-23
3.39961E-02 9.94857E-24
3.47912E-02 9.49995E-24
3.55952E-02 9.07639E-24
3.64081E-02 8.67622E-24
3.72297E-02 8.29791E-24
3.80602E-02 7.94002E-24
3.88995E-02 7.60126E-24
3.97476E-02 7.28040E-24
4.06044E-02 6.97632E-24
4.14700E-02 6.68797E-24
4.23443E-02 6.41438E-24
4.32273E-02 6.15466E-24
4.41190E-02 5.90797E-24
4.50194E-02 5.67352E-24
4.59284E-02 5.45060E-24
4.68461E-02 5.23852E-24
4.87074E-02 4.84445E-24
5.06030E-02 4.48676E-24
5.25328E-02 4.16148E-24
5.44967E-02 3.86514E-24
5.64946E-02 3.59471E-24
5.85262E-02 3.34750E-24
6.05914E-02 3.12115E-24
6.26901E-02 2.91360E-24
6.48222E-02 2.72298E-24
6.69873E-02 2.54767E-24
6.91854E-02 2.38621E-24
7.14163E-02 2.23731E-24
7.36799E-02 2.09980E-24
7.59760E-02 1.97267E-24
7.83043E-02 1.85498E-24
8.06647E-02 1.74589E-24
8.30571E-02 1.64468E-24
8.54812E-02 1.55065E-24
8.79369E-02 1.46322E-24
9.04240E-02 1.38183E-24
9.29422E-02 1.30598E-24
9.54915E-02 1.23523E-24
9.80716E-02 1.16918E-24
1.00682E-01 1.10745E-24
1.03323E-01 1.04971E-24
1.05995E-01 9.95646E-25
1.08696E-01 9.44991E-25
1.11427E-01 8.97487E-25
1.14188E-01 8.52901E-25
1.16978E-01 8.11021E-25
1.19797E-01 7.71653E-25
1.22645E-01 7.34617E-25
1.25522E-01 6.99750E-25
1.28428E-01 6.66901E-25
1.31361E-01 6.35932E-25
1.34323E-01 6.06716E-25
1.37313E-01 5.79134E-25
1.40330E-01 5.53079E-25
1.43375E-01 5.28450E-25
1.46447E-01 5.05155E-25
1.49545E-01 4.83109E-25
1.52671E-01 4.62231E-25
1.55823E-01 4.42449E-25
1.59001E-01 4.23695E-25
1.62205E-01 4.05904E-25
1.65435E-01 3.89020E-25
1.68690E-01 3.72986E-25
1.71970E-01 3.57752E-25
1.75276E-01 3.43272E-25
1.78606E-01 3.29500E-25
1.81961E-01 3.16396E-25
1.85340E-01 3.03921E-25
1.88743E-01 2.92040E-25
1.92169E-01 2.80719E-25
1.95619E-01 2.69927E-25
1.99092E-01 2.59635E-25
2.02589E-01 2.49816E-25
2.06107E-01 2.40443E-25
2.09649E-01 2.31492E-25
2.13212E-01 2.22942E-25
2.16797E-01 2.14771E-25
2.20404E-01 2.06959E-25
2.24032E-01 1.99488E-25
2.27680E-01 1.92339E-25
2.31350E-01 1.85497E-25
2.35040E-01 1.78946E-25
2.38751E-01 1.72672E-25
2.42481E-01 1.66660E-25
2.46231E-01 1.60897E-25
2.50000E-01 1.55372E-25
2.53788E-01 1.50073E-25
2.57595E-01 1.44989E-25
2.61421E-01 1.40109E-25
2.65264E-01 1.35425E-25
2.69126E-01 1.30926E-25
2.73005E-01 1.26604E-25
2.76901E-01 1.22451E-25
2.80814E-01 1.18460E-25
2.84744E-01 1.14622E-25
2.88691E-01 1.10931E-25
2.92653E-01 1.07380E-25
2.96632E-01 1.03963E-25
3.00625E-01 1.00674E-25
3.04634E-01 9.75068E-26
3.08658E-01 9.44570E-26
3.12697E-01 9.15192E-26
3.16749E-01 8.86884E-26
3.20816E-01 8.59601E-26
3.24896E-01 8.33300E-26
3.28990E-01 8.07938E-26
3.33097E-01 7.83477E-26
3.37216E-01 7.59879E-26
3.41348E-01 7.37108E-26
3.45492E-01 7.15131E-26
3.49647E-01 6.93914E-26
3.53814E-01 6.73427E-26
3.57992E-01 6.53641E-26
3.62181E-01 6.34528E-26
3.66381E-01 6.16060E-26
3.70590E-01 5.98212E-26
3.74810E-01 5.80961E-26
3.79039E-01 5.64282E-26
3.83277E-01 5.48153E-26
3.87524E-01 5.32554E-26
3.91780E-01 5.17463E-26
3.96044E-01 5.02862E-26
4.00316E-01 4.88731E-26
4.04596E-01 4.75054E-26
4.08882E-01 4.61814E-26
4.13176E-01 4.48993E-26
4.17476E-01 4.36577E-26
4.21783E-01 4.24550E-26
4.26095E-01 4.12899E-26
4.30413E-01 4.01609E-26
4.34737E-01 3.90669E-26
4.39065E-01 3.80064E-26
4.43398E-01 3.69783E-26
4.47736E-01 3.59815E-26
4.52077E-01 3.50149E-26
4.56422E-01 3.40774E-26
4.60770E-01 3.31679E-26
4.65122E-01 3.22856E-26
4.69476E-01 3.14294E-26
4.73832E-01 3.05985E-26
4.78190E-01 2.97920E-26
4.82550E-01 2.90090E-26
4.86912E-01 2.82489E-26
4.91274E-01 2.75107E-26
4.95637E-01 2.67938E-26
5.00000E-01 2.60975E-26
5.04363E-01 2.54211E-26
5.08726E-01 2.47639E-26
5.13088E-01 2.41252E-26
5.17450E-01 2.35046E-26
5.21810E-01 2.29014E-26
5.26168E-01 2.23150E-26
5.30524E-01 2.17449E-26
5.34878E-01 2.11906E-26
5.39230E-01 2.06516E-26
5.43578E-01 2.01274E-26
5.47923E-01 1.96174E-26
5.52264E-01 1.91214E-26
5.56602E-01 1.86388E-26
5.60935E-01 1.81692E-26
5.65263E-01 1.77123E-26
5.69587E-01 1.72676E-26
5.73905E-01 1.68347E-26
5.78217E-01 1.64133E-26
5.82524E-01 1.60031E-26
5.86824E-01 1.56037E-26
5.91118E-01 1.52148E-26
5.95404E-01 1.48360E-26
5.99684E-01 1.44671E-26
6.03956E-01 1.41078E-26
6.08220E-01 1.37578E-26
6.12476E-01 1.34167E-26
6.16723E-01 1.30845E-26
6.20961E-01 1.27607E-26
6.25190E-01 1.24452E-26
6.29410E-01 1.21377E-26
6.33619E-01 1.18380E-26
6.37819E-01 1.15458E-26
6.42008E-01 1.12610E-26
6.46186E-01 1.09833E-26
6.50353E-01 1.07125E-26
6.54508E-01 1.04485E-26
6.58652E-01 1.01911E-26
6.62784E-01 9.93996E-27
6.66903E-01 9.69504E-27
6.71010E-01 9.45613E-27
6.75104E-01 9.22308E-27
6.79184E-01 8.99572E-27
6.83251E-01 8.77389E-27
6.87303E-01 8.55744E-27
6.91342E-01 8.34624E-27
6.95366E-01 8.14012E-27
6.99375E-01 7.93897E-27
7.03368E-01 7.74264E-27
7.07347E-01 7.55100E-27
7.11309E-01 7.36394E-27
7.15256E-01 7.18133E-27
7.19186E-01 7.00305E-27
7.23099E-01 6.82899E-27
7.26995E-01 6.65904E-27
7.30874E-01 6.49309E-27
7.34736E-01 6.33104E-27
7.38579E-01 6.17279E-27
7.42405E-01 6.01823E-27
7.46212E-01 5.86728E-27
7.50000E-01 5.71985E-27
7.53769E-01 5.57583E-27
7.57519E-01 5.43516E-27
7.61249E-01 5.29774E-27
7.64960E-01 5.16348E-27
7.68650E-01 5.03232E-27
7.72320E-01 4.90418E-27
7.75968E-01 4.77897E-27
7.79596E-01 4.65663E-27
7.83203E-01 4.53709E-27
7.86788E-01 4.42027E-27
7.90351E-01 4.30612E-27
7.93893E-01 4.19456E-27
7.97411E-01 4.08554E-27
8.00908E-01 3.97899E-27
8.04381E-01 3.87485E-27
8.07831E-01 3.77307E-27
8.11257E-01 3.67359E-27
8.14660E-01 3.57635E-27
8.18039E-01 3.48131E-27
8.21394E-01 3.38841E-27
8.24724E-01 3.29759E-27
8.28030E-01 3.20882E-27
8.31310E-01 3.12205E-27
8.34565E-01 3.03722E-27
8.37795E-01 2.95430E-27
8.40999E-01 2.87324E-27
8.44177E-01 2.79399E-27
8.47329E-01 2.71652E-27
8.50455E-01 2.64079E-27
8.53553E-01 2.56676E-27
8.56625E-01 2.49439E-27
8.59670E-01 2.42364E-27
8.62687E-01 2.35448E-27
8.65677E-01 2.28687E-27
8.68639E-01 2.22077E-27
8.71572E-01 2.15617E-27
8.74478E-01 2.09301E-27
8.77355E-01 2.03128E-27
8.80203E-01 1.97094E-27
8.83022E-01 1.91196E-27
8.85812E-01 1.85432E-27
8.88573E-01 1.79798E-27
8.91304E-01 1.74292E-27
8.94005E-01 1.68911E-27
8.96677E-01 1.63652E-27
8.99318E-01 1.58514E-27
9.01928E-01 1.53493E-27
9.04508E-01 1.48587E-27
9.07058E-01 1.43794E-27
9.09576E-01 1.39112E-27
9.12063E-01 1.34538E-27
9.14519E-01 1.30070E-27
9.16943E-01 1.25707E-27
9.19335E-01 1.21445E-27
9.21696E-01 1.17284E-27
9.24024E-01 1.13222E-27
9.26320E-01 1.09255E-27
9.28584E-01 1.05384E-27
9.30815E-01 1.01605E-27
9.33013E-01 9.79175E-28
9.35178E-01 9.43194E-28
9.37310E-01 9.08091E-28
9.39409E-01 8.73852E-28
9.41474E-01 8.40460E-28
9.43505E-01 8.07901E-28
9.45503E-01 7.76160E-28
9.47467E-01 7.45223E-28
9.49397E-01 7.15077E-28
9.51293E-01 6.85708E-28
9.53154E-01 6.57104E-28
9.54981E-01 6.29251E-28
9.56773E-01 6.02138E-28
9.58530E-01 5.75753E-28
9.60252E-01 5.50084E-28
9.61940E-01 5.25121E-28
9.63592E-01 5.00852E-28
9.65209E-01 4.77267E-28
9.66790E-01 4.54356E-28
9.68336E-01 4.32109E-28
9.69846E-01 4.10517E-28
9.71321E-01 3.89570E-28
9.72759E-01 3.69260E-28
9.74162E-01 3.49577E-28
9.75528E-01 3.30514E-28
9.76858E-01 3.12063E-28
9.78152E-01 2.94215E-28
9.79410E-01 2.76963E-28
9.80631E-01 2.60300E-28
9.81815E-01 2.44220E-28
9.82963E-01 2.28714E-28
9.84074E-01 2.13777E-28
9.85148E-01 1.99403E-28
9.86185E-01 1.85585E-28
9.87185E-01 1.72318E-28
9.88148E-01 1.59596E-28
9.89074E-01 1.47414E-28
9.89962E-01 1.35767E-28
9.90814E-01 1.24650E-28
9.91627E-01 1.14059E-28
9.92404E-01 1.03989E-28
9.93143E-01 9.44360E-29
9.93844E-01 8.53961E-29
9.94508E-01 7.68656E-29
9.95134E-01 6.88411E-29
9.95722E-01 6.13191E-29
9.96273E-01 5.42968E-29
9.96786E-01 4.77710E-29
9.97261E-01 4.17393E-29
9.97698E-01 3.61991E-29
9.98097E-01 3.11482E-29
9.98459E-01 2.65845E-29
9.98782E-01 2.25062E-29
9.99067E-01 1.89116E-29
9.99315E-01 1.57992E-29
9.99524E-01 1.31677E-29
9.99695E-01 1.10162E-29
9.99829E-01 9.34372E-30
9.99924E-01 8.14955E-30
9.99981E-01 7.43327E-30
1.00000E+00 7.19449E-30
