 #
 # Subroutine ELSEPA. Elastic scattering of electrons and positrons
 #                    by neutral atoms and positive ions
 #
 # Projectile: electron
 # Kinetic energy = 1.25000E+06 eV = 4.59367E+04 a.u.
 #
 # WARNING: High-energy factorization with free-atom DF screening.
 #          Absorption, polarization and exchange corrections are
 #          switched off.
 #          Phase shifts are calculated for the bare nucleus.
 #          Scattering amplitudes are not evaluated.
 #
 # Element: Fe,  Z =  26,  atomic weight = 5.58450E+01 g/mol
 #
 # Nuclear model: Fermi distribution
 #                Average radius = 4.08989E-13 cm
 #                Skin thickness = 5.46000E-14 cm
 #
 # Number of electrons = 26
 #
 # Total elastic cross section = 2.14375E-18 cm**2 = 7.65547E-02 a0**2
 # 1st transport cross section = 3.27353E-22 cm**2 = 1.16900E-05 a0**2
 # 2nd transport cross section = 9.13250E-22 cm**2 = 3.26128E-05 a0**2
 #
 #
 # Differential cross section:                       MU=(1-COS(THETA))/2
 #
 #  THETA        MU          DCS          DCS        Sherman      error
 #  (deg)                 (cm**2/sr)   (a0**2/sr)    function
 #----------------------------------------------------------------------
0.00000E+00 6.03454E-14
7.61557E-13 6.03453E-14
1.18994E-12 6.03453E-14
1.71346E-12 6.03453E-14
2.33225E-12 6.03453E-14
3.04617E-12 6.03452E-14
3.85530E-12 6.03452E-14
4.75964E-12 6.03451E-14
5.75917E-12 6.03450E-14
6.85391E-12 6.03450E-14
8.04379E-12 6.03449E-14
9.32893E-12 6.03448E-14
1.07092E-11 6.03447E-14
1.21847E-11 6.03446E-14
1.37554E-11 6.03445E-14
1.54213E-11 6.03444E-14
1.71823E-11 6.03443E-14
1.90386E-11 6.03442E-14
2.09900E-11 6.03441E-14
2.30367E-11 6.03439E-14
2.51785E-11 6.03438E-14
2.74156E-11 6.03436E-14
2.97478E-11 6.03435E-14
3.21752E-11 6.03433E-14
3.46979E-11 6.03432E-14
3.73157E-11 6.03430E-14
4.00286E-11 6.03428E-14
4.28368E-11 6.03426E-14
4.57402E-11 6.03424E-14
4.87388E-11 6.03422E-14
5.18325E-11 6.03420E-14
5.50215E-11 6.03418E-14
5.83057E-11 6.03416E-14
6.16850E-11 6.03414E-14
6.51595E-11 6.03412E-14
6.87293E-11 6.03409E-14
7.23943E-11 6.03407E-14
7.61544E-11 6.03404E-14
1.18991E-10 6.03376E-14
1.71347E-10 6.03341E-14
2.33223E-10 6.03300E-14
3.04617E-10 6.03253E-14
3.85531E-10 6.03199E-14
4.75965E-10 6.03139E-14
5.75917E-10 6.03072E-14
6.85389E-10 6.02999E-14
8.04380E-10 6.02920E-14
9.32891E-10 6.02834E-14
1.07092E-09 6.02742E-14
1.21847E-09 6.02644E-14
1.37554E-09 6.02539E-14
1.54213E-09 6.02428E-14
1.71823E-09 6.02310E-14
1.90386E-09 6.02186E-14
2.09900E-09 6.02056E-14
2.30367E-09 6.01920E-14
2.51785E-09 6.01777E-14
2.74156E-09 6.01628E-14
2.97478E-09 6.01472E-14
3.21752E-09 6.01311E-14
3.46978E-09 6.01143E-14
3.73156E-09 6.00969E-14
4.00286E-09 6.00788E-14
4.28368E-09 6.00601E-14
4.57402E-09 6.00408E-14
4.87388E-09 6.00209E-14
5.18326E-09 6.00004E-14
5.50215E-09 5.99792E-14
5.83057E-09 5.99574E-14
6.16850E-09 5.99350E-14
6.51596E-09 5.99120E-14
6.87293E-09 5.98883E-14
7.23942E-09 5.98641E-14
7.61544E-09 5.98392E-14
1.18991E-08 5.95570E-14
1.71347E-08 5.92148E-14
2.33223E-08 5.88144E-14
3.04617E-08 5.83577E-14
3.85531E-08 5.78470E-14
4.75965E-08 5.72847E-14
5.75917E-08 5.66734E-14
6.85389E-08 5.60158E-14
8.04380E-08 5.53150E-14
9.32891E-08 5.45701E-14
1.07092E-07 5.37912E-14
1.21847E-07 5.29823E-14
1.37554E-07 5.21373E-14
1.54213E-07 5.12654E-14
1.71823E-07 5.03739E-14
1.90386E-07 4.94591E-14
2.09900E-07 4.85229E-14
2.30367E-07 4.75772E-14
2.51785E-07 4.66215E-14
2.74156E-07 4.56485E-14
2.97478E-07 4.46750E-14
3.21752E-07 4.37036E-14
3.46978E-07 4.27195E-14
3.73156E-07 4.17416E-14
4.00286E-07 4.07728E-14
4.28368E-07 3.98026E-14
4.57402E-07 3.88400E-14
4.87388E-07 3.78918E-14
5.18325E-07 3.69521E-14
5.50215E-07 3.60204E-14
5.83057E-07 3.51071E-14
6.16850E-07 3.42101E-14
6.51596E-07 3.33209E-14
6.87293E-07 3.24525E-14
7.23942E-07 3.16054E-14
7.61543E-07 3.07677E-14
1.18991E-06 2.34604E-14
1.71347E-06 1.79706E-14
2.33223E-06 1.39619E-14
3.04617E-06 1.10373E-14
3.85531E-06 8.87311E-15
4.75964E-06 7.23813E-15
5.75916E-06 5.97564E-15
6.85388E-06 4.98092E-15
8.04378E-06 4.18357E-15
9.32888E-06 3.49229E-15
1.07092E-05 2.96192E-15
1.21846E-05 2.54954E-15
1.37553E-05 2.17483E-15
1.54212E-05 1.86189E-15
1.71822E-05 1.61210E-15
1.90385E-05 1.39545E-15
2.09899E-05 1.20471E-15
2.30365E-05 1.04910E-15
2.51783E-05 9.18020E-16
2.74153E-05 7.99442E-16
2.97475E-05 7.00919E-16
3.21749E-05 6.18459E-16
3.46974E-05 5.43925E-16
3.73152E-05 4.80764E-16
4.00281E-05 4.27119E-16
4.28362E-05 3.79775E-16
4.57395E-05 3.38588E-16
4.87380E-05 3.03126E-16
5.18317E-05 2.72065E-16
5.50205E-05 2.44648E-16
5.83045E-05 2.20763E-16
6.16838E-05 1.99808E-16
6.51582E-05 1.81154E-16
6.87277E-05 1.64732E-16
7.23925E-05 1.50225E-16
7.61524E-05 1.37239E-16
9.21439E-05 9.78230E-17
1.09658E-04 7.19541E-17
1.28695E-04 5.43370E-17
1.49255E-04 4.19143E-17
1.71338E-04 3.29166E-17
1.94942E-04 2.62414E-17
2.20070E-04 2.11850E-17
2.46720E-04 1.72848E-17
2.74892E-04 1.42340E-17
3.04586E-04 1.18217E-17
3.35803E-04 9.89287E-18
3.68542E-04 8.33552E-18
4.02802E-04 7.06571E-18
4.38585E-04 6.02494E-18
4.75889E-04 5.16609E-18
5.14715E-04 4.45286E-18
5.55063E-04 3.85663E-18
5.96931E-04 3.35577E-18
6.40321E-04 2.93291E-18
6.85233E-04 2.57406E-18
7.31665E-04 2.26801E-18
7.79618E-04 2.00581E-18
8.29092E-04 1.78005E-18
8.80086E-04 1.58507E-18
9.32601E-04 1.41643E-18
9.86636E-04 1.26980E-18
1.04219E-03 1.14128E-18
1.09927E-03 1.02882E-18
1.15786E-03 9.30069E-19
1.21797E-03 8.42709E-19
1.27961E-03 7.65471E-19
1.34276E-03 6.97000E-19
1.40743E-03 6.35997E-19
1.47362E-03 5.81554E-19
1.54133E-03 5.32892E-19
1.61056E-03 4.89236E-19
1.68131E-03 4.49954E-19
1.75357E-03 4.14590E-19
1.82735E-03 3.82670E-19
1.90265E-03 3.53743E-19
1.97947E-03 3.27536E-19
2.05780E-03 3.03747E-19
2.13765E-03 2.82059E-19
2.21902E-03 2.62294E-19
2.30190E-03 2.44256E-19
2.38630E-03 2.27737E-19
2.47222E-03 2.12596E-19
2.55965E-03 1.98711E-19
2.64859E-03 1.85945E-19
2.73905E-03 1.74184E-19
2.83103E-03 1.63351E-19
2.92452E-03 1.53357E-19
3.01952E-03 1.44104E-19
3.11604E-03 1.35549E-19
3.21407E-03 1.27629E-19
3.31362E-03 1.20271E-19
3.41468E-03 1.13440E-19
3.51725E-03 1.07094E-19
3.62133E-03 1.01184E-19
3.72692E-03 9.56750E-20
3.83403E-03 9.05413E-20
3.94265E-03 8.57485E-20
4.05278E-03 8.12654E-20
4.16442E-03 7.70754E-20
4.27757E-03 7.31553E-20
4.39223E-03 6.94764E-20
4.50840E-03 6.60289E-20
4.62608E-03 6.27955E-20
4.74527E-03 5.97547E-20
4.86597E-03 5.68968E-20
4.98817E-03 5.42099E-20
5.11188E-03 5.16790E-20
5.23711E-03 4.92936E-20
5.36383E-03 4.70459E-20
5.49207E-03 4.49254E-20
5.62181E-03 4.29215E-20
5.75306E-03 4.10295E-20
5.88581E-03 3.92418E-20
6.02007E-03 3.75485E-20
6.15583E-03 3.59466E-20
6.29310E-03 3.44302E-20
6.43187E-03 3.29920E-20
6.57214E-03 3.16283E-20
6.71392E-03 3.03352E-20
6.85720E-03 2.91073E-20
7.00198E-03 2.79406E-20
7.14827E-03 2.68324E-20
7.29605E-03 2.57789E-20
7.44534E-03 2.47760E-20
7.59612E-03 2.38218E-20
7.97965E-03 2.16302E-20
8.37255E-03 1.96855E-20
8.77480E-03 1.79551E-20
9.18641E-03 1.64106E-20
9.60736E-03 1.50292E-20
1.00376E-02 1.37905E-20
1.04773E-02 1.26772E-20
1.09262E-02 1.16740E-20
1.13844E-02 1.07684E-20
1.18520E-02 9.94921E-21
1.23288E-02 9.20668E-21
1.28150E-02 8.53226E-21
1.33104E-02 7.91863E-21
1.38150E-02 7.35936E-21
1.43290E-02 6.84878E-21
1.48521E-02 6.38182E-21
1.53845E-02 5.95409E-21
1.59262E-02 5.56173E-21
1.64770E-02 5.20128E-21
1.70371E-02 4.86965E-21
1.76063E-02 4.56410E-21
1.81848E-02 4.28224E-21
1.87724E-02 4.02189E-21
1.93692E-02 3.78111E-21
1.99751E-02 3.55812E-21
2.05901E-02 3.35140E-21
2.12143E-02 3.15953E-21
2.18476E-02 2.98126E-21
2.24900E-02 2.81543E-21
2.31415E-02 2.66101E-21
2.38021E-02 2.51708E-21
2.44717E-02 2.38280E-21
2.51504E-02 2.25738E-21
2.58382E-02 2.14014E-21
2.65349E-02 2.03045E-21
2.72407E-02 1.92772E-21
2.79555E-02 1.83144E-21
2.86793E-02 1.74112E-21
2.94120E-02 1.65632E-21
3.01537E-02 1.57665E-21
3.09043E-02 1.50173E-21
3.16639E-02 1.43123E-21
3.24324E-02 1.36483E-21
3.32098E-02 1.30226E-21
3.39961E-02 1.24325E-21
3.47912E-02 1.18755E-21
3.55952E-02 1.13496E-21
3.64081E-02 1.08526E-21
3.72297E-02 1.03826E-21
3.80602E-02 9.93789E-22
3.88995E-02 9.51684E-22
3.97476E-02 9.11796E-22
4.06044E-02 8.73985E-22
4.14700E-02 8.38122E-22
4.23443E-02 8.04088E-22
4.32273E-02 7.71772E-22
4.41190E-02 7.41071E-22
4.50194E-02 7.11887E-22
4.59284E-02 6.84132E-22
4.68461E-02 6.57722E-22
4.87074E-02 6.08633E-22
5.06030E-02 5.64058E-22
5.25328E-02 5.23505E-22
5.44967E-02 4.86546E-22
5.64946E-02 4.52804E-22
5.85262E-02 4.21948E-22
6.05914E-02 3.93685E-22
6.26901E-02 3.67757E-22
6.48222E-02 3.43936E-22
6.69873E-02 3.22019E-22
6.91854E-02 3.01826E-22
7.14163E-02 2.83196E-22
7.36799E-02 2.65985E-22
7.59760E-02 2.50065E-22
7.83043E-02 2.35322E-22
8.06647E-02 2.21652E-22
8.30571E-02 2.08962E-22
8.54812E-02 1.97169E-22
8.79369E-02 1.86198E-22
9.04240E-02 1.75981E-22
9.29422E-02 1.66456E-22
9.54915E-02 1.57567E-22
9.80716E-02 1.49264E-22
1.00682E-01 1.41502E-22
1.03323E-01 1.34237E-22
1.05995E-01 1.27433E-22
1.08696E-01 1.21055E-22
1.11427E-01 1.15070E-22
1.14188E-01 1.09450E-22
1.16978E-01 1.04169E-22
1.19797E-01 9.92026E-23
1.22645E-01 9.45279E-23
1.25522E-01 9.01247E-23
1.28428E-01 8.59744E-23
1.31361E-01 8.20596E-23
1.34323E-01 7.83645E-23
1.37313E-01 7.48743E-23
1.40330E-01 7.15755E-23
1.43375E-01 6.84557E-23
1.46447E-01 6.55034E-23
1.49545E-01 6.27076E-23
1.52671E-01 6.00587E-23
1.55823E-01 5.75474E-23
1.59001E-01 5.51652E-23
1.62205E-01 5.29042E-23
1.65435E-01 5.07571E-23
1.68690E-01 4.87170E-23
1.71970E-01 4.67776E-23
1.75276E-01 4.49330E-23
1.78606E-01 4.31776E-23
1.81961E-01 4.15063E-23
1.85340E-01 3.99143E-23
1.88743E-01 3.83972E-23
1.92169E-01 3.69507E-23
1.95619E-01 3.55709E-23
1.99092E-01 3.42541E-23
2.02589E-01 3.29970E-23
2.06107E-01 3.17964E-23
2.09649E-01 3.06491E-23
2.13212E-01 2.95523E-23
2.16797E-01 2.85035E-23
2.20404E-01 2.75001E-23
2.24032E-01 2.65398E-23
2.27680E-01 2.56204E-23
2.31350E-01 2.47398E-23
2.35040E-01 2.38960E-23
2.38751E-01 2.30873E-23
2.42481E-01 2.23119E-23
2.46231E-01 2.15681E-23
2.50000E-01 2.08544E-23
2.53788E-01 2.01694E-23
2.57595E-01 1.95117E-23
2.61421E-01 1.88801E-23
2.65264E-01 1.82732E-23
2.69126E-01 1.76899E-23
2.73005E-01 1.71291E-23
2.76901E-01 1.65899E-23
2.80814E-01 1.60712E-23
2.84744E-01 1.55720E-23
2.88691E-01 1.50916E-23
2.92653E-01 1.46290E-23
2.96632E-01 1.41835E-23
3.00625E-01 1.37544E-23
3.04634E-01 1.33409E-23
3.08658E-01 1.29423E-23
3.12697E-01 1.25580E-23
3.16749E-01 1.21874E-23
3.20816E-01 1.18300E-23
3.24896E-01 1.14851E-23
3.28990E-01 1.11522E-23
3.33097E-01 1.08309E-23
3.37216E-01 1.05206E-23
3.41348E-01 1.02210E-23
3.45492E-01 9.93153E-24
3.49647E-01 9.65184E-24
3.53814E-01 9.38153E-24
3.57992E-01 9.12023E-24
3.62181E-01 8.86758E-24
3.66381E-01 8.62324E-24
3.70590E-01 8.38688E-24
3.74810E-01 8.15820E-24
3.79039E-01 7.93691E-24
3.83277E-01 7.72271E-24
3.87524E-01 7.51535E-24
3.91780E-01 7.31455E-24
3.96044E-01 7.12008E-24
4.00316E-01 6.93170E-24
4.04596E-01 6.74919E-24
4.08882E-01 6.57232E-24
4.13176E-01 6.40089E-24
4.17476E-01 6.23470E-24
4.21783E-01 6.07357E-24
4.26095E-01 5.91731E-24
4.30413E-01 5.76574E-24
4.34737E-01 5.61871E-24
4.39065E-01 5.47604E-24
4.43398E-01 5.33760E-24
4.47736E-01 5.20322E-24
4.52077E-01 5.07277E-24
4.56422E-01 4.94612E-24
4.60770E-01 4.82312E-24
4.65122E-01 4.70367E-24
4.69476E-01 4.58763E-24
4.73832E-01 4.47490E-24
4.78190E-01 4.36535E-24
4.82550E-01 4.25890E-24
4.86912E-01 4.15542E-24
4.91274E-01 4.05483E-24
4.95637E-01 3.95704E-24
5.00000E-01 3.86194E-24
5.04363E-01 3.76945E-24
5.08726E-01 3.67949E-24
5.13088E-01 3.59197E-24
5.17450E-01 3.50683E-24
5.21810E-01 3.42397E-24
5.26168E-01 3.34334E-24
5.30524E-01 3.26485E-24
5.34878E-01 3.18845E-24
5.39230E-01 3.11407E-24
5.43578E-01 3.04165E-24
5.47923E-01 2.97112E-24
5.52264E-01 2.90243E-24
5.56602E-01 2.83552E-24
5.60935E-01 2.77034E-24
5.65263E-01 2.70683E-24
5.69587E-01 2.64495E-24
5.73905E-01 2.58464E-24
5.78217E-01 2.52587E-24
5.82524E-01 2.46858E-24
5.86824E-01 2.41273E-24
5.91118E-01 2.35828E-24
5.95404E-01 2.30519E-24
5.99684E-01 2.25342E-24
6.03956E-01 2.20293E-24
6.08220E-01 2.15368E-24
6.12476E-01 2.10564E-24
6.16723E-01 2.05877E-24
6.20961E-01 2.01305E-24
6.25190E-01 1.96843E-24
6.29410E-01 1.92490E-24
6.33619E-01 1.88241E-24
6.37819E-01 1.84093E-24
6.42008E-01 1.80045E-24
6.46186E-01 1.76093E-24
6.50353E-01 1.72235E-24
6.54508E-01 1.68468E-24
6.58652E-01 1.64790E-24
6.62784E-01 1.61198E-24
6.66903E-01 1.57689E-24
6.71010E-01 1.54263E-24
6.75104E-01 1.50916E-24
6.79184E-01 1.47646E-24
6.83251E-01 1.44452E-24
6.87303E-01 1.41331E-24
6.91342E-01 1.38282E-24
6.95366E-01 1.35302E-24
6.99375E-01 1.32390E-24
7.03368E-01 1.29544E-24
7.07347E-01 1.26763E-24
7.11309E-01 1.24044E-24
7.15256E-01 1.21387E-24
7.19186E-01 1.18789E-24
7.23099E-01 1.16249E-24
7.26995E-01 1.13765E-24
7.30874E-01 1.11337E-24
7.34736E-01 1.08963E-24
7.38579E-01 1.06641E-24
7.42405E-01 1.04371E-24
7.46212E-01 1.02150E-24
7.50000E-01 9.99786E-25
7.53769E-01 9.78544E-25
7.57519E-01 9.57766E-25
7.61249E-01 9.37441E-25
7.64960E-01 9.17558E-25
7.68650E-01 8.98106E-25
7.72320E-01 8.79076E-25
7.75968E-01 8.60458E-25
7.79596E-01 8.42241E-25
7.83203E-01 8.24417E-25
7.86788E-01 8.06976E-25
7.90351E-01 7.89909E-25
7.93893E-01 7.73208E-25
7.97411E-01 7.56865E-25
8.00908E-01 7.40870E-25
8.04381E-01 7.25217E-25
8.07831E-01 7.09898E-25
8.11257E-01 6.94905E-25
8.14660E-01 6.80230E-25
8.18039E-01 6.65867E-25
8.21394E-01 6.51809E-25
8.24724E-01 6.38049E-25
8.28030E-01 6.24581E-25
8.31310E-01 6.11398E-25
8.34565E-01 5.98494E-25
8.37795E-01 5.85863E-25
8.40999E-01 5.73499E-25
8.44177E-01 5.61397E-25
8.47329E-01 5.49551E-25
8.50455E-01 5.37955E-25
8.53553E-01 5.26604E-25
8.56625E-01 5.15494E-25
8.59670E-01 5.04619E-25
8.62687E-01 4.93974E-25
8.65677E-01 4.83555E-25
8.68639E-01 4.73357E-25
8.71572E-01 4.63376E-25
8.74478E-01 4.53607E-25
8.77355E-01 4.44045E-25
8.80203E-01 4.34688E-25
8.83022E-01 4.25531E-25
8.85812E-01 4.16569E-25
8.88573E-01 4.07800E-25
8.91304E-01 3.99220E-25
8.94005E-01 3.90824E-25
8.96677E-01 3.82609E-25
8.99318E-01 3.74572E-25
9.01928E-01 3.66710E-25
9.04508E-01 3.59020E-25
9.07058E-01 3.51497E-25
9.09576E-01 3.44140E-25
9.12063E-01 3.36944E-25
9.14519E-01 3.29908E-25
9.16943E-01 3.23029E-25
9.19335E-01 3.16302E-25
9.21696E-01 3.09727E-25
9.24024E-01 3.03300E-25
9.26320E-01 2.97019E-25
9.28584E-01 2.90881E-25
9.30815E-01 2.84884E-25
9.33013E-01 2.79026E-25
9.35178E-01 2.73303E-25
9.37310E-01 2.67715E-25
9.39409E-01 2.62259E-25
9.41474E-01 2.56932E-25
9.43505E-01 2.51733E-25
9.45503E-01 2.46660E-25
9.47467E-01 2.41710E-25
9.49397E-01 2.36882E-25
9.51293E-01 2.32175E-25
9.53154E-01 2.27585E-25
9.54981E-01 2.23112E-25
9.56773E-01 2.18754E-25
9.58530E-01 2.14510E-25
9.60252E-01 2.10377E-25
9.61940E-01 2.06354E-25
9.63592E-01 2.02440E-25
9.65209E-01 1.98633E-25
9.66790E-01 1.94931E-25
9.68336E-01 1.91335E-25
9.69846E-01 1.87841E-25
9.71321E-01 1.84449E-25
9.72759E-01 1.81158E-25
9.74162E-01 1.77966E-25
9.75528E-01 1.74873E-25
9.76858E-01 1.71876E-25
9.78152E-01 1.68976E-25
9.79410E-01 1.66171E-25
9.80631E-01 1.63459E-25
9.81815E-01 1.60841E-25
9.82963E-01 1.58315E-25
9.84074E-01 1.55880E-25
9.85148E-01 1.53536E-25
9.86185E-01 1.51281E-25
9.87185E-01 1.49115E-25
9.88148E-01 1.47036E-25
9.89074E-01 1.45045E-25
9.89962E-01 1.43141E-25
9.90814E-01 1.41322E-25
9.91627E-01 1.39588E-25
9.92404E-01 1.37940E-25
9.93143E-01 1.36375E-25
9.93844E-01 1.34893E-25
9.94508E-01 1.33495E-25
9.95134E-01 1.32179E-25
9.95722E-01 1.30945E-25
9.96273E-01 1.29793E-25
9.96786E-01 1.28722E-25
9.97261E-01 1.27732E-25
9.97698E-01 1.26822E-25
9.98097E-01 1.25992E-25
9.98459E-01 1.25242E-25
9.98782E-01 1.24572E-25
9.99067E-01 1.23982E-25
9.99315E-01 1.23470E-25
9.99524E-01 1.23037E-25
9.99695E-01 1.22684E-25
9.99829E-01 1.22409E-25
9.99924E-01 1.22212E-25
9.99981E-01 1.22095E-25
1.00000E+00 1.22055E-25
