 #
 # Subroutine ELSEPA. Elastic scattering of electrons and positrons
 #                    by neutral atoms and positive ions
 #
 # Projectile: electron
 # Kinetic energy = 4.00000E+07 eV = 1.46997E+06 a.u.
 #
 # WARNING: High-energy factorization with free-atom DF screening.
 #          Absorption, polarization and exchange corrections are
 #          switched off.
 #          Phase shifts are calculated for the bare nucleus.
 #          Scattering amplitudes are not evaluated.
 #
 # Element: Fe,  Z =  26,  atomic weight = 5.58450E+01 g/mol
 #
 # Nuclear model: Fermi distribution
 #                Average radius = 4.08989E-13 cm
 #                Skin thickness = 5.46000E-14 cm
 #
 # Number of electrons = 26
 #
 # Total elastic cross section = 1.95951E-18 cm**2 = 6.99753E-02 a0**2
 # 1st transport cross section = 8.25912E-25 cm**2 = 2.94938E-08 a0**2
 # 2nd transport cross section = 2.40613E-24 cm**2 = 8.59243E-08 a0**2
 #
 #
 # Differential cross section:                       MU=(1-COS(THETA))/2
 #
 #  THETA        MU          DCS          DCS        Sherman      error
 #  (deg)                 (cm**2/sr)   (a0**2/sr)    function
 #----------------------------------------------------------------------
0.00000E+00 3.19354E-11
7.61557E-13 3.19196E-11
1.18994E-12 3.19108E-11
1.71346E-12 3.19001E-11
2.33225E-12 3.18874E-11
3.04617E-12 3.18727E-11
3.85530E-12 3.18561E-11
4.75964E-12 3.18376E-11
5.75917E-12 3.18172E-11
6.85391E-12 3.17948E-11
8.04379E-12 3.17706E-11
9.32893E-12 3.17444E-11
1.07092E-11 3.17163E-11
1.21847E-11 3.16864E-11
1.37554E-11 3.16545E-11
1.54213E-11 3.16208E-11
1.71823E-11 3.15852E-11
1.90386E-11 3.15478E-11
2.09900E-11 3.15085E-11
2.30367E-11 3.14674E-11
2.51785E-11 3.14245E-11
2.74156E-11 3.13798E-11
2.97478E-11 3.13333E-11
3.21752E-11 3.12850E-11
3.46979E-11 3.12349E-11
3.73157E-11 3.11831E-11
4.00286E-11 3.11295E-11
4.28368E-11 3.10743E-11
4.57402E-11 3.10173E-11
4.87388E-11 3.09586E-11
5.18325E-11 3.08982E-11
5.50215E-11 3.08362E-11
5.83057E-11 3.07726E-11
6.16850E-11 3.07073E-11
6.51595E-11 3.06404E-11
6.87293E-11 3.05720E-11
7.23943E-11 3.05020E-11
7.61544E-11 3.04304E-11
1.18991E-10 2.96338E-11
1.71347E-10 2.87028E-11
2.33223E-10 2.76659E-11
3.04617E-10 2.65435E-11
3.85531E-10 2.53566E-11
4.75965E-10 2.41326E-11
5.75917E-10 2.28925E-11
6.85389E-10 2.16503E-11
8.04380E-10 2.04227E-11
9.32891E-10 1.92263E-11
1.07092E-09 1.80712E-11
1.21847E-09 1.69602E-11
1.37554E-09 1.59023E-11
1.54213E-09 1.49022E-11
1.71823E-09 1.39613E-11
1.90386E-09 1.30760E-11
2.09900E-09 1.22493E-11
2.30367E-09 1.14796E-11
2.51785E-09 1.07643E-11
2.74156E-09 1.00983E-11
2.97478E-09 9.48144E-12
3.21752E-09 8.91042E-12
3.46978E-09 8.38148E-12
3.73156E-09 7.89063E-12
4.00286E-09 7.43644E-12
4.28368E-09 7.01600E-12
4.57402E-09 6.62581E-12
4.87388E-09 6.26320E-12
5.18326E-09 5.92679E-12
5.50215E-09 5.61438E-12
5.83057E-09 5.32302E-12
6.16850E-09 5.05127E-12
6.51596E-09 4.79805E-12
6.87293E-09 4.56182E-12
7.23942E-09 4.34008E-12
7.61544E-09 4.13244E-12
1.18991E-08 2.62410E-12
1.71347E-08 1.71815E-12
2.33223E-08 1.18189E-12
3.04617E-08 8.24975E-13
3.85531E-08 5.82146E-13
4.75965E-08 4.19876E-13
5.75917E-08 3.08309E-13
6.85389E-08 2.29473E-13
8.04380E-08 1.73688E-13
9.32891E-08 1.33814E-13
1.07092E-07 1.04760E-13
1.21847E-07 8.31976E-14
1.37554E-07 6.70202E-14
1.54213E-07 5.46966E-14
1.71823E-07 4.51678E-14
1.90386E-07 3.76806E-14
2.09900E-07 3.17335E-14
2.30367E-07 2.69541E-14
2.51785E-07 2.30693E-14
2.74156E-07 1.98674E-14
2.97478E-07 1.72149E-14
3.21752E-07 1.49994E-14
3.46978E-07 1.31321E-14
3.73156E-07 1.15426E-14
4.00286E-07 1.01878E-14
4.28368E-07 9.02665E-15
4.57402E-07 8.02393E-15
4.87388E-07 7.15385E-15
5.18325E-07 6.39791E-15
5.50215E-07 5.73834E-15
5.83057E-07 5.15907E-15
6.16850E-07 4.64944E-15
6.51596E-07 4.20043E-15
6.87293E-07 3.80354E-15
7.23942E-07 3.45078E-15
7.61543E-07 3.13728E-15
1.18991E-06 1.33658E-15
1.71347E-06 6.57534E-16
2.33223E-06 3.59967E-16
3.04617E-06 2.13545E-16
3.85531E-06 1.34742E-16
4.75964E-06 8.92418E-17
5.75916E-06 6.14568E-17
6.85388E-06 4.37010E-17
8.04378E-06 3.19201E-17
9.32888E-06 2.38521E-17
1.07092E-05 1.81777E-17
1.21846E-05 1.40931E-17
1.37553E-05 1.10925E-17
1.54212E-05 8.84863E-18
1.71822E-05 7.14373E-18
1.90385E-05 5.82958E-18
2.09899E-05 4.80435E-18
2.30365E-05 3.99452E-18
2.51783E-05 3.34800E-18
2.74153E-05 2.82689E-18
2.97475E-05 2.40318E-18
3.21749E-05 2.05589E-18
3.46974E-05 1.76910E-18
3.73152E-05 1.53063E-18
4.00281E-05 1.33102E-18
4.28362E-05 1.16290E-18
4.57395E-05 1.02049E-18
4.87380E-05 8.99206E-19
5.18317E-05 7.95395E-19
5.50205E-05 7.06129E-19
5.83045E-05 6.29034E-19
6.16838E-05 5.62179E-19
6.51582E-05 5.03978E-19
6.87277E-05 4.53120E-19
7.23925E-05 4.08522E-19
7.61524E-05 3.69280E-19
9.21439E-05 2.52458E-19
1.09658E-04 1.78392E-19
1.28695E-04 1.29611E-19
1.49255E-04 9.64227E-20
1.71338E-04 7.32140E-20
1.94942E-04 5.65884E-20
2.20070E-04 4.44275E-20
2.46720E-04 3.53665E-20
2.74892E-04 2.85032E-20
3.04586E-04 2.32280E-20
3.35803E-04 1.91193E-20
3.68542E-04 1.58809E-20
4.02802E-04 1.33005E-20
4.38585E-04 1.12239E-20
4.75889E-04 9.53763E-21
5.14715E-04 8.15669E-21
5.55063E-04 7.01712E-21
5.96931E-04 6.06996E-21
6.40321E-04 5.27751E-21
6.85233E-04 4.61040E-21
7.31665E-04 4.04554E-21
7.79618E-04 3.56471E-21
8.29092E-04 3.15331E-21
8.80086E-04 2.79965E-21
9.32601E-04 2.49427E-21
9.86636E-04 2.22947E-21
1.04219E-03 1.99894E-21
1.09927E-03 1.79748E-21
1.15786E-03 1.62081E-21
1.21797E-03 1.46536E-21
1.27961E-03 1.32812E-21
1.34276E-03 1.20661E-21
1.40743E-03 1.09870E-21
1.47362E-03 1.00260E-21
1.54133E-03 9.16802E-22
1.61056E-03 8.40001E-22
1.68131E-03 7.71089E-22
1.75357E-03 7.09111E-22
1.82735E-03 6.53247E-22
1.90265E-03 6.02786E-22
1.97947E-03 5.57113E-22
2.05780E-03 5.15692E-22
2.13765E-03 4.78056E-22
2.21902E-03 4.43797E-22
2.30190E-03 4.12558E-22
2.38630E-03 3.84025E-22
2.47222E-03 3.57921E-22
2.55965E-03 3.34001E-22
2.64859E-03 3.12050E-22
2.73905E-03 2.91876E-22
2.83103E-03 2.73309E-22
2.92452E-03 2.56198E-22
3.01952E-03 2.40408E-22
3.11604E-03 2.25818E-22
3.21407E-03 2.12320E-22
3.31362E-03 1.99818E-22
3.41468E-03 1.88224E-22
3.51725E-03 1.77460E-22
3.62133E-03 1.67456E-22
3.72692E-03 1.58149E-22
3.83403E-03 1.49481E-22
3.94265E-03 1.41399E-22
4.05278E-03 1.33858E-22
4.16442E-03 1.26813E-22
4.27757E-03 1.20227E-22
4.39223E-03 1.14063E-22
4.50840E-03 1.08290E-22
4.62608E-03 1.02879E-22
4.74527E-03 9.78018E-23
4.86597E-03 9.30347E-23
4.98817E-03 8.85551E-23
5.11188E-03 8.43423E-23
5.23711E-03 8.03775E-23
5.36383E-03 7.66434E-23
5.49207E-03 7.31240E-23
5.62181E-03 6.98047E-23
5.75306E-03 6.66719E-23
5.88581E-03 6.37132E-23
6.02007E-03 6.09171E-23
6.15583E-03 5.82730E-23
6.29310E-03 5.57711E-23
6.43187E-03 5.34022E-23
6.57214E-03 5.11579E-23
6.71392E-03 4.90306E-23
6.85720E-03 4.70128E-23
7.00198E-03 4.50979E-23
7.14827E-03 4.32797E-23
7.29605E-03 4.15524E-23
7.44534E-03 3.99105E-23
7.59612E-03 3.83490E-23
7.97965E-03 3.47672E-23
8.37255E-03 3.15945E-23
8.77480E-03 2.87760E-23
9.18641E-03 2.62653E-23
9.60736E-03 2.40229E-23
1.00376E-02 2.20149E-23
1.04773E-02 2.02127E-23
1.09262E-02 1.85913E-23
1.13844E-02 1.71294E-23
1.18520E-02 1.58084E-23
1.23288E-02 1.46125E-23
1.28150E-02 1.35276E-23
1.33104E-02 1.25416E-23
1.38150E-02 1.16438E-23
1.43290E-02 1.08249E-23
1.48521E-02 1.00768E-23
1.53845E-02 9.39214E-24
1.59262E-02 8.76466E-24
1.64770E-02 8.18869E-24
1.70371E-02 7.65924E-24
1.76063E-02 7.17185E-24
1.81848E-02 6.72259E-24
1.87724E-02 6.30792E-24
1.93692E-02 5.92469E-24
1.99751E-02 5.57009E-24
2.05901E-02 5.24158E-24
2.12143E-02 4.93689E-24
2.18476E-02 4.65397E-24
2.24900E-02 4.39099E-24
2.31415E-02 4.14627E-24
2.38021E-02 3.91833E-24
2.44717E-02 3.70579E-24
2.51504E-02 3.50742E-24
2.58382E-02 3.32211E-24
2.65349E-02 3.14883E-24
2.72407E-02 2.98666E-24
2.79555E-02 2.83475E-24
2.86793E-02 2.69235E-24
2.94120E-02 2.55873E-24
3.01537E-02 2.43326E-24
3.09043E-02 2.31535E-24
3.16639E-02 2.20445E-24
3.24324E-02 2.10009E-24
3.32098E-02 2.00179E-24
3.39961E-02 1.90914E-24
3.47912E-02 1.82175E-24
3.55952E-02 1.73928E-24
3.64081E-02 1.66139E-24
3.72297E-02 1.58778E-24
3.80602E-02 1.51817E-24
3.88995E-02 1.45230E-24
3.97476E-02 1.38994E-24
4.06044E-02 1.33086E-24
4.14700E-02 1.27487E-24
4.23443E-02 1.22176E-24
4.32273E-02 1.17136E-24
4.41190E-02 1.12351E-24
4.50194E-02 1.07805E-24
4.59284E-02 1.03485E-24
4.68461E-02 9.93762E-25
4.87074E-02 9.17469E-25
5.06030E-02 8.48279E-25
5.25328E-02 7.85416E-25
5.44967E-02 7.28198E-25
5.64946E-02 6.76031E-25
5.85262E-02 6.28389E-25
6.05914E-02 5.84811E-25
6.26901E-02 5.44889E-25
6.48222E-02 5.08264E-25
6.69873E-02 4.74613E-25
6.91854E-02 4.43655E-25
7.14163E-02 4.15134E-25
7.36799E-02 3.88826E-25
7.59760E-02 3.64529E-25
7.83043E-02 3.42062E-25
8.06647E-02 3.21263E-25
8.30571E-02 3.01986E-25
8.54812E-02 2.84101E-25
8.79369E-02 2.67489E-25
9.04240E-02 2.52044E-25
9.29422E-02 2.37670E-25
9.54915E-02 2.24279E-25
9.80716E-02 2.11793E-25
1.00682E-01 2.00139E-25
1.03323E-01 1.89254E-25
1.05995E-01 1.79076E-25
1.08696E-01 1.69552E-25
1.11427E-01 1.60634E-25
1.14188E-01 1.52275E-25
1.16978E-01 1.44435E-25
1.19797E-01 1.37075E-25
1.22645E-01 1.30163E-25
1.25522E-01 1.23664E-25
1.28428E-01 1.17552E-25
1.31361E-01 1.11798E-25
1.34323E-01 1.06378E-25
1.37313E-01 1.01269E-25
1.40330E-01 9.64514E-26
1.43375E-01 9.19047E-26
1.46447E-01 8.76114E-26
1.49545E-01 8.35549E-26
1.52671E-01 7.97201E-26
1.55823E-01 7.60927E-26
1.59001E-01 7.26597E-26
1.62205E-01 6.94090E-26
1.65435E-01 6.63292E-26
1.68690E-01 6.34100E-26
1.71970E-01 6.06415E-26
1.75276E-01 5.80147E-26
1.78606E-01 5.55211E-26
1.81961E-01 5.31529E-26
1.85340E-01 5.09028E-26
1.88743E-01 4.87639E-26
1.92169E-01 4.67299E-26
1.95619E-01 4.47947E-26
1.99092E-01 4.29529E-26
2.02589E-01 4.11991E-26
2.06107E-01 3.95285E-26
2.09649E-01 3.79365E-26
2.13212E-01 3.64189E-26
2.16797E-01 3.49717E-26
2.20404E-01 3.35910E-26
2.24032E-01 3.22733E-26
2.27680E-01 3.10153E-26
2.31350E-01 2.98138E-26
2.35040E-01 2.86661E-26
2.38751E-01 2.75692E-26
2.42481E-01 2.65205E-26
2.46231E-01 2.55177E-26
2.50000E-01 2.45585E-26
2.53788E-01 2.36405E-26
2.57595E-01 2.27619E-26
2.61421E-01 2.19207E-26
2.65264E-01 2.11149E-26
2.69126E-01 2.03430E-26
2.73005E-01 1.96033E-26
2.76901E-01 1.88943E-26
2.80814E-01 1.82144E-26
2.84744E-01 1.75624E-26
2.88691E-01 1.69368E-26
2.92653E-01 1.63366E-26
2.96632E-01 1.57605E-26
3.00625E-01 1.52073E-26
3.04634E-01 1.46762E-26
3.08658E-01 1.41660E-26
3.12697E-01 1.36758E-26
3.16749E-01 1.32047E-26
3.20816E-01 1.27520E-26
3.24896E-01 1.23166E-26
3.28990E-01 1.18980E-26
3.33097E-01 1.14954E-26
3.37216E-01 1.11081E-26
3.41348E-01 1.07353E-26
3.45492E-01 1.03766E-26
3.49647E-01 1.00313E-26
3.53814E-01 9.69877E-27
3.57992E-01 9.37857E-27
3.62181E-01 9.07016E-27
3.66381E-01 8.77303E-27
3.70590E-01 8.48672E-27
3.74810E-01 8.21080E-27
3.79039E-01 7.94482E-27
3.83277E-01 7.68840E-27
3.87524E-01 7.44114E-27
3.91780E-01 7.20267E-27
3.96044E-01 6.97264E-27
4.00316E-01 6.75072E-27
4.04596E-01 6.53659E-27
4.08882E-01 6.32993E-27
4.13176E-01 6.13046E-27
4.17476E-01 5.93789E-27
4.21783E-01 5.75196E-27
4.26095E-01 5.57241E-27
4.30413E-01 5.39900E-27
4.34737E-01 5.23149E-27
4.39065E-01 5.06965E-27
4.43398E-01 4.91328E-27
4.47736E-01 4.76216E-27
4.52077E-01 4.61611E-27
4.56422E-01 4.47492E-27
4.60770E-01 4.33842E-27
4.65122E-01 4.20644E-27
4.69476E-01 4.07880E-27
4.73832E-01 3.95536E-27
4.78190E-01 3.83595E-27
4.82550E-01 3.72044E-27
4.86912E-01 3.60868E-27
4.91274E-01 3.50053E-27
4.95637E-01 3.39586E-27
5.00000E-01 3.29456E-27
5.04363E-01 3.19650E-27
5.08726E-01 3.10157E-27
5.13088E-01 3.00965E-27
5.17450E-01 2.92064E-27
5.21810E-01 2.83445E-27
5.26168E-01 2.75096E-27
5.30524E-01 2.67009E-27
5.34878E-01 2.59175E-27
5.39230E-01 2.51585E-27
5.43578E-01 2.44230E-27
5.47923E-01 2.37104E-27
5.52264E-01 2.30196E-27
5.56602E-01 2.23502E-27
5.60935E-01 2.17012E-27
5.65263E-01 2.10721E-27
5.69587E-01 2.04622E-27
5.73905E-01 1.98708E-27
5.78217E-01 1.92973E-27
5.82524E-01 1.87412E-27
5.86824E-01 1.82017E-27
5.91118E-01 1.76785E-27
5.95404E-01 1.71710E-27
5.99684E-01 1.66786E-27
6.03956E-01 1.62008E-27
6.08220E-01 1.57373E-27
6.12476E-01 1.52875E-27
6.16723E-01 1.48509E-27
6.20961E-01 1.44272E-27
6.25190E-01 1.40160E-27
6.29410E-01 1.36168E-27
6.33619E-01 1.32293E-27
6.37819E-01 1.28531E-27
6.42008E-01 1.24878E-27
6.46186E-01 1.21332E-27
6.50353E-01 1.17887E-27
6.54508E-01 1.14543E-27
6.58652E-01 1.11294E-27
6.62784E-01 1.08139E-27
6.66903E-01 1.05075E-27
6.71010E-01 1.02098E-27
6.75104E-01 9.92055E-28
6.79184E-01 9.63957E-28
6.83251E-01 9.36658E-28
6.87303E-01 9.10132E-28
6.91342E-01 8.84356E-28
6.95366E-01 8.59308E-28
6.99375E-01 8.34964E-28
7.03368E-01 8.11305E-28
7.07347E-01 7.88309E-28
7.11309E-01 7.65957E-28
7.15256E-01 7.44229E-28
7.19186E-01 7.23106E-28
7.23099E-01 7.02571E-28
7.26995E-01 6.82606E-28
7.30874E-01 6.63195E-28
7.34736E-01 6.44320E-28
7.38579E-01 6.25966E-28
7.42405E-01 6.08119E-28
7.46212E-01 5.90762E-28
7.50000E-01 5.73882E-28
7.53769E-01 5.57464E-28
7.57519E-01 5.41496E-28
7.61249E-01 5.25965E-28
7.64960E-01 5.10856E-28
7.68650E-01 4.96160E-28
7.72320E-01 4.81863E-28
7.75968E-01 4.67954E-28
7.79596E-01 4.54423E-28
7.83203E-01 4.41258E-28
7.86788E-01 4.28448E-28
7.90351E-01 4.15985E-28
7.93893E-01 4.03857E-28
7.97411E-01 3.92057E-28
8.00908E-01 3.80573E-28
8.04381E-01 3.69398E-28
8.07831E-01 3.58523E-28
8.11257E-01 3.47939E-28
8.14660E-01 3.37639E-28
8.18039E-01 3.27614E-28
8.21394E-01 3.17857E-28
8.24724E-01 3.08361E-28
8.28030E-01 2.99118E-28
8.31310E-01 2.90121E-28
8.34565E-01 2.81363E-28
8.37795E-01 2.72839E-28
8.40999E-01 2.64541E-28
8.44177E-01 2.56464E-28
8.47329E-01 2.48602E-28
8.50455E-01 2.40948E-28
8.53553E-01 2.33497E-28
8.56625E-01 2.26244E-28
8.59670E-01 2.19183E-28
8.62687E-01 2.12310E-28
8.65677E-01 2.05619E-28
8.68639E-01 1.99105E-28
8.71572E-01 1.92764E-28
8.74478E-01 1.86591E-28
8.77355E-01 1.80582E-28
8.80203E-01 1.74732E-28
8.83022E-01 1.69038E-28
8.85812E-01 1.63495E-28
8.88573E-01 1.58099E-28
8.91304E-01 1.52847E-28
8.94005E-01 1.47734E-28
8.96677E-01 1.42758E-28
8.99318E-01 1.37915E-28
9.01928E-01 1.33201E-28
9.04508E-01 1.28613E-28
9.07058E-01 1.24148E-28
9.09576E-01 1.19803E-28
9.12063E-01 1.15574E-28
9.14519E-01 1.11460E-28
9.16943E-01 1.07457E-28
9.19335E-01 1.03562E-28
9.21696E-01 9.97730E-29
9.24024E-01 9.60870E-29
9.26320E-01 9.25017E-29
9.28584E-01 8.90146E-29
9.30815E-01 8.56234E-29
9.33013E-01 8.23257E-29
9.35178E-01 7.91193E-29
9.37310E-01 7.60021E-29
9.39409E-01 7.29721E-29
9.41474E-01 7.00271E-29
9.43505E-01 6.71653E-29
9.45503E-01 6.43846E-29
9.47467E-01 6.16833E-29
9.49397E-01 5.90596E-29
9.51293E-01 5.65118E-29
9.53154E-01 5.40381E-29
9.54981E-01 5.16369E-29
9.56773E-01 4.93067E-29
9.58530E-01 4.70459E-29
9.60252E-01 4.48531E-29
9.61940E-01 4.27268E-29
9.63592E-01 4.06656E-29
9.65209E-01 3.86682E-29
9.66790E-01 3.67333E-29
9.68336E-01 3.48596E-29
9.69846E-01 3.30459E-29
9.71321E-01 3.12911E-29
9.72759E-01 2.95940E-29
9.74162E-01 2.79535E-29
9.75528E-01 2.63685E-29
9.76858E-01 2.48381E-29
9.78152E-01 2.33613E-29
9.79410E-01 2.19371E-29
9.80631E-01 2.05646E-29
9.81815E-01 1.92429E-29
9.82963E-01 1.79712E-29
9.84074E-01 1.67487E-29
9.85148E-01 1.55745E-29
9.86185E-01 1.44480E-29
9.87185E-01 1.33685E-29
9.88148E-01 1.23352E-29
9.89074E-01 1.13474E-29
9.89962E-01 1.04047E-29
9.90814E-01 9.50629E-30
9.91627E-01 8.65171E-30
9.92404E-01 7.84039E-30
9.93143E-01 7.07181E-30
9.93844E-01 6.34551E-30
9.94508E-01 5.66101E-30
9.95134E-01 5.01789E-30
9.95722E-01 4.41574E-30
9.96273E-01 3.85419E-30
9.96786E-01 3.33288E-30
9.97261E-01 2.85149E-30
9.97698E-01 2.40971E-30
9.98097E-01 2.00727E-30
9.98459E-01 1.64391E-30
9.98782E-01 1.31940E-30
9.99067E-01 1.03355E-30
9.99315E-01 7.86176E-31
9.99524E-01 5.77119E-31
9.99695E-01 4.06249E-31
9.99829E-01 2.73462E-31
9.99924E-01 1.78673E-31
9.99981E-01 1.21824E-31
1.00000E+00 1.02876E-31
