 #
 # Subroutine ELSEPA. Elastic scattering of electrons and positrons
 #                    by neutral atoms and positive ions
 #
 # Projectile: electron
 # Kinetic energy = 1.75000E+06 eV = 6.43113E+04 a.u.
 #
 # WARNING: High-energy factorization with free-atom DF screening.
 #          Absorption, polarization and exchange corrections are
 #          switched off.
 #          Phase shifts are calculated for the bare nucleus.
 #          Scattering amplitudes are not evaluated.
 #
 # Element: Fe,  Z =  26,  atomic weight = 5.58450E+01 g/mol
 #
 # Nuclear model: Fermi distribution
 #                Average radius = 4.08989E-13 cm
 #                Skin thickness = 5.46000E-14 cm
 #
 # Number of electrons = 26
 #
 # Total elastic cross section = 2.06823E-18 cm**2 = 7.38580E-02 a0**2
 # 1st transport cross section = 1.94799E-22 cm**2 = 6.95639E-06 a0**2
 # 2nd transport cross section = 5.46405E-22 cm**2 = 1.95125E-05 a0**2
 #
 #
 # Differential cross section:                       MU=(1-COS(THETA))/2
 #
 #  THETA        MU          DCS          DCS        Sherman      error
 #  (deg)                 (cm**2/sr)   (a0**2/sr)    function
 #----------------------------------------------------------------------
0.00000E+00 9.94779E-14
7.61557E-13 9.94778E-14
1.18994E-12 9.94777E-14
1.71346E-12 9.94776E-14
2.33225E-12 9.94775E-14
3.04617E-12 9.94774E-14
3.85530E-12 9.94772E-14
4.75964E-12 9.94770E-14
5.75917E-12 9.94769E-14
6.85391E-12 9.94767E-14
8.04379E-12 9.94764E-14
9.32893E-12 9.94762E-14
1.07092E-11 9.94759E-14
1.21847E-11 9.94757E-14
1.37554E-11 9.94754E-14
1.54213E-11 9.94751E-14
1.71823E-11 9.94748E-14
1.90386E-11 9.94744E-14
2.09900E-11 9.94740E-14
2.30367E-11 9.94737E-14
2.51785E-11 9.94733E-14
2.74156E-11 9.94728E-14
2.97478E-11 9.94724E-14
3.21752E-11 9.94720E-14
3.46979E-11 9.94715E-14
3.73157E-11 9.94710E-14
4.00286E-11 9.94705E-14
4.28368E-11 9.94700E-14
4.57402E-11 9.94694E-14
4.87388E-11 9.94689E-14
5.18325E-11 9.94683E-14
5.50215E-11 9.94677E-14
5.83057E-11 9.94671E-14
6.16850E-11 9.94664E-14
6.51595E-11 9.94658E-14
6.87293E-11 9.94651E-14
7.23943E-11 9.94644E-14
7.61544E-11 9.94637E-14
1.18991E-10 9.94557E-14
1.71347E-10 9.94459E-14
2.33223E-10 9.94342E-14
3.04617E-10 9.94208E-14
3.85531E-10 9.94056E-14
4.75965E-10 9.93886E-14
5.75917E-10 9.93698E-14
6.85389E-10 9.93492E-14
8.04380E-10 9.93268E-14
9.32891E-10 9.93026E-14
1.07092E-09 9.92767E-14
1.21847E-09 9.92490E-14
1.37554E-09 9.92194E-14
1.54213E-09 9.91881E-14
1.71823E-09 9.91551E-14
1.90386E-09 9.91202E-14
2.09900E-09 9.90836E-14
2.30367E-09 9.90453E-14
2.51785E-09 9.90051E-14
2.74156E-09 9.89632E-14
2.97478E-09 9.89196E-14
3.21752E-09 9.88742E-14
3.46978E-09 9.88270E-14
3.73156E-09 9.87781E-14
4.00286E-09 9.87275E-14
4.28368E-09 9.86751E-14
4.57402E-09 9.86210E-14
4.87388E-09 9.85652E-14
5.18326E-09 9.85077E-14
5.50215E-09 9.84484E-14
5.83057E-09 9.83874E-14
6.16850E-09 9.83248E-14
6.51596E-09 9.82604E-14
6.87293E-09 9.81943E-14
7.23942E-09 9.81265E-14
7.61544E-09 9.80571E-14
1.18991E-08 9.72715E-14
1.71347E-08 9.63248E-14
2.33223E-08 9.52249E-14
3.04617E-08 9.39808E-14
3.85531E-08 9.26023E-14
4.75965E-08 9.10995E-14
5.75917E-08 8.94774E-14
6.85389E-08 8.77641E-14
8.04380E-08 8.59574E-14
9.32891E-08 8.40724E-14
1.07092E-07 8.21337E-14
1.21847E-07 8.01227E-14
1.37554E-07 7.80843E-14
1.54213E-07 7.60085E-14
1.71823E-07 7.39109E-14
1.90386E-07 7.18153E-14
2.09900E-07 6.96973E-14
2.30367E-07 6.76017E-14
2.51785E-07 6.55136E-14
2.74156E-07 6.34461E-14
2.97478E-07 6.14176E-14
3.21752E-07 5.94037E-14
3.46978E-07 5.74413E-14
3.73156E-07 5.55143E-14
4.00286E-07 5.36321E-14
4.28368E-07 5.18066E-14
4.57402E-07 5.00168E-14
4.87388E-07 4.82896E-14
5.18325E-07 4.66100E-14
5.50215E-07 4.49840E-14
5.83057E-07 4.34183E-14
6.16850E-07 4.18963E-14
6.51596E-07 4.04360E-14
6.87293E-07 3.90245E-14
7.23942E-07 3.76658E-14
7.61543E-07 3.63628E-14
1.18991E-06 2.58284E-14
1.71347E-06 1.88609E-14
2.33223E-06 1.41769E-14
3.04617E-06 1.09176E-14
3.85531E-06 8.56509E-15
4.75964E-06 6.80777E-15
5.75916E-06 5.39914E-15
6.85388E-06 4.39893E-15
8.04378E-06 3.58935E-15
9.32888E-06 2.93604E-15
1.07092E-05 2.44350E-15
1.21846E-05 2.01023E-15
1.37553E-05 1.67876E-15
1.54212E-05 1.40516E-15
1.71822E-05 1.17997E-15
1.90385E-05 1.00090E-15
2.09899E-05 8.47609E-16
2.30365E-05 7.24263E-16
2.51783E-05 6.21314E-16
2.74153E-05 5.35328E-16
2.97475E-05 4.64300E-16
3.21749E-05 4.03761E-16
3.46974E-05 3.53228E-16
3.73152E-05 3.10335E-16
4.00281E-05 2.73821E-16
4.28362E-05 2.42752E-16
4.57395E-05 2.15936E-16
4.87380E-05 1.92906E-16
5.18317E-05 1.72932E-16
5.50205E-05 1.55561E-16
5.83045E-05 1.40428E-16
6.16838E-05 1.27111E-16
6.51582E-05 1.15431E-16
6.87277E-05 1.05093E-16
7.23925E-05 9.59310E-17
7.61524E-05 8.78008E-17
9.21439E-05 6.28751E-17
1.09658E-04 4.63391E-17
1.28695E-04 3.49347E-17
1.49255E-04 2.68176E-17
1.71338E-04 2.09173E-17
1.94942E-04 1.65284E-17
2.20070E-04 1.32166E-17
2.46720E-04 1.06809E-17
2.74892E-04 8.71390E-18
3.04586E-04 7.17425E-18
3.35803E-04 5.95529E-18
3.68542E-04 4.98205E-18
4.02802E-04 4.19809E-18
4.38585E-04 3.56111E-18
4.75889E-04 3.03994E-18
5.14715E-04 2.60972E-18
5.55063E-04 2.25394E-18
5.96931E-04 1.95655E-18
6.40321E-04 1.70660E-18
6.85233E-04 1.49573E-18
7.31665E-04 1.31619E-18
7.79618E-04 1.16311E-18
8.29092E-04 1.03169E-18
8.80086E-04 9.18418E-19
9.32601E-04 8.20435E-19
9.86636E-04 7.35133E-19
1.04219E-03 6.60775E-19
1.09927E-03 5.95606E-19
1.15786E-03 5.38326E-19
1.21797E-03 4.87844E-19
1.27961E-03 4.43120E-19
1.34276E-03 4.03475E-19
1.40743E-03 3.68167E-19
1.47362E-03 3.36660E-19
1.54133E-03 3.08488E-19
1.61056E-03 2.83185E-19
1.68131E-03 2.60460E-19
1.75357E-03 2.39964E-19
1.82735E-03 2.21455E-19
1.90265E-03 2.04714E-19
1.97947E-03 1.89514E-19
2.05780E-03 1.75717E-19
2.13765E-03 1.63149E-19
2.21902E-03 1.51689E-19
2.30190E-03 1.41226E-19
2.38630E-03 1.31643E-19
2.47222E-03 1.22869E-19
2.55965E-03 1.14811E-19
2.64859E-03 1.07404E-19
2.73905E-03 1.00591E-19
2.83103E-03 9.43038E-20
2.92452E-03 8.85063E-20
3.01952E-03 8.31451E-20
3.11604E-03 7.81853E-20
3.21407E-03 7.35924E-20
3.31362E-03 6.93287E-20
3.41468E-03 6.53729E-20
3.51725E-03 6.16936E-20
3.62133E-03 5.82704E-20
3.72692E-03 5.50829E-20
3.83403E-03 5.21085E-20
3.94265E-03 4.93343E-20
4.05278E-03 4.67413E-20
4.16442E-03 4.43170E-20
4.27757E-03 4.20487E-20
4.39223E-03 3.99226E-20
4.50840E-03 3.79305E-20
4.62608E-03 3.60605E-20
4.74527E-03 3.43047E-20
4.86597E-03 3.26550E-20
4.98817E-03 3.11027E-20
5.11188E-03 2.96424E-20
5.23711E-03 2.82663E-20
5.36383E-03 2.69695E-20
5.49207E-03 2.57466E-20
5.62181E-03 2.45918E-20
5.75306E-03 2.35016E-20
5.88581E-03 2.24708E-20
6.02007E-03 2.14962E-20
6.15583E-03 2.05741E-20
6.29310E-03 1.97007E-20
6.43187E-03 1.88736E-20
6.57214E-03 1.80892E-20
6.71392E-03 1.73453E-20
6.85720E-03 1.66395E-20
7.00198E-03 1.59690E-20
7.14827E-03 1.53322E-20
7.29605E-03 1.47268E-20
7.44534E-03 1.41511E-20
7.59612E-03 1.36034E-20
7.97965E-03 1.23457E-20
8.37255E-03 1.12304E-20
8.77480E-03 1.02385E-20
9.18641E-03 9.35398E-21
9.60736E-03 8.56319E-21
1.00376E-02 7.85444E-21
1.04773E-02 7.21771E-21
1.09262E-02 6.64439E-21
1.13844E-02 6.12705E-21
1.18520E-02 5.65924E-21
1.23288E-02 5.23538E-21
1.28150E-02 4.85059E-21
1.33104E-02 4.50063E-21
1.38150E-02 4.18177E-21
1.43290E-02 3.89075E-21
1.48521E-02 3.62470E-21
1.53845E-02 3.38109E-21
1.59262E-02 3.15769E-21
1.64770E-02 2.95250E-21
1.70371E-02 2.76377E-21
1.76063E-02 2.58995E-21
1.81848E-02 2.42963E-21
1.87724E-02 2.28157E-21
1.93692E-02 2.14467E-21
1.99751E-02 2.01793E-21
2.05901E-02 1.90045E-21
2.12143E-02 1.79143E-21
2.18476E-02 1.69016E-21
2.24900E-02 1.59597E-21
2.31415E-02 1.50828E-21
2.38021E-02 1.42655E-21
2.44717E-02 1.35031E-21
2.51504E-02 1.27912E-21
2.58382E-02 1.21258E-21
2.65349E-02 1.15033E-21
2.72407E-02 1.09205E-21
2.79555E-02 1.03742E-21
2.86793E-02 9.86184E-22
2.94120E-02 9.38086E-22
3.01537E-02 8.92898E-22
3.09043E-02 8.50411E-22
3.16639E-02 8.10433E-22
3.24324E-02 7.72787E-22
3.32098E-02 7.37311E-22
3.39961E-02 7.03858E-22
3.47912E-02 6.72289E-22
3.55952E-02 6.42478E-22
3.64081E-02 6.14309E-22
3.72297E-02 5.87673E-22
3.80602E-02 5.62473E-22
3.88995E-02 5.38614E-22
3.97476E-02 5.16013E-22
4.06044E-02 4.94591E-22
4.14700E-02 4.74273E-22
4.23443E-02 4.54993E-22
4.32273E-02 4.36687E-22
4.41190E-02 4.19296E-22
4.50194E-02 4.02766E-22
4.59284E-02 3.87046E-22
4.68461E-02 3.72089E-22
4.87074E-02 3.44288E-22
5.06030E-02 3.19047E-22
5.25328E-02 2.96085E-22
5.44967E-02 2.75160E-22
5.64946E-02 2.56058E-22
5.85262E-02 2.38590E-22
6.05914E-02 2.22592E-22
6.26901E-02 2.07917E-22
6.48222E-02 1.94435E-22
6.69873E-02 1.82031E-22
6.91854E-02 1.70604E-22
7.14163E-02 1.60061E-22
7.36799E-02 1.50322E-22
7.59760E-02 1.41315E-22
7.83043E-02 1.32973E-22
8.06647E-02 1.25239E-22
8.30571E-02 1.18060E-22
8.54812E-02 1.11389E-22
8.79369E-02 1.05183E-22
9.04240E-02 9.94033E-23
9.29422E-02 9.40156E-23
9.54915E-02 8.89881E-23
9.80716E-02 8.42922E-23
1.00682E-01 7.99020E-23
1.03323E-01 7.57937E-23
1.05995E-01 7.19459E-23
1.08696E-01 6.83390E-23
1.11427E-01 6.49549E-23
1.14188E-01 6.17774E-23
1.16978E-01 5.87914E-23
1.19797E-01 5.59833E-23
1.22645E-01 5.33403E-23
1.25522E-01 5.08510E-23
1.28428E-01 4.85048E-23
1.31361E-01 4.62917E-23
1.34323E-01 4.42030E-23
1.37313E-01 4.22301E-23
1.40330E-01 4.03656E-23
1.43375E-01 3.86023E-23
1.46447E-01 3.69337E-23
1.49545E-01 3.53537E-23
1.52671E-01 3.38567E-23
1.55823E-01 3.24376E-23
1.59001E-01 3.10914E-23
1.62205E-01 2.98138E-23
1.65435E-01 2.86007E-23
1.68690E-01 2.74480E-23
1.71970E-01 2.63523E-23
1.75276E-01 2.53101E-23
1.78606E-01 2.43185E-23
1.81961E-01 2.33743E-23
1.85340E-01 2.24751E-23
1.88743E-01 2.16181E-23
1.92169E-01 2.08011E-23
1.95619E-01 2.00218E-23
1.99092E-01 1.92781E-23
2.02589E-01 1.85682E-23
2.06107E-01 1.78901E-23
2.09649E-01 1.72423E-23
2.13212E-01 1.66230E-23
2.16797E-01 1.60308E-23
2.20404E-01 1.54643E-23
2.24032E-01 1.49221E-23
2.27680E-01 1.44031E-23
2.31350E-01 1.39060E-23
2.35040E-01 1.34297E-23
2.38751E-01 1.29732E-23
2.42481E-01 1.25355E-23
2.46231E-01 1.21157E-23
2.50000E-01 1.17130E-23
2.53788E-01 1.13264E-23
2.57595E-01 1.09553E-23
2.61421E-01 1.05988E-23
2.65264E-01 1.02564E-23
2.69126E-01 9.92728E-24
2.73005E-01 9.61092E-24
2.76901E-01 9.30671E-24
2.80814E-01 9.01409E-24
2.84744E-01 8.73253E-24
2.88691E-01 8.46154E-24
2.92653E-01 8.20066E-24
2.96632E-01 7.94942E-24
3.00625E-01 7.70741E-24
3.04634E-01 7.47422E-24
3.08658E-01 7.24947E-24
3.12697E-01 7.03281E-24
3.16749E-01 6.82388E-24
3.20816E-01 6.62235E-24
3.24896E-01 6.42793E-24
3.28990E-01 6.24030E-24
3.33097E-01 6.05918E-24
3.37216E-01 5.88432E-24
3.41348E-01 5.71545E-24
3.45492E-01 5.55232E-24
3.49647E-01 5.39472E-24
3.53814E-01 5.24241E-24
3.57992E-01 5.09518E-24
3.62181E-01 4.95284E-24
3.66381E-01 4.81519E-24
3.70590E-01 4.68205E-24
3.74810E-01 4.55325E-24
3.79039E-01 4.42861E-24
3.83277E-01 4.30797E-24
3.87524E-01 4.19120E-24
3.91780E-01 4.07813E-24
3.96044E-01 3.96863E-24
4.00316E-01 3.86257E-24
4.04596E-01 3.75981E-24
4.08882E-01 3.66025E-24
4.13176E-01 3.56375E-24
4.17476E-01 3.47021E-24
4.21783E-01 3.37952E-24
4.26095E-01 3.29158E-24
4.30413E-01 3.20629E-24
4.34737E-01 3.12356E-24
4.39065E-01 3.04329E-24
4.43398E-01 2.96540E-24
4.47736E-01 2.88981E-24
4.52077E-01 2.81643E-24
4.56422E-01 2.74519E-24
4.60770E-01 2.67602E-24
4.65122E-01 2.60884E-24
4.69476E-01 2.54359E-24
4.73832E-01 2.48020E-24
4.78190E-01 2.41862E-24
4.82550E-01 2.35877E-24
4.86912E-01 2.30060E-24
4.91274E-01 2.24406E-24
4.95637E-01 2.18909E-24
5.00000E-01 2.13565E-24
5.04363E-01 2.08368E-24
5.08726E-01 2.03313E-24
5.13088E-01 1.98396E-24
5.17450E-01 1.93612E-24
5.21810E-01 1.88958E-24
5.26168E-01 1.84429E-24
5.30524E-01 1.80021E-24
5.34878E-01 1.75730E-24
5.39230E-01 1.71553E-24
5.43578E-01 1.67487E-24
5.47923E-01 1.63527E-24
5.52264E-01 1.59670E-24
5.56602E-01 1.55914E-24
5.60935E-01 1.52256E-24
5.65263E-01 1.48692E-24
5.69587E-01 1.45219E-24
5.73905E-01 1.41835E-24
5.78217E-01 1.38537E-24
5.82524E-01 1.35323E-24
5.86824E-01 1.32190E-24
5.91118E-01 1.29136E-24
5.95404E-01 1.26158E-24
5.99684E-01 1.23254E-24
6.03956E-01 1.20423E-24
6.08220E-01 1.17662E-24
6.12476E-01 1.14968E-24
6.16723E-01 1.12341E-24
6.20961E-01 1.09778E-24
6.25190E-01 1.07277E-24
6.29410E-01 1.04837E-24
6.33619E-01 1.02456E-24
6.37819E-01 1.00132E-24
6.42008E-01 9.78640E-25
6.46186E-01 9.56500E-25
6.50353E-01 9.34888E-25
6.54508E-01 9.13788E-25
6.58652E-01 8.93186E-25
6.62784E-01 8.73070E-25
6.66903E-01 8.53426E-25
6.71010E-01 8.34241E-25
6.75104E-01 8.15503E-25
6.79184E-01 7.97201E-25
6.83251E-01 7.79322E-25
6.87303E-01 7.61856E-25
6.91342E-01 7.44792E-25
6.95366E-01 7.28118E-25
6.99375E-01 7.11826E-25
7.03368E-01 6.95906E-25
7.07347E-01 6.80347E-25
7.11309E-01 6.65140E-25
7.15256E-01 6.50277E-25
7.19186E-01 6.35748E-25
7.23099E-01 6.21546E-25
7.26995E-01 6.07662E-25
7.30874E-01 5.94088E-25
7.34736E-01 5.80816E-25
7.38579E-01 5.67840E-25
7.42405E-01 5.55151E-25
7.46212E-01 5.42742E-25
7.50000E-01 5.30607E-25
7.53769E-01 5.18739E-25
7.57519E-01 5.07132E-25
7.61249E-01 4.95778E-25
7.64960E-01 4.84673E-25
7.68650E-01 4.73810E-25
7.72320E-01 4.63184E-25
7.75968E-01 4.52788E-25
7.79596E-01 4.42618E-25
7.83203E-01 4.32667E-25
7.86788E-01 4.22932E-25
7.90351E-01 4.13407E-25
7.93893E-01 4.04087E-25
7.97411E-01 3.94967E-25
8.00908E-01 3.86043E-25
8.04381E-01 3.77310E-25
8.07831E-01 3.68764E-25
8.11257E-01 3.60401E-25
8.14660E-01 3.52217E-25
8.18039E-01 3.44207E-25
8.21394E-01 3.36368E-25
8.24724E-01 3.28696E-25
8.28030E-01 3.21187E-25
8.31310E-01 3.13839E-25
8.34565E-01 3.06646E-25
8.37795E-01 2.99606E-25
8.40999E-01 2.92716E-25
8.44177E-01 2.85972E-25
8.47329E-01 2.79372E-25
8.50455E-01 2.72912E-25
8.53553E-01 2.66589E-25
8.56625E-01 2.60400E-25
8.59670E-01 2.54343E-25
8.62687E-01 2.48415E-25
8.65677E-01 2.42613E-25
8.68639E-01 2.36935E-25
8.71572E-01 2.31378E-25
8.74478E-01 2.25940E-25
8.77355E-01 2.20618E-25
8.80203E-01 2.15410E-25
8.83022E-01 2.10313E-25
8.85812E-01 2.05327E-25
8.88573E-01 2.00447E-25
8.91304E-01 1.95673E-25
8.94005E-01 1.91002E-25
8.96677E-01 1.86433E-25
8.99318E-01 1.81962E-25
9.01928E-01 1.77590E-25
9.04508E-01 1.73313E-25
9.07058E-01 1.69129E-25
9.09576E-01 1.65039E-25
9.12063E-01 1.61038E-25
9.14519E-01 1.57126E-25
9.16943E-01 1.53302E-25
9.19335E-01 1.49563E-25
9.21696E-01 1.45909E-25
9.24024E-01 1.42337E-25
9.26320E-01 1.38847E-25
9.28584E-01 1.35436E-25
9.30815E-01 1.32104E-25
9.33013E-01 1.28849E-25
9.35178E-01 1.25670E-25
9.37310E-01 1.22566E-25
9.39409E-01 1.19535E-25
9.41474E-01 1.16577E-25
9.43505E-01 1.13689E-25
9.45503E-01 1.10872E-25
9.47467E-01 1.08124E-25
9.49397E-01 1.05443E-25
9.51293E-01 1.02829E-25
9.53154E-01 1.00281E-25
9.54981E-01 9.77984E-26
9.56773E-01 9.53793E-26
9.58530E-01 9.30233E-26
9.60252E-01 9.07293E-26
9.61940E-01 8.84967E-26
9.63592E-01 8.63245E-26
9.65209E-01 8.42119E-26
9.66790E-01 8.21581E-26
9.68336E-01 8.01624E-26
9.69846E-01 7.82241E-26
9.71321E-01 7.63423E-26
9.72759E-01 7.45165E-26
9.74162E-01 7.27459E-26
9.75528E-01 7.10299E-26
9.76858E-01 6.93679E-26
9.78152E-01 6.77593E-26
9.79410E-01 6.62034E-26
9.80631E-01 6.46998E-26
9.81815E-01 6.32479E-26
9.82963E-01 6.18470E-26
9.84074E-01 6.04969E-26
9.85148E-01 5.91969E-26
9.86185E-01 5.79466E-26
9.87185E-01 5.67455E-26
9.88148E-01 5.55932E-26
9.89074E-01 5.44894E-26
9.89962E-01 5.34335E-26
9.90814E-01 5.24253E-26
9.91627E-01 5.14643E-26
9.92404E-01 5.05503E-26
9.93143E-01 4.96829E-26
9.93844E-01 4.88618E-26
9.94508E-01 4.80867E-26
9.95134E-01 4.73573E-26
9.95722E-01 4.66734E-26
9.96273E-01 4.60348E-26
9.96786E-01 4.54412E-26
9.97261E-01 4.48923E-26
9.97698E-01 4.43881E-26
9.98097E-01 4.39283E-26
9.98459E-01 4.35128E-26
9.98782E-01 4.31414E-26
9.99067E-01 4.28140E-26
9.99315E-01 4.25305E-26
9.99524E-01 4.22908E-26
9.99695E-01 4.20948E-26
9.99829E-01 4.19424E-26
9.99924E-01 4.18336E-26
9.99981E-01 4.17683E-26
1.00000E+00 4.17466E-26
