 #
 # Subroutine ELSEPA. Elastic scattering of electrons and positrons
 #                    by neutral atoms and positive ions
 #
 # Projectile: electron
 # Kinetic energy = 1.25000E+07 eV = 4.59367E+05 a.u.
 #
 # WARNING: High-energy factorization with free-atom DF screening.
 #          Absorption, polarization and exchange corrections are
 #          switched off.
 #          Phase shifts are calculated for the bare nucleus.
 #          Scattering amplitudes are not evaluated.
 #
 # Element: Fe,  Z =  26,  atomic weight = 5.58450E+01 g/mol
 #
 # Nuclear model: Fermi distribution
 #                Average radius = 4.08989E-13 cm
 #                Skin thickness = 5.46000E-14 cm
 #
 # Number of electrons = 26
 #
 # Total elastic cross section = 1.96332E-18 cm**2 = 7.01114E-02 a0**2
 # 1st transport cross section = 7.11236E-24 cm**2 = 2.53987E-07 a0**2
 # 2nd transport cross section = 2.03787E-23 cm**2 = 7.27738E-07 a0**2
 #
 #
 # Differential cross section:                       MU=(1-COS(THETA))/2
 #
 #  THETA        MU          DCS          DCS        Sherman      error
 #  (deg)                 (cm**2/sr)   (a0**2/sr)    function
 #----------------------------------------------------------------------
0.00000E+00 3.29418E-12
7.61557E-13 3.29401E-12
1.18994E-12 3.29392E-12
1.71346E-12 3.29380E-12
2.33225E-12 3.29367E-12
3.04617E-12 3.29351E-12
3.85530E-12 3.29333E-12
4.75964E-12 3.29313E-12
5.75917E-12 3.29292E-12
6.85391E-12 3.29268E-12
8.04379E-12 3.29242E-12
9.32893E-12 3.29214E-12
1.07092E-11 3.29184E-12
1.21847E-11 3.29151E-12
1.37554E-11 3.29117E-12
1.54213E-11 3.29081E-12
1.71823E-11 3.29042E-12
1.90386E-11 3.29002E-12
2.09900E-11 3.28959E-12
2.30367E-11 3.28915E-12
2.51785E-11 3.28868E-12
2.74156E-11 3.28819E-12
2.97478E-11 3.28769E-12
3.21752E-11 3.28716E-12
3.46979E-11 3.28661E-12
3.73157E-11 3.28604E-12
4.00286E-11 3.28545E-12
4.28368E-11 3.28484E-12
4.57402E-11 3.28421E-12
4.87388E-11 3.28356E-12
5.18325E-11 3.28288E-12
5.50215E-11 3.28219E-12
5.83057E-11 3.28148E-12
6.16850E-11 3.28075E-12
6.51595E-11 3.27999E-12
6.87293E-11 3.27922E-12
7.23943E-11 3.27843E-12
7.61544E-11 3.27761E-12
1.18991E-10 3.26836E-12
1.71347E-10 3.25710E-12
2.33223E-10 3.24389E-12
3.04617E-10 3.22875E-12
3.85531E-10 3.21172E-12
4.75965E-10 3.19287E-12
5.75917E-10 3.17223E-12
6.85389E-10 3.14988E-12
8.04380E-10 3.12588E-12
9.32891E-10 3.10028E-12
1.07092E-09 3.07316E-12
1.21847E-09 3.04460E-12
1.37554E-09 3.01464E-12
1.54213E-09 2.98324E-12
1.71823E-09 2.95073E-12
1.90386E-09 2.91721E-12
2.09900E-09 2.88276E-12
2.30367E-09 2.84696E-12
2.51785E-09 2.81035E-12
2.74156E-09 2.77308E-12
2.97478E-09 2.73524E-12
3.21752E-09 2.69645E-12
3.46978E-09 2.65704E-12
3.73156E-09 2.61730E-12
4.00286E-09 2.57731E-12
4.28368E-09 2.53682E-12
4.57402E-09 2.49583E-12
4.87388E-09 2.45482E-12
5.18326E-09 2.41385E-12
5.50215E-09 2.37280E-12
5.83057E-09 2.33135E-12
6.16850E-09 2.29012E-12
6.51596E-09 2.24917E-12
6.87293E-09 2.20854E-12
7.23942E-09 2.16755E-12
7.61544E-09 2.12700E-12
1.18991E-08 1.74426E-12
1.71347E-08 1.41606E-12
2.33223E-08 1.14903E-12
3.04617E-08 9.37840E-13
3.85531E-08 7.72327E-13
4.75965E-08 6.42709E-13
5.75917E-08 5.40413E-13
6.85389E-08 4.58620E-13
8.04380E-08 3.92507E-13
9.32891E-08 3.38299E-13
1.07092E-07 2.93297E-13
1.21847E-07 2.55600E-13
1.37554E-07 2.23310E-13
1.54213E-07 1.94184E-13
1.71823E-07 1.70530E-13
1.90386E-07 1.51129E-13
2.09900E-07 1.35067E-13
2.30367E-07 1.19065E-13
2.51785E-07 1.05473E-13
2.74156E-07 9.40779E-14
2.97478E-07 8.44549E-14
3.21752E-07 7.53700E-14
3.46978E-07 6.72545E-14
3.73156E-07 6.03289E-14
4.00286E-07 5.43850E-14
4.28368E-07 4.89908E-14
4.57402E-07 4.40381E-14
4.87388E-07 3.97477E-14
5.18325E-07 3.60141E-14
5.50215E-07 3.26940E-14
5.83057E-07 2.96128E-14
6.16850E-07 2.69087E-14
6.51596E-07 2.45269E-14
6.87293E-07 2.24202E-14
7.23942E-07 2.04626E-14
7.61543E-07 1.87249E-14
1.18991E-06 8.49536E-15
1.71347E-06 4.44445E-15
2.33223E-06 2.58435E-15
3.04617E-06 1.61827E-15
3.85531E-06 1.06659E-15
4.75964E-06 7.30640E-16
5.75916E-06 5.15940E-16
6.85388E-06 3.73413E-16
8.04378E-06 2.76207E-16
9.32888E-06 2.08265E-16
1.07092E-05 1.59766E-16
1.21846E-05 1.24488E-16
1.37553E-05 9.83620E-17
1.54212E-05 7.87143E-17
1.71822E-05 6.37534E-17
1.90385E-05 5.21811E-17
2.09899E-05 4.31253E-17
2.30365E-05 3.59615E-17
2.51783E-05 3.02237E-17
2.74153E-05 2.55924E-17
2.97475E-05 2.18175E-17
3.21749E-05 1.87160E-17
3.46974E-05 1.61509E-17
3.73152E-05 1.40104E-17
4.00281E-05 1.22159E-17
4.28362E-05 1.07003E-17
4.57395E-05 9.41327E-18
4.87380E-05 8.31500E-18
5.18317E-05 7.37175E-18
5.50205E-05 6.55928E-18
5.83045E-05 5.85557E-18
6.16838E-05 5.24395E-18
6.51582E-05 4.71041E-18
6.87277E-05 4.24283E-18
7.23925E-05 3.83217E-18
7.61524E-05 3.46982E-18
9.21439E-05 2.38639E-18
1.09658E-04 1.69439E-18
1.28695E-04 1.23587E-18
1.49255E-04 9.22304E-19
1.71338E-04 7.02086E-19
1.94942E-04 5.43783E-19
2.20070E-04 4.27645E-19
2.46720E-04 3.40902E-19
2.74892E-04 2.75064E-19
3.04586E-04 2.24373E-19
3.35803E-04 1.84835E-19
3.68542E-04 1.53634E-19
4.02802E-04 1.28746E-19
4.38585E-04 1.08700E-19
4.75889E-04 9.24086E-20
5.14715E-04 7.90588E-20
5.55063E-04 6.80361E-20
5.96931E-04 5.88699E-20
6.40321E-04 5.11975E-20
6.85233E-04 4.47362E-20
7.31665E-04 3.92634E-20
7.79618E-04 3.46033E-20
8.29092E-04 3.06150E-20
8.80086E-04 2.71858E-20
9.32601E-04 2.42240E-20
9.86636E-04 2.16552E-20
1.04219E-03 1.94185E-20
1.09927E-03 1.74635E-20
1.15786E-03 1.57489E-20
1.21797E-03 1.42399E-20
1.27961E-03 1.29076E-20
1.34276E-03 1.17278E-20
1.40743E-03 1.06800E-20
1.47362E-03 9.74681E-21
1.54133E-03 8.91352E-21
1.61056E-03 8.16756E-21
1.68131E-03 7.49816E-21
1.75357E-03 6.89608E-21
1.82735E-03 6.35335E-21
1.90265E-03 5.86308E-21
1.97947E-03 5.41929E-21
2.05780E-03 5.01679E-21
2.13765E-03 4.65105E-21
2.21902E-03 4.31811E-21
2.30190E-03 4.01449E-21
2.38630E-03 3.73716E-21
2.47222E-03 3.48342E-21
2.55965E-03 3.25090E-21
2.64859E-03 3.03751E-21
2.73905E-03 2.84138E-21
2.83103E-03 2.66087E-21
2.92452E-03 2.49450E-21
3.01952E-03 2.34096E-21
3.11604E-03 2.19909E-21
3.21407E-03 2.06783E-21
3.31362E-03 1.94625E-21
3.41468E-03 1.83349E-21
3.51725E-03 1.72881E-21
3.62133E-03 1.63151E-21
3.72692E-03 1.54098E-21
3.83403E-03 1.45666E-21
3.94265E-03 1.37804E-21
4.05278E-03 1.30467E-21
4.16442E-03 1.23614E-21
4.27757E-03 1.17206E-21
4.39223E-03 1.11209E-21
4.50840E-03 1.05592E-21
4.62608E-03 1.00326E-21
4.74527E-03 9.53852E-22
4.86597E-03 9.07459E-22
4.98817E-03 8.63861E-22
5.11188E-03 8.22858E-22
5.23711E-03 7.84267E-22
5.36383E-03 7.47919E-22
5.49207E-03 7.13659E-22
5.62181E-03 6.81346E-22
5.75306E-03 6.50846E-22
5.88581E-03 6.22040E-22
6.02007E-03 5.94815E-22
6.15583E-03 5.69068E-22
6.29310E-03 5.44704E-22
6.43187E-03 5.21635E-22
6.57214E-03 4.99778E-22
6.71392E-03 4.79058E-22
6.85720E-03 4.59405E-22
7.00198E-03 4.40752E-22
7.14827E-03 4.23040E-22
7.29605E-03 4.06212E-22
7.44534E-03 3.90216E-22
7.59612E-03 3.75002E-22
7.97965E-03 3.40099E-22
8.37255E-03 3.09177E-22
8.77480E-03 2.81703E-22
9.18641E-03 2.57225E-22
9.60736E-03 2.35357E-22
1.00376E-02 2.15774E-22
1.04773E-02 1.98192E-22
1.09262E-02 1.82372E-22
1.13844E-02 1.68105E-22
1.18520E-02 1.55212E-22
1.23288E-02 1.43536E-22
1.28150E-02 1.32941E-22
1.33104E-02 1.23310E-22
1.38150E-02 1.14539E-22
1.43290E-02 1.06537E-22
1.48521E-02 9.92250E-23
1.53845E-02 9.25317E-23
1.59262E-02 8.63955E-23
1.64770E-02 8.07617E-23
1.70371E-02 7.55815E-23
1.76063E-02 7.08117E-23
1.81848E-02 6.64137E-23
1.87724E-02 6.23533E-23
1.93692E-02 5.85997E-23
1.99751E-02 5.51255E-23
2.05901E-02 5.19060E-23
2.12143E-02 4.89190E-23
2.18476E-02 4.61447E-23
2.24900E-02 4.35650E-23
2.31415E-02 4.11638E-23
2.38021E-02 3.89265E-23
2.44717E-02 3.68396E-23
2.51504E-02 3.48913E-23
2.58382E-02 3.30706E-23
2.65349E-02 3.13676E-23
2.72407E-02 2.97732E-23
2.79555E-02 2.82792E-23
2.86793E-02 2.68780E-23
2.94120E-02 2.55629E-23
3.01537E-02 2.43276E-23
3.09043E-02 2.31662E-23
3.16639E-02 2.20736E-23
3.24324E-02 2.10448E-23
3.32098E-02 2.00755E-23
3.39961E-02 1.91616E-23
3.47912E-02 1.82992E-23
3.55952E-02 1.74850E-23
3.64081E-02 1.67157E-23
3.72297E-02 1.59883E-23
3.80602E-02 1.53002E-23
3.88995E-02 1.46489E-23
3.97476E-02 1.40319E-23
4.06044E-02 1.34472E-23
4.14700E-02 1.28927E-23
4.23443E-02 1.23666E-23
4.32273E-02 1.18671E-23
4.41190E-02 1.13926E-23
4.50194E-02 1.09417E-23
4.59284E-02 1.05129E-23
4.68461E-02 1.01049E-23
4.87074E-02 9.34680E-24
5.06030E-02 8.65860E-24
5.25328E-02 8.03268E-24
5.44967E-02 7.46240E-24
5.64946E-02 6.94189E-24
5.85262E-02 6.46603E-24
6.05914E-02 6.03029E-24
6.26901E-02 5.63066E-24
6.48222E-02 5.26359E-24
6.69873E-02 4.92596E-24
6.91854E-02 4.61496E-24
7.14163E-02 4.32811E-24
7.36799E-02 4.06319E-24
7.59760E-02 3.81820E-24
7.83043E-02 3.59138E-24
8.06647E-02 3.38112E-24
8.30571E-02 3.18600E-24
8.54812E-02 3.00471E-24
8.79369E-02 2.83610E-24
9.04240E-02 2.67912E-24
9.29422E-02 2.53281E-24
9.54915E-02 2.39632E-24
9.80716E-02 2.26886E-24
1.00682E-01 2.14972E-24
1.03323E-01 2.03826E-24
1.05995E-01 1.93389E-24
1.08696E-01 1.83608E-24
1.11427E-01 1.74434E-24
1.14188E-01 1.65821E-24
1.16978E-01 1.57730E-24
1.19797E-01 1.50123E-24
1.22645E-01 1.42965E-24
1.25522E-01 1.36225E-24
1.28428E-01 1.29874E-24
1.31361E-01 1.23885E-24
1.34323E-01 1.18234E-24
1.37313E-01 1.12898E-24
1.40330E-01 1.07856E-24
1.43375E-01 1.03090E-24
1.46447E-01 9.85806E-25
1.49545E-01 9.43120E-25
1.52671E-01 9.02688E-25
1.55823E-01 8.64371E-25
1.59001E-01 8.28035E-25
1.62205E-01 7.93560E-25
1.65435E-01 7.60833E-25
1.68690E-01 7.29748E-25
1.71970E-01 7.00208E-25
1.75276E-01 6.72121E-25
1.78606E-01 6.45403E-25
1.81961E-01 6.19974E-25
1.85340E-01 5.95761E-25
1.88743E-01 5.72695E-25
1.92169E-01 5.50711E-25
1.95619E-01 5.29749E-25
1.99092E-01 5.09753E-25
2.02589E-01 4.90670E-25
2.06107E-01 4.72450E-25
2.09649E-01 4.55048E-25
2.13212E-01 4.38419E-25
2.16797E-01 4.22524E-25
2.20404E-01 4.07323E-25
2.24032E-01 3.92780E-25
2.27680E-01 3.78863E-25
2.31350E-01 3.65539E-25
2.35040E-01 3.52778E-25
2.38751E-01 3.40551E-25
2.42481E-01 3.28834E-25
2.46231E-01 3.17599E-25
2.50000E-01 3.06824E-25
2.53788E-01 2.96487E-25
2.57595E-01 2.86566E-25
2.61421E-01 2.77042E-25
2.65264E-01 2.67896E-25
2.69126E-01 2.59110E-25
2.73005E-01 2.50667E-25
2.76901E-01 2.42552E-25
2.80814E-01 2.34749E-25
2.84744E-01 2.27244E-25
2.88691E-01 2.20024E-25
2.92653E-01 2.13077E-25
2.96632E-01 2.06389E-25
3.00625E-01 1.99949E-25
3.04634E-01 1.93747E-25
3.08658E-01 1.87772E-25
3.12697E-01 1.82015E-25
3.16749E-01 1.76465E-25
3.20816E-01 1.71115E-25
3.24896E-01 1.65956E-25
3.28990E-01 1.60979E-25
3.33097E-01 1.56177E-25
3.37216E-01 1.51543E-25
3.41348E-01 1.47070E-25
3.45492E-01 1.42752E-25
3.49647E-01 1.38581E-25
3.53814E-01 1.34553E-25
3.57992E-01 1.30660E-25
3.62181E-01 1.26899E-25
3.66381E-01 1.23264E-25
3.70590E-01 1.19749E-25
3.74810E-01 1.16351E-25
3.79039E-01 1.13064E-25
3.83277E-01 1.09884E-25
3.87524E-01 1.06808E-25
3.91780E-01 1.03831E-25
3.96044E-01 1.00949E-25
4.00316E-01 9.81592E-26
4.04596E-01 9.54579E-26
4.08882E-01 9.28417E-26
4.13176E-01 9.03075E-26
4.17476E-01 8.78523E-26
4.21783E-01 8.54733E-26
4.26095E-01 8.31675E-26
4.30413E-01 8.09325E-26
4.34737E-01 7.87657E-26
4.39065E-01 7.66646E-26
4.43398E-01 7.46269E-26
4.47736E-01 7.26503E-26
4.52077E-01 7.07328E-26
4.56422E-01 6.88722E-26
4.60770E-01 6.70666E-26
4.65122E-01 6.53141E-26
4.69476E-01 6.36128E-26
4.73832E-01 6.19611E-26
4.78190E-01 6.03572E-26
4.82550E-01 5.87995E-26
4.86912E-01 5.72865E-26
4.91274E-01 5.58166E-26
4.95637E-01 5.43885E-26
5.00000E-01 5.30008E-26
5.04363E-01 5.16521E-26
5.08726E-01 5.03411E-26
5.13088E-01 4.90667E-26
5.17450E-01 4.78277E-26
5.21810E-01 4.66228E-26
5.26168E-01 4.54511E-26
5.30524E-01 4.43114E-26
5.34878E-01 4.32027E-26
5.39230E-01 4.21242E-26
5.43578E-01 4.10747E-26
5.47923E-01 4.00534E-26
5.52264E-01 3.90595E-26
5.56602E-01 3.80921E-26
5.60935E-01 3.71503E-26
5.65263E-01 3.62334E-26
5.69587E-01 3.53407E-26
5.73905E-01 3.44713E-26
5.78217E-01 3.36247E-26
5.82524E-01 3.28000E-26
5.86824E-01 3.19967E-26
5.91118E-01 3.12141E-26
5.95404E-01 3.04516E-26
5.99684E-01 2.97086E-26
6.03956E-01 2.89845E-26
6.08220E-01 2.82788E-26
6.12476E-01 2.75909E-26
6.16723E-01 2.69204E-26
6.20961E-01 2.62667E-26
6.25190E-01 2.56294E-26
6.29410E-01 2.50079E-26
6.33619E-01 2.44019E-26
6.37819E-01 2.38108E-26
6.42008E-01 2.32343E-26
6.46186E-01 2.26720E-26
6.50353E-01 2.21234E-26
6.54508E-01 2.15882E-26
6.58652E-01 2.10661E-26
6.62784E-01 2.05565E-26
6.66903E-01 2.00593E-26
6.71010E-01 1.95741E-26
6.75104E-01 1.91004E-26
6.79184E-01 1.86382E-26
6.83251E-01 1.81869E-26
6.87303E-01 1.77464E-26
6.91342E-01 1.73163E-26
6.95366E-01 1.68963E-26
6.99375E-01 1.64863E-26
7.03368E-01 1.60858E-26
7.07347E-01 1.56948E-26
7.11309E-01 1.53129E-26
7.15256E-01 1.49399E-26
7.19186E-01 1.45755E-26
7.23099E-01 1.42196E-26
7.26995E-01 1.38719E-26
7.30874E-01 1.35322E-26
7.34736E-01 1.32003E-26
7.38579E-01 1.28760E-26
7.42405E-01 1.25592E-26
7.46212E-01 1.22495E-26
7.50000E-01 1.19470E-26
7.53769E-01 1.16512E-26
7.57519E-01 1.13622E-26
7.61249E-01 1.10798E-26
7.64960E-01 1.08036E-26
7.68650E-01 1.05338E-26
7.72320E-01 1.02699E-26
7.75968E-01 1.00120E-26
7.79596E-01 9.75989E-27
7.83203E-01 9.51339E-27
7.86788E-01 9.27239E-27
7.90351E-01 9.03676E-27
7.93893E-01 8.80636E-27
7.97411E-01 8.58108E-27
8.00908E-01 8.36080E-27
8.04381E-01 8.14539E-27
8.07831E-01 7.93475E-27
8.11257E-01 7.72876E-27
8.14660E-01 7.52731E-27
8.18039E-01 7.33030E-27
8.21394E-01 7.13764E-27
8.24724E-01 6.94920E-27
8.28030E-01 6.76492E-27
8.31310E-01 6.58468E-27
8.34565E-01 6.40839E-27
8.37795E-01 6.23598E-27
8.40999E-01 6.06734E-27
8.44177E-01 5.90241E-27
8.47329E-01 5.74109E-27
8.50455E-01 5.58331E-27
8.53553E-01 5.42899E-27
8.56625E-01 5.27805E-27
8.59670E-01 5.13042E-27
8.62687E-01 4.98604E-27
8.65677E-01 4.84482E-27
8.68639E-01 4.70671E-27
8.71572E-01 4.57163E-27
8.74478E-01 4.43953E-27
8.77355E-01 4.31034E-27
8.80203E-01 4.18400E-27
8.83022E-01 4.06046E-27
8.85812E-01 3.93964E-27
8.88573E-01 3.82151E-27
8.91304E-01 3.70600E-27
8.94005E-01 3.59306E-27
8.96677E-01 3.48264E-27
8.99318E-01 3.37469E-27
9.01928E-01 3.26916E-27
9.04508E-01 3.16601E-27
9.07058E-01 3.06518E-27
9.09576E-01 2.96664E-27
9.12063E-01 2.87033E-27
9.14519E-01 2.77622E-27
9.16943E-01 2.68427E-27
9.19335E-01 2.59443E-27
9.21696E-01 2.50666E-27
9.24024E-01 2.42093E-27
9.26320E-01 2.33720E-27
9.28584E-01 2.25544E-27
9.30815E-01 2.17560E-27
9.33013E-01 2.09765E-27
9.35178E-01 2.02157E-27
9.37310E-01 1.94731E-27
9.39409E-01 1.87485E-27
9.41474E-01 1.80416E-27
9.43505E-01 1.73520E-27
9.45503E-01 1.66795E-27
9.47467E-01 1.60238E-27
9.49397E-01 1.53846E-27
9.51293E-01 1.47617E-27
9.53154E-01 1.41547E-27
9.54981E-01 1.35635E-27
9.56773E-01 1.29878E-27
9.58530E-01 1.24273E-27
9.60252E-01 1.18819E-27
9.61940E-01 1.13513E-27
9.63592E-01 1.08353E-27
9.65209E-01 1.03336E-27
9.66790E-01 9.84619E-28
9.68336E-01 9.37271E-28
9.69846E-01 8.91303E-28
9.71321E-01 8.46695E-28
9.72759E-01 8.03430E-28
9.74162E-01 7.61491E-28
9.75528E-01 7.20860E-28
9.76858E-01 6.81522E-28
9.78152E-01 6.43460E-28
9.79410E-01 6.06661E-28
9.80631E-01 5.71108E-28
9.81815E-01 5.36789E-28
9.82963E-01 5.03690E-28
9.84074E-01 4.71797E-28
9.85148E-01 4.41098E-28
9.86185E-01 4.11582E-28
9.87185E-01 3.83235E-28
9.88148E-01 3.56049E-28
9.89074E-01 3.30011E-28
9.89962E-01 3.05112E-28
9.90814E-01 2.81342E-28
9.91627E-01 2.58692E-28
9.92404E-01 2.37153E-28
9.93143E-01 2.16716E-28
9.93844E-01 1.97374E-28
9.94508E-01 1.79120E-28
9.95134E-01 1.61946E-28
9.95722E-01 1.45845E-28
9.96273E-01 1.30812E-28
9.96786E-01 1.16841E-28
9.97261E-01 1.03926E-28
9.97698E-01 9.20620E-29
9.98097E-01 8.12451E-29
9.98459E-01 7.14707E-29
9.98782E-01 6.27353E-29
9.99067E-01 5.50354E-29
9.99315E-01 4.83681E-29
9.99524E-01 4.27309E-29
9.99695E-01 3.81215E-29
9.99829E-01 3.45383E-29
9.99924E-01 3.19798E-29
9.99981E-01 3.04452E-29
1.00000E+00 2.99335E-29
