 #
 # Subroutine ELSEPA. Elastic scattering of electrons and positrons
 #                    by neutral atoms and positive ions
 #
 # Projectile: electron
 # Kinetic energy = 2.50000E+08 eV = 9.18733E+06 a.u.
 #
 # WARNING: High-energy factorization with free-atom DF screening.
 #          Absorption, polarization and exchange corrections are
 #          switched off.
 #          Phase shifts are calculated for the bare nucleus.
 #          Scattering amplitudes are not evaluated.
 #
 # Element: Fe,  Z =  26,  atomic weight = 5.58450E+01 g/mol
 #
 # Nuclear model: Fermi distribution
 #                Average radius = 4.08989E-13 cm
 #                Skin thickness = 5.46000E-14 cm
 #
 # Number of electrons = 26
 #
 # Total elastic cross section = 1.95970E-18 cm**2 = 6.99822E-02 a0**2
 # 1st transport cross section = 2.24018E-26 cm**2 = 7.99983E-10 a0**2
 # 2nd transport cross section = 6.70788E-26 cm**2 = 2.39543E-09 a0**2
 #
 #
 # Differential cross section:                       MU=(1-COS(THETA))/2
 #
 #  THETA        MU          DCS          DCS        Sherman      error
 #  (deg)                 (cm**2/sr)   (a0**2/sr)    function
 #----------------------------------------------------------------------
0.00000E+00 1.22118E-09
7.61557E-13 1.19863E-09
1.18994E-12 1.18624E-09
1.71346E-12 1.17139E-09
2.33225E-12 1.15421E-09
3.04617E-12 1.13490E-09
3.85530E-12 1.11360E-09
4.75964E-12 1.09054E-09
5.75917E-12 1.06608E-09
6.85391E-12 1.04012E-09
8.04379E-12 1.01325E-09
9.32893E-12 9.85307E-10
1.07092E-11 9.56843E-10
1.21847E-11 9.27782E-10
1.37554E-11 8.98495E-10
1.54213E-11 8.69073E-10
1.71823E-11 8.39654E-10
1.90386E-11 8.10509E-10
2.09900E-11 7.81540E-10
2.30367E-11 7.53183E-10
2.51785E-11 7.25127E-10
2.74156E-11 6.97897E-10
2.97478E-11 6.71142E-10
3.21752E-11 6.45280E-10
3.46979E-11 6.20093E-10
3.73157E-11 5.95784E-10
4.00286E-11 5.72289E-10
4.28368E-11 5.49635E-10
4.57402E-11 5.27878E-10
4.87388E-11 5.06913E-10
5.18325E-11 4.86882E-10
5.50215E-11 4.67585E-10
5.83057E-11 4.49217E-10
6.16850E-11 4.31539E-10
6.51595E-11 4.14727E-10
6.87293E-11 3.98609E-10
7.23943E-11 3.83259E-10
7.61544E-11 3.68592E-10
1.18991E-10 2.54487E-10
1.71347E-10 1.82480E-10
2.33223E-10 1.35205E-10
3.04617E-10 1.02617E-10
3.85531E-10 7.88160E-11
4.75965E-10 6.11331E-11
5.75917E-10 4.89084E-11
6.85389E-10 3.85331E-11
8.04380E-10 3.11389E-11
9.32891E-10 2.49910E-11
1.07092E-09 2.03544E-11
1.21847E-09 1.66137E-11
1.37554E-09 1.36655E-11
1.54213E-09 1.13188E-11
1.71823E-09 9.41957E-12
1.90386E-09 7.90734E-12
2.09900E-09 6.66419E-12
2.30367E-09 5.66537E-12
2.51785E-09 4.83574E-12
2.74156E-09 4.15928E-12
2.97478E-09 3.59433E-12
3.21752E-09 3.12569E-12
3.46978E-09 2.73178E-12
3.73156E-09 2.40001E-12
4.00286E-09 2.11855E-12
4.28368E-09 1.87844E-12
4.57402E-09 1.67278E-12
4.87388E-09 1.49523E-12
5.18326E-09 1.34184E-12
5.50215E-09 1.20786E-12
5.83057E-09 1.09124E-12
6.16850E-09 9.88291E-13
6.51596E-09 8.97947E-13
6.87293E-09 8.17672E-13
7.23942E-09 7.46565E-13
7.61544E-09 6.83073E-13
1.18991E-08 3.09542E-13
1.71347E-08 1.58869E-13
2.33223E-08 8.88831E-14
3.04617E-08 5.32166E-14
3.85531E-08 3.36755E-14
4.75965E-08 2.23255E-14
5.75917E-08 1.53817E-14
6.85389E-08 1.09454E-14
8.04380E-08 8.00383E-15
9.32891E-08 5.99053E-15
1.07092E-07 4.57386E-15
1.21847E-07 3.55332E-15
1.37554E-07 2.80278E-15
1.54213E-07 2.24064E-15
1.71823E-07 1.81275E-15
1.90386E-07 1.48234E-15
2.09900E-07 1.22389E-15
2.30367E-07 1.01932E-15
2.51785E-07 8.55725E-16
2.74156E-07 7.23638E-16
2.97478E-07 6.16050E-16
3.21752E-07 5.27707E-16
3.46978E-07 4.54623E-16
3.73156E-07 3.93744E-16
4.00286E-07 3.42701E-16
4.28368E-07 2.99652E-16
4.57402E-07 2.63145E-16
4.87388E-07 2.32023E-16
5.18325E-07 2.05362E-16
5.50215E-07 1.82416E-16
5.83057E-07 1.62582E-16
6.16850E-07 1.45368E-16
6.51596E-07 1.30369E-16
6.87293E-07 1.17252E-16
7.23942E-07 1.05743E-16
7.61543E-07 9.56099E-17
1.18991E-06 3.92997E-17
1.71347E-06 1.89850E-17
2.33223E-06 1.02575E-17
3.04617E-06 6.01639E-18
3.85531E-06 3.75757E-18
4.75964E-06 2.46612E-18
5.75916E-06 1.68482E-18
6.85388E-06 1.18985E-18
8.04378E-06 8.64021E-19
9.32888E-06 6.42479E-19
1.07092E-05 4.87612E-19
1.21846E-05 3.76725E-19
1.37553E-05 2.95645E-19
1.54212E-05 2.35253E-19
1.71822E-05 1.89526E-19
1.90385E-05 1.54386E-19
2.09899E-05 1.27042E-19
2.30365E-05 1.05491E-19
2.51783E-05 8.83182E-20
2.74153E-05 7.44999E-20
2.97475E-05 6.32807E-20
3.21749E-05 5.40968E-20
3.46974E-05 4.65213E-20
3.73152E-05 4.02281E-20
4.00281E-05 3.49650E-20
4.28362E-05 3.05356E-20
4.57395E-05 2.67861E-20
4.87380E-05 2.35947E-20
5.18317E-05 2.08646E-20
5.50205E-05 1.85180E-20
5.83045E-05 1.64923E-20
6.16838E-05 1.47363E-20
6.51582E-05 1.32082E-20
6.87277E-05 1.18733E-20
7.23925E-05 1.07029E-20
7.61524E-05 9.66492E-21
9.21439E-05 6.60252E-21
1.09658E-04 4.66244E-21
1.28695E-04 3.38544E-21
1.49255E-04 2.51705E-21
1.71338E-04 1.91005E-21
1.94942E-04 1.47539E-21
2.20070E-04 1.15758E-21
2.46720E-04 9.20861E-22
2.74892E-04 7.41623E-22
3.04586E-04 6.03911E-22
3.35803E-04 4.96691E-22
3.68542E-04 4.12214E-22
4.02802E-04 3.44928E-22
4.38585E-04 2.90803E-22
4.75889E-04 2.46869E-22
5.14715E-04 2.10907E-22
5.55063E-04 1.81245E-22
5.96931E-04 1.56603E-22
6.40321E-04 1.35998E-22
6.85233E-04 1.18660E-22
7.31665E-04 1.03989E-22
7.79618E-04 9.15069E-23
8.29092E-04 8.08341E-23
8.80086E-04 7.16652E-23
9.32601E-04 6.37532E-23
9.86636E-04 5.68971E-23
1.04219E-03 5.09327E-23
1.09927E-03 4.57244E-23
1.15786E-03 4.11604E-23
1.21797E-03 3.71475E-23
1.27961E-03 3.36080E-23
1.34276E-03 3.04765E-23
1.40743E-03 2.76981E-23
1.47362E-03 2.52261E-23
1.54133E-03 2.30210E-23
1.61056E-03 2.10490E-23
1.68131E-03 1.92814E-23
1.75357E-03 1.76932E-23
1.82735E-03 1.62631E-23
1.90265E-03 1.49728E-23
1.97947E-03 1.38061E-23
2.05780E-03 1.27493E-23
2.13765E-03 1.17901E-23
2.21902E-03 1.09181E-23
2.30190E-03 1.01238E-23
2.38630E-03 9.39927E-24
2.47222E-03 8.73723E-24
2.55965E-03 8.13138E-24
2.64859E-03 7.57613E-24
2.73905E-03 7.06652E-24
2.83103E-03 6.59816E-24
2.92452E-03 6.16712E-24
3.01952E-03 5.76993E-24
3.11604E-03 5.40347E-24
3.21407E-03 5.06494E-24
3.31362E-03 4.75186E-24
3.41468E-03 4.46199E-24
3.51725E-03 4.19330E-24
3.62133E-03 3.94398E-24
3.72692E-03 3.71240E-24
3.83403E-03 3.49708E-24
3.94265E-03 3.29669E-24
4.05278E-03 3.11000E-24
4.16442E-03 2.93593E-24
4.27757E-03 2.77347E-24
4.39223E-03 2.62172E-24
4.50840E-03 2.47986E-24
4.62608E-03 2.34713E-24
4.74527E-03 2.22283E-24
4.86597E-03 2.10636E-24
4.98817E-03 1.99712E-24
5.11188E-03 1.89461E-24
5.23711E-03 1.79832E-24
5.36383E-03 1.70782E-24
5.49207E-03 1.62271E-24
5.62181E-03 1.54261E-24
5.75306E-03 1.46718E-24
5.88581E-03 1.39610E-24
6.02007E-03 1.32907E-24
6.15583E-03 1.26583E-24
6.29310E-03 1.20613E-24
6.43187E-03 1.14973E-24
6.57214E-03 1.09643E-24
6.71392E-03 1.04603E-24
6.85720E-03 9.98342E-25
7.00198E-03 9.53197E-25
7.14827E-03 9.10439E-25
7.29605E-03 8.69920E-25
7.44534E-03 8.31505E-25
7.59612E-03 7.95067E-25
7.97965E-03 7.11867E-25
8.37255E-03 6.38671E-25
8.77480E-03 5.74104E-25
9.18641E-03 5.17004E-25
9.60736E-03 4.66385E-25
1.00376E-02 4.21407E-25
1.04773E-02 3.81356E-25
1.09262E-02 3.45617E-25
1.13844E-02 3.13662E-25
1.18520E-02 2.85037E-25
1.23288E-02 2.59349E-25
1.28150E-02 2.36256E-25
1.33104E-02 2.15463E-25
1.38150E-02 1.96711E-25
1.43290E-02 1.79774E-25
1.48521E-02 1.64455E-25
1.53845E-02 1.50580E-25
1.59262E-02 1.37997E-25
1.64770E-02 1.26571E-25
1.70371E-02 1.16183E-25
1.76063E-02 1.06728E-25
1.81848E-02 9.81129E-26
1.87724E-02 9.02547E-26
1.93692E-02 8.30797E-26
1.99751E-02 7.65221E-26
2.05901E-02 7.05232E-26
2.12143E-02 6.50307E-26
2.18476E-02 5.99975E-26
2.24900E-02 5.53815E-26
2.31415E-02 5.11447E-26
2.38021E-02 4.72531E-26
2.44717E-02 4.36760E-26
2.51504E-02 4.03859E-26
2.58382E-02 3.73576E-26
2.65349E-02 3.45686E-26
2.72407E-02 3.19984E-26
2.79555E-02 2.96286E-26
2.86793E-02 2.74423E-26
2.94120E-02 2.54243E-26
3.01537E-02 2.35607E-26
3.09043E-02 2.18388E-26
3.16639E-02 2.02472E-26
3.24324E-02 1.87753E-26
3.32098E-02 1.74137E-26
3.39961E-02 1.61535E-26
3.47912E-02 1.49868E-26
3.55952E-02 1.39063E-26
3.64081E-02 1.29052E-26
3.72297E-02 1.19775E-26
3.80602E-02 1.11175E-26
3.88995E-02 1.03201E-26
3.97476E-02 9.58043E-27
4.06044E-02 8.89425E-27
4.14700E-02 8.25751E-27
4.23443E-02 7.66654E-27
4.32273E-02 7.11793E-27
4.41190E-02 6.60857E-27
4.50194E-02 6.13555E-27
4.59284E-02 5.69623E-27
4.68461E-02 5.28816E-27
4.87074E-02 4.55683E-27
5.06030E-02 3.92541E-27
5.25328E-02 3.38011E-27
5.44967E-02 2.90910E-27
5.64946E-02 2.50222E-27
5.85262E-02 2.15075E-27
6.05914E-02 1.84718E-27
6.26901E-02 1.58505E-27
6.48222E-02 1.35878E-27
6.69873E-02 1.16355E-27
6.91854E-02 9.95184E-28
7.14163E-02 8.50084E-28
7.36799E-02 7.25128E-28
7.59760E-02 6.17610E-28
7.83043E-02 5.25186E-28
8.06647E-02 4.45823E-28
8.30571E-02 3.77756E-28
8.54812E-02 3.19454E-28
8.79369E-02 2.69589E-28
9.04240E-02 2.27008E-28
9.29422E-02 1.90709E-28
9.54915E-02 1.59824E-28
9.80716E-02 1.33599E-28
1.00682E-01 1.11381E-28
1.03323E-01 9.26027E-29
1.05995E-01 7.67741E-29
1.08696E-01 6.34699E-29
1.11427E-01 5.23224E-29
1.14188E-01 4.30138E-29
1.16978E-01 3.52697E-29
1.19797E-01 2.88535E-29
1.22645E-01 2.35612E-29
1.25522E-01 1.92177E-29
1.28428E-01 1.56723E-29
1.31361E-01 1.27960E-29
1.34323E-01 1.04782E-29
1.37313E-01 8.62493E-30
1.40330E-01 7.15573E-30
1.43375E-01 6.00246E-30
1.46447E-01 5.10738E-30
1.49545E-01 4.42177E-30
1.52671E-01 3.90462E-30
1.55823E-01 3.52161E-30
1.59001E-01 3.24413E-30
1.62205E-01 3.04842E-30
1.65435E-01 2.91491E-30
1.68690E-01 2.82760E-30
1.71970E-01 2.77346E-30
1.75276E-01 2.74202E-30
1.78606E-01 2.72495E-30
1.81961E-01 2.71574E-30
1.85340E-01 2.70934E-30
1.88743E-01 2.70198E-30
1.92169E-01 2.69088E-30
1.95619E-01 2.67413E-30
1.99092E-01 2.65049E-30
2.02589E-01 2.61925E-30
2.06107E-01 2.58015E-30
2.09649E-01 2.53326E-30
2.13212E-01 2.47891E-30
2.16797E-01 2.41760E-30
2.20404E-01 2.34998E-30
2.24032E-01 2.27678E-30
2.27680E-01 2.19879E-30
2.31350E-01 2.11682E-30
2.35040E-01 2.03167E-30
2.38751E-01 1.94413E-30
2.42481E-01 1.85495E-30
2.46231E-01 1.76484E-30
2.50000E-01 1.67446E-30
2.53788E-01 1.58440E-30
2.57595E-01 1.49522E-30
2.61421E-01 1.40740E-30
2.65264E-01 1.32136E-30
2.69126E-01 1.23747E-30
2.73005E-01 1.15605E-30
2.76901E-01 1.07736E-30
2.80814E-01 1.00160E-30
2.84744E-01 9.28945E-31
2.88691E-01 8.59513E-31
2.92653E-01 7.93391E-31
2.96632E-01 7.30627E-31
3.00625E-01 6.71240E-31
3.04634E-01 6.15220E-31
3.08658E-01 5.62533E-31
3.12697E-01 5.13126E-31
3.16749E-01 4.66925E-31
3.20816E-01 4.23843E-31
3.24896E-01 3.83780E-31
3.28990E-01 3.46625E-31
3.33097E-01 3.12261E-31
3.37216E-01 2.80563E-31
3.41348E-01 2.51402E-31
3.45492E-01 2.24649E-31
3.49647E-01 2.00171E-31
3.53814E-01 1.77837E-31
3.57992E-01 1.57515E-31
3.62181E-01 1.39077E-31
3.66381E-01 1.22397E-31
3.70590E-01 1.07353E-31
3.74810E-01 9.38265E-32
3.79039E-01 8.17031E-32
3.83277E-01 7.08739E-32
3.87524E-01 6.12346E-32
3.91780E-01 5.26861E-32
3.96044E-01 4.51348E-32
4.00316E-01 3.84920E-32
4.04596E-01 3.26746E-32
4.08882E-01 2.76046E-32
4.13176E-01 2.32091E-32
4.17476E-01 1.94205E-32
4.21783E-01 1.61756E-32
4.26095E-01 1.34164E-32
4.30413E-01 1.10892E-32
4.34737E-01 9.14449E-33
4.39065E-01 7.53713E-33
4.43398E-01 6.22576E-33
4.47736E-01 5.17271E-33
4.52077E-01 4.34382E-33
4.56422E-01 3.70817E-33
4.60770E-01 3.23789E-33
4.65122E-01 2.90794E-33
4.69476E-01 2.69594E-33
4.73832E-01 2.58192E-33
4.78190E-01 2.54820E-33
4.82550E-01 2.57913E-33
4.86912E-01 2.66098E-33
4.91274E-01 2.78177E-33
4.95637E-01 2.93106E-33
5.00000E-01 3.09989E-33
5.04363E-01 3.28056E-33
5.08726E-01 3.46657E-33
5.13088E-01 3.65244E-33
5.17450E-01 3.83366E-33
5.21810E-01 4.00652E-33
5.26168E-01 4.16807E-33
5.30524E-01 4.31602E-33
5.34878E-01 4.44864E-33
5.39230E-01 4.56470E-33
5.43578E-01 4.66341E-33
5.47923E-01 4.74434E-33
5.52264E-01 4.80739E-33
5.56602E-01 4.85271E-33
5.60935E-01 4.88070E-33
5.65263E-01 4.89190E-33
5.69587E-01 4.88705E-33
5.73905E-01 4.86696E-33
5.78217E-01 4.83255E-33
5.82524E-01 4.78481E-33
5.86824E-01 4.72476E-33
5.91118E-01 4.65344E-33
5.95404E-01 4.57193E-33
5.99684E-01 4.48127E-33
6.03956E-01 4.38249E-33
6.08220E-01 4.27663E-33
6.12476E-01 4.16464E-33
6.16723E-01 4.04748E-33
6.20961E-01 3.92604E-33
6.25190E-01 3.80118E-33
6.29410E-01 3.67368E-33
6.33619E-01 3.54431E-33
6.37819E-01 3.41376E-33
6.42008E-01 3.28267E-33
6.46186E-01 3.15162E-33
6.50353E-01 3.02117E-33
6.54508E-01 2.89179E-33
6.58652E-01 2.76393E-33
6.62784E-01 2.63797E-33
6.66903E-01 2.51427E-33
6.71010E-01 2.39312E-33
6.75104E-01 2.27479E-33
6.79184E-01 2.15950E-33
6.83251E-01 2.04744E-33
6.87303E-01 1.93877E-33
6.91342E-01 1.83361E-33
6.95366E-01 1.73204E-33
6.99375E-01 1.63415E-33
7.03368E-01 1.53998E-33
7.07347E-01 1.44954E-33
7.11309E-01 1.36284E-33
7.15256E-01 1.27987E-33
7.19186E-01 1.20059E-33
7.23099E-01 1.12496E-33
7.26995E-01 1.05293E-33
7.30874E-01 9.84409E-34
7.34736E-01 9.19336E-34
7.38579E-01 8.57622E-34
7.42405E-01 7.99173E-34
7.46212E-01 7.43892E-34
7.50000E-01 6.91678E-34
7.53769E-01 6.42422E-34
7.57519E-01 5.96019E-34
7.61249E-01 5.52358E-34
7.64960E-01 5.11328E-34
7.68650E-01 4.72818E-34
7.72320E-01 4.36718E-34
7.75968E-01 4.02919E-34
7.79596E-01 3.71311E-34
7.83203E-01 3.41787E-34
7.86788E-01 3.14245E-34
7.90351E-01 2.88580E-34
7.93893E-01 2.64694E-34
7.97411E-01 2.42490E-34
8.00908E-01 2.21875E-34
8.04381E-01 2.02757E-34
8.07831E-01 1.85049E-34
8.11257E-01 1.68667E-34
8.14660E-01 1.53531E-34
8.18039E-01 1.39563E-34
8.21394E-01 1.26689E-34
8.24724E-01 1.14839E-34
8.28030E-01 1.03945E-34
8.31310E-01 9.39429E-35
8.34565E-01 8.47727E-35
8.37795E-01 7.63767E-35
8.40999E-01 6.86999E-35
8.44177E-01 6.16911E-35
8.47329E-01 5.53014E-35
8.50455E-01 4.94853E-35
8.53553E-01 4.41992E-35
8.56625E-01 3.94029E-35
8.59670E-01 3.50581E-35
8.62687E-01 3.11292E-35
8.65677E-01 2.75828E-35
8.68639E-01 2.43879E-35
8.71572E-01 2.15151E-35
8.74478E-01 1.89373E-35
8.77355E-01 1.66293E-35
8.80203E-01 1.45675E-35
8.83022E-01 1.27301E-35
8.85812E-01 1.10970E-35
8.88573E-01 9.64929E-36
8.91304E-01 8.36968E-36
8.94005E-01 7.24214E-36
8.96677E-01 6.25201E-36
8.99318E-01 5.38561E-36
9.01928E-01 4.63044E-36
9.04508E-01 3.97508E-36
9.07058E-01 3.40900E-36
9.09576E-01 2.92261E-36
9.12063E-01 2.50704E-36
9.14519E-01 2.15432E-36
9.16943E-01 1.85707E-36
9.19335E-01 1.60875E-36
9.21696E-01 1.40329E-36
9.24024E-01 1.23525E-36
9.26320E-01 1.09970E-36
9.28584E-01 9.92156E-37
9.30815E-01 9.08712E-37
9.33013E-01 8.45725E-37
9.35178E-01 8.00041E-37
9.37310E-01 7.68779E-37
9.39409E-01 7.49402E-37
9.41474E-01 7.39688E-37
9.43505E-01 7.37615E-37
9.45503E-01 7.41477E-37
9.47467E-01 7.49760E-37
9.49397E-01 7.61123E-37
9.51293E-01 7.74434E-37
9.53154E-01 7.88727E-37
9.54981E-01 8.03164E-37
9.56773E-01 8.17052E-37
9.58530E-01 8.29805E-37
9.60252E-01 8.40963E-37
9.61940E-01 8.50140E-37
9.63592E-01 8.57054E-37
9.65209E-01 8.61476E-37
9.66790E-01 8.63258E-37
9.68336E-01 8.62315E-37
9.69846E-01 8.58598E-37
9.71321E-01 8.52101E-37
9.72759E-01 8.42875E-37
9.74162E-01 8.30980E-37
9.75528E-01 8.16533E-37
9.76858E-01 7.99652E-37
9.78152E-01 7.80466E-37
9.79410E-01 7.59140E-37
9.80631E-01 7.35869E-37
9.81815E-01 7.10803E-37
9.82963E-01 6.84134E-37
9.84074E-01 6.56088E-37
9.85148E-01 6.26813E-37
9.86185E-01 5.96533E-37
9.87185E-01 5.65465E-37
9.88148E-01 5.33769E-37
9.89074E-01 5.01671E-37
9.89962E-01 4.69328E-37
9.90814E-01 4.36953E-37
9.91627E-01 4.04708E-37
9.92404E-01 3.72788E-37
9.93143E-01 3.41338E-37
9.93844E-01 3.10532E-37
9.94508E-01 2.80506E-37
9.95134E-01 2.51428E-37
9.95722E-01 2.23431E-37
9.96273E-01 1.96606E-37
9.96786E-01 1.71134E-37
9.97261E-01 1.47094E-37
9.97698E-01 1.24591E-37
9.98097E-01 1.03709E-37
9.98459E-01 8.45657E-38
9.98782E-01 6.72348E-38
9.99067E-01 5.17682E-38
9.99315E-01 3.82369E-38
9.99524E-01 2.66951E-38
9.99695E-01 1.71951E-38
9.99829E-01 9.76064E-39
9.99924E-01 4.43661E-39
9.99981E-01 1.22897E-39
1.00000E+00 1.72461E-40
