 #
 # Subroutine ELSEPA. Elastic scattering of electrons and positrons
 #                    by neutral atoms and positive ions
 #
 # Projectile: electron
 # Kinetic energy = 4.00000E+08 eV = 1.46997E+07 a.u.
 #
 # WARNING: High-energy factorization with free-atom DF screening.
 #          Absorption, polarization and exchange corrections are
 #          switched off.
 #          Phase shifts are calculated for the bare nucleus.
 #          Scattering amplitudes are not evaluated.
 #
 # Element: Fe,  Z =  26,  atomic weight = 5.58450E+01 g/mol
 #
 # Nuclear model: Fermi distribution
 #                Average radius = 4.08989E-13 cm
 #                Skin thickness = 5.46000E-14 cm
 #
 # Number of electrons = 26
 #
 # Total elastic cross section = 1.95847E-18 cm**2 = 6.99382E-02 a0**2
 # 1st transport cross section = 8.76278E-27 cm**2 = 3.12925E-10 a0**2
 # 2nd transport cross section = 2.62684E-26 cm**2 = 9.38062E-10 a0**2
 #
 #
 # Differential cross section:                       MU=(1-COS(THETA))/2
 #
 #  THETA        MU          DCS          DCS        Sherman      error
 #  (deg)                 (cm**2/sr)   (a0**2/sr)    function
 #----------------------------------------------------------------------
0.00000E+00 3.12144E-09
7.61557E-13 2.97750E-09
1.18994E-12 2.90121E-09
1.71346E-12 2.81198E-09
2.33225E-12 2.71250E-09
3.04617E-12 2.60453E-09
3.85530E-12 2.49033E-09
4.75964E-12 2.37240E-09
5.75917E-12 2.25275E-09
6.85391E-12 2.13240E-09
8.04379E-12 2.01353E-09
9.32893E-12 1.89750E-09
1.07092E-11 1.78514E-09
1.21847E-11 1.67683E-09
1.37554E-11 1.57369E-09
1.54213E-11 1.47602E-09
1.71823E-11 1.38376E-09
1.90386E-11 1.29699E-09
2.09900E-11 1.21589E-09
2.30367E-11 1.14027E-09
2.51785E-11 1.06969E-09
2.74156E-11 1.00410E-09
2.97478E-11 9.43272E-10
3.21752E-11 8.86892E-10
3.46979E-11 8.34476E-10
3.73157E-11 7.85948E-10
4.00286E-11 7.41011E-10
4.28368E-11 6.99317E-10
4.57402E-11 6.60567E-10
4.87388E-11 6.24631E-10
5.18325E-11 5.91280E-10
5.50215E-11 5.60188E-10
5.83057E-11 5.31225E-10
6.16850E-11 5.04262E-10
6.51595E-11 4.79135E-10
6.87293E-11 4.55550E-10
7.23943E-11 4.33513E-10
7.61544E-11 4.12902E-10
1.18991E-10 2.62723E-10
1.71347E-10 1.72555E-10
2.33223E-10 1.19182E-10
3.04617E-10 8.30698E-11
3.85531E-10 5.88478E-11
4.75965E-10 4.25712E-11
5.75917E-10 3.13233E-11
6.85389E-10 2.33003E-11
8.04380E-10 1.76607E-11
9.32891E-10 1.36163E-11
1.07092E-09 1.06601E-11
1.21847E-09 8.46524E-12
1.37554E-09 6.81964E-12
1.54213E-09 5.56534E-12
1.71823E-09 4.59423E-12
1.90386E-09 3.83218E-12
2.09900E-09 3.22724E-12
2.30367E-09 2.74127E-12
2.51785E-09 2.34528E-12
2.74156E-09 2.02002E-12
2.97478E-09 1.75067E-12
3.21752E-09 1.52563E-12
3.46978E-09 1.33535E-12
3.73156E-09 1.17412E-12
4.00286E-09 1.03666E-12
4.28368E-09 9.18587E-13
4.57402E-09 8.16548E-13
4.87388E-09 7.28273E-13
5.18326E-09 6.51553E-13
5.50215E-09 5.84375E-13
5.83057E-09 5.25476E-13
6.16850E-09 4.73736E-13
6.51596E-09 4.28125E-13
6.87293E-09 3.87642E-13
7.23942E-09 3.51774E-13
7.61544E-09 3.19906E-13
1.18991E-08 1.36424E-13
1.71347E-08 6.71362E-14
2.33223E-08 3.67510E-14
3.04617E-08 2.18003E-14
3.85531E-08 1.37543E-14
4.75965E-08 9.10916E-15
5.75917E-08 6.27285E-15
6.85389E-08 4.46022E-15
8.04380E-08 3.25759E-15
9.32891E-08 2.43419E-15
1.07092E-07 1.85507E-15
1.21847E-07 1.43819E-15
1.37554E-07 1.13195E-15
1.54213E-07 9.02908E-16
1.71823E-07 7.28892E-16
1.90386E-07 5.94788E-16
2.09900E-07 4.90110E-16
2.30367E-07 4.07446E-16
2.51785E-07 3.41474E-16
2.74156E-07 2.88310E-16
2.97478E-07 2.45089E-16
3.21752E-07 2.09663E-16
3.46978E-07 1.80405E-16
3.73156E-07 1.56072E-16
4.00286E-07 1.35703E-16
4.28368E-07 1.18548E-16
4.57402E-07 1.04018E-16
4.87388E-07 9.16452E-17
5.18325E-07 8.10576E-17
5.50215E-07 7.19547E-17
5.83057E-07 6.40937E-17
6.16850E-07 5.72768E-17
6.51596E-07 5.13421E-17
6.87293E-07 4.61562E-17
7.23942E-07 4.16085E-17
7.61543E-07 3.76071E-17
1.18991E-06 1.54201E-17
1.71347E-06 7.44048E-18
2.33223E-06 4.01757E-18
3.04617E-06 2.35562E-18
3.85531E-06 1.47090E-18
4.75964E-06 9.65221E-19
5.75916E-06 6.59362E-19
6.85388E-06 4.65621E-19
8.04378E-06 3.38099E-19
9.32888E-06 2.51398E-19
1.07092E-05 1.90794E-19
1.21846E-05 1.47403E-19
1.37553E-05 1.15676E-19
1.54212E-05 9.20454E-20
1.71822E-05 7.41533E-20
1.90385E-05 6.04039E-20
2.09899E-05 4.97051E-20
2.30365E-05 4.12728E-20
2.51783E-05 3.45540E-20
2.74153E-05 2.91475E-20
2.97475E-05 2.47580E-20
3.21749E-05 2.11647E-20
3.46974E-05 1.82009E-20
3.73152E-05 1.57387E-20
4.00281E-05 1.36795E-20
4.28362E-05 1.19466E-20
4.57395E-05 1.04796E-20
4.87380E-05 9.23101E-21
5.18317E-05 8.16288E-21
5.50205E-05 7.24483E-21
5.83045E-05 6.45230E-21
6.16838E-05 5.76530E-21
6.51582E-05 5.16742E-21
6.87277E-05 4.64515E-21
7.23925E-05 4.18729E-21
7.61524E-05 3.77284E-21
9.21439E-05 2.57584E-21
1.09658E-04 1.81773E-21
1.28695E-04 1.31888E-21
1.49255E-04 9.79764E-22
1.71338E-04 7.42815E-22
1.94942E-04 5.73214E-22
2.20070E-04 4.49260E-22
2.46720E-04 3.56982E-22
2.74892E-04 2.87148E-22
3.04586E-04 2.33523E-22
3.35803E-04 1.91798E-22
3.68542E-04 1.58944E-22
4.02802E-04 1.32795E-22
4.38585E-04 1.11776E-22
4.75889E-04 9.47274E-23
5.14715E-04 8.07842E-23
5.55063E-04 6.92935E-23
5.96931E-04 5.97563E-23
6.40321E-04 5.17887E-23
6.85233E-04 4.50916E-23
7.31665E-04 3.94301E-23
7.79618E-04 3.46188E-23
8.29092E-04 3.05094E-23
8.80086E-04 2.69833E-23
9.32601E-04 2.39442E-23
9.86636E-04 2.13140E-23
1.04219E-03 1.90289E-23
1.09927E-03 1.70362E-23
1.15786E-03 1.52924E-23
1.21797E-03 1.37615E-23
1.27961E-03 1.24131E-23
1.34276E-03 1.12220E-23
1.40743E-03 1.01669E-23
1.47362E-03 9.22968E-24
1.54133E-03 8.39506E-24
1.61056E-03 7.64999E-24
1.68131E-03 6.98329E-24
1.75357E-03 6.38539E-24
1.82735E-03 5.84804E-24
1.90265E-03 5.36411E-24
1.97947E-03 4.92745E-24
2.05780E-03 4.53268E-24
2.13765E-03 4.17515E-24
2.21902E-03 3.85078E-24
2.30190E-03 3.55601E-24
2.38630E-03 3.28770E-24
2.47222E-03 3.04310E-24
2.55965E-03 2.81979E-24
2.64859E-03 2.61562E-24
2.73905E-03 2.42869E-24
2.83103E-03 2.25733E-24
2.92452E-03 2.10002E-24
3.01952E-03 1.95545E-24
3.11604E-03 1.82241E-24
3.21407E-03 1.69986E-24
3.31362E-03 1.58683E-24
3.41468E-03 1.48248E-24
3.51725E-03 1.38603E-24
3.62133E-03 1.29681E-24
3.72692E-03 1.21418E-24
3.83403E-03 1.13759E-24
3.94265E-03 1.06653E-24
4.05278E-03 1.00054E-24
4.16442E-03 9.39211E-25
4.27757E-03 8.82164E-25
4.39223E-03 8.29058E-25
4.50840E-03 7.79581E-25
4.62608E-03 7.33450E-25
4.74527E-03 6.90407E-25
4.86597E-03 6.50217E-25
4.98817E-03 6.12664E-25
5.11188E-03 5.77552E-25
5.23711E-03 5.44700E-25
5.36383E-03 5.13944E-25
5.49207E-03 4.85131E-25
5.62181E-03 4.58124E-25
5.75306E-03 4.32793E-25
5.88581E-03 4.09022E-25
6.02007E-03 3.86701E-25
6.15583E-03 3.65732E-25
6.29310E-03 3.46022E-25
6.43187E-03 3.27486E-25
6.57214E-03 3.10045E-25
6.71392E-03 2.93628E-25
6.85720E-03 2.78166E-25
7.00198E-03 2.63597E-25
7.14827E-03 2.49864E-25
7.29605E-03 2.36914E-25
7.44534E-03 2.24696E-25
7.59612E-03 2.13164E-25
7.97965E-03 1.87063E-25
8.37255E-03 1.64401E-25
8.77480E-03 1.44679E-25
9.18641E-03 1.27482E-25
9.60736E-03 1.12457E-25
1.00376E-02 9.93055E-26
1.04773E-02 8.77754E-26
1.09262E-02 7.76508E-26
1.13844E-02 6.87473E-26
1.18520E-02 6.09072E-26
1.23288E-02 5.39947E-26
1.28150E-02 4.78929E-26
1.33104E-02 4.25011E-26
1.38150E-02 3.77319E-26
1.43290E-02 3.35095E-26
1.48521E-02 2.97682E-26
1.53845E-02 2.64506E-26
1.59262E-02 2.35067E-26
1.64770E-02 2.08928E-26
1.70371E-02 1.85706E-26
1.76063E-02 1.65066E-26
1.81848E-02 1.46712E-26
1.87724E-02 1.30386E-26
1.93692E-02 1.15859E-26
1.99751E-02 1.02930E-26
2.05901E-02 9.14201E-27
2.12143E-02 8.11727E-27
2.18476E-02 7.20485E-27
2.24900E-02 6.39242E-27
2.31415E-02 5.66902E-27
2.38021E-02 5.02497E-27
2.44717E-02 4.45162E-27
2.51504E-02 3.94131E-27
2.58382E-02 3.48721E-27
2.65349E-02 3.08326E-27
2.72407E-02 2.72402E-27
2.79555E-02 2.40469E-27
2.86793E-02 2.12095E-27
2.94120E-02 1.86896E-27
3.01537E-02 1.64530E-27
3.09043E-02 1.44691E-27
3.16639E-02 1.27104E-27
3.24324E-02 1.11526E-27
3.32098E-02 9.77381E-28
3.39961E-02 8.55452E-28
3.47912E-02 7.47729E-28
3.55952E-02 6.52652E-28
3.64081E-02 5.68827E-28
3.72297E-02 4.95007E-28
3.80602E-02 4.30080E-28
3.88995E-02 3.73048E-28
3.97476E-02 3.23023E-28
4.06044E-02 2.79211E-28
4.14700E-02 2.40902E-28
4.23443E-02 2.07463E-28
4.32273E-02 1.78328E-28
4.41190E-02 1.52995E-28
4.50194E-02 1.31013E-28
4.59284E-02 1.11984E-28
4.68461E-02 9.55499E-29
4.87074E-02 6.92384E-29
5.06030E-02 4.99462E-29
5.25328E-02 3.59952E-29
5.44967E-02 2.60706E-29
5.64946E-02 1.91479E-29
5.85262E-02 1.44335E-29
6.05914E-02 1.13173E-29
6.26901E-02 9.33419E-30
6.48222E-02 8.13336E-30
6.69873E-02 7.45344E-30
6.91854E-02 7.10277E-30
7.14163E-02 6.94349E-30
7.36799E-02 6.87900E-30
7.59760E-02 6.84394E-30
7.83043E-02 6.79633E-30
8.06647E-02 6.71141E-30
8.30571E-02 6.57678E-30
8.54812E-02 6.38874E-30
8.79369E-02 6.14946E-30
9.04240E-02 5.86479E-30
9.29422E-02 5.54270E-30
9.54915E-02 5.19215E-30
9.80716E-02 4.82222E-30
1.00682E-01 4.44160E-30
1.03323E-01 4.05819E-30
1.05995E-01 3.67892E-30
1.08696E-01 3.30964E-30
1.11427E-01 2.95509E-30
1.14188E-01 2.61896E-30
1.16978E-01 2.30397E-30
1.19797E-01 2.01191E-30
1.22645E-01 1.74382E-30
1.25522E-01 1.50007E-30
1.28428E-01 1.28046E-30
1.31361E-01 1.08435E-30
1.34323E-01 9.10747E-31
1.37313E-01 7.58404E-31
1.40330E-01 6.25878E-31
1.43375E-01 5.11613E-31
1.46447E-01 4.13993E-31
1.49545E-01 3.31387E-31
1.52671E-01 2.62190E-31
1.55823E-01 2.04852E-31
1.59001E-01 1.57900E-31
1.62205E-01 1.19952E-31
1.65435E-01 8.97346E-32
1.68690E-01 6.60808E-32
1.71970E-01 4.79385E-32
1.75276E-01 3.43671E-32
1.78606E-01 2.45354E-32
1.81961E-01 1.77162E-32
1.85340E-01 1.32803E-32
1.88743E-01 1.06896E-32
1.92169E-01 9.48909E-33
1.95619E-01 9.29895E-33
1.99092E-01 9.80674E-33
2.02589E-01 1.07595E-32
2.06107E-01 1.19564E-32
2.09649E-01 1.32415E-32
2.13212E-01 1.44973E-32
2.16797E-01 1.56386E-32
2.20404E-01 1.66074E-32
2.24032E-01 1.73673E-32
2.27680E-01 1.79002E-32
2.31350E-01 1.82014E-32
2.35040E-01 1.82771E-32
2.38751E-01 1.81413E-32
2.42481E-01 1.78136E-32
2.46231E-01 1.73170E-32
2.50000E-01 1.66766E-32
2.53788E-01 1.59179E-32
2.57595E-01 1.50663E-32
2.61421E-01 1.41461E-32
2.65264E-01 1.31798E-32
2.69126E-01 1.21880E-32
2.73005E-01 1.11890E-32
2.76901E-01 1.01988E-32
2.80814E-01 9.23082E-33
2.84744E-01 8.29632E-33
2.88691E-01 7.40426E-33
2.92653E-01 6.56154E-33
2.96632E-01 5.77314E-33
3.00625E-01 5.04235E-33
3.04634E-01 4.37095E-33
3.08658E-01 3.75944E-33
3.12697E-01 3.20720E-33
3.16749E-01 2.71271E-33
3.20816E-01 2.27371E-33
3.24896E-01 1.88740E-33
3.28990E-01 1.55051E-33
3.33097E-01 1.25952E-33
3.37216E-01 1.01071E-33
3.41348E-01 8.00306E-34
3.45492E-01 6.24506E-34
3.49647E-01 4.79604E-34
3.53814E-01 3.62017E-34
3.57992E-01 2.68332E-34
3.62181E-01 1.95342E-34
3.66381E-01 1.40065E-34
3.70590E-01 9.97582E-35
3.74810E-01 7.19297E-35
3.79039E-01 5.43339E-35
3.83277E-01 4.49709E-35
3.87524E-01 4.20776E-35
3.91780E-01 4.41174E-35
3.96044E-01 4.97661E-35
4.00316E-01 5.78976E-35
4.04596E-01 6.75678E-35
4.08882E-01 7.79981E-35
4.13176E-01 8.85587E-35
4.17476E-01 9.87523E-35
4.21783E-01 1.08198E-34
4.26095E-01 1.16617E-34
4.30413E-01 1.23817E-34
4.34737E-01 1.29679E-34
4.39065E-01 1.34147E-34
4.43398E-01 1.37215E-34
4.47736E-01 1.38916E-34
4.52077E-01 1.39318E-34
4.56422E-01 1.38509E-34
4.60770E-01 1.36598E-34
4.65122E-01 1.33701E-34
4.69476E-01 1.29943E-34
4.73832E-01 1.25450E-34
4.78190E-01 1.20349E-34
4.82550E-01 1.14760E-34
4.86912E-01 1.08798E-34
4.91274E-01 1.02572E-34
4.95637E-01 9.61800E-35
5.00000E-01 8.97125E-35
5.04363E-01 8.32496E-35
5.08726E-01 7.68611E-35
5.13088E-01 7.06078E-35
5.17450E-01 6.45406E-35
5.21810E-01 5.87015E-35
5.26168E-01 5.31244E-35
5.30524E-01 4.78352E-35
5.34878E-01 4.28525E-35
5.39230E-01 3.81889E-35
5.43578E-01 3.38512E-35
5.47923E-01 2.98409E-35
5.52264E-01 2.61556E-35
5.56602E-01 2.27890E-35
5.60935E-01 1.97319E-35
5.65263E-01 1.69724E-35
5.69587E-01 1.44968E-35
5.73905E-01 1.22899E-35
5.78217E-01 1.03355E-35
5.82524E-01 8.61648E-36
5.86824E-01 7.11557E-36
5.91118E-01 5.81534E-36
5.95404E-01 4.69861E-36
5.99684E-01 3.74844E-36
6.03956E-01 2.94862E-36
6.08220E-01 2.28341E-36
6.12476E-01 1.73802E-36
6.16723E-01 1.29840E-36
6.20961E-01 9.51470E-37
6.25190E-01 6.85055E-37
6.29410E-01 4.87980E-37
6.33619E-01 3.49941E-37
6.37819E-01 2.61629E-37
6.42008E-01 2.14635E-37
6.46186E-01 2.01417E-37
6.50353E-01 2.15240E-37
6.54508E-01 2.50206E-37
6.58652E-01 3.01117E-37
6.62784E-01 3.63473E-37
6.66903E-01 4.33407E-37
6.71010E-01 5.07631E-37
6.75104E-01 5.83386E-37
6.79184E-01 6.58389E-37
6.83251E-01 7.30780E-37
6.87303E-01 7.99092E-37
6.91342E-01 8.62184E-37
6.95366E-01 9.19214E-37
6.99375E-01 9.69599E-37
7.03368E-01 1.01297E-36
7.07347E-01 1.04917E-36
7.11309E-01 1.07815E-36
7.15256E-01 1.10006E-36
7.19186E-01 1.11510E-36
7.23099E-01 1.12358E-36
7.26995E-01 1.12587E-36
7.30874E-01 1.12239E-36
7.34736E-01 1.11361E-36
7.38579E-01 1.10000E-36
7.42405E-01 1.08204E-36
7.46212E-01 1.06022E-36
7.50000E-01 1.03504E-36
7.53769E-01 1.00694E-36
7.57519E-01 9.76388E-37
7.61249E-01 9.43809E-37
7.64960E-01 9.09608E-37
7.68650E-01 8.74159E-37
7.72320E-01 8.37816E-37
7.75968E-01 8.00895E-37
7.79596E-01 7.63688E-37
7.83203E-01 7.26447E-37
7.86788E-01 6.89428E-37
7.90351E-01 6.52822E-37
7.93893E-01 6.16811E-37
7.97411E-01 5.81551E-37
8.00908E-01 5.47184E-37
8.04381E-01 5.13811E-37
8.07831E-01 4.81532E-37
8.11257E-01 4.50410E-37
8.14660E-01 4.20512E-37
8.18039E-01 3.91867E-37
8.21394E-01 3.64514E-37
8.24724E-01 3.38464E-37
8.28030E-01 3.13728E-37
8.31310E-01 2.90289E-37
8.34565E-01 2.68138E-37
8.37795E-01 2.47262E-37
8.40999E-01 2.27621E-37
8.44177E-01 2.09189E-37
8.47329E-01 1.91928E-37
8.50455E-01 1.75801E-37
8.53553E-01 1.60758E-37
8.56625E-01 1.46760E-37
8.59670E-01 1.33754E-37
8.62687E-01 1.21698E-37
8.65677E-01 1.10537E-37
8.68639E-01 1.00233E-37
8.71572E-01 9.07292E-38
8.74478E-01 8.19825E-38
8.77355E-01 7.39474E-38
8.80203E-01 6.65776E-38
8.83022E-01 5.98285E-38
8.85812E-01 5.36643E-38
8.88573E-01 4.80392E-38
8.91304E-01 4.29174E-38
8.94005E-01 3.82611E-38
8.96677E-01 3.40384E-38
8.99318E-01 3.02142E-38
9.01928E-01 2.67568E-38
9.04508E-01 2.36392E-38
9.07058E-01 2.08335E-38
9.09576E-01 1.83146E-38
9.12063E-01 1.60563E-38
9.14519E-01 1.40377E-38
9.16943E-01 1.22353E-38
9.19335E-01 1.06326E-38
9.21696E-01 9.20955E-39
9.24024E-01 7.95004E-39
9.26320E-01 6.83800E-39
9.28584E-01 5.85770E-39
9.30815E-01 4.99841E-39
9.33013E-01 4.24563E-39
9.35178E-01 3.59017E-39
9.37310E-01 3.02046E-39
9.39409E-01 2.52706E-39
9.41474E-01 2.10253E-39
9.43505E-01 1.73705E-39
9.45503E-01 1.42515E-39
9.47467E-01 1.16084E-39
9.49397E-01 9.37198E-40
9.51293E-01 7.49450E-40
9.53154E-01 5.93677E-40
9.54981E-01 4.65305E-40
9.56773E-01 3.60776E-40
9.58530E-01 2.76601E-40
9.60252E-01 2.09620E-40
9.61940E-01 1.00000E-45
9.63592E-01 1.00000E-45
9.65209E-01 1.00000E-45
9.66790E-01 1.00000E-45
9.68336E-01 1.00000E-45
9.69846E-01 1.00000E-45
9.71321E-01 1.00000E-45
9.72759E-01 1.00000E-45
9.74162E-01 1.00000E-45
9.75528E-01 1.00000E-45
9.76858E-01 1.00000E-45
9.78152E-01 1.00000E-45
9.79410E-01 1.00000E-45
9.80631E-01 1.00000E-45
9.81815E-01 1.00000E-45
9.82963E-01 1.00000E-45
9.84074E-01 1.00000E-45
9.85148E-01 1.00000E-45
9.86185E-01 1.00000E-45
9.87185E-01 1.00000E-45
9.88148E-01 1.00000E-45
9.89074E-01 1.00000E-45
9.89962E-01 1.00000E-45
9.90814E-01 1.00000E-45
9.91627E-01 1.00000E-45
9.92404E-01 1.00000E-45
9.93143E-01 1.00000E-45
9.93844E-01 1.00000E-45
9.94508E-01 1.00000E-45
9.95134E-01 1.00000E-45
9.95722E-01 1.00000E-45
9.96273E-01 1.00000E-45
9.96786E-01 1.00000E-45
9.97261E-01 1.00000E-45
9.97698E-01 1.00000E-45
9.98097E-01 1.00000E-45
9.98459E-01 1.00000E-45
9.98782E-01 1.00000E-45
9.99067E-01 1.00000E-45
9.99315E-01 1.00000E-45
9.99524E-01 1.00000E-45
9.99695E-01 1.00000E-45
9.99829E-01 1.00000E-45
9.99924E-01 1.00000E-45
9.99981E-01 1.00000E-45
1.00000E+00 1.00000E-45
