 #
 # Subroutine ELSEPA. Elastic scattering of electrons and positrons
 #                    by neutral atoms and positive ions
 #
 # Projectile: electron
 # Kinetic energy = 9.00000E+07 eV = 3.30744E+06 a.u.
 #
 # WARNING: High-energy factorization with free-atom DF screening.
 #          Absorption, polarization and exchange corrections are
 #          switched off.
 #          Phase shifts are calculated for the bare nucleus.
 #          Scattering amplitudes are not evaluated.
 #
 # Element: Fe,  Z =  26,  atomic weight = 5.58450E+01 g/mol
 #
 # Nuclear model: Fermi distribution
 #                Average radius = 4.08989E-13 cm
 #                Skin thickness = 5.46000E-14 cm
 #
 # Number of electrons = 26
 #
 # Total elastic cross section = 1.95944E-18 cm**2 = 6.99728E-02 a0**2
 # 1st transport cross section = 1.70724E-25 cm**2 = 6.09665E-09 a0**2
 # 2nd transport cross section = 5.06229E-25 cm**2 = 1.80778E-08 a0**2
 #
 #
 # Differential cross section:                       MU=(1-COS(THETA))/2
 #
 #  THETA        MU          DCS          DCS        Sherman      error
 #  (deg)                 (cm**2/sr)   (a0**2/sr)    function
 #----------------------------------------------------------------------
0.00000E+00 1.59415E-10
7.61557E-13 1.59025E-10
1.18994E-12 1.58806E-10
1.71346E-12 1.58540E-10
2.33225E-12 1.58227E-10
3.04617E-12 1.57866E-10
3.85530E-12 1.57459E-10
4.75964E-12 1.57006E-10
5.75917E-12 1.56508E-10
6.85391E-12 1.55966E-10
8.04379E-12 1.55379E-10
9.32893E-12 1.54750E-10
1.07092E-11 1.54079E-10
1.21847E-11 1.53367E-10
1.37554E-11 1.52614E-10
1.54213E-11 1.51823E-10
1.71823E-11 1.50993E-10
1.90386E-11 1.50127E-10
2.09900E-11 1.49225E-10
2.30367E-11 1.48288E-10
2.51785E-11 1.47318E-10
2.74156E-11 1.46315E-10
2.97478E-11 1.45277E-10
3.21752E-11 1.44209E-10
3.46979E-11 1.43116E-10
3.73157E-11 1.41998E-10
4.00286E-11 1.40857E-10
4.28368E-11 1.39695E-10
4.57402E-11 1.38501E-10
4.87388E-11 1.37281E-10
5.18325E-11 1.36045E-10
5.50215E-11 1.34793E-10
5.83057E-11 1.33527E-10
6.16850E-11 1.32248E-10
6.51595E-11 1.30943E-10
6.87293E-11 1.29621E-10
7.23943E-11 1.28289E-10
7.61544E-11 1.26950E-10
1.18991E-10 1.13200E-10
1.71347E-10 9.95082E-11
2.33223E-10 8.66172E-11
3.04617E-10 7.49987E-11
3.85531E-10 6.48086E-11
4.75965E-10 5.60425E-11
5.75917E-10 4.86019E-11
6.85389E-10 4.23160E-11
8.04380E-10 3.70183E-11
9.32891E-10 3.25522E-11
1.07092E-09 2.87661E-11
1.21847E-09 2.55443E-11
1.37554E-09 2.27891E-11
1.54213E-09 2.04105E-11
1.71823E-09 1.83497E-11
1.90386E-09 1.65538E-11
2.09900E-09 1.49734E-11
2.30367E-09 1.35810E-11
2.51785E-09 1.23473E-11
2.74156E-09 1.12460E-11
2.97478E-09 1.01984E-11
3.21752E-09 9.26950E-12
3.46978E-09 8.46520E-12
3.73156E-09 7.76547E-12
4.00286E-09 7.15391E-12
4.28368E-09 6.61705E-12
4.57402E-09 6.07359E-12
4.87388E-09 5.56601E-12
5.18326E-09 5.11877E-12
5.50215E-09 4.72321E-12
5.83057E-09 4.37213E-12
6.16850E-09 4.05945E-12
6.51596E-09 3.75125E-12
6.87293E-09 3.46003E-12
7.23942E-09 3.19981E-12
7.61544E-09 2.96664E-12
1.18991E-08 1.45956E-12
1.71347E-08 7.78795E-13
2.33223E-08 4.50245E-13
3.04617E-08 2.79857E-13
3.85531E-08 1.84500E-13
4.75965E-08 1.27401E-13
5.75917E-08 9.12254E-14
6.85389E-08 6.71652E-14
8.04380E-08 5.05538E-14
9.32891E-08 3.87645E-14
1.07092E-07 3.01771E-14
1.21847E-07 2.38094E-14
1.37554E-07 1.90112E-14
1.54213E-07 1.53384E-14
1.71823E-07 1.24986E-14
1.90386E-07 1.02784E-14
2.09900E-07 8.52295E-15
2.30367E-07 7.12344E-15
2.51785E-07 5.99735E-15
2.74156E-07 5.08351E-15
2.97478E-07 4.33544E-15
3.21752E-07 3.72085E-15
3.46978E-07 3.21176E-15
3.73156E-07 2.78610E-15
4.00286E-07 2.42945E-15
4.28368E-07 2.12762E-15
4.57402E-07 1.87162E-15
4.87388E-07 1.65311E-15
5.18325E-07 1.46563E-15
5.50215E-07 1.30426E-15
5.83057E-07 1.16438E-15
6.16850E-07 1.04297E-15
6.51596E-07 9.36993E-16
6.87293E-07 8.44204E-16
7.23942E-07 7.62714E-16
7.61543E-07 6.90788E-16
1.18991E-06 2.88499E-16
1.71347E-06 1.41067E-16
2.33223E-06 7.68710E-17
3.04617E-06 4.53543E-17
3.85531E-06 2.84420E-17
4.75964E-06 1.87202E-17
5.75916E-06 1.28156E-17
6.85388E-06 9.06411E-18
8.04378E-06 6.58929E-18
9.32888E-06 4.90383E-18
1.07092E-05 3.72416E-18
1.21846E-05 2.87869E-18
1.37553E-05 2.26001E-18
1.54212E-05 1.79892E-18
1.71822E-05 1.44962E-18
1.90385E-05 1.18109E-18
2.09899E-05 9.72071E-19
2.30365E-05 8.07283E-19
2.51783E-05 6.75949E-19
2.74153E-05 5.70247E-19
2.97475E-05 4.84414E-19
3.21749E-05 4.14141E-19
3.46974E-05 3.56170E-19
3.73152E-05 3.08006E-19
4.00281E-05 2.67722E-19
4.28362E-05 2.33817E-19
4.57395E-05 2.05114E-19
4.87380E-05 1.80682E-19
5.18317E-05 1.59780E-19
5.50205E-05 1.41814E-19
5.83045E-05 1.26304E-19
6.16838E-05 1.12858E-19
6.51582E-05 1.01157E-19
6.87277E-05 9.09347E-20
7.23925E-05 8.19729E-20
7.61524E-05 7.40873E-20
9.21439E-05 5.06282E-20
1.09658E-04 3.57639E-20
1.28695E-04 2.59782E-20
1.49255E-04 1.93225E-20
1.71338E-04 1.46694E-20
1.94942E-04 1.13367E-20
2.20070E-04 8.89938E-21
2.46720E-04 7.08358E-21
2.74892E-04 5.70832E-21
3.04586E-04 4.65140E-21
3.35803E-04 3.82825E-21
3.68542E-04 3.17951E-21
4.02802E-04 2.66262E-21
4.38585E-04 2.24668E-21
4.75889E-04 1.90893E-21
5.14715E-04 1.63236E-21
5.55063E-04 1.40415E-21
5.96931E-04 1.21448E-21
6.40321E-04 1.05579E-21
6.85233E-04 9.22218E-22
7.31665E-04 8.09125E-22
7.79618E-04 7.12859E-22
8.29092E-04 6.30499E-22
8.80086E-04 5.59704E-22
9.32601E-04 4.98578E-22
9.86636E-04 4.45576E-22
1.04219E-03 3.99438E-22
1.09927E-03 3.59122E-22
1.15786E-03 3.23768E-22
1.21797E-03 2.92662E-22
1.27961E-03 2.65204E-22
1.34276E-03 2.40893E-22
1.40743E-03 2.19306E-22
1.47362E-03 2.00084E-22
1.54133E-03 1.82923E-22
1.61056E-03 1.67563E-22
1.68131E-03 1.53782E-22
1.75357E-03 1.41390E-22
1.82735E-03 1.30221E-22
1.90265E-03 1.20133E-22
1.97947E-03 1.11003E-22
2.05780E-03 1.02724E-22
2.13765E-03 9.52024E-23
2.21902E-03 8.83567E-23
2.30190E-03 8.21150E-23
2.38630E-03 7.64147E-23
2.47222E-03 7.12002E-23
2.55965E-03 6.64227E-23
2.64859E-03 6.20390E-23
2.73905E-03 5.80107E-23
2.83103E-03 5.43038E-23
2.92452E-03 5.08881E-23
3.01952E-03 4.77364E-23
3.11604E-03 4.48247E-23
3.21407E-03 4.21314E-23
3.31362E-03 3.96370E-23
3.41468E-03 3.73243E-23
3.51725E-03 3.51775E-23
3.62133E-03 3.31827E-23
3.72692E-03 3.13270E-23
3.83403E-03 2.95989E-23
3.94265E-03 2.79881E-23
4.05278E-03 2.64852E-23
4.16442E-03 2.50816E-23
4.27757E-03 2.37696E-23
4.39223E-03 2.25420E-23
4.50840E-03 2.13924E-23
4.62608E-03 2.03149E-23
4.74527E-03 1.93043E-23
4.86597E-03 1.83555E-23
4.98817E-03 1.74641E-23
5.11188E-03 1.66260E-23
5.23711E-03 1.58374E-23
5.36383E-03 1.50948E-23
5.49207E-03 1.43951E-23
5.62181E-03 1.37353E-23
5.75306E-03 1.31127E-23
5.88581E-03 1.25248E-23
6.02007E-03 1.19694E-23
6.15583E-03 1.14442E-23
6.29310E-03 1.09475E-23
6.43187E-03 1.04772E-23
6.57214E-03 1.00318E-23
6.71392E-03 9.60969E-24
6.85720E-03 9.20942E-24
7.00198E-03 8.82967E-24
7.14827E-03 8.46917E-24
7.29605E-03 8.12677E-24
7.44534E-03 7.80139E-24
7.59612E-03 7.49204E-24
7.97965E-03 6.78273E-24
8.37255E-03 6.15486E-24
8.77480E-03 5.59749E-24
9.18641E-03 5.10133E-24
9.60736E-03 4.65851E-24
1.00376E-02 4.26230E-24
1.04773E-02 3.90695E-24
1.09262E-02 3.58752E-24
1.13844E-02 3.29975E-24
1.18520E-02 3.03995E-24
1.23288E-02 2.80493E-24
1.28150E-02 2.59193E-24
1.33104E-02 2.39851E-24
1.38150E-02 2.22256E-24
1.43290E-02 2.06224E-24
1.48521E-02 1.91590E-24
1.53845E-02 1.78213E-24
1.59262E-02 1.65964E-24
1.64770E-02 1.54733E-24
1.70371E-02 1.44419E-24
1.76063E-02 1.34935E-24
1.81848E-02 1.26203E-24
1.87724E-02 1.18153E-24
1.93692E-02 1.10721E-24
1.99751E-02 1.03852E-24
2.05901E-02 9.74966E-25
2.12143E-02 9.16091E-25
2.18476E-02 8.61491E-25
2.24900E-02 8.10802E-25
2.31415E-02 7.63695E-25
2.38021E-02 7.19873E-25
2.44717E-02 6.79068E-25
2.51504E-02 6.41035E-25
2.58382E-02 6.05554E-25
2.65349E-02 5.72423E-25
2.72407E-02 5.41461E-25
2.79555E-02 5.12501E-25
2.86793E-02 4.85391E-25
2.94120E-02 4.59992E-25
3.01537E-02 4.36179E-25
3.09043E-02 4.13834E-25
3.16639E-02 3.92853E-25
3.24324E-02 3.73137E-25
3.32098E-02 3.54597E-25
3.39961E-02 3.37152E-25
3.47912E-02 3.20726E-25
3.55952E-02 3.05248E-25
3.64081E-02 2.90656E-25
3.72297E-02 2.76889E-25
3.80602E-02 2.63894E-25
3.88995E-02 2.51619E-25
3.97476E-02 2.40019E-25
4.06044E-02 2.29050E-25
4.14700E-02 2.18671E-25
4.23443E-02 2.08846E-25
4.32273E-02 1.99541E-25
4.41190E-02 1.90723E-25
4.50194E-02 1.82363E-25
4.59284E-02 1.74432E-25
4.68461E-02 1.66906E-25
4.87074E-02 1.52972E-25
5.06030E-02 1.40388E-25
5.25328E-02 1.29003E-25
5.44967E-02 1.18686E-25
5.64946E-02 1.09321E-25
5.85262E-02 1.00808E-25
6.05914E-02 9.30572E-26
6.26901E-02 8.59905E-26
6.48222E-02 7.95388E-26
6.69873E-02 7.36408E-26
6.91854E-02 6.82421E-26
7.14163E-02 6.32943E-26
7.36799E-02 5.87546E-26
7.59760E-02 5.45844E-26
7.83043E-02 5.07496E-26
8.06647E-02 4.72195E-26
8.30571E-02 4.39665E-26
8.54812E-02 4.09659E-26
8.79369E-02 3.81956E-26
9.04240E-02 3.56354E-26
9.29422E-02 3.32675E-26
9.54915E-02 3.10754E-26
9.80716E-02 2.90444E-26
1.00682E-01 2.71613E-26
1.03323E-01 2.54138E-26
1.05995E-01 2.37910E-26
1.08696E-01 2.22829E-26
1.11427E-01 2.08805E-26
1.14188E-01 1.95754E-26
1.16978E-01 1.83600E-26
1.19797E-01 1.72276E-26
1.22645E-01 1.61718E-26
1.25522E-01 1.51868E-26
1.28428E-01 1.42673E-26
1.31361E-01 1.34085E-26
1.34323E-01 1.26060E-26
1.37313E-01 1.18557E-26
1.40330E-01 1.11538E-26
1.43375E-01 1.04969E-26
1.46447E-01 9.88179E-27
1.49545E-01 9.30557E-27
1.52671E-01 8.76553E-27
1.55823E-01 8.25918E-27
1.59001E-01 7.78422E-27
1.62205E-01 7.33852E-27
1.65435E-01 6.92011E-27
1.68690E-01 6.52717E-27
1.71970E-01 6.15801E-27
1.75276E-01 5.81107E-27
1.78606E-01 5.48489E-27
1.81961E-01 5.17814E-27
1.85340E-01 4.88955E-27
1.88743E-01 4.61797E-27
1.92169E-01 4.36231E-27
1.95619E-01 4.12158E-27
1.99092E-01 3.89482E-27
2.02589E-01 3.68117E-27
2.06107E-01 3.47983E-27
2.09649E-01 3.29002E-27
2.13212E-01 3.11104E-27
2.16797E-01 2.94224E-27
2.20404E-01 2.78299E-27
2.24032E-01 2.63272E-27
2.27680E-01 2.49090E-27
2.31350E-01 2.35701E-27
2.35040E-01 2.23059E-27
2.38751E-01 2.11119E-27
2.42481E-01 1.99841E-27
2.46231E-01 1.89186E-27
2.50000E-01 1.79117E-27
2.53788E-01 1.69601E-27
2.57595E-01 1.60605E-27
2.61421E-01 1.52100E-27
2.65264E-01 1.44058E-27
2.69126E-01 1.36452E-27
2.73005E-01 1.29257E-27
2.76901E-01 1.22451E-27
2.80814E-01 1.16011E-27
2.84744E-01 1.09918E-27
2.88691E-01 1.04150E-27
2.92653E-01 9.86917E-28
2.96632E-01 9.35242E-28
3.00625E-01 8.86319E-28
3.04634E-01 8.39996E-28
3.08658E-01 7.96130E-28
3.12697E-01 7.54587E-28
3.16749E-01 7.15240E-28
3.20816E-01 6.77969E-28
3.24896E-01 6.42662E-28
3.28990E-01 6.09212E-28
3.33097E-01 5.77520E-28
3.37216E-01 5.47489E-28
3.41348E-01 5.19032E-28
3.45492E-01 4.92064E-28
3.49647E-01 4.66505E-28
3.53814E-01 4.42279E-28
3.57992E-01 4.19317E-28
3.62181E-01 3.97551E-28
3.66381E-01 3.76917E-28
3.70590E-01 3.57356E-28
3.74810E-01 3.38811E-28
3.79039E-01 3.21229E-28
3.83277E-01 3.04558E-28
3.87524E-01 2.88751E-28
3.91780E-01 2.73763E-28
3.96044E-01 2.59551E-28
4.00316E-01 2.46074E-28
4.04596E-01 2.33294E-28
4.08882E-01 2.21174E-28
4.13176E-01 2.09681E-28
4.17476E-01 1.98781E-28
4.21783E-01 1.88444E-28
4.26095E-01 1.78641E-28
4.30413E-01 1.69344E-28
4.34737E-01 1.60526E-28
4.39065E-01 1.52163E-28
4.43398E-01 1.44232E-28
4.47736E-01 1.36710E-28
4.52077E-01 1.29577E-28
4.56422E-01 1.22811E-28
4.60770E-01 1.16394E-28
4.65122E-01 1.10309E-28
4.69476E-01 1.04538E-28
4.73832E-01 9.90647E-29
4.78190E-01 9.38742E-29
4.82550E-01 8.89518E-29
4.86912E-01 8.42839E-29
4.91274E-01 7.98572E-29
4.95637E-01 7.56596E-29
5.00000E-01 7.16792E-29
5.04363E-01 6.79048E-29
5.08726E-01 6.43260E-29
5.13088E-01 6.09326E-29
5.17450E-01 5.77152E-29
5.21810E-01 5.46648E-29
5.26168E-01 5.17728E-29
5.30524E-01 4.90310E-29
5.34878E-01 4.64318E-29
5.39230E-01 4.39679E-29
5.43578E-01 4.16323E-29
5.47923E-01 3.94184E-29
5.52264E-01 3.73200E-29
5.56602E-01 3.53312E-29
5.60935E-01 3.34463E-29
5.65263E-01 3.16600E-29
5.69587E-01 2.99672E-29
5.73905E-01 2.83632E-29
5.78217E-01 2.68433E-29
5.82524E-01 2.54032E-29
5.86824E-01 2.40388E-29
5.91118E-01 2.27463E-29
5.95404E-01 2.15218E-29
5.99684E-01 2.03619E-29
6.03956E-01 1.92633E-29
6.08220E-01 1.82227E-29
6.12476E-01 1.72373E-29
6.16723E-01 1.63041E-29
6.20961E-01 1.54204E-29
6.25190E-01 1.45836E-29
6.29410E-01 1.37914E-29
6.33619E-01 1.30414E-29
6.37819E-01 1.23313E-29
6.42008E-01 1.16593E-29
6.46186E-01 1.10231E-29
6.50353E-01 1.04211E-29
6.54508E-01 9.85128E-30
6.58652E-01 9.31211E-30
6.62784E-01 8.80194E-30
6.66903E-01 8.31925E-30
6.71010E-01 7.86260E-30
6.75104E-01 7.43062E-30
6.79184E-01 7.02201E-30
6.83251E-01 6.63554E-30
6.87303E-01 6.27004E-30
6.91342E-01 5.92441E-30
6.95366E-01 5.59758E-30
6.99375E-01 5.28857E-30
7.03368E-01 4.99642E-30
7.07347E-01 4.72025E-30
7.11309E-01 4.45920E-30
7.15256E-01 4.21246E-30
7.19186E-01 3.97927E-30
7.23099E-01 3.75891E-30
7.26995E-01 3.55068E-30
7.30874E-01 3.35394E-30
7.34736E-01 3.16807E-30
7.38579E-01 2.99248E-30
7.42405E-01 2.82661E-30
7.46212E-01 2.66995E-30
7.50000E-01 2.52199E-30
7.53769E-01 2.38226E-30
7.57519E-01 2.25031E-30
7.61249E-01 2.12572E-30
7.64960E-01 2.00809E-30
7.68650E-01 1.89704E-30
7.72320E-01 1.79220E-30
7.75968E-01 1.69324E-30
7.79596E-01 1.59983E-30
7.83203E-01 1.51167E-30
7.86788E-01 1.42846E-30
7.90351E-01 1.34993E-30
7.93893E-01 1.27583E-30
7.97411E-01 1.20590E-30
8.00908E-01 1.13991E-30
8.04381E-01 1.07765E-30
8.07831E-01 1.01891E-30
8.11257E-01 9.63480E-31
8.14660E-01 9.11185E-31
8.18039E-01 8.61845E-31
8.21394E-01 8.15294E-31
8.24724E-01 7.71374E-31
8.28030E-01 7.29937E-31
8.31310E-01 6.90840E-31
8.34565E-01 6.53951E-31
8.37795E-01 6.19145E-31
8.40999E-01 5.86302E-31
8.44177E-01 5.55309E-31
8.47329E-01 5.26061E-31
8.50455E-01 4.98457E-31
8.53553E-01 4.72403E-31
8.56625E-01 4.47809E-31
8.59670E-01 4.24591E-31
8.62687E-01 4.02668E-31
8.65677E-01 3.81967E-31
8.68639E-01 3.62415E-31
8.71572E-01 3.43946E-31
8.74478E-01 3.26497E-31
8.77355E-01 3.10008E-31
8.80203E-01 2.94423E-31
8.83022E-01 2.79689E-31
8.85812E-01 2.65756E-31
8.88573E-01 2.52577E-31
8.91304E-01 2.40108E-31
8.94005E-01 2.28307E-31
8.96677E-01 2.17135E-31
8.99318E-01 2.06555E-31
9.01928E-01 1.96531E-31
9.04508E-01 1.87032E-31
9.07058E-01 1.78025E-31
9.09576E-01 1.69483E-31
9.12063E-01 1.61378E-31
9.14519E-01 1.53685E-31
9.16943E-01 1.46378E-31
9.19335E-01 1.39436E-31
9.21696E-01 1.32837E-31
9.24024E-01 1.26562E-31
9.26320E-01 1.20590E-31
9.28584E-01 1.14906E-31
9.30815E-01 1.09492E-31
9.33013E-01 1.04333E-31
9.35178E-01 9.94140E-32
9.37310E-01 9.47217E-32
9.39409E-01 9.02433E-32
9.41474E-01 8.59667E-32
9.43505E-01 8.18807E-32
9.45503E-01 7.79750E-32
9.47467E-01 7.42395E-32
9.49397E-01 7.06653E-32
9.51293E-01 6.72436E-32
9.53154E-01 6.39664E-32
9.54981E-01 6.08263E-32
9.56773E-01 5.78162E-32
9.58530E-01 5.49296E-32
9.60252E-01 5.21604E-32
9.61940E-01 4.95029E-32
9.63592E-01 4.69518E-32
9.65209E-01 4.45021E-32
9.66790E-01 4.21493E-32
9.68336E-01 3.98891E-32
9.69846E-01 3.77174E-32
9.71321E-01 3.56306E-32
9.72759E-01 3.36252E-32
9.74162E-01 3.16980E-32
9.75528E-01 2.98460E-32
9.76858E-01 2.80666E-32
9.78152E-01 2.63571E-32
9.79410E-01 2.47152E-32
9.80631E-01 2.31387E-32
9.81815E-01 2.16255E-32
9.82963E-01 2.01738E-32
9.84074E-01 1.87818E-32
9.85148E-01 1.74480E-32
9.86185E-01 1.61709E-32
9.87185E-01 1.49491E-32
9.88148E-01 1.37814E-32
9.89074E-01 1.26665E-32
9.89962E-01 1.16036E-32
9.90814E-01 1.05915E-32
9.91627E-01 9.62945E-33
9.92404E-01 8.71657E-33
9.93143E-01 7.85212E-33
9.93844E-01 7.03543E-33
9.94508E-01 6.26588E-33
9.95134E-01 5.54290E-33
9.95722E-01 4.86598E-33
9.96273E-01 4.23466E-33
9.96786E-01 3.64850E-33
9.97261E-01 3.10714E-33
9.97698E-01 2.61023E-33
9.98097E-01 2.15747E-33
9.98459E-01 1.74860E-33
9.98782E-01 1.38336E-33
9.99067E-01 1.06157E-33
9.99315E-01 7.83025E-34
9.99524E-01 5.47589E-34
9.99695E-01 3.55128E-34
9.99829E-01 2.05542E-34
9.99924E-01 9.87501E-35
9.99981E-01 3.46960E-35
1.00000E+00 1.33533E-35
