 #
 # Subroutine ELSEPA. Elastic scattering of electrons and positrons
 #                    by neutral atoms and positive ions
 #
 # Projectile: electron
 # Kinetic energy = 2.00000E+07 eV = 7.34987E+05 a.u.
 #
 # WARNING: High-energy factorization with free-atom DF screening.
 #          Absorption, polarization and exchange corrections are
 #          switched off.
 #          Phase shifts are calculated for the bare nucleus.
 #          Scattering amplitudes are not evaluated.
 #
 # Element: Ar,  Z =  18,  atomic weight = 3.99480E+01 g/mol
 #
 # Nuclear model: Fermi distribution
 #                Average radius = 3.65776E-13 cm
 #                Skin thickness = 5.46000E-14 cm
 #
 # Number of electrons = 18
 #
 # Total elastic cross section = 1.14632E-18 cm**2 = 4.09360E-02 a0**2
 # 1st transport cross section = 1.45613E-24 cm**2 = 5.19995E-08 a0**2
 # 2nd transport cross section = 4.20495E-24 cm**2 = 1.50161E-07 a0**2
 #
 #
 # Differential cross section:                       MU=(1-COS(THETA))/2
 #
 #  THETA        MU          DCS          DCS        Sherman      error
 #  (deg)                 (cm**2/sr)   (a0**2/sr)    function
 #----------------------------------------------------------------------
0.00000E+00 3.36020E-12
7.61557E-13 3.36001E-12
1.18994E-12 3.35991E-12
1.71346E-12 3.35979E-12
2.33225E-12 3.35964E-12
3.04617E-12 3.35948E-12
3.85530E-12 3.35929E-12
4.75964E-12 3.35908E-12
5.75917E-12 3.35885E-12
6.85391E-12 3.35860E-12
8.04379E-12 3.35833E-12
9.32893E-12 3.35804E-12
1.07092E-11 3.35772E-12
1.21847E-11 3.35738E-12
1.37554E-11 3.35702E-12
1.54213E-11 3.35664E-12
1.71823E-11 3.35624E-12
1.90386E-11 3.35582E-12
2.09900E-11 3.35537E-12
2.30367E-11 3.35491E-12
2.51785E-11 3.35442E-12
2.74156E-11 3.35391E-12
2.97478E-11 3.35338E-12
3.21752E-11 3.35283E-12
3.46979E-11 3.35226E-12
3.73157E-11 3.35166E-12
4.00286E-11 3.35105E-12
4.28368E-11 3.35041E-12
4.57402E-11 3.34975E-12
4.87388E-11 3.34907E-12
5.18325E-11 3.34837E-12
5.50215E-11 3.34765E-12
5.83057E-11 3.34691E-12
6.16850E-11 3.34614E-12
6.51595E-11 3.34536E-12
6.87293E-11 3.34455E-12
7.23943E-11 3.34372E-12
7.61544E-11 3.34287E-12
1.18991E-10 3.33322E-12
1.71347E-10 3.32149E-12
2.33223E-10 3.30771E-12
3.04617E-10 3.29190E-12
3.85531E-10 3.27414E-12
4.75965E-10 3.25442E-12
5.75917E-10 3.23284E-12
6.85389E-10 3.20942E-12
8.04380E-10 3.18424E-12
9.32891E-10 3.15736E-12
1.07092E-09 3.12882E-12
1.21847E-09 3.09876E-12
1.37554E-09 3.06713E-12
1.54213E-09 3.03415E-12
1.71823E-09 2.99974E-12
1.90386E-09 2.96412E-12
2.09900E-09 2.92726E-12
2.30367E-09 2.88930E-12
2.51785E-09 2.85032E-12
2.74156E-09 2.81035E-12
2.97478E-09 2.76958E-12
3.21752E-09 2.72790E-12
3.46978E-09 2.68562E-12
3.73156E-09 2.64148E-12
4.00286E-09 2.59428E-12
4.28368E-09 2.54799E-12
4.57402E-09 2.50266E-12
4.87388E-09 2.45836E-12
5.18326E-09 2.41510E-12
5.50215E-09 2.37292E-12
5.83057E-09 2.32881E-12
6.16850E-09 2.27979E-12
6.51596E-09 2.23223E-12
6.87293E-09 2.18613E-12
7.23942E-09 2.14147E-12
7.61544E-09 2.09824E-12
1.18991E-08 1.66750E-12
1.71347E-08 1.29104E-12
2.33223E-08 9.86352E-13
3.04617E-08 7.44778E-13
3.85531E-08 5.63236E-13
4.75965E-08 4.25896E-13
5.75917E-08 3.24847E-13
6.85389E-08 2.49929E-13
8.04380E-08 1.94517E-13
9.32891E-08 1.53272E-13
1.07092E-07 1.22298E-13
1.21847E-07 9.88582E-14
1.37554E-07 8.08997E-14
1.54213E-07 6.69960E-14
1.71823E-07 5.60910E-14
1.90386E-07 4.74405E-14
2.09900E-07 4.04948E-14
2.30367E-07 3.48561E-14
2.51785E-07 3.02285E-14
2.74156E-07 2.63901E-14
2.97478E-07 2.31782E-14
3.21752E-07 2.04621E-14
3.46978E-07 1.81517E-14
3.73156E-07 1.61602E-14
4.00286E-07 1.44335E-14
4.28368E-07 1.29562E-14
4.57402E-07 1.16587E-14
4.87388E-07 1.05125E-14
5.18325E-07 9.51839E-15
5.50215E-07 8.62477E-15
5.83057E-07 7.83387E-15
6.16850E-07 7.14034E-15
6.51596E-07 6.50525E-15
6.87293E-07 5.94365E-15
7.23942E-07 5.44349E-15
7.61543E-07 4.98497E-15
1.18991E-06 2.24861E-15
1.71347E-06 1.13477E-15
2.33223E-06 6.28040E-16
3.04617E-06 3.74519E-16
3.85531E-06 2.37177E-16
4.75964E-06 1.57659E-16
5.75916E-06 1.09001E-16
6.85388E-06 7.78349E-17
8.04378E-06 5.70965E-17
9.32888E-06 4.28465E-17
1.07092E-05 3.27857E-17
1.21846E-05 2.55138E-17
1.37553E-05 2.01507E-17
1.54212E-05 1.61245E-17
1.71822E-05 1.30539E-17
1.90385E-05 1.06795E-17
2.09899E-05 8.82034E-18
2.30365E-05 7.34765E-18
2.51783E-05 6.16901E-18
2.74153E-05 5.21680E-18
2.97475E-05 4.44096E-18
3.21749E-05 3.80379E-18
3.46974E-05 3.27668E-18
3.73152E-05 2.83759E-18
4.00281E-05 2.46955E-18
4.28362E-05 2.15915E-18
4.57395E-05 1.89592E-18
4.87380E-05 1.67153E-18
5.18317E-05 1.47929E-18
5.50205E-05 1.31387E-18
5.83045E-05 1.17090E-18
6.16838E-05 1.04683E-18
6.51582E-05 9.38753E-19
6.87277E-05 8.44260E-19
7.23925E-05 7.61347E-19
7.61524E-05 6.88353E-19
9.21439E-05 4.70904E-19
1.09658E-04 3.32894E-19
1.28695E-04 2.41924E-19
1.49255E-04 1.80004E-19
1.71338E-04 1.36687E-19
1.94942E-04 1.05650E-19
2.20070E-04 8.29448E-20
2.46720E-04 6.60252E-20
2.74892E-04 5.32090E-20
3.04586E-04 4.33582E-20
3.35803E-04 3.56857E-20
3.68542E-04 2.96385E-20
4.02802E-04 2.48202E-20
4.38585E-04 2.09428E-20
4.75889E-04 1.77936E-20
5.14715E-04 1.52151E-20
5.55063E-04 1.30876E-20
5.96931E-04 1.13195E-20
6.40321E-04 9.84034E-21
6.85233E-04 8.59529E-21
7.31665E-04 7.54121E-21
7.79618E-04 6.64402E-21
8.29092E-04 5.87647E-21
8.80086E-04 5.21673E-21
9.32601E-04 4.64711E-21
9.86636E-04 4.15322E-21
1.04219E-03 3.72330E-21
1.09927E-03 3.34765E-21
1.15786E-03 3.01825E-21
1.21797E-03 2.72843E-21
1.27961E-03 2.47261E-21
1.34276E-03 2.24612E-21
1.40743E-03 2.04500E-21
1.47362E-03 1.86592E-21
1.54133E-03 1.70604E-21
1.61056E-03 1.56295E-21
1.68131E-03 1.43456E-21
1.75357E-03 1.31911E-21
1.82735E-03 1.21506E-21
1.90265E-03 1.12108E-21
1.97947E-03 1.03602E-21
2.05780E-03 9.58890E-22
2.13765E-03 8.88815E-22
2.21902E-03 8.25034E-22
2.30190E-03 7.66881E-22
2.38630E-03 7.13770E-22
2.47222E-03 6.65183E-22
2.55965E-03 6.20668E-22
2.64859E-03 5.79820E-22
2.73905E-03 5.42282E-22
2.83103E-03 5.07738E-22
2.92452E-03 4.75905E-22
3.01952E-03 4.46533E-22
3.11604E-03 4.19394E-22
3.21407E-03 3.94290E-22
3.31362E-03 3.71039E-22
3.41468E-03 3.49480E-22
3.51725E-03 3.29466E-22
3.62133E-03 3.10867E-22
3.72692E-03 2.93565E-22
3.83403E-03 2.77451E-22
3.94265E-03 2.62430E-22
4.05278E-03 2.48413E-22
4.16442E-03 2.35321E-22
4.27757E-03 2.23082E-22
4.39223E-03 2.11630E-22
4.50840E-03 2.00904E-22
4.62608E-03 1.90851E-22
4.74527E-03 1.81419E-22
4.86597E-03 1.72564E-22
4.98817E-03 1.64244E-22
5.11188E-03 1.56420E-22
5.23711E-03 1.49057E-22
5.36383E-03 1.42123E-22
5.49207E-03 1.35588E-22
5.62181E-03 1.29426E-22
5.75306E-03 1.23610E-22
5.88581E-03 1.18118E-22
6.02007E-03 1.12927E-22
6.15583E-03 1.08020E-22
6.29310E-03 1.03376E-22
6.43187E-03 9.89801E-23
6.57214E-03 9.48156E-23
6.71392E-03 9.08682E-23
6.85720E-03 8.71245E-23
7.00198E-03 8.35719E-23
7.14827E-03 8.01989E-23
7.29605E-03 7.69947E-23
7.44534E-03 7.39492E-23
7.59612E-03 7.10530E-23
7.97965E-03 6.44104E-23
8.37255E-03 5.85275E-23
8.77480E-03 5.33022E-23
9.18641E-03 4.86483E-23
9.60736E-03 4.44921E-23
1.00376E-02 4.07712E-23
1.04773E-02 3.74319E-23
1.09262E-02 3.44282E-23
1.13844E-02 3.17202E-23
1.18520E-02 2.92738E-23
1.23288E-02 2.70591E-23
1.28150E-02 2.50502E-23
1.33104E-02 2.32246E-23
1.38150E-02 2.15626E-23
1.43290E-02 2.00469E-23
1.48521E-02 1.86622E-23
1.53845E-02 1.73952E-23
1.59262E-02 1.62341E-23
1.64770E-02 1.51684E-23
1.70371E-02 1.41888E-23
1.76063E-02 1.32871E-23
1.81848E-02 1.24560E-23
1.87724E-02 1.16890E-23
1.93692E-02 1.09802E-23
1.99751E-02 1.03243E-23
2.05901E-02 9.71679E-24
2.12143E-02 9.15331E-24
2.18476E-02 8.63013E-24
2.24900E-02 8.14383E-24
2.31415E-02 7.69134E-24
2.38021E-02 7.26985E-24
2.44717E-02 6.87687E-24
2.51504E-02 6.51010E-24
2.58382E-02 6.16747E-24
2.65349E-02 5.84709E-24
2.72407E-02 5.54725E-24
2.79555E-02 5.26640E-24
2.86793E-02 5.00310E-24
2.94120E-02 4.75605E-24
3.01537E-02 4.52406E-24
3.09043E-02 4.30604E-24
3.16639E-02 4.10100E-24
3.24324E-02 3.90801E-24
3.32098E-02 3.72624E-24
3.39961E-02 3.55491E-24
3.47912E-02 3.39331E-24
3.55952E-02 3.24078E-24
3.64081E-02 3.09671E-24
3.72297E-02 2.96056E-24
3.80602E-02 2.83180E-24
3.88995E-02 2.70996E-24
3.97476E-02 2.59459E-24
4.06044E-02 2.48529E-24
4.14700E-02 2.38167E-24
4.23443E-02 2.28339E-24
4.32273E-02 2.19012E-24
4.41190E-02 2.10155E-24
4.50194E-02 2.01741E-24
4.59284E-02 1.93742E-24
4.68461E-02 1.86135E-24
4.87074E-02 1.72007E-24
5.06030E-02 1.59190E-24
5.25328E-02 1.47542E-24
5.44967E-02 1.36937E-24
5.64946E-02 1.27265E-24
5.85262E-02 1.18428E-24
6.05914E-02 1.10342E-24
6.26901E-02 1.02932E-24
6.48222E-02 9.61303E-25
6.69873E-02 8.98786E-25
6.91854E-02 8.41242E-25
7.14163E-02 7.88205E-25
7.36799E-02 7.39256E-25
7.59760E-02 6.94025E-25
7.83043E-02 6.52178E-25
8.06647E-02 6.13414E-25
8.30571E-02 5.77467E-25
8.54812E-02 5.44093E-25
8.79369E-02 5.13076E-25
9.04240E-02 4.84219E-25
9.29422E-02 4.57343E-25
9.54915E-02 4.32288E-25
9.80716E-02 4.08908E-25
1.00682E-01 3.87072E-25
1.03323E-01 3.66657E-25
1.05995E-01 3.47555E-25
1.08696E-01 3.29666E-25
1.11427E-01 3.12899E-25
1.14188E-01 2.97171E-25
1.16978E-01 2.82406E-25
1.19797E-01 2.68533E-25
1.22645E-01 2.55490E-25
1.25522E-01 2.43217E-25
1.28428E-01 2.31661E-25
1.31361E-01 2.20772E-25
1.34323E-01 2.10504E-25
1.37313E-01 2.00817E-25
1.40330E-01 1.91670E-25
1.43375E-01 1.83029E-25
1.46447E-01 1.74860E-25
1.49545E-01 1.67133E-25
1.52671E-01 1.59819E-25
1.55823E-01 1.52893E-25
1.59001E-01 1.46330E-25
1.62205E-01 1.40108E-25
1.65435E-01 1.34205E-25
1.68690E-01 1.28603E-25
1.71970E-01 1.23283E-25
1.75276E-01 1.18229E-25
1.78606E-01 1.13424E-25
1.81961E-01 1.08855E-25
1.85340E-01 1.04508E-25
1.88743E-01 1.00369E-25
1.92169E-01 9.64275E-26
1.95619E-01 9.26720E-26
1.99092E-01 8.90923E-26
2.02589E-01 8.56785E-26
2.06107E-01 8.24216E-26
2.09649E-01 7.93132E-26
2.13212E-01 7.63451E-26
2.16797E-01 7.35100E-26
2.20404E-01 7.08009E-26
2.24032E-01 6.82110E-26
2.27680E-01 6.57343E-26
2.31350E-01 6.33650E-26
2.35040E-01 6.10975E-26
2.38751E-01 5.89266E-26
2.42481E-01 5.68476E-26
2.46231E-01 5.48558E-26
2.50000E-01 5.29470E-26
2.53788E-01 5.11171E-26
2.57595E-01 4.93622E-26
2.61421E-01 4.76788E-26
2.65264E-01 4.60633E-26
2.69126E-01 4.45127E-26
2.73005E-01 4.30237E-26
2.76901E-01 4.15936E-26
2.80814E-01 4.02196E-26
2.84744E-01 3.88992E-26
2.88691E-01 3.76298E-26
2.92653E-01 3.64091E-26
2.96632E-01 3.52350E-26
3.00625E-01 3.41054E-26
3.04634E-01 3.30183E-26
3.08658E-01 3.19718E-26
3.12697E-01 3.09641E-26
3.16749E-01 2.99936E-26
3.20816E-01 2.90586E-26
3.24896E-01 2.81577E-26
3.28990E-01 2.72893E-26
3.33097E-01 2.64522E-26
3.37216E-01 2.56449E-26
3.41348E-01 2.48662E-26
3.45492E-01 2.41150E-26
3.49647E-01 2.33901E-26
3.53814E-01 2.26904E-26
3.57992E-01 2.20150E-26
3.62181E-01 2.13628E-26
3.66381E-01 2.07328E-26
3.70590E-01 2.01243E-26
3.74810E-01 1.95364E-26
3.79039E-01 1.89682E-26
3.83277E-01 1.84189E-26
3.87524E-01 1.78879E-26
3.91780E-01 1.73745E-26
3.96044E-01 1.68779E-26
4.00316E-01 1.63975E-26
4.04596E-01 1.59327E-26
4.08882E-01 1.54829E-26
4.13176E-01 1.50475E-26
4.17476E-01 1.46261E-26
4.21783E-01 1.42180E-26
4.26095E-01 1.38228E-26
4.30413E-01 1.34401E-26
4.34737E-01 1.30693E-26
4.39065E-01 1.27100E-26
4.43398E-01 1.23619E-26
4.47736E-01 1.20245E-26
4.52077E-01 1.16974E-26
4.56422E-01 1.13803E-26
4.60770E-01 1.10728E-26
4.65122E-01 1.07746E-26
4.69476E-01 1.04853E-26
4.73832E-01 1.02047E-26
4.78190E-01 9.93239E-27
4.82550E-01 9.66817E-27
4.86912E-01 9.41173E-27
4.91274E-01 9.16281E-27
4.95637E-01 8.92114E-27
5.00000E-01 8.68650E-27
5.04363E-01 8.45865E-27
5.08726E-01 8.23734E-27
5.13088E-01 8.02238E-27
5.17450E-01 7.81355E-27
5.21810E-01 7.61065E-27
5.26168E-01 7.41349E-27
5.30524E-01 7.22188E-27
5.34878E-01 7.03563E-27
5.39230E-01 6.85458E-27
5.43578E-01 6.67857E-27
5.47923E-01 6.50742E-27
5.52264E-01 6.34099E-27
5.56602E-01 6.17913E-27
5.60935E-01 6.02169E-27
5.65263E-01 5.86853E-27
5.69587E-01 5.71953E-27
5.73905E-01 5.57455E-27
5.78217E-01 5.43347E-27
5.82524E-01 5.29617E-27
5.86824E-01 5.16253E-27
5.91118E-01 5.03244E-27
5.95404E-01 4.90580E-27
5.99684E-01 4.78250E-27
6.03956E-01 4.66243E-27
6.08220E-01 4.54552E-27
6.12476E-01 4.43165E-27
6.16723E-01 4.32074E-27
6.20961E-01 4.21270E-27
6.25190E-01 4.10746E-27
6.29410E-01 4.00492E-27
6.33619E-01 3.90500E-27
6.37819E-01 3.80764E-27
6.42008E-01 3.71275E-27
6.46186E-01 3.62028E-27
6.50353E-01 3.53014E-27
6.54508E-01 3.44227E-27
6.58652E-01 3.35660E-27
6.62784E-01 3.27309E-27
6.66903E-01 3.19165E-27
6.71010E-01 3.11224E-27
6.75104E-01 3.03480E-27
6.79184E-01 2.95928E-27
6.83251E-01 2.88561E-27
6.87303E-01 2.81376E-27
6.91342E-01 2.74367E-27
6.95366E-01 2.67528E-27
6.99375E-01 2.60857E-27
7.03368E-01 2.54347E-27
7.07347E-01 2.47995E-27
7.11309E-01 2.41797E-27
7.15256E-01 2.35748E-27
7.19186E-01 2.29844E-27
7.23099E-01 2.24081E-27
7.26995E-01 2.18456E-27
7.30874E-01 2.12966E-27
7.34736E-01 2.07606E-27
7.38579E-01 2.02373E-27
7.42405E-01 1.97264E-27
7.46212E-01 1.92275E-27
7.50000E-01 1.87404E-27
7.53769E-01 1.82648E-27
7.57519E-01 1.78003E-27
7.61249E-01 1.73467E-27
7.64960E-01 1.69036E-27
7.68650E-01 1.64709E-27
7.72320E-01 1.60483E-27
7.75968E-01 1.56355E-27
7.79596E-01 1.52322E-27
7.83203E-01 1.48383E-27
7.86788E-01 1.44534E-27
7.90351E-01 1.40775E-27
7.93893E-01 1.37101E-27
7.97411E-01 1.33513E-27
8.00908E-01 1.30006E-27
8.04381E-01 1.26580E-27
8.07831E-01 1.23233E-27
8.11257E-01 1.19961E-27
8.14660E-01 1.16765E-27
8.18039E-01 1.13641E-27
8.21394E-01 1.10589E-27
8.24724E-01 1.07606E-27
8.28030E-01 1.04691E-27
8.31310E-01 1.01842E-27
8.34565E-01 9.90579E-28
8.37795E-01 9.63369E-28
8.40999E-01 9.36776E-28
8.44177E-01 9.10786E-28
8.47329E-01 8.85385E-28
8.50455E-01 8.60560E-28
8.53553E-01 8.36297E-28
8.56625E-01 8.12584E-28
8.59670E-01 7.89408E-28
8.62687E-01 7.66758E-28
8.65677E-01 7.44621E-28
8.68639E-01 7.22987E-28
8.71572E-01 7.01844E-28
8.74478E-01 6.81181E-28
8.77355E-01 6.60988E-28
8.80203E-01 6.41255E-28
8.83022E-01 6.21972E-28
8.85812E-01 6.03128E-28
8.88573E-01 5.84715E-28
8.91304E-01 5.66724E-28
8.94005E-01 5.49146E-28
8.96677E-01 5.31971E-28
8.99318E-01 5.15192E-28
9.01928E-01 4.98801E-28
9.04508E-01 4.82789E-28
9.07058E-01 4.67148E-28
9.09576E-01 4.51872E-28
9.12063E-01 4.36952E-28
9.14519E-01 4.22383E-28
9.16943E-01 4.08155E-28
9.19335E-01 3.94264E-28
9.21696E-01 3.80702E-28
9.24024E-01 3.67463E-28
9.26320E-01 3.54541E-28
9.28584E-01 3.41929E-28
9.30815E-01 3.29622E-28
9.33013E-01 3.17615E-28
9.35178E-01 3.05900E-28
9.37310E-01 2.94474E-28
9.39409E-01 2.83331E-28
9.41474E-01 2.72466E-28
9.43505E-01 2.61873E-28
9.45503E-01 2.51548E-28
9.47467E-01 2.41487E-28
9.49397E-01 2.31684E-28
9.51293E-01 2.22135E-28
9.53154E-01 2.12837E-28
9.54981E-01 2.03784E-28
9.56773E-01 1.94973E-28
9.58530E-01 1.86400E-28
9.60252E-01 1.78061E-28
9.61940E-01 1.69952E-28
9.63592E-01 1.62070E-28
9.65209E-01 1.54411E-28
9.66790E-01 1.46972E-28
9.68336E-01 1.39750E-28
9.69846E-01 1.32741E-28
9.71321E-01 1.25942E-28
9.72759E-01 1.19351E-28
9.74162E-01 1.12965E-28
9.75528E-01 1.06780E-28
9.76858E-01 1.00794E-28
9.78152E-01 9.50046E-29
9.79410E-01 8.94093E-29
9.80631E-01 8.40056E-29
9.81815E-01 7.87911E-29
9.82963E-01 7.37637E-29
9.84074E-01 6.89211E-29
9.85148E-01 6.42614E-29
9.86185E-01 5.97825E-29
9.87185E-01 5.54824E-29
9.88148E-01 5.13595E-29
9.89074E-01 4.74119E-29
9.89962E-01 4.36379E-29
9.90814E-01 4.00360E-29
9.91627E-01 3.66047E-29
9.92404E-01 3.33424E-29
9.93143E-01 3.02478E-29
9.93844E-01 2.73196E-29
9.94508E-01 2.45566E-29
9.95134E-01 2.19576E-29
9.95722E-01 1.95216E-29
9.96273E-01 1.72474E-29
9.96786E-01 1.51342E-29
9.97261E-01 1.31810E-29
9.97698E-01 1.13871E-29
9.98097E-01 9.75161E-30
9.98459E-01 8.27398E-30
9.98782E-01 6.95354E-30
9.99067E-01 5.78973E-30
9.99315E-01 4.78208E-30
9.99524E-01 3.93016E-30
9.99695E-01 3.23362E-30
9.99829E-01 2.69217E-30
9.99924E-01 2.30557E-30
9.99981E-01 2.07368E-30
1.00000E+00 1.99644E-30
