 #
 # Subroutine ELSEPA. Elastic scattering of electrons and positrons
 #                    by neutral atoms and positive ions
 #
 # Projectile: electron
 # Kinetic energy = 9.00000E+06 eV = 3.30744E+05 a.u.
 #
 # WARNING: High-energy factorization with free-atom DF screening.
 #          Absorption, polarization and exchange corrections are
 #          switched off.
 #          Phase shifts are calculated for the bare nucleus.
 #          Scattering amplitudes are not evaluated.
 #
 # Element: Ar,  Z =  18,  atomic weight = 3.99480E+01 g/mol
 #
 # Nuclear model: Fermi distribution
 #                Average radius = 3.65776E-13 cm
 #                Skin thickness = 5.46000E-14 cm
 #
 # Number of electrons = 18
 #
 # Total elastic cross section = 1.15082E-18 cm**2 = 4.10964E-02 a0**2
 # 1st transport cross section = 6.12985E-24 cm**2 = 2.18901E-07 a0**2
 # 2nd transport cross section = 1.75761E-23 cm**2 = 6.27655E-07 a0**2
 #
 #
 # Differential cross section:                       MU=(1-COS(THETA))/2
 #
 #  THETA        MU          DCS          DCS        Sherman      error
 #  (deg)                 (cm**2/sr)   (a0**2/sr)    function
 #----------------------------------------------------------------------
0.00000E+00 7.22509E-13
7.61557E-13 7.22500E-13
1.18994E-12 7.22495E-13
1.71346E-12 7.22489E-13
2.33225E-12 7.22483E-13
3.04617E-12 7.22475E-13
3.85530E-12 7.22466E-13
4.75964E-12 7.22456E-13
5.75917E-12 7.22446E-13
6.85391E-12 7.22434E-13
8.04379E-12 7.22421E-13
9.32893E-12 7.22407E-13
1.07092E-11 7.22393E-13
1.21847E-11 7.22377E-13
1.37554E-11 7.22360E-13
1.54213E-11 7.22342E-13
1.71823E-11 7.22324E-13
1.90386E-11 7.22304E-13
2.09900E-11 7.22283E-13
2.30367E-11 7.22262E-13
2.51785E-11 7.22239E-13
2.74156E-11 7.22215E-13
2.97478E-11 7.22191E-13
3.21752E-11 7.22165E-13
3.46979E-11 7.22138E-13
3.73157E-11 7.22111E-13
4.00286E-11 7.22082E-13
4.28368E-11 7.22052E-13
4.57402E-11 7.22022E-13
4.87388E-11 7.21990E-13
5.18325E-11 7.21958E-13
5.50215E-11 7.21924E-13
5.83057E-11 7.21889E-13
6.16850E-11 7.21854E-13
6.51595E-11 7.21817E-13
6.87293E-11 7.21780E-13
7.23943E-11 7.21741E-13
7.61544E-11 7.21702E-13
1.18991E-10 7.21252E-13
1.71347E-10 7.20703E-13
2.33223E-10 7.20056E-13
3.04617E-10 7.19311E-13
3.85531E-10 7.18469E-13
4.75965E-10 7.17529E-13
5.75917E-10 7.16492E-13
6.85389E-10 7.15361E-13
8.04380E-10 7.14132E-13
9.32891E-10 7.12810E-13
1.07092E-09 7.11395E-13
1.21847E-09 7.09884E-13
1.37554E-09 7.08282E-13
1.54213E-09 7.06591E-13
1.71823E-09 7.04805E-13
1.90386E-09 7.02932E-13
2.09900E-09 7.00973E-13
2.30367E-09 6.98921E-13
2.51785E-09 6.96785E-13
2.74156E-09 6.94569E-13
2.97478E-09 6.92261E-13
3.21752E-09 6.89873E-13
3.46978E-09 6.87410E-13
3.73156E-09 6.84857E-13
4.00286E-09 6.82229E-13
4.28368E-09 6.79530E-13
4.57402E-09 6.76744E-13
4.87388E-09 6.73888E-13
5.18326E-09 6.70967E-13
5.50215E-09 6.67961E-13
5.83057E-09 6.64890E-13
6.16850E-09 6.61760E-13
6.51596E-09 6.58548E-13
6.87293E-09 6.55276E-13
7.23942E-09 6.51950E-13
7.61544E-09 6.48547E-13
1.18991E-08 6.11533E-13
1.71347E-08 5.70135E-13
2.33223E-08 5.24656E-13
3.04617E-08 4.79447E-13
3.85531E-08 4.36048E-13
4.75965E-08 3.91275E-13
5.75917E-08 3.49996E-13
6.85389E-08 3.12436E-13
8.04380E-08 2.76094E-13
9.32891E-08 2.43849E-13
1.07092E-07 2.15348E-13
1.21847E-07 1.88944E-13
1.37554E-07 1.65961E-13
1.54213E-07 1.45950E-13
1.71823E-07 1.27919E-13
1.90386E-07 1.12351E-13
2.09900E-07 9.88822E-14
2.30367E-07 8.69431E-14
2.51785E-07 7.66491E-14
2.74156E-07 6.77496E-14
2.97478E-07 5.99247E-14
3.21752E-07 5.31597E-14
3.46978E-07 4.72938E-14
3.73156E-07 4.21483E-14
4.00286E-07 3.76767E-14
4.28368E-07 3.37787E-14
4.57402E-07 3.03524E-14
4.87388E-07 2.73548E-14
5.18325E-07 2.47242E-14
5.50215E-07 2.24031E-14
5.83057E-07 2.03568E-14
6.16850E-07 1.85476E-14
6.51596E-07 1.69411E-14
6.87293E-07 1.55133E-14
7.23942E-07 1.42409E-14
7.61543E-07 1.31028E-14
1.18991E-06 6.35966E-15
1.71347E-06 3.56131E-15
2.33223E-06 2.16714E-15
3.04617E-06 1.39234E-15
3.85531E-06 9.29774E-16
4.75964E-06 6.38968E-16
5.75916E-06 4.51130E-16
6.85388E-06 3.26204E-16
8.04378E-06 2.40875E-16
9.32888E-06 1.81425E-16
1.07092E-05 1.39113E-16
1.21846E-05 1.08394E-16
1.37553E-05 8.57068E-17
1.54212E-05 6.86718E-17
1.71822E-05 5.56818E-17
1.90385E-05 4.56402E-17
2.09899E-05 3.77798E-17
2.30365E-05 3.15509E-17
2.51783E-05 2.65625E-17
2.74153E-05 2.25284E-17
2.97475E-05 1.92361E-17
3.21749E-05 1.65274E-17
3.46974E-05 1.42818E-17
3.73152E-05 1.24067E-17
4.00281E-05 1.08307E-17
4.28362E-05 9.49809E-18
4.57395E-05 8.36463E-18
4.87380E-05 7.39556E-18
5.18317E-05 6.56304E-18
5.50205E-05 5.84443E-18
5.83045E-05 5.22155E-18
6.16838E-05 4.67952E-18
6.51582E-05 4.20598E-18
6.87277E-05 3.79081E-18
7.23925E-05 3.42560E-18
7.61524E-05 3.10323E-18
9.21439E-05 2.13742E-18
1.09658E-04 1.51919E-18
1.28695E-04 1.10878E-18
1.49255E-04 8.27795E-19
1.71338E-04 6.30289E-19
1.94942E-04 4.88226E-19
2.20070E-04 3.83967E-19
2.46720E-04 3.06076E-19
2.74892E-04 2.46947E-19
3.04586E-04 2.01418E-19
3.35803E-04 1.65906E-19
3.68542E-04 1.37882E-19
4.02802E-04 1.15529E-19
4.38585E-04 9.75269E-20
4.75889E-04 8.28975E-20
5.14715E-04 7.09106E-20
5.55063E-04 6.10142E-20
5.96931E-04 5.27856E-20
6.40321E-04 4.58988E-20
6.85233E-04 4.00996E-20
7.31665E-04 3.51884E-20
7.79618E-04 3.10069E-20
8.29092E-04 2.74287E-20
8.80086E-04 2.43524E-20
9.32601E-04 2.16957E-20
9.86636E-04 1.93919E-20
1.04219E-03 1.73862E-20
1.09927E-03 1.56334E-20
1.15786E-03 1.40961E-20
1.21797E-03 1.27435E-20
1.27961E-03 1.15494E-20
1.34276E-03 1.04920E-20
1.40743E-03 9.55310E-21
1.47362E-03 8.71700E-21
1.54133E-03 7.97049E-21
1.61056E-03 7.30229E-21
1.68131E-03 6.70275E-21
1.75357E-03 6.16357E-21
1.82735E-03 5.67759E-21
1.90265E-03 5.23864E-21
1.97947E-03 4.84135E-21
2.05780E-03 4.48101E-21
2.13765E-03 4.15360E-21
2.21902E-03 3.85560E-21
2.30190E-03 3.58389E-21
2.38630E-03 3.33573E-21
2.47222E-03 3.10871E-21
2.55965E-03 2.90072E-21
2.64859E-03 2.70985E-21
2.73905E-03 2.53446E-21
2.83103E-03 2.37305E-21
2.92452E-03 2.22431E-21
3.01952E-03 2.08706E-21
3.11604E-03 1.96025E-21
3.21407E-03 1.84294E-21
3.31362E-03 1.73430E-21
3.41468E-03 1.63356E-21
3.51725E-03 1.54004E-21
3.62133E-03 1.45312E-21
3.72692E-03 1.37227E-21
3.83403E-03 1.29697E-21
3.94265E-03 1.22678E-21
4.05278E-03 1.16127E-21
4.16442E-03 1.10010E-21
4.27757E-03 1.04290E-21
4.39223E-03 9.89380E-22
4.50840E-03 9.39257E-22
4.62608E-03 8.92274E-22
4.74527E-03 8.48198E-22
4.86597E-03 8.06815E-22
4.98817E-03 7.67931E-22
5.11188E-03 7.31365E-22
5.23711E-03 6.96955E-22
5.36383E-03 6.64549E-22
5.49207E-03 6.34008E-22
5.62181E-03 6.05205E-22
5.75306E-03 5.78023E-22
5.88581E-03 5.52353E-22
6.02007E-03 5.28095E-22
6.15583E-03 5.05157E-22
6.29310E-03 4.83454E-22
6.43187E-03 4.62906E-22
6.57214E-03 4.43441E-22
6.71392E-03 4.24990E-22
6.85720E-03 4.07491E-22
7.00198E-03 3.90886E-22
7.14827E-03 3.75120E-22
7.29605E-03 3.60142E-22
7.44534E-03 3.45906E-22
7.59612E-03 3.32368E-22
7.97965E-03 3.01316E-22
8.37255E-03 2.73815E-22
8.77480E-03 2.49388E-22
9.18641E-03 2.27630E-22
9.60736E-03 2.08199E-22
1.00376E-02 1.90802E-22
1.04773E-02 1.75189E-22
1.09262E-02 1.61144E-22
1.13844E-02 1.48482E-22
1.18520E-02 1.37042E-22
1.23288E-02 1.26685E-22
1.28150E-02 1.17290E-22
1.33104E-02 1.08753E-22
1.38150E-02 1.00980E-22
1.43290E-02 9.38902E-23
1.48521E-02 8.74134E-23
1.53845E-02 8.14869E-23
1.59262E-02 7.60553E-23
1.64770E-02 7.10698E-23
1.70371E-02 6.64870E-23
1.76063E-02 6.22685E-23
1.81848E-02 5.83800E-23
1.87724E-02 5.47910E-23
1.93692E-02 5.14742E-23
1.99751E-02 4.84051E-23
2.05901E-02 4.55619E-23
2.12143E-02 4.29248E-23
2.18476E-02 4.04761E-23
2.24900E-02 3.81999E-23
2.31415E-02 3.60818E-23
2.38021E-02 3.41087E-23
2.44717E-02 3.22690E-23
2.51504E-02 3.05518E-23
2.58382E-02 2.89476E-23
2.65349E-02 2.74475E-23
2.72407E-02 2.60434E-23
2.79555E-02 2.47282E-23
2.86793E-02 2.34950E-23
2.94120E-02 2.23380E-23
3.01537E-02 2.12513E-23
3.09043E-02 2.02301E-23
3.16639E-02 1.92695E-23
3.24324E-02 1.83654E-23
3.32098E-02 1.75137E-23
3.39961E-02 1.67109E-23
3.47912E-02 1.59536E-23
3.55952E-02 1.52388E-23
3.64081E-02 1.45637E-23
3.72297E-02 1.39255E-23
3.80602E-02 1.33219E-23
3.88995E-02 1.27507E-23
3.97476E-02 1.22099E-23
4.06044E-02 1.16974E-23
4.14700E-02 1.12115E-23
4.23443E-02 1.07507E-23
4.32273E-02 1.03132E-23
4.41190E-02 9.89783E-24
4.50194E-02 9.50314E-24
4.59284E-02 9.12794E-24
4.68461E-02 8.77107E-24
4.87074E-02 8.10815E-24
5.06030E-02 7.50668E-24
5.25328E-02 6.95994E-24
5.44967E-02 6.46206E-24
5.64946E-02 6.00788E-24
5.85262E-02 5.59286E-24
6.05914E-02 5.21303E-24
6.26901E-02 4.86486E-24
6.48222E-02 4.54522E-24
6.69873E-02 4.25137E-24
6.91854E-02 3.98083E-24
7.14163E-02 3.73142E-24
7.36799E-02 3.50118E-24
7.59760E-02 3.28839E-24
7.83043E-02 3.09146E-24
8.06647E-02 2.90901E-24
8.30571E-02 2.73976E-24
8.54812E-02 2.58260E-24
8.79369E-02 2.43650E-24
9.04240E-02 2.30054E-24
9.29422E-02 2.17388E-24
9.54915E-02 2.05577E-24
9.80716E-02 1.94553E-24
1.00682E-01 1.84253E-24
1.03323E-01 1.74622E-24
1.05995E-01 1.65608E-24
1.08696E-01 1.57164E-24
1.11427E-01 1.49247E-24
1.14188E-01 1.41818E-24
1.16978E-01 1.34842E-24
1.19797E-01 1.28286E-24
1.22645E-01 1.22120E-24
1.25522E-01 1.16316E-24
1.28428E-01 1.10850E-24
1.31361E-01 1.05697E-24
1.34323E-01 1.00837E-24
1.37313E-01 9.62506E-25
1.40330E-01 9.19185E-25
1.43375E-01 8.78244E-25
1.46447E-01 8.39528E-25
1.49545E-01 8.02893E-25
1.52671E-01 7.68207E-25
1.55823E-01 7.35348E-25
1.59001E-01 7.04200E-25
1.62205E-01 6.74658E-25
1.65435E-01 6.46625E-25
1.68690E-01 6.20008E-25
1.71970E-01 5.94724E-25
1.75276E-01 5.70692E-25
1.78606E-01 5.47840E-25
1.81961E-01 5.26099E-25
1.85340E-01 5.05405E-25
1.88743E-01 4.85697E-25
1.92169E-01 4.66922E-25
1.95619E-01 4.49025E-25
1.99092E-01 4.31958E-25
2.02589E-01 4.15677E-25
2.06107E-01 4.00137E-25
2.09649E-01 3.85299E-25
2.13212E-01 3.71126E-25
2.16797E-01 3.57582E-25
2.20404E-01 3.44634E-25
2.24032E-01 3.32251E-25
2.27680E-01 3.20404E-25
2.31350E-01 3.09065E-25
2.35040E-01 2.98209E-25
2.38751E-01 2.87811E-25
2.42481E-01 2.77849E-25
2.46231E-01 2.68300E-25
2.50000E-01 2.59145E-25
2.53788E-01 2.50364E-25
2.57595E-01 2.41939E-25
2.61421E-01 2.33853E-25
2.65264E-01 2.26091E-25
2.69126E-01 2.18636E-25
2.73005E-01 2.11474E-25
2.76901E-01 2.04592E-25
2.80814E-01 1.97977E-25
2.84744E-01 1.91616E-25
2.88691E-01 1.85498E-25
2.92653E-01 1.79612E-25
2.96632E-01 1.73948E-25
3.00625E-01 1.68496E-25
3.04634E-01 1.63246E-25
3.08658E-01 1.58189E-25
3.12697E-01 1.53318E-25
3.16749E-01 1.48624E-25
3.20816E-01 1.44099E-25
3.24896E-01 1.39736E-25
3.28990E-01 1.35529E-25
3.33097E-01 1.31471E-25
3.37216E-01 1.27556E-25
3.41348E-01 1.23777E-25
3.45492E-01 1.20130E-25
3.49647E-01 1.16608E-25
3.53814E-01 1.13207E-25
3.57992E-01 1.09922E-25
3.62181E-01 1.06748E-25
3.66381E-01 1.03680E-25
3.70590E-01 1.00715E-25
3.74810E-01 9.78491E-26
3.79039E-01 9.50774E-26
3.83277E-01 9.23967E-26
3.87524E-01 8.98034E-26
3.91780E-01 8.72942E-26
3.96044E-01 8.48659E-26
4.00316E-01 8.25154E-26
4.04596E-01 8.02398E-26
4.08882E-01 7.80363E-26
4.13176E-01 7.59022E-26
4.17476E-01 7.38350E-26
4.21783E-01 7.18322E-26
4.26095E-01 6.98914E-26
4.30413E-01 6.80104E-26
4.34737E-01 6.61870E-26
4.39065E-01 6.44192E-26
4.43398E-01 6.27050E-26
4.47736E-01 6.10424E-26
4.52077E-01 5.94297E-26
4.56422E-01 5.78651E-26
4.60770E-01 5.63469E-26
4.65122E-01 5.48735E-26
4.69476E-01 5.34434E-26
4.73832E-01 5.20551E-26
4.78190E-01 5.07071E-26
4.82550E-01 4.93982E-26
4.86912E-01 4.81269E-26
4.91274E-01 4.68919E-26
4.95637E-01 4.56922E-26
5.00000E-01 4.45265E-26
5.04363E-01 4.33937E-26
5.08726E-01 4.22927E-26
5.13088E-01 4.12225E-26
5.17450E-01 4.01821E-26
5.21810E-01 3.91705E-26
5.26168E-01 3.81867E-26
5.30524E-01 3.72300E-26
5.34878E-01 3.62993E-26
5.39230E-01 3.53940E-26
5.43578E-01 3.45132E-26
5.47923E-01 3.36560E-26
5.52264E-01 3.28219E-26
5.56602E-01 3.20101E-26
5.60935E-01 3.12199E-26
5.65263E-01 3.04505E-26
5.69587E-01 2.97015E-26
5.73905E-01 2.89721E-26
5.78217E-01 2.82618E-26
5.82524E-01 2.75700E-26
5.86824E-01 2.68961E-26
5.91118E-01 2.62396E-26
5.95404E-01 2.56000E-26
5.99684E-01 2.49768E-26
6.03956E-01 2.43694E-26
6.08220E-01 2.37775E-26
6.12476E-01 2.32006E-26
6.16723E-01 2.26382E-26
6.20961E-01 2.20900E-26
6.25190E-01 2.15555E-26
6.29410E-01 2.10343E-26
6.33619E-01 2.05260E-26
6.37819E-01 2.00303E-26
6.42008E-01 1.95468E-26
6.46186E-01 1.90753E-26
6.50353E-01 1.86152E-26
6.54508E-01 1.81664E-26
6.58652E-01 1.77285E-26
6.62784E-01 1.73012E-26
6.66903E-01 1.68842E-26
6.71010E-01 1.64772E-26
6.75104E-01 1.60800E-26
6.79184E-01 1.56923E-26
6.83251E-01 1.53138E-26
6.87303E-01 1.49443E-26
6.91342E-01 1.45836E-26
6.95366E-01 1.42314E-26
6.99375E-01 1.38874E-26
7.03368E-01 1.35516E-26
7.07347E-01 1.32236E-26
7.11309E-01 1.29032E-26
7.15256E-01 1.25903E-26
7.19186E-01 1.22846E-26
7.23099E-01 1.19860E-26
7.26995E-01 1.16943E-26
7.30874E-01 1.14093E-26
7.34736E-01 1.11309E-26
7.38579E-01 1.08588E-26
7.42405E-01 1.05929E-26
7.46212E-01 1.03331E-26
7.50000E-01 1.00792E-26
7.53769E-01 9.83099E-27
7.57519E-01 9.58843E-27
7.61249E-01 9.35134E-27
7.64960E-01 9.11959E-27
7.68650E-01 8.89304E-27
7.72320E-01 8.67156E-27
7.75968E-01 8.45504E-27
7.79596E-01 8.24336E-27
7.83203E-01 8.03639E-27
7.86788E-01 7.83403E-27
7.90351E-01 7.63616E-27
7.93893E-01 7.44267E-27
7.97411E-01 7.25347E-27
8.00908E-01 7.06845E-27
8.04381E-01 6.88751E-27
8.07831E-01 6.71056E-27
8.11257E-01 6.53751E-27
8.14660E-01 6.36826E-27
8.18039E-01 6.20273E-27
8.21394E-01 6.04083E-27
8.24724E-01 5.88248E-27
8.28030E-01 5.72760E-27
8.31310E-01 5.57610E-27
8.34565E-01 5.42792E-27
8.37795E-01 5.28298E-27
8.40999E-01 5.14121E-27
8.44177E-01 5.00254E-27
8.47329E-01 4.86689E-27
8.50455E-01 4.73421E-27
8.53553E-01 4.60442E-27
8.56625E-01 4.47747E-27
8.59670E-01 4.35329E-27
8.62687E-01 4.23183E-27
8.65677E-01 4.11302E-27
8.68639E-01 3.99682E-27
8.71572E-01 3.88316E-27
8.74478E-01 3.77199E-27
8.77355E-01 3.66326E-27
8.80203E-01 3.55692E-27
8.83022E-01 3.45292E-27
8.85812E-01 3.35121E-27
8.88573E-01 3.25175E-27
8.91304E-01 3.15449E-27
8.94005E-01 3.05939E-27
8.96677E-01 2.96640E-27
8.99318E-01 2.87548E-27
9.01928E-01 2.78659E-27
9.04508E-01 2.69969E-27
9.07058E-01 2.61474E-27
9.09576E-01 2.53171E-27
9.12063E-01 2.45056E-27
9.14519E-01 2.37125E-27
9.16943E-01 2.29375E-27
9.19335E-01 2.21803E-27
9.21696E-01 2.14404E-27
9.24024E-01 2.07177E-27
9.26320E-01 2.00117E-27
9.28584E-01 1.93223E-27
9.30815E-01 1.86490E-27
9.33013E-01 1.79917E-27
9.35178E-01 1.73499E-27
9.37310E-01 1.67236E-27
9.39409E-01 1.61123E-27
9.41474E-01 1.55159E-27
9.43505E-01 1.49341E-27
9.45503E-01 1.43666E-27
9.47467E-01 1.38133E-27
9.49397E-01 1.32738E-27
9.51293E-01 1.27481E-27
9.53154E-01 1.22357E-27
9.54981E-01 1.17366E-27
9.56773E-01 1.12506E-27
9.58530E-01 1.07774E-27
9.60252E-01 1.03169E-27
9.61940E-01 9.86879E-28
9.63592E-01 9.43301E-28
9.65209E-01 9.00934E-28
9.66790E-01 8.59761E-28
9.68336E-01 8.19767E-28
9.69846E-01 7.80934E-28
9.71321E-01 7.43249E-28
9.72759E-01 7.06695E-28
9.74162E-01 6.71258E-28
9.75528E-01 6.36925E-28
9.76858E-01 6.03682E-28
9.78152E-01 5.71516E-28
9.79410E-01 5.40414E-28
9.80631E-01 5.10364E-28
9.81815E-01 4.81355E-28
9.82963E-01 4.53376E-28
9.84074E-01 4.26415E-28
9.85148E-01 4.00461E-28
9.86185E-01 3.75506E-28
9.87185E-01 3.51539E-28
9.88148E-01 3.28552E-28
9.89074E-01 3.06534E-28
9.89962E-01 2.85479E-28
9.90814E-01 2.65377E-28
9.91627E-01 2.46222E-28
9.92404E-01 2.28005E-28
9.93143E-01 2.10721E-28
9.93844E-01 1.94361E-28
9.94508E-01 1.78921E-28
9.95134E-01 1.64394E-28
9.95722E-01 1.50775E-28
9.96273E-01 1.38058E-28
9.96786E-01 1.26239E-28
9.97261E-01 1.15313E-28
9.97698E-01 1.05277E-28
9.98097E-01 9.61255E-29
9.98459E-01 8.78562E-29
9.98782E-01 8.04657E-29
9.99067E-01 7.39511E-29
9.99315E-01 6.83102E-29
9.99524E-01 6.35406E-29
9.99695E-01 5.96408E-29
9.99829E-01 5.66090E-29
9.99924E-01 5.44443E-29
9.99981E-01 5.31458E-29
1.00000E+00 5.27134E-29
