 #
 # Subroutine ELSEPA. Elastic scattering of electrons and positrons
 #                    by neutral atoms and positive ions
 #
 # Projectile: electron
 # Kinetic energy = 2.00000E+08 eV = 7.34987E+06 a.u.
 #
 # WARNING: High-energy factorization with free-atom DF screening.
 #          Absorption, polarization and exchange corrections are
 #          switched off.
 #          Phase shifts are calculated for the bare nucleus.
 #          Scattering amplitudes are not evaluated.
 #
 # Element: Ar,  Z =  18,  atomic weight = 3.99480E+01 g/mol
 #
 # Nuclear model: Fermi distribution
 #                Average radius = 3.65776E-13 cm
 #                Skin thickness = 5.46000E-14 cm
 #
 # Number of electrons = 18
 #
 # Total elastic cross section = 1.14560E-18 cm**2 = 4.09101E-02 a0**2
 # 1st transport cross section = 1.71314E-26 cm**2 = 6.11773E-10 a0**2
 # 2nd transport cross section = 5.12284E-26 cm**2 = 1.82940E-09 a0**2
 #
 #
 # Differential cross section:                       MU=(1-COS(THETA))/2
 #
 #  THETA        MU          DCS          DCS        Sherman      error
 #  (deg)                 (cm**2/sr)   (a0**2/sr)    function
 #----------------------------------------------------------------------
0.00000E+00 3.21120E-10
7.61557E-13 3.19535E-10
1.18994E-12 3.18653E-10
1.71346E-12 3.17580E-10
2.33225E-12 3.16319E-10
3.04617E-12 3.14873E-10
3.85530E-12 3.13246E-10
4.75964E-12 3.11442E-10
5.75917E-12 3.09464E-10
6.85391E-12 3.07320E-10
8.04379E-12 3.05010E-10
9.32893E-12 3.02545E-10
1.07092E-11 2.99928E-10
1.21847E-11 2.97164E-10
1.37554E-11 2.94265E-10
1.54213E-11 2.91226E-10
1.71823E-11 2.88066E-10
1.90386E-11 2.84785E-10
2.09900E-11 2.81390E-10
2.30367E-11 2.77897E-10
2.51785E-11 2.74294E-10
2.74156E-11 2.70609E-10
2.97478E-11 2.66836E-10
3.21752E-11 2.62986E-10
3.46979E-11 2.59072E-10
3.73157E-11 2.55087E-10
4.00286E-11 2.50803E-10
4.28368E-11 2.46421E-10
4.57402E-11 2.42124E-10
4.87388E-11 2.37916E-10
5.18325E-11 2.33803E-10
5.50215E-11 2.29786E-10
5.83057E-11 2.25869E-10
6.16850E-11 2.21584E-10
6.51595E-11 2.17029E-10
6.87293E-11 2.12608E-10
7.23943E-11 2.08319E-10
7.61544E-11 2.04163E-10
1.18991E-10 1.63973E-10
1.71347E-10 1.27728E-10
2.33223E-10 9.83302E-11
3.04617E-10 7.48337E-11
3.85531E-10 5.68365E-11
4.75965E-10 4.32964E-11
5.75917E-10 3.31188E-11
6.85389E-10 2.55847E-11
8.04380E-10 1.99518E-11
9.32891E-10 1.57460E-11
1.07092E-09 1.25781E-11
1.21847E-09 1.01700E-11
1.37554E-09 8.32405E-12
1.54213E-09 6.89137E-12
1.71823E-09 5.76774E-12
1.90386E-09 4.87591E-12
2.09900E-09 4.16002E-12
2.30367E-09 3.57922E-12
2.51785E-09 3.10262E-12
2.74156E-09 2.70797E-12
2.97478E-09 2.37775E-12
3.21752E-09 2.09906E-12
3.46978E-09 1.86207E-12
3.73156E-09 1.65871E-12
4.00286E-09 1.48185E-12
4.28368E-09 1.32914E-12
4.57402E-09 1.19778E-12
4.87388E-09 1.08026E-12
5.18326E-09 9.77418E-13
5.50215E-09 8.87832E-13
5.83057E-09 8.06068E-13
6.16850E-09 7.34253E-13
6.51596E-09 6.70722E-13
6.87293E-09 6.12500E-13
7.23942E-09 5.60983E-13
7.61544E-09 5.14744E-13
1.18991E-08 2.33080E-13
1.71347E-08 1.18029E-13
2.33223E-08 6.53952E-14
3.04617E-08 3.90108E-14
3.85531E-08 2.47038E-14
4.75965E-08 1.64186E-14
5.75917E-08 1.13498E-14
6.85389E-08 8.10380E-15
8.04380E-08 5.94439E-15
9.32891E-08 4.46086E-15
1.07092E-07 3.41357E-15
1.21847E-07 2.65662E-15
1.37554E-07 2.09838E-15
1.54213E-07 1.67924E-15
1.71823E-07 1.35960E-15
1.90386E-07 1.11237E-15
2.09900E-07 9.18756E-16
2.30367E-07 7.65387E-16
2.51785E-07 6.42650E-16
2.74156E-07 5.43491E-16
2.97478E-07 4.62692E-16
3.21752E-07 3.96325E-16
3.46978E-07 3.41411E-16
3.73156E-07 2.95664E-16
4.00286E-07 2.57309E-16
4.28368E-07 2.24961E-16
4.57402E-07 1.97530E-16
4.87388E-07 1.74147E-16
5.18325E-07 1.54116E-16
5.50215E-07 1.36880E-16
5.83057E-07 1.21981E-16
6.16850E-07 1.09053E-16
6.51596E-07 9.77900E-17
6.87293E-07 8.79420E-17
7.23942E-07 7.93013E-17
7.61543E-07 7.16946E-17
1.18991E-06 2.94464E-17
1.71347E-06 1.42183E-17
2.33223E-06 7.67980E-18
3.04617E-06 4.50360E-18
3.85531E-06 2.81236E-18
4.75964E-06 1.84553E-18
5.75916E-06 1.26064E-18
6.85388E-06 8.90173E-19
8.04378E-06 6.46345E-19
9.32888E-06 4.80578E-19
1.07092E-05 3.64711E-19
1.21846E-05 2.81755E-19
1.37553E-05 2.21103E-19
1.54212E-05 1.75929E-19
1.71822E-05 1.41726E-19
1.90385E-05 1.15447E-19
2.09899E-05 9.49908E-20
2.30365E-05 7.88702E-20
2.51783E-05 6.60277E-20
2.74153E-05 5.56954E-20
2.97475E-05 4.73074E-20
3.21749E-05 4.04412E-20
3.46974E-05 3.47774E-20
3.73152E-05 3.00719E-20
4.00281E-05 2.61363E-20
4.28362E-05 2.28243E-20
4.57395E-05 2.00206E-20
4.87380E-05 1.76345E-20
5.18317E-05 1.55934E-20
5.50205E-05 1.38393E-20
5.83045E-05 1.23251E-20
6.16838E-05 1.10125E-20
6.51582E-05 9.87023E-21
6.87277E-05 8.87236E-21
7.23925E-05 7.99753E-21
7.61524E-05 7.22161E-21
9.21439E-05 4.93304E-21
1.09658E-04 3.48340E-21
1.28695E-04 2.52924E-21
1.49255E-04 1.88048E-21
1.71338E-04 1.42701E-21
1.94942E-04 1.10231E-21
2.20070E-04 8.64919E-22
2.46720E-04 6.88103E-22
2.74892E-04 5.54229E-22
3.04586E-04 4.51370E-22
3.35803E-04 3.71288E-22
3.68542E-04 3.08192E-22
4.02802E-04 2.57936E-22
4.38585E-04 2.17509E-22
4.75889E-04 1.84693E-22
5.14715E-04 1.57830E-22
5.55063E-04 1.35672E-22
5.96931E-04 1.17263E-22
6.40321E-04 1.01868E-22
6.85233E-04 8.89140E-23
7.31665E-04 7.79507E-23
7.79618E-04 6.86224E-23
8.29092E-04 6.06451E-23
8.80086E-04 5.37910E-23
9.32601E-04 4.78756E-23
9.86636E-04 4.27488E-23
1.04219E-03 3.82880E-23
1.09927E-03 3.43920E-23
1.15786E-03 3.09773E-23
1.21797E-03 2.79743E-23
1.27961E-03 2.53249E-23
1.34276E-03 2.29804E-23
1.40743E-03 2.08997E-23
1.47362E-03 1.90480E-23
1.54133E-03 1.73957E-23
1.61056E-03 1.59178E-23
1.68131E-03 1.45925E-23
1.75357E-03 1.34014E-23
1.82735E-03 1.23286E-23
1.90265E-03 1.13602E-23
1.97947E-03 1.04844E-23
2.05780E-03 9.69065E-24
2.13765E-03 8.97002E-24
2.21902E-03 8.31457E-24
2.30190E-03 7.71736E-24
2.38630E-03 7.17232E-24
2.47222E-03 6.67408E-24
2.55965E-03 6.21792E-24
2.64859E-03 5.79966E-24
2.73905E-03 5.41559E-24
2.83103E-03 5.06243E-24
2.92452E-03 4.73725E-24
3.01952E-03 4.43745E-24
3.11604E-03 4.16068E-24
3.21407E-03 3.90488E-24
3.31362E-03 3.66816E-24
3.41468E-03 3.44886E-24
3.51725E-03 3.24546E-24
3.62133E-03 3.05661E-24
3.72692E-03 2.88109E-24
3.83403E-03 2.71778E-24
3.94265E-03 2.56569E-24
4.05278E-03 2.42391E-24
4.16442E-03 2.29161E-24
4.27757E-03 2.16806E-24
4.39223E-03 2.05256E-24
4.50840E-03 1.94451E-24
4.62608E-03 1.84333E-24
4.74527E-03 1.74851E-24
4.86597E-03 1.65959E-24
4.98817E-03 1.57613E-24
5.11188E-03 1.49773E-24
5.23711E-03 1.42404E-24
5.36383E-03 1.35472E-24
5.49207E-03 1.28946E-24
5.62181E-03 1.22800E-24
5.75306E-03 1.17006E-24
5.88581E-03 1.11541E-24
6.02007E-03 1.06383E-24
6.15583E-03 1.01512E-24
6.29310E-03 9.69090E-25
6.43187E-03 9.25566E-25
6.57214E-03 8.84389E-25
6.71392E-03 8.45410E-25
6.85720E-03 8.08491E-25
7.00198E-03 7.73504E-25
7.14827E-03 7.40330E-25
7.29605E-03 7.08860E-25
7.44534E-03 6.78990E-25
7.59612E-03 6.50625E-25
7.97965E-03 5.85728E-25
8.37255E-03 5.28463E-25
8.77480E-03 4.77791E-25
9.18641E-03 4.32834E-25
9.60736E-03 3.92846E-25
1.00376E-02 3.57191E-25
1.04773E-02 3.25327E-25
1.09262E-02 2.96788E-25
1.13844E-02 2.71174E-25
1.18520E-02 2.48137E-25
1.23288E-02 2.27379E-25
1.28150E-02 2.08640E-25
1.33104E-02 1.91694E-25
1.38150E-02 1.76342E-25
1.43290E-02 1.62413E-25
1.48521E-02 1.49754E-25
1.53845E-02 1.38233E-25
1.59262E-02 1.27732E-25
1.64770E-02 1.18147E-25
1.70371E-02 1.09387E-25
1.76063E-02 1.01370E-25
1.81848E-02 9.40244E-26
1.87724E-02 8.72858E-26
1.93692E-02 8.10969E-26
1.99751E-02 7.54065E-26
2.05901E-02 7.01688E-26
2.12143E-02 6.53429E-26
2.18476E-02 6.08918E-26
2.24900E-02 5.67825E-26
2.31415E-02 5.29851E-26
2.38021E-02 4.94729E-26
2.44717E-02 4.62217E-26
2.51504E-02 4.32093E-26
2.58382E-02 4.04161E-26
2.65349E-02 3.78241E-26
2.72407E-02 3.54168E-26
2.79555E-02 3.31795E-26
2.86793E-02 3.10987E-26
2.94120E-02 2.91622E-26
3.01537E-02 2.73586E-26
3.09043E-02 2.56778E-26
3.16639E-02 2.41104E-26
3.24324E-02 2.26479E-26
3.32098E-02 2.12824E-26
3.39961E-02 2.00069E-26
3.47912E-02 1.88146E-26
3.55952E-02 1.76996E-26
3.64081E-02 1.66563E-26
3.72297E-02 1.56797E-26
3.80602E-02 1.47649E-26
3.88995E-02 1.39077E-26
3.97476E-02 1.31042E-26
4.06044E-02 1.23505E-26
4.14700E-02 1.16433E-26
4.23443E-02 1.09794E-26
4.32273E-02 1.03560E-26
4.41190E-02 9.77038E-27
4.50194E-02 9.21998E-27
4.59284E-02 8.70252E-27
4.68461E-02 8.21585E-27
4.87074E-02 7.32708E-27
5.06030E-02 6.53937E-27
5.25328E-02 5.84038E-27
5.44967E-02 5.21938E-27
5.64946E-02 4.66709E-27
5.85262E-02 4.17539E-27
6.05914E-02 3.73724E-27
6.26901E-02 3.34645E-27
6.48222E-02 2.99763E-27
6.69873E-02 2.68602E-27
6.91854E-02 2.40747E-27
7.14163E-02 2.15830E-27
7.36799E-02 1.93529E-27
7.59760E-02 1.73558E-27
7.83043E-02 1.55665E-27
8.06647E-02 1.39626E-27
8.30571E-02 1.25244E-27
8.54812E-02 1.12343E-27
8.79369E-02 1.00766E-27
9.04240E-02 9.03752E-28
9.29422E-02 8.10467E-28
9.54915E-02 7.26702E-28
9.80716E-02 6.51475E-28
1.00682E-01 5.83908E-28
1.03323E-01 5.23215E-28
1.05995E-01 4.68697E-28
1.08696E-01 4.19723E-28
1.11427E-01 3.75733E-28
1.14188E-01 3.36221E-28
1.16978E-01 3.00735E-28
1.19797E-01 2.68869E-28
1.22645E-01 2.40260E-28
1.25522E-01 2.14580E-28
1.28428E-01 1.91534E-28
1.31361E-01 1.70858E-28
1.34323E-01 1.52315E-28
1.37313E-01 1.35690E-28
1.40330E-01 1.20790E-28
1.43375E-01 1.07443E-28
1.46447E-01 9.54922E-29
1.49545E-01 8.47967E-29
1.52671E-01 7.52301E-29
1.55823E-01 6.66782E-29
1.59001E-01 5.90383E-29
1.62205E-01 5.22178E-29
1.65435E-01 4.61331E-29
1.68690E-01 4.07090E-29
1.71970E-01 3.58780E-29
1.75276E-01 3.15787E-29
1.78606E-01 2.77564E-29
1.81961E-01 2.43615E-29
1.85340E-01 2.13493E-29
1.88743E-01 1.86797E-29
1.92169E-01 1.63166E-29
1.95619E-01 1.42275E-29
1.99092E-01 1.23831E-29
2.02589E-01 1.07570E-29
2.06107E-01 9.32566E-30
2.09649E-01 8.06781E-30
2.13212E-01 6.96437E-30
2.16797E-01 5.99819E-30
2.20404E-01 5.15393E-30
2.24032E-01 4.41779E-30
2.27680E-01 3.77744E-30
2.31350E-01 3.22182E-30
2.35040E-01 2.74106E-30
2.38751E-01 2.32630E-30
2.42481E-01 1.96965E-30
2.46231E-01 1.66408E-30
2.50000E-01 1.40329E-30
2.53788E-01 1.18170E-30
2.57595E-01 9.94332E-31
2.61421E-01 8.36768E-31
2.65264E-01 7.05088E-31
2.69126E-01 5.95816E-31
2.73005E-01 5.05881E-31
2.76901E-01 4.32569E-31
2.80814E-01 3.73486E-31
2.84744E-01 3.26527E-31
2.88691E-01 2.89843E-31
2.92653E-01 2.61815E-31
2.96632E-01 2.41026E-31
3.00625E-01 2.26243E-31
3.04634E-01 2.16392E-31
3.08658E-01 2.10546E-31
3.12697E-01 2.07902E-31
3.16749E-01 2.07770E-31
3.20816E-01 2.09563E-31
3.24896E-01 2.12776E-31
3.28990E-01 2.16986E-31
3.33097E-01 2.21837E-31
3.37216E-01 2.27030E-31
3.41348E-01 2.32320E-31
3.45492E-01 2.37508E-31
3.49647E-01 2.42433E-31
3.53814E-01 2.46967E-31
3.57992E-01 2.51014E-31
3.62181E-01 2.54501E-31
3.66381E-01 2.57377E-31
3.70590E-01 2.59611E-31
3.74810E-01 2.61184E-31
3.79039E-01 2.62093E-31
3.83277E-01 2.62344E-31
3.87524E-01 2.61952E-31
3.91780E-01 2.60938E-31
3.96044E-01 2.59330E-31
4.00316E-01 2.57161E-31
4.04596E-01 2.54465E-31
4.08882E-01 2.51279E-31
4.13176E-01 2.47641E-31
4.17476E-01 2.43592E-31
4.21783E-01 2.39170E-31
4.26095E-01 2.34416E-31
4.30413E-01 2.29366E-31
4.34737E-01 2.24060E-31
4.39065E-01 2.18533E-31
4.43398E-01 2.12819E-31
4.47736E-01 2.06953E-31
4.52077E-01 2.00965E-31
4.56422E-01 1.94885E-31
4.60770E-01 1.88740E-31
4.65122E-01 1.82556E-31
4.69476E-01 1.76358E-31
4.73832E-01 1.70167E-31
4.78190E-01 1.64003E-31
4.82550E-01 1.57884E-31
4.86912E-01 1.51828E-31
4.91274E-01 1.45849E-31
4.95637E-01 1.39961E-31
5.00000E-01 1.34175E-31
5.04363E-01 1.28502E-31
5.08726E-01 1.22951E-31
5.13088E-01 1.17529E-31
5.17450E-01 1.12244E-31
5.21810E-01 1.07100E-31
5.26168E-01 1.02102E-31
5.30524E-01 9.72533E-32
5.34878E-01 9.25568E-32
5.39230E-01 8.80140E-32
5.43578E-01 8.36259E-32
5.47923E-01 7.93929E-32
5.52264E-01 7.53146E-32
5.56602E-01 7.13901E-32
5.60935E-01 6.76182E-32
5.65263E-01 6.39970E-32
5.69587E-01 6.05243E-32
5.73905E-01 5.71977E-32
5.78217E-01 5.40143E-32
5.82524E-01 5.09710E-32
5.86824E-01 4.80646E-32
5.91118E-01 4.52915E-32
5.95404E-01 4.26481E-32
5.99684E-01 4.01307E-32
6.03956E-01 3.77354E-32
6.08220E-01 3.54582E-32
6.12476E-01 3.32953E-32
6.16723E-01 3.12426E-32
6.20961E-01 2.92962E-32
6.25190E-01 2.74520E-32
6.29410E-01 2.57060E-32
6.33619E-01 2.40545E-32
6.37819E-01 2.24934E-32
6.42008E-01 2.10191E-32
6.46186E-01 1.96276E-32
6.50353E-01 1.83155E-32
6.54508E-01 1.70790E-32
6.58652E-01 1.59147E-32
6.62784E-01 1.48193E-32
6.66903E-01 1.37893E-32
6.71010E-01 1.28216E-32
6.75104E-01 1.19132E-32
6.79184E-01 1.10609E-32
6.83251E-01 1.02620E-32
6.87303E-01 9.51355E-33
6.91342E-01 8.81299E-33
6.95366E-01 8.15769E-33
6.99375E-01 7.54520E-33
7.03368E-01 6.97314E-33
7.07347E-01 6.43925E-33
7.11309E-01 5.94134E-33
7.15256E-01 5.47735E-33
7.19186E-01 5.04530E-33
7.23099E-01 4.64331E-33
7.26995E-01 4.26956E-33
7.30874E-01 3.92236E-33
7.34736E-01 3.60008E-33
7.38579E-01 3.30117E-33
7.42405E-01 3.02417E-33
7.46212E-01 2.76768E-33
7.50000E-01 2.53040E-33
7.53769E-01 2.31108E-33
7.57519E-01 2.10854E-33
7.61249E-01 1.92166E-33
7.64960E-01 1.74940E-33
7.68650E-01 1.59077E-33
7.72320E-01 1.44483E-33
7.75968E-01 1.31070E-33
7.79596E-01 1.18755E-33
7.83203E-01 1.07462E-33
7.86788E-01 9.71158E-34
7.90351E-01 8.76487E-34
7.93893E-01 7.89964E-34
7.97411E-01 7.10983E-34
8.00908E-01 6.38979E-34
8.04381E-01 5.73425E-34
8.07831E-01 5.13825E-34
8.11257E-01 4.59716E-34
8.14660E-01 4.10670E-34
8.18039E-01 3.66281E-34
8.21394E-01 3.26177E-34
8.24724E-01 2.90005E-34
8.28030E-01 2.57444E-34
8.31310E-01 2.28188E-34
8.34565E-01 2.01959E-34
8.37795E-01 1.78494E-34
8.40999E-01 1.57553E-34
8.44177E-01 1.38913E-34
8.47329E-01 1.22365E-34
8.50455E-01 1.07717E-34
8.53553E-01 9.47935E-35
8.56625E-01 8.34306E-35
8.59670E-01 7.34772E-35
8.62687E-01 6.47957E-35
8.65677E-01 5.72573E-35
8.68639E-01 5.07465E-35
8.71572E-01 4.51536E-35
8.74478E-01 4.03814E-35
8.77355E-01 3.63395E-35
8.80203E-01 3.29451E-35
8.83022E-01 3.01235E-35
8.85812E-01 2.78061E-35
8.88573E-01 2.59299E-35
8.91304E-01 2.44387E-35
8.94005E-01 2.32810E-35
8.96677E-01 2.24107E-35
8.99318E-01 2.17858E-35
9.01928E-01 2.13683E-35
9.04508E-01 2.11246E-35
9.07058E-01 2.10238E-35
9.09576E-01 2.10395E-35
9.12063E-01 2.11468E-35
9.14519E-01 2.13247E-35
9.16943E-01 2.15542E-35
9.19335E-01 2.18187E-35
9.21696E-01 2.21034E-35
9.24024E-01 2.23959E-35
9.26320E-01 2.26852E-35
9.28584E-01 2.29621E-35
9.30815E-01 2.32182E-35
9.33013E-01 2.34472E-35
9.35178E-01 2.36435E-35
9.37310E-01 2.38027E-35
9.39409E-01 2.39214E-35
9.41474E-01 2.39965E-35
9.43505E-01 2.40265E-35
9.45503E-01 2.40101E-35
9.47467E-01 2.39466E-35
9.49397E-01 2.38358E-35
9.51293E-01 2.36781E-35
9.53154E-01 2.34743E-35
9.54981E-01 2.32254E-35
9.56773E-01 2.29329E-35
9.58530E-01 2.25983E-35
9.60252E-01 2.22236E-35
9.61940E-01 2.18110E-35
9.63592E-01 2.13624E-35
9.65209E-01 2.08803E-35
9.66790E-01 2.03670E-35
9.68336E-01 1.98252E-35
9.69846E-01 1.92572E-35
9.71321E-01 1.86660E-35
9.72759E-01 1.80537E-35
9.74162E-01 1.74232E-35
9.75528E-01 1.67769E-35
9.76858E-01 1.61175E-35
9.78152E-01 1.54475E-35
9.79410E-01 1.47694E-35
9.80631E-01 1.40856E-35
9.81815E-01 1.33984E-35
9.82963E-01 1.27104E-35
9.84074E-01 1.20235E-35
9.85148E-01 1.13400E-35
9.86185E-01 1.06621E-35
9.87185E-01 9.99170E-36
9.88148E-01 9.33090E-36
9.89074E-01 8.68159E-36
9.89962E-01 8.04527E-36
9.90814E-01 7.42394E-36
9.91627E-01 6.81914E-36
9.92404E-01 6.23246E-36
9.93143E-01 5.66534E-36
9.93844E-01 5.11915E-36
9.94508E-01 4.59521E-36
9.95134E-01 4.09488E-36
9.95722E-01 3.61919E-36
9.96273E-01 3.16920E-36
9.96786E-01 2.74595E-36
9.97261E-01 2.35046E-36
9.97698E-01 1.98346E-36
9.98097E-01 1.64583E-36
9.98459E-01 1.33815E-36
9.98782E-01 1.06123E-36
9.99067E-01 8.15523E-37
9.99315E-01 6.01564E-37
9.99524E-01 4.19840E-37
9.99695E-01 2.70586E-37
9.99829E-01 1.54231E-37
9.99924E-01 7.09505E-38
9.99981E-01 2.09295E-38
1.00000E+00 4.24835E-39
