 #
 # Subroutine ELSEPA. Elastic scattering of electrons and positrons
 #                    by neutral atoms and positive ions
 #
 # Projectile: electron
 # Kinetic energy = 4.50000E+06 eV = 1.65372E+05 a.u.
 #
 # WARNING: High-energy factorization with free-atom DF screening.
 #          Absorption, polarization and exchange corrections are
 #          switched off.
 #          Phase shifts are calculated for the bare nucleus.
 #          Scattering amplitudes are not evaluated.
 #
 # Element: Ar,  Z =  18,  atomic weight = 3.99480E+01 g/mol
 #
 # Nuclear model: Fermi distribution
 #                Average radius = 3.65776E-13 cm
 #                Skin thickness = 5.46000E-14 cm
 #
 # Number of electrons = 18
 #
 # Total elastic cross section = 1.15931E-18 cm**2 = 4.13998E-02 a0**2
 # 1st transport cross section = 2.02505E-23 cm**2 = 7.23158E-07 a0**2
 # 2nd transport cross section = 5.77200E-23 cm**2 = 2.06122E-06 a0**2
 #
 #
 # Differential cross section:                       MU=(1-COS(THETA))/2
 #
 #  THETA        MU          DCS          DCS        Sherman      error
 #  (deg)                 (cm**2/sr)   (a0**2/sr)    function
 #----------------------------------------------------------------------
0.00000E+00 2.00558E-13
7.61557E-13 2.00557E-13
1.18994E-12 2.00557E-13
1.71346E-12 2.00556E-13
2.33225E-12 2.00556E-13
3.04617E-12 2.00555E-13
3.85530E-12 2.00554E-13
4.75964E-12 2.00554E-13
5.75917E-12 2.00553E-13
6.85391E-12 2.00552E-13
8.04379E-12 2.00551E-13
9.32893E-12 2.00550E-13
1.07092E-11 2.00549E-13
1.21847E-11 2.00548E-13
1.37554E-11 2.00546E-13
1.54213E-11 2.00545E-13
1.71823E-11 2.00543E-13
1.90386E-11 2.00542E-13
2.09900E-11 2.00540E-13
2.30367E-11 2.00539E-13
2.51785E-11 2.00537E-13
2.74156E-11 2.00535E-13
2.97478E-11 2.00533E-13
3.21752E-11 2.00531E-13
3.46979E-11 2.00529E-13
3.73157E-11 2.00527E-13
4.00286E-11 2.00525E-13
4.28368E-11 2.00522E-13
4.57402E-11 2.00520E-13
4.87388E-11 2.00518E-13
5.18325E-11 2.00515E-13
5.50215E-11 2.00513E-13
5.83057E-11 2.00510E-13
6.16850E-11 2.00507E-13
6.51595E-11 2.00504E-13
6.87293E-11 2.00502E-13
7.23943E-11 2.00499E-13
7.61544E-11 2.00496E-13
1.18991E-10 2.00461E-13
1.71347E-10 2.00419E-13
2.33223E-10 2.00369E-13
3.04617E-10 2.00312E-13
3.85531E-10 2.00247E-13
4.75965E-10 2.00174E-13
5.75917E-10 2.00094E-13
6.85389E-10 2.00007E-13
8.04380E-10 1.99912E-13
9.32891E-10 1.99809E-13
1.07092E-09 1.99699E-13
1.21847E-09 1.99582E-13
1.37554E-09 1.99457E-13
1.54213E-09 1.99324E-13
1.71823E-09 1.99184E-13
1.90386E-09 1.99037E-13
2.09900E-09 1.98883E-13
2.30367E-09 1.98721E-13
2.51785E-09 1.98552E-13
2.74156E-09 1.98375E-13
2.97478E-09 1.98191E-13
3.21752E-09 1.98000E-13
3.46978E-09 1.97802E-13
3.73156E-09 1.97597E-13
4.00286E-09 1.97384E-13
4.28368E-09 1.97164E-13
4.57402E-09 1.96938E-13
4.87388E-09 1.96704E-13
5.18326E-09 1.96463E-13
5.50215E-09 1.96216E-13
5.83057E-09 1.95961E-13
6.16850E-09 1.95699E-13
6.51596E-09 1.95432E-13
6.87293E-09 1.95156E-13
7.23942E-09 1.94874E-13
7.61544E-09 1.94586E-13
1.18991E-08 1.91337E-13
1.71347E-08 1.87472E-13
2.33223E-08 1.83040E-13
3.04617E-08 1.78109E-13
3.85531E-08 1.72736E-13
4.75965E-08 1.67001E-13
5.75917E-08 1.60958E-13
6.85389E-08 1.54372E-13
8.04380E-08 1.47782E-13
9.32891E-08 1.41556E-13
1.07092E-07 1.34750E-13
1.21847E-07 1.28099E-13
1.37554E-07 1.21951E-13
1.54213E-07 1.15221E-13
1.71823E-07 1.08933E-13
1.90386E-07 1.03157E-13
2.09900E-07 9.69077E-14
2.30367E-07 9.12382E-14
2.51785E-07 8.59408E-14
2.74156E-07 8.04807E-14
2.97478E-07 7.55447E-14
3.21752E-07 7.08679E-14
3.46978E-07 6.62323E-14
3.73156E-07 6.20454E-14
4.00286E-07 5.80367E-14
4.28368E-07 5.41824E-14
4.57402E-07 5.06983E-14
4.87388E-07 4.73389E-14
5.18325E-07 4.41817E-14
5.50215E-07 4.13225E-14
5.83057E-07 3.85539E-14
6.16850E-07 3.59942E-14
6.51596E-07 3.36704E-14
6.87293E-07 3.14159E-14
7.23942E-07 2.93545E-14
7.61543E-07 2.74707E-14
1.18991E-06 1.43390E-14
1.71347E-06 8.00517E-15
2.33223E-06 4.81419E-15
3.04617E-06 3.10336E-15
3.85531E-06 2.11856E-15
4.75964E-06 1.51293E-15
5.75916E-06 1.11767E-15
6.85388E-06 8.45875E-16
8.04378E-06 6.53890E-16
9.32888E-06 5.13460E-16
1.07092E-05 4.08340E-16
1.21846E-05 3.28230E-16
1.37553E-05 2.66077E-16
1.54212E-05 2.17530E-16
1.71822E-05 1.79258E-16
1.90385E-05 1.48812E-16
2.09899E-05 1.24397E-16
2.30365E-05 1.04665E-16
2.51783E-05 8.86061E-17
2.74153E-05 7.54510E-17
2.97475E-05 6.45992E-17
3.21749E-05 5.56046E-17
3.46974E-05 4.81087E-17
3.73152E-05 4.18263E-17
4.00281E-05 3.65321E-17
4.28362E-05 3.20475E-17
4.57395E-05 2.82297E-17
4.87380E-05 2.49641E-17
5.18317E-05 2.21577E-17
5.50205E-05 1.97361E-17
5.83045E-05 1.76381E-17
6.16838E-05 1.58132E-17
6.51582E-05 1.42200E-17
6.87277E-05 1.28240E-17
7.23925E-05 1.15964E-17
7.61524E-05 1.05134E-17
9.21439E-05 7.26976E-18
1.09658E-04 5.19240E-18
1.28695E-04 3.81005E-18
1.49255E-04 2.86021E-18
1.71338E-04 2.18947E-18
1.94942E-04 1.70461E-18
2.20070E-04 1.34690E-18
2.46720E-04 1.07828E-18
2.74892E-04 8.73340E-19
3.04586E-04 7.14805E-19
3.35803E-04 5.90602E-19
3.68542E-04 4.92195E-19
4.02802E-04 4.13415E-19
4.38585E-04 3.49753E-19
4.75889E-04 2.97862E-19
5.14715E-04 2.55228E-19
5.55063E-04 2.19942E-19
5.96931E-04 1.90537E-19
6.40321E-04 1.65876E-19
6.85233E-04 1.45074E-19
7.31665E-04 1.27427E-19
7.79618E-04 1.12382E-19
8.29092E-04 9.94884E-20
8.80086E-04 8.83910E-20
9.32601E-04 7.87971E-20
9.86636E-04 7.04689E-20
1.04219E-03 6.32121E-20
1.09927E-03 5.68648E-20
1.15786E-03 5.12945E-20
1.21797E-03 4.63895E-20
1.27961E-03 4.20568E-20
1.34276E-03 3.82184E-20
1.40743E-03 3.48079E-20
1.47362E-03 3.17696E-20
1.54133E-03 2.90557E-20
1.61056E-03 2.66256E-20
1.68131E-03 2.44444E-20
1.75357E-03 2.24821E-20
1.82735E-03 2.07129E-20
1.90265E-03 1.91144E-20
1.97947E-03 1.76673E-20
2.05780E-03 1.63547E-20
2.13765E-03 1.51619E-20
2.21902E-03 1.40759E-20
2.30190E-03 1.30855E-20
2.38630E-03 1.21808E-20
2.47222E-03 1.13530E-20
2.55965E-03 1.05944E-20
2.64859E-03 9.89822E-21
2.73905E-03 9.25834E-21
2.83103E-03 8.66941E-21
2.92452E-03 8.12662E-21
3.01952E-03 7.62571E-21
3.11604E-03 7.16285E-21
3.21407E-03 6.73463E-21
3.31362E-03 6.33798E-21
3.41468E-03 5.97014E-21
3.51725E-03 5.62865E-21
3.62133E-03 5.31126E-21
3.72692E-03 5.01596E-21
3.83403E-03 4.74094E-21
3.94265E-03 4.48454E-21
4.05278E-03 4.24527E-21
4.16442E-03 4.02177E-21
4.27757E-03 3.81281E-21
4.39223E-03 3.61727E-21
4.50840E-03 3.43413E-21
4.62608E-03 3.26245E-21
4.74527E-03 3.10139E-21
4.86597E-03 2.95016E-21
4.98817E-03 2.80806E-21
5.11188E-03 2.67442E-21
5.23711E-03 2.54866E-21
5.36383E-03 2.43022E-21
5.49207E-03 2.31859E-21
5.62181E-03 2.21331E-21
5.75306E-03 2.11395E-21
5.88581E-03 2.02011E-21
6.02007E-03 1.93143E-21
6.15583E-03 1.84758E-21
6.29310E-03 1.76823E-21
6.43187E-03 1.69311E-21
6.57214E-03 1.62195E-21
6.71392E-03 1.55449E-21
6.85720E-03 1.49051E-21
7.00198E-03 1.42980E-21
7.14827E-03 1.37215E-21
7.29605E-03 1.31738E-21
7.44534E-03 1.26532E-21
7.59612E-03 1.21580E-21
7.97965E-03 1.10223E-21
8.37255E-03 1.00165E-21
8.77480E-03 9.12304E-22
9.18641E-03 8.32725E-22
9.60736E-03 7.61655E-22
1.00376E-02 6.98024E-22
1.04773E-02 6.40917E-22
1.09262E-02 5.89545E-22
1.13844E-02 5.43230E-22
1.18520E-02 5.01386E-22
1.23288E-02 4.63503E-22
1.28150E-02 4.29140E-22
1.33104E-02 3.97910E-22
1.38150E-02 3.69477E-22
1.43290E-02 3.43545E-22
1.48521E-02 3.19853E-22
1.53845E-02 2.98174E-22
1.59262E-02 2.78305E-22
1.64770E-02 2.60068E-22
1.70371E-02 2.43304E-22
1.76063E-02 2.27872E-22
1.81848E-02 2.13647E-22
1.87724E-02 2.00518E-22
1.93692E-02 1.88384E-22
1.99751E-02 1.77156E-22
2.05901E-02 1.66755E-22
2.12143E-02 1.57107E-22
2.18476E-02 1.48149E-22
2.24900E-02 1.39821E-22
2.31415E-02 1.32072E-22
2.38021E-02 1.24854E-22
2.44717E-02 1.18123E-22
2.51504E-02 1.11840E-22
2.58382E-02 1.05971E-22
2.65349E-02 1.00482E-22
2.72407E-02 9.53449E-23
2.79555E-02 9.05326E-23
2.86793E-02 8.60206E-23
2.94120E-02 8.17868E-23
3.01537E-02 7.78108E-23
3.09043E-02 7.40739E-23
3.16639E-02 7.05590E-23
3.24324E-02 6.72506E-23
3.32098E-02 6.41341E-23
3.39961E-02 6.11964E-23
3.47912E-02 5.84252E-23
3.55952E-02 5.58094E-23
3.64081E-02 5.33385E-23
3.72297E-02 5.10031E-23
3.80602E-02 4.87943E-23
3.88995E-02 4.67039E-23
3.97476E-02 4.47244E-23
4.06044E-02 4.28488E-23
4.14700E-02 4.10707E-23
4.23443E-02 3.93838E-23
4.32273E-02 3.77828E-23
4.41190E-02 3.62624E-23
4.50194E-02 3.48178E-23
4.59284E-02 3.34444E-23
4.68461E-02 3.21382E-23
4.87074E-02 2.97116E-23
5.06030E-02 2.75099E-23
5.25328E-02 2.55084E-23
5.44967E-02 2.36857E-23
5.64946E-02 2.20229E-23
5.85262E-02 2.05034E-23
6.05914E-02 1.91127E-23
6.26901E-02 1.78378E-23
6.48222E-02 1.66674E-23
6.69873E-02 1.55913E-23
6.91854E-02 1.46006E-23
7.14163E-02 1.36872E-23
7.36799E-02 1.28440E-23
7.59760E-02 1.20646E-23
7.83043E-02 1.13433E-23
8.06647E-02 1.06749E-23
8.30571E-02 1.00549E-23
8.54812E-02 9.47919E-24
8.79369E-02 8.94392E-24
9.04240E-02 8.44577E-24
9.29422E-02 7.98168E-24
9.54915E-02 7.54889E-24
9.80716E-02 7.14491E-24
1.00682E-01 6.76746E-24
1.03323E-01 6.41448E-24
1.05995E-01 6.08409E-24
1.08696E-01 5.77457E-24
1.11427E-01 5.48435E-24
1.14188E-01 5.21203E-24
1.16978E-01 4.95627E-24
1.19797E-01 4.71590E-24
1.22645E-01 4.48981E-24
1.25522E-01 4.27699E-24
1.28428E-01 4.07653E-24
1.31361E-01 3.88757E-24
1.34323E-01 3.70932E-24
1.37313E-01 3.54108E-24
1.40330E-01 3.38217E-24
1.43375E-01 3.23197E-24
1.46447E-01 3.08993E-24
1.49545E-01 2.95551E-24
1.52671E-01 2.82824E-24
1.55823E-01 2.70765E-24
1.59001E-01 2.59334E-24
1.62205E-01 2.48491E-24
1.65435E-01 2.38202E-24
1.68690E-01 2.28431E-24
1.71970E-01 2.19149E-24
1.75276E-01 2.10325E-24
1.78606E-01 2.01935E-24
1.81961E-01 1.93951E-24
1.85340E-01 1.86351E-24
1.88743E-01 1.79113E-24
1.92169E-01 1.72216E-24
1.95619E-01 1.65642E-24
1.99092E-01 1.59372E-24
2.02589E-01 1.53390E-24
2.06107E-01 1.47680E-24
2.09649E-01 1.42227E-24
2.13212E-01 1.37019E-24
2.16797E-01 1.32040E-24
2.20404E-01 1.27281E-24
2.24032E-01 1.22729E-24
2.27680E-01 1.18373E-24
2.31350E-01 1.14204E-24
2.35040E-01 1.10211E-24
2.38751E-01 1.06387E-24
2.42481E-01 1.02723E-24
2.46231E-01 9.92105E-25
2.50000E-01 9.58424E-25
2.53788E-01 9.26116E-25
2.57595E-01 8.95116E-25
2.61421E-01 8.65360E-25
2.65264E-01 8.36789E-25
2.69126E-01 8.09348E-25
2.73005E-01 7.82984E-25
2.76901E-01 7.57646E-25
2.80814E-01 7.33288E-25
2.84744E-01 7.09864E-25
2.88691E-01 6.87332E-25
2.92653E-01 6.65652E-25
2.96632E-01 6.44786E-25
3.00625E-01 6.24698E-25
3.04634E-01 6.05353E-25
3.08658E-01 5.86719E-25
3.12697E-01 5.68765E-25
3.16749E-01 5.51462E-25
3.20816E-01 5.34781E-25
3.24896E-01 5.18697E-25
3.28990E-01 5.03184E-25
3.33097E-01 4.88218E-25
3.37216E-01 4.73776E-25
3.41348E-01 4.59838E-25
3.45492E-01 4.46381E-25
3.49647E-01 4.33386E-25
3.53814E-01 4.20836E-25
3.57992E-01 4.08711E-25
3.62181E-01 3.96994E-25
3.66381E-01 3.85670E-25
3.70590E-01 3.74723E-25
3.74810E-01 3.64139E-25
3.79039E-01 3.53902E-25
3.83277E-01 3.44000E-25
3.87524E-01 3.34419E-25
3.91780E-01 3.25148E-25
3.96044E-01 3.16175E-25
4.00316E-01 3.07488E-25
4.04596E-01 2.99076E-25
4.08882E-01 2.90930E-25
4.13176E-01 2.83040E-25
4.17476E-01 2.75395E-25
4.21783E-01 2.67988E-25
4.26095E-01 2.60808E-25
4.30413E-01 2.53849E-25
4.34737E-01 2.47102E-25
4.39065E-01 2.40560E-25
4.43398E-01 2.34215E-25
4.47736E-01 2.28061E-25
4.52077E-01 2.22090E-25
4.56422E-01 2.16296E-25
4.60770E-01 2.10673E-25
4.65122E-01 2.05215E-25
4.69476E-01 1.99917E-25
4.73832E-01 1.94773E-25
4.78190E-01 1.89777E-25
4.82550E-01 1.84926E-25
4.86912E-01 1.80213E-25
4.91274E-01 1.75634E-25
4.95637E-01 1.71185E-25
5.00000E-01 1.66861E-25
5.04363E-01 1.62659E-25
5.08726E-01 1.58574E-25
5.13088E-01 1.54603E-25
5.17450E-01 1.50741E-25
5.21810E-01 1.46986E-25
5.26168E-01 1.43334E-25
5.30524E-01 1.39781E-25
5.34878E-01 1.36325E-25
5.39230E-01 1.32962E-25
5.43578E-01 1.29689E-25
5.47923E-01 1.26504E-25
5.52264E-01 1.23404E-25
5.56602E-01 1.20387E-25
5.60935E-01 1.17449E-25
5.65263E-01 1.14588E-25
5.69587E-01 1.11802E-25
5.73905E-01 1.09089E-25
5.78217E-01 1.06446E-25
5.82524E-01 1.03872E-25
5.86824E-01 1.01364E-25
5.91118E-01 9.89200E-26
5.95404E-01 9.65386E-26
5.99684E-01 9.42178E-26
6.03956E-01 9.19557E-26
6.08220E-01 8.97508E-26
6.12476E-01 8.76012E-26
6.16723E-01 8.55055E-26
6.20961E-01 8.34620E-26
6.25190E-01 8.14692E-26
6.29410E-01 7.95258E-26
6.33619E-01 7.76303E-26
6.37819E-01 7.57813E-26
6.42008E-01 7.39775E-26
6.46186E-01 7.22178E-26
6.50353E-01 7.05007E-26
6.54508E-01 6.88253E-26
6.58652E-01 6.71902E-26
6.62784E-01 6.55945E-26
6.66903E-01 6.40369E-26
6.71010E-01 6.25166E-26
6.75104E-01 6.10324E-26
6.79184E-01 5.95834E-26
6.83251E-01 5.81686E-26
6.87303E-01 5.67872E-26
6.91342E-01 5.54382E-26
6.95366E-01 5.41208E-26
6.99375E-01 5.28341E-26
7.03368E-01 5.15774E-26
7.07347E-01 5.03498E-26
7.11309E-01 4.91506E-26
7.15256E-01 4.79791E-26
7.19186E-01 4.68345E-26
7.23099E-01 4.57161E-26
7.26995E-01 4.46233E-26
7.30874E-01 4.35554E-26
7.34736E-01 4.25118E-26
7.38579E-01 4.14919E-26
7.42405E-01 4.04951E-26
7.46212E-01 3.95207E-26
7.50000E-01 3.85683E-26
7.53769E-01 3.76373E-26
7.57519E-01 3.67272E-26
7.61249E-01 3.58374E-26
7.64960E-01 3.49674E-26
7.68650E-01 3.41168E-26
7.72320E-01 3.32851E-26
7.75968E-01 3.24719E-26
7.79596E-01 3.16766E-26
7.83203E-01 3.08989E-26
7.86788E-01 3.01384E-26
7.90351E-01 2.93946E-26
7.93893E-01 2.86671E-26
7.97411E-01 2.79556E-26
8.00908E-01 2.72596E-26
8.04381E-01 2.65789E-26
8.07831E-01 2.59131E-26
8.11257E-01 2.52618E-26
8.14660E-01 2.46247E-26
8.18039E-01 2.40014E-26
8.21394E-01 2.33917E-26
8.24724E-01 2.27953E-26
8.28030E-01 2.22118E-26
8.31310E-01 2.16410E-26
8.34565E-01 2.10825E-26
8.37795E-01 2.05361E-26
8.40999E-01 2.00016E-26
8.44177E-01 1.94786E-26
8.47329E-01 1.89670E-26
8.50455E-01 1.84665E-26
8.53553E-01 1.79767E-26
8.56625E-01 1.74976E-26
8.59670E-01 1.70289E-26
8.62687E-01 1.65703E-26
8.65677E-01 1.61217E-26
8.68639E-01 1.56828E-26
8.71572E-01 1.52534E-26
8.74478E-01 1.48334E-26
8.77355E-01 1.44225E-26
8.80203E-01 1.40205E-26
8.83022E-01 1.36274E-26
8.85812E-01 1.32428E-26
8.88573E-01 1.28667E-26
8.91304E-01 1.24988E-26
8.94005E-01 1.21390E-26
8.96677E-01 1.17871E-26
8.99318E-01 1.14430E-26
9.01928E-01 1.11065E-26
9.04508E-01 1.07775E-26
9.07058E-01 1.04559E-26
9.09576E-01 1.01414E-26
9.12063E-01 9.83404E-27
9.14519E-01 9.53357E-27
9.16943E-01 9.23991E-27
9.19335E-01 8.95292E-27
9.21696E-01 8.67249E-27
9.24024E-01 8.39849E-27
9.26320E-01 8.13082E-27
9.28584E-01 7.86935E-27
9.30815E-01 7.61399E-27
9.33013E-01 7.36462E-27
9.35178E-01 7.12114E-27
9.37310E-01 6.88346E-27
9.39409E-01 6.65147E-27
9.41474E-01 6.42508E-27
9.43505E-01 6.20419E-27
9.45503E-01 5.98873E-27
9.47467E-01 5.77859E-27
9.49397E-01 5.57370E-27
9.51293E-01 5.37398E-27
9.53154E-01 5.17934E-27
9.54981E-01 4.98970E-27
9.56773E-01 4.80500E-27
9.58530E-01 4.62515E-27
9.60252E-01 4.45009E-27
9.61940E-01 4.27974E-27
9.63592E-01 4.11405E-27
9.65209E-01 3.95295E-27
9.66790E-01 3.79636E-27
9.68336E-01 3.64424E-27
9.69846E-01 3.49652E-27
9.71321E-01 3.35315E-27
9.72759E-01 3.21407E-27
9.74162E-01 3.07922E-27
9.75528E-01 2.94856E-27
9.76858E-01 2.82203E-27
9.78152E-01 2.69959E-27
9.79410E-01 2.58119E-27
9.80631E-01 2.46679E-27
9.81815E-01 2.35633E-27
9.82963E-01 2.24979E-27
9.84074E-01 2.14711E-27
9.85148E-01 2.04827E-27
9.86185E-01 1.95322E-27
9.87185E-01 1.86192E-27
9.88148E-01 1.77435E-27
9.89074E-01 1.69047E-27
9.89962E-01 1.61025E-27
9.90814E-01 1.53365E-27
9.91627E-01 1.46066E-27
9.92404E-01 1.39124E-27
9.93143E-01 1.32537E-27
9.93844E-01 1.26301E-27
9.94508E-01 1.20416E-27
9.95134E-01 1.14879E-27
9.95722E-01 1.09688E-27
9.96273E-01 1.04840E-27
9.96786E-01 1.00334E-27
9.97261E-01 9.61690E-28
9.97698E-01 9.23426E-28
9.98097E-01 8.88535E-28
9.98459E-01 8.57006E-28
9.98782E-01 8.28827E-28
9.99067E-01 8.03988E-28
9.99315E-01 7.82479E-28
9.99524E-01 7.64292E-28
9.99695E-01 7.49421E-28
9.99829E-01 7.37860E-28
9.99924E-01 7.29606E-28
9.99981E-01 7.24654E-28
1.00000E+00 7.23007E-28
