 #
 # Subroutine ELSEPA. Elastic scattering of electrons and positrons
 #                    by neutral atoms and positive ions
 #
 # Projectile: electron
 # Kinetic energy = 1.50000E+07 eV = 5.51240E+05 a.u.
 #
 # WARNING: High-energy factorization with free-atom DF screening.
 #          Absorption, polarization and exchange corrections are
 #          switched off.
 #          Phase shifts are calculated for the bare nucleus.
 #          Scattering amplitudes are not evaluated.
 #
 # Element: Ar,  Z =  18,  atomic weight = 3.99480E+01 g/mol
 #
 # Nuclear model: Fermi distribution
 #                Average radius = 3.65776E-13 cm
 #                Skin thickness = 5.46000E-14 cm
 #
 # Number of electrons = 18
 #
 # Total elastic cross section = 1.14726E-18 cm**2 = 4.09693E-02 a0**2
 # 1st transport cross section = 2.45981E-24 cm**2 = 8.78416E-08 a0**2
 # 2nd transport cross section = 7.08367E-24 cm**2 = 2.52963E-07 a0**2
 #
 #
 # Differential cross section:                       MU=(1-COS(THETA))/2
 #
 #  THETA        MU          DCS          DCS        Sherman      error
 #  (deg)                 (cm**2/sr)   (a0**2/sr)    function
 #----------------------------------------------------------------------
0.00000E+00 1.92163E-12
7.61557E-13 1.92157E-12
1.18994E-12 1.92154E-12
1.71346E-12 1.92150E-12
2.33225E-12 1.92145E-12
3.04617E-12 1.92140E-12
3.85530E-12 1.92134E-12
4.75964E-12 1.92127E-12
5.75917E-12 1.92119E-12
6.85391E-12 1.92111E-12
8.04379E-12 1.92102E-12
9.32893E-12 1.92092E-12
1.07092E-11 1.92082E-12
1.21847E-11 1.92071E-12
1.37554E-11 1.92059E-12
1.54213E-11 1.92047E-12
1.71823E-11 1.92033E-12
1.90386E-11 1.92020E-12
2.09900E-11 1.92005E-12
2.30367E-11 1.91990E-12
2.51785E-11 1.91974E-12
2.74156E-11 1.91957E-12
2.97478E-11 1.91940E-12
3.21752E-11 1.91922E-12
3.46979E-11 1.91903E-12
3.73157E-11 1.91883E-12
4.00286E-11 1.91863E-12
4.28368E-11 1.91842E-12
4.57402E-11 1.91821E-12
4.87388E-11 1.91798E-12
5.18325E-11 1.91775E-12
5.50215E-11 1.91752E-12
5.83057E-11 1.91727E-12
6.16850E-11 1.91702E-12
6.51595E-11 1.91676E-12
6.87293E-11 1.91650E-12
7.23943E-11 1.91623E-12
7.61544E-11 1.91595E-12
1.18991E-10 1.91278E-12
1.71347E-10 1.90892E-12
2.33223E-10 1.90437E-12
3.04617E-10 1.89915E-12
3.85531E-10 1.89325E-12
4.75965E-10 1.88670E-12
5.75917E-10 1.87949E-12
6.85389E-10 1.87164E-12
8.04380E-10 1.86316E-12
9.32891E-10 1.85406E-12
1.07092E-09 1.84435E-12
1.21847E-09 1.83406E-12
1.37554E-09 1.82319E-12
1.54213E-09 1.81176E-12
1.71823E-09 1.79979E-12
1.90386E-09 1.78729E-12
2.09900E-09 1.77429E-12
2.30367E-09 1.76079E-12
2.51785E-09 1.74681E-12
2.74156E-09 1.73236E-12
2.97478E-09 1.71748E-12
3.21752E-09 1.70218E-12
3.46978E-09 1.68649E-12
3.73156E-09 1.67041E-12
4.00286E-09 1.65398E-12
4.28368E-09 1.63721E-12
4.57402E-09 1.62012E-12
4.87388E-09 1.60273E-12
5.18326E-09 1.58507E-12
5.50215E-09 1.56712E-12
5.83057E-09 1.54893E-12
6.16850E-09 1.53052E-12
6.51596E-09 1.51133E-12
6.87293E-09 1.49087E-12
7.23942E-09 1.47070E-12
7.61544E-09 1.45083E-12
1.18991E-08 1.25536E-12
1.71347E-08 1.06353E-12
2.33223E-08 8.86142E-13
3.04617E-08 7.29181E-13
3.85531E-08 5.94798E-13
4.75965E-08 4.82543E-13
5.75917E-08 3.90454E-13
6.85389E-08 3.15511E-13
8.04380E-08 2.55495E-13
9.32891E-08 2.07681E-13
1.07092E-07 1.69660E-13
1.21847E-07 1.39421E-13
1.37554E-07 1.15326E-13
1.54213E-07 9.60652E-14
1.71823E-07 8.05996E-14
1.90386E-07 6.81205E-14
2.09900E-07 5.79957E-14
2.30367E-07 4.97299E-14
2.51785E-07 4.29357E-14
2.74156E-07 3.73144E-14
2.97478E-07 3.26314E-14
3.21752E-07 2.87031E-14
3.46978E-07 2.53856E-14
3.73156E-07 2.25656E-14
4.00286E-07 2.01531E-14
4.28368E-07 1.80764E-14
4.57402E-07 1.62782E-14
4.87388E-07 1.47123E-14
5.18325E-07 1.33412E-14
5.50215E-07 1.21342E-14
5.83057E-07 1.10668E-14
6.16850E-07 1.01190E-14
6.51596E-07 9.27032E-15
6.87293E-07 8.50632E-15
7.23942E-07 7.82810E-15
7.61543E-07 7.22404E-15
1.18991E-06 3.45970E-15
1.71347E-06 1.83098E-15
2.33223E-06 1.04188E-15
3.04617E-06 6.29528E-16
3.85531E-06 4.00711E-16
4.75964E-06 2.66670E-16
5.75916E-06 1.84296E-16
6.85388E-06 1.31508E-16
8.04378E-06 9.64299E-17
9.32888E-06 7.23710E-17
1.07092E-05 5.54097E-17
1.21846E-05 4.31631E-17
1.37553E-05 3.41353E-17
1.54212E-05 2.73572E-17
1.71822E-05 2.21847E-17
1.90385E-05 1.81808E-17
2.09899E-05 1.50422E-17
2.30365E-05 1.25524E-17
2.51783E-05 1.05563E-17
2.74153E-05 8.94110E-18
2.97475E-05 7.62287E-18
3.21749E-05 6.53843E-18
3.46974E-05 5.63979E-18
3.73152E-05 4.89008E-18
4.00281E-05 4.26066E-18
4.28362E-05 3.72907E-18
4.57395E-05 3.27762E-18
4.87380E-05 2.89227E-18
5.18317E-05 2.56177E-18
5.50205E-05 2.27701E-18
5.83045E-05 2.03065E-18
6.16838E-05 1.81665E-18
6.51582E-05 1.63003E-18
6.87277E-05 1.46675E-18
7.23925E-05 1.32337E-18
7.61524E-05 1.19705E-18
9.21439E-05 8.20142E-19
1.09658E-04 5.80414E-19
1.28695E-04 4.22147E-19
1.49255E-04 3.14290E-19
1.71338E-04 2.38768E-19
1.94942E-04 1.84618E-19
2.20070E-04 1.44981E-19
2.46720E-04 1.15432E-19
2.74892E-04 9.30419E-20
3.04586E-04 7.58272E-20
3.35803E-04 6.24164E-20
3.68542E-04 5.18444E-20
4.02802E-04 4.34195E-20
4.38585E-04 3.66392E-20
4.75889E-04 3.11327E-20
5.14715E-04 2.66234E-20
5.55063E-04 2.29022E-20
5.96931E-04 1.98094E-20
6.40321E-04 1.72217E-20
6.85233E-04 1.50435E-20
7.31665E-04 1.31992E-20
7.79618E-04 1.16291E-20
8.29092E-04 1.02857E-20
8.80086E-04 9.13097E-21
9.32601E-04 8.13399E-21
9.86636E-04 7.26957E-21
1.04219E-03 6.51710E-21
1.09927E-03 5.85961E-21
1.15786E-03 5.28307E-21
1.21797E-03 4.77580E-21
1.27961E-03 4.32804E-21
1.34276E-03 3.93160E-21
1.40743E-03 3.57959E-21
1.47362E-03 3.26615E-21
1.54133E-03 2.98632E-21
1.61056E-03 2.73586E-21
1.68131E-03 2.51114E-21
1.75357E-03 2.30906E-21
1.82735E-03 2.12693E-21
1.90265E-03 1.96244E-21
1.97947E-03 1.81356E-21
2.05780E-03 1.67855E-21
2.13765E-03 1.55590E-21
2.21902E-03 1.44426E-21
2.30190E-03 1.34247E-21
2.38630E-03 1.24950E-21
2.47222E-03 1.16446E-21
2.55965E-03 1.08654E-21
2.64859E-03 1.01504E-21
2.73905E-03 9.49334E-22
2.83103E-03 8.88868E-22
2.92452E-03 8.33148E-22
3.01952E-03 7.81733E-22
3.11604E-03 7.34230E-22
3.21407E-03 6.90286E-22
3.31362E-03 6.49587E-22
3.41468E-03 6.11848E-22
3.51725E-03 5.76815E-22
3.62133E-03 5.44258E-22
3.72692E-03 5.13970E-22
3.83403E-03 4.85763E-22
3.94265E-03 4.59469E-22
4.05278E-03 4.34932E-22
4.16442E-03 4.12015E-22
4.27757E-03 3.90590E-22
4.39223E-03 3.70543E-22
4.50840E-03 3.51767E-22
4.62608E-03 3.34168E-22
4.74527E-03 3.17658E-22
4.86597E-03 3.02156E-22
4.98817E-03 2.87591E-22
5.11188E-03 2.73894E-22
5.23711E-03 2.61005E-22
5.36383E-03 2.48867E-22
5.49207E-03 2.37427E-22
5.62181E-03 2.26638E-22
5.75306E-03 2.16457E-22
5.88581E-03 2.06842E-22
6.02007E-03 1.97755E-22
6.15583E-03 1.89164E-22
6.29310E-03 1.81035E-22
6.43187E-03 1.73338E-22
6.57214E-03 1.66047E-22
6.71392E-03 1.59137E-22
6.85720E-03 1.52582E-22
7.00198E-03 1.46363E-22
7.14827E-03 1.40458E-22
7.29605E-03 1.34848E-22
7.44534E-03 1.29516E-22
7.59612E-03 1.24445E-22
7.97965E-03 1.12815E-22
8.37255E-03 1.02515E-22
8.77480E-03 9.33664E-23
9.18641E-03 8.52178E-23
9.60736E-03 7.79407E-23
1.00376E-02 7.14255E-23
1.04773E-02 6.55783E-23
1.09262E-02 6.03186E-23
1.13844E-02 5.55767E-23
1.18520E-02 5.12927E-23
1.23288E-02 4.74144E-23
1.28150E-02 4.38965E-23
1.33104E-02 4.06995E-23
1.38150E-02 3.77888E-23
1.43290E-02 3.51343E-23
1.48521E-02 3.27092E-23
1.53845E-02 3.04901E-23
1.59262E-02 2.84564E-23
1.64770E-02 2.65898E-23
1.70371E-02 2.48740E-23
1.76063E-02 2.32947E-23
1.81848E-02 2.18389E-23
1.87724E-02 2.04953E-23
1.93692E-02 1.92536E-23
1.99751E-02 1.81047E-23
2.05901E-02 1.70403E-23
2.12143E-02 1.60532E-23
2.18476E-02 1.51366E-23
2.24900E-02 1.42846E-23
2.31415E-02 1.34918E-23
2.38021E-02 1.27533E-23
2.44717E-02 1.20647E-23
2.51504E-02 1.14220E-23
2.58382E-02 1.08216E-23
2.65349E-02 1.02602E-23
2.72407E-02 9.73474E-24
2.79555E-02 9.24253E-24
2.86793E-02 8.78108E-24
2.94120E-02 8.34809E-24
3.01537E-02 7.94149E-24
3.09043E-02 7.55936E-24
3.16639E-02 7.19995E-24
3.24324E-02 6.86166E-24
3.32098E-02 6.54302E-24
3.39961E-02 6.24267E-24
3.47912E-02 5.95937E-24
3.55952E-02 5.69195E-24
3.64081E-02 5.43938E-24
3.72297E-02 5.20066E-24
3.80602E-02 4.97489E-24
3.88995E-02 4.76124E-24
3.97476E-02 4.55893E-24
4.06044E-02 4.36726E-24
4.14700E-02 4.18554E-24
4.23443E-02 4.01318E-24
4.32273E-02 3.84959E-24
4.41190E-02 3.69425E-24
4.50194E-02 3.54666E-24
4.59284E-02 3.40636E-24
4.68461E-02 3.27292E-24
4.87074E-02 3.02506E-24
5.06030E-02 2.80019E-24
5.25328E-02 2.59581E-24
5.44967E-02 2.40970E-24
5.64946E-02 2.23994E-24
5.85262E-02 2.08484E-24
6.05914E-02 1.94290E-24
6.26901E-02 1.81281E-24
6.48222E-02 1.69338E-24
6.69873E-02 1.58360E-24
6.91854E-02 1.48254E-24
7.14163E-02 1.38939E-24
7.36799E-02 1.30340E-24
7.59760E-02 1.22394E-24
7.83043E-02 1.15041E-24
8.06647E-02 1.08229E-24
8.30571E-02 1.01911E-24
8.54812E-02 9.60448E-25
8.79369E-02 9.05920E-25
9.04240E-02 8.55181E-25
9.29422E-02 8.07921E-25
9.54915E-02 7.63856E-25
9.80716E-02 7.22732E-25
1.00682E-01 6.84315E-25
1.03323E-01 6.48396E-25
1.05995E-01 6.14781E-25
1.08696E-01 5.83296E-25
1.11427E-01 5.53782E-25
1.14188E-01 5.26091E-25
1.16978E-01 5.00091E-25
1.19797E-01 4.75660E-25
1.22645E-01 4.52685E-25
1.25522E-01 4.31064E-25
1.28428E-01 4.10702E-25
1.31361E-01 3.91512E-25
1.34323E-01 3.73415E-25
1.37313E-01 3.56337E-25
1.40330E-01 3.40209E-25
1.43375E-01 3.24970E-25
1.46447E-01 3.10562E-25
1.49545E-01 2.96930E-25
1.52671E-01 2.84025E-25
1.55823E-01 2.71802E-25
1.59001E-01 2.60217E-25
1.62205E-01 2.49232E-25
1.65435E-01 2.38809E-25
1.68690E-01 2.28914E-25
1.71970E-01 2.19517E-25
1.75276E-01 2.10586E-25
1.78606E-01 2.02096E-25
1.81961E-01 1.94019E-25
1.85340E-01 1.86333E-25
1.88743E-01 1.79015E-25
1.92169E-01 1.72043E-25
1.95619E-01 1.65400E-25
1.99092E-01 1.59066E-25
2.02589E-01 1.53024E-25
2.06107E-01 1.47258E-25
2.09649E-01 1.41754E-25
2.13212E-01 1.36498E-25
2.16797E-01 1.31476E-25
2.20404E-01 1.26676E-25
2.24032E-01 1.22086E-25
2.27680E-01 1.17696E-25
2.31350E-01 1.13495E-25
2.35040E-01 1.09473E-25
2.38751E-01 1.05622E-25
2.42481E-01 1.01934E-25
2.46231E-01 9.83987E-26
2.50000E-01 9.50102E-26
2.53788E-01 9.17609E-26
2.57595E-01 8.86440E-26
2.61421E-01 8.56533E-26
2.65264E-01 8.27827E-26
2.69126E-01 8.00264E-26
2.73005E-01 7.73792E-26
2.76901E-01 7.48360E-26
2.80814E-01 7.23918E-26
2.84744E-01 7.00423E-26
2.88691E-01 6.77830E-26
2.92653E-01 6.56098E-26
2.96632E-01 6.35190E-26
3.00625E-01 6.15069E-26
3.04634E-01 5.95699E-26
3.08658E-01 5.77047E-26
3.12697E-01 5.59083E-26
3.16749E-01 5.41776E-26
3.20816E-01 5.25098E-26
3.24896E-01 5.09022E-26
3.28990E-01 4.93523E-26
3.33097E-01 4.78577E-26
3.37216E-01 4.64159E-26
3.41348E-01 4.50249E-26
3.45492E-01 4.36825E-26
3.49647E-01 4.23868E-26
3.53814E-01 4.11357E-26
3.57992E-01 3.99276E-26
3.62181E-01 3.87607E-26
3.66381E-01 3.76333E-26
3.70590E-01 3.65439E-26
3.74810E-01 3.54909E-26
3.79039E-01 3.44730E-26
3.83277E-01 3.34888E-26
3.87524E-01 3.25369E-26
3.91780E-01 3.16162E-26
3.96044E-01 3.07254E-26
4.00316E-01 2.98634E-26
4.04596E-01 2.90291E-26
4.08882E-01 2.82215E-26
4.13176E-01 2.74395E-26
4.17476E-01 2.66823E-26
4.21783E-01 2.59488E-26
4.26095E-01 2.52383E-26
4.30413E-01 2.45499E-26
4.34737E-01 2.38827E-26
4.39065E-01 2.32361E-26
4.43398E-01 2.26093E-26
4.47736E-01 2.20015E-26
4.52077E-01 2.14122E-26
4.56422E-01 2.08406E-26
4.60770E-01 2.02861E-26
4.65122E-01 1.97482E-26
4.69476E-01 1.92263E-26
4.73832E-01 1.87197E-26
4.78190E-01 1.82280E-26
4.82550E-01 1.77507E-26
4.86912E-01 1.72873E-26
4.91274E-01 1.68373E-26
4.95637E-01 1.64003E-26
5.00000E-01 1.59758E-26
5.04363E-01 1.55634E-26
5.08726E-01 1.51627E-26
5.13088E-01 1.47734E-26
5.17450E-01 1.43950E-26
5.21810E-01 1.40272E-26
5.26168E-01 1.36696E-26
5.30524E-01 1.33220E-26
5.34878E-01 1.29840E-26
5.39230E-01 1.26553E-26
5.43578E-01 1.23357E-26
5.47923E-01 1.20247E-26
5.52264E-01 1.17222E-26
5.56602E-01 1.14278E-26
5.60935E-01 1.11414E-26
5.65263E-01 1.08627E-26
5.69587E-01 1.05914E-26
5.73905E-01 1.03273E-26
5.78217E-01 1.00702E-26
5.82524E-01 9.81991E-27
5.86824E-01 9.57618E-27
5.91118E-01 9.33884E-27
5.95404E-01 9.10768E-27
5.99684E-01 8.88253E-27
6.03956E-01 8.66319E-27
6.08220E-01 8.44951E-27
6.12476E-01 8.24132E-27
6.16723E-01 8.03844E-27
6.20961E-01 7.84074E-27
6.25190E-01 7.64806E-27
6.29410E-01 7.46024E-27
6.33619E-01 7.27717E-27
6.37819E-01 7.09868E-27
6.42008E-01 6.92467E-27
6.46186E-01 6.75499E-27
6.50353E-01 6.58953E-27
6.54508E-01 6.42816E-27
6.58652E-01 6.27078E-27
6.62784E-01 6.11727E-27
6.66903E-01 5.96752E-27
6.71010E-01 5.82143E-27
6.75104E-01 5.67890E-27
6.79184E-01 5.53983E-27
6.83251E-01 5.40413E-27
6.87303E-01 5.27170E-27
6.91342E-01 5.14246E-27
6.95366E-01 5.01631E-27
6.99375E-01 4.89318E-27
7.03368E-01 4.77299E-27
7.07347E-01 4.65566E-27
7.11309E-01 4.54110E-27
7.15256E-01 4.42926E-27
7.19186E-01 4.32005E-27
7.23099E-01 4.21340E-27
7.26995E-01 4.10926E-27
7.30874E-01 4.00756E-27
7.34736E-01 3.90822E-27
7.38579E-01 3.81120E-27
7.42405E-01 3.71643E-27
7.46212E-01 3.62385E-27
7.50000E-01 3.53341E-27
7.53769E-01 3.44506E-27
7.57519E-01 3.35874E-27
7.61249E-01 3.27440E-27
7.64960E-01 3.19199E-27
7.68650E-01 3.11146E-27
7.72320E-01 3.03277E-27
7.75968E-01 2.95587E-27
7.79596E-01 2.88072E-27
7.83203E-01 2.80727E-27
7.86788E-01 2.73548E-27
7.90351E-01 2.66532E-27
7.93893E-01 2.59674E-27
7.97411E-01 2.52970E-27
8.00908E-01 2.46417E-27
8.04381E-01 2.40012E-27
8.07831E-01 2.33750E-27
8.11257E-01 2.27628E-27
8.14660E-01 2.21643E-27
8.18039E-01 2.15792E-27
8.21394E-01 2.10072E-27
8.24724E-01 2.04479E-27
8.28030E-01 1.99011E-27
8.31310E-01 1.93665E-27
8.34565E-01 1.88437E-27
8.37795E-01 1.83326E-27
8.40999E-01 1.78329E-27
8.44177E-01 1.73442E-27
8.47329E-01 1.68665E-27
8.50455E-01 1.63993E-27
8.53553E-01 1.59425E-27
8.56625E-01 1.54959E-27
8.59670E-01 1.50592E-27
8.62687E-01 1.46322E-27
8.65677E-01 1.42147E-27
8.68639E-01 1.38065E-27
8.71572E-01 1.34074E-27
8.74478E-01 1.30172E-27
8.77355E-01 1.26357E-27
8.80203E-01 1.22627E-27
8.83022E-01 1.18980E-27
8.85812E-01 1.15415E-27
8.88573E-01 1.11931E-27
8.91304E-01 1.08524E-27
8.94005E-01 1.05194E-27
8.96677E-01 1.01940E-27
8.99318E-01 9.87590E-28
9.01928E-01 9.56502E-28
9.04508E-01 9.26121E-28
9.07058E-01 8.96433E-28
9.09576E-01 8.67425E-28
9.12063E-01 8.39082E-28
9.14519E-01 8.11393E-28
9.16943E-01 7.84344E-28
9.19335E-01 7.57924E-28
9.21696E-01 7.32119E-28
9.24024E-01 7.06920E-28
9.26320E-01 6.82314E-28
9.28584E-01 6.58290E-28
9.30815E-01 6.34839E-28
9.33013E-01 6.11948E-28
9.35178E-01 5.89609E-28
9.37310E-01 5.67812E-28
9.39409E-01 5.46546E-28
9.41474E-01 5.25804E-28
9.43505E-01 5.05574E-28
9.45503E-01 4.85850E-28
9.47467E-01 4.66622E-28
9.49397E-01 4.47882E-28
9.51293E-01 4.29623E-28
9.53154E-01 4.11835E-28
9.54981E-01 3.94512E-28
9.56773E-01 3.77646E-28
9.58530E-01 3.61231E-28
9.60252E-01 3.45258E-28
9.61940E-01 3.29722E-28
9.63592E-01 3.14616E-28
9.65209E-01 2.99934E-28
9.66790E-01 2.85668E-28
9.68336E-01 2.71815E-28
9.69846E-01 2.58367E-28
9.71321E-01 2.45319E-28
9.72759E-01 2.32666E-28
9.74162E-01 2.20402E-28
9.75528E-01 2.08523E-28
9.76858E-01 1.97023E-28
9.78152E-01 1.85898E-28
9.79410E-01 1.75143E-28
9.80631E-01 1.64754E-28
9.81815E-01 1.54727E-28
9.82963E-01 1.45058E-28
9.84074E-01 1.35742E-28
9.85148E-01 1.26775E-28
9.86185E-01 1.18155E-28
9.87185E-01 1.09878E-28
9.88148E-01 1.01940E-28
9.89074E-01 9.43389E-29
9.89962E-01 8.70704E-29
9.90814E-01 8.01322E-29
9.91627E-01 7.35215E-29
9.92404E-01 6.72355E-29
9.93143E-01 6.12719E-29
9.93844E-01 5.56281E-29
9.94508E-01 5.03021E-29
9.95134E-01 4.52915E-29
9.95722E-01 4.05945E-29
9.96273E-01 3.62092E-29
9.96786E-01 3.21338E-29
9.97261E-01 2.83667E-29
9.97698E-01 2.49065E-29
9.98097E-01 2.17517E-29
9.98459E-01 1.89011E-29
9.98782E-01 1.63536E-29
9.99067E-01 1.41081E-29
9.99315E-01 1.21639E-29
9.99524E-01 1.05200E-29
9.99695E-01 9.17595E-30
9.99829E-01 8.13111E-30
9.99924E-01 7.38507E-30
9.99981E-01 6.93758E-30
1.00000E+00 6.78853E-30
