 #
 # Subroutine ELSEPA. Elastic scattering of electrons and positrons
 #                    by neutral atoms and positive ions
 #
 # Projectile: electron
 # Kinetic energy = 3.00000E+07 eV = 1.10248E+06 a.u.
 #
 # WARNING: High-energy factorization with free-atom DF screening.
 #          Absorption, polarization and exchange corrections are
 #          switched off.
 #          Phase shifts are calculated for the bare nucleus.
 #          Scattering amplitudes are not evaluated.
 #
 # Element: Ar,  Z =  18,  atomic weight = 3.99480E+01 g/mol
 #
 # Nuclear model: Fermi distribution
 #                Average radius = 3.65776E-13 cm
 #                Skin thickness = 5.46000E-14 cm
 #
 # Number of electrons = 18
 #
 # Total elastic cross section = 1.14577E-18 cm**2 = 4.09162E-02 a0**2
 # 1st transport cross section = 6.87303E-25 cm**2 = 2.45440E-08 a0**2
 # 2nd transport cross section = 1.99437E-24 cm**2 = 7.12201E-08 a0**2
 #
 #
 # Differential cross section:                       MU=(1-COS(THETA))/2
 #
 #  THETA        MU          DCS          DCS        Sherman      error
 #  (deg)                 (cm**2/sr)   (a0**2/sr)    function
 #----------------------------------------------------------------------
0.00000E+00 7.43539E-12
7.61557E-13 7.43450E-12
1.18994E-12 7.43401E-12
1.71346E-12 7.43342E-12
2.33225E-12 7.43272E-12
3.04617E-12 7.43192E-12
3.85530E-12 7.43101E-12
4.75964E-12 7.43000E-12
5.75917E-12 7.42888E-12
6.85391E-12 7.42765E-12
8.04379E-12 7.42632E-12
9.32893E-12 7.42489E-12
1.07092E-11 7.42335E-12
1.21847E-11 7.42171E-12
1.37554E-11 7.41996E-12
1.54213E-11 7.41810E-12
1.71823E-11 7.41614E-12
1.90386E-11 7.41408E-12
2.09900E-11 7.41191E-12
2.30367E-11 7.40964E-12
2.51785E-11 7.40727E-12
2.74156E-11 7.40479E-12
2.97478E-11 7.40220E-12
3.21752E-11 7.39951E-12
3.46979E-11 7.39672E-12
3.73157E-11 7.39383E-12
4.00286E-11 7.39083E-12
4.28368E-11 7.38773E-12
4.57402E-11 7.38453E-12
4.87388E-11 7.38123E-12
5.18325E-11 7.37782E-12
5.50215E-11 7.37430E-12
5.83057E-11 7.37069E-12
6.16850E-11 7.36698E-12
6.51595E-11 7.36317E-12
6.87293E-11 7.35925E-12
7.23943E-11 7.35523E-12
7.61544E-11 7.35111E-12
1.18991E-10 7.30443E-12
1.71347E-10 7.24796E-12
2.33223E-10 7.18204E-12
3.04617E-10 7.10698E-12
3.85531E-10 7.02324E-12
4.75965E-10 6.93127E-12
5.75917E-10 6.83159E-12
6.85389E-10 6.72471E-12
8.04380E-10 6.61119E-12
9.32891E-10 6.49155E-12
1.07092E-09 6.36628E-12
1.21847E-09 6.23608E-12
1.37554E-09 6.10154E-12
1.54213E-09 5.96324E-12
1.71823E-09 5.81678E-12
1.90386E-09 5.66290E-12
2.09900E-09 5.51370E-12
2.30367E-09 5.36951E-12
2.51785E-09 5.23056E-12
2.74156E-09 5.07608E-12
2.97478E-09 4.91926E-12
3.21752E-09 4.76957E-12
3.46978E-09 4.62690E-12
3.73156E-09 4.49015E-12
4.00286E-09 4.33335E-12
4.28368E-09 4.18487E-12
4.57402E-09 4.04434E-12
4.87388E-09 3.91143E-12
5.18326E-09 3.77677E-12
5.50215E-09 3.63505E-12
5.83057E-09 3.50152E-12
6.16850E-09 3.37571E-12
6.51596E-09 3.25717E-12
6.87293E-09 3.13194E-12
7.23942E-09 3.00887E-12
7.61544E-09 2.89318E-12
1.18991E-08 1.92937E-12
1.71347E-08 1.27132E-12
2.33223E-08 8.42171E-13
3.04617E-08 5.67190E-13
3.85531E-08 3.91594E-13
4.75965E-08 2.77970E-13
5.75917E-08 2.02980E-13
6.85389E-08 1.52281E-13
8.04380E-08 1.17087E-13
9.32891E-08 9.20033E-14
1.07092E-07 7.36634E-14
1.21847E-07 5.99314E-14
1.37554E-07 4.94206E-14
1.54213E-07 4.12163E-14
1.71823E-07 3.46714E-14
1.90386E-07 2.94194E-14
2.09900E-07 2.51435E-14
2.30367E-07 2.16209E-14
2.51785E-07 1.86789E-14
2.74156E-07 1.62276E-14
2.97478E-07 1.41388E-14
3.21752E-07 1.23856E-14
3.46978E-07 1.08681E-14
3.73156E-07 9.58587E-15
4.00286E-07 8.46549E-15
4.28368E-07 7.50925E-15
4.57402E-07 6.67265E-15
4.87388E-07 5.95010E-15
5.18325E-07 5.31698E-15
5.50215E-07 4.76474E-15
5.83057E-07 4.27983E-15
6.16850E-07 3.85336E-15
6.51596E-07 3.47784E-15
6.87293E-07 3.14529E-15
7.23942E-07 2.85152E-15
7.61543E-07 2.58981E-15
1.18991E-06 1.09822E-15
1.71347E-06 5.41584E-16
2.33223E-06 2.97987E-16
3.04617E-06 1.77707E-16
3.85531E-06 1.12628E-16
4.75964E-06 7.48534E-17
5.75916E-06 5.16812E-17
6.85388E-06 3.68174E-17
8.04378E-06 2.69274E-17
9.32888E-06 2.01407E-17
1.07092E-05 1.53592E-17
1.21846E-05 1.19131E-17
1.37553E-05 9.37925E-18
1.54212E-05 7.48319E-18
1.71822E-05 6.04189E-18
1.90385E-05 4.93083E-18
2.09899E-05 4.06348E-18
2.30365E-05 3.37832E-18
2.51783E-05 2.83138E-18
2.74153E-05 2.39058E-18
2.97475E-05 2.03219E-18
3.21749E-05 1.73844E-18
3.46974E-05 1.49586E-18
3.73152E-05 1.29414E-18
4.00281E-05 1.12527E-18
4.28362E-05 9.83060E-19
4.57395E-05 8.62599E-19
4.87380E-05 7.60020E-19
5.18317E-05 6.72231E-19
5.50205E-05 5.96751E-19
5.83045E-05 5.31569E-19
6.16838E-05 4.75047E-19
6.51582E-05 4.25842E-19
6.87277E-05 3.82847E-19
7.23925E-05 3.45143E-19
7.61524E-05 3.11962E-19
9.21439E-05 2.13225E-19
1.09658E-04 1.50640E-19
1.28695E-04 1.09426E-19
1.49255E-04 8.13924E-20
1.71338E-04 6.17907E-20
1.94942E-04 4.77511E-20
2.20070E-04 3.74814E-20
2.46720E-04 2.98310E-20
2.74892E-04 2.40374E-20
3.04586E-04 1.95852E-20
3.35803E-04 1.61181E-20
3.68542E-04 1.33858E-20
4.02802E-04 1.12090E-20
4.38585E-04 9.45745E-21
4.75889E-04 8.03527E-21
5.14715E-04 6.87080E-21
5.55063E-04 5.90999E-21
5.96931E-04 5.11151E-21
6.40321E-04 4.44353E-21
6.85233E-04 3.88127E-21
7.31665E-04 3.40526E-21
7.79618E-04 3.00009E-21
8.29092E-04 2.65347E-21
8.80086E-04 2.35554E-21
9.32601E-04 2.09831E-21
9.86636E-04 1.87528E-21
1.04219E-03 1.68114E-21
1.09927E-03 1.51151E-21
1.15786E-03 1.36276E-21
1.21797E-03 1.23189E-21
1.27961E-03 1.11637E-21
1.34276E-03 1.01409E-21
1.40743E-03 9.23273E-22
1.47362E-03 8.42410E-22
1.54133E-03 7.70217E-22
1.61056E-03 7.05603E-22
1.68131E-03 6.47632E-22
1.75357E-03 5.95501E-22
1.82735E-03 5.48517E-22
1.90265E-03 5.06081E-22
1.97947E-03 4.67676E-22
2.05780E-03 4.32849E-22
2.13765E-03 4.01209E-22
2.21902E-03 3.72411E-22
2.30190E-03 3.46154E-22
2.38630E-03 3.22174E-22
2.47222E-03 3.00237E-22
2.55965E-03 2.80138E-22
2.64859E-03 2.61696E-22
2.73905E-03 2.44748E-22
2.83103E-03 2.29152E-22
2.92452E-03 2.14780E-22
3.01952E-03 2.01519E-22
3.11604E-03 1.89267E-22
3.21407E-03 1.77933E-22
3.31362E-03 1.67436E-22
3.41468E-03 1.57703E-22
3.51725E-03 1.48668E-22
3.62133E-03 1.40272E-22
3.72692E-03 1.32461E-22
3.83403E-03 1.25187E-22
3.94265E-03 1.18406E-22
4.05278E-03 1.12078E-22
4.16442E-03 1.06169E-22
4.27757E-03 1.00644E-22
4.39223E-03 9.54741E-23
4.50840E-03 9.06327E-23
4.62608E-03 8.60946E-23
4.74527E-03 8.18375E-23
4.86597E-03 7.78406E-23
4.98817E-03 7.40851E-23
5.11188E-03 7.05536E-23
5.23711E-03 6.72304E-23
5.36383E-03 6.41008E-23
5.49207E-03 6.11515E-23
5.62181E-03 5.83700E-23
5.75306E-03 5.57452E-23
5.88581E-03 5.32664E-23
6.02007E-03 5.09240E-23
6.15583E-03 4.87092E-23
6.29310E-03 4.66137E-23
6.43187E-03 4.46297E-23
6.57214E-03 4.27504E-23
6.71392E-03 4.09690E-23
6.85720E-03 3.92796E-23
7.00198E-03 3.76765E-23
7.14827E-03 3.61545E-23
7.29605E-03 3.47086E-23
7.44534E-03 3.33344E-23
7.59612E-03 3.20276E-23
7.97965E-03 2.90304E-23
8.37255E-03 2.63761E-23
8.77480E-03 2.40187E-23
9.18641E-03 2.19192E-23
9.60736E-03 2.00443E-23
1.00376E-02 1.83658E-23
1.04773E-02 1.68596E-23
1.09262E-02 1.55048E-23
1.13844E-02 1.42835E-23
1.18520E-02 1.31802E-23
1.23288E-02 1.21815E-23
1.28150E-02 1.12756E-23
1.33104E-02 1.04525E-23
1.38150E-02 9.70318E-24
1.43290E-02 9.01983E-24
1.48521E-02 8.39561E-24
1.53845E-02 7.82449E-24
1.59262E-02 7.30112E-24
1.64770E-02 6.82080E-24
1.70371E-02 6.37933E-24
1.76063E-02 5.97301E-24
1.81848E-02 5.59852E-24
1.87724E-02 5.25292E-24
1.93692E-02 4.93357E-24
1.99751E-02 4.63812E-24
2.05901E-02 4.36444E-24
2.12143E-02 4.11065E-24
2.18476E-02 3.87502E-24
2.24900E-02 3.65602E-24
2.31415E-02 3.45226E-24
2.38021E-02 3.26248E-24
2.44717E-02 3.08555E-24
2.51504E-02 2.92044E-24
2.58382E-02 2.76621E-24
2.65349E-02 2.62201E-24
2.72407E-02 2.48707E-24
2.79555E-02 2.36069E-24
2.86793E-02 2.24221E-24
2.94120E-02 2.13106E-24
3.01537E-02 2.02670E-24
3.09043E-02 1.92863E-24
3.16639E-02 1.83641E-24
3.24324E-02 1.74962E-24
3.32098E-02 1.66788E-24
3.39961E-02 1.59085E-24
3.47912E-02 1.51819E-24
3.55952E-02 1.44963E-24
3.64081E-02 1.38488E-24
3.72297E-02 1.32369E-24
3.80602E-02 1.26583E-24
3.88995E-02 1.21108E-24
3.97476E-02 1.15925E-24
4.06044E-02 1.11015E-24
4.14700E-02 1.06361E-24
4.23443E-02 1.01947E-24
4.32273E-02 9.77592E-25
4.41190E-02 9.37827E-25
4.50194E-02 9.00053E-25
4.59284E-02 8.64151E-25
4.68461E-02 8.30012E-25
4.87074E-02 7.66615E-25
5.06030E-02 7.09121E-25
5.25328E-02 6.56883E-25
5.44967E-02 6.09335E-25
5.64946E-02 5.65982E-25
5.85262E-02 5.26387E-25
6.05914E-02 4.90167E-25
6.26901E-02 4.56982E-25
6.48222E-02 4.26534E-25
6.69873E-02 3.98556E-25
6.91854E-02 3.72813E-25
7.14163E-02 3.49093E-25
7.36799E-02 3.27209E-25
7.59760E-02 3.06994E-25
7.83043E-02 2.88297E-25
8.06647E-02 2.70985E-25
8.30571E-02 2.54936E-25
8.54812E-02 2.40042E-25
8.79369E-02 2.26204E-25
9.04240E-02 2.13335E-25
9.29422E-02 2.01354E-25
9.54915E-02 1.90190E-25
9.80716E-02 1.79776E-25
1.00682E-01 1.70052E-25
1.03323E-01 1.60966E-25
1.05995E-01 1.52468E-25
1.08696E-01 1.44513E-25
1.11427E-01 1.37060E-25
1.14188E-01 1.30071E-25
1.16978E-01 1.23514E-25
1.19797E-01 1.17355E-25
1.22645E-01 1.11567E-25
1.25522E-01 1.06124E-25
1.28428E-01 1.01001E-25
1.31361E-01 9.61758E-26
1.34323E-01 9.16284E-26
1.37313E-01 8.73398E-26
1.40330E-01 8.32927E-26
1.43375E-01 7.94710E-26
1.46447E-01 7.58600E-26
1.49545E-01 7.24461E-26
1.52671E-01 6.92165E-26
1.55823E-01 6.61596E-26
1.59001E-01 6.32645E-26
1.62205E-01 6.05211E-26
1.65435E-01 5.79201E-26
1.68690E-01 5.54528E-26
1.71970E-01 5.31111E-26
1.75276E-01 5.08876E-26
1.78606E-01 4.87751E-26
1.81961E-01 4.67672E-26
1.85340E-01 4.48579E-26
1.88743E-01 4.30413E-26
1.92169E-01 4.13123E-26
1.95619E-01 3.96659E-26
1.99092E-01 3.80975E-26
2.02589E-01 3.66026E-26
2.06107E-01 3.51774E-26
2.09649E-01 3.38180E-26
2.13212E-01 3.25207E-26
2.16797E-01 3.12824E-26
2.20404E-01 3.00998E-26
2.24032E-01 2.89700E-26
2.27680E-01 2.78903E-26
2.31350E-01 2.68581E-26
2.35040E-01 2.58709E-26
2.38751E-01 2.49264E-26
2.42481E-01 2.40225E-26
2.46231E-01 2.31571E-26
2.50000E-01 2.23283E-26
2.53788E-01 2.15343E-26
2.57595E-01 2.07735E-26
2.61421E-01 2.00441E-26
2.65264E-01 1.93446E-26
2.69126E-01 1.86737E-26
2.73005E-01 1.80300E-26
2.76901E-01 1.74122E-26
2.80814E-01 1.68190E-26
2.84744E-01 1.62494E-26
2.88691E-01 1.57022E-26
2.92653E-01 1.51765E-26
2.96632E-01 1.46712E-26
3.00625E-01 1.41854E-26
3.04634E-01 1.37182E-26
3.08658E-01 1.32688E-26
3.12697E-01 1.28365E-26
3.16749E-01 1.24204E-26
3.20816E-01 1.20199E-26
3.24896E-01 1.16343E-26
3.28990E-01 1.12630E-26
3.33097E-01 1.09052E-26
3.37216E-01 1.05606E-26
3.41348E-01 1.02284E-26
3.45492E-01 9.90819E-27
3.49647E-01 9.59947E-27
3.53814E-01 9.30176E-27
3.57992E-01 9.01459E-27
3.62181E-01 8.73755E-27
3.66381E-01 8.47021E-27
3.70590E-01 8.21218E-27
3.74810E-01 7.96310E-27
3.79039E-01 7.72259E-27
3.83277E-01 7.49033E-27
3.87524E-01 7.26598E-27
3.91780E-01 7.04923E-27
3.96044E-01 6.83980E-27
4.00316E-01 6.63738E-27
4.04596E-01 6.44173E-27
4.08882E-01 6.25256E-27
4.13176E-01 6.06965E-27
4.17476E-01 5.89274E-27
4.21783E-01 5.72161E-27
4.26095E-01 5.55606E-27
4.30413E-01 5.39586E-27
4.34737E-01 5.24082E-27
4.39065E-01 5.09075E-27
4.43398E-01 4.94546E-27
4.47736E-01 4.80479E-27
4.52077E-01 4.66857E-27
4.56422E-01 4.53662E-27
4.60770E-01 4.40881E-27
4.65122E-01 4.28498E-27
4.69476E-01 4.16499E-27
4.73832E-01 4.04871E-27
4.78190E-01 3.93600E-27
4.82550E-01 3.82674E-27
4.86912E-01 3.72081E-27
4.91274E-01 3.61809E-27
4.95637E-01 3.51847E-27
5.00000E-01 3.42185E-27
5.04363E-01 3.32813E-27
5.08726E-01 3.23720E-27
5.13088E-01 3.14897E-27
5.17450E-01 3.06335E-27
5.21810E-01 2.98025E-27
5.26168E-01 2.89959E-27
5.30524E-01 2.82128E-27
5.34878E-01 2.74525E-27
5.39230E-01 2.67143E-27
5.43578E-01 2.59974E-27
5.47923E-01 2.53011E-27
5.52264E-01 2.46248E-27
5.56602E-01 2.39678E-27
5.60935E-01 2.33294E-27
5.65263E-01 2.27091E-27
5.69587E-01 2.21064E-27
5.73905E-01 2.15206E-27
5.78217E-01 2.09512E-27
5.82524E-01 2.03977E-27
5.86824E-01 1.98596E-27
5.91118E-01 1.93364E-27
5.95404E-01 1.88277E-27
5.99684E-01 1.83329E-27
6.03956E-01 1.78518E-27
6.08220E-01 1.73838E-27
6.12476E-01 1.69285E-27
6.16723E-01 1.64857E-27
6.20961E-01 1.60548E-27
6.25190E-01 1.56355E-27
6.29410E-01 1.52275E-27
6.33619E-01 1.48305E-27
6.37819E-01 1.44440E-27
6.42008E-01 1.40679E-27
6.46186E-01 1.37017E-27
6.50353E-01 1.33453E-27
6.54508E-01 1.29982E-27
6.58652E-01 1.26603E-27
6.62784E-01 1.23313E-27
6.66903E-01 1.20109E-27
6.71010E-01 1.16988E-27
6.75104E-01 1.13948E-27
6.79184E-01 1.10988E-27
6.83251E-01 1.08104E-27
6.87303E-01 1.05294E-27
6.91342E-01 1.02557E-27
6.95366E-01 9.98896E-28
6.99375E-01 9.72908E-28
7.03368E-01 9.47583E-28
7.07347E-01 9.22903E-28
7.11309E-01 8.98850E-28
7.15256E-01 8.75407E-28
7.19186E-01 8.52556E-28
7.23099E-01 8.30281E-28
7.26995E-01 8.08567E-28
7.30874E-01 7.87397E-28
7.34736E-01 7.66758E-28
7.38579E-01 7.46634E-28
7.42405E-01 7.27012E-28
7.46212E-01 7.07878E-28
7.50000E-01 6.89219E-28
7.53769E-01 6.71023E-28
7.57519E-01 6.53276E-28
7.61249E-01 6.35966E-28
7.64960E-01 6.19084E-28
7.68650E-01 6.02616E-28
7.72320E-01 5.86552E-28
7.75968E-01 5.70881E-28
7.79596E-01 5.55593E-28
7.83203E-01 5.40679E-28
7.86788E-01 5.26128E-28
7.90351E-01 5.11931E-28
7.93893E-01 4.98078E-28
7.97411E-01 4.84562E-28
8.00908E-01 4.71373E-28
8.04381E-01 4.58502E-28
8.07831E-01 4.45943E-28
8.11257E-01 4.33687E-28
8.14660E-01 4.21726E-28
8.18039E-01 4.10053E-28
8.21394E-01 3.98660E-28
8.24724E-01 3.87541E-28
8.28030E-01 3.76689E-28
8.31310E-01 3.66098E-28
8.34565E-01 3.55760E-28
8.37795E-01 3.45669E-28
8.40999E-01 3.35820E-28
8.44177E-01 3.26207E-28
8.47329E-01 3.16823E-28
8.50455E-01 3.07664E-28
8.53553E-01 2.98724E-28
8.56625E-01 2.89997E-28
8.59670E-01 2.81479E-28
8.62687E-01 2.73164E-28
8.65677E-01 2.65048E-28
8.68639E-01 2.57126E-28
8.71572E-01 2.49393E-28
8.74478E-01 2.41846E-28
8.77355E-01 2.34479E-28
8.80203E-01 2.27289E-28
8.83022E-01 2.20271E-28
8.85812E-01 2.13421E-28
8.88573E-01 2.06736E-28
8.91304E-01 2.00212E-28
8.94005E-01 1.93846E-28
8.96677E-01 1.87633E-28
8.99318E-01 1.81570E-28
9.01928E-01 1.75654E-28
9.04508E-01 1.69882E-28
9.07058E-01 1.64250E-28
9.09576E-01 1.58756E-28
9.12063E-01 1.53396E-28
9.14519E-01 1.48167E-28
9.16943E-01 1.43068E-28
9.19335E-01 1.38094E-28
9.21696E-01 1.33244E-28
9.24024E-01 1.28514E-28
9.26320E-01 1.23902E-28
9.28584E-01 1.19406E-28
9.30815E-01 1.15024E-28
9.33013E-01 1.10752E-28
9.35178E-01 1.06589E-28
9.37310E-01 1.02533E-28
9.39409E-01 9.85811E-29
9.41474E-01 9.47316E-29
9.43505E-01 9.09826E-29
9.45503E-01 8.73319E-29
9.47467E-01 8.37778E-29
9.49397E-01 8.03184E-29
9.51293E-01 7.69519E-29
9.53154E-01 7.36766E-29
9.54981E-01 7.04908E-29
9.56773E-01 6.73929E-29
9.58530E-01 6.43813E-29
9.60252E-01 6.14545E-29
9.61940E-01 5.86109E-29
9.63592E-01 5.58492E-29
9.65209E-01 5.31680E-29
9.66790E-01 5.05659E-29
9.68336E-01 4.80415E-29
9.69846E-01 4.55937E-29
9.71321E-01 4.32212E-29
9.72759E-01 4.09228E-29
9.74162E-01 3.86973E-29
9.75528E-01 3.65437E-29
9.76858E-01 3.44610E-29
9.78152E-01 3.24479E-29
9.79410E-01 3.05037E-29
9.80631E-01 2.86272E-29
9.81815E-01 2.68176E-29
9.82963E-01 2.50740E-29
9.84074E-01 2.33955E-29
9.85148E-01 2.17813E-29
9.86185E-01 2.02307E-29
9.87185E-01 1.87428E-29
9.88148E-01 1.73169E-29
9.89074E-01 1.59523E-29
9.89962E-01 1.46485E-29
9.90814E-01 1.34046E-29
9.91627E-01 1.22202E-29
9.92404E-01 1.10946E-29
9.93143E-01 1.00273E-29
9.93844E-01 9.01781E-30
9.94508E-01 8.06562E-30
9.95134E-01 7.17026E-30
9.95722E-01 6.33131E-30
9.96273E-01 5.54836E-30
9.96786E-01 4.82103E-30
9.97261E-01 4.14898E-30
9.97698E-01 3.53187E-30
9.98097E-01 2.96940E-30
9.98459E-01 2.46132E-30
9.98782E-01 2.00738E-30
9.99067E-01 1.60735E-30
9.99315E-01 1.26105E-30
9.99524E-01 9.68301E-31
9.99695E-01 7.28974E-31
9.99829E-01 5.42950E-31
9.99924E-01 4.10138E-31
9.99981E-01 3.30477E-31
1.00000E+00 3.03938E-31
