 #
 # Subroutine ELSEPA. Elastic scattering of electrons and positrons
 #                    by neutral atoms and positive ions
 #
 # Projectile: electron
 # Kinetic energy = 9.00000E+07 eV = 3.30744E+06 a.u.
 #
 # WARNING: High-energy factorization with free-atom DF screening.
 #          Absorption, polarization and exchange corrections are
 #          switched off.
 #          Phase shifts are calculated for the bare nucleus.
 #          Scattering amplitudes are not evaluated.
 #
 # Element: Ar,  Z =  18,  atomic weight = 3.99480E+01 g/mol
 #
 # Nuclear model: Fermi distribution
 #                Average radius = 3.65776E-13 cm
 #                Skin thickness = 5.46000E-14 cm
 #
 # Number of electrons = 18
 #
 # Total elastic cross section = 1.14730E-18 cm**2 = 4.09709E-02 a0**2
 # 1st transport cross section = 8.33927E-26 cm**2 = 2.97801E-09 a0**2
 # 2nd transport cross section = 2.47004E-25 cm**2 = 8.82067E-09 a0**2
 #
 #
 # Differential cross section:                       MU=(1-COS(THETA))/2
 #
 #  THETA        MU          DCS          DCS        Sherman      error
 #  (deg)                 (cm**2/sr)   (a0**2/sr)    function
 #----------------------------------------------------------------------
0.00000E+00 6.54325E-11
7.61557E-13 6.53659E-11
1.18994E-12 6.53288E-11
1.71346E-12 6.52836E-11
2.33225E-12 6.52303E-11
3.04617E-12 6.51690E-11
3.85530E-12 6.50996E-11
4.75964E-12 6.50221E-11
5.75917E-12 6.49368E-11
6.85391E-12 6.48434E-11
8.04379E-12 6.47423E-11
9.32893E-12 6.46333E-11
1.07092E-11 6.45165E-11
1.21847E-11 6.43921E-11
1.37554E-11 6.42599E-11
1.54213E-11 6.41201E-11
1.71823E-11 6.39731E-11
1.90386E-11 6.38183E-11
2.09900E-11 6.36563E-11
2.30367E-11 6.34874E-11
2.51785E-11 6.33106E-11
2.74156E-11 6.31270E-11
2.97478E-11 6.29367E-11
3.21752E-11 6.27389E-11
3.46979E-11 6.25347E-11
3.73157E-11 6.23237E-11
4.00286E-11 6.21058E-11
4.28368E-11 6.18820E-11
4.57402E-11 6.16512E-11
4.87388E-11 6.14142E-11
5.18325E-11 6.11718E-11
5.50215E-11 6.09219E-11
5.83057E-11 6.06669E-11
6.16850E-11 6.04064E-11
6.51595E-11 6.01391E-11
6.87293E-11 5.98672E-11
7.23943E-11 5.95895E-11
7.61544E-11 5.93060E-11
1.18991E-10 5.62094E-11
1.71347E-10 5.27217E-11
2.33223E-10 4.88214E-11
3.04617E-10 4.50459E-11
3.85531E-10 4.10847E-11
4.75965E-10 3.72518E-11
5.75917E-10 3.37088E-11
6.85389E-10 3.01384E-11
8.04380E-10 2.69361E-11
9.32891E-10 2.40127E-11
1.07092E-09 2.12700E-11
1.21847E-09 1.88631E-11
1.37554E-09 1.66815E-11
1.54213E-09 1.47267E-11
1.71823E-09 1.30259E-11
1.90386E-09 1.14942E-11
2.09900E-09 1.01558E-11
2.30367E-09 8.99370E-12
2.51785E-09 7.95305E-12
2.74156E-09 7.05334E-12
2.97478E-09 6.26694E-12
3.21752E-09 5.57323E-12
3.46978E-09 4.97079E-12
3.73156E-09 4.44152E-12
4.00286E-09 3.97716E-12
4.28368E-09 3.57145E-12
4.57402E-09 3.21347E-12
4.87388E-09 2.89898E-12
5.18326E-09 2.62230E-12
5.50215E-09 2.37711E-12
5.83057E-09 2.16071E-12
6.16850E-09 1.96890E-12
6.51596E-09 1.79831E-12
6.87293E-09 1.64659E-12
7.23942E-09 1.51114E-12
7.61544E-09 1.38996E-12
1.18991E-08 6.71716E-13
1.71347E-08 3.75706E-13
2.33223E-08 2.29430E-13
3.04617E-08 1.48099E-13
3.85531E-08 9.93798E-14
4.75965E-08 6.87384E-14
5.75917E-08 4.87171E-14
6.85389E-08 3.53447E-14
8.04380E-08 2.61616E-14
9.32891E-08 1.97371E-14
1.07092E-07 1.51491E-14
1.21847E-07 1.18108E-14
1.37554E-07 9.34189E-15
1.54213E-07 7.48526E-15
1.71823E-07 6.06920E-15
1.90386E-07 4.97411E-15
2.09900E-07 4.11653E-15
2.30367E-07 3.43728E-15
2.51785E-07 2.89336E-15
2.74156E-07 2.45365E-15
2.97478E-07 2.09491E-15
3.21752E-07 1.79980E-15
3.46978E-07 1.55519E-15
3.73156E-07 1.35093E-15
4.00286E-07 1.17931E-15
4.28368E-07 1.03419E-15
4.57402E-07 9.10787E-16
4.87388E-07 8.05312E-16
5.18325E-07 7.14689E-16
5.50215E-07 6.36490E-16
5.83057E-07 5.68701E-16
6.16850E-07 5.09706E-16
6.51596E-07 4.58168E-16
6.87293E-07 4.12974E-16
7.23942E-07 3.73216E-16
7.61543E-07 3.38120E-16
1.18991E-06 1.41077E-16
1.71347E-06 6.87395E-17
2.33223E-06 3.73242E-17
3.04617E-06 2.19572E-17
3.85531E-06 1.37386E-17
4.75964E-06 9.02732E-18
5.75916E-06 6.17209E-18
6.85388E-06 4.36111E-18
8.04378E-06 3.16801E-18
9.32888E-06 2.35630E-18
1.07092E-05 1.78864E-18
1.21846E-05 1.38207E-18
1.37553E-05 1.08471E-18
1.54212E-05 8.63193E-19
1.71822E-05 6.95443E-19
1.90385E-05 5.66534E-19
2.09899E-05 4.66178E-19
2.30365E-05 3.87076E-19
2.51783E-05 3.24049E-19
2.74153E-05 2.73341E-19
2.97475E-05 2.32175E-19
3.21749E-05 1.98477E-19
3.46974E-05 1.70681E-19
3.73152E-05 1.47587E-19
4.00281E-05 1.28272E-19
4.28362E-05 1.12017E-19
4.57395E-05 9.82576E-20
4.87380E-05 8.65469E-20
5.18317E-05 7.65298E-20
5.50205E-05 6.79210E-20
5.83045E-05 6.04896E-20
6.16838E-05 5.40478E-20
6.51582E-05 4.84416E-20
6.87277E-05 4.35442E-20
7.23925E-05 3.92507E-20
7.61524E-05 3.54680E-20
9.21439E-05 2.42323E-20
1.09658E-04 1.71147E-20
1.28695E-04 1.24294E-20
1.49255E-04 9.24340E-21
1.71338E-04 7.01622E-21
1.94942E-04 5.42132E-21
2.20070E-04 4.25506E-21
2.46720E-04 3.38630E-21
2.74892E-04 2.72842E-21
3.04586E-04 2.22287E-21
3.35803E-04 1.82920E-21
3.68542E-04 1.51898E-21
4.02802E-04 1.27183E-21
4.38585E-04 1.07298E-21
4.75889E-04 9.11534E-22
5.14715E-04 7.79346E-22
5.55063E-04 6.70282E-22
5.96931E-04 5.79650E-22
6.40321E-04 5.03836E-22
6.85233E-04 4.40024E-22
7.31665E-04 3.86003E-22
7.79618E-04 3.40026E-22
8.29092E-04 3.00696E-22
8.80086E-04 2.66892E-22
9.32601E-04 2.37708E-22
9.86636E-04 2.12407E-22
1.04219E-03 1.90384E-22
1.09927E-03 1.71143E-22
1.15786E-03 1.54273E-22
1.21797E-03 1.39431E-22
1.27961E-03 1.26331E-22
1.34276E-03 1.14734E-22
1.40743E-03 1.04438E-22
1.47362E-03 9.52707E-23
1.54133E-03 8.70874E-23
1.61056E-03 7.97639E-23
1.68131E-03 7.31940E-23
1.75357E-03 6.72866E-23
1.82735E-03 6.19630E-23
1.90265E-03 5.71553E-23
1.97947E-03 5.28048E-23
2.05780E-03 4.88601E-23
2.13765E-03 4.52767E-23
2.21902E-03 4.20157E-23
2.30190E-03 3.90428E-23
2.38630E-03 3.63280E-23
2.47222E-03 3.38448E-23
2.55965E-03 3.15701E-23
2.64859E-03 2.94830E-23
2.73905E-03 2.75654E-23
2.83103E-03 2.58010E-23
2.92452E-03 2.41753E-23
3.01952E-03 2.26755E-23
3.11604E-03 2.12900E-23
3.21407E-03 2.00086E-23
3.31362E-03 1.88219E-23
3.41468E-03 1.77218E-23
3.51725E-03 1.67008E-23
3.62133E-03 1.57521E-23
3.72692E-03 1.48696E-23
3.83403E-03 1.40480E-23
3.94265E-03 1.32822E-23
4.05278E-03 1.25677E-23
4.16442E-03 1.19006E-23
4.27757E-03 1.12770E-23
4.39223E-03 1.06936E-23
4.50840E-03 1.01473E-23
4.62608E-03 9.63538E-24
4.74527E-03 9.15522E-24
4.86597E-03 8.70452E-24
4.98817E-03 8.28111E-24
5.11188E-03 7.88305E-24
5.23711E-03 7.50853E-24
5.36383E-03 7.15591E-24
5.49207E-03 6.82367E-24
5.62181E-03 6.51041E-24
5.75306E-03 6.21485E-24
5.88581E-03 5.93579E-24
6.02007E-03 5.67216E-24
6.15583E-03 5.42294E-24
6.29310E-03 5.18719E-24
6.43187E-03 4.96405E-24
6.57214E-03 4.75272E-24
6.71392E-03 4.55246E-24
6.85720E-03 4.36258E-24
7.00198E-03 4.18244E-24
7.14827E-03 4.01145E-24
7.29605E-03 3.84907E-24
7.44534E-03 3.69476E-24
7.59612E-03 3.54807E-24
7.97965E-03 3.21177E-24
8.37255E-03 2.91415E-24
8.77480E-03 2.64999E-24
9.18641E-03 2.41489E-24
9.60736E-03 2.20510E-24
1.00376E-02 2.01742E-24
1.04773E-02 1.84913E-24
1.09262E-02 1.69788E-24
1.13844E-02 1.56164E-24
1.18520E-02 1.43866E-24
1.23288E-02 1.32743E-24
1.28150E-02 1.22662E-24
1.33104E-02 1.13511E-24
1.38150E-02 1.05187E-24
1.43290E-02 9.76026E-25
1.48521E-02 9.06811E-25
1.53845E-02 8.43543E-25
1.59262E-02 7.85622E-25
1.64770E-02 7.32515E-25
1.70371E-02 6.83754E-25
1.76063E-02 6.38920E-25
1.81848E-02 5.97641E-25
1.87724E-02 5.59587E-25
1.93692E-02 5.24461E-25
1.99751E-02 4.91999E-25
2.05901E-02 4.61963E-25
2.12143E-02 4.34140E-25
2.18476E-02 4.08339E-25
2.24900E-02 3.84387E-25
2.31415E-02 3.62128E-25
2.38021E-02 3.41422E-25
2.44717E-02 3.22141E-25
2.51504E-02 3.04171E-25
2.58382E-02 2.87406E-25
2.65349E-02 2.71752E-25
2.72407E-02 2.57122E-25
2.79555E-02 2.43437E-25
2.86793E-02 2.30627E-25
2.94120E-02 2.18625E-25
3.01537E-02 2.07372E-25
3.09043E-02 1.96812E-25
3.16639E-02 1.86896E-25
3.24324E-02 1.77577E-25
3.32098E-02 1.68814E-25
3.39961E-02 1.60568E-25
3.47912E-02 1.52802E-25
3.55952E-02 1.45485E-25
3.64081E-02 1.38585E-25
3.72297E-02 1.32075E-25
3.80602E-02 1.25929E-25
3.88995E-02 1.20123E-25
3.97476E-02 1.14635E-25
4.06044E-02 1.09446E-25
4.14700E-02 1.04535E-25
4.23443E-02 9.98851E-26
4.32273E-02 9.54806E-26
4.41190E-02 9.13061E-26
4.50194E-02 8.73476E-26
4.59284E-02 8.35920E-26
4.68461E-02 8.00271E-26
4.87074E-02 7.34254E-26
5.06030E-02 6.74607E-26
5.25328E-02 6.20619E-26
5.44967E-02 5.71671E-26
5.64946E-02 5.27220E-26
5.85262E-02 4.86788E-26
6.05914E-02 4.49956E-26
6.26901E-02 4.16355E-26
6.48222E-02 3.85659E-26
6.69873E-02 3.57579E-26
6.91854E-02 3.31857E-26
7.14163E-02 3.08268E-26
7.36799E-02 2.86606E-26
7.59760E-02 2.66693E-26
7.83043E-02 2.48366E-26
8.06647E-02 2.31481E-26
8.30571E-02 2.15907E-26
8.54812E-02 2.01528E-26
8.79369E-02 1.88240E-26
9.04240E-02 1.75948E-26
9.29422E-02 1.64567E-26
9.54915E-02 1.54020E-26
9.80716E-02 1.44238E-26
1.00682E-01 1.35157E-26
1.03323E-01 1.26721E-26
1.05995E-01 1.18878E-26
1.08696E-01 1.11580E-26
1.11427E-01 1.04784E-26
1.14188E-01 9.84519E-27
1.16978E-01 9.25476E-27
1.19797E-01 8.70384E-27
1.22645E-01 8.18946E-27
1.25522E-01 7.70889E-27
1.28428E-01 7.25963E-27
1.31361E-01 6.83940E-27
1.34323E-01 6.44610E-27
1.37313E-01 6.07778E-27
1.40330E-01 5.73268E-27
1.43375E-01 5.40916E-27
1.46447E-01 5.10571E-27
1.49545E-01 4.82096E-27
1.52671E-01 4.55361E-27
1.55823E-01 4.30248E-27
1.59001E-01 4.06649E-27
1.62205E-01 3.84462E-27
1.65435E-01 3.63594E-27
1.68690E-01 3.43957E-27
1.71970E-01 3.25472E-27
1.75276E-01 3.08064E-27
1.78606E-01 2.91664E-27
1.81961E-01 2.76208E-27
1.85340E-01 2.61636E-27
1.88743E-01 2.47893E-27
1.92169E-01 2.34927E-27
1.95619E-01 2.22690E-27
1.99092E-01 2.11137E-27
2.02589E-01 2.00226E-27
2.06107E-01 1.89919E-27
2.09649E-01 1.80179E-27
2.13212E-01 1.70972E-27
2.16797E-01 1.62266E-27
2.20404E-01 1.54033E-27
2.24032E-01 1.46244E-27
2.27680E-01 1.38872E-27
2.31350E-01 1.31895E-27
2.35040E-01 1.25290E-27
2.38751E-01 1.19034E-27
2.42481E-01 1.13108E-27
2.46231E-01 1.07493E-27
2.50000E-01 1.02173E-27
2.53788E-01 9.71292E-28
2.57595E-01 9.23475E-28
2.61421E-01 8.78130E-28
2.65264E-01 8.35121E-28
2.69126E-01 7.94320E-28
2.73005E-01 7.55605E-28
2.76901E-01 7.18864E-28
2.80814E-01 6.83989E-28
2.84744E-01 6.50879E-28
2.88691E-01 6.19440E-28
2.92653E-01 5.89582E-28
2.96632E-01 5.61221E-28
3.00625E-01 5.34278E-28
3.04634E-01 5.08678E-28
3.08658E-01 4.84350E-28
3.12697E-01 4.61228E-28
3.16749E-01 4.39249E-28
3.20816E-01 4.18352E-28
3.24896E-01 3.98484E-28
3.28990E-01 3.79589E-28
3.33097E-01 3.61618E-28
3.37216E-01 3.44525E-28
3.41348E-01 3.28263E-28
3.45492E-01 3.12791E-28
3.49647E-01 2.98069E-28
3.53814E-01 2.84059E-28
3.57992E-01 2.70724E-28
3.62181E-01 2.58032E-28
3.66381E-01 2.45949E-28
3.70590E-01 2.34446E-28
3.74810E-01 2.23493E-28
3.79039E-01 2.13064E-28
3.83277E-01 2.03132E-28
3.87524E-01 1.93672E-28
3.91780E-01 1.84662E-28
3.96044E-01 1.76080E-28
4.00316E-01 1.67904E-28
4.04596E-01 1.60114E-28
4.08882E-01 1.52693E-28
4.13176E-01 1.45621E-28
4.17476E-01 1.38882E-28
4.21783E-01 1.32460E-28
4.26095E-01 1.26339E-28
4.30413E-01 1.20506E-28
4.34737E-01 1.14945E-28
4.39065E-01 1.09644E-28
4.43398E-01 1.04591E-28
4.47736E-01 9.97742E-29
4.52077E-01 9.51814E-29
4.56422E-01 9.08024E-29
4.60770E-01 8.66271E-29
4.65122E-01 8.26456E-29
4.69476E-01 7.88490E-29
4.73832E-01 7.52283E-29
4.78190E-01 7.17754E-29
4.82550E-01 6.84822E-29
4.86912E-01 6.53413E-29
4.91274E-01 6.23455E-29
4.95637E-01 5.94880E-29
5.00000E-01 5.67623E-29
5.04363E-01 5.41622E-29
5.08726E-01 5.16819E-29
5.13088E-01 4.93158E-29
5.17450E-01 4.70585E-29
5.21810E-01 4.49049E-29
5.26168E-01 4.28503E-29
5.30524E-01 4.08901E-29
5.34878E-01 3.90198E-29
5.39230E-01 3.72353E-29
5.43578E-01 3.55326E-29
5.47923E-01 3.39079E-29
5.52264E-01 3.23576E-29
5.56602E-01 3.08783E-29
5.60935E-01 2.94667E-29
5.65263E-01 2.81197E-29
5.69587E-01 2.68343E-29
5.73905E-01 2.56076E-29
5.78217E-01 2.44370E-29
5.82524E-01 2.33199E-29
5.86824E-01 2.22538E-29
5.91118E-01 2.12364E-29
5.95404E-01 2.02655E-29
5.99684E-01 1.93388E-29
6.03956E-01 1.84545E-29
6.08220E-01 1.76104E-29
6.12476E-01 1.68049E-29
6.16723E-01 1.60362E-29
6.20961E-01 1.53025E-29
6.25190E-01 1.46022E-29
6.29410E-01 1.39339E-29
6.33619E-01 1.32960E-29
6.37819E-01 1.26872E-29
6.42008E-01 1.21062E-29
6.46186E-01 1.15517E-29
6.50353E-01 1.10224E-29
6.54508E-01 1.05173E-29
6.58652E-01 1.00352E-29
6.62784E-01 9.57505E-30
6.66903E-01 9.13589E-30
6.71010E-01 8.71675E-30
6.75104E-01 8.31673E-30
6.79184E-01 7.93494E-30
6.83251E-01 7.57055E-30
6.87303E-01 7.22279E-30
6.91342E-01 6.89088E-30
6.95366E-01 6.57412E-30
6.99375E-01 6.27180E-30
7.03368E-01 5.98327E-30
7.07347E-01 5.70791E-30
7.11309E-01 5.44512E-30
7.15256E-01 5.19432E-30
7.19186E-01 4.95497E-30
7.23099E-01 4.72655E-30
7.26995E-01 4.50856E-30
7.30874E-01 4.30053E-30
7.34736E-01 4.10200E-30
7.38579E-01 3.91255E-30
7.42405E-01 3.73175E-30
7.46212E-01 3.55922E-30
7.50000E-01 3.39457E-30
7.53769E-01 3.23746E-30
7.57519E-01 3.08754E-30
7.61249E-01 2.94447E-30
7.64960E-01 2.80796E-30
7.68650E-01 2.67769E-30
7.72320E-01 2.55339E-30
7.75968E-01 2.43478E-30
7.79596E-01 2.32161E-30
7.83203E-01 2.21363E-30
7.86788E-01 2.11059E-30
7.90351E-01 2.01228E-30
7.93893E-01 1.91848E-30
7.97411E-01 1.82898E-30
8.00908E-01 1.74359E-30
8.04381E-01 1.66213E-30
8.07831E-01 1.58440E-30
8.11257E-01 1.51024E-30
8.14660E-01 1.43949E-30
8.18039E-01 1.37200E-30
8.21394E-01 1.30760E-30
8.24724E-01 1.24617E-30
8.28030E-01 1.18756E-30
8.31310E-01 1.13165E-30
8.34565E-01 1.07832E-30
8.37795E-01 1.02744E-30
8.40999E-01 9.78905E-31
8.44177E-01 9.32605E-31
8.47329E-01 8.88440E-31
8.50455E-01 8.46310E-31
8.53553E-01 8.06124E-31
8.56625E-01 7.67791E-31
8.59670E-01 7.31227E-31
8.62687E-01 6.96351E-31
8.65677E-01 6.63085E-31
8.68639E-01 6.31355E-31
8.71572E-01 6.01091E-31
8.74478E-01 5.72226E-31
8.77355E-01 5.44695E-31
8.80203E-01 5.18437E-31
8.83022E-01 4.93393E-31
8.85812E-01 4.69508E-31
8.88573E-01 4.46729E-31
8.91304E-01 4.25003E-31
8.94005E-01 4.04284E-31
8.96677E-01 3.84525E-31
8.99318E-01 3.65681E-31
9.01928E-01 3.47711E-31
9.04508E-01 3.30574E-31
9.07058E-01 3.14231E-31
9.09576E-01 2.98647E-31
9.12063E-01 2.83786E-31
9.14519E-01 2.69615E-31
9.16943E-01 2.56102E-31
9.19335E-01 2.43217E-31
9.21696E-01 2.30931E-31
9.24024E-01 2.19216E-31
9.26320E-01 2.08046E-31
9.28584E-01 1.97396E-31
9.30815E-01 1.87242E-31
9.33013E-01 1.77561E-31
9.35178E-01 1.68332E-31
9.37310E-01 1.59533E-31
9.39409E-01 1.51145E-31
9.41474E-01 1.43149E-31
9.43505E-01 1.35526E-31
9.45503E-01 1.28261E-31
9.47467E-01 1.21336E-31
9.49397E-01 1.14736E-31
9.51293E-01 1.08445E-31
9.53154E-01 1.02451E-31
9.54981E-01 9.67387E-32
9.56773E-01 9.12959E-32
9.58530E-01 8.61103E-32
9.60252E-01 8.11702E-32
9.61940E-01 7.64644E-32
9.63592E-01 7.19824E-32
9.65209E-01 6.77141E-32
9.66790E-01 6.36500E-32
9.68336E-01 5.97807E-32
9.69846E-01 5.60978E-32
9.71321E-01 5.25927E-32
9.72759E-01 4.92578E-32
9.74162E-01 4.60854E-32
9.75528E-01 4.30686E-32
9.76858E-01 4.02004E-32
9.78152E-01 3.74744E-32
9.79410E-01 3.48847E-32
9.80631E-01 3.24252E-32
9.81815E-01 3.00905E-32
9.82963E-01 2.78755E-32
9.84074E-01 2.57750E-32
9.85148E-01 2.37846E-32
9.86185E-01 2.18995E-32
9.87185E-01 2.01158E-32
9.88148E-01 1.84292E-32
9.89074E-01 1.68362E-32
9.89962E-01 1.53332E-32
9.90814E-01 1.39167E-32
9.91627E-01 1.25836E-32
9.92404E-01 1.13311E-32
9.93143E-01 1.01561E-32
9.93844E-01 9.05628E-33
9.94508E-01 8.02904E-33
9.95134E-01 7.07209E-33
9.95722E-01 6.18334E-33
9.96273E-01 5.36083E-33
9.96786E-01 4.60270E-33
9.97261E-01 3.90726E-33
9.97698E-01 3.27301E-33
9.98097E-01 2.69850E-33
9.98459E-01 2.18249E-33
9.98782E-01 1.72381E-33
9.99067E-01 1.32145E-33
9.99315E-01 9.74529E-34
9.99524E-01 6.82253E-34
9.99695E-01 4.44025E-34
9.99829E-01 2.59268E-34
9.99924E-01 1.27583E-34
9.99981E-01 4.86881E-35
1.00000E+00 2.24596E-35
