 #
 # Subroutine ELSEPA. Elastic scattering of electrons and positrons
 #                    by neutral atoms and positive ions
 #
 # Projectile: electron
 # Kinetic energy = 8.00000E+08 eV = 2.93995E+07 a.u.
 #
 # WARNING: High-energy factorization with free-atom DF screening.
 #          Absorption, polarization and exchange corrections are
 #          switched off.
 #          Phase shifts are calculated for the bare nucleus.
 #          Scattering amplitudes are not evaluated.
 #
 # Element: Ar,  Z =  18,  atomic weight = 3.99480E+01 g/mol
 #
 # Nuclear model: Fermi distribution
 #                Average radius = 3.65776E-13 cm
 #                Skin thickness = 5.46000E-14 cm
 #
 # Number of electrons = 18
 #
 # Total elastic cross section = 1.14565E-18 cm**2 = 4.09120E-02 a0**2
 # 1st transport cross section = 1.07653E-27 cm**2 = 3.84437E-11 a0**2
 # 2nd transport cross section = 3.22890E-27 cm**2 = 1.15306E-10 a0**2
 #
 #
 # Differential cross section:                       MU=(1-COS(THETA))/2
 #
 #  THETA        MU          DCS          DCS        Sherman      error
 #  (deg)                 (cm**2/sr)   (a0**2/sr)    function
 #----------------------------------------------------------------------
0.00000E+00 5.11830E-09
7.61557E-13 4.73783E-09
1.18994E-12 4.54118E-09
1.71346E-12 4.31591E-09
2.33225E-12 4.06920E-09
3.04617E-12 3.79617E-09
3.85530E-12 3.53686E-09
4.75964E-12 3.25911E-09
5.75917E-12 2.99716E-09
6.85391E-12 2.73859E-09
8.04379E-12 2.49156E-09
9.32893E-12 2.26309E-09
1.07092E-11 2.04186E-09
1.21847E-11 1.84687E-09
1.37554E-11 1.65670E-09
1.54213E-11 1.49054E-09
1.71823E-11 1.33580E-09
1.90386E-11 1.19788E-09
2.09900E-11 1.07373E-09
2.30367E-11 9.61401E-10
2.51785E-11 8.62685E-10
2.74156E-11 7.72412E-10
2.97478E-11 6.93749E-10
3.21752E-11 6.22421E-10
3.46979E-11 5.59783E-10
3.73157E-11 5.03816E-10
4.00286E-11 4.54126E-10
4.28368E-11 4.10134E-10
4.57402E-11 3.70759E-10
4.87388E-11 3.36046E-10
5.18325E-11 3.04835E-10
5.50215E-11 2.77233E-10
5.83057E-11 2.52519E-10
6.16850E-11 2.30495E-10
6.51595E-11 2.10796E-10
6.87293E-11 1.93142E-10
7.23943E-11 1.77345E-10
7.61544E-11 1.63122E-10
1.18991E-10 7.82023E-11
1.71347E-10 4.34248E-11
2.33223E-10 2.65988E-11
3.04617E-10 1.73256E-11
3.85531E-10 1.17769E-11
4.75965E-10 8.25902E-12
5.75917E-10 5.92316E-12
6.85389E-10 4.34156E-12
8.04380E-10 3.23903E-12
9.32891E-10 2.45809E-12
1.07092E-09 1.89493E-12
1.21847E-09 1.48155E-12
1.37554E-09 1.17412E-12
1.54213E-09 9.41813E-13
1.71823E-09 7.64096E-13
1.90386E-09 6.26382E-13
2.09900E-09 5.18387E-13
2.30367E-09 4.32798E-13
2.51785E-09 3.64241E-13
2.74156E-09 3.08823E-13
2.97478E-09 2.63623E-13
3.21752E-09 2.26452E-13
3.46978E-09 1.95656E-13
3.73156E-09 1.69951E-13
4.00286E-09 1.48362E-13
4.28368E-09 1.30115E-13
4.57402E-09 1.14603E-13
4.87388E-09 1.01349E-13
5.18326E-09 8.99624E-14
5.50215E-09 8.01387E-14
5.83057E-09 7.16234E-14
6.16850E-09 6.42128E-14
6.51596E-09 5.77388E-14
6.87293E-09 5.20609E-14
7.23942E-09 4.70656E-14
7.61544E-09 4.26550E-14
1.18991E-08 1.78608E-14
1.71347E-08 8.72677E-15
2.33223E-08 4.74747E-15
3.04617E-08 2.79628E-15
3.85531E-08 1.75104E-15
4.75965E-08 1.15117E-15
5.75917E-08 7.87337E-16
6.85389E-08 5.56441E-16
8.04380E-08 4.04265E-16
9.32891E-08 3.00708E-16
1.07092E-07 2.28273E-16
1.21847E-07 1.76386E-16
1.37554E-07 1.38435E-16
1.54213E-07 1.10162E-16
1.71823E-07 8.87500E-17
1.90386E-07 7.22959E-17
2.09900E-07 5.94838E-17
2.30367E-07 4.93880E-17
2.51785E-07 4.13458E-17
2.74156E-07 3.48758E-17
2.97478E-07 2.96224E-17
3.21752E-07 2.53217E-17
3.46978E-07 2.17739E-17
3.73156E-07 1.88262E-17
4.00286E-07 1.63609E-17
4.28368E-07 1.42863E-17
4.57402E-07 1.25303E-17
4.87388E-07 1.10360E-17
5.18325E-07 9.75801E-18
5.50215E-07 8.65975E-18
5.83057E-07 7.71175E-18
6.16850E-07 6.89000E-18
6.51596E-07 6.17485E-18
6.87293E-07 5.55013E-18
7.23942E-07 5.00245E-18
7.61543E-07 4.52070E-18
1.18991E-06 1.85184E-18
1.71347E-06 8.93136E-19
2.33223E-06 4.82134E-19
3.04617E-06 2.82642E-19
3.85531E-06 1.76467E-19
4.75964E-06 1.15790E-19
5.75916E-06 7.90930E-20
6.85388E-06 5.58497E-20
8.04378E-06 4.05518E-20
9.32888E-06 3.01514E-20
1.07092E-05 2.28819E-20
1.21846E-05 1.76772E-20
1.37553E-05 1.38719E-20
1.54212E-05 1.10377E-20
1.71822E-05 8.89183E-21
1.90385E-05 7.24308E-21
2.09899E-05 5.95966E-21
2.30365E-05 4.94826E-21
2.51783E-05 4.14253E-21
2.74153E-05 3.49429E-21
2.97475E-05 2.96803E-21
3.21749E-05 2.53725E-21
3.46974E-05 2.18190E-21
3.73152E-05 1.88668E-21
4.00281E-05 1.63977E-21
4.28362E-05 1.43197E-21
4.57395E-05 1.25607E-21
4.87380E-05 1.10637E-21
5.18317E-05 9.78315E-22
5.50205E-05 8.68263E-22
5.83045E-05 7.73264E-22
6.16838E-05 6.90915E-22
6.51582E-05 6.19248E-22
6.87277E-05 5.56643E-22
7.23925E-05 5.01757E-22
7.61524E-05 4.45638E-22
9.21439E-05 3.03268E-22
1.09658E-04 2.13258E-22
1.28695E-04 1.54137E-22
1.49255E-04 1.14032E-22
1.71338E-04 8.60706E-23
1.94942E-04 6.61042E-23
2.20070E-04 5.15487E-23
2.46720E-04 4.07419E-23
2.74892E-04 3.25872E-23
3.04586E-04 2.63442E-23
3.35803E-04 2.15022E-23
3.68542E-04 1.77027E-23
4.02802E-04 1.46892E-23
4.38585E-04 1.22760E-23
4.75889E-04 1.03263E-23
5.14715E-04 8.73833E-24
5.55063E-04 7.43523E-24
5.96931E-04 6.35851E-24
6.40321E-04 5.46317E-24
6.85233E-04 4.71424E-24
7.31665E-04 4.08432E-24
7.79618E-04 3.55179E-24
8.29092E-04 3.09942E-24
8.80086E-04 2.71344E-24
9.32601E-04 2.38272E-24
9.86636E-04 2.09822E-24
1.04219E-03 1.85259E-24
1.09927E-03 1.63978E-24
1.15786E-03 1.45479E-24
1.21797E-03 1.29350E-24
1.27961E-03 1.15246E-24
1.34276E-03 1.02878E-24
1.40743E-03 9.20049E-25
1.47362E-03 8.24221E-25
1.54133E-03 7.39568E-25
1.61056E-03 6.64620E-25
1.68131E-03 5.98127E-25
1.75357E-03 5.39016E-25
1.82735E-03 4.86369E-25
1.90265E-03 4.39394E-25
1.97947E-03 3.97408E-25
2.05780E-03 3.59822E-25
2.13765E-03 3.26120E-25
2.21902E-03 2.95859E-25
2.30190E-03 2.68648E-25
2.38630E-03 2.44147E-25
2.47222E-03 2.22059E-25
2.55965E-03 2.02121E-25
2.64859E-03 1.84105E-25
2.73905E-03 1.67806E-25
2.83103E-03 1.53047E-25
2.92452E-03 1.39667E-25
3.01952E-03 1.27528E-25
3.11604E-03 1.16504E-25
3.21407E-03 1.06484E-25
3.31362E-03 9.73687E-26
3.41468E-03 8.90711E-26
3.51725E-03 8.15120E-26
3.62133E-03 7.46209E-26
3.72692E-03 6.83347E-26
3.83403E-03 6.25967E-26
3.94265E-03 5.73562E-26
4.05278E-03 5.25672E-26
4.16442E-03 4.81888E-26
4.27757E-03 4.41836E-26
4.39223E-03 4.05183E-26
4.50840E-03 3.71625E-26
4.62608E-03 3.40889E-26
4.74527E-03 3.12727E-26
4.86597E-03 2.86914E-26
4.98817E-03 2.63248E-26
5.11188E-03 2.41543E-26
5.23711E-03 2.21630E-26
5.36383E-03 2.03359E-26
5.49207E-03 1.86589E-26
5.62181E-03 1.71194E-26
5.75306E-03 1.57060E-26
5.88581E-03 1.44080E-26
6.02007E-03 1.32159E-26
6.15583E-03 1.21209E-26
6.29310E-03 1.11151E-26
6.43187E-03 1.01910E-26
6.57214E-03 9.34208E-27
6.71392E-03 8.56213E-27
6.85720E-03 7.84556E-27
7.00198E-03 7.18722E-27
7.14827E-03 6.58240E-27
7.29605E-03 6.02678E-27
7.44534E-03 5.51640E-27
7.59612E-03 5.04761E-27
7.97965E-03 4.03636E-27
8.37255E-03 3.21973E-27
8.77480E-03 2.56107E-27
9.18641E-03 2.03067E-27
9.60736E-03 1.60436E-27
1.00376E-02 1.26248E-27
1.04773E-02 9.89044E-28
1.09262E-02 7.71004E-28
1.13844E-02 5.97743E-28
1.18520E-02 4.60610E-28
1.23288E-02 3.52558E-28
1.28150E-02 2.67855E-28
1.33104E-02 2.01839E-28
1.38150E-02 1.50728E-28
1.43290E-02 1.11454E-28
1.48521E-02 8.15395E-29
1.53845E-02 5.89834E-29
1.59262E-02 4.21775E-29
1.64770E-02 2.98323E-29
1.70371E-02 2.09188E-29
1.76063E-02 1.46188E-29
1.81848E-02 1.02862E-29
1.87724E-02 7.41299E-30
1.93692E-02 5.60337E-30
1.99751E-02 4.55120E-30
2.05901E-02 4.02225E-30
2.12143E-02 3.83947E-30
2.18476E-02 3.87106E-30
2.24900E-02 4.02078E-30
2.31415E-02 4.22010E-30
2.38021E-02 4.42188E-30
2.44717E-02 4.59530E-30
2.51504E-02 4.72182E-30
2.58382E-02 4.79195E-30
2.65349E-02 4.80272E-30
2.72407E-02 4.75572E-30
2.79555E-02 4.65558E-30
2.86793E-02 4.50878E-30
2.94120E-02 4.32278E-30
3.01537E-02 4.10542E-30
3.09043E-02 3.86438E-30
3.16639E-02 3.60696E-30
3.24324E-02 3.33978E-30
3.32098E-02 3.06875E-30
3.39961E-02 2.79894E-30
3.47912E-02 2.53461E-30
3.55952E-02 2.27922E-30
3.64081E-02 2.03551E-30
3.72297E-02 1.80551E-30
3.80602E-02 1.59065E-30
3.88995E-02 1.39183E-30
3.97476E-02 1.20949E-30
4.06044E-02 1.04367E-30
4.14700E-02 8.94112E-31
4.23443E-02 7.60300E-31
4.32273E-02 6.41517E-31
4.41190E-02 5.36905E-31
4.50194E-02 4.45505E-31
4.59284E-02 3.66295E-31
4.68461E-02 2.98223E-31
4.87074E-02 1.91294E-31
5.06030E-02 1.16591E-31
5.25328E-02 6.67287E-32
5.44967E-02 3.53218E-32
5.64946E-02 1.70801E-32
5.85262E-02 7.78855E-33
6.05914E-02 4.21584E-33
6.26901E-02 3.98417E-33
6.48222E-02 5.42349E-33
6.69873E-02 7.42703E-33
6.91854E-02 9.31826E-33
7.14163E-02 1.07351E-32
7.36799E-02 1.15336E-32
7.59760E-02 1.17115E-32
7.83043E-02 1.13496E-32
8.06647E-02 1.05693E-32
8.30571E-02 9.50314E-33
8.54812E-02 8.27624E-33
8.79369E-02 6.99554E-33
9.04240E-02 5.74500E-33
9.29422E-02 4.58487E-33
9.54915E-02 3.55352E-33
9.80716E-02 2.67065E-33
1.00682E-01 1.94119E-33
1.03323E-01 1.35916E-33
1.05995E-01 9.11302E-34
1.08696E-01 5.80057E-34
1.11427E-01 3.46076E-34
1.14188E-01 1.90019E-34
1.16978E-01 9.38403E-35
1.19797E-01 4.15757E-35
1.22645E-01 1.97460E-35
1.25522E-01 1.74613E-35
1.28428E-01 2.63149E-35
1.31361E-01 4.01391E-35
1.34323E-01 5.46853E-35
1.37313E-01 6.72735E-35
1.40330E-01 7.64467E-35
1.43375E-01 8.16524E-35
1.46447E-01 8.29654E-35
1.49545E-01 8.08570E-35
1.52671E-01 7.60136E-35
1.55823E-01 6.91996E-35
1.59001E-01 6.11617E-35
1.62205E-01 5.25669E-35
1.65435E-01 4.39679E-35
1.68690E-01 3.57898E-35
1.71970E-01 2.83310E-35
1.75276E-01 2.17755E-35
1.78606E-01 1.62091E-35
1.81961E-01 1.16397E-35
1.85340E-01 8.01751E-36
1.88743E-01 5.25281E-36
1.92169E-01 3.23274E-36
1.95619E-01 1.83423E-36
1.99092E-01 9.34276E-37
2.02589E-01 4.17394E-37
2.06107E-01 1.80393E-37
2.09649E-01 1.35139E-37
2.13212E-01 2.09509E-37
2.16797E-01 3.47124E-37
2.20404E-01 5.06134E-37
2.24032E-01 6.57463E-37
2.27680E-01 7.82730E-37
2.31350E-01 8.72124E-37
2.35040E-01 9.22331E-37
2.38751E-01 9.34707E-37
2.42481E-01 9.13648E-37
2.46231E-01 8.65304E-37
2.50000E-01 7.96554E-37
2.53788E-01 7.14229E-37
2.57595E-01 6.24613E-37
2.61421E-01 5.33120E-37
2.65264E-01 4.44133E-37
2.69126E-01 3.60938E-37
2.73005E-01 2.85820E-37
2.76901E-01 2.20115E-37
2.80814E-01 1.64383E-37
2.84744E-01 1.18551E-37
2.88691E-01 8.20652E-38
2.92653E-01 5.40488E-38
2.96632E-01 3.34221E-38
3.00625E-01 1.90196E-38
3.04634E-01 9.67105E-39
3.08658E-01 1.00000E-45
3.12697E-01 1.00000E-45
3.16749E-01 1.00000E-45
3.20816E-01 1.00000E-45
3.24896E-01 1.00000E-45
3.28990E-01 1.00000E-45
3.33097E-01 1.00000E-45
3.37216E-01 1.00000E-45
3.41348E-01 1.00000E-45
3.45492E-01 1.00000E-45
3.49647E-01 1.00000E-45
3.53814E-01 1.00000E-45
3.57992E-01 1.00000E-45
3.62181E-01 1.00000E-45
3.66381E-01 1.00000E-45
3.70590E-01 1.00000E-45
3.74810E-01 1.00000E-45
3.79039E-01 1.00000E-45
3.83277E-01 1.00000E-45
3.87524E-01 1.00000E-45
3.91780E-01 1.00000E-45
3.96044E-01 1.00000E-45
4.00316E-01 1.00000E-45
4.04596E-01 1.00000E-45
4.08882E-01 1.00000E-45
4.13176E-01 1.00000E-45
4.17476E-01 1.00000E-45
4.21783E-01 1.00000E-45
4.26095E-01 1.00000E-45
4.30413E-01 1.00000E-45
4.34737E-01 1.00000E-45
4.39065E-01 1.00000E-45
4.43398E-01 1.00000E-45
4.47736E-01 1.00000E-45
4.52077E-01 1.00000E-45
4.56422E-01 1.00000E-45
4.60770E-01 1.00000E-45
4.65122E-01 1.00000E-45
4.69476E-01 1.00000E-45
4.73832E-01 1.00000E-45
4.78190E-01 1.00000E-45
4.82550E-01 1.00000E-45
4.86912E-01 1.00000E-45
4.91274E-01 1.00000E-45
4.95637E-01 1.00000E-45
5.00000E-01 1.00000E-45
5.04363E-01 1.00000E-45
5.08726E-01 1.00000E-45
5.13088E-01 1.00000E-45
5.17450E-01 1.00000E-45
5.21810E-01 1.00000E-45
5.26168E-01 1.00000E-45
5.30524E-01 1.00000E-45
5.34878E-01 1.00000E-45
5.39230E-01 1.00000E-45
5.43578E-01 1.00000E-45
5.47923E-01 1.00000E-45
5.52264E-01 1.00000E-45
5.56602E-01 1.00000E-45
5.60935E-01 1.00000E-45
5.65263E-01 1.00000E-45
5.69587E-01 1.00000E-45
5.73905E-01 1.00000E-45
5.78217E-01 1.00000E-45
5.82524E-01 1.00000E-45
5.86824E-01 1.00000E-45
5.91118E-01 1.00000E-45
5.95404E-01 1.00000E-45
5.99684E-01 1.00000E-45
6.03956E-01 1.00000E-45
6.08220E-01 1.00000E-45
6.12476E-01 1.00000E-45
6.16723E-01 1.00000E-45
6.20961E-01 1.00000E-45
6.25190E-01 1.00000E-45
6.29410E-01 1.00000E-45
6.33619E-01 1.00000E-45
6.37819E-01 1.00000E-45
6.42008E-01 1.00000E-45
6.46186E-01 1.00000E-45
6.50353E-01 1.00000E-45
6.54508E-01 1.00000E-45
6.58652E-01 1.00000E-45
6.62784E-01 1.00000E-45
6.66903E-01 1.00000E-45
6.71010E-01 1.00000E-45
6.75104E-01 1.00000E-45
6.79184E-01 1.00000E-45
6.83251E-01 1.00000E-45
6.87303E-01 1.00000E-45
6.91342E-01 1.00000E-45
6.95366E-01 1.00000E-45
6.99375E-01 1.00000E-45
7.03368E-01 1.00000E-45
7.07347E-01 1.00000E-45
7.11309E-01 1.00000E-45
7.15256E-01 1.00000E-45
7.19186E-01 1.00000E-45
7.23099E-01 1.00000E-45
7.26995E-01 1.00000E-45
7.30874E-01 1.00000E-45
7.34736E-01 1.00000E-45
7.38579E-01 1.00000E-45
7.42405E-01 1.00000E-45
7.46212E-01 1.00000E-45
7.50000E-01 1.00000E-45
7.53769E-01 1.00000E-45
7.57519E-01 1.00000E-45
7.61249E-01 1.00000E-45
7.64960E-01 1.00000E-45
7.68650E-01 1.00000E-45
7.72320E-01 1.00000E-45
7.75968E-01 1.00000E-45
7.79596E-01 1.00000E-45
7.83203E-01 1.00000E-45
7.86788E-01 1.00000E-45
7.90351E-01 1.00000E-45
7.93893E-01 1.00000E-45
7.97411E-01 1.00000E-45
8.00908E-01 1.00000E-45
8.04381E-01 1.00000E-45
8.07831E-01 1.00000E-45
8.11257E-01 1.00000E-45
8.14660E-01 1.00000E-45
8.18039E-01 1.00000E-45
8.21394E-01 1.00000E-45
8.24724E-01 1.00000E-45
8.28030E-01 1.00000E-45
8.31310E-01 1.00000E-45
8.34565E-01 1.00000E-45
8.37795E-01 1.00000E-45
8.40999E-01 1.00000E-45
8.44177E-01 1.00000E-45
8.47329E-01 1.00000E-45
8.50455E-01 1.00000E-45
8.53553E-01 1.00000E-45
8.56625E-01 1.00000E-45
8.59670E-01 1.00000E-45
8.62687E-01 1.00000E-45
8.65677E-01 1.00000E-45
8.68639E-01 1.00000E-45
8.71572E-01 1.00000E-45
8.74478E-01 1.00000E-45
8.77355E-01 1.00000E-45
8.80203E-01 1.00000E-45
8.83022E-01 1.00000E-45
8.85812E-01 1.00000E-45
8.88573E-01 1.00000E-45
8.91304E-01 1.00000E-45
8.94005E-01 1.00000E-45
8.96677E-01 1.00000E-45
8.99318E-01 1.00000E-45
9.01928E-01 1.00000E-45
9.04508E-01 1.00000E-45
9.07058E-01 1.00000E-45
9.09576E-01 1.00000E-45
9.12063E-01 1.00000E-45
9.14519E-01 1.00000E-45
9.16943E-01 1.00000E-45
9.19335E-01 1.00000E-45
9.21696E-01 1.00000E-45
9.24024E-01 1.00000E-45
9.26320E-01 1.00000E-45
9.28584E-01 1.00000E-45
9.30815E-01 1.00000E-45
9.33013E-01 1.00000E-45
9.35178E-01 1.00000E-45
9.37310E-01 1.00000E-45
9.39409E-01 1.00000E-45
9.41474E-01 1.00000E-45
9.43505E-01 1.00000E-45
9.45503E-01 1.00000E-45
9.47467E-01 1.00000E-45
9.49397E-01 1.00000E-45
9.51293E-01 1.00000E-45
9.53154E-01 1.00000E-45
9.54981E-01 1.00000E-45
9.56773E-01 1.00000E-45
9.58530E-01 1.00000E-45
9.60252E-01 1.00000E-45
9.61940E-01 1.00000E-45
9.63592E-01 1.00000E-45
9.65209E-01 1.00000E-45
9.66790E-01 1.00000E-45
9.68336E-01 1.00000E-45
9.69846E-01 1.00000E-45
9.71321E-01 1.00000E-45
9.72759E-01 1.00000E-45
9.74162E-01 1.00000E-45
9.75528E-01 1.00000E-45
9.76858E-01 1.00000E-45
9.78152E-01 1.00000E-45
9.79410E-01 1.00000E-45
9.80631E-01 1.00000E-45
9.81815E-01 1.00000E-45
9.82963E-01 1.00000E-45
9.84074E-01 1.00000E-45
9.85148E-01 1.00000E-45
9.86185E-01 1.00000E-45
9.87185E-01 1.00000E-45
9.88148E-01 1.00000E-45
9.89074E-01 1.00000E-45
9.89962E-01 1.00000E-45
9.90814E-01 1.00000E-45
9.91627E-01 1.00000E-45
9.92404E-01 1.00000E-45
9.93143E-01 1.00000E-45
9.93844E-01 1.00000E-45
9.94508E-01 1.00000E-45
9.95134E-01 1.00000E-45
9.95722E-01 1.00000E-45
9.96273E-01 1.00000E-45
9.96786E-01 1.00000E-45
9.97261E-01 1.00000E-45
9.97698E-01 1.00000E-45
9.98097E-01 1.00000E-45
9.98459E-01 1.00000E-45
9.98782E-01 1.00000E-45
9.99067E-01 1.00000E-45
9.99315E-01 1.00000E-45
9.99524E-01 1.00000E-45
9.99695E-01 1.00000E-45
9.99829E-01 1.00000E-45
9.99924E-01 1.00000E-45
9.99981E-01 1.00000E-45
1.00000E+00 1.00000E-45
