 #
 # Subroutine ELSEPA. Elastic scattering of electrons and positrons
 #                    by neutral atoms and positive ions
 #
 # Projectile: positron
 # Kinetic energy = 5.00000E+06 eV = 1.83747E+05 a.u.
 #
 # WARNING: High-energy factorization with free-atom DF screening.
 #          Absorption, polarization and exchange corrections are
 #          switched off.
 #          Phase shifts are calculated for the bare nucleus.
 #          Scattering amplitudes are not evaluated.
 #
 # Element: Lu,  Z =  71,  atomic weight = 1.74967E+02 g/mol
 #
 # Nuclear model: Fermi distribution
 #                Average radius = 5.98461E-13 cm
 #                Skin thickness = 5.46000E-14 cm
 #
 # Number of electrons = 71
 #
 # Total elastic cross section = 7.24789E-18 cm**2 = 2.58827E-01 a0**2
 # 1st transport cross section = 2.04998E-22 cm**2 = 7.32060E-06 a0**2
 # 2nd transport cross section = 5.89699E-22 cm**2 = 2.10585E-05 a0**2
 #
 #
 # Differential cross section:                       MU=(1-COS(THETA))/2
 #
 #  THETA        MU          DCS          DCS        Sherman      error
 #  (deg)                 (cm**2/sr)   (a0**2/sr)    function
 #----------------------------------------------------------------------
0.00000E+00 2.01237E-12
7.61557E-13 2.01235E-12
1.18994E-12 2.01233E-12
1.71346E-12 2.01232E-12
2.33225E-12 2.01230E-12
3.04617E-12 2.01228E-12
3.85530E-12 2.01225E-12
4.75964E-12 2.01222E-12
5.75917E-12 2.01219E-12
6.85391E-12 2.01216E-12
8.04379E-12 2.01213E-12
9.32893E-12 2.01209E-12
1.07092E-11 2.01205E-12
1.21847E-11 2.01200E-12
1.37554E-11 2.01195E-12
1.54213E-11 2.01190E-12
1.71823E-11 2.01185E-12
1.90386E-11 2.01180E-12
2.09900E-11 2.01174E-12
2.30367E-11 2.01168E-12
2.51785E-11 2.01161E-12
2.74156E-11 2.01155E-12
2.97478E-11 2.01148E-12
3.21752E-11 2.01141E-12
3.46979E-11 2.01133E-12
3.73157E-11 2.01125E-12
4.00286E-11 2.01117E-12
4.28368E-11 2.01109E-12
4.57402E-11 2.01100E-12
4.87388E-11 2.01092E-12
5.18325E-11 2.01082E-12
5.50215E-11 2.01073E-12
5.83057E-11 2.01063E-12
6.16850E-11 2.01053E-12
6.51595E-11 2.01043E-12
6.87293E-11 2.01032E-12
7.23943E-11 2.01021E-12
7.61544E-11 2.01010E-12
1.18991E-10 2.00884E-12
1.71347E-10 2.00730E-12
2.33223E-10 2.00548E-12
3.04617E-10 2.00338E-12
3.85531E-10 2.00102E-12
4.75965E-10 1.99837E-12
5.75917E-10 1.99546E-12
6.85389E-10 1.99228E-12
8.04380E-10 1.98884E-12
9.32891E-10 1.98513E-12
1.07092E-09 1.98116E-12
1.21847E-09 1.97693E-12
1.37554E-09 1.97244E-12
1.54213E-09 1.96770E-12
1.71823E-09 1.96272E-12
1.90386E-09 1.95748E-12
2.09900E-09 1.95200E-12
2.30367E-09 1.94628E-12
2.51785E-09 1.94033E-12
2.74156E-09 1.93415E-12
2.97478E-09 1.92773E-12
3.21752E-09 1.92110E-12
3.46978E-09 1.91424E-12
3.73156E-09 1.90717E-12
4.00286E-09 1.89989E-12
4.28368E-09 1.89240E-12
4.57402E-09 1.88471E-12
4.87388E-09 1.87682E-12
5.18326E-09 1.86874E-12
5.50215E-09 1.86048E-12
5.83057E-09 1.85203E-12
6.16850E-09 1.84340E-12
6.51596E-09 1.83460E-12
6.87293E-09 1.82564E-12
7.23942E-09 1.81651E-12
7.61544E-09 1.80723E-12
1.18991E-08 1.70690E-12
1.71347E-08 1.59662E-12
2.33223E-08 1.48136E-12
3.04617E-08 1.36545E-12
3.85531E-08 1.25236E-12
4.75965E-08 1.14464E-12
5.75917E-08 1.04400E-12
6.85389E-08 9.51349E-13
8.04380E-08 8.67034E-13
9.32891E-08 7.90954E-13
1.07092E-07 7.22711E-13
1.21847E-07 6.61729E-13
1.37554E-07 6.07346E-13
1.54213E-07 5.58871E-13
1.71823E-07 5.15631E-13
1.90386E-07 4.76996E-13
2.09900E-07 4.42393E-13
2.30367E-07 4.11308E-13
2.51785E-07 3.83291E-13
2.74156E-07 3.57950E-13
2.97478E-07 3.34945E-13
3.21752E-07 3.13986E-13
3.46978E-07 2.94824E-13
3.73156E-07 2.77244E-13
4.00286E-07 2.61065E-13
4.28368E-07 2.46131E-13
4.57402E-07 2.32308E-13
4.87388E-07 2.19483E-13
5.18325E-07 2.07555E-13
5.50215E-07 1.96440E-13
5.83057E-07 1.86064E-13
6.16850E-07 1.76362E-13
6.51596E-07 1.67277E-13
6.87293E-07 1.58758E-13
7.23942E-07 1.50762E-13
7.61543E-07 1.43249E-13
1.18991E-06 8.82748E-14
1.71347E-06 5.68607E-14
2.33223E-06 3.81254E-14
3.04617E-06 2.64655E-14
3.85531E-06 1.89021E-14
4.75964E-06 1.38148E-14
5.75916E-06 1.02911E-14
6.85388E-06 7.79351E-15
8.04378E-06 5.99069E-15
9.32888E-06 4.66946E-15
1.07092E-05 3.68807E-15
1.21846E-05 2.94986E-15
1.37553E-05 2.38774E-15
1.54212E-05 1.95449E-15
1.71822E-05 1.61657E-15
1.90385E-05 1.34996E-15
2.09899E-05 1.13718E-15
2.30365E-05 9.65565E-16
2.51783E-05 8.25755E-16
2.74153E-05 7.10792E-16
2.97475E-05 6.15448E-16
3.21749E-05 5.35751E-16
3.46974E-05 4.68654E-16
3.73152E-05 4.11796E-16
4.00281E-05 3.63327E-16
4.28362E-05 3.21785E-16
4.57395E-05 2.86002E-16
4.87380E-05 2.55041E-16
5.18317E-05 2.28139E-16
5.50205E-05 2.04674E-16
5.83045E-05 1.84132E-16
6.16838E-05 1.66088E-16
6.51582E-05 1.50189E-16
6.87277E-05 1.36136E-16
7.23925E-05 1.23680E-16
7.61524E-05 1.12609E-16
9.21439E-05 7.89586E-17
1.09658E-04 5.69659E-17
1.28695E-04 4.21166E-17
1.49255E-04 3.18033E-17
1.71338E-04 2.44617E-17
1.94942E-04 1.91214E-17
2.20070E-04 1.51622E-17
2.46720E-04 1.21768E-17
2.74892E-04 9.89134E-18
3.04586E-04 8.11777E-18
3.35803E-04 6.72439E-18
3.68542E-04 5.61740E-18
4.02802E-04 4.72895E-18
4.38585E-04 4.00920E-18
4.75889E-04 3.42111E-18
5.14715E-04 2.93681E-18
5.55063E-04 2.53506E-18
5.96931E-04 2.19954E-18
6.40321E-04 1.91758E-18
6.85233E-04 1.67925E-18
7.31665E-04 1.47670E-18
7.79618E-04 1.30368E-18
8.29092E-04 1.15518E-18
8.80086E-04 1.02716E-18
9.32601E-04 9.16332E-19
9.86636E-04 8.19996E-19
1.04219E-03 7.35947E-19
1.09927E-03 6.62356E-19
1.15786E-03 5.97703E-19
1.21797E-03 5.40721E-19
1.27961E-03 4.90346E-19
1.34276E-03 4.45683E-19
1.40743E-03 4.05972E-19
1.47362E-03 3.70573E-19
1.54133E-03 3.38936E-19
1.61056E-03 3.10593E-19
1.68131E-03 2.85142E-19
1.75357E-03 2.62237E-19
1.82735E-03 2.41579E-19
1.90265E-03 2.22909E-19
1.97947E-03 2.06003E-19
2.05780E-03 1.90664E-19
2.13765E-03 1.76722E-19
2.21902E-03 1.64028E-19
2.30190E-03 1.52449E-19
2.38630E-03 1.41872E-19
2.47222E-03 1.32193E-19
2.55965E-03 1.23322E-19
2.64859E-03 1.15181E-19
2.73905E-03 1.07699E-19
2.83103E-03 1.00813E-19
2.92452E-03 9.44659E-20
3.01952E-03 8.86092E-20
3.11604E-03 8.31978E-20
3.21407E-03 7.81919E-20
3.31362E-03 7.35554E-20
3.41468E-03 6.92563E-20
3.51725E-03 6.52657E-20
3.62133E-03 6.15572E-20
3.72692E-03 5.81074E-20
3.83403E-03 5.48950E-20
3.94265E-03 5.19006E-20
4.05278E-03 4.91069E-20
4.16442E-03 4.64978E-20
4.27757E-03 4.40590E-20
4.39223E-03 4.17773E-20
4.50840E-03 3.96408E-20
4.62608E-03 3.76385E-20
4.74527E-03 3.57605E-20
4.86597E-03 3.39976E-20
4.98817E-03 3.23415E-20
5.11188E-03 3.07846E-20
5.23711E-03 2.93198E-20
5.36383E-03 2.79406E-20
5.49207E-03 2.66412E-20
5.62181E-03 2.54161E-20
5.75306E-03 2.42602E-20
5.88581E-03 2.31690E-20
6.02007E-03 2.21381E-20
6.15583E-03 2.11636E-20
6.29310E-03 2.02418E-20
6.43187E-03 1.93694E-20
6.57214E-03 1.85432E-20
6.71392E-03 1.77604E-20
6.85720E-03 1.70182E-20
7.00198E-03 1.63141E-20
7.14827E-03 1.56459E-20
7.29605E-03 1.50113E-20
7.44534E-03 1.44084E-20
7.59612E-03 1.38353E-20
7.97965E-03 1.25216E-20
8.37255E-03 1.13593E-20
8.77480E-03 1.03280E-20
9.18641E-03 9.41037E-21
9.60736E-03 8.59179E-21
1.00376E-02 7.85974E-21
1.04773E-02 7.20351E-21
1.09262E-02 6.61390E-21
1.13844E-02 6.08298E-21
1.18520E-02 5.60390E-21
1.23288E-02 5.17074E-21
1.28150E-02 4.77832E-21
1.33104E-02 4.42215E-21
1.38150E-02 4.09831E-21
1.43290E-02 3.80335E-21
1.48521E-02 3.53424E-21
1.53845E-02 3.28833E-21
1.59262E-02 3.06326E-21
1.64770E-02 2.85696E-21
1.70371E-02 2.66760E-21
1.76063E-02 2.49353E-21
1.81848E-02 2.33331E-21
1.87724E-02 2.18564E-21
1.93692E-02 2.04937E-21
1.99751E-02 1.92346E-21
2.05901E-02 1.80698E-21
2.12143E-02 1.69910E-21
2.18476E-02 1.59908E-21
2.24900E-02 1.50625E-21
2.31415E-02 1.41998E-21
2.38021E-02 1.33975E-21
2.44717E-02 1.26505E-21
2.51504E-02 1.19543E-21
2.58382E-02 1.13048E-21
2.65349E-02 1.06984E-21
2.72407E-02 1.01317E-21
2.79555E-02 9.60166E-22
2.86793E-02 9.10545E-22
2.94120E-02 8.64054E-22
3.01537E-02 8.20460E-22
3.09043E-02 7.79552E-22
3.16639E-02 7.41133E-22
3.24324E-02 7.05025E-22
3.32098E-02 6.71065E-22
3.39961E-02 6.39102E-22
3.47912E-02 6.08997E-22
3.55952E-02 5.80623E-22
3.64081E-02 5.53863E-22
3.72297E-02 5.28609E-22
3.80602E-02 5.04761E-22
3.88995E-02 4.82226E-22
3.97476E-02 4.60919E-22
4.06044E-02 4.40761E-22
4.14700E-02 4.21680E-22
4.23443E-02 4.03607E-22
4.32273E-02 3.86480E-22
4.41190E-02 3.70240E-22
4.50194E-02 3.54833E-22
4.59284E-02 3.40209E-22
4.68461E-02 3.26320E-22
4.87074E-02 3.00578E-22
5.06030E-02 2.77292E-22
5.25328E-02 2.56189E-22
5.44967E-02 2.37029E-22
5.64946E-02 2.19603E-22
5.85262E-02 2.03727E-22
6.05914E-02 1.89240E-22
6.26901E-02 1.76000E-22
6.48222E-02 1.63881E-22
6.69873E-02 1.52771E-22
6.91854E-02 1.42573E-22
7.14163E-02 1.33199E-22
7.36799E-02 1.24571E-22
7.59760E-02 1.16619E-22
7.83043E-02 1.09282E-22
8.06647E-02 1.02503E-22
8.30571E-02 9.62324E-23
8.54812E-02 9.04264E-23
8.79369E-02 8.50441E-23
9.04240E-02 8.00493E-23
9.29422E-02 7.54094E-23
9.54915E-02 7.10947E-23
9.80716E-02 6.70785E-23
1.00682E-01 6.33367E-23
1.03323E-01 5.98473E-23
1.05995E-01 5.65902E-23
1.08696E-01 5.35474E-23
1.11427E-01 5.07024E-23
1.14188E-01 4.80399E-23
1.16978E-01 4.55463E-23
1.19797E-01 4.32091E-23
1.22645E-01 4.10168E-23
1.25522E-01 3.89587E-23
1.28428E-01 3.70253E-23
1.31361E-01 3.52077E-23
1.34323E-01 3.34978E-23
1.37313E-01 3.18880E-23
1.40330E-01 3.03716E-23
1.43375E-01 2.89421E-23
1.46447E-01 2.75937E-23
1.49545E-01 2.63210E-23
1.52671E-01 2.51190E-23
1.55823E-01 2.39832E-23
1.59001E-01 2.29092E-23
1.62205E-01 2.18931E-23
1.65435E-01 2.09312E-23
1.68690E-01 2.00202E-23
1.71970E-01 1.91569E-23
1.75276E-01 1.83383E-23
1.78606E-01 1.75617E-23
1.81961E-01 1.68247E-23
1.85340E-01 1.61248E-23
1.88743E-01 1.54599E-23
1.92169E-01 1.48279E-23
1.95619E-01 1.42268E-23
1.99092E-01 1.36550E-23
2.02589E-01 1.31108E-23
2.06107E-01 1.25925E-23
2.09649E-01 1.20988E-23
2.13212E-01 1.16282E-23
2.16797E-01 1.11795E-23
2.20404E-01 1.07516E-23
2.24032E-01 1.03432E-23
2.27680E-01 9.95340E-24
2.31350E-01 9.58111E-24
2.35040E-01 9.22545E-24
2.38751E-01 8.88554E-24
2.42481E-01 8.56057E-24
2.46231E-01 8.24976E-24
2.50000E-01 7.95240E-24
2.53788E-01 7.66780E-24
2.57595E-01 7.39531E-24
2.61421E-01 7.13435E-24
2.65264E-01 6.88432E-24
2.69126E-01 6.64471E-24
2.73005E-01 6.41500E-24
2.76901E-01 6.19470E-24
2.80814E-01 5.98338E-24
2.84744E-01 5.78060E-24
2.88691E-01 5.58596E-24
2.92653E-01 5.39907E-24
2.96632E-01 5.21957E-24
3.00625E-01 5.04712E-24
3.04634E-01 4.88140E-24
3.08658E-01 4.72211E-24
3.12697E-01 4.56894E-24
3.16749E-01 4.42162E-24
3.20816E-01 4.27990E-24
3.24896E-01 4.14352E-24
3.28990E-01 4.01224E-24
3.33097E-01 3.88585E-24
3.37216E-01 3.76413E-24
3.41348E-01 3.64689E-24
3.45492E-01 3.53392E-24
3.49647E-01 3.42504E-24
3.53814E-01 3.32008E-24
3.57992E-01 3.21889E-24
3.62181E-01 3.12129E-24
3.66381E-01 3.02715E-24
3.70590E-01 2.93631E-24
3.74810E-01 2.84864E-24
3.79039E-01 2.76402E-24
3.83277E-01 2.68232E-24
3.87524E-01 2.60341E-24
3.91780E-01 2.52720E-24
3.96044E-01 2.45358E-24
4.00316E-01 2.38243E-24
4.04596E-01 2.31366E-24
4.08882E-01 2.24719E-24
4.13176E-01 2.18291E-24
4.17476E-01 2.12076E-24
4.21783E-01 2.06063E-24
4.26095E-01 2.00247E-24
4.30413E-01 1.94619E-24
4.34737E-01 1.89172E-24
4.39065E-01 1.83899E-24
4.43398E-01 1.78795E-24
4.47736E-01 1.73852E-24
4.52077E-01 1.69065E-24
4.56422E-01 1.64428E-24
4.60770E-01 1.59935E-24
4.65122E-01 1.55582E-24
4.69476E-01 1.51363E-24
4.73832E-01 1.47273E-24
4.78190E-01 1.43309E-24
4.82550E-01 1.39465E-24
4.86912E-01 1.35737E-24
4.91274E-01 1.32121E-24
4.95637E-01 1.28613E-24
5.00000E-01 1.25210E-24
5.04363E-01 1.21907E-24
5.08726E-01 1.18702E-24
5.13088E-01 1.15591E-24
5.17450E-01 1.12571E-24
5.21810E-01 1.09639E-24
5.26168E-01 1.06791E-24
5.30524E-01 1.04025E-24
5.34878E-01 1.01339E-24
5.39230E-01 9.87292E-25
5.43578E-01 9.61934E-25
5.47923E-01 9.37294E-25
5.52264E-01 9.13347E-25
5.56602E-01 8.90070E-25
5.60935E-01 8.67442E-25
5.65263E-01 8.45442E-25
5.69587E-01 8.24050E-25
5.73905E-01 8.03246E-25
5.78217E-01 7.83013E-25
5.82524E-01 7.63331E-25
5.86824E-01 7.44184E-25
5.91118E-01 7.25555E-25
5.95404E-01 7.07427E-25
5.99684E-01 6.89786E-25
6.03956E-01 6.72615E-25
6.08220E-01 6.55902E-25
6.12476E-01 6.39631E-25
6.16723E-01 6.23790E-25
6.20961E-01 6.08365E-25
6.25190E-01 5.93343E-25
6.29410E-01 5.78714E-25
6.33619E-01 5.64464E-25
6.37819E-01 5.50583E-25
6.42008E-01 5.37060E-25
6.46186E-01 5.23884E-25
6.50353E-01 5.11045E-25
6.54508E-01 4.98534E-25
6.58652E-01 4.86340E-25
6.62784E-01 4.74455E-25
6.66903E-01 4.62869E-25
6.71010E-01 4.51575E-25
6.75104E-01 4.40563E-25
6.79184E-01 4.29826E-25
6.83251E-01 4.19356E-25
6.87303E-01 4.09146E-25
6.91342E-01 3.99187E-25
6.95366E-01 3.89474E-25
6.99375E-01 3.79999E-25
7.03368E-01 3.70756E-25
7.07347E-01 3.61738E-25
7.11309E-01 3.52939E-25
7.15256E-01 3.44354E-25
7.19186E-01 3.35975E-25
7.23099E-01 3.27799E-25
7.26995E-01 3.19819E-25
7.30874E-01 3.12030E-25
7.34736E-01 3.04427E-25
7.38579E-01 2.97005E-25
7.42405E-01 2.89759E-25
7.46212E-01 2.82685E-25
7.50000E-01 2.75777E-25
7.53769E-01 2.69033E-25
7.57519E-01 2.62447E-25
7.61249E-01 2.56015E-25
7.64960E-01 2.49734E-25
7.68650E-01 2.43599E-25
7.72320E-01 2.37607E-25
7.75968E-01 2.31754E-25
7.79596E-01 2.26036E-25
7.83203E-01 2.20451E-25
7.86788E-01 2.14995E-25
7.90351E-01 2.09664E-25
7.93893E-01 2.04456E-25
7.97411E-01 1.99367E-25
8.00908E-01 1.94395E-25
8.04381E-01 1.89536E-25
8.07831E-01 1.84788E-25
8.11257E-01 1.80149E-25
8.14660E-01 1.75615E-25
8.18039E-01 1.71184E-25
8.21394E-01 1.66853E-25
8.24724E-01 1.62621E-25
8.28030E-01 1.58484E-25
8.31310E-01 1.54441E-25
8.34565E-01 1.50490E-25
8.37795E-01 1.46627E-25
8.40999E-01 1.42852E-25
8.44177E-01 1.39162E-25
8.47329E-01 1.35555E-25
8.50455E-01 1.32029E-25
8.53553E-01 1.28582E-25
8.56625E-01 1.25213E-25
8.59670E-01 1.21919E-25
8.62687E-01 1.18700E-25
8.65677E-01 1.15553E-25
8.68639E-01 1.12477E-25
8.71572E-01 1.09471E-25
8.74478E-01 1.06532E-25
8.77355E-01 1.03659E-25
8.80203E-01 1.00852E-25
8.83022E-01 9.81076E-26
8.85812E-01 9.54256E-26
8.88573E-01 9.28044E-26
8.91304E-01 9.02426E-26
8.94005E-01 8.77391E-26
8.96677E-01 8.52927E-26
8.99318E-01 8.29021E-26
9.01928E-01 8.05662E-26
9.04508E-01 7.82840E-26
9.07058E-01 7.60542E-26
9.09576E-01 7.38758E-26
9.12063E-01 7.17479E-26
9.14519E-01 6.96694E-26
9.16943E-01 6.76393E-26
9.19335E-01 6.56567E-26
9.21696E-01 6.37207E-26
9.24024E-01 6.18304E-26
9.26320E-01 5.99849E-26
9.28584E-01 5.81833E-26
9.30815E-01 5.64249E-26
9.33013E-01 5.47089E-26
9.35178E-01 5.30344E-26
9.37310E-01 5.14008E-26
9.39409E-01 4.98072E-26
9.41474E-01 4.82530E-26
9.43505E-01 4.67375E-26
9.45503E-01 4.52599E-26
9.47467E-01 4.38198E-26
9.49397E-01 4.24163E-26
9.51293E-01 4.10490E-26
9.53154E-01 3.97172E-26
9.54981E-01 3.84203E-26
9.56773E-01 3.71577E-26
9.58530E-01 3.59290E-26
9.60252E-01 3.47336E-26
9.61940E-01 3.35709E-26
9.63592E-01 3.24405E-26
9.65209E-01 3.13419E-26
9.66790E-01 3.02746E-26
9.68336E-01 2.92382E-26
9.69846E-01 2.82322E-26
9.71321E-01 2.72562E-26
9.72759E-01 2.63098E-26
9.74162E-01 2.53926E-26
9.75528E-01 2.45042E-26
9.76858E-01 2.36443E-26
9.78152E-01 2.28124E-26
9.79410E-01 2.20083E-26
9.80631E-01 2.12316E-26
9.81815E-01 2.04819E-26
9.82963E-01 1.97590E-26
9.84074E-01 1.90626E-26
9.85148E-01 1.83924E-26
9.86185E-01 1.77481E-26
9.87185E-01 1.71294E-26
9.88148E-01 1.65361E-26
9.89074E-01 1.59680E-26
9.89962E-01 1.54248E-26
9.90814E-01 1.49063E-26
9.91627E-01 1.44123E-26
9.92404E-01 1.39425E-26
9.93143E-01 1.34969E-26
9.93844E-01 1.30752E-26
9.94508E-01 1.26772E-26
9.95134E-01 1.23029E-26
9.95722E-01 1.19519E-26
9.96273E-01 1.16243E-26
9.96786E-01 1.13198E-26
9.97261E-01 1.10383E-26
9.97698E-01 1.07798E-26
9.98097E-01 1.05441E-26
9.98459E-01 1.03312E-26
9.98782E-01 1.01408E-26
9.99067E-01 9.97310E-27
9.99315E-01 9.82785E-27
9.99524E-01 9.70505E-27
9.99695E-01 9.60464E-27
9.99829E-01 9.52658E-27
9.99924E-01 9.47085E-27
9.99981E-01 9.43742E-27
1.00000E+00 9.42628E-27
