 #
 # Subroutine ELSEPA. Elastic scattering of electrons and positrons
 #                    by neutral atoms and positive ions
 #
 # Projectile: positron
 # Kinetic energy = 3.50000E+08 eV = 1.28623E+07 a.u.
 #
 # WARNING: High-energy factorization with free-atom DF screening.
 #          Absorption, polarization and exchange corrections are
 #          switched off.
 #          Phase shifts are calculated for the bare nucleus.
 #          Scattering amplitudes are not evaluated.
 #
 # Element: Lu,  Z =  71,  atomic weight = 1.74967E+02 g/mol
 #
 # Nuclear model: Fermi distribution
 #                Average radius = 5.98461E-13 cm
 #                Skin thickness = 5.46000E-14 cm
 #
 # Number of electrons = 71
 #
 # Total elastic cross section = 7.18089E-18 cm**2 = 2.56434E-01 a0**2
 # 1st transport cross section = 7.74123E-26 cm**2 = 2.76444E-09 a0**2
 # 2nd transport cross section = 2.32048E-25 cm**2 = 8.28658E-09 a0**2
 #
 #
 # Differential cross section:                       MU=(1-COS(THETA))/2
 #
 #  THETA        MU          DCS          DCS        Sherman      error
 #  (deg)                 (cm**2/sr)   (a0**2/sr)    function
 #----------------------------------------------------------------------
0.00000E+00 8.14050E-09
7.61557E-13 7.78379E-09
1.18994E-12 7.59457E-09
1.71346E-12 7.37365E-09
2.33225E-12 7.12624E-09
3.04617E-12 6.85787E-09
3.85530E-12 6.57406E-09
4.75964E-12 6.28011E-09
5.75917E-12 5.98075E-09
6.85391E-12 5.68079E-09
8.04379E-12 5.38370E-09
9.32893E-12 5.09258E-09
1.07092E-11 4.81060E-09
1.21847E-11 4.53904E-09
1.37554E-11 4.27964E-09
1.54213E-11 4.03357E-09
1.71823E-11 3.80078E-09
1.90386E-11 3.58203E-09
2.09900E-11 3.37698E-09
2.30367E-11 3.18503E-09
2.51785E-11 3.00635E-09
2.74156E-11 2.83981E-09
2.97478E-11 2.68479E-09
3.21752E-11 2.54094E-09
3.46979E-11 2.40712E-09
3.73157E-11 2.28281E-09
4.00286E-11 2.16729E-09
4.28368E-11 2.05982E-09
4.57402E-11 1.95982E-09
4.87388E-11 1.86660E-09
5.18325E-11 1.77973E-09
5.50215E-11 1.69851E-09
5.83057E-11 1.62256E-09
6.16850E-11 1.55158E-09
6.51595E-11 1.48477E-09
6.87293E-11 1.42215E-09
7.23943E-11 1.36331E-09
7.61544E-11 1.30769E-09
1.18991E-10 8.91403E-10
1.71347E-10 6.31769E-10
2.33223E-10 4.52476E-10
3.04617E-10 3.38434E-10
3.85531E-10 2.54330E-10
4.75965E-10 1.95066E-10
5.75917E-10 1.52786E-10
6.85389E-10 1.20191E-10
8.04380E-10 9.61972E-11
9.32891E-10 7.79569E-11
1.07092E-09 6.34686E-11
1.21847E-09 5.22926E-11
1.37554E-09 4.33779E-11
1.54213E-09 3.61771E-11
1.71823E-09 3.04289E-11
1.90386E-09 2.57066E-11
2.09900E-09 2.18472E-11
2.30367E-09 1.86913E-11
2.51785E-09 1.60520E-11
2.74156E-09 1.38678E-11
2.97478E-09 1.20460E-11
3.21752E-09 1.05048E-11
3.46978E-09 9.20932E-12
3.73156E-09 8.10959E-12
4.00286E-09 7.16967E-12
4.28368E-09 6.36711E-12
4.57402E-09 5.67656E-12
4.87388E-09 5.07653E-12
5.18326E-09 4.55555E-12
5.50215E-09 4.10051E-12
5.83057E-09 3.70282E-12
6.16850E-09 3.35413E-12
6.51596E-09 3.04570E-12
6.87293E-09 2.77322E-12
7.23942E-09 2.53131E-12
7.61544E-09 2.31507E-12
1.18991E-08 1.04460E-12
1.71347E-08 5.37233E-13
2.33223E-08 3.02996E-13
3.04617E-08 1.83559E-13
3.85531E-08 1.17593E-13
4.75965E-08 7.88042E-14
5.75917E-08 5.47598E-14
6.85389E-08 3.92426E-14
8.04380E-08 2.88539E-14
9.32891E-08 2.16889E-14
1.07092E-07 1.66181E-14
1.21847E-07 1.29445E-14
1.37554E-07 1.02326E-14
1.54213E-07 8.19411E-15
1.71823E-07 6.63831E-15
1.90386E-07 5.43448E-15
2.09900E-07 4.49090E-15
2.30367E-07 3.74335E-15
2.51785E-07 3.14475E-15
2.74156E-07 2.66100E-15
2.97478E-07 2.26670E-15
3.21752E-07 1.94268E-15
3.46978E-07 1.67451E-15
3.73156E-07 1.45100E-15
4.00286E-07 1.26355E-15
4.28368E-07 1.10541E-15
4.57402E-07 9.71236E-16
4.87388E-07 8.56818E-16
5.18325E-07 7.58756E-16
5.50215E-07 6.74332E-16
5.83057E-07 6.01332E-16
6.16850E-07 5.37947E-16
6.51596E-07 4.82702E-16
6.87293E-07 4.34370E-16
7.23942E-07 3.91941E-16
7.61543E-07 3.54570E-16
1.18991E-06 1.46465E-16
1.71347E-06 7.10367E-17
2.33223E-06 3.84958E-17
3.04617E-06 2.26289E-17
3.85531E-06 1.41557E-17
4.75964E-06 9.30124E-18
5.75916E-06 6.35978E-18
6.85388E-06 4.49406E-18
8.04378E-06 3.26477E-18
9.32888E-06 2.42834E-18
1.07092E-05 1.84332E-18
1.21846E-05 1.42426E-18
1.37553E-05 1.11776E-18
1.54212E-05 8.89412E-19
1.71822E-05 7.16487E-19
1.90385E-05 5.83309E-19
2.09899E-05 4.80184E-19
2.30365E-05 3.98803E-19
2.51783E-05 3.33858E-19
2.74153E-05 2.81536E-19
2.97475E-05 2.39035E-19
3.21749E-05 2.04254E-19
3.46974E-05 1.75587E-19
3.73152E-05 1.51796E-19
4.00281E-05 1.31915E-19
4.28362E-05 1.15190E-19
4.57395E-05 1.01031E-19
4.87380E-05 8.89771E-20
5.18317E-05 7.86612E-20
5.50205E-05 6.97931E-20
5.83045E-05 6.21378E-20
6.16838E-05 5.55038E-20
6.51582E-05 4.97332E-20
6.87277E-05 4.46948E-20
7.23925E-05 4.02794E-20
7.61524E-05 3.65993E-20
9.21439E-05 2.50035E-20
1.09658E-04 1.76561E-20
1.28695E-04 1.28205E-20
1.49255E-04 9.53142E-21
1.71338E-04 7.23243E-21
1.94942E-04 5.58601E-21
2.20070E-04 4.38199E-21
2.46720E-04 3.48497E-21
2.74892E-04 2.80569E-21
3.04586E-04 2.28375E-21
3.35803E-04 1.87734E-21
3.68542E-04 1.55713E-21
4.02802E-04 1.30208E-21
4.38585E-04 1.09691E-21
4.75889E-04 9.30373E-22
5.14715E-04 7.94069E-22
5.55063E-04 6.81652E-22
5.96931E-04 5.88277E-22
6.40321E-04 5.10208E-22
6.85233E-04 4.44537E-22
7.31665E-04 3.88980E-22
7.79618E-04 3.41729E-22
8.29092E-04 3.01343E-22
8.80086E-04 2.66662E-22
9.32601E-04 2.36750E-22
9.86636E-04 2.10845E-22
1.04219E-03 1.88322E-22
1.09927E-03 1.68668E-22
1.15786E-03 1.51459E-22
1.21797E-03 1.36339E-22
1.27961E-03 1.23015E-22
1.34276E-03 1.11238E-22
1.40743E-03 1.00799E-22
1.47362E-03 9.15216E-23
1.54133E-03 8.32554E-23
1.61056E-03 7.58723E-23
1.68131E-03 6.92627E-23
1.75357E-03 6.33324E-23
1.82735E-03 5.80004E-23
1.90265E-03 5.31966E-23
1.97947E-03 4.88603E-23
2.05780E-03 4.49387E-23
2.13765E-03 4.13859E-23
2.21902E-03 3.81616E-23
2.30190E-03 3.52308E-23
2.38630E-03 3.25625E-23
2.47222E-03 3.01295E-23
2.55965E-03 2.79078E-23
2.64859E-03 2.58762E-23
2.73905E-03 2.40160E-23
2.83103E-03 2.23105E-23
2.92452E-03 2.07448E-23
3.01952E-03 1.93058E-23
3.11604E-03 1.79817E-23
3.21407E-03 1.67619E-23
3.31362E-03 1.56370E-23
3.41468E-03 1.45985E-23
3.51725E-03 1.36389E-23
3.62133E-03 1.27512E-23
3.72692E-03 1.19293E-23
3.83403E-03 1.11676E-23
3.94265E-03 1.04610E-23
4.05278E-03 9.80512E-24
4.16442E-03 9.19570E-24
4.27757E-03 8.62902E-24
4.39223E-03 8.10166E-24
4.50840E-03 7.61054E-24
4.62608E-03 7.15282E-24
4.74527E-03 6.72593E-24
4.86597E-03 6.32752E-24
4.98817E-03 5.95545E-24
5.11188E-03 5.60774E-24
5.23711E-03 5.28260E-24
5.36383E-03 4.97838E-24
5.49207E-03 4.69356E-24
5.62181E-03 4.42676E-24
5.75306E-03 4.17669E-24
5.88581E-03 3.94219E-24
6.02007E-03 3.72216E-24
6.15583E-03 3.51560E-24
6.29310E-03 3.32160E-24
6.43187E-03 3.13931E-24
6.57214E-03 2.96794E-24
6.71392E-03 2.80675E-24
6.85720E-03 2.65509E-24
7.00198E-03 2.51232E-24
7.14827E-03 2.37787E-24
7.29605E-03 2.25121E-24
7.44534E-03 2.13183E-24
7.59612E-03 2.01927E-24
7.97965E-03 1.76498E-24
8.37255E-03 1.54481E-24
8.77480E-03 1.35378E-24
9.18641E-03 1.18773E-24
9.60736E-03 1.04312E-24
1.00376E-02 9.16993E-25
1.04773E-02 8.06809E-25
1.09262E-02 7.10419E-25
1.13844E-02 6.25985E-25
1.18520E-02 5.51935E-25
1.23288E-02 4.86920E-25
1.28150E-02 4.29780E-25
1.33104E-02 3.79513E-25
1.38150E-02 3.35254E-25
1.43290E-02 2.96256E-25
1.48521E-02 2.61868E-25
1.53845E-02 2.31527E-25
1.59262E-02 2.04740E-25
1.64770E-02 1.81081E-25
1.70371E-02 1.60173E-25
1.76063E-02 1.41691E-25
1.81848E-02 1.25347E-25
1.87724E-02 1.10891E-25
1.93692E-02 9.81005E-26
1.99751E-02 8.67827E-26
2.05901E-02 7.67667E-26
2.12143E-02 6.79020E-26
2.18476E-02 6.00560E-26
2.24900E-02 5.31118E-26
2.31415E-02 4.69660E-26
2.38021E-02 4.15274E-26
2.44717E-02 3.67151E-26
2.51504E-02 3.24577E-26
2.58382E-02 2.86920E-26
2.65349E-02 2.53619E-26
2.72407E-02 2.24178E-26
2.79555E-02 1.98156E-26
2.86793E-02 1.75164E-26
2.94120E-02 1.54854E-26
3.01537E-02 1.36920E-26
3.09043E-02 1.21090E-26
3.16639E-02 1.07121E-26
3.24324E-02 9.47996E-27
3.32098E-02 8.39345E-27
3.39961E-02 7.43572E-27
3.47912E-02 6.59177E-27
3.55952E-02 5.84832E-27
3.64081E-02 5.19358E-27
3.72297E-02 4.61710E-27
3.80602E-02 4.10962E-27
3.88995E-02 3.66293E-27
3.97476E-02 3.26979E-27
4.06044E-02 2.92375E-27
4.14700E-02 2.61914E-27
4.23443E-02 2.35092E-27
4.32273E-02 2.11466E-27
4.41190E-02 1.90645E-27
4.50194E-02 1.72282E-27
4.59284E-02 1.56073E-27
4.68461E-02 1.41750E-27
4.87074E-02 1.17846E-27
5.06030E-02 9.90082E-28
5.25328E-02 8.40343E-28
5.44967E-02 7.20049E-28
5.64946E-02 6.22204E-28
5.85262E-02 5.41508E-28
6.05914E-02 4.73978E-28
6.26901E-02 4.16632E-28
6.48222E-02 3.67254E-28
6.69873E-02 3.24206E-28
6.91854E-02 2.86281E-28
7.14163E-02 2.52592E-28
7.36799E-02 2.22485E-28
7.59760E-02 1.95476E-28
7.83043E-02 1.71202E-28
8.06647E-02 1.49382E-28
8.30571E-02 1.29793E-28
8.54812E-02 1.12250E-28
8.79369E-02 9.65950E-29
9.04240E-02 8.26830E-29
9.29422E-02 7.03812E-29
9.54915E-02 5.95626E-29
9.80716E-02 5.01051E-29
1.00682E-01 4.18902E-29
1.03323E-01 3.48031E-29
1.05995E-01 2.87329E-29
1.08696E-01 2.35730E-29
1.11427E-01 1.92220E-29
1.14188E-01 1.55842E-29
1.16978E-01 1.25700E-29
1.19797E-01 1.00963E-29
1.22645E-01 8.08704E-30
1.25522E-01 6.47279E-30
1.28428E-01 5.19123E-30
1.31361E-01 4.18678E-30
1.34323E-01 3.41037E-30
1.37313E-01 2.81918E-30
1.40330E-01 2.37622E-30
1.43375E-01 2.04989E-30
1.46447E-01 1.81353E-30
1.49545E-01 1.64495E-30
1.52671E-01 1.52593E-30
1.55823E-01 1.44175E-30
1.59001E-01 1.38077E-30
1.62205E-01 1.33395E-30
1.65435E-01 1.29451E-30
1.68690E-01 1.25750E-30
1.71970E-01 1.21954E-30
1.75276E-01 1.17845E-30
1.78606E-01 1.13306E-30
1.81961E-01 1.08295E-30
1.85340E-01 1.02823E-30
1.88743E-01 9.69448E-31
1.92169E-01 9.07384E-31
1.95619E-01 8.42983E-31
1.99092E-01 7.77256E-31
2.02589E-01 7.11210E-31
2.06107E-01 6.45803E-31
2.09649E-01 5.81904E-31
2.13212E-01 5.20271E-31
2.16797E-01 4.61541E-31
2.20404E-01 4.06221E-31
2.24032E-01 3.54689E-31
2.27680E-01 3.07203E-31
2.31350E-01 2.63908E-31
2.35040E-01 2.24848E-31
2.38751E-01 1.89979E-31
2.42481E-01 1.59185E-31
2.46231E-01 1.32286E-31
2.50000E-01 1.09059E-31
2.53788E-01 8.92414E-32
2.57595E-01 7.25508E-32
2.61421E-01 5.86897E-32
2.65264E-01 4.73559E-32
2.69126E-01 3.82501E-32
2.73005E-01 3.10816E-32
2.76901E-01 2.55733E-32
2.80814E-01 2.14657E-32
2.84744E-01 1.85192E-32
2.88691E-01 1.65159E-32
2.92653E-01 1.52609E-32
2.96632E-01 1.45818E-32
3.00625E-01 1.43290E-32
3.04634E-01 1.43746E-32
3.08658E-01 1.46111E-32
3.12697E-01 1.49503E-32
3.16749E-01 1.53212E-32
3.20816E-01 1.56688E-32
3.24896E-01 1.59518E-32
3.28990E-01 1.61411E-32
3.33097E-01 1.62180E-32
3.37216E-01 1.61726E-32
3.41348E-01 1.60020E-32
3.45492E-01 1.57093E-32
3.49647E-01 1.53019E-32
3.53814E-01 1.47905E-32
3.57992E-01 1.41882E-32
3.62181E-01 1.35095E-32
3.66381E-01 1.27694E-32
3.70590E-01 1.19834E-32
3.74810E-01 1.11661E-32
3.79039E-01 1.03317E-32
3.83277E-01 9.49318E-33
3.87524E-01 8.66220E-33
3.91780E-01 7.84906E-33
3.96044E-01 7.06259E-33
4.00316E-01 6.31013E-33
4.04596E-01 5.59756E-33
4.08882E-01 4.92937E-33
4.13176E-01 4.30877E-33
4.17476E-01 3.73773E-33
4.21783E-01 3.21720E-33
4.26095E-01 2.74714E-33
4.30413E-01 2.32671E-33
4.34737E-01 1.95440E-33
4.39065E-01 1.62811E-33
4.43398E-01 1.34531E-33
4.47736E-01 1.10313E-33
4.52077E-01 8.98476E-34
4.56422E-01 7.28096E-34
4.60770E-01 5.88678E-34
4.65122E-01 4.76917E-34
4.69476E-01 3.89563E-34
4.73832E-01 3.23484E-34
4.78190E-01 2.75690E-34
4.82550E-01 2.43374E-34
4.86912E-01 2.23926E-34
4.91274E-01 2.14953E-34
4.95637E-01 2.14287E-34
5.00000E-01 2.19985E-34
5.04363E-01 2.30328E-34
5.08726E-01 2.43818E-34
5.13088E-01 2.59167E-34
5.17450E-01 2.75286E-34
5.21810E-01 2.91272E-34
5.26168E-01 3.06395E-34
5.30524E-01 3.20078E-34
5.34878E-01 3.31890E-34
5.39230E-01 3.41521E-34
5.43578E-01 3.48773E-34
5.47923E-01 3.53541E-34
5.52264E-01 3.55802E-34
5.56602E-01 3.55601E-34
5.60935E-01 3.53035E-34
5.65263E-01 3.48248E-34
5.69587E-01 3.41414E-34
5.73905E-01 3.32733E-34
5.78217E-01 3.22421E-34
5.82524E-01 3.10702E-34
5.86824E-01 2.97804E-34
5.91118E-01 2.83950E-34
5.95404E-01 2.69359E-34
5.99684E-01 2.54240E-34
6.03956E-01 2.38788E-34
6.08220E-01 2.23184E-34
6.12476E-01 2.07592E-34
6.16723E-01 1.92163E-34
6.20961E-01 1.77025E-34
6.25190E-01 1.62294E-34
6.29410E-01 1.48064E-34
6.33619E-01 1.34418E-34
6.37819E-01 1.21418E-34
6.42008E-01 1.09116E-34
6.46186E-01 9.75465E-35
6.50353E-01 8.67345E-35
6.54508E-01 7.66920E-35
6.58652E-01 6.74206E-35
6.62784E-01 5.89142E-35
6.66903E-01 5.11582E-35
6.71010E-01 4.41321E-35
6.75104E-01 3.78092E-35
6.79184E-01 3.21587E-35
6.83251E-01 2.71461E-35
6.87303E-01 2.27346E-35
6.91342E-01 1.88853E-35
6.95366E-01 1.55580E-35
6.99375E-01 1.27126E-35
7.03368E-01 1.03086E-35
7.07347E-01 8.30586E-36
7.11309E-01 6.66587E-36
7.15256E-01 5.35066E-36
7.19186E-01 4.32423E-36
7.23099E-01 3.55233E-36
7.26995E-01 3.00245E-36
7.30874E-01 2.64449E-36
7.34736E-01 2.45011E-36
7.38579E-01 2.39345E-36
7.42405E-01 2.45063E-36
7.46212E-01 2.60003E-36
7.50000E-01 2.82209E-36
7.53769E-01 3.09937E-36
7.57519E-01 3.41629E-36
7.61249E-01 3.75924E-36
7.64960E-01 4.11629E-36
7.68650E-01 4.47725E-36
7.72320E-01 4.83335E-36
7.75968E-01 5.17737E-36
7.79596E-01 5.50328E-36
7.83203E-01 5.80629E-36
7.86788E-01 6.08265E-36
7.90351E-01 6.32958E-36
7.93893E-01 6.54512E-36
7.97411E-01 6.72821E-36
8.00908E-01 6.87817E-36
8.04381E-01 6.99498E-36
8.07831E-01 7.07938E-36
8.11257E-01 7.13205E-36
8.14660E-01 7.15430E-36
8.18039E-01 7.14756E-36
8.21394E-01 7.11363E-36
8.24724E-01 7.05433E-36
8.28030E-01 6.97166E-36
8.31310E-01 6.86758E-36
8.34565E-01 6.74419E-36
8.37795E-01 6.60364E-36
8.40999E-01 6.44791E-36
8.44177E-01 6.27901E-36
8.47329E-01 6.09883E-36
8.50455E-01 5.90934E-36
8.53553E-01 5.71219E-36
8.56625E-01 5.50918E-36
8.59670E-01 5.30171E-36
8.62687E-01 5.09135E-36
8.65677E-01 4.87953E-36
8.68639E-01 4.66718E-36
8.71572E-01 4.45570E-36
8.74478E-01 4.24593E-36
8.77355E-01 4.03889E-36
8.80203E-01 3.83519E-36
8.83022E-01 3.63566E-36
8.85812E-01 3.44081E-36
8.88573E-01 3.25129E-36
8.91304E-01 3.06736E-36
8.94005E-01 2.88944E-36
8.96677E-01 2.71791E-36
8.99318E-01 2.55273E-36
9.01928E-01 2.39415E-36
9.04508E-01 2.24236E-36
9.07058E-01 2.09731E-36
9.09576E-01 1.95898E-36
9.12063E-01 1.82745E-36
9.14519E-01 1.70245E-36
9.16943E-01 1.58404E-36
9.19335E-01 1.47198E-36
9.21696E-01 1.36617E-36
9.24024E-01 1.26647E-36
9.26320E-01 1.17253E-36
9.28584E-01 1.08439E-36
9.30815E-01 1.00164E-36
9.33013E-01 9.24150E-37
9.35178E-01 8.51678E-37
9.37310E-01 7.84003E-37
9.39409E-01 7.20892E-37
9.41474E-01 6.62142E-37
9.43505E-01 6.07450E-37
9.45503E-01 5.56731E-37
9.47467E-01 5.09611E-37
9.49397E-01 4.66031E-37
9.51293E-01 4.25701E-37
9.53154E-01 3.88473E-37
9.54981E-01 3.54076E-37
9.56773E-01 3.22430E-37
9.58530E-01 2.93255E-37
9.60252E-01 2.66458E-37
9.61940E-01 2.41833E-37
9.63592E-01 2.19277E-37
9.65209E-01 1.98593E-37
9.66790E-01 1.79671E-37
9.68336E-01 1.62356E-37
9.69846E-01 1.46549E-37
9.71321E-01 1.32162E-37
9.72759E-01 1.19031E-37
9.74162E-01 1.07083E-37
9.75528E-01 9.62200E-38
9.76858E-01 8.63541E-38
9.78152E-01 7.74045E-38
9.79410E-01 6.92972E-38
9.80631E-01 6.19592E-38
9.81815E-01 5.53141E-38
9.82963E-01 4.93198E-38
9.84074E-01 4.39092E-38
9.85148E-01 3.90210E-38
9.86185E-01 3.46148E-38
9.87185E-01 3.06541E-38
9.88148E-01 2.70899E-38
9.89074E-01 2.38999E-38
9.89962E-01 2.10155E-38
9.90814E-01 1.84452E-38
9.91627E-01 1.61404E-38
9.92404E-01 1.40688E-38
9.93143E-01 1.22374E-38
9.93844E-01 1.05877E-38
9.94508E-01 9.11251E-39
9.95134E-01 7.81149E-39
9.95722E-01 6.64988E-39
9.96273E-01 5.61818E-39
9.96786E-01 4.70791E-39
9.97261E-01 3.90436E-39
9.97698E-01 3.20533E-39
9.98097E-01 2.59127E-39
9.98459E-01 2.05428E-39
9.98782E-01 1.59601E-39
9.99067E-01 1.20421E-39
9.99315E-01 8.70948E-40
9.99524E-01 5.97144E-40
9.99695E-01 3.79383E-40
9.99829E-01 2.12163E-40
9.99924E-01 9.56113E-41
9.99981E-01 2.56380E-41
1.00000E+00 3.61260E-42
