 #
 # Subroutine ELSEPA. Elastic scattering of electrons and positrons
 #                    by neutral atoms and positive ions
 #
 # Projectile: positron
 # Kinetic energy = 5.00000E+08 eV = 1.83747E+07 a.u.
 #
 # WARNING: High-energy factorization with free-atom DF screening.
 #          Absorption, polarization and exchange corrections are
 #          switched off.
 #          Phase shifts are calculated for the bare nucleus.
 #          Scattering amplitudes are not evaluated.
 #
 # Element: Lu,  Z =  71,  atomic weight = 1.74967E+02 g/mol
 #
 # Nuclear model: Fermi distribution
 #                Average radius = 5.98461E-13 cm
 #                Skin thickness = 5.46000E-14 cm
 #
 # Number of electrons = 71
 #
 # Total elastic cross section = 7.17136E-18 cm**2 = 2.56094E-01 a0**2
 # 1st transport cross section = 3.80286E-26 cm**2 = 1.35803E-09 a0**2
 # 2nd transport cross section = 1.14040E-25 cm**2 = 4.07246E-09 a0**2
 #
 #
 # Differential cross section:                       MU=(1-COS(THETA))/2
 #
 #  THETA        MU          DCS          DCS        Sherman      error
 #  (deg)                 (cm**2/sr)   (a0**2/sr)    function
 #----------------------------------------------------------------------
0.00000E+00 1.65987E-08
7.61557E-13 1.51709E-08
1.18994E-12 1.44564E-08
1.71346E-12 1.36581E-08
2.33225E-12 1.28080E-08
3.04617E-12 1.19357E-08
3.85530E-12 1.10667E-08
4.75964E-12 1.02213E-08
5.75917E-12 9.41441E-09
6.85391E-12 8.65658E-09
8.04379E-12 7.95361E-09
9.32893E-12 7.30766E-09
1.07092E-11 6.71854E-09
1.21847E-11 6.18418E-09
1.37554E-11 5.70131E-09
1.54213E-11 5.26599E-09
1.71823E-11 4.87397E-09
1.90386E-11 4.52095E-09
2.09900E-11 4.20283E-09
2.30367E-11 3.91571E-09
2.51785E-11 3.65603E-09
2.74156E-11 3.42047E-09
2.97478E-11 3.20627E-09
3.21752E-11 3.01093E-09
3.46979E-11 2.83226E-09
3.73157E-11 2.66835E-09
4.00286E-11 2.51756E-09
4.28368E-11 2.37842E-09
4.57402E-11 2.24970E-09
4.87388E-11 2.13030E-09
5.18325E-11 2.01929E-09
5.50215E-11 1.91583E-09
5.83057E-11 1.81902E-09
6.16850E-11 1.72841E-09
6.51595E-11 1.64350E-09
6.87293E-11 1.56380E-09
7.23943E-11 1.48889E-09
7.61544E-11 1.41839E-09
1.18991E-10 8.83999E-10
1.71347E-10 5.83204E-10
2.33223E-10 3.98202E-10
3.04617E-10 2.80388E-10
3.85531E-10 2.02773E-10
4.75965E-10 1.49955E-10
5.75917E-10 1.12962E-10
6.85389E-10 8.63407E-11
8.04380E-10 6.68896E-11
9.32891E-10 5.24919E-11
1.07092E-09 4.16882E-11
1.21847E-09 3.34834E-11
1.37554E-09 2.71832E-11
1.54213E-09 2.22944E-11
1.71823E-09 1.84622E-11
1.90386E-09 1.54279E-11
2.09900E-09 1.30029E-11
2.30367E-09 1.10489E-11
2.51785E-09 9.44704E-12
2.74156E-09 8.13165E-12
2.97478E-09 7.04366E-12
3.21752E-09 6.13640E-12
3.46978E-09 5.37377E-12
3.73156E-09 4.72788E-12
4.00286E-09 4.17708E-12
4.28368E-09 3.70452E-12
4.57402E-09 3.29694E-12
4.87388E-09 2.94380E-12
5.18326E-09 2.63662E-12
5.50215E-09 2.36845E-12
5.83057E-09 2.13337E-12
6.16850E-09 1.92674E-12
6.51596E-09 1.74452E-12
6.87293E-09 1.58328E-12
7.23942E-09 1.44016E-12
7.61544E-09 1.31275E-12
1.18991E-08 5.73685E-13
1.71347E-08 2.88928E-13
2.33223E-08 1.60960E-13
3.04617E-08 9.66359E-14
3.85531E-08 6.14938E-14
4.75965E-08 4.09819E-14
5.75917E-08 2.83538E-14
6.85389E-08 2.02332E-14
8.04380E-08 1.48208E-14
9.32891E-08 1.11012E-14
1.07092E-07 8.47671E-15
1.21847E-07 6.58291E-15
1.37554E-07 5.18905E-15
1.54213E-07 4.14492E-15
1.71823E-07 3.35039E-15
1.90386E-07 2.73732E-15
2.09900E-07 2.25823E-15
2.30367E-07 1.87946E-15
2.51785E-07 1.57687E-15
2.74156E-07 1.33280E-15
2.97478E-07 1.13419E-15
3.21752E-07 9.71227E-16
3.46978E-07 8.36521E-16
3.73156E-07 7.24388E-16
4.00286E-07 6.30434E-16
4.28368E-07 5.51234E-16
4.57402E-07 4.84094E-16
4.87388E-07 4.26874E-16
5.18325E-07 3.77865E-16
5.50215E-07 3.35693E-16
5.83057E-07 2.99245E-16
6.16850E-07 2.67612E-16
6.51596E-07 2.40051E-16
6.87293E-07 2.15949E-16
7.23942E-07 1.94797E-16
7.61543E-07 1.76172E-16
1.18991E-06 7.25881E-17
1.71347E-06 3.51341E-17
2.33223E-06 1.90090E-17
3.04617E-06 1.11599E-17
3.85531E-06 6.97430E-18
4.75964E-06 4.57908E-18
5.75916E-06 3.12909E-18
6.85388E-06 2.21007E-18
8.04378E-06 1.60492E-18
9.32888E-06 1.19336E-18
1.07092E-05 9.05631E-19
1.21846E-05 6.99596E-19
1.37553E-05 5.48944E-19
1.54212E-05 4.36734E-19
1.71822E-05 3.51776E-19
1.90385E-05 2.86357E-19
2.09899E-05 2.35709E-19
2.30365E-05 1.95744E-19
2.51783E-05 1.63856E-19
2.74153E-05 1.38167E-19
2.97475E-05 1.17303E-19
3.21749E-05 1.00229E-19
3.46974E-05 8.61588E-20
3.73152E-05 7.44818E-20
4.00281E-05 6.47243E-20
4.28362E-05 5.65164E-20
4.57395E-05 4.95684E-20
4.87380E-05 4.36531E-20
5.18317E-05 3.85911E-20
5.50205E-05 3.42397E-20
5.83045E-05 3.04835E-20
6.16838E-05 2.72286E-20
6.51582E-05 2.43973E-20
6.87277E-05 2.19254E-20
7.23925E-05 1.97592E-20
7.61524E-05 1.80244E-20
9.21439E-05 1.23141E-20
1.09658E-04 8.69440E-21
1.28695E-04 6.31097E-21
1.49255E-04 4.68933E-21
1.71338E-04 3.55562E-21
1.94942E-04 2.74357E-21
2.20070E-04 2.14972E-21
2.46720E-04 1.70739E-21
2.74892E-04 1.37247E-21
3.04586E-04 1.11518E-21
3.35803E-04 9.14921E-22
3.68542E-04 7.57203E-22
4.02802E-04 6.31651E-22
4.38585E-04 5.30726E-22
4.75889E-04 4.48873E-22
5.14715E-04 3.81942E-22
5.55063E-04 3.26801E-22
5.96931E-04 2.81055E-22
6.40321E-04 2.42859E-22
6.85233E-04 2.10776E-22
7.31665E-04 1.83678E-22
7.79618E-04 1.60672E-22
8.29092E-04 1.41045E-22
8.80086E-04 1.24225E-22
9.32601E-04 1.09749E-22
9.86636E-04 9.72411E-23
1.04219E-03 8.63930E-23
1.09927E-03 7.69513E-23
1.15786E-03 6.87062E-23
1.21797E-03 6.14834E-23
1.27961E-03 5.51374E-23
1.34276E-03 4.95460E-23
1.40743E-03 4.46064E-23
1.47362E-03 4.02315E-23
1.54133E-03 3.63476E-23
1.61056E-03 3.28915E-23
1.68131E-03 2.98096E-23
1.75357E-03 2.70557E-23
1.82735E-03 2.45899E-23
1.90265E-03 2.23782E-23
1.97947E-03 2.03906E-23
2.05780E-03 1.86015E-23
2.13765E-03 1.69884E-23
2.21902E-03 1.55317E-23
2.30190E-03 1.42144E-23
2.38630E-03 1.30214E-23
2.47222E-03 1.19394E-23
2.55965E-03 1.09570E-23
2.64859E-03 1.00638E-23
2.73905E-03 9.25079E-24
2.83103E-03 8.50988E-24
2.92452E-03 7.83396E-24
3.01952E-03 7.21668E-24
3.11604E-03 6.65240E-24
3.21407E-03 6.13606E-24
3.31362E-03 5.66315E-24
3.41468E-03 5.22966E-24
3.51725E-03 4.83194E-24
3.62133E-03 4.46676E-24
3.72692E-03 4.13118E-24
3.83403E-03 3.82259E-24
3.94265E-03 3.53861E-24
4.05278E-03 3.27710E-24
4.16442E-03 3.03612E-24
4.27757E-03 2.81392E-24
4.39223E-03 2.60891E-24
4.50840E-03 2.41966E-24
4.62608E-03 2.24485E-24
4.74527E-03 2.08331E-24
4.86597E-03 1.93394E-24
4.98817E-03 1.79577E-24
5.11188E-03 1.66789E-24
5.23711E-03 1.54949E-24
5.36383E-03 1.43982E-24
5.49207E-03 1.33819E-24
5.62181E-03 1.24398E-24
5.75306E-03 1.15661E-24
5.88581E-03 1.07557E-24
6.02007E-03 1.00036E-24
6.15583E-03 9.30548E-25
6.29310E-03 8.65725E-25
6.43187E-03 8.05517E-25
6.57214E-03 7.49582E-25
6.71392E-03 6.97604E-25
6.85720E-03 6.49290E-25
7.00198E-03 6.04373E-25
7.14827E-03 5.62605E-25
7.29605E-03 5.23759E-25
7.44534E-03 4.87623E-25
7.59612E-03 4.54002E-25
7.97965E-03 3.79807E-25
8.37255E-03 3.17784E-25
8.77480E-03 2.65901E-25
9.18641E-03 2.22479E-25
9.60736E-03 1.86128E-25
1.00376E-02 1.55689E-25
1.04773E-02 1.30200E-25
1.09262E-02 1.08860E-25
1.13844E-02 9.09953E-26
1.18520E-02 7.60464E-26
1.23288E-02 6.35426E-26
1.28150E-02 5.30897E-26
1.33104E-02 4.43569E-26
1.38150E-02 3.70661E-26
1.43290E-02 3.09840E-26
1.48521E-02 2.59141E-26
1.53845E-02 2.16914E-26
1.59262E-02 1.81773E-26
1.64770E-02 1.52551E-26
1.70371E-02 1.28269E-26
1.76063E-02 1.08104E-26
1.81848E-02 9.13646E-27
1.87724E-02 7.74734E-27
1.93692E-02 6.59453E-27
1.99751E-02 5.63748E-27
2.05901E-02 4.84234E-27
2.12143E-02 4.18088E-27
2.18476E-02 3.62959E-27
2.24900E-02 3.16895E-27
2.31415E-02 2.78280E-27
2.38021E-02 2.45776E-27
2.44717E-02 2.18280E-27
2.51504E-02 1.94884E-27
2.58382E-02 1.74846E-27
2.65349E-02 1.57559E-27
2.72407E-02 1.42527E-27
2.79555E-02 1.29350E-27
2.86793E-02 1.17703E-27
2.94120E-02 1.07325E-27
3.01537E-02 9.80058E-28
3.09043E-02 8.95782E-28
3.16639E-02 8.19087E-28
3.24324E-02 7.48910E-28
3.32098E-02 6.84409E-28
3.39961E-02 6.24916E-28
3.47912E-02 5.69900E-28
3.55952E-02 5.18935E-28
3.64081E-02 4.71679E-28
3.72297E-02 4.27855E-28
3.80602E-02 3.87231E-28
3.88995E-02 3.49609E-28
3.97476E-02 3.14820E-28
4.06044E-02 2.82711E-28
4.14700E-02 2.53141E-28
4.23443E-02 2.25980E-28
4.32273E-02 2.01101E-28
4.41190E-02 1.78382E-28
4.50194E-02 1.57704E-28
4.59284E-02 1.38948E-28
4.68461E-02 1.21997E-28
4.87074E-02 9.30535E-29
5.06030E-02 6.99703E-29
5.25328E-02 5.18840E-29
5.44967E-02 3.79833E-29
5.64946E-02 2.75227E-29
5.85262E-02 1.98320E-29
6.05914E-02 1.43230E-29
6.26901E-02 1.04904E-29
6.48222E-02 7.91056E-30
6.69873E-02 6.23688E-30
6.91854E-02 5.19297E-30
7.14163E-02 4.56474E-30
7.36799E-02 4.19172E-30
7.59760E-02 3.95834E-30
7.83043E-02 3.78548E-30
8.06647E-02 3.62278E-30
8.30571E-02 3.44171E-30
8.54812E-02 3.22962E-30
8.79369E-02 2.98481E-30
9.04240E-02 2.71250E-30
9.29422E-02 2.42176E-30
9.54915E-02 2.12316E-30
9.80716E-02 1.82718E-30
1.00682E-01 1.54311E-30
1.03323E-01 1.27846E-30
1.05995E-01 1.03868E-30
1.08696E-01 8.27195E-31
1.11427E-01 6.45514E-31
1.14188E-01 4.93543E-31
1.16978E-01 3.69895E-31
1.19797E-01 2.72236E-31
1.22645E-01 1.97602E-31
1.25522E-01 1.42695E-31
1.28428E-01 1.04126E-31
1.31361E-01 7.86045E-32
1.34323E-01 6.30849E-32
1.37313E-01 5.48606E-32
1.40330E-01 5.16188E-32
1.43375E-01 5.14603E-32
1.46447E-01 5.28911E-32
1.49545E-01 5.47958E-32
1.52671E-01 5.63950E-32
1.55823E-01 5.71968E-32
1.59001E-01 5.69437E-32
1.62205E-01 5.55610E-32
1.65435E-01 5.31079E-32
1.68690E-01 4.97343E-32
1.71970E-01 4.56435E-32
1.75276E-01 4.10625E-32
1.78606E-01 3.62182E-32
1.81961E-01 3.13204E-32
1.85340E-01 2.65506E-32
1.88743E-01 2.20557E-32
1.92169E-01 1.79452E-32
1.95619E-01 1.42919E-32
1.99092E-01 1.11351E-32
2.02589E-01 8.48481E-33
2.06107E-01 6.32662E-33
2.09649E-01 4.62772E-33
2.13212E-01 3.34204E-33
2.16797E-01 2.41529E-33
2.20404E-01 1.78936E-33
2.24032E-01 1.40595E-33
2.27680E-01 1.20946E-33
2.31350E-01 1.14909E-33
2.35040E-01 1.18023E-33
2.38751E-01 1.26527E-33
2.42481E-01 1.37380E-33
2.46231E-01 1.48248E-33
2.50000E-01 1.57451E-33
2.53788E-01 1.63891E-33
2.57595E-01 1.66969E-33
2.61421E-01 1.66493E-33
2.65264E-01 1.62585E-33
2.69126E-01 1.55598E-33
2.73005E-01 1.46039E-33
2.76901E-01 1.34496E-33
2.80814E-01 1.21588E-33
2.84744E-01 1.07917E-33
2.88691E-01 9.40356E-34
2.92653E-01 8.04260E-34
2.96632E-01 6.74850E-34
3.00625E-01 5.55189E-34
3.04634E-01 4.47442E-34
3.08658E-01 3.52930E-34
3.12697E-01 2.72220E-34
3.16749E-01 2.05234E-34
3.20816E-01 1.51370E-34
3.24896E-01 1.09628E-34
3.28990E-01 7.87261E-35
3.33097E-01 5.72113E-35
3.37216E-01 4.35555E-35
3.41348E-01 3.62342E-35
3.45492E-01 3.37931E-35
3.49647E-01 3.48940E-35
3.53814E-01 3.83495E-35
3.57992E-01 4.31434E-35
3.62181E-01 4.84378E-35
3.66381E-01 5.35728E-35
3.70590E-01 5.80569E-35
3.74810E-01 6.15527E-35
3.79039E-01 6.38588E-35
3.83277E-01 6.48891E-35
3.87524E-01 6.46518E-35
3.91780E-01 6.32272E-35
3.96044E-01 6.07495E-35
4.00316E-01 5.73878E-35
4.04596E-01 5.33303E-35
4.08882E-01 4.87715E-35
4.13176E-01 4.39007E-35
4.17476E-01 3.88943E-35
4.21783E-01 3.39099E-35
4.26095E-01 2.90815E-35
4.30413E-01 2.45187E-35
4.34737E-01 2.03054E-35
4.39065E-01 1.65008E-35
4.43398E-01 1.31413E-35
4.47736E-01 1.02426E-35
4.52077E-01 7.80281E-36
4.56422E-01 5.80514E-36
4.60770E-01 4.22138E-36
4.65122E-01 3.01477E-36
4.69476E-01 2.14269E-36
4.73832E-01 1.55945E-36
4.78190E-01 1.21818E-36
4.82550E-01 1.07291E-36
4.86912E-01 1.07989E-36
4.91274E-01 1.19877E-36
4.95637E-01 1.39338E-36
5.00000E-01 1.63230E-36
5.04363E-01 1.88890E-36
5.08726E-01 2.14152E-36
5.13088E-01 2.37325E-36
5.17450E-01 2.57161E-36
5.21810E-01 2.72818E-36
5.26168E-01 2.83803E-36
5.30524E-01 2.89930E-36
5.34878E-01 2.91266E-36
5.39230E-01 2.88074E-36
5.43578E-01 2.80773E-36
5.47923E-01 2.69880E-36
5.52264E-01 2.55987E-36
5.56602E-01 2.39711E-36
5.60935E-01 2.21674E-36
5.65263E-01 2.02473E-36
5.69587E-01 1.82667E-36
5.73905E-01 1.62763E-36
5.78217E-01 1.43201E-36
5.82524E-01 1.24356E-36
5.86824E-01 1.06532E-36
5.91118E-01 8.99651E-37
5.95404E-01 7.48235E-37
5.99684E-01 6.12170E-37
6.03956E-01 4.91974E-37
6.08220E-01 3.87719E-37
6.12476E-01 2.99035E-37
6.16723E-01 2.25264E-37
6.20961E-01 1.65440E-37
6.25190E-01 1.18422E-37
6.29410E-01 8.29142E-38
6.33619E-01 5.75977E-38
6.37819E-01 4.10701E-38
6.42008E-01 3.19568E-38
6.46186E-01 2.89481E-38
6.50353E-01 3.08048E-38
6.54508E-01 3.63716E-38
6.58652E-01 4.46002E-38
6.62784E-01 5.45745E-38
6.66903E-01 6.54951E-38
6.71010E-01 7.66849E-38
6.75104E-01 8.75834E-38
6.79184E-01 9.77422E-38
6.83251E-01 1.06824E-37
6.87303E-01 1.14579E-37
6.91342E-01 1.20848E-37
6.95366E-01 1.25544E-37
6.99375E-01 1.28646E-37
7.03368E-01 1.30182E-37
7.07347E-01 1.30228E-37
7.11309E-01 1.28886E-37
7.15256E-01 1.26291E-37
7.19186E-01 1.22591E-37
7.23099E-01 1.17941E-37
7.26995E-01 1.12505E-37
7.30874E-01 1.06441E-37
7.34736E-01 9.99094E-38
7.38579E-01 9.30507E-38
7.42405E-01 8.60028E-38
7.46212E-01 7.88907E-38
7.50000E-01 7.18225E-38
7.53769E-01 6.48910E-38
7.57519E-01 5.81833E-38
7.61249E-01 5.17600E-38
7.64960E-01 4.56741E-38
7.68650E-01 3.99707E-38
7.72320E-01 3.46721E-38
7.75968E-01 2.98028E-38
7.79596E-01 2.53670E-38
7.83203E-01 2.13662E-38
7.86788E-01 1.77934E-38
7.90351E-01 1.46357E-38
7.93893E-01 1.18742E-38
7.97411E-01 9.49215E-39
8.00908E-01 7.46028E-39
8.04381E-01 5.75084E-39
8.07831E-01 4.34277E-39
8.11257E-01 3.20218E-39
8.14660E-01 1.00000E-45
8.18039E-01 1.00000E-45
8.21394E-01 1.00000E-45
8.24724E-01 1.00000E-45
8.28030E-01 1.00000E-45
8.31310E-01 1.00000E-45
8.34565E-01 1.00000E-45
8.37795E-01 1.00000E-45
8.40999E-01 1.00000E-45
8.44177E-01 1.00000E-45
8.47329E-01 1.00000E-45
8.50455E-01 1.00000E-45
8.53553E-01 1.00000E-45
8.56625E-01 1.00000E-45
8.59670E-01 1.00000E-45
8.62687E-01 1.00000E-45
8.65677E-01 1.00000E-45
8.68639E-01 1.00000E-45
8.71572E-01 1.00000E-45
8.74478E-01 1.00000E-45
8.77355E-01 1.00000E-45
8.80203E-01 1.00000E-45
8.83022E-01 1.00000E-45
8.85812E-01 1.00000E-45
8.88573E-01 1.00000E-45
8.91304E-01 1.00000E-45
8.94005E-01 1.00000E-45
8.96677E-01 1.00000E-45
8.99318E-01 1.00000E-45
9.01928E-01 1.00000E-45
9.04508E-01 1.00000E-45
9.07058E-01 1.00000E-45
9.09576E-01 1.00000E-45
9.12063E-01 1.00000E-45
9.14519E-01 1.00000E-45
9.16943E-01 1.00000E-45
9.19335E-01 1.00000E-45
9.21696E-01 1.00000E-45
9.24024E-01 1.00000E-45
9.26320E-01 1.00000E-45
9.28584E-01 1.00000E-45
9.30815E-01 1.00000E-45
9.33013E-01 1.00000E-45
9.35178E-01 1.00000E-45
9.37310E-01 1.00000E-45
9.39409E-01 1.00000E-45
9.41474E-01 1.00000E-45
9.43505E-01 1.00000E-45
9.45503E-01 1.00000E-45
9.47467E-01 1.00000E-45
9.49397E-01 1.00000E-45
9.51293E-01 1.00000E-45
9.53154E-01 1.00000E-45
9.54981E-01 1.00000E-45
9.56773E-01 1.00000E-45
9.58530E-01 1.00000E-45
9.60252E-01 1.00000E-45
9.61940E-01 1.00000E-45
9.63592E-01 1.00000E-45
9.65209E-01 1.00000E-45
9.66790E-01 1.00000E-45
9.68336E-01 1.00000E-45
9.69846E-01 1.00000E-45
9.71321E-01 1.00000E-45
9.72759E-01 1.00000E-45
9.74162E-01 1.00000E-45
9.75528E-01 1.00000E-45
9.76858E-01 1.00000E-45
9.78152E-01 1.00000E-45
9.79410E-01 1.00000E-45
9.80631E-01 1.00000E-45
9.81815E-01 1.00000E-45
9.82963E-01 1.00000E-45
9.84074E-01 1.00000E-45
9.85148E-01 1.00000E-45
9.86185E-01 1.00000E-45
9.87185E-01 1.00000E-45
9.88148E-01 1.00000E-45
9.89074E-01 1.00000E-45
9.89962E-01 1.00000E-45
9.90814E-01 1.00000E-45
9.91627E-01 1.00000E-45
9.92404E-01 1.00000E-45
9.93143E-01 1.00000E-45
9.93844E-01 1.00000E-45
9.94508E-01 1.00000E-45
9.95134E-01 1.00000E-45
9.95722E-01 1.00000E-45
9.96273E-01 1.00000E-45
9.96786E-01 1.00000E-45
9.97261E-01 1.00000E-45
9.97698E-01 1.00000E-45
9.98097E-01 1.00000E-45
9.98459E-01 1.00000E-45
9.98782E-01 1.00000E-45
9.99067E-01 1.00000E-45
9.99315E-01 1.00000E-45
9.99524E-01 1.00000E-45
9.99695E-01 1.00000E-45
9.99829E-01 1.00000E-45
9.99924E-01 1.00000E-45
9.99981E-01 1.00000E-45
1.00000E+00 1.00000E-45
