 #
 # Subroutine ELSEPA. Elastic scattering of electrons and positrons
 #                    by neutral atoms and positive ions
 #
 # Projectile: positron
 # Kinetic energy = 7.00000E+07 eV = 2.57245E+06 a.u.
 #
 # WARNING: High-energy factorization with free-atom DF screening.
 #          Absorption, polarization and exchange corrections are
 #          switched off.
 #          Phase shifts are calculated for the bare nucleus.
 #          Scattering amplitudes are not evaluated.
 #
 # Element: Lu,  Z =  71,  atomic weight = 1.74967E+02 g/mol
 #
 # Nuclear model: Fermi distribution
 #                Average radius = 5.98461E-13 cm
 #                Skin thickness = 5.46000E-14 cm
 #
 # Number of electrons = 71
 #
 # Total elastic cross section = 7.18172E-18 cm**2 = 2.56464E-01 a0**2
 # 1st transport cross section = 1.83137E-24 cm**2 = 6.53994E-08 a0**2
 # 2nd transport cross section = 5.40822E-24 cm**2 = 1.93131E-07 a0**2
 #
 #
 # Differential cross section:                       MU=(1-COS(THETA))/2
 #
 #  THETA        MU          DCS          DCS        Sherman      error
 #  (deg)                 (cm**2/sr)   (a0**2/sr)    function
 #----------------------------------------------------------------------
0.00000E+00 3.29429E-10
7.61557E-13 3.28821E-10
1.18994E-12 3.28480E-10
1.71346E-12 3.28066E-10
2.33225E-12 3.27577E-10
3.04617E-12 3.27014E-10
3.85530E-12 3.26379E-10
4.75964E-12 3.25671E-10
5.75917E-12 3.24892E-10
6.85391E-12 3.24042E-10
8.04379E-12 3.23122E-10
9.32893E-12 3.22134E-10
1.07092E-11 3.21079E-10
1.21847E-11 3.19957E-10
1.37554E-11 3.18770E-10
1.54213E-11 3.17519E-10
1.71823E-11 3.16206E-10
1.90386E-11 3.14831E-10
2.09900E-11 3.13397E-10
2.30367E-11 3.11904E-10
2.51785E-11 3.10355E-10
2.74156E-11 3.08751E-10
2.97478E-11 3.07093E-10
3.21752E-11 3.05384E-10
3.46979E-11 3.03624E-10
3.73157E-11 3.01816E-10
4.00286E-11 2.99962E-10
4.28368E-11 2.98062E-10
4.57402E-11 2.96120E-10
4.87388E-11 2.94136E-10
5.18325E-11 2.92113E-10
5.50215E-11 2.90053E-10
5.83057E-11 2.87956E-10
6.16850E-11 2.85826E-10
6.51595E-11 2.83663E-10
6.87293E-11 2.81470E-10
7.23943E-11 2.79248E-10
7.61544E-11 2.77001E-10
1.18991E-10 2.53442E-10
1.71347E-10 2.29044E-10
2.33223E-10 2.05139E-10
3.04617E-10 1.82689E-10
3.85531E-10 1.62218E-10
4.75965E-10 1.43961E-10
5.75917E-10 1.27939E-10
6.85389E-10 1.14019E-10
8.04380E-10 1.01981E-10
9.32891E-10 9.15945E-11
1.07092E-09 8.26288E-11
1.21847E-09 7.48636E-11
1.37554E-09 6.81117E-11
1.54213E-09 6.22068E-11
1.71823E-09 5.70102E-11
1.90386E-09 5.24160E-11
2.09900E-09 4.83319E-11
2.30367E-09 4.46663E-11
2.51785E-09 4.13718E-11
2.74156E-09 3.83980E-11
2.97478E-09 3.56961E-11
3.21752E-09 3.32303E-11
3.46978E-09 3.09798E-11
3.73156E-09 2.89201E-11
4.00286E-09 2.70199E-11
4.28368E-09 2.52724E-11
4.57402E-09 2.36628E-11
4.87388E-09 2.20450E-11
5.18326E-09 2.05769E-11
5.50215E-09 1.92622E-11
5.83057E-09 1.80812E-11
6.16850E-09 1.70173E-11
6.51596E-09 1.60564E-11
6.87293E-09 1.51861E-11
7.23942E-09 1.43806E-11
7.61544E-09 1.34990E-11
1.18991E-08 7.77503E-12
1.71347E-08 4.78806E-12
2.33223E-08 3.10399E-12
3.04617E-08 2.07812E-12
3.85531E-08 1.43704E-12
4.75965E-08 1.02070E-12
5.75917E-08 7.41362E-13
6.85389E-08 5.49960E-13
8.04380E-08 4.16557E-13
9.32891E-08 3.21566E-13
1.07092E-07 2.52423E-13
1.21847E-07 2.01240E-13
1.37554E-07 1.62560E-13
1.54213E-07 1.32955E-13
1.71823E-07 1.09931E-13
1.90386E-07 9.17693E-14
2.09900E-07 7.72453E-14
2.30367E-07 6.54681E-14
2.51785E-07 5.58535E-14
2.74156E-07 4.79428E-14
2.97478E-07 4.13819E-14
3.21752E-07 3.59027E-14
3.46978E-07 3.13013E-14
3.73156E-07 2.74121E-14
4.00286E-07 2.41008E-14
4.28368E-07 2.12719E-14
4.57402E-07 1.88446E-14
4.87388E-07 1.67404E-14
5.18325E-07 1.49295E-14
5.50215E-07 1.33663E-14
5.83057E-07 1.19919E-14
6.16850E-07 1.07904E-14
6.51596E-07 9.74087E-15
6.87293E-07 8.81157E-15
7.23942E-07 7.98961E-15
7.61543E-07 7.26433E-15
1.18991E-06 3.11712E-15
1.71347E-06 1.55177E-15
2.33223E-06 8.57444E-16
3.04617E-06 5.11628E-16
3.85531E-06 3.23796E-16
4.75964E-06 2.14691E-16
5.75916E-06 1.47850E-16
6.85388E-06 1.05081E-16
8.04378E-06 7.67007E-17
9.32888E-06 5.72784E-17
1.07092E-05 4.36282E-17
1.21846E-05 3.38111E-17
1.37553E-05 2.66057E-17
1.54212E-05 2.12213E-17
1.71822E-05 1.71327E-17
1.90385E-05 1.39759E-17
2.09899E-05 1.15261E-17
2.30365E-05 9.58890E-18
2.51783E-05 8.03993E-18
2.74153E-05 6.78975E-18
2.97475E-05 5.77253E-18
3.21749E-05 4.93877E-18
3.46974E-05 4.25059E-18
3.73152E-05 3.67866E-18
4.00281E-05 3.20009E-18
4.28362E-05 2.79701E-18
4.57395E-05 2.45539E-18
4.87380E-05 2.16421E-18
5.18317E-05 1.91478E-18
5.50205E-05 1.70014E-18
5.83045E-05 1.51469E-18
6.16838E-05 1.35384E-18
6.51582E-05 1.21381E-18
6.87277E-05 1.09145E-18
7.23925E-05 9.84149E-19
7.61524E-05 8.89800E-19
9.21439E-05 6.08426E-19
1.09658E-04 4.29886E-19
1.28695E-04 3.12268E-19
1.49255E-04 2.32210E-19
1.71338E-04 1.76229E-19
1.94942E-04 1.36126E-19
2.20070E-04 1.06799E-19
2.46720E-04 8.49534E-20
2.74892E-04 6.84121E-20
3.04586E-04 5.57037E-20
3.35803E-04 4.58103E-20
3.68542E-04 3.80166E-20
4.02802E-04 3.18098E-20
4.38585E-04 2.68180E-20
4.75889E-04 2.27668E-20
5.14715E-04 1.94513E-20
5.55063E-04 1.67172E-20
5.96931E-04 1.44463E-20
6.40321E-04 1.25476E-20
6.85233E-04 1.09504E-20
7.31665E-04 9.59897E-21
7.79618E-04 8.44938E-21
8.29092E-04 7.46654E-21
8.80086E-04 6.62228E-21
9.32601E-04 5.89381E-21
9.86636E-04 5.26261E-21
1.04219E-03 4.71352E-21
1.09927E-03 4.23406E-21
1.15786E-03 3.81391E-21
1.21797E-03 3.44449E-21
1.27961E-03 3.11862E-21
1.34276E-03 2.83031E-21
1.40743E-03 2.57447E-21
1.47362E-03 2.34683E-21
1.54133E-03 2.14373E-21
1.61056E-03 1.96207E-21
1.68131E-03 1.79921E-21
1.75357E-03 1.65284E-21
1.82735E-03 1.52102E-21
1.90265E-03 1.40204E-21
1.97947E-03 1.29444E-21
2.05780E-03 1.19693E-21
2.13765E-03 1.10840E-21
2.21902E-03 1.02788E-21
2.30190E-03 9.54511E-22
2.38630E-03 8.87553E-22
2.47222E-03 8.26342E-22
2.55965E-03 7.70299E-22
2.64859E-03 7.18909E-22
2.73905E-03 6.71717E-22
2.83103E-03 6.28319E-22
2.92452E-03 5.88356E-22
3.01952E-03 5.51506E-22
3.11604E-03 5.17484E-22
3.21407E-03 4.86034E-22
3.31362E-03 4.56926E-22
3.41468E-03 4.29955E-22
3.51725E-03 4.04936E-22
3.62133E-03 3.81701E-22
3.72692E-03 3.60101E-22
3.83403E-03 3.40000E-22
3.94265E-03 3.21275E-22
4.05278E-03 3.03814E-22
4.16442E-03 2.87518E-22
4.27757E-03 2.72293E-22
4.39223E-03 2.58058E-22
4.50840E-03 2.44736E-22
4.62608E-03 2.32257E-22
4.74527E-03 2.20559E-22
4.86597E-03 2.09585E-22
4.98817E-03 1.99280E-22
5.11188E-03 1.89598E-22
5.23711E-03 1.80491E-22
5.36383E-03 1.71919E-22
5.49207E-03 1.63847E-22
5.62181E-03 1.56240E-22
5.75306E-03 1.49066E-22
5.88581E-03 1.42296E-22
6.02007E-03 1.35904E-22
6.15583E-03 1.29863E-22
6.29310E-03 1.24152E-22
6.43187E-03 1.18749E-22
6.57214E-03 1.13635E-22
6.71392E-03 1.08791E-22
6.85720E-03 1.04200E-22
7.00198E-03 9.98461E-23
7.14827E-03 9.57158E-23
7.29605E-03 9.17951E-23
7.44534E-03 8.80713E-23
7.59612E-03 8.45327E-23
7.97965E-03 7.64270E-23
8.37255E-03 6.92616E-23
8.77480E-03 6.29090E-23
9.18641E-03 5.72615E-23
9.60736E-03 5.22275E-23
1.00376E-02 4.77292E-23
1.04773E-02 4.36998E-23
1.09262E-02 4.00821E-23
1.13844E-02 3.68269E-23
1.18520E-02 3.38917E-23
1.23288E-02 3.12396E-23
1.28150E-02 2.88386E-23
1.33104E-02 2.66610E-23
1.38150E-02 2.46823E-23
1.43290E-02 2.28812E-23
1.48521E-02 2.12391E-23
1.53845E-02 1.97395E-23
1.59262E-02 1.83679E-23
1.64770E-02 1.71116E-23
1.70371E-02 1.59591E-23
1.76063E-02 1.49004E-23
1.81848E-02 1.39266E-23
1.87724E-02 1.30296E-23
1.93692E-02 1.22024E-23
1.99751E-02 1.14385E-23
2.05901E-02 1.07324E-23
2.12143E-02 1.00789E-23
2.18476E-02 9.47333E-24
2.24900E-02 8.91165E-24
2.31415E-02 8.39011E-24
2.38021E-02 7.90535E-24
2.44717E-02 7.45432E-24
2.51504E-02 7.03427E-24
2.58382E-02 6.64271E-24
2.65349E-02 6.27738E-24
2.72407E-02 5.93620E-24
2.79555E-02 5.61732E-24
2.86793E-02 5.31903E-24
2.94120E-02 5.03976E-24
3.01537E-02 4.77810E-24
3.09043E-02 4.53275E-24
3.16639E-02 4.30251E-24
3.24324E-02 4.08629E-24
3.32098E-02 3.88310E-24
3.39961E-02 3.69201E-24
3.47912E-02 3.51219E-24
3.55952E-02 3.34285E-24
3.64081E-02 3.18328E-24
3.72297E-02 3.03282E-24
3.80602E-02 2.89086E-24
3.88995E-02 2.75684E-24
3.97476E-02 2.63024E-24
4.06044E-02 2.51058E-24
4.14700E-02 2.39741E-24
4.23443E-02 2.29033E-24
4.32273E-02 2.18895E-24
4.41190E-02 2.09291E-24
4.50194E-02 2.00189E-24
4.59284E-02 1.91559E-24
4.68461E-02 1.83370E-24
4.87074E-02 1.68218E-24
5.06030E-02 1.54540E-24
5.25328E-02 1.42172E-24
5.44967E-02 1.30968E-24
5.64946E-02 1.20801E-24
5.85262E-02 1.11561E-24
6.05914E-02 1.03150E-24
6.26901E-02 9.54821E-25
6.48222E-02 8.84814E-25
6.69873E-02 8.20809E-25
6.91854E-02 7.62214E-25
7.14163E-02 7.08502E-25
7.36799E-02 6.59203E-25
7.59760E-02 6.13900E-25
7.83043E-02 5.72220E-25
8.06647E-02 5.33830E-25
8.30571E-02 4.98430E-25
8.54812E-02 4.65755E-25
8.79369E-02 4.35561E-25
9.04240E-02 4.07634E-25
9.29422E-02 3.81778E-25
9.54915E-02 3.57816E-25
9.80716E-02 3.35590E-25
1.00682E-01 3.14956E-25
1.03323E-01 2.95783E-25
1.05995E-01 2.77953E-25
1.08696E-01 2.61358E-25
1.11427E-01 2.45900E-25
1.14188E-01 2.31491E-25
1.16978E-01 2.18050E-25
1.19797E-01 2.05501E-25
1.22645E-01 1.93779E-25
1.25522E-01 1.82820E-25
1.28428E-01 1.72568E-25
1.31361E-01 1.62971E-25
1.34323E-01 1.53982E-25
1.37313E-01 1.45557E-25
1.40330E-01 1.37656E-25
1.43375E-01 1.30241E-25
1.46447E-01 1.23280E-25
1.49545E-01 1.16740E-25
1.52671E-01 1.10592E-25
1.55823E-01 1.04811E-25
1.59001E-01 9.93708E-26
1.62205E-01 9.42493E-26
1.65435E-01 8.94254E-26
1.68690E-01 8.48795E-26
1.71970E-01 8.05936E-26
1.75276E-01 7.65509E-26
1.78606E-01 7.27359E-26
1.81961E-01 6.91343E-26
1.85340E-01 6.57325E-26
1.88743E-01 6.25181E-26
1.92169E-01 5.94796E-26
1.95619E-01 5.66061E-26
1.99092E-01 5.38877E-26
2.02589E-01 5.13149E-26
2.06107E-01 4.88790E-26
2.09649E-01 4.65719E-26
2.13212E-01 4.43859E-26
2.16797E-01 4.23141E-26
2.20404E-01 4.03496E-26
2.24032E-01 3.84864E-26
2.27680E-01 3.67185E-26
2.31350E-01 3.50407E-26
2.35040E-01 3.34477E-26
2.38751E-01 3.19348E-26
2.42481E-01 3.04976E-26
2.46231E-01 2.91317E-26
2.50000E-01 2.78334E-26
2.53788E-01 2.65989E-26
2.57595E-01 2.54247E-26
2.61421E-01 2.43075E-26
2.65264E-01 2.32444E-26
2.69126E-01 2.22324E-26
2.73005E-01 2.12687E-26
2.76901E-01 2.03509E-26
2.80814E-01 1.94766E-26
2.84744E-01 1.86434E-26
2.88691E-01 1.78492E-26
2.92653E-01 1.70920E-26
2.96632E-01 1.63700E-26
3.00625E-01 1.56813E-26
3.04634E-01 1.50243E-26
3.08658E-01 1.43973E-26
3.12697E-01 1.37988E-26
3.16749E-01 1.32274E-26
3.20816E-01 1.26818E-26
3.24896E-01 1.21607E-26
3.28990E-01 1.16629E-26
3.33097E-01 1.11872E-26
3.37216E-01 1.07326E-26
3.41348E-01 1.02981E-26
3.45492E-01 9.88262E-27
3.49647E-01 9.48533E-27
3.53814E-01 9.10535E-27
3.57992E-01 8.74184E-27
3.62181E-01 8.39404E-27
3.66381E-01 8.06121E-27
3.70590E-01 7.74264E-27
3.74810E-01 7.43766E-27
3.79039E-01 7.14566E-27
3.83277E-01 6.86602E-27
3.87524E-01 6.59818E-27
3.91780E-01 6.34160E-27
3.96044E-01 6.09576E-27
4.00316E-01 5.86018E-27
4.04596E-01 5.63440E-27
4.08882E-01 5.41797E-27
4.13176E-01 5.21047E-27
4.17476E-01 5.01150E-27
4.21783E-01 4.82069E-27
4.26095E-01 4.63767E-27
4.30413E-01 4.46210E-27
4.34737E-01 4.29365E-27
4.39065E-01 4.13201E-27
4.43398E-01 3.97688E-27
4.47736E-01 3.82799E-27
4.52077E-01 3.68505E-27
4.56422E-01 3.54781E-27
4.60770E-01 3.41603E-27
4.65122E-01 3.28948E-27
4.69476E-01 3.16792E-27
4.73832E-01 3.05115E-27
4.78190E-01 2.93897E-27
4.82550E-01 2.83118E-27
4.86912E-01 2.72760E-27
4.91274E-01 2.62805E-27
4.95637E-01 2.53236E-27
5.00000E-01 2.44037E-27
5.04363E-01 2.35192E-27
5.08726E-01 2.26688E-27
5.13088E-01 2.18510E-27
5.17450E-01 2.10645E-27
5.21810E-01 2.03079E-27
5.26168E-01 1.95801E-27
5.30524E-01 1.88799E-27
5.34878E-01 1.82062E-27
5.39230E-01 1.75578E-27
5.43578E-01 1.69339E-27
5.47923E-01 1.63333E-27
5.52264E-01 1.57552E-27
5.56602E-01 1.51986E-27
5.60935E-01 1.46628E-27
5.65263E-01 1.41468E-27
5.69587E-01 1.36499E-27
5.73905E-01 1.31714E-27
5.78217E-01 1.27104E-27
5.82524E-01 1.22664E-27
5.86824E-01 1.18387E-27
5.91118E-01 1.14266E-27
5.95404E-01 1.10295E-27
5.99684E-01 1.06468E-27
6.03956E-01 1.02780E-27
6.08220E-01 9.92259E-28
6.12476E-01 9.57997E-28
6.16723E-01 9.24968E-28
6.20961E-01 8.93126E-28
6.25190E-01 8.62425E-28
6.29410E-01 8.32821E-28
6.33619E-01 8.04272E-28
6.37819E-01 7.76740E-28
6.42008E-01 7.50185E-28
6.46186E-01 7.24570E-28
6.50353E-01 6.99861E-28
6.54508E-01 6.76022E-28
6.58652E-01 6.53023E-28
6.62784E-01 6.30830E-28
6.66903E-01 6.09415E-28
6.71010E-01 5.88748E-28
6.75104E-01 5.68802E-28
6.79184E-01 5.49550E-28
6.83251E-01 5.30967E-28
6.87303E-01 5.13027E-28
6.91342E-01 4.95707E-28
6.95366E-01 4.78986E-28
6.99375E-01 4.62840E-28
7.03368E-01 4.47248E-28
7.07347E-01 4.32192E-28
7.11309E-01 4.17650E-28
7.15256E-01 4.03605E-28
7.19186E-01 3.90039E-28
7.23099E-01 3.76935E-28
7.26995E-01 3.64275E-28
7.30874E-01 3.52044E-28
7.34736E-01 3.40227E-28
7.38579E-01 3.28808E-28
7.42405E-01 3.17775E-28
7.46212E-01 3.07112E-28
7.50000E-01 2.96807E-28
7.53769E-01 2.86848E-28
7.57519E-01 2.77221E-28
7.61249E-01 2.67916E-28
7.64960E-01 2.58921E-28
7.68650E-01 2.50225E-28
7.72320E-01 2.41818E-28
7.75968E-01 2.33689E-28
7.79596E-01 2.25829E-28
7.83203E-01 2.18229E-28
7.86788E-01 2.10880E-28
7.90351E-01 2.03772E-28
7.93893E-01 1.96898E-28
7.97411E-01 1.90250E-28
8.00908E-01 1.83819E-28
8.04381E-01 1.77599E-28
8.07831E-01 1.71582E-28
8.11257E-01 1.65761E-28
8.14660E-01 1.60129E-28
8.18039E-01 1.54681E-28
8.21394E-01 1.49410E-28
8.24724E-01 1.44309E-28
8.28030E-01 1.39374E-28
8.31310E-01 1.34598E-28
8.34565E-01 1.29976E-28
8.37795E-01 1.25504E-28
8.40999E-01 1.21175E-28
8.44177E-01 1.16986E-28
8.47329E-01 1.12931E-28
8.50455E-01 1.09006E-28
8.53553E-01 1.05207E-28
8.56625E-01 1.01530E-28
8.59670E-01 9.79707E-29
8.62687E-01 9.45249E-29
8.65677E-01 9.11892E-29
8.68639E-01 8.79598E-29
8.71572E-01 8.48334E-29
8.74478E-01 8.18066E-29
8.77355E-01 7.88760E-29
8.80203E-01 7.60388E-29
8.83022E-01 7.32917E-29
8.85812E-01 7.06319E-29
8.88573E-01 6.80565E-29
8.91304E-01 6.55630E-29
8.94005E-01 6.31485E-29
8.96677E-01 6.08107E-29
8.99318E-01 5.85471E-29
9.01928E-01 5.63553E-29
9.04508E-01 5.42331E-29
9.07058E-01 5.21782E-29
9.09576E-01 5.01885E-29
9.12063E-01 4.82621E-29
9.14519E-01 4.63968E-29
9.16943E-01 4.45909E-29
9.19335E-01 4.28425E-29
9.21696E-01 4.11497E-29
9.24024E-01 3.95110E-29
9.26320E-01 3.79245E-29
9.28584E-01 3.63888E-29
9.30815E-01 3.49023E-29
9.33013E-01 3.34635E-29
9.35178E-01 3.20709E-29
9.37310E-01 3.07233E-29
9.39409E-01 2.94191E-29
9.41474E-01 2.81572E-29
9.43505E-01 2.69362E-29
9.45503E-01 2.57551E-29
9.47467E-01 2.46126E-29
9.49397E-01 2.35075E-29
9.51293E-01 2.24389E-29
9.53154E-01 2.14057E-29
9.54981E-01 2.04068E-29
9.56773E-01 1.94413E-29
9.58530E-01 1.85083E-29
9.60252E-01 1.76069E-29
9.61940E-01 1.67361E-29
9.63592E-01 1.58952E-29
9.65209E-01 1.50833E-29
9.66790E-01 1.42996E-29
9.68336E-01 1.35435E-29
9.69846E-01 1.28142E-29
9.71321E-01 1.21109E-29
9.72759E-01 1.14331E-29
9.74162E-01 1.07800E-29
9.75528E-01 1.01511E-29
9.76858E-01 9.54576E-30
9.78152E-01 8.96340E-30
9.79410E-01 8.40347E-30
9.80631E-01 7.86546E-30
9.81815E-01 7.34885E-30
9.82963E-01 6.85316E-30
9.84074E-01 6.37792E-30
9.85148E-01 5.92270E-30
9.86185E-01 5.48705E-30
9.87185E-01 5.07059E-30
9.88148E-01 4.67291E-30
9.89074E-01 4.29366E-30
9.89962E-01 3.93247E-30
9.90814E-01 3.58902E-30
9.91627E-01 3.26297E-30
9.92404E-01 2.95404E-30
9.93143E-01 2.66194E-30
9.93844E-01 2.38638E-30
9.94508E-01 2.12714E-30
9.95134E-01 1.88395E-30
9.95722E-01 1.65660E-30
9.96273E-01 1.44488E-30
9.96786E-01 1.24859E-30
9.97261E-01 1.06756E-30
9.97698E-01 9.01613E-31
9.98097E-01 7.50602E-31
9.98459E-01 6.14387E-31
9.98782E-01 4.92843E-31
9.99067E-01 3.85858E-31
9.99315E-01 2.93336E-31
9.99524E-01 2.15191E-31
9.99695E-01 1.51351E-31
9.99829E-01 1.01758E-31
9.99924E-01 6.63675E-32
9.99981E-01 4.51459E-32
1.00000E+00 3.80741E-32
