 #
 # Subroutine ELSEPA. Elastic scattering of electrons and positrons
 #                    by neutral atoms and positive ions
 #
 # Projectile: positron
 # Kinetic energy = 1.25000E+07 eV = 4.59367E+05 a.u.
 #
 # WARNING: High-energy factorization with free-atom DF screening.
 #          Absorption, polarization and exchange corrections are
 #          switched off.
 #          Phase shifts are calculated for the bare nucleus.
 #          Scattering amplitudes are not evaluated.
 #
 # Element: Lu,  Z =  71,  atomic weight = 1.74967E+02 g/mol
 #
 # Nuclear model: Fermi distribution
 #                Average radius = 5.98461E-13 cm
 #                Skin thickness = 5.46000E-14 cm
 #
 # Number of electrons = 71
 #
 # Total elastic cross section = 7.19000E-18 cm**2 = 2.56759E-01 a0**2
 # 1st transport cross section = 4.28101E-23 cm**2 = 1.52878E-06 a0**2
 # 2nd transport cross section = 1.24074E-22 cm**2 = 4.43076E-06 a0**2
 #
 #
 # Differential cross section:                       MU=(1-COS(THETA))/2
 #
 #  THETA        MU          DCS          DCS        Sherman      error
 #  (deg)                 (cm**2/sr)   (a0**2/sr)    function
 #----------------------------------------------------------------------
0.00000E+00 1.12168E-11
7.61557E-13 1.12161E-11
1.18994E-12 1.12157E-11
1.71346E-12 1.12152E-11
2.33225E-12 1.12146E-11
3.04617E-12 1.12139E-11
3.85530E-12 1.12132E-11
4.75964E-12 1.12123E-11
5.75917E-12 1.12114E-11
6.85391E-12 1.12104E-11
8.04379E-12 1.12093E-11
9.32893E-12 1.12081E-11
1.07092E-11 1.12068E-11
1.21847E-11 1.12055E-11
1.37554E-11 1.12040E-11
1.54213E-11 1.12025E-11
1.71823E-11 1.12009E-11
1.90386E-11 1.11992E-11
2.09900E-11 1.11974E-11
2.30367E-11 1.11955E-11
2.51785E-11 1.11935E-11
2.74156E-11 1.11914E-11
2.97478E-11 1.11893E-11
3.21752E-11 1.11871E-11
3.46979E-11 1.11847E-11
3.73157E-11 1.11823E-11
4.00286E-11 1.11798E-11
4.28368E-11 1.11773E-11
4.57402E-11 1.11746E-11
4.87388E-11 1.11719E-11
5.18325E-11 1.11690E-11
5.50215E-11 1.11661E-11
5.83057E-11 1.11631E-11
6.16850E-11 1.11600E-11
6.51595E-11 1.11568E-11
6.87293E-11 1.11536E-11
7.23943E-11 1.11502E-11
7.61544E-11 1.11468E-11
1.18991E-10 1.11078E-11
1.71347E-10 1.10605E-11
2.33223E-10 1.10050E-11
3.04617E-10 1.09415E-11
3.85531E-10 1.08704E-11
4.75965E-10 1.07918E-11
5.75917E-10 1.07060E-11
6.85389E-10 1.06133E-11
8.04380E-10 1.05142E-11
9.32891E-10 1.04088E-11
1.07092E-09 1.02976E-11
1.21847E-09 1.01810E-11
1.37554E-09 1.00592E-11
1.54213E-09 9.93277E-12
1.71823E-09 9.80200E-12
1.90386E-09 9.66731E-12
2.09900E-09 9.52907E-12
2.30367E-09 9.38774E-12
2.51785E-09 9.24363E-12
2.74156E-09 9.09710E-12
2.97478E-09 8.94852E-12
3.21752E-09 8.79837E-12
3.46978E-09 8.64693E-12
3.73156E-09 8.49445E-12
4.00286E-09 8.34124E-12
4.28368E-09 8.18777E-12
4.57402E-09 8.03436E-12
4.87388E-09 7.88107E-12
5.18326E-09 7.72815E-12
5.50215E-09 7.57597E-12
5.83057E-09 7.42503E-12
6.16850E-09 7.27512E-12
6.51596E-09 7.12642E-12
6.87293E-09 6.97912E-12
7.23942E-09 6.83406E-12
7.61544E-09 6.69066E-12
1.18991E-08 5.37990E-12
1.71347E-08 4.32389E-12
2.33223E-08 3.50762E-12
3.04617E-08 2.88506E-12
3.85531E-08 2.40817E-12
4.75965E-08 2.03741E-12
5.75917E-08 1.74361E-12
6.85389E-08 1.50571E-12
8.04380E-08 1.31002E-12
9.32891E-08 1.14632E-12
1.07092E-07 1.00768E-12
1.21847E-07 8.89410E-13
1.37554E-07 7.86310E-13
1.54213E-07 6.91576E-13
1.71823E-07 6.14202E-13
1.90386E-07 5.50384E-13
2.09900E-07 4.97261E-13
2.30367E-07 4.43780E-13
2.51785E-07 3.98051E-13
2.74156E-07 3.59473E-13
2.97478E-07 3.26693E-13
3.21752E-07 2.95590E-13
3.46978E-07 2.67626E-13
3.73156E-07 2.43588E-13
4.00286E-07 2.22806E-13
4.28368E-07 2.03726E-13
4.57402E-07 1.85990E-13
4.87388E-07 1.70505E-13
5.18325E-07 1.56925E-13
5.50215E-07 1.44678E-13
5.83057E-07 1.32999E-13
6.16850E-07 1.22673E-13
6.51596E-07 1.13509E-13
6.87293E-07 1.05338E-13
7.23942E-07 9.73862E-14
7.61543E-07 9.02816E-14
1.18991E-06 4.52968E-14
1.71347E-06 2.47287E-14
2.33223E-06 1.45267E-14
3.04617E-06 9.10443E-15
3.85531E-06 6.01734E-15
4.75964E-06 4.15319E-15
5.75916E-06 2.96928E-15
6.85388E-06 2.18012E-15
8.04378E-06 1.63653E-15
9.32888E-06 1.25213E-15
1.07092E-05 9.73991E-16
1.21846E-05 7.68622E-16
1.37553E-05 6.14145E-16
1.54212E-05 4.96318E-16
1.71822E-05 4.05707E-16
1.90385E-05 3.34639E-16
2.09899E-05 2.78652E-16
2.30365E-05 2.33998E-16
2.51783E-05 1.97746E-16
2.74153E-05 1.68286E-16
2.97475E-05 1.44074E-16
3.21749E-05 1.24056E-16
3.46974E-05 1.07442E-16
3.73152E-05 9.34910E-17
4.00281E-05 8.17684E-17
4.28362E-05 7.18236E-17
4.57395E-05 6.33467E-17
4.87380E-05 5.60902E-17
5.18317E-05 4.98288E-17
5.50205E-05 4.44235E-17
5.83045E-05 3.97265E-17
6.16838E-05 3.56360E-17
6.51582E-05 3.20618E-17
6.87277E-05 2.89223E-17
7.23925E-05 2.61619E-17
7.61524E-05 2.37207E-17
9.21439E-05 1.63925E-17
1.09658E-04 1.16834E-17
1.28695E-04 8.54897E-18
1.49255E-04 6.39609E-18
1.71338E-04 4.87903E-18
1.94942E-04 3.78533E-18
2.20070E-04 2.98096E-18
2.46720E-04 2.37898E-18
2.74892E-04 1.92132E-18
3.04586E-04 1.56842E-18
3.35803E-04 1.29285E-18
3.68542E-04 1.07515E-18
4.02802E-04 9.01348E-19
4.38585E-04 7.61251E-19
4.75889E-04 6.47312E-19
5.14715E-04 5.53891E-19
5.55063E-04 4.76714E-19
5.96931E-04 4.12503E-19
6.40321E-04 3.58736E-19
6.85233E-04 3.13439E-19
7.31665E-04 2.75060E-19
7.79618E-04 2.42370E-19
8.29092E-04 2.14388E-19
8.80086E-04 1.90322E-19
9.32601E-04 1.69535E-19
9.86636E-04 1.51504E-19
1.04219E-03 1.35802E-19
1.09927E-03 1.22079E-19
1.15786E-03 1.10042E-19
1.21797E-03 9.94489E-20
1.27961E-03 9.00973E-20
1.34276E-03 8.18167E-20
1.40743E-03 7.44631E-20
1.47362E-03 6.79153E-20
1.54133E-03 6.20696E-20
1.61056E-03 5.68376E-20
1.68131E-03 5.21438E-20
1.75357E-03 4.79232E-20
1.82735E-03 4.41197E-20
1.90265E-03 4.06849E-20
1.97947E-03 3.75768E-20
2.05780E-03 3.47590E-20
2.13765E-03 3.21994E-20
2.21902E-03 2.98703E-20
2.30190E-03 2.77473E-20
2.38630E-03 2.58089E-20
2.47222E-03 2.40362E-20
2.55965E-03 2.24125E-20
2.64859E-03 2.09231E-20
2.73905E-03 1.95548E-20
2.83103E-03 1.82962E-20
2.92452E-03 1.71368E-20
3.01952E-03 1.60674E-20
3.11604E-03 1.50797E-20
3.21407E-03 1.41665E-20
3.31362E-03 1.33211E-20
3.41468E-03 1.25375E-20
3.51725E-03 1.18104E-20
3.62133E-03 1.11351E-20
3.72692E-03 1.05071E-20
3.83403E-03 9.92258E-21
3.94265E-03 9.37794E-21
4.05278E-03 8.86998E-21
4.16442E-03 8.39579E-21
4.27757E-03 7.95270E-21
4.39223E-03 7.53832E-21
4.50840E-03 7.15045E-21
4.62608E-03 6.78707E-21
4.74527E-03 6.44637E-21
4.86597E-03 6.12667E-21
4.98817E-03 5.82645E-21
5.11188E-03 5.54429E-21
5.23711E-03 5.27891E-21
5.36383E-03 5.02914E-21
5.49207E-03 4.79389E-21
5.62181E-03 4.57216E-21
5.75306E-03 4.36302E-21
5.88581E-03 4.16565E-21
6.02007E-03 3.97924E-21
6.15583E-03 3.80309E-21
6.29310E-03 3.63652E-21
6.43187E-03 3.47892E-21
6.57214E-03 3.32971E-21
6.71392E-03 3.18837E-21
6.85720E-03 3.05440E-21
7.00198E-03 2.92735E-21
7.14827E-03 2.80680E-21
7.29605E-03 2.69236E-21
7.44534E-03 2.58365E-21
7.59612E-03 2.48034E-21
7.97965E-03 2.24365E-21
8.37255E-03 2.03436E-21
8.77480E-03 1.84877E-21
9.18641E-03 1.68373E-21
9.60736E-03 1.53659E-21
1.00376E-02 1.40507E-21
1.04773E-02 1.28724E-21
1.09262E-02 1.18142E-21
1.13844E-02 1.08617E-21
1.18520E-02 1.00027E-21
1.23288E-02 9.22637E-22
1.28150E-02 8.52334E-22
1.33104E-02 7.88552E-22
1.38150E-02 7.30580E-22
1.43290E-02 6.77799E-22
1.48521E-02 6.29661E-22
1.53845E-02 5.85688E-22
1.59262E-02 5.45457E-22
1.64770E-02 5.08593E-22
1.70371E-02 4.74766E-22
1.76063E-02 4.43680E-22
1.81848E-02 4.15076E-22
1.87724E-02 3.88720E-22
1.93692E-02 3.64404E-22
1.99751E-02 3.41943E-22
2.05901E-02 3.21170E-22
2.12143E-02 3.01937E-22
2.18476E-02 2.84108E-22
2.24900E-02 2.67563E-22
2.31415E-02 2.52194E-22
2.38021E-02 2.37902E-22
2.44717E-02 2.24597E-22
2.51504E-02 2.12201E-22
2.58382E-02 2.00639E-22
2.65349E-02 1.89846E-22
2.72407E-02 1.79762E-22
2.79555E-02 1.70331E-22
2.86793E-02 1.61504E-22
2.94120E-02 1.53235E-22
3.01537E-02 1.45482E-22
3.09043E-02 1.38209E-22
3.16639E-02 1.31379E-22
3.24324E-02 1.24961E-22
3.32098E-02 1.18925E-22
3.39961E-02 1.13246E-22
3.47912E-02 1.07897E-22
3.55952E-02 1.02857E-22
3.64081E-02 9.81038E-23
3.72297E-02 9.36188E-23
3.80602E-02 8.93840E-23
3.88995E-02 8.53830E-23
3.97476E-02 8.16005E-23
4.06044E-02 7.80225E-23
4.14700E-02 7.46359E-23
4.23443E-02 7.14287E-23
4.32273E-02 6.83896E-23
4.41190E-02 6.55083E-23
4.50194E-02 6.27750E-23
4.59284E-02 6.01809E-23
4.68461E-02 5.77176E-23
4.87074E-02 5.31527E-23
5.06030E-02 4.90243E-23
5.25328E-02 4.52835E-23
5.44967E-02 4.18878E-23
5.64946E-02 3.88000E-23
5.85262E-02 3.59874E-23
6.05914E-02 3.34213E-23
6.26901E-02 3.10764E-23
6.48222E-02 2.89305E-23
6.69873E-02 2.69637E-23
6.91854E-02 2.51586E-23
7.14163E-02 2.34996E-23
7.36799E-02 2.19728E-23
7.59760E-02 2.05659E-23
7.83043E-02 1.92679E-23
8.06647E-02 1.80690E-23
8.30571E-02 1.69601E-23
8.54812E-02 1.59335E-23
8.79369E-02 1.49820E-23
9.04240E-02 1.40991E-23
9.29422E-02 1.32791E-23
9.54915E-02 1.25166E-23
9.80716E-02 1.18071E-23
1.00682E-01 1.11461E-23
1.03323E-01 1.05297E-23
1.05995E-01 9.95451E-24
1.08696E-01 9.41722E-24
1.11427E-01 8.91491E-24
1.14188E-01 8.44492E-24
1.16978E-01 8.00482E-24
1.19797E-01 7.59237E-24
1.22645E-01 7.20553E-24
1.25522E-01 6.84245E-24
1.28428E-01 6.50141E-24
1.31361E-01 6.18085E-24
1.34323E-01 5.87932E-24
1.37313E-01 5.59551E-24
1.40330E-01 5.32819E-24
1.43375E-01 5.07624E-24
1.46447E-01 4.83863E-24
1.49545E-01 4.61440E-24
1.52671E-01 4.40264E-24
1.55823E-01 4.20252E-24
1.59001E-01 4.01332E-24
1.62205E-01 3.83435E-24
1.65435E-01 3.66496E-24
1.68690E-01 3.50455E-24
1.71970E-01 3.35256E-24
1.75276E-01 3.20848E-24
1.78606E-01 3.07181E-24
1.81961E-01 2.94212E-24
1.85340E-01 2.81899E-24
1.88743E-01 2.70203E-24
1.92169E-01 2.59087E-24
1.95619E-01 2.48518E-24
1.99092E-01 2.38465E-24
2.02589E-01 2.28897E-24
2.06107E-01 2.19788E-24
2.09649E-01 2.11112E-24
2.13212E-01 2.02845E-24
2.16797E-01 1.94963E-24
2.20404E-01 1.87447E-24
2.24032E-01 1.80276E-24
2.27680E-01 1.73432E-24
2.31350E-01 1.66897E-24
2.35040E-01 1.60654E-24
2.38751E-01 1.54690E-24
2.42481E-01 1.48988E-24
2.46231E-01 1.43536E-24
2.50000E-01 1.38321E-24
2.53788E-01 1.33331E-24
2.57595E-01 1.28554E-24
2.61421E-01 1.23979E-24
2.65264E-01 1.19598E-24
2.69126E-01 1.15399E-24
2.73005E-01 1.11375E-24
2.76901E-01 1.07517E-24
2.80814E-01 1.03816E-24
2.84744E-01 1.00266E-24
2.88691E-01 9.68587E-25
2.92653E-01 9.35879E-25
2.96632E-01 9.04471E-25
3.00625E-01 8.74304E-25
3.04634E-01 8.45319E-25
3.08658E-01 8.17462E-25
3.12697E-01 7.90683E-25
3.16749E-01 7.64932E-25
3.20816E-01 7.40164E-25
3.24896E-01 7.16335E-25
3.28990E-01 6.93403E-25
3.33097E-01 6.71329E-25
3.37216E-01 6.50075E-25
3.41348E-01 6.29606E-25
3.45492E-01 6.09889E-25
3.49647E-01 5.90890E-25
3.53814E-01 5.72579E-25
3.57992E-01 5.54928E-25
3.62181E-01 5.37909E-25
3.66381E-01 5.21495E-25
3.70590E-01 5.05661E-25
3.74810E-01 4.90384E-25
3.79039E-01 4.75640E-25
3.83277E-01 4.61408E-25
3.87524E-01 4.47667E-25
3.91780E-01 4.34398E-25
3.96044E-01 4.21581E-25
4.00316E-01 4.09200E-25
4.04596E-01 3.97235E-25
4.08882E-01 3.85672E-25
4.13176E-01 3.74495E-25
4.17476E-01 3.63688E-25
4.21783E-01 3.53237E-25
4.26095E-01 3.43129E-25
4.30413E-01 3.33351E-25
4.34737E-01 3.23890E-25
4.39065E-01 3.14734E-25
4.43398E-01 3.05872E-25
4.47736E-01 2.97293E-25
4.52077E-01 2.88986E-25
4.56422E-01 2.80941E-25
4.60770E-01 2.73150E-25
4.65122E-01 2.65601E-25
4.69476E-01 2.58288E-25
4.73832E-01 2.51201E-25
4.78190E-01 2.44331E-25
4.82550E-01 2.37673E-25
4.86912E-01 2.31217E-25
4.91274E-01 2.24957E-25
4.95637E-01 2.18886E-25
5.00000E-01 2.12997E-25
5.04363E-01 2.07284E-25
5.08726E-01 2.01741E-25
5.13088E-01 1.96362E-25
5.17450E-01 1.91142E-25
5.21810E-01 1.86074E-25
5.26168E-01 1.81155E-25
5.30524E-01 1.76378E-25
5.34878E-01 1.71740E-25
5.39230E-01 1.67235E-25
5.43578E-01 1.62859E-25
5.47923E-01 1.58608E-25
5.52264E-01 1.54478E-25
5.56602E-01 1.50464E-25
5.60935E-01 1.46563E-25
5.65263E-01 1.42772E-25
5.69587E-01 1.39087E-25
5.73905E-01 1.35504E-25
5.78217E-01 1.32020E-25
5.82524E-01 1.28632E-25
5.86824E-01 1.25337E-25
5.91118E-01 1.22132E-25
5.95404E-01 1.19014E-25
5.99684E-01 1.15981E-25
6.03956E-01 1.13030E-25
6.08220E-01 1.10158E-25
6.12476E-01 1.07363E-25
6.16723E-01 1.04642E-25
6.20961E-01 1.01994E-25
6.25190E-01 9.94155E-26
6.29410E-01 9.69053E-26
6.33619E-01 9.44609E-26
6.37819E-01 9.20806E-26
6.42008E-01 8.97623E-26
6.46186E-01 8.75042E-26
6.50353E-01 8.53045E-26
6.54508E-01 8.31615E-26
6.58652E-01 8.10736E-26
6.62784E-01 7.90391E-26
6.66903E-01 7.70565E-26
6.71010E-01 7.51243E-26
6.75104E-01 7.32411E-26
6.79184E-01 7.14054E-26
6.83251E-01 6.96159E-26
6.87303E-01 6.78712E-26
6.91342E-01 6.61702E-26
6.95366E-01 6.45116E-26
6.99375E-01 6.28941E-26
7.03368E-01 6.13167E-26
7.07347E-01 5.97782E-26
7.11309E-01 5.82776E-26
7.15256E-01 5.68138E-26
7.19186E-01 5.53858E-26
7.23099E-01 5.39926E-26
7.26995E-01 5.26332E-26
7.30874E-01 5.13069E-26
7.34736E-01 5.00126E-26
7.38579E-01 4.87495E-26
7.42405E-01 4.75167E-26
7.46212E-01 4.63136E-26
7.50000E-01 4.51392E-26
7.53769E-01 4.39928E-26
7.57519E-01 4.28737E-26
7.61249E-01 4.17812E-26
7.64960E-01 4.07146E-26
7.68650E-01 3.96731E-26
7.72320E-01 3.86562E-26
7.75968E-01 3.76632E-26
7.79596E-01 3.66936E-26
7.83203E-01 3.57466E-26
7.86788E-01 3.48218E-26
7.90351E-01 3.39185E-26
7.93893E-01 3.30363E-26
7.97411E-01 3.21746E-26
8.00908E-01 3.13328E-26
8.04381E-01 3.05106E-26
8.07831E-01 2.97074E-26
8.11257E-01 2.89227E-26
8.14660E-01 2.81561E-26
8.18039E-01 2.74071E-26
8.21394E-01 2.66754E-26
8.24724E-01 2.59605E-26
8.28030E-01 2.52619E-26
8.31310E-01 2.45794E-26
8.34565E-01 2.39125E-26
8.37795E-01 2.32609E-26
8.40999E-01 2.26241E-26
8.44177E-01 2.20019E-26
8.47329E-01 2.13939E-26
8.50455E-01 2.07997E-26
8.53553E-01 2.02191E-26
8.56625E-01 1.96518E-26
8.59670E-01 1.90974E-26
8.62687E-01 1.85556E-26
8.65677E-01 1.80262E-26
8.68639E-01 1.75088E-26
8.71572E-01 1.70033E-26
8.74478E-01 1.65093E-26
8.77355E-01 1.60266E-26
8.80203E-01 1.55549E-26
8.83022E-01 1.50940E-26
8.85812E-01 1.46437E-26
8.88573E-01 1.42037E-26
8.91304E-01 1.37738E-26
8.94005E-01 1.33538E-26
8.96677E-01 1.29435E-26
8.99318E-01 1.25426E-26
9.01928E-01 1.21511E-26
9.04508E-01 1.17686E-26
9.07058E-01 1.13950E-26
9.09576E-01 1.10302E-26
9.12063E-01 1.06739E-26
9.14519E-01 1.03259E-26
9.16943E-01 9.98615E-27
9.19335E-01 9.65443E-27
9.21696E-01 9.33059E-27
9.24024E-01 9.01447E-27
9.26320E-01 8.70592E-27
9.28584E-01 8.40479E-27
9.30815E-01 8.11095E-27
9.33013E-01 7.82425E-27
9.35178E-01 7.54457E-27
9.37310E-01 7.27177E-27
9.39409E-01 7.00572E-27
9.41474E-01 6.74631E-27
9.43505E-01 6.49341E-27
9.45503E-01 6.24691E-27
9.47467E-01 6.00670E-27
9.49397E-01 5.77266E-27
9.51293E-01 5.54469E-27
9.53154E-01 5.32269E-27
9.54981E-01 5.10656E-27
9.56773E-01 4.89619E-27
9.58530E-01 4.69150E-27
9.60252E-01 4.49240E-27
9.61940E-01 4.29880E-27
9.63592E-01 4.11060E-27
9.65209E-01 3.92773E-27
9.66790E-01 3.75011E-27
9.68336E-01 3.57766E-27
9.69846E-01 3.41030E-27
9.71321E-01 3.24796E-27
9.72759E-01 3.09057E-27
9.74162E-01 2.93806E-27
9.75528E-01 2.79036E-27
9.76858E-01 2.64742E-27
9.78152E-01 2.50916E-27
9.79410E-01 2.37554E-27
9.80631E-01 2.24649E-27
9.81815E-01 2.12195E-27
9.82963E-01 2.00188E-27
9.84074E-01 1.88622E-27
9.85148E-01 1.77493E-27
9.86185E-01 1.66795E-27
9.87185E-01 1.56524E-27
9.88148E-01 1.46676E-27
9.89074E-01 1.37247E-27
9.89962E-01 1.28232E-27
9.90814E-01 1.19628E-27
9.91627E-01 1.11431E-27
9.92404E-01 1.03638E-27
9.93143E-01 9.62454E-28
9.93844E-01 8.92502E-28
9.94508E-01 8.26495E-28
9.95134E-01 7.64404E-28
9.95722E-01 7.06205E-28
9.96273E-01 6.51873E-28
9.96786E-01 6.01385E-28
9.97261E-01 5.54721E-28
9.97698E-01 5.11860E-28
9.98097E-01 4.72786E-28
9.98459E-01 4.37481E-28
9.98782E-01 4.05932E-28
9.99067E-01 3.78126E-28
9.99315E-01 3.54050E-28
9.99524E-01 3.33695E-28
9.99695E-01 3.17052E-28
9.99829E-01 3.04115E-28
9.99924E-01 2.94877E-28
9.99981E-01 2.89337E-28
1.00000E+00 2.87490E-28
