 #
 # Subroutine ELSEPA. Elastic scattering of electrons and positrons
 #                    by neutral atoms and positive ions
 #
 # Projectile: positron
 # Kinetic energy = 3.50000E+06 eV = 1.28623E+05 a.u.
 #
 # WARNING: High-energy factorization with free-atom DF screening.
 #          Absorption, polarization and exchange corrections are
 #          switched off.
 #          Phase shifts are calculated for the bare nucleus.
 #          Scattering amplitudes are not evaluated.
 #
 # Element: Lu,  Z =  71,  atomic weight = 1.74967E+02 g/mol
 #
 # Nuclear model: Fermi distribution
 #                Average radius = 5.98461E-13 cm
 #                Skin thickness = 5.46000E-14 cm
 #
 # Number of electrons = 71
 #
 # Total elastic cross section = 7.28805E-18 cm**2 = 2.60261E-01 a0**2
 # 1st transport cross section = 3.66741E-22 cm**2 = 1.30966E-05 a0**2
 # 2nd transport cross section = 1.05103E-21 cm**2 = 3.75330E-05 a0**2
 #
 #
 # Differential cross section:                       MU=(1-COS(THETA))/2
 #
 #  THETA        MU          DCS          DCS        Sherman      error
 #  (deg)                 (cm**2/sr)   (a0**2/sr)    function
 #----------------------------------------------------------------------
0.00000E+00 1.06599E-12
7.61557E-13 1.06598E-12
1.18994E-12 1.06598E-12
1.71346E-12 1.06597E-12
2.33225E-12 1.06597E-12
3.04617E-12 1.06596E-12
3.85530E-12 1.06595E-12
4.75964E-12 1.06595E-12
5.75917E-12 1.06594E-12
6.85391E-12 1.06593E-12
8.04379E-12 1.06592E-12
9.32893E-12 1.06591E-12
1.07092E-11 1.06590E-12
1.21847E-11 1.06588E-12
1.37554E-11 1.06587E-12
1.54213E-11 1.06586E-12
1.71823E-11 1.06584E-12
1.90386E-11 1.06583E-12
2.09900E-11 1.06581E-12
2.30367E-11 1.06579E-12
2.51785E-11 1.06577E-12
2.74156E-11 1.06576E-12
2.97478E-11 1.06574E-12
3.21752E-11 1.06572E-12
3.46979E-11 1.06570E-12
3.73157E-11 1.06567E-12
4.00286E-11 1.06565E-12
4.28368E-11 1.06563E-12
4.57402E-11 1.06560E-12
4.87388E-11 1.06558E-12
5.18325E-11 1.06555E-12
5.50215E-11 1.06553E-12
5.83057E-11 1.06550E-12
6.16850E-11 1.06547E-12
6.51595E-11 1.06544E-12
6.87293E-11 1.06541E-12
7.23943E-11 1.06538E-12
7.61544E-11 1.06535E-12
1.18991E-10 1.06500E-12
1.71347E-10 1.06457E-12
2.33223E-10 1.06406E-12
3.04617E-10 1.06347E-12
3.85531E-10 1.06281E-12
4.75965E-10 1.06207E-12
5.75917E-10 1.06125E-12
6.85389E-10 1.06036E-12
8.04380E-10 1.05939E-12
9.32891E-10 1.05834E-12
1.07092E-09 1.05723E-12
1.21847E-09 1.05603E-12
1.37554E-09 1.05476E-12
1.54213E-09 1.05342E-12
1.71823E-09 1.05200E-12
1.90386E-09 1.05051E-12
2.09900E-09 1.04895E-12
2.30367E-09 1.04732E-12
2.51785E-09 1.04561E-12
2.74156E-09 1.04384E-12
2.97478E-09 1.04199E-12
3.21752E-09 1.04008E-12
3.46978E-09 1.03809E-12
3.73156E-09 1.03604E-12
4.00286E-09 1.03392E-12
4.28368E-09 1.03173E-12
4.57402E-09 1.02948E-12
4.87388E-09 1.02717E-12
5.18326E-09 1.02478E-12
5.50215E-09 1.02234E-12
5.83057E-09 1.01983E-12
6.16850E-09 1.01726E-12
6.51596E-09 1.01463E-12
6.87293E-09 1.01194E-12
7.23942E-09 1.00919E-12
7.61544E-09 1.00638E-12
1.18991E-08 9.75300E-13
1.71347E-08 9.39462E-13
2.33223E-08 8.99909E-13
3.04617E-08 8.57701E-13
3.85531E-08 8.13854E-13
4.75965E-08 7.69280E-13
5.75917E-08 7.24782E-13
6.85389E-08 6.81101E-13
8.04380E-08 6.38726E-13
9.32891E-08 5.98060E-13
1.07092E-07 5.59433E-13
1.21847E-07 5.23044E-13
1.37554E-07 4.88934E-13
1.54213E-07 4.57126E-13
1.71823E-07 4.27657E-13
1.90386E-07 4.00391E-13
2.09900E-07 3.75213E-13
2.30367E-07 3.52019E-13
2.51785E-07 3.30694E-13
2.74156E-07 3.11062E-13
2.97478E-07 2.92996E-13
3.21752E-07 2.76372E-13
3.46978E-07 2.61050E-13
3.73156E-07 2.46917E-13
4.00286E-07 2.33871E-13
4.28368E-07 2.21786E-13
4.57402E-07 2.10586E-13
4.87388E-07 2.00197E-13
5.18325E-07 1.90534E-13
5.50215E-07 1.81508E-13
5.83057E-07 1.73090E-13
6.16850E-07 1.65227E-13
6.51596E-07 1.57841E-13
6.87293E-07 1.50900E-13
7.23942E-07 1.44385E-13
7.61543E-07 1.38261E-13
1.18991E-06 9.21524E-14
1.71347E-06 6.28605E-14
2.33223E-06 4.50306E-14
3.04617E-06 3.25726E-14
3.85531E-06 2.41311E-14
4.75964E-06 1.82991E-14
5.75916E-06 1.41279E-14
6.85388E-06 1.10045E-14
8.04378E-06 8.70796E-15
9.32888E-06 6.97926E-15
1.07092E-05 5.63982E-15
1.21846E-05 4.59247E-15
1.37553E-05 3.77536E-15
1.54212E-05 3.12945E-15
1.71822E-05 2.60835E-15
1.90385E-05 2.18936E-15
2.09899E-05 1.85322E-15
2.30365E-05 1.57855E-15
2.51783E-05 1.35174E-15
2.74153E-05 1.16465E-15
2.97475E-05 1.00925E-15
3.21749E-05 8.79122E-16
3.46974E-05 7.69933E-16
3.73152E-05 6.77566E-16
4.00281E-05 5.98798E-16
4.28362E-05 5.31329E-16
4.57395E-05 4.73395E-16
4.87380E-05 4.23378E-16
5.18317E-05 3.79934E-16
5.50205E-05 3.41954E-16
5.83045E-05 3.08699E-16
6.16838E-05 2.79467E-16
6.51582E-05 2.53599E-16
6.87277E-05 2.30660E-16
7.23925E-05 2.10283E-16
7.61524E-05 1.92121E-16
9.21439E-05 1.36316E-16
1.09658E-04 9.93549E-17
1.28695E-04 7.40661E-17
1.49255E-04 5.62610E-17
1.71338E-04 4.35057E-17
1.94942E-04 3.41483E-17
2.20070E-04 2.71835E-17
2.46720E-04 2.19092E-17
2.74892E-04 1.78443E-17
3.04586E-04 1.46812E-17
3.35803E-04 1.21907E-17
3.68542E-04 1.02067E-17
4.02802E-04 8.60792E-18
4.38585E-04 7.31124E-18
4.75889E-04 6.25034E-18
5.14715E-04 5.37442E-18
5.55063E-04 4.64640E-18
5.96931E-04 4.03787E-18
6.40321E-04 3.52593E-18
6.85233E-04 3.09203E-18
7.31665E-04 2.72293E-18
7.79618E-04 2.40735E-18
8.29092E-04 2.13610E-18
8.80086E-04 1.90177E-18
9.32601E-04 1.69872E-18
9.86636E-04 1.52205E-18
1.04219E-03 1.36761E-18
1.09927E-03 1.23220E-18
1.15786E-03 1.11312E-18
1.21797E-03 1.00807E-18
1.27961E-03 9.14996E-19
1.34276E-03 8.32404E-19
1.40743E-03 7.58904E-19
1.47362E-03 6.93298E-19
1.54133E-03 6.34582E-19
1.61056E-03 5.81936E-19
1.68131E-03 5.34624E-19
1.75357E-03 4.91985E-19
1.82735E-03 4.53495E-19
1.90265E-03 4.18686E-19
1.97947E-03 3.87141E-19
2.05780E-03 3.58486E-19
2.13765E-03 3.32426E-19
2.21902E-03 3.08685E-19
2.30190E-03 2.87013E-19
2.38630E-03 2.67199E-19
2.47222E-03 2.49061E-19
2.55965E-03 2.32431E-19
2.64859E-03 2.17155E-19
2.73905E-03 2.03110E-19
2.83103E-03 1.90178E-19
2.92452E-03 1.78255E-19
3.01952E-03 1.67246E-19
3.11604E-03 1.57071E-19
3.21407E-03 1.47655E-19
3.31362E-03 1.38931E-19
3.41468E-03 1.30838E-19
3.51725E-03 1.23325E-19
3.62133E-03 1.16341E-19
3.72692E-03 1.09841E-19
3.83403E-03 1.03787E-19
3.94265E-03 9.81438E-20
4.05278E-03 9.28767E-20
4.16442E-03 8.79564E-20
4.27757E-03 8.33564E-20
4.39223E-03 7.90522E-20
4.50840E-03 7.50207E-20
4.62608E-03 7.12418E-20
4.74527E-03 6.76969E-20
4.86597E-03 6.43690E-20
4.98817E-03 6.12418E-20
5.11188E-03 5.83015E-20
5.23711E-03 5.55348E-20
5.36383E-03 5.29295E-20
5.49207E-03 5.04744E-20
5.62181E-03 4.81594E-20
5.75306E-03 4.59751E-20
5.88581E-03 4.39124E-20
6.02007E-03 4.19636E-20
6.15583E-03 4.01212E-20
6.29310E-03 3.83784E-20
6.43187E-03 3.67286E-20
6.57214E-03 3.51661E-20
6.71392E-03 3.36854E-20
6.85720E-03 3.22814E-20
7.00198E-03 3.09493E-20
7.14827E-03 2.96850E-20
7.29605E-03 2.84843E-20
7.44534E-03 2.73431E-20
7.59612E-03 2.62583E-20
7.97965E-03 2.37714E-20
8.37255E-03 2.15705E-20
8.77480E-03 1.96171E-20
9.18641E-03 1.78787E-20
9.60736E-03 1.63275E-20
1.00376E-02 1.49399E-20
1.04773E-02 1.36958E-20
1.09262E-02 1.25777E-20
1.13844E-02 1.15707E-20
1.18520E-02 1.06617E-20
1.23288E-02 9.83974E-21
1.28150E-02 9.09491E-21
1.33104E-02 8.41874E-21
1.38150E-02 7.80378E-21
1.43290E-02 7.24355E-21
1.48521E-02 6.73229E-21
1.53845E-02 6.26505E-21
1.59262E-02 5.83734E-21
1.64770E-02 5.44517E-21
1.70371E-02 5.08515E-21
1.76063E-02 4.75415E-21
1.81848E-02 4.44942E-21
1.87724E-02 4.16850E-21
1.93692E-02 3.90922E-21
1.99751E-02 3.66962E-21
2.05901E-02 3.44791E-21
2.12143E-02 3.24255E-21
2.18476E-02 3.05212E-21
2.24900E-02 2.87533E-21
2.31415E-02 2.71103E-21
2.38021E-02 2.55819E-21
2.44717E-02 2.41588E-21
2.51504E-02 2.28321E-21
2.58382E-02 2.15944E-21
2.65349E-02 2.04386E-21
2.72407E-02 1.93583E-21
2.79555E-02 1.83477E-21
2.86793E-02 1.74015E-21
2.94120E-02 1.65149E-21
3.01537E-02 1.56834E-21
3.09043E-02 1.49030E-21
3.16639E-02 1.41700E-21
3.24324E-02 1.34811E-21
3.32098E-02 1.28330E-21
3.39961E-02 1.22230E-21
3.47912E-02 1.16484E-21
3.55952E-02 1.11067E-21
3.64081E-02 1.05958E-21
3.72297E-02 1.01136E-21
3.80602E-02 9.65822E-22
3.88995E-02 9.22784E-22
3.97476E-02 8.82088E-22
4.06044E-02 8.43585E-22
4.14700E-02 8.07133E-22
4.23443E-02 7.72603E-22
4.32273E-02 7.39878E-22
4.41190E-02 7.08845E-22
4.50194E-02 6.79401E-22
4.59284E-02 6.51450E-22
4.68461E-02 6.24903E-22
4.87074E-02 5.75693E-22
5.06030E-02 5.31172E-22
5.25328E-02 4.90817E-22
5.44967E-02 4.54172E-22
5.64946E-02 4.20838E-22
5.85262E-02 3.90466E-22
6.05914E-02 3.62747E-22
6.26901E-02 3.37409E-22
6.48222E-02 3.14214E-22
6.69873E-02 2.92949E-22
6.91854E-02 2.73427E-22
7.14163E-02 2.55479E-22
7.36799E-02 2.38957E-22
7.59760E-02 2.23729E-22
7.83043E-02 2.09675E-22
8.06647E-02 1.96691E-22
8.30571E-02 1.84679E-22
8.54812E-02 1.73555E-22
8.79369E-02 1.63243E-22
9.04240E-02 1.53671E-22
9.29422E-02 1.44779E-22
9.54915E-02 1.36509E-22
9.80716E-02 1.28811E-22
1.00682E-01 1.21638E-22
1.03323E-01 1.14949E-22
1.05995E-01 1.08704E-22
1.08696E-01 1.02870E-22
1.11427E-01 9.74138E-23
1.14188E-01 9.23078E-23
1.16978E-01 8.75253E-23
1.19797E-01 8.30423E-23
1.22645E-01 7.88368E-23
1.25522E-01 7.48885E-23
1.28428E-01 7.11792E-23
1.31361E-01 6.76918E-23
1.34323E-01 6.44107E-23
1.37313E-01 6.13216E-23
1.40330E-01 5.84114E-23
1.43375E-01 5.56678E-23
1.46447E-01 5.30796E-23
1.49545E-01 5.06366E-23
1.52671E-01 4.83292E-23
1.55823E-01 4.61486E-23
1.59001E-01 4.40865E-23
1.62205E-01 4.21355E-23
1.65435E-01 4.02885E-23
1.68690E-01 3.85390E-23
1.71970E-01 3.68810E-23
1.75276E-01 3.53088E-23
1.78606E-01 3.38172E-23
1.81961E-01 3.24015E-23
1.85340E-01 3.10569E-23
1.88743E-01 2.97795E-23
1.92169E-01 2.85652E-23
1.95619E-01 2.74104E-23
1.99092E-01 2.63116E-23
2.02589E-01 2.52657E-23
2.06107E-01 2.42697E-23
2.09649E-01 2.33208E-23
2.13212E-01 2.24163E-23
2.16797E-01 2.15539E-23
2.20404E-01 2.07312E-23
2.24032E-01 1.99462E-23
2.27680E-01 1.91967E-23
2.31350E-01 1.84809E-23
2.35040E-01 1.77970E-23
2.38751E-01 1.71434E-23
2.42481E-01 1.65184E-23
2.46231E-01 1.59206E-23
2.50000E-01 1.53487E-23
2.53788E-01 1.48013E-23
2.57595E-01 1.42771E-23
2.61421E-01 1.37751E-23
2.65264E-01 1.32941E-23
2.69126E-01 1.28330E-23
2.73005E-01 1.23910E-23
2.76901E-01 1.19671E-23
2.80814E-01 1.15605E-23
2.84744E-01 1.11702E-23
2.88691E-01 1.07956E-23
2.92653E-01 1.04359E-23
2.96632E-01 1.00903E-23
3.00625E-01 9.75836E-24
3.04634E-01 9.43932E-24
3.08658E-01 9.13261E-24
3.12697E-01 8.83769E-24
3.16749E-01 8.55401E-24
3.20816E-01 8.28109E-24
3.24896E-01 8.01844E-24
3.28990E-01 7.76560E-24
3.33097E-01 7.52216E-24
3.37216E-01 7.28769E-24
3.41348E-01 7.06182E-24
3.45492E-01 6.84418E-24
3.49647E-01 6.63440E-24
3.53814E-01 6.43218E-24
3.57992E-01 6.23717E-24
3.62181E-01 6.04909E-24
3.66381E-01 5.86765E-24
3.70590E-01 5.69257E-24
3.74810E-01 5.52359E-24
3.79039E-01 5.36046E-24
3.83277E-01 5.20295E-24
3.87524E-01 5.05083E-24
3.91780E-01 4.90389E-24
3.96044E-01 4.76191E-24
4.00316E-01 4.62471E-24
4.04596E-01 4.49209E-24
4.08882E-01 4.36388E-24
4.13176E-01 4.23991E-24
4.17476E-01 4.12000E-24
4.21783E-01 4.00402E-24
4.26095E-01 3.89180E-24
4.30413E-01 3.78321E-24
4.34737E-01 3.67811E-24
4.39065E-01 3.57636E-24
4.43398E-01 3.47785E-24
4.47736E-01 3.38245E-24
4.52077E-01 3.29005E-24
4.56422E-01 3.20054E-24
4.60770E-01 3.11381E-24
4.65122E-01 3.02976E-24
4.69476E-01 2.94830E-24
4.73832E-01 2.86933E-24
4.78190E-01 2.79277E-24
4.82550E-01 2.71853E-24
4.86912E-01 2.64652E-24
4.91274E-01 2.57668E-24
4.95637E-01 2.50892E-24
5.00000E-01 2.44317E-24
5.04363E-01 2.37936E-24
5.08726E-01 2.31743E-24
5.13088E-01 2.25732E-24
5.17450E-01 2.19895E-24
5.21810E-01 2.14227E-24
5.26168E-01 2.08723E-24
5.30524E-01 2.03377E-24
5.34878E-01 1.98183E-24
5.39230E-01 1.93138E-24
5.43578E-01 1.88235E-24
5.47923E-01 1.83470E-24
5.52264E-01 1.78839E-24
5.56602E-01 1.74337E-24
5.60935E-01 1.69960E-24
5.65263E-01 1.65704E-24
5.69587E-01 1.61566E-24
5.73905E-01 1.57541E-24
5.78217E-01 1.53626E-24
5.82524E-01 1.49817E-24
5.86824E-01 1.46112E-24
5.91118E-01 1.42506E-24
5.95404E-01 1.38997E-24
5.99684E-01 1.35582E-24
6.03956E-01 1.32258E-24
6.08220E-01 1.29022E-24
6.12476E-01 1.25872E-24
6.16723E-01 1.22804E-24
6.20961E-01 1.19817E-24
6.25190E-01 1.16907E-24
6.29410E-01 1.14074E-24
6.33619E-01 1.11313E-24
6.37819E-01 1.08624E-24
6.42008E-01 1.06004E-24
6.46186E-01 1.03451E-24
6.50353E-01 1.00963E-24
6.54508E-01 9.85378E-25
6.58652E-01 9.61743E-25
6.62784E-01 9.38703E-25
6.66903E-01 9.16242E-25
6.71010E-01 8.94343E-25
6.75104E-01 8.72990E-25
6.79184E-01 8.52169E-25
6.83251E-01 8.31864E-25
6.87303E-01 8.12060E-25
6.91342E-01 7.92743E-25
6.95366E-01 7.73900E-25
6.99375E-01 7.55518E-25
7.03368E-01 7.37583E-25
7.07347E-01 7.20084E-25
7.11309E-01 7.03008E-25
7.15256E-01 6.86344E-25
7.19186E-01 6.70081E-25
7.23099E-01 6.54209E-25
7.26995E-01 6.38716E-25
7.30874E-01 6.23592E-25
7.34736E-01 6.08829E-25
7.38579E-01 5.94415E-25
7.42405E-01 5.80342E-25
7.46212E-01 5.66601E-25
7.50000E-01 5.53183E-25
7.53769E-01 5.40080E-25
7.57519E-01 5.27283E-25
7.61249E-01 5.14786E-25
7.64960E-01 5.02579E-25
7.68650E-01 4.90655E-25
7.72320E-01 4.79008E-25
7.75968E-01 4.67630E-25
7.79596E-01 4.56515E-25
7.83203E-01 4.45656E-25
7.86788E-01 4.35046E-25
7.90351E-01 4.24679E-25
7.93893E-01 4.14550E-25
7.97411E-01 4.04652E-25
8.00908E-01 3.94980E-25
8.04381E-01 3.85527E-25
8.07831E-01 3.76290E-25
8.11257E-01 3.67262E-25
8.14660E-01 3.58439E-25
8.18039E-01 3.49816E-25
8.21394E-01 3.41387E-25
8.24724E-01 3.33148E-25
8.28030E-01 3.25096E-25
8.31310E-01 3.17224E-25
8.34565E-01 3.09530E-25
8.37795E-01 3.02009E-25
8.40999E-01 2.94656E-25
8.44177E-01 2.87469E-25
8.47329E-01 2.80443E-25
8.50455E-01 2.73574E-25
8.53553E-01 2.66860E-25
8.56625E-01 2.60296E-25
8.59670E-01 2.53879E-25
8.62687E-01 2.47606E-25
8.65677E-01 2.41474E-25
8.68639E-01 2.35479E-25
8.71572E-01 2.29619E-25
8.74478E-01 2.23891E-25
8.77355E-01 2.18291E-25
8.80203E-01 2.12817E-25
8.83022E-01 2.07467E-25
8.85812E-01 2.02237E-25
8.88573E-01 1.97125E-25
8.91304E-01 1.92129E-25
8.94005E-01 1.87245E-25
8.96677E-01 1.82473E-25
8.99318E-01 1.77810E-25
9.01928E-01 1.73252E-25
9.04508E-01 1.68799E-25
9.07058E-01 1.64448E-25
9.09576E-01 1.60197E-25
9.12063E-01 1.56044E-25
9.14519E-01 1.51987E-25
9.16943E-01 1.48024E-25
9.19335E-01 1.44154E-25
9.21696E-01 1.40374E-25
9.24024E-01 1.36683E-25
9.26320E-01 1.33080E-25
9.28584E-01 1.29561E-25
9.30815E-01 1.26127E-25
9.33013E-01 1.22776E-25
9.35178E-01 1.19505E-25
9.37310E-01 1.16314E-25
9.39409E-01 1.13201E-25
9.41474E-01 1.10164E-25
9.43505E-01 1.07203E-25
9.45503E-01 1.04316E-25
9.47467E-01 1.01502E-25
9.49397E-01 9.87593E-26
9.51293E-01 9.60870E-26
9.53154E-01 9.34839E-26
9.54981E-01 9.09489E-26
9.56773E-01 8.84808E-26
9.58530E-01 8.60788E-26
9.60252E-01 8.37416E-26
9.61940E-01 8.14684E-26
9.63592E-01 7.92582E-26
9.65209E-01 7.71100E-26
9.66790E-01 7.50229E-26
9.68336E-01 7.29960E-26
9.69846E-01 7.10285E-26
9.71321E-01 6.91197E-26
9.72759E-01 6.72686E-26
9.74162E-01 6.54745E-26
9.75528E-01 6.37366E-26
9.76858E-01 6.20543E-26
9.78152E-01 6.04269E-26
9.79410E-01 5.88536E-26
9.80631E-01 5.73339E-26
9.81815E-01 5.58671E-26
9.82963E-01 5.44526E-26
9.84074E-01 5.30899E-26
9.85148E-01 5.17783E-26
9.86185E-01 5.05174E-26
9.87185E-01 4.93066E-26
9.88148E-01 4.81455E-26
9.89074E-01 4.70336E-26
9.89962E-01 4.59704E-26
9.90814E-01 4.49555E-26
9.91627E-01 4.39885E-26
9.92404E-01 4.30690E-26
9.93143E-01 4.21967E-26
9.93844E-01 4.13711E-26
9.94508E-01 4.05921E-26
9.95134E-01 3.98592E-26
9.95722E-01 3.91721E-26
9.96273E-01 3.85306E-26
9.96786E-01 3.79345E-26
9.97261E-01 3.73835E-26
9.97698E-01 3.68773E-26
9.98097E-01 3.64159E-26
9.98459E-01 3.59989E-26
9.98782E-01 3.56263E-26
9.99067E-01 3.52978E-26
9.99315E-01 3.50134E-26
9.99524E-01 3.47730E-26
9.99695E-01 3.45764E-26
9.99829E-01 3.44235E-26
9.99924E-01 3.43144E-26
9.99981E-01 3.42489E-26
1.00000E+00 3.42271E-26
