 #
 # Subroutine ELSEPA. Elastic scattering of electrons and positrons
 #                    by neutral atoms and positive ions
 #
 # Projectile: positron
 # Kinetic energy = 4.00000E+07 eV = 1.46997E+06 a.u.
 #
 # WARNING: High-energy factorization with free-atom DF screening.
 #          Absorption, polarization and exchange corrections are
 #          switched off.
 #          Phase shifts are calculated for the bare nucleus.
 #          Scattering amplitudes are not evaluated.
 #
 # Element: Lu,  Z =  71,  atomic weight = 1.74967E+02 g/mol
 #
 # Nuclear model: Fermi distribution
 #                Average radius = 5.98461E-13 cm
 #                Skin thickness = 5.46000E-14 cm
 #
 # Number of electrons = 71
 #
 # Total elastic cross section = 7.18097E-18 cm**2 = 2.56437E-01 a0**2
 # 1st transport cross section = 5.24596E-24 cm**2 = 1.87337E-07 a0**2
 # 2nd transport cross section = 1.53574E-23 cm**2 = 5.48422E-07 a0**2
 #
 #
 # Differential cross section:                       MU=(1-COS(THETA))/2
 #
 #  THETA        MU          DCS          DCS        Sherman      error
 #  (deg)                 (cm**2/sr)   (a0**2/sr)    function
 #----------------------------------------------------------------------
0.00000E+00 1.08741E-10
7.61557E-13 1.08674E-10
1.18994E-12 1.08637E-10
1.71346E-12 1.08592E-10
2.33225E-12 1.08538E-10
3.04617E-12 1.08476E-10
3.85530E-12 1.08406E-10
4.75964E-12 1.08328E-10
5.75917E-12 1.08242E-10
6.85391E-12 1.08148E-10
8.04379E-12 1.08046E-10
9.32893E-12 1.07935E-10
1.07092E-11 1.07817E-10
1.21847E-11 1.07691E-10
1.37554E-11 1.07557E-10
1.54213E-11 1.07415E-10
1.71823E-11 1.07266E-10
1.90386E-11 1.07109E-10
2.09900E-11 1.06944E-10
2.30367E-11 1.06771E-10
2.51785E-11 1.06591E-10
2.74156E-11 1.06404E-10
2.97478E-11 1.06209E-10
3.21752E-11 1.06007E-10
3.46979E-11 1.05798E-10
3.73157E-11 1.05581E-10
4.00286E-11 1.05358E-10
4.28368E-11 1.05127E-10
4.57402E-11 1.04890E-10
4.87388E-11 1.04645E-10
5.18325E-11 1.04394E-10
5.50215E-11 1.04137E-10
5.83057E-11 1.03872E-10
6.16850E-11 1.03601E-10
6.51595E-11 1.03324E-10
6.87293E-11 1.03041E-10
7.23943E-11 1.02751E-10
7.61544E-11 1.02455E-10
1.18991E-10 9.91836E-11
1.71347E-10 9.54190E-11
2.33223E-10 9.12739E-11
3.04617E-10 8.68611E-11
3.85531E-10 8.22902E-11
4.75965E-10 7.76577E-11
5.75917E-10 7.30474E-11
6.85389E-10 6.85329E-11
8.04380E-10 6.41706E-11
9.32891E-10 5.99980E-11
1.07092E-09 5.60429E-11
1.21847E-09 5.23293E-11
1.37554E-09 4.88609E-11
1.54213E-09 4.56355E-11
1.71823E-09 4.26484E-11
1.90386E-09 3.98965E-11
2.09900E-09 3.73612E-11
2.30367E-09 3.50289E-11
2.51785E-09 3.28860E-11
2.74156E-09 3.09192E-11
2.97478E-09 2.91109E-11
3.21752E-09 2.74482E-11
3.46978E-09 2.59181E-11
3.73156E-09 2.45070E-11
4.00286E-09 2.32045E-11
4.28368E-09 2.20007E-11
4.57402E-09 2.08852E-11
4.87388E-09 1.98484E-11
5.18326E-09 1.88849E-11
5.50215E-09 1.79882E-11
5.83057E-09 1.71494E-11
6.16850E-09 1.63639E-11
6.51596E-09 1.56288E-11
6.87293E-09 1.49399E-11
7.23942E-09 1.42892E-11
7.61544E-09 1.36765E-11
1.18991E-08 9.08624E-12
1.71347E-08 6.16950E-12
2.33223E-08 4.39666E-12
3.04617E-08 3.18993E-12
3.85531E-08 2.35327E-12
4.75965E-08 1.77876E-12
5.75917E-08 1.37079E-12
6.85389E-08 1.06905E-12
8.04380E-08 8.43663E-13
9.32891E-08 6.74545E-13
1.07092E-07 5.45217E-13
1.21847E-07 4.43537E-13
1.37554E-07 3.63918E-13
1.54213E-07 3.01203E-13
1.71823E-07 2.51254E-13
1.90386E-07 2.10790E-13
2.09900E-07 1.78167E-13
2.30367E-07 1.51654E-13
2.51785E-07 1.29922E-13
2.74156E-07 1.11918E-13
2.97478E-07 9.69957E-14
3.21752E-07 8.45438E-14
3.46978E-07 7.40872E-14
3.73156E-07 6.51699E-14
4.00286E-07 5.75905E-14
4.28368E-07 5.11157E-14
4.57402E-07 4.55482E-14
4.87388E-07 4.07342E-14
5.18325E-07 3.65573E-14
5.50215E-07 3.29156E-14
5.83057E-07 2.97177E-14
6.16850E-07 2.69001E-14
6.51596E-07 2.44122E-14
6.87293E-07 2.22074E-14
7.23942E-07 2.02412E-14
7.61543E-07 1.84880E-14
1.18991E-06 8.23570E-15
1.71347E-06 4.18991E-15
2.33223E-06 2.34880E-15
3.04617E-06 1.41662E-15
3.85531E-06 9.04592E-16
4.75964E-06 6.04542E-16
5.75916E-06 4.19300E-16
6.85388E-06 2.99920E-16
8.04378E-06 2.20169E-16
9.32888E-06 1.65230E-16
1.07092E-05 1.26398E-16
1.21846E-05 9.83198E-17
1.37553E-05 7.76124E-17
1.54212E-05 6.20720E-17
1.71822E-05 5.02270E-17
1.90385E-05 4.10513E-17
2.09899E-05 3.39110E-17
2.30365E-05 2.82512E-17
2.51783E-05 2.37166E-17
2.74153E-05 2.00505E-17
2.97475E-05 1.70630E-17
3.21749E-05 1.46112E-17
3.46974E-05 1.25851E-17
3.73152E-05 1.08996E-17
4.00281E-05 9.48806E-18
4.28362E-05 8.29825E-18
4.57395E-05 7.28914E-18
4.87380E-05 6.42847E-18
5.18317E-05 5.69072E-18
5.50205E-05 5.05550E-18
5.83045E-05 4.50635E-18
6.16838E-05 4.02981E-18
6.51582E-05 3.61475E-18
6.87277E-05 3.25189E-18
7.23925E-05 2.93352E-18
7.61524E-05 2.65326E-18
9.21439E-05 1.81719E-18
1.09658E-04 1.28579E-18
1.28695E-04 9.35186E-19
1.49255E-04 6.96204E-19
1.71338E-04 5.28881E-19
1.94942E-04 4.08882E-19
2.20070E-04 3.21032E-19
2.46720E-04 2.55533E-19
2.74892E-04 2.05897E-19
3.04586E-04 1.67733E-19
3.35803E-04 1.38003E-19
3.68542E-04 1.14569E-19
4.02802E-04 9.58966E-20
4.38585E-04 8.08719E-20
4.75889E-04 6.86731E-20
5.14715E-04 5.86861E-20
5.55063E-04 5.04473E-20
5.96931E-04 4.36023E-20
6.40321E-04 3.78777E-20
6.85233E-04 3.30607E-20
7.31665E-04 2.89842E-20
7.79618E-04 2.55158E-20
8.29092E-04 2.25500E-20
8.80086E-04 2.00018E-20
9.32601E-04 1.78029E-20
9.86636E-04 1.58974E-20
1.04219E-03 1.42395E-20
1.09927E-03 1.27918E-20
1.15786E-03 1.15229E-20
1.21797E-03 1.04072E-20
1.27961E-03 9.42301E-21
1.34276E-03 8.55213E-21
1.40743E-03 7.77932E-21
1.47362E-03 7.09161E-21
1.54133E-03 6.47804E-21
1.61056E-03 5.92923E-21
1.68131E-03 5.43716E-21
1.75357E-03 4.99495E-21
1.82735E-03 4.59665E-21
1.90265E-03 4.23715E-21
1.97947E-03 3.91202E-21
2.05780E-03 3.61738E-21
2.13765E-03 3.34987E-21
2.21902E-03 3.10655E-21
2.30190E-03 2.88486E-21
2.38630E-03 2.68253E-21
2.47222E-03 2.49756E-21
2.55965E-03 2.32821E-21
2.64859E-03 2.17292E-21
2.73905E-03 2.03032E-21
2.83103E-03 1.89918E-21
2.92452E-03 1.77842E-21
3.01952E-03 1.66707E-21
3.11604E-03 1.56426E-21
3.21407E-03 1.46923E-21
3.31362E-03 1.38127E-21
3.41468E-03 1.29977E-21
3.51725E-03 1.22417E-21
3.62133E-03 1.15397E-21
3.72692E-03 1.08870E-21
3.83403E-03 1.02796E-21
3.94265E-03 9.71378E-22
4.05278E-03 9.18619E-22
4.16442E-03 8.69377E-22
4.27757E-03 8.23375E-22
4.39223E-03 7.80361E-22
4.50840E-03 7.40106E-22
4.62608E-03 7.02400E-22
4.74527E-03 6.67054E-22
4.86597E-03 6.33891E-22
4.98817E-03 6.02753E-22
5.11188E-03 5.73494E-22
5.23711E-03 5.45979E-22
5.36383E-03 5.20086E-22
5.49207E-03 4.95702E-22
5.62181E-03 4.72721E-22
5.75306E-03 4.51050E-22
5.88581E-03 4.30600E-22
6.02007E-03 4.11288E-22
6.15583E-03 3.93040E-22
6.29310E-03 3.75789E-22
6.43187E-03 3.59466E-22
6.57214E-03 3.44015E-22
6.71392E-03 3.29381E-22
6.85720E-03 3.15512E-22
7.00198E-03 3.02360E-22
7.14827E-03 2.89882E-22
7.29605E-03 2.78037E-22
7.44534E-03 2.66787E-22
7.59612E-03 2.56096E-22
7.97965E-03 2.31607E-22
8.37255E-03 2.09957E-22
8.77480E-03 1.90763E-22
9.18641E-03 1.73697E-22
9.60736E-03 1.58485E-22
1.00376E-02 1.44891E-22
1.04773E-02 1.32712E-22
1.09262E-02 1.21777E-22
1.13844E-02 1.11937E-22
1.18520E-02 1.03063E-22
1.23288E-02 9.50435E-23
1.28150E-02 8.77830E-23
1.33104E-02 8.11968E-23
1.38150E-02 7.52115E-23
1.43290E-02 6.97628E-23
1.48521E-02 6.47944E-23
1.53845E-02 6.02566E-23
1.59262E-02 5.61046E-23
1.64770E-02 5.23001E-23
1.70371E-02 4.88093E-23
1.76063E-02 4.56020E-23
1.81848E-02 4.26510E-23
1.87724E-02 3.99323E-23
1.93692E-02 3.74244E-23
1.99751E-02 3.51081E-23
2.05901E-02 3.29661E-23
2.12143E-02 3.09831E-23
2.18476E-02 2.91452E-23
2.24900E-02 2.74399E-23
2.31415E-02 2.58560E-23
2.38021E-02 2.43832E-23
2.44717E-02 2.30125E-23
2.51504E-02 2.17355E-23
2.58382E-02 2.05446E-23
2.65349E-02 1.94330E-23
2.72407E-02 1.83946E-23
2.79555E-02 1.74236E-23
2.86793E-02 1.65149E-23
2.94120E-02 1.56639E-23
3.01537E-02 1.48661E-23
3.09043E-02 1.41177E-23
3.16639E-02 1.34150E-23
3.24324E-02 1.27549E-23
3.32098E-02 1.21342E-23
3.39961E-02 1.15502E-23
3.47912E-02 1.10003E-23
3.55952E-02 1.04822E-23
3.64081E-02 9.99371E-24
3.72297E-02 9.53287E-24
3.80602E-02 9.09782E-24
3.88995E-02 8.68686E-24
3.97476E-02 8.29842E-24
4.06044E-02 7.93105E-24
4.14700E-02 7.58341E-24
4.23443E-02 7.25425E-24
4.32273E-02 6.94240E-24
4.41190E-02 6.64681E-24
4.50194E-02 6.36648E-24
4.59284E-02 6.10047E-24
4.68461E-02 5.84792E-24
4.87074E-02 5.38008E-24
5.06030E-02 4.95717E-24
5.25328E-02 4.57415E-24
5.44967E-02 4.22665E-24
5.64946E-02 3.91081E-24
5.85262E-02 3.62327E-24
6.05914E-02 3.36108E-24
6.26901E-02 3.12163E-24
6.48222E-02 2.90262E-24
6.69873E-02 2.70202E-24
6.91854E-02 2.51801E-24
7.14163E-02 2.34900E-24
7.36799E-02 2.19357E-24
7.59760E-02 2.05044E-24
7.83043E-02 1.91847E-24
8.06647E-02 1.79666E-24
8.30571E-02 1.68408E-24
8.54812E-02 1.57993E-24
8.79369E-02 1.48347E-24
9.04240E-02 1.39403E-24
9.29422E-02 1.31103E-24
9.54915E-02 1.23391E-24
9.80716E-02 1.16221E-24
1.00682E-01 1.09546E-24
1.03323E-01 1.03328E-24
1.05995E-01 9.75297E-25
1.08696E-01 9.21185E-25
1.11427E-01 8.70641E-25
1.14188E-01 8.23393E-25
1.16978E-01 7.79189E-25
1.19797E-01 7.37802E-25
1.22645E-01 6.99023E-25
1.25522E-01 6.62661E-25
1.28428E-01 6.28540E-25
1.31361E-01 5.96500E-25
1.34323E-01 5.66394E-25
1.37313E-01 5.38085E-25
1.40330E-01 5.11449E-25
1.43375E-01 4.86372E-25
1.46447E-01 4.62747E-25
1.49545E-01 4.40477E-25
1.52671E-01 4.19471E-25
1.55823E-01 3.99646E-25
1.59001E-01 3.80925E-25
1.62205E-01 3.63237E-25
1.65435E-01 3.46516E-25
1.68690E-01 3.30701E-25
1.71970E-01 3.15734E-25
1.75276E-01 3.01563E-25
1.78606E-01 2.88138E-25
1.81961E-01 2.75415E-25
1.85340E-01 2.63351E-25
1.88743E-01 2.51906E-25
1.92169E-01 2.41044E-25
1.95619E-01 2.30729E-25
1.99092E-01 2.20932E-25
2.02589E-01 2.11620E-25
2.06107E-01 2.02767E-25
2.09649E-01 1.94346E-25
2.13212E-01 1.86334E-25
2.16797E-01 1.78706E-25
2.20404E-01 1.71443E-25
2.24032E-01 1.64523E-25
2.27680E-01 1.57928E-25
2.31350E-01 1.51640E-25
2.35040E-01 1.45643E-25
2.38751E-01 1.39922E-25
2.42481E-01 1.34461E-25
2.46231E-01 1.29248E-25
2.50000E-01 1.24269E-25
2.53788E-01 1.19512E-25
2.57595E-01 1.14965E-25
2.61421E-01 1.10619E-25
2.65264E-01 1.06462E-25
2.69126E-01 1.02486E-25
2.73005E-01 9.86808E-26
2.76901E-01 9.50387E-26
2.80814E-01 9.15514E-26
2.84744E-01 8.82114E-26
2.88691E-01 8.50116E-26
2.92653E-01 8.19452E-26
2.96632E-01 7.90058E-26
3.00625E-01 7.61873E-26
3.04634E-01 7.34842E-26
3.08658E-01 7.08909E-26
3.12697E-01 6.84024E-26
3.16749E-01 6.60139E-26
3.20816E-01 6.37206E-26
3.24896E-01 6.15184E-26
3.28990E-01 5.94029E-26
3.33097E-01 5.73704E-26
3.37216E-01 5.54172E-26
3.41348E-01 5.35396E-26
3.45492E-01 5.17343E-26
3.49647E-01 4.99982E-26
3.53814E-01 4.83283E-26
3.57992E-01 4.67216E-26
3.62181E-01 4.51754E-26
3.66381E-01 4.36872E-26
3.70590E-01 4.22544E-26
3.74810E-01 4.08748E-26
3.79039E-01 3.95460E-26
3.83277E-01 3.82659E-26
3.87524E-01 3.70325E-26
3.91780E-01 3.58438E-26
3.96044E-01 3.46981E-26
4.00316E-01 3.35936E-26
4.04596E-01 3.25285E-26
4.08882E-01 3.15012E-26
4.13176E-01 3.05104E-26
4.17476E-01 2.95543E-26
4.21783E-01 2.86318E-26
4.26095E-01 2.77415E-26
4.30413E-01 2.68820E-26
4.34737E-01 2.60522E-26
4.39065E-01 2.52510E-26
4.43398E-01 2.44771E-26
4.47736E-01 2.37296E-26
4.52077E-01 2.30074E-26
4.56422E-01 2.23095E-26
4.60770E-01 2.16351E-26
4.65122E-01 2.09833E-26
4.69476E-01 2.03531E-26
4.73832E-01 1.97438E-26
4.78190E-01 1.91546E-26
4.82550E-01 1.85848E-26
4.86912E-01 1.80336E-26
4.91274E-01 1.75003E-26
4.95637E-01 1.69843E-26
5.00000E-01 1.64850E-26
5.04363E-01 1.60017E-26
5.08726E-01 1.55339E-26
5.13088E-01 1.50810E-26
5.17450E-01 1.46425E-26
5.21810E-01 1.42179E-26
5.26168E-01 1.38066E-26
5.30524E-01 1.34082E-26
5.34878E-01 1.30223E-26
5.39230E-01 1.26484E-26
5.43578E-01 1.22861E-26
5.47923E-01 1.19349E-26
5.52264E-01 1.15946E-26
5.56602E-01 1.12647E-26
5.60935E-01 1.09449E-26
5.65263E-01 1.06348E-26
5.69587E-01 1.03341E-26
5.73905E-01 1.00424E-26
5.78217E-01 9.75960E-27
5.82524E-01 9.48522E-27
5.86824E-01 9.21904E-27
5.91118E-01 8.96077E-27
5.95404E-01 8.71017E-27
5.99684E-01 8.46697E-27
6.03956E-01 8.23094E-27
6.08220E-01 8.00182E-27
6.12476E-01 7.77941E-27
6.16723E-01 7.56349E-27
6.20961E-01 7.35383E-27
6.25190E-01 7.15025E-27
6.29410E-01 6.95254E-27
6.33619E-01 6.76051E-27
6.37819E-01 6.57399E-27
6.42008E-01 6.39281E-27
6.46186E-01 6.21678E-27
6.50353E-01 6.04575E-27
6.54508E-01 5.87956E-27
6.58652E-01 5.71807E-27
6.62784E-01 5.56112E-27
6.66903E-01 5.40857E-27
6.71010E-01 5.26028E-27
6.75104E-01 5.11613E-27
6.79184E-01 4.97599E-27
6.83251E-01 4.83973E-27
6.87303E-01 4.70724E-27
6.91342E-01 4.57840E-27
6.95366E-01 4.45310E-27
6.99375E-01 4.33124E-27
7.03368E-01 4.21270E-27
7.07347E-01 4.09740E-27
7.11309E-01 3.98523E-27
7.15256E-01 3.87610E-27
7.19186E-01 3.76992E-27
7.23099E-01 3.66661E-27
7.26995E-01 3.56608E-27
7.30874E-01 3.46824E-27
7.34736E-01 3.37302E-27
7.38579E-01 3.28035E-27
7.42405E-01 3.19014E-27
7.46212E-01 3.10233E-27
7.50000E-01 3.01685E-27
7.53769E-01 2.93363E-27
7.57519E-01 2.85260E-27
7.61249E-01 2.77371E-27
7.64960E-01 2.69689E-27
7.68650E-01 2.62209E-27
7.72320E-01 2.54924E-27
7.75968E-01 2.47830E-27
7.79596E-01 2.40920E-27
7.83203E-01 2.34190E-27
7.86788E-01 2.27634E-27
7.90351E-01 2.21249E-27
7.93893E-01 2.15028E-27
7.97411E-01 2.08969E-27
8.00908E-01 2.03065E-27
8.04381E-01 1.97313E-27
8.07831E-01 1.91709E-27
8.11257E-01 1.86248E-27
8.14660E-01 1.80928E-27
8.18039E-01 1.75743E-27
8.21394E-01 1.70691E-27
8.24724E-01 1.65768E-27
8.28030E-01 1.60970E-27
8.31310E-01 1.56293E-27
8.34565E-01 1.51736E-27
8.37795E-01 1.47295E-27
8.40999E-01 1.42966E-27
8.44177E-01 1.38746E-27
8.47329E-01 1.34634E-27
8.50455E-01 1.30625E-27
8.53553E-01 1.26718E-27
8.56625E-01 1.22910E-27
8.59670E-01 1.19197E-27
8.62687E-01 1.15579E-27
8.65677E-01 1.12051E-27
8.68639E-01 1.08613E-27
8.71572E-01 1.05261E-27
8.74478E-01 1.01994E-27
8.77355E-01 9.88097E-28
8.80203E-01 9.57054E-28
8.83022E-01 9.26794E-28
8.85812E-01 8.97299E-28
8.88573E-01 8.68549E-28
8.91304E-01 8.40526E-28
8.94005E-01 8.13213E-28
8.96677E-01 7.86591E-28
8.99318E-01 7.60646E-28
9.01928E-01 7.35359E-28
9.04508E-01 7.10716E-28
9.07058E-01 6.86701E-28
9.09576E-01 6.63299E-28
9.12063E-01 6.40496E-28
9.14519E-01 6.18278E-28
9.16943E-01 5.96631E-28
9.19335E-01 5.75542E-28
9.21696E-01 5.54999E-28
9.24024E-01 5.34989E-28
9.26320E-01 5.15499E-28
9.28584E-01 4.96518E-28
9.30815E-01 4.78035E-28
9.33013E-01 4.60039E-28
9.35178E-01 4.42519E-28
9.37310E-01 4.25464E-28
9.39409E-01 4.08865E-28
9.41474E-01 3.92711E-28
9.43505E-01 3.76994E-28
9.45503E-01 3.61704E-28
9.47467E-01 3.46832E-28
9.49397E-01 3.32370E-28
9.51293E-01 3.18308E-28
9.53154E-01 3.04640E-28
9.54981E-01 2.91357E-28
9.56773E-01 2.78451E-28
9.58530E-01 2.65915E-28
9.60252E-01 2.53742E-28
9.61940E-01 2.41925E-28
9.63592E-01 2.30457E-28
9.65209E-01 2.19332E-28
9.66790E-01 2.08544E-28
9.68336E-01 1.98085E-28
9.69846E-01 1.87951E-28
9.71321E-01 1.78136E-28
9.72759E-01 1.68634E-28
9.74162E-01 1.59440E-28
9.75528E-01 1.50548E-28
9.76858E-01 1.41955E-28
9.78152E-01 1.33654E-28
9.79410E-01 1.25642E-28
9.80631E-01 1.17914E-28
9.81815E-01 1.10466E-28
9.82963E-01 1.03293E-28
9.84074E-01 9.63917E-29
9.85148E-01 8.97585E-29
9.86185E-01 8.33895E-29
9.87185E-01 7.72812E-29
9.88148E-01 7.14304E-29
9.89074E-01 6.58337E-29
9.89962E-01 6.04882E-29
9.90814E-01 5.53910E-29
9.91627E-01 5.05392E-29
9.92404E-01 4.59303E-29
9.93143E-01 4.15617E-29
9.93844E-01 3.74311E-29
9.94508E-01 3.35362E-29
9.95134E-01 2.98750E-29
9.95722E-01 2.64454E-29
9.96273E-01 2.32457E-29
9.96786E-01 2.02740E-29
9.97261E-01 1.75288E-29
9.97698E-01 1.50086E-29
9.98097E-01 1.27120E-29
9.98459E-01 1.06379E-29
9.98782E-01 8.78509E-30
9.99067E-01 7.15258E-30
9.99315E-01 5.73950E-30
9.99524E-01 4.54510E-30
9.99695E-01 3.56874E-30
9.99829E-01 2.80988E-30
9.99924E-01 2.26813E-30
9.99981E-01 1.94320E-30
1.00000E+00 1.83491E-30
