 #
 # Subroutine ELSEPA. Elastic scattering of electrons and positrons
 #                    by neutral atoms and positive ions
 #
 # Projectile: positron
 # Kinetic energy = 9.00000E+08 eV = 3.30744E+07 a.u.
 #
 # WARNING: High-energy factorization with free-atom DF screening.
 #          Absorption, polarization and exchange corrections are
 #          switched off.
 #          Phase shifts are calculated for the bare nucleus.
 #          Scattering amplitudes are not evaluated.
 #
 # Element: Lu,  Z =  71,  atomic weight = 1.74967E+02 g/mol
 #
 # Nuclear model: Fermi distribution
 #                Average radius = 5.98461E-13 cm
 #                Skin thickness = 5.46000E-14 cm
 #
 # Number of electrons = 71
 #
 # Total elastic cross section = 7.12697E-18 cm**2 = 2.54509E-01 a0**2
 # 1st transport cross section = 1.17595E-26 cm**2 = 4.19938E-10 a0**2
 # 2nd transport cross section = 3.52741E-26 cm**2 = 1.25966E-09 a0**2
 #
 #
 # Differential cross section:                       MU=(1-COS(THETA))/2
 #
 #  THETA        MU          DCS          DCS        Sherman      error
 #  (deg)                 (cm**2/sr)   (a0**2/sr)    function
 #----------------------------------------------------------------------
0.00000E+00 5.37311E-08
7.61557E-13 4.09074E-08
1.18994E-12 3.58348E-08
1.71346E-12 3.09989E-08
2.33225E-12 2.66488E-08
3.04617E-12 2.28827E-08
3.85530E-12 1.97045E-08
4.75964E-12 1.70573E-08
5.75917E-12 1.48635E-08
6.85391E-12 1.30448E-08
8.04379E-12 1.15287E-08
9.32893E-12 1.02557E-08
1.07092E-11 9.17497E-09
1.21847E-11 8.25045E-09
1.37554E-11 7.45163E-09
1.54213E-11 6.75388E-09
1.71823E-11 6.14171E-09
1.90386E-11 5.59958E-09
2.09900E-11 5.11667E-09
2.30367E-11 4.68567E-09
2.51785E-11 4.29784E-09
2.74156E-11 3.94861E-09
2.97478E-11 3.61389E-09
3.21752E-11 3.31025E-09
3.46979E-11 3.04629E-09
3.73157E-11 2.81574E-09
4.00286E-11 2.61345E-09
4.28368E-11 2.43519E-09
4.57402E-11 2.25888E-09
4.87388E-11 2.08786E-09
5.18325E-11 1.93651E-09
5.50215E-11 1.80207E-09
5.83057E-11 1.68224E-09
6.16850E-11 1.57505E-09
6.51595E-11 1.47203E-09
6.87293E-11 1.37136E-09
7.23943E-11 1.28096E-09
7.61544E-11 1.19955E-09
1.18991E-10 6.57258E-10
1.71347E-10 3.86580E-10
2.33223E-10 2.39471E-10
3.04617E-10 1.55062E-10
3.85531E-10 1.04059E-10
4.75965E-10 7.22837E-11
5.75917E-10 5.18239E-11
6.85389E-10 3.81968E-11
8.04380E-10 2.88208E-11
9.32891E-10 2.22088E-11
1.07092E-09 1.74233E-11
1.21847E-09 1.38794E-11
1.37554E-09 1.11966E-11
1.54213E-09 9.12937E-12
1.71823E-09 7.51854E-12
1.90386E-09 6.24737E-12
2.09900E-09 5.23332E-12
2.30367E-09 4.41652E-12
2.51785E-09 3.75156E-12
2.74156E-09 3.20642E-12
2.97478E-09 2.75465E-12
3.21752E-09 2.38079E-12
3.46978E-09 2.06955E-12
3.73156E-09 1.80559E-12
4.00286E-09 1.58377E-12
4.28368E-09 1.39407E-12
4.57402E-09 1.23219E-12
4.87388E-09 1.09337E-12
5.18326E-09 9.73170E-13
5.50215E-09 8.69518E-13
5.83057E-09 7.78875E-13
6.16850E-09 6.99956E-13
6.51596E-09 6.30793E-13
6.87293E-09 5.69883E-13
7.23942E-09 5.16342E-13
7.61544E-09 4.68730E-13
1.18991E-08 1.99421E-13
1.71347E-08 9.87151E-14
2.33223E-08 5.42834E-14
3.04617E-08 3.22507E-14
3.85531E-08 2.03351E-14
4.75965E-08 1.34433E-14
5.75917E-08 9.23696E-15
6.85389E-08 6.55380E-15
8.04380E-08 4.77777E-15
9.32891E-08 3.56465E-15
1.07092E-07 2.71332E-15
1.21847E-07 2.10170E-15
1.37554E-07 1.65314E-15
1.54213E-07 1.31815E-15
1.71823E-07 1.06389E-15
1.90386E-07 8.68090E-16
2.09900E-07 7.15335E-16
2.30367E-07 5.94750E-16
2.51785E-07 4.98535E-16
2.74156E-07 4.21010E-16
2.97478E-07 3.57983E-16
3.21752E-07 3.06318E-16
3.46978E-07 2.63643E-16
3.73156E-07 2.28147E-16
4.00286E-07 1.98425E-16
4.28368E-07 1.73388E-16
4.57402E-07 1.52177E-16
4.87388E-07 1.34111E-16
5.18325E-07 1.18647E-16
5.50215E-07 1.05348E-16
5.83057E-07 9.38599E-17
6.16850E-07 8.38956E-17
6.51596E-07 7.52186E-17
6.87293E-07 6.76342E-17
7.23942E-07 6.09818E-17
7.61543E-07 5.51271E-17
1.18991E-06 2.26336E-17
1.71347E-06 1.09289E-17
2.33223E-06 5.90324E-18
3.04617E-06 3.46173E-18
3.85531E-06 2.16159E-18
4.75964E-06 1.41836E-18
5.75916E-06 9.68780E-19
6.85388E-06 6.84004E-19
8.04378E-06 4.96573E-19
9.32888E-06 3.69152E-19
1.07092E-05 2.80095E-19
1.21846E-05 2.16341E-19
1.37553E-05 1.69733E-19
1.54212E-05 1.35024E-19
1.71822E-05 1.08748E-19
1.90385E-05 8.85185E-20
2.09899E-05 7.28577E-20
2.30365E-05 6.05018E-20
2.51783E-05 5.06435E-20
2.74153E-05 4.27028E-20
2.97475E-05 3.62538E-20
3.21749E-05 3.09769E-20
3.46974E-05 2.66272E-20
3.73152E-05 2.30176E-20
4.00281E-05 2.00016E-20
4.28362E-05 1.74646E-20
4.57395E-05 1.53171E-20
4.87380E-05 1.34889E-20
5.18317E-05 1.19245E-20
5.50205E-05 1.05797E-20
5.83045E-05 9.41896E-21
6.16838E-05 8.41309E-21
6.51582E-05 7.53816E-21
6.87277E-05 6.77429E-21
7.23925E-05 6.10491E-21
7.61524E-05 5.57559E-21
9.21439E-05 3.79529E-21
1.09658E-04 2.66733E-21
1.28695E-04 1.92544E-21
1.49255E-04 1.42140E-21
1.71338E-04 1.06973E-21
1.94942E-04 8.18472E-22
2.20070E-04 6.35312E-22
2.46720E-04 4.99394E-22
2.74892E-04 3.96929E-22
3.04586E-04 3.18609E-22
3.35803E-04 2.57988E-22
3.68542E-04 2.10543E-22
4.02802E-04 1.73034E-22
4.38585E-04 1.43109E-22
4.75889E-04 1.19037E-22
5.14715E-04 9.95277E-23
5.55063E-04 8.36071E-23
5.96931E-04 7.05334E-23
6.40321E-04 5.97357E-23
6.85233E-04 5.07705E-23
7.31665E-04 4.32905E-23
7.79618E-04 3.70218E-23
8.29092E-04 3.17465E-23
8.80086E-04 2.72902E-23
9.32601E-04 2.35124E-23
9.86636E-04 2.02994E-23
1.04219E-03 1.75586E-23
1.09927E-03 1.52140E-23
1.15786E-03 1.32031E-23
1.21797E-03 1.14744E-23
1.27961E-03 9.98495E-24
1.34276E-03 8.69906E-24
1.40743E-03 7.58681E-24
1.47362E-03 6.62309E-24
1.54133E-03 5.78673E-24
1.61056E-03 5.05983E-24
1.68131E-03 4.42723E-24
1.75357E-03 3.87602E-24
1.82735E-03 3.39518E-24
1.90265E-03 2.97531E-24
1.97947E-03 2.60834E-24
2.05780E-03 2.28735E-24
2.13765E-03 2.00637E-24
2.21902E-03 1.76025E-24
2.30190E-03 1.54455E-24
2.38630E-03 1.35542E-24
2.47222E-03 1.18951E-24
2.55965E-03 1.04392E-24
2.64859E-03 9.16134E-25
2.73905E-03 8.03949E-25
2.83103E-03 7.05444E-25
2.92452E-03 6.18947E-25
3.01952E-03 5.42990E-25
3.11604E-03 4.76292E-25
3.21407E-03 4.17729E-25
3.31362E-03 3.66316E-25
3.41468E-03 3.21188E-25
3.51725E-03 2.81586E-25
3.62133E-03 2.46843E-25
3.72692E-03 2.16372E-25
3.83403E-03 1.89656E-25
3.94265E-03 1.66243E-25
4.05278E-03 1.45732E-25
4.16442E-03 1.27771E-25
4.27757E-03 1.12050E-25
4.39223E-03 9.82960E-26
4.50840E-03 8.62689E-26
4.62608E-03 7.57567E-26
4.74527E-03 6.65729E-26
4.86597E-03 5.85529E-26
4.98817E-03 5.15525E-26
5.11188E-03 4.54440E-26
5.23711E-03 4.01157E-26
5.36383E-03 3.54691E-26
5.49207E-03 3.14175E-26
5.62181E-03 2.78850E-26
5.75306E-03 2.48049E-26
5.88581E-03 2.21187E-26
6.02007E-03 1.97750E-26
6.15583E-03 1.77290E-26
6.29310E-03 1.59414E-26
6.43187E-03 1.43779E-26
6.57214E-03 1.30084E-26
6.71392E-03 1.18070E-26
6.85720E-03 1.07509E-26
7.00198E-03 9.82027E-27
7.14827E-03 8.99806E-27
7.29605E-03 8.26940E-27
7.44534E-03 7.62142E-27
7.59612E-03 7.04304E-27
7.97965E-03 5.84206E-27
8.37255E-03 4.90371E-27
8.77480E-03 4.14922E-27
9.18641E-03 3.52594E-27
9.60736E-03 2.99919E-27
1.00376E-02 2.54636E-27
1.04773E-02 2.15283E-27
1.09262E-02 1.80910E-27
1.13844E-02 1.50875E-27
1.18520E-02 1.24724E-27
1.23288E-02 1.02101E-27
1.28150E-02 8.26991E-28
1.33104E-02 6.62313E-28
1.38150E-02 5.24177E-28
1.43290E-02 4.09798E-28
1.48521E-02 3.16414E-28
1.53845E-02 2.41323E-28
1.59262E-02 1.81928E-28
1.64770E-02 1.35780E-28
1.70371E-02 1.00620E-28
1.76063E-02 7.44037E-29
1.81848E-02 5.53201E-29
1.87724E-02 4.17978E-29
1.93692E-02 3.25012E-29
1.99751E-02 2.63203E-29
2.05901E-02 2.23537E-29
2.12143E-02 1.98881E-29
2.18476E-02 1.83753E-29
2.24900E-02 1.74088E-29
2.31415E-02 1.67000E-29
2.38021E-02 1.60561E-29
2.44717E-02 1.53597E-29
2.51504E-02 1.45504E-29
2.58382E-02 1.36094E-29
2.65349E-02 1.25465E-29
2.72407E-02 1.13887E-29
2.79555E-02 1.01727E-29
2.86793E-02 8.93770E-30
2.94120E-02 7.72163E-30
3.01537E-02 6.55767E-30
3.09043E-02 5.47265E-30
3.16639E-02 4.48633E-30
3.24324E-02 3.61131E-30
3.32098E-02 2.85359E-30
3.39961E-02 2.21338E-30
3.47912E-02 1.68616E-30
3.55952E-02 1.26380E-30
3.64081E-02 9.35626E-31
3.72297E-02 6.89442E-31
3.80602E-02 5.12415E-31
3.88995E-02 3.91797E-31
3.97476E-02 3.15501E-31
4.06044E-02 2.72510E-31
4.14700E-02 2.53155E-31
4.23443E-02 2.49251E-31
4.32273E-02 2.54144E-31
4.41190E-02 2.62657E-31
4.50194E-02 2.70984E-31
4.59284E-02 2.76535E-31
4.68461E-02 2.77756E-31
4.87074E-02 2.65047E-31
5.06030E-02 2.34080E-31
5.25328E-02 1.91424E-31
5.44967E-02 1.44990E-31
5.64946E-02 1.01538E-31
5.85262E-02 6.54952E-32
6.05914E-02 3.87934E-32
6.26901E-02 2.12989E-32
6.48222E-02 1.15220E-32
6.69873E-02 7.33976E-33
6.91854E-02 6.58353E-33
7.14163E-02 7.42431E-33
7.36799E-02 8.55747E-33
7.59760E-02 9.22521E-33
7.83043E-02 9.13266E-33
8.06647E-02 8.31230E-33
8.30571E-02 6.98087E-33
8.54812E-02 5.41777E-33
8.79369E-02 3.87926E-33
9.04240E-02 2.55068E-33
9.29422E-02 1.53130E-33
9.54915E-02 8.42185E-34
9.80716E-02 4.46944E-34
1.00682E-01 2.76504E-34
1.03323E-01 2.51709E-34
1.05995E-01 3.00144E-34
1.08696E-01 3.66055E-34
1.11427E-01 4.13906E-34
1.14188E-01 4.27131E-34
1.16978E-01 4.03970E-34
1.19797E-01 3.52150E-34
1.22645E-01 2.83770E-34
1.25522E-01 2.11245E-34
1.28428E-01 1.44643E-34
1.31361E-01 9.04350E-35
1.34323E-01 5.13608E-35
1.37313E-01 2.70548E-35
1.40330E-01 1.50491E-35
1.43375E-01 1.18368E-35
1.46447E-01 1.37811E-35
1.49545E-01 1.77559E-35
1.52671E-01 2.14914E-35
1.55823E-01 2.36610E-35
1.59001E-01 2.37784E-35
1.62205E-01 2.19851E-35
1.65435E-01 1.88020E-35
1.68690E-01 1.48987E-35
1.71970E-01 1.09152E-35
1.75276E-01 7.34941E-36
1.78606E-01 4.50707E-36
1.81961E-01 2.50374E-36
1.85340E-01 1.29972E-36
1.88743E-01 7.51613E-37
1.92169E-01 6.66087E-37
1.95619E-01 8.45487E-37
1.99092E-01 1.12032E-36
2.02589E-01 1.36700E-36
2.06107E-01 1.51276E-36
2.09649E-01 1.53073E-36
2.13212E-01 1.42903E-36
2.16797E-01 1.23781E-36
2.20404E-01 9.96656E-37
2.24032E-01 7.44516E-37
2.27680E-01 5.12984E-37
2.31350E-01 3.22874E-37
2.35040E-01 1.83791E-37
2.38751E-01 9.56421E-38
2.42481E-01 5.13656E-38
2.46231E-01 3.99654E-38
2.50000E-01 4.93000E-38
2.53788E-01 6.81888E-38
2.57595E-01 8.78308E-38
2.61421E-01 1.02327E-37
2.65264E-01 1.08722E-37
2.69126E-01 1.06503E-37
2.73005E-01 9.69363E-38
2.76901E-01 8.23063E-38
2.80814E-01 6.52023E-38
2.84744E-01 4.80408E-38
2.88691E-01 3.26801E-38
2.92653E-01 1.00000E-45
2.96632E-01 1.00000E-45
3.00625E-01 1.00000E-45
3.04634E-01 1.00000E-45
3.08658E-01 1.00000E-45
3.12697E-01 1.00000E-45
3.16749E-01 1.00000E-45
3.20816E-01 1.00000E-45
3.24896E-01 1.00000E-45
3.28990E-01 1.00000E-45
3.33097E-01 1.00000E-45
3.37216E-01 1.00000E-45
3.41348E-01 1.00000E-45
3.45492E-01 1.00000E-45
3.49647E-01 1.00000E-45
3.53814E-01 1.00000E-45
3.57992E-01 1.00000E-45
3.62181E-01 1.00000E-45
3.66381E-01 1.00000E-45
3.70590E-01 1.00000E-45
3.74810E-01 1.00000E-45
3.79039E-01 1.00000E-45
3.83277E-01 1.00000E-45
3.87524E-01 1.00000E-45
3.91780E-01 1.00000E-45
3.96044E-01 1.00000E-45
4.00316E-01 1.00000E-45
4.04596E-01 1.00000E-45
4.08882E-01 1.00000E-45
4.13176E-01 1.00000E-45
4.17476E-01 1.00000E-45
4.21783E-01 1.00000E-45
4.26095E-01 1.00000E-45
4.30413E-01 1.00000E-45
4.34737E-01 1.00000E-45
4.39065E-01 1.00000E-45
4.43398E-01 1.00000E-45
4.47736E-01 1.00000E-45
4.52077E-01 1.00000E-45
4.56422E-01 1.00000E-45
4.60770E-01 1.00000E-45
4.65122E-01 1.00000E-45
4.69476E-01 1.00000E-45
4.73832E-01 1.00000E-45
4.78190E-01 1.00000E-45
4.82550E-01 1.00000E-45
4.86912E-01 1.00000E-45
4.91274E-01 1.00000E-45
4.95637E-01 1.00000E-45
5.00000E-01 1.00000E-45
5.04363E-01 1.00000E-45
5.08726E-01 1.00000E-45
5.13088E-01 1.00000E-45
5.17450E-01 1.00000E-45
5.21810E-01 1.00000E-45
5.26168E-01 1.00000E-45
5.30524E-01 1.00000E-45
5.34878E-01 1.00000E-45
5.39230E-01 1.00000E-45
5.43578E-01 1.00000E-45
5.47923E-01 1.00000E-45
5.52264E-01 1.00000E-45
5.56602E-01 1.00000E-45
5.60935E-01 1.00000E-45
5.65263E-01 1.00000E-45
5.69587E-01 1.00000E-45
5.73905E-01 1.00000E-45
5.78217E-01 1.00000E-45
5.82524E-01 1.00000E-45
5.86824E-01 1.00000E-45
5.91118E-01 1.00000E-45
5.95404E-01 1.00000E-45
5.99684E-01 1.00000E-45
6.03956E-01 1.00000E-45
6.08220E-01 1.00000E-45
6.12476E-01 1.00000E-45
6.16723E-01 1.00000E-45
6.20961E-01 1.00000E-45
6.25190E-01 1.00000E-45
6.29410E-01 1.00000E-45
6.33619E-01 1.00000E-45
6.37819E-01 1.00000E-45
6.42008E-01 1.00000E-45
6.46186E-01 1.00000E-45
6.50353E-01 1.00000E-45
6.54508E-01 1.00000E-45
6.58652E-01 1.00000E-45
6.62784E-01 1.00000E-45
6.66903E-01 1.00000E-45
6.71010E-01 1.00000E-45
6.75104E-01 1.00000E-45
6.79184E-01 1.00000E-45
6.83251E-01 1.00000E-45
6.87303E-01 1.00000E-45
6.91342E-01 1.00000E-45
6.95366E-01 1.00000E-45
6.99375E-01 1.00000E-45
7.03368E-01 1.00000E-45
7.07347E-01 1.00000E-45
7.11309E-01 1.00000E-45
7.15256E-01 1.00000E-45
7.19186E-01 1.00000E-45
7.23099E-01 1.00000E-45
7.26995E-01 1.00000E-45
7.30874E-01 1.00000E-45
7.34736E-01 1.00000E-45
7.38579E-01 1.00000E-45
7.42405E-01 1.00000E-45
7.46212E-01 1.00000E-45
7.50000E-01 1.00000E-45
7.53769E-01 1.00000E-45
7.57519E-01 1.00000E-45
7.61249E-01 1.00000E-45
7.64960E-01 1.00000E-45
7.68650E-01 1.00000E-45
7.72320E-01 1.00000E-45
7.75968E-01 1.00000E-45
7.79596E-01 1.00000E-45
7.83203E-01 1.00000E-45
7.86788E-01 1.00000E-45
7.90351E-01 1.00000E-45
7.93893E-01 1.00000E-45
7.97411E-01 1.00000E-45
8.00908E-01 1.00000E-45
8.04381E-01 1.00000E-45
8.07831E-01 1.00000E-45
8.11257E-01 1.00000E-45
8.14660E-01 1.00000E-45
8.18039E-01 1.00000E-45
8.21394E-01 1.00000E-45
8.24724E-01 1.00000E-45
8.28030E-01 1.00000E-45
8.31310E-01 1.00000E-45
8.34565E-01 1.00000E-45
8.37795E-01 1.00000E-45
8.40999E-01 1.00000E-45
8.44177E-01 1.00000E-45
8.47329E-01 1.00000E-45
8.50455E-01 1.00000E-45
8.53553E-01 1.00000E-45
8.56625E-01 1.00000E-45
8.59670E-01 1.00000E-45
8.62687E-01 1.00000E-45
8.65677E-01 1.00000E-45
8.68639E-01 1.00000E-45
8.71572E-01 1.00000E-45
8.74478E-01 1.00000E-45
8.77355E-01 1.00000E-45
8.80203E-01 1.00000E-45
8.83022E-01 1.00000E-45
8.85812E-01 1.00000E-45
8.88573E-01 1.00000E-45
8.91304E-01 1.00000E-45
8.94005E-01 1.00000E-45
8.96677E-01 1.00000E-45
8.99318E-01 1.00000E-45
9.01928E-01 1.00000E-45
9.04508E-01 1.00000E-45
9.07058E-01 1.00000E-45
9.09576E-01 1.00000E-45
9.12063E-01 1.00000E-45
9.14519E-01 1.00000E-45
9.16943E-01 1.00000E-45
9.19335E-01 1.00000E-45
9.21696E-01 1.00000E-45
9.24024E-01 1.00000E-45
9.26320E-01 1.00000E-45
9.28584E-01 1.00000E-45
9.30815E-01 1.00000E-45
9.33013E-01 1.00000E-45
9.35178E-01 1.00000E-45
9.37310E-01 1.00000E-45
9.39409E-01 1.00000E-45
9.41474E-01 1.00000E-45
9.43505E-01 1.00000E-45
9.45503E-01 1.00000E-45
9.47467E-01 1.00000E-45
9.49397E-01 1.00000E-45
9.51293E-01 1.00000E-45
9.53154E-01 1.00000E-45
9.54981E-01 1.00000E-45
9.56773E-01 1.00000E-45
9.58530E-01 1.00000E-45
9.60252E-01 1.00000E-45
9.61940E-01 1.00000E-45
9.63592E-01 1.00000E-45
9.65209E-01 1.00000E-45
9.66790E-01 1.00000E-45
9.68336E-01 1.00000E-45
9.69846E-01 1.00000E-45
9.71321E-01 1.00000E-45
9.72759E-01 1.00000E-45
9.74162E-01 1.00000E-45
9.75528E-01 1.00000E-45
9.76858E-01 1.00000E-45
9.78152E-01 1.00000E-45
9.79410E-01 1.00000E-45
9.80631E-01 1.00000E-45
9.81815E-01 1.00000E-45
9.82963E-01 1.00000E-45
9.84074E-01 1.00000E-45
9.85148E-01 1.00000E-45
9.86185E-01 1.00000E-45
9.87185E-01 1.00000E-45
9.88148E-01 1.00000E-45
9.89074E-01 1.00000E-45
9.89962E-01 1.00000E-45
9.90814E-01 1.00000E-45
9.91627E-01 1.00000E-45
9.92404E-01 1.00000E-45
9.93143E-01 1.00000E-45
9.93844E-01 1.00000E-45
9.94508E-01 1.00000E-45
9.95134E-01 1.00000E-45
9.95722E-01 1.00000E-45
9.96273E-01 1.00000E-45
9.96786E-01 1.00000E-45
9.97261E-01 1.00000E-45
9.97698E-01 1.00000E-45
9.98097E-01 1.00000E-45
9.98459E-01 1.00000E-45
9.98782E-01 1.00000E-45
9.99067E-01 1.00000E-45
9.99315E-01 1.00000E-45
9.99524E-01 1.00000E-45
9.99695E-01 1.00000E-45
9.99829E-01 1.00000E-45
9.99924E-01 1.00000E-45
9.99981E-01 1.00000E-45
1.00000E+00 1.00000E-45
