 #
 # Subroutine ELSEPA. Elastic scattering of electrons and positrons
 #                    by neutral atoms and positive ions
 #
 # Projectile: positron
 # Kinetic energy = 3.50000E+08 eV = 1.28623E+07 a.u.
 #
 # WARNING: High-energy factorization with free-atom DF screening.
 #          Absorption, polarization and exchange corrections are
 #          switched off.
 #          Phase shifts are calculated for the bare nucleus.
 #          Scattering amplitudes are not evaluated.
 #
 # Element: Po,  Z =  84,  atomic weight = 2.08982E+02 g/mol
 #
 # Nuclear model: Fermi distribution
 #                Average radius = 6.34971E-13 cm
 #                Skin thickness = 5.46000E-14 cm
 #
 # Number of electrons = 84
 #
 # Total elastic cross section = 9.14288E-18 cm**2 = 3.26498E-01 a0**2
 # 1st transport cross section = 1.06481E-25 cm**2 = 3.80251E-09 a0**2
 # 2nd transport cross section = 3.19177E-25 cm**2 = 1.13980E-08 a0**2
 #
 #
 # Differential cross section:                       MU=(1-COS(THETA))/2
 #
 #  THETA        MU          DCS          DCS        Sherman      error
 #  (deg)                 (cm**2/sr)   (a0**2/sr)    function
 #----------------------------------------------------------------------
0.00000E+00 7.98608E-09
7.61557E-13 7.78683E-09
1.18994E-12 7.67839E-09
1.71346E-12 7.54918E-09
2.33225E-12 7.40007E-09
3.04617E-12 7.23538E-09
3.85530E-12 7.05490E-09
4.75964E-12 6.86180E-09
5.75917E-12 6.66000E-09
6.85391E-12 6.44736E-09
8.04379E-12 6.22995E-09
9.32893E-12 6.00964E-09
1.07092E-11 5.78446E-09
1.21847E-11 5.56078E-09
1.37554E-11 5.33799E-09
1.54213E-11 5.11622E-09
1.71823E-11 4.89999E-09
1.90386E-11 4.68691E-09
2.09900E-11 4.47919E-09
2.30367E-11 4.27921E-09
2.51785E-11 4.08353E-09
2.74156E-11 3.89579E-09
2.97478E-11 3.71629E-09
3.21752E-11 3.54208E-09
3.46979E-11 3.37662E-09
3.73157E-11 3.21866E-09
4.00286E-11 3.06710E-09
4.28368E-11 2.92377E-09
4.57402E-11 2.78695E-09
4.87388E-11 2.65679E-09
5.18325E-11 2.53400E-09
5.50215E-11 2.41669E-09
5.83057E-11 2.30578E-09
6.16850E-11 2.20124E-09
6.51595E-11 2.10126E-09
6.87293E-11 2.00711E-09
7.23943E-11 1.91810E-09
7.61544E-11 1.83336E-09
1.18991E-10 1.19837E-09
1.71347E-10 8.18402E-10
2.33223E-10 5.72944E-10
3.04617E-10 4.20768E-10
3.85531E-10 3.12573E-10
4.75965E-10 2.37392E-10
5.75917E-10 1.84328E-10
6.85389E-10 1.44042E-10
8.04380E-10 1.14712E-10
9.32891E-10 9.26622E-11
1.07092E-09 7.54842E-11
1.21847E-09 6.23334E-11
1.37554E-09 5.19552E-11
1.54213E-09 4.36315E-11
1.71823E-09 3.69886E-11
1.90386E-09 3.15301E-11
2.09900E-09 2.70411E-11
2.30367E-09 2.33476E-11
2.51785E-09 2.02203E-11
2.74156E-09 1.76050E-11
2.97478E-09 1.54021E-11
3.21752E-09 1.35072E-11
3.46978E-09 1.19005E-11
3.73156E-09 1.05215E-11
4.00286E-09 9.32859E-12
4.28368E-09 8.30378E-12
4.57402E-09 7.41455E-12
4.87388E-09 6.63628E-12
5.18326E-09 5.95783E-12
5.50215E-09 5.36247E-12
5.83057E-09 4.84130E-12
6.16850E-09 4.38379E-12
6.51596E-09 3.97867E-12
6.87293E-09 3.62083E-12
7.23942E-09 3.30318E-12
7.61544E-09 3.01948E-12
1.18991E-08 1.36098E-12
1.71347E-08 7.03798E-13
2.33223E-08 3.99855E-13
3.04617E-08 2.43970E-13
3.85531E-08 1.57260E-13
4.75965E-08 1.05914E-13
5.75917E-08 7.38578E-14
6.85389E-08 5.30604E-14
8.04380E-08 3.90787E-14
9.32891E-08 2.94103E-14
1.07092E-07 2.25572E-14
1.21847E-07 1.75881E-14
1.37554E-07 1.39179E-14
1.54213E-07 1.11578E-14
1.71823E-07 9.05023E-15
1.90386E-07 7.41836E-15
2.09900E-07 6.13816E-15
2.30367E-07 5.12290E-15
2.51785E-07 4.30898E-15
2.74156E-07 3.65041E-15
2.97478E-07 3.11293E-15
3.21752E-07 2.67064E-15
3.46978E-07 2.30414E-15
3.73156E-07 1.99828E-15
4.00286E-07 1.74146E-15
4.28368E-07 1.52456E-15
4.57402E-07 1.34032E-15
4.87388E-07 1.18308E-15
5.18325E-07 1.04818E-15
5.50215E-07 9.31961E-16
5.83057E-07 8.31394E-16
6.16850E-07 7.44012E-16
6.51596E-07 6.67811E-16
6.87293E-07 6.01109E-16
7.23942E-07 5.42526E-16
7.61543E-07 4.90906E-16
1.18991E-06 2.03080E-16
1.71347E-06 9.85942E-17
2.33223E-06 5.34791E-17
3.04617E-06 3.14639E-17
3.85531E-06 1.96981E-17
4.75964E-06 1.29521E-17
5.75916E-06 8.86147E-18
6.85388E-06 6.26516E-18
8.04378E-06 4.55347E-18
9.32888E-06 3.38820E-18
1.07092E-05 2.57281E-18
1.21846E-05 1.98849E-18
1.37553E-05 1.56096E-18
1.54212E-05 1.24235E-18
1.71822E-05 1.00100E-18
1.90385E-05 8.14937E-19
2.09899E-05 6.71069E-19
2.30365E-05 5.57465E-19
2.51783E-05 4.66750E-19
2.74153E-05 3.93631E-19
2.97475E-05 3.34223E-19
3.21749E-05 2.85601E-19
3.46974E-05 2.45530E-19
3.73152E-05 2.12274E-19
4.00281E-05 1.84484E-19
4.28362E-05 1.61104E-19
4.57395E-05 1.41310E-19
4.87380E-05 1.24456E-19
5.18317E-05 1.10031E-19
5.50205E-05 9.76302E-20
5.83045E-05 8.69248E-20
6.16838E-05 7.76470E-20
6.51582E-05 6.95763E-20
6.87277E-05 6.25288E-20
7.23925E-05 5.63527E-20
7.61524E-05 5.12410E-20
9.21439E-05 3.50252E-20
1.09658E-04 2.47474E-20
1.28695E-04 1.79804E-20
1.49255E-04 1.33765E-20
1.71338E-04 1.01569E-20
1.94942E-04 7.85040E-21
2.20070E-04 6.16336E-21
2.46720E-04 4.90540E-21
2.74892E-04 3.95225E-21
3.04586E-04 3.21942E-21
3.35803E-04 2.64855E-21
3.68542E-04 2.19847E-21
4.02802E-04 1.83978E-21
4.38585E-04 1.55107E-21
4.75889E-04 1.31657E-21
5.14715E-04 1.12453E-21
5.55063E-04 9.66035E-22
5.96931E-04 8.34307E-22
6.40321E-04 7.24099E-22
6.85233E-04 6.31331E-22
7.31665E-04 5.52802E-22
7.79618E-04 4.85967E-22
8.29092E-04 4.28806E-22
8.80086E-04 3.79687E-22
9.32601E-04 3.37296E-22
9.86636E-04 3.00560E-22
1.04219E-03 2.68599E-22
1.09927E-03 2.40693E-22
1.15786E-03 2.16242E-22
1.21797E-03 1.94747E-22
1.27961E-03 1.75794E-22
1.34276E-03 1.59031E-22
1.40743E-03 1.44165E-22
1.47362E-03 1.30945E-22
1.54133E-03 1.19160E-22
1.61056E-03 1.08628E-22
1.68131E-03 9.91946E-23
1.75357E-03 9.07266E-23
1.82735E-03 8.31090E-23
1.90265E-03 7.62430E-23
1.97947E-03 7.00422E-23
2.05780E-03 6.44320E-23
2.13765E-03 5.93472E-23
2.21902E-03 5.47308E-23
2.30190E-03 5.05329E-23
2.38630E-03 4.67095E-23
2.47222E-03 4.32220E-23
2.55965E-03 4.00364E-23
2.64859E-03 3.71225E-23
2.73905E-03 3.44536E-23
2.83103E-03 3.20059E-23
2.92452E-03 2.97584E-23
3.01952E-03 2.76922E-23
3.11604E-03 2.57905E-23
3.21407E-03 2.40382E-23
3.31362E-03 2.24220E-23
3.41468E-03 2.09297E-23
3.51725E-03 1.95504E-23
3.62133E-03 1.82744E-23
3.72692E-03 1.70928E-23
3.83403E-03 1.59976E-23
3.94265E-03 1.49817E-23
4.05278E-03 1.40386E-23
4.16442E-03 1.31622E-23
4.27757E-03 1.23473E-23
4.39223E-03 1.15889E-23
4.50840E-03 1.08827E-23
4.62608E-03 1.02245E-23
4.74527E-03 9.61065E-24
4.86597E-03 9.03781E-24
4.98817E-03 8.50287E-24
5.11188E-03 8.00302E-24
5.23711E-03 7.53566E-24
5.36383E-03 7.09844E-24
5.49207E-03 6.68917E-24
5.62181E-03 6.30584E-24
5.75306E-03 5.94663E-24
5.88581E-03 5.60984E-24
6.02007E-03 5.29391E-24
6.15583E-03 4.99741E-24
6.29310E-03 4.71900E-24
6.43187E-03 4.45745E-24
6.57214E-03 4.21165E-24
6.71392E-03 3.98054E-24
6.85720E-03 3.76314E-24
7.00198E-03 3.55857E-24
7.14827E-03 3.36598E-24
7.29605E-03 3.18461E-24
7.44534E-03 3.01374E-24
7.59612E-03 2.85270E-24
7.97965E-03 2.48915E-24
8.37255E-03 2.17474E-24
8.77480E-03 1.90228E-24
9.18641E-03 1.66576E-24
9.60736E-03 1.46009E-24
1.00376E-02 1.28096E-24
1.04773E-02 1.12473E-24
1.09262E-02 9.88289E-25
1.13844E-02 8.68983E-25
1.18520E-02 7.64544E-25
1.23288E-02 6.73024E-25
1.28150E-02 5.92749E-25
1.33104E-02 5.22277E-25
1.38150E-02 4.60361E-25
1.43290E-02 4.05924E-25
1.48521E-02 3.58032E-25
1.53845E-02 3.15873E-25
1.59262E-02 2.78742E-25
1.64770E-02 2.46025E-25
1.70371E-02 2.17186E-25
1.76063E-02 1.91756E-25
1.81848E-02 1.69325E-25
1.87724E-02 1.49536E-25
1.93692E-02 1.32073E-25
1.99751E-02 1.16661E-25
2.05901E-02 1.03057E-25
2.12143E-02 9.10487E-26
2.18476E-02 8.04479E-26
2.24900E-02 7.10897E-26
2.31415E-02 6.28287E-26
2.38021E-02 5.55364E-26
2.44717E-02 4.90998E-26
2.51504E-02 4.34189E-26
2.58382E-02 3.84055E-26
2.65349E-02 3.39816E-26
2.72407E-02 3.00784E-26
2.79555E-02 2.66350E-26
2.86793E-02 2.35976E-26
2.94120E-02 2.09187E-26
3.01537E-02 1.85561E-26
3.09043E-02 1.64727E-26
3.16639E-02 1.46355E-26
3.24324E-02 1.30155E-26
3.32098E-02 1.15869E-26
3.39961E-02 1.03271E-26
3.47912E-02 9.21589E-27
3.55952E-02 8.23558E-27
3.64081E-02 7.37050E-27
3.72297E-02 6.60679E-27
3.80602E-02 5.93225E-27
3.88995E-02 5.33611E-27
3.97476E-02 4.80887E-27
4.06044E-02 4.34217E-27
4.14700E-02 3.92863E-27
4.23443E-02 3.56178E-27
4.32273E-02 3.23590E-27
4.41190E-02 2.94599E-27
4.50194E-02 2.68765E-27
4.59284E-02 2.45702E-27
4.68461E-02 2.25071E-27
4.87074E-02 1.89956E-27
5.06030E-02 1.61465E-27
5.25328E-02 1.38105E-27
5.44967E-02 1.18740E-27
5.64946E-02 1.02507E-27
5.85262E-02 8.87529E-28
6.05914E-02 7.69831E-28
6.26901E-02 6.68241E-28
6.48222E-02 5.79928E-28
6.69873E-02 5.02731E-28
6.91854E-02 4.34990E-28
7.14163E-02 3.75412E-28
7.36799E-02 3.22970E-28
7.59760E-02 2.76832E-28
7.83043E-02 2.36308E-28
8.06647E-02 2.00808E-28
8.30571E-02 1.69820E-28
8.54812E-02 1.42883E-28
8.79369E-02 1.19584E-28
9.04240E-02 9.95417E-29
9.29422E-02 8.24036E-29
9.54915E-02 6.78439E-29
9.80716E-02 5.55607E-29
1.00682E-01 4.52745E-29
1.03323E-01 3.67283E-29
1.05995E-01 2.96868E-29
1.08696E-01 2.39362E-29
1.11427E-01 1.92833E-29
1.14188E-01 1.55555E-29
1.16978E-01 1.25995E-29
1.19797E-01 1.02803E-29
1.22645E-01 8.48058E-30
1.25522E-01 7.09908E-30
1.28428E-01 6.04943E-30
1.31361E-01 5.25877E-30
1.34323E-01 4.66646E-30
1.37313E-01 4.22266E-30
1.40330E-01 3.88706E-30
1.43375E-01 3.62761E-30
1.46447E-01 3.41935E-30
1.49545E-01 3.24334E-30
1.52671E-01 3.08562E-30
1.55823E-01 2.93634E-30
1.59001E-01 2.78895E-30
1.62205E-01 2.63953E-30
1.65435E-01 2.48613E-30
1.68690E-01 2.32832E-30
1.71970E-01 2.16670E-30
1.75276E-01 2.00258E-30
1.78606E-01 1.83770E-30
1.81961E-01 1.67396E-30
1.85340E-01 1.51330E-30
1.88743E-01 1.35754E-30
1.92169E-01 1.20833E-30
1.95619E-01 1.06702E-30
1.99092E-01 9.34723E-31
2.02589E-01 8.12238E-31
2.06107E-01 7.00082E-31
2.09649E-01 5.98507E-31
2.13212E-01 5.07522E-31
2.16797E-01 4.26924E-31
2.20404E-01 3.56337E-31
2.24032E-01 2.95238E-31
2.27680E-01 2.42997E-31
2.31350E-01 1.98906E-31
2.35040E-01 1.62208E-31
2.38751E-01 1.32123E-31
2.42481E-01 1.07870E-31
2.46231E-01 8.86853E-32
2.50000E-01 7.38376E-32
2.53788E-01 6.26397E-32
2.57595E-01 5.44568E-32
2.61421E-01 4.87123E-32
2.65264E-01 4.48909E-32
2.69126E-01 4.25395E-32
2.73005E-01 4.12665E-32
2.76901E-01 4.07400E-32
2.80814E-01 4.06837E-32
2.84744E-01 4.08737E-32
2.88691E-01 4.11331E-32
2.92653E-01 4.13273E-32
2.96632E-01 4.13589E-32
3.00625E-01 4.11623E-32
3.04634E-01 4.06989E-32
3.08658E-01 3.99526E-32
3.12697E-01 3.89247E-32
3.16749E-01 3.76310E-32
3.20816E-01 3.60971E-32
3.24896E-01 3.43561E-32
3.28990E-01 3.24455E-32
3.33097E-01 3.04049E-32
3.37216E-01 2.82743E-32
3.41348E-01 2.60925E-32
3.45492E-01 2.38962E-32
3.49647E-01 2.17185E-32
3.53814E-01 1.95890E-32
3.57992E-01 1.75332E-32
3.62181E-01 1.55721E-32
3.66381E-01 1.37226E-32
3.70590E-01 1.19974E-32
3.74810E-01 1.04054E-32
3.79039E-01 8.95187E-33
3.83277E-01 7.63874E-33
3.87524E-01 6.46524E-33
3.91780E-01 5.42816E-33
3.96044E-01 4.52227E-33
4.00316E-01 3.74072E-33
4.04596E-01 3.07543E-33
4.08882E-01 2.51741E-33
4.13176E-01 2.05711E-33
4.17476E-01 1.68467E-33
4.21783E-01 1.39018E-33
4.26095E-01 1.16389E-33
4.30413E-01 9.96350E-34
4.34737E-01 8.78610E-34
4.39065E-01 8.02272E-34
4.43398E-01 7.59589E-34
4.47736E-01 7.43512E-34
4.52077E-01 7.47723E-34
4.56422E-01 7.66637E-34
4.60770E-01 7.95400E-34
4.65122E-01 8.29857E-34
4.69476E-01 8.66532E-34
4.73832E-01 9.02571E-34
4.78190E-01 9.35705E-34
4.82550E-01 9.64192E-34
4.86912E-01 9.86760E-34
4.91274E-01 1.00256E-33
4.95637E-01 1.01110E-33
5.00000E-01 1.01220E-33
5.04363E-01 1.00594E-33
5.08726E-01 9.92605E-34
5.13088E-01 9.72649E-34
5.17450E-01 9.46653E-34
5.21810E-01 9.15284E-34
5.26168E-01 8.79274E-34
5.30524E-01 8.39380E-34
5.34878E-01 7.96367E-34
5.39230E-01 7.50993E-34
5.43578E-01 7.03979E-34
5.47923E-01 6.56013E-34
5.52264E-01 6.07726E-34
5.56602E-01 5.59696E-34
5.60935E-01 5.12434E-34
5.65263E-01 4.66390E-34
5.69587E-01 4.21949E-34
5.73905E-01 3.79427E-34
5.78217E-01 3.39083E-34
5.82524E-01 3.01115E-34
5.86824E-01 2.65664E-34
5.91118E-01 2.32821E-34
5.95404E-01 2.02633E-34
5.99684E-01 1.75103E-34
6.03956E-01 1.50199E-34
6.08220E-01 1.27860E-34
6.12476E-01 1.07995E-34
6.16723E-01 9.04948E-35
6.20961E-01 7.52327E-35
6.25190E-01 6.20684E-35
6.29410E-01 5.08523E-35
6.33619E-01 4.14302E-35
6.37819E-01 3.36439E-35
6.42008E-01 2.73365E-35
6.46186E-01 2.23522E-35
6.50353E-01 1.85406E-35
6.54508E-01 1.57556E-35
6.58652E-01 1.38593E-35
6.62784E-01 1.27215E-35
6.66903E-01 1.22206E-35
6.71010E-01 1.22445E-35
6.75104E-01 1.26907E-35
6.79184E-01 1.34660E-35
6.83251E-01 1.44872E-35
6.87303E-01 1.56802E-35
6.91342E-01 1.69801E-35
6.95366E-01 1.83310E-35
6.99375E-01 1.96843E-35
7.03368E-01 2.10000E-35
7.07347E-01 2.22450E-35
7.11309E-01 2.33927E-35
7.15256E-01 2.44224E-35
7.19186E-01 2.53186E-35
7.23099E-01 2.60711E-35
7.26995E-01 2.66735E-35
7.30874E-01 2.71229E-35
7.34736E-01 2.74200E-35
7.38579E-01 2.75682E-35
7.42405E-01 2.75726E-35
7.46212E-01 2.74404E-35
7.50000E-01 2.71801E-35
7.53769E-01 2.68015E-35
7.57519E-01 2.63150E-35
7.61249E-01 2.57313E-35
7.64960E-01 2.50617E-35
7.68650E-01 2.43174E-35
7.72320E-01 2.35094E-35
7.75968E-01 2.26483E-35
7.79596E-01 2.17446E-35
7.83203E-01 2.08084E-35
7.86788E-01 1.98484E-35
7.90351E-01 1.88738E-35
7.93893E-01 1.78923E-35
7.97411E-01 1.69112E-35
8.00908E-01 1.59370E-35
8.04381E-01 1.49756E-35
8.07831E-01 1.40323E-35
8.11257E-01 1.31116E-35
8.14660E-01 1.22172E-35
8.18039E-01 1.13523E-35
8.21394E-01 1.05198E-35
8.24724E-01 9.72169E-36
8.28030E-01 8.95944E-36
8.31310E-01 8.23438E-36
8.34565E-01 7.54712E-36
8.37795E-01 6.89802E-36
8.40999E-01 6.28715E-36
8.44177E-01 5.71401E-36
8.47329E-01 5.17831E-36
8.50455E-01 4.67910E-36
8.53553E-01 4.21538E-36
8.56625E-01 3.78609E-36
8.59670E-01 3.38999E-36
8.62687E-01 3.02554E-36
8.65677E-01 2.69147E-36
8.68639E-01 2.38608E-36
8.71572E-01 2.10811E-36
8.74478E-01 1.85567E-36
8.77355E-01 1.62744E-36
8.80203E-01 1.42166E-36
8.83022E-01 1.23702E-36
8.85812E-01 1.07184E-36
8.88573E-01 9.24746E-37
8.91304E-01 7.94278E-37
8.94005E-01 6.79108E-37
8.96677E-01 5.77963E-37
8.99318E-01 4.89562E-37
9.01928E-01 4.12754E-37
9.04508E-01 3.46433E-37
9.07058E-01 2.89590E-37
9.09576E-01 2.41216E-37
9.12063E-01 2.00424E-37
9.14519E-01 1.66377E-37
9.16943E-01 1.38283E-37
9.19335E-01 1.15437E-37
9.21696E-01 9.71716E-38
9.24024E-01 8.29028E-38
9.26320E-01 7.20615E-38
9.28584E-01 6.41611E-38
9.30815E-01 5.87525E-38
9.33013E-01 5.54288E-38
9.35178E-01 5.38325E-38
9.37310E-01 5.36319E-38
9.39409E-01 5.45570E-38
9.41474E-01 5.63344E-38
9.43505E-01 5.87650E-38
9.45503E-01 6.16379E-38
9.47467E-01 6.47975E-38
9.49397E-01 6.80981E-38
9.51293E-01 7.14210E-38
9.53154E-01 7.46589E-38
9.54981E-01 7.77316E-38
9.56773E-01 8.05865E-38
9.58530E-01 8.31272E-38
9.60252E-01 8.53593E-38
9.61940E-01 8.72375E-38
9.63592E-01 8.87188E-38
9.65209E-01 8.98226E-38
9.66790E-01 9.05345E-38
9.68336E-01 9.08460E-38
9.69846E-01 9.07663E-38
9.71321E-01 9.03273E-38
9.72759E-01 8.95072E-38
9.74162E-01 8.83247E-38
9.75528E-01 8.68497E-38
9.76858E-01 8.50572E-38
9.78152E-01 8.29808E-38
9.79410E-01 8.06528E-38
9.80631E-01 7.81114E-38
9.81815E-01 7.53489E-38
9.82963E-01 7.24256E-38
9.84074E-01 6.93289E-38
9.85148E-01 6.61228E-38
9.86185E-01 6.28040E-38
9.87185E-01 5.94290E-38
9.88148E-01 5.59770E-38
9.89074E-01 5.25151E-38
9.89962E-01 4.90191E-38
9.90814E-01 4.55355E-38
9.91627E-01 4.20933E-38
9.92404E-01 3.86964E-38
9.93143E-01 3.53622E-38
9.93844E-01 3.21016E-38
9.94508E-01 2.89522E-38
9.95134E-01 2.59056E-38
9.95722E-01 2.29847E-38
9.96273E-01 2.01812E-38
9.96786E-01 1.75499E-38
9.97261E-01 1.50460E-38
9.97698E-01 1.27265E-38
9.98097E-01 1.05921E-38
9.98459E-01 8.61938E-39
9.98782E-01 6.84704E-39
9.99067E-01 5.25826E-39
9.99315E-01 3.88598E-39
9.99524E-01 2.70780E-39
9.99695E-01 1.73867E-39
9.99829E-01 9.87336E-40
9.99924E-01 4.46538E-40
9.99981E-01 1.21986E-40
1.00000E+00 1.43228E-41
