 #
 # Subroutine ELSEPA. Elastic scattering of electrons and positrons
 #                    by neutral atoms and positive ions
 #
 # Projectile: positron
 # Kinetic energy = 4.00000E+08 eV = 1.46997E+07 a.u.
 #
 # WARNING: High-energy factorization with free-atom DF screening.
 #          Absorption, polarization and exchange corrections are
 #          switched off.
 #          Phase shifts are calculated for the bare nucleus.
 #          Scattering amplitudes are not evaluated.
 #
 # Element: Po,  Z =  84,  atomic weight = 2.08982E+02 g/mol
 #
 # Nuclear model: Fermi distribution
 #                Average radius = 6.34971E-13 cm
 #                Skin thickness = 5.46000E-14 cm
 #
 # Number of electrons = 84
 #
 # Total elastic cross section = 9.14188E-18 cm**2 = 3.26463E-01 a0**2
 # 1st transport cross section = 8.16233E-26 cm**2 = 2.91482E-09 a0**2
 # 2nd transport cross section = 2.44714E-25 cm**2 = 8.73890E-09 a0**2
 #
 #
 # Differential cross section:                       MU=(1-COS(THETA))/2
 #
 #  THETA        MU          DCS          DCS        Sherman      error
 #  (deg)                 (cm**2/sr)   (a0**2/sr)    function
 #----------------------------------------------------------------------
0.00000E+00 1.04270E-08
7.61557E-13 1.00895E-08
1.18994E-12 9.90757E-09
1.71346E-12 9.69127E-09
2.33225E-12 9.44718E-09
3.04617E-12 9.17697E-09
3.85530E-12 8.88501E-09
4.75964E-12 8.57747E-09
5.75917E-12 8.25899E-09
6.85391E-12 7.92895E-09
8.04379E-12 7.59500E-09
9.32893E-12 7.26127E-09
1.07092E-11 6.92974E-09
1.21847E-11 6.59968E-09
1.37554E-11 6.27768E-09
1.54213E-11 5.96540E-09
1.71823E-11 5.66186E-09
1.90386E-11 5.36823E-09
2.09900E-11 5.08758E-09
2.30367E-11 4.82016E-09
2.51785E-11 4.56338E-09
2.74156E-11 4.31958E-09
2.97478E-11 4.08921E-09
3.21752E-11 3.87164E-09
3.46979E-11 3.66450E-09
3.73157E-11 3.46980E-09
4.00286E-11 3.28690E-09
4.28368E-11 3.11447E-09
4.57402E-11 2.95173E-09
4.87388E-11 2.79918E-09
5.18325E-11 2.65618E-09
5.50215E-11 2.52127E-09
5.83057E-11 2.39451E-09
6.16850E-11 2.27571E-09
6.51595E-11 2.16432E-09
6.87293E-11 2.05898E-09
7.23943E-11 1.96017E-09
7.61544E-11 1.86745E-09
1.18991E-10 1.18708E-09
1.71347E-10 7.85119E-10
2.33223E-10 5.49634E-10
3.04617E-10 3.92857E-10
3.85531E-10 2.87519E-10
4.75965E-10 2.15838E-10
5.75917E-10 1.65404E-10
6.85389E-10 1.28365E-10
8.04380E-10 1.01437E-10
9.32891E-10 8.14307E-11
1.07092E-09 6.62111E-11
1.21847E-09 5.43287E-11
1.37554E-09 4.50630E-11
1.54213E-09 3.77243E-11
1.71823E-09 3.17903E-11
1.90386E-09 2.69505E-11
2.09900E-09 2.29998E-11
2.30367E-09 1.97441E-11
2.51785E-09 1.70160E-11
2.74156E-09 1.47378E-11
2.97478E-09 1.28275E-11
3.21752E-09 1.12144E-11
3.46978E-09 9.84216E-12
3.73156E-09 8.67023E-12
4.00286E-09 7.66588E-12
4.28368E-09 6.80311E-12
4.57402E-09 6.05915E-12
4.87388E-09 5.41658E-12
5.18326E-09 4.85898E-12
5.50215E-09 4.37180E-12
5.83057E-09 3.94495E-12
6.16850E-09 3.56989E-12
6.51596E-09 3.23906E-12
6.87293E-09 2.94517E-12
7.23942E-09 2.68434E-12
7.61544E-09 2.45217E-12
1.18991E-08 1.09805E-12
1.71347E-08 5.63783E-13
2.33223E-08 3.18759E-13
3.04617E-08 1.93704E-13
3.85531E-08 1.24404E-13
4.75965E-08 8.34738E-14
5.75917E-08 5.80510E-14
6.85389E-08 4.15961E-14
8.04380E-08 3.05778E-14
9.32891E-08 2.29809E-14
1.07092E-07 1.76062E-14
1.21847E-07 1.37171E-14
1.37554E-07 1.08463E-14
1.54213E-07 8.68908E-15
1.71823E-07 7.04274E-15
1.90386E-07 5.76853E-15
2.09900E-07 4.76979E-15
2.30367E-07 3.97799E-15
2.51785E-07 3.34369E-15
2.74156E-07 2.83071E-15
2.97478E-07 2.41230E-15
3.21752E-07 2.06832E-15
3.46978E-07 1.78344E-15
3.73156E-07 1.54590E-15
4.00286E-07 1.34656E-15
4.28368E-07 1.17830E-15
4.57402E-07 1.03549E-15
4.87388E-07 9.13658E-16
5.18325E-07 8.09214E-16
5.50215E-07 7.19268E-16
5.83057E-07 6.41470E-16
6.16850E-07 5.73906E-16
6.51596E-07 5.15006E-16
6.87293E-07 4.63470E-16
7.23942E-07 4.18222E-16
7.61543E-07 3.78363E-16
1.18991E-06 1.56340E-16
1.71347E-06 7.58482E-17
2.33223E-06 4.11180E-17
3.04617E-06 2.41795E-17
3.85531E-06 1.51312E-17
4.75964E-06 9.94554E-18
5.75916E-06 6.80236E-18
6.85388E-06 4.80806E-18
8.04378E-06 3.49367E-18
9.32888E-06 2.59910E-18
1.07092E-05 1.97328E-18
1.21846E-05 1.52491E-18
1.37553E-05 1.19690E-18
1.54212E-05 9.52494E-19
1.71822E-05 7.67379E-19
1.90385E-05 6.24692E-19
2.09899E-05 5.14371E-19
2.30365E-05 4.27267E-19
2.51783E-05 3.57718E-19
2.74153E-05 3.01664E-19
2.97475E-05 2.56123E-19
3.21749E-05 2.18854E-19
3.46974E-05 1.88141E-19
3.73152E-05 1.62653E-19
4.00281E-05 1.41355E-19
4.28362E-05 1.23437E-19
4.57395E-05 1.08268E-19
4.87380E-05 9.53529E-20
5.18317E-05 8.42995E-20
5.50205E-05 7.47973E-20
5.83045E-05 6.65942E-20
6.16838E-05 5.94855E-20
6.51582E-05 5.33019E-20
6.87277E-05 4.79022E-20
7.23925E-05 4.31701E-20
7.61524E-05 3.93360E-20
9.21439E-05 2.68937E-20
1.09658E-04 1.90058E-20
1.28695E-04 1.38111E-20
1.49255E-04 1.02761E-20
1.71338E-04 7.80412E-21
1.94942E-04 6.03144E-21
2.20070E-04 4.73429E-21
2.46720E-04 3.76739E-21
2.74892E-04 3.03475E-21
3.04586E-04 2.47137E-21
3.35803E-04 2.03244E-21
3.68542E-04 1.68635E-21
4.02802E-04 1.41051E-21
4.38585E-04 1.18848E-21
4.75889E-04 1.00815E-21
5.14715E-04 8.60474E-22
5.55063E-04 7.38606E-22
5.96931E-04 6.37333E-22
6.40321E-04 5.52620E-22
6.85233E-04 4.81329E-22
7.31665E-04 4.20997E-22
7.79618E-04 3.69665E-22
8.29092E-04 3.25779E-22
8.80086E-04 2.88083E-22
9.32601E-04 2.55565E-22
9.86636E-04 2.27399E-22
1.04219E-03 2.02909E-22
1.09927E-03 1.81538E-22
1.15786E-03 1.62825E-22
1.21797E-03 1.46387E-22
1.27961E-03 1.31903E-22
1.34276E-03 1.19103E-22
1.40743E-03 1.07761E-22
1.47362E-03 9.76841E-23
1.54133E-03 8.87095E-23
1.61056E-03 8.06974E-23
1.68131E-03 7.35285E-23
1.75357E-03 6.71003E-23
1.82735E-03 6.13244E-23
1.90265E-03 5.61246E-23
1.97947E-03 5.14345E-23
2.05780E-03 4.71967E-23
2.13765E-03 4.33610E-23
2.21902E-03 3.98835E-23
2.30190E-03 3.67258E-23
2.38630E-03 3.38542E-23
2.47222E-03 3.12391E-23
2.55965E-03 2.88541E-23
2.64859E-03 2.66762E-23
2.73905E-03 2.46848E-23
2.83103E-03 2.28617E-23
2.92452E-03 2.11907E-23
3.01952E-03 1.96574E-23
3.11604E-03 1.82489E-23
3.21407E-03 1.69536E-23
3.31362E-03 1.57613E-23
3.41468E-03 1.46628E-23
3.51725E-03 1.36495E-23
3.62133E-03 1.27142E-23
3.72692E-03 1.18501E-23
3.83403E-03 1.10510E-23
3.94265E-03 1.03114E-23
4.05278E-03 9.62646E-24
4.16442E-03 8.99158E-24
4.27757E-03 8.40269E-24
4.39223E-03 7.85606E-24
4.50840E-03 7.34831E-24
4.62608E-03 6.87637E-24
4.74527E-03 6.43744E-24
4.86597E-03 6.02896E-24
4.98817E-03 5.64858E-24
5.11188E-03 5.29417E-24
5.23711E-03 4.96377E-24
5.36383E-03 4.65560E-24
5.49207E-03 4.36801E-24
5.62181E-03 4.09948E-24
5.75306E-03 3.84864E-24
5.88581E-03 3.61421E-24
6.02007E-03 3.39502E-24
6.15583E-03 3.18999E-24
6.29310E-03 2.99812E-24
6.43187E-03 2.81849E-24
6.57214E-03 2.65026E-24
6.71392E-03 2.49265E-24
6.85720E-03 2.34493E-24
7.00198E-03 2.20643E-24
7.14827E-03 2.07653E-24
7.29605E-03 1.95466E-24
7.44534E-03 1.84028E-24
7.59612E-03 1.73290E-24
7.97965E-03 1.49217E-24
8.37255E-03 1.28610E-24
8.77480E-03 1.10942E-24
9.18641E-03 9.57731E-25
9.60736E-03 8.27325E-25
1.00376E-02 7.15087E-25
1.04773E-02 6.18384E-25
1.09262E-02 5.34990E-25
1.13844E-02 4.63014E-25
1.18520E-02 4.00847E-25
1.23288E-02 3.47120E-25
1.28150E-02 3.00661E-25
1.33104E-02 2.60470E-25
1.38150E-02 2.25688E-25
1.43290E-02 1.95578E-25
1.48521E-02 1.69506E-25
1.53845E-02 1.46928E-25
1.59262E-02 1.27373E-25
1.64770E-02 1.10435E-25
1.70371E-02 9.57645E-26
1.76063E-02 8.30584E-26
1.81848E-02 7.20544E-26
1.87724E-02 6.25258E-26
1.93692E-02 5.42758E-26
1.99751E-02 4.71340E-26
2.05901E-02 4.09526E-26
2.12143E-02 3.56035E-26
2.18476E-02 3.09753E-26
2.24900E-02 2.69714E-26
2.31415E-02 2.35082E-26
2.38021E-02 2.05128E-26
2.44717E-02 1.79221E-26
2.51504E-02 1.56814E-26
2.58382E-02 1.37431E-26
2.65349E-02 1.20661E-26
2.72407E-02 1.06146E-26
2.79555E-02 9.35775E-27
2.86793E-02 8.26868E-27
2.94120E-02 7.32424E-27
3.01537E-02 6.50437E-27
3.09043E-02 5.79177E-27
3.16639E-02 5.17148E-27
3.24324E-02 4.63060E-27
3.32098E-02 4.15802E-27
3.39961E-02 3.74418E-27
3.47912E-02 3.38084E-27
3.55952E-02 3.06095E-27
3.64081E-02 2.77845E-27
3.72297E-02 2.52814E-27
3.80602E-02 2.30558E-27
3.88995E-02 2.10698E-27
3.97476E-02 1.92908E-27
4.06044E-02 1.76913E-27
4.14700E-02 1.62476E-27
4.23443E-02 1.49397E-27
4.32273E-02 1.37506E-27
4.41190E-02 1.26656E-27
4.50194E-02 1.16726E-27
4.59284E-02 1.07609E-27
4.68461E-02 9.92171E-28
4.87074E-02 8.43148E-28
5.06030E-02 7.15346E-28
5.25328E-02 6.05199E-28
5.44967E-02 5.10035E-28
5.64946E-02 4.27796E-28
5.85262E-02 3.56851E-28
6.05914E-02 2.95855E-28
6.26901E-02 2.43663E-28
6.48222E-02 1.99271E-28
6.69873E-02 1.61775E-28
6.91854E-02 1.30352E-28
7.14163E-02 1.04246E-28
7.36799E-02 8.27615E-29
7.59760E-02 6.52589E-29
7.83043E-02 5.11552E-29
8.06647E-02 3.99224E-29
8.30571E-02 3.10870E-29
8.54812E-02 2.42291E-29
8.79369E-02 1.89804E-29
9.04240E-02 1.50221E-29
9.29422E-02 1.20817E-29
9.54915E-02 9.92968E-30
9.80716E-02 8.37547E-30
1.00682E-01 7.26350E-30
1.03323E-01 6.46912E-30
1.05995E-01 5.89442E-30
1.08696E-01 5.46440E-30
1.11427E-01 5.12320E-30
1.14188E-01 4.83080E-30
1.16978E-01 4.55986E-30
1.19797E-01 4.29308E-30
1.22645E-01 4.02081E-30
1.25522E-01 3.73904E-30
1.28428E-01 3.44777E-30
1.31361E-01 3.14960E-30
1.34323E-01 2.84867E-30
1.37313E-01 2.54985E-30
1.40330E-01 2.25805E-30
1.43375E-01 1.97788E-30
1.46447E-01 1.71328E-30
1.49545E-01 1.46738E-30
1.52671E-01 1.24248E-30
1.55823E-01 1.03999E-30
1.59001E-01 8.60496E-31
1.62205E-01 7.03896E-31
1.65435E-01 5.69462E-31
1.68690E-01 4.55980E-31
1.71970E-01 3.61870E-31
1.75276E-01 2.85301E-31
1.78606E-01 2.24293E-31
1.81961E-01 1.76811E-31
1.85340E-01 1.40841E-31
1.88743E-01 1.14449E-31
1.92169E-01 9.58348E-32
1.95619E-01 8.33572E-32
1.99092E-01 7.55600E-32
2.02589E-01 7.11805E-32
2.06107E-01 6.91508E-32
2.09649E-01 6.85922E-32
2.13212E-01 6.88033E-32
2.16797E-01 6.92453E-32
2.20404E-01 6.95235E-32
2.24032E-01 6.93683E-32
2.27680E-01 6.86154E-32
2.31350E-01 6.71870E-32
2.35040E-01 6.50731E-32
2.38751E-01 6.23153E-32
2.42481E-01 5.89919E-32
2.46231E-01 5.52049E-32
2.50000E-01 5.10691E-32
2.53788E-01 4.67035E-32
2.57595E-01 4.22242E-32
2.61421E-01 3.77391E-32
2.65264E-01 3.33440E-32
2.69126E-01 2.91210E-32
2.73005E-01 2.51364E-32
2.76901E-01 2.14411E-32
2.80814E-01 1.80708E-32
2.84744E-01 1.50470E-32
2.88691E-01 1.23787E-32
2.92653E-01 1.00638E-32
2.96632E-01 8.09105E-33
3.00625E-01 6.44184E-33
3.04634E-01 5.09202E-33
3.08658E-01 4.01355E-33
3.12697E-01 3.17601E-33
3.16749E-01 2.54793E-33
3.20816E-01 2.09794E-33
3.24896E-01 1.79569E-33
3.28990E-01 1.61257E-33
3.33097E-01 1.52227E-33
3.37216E-01 1.50114E-33
3.41348E-01 1.52841E-33
3.45492E-01 1.58626E-33
3.49647E-01 1.65985E-33
3.53814E-01 1.73714E-33
3.57992E-01 1.80876E-33
3.62181E-01 1.86774E-33
3.66381E-01 1.90930E-33
3.70590E-01 1.93050E-33
3.74810E-01 1.93002E-33
3.79039E-01 1.90782E-33
3.83277E-01 1.86492E-33
3.87524E-01 1.80312E-33
3.91780E-01 1.72477E-33
3.96044E-01 1.63259E-33
4.00316E-01 1.52949E-33
4.04596E-01 1.41840E-33
4.08882E-01 1.30220E-33
4.13176E-01 1.18359E-33
4.17476E-01 1.06503E-33
4.21783E-01 9.48690E-34
4.26095E-01 8.36429E-34
4.30413E-01 7.29781E-34
4.34737E-01 6.29952E-34
4.39065E-01 5.37833E-34
4.43398E-01 4.54019E-34
4.47736E-01 3.78835E-34
4.52077E-01 3.12369E-34
4.56422E-01 2.54501E-34
4.60770E-01 2.04936E-34
4.65122E-01 1.63240E-34
4.69476E-01 1.28873E-34
4.73832E-01 1.01215E-34
4.78190E-01 7.95927E-35
4.82550E-01 6.33102E-35
4.86912E-01 5.16631E-35
4.91274E-01 4.39611E-35
4.95637E-01 3.95402E-35
5.00000E-01 3.77756E-35
5.04363E-01 3.80898E-35
5.08726E-01 3.99588E-35
5.13088E-01 4.29163E-35
5.17450E-01 4.65551E-35
5.21810E-01 5.05270E-35
5.26168E-01 5.45412E-35
5.30524E-01 5.83617E-35
5.34878E-01 6.18040E-35
5.39230E-01 6.47297E-35
5.43578E-01 6.70435E-35
5.47923E-01 6.86862E-35
5.52264E-01 6.96318E-35
5.56602E-01 6.98808E-35
5.60935E-01 6.94560E-35
5.65263E-01 6.83983E-35
5.69587E-01 6.67618E-35
5.73905E-01 6.46112E-35
5.78217E-01 6.20161E-35
5.82524E-01 5.90511E-35
5.86824E-01 5.57904E-35
5.91118E-01 5.23081E-35
5.95404E-01 4.86739E-35
5.99684E-01 4.49541E-35
6.03956E-01 4.12093E-35
6.08220E-01 3.74937E-35
6.12476E-01 3.38558E-35
6.16723E-01 3.03361E-35
6.20961E-01 2.69689E-35
6.25190E-01 2.37817E-35
6.29410E-01 2.07963E-35
6.33619E-01 1.80274E-35
6.37819E-01 1.54853E-35
6.42008E-01 1.31747E-35
6.46186E-01 1.10963E-35
6.50353E-01 9.24628E-36
6.54508E-01 7.61861E-36
6.58652E-01 6.20381E-36
6.62784E-01 4.99044E-36
6.66903E-01 3.96564E-36
6.71010E-01 3.11508E-36
6.75104E-01 2.42382E-36
6.79184E-01 1.87643E-36
6.83251E-01 1.45747E-36
6.87303E-01 1.15168E-36
6.91342E-01 9.44204E-37
6.95366E-01 8.20886E-37
6.99375E-01 7.68281E-37
7.03368E-01 7.73919E-37
7.07347E-01 8.26254E-37
7.11309E-01 9.14782E-37
7.15256E-01 1.03005E-36
7.19186E-01 1.16368E-36
7.23099E-01 1.30831E-36
7.26995E-01 1.45758E-36
7.30874E-01 1.60613E-36
7.34736E-01 1.74947E-36
7.38579E-01 1.88393E-36
7.42405E-01 2.00666E-36
7.46212E-01 2.11549E-36
7.50000E-01 2.20892E-36
7.53769E-01 2.28591E-36
7.57519E-01 2.34602E-36
7.61249E-01 2.38916E-36
7.64960E-01 2.41563E-36
7.68650E-01 2.42595E-36
7.72320E-01 2.42096E-36
7.75968E-01 2.40172E-36
7.79596E-01 2.36928E-36
7.83203E-01 2.32488E-36
7.86788E-01 2.26989E-36
7.90351E-01 2.20552E-36
7.93893E-01 2.13318E-36
7.97411E-01 2.05413E-36
8.00908E-01 1.96965E-36
8.04381E-01 1.88097E-36
8.07831E-01 1.78913E-36
8.11257E-01 1.69524E-36
8.14660E-01 1.60023E-36
8.18039E-01 1.50507E-36
8.21394E-01 1.41044E-36
8.24724E-01 1.31709E-36
8.28030E-01 1.22567E-36
8.31310E-01 1.13663E-36
8.34565E-01 1.05047E-36
8.37795E-01 9.67531E-37
8.40999E-01 8.88100E-37
8.44177E-01 8.12464E-37
8.47329E-01 7.40690E-37
8.50455E-01 6.72942E-37
8.53553E-01 6.09281E-37
8.56625E-01 5.49692E-37
8.59670E-01 4.94132E-37
8.62687E-01 4.42594E-37
8.65677E-01 3.94928E-37
8.68639E-01 3.51073E-37
8.71572E-01 3.10798E-37
8.74478E-01 2.74059E-37
8.77355E-01 2.40605E-37
8.80203E-01 2.10331E-37
8.83022E-01 1.82984E-37
8.85812E-01 1.58440E-37
8.88573E-01 1.36482E-37
8.91304E-01 1.16949E-37
8.94005E-01 9.96502E-38
8.96677E-01 8.44003E-38
8.99318E-01 7.10471E-38
9.01928E-01 5.94202E-38
9.04508E-01 4.93625E-38
9.07058E-01 4.07149E-38
9.09576E-01 3.33517E-38
9.12063E-01 2.71323E-38
9.14519E-01 2.19309E-38
9.16943E-01 1.76394E-38
9.19335E-01 1.41427E-38
9.21696E-01 1.13490E-38
9.24024E-01 9.15820E-39
9.26320E-01 7.49740E-39
9.28584E-01 6.28534E-39
9.30815E-01 5.45300E-39
9.33013E-01 4.94181E-39
9.35178E-01 4.69444E-39
9.37310E-01 4.66241E-39
9.39409E-01 4.80148E-39
9.41474E-01 5.07551E-39
9.43505E-01 5.44769E-39
9.45503E-01 5.89211E-39
9.47467E-01 6.38162E-39
9.49397E-01 6.89563E-39
9.51293E-01 7.41546E-39
9.53154E-01 7.92752E-39
9.54981E-01 8.41829E-39
9.56773E-01 8.87371E-39
9.58530E-01 9.29742E-39
9.60252E-01 9.67018E-39
9.61940E-01 9.99164E-39
9.63592E-01 1.02651E-38
9.65209E-01 1.04797E-38
9.66790E-01 1.06374E-38
9.68336E-01 1.07410E-38
9.69846E-01 1.07909E-38
9.71321E-01 1.07825E-38
9.72759E-01 1.07288E-38
9.74162E-01 1.06323E-38
9.75528E-01 1.04810E-38
9.76858E-01 1.02922E-38
9.78152E-01 1.00665E-38
9.79410E-01 9.80485E-39
9.80631E-01 9.50714E-39
9.81815E-01 9.18688E-39
9.82963E-01 8.83761E-39
9.84074E-01 8.47390E-39
9.85148E-01 8.08753E-39
9.86185E-01 7.69038E-39
9.87185E-01 7.27577E-39
9.88148E-01 6.86002E-39
9.89074E-01 6.43270E-39
9.89962E-01 6.01006E-39
9.90814E-01 5.58718E-39
9.91627E-01 5.16351E-39
9.92404E-01 4.74566E-39
9.93143E-01 4.33609E-39
9.93844E-01 3.93811E-39
9.94508E-01 3.54720E-39
9.95134E-01 3.17184E-39
9.95722E-01 2.81089E-39
9.96273E-01 2.47210E-39
9.96786E-01 2.14371E-39
9.97261E-01 1.84346E-39
9.97698E-01 1.55828E-39
9.98097E-01 1.29148E-39
9.98459E-01 1.05342E-39
9.98782E-01 8.35324E-40
9.99067E-01 6.44745E-40
9.99315E-01 4.73909E-40
9.99524E-01 3.31492E-40
9.99695E-01 2.14431E-40
9.99829E-01 1.21379E-40
9.99924E-01 5.54904E-41
9.99981E-01 1.57170E-41
1.00000E+00 2.29620E-42
