 #
 # Subroutine ELSEPA. Elastic scattering of electrons and positrons
 #                    by neutral atoms and positive ions
 #
 # Projectile: positron
 # Kinetic energy = 8.00000E+08 eV = 2.93995E+07 a.u.
 #
 # WARNING: High-energy factorization with free-atom DF screening.
 #          Absorption, polarization and exchange corrections are
 #          switched off.
 #          Phase shifts are calculated for the bare nucleus.
 #          Scattering amplitudes are not evaluated.
 #
 # Element: Po,  Z =  84,  atomic weight = 2.08982E+02 g/mol
 #
 # Nuclear model: Fermi distribution
 #                Average radius = 6.34971E-13 cm
 #                Skin thickness = 5.46000E-14 cm
 #
 # Number of electrons = 84
 #
 # Total elastic cross section = 9.12155E-18 cm**2 = 3.25736E-01 a0**2
 # 1st transport cross section = 2.04656E-26 cm**2 = 7.30838E-10 a0**2
 # 2nd transport cross section = 6.13870E-26 cm**2 = 2.19217E-09 a0**2
 #
 #
 # Differential cross section:                       MU=(1-COS(THETA))/2
 #
 #  THETA        MU          DCS          DCS        Sherman      error
 #  (deg)                 (cm**2/sr)   (a0**2/sr)    function
 #----------------------------------------------------------------------
0.00000E+00 4.16548E-08
7.61557E-13 3.66667E-08
1.18994E-12 3.42741E-08
1.71346E-12 3.16855E-08
2.33225E-12 2.90201E-08
3.04617E-12 2.63782E-08
3.85530E-12 2.38456E-08
4.75964E-12 2.14602E-08
5.75917E-12 1.92710E-08
6.85391E-12 1.72708E-08
8.04379E-12 1.54807E-08
9.32893E-12 1.38750E-08
1.07092E-11 1.24547E-08
1.21847E-11 1.11946E-08
1.37554E-11 1.00835E-08
1.54213E-11 9.10187E-09
1.71823E-11 8.23525E-09
1.90386E-11 7.46953E-09
2.09900E-11 6.79074E-09
2.30367E-11 6.18940E-09
2.51785E-11 5.65331E-09
2.74156E-11 5.17651E-09
2.97478E-11 4.74873E-09
3.21752E-11 4.36623E-09
3.46979E-11 4.02146E-09
3.73157E-11 3.69740E-09
4.00286E-11 3.40153E-09
4.28368E-11 3.14116E-09
4.57402E-11 2.91114E-09
4.87388E-11 2.70720E-09
5.18325E-11 2.52573E-09
5.50215E-11 2.36371E-09
5.83057E-11 2.19937E-09
6.16850E-11 2.04563E-09
6.51595E-11 1.90790E-09
6.87293E-11 1.78414E-09
7.23943E-11 1.67263E-09
7.61544E-11 1.57188E-09
1.18991E-10 8.63820E-10
1.71347E-10 5.13749E-10
2.33223E-10 3.25943E-10
3.04617E-10 2.17462E-10
3.85531E-10 1.51015E-10
4.75965E-10 1.07888E-10
5.75917E-10 7.90466E-11
6.85389E-10 5.90048E-11
8.04380E-10 4.48988E-11
9.32891E-10 3.47152E-11
1.07092E-09 2.72394E-11
1.21847E-09 2.16882E-11
1.37554E-09 1.75048E-11
1.54213E-09 1.42942E-11
1.71823E-09 1.17928E-11
1.90386E-09 9.81896E-12
2.09900E-09 8.24366E-12
2.30367E-09 6.97566E-12
2.51785E-09 5.94384E-12
2.74156E-09 5.09796E-12
2.97478E-09 4.39695E-12
3.21752E-09 3.81298E-12
3.46978E-09 3.32247E-12
3.73156E-09 2.90697E-12
4.00286E-09 2.55532E-12
4.28368E-09 2.25762E-12
4.57402E-09 1.99992E-12
4.87388E-09 1.77876E-12
5.18326E-09 1.58834E-12
5.50215E-09 1.42130E-12
5.83057E-09 1.27650E-12
6.16850E-09 1.14978E-12
6.51596E-09 1.03796E-12
6.87293E-09 9.39919E-13
7.23942E-09 8.52928E-13
7.61544E-09 7.75734E-13
1.18991E-08 3.34311E-13
1.71347E-08 1.66597E-13
2.33223E-08 9.20441E-14
3.04617E-08 5.49421E-14
3.85531E-08 3.48037E-14
4.75965E-08 2.31062E-14
5.75917E-08 1.59345E-14
6.85389E-08 1.13391E-14
8.04380E-08 8.28543E-15
9.32891E-08 6.19281E-15
1.07092E-07 4.72032E-15
1.21847E-07 3.66024E-15
1.37554E-07 2.88154E-15
1.54213E-07 2.29924E-15
1.71823E-07 1.85684E-15
1.90386E-07 1.51590E-15
2.09900E-07 1.24973E-15
2.30367E-07 1.03952E-15
2.51785E-07 8.71708E-16
2.74156E-07 7.36441E-16
2.97478E-07 6.26429E-16
3.21752E-07 5.36220E-16
3.46978E-07 4.61682E-16
3.73156E-07 3.99660E-16
4.00286E-07 3.47713E-16
4.28368E-07 3.03941E-16
4.57402E-07 2.66845E-16
4.87388E-07 2.35240E-16
5.18325E-07 2.08179E-16
5.50215E-07 1.84899E-16
5.83057E-07 1.64785E-16
6.16850E-07 1.47332E-16
6.51596E-07 1.32130E-16
6.87293E-07 1.18839E-16
7.23942E-07 1.07177E-16
7.61543E-07 9.69110E-17
1.18991E-06 3.98690E-17
1.71347E-06 1.92778E-17
2.33223E-06 1.04230E-17
3.04617E-06 6.11636E-18
3.85531E-06 3.82112E-18
4.75964E-06 2.50821E-18
5.75916E-06 1.71367E-18
6.85388E-06 1.21019E-18
8.04378E-06 8.78722E-19
9.32888E-06 6.53330E-19
1.07092E-05 4.95769E-19
1.21846E-05 3.82957E-19
1.37553E-05 3.00475E-19
1.54212E-05 2.39044E-19
1.71822E-05 1.92536E-19
1.90385E-05 1.56700E-19
2.09899E-05 1.29001E-19
2.30365E-05 1.07138E-19
2.51783E-05 8.96846E-20
2.74153E-05 7.56213E-20
2.97475E-05 6.41979E-20
3.21749E-05 5.48511E-20
3.46974E-05 4.71497E-20
3.73152E-05 4.07597E-20
4.00281E-05 3.54214E-20
4.28362E-05 3.09325E-20
4.57395E-05 2.71292E-20
4.87380E-05 2.38912E-20
5.18317E-05 2.11204E-20
5.50205E-05 1.87386E-20
5.83045E-05 1.66826E-20
6.16838E-05 1.49011E-20
6.51582E-05 1.33514E-20
6.87277E-05 1.19984E-20
7.23925E-05 1.08127E-20
7.61524E-05 9.99373E-21
9.21439E-05 6.82591E-21
1.09658E-04 4.81484E-21
1.28695E-04 3.48902E-21
1.49255E-04 2.58620E-21
1.71338E-04 1.95454E-21
1.94942E-04 1.50204E-21
2.20070E-04 1.17120E-21
2.46720E-04 9.24926E-22
2.74892E-04 7.38685E-22
3.04586E-04 5.95840E-22
3.35803E-04 4.84904E-22
3.68542E-04 3.97765E-22
4.02802E-04 3.28623E-22
4.38585E-04 2.73254E-22
4.75889E-04 2.28539E-22
5.14715E-04 1.92157E-22
5.55063E-04 1.62344E-22
5.96931E-04 1.37760E-22
6.40321E-04 1.17369E-22
6.85233E-04 1.00363E-22
7.31665E-04 8.61111E-23
7.79618E-04 7.41112E-23
8.29092E-04 6.39652E-23
8.80086E-04 5.53525E-23
9.32601E-04 4.80150E-23
9.86636E-04 4.17425E-23
1.04219E-03 3.63636E-23
1.09927E-03 3.17376E-23
1.15786E-03 2.77482E-23
1.21797E-03 2.42991E-23
1.27961E-03 2.13102E-23
1.34276E-03 1.87143E-23
1.40743E-03 1.64551E-23
1.47362E-03 1.44853E-23
1.54133E-03 1.27648E-23
1.61056E-03 1.12595E-23
1.68131E-03 9.94049E-24
1.75357E-03 8.78312E-24
1.82735E-03 7.76620E-24
1.90265E-03 6.87164E-24
1.97947E-03 6.08380E-24
2.05780E-03 5.38925E-24
2.13765E-03 4.77635E-24
2.21902E-03 4.23502E-24
2.30190E-03 3.75653E-24
2.38630E-03 3.33327E-24
2.47222E-03 2.95861E-24
2.55965E-03 2.62678E-24
2.64859E-03 2.33272E-24
2.73905E-03 2.07201E-24
2.83103E-03 1.84076E-24
2.92452E-03 1.63556E-24
3.01952E-03 1.45343E-24
3.11604E-03 1.29173E-24
3.21407E-03 1.14812E-24
3.31362E-03 1.02057E-24
3.41468E-03 9.07253E-25
3.51725E-03 8.06577E-25
3.62133E-03 7.17123E-25
3.72692E-03 6.37637E-25
3.83403E-03 5.67008E-25
3.94265E-03 5.04250E-25
4.05278E-03 4.48488E-25
4.16442E-03 3.98947E-25
4.27757E-03 3.54935E-25
4.39223E-03 3.15840E-25
4.50840E-03 2.81118E-25
4.62608E-03 2.50282E-25
4.74527E-03 2.22903E-25
4.86597E-03 1.98596E-25
4.98817E-03 1.77020E-25
5.11188E-03 1.57871E-25
5.23711E-03 1.40877E-25
5.36383E-03 1.25798E-25
5.49207E-03 1.12420E-25
5.62181E-03 1.00552E-25
5.75306E-03 9.00224E-26
5.88581E-03 8.06813E-26
6.02007E-03 7.23939E-26
6.15583E-03 6.50402E-26
6.29310E-03 5.85138E-26
6.43187E-03 5.27201E-26
6.57214E-03 4.75749E-26
6.71392E-03 4.30035E-26
6.85720E-03 3.89396E-26
7.00198E-03 3.53242E-26
7.14827E-03 3.21053E-26
7.29605E-03 2.92365E-26
7.44534E-03 2.66770E-26
7.59612E-03 2.43903E-26
7.97965E-03 1.96663E-26
8.37255E-03 1.60508E-26
8.77480E-03 1.32463E-26
9.18641E-03 1.10370E-26
9.60736E-03 9.26704E-27
1.00376E-02 7.82451E-27
1.04773E-02 6.62959E-27
1.09262E-02 5.62545E-27
1.13844E-02 4.77172E-27
1.18520E-02 4.03959E-27
1.23288E-02 3.40830E-27
1.28150E-02 2.86260E-27
1.33104E-02 2.39094E-27
1.38150E-02 1.98426E-27
1.43290E-02 1.63511E-27
1.48521E-02 1.33712E-27
1.53845E-02 1.08463E-27
1.59262E-02 8.72472E-28
1.64770E-02 6.95872E-28
1.70371E-02 5.50380E-28
1.76063E-02 4.31854E-28
1.81848E-02 3.36460E-28
1.87724E-02 2.60677E-28
1.93692E-02 2.01312E-28
1.99751E-02 1.55500E-28
2.05901E-02 1.20709E-28
2.12143E-02 9.47294E-29
2.18476E-02 7.56658E-29
2.24900E-02 6.19164E-29
2.31415E-02 5.21515E-29
2.38021E-02 4.52885E-29
2.44717E-02 4.04641E-29
2.51504E-02 3.70071E-29
2.58382E-02 3.44099E-29
2.65349E-02 3.23028E-29
2.72407E-02 3.04285E-29
2.79555E-02 2.86201E-29
2.86793E-02 2.67801E-29
2.94120E-02 2.48639E-29
3.01537E-02 2.28638E-29
3.09043E-02 2.07973E-29
3.16639E-02 1.86971E-29
3.24324E-02 1.66030E-29
3.32098E-02 1.45563E-29
3.39961E-02 1.25953E-29
3.47912E-02 1.07533E-29
3.55952E-02 9.05604E-30
3.64081E-02 7.52187E-30
3.72297E-02 6.16132E-30
3.80602E-02 4.97785E-30
3.88995E-02 3.96866E-30
3.97476E-02 3.12576E-30
4.06044E-02 2.43718E-30
4.14700E-02 1.88809E-30
4.23443E-02 1.46188E-30
4.32273E-02 1.14118E-30
4.41190E-02 9.08593E-31
4.50194E-02 7.47456E-31
4.59284E-02 6.42298E-31
4.68461E-02 5.79214E-31
4.87074E-02 5.32695E-31
5.06030E-02 5.33560E-31
5.25328E-02 5.35924E-31
5.44967E-02 5.17471E-31
5.64946E-02 4.72840E-31
5.85262E-02 4.06993E-31
6.05914E-02 3.29592E-31
6.26901E-02 2.50903E-31
6.48222E-02 1.79297E-31
6.69873E-02 1.20119E-31
6.91854E-02 7.55924E-32
7.14163E-02 4.53536E-32
7.36799E-02 2.72885E-32
7.59760E-02 1.83977E-32
7.83043E-02 1.55299E-32
8.06647E-02 1.58992E-32
8.30571E-02 1.73715E-32
8.54812E-02 1.85524E-32
8.79369E-02 1.87282E-32
9.04240E-02 1.77209E-32
9.29422E-02 1.57098E-32
9.54915E-02 1.30592E-32
9.80716E-02 1.01793E-32
1.00682E-01 7.42925E-33
1.03323E-01 5.06518E-33
1.05995E-01 3.22415E-33
1.08696E-01 1.93528E-33
1.11427E-01 1.14601E-33
1.14188E-01 7.54087E-34
1.16978E-01 6.37750E-34
1.19797E-01 6.79776E-34
1.22645E-01 7.83282E-34
1.25522E-01 8.79405E-34
1.28428E-01 9.28211E-34
1.31361E-01 9.14848E-34
1.34323E-01 8.43085E-34
1.37313E-01 7.28079E-34
1.40330E-01 5.89762E-34
1.43375E-01 4.47678E-34
1.46447E-01 3.17603E-34
1.49545E-01 2.09912E-34
1.52671E-01 1.29366E-34
1.55823E-01 7.59039E-35
1.59001E-01 4.59787E-35
1.62205E-01 3.40575E-35
1.65435E-01 3.39879E-35
1.68690E-01 4.00588E-35
1.71970E-01 4.76798E-35
1.75276E-01 5.36928E-35
1.78606E-01 5.63762E-35
1.81961E-01 5.52370E-35
1.85340E-01 5.06836E-35
1.88743E-01 4.36666E-35
1.92169E-01 3.53496E-35
1.95619E-01 2.68511E-35
1.99092E-01 1.90723E-35
2.02589E-01 1.26134E-35
2.06107E-01 7.75994E-36
2.09649E-01 4.52407E-36
2.13212E-01 2.71398E-36
2.16797E-01 2.01554E-36
2.20404E-01 2.06838E-36
2.24032E-01 2.52781E-36
2.27680E-01 3.10676E-36
2.31350E-01 3.59800E-36
2.35040E-01 3.87874E-36
2.38751E-01 3.90220E-36
2.42481E-01 3.68106E-36
2.46231E-01 3.26736E-36
2.50000E-01 2.73293E-36
2.53788E-01 2.15259E-36
2.57595E-01 1.59198E-36
2.61421E-01 1.10010E-36
2.65264E-01 7.06571E-37
2.69126E-01 4.22267E-37
2.73005E-01 2.42585E-37
2.76901E-01 1.51934E-37
2.80814E-01 1.28577E-37
2.84744E-01 1.49001E-37
2.88691E-01 1.91350E-37
2.92653E-01 2.37751E-37
2.96632E-01 2.75442E-37
3.00625E-01 2.96970E-37
3.04634E-01 2.99633E-37
3.08658E-01 2.84478E-37
3.12697E-01 2.55077E-37
3.16749E-01 2.16339E-37
3.20816E-01 1.73451E-37
3.24896E-01 1.31097E-37
3.28990E-01 9.29450E-38
3.33097E-01 6.13907E-38
3.37216E-01 1.00000E-45
3.41348E-01 1.00000E-45
3.45492E-01 1.00000E-45
3.49647E-01 1.00000E-45
3.53814E-01 1.00000E-45
3.57992E-01 1.00000E-45
3.62181E-01 1.00000E-45
3.66381E-01 1.00000E-45
3.70590E-01 1.00000E-45
3.74810E-01 1.00000E-45
3.79039E-01 1.00000E-45
3.83277E-01 1.00000E-45
3.87524E-01 1.00000E-45
3.91780E-01 1.00000E-45
3.96044E-01 1.00000E-45
4.00316E-01 1.00000E-45
4.04596E-01 1.00000E-45
4.08882E-01 1.00000E-45
4.13176E-01 1.00000E-45
4.17476E-01 1.00000E-45
4.21783E-01 1.00000E-45
4.26095E-01 1.00000E-45
4.30413E-01 1.00000E-45
4.34737E-01 1.00000E-45
4.39065E-01 1.00000E-45
4.43398E-01 1.00000E-45
4.47736E-01 1.00000E-45
4.52077E-01 1.00000E-45
4.56422E-01 1.00000E-45
4.60770E-01 1.00000E-45
4.65122E-01 1.00000E-45
4.69476E-01 1.00000E-45
4.73832E-01 1.00000E-45
4.78190E-01 1.00000E-45
4.82550E-01 1.00000E-45
4.86912E-01 1.00000E-45
4.91274E-01 1.00000E-45
4.95637E-01 1.00000E-45
5.00000E-01 1.00000E-45
5.04363E-01 1.00000E-45
5.08726E-01 1.00000E-45
5.13088E-01 1.00000E-45
5.17450E-01 1.00000E-45
5.21810E-01 1.00000E-45
5.26168E-01 1.00000E-45
5.30524E-01 1.00000E-45
5.34878E-01 1.00000E-45
5.39230E-01 1.00000E-45
5.43578E-01 1.00000E-45
5.47923E-01 1.00000E-45
5.52264E-01 1.00000E-45
5.56602E-01 1.00000E-45
5.60935E-01 1.00000E-45
5.65263E-01 1.00000E-45
5.69587E-01 1.00000E-45
5.73905E-01 1.00000E-45
5.78217E-01 1.00000E-45
5.82524E-01 1.00000E-45
5.86824E-01 1.00000E-45
5.91118E-01 1.00000E-45
5.95404E-01 1.00000E-45
5.99684E-01 1.00000E-45
6.03956E-01 1.00000E-45
6.08220E-01 1.00000E-45
6.12476E-01 1.00000E-45
6.16723E-01 1.00000E-45
6.20961E-01 1.00000E-45
6.25190E-01 1.00000E-45
6.29410E-01 1.00000E-45
6.33619E-01 1.00000E-45
6.37819E-01 1.00000E-45
6.42008E-01 1.00000E-45
6.46186E-01 1.00000E-45
6.50353E-01 1.00000E-45
6.54508E-01 1.00000E-45
6.58652E-01 1.00000E-45
6.62784E-01 1.00000E-45
6.66903E-01 1.00000E-45
6.71010E-01 1.00000E-45
6.75104E-01 1.00000E-45
6.79184E-01 1.00000E-45
6.83251E-01 1.00000E-45
6.87303E-01 1.00000E-45
6.91342E-01 1.00000E-45
6.95366E-01 1.00000E-45
6.99375E-01 1.00000E-45
7.03368E-01 1.00000E-45
7.07347E-01 1.00000E-45
7.11309E-01 1.00000E-45
7.15256E-01 1.00000E-45
7.19186E-01 1.00000E-45
7.23099E-01 1.00000E-45
7.26995E-01 1.00000E-45
7.30874E-01 1.00000E-45
7.34736E-01 1.00000E-45
7.38579E-01 1.00000E-45
7.42405E-01 1.00000E-45
7.46212E-01 1.00000E-45
7.50000E-01 1.00000E-45
7.53769E-01 1.00000E-45
7.57519E-01 1.00000E-45
7.61249E-01 1.00000E-45
7.64960E-01 1.00000E-45
7.68650E-01 1.00000E-45
7.72320E-01 1.00000E-45
7.75968E-01 1.00000E-45
7.79596E-01 1.00000E-45
7.83203E-01 1.00000E-45
7.86788E-01 1.00000E-45
7.90351E-01 1.00000E-45
7.93893E-01 1.00000E-45
7.97411E-01 1.00000E-45
8.00908E-01 1.00000E-45
8.04381E-01 1.00000E-45
8.07831E-01 1.00000E-45
8.11257E-01 1.00000E-45
8.14660E-01 1.00000E-45
8.18039E-01 1.00000E-45
8.21394E-01 1.00000E-45
8.24724E-01 1.00000E-45
8.28030E-01 1.00000E-45
8.31310E-01 1.00000E-45
8.34565E-01 1.00000E-45
8.37795E-01 1.00000E-45
8.40999E-01 1.00000E-45
8.44177E-01 1.00000E-45
8.47329E-01 1.00000E-45
8.50455E-01 1.00000E-45
8.53553E-01 1.00000E-45
8.56625E-01 1.00000E-45
8.59670E-01 1.00000E-45
8.62687E-01 1.00000E-45
8.65677E-01 1.00000E-45
8.68639E-01 1.00000E-45
8.71572E-01 1.00000E-45
8.74478E-01 1.00000E-45
8.77355E-01 1.00000E-45
8.80203E-01 1.00000E-45
8.83022E-01 1.00000E-45
8.85812E-01 1.00000E-45
8.88573E-01 1.00000E-45
8.91304E-01 1.00000E-45
8.94005E-01 1.00000E-45
8.96677E-01 1.00000E-45
8.99318E-01 1.00000E-45
9.01928E-01 1.00000E-45
9.04508E-01 1.00000E-45
9.07058E-01 1.00000E-45
9.09576E-01 1.00000E-45
9.12063E-01 1.00000E-45
9.14519E-01 1.00000E-45
9.16943E-01 1.00000E-45
9.19335E-01 1.00000E-45
9.21696E-01 1.00000E-45
9.24024E-01 1.00000E-45
9.26320E-01 1.00000E-45
9.28584E-01 1.00000E-45
9.30815E-01 1.00000E-45
9.33013E-01 1.00000E-45
9.35178E-01 1.00000E-45
9.37310E-01 1.00000E-45
9.39409E-01 1.00000E-45
9.41474E-01 1.00000E-45
9.43505E-01 1.00000E-45
9.45503E-01 1.00000E-45
9.47467E-01 1.00000E-45
9.49397E-01 1.00000E-45
9.51293E-01 1.00000E-45
9.53154E-01 1.00000E-45
9.54981E-01 1.00000E-45
9.56773E-01 1.00000E-45
9.58530E-01 1.00000E-45
9.60252E-01 1.00000E-45
9.61940E-01 1.00000E-45
9.63592E-01 1.00000E-45
9.65209E-01 1.00000E-45
9.66790E-01 1.00000E-45
9.68336E-01 1.00000E-45
9.69846E-01 1.00000E-45
9.71321E-01 1.00000E-45
9.72759E-01 1.00000E-45
9.74162E-01 1.00000E-45
9.75528E-01 1.00000E-45
9.76858E-01 1.00000E-45
9.78152E-01 1.00000E-45
9.79410E-01 1.00000E-45
9.80631E-01 1.00000E-45
9.81815E-01 1.00000E-45
9.82963E-01 1.00000E-45
9.84074E-01 1.00000E-45
9.85148E-01 1.00000E-45
9.86185E-01 1.00000E-45
9.87185E-01 1.00000E-45
9.88148E-01 1.00000E-45
9.89074E-01 1.00000E-45
9.89962E-01 1.00000E-45
9.90814E-01 1.00000E-45
9.91627E-01 1.00000E-45
9.92404E-01 1.00000E-45
9.93143E-01 1.00000E-45
9.93844E-01 1.00000E-45
9.94508E-01 1.00000E-45
9.95134E-01 1.00000E-45
9.95722E-01 1.00000E-45
9.96273E-01 1.00000E-45
9.96786E-01 1.00000E-45
9.97261E-01 1.00000E-45
9.97698E-01 1.00000E-45
9.98097E-01 1.00000E-45
9.98459E-01 1.00000E-45
9.98782E-01 1.00000E-45
9.99067E-01 1.00000E-45
9.99315E-01 1.00000E-45
9.99524E-01 1.00000E-45
9.99695E-01 1.00000E-45
9.99829E-01 1.00000E-45
9.99924E-01 1.00000E-45
9.99981E-01 1.00000E-45
1.00000E+00 1.00000E-45
