 #
 # Subroutine ELSEPA. Elastic scattering of electrons and positrons
 #                    by neutral atoms and positive ions
 #
 # Projectile: positron
 # Kinetic energy = 7.00000E+06 eV = 2.57245E+05 a.u.
 #
 # WARNING: High-energy factorization with free-atom DF screening.
 #          Absorption, polarization and exchange corrections are
 #          switched off.
 #          Phase shifts are calculated for the bare nucleus.
 #          Scattering amplitudes are not evaluated.
 #
 # Element: Po,  Z =  84,  atomic weight = 2.08982E+02 g/mol
 #
 # Nuclear model: Fermi distribution
 #                Average radius = 6.34971E-13 cm
 #                Skin thickness = 5.46000E-14 cm
 #
 # Number of electrons = 84
 #
 # Total elastic cross section = 9.17769E-18 cm**2 = 3.27741E-01 a0**2
 # 1st transport cross section = 1.57961E-22 cm**2 = 5.64088E-06 a0**2
 # 2nd transport cross section = 4.55369E-22 cm**2 = 1.62615E-05 a0**2
 #
 #
 # Differential cross section:                       MU=(1-COS(THETA))/2
 #
 #  THETA        MU          DCS          DCS        Sherman      error
 #  (deg)                 (cm**2/sr)   (a0**2/sr)    function
 #----------------------------------------------------------------------
0.00000E+00 3.66713E-12
7.61557E-13 3.66708E-12
1.18994E-12 3.66705E-12
1.71346E-12 3.66702E-12
2.33225E-12 3.66698E-12
3.04617E-12 3.66694E-12
3.85530E-12 3.66690E-12
4.75964E-12 3.66684E-12
5.75917E-12 3.66679E-12
6.85391E-12 3.66672E-12
8.04379E-12 3.66666E-12
9.32893E-12 3.66658E-12
1.07092E-11 3.66650E-12
1.21847E-11 3.66642E-12
1.37554E-11 3.66633E-12
1.54213E-11 3.66624E-12
1.71823E-11 3.66614E-12
1.90386E-11 3.66603E-12
2.09900E-11 3.66592E-12
2.30367E-11 3.66580E-12
2.51785E-11 3.66568E-12
2.74156E-11 3.66556E-12
2.97478E-11 3.66542E-12
3.21752E-11 3.66529E-12
3.46979E-11 3.66514E-12
3.73157E-11 3.66500E-12
4.00286E-11 3.66484E-12
4.28368E-11 3.66468E-12
4.57402E-11 3.66452E-12
4.87388E-11 3.66435E-12
5.18325E-11 3.66418E-12
5.50215E-11 3.66400E-12
5.83057E-11 3.66381E-12
6.16850E-11 3.66362E-12
6.51595E-11 3.66343E-12
6.87293E-11 3.66322E-12
7.23943E-11 3.66302E-12
7.61544E-11 3.66281E-12
1.18991E-10 3.66040E-12
1.71347E-10 3.65747E-12
2.33223E-10 3.65401E-12
3.04617E-10 3.65002E-12
3.85531E-10 3.64552E-12
4.75965E-10 3.64050E-12
5.75917E-10 3.63496E-12
6.85389E-10 3.62892E-12
8.04380E-10 3.62237E-12
9.32891E-10 3.61532E-12
1.07092E-09 3.60777E-12
1.21847E-09 3.59973E-12
1.37554E-09 3.59120E-12
1.54213E-09 3.58219E-12
1.71823E-09 3.57272E-12
1.90386E-09 3.56277E-12
2.09900E-09 3.55236E-12
2.30367E-09 3.54150E-12
2.51785E-09 3.53019E-12
2.74156E-09 3.51844E-12
2.97478E-09 3.50626E-12
3.21752E-09 3.49366E-12
3.46978E-09 3.48064E-12
3.73156E-09 3.46721E-12
4.00286E-09 3.45339E-12
4.28368E-09 3.43903E-12
4.57402E-09 3.42428E-12
4.87388E-09 3.40922E-12
5.18326E-09 3.39385E-12
5.50215E-09 3.37819E-12
5.83057E-09 3.36225E-12
6.16850E-09 3.34606E-12
6.51596E-09 3.32940E-12
6.87293E-09 3.31216E-12
7.23942E-09 3.29469E-12
7.61544E-09 3.27701E-12
1.18991E-08 3.08700E-12
1.71347E-08 2.87799E-12
2.33223E-08 2.65939E-12
3.04617E-08 2.44045E-12
3.85531E-08 2.22561E-12
4.75965E-08 2.02112E-12
5.75917E-08 1.83030E-12
6.85389E-08 1.65318E-12
8.04380E-08 1.49225E-12
9.32891E-08 1.34675E-12
1.07092E-07 1.21566E-12
1.21847E-07 1.09875E-12
1.37554E-07 9.94302E-13
1.54213E-07 9.01278E-13
1.71823E-07 8.18707E-13
1.90386E-07 7.44988E-13
2.09900E-07 6.79426E-13
2.30367E-07 6.21032E-13
2.51785E-07 5.68706E-13
2.74156E-07 5.21963E-13
2.97478E-07 4.80018E-13
3.21752E-07 4.42247E-13
3.46978E-07 4.08264E-13
3.73156E-07 3.77509E-13
4.00286E-07 3.49655E-13
4.28368E-07 3.23034E-13
4.57402E-07 2.98823E-13
4.87388E-07 2.77340E-13
5.18325E-07 2.58214E-13
5.50215E-07 2.41131E-13
5.83057E-07 2.25825E-13
6.16850E-07 2.12071E-13
6.51596E-07 1.98810E-13
6.87293E-07 1.85572E-13
7.23942E-07 1.73643E-13
7.61543E-07 1.62866E-13
1.18991E-06 9.12055E-14
1.71347E-06 5.47213E-14
2.33223E-06 3.48551E-14
3.04617E-06 2.33996E-14
3.85531E-06 1.62998E-14
4.75964E-06 1.17130E-14
5.75916E-06 8.62912E-15
6.85388E-06 6.47157E-15
8.04378E-06 4.94241E-15
9.32888E-06 3.83410E-15
1.07092E-05 3.01637E-15
1.21846E-05 2.40366E-15
1.37553E-05 1.94026E-15
1.54212E-05 1.58493E-15
1.71822E-05 1.30862E-15
1.90385E-05 1.08947E-15
2.09899E-05 9.15958E-16
2.30365E-05 7.75783E-16
2.51783E-05 6.61310E-16
2.74153E-05 5.67287E-16
2.97475E-05 4.89445E-16
3.21749E-05 4.24533E-16
3.46974E-05 3.70124E-16
3.73152E-05 3.24180E-16
4.00281E-05 2.85188E-16
4.28362E-05 2.51755E-16
4.57395E-05 2.23179E-16
4.87380E-05 1.98713E-16
5.18317E-05 1.77333E-16
5.50205E-05 1.58781E-16
5.83045E-05 1.42690E-16
6.16838E-05 1.28475E-16
6.51582E-05 1.16026E-16
6.87277E-05 1.05113E-16
7.23925E-05 9.53787E-17
7.61524E-05 8.67768E-17
9.21439E-05 6.07316E-17
1.09658E-04 4.37276E-17
1.28695E-04 3.22806E-17
1.49255E-04 2.43366E-17
1.71338E-04 1.86843E-17
1.94942E-04 1.45811E-17
2.20070E-04 1.15428E-17
2.46720E-04 9.25575E-18
2.74892E-04 7.50874E-18
3.04586E-04 6.15465E-18
3.35803E-04 5.09282E-18
3.68542E-04 4.25060E-18
4.02802E-04 3.57525E-18
4.38585E-04 3.02894E-18
4.75889E-04 2.58299E-18
5.14715E-04 2.21603E-18
5.55063E-04 1.91192E-18
5.96931E-04 1.65808E-18
6.40321E-04 1.44491E-18
6.85233E-04 1.26485E-18
7.31665E-04 1.11187E-18
7.79618E-04 9.81263E-19
8.29092E-04 8.69233E-19
8.80086E-04 7.72671E-19
9.32601E-04 6.89115E-19
9.86636E-04 6.16514E-19
1.04219E-03 5.53186E-19
1.09927E-03 4.97764E-19
1.15786E-03 4.49080E-19
1.21797E-03 4.06186E-19
1.27961E-03 3.68278E-19
1.34276E-03 3.34671E-19
1.40743E-03 3.04801E-19
1.47362E-03 2.78178E-19
1.54133E-03 2.54389E-19
1.61056E-03 2.33082E-19
1.68131E-03 2.13952E-19
1.75357E-03 1.96739E-19
1.82735E-03 1.81217E-19
1.90265E-03 1.67190E-19
1.97947E-03 1.54491E-19
2.05780E-03 1.42971E-19
2.13765E-03 1.32501E-19
2.21902E-03 1.22970E-19
2.30190E-03 1.14277E-19
2.38630E-03 1.06336E-19
2.47222E-03 9.90718E-20
2.55965E-03 9.24147E-20
2.64859E-03 8.63056E-20
2.73905E-03 8.06916E-20
2.83103E-03 7.55248E-20
2.92452E-03 7.07637E-20
3.01952E-03 6.63707E-20
3.11604E-03 6.23119E-20
3.21407E-03 5.85577E-20
3.31362E-03 5.50809E-20
3.41468E-03 5.18573E-20
3.51725E-03 4.88653E-20
3.62133E-03 4.60851E-20
3.72692E-03 4.34990E-20
3.83403E-03 4.10912E-20
3.94265E-03 3.88469E-20
4.05278E-03 3.67531E-20
4.16442E-03 3.47977E-20
4.27757E-03 3.29704E-20
4.39223E-03 3.12606E-20
4.50840E-03 2.96601E-20
4.62608E-03 2.81599E-20
4.74527E-03 2.67532E-20
4.86597E-03 2.54327E-20
4.98817E-03 2.41923E-20
5.11188E-03 2.30262E-20
5.23711E-03 2.19292E-20
5.36383E-03 2.08965E-20
5.49207E-03 1.99234E-20
5.62181E-03 1.90062E-20
5.75306E-03 1.81407E-20
5.88581E-03 1.73238E-20
6.02007E-03 1.65520E-20
6.15583E-03 1.58225E-20
6.29310E-03 1.51326E-20
6.43187E-03 1.44796E-20
6.57214E-03 1.38613E-20
6.71392E-03 1.32754E-20
6.85720E-03 1.27200E-20
7.00198E-03 1.21931E-20
7.14827E-03 1.16931E-20
7.29605E-03 1.12183E-20
7.44534E-03 1.07672E-20
7.59612E-03 1.03384E-20
7.97965E-03 9.35572E-21
8.37255E-03 8.48630E-21
8.77480E-03 7.71498E-21
9.18641E-03 7.02878E-21
9.60736E-03 6.41670E-21
1.00376E-02 5.86940E-21
1.04773E-02 5.37881E-21
1.09262E-02 4.93808E-21
1.13844E-02 4.54127E-21
1.18520E-02 4.18322E-21
1.23288E-02 3.85953E-21
1.28150E-02 3.56630E-21
1.33104E-02 3.30019E-21
1.38150E-02 3.05825E-21
1.43290E-02 2.83790E-21
1.48521E-02 2.63689E-21
1.53845E-02 2.45321E-21
1.59262E-02 2.28512E-21
1.64770E-02 2.13106E-21
1.70371E-02 1.98965E-21
1.76063E-02 1.85968E-21
1.81848E-02 1.74005E-21
1.87724E-02 1.62980E-21
1.93692E-02 1.52807E-21
1.99751E-02 1.43408E-21
2.05901E-02 1.34713E-21
2.12143E-02 1.26661E-21
2.18476E-02 1.19196E-21
2.24900E-02 1.12268E-21
2.31415E-02 1.05830E-21
2.38021E-02 9.98432E-22
2.44717E-02 9.42691E-22
2.51504E-02 8.90745E-22
2.58382E-02 8.42290E-22
2.65349E-02 7.97051E-22
2.72407E-02 7.54776E-22
2.79555E-02 7.15236E-22
2.86793E-02 6.78223E-22
2.94120E-02 6.43547E-22
3.01537E-02 6.11034E-22
3.09043E-02 5.80524E-22
3.16639E-02 5.51873E-22
3.24324E-02 5.24948E-22
3.32098E-02 4.99625E-22
3.39961E-02 4.75792E-22
3.47912E-02 4.53347E-22
3.55952E-02 4.32193E-22
3.64081E-02 4.12243E-22
3.72297E-02 3.93417E-22
3.80602E-02 3.75640E-22
3.88995E-02 3.58843E-22
3.97476E-02 3.42962E-22
4.06044E-02 3.27939E-22
4.14700E-02 3.13718E-22
4.23443E-02 3.00250E-22
4.32273E-02 2.87487E-22
4.41190E-02 2.75386E-22
4.50194E-02 2.63906E-22
4.59284E-02 2.53010E-22
4.68461E-02 2.42663E-22
4.87074E-02 2.23486E-22
5.06030E-02 2.06141E-22
5.25328E-02 1.90424E-22
5.44967E-02 1.76155E-22
5.64946E-02 1.63179E-22
5.85262E-02 1.51359E-22
6.05914E-02 1.40574E-22
6.26901E-02 1.30718E-22
6.48222E-02 1.21698E-22
6.69873E-02 1.13430E-22
6.91854E-02 1.05841E-22
7.14163E-02 9.88664E-23
7.36799E-02 9.24474E-23
7.59760E-02 8.65323E-23
7.83043E-02 8.10746E-23
8.06647E-02 7.60330E-23
8.30571E-02 7.13704E-23
8.54812E-02 6.70535E-23
8.79369E-02 6.30521E-23
9.04240E-02 5.93391E-23
9.29422E-02 5.58904E-23
9.54915E-02 5.26839E-23
9.80716E-02 4.96996E-23
1.00682E-01 4.69195E-23
1.03323E-01 4.43271E-23
1.05995E-01 4.19077E-23
1.08696E-01 3.96478E-23
1.11427E-01 3.75349E-23
1.14188E-01 3.55580E-23
1.16978E-01 3.37066E-23
1.19797E-01 3.19716E-23
1.22645E-01 3.03443E-23
1.25522E-01 2.88169E-23
1.28428E-01 2.73822E-23
1.31361E-01 2.60335E-23
1.34323E-01 2.47649E-23
1.37313E-01 2.35708E-23
1.40330E-01 2.24461E-23
1.43375E-01 2.13860E-23
1.46447E-01 2.03861E-23
1.49545E-01 1.94425E-23
1.52671E-01 1.85515E-23
1.55823E-01 1.77096E-23
1.59001E-01 1.69137E-23
1.62205E-01 1.61607E-23
1.65435E-01 1.54480E-23
1.68690E-01 1.47731E-23
1.71970E-01 1.41336E-23
1.75276E-01 1.35273E-23
1.78606E-01 1.29522E-23
1.81961E-01 1.24065E-23
1.85340E-01 1.18884E-23
1.88743E-01 1.13962E-23
1.92169E-01 1.09284E-23
1.95619E-01 1.04836E-23
1.99092E-01 1.00605E-23
2.02589E-01 9.65783E-24
2.06107E-01 9.27442E-24
2.09649E-01 8.90924E-24
2.13212E-01 8.56125E-24
2.16797E-01 8.22949E-24
2.20404E-01 7.91307E-24
2.24032E-01 7.61118E-24
2.27680E-01 7.32304E-24
2.31350E-01 7.04791E-24
2.35040E-01 6.78509E-24
2.38751E-01 6.53394E-24
2.42481E-01 6.29387E-24
2.46231E-01 6.06429E-24
2.50000E-01 5.84468E-24
2.53788E-01 5.63451E-24
2.57595E-01 5.43332E-24
2.61421E-01 5.24066E-24
2.65264E-01 5.05611E-24
2.69126E-01 4.87927E-24
2.73005E-01 4.70975E-24
2.76901E-01 4.54721E-24
2.80814E-01 4.39131E-24
2.84744E-01 4.24173E-24
2.88691E-01 4.09817E-24
2.92653E-01 3.96035E-24
2.96632E-01 3.82800E-24
3.00625E-01 3.70087E-24
3.04634E-01 3.57871E-24
3.08658E-01 3.46130E-24
3.12697E-01 3.34842E-24
3.16749E-01 3.23988E-24
3.20816E-01 3.13547E-24
3.24896E-01 3.03500E-24
3.28990E-01 2.93832E-24
3.33097E-01 2.84524E-24
3.37216E-01 2.75562E-24
3.41348E-01 2.66930E-24
3.45492E-01 2.58614E-24
3.49647E-01 2.50601E-24
3.53814E-01 2.42877E-24
3.57992E-01 2.35431E-24
3.62181E-01 2.28251E-24
3.66381E-01 2.21325E-24
3.70590E-01 2.14644E-24
3.74810E-01 2.08197E-24
3.79039E-01 2.01975E-24
3.83277E-01 1.95968E-24
3.87524E-01 1.90168E-24
3.91780E-01 1.84567E-24
3.96044E-01 1.79156E-24
4.00316E-01 1.73928E-24
4.04596E-01 1.68876E-24
4.08882E-01 1.63993E-24
4.13176E-01 1.59273E-24
4.17476E-01 1.54708E-24
4.21783E-01 1.50294E-24
4.26095E-01 1.46024E-24
4.30413E-01 1.41892E-24
4.34737E-01 1.37895E-24
4.39065E-01 1.34026E-24
4.43398E-01 1.30280E-24
4.47736E-01 1.26654E-24
4.52077E-01 1.23143E-24
4.56422E-01 1.19742E-24
4.60770E-01 1.16448E-24
4.65122E-01 1.13257E-24
4.69476E-01 1.10164E-24
4.73832E-01 1.07167E-24
4.78190E-01 1.04262E-24
4.82550E-01 1.01446E-24
4.86912E-01 9.87158E-25
4.91274E-01 9.60662E-25
4.95637E-01 9.34958E-25
5.00000E-01 9.10022E-25
5.04363E-01 8.85828E-25
5.08726E-01 8.62351E-25
5.13088E-01 8.39566E-25
5.17450E-01 8.17449E-25
5.21810E-01 7.95978E-25
5.26168E-01 7.75131E-25
5.30524E-01 7.54887E-25
5.34878E-01 7.35225E-25
5.39230E-01 7.16127E-25
5.43578E-01 6.97574E-25
5.47923E-01 6.79547E-25
5.52264E-01 6.62030E-25
5.56602E-01 6.45006E-25
5.60935E-01 6.28459E-25
5.65263E-01 6.12373E-25
5.69587E-01 5.96733E-25
5.73905E-01 5.81527E-25
5.78217E-01 5.66738E-25
5.82524E-01 5.52355E-25
5.86824E-01 5.38365E-25
5.91118E-01 5.24755E-25
5.95404E-01 5.11513E-25
5.99684E-01 4.98628E-25
6.03956E-01 4.86089E-25
6.08220E-01 4.73885E-25
6.12476E-01 4.62006E-25
6.16723E-01 4.50443E-25
6.20961E-01 4.39184E-25
6.25190E-01 4.28222E-25
6.29410E-01 4.17547E-25
6.33619E-01 4.07150E-25
6.37819E-01 3.97024E-25
6.42008E-01 3.87161E-25
6.46186E-01 3.77552E-25
6.50353E-01 3.68190E-25
6.54508E-01 3.59068E-25
6.58652E-01 3.50178E-25
6.62784E-01 3.41515E-25
6.66903E-01 3.33071E-25
6.71010E-01 3.24841E-25
6.75104E-01 3.16818E-25
6.79184E-01 3.08996E-25
6.83251E-01 3.01369E-25
6.87303E-01 2.93932E-25
6.91342E-01 2.86680E-25
6.95366E-01 2.79608E-25
6.99375E-01 2.72710E-25
7.03368E-01 2.65981E-25
7.07347E-01 2.59417E-25
7.11309E-01 2.53014E-25
7.15256E-01 2.46767E-25
7.19186E-01 2.40671E-25
7.23099E-01 2.34723E-25
7.26995E-01 2.28918E-25
7.30874E-01 2.23253E-25
7.34736E-01 2.17724E-25
7.38579E-01 2.12328E-25
7.42405E-01 2.07060E-25
7.46212E-01 2.01917E-25
7.50000E-01 1.96897E-25
7.53769E-01 1.91995E-25
7.57519E-01 1.87210E-25
7.61249E-01 1.82537E-25
7.64960E-01 1.77973E-25
7.68650E-01 1.73517E-25
7.72320E-01 1.69165E-25
7.75968E-01 1.64915E-25
7.79596E-01 1.60763E-25
7.83203E-01 1.56708E-25
7.86788E-01 1.52747E-25
7.90351E-01 1.48878E-25
7.93893E-01 1.45098E-25
7.97411E-01 1.41405E-25
8.00908E-01 1.37797E-25
8.04381E-01 1.34272E-25
8.07831E-01 1.30828E-25
8.11257E-01 1.27463E-25
8.14660E-01 1.24174E-25
8.18039E-01 1.20961E-25
8.21394E-01 1.17821E-25
8.24724E-01 1.14753E-25
8.28030E-01 1.11754E-25
8.31310E-01 1.08824E-25
8.34565E-01 1.05960E-25
8.37795E-01 1.03161E-25
8.40999E-01 1.00426E-25
8.44177E-01 9.77520E-26
8.47329E-01 9.51389E-26
8.50455E-01 9.25851E-26
8.53553E-01 9.00889E-26
8.56625E-01 8.76493E-26
8.59670E-01 8.52648E-26
8.62687E-01 8.29343E-26
8.65677E-01 8.06564E-26
8.68639E-01 7.84301E-26
8.71572E-01 7.62542E-26
8.74478E-01 7.41276E-26
8.77355E-01 7.20492E-26
8.80203E-01 7.00179E-26
8.83022E-01 6.80328E-26
8.85812E-01 6.60928E-26
8.88573E-01 6.41969E-26
8.91304E-01 6.23443E-26
8.94005E-01 6.05339E-26
8.96677E-01 5.87650E-26
8.99318E-01 5.70367E-26
9.01928E-01 5.53480E-26
9.04508E-01 5.36983E-26
9.07058E-01 5.20867E-26
9.09576E-01 5.05123E-26
9.12063E-01 4.89746E-26
9.14519E-01 4.74727E-26
9.16943E-01 4.60060E-26
9.19335E-01 4.45737E-26
9.21696E-01 4.31751E-26
9.24024E-01 4.18097E-26
9.26320E-01 4.04768E-26
9.28584E-01 3.91757E-26
9.30815E-01 3.79059E-26
9.33013E-01 3.66668E-26
9.35178E-01 3.54578E-26
9.37310E-01 3.42784E-26
9.39409E-01 3.31280E-26
9.41474E-01 3.20061E-26
9.43505E-01 3.09122E-26
9.45503E-01 2.98458E-26
9.47467E-01 2.88065E-26
9.49397E-01 2.77938E-26
9.51293E-01 2.68071E-26
9.53154E-01 2.58462E-26
9.54981E-01 2.49105E-26
9.56773E-01 2.39997E-26
9.58530E-01 2.31133E-26
9.60252E-01 2.22511E-26
9.61940E-01 2.14125E-26
9.63592E-01 2.05972E-26
9.65209E-01 1.98049E-26
9.66790E-01 1.90353E-26
9.68336E-01 1.82879E-26
9.69846E-01 1.75626E-26
9.71321E-01 1.68589E-26
9.72759E-01 1.61766E-26
9.74162E-01 1.55153E-26
9.75528E-01 1.48749E-26
9.76858E-01 1.42550E-26
9.78152E-01 1.36554E-26
9.79410E-01 1.30758E-26
9.80631E-01 1.25160E-26
9.81815E-01 1.19758E-26
9.82963E-01 1.14548E-26
9.84074E-01 1.09529E-26
9.85148E-01 1.04700E-26
9.86185E-01 1.00057E-26
9.87185E-01 9.55994E-27
9.88148E-01 9.13248E-27
9.89074E-01 8.72316E-27
9.89962E-01 8.33180E-27
9.90814E-01 7.95826E-27
9.91627E-01 7.60236E-27
9.92404E-01 7.26398E-27
9.93143E-01 6.94297E-27
9.93844E-01 6.63919E-27
9.94508E-01 6.35253E-27
9.95134E-01 6.08286E-27
9.95722E-01 5.83008E-27
9.96273E-01 5.59409E-27
9.96786E-01 5.37478E-27
9.97261E-01 5.17207E-27
9.97698E-01 4.98588E-27
9.98097E-01 4.81614E-27
9.98459E-01 4.66276E-27
9.98782E-01 4.52570E-27
9.99067E-01 4.40489E-27
9.99315E-01 4.30028E-27
9.99524E-01 4.21184E-27
9.99695E-01 4.13953E-27
9.99829E-01 4.08332E-27
9.99924E-01 4.04319E-27
9.99981E-01 4.01911E-27
1.00000E+00 4.01109E-27
