 #
 # Subroutine ELSEPA. Elastic scattering of electrons and positrons
 #                    by neutral atoms and positive ions
 #
 # Projectile: electron
 # Kinetic energy = 3.00000E+07 eV = 1.10248E+06 a.u.
 #
 # WARNING: High-energy factorization with free-atom DF screening.
 #          Absorption, polarization and exchange corrections are
 #          switched off.
 #          Phase shifts are calculated for the bare nucleus.
 #          Scattering amplitudes are not evaluated.
 #
 # Element: Sr,  Z =  38,  atomic weight = 8.76200E+01 g/mol
 #
 # Nuclear model: Fermi distribution
 #                Average radius = 4.75246E-13 cm
 #                Skin thickness = 5.46000E-14 cm
 #
 # Number of electrons = 38
 #
 # Total elastic cross section = 3.76162E-18 cm**2 = 1.34330E-01 a0**2
 # 1st transport cross section = 3.00972E-24 cm**2 = 1.07479E-07 a0**2
 # 2nd transport cross section = 8.70385E-24 cm**2 = 3.10820E-07 a0**2
 #
 #
 # Differential cross section:                       MU=(1-COS(THETA))/2
 #
 #  THETA        MU          DCS          DCS        Sherman      error
 #  (deg)                 (cm**2/sr)   (a0**2/sr)    function
 #----------------------------------------------------------------------
0.00000E+00 6.03471E-11
7.61557E-13 6.03148E-11
1.18994E-12 6.02968E-11
1.71346E-12 6.02747E-11
2.33225E-12 6.02486E-11
3.04617E-12 6.02186E-11
3.85530E-12 6.01846E-11
4.75964E-12 6.01466E-11
5.75917E-12 6.01047E-11
6.85391E-12 6.00588E-11
8.04379E-12 6.00090E-11
9.32893E-12 5.99553E-11
1.07092E-11 5.98978E-11
1.21847E-11 5.98363E-11
1.37554E-11 5.97710E-11
1.54213E-11 5.97018E-11
1.71823E-11 5.96288E-11
1.90386E-11 5.95521E-11
2.09900E-11 5.94715E-11
2.30367E-11 5.93872E-11
2.51785E-11 5.92992E-11
2.74156E-11 5.92075E-11
2.97478E-11 5.91121E-11
3.21752E-11 5.90131E-11
3.46979E-11 5.89105E-11
3.73157E-11 5.88043E-11
4.00286E-11 5.86945E-11
4.28368E-11 5.85812E-11
4.57402E-11 5.84644E-11
4.87388E-11 5.83442E-11
5.18325E-11 5.82205E-11
5.50215E-11 5.80935E-11
5.83057E-11 5.79631E-11
6.16850E-11 5.78294E-11
6.51595E-11 5.76924E-11
6.87293E-11 5.75522E-11
7.23943E-11 5.74088E-11
7.61544E-11 5.72623E-11
1.18991E-10 5.56325E-11
1.71347E-10 5.37360E-11
2.33223E-10 5.16208E-11
3.04617E-10 4.93499E-11
3.85531E-10 4.69360E-11
4.75965E-10 4.44793E-11
5.75917E-10 4.19716E-11
6.85389E-10 3.94929E-11
8.04380E-10 3.70475E-11
9.32891E-10 3.46757E-11
1.07092E-09 3.24017E-11
1.21847E-09 3.02209E-11
1.37554E-09 2.81803E-11
1.54213E-09 2.62354E-11
1.71823E-09 2.44510E-11
1.90386E-09 2.27672E-11
2.09900E-09 2.12228E-11
2.30367E-09 1.97873E-11
2.51785E-09 1.84670E-11
2.74156E-09 1.72550E-11
2.97478E-09 1.61345E-11
3.21752E-09 1.51160E-11
3.46978E-09 1.41692E-11
3.73156E-09 1.33133E-11
4.00286E-09 1.25180E-11
4.28368E-09 1.17925E-11
4.57402E-09 1.11220E-11
4.87388E-09 1.05053E-11
5.18326E-09 9.93685E-12
5.50215E-09 9.41013E-12
5.83057E-09 8.92476E-12
6.16850E-09 8.47253E-12
6.51596E-09 8.05464E-12
6.87293E-09 7.66436E-12
7.23942E-09 7.30118E-12
7.61544E-09 6.96156E-12
1.18991E-08 4.50569E-12
1.71347E-08 3.05835E-12
2.33223E-08 2.13684E-12
3.04617E-08 1.51297E-12
3.85531E-08 1.12091E-12
4.75965E-08 8.37005E-13
5.75917E-08 6.45667E-13
6.85389E-08 5.05712E-13
8.04380E-08 4.04442E-13
9.32891E-08 3.28185E-13
1.07092E-07 2.69519E-13
1.21847E-07 2.24174E-13
1.37554E-07 1.87410E-13
1.54213E-07 1.58529E-13
1.71823E-07 1.34166E-13
1.90386E-07 1.14617E-13
2.09900E-07 9.81008E-14
2.30367E-07 8.44543E-14
2.51785E-07 7.29512E-14
2.74156E-07 6.32335E-14
2.97478E-07 5.50583E-14
3.21752E-07 4.80391E-14
3.46978E-07 4.21296E-14
3.73156E-07 3.70032E-14
4.00286E-07 3.26523E-14
4.28368E-07 2.88846E-14
4.57402E-07 2.56458E-14
4.87388E-07 2.28386E-14
5.18325E-07 2.04006E-14
5.50215E-07 1.82813E-14
5.83057E-07 1.64263E-14
6.16850E-07 1.48065E-14
6.51596E-07 1.33756E-14
6.87293E-07 1.21181E-14
7.23942E-07 1.10054E-14
7.61543E-07 1.00204E-14
1.18991E-06 4.39582E-15
1.71347E-06 2.24113E-15
2.33223E-06 1.26127E-15
3.04617E-06 7.60945E-16
3.85531E-06 4.84559E-16
4.75964E-06 3.22518E-16
5.75916E-06 2.22543E-16
6.85388E-06 1.58391E-16
8.04378E-06 1.15760E-16
9.32888E-06 8.65483E-17
1.07092E-05 6.60102E-17
1.21846E-05 5.12262E-17
1.37553E-05 4.03665E-17
1.54212E-05 3.22443E-17
1.71822E-05 2.60685E-17
1.90385E-05 2.13031E-17
2.09899E-05 1.75859E-17
2.30365E-05 1.46453E-17
2.51783E-05 1.22943E-17
2.74153E-05 1.03958E-17
2.97475E-05 8.84986E-18
3.21749E-05 7.58096E-18
3.46974E-05 6.53171E-18
3.73152E-05 5.65823E-18
4.00281E-05 4.92615E-18
4.28362E-05 4.30883E-18
4.57395E-05 3.78523E-18
4.87380E-05 3.33866E-18
5.18317E-05 2.95595E-18
5.50205E-05 2.62642E-18
5.83045E-05 2.34151E-18
6.16838E-05 2.09420E-18
6.51582E-05 1.87869E-18
6.87277E-05 1.69023E-18
7.23925E-05 1.52483E-18
7.61524E-05 1.37926E-18
9.21439E-05 9.44843E-19
1.09658E-04 6.68697E-19
1.28695E-04 4.86471E-19
1.49255E-04 3.62277E-19
1.71338E-04 2.75318E-19
1.94942E-04 2.12953E-19
2.20070E-04 1.67295E-19
2.46720E-04 1.33249E-19
2.74892E-04 1.07442E-19
3.04586E-04 8.75969E-20
3.35803E-04 7.21314E-20
3.68542E-04 5.99365E-20
4.02802E-04 5.02153E-20
4.38585E-04 4.23893E-20
4.75889E-04 3.60320E-20
5.14715E-04 3.08243E-20
5.55063E-04 2.65256E-20
5.96931E-04 2.29517E-20
6.40321E-04 1.99608E-20
6.85233E-04 1.74423E-20
7.31665E-04 1.53094E-20
7.79618E-04 1.34933E-20
8.29092E-04 1.19392E-20
8.80086E-04 1.06029E-20
9.32601E-04 9.44874E-21
9.86636E-04 8.44776E-21
1.04219E-03 7.57615E-21
1.09927E-03 6.81433E-21
1.15786E-03 6.14612E-21
1.21797E-03 5.55801E-21
1.27961E-03 5.03875E-21
1.34276E-03 4.57888E-21
1.40743E-03 4.17042E-21
1.47362E-03 3.80662E-21
1.54133E-03 3.48173E-21
1.61056E-03 3.19086E-21
1.68131E-03 2.92983E-21
1.75357E-03 2.69502E-21
1.82735E-03 2.48333E-21
1.90265E-03 2.29209E-21
1.97947E-03 2.11895E-21
2.05780E-03 1.96191E-21
2.13765E-03 1.81919E-21
2.21902E-03 1.68926E-21
2.30190E-03 1.57076E-21
2.38630E-03 1.46250E-21
2.47222E-03 1.36344E-21
2.55965E-03 1.27265E-21
2.64859E-03 1.18932E-21
2.73905E-03 1.11272E-21
2.83103E-03 1.04221E-21
2.92452E-03 9.77219E-22
3.01952E-03 9.17235E-22
3.11604E-03 8.61796E-22
3.21407E-03 8.10499E-22
3.31362E-03 7.62976E-22
3.41468E-03 7.18899E-22
3.51725E-03 6.77971E-22
3.62133E-03 6.39925E-22
3.72692E-03 6.04521E-22
3.83403E-03 5.71540E-22
3.94265E-03 5.40788E-22
4.05278E-03 5.12084E-22
4.16442E-03 4.85268E-22
4.27757E-03 4.60191E-22
4.39223E-03 4.36718E-22
4.50840E-03 4.14730E-22
4.62608E-03 3.94114E-22
4.74527E-03 3.74769E-22
4.86597E-03 3.56601E-22
4.98817E-03 3.39525E-22
5.11188E-03 3.23463E-22
5.23711E-03 3.08344E-22
5.36383E-03 2.94102E-22
5.49207E-03 2.80676E-22
5.62181E-03 2.68012E-22
5.75306E-03 2.56056E-22
5.88581E-03 2.44762E-22
6.02007E-03 2.34087E-22
6.15583E-03 2.23991E-22
6.29310E-03 2.14435E-22
6.43187E-03 2.05386E-22
6.57214E-03 1.96811E-22
6.71392E-03 1.88681E-22
6.85720E-03 1.80968E-22
7.00198E-03 1.73647E-22
7.14827E-03 1.66695E-22
7.29605E-03 1.60088E-22
7.44534E-03 1.53807E-22
7.59612E-03 1.47833E-22
7.97965E-03 1.34123E-22
8.37255E-03 1.21973E-22
8.77480E-03 1.11174E-22
9.18641E-03 1.01549E-22
9.60736E-03 9.29480E-23
1.00376E-02 8.52428E-23
1.04773E-02 7.83226E-23
1.09262E-02 7.20943E-23
1.13844E-02 6.64750E-23
1.18520E-02 6.13952E-23
1.23288E-02 5.67936E-23
1.28150E-02 5.26169E-23
1.33104E-02 4.88188E-23
1.38150E-02 4.53587E-23
1.43290E-02 4.22011E-23
1.48521E-02 3.93146E-23
1.53845E-02 3.66717E-23
1.59262E-02 3.42481E-23
1.64770E-02 3.20222E-23
1.70371E-02 2.99748E-23
1.76063E-02 2.80892E-23
1.81848E-02 2.63500E-23
1.87724E-02 2.47438E-23
1.93692E-02 2.32587E-23
1.99751E-02 2.18836E-23
2.05901E-02 2.06090E-23
2.12143E-02 1.94262E-23
2.18476E-02 1.83273E-23
2.24900E-02 1.73052E-23
2.31415E-02 1.63535E-23
2.38021E-02 1.54666E-23
2.44717E-02 1.46392E-23
2.51504E-02 1.38664E-23
2.58382E-02 1.31441E-23
2.65349E-02 1.24683E-23
2.72407E-02 1.18355E-23
2.79555E-02 1.12424E-23
2.86793E-02 1.06861E-23
2.94120E-02 1.01637E-23
3.01537E-02 9.67299E-24
3.09043E-02 9.21153E-24
3.16639E-02 8.77728E-24
3.24324E-02 8.36835E-24
3.32098E-02 7.98296E-24
3.39961E-02 7.61951E-24
3.47912E-02 7.27651E-24
3.55952E-02 6.95259E-24
3.64081E-02 6.64648E-24
3.72297E-02 6.35703E-24
3.80602E-02 6.08316E-24
3.88995E-02 5.82385E-24
3.97476E-02 5.57820E-24
4.06044E-02 5.34535E-24
4.14700E-02 5.12450E-24
4.23443E-02 4.91491E-24
4.32273E-02 4.71590E-24
4.41190E-02 4.52684E-24
4.50194E-02 4.34714E-24
4.59284E-02 4.17623E-24
4.68461E-02 4.01361E-24
4.87074E-02 3.71136E-24
5.06030E-02 3.43692E-24
5.25328E-02 3.18727E-24
5.44967E-02 2.95976E-24
5.64946E-02 2.75209E-24
5.85262E-02 2.56219E-24
6.05914E-02 2.38829E-24
6.26901E-02 2.22878E-24
6.48222E-02 2.08226E-24
6.69873E-02 1.94748E-24
6.91854E-02 1.82332E-24
7.14163E-02 1.70881E-24
7.36799E-02 1.60304E-24
7.59760E-02 1.50524E-24
7.83043E-02 1.41470E-24
8.06647E-02 1.33077E-24
8.30571E-02 1.25289E-24
8.54812E-02 1.18055E-24
8.79369E-02 1.11327E-24
9.04240E-02 1.05064E-24
9.29422E-02 9.92278E-25
9.54915E-02 9.37843E-25
9.80716E-02 8.87021E-25
1.00682E-01 8.39530E-25
1.03323E-01 7.95111E-25
1.05995E-01 7.53531E-25
1.08696E-01 7.14575E-25
1.11427E-01 6.78047E-25
1.14188E-01 6.43770E-25
1.16978E-01 6.11579E-25
1.19797E-01 5.81324E-25
1.22645E-01 5.52870E-25
1.25522E-01 5.26088E-25
1.28428E-01 5.00864E-25
1.31361E-01 4.77090E-25
1.34323E-01 4.54669E-25
1.37313E-01 4.33509E-25
1.40330E-01 4.13528E-25
1.43375E-01 3.94648E-25
1.46447E-01 3.76797E-25
1.49545E-01 3.59910E-25
1.52671E-01 3.43925E-25
1.55823E-01 3.28786E-25
1.59001E-01 3.14440E-25
1.62205E-01 3.00839E-25
1.65435E-01 2.87937E-25
1.68690E-01 2.75691E-25
1.71970E-01 2.64063E-25
1.75276E-01 2.53016E-25
1.78606E-01 2.42516E-25
1.81961E-01 2.32532E-25
1.85340E-01 2.23033E-25
1.88743E-01 2.13992E-25
1.92169E-01 2.05383E-25
1.95619E-01 1.97183E-25
1.99092E-01 1.89367E-25
2.02589E-01 1.81916E-25
2.06107E-01 1.74810E-25
2.09649E-01 1.68029E-25
2.13212E-01 1.61556E-25
2.16797E-01 1.55376E-25
2.20404E-01 1.49472E-25
2.24032E-01 1.43830E-25
2.27680E-01 1.38437E-25
2.31350E-01 1.33280E-25
2.35040E-01 1.28347E-25
2.38751E-01 1.23626E-25
2.42481E-01 1.19107E-25
2.46231E-01 1.14780E-25
2.50000E-01 1.10635E-25
2.53788E-01 1.06664E-25
2.57595E-01 1.02858E-25
2.61421E-01 9.92093E-26
2.65264E-01 9.57100E-26
2.69126E-01 9.23531E-26
2.73005E-01 8.91320E-26
2.76901E-01 8.60403E-26
2.80814E-01 8.30720E-26
2.84744E-01 8.02214E-26
2.88691E-01 7.74831E-26
2.92653E-01 7.48520E-26
2.96632E-01 7.23233E-26
3.00625E-01 6.98923E-26
3.04634E-01 6.75548E-26
3.08658E-01 6.53065E-26
3.12697E-01 6.31435E-26
3.16749E-01 6.10622E-26
3.20816E-01 5.90590E-26
3.24896E-01 5.71304E-26
3.28990E-01 5.52734E-26
3.33097E-01 5.34848E-26
3.37216E-01 5.17619E-26
3.41348E-01 5.01017E-26
3.45492E-01 4.85017E-26
3.49647E-01 4.69594E-26
3.53814E-01 4.54724E-26
3.57992E-01 4.40385E-26
3.62181E-01 4.26554E-26
3.66381E-01 4.13212E-26
3.70590E-01 4.00338E-26
3.74810E-01 3.87913E-26
3.79039E-01 3.75921E-26
3.83277E-01 3.64343E-26
3.87524E-01 3.53164E-26
3.91780E-01 3.42367E-26
3.96044E-01 3.31938E-26
4.00316E-01 3.21863E-26
4.04596E-01 3.12128E-26
4.08882E-01 3.02720E-26
4.13176E-01 2.93626E-26
4.17476E-01 2.84835E-26
4.21783E-01 2.76335E-26
4.26095E-01 2.68116E-26
4.30413E-01 2.60166E-26
4.34737E-01 2.52476E-26
4.39065E-01 2.45036E-26
4.43398E-01 2.37837E-26
4.47736E-01 2.30871E-26
4.52077E-01 2.24128E-26
4.56422E-01 2.17601E-26
4.60770E-01 2.11281E-26
4.65122E-01 2.05162E-26
4.69476E-01 1.99236E-26
4.73832E-01 1.93497E-26
4.78190E-01 1.87938E-26
4.82550E-01 1.82552E-26
4.86912E-01 1.77333E-26
4.91274E-01 1.72276E-26
4.95637E-01 1.67375E-26
5.00000E-01 1.62625E-26
5.04363E-01 1.58020E-26
5.08726E-01 1.53555E-26
5.13088E-01 1.49226E-26
5.17450E-01 1.45028E-26
5.21810E-01 1.40957E-26
5.26168E-01 1.37008E-26
5.30524E-01 1.33177E-26
5.34878E-01 1.29460E-26
5.39230E-01 1.25854E-26
5.43578E-01 1.22355E-26
5.47923E-01 1.18959E-26
5.52264E-01 1.15664E-26
5.56602E-01 1.12464E-26
5.60935E-01 1.09359E-26
5.65263E-01 1.06344E-26
5.69587E-01 1.03416E-26
5.73905E-01 1.00573E-26
5.78217E-01 9.78125E-27
5.82524E-01 9.51312E-27
5.86824E-01 9.25267E-27
5.91118E-01 8.99967E-27
5.95404E-01 8.75388E-27
5.99684E-01 8.51507E-27
6.03956E-01 8.28303E-27
6.08220E-01 8.05754E-27
6.12476E-01 7.83841E-27
6.16723E-01 7.62543E-27
6.20961E-01 7.41841E-27
6.25190E-01 7.21717E-27
6.29410E-01 7.02154E-27
6.33619E-01 6.83133E-27
6.37819E-01 6.64640E-27
6.42008E-01 6.46657E-27
6.46186E-01 6.29169E-27
6.50353E-01 6.12162E-27
6.54508E-01 5.95621E-27
6.58652E-01 5.79532E-27
6.62784E-01 5.63881E-27
6.66903E-01 5.48656E-27
6.71010E-01 5.33843E-27
6.75104E-01 5.19431E-27
6.79184E-01 5.05409E-27
6.83251E-01 4.91763E-27
6.87303E-01 4.78484E-27
6.91342E-01 4.65561E-27
6.95366E-01 4.52984E-27
6.99375E-01 4.40742E-27
7.03368E-01 4.28825E-27
7.07347E-01 4.17225E-27
7.11309E-01 4.05933E-27
7.15256E-01 3.94938E-27
7.19186E-01 3.84234E-27
7.23099E-01 3.73812E-27
7.26995E-01 3.63663E-27
7.30874E-01 3.53781E-27
7.34736E-01 3.44157E-27
7.38579E-01 3.34784E-27
7.42405E-01 3.25656E-27
7.46212E-01 3.16765E-27
7.50000E-01 3.08105E-27
7.53769E-01 2.99669E-27
7.57519E-01 2.91452E-27
7.61249E-01 2.83447E-27
7.64960E-01 2.75648E-27
7.68650E-01 2.68050E-27
7.72320E-01 2.60647E-27
7.75968E-01 2.53435E-27
7.79596E-01 2.46407E-27
7.83203E-01 2.39558E-27
7.86788E-01 2.32885E-27
7.90351E-01 2.26382E-27
7.93893E-01 2.20044E-27
7.97411E-01 2.13868E-27
8.00908E-01 2.07849E-27
8.04381E-01 2.01982E-27
8.07831E-01 1.96264E-27
8.11257E-01 1.90691E-27
8.14660E-01 1.85259E-27
8.18039E-01 1.79964E-27
8.21394E-01 1.74802E-27
8.24724E-01 1.69771E-27
8.28030E-01 1.64866E-27
8.31310E-01 1.60085E-27
8.34565E-01 1.55425E-27
8.37795E-01 1.50881E-27
8.40999E-01 1.46452E-27
8.44177E-01 1.42134E-27
8.47329E-01 1.37924E-27
8.50455E-01 1.33820E-27
8.53553E-01 1.29819E-27
8.56625E-01 1.25918E-27
8.59670E-01 1.22115E-27
8.62687E-01 1.18407E-27
8.65677E-01 1.14793E-27
8.68639E-01 1.11269E-27
8.71572E-01 1.07833E-27
8.74478E-01 1.04484E-27
8.77355E-01 1.01219E-27
8.80203E-01 9.80357E-28
8.83022E-01 9.49327E-28
8.85812E-01 9.19077E-28
8.88573E-01 8.89589E-28
8.91304E-01 8.60845E-28
8.94005E-01 8.32827E-28
8.96677E-01 8.05517E-28
8.99318E-01 7.78898E-28
9.01928E-01 7.52955E-28
9.04508E-01 7.27670E-28
9.07058E-01 7.03030E-28
9.09576E-01 6.79018E-28
9.12063E-01 6.55620E-28
9.14519E-01 6.32821E-28
9.16943E-01 6.10609E-28
9.19335E-01 5.88969E-28
9.21696E-01 5.67889E-28
9.24024E-01 5.47356E-28
9.26320E-01 5.27358E-28
9.28584E-01 5.07882E-28
9.30815E-01 4.88918E-28
9.33013E-01 4.70453E-28
9.35178E-01 4.52477E-28
9.37310E-01 4.34980E-28
9.39409E-01 4.17951E-28
9.41474E-01 4.01379E-28
9.43505E-01 3.85256E-28
9.45503E-01 3.69572E-28
9.47467E-01 3.54318E-28
9.49397E-01 3.39484E-28
9.51293E-01 3.25063E-28
9.53154E-01 3.11046E-28
9.54981E-01 2.97425E-28
9.56773E-01 2.84191E-28
9.58530E-01 2.71338E-28
9.60252E-01 2.58858E-28
9.61940E-01 2.46743E-28
9.63592E-01 2.34988E-28
9.65209E-01 2.23584E-28
9.66790E-01 2.12527E-28
9.68336E-01 2.01808E-28
9.69846E-01 1.91423E-28
9.71321E-01 1.81366E-28
9.72759E-01 1.71630E-28
9.74162E-01 1.62210E-28
9.75528E-01 1.53102E-28
9.76858E-01 1.44299E-28
9.78152E-01 1.35797E-28
9.79410E-01 1.27591E-28
9.80631E-01 1.19676E-28
9.81815E-01 1.12049E-28
9.82963E-01 1.04705E-28
9.84074E-01 9.76387E-29
9.85148E-01 9.08477E-29
9.86185E-01 8.43277E-29
9.87185E-01 7.80750E-29
9.88148E-01 7.20863E-29
9.89074E-01 6.63582E-29
9.89962E-01 6.08875E-29
9.90814E-01 5.56713E-29
9.91627E-01 5.07065E-29
9.92404E-01 4.59906E-29
9.93143E-01 4.15209E-29
9.93844E-01 3.72948E-29
9.94508E-01 3.33102E-29
9.95134E-01 2.95648E-29
9.95722E-01 2.60566E-29
9.96273E-01 2.27836E-29
9.96786E-01 1.97441E-29
9.97261E-01 1.69363E-29
9.97698E-01 1.43587E-29
9.98097E-01 1.20100E-29
9.98459E-01 9.88885E-30
9.98782E-01 7.99405E-30
9.99067E-01 6.32460E-30
9.99315E-01 4.87958E-30
9.99524E-01 3.65821E-30
9.99695E-01 2.65981E-30
9.99829E-01 1.88384E-30
9.99924E-01 1.32988E-30
9.99981E-01 9.97624E-31
1.00000E+00 8.86891E-31
