 #
 # Subroutine ELSEPA. Elastic scattering of electrons and positrons
 #                    by neutral atoms and positive ions
 #
 # Projectile: electron
 # Kinetic energy = 5.00000E+08 eV = 1.83747E+07 a.u.
 #
 # WARNING: High-energy factorization with free-atom DF screening.
 #          Absorption, polarization and exchange corrections are
 #          switched off.
 #          Phase shifts are calculated for the bare nucleus.
 #          Scattering amplitudes are not evaluated.
 #
 # Element: Sr,  Z =  38,  atomic weight = 8.76200E+01 g/mol
 #
 # Nuclear model: Fermi distribution
 #                Average radius = 4.75246E-13 cm
 #                Skin thickness = 5.46000E-14 cm
 #
 # Number of electrons = 38
 #
 # Total elastic cross section = 3.74919E-18 cm**2 = 1.33886E-01 a0**2
 # 1st transport cross section = 1.15968E-26 cm**2 = 4.14128E-10 a0**2
 # 2nd transport cross section = 3.47756E-26 cm**2 = 1.24186E-09 a0**2
 #
 #
 # Differential cross section:                       MU=(1-COS(THETA))/2
 #
 #  THETA        MU          DCS          DCS        Sherman      error
 #  (deg)                 (cm**2/sr)   (a0**2/sr)    function
 #----------------------------------------------------------------------
0.00000E+00 1.62394E-08
7.61557E-13 1.41463E-08
1.18994E-12 1.31507E-08
1.71346E-12 1.20739E-08
2.33225E-12 1.09717E-08
3.04617E-12 9.88891E-09
3.85530E-12 8.85897E-09
4.75964E-12 7.90410E-09
5.75917E-12 7.03661E-09
6.85391E-12 6.26263E-09
8.04379E-12 5.57932E-09
9.32893E-12 4.97994E-09
1.07092E-11 4.45701E-09
1.21847E-11 4.00213E-09
1.37554E-11 3.60681E-09
1.54213E-11 3.26300E-09
1.71823E-11 2.96339E-09
1.90386E-11 2.70145E-09
2.09900E-11 2.47157E-09
2.30367E-11 2.26890E-09
2.51785E-11 2.08939E-09
2.74156E-11 1.92956E-09
2.97478E-11 1.78643E-09
3.21752E-11 1.65766E-09
3.46979E-11 1.54129E-09
3.73157E-11 1.43570E-09
4.00286E-11 1.33950E-09
4.28368E-11 1.25156E-09
4.57402E-11 1.17092E-09
4.87388E-11 1.09675E-09
5.18325E-11 1.02836E-09
5.50215E-11 9.65176E-10
5.83057E-11 9.06579E-10
6.16850E-11 8.52228E-10
6.51595E-11 8.01761E-10
6.87293E-11 7.54841E-10
7.23943E-11 7.11173E-10
7.61544E-11 6.70495E-10
1.18991E-10 3.81551E-10
1.71347E-10 2.35105E-10
2.33223E-10 1.53764E-10
3.04617E-10 1.05875E-10
3.85531E-10 7.59020E-11
4.75965E-10 5.60575E-11
5.75917E-10 4.23029E-11
6.85389E-10 3.24029E-11
8.04380E-10 2.51300E-11
9.32891E-10 1.97112E-11
1.07092E-09 1.56200E-11
1.21847E-09 1.24978E-11
1.37554E-09 1.00926E-11
1.54213E-09 8.22379E-12
1.71823E-09 6.75970E-12
1.90386E-09 5.60329E-12
2.09900E-09 4.68259E-12
2.30367E-09 3.94385E-12
2.51785E-09 3.34503E-12
2.74156E-09 2.85679E-12
2.97478E-09 2.45590E-12
3.21752E-09 2.12420E-12
3.46978E-09 1.84773E-12
3.73156E-09 1.61563E-12
4.00286E-09 1.41948E-12
4.28368E-09 1.25267E-12
4.57402E-09 1.10998E-12
4.87388E-09 9.87294E-13
5.18326E-09 8.81281E-13
5.50215E-09 7.89263E-13
5.83057E-09 7.09016E-13
6.16850E-09 6.38779E-13
6.51596E-09 5.77070E-13
6.87293E-09 5.22653E-13
7.23942E-09 4.74498E-13
7.61544E-09 4.31749E-13
1.18991E-08 1.85810E-13
1.71347E-08 9.21088E-14
2.33223E-08 5.05322E-14
3.04617E-08 2.99458E-14
3.85531E-08 1.88562E-14
4.75965E-08 1.24622E-14
5.75917E-08 8.56647E-15
6.85389E-08 6.08271E-15
8.04380E-08 4.43838E-15
9.32891E-08 3.31447E-15
1.07092E-07 2.52494E-15
1.21847E-07 1.95714E-15
1.37554E-07 1.54033E-15
1.54213E-07 1.22876E-15
1.71823E-07 9.92078E-16
1.90386E-07 8.09697E-16
2.09900E-07 6.67334E-16
2.30367E-07 5.54898E-16
2.51785E-07 4.65153E-16
2.74156E-07 3.92823E-16
2.97478E-07 3.34008E-16
3.21752E-07 2.85788E-16
3.46978E-07 2.45957E-16
3.73156E-07 2.12823E-16
4.00286E-07 1.85081E-16
4.28368E-07 1.61711E-16
4.57402E-07 1.41913E-16
4.87388E-07 1.25052E-16
5.18325E-07 1.10620E-16
5.50215E-07 9.82105E-17
5.83057E-07 8.74919E-17
6.16850E-07 7.81955E-17
6.51596E-07 7.01009E-17
6.87293E-07 6.30265E-17
7.23942E-07 5.68220E-17
7.61543E-07 5.13621E-17
1.18991E-06 2.10736E-17
1.71347E-06 1.01721E-17
2.33223E-06 5.49381E-18
3.04617E-06 3.22169E-18
3.85531E-06 2.01192E-18
4.75964E-06 1.32037E-18
5.75916E-06 9.02041E-19
6.85388E-06 6.37035E-19
8.04378E-06 4.62593E-19
9.32888E-06 3.43986E-19
1.07092E-05 2.61074E-19
1.21846E-05 2.01708E-19
1.37553E-05 1.58300E-19
1.54212E-05 1.25967E-19
1.71822E-05 1.01485E-19
1.90385E-05 8.26624E-20
2.09899E-05 6.80314E-20
2.30365E-05 5.64969E-20
2.51783E-05 4.73030E-20
2.74153E-05 3.99026E-20
2.97475E-05 3.38929E-20
3.21749E-05 2.89733E-20
3.46974E-05 2.49159E-20
3.73152E-05 2.15459E-20
4.00281E-05 1.87280E-20
4.28362E-05 1.63566E-20
4.57395E-05 1.43490E-20
4.87380E-05 1.26401E-20
5.18317E-05 1.11780E-20
5.50205E-05 9.92109E-21
5.83045E-05 8.83597E-21
6.16838E-05 7.89531E-21
6.51582E-05 7.07673E-21
6.87277E-05 6.36172E-21
7.23925E-05 5.73491E-21
7.61524E-05 5.17213E-21
9.21439E-05 3.53058E-21
1.09658E-04 2.49070E-21
1.28695E-04 1.80644E-21
1.49255E-04 1.34123E-21
1.71338E-04 1.01619E-21
1.94942E-04 7.83548E-22
2.20070E-04 6.13543E-22
2.46720E-04 4.87007E-22
2.74892E-04 3.91268E-22
3.04586E-04 3.17779E-22
3.35803E-04 2.60616E-22
3.68542E-04 2.15629E-22
4.02802E-04 1.79842E-22
4.38585E-04 1.51092E-22
4.75889E-04 1.27789E-22
5.14715E-04 1.08745E-22
5.55063E-04 9.30638E-23
5.96931E-04 8.00601E-23
6.40321E-04 6.92072E-23
6.85233E-04 6.00945E-23
7.31665E-04 5.23999E-23
7.79618E-04 4.58687E-23
8.29092E-04 4.02977E-23
8.80086E-04 3.55240E-23
9.32601E-04 3.14158E-23
9.86636E-04 2.78659E-23
1.04219E-03 2.47869E-23
1.09927E-03 2.21065E-23
1.15786E-03 1.97653E-23
1.21797E-03 1.77137E-23
1.27961E-03 1.59104E-23
1.34276E-03 1.43209E-23
1.40743E-03 1.29159E-23
1.47362E-03 1.16707E-23
1.54133E-03 1.05646E-23
1.61056E-03 9.57951E-24
1.68131E-03 8.70035E-24
1.75357E-03 7.91403E-24
1.82735E-03 7.20930E-24
1.90265E-03 6.57647E-24
1.97947E-03 6.00714E-24
2.05780E-03 5.49403E-24
2.13765E-03 5.03079E-24
2.21902E-03 4.61191E-24
2.30190E-03 4.23253E-24
2.38630E-03 3.88843E-24
2.47222E-03 3.57587E-24
2.55965E-03 3.29157E-24
2.64859E-03 3.03263E-24
2.73905E-03 2.79650E-24
2.83103E-03 2.58089E-24
2.92452E-03 2.38381E-24
3.01952E-03 2.20345E-24
3.11604E-03 2.03821E-24
3.21407E-03 1.88668E-24
3.31362E-03 1.74757E-24
3.41468E-03 1.61974E-24
3.51725E-03 1.50218E-24
3.62133E-03 1.39396E-24
3.72692E-03 1.29425E-24
3.83403E-03 1.20231E-24
3.94265E-03 1.11747E-24
4.05278E-03 1.03912E-24
4.16442E-03 9.66704E-25
4.27757E-03 8.99732E-25
4.39223E-03 8.37751E-25
4.50840E-03 7.80351E-25
4.62608E-03 7.27162E-25
4.74527E-03 6.77843E-25
4.86597E-03 6.32087E-25
4.98817E-03 5.89613E-25
5.11188E-03 5.50164E-25
5.23711E-03 5.13506E-25
5.36383E-03 4.79424E-25
5.49207E-03 4.47722E-25
5.62181E-03 4.18221E-25
5.75306E-03 3.90755E-25
5.88581E-03 3.65174E-25
6.02007E-03 3.41339E-25
6.15583E-03 3.19121E-25
6.29310E-03 2.98403E-25
6.43187E-03 2.79078E-25
6.57214E-03 2.61045E-25
6.71392E-03 2.44212E-25
6.85720E-03 2.28496E-25
7.00198E-03 2.13817E-25
7.14827E-03 2.00103E-25
7.29605E-03 1.87287E-25
7.44534E-03 1.75307E-25
7.59612E-03 1.64107E-25
7.97965E-03 1.39176E-25
8.37255E-03 1.18064E-25
8.77480E-03 1.00167E-25
9.18641E-03 8.49802E-26
9.60736E-03 7.20842E-26
1.00376E-02 6.11269E-26
1.04773E-02 5.18127E-26
1.09262E-02 4.38931E-26
1.13844E-02 3.71584E-26
1.18520E-02 3.14315E-26
1.23288E-02 2.65624E-26
1.28150E-02 2.24240E-26
1.33104E-02 1.89081E-26
1.38150E-02 1.59231E-26
1.43290E-02 1.33905E-26
1.48521E-02 1.12438E-26
1.53845E-02 9.42607E-27
1.59262E-02 7.88872E-27
1.64770E-02 6.59028E-27
1.70371E-02 5.49526E-27
1.76063E-02 4.57335E-27
1.81848E-02 3.79861E-27
1.87724E-02 3.14887E-27
1.93692E-02 2.60516E-27
1.99751E-02 2.15128E-27
2.05901E-02 1.77336E-27
2.12143E-02 1.45959E-27
2.18476E-02 1.19987E-27
2.24900E-02 9.85594E-28
2.31415E-02 8.09431E-28
2.38021E-02 6.65148E-28
2.44717E-02 5.47451E-28
2.51504E-02 4.51852E-28
2.58382E-02 3.74551E-28
2.65349E-02 3.12340E-28
2.72407E-02 2.62518E-28
2.79555E-02 2.22815E-28
2.86793E-02 1.91328E-28
2.94120E-02 1.66471E-28
3.01537E-02 1.46924E-28
3.09043E-02 1.31596E-28
3.16639E-02 1.19585E-28
3.24324E-02 1.10155E-28
3.32098E-02 1.02706E-28
3.39961E-02 9.67530E-29
3.47912E-02 9.19074E-29
3.55952E-02 8.78615E-29
3.64081E-02 8.43742E-29
3.72297E-02 8.12593E-29
3.80602E-02 7.83760E-29
3.88995E-02 7.56205E-29
3.97476E-02 7.29184E-29
4.06044E-02 7.02194E-29
4.14700E-02 6.74918E-29
4.23443E-02 6.47187E-29
4.32273E-02 6.18942E-29
4.41190E-02 5.90211E-29
4.50194E-02 5.61077E-29
4.59284E-02 5.31668E-29
4.68461E-02 5.02136E-29
4.87074E-02 4.43370E-29
5.06030E-02 3.86117E-29
5.25328E-02 3.31589E-29
5.44967E-02 2.80765E-29
5.64946E-02 2.34349E-29
5.85262E-02 1.92770E-29
6.05914E-02 1.56205E-29
6.26901E-02 1.24623E-29
6.48222E-02 9.78228E-30
6.69873E-02 7.54813E-30
6.91854E-02 5.71932E-30
7.14163E-02 4.25056E-30
7.36799E-02 3.09477E-30
7.59760E-02 2.20538E-30
7.83043E-02 1.53807E-30
8.06647E-02 1.05193E-30
8.30571E-02 7.10250E-31
8.54812E-02 4.80894E-31
8.79369E-02 3.36380E-31
9.04240E-02 2.53760E-31
9.29422E-02 2.14327E-31
9.54915E-02 2.03228E-31
9.80716E-02 2.09008E-31
1.00682E-01 2.23137E-31
1.03323E-01 2.39537E-31
1.05995E-01 2.54133E-31
1.08696E-01 2.64441E-31
1.11427E-01 2.69199E-31
1.14188E-01 2.68048E-31
1.16978E-01 2.61266E-31
1.19797E-01 2.49541E-31
1.22645E-01 2.33803E-31
1.25522E-01 2.15081E-31
1.28428E-01 1.94405E-31
1.31361E-01 1.72739E-31
1.34323E-01 1.50930E-31
1.37313E-01 1.29687E-31
1.40330E-01 1.09570E-31
1.43375E-01 9.09912E-32
1.46447E-01 7.42246E-32
1.49545E-01 5.94230E-32
1.52671E-01 4.66351E-32
1.55823E-01 3.58251E-32
1.59001E-01 2.68919E-32
1.62205E-01 1.96875E-32
1.65435E-01 1.40327E-32
1.68690E-01 9.73190E-33
1.71970E-01 6.58385E-33
1.75276E-01 4.39158E-33
1.78606E-01 2.96911E-33
1.81961E-01 2.14647E-33
1.85340E-01 1.77278E-33
1.88743E-01 1.71788E-33
1.92169E-01 1.87271E-33
1.95619E-01 2.14864E-33
1.99092E-01 2.47620E-33
2.02589E-01 2.80323E-33
2.06107E-01 3.09276E-33
2.09649E-01 3.32077E-33
2.13212E-01 3.47389E-33
2.16797E-01 3.54729E-33
2.20404E-01 3.54259E-33
2.24032E-01 3.46616E-33
2.27680E-01 3.32747E-33
2.31350E-01 3.13781E-33
2.35040E-01 2.90925E-33
2.38751E-01 2.65377E-33
2.42481E-01 2.38264E-33
2.46231E-01 2.10601E-33
2.50000E-01 1.83261E-33
2.53788E-01 1.56962E-33
2.57595E-01 1.32267E-33
2.61421E-01 1.09585E-33
2.65264E-01 8.91836E-34
2.69126E-01 7.12064E-34
2.73005E-01 5.56896E-34
2.76901E-01 4.25808E-34
2.80814E-01 3.17582E-34
2.84744E-01 2.30486E-34
2.88691E-01 1.62435E-34
2.92653E-01 1.11138E-34
2.96632E-01 7.42238E-35
3.00625E-01 4.93381E-35
3.04634E-01 3.42279E-35
3.08658E-01 2.68004E-35
3.12697E-01 2.51645E-35
3.16749E-01 2.76564E-35
3.20816E-01 3.28511E-35
3.24896E-01 3.95628E-35
3.28990E-01 4.68363E-35
3.33097E-01 5.39311E-35
3.37216E-01 6.03017E-35
3.41348E-01 6.55740E-35
3.45492E-01 6.95211E-35
3.49647E-01 7.20383E-35
3.53814E-01 7.31193E-35
3.57992E-01 7.28335E-35
3.62181E-01 7.13057E-35
3.66381E-01 6.86983E-35
3.70590E-01 6.51954E-35
3.74810E-01 6.09901E-35
3.79039E-01 5.62744E-35
3.83277E-01 5.12307E-35
3.87524E-01 4.60261E-35
3.91780E-01 4.08084E-35
3.96044E-01 3.57039E-35
4.00316E-01 3.08162E-35
4.04596E-01 2.62266E-35
4.08882E-01 2.19946E-35
4.13176E-01 1.81602E-35
4.17476E-01 1.47456E-35
4.21783E-01 1.17573E-35
4.26095E-01 9.18912E-36
4.30413E-01 7.02431E-36
4.34737E-01 5.23795E-36
4.39065E-01 3.79922E-36
4.43398E-01 2.67338E-36
4.47736E-01 1.82352E-36
4.52077E-01 1.21209E-36
4.56422E-01 8.02101E-37
4.60770E-01 5.58156E-37
4.65122E-01 4.47190E-37
4.69476E-01 4.39018E-37
4.73832E-01 5.06664E-37
4.78190E-01 6.26560E-37
4.82550E-01 7.78571E-37
4.86912E-01 9.45927E-37
4.91274E-01 1.11505E-36
4.95637E-01 1.27535E-36
5.00000E-01 1.41889E-36
5.04363E-01 1.54016E-36
5.08726E-01 1.63569E-36
5.13088E-01 1.70376E-36
5.17450E-01 1.74411E-36
5.21810E-01 1.75762E-36
5.26168E-01 1.74607E-36
5.30524E-01 1.71185E-36
5.34878E-01 1.65782E-36
5.39230E-01 1.58705E-36
5.43578E-01 1.50275E-36
5.47923E-01 1.40805E-36
5.52264E-01 1.30598E-36
5.56602E-01 1.19935E-36
5.60935E-01 1.09071E-36
5.65263E-01 9.82307E-37
5.69587E-01 8.76086E-37
5.73905E-01 7.73656E-37
5.78217E-01 6.76317E-37
5.82524E-01 5.85071E-37
5.86824E-01 5.00629E-37
5.91118E-01 4.23461E-37
5.95404E-01 3.53806E-37
5.99684E-01 2.91707E-37
6.03956E-01 2.37045E-37
6.08220E-01 1.89563E-37
6.12476E-01 1.48904E-37
6.16723E-01 1.14621E-37
6.20961E-01 8.62172E-38
6.25190E-01 6.31548E-38
6.29410E-01 4.48788E-38
6.33619E-01 3.08315E-38
6.37819E-01 2.04658E-38
6.42008E-01 1.32533E-38
6.46186E-01 8.69433E-39
6.50353E-01 6.32382E-39
6.54508E-01 5.71490E-39
6.58652E-01 6.48183E-39
6.62784E-01 8.28149E-39
6.66903E-01 1.08129E-38
6.71010E-01 1.38167E-38
6.75104E-01 1.70735E-38
6.79184E-01 2.04015E-38
6.83251E-01 2.36533E-38
6.87303E-01 2.67126E-38
6.91342E-01 2.94928E-38
6.95366E-01 3.19304E-38
6.99375E-01 3.39855E-38
7.03368E-01 3.56345E-38
7.07347E-01 3.68707E-38
7.11309E-01 3.76992E-38
7.15256E-01 3.81355E-38
7.19186E-01 3.82021E-38
7.23099E-01 3.79280E-38
7.26995E-01 3.73459E-38
7.30874E-01 3.64901E-38
7.34736E-01 3.53975E-38
7.38579E-01 3.41046E-38
7.42405E-01 3.26474E-38
7.46212E-01 3.10604E-38
7.50000E-01 2.93758E-38
7.53769E-01 2.76246E-38
7.57519E-01 2.58351E-38
7.61249E-01 2.40317E-38
7.64960E-01 2.22375E-38
7.68650E-01 2.04712E-38
7.72320E-01 1.87500E-38
7.75968E-01 1.70870E-38
7.79596E-01 1.54938E-38
7.83203E-01 1.39787E-38
7.86788E-01 1.25482E-38
7.90351E-01 1.12064E-38
7.93893E-01 9.95543E-39
7.97411E-01 8.79705E-39
8.00908E-01 7.72985E-39
8.04381E-01 6.75265E-39
8.07831E-01 5.86311E-39
8.11257E-01 5.05782E-39
8.14660E-01 4.33307E-39
8.18039E-01 3.68459E-39
8.21394E-01 3.10837E-39
8.24724E-01 2.59929E-39
8.28030E-01 2.15294E-39
8.31310E-01 1.76449E-39
8.34565E-01 1.00000E-45
8.37795E-01 1.00000E-45
8.40999E-01 1.00000E-45
8.44177E-01 1.00000E-45
8.47329E-01 1.00000E-45
8.50455E-01 1.00000E-45
8.53553E-01 1.00000E-45
8.56625E-01 1.00000E-45
8.59670E-01 1.00000E-45
8.62687E-01 1.00000E-45
8.65677E-01 1.00000E-45
8.68639E-01 1.00000E-45
8.71572E-01 1.00000E-45
8.74478E-01 1.00000E-45
8.77355E-01 1.00000E-45
8.80203E-01 1.00000E-45
8.83022E-01 1.00000E-45
8.85812E-01 1.00000E-45
8.88573E-01 1.00000E-45
8.91304E-01 1.00000E-45
8.94005E-01 1.00000E-45
8.96677E-01 1.00000E-45
8.99318E-01 1.00000E-45
9.01928E-01 1.00000E-45
9.04508E-01 1.00000E-45
9.07058E-01 1.00000E-45
9.09576E-01 1.00000E-45
9.12063E-01 1.00000E-45
9.14519E-01 1.00000E-45
9.16943E-01 1.00000E-45
9.19335E-01 1.00000E-45
9.21696E-01 1.00000E-45
9.24024E-01 1.00000E-45
9.26320E-01 1.00000E-45
9.28584E-01 1.00000E-45
9.30815E-01 1.00000E-45
9.33013E-01 1.00000E-45
9.35178E-01 1.00000E-45
9.37310E-01 1.00000E-45
9.39409E-01 1.00000E-45
9.41474E-01 1.00000E-45
9.43505E-01 1.00000E-45
9.45503E-01 1.00000E-45
9.47467E-01 1.00000E-45
9.49397E-01 1.00000E-45
9.51293E-01 1.00000E-45
9.53154E-01 1.00000E-45
9.54981E-01 1.00000E-45
9.56773E-01 1.00000E-45
9.58530E-01 1.00000E-45
9.60252E-01 1.00000E-45
9.61940E-01 1.00000E-45
9.63592E-01 1.00000E-45
9.65209E-01 1.00000E-45
9.66790E-01 1.00000E-45
9.68336E-01 1.00000E-45
9.69846E-01 1.00000E-45
9.71321E-01 1.00000E-45
9.72759E-01 1.00000E-45
9.74162E-01 1.00000E-45
9.75528E-01 1.00000E-45
9.76858E-01 1.00000E-45
9.78152E-01 1.00000E-45
9.79410E-01 1.00000E-45
9.80631E-01 1.00000E-45
9.81815E-01 1.00000E-45
9.82963E-01 1.00000E-45
9.84074E-01 1.00000E-45
9.85148E-01 1.00000E-45
9.86185E-01 1.00000E-45
9.87185E-01 1.00000E-45
9.88148E-01 1.00000E-45
9.89074E-01 1.00000E-45
9.89962E-01 1.00000E-45
9.90814E-01 1.00000E-45
9.91627E-01 1.00000E-45
9.92404E-01 1.00000E-45
9.93143E-01 1.00000E-45
9.93844E-01 1.00000E-45
9.94508E-01 1.00000E-45
9.95134E-01 1.00000E-45
9.95722E-01 1.00000E-45
9.96273E-01 1.00000E-45
9.96786E-01 1.00000E-45
9.97261E-01 1.00000E-45
9.97698E-01 1.00000E-45
9.98097E-01 1.00000E-45
9.98459E-01 1.00000E-45
9.98782E-01 1.00000E-45
9.99067E-01 1.00000E-45
9.99315E-01 1.00000E-45
9.99524E-01 1.00000E-45
9.99695E-01 1.00000E-45
9.99829E-01 1.00000E-45
9.99924E-01 1.00000E-45
9.99981E-01 1.00000E-45
1.00000E+00 1.00000E-45
