 #
 # Subroutine ELSEPA. Elastic scattering of electrons and positrons
 #                    by neutral atoms and positive ions
 #
 # Projectile: electron
 # Kinetic energy = 8.00000E+07 eV = 2.93995E+06 a.u.
 #
 # WARNING: High-energy factorization with free-atom DF screening.
 #          Absorption, polarization and exchange corrections are
 #          switched off.
 #          Phase shifts are calculated for the bare nucleus.
 #          Scattering amplitudes are not evaluated.
 #
 # Element: Sr,  Z =  38,  atomic weight = 8.76200E+01 g/mol
 #
 # Nuclear model: Fermi distribution
 #                Average radius = 4.75246E-13 cm
 #                Skin thickness = 5.46000E-14 cm
 #
 # Number of electrons = 38
 #
 # Total elastic cross section = 3.75981E-18 cm**2 = 1.34265E-01 a0**2
 # 1st transport cross section = 4.47984E-25 cm**2 = 1.59978E-08 a0**2
 # 2nd transport cross section = 1.32733E-24 cm**2 = 4.73999E-08 a0**2
 #
 #
 # Differential cross section:                       MU=(1-COS(THETA))/2
 #
 #  THETA        MU          DCS          DCS        Sherman      error
 #  (deg)                 (cm**2/sr)   (a0**2/sr)    function
 #----------------------------------------------------------------------
0.00000E+00 4.20198E-10
7.61557E-13 4.18643E-10
1.18994E-12 4.17773E-10
1.71346E-12 4.16713E-10
2.33225E-12 4.15467E-10
3.04617E-12 4.14036E-10
3.85530E-12 4.12423E-10
4.75964E-12 4.10632E-10
5.75917E-12 4.08667E-10
6.85391E-12 4.06530E-10
8.04379E-12 4.04228E-10
9.32893E-12 4.01763E-10
1.07092E-11 3.99142E-10
1.21847E-11 3.96369E-10
1.37554E-11 3.93449E-10
1.54213E-11 3.90389E-10
1.71823E-11 3.87193E-10
1.90386E-11 3.83868E-10
2.09900E-11 3.80420E-10
2.30367E-11 3.76855E-10
2.51785E-11 3.73179E-10
2.74156E-11 3.69399E-10
2.97478E-11 3.65521E-10
3.21752E-11 3.61551E-10
3.46979E-11 3.57497E-10
3.73157E-11 3.53395E-10
4.00286E-11 3.49223E-10
4.28368E-11 3.44971E-10
4.57402E-11 3.40645E-10
4.87388E-11 3.36251E-10
5.18325E-11 3.31794E-10
5.50215E-11 3.27278E-10
5.83057E-11 3.22820E-10
6.16850E-11 3.18324E-10
6.51595E-11 3.13787E-10
6.87293E-11 3.09212E-10
7.23943E-11 3.04606E-10
7.61544E-11 2.99973E-10
1.18991E-10 2.54715E-10
1.71347E-10 2.12907E-10
2.33223E-10 1.76719E-10
3.04617E-10 1.46598E-10
3.85531E-10 1.22159E-10
4.75965E-10 1.02621E-10
5.75917E-10 8.70052E-11
6.85389E-10 7.45365E-11
8.04380E-10 6.44486E-11
9.32891E-10 5.62321E-11
1.07092E-09 4.94304E-11
1.21847E-09 4.37367E-11
1.37554E-09 3.89119E-11
1.54213E-09 3.47708E-11
1.71823E-09 3.11920E-11
1.90386E-09 2.80651E-11
2.09900E-09 2.53223E-11
2.30367E-09 2.28986E-11
2.51785E-09 2.07506E-11
2.74156E-09 1.88399E-11
2.97478E-09 1.71346E-11
3.21752E-09 1.56118E-11
3.46978E-09 1.42463E-11
3.73156E-09 1.29660E-11
4.00286E-09 1.18233E-11
4.28368E-09 1.08224E-11
4.57402E-09 9.94209E-12
4.87388E-09 9.16512E-12
5.18326E-09 8.47687E-12
5.50215E-09 7.86511E-12
5.83057E-09 7.25637E-12
6.16850E-09 6.70915E-12
6.51596E-09 6.22039E-12
6.87293E-09 5.78257E-12
7.23942E-09 5.38926E-12
7.61544E-09 5.03496E-12
1.18991E-08 2.69844E-12
1.71347E-08 1.60715E-12
2.33223E-08 1.01825E-12
3.04617E-08 6.71506E-13
3.85531E-08 4.56110E-13
4.75965E-08 3.17480E-13
5.75917E-08 2.26454E-13
6.85389E-08 1.65125E-13
8.04380E-08 1.23100E-13
9.32891E-08 9.35986E-14
1.07092E-07 7.24918E-14
1.21847E-07 5.70824E-14
1.37554E-07 4.56317E-14
1.54213E-07 3.69542E-14
1.71823E-07 3.02757E-14
1.90386E-07 2.50546E-14
2.09900E-07 2.09240E-14
2.30367E-07 1.76165E-14
2.51785E-07 1.49412E-14
2.74156E-07 1.27560E-14
2.97478E-07 1.09551E-14
3.21752E-07 9.45976E-15
3.46978E-07 8.20891E-15
3.73156E-07 7.15232E-15
4.00286E-07 6.26217E-15
4.28368E-07 5.50997E-15
4.57402E-07 4.85974E-15
4.87388E-07 4.30477E-15
5.18325E-07 3.82681E-15
5.50215E-07 3.41069E-15
5.83057E-07 3.05068E-15
6.16850E-07 2.73606E-15
6.51596E-07 2.46037E-15
6.87293E-07 2.21911E-15
7.23942E-07 2.00574E-15
7.61543E-07 1.81749E-15
1.18991E-06 7.59287E-16
1.71347E-06 3.71041E-16
2.33223E-06 2.02380E-16
3.04617E-06 1.19660E-16
3.85531E-06 7.52364E-17
4.75964E-06 4.96490E-17
5.75916E-06 3.40716E-17
6.85388E-06 2.41498E-17
8.04378E-06 1.75886E-17
9.32888E-06 1.31105E-17
1.07092E-05 9.97013E-18
1.21846E-05 7.71551E-18
1.37553E-05 6.06326E-18
1.54212E-05 4.83027E-18
1.71822E-05 3.89516E-18
1.90385E-05 3.17524E-18
2.09899E-05 2.61500E-18
2.30365E-05 2.17290E-18
2.51783E-05 1.82020E-18
2.74153E-05 1.53609E-18
2.97475E-05 1.30523E-18
3.21749E-05 1.11614E-18
3.46974E-05 9.60114E-19
3.73152E-05 8.30460E-19
4.00281E-05 7.22005E-19
4.28362E-05 6.30709E-19
4.57395E-05 5.53396E-19
4.87380E-05 4.87566E-19
5.18317E-05 4.31227E-19
5.50205E-05 3.82787E-19
5.83045E-05 3.40959E-19
6.16838E-05 3.04693E-19
6.51582E-05 2.73129E-19
6.87277E-05 2.45555E-19
7.23925E-05 2.21378E-19
7.61524E-05 2.00165E-19
9.21439E-05 1.36839E-19
1.09658E-04 9.66959E-20
1.28695E-04 7.02616E-20
1.49255E-04 5.22755E-20
1.71338E-04 3.96986E-20
1.94942E-04 3.06882E-20
2.20070E-04 2.40970E-20
2.46720E-04 1.91856E-20
2.74892E-04 1.54649E-20
3.04586E-04 1.26049E-20
3.35803E-04 1.03770E-20
3.68542E-04 8.62085E-21
4.02802E-04 7.22131E-21
4.38585E-04 6.09489E-21
4.75889E-04 5.18004E-21
5.14715E-04 4.43075E-21
5.55063E-04 3.81234E-21
5.96931E-04 3.29829E-21
6.40321E-04 2.86813E-21
6.85233E-04 2.50596E-21
7.31665E-04 2.19926E-21
7.79618E-04 1.93815E-21
8.29092E-04 1.71471E-21
8.80086E-04 1.52261E-21
9.32601E-04 1.35671E-21
9.86636E-04 1.21282E-21
1.04219E-03 1.08755E-21
1.09927E-03 9.78062E-22
1.15786E-03 8.82034E-22
1.21797E-03 7.97520E-22
1.27961E-03 7.22908E-22
1.34276E-03 6.56829E-22
1.40743E-03 5.98144E-22
1.47362E-03 5.45876E-22
1.54133E-03 4.99205E-22
1.61056E-03 4.57418E-22
1.68131E-03 4.19925E-22
1.75357E-03 3.86198E-22
1.82735E-03 3.55795E-22
1.90265E-03 3.28329E-22
1.97947E-03 3.03466E-22
2.05780E-03 2.80916E-22
2.13765E-03 2.60424E-22
2.21902E-03 2.41769E-22
2.30190E-03 2.24756E-22
2.38630E-03 2.09215E-22
2.47222E-03 1.94996E-22
2.55965E-03 1.81965E-22
2.64859E-03 1.70006E-22
2.73905E-03 1.59014E-22
2.83103E-03 1.48896E-22
2.92452E-03 1.39572E-22
3.01952E-03 1.30966E-22
3.11604E-03 1.23013E-22
3.21407E-03 1.15656E-22
3.31362E-03 1.08840E-22
3.41468E-03 1.02520E-22
3.51725E-03 9.66512E-23
3.62133E-03 9.11968E-23
3.72692E-03 8.61217E-23
3.83403E-03 8.13946E-23
3.94265E-03 7.69874E-23
4.05278E-03 7.28744E-23
4.16442E-03 6.90323E-23
4.27757E-03 6.54399E-23
4.39223E-03 6.20780E-23
4.50840E-03 5.89290E-23
4.62608E-03 5.59770E-23
4.74527E-03 5.32074E-23
4.86597E-03 5.06067E-23
4.98817E-03 4.81628E-23
5.11188E-03 4.58644E-23
5.23711E-03 4.37012E-23
5.36383E-03 4.16639E-23
5.49207E-03 3.97437E-23
5.62181E-03 3.79326E-23
5.75306E-03 3.62233E-23
5.88581E-03 3.46090E-23
6.02007E-03 3.30833E-23
6.15583E-03 3.16406E-23
6.29310E-03 3.02754E-23
6.43187E-03 2.89829E-23
6.57214E-03 2.77584E-23
6.71392E-03 2.65976E-23
6.85720E-03 2.54967E-23
7.00198E-03 2.44520E-23
7.14827E-03 2.34600E-23
7.29605E-03 2.25176E-23
7.44534E-03 2.16218E-23
7.59612E-03 2.07700E-23
7.97965E-03 1.88160E-23
8.37255E-03 1.70855E-23
8.77480E-03 1.55483E-23
9.18641E-03 1.41793E-23
9.60736E-03 1.29567E-23
1.00376E-02 1.18622E-23
1.04773E-02 1.08800E-23
1.09262E-02 9.99657E-24
1.13844E-02 9.20029E-24
1.18520E-02 8.48102E-24
1.23288E-02 7.83000E-24
1.28150E-02 7.23963E-24
1.33104E-02 6.70326E-24
1.38150E-02 6.21509E-24
1.43290E-02 5.77001E-24
1.48521E-02 5.36356E-24
1.53845E-02 4.99178E-24
1.59262E-02 4.65121E-24
1.64770E-02 4.33876E-24
1.70371E-02 4.05169E-24
1.76063E-02 3.78759E-24
1.81848E-02 3.54428E-24
1.87724E-02 3.31986E-24
1.93692E-02 3.11258E-24
1.99751E-02 2.92091E-24
2.05901E-02 2.74347E-24
2.12143E-02 2.57902E-24
2.18476E-02 2.42643E-24
2.24900E-02 2.28471E-24
2.31415E-02 2.15293E-24
2.38021E-02 2.03029E-24
2.44717E-02 1.91604E-24
2.51504E-02 1.80949E-24
2.58382E-02 1.71006E-24
2.65349E-02 1.61716E-24
2.72407E-02 1.53031E-24
2.79555E-02 1.44903E-24
2.86793E-02 1.37291E-24
2.94120E-02 1.30157E-24
3.01537E-02 1.23465E-24
3.09043E-02 1.17183E-24
3.16639E-02 1.11282E-24
3.24324E-02 1.05734E-24
3.32098E-02 1.00515E-24
3.39961E-02 9.56024E-25
3.47912E-02 9.09745E-25
3.55952E-02 8.66122E-25
3.64081E-02 8.24977E-25
3.72297E-02 7.86145E-25
3.80602E-02 7.49474E-25
3.88995E-02 7.14824E-25
3.97476E-02 6.82064E-25
4.06044E-02 6.51074E-25
4.14700E-02 6.21743E-25
4.23443E-02 5.93966E-25
4.32273E-02 5.67648E-25
4.41190E-02 5.42700E-25
4.50194E-02 5.19037E-25
4.59284E-02 4.96584E-25
4.68461E-02 4.75268E-25
4.87074E-02 4.35784E-25
5.06030E-02 4.00101E-25
5.25328E-02 3.67797E-25
5.44967E-02 3.38504E-25
5.64946E-02 3.11900E-25
5.85262E-02 2.87699E-25
6.05914E-02 2.65654E-25
6.26901E-02 2.45544E-25
6.48222E-02 2.27174E-25
6.69873E-02 2.10372E-25
6.91854E-02 1.94985E-25
7.14163E-02 1.80876E-25
7.36799E-02 1.67925E-25
7.59760E-02 1.56023E-25
7.83043E-02 1.45074E-25
8.06647E-02 1.34991E-25
8.30571E-02 1.25695E-25
8.54812E-02 1.17118E-25
8.79369E-02 1.09197E-25
9.04240E-02 1.01874E-25
9.29422E-02 9.50986E-26
9.54915E-02 8.88249E-26
9.80716E-02 8.30109E-26
1.00682E-01 7.76186E-26
1.03323E-01 7.26138E-26
1.05995E-01 6.79651E-26
1.08696E-01 6.36443E-26
1.11427E-01 5.96255E-26
1.14188E-01 5.58850E-26
1.16978E-01 5.24015E-26
1.19797E-01 4.91552E-26
1.22645E-01 4.61283E-26
1.25522E-01 4.33042E-26
1.28428E-01 4.06679E-26
1.31361E-01 3.82056E-26
1.34323E-01 3.59046E-26
1.37313E-01 3.37532E-26
1.40330E-01 3.17408E-26
1.43375E-01 2.98575E-26
1.46447E-01 2.80942E-26
1.49545E-01 2.64425E-26
1.52671E-01 2.48947E-26
1.55823E-01 2.34436E-26
1.59001E-01 2.20827E-26
1.62205E-01 2.08058E-26
1.65435E-01 1.96074E-26
1.68690E-01 1.84822E-26
1.71970E-01 1.74253E-26
1.75276E-01 1.64323E-26
1.78606E-01 1.54989E-26
1.81961E-01 1.46214E-26
1.85340E-01 1.37962E-26
1.88743E-01 1.30198E-26
1.92169E-01 1.22892E-26
1.95619E-01 1.16015E-26
1.99092E-01 1.09540E-26
2.02589E-01 1.03442E-26
2.06107E-01 9.76979E-27
2.09649E-01 9.22852E-27
2.13212E-01 8.71839E-27
2.16797E-01 8.23749E-27
2.20404E-01 7.78405E-27
2.24032E-01 7.35642E-27
2.27680E-01 6.95304E-27
2.31350E-01 6.57246E-27
2.35040E-01 6.21333E-27
2.38751E-01 5.87438E-27
2.42481E-01 5.55441E-27
2.46231E-01 5.25231E-27
2.50000E-01 4.96704E-27
2.53788E-01 4.69762E-27
2.57595E-01 4.44313E-27
2.61421E-01 4.20270E-27
2.65264E-01 3.97554E-27
2.69126E-01 3.76087E-27
2.73005E-01 3.55799E-27
2.76901E-01 3.36622E-27
2.80814E-01 3.18494E-27
2.84744E-01 3.01355E-27
2.88691E-01 2.85150E-27
2.92653E-01 2.69826E-27
2.96632E-01 2.55333E-27
3.00625E-01 2.41627E-27
3.04634E-01 2.28662E-27
3.08658E-01 2.16397E-27
3.12697E-01 2.04795E-27
3.16749E-01 1.93818E-27
3.20816E-01 1.83432E-27
3.24896E-01 1.73604E-27
3.28990E-01 1.64304E-27
3.33097E-01 1.55503E-27
3.37216E-01 1.47175E-27
3.41348E-01 1.39292E-27
3.45492E-01 1.31831E-27
3.49647E-01 1.24769E-27
3.53814E-01 1.18085E-27
3.57992E-01 1.11758E-27
3.62181E-01 1.05768E-27
3.66381E-01 1.00098E-27
3.70590E-01 9.47311E-28
3.74810E-01 8.96499E-28
3.79039E-01 8.48396E-28
3.83277E-01 8.02857E-28
3.87524E-01 7.59744E-28
3.91780E-01 7.18929E-28
3.96044E-01 6.80288E-28
4.00316E-01 6.43705E-28
4.04596E-01 6.09071E-28
4.08882E-01 5.76283E-28
4.13176E-01 5.45242E-28
4.17476E-01 5.15855E-28
4.21783E-01 4.88035E-28
4.26095E-01 4.61698E-28
4.30413E-01 4.36766E-28
4.34737E-01 4.13164E-28
4.39065E-01 3.90823E-28
4.43398E-01 3.69674E-28
4.47736E-01 3.49656E-28
4.52077E-01 3.30708E-28
4.56422E-01 3.12773E-28
4.60770E-01 2.95799E-28
4.65122E-01 2.79734E-28
4.69476E-01 2.64530E-28
4.73832E-01 2.50141E-28
4.78190E-01 2.36525E-28
4.82550E-01 2.23640E-28
4.86912E-01 2.11448E-28
4.91274E-01 1.99913E-28
4.95637E-01 1.88999E-28
5.00000E-01 1.78673E-28
5.04363E-01 1.68905E-28
5.08726E-01 1.59664E-28
5.13088E-01 1.50923E-28
5.17450E-01 1.42656E-28
5.21810E-01 1.34836E-28
5.26168E-01 1.27441E-28
5.30524E-01 1.20448E-28
5.34878E-01 1.13834E-28
5.39230E-01 1.07581E-28
5.43578E-01 1.01669E-28
5.47923E-01 9.60799E-29
5.52264E-01 9.07959E-29
5.56602E-01 8.58011E-29
5.60935E-01 8.10800E-29
5.65263E-01 7.66179E-29
5.69587E-01 7.24009E-29
5.73905E-01 6.84158E-29
5.78217E-01 6.46502E-29
5.82524E-01 6.10923E-29
5.86824E-01 5.77309E-29
5.91118E-01 5.45553E-29
5.95404E-01 5.15556E-29
5.99684E-01 4.87222E-29
6.03956E-01 4.60461E-29
6.08220E-01 4.35187E-29
6.12476E-01 4.11321E-29
6.16723E-01 3.88784E-29
6.20961E-01 3.67505E-29
6.25190E-01 3.47416E-29
6.29410E-01 3.28450E-29
6.33619E-01 3.10546E-29
6.37819E-01 2.93647E-29
6.42008E-01 2.77696E-29
6.46186E-01 2.62642E-29
6.50353E-01 2.48435E-29
6.54508E-01 2.35028E-29
6.58652E-01 2.22377E-29
6.62784E-01 2.10440E-29
6.66903E-01 1.99177E-29
6.71010E-01 1.88551E-29
6.75104E-01 1.78526E-29
6.79184E-01 1.69068E-29
6.83251E-01 1.60146E-29
6.87303E-01 1.51730E-29
6.91342E-01 1.43790E-29
6.95366E-01 1.36301E-29
6.99375E-01 1.29237E-29
7.03368E-01 1.22573E-29
7.07347E-01 1.16287E-29
7.11309E-01 1.10358E-29
7.15256E-01 1.04765E-29
7.19186E-01 9.94881E-30
7.23099E-01 9.45103E-30
7.26995E-01 8.98140E-30
7.30874E-01 8.53831E-30
7.34736E-01 8.12023E-30
7.38579E-01 7.72570E-30
7.42405E-01 7.35337E-30
7.46212E-01 7.00195E-30
7.50000E-01 6.67021E-30
7.53769E-01 6.35701E-30
7.57519E-01 6.06127E-30
7.61249E-01 5.78196E-30
7.64960E-01 5.51813E-30
7.68650E-01 5.26885E-30
7.72320E-01 5.03327E-30
7.75968E-01 4.81059E-30
7.79596E-01 4.60003E-30
7.83203E-01 4.40089E-30
7.86788E-01 4.21248E-30
7.90351E-01 4.03416E-30
7.93893E-01 3.86533E-30
7.97411E-01 3.70543E-30
8.00908E-01 3.55392E-30
8.04381E-01 3.41030E-30
8.07831E-01 3.27410E-30
8.11257E-01 3.14487E-30
8.14660E-01 3.02219E-30
8.18039E-01 2.90567E-30
8.21394E-01 2.79493E-30
8.24724E-01 2.68964E-30
8.28030E-01 2.58946E-30
8.31310E-01 2.49409E-30
8.34565E-01 2.40323E-30
8.37795E-01 2.31662E-30
8.40999E-01 2.23399E-30
8.44177E-01 2.15512E-30
8.47329E-01 2.07977E-30
8.50455E-01 2.00774E-30
8.53553E-01 1.93882E-30
8.56625E-01 1.87284E-30
8.59670E-01 1.80961E-30
8.62687E-01 1.74897E-30
8.65677E-01 1.69078E-30
8.68639E-01 1.63489E-30
8.71572E-01 1.58116E-30
8.74478E-01 1.52948E-30
8.77355E-01 1.47972E-30
8.80203E-01 1.43177E-30
8.83022E-01 1.38553E-30
8.85812E-01 1.34090E-30
8.88573E-01 1.29780E-30
8.91304E-01 1.25615E-30
8.94005E-01 1.21586E-30
8.96677E-01 1.17686E-30
8.99318E-01 1.13908E-30
9.01928E-01 1.10246E-30
9.04508E-01 1.06695E-30
9.07058E-01 1.03248E-30
9.09576E-01 9.99007E-31
9.12063E-01 9.66481E-31
9.14519E-01 9.34859E-31
9.16943E-01 9.04100E-31
9.19335E-01 8.74164E-31
9.21696E-01 8.45017E-31
9.24024E-01 8.16626E-31
9.26320E-01 7.88961E-31
9.28584E-01 7.61992E-31
9.30815E-01 7.35693E-31
9.33013E-01 7.10042E-31
9.35178E-01 6.85014E-31
9.37310E-01 6.60589E-31
9.39409E-01 6.36748E-31
9.41474E-01 6.13474E-31
9.43505E-01 5.90749E-31
9.45503E-01 5.68560E-31
9.47467E-01 5.46891E-31
9.49397E-01 5.25731E-31
9.51293E-01 5.05067E-31
9.53154E-01 4.84889E-31
9.54981E-01 4.65187E-31
9.56773E-01 4.45952E-31
9.58530E-01 4.27176E-31
9.60252E-01 4.08850E-31
9.61940E-01 3.90969E-31
9.63592E-01 3.73525E-31
9.65209E-01 3.56513E-31
9.66790E-01 3.39928E-31
9.68336E-01 3.23765E-31
9.69846E-01 3.08019E-31
9.71321E-01 2.92687E-31
9.72759E-01 2.77766E-31
9.74162E-01 2.63251E-31
9.75528E-01 2.49141E-31
9.76858E-01 2.35432E-31
9.78152E-01 2.22122E-31
9.79410E-01 2.09209E-31
9.80631E-01 1.96692E-31
9.81815E-01 1.84568E-31
9.82963E-01 1.72836E-31
9.84074E-01 1.61495E-31
9.85148E-01 1.50544E-31
9.86185E-01 1.39982E-31
9.87185E-01 1.29807E-31
9.88148E-01 1.20020E-31
9.89074E-01 1.10619E-31
9.89962E-01 1.01604E-31
9.90814E-01 9.29737E-32
9.91627E-01 8.47287E-32
9.92404E-01 7.68683E-32
9.93143E-01 6.93921E-32
9.93844E-01 6.22999E-32
9.94508E-01 5.55916E-32
9.95134E-01 4.92670E-32
9.95722E-01 4.33259E-32
9.96273E-01 3.77682E-32
9.96786E-01 3.25940E-32
9.97261E-01 2.78030E-32
9.97698E-01 2.33953E-32
9.98097E-01 1.93709E-32
9.98459E-01 1.57298E-32
9.98782E-01 1.24718E-32
9.99067E-01 9.59718E-33
9.99315E-01 7.10578E-33
9.99524E-01 4.99765E-33
9.99695E-01 3.27278E-33
9.99829E-01 1.93122E-33
9.99924E-01 9.72947E-34
9.99981E-01 3.97991E-34
1.00000E+00 2.06350E-34
