 #
 # Subroutine ELSEPA. Elastic scattering of electrons and positrons
 #                    by neutral atoms and positive ions
 #
 # Projectile: electron
 # Kinetic energy = 7.00000E+05 eV = 2.57245E+04 a.u.
 #
 # Element: Sr,  Z =  38,  atomic weight = 8.76200E+01 g/mol
 #
 # Nuclear model: Fermi distribution
 #                Average radius = 4.75246E-13 cm
 #                Skin thickness = 5.46000E-14 cm
 #
 # Number of electrons = 38
 #
 # Electron density: Read from file Data/z_038.d
 #                   Number of data points =  813
 #                   Volume integral = 3.80000E+01
 #
 # Furness-McCarthy exchange potential
 #
 # LDA absorption potential (only electron-hole excitations):
 #                           Delta = 0.00000E+00 eV
 #                            Aabs = 2.00000E+00
 #
 # Total elastic cross section = 4.55773E-18 cm**2 = 1.62760E-01 a0**2
 # 1st transport cross section = 1.67279E-21 cm**2 = 5.97366E-05 a0**2
 # 2nd transport cross section = 4.55483E-21 cm**2 = 1.62656E-04 a0**2
 #
 #    Absorption cross section = 9.59924E-19 cm**2 = 3.42795E-02 a0**2
 #   Grand total cross section = 5.52142E-18 cm**2 = 1.97173E-01 a0**2
 #
 #
 # Differential cross section:                       MU=(1-COS(THETA))/2
 #
 #  THETA        MU          DCS          DCS        Sherman      error
 #  (deg)                 (cm**2/sr)   (a0**2/sr)    function
 #----------------------------------------------------------------------
0.00000E+00 9.49046E-14
7.61557E-13 9.49045E-14
1.18994E-12 9.49045E-14
1.71346E-12 9.49044E-14
2.33225E-12 9.49044E-14
3.04617E-12 9.49043E-14
3.85530E-12 9.49042E-14
4.75964E-12 9.49042E-14
5.75917E-12 9.49041E-14
6.85391E-12 9.49040E-14
8.04379E-12 9.49039E-14
9.32893E-12 9.49038E-14
1.07092E-11 9.49037E-14
1.21847E-11 9.49035E-14
1.37554E-11 9.49034E-14
1.54213E-11 9.49033E-14
1.71823E-11 9.49031E-14
1.90386E-11 9.49029E-14
2.09900E-11 9.49028E-14
2.30367E-11 9.49026E-14
2.51785E-11 9.49024E-14
2.74156E-11 9.49022E-14
2.97478E-11 9.49020E-14
3.21752E-11 9.49018E-14
3.46979E-11 9.49016E-14
3.73157E-11 9.49014E-14
4.00286E-11 9.49011E-14
4.28368E-11 9.49009E-14
4.57402E-11 9.49006E-14
4.87388E-11 9.49004E-14
5.18325E-11 9.49001E-14
5.50215E-11 9.48998E-14
5.83057E-11 9.48996E-14
6.16850E-11 9.48993E-14
6.51595E-11 9.48990E-14
6.87293E-11 9.48987E-14
7.23943E-11 9.48983E-14
7.61544E-11 9.48980E-14
1.18991E-10 9.48943E-14
1.71347E-10 9.48898E-14
2.33223E-10 9.48845E-14
3.04617E-10 9.48783E-14
3.85531E-10 9.48714E-14
4.75965E-10 9.48636E-14
5.75917E-10 9.48550E-14
6.85389E-10 9.48456E-14
8.04380E-10 9.48353E-14
9.32891E-10 9.48243E-14
1.07092E-09 9.48124E-14
1.21847E-09 9.47997E-14
1.37554E-09 9.47862E-14
1.54213E-09 9.47719E-14
1.71823E-09 9.47567E-14
1.90386E-09 9.47408E-14
2.09900E-09 9.47240E-14
2.30367E-09 9.47064E-14
2.51785E-09 9.46880E-14
2.74156E-09 9.46688E-14
2.97478E-09 9.46488E-14
3.21752E-09 9.46280E-14
3.46978E-09 9.46064E-14
3.73156E-09 9.45839E-14
4.00286E-09 9.45607E-14
4.28368E-09 9.45366E-14
4.57402E-09 9.45118E-14
4.87388E-09 9.44861E-14
5.18326E-09 9.44596E-14
5.50215E-09 9.44324E-14
5.83057E-09 9.44043E-14
6.16850E-09 9.43754E-14
6.51596E-09 9.43457E-14
6.87293E-09 9.43153E-14
7.23942E-09 9.42840E-14
7.61544E-09 9.42519E-14
1.18991E-08 9.38878E-14
1.71347E-08 9.34457E-14
2.33223E-08 9.29274E-14
3.04617E-08 9.23347E-14
3.85531E-08 9.16699E-14
4.75965E-08 9.09356E-14
5.75917E-08 9.01344E-14
6.85389E-08 8.92693E-14
8.04380E-08 8.83434E-14
9.32891E-08 8.73600E-14
1.07092E-07 8.63224E-14
1.21847E-07 8.52341E-14
1.37554E-07 8.40988E-14
1.54213E-07 8.29202E-14
1.71823E-07 8.17019E-14
1.90386E-07 8.04476E-14
2.09900E-07 7.91612E-14
2.30367E-07 7.78462E-14
2.51785E-07 7.65065E-14
2.74156E-07 7.51455E-14
2.97478E-07 7.37668E-14
3.21752E-07 7.23739E-14
3.46978E-07 7.09700E-14
3.73156E-07 6.95584E-14
4.00286E-07 6.81422E-14
4.28368E-07 6.67243E-14
4.57402E-07 6.53075E-14
4.87388E-07 6.38945E-14
5.18325E-07 6.24877E-14
5.50215E-07 6.10895E-14
5.83057E-07 5.97021E-14
6.16850E-07 5.83274E-14
6.51596E-07 5.69674E-14
6.87293E-07 5.56237E-14
7.23942E-07 5.42978E-14
7.61543E-07 5.29912E-14
1.18991E-06 4.11893E-14
1.71347E-06 3.19199E-14
2.33223E-06 2.49791E-14
3.04617E-06 1.98734E-14
3.85531E-06 1.61069E-14
4.75964E-06 1.32843E-14
5.75916E-06 1.11214E-14
6.85388E-06 9.42346E-15
8.04378E-06 8.06048E-15
9.32888E-06 6.94537E-15
1.07092E-05 6.01911E-15
1.21846E-05 5.24073E-15
1.37553E-05 4.58098E-15
1.54212E-05 4.01828E-15
1.71822E-05 3.53620E-15
1.90385E-05 3.12175E-15
2.09899E-05 2.76443E-15
2.30365E-05 2.45561E-15
2.51783E-05 2.18811E-15
2.74153E-05 1.95591E-15
2.97475E-05 1.75387E-15
3.21749E-05 1.57765E-15
3.46974E-05 1.42354E-15
3.73152E-05 1.28841E-15
4.00281E-05 1.16960E-15
4.28362E-05 1.06481E-15
4.57395E-05 9.72113E-16
4.87380E-05 8.89846E-16
5.18317E-05 8.16610E-16
5.50205E-05 7.51209E-16
5.83045E-05 6.92618E-16
6.16838E-05 6.39960E-16
6.51582E-05 5.92490E-16
6.87277E-05 5.49570E-16
7.23925E-05 5.10654E-16
7.61524E-05 4.75267E-16
9.21439E-05 3.61682E-16
1.09658E-04 2.80342E-16
1.28695E-04 2.20371E-16
1.49255E-04 1.75183E-16
1.71338E-04 1.40583E-16
1.94942E-04 1.13767E-16
2.20070E-04 9.27876E-17
2.46720E-04 7.62428E-17
2.74892E-04 6.31029E-17
3.04586E-04 5.25977E-17
3.35803E-04 4.41444E-17
3.68542E-04 3.72987E-17
4.02802E-04 3.17194E-17
4.38585E-04 2.71432E-17
4.75889E-04 2.33658E-17
5.14715E-04 2.02283E-17
5.55063E-04 1.76062E-17
5.96931E-04 1.54016E-17
6.40321E-04 1.35372E-17
6.85233E-04 1.19516E-17
7.31665E-04 1.05959E-17
7.79618E-04 9.43065E-18
8.29092E-04 8.42425E-18
8.80086E-04 7.55095E-18
9.32601E-04 6.78981E-18
9.86636E-04 6.12365E-18
1.04219E-03 5.53832E-18
1.09927E-03 5.02211E-18
1.15786E-03 4.56527E-18
1.21797E-03 4.15965E-18
1.27961E-03 3.79838E-18
1.34276E-03 3.47569E-18
1.40743E-03 3.18667E-18
1.47362E-03 2.92714E-18
1.54133E-03 2.69351E-18
1.61056E-03 2.48272E-18
1.68131E-03 2.29213E-18
1.75357E-03 2.11943E-18
1.82735E-03 1.96264E-18
1.90265E-03 1.82003E-18
1.97947E-03 1.69008E-18
2.05780E-03 1.57146E-18
2.13765E-03 1.46302E-18
2.21902E-03 1.36373E-18
2.30190E-03 1.27267E-18
2.38630E-03 1.18904E-18
2.47222E-03 1.11213E-18
2.55965E-03 1.04130E-18
2.64859E-03 9.76000E-19
2.73905E-03 9.15709E-19
2.83103E-03 8.59980E-19
2.92452E-03 8.08407E-19
3.01952E-03 7.60626E-19
3.11604E-03 7.16310E-19
3.21407E-03 6.75163E-19
3.31362E-03 6.36919E-19
3.41468E-03 6.01337E-19
3.51725E-03 5.68200E-19
3.62133E-03 5.37310E-19
3.72692E-03 5.08487E-19
3.83403E-03 4.81568E-19
3.94265E-03 4.56406E-19
4.05278E-03 4.32865E-19
4.16442E-03 4.10823E-19
4.27757E-03 3.90167E-19
4.39223E-03 3.70793E-19
4.50840E-03 3.52609E-19
4.62608E-03 3.35527E-19
4.74527E-03 3.19469E-19
4.86597E-03 3.04363E-19
4.98817E-03 2.90141E-19
5.11188E-03 2.76743E-19
5.23711E-03 2.64112E-19
5.36383E-03 2.52196E-19
5.49207E-03 2.40947E-19
5.62181E-03 2.30321E-19
5.75306E-03 2.20277E-19
5.88581E-03 2.10777E-19
6.02007E-03 2.01786E-19
6.15583E-03 1.93272E-19
6.29310E-03 1.85205E-19
6.43187E-03 1.77557E-19
6.57214E-03 1.70302E-19
6.71392E-03 1.63416E-19
6.85720E-03 1.56877E-19
7.00198E-03 1.50664E-19
7.14827E-03 1.44757E-19
7.29605E-03 1.39140E-19
7.44534E-03 1.33794E-19
7.59612E-03 1.28704E-19
7.97965E-03 1.17007E-19
8.37255E-03 1.06619E-19
8.77480E-03 9.73678E-20
9.18641E-03 8.91063E-20
9.60736E-03 8.17099E-20
1.00376E-02 7.50717E-20
1.04773E-02 6.90998E-20
1.09262E-02 6.37154E-20
1.13844E-02 5.88499E-20
1.18520E-02 5.44442E-20
1.23288E-02 5.04469E-20
1.28150E-02 4.68131E-20
1.33104E-02 4.35037E-20
1.38150E-02 4.04842E-20
1.43290E-02 3.77246E-20
1.48521E-02 3.51984E-20
1.53845E-02 3.28821E-20
1.59262E-02 3.07549E-20
1.64770E-02 2.87987E-20
1.70371E-02 2.69969E-20
1.76063E-02 2.53352E-20
1.81848E-02 2.38006E-20
1.87724E-02 2.23815E-20
1.93692E-02 2.10677E-20
1.99751E-02 1.98497E-20
2.05901E-02 1.87193E-20
2.12143E-02 1.76691E-20
2.18476E-02 1.66921E-20
2.24900E-02 1.57824E-20
2.31415E-02 1.49344E-20
2.38021E-02 1.41432E-20
2.44717E-02 1.34041E-20
2.51504E-02 1.27132E-20
2.58382E-02 1.20667E-20
2.65349E-02 1.14611E-20
2.72407E-02 1.08935E-20
2.79555E-02 1.03608E-20
2.86793E-02 9.86069E-21
2.94120E-02 9.39066E-21
3.01537E-02 8.94858E-21
3.09043E-02 8.53246E-21
3.16639E-02 8.14050E-21
3.24324E-02 7.77101E-21
3.32098E-02 7.42245E-21
3.39961E-02 7.09341E-21
3.47912E-02 6.78259E-21
3.55952E-02 6.48878E-21
3.64081E-02 6.21087E-21
3.72297E-02 5.94783E-21
3.80602E-02 5.69871E-21
3.88995E-02 5.46263E-21
3.97476E-02 5.23877E-21
4.06044E-02 5.02638E-21
4.14700E-02 4.82476E-21
4.23443E-02 4.63325E-21
4.32273E-02 4.45124E-21
4.41190E-02 4.27818E-21
4.50194E-02 4.11353E-21
4.59284E-02 3.95681E-21
4.68461E-02 3.80756E-21
4.87074E-02 3.52980E-21
5.06030E-02 3.27716E-21
5.25328E-02 3.04694E-21
5.44967E-02 2.83679E-21
5.64946E-02 2.64463E-21
5.85262E-02 2.46863E-21
6.05914E-02 2.30717E-21
6.26901E-02 2.15883E-21
6.48222E-02 2.02235E-21
6.69873E-02 1.89658E-21
6.91854E-02 1.78054E-21
7.14163E-02 1.67333E-21
7.36799E-02 1.57414E-21
7.59760E-02 1.48227E-21
7.83043E-02 1.39707E-21
8.06647E-02 1.31796E-21
8.30571E-02 1.24442E-21
8.54812E-02 1.17599E-21
8.79369E-02 1.11225E-21
9.04240E-02 1.05280E-21
9.29422E-02 9.97314E-22
9.54915E-02 9.45465E-22
9.80716E-02 8.96973E-22
1.00682E-01 8.51577E-22
1.03323E-01 8.09042E-22
1.05995E-01 7.69152E-22
1.08696E-01 7.31711E-22
1.11427E-01 6.96540E-22
1.14188E-01 6.63472E-22
1.16978E-01 6.32360E-22
1.19797E-01 6.03063E-22
1.22645E-01 5.75457E-22
1.25522E-01 5.49423E-22
1.28428E-01 5.24856E-22
1.31361E-01 5.01655E-22
1.34323E-01 4.79731E-22
1.37313E-01 4.58999E-22
1.40330E-01 4.39381E-22
1.43375E-01 4.20806E-22
1.46447E-01 4.03208E-22
1.49545E-01 3.86526E-22
1.52671E-01 3.70701E-22
1.55823E-01 3.55681E-22
1.59001E-01 3.41418E-22
1.62205E-01 3.27865E-22
1.65435E-01 3.14980E-22
1.68690E-01 3.02725E-22
1.71970E-01 2.91061E-22
1.75276E-01 2.79955E-22
1.78606E-01 2.69375E-22
1.81961E-01 2.59291E-22
1.85340E-01 2.49675E-22
1.88743E-01 2.40501E-22
1.92169E-01 2.31745E-22
1.95619E-01 2.23384E-22
1.99092E-01 2.15397E-22
2.02589E-01 2.07763E-22
2.06107E-01 2.00464E-22
2.09649E-01 1.93482E-22
2.13212E-01 1.86801E-22
2.16797E-01 1.80405E-22
2.20404E-01 1.74280E-22
2.24032E-01 1.68411E-22
2.27680E-01 1.62787E-22
2.31350E-01 1.57394E-22
2.35040E-01 1.52222E-22
2.38751E-01 1.47259E-22
2.42481E-01 1.42496E-22
2.46231E-01 1.37923E-22
2.50000E-01 1.33530E-22
2.53788E-01 1.29310E-22
2.57595E-01 1.25253E-22
2.61421E-01 1.21353E-22
2.65264E-01 1.17603E-22
2.69126E-01 1.13994E-22
2.73005E-01 1.10522E-22
2.76901E-01 1.07179E-22
2.80814E-01 1.03960E-22
2.84744E-01 1.00860E-22
2.88691E-01 9.78730E-23
2.92653E-01 9.49942E-23
2.96632E-01 9.22191E-23
3.00625E-01 8.95430E-23
3.04634E-01 8.69618E-23
3.08658E-01 8.44715E-23
3.12697E-01 8.20682E-23
3.16749E-01 7.97483E-23
3.20816E-01 7.75083E-23
3.24896E-01 7.53450E-23
3.28990E-01 7.32550E-23
3.33097E-01 7.12356E-23
3.37216E-01 6.92840E-23
3.41348E-01 6.73972E-23
3.45492E-01 6.55727E-23
3.49647E-01 6.38083E-23
3.53814E-01 6.21013E-23
3.57992E-01 6.04496E-23
3.62181E-01 5.88511E-23
3.66381E-01 5.73037E-23
3.70590E-01 5.58055E-23
3.74810E-01 5.43545E-23
3.79039E-01 5.29491E-23
3.83277E-01 5.15875E-23
3.87524E-01 5.02681E-23
3.91780E-01 4.89893E-23
3.96044E-01 4.77496E-23
4.00316E-01 4.65476E-23
4.04596E-01 4.53819E-23
4.08882E-01 4.42512E-23
4.13176E-01 4.31543E-23
4.17476E-01 4.20900E-23
4.21783E-01 4.10571E-23
4.26095E-01 4.00545E-23
4.30413E-01 3.90811E-23
4.34737E-01 3.81360E-23
4.39065E-01 3.72181E-23
4.43398E-01 3.63266E-23
4.47736E-01 3.54604E-23
4.52077E-01 3.46188E-23
4.56422E-01 3.38010E-23
4.60770E-01 3.30061E-23
4.65122E-01 3.22333E-23
4.69476E-01 3.14820E-23
4.73832E-01 3.07514E-23
4.78190E-01 3.00409E-23
4.82550E-01 2.93498E-23
4.86912E-01 2.86774E-23
4.91274E-01 2.80232E-23
4.95637E-01 2.73866E-23
5.00000E-01 2.67670E-23
5.04363E-01 2.61638E-23
5.08726E-01 2.55767E-23
5.13088E-01 2.50050E-23
5.17450E-01 2.44483E-23
5.21810E-01 2.39061E-23
5.26168E-01 2.33780E-23
5.30524E-01 2.28635E-23
5.34878E-01 2.23622E-23
5.39230E-01 2.18738E-23
5.43578E-01 2.13978E-23
5.47923E-01 2.09338E-23
5.52264E-01 2.04816E-23
5.56602E-01 2.00407E-23
5.60935E-01 1.96108E-23
5.65263E-01 1.91916E-23
5.69587E-01 1.87828E-23
5.73905E-01 1.83841E-23
5.78217E-01 1.79951E-23
5.82524E-01 1.76157E-23
5.86824E-01 1.72455E-23
5.91118E-01 1.68843E-23
5.95404E-01 1.65317E-23
5.99684E-01 1.61877E-23
6.03956E-01 1.58519E-23
6.08220E-01 1.55241E-23
6.12476E-01 1.52040E-23
6.16723E-01 1.48916E-23
6.20961E-01 1.45864E-23
6.25190E-01 1.42885E-23
6.29410E-01 1.39975E-23
6.33619E-01 1.37132E-23
6.37819E-01 1.34356E-23
6.42008E-01 1.31644E-23
6.46186E-01 1.28994E-23
6.50353E-01 1.26404E-23
6.54508E-01 1.23874E-23
6.58652E-01 1.21402E-23
6.62784E-01 1.18985E-23
6.66903E-01 1.16623E-23
6.71010E-01 1.14314E-23
6.75104E-01 1.12057E-23
6.79184E-01 1.09851E-23
6.83251E-01 1.07694E-23
6.87303E-01 1.05584E-23
6.91342E-01 1.03522E-23
6.95366E-01 1.01504E-23
6.99375E-01 9.95315E-24
7.03368E-01 9.76020E-24
7.07347E-01 9.57146E-24
7.11309E-01 9.38684E-24
7.15256E-01 9.20623E-24
7.19186E-01 9.02955E-24
7.23099E-01 8.85668E-24
7.26995E-01 8.68754E-24
7.30874E-01 8.52203E-24
7.34736E-01 8.36006E-24
7.38579E-01 8.20157E-24
7.42405E-01 8.04646E-24
7.46212E-01 7.89465E-24
7.50000E-01 7.74606E-24
7.53769E-01 7.60062E-24
7.57519E-01 7.45826E-24
7.61249E-01 7.31889E-24
7.64960E-01 7.18246E-24
7.68650E-01 7.04889E-24
7.72320E-01 6.91813E-24
7.75968E-01 6.79011E-24
7.79596E-01 6.66476E-24
7.83203E-01 6.54201E-24
7.86788E-01 6.42183E-24
7.90351E-01 6.30414E-24
7.93893E-01 6.18889E-24
7.97411E-01 6.07604E-24
8.00908E-01 5.96552E-24
8.04381E-01 5.85728E-24
8.07831E-01 5.75128E-24
8.11257E-01 5.64746E-24
8.14660E-01 5.54579E-24
8.18039E-01 5.44620E-24
8.21394E-01 5.34867E-24
8.24724E-01 5.25314E-24
8.28030E-01 5.15958E-24
8.31310E-01 5.06794E-24
8.34565E-01 4.97818E-24
8.37795E-01 4.89026E-24
8.40999E-01 4.80414E-24
8.44177E-01 4.71980E-24
8.47329E-01 4.63719E-24
8.50455E-01 4.55627E-24
8.53553E-01 4.47702E-24
8.56625E-01 4.39939E-24
8.59670E-01 4.32336E-24
8.62687E-01 4.24890E-24
8.65677E-01 4.17597E-24
8.68639E-01 4.10455E-24
8.71572E-01 4.03461E-24
8.74478E-01 3.96611E-24
8.77355E-01 3.89903E-24
8.80203E-01 3.83334E-24
8.83022E-01 3.76902E-24
8.85812E-01 3.70604E-24
8.88573E-01 3.64438E-24
8.91304E-01 3.58401E-24
8.94005E-01 3.52491E-24
8.96677E-01 3.46705E-24
8.99318E-01 3.41042E-24
9.01928E-01 3.35498E-24
9.04508E-01 3.30072E-24
9.07058E-01 3.24763E-24
9.09576E-01 3.19567E-24
9.12063E-01 3.14483E-24
9.14519E-01 3.09510E-24
9.16943E-01 3.04644E-24
9.19335E-01 2.99884E-24
9.21696E-01 2.95229E-24
9.24024E-01 2.90677E-24
9.26320E-01 2.86226E-24
9.28584E-01 2.81875E-24
9.30815E-01 2.77621E-24
9.33013E-01 2.73464E-24
9.35178E-01 2.69401E-24
9.37310E-01 2.65432E-24
9.39409E-01 2.61555E-24
9.41474E-01 2.57769E-24
9.43505E-01 2.54071E-24
9.45503E-01 2.50462E-24
9.47467E-01 2.46939E-24
9.49397E-01 2.43501E-24
9.51293E-01 2.40148E-24
9.53154E-01 2.36877E-24
9.54981E-01 2.33689E-24
9.56773E-01 2.30581E-24
9.58530E-01 2.27553E-24
9.60252E-01 2.24603E-24
9.61940E-01 2.21731E-24
9.63592E-01 2.18935E-24
9.65209E-01 2.16215E-24
9.66790E-01 2.13570E-24
9.68336E-01 2.10999E-24
9.69846E-01 2.08501E-24
9.71321E-01 2.06074E-24
9.72759E-01 2.03719E-24
9.74162E-01 2.01434E-24
9.75528E-01 1.99219E-24
9.76858E-01 1.97074E-24
9.78152E-01 1.94996E-24
9.79410E-01 1.92986E-24
9.80631E-01 1.91042E-24
9.81815E-01 1.89165E-24
9.82963E-01 1.87353E-24
9.84074E-01 1.85607E-24
9.85148E-01 1.83925E-24
9.86185E-01 1.82307E-24
9.87185E-01 1.80752E-24
9.88148E-01 1.79260E-24
9.89074E-01 1.77830E-24
9.89962E-01 1.76462E-24
9.90814E-01 1.75155E-24
9.91627E-01 1.73910E-24
9.92404E-01 1.72725E-24
9.93143E-01 1.71601E-24
9.93844E-01 1.70536E-24
9.94508E-01 1.69530E-24
9.95134E-01 1.68584E-24
9.95722E-01 1.67696E-24
9.96273E-01 1.66868E-24
9.96786E-01 1.66097E-24
9.97261E-01 1.65385E-24
9.97698E-01 1.64731E-24
9.98097E-01 1.64133E-24
9.98459E-01 1.63594E-24
9.98782E-01 1.63111E-24
9.99067E-01 1.62686E-24
9.99315E-01 1.62318E-24
9.99524E-01 1.62007E-24
9.99695E-01 1.61753E-24
9.99829E-01 1.61555E-24
9.99924E-01 1.61413E-24
9.99981E-01 1.61327E-24
1.00000E+00 1.61296E-24
