 #
 # Subroutine ELSEPA. Elastic scattering of electrons and positrons
 #                    by neutral atoms and positive ions
 #
 # Projectile: electron
 # Kinetic energy = 3.00000E+06 eV = 1.10248E+05 a.u.
 #
 # WARNING: High-energy factorization with free-atom DF screening.
 #          Absorption, polarization and exchange corrections are
 #          switched off.
 #          Phase shifts are calculated for the bare nucleus.
 #          Scattering amplitudes are not evaluated.
 #
 # Element: Sr,  Z =  38,  atomic weight = 8.76200E+01 g/mol
 #
 # Nuclear model: Fermi distribution
 #                Average radius = 4.75246E-13 cm
 #                Skin thickness = 5.46000E-14 cm
 #
 # Number of electrons = 38
 #
 # Total elastic cross section = 3.84521E-18 cm**2 = 1.37315E-01 a0**2
 # 1st transport cross section = 1.77038E-22 cm**2 = 6.32215E-06 a0**2
 # 2nd transport cross section = 4.95486E-22 cm**2 = 1.76941E-05 a0**2
 #
 #
 # Differential cross section:                       MU=(1-COS(THETA))/2
 #
 #  THETA        MU          DCS          DCS        Sherman      error
 #  (deg)                 (cm**2/sr)   (a0**2/sr)    function
 #----------------------------------------------------------------------
0.00000E+00 7.99107E-13
7.61557E-13 7.99101E-13
1.18994E-12 7.99098E-13
1.71346E-12 7.99095E-13
2.33225E-12 7.99090E-13
3.04617E-12 7.99085E-13
3.85530E-12 7.99079E-13
4.75964E-12 7.99073E-13
5.75917E-12 7.99065E-13
6.85391E-12 7.99058E-13
8.04379E-12 7.99049E-13
9.32893E-12 7.99040E-13
1.07092E-11 7.99030E-13
1.21847E-11 7.99019E-13
1.37554E-11 7.99008E-13
1.54213E-11 7.98996E-13
1.71823E-11 7.98983E-13
1.90386E-11 7.98970E-13
2.09900E-11 7.98956E-13
2.30367E-11 7.98941E-13
2.51785E-11 7.98925E-13
2.74156E-11 7.98909E-13
2.97478E-11 7.98893E-13
3.21752E-11 7.98875E-13
3.46979E-11 7.98857E-13
3.73157E-11 7.98838E-13
4.00286E-11 7.98818E-13
4.28368E-11 7.98798E-13
4.57402E-11 7.98777E-13
4.87388E-11 7.98756E-13
5.18325E-11 7.98733E-13
5.50215E-11 7.98710E-13
5.83057E-11 7.98686E-13
6.16850E-11 7.98662E-13
6.51595E-11 7.98637E-13
6.87293E-11 7.98611E-13
7.23943E-11 7.98585E-13
7.61544E-11 7.98558E-13
1.18991E-10 7.98249E-13
1.71347E-10 7.97871E-13
2.33223E-10 7.97425E-13
3.04617E-10 7.96911E-13
3.85531E-10 7.96329E-13
4.75965E-10 7.95679E-13
5.75917E-10 7.94961E-13
6.85389E-10 7.94177E-13
8.04380E-10 7.93325E-13
9.32891E-10 7.92407E-13
1.07092E-09 7.91422E-13
1.21847E-09 7.90372E-13
1.37554E-09 7.89256E-13
1.54213E-09 7.88075E-13
1.71823E-09 7.86830E-13
1.90386E-09 7.85521E-13
2.09900E-09 7.84148E-13
2.30367E-09 7.82711E-13
2.51785E-09 7.81213E-13
2.74156E-09 7.79652E-13
2.97478E-09 7.78030E-13
3.21752E-09 7.76348E-13
3.46978E-09 7.74605E-13
3.73156E-09 7.72803E-13
4.00286E-09 7.70942E-13
4.28368E-09 7.69022E-13
4.57402E-09 7.67046E-13
4.87388E-09 7.65013E-13
5.18326E-09 7.62924E-13
5.50215E-09 7.60780E-13
5.83057E-09 7.58581E-13
6.16850E-09 7.56329E-13
6.51596E-09 7.54025E-13
6.87293E-09 7.51667E-13
7.23942E-09 7.49260E-13
7.61544E-09 7.46802E-13
1.18991E-08 7.19653E-13
1.71347E-08 6.88492E-13
2.33223E-08 6.54460E-13
3.04617E-08 6.18092E-13
3.85531E-08 5.80839E-13
4.75965E-08 5.43196E-13
5.75917E-08 5.05768E-13
6.85389E-08 4.69753E-13
8.04380E-08 4.34939E-13
9.32891E-08 4.01933E-13
1.07092E-07 3.71140E-13
1.21847E-07 3.42226E-13
1.37554E-07 3.15686E-13
1.54213E-07 2.91275E-13
1.71823E-07 2.68745E-13
1.90386E-07 2.48482E-13
2.09900E-07 2.29910E-13
2.30367E-07 2.12993E-13
2.51785E-07 1.97792E-13
2.74156E-07 1.83891E-13
2.97478E-07 1.71318E-13
3.21752E-07 1.59929E-13
3.46978E-07 1.49515E-13
3.73156E-07 1.40096E-13
4.00286E-07 1.31483E-13
4.28368E-07 1.23588E-13
4.57402E-07 1.16400E-13
4.87388E-07 1.09776E-13
5.18325E-07 1.03683E-13
5.50215E-07 9.80683E-14
5.83057E-07 9.28702E-14
6.16850E-07 8.80556E-14
6.51596E-07 8.35795E-14
6.87293E-07 7.94165E-14
7.23942E-07 7.55255E-14
7.61543E-07 7.18893E-14
1.18991E-06 4.54780E-14
1.71347E-06 3.00275E-14
2.33223E-06 2.02458E-14
3.04617E-06 1.43638E-14
3.85531E-06 1.03829E-14
4.75964E-06 7.76262E-15
5.75916E-06 5.96461E-15
6.85388E-06 4.65793E-15
8.04378E-06 3.71526E-15
9.32888E-06 3.00494E-15
1.07092E-05 2.45233E-15
1.21846E-05 2.02617E-15
1.37553E-05 1.68245E-15
1.54212E-05 1.40660E-15
1.71822E-05 1.18531E-15
1.90385E-05 1.00039E-15
2.09899E-05 8.50311E-16
2.30365E-05 7.26381E-16
2.51783E-05 6.22284E-16
2.74153E-05 5.36113E-16
2.97475E-05 4.63637E-16
3.21749E-05 4.02600E-16
3.46974E-05 3.51297E-16
3.73152E-05 3.07615E-16
4.00281E-05 2.70528E-16
4.28362E-05 2.38903E-16
4.57395E-05 2.11688E-16
4.87380E-05 1.88288E-16
5.18317E-05 1.68033E-16
5.50205E-05 1.50441E-16
5.83045E-05 1.35142E-16
6.16838E-05 1.21767E-16
6.51582E-05 1.10041E-16
6.87277E-05 9.97322E-17
7.23925E-05 9.06192E-17
7.61524E-05 8.25492E-17
9.21439E-05 5.81201E-17
1.09658E-04 4.21784E-17
1.28695E-04 3.13909E-17
1.49255E-04 2.38514E-17
1.71338E-04 1.84452E-17
1.94942E-04 1.44732E-17
2.20070E-04 1.15105E-17
2.46720E-04 9.26512E-18
2.74892E-04 7.54181E-18
3.04586E-04 6.19255E-18
3.35803E-04 5.13247E-18
3.68542E-04 4.28901E-18
4.02802E-04 3.60983E-18
4.38585E-04 3.06029E-18
4.75889E-04 2.61098E-18
5.14715E-04 2.24097E-18
5.55063E-04 1.93448E-18
5.96931E-04 1.67844E-18
6.40321E-04 1.46352E-18
6.85233E-04 1.28209E-18
7.31665E-04 1.12784E-18
7.79618E-04 9.96258E-19
8.29092E-04 8.83384E-19
8.80086E-04 7.86078E-19
9.32601E-04 7.01892E-19
9.86636E-04 6.28709E-19
1.04219E-03 5.64861E-19
1.09927E-03 5.08967E-19
1.15786E-03 4.59828E-19
1.21797E-03 4.16513E-19
1.27961E-03 3.78210E-19
1.34276E-03 3.44216E-19
1.40743E-03 3.13981E-19
1.47362E-03 2.87008E-19
1.54133E-03 2.62879E-19
1.61056E-03 2.41249E-19
1.68131E-03 2.21802E-19
1.75357E-03 2.04285E-19
1.82735E-03 1.88475E-19
1.90265E-03 1.74164E-19
1.97947E-03 1.61195E-19
2.05780E-03 1.49416E-19
2.13765E-03 1.38695E-19
2.21902E-03 1.28924E-19
2.30190E-03 1.20001E-19
2.38630E-03 1.11839E-19
2.47222E-03 1.04363E-19
2.55965E-03 9.75023E-20
2.64859E-03 9.11985E-20
2.73905E-03 8.53988E-20
2.83103E-03 8.00527E-20
2.92452E-03 7.51210E-20
3.01952E-03 7.05645E-20
3.11604E-03 6.63489E-20
3.21407E-03 6.24453E-20
3.31362E-03 5.88251E-20
3.41468E-03 5.54644E-20
3.51725E-03 5.23417E-20
3.62133E-03 4.94357E-20
3.72692E-03 4.67297E-20
3.83403E-03 4.42072E-20
3.94265E-03 4.18527E-20
4.05278E-03 3.96539E-20
4.16442E-03 3.75980E-20
4.27757E-03 3.56741E-20
4.39223E-03 3.38723E-20
4.50840E-03 3.21831E-20
4.62608E-03 3.05984E-20
4.74527E-03 2.91106E-20
4.86597E-03 2.77121E-20
4.98817E-03 2.63972E-20
5.11188E-03 2.51597E-20
5.23711E-03 2.39940E-20
5.36383E-03 2.28955E-20
5.49207E-03 2.18593E-20
5.62181E-03 2.08814E-20
5.75306E-03 1.99578E-20
5.88581E-03 1.90849E-20
6.02007E-03 1.82595E-20
6.15583E-03 1.74784E-20
6.29310E-03 1.67388E-20
6.43187E-03 1.60381E-20
6.57214E-03 1.53739E-20
6.71392E-03 1.47438E-20
6.85720E-03 1.41460E-20
7.00198E-03 1.35782E-20
7.14827E-03 1.30388E-20
7.29605E-03 1.25260E-20
7.44534E-03 1.20383E-20
7.59612E-03 1.15743E-20
7.97965E-03 1.05089E-20
8.37255E-03 9.56389E-21
8.77480E-03 8.72335E-21
9.18641E-03 7.97363E-21
9.60736E-03 7.30322E-21
1.00376E-02 6.70220E-21
1.04773E-02 6.16214E-21
1.09262E-02 5.67572E-21
1.13844E-02 5.23666E-21
1.18520E-02 4.83953E-21
1.23288E-02 4.47957E-21
1.28150E-02 4.15270E-21
1.33104E-02 3.85531E-21
1.38150E-02 3.58426E-21
1.43290E-02 3.33678E-21
1.48521E-02 3.11045E-21
1.53845E-02 2.90314E-21
1.59262E-02 2.71294E-21
1.64770E-02 2.53818E-21
1.70371E-02 2.37738E-21
1.76063E-02 2.22922E-21
1.81848E-02 2.09251E-21
1.87724E-02 1.96621E-21
1.93692E-02 1.84937E-21
1.99751E-02 1.74116E-21
2.05901E-02 1.64081E-21
2.12143E-02 1.54765E-21
2.18476E-02 1.46107E-21
2.24900E-02 1.38050E-21
2.31415E-02 1.30547E-21
2.38021E-02 1.23551E-21
2.44717E-02 1.17022E-21
2.51504E-02 1.10922E-21
2.58382E-02 1.05218E-21
2.65349E-02 9.98792E-22
2.72407E-02 9.48782E-22
2.79555E-02 9.01891E-22
2.86793E-02 8.57888E-22
2.94120E-02 8.16562E-22
3.01537E-02 7.77718E-22
3.09043E-02 7.41179E-22
3.16639E-02 7.06781E-22
3.24324E-02 6.74375E-22
3.32098E-02 6.43823E-22
3.39961E-02 6.14998E-22
3.47912E-02 5.87784E-22
3.55952E-02 5.62074E-22
3.64081E-02 5.37768E-22
3.72297E-02 5.14774E-22
3.80602E-02 4.93009E-22
3.88995E-02 4.72392E-22
3.97476E-02 4.52854E-22
4.06044E-02 4.34324E-22
4.14700E-02 4.16742E-22
4.23443E-02 4.00050E-22
4.32273E-02 3.84193E-22
4.41190E-02 3.69122E-22
4.50194E-02 3.54791E-22
4.59284E-02 3.41154E-22
4.68461E-02 3.28174E-22
4.87074E-02 3.04029E-22
5.06030E-02 2.82086E-22
5.25328E-02 2.62105E-22
5.44967E-02 2.43879E-22
5.64946E-02 2.27224E-22
5.85262E-02 2.11980E-22
6.05914E-02 1.98004E-22
6.26901E-02 1.85172E-22
6.48222E-02 1.73371E-22
6.69873E-02 1.62504E-22
6.91854E-02 1.52482E-22
7.14163E-02 1.43228E-22
7.36799E-02 1.34671E-22
7.59760E-02 1.26748E-22
7.83043E-02 1.19405E-22
8.06647E-02 1.12589E-22
8.30571E-02 1.06257E-22
8.54812E-02 1.00366E-22
8.79369E-02 9.48815E-23
9.04240E-02 8.97687E-23
9.29422E-02 8.49980E-23
9.54915E-02 8.05420E-23
9.80716E-02 7.63759E-23
1.00682E-01 7.24773E-23
1.03323E-01 6.88257E-23
1.05995E-01 6.54023E-23
1.08696E-01 6.21901E-23
1.11427E-01 5.91736E-23
1.14188E-01 5.63385E-23
1.16978E-01 5.36718E-23
1.19797E-01 5.11616E-23
1.22645E-01 4.87968E-23
1.25522E-01 4.65675E-23
1.28428E-01 4.44642E-23
1.31361E-01 4.24786E-23
1.34323E-01 4.06028E-23
1.37313E-01 3.88294E-23
1.40330E-01 3.71519E-23
1.43375E-01 3.55639E-23
1.46447E-01 3.40599E-23
1.49545E-01 3.26344E-23
1.52671E-01 3.12826E-23
1.55823E-01 3.00000E-23
1.59001E-01 2.87822E-23
1.62205E-01 2.76254E-23
1.65435E-01 2.65259E-23
1.68690E-01 2.54803E-23
1.71970E-01 2.44856E-23
1.75276E-01 2.35386E-23
1.78606E-01 2.26367E-23
1.81961E-01 2.17772E-23
1.85340E-01 2.09579E-23
1.88743E-01 2.01765E-23
1.92169E-01 1.94308E-23
1.95619E-01 1.87189E-23
1.99092E-01 1.80390E-23
2.02589E-01 1.73894E-23
2.06107E-01 1.67684E-23
2.09649E-01 1.61745E-23
2.13212E-01 1.56064E-23
2.16797E-01 1.50627E-23
2.20404E-01 1.45421E-23
2.24032E-01 1.40434E-23
2.27680E-01 1.35656E-23
2.31350E-01 1.31077E-23
2.35040E-01 1.26685E-23
2.38751E-01 1.22472E-23
2.42481E-01 1.18430E-23
2.46231E-01 1.14550E-23
2.50000E-01 1.10824E-23
2.53788E-01 1.07245E-23
2.57595E-01 1.03806E-23
2.61421E-01 1.00500E-23
2.65264E-01 9.73221E-24
2.69126E-01 9.42654E-24
2.73005E-01 9.13246E-24
2.76901E-01 8.84945E-24
2.80814E-01 8.57700E-24
2.84744E-01 8.31464E-24
2.88691E-01 8.06193E-24
2.92653E-01 7.81845E-24
2.96632E-01 7.58379E-24
3.00625E-01 7.35758E-24
3.04634E-01 7.13945E-24
3.08658E-01 6.92906E-24
3.12697E-01 6.72607E-24
3.16749E-01 6.53018E-24
3.20816E-01 6.34110E-24
3.24896E-01 6.15853E-24
3.28990E-01 5.98221E-24
3.33097E-01 5.81188E-24
3.37216E-01 5.64731E-24
3.41348E-01 5.48826E-24
3.45492E-01 5.33451E-24
3.49647E-01 5.18586E-24
3.53814E-01 5.04209E-24
3.57992E-01 4.90302E-24
3.62181E-01 4.76847E-24
3.66381E-01 4.63827E-24
3.70590E-01 4.51223E-24
3.74810E-01 4.39021E-24
3.79039E-01 4.27206E-24
3.83277E-01 4.15761E-24
3.87524E-01 4.04675E-24
3.91780E-01 3.93933E-24
3.96044E-01 3.83523E-24
4.00316E-01 3.73433E-24
4.04596E-01 3.63651E-24
4.08882E-01 3.54166E-24
4.13176E-01 3.44967E-24
4.17476E-01 3.36044E-24
4.21783E-01 3.27387E-24
4.26095E-01 3.18987E-24
4.30413E-01 3.10834E-24
4.34737E-01 3.02920E-24
4.39065E-01 2.95237E-24
4.43398E-01 2.87777E-24
4.47736E-01 2.80532E-24
4.52077E-01 2.73494E-24
4.56422E-01 2.66657E-24
4.60770E-01 2.60014E-24
4.65122E-01 2.53559E-24
4.69476E-01 2.47285E-24
4.73832E-01 2.41186E-24
4.78190E-01 2.35256E-24
4.82550E-01 2.29491E-24
4.86912E-01 2.23883E-24
4.91274E-01 2.18430E-24
4.95637E-01 2.13124E-24
5.00000E-01 2.07962E-24
5.04363E-01 2.02939E-24
5.08726E-01 1.98051E-24
5.13088E-01 1.93293E-24
5.17450E-01 1.88662E-24
5.21810E-01 1.84153E-24
5.26168E-01 1.79762E-24
5.30524E-01 1.75487E-24
5.34878E-01 1.71323E-24
5.39230E-01 1.67266E-24
5.43578E-01 1.63315E-24
5.47923E-01 1.59465E-24
5.52264E-01 1.55714E-24
5.56602E-01 1.52058E-24
5.60935E-01 1.48494E-24
5.65263E-01 1.45021E-24
5.69587E-01 1.41635E-24
5.73905E-01 1.38333E-24
5.78217E-01 1.35114E-24
5.82524E-01 1.31975E-24
5.86824E-01 1.28913E-24
5.91118E-01 1.25927E-24
5.95404E-01 1.23013E-24
5.99684E-01 1.20171E-24
6.03956E-01 1.17398E-24
6.08220E-01 1.14692E-24
6.12476E-01 1.12051E-24
6.16723E-01 1.09474E-24
6.20961E-01 1.06958E-24
6.25190E-01 1.04502E-24
6.29410E-01 1.02105E-24
6.33619E-01 9.97637E-25
6.37819E-01 9.74779E-25
6.42008E-01 9.52458E-25
6.46186E-01 9.30659E-25
6.50353E-01 9.09367E-25
6.54508E-01 8.88570E-25
6.58652E-01 8.68254E-25
6.62784E-01 8.48407E-25
6.66903E-01 8.29016E-25
6.71010E-01 8.10069E-25
6.75104E-01 7.91555E-25
6.79184E-01 7.73462E-25
6.83251E-01 7.55779E-25
6.87303E-01 7.38495E-25
6.91342E-01 7.21601E-25
6.95366E-01 7.05087E-25
6.99375E-01 6.88942E-25
7.03368E-01 6.73157E-25
7.07347E-01 6.57724E-25
7.11309E-01 6.42633E-25
7.15256E-01 6.27876E-25
7.19186E-01 6.13445E-25
7.23099E-01 5.99331E-25
7.26995E-01 5.85528E-25
7.30874E-01 5.72026E-25
7.34736E-01 5.58820E-25
7.38579E-01 5.45901E-25
7.42405E-01 5.33264E-25
7.46212E-01 5.20900E-25
7.50000E-01 5.08804E-25
7.53769E-01 4.96969E-25
7.57519E-01 4.85388E-25
7.61249E-01 4.74056E-25
7.64960E-01 4.62967E-25
7.68650E-01 4.52116E-25
7.72320E-01 4.41496E-25
7.75968E-01 4.31102E-25
7.79596E-01 4.20929E-25
7.83203E-01 4.10973E-25
7.86788E-01 4.01227E-25
7.90351E-01 3.91688E-25
7.93893E-01 3.82351E-25
7.97411E-01 3.73211E-25
8.00908E-01 3.64263E-25
8.04381E-01 3.55504E-25
8.07831E-01 3.46930E-25
8.11257E-01 3.38536E-25
8.14660E-01 3.30318E-25
8.18039E-01 3.22272E-25
8.21394E-01 3.14395E-25
8.24724E-01 3.06683E-25
8.28030E-01 2.99133E-25
8.31310E-01 2.91740E-25
8.34565E-01 2.84501E-25
8.37795E-01 2.77414E-25
8.40999E-01 2.70476E-25
8.44177E-01 2.63682E-25
8.47329E-01 2.57029E-25
8.50455E-01 2.50516E-25
8.53553E-01 2.44140E-25
8.56625E-01 2.37896E-25
8.59670E-01 2.31784E-25
8.62687E-01 2.25799E-25
8.65677E-01 2.19941E-25
8.68639E-01 2.14206E-25
8.71572E-01 2.08591E-25
8.74478E-01 2.03094E-25
8.77355E-01 1.97714E-25
8.80203E-01 1.92446E-25
8.83022E-01 1.87291E-25
8.85812E-01 1.82244E-25
8.88573E-01 1.77305E-25
8.91304E-01 1.72470E-25
8.94005E-01 1.67739E-25
8.96677E-01 1.63109E-25
8.99318E-01 1.58579E-25
9.01928E-01 1.54146E-25
9.04508E-01 1.49809E-25
9.07058E-01 1.45565E-25
9.09576E-01 1.41415E-25
9.12063E-01 1.37354E-25
9.14519E-01 1.33384E-25
9.16943E-01 1.29500E-25
9.19335E-01 1.25703E-25
9.21696E-01 1.21990E-25
9.24024E-01 1.18361E-25
9.26320E-01 1.14813E-25
9.28584E-01 1.11345E-25
9.30815E-01 1.07957E-25
9.33013E-01 1.04646E-25
9.35178E-01 1.01412E-25
9.37310E-01 9.82529E-26
9.39409E-01 9.51680E-26
9.41474E-01 9.21560E-26
9.43505E-01 8.92159E-26
9.45503E-01 8.63463E-26
9.47467E-01 8.35464E-26
9.49397E-01 8.08151E-26
9.51293E-01 7.81513E-26
9.53154E-01 7.55541E-26
9.54981E-01 7.30226E-26
9.56773E-01 7.05558E-26
9.58530E-01 6.81527E-26
9.60252E-01 6.58126E-26
9.61940E-01 6.35346E-26
9.63592E-01 6.13179E-26
9.65209E-01 5.91616E-26
9.66790E-01 5.70650E-26
9.68336E-01 5.50273E-26
9.69846E-01 5.30479E-26
9.71321E-01 5.11260E-26
9.72759E-01 4.92609E-26
9.74162E-01 4.74520E-26
9.75528E-01 4.56986E-26
9.76858E-01 4.40001E-26
9.78152E-01 4.23559E-26
9.79410E-01 4.07655E-26
9.80631E-01 3.92282E-26
9.81815E-01 3.77436E-26
9.82963E-01 3.63111E-26
9.84074E-01 3.49302E-26
9.85148E-01 3.36005E-26
9.86185E-01 3.23214E-26
9.87185E-01 3.10926E-26
9.88148E-01 2.99136E-26
9.89074E-01 2.87841E-26
9.89962E-01 2.77035E-26
9.90814E-01 2.66716E-26
9.91627E-01 2.56880E-26
9.92404E-01 2.47524E-26
9.93143E-01 2.38644E-26
9.93844E-01 2.30237E-26
9.94508E-01 2.22301E-26
9.95134E-01 2.14832E-26
9.95722E-01 2.07829E-26
9.96273E-01 2.01289E-26
9.96786E-01 1.95209E-26
9.97261E-01 1.89588E-26
9.97698E-01 1.84423E-26
9.98097E-01 1.79714E-26
9.98459E-01 1.75458E-26
9.98782E-01 1.71653E-26
9.99067E-01 1.68299E-26
9.99315E-01 1.65395E-26
9.99524E-01 1.62939E-26
9.99695E-01 1.60931E-26
9.99829E-01 1.59370E-26
9.99924E-01 1.58255E-26
9.99981E-01 1.57586E-26
1.00000E+00 1.57363E-26
