 #
 # Subroutine ELSEPA. Elastic scattering of electrons and positrons
 #                    by neutral atoms and positive ions
 #
 # Projectile: electron
 # Kinetic energy = 1.00000E+07 eV = 3.67493E+05 a.u.
 #
 # WARNING: High-energy factorization with free-atom DF screening.
 #          Absorption, polarization and exchange corrections are
 #          switched off.
 #          Phase shifts are calculated for the bare nucleus.
 #          Scattering amplitudes are not evaluated.
 #
 # Element: Sr,  Z =  38,  atomic weight = 8.76200E+01 g/mol
 #
 # Nuclear model: Fermi distribution
 #                Average radius = 4.75246E-13 cm
 #                Skin thickness = 5.46000E-14 cm
 #
 # Number of electrons = 38
 #
 # Total elastic cross section = 3.76916E-18 cm**2 = 1.34599E-01 a0**2
 # 1st transport cross section = 2.26520E-23 cm**2 = 8.08919E-07 a0**2
 # 2nd transport cross section = 6.43272E-23 cm**2 = 2.29716E-06 a0**2
 #
 #
 # Differential cross section:                       MU=(1-COS(THETA))/2
 #
 #  THETA        MU          DCS          DCS        Sherman      error
 #  (deg)                 (cm**2/sr)   (a0**2/sr)    function
 #----------------------------------------------------------------------
0.00000E+00 7.16195E-12
7.61557E-13 7.16150E-12
1.18994E-12 7.16124E-12
1.71346E-12 7.16093E-12
2.33225E-12 7.16056E-12
3.04617E-12 7.16014E-12
3.85530E-12 7.15966E-12
4.75964E-12 7.15912E-12
5.75917E-12 7.15853E-12
6.85391E-12 7.15788E-12
8.04379E-12 7.15718E-12
9.32893E-12 7.15642E-12
1.07092E-11 7.15560E-12
1.21847E-11 7.15472E-12
1.37554E-11 7.15379E-12
1.54213E-11 7.15281E-12
1.71823E-11 7.15177E-12
1.90386E-11 7.15067E-12
2.09900E-11 7.14952E-12
2.30367E-11 7.14831E-12
2.51785E-11 7.14704E-12
2.74156E-11 7.14572E-12
2.97478E-11 7.14434E-12
3.21752E-11 7.14291E-12
3.46979E-11 7.14142E-12
3.73157E-11 7.13988E-12
4.00286E-11 7.13828E-12
4.28368E-11 7.13662E-12
4.57402E-11 7.13491E-12
4.87388E-11 7.13314E-12
5.18325E-11 7.13132E-12
5.50215E-11 7.12944E-12
5.83057E-11 7.12751E-12
6.16850E-11 7.12552E-12
6.51595E-11 7.12348E-12
6.87293E-11 7.12138E-12
7.23943E-11 7.11923E-12
7.61544E-11 7.11702E-12
1.18991E-10 7.09195E-12
1.71347E-10 7.06150E-12
2.33223E-10 7.02576E-12
3.04617E-10 6.98487E-12
3.85531E-10 6.93896E-12
4.75965E-10 6.88820E-12
5.75917E-10 6.83276E-12
6.85389E-10 6.77282E-12
8.04380E-10 6.70858E-12
9.32891E-10 6.64025E-12
1.07092E-09 6.56805E-12
1.21847E-09 6.49220E-12
1.37554E-09 6.41293E-12
1.54213E-09 6.33048E-12
1.71823E-09 6.24510E-12
1.90386E-09 6.15702E-12
2.09900E-09 6.06658E-12
2.30367E-09 5.97472E-12
2.51785E-09 5.88050E-12
2.74156E-09 5.78413E-12
2.97478E-09 5.68583E-12
3.21752E-09 5.58579E-12
3.46978E-09 5.48650E-12
3.73156E-09 5.38623E-12
4.00286E-09 5.28483E-12
4.28368E-09 5.18249E-12
4.57402E-09 5.07937E-12
4.87388E-09 4.97767E-12
5.18326E-09 4.87665E-12
5.50215E-09 4.77535E-12
5.83057E-09 4.67391E-12
6.16850E-09 4.57249E-12
6.51596E-09 4.47263E-12
6.87293E-09 4.37504E-12
7.23942E-09 4.27781E-12
7.61544E-09 4.18104E-12
1.18991E-08 3.29598E-12
1.71347E-08 2.58217E-12
2.33223E-08 2.03566E-12
3.04617E-08 1.62693E-12
3.85531E-08 1.32215E-12
4.75965E-08 1.09247E-12
5.75917E-08 9.16172E-13
6.85389E-08 7.77871E-13
8.04380E-08 6.66963E-13
9.32891E-08 5.76300E-13
1.07092E-07 5.01000E-13
1.21847E-07 4.37669E-13
1.37554E-07 3.83889E-13
1.54213E-07 3.37889E-13
1.71823E-07 2.98333E-13
1.90386E-07 2.64183E-13
2.09900E-07 2.34432E-13
2.30367E-07 2.07369E-13
2.51785E-07 1.84634E-13
2.74156E-07 1.65409E-13
2.97478E-07 1.49049E-13
3.21752E-07 1.35045E-13
3.46978E-07 1.21687E-13
3.73156E-07 1.10006E-13
4.00286E-07 9.99058E-14
4.28368E-07 9.11292E-14
4.57402E-07 8.34675E-14
4.87388E-07 7.64039E-14
5.18325E-07 7.00200E-14
5.50215E-07 6.43960E-14
5.83057E-07 5.94226E-14
6.16850E-07 5.50084E-14
6.51596E-07 5.09652E-14
6.87293E-07 4.72093E-14
7.23942E-07 4.38512E-14
7.61543E-07 4.08396E-14
1.18991E-06 2.14711E-14
1.71347E-06 1.22903E-14
2.33223E-06 7.41467E-15
3.04617E-06 4.66733E-15
3.85531E-06 3.05616E-15
4.75964E-06 2.07698E-15
5.75916E-06 1.46024E-15
6.85388E-06 1.05802E-15
8.04378E-06 7.87172E-16
9.32888E-06 5.98954E-16
1.07092E-05 4.64443E-16
1.21846E-05 3.66020E-16
1.37553E-05 2.92539E-16
1.54212E-05 2.36692E-16
1.71822E-05 1.93562E-16
1.90385E-05 1.59764E-16
2.09899E-05 1.33014E-16
2.30365E-05 1.11524E-16
2.51783E-05 9.43060E-17
2.74153E-05 8.01337E-17
2.97475E-05 6.85799E-17
3.21749E-05 5.89628E-17
3.46974E-05 5.09966E-17
3.73152E-05 4.43028E-17
4.00281E-05 3.86808E-17
4.28362E-05 3.39098E-17
4.57395E-05 2.98534E-17
4.87380E-05 2.63802E-17
5.18317E-05 2.33968E-17
5.50205E-05 2.08215E-17
5.83045E-05 1.85900E-17
6.16838E-05 1.66498E-17
6.51582E-05 1.49558E-17
6.87277E-05 1.34728E-17
7.23925E-05 1.21689E-17
7.61524E-05 1.10199E-17
9.21439E-05 7.58289E-18
1.09658E-04 5.38927E-18
1.28695E-04 3.93629E-18
1.49255E-04 2.94243E-18
1.71338E-04 2.24404E-18
1.94942E-04 1.74140E-18
2.20070E-04 1.37214E-18
2.46720E-04 1.09589E-18
2.74892E-04 8.85848E-19
3.04586E-04 7.23849E-19
3.35803E-04 5.97262E-19
3.68542E-04 4.97193E-19
4.02802E-04 4.17239E-19
4.38585E-04 3.52734E-19
4.75889E-04 3.00233E-19
5.14715E-04 2.57149E-19
5.55063E-04 2.21527E-19
5.96931E-04 1.91868E-19
6.40321E-04 1.67013E-19
6.85233E-04 1.46059E-19
7.31665E-04 1.28292E-19
7.79618E-04 1.13148E-19
8.29092E-04 1.00176E-19
8.80086E-04 8.90132E-20
9.32601E-04 7.93641E-20
9.86636E-04 7.09893E-20
1.04219E-03 6.36920E-20
1.09927E-03 5.73099E-20
1.15786E-03 5.17087E-20
1.21797E-03 4.67765E-20
1.27961E-03 4.24195E-20
1.34276E-03 3.85592E-20
1.40743E-03 3.51289E-20
1.47362E-03 3.20725E-20
1.54133E-03 2.93421E-20
1.61056E-03 2.68968E-20
1.68131E-03 2.47015E-20
1.75357E-03 2.27263E-20
1.82735E-03 2.09450E-20
1.90265E-03 1.93354E-20
1.97947E-03 1.78778E-20
2.05780E-03 1.65555E-20
2.13765E-03 1.53534E-20
2.21902E-03 1.42589E-20
2.30190E-03 1.32605E-20
2.38630E-03 1.23482E-20
2.47222E-03 1.15132E-20
2.55965E-03 1.07479E-20
2.64859E-03 1.00454E-20
2.73905E-03 9.39951E-21
2.83103E-03 8.80489E-21
2.92452E-03 8.25673E-21
3.01952E-03 7.75073E-21
3.11604E-03 7.28305E-21
3.21407E-03 6.85024E-21
3.31362E-03 6.44924E-21
3.41468E-03 6.07727E-21
3.51725E-03 5.73185E-21
3.62133E-03 5.41072E-21
3.72692E-03 5.11186E-21
3.83403E-03 4.83344E-21
3.94265E-03 4.57381E-21
4.05278E-03 4.33145E-21
4.16442E-03 4.10500E-21
4.27757E-03 3.89323E-21
4.39223E-03 3.69501E-21
4.50840E-03 3.50929E-21
4.62608E-03 3.33516E-21
4.74527E-03 3.17175E-21
4.86597E-03 3.01827E-21
4.98817E-03 2.87401E-21
5.11188E-03 2.73831E-21
5.23711E-03 2.61056E-21
5.36383E-03 2.49022E-21
5.49207E-03 2.37677E-21
5.62181E-03 2.26974E-21
5.75306E-03 2.16870E-21
5.88581E-03 2.07325E-21
6.02007E-03 1.98302E-21
6.15583E-03 1.89768E-21
6.29310E-03 1.81690E-21
6.43187E-03 1.74040E-21
6.57214E-03 1.66791E-21
6.71392E-03 1.59917E-21
6.85720E-03 1.53396E-21
7.00198E-03 1.47206E-21
7.14827E-03 1.41327E-21
7.29605E-03 1.35740E-21
7.44534E-03 1.30428E-21
7.59612E-03 1.25375E-21
7.97965E-03 1.13779E-21
8.37255E-03 1.03501E-21
8.77480E-03 9.43651E-22
9.18641E-03 8.62210E-22
9.60736E-03 7.89423E-22
1.00376E-02 7.24205E-22
1.04773E-02 6.65628E-22
1.09262E-02 6.12894E-22
1.13844E-02 5.65316E-22
1.18520E-02 5.22297E-22
1.23288E-02 4.83321E-22
1.28150E-02 4.47939E-22
1.33104E-02 4.15759E-22
1.38150E-02 3.86439E-22
1.43290E-02 3.59677E-22
1.48521E-02 3.35209E-22
1.53845E-02 3.12802E-22
1.59262E-02 2.92251E-22
1.64770E-02 2.73373E-22
1.70371E-02 2.56006E-22
1.76063E-02 2.40007E-22
1.81848E-02 2.25249E-22
1.87724E-02 2.11617E-22
1.93692E-02 1.99009E-22
1.99751E-02 1.87333E-22
2.05901E-02 1.76509E-22
2.12143E-02 1.66461E-22
2.18476E-02 1.57124E-22
2.24900E-02 1.48438E-22
2.31415E-02 1.40349E-22
2.38021E-02 1.32808E-22
2.44717E-02 1.25771E-22
2.51504E-02 1.19198E-22
2.58382E-02 1.13053E-22
2.65349E-02 1.07301E-22
2.72407E-02 1.01914E-22
2.79555E-02 9.68639E-23
2.86793E-02 9.21253E-23
2.94120E-02 8.76754E-23
3.01537E-02 8.34933E-23
3.09043E-02 7.95597E-23
3.16639E-02 7.58570E-23
3.24324E-02 7.23690E-23
3.32098E-02 6.90810E-23
3.39961E-02 6.59792E-23
3.47912E-02 6.30511E-23
3.55952E-02 6.02850E-23
3.64081E-02 5.76702E-23
3.72297E-02 5.51969E-23
3.80602E-02 5.28558E-23
3.88995E-02 5.06386E-23
3.97476E-02 4.85375E-23
4.06044E-02 4.65452E-23
4.14700E-02 4.46548E-23
4.23443E-02 4.28603E-23
4.32273E-02 4.11557E-23
4.41190E-02 3.95357E-23
4.50194E-02 3.79954E-23
4.59284E-02 3.65299E-23
4.68461E-02 3.51350E-23
4.87074E-02 3.25409E-23
5.06030E-02 3.01835E-23
5.25328E-02 2.80374E-23
5.44967E-02 2.60801E-23
5.64946E-02 2.42918E-23
5.85262E-02 2.26553E-23
6.05914E-02 2.11552E-23
6.26901E-02 1.97781E-23
6.48222E-02 1.85119E-23
6.69873E-02 1.73461E-23
6.91854E-02 1.62712E-23
7.14163E-02 1.52787E-23
7.36799E-02 1.43612E-23
7.59760E-02 1.35119E-23
7.83043E-02 1.27247E-23
8.06647E-02 1.19943E-23
8.30571E-02 1.13159E-23
8.54812E-02 1.06849E-23
8.79369E-02 1.00974E-23
9.04240E-02 9.54993E-24
9.29422E-02 9.03914E-24
9.54915E-02 8.56213E-24
9.80716E-02 8.11633E-24
1.00682E-01 7.69913E-24
1.03323E-01 7.30849E-24
1.05995E-01 6.94235E-24
1.08696E-01 6.59884E-24
1.11427E-01 6.27634E-24
1.14188E-01 5.97331E-24
1.16978E-01 5.68832E-24
1.19797E-01 5.42012E-24
1.22645E-01 5.16752E-24
1.25522E-01 4.92943E-24
1.28428E-01 4.70486E-24
1.31361E-01 4.49291E-24
1.34323E-01 4.29271E-24
1.37313E-01 4.10349E-24
1.40330E-01 3.92454E-24
1.43375E-01 3.75518E-24
1.46447E-01 3.59482E-24
1.49545E-01 3.44286E-24
1.52671E-01 3.29880E-24
1.55823E-01 3.16214E-24
1.59001E-01 3.03243E-24
1.62205E-01 2.90924E-24
1.65435E-01 2.79219E-24
1.68690E-01 2.68090E-24
1.71970E-01 2.57505E-24
1.75276E-01 2.47431E-24
1.78606E-01 2.37839E-24
1.81961E-01 2.28702E-24
1.85340E-01 2.19993E-24
1.88743E-01 2.11689E-24
1.92169E-01 2.03768E-24
1.95619E-01 1.96208E-24
1.99092E-01 1.88989E-24
2.02589E-01 1.82094E-24
2.06107E-01 1.75505E-24
2.09649E-01 1.69205E-24
2.13212E-01 1.63181E-24
2.16797E-01 1.57416E-24
2.20404E-01 1.51899E-24
2.24032E-01 1.46616E-24
2.27680E-01 1.41555E-24
2.31350E-01 1.36706E-24
2.35040E-01 1.32057E-24
2.38751E-01 1.27600E-24
2.42481E-01 1.23324E-24
2.46231E-01 1.19221E-24
2.50000E-01 1.15282E-24
2.53788E-01 1.11500E-24
2.57595E-01 1.07867E-24
2.61421E-01 1.04376E-24
2.65264E-01 1.01021E-24
2.69126E-01 9.77948E-25
2.73005E-01 9.46923E-25
2.76901E-01 9.17076E-25
2.80814E-01 8.88353E-25
2.84744E-01 8.60704E-25
2.88691E-01 8.34082E-25
2.92653E-01 8.08440E-25
2.96632E-01 7.83737E-25
3.00625E-01 7.59932E-25
3.04634E-01 7.36985E-25
3.08658E-01 7.14860E-25
3.12697E-01 6.93522E-25
3.16749E-01 6.72938E-25
3.20816E-01 6.53076E-25
3.24896E-01 6.33906E-25
3.28990E-01 6.15400E-25
3.33097E-01 5.97530E-25
3.37216E-01 5.80270E-25
3.41348E-01 5.63596E-25
3.45492E-01 5.47485E-25
3.49647E-01 5.31912E-25
3.53814E-01 5.16858E-25
3.57992E-01 5.02302E-25
3.62181E-01 4.88225E-25
3.66381E-01 4.74607E-25
3.70590E-01 4.61431E-25
3.74810E-01 4.48680E-25
3.79039E-01 4.36337E-25
3.83277E-01 4.24389E-25
3.87524E-01 4.12818E-25
3.91780E-01 4.01613E-25
3.96044E-01 3.90758E-25
4.00316E-01 3.80240E-25
4.04596E-01 3.70049E-25
4.08882E-01 3.60170E-25
4.13176E-01 3.50594E-25
4.17476E-01 3.41310E-25
4.21783E-01 3.32306E-25
4.26095E-01 3.23573E-25
4.30413E-01 3.15101E-25
4.34737E-01 3.06882E-25
4.39065E-01 2.98905E-25
4.43398E-01 2.91164E-25
4.47736E-01 2.83649E-25
4.52077E-01 2.76352E-25
4.56422E-01 2.69268E-25
4.60770E-01 2.62387E-25
4.65122E-01 2.55704E-25
4.69476E-01 2.49211E-25
4.73832E-01 2.42903E-25
4.78190E-01 2.36772E-25
4.82550E-01 2.30814E-25
4.86912E-01 2.25023E-25
4.91274E-01 2.19392E-25
4.95637E-01 2.13918E-25
5.00000E-01 2.08594E-25
5.04363E-01 2.03416E-25
5.08726E-01 1.98380E-25
5.13088E-01 1.93480E-25
5.17450E-01 1.88713E-25
5.21810E-01 1.84074E-25
5.26168E-01 1.79559E-25
5.30524E-01 1.75165E-25
5.34878E-01 1.70887E-25
5.39230E-01 1.66722E-25
5.43578E-01 1.62667E-25
5.47923E-01 1.58718E-25
5.52264E-01 1.54872E-25
5.56602E-01 1.51126E-25
5.60935E-01 1.47477E-25
5.65263E-01 1.43921E-25
5.69587E-01 1.40457E-25
5.73905E-01 1.37081E-25
5.78217E-01 1.33791E-25
5.82524E-01 1.30584E-25
5.86824E-01 1.27459E-25
5.91118E-01 1.24411E-25
5.95404E-01 1.21440E-25
5.99684E-01 1.18543E-25
6.03956E-01 1.15718E-25
6.08220E-01 1.12963E-25
6.12476E-01 1.10275E-25
6.16723E-01 1.07654E-25
6.20961E-01 1.05096E-25
6.25190E-01 1.02601E-25
6.29410E-01 1.00166E-25
6.33619E-01 9.77905E-26
6.37819E-01 9.54719E-26
6.42008E-01 9.32090E-26
6.46186E-01 9.10002E-26
6.50353E-01 8.88441E-26
6.54508E-01 8.67392E-26
6.58652E-01 8.46841E-26
6.62784E-01 8.26775E-26
6.66903E-01 8.07181E-26
6.71010E-01 7.88047E-26
6.75104E-01 7.69359E-26
6.79184E-01 7.51107E-26
6.83251E-01 7.33278E-26
6.87303E-01 7.15862E-26
6.91342E-01 6.98848E-26
6.95366E-01 6.82226E-26
6.99375E-01 6.65985E-26
7.03368E-01 6.50115E-26
7.07347E-01 6.34608E-26
7.11309E-01 6.19453E-26
7.15256E-01 6.04641E-26
7.19186E-01 5.90165E-26
7.23099E-01 5.76016E-26
7.26995E-01 5.62185E-26
7.30874E-01 5.48664E-26
7.34736E-01 5.35446E-26
7.38579E-01 5.22524E-26
7.42405E-01 5.09889E-26
7.46212E-01 4.97535E-26
7.50000E-01 4.85456E-26
7.53769E-01 4.73643E-26
7.57519E-01 4.62092E-26
7.61249E-01 4.50794E-26
7.64960E-01 4.39746E-26
7.68650E-01 4.28940E-26
7.72320E-01 4.18371E-26
7.75968E-01 4.08032E-26
7.79596E-01 3.97920E-26
7.83203E-01 3.88028E-26
7.86788E-01 3.78351E-26
7.90351E-01 3.68884E-26
7.93893E-01 3.59622E-26
7.97411E-01 3.50562E-26
8.00908E-01 3.41697E-26
8.04381E-01 3.33023E-26
8.07831E-01 3.24537E-26
8.11257E-01 3.16234E-26
8.14660E-01 3.08110E-26
8.18039E-01 3.00160E-26
8.21394E-01 2.92381E-26
8.24724E-01 2.84769E-26
8.28030E-01 2.77321E-26
8.31310E-01 2.70033E-26
8.34565E-01 2.62900E-26
8.37795E-01 2.55921E-26
8.40999E-01 2.49091E-26
8.44177E-01 2.42408E-26
8.47329E-01 2.35868E-26
8.50455E-01 2.29468E-26
8.53553E-01 2.23205E-26
8.56625E-01 2.17077E-26
8.59670E-01 2.11080E-26
8.62687E-01 2.05212E-26
8.65677E-01 1.99470E-26
8.68639E-01 1.93851E-26
8.71572E-01 1.88353E-26
8.74478E-01 1.82974E-26
8.77355E-01 1.77711E-26
8.80203E-01 1.72562E-26
8.83022E-01 1.67524E-26
8.85812E-01 1.62595E-26
8.88573E-01 1.57774E-26
8.91304E-01 1.53057E-26
8.94005E-01 1.48443E-26
8.96677E-01 1.43931E-26
8.99318E-01 1.39517E-26
9.01928E-01 1.35201E-26
9.04508E-01 1.30979E-26
9.07058E-01 1.26852E-26
9.09576E-01 1.22816E-26
9.12063E-01 1.18870E-26
9.14519E-01 1.15012E-26
9.16943E-01 1.11241E-26
9.19335E-01 1.07556E-26
9.21696E-01 1.03954E-26
9.24024E-01 1.00434E-26
9.26320E-01 9.69955E-27
9.28584E-01 9.36360E-27
9.30815E-01 9.03544E-27
9.33013E-01 8.71495E-27
9.35178E-01 8.40200E-27
9.37310E-01 8.09646E-27
9.39409E-01 7.79820E-27
9.41474E-01 7.50710E-27
9.43505E-01 7.22306E-27
9.45503E-01 6.94596E-27
9.47467E-01 6.67568E-27
9.49397E-01 6.41212E-27
9.51293E-01 6.15518E-27
9.53154E-01 5.90476E-27
9.54981E-01 5.66076E-27
9.56773E-01 5.42307E-27
9.58530E-01 5.19162E-27
9.60252E-01 4.96631E-27
9.61940E-01 4.74705E-27
9.63592E-01 4.53376E-27
9.65209E-01 4.32636E-27
9.66790E-01 4.12476E-27
9.68336E-01 3.92889E-27
9.69846E-01 3.73868E-27
9.71321E-01 3.55405E-27
9.72759E-01 3.37494E-27
9.74162E-01 3.20126E-27
9.75528E-01 3.03297E-27
9.76858E-01 2.86999E-27
9.78152E-01 2.71227E-27
9.79410E-01 2.55974E-27
9.80631E-01 2.41235E-27
9.81815E-01 2.27004E-27
9.82963E-01 2.13276E-27
9.84074E-01 2.00046E-27
9.85148E-01 1.87309E-27
9.86185E-01 1.75060E-27
9.87185E-01 1.63295E-27
9.88148E-01 1.52009E-27
9.89074E-01 1.41198E-27
9.89962E-01 1.30859E-27
9.90814E-01 1.20986E-27
9.91627E-01 1.11578E-27
9.92404E-01 1.02629E-27
9.93143E-01 9.41379E-28
9.93844E-01 8.61003E-28
9.94508E-01 7.85137E-28
9.95134E-01 7.13752E-28
9.95722E-01 6.46823E-28
9.96273E-01 5.84325E-28
9.96786E-01 5.26235E-28
9.97261E-01 4.72532E-28
9.97698E-01 4.23197E-28
9.98097E-01 3.78211E-28
9.98459E-01 3.37559E-28
9.98782E-01 3.01226E-28
9.99067E-01 2.69197E-28
9.99315E-01 2.41463E-28
9.99524E-01 2.18013E-28
9.99695E-01 1.98838E-28
9.99829E-01 1.83931E-28
9.99924E-01 1.73287E-28
9.99981E-01 1.66902E-28
1.00000E+00 1.64774E-28
