 #
 # Subroutine ELSEPA. Elastic scattering of electrons and positrons
 #                    by neutral atoms and positive ions
 #
 # Projectile: electron
 # Kinetic energy = 1.25000E+08 eV = 4.59367E+06 a.u.
 #
 # WARNING: High-energy factorization with free-atom DF screening.
 #          Absorption, polarization and exchange corrections are
 #          switched off.
 #          Phase shifts are calculated for the bare nucleus.
 #          Scattering amplitudes are not evaluated.
 #
 # Element: Sr,  Z =  38,  atomic weight = 8.76200E+01 g/mol
 #
 # Nuclear model: Fermi distribution
 #                Average radius = 4.75246E-13 cm
 #                Skin thickness = 5.46000E-14 cm
 #
 # Number of electrons = 38
 #
 # Total elastic cross section = 3.75906E-18 cm**2 = 1.34239E-01 a0**2
 # 1st transport cross section = 1.84747E-25 cm**2 = 6.59745E-09 a0**2
 # 2nd transport cross section = 5.50987E-25 cm**2 = 1.96761E-08 a0**2
 #
 #
 # Differential cross section:                       MU=(1-COS(THETA))/2
 #
 #  THETA        MU          DCS          DCS        Sherman      error
 #  (deg)                 (cm**2/sr)   (a0**2/sr)    function
 #----------------------------------------------------------------------
0.00000E+00 1.02119E-09
7.61557E-13 1.01205E-09
1.18994E-12 1.00697E-09
1.71346E-12 1.00081E-09
2.33225E-12 9.93600E-10
3.04617E-12 9.85385E-10
3.85530E-12 9.76201E-10
4.75964E-12 9.66090E-10
5.75917E-12 9.55101E-10
6.85391E-12 9.43285E-10
8.04379E-12 9.30696E-10
9.32893E-12 9.17387E-10
1.07092E-11 9.03421E-10
1.21847E-11 8.88852E-10
1.37554E-11 8.73739E-10
1.54213E-11 8.58229E-10
1.71823E-11 8.42318E-10
1.90386E-11 8.25957E-10
2.09900E-11 8.09197E-10
2.30367E-11 7.92151E-10
2.51785E-11 7.75192E-10
2.74156E-11 7.57982E-10
2.97478E-11 7.40567E-10
3.21752E-11 7.22992E-10
3.46979E-11 7.05708E-10
3.73157E-11 6.88468E-10
4.00286E-11 6.71184E-10
4.28368E-11 6.53892E-10
4.57402E-11 6.36860E-10
4.87388E-11 6.20233E-10
5.18325E-11 6.03685E-10
5.50215E-11 5.87243E-10
5.83057E-11 5.70946E-10
6.16850E-11 5.55385E-10
6.51595E-11 5.39986E-10
6.87293E-11 5.24767E-10
7.23943E-11 5.09746E-10
7.61544E-11 4.95317E-10
1.18991E-10 3.70164E-10
1.71347E-10 2.78862E-10
2.33223E-10 2.14387E-10
3.04617E-10 1.68946E-10
3.85531E-10 1.36106E-10
4.75965E-10 1.11690E-10
5.75917E-10 9.29722E-11
6.85389E-10 7.82197E-11
8.04380E-10 6.63464E-11
9.32891E-10 5.66342E-11
1.07092E-09 4.85798E-11
1.21847E-09 4.18635E-11
1.37554E-09 3.62302E-11
1.54213E-09 3.13298E-11
1.71823E-09 2.71880E-11
1.90386E-09 2.38062E-11
2.09900E-09 2.10199E-11
2.30367E-09 1.86662E-11
2.51785E-09 1.64872E-11
2.74156E-09 1.46615E-11
2.97478E-09 1.31209E-11
3.21752E-09 1.18121E-11
3.46978E-09 1.06242E-11
3.73156E-09 9.58702E-12
4.00286E-09 8.69378E-12
4.28368E-09 7.92037E-12
4.57402E-09 7.22920E-12
4.87388E-09 6.60037E-12
5.18326E-09 6.04979E-12
5.50215E-09 5.56567E-12
5.83057E-09 5.13753E-12
6.16850E-09 4.73096E-12
6.51596E-09 4.37036E-12
6.87293E-09 4.04940E-12
7.23942E-09 3.76277E-12
7.61544E-09 3.49311E-12
1.18991E-08 1.77209E-12
1.71347E-08 9.72210E-13
2.33223E-08 5.66462E-13
3.04617E-08 3.48447E-13
3.85531E-08 2.25624E-13
4.75965E-08 1.52721E-13
5.75917E-08 1.07383E-13
6.85389E-08 7.79006E-14
8.04380E-08 5.79817E-14
9.32891E-08 4.40924E-14
1.07092E-07 3.41408E-14
1.21847E-07 2.68472E-14
1.37554E-07 2.13940E-14
1.54213E-07 1.72364E-14
1.71823E-07 1.40480E-14
1.90386E-07 1.15514E-14
2.09900E-07 9.58926E-15
2.30367E-07 8.01451E-15
2.51785E-07 6.75239E-15
2.74156E-07 5.72564E-15
2.97478E-07 4.88628E-15
3.21752E-07 4.19459E-15
3.46978E-07 3.62003E-15
3.73156E-07 3.14099E-15
4.00286E-07 2.73768E-15
4.28368E-07 2.39742E-15
4.57402E-07 2.10818E-15
4.87388E-07 1.86133E-15
5.18325E-07 1.64963E-15
5.50215E-07 1.46713E-15
5.83057E-07 1.30931E-15
6.16850E-07 1.17208E-15
6.51596E-07 1.05247E-15
6.87293E-07 9.47729E-16
7.23942E-07 8.55735E-16
7.61543E-07 7.74672E-16
1.18991E-06 3.22005E-16
1.71347E-06 1.56981E-16
2.33223E-06 8.54057E-17
3.04617E-06 5.03495E-17
3.85531E-06 3.15642E-17
4.75964E-06 2.07734E-17
5.75916E-06 1.42217E-17
6.85388E-06 1.00595E-17
8.04378E-06 7.31378E-18
9.32888E-06 5.44371E-18
1.07092E-05 4.13470E-18
1.21846E-05 3.19641E-18
1.37553E-05 2.50974E-18
1.54212E-05 1.99791E-18
1.71822E-05 1.61014E-18
1.90385E-05 1.31186E-18
2.09899E-05 1.07991E-18
2.30365E-05 8.96989E-19
2.51783E-05 7.51144E-19
2.74153E-05 6.33719E-19
2.97475E-05 5.38342E-19
3.21749E-05 4.60251E-19
3.46974E-05 3.95835E-19
3.73152E-05 3.42324E-19
4.00281E-05 2.97573E-19
4.28362E-05 2.59911E-19
4.57395E-05 2.28024E-19
4.87380E-05 2.00877E-19
5.18317E-05 1.77649E-19
5.50205E-05 1.57680E-19
5.83045E-05 1.40439E-19
6.16838E-05 1.25493E-19
6.51582E-05 1.12485E-19
6.87277E-05 1.01123E-19
7.23925E-05 9.11622E-20
7.61524E-05 8.24388E-20
9.21439E-05 5.63495E-20
1.09658E-04 3.98142E-20
1.28695E-04 2.89274E-20
1.49255E-04 2.15208E-20
1.71338E-04 1.63420E-20
1.94942E-04 1.26320E-20
2.20070E-04 9.91829E-21
2.46720E-04 7.89623E-21
2.74892E-04 6.36443E-21
3.04586E-04 5.18705E-21
3.35803E-04 4.26991E-21
3.68542E-04 3.54697E-21
4.02802E-04 2.97085E-21
4.38585E-04 2.50719E-21
4.75889E-04 2.13062E-21
5.14715E-04 1.82220E-21
5.55063E-04 1.56767E-21
5.96931E-04 1.35610E-21
6.40321E-04 1.17907E-21
6.85233E-04 1.03002E-21
7.31665E-04 9.03805E-22
7.79618E-04 7.96355E-22
8.29092E-04 7.04414E-22
8.80086E-04 6.25373E-22
9.32601E-04 5.57117E-22
9.86636E-04 4.97924E-22
1.04219E-03 4.46389E-22
1.09927E-03 4.01351E-22
1.15786E-03 3.61853E-22
1.21797E-03 3.27096E-22
1.27961E-03 2.96412E-22
1.34276E-03 2.69241E-22
1.40743E-03 2.45112E-22
1.47362E-03 2.23624E-22
1.54133E-03 2.04439E-22
1.61056E-03 1.87265E-22
1.68131E-03 1.71856E-22
1.75357E-03 1.57997E-22
1.82735E-03 1.45506E-22
1.90265E-03 1.34223E-22
1.97947E-03 1.24011E-22
2.05780E-03 1.14750E-22
2.13765E-03 1.06335E-22
2.21902E-03 9.86765E-23
2.30190E-03 9.16932E-23
2.38630E-03 8.53151E-23
2.47222E-03 7.94805E-23
2.55965E-03 7.41346E-23
2.64859E-03 6.92291E-23
2.73905E-03 6.47213E-23
2.83103E-03 6.05731E-23
2.92452E-03 5.67505E-23
3.01952E-03 5.32235E-23
3.11604E-03 4.99649E-23
3.21407E-03 4.69508E-23
3.31362E-03 4.41593E-23
3.41468E-03 4.15712E-23
3.51725E-03 3.91688E-23
3.62133E-03 3.69364E-23
3.72692E-03 3.48598E-23
3.83403E-03 3.29261E-23
3.94265E-03 3.11238E-23
4.05278E-03 2.94422E-23
4.16442E-03 2.78718E-23
4.27757E-03 2.64038E-23
4.39223E-03 2.50305E-23
4.50840E-03 2.37446E-23
4.62608E-03 2.25394E-23
4.74527E-03 2.14090E-23
4.86597E-03 2.03479E-23
4.98817E-03 1.93511E-23
5.11188E-03 1.84140E-23
5.23711E-03 1.75323E-23
5.36383E-03 1.67022E-23
5.49207E-03 1.59201E-23
5.62181E-03 1.51826E-23
5.75306E-03 1.44869E-23
5.88581E-03 1.38301E-23
6.02007E-03 1.32095E-23
6.15583E-03 1.26230E-23
6.29310E-03 1.20682E-23
6.43187E-03 1.15431E-23
6.57214E-03 1.10458E-23
6.71392E-03 1.05746E-23
6.85720E-03 1.01279E-23
7.00198E-03 9.70415E-24
7.14827E-03 9.30198E-24
7.29605E-03 8.92007E-24
7.44534E-03 8.55723E-24
7.59612E-03 8.21232E-24
7.97965E-03 7.42182E-24
8.37255E-03 6.72251E-24
8.77480E-03 6.10211E-24
9.18641E-03 5.55023E-24
9.60736E-03 5.05804E-24
1.00376E-02 4.61801E-24
1.04773E-02 4.22368E-24
1.09262E-02 3.86951E-24
1.13844E-02 3.55074E-24
1.18520E-02 3.26323E-24
1.23288E-02 3.00341E-24
1.28150E-02 2.76817E-24
1.33104E-02 2.55480E-24
1.38150E-02 2.36092E-24
1.43290E-02 2.18447E-24
1.48521E-02 2.02362E-24
1.53845E-02 1.87676E-24
1.59262E-02 1.74248E-24
1.64770E-02 1.61951E-24
1.70371E-02 1.50677E-24
1.76063E-02 1.40324E-24
1.81848E-02 1.30807E-24
1.87724E-02 1.22046E-24
1.93692E-02 1.13972E-24
1.99751E-02 1.06523E-24
2.05901E-02 9.96415E-25
2.12143E-02 9.32785E-25
2.18476E-02 8.73885E-25
2.24900E-02 8.19307E-25
2.31415E-02 7.68685E-25
2.38021E-02 7.21687E-25
2.44717E-02 6.78014E-25
2.51504E-02 6.37393E-25
2.58382E-02 5.99580E-25
2.65349E-02 5.64350E-25
2.72407E-02 5.31501E-25
2.79555E-02 5.00846E-25
2.86793E-02 4.72218E-25
2.94120E-02 4.45462E-25
3.01537E-02 4.20438E-25
3.09043E-02 3.97018E-25
3.16639E-02 3.75083E-25
3.24324E-02 3.54526E-25
3.32098E-02 3.35248E-25
3.39961E-02 3.17158E-25
3.47912E-02 3.00172E-25
3.55952E-02 2.84214E-25
3.64081E-02 2.69212E-25
3.72297E-02 2.55101E-25
3.80602E-02 2.41822E-25
3.88995E-02 2.29318E-25
3.97476E-02 2.17539E-25
4.06044E-02 2.06435E-25
4.14700E-02 1.95965E-25
4.23443E-02 1.86086E-25
4.32273E-02 1.76762E-25
4.41190E-02 1.67956E-25
4.50194E-02 1.59637E-25
4.59284E-02 1.51774E-25
4.68461E-02 1.44338E-25
4.87074E-02 1.30649E-25
5.06030E-02 1.18381E-25
5.25328E-02 1.07369E-25
5.44967E-02 9.74708E-26
5.64946E-02 8.85619E-26
5.85262E-02 8.05330E-26
6.05914E-02 7.32884E-26
6.26901E-02 6.67438E-26
6.48222E-02 6.08250E-26
6.69873E-02 5.54666E-26
6.91854E-02 5.06107E-26
7.14163E-02 4.62059E-26
7.36799E-02 4.22068E-26
7.59760E-02 3.85729E-26
7.83043E-02 3.52682E-26
8.06647E-02 3.22605E-26
8.30571E-02 2.95211E-26
8.54812E-02 2.70244E-26
8.79369E-02 2.47473E-26
9.04240E-02 2.26693E-26
9.29422E-02 2.07719E-26
9.54915E-02 1.90383E-26
9.80716E-02 1.74536E-26
1.00682E-01 1.60044E-26
1.03323E-01 1.46784E-26
1.05995E-01 1.34646E-26
1.08696E-01 1.23531E-26
1.11427E-01 1.13348E-26
1.14188E-01 1.04017E-26
1.16978E-01 9.54627E-27
1.19797E-01 8.76185E-27
1.22645E-01 8.04235E-27
1.25522E-01 7.38221E-27
1.28428E-01 6.77640E-27
1.31361E-01 6.22032E-27
1.34323E-01 5.70981E-27
1.37313E-01 5.24103E-27
1.40330E-01 4.81053E-27
1.43375E-01 4.41511E-27
1.46447E-01 4.05188E-27
1.49545E-01 3.71820E-27
1.52671E-01 3.41162E-27
1.55823E-01 3.12995E-27
1.59001E-01 2.87114E-27
1.62205E-01 2.63333E-27
1.65435E-01 2.41482E-27
1.68690E-01 2.21405E-27
1.71970E-01 2.02958E-27
1.75276E-01 1.86010E-27
1.78606E-01 1.70440E-27
1.81961E-01 1.56137E-27
1.85340E-01 1.43000E-27
1.88743E-01 1.30935E-27
1.92169E-01 1.19856E-27
1.95619E-01 1.09683E-27
1.99092E-01 1.00345E-27
2.02589E-01 9.17744E-28
2.06107E-01 8.39096E-28
2.09649E-01 7.66942E-28
2.13212E-01 7.00761E-28
2.16797E-01 6.40074E-28
2.20404E-01 5.84440E-28
2.24032E-01 5.33451E-28
2.27680E-01 4.86736E-28
2.31350E-01 4.43948E-28
2.35040E-01 4.04772E-28
2.38751E-01 3.68914E-28
2.42481E-01 3.36107E-28
2.46231E-01 3.06101E-28
2.50000E-01 2.78670E-28
2.53788E-01 2.53602E-28
2.57595E-01 2.30704E-28
2.61421E-01 2.09799E-28
2.65264E-01 1.90722E-28
2.69126E-01 1.73321E-28
2.73005E-01 1.57458E-28
2.76901E-01 1.43004E-28
2.80814E-01 1.29843E-28
2.84744E-01 1.17864E-28
2.88691E-01 1.06969E-28
2.92653E-01 9.70652E-29
2.96632E-01 8.80686E-29
3.00625E-01 7.99015E-29
3.04634E-01 7.24924E-29
3.08658E-01 6.57757E-29
3.12697E-01 5.96911E-29
3.16749E-01 5.41832E-29
3.20816E-01 4.92011E-29
3.24896E-01 4.46983E-29
3.28990E-01 4.06319E-29
3.33097E-01 3.69626E-29
3.37216E-01 3.36543E-29
3.41348E-01 3.06742E-29
3.45492E-01 2.79919E-29
3.49647E-01 2.55798E-29
3.53814E-01 2.34126E-29
3.57992E-01 2.14672E-29
3.62181E-01 1.97223E-29
3.66381E-01 1.81586E-29
3.70590E-01 1.67585E-29
3.74810E-01 1.55059E-29
3.79039E-01 1.43862E-29
3.83277E-01 1.33859E-29
3.87524E-01 1.24928E-29
3.91780E-01 1.16961E-29
3.96044E-01 1.09855E-29
4.00316E-01 1.03519E-29
4.04596E-01 9.78718E-30
4.08882E-01 9.28372E-30
4.13176E-01 8.83477E-30
4.17476E-01 8.43420E-30
4.21783E-01 8.07649E-30
4.26095E-01 7.75663E-30
4.30413E-01 7.47015E-30
4.34737E-01 7.21301E-30
4.39065E-01 6.98158E-30
4.43398E-01 6.77262E-30
4.47736E-01 6.58324E-30
4.52077E-01 6.41084E-30
4.56422E-01 6.25311E-30
4.60770E-01 6.10801E-30
4.65122E-01 5.97372E-30
4.69476E-01 5.84865E-30
4.73832E-01 5.73137E-30
4.78190E-01 5.62065E-30
4.82550E-01 5.51540E-30
4.86912E-01 5.41468E-30
4.91274E-01 5.31767E-30
4.95637E-01 5.22366E-30
5.00000E-01 5.13205E-30
5.04363E-01 5.04233E-30
5.08726E-01 4.95405E-30
5.13088E-01 4.86686E-30
5.17450E-01 4.78046E-30
5.21810E-01 4.69460E-30
5.26168E-01 4.60909E-30
5.30524E-01 4.52378E-30
5.34878E-01 4.43856E-30
5.39230E-01 4.35335E-30
5.43578E-01 4.26810E-30
5.47923E-01 4.18278E-30
5.52264E-01 4.09738E-30
5.56602E-01 4.01193E-30
5.60935E-01 3.92645E-30
5.65263E-01 3.84097E-30
5.69587E-01 3.75556E-30
5.73905E-01 3.67025E-30
5.78217E-01 3.58513E-30
5.82524E-01 3.50026E-30
5.86824E-01 3.41570E-30
5.91118E-01 3.33154E-30
5.95404E-01 3.24785E-30
5.99684E-01 3.16470E-30
6.03956E-01 3.08217E-30
6.08220E-01 3.00033E-30
6.12476E-01 2.91925E-30
6.16723E-01 2.83900E-30
6.20961E-01 2.75965E-30
6.25190E-01 2.68124E-30
6.29410E-01 2.60386E-30
6.33619E-01 2.52754E-30
6.37819E-01 2.45234E-30
6.42008E-01 2.37831E-30
6.46186E-01 2.30549E-30
6.50353E-01 2.23391E-30
6.54508E-01 2.16363E-30
6.58652E-01 2.09466E-30
6.62784E-01 2.02703E-30
6.66903E-01 1.96077E-30
6.71010E-01 1.89590E-30
6.75104E-01 1.83243E-30
6.79184E-01 1.77038E-30
6.83251E-01 1.70976E-30
6.87303E-01 1.65058E-30
6.91342E-01 1.59284E-30
6.95366E-01 1.53653E-30
6.99375E-01 1.48167E-30
7.03368E-01 1.42824E-30
7.07347E-01 1.37624E-30
7.11309E-01 1.32566E-30
7.15256E-01 1.27649E-30
7.19186E-01 1.22872E-30
7.23099E-01 1.18233E-30
7.26995E-01 1.13732E-30
7.30874E-01 1.09365E-30
7.34736E-01 1.05131E-30
7.38579E-01 1.01028E-30
7.42405E-01 9.70548E-31
7.46212E-01 9.32082E-31
7.50000E-01 8.94863E-31
7.53769E-01 8.58865E-31
7.57519E-01 8.24066E-31
7.61249E-01 7.90440E-31
7.64960E-01 7.57961E-31
7.68650E-01 7.26605E-31
7.72320E-01 6.96346E-31
7.75968E-01 6.67156E-31
7.79596E-01 6.39009E-31
7.83203E-01 6.11880E-31
7.86788E-01 5.85741E-31
7.90351E-01 5.60566E-31
7.93893E-01 5.36329E-31
7.97411E-01 5.13003E-31
8.00908E-01 4.90562E-31
8.04381E-01 4.68981E-31
8.07831E-01 4.48233E-31
8.11257E-01 4.28293E-31
8.14660E-01 4.09137E-31
8.18039E-01 3.90740E-31
8.21394E-01 3.73077E-31
8.24724E-01 3.56125E-31
8.28030E-01 3.39860E-31
8.31310E-01 3.24260E-31
8.34565E-01 3.09300E-31
8.37795E-01 2.94961E-31
8.40999E-01 2.81220E-31
8.44177E-01 2.68055E-31
8.47329E-01 2.55447E-31
8.50455E-01 2.43375E-31
8.53553E-01 2.31820E-31
8.56625E-01 2.20762E-31
8.59670E-01 2.10183E-31
8.62687E-01 2.00065E-31
8.65677E-01 1.90391E-31
8.68639E-01 1.81143E-31
8.71572E-01 1.72305E-31
8.74478E-01 1.63860E-31
8.77355E-01 1.55794E-31
8.80203E-01 1.48090E-31
8.83022E-01 1.40735E-31
8.85812E-01 1.33715E-31
8.88573E-01 1.27015E-31
8.91304E-01 1.20622E-31
8.94005E-01 1.14524E-31
8.96677E-01 1.08709E-31
8.99318E-01 1.03164E-31
9.01928E-01 9.78781E-32
9.04508E-01 9.28402E-32
9.07058E-01 8.80396E-32
9.09576E-01 8.34660E-32
9.12063E-01 7.91097E-32
9.14519E-01 7.49610E-32
9.16943E-01 7.10108E-32
9.19335E-01 6.72503E-32
9.21696E-01 6.36711E-32
9.24024E-01 6.02650E-32
9.26320E-01 5.70243E-32
9.28584E-01 5.39415E-32
9.30815E-01 5.10093E-32
9.33013E-01 4.82210E-32
9.35178E-01 4.55698E-32
9.37310E-01 4.30495E-32
9.39409E-01 4.06539E-32
9.41474E-01 3.83774E-32
9.43505E-01 3.62143E-32
9.45503E-01 3.41592E-32
9.47467E-01 3.22072E-32
9.49397E-01 3.03534E-32
9.51293E-01 2.85930E-32
9.53154E-01 2.69216E-32
9.54981E-01 2.53351E-32
9.56773E-01 2.38293E-32
9.58530E-01 2.24003E-32
9.60252E-01 2.10445E-32
9.61940E-01 1.97584E-32
9.63592E-01 1.85386E-32
9.65209E-01 1.73818E-32
9.66790E-01 1.62851E-32
9.68336E-01 1.52455E-32
9.69846E-01 1.42603E-32
9.71321E-01 1.33267E-32
9.72759E-01 1.24424E-32
9.74162E-01 1.16050E-32
9.75528E-01 1.08121E-32
9.76858E-01 1.00617E-32
9.78152E-01 9.35158E-33
9.79410E-01 8.67995E-33
9.80631E-01 8.04493E-33
9.81815E-01 7.44477E-33
9.82963E-01 6.87782E-33
9.84074E-01 6.34252E-33
9.85148E-01 5.83738E-33
9.86185E-01 5.36101E-33
9.87185E-01 4.91209E-33
9.88148E-01 4.48937E-33
9.89074E-01 4.09166E-33
9.89962E-01 3.71787E-33
9.90814E-01 3.36695E-33
9.91627E-01 3.03791E-33
9.92404E-01 2.72983E-33
9.93143E-01 2.44186E-33
9.93844E-01 2.17318E-33
9.94508E-01 1.92304E-33
9.95134E-01 1.69073E-33
9.95722E-01 1.47561E-33
9.96273E-01 1.27708E-33
9.96786E-01 1.09456E-33
9.97261E-01 9.27548E-34
9.97698E-01 7.75575E-34
9.98097E-01 6.38211E-34
9.98459E-01 5.15070E-34
9.98782E-01 4.05805E-34
9.99067E-01 3.10107E-34
9.99315E-01 2.27708E-34
9.99524E-01 1.58374E-34
9.99695E-01 1.01911E-34
9.99829E-01 5.81602E-35
9.99924E-01 2.69967E-35
9.99981E-01 8.33429E-36
1.00000E+00 2.11990E-36
