 #
 # Subroutine ELSEPA. Elastic scattering of electrons and positrons
 #                    by neutral atoms and positive ions
 #
 # Projectile: electron
 # Kinetic energy = 2.00000E+06 eV = 7.34987E+04 a.u.
 #
 # WARNING: High-energy factorization with free-atom DF screening.
 #          Absorption, polarization and exchange corrections are
 #          switched off.
 #          Phase shifts are calculated for the bare nucleus.
 #          Scattering amplitudes are not evaluated.
 #
 # Element: Sr,  Z =  38,  atomic weight = 8.76200E+01 g/mol
 #
 # Nuclear model: Fermi distribution
 #                Average radius = 4.75246E-13 cm
 #                Skin thickness = 5.46000E-14 cm
 #
 # Number of electrons = 38
 #
 # Total elastic cross section = 3.92934E-18 cm**2 = 1.40319E-01 a0**2
 # 1st transport cross section = 3.38828E-22 cm**2 = 1.20998E-05 a0**2
 # 2nd transport cross section = 9.42779E-22 cm**2 = 3.36672E-05 a0**2
 #
 #
 # Differential cross section:                       MU=(1-COS(THETA))/2
 #
 #  THETA        MU          DCS          DCS        Sherman      error
 #  (deg)                 (cm**2/sr)   (a0**2/sr)    function
 #----------------------------------------------------------------------
0.00000E+00 4.08730E-13
7.61557E-13 4.08729E-13
1.18994E-12 4.08728E-13
1.71346E-12 4.08727E-13
2.33225E-12 4.08726E-13
3.04617E-12 4.08725E-13
3.85530E-12 4.08723E-13
4.75964E-12 4.08721E-13
5.75917E-12 4.08720E-13
6.85391E-12 4.08718E-13
8.04379E-12 4.08715E-13
9.32893E-12 4.08713E-13
1.07092E-11 4.08711E-13
1.21847E-11 4.08708E-13
1.37554E-11 4.08705E-13
1.54213E-11 4.08702E-13
1.71823E-11 4.08699E-13
1.90386E-11 4.08695E-13
2.09900E-11 4.08692E-13
2.30367E-11 4.08688E-13
2.51785E-11 4.08684E-13
2.74156E-11 4.08680E-13
2.97478E-11 4.08676E-13
3.21752E-11 4.08671E-13
3.46979E-11 4.08666E-13
3.73157E-11 4.08662E-13
4.00286E-11 4.08657E-13
4.28368E-11 4.08651E-13
4.57402E-11 4.08646E-13
4.87388E-11 4.08641E-13
5.18325E-11 4.08635E-13
5.50215E-11 4.08629E-13
5.83057E-11 4.08623E-13
6.16850E-11 4.08617E-13
6.51595E-11 4.08610E-13
6.87293E-11 4.08604E-13
7.23943E-11 4.08597E-13
7.61544E-11 4.08590E-13
1.18991E-10 4.08511E-13
1.71347E-10 4.08414E-13
2.33223E-10 4.08300E-13
3.04617E-10 4.08168E-13
3.85531E-10 4.08019E-13
4.75965E-10 4.07852E-13
5.75917E-10 4.07668E-13
6.85389E-10 4.07466E-13
8.04380E-10 4.07247E-13
9.32891E-10 4.07011E-13
1.07092E-09 4.06757E-13
1.21847E-09 4.06486E-13
1.37554E-09 4.06198E-13
1.54213E-09 4.05892E-13
1.71823E-09 4.05570E-13
1.90386E-09 4.05230E-13
2.09900E-09 4.04874E-13
2.30367E-09 4.04501E-13
2.51785E-09 4.04111E-13
2.74156E-09 4.03704E-13
2.97478E-09 4.03280E-13
3.21752E-09 4.02840E-13
3.46978E-09 4.02383E-13
3.73156E-09 4.01910E-13
4.00286E-09 4.01421E-13
4.28368E-09 4.00915E-13
4.57402E-09 4.00394E-13
4.87388E-09 3.99856E-13
5.18326E-09 3.99302E-13
5.50215E-09 3.98733E-13
5.83057E-09 3.98148E-13
6.16850E-09 3.97547E-13
6.51596E-09 3.96931E-13
6.87293E-09 3.96299E-13
7.23942E-09 3.95652E-13
7.61544E-09 3.94990E-13
1.18991E-08 3.87567E-13
1.71347E-08 3.78780E-13
2.33223E-08 3.68785E-13
3.04617E-08 3.57750E-13
3.85531E-08 3.45861E-13
4.75965E-08 3.33355E-13
5.75917E-08 3.20203E-13
6.85389E-08 3.06852E-13
8.04380E-08 2.93207E-13
9.32891E-08 2.79599E-13
1.07092E-07 2.66055E-13
1.21847E-07 2.52691E-13
1.37554E-07 2.39708E-13
1.54213E-07 2.26965E-13
1.71823E-07 2.14859E-13
1.90386E-07 2.03036E-13
2.09900E-07 1.91951E-13
2.30367E-07 1.81250E-13
2.51785E-07 1.71207E-13
2.74156E-07 1.61668E-13
2.97478E-07 1.52681E-13
3.21752E-07 1.44273E-13
3.46978E-07 1.36307E-13
3.73156E-07 1.28953E-13
4.00286E-07 1.21947E-13
4.28368E-07 1.15541E-13
4.57402E-07 1.09455E-13
4.87388E-07 1.03840E-13
5.18325E-07 9.85620E-14
5.50215E-07 9.36467E-14
5.83057E-07 8.90670E-14
6.16850E-07 8.47660E-14
6.51596E-07 8.07831E-14
6.87293E-07 7.70164E-14
7.23942E-07 7.35402E-14
7.61543E-07 7.02483E-14
1.18991E-06 4.65347E-14
1.71347E-06 3.26769E-14
2.33223E-06 2.37342E-14
3.04617E-06 1.76112E-14
3.85531E-06 1.32657E-14
4.75964E-06 1.00683E-14
5.75916E-06 7.89823E-15
6.85388E-06 6.22443E-15
8.04378E-06 5.00723E-15
9.32888E-06 4.07705E-15
1.07092E-05 3.36342E-15
1.21846E-05 2.81026E-15
1.37553E-05 2.36650E-15
1.54212E-05 2.01749E-15
1.71822E-05 1.72472E-15
1.90385E-05 1.49116E-15
2.09899E-05 1.29009E-15
2.30365E-05 1.12561E-15
2.51783E-05 9.83726E-16
2.74153E-05 8.63708E-16
2.97475E-05 7.60850E-16
3.21749E-05 6.71482E-16
3.46974E-05 5.95425E-16
3.73152E-05 5.27996E-16
4.00281E-05 4.70777E-16
4.28362E-05 4.19414E-16
4.57395E-05 3.75381E-16
4.87380E-05 3.36272E-16
5.18317E-05 3.02122E-16
5.50205E-05 2.71992E-16
5.83045E-05 2.45342E-16
6.16838E-05 2.21901E-16
6.51582E-05 2.00983E-16
6.87277E-05 1.82579E-16
7.23925E-05 1.66051E-16
7.61524E-05 1.51435E-16
9.21439E-05 1.06675E-16
1.09658E-04 7.73354E-17
1.28695E-04 5.75362E-17
1.49255E-04 4.37829E-17
1.71338E-04 3.39663E-17
1.94942E-04 2.67863E-17
2.20070E-04 2.14275E-17
2.46720E-04 1.73563E-17
2.74892E-04 1.42137E-17
3.04586E-04 1.17520E-17
3.35803E-04 9.79952E-18
3.68542E-04 8.23447E-18
4.02802E-04 6.96320E-18
4.38585E-04 5.93088E-18
4.75889E-04 5.08216E-18
5.14715E-04 4.37720E-18
5.55063E-04 3.79158E-18
5.96931E-04 3.29759E-18
6.40321E-04 2.88310E-18
6.85233E-04 2.52948E-18
7.31665E-04 2.22932E-18
7.79618E-04 1.97160E-18
8.29092E-04 1.75018E-18
8.80086E-04 1.55888E-18
9.32601E-04 1.39291E-18
9.86636E-04 1.24857E-18
1.04219E-03 1.12227E-18
1.09927E-03 1.01174E-18
1.15786E-03 9.14321E-19
1.21797E-03 8.28496E-19
1.27961E-03 7.52458E-19
1.34276E-03 6.85017E-19
1.40743E-03 6.24972E-19
1.47362E-03 5.71388E-19
1.54133E-03 5.23462E-19
1.61056E-03 4.80461E-19
1.68131E-03 4.41832E-19
1.75357E-03 4.06998E-19
1.82735E-03 3.75572E-19
1.90265E-03 3.47117E-19
1.97947E-03 3.21334E-19
2.05780E-03 2.97908E-19
2.13765E-03 2.76592E-19
2.21902E-03 2.57161E-19
2.30190E-03 2.39412E-19
2.38630E-03 2.23184E-19
2.47222E-03 2.08307E-19
2.55965E-03 1.94666E-19
2.64859E-03 1.82120E-19
2.73905E-03 1.70581E-19
2.83103E-03 1.59942E-19
2.92452E-03 1.50128E-19
3.01952E-03 1.41058E-19
3.11604E-03 1.32666E-19
3.21407E-03 1.24894E-19
3.31362E-03 1.17684E-19
3.41468E-03 1.10993E-19
3.51725E-03 1.04769E-19
3.62133E-03 9.89806E-20
3.72692E-03 9.35866E-20
3.83403E-03 8.85584E-20
3.94265E-03 8.38647E-20
4.05278E-03 7.94794E-20
4.16442E-03 7.53793E-20
4.27757E-03 7.15404E-20
4.39223E-03 6.79456E-20
4.50840E-03 6.45732E-20
4.62608E-03 6.14100E-20
4.74527E-03 5.84379E-20
4.86597E-03 5.56453E-20
4.98817E-03 5.30179E-20
5.11188E-03 5.05446E-20
5.23711E-03 4.82149E-20
5.36383E-03 4.60181E-20
5.49207E-03 4.39463E-20
5.62181E-03 4.19896E-20
5.75306E-03 4.01419E-20
5.88581E-03 3.83945E-20
6.02007E-03 3.67422E-20
6.15583E-03 3.51780E-20
6.29310E-03 3.36967E-20
6.43187E-03 3.22931E-20
6.57214E-03 3.09619E-20
6.71392E-03 2.96993E-20
6.85720E-03 2.85004E-20
7.00198E-03 2.73621E-20
7.14827E-03 2.62799E-20
7.29605E-03 2.52513E-20
7.44534E-03 2.42727E-20
7.59612E-03 2.33413E-20
7.97965E-03 2.12021E-20
8.37255E-03 1.93036E-20
8.77480E-03 1.76140E-20
9.18641E-03 1.61063E-20
9.60736E-03 1.47573E-20
1.00376E-02 1.35475E-20
1.04773E-02 1.24599E-20
1.09262E-02 1.14799E-20
1.13844E-02 1.05949E-20
1.18520E-02 9.79413E-21
1.23288E-02 9.06806E-21
1.28150E-02 8.40845E-21
1.33104E-02 7.80814E-21
1.38150E-02 7.26080E-21
1.43290E-02 6.76093E-21
1.48521E-02 6.30364E-21
1.53845E-02 5.88463E-21
1.59262E-02 5.50012E-21
1.64770E-02 5.14673E-21
1.70371E-02 4.82148E-21
1.76063E-02 4.52172E-21
1.81848E-02 4.24507E-21
1.87724E-02 3.98942E-21
1.93692E-02 3.75288E-21
1.99751E-02 3.53375E-21
2.05901E-02 3.33052E-21
2.12143E-02 3.14181E-21
2.18476E-02 2.96639E-21
2.24900E-02 2.80314E-21
2.31415E-02 2.65106E-21
2.38021E-02 2.50925E-21
2.44717E-02 2.37688E-21
2.51504E-02 2.25319E-21
2.58382E-02 2.13752E-21
2.65349E-02 2.02925E-21
2.72407E-02 1.92780E-21
2.79555E-02 1.83268E-21
2.86793E-02 1.74340E-21
2.94120E-02 1.65954E-21
3.01537E-02 1.58072E-21
3.09043E-02 1.50656E-21
3.16639E-02 1.43674E-21
3.24324E-02 1.37095E-21
3.32098E-02 1.30893E-21
3.39961E-02 1.25040E-21
3.47912E-02 1.19515E-21
3.55952E-02 1.14294E-21
3.64081E-02 1.09357E-21
3.72297E-02 1.04687E-21
3.80602E-02 1.00267E-21
3.88995E-02 9.60787E-22
3.97476E-02 9.21097E-22
4.06044E-02 8.83452E-22
4.14700E-02 8.47732E-22
4.23443E-02 8.13816E-22
4.32273E-02 7.81596E-22
4.41190E-02 7.50971E-22
4.50194E-02 7.21846E-22
4.59284E-02 6.94134E-22
4.68461E-02 6.67751E-22
4.87074E-02 6.18677E-22
5.06030E-02 5.74071E-22
5.25328E-02 5.33452E-22
5.44967E-02 4.96396E-22
5.64946E-02 4.62532E-22
5.85262E-02 4.31533E-22
6.05914E-02 4.03112E-22
6.26901E-02 3.77014E-22
6.48222E-02 3.53013E-22
6.69873E-02 3.30909E-22
6.91854E-02 3.10524E-22
7.14163E-02 2.91698E-22
7.36799E-02 2.74289E-22
7.59760E-02 2.58171E-22
7.83043E-02 2.43229E-22
8.06647E-02 2.29361E-22
8.30571E-02 2.16476E-22
8.54812E-02 2.04489E-22
8.79369E-02 1.93327E-22
9.04240E-02 1.82922E-22
9.29422E-02 1.73213E-22
9.54915E-02 1.64143E-22
9.80716E-02 1.55664E-22
1.00682E-01 1.47728E-22
1.03323E-01 1.40295E-22
1.05995E-01 1.33326E-22
1.08696E-01 1.26787E-22
1.11427E-01 1.20645E-22
1.14188E-01 1.14873E-22
1.16978E-01 1.09444E-22
1.19797E-01 1.04333E-22
1.22645E-01 9.95177E-23
1.25522E-01 9.49782E-23
1.28428E-01 9.06952E-23
1.31361E-01 8.66517E-23
1.34323E-01 8.28315E-23
1.37313E-01 7.92198E-23
1.40330E-01 7.58032E-23
1.43375E-01 7.25689E-23
1.46447E-01 6.95054E-23
1.49545E-01 6.66018E-23
1.52671E-01 6.38482E-23
1.55823E-01 6.12353E-23
1.59001E-01 5.87545E-23
1.62205E-01 5.63979E-23
1.65435E-01 5.41579E-23
1.68690E-01 5.20277E-23
1.71970E-01 5.00008E-23
1.75276E-01 4.80712E-23
1.78606E-01 4.62334E-23
1.81961E-01 4.44821E-23
1.85340E-01 4.28125E-23
1.88743E-01 4.12199E-23
1.92169E-01 3.97002E-23
1.95619E-01 3.82493E-23
1.99092E-01 3.68636E-23
2.02589E-01 3.55395E-23
2.06107E-01 3.42737E-23
2.09649E-01 3.30632E-23
2.13212E-01 3.19050E-23
2.16797E-01 3.07966E-23
2.20404E-01 2.97352E-23
2.24032E-01 2.87186E-23
2.27680E-01 2.77444E-23
2.31350E-01 2.68106E-23
2.35040E-01 2.59151E-23
2.38751E-01 2.50561E-23
2.42481E-01 2.42318E-23
2.46231E-01 2.34404E-23
2.50000E-01 2.26806E-23
2.53788E-01 2.19506E-23
2.57595E-01 2.12492E-23
2.61421E-01 2.05750E-23
2.65264E-01 1.99267E-23
2.69126E-01 1.93031E-23
2.73005E-01 1.87032E-23
2.76901E-01 1.81258E-23
2.80814E-01 1.75700E-23
2.84744E-01 1.70347E-23
2.88691E-01 1.65190E-23
2.92653E-01 1.60222E-23
2.96632E-01 1.55434E-23
3.00625E-01 1.50817E-23
3.04634E-01 1.46366E-23
3.08658E-01 1.42072E-23
3.12697E-01 1.37929E-23
3.16749E-01 1.33930E-23
3.20816E-01 1.30070E-23
3.24896E-01 1.26343E-23
3.28990E-01 1.22744E-23
3.33097E-01 1.19266E-23
3.37216E-01 1.15906E-23
3.41348E-01 1.12659E-23
3.45492E-01 1.09520E-23
3.49647E-01 1.06484E-23
3.53814E-01 1.03548E-23
3.57992E-01 1.00708E-23
3.62181E-01 9.79599E-24
3.66381E-01 9.53003E-24
3.70590E-01 9.27259E-24
3.74810E-01 9.02334E-24
3.79039E-01 8.78196E-24
3.83277E-01 8.54816E-24
3.87524E-01 8.32166E-24
3.91780E-01 8.10218E-24
3.96044E-01 7.88947E-24
4.00316E-01 7.68329E-24
4.04596E-01 7.48338E-24
4.08882E-01 7.28953E-24
4.13176E-01 7.10152E-24
4.17476E-01 6.91913E-24
4.21783E-01 6.74217E-24
4.26095E-01 6.57045E-24
4.30413E-01 6.40378E-24
4.34737E-01 6.24199E-24
4.39065E-01 6.08491E-24
4.43398E-01 5.93236E-24
4.47736E-01 5.78420E-24
4.52077E-01 5.64029E-24
4.56422E-01 5.50048E-24
4.60770E-01 5.36462E-24
4.65122E-01 5.23258E-24
4.69476E-01 5.10423E-24
4.73832E-01 4.97946E-24
4.78190E-01 4.85816E-24
4.82550E-01 4.74019E-24
4.86912E-01 4.62547E-24
4.91274E-01 4.51387E-24
4.95637E-01 4.40530E-24
5.00000E-01 4.29966E-24
5.04363E-01 4.19686E-24
5.08726E-01 4.09681E-24
5.13088E-01 3.99943E-24
5.17450E-01 3.90462E-24
5.21810E-01 3.81231E-24
5.26168E-01 3.72243E-24
5.30524E-01 3.63489E-24
5.34878E-01 3.54962E-24
5.39230E-01 3.46656E-24
5.43578E-01 3.38564E-24
5.47923E-01 3.30679E-24
5.52264E-01 3.22995E-24
5.56602E-01 3.15506E-24
5.60935E-01 3.08207E-24
5.65263E-01 3.01091E-24
5.69587E-01 2.94153E-24
5.73905E-01 2.87389E-24
5.78217E-01 2.80792E-24
5.82524E-01 2.74359E-24
5.86824E-01 2.68084E-24
5.91118E-01 2.61963E-24
5.95404E-01 2.55992E-24
5.99684E-01 2.50166E-24
6.03956E-01 2.44481E-24
6.08220E-01 2.38933E-24
6.12476E-01 2.33518E-24
6.16723E-01 2.28233E-24
6.20961E-01 2.23074E-24
6.25190E-01 2.18038E-24
6.29410E-01 2.13121E-24
6.33619E-01 2.08319E-24
6.37819E-01 2.03631E-24
6.42008E-01 1.99052E-24
6.46186E-01 1.94580E-24
6.50353E-01 1.90211E-24
6.54508E-01 1.85944E-24
6.58652E-01 1.81775E-24
6.62784E-01 1.77702E-24
6.66903E-01 1.73722E-24
6.71010E-01 1.69833E-24
6.75104E-01 1.66033E-24
6.79184E-01 1.62318E-24
6.83251E-01 1.58688E-24
6.87303E-01 1.55139E-24
6.91342E-01 1.51670E-24
6.95366E-01 1.48279E-24
6.99375E-01 1.44963E-24
7.03368E-01 1.41721E-24
7.07347E-01 1.38551E-24
7.11309E-01 1.35452E-24
7.15256E-01 1.32420E-24
7.19186E-01 1.29455E-24
7.23099E-01 1.26556E-24
7.26995E-01 1.23719E-24
7.30874E-01 1.20945E-24
7.34736E-01 1.18231E-24
7.38579E-01 1.15576E-24
7.42405E-01 1.12978E-24
7.46212E-01 1.10436E-24
7.50000E-01 1.07950E-24
7.53769E-01 1.05516E-24
7.57519E-01 1.03135E-24
7.61249E-01 1.00805E-24
7.64960E-01 9.85246E-25
7.68650E-01 9.62928E-25
7.72320E-01 9.41085E-25
7.75968E-01 9.19706E-25
7.79596E-01 8.98780E-25
7.83203E-01 8.78297E-25
7.86788E-01 8.58247E-25
7.90351E-01 8.38620E-25
7.93893E-01 8.19406E-25
7.97411E-01 8.00597E-25
8.00908E-01 7.82183E-25
8.04381E-01 7.64155E-25
8.07831E-01 7.46504E-25
8.11257E-01 7.29224E-25
8.14660E-01 7.12305E-25
8.18039E-01 6.95739E-25
8.21394E-01 6.79520E-25
8.24724E-01 6.63639E-25
8.28030E-01 6.48089E-25
8.31310E-01 6.32863E-25
8.34565E-01 6.17955E-25
8.37795E-01 6.03357E-25
8.40999E-01 5.89063E-25
8.44177E-01 5.75067E-25
8.47329E-01 5.61363E-25
8.50455E-01 5.47944E-25
8.53553E-01 5.34805E-25
8.56625E-01 5.21939E-25
8.59670E-01 5.09343E-25
8.62687E-01 4.97009E-25
8.65677E-01 4.84933E-25
8.68639E-01 4.73110E-25
8.71572E-01 4.61534E-25
8.74478E-01 4.50201E-25
8.77355E-01 4.39107E-25
8.80203E-01 4.28245E-25
8.83022E-01 4.17613E-25
8.85812E-01 4.07205E-25
8.88573E-01 3.97018E-25
8.91304E-01 3.87047E-25
8.94005E-01 3.77288E-25
8.96677E-01 3.67738E-25
8.99318E-01 3.58391E-25
9.01928E-01 3.49246E-25
9.04508E-01 3.40297E-25
9.07058E-01 3.31542E-25
9.09576E-01 3.22977E-25
9.12063E-01 3.14598E-25
9.14519E-01 3.06403E-25
9.16943E-01 2.98388E-25
9.19335E-01 2.90550E-25
9.21696E-01 2.82887E-25
9.24024E-01 2.75394E-25
9.26320E-01 2.68070E-25
9.28584E-01 2.60911E-25
9.30815E-01 2.53915E-25
9.33013E-01 2.47079E-25
9.35178E-01 2.40400E-25
9.37310E-01 2.33877E-25
9.39409E-01 2.27506E-25
9.41474E-01 2.21285E-25
9.43505E-01 2.15212E-25
9.45503E-01 2.09285E-25
9.47467E-01 2.03502E-25
9.49397E-01 1.97859E-25
9.51293E-01 1.92356E-25
9.53154E-01 1.86991E-25
9.54981E-01 1.81760E-25
9.56773E-01 1.76663E-25
9.58530E-01 1.71698E-25
9.60252E-01 1.66862E-25
9.61940E-01 1.62155E-25
9.63592E-01 1.57574E-25
9.65209E-01 1.53117E-25
9.66790E-01 1.48784E-25
9.68336E-01 1.44573E-25
9.69846E-01 1.40481E-25
9.71321E-01 1.36509E-25
9.72759E-01 1.32653E-25
9.74162E-01 1.28914E-25
9.75528E-01 1.25289E-25
9.76858E-01 1.21778E-25
9.78152E-01 1.18378E-25
9.79410E-01 1.15090E-25
9.80631E-01 1.11912E-25
9.81815E-01 1.08842E-25
9.82963E-01 1.05880E-25
9.84074E-01 1.03025E-25
9.85148E-01 1.00275E-25
9.86185E-01 9.76298E-26
9.87185E-01 9.50887E-26
9.88148E-01 9.26504E-26
9.89074E-01 9.03143E-26
9.89962E-01 8.80796E-26
9.90814E-01 8.59454E-26
9.91627E-01 8.39110E-26
9.92404E-01 8.19758E-26
9.93143E-01 8.01390E-26
9.93844E-01 7.84002E-26
9.94508E-01 7.67586E-26
9.95134E-01 7.52137E-26
9.95722E-01 7.37651E-26
9.96273E-01 7.24122E-26
9.96786E-01 7.11545E-26
9.97261E-01 6.99917E-26
9.97698E-01 6.89233E-26
9.98097E-01 6.79491E-26
9.98459E-01 6.70686E-26
9.98782E-01 6.62815E-26
9.99067E-01 6.55877E-26
9.99315E-01 6.49869E-26
9.99524E-01 6.44788E-26
9.99695E-01 6.40634E-26
9.99829E-01 6.37404E-26
9.99924E-01 6.35098E-26
9.99981E-01 6.33714E-26
1.00000E+00 6.33253E-26
