 #
 # Subroutine ELSEPA. Elastic scattering of electrons and positrons
 #                    by neutral atoms and positive ions
 #
 # Projectile: electron
 # Kinetic energy = 9.00000E+08 eV = 3.30744E+07 a.u.
 #
 # WARNING: High-energy factorization with free-atom DF screening.
 #          Absorption, polarization and exchange corrections are
 #          switched off.
 #          Phase shifts are calculated for the bare nucleus.
 #          Scattering amplitudes are not evaluated.
 #
 # Element: Sr,  Z =  38,  atomic weight = 8.76200E+01 g/mol
 #
 # Nuclear model: Fermi distribution
 #                Average radius = 4.75246E-13 cm
 #                Skin thickness = 5.46000E-14 cm
 #
 # Number of electrons = 38
 #
 # Total elastic cross section = 3.68607E-18 cm**2 = 1.31632E-01 a0**2
 # 1st transport cross section = 3.58148E-27 cm**2 = 1.27897E-10 a0**2
 # 2nd transport cross section = 1.07430E-26 cm**2 = 3.83640E-10 a0**2
 #
 #
 # Differential cross section:                       MU=(1-COS(THETA))/2
 #
 #  THETA        MU          DCS          DCS        Sherman      error
 #  (deg)                 (cm**2/sr)   (a0**2/sr)    function
 #----------------------------------------------------------------------
0.00000E+00 5.25680E-08
7.61557E-13 3.48180E-08
1.18994E-12 2.86896E-08
1.71346E-12 2.33344E-08
2.33225E-12 1.89317E-08
3.04617E-12 1.54229E-08
3.85530E-12 1.26928E-08
4.75964E-12 1.05710E-08
5.75917E-12 8.91143E-09
6.85391E-12 7.60433E-09
8.04379E-12 6.55526E-09
9.32893E-12 5.70086E-09
1.07092E-11 4.99364E-09
1.21847E-11 4.40015E-09
1.37554E-11 3.89599E-09
1.54213E-11 3.46254E-09
1.71823E-11 3.08796E-09
1.90386E-11 2.76145E-09
2.09900E-11 2.47546E-09
2.30367E-11 2.22457E-09
2.51785E-11 2.00310E-09
2.74156E-11 1.80754E-09
2.97478E-11 1.62771E-09
3.21752E-11 1.46826E-09
3.46979E-11 1.33070E-09
3.73157E-11 1.21147E-09
4.00286E-11 1.10764E-09
4.28368E-11 1.01683E-09
4.57402E-11 9.31828E-10
4.87388E-11 8.52861E-10
5.18325E-11 7.83319E-10
5.50215E-11 7.21848E-10
5.83057E-11 6.67320E-10
6.16850E-11 6.18785E-10
6.51595E-11 5.73919E-10
6.87293E-11 5.31972E-10
7.23943E-11 4.94397E-10
7.61544E-11 4.60643E-10
1.18991E-10 2.46023E-10
1.71347E-10 1.44713E-10
2.33223E-10 8.99291E-11
3.04617E-10 5.81927E-11
3.85531E-10 3.88057E-11
4.75965E-10 2.66643E-11
5.75917E-10 1.88542E-11
6.85389E-10 1.36830E-11
8.04380E-10 1.01737E-11
9.32891E-10 7.73208E-12
1.07092E-09 5.99112E-12
1.21847E-09 4.72162E-12
1.37554E-09 3.77579E-12
1.54213E-09 3.05763E-12
1.71823E-09 2.50412E-12
1.90386E-09 2.07119E-12
2.09900E-09 1.72822E-12
2.30367E-09 1.45350E-12
2.51785E-09 1.23095E-12
2.74156E-09 1.04916E-12
2.97478E-09 8.98949E-13
3.21752E-09 7.74853E-13
3.46978E-09 6.71708E-13
3.73156E-09 5.84425E-13
4.00286E-09 5.11181E-13
4.28368E-09 4.48683E-13
4.57402E-09 3.95448E-13
4.87388E-09 3.49883E-13
5.18326E-09 3.10529E-13
5.50215E-09 2.76643E-13
5.83057E-09 2.47117E-13
6.16850E-09 2.21453E-13
6.51596E-09 1.99024E-13
6.87293E-09 1.79331E-13
7.23942E-09 1.62045E-13
7.61544E-09 1.46744E-13
1.18991E-08 6.11439E-14
1.71347E-08 2.98564E-14
2.33223E-08 1.62768E-14
3.04617E-08 9.61754E-15
3.85531E-08 6.04233E-15
4.75965E-08 3.98426E-15
5.75917E-08 2.73206E-15
6.85389E-08 1.93507E-15
8.04380E-08 1.40842E-15
9.32891E-08 1.04921E-15
1.07092E-07 7.97474E-16
1.21847E-07 6.16848E-16
1.37554E-07 4.84548E-16
1.54213E-07 3.85867E-16
1.71823E-07 3.11059E-16
1.90386E-07 2.53522E-16
2.09900E-07 2.08687E-16
2.30367E-07 1.73334E-16
2.51785E-07 1.45157E-16
2.74156E-07 1.22477E-16
2.97478E-07 1.04057E-16
3.21752E-07 8.89724E-17
3.46978E-07 7.65237E-17
3.73156E-07 6.61775E-17
4.00286E-07 5.75217E-17
4.28368E-07 5.02356E-17
4.57402E-07 4.40672E-17
4.87388E-07 3.88170E-17
5.18325E-07 3.43257E-17
5.50215E-07 3.04656E-17
5.83057E-07 2.71330E-17
6.16850E-07 2.42438E-17
6.51596E-07 2.17292E-17
6.87293E-07 1.95322E-17
7.23942E-07 1.76060E-17
7.61543E-07 1.59114E-17
1.18991E-06 6.52069E-18
1.71347E-06 3.14567E-18
2.33223E-06 1.69839E-18
3.04617E-06 9.95774E-19
3.85531E-06 6.21776E-19
4.75964E-06 4.08021E-19
5.75916E-06 2.78731E-19
6.85388E-06 1.96835E-19
8.04378E-06 1.42930E-19
9.32888E-06 1.06281E-19
1.07092E-05 8.06619E-20
1.21846E-05 6.23192E-20
1.37553E-05 4.89071E-20
1.54212E-05 3.89175E-20
1.71822E-05 3.13536E-20
1.90385E-05 2.55381E-20
2.09899E-05 2.10177E-20
2.30365E-05 1.74541E-20
2.51783E-05 1.46136E-20
2.74153E-05 1.23273E-20
2.97475E-05 1.04706E-20
3.21749E-05 8.95079E-21
3.46974E-05 7.69729E-21
3.73152E-05 6.65616E-21
4.00281E-05 5.78558E-21
4.28362E-05 5.05298E-21
4.57395E-05 4.43279E-21
4.87380E-05 3.90485E-21
5.18317E-05 3.45314E-21
5.50205E-05 3.06485E-21
5.83045E-05 2.72963E-21
6.16838E-05 2.43903E-21
6.51582E-05 2.18616E-21
6.87277E-05 1.96527E-21
7.23925E-05 1.77164E-21
7.61524E-05 1.57262E-21
9.21439E-05 1.06859E-21
1.09658E-04 7.49956E-22
1.28695E-04 5.40789E-22
1.49255E-04 3.98966E-22
1.71338E-04 3.00179E-22
1.94942E-04 2.29710E-22
2.20070E-04 1.78407E-22
2.46720E-04 1.40377E-22
2.74892E-04 1.11730E-22
3.04586E-04 8.98461E-23
3.35803E-04 7.29116E-23
3.68542E-04 5.96579E-23
4.02802E-04 4.91766E-23
4.38585E-04 4.08094E-23
4.75889E-04 3.40729E-23
5.14715E-04 2.86063E-23
5.55063E-04 2.41387E-23
5.96931E-04 2.04632E-23
6.40321E-04 1.74210E-23
6.85233E-04 1.48890E-23
7.31665E-04 1.27705E-23
7.79618E-04 1.09896E-23
8.29092E-04 9.48569E-24
8.80086E-04 8.21056E-24
9.32601E-04 7.12520E-24
9.86636E-04 6.19804E-24
1.04219E-03 5.40341E-24
1.09927E-03 4.72020E-24
1.15786E-03 4.13112E-24
1.21797E-03 3.62180E-24
1.27961E-03 3.18033E-24
1.34276E-03 2.79677E-24
1.40743E-03 2.46278E-24
1.47362E-03 2.17136E-24
1.54133E-03 1.91660E-24
1.61056E-03 1.69347E-24
1.68131E-03 1.49774E-24
1.75357E-03 1.32575E-24
1.82735E-03 1.17442E-24
1.90265E-03 1.04109E-24
1.97947E-03 9.23457E-25
2.05780E-03 8.19563E-25
2.13765E-03 7.27704E-25
2.21902E-03 6.46405E-25
2.30190E-03 5.74387E-25
2.38630E-03 5.10538E-25
2.47222E-03 4.53888E-25
2.55965E-03 4.03591E-25
2.64859E-03 3.58908E-25
2.73905E-03 3.19190E-25
2.83103E-03 2.83870E-25
2.92452E-03 2.52445E-25
3.01952E-03 2.24478E-25
3.11604E-03 1.99580E-25
3.21407E-03 1.77409E-25
3.31362E-03 1.57663E-25
3.41468E-03 1.40074E-25
3.51725E-03 1.24406E-25
3.62133E-03 1.10448E-25
3.72692E-03 9.80146E-26
3.83403E-03 8.69401E-26
3.94265E-03 7.70773E-26
4.05278E-03 6.82955E-26
4.16442E-03 6.04779E-26
4.27757E-03 5.35209E-26
4.39223E-03 4.73319E-26
4.50840E-03 4.18283E-26
4.62608E-03 3.69365E-26
4.74527E-03 3.25907E-26
4.86597E-03 2.87321E-26
4.98817E-03 2.53083E-26
5.11188E-03 2.22723E-26
5.23711E-03 1.95822E-26
5.36383E-03 1.72005E-26
5.49207E-03 1.50935E-26
5.62181E-03 1.32314E-26
5.75306E-03 1.15873E-26
5.88581E-03 1.01372E-26
6.02007E-03 8.85962E-27
6.15583E-03 7.73535E-27
6.29310E-03 6.74725E-27
6.43187E-03 5.87999E-27
6.57214E-03 5.11984E-27
6.71392E-03 4.45459E-27
6.85720E-03 3.87328E-27
7.00198E-03 3.36616E-27
7.14827E-03 2.92454E-27
7.29605E-03 2.54066E-27
7.44534E-03 2.20761E-27
7.59612E-03 1.91924E-27
7.97965E-03 1.35936E-27
8.37255E-03 9.76134E-28
8.77480E-03 7.17749E-28
9.18641E-03 5.46194E-28
9.60736E-03 4.33864E-28
1.00376E-02 3.60954E-28
1.04773E-02 3.13473E-28
1.09262E-02 2.81722E-28
1.13844E-02 2.59147E-28
1.18520E-02 2.41462E-28
1.23288E-02 2.25994E-28
1.28150E-02 2.11195E-28
1.33104E-02 1.96277E-28
1.38150E-02 1.80950E-28
1.43290E-02 1.65231E-28
1.48521E-02 1.49307E-28
1.53845E-02 1.33448E-28
1.59262E-02 1.17941E-28
1.64770E-02 1.03051E-28
1.70371E-02 8.90057E-29
1.76063E-02 7.59781E-29
1.81848E-02 6.40877E-29
1.87724E-02 5.34015E-29
1.93692E-02 4.39407E-29
1.99751E-02 3.56870E-29
2.05901E-02 2.85910E-29
2.12143E-02 2.25800E-29
2.18476E-02 1.75647E-29
2.24900E-02 1.34458E-29
2.31415E-02 1.01198E-29
2.38021E-02 7.48260E-30
2.44717E-02 5.43363E-30
2.51504E-02 3.87813E-30
2.58382E-02 2.72899E-30
2.65349E-02 1.90783E-30
2.72407E-02 1.34559E-30
2.79555E-02 9.82577E-31
2.86793E-02 7.68223E-31
2.94120E-02 6.60561E-31
3.01537E-02 6.25520E-31
3.09043E-02 6.36123E-31
3.16639E-02 6.71610E-31
3.24324E-02 7.16568E-31
3.32098E-02 7.60079E-31
3.39961E-02 7.94912E-31
3.47912E-02 8.16787E-31
3.55952E-02 8.23721E-31
3.64081E-02 8.15445E-31
3.72297E-02 7.92917E-31
3.80602E-02 7.57907E-31
3.88995E-02 7.12666E-31
3.97476E-02 6.59658E-31
4.06044E-02 6.01363E-31
4.14700E-02 5.40126E-31
4.23443E-02 4.78060E-31
4.32273E-02 4.16981E-31
4.41190E-02 3.58380E-31
4.50194E-02 3.03415E-31
4.59284E-02 2.52923E-31
4.68461E-02 2.07447E-31
4.87074E-02 1.32441E-31
5.06030E-02 7.81947E-32
5.25328E-02 4.21990E-32
5.44967E-02 2.07663E-32
5.64946E-02 9.92212E-33
5.85262E-02 6.00902E-33
6.05914E-02 6.02518E-33
6.26901E-02 7.75090E-33
6.48222E-02 9.72447E-33
6.69873E-02 1.11278E-32
6.91854E-02 1.16311E-32
7.14163E-02 1.12335E-32
7.36799E-02 1.01223E-32
7.59760E-02 8.56181E-33
7.83043E-02 6.81747E-33
8.06647E-02 5.10950E-33
8.30571E-02 3.59256E-33
8.54812E-02 2.35351E-33
8.79369E-02 1.42052E-33
9.04240E-02 7.77909E-34
9.29422E-02 3.82247E-34
9.54915E-02 1.76919E-34
9.80716E-02 1.03581E-34
1.00682E-01 1.09966E-34
1.03323E-01 1.54237E-34
1.05995E-01 2.06492E-34
1.08696E-01 2.48203E-34
1.11427E-01 2.70385E-34
1.14188E-01 2.71175E-34
1.16978E-01 2.53357E-34
1.19797E-01 2.22156E-34
1.22645E-01 1.83521E-34
1.25522E-01 1.42931E-34
1.28428E-01 1.04706E-34
1.31361E-01 7.17359E-35
1.34323E-01 4.55056E-35
1.37313E-01 2.63201E-35
1.40330E-01 1.36186E-35
1.43375E-01 6.30603E-36
1.46447E-01 3.05095E-36
1.49545E-01 2.51905E-36
1.52671E-01 3.53293E-36
1.55823E-01 5.16105E-36
1.59001E-01 6.74745E-36
1.62205E-01 7.89768E-36
1.65435E-01 8.43712E-36
1.68690E-01 8.35575E-36
1.71970E-01 7.75088E-36
1.75276E-01 6.77563E-36
1.78606E-01 5.59775E-36
1.81961E-01 4.37054E-36
1.85340E-01 3.21553E-36
1.88743E-01 2.21531E-36
1.92169E-01 1.41391E-36
1.95619E-01 8.22256E-37
1.99092E-01 4.26323E-37
2.02589E-01 1.95922E-37
2.06107E-01 9.28830E-38
2.09649E-01 7.77363E-38
2.13212E-01 1.14533E-37
2.16797E-01 1.73793E-37
2.20404E-01 2.33815E-37
2.24032E-01 2.80673E-37
2.27680E-01 3.07324E-37
2.31350E-01 3.12184E-37
2.35040E-01 2.97505E-37
2.38751E-01 2.67814E-37
2.42481E-01 2.28568E-37
2.46231E-01 1.85131E-37
2.50000E-01 1.42093E-37
2.53788E-01 1.02900E-37
2.57595E-01 6.97570E-38
2.61421E-01 4.37022E-38
2.65264E-01 1.00000E-45
2.69126E-01 1.00000E-45
2.73005E-01 1.00000E-45
2.76901E-01 1.00000E-45
2.80814E-01 1.00000E-45
2.84744E-01 1.00000E-45
2.88691E-01 1.00000E-45
2.92653E-01 1.00000E-45
2.96632E-01 1.00000E-45
3.00625E-01 1.00000E-45
3.04634E-01 1.00000E-45
3.08658E-01 1.00000E-45
3.12697E-01 1.00000E-45
3.16749E-01 1.00000E-45
3.20816E-01 1.00000E-45
3.24896E-01 1.00000E-45
3.28990E-01 1.00000E-45
3.33097E-01 1.00000E-45
3.37216E-01 1.00000E-45
3.41348E-01 1.00000E-45
3.45492E-01 1.00000E-45
3.49647E-01 1.00000E-45
3.53814E-01 1.00000E-45
3.57992E-01 1.00000E-45
3.62181E-01 1.00000E-45
3.66381E-01 1.00000E-45
3.70590E-01 1.00000E-45
3.74810E-01 1.00000E-45
3.79039E-01 1.00000E-45
3.83277E-01 1.00000E-45
3.87524E-01 1.00000E-45
3.91780E-01 1.00000E-45
3.96044E-01 1.00000E-45
4.00316E-01 1.00000E-45
4.04596E-01 1.00000E-45
4.08882E-01 1.00000E-45
4.13176E-01 1.00000E-45
4.17476E-01 1.00000E-45
4.21783E-01 1.00000E-45
4.26095E-01 1.00000E-45
4.30413E-01 1.00000E-45
4.34737E-01 1.00000E-45
4.39065E-01 1.00000E-45
4.43398E-01 1.00000E-45
4.47736E-01 1.00000E-45
4.52077E-01 1.00000E-45
4.56422E-01 1.00000E-45
4.60770E-01 1.00000E-45
4.65122E-01 1.00000E-45
4.69476E-01 1.00000E-45
4.73832E-01 1.00000E-45
4.78190E-01 1.00000E-45
4.82550E-01 1.00000E-45
4.86912E-01 1.00000E-45
4.91274E-01 1.00000E-45
4.95637E-01 1.00000E-45
5.00000E-01 1.00000E-45
5.04363E-01 1.00000E-45
5.08726E-01 1.00000E-45
5.13088E-01 1.00000E-45
5.17450E-01 1.00000E-45
5.21810E-01 1.00000E-45
5.26168E-01 1.00000E-45
5.30524E-01 1.00000E-45
5.34878E-01 1.00000E-45
5.39230E-01 1.00000E-45
5.43578E-01 1.00000E-45
5.47923E-01 1.00000E-45
5.52264E-01 1.00000E-45
5.56602E-01 1.00000E-45
5.60935E-01 1.00000E-45
5.65263E-01 1.00000E-45
5.69587E-01 1.00000E-45
5.73905E-01 1.00000E-45
5.78217E-01 1.00000E-45
5.82524E-01 1.00000E-45
5.86824E-01 1.00000E-45
5.91118E-01 1.00000E-45
5.95404E-01 1.00000E-45
5.99684E-01 1.00000E-45
6.03956E-01 1.00000E-45
6.08220E-01 1.00000E-45
6.12476E-01 1.00000E-45
6.16723E-01 1.00000E-45
6.20961E-01 1.00000E-45
6.25190E-01 1.00000E-45
6.29410E-01 1.00000E-45
6.33619E-01 1.00000E-45
6.37819E-01 1.00000E-45
6.42008E-01 1.00000E-45
6.46186E-01 1.00000E-45
6.50353E-01 1.00000E-45
6.54508E-01 1.00000E-45
6.58652E-01 1.00000E-45
6.62784E-01 1.00000E-45
6.66903E-01 1.00000E-45
6.71010E-01 1.00000E-45
6.75104E-01 1.00000E-45
6.79184E-01 1.00000E-45
6.83251E-01 1.00000E-45
6.87303E-01 1.00000E-45
6.91342E-01 1.00000E-45
6.95366E-01 1.00000E-45
6.99375E-01 1.00000E-45
7.03368E-01 1.00000E-45
7.07347E-01 1.00000E-45
7.11309E-01 1.00000E-45
7.15256E-01 1.00000E-45
7.19186E-01 1.00000E-45
7.23099E-01 1.00000E-45
7.26995E-01 1.00000E-45
7.30874E-01 1.00000E-45
7.34736E-01 1.00000E-45
7.38579E-01 1.00000E-45
7.42405E-01 1.00000E-45
7.46212E-01 1.00000E-45
7.50000E-01 1.00000E-45
7.53769E-01 1.00000E-45
7.57519E-01 1.00000E-45
7.61249E-01 1.00000E-45
7.64960E-01 1.00000E-45
7.68650E-01 1.00000E-45
7.72320E-01 1.00000E-45
7.75968E-01 1.00000E-45
7.79596E-01 1.00000E-45
7.83203E-01 1.00000E-45
7.86788E-01 1.00000E-45
7.90351E-01 1.00000E-45
7.93893E-01 1.00000E-45
7.97411E-01 1.00000E-45
8.00908E-01 1.00000E-45
8.04381E-01 1.00000E-45
8.07831E-01 1.00000E-45
8.11257E-01 1.00000E-45
8.14660E-01 1.00000E-45
8.18039E-01 1.00000E-45
8.21394E-01 1.00000E-45
8.24724E-01 1.00000E-45
8.28030E-01 1.00000E-45
8.31310E-01 1.00000E-45
8.34565E-01 1.00000E-45
8.37795E-01 1.00000E-45
8.40999E-01 1.00000E-45
8.44177E-01 1.00000E-45
8.47329E-01 1.00000E-45
8.50455E-01 1.00000E-45
8.53553E-01 1.00000E-45
8.56625E-01 1.00000E-45
8.59670E-01 1.00000E-45
8.62687E-01 1.00000E-45
8.65677E-01 1.00000E-45
8.68639E-01 1.00000E-45
8.71572E-01 1.00000E-45
8.74478E-01 1.00000E-45
8.77355E-01 1.00000E-45
8.80203E-01 1.00000E-45
8.83022E-01 1.00000E-45
8.85812E-01 1.00000E-45
8.88573E-01 1.00000E-45
8.91304E-01 1.00000E-45
8.94005E-01 1.00000E-45
8.96677E-01 1.00000E-45
8.99318E-01 1.00000E-45
9.01928E-01 1.00000E-45
9.04508E-01 1.00000E-45
9.07058E-01 1.00000E-45
9.09576E-01 1.00000E-45
9.12063E-01 1.00000E-45
9.14519E-01 1.00000E-45
9.16943E-01 1.00000E-45
9.19335E-01 1.00000E-45
9.21696E-01 1.00000E-45
9.24024E-01 1.00000E-45
9.26320E-01 1.00000E-45
9.28584E-01 1.00000E-45
9.30815E-01 1.00000E-45
9.33013E-01 1.00000E-45
9.35178E-01 1.00000E-45
9.37310E-01 1.00000E-45
9.39409E-01 1.00000E-45
9.41474E-01 1.00000E-45
9.43505E-01 1.00000E-45
9.45503E-01 1.00000E-45
9.47467E-01 1.00000E-45
9.49397E-01 1.00000E-45
9.51293E-01 1.00000E-45
9.53154E-01 1.00000E-45
9.54981E-01 1.00000E-45
9.56773E-01 1.00000E-45
9.58530E-01 1.00000E-45
9.60252E-01 1.00000E-45
9.61940E-01 1.00000E-45
9.63592E-01 1.00000E-45
9.65209E-01 1.00000E-45
9.66790E-01 1.00000E-45
9.68336E-01 1.00000E-45
9.69846E-01 1.00000E-45
9.71321E-01 1.00000E-45
9.72759E-01 1.00000E-45
9.74162E-01 1.00000E-45
9.75528E-01 1.00000E-45
9.76858E-01 1.00000E-45
9.78152E-01 1.00000E-45
9.79410E-01 1.00000E-45
9.80631E-01 1.00000E-45
9.81815E-01 1.00000E-45
9.82963E-01 1.00000E-45
9.84074E-01 1.00000E-45
9.85148E-01 1.00000E-45
9.86185E-01 1.00000E-45
9.87185E-01 1.00000E-45
9.88148E-01 1.00000E-45
9.89074E-01 1.00000E-45
9.89962E-01 1.00000E-45
9.90814E-01 1.00000E-45
9.91627E-01 1.00000E-45
9.92404E-01 1.00000E-45
9.93143E-01 1.00000E-45
9.93844E-01 1.00000E-45
9.94508E-01 1.00000E-45
9.95134E-01 1.00000E-45
9.95722E-01 1.00000E-45
9.96273E-01 1.00000E-45
9.96786E-01 1.00000E-45
9.97261E-01 1.00000E-45
9.97698E-01 1.00000E-45
9.98097E-01 1.00000E-45
9.98459E-01 1.00000E-45
9.98782E-01 1.00000E-45
9.99067E-01 1.00000E-45
9.99315E-01 1.00000E-45
9.99524E-01 1.00000E-45
9.99695E-01 1.00000E-45
9.99829E-01 1.00000E-45
9.99924E-01 1.00000E-45
9.99981E-01 1.00000E-45
1.00000E+00 1.00000E-45
