 #
 # Subroutine ELSEPA. Elastic scattering of electrons and positrons
 #                    by neutral atoms and positive ions
 #
 # Projectile: electron
 # Kinetic energy = 4.50000E+06 eV = 1.65372E+05 a.u.
 #
 # WARNING: High-energy factorization with free-atom DF screening.
 #          Absorption, polarization and exchange corrections are
 #          switched off.
 #          Phase shifts are calculated for the bare nucleus.
 #          Scattering amplitudes are not evaluated.
 #
 # Element: Sr,  Z =  38,  atomic weight = 8.76200E+01 g/mol
 #
 # Nuclear model: Fermi distribution
 #                Average radius = 4.75246E-13 cm
 #                Skin thickness = 5.46000E-14 cm
 #
 # Number of electrons = 38
 #
 # Total elastic cross section = 3.80109E-18 cm**2 = 1.35739E-01 a0**2
 # 1st transport cross section = 9.04454E-23 cm**2 = 3.22987E-06 a0**2
 # 2nd transport cross section = 2.54433E-22 cm**2 = 9.08597E-06 a0**2
 #
 #
 # Differential cross section:                       MU=(1-COS(THETA))/2
 #
 #  THETA        MU          DCS          DCS        Sherman      error
 #  (deg)                 (cm**2/sr)   (a0**2/sr)    function
 #----------------------------------------------------------------------
0.00000E+00 1.62777E-12
7.61557E-13 1.62774E-12
1.18994E-12 1.62773E-12
1.71346E-12 1.62771E-12
2.33225E-12 1.62770E-12
3.04617E-12 1.62767E-12
3.85530E-12 1.62765E-12
4.75964E-12 1.62762E-12
5.75917E-12 1.62759E-12
6.85391E-12 1.62756E-12
8.04379E-12 1.62752E-12
9.32893E-12 1.62748E-12
1.07092E-11 1.62744E-12
1.21847E-11 1.62740E-12
1.37554E-11 1.62735E-12
1.54213E-11 1.62730E-12
1.71823E-11 1.62725E-12
1.90386E-11 1.62719E-12
2.09900E-11 1.62713E-12
2.30367E-11 1.62707E-12
2.51785E-11 1.62700E-12
2.74156E-11 1.62693E-12
2.97478E-11 1.62686E-12
3.21752E-11 1.62679E-12
3.46979E-11 1.62671E-12
3.73157E-11 1.62663E-12
4.00286E-11 1.62655E-12
4.28368E-11 1.62647E-12
4.57402E-11 1.62638E-12
4.87388E-11 1.62629E-12
5.18325E-11 1.62619E-12
5.50215E-11 1.62610E-12
5.83057E-11 1.62600E-12
6.16850E-11 1.62590E-12
6.51595E-11 1.62579E-12
6.87293E-11 1.62568E-12
7.23943E-11 1.62557E-12
7.61544E-11 1.62546E-12
1.18991E-10 1.62416E-12
1.71347E-10 1.62258E-12
2.33223E-10 1.62071E-12
3.04617E-10 1.61856E-12
3.85531E-10 1.61613E-12
4.75965E-10 1.61342E-12
5.75917E-10 1.61043E-12
6.85389E-10 1.60717E-12
8.04380E-10 1.60363E-12
9.32891E-10 1.59983E-12
1.07092E-09 1.59576E-12
1.21847E-09 1.59142E-12
1.37554E-09 1.58683E-12
1.54213E-09 1.58198E-12
1.71823E-09 1.57687E-12
1.90386E-09 1.57152E-12
2.09900E-09 1.56592E-12
2.30367E-09 1.56008E-12
2.51785E-09 1.55401E-12
2.74156E-09 1.54771E-12
2.97478E-09 1.54118E-12
3.21752E-09 1.53442E-12
3.46978E-09 1.52745E-12
3.73156E-09 1.52027E-12
4.00286E-09 1.51289E-12
4.28368E-09 1.50530E-12
4.57402E-09 1.49751E-12
4.87388E-09 1.48954E-12
5.18326E-09 1.48138E-12
5.50215E-09 1.47304E-12
5.83057E-09 1.46453E-12
6.16850E-09 1.45585E-12
6.51596E-09 1.44701E-12
6.87293E-09 1.43801E-12
7.23942E-09 1.42886E-12
7.61544E-09 1.41957E-12
1.18991E-08 1.32039E-12
1.71347E-08 1.21300E-12
2.33223E-08 1.10297E-12
3.04617E-08 9.94747E-13
3.85531E-08 8.91685E-13
4.75965E-08 7.96025E-13
5.75917E-08 7.09048E-13
6.85389E-08 6.31467E-13
8.04380E-08 5.62788E-13
9.32891E-08 5.02492E-13
1.07092E-07 4.49843E-13
1.21847E-07 4.04014E-13
1.37554E-07 3.64165E-13
1.54213E-07 3.29494E-13
1.71823E-07 2.99270E-13
1.90386E-07 2.72843E-13
2.09900E-07 2.49646E-13
2.30367E-07 2.29199E-13
2.51785E-07 2.11092E-13
2.74156E-07 1.94957E-13
2.97478E-07 1.80510E-13
3.21752E-07 1.67513E-13
3.46978E-07 1.55770E-13
3.73156E-07 1.45115E-13
4.00286E-07 1.35409E-13
4.28368E-07 1.26537E-13
4.57402E-07 1.18401E-13
4.87388E-07 1.10919E-13
5.18325E-07 1.04017E-13
5.50215E-07 9.76292E-14
5.83057E-07 9.17153E-14
6.16850E-07 8.62311E-14
6.51596E-07 8.11382E-14
6.87293E-07 7.64028E-14
7.23942E-07 7.19949E-14
7.61543E-07 6.78879E-14
1.18991E-06 3.86739E-14
1.71347E-06 2.38499E-14
2.33223E-06 1.56049E-14
3.04617E-06 1.07483E-14
3.85531E-06 7.70852E-15
4.75964E-06 5.69603E-15
5.75916E-06 4.30026E-15
6.85388E-06 3.29355E-15
8.04378E-06 2.55606E-15
9.32888E-06 2.00622E-15
1.07092E-05 1.59078E-15
1.21846E-05 1.27348E-15
1.37553E-05 1.02886E-15
1.54212E-05 8.38671E-16
1.71822E-05 6.89575E-16
1.90385E-05 5.71675E-16
2.09899E-05 4.77937E-16
2.30365E-05 4.02668E-16
2.51783E-05 3.41572E-16
2.74153E-05 2.91748E-16
2.97475E-05 2.50817E-16
3.21749E-05 2.16949E-16
3.46974E-05 1.88726E-16
3.73152E-05 1.65042E-16
4.00281E-05 1.45032E-16
4.28362E-05 1.28016E-16
4.57395E-05 1.13460E-16
4.87380E-05 1.00939E-16
5.18317E-05 9.01139E-17
5.50205E-05 8.07113E-17
5.83045E-05 7.25143E-17
6.16838E-05 6.53402E-17
6.51582E-05 5.90378E-17
6.87277E-05 5.34808E-17
7.23925E-05 4.85637E-17
7.61524E-05 4.41983E-17
9.21439E-05 3.09369E-17
1.09658E-04 2.22635E-17
1.28695E-04 1.64118E-17
1.49255E-04 1.23497E-17
1.71338E-04 9.46367E-18
1.94942E-04 7.36947E-18
2.20070E-04 5.82185E-18
2.46720E-04 4.65921E-18
2.74892E-04 3.77251E-18
3.04586E-04 3.08716E-18
3.35803E-04 2.55077E-18
3.68542E-04 2.12618E-18
4.02802E-04 1.78655E-18
4.38585E-04 1.51230E-18
4.75889E-04 1.28889E-18
5.14715E-04 1.10538E-18
5.55063E-04 9.53516E-19
5.96931E-04 8.26946E-19
6.40321E-04 7.20770E-19
6.85233E-04 6.31157E-19
7.31665E-04 5.55093E-19
7.79618E-04 4.90188E-19
8.29092E-04 4.34523E-19
8.80086E-04 3.86560E-19
9.32601E-04 3.45053E-19
9.86636E-04 3.08987E-19
1.04219E-03 2.77524E-19
1.09927E-03 2.49976E-19
1.15786E-03 2.25771E-19
1.21797E-03 2.04433E-19
1.27961E-03 1.85563E-19
1.34276E-03 1.68826E-19
1.40743E-03 1.53938E-19
1.47362E-03 1.40658E-19
1.54133E-03 1.28783E-19
1.61056E-03 1.18138E-19
1.68131E-03 1.08572E-19
1.75357E-03 9.99573E-20
1.82735E-03 9.21823E-20
1.90265E-03 8.51503E-20
1.97947E-03 7.87778E-20
2.05780E-03 7.29917E-20
2.13765E-03 6.77284E-20
2.21902E-03 6.29322E-20
2.30190E-03 5.85540E-20
2.38630E-03 5.45508E-20
2.47222E-03 5.08848E-20
2.55965E-03 4.75225E-20
2.64859E-03 4.44340E-20
2.73905E-03 4.15931E-20
2.83103E-03 3.89763E-20
2.92452E-03 3.65627E-20
3.01952E-03 3.43336E-20
3.11604E-03 3.22722E-20
3.21407E-03 3.03638E-20
3.31362E-03 2.85948E-20
3.41468E-03 2.69531E-20
3.51725E-03 2.54280E-20
3.62133E-03 2.40096E-20
3.72692E-03 2.26891E-20
3.83403E-03 2.14584E-20
3.94265E-03 2.03104E-20
4.05278E-03 1.92384E-20
4.16442E-03 1.82365E-20
4.27757E-03 1.72992E-20
4.39223E-03 1.64216E-20
4.50840E-03 1.55992E-20
4.62608E-03 1.48278E-20
4.74527E-03 1.41037E-20
4.86597E-03 1.34235E-20
4.98817E-03 1.27840E-20
5.11188E-03 1.21822E-20
5.23711E-03 1.16156E-20
5.36383E-03 1.10818E-20
5.49207E-03 1.05784E-20
5.62181E-03 1.01034E-20
5.75306E-03 9.65487E-21
5.88581E-03 9.23109E-21
6.02007E-03 8.83042E-21
6.15583E-03 8.45137E-21
6.29310E-03 8.09254E-21
6.43187E-03 7.75266E-21
6.57214E-03 7.43053E-21
6.71392E-03 7.12505E-21
6.85720E-03 6.83519E-21
7.00198E-03 6.56000E-21
7.14827E-03 6.29861E-21
7.29605E-03 6.05017E-21
7.44534E-03 5.81393E-21
7.59612E-03 5.58918E-21
7.97965E-03 5.07329E-21
8.37255E-03 4.61590E-21
8.77480E-03 4.20921E-21
9.18641E-03 3.84660E-21
9.60736E-03 3.52244E-21
1.00376E-02 3.23194E-21
1.04773E-02 2.97096E-21
1.09262E-02 2.73597E-21
1.13844E-02 2.52392E-21
1.18520E-02 2.33215E-21
1.23288E-02 2.15839E-21
1.28150E-02 2.00062E-21
1.33104E-02 1.85711E-21
1.38150E-02 1.72634E-21
1.43290E-02 1.60696E-21
1.48521E-02 1.49780E-21
1.53845E-02 1.39783E-21
1.59262E-02 1.30612E-21
1.64770E-02 1.22188E-21
1.70371E-02 1.14437E-21
1.76063E-02 1.07296E-21
1.81848E-02 1.00708E-21
1.87724E-02 9.46220E-22
1.93692E-02 8.89928E-22
1.99751E-02 8.37797E-22
2.05901E-02 7.89460E-22
2.12143E-02 7.44589E-22
2.18476E-02 7.02889E-22
2.24900E-02 6.64094E-22
2.31415E-02 6.27963E-22
2.38021E-02 5.94277E-22
2.44717E-02 5.62841E-22
2.51504E-02 5.33475E-22
2.58382E-02 5.06017E-22
2.65349E-02 4.80319E-22
2.72407E-02 4.56247E-22
2.79555E-02 4.33679E-22
2.86793E-02 4.12501E-22
2.94120E-02 3.92613E-22
3.01537E-02 3.73921E-22
3.09043E-02 3.56338E-22
3.16639E-02 3.39786E-22
3.24324E-02 3.24194E-22
3.32098E-02 3.09495E-22
3.39961E-02 2.95627E-22
3.47912E-02 2.82534E-22
3.55952E-02 2.70166E-22
3.64081E-02 2.58474E-22
3.72297E-02 2.47413E-22
3.80602E-02 2.36944E-22
3.88995E-02 2.27027E-22
3.97476E-02 2.17630E-22
4.06044E-02 2.08718E-22
4.14700E-02 2.00262E-22
4.23443E-02 1.92234E-22
4.32273E-02 1.84609E-22
4.41190E-02 1.77361E-22
4.50194E-02 1.70469E-22
4.59284E-02 1.63912E-22
4.68461E-02 1.57670E-22
4.87074E-02 1.46060E-22
5.06030E-02 1.35510E-22
5.25328E-02 1.25904E-22
5.44967E-02 1.17141E-22
5.64946E-02 1.09135E-22
5.85262E-02 1.01806E-22
6.05914E-02 9.50884E-23
6.26901E-02 8.89203E-23
6.48222E-02 8.32484E-23
6.69873E-02 7.80254E-23
6.91854E-02 7.32089E-23
7.14163E-02 6.87614E-23
7.36799E-02 6.46491E-23
7.59760E-02 6.08420E-23
7.83043E-02 5.73131E-23
8.06647E-02 5.40382E-23
8.30571E-02 5.09955E-23
8.54812E-02 4.81655E-23
8.79369E-02 4.55303E-23
9.04240E-02 4.30740E-23
9.29422E-02 4.07821E-23
9.54915E-02 3.86414E-23
9.80716E-02 3.66401E-23
1.00682E-01 3.47674E-23
1.03323E-01 3.30134E-23
1.05995E-01 3.13691E-23
1.08696E-01 2.98263E-23
1.11427E-01 2.83775E-23
1.14188E-01 2.70159E-23
1.16978E-01 2.57353E-23
1.19797E-01 2.45298E-23
1.22645E-01 2.33942E-23
1.25522E-01 2.23237E-23
1.28428E-01 2.13139E-23
1.31361E-01 2.03605E-23
1.34323E-01 1.94599E-23
1.37313E-01 1.86084E-23
1.40330E-01 1.78031E-23
1.43375E-01 1.70407E-23
1.46447E-01 1.63187E-23
1.49545E-01 1.56345E-23
1.52671E-01 1.49856E-23
1.55823E-01 1.43700E-23
1.59001E-01 1.37855E-23
1.62205E-01 1.32303E-23
1.65435E-01 1.27027E-23
1.68690E-01 1.22009E-23
1.71970E-01 1.17235E-23
1.75276E-01 1.12691E-23
1.78606E-01 1.08364E-23
1.81961E-01 1.04240E-23
1.85340E-01 1.00309E-23
1.88743E-01 9.65600E-24
1.92169E-01 9.29826E-24
1.95619E-01 8.95676E-24
1.99092E-01 8.63062E-24
2.02589E-01 8.31902E-24
2.06107E-01 8.02118E-24
2.09649E-01 7.73636E-24
2.13212E-01 7.46389E-24
2.16797E-01 7.20313E-24
2.20404E-01 6.95347E-24
2.24032E-01 6.71436E-24
2.27680E-01 6.48526E-24
2.31350E-01 6.26567E-24
2.35040E-01 6.05513E-24
2.38751E-01 5.85317E-24
2.42481E-01 5.65939E-24
2.46231E-01 5.47339E-24
2.50000E-01 5.29478E-24
2.53788E-01 5.12324E-24
2.57595E-01 4.95842E-24
2.61421E-01 4.80000E-24
2.65264E-01 4.64770E-24
2.69126E-01 4.50123E-24
2.73005E-01 4.36031E-24
2.76901E-01 4.22471E-24
2.80814E-01 4.09417E-24
2.84744E-01 3.96848E-24
2.88691E-01 3.84742E-24
2.92653E-01 3.73079E-24
2.96632E-01 3.61839E-24
3.00625E-01 3.51005E-24
3.04634E-01 3.40558E-24
3.08658E-01 3.30481E-24
3.12697E-01 3.20760E-24
3.16749E-01 3.11380E-24
3.20816E-01 3.02326E-24
3.24896E-01 2.93585E-24
3.28990E-01 2.85144E-24
3.33097E-01 2.76991E-24
3.37216E-01 2.69113E-24
3.41348E-01 2.61500E-24
3.45492E-01 2.54141E-24
3.49647E-01 2.47026E-24
3.53814E-01 2.40146E-24
3.57992E-01 2.33491E-24
3.62181E-01 2.27053E-24
3.66381E-01 2.20823E-24
3.70590E-01 2.14794E-24
3.74810E-01 2.08956E-24
3.79039E-01 2.03304E-24
3.83277E-01 1.97829E-24
3.87524E-01 1.92527E-24
3.91780E-01 1.87390E-24
3.96044E-01 1.82412E-24
4.00316E-01 1.77587E-24
4.04596E-01 1.72910E-24
4.08882E-01 1.68375E-24
4.13176E-01 1.63976E-24
4.17476E-01 1.59710E-24
4.21783E-01 1.55572E-24
4.26095E-01 1.51557E-24
4.30413E-01 1.47661E-24
4.34737E-01 1.43879E-24
4.39065E-01 1.40208E-24
4.43398E-01 1.36643E-24
4.47736E-01 1.33181E-24
4.52077E-01 1.29819E-24
4.56422E-01 1.26553E-24
4.60770E-01 1.23380E-24
4.65122E-01 1.20297E-24
4.69476E-01 1.17300E-24
4.73832E-01 1.14387E-24
4.78190E-01 1.11556E-24
4.82550E-01 1.08802E-24
4.86912E-01 1.06125E-24
4.91274E-01 1.03521E-24
4.95637E-01 1.00989E-24
5.00000E-01 9.85250E-25
5.04363E-01 9.61277E-25
5.08726E-01 9.37948E-25
5.13088E-01 9.15243E-25
5.17450E-01 8.93143E-25
5.21810E-01 8.71629E-25
5.26168E-01 8.50682E-25
5.30524E-01 8.30286E-25
5.34878E-01 8.10423E-25
5.39230E-01 7.91077E-25
5.43578E-01 7.72231E-25
5.47923E-01 7.53871E-25
5.52264E-01 7.35982E-25
5.56602E-01 7.18550E-25
5.60935E-01 7.01561E-25
5.65263E-01 6.85003E-25
5.69587E-01 6.68863E-25
5.73905E-01 6.53127E-25
5.78217E-01 6.37785E-25
5.82524E-01 6.22825E-25
5.86824E-01 6.08236E-25
5.91118E-01 5.94006E-25
5.95404E-01 5.80126E-25
5.99684E-01 5.66587E-25
6.03956E-01 5.53377E-25
6.08220E-01 5.40488E-25
6.12476E-01 5.27911E-25
6.16723E-01 5.15637E-25
6.20961E-01 5.03658E-25
6.25190E-01 4.91965E-25
6.29410E-01 4.80551E-25
6.33619E-01 4.69408E-25
6.37819E-01 4.58528E-25
6.42008E-01 4.47905E-25
6.46186E-01 4.37530E-25
6.50353E-01 4.27399E-25
6.54508E-01 4.17504E-25
6.58652E-01 4.07838E-25
6.62784E-01 3.98397E-25
6.66903E-01 3.89173E-25
6.71010E-01 3.80161E-25
6.75104E-01 3.71356E-25
6.79184E-01 3.62752E-25
6.83251E-01 3.54343E-25
6.87303E-01 3.46126E-25
6.91342E-01 3.38094E-25
6.95366E-01 3.30244E-25
6.99375E-01 3.22570E-25
7.03368E-01 3.15068E-25
7.07347E-01 3.07734E-25
7.11309E-01 3.00563E-25
7.15256E-01 2.93552E-25
7.19186E-01 2.86696E-25
7.23099E-01 2.79992E-25
7.26995E-01 2.73436E-25
7.30874E-01 2.67023E-25
7.34736E-01 2.60751E-25
7.38579E-01 2.54617E-25
7.42405E-01 2.48616E-25
7.46212E-01 2.42746E-25
7.50000E-01 2.37004E-25
7.53769E-01 2.31386E-25
7.57519E-01 2.25890E-25
7.61249E-01 2.20512E-25
7.64960E-01 2.15250E-25
7.68650E-01 2.10101E-25
7.72320E-01 2.05062E-25
7.75968E-01 2.00131E-25
7.79596E-01 1.95306E-25
7.83203E-01 1.90584E-25
7.86788E-01 1.85962E-25
7.90351E-01 1.81439E-25
7.93893E-01 1.77011E-25
7.97411E-01 1.72678E-25
8.00908E-01 1.68436E-25
8.04381E-01 1.64284E-25
8.07831E-01 1.60220E-25
8.11257E-01 1.56241E-25
8.14660E-01 1.52347E-25
8.18039E-01 1.48534E-25
8.21394E-01 1.44802E-25
8.24724E-01 1.41148E-25
8.28030E-01 1.37571E-25
8.31310E-01 1.34069E-25
8.34565E-01 1.30641E-25
8.37795E-01 1.27284E-25
8.40999E-01 1.23999E-25
8.44177E-01 1.20782E-25
8.47329E-01 1.17632E-25
8.50455E-01 1.14549E-25
8.53553E-01 1.11531E-25
8.56625E-01 1.08576E-25
8.59670E-01 1.05683E-25
8.62687E-01 1.02851E-25
8.65677E-01 1.00079E-25
8.68639E-01 9.73649E-26
8.71572E-01 9.47083E-26
8.74478E-01 9.21078E-26
8.77355E-01 8.95624E-26
8.80203E-01 8.70710E-26
8.83022E-01 8.46324E-26
8.85812E-01 8.22458E-26
8.88573E-01 7.99100E-26
8.91304E-01 7.76242E-26
8.94005E-01 7.53873E-26
8.96677E-01 7.31985E-26
8.99318E-01 7.10569E-26
9.01928E-01 6.89616E-26
9.04508E-01 6.69117E-26
9.07058E-01 6.49064E-26
9.09576E-01 6.29449E-26
9.12063E-01 6.10265E-26
9.14519E-01 5.91503E-26
9.16943E-01 5.73156E-26
9.19335E-01 5.55217E-26
9.21696E-01 5.37679E-26
9.24024E-01 5.20535E-26
9.26320E-01 5.03778E-26
9.28584E-01 4.87402E-26
9.30815E-01 4.71400E-26
9.33013E-01 4.55767E-26
9.35178E-01 4.40496E-26
9.37310E-01 4.25581E-26
9.39409E-01 4.11017E-26
9.41474E-01 3.96798E-26
9.43505E-01 3.82919E-26
9.45503E-01 3.69375E-26
9.47467E-01 3.56160E-26
9.49397E-01 3.43269E-26
9.51293E-01 3.30698E-26
9.53154E-01 3.18442E-26
9.54981E-01 3.06497E-26
9.56773E-01 2.94858E-26
9.58530E-01 2.83520E-26
9.60252E-01 2.72480E-26
9.61940E-01 2.61734E-26
9.63592E-01 2.51277E-26
9.65209E-01 2.41106E-26
9.66790E-01 2.31217E-26
9.68336E-01 2.21607E-26
9.69846E-01 2.12271E-26
9.71321E-01 2.03208E-26
9.72759E-01 1.94413E-26
9.74162E-01 1.85883E-26
9.75528E-01 1.77615E-26
9.76858E-01 1.69607E-26
9.78152E-01 1.61855E-26
9.79410E-01 1.54357E-26
9.80631E-01 1.47109E-26
9.81815E-01 1.40111E-26
9.82963E-01 1.33358E-26
9.84074E-01 1.26849E-26
9.85148E-01 1.20581E-26
9.86185E-01 1.14552E-26
9.87185E-01 1.08761E-26
9.88148E-01 1.03204E-26
9.89074E-01 9.78805E-27
9.89962E-01 9.27881E-27
9.90814E-01 8.79252E-27
9.91627E-01 8.32899E-27
9.92404E-01 7.88809E-27
9.93143E-01 7.46964E-27
9.93844E-01 7.07350E-27
9.94508E-01 6.69955E-27
9.95134E-01 6.34765E-27
9.95722E-01 6.01767E-27
9.96273E-01 5.70951E-27
9.96786E-01 5.42306E-27
9.97261E-01 5.15822E-27
9.97698E-01 4.91490E-27
9.98097E-01 4.69302E-27
9.98459E-01 4.49249E-27
9.98782E-01 4.31326E-27
9.99067E-01 4.15526E-27
9.99315E-01 4.01843E-27
9.99524E-01 3.90274E-27
9.99695E-01 3.80813E-27
9.99829E-01 3.73458E-27
9.99924E-01 3.68206E-27
9.99981E-01 3.65056E-27
1.00000E+00 3.64006E-27
