 #
 # Subroutine ELSEPA. Elastic scattering of electrons and positrons
 #                    by neutral atoms and positive ions
 #
 # Projectile: electron
 # Kinetic energy = 6.00000E+07 eV = 2.20496E+06 a.u.
 #
 # WARNING: High-energy factorization with free-atom DF screening.
 #          Absorption, polarization and exchange corrections are
 #          switched off.
 #          Phase shifts are calculated for the bare nucleus.
 #          Scattering amplitudes are not evaluated.
 #
 # Element: Sr,  Z =  38,  atomic weight = 8.76200E+01 g/mol
 #
 # Nuclear model: Fermi distribution
 #                Average radius = 4.75246E-13 cm
 #                Skin thickness = 5.46000E-14 cm
 #
 # Number of electrons = 38
 #
 # Total elastic cross section = 3.75954E-18 cm**2 = 1.34256E-01 a0**2
 # 1st transport cross section = 7.89566E-25 cm**2 = 2.81959E-08 a0**2
 # 2nd transport cross section = 2.32426E-24 cm**2 = 8.30009E-08 a0**2
 #
 #
 # Differential cross section:                       MU=(1-COS(THETA))/2
 #
 #  THETA        MU          DCS          DCS        Sherman      error
 #  (deg)                 (cm**2/sr)   (a0**2/sr)    function
 #----------------------------------------------------------------------
0.00000E+00 2.37362E-10
7.61557E-13 2.36865E-10
1.18994E-12 2.36587E-10
1.71346E-12 2.36247E-10
2.33225E-12 2.35847E-10
3.04617E-12 2.35386E-10
3.85530E-12 2.34866E-10
4.75964E-12 2.34286E-10
5.75917E-12 2.33648E-10
6.85391E-12 2.32953E-10
8.04379E-12 2.32200E-10
9.32893E-12 2.31392E-10
1.07092E-11 2.30528E-10
1.21847E-11 2.29610E-10
1.37554E-11 2.28640E-10
1.54213E-11 2.27617E-10
1.71823E-11 2.26543E-10
1.90386E-11 2.25420E-10
2.09900E-11 2.24249E-10
2.30367E-11 2.23030E-10
2.51785E-11 2.21766E-10
2.74156E-11 2.20457E-10
2.97478E-11 2.19105E-10
3.21752E-11 2.17712E-10
3.46979E-11 2.16278E-10
3.73157E-11 2.14805E-10
4.00286E-11 2.13295E-10
4.28368E-11 2.11750E-10
4.57402E-11 2.10170E-10
4.87388E-11 2.08558E-10
5.18325E-11 2.06915E-10
5.50215E-11 2.05241E-10
5.83057E-11 2.03540E-10
6.16850E-11 2.01813E-10
6.51595E-11 2.00074E-10
6.87293E-11 1.98313E-10
7.23943E-11 1.96527E-10
7.61544E-11 1.94716E-10
1.18991E-10 1.75760E-10
1.71347E-10 1.56305E-10
2.33223E-10 1.37461E-10
3.04617E-10 1.19986E-10
3.85531E-10 1.04305E-10
4.75965E-10 9.05850E-11
5.75917E-10 7.88064E-11
6.85389E-10 6.87758E-11
8.04380E-10 6.02882E-11
9.32891E-10 5.31239E-11
1.07092E-09 4.70726E-11
1.21847E-09 4.19455E-11
1.37554E-09 3.75803E-11
1.54213E-09 3.38408E-11
1.71823E-09 3.06151E-11
1.90386E-09 2.78126E-11
2.09900E-09 2.53587E-11
2.30367E-09 2.31947E-11
2.51785E-09 2.12741E-11
2.74156E-09 1.95597E-11
2.97478E-09 1.80215E-11
3.21752E-09 1.66349E-11
3.46978E-09 1.53801E-11
3.73156E-09 1.42408E-11
4.00286E-09 1.32032E-11
4.28368E-09 1.22545E-11
4.57402E-09 1.13864E-11
4.87388E-09 1.05910E-11
5.18326E-09 9.86118E-12
5.50215E-09 9.19072E-12
5.83057E-09 8.57412E-12
6.16850E-09 8.00648E-12
6.51596E-09 7.45841E-12
6.87293E-09 6.95236E-12
7.23942E-09 6.49482E-12
7.61544E-09 6.08022E-12
1.18991E-08 3.36746E-12
1.71347E-08 2.03515E-12
2.33223E-08 1.32085E-12
3.04617E-08 9.02514E-13
3.85531E-08 6.38728E-13
4.75965E-08 4.62966E-13
5.75917E-08 3.41412E-13
6.85389E-08 2.55820E-13
8.04380E-08 1.94476E-13
9.32891E-08 1.49880E-13
1.07092E-07 1.17043E-13
1.21847E-07 9.25703E-14
1.37554E-07 7.41121E-14
1.54213E-07 6.00311E-14
1.71823E-07 4.91416E-14
1.90386E-07 4.06346E-14
2.09900E-07 3.39186E-14
2.30367E-07 2.85592E-14
2.51785E-07 2.42368E-14
2.74156E-07 2.07157E-14
2.97478E-07 1.78207E-14
3.21752E-07 1.54206E-14
3.46978E-07 1.34158E-14
3.73156E-07 1.17297E-14
4.00286E-07 1.03026E-14
4.28368E-07 9.08705E-15
4.57402E-07 8.04622E-15
4.87388E-07 7.15038E-15
5.18325E-07 6.37555E-15
5.50215E-07 5.70241E-15
5.83057E-07 5.11526E-15
6.16850E-07 4.60123E-15
6.51596E-07 4.14753E-15
6.87293E-07 3.74866E-15
7.23942E-07 3.39794E-15
7.61543E-07 3.08800E-15
1.18991E-06 1.30901E-15
1.71347E-06 6.43008E-16
2.33223E-06 3.51346E-16
3.04617E-06 2.07933E-16
3.85531E-06 1.30862E-16
4.75964E-06 8.64590E-17
5.75916E-06 5.94110E-17
6.85388E-06 4.21681E-17
8.04378E-06 3.07526E-17
9.32888E-06 2.29517E-17
1.07092E-05 1.74742E-17
1.21846E-05 1.35369E-17
1.37553E-05 1.06480E-17
1.54212E-05 8.48971E-18
1.71822E-05 6.85121E-18
1.90385E-05 5.58858E-18
2.09899E-05 4.60517E-18
2.30365E-05 3.82852E-18
2.51783E-05 3.20852E-18
2.74153E-05 2.70879E-18
2.97475E-05 2.30249E-18
3.21749E-05 1.96954E-18
3.46974E-05 1.69468E-18
3.73152E-05 1.46619E-18
4.00281E-05 1.27499E-18
4.28362E-05 1.11399E-18
4.57395E-05 9.77610E-19
4.87380E-05 8.61454E-19
5.18317E-05 7.62022E-19
5.50205E-05 6.76511E-19
5.83045E-05 6.02657E-19
6.16838E-05 5.38614E-19
6.51582E-05 4.82864E-19
6.87277E-05 4.34154E-19
7.23925E-05 3.91441E-19
7.61524E-05 3.53926E-19
9.21439E-05 2.42011E-19
1.09658E-04 1.71043E-19
1.28695E-04 1.24299E-19
1.49255E-04 9.24892E-20
1.71338E-04 7.02425E-20
1.94942E-04 5.43028E-20
2.20070E-04 4.26418E-20
2.46720E-04 3.39520E-20
2.74892E-04 2.73687E-20
3.04586E-04 2.23081E-20
3.35803E-04 1.83658E-20
3.68542E-04 1.52581E-20
4.02802E-04 1.27814E-20
4.38585E-04 1.07881E-20
4.75889E-04 9.16906E-21
5.14715E-04 7.84302E-21
5.55063E-04 6.74860E-21
5.96931E-04 5.83883E-21
6.40321E-04 5.07754E-21
6.85233E-04 4.43656E-21
7.31665E-04 3.89375E-21
7.79618E-04 3.43161E-21
8.29092E-04 3.03614E-21
8.80086E-04 2.69614E-21
9.32601E-04 2.40250E-21
9.86636E-04 2.14783E-21
1.04219E-03 1.92609E-21
1.09927E-03 1.73230E-21
1.15786E-03 1.56231E-21
1.21797E-03 1.41272E-21
1.27961E-03 1.28064E-21
1.34276E-03 1.16367E-21
1.40743E-03 1.05979E-21
1.47362E-03 9.67259E-22
1.54133E-03 8.84631E-22
1.61056E-03 8.10662E-22
1.68131E-03 7.44278E-22
1.75357E-03 6.84566E-22
1.82735E-03 6.30737E-22
1.90265E-03 5.82106E-22
1.97947E-03 5.38083E-22
2.05780E-03 4.98154E-22
2.13765E-03 4.61867E-22
2.21902E-03 4.28832E-22
2.30190E-03 3.98705E-22
2.38630E-03 3.71182E-22
2.47222E-03 3.46000E-22
2.55965E-03 3.22921E-22
2.64859E-03 3.01738E-22
2.73905E-03 2.82270E-22
2.83103E-03 2.64346E-22
2.92452E-03 2.47830E-22
3.01952E-03 2.32583E-22
3.11604E-03 2.18495E-22
3.21407E-03 2.05459E-22
3.31362E-03 1.93383E-22
3.41468E-03 1.82183E-22
3.51725E-03 1.71783E-22
3.62133E-03 1.62117E-22
3.72692E-03 1.53122E-22
3.83403E-03 1.44744E-22
3.94265E-03 1.36932E-22
4.05278E-03 1.29641E-22
4.16442E-03 1.22829E-22
4.27757E-03 1.16460E-22
4.39223E-03 1.10499E-22
4.50840E-03 1.04915E-22
4.62608E-03 9.96800E-23
4.74527E-03 9.47679E-23
4.86597E-03 9.01551E-23
4.98817E-03 8.58200E-23
5.11188E-03 8.17426E-23
5.23711E-03 7.79049E-23
5.36383E-03 7.42900E-23
5.49207E-03 7.08826E-23
5.62181E-03 6.76686E-23
5.75306E-03 6.46348E-23
5.88581E-03 6.17693E-23
6.02007E-03 5.90610E-23
6.15583E-03 5.64997E-23
6.29310E-03 5.40757E-23
6.43187E-03 5.17805E-23
6.57214E-03 4.96059E-23
6.71392E-03 4.75442E-23
6.85720E-03 4.55886E-23
7.00198E-03 4.37325E-23
7.14827E-03 4.19700E-23
7.29605E-03 4.02954E-23
7.44534E-03 3.87035E-23
7.59612E-03 3.71894E-23
7.97965E-03 3.37157E-23
8.37255E-03 3.06381E-23
8.77480E-03 2.79036E-23
9.18641E-03 2.54672E-23
9.60736E-03 2.32907E-23
1.00376E-02 2.13414E-23
1.04773E-02 1.95916E-23
1.09262E-02 1.80171E-23
1.13844E-02 1.65972E-23
1.18520E-02 1.53142E-23
1.23288E-02 1.41524E-23
1.28150E-02 1.30983E-23
1.33104E-02 1.21402E-23
1.38150E-02 1.12677E-23
1.43290E-02 1.04719E-23
1.48521E-02 9.74481E-24
1.53845E-02 9.07938E-24
1.59262E-02 8.46947E-24
1.64770E-02 7.90961E-24
1.70371E-02 7.39495E-24
1.76063E-02 6.92118E-24
1.81848E-02 6.48447E-24
1.87724E-02 6.08139E-24
1.93692E-02 5.70888E-24
1.99751E-02 5.36421E-24
2.05901E-02 5.04492E-24
2.12143E-02 4.74880E-24
2.18476E-02 4.47387E-24
2.24900E-02 4.21833E-24
2.31415E-02 3.98056E-24
2.38021E-02 3.75912E-24
2.44717E-02 3.55266E-24
2.51504E-02 3.36000E-24
2.58382E-02 3.18005E-24
2.65349E-02 3.01181E-24
2.72407E-02 2.85438E-24
2.79555E-02 2.70695E-24
2.86793E-02 2.56877E-24
2.94120E-02 2.43914E-24
3.01537E-02 2.31744E-24
3.09043E-02 2.20311E-24
3.16639E-02 2.09561E-24
3.24324E-02 1.99446E-24
3.32098E-02 1.89922E-24
3.39961E-02 1.80948E-24
3.47912E-02 1.72487E-24
3.55952E-02 1.64504E-24
3.64081E-02 1.56967E-24
3.72297E-02 1.49846E-24
3.80602E-02 1.43116E-24
3.88995E-02 1.36750E-24
3.97476E-02 1.30725E-24
4.06044E-02 1.25019E-24
4.14700E-02 1.19613E-24
4.23443E-02 1.14489E-24
4.32273E-02 1.09628E-24
4.41190E-02 1.05015E-24
4.50194E-02 1.00635E-24
4.59284E-02 9.64736E-25
4.68461E-02 9.25188E-25
4.87074E-02 8.51806E-25
5.06030E-02 7.85330E-25
5.25328E-02 7.25003E-25
5.44967E-02 6.70161E-25
5.64946E-02 6.20223E-25
5.85262E-02 5.74679E-25
6.05914E-02 5.33078E-25
6.26901E-02 4.95024E-25
6.48222E-02 4.60164E-25
6.69873E-02 4.28187E-25
6.91854E-02 3.98816E-25
7.14163E-02 3.71804E-25
7.36799E-02 3.46931E-25
7.59760E-02 3.24001E-25
7.83043E-02 3.02838E-25
8.06647E-02 2.83284E-25
8.30571E-02 2.65198E-25
8.54812E-02 2.48452E-25
8.79369E-02 2.32932E-25
9.04240E-02 2.18534E-25
9.29422E-02 2.05163E-25
9.54915E-02 1.92737E-25
9.80716E-02 1.81177E-25
1.00682E-01 1.70415E-25
1.03323E-01 1.60386E-25
1.05995E-01 1.51034E-25
1.08696E-01 1.42306E-25
1.11427E-01 1.34155E-25
1.14188E-01 1.26536E-25
1.16978E-01 1.19410E-25
1.19797E-01 1.12741E-25
1.22645E-01 1.06495E-25
1.25522E-01 1.00640E-25
1.28428E-01 9.51506E-26
1.31361E-01 8.99991E-26
1.34323E-01 8.51624E-26
1.37313E-01 8.06185E-26
1.40330E-01 7.63473E-26
1.43375E-01 7.23303E-26
1.46447E-01 6.85502E-26
1.49545E-01 6.49913E-26
1.52671E-01 6.16389E-26
1.55823E-01 5.84795E-26
1.59001E-01 5.55006E-26
1.62205E-01 5.26905E-26
1.65435E-01 5.00384E-26
1.68690E-01 4.75345E-26
1.71970E-01 4.51693E-26
1.75276E-01 4.29343E-26
1.78606E-01 4.08214E-26
1.81961E-01 3.88231E-26
1.85340E-01 3.69325E-26
1.88743E-01 3.51432E-26
1.92169E-01 3.34490E-26
1.95619E-01 3.18444E-26
1.99092E-01 3.03240E-26
2.02589E-01 2.88830E-26
2.06107E-01 2.75167E-26
2.09649E-01 2.62209E-26
2.13212E-01 2.49915E-26
2.16797E-01 2.38248E-26
2.20404E-01 2.27171E-26
2.24032E-01 2.16654E-26
2.27680E-01 2.06663E-26
2.31350E-01 1.97170E-26
2.35040E-01 1.88149E-26
2.38751E-01 1.79572E-26
2.42481E-01 1.71417E-26
2.46231E-01 1.63660E-26
2.50000E-01 1.56280E-26
2.53788E-01 1.49257E-26
2.57595E-01 1.42572E-26
2.61421E-01 1.36208E-26
2.65264E-01 1.30148E-26
2.69126E-01 1.24375E-26
2.73005E-01 1.18876E-26
2.76901E-01 1.13635E-26
2.80814E-01 1.08641E-26
2.84744E-01 1.03879E-26
2.88691E-01 9.93397E-27
2.92653E-01 9.50104E-27
2.96632E-01 9.08810E-27
3.00625E-01 8.69415E-27
3.04634E-01 8.31826E-27
3.08658E-01 7.95953E-27
3.12697E-01 7.61711E-27
3.16749E-01 7.29023E-27
3.20816E-01 6.97811E-27
3.24896E-01 6.68005E-27
3.28990E-01 6.39536E-27
3.33097E-01 6.12341E-27
3.37216E-01 5.86359E-27
3.41348E-01 5.61532E-27
3.45492E-01 5.37805E-27
3.49647E-01 5.15127E-27
3.53814E-01 4.93449E-27
3.57992E-01 4.72722E-27
3.62181E-01 4.52904E-27
3.66381E-01 4.33952E-27
3.70590E-01 4.15826E-27
3.74810E-01 3.98487E-27
3.79039E-01 3.81901E-27
3.83277E-01 3.66031E-27
3.87524E-01 3.50846E-27
3.91780E-01 3.36314E-27
3.96044E-01 3.22407E-27
4.00316E-01 3.09095E-27
4.04596E-01 2.96351E-27
4.08882E-01 2.84152E-27
4.13176E-01 2.72471E-27
4.17476E-01 2.61286E-27
4.21783E-01 2.50575E-27
4.26095E-01 2.40317E-27
4.30413E-01 2.30491E-27
4.34737E-01 2.21080E-27
4.39065E-01 2.12064E-27
4.43398E-01 2.03426E-27
4.47736E-01 1.95150E-27
4.52077E-01 1.87220E-27
4.56422E-01 1.79621E-27
4.60770E-01 1.72339E-27
4.65122E-01 1.65359E-27
4.69476E-01 1.58670E-27
4.73832E-01 1.52257E-27
4.78190E-01 1.46110E-27
4.82550E-01 1.40217E-27
4.86912E-01 1.34567E-27
4.91274E-01 1.29150E-27
4.95637E-01 1.23956E-27
5.00000E-01 1.18975E-27
5.04363E-01 1.14199E-27
5.08726E-01 1.09618E-27
5.13088E-01 1.05225E-27
5.17450E-01 1.01011E-27
5.21810E-01 9.69697E-28
5.26168E-01 9.30928E-28
5.30524E-01 8.93738E-28
5.34878E-01 8.58061E-28
5.39230E-01 8.23833E-28
5.43578E-01 7.90993E-28
5.47923E-01 7.59485E-28
5.52264E-01 7.29253E-28
5.56602E-01 7.00244E-28
5.60935E-01 6.72407E-28
5.65263E-01 6.45694E-28
5.69587E-01 6.20058E-28
5.73905E-01 5.95454E-28
5.78217E-01 5.71841E-28
5.82524E-01 5.49178E-28
5.86824E-01 5.27425E-28
5.91118E-01 5.06546E-28
5.95404E-01 4.86503E-28
5.99684E-01 4.67264E-28
6.03956E-01 4.48796E-28
6.08220E-01 4.31066E-28
6.12476E-01 4.14045E-28
6.16723E-01 3.97703E-28
6.20961E-01 3.82014E-28
6.25190E-01 3.66951E-28
6.29410E-01 3.52488E-28
6.33619E-01 3.38601E-28
6.37819E-01 3.25266E-28
6.42008E-01 3.12462E-28
6.46186E-01 3.00167E-28
6.50353E-01 2.88360E-28
6.54508E-01 2.77021E-28
6.58652E-01 2.66132E-28
6.62784E-01 2.55675E-28
6.66903E-01 2.45632E-28
6.71010E-01 2.35986E-28
6.75104E-01 2.26722E-28
6.79184E-01 2.17824E-28
6.83251E-01 2.09278E-28
6.87303E-01 2.01069E-28
6.91342E-01 1.93184E-28
6.95366E-01 1.85610E-28
6.99375E-01 1.78334E-28
7.03368E-01 1.71345E-28
7.07347E-01 1.64631E-28
7.11309E-01 1.58181E-28
7.15256E-01 1.51985E-28
7.19186E-01 1.46033E-28
7.23099E-01 1.40314E-28
7.26995E-01 1.34819E-28
7.30874E-01 1.29540E-28
7.34736E-01 1.24468E-28
7.38579E-01 1.19595E-28
7.42405E-01 1.14912E-28
7.46212E-01 1.10413E-28
7.50000E-01 1.06090E-28
7.53769E-01 1.01936E-28
7.57519E-01 9.79438E-29
7.61249E-01 9.41078E-29
7.64960E-01 9.04214E-29
7.68650E-01 8.68787E-29
7.72320E-01 8.34742E-29
7.75968E-01 8.02022E-29
7.79596E-01 7.70576E-29
7.83203E-01 7.40353E-29
7.86788E-01 7.11306E-29
7.90351E-01 6.83387E-29
7.93893E-01 6.56552E-29
7.97411E-01 6.30758E-29
8.00908E-01 6.05965E-29
8.04381E-01 5.82133E-29
8.07831E-01 5.59223E-29
8.11257E-01 5.37200E-29
8.14660E-01 5.16030E-29
8.18039E-01 4.95677E-29
8.21394E-01 4.76111E-29
8.24724E-01 4.57299E-29
8.28030E-01 4.39214E-29
8.31310E-01 4.21825E-29
8.34565E-01 4.05107E-29
8.37795E-01 3.89032E-29
8.40999E-01 3.73575E-29
8.44177E-01 3.58712E-29
8.47329E-01 3.44420E-29
8.50455E-01 3.30677E-29
8.53553E-01 3.17461E-29
8.56625E-01 3.04752E-29
8.59670E-01 2.92529E-29
8.62687E-01 2.80774E-29
8.65677E-01 2.69468E-29
8.68639E-01 2.58595E-29
8.71572E-01 2.48136E-29
8.74478E-01 2.38077E-29
8.77355E-01 2.28402E-29
8.80203E-01 2.19095E-29
8.83022E-01 2.10142E-29
8.85812E-01 2.01531E-29
8.88573E-01 1.93246E-29
8.91304E-01 1.85277E-29
8.94005E-01 1.77610E-29
8.96677E-01 1.70235E-29
8.99318E-01 1.63139E-29
9.01928E-01 1.56312E-29
9.04508E-01 1.49744E-29
9.07058E-01 1.43424E-29
9.09576E-01 1.37344E-29
9.12063E-01 1.31495E-29
9.14519E-01 1.25866E-29
9.16943E-01 1.20450E-29
9.19335E-01 1.15239E-29
9.21696E-01 1.10226E-29
9.24024E-01 1.05401E-29
9.26320E-01 1.00759E-29
9.28584E-01 9.62932E-30
9.30815E-01 9.19958E-30
9.33013E-01 8.78611E-30
9.35178E-01 8.38829E-30
9.37310E-01 8.00554E-30
9.39409E-01 7.63729E-30
9.41474E-01 7.28302E-30
9.43505E-01 6.94220E-30
9.45503E-01 6.61434E-30
9.47467E-01 6.29896E-30
9.49397E-01 5.99562E-30
9.51293E-01 5.70387E-30
9.53154E-01 5.42329E-30
9.54981E-01 5.15348E-30
9.56773E-01 4.89406E-30
9.58530E-01 4.64465E-30
9.60252E-01 4.40490E-30
9.61940E-01 4.17448E-30
9.63592E-01 3.95305E-30
9.65209E-01 3.74031E-30
9.66790E-01 3.53594E-30
9.68336E-01 3.33968E-30
9.69846E-01 3.15124E-30
9.71321E-01 2.97036E-30
9.72759E-01 2.79679E-30
9.74162E-01 2.63030E-30
9.75528E-01 2.47064E-30
9.76858E-01 2.31759E-30
9.78152E-01 2.17096E-30
9.79410E-01 2.03054E-30
9.80631E-01 1.89613E-30
9.81815E-01 1.76755E-30
9.82963E-01 1.64464E-30
9.84074E-01 1.52721E-30
9.85148E-01 1.41512E-30
9.86185E-01 1.30820E-30
9.87185E-01 1.20633E-30
9.88148E-01 1.10935E-30
9.89074E-01 1.01715E-30
9.89962E-01 9.29596E-31
9.90814E-01 8.46572E-31
9.91627E-01 7.67969E-31
9.92404E-01 6.93683E-31
9.93143E-01 6.23615E-31
9.93844E-01 5.57673E-31
9.94508E-01 4.95769E-31
9.95134E-01 4.37823E-31
9.95722E-01 3.83758E-31
9.96273E-01 3.33504E-31
9.96786E-01 2.86994E-31
9.97261E-01 2.44168E-31
9.97698E-01 2.04970E-31
9.98097E-01 1.69348E-31
9.98459E-01 1.37258E-31
9.98782E-01 1.08656E-31
9.99067E-01 8.35049E-32
9.99315E-01 6.17733E-32
9.99524E-01 4.34324E-32
9.99695E-01 2.84585E-32
9.99829E-01 1.68322E-32
9.99924E-01 8.53836E-33
9.99981E-01 3.56638E-33
1.00000E+00 1.90976E-33
