 #
 # Subroutine ELSEPA. Elastic scattering of electrons and positrons
 #                    by neutral atoms and positive ions
 #
 # Projectile: positron
 # Kinetic energy = 2.00000E+06 eV = 7.34987E+04 a.u.
 #
 # WARNING: High-energy factorization with free-atom DF screening.
 #          Absorption, polarization and exchange corrections are
 #          switched off.
 #          Phase shifts are calculated for the bare nucleus.
 #          Scattering amplitudes are not evaluated.
 #
 # Element: Tc,  Z =  43,  atomic weight = 9.89063E+01 g/mol
 #
 # Nuclear model: Fermi distribution
 #                Average radius = 4.94833E-13 cm
 #                Skin thickness = 5.46000E-14 cm
 #
 # Number of electrons = 43
 #
 # Total elastic cross section = 4.28722E-18 cm**2 = 1.53099E-01 a0**2
 # 1st transport cross section = 3.56820E-22 cm**2 = 1.27423E-05 a0**2
 # 2nd transport cross section = 1.01739E-21 cm**2 = 3.63316E-05 a0**2
 #
 #
 # Differential cross section:                       MU=(1-COS(THETA))/2
 #
 #  THETA        MU          DCS          DCS        Sherman      error
 #  (deg)                 (cm**2/sr)   (a0**2/sr)    function
 #----------------------------------------------------------------------
0.00000E+00 2.30942E-13
7.61557E-13 2.30941E-13
1.18994E-12 2.30941E-13
1.71346E-12 2.30941E-13
2.33225E-12 2.30940E-13
3.04617E-12 2.30940E-13
3.85530E-12 2.30940E-13
4.75964E-12 2.30939E-13
5.75917E-12 2.30938E-13
6.85391E-12 2.30938E-13
8.04379E-12 2.30937E-13
9.32893E-12 2.30936E-13
1.07092E-11 2.30936E-13
1.21847E-11 2.30935E-13
1.37554E-11 2.30934E-13
1.54213E-11 2.30933E-13
1.71823E-11 2.30932E-13
1.90386E-11 2.30931E-13
2.09900E-11 2.30930E-13
2.30367E-11 2.30929E-13
2.51785E-11 2.30928E-13
2.74156E-11 2.30927E-13
2.97478E-11 2.30926E-13
3.21752E-11 2.30924E-13
3.46979E-11 2.30923E-13
3.73157E-11 2.30922E-13
4.00286E-11 2.30920E-13
4.28368E-11 2.30919E-13
4.57402E-11 2.30917E-13
4.87388E-11 2.30915E-13
5.18325E-11 2.30914E-13
5.50215E-11 2.30912E-13
5.83057E-11 2.30910E-13
6.16850E-11 2.30909E-13
6.51595E-11 2.30907E-13
6.87293E-11 2.30905E-13
7.23943E-11 2.30903E-13
7.61544E-11 2.30901E-13
1.18991E-10 2.30879E-13
1.71347E-10 2.30852E-13
2.33223E-10 2.30820E-13
3.04617E-10 2.30783E-13
3.85531E-10 2.30741E-13
4.75965E-10 2.30694E-13
5.75917E-10 2.30643E-13
6.85389E-10 2.30587E-13
8.04380E-10 2.30526E-13
9.32891E-10 2.30460E-13
1.07092E-09 2.30389E-13
1.21847E-09 2.30314E-13
1.37554E-09 2.30234E-13
1.54213E-09 2.30149E-13
1.71823E-09 2.30059E-13
1.90386E-09 2.29965E-13
2.09900E-09 2.29865E-13
2.30367E-09 2.29761E-13
2.51785E-09 2.29653E-13
2.74156E-09 2.29539E-13
2.97478E-09 2.29421E-13
3.21752E-09 2.29298E-13
3.46978E-09 2.29171E-13
3.73156E-09 2.29039E-13
4.00286E-09 2.28902E-13
4.28368E-09 2.28761E-13
4.57402E-09 2.28615E-13
4.87388E-09 2.28464E-13
5.18326E-09 2.28309E-13
5.50215E-09 2.28150E-13
5.83057E-09 2.27985E-13
6.16850E-09 2.27817E-13
6.51596E-09 2.27643E-13
6.87293E-09 2.27466E-13
7.23942E-09 2.27283E-13
7.61544E-09 2.27097E-13
1.18991E-08 2.24991E-13
1.71347E-08 2.22465E-13
2.33223E-08 2.19547E-13
3.04617E-08 2.16266E-13
3.85531E-08 2.12653E-13
4.75965E-08 2.08735E-13
5.75917E-08 2.04576E-13
6.85389E-08 2.00172E-13
8.04380E-08 1.95595E-13
9.32891E-08 1.90854E-13
1.07092E-07 1.85997E-13
1.21847E-07 1.81056E-13
1.37554E-07 1.76045E-13
1.54213E-07 1.71027E-13
1.71823E-07 1.65972E-13
1.90386E-07 1.60973E-13
2.09900E-07 1.55973E-13
2.30367E-07 1.51062E-13
2.51785E-07 1.46203E-13
2.74156E-07 1.41442E-13
2.97478E-07 1.36778E-13
3.21752E-07 1.32211E-13
3.46978E-07 1.27777E-13
3.73156E-07 1.23434E-13
4.00286E-07 1.19252E-13
4.28368E-07 1.15151E-13
4.57402E-07 1.11214E-13
4.87388E-07 1.07378E-13
5.18325E-07 1.03688E-13
5.50215E-07 1.00117E-13
5.83057E-07 9.66690E-14
6.16850E-07 9.33555E-14
6.51596E-07 9.01421E-14
6.87293E-07 8.70747E-14
7.23942E-07 8.40848E-14
7.61543E-07 8.12376E-14
1.18991E-06 5.79108E-14
1.71347E-06 4.19649E-14
2.33223E-06 3.08718E-14
3.04617E-06 2.30307E-14
3.85531E-06 1.73713E-14
4.75964E-06 1.31394E-14
5.75916E-06 1.02721E-14
6.85388E-06 8.02038E-15
8.04378E-06 6.38458E-15
9.32888E-06 5.13297E-15
1.07092E-05 4.17479E-15
1.21846E-05 3.44020E-15
1.37553E-05 2.85883E-15
1.54212E-05 2.40642E-15
1.71822E-05 2.03827E-15
1.90385E-05 1.74584E-15
2.09899E-05 1.50324E-15
2.30365E-05 1.30585E-15
2.51783E-05 1.13952E-15
2.74153E-05 1.00032E-15
2.97475E-05 8.82214E-16
3.21749E-05 7.80799E-16
3.46974E-05 6.94595E-16
3.73152E-05 6.18762E-16
4.00281E-05 5.54273E-16
4.28362E-05 4.96395E-16
4.57395E-05 4.46648E-16
4.87380E-05 4.02197E-16
5.18317E-05 3.63235E-16
5.50205E-05 3.28612E-16
5.83045E-05 2.97783E-16
6.16838E-05 2.70519E-16
6.51582E-05 2.45945E-16
6.87277E-05 2.24272E-16
7.23925E-05 2.04556E-16
7.61524E-05 1.87096E-16
9.21439E-05 1.32720E-16
1.09658E-04 9.64092E-17
1.28695E-04 7.16360E-17
1.49255E-04 5.43439E-17
1.71338E-04 4.19972E-17
1.94942E-04 3.29908E-17
2.20070E-04 2.62982E-17
2.46720E-04 2.12396E-17
2.74892E-04 1.73546E-17
3.04586E-04 1.43257E-17
3.35803E-04 1.19324E-17
3.68542E-04 1.00197E-17
4.02802E-04 8.47041E-18
4.38585E-04 7.21355E-18
4.75889E-04 6.18106E-18
5.14715E-04 5.32422E-18
5.55063E-04 4.61249E-18
5.96931E-04 4.01191E-18
6.40321E-04 3.50808E-18
6.85233E-04 3.07764E-18
7.31665E-04 2.71236E-18
7.79618E-04 2.39833E-18
8.29092E-04 2.12848E-18
8.80086E-04 1.89517E-18
9.32601E-04 1.69262E-18
9.86636E-04 1.51646E-18
1.04219E-03 1.36218E-18
1.09927E-03 1.22722E-18
1.15786E-03 1.10815E-18
1.21797E-03 1.00332E-18
1.27961E-03 9.10404E-19
1.34276E-03 8.28029E-19
1.40743E-03 7.54693E-19
1.47362E-03 6.89267E-19
1.54133E-03 6.30780E-19
1.61056E-03 5.78316E-19
1.68131E-03 5.31223E-19
1.75357E-03 4.88768E-19
1.82735E-03 4.50500E-19
1.90265E-03 4.15866E-19
1.97947E-03 3.84512E-19
2.05780E-03 3.56043E-19
2.13765E-03 3.30160E-19
2.21902E-03 3.06585E-19
2.30190E-03 2.85069E-19
2.38630E-03 2.65413E-19
2.47222E-03 2.47411E-19
2.55965E-03 2.30918E-19
2.64859E-03 2.15764E-19
2.73905E-03 2.01839E-19
2.83103E-03 1.89013E-19
2.92452E-03 1.77191E-19
3.01952E-03 1.66278E-19
3.11604E-03 1.56189E-19
3.21407E-03 1.46856E-19
3.31362E-03 1.38204E-19
3.41468E-03 1.30184E-19
3.51725E-03 1.22731E-19
3.62133E-03 1.15807E-19
3.72692E-03 1.09361E-19
3.83403E-03 1.03357E-19
3.94265E-03 9.77588E-20
4.05278E-03 9.25333E-20
4.16442E-03 8.76523E-20
4.27757E-03 8.30868E-20
4.39223E-03 7.88157E-20
4.50840E-03 7.48127E-20
4.62608E-03 7.10617E-20
4.74527E-03 6.75408E-20
4.86597E-03 6.42355E-20
4.98817E-03 6.11288E-20
5.11188E-03 5.82071E-20
5.23711E-03 5.54577E-20
5.36383E-03 5.28676E-20
5.49207E-03 5.04271E-20
5.62181E-03 4.81244E-20
5.75306E-03 4.59520E-20
5.88581E-03 4.38996E-20
6.02007E-03 4.19605E-20
6.15583E-03 4.01266E-20
6.29310E-03 3.83915E-20
6.43187E-03 3.67489E-20
6.57214E-03 3.51925E-20
6.71392E-03 3.37177E-20
6.85720E-03 3.23185E-20
7.00198E-03 3.09913E-20
7.14827E-03 2.97307E-20
7.29605E-03 2.85336E-20
7.44534E-03 2.73956E-20
7.59612E-03 2.63136E-20
7.97965E-03 2.38323E-20
8.37255E-03 2.16353E-20
8.77480E-03 1.96843E-20
9.18641E-03 1.79472E-20
9.60736E-03 1.63965E-20
1.00376E-02 1.50088E-20
1.04773E-02 1.37641E-20
1.09262E-02 1.26450E-20
1.13844E-02 1.16367E-20
1.18520E-02 1.07263E-20
1.23288E-02 9.90265E-21
1.28150E-02 9.15604E-21
1.33104E-02 8.47804E-21
1.38150E-02 7.86124E-21
1.43290E-02 7.29915E-21
1.48521E-02 6.78608E-21
1.53845E-02 6.31699E-21
1.59262E-02 5.88746E-21
1.64770E-02 5.49357E-21
1.70371E-02 5.13183E-21
1.76063E-02 4.79917E-21
1.81848E-02 4.49282E-21
1.87724E-02 4.21036E-21
1.93692E-02 3.94958E-21
1.99751E-02 3.70853E-21
2.05901E-02 3.48544E-21
2.12143E-02 3.27875E-21
2.18476E-02 3.08704E-21
2.24900E-02 2.90902E-21
2.31415E-02 2.74355E-21
2.38021E-02 2.58958E-21
2.44717E-02 2.44617E-21
2.51504E-02 2.31247E-21
2.58382E-02 2.18771E-21
2.65349E-02 2.07117E-21
2.72407E-02 1.96223E-21
2.79555E-02 1.86029E-21
2.86793E-02 1.76483E-21
2.94120E-02 1.67536E-21
3.01537E-02 1.59143E-21
3.09043E-02 1.51265E-21
3.16639E-02 1.43864E-21
3.24324E-02 1.36906E-21
3.32098E-02 1.30360E-21
3.39961E-02 1.24197E-21
3.47912E-02 1.18390E-21
3.55952E-02 1.12915E-21
3.64081E-02 1.07750E-21
3.72297E-02 1.02874E-21
3.80602E-02 9.82686E-22
3.88995E-02 9.39150E-22
3.97476E-02 8.97978E-22
4.06044E-02 8.59010E-22
4.14700E-02 8.22115E-22
4.23443E-02 7.87158E-22
4.32273E-02 7.54021E-22
4.41190E-02 7.22590E-22
4.50194E-02 6.92763E-22
4.59284E-02 6.64444E-22
4.68461E-02 6.37540E-22
4.87074E-02 5.87655E-22
5.06030E-02 5.42505E-22
5.25328E-02 5.01563E-22
5.44967E-02 4.64370E-22
5.64946E-02 4.30523E-22
5.85262E-02 3.99670E-22
6.05914E-02 3.71501E-22
6.26901E-02 3.45742E-22
6.48222E-02 3.22150E-22
6.69873E-02 3.00513E-22
6.91854E-02 2.80641E-22
7.14163E-02 2.62364E-22
7.36799E-02 2.45531E-22
7.59760E-02 2.30010E-22
7.83043E-02 2.15681E-22
8.06647E-02 2.02435E-22
8.30571E-02 1.90177E-22
8.54812E-02 1.78820E-22
8.79369E-02 1.68287E-22
9.04240E-02 1.58507E-22
9.29422E-02 1.49417E-22
9.54915E-02 1.40959E-22
9.80716E-02 1.33083E-22
1.00682E-01 1.25741E-22
1.03323E-01 1.18891E-22
1.05995E-01 1.12493E-22
1.08696E-01 1.06513E-22
1.11427E-01 1.00919E-22
1.14188E-01 9.56818E-23
1.16978E-01 9.07740E-23
1.19797E-01 8.61714E-23
1.22645E-01 8.18519E-23
1.25522E-01 7.77950E-23
1.28428E-01 7.39818E-23
1.31361E-01 7.03952E-23
1.34323E-01 6.70193E-23
1.37313E-01 6.38397E-23
1.40330E-01 6.08428E-23
1.43375E-01 5.80163E-23
1.46447E-01 5.53489E-23
1.49545E-01 5.28299E-23
1.52671E-01 5.04498E-23
1.55823E-01 4.81994E-23
1.59001E-01 4.60706E-23
1.62205E-01 4.40554E-23
1.65435E-01 4.21469E-23
1.68690E-01 4.03384E-23
1.71970E-01 3.86237E-23
1.75276E-01 3.69971E-23
1.78606E-01 3.54532E-23
1.81961E-01 3.39872E-23
1.85340E-01 3.25944E-23
1.88743E-01 3.12704E-23
1.92169E-01 3.00114E-23
1.95619E-01 2.88136E-23
1.99092E-01 2.76734E-23
2.02589E-01 2.65876E-23
2.06107E-01 2.55532E-23
2.09649E-01 2.45672E-23
2.13212E-01 2.36271E-23
2.16797E-01 2.27303E-23
2.20404E-01 2.18745E-23
2.24032E-01 2.10574E-23
2.27680E-01 2.02771E-23
2.31350E-01 1.95315E-23
2.35040E-01 1.88188E-23
2.38751E-01 1.81374E-23
2.42481E-01 1.74856E-23
2.46231E-01 1.68620E-23
2.50000E-01 1.62650E-23
2.53788E-01 1.56933E-23
2.57595E-01 1.51458E-23
2.61421E-01 1.46211E-23
2.65264E-01 1.41182E-23
2.69126E-01 1.36360E-23
2.73005E-01 1.31735E-23
2.76901E-01 1.27298E-23
2.80814E-01 1.23039E-23
2.84744E-01 1.18951E-23
2.88691E-01 1.15024E-23
2.92653E-01 1.11253E-23
2.96632E-01 1.07628E-23
3.00625E-01 1.04145E-23
3.04634E-01 1.00796E-23
3.08658E-01 9.75747E-24
3.12697E-01 9.44762E-24
3.16749E-01 9.14947E-24
3.20816E-01 8.86250E-24
3.24896E-01 8.58622E-24
3.28990E-01 8.32016E-24
3.33097E-01 8.06388E-24
3.37216E-01 7.81696E-24
3.41348E-01 7.57899E-24
3.45492E-01 7.34960E-24
3.49647E-01 7.12842E-24
3.53814E-01 6.91512E-24
3.57992E-01 6.70935E-24
3.62181E-01 6.51080E-24
3.66381E-01 6.31919E-24
3.70590E-01 6.13422E-24
3.74810E-01 5.95564E-24
3.79039E-01 5.78316E-24
3.83277E-01 5.61656E-24
3.87524E-01 5.45560E-24
3.91780E-01 5.30005E-24
3.96044E-01 5.14971E-24
4.00316E-01 5.00436E-24
4.04596E-01 4.86382E-24
4.08882E-01 4.72790E-24
4.13176E-01 4.59641E-24
4.17476E-01 4.46920E-24
4.21783E-01 4.34609E-24
4.26095E-01 4.22694E-24
4.30413E-01 4.11160E-24
4.34737E-01 3.99992E-24
4.39065E-01 3.89176E-24
4.43398E-01 3.78700E-24
4.47736E-01 3.68551E-24
4.52077E-01 3.58718E-24
4.56422E-01 3.49188E-24
4.60770E-01 3.39951E-24
4.65122E-01 3.30997E-24
4.69476E-01 3.22314E-24
4.73832E-01 3.13895E-24
4.78190E-01 3.05728E-24
4.82550E-01 2.97806E-24
4.86912E-01 2.90120E-24
4.91274E-01 2.82662E-24
4.95637E-01 2.75424E-24
5.00000E-01 2.68398E-24
5.04363E-01 2.61577E-24
5.08726E-01 2.54954E-24
5.13088E-01 2.48523E-24
5.17450E-01 2.42276E-24
5.21810E-01 2.36208E-24
5.26168E-01 2.30314E-24
5.30524E-01 2.24586E-24
5.34878E-01 2.19020E-24
5.39230E-01 2.13610E-24
5.43578E-01 2.08351E-24
5.47923E-01 2.03239E-24
5.52264E-01 1.98268E-24
5.56602E-01 1.93434E-24
5.60935E-01 1.88733E-24
5.65263E-01 1.84160E-24
5.69587E-01 1.79712E-24
5.73905E-01 1.75384E-24
5.78217E-01 1.71173E-24
5.82524E-01 1.67075E-24
5.86824E-01 1.63086E-24
5.91118E-01 1.59203E-24
5.95404E-01 1.55424E-24
5.99684E-01 1.51744E-24
6.03956E-01 1.48160E-24
6.08220E-01 1.44671E-24
6.12476E-01 1.41272E-24
6.16723E-01 1.37962E-24
6.20961E-01 1.34737E-24
6.25190E-01 1.31596E-24
6.29410E-01 1.28535E-24
6.33619E-01 1.25552E-24
6.37819E-01 1.22645E-24
6.42008E-01 1.19811E-24
6.46186E-01 1.17049E-24
6.50353E-01 1.14357E-24
6.54508E-01 1.11732E-24
6.58652E-01 1.09173E-24
6.62784E-01 1.06677E-24
6.66903E-01 1.04243E-24
6.71010E-01 1.01870E-24
6.75104E-01 9.95542E-25
6.79184E-01 9.72957E-25
6.83251E-01 9.50923E-25
6.87303E-01 9.29427E-25
6.91342E-01 9.08452E-25
6.95366E-01 8.87985E-25
6.99375E-01 8.68011E-25
7.03368E-01 8.48517E-25
7.07347E-01 8.29491E-25
7.11309E-01 8.10919E-25
7.15256E-01 7.92789E-25
7.19186E-01 7.75090E-25
7.23099E-01 7.57810E-25
7.26995E-01 7.40937E-25
7.30874E-01 7.24462E-25
7.34736E-01 7.08372E-25
7.38579E-01 6.92660E-25
7.42405E-01 6.77313E-25
7.46212E-01 6.62324E-25
7.50000E-01 6.47683E-25
7.53769E-01 6.33380E-25
7.57519E-01 6.19408E-25
7.61249E-01 6.05757E-25
7.64960E-01 5.92420E-25
7.68650E-01 5.79388E-25
7.72320E-01 5.66655E-25
7.75968E-01 5.54212E-25
7.79596E-01 5.42052E-25
7.83203E-01 5.30168E-25
7.86788E-01 5.18554E-25
7.90351E-01 5.07203E-25
7.93893E-01 4.96108E-25
7.97411E-01 4.85263E-25
8.00908E-01 4.74662E-25
8.04381E-01 4.64300E-25
8.07831E-01 4.54170E-25
8.11257E-01 4.44266E-25
8.14660E-01 4.34585E-25
8.18039E-01 4.25119E-25
8.21394E-01 4.15865E-25
8.24724E-01 4.06816E-25
8.28030E-01 3.97970E-25
8.31310E-01 3.89320E-25
8.34565E-01 3.80862E-25
8.37795E-01 3.72592E-25
8.40999E-01 3.64505E-25
8.44177E-01 3.56598E-25
8.47329E-01 3.48866E-25
8.50455E-01 3.41305E-25
8.53553E-01 3.33912E-25
8.56625E-01 3.26682E-25
8.59670E-01 3.19613E-25
8.62687E-01 3.12700E-25
8.65677E-01 3.05940E-25
8.68639E-01 2.99330E-25
8.71572E-01 2.92867E-25
8.74478E-01 2.86547E-25
8.77355E-01 2.80368E-25
8.80203E-01 2.74326E-25
8.83022E-01 2.68418E-25
8.85812E-01 2.62643E-25
8.88573E-01 2.56996E-25
8.91304E-01 2.51475E-25
8.94005E-01 2.46078E-25
8.96677E-01 2.40803E-25
8.99318E-01 2.35646E-25
9.01928E-01 2.30605E-25
9.04508E-01 2.25679E-25
9.07058E-01 2.20864E-25
9.09576E-01 2.16159E-25
9.12063E-01 2.11561E-25
9.14519E-01 2.07068E-25
9.16943E-01 2.02679E-25
9.19335E-01 1.98392E-25
9.21696E-01 1.94203E-25
9.24024E-01 1.90112E-25
9.26320E-01 1.86118E-25
9.28584E-01 1.82217E-25
9.30815E-01 1.78408E-25
9.33013E-01 1.74690E-25
9.35178E-01 1.71061E-25
9.37310E-01 1.67520E-25
9.39409E-01 1.64064E-25
9.41474E-01 1.60693E-25
9.43505E-01 1.57405E-25
9.45503E-01 1.54198E-25
9.47467E-01 1.51072E-25
9.49397E-01 1.48025E-25
9.51293E-01 1.45055E-25
9.53154E-01 1.42162E-25
9.54981E-01 1.39344E-25
9.56773E-01 1.36600E-25
9.58530E-01 1.33928E-25
9.60252E-01 1.31329E-25
9.61940E-01 1.28800E-25
9.63592E-01 1.26341E-25
9.65209E-01 1.23950E-25
9.66790E-01 1.21627E-25
9.68336E-01 1.19371E-25
9.69846E-01 1.17181E-25
9.71321E-01 1.15055E-25
9.72759E-01 1.12994E-25
9.74162E-01 1.10995E-25
9.75528E-01 1.09059E-25
9.76858E-01 1.07185E-25
9.78152E-01 1.05372E-25
9.79410E-01 1.03618E-25
9.80631E-01 1.01924E-25
9.81815E-01 1.00289E-25
9.82963E-01 9.87125E-26
9.84074E-01 9.71931E-26
9.85148E-01 9.57306E-26
9.86185E-01 9.43245E-26
9.87185E-01 9.29741E-26
9.88148E-01 9.16789E-26
9.89074E-01 9.04385E-26
9.89962E-01 8.92524E-26
9.90814E-01 8.81200E-26
9.91627E-01 8.70410E-26
9.92404E-01 8.60150E-26
9.93143E-01 8.50414E-26
9.93844E-01 8.41201E-26
9.94508E-01 8.32505E-26
9.95134E-01 8.24324E-26
9.95722E-01 8.16654E-26
9.96273E-01 8.09493E-26
9.96786E-01 8.02837E-26
9.97261E-01 7.96685E-26
9.97698E-01 7.91034E-26
9.98097E-01 7.85881E-26
9.98459E-01 7.81225E-26
9.98782E-01 7.77064E-26
9.99067E-01 7.73396E-26
9.99315E-01 7.70220E-26
9.99524E-01 7.67535E-26
9.99695E-01 7.65339E-26
9.99829E-01 7.63632E-26
9.99924E-01 7.62413E-26
9.99981E-01 7.61682E-26
1.00000E+00 7.61439E-26
