 #
 # Subroutine ELSEPA. Elastic scattering of electrons and positrons
 #                    by neutral atoms and positive ions
 #
 # Projectile: positron
 # Kinetic energy = 1.25000E+07 eV = 4.59367E+05 a.u.
 #
 # WARNING: High-energy factorization with free-atom DF screening.
 #          Absorption, polarization and exchange corrections are
 #          switched off.
 #          Phase shifts are calculated for the bare nucleus.
 #          Scattering amplitudes are not evaluated.
 #
 # Element: Tc,  Z =  43,  atomic weight = 9.89063E+01 g/mol
 #
 # Nuclear model: Fermi distribution
 #                Average radius = 4.94833E-13 cm
 #                Skin thickness = 5.46000E-14 cm
 #
 # Number of electrons = 43
 #
 # Total elastic cross section = 4.12307E-18 cm**2 = 1.47238E-01 a0**2
 # 1st transport cross section = 1.68628E-23 cm**2 = 6.02181E-07 a0**2
 # 2nd transport cross section = 4.88983E-23 cm**2 = 1.74619E-06 a0**2
 #
 #
 # Differential cross section:                       MU=(1-COS(THETA))/2
 #
 #  THETA        MU          DCS          DCS        Sherman      error
 #  (deg)                 (cm**2/sr)   (a0**2/sr)    function
 #----------------------------------------------------------------------
0.00000E+00 6.20056E-12
7.61557E-13 6.20026E-12
1.18994E-12 6.20009E-12
1.71346E-12 6.19989E-12
2.33225E-12 6.19965E-12
3.04617E-12 6.19937E-12
3.85530E-12 6.19906E-12
4.75964E-12 6.19871E-12
5.75917E-12 6.19832E-12
6.85391E-12 6.19790E-12
8.04379E-12 6.19744E-12
9.32893E-12 6.19695E-12
1.07092E-11 6.19642E-12
1.21847E-11 6.19585E-12
1.37554E-11 6.19524E-12
1.54213E-11 6.19460E-12
1.71823E-11 6.19393E-12
1.90386E-11 6.19322E-12
2.09900E-11 6.19247E-12
2.30367E-11 6.19168E-12
2.51785E-11 6.19086E-12
2.74156E-11 6.19000E-12
2.97478E-11 6.18911E-12
3.21752E-11 6.18818E-12
3.46979E-11 6.18722E-12
3.73157E-11 6.18621E-12
4.00286E-11 6.18518E-12
4.28368E-11 6.18410E-12
4.57402E-11 6.18299E-12
4.87388E-11 6.18185E-12
5.18325E-11 6.18067E-12
5.50215E-11 6.17945E-12
5.83057E-11 6.17820E-12
6.16850E-11 6.17691E-12
6.51595E-11 6.17558E-12
6.87293E-11 6.17422E-12
7.23943E-11 6.17283E-12
7.61544E-11 6.17140E-12
1.18991E-10 6.15514E-12
1.71347E-10 6.13539E-12
2.33223E-10 6.11219E-12
3.04617E-10 6.08563E-12
3.85531E-10 6.05578E-12
4.75965E-10 6.02274E-12
5.75917E-10 5.98660E-12
6.85389E-10 5.94748E-12
8.04380E-10 5.90548E-12
9.32891E-10 5.86072E-12
1.07092E-09 5.81333E-12
1.21847E-09 5.76345E-12
1.37554E-09 5.71117E-12
1.54213E-09 5.65648E-12
1.71823E-09 5.59983E-12
1.90386E-09 5.54139E-12
2.09900E-09 5.48130E-12
2.30367E-09 5.41908E-12
2.51785E-09 5.35545E-12
2.74156E-09 5.29063E-12
2.97478E-09 5.22477E-12
3.21752E-09 5.15742E-12
3.46978E-09 5.08903E-12
3.73156E-09 5.02003E-12
4.00286E-09 4.95056E-12
4.28368E-09 4.88027E-12
4.57402E-09 4.80921E-12
4.87388E-09 4.73805E-12
5.18326E-09 4.66690E-12
5.50215E-09 4.59562E-12
5.83057E-09 4.52371E-12
6.16850E-09 4.45213E-12
6.51596E-09 4.38097E-12
6.87293E-09 4.31029E-12
7.23942E-09 4.23904E-12
7.61544E-09 4.16845E-12
1.18991E-08 3.49804E-12
1.71347E-08 2.91169E-12
2.33223E-08 2.41982E-12
3.04617E-08 2.01587E-12
3.85531E-08 1.68528E-12
4.75965E-08 1.41554E-12
5.75917E-08 1.19459E-12
6.85389E-08 1.01222E-12
8.04380E-08 8.61463E-13
9.32891E-08 7.35969E-13
1.07092E-07 6.31022E-13
1.21847E-07 5.43087E-13
1.37554E-07 4.68298E-13
1.54213E-07 4.02193E-13
1.71823E-07 3.48840E-13
1.90386E-07 3.05350E-13
2.09900E-07 2.69569E-13
2.30367E-07 2.35844E-13
2.51785E-07 2.07451E-13
2.74156E-07 1.83731E-13
2.97478E-07 1.63771E-13
3.21752E-07 1.45810E-13
3.46978E-07 1.30099E-13
3.73156E-07 1.16692E-13
4.00286E-07 1.05186E-13
4.28368E-07 9.49998E-14
4.57402E-07 8.58967E-14
4.87388E-07 7.79877E-14
5.18325E-07 7.10848E-14
5.50215E-07 6.49744E-14
5.83057E-07 5.94206E-14
6.16850E-07 5.45227E-14
6.51596E-07 5.01875E-14
6.87293E-07 4.63344E-14
7.23942E-07 4.27634E-14
7.61543E-07 3.95756E-14
1.18991E-06 1.99711E-14
1.71347E-06 1.11501E-14
2.33223E-06 6.62250E-15
3.04617E-06 4.13035E-15
3.85531E-06 2.68659E-15
4.75964E-06 1.81806E-15
5.75916E-06 1.27484E-15
6.85388E-06 9.21367E-16
8.04378E-06 6.83464E-16
9.32888E-06 5.18449E-16
1.07092E-05 4.00836E-16
1.21846E-05 3.14961E-16
1.37553E-05 2.50893E-16
1.54212E-05 2.02264E-16
1.71822E-05 1.64945E-16
1.90385E-05 1.35787E-16
2.09899E-05 1.12768E-16
2.30365E-05 9.44487E-17
2.51783E-05 7.96092E-17
2.74153E-05 6.75767E-17
2.97475E-05 5.77059E-17
3.21749E-05 4.95585E-17
3.46974E-05 4.28045E-17
3.73152E-05 3.71444E-17
4.00281E-05 3.23954E-17
4.28362E-05 2.83765E-17
4.57395E-05 2.49602E-17
4.87380E-05 2.20428E-17
5.18317E-05 1.95347E-17
5.50205E-05 1.73742E-17
5.83045E-05 1.55028E-17
6.16838E-05 1.38768E-17
6.51582E-05 1.24590E-17
6.87277E-05 1.12173E-17
7.23925E-05 1.01273E-17
7.61524E-05 9.16632E-18
9.21439E-05 6.29602E-18
1.09658E-04 4.46662E-18
1.28695E-04 3.25666E-18
1.49255E-04 2.43005E-18
1.71338E-04 1.84997E-18
1.94942E-04 1.43306E-18
2.20070E-04 1.12720E-18
2.46720E-04 8.98709E-19
2.74892E-04 7.25229E-19
3.04586E-04 5.91614E-19
3.35803E-04 4.87355E-19
3.68542E-04 4.05052E-19
4.02802E-04 3.39381E-19
4.38585E-04 2.86473E-19
4.75889E-04 2.43465E-19
5.14715E-04 2.08216E-19
5.55063E-04 1.79110E-19
5.96931E-04 1.54905E-19
6.40321E-04 1.34646E-19
6.85233E-04 1.17585E-19
7.31665E-04 1.03137E-19
7.79618E-04 9.08367E-20
8.29092E-04 8.03119E-20
8.80086E-04 7.12648E-20
9.32601E-04 6.34536E-20
9.86636E-04 5.66810E-20
1.04219E-03 5.07863E-20
1.09927E-03 4.56364E-20
1.15786E-03 4.11215E-20
1.21797E-03 3.71499E-20
1.27961E-03 3.36451E-20
1.34276E-03 3.05431E-20
1.40743E-03 2.77894E-20
1.47362E-03 2.53384E-20
1.54133E-03 2.31510E-20
1.61056E-03 2.11941E-20
1.68131E-03 1.94390E-20
1.75357E-03 1.78614E-20
1.82735E-03 1.64402E-20
1.90265E-03 1.51571E-20
1.97947E-03 1.39965E-20
2.05780E-03 1.29445E-20
2.13765E-03 1.19893E-20
2.21902E-03 1.11203E-20
2.30190E-03 1.03283E-20
2.38630E-03 9.60545E-21
2.47222E-03 8.94452E-21
2.55965E-03 8.33929E-21
2.64859E-03 7.78423E-21
2.73905E-03 7.27445E-21
2.83103E-03 6.80558E-21
2.92452E-03 6.37376E-21
3.01952E-03 5.97553E-21
3.11604E-03 5.60783E-21
3.21407E-03 5.26787E-21
3.31362E-03 4.95321E-21
3.41468E-03 4.66160E-21
3.51725E-03 4.39107E-21
3.62133E-03 4.13981E-21
3.72692E-03 3.90620E-21
3.83403E-03 3.68878E-21
3.94265E-03 3.48622E-21
4.05278E-03 3.29732E-21
4.16442E-03 3.12100E-21
4.27757E-03 2.95626E-21
4.39223E-03 2.80220E-21
4.50840E-03 2.65801E-21
4.62608E-03 2.52294E-21
4.74527E-03 2.39630E-21
4.86597E-03 2.27748E-21
4.98817E-03 2.16591E-21
5.11188E-03 2.06105E-21
5.23711E-03 1.96244E-21
5.36383E-03 1.86963E-21
5.49207E-03 1.78221E-21
5.62181E-03 1.69983E-21
5.75306E-03 1.62213E-21
5.88581E-03 1.54880E-21
6.02007E-03 1.47955E-21
6.15583E-03 1.41410E-21
6.29310E-03 1.35222E-21
6.43187E-03 1.29367E-21
6.57214E-03 1.23824E-21
6.71392E-03 1.18574E-21
6.85720E-03 1.13597E-21
7.00198E-03 1.08878E-21
7.14827E-03 1.04400E-21
7.29605E-03 1.00149E-21
7.44534E-03 9.61104E-22
7.59612E-03 9.22727E-22
7.97965E-03 8.34800E-22
8.37255E-03 7.57052E-22
8.77480E-03 6.88103E-22
9.18641E-03 6.26789E-22
9.60736E-03 5.72120E-22
1.00376E-02 5.23252E-22
1.04773E-02 4.79465E-22
1.09262E-02 4.40138E-22
1.13844E-02 4.04739E-22
1.18520E-02 3.72808E-22
1.23288E-02 3.43947E-22
1.28150E-02 3.17809E-22
1.33104E-02 2.94092E-22
1.38150E-02 2.72534E-22
1.43290E-02 2.52902E-22
1.48521E-02 2.34995E-22
1.53845E-02 2.18636E-22
1.59262E-02 2.03666E-22
1.64770E-02 1.89947E-22
1.70371E-02 1.77355E-22
1.76063E-02 1.65783E-22
1.81848E-02 1.55133E-22
1.87724E-02 1.45318E-22
1.93692E-02 1.36262E-22
1.99751E-02 1.27895E-22
2.05901E-02 1.20155E-22
2.12143E-02 1.12988E-22
2.18476E-02 1.06343E-22
2.24900E-02 1.00176E-22
2.31415E-02 9.44455E-23
2.38021E-02 8.91157E-23
2.44717E-02 8.41535E-23
2.51504E-02 7.95289E-23
2.58382E-02 7.52151E-23
2.65349E-02 7.11874E-23
2.72407E-02 6.74233E-23
2.79555E-02 6.39024E-23
2.86793E-02 6.06063E-23
2.94120E-02 5.75180E-23
3.01537E-02 5.46223E-23
3.09043E-02 5.19048E-23
3.16639E-02 4.93525E-23
3.24324E-02 4.69536E-23
3.32098E-02 4.46974E-23
3.39961E-02 4.25737E-23
3.47912E-02 4.05735E-23
3.55952E-02 3.86881E-23
3.64081E-02 3.69098E-23
3.72297E-02 3.52314E-23
3.80602E-02 3.36464E-23
3.88995E-02 3.21487E-23
3.97476E-02 3.07324E-23
4.06044E-02 2.93924E-23
4.14700E-02 2.81238E-23
4.23443E-02 2.69221E-23
4.32273E-02 2.57833E-23
4.41190E-02 2.47034E-23
4.50194E-02 2.36787E-23
4.59284E-02 2.27060E-23
4.68461E-02 2.17821E-23
4.87074E-02 2.00696E-23
5.06030E-02 1.85201E-23
5.25328E-02 1.71156E-23
5.44967E-02 1.58401E-23
5.64946E-02 1.46798E-23
5.85262E-02 1.36225E-23
6.05914E-02 1.26574E-23
6.26901E-02 1.17752E-23
6.48222E-02 1.09675E-23
6.69873E-02 1.02269E-23
6.91854E-02 9.54692E-24
7.14163E-02 8.92168E-24
7.36799E-02 8.34609E-24
7.59760E-02 7.81546E-24
7.83043E-02 7.32570E-24
8.06647E-02 6.87313E-24
8.30571E-02 6.45440E-24
8.54812E-02 6.06657E-24
8.79369E-02 5.70695E-24
9.04240E-02 5.37315E-24
9.29422E-02 5.06298E-24
9.54915E-02 4.77448E-24
9.80716E-02 4.50588E-24
1.00682E-01 4.25555E-24
1.03323E-01 4.02205E-24
1.05995E-01 3.80404E-24
1.08696E-01 3.60031E-24
1.11427E-01 3.40978E-24
1.14188E-01 3.23144E-24
1.16978E-01 3.06437E-24
1.19797E-01 2.90773E-24
1.22645E-01 2.76077E-24
1.25522E-01 2.62277E-24
1.28428E-01 2.49311E-24
1.31361E-01 2.37118E-24
1.34323E-01 2.25644E-24
1.37313E-01 2.14840E-24
1.40330E-01 2.04660E-24
1.43375E-01 1.95062E-24
1.46447E-01 1.86005E-24
1.49545E-01 1.77456E-24
1.52671E-01 1.69380E-24
1.55823E-01 1.61746E-24
1.59001E-01 1.54526E-24
1.62205E-01 1.47694E-24
1.65435E-01 1.41225E-24
1.68690E-01 1.35097E-24
1.71970E-01 1.29289E-24
1.75276E-01 1.23780E-24
1.78606E-01 1.18553E-24
1.81961E-01 1.13591E-24
1.85340E-01 1.08879E-24
1.88743E-01 1.04400E-24
1.92169E-01 1.00143E-24
1.95619E-01 9.60932E-25
1.99092E-01 9.22398E-25
2.02589E-01 8.85713E-25
2.06107E-01 8.50774E-25
2.09649E-01 8.17483E-25
2.13212E-01 7.85748E-25
2.16797E-01 7.55485E-25
2.20404E-01 7.26614E-25
2.24032E-01 6.99059E-25
2.27680E-01 6.72750E-25
2.31350E-01 6.47622E-25
2.35040E-01 6.23611E-25
2.38751E-01 6.00660E-25
2.42481E-01 5.78714E-25
2.46231E-01 5.57721E-25
2.50000E-01 5.37633E-25
2.53788E-01 5.18405E-25
2.57595E-01 4.99992E-25
2.61421E-01 4.82355E-25
2.65264E-01 4.65456E-25
2.69126E-01 4.49257E-25
2.73005E-01 4.33726E-25
2.76901E-01 4.18830E-25
2.80814E-01 4.04538E-25
2.84744E-01 3.90822E-25
2.88691E-01 3.77655E-25
2.92653E-01 3.65011E-25
2.96632E-01 3.52866E-25
3.00625E-01 3.41197E-25
3.04634E-01 3.29981E-25
3.08658E-01 3.19199E-25
3.12697E-01 3.08830E-25
3.16749E-01 2.98857E-25
3.20816E-01 2.89261E-25
3.24896E-01 2.80026E-25
3.28990E-01 2.71137E-25
3.33097E-01 2.62577E-25
3.37216E-01 2.54332E-25
3.41348E-01 2.46390E-25
3.45492E-01 2.38737E-25
3.49647E-01 2.31361E-25
3.53814E-01 2.24250E-25
3.57992E-01 2.17393E-25
3.62181E-01 2.10779E-25
3.66381E-01 2.04399E-25
3.70590E-01 1.98243E-25
3.74810E-01 1.92301E-25
3.79039E-01 1.86565E-25
3.83277E-01 1.81026E-25
3.87524E-01 1.75678E-25
3.91780E-01 1.70511E-25
3.96044E-01 1.65519E-25
4.00316E-01 1.60696E-25
4.04596E-01 1.56033E-25
4.08882E-01 1.51526E-25
4.13176E-01 1.47168E-25
4.17476E-01 1.42953E-25
4.21783E-01 1.38876E-25
4.26095E-01 1.34932E-25
4.30413E-01 1.31115E-25
4.34737E-01 1.27421E-25
4.39065E-01 1.23845E-25
4.43398E-01 1.20384E-25
4.47736E-01 1.17031E-25
4.52077E-01 1.13785E-25
4.56422E-01 1.10640E-25
4.60770E-01 1.07593E-25
4.65122E-01 1.04641E-25
4.69476E-01 1.01779E-25
4.73832E-01 9.90059E-26
4.78190E-01 9.63171E-26
4.82550E-01 9.37101E-26
4.86912E-01 9.11819E-26
4.91274E-01 8.87297E-26
4.95637E-01 8.63510E-26
5.00000E-01 8.40431E-26
5.04363E-01 8.18037E-26
5.08726E-01 7.96303E-26
5.13088E-01 7.75208E-26
5.17450E-01 7.54729E-26
5.21810E-01 7.34847E-26
5.26168E-01 7.15540E-26
5.30524E-01 6.96789E-26
5.34878E-01 6.78577E-26
5.39230E-01 6.60885E-26
5.43578E-01 6.43696E-26
5.47923E-01 6.26994E-26
5.52264E-01 6.10762E-26
5.56602E-01 5.94986E-26
5.60935E-01 5.79651E-26
5.65263E-01 5.64742E-26
5.69587E-01 5.50246E-26
5.73905E-01 5.36150E-26
5.78217E-01 5.22441E-26
5.82524E-01 5.09107E-26
5.86824E-01 4.96136E-26
5.91118E-01 4.83517E-26
5.95404E-01 4.71238E-26
5.99684E-01 4.59290E-26
6.03956E-01 4.47663E-26
6.08220E-01 4.36345E-26
6.12476E-01 4.25328E-26
6.16723E-01 4.14603E-26
6.20961E-01 4.04161E-26
6.25190E-01 3.93994E-26
6.29410E-01 3.84092E-26
6.33619E-01 3.74449E-26
6.37819E-01 3.65056E-26
6.42008E-01 3.55906E-26
6.46186E-01 3.46992E-26
6.50353E-01 3.38307E-26
6.54508E-01 3.29845E-26
6.58652E-01 3.21598E-26
6.62784E-01 3.13561E-26
6.66903E-01 3.05728E-26
6.71010E-01 2.98093E-26
6.75104E-01 2.90649E-26
6.79184E-01 2.83392E-26
6.83251E-01 2.76317E-26
6.87303E-01 2.69418E-26
6.91342E-01 2.62690E-26
6.95366E-01 2.56128E-26
6.99375E-01 2.49729E-26
7.03368E-01 2.43487E-26
7.07347E-01 2.37398E-26
7.11309E-01 2.31458E-26
7.15256E-01 2.25662E-26
7.19186E-01 2.20008E-26
7.23099E-01 2.14490E-26
7.26995E-01 2.09106E-26
7.30874E-01 2.03851E-26
7.34736E-01 1.98723E-26
7.38579E-01 1.93717E-26
7.42405E-01 1.88831E-26
7.46212E-01 1.84062E-26
7.50000E-01 1.79406E-26
7.53769E-01 1.74860E-26
7.57519E-01 1.70422E-26
7.61249E-01 1.66089E-26
7.64960E-01 1.61858E-26
7.68650E-01 1.57726E-26
7.72320E-01 1.53691E-26
7.75968E-01 1.49750E-26
7.79596E-01 1.45901E-26
7.83203E-01 1.42142E-26
7.86788E-01 1.38470E-26
7.90351E-01 1.34884E-26
7.93893E-01 1.31380E-26
7.97411E-01 1.27958E-26
8.00908E-01 1.24614E-26
8.04381E-01 1.21347E-26
8.07831E-01 1.18156E-26
8.11257E-01 1.15038E-26
8.14660E-01 1.11991E-26
8.18039E-01 1.09014E-26
8.21394E-01 1.06105E-26
8.24724E-01 1.03263E-26
8.28030E-01 1.00485E-26
8.31310E-01 9.77713E-27
8.34565E-01 9.51189E-27
8.37795E-01 9.25269E-27
8.40999E-01 8.99939E-27
8.44177E-01 8.75184E-27
8.47329E-01 8.50992E-27
8.50455E-01 8.27349E-27
8.53553E-01 8.04243E-27
8.56625E-01 7.81661E-27
8.59670E-01 7.59592E-27
8.62687E-01 7.38023E-27
8.65677E-01 7.16945E-27
8.68639E-01 6.96345E-27
8.71572E-01 6.76213E-27
8.74478E-01 6.56539E-27
8.77355E-01 6.37312E-27
8.80203E-01 6.18523E-27
8.83022E-01 6.00162E-27
8.85812E-01 5.82221E-27
8.88573E-01 5.64689E-27
8.91304E-01 5.47559E-27
8.94005E-01 5.30821E-27
8.96677E-01 5.14468E-27
8.99318E-01 4.98491E-27
9.01928E-01 4.82882E-27
9.04508E-01 4.67635E-27
9.07058E-01 4.52741E-27
9.09576E-01 4.38193E-27
9.12063E-01 4.23985E-27
9.14519E-01 4.10109E-27
9.16943E-01 3.96559E-27
9.19335E-01 3.83328E-27
9.21696E-01 3.70410E-27
9.24024E-01 3.57800E-27
9.26320E-01 3.45491E-27
9.28584E-01 3.33477E-27
9.30815E-01 3.21752E-27
9.33013E-01 3.10313E-27
9.35178E-01 2.99152E-27
9.37310E-01 2.88265E-27
9.39409E-01 2.77647E-27
9.41474E-01 2.67293E-27
9.43505E-01 2.57198E-27
9.45503E-01 2.47359E-27
9.47467E-01 2.37769E-27
9.49397E-01 2.28426E-27
9.51293E-01 2.19324E-27
9.53154E-01 2.10460E-27
9.54981E-01 2.01830E-27
9.56773E-01 1.93430E-27
9.58530E-01 1.85256E-27
9.60252E-01 1.77304E-27
9.61940E-01 1.69572E-27
9.63592E-01 1.62055E-27
9.65209E-01 1.54751E-27
9.66790E-01 1.47656E-27
9.68336E-01 1.40767E-27
9.69846E-01 1.34082E-27
9.71321E-01 1.27596E-27
9.72759E-01 1.21308E-27
9.74162E-01 1.15215E-27
9.75528E-01 1.09314E-27
9.76858E-01 1.03602E-27
9.78152E-01 9.80781E-28
9.79410E-01 9.27386E-28
9.80631E-01 8.75815E-28
9.81815E-01 8.26048E-28
9.82963E-01 7.78064E-28
9.84074E-01 7.31841E-28
9.85148E-01 6.87360E-28
9.86185E-01 6.44604E-28
9.87185E-01 6.03553E-28
9.88148E-01 5.64190E-28
9.89074E-01 5.26500E-28
9.89962E-01 4.90466E-28
9.90814E-01 4.56073E-28
9.91627E-01 4.23307E-28
9.92404E-01 3.92154E-28
9.93143E-01 3.62602E-28
9.93844E-01 3.34637E-28
9.94508E-01 3.08249E-28
9.95134E-01 2.83426E-28
9.95722E-01 2.60159E-28
9.96273E-01 2.38437E-28
9.96786E-01 2.18252E-28
9.97261E-01 1.99595E-28
9.97698E-01 1.82459E-28
9.98097E-01 1.66836E-28
9.98459E-01 1.52721E-28
9.98782E-01 1.40106E-28
9.99067E-01 1.28988E-28
9.99315E-01 1.19362E-28
9.99524E-01 1.11223E-28
9.99695E-01 1.04569E-28
9.99829E-01 9.93962E-29
9.99924E-01 9.57028E-29
9.99981E-01 9.34874E-29
1.00000E+00 9.27490E-29
