 #
 # Subroutine ELSEPA. Elastic scattering of electrons and positrons
 #                    by neutral atoms and positive ions
 #
 # Projectile: positron
 # Kinetic energy = 1.50000E+08 eV = 5.51240E+06 a.u.
 #
 # WARNING: High-energy factorization with free-atom DF screening.
 #          Absorption, polarization and exchange corrections are
 #          switched off.
 #          Phase shifts are calculated for the bare nucleus.
 #          Scattering amplitudes are not evaluated.
 #
 # Element: Tc,  Z =  43,  atomic weight = 9.89063E+01 g/mol
 #
 # Nuclear model: Fermi distribution
 #                Average radius = 4.94833E-13 cm
 #                Skin thickness = 5.46000E-14 cm
 #
 # Number of electrons = 43
 #
 # Total elastic cross section = 4.11746E-18 cm**2 = 1.47037E-01 a0**2
 # 1st transport cross section = 1.60152E-25 cm**2 = 5.71913E-09 a0**2
 # 2nd transport cross section = 4.78237E-25 cm**2 = 1.70781E-08 a0**2
 #
 #
 # Differential cross section:                       MU=(1-COS(THETA))/2
 #
 #  THETA        MU          DCS          DCS        Sherman      error
 #  (deg)                 (cm**2/sr)   (a0**2/sr)    function
 #----------------------------------------------------------------------
0.00000E+00 8.29748E-10
7.61557E-13 8.24534E-10
1.18994E-12 8.21631E-10
1.71346E-12 8.18109E-10
2.33225E-12 8.13983E-10
3.04617E-12 8.09269E-10
3.85530E-12 8.03987E-10
4.75964E-12 7.98157E-10
5.75917E-12 7.91803E-10
6.85391E-12 7.84949E-10
8.04379E-12 7.77621E-10
9.32893E-12 7.69846E-10
1.07092E-11 7.61635E-10
1.21847E-11 7.53027E-10
1.37554E-11 7.44082E-10
1.54213E-11 7.34834E-10
1.71823E-11 7.25229E-10
1.90386E-11 7.15357E-10
2.09900E-11 7.05277E-10
2.30367E-11 6.95001E-10
2.51785E-11 6.84458E-10
2.74156E-11 6.73795E-10
2.97478E-11 6.63042E-10
3.21752E-11 6.52149E-10
3.46979E-11 6.41137E-10
3.73157E-11 6.30113E-10
4.00286E-11 6.19099E-10
4.28368E-11 6.07974E-10
4.57402E-11 5.96875E-10
4.87388E-11 5.85848E-10
5.18325E-11 5.74879E-10
5.50215E-11 5.63869E-10
5.83057E-11 5.52983E-10
6.16850E-11 5.42235E-10
6.51595E-11 5.31534E-10
6.87293E-11 5.20909E-10
7.23943E-11 5.10457E-10
7.61544E-11 5.00185E-10
1.18991E-10 4.05200E-10
1.71347E-10 3.27081E-10
2.33223E-10 2.64743E-10
3.04617E-10 2.15435E-10
3.85531E-10 1.76336E-10
4.75965E-10 1.45227E-10
5.75917E-10 1.20302E-10
6.85389E-10 1.00179E-10
8.04380E-10 8.38243E-11
9.32891E-10 7.04835E-11
1.07092E-09 5.92230E-11
1.21847E-09 4.99146E-11
1.37554E-09 4.26078E-11
1.54213E-09 3.67982E-11
1.71823E-09 3.15868E-11
1.90386E-09 2.72446E-11
2.09900E-09 2.37141E-11
2.30367E-09 2.07839E-11
2.51785E-09 1.81620E-11
2.74156E-09 1.59855E-11
2.97478E-09 1.41647E-11
3.21752E-09 1.25886E-11
3.46978E-09 1.12129E-11
3.73156E-09 1.00423E-11
4.00286E-09 9.04016E-12
4.28368E-09 8.14666E-12
4.57402E-09 7.36924E-12
4.87388E-09 6.69454E-12
5.18326E-09 6.10192E-12
5.50215E-09 5.56600E-12
5.83057E-09 5.09549E-12
6.16850E-09 4.68073E-12
6.51596E-09 4.30520E-12
6.87293E-09 3.96539E-12
7.23942E-09 3.66312E-12
7.61544E-09 3.39336E-12
1.18991E-08 1.67878E-12
1.71347E-08 9.11153E-13
2.33223E-08 5.28105E-13
3.04617E-08 3.23891E-13
3.85531E-08 2.09122E-13
4.75965E-08 1.41207E-13
5.75917E-08 9.89592E-14
6.85389E-08 7.15490E-14
8.04380E-08 5.30930E-14
9.32891E-08 4.02539E-14
1.07092E-07 3.10608E-14
1.21847E-07 2.43742E-14
1.37554E-07 1.93696E-14
1.54213E-07 1.55882E-14
1.71823E-07 1.26847E-14
1.90386E-07 1.04158E-14
2.09900E-07 8.63130E-15
2.30367E-07 7.21210E-15
2.51785E-07 6.06954E-15
2.74156E-07 5.14370E-15
2.97478E-07 4.38763E-15
3.21752E-07 3.76457E-15
3.46978E-07 3.24790E-15
3.73156E-07 2.81694E-15
4.00286E-07 2.45494E-15
4.28368E-07 2.14911E-15
4.57402E-07 1.88954E-15
4.87388E-07 1.66801E-15
5.18325E-07 1.47793E-15
5.50215E-07 1.31424E-15
5.83057E-07 1.17266E-15
6.16850E-07 1.04958E-15
6.51596E-07 9.42292E-16
6.87293E-07 8.48403E-16
7.23942E-07 7.65910E-16
7.61543E-07 6.93225E-16
1.18991E-06 2.87666E-16
1.71347E-06 1.40023E-16
2.33223E-06 7.60816E-17
3.04617E-06 4.48070E-17
3.85531E-06 2.80666E-17
4.75964E-06 1.84591E-17
5.75916E-06 1.26302E-17
6.85388E-06 8.92939E-18
8.04378E-06 6.48926E-18
9.32888E-06 4.82806E-18
1.07092E-05 3.66569E-18
1.21846E-05 2.83282E-18
1.37553E-05 2.22348E-18
1.54212E-05 1.76944E-18
1.71822E-05 1.42554E-18
1.90385E-05 1.16101E-18
2.09899E-05 9.55472E-19
2.30365E-05 7.93403E-19
2.51783E-05 6.64196E-19
2.74153E-05 5.60178E-19
2.97475E-05 4.75708E-19
3.21749E-05 4.06565E-19
3.46974E-05 3.49548E-19
3.73152E-05 3.02200E-19
4.00281E-05 2.62615E-19
4.28362E-05 2.29309E-19
4.57395E-05 2.01117E-19
4.87380E-05 1.77120E-19
5.18317E-05 1.56590E-19
5.50205E-05 1.38944E-19
5.83045E-05 1.23712E-19
6.16838E-05 1.10511E-19
6.51582E-05 9.90257E-20
6.87277E-05 8.89956E-20
7.23925E-05 8.02047E-20
7.61524E-05 7.25055E-20
9.21439E-05 4.94984E-20
1.09658E-04 3.49300E-20
1.28695E-04 2.53474E-20
1.49255E-04 1.88339E-20
1.71338E-04 1.42840E-20
1.94942E-04 1.10275E-20
2.20070E-04 8.64773E-21
2.46720E-04 6.87616E-21
2.74892E-04 5.53538E-21
3.04586E-04 4.50578E-21
3.35803E-04 3.70449E-21
3.68542E-04 3.07347E-21
4.02802E-04 2.57108E-21
4.38585E-04 2.16711E-21
4.75889E-04 1.83934E-21
5.14715E-04 1.57114E-21
5.55063E-04 1.35001E-21
5.96931E-04 1.16637E-21
6.40321E-04 1.01285E-21
6.85233E-04 8.83726E-22
7.31665E-04 7.74484E-22
7.79618E-04 6.81569E-22
8.29092E-04 6.02137E-22
8.80086E-04 5.33914E-22
9.32601E-04 4.75054E-22
9.86636E-04 4.24060E-22
1.04219E-03 3.79704E-22
1.09927E-03 3.40977E-22
1.15786E-03 3.07045E-22
1.21797E-03 2.77213E-22
1.27961E-03 2.50902E-22
1.34276E-03 2.27626E-22
1.40743E-03 2.06974E-22
1.47362E-03 1.88601E-22
1.54133E-03 1.72211E-22
1.61056E-03 1.57554E-22
1.68131E-03 1.44415E-22
1.75357E-03 1.32609E-22
1.82735E-03 1.21978E-22
1.90265E-03 1.12384E-22
1.97947E-03 1.03708E-22
2.05780E-03 9.58484E-23
2.13765E-03 8.87137E-23
2.21902E-03 8.22257E-23
2.30190E-03 7.63154E-23
2.38630E-03 7.09224E-23
2.47222E-03 6.59934E-23
2.55965E-03 6.14816E-23
2.64859E-03 5.73453E-23
2.73905E-03 5.35479E-23
2.83103E-03 5.00566E-23
2.92452E-03 4.68424E-23
3.01952E-03 4.38794E-23
3.11604E-03 4.11445E-23
3.21407E-03 3.86171E-23
3.31362E-03 3.62786E-23
3.41468E-03 3.41124E-23
3.51725E-03 3.21036E-23
3.62133E-03 3.02386E-23
3.72692E-03 2.85054E-23
3.83403E-03 2.68930E-23
3.94265E-03 2.53914E-23
4.05278E-03 2.39918E-23
4.16442E-03 2.26859E-23
4.27757E-03 2.14663E-23
4.39223E-03 2.03264E-23
4.50840E-03 1.92600E-23
4.62608E-03 1.82615E-23
4.74527E-03 1.73259E-23
4.86597E-03 1.64484E-23
4.98817E-03 1.56248E-23
5.11188E-03 1.48512E-23
5.23711E-03 1.41241E-23
5.36383E-03 1.34401E-23
5.49207E-03 1.27963E-23
5.62181E-03 1.21898E-23
5.75306E-03 1.16181E-23
5.88581E-03 1.10789E-23
6.02007E-03 1.05699E-23
6.15583E-03 1.00893E-23
6.29310E-03 9.63505E-24
6.43187E-03 9.20554E-24
6.57214E-03 8.79917E-24
6.71392E-03 8.41448E-24
6.85720E-03 8.05009E-24
7.00198E-03 7.70475E-24
7.14827E-03 7.37729E-24
7.29605E-03 7.06661E-24
7.44534E-03 6.77171E-24
7.59612E-03 6.49165E-24
7.97965E-03 5.85076E-24
8.37255E-03 5.28508E-24
8.77480E-03 4.78437E-24
9.18641E-03 4.33996E-24
9.60736E-03 3.94451E-24
1.00376E-02 3.59175E-24
1.04773E-02 3.27635E-24
1.09262E-02 2.99370E-24
1.13844E-02 2.73987E-24
1.18520E-02 2.51145E-24
1.23288E-02 2.30548E-24
1.28150E-02 2.11941E-24
1.33104E-02 1.95101E-24
1.38150E-02 1.79834E-24
1.43290E-02 1.65970E-24
1.48521E-02 1.53359E-24
1.53845E-02 1.41870E-24
1.59262E-02 1.31389E-24
1.64770E-02 1.21812E-24
1.70371E-02 1.13050E-24
1.76063E-02 1.05022E-24
1.81848E-02 9.76580E-25
1.87724E-02 9.08941E-25
1.93692E-02 8.46741E-25
1.99751E-02 7.89475E-25
2.05901E-02 7.36693E-25
2.12143E-02 6.87991E-25
2.18476E-02 6.43006E-25
2.24900E-02 6.01412E-25
2.31415E-02 5.62916E-25
2.38021E-02 5.27252E-25
2.44717E-02 4.94182E-25
2.51504E-02 4.63490E-25
2.58382E-02 4.34980E-25
2.65349E-02 4.08474E-25
2.72407E-02 3.83811E-25
2.79555E-02 3.60846E-25
2.86793E-02 3.39443E-25
2.94120E-02 3.19484E-25
3.01537E-02 3.00855E-25
3.09043E-02 2.83457E-25
3.16639E-02 2.67197E-25
3.24324E-02 2.51990E-25
3.32098E-02 2.37759E-25
3.39961E-02 2.24432E-25
3.47912E-02 2.11946E-25
3.55952E-02 2.00239E-25
3.64081E-02 1.89257E-25
3.72297E-02 1.78949E-25
3.80602E-02 1.69268E-25
3.88995E-02 1.60171E-25
3.97476E-02 1.51619E-25
4.06044E-02 1.43574E-25
4.14700E-02 1.36004E-25
4.23443E-02 1.28876E-25
4.32273E-02 1.22162E-25
4.41190E-02 1.15834E-25
4.50194E-02 1.09868E-25
4.59284E-02 1.04241E-25
4.68461E-02 9.89308E-26
4.87074E-02 8.91834E-26
5.06030E-02 8.04829E-26
5.25328E-02 7.27050E-26
5.44967E-02 6.57419E-26
5.64946E-02 5.94997E-26
5.85262E-02 5.38964E-26
6.05914E-02 4.88604E-26
6.26901E-02 4.43290E-26
6.48222E-02 4.02470E-26
6.69873E-02 3.65659E-26
6.91854E-02 3.32429E-26
7.14163E-02 3.02404E-26
7.36799E-02 2.75248E-26
7.59760E-02 2.50667E-26
7.83043E-02 2.28397E-26
8.06647E-02 2.08206E-26
8.30571E-02 1.89885E-26
8.54812E-02 1.73249E-26
8.79369E-02 1.58133E-26
9.04240E-02 1.44390E-26
9.29422E-02 1.31886E-26
9.54915E-02 1.20505E-26
9.80716E-02 1.10138E-26
1.00682E-01 1.00691E-26
1.03323E-01 9.20779E-27
1.05995E-01 8.42215E-27
1.08696E-01 7.70521E-27
1.11427E-01 7.05070E-27
1.14188E-01 6.45294E-27
1.16978E-01 5.90682E-27
1.19797E-01 5.40769E-27
1.22645E-01 4.95138E-27
1.25522E-01 4.53409E-27
1.28428E-01 4.15236E-27
1.31361E-01 3.80309E-27
1.34323E-01 3.48342E-27
1.37313E-01 3.19080E-27
1.40330E-01 2.92288E-27
1.43375E-01 2.67752E-27
1.46447E-01 2.45279E-27
1.49545E-01 2.24693E-27
1.52671E-01 2.05832E-27
1.55823E-01 1.88550E-27
1.59001E-01 1.72713E-27
1.62205E-01 1.58200E-27
1.65435E-01 1.44897E-27
1.68690E-01 1.32704E-27
1.71970E-01 1.21528E-27
1.75276E-01 1.11284E-27
1.78606E-01 1.01893E-27
1.81961E-01 9.32845E-28
1.85340E-01 8.53937E-28
1.88743E-01 7.81606E-28
1.92169E-01 7.15307E-28
1.95619E-01 6.54540E-28
1.99092E-01 5.98846E-28
2.02589E-01 5.47806E-28
2.06107E-01 5.01035E-28
2.09649E-01 4.58179E-28
2.13212E-01 4.18915E-28
2.16797E-01 3.82946E-28
2.20404E-01 3.50001E-28
2.24032E-01 3.19827E-28
2.27680E-01 2.92198E-28
2.31350E-01 2.66902E-28
2.35040E-01 2.43746E-28
2.38751E-01 2.22553E-28
2.42481E-01 2.03160E-28
2.46231E-01 1.85418E-28
2.50000E-01 1.69190E-28
2.53788E-01 1.54349E-28
2.57595E-01 1.40781E-28
2.61421E-01 1.28379E-28
2.65264E-01 1.17046E-28
2.69126E-01 1.06692E-28
2.73005E-01 9.72346E-29
2.76901E-01 8.85996E-29
2.80814E-01 8.07171E-29
2.84744E-01 7.35237E-29
2.88691E-01 6.69612E-29
2.92653E-01 6.09760E-29
2.96632E-01 5.55191E-29
3.00625E-01 5.05455E-29
3.04634E-01 4.60138E-29
3.08658E-01 4.18861E-29
3.12697E-01 3.81277E-29
3.16749E-01 3.47067E-29
3.20816E-01 3.15940E-29
3.24896E-01 2.87627E-29
3.28990E-01 2.61884E-29
3.33097E-01 2.38484E-29
3.37216E-01 2.17224E-29
3.41348E-01 1.97913E-29
3.45492E-01 1.80380E-29
3.49647E-01 1.64466E-29
3.53814E-01 1.50027E-29
3.57992E-01 1.36931E-29
3.62181E-01 1.25056E-29
3.66381E-01 1.14293E-29
3.70590E-01 1.04540E-29
3.74810E-01 9.57051E-30
3.79039E-01 8.77039E-30
3.83277E-01 8.04596E-30
3.87524E-01 7.39021E-30
3.91780E-01 6.79672E-30
3.96044E-01 6.25968E-30
4.00316E-01 5.77377E-30
4.04596E-01 5.33413E-30
4.08882E-01 4.93638E-30
4.13176E-01 4.57649E-30
4.17476E-01 4.25082E-30
4.21783E-01 3.95605E-30
4.26095E-01 3.68918E-30
4.30413E-01 3.44747E-30
4.34737E-01 3.22844E-30
4.39065E-01 3.02984E-30
4.43398E-01 2.84964E-30
4.47736E-01 2.68598E-30
4.52077E-01 2.53719E-30
4.56422E-01 2.40178E-30
4.60770E-01 2.27836E-30
4.65122E-01 2.16572E-30
4.69476E-01 2.06273E-30
4.73832E-01 1.96841E-30
4.78190E-01 1.88184E-30
4.82550E-01 1.80221E-30
4.86912E-01 1.72879E-30
4.91274E-01 1.66094E-30
4.95637E-01 1.59806E-30
5.00000E-01 1.53962E-30
5.04363E-01 1.48516E-30
5.08726E-01 1.43425E-30
5.13088E-01 1.38651E-30
5.17450E-01 1.34162E-30
5.21810E-01 1.29927E-30
5.26168E-01 1.25920E-30
5.30524E-01 1.22117E-30
5.34878E-01 1.18497E-30
5.39230E-01 1.15041E-30
5.43578E-01 1.11734E-30
5.47923E-01 1.08561E-30
5.52264E-01 1.05508E-30
5.56602E-01 1.02566E-30
5.60935E-01 9.97239E-31
5.65263E-01 9.69732E-31
5.69587E-01 9.43064E-31
5.73905E-01 9.17171E-31
5.78217E-01 8.91995E-31
5.82524E-01 8.67487E-31
5.86824E-01 8.43603E-31
5.91118E-01 8.20308E-31
5.95404E-01 7.97568E-31
5.99684E-01 7.75355E-31
6.03956E-01 7.53648E-31
6.08220E-01 7.32424E-31
6.12476E-01 7.11666E-31
6.16723E-01 6.91360E-31
6.20961E-01 6.71493E-31
6.25190E-01 6.52054E-31
6.29410E-01 6.33032E-31
6.33619E-01 6.14420E-31
6.37819E-01 5.96211E-31
6.42008E-01 5.78399E-31
6.46186E-01 5.60978E-31
6.50353E-01 5.43942E-31
6.54508E-01 5.27288E-31
6.58652E-01 5.11012E-31
6.62784E-01 4.95108E-31
6.66903E-01 4.79574E-31
6.71010E-01 4.64406E-31
6.75104E-01 4.49599E-31
6.79184E-01 4.35151E-31
6.83251E-01 4.21058E-31
6.87303E-01 4.07316E-31
6.91342E-01 3.93921E-31
6.95366E-01 3.80868E-31
6.99375E-01 3.68155E-31
7.03368E-01 3.55777E-31
7.07347E-01 3.43729E-31
7.11309E-01 3.32007E-31
7.15256E-01 3.20606E-31
7.19186E-01 3.09521E-31
7.23099E-01 2.98748E-31
7.26995E-01 2.88282E-31
7.30874E-01 2.78118E-31
7.34736E-01 2.68249E-31
7.38579E-01 2.58672E-31
7.42405E-01 2.49380E-31
7.46212E-01 2.40368E-31
7.50000E-01 2.31630E-31
7.53769E-01 2.23162E-31
7.57519E-01 2.14957E-31
7.61249E-01 2.07009E-31
7.64960E-01 1.99313E-31
7.68650E-01 1.91863E-31
7.72320E-01 1.84654E-31
7.75968E-01 1.77679E-31
7.79596E-01 1.70933E-31
7.83203E-01 1.64411E-31
7.86788E-01 1.58106E-31
7.90351E-01 1.52013E-31
7.93893E-01 1.46127E-31
7.97411E-01 1.40442E-31
8.00908E-01 1.34952E-31
8.04381E-01 1.29653E-31
8.07831E-01 1.24538E-31
8.11257E-01 1.19603E-31
8.14660E-01 1.14842E-31
8.18039E-01 1.10250E-31
8.21394E-01 1.05822E-31
8.24724E-01 1.01554E-31
8.28030E-01 9.74405E-32
8.31310E-01 9.34764E-32
8.34565E-01 8.96574E-32
8.37795E-01 8.59789E-32
8.40999E-01 8.24364E-32
8.44177E-01 7.90256E-32
8.47329E-01 7.57421E-32
8.50455E-01 7.25820E-32
8.53553E-01 6.95409E-32
8.56625E-01 6.66151E-32
8.59670E-01 6.38006E-32
8.62687E-01 6.10937E-32
8.65677E-01 5.84906E-32
8.68639E-01 5.59879E-32
8.71572E-01 5.35821E-32
8.74478E-01 5.12697E-32
8.77355E-01 4.90475E-32
8.80203E-01 4.69123E-32
8.83022E-01 4.48610E-32
8.85812E-01 4.28906E-32
8.88573E-01 4.09983E-32
8.91304E-01 3.91810E-32
8.94005E-01 3.74362E-32
8.96677E-01 3.57612E-32
8.99318E-01 3.41534E-32
9.01928E-01 3.26103E-32
9.04508E-01 3.11295E-32
9.07058E-01 2.97087E-32
9.09576E-01 2.83456E-32
9.12063E-01 2.70381E-32
9.14519E-01 2.57840E-32
9.16943E-01 2.45814E-32
9.19335E-01 2.34282E-32
9.21696E-01 2.23226E-32
9.24024E-01 2.12627E-32
9.26320E-01 2.02467E-32
9.28584E-01 1.92730E-32
9.30815E-01 1.83400E-32
9.33013E-01 1.74460E-32
9.35178E-01 1.65895E-32
9.37310E-01 1.57690E-32
9.39409E-01 1.49832E-32
9.41474E-01 1.42307E-32
9.43505E-01 1.35101E-32
9.45503E-01 1.28202E-32
9.47467E-01 1.21598E-32
9.49397E-01 1.15277E-32
9.51293E-01 1.09228E-32
9.53154E-01 1.03440E-32
9.54981E-01 9.79032E-33
9.56773E-01 9.26067E-33
9.58530E-01 8.75413E-33
9.60252E-01 8.26978E-33
9.61940E-01 7.80674E-33
9.63592E-01 7.36418E-33
9.65209E-01 6.94125E-33
9.66790E-01 6.53720E-33
9.68336E-01 6.15126E-33
9.69846E-01 5.78274E-33
9.71321E-01 5.43092E-33
9.72759E-01 5.09516E-33
9.74162E-01 4.77483E-33
9.75528E-01 4.46934E-33
9.76858E-01 4.17808E-33
9.78152E-01 3.90053E-33
9.79410E-01 3.63615E-33
9.80631E-01 3.38442E-33
9.81815E-01 3.14490E-33
9.82963E-01 2.91710E-33
9.84074E-01 2.70059E-33
9.85148E-01 2.49495E-33
9.86185E-01 2.29980E-33
9.87185E-01 2.11474E-33
9.88148E-01 1.93943E-33
9.89074E-01 1.77353E-33
9.89962E-01 1.61670E-33
9.90814E-01 1.46865E-33
9.91627E-01 1.32909E-33
9.92404E-01 1.19775E-33
9.93143E-01 1.07436E-33
9.93844E-01 9.58690E-34
9.94508E-01 8.50510E-34
9.95134E-01 7.49603E-34
9.95722E-01 6.55774E-34
9.96273E-01 5.68837E-34
9.96786E-01 4.88624E-34
9.97261E-01 4.14972E-34
9.97698E-01 3.47734E-34
9.98097E-01 2.86789E-34
9.98459E-01 2.32000E-34
9.98782E-01 1.83270E-34
9.99067E-01 1.40494E-34
9.99315E-01 1.03595E-34
9.99524E-01 7.24932E-35
9.99695E-01 4.71324E-35
9.99829E-01 2.74608E-35
9.99924E-01 1.34345E-35
9.99981E-01 5.03196E-36
1.00000E+00 2.23267E-36
