 #
 # Subroutine ELSEPA. Elastic scattering of electrons and positrons
 #                    by neutral atoms and positive ions
 #
 # Projectile: positron
 # Kinetic energy = 5.00000E+07 eV = 1.83747E+06 a.u.
 #
 # WARNING: High-energy factorization with free-atom DF screening.
 #          Absorption, polarization and exchange corrections are
 #          switched off.
 #          Phase shifts are calculated for the bare nucleus.
 #          Scattering amplitudes are not evaluated.
 #
 # Element: Tc,  Z =  43,  atomic weight = 9.89063E+01 g/mol
 #
 # Nuclear model: Fermi distribution
 #                Average radius = 4.94833E-13 cm
 #                Skin thickness = 5.46000E-14 cm
 #
 # Number of electrons = 43
 #
 # Total elastic cross section = 4.11678E-18 cm**2 = 1.47013E-01 a0**2
 # 1st transport cross section = 1.34329E-24 cm**2 = 4.79698E-08 a0**2
 # 2nd transport cross section = 3.94476E-24 cm**2 = 1.40870E-07 a0**2
 #
 #
 # Differential cross section:                       MU=(1-COS(THETA))/2
 #
 #  THETA        MU          DCS          DCS        Sherman      error
 #  (deg)                 (cm**2/sr)   (a0**2/sr)    function
 #----------------------------------------------------------------------
0.00000E+00 9.34505E-11
7.61557E-13 9.33836E-11
1.18994E-12 9.33463E-11
1.71346E-12 9.33006E-11
2.33225E-12 9.32468E-11
3.04617E-12 9.31847E-11
3.85530E-12 9.31145E-11
4.75964E-12 9.30362E-11
5.75917E-12 9.29497E-11
6.85391E-12 9.28552E-11
8.04379E-12 9.27528E-11
9.32893E-12 9.26423E-11
1.07092E-11 9.25240E-11
1.21847E-11 9.23977E-11
1.37554E-11 9.22638E-11
1.54213E-11 9.21220E-11
1.71823E-11 9.19727E-11
1.90386E-11 9.18157E-11
2.09900E-11 9.16512E-11
2.30367E-11 9.14793E-11
2.51785E-11 9.13000E-11
2.74156E-11 9.11134E-11
2.97478E-11 9.09196E-11
3.21752E-11 9.07187E-11
3.46979E-11 9.05108E-11
3.73157E-11 9.02959E-11
4.00286E-11 9.00743E-11
4.28368E-11 8.98459E-11
4.57402E-11 8.96108E-11
4.87388E-11 8.93693E-11
5.18325E-11 8.91213E-11
5.50215E-11 8.88670E-11
5.83057E-11 8.86065E-11
6.16850E-11 8.83399E-11
6.51595E-11 8.80673E-11
6.87293E-11 8.77888E-11
7.23943E-11 8.75046E-11
7.61544E-11 8.72147E-11
1.18991E-10 8.40276E-11
1.71347E-10 8.04149E-11
2.33223E-10 7.64988E-11
3.04617E-10 7.23981E-11
3.85531E-10 6.82190E-11
4.75965E-10 6.40514E-11
5.75917E-10 5.99672E-11
6.85389E-10 5.60207E-11
8.04380E-10 5.22475E-11
9.32891E-10 4.86713E-11
1.07092E-09 4.53090E-11
1.21847E-09 4.21651E-11
1.37554E-09 3.92377E-11
1.54213E-09 3.65201E-11
1.71823E-09 3.40027E-11
1.90386E-09 3.16740E-11
2.09900E-09 2.95216E-11
2.30367E-09 2.75330E-11
2.51785E-09 2.56957E-11
2.74156E-09 2.39978E-11
2.97478E-09 2.24279E-11
3.21752E-09 2.09727E-11
3.46978E-09 1.96252E-11
3.73156E-09 1.83771E-11
4.00286E-09 1.72200E-11
4.28368E-09 1.61465E-11
4.57402E-09 1.51497E-11
4.87388E-09 1.42236E-11
5.18326E-09 1.33622E-11
5.50215E-09 1.25607E-11
5.83057E-09 1.18141E-11
6.16850E-09 1.11184E-11
6.51596E-09 1.04695E-11
6.87293E-09 9.86367E-12
7.23942E-09 9.29716E-12
7.61544E-09 8.76800E-12
1.18991E-08 4.96405E-12
1.71347E-08 3.00978E-12
2.33223E-08 1.91949E-12
3.04617E-08 1.28491E-12
3.85531E-08 8.98682E-13
4.75965E-08 6.52493E-13
5.75917E-08 4.88329E-13
6.85389E-08 3.74270E-13
8.04380E-08 2.92060E-13
9.32891E-08 2.31093E-13
1.07092E-07 1.85008E-13
1.21847E-07 1.49576E-13
1.37554E-07 1.21973E-13
1.54213E-07 1.00239E-13
1.71823E-07 8.29769E-14
1.90386E-07 6.91610E-14
2.09900E-07 5.80313E-14
2.30367E-07 4.90046E-14
2.51785E-07 4.16262E-14
2.74156E-07 3.55727E-14
2.97478E-07 3.05774E-14
3.21752E-07 2.64289E-14
3.46978E-07 2.29647E-14
3.73156E-07 2.00543E-14
4.00286E-07 1.75948E-14
4.28368E-07 1.55048E-14
4.57402E-07 1.37194E-14
4.87388E-07 1.21869E-14
5.18325E-07 1.08654E-14
5.50215E-07 9.72082E-15
5.83057E-07 8.72532E-15
6.16850E-07 7.85590E-15
6.51596E-07 7.09355E-15
6.87293E-07 6.42243E-15
7.23942E-07 5.82935E-15
7.61543E-07 5.30359E-15
1.18991E-06 2.29102E-15
1.71347E-06 1.14253E-15
2.33223E-06 6.29343E-16
3.04617E-06 3.73735E-16
3.85531E-06 2.35523E-16
4.75964E-06 1.55673E-16
5.75916E-06 1.06980E-16
6.85388E-06 7.59398E-17
8.04378E-06 5.53958E-17
9.32888E-06 4.13578E-17
1.07092E-05 3.15012E-17
1.21846E-05 2.44152E-17
1.37553E-05 1.92146E-17
1.54212E-05 1.53277E-17
1.71822E-05 1.23756E-17
1.90385E-05 1.00989E-17
2.09899E-05 8.32575E-18
2.30365E-05 6.92451E-18
2.51783E-05 5.80514E-18
2.74153E-05 4.90230E-18
2.97475E-05 4.16789E-18
3.21749E-05 3.56582E-18
3.46974E-05 3.06864E-18
3.73152E-05 2.65523E-18
4.00281E-05 2.30921E-18
4.28362E-05 2.01776E-18
4.57395E-05 1.77081E-18
4.87380E-05 1.56042E-18
5.18317E-05 1.38028E-18
5.50205E-05 1.22533E-18
5.83045E-05 1.09148E-18
6.16838E-05 9.75403E-19
6.51582E-05 8.74351E-19
6.87277E-05 7.86057E-19
7.23925E-05 7.08633E-19
7.61524E-05 6.40540E-19
9.21439E-05 4.37685E-19
1.09658E-04 3.09075E-19
1.28695E-04 2.24400E-19
1.49255E-04 1.66802E-19
1.71338E-04 1.26546E-19
1.94942E-04 9.77218E-20
2.20070E-04 7.66500E-20
2.46720E-04 6.09594E-20
2.74892E-04 4.90816E-20
3.04586E-04 3.99587E-20
3.35803E-04 3.28577E-20
3.68542E-04 2.72649E-20
4.02802E-04 2.28117E-20
4.38585E-04 1.92305E-20
4.75889E-04 1.63246E-20
5.14715E-04 1.39466E-20
5.55063E-04 1.19858E-20
5.96931E-04 1.03573E-20
6.40321E-04 8.99580E-21
6.85233E-04 7.85055E-21
7.31665E-04 6.88159E-21
7.79618E-04 6.05739E-21
8.29092E-04 5.35275E-21
8.80086E-04 4.74750E-21
9.32601E-04 4.22527E-21
9.86636E-04 3.77278E-21
1.04219E-03 3.37917E-21
1.09927E-03 3.03547E-21
1.15786E-03 2.73429E-21
1.21797E-03 2.46947E-21
1.27961E-03 2.23589E-21
1.34276E-03 2.02923E-21
1.40743E-03 1.84584E-21
1.47362E-03 1.68266E-21
1.54133E-03 1.53708E-21
1.61056E-03 1.40687E-21
1.68131E-03 1.29013E-21
1.75357E-03 1.18522E-21
1.82735E-03 1.09073E-21
1.90265E-03 1.00544E-21
1.97947E-03 9.28308E-22
2.05780E-03 8.58413E-22
2.13765E-03 7.94952E-22
2.21902E-03 7.37232E-22
2.30190E-03 6.84643E-22
2.38630E-03 6.36645E-22
2.47222E-03 5.92765E-22
2.55965E-03 5.52591E-22
2.64859E-03 5.15753E-22
2.73905E-03 4.81922E-22
2.83103E-03 4.50811E-22
2.92452E-03 4.22162E-22
3.01952E-03 3.95745E-22
3.11604E-03 3.71353E-22
3.21407E-03 3.48807E-22
3.31362E-03 3.27939E-22
3.41468E-03 3.08602E-22
3.51725E-03 2.90664E-22
3.62133E-03 2.74006E-22
3.72692E-03 2.58518E-22
3.83403E-03 2.44106E-22
3.94265E-03 2.30681E-22
4.05278E-03 2.18159E-22
4.16442E-03 2.06475E-22
4.27757E-03 1.95558E-22
4.39223E-03 1.85349E-22
4.50840E-03 1.75795E-22
4.62608E-03 1.66846E-22
4.74527E-03 1.58456E-22
4.86597E-03 1.50585E-22
4.98817E-03 1.43194E-22
5.11188E-03 1.36249E-22
5.23711E-03 1.29718E-22
5.36383E-03 1.23571E-22
5.49207E-03 1.17782E-22
5.62181E-03 1.12326E-22
5.75306E-03 1.07181E-22
5.88581E-03 1.02326E-22
6.02007E-03 9.77407E-23
6.15583E-03 9.34080E-23
6.29310E-03 8.93114E-23
6.43187E-03 8.54358E-23
6.57214E-03 8.17667E-23
6.71392E-03 7.82914E-23
6.85720E-03 7.49976E-23
7.00198E-03 7.18740E-23
7.14827E-03 6.89104E-23
7.29605E-03 6.60971E-23
7.44534E-03 6.34249E-23
7.59612E-03 6.08855E-23
7.97965E-03 5.50681E-23
8.37255E-03 4.99248E-23
8.77480E-03 4.53643E-23
9.18641E-03 4.13094E-23
9.60736E-03 3.76945E-23
1.00376E-02 3.44637E-23
1.04773E-02 3.15692E-23
1.09262E-02 2.89699E-23
1.13844E-02 2.66307E-23
1.18520E-02 2.45210E-23
1.23288E-02 2.26144E-23
1.28150E-02 2.08880E-23
1.33104E-02 1.93218E-23
1.38150E-02 1.78983E-23
1.43290E-02 1.66024E-23
1.48521E-02 1.54205E-23
1.53845E-02 1.43410E-23
1.59262E-02 1.33533E-23
1.64770E-02 1.24483E-23
1.70371E-02 1.16179E-23
1.76063E-02 1.08549E-23
1.81848E-02 1.01528E-23
1.87724E-02 9.50593E-24
1.93692E-02 8.90917E-24
1.99751E-02 8.35796E-24
2.05901E-02 7.84821E-24
2.12143E-02 7.37626E-24
2.18476E-02 6.93880E-24
2.24900E-02 6.53288E-24
2.31415E-02 6.15583E-24
2.38021E-02 5.80522E-24
2.44717E-02 5.47888E-24
2.51504E-02 5.17483E-24
2.58382E-02 4.89128E-24
2.65349E-02 4.62661E-24
2.72407E-02 4.37933E-24
2.79555E-02 4.14810E-24
2.86793E-02 3.93169E-24
2.94120E-02 3.72900E-24
3.01537E-02 3.53899E-24
3.09043E-02 3.36073E-24
3.16639E-02 3.19336E-24
3.24324E-02 3.03611E-24
3.32098E-02 2.88826E-24
3.39961E-02 2.74913E-24
3.47912E-02 2.61814E-24
3.55952E-02 2.49471E-24
3.64081E-02 2.37833E-24
3.72297E-02 2.26854E-24
3.80602E-02 2.16488E-24
3.88995E-02 2.06697E-24
3.97476E-02 1.97441E-24
4.06044E-02 1.88688E-24
4.14700E-02 1.80404E-24
4.23443E-02 1.72561E-24
4.32273E-02 1.65130E-24
4.41190E-02 1.58087E-24
4.50194E-02 1.51406E-24
4.59284E-02 1.45067E-24
4.68461E-02 1.39049E-24
4.87074E-02 1.27901E-24
5.06030E-02 1.17823E-24
5.25328E-02 1.08695E-24
5.44967E-02 1.00414E-24
5.64946E-02 9.28878E-25
5.85262E-02 8.60360E-25
6.05914E-02 7.97884E-25
6.26901E-02 7.40829E-25
6.48222E-02 6.88646E-25
6.69873E-02 6.40851E-25
6.91854E-02 5.97014E-25
7.14163E-02 5.56753E-25
7.36799E-02 5.19728E-25
7.59760E-02 4.85636E-25
7.83043E-02 4.54207E-25
8.06647E-02 4.25198E-25
8.30571E-02 3.98393E-25
8.54812E-02 3.73596E-25
8.79369E-02 3.50633E-25
9.04240E-02 3.29346E-25
9.29422E-02 3.09592E-25
9.54915E-02 2.91243E-25
9.80716E-02 2.74183E-25
1.00682E-01 2.58306E-25
1.03323E-01 2.43517E-25
1.05995E-01 2.29730E-25
1.08696E-01 2.16865E-25
1.11427E-01 2.04852E-25
1.14188E-01 1.93624E-25
1.16978E-01 1.83122E-25
1.19797E-01 1.73291E-25
1.22645E-01 1.64082E-25
1.25522E-01 1.55449E-25
1.28428E-01 1.47351E-25
1.31361E-01 1.39748E-25
1.34323E-01 1.32606E-25
1.37313E-01 1.25893E-25
1.40330E-01 1.19578E-25
1.43375E-01 1.13635E-25
1.46447E-01 1.08037E-25
1.49545E-01 1.02762E-25
1.52671E-01 9.77888E-26
1.55823E-01 9.30965E-26
1.59001E-01 8.86671E-26
1.62205E-01 8.44837E-26
1.65435E-01 8.05303E-26
1.68690E-01 7.67925E-26
1.71970E-01 7.32567E-26
1.75276E-01 6.99103E-26
1.78606E-01 6.67415E-26
1.81961E-01 6.37396E-26
1.85340E-01 6.08944E-26
1.88743E-01 5.81964E-26
1.92169E-01 5.56370E-26
1.95619E-01 5.32079E-26
1.99092E-01 5.09015E-26
2.02589E-01 4.87107E-26
2.06107E-01 4.66287E-26
2.09649E-01 4.46495E-26
2.13212E-01 4.27672E-26
2.16797E-01 4.09763E-26
2.20404E-01 3.92718E-26
2.24032E-01 3.76488E-26
2.27680E-01 3.61029E-26
2.31350E-01 3.46300E-26
2.35040E-01 3.32260E-26
2.38751E-01 3.18873E-26
2.42481E-01 3.06104E-26
2.46231E-01 2.93920E-26
2.50000E-01 2.82291E-26
2.53788E-01 2.71188E-26
2.57595E-01 2.60584E-26
2.61421E-01 2.50453E-26
2.65264E-01 2.40771E-26
2.69126E-01 2.31515E-26
2.73005E-01 2.22664E-26
2.76901E-01 2.14199E-26
2.80814E-01 2.06099E-26
2.84744E-01 1.98346E-26
2.88691E-01 1.90925E-26
2.92653E-01 1.83818E-26
2.96632E-01 1.77011E-26
3.00625E-01 1.70490E-26
3.04634E-01 1.64240E-26
3.08658E-01 1.58248E-26
3.12697E-01 1.52504E-26
3.16749E-01 1.46995E-26
3.20816E-01 1.41710E-26
3.24896E-01 1.36638E-26
3.28990E-01 1.31772E-26
3.33097E-01 1.27099E-26
3.37216E-01 1.22613E-26
3.41348E-01 1.18305E-26
3.45492E-01 1.14166E-26
3.49647E-01 1.10190E-26
3.53814E-01 1.06368E-26
3.57992E-01 1.02695E-26
3.62181E-01 9.91635E-27
3.66381E-01 9.57675E-27
3.70590E-01 9.25012E-27
3.74810E-01 8.93590E-27
3.79039E-01 8.63356E-27
3.83277E-01 8.34260E-27
3.87524E-01 8.06254E-27
3.91780E-01 7.79291E-27
3.96044E-01 7.53329E-27
4.00316E-01 7.28325E-27
4.04596E-01 7.04239E-27
4.08882E-01 6.81035E-27
4.13176E-01 6.58676E-27
4.17476E-01 6.37127E-27
4.21783E-01 6.16356E-27
4.26095E-01 5.96331E-27
4.30413E-01 5.77022E-27
4.34737E-01 5.58401E-27
4.39065E-01 5.40440E-27
4.43398E-01 5.23114E-27
4.47736E-01 5.06396E-27
4.52077E-01 4.90264E-27
4.56422E-01 4.74694E-27
4.60770E-01 4.59665E-27
4.65122E-01 4.45155E-27
4.69476E-01 4.31145E-27
4.73832E-01 4.17616E-27
4.78190E-01 4.04549E-27
4.82550E-01 3.91927E-27
4.86912E-01 3.79732E-27
4.91274E-01 3.67949E-27
4.95637E-01 3.56563E-27
5.00000E-01 3.45558E-27
5.04363E-01 3.34921E-27
5.08726E-01 3.24637E-27
5.13088E-01 3.14695E-27
5.17450E-01 3.05080E-27
5.21810E-01 2.95782E-27
5.26168E-01 2.86788E-27
5.30524E-01 2.78088E-27
5.34878E-01 2.69672E-27
5.39230E-01 2.61528E-27
5.43578E-01 2.53648E-27
5.47923E-01 2.46021E-27
5.52264E-01 2.38639E-27
5.56602E-01 2.31494E-27
5.60935E-01 2.24576E-27
5.65263E-01 2.17878E-27
5.69587E-01 2.11392E-27
5.73905E-01 2.05110E-27
5.78217E-01 1.99027E-27
5.82524E-01 1.93134E-27
5.86824E-01 1.87426E-27
5.91118E-01 1.81895E-27
5.95404E-01 1.76536E-27
5.99684E-01 1.71343E-27
6.03956E-01 1.66311E-27
6.08220E-01 1.61433E-27
6.12476E-01 1.56706E-27
6.16723E-01 1.52122E-27
6.20961E-01 1.47679E-27
6.25190E-01 1.43371E-27
6.29410E-01 1.39193E-27
6.33619E-01 1.35142E-27
6.37819E-01 1.31213E-27
6.42008E-01 1.27402E-27
6.46186E-01 1.23706E-27
6.50353E-01 1.20119E-27
6.54508E-01 1.16640E-27
6.58652E-01 1.13265E-27
6.62784E-01 1.09989E-27
6.66903E-01 1.06810E-27
6.71010E-01 1.03726E-27
6.75104E-01 1.00731E-27
6.79184E-01 9.78251E-28
6.83251E-01 9.50039E-28
6.87303E-01 9.22651E-28
6.91342E-01 8.96060E-28
6.95366E-01 8.70242E-28
6.99375E-01 8.45172E-28
7.03368E-01 8.20827E-28
7.07347E-01 7.97183E-28
7.11309E-01 7.74220E-28
7.15256E-01 7.51916E-28
7.19186E-01 7.30251E-28
7.23099E-01 7.09205E-28
7.26995E-01 6.88758E-28
7.30874E-01 6.68893E-28
7.34736E-01 6.49591E-28
7.38579E-01 6.30836E-28
7.42405E-01 6.12611E-28
7.46212E-01 5.94900E-28
7.50000E-01 5.77687E-28
7.53769E-01 5.60957E-28
7.57519E-01 5.44696E-28
7.61249E-01 5.28890E-28
7.64960E-01 5.13524E-28
7.68650E-01 4.98587E-28
7.72320E-01 4.84064E-28
7.75968E-01 4.69945E-28
7.79596E-01 4.56217E-28
7.83203E-01 4.42868E-28
7.86788E-01 4.29887E-28
7.90351E-01 4.17265E-28
7.93893E-01 4.04989E-28
7.97411E-01 3.93050E-28
8.00908E-01 3.81439E-28
8.04381E-01 3.70145E-28
8.07831E-01 3.59160E-28
8.11257E-01 3.48474E-28
8.14660E-01 3.38080E-28
8.18039E-01 3.27969E-28
8.21394E-01 3.18132E-28
8.24724E-01 3.08562E-28
8.28030E-01 2.99252E-28
8.31310E-01 2.90194E-28
8.34565E-01 2.81380E-28
8.37795E-01 2.72805E-28
8.40999E-01 2.64461E-28
8.44177E-01 2.56342E-28
8.47329E-01 2.48442E-28
8.50455E-01 2.40754E-28
8.53553E-01 2.33273E-28
8.56625E-01 2.25993E-28
8.59670E-01 2.18909E-28
8.62687E-01 2.12015E-28
8.65677E-01 2.05306E-28
8.68639E-01 1.98776E-28
8.71572E-01 1.92422E-28
8.74478E-01 1.86239E-28
8.77355E-01 1.80221E-28
8.80203E-01 1.74364E-28
8.83022E-01 1.68665E-28
8.85812E-01 1.63118E-28
8.88573E-01 1.57720E-28
8.91304E-01 1.52467E-28
8.94005E-01 1.47355E-28
8.96677E-01 1.42381E-28
8.99318E-01 1.37540E-28
9.01928E-01 1.32830E-28
9.04508E-01 1.28246E-28
9.07058E-01 1.23786E-28
9.09576E-01 1.19447E-28
9.12063E-01 1.15226E-28
9.14519E-01 1.11119E-28
9.16943E-01 1.07123E-28
9.19335E-01 1.03236E-28
9.21696E-01 9.94556E-29
9.24024E-01 9.57785E-29
9.26320E-01 9.22022E-29
9.28584E-01 8.87244E-29
9.30815E-01 8.53426E-29
9.33013E-01 8.20546E-29
9.35178E-01 7.88580E-29
9.37310E-01 7.57507E-29
9.39409E-01 7.27305E-29
9.41474E-01 6.97955E-29
9.43505E-01 6.69435E-29
9.45503E-01 6.41728E-29
9.47467E-01 6.14813E-29
9.49397E-01 5.88674E-29
9.51293E-01 5.63293E-29
9.53154E-01 5.38652E-29
9.54981E-01 5.14735E-29
9.56773E-01 4.91526E-29
9.58530E-01 4.69010E-29
9.60252E-01 4.47172E-29
9.61940E-01 4.25998E-29
9.63592E-01 4.05473E-29
9.65209E-01 3.85584E-29
9.66790E-01 3.66318E-29
9.68336E-01 3.47663E-29
9.69846E-01 3.29606E-29
9.71321E-01 3.12135E-29
9.72759E-01 2.95239E-29
9.74162E-01 2.78907E-29
9.75528E-01 2.63129E-29
9.76858E-01 2.47894E-29
9.78152E-01 2.33193E-29
9.79410E-01 2.19016E-29
9.80631E-01 2.05353E-29
9.81815E-01 1.92197E-29
9.82963E-01 1.79538E-29
9.84074E-01 1.67369E-29
9.85148E-01 1.55681E-29
9.86185E-01 1.44468E-29
9.87185E-01 1.33722E-29
9.88148E-01 1.23437E-29
9.89074E-01 1.13605E-29
9.89962E-01 1.04221E-29
9.90814E-01 9.52785E-30
9.91627E-01 8.67720E-30
9.92404E-01 7.86962E-30
9.93143E-01 7.10459E-30
9.93844E-01 6.38163E-30
9.94508E-01 5.70028E-30
9.95134E-01 5.06012E-30
9.95722E-01 4.46074E-30
9.96273E-01 3.90177E-30
9.96786E-01 3.38285E-30
9.97261E-01 2.90367E-30
9.97698E-01 2.46391E-30
9.98097E-01 2.06331E-30
9.98459E-01 1.70161E-30
9.98782E-01 1.37859E-30
9.99067E-01 1.09405E-30
9.99315E-01 8.47799E-31
9.99524E-01 6.39696E-31
9.99695E-01 4.69606E-31
9.99829E-01 3.37424E-31
9.99924E-01 2.43067E-31
9.99981E-01 1.86476E-31
1.00000E+00 1.67617E-31
