 #
 # Subroutine ELSEPA. Elastic scattering of electrons and positrons
 #                    by neutral atoms and positive ions
 #
 # Projectile: positron
 # Kinetic energy = 1.50000E+07 eV = 5.51240E+05 a.u.
 #
 # WARNING: High-energy factorization with free-atom DF screening.
 #          Absorption, polarization and exchange corrections are
 #          switched off.
 #          Phase shifts are calculated for the bare nucleus.
 #          Scattering amplitudes are not evaluated.
 #
 # Element: Tc,  Z =  43,  atomic weight = 9.89063E+01 g/mol
 #
 # Nuclear model: Fermi distribution
 #                Average radius = 4.94833E-13 cm
 #                Skin thickness = 5.46000E-14 cm
 #
 # Number of electrons = 43
 #
 # Total elastic cross section = 4.12076E-18 cm**2 = 1.47155E-01 a0**2
 # 1st transport cross section = 1.21965E-23 cm**2 = 4.35546E-07 a0**2
 # 2nd transport cross section = 3.54116E-23 cm**2 = 1.26457E-06 a0**2
 #
 #
 # Differential cross section:                       MU=(1-COS(THETA))/2
 #
 #  THETA        MU          DCS          DCS        Sherman      error
 #  (deg)                 (cm**2/sr)   (a0**2/sr)    function
 #----------------------------------------------------------------------
0.00000E+00 8.81230E-12
7.61557E-13 8.81169E-12
1.18994E-12 8.81135E-12
1.71346E-12 8.81094E-12
2.33225E-12 8.81046E-12
3.04617E-12 8.80990E-12
3.85530E-12 8.80927E-12
4.75964E-12 8.80857E-12
5.75917E-12 8.80779E-12
6.85391E-12 8.80694E-12
8.04379E-12 8.80601E-12
9.32893E-12 8.80502E-12
1.07092E-11 8.80394E-12
1.21847E-11 8.80280E-12
1.37554E-11 8.80158E-12
1.54213E-11 8.80029E-12
1.71823E-11 8.79893E-12
1.90386E-11 8.79749E-12
2.09900E-11 8.79598E-12
2.30367E-11 8.79440E-12
2.51785E-11 8.79274E-12
2.74156E-11 8.79101E-12
2.97478E-11 8.78921E-12
3.21752E-11 8.78733E-12
3.46979E-11 8.78539E-12
3.73157E-11 8.78337E-12
4.00286E-11 8.78128E-12
4.28368E-11 8.77911E-12
4.57402E-11 8.77688E-12
4.87388E-11 8.77457E-12
5.18325E-11 8.77219E-12
5.50215E-11 8.76974E-12
5.83057E-11 8.76721E-12
6.16850E-11 8.76462E-12
6.51595E-11 8.76195E-12
6.87293E-11 8.75921E-12
7.23943E-11 8.75641E-12
7.61544E-11 8.75353E-12
1.18991E-10 8.72084E-12
1.71347E-10 8.68120E-12
2.33223E-10 8.63478E-12
3.04617E-10 8.58179E-12
3.85531E-10 8.52244E-12
4.75965E-10 8.45700E-12
5.75917E-10 8.38573E-12
6.85389E-10 8.30892E-12
8.04380E-10 8.22688E-12
9.32891E-10 8.13992E-12
1.07092E-09 8.04806E-12
1.21847E-09 7.95213E-12
1.37554E-09 7.85259E-12
1.54213E-09 7.74944E-12
1.71823E-09 7.64258E-12
1.90386E-09 7.53321E-12
2.09900E-09 7.42170E-12
2.30367E-09 7.30725E-12
2.51785E-09 7.19099E-12
2.74156E-09 7.07362E-12
2.97478E-09 6.95505E-12
3.21752E-09 6.83466E-12
3.46978E-09 6.71407E-12
3.73156E-09 6.59354E-12
4.00286E-09 6.47206E-12
4.28368E-09 6.35056E-12
4.57402E-09 6.22986E-12
4.87388E-09 6.10989E-12
5.18326E-09 5.98942E-12
5.50215E-09 5.87034E-12
5.83057E-09 5.75282E-12
6.16850E-09 5.63574E-12
6.51596E-09 5.51969E-12
6.87293E-09 5.40560E-12
7.23942E-09 5.29341E-12
7.61544E-09 5.18143E-12
1.18991E-08 4.16751E-12
1.71347E-08 3.34328E-12
2.33223E-08 2.69092E-12
3.04617E-08 2.17884E-12
3.85531E-08 1.77585E-12
4.75965E-08 1.45665E-12
5.75917E-08 1.20195E-12
6.85389E-08 9.97122E-13
8.04380E-08 8.31455E-13
9.32891E-08 6.96831E-13
1.07092E-07 5.81309E-13
1.21847E-07 4.90472E-13
1.37554E-07 4.19228E-13
1.54213E-07 3.60156E-13
1.71823E-07 3.07907E-13
1.90386E-07 2.65876E-13
2.09900E-07 2.31709E-13
2.30367E-07 2.01706E-13
2.51785E-07 1.76437E-13
2.74156E-07 1.55462E-13
2.97478E-07 1.37694E-13
3.21752E-07 1.22052E-13
3.46978E-07 1.08825E-13
3.73156E-07 9.75676E-14
4.00286E-07 8.76488E-14
4.28368E-07 7.90041E-14
4.57402E-07 7.15373E-14
4.87388E-07 6.50192E-14
5.18325E-07 5.91388E-14
5.50215E-07 5.39965E-14
5.83057E-07 4.94804E-14
6.16850E-07 4.53950E-14
6.51596E-07 4.17206E-14
6.87293E-07 3.84624E-14
7.23942E-07 3.55545E-14
7.61543E-07 3.28427E-14
1.18991E-06 1.61875E-14
1.71347E-06 8.73058E-15
2.33223E-06 5.03398E-15
3.04617E-06 3.07922E-15
3.85531E-06 1.98689E-15
4.75964E-06 1.34123E-15
5.75916E-06 9.39855E-16
6.85388E-06 6.79486E-16
8.04378E-06 5.04057E-16
9.32888E-06 3.81954E-16
1.07092E-05 2.94523E-16
1.21846E-05 2.30882E-16
1.37553E-05 1.83540E-16
1.54212E-05 1.47526E-16
1.71822E-05 1.19922E-16
1.90385E-05 9.84452E-17
2.09899E-05 8.15479E-17
2.30365E-05 6.80968E-17
2.51783E-05 5.72960E-17
2.74153E-05 4.85389E-17
2.97475E-05 4.13749E-17
3.21749E-05 3.54845E-17
3.46974E-05 3.06064E-17
3.73152E-05 2.65353E-17
4.00281E-05 2.31202E-17
4.28362E-05 2.02383E-17
4.57395E-05 1.77912E-17
4.87380E-05 1.57020E-17
5.18317E-05 1.39107E-17
5.50205E-05 1.23677E-17
5.83045E-05 1.10321E-17
6.16838E-05 9.87251E-18
6.51582E-05 8.86182E-18
6.87277E-05 7.97738E-18
7.23925E-05 7.20078E-18
7.61524E-05 6.51670E-18
9.21439E-05 4.47387E-18
1.09658E-04 3.17259E-18
1.28695E-04 2.31208E-18
1.49255E-04 1.72438E-18
1.71338E-04 1.31208E-18
1.94942E-04 1.01584E-18
2.20070E-04 7.98612E-19
2.46720E-04 6.36397E-19
2.74892E-04 5.13290E-19
3.04586E-04 4.18525E-19
3.35803E-04 3.44615E-19
3.68542E-04 2.86297E-19
4.02802E-04 2.39788E-19
4.38585E-04 2.02332E-19
4.75889E-04 1.71899E-19
5.14715E-04 1.46967E-19
5.55063E-04 1.26387E-19
5.96931E-04 1.09279E-19
6.40321E-04 9.49641E-20
6.85233E-04 8.29135E-20
7.31665E-04 7.27110E-20
7.79618E-04 6.40275E-20
8.29092E-04 5.65994E-20
8.80086E-04 5.02157E-20
9.32601E-04 4.47052E-20
9.86636E-04 3.99284E-20
1.04219E-03 3.57716E-20
1.09927E-03 3.21406E-20
1.15786E-03 2.89578E-20
1.21797E-03 2.61584E-20
1.27961E-03 2.36885E-20
1.34276E-03 2.15026E-20
1.40743E-03 1.95626E-20
1.47362E-03 1.78359E-20
1.54133E-03 1.62951E-20
1.61056E-03 1.49167E-20
1.68131E-03 1.36807E-20
1.75357E-03 1.25697E-20
1.82735E-03 1.15690E-20
1.90265E-03 1.06656E-20
1.97947E-03 9.84842E-21
2.05780E-03 9.10783E-21
2.13765E-03 8.43536E-21
2.21902E-03 7.82365E-21
2.30190E-03 7.26623E-21
2.38630E-03 6.75744E-21
2.47222E-03 6.29227E-21
2.55965E-03 5.86633E-21
2.64859E-03 5.47572E-21
2.73905E-03 5.11697E-21
2.83103E-03 4.78704E-21
2.92452E-03 4.48319E-21
3.01952E-03 4.20299E-21
3.11604E-03 3.94427E-21
3.21407E-03 3.70509E-21
3.31362E-03 3.48370E-21
3.41468E-03 3.27855E-21
3.51725E-03 3.08822E-21
3.62133E-03 2.91146E-21
3.72692E-03 2.74712E-21
3.83403E-03 2.59417E-21
3.94265E-03 2.45168E-21
4.05278E-03 2.31880E-21
4.16442E-03 2.19478E-21
4.27757E-03 2.07890E-21
4.39223E-03 1.97054E-21
4.50840E-03 1.86912E-21
4.62608E-03 1.77411E-21
4.74527E-03 1.68504E-21
4.86597E-03 1.60147E-21
4.98817E-03 1.52300E-21
5.11188E-03 1.44925E-21
5.23711E-03 1.37989E-21
5.36383E-03 1.31462E-21
5.49207E-03 1.25314E-21
5.62181E-03 1.19520E-21
5.75306E-03 1.14056E-21
5.88581E-03 1.08899E-21
6.02007E-03 1.04029E-21
6.15583E-03 9.94264E-22
6.29310E-03 9.50747E-22
6.43187E-03 9.09574E-22
6.57214E-03 8.70595E-22
6.71392E-03 8.33672E-22
6.85720E-03 7.98677E-22
7.00198E-03 7.65490E-22
7.14827E-03 7.34001E-22
7.29605E-03 7.04106E-22
7.44534E-03 6.75710E-22
7.59612E-03 6.48724E-22
7.97965E-03 5.86897E-22
8.37255E-03 5.32227E-22
8.77480E-03 4.83746E-22
9.18641E-03 4.40635E-22
9.60736E-03 4.02196E-22
1.00376E-02 3.67837E-22
1.04773E-02 3.37049E-22
1.09262E-02 3.09399E-22
1.13844E-02 2.84511E-22
1.18520E-02 2.62062E-22
1.23288E-02 2.41770E-22
1.28150E-02 2.23394E-22
1.33104E-02 2.06720E-22
1.38150E-02 1.91563E-22
1.43290E-02 1.77762E-22
1.48521E-02 1.65173E-22
1.53845E-02 1.53672E-22
1.59262E-02 1.43148E-22
1.64770E-02 1.33503E-22
1.70371E-02 1.24652E-22
1.76063E-02 1.16517E-22
1.81848E-02 1.09030E-22
1.87724E-02 1.02130E-22
1.93692E-02 9.57640E-23
1.99751E-02 8.98822E-23
2.05901E-02 8.44417E-23
2.12143E-02 7.94035E-23
2.18476E-02 7.47326E-23
2.24900E-02 7.03973E-23
2.31415E-02 6.63691E-23
2.38021E-02 6.26227E-23
2.44717E-02 5.91349E-23
2.51504E-02 5.58843E-23
2.58382E-02 5.28520E-23
2.65349E-02 5.00208E-23
2.72407E-02 4.73751E-23
2.79555E-02 4.49005E-23
2.86793E-02 4.25837E-23
2.94120E-02 4.04130E-23
3.01537E-02 3.83777E-23
3.09043E-02 3.64677E-23
3.16639E-02 3.46739E-23
3.24324E-02 3.29878E-23
3.32098E-02 3.14020E-23
3.39961E-02 2.99095E-23
3.47912E-02 2.85037E-23
3.55952E-02 2.71786E-23
3.64081E-02 2.59288E-23
3.72297E-02 2.47493E-23
3.80602E-02 2.36354E-23
3.88995E-02 2.25828E-23
3.97476E-02 2.15874E-23
4.06044E-02 2.06457E-23
4.14700E-02 1.97543E-23
4.23443E-02 1.89098E-23
4.32273E-02 1.81094E-23
4.41190E-02 1.73506E-23
4.50194E-02 1.66306E-23
4.59284E-02 1.59470E-23
4.68461E-02 1.52977E-23
4.87074E-02 1.40944E-23
5.06030E-02 1.30056E-23
5.25328E-02 1.20187E-23
5.44967E-02 1.11225E-23
5.64946E-02 1.03072E-23
5.85262E-02 9.56433E-24
6.05914E-02 8.88630E-24
6.26901E-02 8.26648E-24
6.48222E-02 7.69903E-24
6.69873E-02 7.17875E-24
6.91854E-02 6.70106E-24
7.14163E-02 6.26185E-24
7.36799E-02 5.85750E-24
7.59760E-02 5.48476E-24
7.83043E-02 5.14073E-24
8.06647E-02 4.82283E-24
8.30571E-02 4.52873E-24
8.54812E-02 4.25633E-24
8.79369E-02 4.00376E-24
9.04240E-02 3.76933E-24
9.29422E-02 3.55150E-24
9.54915E-02 3.34889E-24
9.80716E-02 3.16027E-24
1.00682E-01 2.98449E-24
1.03323E-01 2.82053E-24
1.05995E-01 2.66746E-24
1.08696E-01 2.52443E-24
1.11427E-01 2.39066E-24
1.14188E-01 2.26545E-24
1.16978E-01 2.14816E-24
1.19797E-01 2.03821E-24
1.22645E-01 1.93504E-24
1.25522E-01 1.83818E-24
1.28428E-01 1.74717E-24
1.31361E-01 1.66159E-24
1.34323E-01 1.58106E-24
1.37313E-01 1.50524E-24
1.40330E-01 1.43380E-24
1.43375E-01 1.36644E-24
1.46447E-01 1.30290E-24
1.49545E-01 1.24291E-24
1.52671E-01 1.18624E-24
1.55823E-01 1.13268E-24
1.59001E-01 1.08203E-24
1.62205E-01 1.03410E-24
1.65435E-01 9.88723E-25
1.68690E-01 9.45736E-25
1.71970E-01 9.04993E-25
1.75276E-01 8.66356E-25
1.78606E-01 8.29698E-25
1.81961E-01 7.94899E-25
1.85340E-01 7.61850E-25
1.88743E-01 7.30446E-25
1.92169E-01 7.00593E-25
1.95619E-01 6.72199E-25
1.99092E-01 6.45182E-25
2.02589E-01 6.19464E-25
2.06107E-01 5.94970E-25
2.09649E-01 5.71633E-25
2.13212E-01 5.49389E-25
2.16797E-01 5.28178E-25
2.20404E-01 5.07943E-25
2.24032E-01 4.88632E-25
2.27680E-01 4.70196E-25
2.31350E-01 4.52587E-25
2.35040E-01 4.35763E-25
2.38751E-01 4.19683E-25
2.42481E-01 4.04308E-25
2.46231E-01 3.89601E-25
2.50000E-01 3.75530E-25
2.53788E-01 3.62061E-25
2.57595E-01 3.49165E-25
2.61421E-01 3.36813E-25
2.65264E-01 3.24978E-25
2.69126E-01 3.13635E-25
2.73005E-01 3.02760E-25
2.76901E-01 2.92330E-25
2.80814E-01 2.82324E-25
2.84744E-01 2.72723E-25
2.88691E-01 2.63506E-25
2.92653E-01 2.54656E-25
2.96632E-01 2.46155E-25
3.00625E-01 2.37988E-25
3.04634E-01 2.30140E-25
3.08658E-01 2.22595E-25
3.12697E-01 2.15340E-25
3.16749E-01 2.08363E-25
3.20816E-01 2.01650E-25
3.24896E-01 1.95190E-25
3.28990E-01 1.88971E-25
3.33097E-01 1.82985E-25
3.37216E-01 1.77219E-25
3.41348E-01 1.71665E-25
3.45492E-01 1.66314E-25
3.49647E-01 1.61156E-25
3.53814E-01 1.56185E-25
3.57992E-01 1.51391E-25
3.62181E-01 1.46768E-25
3.66381E-01 1.42309E-25
3.70590E-01 1.38007E-25
3.74810E-01 1.33854E-25
3.79039E-01 1.29846E-25
3.83277E-01 1.25977E-25
3.87524E-01 1.22240E-25
3.91780E-01 1.18631E-25
3.96044E-01 1.15144E-25
4.00316E-01 1.11775E-25
4.04596E-01 1.08519E-25
4.08882E-01 1.05371E-25
4.13176E-01 1.02328E-25
4.17476E-01 9.93852E-26
4.21783E-01 9.65390E-26
4.26095E-01 9.37856E-26
4.30413E-01 9.11216E-26
4.34737E-01 8.85435E-26
4.39065E-01 8.60483E-26
4.43398E-01 8.36326E-26
4.47736E-01 8.12937E-26
4.52077E-01 7.90287E-26
4.56422E-01 7.68349E-26
4.60770E-01 7.47097E-26
4.65122E-01 7.26506E-26
4.69476E-01 7.06552E-26
4.73832E-01 6.87212E-26
4.78190E-01 6.68465E-26
4.82550E-01 6.50290E-26
4.86912E-01 6.32666E-26
4.91274E-01 6.15574E-26
4.95637E-01 5.98996E-26
5.00000E-01 5.82913E-26
5.04363E-01 5.67308E-26
5.08726E-01 5.52166E-26
5.13088E-01 5.37470E-26
5.17450E-01 5.23205E-26
5.21810E-01 5.09357E-26
5.26168E-01 4.95911E-26
5.30524E-01 4.82855E-26
5.34878E-01 4.70174E-26
5.39230E-01 4.57857E-26
5.43578E-01 4.45891E-26
5.47923E-01 4.34265E-26
5.52264E-01 4.22969E-26
5.56602E-01 4.11990E-26
5.60935E-01 4.01320E-26
5.65263E-01 3.90947E-26
5.69587E-01 3.80863E-26
5.73905E-01 3.71058E-26
5.78217E-01 3.61524E-26
5.82524E-01 3.52251E-26
5.86824E-01 3.43232E-26
5.91118E-01 3.34458E-26
5.95404E-01 3.25923E-26
5.99684E-01 3.17618E-26
6.03956E-01 3.09537E-26
6.08220E-01 3.01672E-26
6.12476E-01 2.94017E-26
6.16723E-01 2.86566E-26
6.20961E-01 2.79312E-26
6.25190E-01 2.72249E-26
6.29410E-01 2.65372E-26
6.33619E-01 2.58676E-26
6.37819E-01 2.52154E-26
6.42008E-01 2.45801E-26
6.46186E-01 2.39614E-26
6.50353E-01 2.33585E-26
6.54508E-01 2.27712E-26
6.58652E-01 2.21990E-26
6.62784E-01 2.16414E-26
6.66903E-01 2.10979E-26
6.71010E-01 2.05683E-26
6.75104E-01 2.00520E-26
6.79184E-01 1.95487E-26
6.83251E-01 1.90581E-26
6.87303E-01 1.85798E-26
6.91342E-01 1.81134E-26
6.95366E-01 1.76586E-26
6.99375E-01 1.72150E-26
7.03368E-01 1.67825E-26
7.07347E-01 1.63606E-26
7.11309E-01 1.59490E-26
7.15256E-01 1.55476E-26
7.19186E-01 1.51559E-26
7.23099E-01 1.47738E-26
7.26995E-01 1.44010E-26
7.30874E-01 1.40372E-26
7.34736E-01 1.36821E-26
7.38579E-01 1.33357E-26
7.42405E-01 1.29975E-26
7.46212E-01 1.26675E-26
7.50000E-01 1.23453E-26
7.53769E-01 1.20308E-26
7.57519E-01 1.17238E-26
7.61249E-01 1.14241E-26
7.64960E-01 1.11315E-26
7.68650E-01 1.08458E-26
7.72320E-01 1.05668E-26
7.75968E-01 1.02944E-26
7.79596E-01 1.00283E-26
7.83203E-01 9.76853E-27
7.86788E-01 9.51480E-27
7.90351E-01 9.26698E-27
7.93893E-01 9.02494E-27
7.97411E-01 8.78851E-27
8.00908E-01 8.55758E-27
8.04381E-01 8.33199E-27
8.07831E-01 8.11162E-27
8.11257E-01 7.89633E-27
8.14660E-01 7.68601E-27
8.18039E-01 7.48053E-27
8.21394E-01 7.27978E-27
8.24724E-01 7.08364E-27
8.28030E-01 6.89200E-27
8.31310E-01 6.70475E-27
8.34565E-01 6.52179E-27
8.37795E-01 6.34301E-27
8.40999E-01 6.16833E-27
8.44177E-01 5.99763E-27
8.47329E-01 5.83084E-27
8.50455E-01 5.66785E-27
8.53553E-01 5.50858E-27
8.56625E-01 5.35295E-27
8.59670E-01 5.20086E-27
8.62687E-01 5.05225E-27
8.65677E-01 4.90703E-27
8.68639E-01 4.76512E-27
8.71572E-01 4.62646E-27
8.74478E-01 4.49096E-27
8.77355E-01 4.35856E-27
8.80203E-01 4.22919E-27
8.83022E-01 4.10279E-27
8.85812E-01 3.97928E-27
8.88573E-01 3.85861E-27
8.91304E-01 3.74072E-27
8.94005E-01 3.62554E-27
8.96677E-01 3.51302E-27
8.99318E-01 3.40311E-27
9.01928E-01 3.29574E-27
9.04508E-01 3.19086E-27
9.07058E-01 3.08843E-27
9.09576E-01 2.98839E-27
9.12063E-01 2.89070E-27
9.14519E-01 2.79530E-27
9.16943E-01 2.70215E-27
9.19335E-01 2.61121E-27
9.21696E-01 2.52243E-27
9.24024E-01 2.43577E-27
9.26320E-01 2.35118E-27
9.28584E-01 2.26864E-27
9.30815E-01 2.18809E-27
9.33013E-01 2.10951E-27
9.35178E-01 2.03285E-27
9.37310E-01 1.95808E-27
9.39409E-01 1.88516E-27
9.41474E-01 1.81407E-27
9.43505E-01 1.74476E-27
9.45503E-01 1.67721E-27
9.47467E-01 1.61138E-27
9.49397E-01 1.54724E-27
9.51293E-01 1.48478E-27
9.53154E-01 1.42395E-27
9.54981E-01 1.36472E-27
9.56773E-01 1.30708E-27
9.58530E-01 1.25100E-27
9.60252E-01 1.19645E-27
9.61940E-01 1.14341E-27
9.63592E-01 1.09185E-27
9.65209E-01 1.04176E-27
9.66790E-01 9.93097E-28
9.68336E-01 9.45856E-28
9.69846E-01 9.00011E-28
9.71321E-01 8.55543E-28
9.72759E-01 8.12432E-28
9.74162E-01 7.70659E-28
9.75528E-01 7.30206E-28
9.76858E-01 6.91055E-28
9.78152E-01 6.53190E-28
9.79410E-01 6.16593E-28
9.80631E-01 5.81250E-28
9.81815E-01 5.47145E-28
9.82963E-01 5.14263E-28
9.84074E-01 4.82590E-28
9.85148E-01 4.52113E-28
9.86185E-01 4.22819E-28
9.87185E-01 3.94695E-28
9.88148E-01 3.67729E-28
9.89074E-01 3.41909E-28
9.89962E-01 3.17226E-28
9.90814E-01 2.93668E-28
9.91627E-01 2.71225E-28
9.92404E-01 2.49887E-28
9.93143E-01 2.29647E-28
9.93844E-01 2.10495E-28
9.94508E-01 1.92423E-28
9.95134E-01 1.75425E-28
9.95722E-01 1.59491E-28
9.96273E-01 1.44617E-28
9.96786E-01 1.30795E-28
9.97261E-01 1.18019E-28
9.97698E-01 1.06286E-28
9.98097E-01 9.55890E-29
9.98459E-01 8.59242E-29
9.98782E-01 7.72875E-29
9.99067E-01 6.96754E-29
9.99315E-01 6.30846E-29
9.99524E-01 5.75124E-29
9.99695E-01 5.29565E-29
9.99829E-01 4.94149E-29
9.99924E-01 4.68863E-29
9.99981E-01 4.53696E-29
1.00000E+00 4.48641E-29
