 #
 # Subroutine ELSEPA. Elastic scattering of electrons and positrons
 #                    by neutral atoms and positive ions
 #
 # Projectile: positron
 # Kinetic energy = 1.25000E+08 eV = 4.59367E+06 a.u.
 #
 # WARNING: High-energy factorization with free-atom DF screening.
 #          Absorption, polarization and exchange corrections are
 #          switched off.
 #          Phase shifts are calculated for the bare nucleus.
 #          Scattering amplitudes are not evaluated.
 #
 # Element: Tc,  Z =  43,  atomic weight = 9.89063E+01 g/mol
 #
 # Nuclear model: Fermi distribution
 #                Average radius = 4.94833E-13 cm
 #                Skin thickness = 5.46000E-14 cm
 #
 # Number of electrons = 43
 #
 # Total elastic cross section = 4.11821E-18 cm**2 = 1.47064E-01 a0**2
 # 1st transport cross section = 2.29392E-25 cm**2 = 8.19172E-09 a0**2
 # 2nd transport cross section = 6.83706E-25 cm**2 = 2.44156E-08 a0**2
 #
 #
 # Differential cross section:                       MU=(1-COS(THETA))/2
 #
 #  THETA        MU          DCS          DCS        Sherman      error
 #  (deg)                 (cm**2/sr)   (a0**2/sr)    function
 #----------------------------------------------------------------------
0.00000E+00 5.76997E-10
7.61557E-13 5.74469E-10
1.18994E-12 5.73059E-10
1.71346E-12 5.71345E-10
2.33225E-12 5.69331E-10
3.04617E-12 5.67023E-10
3.85530E-12 5.64428E-10
4.75964E-12 5.61554E-10
5.75917E-12 5.58409E-10
6.85391E-12 5.55000E-10
8.04379E-12 5.51338E-10
9.32893E-12 5.47432E-10
1.07092E-11 5.43293E-10
1.21847E-11 5.38931E-10
1.37554E-11 5.34358E-10
1.54213E-11 5.29572E-10
1.71823E-11 5.24595E-10
1.90386E-11 5.19453E-10
2.09900E-11 5.14159E-10
2.30367E-11 5.08717E-10
2.51785E-11 5.03094E-10
2.74156E-11 4.97357E-10
2.97478E-11 4.91519E-10
3.21752E-11 4.85592E-10
3.46979E-11 4.79529E-10
3.73157E-11 4.73383E-10
4.00286E-11 4.67184E-10
4.28368E-11 4.60944E-10
4.57402E-11 4.54637E-10
4.87388E-11 4.48255E-10
5.18325E-11 4.41863E-10
5.50215E-11 4.35471E-10
5.83057E-11 4.29086E-10
6.16850E-11 4.22620E-10
6.51595E-11 4.16181E-10
6.87293E-11 4.09777E-10
7.23943E-11 4.03413E-10
7.61544E-11 3.97029E-10
1.18991E-10 3.35810E-10
1.71347E-10 2.81568E-10
2.33223E-10 2.35548E-10
3.04617E-10 1.97250E-10
3.85531E-10 1.65752E-10
4.75965E-10 1.39881E-10
5.75917E-10 1.18536E-10
6.85389E-10 1.00858E-10
8.04380E-10 8.61697E-11
9.32891E-10 7.39026E-11
1.07092E-09 6.35855E-11
1.21847E-09 5.49021E-11
1.37554E-09 4.75659E-11
1.54213E-09 4.11086E-11
1.71823E-09 3.56171E-11
1.90386E-09 3.11370E-11
2.09900E-09 2.74487E-11
2.30367E-09 2.43241E-11
2.51785E-09 2.13741E-11
2.74156E-09 1.89088E-11
2.97478E-09 1.68339E-11
3.21752E-09 1.50757E-11
3.46978E-09 1.34702E-11
3.73156E-09 1.20695E-11
4.00286E-09 1.08674E-11
4.28368E-09 9.83032E-12
4.57402E-09 8.91067E-12
4.87388E-09 8.08209E-12
5.18326E-09 7.35902E-12
5.50215E-09 6.72533E-12
5.83057E-09 6.16716E-12
6.16850E-09 5.65326E-12
6.51596E-09 5.19850E-12
6.87293E-09 4.79466E-12
7.23942E-09 4.43485E-12
7.61544E-09 4.10484E-12
1.18991E-08 2.07314E-12
1.71347E-08 1.16485E-12
2.33223E-08 6.97124E-13
3.04617E-08 4.36470E-13
3.85531E-08 2.84931E-13
4.75965E-08 1.93112E-13
5.75917E-08 1.35476E-13
6.85389E-08 9.79428E-14
8.04380E-08 7.26604E-14
9.32891E-08 5.51205E-14
1.07092E-07 4.26237E-14
1.21847E-07 3.35057E-14
1.37554E-07 2.67109E-14
1.54213E-07 2.15433E-14
1.71823E-07 1.75818E-14
1.90386E-07 1.44801E-14
2.09900E-07 1.20409E-14
2.30367E-07 1.00801E-14
2.51785E-07 8.50661E-15
2.74156E-07 7.22384E-15
2.97478E-07 6.17323E-15
3.21752E-07 5.30591E-15
3.46978E-07 4.58380E-15
3.73156E-07 3.98108E-15
4.00286E-07 3.47237E-15
4.28368E-07 3.04281E-15
4.57402E-07 2.67706E-15
4.87388E-07 2.36461E-15
5.18325E-07 2.09640E-15
5.50215E-07 1.86492E-15
5.83057E-07 1.66467E-15
6.16850E-07 1.49037E-15
6.51596E-07 1.33841E-15
6.87293E-07 1.20527E-15
7.23942E-07 1.08830E-15
7.61543E-07 9.85211E-16
1.18991E-06 4.09312E-16
1.71347E-06 1.99475E-16
2.33223E-06 1.08529E-16
3.04617E-06 6.39971E-17
3.85531E-06 4.01318E-17
4.75964E-06 2.64191E-17
5.75916E-06 1.80905E-17
6.85388E-06 1.27978E-17
8.04378E-06 9.30528E-18
9.32888E-06 6.92608E-18
1.07092E-05 5.26041E-18
1.21846E-05 4.06634E-18
1.37553E-05 3.19242E-18
1.54212E-05 2.54101E-18
1.71822E-05 2.04749E-18
1.90385E-05 1.66777E-18
2.09899E-05 1.37268E-18
2.30365E-05 1.13996E-18
2.51783E-05 9.54399E-19
2.74153E-05 8.04994E-19
2.97475E-05 6.83652E-19
3.21749E-05 5.84318E-19
3.46974E-05 5.02399E-19
3.73152E-05 4.34365E-19
4.00281E-05 3.77484E-19
4.28362E-05 3.29621E-19
4.57395E-05 2.89105E-19
4.87380E-05 2.54617E-19
5.18317E-05 2.25110E-19
5.50205E-05 1.99747E-19
5.83045E-05 1.77853E-19
6.16838E-05 1.58878E-19
6.51582E-05 1.42368E-19
6.87277E-05 1.27950E-19
7.23925E-05 1.15313E-19
7.61524E-05 1.04232E-19
9.21439E-05 7.11604E-20
1.09658E-04 5.02178E-20
1.28695E-04 3.64421E-20
1.49255E-04 2.70782E-20
1.71338E-04 2.05370E-20
1.94942E-04 1.58553E-20
2.20070E-04 1.24340E-20
2.46720E-04 9.88705E-21
2.74892E-04 7.95940E-21
3.04586E-04 6.47915E-21
3.35803E-04 5.32713E-21
3.68542E-04 4.41990E-21
4.02802E-04 3.69759E-21
4.38585E-04 3.11679E-21
4.75889E-04 2.64554E-21
5.14715E-04 2.25993E-21
5.55063E-04 1.94198E-21
5.96931E-04 1.67794E-21
6.40321E-04 1.45721E-21
6.85233E-04 1.27154E-21
7.31665E-04 1.11446E-21
7.79618E-04 9.80848E-22
8.29092E-04 8.66629E-22
8.80086E-04 7.68524E-22
9.32601E-04 6.83881E-22
9.86636E-04 6.10545E-22
1.04219E-03 5.46754E-22
1.09927E-03 4.91055E-22
1.15786E-03 4.42249E-22
1.21797E-03 3.99339E-22
1.27961E-03 3.61491E-22
1.34276E-03 3.28007E-22
1.40743E-03 2.98297E-22
1.47362E-03 2.71863E-22
1.54133E-03 2.48281E-22
1.61056E-03 2.27191E-22
1.68131E-03 2.08283E-22
1.75357E-03 1.91293E-22
1.82735E-03 1.75993E-22
1.90265E-03 1.62184E-22
1.97947E-03 1.49697E-22
2.05780E-03 1.38382E-22
2.13765E-03 1.28110E-22
2.21902E-03 1.18769E-22
2.30190E-03 1.10258E-22
2.38630E-03 1.02492E-22
2.47222E-03 9.53930E-23
2.55965E-03 8.88943E-23
2.64859E-03 8.29358E-23
2.73905E-03 7.74649E-23
2.83103E-03 7.24344E-23
2.92452E-03 6.78027E-23
3.01952E-03 6.35325E-23
3.11604E-03 5.95905E-23
3.21407E-03 5.59471E-23
3.31362E-03 5.25756E-23
3.41468E-03 4.94521E-23
3.51725E-03 4.65550E-23
3.62133E-03 4.38651E-23
3.72692E-03 4.13648E-23
3.83403E-03 3.90385E-23
3.94265E-03 3.68717E-23
4.05278E-03 3.48517E-23
4.16442E-03 3.29667E-23
4.27757E-03 3.12061E-23
4.39223E-03 2.95602E-23
4.50840E-03 2.80201E-23
4.62608E-03 2.65778E-23
4.74527E-03 2.52261E-23
4.86597E-03 2.39582E-23
4.98817E-03 2.27679E-23
5.11188E-03 2.16497E-23
5.23711E-03 2.05985E-23
5.36383E-03 1.96094E-23
5.49207E-03 1.86782E-23
5.62181E-03 1.78008E-23
5.75306E-03 1.69736E-23
5.88581E-03 1.61932E-23
6.02007E-03 1.54565E-23
6.15583E-03 1.47605E-23
6.29310E-03 1.41027E-23
6.43187E-03 1.34805E-23
6.57214E-03 1.28918E-23
6.71392E-03 1.23342E-23
6.85720E-03 1.18060E-23
7.00198E-03 1.13053E-23
7.14827E-03 1.08304E-23
7.29605E-03 1.03797E-23
7.44534E-03 9.95182E-24
7.59612E-03 9.54533E-24
7.97965E-03 8.61471E-24
8.37255E-03 7.79274E-24
8.77480E-03 7.06466E-24
9.18641E-03 6.41797E-24
9.60736E-03 5.84209E-24
1.00376E-02 5.32798E-24
1.04773E-02 4.86792E-24
1.09262E-02 4.45531E-24
1.13844E-02 4.08443E-24
1.18520E-02 3.75038E-24
1.23288E-02 3.44890E-24
1.28150E-02 3.17628E-24
1.33104E-02 2.92932E-24
1.38150E-02 2.70520E-24
1.43290E-02 2.50146E-24
1.48521E-02 2.31594E-24
1.53845E-02 2.14675E-24
1.59262E-02 1.99222E-24
1.64770E-02 1.85087E-24
1.70371E-02 1.72139E-24
1.76063E-02 1.60262E-24
1.81848E-02 1.49353E-24
1.87724E-02 1.39322E-24
1.93692E-02 1.30085E-24
1.99751E-02 1.21569E-24
2.05901E-02 1.13710E-24
2.12143E-02 1.06448E-24
2.18476E-02 9.97316E-25
2.24900E-02 9.35123E-25
2.31415E-02 8.77478E-25
2.38021E-02 8.23994E-25
2.44717E-02 7.74326E-25
2.51504E-02 7.28156E-25
2.58382E-02 6.85201E-25
2.65349E-02 6.45202E-25
2.72407E-02 6.07923E-25
2.79555E-02 5.73150E-25
2.86793E-02 5.40690E-25
2.94120E-02 5.10365E-25
3.01537E-02 4.82012E-25
3.09043E-02 4.55484E-25
3.16639E-02 4.30646E-25
3.24324E-02 4.07374E-25
3.32098E-02 3.85553E-25
3.39961E-02 3.65080E-25
3.47912E-02 3.45860E-25
3.55952E-02 3.27804E-25
3.64081E-02 3.10831E-25
3.72297E-02 2.94867E-25
3.80602E-02 2.79843E-25
3.88995E-02 2.65695E-25
3.97476E-02 2.52365E-25
4.06044E-02 2.39800E-25
4.14700E-02 2.27948E-25
4.23443E-02 2.16763E-25
4.32273E-02 2.06204E-25
4.41190E-02 1.96229E-25
4.50194E-02 1.86802E-25
4.59284E-02 1.77888E-25
4.68461E-02 1.69457E-25
4.87074E-02 1.53922E-25
5.06030E-02 1.39985E-25
5.25328E-02 1.27460E-25
5.44967E-02 1.16186E-25
5.64946E-02 1.06024E-25
5.85262E-02 9.68494E-26
6.05914E-02 8.85555E-26
6.26901E-02 8.10477E-26
6.48222E-02 7.42427E-26
6.69873E-02 6.80671E-26
6.91854E-02 6.24563E-26
7.14163E-02 5.73527E-26
7.36799E-02 5.27055E-26
7.59760E-02 4.84696E-26
7.83043E-02 4.46045E-26
8.06647E-02 4.10746E-26
8.30571E-02 3.78478E-26
8.54812E-02 3.48954E-26
8.79369E-02 3.21918E-26
9.04240E-02 2.97140E-26
9.29422E-02 2.74414E-26
9.54915E-02 2.53554E-26
9.80716E-02 2.34394E-26
1.00682E-01 2.16781E-26
1.03323E-01 2.00581E-26
1.05995E-01 1.85670E-26
1.08696E-01 1.71937E-26
1.11427E-01 1.59282E-26
1.14188E-01 1.47614E-26
1.16978E-01 1.36849E-26
1.19797E-01 1.26912E-26
1.22645E-01 1.17735E-26
1.25522E-01 1.09256E-26
1.28428E-01 1.01417E-26
1.31361E-01 9.41678E-27
1.34323E-01 8.74605E-27
1.37313E-01 8.12519E-27
1.40330E-01 7.55028E-27
1.43375E-01 7.01770E-27
1.46447E-01 6.52415E-27
1.49545E-01 6.06662E-27
1.52671E-01 5.64232E-27
1.55823E-01 5.24871E-27
1.59001E-01 4.88346E-27
1.62205E-01 4.54442E-27
1.65435E-01 4.22962E-27
1.68690E-01 3.93725E-27
1.71970E-01 3.66563E-27
1.75276E-01 3.41322E-27
1.78606E-01 3.17862E-27
1.81961E-01 2.96051E-27
1.85340E-01 2.75770E-27
1.88743E-01 2.56906E-27
1.92169E-01 2.39357E-27
1.95619E-01 2.23028E-27
1.99092E-01 2.07832E-27
2.02589E-01 1.93687E-27
2.06107E-01 1.80519E-27
2.09649E-01 1.68258E-27
2.13212E-01 1.56841E-27
2.16797E-01 1.46206E-27
2.20404E-01 1.36301E-27
2.24032E-01 1.27072E-27
2.27680E-01 1.18474E-27
2.31350E-01 1.10461E-27
2.35040E-01 1.02995E-27
2.38751E-01 9.60351E-28
2.42481E-01 8.95482E-28
2.46231E-01 8.35012E-28
2.50000E-01 7.78638E-28
2.53788E-01 7.26078E-28
2.57595E-01 6.77072E-28
2.61421E-01 6.31375E-28
2.65264E-01 5.88763E-28
2.69126E-01 5.49025E-28
2.73005E-01 5.11965E-28
2.76901E-01 4.77402E-28
2.80814E-01 4.45166E-28
2.84744E-01 4.15100E-28
2.88691E-01 3.87056E-28
2.92653E-01 3.60899E-28
2.96632E-01 3.36501E-28
3.00625E-01 3.13743E-28
3.04634E-01 2.92515E-28
3.08658E-01 2.72714E-28
3.12697E-01 2.54244E-28
3.16749E-01 2.37016E-28
3.20816E-01 2.20947E-28
3.24896E-01 2.05958E-28
3.28990E-01 1.91977E-28
3.33097E-01 1.78937E-28
3.37216E-01 1.66775E-28
3.41348E-01 1.55432E-28
3.45492E-01 1.44852E-28
3.49647E-01 1.34986E-28
3.53814E-01 1.25785E-28
3.57992E-01 1.17205E-28
3.62181E-01 1.09204E-28
3.66381E-01 1.01744E-28
3.70590E-01 9.47876E-29
3.74810E-01 8.83021E-29
3.79039E-01 8.22556E-29
3.83277E-01 7.66187E-29
3.87524E-01 7.13641E-29
3.91780E-01 6.64662E-29
3.96044E-01 6.19009E-29
4.00316E-01 5.76461E-29
4.04596E-01 5.36808E-29
4.08882E-01 4.99857E-29
4.13176E-01 4.65426E-29
4.17476E-01 4.33345E-29
4.21783E-01 4.03457E-29
4.26095E-01 3.75614E-29
4.30413E-01 3.49678E-29
4.34737E-01 3.25520E-29
4.39065E-01 3.03021E-29
4.43398E-01 2.82068E-29
4.47736E-01 2.62557E-29
4.52077E-01 2.44390E-29
4.56422E-01 2.27477E-29
4.60770E-01 2.11732E-29
4.65122E-01 1.97075E-29
4.69476E-01 1.83434E-29
4.73832E-01 1.70738E-29
4.78190E-01 1.58923E-29
4.82550E-01 1.47930E-29
4.86912E-01 1.37701E-29
4.91274E-01 1.28186E-29
4.95637E-01 1.19334E-29
5.00000E-01 1.11100E-29
5.04363E-01 1.03442E-29
5.08726E-01 9.63209E-30
5.13088E-01 8.96986E-30
5.17450E-01 8.35411E-30
5.21810E-01 7.78162E-30
5.26168E-01 7.24940E-30
5.30524E-01 6.75465E-30
5.34878E-01 6.29478E-30
5.39230E-01 5.86736E-30
5.43578E-01 5.47012E-30
5.47923E-01 5.10096E-30
5.52264E-01 4.75791E-30
5.56602E-01 4.43915E-30
5.60935E-01 4.14297E-30
5.65263E-01 3.86778E-30
5.69587E-01 3.61210E-30
5.73905E-01 3.37456E-30
5.78217E-01 3.15387E-30
5.82524E-01 2.94885E-30
5.86824E-01 2.75838E-30
5.91118E-01 2.58142E-30
5.95404E-01 2.41702E-30
5.99684E-01 2.26427E-30
6.03956E-01 2.12235E-30
6.08220E-01 1.99047E-30
6.12476E-01 1.86793E-30
6.16723E-01 1.75404E-30
6.20961E-01 1.64819E-30
6.25190E-01 1.54980E-30
6.29410E-01 1.45832E-30
6.33619E-01 1.37326E-30
6.37819E-01 1.29414E-30
6.42008E-01 1.22055E-30
6.46186E-01 1.15207E-30
6.50353E-01 1.08834E-30
6.54508E-01 1.02901E-30
6.58652E-01 9.73753E-31
6.62784E-01 9.22276E-31
6.66903E-01 8.74300E-31
6.71010E-01 8.29569E-31
6.75104E-01 7.87845E-31
6.79184E-01 7.48907E-31
6.83251E-01 7.12549E-31
6.87303E-01 6.78582E-31
6.91342E-01 6.46830E-31
6.95366E-01 6.17129E-31
6.99375E-01 5.89328E-31
7.03368E-01 5.63287E-31
7.07347E-01 5.38877E-31
7.11309E-01 5.15976E-31
7.15256E-01 4.94474E-31
7.19186E-01 4.74268E-31
7.23099E-01 4.55263E-31
7.26995E-01 4.37370E-31
7.30874E-01 4.20508E-31
7.34736E-01 4.04601E-31
7.38579E-01 3.89581E-31
7.42405E-01 3.75382E-31
7.46212E-01 3.61944E-31
7.50000E-01 3.49213E-31
7.53769E-01 3.37139E-31
7.57519E-01 3.25673E-31
7.61249E-01 3.14773E-31
7.64960E-01 3.04399E-31
7.68650E-01 2.94514E-31
7.72320E-01 2.85083E-31
7.75968E-01 2.76075E-31
7.79596E-01 2.67462E-31
7.83203E-01 2.59216E-31
7.86788E-01 2.51313E-31
7.90351E-01 2.43730E-31
7.93893E-01 2.36446E-31
7.97411E-01 2.29441E-31
8.00908E-01 2.22699E-31
8.04381E-01 2.16202E-31
8.07831E-01 2.09935E-31
8.11257E-01 2.03885E-31
8.14660E-01 1.98039E-31
8.18039E-01 1.92384E-31
8.21394E-01 1.86910E-31
8.24724E-01 1.81606E-31
8.28030E-01 1.76464E-31
8.31310E-01 1.71475E-31
8.34565E-01 1.66631E-31
8.37795E-01 1.61925E-31
8.40999E-01 1.57350E-31
8.44177E-01 1.52900E-31
8.47329E-01 1.48568E-31
8.50455E-01 1.44351E-31
8.53553E-01 1.40243E-31
8.56625E-01 1.36239E-31
8.59670E-01 1.32335E-31
8.62687E-01 1.28528E-31
8.65677E-01 1.24814E-31
8.68639E-01 1.21189E-31
8.71572E-01 1.17651E-31
8.74478E-01 1.14196E-31
8.77355E-01 1.10823E-31
8.80203E-01 1.07527E-31
8.83022E-01 1.04308E-31
8.85812E-01 1.01162E-31
8.88573E-01 9.80886E-32
8.91304E-01 9.50849E-32
8.94005E-01 9.21494E-32
8.96677E-01 8.92804E-32
8.99318E-01 8.64762E-32
9.01928E-01 8.37355E-32
9.04508E-01 8.10566E-32
9.07058E-01 7.84384E-32
9.09576E-01 7.58795E-32
9.12063E-01 7.33787E-32
9.14519E-01 7.09349E-32
9.16943E-01 6.85469E-32
9.19335E-01 6.62137E-32
9.21696E-01 6.39343E-32
9.24024E-01 6.17076E-32
9.26320E-01 5.95328E-32
9.28584E-01 5.74089E-32
9.30815E-01 5.53351E-32
9.33013E-01 5.33105E-32
9.35178E-01 5.13343E-32
9.37310E-01 4.94057E-32
9.39409E-01 4.75239E-32
9.41474E-01 4.56883E-32
9.43505E-01 4.38980E-32
9.45503E-01 4.21523E-32
9.47467E-01 4.04505E-32
9.49397E-01 3.87921E-32
9.51293E-01 3.71763E-32
9.53154E-01 3.56024E-32
9.54981E-01 3.40699E-32
9.56773E-01 3.25782E-32
9.58530E-01 3.11266E-32
9.60252E-01 2.97145E-32
9.61940E-01 2.83415E-32
9.63592E-01 2.70069E-32
9.65209E-01 2.57102E-32
9.66790E-01 2.44508E-32
9.68336E-01 2.32283E-32
9.69846E-01 2.20421E-32
9.71321E-01 2.08917E-32
9.72759E-01 1.97767E-32
9.74162E-01 1.86965E-32
9.75528E-01 1.76508E-32
9.76858E-01 1.66390E-32
9.78152E-01 1.56608E-32
9.79410E-01 1.47157E-32
9.80631E-01 1.38032E-32
9.81815E-01 1.29230E-32
9.82963E-01 1.20748E-32
9.84074E-01 1.12580E-32
9.85148E-01 1.04724E-32
9.86185E-01 9.71760E-33
9.87185E-01 8.99322E-33
9.88148E-01 8.29900E-33
9.89074E-01 7.63457E-33
9.89962E-01 6.99962E-33
9.90814E-01 6.39388E-33
9.91627E-01 5.81706E-33
9.92404E-01 5.26889E-33
9.93143E-01 4.74909E-33
9.93844E-01 4.25745E-33
9.94508E-01 3.79373E-33
9.95134E-01 3.35768E-33
9.95722E-01 2.94911E-33
9.96273E-01 2.56782E-33
9.96786E-01 2.21363E-33
9.97261E-01 1.88637E-33
9.97698E-01 1.58586E-33
9.98097E-01 1.31200E-33
9.98459E-01 1.06461E-33
9.98782E-01 8.43589E-34
9.99067E-01 6.48817E-34
9.99315E-01 4.80221E-34
9.99524E-01 3.37688E-34
9.99695E-01 2.21175E-34
9.99829E-01 1.30621E-34
9.99924E-01 6.59583E-35
9.99981E-01 2.71825E-35
1.00000E+00 1.42577E-35
