 #
 # Subroutine ELSEPA. Elastic scattering of electrons and positrons
 #                    by neutral atoms and positive ions
 #
 # Projectile: positron
 # Kinetic energy = 3.00000E+07 eV = 1.10248E+06 a.u.
 #
 # WARNING: High-energy factorization with free-atom DF screening.
 #          Absorption, polarization and exchange corrections are
 #          switched off.
 #          Phase shifts are calculated for the bare nucleus.
 #          Scattering amplitudes are not evaluated.
 #
 # Element: Tc,  Z =  43,  atomic weight = 9.89063E+01 g/mol
 #
 # Nuclear model: Fermi distribution
 #                Average radius = 4.94833E-13 cm
 #                Skin thickness = 5.46000E-14 cm
 #
 # Number of electrons = 43
 #
 # Total elastic cross section = 4.11826E-18 cm**2 = 1.47066E-01 a0**2
 # 1st transport cross section = 3.47434E-24 cm**2 = 1.24071E-07 a0**2
 # 2nd transport cross section = 1.01421E-23 cm**2 = 3.62180E-07 a0**2
 #
 #
 # Differential cross section:                       MU=(1-COS(THETA))/2
 #
 #  THETA        MU          DCS          DCS        Sherman      error
 #  (deg)                 (cm**2/sr)   (a0**2/sr)    function
 #----------------------------------------------------------------------
0.00000E+00 3.40975E-11
7.61557E-13 3.40885E-11
1.18994E-12 3.40835E-11
1.71346E-12 3.40774E-11
2.33225E-12 3.40702E-11
3.04617E-12 3.40620E-11
3.85530E-12 3.40526E-11
4.75964E-12 3.40421E-11
5.75917E-12 3.40305E-11
6.85391E-12 3.40178E-11
8.04379E-12 3.40040E-11
9.32893E-12 3.39892E-11
1.07092E-11 3.39732E-11
1.21847E-11 3.39562E-11
1.37554E-11 3.39381E-11
1.54213E-11 3.39190E-11
1.71823E-11 3.38987E-11
1.90386E-11 3.38774E-11
2.09900E-11 3.38550E-11
2.30367E-11 3.38316E-11
2.51785E-11 3.38071E-11
2.74156E-11 3.37815E-11
2.97478E-11 3.37549E-11
3.21752E-11 3.37273E-11
3.46979E-11 3.36986E-11
3.73157E-11 3.36689E-11
4.00286E-11 3.36381E-11
4.28368E-11 3.36063E-11
4.57402E-11 3.35735E-11
4.87388E-11 3.35397E-11
5.18325E-11 3.35049E-11
5.50215E-11 3.34691E-11
5.83057E-11 3.34323E-11
6.16850E-11 3.33945E-11
6.51595E-11 3.33557E-11
6.87293E-11 3.33160E-11
7.23943E-11 3.32752E-11
7.61544E-11 3.32335E-11
1.18991E-10 3.27652E-11
1.71347E-10 3.22090E-11
2.33223E-10 3.15735E-11
3.04617E-10 3.08665E-11
3.85531E-10 3.01030E-11
4.75965E-10 2.92858E-11
5.75917E-10 2.84323E-11
6.85389E-10 2.75462E-11
8.04380E-10 2.66408E-11
9.32891E-10 2.57228E-11
1.07092E-09 2.47992E-11
1.21847E-09 2.38804E-11
1.37554E-09 2.29659E-11
1.54213E-09 2.20702E-11
1.71823E-09 2.11853E-11
1.90386E-09 2.03268E-11
2.09900E-09 1.94885E-11
2.30367E-09 1.86783E-11
2.51785E-09 1.78950E-11
2.74156E-09 1.71390E-11
2.97478E-09 1.64146E-11
3.21752E-09 1.57153E-11
3.46978E-09 1.50501E-11
3.73156E-09 1.44073E-11
4.00286E-09 1.37973E-11
4.28368E-09 1.32115E-11
4.57402E-09 1.26539E-11
4.87388E-09 1.21215E-11
5.18326E-09 1.16128E-11
5.50215E-09 1.11298E-11
5.83057E-09 1.06662E-11
6.16850E-09 1.02282E-11
6.51596E-09 9.80595E-12
6.87293E-09 9.40691E-12
7.23942E-09 9.02417E-12
7.61544E-09 8.66043E-12
1.18991E-08 5.81690E-12
1.71347E-08 3.99799E-12
2.33223E-08 2.80500E-12
3.04617E-08 1.98027E-12
3.85531E-08 1.46130E-12
4.75965E-08 1.07751E-12
5.75917E-08 8.19941E-13
6.85389E-08 6.31223E-13
8.04380E-08 4.96403E-13
9.32891E-08 3.96361E-13
1.07092E-07 3.21275E-13
1.21847E-07 2.64250E-13
1.37554E-07 2.19535E-13
1.54213E-07 1.84763E-13
1.71823E-07 1.56391E-13
1.90386E-07 1.33729E-13
2.09900E-07 1.14904E-13
2.30367E-07 9.93944E-14
2.51785E-07 8.63775E-14
2.74156E-07 7.53633E-14
2.97478E-07 6.60749E-14
3.21752E-07 5.80428E-14
3.46978E-07 5.12507E-14
3.73156E-07 4.52868E-14
4.00286E-07 4.01975E-14
4.28368E-07 3.57390E-14
4.57402E-07 3.18777E-14
4.87388E-07 2.85003E-14
5.18325E-07 2.55410E-14
5.50215E-07 2.29531E-14
5.83057E-07 2.06662E-14
6.16850E-07 1.86634E-14
6.51596E-07 1.68765E-14
6.87293E-07 1.53032E-14
7.23942E-07 1.39029E-14
7.61543E-07 1.26605E-14
1.18991E-06 5.51741E-15
1.71347E-06 2.79532E-15
2.33223E-06 1.57220E-15
3.04617E-06 9.51240E-16
3.85531E-06 6.08057E-16
4.75964E-06 4.06162E-16
5.75916E-06 2.81007E-16
6.85388E-06 2.00366E-16
8.04378E-06 1.46600E-16
9.32888E-06 1.09660E-16
1.07092E-05 8.36503E-17
1.21846E-05 6.49084E-17
1.37553E-05 5.11348E-17
1.54212E-05 4.08322E-17
1.71822E-05 3.29992E-17
1.90385E-05 2.69550E-17
2.09899E-05 2.22445E-17
2.30365E-05 1.85192E-17
2.51783E-05 1.55414E-17
2.74153E-05 1.31374E-17
2.97475E-05 1.11805E-17
3.21749E-05 9.57478E-18
3.46974E-05 8.24757E-18
3.73152E-05 7.14313E-18
4.00281E-05 6.21776E-18
4.28362E-05 5.43766E-18
4.57395E-05 4.77611E-18
4.87380E-05 4.21195E-18
5.18317E-05 3.72852E-18
5.50205E-05 3.31230E-18
5.83045E-05 2.95248E-18
6.16838E-05 2.64019E-18
6.51582E-05 2.36810E-18
6.87277E-05 2.13019E-18
7.23925E-05 1.92142E-18
7.61524E-05 1.73762E-18
9.21439E-05 1.18946E-18
1.09658E-04 8.41141E-19
1.28695E-04 6.11395E-19
1.49255E-04 4.54885E-19
1.71338E-04 3.45360E-19
1.94942E-04 2.66857E-19
2.20070E-04 2.09419E-19
2.46720E-04 1.66620E-19
2.74892E-04 1.34200E-19
3.04586E-04 1.09288E-19
3.35803E-04 8.98895E-20
3.68542E-04 7.46051E-20
4.02802E-04 6.24311E-20
4.38585E-04 5.26385E-20
4.75889E-04 4.46905E-20
5.14715E-04 3.81852E-20
5.55063E-04 3.28201E-20
5.96931E-04 2.83635E-20
6.40321E-04 2.46372E-20
6.85233E-04 2.15023E-20
7.31665E-04 1.88496E-20
7.79618E-04 1.65931E-20
8.29092E-04 1.46637E-20
8.80086E-04 1.30063E-20
9.32601E-04 1.15762E-20
9.86636E-04 1.03370E-20
1.04219E-03 9.25891E-21
1.09927E-03 8.31752E-21
1.15786E-03 7.49255E-21
1.21797E-03 6.76716E-21
1.27961E-03 6.12728E-21
1.34276E-03 5.56112E-21
1.40743E-03 5.05872E-21
1.47362E-03 4.61168E-21
1.54133E-03 4.21282E-21
1.61056E-03 3.85606E-21
1.68131E-03 3.53619E-21
1.75357E-03 3.24873E-21
1.82735E-03 2.98983E-21
1.90265E-03 2.75614E-21
1.97947E-03 2.54478E-21
2.05780E-03 2.35325E-21
2.13765E-03 2.17935E-21
2.21902E-03 2.02117E-21
2.30190E-03 1.87706E-21
2.38630E-03 1.74552E-21
2.47222E-03 1.62527E-21
2.55965E-03 1.51517E-21
2.64859E-03 1.41421E-21
2.73905E-03 1.32149E-21
2.83103E-03 1.23622E-21
2.92452E-03 1.15770E-21
3.01952E-03 1.08530E-21
3.11604E-03 1.01845E-21
3.21407E-03 9.56646E-22
3.31362E-03 8.99447E-22
3.41468E-03 8.46446E-22
3.51725E-03 7.97278E-22
3.62133E-03 7.51615E-22
3.72692E-03 7.09163E-22
3.83403E-03 6.69654E-22
3.94265E-03 6.32849E-22
4.05278E-03 5.98529E-22
4.16442E-03 5.66495E-22
4.27757E-03 5.36568E-22
4.39223E-03 5.08582E-22
4.50840E-03 4.82389E-22
4.62608E-03 4.57855E-22
4.74527E-03 4.34855E-22
4.86597E-03 4.13275E-22
4.98817E-03 3.93011E-22
5.11188E-03 3.73968E-22
5.23711E-03 3.56059E-22
5.36383E-03 3.39206E-22
5.49207E-03 3.23333E-22
5.62181E-03 3.08374E-22
5.75306E-03 2.94266E-22
5.88581E-03 2.80951E-22
6.02007E-03 2.68378E-22
6.15583E-03 2.56497E-22
6.29310E-03 2.45263E-22
6.43187E-03 2.34634E-22
6.57214E-03 2.24572E-22
6.71392E-03 2.15041E-22
6.85720E-03 2.06007E-22
7.00198E-03 1.97441E-22
7.14827E-03 1.89313E-22
7.29605E-03 1.81597E-22
7.44534E-03 1.74267E-22
7.59612E-03 1.67302E-22
7.97965E-03 1.51345E-22
8.37255E-03 1.37235E-22
8.77480E-03 1.24724E-22
9.18641E-03 1.13598E-22
9.60736E-03 1.03679E-22
1.00376E-02 9.48137E-23
1.04773E-02 8.68696E-23
1.09262E-02 7.97361E-23
1.13844E-02 7.33148E-23
1.18520E-02 6.75231E-23
1.23288E-02 6.22887E-23
1.28150E-02 5.75483E-23
1.33104E-02 5.32473E-23
1.38150E-02 4.93379E-23
1.43290E-02 4.57783E-23
1.48521E-02 4.25316E-23
1.53845E-02 3.95656E-23
1.59262E-02 3.68517E-23
1.64770E-02 3.43648E-23
1.70371E-02 3.20824E-23
1.76063E-02 2.99850E-23
1.81848E-02 2.80547E-23
1.87724E-02 2.62760E-23
1.93692E-02 2.46348E-23
1.99751E-02 2.31186E-23
2.05901E-02 2.17163E-23
2.12143E-02 2.04177E-23
2.18476E-02 1.92139E-23
2.24900E-02 1.80966E-23
2.31415E-02 1.70586E-23
2.38021E-02 1.60933E-23
2.44717E-02 1.51946E-23
2.51504E-02 1.43571E-23
2.58382E-02 1.35760E-23
2.65349E-02 1.28467E-23
2.72407E-02 1.21652E-23
2.79555E-02 1.15278E-23
2.86793E-02 1.09312E-23
2.94120E-02 1.03722E-23
3.01537E-02 9.84812E-24
3.09043E-02 9.35634E-24
3.16639E-02 8.89451E-24
3.24324E-02 8.46049E-24
3.32098E-02 8.05231E-24
3.39961E-02 7.66814E-24
3.47912E-02 7.30633E-24
3.55952E-02 6.96535E-24
3.64081E-02 6.64377E-24
3.72297E-02 6.34029E-24
3.80602E-02 6.05372E-24
3.88995E-02 5.78294E-24
3.97476E-02 5.52693E-24
4.06044E-02 5.28473E-24
4.14700E-02 5.05548E-24
4.23443E-02 4.83834E-24
4.32273E-02 4.63257E-24
4.41190E-02 4.43747E-24
4.50194E-02 4.25238E-24
4.59284E-02 4.07670E-24
4.68461E-02 3.90985E-24
4.87074E-02 3.60064E-24
5.06030E-02 3.32094E-24
5.25328E-02 3.06747E-24
5.44967E-02 2.83735E-24
5.64946E-02 2.62807E-24
5.85262E-02 2.43742E-24
6.05914E-02 2.26345E-24
6.26901E-02 2.10447E-24
6.48222E-02 1.95895E-24
6.69873E-02 1.82557E-24
6.91854E-02 1.70314E-24
7.14163E-02 1.59061E-24
7.36799E-02 1.48705E-24
7.59760E-02 1.39161E-24
7.83043E-02 1.30355E-24
8.06647E-02 1.22220E-24
8.30571E-02 1.14697E-24
8.54812E-02 1.07731E-24
8.79369E-02 1.01274E-24
9.04240E-02 9.52831E-25
9.29422E-02 8.97184E-25
9.54915E-02 8.45446E-25
9.80716E-02 7.97295E-25
1.00682E-01 7.52439E-25
1.03323E-01 7.10615E-25
1.05995E-01 6.71584E-25
1.08696E-01 6.35126E-25
1.11427E-01 6.01043E-25
1.14188E-01 5.69155E-25
1.16978E-01 5.39296E-25
1.19797E-01 5.11315E-25
1.22645E-01 4.85073E-25
1.25522E-01 4.60444E-25
1.28428E-01 4.37313E-25
1.31361E-01 4.15573E-25
1.34323E-01 3.95125E-25
1.37313E-01 3.75881E-25
1.40330E-01 3.57757E-25
1.43375E-01 3.40677E-25
1.46447E-01 3.24571E-25
1.49545E-01 3.09373E-25
1.52671E-01 2.95025E-25
1.55823E-01 2.81470E-25
1.59001E-01 2.68658E-25
1.62205E-01 2.56540E-25
1.65435E-01 2.45073E-25
1.68690E-01 2.34216E-25
1.71970E-01 2.23931E-25
1.75276E-01 2.14183E-25
1.78606E-01 2.04939E-25
1.81961E-01 1.96169E-25
1.85340E-01 1.87844E-25
1.88743E-01 1.79938E-25
1.92169E-01 1.72427E-25
1.95619E-01 1.65287E-25
1.99092E-01 1.58498E-25
2.02589E-01 1.52038E-25
2.06107E-01 1.45890E-25
2.09649E-01 1.40035E-25
2.13212E-01 1.34458E-25
2.16797E-01 1.29144E-25
2.20404E-01 1.24077E-25
2.24032E-01 1.19244E-25
2.27680E-01 1.14633E-25
2.31350E-01 1.10232E-25
2.35040E-01 1.06030E-25
2.38751E-01 1.02017E-25
2.42481E-01 9.81813E-26
2.46231E-01 9.45154E-26
2.50000E-01 9.10100E-26
2.53788E-01 8.76571E-26
2.57595E-01 8.44489E-26
2.61421E-01 8.13782E-26
2.65264E-01 7.84381E-26
2.69126E-01 7.56222E-26
2.73005E-01 7.29244E-26
2.76901E-01 7.03389E-26
2.80814E-01 6.78603E-26
2.84744E-01 6.54835E-26
2.88691E-01 6.32037E-26
2.92653E-01 6.10162E-26
2.96632E-01 5.89167E-26
3.00625E-01 5.69011E-26
3.04634E-01 5.49656E-26
3.08658E-01 5.31064E-26
3.12697E-01 5.13201E-26
3.16749E-01 4.96033E-26
3.20816E-01 4.79530E-26
3.24896E-01 4.63661E-26
3.28990E-01 4.48398E-26
3.33097E-01 4.33715E-26
3.37216E-01 4.19586E-26
3.41348E-01 4.05987E-26
3.45492E-01 3.92895E-26
3.49647E-01 3.80288E-26
3.53814E-01 3.68145E-26
3.57992E-01 3.56447E-26
3.62181E-01 3.45175E-26
3.66381E-01 3.34311E-26
3.70590E-01 3.23838E-26
3.74810E-01 3.13740E-26
3.79039E-01 3.04001E-26
3.83277E-01 2.94607E-26
3.87524E-01 2.85543E-26
3.91780E-01 2.76796E-26
3.96044E-01 2.68354E-26
4.00316E-01 2.60204E-26
4.04596E-01 2.52334E-26
4.08882E-01 2.44734E-26
4.13176E-01 2.37393E-26
4.17476E-01 2.30300E-26
4.21783E-01 2.23447E-26
4.26095E-01 2.16823E-26
4.30413E-01 2.10421E-26
4.34737E-01 2.04231E-26
4.39065E-01 1.98245E-26
4.43398E-01 1.92456E-26
4.47736E-01 1.86856E-26
4.52077E-01 1.81439E-26
4.56422E-01 1.76197E-26
4.60770E-01 1.71124E-26
4.65122E-01 1.66213E-26
4.69476E-01 1.61460E-26
4.73832E-01 1.56857E-26
4.78190E-01 1.52400E-26
4.82550E-01 1.48083E-26
4.86912E-01 1.43901E-26
4.91274E-01 1.39850E-26
4.95637E-01 1.35924E-26
5.00000E-01 1.32120E-26
5.04363E-01 1.28433E-26
5.08726E-01 1.24858E-26
5.13088E-01 1.21393E-26
5.17450E-01 1.18033E-26
5.21810E-01 1.14775E-26
5.26168E-01 1.11614E-26
5.30524E-01 1.08548E-26
5.34878E-01 1.05574E-26
5.39230E-01 1.02688E-26
5.43578E-01 9.98881E-27
5.47923E-01 9.71702E-27
5.52264E-01 9.45322E-27
5.56602E-01 9.19712E-27
5.60935E-01 8.94849E-27
5.65263E-01 8.70707E-27
5.69587E-01 8.47262E-27
5.73905E-01 8.24492E-27
5.78217E-01 8.02374E-27
5.82524E-01 7.80889E-27
5.86824E-01 7.60014E-27
5.91118E-01 7.39731E-27
5.95404E-01 7.20021E-27
5.99684E-01 7.00865E-27
6.03956E-01 6.82246E-27
6.08220E-01 6.64147E-27
6.12476E-01 6.46552E-27
6.16723E-01 6.29444E-27
6.20961E-01 6.12809E-27
6.25190E-01 5.96632E-27
6.29410E-01 5.80898E-27
6.33619E-01 5.65595E-27
6.37819E-01 5.50709E-27
6.42008E-01 5.36227E-27
6.46186E-01 5.22136E-27
6.50353E-01 5.08426E-27
6.54508E-01 4.95084E-27
6.58652E-01 4.82100E-27
6.62784E-01 4.69463E-27
6.66903E-01 4.57162E-27
6.71010E-01 4.45188E-27
6.75104E-01 4.33530E-27
6.79184E-01 4.22180E-27
6.83251E-01 4.11128E-27
6.87303E-01 4.00366E-27
6.91342E-01 3.89885E-27
6.95366E-01 3.79678E-27
6.99375E-01 3.69736E-27
7.03368E-01 3.60051E-27
7.07347E-01 3.50617E-27
7.11309E-01 3.41425E-27
7.15256E-01 3.32470E-27
7.19186E-01 3.23744E-27
7.23099E-01 3.15242E-27
7.26995E-01 3.06956E-27
7.30874E-01 2.98880E-27
7.34736E-01 2.91010E-27
7.38579E-01 2.83338E-27
7.42405E-01 2.75861E-27
7.46212E-01 2.68571E-27
7.50000E-01 2.61464E-27
7.53769E-01 2.54536E-27
7.57519E-01 2.47780E-27
7.61249E-01 2.41193E-27
7.64960E-01 2.34770E-27
7.68650E-01 2.28507E-27
7.72320E-01 2.22398E-27
7.75968E-01 2.16441E-27
7.79596E-01 2.10630E-27
7.83203E-01 2.04963E-27
7.86788E-01 1.99435E-27
7.90351E-01 1.94043E-27
7.93893E-01 1.88782E-27
7.97411E-01 1.83651E-27
8.00908E-01 1.78644E-27
8.04381E-01 1.73760E-27
8.07831E-01 1.68994E-27
8.11257E-01 1.64344E-27
8.14660E-01 1.59807E-27
8.18039E-01 1.55380E-27
8.21394E-01 1.51060E-27
8.24724E-01 1.46845E-27
8.28030E-01 1.42731E-27
8.31310E-01 1.38716E-27
8.34565E-01 1.34798E-27
8.37795E-01 1.30975E-27
8.40999E-01 1.27243E-27
8.44177E-01 1.23601E-27
8.47329E-01 1.20047E-27
8.50455E-01 1.16578E-27
8.53553E-01 1.13192E-27
8.56625E-01 1.09887E-27
8.59670E-01 1.06661E-27
8.62687E-01 1.03513E-27
8.65677E-01 1.00441E-27
8.68639E-01 9.74416E-28
8.71572E-01 9.45145E-28
8.74478E-01 9.16577E-28
8.77355E-01 8.88694E-28
8.80203E-01 8.61480E-28
8.83022E-01 8.34921E-28
8.85812E-01 8.09000E-28
8.88573E-01 7.83704E-28
8.91304E-01 7.59017E-28
8.94005E-01 7.34926E-28
8.96677E-01 7.11417E-28
8.99318E-01 6.88477E-28
9.01928E-01 6.66094E-28
9.04508E-01 6.44255E-28
9.07058E-01 6.22947E-28
9.09576E-01 6.02160E-28
9.12063E-01 5.81881E-28
9.14519E-01 5.62101E-28
9.16943E-01 5.42807E-28
9.19335E-01 5.23989E-28
9.21696E-01 5.05638E-28
9.24024E-01 4.87743E-28
9.26320E-01 4.70296E-28
9.28584E-01 4.53286E-28
9.30815E-01 4.36704E-28
9.33013E-01 4.20542E-28
9.35178E-01 4.04791E-28
9.37310E-01 3.89443E-28
9.39409E-01 3.74490E-28
9.41474E-01 3.59924E-28
9.43505E-01 3.45737E-28
9.45503E-01 3.31923E-28
9.47467E-01 3.18473E-28
9.49397E-01 3.05381E-28
9.51293E-01 2.92641E-28
9.53154E-01 2.80245E-28
9.54981E-01 2.68187E-28
9.56773E-01 2.56462E-28
9.58530E-01 2.45063E-28
9.60252E-01 2.33984E-28
9.61940E-01 2.23220E-28
9.63592E-01 2.12766E-28
9.65209E-01 2.02616E-28
9.66790E-01 1.92764E-28
9.68336E-01 1.83207E-28
9.69846E-01 1.73939E-28
9.71321E-01 1.64956E-28
9.72759E-01 1.56253E-28
9.74162E-01 1.47826E-28
9.75528E-01 1.39671E-28
9.76858E-01 1.31783E-28
9.78152E-01 1.24159E-28
9.79410E-01 1.16796E-28
9.80631E-01 1.09689E-28
9.81815E-01 1.02835E-28
9.82963E-01 9.62301E-29
9.84074E-01 8.98721E-29
9.85148E-01 8.37573E-29
9.86185E-01 7.78829E-29
9.87185E-01 7.22461E-29
9.88148E-01 6.68440E-29
9.89074E-01 6.16740E-29
9.89962E-01 5.67337E-29
9.90814E-01 5.20207E-29
9.91627E-01 4.75327E-29
9.92404E-01 4.32676E-29
9.93143E-01 3.92232E-29
9.93844E-01 3.53977E-29
9.94508E-01 3.17893E-29
9.95134E-01 2.83961E-29
9.95722E-01 2.52166E-29
9.96273E-01 2.22492E-29
9.96786E-01 1.94926E-29
9.97261E-01 1.69455E-29
9.97698E-01 1.46065E-29
9.98097E-01 1.24746E-29
9.98459E-01 1.05488E-29
9.98782E-01 8.82815E-30
9.99067E-01 7.31186E-30
9.99315E-01 5.99919E-30
9.99524E-01 4.88952E-30
9.99695E-01 3.98233E-30
9.99829E-01 3.27718E-30
9.99924E-01 2.77375E-30
9.99981E-01 2.47178E-30
1.00000E+00 2.37114E-30
