 #
 # Subroutine ELSEPA. Elastic scattering of electrons and positrons
 #                    by neutral atoms and positive ions
 #
 # Projectile: positron
 # Kinetic energy = 1.75000E+08 eV = 6.43113E+06 a.u.
 #
 # WARNING: High-energy factorization with free-atom DF screening.
 #          Absorption, polarization and exchange corrections are
 #          switched off.
 #          Phase shifts are calculated for the bare nucleus.
 #          Scattering amplitudes are not evaluated.
 #
 # Element: Tc,  Z =  43,  atomic weight = 9.89063E+01 g/mol
 #
 # Nuclear model: Fermi distribution
 #                Average radius = 4.94833E-13 cm
 #                Skin thickness = 5.46000E-14 cm
 #
 # Number of electrons = 43
 #
 # Total elastic cross section = 4.11707E-18 cm**2 = 1.47023E-01 a0**2
 # 1st transport cross section = 1.18082E-25 cm**2 = 4.21677E-09 a0**2
 # 2nd transport cross section = 3.53027E-25 cm**2 = 1.26068E-08 a0**2
 #
 #
 # Differential cross section:                       MU=(1-COS(THETA))/2
 #
 #  THETA        MU          DCS          DCS        Sherman      error
 #  (deg)                 (cm**2/sr)   (a0**2/sr)    function
 #----------------------------------------------------------------------
0.00000E+00 1.12828E-09
7.61557E-13 1.11867E-09
1.18994E-12 1.11333E-09
1.71346E-12 1.10687E-09
2.33225E-12 1.09932E-09
3.04617E-12 1.09073E-09
3.85530E-12 1.08114E-09
4.75964E-12 1.07060E-09
5.75917E-12 1.05917E-09
6.85391E-12 1.04690E-09
8.04379E-12 1.03383E-09
9.32893E-12 1.02005E-09
1.07092E-11 1.00566E-09
1.21847E-11 9.90682E-10
1.37554E-11 9.75125E-10
1.54213E-11 9.59170E-10
1.71823E-11 9.42833E-10
1.90386E-11 9.26066E-10
2.09900E-11 9.09096E-10
2.30367E-11 8.91954E-10
2.51785E-11 8.74505E-10
2.74156E-11 8.57025E-10
2.97478E-11 8.39564E-10
3.21752E-11 8.21899E-10
3.46979E-11 8.04343E-10
3.73157E-11 7.86938E-10
4.00286E-11 7.69472E-10
4.28368E-11 7.52191E-10
4.57402E-11 7.35163E-10
4.87388E-11 7.18196E-10
5.18325E-11 7.01457E-10
5.50215E-11 6.85043E-10
5.83057E-11 6.68790E-10
6.16850E-11 6.52782E-10
6.51595E-11 6.37147E-10
6.87293E-11 6.21751E-10
7.23943E-11 6.06595E-10
7.61544E-11 5.91840E-10
1.18991E-10 4.61270E-10
1.71347E-10 3.60253E-10
2.33223E-10 2.83390E-10
3.04617E-10 2.24805E-10
3.85531E-10 1.79788E-10
4.75965E-10 1.44871E-10
5.75917E-10 1.17515E-10
6.85389E-10 9.59545E-11
8.04380E-10 7.82965E-11
9.32891E-10 6.43795E-11
1.07092E-09 5.38347E-11
1.21847E-09 4.52825E-11
1.37554E-09 3.79997E-11
1.54213E-09 3.22905E-11
1.71823E-09 2.76600E-11
1.90386E-09 2.36839E-11
2.09900E-09 2.04744E-11
2.30367E-09 1.78405E-11
2.51785E-09 1.55611E-11
2.74156E-09 1.36754E-11
2.97478E-09 1.21025E-11
3.21752E-09 1.07242E-11
3.46978E-09 9.55998E-12
3.73156E-09 8.57042E-12
4.00286E-09 7.69496E-12
4.28368E-09 6.93901E-12
4.57402E-09 6.28653E-12
4.87388E-09 5.70257E-12
5.18326E-09 5.18837E-12
5.50215E-09 4.73895E-12
5.83057E-09 4.33317E-12
6.16850E-09 3.96931E-12
6.51596E-09 3.64801E-12
6.87293E-09 3.35649E-12
7.23942E-09 3.09078E-12
7.61544E-09 2.85415E-12
1.18991E-08 1.36867E-12
1.71347E-08 7.19387E-13
2.33223E-08 4.08735E-13
3.04617E-08 2.48789E-13
3.85531E-08 1.60355E-13
4.75965E-08 1.08259E-13
5.75917E-08 7.58943E-14
6.85389E-08 5.48379E-14
8.04380E-08 4.05891E-14
9.32891E-08 3.07079E-14
1.07092E-07 2.36517E-14
1.21847E-07 1.84866E-14
1.37554E-07 1.46532E-14
1.54213E-07 1.17593E-14
1.71823E-07 9.54201E-15
1.90386E-07 7.82094E-15
2.09900E-07 6.46751E-15
2.30367E-07 5.39389E-15
2.51785E-07 4.53364E-15
2.74156E-07 3.83796E-15
2.97478E-07 3.27052E-15
3.21752E-07 2.80387E-15
3.46978E-07 2.41759E-15
3.73156E-07 2.09564E-15
4.00286E-07 1.82560E-15
4.28368E-07 1.59773E-15
4.57402E-07 1.40430E-15
4.87388E-07 1.23933E-15
5.18325E-07 1.09794E-15
5.50215E-07 9.76178E-16
5.83057E-07 8.70869E-16
6.16850E-07 7.79383E-16
6.51596E-07 6.99624E-16
6.87293E-07 6.29829E-16
7.23942E-07 5.68540E-16
7.61543E-07 5.14537E-16
1.18991E-06 2.13264E-16
1.71347E-06 1.03670E-16
2.33223E-06 5.62587E-17
3.04617E-06 3.30979E-17
3.85531E-06 2.07147E-17
4.75964E-06 1.36148E-17
5.75916E-06 9.31072E-18
6.85388E-06 6.57989E-18
8.04378E-06 4.78025E-18
9.32888E-06 3.55563E-18
1.07092E-05 2.69905E-18
1.21846E-05 2.08545E-18
1.37553E-05 1.63665E-18
1.54212E-05 1.30229E-18
1.71822E-05 1.04909E-18
1.90385E-05 8.54341E-19
2.09899E-05 7.03049E-19
2.30365E-05 5.83763E-19
2.51783E-05 4.88671E-19
2.74153E-05 4.12124E-19
2.97475E-05 3.49966E-19
3.21749E-05 2.99090E-19
3.46974E-05 2.57138E-19
3.73152E-05 2.22302E-19
4.00281E-05 1.93179E-19
4.28362E-05 1.68676E-19
4.57395E-05 1.47935E-19
4.87380E-05 1.30282E-19
5.18317E-05 1.15179E-19
5.50205E-05 1.02199E-19
5.83045E-05 9.09940E-20
6.16838E-05 8.12832E-20
6.51582E-05 7.28346E-20
6.87277E-05 6.54568E-20
7.23925E-05 5.89906E-20
7.61524E-05 5.33336E-20
9.21439E-05 3.64092E-20
1.09658E-04 2.56927E-20
1.28695E-04 1.86439E-20
1.49255E-04 1.38527E-20
1.71338E-04 1.05058E-20
1.94942E-04 8.11046E-21
2.20070E-04 6.35997E-21
2.46720E-04 5.05687E-21
2.74892E-04 4.07065E-21
3.04586E-04 3.31332E-21
3.35803E-04 2.72392E-21
3.68542E-04 2.25980E-21
4.02802E-04 1.89028E-21
4.38585E-04 1.59316E-21
4.75889E-04 1.35209E-21
5.14715E-04 1.15483E-21
5.55063E-04 9.92202E-22
5.96931E-04 8.57141E-22
6.40321E-04 7.44239E-22
6.85233E-04 6.49278E-22
7.31665E-04 5.68944E-22
7.79618E-04 5.00620E-22
8.29092E-04 4.42214E-22
8.80086E-04 3.92053E-22
9.32601E-04 3.48778E-22
9.86636E-04 3.11288E-22
1.04219E-03 2.78680E-22
1.09927E-03 2.50212E-22
1.15786E-03 2.25270E-22
1.21797E-03 2.03344E-22
1.27961E-03 1.84007E-22
1.34276E-03 1.66902E-22
1.40743E-03 1.51726E-22
1.47362E-03 1.38226E-22
1.54133E-03 1.26185E-22
1.61056E-03 1.15417E-22
1.68131E-03 1.05765E-22
1.75357E-03 9.70941E-23
1.82735E-03 8.92863E-23
1.90265E-03 8.22413E-23
1.97947E-03 7.58715E-23
2.05780E-03 7.01010E-23
2.13765E-03 6.48636E-23
2.21902E-03 6.01015E-23
2.30190E-03 5.57640E-23
2.38630E-03 5.18067E-23
2.47222E-03 4.81904E-23
2.55965E-03 4.48806E-23
2.64859E-03 4.18468E-23
2.73905E-03 3.90618E-23
2.83103E-03 3.65019E-23
2.92452E-03 3.41454E-23
3.01952E-03 3.19735E-23
3.11604E-03 2.99692E-23
3.21407E-03 2.81172E-23
3.31362E-03 2.64040E-23
3.41468E-03 2.48172E-23
3.51725E-03 2.33460E-23
3.62133E-03 2.19805E-23
3.72692E-03 2.07116E-23
3.83403E-03 1.95315E-23
3.94265E-03 1.84327E-23
4.05278E-03 1.74087E-23
4.16442E-03 1.64534E-23
4.27757E-03 1.55616E-23
4.39223E-03 1.47282E-23
4.50840E-03 1.39486E-23
4.62608E-03 1.32190E-23
4.74527E-03 1.25353E-23
4.86597E-03 1.18944E-23
4.98817E-03 1.12930E-23
5.11188E-03 1.07282E-23
5.23711E-03 1.01975E-23
5.36383E-03 9.69835E-24
5.49207E-03 9.22866E-24
5.62181E-03 8.78634E-24
5.75306E-03 8.36952E-24
5.88581E-03 7.97648E-24
6.02007E-03 7.60562E-24
6.15583E-03 7.25547E-24
6.29310E-03 6.92468E-24
6.43187E-03 6.61198E-24
6.57214E-03 6.31622E-24
6.71392E-03 6.03631E-24
6.85720E-03 5.77127E-24
7.00198E-03 5.52017E-24
7.14827E-03 5.28214E-24
7.29605E-03 5.05639E-24
7.44534E-03 4.84217E-24
7.59612E-03 4.63880E-24
7.97965E-03 4.17369E-24
8.37255E-03 3.76354E-24
8.77480E-03 3.40083E-24
9.18641E-03 3.07921E-24
9.60736E-03 2.79331E-24
1.00376E-02 2.53855E-24
1.04773E-02 2.31100E-24
1.09262E-02 2.10731E-24
1.13844E-02 1.92458E-24
1.18520E-02 1.76034E-24
1.23288E-02 1.61243E-24
1.28150E-02 1.47897E-24
1.33104E-02 1.35834E-24
1.38150E-02 1.24912E-24
1.43290E-02 1.15006E-24
1.48521E-02 1.06009E-24
1.53845E-02 9.78234E-25
1.59262E-02 9.03664E-25
1.64770E-02 8.35633E-25
1.70371E-02 7.73483E-25
1.76063E-02 7.16632E-25
1.81848E-02 6.64563E-25
1.87724E-02 6.16816E-25
1.93692E-02 5.72982E-25
1.99751E-02 5.32695E-25
2.05901E-02 4.95626E-25
2.12143E-02 4.61484E-25
2.18476E-02 4.30006E-25
2.24900E-02 4.00955E-25
2.31415E-02 3.74118E-25
2.38021E-02 3.49305E-25
2.44717E-02 3.26342E-25
2.51504E-02 3.05073E-25
2.58382E-02 2.85357E-25
2.65349E-02 2.67066E-25
2.72407E-02 2.50083E-25
2.79555E-02 2.34304E-25
2.86793E-02 2.19631E-25
2.94120E-02 2.05979E-25
3.01537E-02 1.93267E-25
3.09043E-02 1.81422E-25
3.16639E-02 1.70379E-25
3.24324E-02 1.60076E-25
3.32098E-02 1.50459E-25
3.39961E-02 1.41476E-25
3.47912E-02 1.33080E-25
3.55952E-02 1.25230E-25
3.64081E-02 1.17885E-25
3.72297E-02 1.11009E-25
3.80602E-02 1.04570E-25
3.88995E-02 9.85368E-26
3.97476E-02 9.28806E-26
4.06044E-02 8.75757E-26
4.14700E-02 8.25980E-26
4.23443E-02 7.79254E-26
4.32273E-02 7.35373E-26
4.41190E-02 6.94146E-26
4.50194E-02 6.55399E-26
4.59284E-02 6.18967E-26
4.68461E-02 5.84699E-26
4.87074E-02 5.22106E-26
5.06030E-02 4.66613E-26
5.25328E-02 4.17349E-26
5.44967E-02 3.73563E-26
5.64946E-02 3.34598E-26
5.85262E-02 2.99887E-26
6.05914E-02 2.68934E-26
6.26901E-02 2.41304E-26
6.48222E-02 2.16619E-26
6.69873E-02 1.94546E-26
6.91854E-02 1.74794E-26
7.14163E-02 1.57105E-26
7.36799E-02 1.41252E-26
7.59760E-02 1.27036E-26
7.83043E-02 1.14281E-26
8.06647E-02 1.02829E-26
8.30571E-02 9.25427E-27
8.54812E-02 8.32989E-27
8.79369E-02 7.49884E-27
9.04240E-02 6.75139E-27
9.29422E-02 6.07890E-27
9.54915E-02 5.47366E-27
9.80716E-02 4.92879E-27
1.00682E-01 4.43813E-27
1.03323E-01 3.99621E-27
1.05995E-01 3.59811E-27
1.08696E-01 3.23941E-27
1.11427E-01 2.91619E-27
1.14188E-01 2.62491E-27
1.16978E-01 2.36238E-27
1.19797E-01 2.12577E-27
1.22645E-01 1.91251E-27
1.25522E-01 1.72029E-27
1.28428E-01 1.54705E-27
1.31361E-01 1.39093E-27
1.34323E-01 1.25024E-27
1.37313E-01 1.12347E-27
1.40330E-01 1.00927E-27
1.43375E-01 9.06399E-28
1.46447E-01 8.13753E-28
1.49545E-01 7.30335E-28
1.52671E-01 6.55241E-28
1.55823E-01 5.87659E-28
1.59001E-01 5.26854E-28
1.62205E-01 4.72163E-28
1.65435E-01 4.22987E-28
1.68690E-01 3.78785E-28
1.71970E-01 3.39069E-28
1.75276E-01 3.03397E-28
1.78606E-01 2.71371E-28
1.81961E-01 2.42630E-28
1.85340E-01 2.16850E-28
1.88743E-01 1.93735E-28
1.92169E-01 1.73022E-28
1.95619E-01 1.54469E-28
1.99092E-01 1.37861E-28
2.02589E-01 1.23002E-28
2.06107E-01 1.09715E-28
2.09649E-01 9.78420E-29
2.13212E-01 8.72378E-29
2.16797E-01 7.77733E-29
2.20404E-01 6.93314E-29
2.24032E-01 6.18065E-29
2.27680E-01 5.51036E-29
2.31350E-01 4.91371E-29
2.35040E-01 4.38296E-29
2.38751E-01 3.91117E-29
2.42481E-01 3.49209E-29
2.46231E-01 3.12009E-29
2.50000E-01 2.79012E-29
2.53788E-01 2.49761E-29
2.57595E-01 2.23851E-29
2.61421E-01 2.00914E-29
2.65264E-01 1.80621E-29
2.69126E-01 1.62678E-29
2.73005E-01 1.46822E-29
2.76901E-01 1.32815E-29
2.80814E-01 1.20448E-29
2.84744E-01 1.09531E-29
2.88691E-01 9.98952E-30
2.92653E-01 9.13911E-30
2.96632E-01 8.38846E-30
3.00625E-01 7.72564E-30
3.04634E-01 7.14006E-30
3.08658E-01 6.62231E-30
3.12697E-01 6.16403E-30
3.16749E-01 5.75782E-30
3.20816E-01 5.39714E-30
3.24896E-01 5.07621E-30
3.28990E-01 4.78993E-30
3.33097E-01 4.53379E-30
3.37216E-01 4.30385E-30
3.41348E-01 4.09664E-30
3.45492E-01 3.90913E-30
3.49647E-01 3.73866E-30
3.53814E-01 3.58291E-30
3.57992E-01 3.43987E-30
3.62181E-01 3.30779E-30
3.66381E-01 3.18515E-30
3.70590E-01 3.07065E-30
3.74810E-01 2.96316E-30
3.79039E-01 2.86172E-30
3.83277E-01 2.76550E-30
3.87524E-01 2.67381E-30
3.91780E-01 2.58605E-30
3.96044E-01 2.50172E-30
4.00316E-01 2.42040E-30
4.04596E-01 2.34174E-30
4.08882E-01 2.26546E-30
4.13176E-01 2.19131E-30
4.17476E-01 2.11911E-30
4.21783E-01 2.04870E-30
4.26095E-01 1.97995E-30
4.30413E-01 1.91277E-30
4.34737E-01 1.84709E-30
4.39065E-01 1.78284E-30
4.43398E-01 1.72000E-30
4.47736E-01 1.65852E-30
4.52077E-01 1.59840E-30
4.56422E-01 1.53961E-30
4.60770E-01 1.48216E-30
4.65122E-01 1.42604E-30
4.69476E-01 1.37126E-30
4.73832E-01 1.31781E-30
4.78190E-01 1.26569E-30
4.82550E-01 1.21493E-30
4.86912E-01 1.16551E-30
4.91274E-01 1.11743E-30
4.95637E-01 1.07071E-30
5.00000E-01 1.02533E-30
5.04363E-01 9.81306E-31
5.08726E-01 9.38619E-31
5.13088E-01 8.97268E-31
5.17450E-01 8.57243E-31
5.21810E-01 8.18534E-31
5.26168E-01 7.81129E-31
5.30524E-01 7.45012E-31
5.34878E-01 7.10167E-31
5.39230E-01 6.76577E-31
5.43578E-01 6.44221E-31
5.47923E-01 6.13078E-31
5.52264E-01 5.83125E-31
5.56602E-01 5.54338E-31
5.60935E-01 5.26693E-31
5.65263E-01 5.00164E-31
5.69587E-01 4.74723E-31
5.73905E-01 4.50343E-31
5.78217E-01 4.26996E-31
5.82524E-01 4.04654E-31
5.86824E-01 3.83287E-31
5.91118E-01 3.62868E-31
5.95404E-01 3.43365E-31
5.99684E-01 3.24750E-31
6.03956E-01 3.06995E-31
6.08220E-01 2.90069E-31
6.12476E-01 2.73944E-31
6.16723E-01 2.58591E-31
6.20961E-01 2.43982E-31
6.25190E-01 2.30089E-31
6.29410E-01 2.16885E-31
6.33619E-01 2.04343E-31
6.37819E-01 1.92436E-31
6.42008E-01 1.81138E-31
6.46186E-01 1.70425E-31
6.50353E-01 1.60271E-31
6.54508E-01 1.50653E-31
6.58652E-01 1.41547E-31
6.62784E-01 1.32930E-31
6.66903E-01 1.24781E-31
6.71010E-01 1.17078E-31
6.75104E-01 1.09801E-31
6.79184E-01 1.02929E-31
6.83251E-01 9.64438E-32
6.87303E-01 9.03260E-32
6.91342E-01 8.45580E-32
6.95366E-01 7.91224E-32
6.99375E-01 7.40028E-32
7.03368E-01 6.91831E-32
7.07347E-01 6.46481E-32
7.11309E-01 6.03831E-32
7.15256E-01 5.63740E-32
7.19186E-01 5.26072E-32
7.23099E-01 4.90700E-32
7.26995E-01 4.57499E-32
7.30874E-01 4.26353E-32
7.34736E-01 3.97147E-32
7.38579E-01 3.69776E-32
7.42405E-01 3.44136E-32
7.46212E-01 3.20130E-32
7.50000E-01 2.97665E-32
7.53769E-01 2.76653E-32
7.57519E-01 2.57010E-32
7.61249E-01 2.38655E-32
7.64960E-01 2.21514E-32
7.68650E-01 2.05514E-32
7.72320E-01 1.90587E-32
7.75968E-01 1.76668E-32
7.79596E-01 1.63696E-32
7.83203E-01 1.51613E-32
7.86788E-01 1.40364E-32
7.90351E-01 1.29897E-32
7.93893E-01 1.20162E-32
7.97411E-01 1.11114E-32
8.00908E-01 1.02709E-32
8.04381E-01 9.49051E-33
8.07831E-01 8.76635E-33
8.11257E-01 8.09476E-33
8.14660E-01 7.47227E-33
8.18039E-01 6.89562E-33
8.21394E-01 6.36174E-33
8.24724E-01 5.86775E-33
8.28030E-01 5.41094E-33
8.31310E-01 4.98875E-33
8.34565E-01 4.59879E-33
8.37795E-01 4.23882E-33
8.40999E-01 3.90673E-33
8.44177E-01 3.60055E-33
8.47329E-01 3.31841E-33
8.50455E-01 3.05860E-33
8.53553E-01 2.81948E-33
8.56625E-01 2.59954E-33
8.59670E-01 2.39736E-33
8.62687E-01 2.21162E-33
8.65677E-01 2.04107E-33
8.68639E-01 1.88457E-33
8.71572E-01 1.74102E-33
8.74478E-01 1.60944E-33
8.77355E-01 1.48888E-33
8.80203E-01 1.37848E-33
8.83022E-01 1.27742E-33
8.85812E-01 1.18495E-33
8.88573E-01 1.10037E-33
8.91304E-01 1.02303E-33
8.94005E-01 9.52332E-34
8.96677E-01 8.87716E-34
8.99318E-01 8.28663E-34
9.01928E-01 7.74697E-34
9.04508E-01 7.25376E-34
9.07058E-01 6.80288E-34
9.09576E-01 6.39060E-34
9.12063E-01 6.01340E-34
9.14519E-01 5.66810E-34
9.16943E-01 5.35174E-34
9.19335E-01 5.06162E-34
9.21696E-01 4.79524E-34
9.24024E-01 4.55033E-34
9.26320E-01 4.32480E-34
9.28584E-01 4.11673E-34
9.30815E-01 3.92436E-34
9.33013E-01 3.74612E-34
9.35178E-01 3.58055E-34
9.37310E-01 3.42632E-34
9.39409E-01 3.28225E-34
9.41474E-01 3.14721E-34
9.43505E-01 3.02027E-34
9.45503E-01 2.90055E-34
9.47467E-01 2.78722E-34
9.49397E-01 2.67959E-34
9.51293E-01 2.57698E-34
9.53154E-01 2.47888E-34
9.54981E-01 2.38474E-34
9.56773E-01 2.29414E-34
9.58530E-01 2.20666E-34
9.60252E-01 2.12199E-34
9.61940E-01 2.03980E-34
9.63592E-01 1.95980E-34
9.65209E-01 1.88186E-34
9.66790E-01 1.80571E-34
9.68336E-01 1.73124E-34
9.69846E-01 1.65827E-34
9.71321E-01 1.58674E-34
9.72759E-01 1.51655E-34
9.74162E-01 1.44764E-34
9.75528E-01 1.37992E-34
9.76858E-01 1.31343E-34
9.78152E-01 1.24811E-34
9.79410E-01 1.18397E-34
9.80631E-01 1.12105E-34
9.81815E-01 1.05929E-34
9.82963E-01 9.98778E-35
9.84074E-01 9.39548E-35
9.85148E-01 8.81617E-35
9.86185E-01 8.25017E-35
9.87185E-01 7.69847E-35
9.88148E-01 7.16105E-35
9.89074E-01 6.63870E-35
9.89962E-01 6.13212E-35
9.90814E-01 5.64169E-35
9.91627E-01 5.16806E-35
9.92404E-01 4.71171E-35
9.93143E-01 4.27350E-35
9.93844E-01 3.85372E-35
9.94508E-01 3.45293E-35
9.95134E-01 3.07196E-35
9.95722E-01 2.71115E-35
9.96273E-01 2.37110E-35
9.96786E-01 2.05215E-35
9.97261E-01 1.75492E-35
9.97698E-01 1.47992E-35
9.98097E-01 1.22712E-35
9.98459E-01 9.97465E-36
9.98782E-01 7.90918E-36
9.99067E-01 6.08029E-36
9.99315E-01 4.48834E-36
9.99524E-01 3.13866E-36
9.99695E-01 2.03074E-36
9.99829E-01 1.16651E-36
9.99924E-01 5.49518E-37
9.99981E-01 1.78098E-37
1.00000E+00 5.44098E-38
