 #
 # Subroutine ELSEPA. Elastic scattering of electrons and positrons
 #                    by neutral atoms and positive ions
 #
 # Projectile: electron
 # Kinetic energy = 6.00000E+08 eV = 2.20496E+07 a.u.
 #
 # WARNING: High-energy factorization with free-atom DF screening.
 #          Absorption, polarization and exchange corrections are
 #          switched off.
 #          Phase shifts are calculated for the bare nucleus.
 #          Scattering amplitudes are not evaluated.
 #
 # Element: Mg,  Z =  12,  atomic weight = 2.43050E+01 g/mol
 #
 # Nuclear model: Fermi distribution
 #                Average radius = 3.09943E-13 cm
 #                Skin thickness = 5.46000E-14 cm
 #
 # Number of electrons = 12
 #
 # Total elastic cross section = 6.06374E-19 cm**2 = 2.16540E-02 a0**2
 # 1st transport cross section = 8.71465E-28 cm**2 = 3.11206E-11 a0**2
 # 2nd transport cross section = 2.61319E-27 cm**2 = 9.33187E-11 a0**2
 #
 #
 # Differential cross section:                       MU=(1-COS(THETA))/2
 #
 #  THETA        MU          DCS          DCS        Sherman      error
 #  (deg)                 (cm**2/sr)   (a0**2/sr)    function
 #----------------------------------------------------------------------
0.00000E+00 3.73959E-09
7.61557E-13 3.23912E-09
1.18994E-12 2.99850E-09
1.71346E-12 2.73764E-09
2.33225E-12 2.46940E-09
3.04617E-12 2.20477E-09
3.85530E-12 1.95216E-09
4.75964E-12 1.71725E-09
5.75917E-12 1.50379E-09
6.85391E-12 1.31311E-09
8.04379E-12 1.14533E-09
9.32893E-12 9.98206E-10
1.07092E-11 8.71828E-10
1.21847E-11 7.62503E-10
1.37554E-11 6.68856E-10
1.54213E-11 5.89091E-10
1.71823E-11 5.20146E-10
1.90386E-11 4.62173E-10
2.09900E-11 4.11832E-10
2.30367E-11 3.68955E-10
2.51785E-11 3.31934E-10
2.74156E-11 2.99824E-10
2.97478E-11 2.72176E-10
3.21752E-11 2.47860E-10
3.46979E-11 2.26787E-10
3.73157E-11 2.08161E-10
4.00286E-11 1.91721E-10
4.28368E-11 1.77150E-10
4.57402E-11 1.64148E-10
4.87388E-11 1.52505E-10
5.18325E-11 1.42066E-10
5.50215E-11 1.32591E-10
5.83057E-11 1.24041E-10
6.16850E-11 1.16247E-10
6.51595E-11 1.09118E-10
6.87293E-11 1.02637E-10
7.23943E-11 9.66000E-11
7.61544E-11 9.11087E-11
1.18991E-10 5.32178E-11
1.71347E-10 3.28827E-11
2.33223E-10 2.10179E-11
3.04617E-10 1.38113E-11
3.85531E-10 9.31277E-12
4.75965E-10 6.42595E-12
5.75917E-10 4.55392E-12
6.85389E-10 3.30119E-12
8.04380E-10 2.44435E-12
9.32891E-10 1.84569E-12
1.07092E-09 1.41886E-12
1.21847E-09 1.10864E-12
1.37554E-09 8.79121E-13
1.54213E-09 7.06458E-13
1.71823E-09 5.74554E-13
1.90386E-09 4.72372E-13
2.09900E-09 3.92180E-13
2.30367E-09 3.28499E-13
2.51785E-09 2.77378E-13
2.74156E-09 2.35931E-13
2.97478E-09 2.02020E-13
3.21752E-09 1.74042E-13
3.46978E-09 1.50783E-13
3.73156E-09 1.31308E-13
4.00286E-09 1.14897E-13
4.28368E-09 1.00983E-13
4.57402E-09 8.91202E-14
4.87388E-09 7.89537E-14
5.18326E-09 7.01988E-14
5.50215E-09 6.26253E-14
5.83057E-09 5.60461E-14
6.16850E-09 5.03077E-14
6.51596E-09 4.52836E-14
6.87293E-09 4.08701E-14
7.23942E-09 3.69800E-14
7.61544E-09 3.35407E-14
1.18991E-08 1.41056E-14
1.71347E-08 6.90030E-15
2.33223E-08 3.75455E-15
3.04617E-08 2.21116E-15
3.85531E-08 1.38437E-15
4.75965E-08 9.09930E-16
5.75917E-08 6.22238E-16
6.85389E-08 4.39700E-16
8.04380E-08 3.19415E-16
9.32891E-08 2.37571E-16
1.07092E-07 1.80331E-16
1.21847E-07 1.39333E-16
1.37554E-07 1.09349E-16
1.54213E-07 8.70119E-17
1.71823E-07 7.00972E-17
1.90386E-07 5.70995E-17
2.09900E-07 4.69793E-17
2.30367E-07 3.90048E-17
2.51785E-07 3.26527E-17
2.74156E-07 2.75423E-17
2.97478E-07 2.33932E-17
3.21752E-07 1.99969E-17
3.46978E-07 1.71951E-17
3.73156E-07 1.48673E-17
4.00286E-07 1.29204E-17
4.28368E-07 1.12820E-17
4.57402E-07 9.89529E-18
4.87388E-07 8.71524E-18
5.18325E-07 7.70596E-18
5.50215E-07 6.83865E-18
5.83057E-07 6.09000E-18
6.16850E-07 5.44105E-18
6.51596E-07 4.87629E-18
6.87293E-07 4.38293E-18
7.23942E-07 3.95043E-18
7.61543E-07 3.56998E-18
1.18991E-06 1.46236E-18
1.71347E-06 7.05274E-19
2.33223E-06 3.80713E-19
3.04617E-06 2.23180E-19
3.85531E-06 1.39339E-19
4.75964E-06 9.14256E-20
5.75916E-06 6.24487E-20
6.85388E-06 4.40955E-20
8.04378E-06 3.20164E-20
9.32888E-06 2.38045E-20
1.07092E-05 1.80648E-20
1.21846E-05 1.39554E-20
1.37553E-05 1.09510E-20
1.54212E-05 8.71334E-21
1.71822E-05 7.01918E-21
1.90385E-05 5.71798E-21
2.09899E-05 4.70450E-21
2.30365E-05 3.90580E-21
2.51783E-05 3.26959E-21
2.74153E-05 2.75781E-21
2.97475E-05 2.34241E-21
3.21749E-05 2.00242E-21
3.46974E-05 1.72199E-21
3.73152E-05 1.48899E-21
4.00281E-05 1.29410E-21
4.28362E-05 1.13007E-21
4.57395E-05 9.91216E-22
4.87380E-05 8.73038E-22
5.18317E-05 7.71957E-22
5.50205E-05 6.85096E-22
5.83045E-05 6.10123E-22
6.16838E-05 5.45138E-22
6.51582E-05 4.88585E-22
6.87277E-05 4.39182E-22
7.23925E-05 3.95868E-22
7.61524E-05 3.54692E-22
9.21439E-05 2.41850E-22
1.09658E-04 1.70450E-22
1.28695E-04 1.23497E-22
1.49255E-04 9.16106E-23
1.71338E-04 6.93493E-23
1.94942E-04 5.34298E-23
2.20070E-04 4.18070E-23
2.46720E-04 3.31624E-23
2.74892E-04 2.66275E-23
3.04586E-04 2.16148E-23
3.35803E-04 1.77187E-23
3.68542E-04 1.46547E-23
4.02802E-04 1.22188E-23
4.38585E-04 1.02632E-23
4.75889E-04 8.67900E-24
5.14715E-04 7.38508E-24
5.55063E-04 6.32017E-24
5.96931E-04 5.43751E-24
6.40321E-04 4.70118E-24
6.85233E-04 4.08313E-24
7.31665E-04 3.56146E-24
7.79618E-04 3.11879E-24
8.29092E-04 2.74130E-24
8.80086E-04 2.41791E-24
9.32601E-04 2.13964E-24
9.86636E-04 1.89922E-24
1.04219E-03 1.69070E-24
1.09927E-03 1.50918E-24
1.15786E-03 1.35063E-24
1.21797E-03 1.21168E-24
1.27961E-03 1.08953E-24
1.34276E-03 9.81844E-25
1.40743E-03 8.86634E-25
1.47362E-03 8.02233E-25
1.54133E-03 7.27225E-25
1.61056E-03 6.60406E-25
1.68131E-03 6.00742E-25
1.75357E-03 5.47352E-25
1.82735E-03 4.99476E-25
1.90265E-03 4.56457E-25
1.97947E-03 4.17730E-25
2.05780E-03 3.82801E-25
2.13765E-03 3.51243E-25
2.21902E-03 3.22682E-25
2.30190E-03 2.96792E-25
2.38630E-03 2.73286E-25
2.47222E-03 2.51913E-25
2.55965E-03 2.32452E-25
2.64859E-03 2.14707E-25
2.73905E-03 1.98505E-25
2.83103E-03 1.83693E-25
2.92452E-03 1.70135E-25
3.01952E-03 1.57711E-25
3.11604E-03 1.46312E-25
3.21407E-03 1.35842E-25
3.31362E-03 1.26216E-25
3.41468E-03 1.17356E-25
3.51725E-03 1.09193E-25
3.62133E-03 1.01666E-25
3.72692E-03 9.47179E-26
3.83403E-03 8.82989E-26
3.94265E-03 8.23636E-26
4.05278E-03 7.68710E-26
4.16442E-03 7.17840E-26
4.27757E-03 6.70690E-26
4.39223E-03 6.26954E-26
4.50840E-03 5.86357E-26
4.62608E-03 5.48646E-26
4.74527E-03 5.13593E-26
4.86597E-03 4.80989E-26
4.98817E-03 4.50643E-26
5.11188E-03 4.22383E-26
5.23711E-03 3.96047E-26
5.36383E-03 3.71493E-26
5.49207E-03 3.48586E-26
5.62181E-03 3.27204E-26
5.75306E-03 3.07236E-26
5.88581E-03 2.88578E-26
6.02007E-03 2.71136E-26
6.15583E-03 2.54824E-26
6.29310E-03 2.39560E-26
6.43187E-03 2.25272E-26
6.57214E-03 2.11891E-26
6.71392E-03 1.99355E-26
6.85720E-03 1.87604E-26
7.00198E-03 1.76587E-26
7.14827E-03 1.66253E-26
7.29605E-03 1.56557E-26
7.44534E-03 1.47455E-26
7.59612E-03 1.38909E-26
7.97965E-03 1.19741E-26
8.37255E-03 1.03322E-26
8.77480E-03 8.92319E-27
9.18641E-03 7.71215E-27
9.60736E-03 6.66974E-27
1.00376E-02 5.77131E-27
1.04773E-02 4.99606E-27
1.09262E-02 4.32637E-27
1.13844E-02 3.74734E-27
1.18520E-02 3.24627E-27
1.23288E-02 2.81235E-27
1.28150E-02 2.43635E-27
1.33104E-02 2.11037E-27
1.38150E-02 1.82763E-27
1.43290E-02 1.58232E-27
1.48521E-02 1.36943E-27
1.53845E-02 1.18465E-27
1.59262E-02 1.02426E-27
1.64770E-02 8.85035E-28
1.70371E-02 7.64201E-28
1.76063E-02 6.59347E-28
1.81848E-02 5.68384E-28
1.87724E-02 4.89500E-28
1.93692E-02 4.21122E-28
1.99751E-02 3.61880E-28
2.05901E-02 3.10585E-28
2.12143E-02 2.66203E-28
2.18476E-02 2.27831E-28
2.24900E-02 1.94686E-28
2.31415E-02 1.66082E-28
2.38021E-02 1.41424E-28
2.44717E-02 1.20193E-28
2.51504E-02 1.01935E-28
2.58382E-02 8.62573E-29
2.65349E-02 7.28146E-29
2.72407E-02 6.13076E-29
2.79555E-02 5.14753E-29
2.86793E-02 4.30902E-29
2.94120E-02 3.59544E-29
3.01537E-02 2.98957E-29
3.09043E-02 2.47644E-29
3.16639E-02 2.04302E-29
3.24324E-02 1.67802E-29
3.32098E-02 1.37164E-29
3.39961E-02 1.11536E-29
3.47912E-02 9.01846E-30
3.55952E-02 7.24721E-30
3.64081E-02 5.78492E-30
3.72297E-02 4.58421E-30
3.80602E-02 3.60425E-30
3.88995E-02 2.80998E-30
3.97476E-02 2.17129E-30
4.06044E-02 1.66241E-30
4.14700E-02 1.26134E-30
4.23443E-02 9.49307E-31
4.32273E-02 7.10380E-31
4.41190E-02 5.31055E-31
4.50194E-02 3.99929E-31
4.59284E-02 3.07413E-31
4.68461E-02 2.45471E-31
4.87074E-02 1.87665E-31
5.06030E-02 1.85665E-31
5.25328E-02 2.12080E-31
5.44967E-02 2.49188E-31
5.64946E-02 2.86102E-31
5.85262E-02 3.16682E-31
6.05914E-02 3.37991E-31
6.26901E-02 3.49186E-31
6.48222E-02 3.50718E-31
6.69873E-02 3.43775E-31
6.91854E-02 3.29897E-31
7.14163E-02 3.10724E-31
7.36799E-02 2.87832E-31
7.59760E-02 2.62644E-31
7.83043E-02 2.36376E-31
8.06647E-02 2.10026E-31
8.30571E-02 1.84375E-31
8.54812E-02 1.60005E-31
8.79369E-02 1.37320E-31
9.04240E-02 1.16577E-31
9.29422E-02 9.79052E-32
9.54915E-02 8.13399E-32
9.80716E-02 6.68392E-32
1.00682E-01 5.43067E-32
1.03323E-01 4.36080E-32
1.05995E-01 3.45851E-32
1.08696E-01 2.70676E-32
1.11427E-01 2.08818E-32
1.14188E-01 1.58570E-32
1.16978E-01 1.18309E-32
1.19797E-01 8.65228E-33
1.22645E-01 6.18345E-33
1.25522E-01 4.30106E-33
1.28428E-01 2.89644E-33
1.31361E-01 1.87525E-33
1.34323E-01 1.15678E-33
1.37313E-01 6.72929E-34
1.40330E-01 3.67066E-34
1.43375E-01 1.92780E-34
1.46447E-01 1.12632E-34
1.49545E-01 9.69402E-35
1.52671E-01 1.22618E-34
1.55823E-01 1.72119E-34
1.59001E-01 2.32472E-34
1.62205E-01 2.94422E-34
1.65435E-01 3.51691E-34
1.68690E-01 4.00329E-34
1.71970E-01 4.38175E-34
1.75276E-01 4.64393E-34
1.78606E-01 4.79110E-34
1.81961E-01 4.83104E-34
1.85340E-01 4.77572E-34
1.88743E-01 4.63943E-34
1.92169E-01 4.43736E-34
1.95619E-01 4.18458E-34
1.99092E-01 3.89535E-34
2.02589E-01 3.58261E-34
2.06107E-01 3.25775E-34
2.09649E-01 2.93045E-34
2.13212E-01 2.60868E-34
2.16797E-01 2.29876E-34
2.20404E-01 2.00550E-34
2.24032E-01 1.73229E-34
2.27680E-01 1.48138E-34
2.31350E-01 1.25397E-34
2.35040E-01 1.05039E-34
2.38751E-01 8.70314E-35
2.42481E-01 7.12885E-35
2.46231E-01 5.76838E-35
2.50000E-01 4.60647E-35
2.53788E-01 3.62602E-35
2.57595E-01 2.80906E-35
2.61421E-01 2.13746E-35
2.65264E-01 1.59336E-35
2.69126E-01 1.15969E-35
2.73005E-01 8.20420E-36
2.76901E-01 5.60747E-36
2.80814E-01 3.67262E-36
2.84744E-01 2.27963E-36
2.88691E-01 1.32275E-36
2.92653E-01 7.10001E-37
2.96632E-01 3.62600E-37
3.00625E-01 2.13963E-37
3.04634E-01 2.08678E-37
3.08658E-01 3.01374E-37
3.12697E-01 4.55644E-37
3.16749E-01 6.42806E-37
3.20816E-01 8.40907E-37
3.24896E-01 1.03367E-36
3.28990E-01 1.20961E-36
3.33097E-01 1.36111E-36
3.37216E-01 1.48372E-36
3.41348E-01 1.57542E-36
3.45492E-01 1.63613E-36
3.49647E-01 1.66712E-36
3.53814E-01 1.67082E-36
3.57992E-01 1.65008E-36
3.62181E-01 1.60831E-36
3.66381E-01 1.54896E-36
3.70590E-01 1.47552E-36
3.74810E-01 1.39131E-36
3.79039E-01 1.29943E-36
3.83277E-01 1.20270E-36
3.87524E-01 1.10360E-36
3.91780E-01 1.00427E-36
3.96044E-01 9.06476E-37
4.00316E-01 8.11746E-37
4.04596E-01 7.21184E-37
4.08882E-01 6.35732E-37
4.13176E-01 5.55960E-37
4.17476E-01 4.82303E-37
4.21783E-01 4.14967E-37
4.26095E-01 3.54008E-37
4.30413E-01 2.99330E-37
4.34737E-01 2.50732E-37
4.39065E-01 2.07943E-37
4.43398E-01 1.70624E-37
4.47736E-01 1.38384E-37
4.52077E-01 1.10803E-37
4.56422E-01 8.74617E-38
4.60770E-01 6.79367E-38
4.65122E-01 5.18036E-38
4.69476E-01 3.86552E-38
4.73832E-01 2.81099E-38
4.78190E-01 1.98138E-38
4.82550E-01 1.34295E-38
4.86912E-01 8.65959E-39
4.91274E-01 5.23347E-39
4.95637E-01 2.90852E-39
5.00000E-01 1.47102E-39
5.04363E-01 7.35702E-40
5.08726E-01 5.41153E-40
5.13088E-01 7.50034E-40
5.17450E-01 1.24800E-39
5.21810E-01 1.93510E-39
5.26168E-01 2.73794E-39
5.30524E-01 3.58553E-39
5.34878E-01 4.43333E-39
5.39230E-01 5.23902E-39
5.43578E-01 5.98019E-39
5.47923E-01 6.63405E-39
5.52264E-01 7.18788E-39
5.56602E-01 7.63597E-39
5.60935E-01 7.98038E-39
5.65263E-01 8.21897E-39
5.69587E-01 8.35728E-39
5.73905E-01 8.40882E-39
5.78217E-01 8.37015E-39
5.82524E-01 8.26025E-39
5.86824E-01 8.08327E-39
5.91118E-01 7.85139E-39
5.95404E-01 7.57054E-39
5.99684E-01 7.25401E-39
6.03956E-01 6.90955E-39
6.08220E-01 6.53963E-39
6.12476E-01 6.15474E-39
6.16723E-01 5.76393E-39
6.20961E-01 5.36842E-39
6.25190E-01 4.97631E-39
6.29410E-01 4.58888E-39
6.33619E-01 4.21230E-39
6.37819E-01 3.84803E-39
6.42008E-01 3.49924E-39
6.46186E-01 3.17003E-39
6.50353E-01 2.85737E-39
6.54508E-01 2.56577E-39
6.58652E-01 2.29285E-39
6.62784E-01 2.04071E-39
6.66903E-01 1.80951E-39
6.71010E-01 1.59643E-39
6.75104E-01 1.40338E-39
6.79184E-01 1.22706E-39
6.83251E-01 1.06775E-39
6.87303E-01 9.25287E-40
6.91342E-01 7.96687E-40
6.95366E-01 6.82250E-40
6.99375E-01 5.80365E-40
7.03368E-01 4.90183E-40
7.07347E-01 4.10846E-40
7.11309E-01 3.41720E-40
7.15256E-01 2.82201E-40
7.19186E-01 2.30518E-40
7.23099E-01 1.86457E-40
7.26995E-01 1.00000E-45
7.30874E-01 1.00000E-45
7.34736E-01 1.00000E-45
7.38579E-01 1.00000E-45
7.42405E-01 1.00000E-45
7.46212E-01 1.00000E-45
7.50000E-01 1.00000E-45
7.53769E-01 1.00000E-45
7.57519E-01 1.00000E-45
7.61249E-01 1.00000E-45
7.64960E-01 1.00000E-45
7.68650E-01 1.00000E-45
7.72320E-01 1.00000E-45
7.75968E-01 1.00000E-45
7.79596E-01 1.00000E-45
7.83203E-01 1.00000E-45
7.86788E-01 1.00000E-45
7.90351E-01 1.00000E-45
7.93893E-01 1.00000E-45
7.97411E-01 1.00000E-45
8.00908E-01 1.00000E-45
8.04381E-01 1.00000E-45
8.07831E-01 1.00000E-45
8.11257E-01 1.00000E-45
8.14660E-01 1.00000E-45
8.18039E-01 1.00000E-45
8.21394E-01 1.00000E-45
8.24724E-01 1.00000E-45
8.28030E-01 1.00000E-45
8.31310E-01 1.00000E-45
8.34565E-01 1.00000E-45
8.37795E-01 1.00000E-45
8.40999E-01 1.00000E-45
8.44177E-01 1.00000E-45
8.47329E-01 1.00000E-45
8.50455E-01 1.00000E-45
8.53553E-01 1.00000E-45
8.56625E-01 1.00000E-45
8.59670E-01 1.00000E-45
8.62687E-01 1.00000E-45
8.65677E-01 1.00000E-45
8.68639E-01 1.00000E-45
8.71572E-01 1.00000E-45
8.74478E-01 1.00000E-45
8.77355E-01 1.00000E-45
8.80203E-01 1.00000E-45
8.83022E-01 1.00000E-45
8.85812E-01 1.00000E-45
8.88573E-01 1.00000E-45
8.91304E-01 1.00000E-45
8.94005E-01 1.00000E-45
8.96677E-01 1.00000E-45
8.99318E-01 1.00000E-45
9.01928E-01 1.00000E-45
9.04508E-01 1.00000E-45
9.07058E-01 1.00000E-45
9.09576E-01 1.00000E-45
9.12063E-01 1.00000E-45
9.14519E-01 1.00000E-45
9.16943E-01 1.00000E-45
9.19335E-01 1.00000E-45
9.21696E-01 1.00000E-45
9.24024E-01 1.00000E-45
9.26320E-01 1.00000E-45
9.28584E-01 1.00000E-45
9.30815E-01 1.00000E-45
9.33013E-01 1.00000E-45
9.35178E-01 1.00000E-45
9.37310E-01 1.00000E-45
9.39409E-01 1.00000E-45
9.41474E-01 1.00000E-45
9.43505E-01 1.00000E-45
9.45503E-01 1.00000E-45
9.47467E-01 1.00000E-45
9.49397E-01 1.00000E-45
9.51293E-01 1.00000E-45
9.53154E-01 1.00000E-45
9.54981E-01 1.00000E-45
9.56773E-01 1.00000E-45
9.58530E-01 1.00000E-45
9.60252E-01 1.00000E-45
9.61940E-01 1.00000E-45
9.63592E-01 1.00000E-45
9.65209E-01 1.00000E-45
9.66790E-01 1.00000E-45
9.68336E-01 1.00000E-45
9.69846E-01 1.00000E-45
9.71321E-01 1.00000E-45
9.72759E-01 1.00000E-45
9.74162E-01 1.00000E-45
9.75528E-01 1.00000E-45
9.76858E-01 1.00000E-45
9.78152E-01 1.00000E-45
9.79410E-01 1.00000E-45
9.80631E-01 1.00000E-45
9.81815E-01 1.00000E-45
9.82963E-01 1.00000E-45
9.84074E-01 1.00000E-45
9.85148E-01 1.00000E-45
9.86185E-01 1.00000E-45
9.87185E-01 1.00000E-45
9.88148E-01 1.00000E-45
9.89074E-01 1.00000E-45
9.89962E-01 1.00000E-45
9.90814E-01 1.00000E-45
9.91627E-01 1.00000E-45
9.92404E-01 1.00000E-45
9.93143E-01 1.00000E-45
9.93844E-01 1.00000E-45
9.94508E-01 1.00000E-45
9.95134E-01 1.00000E-45
9.95722E-01 1.00000E-45
9.96273E-01 1.00000E-45
9.96786E-01 1.00000E-45
9.97261E-01 1.00000E-45
9.97698E-01 1.00000E-45
9.98097E-01 1.00000E-45
9.98459E-01 1.00000E-45
9.98782E-01 1.00000E-45
9.99067E-01 1.00000E-45
9.99315E-01 1.00000E-45
9.99524E-01 1.00000E-45
9.99695E-01 1.00000E-45
9.99829E-01 1.00000E-45
9.99924E-01 1.00000E-45
9.99981E-01 1.00000E-45
1.00000E+00 1.00000E-45
