 #
 # Subroutine ELSEPA. Elastic scattering of electrons and positrons
 #                    by neutral atoms and positive ions
 #
 # Projectile: electron
 # Kinetic energy = 5.00000E+07 eV = 1.83747E+06 a.u.
 #
 # WARNING: High-energy factorization with free-atom DF screening.
 #          Absorption, polarization and exchange corrections are
 #          switched off.
 #          Phase shifts are calculated for the bare nucleus.
 #          Scattering amplitudes are not evaluated.
 #
 # Element: Mg,  Z =  12,  atomic weight = 2.43050E+01 g/mol
 #
 # Nuclear model: Fermi distribution
 #                Average radius = 3.09943E-13 cm
 #                Skin thickness = 5.46000E-14 cm
 #
 # Number of electrons = 12
 #
 # Total elastic cross section = 6.08855E-19 cm**2 = 2.17426E-02 a0**2
 # 1st transport cross section = 1.17693E-25 cm**2 = 4.20289E-09 a0**2
 # 2nd transport cross section = 3.44202E-25 cm**2 = 1.22917E-08 a0**2
 #
 #
 # Differential cross section:                       MU=(1-COS(THETA))/2
 #
 #  THETA        MU          DCS          DCS        Sherman      error
 #  (deg)                 (cm**2/sr)   (a0**2/sr)    function
 #----------------------------------------------------------------------
0.00000E+00 2.64578E-11
7.61557E-13 2.64299E-11
1.18994E-12 2.64144E-11
1.71346E-12 2.63953E-11
2.33225E-12 2.63729E-11
3.04617E-12 2.63470E-11
3.85530E-12 2.63178E-11
4.75964E-12 2.62851E-11
5.75917E-12 2.62491E-11
6.85391E-12 2.62098E-11
8.04379E-12 2.61671E-11
9.32893E-12 2.61211E-11
1.07092E-11 2.60719E-11
1.21847E-11 2.60194E-11
1.37554E-11 2.59637E-11
1.54213E-11 2.59047E-11
1.71823E-11 2.58427E-11
1.90386E-11 2.57775E-11
2.09900E-11 2.57092E-11
2.30367E-11 2.56378E-11
2.51785E-11 2.55634E-11
2.74156E-11 2.54861E-11
2.97478E-11 2.54058E-11
3.21752E-11 2.53226E-11
3.46979E-11 2.52366E-11
3.73157E-11 2.51478E-11
4.00286E-11 2.50561E-11
4.28368E-11 2.49618E-11
4.57402E-11 2.48648E-11
4.87388E-11 2.47651E-11
5.18325E-11 2.46629E-11
5.50215E-11 2.45582E-11
5.83057E-11 2.44510E-11
6.16850E-11 2.43414E-11
6.51595E-11 2.42294E-11
6.87293E-11 2.41151E-11
7.23943E-11 2.39986E-11
7.61544E-11 2.38798E-11
1.18991E-10 2.25837E-11
1.71347E-10 2.11312E-11
2.33223E-10 1.95806E-11
3.04617E-10 1.79865E-11
3.85531E-10 1.63971E-11
4.75965E-10 1.48515E-11
5.75917E-10 1.33800E-11
6.85389E-10 1.20024E-11
8.04380E-10 1.07340E-11
9.32891E-10 9.57877E-12
1.07092E-09 8.54086E-12
1.21847E-09 7.60972E-12
1.37554E-09 6.77983E-12
1.54213E-09 6.05358E-12
1.71823E-09 5.40870E-12
1.90386E-09 4.84160E-12
2.09900E-09 4.34914E-12
2.30367E-09 3.91285E-12
2.51785E-09 3.53195E-12
2.74156E-09 3.19978E-12
2.97478E-09 2.90474E-12
3.21752E-09 2.64762E-12
3.46978E-09 2.42097E-12
3.73156E-09 2.21864E-12
4.00286E-09 2.04166E-12
4.28368E-09 1.88367E-12
4.57402E-09 1.74188E-12
4.87388E-09 1.61653E-12
5.18326E-09 1.50348E-12
5.50215E-09 1.40151E-12
5.83057E-09 1.30982E-12
6.16850E-09 1.22663E-12
6.51596E-09 1.15097E-12
6.87293E-09 1.08201E-12
7.23942E-09 1.01911E-12
7.61544E-09 9.61235E-13
1.18991E-08 5.73107E-13
1.71347E-08 3.67730E-13
2.33223E-08 2.45173E-13
3.04617E-08 1.67429E-13
3.85531E-08 1.16715E-13
4.75965E-08 8.28468E-14
5.75917E-08 5.98958E-14
6.85389E-08 4.39934E-14
8.04380E-08 3.29359E-14
9.32891E-08 2.50611E-14
1.07092E-07 1.93628E-14
1.21847E-07 1.51754E-14
1.37554E-07 1.20528E-14
1.54213E-07 9.69118E-15
1.71823E-07 7.88067E-15
1.90386E-07 6.47613E-15
2.09900E-07 5.37331E-15
2.30367E-07 4.49770E-15
2.51785E-07 3.79527E-15
2.74156E-07 3.22633E-15
2.97478E-07 2.76137E-15
3.21752E-07 2.37824E-15
3.46978E-07 2.06008E-15
3.73156E-07 1.79393E-15
4.00286E-07 1.56987E-15
4.28368E-07 1.38006E-15
4.57402E-07 1.21836E-15
4.87388E-07 1.07986E-15
5.18325E-07 9.60637E-16
5.50215E-07 8.57529E-16
5.83057E-07 7.67965E-16
6.16850E-07 6.89838E-16
6.51596E-07 6.21414E-16
6.87293E-07 5.61290E-16
7.23942E-07 5.08279E-16
7.61543E-07 4.61390E-16
1.18991E-06 1.95602E-16
1.71347E-06 9.62811E-17
2.33223E-06 5.26109E-17
3.04617E-06 3.10723E-17
3.85531E-06 1.94909E-17
4.75964E-06 1.28279E-17
5.75916E-06 8.78007E-18
6.85388E-06 6.20839E-18
8.04378E-06 4.51220E-18
9.32888E-06 3.35727E-18
1.07092E-05 2.54910E-18
1.21846E-05 1.97001E-18
1.37553E-05 1.54636E-18
1.54212E-05 1.23067E-18
1.71822E-05 9.91567E-19
1.90385E-05 8.07869E-19
2.09899E-05 6.64756E-19
2.30365E-05 5.51951E-19
2.51783E-05 4.62079E-19
2.74153E-05 3.89776E-19
2.97475E-05 3.31084E-19
3.21749E-05 2.83042E-19
3.46974E-05 2.43411E-19
3.73152E-05 2.10482E-19
4.00281E-05 1.82935E-19
4.28362E-05 1.59749E-19
4.57395E-05 1.40120E-19
4.87380E-05 1.23415E-19
5.18317E-05 1.09126E-19
5.50205E-05 9.68475E-20
5.83045E-05 8.62493E-20
6.16838E-05 7.70630E-20
6.51582E-05 6.90686E-20
6.87277E-05 6.20848E-20
7.23925E-05 5.59618E-20
7.61524E-05 5.05722E-20
9.21439E-05 3.45481E-20
1.09658E-04 2.43991E-20
1.28695E-04 1.77181E-20
1.49255E-04 1.31756E-20
1.71338E-04 1.00003E-20
1.94942E-04 7.72653E-21
2.20070E-04 6.06405E-21
2.46720E-04 4.82563E-21
2.74892E-04 3.88793E-21
3.04586E-04 3.16738E-21
3.35803E-04 2.60632E-21
3.68542E-04 2.16422E-21
4.02802E-04 1.81202E-21
4.38585E-04 1.52867E-21
4.75889E-04 1.29861E-21
5.14715E-04 1.11027E-21
5.55063E-04 9.54874E-22
5.96931E-04 8.25747E-22
6.40321E-04 7.17738E-22
6.85233E-04 6.26829E-22
7.31665E-04 5.49875E-22
7.79618E-04 4.84380E-22
8.29092E-04 4.28355E-22
8.80086E-04 3.80205E-22
9.32601E-04 3.38636E-22
9.86636E-04 3.02598E-22
1.04219E-03 2.71231E-22
1.09927E-03 2.43827E-22
1.15786E-03 2.19799E-22
1.21797E-03 1.98660E-22
1.27961E-03 1.80004E-22
1.34276E-03 1.63488E-22
1.40743E-03 1.48824E-22
1.47362E-03 1.35769E-22
1.54133E-03 1.24114E-22
1.61056E-03 1.13685E-22
1.68131E-03 1.04328E-22
1.75357E-03 9.59153E-23
1.82735E-03 8.83337E-23
1.90265E-03 8.14869E-23
1.97947E-03 7.52911E-23
2.05780E-03 6.96732E-23
2.13765E-03 6.45699E-23
2.21902E-03 5.99255E-23
2.30190E-03 5.56914E-23
2.38630E-03 5.18248E-23
2.47222E-03 4.82881E-23
2.55965E-03 4.50482E-23
2.64859E-03 4.20755E-23
2.73905E-03 3.93440E-23
2.83103E-03 3.68308E-23
2.92452E-03 3.45150E-23
3.01952E-03 3.23785E-23
3.11604E-03 3.04048E-23
3.21407E-03 2.85792E-23
3.31362E-03 2.68887E-23
3.41468E-03 2.53213E-23
3.51725E-03 2.38665E-23
3.62133E-03 2.25146E-23
3.72692E-03 2.12572E-23
3.83403E-03 2.00863E-23
3.94265E-03 1.89950E-23
4.05278E-03 1.79767E-23
4.16442E-03 1.70258E-23
4.27757E-03 1.61370E-23
4.39223E-03 1.53054E-23
4.50840E-03 1.45266E-23
4.62608E-03 1.37968E-23
4.74527E-03 1.31122E-23
4.86597E-03 1.24695E-23
4.98817E-03 1.18658E-23
5.11188E-03 1.12981E-23
5.23711E-03 1.07639E-23
5.36383E-03 1.02610E-23
5.49207E-03 9.78706E-24
5.62181E-03 9.34017E-24
5.75306E-03 8.91848E-24
5.88581E-03 8.52031E-24
6.02007E-03 8.14411E-24
6.15583E-03 7.78843E-24
6.29310E-03 7.45195E-24
6.43187E-03 7.13343E-24
6.57214E-03 6.83173E-24
6.71392E-03 6.54581E-24
6.85720E-03 6.27468E-24
7.00198E-03 6.01744E-24
7.14827E-03 5.77323E-24
7.29605E-03 5.54127E-24
7.44534E-03 5.32084E-24
7.59612E-03 5.11125E-24
7.97965E-03 4.63065E-24
8.37255E-03 4.20518E-24
8.77480E-03 3.82742E-24
9.18641E-03 3.49109E-24
9.60736E-03 3.19085E-24
1.00376E-02 2.92216E-24
1.04773E-02 2.68112E-24
1.09262E-02 2.46438E-24
1.13844E-02 2.26907E-24
1.18520E-02 2.09270E-24
1.23288E-02 1.93309E-24
1.28150E-02 1.78838E-24
1.33104E-02 1.65693E-24
1.38150E-02 1.53730E-24
1.43290E-02 1.42825E-24
1.48521E-02 1.32868E-24
1.53845E-02 1.23760E-24
1.59262E-02 1.15417E-24
1.64770E-02 1.07763E-24
1.70371E-02 1.00731E-24
1.76063E-02 9.42608E-25
1.81848E-02 8.82999E-25
1.87724E-02 8.28010E-25
1.93692E-02 7.77216E-25
1.99751E-02 7.30241E-25
2.05901E-02 6.86745E-25
2.12143E-02 6.46424E-25
2.18476E-02 6.09004E-25
2.24900E-02 5.74238E-25
2.31415E-02 5.41905E-25
2.38021E-02 5.11802E-25
2.44717E-02 4.83748E-25
2.51504E-02 4.57578E-25
2.58382E-02 4.33143E-25
2.65349E-02 4.10306E-25
2.72407E-02 3.88945E-25
2.79555E-02 3.68945E-25
2.86793E-02 3.50206E-25
2.94120E-02 3.32631E-25
3.01537E-02 3.16137E-25
3.09043E-02 3.00645E-25
3.16639E-02 2.86082E-25
3.24324E-02 2.72382E-25
3.32098E-02 2.59485E-25
3.39961E-02 2.47336E-25
3.47912E-02 2.35883E-25
3.55952E-02 2.25078E-25
3.64081E-02 2.14879E-25
3.72297E-02 2.05246E-25
3.80602E-02 1.96140E-25
3.88995E-02 1.87528E-25
3.97476E-02 1.79379E-25
4.06044E-02 1.71662E-25
4.14700E-02 1.64351E-25
4.23443E-02 1.57421E-25
4.32273E-02 1.50847E-25
4.41190E-02 1.44609E-25
4.50194E-02 1.38685E-25
4.59284E-02 1.33058E-25
4.68461E-02 1.27710E-25
4.87074E-02 1.17784E-25
5.06030E-02 1.08792E-25
5.25328E-02 1.00629E-25
5.44967E-02 9.32057E-26
5.64946E-02 8.64441E-26
5.85262E-02 8.02746E-26
6.05914E-02 7.46366E-26
6.26901E-02 6.94762E-26
6.48222E-02 6.47460E-26
6.69873E-02 6.04040E-26
6.91854E-02 5.64127E-26
7.14163E-02 5.27390E-26
7.36799E-02 4.93532E-26
7.59760E-02 4.62288E-26
7.83043E-02 4.33423E-26
8.06647E-02 4.06722E-26
8.30571E-02 3.81997E-26
8.54812E-02 3.59076E-26
8.79369E-02 3.37804E-26
9.04240E-02 3.18042E-26
9.29422E-02 2.99666E-26
9.54915E-02 2.82560E-26
9.80716E-02 2.66623E-26
1.00682E-01 2.51760E-26
1.03323E-01 2.37886E-26
1.05995E-01 2.24926E-26
1.08696E-01 2.12808E-26
1.11427E-01 2.01468E-26
1.14188E-01 1.90848E-26
1.16978E-01 1.80895E-26
1.19797E-01 1.71558E-26
1.22645E-01 1.62795E-26
1.25522E-01 1.54563E-26
1.28428E-01 1.46825E-26
1.31361E-01 1.39547E-26
1.34323E-01 1.32696E-26
1.37313E-01 1.26243E-26
1.40330E-01 1.20162E-26
1.43375E-01 1.14426E-26
1.46447E-01 1.09014E-26
1.49545E-01 1.03905E-26
1.52671E-01 9.90770E-27
1.55823E-01 9.45137E-27
1.59001E-01 9.01978E-27
1.62205E-01 8.61137E-27
1.65435E-01 8.22468E-27
1.68690E-01 7.85839E-27
1.71970E-01 7.51122E-27
1.75276E-01 7.18203E-27
1.78606E-01 6.86973E-27
1.81961E-01 6.57332E-27
1.85340E-01 6.29186E-27
1.88743E-01 6.02447E-27
1.92169E-01 5.77034E-27
1.95619E-01 5.52870E-27
1.99092E-01 5.29885E-27
2.02589E-01 5.08012E-27
2.06107E-01 4.87188E-27
2.09649E-01 4.67355E-27
2.13212E-01 4.48460E-27
2.16797E-01 4.30449E-27
2.20404E-01 4.13277E-27
2.24032E-01 3.96897E-27
2.27680E-01 3.81267E-27
2.31350E-01 3.66349E-27
2.35040E-01 3.52103E-27
2.38751E-01 3.38497E-27
2.42481E-01 3.25495E-27
2.46231E-01 3.13069E-27
2.50000E-01 3.01187E-27
2.53788E-01 2.89823E-27
2.57595E-01 2.78951E-27
2.61421E-01 2.68547E-27
2.65264E-01 2.58586E-27
2.69126E-01 2.49049E-27
2.73005E-01 2.39913E-27
2.76901E-01 2.31160E-27
2.80814E-01 2.22771E-27
2.84744E-01 2.14728E-27
2.88691E-01 2.07017E-27
2.92653E-01 1.99620E-27
2.96632E-01 1.92523E-27
3.00625E-01 1.85713E-27
3.04634E-01 1.79175E-27
3.08658E-01 1.72899E-27
3.12697E-01 1.66871E-27
3.16749E-01 1.61080E-27
3.20816E-01 1.55517E-27
3.24896E-01 1.50170E-27
3.28990E-01 1.45030E-27
3.33097E-01 1.40088E-27
3.37216E-01 1.35336E-27
3.41348E-01 1.30765E-27
3.45492E-01 1.26367E-27
3.49647E-01 1.22135E-27
3.53814E-01 1.18061E-27
3.57992E-01 1.14140E-27
3.62181E-01 1.10364E-27
3.66381E-01 1.06727E-27
3.70590E-01 1.03225E-27
3.74810E-01 9.98498E-28
3.79039E-01 9.65978E-28
3.83277E-01 9.34635E-28
3.87524E-01 9.04422E-28
3.91780E-01 8.75292E-28
3.96044E-01 8.47202E-28
4.00316E-01 8.20110E-28
4.04596E-01 7.93975E-28
4.08882E-01 7.68761E-28
4.13176E-01 7.44430E-28
4.17476E-01 7.20947E-28
4.21783E-01 6.98281E-28
4.26095E-01 6.76397E-28
4.30413E-01 6.55267E-28
4.34737E-01 6.34862E-28
4.39065E-01 6.15152E-28
4.43398E-01 5.96113E-28
4.47736E-01 5.77718E-28
4.52077E-01 5.59942E-28
4.56422E-01 5.42764E-28
4.60770E-01 5.26160E-28
4.65122E-01 5.10108E-28
4.69476E-01 4.94589E-28
4.73832E-01 4.79583E-28
4.78190E-01 4.65070E-28
4.82550E-01 4.51033E-28
4.86912E-01 4.37455E-28
4.91274E-01 4.24318E-28
4.95637E-01 4.11607E-28
5.00000E-01 3.99306E-28
5.04363E-01 3.87401E-28
5.08726E-01 3.75878E-28
5.13088E-01 3.64722E-28
5.17450E-01 3.53922E-28
5.21810E-01 3.43464E-28
5.26168E-01 3.33337E-28
5.30524E-01 3.23529E-28
5.34878E-01 3.14028E-28
5.39230E-01 3.04825E-28
5.43578E-01 2.95909E-28
5.47923E-01 2.87270E-28
5.52264E-01 2.78898E-28
5.56602E-01 2.70785E-28
5.60935E-01 2.62921E-28
5.65263E-01 2.55299E-28
5.69587E-01 2.47910E-28
5.73905E-01 2.40746E-28
5.78217E-01 2.33799E-28
5.82524E-01 2.27063E-28
5.86824E-01 2.20531E-28
5.91118E-01 2.14195E-28
5.95404E-01 2.08050E-28
5.99684E-01 2.02088E-28
6.03956E-01 1.96305E-28
6.08220E-01 1.90693E-28
6.12476E-01 1.85248E-28
6.16723E-01 1.79965E-28
6.20961E-01 1.74837E-28
6.25190E-01 1.69860E-28
6.29410E-01 1.65029E-28
6.33619E-01 1.60340E-28
6.37819E-01 1.55787E-28
6.42008E-01 1.51367E-28
6.46186E-01 1.47076E-28
6.50353E-01 1.42908E-28
6.54508E-01 1.38862E-28
6.58652E-01 1.34931E-28
6.62784E-01 1.31114E-28
6.66903E-01 1.27406E-28
6.71010E-01 1.23805E-28
6.75104E-01 1.20306E-28
6.79184E-01 1.16906E-28
6.83251E-01 1.13603E-28
6.87303E-01 1.10394E-28
6.91342E-01 1.07276E-28
6.95366E-01 1.04245E-28
6.99375E-01 1.01300E-28
7.03368E-01 9.84376E-29
7.07347E-01 9.56552E-29
7.11309E-01 9.29507E-29
7.15256E-01 9.03216E-29
7.19186E-01 8.77658E-29
7.23099E-01 8.52809E-29
7.26995E-01 8.28649E-29
7.30874E-01 8.05158E-29
7.34736E-01 7.82315E-29
7.38579E-01 7.60102E-29
7.42405E-01 7.38500E-29
7.46212E-01 7.17491E-29
7.50000E-01 6.97058E-29
7.53769E-01 6.77184E-29
7.57519E-01 6.57853E-29
7.61249E-01 6.39048E-29
7.64960E-01 6.20755E-29
7.68650E-01 6.02959E-29
7.72320E-01 5.85646E-29
7.75968E-01 5.68802E-29
7.79596E-01 5.52412E-29
7.83203E-01 5.36466E-29
7.86788E-01 5.20949E-29
7.90351E-01 5.05849E-29
7.93893E-01 4.91156E-29
7.97411E-01 4.76856E-29
8.00908E-01 4.62940E-29
8.04381E-01 4.49396E-29
8.07831E-01 4.36215E-29
8.11257E-01 4.23385E-29
8.14660E-01 4.10897E-29
8.18039E-01 3.98743E-29
8.21394E-01 3.86911E-29
8.24724E-01 3.75394E-29
8.28030E-01 3.64183E-29
8.31310E-01 3.53269E-29
8.34565E-01 3.42645E-29
8.37795E-01 3.32302E-29
8.40999E-01 3.22233E-29
8.44177E-01 3.12430E-29
8.47329E-01 3.02886E-29
8.50455E-01 2.93595E-29
8.53553E-01 2.84548E-29
8.56625E-01 2.75741E-29
8.59670E-01 2.67166E-29
8.62687E-01 2.58818E-29
8.65677E-01 2.50689E-29
8.68639E-01 2.42775E-29
8.71572E-01 2.35070E-29
8.74478E-01 2.27568E-29
8.77355E-01 2.20264E-29
8.80203E-01 2.13152E-29
8.83022E-01 2.06229E-29
8.85812E-01 1.99488E-29
8.88573E-01 1.92926E-29
8.91304E-01 1.86537E-29
8.94005E-01 1.80317E-29
8.96677E-01 1.74263E-29
8.99318E-01 1.68368E-29
9.01928E-01 1.62631E-29
9.04508E-01 1.57046E-29
9.07058E-01 1.51610E-29
9.09576E-01 1.46319E-29
9.12063E-01 1.41169E-29
9.14519E-01 1.36157E-29
9.16943E-01 1.31280E-29
9.19335E-01 1.26535E-29
9.21696E-01 1.21917E-29
9.24024E-01 1.17425E-29
9.26320E-01 1.13054E-29
9.28584E-01 1.08802E-29
9.30815E-01 1.04667E-29
9.33013E-01 1.00645E-29
9.35178E-01 9.67339E-30
9.37310E-01 9.29310E-30
9.39409E-01 8.92338E-30
9.41474E-01 8.56399E-30
9.43505E-01 8.21468E-30
9.45503E-01 7.87524E-30
9.47467E-01 7.54543E-30
9.49397E-01 7.22505E-30
9.51293E-01 6.91389E-30
9.53154E-01 6.61173E-30
9.54981E-01 6.31839E-30
9.56773E-01 6.03368E-30
9.58530E-01 5.75741E-30
9.60252E-01 5.48941E-30
9.61940E-01 5.22950E-30
9.63592E-01 4.97751E-30
9.65209E-01 4.73329E-30
9.66790E-01 4.49667E-30
9.68336E-01 4.26752E-30
9.69846E-01 4.04567E-30
9.71321E-01 3.83099E-30
9.72759E-01 3.62335E-30
9.74162E-01 3.42261E-30
9.75528E-01 3.22864E-30
9.76858E-01 3.04133E-30
9.78152E-01 2.86055E-30
9.79410E-01 2.68619E-30
9.80631E-01 2.51814E-30
9.81815E-01 2.35629E-30
9.82963E-01 2.20055E-30
9.84074E-01 2.05082E-30
9.85148E-01 1.90699E-30
9.86185E-01 1.76899E-30
9.87185E-01 1.63673E-30
9.88148E-01 1.51012E-30
9.89074E-01 1.38908E-30
9.89962E-01 1.27355E-30
9.90814E-01 1.16344E-30
9.91627E-01 1.05870E-30
9.92404E-01 9.59243E-31
9.93143E-01 8.65024E-31
9.93844E-01 7.75980E-31
9.94508E-01 6.92055E-31
9.95134E-01 6.13200E-31
9.95722E-01 5.39363E-31
9.96273E-01 4.70500E-31
9.96786E-01 4.06569E-31
9.97261E-01 3.47530E-31
9.97698E-01 2.93346E-31
9.98097E-01 2.43986E-31
9.98459E-01 1.99416E-31
9.98782E-01 1.59612E-31
9.99067E-01 1.24548E-31
9.99315E-01 9.42022E-32
9.99524E-01 6.85566E-32
9.99695E-01 4.75953E-32
9.99829E-01 3.13054E-32
9.99924E-01 1.96770E-32
9.99981E-01 1.27026E-32
1.00000E+00 1.03784E-32
