 #
 # Subroutine ELSEPA. Elastic scattering of electrons and positrons
 #                    by neutral atoms and positive ions
 #
 # Projectile: electron
 # Kinetic energy = 1.75000E+06 eV = 6.43113E+04 a.u.
 #
 # WARNING: High-energy factorization with free-atom DF screening.
 #          Absorption, polarization and exchange corrections are
 #          switched off.
 #          Phase shifts are calculated for the bare nucleus.
 #          Scattering amplitudes are not evaluated.
 #
 # Element: Mg,  Z =  12,  atomic weight = 2.43050E+01 g/mol
 #
 # Nuclear model: Fermi distribution
 #                Average radius = 3.09943E-13 cm
 #                Skin thickness = 5.46000E-14 cm
 #
 # Number of electrons = 12
 #
 # Total elastic cross section = 6.42076E-19 cm**2 = 2.29289E-02 a0**2
 # 1st transport cross section = 4.18084E-23 cm**2 = 1.49300E-06 a0**2
 # 2nd transport cross section = 1.18365E-22 cm**2 = 4.22690E-06 a0**2
 #
 #
 # Differential cross section:                       MU=(1-COS(THETA))/2
 #
 #  THETA        MU          DCS          DCS        Sherman      error
 #  (deg)                 (cm**2/sr)   (a0**2/sr)    function
 #----------------------------------------------------------------------
0.00000E+00 5.30130E-14
7.61557E-13 5.30129E-14
1.18994E-12 5.30128E-14
1.71346E-12 5.30128E-14
2.33225E-12 5.30127E-14
3.04617E-12 5.30126E-14
3.85530E-12 5.30125E-14
4.75964E-12 5.30123E-14
5.75917E-12 5.30122E-14
6.85391E-12 5.30120E-14
8.04379E-12 5.30119E-14
9.32893E-12 5.30117E-14
1.07092E-11 5.30115E-14
1.21847E-11 5.30113E-14
1.37554E-11 5.30111E-14
1.54213E-11 5.30108E-14
1.71823E-11 5.30106E-14
1.90386E-11 5.30103E-14
2.09900E-11 5.30101E-14
2.30367E-11 5.30098E-14
2.51785E-11 5.30095E-14
2.74156E-11 5.30092E-14
2.97478E-11 5.30089E-14
3.21752E-11 5.30085E-14
3.46979E-11 5.30082E-14
3.73157E-11 5.30078E-14
4.00286E-11 5.30074E-14
4.28368E-11 5.30070E-14
4.57402E-11 5.30066E-14
4.87388E-11 5.30062E-14
5.18325E-11 5.30058E-14
5.50215E-11 5.30053E-14
5.83057E-11 5.30049E-14
6.16850E-11 5.30044E-14
6.51595E-11 5.30039E-14
6.87293E-11 5.30034E-14
7.23943E-11 5.30029E-14
7.61544E-11 5.30024E-14
1.18991E-10 5.29965E-14
1.71347E-10 5.29892E-14
2.33223E-10 5.29806E-14
3.04617E-10 5.29707E-14
3.85531E-10 5.29595E-14
4.75965E-10 5.29470E-14
5.75917E-10 5.29332E-14
6.85389E-10 5.29181E-14
8.04380E-10 5.29016E-14
9.32891E-10 5.28839E-14
1.07092E-09 5.28648E-14
1.21847E-09 5.28444E-14
1.37554E-09 5.28228E-14
1.54213E-09 5.27998E-14
1.71823E-09 5.27756E-14
1.90386E-09 5.27500E-14
2.09900E-09 5.27232E-14
2.30367E-09 5.26951E-14
2.51785E-09 5.26657E-14
2.74156E-09 5.26350E-14
2.97478E-09 5.26030E-14
3.21752E-09 5.25698E-14
3.46978E-09 5.25352E-14
3.73156E-09 5.24994E-14
4.00286E-09 5.24624E-14
4.28368E-09 5.24241E-14
4.57402E-09 5.23845E-14
4.87388E-09 5.23437E-14
5.18326E-09 5.23016E-14
5.50215E-09 5.22583E-14
5.83057E-09 5.22137E-14
6.16850E-09 5.21680E-14
6.51596E-09 5.21209E-14
6.87293E-09 5.20727E-14
7.23942E-09 5.20232E-14
7.61544E-09 5.19725E-14
1.18991E-08 5.14000E-14
1.71347E-08 5.07122E-14
2.33223E-08 4.99161E-14
3.04617E-08 4.90190E-14
3.85531E-08 4.80298E-14
4.75965E-08 4.69570E-14
5.75917E-08 4.58106E-14
6.85389E-08 4.45996E-14
8.04380E-08 4.33346E-14
9.32891E-08 4.20247E-14
1.07092E-07 4.06799E-14
1.21847E-07 3.93094E-14
1.37554E-07 3.79220E-14
1.54213E-07 3.65263E-14
1.71823E-07 3.51297E-14
1.90386E-07 3.37400E-14
2.09900E-07 3.23632E-14
2.30367E-07 3.10056E-14
2.51785E-07 2.96720E-14
2.74156E-07 2.83672E-14
2.97478E-07 2.70949E-14
3.21752E-07 2.58581E-14
3.46978E-07 2.46587E-14
3.73156E-07 2.35007E-14
4.00286E-07 2.23851E-14
4.28368E-07 2.13127E-14
4.57402E-07 2.02835E-14
4.87388E-07 1.92974E-14
5.18325E-07 1.83581E-14
5.50215E-07 1.74620E-14
5.83057E-07 1.66068E-14
6.16850E-07 1.57916E-14
6.51596E-07 1.50152E-14
6.87293E-07 1.42765E-14
7.23942E-07 1.35774E-14
7.61543E-07 1.29222E-14
1.18991E-06 8.00598E-15
1.71347E-06 5.22864E-15
2.33223E-06 3.62276E-15
3.04617E-06 2.64579E-15
3.85531E-06 2.01367E-15
4.75964E-06 1.57932E-15
5.75916E-06 1.26693E-15
6.85388E-06 1.03131E-15
8.04378E-06 8.49710E-16
9.32888E-06 7.05637E-16
1.07092E-05 5.90089E-16
1.21846E-05 4.96068E-16
1.37553E-05 4.18891E-16
1.54212E-05 3.55282E-16
1.71822E-05 3.02361E-16
1.90385E-05 2.58430E-16
2.09899E-05 2.21530E-16
2.30365E-05 1.90653E-16
2.51783E-05 1.64585E-16
2.74153E-05 1.42601E-16
2.97475E-05 1.23959E-16
3.21749E-05 1.08082E-16
3.46974E-05 9.44598E-17
3.73152E-05 8.30154E-17
4.00281E-05 7.31286E-17
4.28362E-05 6.46016E-17
4.57395E-05 5.73234E-17
4.87380E-05 5.09218E-17
5.18317E-05 4.54128E-17
5.50205E-05 4.06155E-17
5.83045E-05 3.64100E-17
6.16838E-05 3.27476E-17
6.51582E-05 2.95135E-17
6.87277E-05 2.66717E-17
7.23925E-05 2.41657E-17
7.61524E-05 2.19400E-17
9.21439E-05 1.52467E-17
1.09658E-04 1.09309E-17
1.28695E-04 8.05148E-18
1.49255E-04 6.06929E-18
1.71338E-04 4.66758E-18
1.94942E-04 3.65215E-18
2.20070E-04 2.90103E-18
2.46720E-04 2.33513E-18
2.74892E-04 1.90159E-18
3.04586E-04 1.56484E-18
3.35803E-04 1.29962E-18
3.68542E-04 1.08854E-18
4.02802E-04 9.18628E-19
4.38585E-04 7.80666E-19
4.75889E-04 6.67628E-19
5.14715E-04 5.74307E-19
5.55063E-04 4.96708E-19
5.96931E-04 4.31741E-19
6.40321E-04 3.77037E-19
6.85233E-04 3.30687E-19
7.31665E-04 2.91232E-19
7.79618E-04 2.57457E-19
8.29092E-04 2.28426E-19
8.80086E-04 2.03354E-19
9.32601E-04 1.81618E-19
9.86636E-04 1.62697E-19
1.04219E-03 1.46168E-19
1.09927E-03 1.31678E-19
1.15786E-03 1.18932E-19
1.21797E-03 1.07687E-19
1.27961E-03 9.77337E-20
1.34276E-03 8.89016E-20
1.40743E-03 8.10409E-20
1.47362E-03 7.40278E-20
1.54133E-03 6.77546E-20
1.61056E-03 6.21302E-20
1.68131E-03 5.70760E-20
1.75357E-03 5.25239E-20
1.82735E-03 4.84157E-20
1.90265E-03 4.47003E-20
1.97947E-03 4.13340E-20
2.05780E-03 3.82778E-20
2.13765E-03 3.54986E-20
2.21902E-03 3.29665E-20
2.30190E-03 3.06558E-20
2.38630E-03 2.85438E-20
2.47222E-03 2.66103E-20
2.55965E-03 2.48376E-20
2.64859E-03 2.32098E-20
2.73905E-03 2.17131E-20
2.83103E-03 2.03349E-20
2.92452E-03 1.90643E-20
3.01952E-03 1.78913E-20
3.11604E-03 1.68071E-20
3.21407E-03 1.58037E-20
3.31362E-03 1.48741E-20
3.41468E-03 1.40117E-20
3.51725E-03 1.32109E-20
3.62133E-03 1.24665E-20
3.72692E-03 1.17738E-20
3.83403E-03 1.11286E-20
3.94265E-03 1.05269E-20
4.05278E-03 9.96532E-21
4.16442E-03 9.44072E-21
4.27757E-03 8.95015E-21
4.39223E-03 8.49107E-21
4.50840E-03 8.06104E-21
4.62608E-03 7.65789E-21
4.74527E-03 7.27965E-21
4.86597E-03 6.92445E-21
4.98817E-03 6.59068E-21
5.11188E-03 6.27679E-21
5.23711E-03 5.98135E-21
5.36383E-03 5.70312E-21
5.49207E-03 5.44087E-21
5.62181E-03 5.19354E-21
5.75306E-03 4.96011E-21
5.88581E-03 4.73964E-21
6.02007E-03 4.53131E-21
6.15583E-03 4.33430E-21
6.29310E-03 4.14788E-21
6.43187E-03 3.97140E-21
6.57214E-03 3.80420E-21
6.71392E-03 3.64571E-21
6.85720E-03 3.49540E-21
7.00198E-03 3.35276E-21
7.14827E-03 3.21733E-21
7.29605E-03 3.08868E-21
7.44534E-03 2.96639E-21
7.59612E-03 2.85010E-21
7.97965E-03 2.58339E-21
8.37255E-03 2.34717E-21
8.77480E-03 2.13737E-21
9.18641E-03 1.95052E-21
9.60736E-03 1.78367E-21
1.00376E-02 1.63429E-21
1.04773E-02 1.50025E-21
1.09262E-02 1.37968E-21
1.13844E-02 1.27100E-21
1.18520E-02 1.17282E-21
1.23288E-02 1.08395E-21
1.28150E-02 1.00334E-21
1.33104E-02 9.30104E-22
1.38150E-02 8.63434E-22
1.43290E-02 8.02637E-22
1.48521E-02 7.47103E-22
1.53845E-02 6.96296E-22
1.59262E-02 6.49739E-22
1.64770E-02 6.07013E-22
1.70371E-02 5.67745E-22
1.76063E-02 5.31604E-22
1.81848E-02 4.98297E-22
1.87724E-02 4.67560E-22
1.93692E-02 4.39160E-22
1.99751E-02 4.12883E-22
2.05901E-02 3.88544E-22
2.12143E-02 3.65972E-22
2.18476E-02 3.45017E-22
2.24900E-02 3.25542E-22
2.31415E-02 3.07423E-22
2.38021E-02 2.90549E-22
2.44717E-02 2.74817E-22
2.51504E-02 2.60136E-22
2.58382E-02 2.46424E-22
2.65349E-02 2.33604E-22
2.72407E-02 2.21607E-22
2.79555E-02 2.10371E-22
2.86793E-02 1.99839E-22
2.94120E-02 1.89958E-22
3.01537E-02 1.80680E-22
3.09043E-02 1.71962E-22
3.16639E-02 1.63764E-22
3.24324E-02 1.56049E-22
3.32098E-02 1.48783E-22
3.39961E-02 1.41935E-22
3.47912E-02 1.35477E-22
3.55952E-02 1.29382E-22
3.64081E-02 1.23625E-22
3.72297E-02 1.18186E-22
3.80602E-02 1.13042E-22
3.88995E-02 1.08175E-22
3.97476E-02 1.03567E-22
4.06044E-02 9.92022E-23
4.14700E-02 9.50646E-23
4.23443E-02 9.11403E-23
4.32273E-02 8.74164E-23
4.41190E-02 8.38806E-23
4.50194E-02 8.05217E-23
4.59284E-02 7.73292E-23
4.68461E-02 7.42931E-23
4.87074E-02 6.86549E-23
5.06030E-02 6.35410E-23
5.25328E-02 5.88940E-23
5.44967E-02 5.46637E-23
5.64946E-02 5.08059E-23
5.85262E-02 4.72820E-23
6.05914E-02 4.40579E-23
6.26901E-02 4.11034E-23
6.48222E-02 3.83919E-23
6.69873E-02 3.58999E-23
6.91854E-02 3.36064E-23
7.14163E-02 3.14926E-23
7.36799E-02 2.95419E-23
7.59760E-02 2.77395E-23
7.83043E-02 2.60720E-23
8.06647E-02 2.45275E-23
8.30571E-02 2.30953E-23
8.54812E-02 2.17657E-23
8.79369E-02 2.05300E-23
9.04240E-02 1.93803E-23
9.29422E-02 1.83096E-23
9.54915E-02 1.73115E-23
9.80716E-02 1.63801E-23
1.00682E-01 1.55102E-23
1.03323E-01 1.46969E-23
1.05995E-01 1.39359E-23
1.08696E-01 1.32232E-23
1.11427E-01 1.25552E-23
1.14188E-01 1.19285E-23
1.16978E-01 1.13401E-23
1.19797E-01 1.07873E-23
1.22645E-01 1.02676E-23
1.25522E-01 9.77843E-24
1.28428E-01 9.31783E-24
1.31361E-01 8.88379E-24
1.34323E-01 8.47449E-24
1.37313E-01 8.08826E-24
1.40330E-01 7.72356E-24
1.43375E-01 7.37897E-24
1.46447E-01 7.05317E-24
1.49545E-01 6.74495E-24
1.52671E-01 6.45319E-24
1.55823E-01 6.17683E-24
1.59001E-01 5.91493E-24
1.62205E-01 5.66658E-24
1.65435E-01 5.43095E-24
1.68690E-01 5.20728E-24
1.71970E-01 4.99483E-24
1.75276E-01 4.79295E-24
1.78606E-01 4.60101E-24
1.81961E-01 4.41843E-24
1.85340E-01 4.24467E-24
1.88743E-01 4.07922E-24
1.92169E-01 3.92162E-24
1.95619E-01 3.77142E-24
1.99092E-01 3.62821E-24
2.02589E-01 3.49161E-24
2.06107E-01 3.36125E-24
2.09649E-01 3.23679E-24
2.13212E-01 3.11793E-24
2.16797E-01 3.00436E-24
2.20404E-01 2.89580E-24
2.24032E-01 2.79199E-24
2.27680E-01 2.69268E-24
2.31350E-01 2.59765E-24
2.35040E-01 2.50667E-24
2.38751E-01 2.41955E-24
2.42481E-01 2.33608E-24
2.46231E-01 2.25608E-24
2.50000E-01 2.17939E-24
2.53788E-01 2.10585E-24
2.57595E-01 2.03529E-24
2.61421E-01 1.96758E-24
2.65264E-01 1.90258E-24
2.69126E-01 1.84016E-24
2.73005E-01 1.78020E-24
2.76901E-01 1.72259E-24
2.80814E-01 1.66721E-24
2.84744E-01 1.61397E-24
2.88691E-01 1.56277E-24
2.92653E-01 1.51351E-24
2.96632E-01 1.46611E-24
3.00625E-01 1.42048E-24
3.04634E-01 1.37655E-24
3.08658E-01 1.33425E-24
3.12697E-01 1.29349E-24
3.16749E-01 1.25421E-24
3.20816E-01 1.21636E-24
3.24896E-01 1.17987E-24
3.28990E-01 1.14467E-24
3.33097E-01 1.11073E-24
3.37216E-01 1.07797E-24
3.41348E-01 1.04637E-24
3.45492E-01 1.01586E-24
3.49647E-01 9.86401E-25
3.53814E-01 9.57955E-25
3.57992E-01 9.30477E-25
3.62181E-01 9.03929E-25
3.66381E-01 8.78274E-25
3.70590E-01 8.53476E-25
3.74810E-01 8.29502E-25
3.79039E-01 8.06320E-25
3.83277E-01 7.83898E-25
3.87524E-01 7.62207E-25
3.91780E-01 7.41220E-25
3.96044E-01 7.20909E-25
4.00316E-01 7.01248E-25
4.04596E-01 6.82213E-25
4.08882E-01 6.63781E-25
4.13176E-01 6.45929E-25
4.17476E-01 6.28636E-25
4.21783E-01 6.11881E-25
4.26095E-01 5.95644E-25
4.30413E-01 5.79907E-25
4.34737E-01 5.64651E-25
4.39065E-01 5.49859E-25
4.43398E-01 5.35515E-25
4.47736E-01 5.21602E-25
4.52077E-01 5.08106E-25
4.56422E-01 4.95012E-25
4.60770E-01 4.82305E-25
4.65122E-01 4.69973E-25
4.69476E-01 4.58002E-25
4.73832E-01 4.46379E-25
4.78190E-01 4.35094E-25
4.82550E-01 4.24134E-25
4.86912E-01 4.13489E-25
4.91274E-01 4.03148E-25
4.95637E-01 3.93101E-25
5.00000E-01 3.83337E-25
5.04363E-01 3.73848E-25
5.08726E-01 3.64625E-25
5.13088E-01 3.55659E-25
5.17450E-01 3.46941E-25
5.21810E-01 3.38464E-25
5.26168E-01 3.30220E-25
5.30524E-01 3.22200E-25
5.34878E-01 3.14399E-25
5.39230E-01 3.06809E-25
5.43578E-01 2.99424E-25
5.47923E-01 2.92237E-25
5.52264E-01 2.85241E-25
5.56602E-01 2.78432E-25
5.60935E-01 2.71803E-25
5.65263E-01 2.65348E-25
5.69587E-01 2.59063E-25
5.73905E-01 2.52942E-25
5.78217E-01 2.46980E-25
5.82524E-01 2.41172E-25
5.86824E-01 2.35515E-25
5.91118E-01 2.30002E-25
5.95404E-01 2.24630E-25
5.99684E-01 2.19395E-25
6.03956E-01 2.14293E-25
6.08220E-01 2.09320E-25
6.12476E-01 2.04472E-25
6.16723E-01 1.99745E-25
6.20961E-01 1.95136E-25
6.25190E-01 1.90642E-25
6.29410E-01 1.86259E-25
6.33619E-01 1.81984E-25
6.37819E-01 1.77814E-25
6.42008E-01 1.73747E-25
6.46186E-01 1.69778E-25
6.50353E-01 1.65906E-25
6.54508E-01 1.62127E-25
6.58652E-01 1.58440E-25
6.62784E-01 1.54842E-25
6.66903E-01 1.51329E-25
6.71010E-01 1.47901E-25
6.75104E-01 1.44554E-25
6.79184E-01 1.41286E-25
6.83251E-01 1.38096E-25
6.87303E-01 1.34980E-25
6.91342E-01 1.31938E-25
6.95366E-01 1.28967E-25
6.99375E-01 1.26065E-25
7.03368E-01 1.23231E-25
7.07347E-01 1.20463E-25
7.11309E-01 1.17758E-25
7.15256E-01 1.15116E-25
7.19186E-01 1.12534E-25
7.23099E-01 1.10012E-25
7.26995E-01 1.07547E-25
7.30874E-01 1.05139E-25
7.34736E-01 1.02785E-25
7.38579E-01 1.00484E-25
7.42405E-01 9.82358E-26
7.46212E-01 9.60380E-26
7.50000E-01 9.38895E-26
7.53769E-01 9.17893E-26
7.57519E-01 8.97361E-26
7.61249E-01 8.77287E-26
7.64960E-01 8.57660E-26
7.68650E-01 8.38470E-26
7.72320E-01 8.19705E-26
7.75968E-01 8.01355E-26
7.79596E-01 7.83411E-26
7.83203E-01 7.65863E-26
7.86788E-01 7.48701E-26
7.90351E-01 7.31915E-26
7.93893E-01 7.15498E-26
7.97411E-01 6.99441E-26
8.00908E-01 6.83734E-26
8.04381E-01 6.68370E-26
8.07831E-01 6.53342E-26
8.11257E-01 6.38640E-26
8.14660E-01 6.24258E-26
8.18039E-01 6.10189E-26
8.21394E-01 5.96424E-26
8.24724E-01 5.82959E-26
8.28030E-01 5.69784E-26
8.31310E-01 5.56895E-26
8.34565E-01 5.44285E-26
8.37795E-01 5.31948E-26
8.40999E-01 5.19877E-26
8.44177E-01 5.08066E-26
8.47329E-01 4.96511E-26
8.50455E-01 4.85206E-26
8.53553E-01 4.74144E-26
8.56625E-01 4.63322E-26
8.59670E-01 4.52733E-26
8.62687E-01 4.42373E-26
8.65677E-01 4.32237E-26
8.68639E-01 4.22321E-26
8.71572E-01 4.12620E-26
8.74478E-01 4.03128E-26
8.77355E-01 3.93843E-26
8.80203E-01 3.84760E-26
8.83022E-01 3.75874E-26
8.85812E-01 3.67182E-26
8.88573E-01 3.58680E-26
8.91304E-01 3.50364E-26
8.94005E-01 3.42231E-26
8.96677E-01 3.34276E-26
8.99318E-01 3.26497E-26
9.01928E-01 3.18889E-26
9.04508E-01 3.11450E-26
9.07058E-01 3.04177E-26
9.09576E-01 2.97066E-26
9.12063E-01 2.90114E-26
9.14519E-01 2.83319E-26
9.16943E-01 2.76677E-26
9.19335E-01 2.70185E-26
9.21696E-01 2.63842E-26
9.24024E-01 2.57643E-26
9.26320E-01 2.51588E-26
9.28584E-01 2.45672E-26
9.30815E-01 2.39894E-26
9.33013E-01 2.34252E-26
9.35178E-01 2.28742E-26
9.37310E-01 2.23364E-26
9.39409E-01 2.18113E-26
9.41474E-01 2.12990E-26
9.43505E-01 2.07990E-26
9.45503E-01 2.03113E-26
9.47467E-01 1.98356E-26
9.49397E-01 1.93718E-26
9.51293E-01 1.89197E-26
9.53154E-01 1.84790E-26
9.54981E-01 1.80497E-26
9.56773E-01 1.76314E-26
9.58530E-01 1.72242E-26
9.60252E-01 1.68278E-26
9.61940E-01 1.64420E-26
9.63592E-01 1.60668E-26
9.65209E-01 1.57019E-26
9.66790E-01 1.53473E-26
9.68336E-01 1.50027E-26
9.69846E-01 1.46681E-26
9.71321E-01 1.43433E-26
9.72759E-01 1.40283E-26
9.74162E-01 1.37228E-26
9.75528E-01 1.34268E-26
9.76858E-01 1.31401E-26
9.78152E-01 1.28627E-26
9.79410E-01 1.25944E-26
9.80631E-01 1.23352E-26
9.81815E-01 1.20849E-26
9.82963E-01 1.18434E-26
9.84074E-01 1.16108E-26
9.85148E-01 1.13868E-26
9.86185E-01 1.11713E-26
9.87185E-01 1.09644E-26
9.88148E-01 1.07659E-26
9.89074E-01 1.05758E-26
9.89962E-01 1.03940E-26
9.90814E-01 1.02204E-26
9.91627E-01 1.00549E-26
9.92404E-01 9.89755E-27
9.93143E-01 9.74822E-27
9.93844E-01 9.60688E-27
9.94508E-01 9.47346E-27
9.95134E-01 9.34793E-27
9.95722E-01 9.23024E-27
9.96273E-01 9.12033E-27
9.96786E-01 9.01818E-27
9.97261E-01 8.92375E-27
9.97698E-01 8.83699E-27
9.98097E-01 8.75789E-27
9.98459E-01 8.68640E-27
9.98782E-01 8.62251E-27
9.99067E-01 8.56619E-27
9.99315E-01 8.51742E-27
9.99524E-01 8.47619E-27
9.99695E-01 8.44247E-27
9.99829E-01 8.41625E-27
9.99924E-01 8.39754E-27
9.99981E-01 8.38631E-27
1.00000E+00 8.38257E-27
