 #
 # Subroutine ELSEPA. Elastic scattering of electrons and positrons
 #                    by neutral atoms and positive ions
 #
 # Projectile: electron
 # Kinetic energy = 5.00000E+06 eV = 1.83747E+05 a.u.
 #
 # WARNING: High-energy factorization with free-atom DF screening.
 #          Absorption, polarization and exchange corrections are
 #          switched off.
 #          Phase shifts are calculated for the bare nucleus.
 #          Scattering amplitudes are not evaluated.
 #
 # Element: Mg,  Z =  12,  atomic weight = 2.43050E+01 g/mol
 #
 # Nuclear model: Fermi distribution
 #                Average radius = 3.09943E-13 cm
 #                Skin thickness = 5.46000E-14 cm
 #
 # Number of electrons = 12
 #
 # Total elastic cross section = 6.14116E-19 cm**2 = 2.19305E-02 a0**2
 # 1st transport cross section = 7.56780E-24 cm**2 = 2.70251E-07 a0**2
 # 2nd transport cross section = 2.16568E-23 cm**2 = 7.73377E-07 a0**2
 #
 #
 # Differential cross section:                       MU=(1-COS(THETA))/2
 #
 #  THETA        MU          DCS          DCS        Sherman      error
 #  (deg)                 (cm**2/sr)   (a0**2/sr)    function
 #----------------------------------------------------------------------
0.00000E+00 3.14951E-13
7.61557E-13 3.14946E-13
1.18994E-12 3.14944E-13
1.71346E-12 3.14942E-13
2.33225E-12 3.14938E-13
3.04617E-12 3.14935E-13
3.85530E-12 3.14930E-13
4.75964E-12 3.14926E-13
5.75917E-12 3.14921E-13
6.85391E-12 3.14915E-13
8.04379E-12 3.14909E-13
9.32893E-12 3.14902E-13
1.07092E-11 3.14895E-13
1.21847E-11 3.14888E-13
1.37554E-11 3.14880E-13
1.54213E-11 3.14871E-13
1.71823E-11 3.14862E-13
1.90386E-11 3.14852E-13
2.09900E-11 3.14842E-13
2.30367E-11 3.14832E-13
2.51785E-11 3.14821E-13
2.74156E-11 3.14809E-13
2.97478E-11 3.14798E-13
3.21752E-11 3.14785E-13
3.46979E-11 3.14772E-13
3.73157E-11 3.14759E-13
4.00286E-11 3.14745E-13
4.28368E-11 3.14731E-13
4.57402E-11 3.14716E-13
4.87388E-11 3.14700E-13
5.18325E-11 3.14684E-13
5.50215E-11 3.14668E-13
5.83057E-11 3.14651E-13
6.16850E-11 3.14634E-13
6.51595E-11 3.14616E-13
6.87293E-11 3.14598E-13
7.23943E-11 3.14579E-13
7.61544E-11 3.14560E-13
1.18991E-10 3.14341E-13
1.71347E-10 3.14075E-13
2.33223E-10 3.13760E-13
3.04617E-10 3.13397E-13
3.85531E-10 3.12986E-13
4.75965E-10 3.12529E-13
5.75917E-10 3.12024E-13
6.85389E-10 3.11473E-13
8.04380E-10 3.10875E-13
9.32891E-10 3.10231E-13
1.07092E-09 3.09542E-13
1.21847E-09 3.08807E-13
1.37554E-09 3.08028E-13
1.54213E-09 3.07205E-13
1.71823E-09 3.06337E-13
1.90386E-09 3.05427E-13
2.09900E-09 3.04475E-13
2.30367E-09 3.03480E-13
2.51785E-09 3.02444E-13
2.74156E-09 3.01367E-13
2.97478E-09 3.00250E-13
3.21752E-09 2.99094E-13
3.46978E-09 2.97899E-13
3.73156E-09 2.96666E-13
4.00286E-09 2.95396E-13
4.28368E-09 2.94089E-13
4.57402E-09 2.92747E-13
4.87388E-09 2.91369E-13
5.18326E-09 2.89958E-13
5.50215E-09 2.88513E-13
5.83057E-09 2.87035E-13
6.16850E-09 2.85527E-13
6.51596E-09 2.83986E-13
6.87293E-09 2.82416E-13
7.23942E-09 2.80818E-13
7.61544E-09 2.79190E-13
1.18991E-08 2.61558E-13
1.71347E-08 2.42085E-13
2.33223E-08 2.21640E-13
3.04617E-08 2.01003E-13
3.85531E-08 1.80825E-13
4.75965E-08 1.61601E-13
5.75917E-08 1.43667E-13
6.85389E-08 1.27253E-13
8.04380E-08 1.12434E-13
9.32891E-08 9.92502E-14
1.07092E-07 8.75420E-14
1.21847E-07 7.72857E-14
1.37554E-07 6.83529E-14
1.54213E-07 6.05107E-14
1.71823E-07 5.37964E-14
1.90386E-07 4.79335E-14
2.09900E-07 4.28353E-14
2.30367E-07 3.84654E-14
2.51785E-07 3.46239E-14
2.74156E-07 3.13113E-14
2.97478E-07 2.84185E-14
3.21752E-07 2.58661E-14
3.46978E-07 2.36581E-14
3.73156E-07 2.16960E-14
4.00286E-07 1.99641E-14
4.28368E-07 1.84324E-14
4.57402E-07 1.70617E-14
4.87388E-07 1.58416E-14
5.18325E-07 1.47454E-14
5.50215E-07 1.37572E-14
5.83057E-07 1.28636E-14
6.16850E-07 1.20549E-14
6.51596E-07 1.13153E-14
6.87293E-07 1.06412E-14
7.23942E-07 1.00260E-14
7.61543E-07 9.45463E-15
1.18991E-06 5.59871E-15
1.71347E-06 3.53646E-15
2.33223E-06 2.31302E-15
3.04617E-06 1.55058E-15
3.85531E-06 1.06311E-15
4.75964E-06 7.44679E-16
5.75916E-06 5.31755E-16
6.85388E-06 3.88272E-16
8.04378E-06 2.88938E-16
9.32888E-06 2.18896E-16
1.07092E-05 1.68616E-16
1.21846E-05 1.31898E-16
1.37553E-05 1.04642E-16
1.54212E-05 8.40962E-17
1.71822E-05 6.83842E-17
1.90385E-05 5.62103E-17
2.09899E-05 4.66528E-17
2.30365E-05 3.90640E-17
2.51783E-05 3.29744E-17
2.74153E-05 2.80406E-17
2.97475E-05 2.40069E-17
3.21749E-05 2.06817E-17
3.46974E-05 1.79191E-17
3.73152E-05 1.56072E-17
4.00281E-05 1.36596E-17
4.28362E-05 1.20085E-17
4.57395E-05 1.06011E-17
4.87380E-05 9.39492E-18
5.18317E-05 8.35626E-18
5.50205E-05 7.45778E-18
5.83045E-05 6.67725E-18
6.16838E-05 5.99646E-18
6.51582E-05 5.40038E-18
6.87277E-05 4.87660E-18
7.23925E-05 4.41477E-18
7.61524E-05 4.00625E-18
9.21439E-05 2.77641E-18
1.09658E-04 1.98338E-18
1.28695E-04 1.45349E-18
1.49255E-04 1.08874E-18
1.71338E-04 8.31179E-19
1.94942E-04 6.45205E-19
2.20070E-04 5.08298E-19
2.46720E-04 4.05740E-19
2.74892E-04 3.27723E-19
3.04586E-04 2.67542E-19
3.35803E-04 2.20530E-19
3.68542E-04 1.83385E-19
4.02802E-04 1.53727E-19
4.38585E-04 1.29821E-19
4.75889E-04 1.10379E-19
5.14715E-04 9.44403E-20
5.55063E-04 8.12746E-20
5.96931E-04 7.03231E-20
6.40321E-04 6.11545E-20
6.85233E-04 5.34314E-20
7.31665E-04 4.68896E-20
7.79618E-04 4.13184E-20
8.29092E-04 3.65505E-20
8.80086E-04 3.24507E-20
9.32601E-04 2.89099E-20
9.86636E-04 2.58391E-20
1.04219E-03 2.31654E-20
1.09927E-03 2.08288E-20
1.15786E-03 1.87796E-20
1.21797E-03 1.69763E-20
1.27961E-03 1.53845E-20
1.34276E-03 1.39750E-20
1.40743E-03 1.27233E-20
1.47362E-03 1.16087E-20
1.54133E-03 1.06136E-20
1.61056E-03 9.72295E-21
1.68131E-03 8.92382E-21
1.75357E-03 8.20518E-21
1.82735E-03 7.55748E-21
1.90265E-03 6.97249E-21
1.97947E-03 6.44305E-21
2.05780E-03 5.96296E-21
2.13765E-03 5.52679E-21
2.21902E-03 5.12981E-21
2.30190E-03 4.76787E-21
2.38630E-03 4.43732E-21
2.47222E-03 4.13494E-21
2.55965E-03 3.85792E-21
2.64859E-03 3.60372E-21
2.73905E-03 3.37014E-21
2.83103E-03 3.15519E-21
2.92452E-03 2.95712E-21
3.01952E-03 2.77437E-21
3.11604E-03 2.60554E-21
3.21407E-03 2.44936E-21
3.31362E-03 2.30470E-21
3.41468E-03 2.17058E-21
3.51725E-03 2.04608E-21
3.62133E-03 1.93039E-21
3.72692E-03 1.82277E-21
3.83403E-03 1.72256E-21
3.94265E-03 1.62914E-21
4.05278E-03 1.54198E-21
4.16442E-03 1.46058E-21
4.27757E-03 1.38448E-21
4.39223E-03 1.31329E-21
4.50840E-03 1.24661E-21
4.62608E-03 1.18412E-21
4.74527E-03 1.12550E-21
4.86597E-03 1.07047E-21
4.98817E-03 1.01876E-21
5.11188E-03 9.70140E-22
5.23711E-03 9.24391E-22
5.36383E-03 8.81310E-22
5.49207E-03 8.40712E-22
5.62181E-03 8.02428E-22
5.75306E-03 7.66301E-22
5.88581E-03 7.32187E-22
6.02007E-03 6.99953E-22
6.15583E-03 6.69475E-22
6.29310E-03 6.40640E-22
6.43187E-03 6.13343E-22
6.57214E-03 5.87485E-22
6.71392E-03 5.62978E-22
6.85720E-03 5.39737E-22
7.00198E-03 5.17685E-22
7.14827E-03 4.96748E-22
7.29605E-03 4.76861E-22
7.44534E-03 4.57960E-22
7.59612E-03 4.39987E-22
7.97965E-03 3.98771E-22
8.37255E-03 3.62274E-22
8.77480E-03 3.29864E-22
9.18641E-03 3.01002E-22
9.60736E-03 2.75232E-22
1.00376E-02 2.52165E-22
1.04773E-02 2.31468E-22
1.09262E-02 2.12853E-22
1.13844E-02 1.96074E-22
1.18520E-02 1.80919E-22
1.23288E-02 1.67201E-22
1.28150E-02 1.54761E-22
1.33104E-02 1.43457E-22
1.38150E-02 1.33168E-22
1.43290E-02 1.23786E-22
1.48521E-02 1.15216E-22
1.53845E-02 1.07377E-22
1.59262E-02 1.00193E-22
1.64770E-02 9.36009E-23
1.70371E-02 8.75425E-23
1.76063E-02 8.19669E-23
1.81848E-02 7.68286E-23
1.87724E-02 7.20869E-23
1.93692E-02 6.77058E-23
1.99751E-02 6.36528E-23
2.05901E-02 5.98987E-23
2.12143E-02 5.64176E-23
2.18476E-02 5.31859E-23
2.24900E-02 5.01824E-23
2.31415E-02 4.73881E-23
2.38021E-02 4.47857E-23
2.44717E-02 4.23596E-23
2.51504E-02 4.00957E-23
2.58382E-02 3.79811E-23
2.65349E-02 3.60041E-23
2.72407E-02 3.41541E-23
2.79555E-02 3.24214E-23
2.86793E-02 3.07973E-23
2.94120E-02 2.92736E-23
3.01537E-02 2.78430E-23
3.09043E-02 2.64987E-23
3.16639E-02 2.52346E-23
3.24324E-02 2.40449E-23
3.32098E-02 2.29246E-23
3.39961E-02 2.18687E-23
3.47912E-02 2.08729E-23
3.55952E-02 1.99331E-23
3.64081E-02 1.90456E-23
3.72297E-02 1.82069E-23
3.80602E-02 1.74139E-23
3.88995E-02 1.66635E-23
3.97476E-02 1.59531E-23
4.06044E-02 1.52801E-23
4.14700E-02 1.46422E-23
4.23443E-02 1.40372E-23
4.32273E-02 1.34631E-23
4.41190E-02 1.29181E-23
4.50194E-02 1.24003E-23
4.59284E-02 1.19081E-23
4.68461E-02 1.14401E-23
4.87074E-02 1.05710E-23
5.06030E-02 9.78273E-24
5.25328E-02 9.06647E-24
5.44967E-02 8.41444E-24
5.64946E-02 7.81987E-24
5.85262E-02 7.27677E-24
6.05914E-02 6.77990E-24
6.26901E-02 6.32460E-24
6.48222E-02 5.90678E-24
6.69873E-02 5.52278E-24
6.91854E-02 5.16939E-24
7.14163E-02 4.84370E-24
7.36799E-02 4.54317E-24
7.59760E-02 4.26549E-24
7.83043E-02 4.00861E-24
8.06647E-02 3.77069E-24
8.30571E-02 3.55007E-24
8.54812E-02 3.34527E-24
8.79369E-02 3.15495E-24
9.04240E-02 2.97789E-24
9.29422E-02 2.81300E-24
9.54915E-02 2.65930E-24
9.80716E-02 2.51588E-24
1.00682E-01 2.38193E-24
1.03323E-01 2.25671E-24
1.05995E-01 2.13955E-24
1.08696E-01 2.02983E-24
1.11427E-01 1.92700E-24
1.14188E-01 1.83054E-24
1.16978E-01 1.73998E-24
1.19797E-01 1.65490E-24
1.22645E-01 1.57491E-24
1.25522E-01 1.49964E-24
1.28428E-01 1.42877E-24
1.31361E-01 1.36198E-24
1.34323E-01 1.29901E-24
1.37313E-01 1.23959E-24
1.40330E-01 1.18349E-24
1.43375E-01 1.13049E-24
1.46447E-01 1.08038E-24
1.49545E-01 1.03298E-24
1.52671E-01 9.88108E-25
1.55823E-01 9.45613E-25
1.59001E-01 9.05344E-25
1.62205E-01 8.67162E-25
1.65435E-01 8.30939E-25
1.68690E-01 7.96555E-25
1.71970E-01 7.63901E-25
1.75276E-01 7.32874E-25
1.78606E-01 7.03377E-25
1.81961E-01 6.75320E-25
1.85340E-01 6.48622E-25
1.88743E-01 6.23203E-25
1.92169E-01 5.98992E-25
1.95619E-01 5.75920E-25
1.99092E-01 5.53924E-25
2.02589E-01 5.32944E-25
2.06107E-01 5.12926E-25
2.09649E-01 4.93816E-25
2.13212E-01 4.75566E-25
2.16797E-01 4.58131E-25
2.20404E-01 4.41466E-25
2.24032E-01 4.25533E-25
2.27680E-01 4.10292E-25
2.31350E-01 3.95709E-25
2.35040E-01 3.81749E-25
2.38751E-01 3.68382E-25
2.42481E-01 3.55577E-25
2.46231E-01 3.43307E-25
2.50000E-01 3.31544E-25
2.53788E-01 3.20265E-25
2.57595E-01 3.09446E-25
2.61421E-01 2.99064E-25
2.65264E-01 2.89099E-25
2.69126E-01 2.79531E-25
2.73005E-01 2.70342E-25
2.76901E-01 2.61512E-25
2.80814E-01 2.53027E-25
2.84744E-01 2.44870E-25
2.88691E-01 2.37025E-25
2.92653E-01 2.29480E-25
2.96632E-01 2.22220E-25
3.00625E-01 2.15233E-25
3.04634E-01 2.08506E-25
3.08658E-01 2.02028E-25
3.12697E-01 1.95789E-25
3.16749E-01 1.89778E-25
3.20816E-01 1.83984E-25
3.24896E-01 1.78400E-25
3.28990E-01 1.73015E-25
3.33097E-01 1.67822E-25
3.37216E-01 1.62812E-25
3.41348E-01 1.57978E-25
3.45492E-01 1.53312E-25
3.49647E-01 1.48808E-25
3.53814E-01 1.44459E-25
3.57992E-01 1.40259E-25
3.62181E-01 1.36201E-25
3.66381E-01 1.32281E-25
3.70590E-01 1.28492E-25
3.74810E-01 1.24829E-25
3.79039E-01 1.21288E-25
3.83277E-01 1.17864E-25
3.87524E-01 1.14551E-25
3.91780E-01 1.11347E-25
3.96044E-01 1.08246E-25
4.00316E-01 1.05245E-25
4.04596E-01 1.02340E-25
4.08882E-01 9.95274E-26
4.13176E-01 9.68037E-26
4.17476E-01 9.41657E-26
4.21783E-01 9.16102E-26
4.26095E-01 8.91341E-26
4.30413E-01 8.67346E-26
4.34737E-01 8.44088E-26
4.39065E-01 8.21541E-26
4.43398E-01 7.99681E-26
4.47736E-01 7.78481E-26
4.52077E-01 7.57920E-26
4.56422E-01 7.37973E-26
4.60770E-01 7.18621E-26
4.65122E-01 6.99841E-26
4.69476E-01 6.81615E-26
4.73832E-01 6.63923E-26
4.78190E-01 6.46747E-26
4.82550E-01 6.30069E-26
4.86912E-01 6.13872E-26
4.91274E-01 5.98141E-26
4.95637E-01 5.82859E-26
5.00000E-01 5.68012E-26
5.04363E-01 5.53585E-26
5.08726E-01 5.39564E-26
5.13088E-01 5.25937E-26
5.17450E-01 5.12689E-26
5.21810E-01 4.99809E-26
5.26168E-01 4.87285E-26
5.30524E-01 4.75105E-26
5.34878E-01 4.63259E-26
5.39230E-01 4.51736E-26
5.43578E-01 4.40525E-26
5.47923E-01 4.29617E-26
5.52264E-01 4.19002E-26
5.56602E-01 4.08671E-26
5.60935E-01 3.98616E-26
5.65263E-01 3.88827E-26
5.69587E-01 3.79297E-26
5.73905E-01 3.70017E-26
5.78217E-01 3.60981E-26
5.82524E-01 3.52180E-26
5.86824E-01 3.43608E-26
5.91118E-01 3.35257E-26
5.95404E-01 3.27122E-26
5.99684E-01 3.19195E-26
6.03956E-01 3.11471E-26
6.08220E-01 3.03943E-26
6.12476E-01 2.96606E-26
6.16723E-01 2.89454E-26
6.20961E-01 2.82482E-26
6.25190E-01 2.75685E-26
6.29410E-01 2.69057E-26
6.33619E-01 2.62594E-26
6.37819E-01 2.56291E-26
6.42008E-01 2.50144E-26
6.46186E-01 2.44148E-26
6.50353E-01 2.38299E-26
6.54508E-01 2.32592E-26
6.58652E-01 2.27024E-26
6.62784E-01 2.21592E-26
6.66903E-01 2.16290E-26
6.71010E-01 2.11116E-26
6.75104E-01 2.06067E-26
6.79184E-01 2.01138E-26
6.83251E-01 1.96326E-26
6.87303E-01 1.91629E-26
6.91342E-01 1.87043E-26
6.95366E-01 1.82565E-26
6.99375E-01 1.78192E-26
7.03368E-01 1.73923E-26
7.07347E-01 1.69753E-26
7.11309E-01 1.65680E-26
7.15256E-01 1.61702E-26
7.19186E-01 1.57816E-26
7.23099E-01 1.54020E-26
7.26995E-01 1.50312E-26
7.30874E-01 1.46688E-26
7.34736E-01 1.43148E-26
7.38579E-01 1.39689E-26
7.42405E-01 1.36309E-26
7.46212E-01 1.33005E-26
7.50000E-01 1.29777E-26
7.53769E-01 1.26622E-26
7.57519E-01 1.23538E-26
7.61249E-01 1.20523E-26
7.64960E-01 1.17576E-26
7.68650E-01 1.14696E-26
7.72320E-01 1.11880E-26
7.75968E-01 1.09126E-26
7.79596E-01 1.06435E-26
7.83203E-01 1.03803E-26
7.86788E-01 1.01229E-26
7.90351E-01 9.87129E-27
7.93893E-01 9.62523E-27
7.97411E-01 9.38461E-27
8.00908E-01 9.14930E-27
8.04381E-01 8.91918E-27
8.07831E-01 8.69412E-27
8.11257E-01 8.47400E-27
8.14660E-01 8.25872E-27
8.18039E-01 8.04816E-27
8.21394E-01 7.84222E-27
8.24724E-01 7.64078E-27
8.28030E-01 7.44374E-27
8.31310E-01 7.25101E-27
8.34565E-01 7.06249E-27
8.37795E-01 6.87809E-27
8.40999E-01 6.69770E-27
8.44177E-01 6.52125E-27
8.47329E-01 6.34865E-27
8.50455E-01 6.17981E-27
8.53553E-01 6.01465E-27
8.56625E-01 5.85309E-27
8.59670E-01 5.69505E-27
8.62687E-01 5.54046E-27
8.65677E-01 5.38925E-27
8.68639E-01 5.24134E-27
8.71572E-01 5.09666E-27
8.74478E-01 4.95515E-27
8.77355E-01 4.81674E-27
8.80203E-01 4.68136E-27
8.83022E-01 4.54895E-27
8.85812E-01 4.41946E-27
8.88573E-01 4.29282E-27
8.91304E-01 4.16898E-27
8.94005E-01 4.04788E-27
8.96677E-01 3.92946E-27
8.99318E-01 3.81367E-27
9.01928E-01 3.70047E-27
9.04508E-01 3.58980E-27
9.07058E-01 3.48160E-27
9.09576E-01 3.37584E-27
9.12063E-01 3.27247E-27
9.14519E-01 3.17144E-27
9.16943E-01 3.07271E-27
9.19335E-01 2.97624E-27
9.21696E-01 2.88198E-27
9.24024E-01 2.78990E-27
9.26320E-01 2.69995E-27
9.28584E-01 2.61210E-27
9.30815E-01 2.52630E-27
9.33013E-01 2.44253E-27
9.35178E-01 2.36075E-27
9.37310E-01 2.28092E-27
9.39409E-01 2.20302E-27
9.41474E-01 2.12700E-27
9.43505E-01 2.05284E-27
9.45503E-01 1.98050E-27
9.47467E-01 1.90996E-27
9.49397E-01 1.84119E-27
9.51293E-01 1.77416E-27
9.53154E-01 1.70884E-27
9.54981E-01 1.64521E-27
9.56773E-01 1.58323E-27
9.58530E-01 1.52289E-27
9.60252E-01 1.46417E-27
9.61940E-01 1.40703E-27
9.63592E-01 1.35145E-27
9.65209E-01 1.29742E-27
9.66790E-01 1.24491E-27
9.68336E-01 1.19390E-27
9.69846E-01 1.14437E-27
9.71321E-01 1.09630E-27
9.72759E-01 1.04967E-27
9.74162E-01 1.00447E-27
9.75528E-01 9.60670E-28
9.76858E-01 9.18261E-28
9.78152E-01 8.77225E-28
9.79410E-01 8.37545E-28
9.80631E-01 7.99206E-28
9.81815E-01 7.62193E-28
9.82963E-01 7.26493E-28
9.84074E-01 6.92091E-28
9.85148E-01 6.58974E-28
9.86185E-01 6.27129E-28
9.87185E-01 5.96546E-28
9.88148E-01 5.67210E-28
9.89074E-01 5.39113E-28
9.89962E-01 5.12242E-28
9.90814E-01 4.86588E-28
9.91627E-01 4.62140E-28
9.92404E-01 4.38891E-28
9.93143E-01 4.16830E-28
9.93844E-01 3.95950E-28
9.94508E-01 3.76242E-28
9.95134E-01 3.57700E-28
9.95722E-01 3.40316E-28
9.96273E-01 3.24084E-28
9.96786E-01 3.08998E-28
9.97261E-01 2.95051E-28
9.97698E-01 2.82240E-28
9.98097E-01 2.70558E-28
9.98459E-01 2.60002E-28
9.98782E-01 2.50568E-28
9.99067E-01 2.42252E-28
9.99315E-01 2.35051E-28
9.99524E-01 2.28962E-28
9.99695E-01 2.23984E-28
9.99829E-01 2.20113E-28
9.99924E-01 2.17350E-28
9.99981E-01 2.15692E-28
1.00000E+00 2.15140E-28
