 #
 # Subroutine ELSEPA. Elastic scattering of electrons and positrons
 #                    by neutral atoms and positive ions
 #
 # Projectile: electron
 # Kinetic energy = 3.00000E+08 eV = 1.10248E+07 a.u.
 #
 # WARNING: High-energy factorization with free-atom DF screening.
 #          Absorption, polarization and exchange corrections are
 #          switched off.
 #          Phase shifts are calculated for the bare nucleus.
 #          Scattering amplitudes are not evaluated.
 #
 # Element: Mg,  Z =  12,  atomic weight = 2.43050E+01 g/mol
 #
 # Nuclear model: Fermi distribution
 #                Average radius = 3.09943E-13 cm
 #                Skin thickness = 5.46000E-14 cm
 #
 # Number of electrons = 12
 #
 # Total elastic cross section = 6.09026E-19 cm**2 = 2.17487E-02 a0**2
 # 1st transport cross section = 3.47740E-27 cm**2 = 1.24180E-10 a0**2
 # 2nd transport cross section = 1.04135E-26 cm**2 = 3.71873E-10 a0**2
 #
 #
 # Differential cross section:                       MU=(1-COS(THETA))/2
 #
 #  THETA        MU          DCS          DCS        Sherman      error
 #  (deg)                 (cm**2/sr)   (a0**2/sr)    function
 #----------------------------------------------------------------------
0.00000E+00 9.36489E-10
7.61557E-13 9.02652E-10
1.18994E-12 8.84382E-10
1.71346E-12 8.62755E-10
2.33225E-12 8.38145E-10
3.04617E-12 8.10968E-10
3.85530E-12 7.81653E-10
4.75964E-12 7.50636E-10
5.75917E-12 7.18357E-10
6.85391E-12 6.85233E-10
8.04379E-12 6.51663E-10
9.32893E-12 6.18004E-10
1.07092E-11 5.84585E-10
1.21847E-11 5.51690E-10
1.37554E-11 5.19562E-10
1.54213E-11 4.88402E-10
1.71823E-11 4.58368E-10
1.90386E-11 4.29565E-10
2.09900E-11 4.02135E-10
2.30367E-11 3.76116E-10
2.51785E-11 3.51518E-10
2.74156E-11 3.28380E-10
2.97478E-11 3.06712E-10
3.21752E-11 2.86385E-10
3.46979E-11 2.67355E-10
3.73157E-11 2.49568E-10
4.00286E-11 2.33152E-10
4.28368E-11 2.17954E-10
4.57402E-11 2.03792E-10
4.87388E-11 1.90605E-10
5.18325E-11 1.78333E-10
5.50215E-11 1.67189E-10
5.83057E-11 1.56856E-10
6.16850E-11 1.47240E-10
6.51595E-11 1.38294E-10
6.87293E-11 1.30007E-10
7.23943E-11 1.22502E-10
7.61544E-11 1.15511E-10
1.18991E-10 6.80223E-11
1.71347E-10 4.42753E-11
2.33223E-10 3.10029E-11
3.04617E-10 2.27715E-11
3.85531E-10 1.72373E-11
4.75965E-10 1.32982E-11
5.75917E-10 1.03995E-11
6.85389E-10 8.21519E-12
8.04380E-10 6.54328E-12
9.32891E-10 5.24992E-12
1.07092E-09 4.24131E-12
1.21847E-09 3.44923E-12
1.37554E-09 2.82319E-12
1.54213E-09 2.32532E-12
1.71823E-09 1.92675E-12
1.90386E-09 1.60438E-12
2.09900E-09 1.34799E-12
2.30367E-09 1.13689E-12
2.51785E-09 9.65724E-13
2.74156E-09 8.24101E-13
2.97478E-09 7.07425E-13
3.21752E-09 6.10178E-13
3.46978E-09 5.28981E-13
3.73156E-09 4.60723E-13
4.00286E-09 4.03071E-13
4.28368E-09 3.54172E-13
4.57402E-09 3.12444E-13
4.87388E-09 2.76735E-13
5.18326E-09 2.45982E-13
5.50215E-09 2.19443E-13
5.83057E-09 1.96394E-13
6.16850E-09 1.76343E-13
6.51596E-09 1.58797E-13
6.87293E-09 1.43418E-13
7.23942E-09 1.29870E-13
7.61544E-09 1.17912E-13
1.18991E-08 5.04285E-14
1.71347E-08 2.52075E-14
2.33223E-08 1.39901E-14
3.04617E-08 8.37214E-15
3.85531E-08 5.30677E-15
4.75965E-08 3.52080E-15
5.75917E-08 2.42453E-15
6.85389E-08 1.72230E-15
8.04380E-08 1.25614E-15
9.32891E-08 9.37118E-16
1.07092E-07 7.12992E-16
1.21847E-07 5.51893E-16
1.37554E-07 4.33743E-16
1.54213E-07 3.45529E-16
1.71823E-07 2.78609E-16
1.90386E-07 2.27113E-16
2.09900E-07 1.86969E-16
2.30367E-07 1.55307E-16
2.51785E-07 1.30066E-16
2.74156E-07 1.09747E-16
2.97478E-07 9.32423E-17
3.21752E-07 7.97248E-17
3.46978E-07 6.85691E-17
3.73156E-07 5.92972E-17
4.00286E-07 5.15401E-17
4.28368E-07 4.50105E-17
4.57402E-07 3.94826E-17
4.87388E-07 3.47776E-17
5.18325E-07 3.07528E-17
5.50215E-07 2.72936E-17
5.83057E-07 2.43073E-17
6.16850E-07 2.17184E-17
6.51596E-07 1.94651E-17
6.87293E-07 1.74966E-17
7.23942E-07 1.57707E-17
7.61543E-07 1.42524E-17
1.18991E-06 5.83925E-18
1.71347E-06 2.81622E-18
2.33223E-06 1.52023E-18
3.04617E-06 8.91191E-19
3.85531E-06 5.56402E-19
4.75964E-06 3.65078E-19
5.75916E-06 2.49369E-19
6.85388E-06 1.76082E-19
8.04378E-06 1.27847E-19
9.32888E-06 9.50560E-20
1.07092E-05 7.21361E-20
1.21846E-05 5.57268E-20
1.37553E-05 4.37295E-20
1.54212E-05 3.47941E-20
1.71822E-05 2.80290E-20
1.90385E-05 2.28331E-20
2.09899E-05 1.87860E-20
2.30365E-05 1.55967E-20
2.51783E-05 1.30561E-20
2.74153E-05 1.10125E-20
2.97475E-05 9.35375E-21
3.21749E-05 7.99610E-21
3.46974E-05 6.87625E-21
3.73152E-05 5.94585E-21
4.00281E-05 5.16763E-21
4.28362E-05 4.51262E-21
4.57395E-05 3.95814E-21
4.87380E-05 3.48623E-21
5.18317E-05 3.08259E-21
5.50205E-05 2.73573E-21
5.83045E-05 2.43635E-21
6.16838E-05 2.17685E-21
6.51582E-05 1.95103E-21
6.87277E-05 1.75375E-21
7.23925E-05 1.58078E-21
7.61524E-05 1.42564E-21
9.21439E-05 9.73471E-22
1.09658E-04 6.87154E-22
1.28695E-04 4.98723E-22
1.49255E-04 3.70641E-22
1.71338E-04 2.81137E-22
1.94942E-04 2.17065E-22
2.20070E-04 1.70235E-22
2.46720E-04 1.35363E-22
2.74892E-04 1.08970E-22
3.04586E-04 8.86964E-23
3.35803E-04 7.29175E-23
3.68542E-04 6.04899E-23
4.02802E-04 5.05942E-23
4.38585E-04 4.26371E-23
4.75889E-04 3.61801E-23
5.14715E-04 3.08967E-23
5.55063E-04 2.65402E-23
5.96931E-04 2.29223E-23
6.40321E-04 1.98981E-23
6.85233E-04 1.73542E-23
7.31665E-04 1.52024E-23
7.79618E-04 1.33722E-23
8.29092E-04 1.18078E-23
8.80086E-04 1.04644E-23
9.32601E-04 9.30539E-24
9.86636E-04 8.30147E-24
1.04219E-03 7.42838E-24
1.09927E-03 6.66624E-24
1.15786E-03 5.99859E-24
1.21797E-03 5.41175E-24
1.27961E-03 4.89431E-24
1.34276E-03 4.43666E-24
1.40743E-03 4.03074E-24
1.47362E-03 3.66970E-24
1.54133E-03 3.34774E-24
1.61056E-03 3.05992E-24
1.68131E-03 2.80200E-24
1.75357E-03 2.57034E-24
1.82735E-03 2.36181E-24
1.90265E-03 2.17370E-24
1.97947E-03 2.00369E-24
2.05780E-03 1.84972E-24
2.13765E-03 1.71002E-24
2.21902E-03 1.58305E-24
2.30190E-03 1.46744E-24
2.38630E-03 1.36201E-24
2.47222E-03 1.26571E-24
2.55965E-03 1.17760E-24
2.64859E-03 1.09687E-24
2.73905E-03 1.02281E-24
2.83103E-03 9.54751E-25
2.92452E-03 8.92139E-25
3.01952E-03 8.34459E-25
3.11604E-03 7.81256E-25
3.21407E-03 7.32123E-25
3.31362E-03 6.86695E-25
3.41468E-03 6.44646E-25
3.51725E-03 6.05680E-25
3.62133E-03 5.69533E-25
3.72692E-03 5.35968E-25
3.83403E-03 5.04766E-25
3.94265E-03 4.75735E-25
4.05278E-03 4.48697E-25
4.16442E-03 4.23492E-25
4.27757E-03 3.99975E-25
4.39223E-03 3.78013E-25
4.50840E-03 3.57487E-25
4.62608E-03 3.38287E-25
4.74527E-03 3.20312E-25
4.86597E-03 3.03472E-25
4.98817E-03 2.87682E-25
5.11188E-03 2.72867E-25
5.23711E-03 2.58955E-25
5.36383E-03 2.45883E-25
5.49207E-03 2.33592E-25
5.62181E-03 2.22026E-25
5.75306E-03 2.11137E-25
5.88581E-03 2.00878E-25
6.02007E-03 1.91207E-25
6.15583E-03 1.82084E-25
6.29310E-03 1.73473E-25
6.43187E-03 1.65341E-25
6.57214E-03 1.57657E-25
6.71392E-03 1.50391E-25
6.85720E-03 1.43519E-25
7.00198E-03 1.37014E-25
7.14827E-03 1.30854E-25
7.29605E-03 1.25018E-25
7.44534E-03 1.19486E-25
7.59612E-03 1.14240E-25
7.97965E-03 1.02264E-25
8.37255E-03 9.17335E-26
8.77480E-03 8.24479E-26
9.18641E-03 7.42393E-26
9.60736E-03 6.69651E-26
1.00376E-02 6.05039E-26
1.04773E-02 5.47524E-26
1.09262E-02 4.96217E-26
1.13844E-02 4.50356E-26
1.18520E-02 4.09286E-26
1.23288E-02 3.72439E-26
1.28150E-02 3.39323E-26
1.33104E-02 3.09511E-26
1.38150E-02 2.82630E-26
1.43290E-02 2.58356E-26
1.48521E-02 2.36404E-26
1.53845E-02 2.16523E-26
1.59262E-02 1.98496E-26
1.64770E-02 1.82127E-26
1.70371E-02 1.67247E-26
1.76063E-02 1.53704E-26
1.81848E-02 1.41364E-26
1.87724E-02 1.30108E-26
1.93692E-02 1.19830E-26
1.99751E-02 1.10436E-26
2.05901E-02 1.01842E-26
2.12143E-02 9.39718E-27
2.18476E-02 8.67592E-27
2.24900E-02 8.01433E-27
2.31415E-02 7.40698E-27
2.38021E-02 6.84900E-27
2.44717E-02 6.33598E-27
2.51504E-02 5.86398E-27
2.58382E-02 5.42942E-27
2.65349E-02 5.02906E-27
2.72407E-02 4.65998E-27
2.79555E-02 4.31953E-27
2.86793E-02 4.00531E-27
2.94120E-02 3.71514E-27
3.01537E-02 3.44703E-27
3.09043E-02 3.19919E-27
3.16639E-02 2.96996E-27
3.24324E-02 2.75785E-27
3.32098E-02 2.56150E-27
3.39961E-02 2.37966E-27
3.47912E-02 2.21118E-27
3.55952E-02 2.05503E-27
3.64081E-02 1.91025E-27
3.72297E-02 1.77596E-27
3.80602E-02 1.65136E-27
3.88995E-02 1.53572E-27
3.97476E-02 1.42835E-27
4.06044E-02 1.32864E-27
4.14700E-02 1.23602E-27
4.23443E-02 1.14996E-27
4.32273E-02 1.06997E-27
4.41190E-02 9.95617E-28
4.50194E-02 9.26479E-28
4.59284E-02 8.62182E-28
4.68461E-02 8.02373E-28
4.87074E-02 6.94955E-28
5.06030E-02 6.01923E-28
5.25328E-02 5.21307E-28
5.44967E-02 4.51419E-28
5.64946E-02 3.90809E-28
5.85262E-02 3.38232E-28
6.05914E-02 2.92614E-28
6.26901E-02 2.53032E-28
6.48222E-02 2.18685E-28
6.69873E-02 1.88883E-28
6.91854E-02 1.63028E-28
7.14163E-02 1.40602E-28
7.36799E-02 1.21157E-28
7.59760E-02 1.04302E-28
7.83043E-02 8.96986E-29
8.06647E-02 7.70535E-29
8.30571E-02 6.61104E-29
8.54812E-02 5.66469E-29
8.79369E-02 4.84693E-29
9.04240E-02 4.14090E-29
9.29422E-02 3.53191E-29
9.54915E-02 3.00718E-29
9.80716E-02 2.55557E-29
1.00682E-01 2.16738E-29
1.03323E-01 1.83415E-29
1.05995E-01 1.54853E-29
1.08696E-01 1.30410E-29
1.11427E-01 1.09529E-29
1.14188E-01 9.17248E-30
1.16978E-01 7.65743E-30
1.19797E-01 6.37107E-30
1.22645E-01 5.28151E-30
1.25522E-01 4.36105E-30
1.28428E-01 3.58566E-30
1.31361E-01 2.93453E-30
1.34323E-01 2.38960E-30
1.37313E-01 1.93527E-30
1.40330E-01 1.55806E-30
1.43375E-01 1.24633E-30
1.46447E-01 9.90046E-31
1.49545E-01 7.80574E-31
1.52671E-01 6.10499E-31
1.55823E-01 4.73459E-31
1.59001E-01 3.64010E-31
1.62205E-01 2.77502E-31
1.65435E-01 2.09972E-31
1.68690E-01 1.58054E-31
1.71970E-01 1.18893E-31
1.75276E-01 9.00780E-32
1.78606E-01 6.95803E-32
1.81961E-01 5.56973E-32
1.85340E-01 4.70082E-32
1.88743E-01 4.23323E-32
1.92169E-01 4.06941E-32
1.95619E-01 4.12932E-32
1.99092E-01 4.34771E-32
2.02589E-01 4.67192E-32
2.06107E-01 5.05987E-32
2.09649E-01 5.47835E-32
2.13212E-01 5.90161E-32
2.16797E-01 6.31006E-32
2.20404E-01 6.68924E-32
2.24032E-01 7.02887E-32
2.27680E-01 7.32212E-32
2.31350E-01 7.56488E-32
2.35040E-01 7.75528E-32
2.38751E-01 7.89317E-32
2.42481E-01 7.97973E-32
2.46231E-01 8.01718E-32
2.50000E-01 8.00845E-32
2.53788E-01 7.95699E-32
2.57595E-01 7.86659E-32
2.61421E-01 7.74123E-32
2.65264E-01 7.58493E-32
2.69126E-01 7.40170E-32
2.73005E-01 7.19544E-32
2.76901E-01 6.96988E-32
2.80814E-01 6.72858E-32
2.84744E-01 6.47484E-32
2.88691E-01 6.21174E-32
2.92653E-01 5.94209E-32
2.96632E-01 5.66846E-32
3.00625E-01 5.39314E-32
3.04634E-01 5.11819E-32
3.08658E-01 4.84541E-32
3.12697E-01 4.57637E-32
3.16749E-01 4.31245E-32
3.20816E-01 4.05479E-32
3.24896E-01 3.80435E-32
3.28990E-01 3.56194E-32
3.33097E-01 3.32818E-32
3.37216E-01 3.10356E-32
3.41348E-01 2.88844E-32
3.45492E-01 2.68306E-32
3.49647E-01 2.48755E-32
3.53814E-01 2.30198E-32
3.57992E-01 2.12629E-32
3.62181E-01 1.96040E-32
3.66381E-01 1.80414E-32
3.70590E-01 1.65730E-32
3.74810E-01 1.51964E-32
3.79039E-01 1.39086E-32
3.83277E-01 1.27065E-32
3.87524E-01 1.15868E-32
3.91780E-01 1.05461E-32
3.96044E-01 9.58079E-33
4.00316E-01 8.68715E-33
4.04596E-01 7.86154E-33
4.08882E-01 7.10030E-33
4.13176E-01 6.39980E-33
4.17476E-01 5.75647E-33
4.21783E-01 5.16680E-33
4.26095E-01 4.62739E-33
4.30413E-01 4.13495E-33
4.34737E-01 3.68629E-33
4.39065E-01 3.27837E-33
4.43398E-01 2.90825E-33
4.47736E-01 2.57316E-33
4.52077E-01 2.27044E-33
4.56422E-01 1.99757E-33
4.60770E-01 1.75219E-33
4.65122E-01 1.53206E-33
4.69476E-01 1.33507E-33
4.73832E-01 1.15924E-33
4.78190E-01 1.00275E-33
4.82550E-01 8.63853E-34
4.86912E-01 7.40956E-34
4.91274E-01 6.32569E-34
4.95637E-01 5.37311E-34
5.00000E-01 4.53903E-34
5.04363E-01 3.81168E-34
5.08726E-01 3.18020E-34
5.13088E-01 2.63462E-34
5.17450E-01 2.16577E-34
5.21810E-01 1.76530E-34
5.26168E-01 1.42555E-34
5.30524E-01 1.13957E-34
5.34878E-01 9.01008E-35
5.39230E-01 7.04133E-35
5.43578E-01 5.43744E-35
5.47923E-01 4.15149E-35
5.52264E-01 3.14124E-35
5.56602E-01 2.36874E-35
5.60935E-01 1.80002E-35
5.65263E-01 1.40471E-35
5.69587E-01 1.15577E-35
5.73905E-01 1.02928E-35
5.78217E-01 1.00391E-35
5.82524E-01 1.06104E-35
5.86824E-01 1.18423E-35
5.91118E-01 1.35915E-35
5.95404E-01 1.57329E-35
5.99684E-01 1.81592E-35
6.03956E-01 2.07776E-35
6.08220E-01 2.35082E-35
6.12476E-01 2.62845E-35
6.16723E-01 2.90506E-35
6.20961E-01 3.17591E-35
6.25190E-01 3.43724E-35
6.29410E-01 3.68592E-35
6.33619E-01 3.91958E-35
6.37819E-01 4.13635E-35
6.42008E-01 4.33490E-35
6.46186E-01 4.51437E-35
6.50353E-01 4.67412E-35
6.54508E-01 4.81401E-35
6.58652E-01 4.93401E-35
6.62784E-01 5.03446E-35
6.66903E-01 5.11582E-35
6.71010E-01 5.17862E-35
6.75104E-01 5.22370E-35
6.79184E-01 5.25178E-35
6.83251E-01 5.26380E-35
6.87303E-01 5.26076E-35
6.91342E-01 5.24354E-35
6.95366E-01 5.21321E-35
6.99375E-01 5.17076E-35
7.03368E-01 5.11718E-35
7.07347E-01 5.05346E-35
7.11309E-01 4.98061E-35
7.15256E-01 4.89958E-35
7.19186E-01 4.81121E-35
7.23099E-01 4.71641E-35
7.26995E-01 4.61601E-35
7.30874E-01 4.51081E-35
7.34736E-01 4.40155E-35
7.38579E-01 4.28890E-35
7.42405E-01 4.17356E-35
7.46212E-01 4.05611E-35
7.50000E-01 3.93714E-35
7.53769E-01 3.81716E-35
7.57519E-01 3.69673E-35
7.61249E-01 3.57618E-35
7.64960E-01 3.45598E-35
7.68650E-01 3.33644E-35
7.72320E-01 3.21798E-35
7.75968E-01 3.10084E-35
7.79596E-01 2.98530E-35
7.83203E-01 2.87158E-35
7.86788E-01 2.75986E-35
7.90351E-01 2.65038E-35
7.93893E-01 2.54329E-35
7.97411E-01 2.43864E-35
8.00908E-01 2.33660E-35
8.04381E-01 2.23727E-35
8.07831E-01 2.14070E-35
8.11257E-01 2.04693E-35
8.14660E-01 1.95600E-35
8.18039E-01 1.86795E-35
8.21394E-01 1.78279E-35
8.24724E-01 1.70050E-35
8.28030E-01 1.62109E-35
8.31310E-01 1.54451E-35
8.34565E-01 1.47077E-35
8.37795E-01 1.39979E-35
8.40999E-01 1.33157E-35
8.44177E-01 1.26602E-35
8.47329E-01 1.20312E-35
8.50455E-01 1.14280E-35
8.53553E-01 1.08499E-35
8.56625E-01 1.02965E-35
8.59670E-01 9.76684E-36
8.62687E-01 9.26050E-36
8.65677E-01 8.77648E-36
8.68639E-01 8.31454E-36
8.71572E-01 7.87354E-36
8.74478E-01 7.45302E-36
8.77355E-01 7.05200E-36
8.80203E-01 6.67011E-36
8.83022E-01 6.30655E-36
8.85812E-01 5.96038E-36
8.88573E-01 5.63129E-36
8.91304E-01 5.31837E-36
8.94005E-01 5.02095E-36
8.96677E-01 4.73852E-36
8.99318E-01 4.47038E-36
9.01928E-01 4.21597E-36
9.04508E-01 3.97461E-36
9.07058E-01 3.74578E-36
9.09576E-01 3.52889E-36
9.12063E-01 3.32342E-36
9.14519E-01 3.12889E-36
9.16943E-01 2.94461E-36
9.19335E-01 2.77030E-36
9.21696E-01 2.60534E-36
9.24024E-01 2.44939E-36
9.26320E-01 2.30195E-36
9.28584E-01 2.16264E-36
9.30815E-01 2.03100E-36
9.33013E-01 1.90668E-36
9.35178E-01 1.78927E-36
9.37310E-01 1.67856E-36
9.39409E-01 1.57401E-36
9.41474E-01 1.47540E-36
9.43505E-01 1.38236E-36
9.45503E-01 1.29474E-36
9.47467E-01 1.21210E-36
9.49397E-01 1.13422E-36
9.51293E-01 1.06092E-36
9.53154E-01 9.91829E-37
9.54981E-01 9.26852E-37
9.56773E-01 8.65613E-37
9.58530E-01 8.08032E-37
9.60252E-01 7.53821E-37
9.61940E-01 7.02841E-37
9.63592E-01 6.54917E-37
9.65209E-01 6.09837E-37
9.66790E-01 5.67457E-37
9.68336E-01 5.27677E-37
9.69846E-01 4.90284E-37
9.71321E-01 4.55156E-37
9.72759E-01 4.22178E-37
9.74162E-01 3.91237E-37
9.75528E-01 3.62144E-37
9.76858E-01 3.34910E-37
9.78152E-01 3.09324E-37
9.79410E-01 2.85382E-37
9.80631E-01 2.62903E-37
9.81815E-01 2.41855E-37
9.82963E-01 2.22155E-37
9.84074E-01 2.03689E-37
9.85148E-01 1.86430E-37
9.86185E-01 1.70275E-37
9.87185E-01 1.55174E-37
9.88148E-01 1.41070E-37
9.89074E-01 1.27940E-37
9.89962E-01 1.15662E-37
9.90814E-01 1.04274E-37
9.91627E-01 9.36497E-38
9.92404E-01 8.37618E-38
9.93143E-01 7.46141E-38
9.93844E-01 6.61233E-38
9.94508E-01 5.82688E-38
9.95134E-01 5.10473E-38
9.95722E-01 4.43928E-38
9.96273E-01 3.82874E-38
9.96786E-01 3.27043E-38
9.97261E-01 2.76323E-38
9.97698E-01 2.30278E-38
9.98097E-01 1.89185E-38
9.98459E-01 1.52104E-38
9.98782E-01 1.19532E-38
9.99067E-01 9.11057E-39
9.99315E-01 6.66422E-39
9.99524E-01 4.61921E-39
9.99695E-01 2.95319E-39
9.99829E-01 1.67086E-39
9.99924E-01 7.65362E-40
9.99981E-01 2.10463E-40
1.00000E+00 3.09602E-41
