 #
 # Subroutine ELSEPA. Elastic scattering of electrons and positrons
 #                    by neutral atoms and positive ions
 #
 # Projectile: electron
 # Kinetic energy = 4.50000E+06 eV = 1.65372E+05 a.u.
 #
 # WARNING: High-energy factorization with free-atom DF screening.
 #          Absorption, polarization and exchange corrections are
 #          switched off.
 #          Phase shifts are calculated for the bare nucleus.
 #          Scattering amplitudes are not evaluated.
 #
 # Element: Mg,  Z =  12,  atomic weight = 2.43050E+01 g/mol
 #
 # Nuclear model: Fermi distribution
 #                Average radius = 3.09943E-13 cm
 #                Skin thickness = 5.46000E-14 cm
 #
 # Number of electrons = 12
 #
 # Total elastic cross section = 6.15358E-19 cm**2 = 2.19748E-02 a0**2
 # 1st transport cross section = 9.04262E-24 cm**2 = 3.22918E-07 a0**2
 # 2nd transport cross section = 2.58544E-23 cm**2 = 9.23276E-07 a0**2
 #
 #
 # Differential cross section:                       MU=(1-COS(THETA))/2
 #
 #  THETA        MU          DCS          DCS        Sherman      error
 #  (deg)                 (cm**2/sr)   (a0**2/sr)    function
 #----------------------------------------------------------------------
0.00000E+00 2.60394E-13
7.61557E-13 2.60391E-13
1.18994E-12 2.60389E-13
1.71346E-12 2.60387E-13
2.33225E-12 2.60385E-13
3.04617E-12 2.60383E-13
3.85530E-12 2.60380E-13
4.75964E-12 2.60377E-13
5.75917E-12 2.60373E-13
6.85391E-12 2.60369E-13
8.04379E-12 2.60365E-13
9.32893E-12 2.60361E-13
1.07092E-11 2.60356E-13
1.21847E-11 2.60351E-13
1.37554E-11 2.60345E-13
1.54213E-11 2.60339E-13
1.71823E-11 2.60333E-13
1.90386E-11 2.60327E-13
2.09900E-11 2.60320E-13
2.30367E-11 2.60313E-13
2.51785E-11 2.60305E-13
2.74156E-11 2.60297E-13
2.97478E-11 2.60289E-13
3.21752E-11 2.60281E-13
3.46979E-11 2.60272E-13
3.73157E-11 2.60263E-13
4.00286E-11 2.60253E-13
4.28368E-11 2.60243E-13
4.57402E-11 2.60233E-13
4.87388E-11 2.60223E-13
5.18325E-11 2.60212E-13
5.50215E-11 2.60201E-13
5.83057E-11 2.60189E-13
6.16850E-11 2.60178E-13
6.51595E-11 2.60165E-13
6.87293E-11 2.60153E-13
7.23943E-11 2.60140E-13
7.61544E-11 2.60127E-13
1.18991E-10 2.59978E-13
1.71347E-10 2.59796E-13
2.33223E-10 2.59581E-13
3.04617E-10 2.59333E-13
3.85531E-10 2.59052E-13
4.75965E-10 2.58739E-13
5.75917E-10 2.58394E-13
6.85389E-10 2.58017E-13
8.04380E-10 2.57608E-13
9.32891E-10 2.57167E-13
1.07092E-09 2.56695E-13
1.21847E-09 2.56191E-13
1.37554E-09 2.55657E-13
1.54213E-09 2.55092E-13
1.71823E-09 2.54496E-13
1.90386E-09 2.53871E-13
2.09900E-09 2.53216E-13
2.30367E-09 2.52531E-13
2.51785E-09 2.51818E-13
2.74156E-09 2.51075E-13
2.97478E-09 2.50305E-13
3.21752E-09 2.49506E-13
3.46978E-09 2.48680E-13
3.73156E-09 2.47827E-13
4.00286E-09 2.46947E-13
4.28368E-09 2.46041E-13
4.57402E-09 2.45109E-13
4.87388E-09 2.44152E-13
5.18326E-09 2.43169E-13
5.50215E-09 2.42163E-13
5.83057E-09 2.41133E-13
6.16850E-09 2.40079E-13
6.51596E-09 2.39003E-13
6.87293E-09 2.37903E-13
7.23942E-09 2.36782E-13
7.61544E-09 2.35640E-13
1.18991E-08 2.23157E-13
1.71347E-08 2.09140E-13
2.33223E-08 1.94137E-13
3.04617E-08 1.78673E-13
3.85531E-08 1.63208E-13
4.75965E-08 1.48125E-13
5.75917E-08 1.33718E-13
6.85389E-08 1.20190E-13
8.04380E-08 1.07691E-13
9.32891E-08 9.62755E-14
1.07092E-07 8.59807E-14
1.21847E-07 7.67317E-14
1.37554E-07 6.84525E-14
1.54213E-07 6.11895E-14
1.71823E-07 5.47415E-14
1.90386E-07 4.90207E-14
2.09900E-07 4.40799E-14
2.30367E-07 3.96951E-14
2.51785E-07 3.58257E-14
2.74156E-07 3.24790E-14
2.97478E-07 2.95026E-14
3.21752E-07 2.68786E-14
3.46978E-07 2.45880E-14
3.73156E-07 2.25411E-14
4.00286E-07 2.07314E-14
4.28368E-07 1.91311E-14
4.57402E-07 1.76928E-14
4.87388E-07 1.64124E-14
5.18325E-07 1.52653E-14
5.50215E-07 1.42282E-14
5.83057E-07 1.32950E-14
6.16850E-07 1.24498E-14
6.51596E-07 1.16813E-14
6.87293E-07 1.09801E-14
7.23942E-07 1.03403E-14
7.61543E-07 9.75504E-15
1.18991E-06 5.81820E-15
1.71347E-06 3.74393E-15
2.33223E-06 2.50148E-15
3.04617E-06 1.71440E-15
3.85531E-06 1.19755E-15
4.75964E-06 8.52392E-16
5.75916E-06 6.17228E-16
6.85388E-06 4.53986E-16
8.04378E-06 3.40349E-16
9.32888E-06 2.59226E-16
1.07092E-05 2.00419E-16
1.21846E-05 1.57148E-16
1.37553E-05 1.24821E-16
1.54212E-05 1.00374E-16
1.71822E-05 8.16377E-17
1.90385E-05 6.70997E-17
2.09899E-05 5.56768E-17
2.30365E-05 4.66040E-17
2.51783E-05 3.93243E-17
2.74153E-05 3.34283E-17
2.97475E-05 2.86096E-17
3.21749E-05 2.46395E-17
3.46974E-05 2.13435E-17
3.73152E-05 1.85872E-17
4.00281E-05 1.62669E-17
4.28362E-05 1.43012E-17
4.57395E-05 1.26264E-17
4.87380E-05 1.11918E-17
5.18317E-05 9.95651E-18
5.50205E-05 8.88809E-18
5.83045E-05 7.96014E-18
6.16838E-05 7.15089E-18
6.51582E-05 6.44241E-18
6.87277E-05 5.81985E-18
7.23925E-05 5.27089E-18
7.61524E-05 4.78525E-18
9.21439E-05 3.32197E-18
1.09658E-04 2.37729E-18
1.28695E-04 1.74495E-18
1.49255E-04 1.30900E-18
1.71338E-04 1.00061E-18
1.94942E-04 7.77609E-19
2.20070E-04 6.13198E-19
2.46720E-04 4.89883E-19
2.74892E-04 3.95966E-19
3.04586E-04 3.23449E-19
3.35803E-04 2.66750E-19
3.68542E-04 2.21919E-19
4.02802E-04 1.86100E-19
4.38585E-04 1.57210E-19
4.75889E-04 1.33705E-19
5.14715E-04 1.14425E-19
5.55063E-04 9.84944E-20
5.96931E-04 8.52380E-20
6.40321E-04 7.41363E-20
6.85233E-04 6.47830E-20
7.31665E-04 5.68580E-20
7.79618E-04 5.01080E-20
8.29092E-04 4.43298E-20
8.80086E-04 3.93608E-20
9.32601E-04 3.50686E-20
9.86636E-04 3.13457E-20
1.04219E-03 2.81039E-20
1.09927E-03 2.52704E-20
1.15786E-03 2.27853E-20
1.21797E-03 2.05982E-20
1.27961E-03 1.86675E-20
1.34276E-03 1.69577E-20
1.40743E-03 1.54394E-20
1.47362E-03 1.40873E-20
1.54133E-03 1.28800E-20
1.61056E-03 1.17994E-20
1.68131E-03 1.08299E-20
1.75357E-03 9.95790E-21
1.82735E-03 9.17200E-21
1.90265E-03 8.46217E-21
1.97947E-03 7.81973E-21
2.05780E-03 7.23715E-21
2.13765E-03 6.70787E-21
2.21902E-03 6.22613E-21
2.30190E-03 5.78689E-21
2.38630E-03 5.38575E-21
2.47222E-03 5.01878E-21
2.55965E-03 4.68258E-21
2.64859E-03 4.37408E-21
2.73905E-03 4.09059E-21
2.83103E-03 3.82972E-21
2.92452E-03 3.58933E-21
3.01952E-03 3.36753E-21
3.11604E-03 3.16262E-21
3.21407E-03 2.97307E-21
3.31362E-03 2.79752E-21
3.41468E-03 2.63475E-21
3.51725E-03 2.48366E-21
3.62133E-03 2.34326E-21
3.72692E-03 2.21264E-21
3.83403E-03 2.09101E-21
3.94265E-03 1.97763E-21
4.05278E-03 1.87183E-21
4.16442E-03 1.77301E-21
4.27757E-03 1.68064E-21
4.39223E-03 1.59422E-21
4.50840E-03 1.51328E-21
4.62608E-03 1.43742E-21
4.74527E-03 1.36626E-21
4.86597E-03 1.29945E-21
4.98817E-03 1.23669E-21
5.11188E-03 1.17767E-21
5.23711E-03 1.12213E-21
5.36383E-03 1.06984E-21
5.49207E-03 1.02056E-21
5.62181E-03 9.74083E-22
5.75306E-03 9.30229E-22
5.88581E-03 8.88817E-22
6.02007E-03 8.49688E-22
6.15583E-03 8.12691E-22
6.29310E-03 7.77687E-22
6.43187E-03 7.44551E-22
6.57214E-03 7.13163E-22
6.71392E-03 6.83413E-22
6.85720E-03 6.55201E-22
7.00198E-03 6.28431E-22
7.14827E-03 6.03016E-22
7.29605E-03 5.78874E-22
7.44534E-03 5.55930E-22
7.59612E-03 5.34113E-22
7.97965E-03 4.84080E-22
8.37255E-03 4.39776E-22
8.77480E-03 4.00433E-22
9.18641E-03 3.65397E-22
9.60736E-03 3.34115E-22
1.00376E-02 3.06114E-22
1.04773E-02 2.80988E-22
1.09262E-02 2.58391E-22
1.13844E-02 2.38024E-22
1.18520E-02 2.19626E-22
1.23288E-02 2.02974E-22
1.28150E-02 1.87872E-22
1.33104E-02 1.74150E-22
1.38150E-02 1.61660E-22
1.43290E-02 1.50271E-22
1.48521E-02 1.39868E-22
1.53845E-02 1.30351E-22
1.59262E-02 1.21631E-22
1.64770E-02 1.13628E-22
1.70371E-02 1.06274E-22
1.76063E-02 9.95055E-23
1.81848E-02 9.32679E-23
1.87724E-02 8.75118E-23
1.93692E-02 8.21934E-23
1.99751E-02 7.72733E-23
2.05901E-02 7.27161E-23
2.12143E-02 6.84902E-23
2.18476E-02 6.45671E-23
2.24900E-02 6.09210E-23
2.31415E-02 5.75289E-23
2.38021E-02 5.43698E-23
2.44717E-02 5.14246E-23
2.51504E-02 4.86763E-23
2.58382E-02 4.61093E-23
2.65349E-02 4.37093E-23
2.72407E-02 4.14635E-23
2.79555E-02 3.93601E-23
2.86793E-02 3.73885E-23
2.94120E-02 3.55388E-23
3.01537E-02 3.38021E-23
3.09043E-02 3.21702E-23
3.16639E-02 3.06356E-23
3.24324E-02 2.91914E-23
3.32098E-02 2.78313E-23
3.39961E-02 2.65495E-23
3.47912E-02 2.53406E-23
3.55952E-02 2.41998E-23
3.64081E-02 2.31224E-23
3.72297E-02 2.21042E-23
3.80602E-02 2.11415E-23
3.88995E-02 2.02306E-23
3.97476E-02 1.93682E-23
4.06044E-02 1.85512E-23
4.14700E-02 1.77768E-23
4.23443E-02 1.70423E-23
4.32273E-02 1.63454E-23
4.41190E-02 1.56837E-23
4.50194E-02 1.50551E-23
4.59284E-02 1.44576E-23
4.68461E-02 1.38895E-23
4.87074E-02 1.28343E-23
5.06030E-02 1.18774E-23
5.25328E-02 1.10078E-23
5.44967E-02 1.02163E-23
5.64946E-02 9.49445E-24
5.85262E-02 8.83513E-24
6.05914E-02 8.23191E-24
6.26901E-02 7.67917E-24
6.48222E-02 7.17191E-24
6.69873E-02 6.70573E-24
6.91854E-02 6.27669E-24
7.14163E-02 5.88130E-24
7.36799E-02 5.51643E-24
7.59760E-02 5.17931E-24
7.83043E-02 4.86745E-24
8.06647E-02 4.57859E-24
8.30571E-02 4.31075E-24
8.54812E-02 4.06211E-24
8.79369E-02 3.83104E-24
9.04240E-02 3.61607E-24
9.29422E-02 3.41588E-24
9.54915E-02 3.22927E-24
9.80716E-02 3.05514E-24
1.00682E-01 2.89251E-24
1.03323E-01 2.74048E-24
1.05995E-01 2.59823E-24
1.08696E-01 2.46502E-24
1.11427E-01 2.34016E-24
1.14188E-01 2.22305E-24
1.16978E-01 2.11310E-24
1.19797E-01 2.00980E-24
1.22645E-01 1.91267E-24
1.25522E-01 1.82128E-24
1.28428E-01 1.73523E-24
1.31361E-01 1.65414E-24
1.34323E-01 1.57768E-24
1.37313E-01 1.50554E-24
1.40330E-01 1.43742E-24
1.43375E-01 1.37306E-24
1.46447E-01 1.31222E-24
1.49545E-01 1.25466E-24
1.52671E-01 1.20018E-24
1.55823E-01 1.14858E-24
1.59001E-01 1.09968E-24
1.62205E-01 1.05332E-24
1.65435E-01 1.00933E-24
1.68690E-01 9.67581E-25
1.71970E-01 9.27930E-25
1.75276E-01 8.90253E-25
1.78606E-01 8.54434E-25
1.81961E-01 8.20365E-25
1.85340E-01 7.87944E-25
1.88743E-01 7.57077E-25
1.92169E-01 7.27676E-25
1.95619E-01 6.99659E-25
1.99092E-01 6.72947E-25
2.02589E-01 6.47470E-25
2.06107E-01 6.23160E-25
2.09649E-01 5.99953E-25
2.13212E-01 5.77791E-25
2.16797E-01 5.56617E-25
2.20404E-01 5.36379E-25
2.24032E-01 5.17029E-25
2.27680E-01 4.98520E-25
2.31350E-01 4.80809E-25
2.35040E-01 4.63856E-25
2.38751E-01 4.47621E-25
2.42481E-01 4.32070E-25
2.46231E-01 4.17168E-25
2.50000E-01 4.02882E-25
2.53788E-01 3.89183E-25
2.57595E-01 3.76043E-25
2.61421E-01 3.63434E-25
2.65264E-01 3.51331E-25
2.69126E-01 3.39710E-25
2.73005E-01 3.28548E-25
2.76901E-01 3.17824E-25
2.80814E-01 3.07518E-25
2.84744E-01 2.97610E-25
2.88691E-01 2.88082E-25
2.92653E-01 2.78917E-25
2.96632E-01 2.70099E-25
3.00625E-01 2.61612E-25
3.04634E-01 2.53441E-25
3.08658E-01 2.45573E-25
3.12697E-01 2.37994E-25
3.16749E-01 2.30692E-25
3.20816E-01 2.23654E-25
3.24896E-01 2.16870E-25
3.28990E-01 2.10329E-25
3.33097E-01 2.04021E-25
3.37216E-01 1.97935E-25
3.41348E-01 1.92062E-25
3.45492E-01 1.86395E-25
3.49647E-01 1.80923E-25
3.53814E-01 1.75640E-25
3.57992E-01 1.70537E-25
3.62181E-01 1.65608E-25
3.66381E-01 1.60845E-25
3.70590E-01 1.56242E-25
3.74810E-01 1.51792E-25
3.79039E-01 1.47490E-25
3.83277E-01 1.43329E-25
3.87524E-01 1.39305E-25
3.91780E-01 1.35412E-25
3.96044E-01 1.31645E-25
4.00316E-01 1.27998E-25
4.04596E-01 1.24469E-25
4.08882E-01 1.21051E-25
4.13176E-01 1.17742E-25
4.17476E-01 1.14537E-25
4.21783E-01 1.11432E-25
4.26095E-01 1.08423E-25
4.30413E-01 1.05507E-25
4.34737E-01 1.02681E-25
4.39065E-01 9.99416E-26
4.43398E-01 9.72852E-26
4.47736E-01 9.47091E-26
4.52077E-01 9.22105E-26
4.56422E-01 8.97867E-26
4.60770E-01 8.74350E-26
4.65122E-01 8.51528E-26
4.69476E-01 8.29379E-26
4.73832E-01 8.07879E-26
4.78190E-01 7.87005E-26
4.82550E-01 7.66737E-26
4.86912E-01 7.47053E-26
4.91274E-01 7.27934E-26
4.95637E-01 7.09362E-26
5.00000E-01 6.91317E-26
5.04363E-01 6.73783E-26
5.08726E-01 6.56742E-26
5.13088E-01 6.40179E-26
5.17450E-01 6.24077E-26
5.21810E-01 6.08422E-26
5.26168E-01 5.93200E-26
5.30524E-01 5.78396E-26
5.34878E-01 5.63997E-26
5.39230E-01 5.49990E-26
5.43578E-01 5.36363E-26
5.47923E-01 5.23103E-26
5.52264E-01 5.10200E-26
5.56602E-01 4.97642E-26
5.60935E-01 4.85419E-26
5.65263E-01 4.73519E-26
5.69587E-01 4.61934E-26
5.73905E-01 4.50653E-26
5.78217E-01 4.39668E-26
5.82524E-01 4.28968E-26
5.86824E-01 4.18547E-26
5.91118E-01 4.08395E-26
5.95404E-01 3.98504E-26
5.99684E-01 3.88867E-26
6.03956E-01 3.79475E-26
6.08220E-01 3.70323E-26
6.12476E-01 3.61402E-26
6.16723E-01 3.52707E-26
6.20961E-01 3.44230E-26
6.25190E-01 3.35965E-26
6.29410E-01 3.27906E-26
6.33619E-01 3.20048E-26
6.37819E-01 3.12384E-26
6.42008E-01 3.04909E-26
6.46186E-01 2.97617E-26
6.50353E-01 2.90505E-26
6.54508E-01 2.83565E-26
6.58652E-01 2.76795E-26
6.62784E-01 2.70188E-26
6.66903E-01 2.63741E-26
6.71010E-01 2.57449E-26
6.75104E-01 2.51308E-26
6.79184E-01 2.45313E-26
6.83251E-01 2.39461E-26
6.87303E-01 2.33749E-26
6.91342E-01 2.28171E-26
6.95366E-01 2.22725E-26
6.99375E-01 2.17407E-26
7.03368E-01 2.12213E-26
7.07347E-01 2.07142E-26
7.11309E-01 2.02188E-26
7.15256E-01 1.97349E-26
7.19186E-01 1.92622E-26
7.23099E-01 1.88005E-26
7.26995E-01 1.83494E-26
7.30874E-01 1.79087E-26
7.34736E-01 1.74780E-26
7.38579E-01 1.70572E-26
7.42405E-01 1.66460E-26
7.46212E-01 1.62441E-26
7.50000E-01 1.58514E-26
7.53769E-01 1.54675E-26
7.57519E-01 1.50923E-26
7.61249E-01 1.47256E-26
7.64960E-01 1.43671E-26
7.68650E-01 1.40166E-26
7.72320E-01 1.36740E-26
7.75968E-01 1.33390E-26
7.79596E-01 1.30115E-26
7.83203E-01 1.26912E-26
7.86788E-01 1.23781E-26
7.90351E-01 1.20719E-26
7.93893E-01 1.17725E-26
7.97411E-01 1.14797E-26
8.00908E-01 1.11934E-26
8.04381E-01 1.09134E-26
8.07831E-01 1.06395E-26
8.11257E-01 1.03716E-26
8.14660E-01 1.01097E-26
8.18039E-01 9.85342E-27
8.21394E-01 9.60279E-27
8.24724E-01 9.35764E-27
8.28030E-01 9.11785E-27
8.31310E-01 8.88329E-27
8.34565E-01 8.65385E-27
8.37795E-01 8.42941E-27
8.40999E-01 8.20987E-27
8.44177E-01 7.99511E-27
8.47329E-01 7.78503E-27
8.50455E-01 7.57952E-27
8.53553E-01 7.37849E-27
8.56625E-01 7.18184E-27
8.59670E-01 6.98948E-27
8.62687E-01 6.80131E-27
8.65677E-01 6.61724E-27
8.68639E-01 6.43719E-27
8.71572E-01 6.26107E-27
8.74478E-01 6.08881E-27
8.77355E-01 5.92031E-27
8.80203E-01 5.75551E-27
8.83022E-01 5.59432E-27
8.85812E-01 5.43668E-27
8.88573E-01 5.28251E-27
8.91304E-01 5.13174E-27
8.94005E-01 4.98430E-27
8.96677E-01 4.84013E-27
8.99318E-01 4.69916E-27
9.01928E-01 4.56133E-27
9.04508E-01 4.42658E-27
9.07058E-01 4.29485E-27
9.09576E-01 4.16608E-27
9.12063E-01 4.04022E-27
9.14519E-01 3.91720E-27
9.16943E-01 3.79699E-27
9.19335E-01 3.67952E-27
9.21696E-01 3.56474E-27
9.24024E-01 3.45261E-27
9.26320E-01 3.34308E-27
9.28584E-01 3.23610E-27
9.30815E-01 3.13163E-27
9.33013E-01 3.02962E-27
9.35178E-01 2.93002E-27
9.37310E-01 2.83281E-27
9.39409E-01 2.73794E-27
9.41474E-01 2.64536E-27
9.43505E-01 2.55504E-27
9.45503E-01 2.46695E-27
9.47467E-01 2.38104E-27
9.49397E-01 2.29729E-27
9.51293E-01 2.21565E-27
9.53154E-01 2.13610E-27
9.54981E-01 2.05860E-27
9.56773E-01 1.98312E-27
9.58530E-01 1.90963E-27
9.60252E-01 1.83810E-27
9.61940E-01 1.76851E-27
9.63592E-01 1.70082E-27
9.65209E-01 1.63501E-27
9.66790E-01 1.57105E-27
9.68336E-01 1.50891E-27
9.69846E-01 1.44858E-27
9.71321E-01 1.39003E-27
9.72759E-01 1.33324E-27
9.74162E-01 1.27817E-27
9.75528E-01 1.22482E-27
9.76858E-01 1.17317E-27
9.78152E-01 1.12318E-27
9.79410E-01 1.07484E-27
9.80631E-01 1.02814E-27
9.81815E-01 9.83054E-28
9.82963E-01 9.39565E-28
9.84074E-01 8.97658E-28
9.85148E-01 8.57316E-28
9.86185E-01 8.18524E-28
9.87185E-01 7.81266E-28
9.88148E-01 7.45530E-28
9.89074E-01 7.11301E-28
9.89962E-01 6.78567E-28
9.90814E-01 6.47314E-28
9.91627E-01 6.17532E-28
9.92404E-01 5.89208E-28
9.93143E-01 5.62333E-28
9.93844E-01 5.36896E-28
9.94508E-01 5.12887E-28
9.95134E-01 4.90298E-28
9.95722E-01 4.69120E-28
9.96273E-01 4.49344E-28
9.96786E-01 4.30965E-28
9.97261E-01 4.13974E-28
9.97698E-01 3.98366E-28
9.98097E-01 3.84135E-28
9.98459E-01 3.71274E-28
9.98782E-01 3.59781E-28
9.99067E-01 3.49649E-28
9.99315E-01 3.40876E-28
9.99524E-01 3.33458E-28
9.99695E-01 3.27393E-28
9.99829E-01 3.22678E-28
9.99924E-01 3.19311E-28
9.99981E-01 3.17292E-28
1.00000E+00 3.16619E-28
