 #
 # Subroutine ELSEPA. Elastic scattering of electrons and positrons
 #                    by neutral atoms and positive ions
 #
 # Projectile: electron
 # Kinetic energy = 8.00000E+08 eV = 2.93995E+07 a.u.
 #
 # WARNING: High-energy factorization with free-atom DF screening.
 #          Absorption, polarization and exchange corrections are
 #          switched off.
 #          Phase shifts are calculated for the bare nucleus.
 #          Scattering amplitudes are not evaluated.
 #
 # Element: Mg,  Z =  12,  atomic weight = 2.43050E+01 g/mol
 #
 # Nuclear model: Fermi distribution
 #                Average radius = 3.09943E-13 cm
 #                Skin thickness = 5.46000E-14 cm
 #
 # Number of electrons = 12
 #
 # Total elastic cross section = 6.02061E-19 cm**2 = 2.15000E-02 a0**2
 # 1st transport cross section = 4.90553E-28 cm**2 = 1.75180E-11 a0**2
 # 2nd transport cross section = 1.47128E-27 cm**2 = 5.25402E-11 a0**2
 #
 #
 # Differential cross section:                       MU=(1-COS(THETA))/2
 #
 #  THETA        MU          DCS          DCS        Sherman      error
 #  (deg)                 (cm**2/sr)   (a0**2/sr)    function
 #----------------------------------------------------------------------
0.00000E+00 6.64533E-09
7.61557E-13 5.17720E-09
1.18994E-12 4.54789E-09
1.71346E-12 3.91872E-09
2.33225E-12 3.32686E-09
3.04617E-12 2.79511E-09
3.85530E-12 2.33423E-09
4.75964E-12 1.94495E-09
5.75917E-12 1.62106E-09
6.85391E-12 1.35560E-09
8.04379E-12 1.13958E-09
9.32893E-12 9.63537E-10
1.07092E-11 8.21699E-10
1.21847E-11 7.05098E-10
1.37554E-11 6.11110E-10
1.54213E-11 5.33060E-10
1.71823E-11 4.68882E-10
1.90386E-11 4.15173E-10
2.09900E-11 3.70093E-10
2.30367E-11 3.31891E-10
2.51785E-11 2.99262E-10
2.74156E-11 2.71137E-10
2.97478E-11 2.46785E-10
3.21752E-11 2.25425E-10
3.46979E-11 2.06675E-10
3.73157E-11 1.90046E-10
4.00286E-11 1.75209E-10
4.28368E-11 1.61981E-10
4.57402E-11 1.49969E-10
4.87388E-11 1.39240E-10
5.18325E-11 1.29342E-10
5.50215E-11 1.20434E-10
5.83057E-11 1.12224E-10
6.16850E-11 1.04728E-10
6.51595E-11 9.78491E-11
6.87293E-11 9.14773E-11
7.23943E-11 8.56614E-11
7.61544E-11 8.02012E-11
1.18991E-10 4.32554E-11
1.71347E-10 2.45598E-11
2.33223E-10 1.46012E-11
3.04617E-10 9.06378E-12
3.85531E-10 5.87092E-12
4.75965E-10 3.95119E-12
5.75917E-10 2.74919E-12
6.85389E-10 1.97167E-12
8.04380E-10 1.45146E-12
9.32891E-10 1.09328E-12
1.07092E-09 8.40094E-13
1.21847E-09 6.56842E-13
1.37554E-09 5.21491E-13
1.54213E-09 4.19591E-13
1.71823E-09 3.41647E-13
1.90386E-09 2.81135E-13
2.09900E-09 2.33526E-13
2.30367E-09 1.95648E-13
2.51785E-09 1.65164E-13
2.74156E-09 1.40416E-13
2.97478E-09 1.20140E-13
3.21752E-09 1.03394E-13
3.46978E-09 8.94704E-14
3.73156E-09 7.78045E-14
4.00286E-09 6.79788E-14
4.28368E-09 5.96511E-14
4.57402E-09 5.25562E-14
4.87388E-09 4.64829E-14
5.18326E-09 4.12569E-14
5.50215E-09 3.67433E-14
5.83057E-09 3.28270E-14
6.16850E-09 2.94166E-14
6.51596E-09 2.64361E-14
6.87293E-09 2.38215E-14
7.23942E-09 2.15211E-14
7.61544E-09 1.94903E-14
1.18991E-08 8.09869E-15
1.71347E-08 3.93256E-15
2.33223E-08 2.13025E-15
3.04617E-08 1.25117E-15
3.85531E-08 7.82005E-16
4.75965E-08 5.13442E-16
5.75917E-08 3.50852E-16
6.85389E-08 2.47803E-16
8.04380E-08 1.79951E-16
9.32891E-08 1.33809E-16
1.07092E-07 1.01550E-16
1.21847E-07 7.84524E-17
1.37554E-07 6.15631E-17
1.54213E-07 4.89832E-17
1.71823E-07 3.94574E-17
1.90386E-07 3.21387E-17
2.09900E-07 2.64409E-17
2.30367E-07 2.19516E-17
2.51785E-07 1.83760E-17
2.74156E-07 1.54996E-17
2.97478E-07 1.31647E-17
3.21752E-07 1.12533E-17
3.46978E-07 9.67658E-18
3.73156E-07 8.36659E-18
4.00286E-07 7.27096E-18
4.28368E-07 6.34896E-18
4.57402E-07 5.56857E-18
4.87388E-07 4.90449E-18
5.18325E-07 4.33652E-18
5.50215E-07 3.84844E-18
5.83057E-07 3.42713E-18
6.16850E-07 3.06193E-18
6.51596E-07 2.74411E-18
6.87293E-07 2.46648E-18
7.23942E-07 2.22309E-18
7.61543E-07 2.00899E-18
1.18991E-06 8.22934E-19
1.71347E-06 3.96887E-19
2.33223E-06 2.14243E-19
3.04617E-06 1.25593E-19
3.85531E-06 7.84115E-20
4.75964E-06 5.14489E-20
5.75916E-06 3.51423E-20
6.85388E-06 2.48143E-20
8.04378E-06 1.80169E-20
9.32888E-06 1.33957E-20
1.07092E-05 1.01658E-20
1.21846E-05 7.85327E-21
1.37553E-05 6.16255E-21
1.54212E-05 4.90334E-21
1.71822E-05 3.94997E-21
1.90385E-05 3.21773E-21
2.09899E-05 2.64741E-21
2.30365E-05 2.19795E-21
2.51783E-05 1.83992E-21
2.74153E-05 1.55193E-21
2.97475E-05 1.31817E-21
3.21749E-05 1.12684E-21
3.46974E-05 9.69029E-22
3.73152E-05 8.37913E-22
4.00281E-05 7.28242E-22
4.28362E-05 6.35936E-22
4.57395E-05 5.57796E-22
4.87380E-05 4.91293E-22
5.18317E-05 4.34411E-22
5.50205E-05 3.85530E-22
5.83045E-05 3.43340E-22
6.16838E-05 3.06771E-22
6.51582E-05 2.74946E-22
6.87277E-05 2.47145E-22
7.23925E-05 2.22770E-22
7.61524E-05 1.98225E-22
9.21439E-05 1.34959E-22
1.09658E-04 9.49597E-23
1.28695E-04 6.86787E-23
1.49255E-04 5.08472E-23
1.71338E-04 3.84110E-23
1.94942E-04 2.95274E-23
2.20070E-04 2.30491E-23
2.46720E-04 1.82368E-23
2.74892E-04 1.46039E-23
3.04586E-04 1.18211E-23
3.35803E-04 9.66145E-24
3.68542E-04 7.96575E-24
4.02802E-04 6.61989E-24
4.38585E-04 5.54136E-24
4.75889E-04 4.66927E-24
5.14715E-04 3.95835E-24
5.55063E-04 3.37444E-24
5.96931E-04 2.89150E-24
6.40321E-04 2.48951E-24
6.85233E-04 2.15288E-24
7.31665E-04 1.86943E-24
7.79618E-04 1.62951E-24
8.29092E-04 1.42544E-24
8.80086E-04 1.25109E-24
9.32601E-04 1.10149E-24
9.86636E-04 9.72619E-25
1.04219E-03 8.61178E-25
1.09927E-03 7.64473E-25
1.15786E-03 6.80273E-25
1.21797E-03 6.06730E-25
1.27961E-03 5.42304E-25
1.34276E-03 4.85703E-25
1.40743E-03 4.35846E-25
1.47362E-03 3.91816E-25
1.54133E-03 3.52839E-25
1.61056E-03 3.18255E-25
1.68131E-03 2.87503E-25
1.75357E-03 2.60102E-25
1.82735E-03 2.35638E-25
1.90265E-03 2.13755E-25
1.97947E-03 1.94146E-25
2.05780E-03 1.76544E-25
2.13765E-03 1.60718E-25
2.21902E-03 1.46467E-25
2.30190E-03 1.33615E-25
2.38630E-03 1.22008E-25
2.47222E-03 1.11512E-25
2.55965E-03 1.02007E-25
2.64859E-03 9.33894E-26
2.73905E-03 8.55671E-26
2.83103E-03 7.84584E-26
2.92452E-03 7.19914E-26
3.01952E-03 6.61019E-26
3.11604E-03 6.07330E-26
3.21407E-03 5.58341E-26
3.31362E-03 5.13598E-26
3.41468E-03 4.72700E-26
3.51725E-03 4.35283E-26
3.62133E-03 4.01023E-26
3.72692E-03 3.69632E-26
3.83403E-03 3.40847E-26
3.94265E-03 3.14433E-26
4.05278E-03 2.90179E-26
4.16442E-03 2.67894E-26
4.27757E-03 2.47406E-26
4.39223E-03 2.28559E-26
4.50840E-03 2.11211E-26
4.62608E-03 1.95235E-26
4.74527E-03 1.80515E-26
4.86597E-03 1.66946E-26
4.98817E-03 1.54432E-26
5.11188E-03 1.42885E-26
5.23711E-03 1.32228E-26
5.36383E-03 1.22386E-26
5.49207E-03 1.13295E-26
5.62181E-03 1.04894E-26
5.75306E-03 9.71286E-27
5.88581E-03 8.99479E-27
6.02007E-03 8.33062E-27
6.15583E-03 7.71611E-27
6.29310E-03 7.14742E-27
6.43187E-03 6.62099E-27
6.57214E-03 6.13358E-27
6.71392E-03 5.68219E-27
6.85720E-03 5.26409E-27
7.00198E-03 4.87674E-27
7.14827E-03 4.51783E-27
7.29605E-03 4.18522E-27
7.44534E-03 3.87695E-27
7.59612E-03 3.59118E-27
7.97965E-03 2.96463E-27
8.37255E-03 2.44590E-27
8.77480E-03 2.01632E-27
9.18641E-03 1.66052E-27
9.60736E-03 1.36587E-27
1.00376E-02 1.12193E-27
1.04773E-02 9.20080E-28
1.09262E-02 7.53172E-28
1.13844E-02 6.15283E-28
1.18520E-02 5.01495E-28
1.23288E-02 4.07717E-28
1.28150E-02 3.30550E-28
1.33104E-02 2.67164E-28
1.38150E-02 2.15202E-28
1.43290E-02 1.72700E-28
1.48521E-02 1.38024E-28
1.53845E-02 1.09814E-28
1.59262E-02 8.69354E-29
1.64770E-02 6.84465E-29
1.70371E-02 5.35635E-29
1.76063E-02 4.16355E-29
1.81848E-02 3.21227E-29
1.87724E-02 2.45779E-29
1.93692E-02 1.86312E-29
1.99751E-02 1.39773E-29
2.05901E-02 1.03648E-29
2.12143E-02 7.58689E-30
2.18476E-02 5.47433E-30
2.24900E-02 3.88879E-30
2.31415E-02 2.71766E-30
2.38021E-02 1.86966E-30
2.44717E-02 1.27113E-30
2.51504E-02 8.62911E-31
2.58382E-02 5.97783E-31
2.65349E-02 4.38320E-31
2.72407E-02 3.55083E-31
2.79555E-02 3.25136E-31
2.86793E-02 3.30806E-31
2.94120E-02 3.58660E-31
3.01537E-02 3.98662E-31
3.09043E-02 4.43474E-31
3.16639E-02 4.87890E-31
3.24324E-02 5.28365E-31
3.32098E-02 5.62640E-31
3.39961E-02 5.89430E-31
3.47912E-02 6.08185E-31
3.55952E-02 6.18882E-31
3.64081E-02 6.21878E-31
3.72297E-02 6.17783E-31
3.80602E-02 6.07365E-31
3.88995E-02 5.91476E-31
3.97476E-02 5.70998E-31
4.06044E-02 5.46804E-31
4.14700E-02 5.19728E-31
4.23443E-02 4.90545E-31
4.32273E-02 4.59958E-31
4.41190E-02 4.28596E-31
4.50194E-02 3.97004E-31
4.59284E-02 3.65651E-31
4.68461E-02 3.34928E-31
4.87074E-02 2.76585E-31
5.06030E-02 2.23780E-31
5.25328E-02 1.77463E-31
5.44967E-02 1.37931E-31
5.64946E-02 1.05017E-31
5.85262E-02 7.82443E-32
6.05914E-02 5.69567E-32
6.26901E-02 4.04123E-32
6.48222E-02 2.78559E-32
6.69873E-02 1.85666E-32
6.91854E-02 1.18877E-32
7.14163E-02 7.24294E-33
7.36799E-02 4.14207E-33
7.59760E-02 2.17991E-33
7.83043E-02 1.03042E-33
8.06647E-02 4.38168E-34
8.30571E-02 2.08616E-34
8.54812E-02 1.98062E-34
8.79369E-02 3.04108E-34
9.04240E-02 4.56963E-34
9.29422E-02 6.11844E-34
9.54915E-02 7.42544E-34
9.80716E-02 8.36152E-34
1.00682E-01 8.88839E-34
1.03323E-01 9.02600E-34
1.05995E-01 8.82806E-34
1.08696E-01 8.36436E-34
1.11427E-01 7.70862E-34
1.14188E-01 6.93055E-34
1.16978E-01 6.09121E-34
1.19797E-01 5.24081E-34
1.22645E-01 4.41808E-34
1.25522E-01 3.65082E-34
1.28428E-01 2.95711E-34
1.31361E-01 2.34677E-34
1.34323E-01 1.82310E-34
1.37313E-01 1.38440E-34
1.40330E-01 1.02542E-34
1.43375E-01 7.38651E-35
1.46447E-01 5.15273E-35
1.49545E-01 3.46029E-35
1.52671E-01 2.21783E-35
1.55823E-01 1.33958E-35
1.59001E-01 7.47973E-36
1.62205E-01 3.75219E-36
1.65435E-01 1.63792E-36
1.68690E-01 6.62830E-37
1.71970E-01 4.47538E-37
1.75276E-01 6.97936E-37
1.78606E-01 1.19392E-36
1.81961E-01 1.77796E-36
1.85340E-01 2.34332E-36
1.88743E-01 2.82369E-36
1.92169E-01 3.18346E-36
1.95619E-01 3.40984E-36
1.99092E-01 3.50542E-36
2.02589E-01 3.48349E-36
2.06107E-01 3.36281E-36
2.09649E-01 3.16484E-36
2.13212E-01 2.91130E-36
2.16797E-01 2.62258E-36
2.20404E-01 2.31643E-36
2.24032E-01 2.00794E-36
2.27680E-01 1.70891E-36
2.31350E-01 1.42811E-36
2.35040E-01 1.17163E-36
2.38751E-01 9.43059E-37
2.42481E-01 7.43976E-37
2.46231E-01 5.74378E-37
2.50000E-01 4.32995E-37
2.53788E-01 3.17750E-37
2.57595E-01 2.26026E-37
2.61421E-01 1.54890E-37
2.65264E-01 1.01371E-37
2.69126E-01 6.25326E-38
2.73005E-01 3.56261E-38
2.76901E-01 1.81602E-38
2.80814E-01 7.92538E-39
2.84744E-01 3.02686E-39
2.88691E-01 1.87893E-39
2.92653E-01 3.18907E-39
2.96632E-01 5.93863E-39
3.00625E-01 9.35213E-39
3.04634E-01 1.28662E-38
3.08658E-01 1.60960E-38
3.12697E-01 1.87943E-38
3.16749E-01 2.08363E-38
3.20816E-01 2.21779E-38
3.24896E-01 2.28378E-38
3.28990E-01 2.28710E-38
3.33097E-01 2.23625E-38
3.37216E-01 2.14060E-38
3.41348E-01 2.01032E-38
3.45492E-01 1.85502E-38
3.49647E-01 1.68403E-38
3.53814E-01 1.50451E-38
3.57992E-01 1.32399E-38
3.62181E-01 1.14770E-38
3.66381E-01 9.80320E-39
3.70590E-01 8.24989E-39
3.74810E-01 6.83901E-39
3.79039E-01 5.58327E-39
3.83277E-01 4.48503E-39
3.87524E-01 3.54166E-39
3.91780E-01 2.74486E-39
3.96044E-01 2.08460E-39
4.00316E-01 1.54557E-39
4.04596E-01 1.11527E-39
4.08882E-01 7.77592E-40
4.13176E-01 1.00000E-45
4.17476E-01 1.00000E-45
4.21783E-01 1.00000E-45
4.26095E-01 1.00000E-45
4.30413E-01 1.00000E-45
4.34737E-01 1.00000E-45
4.39065E-01 1.00000E-45
4.43398E-01 1.00000E-45
4.47736E-01 1.00000E-45
4.52077E-01 1.00000E-45
4.56422E-01 1.00000E-45
4.60770E-01 1.00000E-45
4.65122E-01 1.00000E-45
4.69476E-01 1.00000E-45
4.73832E-01 1.00000E-45
4.78190E-01 1.00000E-45
4.82550E-01 1.00000E-45
4.86912E-01 1.00000E-45
4.91274E-01 1.00000E-45
4.95637E-01 1.00000E-45
5.00000E-01 1.00000E-45
5.04363E-01 1.00000E-45
5.08726E-01 1.00000E-45
5.13088E-01 1.00000E-45
5.17450E-01 1.00000E-45
5.21810E-01 1.00000E-45
5.26168E-01 1.00000E-45
5.30524E-01 1.00000E-45
5.34878E-01 1.00000E-45
5.39230E-01 1.00000E-45
5.43578E-01 1.00000E-45
5.47923E-01 1.00000E-45
5.52264E-01 1.00000E-45
5.56602E-01 1.00000E-45
5.60935E-01 1.00000E-45
5.65263E-01 1.00000E-45
5.69587E-01 1.00000E-45
5.73905E-01 1.00000E-45
5.78217E-01 1.00000E-45
5.82524E-01 1.00000E-45
5.86824E-01 1.00000E-45
5.91118E-01 1.00000E-45
5.95404E-01 1.00000E-45
5.99684E-01 1.00000E-45
6.03956E-01 1.00000E-45
6.08220E-01 1.00000E-45
6.12476E-01 1.00000E-45
6.16723E-01 1.00000E-45
6.20961E-01 1.00000E-45
6.25190E-01 1.00000E-45
6.29410E-01 1.00000E-45
6.33619E-01 1.00000E-45
6.37819E-01 1.00000E-45
6.42008E-01 1.00000E-45
6.46186E-01 1.00000E-45
6.50353E-01 1.00000E-45
6.54508E-01 1.00000E-45
6.58652E-01 1.00000E-45
6.62784E-01 1.00000E-45
6.66903E-01 1.00000E-45
6.71010E-01 1.00000E-45
6.75104E-01 1.00000E-45
6.79184E-01 1.00000E-45
6.83251E-01 1.00000E-45
6.87303E-01 1.00000E-45
6.91342E-01 1.00000E-45
6.95366E-01 1.00000E-45
6.99375E-01 1.00000E-45
7.03368E-01 1.00000E-45
7.07347E-01 1.00000E-45
7.11309E-01 1.00000E-45
7.15256E-01 1.00000E-45
7.19186E-01 1.00000E-45
7.23099E-01 1.00000E-45
7.26995E-01 1.00000E-45
7.30874E-01 1.00000E-45
7.34736E-01 1.00000E-45
7.38579E-01 1.00000E-45
7.42405E-01 1.00000E-45
7.46212E-01 1.00000E-45
7.50000E-01 1.00000E-45
7.53769E-01 1.00000E-45
7.57519E-01 1.00000E-45
7.61249E-01 1.00000E-45
7.64960E-01 1.00000E-45
7.68650E-01 1.00000E-45
7.72320E-01 1.00000E-45
7.75968E-01 1.00000E-45
7.79596E-01 1.00000E-45
7.83203E-01 1.00000E-45
7.86788E-01 1.00000E-45
7.90351E-01 1.00000E-45
7.93893E-01 1.00000E-45
7.97411E-01 1.00000E-45
8.00908E-01 1.00000E-45
8.04381E-01 1.00000E-45
8.07831E-01 1.00000E-45
8.11257E-01 1.00000E-45
8.14660E-01 1.00000E-45
8.18039E-01 1.00000E-45
8.21394E-01 1.00000E-45
8.24724E-01 1.00000E-45
8.28030E-01 1.00000E-45
8.31310E-01 1.00000E-45
8.34565E-01 1.00000E-45
8.37795E-01 1.00000E-45
8.40999E-01 1.00000E-45
8.44177E-01 1.00000E-45
8.47329E-01 1.00000E-45
8.50455E-01 1.00000E-45
8.53553E-01 1.00000E-45
8.56625E-01 1.00000E-45
8.59670E-01 1.00000E-45
8.62687E-01 1.00000E-45
8.65677E-01 1.00000E-45
8.68639E-01 1.00000E-45
8.71572E-01 1.00000E-45
8.74478E-01 1.00000E-45
8.77355E-01 1.00000E-45
8.80203E-01 1.00000E-45
8.83022E-01 1.00000E-45
8.85812E-01 1.00000E-45
8.88573E-01 1.00000E-45
8.91304E-01 1.00000E-45
8.94005E-01 1.00000E-45
8.96677E-01 1.00000E-45
8.99318E-01 1.00000E-45
9.01928E-01 1.00000E-45
9.04508E-01 1.00000E-45
9.07058E-01 1.00000E-45
9.09576E-01 1.00000E-45
9.12063E-01 1.00000E-45
9.14519E-01 1.00000E-45
9.16943E-01 1.00000E-45
9.19335E-01 1.00000E-45
9.21696E-01 1.00000E-45
9.24024E-01 1.00000E-45
9.26320E-01 1.00000E-45
9.28584E-01 1.00000E-45
9.30815E-01 1.00000E-45
9.33013E-01 1.00000E-45
9.35178E-01 1.00000E-45
9.37310E-01 1.00000E-45
9.39409E-01 1.00000E-45
9.41474E-01 1.00000E-45
9.43505E-01 1.00000E-45
9.45503E-01 1.00000E-45
9.47467E-01 1.00000E-45
9.49397E-01 1.00000E-45
9.51293E-01 1.00000E-45
9.53154E-01 1.00000E-45
9.54981E-01 1.00000E-45
9.56773E-01 1.00000E-45
9.58530E-01 1.00000E-45
9.60252E-01 1.00000E-45
9.61940E-01 1.00000E-45
9.63592E-01 1.00000E-45
9.65209E-01 1.00000E-45
9.66790E-01 1.00000E-45
9.68336E-01 1.00000E-45
9.69846E-01 1.00000E-45
9.71321E-01 1.00000E-45
9.72759E-01 1.00000E-45
9.74162E-01 1.00000E-45
9.75528E-01 1.00000E-45
9.76858E-01 1.00000E-45
9.78152E-01 1.00000E-45
9.79410E-01 1.00000E-45
9.80631E-01 1.00000E-45
9.81815E-01 1.00000E-45
9.82963E-01 1.00000E-45
9.84074E-01 1.00000E-45
9.85148E-01 1.00000E-45
9.86185E-01 1.00000E-45
9.87185E-01 1.00000E-45
9.88148E-01 1.00000E-45
9.89074E-01 1.00000E-45
9.89962E-01 1.00000E-45
9.90814E-01 1.00000E-45
9.91627E-01 1.00000E-45
9.92404E-01 1.00000E-45
9.93143E-01 1.00000E-45
9.93844E-01 1.00000E-45
9.94508E-01 1.00000E-45
9.95134E-01 1.00000E-45
9.95722E-01 1.00000E-45
9.96273E-01 1.00000E-45
9.96786E-01 1.00000E-45
9.97261E-01 1.00000E-45
9.97698E-01 1.00000E-45
9.98097E-01 1.00000E-45
9.98459E-01 1.00000E-45
9.98782E-01 1.00000E-45
9.99067E-01 1.00000E-45
9.99315E-01 1.00000E-45
9.99524E-01 1.00000E-45
9.99695E-01 1.00000E-45
9.99829E-01 1.00000E-45
9.99924E-01 1.00000E-45
9.99981E-01 1.00000E-45
1.00000E+00 1.00000E-45
