 #
 # Subroutine ELSEPA. Elastic scattering of electrons and positrons
 #                    by neutral atoms and positive ions
 #
 # Projectile: positron
 # Kinetic energy = 8.00000E+06 eV = 2.93995E+05 a.u.
 #
 # WARNING: High-energy factorization with free-atom DF screening.
 #          Absorption, polarization and exchange corrections are
 #          switched off.
 #          Phase shifts are calculated for the bare nucleus.
 #          Scattering amplitudes are not evaluated.
 #
 # Element:  S,  Z =  16,  atomic weight = 3.20660E+01 g/mol
 #
 # Nuclear model: Fermi distribution
 #                Average radius = 3.39937E-13 cm
 #                Skin thickness = 5.46000E-14 cm
 #
 # Number of electrons = 16
 #
 # Total elastic cross section = 1.04918E-18 cm**2 = 3.74670E-02 a0**2
 # 1st transport cross section = 5.63244E-24 cm**2 = 2.01138E-07 a0**2
 # 2nd transport cross section = 1.62732E-23 cm**2 = 5.81126E-07 a0**2
 #
 #
 # Differential cross section:                       MU=(1-COS(THETA))/2
 #
 #  THETA        MU          DCS          DCS        Sherman      error
 #  (deg)                 (cm**2/sr)   (a0**2/sr)    function
 #----------------------------------------------------------------------
0.00000E+00 7.37943E-13
7.61557E-13 7.37932E-13
1.18994E-12 7.37926E-13
1.71346E-12 7.37919E-13
2.33225E-12 7.37911E-13
3.04617E-12 7.37902E-13
3.85530E-12 7.37892E-13
4.75964E-12 7.37880E-13
5.75917E-12 7.37867E-13
6.85391E-12 7.37853E-13
8.04379E-12 7.37838E-13
9.32893E-12 7.37821E-13
1.07092E-11 7.37803E-13
1.21847E-11 7.37785E-13
1.37554E-11 7.37765E-13
1.54213E-11 7.37743E-13
1.71823E-11 7.37721E-13
1.90386E-11 7.37697E-13
2.09900E-11 7.37673E-13
2.30367E-11 7.37647E-13
2.51785E-11 7.37619E-13
2.74156E-11 7.37591E-13
2.97478E-11 7.37561E-13
3.21752E-11 7.37531E-13
3.46979E-11 7.37499E-13
3.73157E-11 7.37466E-13
4.00286E-11 7.37431E-13
4.28368E-11 7.37396E-13
4.57402E-11 7.37359E-13
4.87388E-11 7.37321E-13
5.18325E-11 7.37282E-13
5.50215E-11 7.37242E-13
5.83057E-11 7.37200E-13
6.16850E-11 7.37158E-13
6.51595E-11 7.37114E-13
6.87293E-11 7.37069E-13
7.23943E-11 7.37023E-13
7.61544E-11 7.36975E-13
1.18991E-10 7.36436E-13
1.71347E-10 7.35779E-13
2.33223E-10 7.35004E-13
3.04617E-10 7.34112E-13
3.85531E-10 7.33102E-13
4.75965E-10 7.31978E-13
5.75917E-10 7.30737E-13
6.85389E-10 7.29383E-13
8.04380E-10 7.27915E-13
9.32891E-10 7.26334E-13
1.07092E-09 7.24643E-13
1.21847E-09 7.22839E-13
1.37554E-09 7.20928E-13
1.54213E-09 7.18908E-13
1.71823E-09 7.16781E-13
1.90386E-09 7.14552E-13
2.09900E-09 7.12214E-13
2.30367E-09 7.09778E-13
2.51785E-09 7.07238E-13
2.74156E-09 7.04600E-13
2.97478E-09 7.01869E-13
3.21752E-09 6.99034E-13
3.46978E-09 6.96112E-13
3.73156E-09 6.93093E-13
4.00286E-09 6.89985E-13
4.28368E-09 6.86793E-13
4.57402E-09 6.83505E-13
4.87388E-09 6.80143E-13
5.18326E-09 6.76691E-13
5.50215E-09 6.73160E-13
5.83057E-09 6.69557E-13
6.16850E-09 6.65866E-13
6.51596E-09 6.62113E-13
6.87293E-09 6.58277E-13
7.23942E-09 6.54376E-13
7.61544E-09 6.50413E-13
1.18991E-08 6.07488E-13
1.71347E-08 5.60231E-13
2.33223E-08 5.09740E-13
3.04617E-08 4.59878E-13
3.85531E-08 4.11016E-13
4.75965E-08 3.66176E-13
5.75917E-08 3.22206E-13
6.85389E-08 2.83524E-13
8.04380E-08 2.48031E-13
9.32891E-08 2.16440E-13
1.07092E-07 1.89036E-13
1.21847E-07 1.64277E-13
1.37554E-07 1.43206E-13
1.54213E-07 1.24701E-13
1.71823E-07 1.08751E-13
1.90386E-07 9.50947E-14
2.09900E-07 8.31654E-14
2.30367E-07 7.30133E-14
2.51785E-07 6.42151E-14
2.74156E-07 5.66550E-14
2.97478E-07 5.01519E-14
3.21752E-07 4.45078E-14
3.46978E-07 3.96470E-14
3.73156E-07 3.54216E-14
4.00286E-07 3.17547E-14
4.28368E-07 2.85622E-14
4.57402E-07 2.57700E-14
4.87388E-07 2.33273E-14
5.18325E-07 2.11798E-14
5.50215E-07 1.92880E-14
5.83057E-07 1.76162E-14
6.16850E-07 1.61337E-14
6.51596E-07 1.48161E-14
6.87293E-07 1.36405E-14
7.23942E-07 1.25889E-14
7.61543E-07 1.16456E-14
1.18991E-06 5.91739E-15
1.71347E-06 3.40423E-15
2.33223E-06 2.09531E-15
3.04617E-06 1.35460E-15
3.85531E-06 9.03445E-16
4.75964E-06 6.21434E-16
5.75916E-06 4.38112E-16
6.85388E-06 3.16554E-16
8.04378E-06 2.33637E-16
9.32888E-06 1.75959E-16
1.07092E-05 1.34912E-16
1.21846E-05 1.05159E-16
1.37553E-05 8.31812E-17
1.54212E-05 6.66825E-17
1.71822E-05 5.41003E-17
1.90385E-05 4.43733E-17
2.09899E-05 3.67526E-17
2.30365E-05 3.07119E-17
2.51783E-05 2.58709E-17
2.74153E-05 2.19541E-17
2.97475E-05 1.87557E-17
3.21749E-05 1.61230E-17
3.46974E-05 1.39387E-17
3.73152E-05 1.21140E-17
4.00281E-05 1.05793E-17
4.28362E-05 9.28077E-18
4.57395E-05 8.17572E-18
4.87380E-05 7.23055E-18
5.18317E-05 6.41806E-18
5.50205E-05 5.71657E-18
5.83045E-05 5.10828E-18
6.16838E-05 4.57875E-18
6.51582E-05 4.11599E-18
6.87277E-05 3.71015E-18
7.23925E-05 3.35300E-18
7.61524E-05 3.03769E-18
9.21439E-05 2.09253E-18
1.09658E-04 1.48717E-18
1.28695E-04 1.08515E-18
1.49255E-04 8.09885E-19
1.71338E-04 6.16400E-19
1.94942E-04 4.77242E-19
2.20070E-04 3.75137E-19
2.46720E-04 2.98875E-19
2.74892E-04 2.41001E-19
3.04586E-04 1.96456E-19
3.35803E-04 1.61723E-19
3.68542E-04 1.34325E-19
4.02802E-04 1.12481E-19
4.38585E-04 9.48951E-20
4.75889E-04 8.06109E-20
5.14715E-04 6.89120E-20
5.55063E-04 5.92578E-20
5.96931E-04 5.12341E-20
6.40321E-04 4.45220E-20
6.85233E-04 3.88726E-20
7.31665E-04 3.40904E-20
7.79618E-04 3.00206E-20
8.29092E-04 2.65397E-20
8.80086E-04 2.35484E-20
9.32601E-04 2.09664E-20
9.86636E-04 1.87283E-20
1.04219E-03 1.67808E-20
1.09927E-03 1.50796E-20
1.15786E-03 1.35884E-20
1.21797E-03 1.22768E-20
1.27961E-03 1.11196E-20
1.34276E-03 1.00953E-20
1.40743E-03 9.18621E-21
1.47362E-03 8.37704E-21
1.54133E-03 7.65491E-21
1.61056E-03 7.00885E-21
1.68131E-03 6.42944E-21
1.75357E-03 5.90861E-21
1.82735E-03 5.43940E-21
1.90265E-03 5.01579E-21
1.97947E-03 4.63256E-21
2.05780E-03 4.28520E-21
2.13765E-03 3.96972E-21
2.21902E-03 3.68267E-21
2.30190E-03 3.42106E-21
2.38630E-03 3.18225E-21
2.47222E-03 2.96388E-21
2.55965E-03 2.76390E-21
2.64859E-03 2.58048E-21
2.73905E-03 2.41200E-21
2.83103E-03 2.25703E-21
2.92452E-03 2.11429E-21
3.01952E-03 1.98263E-21
3.11604E-03 1.86105E-21
3.21407E-03 1.74863E-21
3.31362E-03 1.64456E-21
3.41468E-03 1.54811E-21
3.51725E-03 1.45861E-21
3.62133E-03 1.37547E-21
3.72692E-03 1.29816E-21
3.83403E-03 1.22620E-21
3.94265E-03 1.15915E-21
4.05278E-03 1.09661E-21
4.16442E-03 1.03822E-21
4.27757E-03 9.83662E-22
4.39223E-03 9.32632E-22
4.50840E-03 8.84862E-22
4.62608E-03 8.40105E-22
4.74527E-03 7.98137E-22
4.86597E-03 7.58751E-22
4.98817E-03 7.21760E-22
5.11188E-03 6.86991E-22
5.23711E-03 6.54286E-22
5.36383E-03 6.23500E-22
5.49207E-03 5.94499E-22
5.62181E-03 5.67162E-22
5.75306E-03 5.41374E-22
5.88581E-03 5.17031E-22
6.02007E-03 4.94039E-22
6.15583E-03 4.72307E-22
6.29310E-03 4.51754E-22
6.43187E-03 4.32305E-22
6.57214E-03 4.13888E-22
6.71392E-03 3.96439E-22
6.85720E-03 3.79898E-22
7.00198E-03 3.64208E-22
7.14827E-03 3.49317E-22
7.29605E-03 3.35178E-22
7.44534E-03 3.21746E-22
7.59612E-03 3.08977E-22
7.97965E-03 2.79714E-22
8.37255E-03 2.53825E-22
8.77480E-03 2.30855E-22
9.18641E-03 2.10419E-22
9.60736E-03 1.92188E-22
1.00376E-02 1.75884E-22
1.04773E-02 1.61268E-22
1.09262E-02 1.48134E-22
1.13844E-02 1.36306E-22
1.18520E-02 1.25632E-22
1.23288E-02 1.15979E-22
1.28150E-02 1.07232E-22
1.33104E-02 9.92919E-23
1.38150E-02 9.20706E-23
1.43290E-02 8.54916E-23
1.48521E-02 7.94877E-23
1.53845E-02 7.39997E-23
1.59262E-02 6.89754E-23
1.64770E-02 6.43687E-23
1.70371E-02 6.01387E-23
1.76063E-02 5.62491E-23
1.81848E-02 5.26676E-23
1.87724E-02 4.93655E-23
1.93692E-02 4.63169E-23
1.99751E-02 4.34991E-23
2.05901E-02 4.08914E-23
2.12143E-02 3.84752E-23
2.18476E-02 3.62341E-23
2.24900E-02 3.41530E-23
2.31415E-02 3.22184E-23
2.38021E-02 3.04182E-23
2.44717E-02 2.87414E-23
2.51504E-02 2.71779E-23
2.58382E-02 2.57188E-23
2.65349E-02 2.43557E-23
2.72407E-02 2.30813E-23
2.79555E-02 2.18887E-23
2.86793E-02 2.07716E-23
2.94120E-02 1.97246E-23
3.01537E-02 1.87422E-23
3.09043E-02 1.78200E-23
3.16639E-02 1.69534E-23
3.24324E-02 1.61385E-23
3.32098E-02 1.53717E-23
3.39961E-02 1.46496E-23
3.47912E-02 1.39692E-23
3.55952E-02 1.33275E-23
3.64081E-02 1.27220E-23
3.72297E-02 1.21503E-23
3.80602E-02 1.16101E-23
3.88995E-02 1.10994E-23
3.97476E-02 1.06163E-23
4.06044E-02 1.01590E-23
4.14700E-02 9.72582E-24
4.23443E-02 9.31535E-24
4.32273E-02 8.92615E-24
4.41190E-02 8.55690E-24
4.50194E-02 8.20641E-24
4.59284E-02 7.87353E-24
4.68461E-02 7.55723E-24
4.87074E-02 6.97050E-24
5.06030E-02 6.43918E-24
5.25328E-02 5.95712E-24
5.44967E-02 5.51896E-24
5.64946E-02 5.12001E-24
5.85262E-02 4.75615E-24
6.05914E-02 4.42375E-24
6.26901E-02 4.11962E-24
6.48222E-02 3.84093E-24
6.69873E-02 3.58518E-24
6.91854E-02 3.35015E-24
7.14163E-02 3.13387E-24
7.36799E-02 2.93458E-24
7.59760E-02 2.75071E-24
7.83043E-02 2.58086E-24
8.06647E-02 2.42376E-24
8.30571E-02 2.27830E-24
8.54812E-02 2.14346E-24
8.79369E-02 2.01832E-24
9.04240E-02 1.90206E-24
9.29422E-02 1.79395E-24
9.54915E-02 1.69331E-24
9.80716E-02 1.59953E-24
1.00682E-01 1.51207E-24
1.03323E-01 1.43042E-24
1.05995E-01 1.35412E-24
1.08696E-01 1.28277E-24
1.11427E-01 1.21598E-24
1.14188E-01 1.15342E-24
1.16978E-01 1.09476E-24
1.19797E-01 1.03973E-24
1.22645E-01 9.88047E-25
1.25522E-01 9.39484E-25
1.28428E-01 8.93816E-25
1.31361E-01 8.50840E-25
1.34323E-01 8.10369E-25
1.37313E-01 7.72230E-25
1.40330E-01 7.36266E-25
1.43375E-01 7.02331E-25
1.46447E-01 6.70288E-25
1.49545E-01 6.40016E-25
1.52671E-01 6.11397E-25
1.55823E-01 5.84326E-25
1.59001E-01 5.58704E-25
1.62205E-01 5.34440E-25
1.65435E-01 5.11449E-25
1.68690E-01 4.89653E-25
1.71970E-01 4.68978E-25
1.75276E-01 4.49356E-25
1.78606E-01 4.30724E-25
1.81961E-01 4.13024E-25
1.85340E-01 3.96200E-25
1.88743E-01 3.80202E-25
1.92169E-01 3.64981E-25
1.95619E-01 3.50494E-25
1.99092E-01 3.36699E-25
2.02589E-01 3.23556E-25
2.06107E-01 3.11029E-25
2.09649E-01 2.99086E-25
2.13212E-01 2.87692E-25
2.16797E-01 2.76820E-25
2.20404E-01 2.66440E-25
2.24032E-01 2.56526E-25
2.27680E-01 2.47054E-25
2.31350E-01 2.38001E-25
2.35040E-01 2.29345E-25
2.38751E-01 2.21065E-25
2.42481E-01 2.13142E-25
2.46231E-01 2.05558E-25
2.50000E-01 1.98296E-25
2.53788E-01 1.91340E-25
2.57595E-01 1.84675E-25
2.61421E-01 1.78286E-25
2.65264E-01 1.72160E-25
2.69126E-01 1.66285E-25
2.73005E-01 1.60648E-25
2.76901E-01 1.55237E-25
2.80814E-01 1.50043E-25
2.84744E-01 1.45055E-25
2.88691E-01 1.40263E-25
2.92653E-01 1.35659E-25
2.96632E-01 1.31233E-25
3.00625E-01 1.26978E-25
3.04634E-01 1.22886E-25
3.08658E-01 1.18949E-25
3.12697E-01 1.15161E-25
3.16749E-01 1.11515E-25
3.20816E-01 1.08005E-25
3.24896E-01 1.04625E-25
3.28990E-01 1.01369E-25
3.33097E-01 9.82316E-26
3.37216E-01 9.52082E-26
3.41348E-01 9.22937E-26
3.45492E-01 8.94836E-26
3.49647E-01 8.67735E-26
3.53814E-01 8.41591E-26
3.57992E-01 8.16366E-26
3.62181E-01 7.92021E-26
3.66381E-01 7.68521E-26
3.70590E-01 7.45831E-26
3.74810E-01 7.23919E-26
3.79039E-01 7.02753E-26
3.83277E-01 6.82304E-26
3.87524E-01 6.62543E-26
3.91780E-01 6.43443E-26
3.96044E-01 6.24979E-26
4.00316E-01 6.07125E-26
4.04596E-01 5.89858E-26
4.08882E-01 5.73155E-26
4.13176E-01 5.56996E-26
4.17476E-01 5.41358E-26
4.21783E-01 5.26224E-26
4.26095E-01 5.11573E-26
4.30413E-01 4.97387E-26
4.34737E-01 4.83650E-26
4.39065E-01 4.70345E-26
4.43398E-01 4.57456E-26
4.47736E-01 4.44968E-26
4.52077E-01 4.32866E-26
4.56422E-01 4.21137E-26
4.60770E-01 4.09767E-26
4.65122E-01 3.98742E-26
4.69476E-01 3.88052E-26
4.73832E-01 3.77684E-26
4.78190E-01 3.67627E-26
4.82550E-01 3.57870E-26
4.86912E-01 3.48403E-26
4.91274E-01 3.39215E-26
4.95637E-01 3.30298E-26
5.00000E-01 3.21641E-26
5.04363E-01 3.13236E-26
5.08726E-01 3.05075E-26
5.13088E-01 2.97149E-26
5.17450E-01 2.89450E-26
5.21810E-01 2.81971E-26
5.26168E-01 2.74705E-26
5.30524E-01 2.67644E-26
5.34878E-01 2.60782E-26
5.39230E-01 2.54113E-26
5.43578E-01 2.47630E-26
5.47923E-01 2.41326E-26
5.52264E-01 2.35197E-26
5.56602E-01 2.29237E-26
5.60935E-01 2.23440E-26
5.65263E-01 2.17801E-26
5.69587E-01 2.12316E-26
5.73905E-01 2.06979E-26
5.78217E-01 2.01786E-26
5.82524E-01 1.96732E-26
5.86824E-01 1.91813E-26
5.91118E-01 1.87025E-26
5.95404E-01 1.82364E-26
5.99684E-01 1.77826E-26
6.03956E-01 1.73407E-26
6.08220E-01 1.69104E-26
6.12476E-01 1.64913E-26
6.16723E-01 1.60831E-26
6.20961E-01 1.56854E-26
6.25190E-01 1.52980E-26
6.29410E-01 1.49205E-26
6.33619E-01 1.45527E-26
6.37819E-01 1.41943E-26
6.42008E-01 1.38449E-26
6.46186E-01 1.35044E-26
6.50353E-01 1.31725E-26
6.54508E-01 1.28489E-26
6.58652E-01 1.25334E-26
6.62784E-01 1.22258E-26
6.66903E-01 1.19258E-26
6.71010E-01 1.16332E-26
6.75104E-01 1.13479E-26
6.79184E-01 1.10695E-26
6.83251E-01 1.07980E-26
6.87303E-01 1.05331E-26
6.91342E-01 1.02747E-26
6.95366E-01 1.00226E-26
6.99375E-01 9.77651E-27
7.03368E-01 9.53639E-27
7.07347E-01 9.30204E-27
7.11309E-01 9.07331E-27
7.15256E-01 8.85004E-27
7.19186E-01 8.63210E-27
7.23099E-01 8.41933E-27
7.26995E-01 8.21161E-27
7.30874E-01 8.00879E-27
7.34736E-01 7.81075E-27
7.38579E-01 7.61736E-27
7.42405E-01 7.42851E-27
7.46212E-01 7.24407E-27
7.50000E-01 7.06394E-27
7.53769E-01 6.88799E-27
7.57519E-01 6.71612E-27
7.61249E-01 6.54823E-27
7.64960E-01 6.38422E-27
7.68650E-01 6.22399E-27
7.72320E-01 6.06744E-27
7.75968E-01 5.91449E-27
7.79596E-01 5.76503E-27
7.83203E-01 5.61899E-27
7.86788E-01 5.47628E-27
7.90351E-01 5.33682E-27
7.93893E-01 5.20053E-27
7.97411E-01 5.06732E-27
8.00908E-01 4.93714E-27
8.04381E-01 4.80989E-27
8.07831E-01 4.68552E-27
8.11257E-01 4.56396E-27
8.14660E-01 4.44513E-27
8.18039E-01 4.32897E-27
8.21394E-01 4.21542E-27
8.24724E-01 4.10441E-27
8.28030E-01 3.99590E-27
8.31310E-01 3.88981E-27
8.34565E-01 3.78610E-27
8.37795E-01 3.68470E-27
8.40999E-01 3.58557E-27
8.44177E-01 3.48865E-27
8.47329E-01 3.39390E-27
8.50455E-01 3.30126E-27
8.53553E-01 3.21069E-27
8.56625E-01 3.12214E-27
8.59670E-01 3.03556E-27
8.62687E-01 2.95091E-27
8.65677E-01 2.86816E-27
8.68639E-01 2.78725E-27
8.71572E-01 2.70815E-27
8.74478E-01 2.63082E-27
8.77355E-01 2.55522E-27
8.80203E-01 2.48131E-27
8.83022E-01 2.40906E-27
8.85812E-01 2.33844E-27
8.88573E-01 2.26940E-27
8.91304E-01 2.20192E-27
8.94005E-01 2.13596E-27
8.96677E-01 2.07149E-27
8.99318E-01 2.00849E-27
9.01928E-01 1.94691E-27
9.04508E-01 1.88674E-27
9.07058E-01 1.82794E-27
9.09576E-01 1.77050E-27
9.12063E-01 1.71437E-27
9.14519E-01 1.65954E-27
9.16943E-01 1.60597E-27
9.19335E-01 1.55366E-27
9.21696E-01 1.50256E-27
9.24024E-01 1.45266E-27
9.26320E-01 1.40394E-27
9.28584E-01 1.35638E-27
9.30815E-01 1.30994E-27
9.33013E-01 1.26462E-27
9.35178E-01 1.22039E-27
9.37310E-01 1.17724E-27
9.39409E-01 1.13513E-27
9.41474E-01 1.09407E-27
9.43505E-01 1.05402E-27
9.45503E-01 1.01497E-27
9.47467E-01 9.76901E-28
9.49397E-01 9.39801E-28
9.51293E-01 9.03651E-28
9.53154E-01 8.68436E-28
9.54981E-01 8.34141E-28
9.56773E-01 8.00751E-28
9.58530E-01 7.68253E-28
9.60252E-01 7.36631E-28
9.61940E-01 7.05874E-28
9.63592E-01 6.75967E-28
9.65209E-01 6.46899E-28
9.66790E-01 6.18657E-28
9.68336E-01 5.91230E-28
9.69846E-01 5.64606E-28
9.71321E-01 5.38773E-28
9.72759E-01 5.13722E-28
9.74162E-01 4.89442E-28
9.75528E-01 4.65923E-28
9.76858E-01 4.43155E-28
9.78152E-01 4.21129E-28
9.79410E-01 3.99836E-28
9.80631E-01 3.79267E-28
9.81815E-01 3.59413E-28
9.82963E-01 3.40268E-28
9.84074E-01 3.21823E-28
9.85148E-01 3.04070E-28
9.86185E-01 2.87002E-28
9.87185E-01 2.70613E-28
9.88148E-01 2.54896E-28
9.89074E-01 2.39845E-28
9.89962E-01 2.25452E-28
9.90814E-01 2.11714E-28
9.91627E-01 1.98624E-28
9.92404E-01 1.86177E-28
9.93143E-01 1.74368E-28
9.93844E-01 1.63193E-28
9.94508E-01 1.52646E-28
9.95134E-01 1.42724E-28
9.95722E-01 1.33423E-28
9.96273E-01 1.24739E-28
9.96786E-01 1.16669E-28
9.97261E-01 1.09209E-28
9.97698E-01 1.02357E-28
9.98097E-01 9.61097E-29
9.98459E-01 9.04647E-29
9.98782E-01 8.54199E-29
9.99067E-01 8.09733E-29
9.99315E-01 7.71231E-29
9.99524E-01 7.38677E-29
9.99695E-01 7.12060E-29
9.99829E-01 6.91369E-29
9.99924E-01 6.76595E-29
9.99981E-01 6.67733E-29
1.00000E+00 6.64784E-29
