 #
 # Subroutine ELSEPA. Elastic scattering of electrons and positrons
 #                    by neutral atoms and positive ions
 #
 # Projectile: positron
 # Kinetic energy = 7.00000E+07 eV = 2.57245E+06 a.u.
 #
 # WARNING: High-energy factorization with free-atom DF screening.
 #          Absorption, polarization and exchange corrections are
 #          switched off.
 #          Phase shifts are calculated for the bare nucleus.
 #          Scattering amplitudes are not evaluated.
 #
 # Element:  S,  Z =  16,  atomic weight = 3.20660E+01 g/mol
 #
 # Nuclear model: Fermi distribution
 #                Average radius = 3.39937E-13 cm
 #                Skin thickness = 5.46000E-14 cm
 #
 # Number of electrons = 16
 #
 # Total elastic cross section = 1.04608E-18 cm**2 = 3.73562E-02 a0**2
 # 1st transport cross section = 1.06157E-25 cm**2 = 3.79093E-09 a0**2
 # 2nd transport cross section = 3.12722E-25 cm**2 = 1.11675E-08 a0**2
 #
 #
 # Differential cross section:                       MU=(1-COS(THETA))/2
 #
 #  THETA        MU          DCS          DCS        Sherman      error
 #  (deg)                 (cm**2/sr)   (a0**2/sr)    function
 #----------------------------------------------------------------------
0.00000E+00 5.06495E-11
7.61557E-13 5.06037E-11
1.18994E-12 5.05782E-11
1.71346E-12 5.05471E-11
2.33225E-12 5.05104E-11
3.04617E-12 5.04682E-11
3.85530E-12 5.04203E-11
4.75964E-12 5.03670E-11
5.75917E-12 5.03081E-11
6.85391E-12 5.02438E-11
8.04379E-12 5.01739E-11
9.32893E-12 5.00988E-11
1.07092E-11 5.00181E-11
1.21847E-11 4.99322E-11
1.37554E-11 4.98409E-11
1.54213E-11 4.97445E-11
1.71823E-11 4.96426E-11
1.90386E-11 4.95358E-11
2.09900E-11 4.94236E-11
2.30367E-11 4.93067E-11
2.51785E-11 4.91844E-11
2.74156E-11 4.90574E-11
2.97478E-11 4.89252E-11
3.21752E-11 4.87885E-11
3.46979E-11 4.86466E-11
3.73157E-11 4.85004E-11
4.00286E-11 4.83491E-11
4.28368E-11 4.81936E-11
4.57402E-11 4.80332E-11
4.87388E-11 4.78687E-11
5.18325E-11 4.76994E-11
5.50215E-11 4.75262E-11
5.83057E-11 4.73484E-11
6.16850E-11 4.71667E-11
6.51595E-11 4.69806E-11
6.87293E-11 4.67908E-11
7.23943E-11 4.65967E-11
7.61544E-11 4.63991E-11
1.18991E-10 4.42266E-11
1.71347E-10 4.17601E-11
2.33223E-10 3.90867E-11
3.04617E-10 3.62909E-11
3.85531E-10 3.33352E-11
4.75965E-10 3.06151E-11
5.75917E-10 2.77876E-11
6.85389E-10 2.52508E-11
8.04380E-10 2.27148E-11
9.32891E-10 2.04782E-11
1.07092E-09 1.83126E-11
1.21847E-09 1.64204E-11
1.37554E-09 1.46345E-11
1.54213E-09 1.30810E-11
1.71823E-09 1.16436E-11
1.90386E-09 1.03950E-11
2.09900E-09 9.25677E-12
2.30367E-09 8.26737E-12
2.51785E-09 7.37511E-12
2.74156E-09 6.59800E-12
2.97478E-09 5.90228E-12
3.21752E-09 5.29462E-12
3.46978E-09 4.75305E-12
3.73156E-09 4.27841E-12
4.00286E-09 3.85634E-12
4.28368E-09 3.48501E-12
4.57402E-09 3.15495E-12
4.87388E-09 2.86340E-12
5.18326E-09 2.60398E-12
5.50215E-09 2.37387E-12
5.83057E-09 2.16869E-12
6.16850E-09 1.98591E-12
6.51596E-09 1.82245E-12
6.87293E-09 1.67621E-12
7.23942E-09 1.54497E-12
7.61544E-09 1.42705E-12
1.18991E-08 7.14379E-13
1.71347E-08 4.11282E-13
2.33223E-08 2.57985E-13
3.04617E-08 1.70583E-13
3.85531E-08 1.16728E-13
4.75965E-08 8.20559E-14
5.75917E-08 5.90200E-14
6.85389E-08 4.33063E-14
8.04380E-08 3.23339E-14
9.32891E-08 2.45396E-14
1.07092E-07 1.89204E-14
1.21847E-07 1.48012E-14
1.37554E-07 1.17336E-14
1.54213E-07 9.41587E-15
1.71823E-07 7.64267E-15
1.90386E-07 6.26855E-15
2.09900E-07 5.19089E-15
2.30367E-07 4.33618E-15
2.51785E-07 3.65156E-15
2.74156E-07 3.09790E-15
2.97478E-07 2.64615E-15
3.21752E-07 2.27442E-15
3.46978E-07 1.96626E-15
3.73156E-07 1.70899E-15
4.00286E-07 1.49278E-15
4.28368E-07 1.30990E-15
4.57402E-07 1.15437E-15
4.87388E-07 1.02139E-15
5.18325E-07 9.07119E-16
5.50215E-07 8.08444E-16
5.83057E-07 7.22873E-16
6.16850E-07 6.48368E-16
6.51596E-07 5.83245E-16
6.87293E-07 5.26105E-16
7.23942E-07 4.75797E-16
7.61543E-07 4.31367E-16
1.18991E-06 1.81113E-16
1.71347E-06 8.86234E-17
2.33223E-06 4.82521E-17
3.04617E-06 2.84336E-17
3.85531E-06 1.78094E-17
4.75964E-06 1.17096E-17
5.75916E-06 8.00910E-18
6.85388E-06 5.66034E-18
8.04378E-06 4.11223E-18
9.32888E-06 3.05870E-18
1.07092E-05 2.32178E-18
1.21846E-05 1.79392E-18
1.37553E-05 1.40784E-18
1.54212E-05 1.12022E-18
1.71822E-05 9.02422E-19
1.90385E-05 7.35083E-19
2.09899E-05 6.04782E-19
2.30365E-05 5.02094E-19
2.51783E-05 4.20288E-19
2.74153E-05 3.54478E-19
2.97475E-05 3.01057E-19
3.21749E-05 2.57327E-19
3.46974E-05 2.21256E-19
3.73152E-05 1.91291E-19
4.00281E-05 1.66231E-19
4.28362E-05 1.45142E-19
4.57395E-05 1.27292E-19
4.87380E-05 1.12103E-19
5.18317E-05 9.91112E-20
5.50205E-05 8.79478E-20
5.83045E-05 7.83128E-20
6.16838E-05 6.99620E-20
6.51582E-05 6.26954E-20
6.87277E-05 5.63482E-20
7.23925E-05 5.07842E-20
7.61524E-05 4.58868E-20
9.21439E-05 3.13310E-20
1.09658E-04 2.21150E-20
1.28695E-04 1.60510E-20
1.49255E-04 1.19295E-20
1.71338E-04 9.04967E-21
1.94942E-04 6.98835E-21
2.20070E-04 5.48176E-21
2.46720E-04 4.35997E-21
2.74892E-04 3.51088E-21
3.04586E-04 2.85869E-21
3.35803E-04 2.35107E-21
3.68542E-04 1.95123E-21
4.02802E-04 1.63283E-21
4.38585E-04 1.37676E-21
4.75889E-04 1.16895E-21
5.14715E-04 9.98882E-22
5.55063E-04 8.58625E-22
5.96931E-04 7.42122E-22
6.40321E-04 6.44710E-22
6.85233E-04 5.62754E-22
7.31665E-04 4.93405E-22
7.79618E-04 4.34407E-22
8.29092E-04 3.83960E-22
8.80086E-04 3.40620E-22
9.32601E-04 3.03219E-22
9.86636E-04 2.70807E-22
1.04219E-03 2.42608E-22
1.09927E-03 2.17980E-22
1.15786E-03 1.96396E-22
1.21797E-03 1.77415E-22
1.27961E-03 1.60669E-22
1.34276E-03 1.45850E-22
1.40743E-03 1.32698E-22
1.47362E-03 1.20994E-22
1.54133E-03 1.10550E-22
1.61056E-03 1.01206E-22
1.68131E-03 9.28282E-23
1.75357E-03 8.52976E-23
1.82735E-03 7.85140E-23
1.90265E-03 7.23903E-23
1.97947E-03 6.68509E-23
2.05780E-03 6.18303E-23
2.13765E-03 5.72713E-23
2.21902E-03 5.31239E-23
2.30190E-03 4.93444E-23
2.38630E-03 4.58944E-23
2.47222E-03 4.27399E-23
2.55965E-03 3.98513E-23
2.64859E-03 3.72020E-23
2.73905E-03 3.47686E-23
2.83103E-03 3.25305E-23
2.92452E-03 3.04691E-23
3.01952E-03 2.85680E-23
3.11604E-03 2.68125E-23
3.21407E-03 2.51894E-23
3.31362E-03 2.36869E-23
3.41468E-03 2.22944E-23
3.51725E-03 2.10025E-23
3.62133E-03 1.98025E-23
3.72692E-03 1.86867E-23
3.83403E-03 1.76481E-23
3.94265E-03 1.66805E-23
4.05278E-03 1.57780E-23
4.16442E-03 1.49356E-23
4.27757E-03 1.41484E-23
4.39223E-03 1.34122E-23
4.50840E-03 1.27231E-23
4.62608E-03 1.20775E-23
4.74527E-03 1.14722E-23
4.86597E-03 1.09042E-23
4.98817E-03 1.03708E-23
5.11188E-03 9.86943E-24
5.23711E-03 9.39789E-24
5.36383E-03 8.95405E-24
5.49207E-03 8.53600E-24
5.62181E-03 8.14195E-24
5.75306E-03 7.77027E-24
5.88581E-03 7.41946E-24
6.02007E-03 7.08813E-24
6.15583E-03 6.77501E-24
6.29310E-03 6.47890E-24
6.43187E-03 6.19871E-24
6.57214E-03 5.93342E-24
6.71392E-03 5.68211E-24
6.85720E-03 5.44389E-24
7.00198E-03 5.21795E-24
7.14827E-03 5.00355E-24
7.29605E-03 4.79999E-24
7.44534E-03 4.60662E-24
7.59612E-03 4.42283E-24
7.97965E-03 4.00169E-24
8.37255E-03 3.62923E-24
8.77480E-03 3.29885E-24
9.18641E-03 3.00500E-24
9.60736E-03 2.74295E-24
1.00376E-02 2.50866E-24
1.04773E-02 2.29869E-24
1.09262E-02 2.11008E-24
1.13844E-02 1.94028E-24
1.18520E-02 1.78709E-24
1.23288E-02 1.64861E-24
1.28150E-02 1.52318E-24
1.33104E-02 1.40935E-24
1.38150E-02 1.30587E-24
1.43290E-02 1.21162E-24
1.48521E-02 1.12565E-24
1.53845E-02 1.04710E-24
1.59262E-02 9.75215E-25
1.64770E-02 9.09331E-25
1.70371E-02 8.48860E-25
1.76063E-02 7.93278E-25
1.81848E-02 7.42122E-25
1.87724E-02 6.94977E-25
1.93692E-02 6.51473E-25
1.99751E-02 6.11279E-25
2.05901E-02 5.74100E-25
2.12143E-02 5.39668E-25
2.18476E-02 5.07746E-25
2.24900E-02 4.78118E-25
2.31415E-02 4.50591E-25
2.38021E-02 4.24988E-25
2.44717E-02 4.01152E-25
2.51504E-02 3.78939E-25
2.58382E-02 3.58220E-25
2.65349E-02 3.38875E-25
2.72407E-02 3.20798E-25
2.79555E-02 3.03891E-25
2.86793E-02 2.88065E-25
2.94120E-02 2.73238E-25
3.01537E-02 2.59337E-25
3.09043E-02 2.46292E-25
3.16639E-02 2.34043E-25
3.24324E-02 2.22532E-25
3.32098E-02 2.11707E-25
3.39961E-02 2.01519E-25
3.47912E-02 1.91925E-25
3.55952E-02 1.82883E-25
3.64081E-02 1.74357E-25
3.72297E-02 1.66311E-25
3.80602E-02 1.58715E-25
3.88995E-02 1.51538E-25
3.97476E-02 1.44753E-25
4.06044E-02 1.38335E-25
4.14700E-02 1.32260E-25
4.23443E-02 1.26508E-25
4.32273E-02 1.21057E-25
4.41190E-02 1.15890E-25
4.50194E-02 1.10989E-25
4.59284E-02 1.06338E-25
4.68461E-02 1.01921E-25
4.87074E-02 9.37386E-26
5.06030E-02 8.63400E-26
5.25328E-02 7.96381E-26
5.44967E-02 7.35565E-26
5.64946E-02 6.80283E-26
5.85262E-02 6.29949E-26
6.05914E-02 5.84047E-26
6.26901E-02 5.42124E-26
6.48222E-02 5.03777E-26
6.69873E-02 4.68651E-26
6.91854E-02 4.36433E-26
7.14163E-02 4.06841E-26
7.36799E-02 3.79627E-26
7.59760E-02 3.54568E-26
7.83043E-02 3.31467E-26
8.06647E-02 3.10145E-26
8.30571E-02 2.90444E-26
8.54812E-02 2.72220E-26
8.79369E-02 2.55344E-26
9.04240E-02 2.39701E-26
9.29422E-02 2.25187E-26
9.54915E-02 2.11706E-26
9.80716E-02 1.99175E-26
1.00682E-01 1.87514E-26
1.03323E-01 1.76654E-26
1.05995E-01 1.66531E-26
1.08696E-01 1.57088E-26
1.11427E-01 1.48272E-26
1.14188E-01 1.40033E-26
1.16978E-01 1.32330E-26
1.19797E-01 1.25121E-26
1.22645E-01 1.18370E-26
1.25522E-01 1.12043E-26
1.28428E-01 1.06109E-26
1.31361E-01 1.00541E-26
1.34323E-01 9.53125E-27
1.37313E-01 9.03993E-27
1.40330E-01 8.57796E-27
1.43375E-01 8.14333E-27
1.46447E-01 7.73417E-27
1.49545E-01 7.34878E-27
1.52671E-01 6.98556E-27
1.55823E-01 6.64305E-27
1.59001E-01 6.31990E-27
1.62205E-01 6.01484E-27
1.65435E-01 5.72672E-27
1.68690E-01 5.45446E-27
1.71970E-01 5.19705E-27
1.75276E-01 4.95358E-27
1.78606E-01 4.72318E-27
1.81961E-01 4.50504E-27
1.85340E-01 4.29842E-27
1.88743E-01 4.10262E-27
1.92169E-01 3.91701E-27
1.95619E-01 3.74097E-27
1.99092E-01 3.57394E-27
2.02589E-01 3.41539E-27
2.06107E-01 3.26484E-27
2.09649E-01 3.12183E-27
2.13212E-01 2.98593E-27
2.16797E-01 2.85673E-27
2.20404E-01 2.73386E-27
2.24032E-01 2.61697E-27
2.27680E-01 2.50573E-27
2.31350E-01 2.39983E-27
2.35040E-01 2.29898E-27
2.38751E-01 2.20290E-27
2.42481E-01 2.11135E-27
2.46231E-01 2.02407E-27
2.50000E-01 1.94085E-27
2.53788E-01 1.86147E-27
2.57595E-01 1.78574E-27
2.61421E-01 1.71345E-27
2.65264E-01 1.64445E-27
2.69126E-01 1.57855E-27
2.73005E-01 1.51560E-27
2.76901E-01 1.45546E-27
2.80814E-01 1.39797E-27
2.84744E-01 1.34302E-27
2.88691E-01 1.29048E-27
2.92653E-01 1.24022E-27
2.96632E-01 1.19213E-27
3.00625E-01 1.14612E-27
3.04634E-01 1.10208E-27
3.08658E-01 1.05991E-27
3.12697E-01 1.01953E-27
3.16749E-01 9.80854E-28
3.20816E-01 9.43799E-28
3.24896E-01 9.08291E-28
3.28990E-01 8.74257E-28
3.33097E-01 8.41629E-28
3.37216E-01 8.10343E-28
3.41348E-01 7.80337E-28
3.45492E-01 7.51553E-28
3.49647E-01 7.23936E-28
3.53814E-01 6.97433E-28
3.57992E-01 6.71995E-28
3.62181E-01 6.47574E-28
3.66381E-01 6.24124E-28
3.70590E-01 6.01604E-28
3.74810E-01 5.79973E-28
3.79039E-01 5.59191E-28
3.83277E-01 5.39222E-28
3.87524E-01 5.20031E-28
3.91780E-01 5.01584E-28
3.96044E-01 4.83849E-28
4.00316E-01 4.66797E-28
4.04596E-01 4.50398E-28
4.08882E-01 4.34624E-28
4.13176E-01 4.19451E-28
4.17476E-01 4.04851E-28
4.21783E-01 3.90802E-28
4.26095E-01 3.77281E-28
4.30413E-01 3.64266E-28
4.34737E-01 3.51736E-28
4.39065E-01 3.39672E-28
4.43398E-01 3.28053E-28
4.47736E-01 3.16864E-28
4.52077E-01 3.06085E-28
4.56422E-01 2.95701E-28
4.60770E-01 2.85696E-28
4.65122E-01 2.76055E-28
4.69476E-01 2.66763E-28
4.73832E-01 2.57806E-28
4.78190E-01 2.49171E-28
4.82550E-01 2.40847E-28
4.86912E-01 2.32820E-28
4.91274E-01 2.25078E-28
4.95637E-01 2.17612E-28
5.00000E-01 2.10410E-28
5.04363E-01 2.03462E-28
5.08726E-01 1.96759E-28
5.13088E-01 1.90290E-28
5.17450E-01 1.84048E-28
5.21810E-01 1.78023E-28
5.26168E-01 1.72208E-28
5.30524E-01 1.66594E-28
5.34878E-01 1.61174E-28
5.39230E-01 1.55940E-28
5.43578E-01 1.50886E-28
5.47923E-01 1.46006E-28
5.52264E-01 1.41292E-28
5.56602E-01 1.36738E-28
5.60935E-01 1.32339E-28
5.65263E-01 1.28089E-28
5.69587E-01 1.23982E-28
5.73905E-01 1.20014E-28
5.78217E-01 1.16179E-28
5.82524E-01 1.12472E-28
5.86824E-01 1.08889E-28
5.91118E-01 1.05426E-28
5.95404E-01 1.02077E-28
5.99684E-01 9.88401E-29
6.03956E-01 9.57097E-29
6.08220E-01 9.26825E-29
6.12476E-01 8.97549E-29
6.16723E-01 8.69234E-29
6.20961E-01 8.41845E-29
6.25190E-01 8.15351E-29
6.29410E-01 7.89720E-29
6.33619E-01 7.64921E-29
6.37819E-01 7.40927E-29
6.42008E-01 7.17708E-29
6.46186E-01 6.95239E-29
6.50353E-01 6.73493E-29
6.54508E-01 6.52446E-29
6.58652E-01 6.32073E-29
6.62784E-01 6.12352E-29
6.66903E-01 5.93259E-29
6.71010E-01 5.74775E-29
6.75104E-01 5.56878E-29
6.79184E-01 5.39548E-29
6.83251E-01 5.22766E-29
6.87303E-01 5.06514E-29
6.91342E-01 4.90773E-29
6.95366E-01 4.75528E-29
6.99375E-01 4.60761E-29
7.03368E-01 4.46455E-29
7.07347E-01 4.32597E-29
7.11309E-01 4.19171E-29
7.15256E-01 4.06163E-29
7.19186E-01 3.93559E-29
7.23099E-01 3.81345E-29
7.26995E-01 3.69509E-29
7.30874E-01 3.58039E-29
7.34736E-01 3.46922E-29
7.38579E-01 3.36148E-29
7.42405E-01 3.25704E-29
7.46212E-01 3.15580E-29
7.50000E-01 3.05766E-29
7.53769E-01 2.96252E-29
7.57519E-01 2.87028E-29
7.61249E-01 2.78084E-29
7.64960E-01 2.69413E-29
7.68650E-01 2.61004E-29
7.72320E-01 2.52850E-29
7.75968E-01 2.44943E-29
7.79596E-01 2.37275E-29
7.83203E-01 2.29837E-29
7.86788E-01 2.22624E-29
7.90351E-01 2.15627E-29
7.93893E-01 2.08840E-29
7.97411E-01 2.02257E-29
8.00908E-01 1.95870E-29
8.04381E-01 1.89674E-29
8.07831E-01 1.83663E-29
8.11257E-01 1.77832E-29
8.14660E-01 1.72174E-29
8.18039E-01 1.66684E-29
8.21394E-01 1.61356E-29
8.24724E-01 1.56187E-29
8.28030E-01 1.51171E-29
8.31310E-01 1.46304E-29
8.34565E-01 1.41580E-29
8.37795E-01 1.36995E-29
8.40999E-01 1.32546E-29
8.44177E-01 1.28228E-29
8.47329E-01 1.24037E-29
8.50455E-01 1.19969E-29
8.53553E-01 1.16021E-29
8.56625E-01 1.12188E-29
8.59670E-01 1.08468E-29
8.62687E-01 1.04858E-29
8.65677E-01 1.01352E-29
8.68639E-01 9.79501E-30
8.71572E-01 9.46474E-30
8.74478E-01 9.14413E-30
8.77355E-01 8.83290E-30
8.80203E-01 8.53077E-30
8.83022E-01 8.23748E-30
8.85812E-01 7.95277E-30
8.88573E-01 7.67639E-30
8.91304E-01 7.40809E-30
8.94005E-01 7.14763E-30
8.96677E-01 6.89480E-30
8.99318E-01 6.64937E-30
9.01928E-01 6.41113E-30
9.04508E-01 6.17987E-30
9.07058E-01 5.95540E-30
9.09576E-01 5.73752E-30
9.12063E-01 5.52604E-30
9.14519E-01 5.32078E-30
9.16943E-01 5.12157E-30
9.19335E-01 4.92824E-30
9.21696E-01 4.74062E-30
9.24024E-01 4.55856E-30
9.26320E-01 4.38190E-30
9.28584E-01 4.21049E-30
9.30815E-01 4.04420E-30
9.33013E-01 3.88287E-30
9.35178E-01 3.72638E-30
9.37310E-01 3.57459E-30
9.39409E-01 3.42738E-30
9.41474E-01 3.28463E-30
9.43505E-01 3.14622E-30
9.45503E-01 3.01203E-30
9.47467E-01 2.88195E-30
9.49397E-01 2.75588E-30
9.51293E-01 2.63372E-30
9.53154E-01 2.51536E-30
9.54981E-01 2.40071E-30
9.56773E-01 2.28967E-30
9.58530E-01 2.18215E-30
9.60252E-01 2.07807E-30
9.61940E-01 1.97735E-30
9.63592E-01 1.87989E-30
9.65209E-01 1.78563E-30
9.66790E-01 1.69448E-30
9.68336E-01 1.60638E-30
9.69846E-01 1.52125E-30
9.71321E-01 1.43903E-30
9.72759E-01 1.35964E-30
9.74162E-01 1.28303E-30
9.75528E-01 1.20914E-30
9.76858E-01 1.13790E-30
9.78152E-01 1.06926E-30
9.79410E-01 1.00317E-30
9.80631E-01 9.39571E-31
9.81815E-01 8.78415E-31
9.82963E-01 8.19654E-31
9.84074E-01 7.63242E-31
9.85148E-01 7.09134E-31
9.86185E-01 6.57288E-31
9.87185E-01 6.07664E-31
9.88148E-01 5.60222E-31
9.89074E-01 5.14925E-31
9.89962E-01 4.71738E-31
9.90814E-01 4.30628E-31
9.91627E-01 3.91562E-31
9.92404E-01 3.54511E-31
9.93143E-01 3.19444E-31
9.93844E-01 2.86335E-31
9.94508E-01 2.55158E-31
9.95134E-01 2.25890E-31
9.95722E-01 1.98507E-31
9.96273E-01 1.72988E-31
9.96786E-01 1.49313E-31
9.97261E-01 1.27465E-31
9.97698E-01 1.07426E-31
9.98097E-01 8.91811E-32
9.98459E-01 7.27158E-32
9.98782E-01 5.80175E-32
9.99067E-01 4.50749E-32
9.99315E-01 3.38781E-32
9.99524E-01 2.44184E-32
9.99695E-01 1.66886E-32
9.99829E-01 1.06827E-32
9.99924E-01 6.39600E-33
9.99981E-01 3.82527E-33
1.00000E+00 2.96902E-33
