 #
 # Subroutine ELSEPA. Elastic scattering of electrons and positrons
 #                    by neutral atoms and positive ions
 #
 # Projectile: positron
 # Kinetic energy = 3.50000E+08 eV = 1.28623E+07 a.u.
 #
 # WARNING: High-energy factorization with free-atom DF screening.
 #          Absorption, polarization and exchange corrections are
 #          switched off.
 #          Phase shifts are calculated for the bare nucleus.
 #          Scattering amplitudes are not evaluated.
 #
 # Element:  S,  Z =  16,  atomic weight = 3.20660E+01 g/mol
 #
 # Nuclear model: Fermi distribution
 #                Average radius = 3.39937E-13 cm
 #                Skin thickness = 5.46000E-14 cm
 #
 # Number of electrons = 16
 #
 # Total elastic cross section = 1.04495E-18 cm**2 = 3.73159E-02 a0**2
 # 1st transport cross section = 4.46268E-27 cm**2 = 1.59365E-10 a0**2
 # 2nd transport cross section = 1.33714E-26 cm**2 = 4.77502E-10 a0**2
 #
 #
 # Differential cross section:                       MU=(1-COS(THETA))/2
 #
 #  THETA        MU          DCS          DCS        Sherman      error
 #  (deg)                 (cm**2/sr)   (a0**2/sr)    function
 #----------------------------------------------------------------------
0.00000E+00 1.25160E-09
7.61557E-13 1.22439E-09
1.18994E-12 1.20947E-09
1.71346E-12 1.19159E-09
2.33225E-12 1.17092E-09
3.04617E-12 1.14770E-09
3.85530E-12 1.12216E-09
4.75964E-12 1.09454E-09
5.75917E-12 1.06513E-09
6.85391E-12 1.03414E-09
8.04379E-12 1.00191E-09
9.32893E-12 9.68610E-10
1.07092E-11 9.34598E-10
1.21847E-11 9.00014E-10
1.37554E-11 8.63367E-10
1.54213E-11 8.27419E-10
1.71823E-11 7.93020E-10
1.90386E-11 7.60233E-10
2.09900E-11 7.25325E-10
2.30367E-11 6.90913E-10
2.51785E-11 6.58513E-10
2.74156E-11 6.28067E-10
2.97478E-11 5.96610E-10
3.21752E-11 5.65779E-10
3.46979E-11 5.37023E-10
3.73157E-11 5.10222E-10
4.00286E-11 4.83246E-10
4.28368E-11 4.56914E-10
4.57402E-11 4.32478E-10
4.87388E-11 4.09799E-10
5.18325E-11 3.87459E-10
5.50215E-11 3.65731E-10
5.83057E-11 3.45610E-10
6.16850E-11 3.26969E-10
6.51595E-11 3.08912E-10
6.87293E-11 2.91411E-10
7.23943E-11 2.75209E-10
7.61544E-11 2.60199E-10
1.18991E-10 1.48204E-10
1.71347E-10 8.76229E-11
2.33223E-10 5.45702E-11
3.04617E-10 3.59100E-11
3.85531E-10 2.48596E-11
4.75965E-10 1.79684E-11
5.75917E-10 1.34482E-11
6.85389E-10 1.03420E-11
8.04380E-10 8.12545E-12
9.32891E-10 6.48874E-12
1.07092E-09 5.25107E-12
1.21847E-09 4.29298E-12
1.37554E-09 3.53319E-12
1.54213E-09 2.94097E-12
1.71823E-09 2.45770E-12
1.90386E-09 2.06838E-12
2.09900E-09 1.75183E-12
2.30367E-09 1.48839E-12
2.51785E-09 1.27273E-12
2.74156E-09 1.09258E-12
2.97478E-09 9.42091E-13
3.21752E-09 8.16459E-13
3.46978E-09 7.09702E-13
3.73156E-09 6.19783E-13
4.00286E-09 5.43328E-13
4.28368E-09 4.77949E-13
4.57402E-09 4.22099E-13
4.87388E-09 3.73946E-13
5.18326E-09 3.32432E-13
5.50215E-09 2.96501E-13
5.83057E-09 2.65209E-13
6.16850E-09 2.37957E-13
6.51596E-09 2.14097E-13
6.87293E-09 1.93151E-13
7.23942E-09 1.74719E-13
7.61544E-09 1.58425E-13
1.18991E-08 6.68760E-14
1.71347E-08 3.31058E-14
2.33223E-08 1.82706E-14
3.04617E-08 1.09039E-14
3.85531E-08 6.90379E-15
4.75965E-08 4.57915E-15
5.75917E-08 3.15390E-15
6.85389E-08 2.24123E-15
8.04380E-08 1.63528E-15
9.32891E-08 1.22047E-15
1.07092E-07 9.28934E-16
1.21847E-07 7.19289E-16
1.37554E-07 5.65470E-16
1.54213E-07 4.50579E-16
1.71823E-07 3.63397E-16
1.90386E-07 2.96284E-16
2.09900E-07 2.43953E-16
2.30367E-07 2.02668E-16
2.51785E-07 1.69749E-16
2.74156E-07 1.43245E-16
2.97478E-07 1.21712E-16
3.21752E-07 1.04075E-16
3.46978E-07 8.95173E-17
3.73156E-07 7.74167E-17
4.00286E-07 6.72922E-17
4.28368E-07 5.87691E-17
4.57402E-07 5.15530E-17
4.87388E-07 4.54108E-17
5.18325E-07 4.01563E-17
5.50215E-07 3.56400E-17
5.83057E-07 3.17410E-17
6.16850E-07 2.83606E-17
6.51596E-07 2.54185E-17
6.87293E-07 2.28480E-17
7.23942E-07 2.05943E-17
7.61543E-07 1.86117E-17
1.18991E-06 7.62533E-18
1.71347E-06 3.67718E-18
2.33223E-06 1.98472E-18
3.04617E-06 1.16332E-18
3.85531E-06 7.26206E-19
4.75964E-06 4.76429E-19
5.75916E-06 3.25384E-19
6.85388E-06 2.29726E-19
8.04378E-06 1.66774E-19
9.32888E-06 1.23982E-19
1.07092E-05 9.40746E-20
1.21846E-05 7.26650E-20
1.37553E-05 5.70134E-20
1.54212E-05 4.53576E-20
1.71822E-05 3.65337E-20
1.90385E-05 2.97558E-20
2.09899E-05 2.44790E-20
2.30365E-05 2.03211E-20
2.51783E-05 1.70091E-20
2.74153E-05 1.43450E-20
2.97475E-05 1.21826E-20
3.21749E-05 1.04129E-20
3.46974E-05 8.95320E-21
3.73152E-05 7.74063E-21
4.00281E-05 6.72656E-21
4.28362E-05 5.87319E-21
4.57395E-05 5.15089E-21
4.87380E-05 4.53622E-21
5.18317E-05 4.01052E-21
5.50205E-05 3.55879E-21
5.83045E-05 3.16891E-21
6.16838E-05 2.83099E-21
6.51582E-05 2.53695E-21
6.87277E-05 2.28011E-21
7.23925E-05 2.05496E-21
7.61524E-05 1.85223E-21
9.21439E-05 1.26396E-21
1.09658E-04 8.91601E-22
1.28695E-04 6.46670E-22
1.49255E-04 4.80257E-22
1.71338E-04 3.64022E-22
1.94942E-04 2.80857E-22
2.20070E-04 2.20099E-22
2.46720E-04 1.74881E-22
2.74892E-04 1.40672E-22
3.04586E-04 1.14410E-22
3.35803E-04 9.39800E-23
3.68542E-04 7.78979E-23
4.02802E-04 6.50995E-23
4.38585E-04 5.48137E-23
4.75889E-04 4.64718E-23
5.14715E-04 3.96499E-23
5.55063E-04 3.40281E-23
5.96931E-04 2.93621E-23
6.40321E-04 2.54640E-23
6.85233E-04 2.21871E-23
7.31665E-04 1.94168E-23
7.79618E-04 1.70622E-23
8.29092E-04 1.50508E-23
8.80086E-04 1.33245E-23
9.32601E-04 1.18363E-23
9.86636E-04 1.05480E-23
1.04219E-03 9.42834E-24
1.09927E-03 8.45162E-24
1.15786E-03 7.59660E-24
1.21797E-03 6.84559E-24
1.27961E-03 6.18385E-24
1.34276E-03 5.59901E-24
1.40743E-03 5.08064E-24
1.47362E-03 4.61994E-24
1.54133E-03 4.20941E-24
1.61056E-03 3.84269E-24
1.68131E-03 3.51431E-24
1.75357E-03 3.21960E-24
1.82735E-03 2.95453E-24
1.90265E-03 2.71562E-24
1.97947E-03 2.49985E-24
2.05780E-03 2.30461E-24
2.13765E-03 2.12762E-24
2.21902E-03 1.96688E-24
2.30190E-03 1.82066E-24
2.38630E-03 1.68743E-24
2.47222E-03 1.56583E-24
2.55965E-03 1.45468E-24
2.64859E-03 1.35294E-24
2.73905E-03 1.25968E-24
2.83103E-03 1.17406E-24
2.92452E-03 1.09537E-24
3.01952E-03 1.02294E-24
3.11604E-03 9.56205E-25
3.21407E-03 8.94632E-25
3.31362E-03 8.37759E-25
3.41468E-03 7.85167E-25
3.51725E-03 7.36483E-25
3.62133E-03 6.91366E-25
3.72692E-03 6.49515E-25
3.83403E-03 6.10652E-25
3.94265E-03 5.74531E-25
4.05278E-03 5.40927E-25
4.16442E-03 5.09635E-25
4.27757E-03 4.80470E-25
4.39223E-03 4.53265E-25
4.50840E-03 4.27868E-25
4.62608E-03 4.04137E-25
4.74527E-03 3.81948E-25
4.86597E-03 3.61183E-25
4.98817E-03 3.41736E-25
5.11188E-03 3.23512E-25
5.23711E-03 3.06420E-25
5.36383E-03 2.90379E-25
5.49207E-03 2.75315E-25
5.62181E-03 2.61159E-25
5.75306E-03 2.47847E-25
5.88581E-03 2.35321E-25
6.02007E-03 2.23529E-25
6.15583E-03 2.12420E-25
6.29310E-03 2.01948E-25
6.43187E-03 1.92072E-25
6.57214E-03 1.82752E-25
6.71392E-03 1.73953E-25
6.85720E-03 1.65641E-25
7.00198E-03 1.57785E-25
7.14827E-03 1.50356E-25
7.29605E-03 1.43328E-25
7.44534E-03 1.36675E-25
7.59612E-03 1.30375E-25
7.97965E-03 1.16032E-25
8.37255E-03 1.03468E-25
8.77480E-03 9.24319E-26
9.18641E-03 8.27153E-26
9.60736E-03 7.41403E-26
1.00376E-02 6.65559E-26
1.04773E-02 5.98337E-26
1.09262E-02 5.38638E-26
1.13844E-02 4.85519E-26
1.18520E-02 4.38171E-26
1.23288E-02 3.95894E-26
1.28150E-02 3.58084E-26
1.33104E-02 3.24217E-26
1.38150E-02 2.93837E-26
1.43290E-02 2.66548E-26
1.48521E-02 2.42001E-26
1.53845E-02 2.19894E-26
1.59262E-02 1.99960E-26
1.64770E-02 1.81964E-26
1.70371E-02 1.65701E-26
1.76063E-02 1.50989E-26
1.81848E-02 1.37666E-26
1.87724E-02 1.25589E-26
1.93692E-02 1.14633E-26
1.99751E-02 1.04685E-26
2.05901E-02 9.56455E-27
2.12143E-02 8.74242E-27
2.18476E-02 7.99420E-27
2.24900E-02 7.31278E-27
2.31415E-02 6.69178E-27
2.38021E-02 6.12549E-27
2.44717E-02 5.60880E-27
2.51504E-02 5.13708E-27
2.58382E-02 4.70621E-27
2.65349E-02 4.31244E-27
2.72407E-02 3.95241E-27
2.79555E-02 3.62310E-27
2.86793E-02 3.32174E-27
2.94120E-02 3.04587E-27
3.01537E-02 2.79323E-27
3.09043E-02 2.56180E-27
3.16639E-02 2.34972E-27
3.24324E-02 2.15532E-27
3.32098E-02 1.97708E-27
3.39961E-02 1.81361E-27
3.47912E-02 1.66367E-27
3.55952E-02 1.52609E-27
3.64081E-02 1.39984E-27
3.72297E-02 1.28397E-27
3.80602E-02 1.17761E-27
3.88995E-02 1.07997E-27
3.97476E-02 9.90315E-28
4.06044E-02 9.07996E-28
4.14700E-02 8.32403E-28
4.23443E-02 7.62986E-28
4.32273E-02 6.99237E-28
4.41190E-02 6.40692E-28
4.50194E-02 5.86928E-28
4.59284E-02 5.37556E-28
4.68461E-02 4.92218E-28
4.87074E-02 4.12364E-28
5.06030E-02 3.45060E-28
5.25328E-02 2.88360E-28
5.44967E-02 2.40623E-28
5.64946E-02 2.00464E-28
5.85262E-02 1.66709E-28
6.05914E-02 1.38368E-28
6.26901E-02 1.14601E-28
6.48222E-02 9.46959E-29
6.69873E-02 7.80515E-29
6.91854E-02 6.41570E-29
7.14163E-02 5.25798E-29
7.36799E-02 4.29535E-29
7.59760E-02 3.49677E-29
7.83043E-02 2.83593E-29
8.06647E-02 2.29060E-29
8.30571E-02 1.84195E-29
8.54812E-02 1.47409E-29
8.79369E-02 1.17357E-29
9.04240E-02 9.29079E-30
9.29422E-02 7.31070E-30
9.54915E-02 5.71518E-30
9.80716E-02 4.43682E-30
1.00682E-01 3.41913E-30
1.03323E-01 2.61481E-30
1.05995E-01 1.98442E-30
1.08696E-01 1.49509E-30
1.11427E-01 1.11952E-30
1.14188E-01 8.35140E-31
1.16978E-01 6.23308E-31
1.19797E-01 4.68712E-31
1.22645E-01 3.58823E-31
1.25522E-01 2.83441E-31
1.28428E-01 2.34305E-31
1.31361E-01 2.04772E-31
1.34323E-01 1.89536E-31
1.37313E-01 1.84399E-31
1.40330E-01 1.86068E-31
1.43375E-01 1.92000E-31
1.46447E-01 2.00256E-31
1.49545E-01 2.09386E-31
1.52671E-01 2.18339E-31
1.55823E-01 2.26375E-31
1.59001E-01 2.33005E-31
1.62205E-01 2.37931E-31
1.65435E-01 2.41007E-31
1.68690E-01 2.42199E-31
1.71970E-01 2.41554E-31
1.75276E-01 2.39180E-31
1.78606E-01 2.35224E-31
1.81961E-01 2.29858E-31
1.85340E-01 2.23269E-31
1.88743E-01 2.15646E-31
1.92169E-01 2.07177E-31
1.95619E-01 1.98042E-31
1.99092E-01 1.88411E-31
2.02589E-01 1.78440E-31
2.06107E-01 1.68270E-31
2.09649E-01 1.58027E-31
2.13212E-01 1.47822E-31
2.16797E-01 1.37750E-31
2.20404E-01 1.27894E-31
2.24032E-01 1.18320E-31
2.27680E-01 1.09083E-31
2.31350E-01 1.00226E-31
2.35040E-01 9.17821E-32
2.38751E-01 8.37747E-32
2.42481E-01 7.62187E-32
2.46231E-01 6.91218E-32
2.50000E-01 6.24856E-32
2.53788E-01 5.63064E-32
2.57595E-01 5.05759E-32
2.61421E-01 4.52824E-32
2.65264E-01 4.04109E-32
2.69126E-01 3.59445E-32
2.73005E-01 3.18643E-32
2.76901E-01 2.81502E-32
2.80814E-01 2.47814E-32
2.84744E-01 2.17365E-32
2.88691E-01 1.89941E-32
2.92653E-01 1.65330E-32
2.96632E-01 1.43323E-32
3.00625E-01 1.23716E-32
3.04634E-01 1.06314E-32
3.08658E-01 9.09285E-33
3.12697E-01 7.73801E-33
3.16749E-01 6.54994E-33
3.20816E-01 5.51268E-33
3.24896E-01 4.61129E-33
3.28990E-01 3.83182E-33
3.33097E-01 3.16136E-33
3.37216E-01 2.58794E-33
3.41348E-01 2.10059E-33
3.45492E-01 1.68924E-33
3.49647E-01 1.34470E-33
3.53814E-01 1.05863E-33
3.57992E-01 8.23453E-34
3.62181E-01 6.32371E-34
3.66381E-01 4.79260E-34
3.70590E-01 3.58645E-34
3.74810E-01 2.65651E-34
3.79039E-01 1.95951E-34
3.83277E-01 1.45727E-34
3.87524E-01 1.11623E-34
3.91780E-01 9.07012E-35
3.96044E-01 8.04090E-35
4.00316E-01 7.85347E-35
4.04596E-01 8.31807E-35
4.08882E-01 9.27213E-35
4.13176E-01 1.05784E-34
4.17476E-01 1.21212E-34
4.21783E-01 1.38046E-34
4.26095E-01 1.55492E-34
4.30413E-01 1.72912E-34
4.34737E-01 1.89796E-34
4.39065E-01 2.05745E-34
4.43398E-01 2.20456E-34
4.47736E-01 2.33714E-34
4.52077E-01 2.45370E-34
4.56422E-01 2.55336E-34
4.60770E-01 2.63570E-34
4.65122E-01 2.70075E-34
4.69476E-01 2.74881E-34
4.73832E-01 2.78049E-34
4.78190E-01 2.79658E-34
4.82550E-01 2.79800E-34
4.86912E-01 2.78581E-34
4.91274E-01 2.76113E-34
4.95637E-01 2.72512E-34
5.00000E-01 2.67894E-34
5.04363E-01 2.62377E-34
5.08726E-01 2.56075E-34
5.13088E-01 2.49100E-34
5.17450E-01 2.41555E-34
5.21810E-01 2.33543E-34
5.26168E-01 2.25158E-34
5.30524E-01 2.16487E-34
5.34878E-01 2.07611E-34
5.39230E-01 1.98605E-34
5.43578E-01 1.89536E-34
5.47923E-01 1.80465E-34
5.52264E-01 1.71446E-34
5.56602E-01 1.62527E-34
5.60935E-01 1.53751E-34
5.65263E-01 1.45152E-34
5.69587E-01 1.36763E-34
5.73905E-01 1.28610E-34
5.78217E-01 1.20714E-34
5.82524E-01 1.13092E-34
5.86824E-01 1.05759E-34
5.91118E-01 9.87224E-35
5.95404E-01 9.19909E-35
5.99684E-01 8.55682E-35
6.03956E-01 7.94552E-35
6.08220E-01 7.36514E-35
6.12476E-01 6.81544E-35
6.16723E-01 6.29593E-35
6.20961E-01 5.80607E-35
6.25190E-01 5.34514E-35
6.29410E-01 4.91231E-35
6.33619E-01 4.50670E-35
6.37819E-01 4.12734E-35
6.42008E-01 3.77326E-35
6.46186E-01 3.44337E-35
6.50353E-01 3.13662E-35
6.54508E-01 2.85192E-35
6.58652E-01 2.58817E-35
6.62784E-01 2.34430E-35
6.66903E-01 2.11922E-35
6.71010E-01 1.91186E-35
6.75104E-01 1.72119E-35
6.79184E-01 1.54621E-35
6.83251E-01 1.38592E-35
6.87303E-01 1.23938E-35
6.91342E-01 1.10567E-35
6.95366E-01 9.83905E-36
6.99375E-01 8.73253E-36
7.03368E-01 7.72915E-36
7.07347E-01 6.82126E-36
7.11309E-01 6.00165E-36
7.15256E-01 5.26343E-36
7.19186E-01 4.60017E-36
7.23099E-01 4.00579E-36
7.26995E-01 3.47458E-36
7.30874E-01 3.00117E-36
7.34736E-01 2.58059E-36
7.38579E-01 2.20812E-36
7.42405E-01 1.87944E-36
7.46212E-01 1.59047E-36
7.50000E-01 1.33749E-36
7.53769E-01 1.11700E-36
7.57519E-01 9.25789E-37
7.61249E-01 7.60895E-37
7.64960E-01 6.19604E-37
7.68650E-01 4.99404E-37
7.72320E-01 3.97970E-37
7.75968E-01 3.13243E-37
7.79596E-01 2.43272E-37
7.83203E-01 1.86324E-37
7.86788E-01 1.40809E-37
7.90351E-01 1.05265E-37
7.93893E-01 7.84157E-38
7.97411E-01 5.90849E-38
8.00908E-01 4.61665E-38
8.04381E-01 3.87386E-38
8.07831E-01 3.59654E-38
8.11257E-01 3.70496E-38
8.14660E-01 4.13371E-38
8.18039E-01 4.82045E-38
8.21394E-01 5.71518E-38
8.24724E-01 6.76877E-38
8.28030E-01 7.93843E-38
8.31310E-01 9.19308E-38
8.34565E-01 1.04972E-37
8.37795E-01 1.18263E-37
8.40999E-01 1.31598E-37
8.44177E-01 1.44748E-37
8.47329E-01 1.57576E-37
8.50455E-01 1.69919E-37
8.53553E-01 1.81713E-37
8.56625E-01 1.92812E-37
8.59670E-01 2.03215E-37
8.62687E-01 2.12790E-37
8.65677E-01 2.21576E-37
8.68639E-01 2.29521E-37
8.71572E-01 2.36602E-37
8.74478E-01 2.42826E-37
8.77355E-01 2.48202E-37
8.80203E-01 2.52737E-37
8.83022E-01 2.56459E-37
8.85812E-01 2.59375E-37
8.88573E-01 2.61533E-37
8.91304E-01 2.62948E-37
8.94005E-01 2.63685E-37
8.96677E-01 2.63743E-37
8.99318E-01 2.63172E-37
9.01928E-01 2.61993E-37
9.04508E-01 2.60273E-37
9.07058E-01 2.58064E-37
9.09576E-01 2.55340E-37
9.12063E-01 2.52175E-37
9.14519E-01 2.48642E-37
9.16943E-01 2.44716E-37
9.19335E-01 2.40480E-37
9.21696E-01 2.35916E-37
9.24024E-01 2.31118E-37
9.26320E-01 2.26057E-37
9.28584E-01 2.20811E-37
9.30815E-01 2.15390E-37
9.33013E-01 2.09798E-37
9.35178E-01 2.04134E-37
9.37310E-01 1.98311E-37
9.39409E-01 1.92457E-37
9.41474E-01 1.86512E-37
9.43505E-01 1.80556E-37
9.45503E-01 1.74564E-37
9.47467E-01 1.68574E-37
9.49397E-01 1.62576E-37
9.51293E-01 1.56631E-37
9.53154E-01 1.50708E-37
9.54981E-01 1.44850E-37
9.56773E-01 1.39037E-37
9.58530E-01 1.33308E-37
9.60252E-01 1.27662E-37
9.61940E-01 1.22104E-37
9.63592E-01 1.16628E-37
9.65209E-01 1.11254E-37
9.66790E-01 1.06000E-37
9.68336E-01 1.00862E-37
9.69846E-01 9.58266E-38
9.71321E-01 9.09289E-38
9.72759E-01 8.61466E-38
9.74162E-01 8.14924E-38
9.75528E-01 7.69645E-38
9.76858E-01 7.25722E-38
9.78152E-01 6.83136E-38
9.79410E-01 6.41860E-38
9.80631E-01 6.02007E-38
9.81815E-01 5.63450E-38
9.82963E-01 5.26198E-38
9.84074E-01 4.90248E-38
9.85148E-01 4.55911E-38
9.86185E-01 4.22787E-38
9.87185E-01 3.90992E-38
9.88148E-01 3.60459E-38
9.89074E-01 3.31396E-38
9.89962E-01 3.03588E-38
9.90814E-01 2.77012E-38
9.91627E-01 2.51855E-38
9.92404E-01 2.27929E-38
9.93143E-01 2.05208E-38
9.93844E-01 1.83786E-38
9.94508E-01 1.63630E-38
9.95134E-01 1.44682E-38
9.95722E-01 1.26886E-38
9.96273E-01 1.10389E-38
9.96786E-01 9.49535E-39
9.97261E-01 8.08595E-39
9.97698E-01 6.78219E-39
9.98097E-01 5.59713E-39
9.98459E-01 4.53221E-39
9.98782E-01 3.58009E-39
9.99067E-01 2.73851E-39
9.99315E-01 2.01376E-39
9.99524E-01 1.39615E-39
9.99695E-01 8.96107E-40
9.99829E-01 5.06784E-40
9.99924E-01 2.28542E-40
9.99981E-01 6.05162E-41
1.00000E+00 1.84136E-41
