 #
 # Subroutine ELSEPA. Elastic scattering of electrons and positrons
 #                    by neutral atoms and positive ions
 #
 # Projectile: positron
 # Kinetic energy = 7.00000E+08 eV = 2.57245E+07 a.u.
 #
 # WARNING: High-energy factorization with free-atom DF screening.
 #          Absorption, polarization and exchange corrections are
 #          switched off.
 #          Phase shifts are calculated for the bare nucleus.
 #          Scattering amplitudes are not evaluated.
 #
 # Element:  S,  Z =  16,  atomic weight = 3.20660E+01 g/mol
 #
 # Nuclear model: Fermi distribution
 #                Average radius = 3.39937E-13 cm
 #                Skin thickness = 5.46000E-14 cm
 #
 # Number of electrons = 16
 #
 # Total elastic cross section = 1.04410E-18 cm**2 = 3.72855E-02 a0**2
 # 1st transport cross section = 1.11987E-27 cm**2 = 3.99912E-11 a0**2
 # 2nd transport cross section = 3.35855E-27 cm**2 = 1.19936E-10 a0**2
 #
 #
 # Differential cross section:                       MU=(1-COS(THETA))/2
 #
 #  THETA        MU          DCS          DCS        Sherman      error
 #  (deg)                 (cm**2/sr)   (a0**2/sr)    function
 #----------------------------------------------------------------------
0.00000E+00 4.99910E-09
7.61557E-13 4.58468E-09
1.18994E-12 4.37260E-09
1.71346E-12 4.13164E-09
2.33225E-12 3.87016E-09
3.04617E-12 3.59643E-09
3.85530E-12 3.30670E-09
4.75964E-12 3.03837E-09
5.75917E-12 2.76176E-09
6.85391E-12 2.51067E-09
8.04379E-12 2.26208E-09
9.32893E-12 2.04002E-09
1.07092E-11 1.82721E-09
1.21847E-11 1.63884E-09
1.37554E-11 1.46286E-09
1.54213E-11 1.30785E-09
1.71823E-11 1.16581E-09
1.90386E-11 1.04096E-09
2.09900E-11 9.28164E-10
2.30367E-11 8.29072E-10
2.51785E-11 7.40404E-10
2.74156E-11 6.62460E-10
2.97478E-11 5.93145E-10
3.21752E-11 5.32127E-10
3.46979E-11 4.78043E-10
3.73157E-11 4.30335E-10
4.00286E-11 3.88096E-10
4.28368E-11 3.50744E-10
4.57402E-11 3.17654E-10
4.87388E-11 2.88308E-10
5.18325E-11 2.62261E-10
5.50215E-11 2.39087E-10
5.83057E-11 2.18460E-10
6.16850E-11 2.00046E-10
6.51595E-11 1.83598E-10
6.87293E-11 1.68861E-10
7.23943E-11 1.55645E-10
7.61544E-11 1.43759E-10
1.18991E-10 7.19292E-11
1.71347E-10 4.13987E-11
2.33223E-10 2.59749E-11
3.04617E-10 1.71864E-11
3.85531E-10 1.17755E-11
4.75965E-10 8.28214E-12
5.75917E-10 5.96013E-12
6.85389E-10 4.37536E-12
8.04380E-10 3.26996E-12
9.32891E-10 2.48233E-12
1.07092E-09 1.91431E-12
1.21847E-09 1.49778E-12
1.37554E-09 1.18760E-12
1.54213E-09 9.53131E-13
1.71823E-09 7.73661E-13
1.90386E-09 6.34569E-13
2.09900E-09 5.25485E-13
2.30367E-09 4.38974E-13
2.51785E-09 3.69661E-13
2.74156E-09 3.13607E-13
2.97478E-09 2.67871E-13
3.21752E-09 2.30245E-13
3.46978E-09 1.99047E-13
3.73156E-09 1.73002E-13
4.00286E-09 1.51113E-13
4.28368E-09 1.32605E-13
4.57402E-09 1.16860E-13
4.87388E-09 1.03398E-13
5.18326E-09 9.18307E-14
5.50215E-09 8.18443E-14
5.83057E-09 7.31834E-14
6.16850E-09 6.56411E-14
6.51596E-09 5.90488E-14
6.87293E-09 5.32655E-14
7.23942E-09 4.81741E-14
7.61544E-09 4.36763E-14
1.18991E-08 1.83427E-14
1.71347E-08 8.97794E-15
2.33223E-08 4.88909E-15
3.04617E-08 2.88145E-15
3.85531E-08 1.80503E-15
4.75965E-08 1.18693E-15
5.75917E-08 8.11913E-16
6.85389E-08 5.73861E-16
8.04380E-08 4.16944E-16
9.32891E-08 3.10149E-16
1.07092E-07 2.35445E-16
1.21847E-07 1.81929E-16
1.37554E-07 1.42786E-16
1.54213E-07 1.13623E-16
1.71823E-07 9.15381E-17
1.90386E-07 7.45664E-17
2.09900E-07 6.13513E-17
2.30367E-07 5.09379E-17
2.51785E-07 4.26427E-17
2.74156E-07 3.59692E-17
2.97478E-07 3.05515E-17
3.21752E-07 2.61160E-17
3.46978E-07 2.24565E-17
3.73156E-07 1.94162E-17
4.00286E-07 1.68734E-17
4.28368E-07 1.47335E-17
4.57402E-07 1.29224E-17
4.87388E-07 1.13812E-17
5.18325E-07 1.00630E-17
5.50215E-07 8.93029E-18
5.83057E-07 7.95255E-18
6.16850E-07 7.10503E-18
6.51596E-07 6.36746E-18
6.87293E-07 5.72316E-18
7.23942E-07 5.15833E-18
7.61543E-07 4.66149E-18
1.18991E-06 1.90921E-18
1.71347E-06 9.20658E-19
2.33223E-06 4.96912E-19
3.04617E-06 2.91259E-19
3.85531E-06 1.81818E-19
4.75964E-06 1.19282E-19
5.75916E-06 8.14650E-20
6.85388E-06 5.75154E-20
8.04378E-06 4.17545E-20
9.32888E-06 3.10407E-20
1.07092E-05 2.35530E-20
1.21846E-05 1.81928E-20
1.37553E-05 1.42742E-20
1.54212E-05 1.13560E-20
1.71822E-05 9.14675E-21
1.90385E-05 7.44980E-21
2.09899E-05 6.12868E-21
2.30365E-05 5.08767E-21
2.51783E-05 4.25848E-21
2.74153E-05 3.59148E-21
2.97475E-05 3.05010E-21
3.21749E-05 2.60701E-21
3.46974E-05 2.24156E-21
3.73152E-05 1.93798E-21
4.00281E-05 1.68409E-21
4.28362E-05 1.47044E-21
4.57395E-05 1.28960E-21
4.87380E-05 1.13571E-21
5.18317E-05 1.00409E-21
5.50205E-05 8.90994E-22
5.83045E-05 7.93381E-22
6.16838E-05 7.08779E-22
6.51582E-05 6.35161E-22
6.87277E-05 5.70858E-22
7.23925E-05 5.14488E-22
7.61524E-05 4.59551E-22
9.21439E-05 3.12961E-22
1.09658E-04 2.20269E-22
1.28695E-04 1.59367E-22
1.49255E-04 1.18041E-22
1.71338E-04 8.92148E-23
1.94942E-04 6.86202E-23
2.20070E-04 5.35982E-23
2.46720E-04 4.24370E-23
2.74892E-04 3.40087E-23
3.04586E-04 2.75507E-23
3.35803E-04 2.25371E-23
3.68542E-04 1.85990E-23
4.02802E-04 1.54721E-23
4.38585E-04 1.29651E-23
4.75889E-04 1.09369E-23
5.14715E-04 9.28274E-24
5.55063E-04 7.92330E-24
5.96931E-04 6.79825E-24
6.40321E-04 5.86115E-24
6.85233E-04 5.07589E-24
7.31665E-04 4.41417E-24
7.79618E-04 3.85365E-24
8.29092E-04 3.37651E-24
8.80086E-04 2.96851E-24
9.32601E-04 2.61810E-24
9.86636E-04 2.31595E-24
1.04219E-03 2.05442E-24
1.09927E-03 1.82724E-24
1.15786E-03 1.62922E-24
1.21797E-03 1.45607E-24
1.27961E-03 1.30421E-24
1.34276E-03 1.17063E-24
1.40743E-03 1.05281E-24
1.47362E-03 9.48635E-25
1.54133E-03 8.56285E-25
1.61056E-03 7.74230E-25
1.68131E-03 7.01159E-25
1.75357E-03 6.35952E-25
1.82735E-03 5.77642E-25
1.90265E-03 5.25401E-25
1.97947E-03 4.78510E-25
2.05780E-03 4.36347E-25
2.13765E-03 3.98372E-25
2.21902E-03 3.64112E-25
2.30190E-03 3.33158E-25
2.38630E-03 3.05148E-25
2.47222E-03 2.79767E-25
2.55965E-03 2.56737E-25
2.64859E-03 2.35813E-25
2.73905E-03 2.16779E-25
2.83103E-03 1.99443E-25
2.92452E-03 1.83635E-25
3.01952E-03 1.69206E-25
3.11604E-03 1.56020E-25
3.21407E-03 1.43959E-25
3.31362E-03 1.32915E-25
3.41468E-03 1.22794E-25
3.51725E-03 1.13511E-25
3.62133E-03 1.04987E-25
3.72692E-03 9.71555E-26
3.83403E-03 8.99536E-26
3.94265E-03 8.33258E-26
4.05278E-03 7.72219E-26
4.16442E-03 7.15964E-26
4.27757E-03 6.64084E-26
4.39223E-03 6.16206E-26
4.50840E-03 5.71996E-26
4.62608E-03 5.31146E-26
4.74527E-03 4.93380E-26
4.86597E-03 4.58446E-26
4.98817E-03 4.26115E-26
5.11188E-03 3.96176E-26
5.23711E-03 3.68440E-26
5.36383E-03 3.42732E-26
5.49207E-03 3.18894E-26
5.62181E-03 2.96780E-26
5.75306E-03 2.76256E-26
5.88581E-03 2.57202E-26
6.02007E-03 2.39505E-26
6.15583E-03 2.23063E-26
6.29310E-03 2.07781E-26
6.43187E-03 1.93573E-26
6.57214E-03 1.80359E-26
6.71392E-03 1.68067E-26
6.85720E-03 1.56629E-26
7.00198E-03 1.45982E-26
7.14827E-03 1.36070E-26
7.29605E-03 1.26840E-26
7.44534E-03 1.18242E-26
7.59612E-03 1.10232E-26
7.97965E-03 9.25128E-27
8.37255E-03 7.76457E-27
8.77480E-03 6.51604E-27
9.18641E-03 5.46678E-27
9.60736E-03 4.58451E-27
1.00376E-02 3.84240E-27
1.04773E-02 3.21804E-27
1.09262E-02 2.69274E-27
1.13844E-02 2.25084E-27
1.18520E-02 1.87919E-27
1.23288E-02 1.56677E-27
1.28150E-02 1.30429E-27
1.33104E-02 1.08393E-27
1.38150E-02 8.99115E-28
1.43290E-02 7.44264E-28
1.48521E-02 6.14687E-28
1.53845E-02 5.06411E-28
1.59262E-02 4.16080E-28
1.64770E-02 3.40856E-28
1.70371E-02 2.78339E-28
1.76063E-02 2.26497E-28
1.81848E-02 1.83614E-28
1.87724E-02 1.48238E-28
1.93692E-02 1.19143E-28
1.99751E-02 9.52940E-29
2.05901E-02 7.58162E-29
2.12143E-02 5.99736E-29
2.18476E-02 4.71462E-29
2.24900E-02 3.68125E-29
2.31415E-02 2.85349E-29
2.38021E-02 2.19466E-29
2.44717E-02 1.67408E-29
2.51504E-02 1.26614E-29
2.58382E-02 9.49521E-30
2.65349E-02 7.06530E-30
2.72407E-02 5.22519E-30
2.79555E-02 3.85410E-30
2.86793E-02 2.85278E-30
2.94120E-02 2.14009E-30
3.01537E-02 1.64999E-30
3.09043E-02 1.32904E-30
3.16639E-02 1.13430E-30
3.24324E-02 1.03150E-30
3.32098E-02 9.93570E-31
3.39961E-02 9.99320E-31
3.47912E-02 1.03240E-30
3.55952E-02 1.08039E-30
3.64081E-02 1.13405E-30
3.72297E-02 1.18668E-30
3.80602E-02 1.23363E-30
3.88995E-02 1.27183E-30
3.97476E-02 1.29947E-30
4.06044E-02 1.31569E-30
4.14700E-02 1.32034E-30
4.23443E-02 1.31379E-30
4.32273E-02 1.29679E-30
4.41190E-02 1.27033E-30
4.50194E-02 1.23556E-30
4.59284E-02 1.19368E-30
4.68461E-02 1.14592E-30
4.87074E-02 1.03752E-30
5.06030E-02 9.19141E-31
5.25328E-02 7.98143E-31
5.44967E-02 6.80223E-31
5.64946E-02 5.69483E-31
5.85262E-02 4.68598E-31
6.05914E-02 3.79054E-31
6.26901E-02 3.01394E-31
6.48222E-02 2.35459E-31
6.69873E-02 1.80592E-31
6.91854E-02 1.35822E-31
7.14163E-02 1.00000E-31
7.36799E-02 7.19110E-32
7.59760E-02 5.03520E-32
7.83043E-02 3.41877E-32
8.06647E-02 2.23848E-32
8.30571E-02 1.40309E-32
8.54812E-02 8.34142E-33
8.79369E-02 4.65796E-33
9.04240E-02 2.44068E-33
9.29422E-02 1.25727E-33
9.54915E-02 7.69862E-34
9.80716E-02 7.21387E-34
1.00682E-01 9.22134E-34
1.03323E-01 1.23723E-33
1.05995E-01 1.57530E-33
1.08696E-01 1.87862E-33
1.11427E-01 2.11467E-33
1.14188E-01 2.26915E-33
1.16978E-01 2.34039E-33
1.19797E-01 2.33486E-33
1.22645E-01 2.26380E-33
1.25522E-01 2.14072E-33
1.28428E-01 1.97955E-33
1.31361E-01 1.79354E-33
1.34323E-01 1.59446E-33
1.37313E-01 1.39221E-33
1.40330E-01 1.19470E-33
1.43375E-01 1.00788E-33
1.46447E-01 8.35904E-34
1.49545E-01 6.81357E-34
1.52671E-01 5.45496E-34
1.55823E-01 4.28529E-34
1.59001E-01 3.29851E-34
1.62205E-01 2.48285E-34
1.65435E-01 1.82269E-34
1.68690E-01 1.30025E-34
1.71970E-01 8.96897E-35
1.75276E-01 5.94175E-35
1.78606E-01 3.74538E-35
1.81961E-01 2.21866E-35
1.85340E-01 1.21767E-35
1.88743E-01 6.17293E-36
1.92169E-01 3.11442E-36
1.95619E-01 2.12430E-36
1.99092E-01 2.49637E-36
2.02589E-01 3.67833E-36
2.06107E-01 5.25231E-36
2.09649E-01 6.91498E-36
2.13212E-01 8.45807E-36
2.16797E-01 9.74987E-36
2.20404E-01 1.07189E-35
2.24032E-01 1.13387E-35
2.27680E-01 1.16161E-35
2.31350E-01 1.15798E-35
2.35040E-01 1.12723E-35
2.38751E-01 1.07434E-35
2.42481E-01 1.00451E-35
2.46231E-01 9.22769E-36
2.50000E-01 8.33736E-36
2.53788E-01 7.41457E-36
2.57595E-01 6.49360E-36
2.61421E-01 5.60173E-36
2.65264E-01 4.75991E-36
2.69126E-01 3.98304E-36
2.73005E-01 3.28060E-36
2.76901E-01 2.65757E-36
2.80814E-01 2.11501E-36
2.84744E-01 1.65114E-36
2.88691E-01 1.26182E-36
2.92653E-01 9.41345E-37
2.96632E-01 6.82992E-37
3.00625E-01 4.79485E-37
3.04634E-01 3.23400E-37
3.08658E-01 2.07486E-37
3.12697E-01 1.24881E-37
3.16749E-01 6.92471E-38
3.20816E-01 3.48983E-38
3.24896E-01 1.68360E-38
3.28990E-01 1.07693E-38
3.33097E-01 1.30911E-38
3.37216E-01 2.08494E-38
3.41348E-01 3.16868E-38
3.45492E-01 4.37619E-38
3.49647E-01 5.57485E-38
3.53814E-01 6.66645E-38
3.57992E-01 7.58975E-38
3.62181E-01 8.30831E-38
3.66381E-01 8.80966E-38
3.70590E-01 9.09330E-38
3.74810E-01 9.17358E-38
3.79039E-01 9.07018E-38
3.83277E-01 8.80994E-38
3.87524E-01 8.42058E-38
3.91780E-01 7.92931E-38
3.96044E-01 7.36506E-38
4.00316E-01 6.75131E-38
4.04596E-01 6.11243E-38
4.08882E-01 5.46604E-38
4.13176E-01 4.83060E-38
4.17476E-01 4.21816E-38
4.21783E-01 3.63995E-38
4.26095E-01 3.10244E-38
4.30413E-01 2.61169E-38
4.34737E-01 2.17013E-38
4.39065E-01 1.77887E-38
4.43398E-01 1.43624E-38
4.47736E-01 1.14140E-38
4.52077E-01 8.91159E-39
4.56422E-01 6.81913E-39
4.60770E-01 5.09859E-39
4.65122E-01 3.71095E-39
4.69476E-01 2.61231E-39
4.73832E-01 1.76581E-39
4.78190E-01 1.13328E-39
4.82550E-01 1.00000E-45
4.86912E-01 1.00000E-45
4.91274E-01 1.00000E-45
4.95637E-01 1.00000E-45
5.00000E-01 1.00000E-45
5.04363E-01 1.00000E-45
5.08726E-01 1.00000E-45
5.13088E-01 1.00000E-45
5.17450E-01 1.00000E-45
5.21810E-01 1.00000E-45
5.26168E-01 1.00000E-45
5.30524E-01 1.00000E-45
5.34878E-01 1.00000E-45
5.39230E-01 1.00000E-45
5.43578E-01 1.00000E-45
5.47923E-01 1.00000E-45
5.52264E-01 1.00000E-45
5.56602E-01 1.00000E-45
5.60935E-01 1.00000E-45
5.65263E-01 1.00000E-45
5.69587E-01 1.00000E-45
5.73905E-01 1.00000E-45
5.78217E-01 1.00000E-45
5.82524E-01 1.00000E-45
5.86824E-01 1.00000E-45
5.91118E-01 1.00000E-45
5.95404E-01 1.00000E-45
5.99684E-01 1.00000E-45
6.03956E-01 1.00000E-45
6.08220E-01 1.00000E-45
6.12476E-01 1.00000E-45
6.16723E-01 1.00000E-45
6.20961E-01 1.00000E-45
6.25190E-01 1.00000E-45
6.29410E-01 1.00000E-45
6.33619E-01 1.00000E-45
6.37819E-01 1.00000E-45
6.42008E-01 1.00000E-45
6.46186E-01 1.00000E-45
6.50353E-01 1.00000E-45
6.54508E-01 1.00000E-45
6.58652E-01 1.00000E-45
6.62784E-01 1.00000E-45
6.66903E-01 1.00000E-45
6.71010E-01 1.00000E-45
6.75104E-01 1.00000E-45
6.79184E-01 1.00000E-45
6.83251E-01 1.00000E-45
6.87303E-01 1.00000E-45
6.91342E-01 1.00000E-45
6.95366E-01 1.00000E-45
6.99375E-01 1.00000E-45
7.03368E-01 1.00000E-45
7.07347E-01 1.00000E-45
7.11309E-01 1.00000E-45
7.15256E-01 1.00000E-45
7.19186E-01 1.00000E-45
7.23099E-01 1.00000E-45
7.26995E-01 1.00000E-45
7.30874E-01 1.00000E-45
7.34736E-01 1.00000E-45
7.38579E-01 1.00000E-45
7.42405E-01 1.00000E-45
7.46212E-01 1.00000E-45
7.50000E-01 1.00000E-45
7.53769E-01 1.00000E-45
7.57519E-01 1.00000E-45
7.61249E-01 1.00000E-45
7.64960E-01 1.00000E-45
7.68650E-01 1.00000E-45
7.72320E-01 1.00000E-45
7.75968E-01 1.00000E-45
7.79596E-01 1.00000E-45
7.83203E-01 1.00000E-45
7.86788E-01 1.00000E-45
7.90351E-01 1.00000E-45
7.93893E-01 1.00000E-45
7.97411E-01 1.00000E-45
8.00908E-01 1.00000E-45
8.04381E-01 1.00000E-45
8.07831E-01 1.00000E-45
8.11257E-01 1.00000E-45
8.14660E-01 1.00000E-45
8.18039E-01 1.00000E-45
8.21394E-01 1.00000E-45
8.24724E-01 1.00000E-45
8.28030E-01 1.00000E-45
8.31310E-01 1.00000E-45
8.34565E-01 1.00000E-45
8.37795E-01 1.00000E-45
8.40999E-01 1.00000E-45
8.44177E-01 1.00000E-45
8.47329E-01 1.00000E-45
8.50455E-01 1.00000E-45
8.53553E-01 1.00000E-45
8.56625E-01 1.00000E-45
8.59670E-01 1.00000E-45
8.62687E-01 1.00000E-45
8.65677E-01 1.00000E-45
8.68639E-01 1.00000E-45
8.71572E-01 1.00000E-45
8.74478E-01 1.00000E-45
8.77355E-01 1.00000E-45
8.80203E-01 1.00000E-45
8.83022E-01 1.00000E-45
8.85812E-01 1.00000E-45
8.88573E-01 1.00000E-45
8.91304E-01 1.00000E-45
8.94005E-01 1.00000E-45
8.96677E-01 1.00000E-45
8.99318E-01 1.00000E-45
9.01928E-01 1.00000E-45
9.04508E-01 1.00000E-45
9.07058E-01 1.00000E-45
9.09576E-01 1.00000E-45
9.12063E-01 1.00000E-45
9.14519E-01 1.00000E-45
9.16943E-01 1.00000E-45
9.19335E-01 1.00000E-45
9.21696E-01 1.00000E-45
9.24024E-01 1.00000E-45
9.26320E-01 1.00000E-45
9.28584E-01 1.00000E-45
9.30815E-01 1.00000E-45
9.33013E-01 1.00000E-45
9.35178E-01 1.00000E-45
9.37310E-01 1.00000E-45
9.39409E-01 1.00000E-45
9.41474E-01 1.00000E-45
9.43505E-01 1.00000E-45
9.45503E-01 1.00000E-45
9.47467E-01 1.00000E-45
9.49397E-01 1.00000E-45
9.51293E-01 1.00000E-45
9.53154E-01 1.00000E-45
9.54981E-01 1.00000E-45
9.56773E-01 1.00000E-45
9.58530E-01 1.00000E-45
9.60252E-01 1.00000E-45
9.61940E-01 1.00000E-45
9.63592E-01 1.00000E-45
9.65209E-01 1.00000E-45
9.66790E-01 1.00000E-45
9.68336E-01 1.00000E-45
9.69846E-01 1.00000E-45
9.71321E-01 1.00000E-45
9.72759E-01 1.00000E-45
9.74162E-01 1.00000E-45
9.75528E-01 1.00000E-45
9.76858E-01 1.00000E-45
9.78152E-01 1.00000E-45
9.79410E-01 1.00000E-45
9.80631E-01 1.00000E-45
9.81815E-01 1.00000E-45
9.82963E-01 1.00000E-45
9.84074E-01 1.00000E-45
9.85148E-01 1.00000E-45
9.86185E-01 1.00000E-45
9.87185E-01 1.00000E-45
9.88148E-01 1.00000E-45
9.89074E-01 1.00000E-45
9.89962E-01 1.00000E-45
9.90814E-01 1.00000E-45
9.91627E-01 1.00000E-45
9.92404E-01 1.00000E-45
9.93143E-01 1.00000E-45
9.93844E-01 1.00000E-45
9.94508E-01 1.00000E-45
9.95134E-01 1.00000E-45
9.95722E-01 1.00000E-45
9.96273E-01 1.00000E-45
9.96786E-01 1.00000E-45
9.97261E-01 1.00000E-45
9.97698E-01 1.00000E-45
9.98097E-01 1.00000E-45
9.98459E-01 1.00000E-45
9.98782E-01 1.00000E-45
9.99067E-01 1.00000E-45
9.99315E-01 1.00000E-45
9.99524E-01 1.00000E-45
9.99695E-01 1.00000E-45
9.99829E-01 1.00000E-45
9.99924E-01 1.00000E-45
9.99981E-01 1.00000E-45
1.00000E+00 1.00000E-45
