 #
 # Subroutine ELSEPA. Elastic scattering of electrons and positrons
 #                    by neutral atoms and positive ions
 #
 # Projectile: positron
 # Kinetic energy = 4.00000E+06 eV = 1.46997E+05 a.u.
 #
 # WARNING: High-energy factorization with free-atom DF screening.
 #          Absorption, polarization and exchange corrections are
 #          switched off.
 #          Phase shifts are calculated for the bare nucleus.
 #          Scattering amplitudes are not evaluated.
 #
 # Element:  S,  Z =  16,  atomic weight = 3.20660E+01 g/mol
 #
 # Nuclear model: Fermi distribution
 #                Average radius = 3.39937E-13 cm
 #                Skin thickness = 5.46000E-14 cm
 #
 # Number of electrons = 16
 #
 # Total elastic cross section = 1.05891E-18 cm**2 = 3.78144E-02 a0**2
 # 1st transport cross section = 1.83083E-23 cm**2 = 6.53801E-07 a0**2
 # 2nd transport cross section = 5.26255E-23 cm**2 = 1.87929E-06 a0**2
 #
 #
 # Differential cross section:                       MU=(1-COS(THETA))/2
 #
 #  THETA        MU          DCS          DCS        Sherman      error
 #  (deg)                 (cm**2/sr)   (a0**2/sr)    function
 #----------------------------------------------------------------------
0.00000E+00 2.07304E-13
7.61557E-13 2.07303E-13
1.18994E-12 2.07302E-13
1.71346E-12 2.07302E-13
2.33225E-12 2.07301E-13
3.04617E-12 2.07300E-13
3.85530E-12 2.07299E-13
4.75964E-12 2.07299E-13
5.75917E-12 2.07297E-13
6.85391E-12 2.07296E-13
8.04379E-12 2.07295E-13
9.32893E-12 2.07294E-13
1.07092E-11 2.07292E-13
1.21847E-11 2.07291E-13
1.37554E-11 2.07289E-13
1.54213E-11 2.07288E-13
1.71823E-11 2.07286E-13
1.90386E-11 2.07284E-13
2.09900E-11 2.07282E-13
2.30367E-11 2.07280E-13
2.51785E-11 2.07278E-13
2.74156E-11 2.07275E-13
2.97478E-11 2.07273E-13
3.21752E-11 2.07271E-13
3.46979E-11 2.07268E-13
3.73157E-11 2.07266E-13
4.00286E-11 2.07263E-13
4.28368E-11 2.07260E-13
4.57402E-11 2.07257E-13
4.87388E-11 2.07254E-13
5.18325E-11 2.07251E-13
5.50215E-11 2.07248E-13
5.83057E-11 2.07245E-13
6.16850E-11 2.07241E-13
6.51595E-11 2.07238E-13
6.87293E-11 2.07234E-13
7.23943E-11 2.07231E-13
7.61544E-11 2.07227E-13
1.18991E-10 2.07184E-13
1.71347E-10 2.07132E-13
2.33223E-10 2.07071E-13
3.04617E-10 2.07001E-13
3.85531E-10 2.06921E-13
4.75965E-10 2.06832E-13
5.75917E-10 2.06734E-13
6.85389E-10 2.06627E-13
8.04380E-10 2.06510E-13
9.32891E-10 2.06384E-13
1.07092E-09 2.06249E-13
1.21847E-09 2.06105E-13
1.37554E-09 2.05952E-13
1.54213E-09 2.05790E-13
1.71823E-09 2.05619E-13
1.90386E-09 2.05438E-13
2.09900E-09 2.05249E-13
2.30367E-09 2.05051E-13
2.51785E-09 2.04844E-13
2.74156E-09 2.04628E-13
2.97478E-09 2.04403E-13
3.21752E-09 2.04170E-13
3.46978E-09 2.03927E-13
3.73156E-09 2.03677E-13
4.00286E-09 2.03417E-13
4.28368E-09 2.03148E-13
4.57402E-09 2.02872E-13
4.87388E-09 2.02587E-13
5.18326E-09 2.02293E-13
5.50215E-09 2.01991E-13
5.83057E-09 2.01681E-13
6.16850E-09 2.01361E-13
6.51596E-09 2.01034E-13
6.87293E-09 2.00700E-13
7.23942E-09 2.00356E-13
7.61544E-09 2.00004E-13
1.18991E-08 1.96063E-13
1.71347E-08 1.91393E-13
2.33223E-08 1.86073E-13
3.04617E-08 1.80186E-13
3.85531E-08 1.73826E-13
4.75965E-08 1.67085E-13
5.75917E-08 1.60053E-13
6.85389E-08 1.52819E-13
8.04380E-08 1.45294E-13
9.32891E-08 1.37606E-13
1.07092E-07 1.30334E-13
1.21847E-07 1.23346E-13
1.37554E-07 1.15884E-13
1.54213E-07 1.08970E-13
1.71823E-07 1.02585E-13
1.90386E-07 9.58292E-14
2.09900E-07 8.96150E-14
2.30367E-07 8.39350E-14
2.51785E-07 7.81996E-14
2.74156E-07 7.28465E-14
2.97478E-07 6.79810E-14
3.21752E-07 6.32516E-14
3.46978E-07 5.87840E-14
3.73156E-07 5.47333E-14
4.00286E-07 5.09077E-14
4.28368E-07 4.72639E-14
4.57402E-07 4.39614E-14
4.87388E-07 4.09045E-14
5.18325E-07 3.79802E-14
5.50215E-07 3.53268E-14
5.83057E-07 3.29019E-14
6.16850E-07 3.05795E-14
6.51596E-07 2.84680E-14
6.87293E-07 2.65454E-14
7.23942E-07 2.47183E-14
7.61543E-07 2.30471E-14
1.18991E-06 1.19618E-14
1.71347E-06 6.77942E-15
2.33223E-06 4.18596E-15
3.04617E-06 2.77522E-15
3.85531E-06 1.94193E-15
4.75964E-06 1.41344E-15
5.75916E-06 1.05867E-15
6.85388E-06 8.09830E-16
8.04378E-06 6.28452E-16
9.32888E-06 4.95607E-16
1.07092E-05 3.94165E-16
1.21846E-05 3.16660E-16
1.37553E-05 2.56783E-16
1.54212E-05 2.09980E-16
1.71822E-05 1.72994E-16
1.90385E-05 1.43424E-16
2.09899E-05 1.19779E-16
2.30365E-05 1.00709E-16
2.51783E-05 8.52122E-17
2.74153E-05 7.25190E-17
2.97475E-05 6.20621E-17
3.21749E-05 5.34100E-17
3.46974E-05 4.62057E-17
3.73152E-05 4.01709E-17
4.00281E-05 3.50842E-17
4.28362E-05 3.07774E-17
4.57395E-05 2.71130E-17
4.87380E-05 2.39798E-17
5.18317E-05 2.12884E-17
5.50205E-05 1.89653E-17
5.83045E-05 1.69530E-17
6.16838E-05 1.52028E-17
6.51582E-05 1.36747E-17
6.87277E-05 1.23354E-17
7.23925E-05 1.11573E-17
7.61524E-05 1.01178E-17
9.21439E-05 7.00319E-18
1.09658E-04 5.00628E-18
1.28695E-04 3.67603E-18
1.49255E-04 2.76092E-18
1.71338E-04 2.11416E-18
1.94942E-04 1.64624E-18
2.20070E-04 1.30085E-18
2.46720E-04 1.04134E-18
2.74892E-04 8.43296E-19
3.04586E-04 6.90049E-19
3.35803E-04 5.69973E-19
3.68542E-04 4.74834E-19
4.02802E-04 3.98673E-19
4.38585E-04 3.37135E-19
4.75889E-04 2.86983E-19
5.14715E-04 2.45786E-19
5.55063E-04 2.11696E-19
5.96931E-04 1.83296E-19
6.40321E-04 1.59487E-19
6.85233E-04 1.39408E-19
7.31665E-04 1.22382E-19
7.79618E-04 1.07868E-19
8.29092E-04 9.54383E-20
8.80086E-04 8.47434E-20
9.32601E-04 7.55005E-20
9.86636E-04 6.74806E-20
1.04219E-03 6.04952E-20
1.09927E-03 5.43885E-20
1.15786E-03 4.90310E-20
1.21797E-03 4.43156E-20
1.27961E-03 4.01524E-20
1.34276E-03 3.64657E-20
1.40743E-03 3.31914E-20
1.47362E-03 3.02758E-20
1.54133E-03 2.76727E-20
1.61056E-03 2.53428E-20
1.68131E-03 2.32525E-20
1.75357E-03 2.13729E-20
1.82735E-03 1.96790E-20
1.90265E-03 1.81493E-20
1.97947E-03 1.67651E-20
2.05780E-03 1.55101E-20
2.13765E-03 1.43701E-20
2.21902E-03 1.33327E-20
2.30190E-03 1.23871E-20
2.38630E-03 1.15237E-20
2.47222E-03 1.07341E-20
2.55965E-03 1.00108E-20
2.64859E-03 9.34733E-21
2.73905E-03 8.73780E-21
2.83103E-03 8.17705E-21
2.92452E-03 7.66048E-21
3.01952E-03 7.18398E-21
3.11604E-03 6.74388E-21
3.21407E-03 6.33691E-21
3.31362E-03 5.96011E-21
3.41468E-03 5.61085E-21
3.51725E-03 5.28675E-21
3.62133E-03 4.98567E-21
3.72692E-03 4.70567E-21
3.83403E-03 4.44502E-21
3.94265E-03 4.20213E-21
4.05278E-03 3.97556E-21
4.16442E-03 3.76403E-21
4.27757E-03 3.56635E-21
4.39223E-03 3.38146E-21
4.50840E-03 3.20836E-21
4.62608E-03 3.04617E-21
4.74527E-03 2.89409E-21
4.86597E-03 2.75135E-21
4.98817E-03 2.61729E-21
5.11188E-03 2.49127E-21
5.23711E-03 2.37273E-21
5.36383E-03 2.26114E-21
5.49207E-03 2.15602E-21
5.62181E-03 2.05692E-21
5.75306E-03 1.96344E-21
5.88581E-03 1.87520E-21
6.02007E-03 1.79184E-21
6.15583E-03 1.71305E-21
6.29310E-03 1.63854E-21
6.43187E-03 1.56802E-21
6.57214E-03 1.50125E-21
6.71392E-03 1.43799E-21
6.85720E-03 1.37801E-21
7.00198E-03 1.32112E-21
7.14827E-03 1.26713E-21
7.29605E-03 1.21586E-21
7.44534E-03 1.16715E-21
7.59612E-03 1.12084E-21
7.97965E-03 1.01470E-21
8.37255E-03 9.20799E-22
8.77480E-03 8.37483E-22
9.18641E-03 7.63356E-22
9.60736E-03 6.97229E-22
1.00376E-02 6.38090E-22
1.04773E-02 5.85072E-22
1.09262E-02 5.37431E-22
1.13844E-02 4.94527E-22
1.18520E-02 4.55807E-22
1.23288E-02 4.20791E-22
1.28150E-02 3.89063E-22
1.33104E-02 3.60260E-22
1.38150E-02 3.34064E-22
1.43290E-02 3.10198E-22
1.48521E-02 2.88418E-22
1.53845E-02 2.68510E-22
1.59262E-02 2.50283E-22
1.64770E-02 2.33572E-22
1.70371E-02 2.18226E-22
1.76063E-02 2.04115E-22
1.81848E-02 1.91122E-22
1.87724E-02 1.79142E-22
1.93692E-02 1.68083E-22
1.99751E-02 1.57860E-22
2.05901E-02 1.48399E-22
2.12143E-02 1.39633E-22
2.18476E-02 1.31502E-22
2.24900E-02 1.23952E-22
2.31415E-02 1.16933E-22
2.38021E-02 1.10401E-22
2.44717E-02 1.04318E-22
2.51504E-02 9.86449E-23
2.58382E-02 9.33507E-23
2.65349E-02 8.84050E-23
2.72407E-02 8.37809E-23
2.79555E-02 7.94535E-23
2.86793E-02 7.54005E-23
2.94120E-02 7.16012E-23
3.01537E-02 6.80368E-23
3.09043E-02 6.46902E-23
3.16639E-02 6.15457E-23
3.24324E-02 5.85888E-23
3.32098E-02 5.58063E-23
3.39961E-02 5.31860E-23
3.47912E-02 5.07167E-23
3.55952E-02 4.83882E-23
3.64081E-02 4.61910E-23
3.72297E-02 4.41162E-23
3.80602E-02 4.21559E-23
3.88995E-02 4.03025E-23
3.97476E-02 3.85492E-23
4.06044E-02 3.68895E-23
4.14700E-02 3.53176E-23
4.23443E-02 3.38279E-23
4.32273E-02 3.24154E-23
4.41190E-02 3.10752E-23
4.50194E-02 2.98032E-23
4.59284E-02 2.85950E-23
4.68461E-02 2.74470E-23
4.87074E-02 2.53174E-23
5.06030E-02 2.33889E-23
5.25328E-02 2.16391E-23
5.44967E-02 2.00487E-23
5.64946E-02 1.86005E-23
5.85262E-02 1.72796E-23
6.05914E-02 1.60729E-23
6.26901E-02 1.49688E-23
6.48222E-02 1.39571E-23
6.69873E-02 1.30285E-23
6.91854E-02 1.21752E-23
7.14163E-02 1.13900E-23
7.36799E-02 1.06663E-23
7.59760E-02 9.99869E-24
7.83043E-02 9.38191E-24
8.06647E-02 8.81145E-24
8.30571E-02 8.28320E-24
8.54812E-02 7.79350E-24
8.79369E-02 7.33903E-24
9.04240E-02 6.91682E-24
9.29422E-02 6.52415E-24
9.54915E-02 6.15861E-24
9.80716E-02 5.81798E-24
1.00682E-01 5.50027E-24
1.03323E-01 5.20366E-24
1.05995E-01 4.92649E-24
1.08696E-01 4.66728E-24
1.11427E-01 4.42464E-24
1.14188E-01 4.19733E-24
1.16978E-01 3.98421E-24
1.19797E-01 3.78424E-24
1.22645E-01 3.59645E-24
1.25522E-01 3.41998E-24
1.28428E-01 3.25403E-24
1.31361E-01 3.09784E-24
1.34323E-01 2.95076E-24
1.37313E-01 2.81214E-24
1.40330E-01 2.68142E-24
1.43375E-01 2.55807E-24
1.46447E-01 2.44160E-24
1.49545E-01 2.33155E-24
1.52671E-01 2.22751E-24
1.55823E-01 2.12909E-24
1.59001E-01 2.03593E-24
1.62205E-01 1.94771E-24
1.65435E-01 1.86411E-24
1.68690E-01 1.78485E-24
1.71970E-01 1.70966E-24
1.75276E-01 1.63830E-24
1.78606E-01 1.57054E-24
1.81961E-01 1.50616E-24
1.85340E-01 1.44497E-24
1.88743E-01 1.38678E-24
1.92169E-01 1.33141E-24
1.95619E-01 1.27870E-24
1.99092E-01 1.22851E-24
2.02589E-01 1.18069E-24
2.06107E-01 1.13512E-24
2.09649E-01 1.09165E-24
2.13212E-01 1.05019E-24
2.16797E-01 1.01062E-24
2.20404E-01 9.72846E-25
2.24032E-01 9.36764E-25
2.27680E-01 9.02287E-25
2.31350E-01 8.69332E-25
2.35040E-01 8.37819E-25
2.38751E-01 8.07675E-25
2.42481E-01 7.78828E-25
2.46231E-01 7.51215E-25
2.50000E-01 7.24772E-25
2.53788E-01 6.99441E-25
2.57595E-01 6.75167E-25
2.61421E-01 6.51899E-25
2.65264E-01 6.29587E-25
2.69126E-01 6.08184E-25
2.73005E-01 5.87649E-25
2.76901E-01 5.67938E-25
2.80814E-01 5.49014E-25
2.84744E-01 5.30839E-25
2.88691E-01 5.13378E-25
2.92653E-01 4.96599E-25
2.96632E-01 4.80470E-25
3.00625E-01 4.64962E-25
3.04634E-01 4.50046E-25
3.08658E-01 4.35696E-25
3.12697E-01 4.21887E-25
3.16749E-01 4.08595E-25
3.20816E-01 3.95796E-25
3.24896E-01 3.83470E-25
3.28990E-01 3.71597E-25
3.33097E-01 3.60155E-25
3.37216E-01 3.49128E-25
3.41348E-01 3.38498E-25
3.45492E-01 3.28247E-25
3.49647E-01 3.18360E-25
3.53814E-01 3.08821E-25
3.57992E-01 2.99617E-25
3.62181E-01 2.90734E-25
3.66381E-01 2.82158E-25
3.70590E-01 2.73877E-25
3.74810E-01 2.65879E-25
3.79039E-01 2.58153E-25
3.83277E-01 2.50688E-25
3.87524E-01 2.43473E-25
3.91780E-01 2.36499E-25
3.96044E-01 2.29757E-25
4.00316E-01 2.23237E-25
4.04596E-01 2.16931E-25
4.08882E-01 2.10830E-25
4.13176E-01 2.04927E-25
4.17476E-01 1.99214E-25
4.21783E-01 1.93685E-25
4.26095E-01 1.88331E-25
4.30413E-01 1.83148E-25
4.34737E-01 1.78127E-25
4.39065E-01 1.73265E-25
4.43398E-01 1.68553E-25
4.47736E-01 1.63988E-25
4.52077E-01 1.59564E-25
4.56422E-01 1.55275E-25
4.60770E-01 1.51117E-25
4.65122E-01 1.47086E-25
4.69476E-01 1.43176E-25
4.73832E-01 1.39383E-25
4.78190E-01 1.35704E-25
4.82550E-01 1.32135E-25
4.86912E-01 1.28671E-25
4.91274E-01 1.25309E-25
4.95637E-01 1.22045E-25
5.00000E-01 1.18877E-25
5.04363E-01 1.15800E-25
5.08726E-01 1.12813E-25
5.13088E-01 1.09911E-25
5.17450E-01 1.07092E-25
5.21810E-01 1.04353E-25
5.26168E-01 1.01692E-25
5.30524E-01 9.91057E-26
5.34878E-01 9.65921E-26
5.39230E-01 9.41487E-26
5.43578E-01 9.17732E-26
5.47923E-01 8.94635E-26
5.52264E-01 8.72173E-26
5.56602E-01 8.50328E-26
5.60935E-01 8.29079E-26
5.65263E-01 8.08408E-26
5.69587E-01 7.88296E-26
5.73905E-01 7.68727E-26
5.78217E-01 7.49682E-26
5.82524E-01 7.31146E-26
5.86824E-01 7.13103E-26
5.91118E-01 6.95538E-26
5.95404E-01 6.78437E-26
5.99684E-01 6.61785E-26
6.03956E-01 6.45569E-26
6.08220E-01 6.29775E-26
6.12476E-01 6.14392E-26
6.16723E-01 5.99406E-26
6.20961E-01 5.84806E-26
6.25190E-01 5.70580E-26
6.29410E-01 5.56718E-26
6.33619E-01 5.43209E-26
6.37819E-01 5.30043E-26
6.42008E-01 5.17209E-26
6.46186E-01 5.04698E-26
6.50353E-01 4.92501E-26
6.54508E-01 4.80609E-26
6.58652E-01 4.69012E-26
6.62784E-01 4.57704E-26
6.66903E-01 4.46675E-26
6.71010E-01 4.35918E-26
6.75104E-01 4.25424E-26
6.79184E-01 4.15188E-26
6.83251E-01 4.05201E-26
6.87303E-01 3.95457E-26
6.91342E-01 3.85949E-26
6.95366E-01 3.76670E-26
6.99375E-01 3.67615E-26
7.03368E-01 3.58777E-26
7.07347E-01 3.50151E-26
7.11309E-01 3.41730E-26
7.15256E-01 3.33510E-26
7.19186E-01 3.25484E-26
7.23099E-01 3.17648E-26
7.26995E-01 3.09996E-26
7.30874E-01 3.02525E-26
7.34736E-01 2.95228E-26
7.38579E-01 2.88103E-26
7.42405E-01 2.81143E-26
7.46212E-01 2.74345E-26
7.50000E-01 2.67704E-26
7.53769E-01 2.61218E-26
7.57519E-01 2.54881E-26
7.61249E-01 2.48689E-26
7.64960E-01 2.42640E-26
7.68650E-01 2.36730E-26
7.72320E-01 2.30955E-26
7.75968E-01 2.25311E-26
7.79596E-01 2.19796E-26
7.83203E-01 2.14406E-26
7.86788E-01 2.09139E-26
7.90351E-01 2.03991E-26
7.93893E-01 1.98959E-26
7.97411E-01 1.94040E-26
8.00908E-01 1.89232E-26
8.04381E-01 1.84533E-26
8.07831E-01 1.79939E-26
8.11257E-01 1.75447E-26
8.14660E-01 1.71057E-26
8.18039E-01 1.66764E-26
8.21394E-01 1.62567E-26
8.24724E-01 1.58464E-26
8.28030E-01 1.54453E-26
8.31310E-01 1.50530E-26
8.34565E-01 1.46695E-26
8.37795E-01 1.42945E-26
8.40999E-01 1.39279E-26
8.44177E-01 1.35694E-26
8.47329E-01 1.32188E-26
8.50455E-01 1.28760E-26
8.53553E-01 1.25409E-26
8.56625E-01 1.22131E-26
8.59670E-01 1.18927E-26
8.62687E-01 1.15793E-26
8.65677E-01 1.12729E-26
8.68639E-01 1.09733E-26
8.71572E-01 1.06804E-26
8.74478E-01 1.03940E-26
8.77355E-01 1.01139E-26
8.80203E-01 9.84012E-27
8.83022E-01 9.57242E-27
8.85812E-01 9.31071E-27
8.88573E-01 9.05485E-27
8.91304E-01 8.80472E-27
8.94005E-01 8.56022E-27
8.96677E-01 8.32121E-27
8.99318E-01 8.08760E-27
9.01928E-01 7.85926E-27
9.04508E-01 7.63611E-27
9.07058E-01 7.41803E-27
9.09576E-01 7.20492E-27
9.12063E-01 6.99668E-27
9.14519E-01 6.79323E-27
9.16943E-01 6.59447E-27
9.19335E-01 6.40031E-27
9.21696E-01 6.21067E-27
9.24024E-01 6.02545E-27
9.26320E-01 5.84458E-27
9.28584E-01 5.66798E-27
9.30815E-01 5.49556E-27
9.33013E-01 5.32726E-27
9.35178E-01 5.16299E-27
9.37310E-01 5.00270E-27
9.39409E-01 4.84630E-27
9.41474E-01 4.69373E-27
9.43505E-01 4.54493E-27
9.45503E-01 4.39983E-27
9.47467E-01 4.25836E-27
9.49397E-01 4.12048E-27
9.51293E-01 3.98611E-27
9.53154E-01 3.85521E-27
9.54981E-01 3.72772E-27
9.56773E-01 3.60358E-27
9.58530E-01 3.48274E-27
9.60252E-01 3.36516E-27
9.61940E-01 3.25078E-27
9.63592E-01 3.13955E-27
9.65209E-01 3.03143E-27
9.66790E-01 2.92638E-27
9.68336E-01 2.82435E-27
9.69846E-01 2.72530E-27
9.71321E-01 2.62918E-27
9.72759E-01 2.53597E-27
9.74162E-01 2.44562E-27
9.75528E-01 2.35810E-27
9.76858E-01 2.27336E-27
9.78152E-01 2.19138E-27
9.79410E-01 2.11212E-27
9.80631E-01 2.03556E-27
9.81815E-01 1.96165E-27
9.82963E-01 1.89037E-27
9.84074E-01 1.82170E-27
9.85148E-01 1.75560E-27
9.86185E-01 1.69205E-27
9.87185E-01 1.63102E-27
9.88148E-01 1.57249E-27
9.89074E-01 1.51644E-27
9.89962E-01 1.46284E-27
9.90814E-01 1.41167E-27
9.91627E-01 1.36292E-27
9.92404E-01 1.31655E-27
9.93143E-01 1.27257E-27
9.93844E-01 1.23094E-27
9.94508E-01 1.19165E-27
9.95134E-01 1.15469E-27
9.95722E-01 1.12004E-27
9.96273E-01 1.08768E-27
9.96786E-01 1.05762E-27
9.97261E-01 1.02982E-27
9.97698E-01 1.00429E-27
9.98097E-01 9.81015E-28
9.98459E-01 9.59982E-28
9.98782E-01 9.41185E-28
9.99067E-01 9.24616E-28
9.99315E-01 9.10269E-28
9.99524E-01 8.98139E-28
9.99695E-01 8.88221E-28
9.99829E-01 8.80511E-28
9.99924E-01 8.75005E-28
9.99981E-01 8.71703E-28
1.00000E+00 8.70606E-28
