 #
 # Subroutine ELSEPA. Elastic scattering of electrons and positrons
 #                    by neutral atoms and positive ions
 #
 # Projectile: positron
 # Kinetic energy = 8.00000E+07 eV = 2.93995E+06 a.u.
 #
 # WARNING: High-energy factorization with free-atom DF screening.
 #          Absorption, polarization and exchange corrections are
 #          switched off.
 #          Phase shifts are calculated for the bare nucleus.
 #          Scattering amplitudes are not evaluated.
 #
 # Element:  S,  Z =  16,  atomic weight = 3.20660E+01 g/mol
 #
 # Nuclear model: Fermi distribution
 #                Average radius = 3.39937E-13 cm
 #                Skin thickness = 5.46000E-14 cm
 #
 # Number of electrons = 16
 #
 # Total elastic cross section = 1.04576E-18 cm**2 = 3.73448E-02 a0**2
 # 1st transport cross section = 8.20892E-26 cm**2 = 2.93146E-09 a0**2
 # 2nd transport cross section = 2.42367E-25 cm**2 = 8.65509E-09 a0**2
 #
 #
 # Differential cross section:                       MU=(1-COS(THETA))/2
 #
 #  THETA        MU          DCS          DCS        Sherman      error
 #  (deg)                 (cm**2/sr)   (a0**2/sr)    function
 #----------------------------------------------------------------------
0.00000E+00 6.60347E-11
7.61557E-13 6.59570E-11
1.18994E-12 6.59137E-11
1.71346E-12 6.58609E-11
2.33225E-12 6.57986E-11
3.04617E-12 6.57269E-11
3.85530E-12 6.56458E-11
4.75964E-12 6.55553E-11
5.75917E-12 6.54555E-11
6.85391E-12 6.53465E-11
8.04379E-12 6.52283E-11
9.32893E-12 6.51012E-11
1.07092E-11 6.49648E-11
1.21847E-11 6.48197E-11
1.37554E-11 6.46654E-11
1.54213E-11 6.45027E-11
1.71823E-11 6.43311E-11
1.90386E-11 6.41510E-11
2.09900E-11 6.39626E-11
2.30367E-11 6.37655E-11
2.51785E-11 6.35607E-11
2.74156E-11 6.33471E-11
2.97478E-11 6.31260E-11
3.21752E-11 6.28967E-11
3.46979E-11 6.26598E-11
3.73157E-11 6.24155E-11
4.00286E-11 6.21632E-11
4.28368E-11 6.19044E-11
4.57402E-11 6.16373E-11
4.87388E-11 6.13641E-11
5.18325E-11 6.10834E-11
5.50215E-11 6.07962E-11
5.83057E-11 6.05025E-11
6.16850E-11 6.02020E-11
6.51595E-11 5.98961E-11
6.87293E-11 5.95827E-11
7.23943E-11 5.92647E-11
7.61544E-11 5.89397E-11
1.18991E-10 5.54131E-11
1.71347E-10 5.14927E-11
2.33223E-10 4.73411E-11
3.04617E-10 4.29637E-11
3.85531E-10 3.88867E-11
4.75965E-10 3.47943E-11
5.75917E-10 3.10333E-11
6.85389E-10 2.75249E-11
8.04380E-10 2.42951E-11
9.32891E-10 2.14413E-11
1.07092E-09 1.88041E-11
1.21847E-09 1.65397E-11
1.37554E-09 1.44809E-11
1.54213E-09 1.27120E-11
1.71823E-09 1.11520E-11
1.90386E-09 9.79572E-12
2.09900E-09 8.62255E-12
2.30367E-09 7.59379E-12
2.51785E-09 6.71214E-12
2.74156E-09 5.93658E-12
2.97478E-09 5.26999E-12
3.21752E-09 4.68805E-12
3.46978E-09 4.18315E-12
3.73156E-09 3.74347E-12
4.00286E-09 3.35918E-12
4.28368E-09 3.02414E-12
4.57402E-09 2.72957E-12
4.87388E-09 2.47153E-12
5.18326E-09 2.24403E-12
5.50215E-09 2.04338E-12
5.83057E-09 1.86578E-12
6.16850E-09 1.70813E-12
6.51596E-09 1.56790E-12
6.87293E-09 1.44271E-12
7.23942E-09 1.33078E-12
7.61544E-09 1.23030E-12
1.18991E-08 6.22842E-13
1.71347E-08 3.59187E-13
2.33223E-08 2.23031E-13
3.04617E-08 1.44839E-13
3.85531E-08 9.74856E-14
4.75965E-08 6.74708E-14
5.75917E-08 4.78160E-14
6.85389E-08 3.46884E-14
8.04380E-08 2.56659E-14
9.32891E-08 1.93638E-14
1.07092E-07 1.48643E-14
1.21847E-07 1.15930E-14
1.37554E-07 9.17393E-15
1.54213E-07 7.35483E-15
1.71823E-07 5.96734E-15
1.90386E-07 4.89390E-15
2.09900E-07 4.05306E-15
2.30367E-07 3.38668E-15
2.51785E-07 2.85280E-15
2.74156E-07 2.42097E-15
2.97478E-07 2.06837E-15
3.21752E-07 1.77817E-15
3.46978E-07 1.53743E-15
3.73156E-07 1.33631E-15
4.00286E-07 1.16721E-15
4.28368E-07 1.02410E-15
4.57402E-07 9.02364E-16
4.87388E-07 7.98220E-16
5.18325E-07 7.08710E-16
5.50215E-07 6.31421E-16
5.83057E-07 5.64383E-16
6.16850E-07 5.06022E-16
6.51596E-07 4.54997E-16
6.87293E-07 4.10245E-16
7.23942E-07 3.70852E-16
7.61543E-07 3.36067E-16
1.18991E-06 1.40469E-16
1.71347E-06 6.84981E-17
2.33223E-06 3.72059E-17
3.04617E-06 2.18896E-17
3.85531E-06 1.36963E-17
4.75964E-06 8.99882E-18
5.75916E-06 6.15194E-18
6.85388E-06 4.34631E-18
8.04378E-06 3.15681E-18
9.32888E-06 2.34762E-18
1.07092E-05 1.78178E-18
1.21846E-05 1.37655E-18
1.37553E-05 1.08021E-18
1.54212E-05 8.59472E-19
1.71822E-05 6.92334E-19
1.90385E-05 5.63931E-19
2.09899E-05 4.63954E-19
2.30365E-05 3.85167E-19
2.51783E-05 3.22397E-19
2.74153E-05 2.71901E-19
2.97475E-05 2.30915E-19
3.21749E-05 1.97370E-19
3.46974E-05 1.69704E-19
3.73152E-05 1.46720E-19
4.00281E-05 1.27499E-19
4.28362E-05 1.11324E-19
4.57395E-05 9.76334E-20
4.87380E-05 8.59827E-20
5.18317E-05 7.60183E-20
5.50205E-05 6.74560E-20
5.83045E-05 6.00659E-20
6.16838E-05 5.36608E-20
6.51582E-05 4.80873E-20
6.87277E-05 4.32190E-20
7.23925E-05 3.89514E-20
7.61524E-05 3.51943E-20
9.21439E-05 2.40301E-20
1.09658E-04 1.69615E-20
1.28695E-04 1.23105E-20
1.49255E-04 9.14942E-21
1.71338E-04 6.94067E-21
1.94942E-04 5.35968E-21
2.20070E-04 4.20417E-21
2.46720E-04 3.34379E-21
2.74892E-04 2.69257E-21
3.04586E-04 2.19237E-21
3.35803E-04 1.80304E-21
3.68542E-04 1.49638E-21
4.02802E-04 1.25218E-21
4.38585E-04 1.05580E-21
4.75889E-04 8.96421E-22
5.14715E-04 7.65989E-22
5.55063E-04 6.58422E-22
5.96931E-04 5.69074E-22
6.40321E-04 4.94367E-22
6.85233E-04 4.31515E-22
7.31665E-04 3.78331E-22
7.79618E-04 3.33086E-22
8.29092E-04 2.94399E-22
8.80086E-04 2.61162E-22
9.32601E-04 2.32481E-22
9.86636E-04 2.07626E-22
1.04219E-03 1.86001E-22
1.09927E-03 1.67116E-22
1.15786E-03 1.50564E-22
1.21797E-03 1.36009E-22
1.27961E-03 1.23168E-22
1.34276E-03 1.11805E-22
1.40743E-03 1.01720E-22
1.47362E-03 9.27451E-23
1.54133E-03 8.47368E-23
1.61056E-03 7.75729E-23
1.68131E-03 7.11488E-23
1.75357E-03 6.53748E-23
1.82735E-03 6.01737E-23
1.90265E-03 5.54785E-23
1.97947E-03 5.12315E-23
2.05780E-03 4.73822E-23
2.13765E-03 4.38870E-23
2.21902E-03 4.07073E-23
2.30190E-03 3.78098E-23
2.38630E-03 3.51649E-23
2.47222E-03 3.27466E-23
2.55965E-03 3.05321E-23
2.64859E-03 2.85012E-23
2.73905E-03 2.66359E-23
2.83103E-03 2.49202E-23
2.92452E-03 2.33401E-23
3.01952E-03 2.18829E-23
3.11604E-03 2.05372E-23
3.21407E-03 1.92931E-23
3.31362E-03 1.81415E-23
3.41468E-03 1.70742E-23
3.51725E-03 1.60840E-23
3.62133E-03 1.51643E-23
3.72692E-03 1.43091E-23
3.83403E-03 1.35132E-23
3.94265E-03 1.27716E-23
4.05278E-03 1.20800E-23
4.16442E-03 1.14344E-23
4.27757E-03 1.08312E-23
4.39223E-03 1.02671E-23
4.50840E-03 9.73903E-24
4.62608E-03 9.24436E-24
4.74527E-03 8.78055E-24
4.86597E-03 8.34534E-24
4.98817E-03 7.93663E-24
5.11188E-03 7.55252E-24
5.23711E-03 7.19125E-24
5.36383E-03 6.85122E-24
5.49207E-03 6.53094E-24
5.62181E-03 6.22907E-24
5.75306E-03 5.94435E-24
5.88581E-03 5.67562E-24
6.02007E-03 5.42182E-24
6.15583E-03 5.18197E-24
6.29310E-03 4.95516E-24
6.43187E-03 4.74056E-24
6.57214E-03 4.53737E-24
6.71392E-03 4.34489E-24
6.85720E-03 4.16245E-24
7.00198E-03 3.98942E-24
7.14827E-03 3.82524E-24
7.29605E-03 3.66936E-24
7.44534E-03 3.52128E-24
7.59612E-03 3.38055E-24
7.97965E-03 3.05810E-24
8.37255E-03 2.77293E-24
8.77480E-03 2.52002E-24
9.18641E-03 2.29509E-24
9.60736E-03 2.09452E-24
1.00376E-02 1.91522E-24
1.04773E-02 1.75455E-24
1.09262E-02 1.61024E-24
1.13844E-02 1.48033E-24
1.18520E-02 1.36315E-24
1.23288E-02 1.25723E-24
1.28150E-02 1.16130E-24
1.33104E-02 1.07425E-24
1.38150E-02 9.95130E-25
1.43290E-02 9.23082E-25
1.48521E-02 8.57365E-25
1.53845E-02 7.97327E-25
1.59262E-02 7.42392E-25
1.64770E-02 6.92051E-25
1.70371E-02 6.45851E-25
1.76063E-02 6.03394E-25
1.81848E-02 5.64322E-25
1.87724E-02 5.28320E-25
1.93692E-02 4.95103E-25
1.99751E-02 4.64418E-25
2.05901E-02 4.36038E-25
2.12143E-02 4.09761E-25
2.18476E-02 3.85403E-25
2.24900E-02 3.62799E-25
2.31415E-02 3.41801E-25
2.38021E-02 3.22274E-25
2.44717E-02 3.04098E-25
2.51504E-02 2.87163E-25
2.58382E-02 2.71369E-25
2.65349E-02 2.56626E-25
2.72407E-02 2.42851E-25
2.79555E-02 2.29971E-25
2.86793E-02 2.17916E-25
2.94120E-02 2.06624E-25
3.01537E-02 1.96039E-25
3.09043E-02 1.86109E-25
3.16639E-02 1.76786E-25
3.24324E-02 1.68027E-25
3.32098E-02 1.59791E-25
3.39961E-02 1.52042E-25
3.47912E-02 1.44746E-25
3.55952E-02 1.37871E-25
3.64081E-02 1.31390E-25
3.72297E-02 1.25276E-25
3.80602E-02 1.19504E-25
3.88995E-02 1.14052E-25
3.97476E-02 1.08899E-25
4.06044E-02 1.04026E-25
4.14700E-02 9.94154E-26
4.23443E-02 9.50498E-26
4.32273E-02 9.09144E-26
4.41190E-02 8.69950E-26
4.50194E-02 8.32781E-26
4.59284E-02 7.97517E-26
4.68461E-02 7.64043E-26
4.87074E-02 7.02044E-26
5.06030E-02 6.46016E-26
5.25328E-02 5.95292E-26
5.44967E-02 5.49288E-26
5.64946E-02 5.07494E-26
5.85262E-02 4.69463E-26
6.05914E-02 4.34802E-26
6.26901E-02 4.03163E-26
6.48222E-02 3.74241E-26
6.69873E-02 3.47766E-26
6.91854E-02 3.23498E-26
7.14163E-02 3.01222E-26
7.36799E-02 2.80751E-26
7.59760E-02 2.61913E-26
7.83043E-02 2.44559E-26
8.06647E-02 2.28554E-26
8.30571E-02 2.13775E-26
8.54812E-02 2.00114E-26
8.79369E-02 1.87474E-26
9.04240E-02 1.75766E-26
9.29422E-02 1.64911E-26
9.54915E-02 1.54838E-26
9.80716E-02 1.45480E-26
1.00682E-01 1.36781E-26
1.03323E-01 1.28685E-26
1.05995E-01 1.21146E-26
1.08696E-01 1.14118E-26
1.11427E-01 1.07563E-26
1.14188E-01 1.01443E-26
1.16978E-01 9.57255E-27
1.19797E-01 9.03798E-27
1.22645E-01 8.53783E-27
1.25522E-01 8.06955E-27
1.28428E-01 7.63082E-27
1.31361E-01 7.21949E-27
1.34323E-01 6.83362E-27
1.37313E-01 6.47139E-27
1.40330E-01 6.13115E-27
1.43375E-01 5.81137E-27
1.46447E-01 5.51066E-27
1.49545E-01 5.22770E-27
1.52671E-01 4.96131E-27
1.55823E-01 4.71038E-27
1.59001E-01 4.47389E-27
1.62205E-01 4.25090E-27
1.65435E-01 4.04052E-27
1.68690E-01 3.84195E-27
1.71970E-01 3.65443E-27
1.75276E-01 3.47727E-27
1.78606E-01 3.30981E-27
1.81961E-01 3.15147E-27
1.85340E-01 3.00166E-27
1.88743E-01 2.85988E-27
1.92169E-01 2.72563E-27
1.95619E-01 2.59847E-27
1.99092E-01 2.47798E-27
2.02589E-01 2.36375E-27
2.06107E-01 2.25542E-27
2.09649E-01 2.15265E-27
2.13212E-01 2.05512E-27
2.16797E-01 1.96253E-27
2.20404E-01 1.87459E-27
2.24032E-01 1.79105E-27
2.27680E-01 1.71165E-27
2.31350E-01 1.63617E-27
2.35040E-01 1.56439E-27
2.38751E-01 1.49610E-27
2.42481E-01 1.43113E-27
2.46231E-01 1.36928E-27
2.50000E-01 1.31039E-27
2.53788E-01 1.25430E-27
2.57595E-01 1.20087E-27
2.61421E-01 1.14995E-27
2.65264E-01 1.10141E-27
2.69126E-01 1.05513E-27
2.73005E-01 1.01099E-27
2.76901E-01 9.68885E-28
2.80814E-01 9.28705E-28
2.84744E-01 8.90355E-28
2.88691E-01 8.53742E-28
2.92653E-01 8.18779E-28
2.96632E-01 7.85385E-28
3.00625E-01 7.53480E-28
3.04634E-01 7.22993E-28
3.08658E-01 6.93853E-28
3.12697E-01 6.65996E-28
3.16749E-01 6.39357E-28
3.20816E-01 6.13880E-28
3.24896E-01 5.89508E-28
3.28990E-01 5.66189E-28
3.33097E-01 5.43872E-28
3.37216E-01 5.22511E-28
3.41348E-01 5.02060E-28
3.45492E-01 4.82477E-28
3.49647E-01 4.63721E-28
3.53814E-01 4.45755E-28
3.57992E-01 4.28542E-28
3.62181E-01 4.12047E-28
3.66381E-01 3.96239E-28
3.70590E-01 3.81084E-28
3.74810E-01 3.66555E-28
3.79039E-01 3.52623E-28
3.83277E-01 3.39261E-28
3.87524E-01 3.26444E-28
3.91780E-01 3.14148E-28
3.96044E-01 3.02349E-28
4.00316E-01 2.91026E-28
4.04596E-01 2.80158E-28
4.08882E-01 2.69726E-28
4.13176E-01 2.59709E-28
4.17476E-01 2.50091E-28
4.21783E-01 2.40854E-28
4.26095E-01 2.31982E-28
4.30413E-01 2.23459E-28
4.34737E-01 2.15270E-28
4.39065E-01 2.07402E-28
4.43398E-01 1.99840E-28
4.47736E-01 1.92572E-28
4.52077E-01 1.85585E-28
4.56422E-01 1.78869E-28
4.60770E-01 1.72410E-28
4.65122E-01 1.66200E-28
4.69476E-01 1.60227E-28
4.73832E-01 1.54482E-28
4.78190E-01 1.48955E-28
4.82550E-01 1.43638E-28
4.86912E-01 1.38522E-28
4.91274E-01 1.33599E-28
4.95637E-01 1.28861E-28
5.00000E-01 1.24300E-28
5.04363E-01 1.19910E-28
5.08726E-01 1.15684E-28
5.13088E-01 1.11615E-28
5.17450E-01 1.07696E-28
5.21810E-01 1.03923E-28
5.26168E-01 1.00289E-28
5.30524E-01 9.67882E-29
5.34878E-01 9.34161E-29
5.39230E-01 9.01674E-29
5.43578E-01 8.70373E-29
5.47923E-01 8.40212E-29
5.52264E-01 8.11146E-29
5.56602E-01 7.83134E-29
5.60935E-01 7.56134E-29
5.65263E-01 7.30108E-29
5.69587E-01 7.05018E-29
5.73905E-01 6.80829E-29
5.78217E-01 6.57505E-29
5.82524E-01 6.35015E-29
5.86824E-01 6.13327E-29
5.91118E-01 5.92409E-29
5.95404E-01 5.72234E-29
5.99684E-01 5.52773E-29
6.03956E-01 5.33999E-29
6.08220E-01 5.15887E-29
6.12476E-01 4.98412E-29
6.16723E-01 4.81550E-29
6.20961E-01 4.65279E-29
6.25190E-01 4.49576E-29
6.29410E-01 4.34421E-29
6.33619E-01 4.19792E-29
6.37819E-01 4.05672E-29
6.42008E-01 3.92041E-29
6.46186E-01 3.78882E-29
6.50353E-01 3.66177E-29
6.54508E-01 3.53909E-29
6.58652E-01 3.42063E-29
6.62784E-01 3.30623E-29
6.66903E-01 3.19575E-29
6.71010E-01 3.08905E-29
6.75104E-01 2.98599E-29
6.79184E-01 2.88643E-29
6.83251E-01 2.79026E-29
6.87303E-01 2.69735E-29
6.91342E-01 2.60758E-29
6.95366E-01 2.52085E-29
6.99375E-01 2.43704E-29
7.03368E-01 2.35606E-29
7.07347E-01 2.27779E-29
7.11309E-01 2.20215E-29
7.15256E-01 2.12905E-29
7.19186E-01 2.05839E-29
7.23099E-01 1.99008E-29
7.26995E-01 1.92406E-29
7.30874E-01 1.86023E-29
7.34736E-01 1.79851E-29
7.38579E-01 1.73885E-29
7.42405E-01 1.68116E-29
7.46212E-01 1.62537E-29
7.50000E-01 1.57142E-29
7.53769E-01 1.51926E-29
7.57519E-01 1.46880E-29
7.61249E-01 1.42000E-29
7.64960E-01 1.37281E-29
7.68650E-01 1.32715E-29
7.72320E-01 1.28299E-29
7.75968E-01 1.24027E-29
7.79596E-01 1.19894E-29
7.83203E-01 1.15896E-29
7.86788E-01 1.12027E-29
7.90351E-01 1.08284E-29
7.93893E-01 1.04662E-29
7.97411E-01 1.01157E-29
8.00908E-01 9.77659E-30
8.04381E-01 9.44838E-30
8.07831E-01 9.13075E-30
8.11257E-01 8.82333E-30
8.14660E-01 8.52580E-30
8.18039E-01 8.23781E-30
8.21394E-01 7.95905E-30
8.24724E-01 7.68922E-30
8.28030E-01 7.42802E-30
8.31310E-01 7.17516E-30
8.34565E-01 6.93037E-30
8.37795E-01 6.69337E-30
8.40999E-01 6.46393E-30
8.44177E-01 6.24178E-30
8.47329E-01 6.02669E-30
8.50455E-01 5.81843E-30
8.53553E-01 5.61677E-30
8.56625E-01 5.42151E-30
8.59670E-01 5.23242E-30
8.62687E-01 5.04932E-30
8.65677E-01 4.87200E-30
8.68639E-01 4.70029E-30
8.71572E-01 4.53400E-30
8.74478E-01 4.37296E-30
8.77355E-01 4.21699E-30
8.80203E-01 4.06594E-30
8.83022E-01 3.91965E-30
8.85812E-01 3.77797E-30
8.88573E-01 3.64075E-30
8.91304E-01 3.50785E-30
8.94005E-01 3.37914E-30
8.96677E-01 3.25448E-30
8.99318E-01 3.13374E-30
9.01928E-01 3.01680E-30
9.04508E-01 2.90355E-30
9.07058E-01 2.79387E-30
9.09576E-01 2.68764E-30
9.12063E-01 2.58476E-30
9.14519E-01 2.48513E-30
9.16943E-01 2.38865E-30
9.19335E-01 2.29522E-30
9.21696E-01 2.20475E-30
9.24024E-01 2.11714E-30
9.26320E-01 2.03231E-30
9.28584E-01 1.95018E-30
9.30815E-01 1.87067E-30
9.33013E-01 1.79369E-30
9.35178E-01 1.71917E-30
9.37310E-01 1.64704E-30
9.39409E-01 1.57723E-30
9.41474E-01 1.50967E-30
9.43505E-01 1.44429E-30
9.45503E-01 1.38104E-30
9.47467E-01 1.31984E-30
9.49397E-01 1.26064E-30
9.51293E-01 1.20338E-30
9.53154E-01 1.14801E-30
9.54981E-01 1.09448E-30
9.56773E-01 1.04272E-30
9.58530E-01 9.92702E-31
9.60252E-01 9.44368E-31
9.61940E-01 8.97672E-31
9.63592E-01 8.52572E-31
9.65209E-01 8.09023E-31
9.66790E-01 7.66985E-31
9.68336E-01 7.26418E-31
9.69846E-01 6.87283E-31
9.71321E-01 6.49545E-31
9.72759E-01 6.13166E-31
9.74162E-01 5.78113E-31
9.75528E-01 5.44354E-31
9.76858E-01 5.11856E-31
9.78152E-01 4.80589E-31
9.79410E-01 4.50524E-31
9.80631E-01 4.21633E-31
9.81815E-01 3.93889E-31
9.82963E-01 3.67266E-31
9.84074E-01 3.41740E-31
9.85148E-01 3.17287E-31
9.86185E-01 2.93884E-31
9.87185E-01 2.71510E-31
9.88148E-01 2.50144E-31
9.89074E-01 2.29766E-31
9.89962E-01 2.10358E-31
9.90814E-01 1.91901E-31
9.91627E-01 1.74379E-31
9.92404E-01 1.57776E-31
9.93143E-01 1.42076E-31
9.93844E-01 1.27266E-31
9.94508E-01 1.13331E-31
9.95134E-01 1.00258E-31
9.95722E-01 8.80370E-32
9.96273E-01 7.66553E-32
9.96786E-01 6.61028E-32
9.97261E-01 5.63702E-32
9.97698E-01 4.74483E-32
9.98097E-01 3.93291E-32
9.98459E-01 3.20054E-32
9.98782E-01 2.54703E-32
9.99067E-01 1.97179E-32
9.99315E-01 1.47430E-32
9.99524E-01 1.05410E-32
9.99695E-01 7.10832E-33
9.99829E-01 4.44165E-33
9.99924E-01 2.53859E-33
9.99981E-01 1.39742E-33
1.00000E+00 1.01738E-33
