 #
 # Subroutine ELSEPA. Elastic scattering of electrons and positrons
 #                    by neutral atoms and positive ions
 #
 # Projectile: positron
 # Kinetic energy = 2.00000E+08 eV = 7.34987E+06 a.u.
 #
 # WARNING: High-energy factorization with free-atom DF screening.
 #          Absorption, polarization and exchange corrections are
 #          switched off.
 #          Phase shifts are calculated for the bare nucleus.
 #          Scattering amplitudes are not evaluated.
 #
 # Element:  S,  Z =  16,  atomic weight = 3.20660E+01 g/mol
 #
 # Nuclear model: Fermi distribution
 #                Average radius = 3.39937E-13 cm
 #                Skin thickness = 5.46000E-14 cm
 #
 # Number of electrons = 16
 #
 # Total elastic cross section = 1.04434E-18 cm**2 = 3.72941E-02 a0**2
 # 1st transport cross section = 1.35807E-26 cm**2 = 4.84977E-10 a0**2
 # 2nd transport cross section = 4.05921E-26 cm**2 = 1.44957E-09 a0**2
 #
 #
 # Differential cross section:                       MU=(1-COS(THETA))/2
 #
 #  THETA        MU          DCS          DCS        Sherman      error
 #  (deg)                 (cm**2/sr)   (a0**2/sr)    function
 #----------------------------------------------------------------------
0.00000E+00 4.09580E-10
7.61557E-13 4.06628E-10
1.18994E-12 4.04987E-10
1.71346E-12 4.02993E-10
2.33225E-12 4.00656E-10
3.04617E-12 3.97983E-10
3.85530E-12 3.94984E-10
4.75964E-12 3.91671E-10
5.75917E-12 3.88052E-10
6.85391E-12 3.84146E-10
8.04379E-12 3.79959E-10
9.32893E-12 3.75510E-10
1.07092E-11 3.70814E-10
1.21847E-11 3.65880E-10
1.37554E-11 3.60737E-10
1.54213E-11 3.55381E-10
1.71823E-11 3.49847E-10
1.90386E-11 3.44142E-10
2.09900E-11 3.38281E-10
2.30367E-11 3.32293E-10
2.51785E-11 3.26170E-10
2.74156E-11 3.19953E-10
2.97478E-11 3.13641E-10
3.21752E-11 3.07257E-10
3.46979E-11 3.00820E-10
3.73157E-11 2.94326E-10
4.00286E-11 2.87500E-10
4.28368E-11 2.80599E-10
4.57402E-11 2.73854E-10
4.87388E-11 2.67273E-10
5.18325E-11 2.60860E-10
5.50215E-11 2.54620E-10
5.83057E-11 2.48554E-10
6.16850E-11 2.42123E-10
6.51595E-11 2.35444E-10
6.87293E-11 2.28984E-10
7.23943E-11 2.22741E-10
7.61544E-11 2.16711E-10
1.18991E-10 1.61746E-10
1.71347E-10 1.17500E-10
2.33223E-10 8.49428E-11
3.04617E-10 6.13622E-11
3.85531E-10 4.47277E-11
4.75965E-10 3.30592E-11
5.75917E-10 2.48192E-11
6.85389E-10 1.89796E-11
8.04380E-10 1.47767E-11
9.32891E-10 1.17112E-11
1.07092E-09 9.43708E-12
1.21847E-09 7.72129E-12
1.37554E-09 6.40513E-12
1.54213E-09 5.37755E-12
1.71823E-09 4.56325E-12
1.90386E-09 3.90789E-12
2.09900E-09 3.37326E-12
2.30367E-09 2.93242E-12
2.51785E-09 2.56379E-12
2.74156E-09 2.25364E-12
2.97478E-09 1.98975E-12
3.21752E-09 1.76375E-12
3.46978E-09 1.56911E-12
3.73156E-09 1.40003E-12
4.00286E-09 1.25099E-12
4.28368E-09 1.12167E-12
4.57402E-09 1.01045E-12
4.87388E-09 9.09821E-13
5.18326E-09 8.21572E-13
5.50215E-09 7.44776E-13
5.83057E-09 6.74336E-13
6.16850E-09 6.12536E-13
6.51596E-09 5.57939E-13
6.87293E-09 5.07959E-13
7.23942E-09 4.63802E-13
7.61544E-09 4.24269E-13
1.18991E-08 1.87235E-13
1.71347E-08 9.35605E-14
2.33223E-08 5.16246E-14
3.04617E-08 3.08063E-14
3.85531E-08 1.95469E-14
4.75965E-08 1.30198E-14
5.75917E-08 9.01691E-15
6.85389E-08 6.44664E-15
8.04380E-08 4.73272E-15
9.32891E-08 3.55303E-15
1.07092E-07 2.71912E-15
1.21847E-07 2.11588E-15
1.37554E-07 1.67078E-15
1.54213E-07 1.33653E-15
1.71823E-07 1.08165E-15
1.90386E-07 8.84547E-16
2.09900E-07 7.30242E-16
2.30367E-07 6.08059E-16
2.51785E-07 5.10322E-16
2.74156E-07 4.31398E-16
2.97478E-07 3.67117E-16
3.21752E-07 3.14342E-16
3.46978E-07 2.70694E-16
3.73156E-07 2.34347E-16
4.00286E-07 2.03886E-16
4.28368E-07 1.78206E-16
4.57402E-07 1.56437E-16
4.87388E-07 1.37887E-16
5.18325E-07 1.22001E-16
5.50215E-07 1.08335E-16
5.83057E-07 9.65262E-17
6.16850E-07 8.62815E-17
6.51596E-07 7.73583E-17
6.87293E-07 6.95580E-17
7.23942E-07 6.27154E-17
7.61543E-07 5.66927E-17
1.18991E-06 2.32650E-17
1.71347E-06 1.12281E-17
2.33223E-06 6.06271E-18
3.04617E-06 3.55438E-18
3.85531E-06 2.21910E-18
4.75964E-06 1.45586E-18
5.75916E-06 9.94300E-19
6.85388E-06 7.01993E-19
8.04378E-06 5.09628E-19
9.32888E-06 3.78864E-19
1.07092E-05 2.87474E-19
1.21846E-05 2.22051E-19
1.37553E-05 1.74222E-19
1.54212E-05 1.38605E-19
1.71822E-05 1.11640E-19
1.90385E-05 9.09284E-20
2.09899E-05 7.48036E-20
2.30365E-05 6.20976E-20
2.51783E-05 5.19769E-20
2.74153E-05 4.38359E-20
2.97475E-05 3.72280E-20
3.21749E-05 3.18199E-20
3.46974E-05 2.73594E-20
3.73152E-05 2.36540E-20
4.00281E-05 2.05552E-20
4.28362E-05 1.79475E-20
4.57395E-05 1.57403E-20
4.87380E-05 1.38619E-20
5.18317E-05 1.22555E-20
5.50205E-05 1.08751E-20
5.83045E-05 9.68366E-21
6.16838E-05 8.65104E-21
6.51582E-05 7.75249E-21
6.87277E-05 6.96764E-21
7.23925E-05 6.27961E-21
7.61524E-05 5.67036E-21
9.21439E-05 3.87105E-21
1.09658E-04 2.73191E-21
1.28695E-04 1.98243E-21
1.49255E-04 1.47309E-21
1.71338E-04 1.11723E-21
1.94942E-04 8.62541E-22
2.20070E-04 6.76413E-22
2.46720E-04 5.37841E-22
2.74892E-04 4.32971E-22
3.04586E-04 3.52431E-22
3.35803E-04 2.89752E-22
3.68542E-04 2.40390E-22
4.02802E-04 2.01089E-22
4.38585E-04 1.69488E-22
4.75889E-04 1.43847E-22
5.14715E-04 1.22867E-22
5.55063E-04 1.05568E-22
5.96931E-04 9.12015E-23
6.40321E-04 7.91922E-23
6.85233E-04 6.90908E-23
7.31665E-04 6.05453E-23
7.79618E-04 5.32770E-23
8.29092E-04 4.70639E-23
8.80086E-04 4.17275E-23
9.32601E-04 3.71237E-23
9.86636E-04 3.31352E-23
1.04219E-03 2.96661E-23
1.09927E-03 2.66374E-23
1.15786E-03 2.39837E-23
1.21797E-03 2.16508E-23
1.27961E-03 1.95934E-23
1.34276E-03 1.77733E-23
1.40743E-03 1.61586E-23
1.47362E-03 1.47221E-23
1.54133E-03 1.34408E-23
1.61056E-03 1.22950E-23
1.68131E-03 1.12679E-23
1.75357E-03 1.03451E-23
1.82735E-03 9.51424E-24
1.90265E-03 8.76447E-24
1.97947E-03 8.08655E-24
2.05780E-03 7.47239E-24
2.13765E-03 6.91496E-24
2.21902E-03 6.40808E-24
2.30190E-03 5.94639E-24
2.38630E-03 5.52515E-24
2.47222E-03 5.14019E-24
2.55965E-03 4.78785E-24
2.64859E-03 4.46486E-24
2.73905E-03 4.16837E-24
2.83103E-03 3.89580E-24
2.92452E-03 3.64490E-24
3.01952E-03 3.41363E-24
3.11604E-03 3.20019E-24
3.21407E-03 3.00297E-24
3.31362E-03 2.82051E-24
3.41468E-03 2.65151E-24
3.51725E-03 2.49480E-24
3.62133E-03 2.34934E-24
3.72692E-03 2.21417E-24
3.83403E-03 2.08844E-24
3.94265E-03 1.97137E-24
4.05278E-03 1.86226E-24
4.16442E-03 1.76047E-24
4.27757E-03 1.66542E-24
4.39223E-03 1.57660E-24
4.50840E-03 1.49351E-24
4.62608E-03 1.41572E-24
4.74527E-03 1.34284E-24
4.86597E-03 1.27450E-24
4.98817E-03 1.21037E-24
5.11188E-03 1.15014E-24
5.23711E-03 1.09354E-24
5.36383E-03 1.04030E-24
5.49207E-03 9.90198E-25
5.62181E-03 9.43008E-25
5.75306E-03 8.98532E-25
5.88581E-03 8.56589E-25
6.02007E-03 8.17008E-25
6.15583E-03 7.79632E-25
6.29310E-03 7.44318E-25
6.43187E-03 7.10931E-25
6.57214E-03 6.79348E-25
6.71392E-03 6.49454E-25
6.85720E-03 6.21144E-25
7.00198E-03 5.94318E-25
7.14827E-03 5.68885E-25
7.29605E-03 5.44760E-25
7.44534E-03 5.21865E-25
7.59612E-03 5.00125E-25
7.97965E-03 4.50392E-25
8.37255E-03 4.06516E-25
8.77480E-03 3.67697E-25
9.18641E-03 3.33261E-25
9.60736E-03 3.02633E-25
1.00376E-02 2.75327E-25
1.04773E-02 2.50924E-25
1.09262E-02 2.29068E-25
1.13844E-02 2.09450E-25
1.18520E-02 1.91806E-25
1.23288E-02 1.75906E-25
1.28150E-02 1.61550E-25
1.33104E-02 1.48565E-25
1.38150E-02 1.36800E-25
1.43290E-02 1.26122E-25
1.48521E-02 1.16416E-25
1.53845E-02 1.07580E-25
1.59262E-02 9.95227E-26
1.64770E-02 9.21663E-26
1.70371E-02 8.54401E-26
1.76063E-02 7.92820E-26
1.81848E-02 7.36369E-26
1.87724E-02 6.84557E-26
1.93692E-02 6.36945E-26
1.99751E-02 5.93143E-26
2.05901E-02 5.52801E-26
2.12143E-02 5.15606E-26
2.18476E-02 4.81277E-26
2.24900E-02 4.49561E-26
2.31415E-02 4.20231E-26
2.38021E-02 3.93082E-26
2.44717E-02 3.67928E-26
2.51504E-02 3.44603E-26
2.58382E-02 3.22954E-26
2.65349E-02 3.02846E-26
2.72407E-02 2.84153E-26
2.79555E-02 2.66762E-26
2.86793E-02 2.50570E-26
2.94120E-02 2.35484E-26
3.01537E-02 2.21417E-26
3.09043E-02 2.08293E-26
3.16639E-02 1.96039E-26
3.24324E-02 1.84590E-26
3.32098E-02 1.73888E-26
3.39961E-02 1.63876E-26
3.47912E-02 1.54505E-26
3.55952E-02 1.45729E-26
3.64081E-02 1.37505E-26
3.72297E-02 1.29794E-26
3.80602E-02 1.22561E-26
3.88995E-02 1.15772E-26
3.97476E-02 1.09398E-26
4.06044E-02 1.03408E-26
4.14700E-02 9.77788E-27
4.23443E-02 9.24848E-27
4.32273E-02 8.75043E-27
4.41190E-02 8.28164E-27
4.50194E-02 7.84023E-27
4.59284E-02 7.42441E-27
4.68461E-02 7.03254E-27
4.87074E-02 6.31468E-27
5.06030E-02 5.67568E-27
5.25328E-02 5.10606E-27
5.44967E-02 4.59761E-27
5.64946E-02 4.14318E-27
5.85262E-02 3.73651E-27
6.05914E-02 3.37219E-27
6.26901E-02 3.04543E-27
6.48222E-02 2.75207E-27
6.69873E-02 2.48843E-27
6.91854E-02 2.25128E-27
7.14163E-02 2.03777E-27
7.36799E-02 1.84538E-27
7.59760E-02 1.67190E-27
7.83043E-02 1.51534E-27
8.06647E-02 1.37395E-27
8.30571E-02 1.24619E-27
8.54812E-02 1.13067E-27
8.79369E-02 1.02615E-27
9.04240E-02 9.31534E-28
9.29422E-02 8.45841E-28
9.54915E-02 7.68192E-28
9.80716E-02 6.97799E-28
1.00682E-01 6.33958E-28
1.03323E-01 5.76037E-28
1.05995E-01 5.23468E-28
1.08696E-01 4.75740E-28
1.11427E-01 4.32395E-28
1.14188E-01 3.93018E-28
1.16978E-01 3.57238E-28
1.19797E-01 3.24719E-28
1.22645E-01 2.95157E-28
1.25522E-01 2.68278E-28
1.28428E-01 2.43835E-28
1.31361E-01 2.21605E-28
1.34323E-01 2.01383E-28
1.37313E-01 1.82988E-28
1.40330E-01 1.66253E-28
1.43375E-01 1.51027E-28
1.46447E-01 1.37174E-28
1.49545E-01 1.24569E-28
1.52671E-01 1.13101E-28
1.55823E-01 1.02667E-28
1.59001E-01 9.31736E-29
1.62205E-01 8.45372E-29
1.65435E-01 7.66808E-29
1.68690E-01 6.95348E-29
1.71970E-01 6.30356E-29
1.75276E-01 5.71254E-29
1.78606E-01 5.17517E-29
1.81961E-01 4.68666E-29
1.85340E-01 4.24265E-29
1.88743E-01 3.83916E-29
1.92169E-01 3.47259E-29
1.95619E-01 3.13964E-29
1.99092E-01 2.83729E-29
2.02589E-01 2.56282E-29
2.06107E-01 2.31373E-29
2.09649E-01 2.08774E-29
2.13212E-01 1.88278E-29
2.16797E-01 1.69696E-29
2.20404E-01 1.52856E-29
2.24032E-01 1.37600E-29
2.27680E-01 1.23786E-29
2.31350E-01 1.11282E-29
2.35040E-01 9.99698E-30
2.38751E-01 8.97408E-30
2.42481E-01 8.04961E-30
2.46231E-01 7.21454E-30
2.50000E-01 6.46066E-30
2.53788E-01 5.78049E-30
2.57595E-01 5.16720E-30
2.61421E-01 4.61459E-30
2.65264E-01 4.11699E-30
2.69126E-01 3.66926E-30
2.73005E-01 3.26671E-30
2.76901E-01 2.90507E-30
2.80814E-01 2.58045E-30
2.84744E-01 2.28933E-30
2.88691E-01 2.02848E-30
2.92653E-01 1.79500E-30
2.96632E-01 1.58622E-30
3.00625E-01 1.39974E-30
3.04634E-01 1.23336E-30
3.08658E-01 1.08511E-30
3.12697E-01 9.53169E-31
3.16749E-01 8.35910E-31
3.20816E-01 7.31848E-31
3.24896E-01 6.39640E-31
3.28990E-01 5.58069E-31
3.33097E-01 4.86035E-31
3.37216E-01 4.22540E-31
3.41348E-01 3.66686E-31
3.45492E-01 3.17657E-31
3.49647E-01 2.74720E-31
3.53814E-01 2.37211E-31
3.57992E-01 2.04534E-31
3.62181E-01 1.76150E-31
3.66381E-01 1.51574E-31
3.70590E-01 1.30371E-31
3.74810E-01 1.12150E-31
3.79039E-01 9.65593E-32
3.83277E-01 8.32840E-32
3.87524E-01 7.20420E-32
3.91780E-01 6.25813E-32
3.96044E-01 5.46762E-32
4.00316E-01 4.81258E-32
4.04596E-01 4.27508E-32
4.08882E-01 3.83921E-32
4.13176E-01 3.49078E-32
4.17476E-01 3.21728E-32
4.21783E-01 3.00759E-32
4.26095E-01 2.85193E-32
4.30413E-01 2.74164E-32
4.34737E-01 2.66915E-32
4.39065E-01 2.62780E-32
4.43398E-01 2.61180E-32
4.47736E-01 2.61608E-32
4.52077E-01 2.63624E-32
4.56422E-01 2.66851E-32
4.60770E-01 2.70962E-32
4.65122E-01 2.75678E-32
4.69476E-01 2.80761E-32
4.73832E-01 2.86012E-32
4.78190E-01 2.91263E-32
4.82550E-01 2.96376E-32
4.86912E-01 3.01236E-32
4.91274E-01 3.05752E-32
4.95637E-01 3.09853E-32
5.00000E-01 3.13483E-32
5.04363E-01 3.16602E-32
5.08726E-01 3.19180E-32
5.13088E-01 3.21201E-32
5.17450E-01 3.22657E-32
5.21810E-01 3.23547E-32
5.26168E-01 3.23877E-32
5.30524E-01 3.23659E-32
5.34878E-01 3.22909E-32
5.39230E-01 3.21646E-32
5.43578E-01 3.19893E-32
5.47923E-01 3.17674E-32
5.52264E-01 3.15017E-32
5.56602E-01 3.11947E-32
5.60935E-01 3.08494E-32
5.65263E-01 3.04687E-32
5.69587E-01 3.00553E-32
5.73905E-01 2.96121E-32
5.78217E-01 2.91420E-32
5.82524E-01 2.86476E-32
5.86824E-01 2.81317E-32
5.91118E-01 2.75967E-32
5.95404E-01 2.70453E-32
5.99684E-01 2.64797E-32
6.03956E-01 2.59022E-32
6.08220E-01 2.53150E-32
6.12476E-01 2.47200E-32
6.16723E-01 2.41193E-32
6.20961E-01 2.35145E-32
6.25190E-01 2.29075E-32
6.29410E-01 2.22997E-32
6.33619E-01 2.16926E-32
6.37819E-01 2.10875E-32
6.42008E-01 2.04857E-32
6.46186E-01 1.98883E-32
6.50353E-01 1.92964E-32
6.54508E-01 1.87108E-32
6.58652E-01 1.81324E-32
6.62784E-01 1.75621E-32
6.66903E-01 1.70004E-32
6.71010E-01 1.64480E-32
6.75104E-01 1.59054E-32
6.79184E-01 1.53731E-32
6.83251E-01 1.48514E-32
6.87303E-01 1.43407E-32
6.91342E-01 1.38414E-32
6.95366E-01 1.33535E-32
6.99375E-01 1.28773E-32
7.03368E-01 1.24130E-32
7.07347E-01 1.19605E-32
7.11309E-01 1.15200E-32
7.15256E-01 1.10916E-32
7.19186E-01 1.06750E-32
7.23099E-01 1.02704E-32
7.26995E-01 9.87772E-33
7.30874E-01 9.49675E-33
7.34736E-01 9.12742E-33
7.38579E-01 8.76960E-33
7.42405E-01 8.42314E-33
7.46212E-01 8.08786E-33
7.50000E-01 7.76358E-33
7.53769E-01 7.45010E-33
7.57519E-01 7.14723E-33
7.61249E-01 6.85474E-33
7.64960E-01 6.57241E-33
7.68650E-01 6.30002E-33
7.72320E-01 6.03733E-33
7.75968E-01 5.78411E-33
7.79596E-01 5.54012E-33
7.83203E-01 5.30511E-33
7.86788E-01 5.07884E-33
7.90351E-01 4.86107E-33
7.93893E-01 4.65156E-33
7.97411E-01 4.45007E-33
8.00908E-01 4.25635E-33
8.04381E-01 4.07017E-33
8.07831E-01 3.89129E-33
8.11257E-01 3.71948E-33
8.14660E-01 3.55451E-33
8.18039E-01 3.39616E-33
8.21394E-01 3.24420E-33
8.24724E-01 3.09842E-33
8.28030E-01 2.95860E-33
8.31310E-01 2.82454E-33
8.34565E-01 2.69603E-33
8.37795E-01 2.57287E-33
8.40999E-01 2.45487E-33
8.44177E-01 2.34184E-33
8.47329E-01 2.23359E-33
8.50455E-01 2.12995E-33
8.53553E-01 2.03074E-33
8.56625E-01 1.93579E-33
8.59670E-01 1.84494E-33
8.62687E-01 1.75803E-33
8.65677E-01 1.67491E-33
8.68639E-01 1.59542E-33
8.71572E-01 1.51941E-33
8.74478E-01 1.44676E-33
8.77355E-01 1.37733E-33
8.80203E-01 1.31097E-33
8.83022E-01 1.24758E-33
8.85812E-01 1.18702E-33
8.88573E-01 1.12918E-33
8.91304E-01 1.07395E-33
8.94005E-01 1.02121E-33
8.96677E-01 9.70865E-34
8.99318E-01 9.22808E-34
9.01928E-01 8.76943E-34
9.04508E-01 8.33177E-34
9.07058E-01 7.91420E-34
9.09576E-01 7.51584E-34
9.12063E-01 7.13585E-34
9.14519E-01 6.77346E-34
9.16943E-01 6.42788E-34
9.19335E-01 6.09837E-34
9.21696E-01 5.78424E-34
9.24024E-01 5.48479E-34
9.26320E-01 5.19938E-34
9.28584E-01 4.92738E-34
9.30815E-01 4.66820E-34
9.33013E-01 4.42125E-34
9.35178E-01 4.18600E-34
9.37310E-01 3.96190E-34
9.39409E-01 3.74847E-34
9.41474E-01 3.54521E-34
9.43505E-01 3.35167E-34
9.45503E-01 3.16740E-34
9.47467E-01 2.99199E-34
9.49397E-01 2.82502E-34
9.51293E-01 2.66611E-34
9.53154E-01 2.51490E-34
9.54981E-01 2.37102E-34
9.56773E-01 2.23415E-34
9.58530E-01 2.10396E-34
9.60252E-01 1.98014E-34
9.61940E-01 1.86240E-34
9.63592E-01 1.75046E-34
9.65209E-01 1.64406E-34
9.66790E-01 1.54294E-34
9.68336E-01 1.44685E-34
9.69846E-01 1.35557E-34
9.71321E-01 1.26887E-34
9.72759E-01 1.18655E-34
9.74162E-01 1.10841E-34
9.75528E-01 1.03425E-34
9.76858E-01 9.63897E-35
9.78152E-01 8.97174E-35
9.79410E-01 8.33920E-35
9.80631E-01 7.73979E-35
9.81815E-01 7.17200E-35
9.82963E-01 6.63450E-35
9.84074E-01 6.12589E-35
9.85148E-01 5.64493E-35
9.86185E-01 5.19042E-35
9.87185E-01 4.76125E-35
9.88148E-01 4.35634E-35
9.89074E-01 3.97465E-35
9.89962E-01 3.61525E-35
9.90814E-01 3.27724E-35
9.91627E-01 2.95975E-35
9.92404E-01 2.66200E-35
9.93143E-01 2.38322E-35
9.93844E-01 2.12274E-35
9.94508E-01 1.87986E-35
9.95134E-01 1.65399E-35
9.95722E-01 1.44457E-35
9.96273E-01 1.25102E-35
9.96786E-01 1.07291E-35
9.97261E-01 9.09729E-36
9.97698E-01 7.61105E-36
9.98097E-01 6.26644E-36
9.98459E-01 5.05993E-36
9.98782E-01 3.98856E-36
9.99067E-01 3.04963E-36
9.99315E-01 2.24066E-36
9.99524E-01 1.55966E-36
9.99695E-01 1.00479E-36
9.99829E-01 5.74688E-37
9.99924E-01 2.68279E-37
9.99981E-01 8.48026E-38
1.00000E+00 2.36182E-38
