 #
 # Subroutine ELSEPA. Elastic scattering of electrons and positrons
 #                    by neutral atoms and positive ions
 #
 # Projectile: positron
 # Kinetic energy = 3.50000E+07 eV = 1.28623E+06 a.u.
 #
 # WARNING: High-energy factorization with free-atom DF screening.
 #          Absorption, polarization and exchange corrections are
 #          switched off.
 #          Phase shifts are calculated for the bare nucleus.
 #          Scattering amplitudes are not evaluated.
 #
 # Element:  S,  Z =  16,  atomic weight = 3.20660E+01 g/mol
 #
 # Nuclear model: Fermi distribution
 #                Average radius = 3.39937E-13 cm
 #                Skin thickness = 5.46000E-14 cm
 #
 # Number of electrons = 16
 #
 # Total elastic cross section = 1.04540E-18 cm**2 = 3.73320E-02 a0**2
 # 1st transport cross section = 3.92940E-25 cm**2 = 1.40322E-08 a0**2
 # 2nd transport cross section = 1.14717E-24 cm**2 = 4.09663E-08 a0**2
 #
 #
 # Differential cross section:                       MU=(1-COS(THETA))/2
 #
 #  THETA        MU          DCS          DCS        Sherman      error
 #  (deg)                 (cm**2/sr)   (a0**2/sr)    function
 #----------------------------------------------------------------------
0.00000E+00 1.28466E-11
7.61557E-13 1.28436E-11
1.18994E-12 1.28419E-11
1.71346E-12 1.28399E-11
2.33225E-12 1.28375E-11
3.04617E-12 1.28348E-11
3.85530E-12 1.28317E-11
4.75964E-12 1.28282E-11
5.75917E-12 1.28244E-11
6.85391E-12 1.28202E-11
8.04379E-12 1.28157E-11
9.32893E-12 1.28108E-11
1.07092E-11 1.28055E-11
1.21847E-11 1.27999E-11
1.37554E-11 1.27939E-11
1.54213E-11 1.27876E-11
1.71823E-11 1.27809E-11
1.90386E-11 1.27739E-11
2.09900E-11 1.27665E-11
2.30367E-11 1.27587E-11
2.51785E-11 1.27506E-11
2.74156E-11 1.27422E-11
2.97478E-11 1.27334E-11
3.21752E-11 1.27242E-11
3.46979E-11 1.27147E-11
3.73157E-11 1.27049E-11
4.00286E-11 1.26947E-11
4.28368E-11 1.26841E-11
4.57402E-11 1.26733E-11
4.87388E-11 1.26620E-11
5.18325E-11 1.26505E-11
5.50215E-11 1.26385E-11
5.83057E-11 1.26263E-11
6.16850E-11 1.26138E-11
6.51595E-11 1.26008E-11
6.87293E-11 1.25876E-11
7.23943E-11 1.25740E-11
7.61544E-11 1.25601E-11
1.18991E-10 1.24031E-11
1.71347E-10 1.22150E-11
2.33223E-10 1.19978E-11
3.04617E-10 1.17540E-11
3.85531E-10 1.14857E-11
4.75965E-10 1.11963E-11
5.75917E-10 1.08878E-11
6.85389E-10 1.05638E-11
8.04380E-10 1.02263E-11
9.32891E-10 9.87894E-12
1.07092E-09 9.52357E-12
1.21847E-09 9.16367E-12
1.37554E-09 8.77865E-12
1.54213E-09 8.40846E-12
1.71823E-09 8.05477E-12
1.90386E-09 7.71818E-12
2.09900E-09 7.34610E-12
2.30367E-09 6.99419E-12
2.51785E-09 6.66333E-12
2.74156E-09 6.35284E-12
2.97478E-09 6.01820E-12
3.21752E-09 5.70492E-12
3.46978E-09 5.41307E-12
3.73156E-09 5.14137E-12
4.00286E-09 4.85560E-12
4.28368E-09 4.58955E-12
4.57402E-09 4.34289E-12
4.87388E-09 4.11419E-12
5.18326E-09 3.87894E-12
5.50215E-09 3.66047E-12
5.83057E-09 3.45833E-12
6.16850E-09 3.27119E-12
6.51596E-09 3.08238E-12
6.87293E-09 2.90715E-12
7.23942E-09 2.74504E-12
7.61544E-09 2.59494E-12
1.18991E-08 1.46773E-12
1.71347E-08 8.65225E-13
2.33223E-08 5.37897E-13
3.04617E-08 3.53934E-13
3.85531E-08 2.45114E-13
4.75965E-08 1.77282E-13
5.75917E-08 1.32721E-13
6.85389E-08 1.02099E-13
8.04380E-08 8.01855E-14
9.32891E-08 6.40262E-14
1.07092E-07 5.17680E-14
1.21847E-07 4.23036E-14
1.37554E-07 3.47888E-14
1.54213E-07 2.89073E-14
1.71823E-07 2.41724E-14
1.90386E-07 2.03090E-14
2.09900E-07 1.71880E-14
2.30367E-07 1.45993E-14
2.51785E-07 1.24681E-14
2.74156E-07 1.07067E-14
2.97478E-07 9.22197E-15
3.21752E-07 7.98539E-15
3.46978E-07 6.94261E-15
3.73156E-07 6.05877E-15
4.00286E-07 5.31057E-15
4.28368E-07 4.67036E-15
4.57402E-07 4.12289E-15
4.87388E-07 3.65293E-15
5.18325E-07 3.24634E-15
5.50215E-07 2.89495E-15
5.83057E-07 2.58947E-15
6.16850E-07 2.32298E-15
6.51596E-07 2.09007E-15
6.87293E-07 1.88545E-15
7.23942E-07 1.70538E-15
7.61543E-07 1.54643E-15
1.18991E-06 6.52774E-16
1.71347E-06 3.23140E-16
2.33223E-06 1.78313E-16
3.04617E-06 1.06394E-16
3.85531E-06 6.73440E-17
4.75964E-06 4.46553E-17
5.75916E-06 3.07484E-17
6.85388E-06 2.18455E-17
8.04378E-06 1.59359E-17
9.32888E-06 1.18914E-17
1.07092E-05 9.04939E-18
1.21846E-05 7.00608E-18
1.37553E-05 5.50705E-18
1.54212E-05 4.38767E-18
1.71822E-05 3.53827E-18
1.90385E-05 2.88463E-18
2.09899E-05 2.37496E-18
2.30365E-05 1.97285E-18
2.51783E-05 1.65222E-18
2.74153E-05 1.39407E-18
2.97475E-05 1.18438E-18
3.21749E-05 1.01266E-18
3.46974E-05 8.70949E-19
3.73152E-05 7.53173E-19
4.00281E-05 6.54637E-19
4.28362E-05 5.71688E-19
4.57395E-05 5.01458E-19
4.87380E-05 4.41678E-19
5.18317E-05 3.90538E-19
5.50205E-05 3.46586E-19
5.83045E-05 3.08644E-19
6.16838E-05 2.75755E-19
6.51582E-05 2.47131E-19
6.87277E-05 2.22126E-19
7.23925E-05 2.00204E-19
7.61524E-05 1.80916E-19
9.21439E-05 1.23549E-19
1.09658E-04 8.72181E-20
1.28695E-04 6.33069E-20
1.49255E-04 4.70523E-20
1.71338E-04 3.56946E-20
1.94942E-04 2.75648E-20
2.20070E-04 2.16227E-20
2.46720E-04 1.71983E-20
2.74892E-04 1.38493E-20
3.04586E-04 1.12770E-20
3.35803E-04 9.27478E-21
3.68542E-04 7.69768E-21
4.02802E-04 6.44179E-21
4.38585E-04 5.43177E-21
4.75889E-04 4.61205E-21
5.14715E-04 3.94120E-21
5.55063E-04 3.38793E-21
5.96931E-04 2.92836E-21
6.40321E-04 2.54409E-21
6.85233E-04 2.22078E-21
7.31665E-04 1.94720E-21
7.79618E-04 1.71445E-21
8.29092E-04 1.51543E-21
8.80086E-04 1.34444E-21
9.32601E-04 1.19688E-21
9.86636E-04 1.06900E-21
1.04219E-03 9.57740E-22
1.09927E-03 8.60568E-22
1.15786E-03 7.75402E-22
1.21797E-03 7.00503E-22
1.27961E-03 6.34424E-22
1.34276E-03 5.75947E-22
1.40743E-03 5.24047E-22
1.47362E-03 4.77857E-22
1.54133E-03 4.36639E-22
1.61056E-03 3.99765E-22
1.68131E-03 3.66698E-22
1.75357E-03 3.36976E-22
1.82735E-03 3.10200E-22
1.90265E-03 2.86029E-22
1.97947E-03 2.64163E-22
2.05780E-03 2.44344E-22
2.13765E-03 2.26347E-22
2.21902E-03 2.09973E-22
2.30190E-03 1.95052E-22
2.38630E-03 1.81431E-22
2.47222E-03 1.68976E-22
2.55965E-03 1.57570E-22
2.64859E-03 1.47109E-22
2.73905E-03 1.37500E-22
2.83103E-03 1.28662E-22
2.92452E-03 1.20521E-22
3.01952E-03 1.13013E-22
3.11604E-03 1.06079E-22
3.21407E-03 9.96678E-23
3.31362E-03 9.37329E-23
3.41468E-03 8.82323E-23
3.51725E-03 8.31285E-23
3.62133E-03 7.83877E-23
3.72692E-03 7.39794E-23
3.83403E-03 6.98760E-23
3.94265E-03 6.60525E-23
4.05278E-03 6.24864E-23
4.16442E-03 5.91572E-23
4.27757E-03 5.60463E-23
4.39223E-03 5.31367E-23
4.50840E-03 5.04130E-23
4.62608E-03 4.78612E-23
4.74527E-03 4.54684E-23
4.86597E-03 4.32229E-23
4.98817E-03 4.11140E-23
5.11188E-03 3.91318E-23
5.23711E-03 3.72673E-23
5.36383E-03 3.55123E-23
5.49207E-03 3.38591E-23
5.62181E-03 3.23006E-23
5.75306E-03 3.08306E-23
5.88581E-03 2.94430E-23
6.02007E-03 2.81324E-23
6.15583E-03 2.68937E-23
6.29310E-03 2.57222E-23
6.43187E-03 2.46136E-23
6.57214E-03 2.35639E-23
6.71392E-03 2.25694E-23
6.85720E-03 2.16266E-23
7.00198E-03 2.07324E-23
7.14827E-03 1.98838E-23
7.29605E-03 1.90780E-23
7.44534E-03 1.83125E-23
7.59612E-03 1.75849E-23
7.97965E-03 1.59173E-23
8.37255E-03 1.44422E-23
8.77480E-03 1.31334E-23
9.18641E-03 1.19691E-23
9.60736E-03 1.09305E-23
1.00376E-02 1.00018E-23
1.04773E-02 9.16922E-24
1.09262E-02 8.42117E-24
1.13844E-02 7.74756E-24
1.18520E-02 7.13969E-24
1.23288E-02 6.59002E-24
1.28150E-02 6.09200E-24
1.33104E-02 5.63994E-24
1.38150E-02 5.22884E-24
1.43290E-02 4.85435E-24
1.48521E-02 4.51261E-24
1.53845E-02 4.20028E-24
1.59262E-02 3.91436E-24
1.64770E-02 3.65223E-24
1.70371E-02 3.41155E-24
1.76063E-02 3.19027E-24
1.81848E-02 2.98653E-24
1.87724E-02 2.79871E-24
1.93692E-02 2.62533E-24
1.99751E-02 2.46508E-24
2.05901E-02 2.31680E-24
2.12143E-02 2.17943E-24
2.18476E-02 2.05203E-24
2.24900E-02 1.93373E-24
2.31415E-02 1.82378E-24
2.38021E-02 1.72148E-24
2.44717E-02 1.62619E-24
2.51504E-02 1.53736E-24
2.58382E-02 1.45447E-24
2.65349E-02 1.37705E-24
2.72407E-02 1.30467E-24
2.79555E-02 1.23694E-24
2.86793E-02 1.17352E-24
2.94120E-02 1.11407E-24
3.01537E-02 1.05831E-24
3.09043E-02 1.00596E-24
3.16639E-02 9.56786E-25
3.24324E-02 9.10549E-25
3.32098E-02 8.67046E-25
3.39961E-02 8.26085E-25
3.47912E-02 7.87492E-25
3.55952E-02 7.51104E-25
3.64081E-02 7.16772E-25
3.72297E-02 6.84360E-25
3.80602E-02 6.53741E-25
3.88995E-02 6.24797E-25
3.97476E-02 5.97420E-25
4.06044E-02 5.71509E-25
4.14700E-02 5.46973E-25
4.23443E-02 5.23725E-25
4.32273E-02 5.01684E-25
4.41190E-02 4.80778E-25
4.50194E-02 4.60936E-25
4.59284E-02 4.42095E-25
4.68461E-02 4.24195E-25
4.87074E-02 3.91000E-25
5.06030E-02 3.60950E-25
5.25328E-02 3.33696E-25
5.44967E-02 3.08934E-25
5.64946E-02 2.86396E-25
5.85262E-02 2.65848E-25
6.05914E-02 2.47084E-25
6.26901E-02 2.29922E-25
6.48222E-02 2.14203E-25
6.69873E-02 1.99784E-25
6.91854E-02 1.86538E-25
7.14163E-02 1.74354E-25
7.36799E-02 1.63133E-25
7.59760E-02 1.52784E-25
7.83043E-02 1.43229E-25
8.06647E-02 1.34395E-25
8.30571E-02 1.26219E-25
8.54812E-02 1.18644E-25
8.79369E-02 1.11618E-25
9.04240E-02 1.05093E-25
9.29422E-02 9.90288E-26
9.54915E-02 9.33864E-26
9.80716E-02 8.81315E-26
1.00682E-01 8.32329E-26
1.03323E-01 7.86623E-26
1.05995E-01 7.43938E-26
1.08696E-01 7.04042E-26
1.11427E-01 6.66719E-26
1.14188E-01 6.31776E-26
1.16978E-01 5.99035E-26
1.19797E-01 5.68332E-26
1.22645E-01 5.39520E-26
1.25522E-01 5.12461E-26
1.28428E-01 4.87031E-26
1.31361E-01 4.63114E-26
1.34323E-01 4.40605E-26
1.37313E-01 4.19407E-26
1.40330E-01 3.99431E-26
1.43375E-01 3.80594E-26
1.46447E-01 3.62819E-26
1.49545E-01 3.46038E-26
1.52671E-01 3.30184E-26
1.55823E-01 3.15198E-26
1.59001E-01 3.01023E-26
1.62205E-01 2.87610E-26
1.65435E-01 2.74909E-26
1.68690E-01 2.62877E-26
1.71970E-01 2.51472E-26
1.75276E-01 2.40656E-26
1.78606E-01 2.30394E-26
1.81961E-01 2.20652E-26
1.85340E-01 2.11400E-26
1.88743E-01 2.02608E-26
1.92169E-01 1.94250E-26
1.95619E-01 1.86301E-26
1.99092E-01 1.78738E-26
2.02589E-01 1.71539E-26
2.06107E-01 1.64682E-26
2.09649E-01 1.58150E-26
2.13212E-01 1.51925E-26
2.16797E-01 1.45988E-26
2.20404E-01 1.40326E-26
2.24032E-01 1.34923E-26
2.27680E-01 1.29765E-26
2.31350E-01 1.24839E-26
2.35040E-01 1.20133E-26
2.38751E-01 1.15636E-26
2.42481E-01 1.11337E-26
2.46231E-01 1.07225E-26
2.50000E-01 1.03292E-26
2.53788E-01 9.95281E-27
2.57595E-01 9.59248E-27
2.61421E-01 9.24741E-27
2.65264E-01 8.91687E-27
2.69126E-01 8.60014E-27
2.73005E-01 8.29655E-27
2.76901E-01 8.00547E-27
2.80814E-01 7.72629E-27
2.84744E-01 7.45846E-27
2.88691E-01 7.20143E-27
2.92653E-01 6.95471E-27
2.96632E-01 6.71780E-27
3.00625E-01 6.49027E-27
3.04634E-01 6.27167E-27
3.08658E-01 6.06161E-27
3.12697E-01 5.85969E-27
3.16749E-01 5.66555E-27
3.20816E-01 5.47885E-27
3.24896E-01 5.29924E-27
3.28990E-01 5.12643E-27
3.33097E-01 4.96011E-27
3.37216E-01 4.80001E-27
3.41348E-01 4.64584E-27
3.45492E-01 4.49737E-27
3.49647E-01 4.35434E-27
3.53814E-01 4.21652E-27
3.57992E-01 4.08371E-27
3.62181E-01 3.95567E-27
3.66381E-01 3.83223E-27
3.70590E-01 3.71318E-27
3.74810E-01 3.59835E-27
3.79039E-01 3.48757E-27
3.83277E-01 3.38066E-27
3.87524E-01 3.27748E-27
3.91780E-01 3.17788E-27
3.96044E-01 3.08171E-27
4.00316E-01 2.98883E-27
4.04596E-01 2.89913E-27
4.08882E-01 2.81246E-27
4.13176E-01 2.72872E-27
4.17476E-01 2.64779E-27
4.21783E-01 2.56956E-27
4.26095E-01 2.49393E-27
4.30413E-01 2.42080E-27
4.34737E-01 2.35007E-27
4.39065E-01 2.28166E-27
4.43398E-01 2.21548E-27
4.47736E-01 2.15144E-27
4.52077E-01 2.08946E-27
4.56422E-01 2.02948E-27
4.60770E-01 1.97141E-27
4.65122E-01 1.91518E-27
4.69476E-01 1.86074E-27
4.73832E-01 1.80801E-27
4.78190E-01 1.75693E-27
4.82550E-01 1.70745E-27
4.86912E-01 1.65950E-27
4.91274E-01 1.61304E-27
4.95637E-01 1.56801E-27
5.00000E-01 1.52435E-27
5.04363E-01 1.48203E-27
5.08726E-01 1.44100E-27
5.13088E-01 1.40120E-27
5.17450E-01 1.36261E-27
5.21810E-01 1.32517E-27
5.26168E-01 1.28885E-27
5.30524E-01 1.25361E-27
5.34878E-01 1.21942E-27
5.39230E-01 1.18623E-27
5.43578E-01 1.15402E-27
5.47923E-01 1.12275E-27
5.52264E-01 1.09239E-27
5.56602E-01 1.06291E-27
5.60935E-01 1.03429E-27
5.65263E-01 1.00649E-27
5.69587E-01 9.79489E-28
5.73905E-01 9.53259E-28
5.78217E-01 9.27776E-28
5.82524E-01 9.03016E-28
5.86824E-01 8.78956E-28
5.91118E-01 8.55573E-28
5.95404E-01 8.32846E-28
5.99684E-01 8.10754E-28
6.03956E-01 7.89278E-28
6.08220E-01 7.68398E-28
6.12476E-01 7.48096E-28
6.16723E-01 7.28353E-28
6.20961E-01 7.09152E-28
6.25190E-01 6.90477E-28
6.29410E-01 6.72311E-28
6.33619E-01 6.54639E-28
6.37819E-01 6.37447E-28
6.42008E-01 6.20718E-28
6.46186E-01 6.04440E-28
6.50353E-01 5.88599E-28
6.54508E-01 5.73181E-28
6.58652E-01 5.58174E-28
6.62784E-01 5.43567E-28
6.66903E-01 5.29346E-28
6.71010E-01 5.15502E-28
6.75104E-01 5.02021E-28
6.79184E-01 4.88895E-28
6.83251E-01 4.76113E-28
6.87303E-01 4.63664E-28
6.91342E-01 4.51539E-28
6.95366E-01 4.39729E-28
6.99375E-01 4.28225E-28
7.03368E-01 4.17018E-28
7.07347E-01 4.06099E-28
7.11309E-01 3.95461E-28
7.15256E-01 3.85095E-28
7.19186E-01 3.74993E-28
7.23099E-01 3.65149E-28
7.26995E-01 3.55556E-28
7.30874E-01 3.46205E-28
7.34736E-01 3.37091E-28
7.38579E-01 3.28206E-28
7.42405E-01 3.19545E-28
7.46212E-01 3.11102E-28
7.50000E-01 3.02870E-28
7.53769E-01 2.94844E-28
7.57519E-01 2.87018E-28
7.61249E-01 2.79386E-28
7.64960E-01 2.71944E-28
7.68650E-01 2.64687E-28
7.72320E-01 2.57608E-28
7.75968E-01 2.50705E-28
7.79596E-01 2.43972E-28
7.83203E-01 2.37404E-28
7.86788E-01 2.30997E-28
7.90351E-01 2.24747E-28
7.93893E-01 2.18650E-28
7.97411E-01 2.12702E-28
8.00908E-01 2.06899E-28
8.04381E-01 2.01238E-28
8.07831E-01 1.95713E-28
8.11257E-01 1.90323E-28
8.14660E-01 1.85064E-28
8.18039E-01 1.79932E-28
8.21394E-01 1.74924E-28
8.24724E-01 1.70037E-28
8.28030E-01 1.65268E-28
8.31310E-01 1.60613E-28
8.34565E-01 1.56071E-28
8.37795E-01 1.51638E-28
8.40999E-01 1.47312E-28
8.44177E-01 1.43090E-28
8.47329E-01 1.38969E-28
8.50455E-01 1.34947E-28
8.53553E-01 1.31021E-28
8.56625E-01 1.27190E-28
8.59670E-01 1.23450E-28
8.62687E-01 1.19801E-28
8.65677E-01 1.16238E-28
8.68639E-01 1.12762E-28
8.71572E-01 1.09368E-28
8.74478E-01 1.06056E-28
8.77355E-01 1.02824E-28
8.80203E-01 9.96693E-29
8.83022E-01 9.65905E-29
8.85812E-01 9.35857E-29
8.88573E-01 9.06534E-29
8.91304E-01 8.77918E-29
8.94005E-01 8.49993E-29
8.96677E-01 8.22744E-29
8.99318E-01 7.96155E-29
9.01928E-01 7.70212E-29
9.04508E-01 7.44900E-29
9.07058E-01 7.20205E-29
9.09576E-01 6.96114E-29
9.12063E-01 6.72613E-29
9.14519E-01 6.49689E-29
9.16943E-01 6.27331E-29
9.19335E-01 6.05525E-29
9.21696E-01 5.84260E-29
9.24024E-01 5.63525E-29
9.26320E-01 5.43309E-29
9.28584E-01 5.23600E-29
9.30815E-01 5.04389E-29
9.33013E-01 4.85664E-29
9.35178E-01 4.67417E-29
9.37310E-01 4.49637E-29
9.39409E-01 4.32315E-29
9.41474E-01 4.15442E-29
9.43505E-01 3.99009E-29
9.45503E-01 3.83008E-29
9.47467E-01 3.67430E-29
9.49397E-01 3.52267E-29
9.51293E-01 3.37512E-29
9.53154E-01 3.23156E-29
9.54981E-01 3.09193E-29
9.56773E-01 2.95615E-29
9.58530E-01 2.82415E-29
9.60252E-01 2.69587E-29
9.61940E-01 2.57123E-29
9.63592E-01 2.45019E-29
9.65209E-01 2.33267E-29
9.66790E-01 2.21862E-29
9.68336E-01 2.10798E-29
9.69846E-01 2.00069E-29
9.71321E-01 1.89670E-29
9.72759E-01 1.79596E-29
9.74162E-01 1.69841E-29
9.75528E-01 1.60402E-29
9.76858E-01 1.51273E-29
9.78152E-01 1.42449E-29
9.79410E-01 1.33927E-29
9.80631E-01 1.25702E-29
9.81815E-01 1.17770E-29
9.82963E-01 1.10127E-29
9.84074E-01 1.02769E-29
9.85148E-01 9.56936E-30
9.86185E-01 8.88963E-30
9.87185E-01 8.23740E-30
9.88148E-01 7.61235E-30
9.89074E-01 7.01419E-30
9.89962E-01 6.44261E-30
9.90814E-01 5.89733E-30
9.91627E-01 5.37811E-30
9.92404E-01 4.88468E-30
9.93143E-01 4.41681E-30
9.93844E-01 3.97426E-30
9.94508E-01 3.55683E-30
9.95134E-01 3.16431E-30
9.95722E-01 2.79652E-30
9.96273E-01 2.45327E-30
9.96786E-01 2.13441E-30
9.97261E-01 1.83978E-30
9.97698E-01 1.56923E-30
9.98097E-01 1.32264E-30
9.98459E-01 1.09989E-30
9.98782E-01 9.00876E-31
9.99067E-01 7.25497E-31
9.99315E-01 5.73671E-31
9.99524E-01 4.45326E-31
9.99695E-01 3.40400E-31
9.99829E-01 2.58843E-31
9.99924E-01 2.00615E-31
9.99981E-01 1.65689E-31
1.00000E+00 1.54055E-31
