 #
 # Subroutine ELSEPA. Elastic scattering of electrons and positrons
 #                    by neutral atoms and positive ions
 #
 # Projectile: positron
 # Kinetic energy = 1.75000E+07 eV = 6.43113E+05 a.u.
 #
 # WARNING: High-energy factorization with free-atom DF screening.
 #          Absorption, polarization and exchange corrections are
 #          switched off.
 #          Phase shifts are calculated for the bare nucleus.
 #          Scattering amplitudes are not evaluated.
 #
 # Element: Zn,  Z =  30,  atomic weight = 6.53900E+01 g/mol
 #
 # Nuclear model: Fermi distribution
 #                Average radius = 4.31076E-13 cm
 #                Skin thickness = 5.46000E-14 cm
 #
 # Number of electrons = 30
 #
 # Total elastic cross section = 1.97518E-18 cm**2 = 7.05349E-02 a0**2
 # 1st transport cross section = 4.67181E-24 cm**2 = 1.66833E-07 a0**2
 # 2nd transport cross section = 1.35742E-23 cm**2 = 4.84745E-07 a0**2
 #
 #
 # Differential cross section:                       MU=(1-COS(THETA))/2
 #
 #  THETA        MU          DCS          DCS        Sherman      error
 #  (deg)                 (cm**2/sr)   (a0**2/sr)    function
 #----------------------------------------------------------------------
0.00000E+00 4.50292E-12
7.61557E-13 4.50257E-12
1.18994E-12 4.50238E-12
1.71346E-12 4.50214E-12
2.33225E-12 4.50186E-12
3.04617E-12 4.50154E-12
3.85530E-12 4.50118E-12
4.75964E-12 4.50078E-12
5.75917E-12 4.50033E-12
6.85391E-12 4.49984E-12
8.04379E-12 4.49931E-12
9.32893E-12 4.49874E-12
1.07092E-11 4.49812E-12
1.21847E-11 4.49746E-12
1.37554E-11 4.49676E-12
1.54213E-11 4.49602E-12
1.71823E-11 4.49524E-12
1.90386E-11 4.49441E-12
2.09900E-11 4.49354E-12
2.30367E-11 4.49263E-12
2.51785E-11 4.49168E-12
2.74156E-11 4.49069E-12
2.97478E-11 4.48965E-12
3.21752E-11 4.48858E-12
3.46979E-11 4.48746E-12
3.73157E-11 4.48630E-12
4.00286E-11 4.48510E-12
4.28368E-11 4.48385E-12
4.57402E-11 4.48257E-12
4.87388E-11 4.48124E-12
5.18325E-11 4.47987E-12
5.50215E-11 4.47847E-12
5.83057E-11 4.47702E-12
6.16850E-11 4.47552E-12
6.51595E-11 4.47399E-12
6.87293E-11 4.47242E-12
7.23943E-11 4.47081E-12
7.61544E-11 4.46915E-12
1.18991E-10 4.45037E-12
1.71347E-10 4.42761E-12
2.33223E-10 4.40096E-12
3.04617E-10 4.37056E-12
3.85531E-10 4.33652E-12
4.75965E-10 4.29902E-12
5.75917E-10 4.25821E-12
6.85389E-10 4.21426E-12
8.04380E-10 4.16703E-12
9.32891E-10 4.11727E-12
1.07092E-09 4.06536E-12
1.21847E-09 4.01049E-12
1.37554E-09 3.95361E-12
1.54213E-09 3.89531E-12
1.71823E-09 3.83461E-12
1.90386E-09 3.77246E-12
2.09900E-09 3.70958E-12
2.30367E-09 3.64492E-12
2.51785E-09 3.57931E-12
2.74156E-09 3.51362E-12
2.97478E-09 3.44674E-12
3.21752E-09 3.37937E-12
3.46978E-09 3.31246E-12
3.73156E-09 3.24493E-12
4.00286E-09 3.17727E-12
4.28368E-09 3.11051E-12
4.57402E-09 3.04367E-12
4.87388E-09 2.97696E-12
5.18326E-09 2.91150E-12
5.50215E-09 2.84639E-12
5.83057E-09 2.78163E-12
6.16850E-09 2.71835E-12
6.51596E-09 2.65577E-12
6.87293E-09 2.59370E-12
7.23942E-09 2.53325E-12
7.61544E-09 2.47377E-12
1.18991E-08 1.94192E-12
1.71347E-08 1.52921E-12
2.33223E-08 1.21811E-12
3.04617E-08 9.83975E-13
3.85531E-08 8.06091E-13
4.75965E-08 6.68596E-13
5.75917E-08 5.60233E-13
6.85389E-08 4.73261E-13
8.04380E-08 3.97960E-13
9.32891E-08 3.39494E-13
1.07092E-07 2.94436E-13
1.21847E-07 2.52582E-13
1.37554E-07 2.17933E-13
1.54213E-07 1.90414E-13
1.71823E-07 1.65140E-13
1.90386E-07 1.43652E-13
2.09900E-07 1.26178E-13
2.30367E-07 1.10378E-13
2.51785E-07 9.67159E-14
2.74156E-07 8.53916E-14
2.97478E-07 7.52770E-14
3.21752E-07 6.64370E-14
3.46978E-07 5.89900E-14
3.73156E-07 5.23883E-14
4.00286E-07 4.65760E-14
4.28368E-07 4.16108E-14
4.57402E-07 3.72222E-14
4.87388E-07 3.33370E-14
5.18325E-07 2.99770E-14
5.50215E-07 2.70055E-14
5.83057E-07 2.43624E-14
6.16850E-07 2.20515E-14
6.51596E-07 2.00015E-14
6.87293E-07 1.81696E-14
7.23942E-07 1.65525E-14
7.61543E-07 1.51110E-14
1.18991E-06 6.73512E-15
1.71347E-06 3.49413E-15
2.33223E-06 2.00861E-15
3.04617E-06 1.23867E-15
3.85531E-06 8.03536E-16
4.75964E-06 5.42222E-16
5.75916E-06 3.77976E-16
6.85388E-06 2.70827E-16
8.04378E-06 1.98692E-16
9.32888E-06 1.48998E-16
1.07092E-05 1.13857E-16
1.21846E-05 8.84689E-17
1.37553E-05 6.97734E-17
1.54212E-05 5.57646E-17
1.71822E-05 4.51099E-17
1.90385E-05 3.68864E-17
2.09899E-05 3.04656E-17
2.30365E-05 2.53863E-17
2.51783E-05 2.13236E-17
2.74153E-05 1.80428E-17
2.97475E-05 1.53706E-17
3.21749E-05 1.31764E-17
3.46974E-05 1.13611E-17
3.73152E-05 9.84860E-18
4.00281E-05 8.57981E-18
4.28362E-05 7.50921E-18
4.57395E-05 6.60062E-18
4.87380E-05 5.82535E-18
5.18317E-05 5.16052E-18
5.50205E-05 4.58767E-18
5.83045E-05 4.09201E-18
6.16838E-05 3.66149E-18
6.51582E-05 3.28611E-18
6.87277E-05 2.95763E-18
7.23925E-05 2.66915E-18
7.61524E-05 2.41491E-18
9.21439E-05 1.65589E-18
1.09658E-04 1.17256E-18
1.28695E-04 8.53181E-19
1.49255E-04 6.35324E-19
1.71338E-04 4.82679E-19
1.94942E-04 3.73173E-19
2.20070E-04 2.92990E-19
2.46720E-04 2.33202E-19
2.74892E-04 1.87892E-19
3.04586E-04 1.53058E-19
3.35803E-04 1.25923E-19
3.68542E-04 1.04536E-19
4.02802E-04 8.74966E-20
4.38585E-04 7.37870E-20
4.75889E-04 6.26571E-20
5.14715E-04 5.35457E-20
5.55063E-04 4.60299E-20
5.96931E-04 3.97858E-20
6.40321E-04 3.45640E-20
6.85233E-04 3.01703E-20
7.31665E-04 2.64521E-20
7.79618E-04 2.32886E-20
8.29092E-04 2.05835E-20
8.80086E-04 1.82595E-20
9.32601E-04 1.62538E-20
9.86636E-04 1.45157E-20
1.04219E-03 1.30035E-20
1.09927E-03 1.16829E-20
1.15786E-03 1.05255E-20
1.21797E-03 9.50762E-21
1.27961E-03 8.60969E-21
1.34276E-03 7.81512E-21
1.40743E-03 7.10996E-21
1.47362E-03 6.48244E-21
1.54133E-03 5.92250E-21
1.61056E-03 5.42163E-21
1.68131E-03 4.97250E-21
1.75357E-03 4.56884E-21
1.82735E-03 4.20523E-21
1.90265E-03 3.87702E-21
1.97947E-03 3.58014E-21
2.05780E-03 3.31108E-21
2.13765E-03 3.06677E-21
2.21902E-03 2.84454E-21
2.30190E-03 2.64203E-21
2.38630E-03 2.45718E-21
2.47222E-03 2.28818E-21
2.55965E-03 2.13343E-21
2.64859E-03 1.99152E-21
2.73905E-03 1.86118E-21
2.83103E-03 1.74130E-21
2.92452E-03 1.63090E-21
3.01952E-03 1.52908E-21
3.11604E-03 1.43507E-21
3.21407E-03 1.34815E-21
3.31362E-03 1.26770E-21
3.41468E-03 1.19314E-21
3.51725E-03 1.12397E-21
3.62133E-03 1.05973E-21
3.72692E-03 9.99998E-22
3.83403E-03 9.44404E-22
3.94265E-03 8.92608E-22
4.05278E-03 8.44304E-22
4.16442E-03 7.99214E-22
4.27757E-03 7.57085E-22
4.39223E-03 7.17686E-22
4.50840E-03 6.80810E-22
4.62608E-03 6.46264E-22
4.74527E-03 6.13874E-22
4.86597E-03 5.83482E-22
4.98817E-03 5.54941E-22
5.11188E-03 5.28118E-22
5.23711E-03 5.02891E-22
5.36383E-03 4.79147E-22
5.49207E-03 4.56783E-22
5.62181E-03 4.35704E-22
5.75306E-03 4.15822E-22
5.88581E-03 3.97058E-22
6.02007E-03 3.79336E-22
6.15583E-03 3.62589E-22
6.29310E-03 3.46752E-22
6.43187E-03 3.31766E-22
6.57214E-03 3.17579E-22
6.71392E-03 3.04139E-22
6.85720E-03 2.91400E-22
7.00198E-03 2.79318E-22
7.14827E-03 2.67853E-22
7.29605E-03 2.56968E-22
7.44534E-03 2.46628E-22
7.59612E-03 2.36801E-22
7.97965E-03 2.14283E-22
8.37255E-03 1.94369E-22
8.77480E-03 1.76706E-22
9.18641E-03 1.60996E-22
9.60736E-03 1.46986E-22
1.00376E-02 1.34461E-22
1.04773E-02 1.23235E-22
1.09262E-02 1.13152E-22
1.13844E-02 1.04075E-22
1.18520E-02 9.58849E-23
1.23288E-02 8.84812E-23
1.28150E-02 8.17748E-23
1.33104E-02 7.56886E-23
1.38150E-02 7.01553E-23
1.43290E-02 6.51157E-23
1.48521E-02 6.05181E-23
1.53845E-02 5.63170E-23
1.59262E-02 5.24721E-23
1.64770E-02 4.89478E-23
1.70371E-02 4.57127E-23
1.76063E-02 4.27389E-23
1.81848E-02 4.00016E-23
1.87724E-02 3.74786E-23
1.93692E-02 3.51500E-23
1.99751E-02 3.29984E-23
2.05901E-02 3.10078E-23
2.12143E-02 2.91640E-23
2.18476E-02 2.74543E-23
2.24900E-02 2.58672E-23
2.31415E-02 2.43924E-23
2.38021E-02 2.30204E-23
2.44717E-02 2.17428E-23
2.51504E-02 2.05519E-23
2.58382E-02 1.94409E-23
2.65349E-02 1.84033E-23
2.72407E-02 1.74335E-23
2.79555E-02 1.65262E-23
2.86793E-02 1.56768E-23
2.94120E-02 1.48807E-23
3.01537E-02 1.41341E-23
3.09043E-02 1.34334E-23
3.16639E-02 1.27752E-23
3.24324E-02 1.21564E-23
3.32098E-02 1.15743E-23
3.39961E-02 1.10264E-23
3.47912E-02 1.05101E-23
3.55952E-02 1.00235E-23
3.64081E-02 9.56444E-24
3.72297E-02 9.13111E-24
3.80602E-02 8.72181E-24
3.88995E-02 8.33496E-24
3.97476E-02 7.96910E-24
4.06044E-02 7.62290E-24
4.14700E-02 7.29511E-24
4.23443E-02 6.98456E-24
4.32273E-02 6.69019E-24
4.41190E-02 6.41100E-24
4.50194E-02 6.14607E-24
4.59284E-02 5.89453E-24
4.68461E-02 5.65559E-24
4.87074E-02 5.21256E-24
5.06030E-02 4.81161E-24
5.25328E-02 4.44805E-24
5.44967E-02 4.11779E-24
5.64946E-02 3.81727E-24
5.85262E-02 3.54334E-24
6.05914E-02 3.29325E-24
6.26901E-02 3.06456E-24
6.48222E-02 2.85512E-24
6.69873E-02 2.66304E-24
6.91854E-02 2.48662E-24
7.14163E-02 2.32437E-24
7.36799E-02 2.17496E-24
7.59760E-02 2.03718E-24
7.83043E-02 1.90999E-24
8.06647E-02 1.79241E-24
8.30571E-02 1.68361E-24
8.54812E-02 1.58281E-24
8.79369E-02 1.48931E-24
9.04240E-02 1.40251E-24
9.29422E-02 1.32183E-24
9.54915E-02 1.24677E-24
9.80716E-02 1.17687E-24
1.00682E-01 1.11171E-24
1.03323E-01 1.05092E-24
1.05995E-01 9.94148E-25
1.08696E-01 9.41085E-25
1.11427E-01 8.91447E-25
1.14188E-01 8.44973E-25
1.16978E-01 8.01428E-25
1.19797E-01 7.60593E-25
1.22645E-01 7.22271E-25
1.25522E-01 6.86281E-25
1.28428E-01 6.52456E-25
1.31361E-01 6.20642E-25
1.34323E-01 5.90699E-25
1.37313E-01 5.62499E-25
1.40330E-01 5.35921E-25
1.43375E-01 5.10857E-25
1.46447E-01 4.87205E-25
1.49545E-01 4.64872E-25
1.52671E-01 4.43771E-25
1.55823E-01 4.23822E-25
1.59001E-01 4.04952E-25
1.62205E-01 3.87093E-25
1.65435E-01 3.70180E-25
1.68690E-01 3.54154E-25
1.71970E-01 3.38962E-25
1.75276E-01 3.24552E-25
1.78606E-01 3.10877E-25
1.81961E-01 2.97893E-25
1.85340E-01 2.85559E-25
1.88743E-01 2.73836E-25
1.92169E-01 2.62690E-25
1.95619E-01 2.52087E-25
1.99092E-01 2.41996E-25
2.02589E-01 2.32388E-25
2.06107E-01 2.23236E-25
2.09649E-01 2.14514E-25
2.13212E-01 2.06199E-25
2.16797E-01 1.98268E-25
2.20404E-01 1.90701E-25
2.24032E-01 1.83479E-25
2.27680E-01 1.76582E-25
2.31350E-01 1.69993E-25
2.35040E-01 1.63697E-25
2.38751E-01 1.57678E-25
2.42481E-01 1.51922E-25
2.46231E-01 1.46416E-25
2.50000E-01 1.41146E-25
2.53788E-01 1.36101E-25
2.57595E-01 1.31270E-25
2.61421E-01 1.26642E-25
2.65264E-01 1.22206E-25
2.69126E-01 1.17955E-25
2.73005E-01 1.13878E-25
2.76901E-01 1.09968E-25
2.80814E-01 1.06215E-25
2.84744E-01 1.02614E-25
2.88691E-01 9.91568E-26
2.92653E-01 9.58364E-26
2.96632E-01 9.26468E-26
3.00625E-01 8.95818E-26
3.04634E-01 8.66359E-26
3.08658E-01 8.38037E-26
3.12697E-01 8.10799E-26
3.16749E-01 7.84597E-26
3.20816E-01 7.59386E-26
3.24896E-01 7.35122E-26
3.28990E-01 7.11762E-26
3.33097E-01 6.89269E-26
3.37216E-01 6.67604E-26
3.41348E-01 6.46731E-26
3.45492E-01 6.26618E-26
3.49647E-01 6.07231E-26
3.53814E-01 5.88541E-26
3.57992E-01 5.70517E-26
3.62181E-01 5.53133E-26
3.66381E-01 5.36362E-26
3.70590E-01 5.20178E-26
3.74810E-01 5.04558E-26
3.79039E-01 4.89479E-26
3.83277E-01 4.74919E-26
3.87524E-01 4.60857E-26
3.91780E-01 4.47274E-26
3.96044E-01 4.34150E-26
4.00316E-01 4.21468E-26
4.04596E-01 4.09210E-26
4.08882E-01 3.97359E-26
4.13176E-01 3.85900E-26
4.17476E-01 3.74819E-26
4.21783E-01 3.64100E-26
4.26095E-01 3.53729E-26
4.30413E-01 3.43694E-26
4.34737E-01 3.33982E-26
4.39065E-01 3.24581E-26
4.43398E-01 3.15479E-26
4.47736E-01 3.06666E-26
4.52077E-01 2.98130E-26
4.56422E-01 2.89862E-26
4.60770E-01 2.81852E-26
4.65122E-01 2.74090E-26
4.69476E-01 2.66568E-26
4.73832E-01 2.59277E-26
4.78190E-01 2.52209E-26
4.82550E-01 2.45356E-26
4.86912E-01 2.38710E-26
4.91274E-01 2.32265E-26
4.95637E-01 2.26012E-26
5.00000E-01 2.19947E-26
5.04363E-01 2.14061E-26
5.08726E-01 2.08349E-26
5.13088E-01 2.02806E-26
5.17450E-01 1.97424E-26
5.21810E-01 1.92200E-26
5.26168E-01 1.87127E-26
5.30524E-01 1.82200E-26
5.34878E-01 1.77415E-26
5.39230E-01 1.72767E-26
5.43578E-01 1.68252E-26
5.47923E-01 1.63864E-26
5.52264E-01 1.59601E-26
5.56602E-01 1.55458E-26
5.60935E-01 1.51430E-26
5.65263E-01 1.47515E-26
5.69587E-01 1.43708E-26
5.73905E-01 1.40007E-26
5.78217E-01 1.36408E-26
5.82524E-01 1.32907E-26
5.86824E-01 1.29502E-26
5.91118E-01 1.26190E-26
5.95404E-01 1.22968E-26
5.99684E-01 1.19832E-26
6.03956E-01 1.16781E-26
6.08220E-01 1.13811E-26
6.12476E-01 1.10921E-26
6.16723E-01 1.08107E-26
6.20961E-01 1.05368E-26
6.25190E-01 1.02701E-26
6.29410E-01 1.00104E-26
6.33619E-01 9.75753E-27
6.37819E-01 9.51124E-27
6.42008E-01 9.27134E-27
6.46186E-01 9.03766E-27
6.50353E-01 8.81001E-27
6.54508E-01 8.58821E-27
6.58652E-01 8.37210E-27
6.62784E-01 8.16150E-27
6.66903E-01 7.95626E-27
6.71010E-01 7.75623E-27
6.75104E-01 7.56125E-27
6.79184E-01 7.37118E-27
6.83251E-01 7.18589E-27
6.87303E-01 7.00523E-27
6.91342E-01 6.82908E-27
6.95366E-01 6.65732E-27
6.99375E-01 6.48981E-27
7.03368E-01 6.32644E-27
7.07347E-01 6.16710E-27
7.11309E-01 6.01168E-27
7.15256E-01 5.86006E-27
7.19186E-01 5.71215E-27
7.23099E-01 5.56784E-27
7.26995E-01 5.42704E-27
7.30874E-01 5.28965E-27
7.34736E-01 5.15558E-27
7.38579E-01 5.02474E-27
7.42405E-01 4.89704E-27
7.46212E-01 4.77241E-27
7.50000E-01 4.65076E-27
7.53769E-01 4.53201E-27
7.57519E-01 4.41608E-27
7.61249E-01 4.30291E-27
7.64960E-01 4.19242E-27
7.68650E-01 4.08454E-27
7.72320E-01 3.97920E-27
7.75968E-01 3.87634E-27
7.79596E-01 3.77590E-27
7.83203E-01 3.67782E-27
7.86788E-01 3.58202E-27
7.90351E-01 3.48847E-27
7.93893E-01 3.39709E-27
7.97411E-01 3.30784E-27
8.00908E-01 3.22067E-27
8.04381E-01 3.13551E-27
8.07831E-01 3.05233E-27
8.11257E-01 2.97107E-27
8.14660E-01 2.89169E-27
8.18039E-01 2.81413E-27
8.21394E-01 2.73837E-27
8.24724E-01 2.66434E-27
8.28030E-01 2.59202E-27
8.31310E-01 2.52136E-27
8.34565E-01 2.45232E-27
8.37795E-01 2.38486E-27
8.40999E-01 2.31894E-27
8.44177E-01 2.25454E-27
8.47329E-01 2.19160E-27
8.50455E-01 2.13011E-27
8.53553E-01 2.07002E-27
8.56625E-01 2.01131E-27
8.59670E-01 1.95394E-27
8.62687E-01 1.89788E-27
8.65677E-01 1.84310E-27
8.68639E-01 1.78957E-27
8.71572E-01 1.73727E-27
8.74478E-01 1.68617E-27
8.77355E-01 1.63624E-27
8.80203E-01 1.58745E-27
8.83022E-01 1.53978E-27
8.85812E-01 1.49321E-27
8.88573E-01 1.44771E-27
8.91304E-01 1.40325E-27
8.94005E-01 1.35983E-27
8.96677E-01 1.31740E-27
8.99318E-01 1.27597E-27
9.01928E-01 1.23549E-27
9.04508E-01 1.19595E-27
9.07058E-01 1.15734E-27
9.09576E-01 1.11963E-27
9.12063E-01 1.08281E-27
9.14519E-01 1.04685E-27
9.16943E-01 1.01175E-27
9.19335E-01 9.77475E-28
9.21696E-01 9.44018E-28
9.24024E-01 9.11362E-28
9.26320E-01 8.79490E-28
9.28584E-01 8.48387E-28
9.30815E-01 8.18039E-28
9.33013E-01 7.88432E-28
9.35178E-01 7.59551E-28
9.37310E-01 7.31383E-28
9.39409E-01 7.03914E-28
9.41474E-01 6.77133E-28
9.43505E-01 6.51026E-28
9.45503E-01 6.25581E-28
9.47467E-01 6.00787E-28
9.49397E-01 5.76633E-28
9.51293E-01 5.53106E-28
9.53154E-01 5.30198E-28
9.54981E-01 5.07896E-28
9.56773E-01 4.86191E-28
9.58530E-01 4.65074E-28
9.60252E-01 4.44534E-28
9.61940E-01 4.24563E-28
9.63592E-01 4.05151E-28
9.65209E-01 3.86290E-28
9.66790E-01 3.67971E-28
9.68336E-01 3.50187E-28
9.69846E-01 3.32929E-28
9.71321E-01 3.16189E-28
9.72759E-01 2.99962E-28
9.74162E-01 2.84238E-28
9.75528E-01 2.69012E-28
9.76858E-01 2.54276E-28
9.78152E-01 2.40025E-28
9.79410E-01 2.26252E-28
9.80631E-01 2.12951E-28
9.81815E-01 2.00116E-28
9.82963E-01 1.87742E-28
9.84074E-01 1.75823E-28
9.85148E-01 1.64355E-28
9.86185E-01 1.53332E-28
9.87185E-01 1.42750E-28
9.88148E-01 1.32603E-28
9.89074E-01 1.22889E-28
9.89962E-01 1.13601E-28
9.90814E-01 1.04738E-28
9.91627E-01 9.62941E-29
9.92404E-01 8.82667E-29
9.93143E-01 8.06520E-29
9.93844E-01 7.34469E-29
9.94508E-01 6.66484E-29
9.95134E-01 6.02535E-29
9.95722E-01 5.42595E-29
9.96273E-01 4.86640E-29
9.96786E-01 4.34645E-29
9.97261E-01 3.86589E-29
9.97698E-01 3.42452E-29
9.98097E-01 3.02214E-29
9.98459E-01 2.65860E-29
9.98782E-01 2.33373E-29
9.99067E-01 2.04739E-29
9.99315E-01 1.79948E-29
9.99524E-01 1.58989E-29
9.99695E-01 1.41852E-29
9.99829E-01 1.28531E-29
9.99924E-01 1.19020E-29
9.99981E-01 1.13315E-29
1.00000E+00 1.11413E-29
