 #
 # Subroutine ELSEPA. Elastic scattering of electrons and positrons
 #                    by neutral atoms and positive ions
 #
 # Projectile: positron
 # Kinetic energy = 5.00000E+06 eV = 1.83747E+05 a.u.
 #
 # WARNING: High-energy factorization with free-atom DF screening.
 #          Absorption, polarization and exchange corrections are
 #          switched off.
 #          Phase shifts are calculated for the bare nucleus.
 #          Scattering amplitudes are not evaluated.
 #
 # Element: Zn,  Z =  30,  atomic weight = 6.53900E+01 g/mol
 #
 # Nuclear model: Fermi distribution
 #                Average radius = 4.31076E-13 cm
 #                Skin thickness = 5.46000E-14 cm
 #
 # Number of electrons = 30
 #
 # Total elastic cross section = 1.99298E-18 cm**2 = 7.11708E-02 a0**2
 # 1st transport cross section = 4.15741E-23 cm**2 = 1.48464E-06 a0**2
 # 2nd transport cross section = 1.19731E-22 cm**2 = 4.27566E-06 a0**2
 #
 #
 # Differential cross section:                       MU=(1-COS(THETA))/2
 #
 #  THETA        MU          DCS          DCS        Sherman      error
 #  (deg)                 (cm**2/sr)   (a0**2/sr)    function
 #----------------------------------------------------------------------
0.00000E+00 4.21579E-13
7.61557E-13 4.21576E-13
1.18994E-12 4.21574E-13
1.71346E-12 4.21572E-13
2.33225E-12 4.21569E-13
3.04617E-12 4.21566E-13
3.85530E-12 4.21563E-13
4.75964E-12 4.21560E-13
5.75917E-12 4.21556E-13
6.85391E-12 4.21551E-13
8.04379E-12 4.21547E-13
9.32893E-12 4.21542E-13
1.07092E-11 4.21536E-13
1.21847E-11 4.21530E-13
1.37554E-11 4.21524E-13
1.54213E-11 4.21518E-13
1.71823E-11 4.21511E-13
1.90386E-11 4.21503E-13
2.09900E-11 4.21496E-13
2.30367E-11 4.21488E-13
2.51785E-11 4.21479E-13
2.74156E-11 4.21471E-13
2.97478E-11 4.21461E-13
3.21752E-11 4.21452E-13
3.46979E-11 4.21442E-13
3.73157E-11 4.21432E-13
4.00286E-11 4.21421E-13
4.28368E-11 4.21410E-13
4.57402E-11 4.21399E-13
4.87388E-11 4.21387E-13
5.18325E-11 4.21375E-13
5.50215E-11 4.21363E-13
5.83057E-11 4.21350E-13
6.16850E-11 4.21337E-13
6.51595E-11 4.21323E-13
6.87293E-11 4.21309E-13
7.23943E-11 4.21295E-13
7.61544E-11 4.21280E-13
1.18991E-10 4.21114E-13
1.71347E-10 4.20911E-13
2.33223E-10 4.20671E-13
3.04617E-10 4.20395E-13
3.85531E-10 4.20082E-13
4.75965E-10 4.19733E-13
5.75917E-10 4.19349E-13
6.85389E-10 4.18928E-13
8.04380E-10 4.18472E-13
9.32891E-10 4.17980E-13
1.07092E-09 4.17453E-13
1.21847E-09 4.16891E-13
1.37554E-09 4.16295E-13
1.54213E-09 4.15663E-13
1.71823E-09 4.14998E-13
1.90386E-09 4.14298E-13
2.09900E-09 4.13565E-13
2.30367E-09 4.12798E-13
2.51785E-09 4.11999E-13
2.74156E-09 4.11166E-13
2.97478E-09 4.10302E-13
3.21752E-09 4.09405E-13
3.46978E-09 4.08477E-13
3.73156E-09 4.07517E-13
4.00286E-09 4.06527E-13
4.28368E-09 4.05506E-13
4.57402E-09 4.04455E-13
4.87388E-09 4.03375E-13
5.18326E-09 4.02265E-13
5.50215E-09 4.01127E-13
5.83057E-09 3.99961E-13
6.16850E-09 3.98767E-13
6.51596E-09 3.97545E-13
6.87293E-09 3.96297E-13
7.23942E-09 3.95022E-13
7.61544E-09 3.93721E-13
1.18991E-08 3.79407E-13
1.71347E-08 3.63085E-13
2.33223E-08 3.45300E-13
3.04617E-08 3.26583E-13
3.85531E-08 3.07419E-13
4.75965E-08 2.88235E-13
5.75917E-08 2.69383E-13
6.85389E-08 2.51138E-13
8.04380E-08 2.33703E-13
9.32891E-08 2.17214E-13
1.07092E-07 2.01754E-13
1.21847E-07 1.87355E-13
1.37554E-07 1.74016E-13
1.54213E-07 1.61712E-13
1.71823E-07 1.50394E-13
1.90386E-07 1.40007E-13
2.09900E-07 1.30485E-13
2.30367E-07 1.21762E-13
2.51785E-07 1.13771E-13
2.74156E-07 1.06448E-13
2.97478E-07 9.97320E-14
3.21752E-07 9.35651E-14
3.46978E-07 8.78953E-14
3.73156E-07 8.26746E-14
4.00286E-07 7.78595E-14
4.28368E-07 7.34109E-14
4.57402E-07 6.92938E-14
4.87388E-07 6.54766E-14
5.18325E-07 6.19313E-14
5.50215E-07 5.86328E-14
5.83057E-07 5.55587E-14
6.16850E-07 5.26892E-14
6.51596E-07 5.00063E-14
6.87293E-07 4.74943E-14
7.23942E-07 4.51388E-14
7.61543E-07 4.29272E-14
1.18991E-06 2.66908E-14
1.71347E-06 1.71774E-14
2.33223E-06 1.13271E-14
3.04617E-06 7.63167E-15
3.85531E-06 5.25237E-15
4.75964E-06 3.69404E-15
5.75916E-06 2.65547E-15
6.85388E-06 1.95052E-15
8.04378E-06 1.46276E-15
9.32888E-06 1.11862E-15
1.07092E-05 8.70999E-16
1.21846E-05 6.89389E-16
1.37553E-05 5.53726E-16
1.54212E-05 4.50620E-16
1.71822E-05 3.70989E-16
1.90385E-05 3.08571E-16
2.09899E-05 2.58995E-16
2.30365E-05 2.19137E-16
2.51783E-05 1.86743E-16
2.74153E-05 1.60159E-16
2.97475E-05 1.38152E-16
3.21749E-05 1.19793E-16
3.46974E-05 1.04368E-16
3.73152E-05 9.13289E-17
4.00281E-05 8.02423E-17
4.28362E-05 7.07672E-17
4.57395E-05 6.26311E-17
4.87380E-05 5.56143E-17
5.18317E-05 4.95383E-17
5.50205E-05 4.42571E-17
5.83045E-05 3.96506E-17
6.16838E-05 3.56193E-17
6.51582E-05 3.20801E-17
6.87277E-05 2.89639E-17
7.23925E-05 2.62121E-17
7.61524E-05 2.37756E-17
9.21439E-05 1.64347E-17
1.09658E-04 1.17069E-17
1.28695E-04 8.55885E-18
1.49255E-04 6.40055E-18
1.71338E-04 4.88209E-18
1.94942E-04 3.78906E-18
2.20070E-04 2.98611E-18
2.46720E-04 2.38549E-18
2.74892E-04 1.92888E-18
3.04586E-04 1.57668E-18
3.35803E-04 1.30144E-18
3.68542E-04 1.08379E-18
4.02802E-04 9.09833E-19
4.38585E-04 7.69424E-19
4.75889E-04 6.55081E-19
5.14715E-04 5.61200E-19
5.55063E-04 4.83534E-19
5.96931E-04 4.18834E-19
6.40321E-04 3.64586E-19
6.85233E-04 3.18828E-19
7.31665E-04 2.80013E-19
7.79618E-04 2.46917E-19
8.29092E-04 2.18557E-19
8.80086E-04 1.94144E-19
9.32601E-04 1.73037E-19
9.86636E-04 1.54715E-19
1.04219E-03 1.38747E-19
1.09927E-03 1.24782E-19
1.15786E-03 1.12524E-19
1.21797E-03 1.01731E-19
1.27961E-03 9.21979E-20
1.34276E-03 8.37519E-20
1.40743E-03 7.62483E-20
1.47362E-03 6.95637E-20
1.54133E-03 6.35936E-20
1.61056E-03 5.82484E-20
1.68131E-03 5.34513E-20
1.75357E-03 4.91364E-20
1.82735E-03 4.52468E-20
1.90265E-03 4.17334E-20
1.97947E-03 3.85533E-20
2.05780E-03 3.56695E-20
2.13765E-03 3.30494E-20
2.21902E-03 3.06648E-20
2.30190E-03 2.84907E-20
2.38630E-03 2.65052E-20
2.47222E-03 2.46892E-20
2.55965E-03 2.30255E-20
2.64859E-03 2.14992E-20
2.73905E-03 2.00969E-20
2.83103E-03 1.88066E-20
2.92452E-03 1.76180E-20
3.01952E-03 1.65214E-20
3.11604E-03 1.55086E-20
3.21407E-03 1.45719E-20
3.31362E-03 1.37047E-20
3.41468E-03 1.29008E-20
3.51725E-03 1.21547E-20
3.62133E-03 1.14617E-20
3.72692E-03 1.08172E-20
3.83403E-03 1.02172E-20
3.94265E-03 9.65805E-21
4.05278E-03 9.13653E-21
4.16442E-03 8.64961E-21
4.27757E-03 8.19458E-21
4.39223E-03 7.76897E-21
4.50840E-03 7.37055E-21
4.62608E-03 6.99724E-21
4.74527E-03 6.64719E-21
4.86597E-03 6.31867E-21
4.98817E-03 6.01013E-21
5.11188E-03 5.72012E-21
5.23711E-03 5.44733E-21
5.36383E-03 5.19054E-21
5.49207E-03 4.94866E-21
5.62181E-03 4.72064E-21
5.75306E-03 4.50556E-21
5.88581E-03 4.30254E-21
6.02007E-03 4.11078E-21
6.15583E-03 3.92955E-21
6.29310E-03 3.75815E-21
6.43187E-03 3.59596E-21
6.57214E-03 3.44239E-21
6.71392E-03 3.29690E-21
6.85720E-03 3.15899E-21
7.00198E-03 3.02818E-21
7.14827E-03 2.90404E-21
7.29605E-03 2.78617E-21
7.44534E-03 2.67420E-21
7.59612E-03 2.56777E-21
7.97965E-03 2.32388E-21
8.37255E-03 2.10815E-21
8.77480E-03 1.91678E-21
9.18641E-03 1.74655E-21
9.60736E-03 1.59473E-21
1.00376E-02 1.45898E-21
1.04773E-02 1.33731E-21
1.09262E-02 1.22800E-21
1.13844E-02 1.12958E-21
1.18520E-02 1.04079E-21
1.23288E-02 9.60505E-22
1.28150E-02 8.87779E-22
1.33104E-02 8.21773E-22
1.38150E-02 7.61758E-22
1.43290E-02 7.07095E-22
1.48521E-02 6.57223E-22
1.53845E-02 6.11647E-22
1.59262E-02 5.69933E-22
1.64770E-02 5.31696E-22
1.70371E-02 4.96594E-22
1.76063E-02 4.64326E-22
1.81848E-02 4.34621E-22
1.87724E-02 4.07239E-22
1.93692E-02 3.81968E-22
1.99751E-02 3.58615E-22
2.05901E-02 3.37008E-22
2.12143E-02 3.16995E-22
2.18476E-02 2.98435E-22
2.24900E-02 2.81206E-22
2.31415E-02 2.65194E-22
2.38021E-02 2.50298E-22
2.44717E-02 2.36426E-22
2.51504E-02 2.23495E-22
2.58382E-02 2.11430E-22
2.65349E-02 2.00163E-22
2.72407E-02 1.89631E-22
2.79555E-02 1.79777E-22
2.86793E-02 1.70551E-22
2.94120E-02 1.61905E-22
3.01537E-02 1.53795E-22
3.09043E-02 1.46183E-22
3.16639E-02 1.39032E-22
3.24324E-02 1.32310E-22
3.32098E-02 1.25986E-22
3.39961E-02 1.20033E-22
3.47912E-02 1.14424E-22
3.55952E-02 1.09136E-22
3.64081E-02 1.04147E-22
3.72297E-02 9.94381E-23
3.80602E-02 9.49899E-23
3.88995E-02 9.07854E-23
3.97476E-02 8.68089E-23
4.06044E-02 8.30458E-23
4.14700E-02 7.94826E-23
4.23443E-02 7.61067E-23
4.32273E-02 7.29065E-23
4.41190E-02 6.98711E-23
4.50194E-02 6.69905E-23
4.59284E-02 6.42555E-23
4.68461E-02 6.16573E-23
4.87074E-02 5.68394E-23
5.06030E-02 5.24785E-23
5.25328E-02 4.85239E-23
5.44967E-02 4.49311E-23
5.64946E-02 4.16614E-23
5.85262E-02 3.86807E-23
6.05914E-02 3.59589E-23
6.26901E-02 3.34698E-23
6.48222E-02 3.11900E-23
6.69873E-02 2.90987E-23
6.91854E-02 2.71778E-23
7.14163E-02 2.54110E-23
7.36799E-02 2.37836E-23
7.59760E-02 2.22828E-23
7.83043E-02 2.08970E-23
8.06647E-02 1.96159E-23
8.30571E-02 1.84302E-23
8.54812E-02 1.73315E-23
8.79369E-02 1.63123E-23
9.04240E-02 1.53659E-23
9.29422E-02 1.44862E-23
9.54915E-02 1.36676E-23
9.80716E-02 1.29051E-23
1.00682E-01 1.21942E-23
1.03323E-01 1.15309E-23
1.05995E-01 1.09113E-23
1.08696E-01 1.03321E-23
1.11427E-01 9.79022E-24
1.14188E-01 9.28277E-24
1.16978E-01 8.80721E-24
1.19797E-01 8.36117E-24
1.22645E-01 7.94251E-24
1.25522E-01 7.54925E-24
1.28428E-01 7.17957E-24
1.31361E-01 6.83181E-24
1.34323E-01 6.50444E-24
1.37313E-01 6.19606E-24
1.40330E-01 5.90536E-24
1.43375E-01 5.63117E-24
1.46447E-01 5.37237E-24
1.49545E-01 5.12796E-24
1.52671E-01 4.89698E-24
1.55823E-01 4.67856E-24
1.59001E-01 4.47192E-24
1.62205E-01 4.27629E-24
1.65435E-01 4.09100E-24
1.68690E-01 3.91539E-24
1.71970E-01 3.74887E-24
1.75276E-01 3.59090E-24
1.78606E-01 3.44094E-24
1.81961E-01 3.29853E-24
1.85340E-01 3.16321E-24
1.88743E-01 3.03458E-24
1.92169E-01 2.91224E-24
1.95619E-01 2.79584E-24
1.99092E-01 2.68503E-24
2.02589E-01 2.57949E-24
2.06107E-01 2.47894E-24
2.09649E-01 2.38309E-24
2.13212E-01 2.29169E-24
2.16797E-01 2.20449E-24
2.20404E-01 2.12128E-24
2.24032E-01 2.04182E-24
2.27680E-01 1.96593E-24
2.31350E-01 1.89341E-24
2.35040E-01 1.82409E-24
2.38751E-01 1.75781E-24
2.42481E-01 1.69441E-24
2.46231E-01 1.63373E-24
2.50000E-01 1.57565E-24
2.53788E-01 1.52003E-24
2.57595E-01 1.46675E-24
2.61421E-01 1.41570E-24
2.65264E-01 1.36676E-24
2.69126E-01 1.31983E-24
2.73005E-01 1.27482E-24
2.76901E-01 1.23163E-24
2.80814E-01 1.19018E-24
2.84744E-01 1.15038E-24
2.88691E-01 1.11216E-24
2.92653E-01 1.07545E-24
2.96632E-01 1.04017E-24
3.00625E-01 1.00625E-24
3.04634E-01 9.73649E-25
3.08658E-01 9.42291E-25
3.12697E-01 9.12124E-25
3.16749E-01 8.83094E-25
3.20816E-01 8.55153E-25
3.24896E-01 8.28254E-25
3.28990E-01 8.02350E-25
3.33097E-01 7.77398E-25
3.37216E-01 7.53355E-25
3.41348E-01 7.30184E-25
3.45492E-01 7.07848E-25
3.49647E-01 6.86311E-25
3.53814E-01 6.65541E-25
3.57992E-01 6.45504E-25
3.62181E-01 6.26172E-25
3.66381E-01 6.07514E-25
3.70590E-01 5.89504E-25
3.74810E-01 5.72115E-25
3.79039E-01 5.55321E-25
3.83277E-01 5.39100E-25
3.87524E-01 5.23428E-25
3.91780E-01 5.08284E-25
3.96044E-01 4.93646E-25
4.00316E-01 4.79495E-25
4.04596E-01 4.65813E-25
4.08882E-01 4.52580E-25
4.13176E-01 4.39780E-25
4.17476E-01 4.27397E-25
4.21783E-01 4.15413E-25
4.26095E-01 4.03815E-25
4.30413E-01 3.92588E-25
4.34737E-01 3.81718E-25
4.39065E-01 3.71191E-25
4.43398E-01 3.60996E-25
4.47736E-01 3.51119E-25
4.52077E-01 3.41550E-25
4.56422E-01 3.32277E-25
4.60770E-01 3.23289E-25
4.65122E-01 3.14577E-25
4.69476E-01 3.06130E-25
4.73832E-01 2.97939E-25
4.78190E-01 2.89995E-25
4.82550E-01 2.82289E-25
4.86912E-01 2.74814E-25
4.91274E-01 2.67560E-25
4.95637E-01 2.60521E-25
5.00000E-01 2.53689E-25
5.04363E-01 2.47056E-25
5.08726E-01 2.40617E-25
5.13088E-01 2.34365E-25
5.17450E-01 2.28292E-25
5.21810E-01 2.22395E-25
5.26168E-01 2.16665E-25
5.30524E-01 2.11099E-25
5.34878E-01 2.05690E-25
5.39230E-01 2.00433E-25
5.43578E-01 1.95324E-25
5.47923E-01 1.90358E-25
5.52264E-01 1.85530E-25
5.56602E-01 1.80835E-25
5.60935E-01 1.76269E-25
5.65263E-01 1.71829E-25
5.69587E-01 1.67510E-25
5.73905E-01 1.63308E-25
5.78217E-01 1.59220E-25
5.82524E-01 1.55243E-25
5.86824E-01 1.51372E-25
5.91118E-01 1.47604E-25
5.95404E-01 1.43937E-25
5.99684E-01 1.40367E-25
6.03956E-01 1.36892E-25
6.08220E-01 1.33507E-25
6.12476E-01 1.30211E-25
6.16723E-01 1.27002E-25
6.20961E-01 1.23875E-25
6.25190E-01 1.20830E-25
6.29410E-01 1.17863E-25
6.33619E-01 1.14972E-25
6.37819E-01 1.12156E-25
6.42008E-01 1.09411E-25
6.46186E-01 1.06735E-25
6.50353E-01 1.04128E-25
6.54508E-01 1.01586E-25
6.58652E-01 9.91077E-26
6.62784E-01 9.66917E-26
6.66903E-01 9.43360E-26
6.71010E-01 9.20387E-26
6.75104E-01 8.97984E-26
6.79184E-01 8.76134E-26
6.83251E-01 8.54821E-26
6.87303E-01 8.34030E-26
6.91342E-01 8.13748E-26
6.95366E-01 7.93959E-26
6.99375E-01 7.74651E-26
7.03368E-01 7.55811E-26
7.07347E-01 7.37424E-26
7.11309E-01 7.19480E-26
7.15256E-01 7.01967E-26
7.19186E-01 6.84872E-26
7.23099E-01 6.68184E-26
7.26995E-01 6.51893E-26
7.30874E-01 6.35988E-26
7.34736E-01 6.20459E-26
7.38579E-01 6.05297E-26
7.42405E-01 5.90490E-26
7.46212E-01 5.76031E-26
7.50000E-01 5.61909E-26
7.53769E-01 5.48118E-26
7.57519E-01 5.34647E-26
7.61249E-01 5.21488E-26
7.64960E-01 5.08635E-26
7.68650E-01 4.96078E-26
7.72320E-01 4.83811E-26
7.75968E-01 4.71826E-26
7.79596E-01 4.60116E-26
7.83203E-01 4.48674E-26
7.86788E-01 4.37494E-26
7.90351E-01 4.26569E-26
7.93893E-01 4.15893E-26
7.97411E-01 4.05459E-26
8.00908E-01 3.95262E-26
8.04381E-01 3.85296E-26
8.07831E-01 3.75556E-26
8.11257E-01 3.66036E-26
8.14660E-01 3.56730E-26
8.18039E-01 3.47634E-26
8.21394E-01 3.38743E-26
8.24724E-01 3.30051E-26
8.28030E-01 3.21555E-26
8.31310E-01 3.13249E-26
8.34565E-01 3.05130E-26
8.37795E-01 2.97192E-26
8.40999E-01 2.89432E-26
8.44177E-01 2.81845E-26
8.47329E-01 2.74428E-26
8.50455E-01 2.67177E-26
8.53553E-01 2.60088E-26
8.56625E-01 2.53157E-26
8.59670E-01 2.46382E-26
8.62687E-01 2.39757E-26
8.65677E-01 2.33281E-26
8.68639E-01 2.26949E-26
8.71572E-01 2.20759E-26
8.74478E-01 2.14708E-26
8.77355E-01 2.08792E-26
8.80203E-01 2.03009E-26
8.83022E-01 1.97356E-26
8.85812E-01 1.91830E-26
8.88573E-01 1.86428E-26
8.91304E-01 1.81148E-26
8.94005E-01 1.75988E-26
8.96677E-01 1.70944E-26
8.99318E-01 1.66015E-26
9.01928E-01 1.61198E-26
9.04508E-01 1.56491E-26
9.07058E-01 1.51891E-26
9.09576E-01 1.47397E-26
9.12063E-01 1.43007E-26
9.14519E-01 1.38717E-26
9.16943E-01 1.34527E-26
9.19335E-01 1.30435E-26
9.21696E-01 1.26438E-26
9.24024E-01 1.22536E-26
9.26320E-01 1.18725E-26
9.28584E-01 1.15004E-26
9.30815E-01 1.11373E-26
9.33013E-01 1.07828E-26
9.35178E-01 1.04369E-26
9.37310E-01 1.00993E-26
9.39409E-01 9.77004E-27
9.41474E-01 9.44886E-27
9.43505E-01 9.13564E-27
9.45503E-01 8.83023E-27
9.47467E-01 8.53252E-27
9.49397E-01 8.24238E-27
9.51293E-01 7.95966E-27
9.53154E-01 7.68426E-27
9.54981E-01 7.41606E-27
9.56773E-01 7.15494E-27
9.58530E-01 6.90080E-27
9.60252E-01 6.65351E-27
9.61940E-01 6.41298E-27
9.63592E-01 6.17911E-27
9.65209E-01 5.95180E-27
9.66790E-01 5.73095E-27
9.68336E-01 5.51647E-27
9.69846E-01 5.30827E-27
9.71321E-01 5.10626E-27
9.72759E-01 4.91037E-27
9.74162E-01 4.72050E-27
9.75528E-01 4.53659E-27
9.76858E-01 4.35855E-27
9.78152E-01 4.18631E-27
9.79410E-01 4.01981E-27
9.80631E-01 3.85897E-27
9.81815E-01 3.70373E-27
9.82963E-01 3.55402E-27
9.84074E-01 3.40979E-27
9.85148E-01 3.27097E-27
9.86185E-01 3.13751E-27
9.87185E-01 3.00936E-27
9.88148E-01 2.88646E-27
9.89074E-01 2.76876E-27
9.89962E-01 2.65623E-27
9.90814E-01 2.54880E-27
9.91627E-01 2.44645E-27
9.92404E-01 2.34912E-27
9.93143E-01 2.25678E-27
9.93844E-01 2.16940E-27
9.94508E-01 2.08693E-27
9.95134E-01 2.00935E-27
9.95722E-01 1.93662E-27
9.96273E-01 1.86872E-27
9.96786E-01 1.80561E-27
9.97261E-01 1.74728E-27
9.97698E-01 1.69371E-27
9.98097E-01 1.64486E-27
9.98459E-01 1.60072E-27
9.98782E-01 1.56127E-27
9.99067E-01 1.52650E-27
9.99315E-01 1.49640E-27
9.99524E-01 1.47094E-27
9.99695E-01 1.45013E-27
9.99829E-01 1.43395E-27
9.99924E-01 1.42240E-27
9.99981E-01 1.41547E-27
1.00000E+00 1.41316E-27
