 #
 # Subroutine ELSEPA. Elastic scattering of electrons and positrons
 #                    by neutral atoms and positive ions
 #
 # Projectile: positron
 # Kinetic energy = 3.50000E+07 eV = 1.28623E+06 a.u.
 #
 # WARNING: High-energy factorization with free-atom DF screening.
 #          Absorption, polarization and exchange corrections are
 #          switched off.
 #          Phase shifts are calculated for the bare nucleus.
 #          Scattering amplitudes are not evaluated.
 #
 # Element: Zn,  Z =  30,  atomic weight = 6.53900E+01 g/mol
 #
 # Nuclear model: Fermi distribution
 #                Average radius = 4.31076E-13 cm
 #                Skin thickness = 5.46000E-14 cm
 #
 # Number of electrons = 30
 #
 # Total elastic cross section = 1.97377E-18 cm**2 = 7.04846E-02 a0**2
 # 1st transport cross section = 1.31498E-24 cm**2 = 4.69587E-08 a0**2
 # 2nd transport cross section = 3.84265E-24 cm**2 = 1.37223E-07 a0**2
 #
 #
 # Differential cross section:                       MU=(1-COS(THETA))/2
 #
 #  THETA        MU          DCS          DCS        Sherman      error
 #  (deg)                 (cm**2/sr)   (a0**2/sr)    function
 #----------------------------------------------------------------------
0.00000E+00 1.75043E-11
7.61557E-13 1.74991E-11
1.18994E-12 1.74962E-11
1.71346E-12 1.74927E-11
2.33225E-12 1.74885E-11
3.04617E-12 1.74837E-11
3.85530E-12 1.74782E-11
4.75964E-12 1.74721E-11
5.75917E-12 1.74654E-11
6.85391E-12 1.74581E-11
8.04379E-12 1.74501E-11
9.32893E-12 1.74415E-11
1.07092E-11 1.74322E-11
1.21847E-11 1.74224E-11
1.37554E-11 1.74119E-11
1.54213E-11 1.74007E-11
1.71823E-11 1.73890E-11
1.90386E-11 1.73767E-11
2.09900E-11 1.73637E-11
2.30367E-11 1.73501E-11
2.51785E-11 1.73359E-11
2.74156E-11 1.73211E-11
2.97478E-11 1.73056E-11
3.21752E-11 1.72896E-11
3.46979E-11 1.72730E-11
3.73157E-11 1.72558E-11
4.00286E-11 1.72380E-11
4.28368E-11 1.72195E-11
4.57402E-11 1.72006E-11
4.87388E-11 1.71810E-11
5.18325E-11 1.71608E-11
5.50215E-11 1.71401E-11
5.83057E-11 1.71187E-11
6.16850E-11 1.70969E-11
6.51595E-11 1.70744E-11
6.87293E-11 1.70514E-11
7.23943E-11 1.70278E-11
7.61544E-11 1.70037E-11
1.18991E-10 1.67328E-11
1.71347E-10 1.64116E-11
2.33223E-10 1.60436E-11
3.04617E-10 1.56385E-11
3.85531E-10 1.51996E-11
4.75965E-10 1.47324E-11
5.75917E-10 1.42469E-11
6.85389E-10 1.37439E-11
8.04380E-10 1.32313E-11
9.32891E-10 1.27175E-11
1.07092E-09 1.21995E-11
1.21847E-09 1.16873E-11
1.37554E-09 1.11859E-11
1.54213E-09 1.06896E-11
1.71823E-09 1.02094E-11
1.90386E-09 9.74541E-12
2.09900E-09 9.29432E-12
2.30367E-09 8.86323E-12
2.51785E-09 8.45024E-12
2.74156E-09 8.05387E-12
2.97478E-09 7.67805E-12
3.21752E-09 7.31978E-12
3.46978E-09 6.97896E-12
3.73156E-09 6.65731E-12
4.00286E-09 6.35139E-12
4.28368E-09 6.06202E-12
4.57402E-09 5.78957E-12
4.87388E-09 5.53050E-12
5.18326E-09 5.28628E-12
5.50215E-09 5.05650E-12
5.83057E-09 4.83769E-12
6.16850E-09 4.63181E-12
6.51596E-09 4.43763E-12
6.87293E-09 4.25296E-12
7.23942E-09 4.07902E-12
7.61544E-09 3.91442E-12
1.18991E-08 2.66575E-12
1.71347E-08 1.89146E-12
2.33223E-08 1.35941E-12
3.04617E-08 1.01657E-12
3.85531E-08 7.64845E-13
4.75965E-08 5.79957E-13
5.75917E-08 4.47531E-13
6.85389E-08 3.45787E-13
8.04380E-08 2.70030E-13
9.32891E-08 2.13513E-13
1.07092E-07 1.69468E-13
1.21847E-07 1.36058E-13
1.37554E-07 1.10369E-13
1.54213E-07 9.00849E-14
1.71823E-07 7.42951E-14
1.90386E-07 6.18033E-14
2.09900E-07 5.17952E-14
2.30367E-07 4.37713E-14
2.51785E-07 3.72605E-14
2.74156E-07 3.19324E-14
2.97478E-07 2.75500E-14
3.21752E-07 2.39103E-14
3.46978E-07 2.08662E-14
3.73156E-07 1.83074E-14
4.00286E-07 1.61368E-14
4.28368E-07 1.42869E-14
4.57402E-07 1.27032E-14
4.87388E-07 1.13334E-14
5.18325E-07 1.01477E-14
5.50215E-07 9.11742E-15
5.83057E-07 8.21353E-15
6.16850E-07 7.42150E-15
6.51596E-07 6.72412E-15
6.87293E-07 6.10546E-15
7.23942E-07 5.55747E-15
7.61543E-07 5.06951E-15
1.18991E-06 2.22286E-15
1.71347E-06 1.11183E-15
2.33223E-06 6.12169E-16
3.04617E-06 3.63624E-16
3.85531E-06 2.29243E-16
4.75964E-06 1.51679E-16
5.75916E-06 1.04376E-16
6.85388E-06 7.41966E-17
8.04378E-06 5.42021E-17
9.32888E-06 4.05183E-17
1.07092E-05 3.08983E-17
1.21846E-05 2.39727E-17
1.37553E-05 1.88825E-17
1.54212E-05 1.50744E-17
1.71822E-05 1.21786E-17
1.90385E-05 9.94450E-18
2.09899E-05 8.20113E-18
2.30365E-05 6.82263E-18
2.51783E-05 5.72130E-18
2.74153E-05 4.83287E-18
2.97475E-05 4.10995E-18
3.21749E-05 3.51710E-18
3.46974E-05 3.02724E-18
3.73152E-05 2.61974E-18
4.00281E-05 2.27852E-18
4.28362E-05 1.99102E-18
4.57395E-05 1.74740E-18
4.87380E-05 1.53985E-18
5.18317E-05 1.36215E-18
5.50205E-05 1.20930E-18
5.83045E-05 1.07726E-18
6.16838E-05 9.62737E-19
6.51582E-05 8.63027E-19
6.87277E-05 7.75890E-19
7.23925E-05 6.99473E-19
7.61524E-05 6.32231E-19
9.21439E-05 4.32027E-19
1.09658E-04 3.05095E-19
1.28695E-04 2.21516E-19
1.49255E-04 1.64669E-19
1.71338E-04 1.24933E-19
1.94942E-04 9.64822E-20
2.20070E-04 7.56829E-20
2.46720E-04 6.01944E-20
2.74892E-04 4.84695E-20
3.04586E-04 3.94635E-20
3.35803E-04 3.24534E-20
3.68542E-04 2.69318E-20
4.02802E-04 2.25350E-20
4.38585E-04 1.89991E-20
4.75889E-04 1.61296E-20
5.14715E-04 1.37814E-20
5.55063E-04 1.18450E-20
5.96931E-04 1.02367E-20
6.40321E-04 8.89196E-21
6.85233E-04 7.76073E-21
7.31665E-04 6.80357E-21
7.79618E-04 5.98935E-21
8.29092E-04 5.29320E-21
8.80086E-04 4.69519E-21
9.32601E-04 4.17917E-21
9.86636E-04 3.73203E-21
1.04219E-03 3.34304E-21
1.09927E-03 3.00335E-21
1.15786E-03 2.70566E-21
1.21797E-03 2.44390E-21
1.27961E-03 2.21299E-21
1.34276E-03 2.00867E-21
1.40743E-03 1.82735E-21
1.47362E-03 1.66601E-21
1.54133E-03 1.52204E-21
1.61056E-03 1.39327E-21
1.68131E-03 1.27781E-21
1.75357E-03 1.17404E-21
1.82735E-03 1.08057E-21
1.90265E-03 9.96198E-22
1.97947E-03 9.19886E-22
2.05780E-03 8.50727E-22
2.13765E-03 7.87933E-22
2.21902E-03 7.30814E-22
2.30190E-03 6.78764E-22
2.38630E-03 6.31257E-22
2.47222E-03 5.87824E-22
2.55965E-03 5.48053E-22
2.64859E-03 5.11581E-22
2.73905E-03 4.78085E-22
2.83103E-03 4.47279E-22
2.92452E-03 4.18908E-22
3.01952E-03 3.92745E-22
3.11604E-03 3.68588E-22
3.21407E-03 3.46253E-22
3.31362E-03 3.25581E-22
3.41468E-03 3.06423E-22
3.51725E-03 2.88651E-22
3.62133E-03 2.72144E-22
3.72692E-03 2.56796E-22
3.83403E-03 2.42512E-22
3.94265E-03 2.29205E-22
4.05278E-03 2.16795E-22
4.16442E-03 2.05210E-22
4.27757E-03 1.94387E-22
4.39223E-03 1.84265E-22
4.50840E-03 1.74791E-22
4.62608E-03 1.65916E-22
4.74527E-03 1.57596E-22
4.86597E-03 1.49788E-22
4.98817E-03 1.42457E-22
5.11188E-03 1.35566E-22
5.23711E-03 1.29086E-22
5.36383E-03 1.22987E-22
5.49207E-03 1.17242E-22
5.62181E-03 1.11828E-22
5.75306E-03 1.06721E-22
5.88581E-03 1.01902E-22
6.02007E-03 9.73500E-23
6.15583E-03 9.30485E-23
6.29310E-03 8.89809E-23
6.43187E-03 8.51322E-23
6.57214E-03 8.14886E-23
6.71392E-03 7.80369E-23
6.85720E-03 7.47652E-23
7.00198E-03 7.16623E-23
7.14827E-03 6.87181E-23
7.29605E-03 6.59229E-23
7.44534E-03 6.32677E-23
7.59612E-03 6.07440E-23
7.97965E-03 5.49620E-23
8.37255E-03 4.98486E-23
8.77480E-03 4.53134E-23
9.18641E-03 4.12800E-23
9.60736E-03 3.76832E-23
1.00376E-02 3.44678E-23
1.04773E-02 3.15864E-23
1.09262E-02 2.89982E-23
1.13844E-02 2.66683E-23
1.18520E-02 2.45664E-23
1.23288E-02 2.26663E-23
1.28150E-02 2.09453E-23
1.33104E-02 1.93836E-23
1.38150E-02 1.79639E-23
1.43290E-02 1.66709E-23
1.48521E-02 1.54915E-23
1.53845E-02 1.44138E-23
1.59262E-02 1.34275E-23
1.64770E-02 1.25236E-23
1.70371E-02 1.16939E-23
1.76063E-02 1.09313E-23
1.81848E-02 1.02294E-23
1.87724E-02 9.58248E-24
1.93692E-02 8.98550E-24
1.99751E-02 8.43391E-24
2.05901E-02 7.92365E-24
2.12143E-02 7.45108E-24
2.18476E-02 7.01291E-24
2.24900E-02 6.60620E-24
2.31415E-02 6.22829E-24
2.38021E-02 5.87676E-24
2.44717E-02 5.54946E-24
2.51504E-02 5.24441E-24
2.58382E-02 4.95984E-24
2.65349E-02 4.69411E-24
2.72407E-02 4.44577E-24
2.79555E-02 4.21346E-24
2.86793E-02 3.99597E-24
2.94120E-02 3.79219E-24
3.01537E-02 3.60109E-24
3.09043E-02 3.42175E-24
3.16639E-02 3.25330E-24
3.24324E-02 3.09498E-24
3.32098E-02 2.94606E-24
3.39961E-02 2.80589E-24
3.47912E-02 2.67385E-24
3.55952E-02 2.54940E-24
3.64081E-02 2.43201E-24
3.72297E-02 2.32122E-24
3.80602E-02 2.21658E-24
3.88995E-02 2.11770E-24
3.97476E-02 2.02419E-24
4.06044E-02 1.93573E-24
4.14700E-02 1.85197E-24
4.23443E-02 1.77264E-24
4.32273E-02 1.69745E-24
4.41190E-02 1.62614E-24
4.50194E-02 1.55849E-24
4.59284E-02 1.49427E-24
4.68461E-02 1.43327E-24
4.87074E-02 1.32020E-24
5.06030E-02 1.21790E-24
5.25328E-02 1.12517E-24
5.44967E-02 1.04096E-24
5.64946E-02 9.64362E-25
5.85262E-02 8.94564E-25
6.05914E-02 8.30862E-25
6.26901E-02 7.72632E-25
6.48222E-02 7.19325E-25
6.69873E-02 6.70452E-25
6.91854E-02 6.25583E-25
7.14163E-02 5.84334E-25
7.36799E-02 5.46362E-25
7.59760E-02 5.11363E-25
7.83043E-02 4.79064E-25
8.06647E-02 4.49222E-25
8.30571E-02 4.21617E-25
8.54812E-02 3.96053E-25
8.79369E-02 3.72354E-25
9.04240E-02 3.50360E-25
9.29422E-02 3.29928E-25
9.54915E-02 3.10928E-25
9.80716E-02 2.93242E-25
1.00682E-01 2.76764E-25
1.03323E-01 2.61397E-25
1.05995E-01 2.47055E-25
1.08696E-01 2.33656E-25
1.11427E-01 2.21128E-25
1.14188E-01 2.09405E-25
1.16978E-01 1.98426E-25
1.19797E-01 1.88137E-25
1.22645E-01 1.78486E-25
1.25522E-01 1.69427E-25
1.28428E-01 1.60918E-25
1.31361E-01 1.52920E-25
1.34323E-01 1.45396E-25
1.37313E-01 1.38315E-25
1.40330E-01 1.31645E-25
1.43375E-01 1.25358E-25
1.46447E-01 1.19430E-25
1.49545E-01 1.13835E-25
1.52671E-01 1.08553E-25
1.55823E-01 1.03562E-25
1.59001E-01 9.88439E-26
1.62205E-01 9.43815E-26
1.65435E-01 9.01585E-26
1.68690E-01 8.61598E-26
1.71970E-01 8.23715E-26
1.75276E-01 7.87808E-26
1.78606E-01 7.53756E-26
1.81961E-01 7.21448E-26
1.85340E-01 6.90779E-26
1.88743E-01 6.61652E-26
1.92169E-01 6.33977E-26
1.95619E-01 6.07670E-26
1.99092E-01 5.82652E-26
2.02589E-01 5.58849E-26
2.06107E-01 5.36193E-26
2.09649E-01 5.14620E-26
2.13212E-01 4.94068E-26
2.16797E-01 4.74483E-26
2.20404E-01 4.55810E-26
2.24032E-01 4.38001E-26
2.27680E-01 4.21009E-26
2.31350E-01 4.04791E-26
2.35040E-01 3.89305E-26
2.38751E-01 3.74514E-26
2.42481E-01 3.60380E-26
2.46231E-01 3.46871E-26
2.50000E-01 3.33954E-26
2.53788E-01 3.21598E-26
2.57595E-01 3.09777E-26
2.61421E-01 2.98462E-26
2.65264E-01 2.87629E-26
2.69126E-01 2.77253E-26
2.73005E-01 2.67314E-26
2.76901E-01 2.57789E-26
2.80814E-01 2.48658E-26
2.84744E-01 2.39902E-26
2.88691E-01 2.31504E-26
2.92653E-01 2.23447E-26
2.96632E-01 2.15714E-26
3.00625E-01 2.08291E-26
3.04634E-01 2.01163E-26
3.08658E-01 1.94317E-26
3.12697E-01 1.87740E-26
3.16749E-01 1.81420E-26
3.20816E-01 1.75344E-26
3.24896E-01 1.69503E-26
3.28990E-01 1.63885E-26
3.33097E-01 1.58481E-26
3.37216E-01 1.53282E-26
3.41348E-01 1.48278E-26
3.45492E-01 1.43461E-26
3.49647E-01 1.38824E-26
3.53814E-01 1.34357E-26
3.57992E-01 1.30055E-26
3.62181E-01 1.25910E-26
3.66381E-01 1.21915E-26
3.70590E-01 1.18065E-26
3.74810E-01 1.14353E-26
3.79039E-01 1.10774E-26
3.83277E-01 1.07321E-26
3.87524E-01 1.03991E-26
3.91780E-01 1.00778E-26
3.96044E-01 9.76767E-27
4.00316E-01 9.46835E-27
4.04596E-01 9.17938E-27
4.08882E-01 8.90035E-27
4.13176E-01 8.63087E-27
4.17476E-01 8.37057E-27
4.21783E-01 8.11909E-27
4.26095E-01 7.87609E-27
4.30413E-01 7.64123E-27
4.34737E-01 7.41421E-27
4.39065E-01 7.19474E-27
4.43398E-01 6.98251E-27
4.47736E-01 6.77727E-27
4.52077E-01 6.57874E-27
4.56422E-01 6.38669E-27
4.60770E-01 6.20086E-27
4.65122E-01 6.02102E-27
4.69476E-01 5.84697E-27
4.73832E-01 5.67848E-27
4.78190E-01 5.51535E-27
4.82550E-01 5.35739E-27
4.86912E-01 5.20442E-27
4.91274E-01 5.05625E-27
4.95637E-01 4.91272E-27
5.00000E-01 4.77365E-27
5.04363E-01 4.63889E-27
5.08726E-01 4.50830E-27
5.13088E-01 4.38171E-27
5.17450E-01 4.25901E-27
5.21810E-01 4.14004E-27
5.26168E-01 4.02468E-27
5.30524E-01 3.91281E-27
5.34878E-01 3.80431E-27
5.39230E-01 3.69906E-27
5.43578E-01 3.59695E-27
5.47923E-01 3.49788E-27
5.52264E-01 3.40175E-27
5.56602E-01 3.30845E-27
5.60935E-01 3.21790E-27
5.65263E-01 3.12999E-27
5.69587E-01 3.04466E-27
5.73905E-01 2.96180E-27
5.78217E-01 2.88134E-27
5.82524E-01 2.80320E-27
5.86824E-01 2.72731E-27
5.91118E-01 2.65359E-27
5.95404E-01 2.58198E-27
5.99684E-01 2.51240E-27
6.03956E-01 2.44479E-27
6.08220E-01 2.37909E-27
6.12476E-01 2.31524E-27
6.16723E-01 2.25318E-27
6.20961E-01 2.19286E-27
6.25190E-01 2.13421E-27
6.29410E-01 2.07719E-27
6.33619E-01 2.02175E-27
6.37819E-01 1.96784E-27
6.42008E-01 1.91541E-27
6.46186E-01 1.86442E-27
6.50353E-01 1.81481E-27
6.54508E-01 1.76656E-27
6.58652E-01 1.71962E-27
6.62784E-01 1.67395E-27
6.66903E-01 1.62951E-27
6.71010E-01 1.58626E-27
6.75104E-01 1.54417E-27
6.79184E-01 1.50321E-27
6.83251E-01 1.46334E-27
6.87303E-01 1.42453E-27
6.91342E-01 1.38675E-27
6.95366E-01 1.34996E-27
6.99375E-01 1.31415E-27
7.03368E-01 1.27927E-27
7.07347E-01 1.24531E-27
7.11309E-01 1.21224E-27
7.15256E-01 1.18003E-27
7.19186E-01 1.14865E-27
7.23099E-01 1.11809E-27
7.26995E-01 1.08832E-27
7.30874E-01 1.05932E-27
7.34736E-01 1.03107E-27
7.38579E-01 1.00354E-27
7.42405E-01 9.76713E-28
7.46212E-01 9.50574E-28
7.50000E-01 9.25101E-28
7.53769E-01 9.00277E-28
7.57519E-01 8.76082E-28
7.61249E-01 8.52500E-28
7.64960E-01 8.29514E-28
7.68650E-01 8.07108E-28
7.72320E-01 7.85265E-28
7.75968E-01 7.63971E-28
7.79596E-01 7.43212E-28
7.83203E-01 7.22971E-28
7.86788E-01 7.03236E-28
7.90351E-01 6.83993E-28
7.93893E-01 6.65229E-28
7.97411E-01 6.46932E-28
8.00908E-01 6.29088E-28
8.04381E-01 6.11686E-28
8.07831E-01 5.94715E-28
8.11257E-01 5.78162E-28
8.14660E-01 5.62018E-28
8.18039E-01 5.46272E-28
8.21394E-01 5.30912E-28
8.24724E-01 5.15931E-28
8.28030E-01 5.01317E-28
8.31310E-01 4.87061E-28
8.34565E-01 4.73154E-28
8.37795E-01 4.59588E-28
8.40999E-01 4.46353E-28
8.44177E-01 4.33442E-28
8.47329E-01 4.20846E-28
8.50455E-01 4.08557E-28
8.53553E-01 3.96569E-28
8.56625E-01 3.84872E-28
8.59670E-01 3.73461E-28
8.62687E-01 3.62328E-28
8.65677E-01 3.51466E-28
8.68639E-01 3.40869E-28
8.71572E-01 3.30531E-28
8.74478E-01 3.20444E-28
8.77355E-01 3.10603E-28
8.80203E-01 3.01003E-28
8.83022E-01 2.91637E-28
8.85812E-01 2.82500E-28
8.88573E-01 2.73587E-28
8.91304E-01 2.64892E-28
8.94005E-01 2.56410E-28
8.96677E-01 2.48136E-28
8.99318E-01 2.40066E-28
9.01928E-01 2.32195E-28
9.04508E-01 2.24518E-28
9.07058E-01 2.17031E-28
9.09576E-01 2.09729E-28
9.12063E-01 2.02609E-28
9.14519E-01 1.95666E-28
9.16943E-01 1.88897E-28
9.19335E-01 1.82297E-28
9.21696E-01 1.75863E-28
9.24024E-01 1.69592E-28
9.26320E-01 1.63479E-28
9.28584E-01 1.57522E-28
9.30815E-01 1.51717E-28
9.33013E-01 1.46061E-28
9.35178E-01 1.40551E-28
9.37310E-01 1.35184E-28
9.39409E-01 1.29956E-28
9.41474E-01 1.24866E-28
9.43505E-01 1.19910E-28
9.45503E-01 1.15085E-28
9.47467E-01 1.10390E-28
9.49397E-01 1.05821E-28
9.51293E-01 1.01375E-28
9.53154E-01 9.70521E-29
9.54981E-01 9.28480E-29
9.56773E-01 8.87610E-29
9.58530E-01 8.47889E-29
9.60252E-01 8.09296E-29
9.61940E-01 7.71811E-29
9.63592E-01 7.35414E-29
9.65209E-01 7.00086E-29
9.66790E-01 6.65809E-29
9.68336E-01 6.32564E-29
9.69846E-01 6.00334E-29
9.71321E-01 5.69103E-29
9.72759E-01 5.38854E-29
9.74162E-01 5.09571E-29
9.75528E-01 4.81240E-29
9.76858E-01 4.53845E-29
9.78152E-01 4.27374E-29
9.79410E-01 4.01811E-29
9.80631E-01 3.77144E-29
9.81815E-01 3.53361E-29
9.82963E-01 3.30449E-29
9.84074E-01 3.08396E-29
9.85148E-01 2.87191E-29
9.86185E-01 2.66825E-29
9.87185E-01 2.47285E-29
9.88148E-01 2.28562E-29
9.89074E-01 2.10648E-29
9.89962E-01 1.93532E-29
9.90814E-01 1.77206E-29
9.91627E-01 1.61662E-29
9.92404E-01 1.46892E-29
9.93143E-01 1.32889E-29
9.93844E-01 1.19645E-29
9.94508E-01 1.07154E-29
9.95134E-01 9.54100E-30
9.95722E-01 8.44067E-30
9.96273E-01 7.41388E-30
9.96786E-01 6.46011E-30
9.97261E-01 5.57888E-30
9.97698E-01 4.76975E-30
9.98097E-01 4.03233E-30
9.98459E-01 3.36623E-30
9.98782E-01 2.77114E-30
9.99067E-01 2.24675E-30
9.99315E-01 1.79281E-30
9.99524E-01 1.40908E-30
9.99695E-01 1.09538E-30
9.99829E-01 8.51560E-31
9.99924E-01 6.77485E-31
9.99981E-01 5.73075E-31
1.00000E+00 5.38272E-31
