 #
 # Subroutine ELSEPA. Elastic scattering of electrons and positrons
 #                    by neutral atoms and positive ions
 #
 # Projectile: positron
 # Kinetic energy = 2.50000E+08 eV = 9.18733E+06 a.u.
 #
 # WARNING: High-energy factorization with free-atom DF screening.
 #          Absorption, polarization and exchange corrections are
 #          switched off.
 #          Phase shifts are calculated for the bare nucleus.
 #          Scattering amplitudes are not evaluated.
 #
 # Element: Zn,  Z =  30,  atomic weight = 6.53900E+01 g/mol
 #
 # Nuclear model: Fermi distribution
 #                Average radius = 4.31076E-13 cm
 #                Skin thickness = 5.46000E-14 cm
 #
 # Number of electrons = 30
 #
 # Total elastic cross section = 1.97403E-18 cm**2 = 7.04938E-02 a0**2
 # 1st transport cross section = 2.91892E-26 cm**2 = 1.04237E-09 a0**2
 # 2nd transport cross section = 8.74006E-26 cm**2 = 3.12113E-09 a0**2
 #
 #
 # Differential cross section:                       MU=(1-COS(THETA))/2
 #
 #  THETA        MU          DCS          DCS        Sherman      error
 #  (deg)                 (cm**2/sr)   (a0**2/sr)    function
 #----------------------------------------------------------------------
0.00000E+00 8.71108E-10
7.61557E-13 8.58551E-10
1.18994E-12 8.51627E-10
1.71346E-12 8.43294E-10
2.33225E-12 8.33622E-10
3.04617E-12 8.22695E-10
3.85530E-12 8.10572E-10
4.75964E-12 7.97358E-10
5.75917E-12 7.83310E-10
6.85391E-12 7.68221E-10
8.04379E-12 7.52568E-10
9.32893E-12 7.36085E-10
1.07092E-11 7.19221E-10
1.21847E-11 7.01809E-10
1.37554E-11 6.84135E-10
1.54213E-11 6.66207E-10
1.71823E-11 6.48100E-10
1.90386E-11 6.30025E-10
2.09900E-11 6.11818E-10
2.30367E-11 5.93906E-10
2.51785E-11 5.75888E-10
2.74156E-11 5.58338E-10
2.97478E-11 5.40798E-10
3.21752E-11 5.23758E-10
3.46979E-11 5.06924E-10
3.73157E-11 4.90549E-10
4.00286E-11 4.74542E-10
4.28368E-11 4.58944E-10
4.57402E-11 4.43837E-10
4.87388E-11 4.29087E-10
5.18325E-11 4.14918E-10
5.50215E-11 4.01053E-10
5.83057E-11 3.87813E-10
6.16850E-11 3.74859E-10
6.51595E-11 3.62494E-10
6.87293E-11 3.50482E-10
7.23943E-11 3.38972E-10
7.61544E-11 3.27861E-10
1.18991E-10 2.37888E-10
1.71347E-10 1.77316E-10
2.33223E-10 1.35670E-10
3.04617E-10 1.05960E-10
3.85531E-10 8.35968E-11
4.75965E-10 6.65424E-11
5.75917E-10 5.45832E-11
6.85389E-10 4.40339E-11
8.04380E-10 3.64263E-11
9.32891E-10 2.98480E-11
1.07092E-09 2.48132E-11
1.21847E-09 2.06134E-11
1.37554E-09 1.72364E-11
1.54213E-09 1.44818E-11
1.71823E-09 1.21965E-11
1.90386E-09 1.03496E-11
2.09900E-09 8.78892E-12
2.30367E-09 7.52701E-12
2.51785E-09 6.44951E-12
2.74156E-09 5.56924E-12
2.97478E-09 4.81869E-12
3.21752E-09 4.19444E-12
3.46978E-09 3.66397E-12
3.73156E-09 3.21535E-12
4.00286E-09 2.83323E-12
4.28368E-09 2.50610E-12
4.57402E-09 2.22589E-12
4.87388E-09 1.98365E-12
5.18326E-09 1.77471E-12
5.50215E-09 1.59252E-12
5.83057E-09 1.43419E-12
6.16850E-09 1.29510E-12
6.51596E-09 1.17323E-12
6.87293E-09 1.06556E-12
7.23942E-09 9.70433E-13
7.61544E-09 8.85921E-13
1.18991E-08 3.97543E-13
1.71347E-08 2.05233E-13
2.33223E-08 1.15939E-13
3.04617E-08 6.99698E-14
3.85531E-08 4.44898E-14
4.75965E-08 2.95698E-14
5.75917E-08 2.03915E-14
6.85389E-08 1.45096E-14
8.04380E-08 1.06047E-14
9.32891E-08 7.93174E-15
1.07092E-07 6.05194E-15
1.21847E-07 4.69890E-15
1.37554E-07 3.70474E-15
1.54213E-07 2.96076E-15
1.71823E-07 2.39490E-15
1.90386E-07 1.95821E-15
2.09900E-07 1.61680E-15
2.30367E-07 1.34666E-15
2.51785E-07 1.13068E-15
2.74156E-07 9.56313E-16
2.97478E-07 8.14295E-16
3.21752E-07 6.97675E-16
3.46978E-07 6.01191E-16
3.73156E-07 5.20808E-16
4.00286E-07 4.53400E-16
4.28368E-07 3.96538E-16
4.57402E-07 3.48306E-16
4.87388E-07 3.07180E-16
5.18325E-07 2.71940E-16
5.50215E-07 2.41604E-16
5.83057E-07 2.15377E-16
6.16850E-07 1.92607E-16
6.51596E-07 1.72764E-16
6.87293E-07 1.55407E-16
7.23942E-07 1.40174E-16
7.61543E-07 1.26759E-16
1.18991E-06 5.21550E-17
1.71347E-06 2.52065E-17
2.33223E-06 1.36212E-17
3.04617E-06 7.98938E-18
3.85531E-06 4.98942E-18
4.75964E-06 3.27416E-18
5.75916E-06 2.23649E-18
6.85388E-06 1.57916E-18
8.04378E-06 1.14649E-18
9.32888E-06 8.52346E-19
1.07092E-05 6.46752E-19
1.21846E-05 4.99564E-19
1.37553E-05 3.91958E-19
1.54212E-05 3.11821E-19
1.71822E-05 2.51153E-19
1.90385E-05 2.04528E-19
2.09899E-05 1.68270E-19
2.30365E-05 1.39695E-19
2.51783E-05 1.16928E-19
2.74153E-05 9.86099E-20
2.97475E-05 8.37388E-20
3.21749E-05 7.15674E-20
3.46974E-05 6.15299E-20
3.73152E-05 5.31933E-20
4.00281E-05 4.62229E-20
4.28362E-05 4.03581E-20
4.57395E-05 3.53942E-20
4.87380E-05 3.11699E-20
5.18317E-05 2.75567E-20
5.50205E-05 2.44516E-20
5.83045E-05 2.17714E-20
6.16838E-05 1.94485E-20
6.51582E-05 1.74274E-20
6.87277E-05 1.56623E-20
7.23925E-05 1.41151E-20
7.61524E-05 1.27490E-20
9.21439E-05 8.70187E-21
1.09658E-04 6.13960E-21
1.28695E-04 4.45424E-21
1.49255E-04 3.30891E-21
1.71338E-04 2.50886E-21
1.94942E-04 1.93634E-21
2.20070E-04 1.51799E-21
2.46720E-04 1.20660E-21
2.74892E-04 9.70974E-22
3.04586E-04 7.90053E-22
3.35803E-04 6.49278E-22
3.68542E-04 5.38435E-22
4.02802E-04 4.50205E-22
4.38585E-04 3.79275E-22
4.75889E-04 3.21736E-22
5.14715E-04 2.74667E-22
5.55063E-04 2.35867E-22
5.96931E-04 2.03654E-22
6.40321E-04 1.76733E-22
6.85233E-04 1.54095E-22
7.31665E-04 1.34950E-22
7.79618E-04 1.18671E-22
8.29092E-04 1.04760E-22
8.80086E-04 9.28159E-23
9.32601E-04 8.25150E-23
9.86636E-04 7.35940E-23
1.04219E-03 6.58375E-23
1.09927E-03 5.90682E-23
1.15786E-03 5.31395E-23
1.21797E-03 4.79297E-23
1.27961E-03 4.33368E-23
1.34276E-03 3.92757E-23
1.40743E-03 3.56743E-23
1.47362E-03 3.24718E-23
1.54133E-03 2.96166E-23
1.61056E-03 2.70646E-23
1.68131E-03 2.47782E-23
1.75357E-03 2.27250E-23
1.82735E-03 2.08772E-23
1.90265E-03 1.92107E-23
1.97947E-03 1.77048E-23
2.05780E-03 1.63412E-23
2.13765E-03 1.51043E-23
2.21902E-03 1.39803E-23
2.30190E-03 1.29571E-23
2.38630E-03 1.20241E-23
2.47222E-03 1.11720E-23
2.55965E-03 1.03925E-23
2.64859E-03 9.67856E-24
2.73905E-03 9.02356E-24
2.83103E-03 8.42186E-24
2.92452E-03 7.86836E-24
3.01952E-03 7.35854E-24
3.11604E-03 6.88838E-24
3.21407E-03 6.45425E-24
3.31362E-03 6.05293E-24
3.41468E-03 5.68151E-24
3.51725E-03 5.33738E-24
3.62133E-03 5.01820E-24
3.72692E-03 4.72186E-24
3.83403E-03 4.44643E-24
3.94265E-03 4.19019E-24
4.05278E-03 3.95158E-24
4.16442E-03 3.72919E-24
4.27757E-03 3.52171E-24
4.39223E-03 3.32799E-24
4.50840E-03 3.14695E-24
4.62608E-03 2.97763E-24
4.74527E-03 2.81914E-24
4.86597E-03 2.67067E-24
4.98817E-03 2.53148E-24
5.11188E-03 2.40089E-24
5.23711E-03 2.27829E-24
5.36383E-03 2.16310E-24
5.49207E-03 2.05481E-24
5.62181E-03 1.95292E-24
5.75306E-03 1.85700E-24
5.88581E-03 1.76665E-24
6.02007E-03 1.68147E-24
6.15583E-03 1.60114E-24
6.29310E-03 1.52533E-24
6.43187E-03 1.45373E-24
6.57214E-03 1.38609E-24
6.71392E-03 1.32215E-24
6.85720E-03 1.26166E-24
7.00198E-03 1.20442E-24
7.14827E-03 1.15022E-24
7.29605E-03 1.09887E-24
7.44534E-03 1.05021E-24
7.59612E-03 1.00406E-24
7.97965E-03 8.98729E-25
8.37255E-03 8.06129E-25
8.77480E-03 7.24495E-25
9.18641E-03 6.52343E-25
9.60736E-03 5.88416E-25
1.00376E-02 5.31644E-25
1.04773E-02 4.81114E-25
1.09262E-02 4.36045E-25
1.13844E-02 3.95766E-25
1.18520E-02 3.59698E-25
1.23288E-02 3.27342E-25
1.28150E-02 2.98265E-25
1.33104E-02 2.72091E-25
1.38150E-02 2.48492E-25
1.43290E-02 2.27182E-25
1.48521E-02 2.07912E-25
1.53845E-02 1.90460E-25
1.59262E-02 1.74635E-25
1.64770E-02 1.60267E-25
1.70371E-02 1.47204E-25
1.76063E-02 1.35315E-25
1.81848E-02 1.24481E-25
1.87724E-02 1.14599E-25
1.93692E-02 1.05574E-25
1.99751E-02 9.73254E-26
2.05901E-02 8.97780E-26
2.12143E-02 8.28660E-26
2.18476E-02 7.65303E-26
2.24900E-02 7.07179E-26
2.31415E-02 6.53812E-26
2.38021E-02 6.04774E-26
2.44717E-02 5.59681E-26
2.51504E-02 5.18184E-26
2.58382E-02 4.79970E-26
2.65349E-02 4.44756E-26
2.72407E-02 4.12286E-26
2.79555E-02 3.82327E-26
2.86793E-02 3.54669E-26
2.94120E-02 3.29121E-26
3.01537E-02 3.05508E-26
3.09043E-02 2.83674E-26
3.16639E-02 2.63473E-26
3.24324E-02 2.44775E-26
3.32098E-02 2.27460E-26
3.39961E-02 2.11418E-26
3.47912E-02 1.96551E-26
3.55952E-02 1.82766E-26
3.64081E-02 1.69979E-26
3.72297E-02 1.58115E-26
3.80602E-02 1.47102E-26
3.88995E-02 1.36877E-26
3.97476E-02 1.27379E-26
4.06044E-02 1.18555E-26
4.14700E-02 1.10355E-26
4.23443E-02 1.02731E-26
4.32273E-02 9.56427E-27
4.41190E-02 8.90500E-27
4.50194E-02 8.29171E-27
4.59284E-02 7.72105E-27
4.68461E-02 7.18997E-27
4.87074E-02 6.23541E-27
5.06030E-02 5.40780E-27
5.25328E-02 4.68985E-27
5.44967E-02 4.06674E-27
5.64946E-02 3.52572E-27
5.85262E-02 3.05586E-27
6.05914E-02 2.64770E-27
6.26901E-02 2.29309E-27
6.48222E-02 1.98501E-27
6.69873E-02 1.71735E-27
6.91854E-02 1.48484E-27
7.14163E-02 1.28290E-27
7.36799E-02 1.10757E-27
7.59760E-02 9.55383E-28
7.83043E-02 8.23353E-28
8.06647E-02 7.08864E-28
8.30571E-02 6.09647E-28
8.54812E-02 5.23721E-28
8.79369E-02 4.49361E-28
9.04240E-02 3.85066E-28
9.29422E-02 3.29524E-28
9.54915E-02 2.81591E-28
9.80716E-02 2.40272E-28
1.00682E-01 2.04695E-28
1.03323E-01 1.74103E-28
1.05995E-01 1.47833E-28
1.08696E-01 1.25309E-28
1.11427E-01 1.06028E-28
1.14188E-01 8.95515E-29
1.16978E-01 7.54975E-29
1.19797E-01 6.35338E-29
1.22645E-01 5.33712E-29
1.25522E-01 4.47582E-29
1.28428E-01 3.74764E-29
1.31361E-01 3.13361E-29
1.34323E-01 2.61728E-29
1.37313E-01 2.18441E-29
1.40330E-01 1.82268E-29
1.43375E-01 1.52142E-29
1.46447E-01 1.27146E-29
1.49545E-01 1.06488E-29
1.52671E-01 8.94856E-30
1.55823E-01 7.55556E-30
1.59001E-01 6.41970E-30
1.62205E-01 5.49817E-30
1.65435E-01 4.75448E-30
1.68690E-01 4.15759E-30
1.71970E-01 3.68120E-30
1.75276E-01 3.30305E-30
1.78606E-01 3.00444E-30
1.81961E-01 2.76964E-30
1.85340E-01 2.58554E-30
1.88743E-01 2.44125E-30
1.92169E-01 2.32777E-30
1.95619E-01 2.23770E-30
1.99092E-01 2.16505E-30
2.02589E-01 2.10494E-30
2.06107E-01 2.05351E-30
2.09649E-01 2.00768E-30
2.13212E-01 1.96510E-30
2.16797E-01 1.92394E-30
2.20404E-01 1.88288E-30
2.24032E-01 1.84095E-30
2.27680E-01 1.79753E-30
2.31350E-01 1.75222E-30
2.35040E-01 1.70482E-30
2.38751E-01 1.65530E-30
2.42481E-01 1.60375E-30
2.46231E-01 1.55032E-30
2.50000E-01 1.49527E-30
2.53788E-01 1.43885E-30
2.57595E-01 1.38138E-30
2.61421E-01 1.32317E-30
2.65264E-01 1.26453E-30
2.69126E-01 1.20578E-30
2.73005E-01 1.14720E-30
2.76901E-01 1.08909E-30
2.80814E-01 1.03168E-30
2.84744E-01 9.75234E-31
2.88691E-01 9.19945E-31
2.92653E-01 8.66000E-31
2.96632E-01 8.13562E-31
3.00625E-01 7.62764E-31
3.04634E-01 7.13719E-31
3.08658E-01 6.66517E-31
3.12697E-01 6.21226E-31
3.16749E-01 5.77895E-31
3.20816E-01 5.36557E-31
3.24896E-01 4.97225E-31
3.28990E-01 4.59901E-31
3.33097E-01 4.24571E-31
3.37216E-01 3.91212E-31
3.41348E-01 3.59788E-31
3.45492E-01 3.30257E-31
3.49647E-01 3.02569E-31
3.53814E-01 2.76666E-31
3.57992E-01 2.52488E-31
3.62181E-01 2.29969E-31
3.66381E-01 2.09040E-31
3.70590E-01 1.89631E-31
3.74810E-01 1.71670E-31
3.79039E-01 1.55085E-31
3.83277E-01 1.39802E-31
3.87524E-01 1.25751E-31
3.91780E-01 1.12858E-31
3.96044E-01 1.01056E-31
4.00316E-01 9.02742E-32
4.04596E-01 8.04479E-32
4.08882E-01 7.15125E-32
4.13176E-01 6.34063E-32
4.17476E-01 5.60700E-32
4.21783E-01 4.94469E-32
4.26095E-01 4.34829E-32
4.30413E-01 3.81267E-32
4.34737E-01 3.33296E-32
4.39065E-01 2.90458E-32
4.43398E-01 2.52319E-32
4.47736E-01 2.18474E-32
4.52077E-01 1.88540E-32
4.56422E-01 1.62162E-32
4.60770E-01 1.39009E-32
4.65122E-01 1.18771E-32
4.69476E-01 1.01163E-32
4.73832E-01 8.59199E-33
4.78190E-01 7.27969E-33
4.82550E-01 6.15690E-33
4.86912E-01 5.20293E-33
4.91274E-01 4.39881E-33
4.95637E-01 3.72722E-33
5.00000E-01 3.17234E-33
5.04363E-01 2.71980E-33
5.08726E-01 2.35656E-33
5.13088E-01 2.07079E-33
5.17450E-01 1.85189E-33
5.21810E-01 1.69024E-33
5.26168E-01 1.57729E-33
5.30524E-01 1.50535E-33
5.34878E-01 1.46758E-33
5.39230E-01 1.45794E-33
5.43578E-01 1.47105E-33
5.47923E-01 1.50221E-33
5.52264E-01 1.54730E-33
5.56602E-01 1.60271E-33
5.60935E-01 1.66534E-33
5.65263E-01 1.73251E-33
5.69587E-01 1.80194E-33
5.73905E-01 1.87170E-33
5.78217E-01 1.94018E-33
5.82524E-01 2.00604E-33
5.86824E-01 2.06819E-33
5.91118E-01 2.12579E-33
5.95404E-01 2.17814E-33
5.99684E-01 2.22476E-33
6.03956E-01 2.26530E-33
6.08220E-01 2.29954E-33
6.12476E-01 2.32737E-33
6.16723E-01 2.34876E-33
6.20961E-01 2.36380E-33
6.25190E-01 2.37261E-33
6.29410E-01 2.37538E-33
6.33619E-01 2.37233E-33
6.37819E-01 2.36375E-33
6.42008E-01 2.34993E-33
6.46186E-01 2.33119E-33
6.50353E-01 2.30785E-33
6.54508E-01 2.28026E-33
6.58652E-01 2.24876E-33
6.62784E-01 2.21371E-33
6.66903E-01 2.17543E-33
6.71010E-01 2.13428E-33
6.75104E-01 2.09057E-33
6.79184E-01 2.04463E-33
6.83251E-01 1.99676E-33
6.87303E-01 1.94725E-33
6.91342E-01 1.89638E-33
6.95366E-01 1.84442E-33
6.99375E-01 1.79160E-33
7.03368E-01 1.73817E-33
7.07347E-01 1.68435E-33
7.11309E-01 1.63034E-33
7.15256E-01 1.57631E-33
7.19186E-01 1.52245E-33
7.23099E-01 1.46890E-33
7.26995E-01 1.41581E-33
7.30874E-01 1.36332E-33
7.34736E-01 1.31153E-33
7.38579E-01 1.26055E-33
7.42405E-01 1.21046E-33
7.46212E-01 1.16136E-33
7.50000E-01 1.11331E-33
7.53769E-01 1.06637E-33
7.57519E-01 1.02059E-33
7.61249E-01 9.76012E-34
7.64960E-01 9.32664E-34
7.68650E-01 8.90577E-34
7.72320E-01 8.49772E-34
7.75968E-01 8.10255E-34
7.79596E-01 7.72041E-34
7.83203E-01 7.35124E-34
7.86788E-01 6.99505E-34
7.90351E-01 6.65176E-34
7.93893E-01 6.32127E-34
7.97411E-01 6.00341E-34
8.00908E-01 5.69801E-34
8.04381E-01 5.40484E-34
8.07831E-01 5.12372E-34
8.11257E-01 4.85434E-34
8.14660E-01 4.59650E-34
8.18039E-01 4.34988E-34
8.21394E-01 4.11417E-34
8.24724E-01 3.88909E-34
8.28030E-01 3.67433E-34
8.31310E-01 3.46957E-34
8.34565E-01 3.27449E-34
8.37795E-01 3.08875E-34
8.40999E-01 2.91205E-34
8.44177E-01 2.74406E-34
8.47329E-01 2.58446E-34
8.50455E-01 2.43292E-34
8.53553E-01 2.28914E-34
8.56625E-01 2.15281E-34
8.59670E-01 2.02361E-34
8.62687E-01 1.90125E-34
8.65677E-01 1.78543E-34
8.68639E-01 1.67588E-34
8.71572E-01 1.57233E-34
8.74478E-01 1.47447E-34
8.77355E-01 1.38207E-34
8.80203E-01 1.29486E-34
8.83022E-01 1.21260E-34
8.85812E-01 1.13506E-34
8.88573E-01 1.06198E-34
8.91304E-01 9.93165E-35
8.94005E-01 9.28385E-35
8.96677E-01 8.67445E-35
8.99318E-01 8.10141E-35
9.01928E-01 7.56268E-35
9.04508E-01 7.05683E-35
9.07058E-01 6.58172E-35
9.09576E-01 6.13598E-35
9.12063E-01 5.71781E-35
9.14519E-01 5.32575E-35
9.16943E-01 4.95835E-35
9.19335E-01 4.61429E-35
9.21696E-01 4.29206E-35
9.24024E-01 3.99060E-35
9.26320E-01 3.70858E-35
9.28584E-01 3.44491E-35
9.30815E-01 3.19851E-35
9.33013E-01 2.96836E-35
9.35178E-01 2.75347E-35
9.37310E-01 2.55292E-35
9.39409E-01 2.36584E-35
9.41474E-01 2.19141E-35
9.43505E-01 2.02881E-35
9.45503E-01 1.87736E-35
9.47467E-01 1.73628E-35
9.49397E-01 1.60502E-35
9.51293E-01 1.48287E-35
9.53154E-01 1.36927E-35
9.54981E-01 1.26369E-35
9.56773E-01 1.16558E-35
9.58530E-01 1.07447E-35
9.60252E-01 9.89853E-36
9.61940E-01 9.11367E-36
9.63592E-01 8.38516E-36
9.65209E-01 7.70969E-36
9.66790E-01 7.08390E-36
9.68336E-01 6.50447E-36
9.69846E-01 5.96744E-36
9.71321E-01 5.47014E-36
9.72759E-01 5.01055E-36
9.74162E-01 4.58548E-36
9.75528E-01 4.19218E-36
9.76858E-01 3.82923E-36
9.78152E-01 3.49372E-36
9.79410E-01 3.18413E-36
9.80631E-01 2.89822E-36
9.81815E-01 2.63500E-36
9.82963E-01 2.39180E-36
9.84074E-01 2.16780E-36
9.85148E-01 1.96166E-36
9.86185E-01 1.77183E-36
9.87185E-01 1.59762E-36
9.88148E-01 1.43710E-36
9.89074E-01 1.28957E-36
9.89962E-01 1.15436E-36
9.90814E-01 1.03021E-36
9.91627E-01 9.16539E-37
9.92404E-01 8.12382E-37
9.93143E-01 7.17156E-37
9.93844E-01 6.30187E-37
9.94508E-01 5.51033E-37
9.95134E-01 4.78874E-37
9.95722E-01 4.13377E-37
9.96273E-01 3.54157E-37
9.96786E-01 3.00586E-37
9.97261E-01 2.52330E-37
9.97698E-01 2.09217E-37
9.98097E-01 1.70877E-37
9.98459E-01 1.36857E-37
9.98782E-01 1.07142E-37
9.99067E-01 8.13120E-38
9.99315E-01 5.93817E-38
9.99524E-01 4.10627E-38
9.99695E-01 2.62554E-38
9.99829E-01 1.48545E-38
9.99924E-01 6.76904E-39
9.99981E-01 1.95044E-39
1.00000E+00 3.07026E-40
