 #
 # Subroutine ELSEPA. Elastic scattering of electrons and positrons
 #                    by neutral atoms and positive ions
 #
 # Projectile: positron
 # Kinetic energy = 3.50000E+06 eV = 1.28623E+05 a.u.
 #
 # WARNING: High-energy factorization with free-atom DF screening.
 #          Absorption, polarization and exchange corrections are
 #          switched off.
 #          Phase shifts are calculated for the bare nucleus.
 #          Scattering amplitudes are not evaluated.
 #
 # Element: Zn,  Z =  30,  atomic weight = 6.53900E+01 g/mol
 #
 # Nuclear model: Fermi distribution
 #                Average radius = 4.31076E-13 cm
 #                Skin thickness = 5.46000E-14 cm
 #
 # Number of electrons = 30
 #
 # Total elastic cross section = 2.00391E-18 cm**2 = 7.15611E-02 a0**2
 # 1st transport cross section = 7.49467E-23 cm**2 = 2.67639E-06 a0**2
 # 2nd transport cross section = 2.15158E-22 cm**2 = 7.68344E-06 a0**2
 #
 #
 # Differential cross section:                       MU=(1-COS(THETA))/2
 #
 #  THETA        MU          DCS          DCS        Sherman      error
 #  (deg)                 (cm**2/sr)   (a0**2/sr)    function
 #----------------------------------------------------------------------
0.00000E+00 2.23318E-13
7.61557E-13 2.23317E-13
1.18994E-12 2.23316E-13
1.71346E-12 2.23316E-13
2.33225E-12 2.23315E-13
3.04617E-12 2.23314E-13
3.85530E-12 2.23313E-13
4.75964E-12 2.23312E-13
5.75917E-12 2.23311E-13
6.85391E-12 2.23310E-13
8.04379E-12 2.23309E-13
9.32893E-12 2.23307E-13
1.07092E-11 2.23306E-13
1.21847E-11 2.23304E-13
1.37554E-11 2.23302E-13
1.54213E-11 2.23300E-13
1.71823E-11 2.23298E-13
1.90386E-11 2.23296E-13
2.09900E-11 2.23294E-13
2.30367E-11 2.23292E-13
2.51785E-11 2.23290E-13
2.74156E-11 2.23287E-13
2.97478E-11 2.23285E-13
3.21752E-11 2.23282E-13
3.46979E-11 2.23279E-13
3.73157E-11 2.23276E-13
4.00286E-11 2.23273E-13
4.28368E-11 2.23270E-13
4.57402E-11 2.23267E-13
4.87388E-11 2.23264E-13
5.18325E-11 2.23260E-13
5.50215E-11 2.23257E-13
5.83057E-11 2.23253E-13
6.16850E-11 2.23250E-13
6.51595E-11 2.23246E-13
6.87293E-11 2.23242E-13
7.23943E-11 2.23238E-13
7.61544E-11 2.23234E-13
1.18991E-10 2.23187E-13
1.71347E-10 2.23130E-13
2.33223E-10 2.23063E-13
3.04617E-10 2.22986E-13
3.85531E-10 2.22899E-13
4.75965E-10 2.22801E-13
5.75917E-10 2.22693E-13
6.85389E-10 2.22576E-13
8.04380E-10 2.22448E-13
9.32891E-10 2.22310E-13
1.07092E-09 2.22162E-13
1.21847E-09 2.22004E-13
1.37554E-09 2.21836E-13
1.54213E-09 2.21658E-13
1.71823E-09 2.21470E-13
1.90386E-09 2.21273E-13
2.09900E-09 2.21065E-13
2.30367E-09 2.20848E-13
2.51785E-09 2.20621E-13
2.74156E-09 2.20385E-13
2.97478E-09 2.20139E-13
3.21752E-09 2.19884E-13
3.46978E-09 2.19619E-13
3.73156E-09 2.19344E-13
4.00286E-09 2.19060E-13
4.28368E-09 2.18767E-13
4.57402E-09 2.18465E-13
4.87388E-09 2.18154E-13
5.18326E-09 2.17833E-13
5.50215E-09 2.17504E-13
5.83057E-09 2.17165E-13
6.16850E-09 2.16818E-13
6.51596E-09 2.16462E-13
6.87293E-09 2.16097E-13
7.23942E-09 2.15723E-13
7.61544E-09 2.15341E-13
1.18991E-08 2.11069E-13
1.71347E-08 2.06021E-13
2.33223E-08 2.00350E-13
3.04617E-08 1.94108E-13
3.85531E-08 1.87424E-13
4.75965E-08 1.80433E-13
5.75917E-08 1.73237E-13
6.85389E-08 1.65859E-13
8.04380E-08 1.58468E-13
9.32891E-08 1.51141E-13
1.07092E-07 1.43904E-13
1.21847E-07 1.36807E-13
1.37554E-07 1.29939E-13
1.54213E-07 1.23332E-13
1.71823E-07 1.16950E-13
1.90386E-07 1.10860E-13
2.09900E-07 1.05080E-13
2.30367E-07 9.95993E-14
2.51785E-07 9.43863E-14
2.74156E-07 8.94795E-14
2.97478E-07 8.48672E-14
3.21752E-07 8.05160E-14
3.46978E-07 7.64205E-14
3.73156E-07 7.25837E-14
4.00286E-07 6.89901E-14
4.28368E-07 6.55994E-14
4.57402E-07 6.24231E-14
4.87388E-07 5.94489E-14
5.18325E-07 5.66565E-14
5.50215E-07 5.40241E-14
5.83057E-07 5.15563E-14
6.16850E-07 4.92411E-14
6.51596E-07 4.70557E-14
6.87293E-07 4.49962E-14
7.23942E-07 4.30596E-14
7.61543E-07 4.12369E-14
1.18991E-06 2.75374E-14
1.71347E-06 1.88997E-14
2.33223E-06 1.36159E-14
3.04617E-06 9.84285E-15
3.85531E-06 7.22699E-15
4.75964E-06 5.39710E-15
5.75916E-06 4.07763E-15
6.85388E-06 3.09274E-15
8.04378E-06 2.38125E-15
9.32888E-06 1.85680E-15
1.07092E-05 1.46218E-15
1.21846E-05 1.16393E-15
1.37553E-05 9.37654E-16
1.54212E-05 7.63606E-16
1.71822E-05 6.27755E-16
1.90385E-05 5.21162E-16
2.09899E-05 4.36755E-16
2.30365E-05 3.69082E-16
2.51783E-05 3.14229E-16
2.74153E-05 2.69464E-16
2.97475E-05 2.32612E-16
3.21749E-05 2.01986E-16
3.46974E-05 1.76355E-16
3.73152E-05 1.54766E-16
4.00281E-05 1.36455E-16
4.28362E-05 1.20789E-16
4.57395E-05 1.07347E-16
4.87380E-05 9.57541E-17
5.18317E-05 8.56952E-17
5.50205E-05 7.69117E-17
5.83045E-05 6.92328E-17
6.16838E-05 6.24930E-17
6.51582E-05 5.65402E-17
6.87277E-05 5.12721E-17
7.23925E-05 4.66022E-17
7.61524E-05 4.24491E-17
9.21439E-05 2.97600E-17
1.09658E-04 2.14287E-17
1.28695E-04 1.57879E-17
1.49255E-04 1.18640E-17
1.71338E-04 9.08032E-18
1.94942E-04 7.06109E-18
2.20070E-04 5.57219E-18
2.46720E-04 4.45510E-18
2.74892E-04 3.60340E-18
3.04586E-04 2.94607E-18
3.35803E-04 2.43227E-18
3.68542E-04 2.02597E-18
4.02802E-04 1.70109E-18
4.38585E-04 1.43899E-18
4.75889E-04 1.22564E-18
5.14715E-04 1.05044E-18
5.55063E-04 9.05496E-19
5.96931E-04 7.84774E-19
6.40321E-04 6.83563E-19
6.85233E-04 5.98128E-19
7.31665E-04 5.25650E-19
7.79618E-04 4.63841E-19
8.29092E-04 4.10854E-19
8.80086E-04 3.65203E-19
9.32601E-04 3.25723E-19
9.86636E-04 2.91437E-19
1.04219E-03 2.61532E-19
1.09927E-03 2.35359E-19
1.15786E-03 2.12378E-19
1.21797E-03 1.92131E-19
1.27961E-03 1.74228E-19
1.34276E-03 1.58359E-19
1.40743E-03 1.44255E-19
1.47362E-03 1.31680E-19
1.54133E-03 1.20441E-19
1.61056E-03 1.10373E-19
1.68131E-03 1.01334E-19
1.75357E-03 9.31959E-20
1.82735E-03 8.58564E-20
1.90265E-03 7.92236E-20
1.97947E-03 7.32171E-20
2.05780E-03 6.77660E-20
2.13765E-03 6.28116E-20
2.21902E-03 5.83005E-20
2.30190E-03 5.41854E-20
2.38630E-03 5.04254E-20
2.47222E-03 4.69851E-20
2.55965E-03 4.38322E-20
2.64859E-03 4.09380E-20
2.73905E-03 3.82779E-20
2.83103E-03 3.58298E-20
2.92452E-03 3.35735E-20
3.01952E-03 3.14911E-20
3.11604E-03 2.95672E-20
3.21407E-03 2.77875E-20
3.31362E-03 2.61390E-20
3.41468E-03 2.46105E-20
3.51725E-03 2.31917E-20
3.62133E-03 2.18733E-20
3.72692E-03 2.06468E-20
3.83403E-03 1.95048E-20
3.94265E-03 1.84403E-20
4.05278E-03 1.74472E-20
4.16442E-03 1.65197E-20
4.27757E-03 1.56528E-20
4.39223E-03 1.48419E-20
4.50840E-03 1.40825E-20
4.62608E-03 1.33708E-20
4.74527E-03 1.27034E-20
4.86597E-03 1.20770E-20
4.98817E-03 1.14885E-20
5.11188E-03 1.09352E-20
5.23711E-03 1.04148E-20
5.36383E-03 9.92479E-21
5.49207E-03 9.46314E-21
5.62181E-03 9.02792E-21
5.75306E-03 8.61733E-21
5.88581E-03 8.22970E-21
6.02007E-03 7.86354E-21
6.15583E-03 7.51743E-21
6.29310E-03 7.19007E-21
6.43187E-03 6.88026E-21
6.57214E-03 6.58688E-21
6.71392E-03 6.30891E-21
6.85720E-03 6.04537E-21
7.00198E-03 5.79539E-21
7.14827E-03 5.55815E-21
7.29605E-03 5.33287E-21
7.44534E-03 5.11883E-21
7.59612E-03 4.91537E-21
7.97965E-03 4.44907E-21
8.37255E-03 4.03653E-21
8.77480E-03 3.67051E-21
9.18641E-03 3.34487E-21
9.60736E-03 3.05439E-21
1.00376E-02 2.79463E-21
1.04773E-02 2.56178E-21
1.09262E-02 2.35257E-21
1.13844E-02 2.16418E-21
1.18520E-02 1.99419E-21
1.23288E-02 1.84048E-21
1.28150E-02 1.70123E-21
1.33104E-02 1.57483E-21
1.38150E-02 1.45990E-21
1.43290E-02 1.35520E-21
1.48521E-02 1.25968E-21
1.53845E-02 1.17238E-21
1.59262E-02 1.09247E-21
1.64770E-02 1.01922E-21
1.70371E-02 9.51972E-22
1.76063E-02 8.90148E-22
1.81848E-02 8.33232E-22
1.87724E-02 7.80766E-22
1.93692E-02 7.32341E-22
1.99751E-02 6.87589E-22
2.05901E-02 6.46183E-22
2.12143E-02 6.07828E-22
2.18476E-02 5.72259E-22
2.24900E-02 5.39237E-22
2.31415E-02 5.08547E-22
2.38021E-02 4.79995E-22
2.44717E-02 4.53406E-22
2.51504E-02 4.28619E-22
2.58382E-02 4.05492E-22
2.65349E-02 3.83893E-22
2.72407E-02 3.63703E-22
2.79555E-02 3.44813E-22
2.86793E-02 3.27125E-22
2.94120E-02 3.10549E-22
3.01537E-02 2.95001E-22
3.09043E-02 2.80407E-22
3.16639E-02 2.66697E-22
3.24324E-02 2.53808E-22
3.32098E-02 2.41683E-22
3.39961E-02 2.30267E-22
3.47912E-02 2.19512E-22
3.55952E-02 2.09372E-22
3.64081E-02 1.99806E-22
3.72297E-02 1.90776E-22
3.80602E-02 1.82246E-22
3.88995E-02 1.74183E-22
3.97476E-02 1.66557E-22
4.06044E-02 1.59341E-22
4.14700E-02 1.52507E-22
4.23443E-02 1.46033E-22
4.32273E-02 1.39895E-22
4.41190E-02 1.34074E-22
4.50194E-02 1.28549E-22
4.59284E-02 1.23304E-22
4.68461E-02 1.18320E-22
4.87074E-02 1.09079E-22
5.06030E-02 1.00715E-22
5.25328E-02 9.31293E-23
5.44967E-02 8.62376E-23
5.64946E-02 7.99654E-23
5.85262E-02 7.42473E-23
6.05914E-02 6.90260E-23
6.26901E-02 6.42508E-23
6.48222E-02 5.98769E-23
6.69873E-02 5.58648E-23
6.91854E-02 5.21793E-23
7.14163E-02 4.87892E-23
7.36799E-02 4.56667E-23
7.59760E-02 4.27871E-23
7.83043E-02 4.01280E-23
8.06647E-02 3.76697E-23
8.30571E-02 3.53944E-23
8.54812E-02 3.32860E-23
8.79369E-02 3.13301E-23
9.04240E-02 2.95139E-23
9.29422E-02 2.78255E-23
9.54915E-02 2.62544E-23
9.80716E-02 2.47910E-23
1.00682E-01 2.34266E-23
1.03323E-01 2.21534E-23
1.05995E-01 2.09641E-23
1.08696E-01 1.98524E-23
1.11427E-01 1.88121E-23
1.14188E-01 1.78380E-23
1.16978E-01 1.69251E-23
1.19797E-01 1.60688E-23
1.22645E-01 1.52651E-23
1.25522E-01 1.45101E-23
1.28428E-01 1.38003E-23
1.31361E-01 1.31326E-23
1.34323E-01 1.25041E-23
1.37313E-01 1.19120E-23
1.40330E-01 1.13538E-23
1.43375E-01 1.08273E-23
1.46447E-01 1.03303E-23
1.49545E-01 9.86095E-24
1.52671E-01 9.41737E-24
1.55823E-01 8.99792E-24
1.59001E-01 8.60106E-24
1.62205E-01 8.22534E-24
1.65435E-01 7.86945E-24
1.68690E-01 7.53216E-24
1.71970E-01 7.21231E-24
1.75276E-01 6.90886E-24
1.78606E-01 6.62081E-24
1.81961E-01 6.34723E-24
1.85340E-01 6.08729E-24
1.88743E-01 5.84017E-24
1.92169E-01 5.60513E-24
1.95619E-01 5.38149E-24
1.99092E-01 5.16858E-24
2.02589E-01 4.96581E-24
2.06107E-01 4.77260E-24
2.09649E-01 4.58842E-24
2.13212E-01 4.41279E-24
2.16797E-01 4.24522E-24
2.20404E-01 4.08529E-24
2.24032E-01 3.93259E-24
2.27680E-01 3.78673E-24
2.31350E-01 3.64736E-24
2.35040E-01 3.51413E-24
2.38751E-01 3.38672E-24
2.42481E-01 3.26485E-24
2.46231E-01 3.14821E-24
2.50000E-01 3.03656E-24
2.53788E-01 2.92963E-24
2.57595E-01 2.82720E-24
2.61421E-01 2.72904E-24
2.65264E-01 2.63494E-24
2.69126E-01 2.54471E-24
2.73005E-01 2.45816E-24
2.76901E-01 2.37511E-24
2.80814E-01 2.29540E-24
2.84744E-01 2.21887E-24
2.88691E-01 2.14537E-24
2.92653E-01 2.07475E-24
2.96632E-01 2.00689E-24
3.00625E-01 1.94167E-24
3.04634E-01 1.87895E-24
3.08658E-01 1.81862E-24
3.12697E-01 1.76059E-24
3.16749E-01 1.70475E-24
3.20816E-01 1.65100E-24
3.24896E-01 1.59924E-24
3.28990E-01 1.54940E-24
3.33097E-01 1.50138E-24
3.37216E-01 1.45512E-24
3.41348E-01 1.41053E-24
3.45492E-01 1.36755E-24
3.49647E-01 1.32610E-24
3.53814E-01 1.28612E-24
3.57992E-01 1.24756E-24
3.62181E-01 1.21035E-24
3.66381E-01 1.17443E-24
3.70590E-01 1.13976E-24
3.74810E-01 1.10629E-24
3.79039E-01 1.07396E-24
3.83277E-01 1.04273E-24
3.87524E-01 1.01255E-24
3.91780E-01 9.83392E-25
3.96044E-01 9.55205E-25
4.00316E-01 9.27955E-25
4.04596E-01 9.01605E-25
4.08882E-01 8.76121E-25
4.13176E-01 8.51468E-25
4.17476E-01 8.27616E-25
4.21783E-01 8.04534E-25
4.26095E-01 7.82192E-25
4.30413E-01 7.60563E-25
4.34737E-01 7.39621E-25
4.39065E-01 7.19340E-25
4.43398E-01 6.99695E-25
4.47736E-01 6.80664E-25
4.52077E-01 6.62224E-25
4.56422E-01 6.44354E-25
4.60770E-01 6.27033E-25
4.65122E-01 6.10242E-25
4.69476E-01 5.93961E-25
4.73832E-01 5.78173E-25
4.78190E-01 5.62859E-25
4.82550E-01 5.48005E-25
4.86912E-01 5.33592E-25
4.91274E-01 5.19607E-25
4.95637E-01 5.06035E-25
5.00000E-01 4.92860E-25
5.04363E-01 4.80071E-25
5.08726E-01 4.67653E-25
5.13088E-01 4.55595E-25
5.17450E-01 4.43883E-25
5.21810E-01 4.32507E-25
5.26168E-01 4.21456E-25
5.30524E-01 4.10718E-25
5.34878E-01 4.00283E-25
5.39230E-01 3.90141E-25
5.43578E-01 3.80283E-25
5.47923E-01 3.70700E-25
5.52264E-01 3.61382E-25
5.56602E-01 3.52322E-25
5.60935E-01 3.43511E-25
5.65263E-01 3.34941E-25
5.69587E-01 3.26604E-25
5.73905E-01 3.18494E-25
5.78217E-01 3.10602E-25
5.82524E-01 3.02923E-25
5.86824E-01 2.95449E-25
5.91118E-01 2.88175E-25
5.95404E-01 2.81093E-25
5.99684E-01 2.74199E-25
6.03956E-01 2.67486E-25
6.08220E-01 2.60950E-25
6.12476E-01 2.54584E-25
6.16723E-01 2.48384E-25
6.20961E-01 2.42345E-25
6.25190E-01 2.36461E-25
6.29410E-01 2.30729E-25
6.33619E-01 2.25144E-25
6.37819E-01 2.19701E-25
6.42008E-01 2.14396E-25
6.46186E-01 2.09226E-25
6.50353E-01 2.04186E-25
6.54508E-01 1.99273E-25
6.58652E-01 1.94483E-25
6.62784E-01 1.89812E-25
6.66903E-01 1.85258E-25
6.71010E-01 1.80816E-25
6.75104E-01 1.76484E-25
6.79184E-01 1.72259E-25
6.83251E-01 1.68137E-25
6.87303E-01 1.64116E-25
6.91342E-01 1.60193E-25
6.95366E-01 1.56365E-25
6.99375E-01 1.52630E-25
7.03368E-01 1.48985E-25
7.07347E-01 1.45428E-25
7.11309E-01 1.41956E-25
7.15256E-01 1.38567E-25
7.19186E-01 1.35259E-25
7.23099E-01 1.32029E-25
7.26995E-01 1.28876E-25
7.30874E-01 1.25798E-25
7.34736E-01 1.22792E-25
7.38579E-01 1.19856E-25
7.42405E-01 1.16990E-25
7.46212E-01 1.14190E-25
7.50000E-01 1.11456E-25
7.53769E-01 1.08785E-25
7.57519E-01 1.06176E-25
7.61249E-01 1.03628E-25
7.64960E-01 1.01138E-25
7.68650E-01 9.87059E-26
7.72320E-01 9.63295E-26
7.75968E-01 9.40075E-26
7.79596E-01 9.17387E-26
7.83203E-01 8.95217E-26
7.86788E-01 8.73552E-26
7.90351E-01 8.52379E-26
7.93893E-01 8.31688E-26
7.97411E-01 8.11465E-26
8.00908E-01 7.91699E-26
8.04381E-01 7.72380E-26
8.07831E-01 7.53497E-26
8.11257E-01 7.35038E-26
8.14660E-01 7.16995E-26
8.18039E-01 6.99357E-26
8.21394E-01 6.82114E-26
8.24724E-01 6.65258E-26
8.28030E-01 6.48779E-26
8.31310E-01 6.32668E-26
8.34565E-01 6.16917E-26
8.37795E-01 6.01518E-26
8.40999E-01 5.86463E-26
8.44177E-01 5.71742E-26
8.47329E-01 5.57350E-26
8.50455E-01 5.43279E-26
8.53553E-01 5.29521E-26
8.56625E-01 5.16069E-26
8.59670E-01 5.02917E-26
8.62687E-01 4.90058E-26
8.65677E-01 4.77486E-26
8.68639E-01 4.65194E-26
8.71572E-01 4.53176E-26
8.74478E-01 4.41426E-26
8.77355E-01 4.29938E-26
8.80203E-01 4.18708E-26
8.83022E-01 4.07729E-26
8.85812E-01 3.96996E-26
8.88573E-01 3.86504E-26
8.91304E-01 3.76248E-26
8.94005E-01 3.66223E-26
8.96677E-01 3.56424E-26
8.99318E-01 3.46847E-26
9.01928E-01 3.37487E-26
9.04508E-01 3.28340E-26
9.07058E-01 3.19402E-26
9.09576E-01 3.10668E-26
9.12063E-01 3.02134E-26
9.14519E-01 2.93797E-26
9.16943E-01 2.85653E-26
9.19335E-01 2.77698E-26
9.21696E-01 2.69928E-26
9.24024E-01 2.62340E-26
9.26320E-01 2.54931E-26
9.28584E-01 2.47696E-26
9.30815E-01 2.40634E-26
9.33013E-01 2.33741E-26
9.35178E-01 2.27013E-26
9.37310E-01 2.20449E-26
9.39409E-01 2.14044E-26
9.41474E-01 2.07797E-26
9.43505E-01 2.01704E-26
9.45503E-01 1.95763E-26
9.47467E-01 1.89971E-26
9.49397E-01 1.84326E-26
9.51293E-01 1.78825E-26
9.53154E-01 1.73467E-26
9.54981E-01 1.68248E-26
9.56773E-01 1.63166E-26
9.58530E-01 1.58220E-26
9.60252E-01 1.53408E-26
9.61940E-01 1.48727E-26
9.63592E-01 1.44175E-26
9.65209E-01 1.39750E-26
9.66790E-01 1.35451E-26
9.68336E-01 1.31276E-26
9.69846E-01 1.27223E-26
9.71321E-01 1.23290E-26
9.72759E-01 1.19476E-26
9.74162E-01 1.15780E-26
9.75528E-01 1.12199E-26
9.76858E-01 1.08732E-26
9.78152E-01 1.05378E-26
9.79410E-01 1.02136E-26
9.80631E-01 9.90040E-27
9.81815E-01 9.59807E-27
9.82963E-01 9.30652E-27
9.84074E-01 9.02561E-27
9.85148E-01 8.75525E-27
9.86185E-01 8.49531E-27
9.87185E-01 8.24570E-27
9.88148E-01 8.00632E-27
9.89074E-01 7.77707E-27
9.89962E-01 7.55786E-27
9.90814E-01 7.34859E-27
9.91627E-01 7.14921E-27
9.92404E-01 6.95961E-27
9.93143E-01 6.77972E-27
9.93844E-01 6.60948E-27
9.94508E-01 6.44882E-27
9.95134E-01 6.29767E-27
9.95722E-01 6.15598E-27
9.96273E-01 6.02369E-27
9.96786E-01 5.90074E-27
9.97261E-01 5.78709E-27
9.97698E-01 5.68270E-27
9.98097E-01 5.58752E-27
9.98459E-01 5.50152E-27
9.98782E-01 5.42466E-27
9.99067E-01 5.35691E-27
9.99315E-01 5.29825E-27
9.99524E-01 5.24865E-27
9.99695E-01 5.20810E-27
9.99829E-01 5.17657E-27
9.99924E-01 5.15406E-27
9.99981E-01 5.14056E-27
1.00000E+00 5.13606E-27
