 #
 # Subroutine ELSEPA. Elastic scattering of electrons and positrons
 #                    by neutral atoms and positive ions
 #
 # Projectile: positron
 # Kinetic energy = 4.00000E+08 eV = 1.46997E+07 a.u.
 #
 # WARNING: High-energy factorization with free-atom DF screening.
 #          Absorption, polarization and exchange corrections are
 #          switched off.
 #          Phase shifts are calculated for the bare nucleus.
 #          Scattering amplitudes are not evaluated.
 #
 # Element: Zn,  Z =  30,  atomic weight = 6.53900E+01 g/mol
 #
 # Nuclear model: Fermi distribution
 #                Average radius = 4.31076E-13 cm
 #                Skin thickness = 5.46000E-14 cm
 #
 # Number of electrons = 30
 #
 # Total elastic cross section = 1.97297E-18 cm**2 = 7.04559E-02 a0**2
 # 1st transport cross section = 1.14505E-26 cm**2 = 4.08905E-10 a0**2
 # 2nd transport cross section = 3.43257E-26 cm**2 = 1.22579E-09 a0**2
 #
 #
 # Differential cross section:                       MU=(1-COS(THETA))/2
 #
 #  THETA        MU          DCS          DCS        Sherman      error
 #  (deg)                 (cm**2/sr)   (a0**2/sr)    function
 #----------------------------------------------------------------------
0.00000E+00 2.22663E-09
7.61557E-13 2.14616E-09
1.18994E-12 2.10306E-09
1.71346E-12 2.05215E-09
2.33225E-12 1.99495E-09
3.04617E-12 1.93212E-09
3.85530E-12 1.86481E-09
4.75964E-12 1.79444E-09
5.75917E-12 1.72212E-09
6.85391E-12 1.64807E-09
8.04379E-12 1.57384E-09
9.32893E-12 1.50031E-09
1.07092E-11 1.42797E-09
1.21847E-11 1.35687E-09
1.37554E-11 1.28813E-09
1.54213E-11 1.22204E-09
1.71823E-11 1.15850E-09
1.90386E-11 1.09769E-09
2.09900E-11 1.04001E-09
2.30367E-11 9.85473E-10
2.51785E-11 9.33644E-10
2.74156E-11 8.84789E-10
2.97478E-11 8.38898E-10
3.21752E-11 7.95806E-10
3.46979E-11 7.55100E-10
3.73157E-11 7.16987E-10
4.00286E-11 6.81307E-10
4.28368E-11 6.47803E-10
4.57402E-11 6.16290E-10
4.87388E-11 5.86792E-10
5.18325E-11 5.59169E-10
5.50215E-11 5.33144E-10
5.83057E-11 5.08687E-10
6.16850E-11 4.85747E-10
6.51595E-11 4.64212E-10
6.87293E-11 4.43815E-10
7.23943E-11 4.24635E-10
7.61544E-11 4.06585E-10
1.18991E-10 2.71237E-10
1.71347E-10 1.85870E-10
2.33223E-10 1.33617E-10
3.04617E-10 9.67040E-11
3.85531E-10 7.08475E-11
4.75965E-10 5.28101E-11
5.75917E-10 3.98833E-11
6.85389E-10 3.02374E-11
8.04380E-10 2.32534E-11
9.32891E-10 1.81175E-11
1.07092E-09 1.42730E-11
1.21847E-09 1.13554E-11
1.37554E-09 9.14516E-12
1.54213E-09 7.44687E-12
1.71823E-09 6.12389E-12
1.90386E-09 5.08451E-12
2.09900E-09 4.26084E-12
2.30367E-09 3.60105E-12
2.51785E-09 3.06646E-12
2.74156E-09 2.63004E-12
2.97478E-09 2.27077E-12
3.21752E-09 1.97251E-12
3.46978E-09 1.72245E-12
3.73156E-09 1.51167E-12
4.00286E-09 1.33286E-12
4.28368E-09 1.18011E-12
4.57402E-09 1.04877E-12
4.87388E-09 9.35509E-13
5.18326E-09 8.37335E-13
5.50215E-09 7.51622E-13
5.83057E-09 6.76582E-13
6.16850E-09 6.10710E-13
6.51596E-09 5.52665E-13
6.87293E-09 5.01151E-13
7.23942E-09 4.55480E-13
7.61544E-09 4.14867E-13
1.18991E-08 1.79377E-13
1.71347E-08 8.88703E-14
2.33223E-08 4.87286E-14
3.04617E-08 2.88915E-14
3.85531E-08 1.82090E-14
4.75965E-08 1.20478E-14
5.75917E-08 8.29109E-15
6.85389E-08 5.89343E-15
8.04380E-08 4.30416E-15
9.32891E-08 3.21669E-15
1.07092E-07 2.45206E-15
1.21847E-07 1.90167E-15
1.37554E-07 1.49731E-15
1.54213E-07 1.19481E-15
1.71823E-07 9.64911E-16
1.90386E-07 7.87676E-16
2.09900E-07 6.49278E-16
2.30367E-07 5.39944E-16
2.51785E-07 4.52653E-16
2.74156E-07 3.82283E-16
2.97478E-07 3.25055E-16
3.21752E-07 2.78132E-16
3.46978E-07 2.39368E-16
3.73156E-07 2.07120E-16
4.00286E-07 1.80118E-16
4.28368E-07 1.57371E-16
4.57402E-07 1.38100E-16
4.87388E-07 1.21688E-16
5.18325E-07 1.07641E-16
5.50215E-07 9.55619E-17
5.83057E-07 8.51289E-17
6.16850E-07 7.60804E-17
6.51596E-07 6.82020E-17
6.87293E-07 6.13167E-17
7.23942E-07 5.52782E-17
7.61543E-07 4.99645E-17
1.18991E-06 2.04917E-17
1.71347E-06 9.88755E-18
2.33223E-06 5.33830E-18
3.04617E-06 3.12949E-18
3.85531E-06 1.95374E-18
4.75964E-06 1.28181E-18
5.75916E-06 8.75437E-19
6.85388E-06 6.18068E-19
8.04378E-06 4.48692E-19
9.32888E-06 3.33554E-19
1.07092E-05 2.53086E-19
1.21846E-05 1.95482E-19
1.37553E-05 1.53371E-19
1.54212E-05 1.22011E-19
1.71822E-05 9.82705E-20
1.90385E-05 8.00259E-20
2.09899E-05 6.58381E-20
2.30365E-05 5.46572E-20
2.51783E-05 4.57491E-20
2.74153E-05 3.85815E-20
2.97475E-05 3.27629E-20
3.21749E-05 2.80007E-20
3.46974E-05 2.40734E-20
3.73152E-05 2.08116E-20
4.00281E-05 1.80844E-20
4.28362E-05 1.57898E-20
4.57395E-05 1.38477E-20
4.87380E-05 1.21949E-20
5.18317E-05 1.07812E-20
5.50205E-05 9.56636E-21
5.83045E-05 8.51778E-21
6.16838E-05 7.60896E-21
6.51582E-05 6.81822E-21
6.87277E-05 6.12762E-21
7.23925E-05 5.52230E-21
7.61524E-05 4.97939E-21
9.21439E-05 3.39693E-21
1.09658E-04 2.39528E-21
1.28695E-04 1.73661E-21
1.49255E-04 1.28911E-21
1.71338E-04 9.76625E-22
1.94942E-04 7.53090E-22
2.20070E-04 5.89815E-22
2.46720E-04 4.68336E-22
2.74892E-04 3.76454E-22
3.04586E-04 3.05942E-22
3.35803E-04 2.51107E-22
3.68542E-04 2.07956E-22
4.02802E-04 1.73630E-22
4.38585E-04 1.46053E-22
4.75889E-04 1.23698E-22
5.14715E-04 1.05424E-22
5.55063E-04 9.03731E-23
5.96931E-04 7.78874E-23
6.40321E-04 6.74620E-23
6.85233E-04 5.87036E-23
7.31665E-04 5.13034E-23
7.79618E-04 4.50177E-23
8.29092E-04 3.96518E-23
8.80086E-04 3.50496E-23
9.32601E-04 3.10852E-23
9.86636E-04 2.76559E-23
1.04219E-03 2.46779E-23
1.09927E-03 2.20823E-23
1.15786E-03 1.98120E-23
1.21797E-03 1.78197E-23
1.27961E-03 1.60658E-23
1.34276E-03 1.45173E-23
1.40743E-03 1.31461E-23
1.47362E-03 1.19288E-23
1.54133E-03 1.08452E-23
1.61056E-03 9.87823E-24
1.68131E-03 9.01339E-24
1.75357E-03 8.23814E-24
1.82735E-03 7.54170E-24
1.90265E-03 6.91476E-24
1.97947E-03 6.34930E-24
2.05780E-03 5.83831E-24
2.13765E-03 5.37570E-24
2.21902E-03 4.95618E-24
2.30190E-03 4.57508E-24
2.38630E-03 4.22835E-24
2.47222E-03 3.91237E-24
2.55965E-03 3.62401E-24
2.64859E-03 3.36047E-24
2.73905E-03 3.11927E-24
2.83103E-03 2.89824E-24
2.92452E-03 2.69542E-24
3.01952E-03 2.50908E-24
3.11604E-03 2.33768E-24
3.21407E-03 2.17984E-24
3.31362E-03 2.03432E-24
3.41468E-03 1.90001E-24
3.51725E-03 1.77593E-24
3.62133E-03 1.66116E-24
3.72692E-03 1.55493E-24
3.83403E-03 1.45648E-24
3.94265E-03 1.36518E-24
4.05278E-03 1.28042E-24
4.16442E-03 1.20167E-24
4.27757E-03 1.12844E-24
4.39223E-03 1.06029E-24
4.50840E-03 9.96811E-25
4.62608E-03 9.37646E-25
4.74527E-03 8.82458E-25
4.86597E-03 8.30942E-25
4.98817E-03 7.82820E-25
5.11188E-03 7.37838E-25
5.23711E-03 6.95764E-25
5.36383E-03 6.56383E-25
5.49207E-03 6.19500E-25
5.62181E-03 5.84937E-25
5.75306E-03 5.52527E-25
5.88581E-03 5.22121E-25
6.02007E-03 4.93576E-25
6.15583E-03 4.66766E-25
6.29310E-03 4.41572E-25
6.43187E-03 4.17883E-25
6.57214E-03 3.95599E-25
6.71392E-03 3.74627E-25
6.85720E-03 3.54879E-25
7.00198E-03 3.36276E-25
7.14827E-03 3.18744E-25
7.29605E-03 3.02213E-25
7.44534E-03 2.86620E-25
7.59612E-03 2.71905E-25
7.97965E-03 2.38611E-25
8.37255E-03 2.09713E-25
8.77480E-03 1.84573E-25
9.18641E-03 1.62658E-25
9.60736E-03 1.43517E-25
1.00376E-02 1.26766E-25
1.04773E-02 1.12083E-25
1.09262E-02 9.91914E-26
1.13844E-02 8.78559E-26
1.18520E-02 7.78747E-26
1.23288E-02 6.90745E-26
1.28150E-02 6.13062E-26
1.33104E-02 5.44412E-26
1.38150E-02 4.83680E-26
1.43290E-02 4.29902E-26
1.48521E-02 3.82240E-26
1.53845E-02 3.39963E-26
1.59262E-02 3.02436E-26
1.64770E-02 2.69102E-26
1.70371E-02 2.39475E-26
1.76063E-02 2.13128E-26
1.81848E-02 1.89686E-26
1.87724E-02 1.68820E-26
1.93692E-02 1.50241E-26
1.99751E-02 1.33692E-26
2.05901E-02 1.18948E-26
2.12143E-02 1.05808E-26
2.18476E-02 9.40974E-27
2.24900E-02 8.36585E-27
2.31415E-02 7.43530E-27
2.38021E-02 6.60577E-27
2.44717E-02 5.86632E-27
2.51504E-02 5.20723E-27
2.58382E-02 4.61984E-27
2.65349E-02 4.09645E-27
2.72407E-02 3.63020E-27
2.79555E-02 3.21495E-27
2.86793E-02 2.84526E-27
2.94120E-02 2.51625E-27
3.01537E-02 2.22356E-27
3.09043E-02 1.96331E-27
3.16639E-02 1.73202E-27
3.24324E-02 1.52659E-27
3.32098E-02 1.34424E-27
3.39961E-02 1.18249E-27
3.47912E-02 1.03911E-27
3.55952E-02 9.12128E-28
3.64081E-02 7.99753E-28
3.72297E-02 7.00396E-28
3.80602E-02 6.12637E-28
3.88995E-02 5.35200E-28
3.97476E-02 4.66948E-28
4.06044E-02 4.06861E-28
4.14700E-02 3.54028E-28
4.23443E-02 3.07636E-28
4.32273E-02 2.66956E-28
4.41190E-02 2.31338E-28
4.50194E-02 2.00202E-28
4.59284E-02 1.73029E-28
4.68461E-02 1.49358E-28
4.87074E-02 1.10917E-28
5.06030E-02 8.20926E-29
5.25328E-02 6.06802E-29
5.44967E-02 4.49413E-29
5.64946E-02 3.35098E-29
5.85262E-02 2.53181E-29
6.05914E-02 1.95362E-29
6.26901E-02 1.55233E-29
6.48222E-02 1.27882E-29
6.69873E-02 1.09580E-29
6.91854E-02 9.75276E-30
7.14163E-02 8.96479E-30
7.36799E-02 8.44274E-30
7.59760E-02 8.07847E-30
7.83043E-02 7.79678E-30
8.06647E-02 7.54729E-30
8.30571E-02 7.29805E-30
8.54812E-02 7.03057E-30
8.79369E-02 6.73590E-30
9.04240E-02 6.41175E-30
9.29422E-02 6.06019E-30
9.54915E-02 5.68599E-30
9.80716E-02 5.29535E-30
1.00682E-01 4.89507E-30
1.03323E-01 4.49191E-30
1.05995E-01 4.09215E-30
1.08696E-01 3.70138E-30
1.11427E-01 3.32433E-30
1.14188E-01 2.96486E-30
1.16978E-01 2.62590E-30
1.19797E-01 2.30958E-30
1.22645E-01 2.01723E-30
1.25522E-01 1.74951E-30
1.28428E-01 1.50651E-30
1.31361E-01 1.28782E-30
1.34323E-01 1.09266E-30
1.37313E-01 9.19919E-31
1.40330E-01 7.68282E-31
1.43375E-01 6.36268E-31
1.46447E-01 5.22305E-31
1.49545E-01 4.24775E-31
1.52671E-01 3.42060E-31
1.55823E-01 2.72575E-31
1.59001E-01 2.14794E-31
1.62205E-01 1.67273E-31
1.65435E-01 1.28660E-31
1.68690E-01 9.77068E-32
1.71970E-01 7.32743E-32
1.75276E-01 5.43338E-32
1.78606E-01 3.99658E-32
1.81961E-01 2.93566E-32
1.85340E-01 2.17939E-32
1.88743E-01 1.66600E-32
1.92169E-01 1.34253E-32
1.95619E-01 1.16406E-32
1.99092E-01 1.09297E-32
2.02589E-01 1.09814E-32
2.06107E-01 1.15423E-32
2.09649E-01 1.24096E-32
2.13212E-01 1.34242E-32
2.16797E-01 1.44644E-32
2.20404E-01 1.54406E-32
2.24032E-01 1.62893E-32
2.27680E-01 1.69691E-32
2.31350E-01 1.74562E-32
2.35040E-01 1.77407E-32
2.38751E-01 1.78237E-32
2.42481E-01 1.77145E-32
2.46231E-01 1.74280E-32
2.50000E-01 1.69835E-32
2.53788E-01 1.64022E-32
2.57595E-01 1.57067E-32
2.61421E-01 1.49197E-32
2.65264E-01 1.40632E-32
2.69126E-01 1.31579E-32
2.73005E-01 1.22231E-32
2.76901E-01 1.12759E-32
2.80814E-01 1.03314E-32
2.84744E-01 9.40293E-33
2.88691E-01 8.50129E-33
2.92653E-01 7.63550E-33
2.96632E-01 6.81262E-33
3.00625E-01 6.03796E-33
3.04634E-01 5.31521E-33
3.08658E-01 4.64667E-33
3.12697E-01 4.03338E-33
3.16749E-01 3.47532E-33
3.20816E-01 2.97156E-33
3.24896E-01 2.52044E-33
3.28990E-01 2.11973E-33
3.33097E-01 1.76672E-33
3.37216E-01 1.45838E-33
3.41348E-01 1.19149E-33
3.45492E-01 9.62664E-34
3.49647E-01 7.68486E-34
3.53814E-01 6.05565E-34
3.57992E-01 4.70590E-34
3.62181E-01 3.60364E-34
3.66381E-01 2.71854E-34
3.70590E-01 2.02210E-34
3.74810E-01 1.48780E-34
3.79039E-01 1.09127E-34
3.83277E-01 8.10264E-35
3.87524E-01 6.24754E-35
3.91780E-01 5.16828E-35
3.96044E-01 4.70629E-35
4.00316E-01 4.72285E-35
4.04596E-01 5.09767E-35
4.08882E-01 5.72780E-35
4.13176E-01 6.52620E-35
4.17476E-01 7.42038E-35
4.21783E-01 8.35094E-35
4.26095E-01 9.27023E-35
4.30413E-01 1.01410E-34
4.34737E-01 1.09350E-34
4.39065E-01 1.16319E-34
4.43398E-01 1.22182E-34
4.47736E-01 1.26860E-34
4.52077E-01 1.30322E-34
4.56422E-01 1.32573E-34
4.60770E-01 1.33652E-34
4.65122E-01 1.33620E-34
4.69476E-01 1.32558E-34
4.73832E-01 1.30557E-34
4.78190E-01 1.27718E-34
4.82550E-01 1.24146E-34
4.86912E-01 1.19948E-34
4.91274E-01 1.15227E-34
4.95637E-01 1.10087E-34
5.00000E-01 1.04623E-34
5.04363E-01 9.89264E-35
5.08726E-01 9.30809E-35
5.13088E-01 8.71608E-35
5.17450E-01 8.12360E-35
5.21810E-01 7.53653E-35
5.26168E-01 6.96012E-35
5.30524E-01 6.39889E-35
5.34878E-01 5.85650E-35
5.39230E-01 5.33601E-35
5.43578E-01 4.83979E-35
5.47923E-01 4.36970E-35
5.52264E-01 3.92692E-35
5.56602E-01 3.51237E-35
5.60935E-01 3.12631E-35
5.65263E-01 2.76878E-35
5.69587E-01 2.43942E-35
5.73905E-01 2.13763E-35
5.78217E-01 1.86262E-35
5.82524E-01 1.61333E-35
5.86824E-01 1.38860E-35
5.91118E-01 1.18717E-35
5.95404E-01 1.00768E-35
5.99684E-01 8.48715E-36
6.03956E-01 7.08859E-36
6.08220E-01 5.86653E-36
6.12476E-01 4.80681E-36
6.16723E-01 3.89537E-36
6.20961E-01 3.11868E-36
6.25190E-01 2.46369E-36
6.29410E-01 1.91776E-36
6.33619E-01 1.46927E-36
6.37819E-01 1.10697E-36
6.42008E-01 8.20461E-37
6.46186E-01 6.00160E-37
6.50353E-01 4.37092E-37
6.54508E-01 3.23078E-37
6.58652E-01 2.50676E-37
6.62784E-01 2.13086E-37
6.66903E-01 2.04297E-37
6.71010E-01 2.18780E-37
6.75104E-01 2.51756E-37
6.79184E-01 2.98925E-37
6.83251E-01 3.56555E-37
6.87303E-01 4.21396E-37
6.91342E-01 4.90663E-37
6.95366E-01 5.61971E-37
6.99375E-01 6.33309E-37
7.03368E-01 7.03034E-37
7.07347E-01 7.69826E-37
7.11309E-01 8.32586E-37
7.15256E-01 8.90462E-37
7.19186E-01 9.42887E-37
7.23099E-01 9.89382E-37
7.26995E-01 1.02970E-36
7.30874E-01 1.06376E-36
7.34736E-01 1.09149E-36
7.38579E-01 1.11305E-36
7.42405E-01 1.12857E-36
7.46212E-01 1.13831E-36
7.50000E-01 1.14256E-36
7.53769E-01 1.14167E-36
7.57519E-01 1.13599E-36
7.61249E-01 1.12586E-36
7.64960E-01 1.11169E-36
7.68650E-01 1.09388E-36
7.72320E-01 1.07289E-36
7.75968E-01 1.04898E-36
7.79596E-01 1.02265E-36
7.83203E-01 9.94138E-37
7.86788E-01 9.63874E-37
7.90351E-01 9.32154E-37
7.93893E-01 8.99308E-37
7.97411E-01 8.65584E-37
8.00908E-01 8.31264E-37
8.04381E-01 7.96563E-37
8.07831E-01 7.61748E-37
8.11257E-01 7.26961E-37
8.14660E-01 6.92470E-37
8.18039E-01 6.58364E-37
8.21394E-01 6.24779E-37
8.24724E-01 5.91855E-37
8.28030E-01 5.59707E-37
8.31310E-01 5.28412E-37
8.34565E-01 4.98061E-37
8.37795E-01 4.68690E-37
8.40999E-01 4.40372E-37
8.44177E-01 4.13142E-37
8.47329E-01 3.87009E-37
8.50455E-01 3.61987E-37
8.53553E-01 3.38115E-37
8.56625E-01 3.15365E-37
8.59670E-01 2.93739E-37
8.62687E-01 2.73193E-37
8.65677E-01 2.53739E-37
8.68639E-01 2.35371E-37
8.71572E-01 2.18052E-37
8.74478E-01 2.01718E-37
8.77355E-01 1.86369E-37
8.80203E-01 1.71960E-37
8.83022E-01 1.58455E-37
8.85812E-01 1.45839E-37
8.88573E-01 1.34023E-37
8.91304E-01 1.23018E-37
8.94005E-01 1.12757E-37
8.96677E-01 1.03226E-37
8.99318E-01 9.43721E-38
9.01928E-01 8.61333E-38
9.04508E-01 7.85456E-38
9.07058E-01 7.15038E-38
9.09576E-01 6.50269E-38
9.12063E-01 5.90442E-38
9.14519E-01 5.35398E-38
9.16943E-01 4.84816E-38
9.19335E-01 4.38517E-38
9.21696E-01 3.95914E-38
9.24024E-01 3.57069E-38
9.26320E-01 3.21503E-38
9.28584E-01 2.89061E-38
9.30815E-01 2.59512E-38
9.33013E-01 2.32649E-38
9.35178E-01 2.08236E-38
9.37310E-01 1.86089E-38
9.39409E-01 1.66042E-38
9.41474E-01 1.47915E-38
9.43505E-01 1.31509E-38
9.45503E-01 1.16752E-38
9.47467E-01 1.03401E-38
9.49397E-01 9.14769E-39
9.51293E-01 8.07504E-39
9.53154E-01 7.11297E-39
9.54981E-01 6.25601E-39
9.56773E-01 5.49005E-39
9.58530E-01 4.80846E-39
9.60252E-01 4.19956E-39
9.61940E-01 3.66322E-39
9.63592E-01 3.18319E-39
9.65209E-01 2.75932E-39
9.66790E-01 2.38814E-39
9.68336E-01 2.06487E-39
9.69846E-01 1.77662E-39
9.71321E-01 1.52248E-39
9.72759E-01 1.30556E-39
9.74162E-01 1.11650E-39
9.75528E-01 9.49315E-40
9.76858E-01 8.08566E-40
9.78152E-01 6.84781E-40
9.79410E-01 5.79374E-40
9.80631E-01 4.87134E-40
9.81815E-01 4.11783E-40
9.82963E-01 3.43577E-40
9.84074E-01 2.86143E-40
9.85148E-01 2.38494E-40
9.86185E-01 1.97500E-40
9.87185E-01 1.65569E-40
9.88148E-01 1.36523E-40
9.89074E-01 1.11823E-40
9.89962E-01 9.24355E-41
9.90814E-01 7.55913E-41
9.91627E-01 6.21673E-41
9.92404E-01 5.05763E-41
9.93143E-01 4.10999E-41
9.93844E-01 3.32456E-41
9.94508E-01 2.74092E-41
9.95134E-01 2.21066E-41
9.95722E-01 1.78950E-41
9.96273E-01 1.48580E-41
9.96786E-01 1.19952E-41
9.97261E-01 9.39726E-42
9.97698E-01 7.60879E-42
9.98097E-01 6.32375E-42
9.98459E-01 4.83035E-42
9.98782E-01 3.89033E-42
9.99067E-01 2.76138E-42
9.99315E-01 2.12485E-42
9.99524E-01 1.55326E-42
9.99695E-01 1.10029E-42
9.99829E-01 7.41019E-43
9.99924E-01 5.08625E-43
9.99981E-01 4.19563E-43
1.00000E+00 3.41459E-43
