 #
 # Subroutine ELSEPA. Elastic scattering of electrons and positrons
 #                    by neutral atoms and positive ions
 #
 # Projectile: positron
 # Kinetic energy = 4.50000E+06 eV = 1.65372E+05 a.u.
 #
 # WARNING: High-energy factorization with free-atom DF screening.
 #          Absorption, polarization and exchange corrections are
 #          switched off.
 #          Phase shifts are calculated for the bare nucleus.
 #          Scattering amplitudes are not evaluated.
 #
 # Element: Zn,  Z =  30,  atomic weight = 6.53900E+01 g/mol
 #
 # Nuclear model: Fermi distribution
 #                Average radius = 4.31076E-13 cm
 #                Skin thickness = 5.46000E-14 cm
 #
 # Number of electrons = 30
 #
 # Total elastic cross section = 1.99107E-18 cm**2 = 7.11024E-02 a0**2
 # 1st transport cross section = 4.95495E-23 cm**2 = 1.76945E-06 a0**2
 # 2nd transport cross section = 1.42571E-22 cm**2 = 5.09131E-06 a0**2
 #
 #
 # Differential cross section:                       MU=(1-COS(THETA))/2
 #
 #  THETA        MU          DCS          DCS        Sherman      error
 #  (deg)                 (cm**2/sr)   (a0**2/sr)    function
 #----------------------------------------------------------------------
0.00000E+00 3.48552E-13
7.61557E-13 3.48549E-13
1.18994E-12 3.48548E-13
1.71346E-12 3.48547E-13
2.33225E-12 3.48545E-13
3.04617E-12 3.48543E-13
3.85530E-12 3.48541E-13
4.75964E-12 3.48538E-13
5.75917E-12 3.48535E-13
6.85391E-12 3.48532E-13
8.04379E-12 3.48529E-13
9.32893E-12 3.48526E-13
1.07092E-11 3.48522E-13
1.21847E-11 3.48518E-13
1.37554E-11 3.48514E-13
1.54213E-11 3.48509E-13
1.71823E-11 3.48505E-13
1.90386E-11 3.48500E-13
2.09900E-11 3.48494E-13
2.30367E-11 3.48489E-13
2.51785E-11 3.48483E-13
2.74156E-11 3.48477E-13
2.97478E-11 3.48471E-13
3.21752E-11 3.48464E-13
3.46979E-11 3.48458E-13
3.73157E-11 3.48451E-13
4.00286E-11 3.48443E-13
4.28368E-11 3.48436E-13
4.57402E-11 3.48428E-13
4.87388E-11 3.48420E-13
5.18325E-11 3.48412E-13
5.50215E-11 3.48404E-13
5.83057E-11 3.48395E-13
6.16850E-11 3.48386E-13
6.51595E-11 3.48377E-13
6.87293E-11 3.48367E-13
7.23943E-11 3.48357E-13
7.61544E-11 3.48347E-13
1.18991E-10 3.48233E-13
1.71347E-10 3.48095E-13
2.33223E-10 3.47931E-13
3.04617E-10 3.47742E-13
3.85531E-10 3.47529E-13
4.75965E-10 3.47290E-13
5.75917E-10 3.47027E-13
6.85389E-10 3.46740E-13
8.04380E-10 3.46428E-13
9.32891E-10 3.46091E-13
1.07092E-09 3.45731E-13
1.21847E-09 3.45346E-13
1.37554E-09 3.44937E-13
1.54213E-09 3.44505E-13
1.71823E-09 3.44048E-13
1.90386E-09 3.43569E-13
2.09900E-09 3.43066E-13
2.30367E-09 3.42539E-13
2.51785E-09 3.41990E-13
2.74156E-09 3.41418E-13
2.97478E-09 3.40823E-13
3.21752E-09 3.40206E-13
3.46978E-09 3.39567E-13
3.73156E-09 3.38906E-13
4.00286E-09 3.38223E-13
4.28368E-09 3.37519E-13
4.57402E-09 3.36793E-13
4.87388E-09 3.36047E-13
5.18326E-09 3.35280E-13
5.50215E-09 3.34492E-13
5.83057E-09 3.33684E-13
6.16850E-09 3.32856E-13
6.51596E-09 3.32008E-13
6.87293E-09 3.31141E-13
7.23942E-09 3.30255E-13
7.61544E-09 3.29350E-13
1.18991E-08 3.19298E-13
1.71347E-08 3.07734E-13
2.33223E-08 2.94974E-13
3.04617E-08 2.81354E-13
3.85531E-08 2.67198E-13
4.75965E-08 2.52801E-13
5.75917E-08 2.38413E-13
6.85389E-08 2.24213E-13
8.04380E-08 2.10418E-13
9.32891E-08 1.97159E-13
1.07092E-07 1.84531E-13
1.21847E-07 1.72592E-13
1.37554E-07 1.61373E-13
1.54213E-07 1.50883E-13
1.71823E-07 1.41114E-13
1.90386E-07 1.32043E-13
2.09900E-07 1.23641E-13
2.30367E-07 1.15867E-13
2.51785E-07 1.08671E-13
2.74156E-07 1.02028E-13
2.97478E-07 9.58952E-14
3.21752E-07 9.02321E-14
3.46978E-07 8.49995E-14
3.73156E-07 8.01608E-14
4.00286E-07 7.56817E-14
4.28368E-07 7.15306E-14
4.57402E-07 6.76785E-14
4.87388E-07 6.40992E-14
5.18325E-07 6.07666E-14
5.50215E-07 5.76555E-14
5.83057E-07 5.47523E-14
6.16850E-07 5.20392E-14
6.51596E-07 4.95000E-14
6.87293E-07 4.71203E-14
7.23942E-07 4.48869E-14
7.61543E-07 4.27880E-14
1.18991E-06 2.68955E-14
1.71347E-06 1.78235E-14
2.33223E-06 1.20983E-14
3.04617E-06 8.36541E-15
3.85531E-06 5.88280E-15
4.75964E-06 4.20729E-15
5.75916E-06 3.06092E-15
6.85388E-06 2.26418E-15
8.04378E-06 1.70584E-15
9.32888E-06 1.30786E-15
1.07092E-05 1.01939E-15
1.21846E-05 8.06824E-16
1.37553E-05 6.47655E-16
1.54212E-05 5.26618E-16
1.71822E-05 4.33213E-16
1.90385E-05 3.60095E-16
2.09899E-05 3.02206E-16
2.30365E-05 2.55758E-16
2.51783E-05 2.18000E-16
2.74153E-05 1.87064E-16
2.97475E-05 1.61496E-16
3.21749E-05 1.40193E-16
3.46974E-05 1.22312E-16
3.73152E-05 1.07200E-16
4.00281E-05 9.43475E-17
4.28362E-05 8.33532E-17
4.57395E-05 7.38991E-17
4.87380E-05 6.57313E-17
5.18317E-05 5.86440E-17
5.50205E-05 5.24689E-17
5.83045E-05 4.70744E-17
6.16838E-05 4.23464E-17
6.51582E-05 3.81894E-17
6.87277E-05 3.45234E-17
7.23925E-05 3.12807E-17
7.61524E-05 2.84044E-17
9.21439E-05 1.97013E-17
1.09658E-04 1.40614E-17
1.28695E-04 1.02942E-17
1.49255E-04 7.70408E-18
1.71338E-04 5.87898E-18
1.94942E-04 4.56369E-18
2.20070E-04 3.59691E-18
2.46720E-04 2.87358E-18
2.74892E-04 2.32363E-18
3.04586E-04 1.89947E-18
3.35803E-04 1.56802E-18
3.68542E-04 1.30594E-18
4.02802E-04 1.09646E-18
4.38585E-04 9.27387E-19
4.75889E-04 7.89713E-19
5.14715E-04 6.76673E-19
5.55063E-04 5.83155E-19
5.96931E-04 5.05242E-19
6.40321E-04 4.39908E-19
6.85233E-04 3.84790E-19
7.31665E-04 3.38028E-19
7.79618E-04 2.98147E-19
8.29092E-04 2.63965E-19
8.80086E-04 2.34531E-19
9.32601E-04 2.09078E-19
9.86636E-04 1.86978E-19
1.04219E-03 1.67715E-19
1.09927E-03 1.50863E-19
1.15786E-03 1.36070E-19
1.21797E-03 1.23041E-19
1.27961E-03 1.11530E-19
1.34276E-03 1.01330E-19
1.40743E-03 9.22659E-20
1.47362E-03 8.41898E-20
1.54133E-03 7.69750E-20
1.61056E-03 7.05143E-20
1.68131E-03 6.47152E-20
1.75357E-03 5.94982E-20
1.82735E-03 5.47947E-20
1.90265E-03 5.05453E-20
1.97947E-03 4.66987E-20
2.05780E-03 4.32098E-20
2.13765E-03 4.00396E-20
2.21902E-03 3.71539E-20
2.30190E-03 3.45226E-20
2.38630E-03 3.21193E-20
2.47222E-03 2.99208E-20
2.55965E-03 2.79066E-20
2.64859E-03 2.60585E-20
2.73905E-03 2.43603E-20
2.83103E-03 2.27978E-20
2.92452E-03 2.13581E-20
3.01952E-03 2.00299E-20
3.11604E-03 1.88030E-20
3.21407E-03 1.76682E-20
3.31362E-03 1.66175E-20
3.41468E-03 1.56434E-20
3.51725E-03 1.47394E-20
3.62133E-03 1.38996E-20
3.72692E-03 1.31185E-20
3.83403E-03 1.23913E-20
3.94265E-03 1.17136E-20
4.05278E-03 1.10815E-20
4.16442E-03 1.04912E-20
4.27757E-03 9.93965E-21
4.39223E-03 9.42370E-21
4.50840E-03 8.94066E-21
4.62608E-03 8.48807E-21
4.74527E-03 8.06364E-21
4.86597E-03 7.66531E-21
4.98817E-03 7.29119E-21
5.11188E-03 6.93952E-21
5.23711E-03 6.60872E-21
5.36383E-03 6.29733E-21
5.49207E-03 6.00398E-21
5.62181E-03 5.72746E-21
5.75306E-03 5.46661E-21
5.88581E-03 5.22038E-21
6.02007E-03 4.98780E-21
6.15583E-03 4.76798E-21
6.29310E-03 4.56009E-21
6.43187E-03 4.36336E-21
6.57214E-03 4.17708E-21
6.71392E-03 4.00059E-21
6.85720E-03 3.83329E-21
7.00198E-03 3.67461E-21
7.14827E-03 3.52402E-21
7.29605E-03 3.38103E-21
7.44534E-03 3.24519E-21
7.59612E-03 3.11608E-21
7.97965E-03 2.82018E-21
8.37255E-03 2.55845E-21
8.77480E-03 2.32626E-21
9.18641E-03 2.11971E-21
9.60736E-03 1.93549E-21
1.00376E-02 1.77077E-21
1.04773E-02 1.62312E-21
1.09262E-02 1.49048E-21
1.13844E-02 1.37105E-21
1.18520E-02 1.26329E-21
1.23288E-02 1.16586E-21
1.28150E-02 1.07760E-21
1.33104E-02 9.97493E-22
1.38150E-02 9.24656E-22
1.43290E-02 8.58313E-22
1.48521E-02 7.97784E-22
1.53845E-02 7.42469E-22
1.59262E-02 6.91840E-22
1.64770E-02 6.45430E-22
1.70371E-02 6.02825E-22
1.76063E-02 5.63658E-22
1.81848E-02 5.27603E-22
1.87724E-02 4.94368E-22
1.93692E-02 4.63694E-22
1.99751E-02 4.35347E-22
2.05901E-02 4.09121E-22
2.12143E-02 3.84827E-22
2.18476E-02 3.62299E-22
2.24900E-02 3.41385E-22
2.31415E-02 3.21948E-22
2.38021E-02 3.03866E-22
2.44717E-02 2.87028E-22
2.51504E-02 2.71331E-22
2.58382E-02 2.56686E-22
2.65349E-02 2.43008E-22
2.72407E-02 2.30223E-22
2.79555E-02 2.18262E-22
2.86793E-02 2.07062E-22
2.94120E-02 1.96565E-22
3.01537E-02 1.86721E-22
3.09043E-02 1.77480E-22
3.16639E-02 1.68800E-22
3.24324E-02 1.60639E-22
3.32098E-02 1.52962E-22
3.39961E-02 1.45735E-22
3.47912E-02 1.38925E-22
3.55952E-02 1.32506E-22
3.64081E-02 1.26450E-22
3.72297E-02 1.20733E-22
3.80602E-02 1.15333E-22
3.88995E-02 1.10228E-22
3.97476E-02 1.05401E-22
4.06044E-02 1.00832E-22
4.14700E-02 9.65066E-23
4.23443E-02 9.24081E-23
4.32273E-02 8.85229E-23
4.41190E-02 8.48379E-23
4.50194E-02 8.13408E-23
4.59284E-02 7.80203E-23
4.68461E-02 7.48658E-23
4.87074E-02 6.90166E-23
5.06030E-02 6.37222E-23
5.25328E-02 5.89209E-23
5.44967E-02 5.45590E-23
5.64946E-02 5.05892E-23
5.85262E-02 4.69702E-23
6.05914E-02 4.36657E-23
6.26901E-02 4.06436E-23
6.48222E-02 3.78755E-23
6.69873E-02 3.53365E-23
6.91854E-02 3.30042E-23
7.14163E-02 3.08589E-23
7.36799E-02 2.88830E-23
7.59760E-02 2.70607E-23
7.83043E-02 2.53782E-23
8.06647E-02 2.38226E-23
8.30571E-02 2.23829E-23
8.54812E-02 2.10488E-23
8.79369E-02 1.98113E-23
9.04240E-02 1.86622E-23
9.29422E-02 1.75939E-23
9.54915E-02 1.65999E-23
9.80716E-02 1.56741E-23
1.00682E-01 1.48109E-23
1.03323E-01 1.40054E-23
1.05995E-01 1.32531E-23
1.08696E-01 1.25497E-23
1.11427E-01 1.18917E-23
1.14188E-01 1.12755E-23
1.16978E-01 1.06980E-23
1.19797E-01 1.01563E-23
1.22645E-01 9.64793E-24
1.25522E-01 9.17037E-24
1.28428E-01 8.72144E-24
1.31361E-01 8.29913E-24
1.34323E-01 7.90157E-24
1.37313E-01 7.52707E-24
1.40330E-01 7.17405E-24
1.43375E-01 6.84106E-24
1.46447E-01 6.52676E-24
1.49545E-01 6.22993E-24
1.52671E-01 5.94941E-24
1.55823E-01 5.68416E-24
1.59001E-01 5.43320E-24
1.62205E-01 5.19561E-24
1.65435E-01 4.97057E-24
1.68690E-01 4.75729E-24
1.71970E-01 4.55505E-24
1.75276E-01 4.36318E-24
1.78606E-01 4.18105E-24
1.81961E-01 4.00808E-24
1.85340E-01 3.84374E-24
1.88743E-01 3.68750E-24
1.92169E-01 3.53891E-24
1.95619E-01 3.39752E-24
1.99092E-01 3.26293E-24
2.02589E-01 3.13474E-24
2.06107E-01 3.01260E-24
2.09649E-01 2.89618E-24
2.13212E-01 2.78516E-24
2.16797E-01 2.67925E-24
2.20404E-01 2.57816E-24
2.24032E-01 2.48164E-24
2.27680E-01 2.38946E-24
2.31350E-01 2.30137E-24
2.35040E-01 2.21717E-24
2.38751E-01 2.13665E-24
2.42481E-01 2.05963E-24
2.46231E-01 1.98592E-24
2.50000E-01 1.91536E-24
2.53788E-01 1.84779E-24
2.57595E-01 1.78307E-24
2.61421E-01 1.72105E-24
2.65264E-01 1.66159E-24
2.69126E-01 1.60458E-24
2.73005E-01 1.54990E-24
2.76901E-01 1.49743E-24
2.80814E-01 1.44707E-24
2.84744E-01 1.39872E-24
2.88691E-01 1.35228E-24
2.92653E-01 1.30767E-24
2.96632E-01 1.26481E-24
3.00625E-01 1.22361E-24
3.04634E-01 1.18399E-24
3.08658E-01 1.14589E-24
3.12697E-01 1.10924E-24
3.16749E-01 1.07396E-24
3.20816E-01 1.04002E-24
3.24896E-01 1.00733E-24
3.28990E-01 9.75853E-25
3.33097E-01 9.45532E-25
3.37216E-01 9.16318E-25
3.41348E-01 8.88162E-25
3.45492E-01 8.61020E-25
3.49647E-01 8.34849E-25
3.53814E-01 8.09608E-25
3.57992E-01 7.85260E-25
3.62181E-01 7.61768E-25
3.66381E-01 7.39095E-25
3.70590E-01 7.17208E-25
3.74810E-01 6.96075E-25
3.79039E-01 6.75666E-25
3.83277E-01 6.55952E-25
3.87524E-01 6.36905E-25
3.91780E-01 6.18499E-25
3.96044E-01 6.00710E-25
4.00316E-01 5.83513E-25
4.04596E-01 5.66883E-25
4.08882E-01 5.50800E-25
4.13176E-01 5.35243E-25
4.17476E-01 5.20191E-25
4.21783E-01 5.05625E-25
4.26095E-01 4.91528E-25
4.30413E-01 4.77881E-25
4.34737E-01 4.64668E-25
4.39065E-01 4.51872E-25
4.43398E-01 4.39479E-25
4.47736E-01 4.27473E-25
4.52077E-01 4.15840E-25
4.56422E-01 4.04567E-25
4.60770E-01 3.93642E-25
4.65122E-01 3.83050E-25
4.69476E-01 3.72781E-25
4.73832E-01 3.62823E-25
4.78190E-01 3.53166E-25
4.82550E-01 3.43798E-25
4.86912E-01 3.34709E-25
4.91274E-01 3.25890E-25
4.95637E-01 3.17332E-25
5.00000E-01 3.09025E-25
5.04363E-01 3.00961E-25
5.08726E-01 2.93132E-25
5.13088E-01 2.85530E-25
5.17450E-01 2.78146E-25
5.21810E-01 2.70975E-25
5.26168E-01 2.64008E-25
5.30524E-01 2.57240E-25
5.34878E-01 2.50662E-25
5.39230E-01 2.44270E-25
5.43578E-01 2.38058E-25
5.47923E-01 2.32018E-25
5.52264E-01 2.26146E-25
5.56602E-01 2.20437E-25
5.60935E-01 2.14885E-25
5.65263E-01 2.09485E-25
5.69587E-01 2.04232E-25
5.73905E-01 1.99122E-25
5.78217E-01 1.94150E-25
5.82524E-01 1.89312E-25
5.86824E-01 1.84604E-25
5.91118E-01 1.80022E-25
5.95404E-01 1.75562E-25
5.99684E-01 1.71219E-25
6.03956E-01 1.66992E-25
6.08220E-01 1.62875E-25
6.12476E-01 1.58866E-25
6.16723E-01 1.54962E-25
6.20961E-01 1.51159E-25
6.25190E-01 1.47454E-25
6.29410E-01 1.43845E-25
6.33619E-01 1.40328E-25
6.37819E-01 1.36901E-25
6.42008E-01 1.33562E-25
6.46186E-01 1.30307E-25
6.50353E-01 1.27135E-25
6.54508E-01 1.24042E-25
6.58652E-01 1.21027E-25
6.62784E-01 1.18087E-25
6.66903E-01 1.15221E-25
6.71010E-01 1.12426E-25
6.75104E-01 1.09700E-25
6.79184E-01 1.07041E-25
6.83251E-01 1.04448E-25
6.87303E-01 1.01918E-25
6.91342E-01 9.94500E-26
6.95366E-01 9.70420E-26
6.99375E-01 9.46924E-26
7.03368E-01 9.23996E-26
7.07347E-01 9.01620E-26
7.11309E-01 8.79783E-26
7.15256E-01 8.58468E-26
7.19186E-01 8.37663E-26
7.23099E-01 8.17353E-26
7.26995E-01 7.97526E-26
7.30874E-01 7.78168E-26
7.34736E-01 7.59267E-26
7.38579E-01 7.40811E-26
7.42405E-01 7.22789E-26
7.46212E-01 7.05189E-26
7.50000E-01 6.88000E-26
7.53769E-01 6.71211E-26
7.57519E-01 6.54813E-26
7.61249E-01 6.38795E-26
7.64960E-01 6.23148E-26
7.68650E-01 6.07862E-26
7.72320E-01 5.92928E-26
7.75968E-01 5.78337E-26
7.79596E-01 5.64081E-26
7.83203E-01 5.50151E-26
7.86788E-01 5.36539E-26
7.90351E-01 5.23237E-26
7.93893E-01 5.10238E-26
7.97411E-01 4.97534E-26
8.00908E-01 4.85119E-26
8.04381E-01 4.72984E-26
8.07831E-01 4.61124E-26
8.11257E-01 4.49531E-26
8.14660E-01 4.38200E-26
8.18039E-01 4.27123E-26
8.21394E-01 4.16296E-26
8.24724E-01 4.05712E-26
8.28030E-01 3.95365E-26
8.31310E-01 3.85250E-26
8.34565E-01 3.75361E-26
8.37795E-01 3.65694E-26
8.40999E-01 3.56243E-26
8.44177E-01 3.47003E-26
8.47329E-01 3.37970E-26
8.50455E-01 3.29138E-26
8.53553E-01 3.20503E-26
8.56625E-01 3.12061E-26
8.59670E-01 3.03808E-26
8.62687E-01 2.95739E-26
8.65677E-01 2.87850E-26
8.68639E-01 2.80137E-26
8.71572E-01 2.72597E-26
8.74478E-01 2.65225E-26
8.77355E-01 2.58018E-26
8.80203E-01 2.50973E-26
8.83022E-01 2.44086E-26
8.85812E-01 2.37354E-26
8.88573E-01 2.30773E-26
8.91304E-01 2.24341E-26
8.94005E-01 2.18054E-26
8.96677E-01 2.11909E-26
8.99318E-01 2.05903E-26
9.01928E-01 2.00034E-26
9.04508E-01 1.94298E-26
9.07058E-01 1.88694E-26
9.09576E-01 1.83218E-26
9.12063E-01 1.77868E-26
9.14519E-01 1.72641E-26
9.16943E-01 1.67536E-26
9.19335E-01 1.62549E-26
9.21696E-01 1.57679E-26
9.24024E-01 1.52923E-26
9.26320E-01 1.48279E-26
9.28584E-01 1.43745E-26
9.30815E-01 1.39319E-26
9.33013E-01 1.34999E-26
9.35178E-01 1.30783E-26
9.37310E-01 1.26669E-26
9.39409E-01 1.22656E-26
9.41474E-01 1.18742E-26
9.43505E-01 1.14924E-26
9.45503E-01 1.11202E-26
9.47467E-01 1.07573E-26
9.49397E-01 1.04037E-26
9.51293E-01 1.00591E-26
9.53154E-01 9.72339E-27
9.54981E-01 9.39647E-27
9.56773E-01 9.07819E-27
9.58530E-01 8.76839E-27
9.60252E-01 8.46696E-27
9.61940E-01 8.17376E-27
9.63592E-01 7.88868E-27
9.65209E-01 7.61158E-27
9.66790E-01 7.34235E-27
9.68336E-01 7.08089E-27
9.69846E-01 6.82709E-27
9.71321E-01 6.58083E-27
9.72759E-01 6.34202E-27
9.74162E-01 6.11055E-27
9.75528E-01 5.88634E-27
9.76858E-01 5.66929E-27
9.78152E-01 5.45931E-27
9.79410E-01 5.25631E-27
9.80631E-01 5.06022E-27
9.81815E-01 4.87095E-27
9.82963E-01 4.68843E-27
9.84074E-01 4.51258E-27
9.85148E-01 4.34333E-27
9.86185E-01 4.18061E-27
9.87185E-01 4.02436E-27
9.88148E-01 3.87452E-27
9.89074E-01 3.73102E-27
9.89962E-01 3.59381E-27
9.90814E-01 3.46283E-27
9.91627E-01 3.33803E-27
9.92404E-01 3.21936E-27
9.93143E-01 3.10677E-27
9.93844E-01 3.00022E-27
9.94508E-01 2.89967E-27
9.95134E-01 2.80507E-27
9.95722E-01 2.71639E-27
9.96273E-01 2.63360E-27
9.96786E-01 2.55665E-27
9.97261E-01 2.48553E-27
9.97698E-01 2.42020E-27
9.98097E-01 2.36063E-27
9.98459E-01 2.30681E-27
9.98782E-01 2.25871E-27
9.99067E-01 2.21631E-27
9.99315E-01 2.17960E-27
9.99524E-01 2.14857E-27
9.99695E-01 2.12319E-27
9.99829E-01 2.10346E-27
9.99924E-01 2.08937E-27
9.99981E-01 2.08092E-27
1.00000E+00 2.07811E-27
