 #
 # Subroutine ELSEPA. Elastic scattering of electrons and positrons
 #                    by neutral atoms and positive ions
 #
 # Projectile: positron
 # Kinetic energy = 3.50000E+08 eV = 1.28623E+07 a.u.
 #
 # WARNING: High-energy factorization with free-atom DF screening.
 #          Absorption, polarization and exchange corrections are
 #          switched off.
 #          Phase shifts are calculated for the bare nucleus.
 #          Scattering amplitudes are not evaluated.
 #
 # Element: Zn,  Z =  30,  atomic weight = 6.53900E+01 g/mol
 #
 # Nuclear model: Fermi distribution
 #                Average radius = 4.31076E-13 cm
 #                Skin thickness = 5.46000E-14 cm
 #
 # Number of electrons = 30
 #
 # Total elastic cross section = 1.97348E-18 cm**2 = 7.04743E-02 a0**2
 # 1st transport cross section = 1.49411E-26 cm**2 = 5.33557E-10 a0**2
 # 2nd transport cross section = 4.47794E-26 cm**2 = 1.59910E-09 a0**2
 #
 #
 # Differential cross section:                       MU=(1-COS(THETA))/2
 #
 #  THETA        MU          DCS          DCS        Sherman      error
 #  (deg)                 (cm**2/sr)   (a0**2/sr)    function
 #----------------------------------------------------------------------
0.00000E+00 1.70538E-09
7.61557E-13 1.65783E-09
1.18994E-12 1.63208E-09
1.71346E-12 1.60151E-09
2.33225E-12 1.56646E-09
3.04617E-12 1.52788E-09
3.85530E-12 1.48591E-09
4.75964E-12 1.44131E-09
5.75917E-12 1.39494E-09
6.85391E-12 1.34660E-09
8.04379E-12 1.29751E-09
9.32893E-12 1.24810E-09
1.07092E-11 1.19820E-09
1.21847E-11 1.14895E-09
1.37554E-11 1.10033E-09
1.54213E-11 1.05246E-09
1.71823E-11 1.00608E-09
1.90386E-11 9.60870E-10
2.09900E-11 9.17180E-10
2.30367E-11 8.75369E-10
2.51785E-11 8.34931E-10
2.74156E-11 7.96385E-10
2.97478E-11 7.59744E-10
3.21752E-11 7.24562E-10
3.46979E-11 6.91297E-10
3.73157E-11 6.59733E-10
4.00286E-11 6.29677E-10
4.28368E-11 6.01346E-10
4.57402E-11 5.74460E-10
4.87388E-11 5.48999E-10
5.18325E-11 5.25029E-10
5.50215E-11 5.02242E-10
5.83057E-11 4.80738E-10
6.16850E-11 4.60491E-10
6.51595E-11 4.41190E-10
6.87293E-11 4.23015E-10
7.23943E-11 4.05836E-10
7.61544E-11 3.89490E-10
1.18991E-10 2.65878E-10
1.71347E-10 1.89012E-10
2.33223E-10 1.36147E-10
3.04617E-10 1.02291E-10
3.85531E-10 7.68249E-11
4.75965E-10 5.85267E-11
5.75917E-10 4.53402E-11
6.85389E-10 3.49924E-11
8.04380E-10 2.74187E-11
9.32891E-10 2.16980E-11
1.07092E-09 1.72397E-11
1.21847E-09 1.38674E-11
1.37554E-09 1.12437E-11
1.54213E-09 9.18981E-12
1.71823E-09 7.58543E-12
1.90386E-09 6.30795E-12
2.09900E-09 5.28920E-12
2.30367E-09 4.47100E-12
2.51785E-09 3.80489E-12
2.74156E-09 3.26123E-12
2.97478E-09 2.81368E-12
3.21752E-09 2.44140E-12
3.46978E-09 2.13068E-12
3.73156E-09 1.86919E-12
4.00286E-09 1.64739E-12
4.28368E-09 1.45865E-12
4.57402E-09 1.29676E-12
4.87388E-09 1.15703E-12
5.18326E-09 1.03617E-12
5.50215E-09 9.30739E-13
5.83057E-09 8.38646E-13
6.16850E-09 7.57957E-13
6.51596E-09 6.86588E-13
6.87293E-09 6.23599E-13
7.23942E-09 5.67725E-13
7.61544E-09 5.17851E-13
1.18991E-08 2.27474E-13
1.71347E-08 1.13913E-13
2.33223E-08 6.27744E-14
3.04617E-08 3.72945E-14
3.85531E-08 2.35195E-14
4.75965E-08 1.55643E-14
5.75917E-08 1.07111E-14
6.85389E-08 7.61534E-15
8.04380E-08 5.56359E-15
9.32891E-08 4.15975E-15
1.07092E-07 3.17270E-15
1.21847E-07 2.46185E-15
1.37554E-07 1.93952E-15
1.54213E-07 1.54859E-15
1.71823E-07 1.25132E-15
1.90386E-07 1.02204E-15
2.09900E-07 8.42870E-16
2.30367E-07 7.01266E-16
2.51785E-07 5.88142E-16
2.74156E-07 4.96907E-16
2.97478E-07 4.22675E-16
3.21752E-07 3.61776E-16
3.46978E-07 3.11448E-16
3.73156E-07 2.69562E-16
4.00286E-07 2.34477E-16
4.28368E-07 2.04912E-16
4.57402E-07 1.79856E-16
4.87388E-07 1.58511E-16
5.18325E-07 1.40237E-16
5.50215E-07 1.24519E-16
5.83057E-07 1.10940E-16
6.16850E-07 9.91609E-17
6.51596E-07 8.89029E-17
6.87293E-07 7.99362E-17
7.23942E-07 7.20711E-17
7.61543E-07 6.51492E-17
1.18991E-06 2.67352E-17
1.71347E-06 1.29038E-17
2.33223E-06 6.96783E-18
3.04617E-06 4.08513E-18
3.85531E-06 2.55050E-18
4.75964E-06 1.67339E-18
5.75916E-06 1.14290E-18
6.85388E-06 8.06917E-19
8.04378E-06 5.85797E-19
9.32888E-06 4.35482E-19
1.07092E-05 3.30426E-19
1.21846E-05 2.55220E-19
1.37553E-05 2.00241E-19
1.54212E-05 1.59298E-19
1.71822E-05 1.28303E-19
1.90385E-05 1.04483E-19
2.09899E-05 8.59595E-20
2.30365E-05 7.13617E-20
2.51783E-05 5.97311E-20
2.74153E-05 5.03731E-20
2.97475E-05 4.27762E-20
3.21749E-05 3.65585E-20
3.46974E-05 3.14309E-20
3.73152E-05 2.71723E-20
4.00281E-05 2.36116E-20
4.28362E-05 2.06157E-20
4.57395E-05 1.80800E-20
4.87380E-05 1.59221E-20
5.18317E-05 1.40764E-20
5.50205E-05 1.24902E-20
5.83045E-05 1.11211E-20
6.16838E-05 9.93455E-21
6.51582E-05 8.90212E-21
6.87277E-05 8.00046E-21
7.23925E-05 7.21013E-21
7.61524E-05 6.50603E-21
9.21439E-05 4.43935E-21
1.09658E-04 3.13108E-21
1.28695E-04 2.27068E-21
1.49255E-04 1.68607E-21
1.71338E-04 1.27778E-21
1.94942E-04 9.85672E-22
2.20070E-04 7.72273E-22
2.46720E-04 6.13473E-22
2.74892E-04 4.93341E-22
3.04586E-04 4.01129E-22
3.35803E-04 3.29402E-22
3.68542E-04 2.72945E-22
4.02802E-04 2.28022E-22
4.38585E-04 1.91922E-22
4.75889E-04 1.62650E-22
5.14715E-04 1.38715E-22
5.55063E-04 1.18994E-22
5.96931E-04 1.02629E-22
6.40321E-04 8.89597E-23
6.85233E-04 7.74717E-23
7.31665E-04 6.77613E-23
7.79618E-04 5.95100E-23
8.29092E-04 5.24630E-23
8.80086E-04 4.64165E-23
9.32601E-04 4.12054E-23
9.86636E-04 3.66955E-23
1.04219E-03 3.27773E-23
1.09927E-03 2.93603E-23
1.15786E-03 2.63700E-23
1.21797E-03 2.37444E-23
1.27961E-03 2.14317E-23
1.34276E-03 1.93885E-23
1.40743E-03 1.75783E-23
1.47362E-03 1.59701E-23
1.54133E-03 1.45376E-23
1.61056E-03 1.32586E-23
1.68131E-03 1.21138E-23
1.75357E-03 1.10868E-23
1.82735E-03 1.01636E-23
1.90265E-03 9.33191E-24
1.97947E-03 8.58117E-24
2.05780E-03 7.90222E-24
2.13765E-03 7.28706E-24
2.21902E-03 6.72873E-24
2.30190E-03 6.22110E-24
2.38630E-03 5.75883E-24
2.47222E-03 5.33721E-24
2.55965E-03 4.95207E-24
2.64859E-03 4.59974E-24
2.73905E-03 4.27699E-24
2.83103E-03 3.98092E-24
2.92452E-03 3.70897E-24
3.01952E-03 3.45887E-24
3.11604E-03 3.22857E-24
3.21407E-03 3.01626E-24
3.31362E-03 2.82031E-24
3.41468E-03 2.63926E-24
3.51725E-03 2.47179E-24
3.62133E-03 2.31673E-24
3.72692E-03 2.17301E-24
3.83403E-03 2.03967E-24
3.94265E-03 1.91585E-24
4.05278E-03 1.80076E-24
4.16442E-03 1.69369E-24
4.27757E-03 1.59399E-24
4.39223E-03 1.50109E-24
4.50840E-03 1.41444E-24
4.62608E-03 1.33356E-24
4.74527E-03 1.25801E-24
4.86597E-03 1.18739E-24
4.98817E-03 1.12132E-24
5.11188E-03 1.05947E-24
5.23711E-03 1.00153E-24
5.36383E-03 9.47215E-25
5.49207E-03 8.96266E-25
5.62181E-03 8.48444E-25
5.75306E-03 8.03529E-25
5.88581E-03 7.61319E-25
6.02007E-03 7.21627E-25
6.15583E-03 6.84284E-25
6.29310E-03 6.49129E-25
6.43187E-03 6.16016E-25
6.57214E-03 5.84811E-25
6.71392E-03 5.55389E-25
6.85720E-03 5.27633E-25
7.00198E-03 5.01437E-25
7.14827E-03 4.76701E-25
7.29605E-03 4.53332E-25
7.44534E-03 4.31246E-25
7.59612E-03 4.10362E-25
7.97965E-03 3.62940E-25
8.37255E-03 3.21560E-25
8.77480E-03 2.85365E-25
9.18641E-03 2.53632E-25
9.60736E-03 2.25751E-25
1.00376E-02 2.01203E-25
1.04773E-02 1.79548E-25
1.09262E-02 1.60410E-25
1.13844E-02 1.43468E-25
1.18520E-02 1.28446E-25
1.23288E-02 1.15105E-25
1.28150E-02 1.03240E-25
1.33104E-02 9.26735E-26
1.38150E-02 8.32513E-26
1.43290E-02 7.48392E-26
1.48521E-02 6.73204E-26
1.53845E-02 6.05928E-26
1.59262E-02 5.45671E-26
1.64770E-02 4.91649E-26
1.70371E-02 4.43174E-26
1.76063E-02 3.99641E-26
1.81848E-02 3.60515E-26
1.87724E-02 3.25324E-26
1.93692E-02 2.93651E-26
1.99751E-02 2.65127E-26
2.05901E-02 2.39423E-26
2.12143E-02 2.16248E-26
2.18476E-02 1.95343E-26
2.24900E-02 1.76478E-26
2.31415E-02 1.59445E-26
2.38021E-02 1.44062E-26
2.44717E-02 1.30163E-26
2.51504E-02 1.17602E-26
2.58382E-02 1.06248E-26
2.65349E-02 9.59813E-27
2.72407E-02 8.66967E-27
2.79555E-02 7.82988E-27
2.86793E-02 7.07019E-27
2.94120E-02 6.38292E-27
3.01537E-02 5.76111E-27
3.09043E-02 5.19851E-27
3.16639E-02 4.68950E-27
3.24324E-02 4.22899E-27
3.32098E-02 3.81237E-27
3.39961E-02 3.43552E-27
3.47912E-02 3.09466E-27
3.55952E-02 2.78643E-27
3.64081E-02 2.50774E-27
3.72297E-02 2.25583E-27
3.80602E-02 2.02817E-27
3.88995E-02 1.82250E-27
3.97476E-02 1.63674E-27
4.06044E-02 1.46902E-27
4.14700E-02 1.31766E-27
4.23443E-02 1.18112E-27
4.32273E-02 1.05799E-27
4.41190E-02 9.47012E-28
4.50194E-02 8.47042E-28
4.59284E-02 7.57036E-28
4.68461E-02 6.76047E-28
4.87074E-02 5.37771E-28
5.06030E-02 4.26257E-28
5.25328E-02 3.36599E-28
5.44967E-02 2.64759E-28
5.64946E-02 2.07413E-28
5.85262E-02 1.61829E-28
6.05914E-02 1.25762E-28
6.26901E-02 9.73714E-29
6.48222E-02 7.51513E-29
6.69873E-02 5.78700E-29
6.91854E-02 4.45238E-29
7.14163E-02 3.42966E-29
7.36799E-02 2.65271E-29
7.59760E-02 2.06811E-29
7.83043E-02 1.63287E-29
8.06647E-02 1.31260E-29
8.30571E-02 1.07989E-29
8.54812E-02 9.13048E-30
8.79369E-02 7.95009E-30
9.04240E-02 7.12476E-30
9.29422E-02 6.55179E-30
9.54915E-02 6.15276E-30
9.80716E-02 5.86864E-30
1.00682E-01 5.65574E-30
1.03323E-01 5.48247E-30
1.05995E-01 5.32661E-30
1.08696E-01 5.17323E-30
1.11427E-01 5.01287E-30
1.14188E-01 4.84021E-30
1.16978E-01 4.65294E-30
1.19797E-01 4.45090E-30
1.22645E-01 4.23538E-30
1.25522E-01 4.00861E-30
1.28428E-01 3.77335E-30
1.31361E-01 3.53262E-30
1.34323E-01 3.28943E-30
1.37313E-01 3.04668E-30
1.40330E-01 2.80702E-30
1.43375E-01 2.57282E-30
1.46447E-01 2.34608E-30
1.49545E-01 2.12848E-30
1.52671E-01 1.92135E-30
1.55823E-01 1.72569E-30
1.59001E-01 1.54219E-30
1.62205E-01 1.37130E-30
1.65435E-01 1.21317E-30
1.68690E-01 1.06780E-30
1.71970E-01 9.34967E-31
1.75276E-01 8.14328E-31
1.78606E-01 7.05412E-31
1.81961E-01 6.07657E-31
1.85340E-01 5.20433E-31
1.88743E-01 4.43067E-31
1.92169E-01 3.74855E-31
1.95619E-01 3.15082E-31
1.99092E-01 2.63033E-31
2.02589E-01 2.18008E-31
2.06107E-01 1.79325E-31
2.09649E-01 1.46333E-31
2.13212E-01 1.18414E-31
2.16797E-01 9.49840E-32
2.20404E-01 7.55032E-32
2.24032E-01 5.94703E-32
2.27680E-01 4.64263E-32
2.31350E-01 3.59534E-32
2.35040E-01 2.76737E-32
2.38751E-01 2.12485E-32
2.42481E-01 1.63758E-32
2.46231E-01 1.27888E-32
2.50000E-01 1.02529E-32
2.53788E-01 8.56409E-33
2.57595E-01 7.54575E-33
2.61421E-01 7.04673E-33
2.65264E-01 6.93871E-33
2.69126E-01 7.11391E-33
2.73005E-01 7.48282E-33
2.76901E-01 7.97213E-33
2.80814E-01 8.52272E-33
2.84744E-01 9.08782E-33
2.88691E-01 9.63134E-33
2.92653E-01 1.01263E-32
2.96632E-01 1.05534E-32
3.00625E-01 1.08998E-32
3.04634E-01 1.11581E-32
3.08658E-01 1.13250E-32
3.12697E-01 1.14010E-32
3.16749E-01 1.13890E-32
3.20816E-01 1.12941E-32
3.24896E-01 1.11228E-32
3.28990E-01 1.08828E-32
3.33097E-01 1.05821E-32
3.37216E-01 1.02294E-32
3.41348E-01 9.83305E-33
3.45492E-01 9.40145E-33
3.49647E-01 8.94257E-33
3.53814E-01 8.46394E-33
3.57992E-01 7.97252E-33
3.62181E-01 7.47465E-33
3.66381E-01 6.97604E-33
3.70590E-01 6.48173E-33
3.74810E-01 5.99610E-33
3.79039E-01 5.52291E-33
3.83277E-01 5.06527E-33
3.87524E-01 4.62575E-33
3.91780E-01 4.20637E-33
3.96044E-01 3.80864E-33
4.00316E-01 3.43363E-33
4.04596E-01 3.08202E-33
4.08882E-01 2.75412E-33
4.13176E-01 2.44993E-33
4.17476E-01 2.16918E-33
4.21783E-01 1.91139E-33
4.26095E-01 1.67586E-33
4.30413E-01 1.46176E-33
4.34737E-01 1.26813E-33
4.39065E-01 1.09393E-33
4.43398E-01 9.38027E-34
4.47736E-01 7.99279E-34
4.52077E-01 6.76498E-34
4.56422E-01 5.68504E-34
4.60770E-01 4.74119E-34
4.65122E-01 3.92196E-34
4.69476E-01 3.21616E-34
4.73832E-01 2.61305E-34
4.78190E-01 2.10237E-34
4.82550E-01 1.67440E-34
4.86912E-01 1.31999E-34
4.91274E-01 1.03056E-34
4.95637E-01 7.98161E-35
5.00000E-01 6.15451E-35
5.04363E-01 4.75682E-35
5.08726E-01 3.72681E-35
5.13088E-01 3.00881E-35
5.17450E-01 2.55217E-35
5.21810E-01 2.31180E-35
5.26168E-01 2.24739E-35
5.30524E-01 2.32328E-35
5.34878E-01 2.50816E-35
5.39230E-01 2.77471E-35
5.43578E-01 3.09933E-35
5.47923E-01 3.46177E-35
5.52264E-01 3.84488E-35
5.56602E-01 4.23431E-35
5.60935E-01 4.61820E-35
5.65263E-01 4.98694E-35
5.69587E-01 5.33290E-35
5.73905E-01 5.65020E-35
5.78217E-01 5.93456E-35
5.82524E-01 6.18293E-35
5.86824E-01 6.39347E-35
5.91118E-01 6.56530E-35
5.95404E-01 6.69839E-35
5.99684E-01 6.79332E-35
6.03956E-01 6.85132E-35
6.08220E-01 6.87399E-35
6.12476E-01 6.86331E-35
6.16723E-01 6.82151E-35
6.20961E-01 6.75100E-35
6.25190E-01 6.65435E-35
6.29410E-01 6.53407E-35
6.33619E-01 6.39287E-35
6.37819E-01 6.23327E-35
6.42008E-01 6.05779E-35
6.46186E-01 5.86891E-35
6.50353E-01 5.66894E-35
6.54508E-01 5.46008E-35
6.58652E-01 5.24442E-35
6.62784E-01 5.02383E-35
6.66903E-01 4.80019E-35
6.71010E-01 4.57500E-35
6.75104E-01 4.34988E-35
6.79184E-01 4.12608E-35
6.83251E-01 3.90477E-35
6.87303E-01 3.68705E-35
6.91342E-01 3.47376E-35
6.95366E-01 3.26574E-35
6.99375E-01 3.06365E-35
7.03368E-01 2.86804E-35
7.07347E-01 2.67930E-35
7.11309E-01 2.49784E-35
7.15256E-01 2.32392E-35
7.19186E-01 2.15770E-35
7.23099E-01 1.99932E-35
7.26995E-01 1.84882E-35
7.30874E-01 1.70616E-35
7.34736E-01 1.57131E-35
7.38579E-01 1.44413E-35
7.42405E-01 1.32450E-35
7.46212E-01 1.21223E-35
7.50000E-01 1.10712E-35
7.53769E-01 1.00892E-35
7.57519E-01 9.17410E-36
7.61249E-01 8.32334E-36
7.64960E-01 7.53414E-36
7.68650E-01 6.80367E-36
7.72320E-01 6.12885E-36
7.75968E-01 5.50729E-36
7.79596E-01 4.93572E-36
7.83203E-01 4.41171E-36
7.86788E-01 3.93220E-36
7.90351E-01 3.49456E-36
7.93893E-01 3.09604E-36
7.97411E-01 2.73419E-36
8.00908E-01 2.40643E-36
8.04381E-01 2.11044E-36
8.07831E-01 1.84381E-36
8.11257E-01 1.60444E-36
8.14660E-01 1.39007E-36
8.18039E-01 1.19884E-36
8.21394E-01 1.02886E-36
8.24724E-01 8.78327E-37
8.28030E-01 7.45535E-37
8.31310E-01 6.28934E-37
8.34565E-01 5.27018E-37
8.37795E-01 4.38447E-37
8.40999E-01 3.61896E-37
8.44177E-01 2.96177E-37
8.47329E-01 2.40201E-37
8.50455E-01 1.92947E-37
8.53553E-01 1.53431E-37
8.56625E-01 1.20816E-37
8.59670E-01 9.42914E-38
8.62687E-01 7.31548E-38
8.65677E-01 5.67112E-38
8.68639E-01 4.43428E-38
8.71572E-01 3.55055E-38
8.74478E-01 2.97208E-38
8.77355E-01 2.65167E-38
8.80203E-01 2.54954E-38
8.83022E-01 2.62918E-38
8.85812E-01 2.85774E-38
8.88573E-01 3.20688E-38
8.91304E-01 3.65025E-38
8.94005E-01 4.16529E-38
8.96677E-01 4.73253E-38
8.99318E-01 5.33408E-38
9.01928E-01 5.95372E-38
9.04508E-01 6.58134E-38
9.07058E-01 7.20277E-38
9.09576E-01 7.81146E-38
9.12063E-01 8.39726E-38
9.14519E-01 8.95478E-38
9.16943E-01 9.47867E-38
9.19335E-01 9.96622E-38
9.21696E-01 1.04107E-37
9.24024E-01 1.08137E-37
9.26320E-01 1.11710E-37
9.28584E-01 1.14829E-37
9.30815E-01 1.17491E-37
9.33013E-01 1.19700E-37
9.35178E-01 1.21457E-37
9.37310E-01 1.22774E-37
9.39409E-01 1.23667E-37
9.41474E-01 1.24149E-37
9.43505E-01 1.24227E-37
9.45503E-01 1.23940E-37
9.47467E-01 1.23276E-37
9.49397E-01 1.22303E-37
9.51293E-01 1.21006E-37
9.53154E-01 1.19415E-37
9.54981E-01 1.17566E-37
9.56773E-01 1.15466E-37
9.58530E-01 1.13142E-37
9.60252E-01 1.10599E-37
9.61940E-01 1.07890E-37
9.63592E-01 1.04989E-37
9.65209E-01 1.01946E-37
9.66790E-01 9.87918E-38
9.68336E-01 9.55488E-38
9.69846E-01 9.21839E-38
9.71321E-01 8.87336E-38
9.72759E-01 8.52617E-38
9.74162E-01 8.17453E-38
9.75528E-01 7.81773E-38
9.76858E-01 7.46293E-38
9.78152E-01 7.10606E-38
9.79410E-01 6.75126E-38
9.80631E-01 6.39703E-38
9.81815E-01 6.04998E-38
9.82963E-01 5.70268E-38
9.84074E-01 5.36134E-38
9.85148E-01 5.02751E-38
9.86185E-01 4.69967E-38
9.87185E-01 4.38311E-38
9.88148E-01 4.07127E-38
9.89074E-01 3.76751E-38
9.89962E-01 3.47514E-38
9.90814E-01 3.19124E-38
9.91627E-01 2.91859E-38
9.92404E-01 2.65575E-38
9.93143E-01 2.40383E-38
9.93844E-01 2.16315E-38
9.94508E-01 1.93550E-38
9.95134E-01 1.71838E-38
9.95722E-01 1.51364E-38
9.96273E-01 1.32227E-38
9.96786E-01 1.14234E-38
9.97261E-01 9.74440E-39
9.97698E-01 8.20480E-39
9.98097E-01 6.79918E-39
9.98459E-01 5.51041E-39
9.98782E-01 4.36502E-39
9.99067E-01 3.34175E-39
9.99315E-01 2.46217E-39
9.99524E-01 1.71254E-39
9.99695E-01 1.09900E-39
9.99829E-01 6.22429E-40
9.99924E-01 2.81079E-40
9.99981E-01 7.73298E-41
1.00000E+00 5.28429E-42
