 #
 # Subroutine ELSEPA. Elastic scattering of electrons and positrons
 #                    by neutral atoms and positive ions
 #
 # Projectile: positron
 # Kinetic energy = 4.50000E+08 eV = 1.65372E+07 a.u.
 #
 # WARNING: High-energy factorization with free-atom DF screening.
 #          Absorption, polarization and exchange corrections are
 #          switched off.
 #          Phase shifts are calculated for the bare nucleus.
 #          Scattering amplitudes are not evaluated.
 #
 # Element: Zn,  Z =  30,  atomic weight = 6.53900E+01 g/mol
 #
 # Nuclear model: Fermi distribution
 #                Average radius = 4.31076E-13 cm
 #                Skin thickness = 5.46000E-14 cm
 #
 # Number of electrons = 30
 #
 # Total elastic cross section = 1.97305E-18 cm**2 = 7.04590E-02 a0**2
 # 1st transport cross section = 9.05416E-27 cm**2 = 3.23330E-10 a0**2
 # 2nd transport cross section = 2.71464E-26 cm**2 = 9.69414E-10 a0**2
 #
 #
 # Differential cross section:                       MU=(1-COS(THETA))/2
 #
 #  THETA        MU          DCS          DCS        Sherman      error
 #  (deg)                 (cm**2/sr)   (a0**2/sr)    function
 #----------------------------------------------------------------------
0.00000E+00 2.81728E-09
7.61557E-13 2.68951E-09
1.18994E-12 2.62183E-09
1.71346E-12 2.54310E-09
2.33225E-12 2.45492E-09
3.04617E-12 2.35959E-09
3.85530E-12 2.25916E-09
4.75964E-12 2.15556E-09
5.75917E-12 2.05055E-09
6.85391E-12 1.94503E-09
8.04379E-12 1.84081E-09
9.32893E-12 1.73911E-09
1.07092E-11 1.64078E-09
1.21847E-11 1.54642E-09
1.37554E-11 1.45634E-09
1.54213E-11 1.37057E-09
1.71823E-11 1.28968E-09
1.90386E-11 1.21368E-09
2.09900E-11 1.14249E-09
2.30367E-11 1.07595E-09
2.51785E-11 1.01368E-09
2.74156E-11 9.55592E-10
2.97478E-11 9.01550E-10
3.21752E-11 8.51295E-10
3.46979E-11 8.04568E-10
3.73157E-11 7.61103E-10
4.00286E-11 7.20496E-10
4.28368E-11 6.82714E-10
4.57402E-11 6.47533E-10
4.87388E-11 6.14745E-10
5.18325E-11 5.84157E-10
5.50215E-11 5.55525E-10
5.83057E-11 5.28692E-10
6.16850E-11 5.03581E-10
6.51595E-11 4.80052E-10
6.87293E-11 4.57980E-10
7.23943E-11 4.37249E-10
7.61544E-11 4.17664E-10
1.18991E-10 2.70907E-10
1.71347E-10 1.83904E-10
2.33223E-10 1.27011E-10
3.04617E-10 8.96751E-11
3.85531E-10 6.44199E-11
4.75965E-10 4.69724E-11
5.75917E-10 3.47319E-11
6.85389E-10 2.59638E-11
8.04380E-10 1.97136E-11
9.32891E-10 1.51990E-11
1.07092E-09 1.18886E-11
1.21847E-09 9.42715E-12
1.37554E-09 7.57135E-12
1.54213E-09 6.15369E-12
1.71823E-09 5.05889E-12
1.90386E-09 4.20233E-12
2.09900E-09 3.52400E-12
2.30367E-09 2.98069E-12
2.51785E-09 2.54047E-12
2.74156E-09 2.18048E-12
2.97478E-09 1.88329E-12
3.21752E-09 1.63596E-12
3.46978E-09 1.42864E-12
3.73156E-09 1.25360E-12
4.00286E-09 1.10457E-12
4.28368E-09 9.77186E-13
4.57402E-09 8.67700E-13
4.87388E-09 7.73114E-13
5.18326E-09 6.91017E-13
5.50215E-09 6.19379E-13
5.83057E-09 5.56637E-13
6.16850E-09 5.01564E-13
6.51596E-09 4.53062E-13
6.87293E-09 4.10215E-13
7.23942E-09 3.72252E-13
7.61544E-09 3.38479E-13
1.18991E-08 1.44399E-13
1.71347E-08 7.11071E-14
2.33223E-08 3.89043E-14
3.04617E-08 2.30523E-14
3.85531E-08 1.45271E-14
4.75965E-08 9.61053E-15
5.75917E-08 6.61205E-15
6.85389E-08 4.69813E-15
8.04380E-08 3.42956E-15
9.32891E-08 2.56164E-15
1.07092E-07 1.95158E-15
1.21847E-07 1.51264E-15
1.37554E-07 1.19032E-15
1.54213E-07 9.49360E-16
1.71823E-07 7.66323E-16
1.90386E-07 6.25286E-16
2.09900E-07 5.15211E-16
2.30367E-07 4.28294E-16
2.51785E-07 3.58934E-16
2.74156E-07 3.03046E-16
2.97478E-07 2.57612E-16
3.21752E-07 2.20372E-16
3.46978E-07 1.89618E-16
3.73156E-07 1.64041E-16
4.00286E-07 1.42630E-16
4.28368E-07 1.24598E-16
4.57402E-07 1.09326E-16
4.87388E-07 9.63213E-17
5.18325E-07 8.51927E-17
5.50215E-07 7.56247E-17
5.83057E-07 6.73622E-17
6.16850E-07 6.01971E-17
6.51596E-07 5.39593E-17
6.87293E-07 4.85084E-17
7.23942E-07 4.37285E-17
7.61543E-07 3.95227E-17
1.18991E-06 1.62031E-17
1.71347E-06 7.81684E-18
2.33223E-06 4.21992E-18
3.04617E-06 2.47372E-18
3.85531E-06 1.54429E-18
4.75964E-06 1.01315E-18
5.75916E-06 6.91942E-19
6.85388E-06 4.88513E-19
8.04378E-06 3.54637E-19
9.32888E-06 2.63633E-19
1.07092E-05 2.00032E-19
1.21846E-05 1.54502E-19
1.37553E-05 1.21219E-19
1.54212E-05 9.64327E-20
1.71822E-05 7.76691E-20
1.90385E-05 6.32493E-20
2.09899E-05 5.20356E-20
2.30365E-05 4.31987E-20
2.51783E-05 3.61581E-20
2.74153E-05 3.04931E-20
2.97475E-05 2.58943E-20
3.21749E-05 2.21304E-20
3.46974E-05 1.90265E-20
3.73152E-05 1.64485E-20
4.00281E-05 1.42931E-20
4.28362E-05 1.24795E-20
4.57395E-05 1.09445E-20
4.87380E-05 9.63827E-21
5.18317E-05 8.52098E-21
5.50205E-05 7.56079E-21
5.83045E-05 6.73202E-21
6.16838E-05 6.01373E-21
6.51582E-05 5.38876E-21
6.87277E-05 4.84294E-21
7.23925E-05 4.36453E-21
7.61524E-05 3.93190E-21
9.21439E-05 2.68165E-21
1.09658E-04 1.89037E-21
1.28695E-04 1.37010E-21
1.49255E-04 1.01668E-21
1.71338E-04 7.69936E-22
1.94942E-04 5.93456E-22
2.20070E-04 4.64576E-22
2.46720E-04 3.68709E-22
2.74892E-04 2.96216E-22
3.04586E-04 2.40597E-22
3.35803E-04 1.97355E-22
3.68542E-04 1.63337E-22
4.02802E-04 1.36284E-22
4.38585E-04 1.14557E-22
4.75889E-04 9.69511E-23
5.14715E-04 8.25646E-23
5.55063E-04 7.07195E-23
5.96931E-04 6.08974E-23
6.40321E-04 5.26995E-23
6.85233E-04 4.58155E-23
7.31665E-04 4.00018E-23
7.79618E-04 3.50660E-23
8.29092E-04 3.08546E-23
8.80086E-04 2.72446E-23
9.32601E-04 2.41365E-23
9.86636E-04 2.14495E-23
1.04219E-03 1.91175E-23
1.09927E-03 1.70861E-23
1.15786E-03 1.53105E-23
1.21797E-03 1.37534E-23
1.27961E-03 1.23835E-23
1.34276E-03 1.11749E-23
1.40743E-03 1.01054E-23
1.47362E-03 9.15667E-24
1.54133E-03 8.31279E-24
1.61056E-03 7.56039E-24
1.68131E-03 6.88798E-24
1.75357E-03 6.28573E-24
1.82735E-03 5.74518E-24
1.90265E-03 5.25901E-24
1.97947E-03 4.82090E-24
2.05780E-03 4.42538E-24
2.13765E-03 4.06765E-24
2.21902E-03 3.74356E-24
2.30190E-03 3.44946E-24
2.38630E-03 3.18215E-24
2.47222E-03 2.93882E-24
2.55965E-03 2.71699E-24
2.64859E-03 2.51448E-24
2.73905E-03 2.32936E-24
2.83103E-03 2.15992E-24
2.92452E-03 2.00462E-24
3.01952E-03 1.86212E-24
3.11604E-03 1.73121E-24
3.21407E-03 1.61080E-24
3.31362E-03 1.49994E-24
3.41468E-03 1.39777E-24
3.51725E-03 1.30349E-24
3.62133E-03 1.21643E-24
3.72692E-03 1.13594E-24
3.83403E-03 1.06147E-24
3.94265E-03 9.92507E-25
4.05278E-03 9.28582E-25
4.16442E-03 8.69280E-25
4.27757E-03 8.14224E-25
4.39223E-03 7.63068E-25
4.50840E-03 7.15500E-25
4.62608E-03 6.71237E-25
4.74527E-03 6.30020E-25
4.86597E-03 5.91612E-25
4.98817E-03 5.55798E-25
5.11188E-03 5.22381E-25
5.23711E-03 4.91182E-25
5.36383E-03 4.62035E-25
5.49207E-03 4.34789E-25
5.62181E-03 4.09305E-25
5.75306E-03 3.85458E-25
5.88581E-03 3.63128E-25
6.02007E-03 3.42209E-25
6.15583E-03 3.22602E-25
6.29310E-03 3.04216E-25
6.43187E-03 2.86965E-25
6.57214E-03 2.70773E-25
6.71392E-03 2.55568E-25
6.85720E-03 2.41283E-25
7.00198E-03 2.27857E-25
7.14827E-03 2.15234E-25
7.29605E-03 2.03359E-25
7.44534E-03 1.92186E-25
7.59612E-03 1.81668E-25
7.97965E-03 1.57971E-25
8.37255E-03 1.37536E-25
8.77480E-03 1.19878E-25
9.18641E-03 1.04592E-25
9.60736E-03 9.13370E-26
1.00376E-02 7.98247E-26
1.04773E-02 6.98118E-26
1.09262E-02 6.10913E-26
1.13844E-02 5.34873E-26
1.18520E-02 4.68496E-26
1.23288E-02 4.10496E-26
1.28150E-02 3.59770E-26
1.33104E-02 3.15371E-26
1.38150E-02 2.76481E-26
1.43290E-02 2.42396E-26
1.48521E-02 2.12505E-26
1.53845E-02 1.86282E-26
1.59262E-02 1.63267E-26
1.64770E-02 1.43061E-26
1.70371E-02 1.25319E-26
1.76063E-02 1.09736E-26
1.81848E-02 9.60494E-27
1.87724E-02 8.40283E-27
1.93692E-02 7.34705E-27
1.99751E-02 6.41992E-27
2.05901E-02 5.60593E-27
2.12143E-02 4.89147E-27
2.18476E-02 4.26459E-27
2.24900E-02 3.71477E-27
2.31415E-02 3.23277E-27
2.38021E-02 2.81047E-27
2.44717E-02 2.44070E-27
2.51504E-02 2.11716E-27
2.58382E-02 1.83428E-27
2.65349E-02 1.58717E-27
2.72407E-02 1.37151E-27
2.79555E-02 1.18347E-27
2.86793E-02 1.01971E-27
2.94120E-02 8.77266E-28
3.01537E-02 7.53512E-28
3.09043E-02 6.46148E-28
3.16639E-02 5.53141E-28
3.24324E-02 4.72699E-28
3.32098E-02 4.03243E-28
3.39961E-02 3.43382E-28
3.47912E-02 2.91890E-28
3.55952E-02 2.47690E-28
3.64081E-02 2.09834E-28
3.72297E-02 1.77489E-28
3.80602E-02 1.49923E-28
3.88995E-02 1.26494E-28
3.97476E-02 1.06640E-28
4.06044E-02 8.98682E-29
4.14700E-02 7.57478E-29
4.23443E-02 6.39026E-29
4.32273E-02 5.40045E-29
4.41190E-02 4.57679E-29
4.50194E-02 3.89442E-29
4.59284E-02 3.33182E-29
4.68461E-02 2.87032E-29
4.87074E-02 2.18835E-29
5.06030E-02 1.74466E-29
5.25328E-02 1.46292E-29
5.44967E-02 1.28780E-29
5.64946E-02 1.17985E-29
5.85262E-02 1.11156E-29
6.05914E-02 1.06426E-29
6.26901E-02 1.02577E-29
6.48222E-02 9.88587E-30
6.69873E-02 9.48523E-30
6.91854E-02 9.03651E-30
7.14163E-02 8.53550E-30
7.36799E-02 7.98743E-30
7.59760E-02 7.40283E-30
7.83043E-02 6.79478E-30
8.06647E-02 6.17686E-30
8.30571E-02 5.56198E-30
8.54812E-02 4.96157E-30
8.79369E-02 4.38516E-30
9.04240E-02 3.84029E-30
9.29422E-02 3.33248E-30
9.54915E-02 2.86539E-30
9.80716E-02 2.44105E-30
1.00682E-01 2.06004E-30
1.03323E-01 1.72178E-30
1.05995E-01 1.42479E-30
1.08696E-01 1.16686E-30
1.11427E-01 9.45278E-31
1.14188E-01 7.57027E-31
1.16978E-01 5.98909E-31
1.19797E-01 4.67675E-31
1.22645E-01 3.60125E-31
1.25522E-01 2.73183E-31
1.28428E-01 2.03948E-31
1.31361E-01 1.49741E-31
1.34323E-01 1.08116E-31
1.37313E-01 7.68844E-32
1.40330E-01 5.41056E-32
1.43375E-01 3.80882E-32
1.46447E-01 2.73754E-32
1.49545E-01 2.07303E-32
1.52671E-01 1.71181E-32
1.55823E-01 1.56857E-32
1.59001E-01 1.57423E-32
1.62205E-01 1.67391E-32
1.65435E-01 1.82498E-32
1.68690E-01 1.99527E-32
1.71970E-01 2.16134E-32
1.75276E-01 2.30698E-32
1.78606E-01 2.42183E-32
1.81961E-01 2.50014E-32
1.85340E-01 2.53977E-32
1.88743E-01 2.54124E-32
1.92169E-01 2.50702E-32
1.95619E-01 2.44087E-32
1.99092E-01 2.34734E-32
2.02589E-01 2.23138E-32
2.06107E-01 2.09802E-32
2.09649E-01 1.95212E-32
2.13212E-01 1.79824E-32
2.16797E-01 1.64048E-32
2.20404E-01 1.48244E-32
2.24032E-01 1.32719E-32
2.27680E-01 1.17725E-32
2.31350E-01 1.03461E-32
2.35040E-01 9.00791E-33
2.38751E-01 7.76839E-33
2.42481E-01 6.63416E-33
2.46231E-01 5.60832E-33
2.50000E-01 4.69108E-33
2.53788E-01 3.88018E-33
2.57595E-01 3.17147E-33
2.61421E-01 2.55932E-33
2.65264E-01 2.03703E-33
2.69126E-01 1.59718E-33
2.73005E-01 1.23197E-33
2.76901E-01 9.33453E-34
2.80814E-01 6.93759E-34
2.84744E-01 5.05268E-34
2.88691E-01 3.60737E-34
2.92653E-01 2.53401E-34
2.96632E-01 1.77039E-34
3.00625E-01 1.26012E-34
3.04634E-01 9.52818E-35
3.08658E-01 8.04075E-35
3.12697E-01 7.75341E-35
3.16749E-01 8.33622E-35
3.20816E-01 9.51151E-35
3.24896E-01 1.10496E-34
3.28990E-01 1.27647E-34
3.33097E-01 1.45097E-34
3.37216E-01 1.61723E-34
3.41348E-01 1.76697E-34
3.45492E-01 1.89448E-34
3.49647E-01 1.99621E-34
3.53814E-01 2.07036E-34
3.57992E-01 2.11654E-34
3.62181E-01 2.13552E-34
3.66381E-01 2.12887E-34
3.70590E-01 2.09882E-34
3.74810E-01 2.04798E-34
3.79039E-01 1.97920E-34
3.83277E-01 1.89546E-34
3.87524E-01 1.79972E-34
3.91780E-01 1.69481E-34
3.96044E-01 1.58345E-34
4.00316E-01 1.46810E-34
4.04596E-01 1.35101E-34
4.08882E-01 1.23415E-34
4.13176E-01 1.11921E-34
4.17476E-01 1.00763E-34
4.21783E-01 9.00575E-35
4.26095E-01 7.98972E-35
4.30413E-01 7.03521E-35
4.34737E-01 6.14700E-35
4.39065E-01 5.32817E-35
4.43398E-01 4.58005E-35
4.47736E-01 3.90261E-35
4.52077E-01 3.29465E-35
4.56422E-01 2.75393E-35
4.60770E-01 2.27751E-35
4.65122E-01 1.86178E-35
4.69476E-01 1.50274E-35
4.73832E-01 1.19610E-35
4.78190E-01 9.37370E-36
4.82550E-01 7.22020E-36
4.86912E-01 5.45554E-36
4.91274E-01 4.03598E-36
4.95637E-01 2.91934E-36
5.00000E-01 2.06566E-36
5.04363E-01 1.43744E-36
5.08726E-01 1.00015E-36
5.13088E-01 7.21735E-37
5.17450E-01 5.73656E-37
5.21810E-01 5.29925E-37
5.26168E-01 5.67681E-37
5.30524E-01 6.66848E-37
5.34878E-01 8.09986E-37
5.39230E-01 9.82209E-37
5.43578E-01 1.17094E-36
5.47923E-01 1.36577E-36
5.52264E-01 1.55824E-36
5.56602E-01 1.74156E-36
5.60935E-01 1.91062E-36
5.65263E-01 2.06156E-36
5.69587E-01 2.19179E-36
5.73905E-01 2.29969E-36
5.78217E-01 2.38442E-36
5.82524E-01 2.44601E-36
5.86824E-01 2.48495E-36
5.91118E-01 2.50224E-36
5.95404E-01 2.49917E-36
5.99684E-01 2.47741E-36
6.03956E-01 2.43866E-36
6.08220E-01 2.38486E-36
6.12476E-01 2.31791E-36
6.16723E-01 2.23977E-36
6.20961E-01 2.15231E-36
6.25190E-01 2.05736E-36
6.29410E-01 1.95672E-36
6.33619E-01 1.85189E-36
6.37819E-01 1.74442E-36
6.42008E-01 1.63568E-36
6.46186E-01 1.52680E-36
6.50353E-01 1.41890E-36
6.54508E-01 1.31290E-36
6.58652E-01 1.20959E-36
6.62784E-01 1.10967E-36
6.66903E-01 1.01359E-36
6.71010E-01 9.21917E-37
6.75104E-01 8.34834E-37
6.79184E-01 7.52651E-37
6.83251E-01 6.75539E-37
6.87303E-01 6.03517E-37
6.91342E-01 5.36651E-37
6.95366E-01 4.74850E-37
6.99375E-01 4.18007E-37
7.03368E-01 3.66010E-37
7.07347E-01 3.18713E-37
7.11309E-01 2.75889E-37
7.15256E-01 2.37298E-37
7.19186E-01 2.02745E-37
7.23099E-01 1.71953E-37
7.26995E-01 1.44683E-37
7.30874E-01 1.20703E-37
7.34736E-01 9.97285E-38
7.38579E-01 8.15423E-38
7.42405E-01 6.58822E-38
7.46212E-01 5.25280E-38
7.50000E-01 4.12519E-38
7.53769E-01 3.18446E-38
7.57519E-01 2.41018E-38
7.61249E-01 1.78277E-38
7.64960E-01 1.28518E-38
7.68650E-01 9.01280E-39
7.72320E-01 6.16735E-39
7.75968E-01 4.16304E-39
7.79596E-01 2.88685E-39
7.83203E-01 2.21397E-39
7.86788E-01 2.04893E-39
7.90351E-01 2.29644E-39
7.93893E-01 2.87587E-39
7.97411E-01 3.71258E-39
8.00908E-01 4.74370E-39
8.04381E-01 5.91337E-39
8.07831E-01 7.17240E-39
8.11257E-01 8.48118E-39
8.14660E-01 9.80045E-39
8.18039E-01 1.11043E-38
8.21394E-01 1.23692E-38
8.24724E-01 1.35745E-38
8.28030E-01 1.47042E-38
8.31310E-01 1.57475E-38
8.34565E-01 1.66944E-38
8.37795E-01 1.75422E-38
8.40999E-01 1.82842E-38
8.44177E-01 1.89193E-38
8.47329E-01 1.94504E-38
8.50455E-01 1.98798E-38
8.53553E-01 2.02054E-38
8.56625E-01 2.04357E-38
8.59670E-01 2.05736E-38
8.62687E-01 2.06304E-38
8.65677E-01 2.06056E-38
8.68639E-01 2.05014E-38
8.71572E-01 2.03256E-38
8.74478E-01 2.00921E-38
8.77355E-01 1.97996E-38
8.80203E-01 1.94559E-38
8.83022E-01 1.90675E-38
8.85812E-01 1.86343E-38
8.88573E-01 1.81748E-38
8.91304E-01 1.76819E-38
8.94005E-01 1.71682E-38
8.96677E-01 1.66317E-38
8.99318E-01 1.60812E-38
9.01928E-01 1.55294E-38
9.04508E-01 1.49571E-38
9.07058E-01 1.43903E-38
9.09576E-01 1.38147E-38
9.12063E-01 1.32459E-38
9.14519E-01 1.26809E-38
9.16943E-01 1.21225E-38
9.19335E-01 1.15682E-38
9.21696E-01 1.10313E-38
9.24024E-01 1.05007E-38
9.26320E-01 9.98603E-39
9.28584E-01 9.48481E-39
9.30815E-01 8.99792E-39
9.33013E-01 8.52531E-39
9.35178E-01 8.06878E-39
9.37310E-01 7.62839E-39
9.39409E-01 7.20342E-39
9.41474E-01 6.79467E-39
9.43505E-01 6.40390E-39
9.45503E-01 6.02747E-39
9.47467E-01 5.67086E-39
9.49397E-01 5.32565E-39
9.51293E-01 4.99798E-39
9.53154E-01 4.68618E-39
9.54981E-01 4.38770E-39
9.56773E-01 4.10465E-39
9.58530E-01 3.83563E-39
9.60252E-01 3.58266E-39
9.61940E-01 3.34068E-39
9.63592E-01 3.11562E-39
9.65209E-01 2.90284E-39
9.66790E-01 2.70033E-39
9.68336E-01 2.50708E-39
9.69846E-01 2.32903E-39
9.71321E-01 2.16299E-39
9.72759E-01 2.00275E-39
9.74162E-01 1.85245E-39
9.75528E-01 1.71403E-39
9.76858E-01 1.58041E-39
9.78152E-01 1.45719E-39
9.79410E-01 1.34070E-39
9.80631E-01 1.23333E-39
9.81815E-01 1.12884E-39
9.82963E-01 1.03569E-39
9.84074E-01 9.47974E-40
9.85148E-01 8.64673E-40
9.86185E-01 7.87828E-40
9.87185E-01 7.12638E-40
9.88148E-01 6.45901E-40
9.89074E-01 5.84617E-40
9.89962E-01 5.25887E-40
9.90814E-01 4.72683E-40
9.91627E-01 4.22604E-40
9.92404E-01 3.77080E-40
9.93143E-01 3.35216E-40
9.93844E-01 2.96782E-40
9.94508E-01 2.60255E-40
9.95134E-01 2.27881E-40
9.95722E-01 1.98035E-40
9.96273E-01 1.69889E-40
9.96786E-01 1.45110E-40
9.97261E-01 1.23194E-40
9.97698E-01 1.02511E-40
9.98097E-01 8.35401E-41
9.98459E-01 6.77390E-41
9.98782E-01 5.28707E-41
9.99067E-01 4.07499E-41
9.99315E-01 2.95817E-41
9.99524E-01 2.05590E-41
9.99695E-01 1.31569E-41
9.99829E-01 7.33441E-42
9.99924E-01 3.24008E-42
9.99981E-01 7.14816E-43
1.00000E+00 2.40491E-43
