 #
 # Subroutine ELSEPA. Elastic scattering of electrons and positrons
 #                    by neutral atoms and positive ions
 #
 # Projectile: positron
 # Kinetic energy = 1.50000E+07 eV = 5.51240E+05 a.u.
 #
 # WARNING: High-energy factorization with free-atom DF screening.
 #          Absorption, polarization and exchange corrections are
 #          switched off.
 #          Phase shifts are calculated for the bare nucleus.
 #          Scattering amplitudes are not evaluated.
 #
 # Element: Zn,  Z =  30,  atomic weight = 6.53900E+01 g/mol
 #
 # Nuclear model: Fermi distribution
 #                Average radius = 4.31076E-13 cm
 #                Skin thickness = 5.46000E-14 cm
 #
 # Number of electrons = 30
 #
 # Total elastic cross section = 1.97572E-18 cm**2 = 7.05542E-02 a0**2
 # 1st transport cross section = 6.16225E-24 cm**2 = 2.20058E-07 a0**2
 # 2nd transport cross section = 1.78859E-23 cm**2 = 6.38718E-07 a0**2
 #
 #
 # Differential cross section:                       MU=(1-COS(THETA))/2
 #
 #  THETA        MU          DCS          DCS        Sherman      error
 #  (deg)                 (cm**2/sr)   (a0**2/sr)    function
 #----------------------------------------------------------------------
0.00000E+00 3.33963E-12
7.61557E-13 3.33943E-12
1.18994E-12 3.33933E-12
1.71346E-12 3.33920E-12
2.33225E-12 3.33905E-12
3.04617E-12 3.33887E-12
3.85530E-12 3.33867E-12
4.75964E-12 3.33845E-12
5.75917E-12 3.33820E-12
6.85391E-12 3.33793E-12
8.04379E-12 3.33764E-12
9.32893E-12 3.33732E-12
1.07092E-11 3.33698E-12
1.21847E-11 3.33662E-12
1.37554E-11 3.33624E-12
1.54213E-11 3.33583E-12
1.71823E-11 3.33540E-12
1.90386E-11 3.33494E-12
2.09900E-11 3.33446E-12
2.30367E-11 3.33396E-12
2.51785E-11 3.33344E-12
2.74156E-11 3.33289E-12
2.97478E-11 3.33232E-12
3.21752E-11 3.33173E-12
3.46979E-11 3.33111E-12
3.73157E-11 3.33047E-12
4.00286E-11 3.32981E-12
4.28368E-11 3.32913E-12
4.57402E-11 3.32842E-12
4.87388E-11 3.32769E-12
5.18325E-11 3.32693E-12
5.50215E-11 3.32616E-12
5.83057E-11 3.32536E-12
6.16850E-11 3.32453E-12
6.51595E-11 3.32369E-12
6.87293E-11 3.32282E-12
7.23943E-11 3.32193E-12
7.61544E-11 3.32102E-12
1.18991E-10 3.31065E-12
1.71347E-10 3.29805E-12
2.33223E-10 3.28326E-12
3.04617E-10 3.26635E-12
3.85531E-10 3.24736E-12
4.75965E-10 3.22635E-12
5.75917E-10 3.20341E-12
6.85389E-10 3.17859E-12
8.04380E-10 3.15199E-12
9.32891E-10 3.12368E-12
1.07092E-09 3.09352E-12
1.21847E-09 3.06197E-12
1.37554E-09 3.02920E-12
1.54213E-09 2.99507E-12
1.71823E-09 2.95933E-12
1.90386E-09 2.92273E-12
2.09900E-09 2.88537E-12
2.30367E-09 2.84653E-12
2.51785E-09 2.80691E-12
2.74156E-09 2.76687E-12
2.97478E-09 2.72623E-12
3.21752E-09 2.68441E-12
3.46978E-09 2.64248E-12
3.73156E-09 2.60053E-12
4.00286E-09 2.55774E-12
4.28368E-09 2.51468E-12
4.57402E-09 2.47187E-12
4.87388E-09 2.42918E-12
5.18326E-09 2.38569E-12
5.50215E-09 2.34267E-12
5.83057E-09 2.30017E-12
6.16850E-09 2.25741E-12
6.51596E-09 2.21476E-12
6.87293E-09 2.17278E-12
7.23942E-09 2.13143E-12
7.61544E-09 2.08962E-12
1.18991E-08 1.70482E-12
1.71347E-08 1.38360E-12
2.33223E-08 1.12690E-12
3.04617E-08 9.25825E-13
3.85531E-08 7.68717E-13
4.75965E-08 6.45087E-13
5.75917E-08 5.46622E-13
6.85389E-08 4.67043E-13
8.04380E-08 4.01855E-13
9.32891E-08 3.47815E-13
1.07092E-07 2.99346E-13
1.21847E-07 2.60464E-13
1.37554E-07 2.29497E-13
1.54213E-07 2.02724E-13
1.71823E-07 1.77350E-13
1.90386E-07 1.56703E-13
2.09900E-07 1.39724E-13
2.30367E-07 1.23476E-13
2.51785E-07 1.09390E-13
2.74156E-07 9.76222E-14
2.97478E-07 8.73854E-14
3.21752E-07 7.76954E-14
3.46978E-07 6.94887E-14
3.73156E-07 6.24934E-14
4.00286E-07 5.60336E-14
4.28368E-07 5.02926E-14
4.57402E-07 4.53445E-14
4.87388E-07 4.10098E-14
5.18325E-07 3.69768E-14
5.50215E-07 3.34653E-14
5.83057E-07 3.03951E-14
6.16850E-07 2.76084E-14
6.51596E-07 2.51020E-14
6.87293E-07 2.28914E-14
7.23942E-07 2.09304E-14
7.61543E-07 1.91261E-14
1.18991E-06 8.58677E-15
1.71347E-06 4.43818E-15
2.33223E-06 2.54902E-15
3.04617E-06 1.57776E-15
3.85531E-06 1.03107E-15
4.75964E-06 7.01565E-16
5.75916E-06 4.92756E-16
6.85388E-06 3.55369E-16
8.04378E-06 2.62176E-16
9.32888E-06 1.97303E-16
1.07092E-05 1.51057E-16
1.21846E-05 1.17600E-16
1.37553E-05 9.28800E-17
1.54212E-05 7.42731E-17
1.71822E-05 6.01087E-17
1.90385E-05 4.91660E-17
2.09899E-05 4.06102E-17
2.30365E-05 3.38394E-17
2.51783E-05 2.84260E-17
2.74153E-05 2.40550E-17
2.97475E-05 2.04927E-17
3.21749E-05 1.75687E-17
3.46974E-05 1.51504E-17
3.73152E-05 1.31348E-17
4.00281E-05 1.14448E-17
4.28362E-05 1.00191E-17
4.57395E-05 8.80890E-18
4.87380E-05 7.77588E-18
5.18317E-05 6.89018E-18
5.50205E-05 6.12724E-18
5.83045E-05 5.46668E-18
6.16838E-05 4.89293E-18
6.51582E-05 4.39267E-18
6.87277E-05 3.95467E-18
7.23925E-05 3.56990E-18
7.61524E-05 3.23086E-18
9.21439E-05 2.21786E-18
1.09658E-04 1.57207E-18
1.28695E-04 1.14487E-18
1.49255E-04 8.53162E-19
1.71338E-04 6.48593E-19
1.94942E-04 5.01716E-19
2.20070E-04 3.94091E-19
2.46720E-04 3.13792E-19
2.74892E-04 2.52906E-19
3.04586E-04 2.06075E-19
3.35803E-04 1.69580E-19
3.68542E-04 1.40807E-19
4.02802E-04 1.17876E-19
4.38585E-04 9.94205E-20
4.75889E-04 8.44349E-20
5.14715E-04 7.21647E-20
5.55063E-04 6.20415E-20
5.96931E-04 5.36300E-20
6.40321E-04 4.65947E-20
6.85233E-04 4.06744E-20
7.31665E-04 3.56638E-20
7.79618E-04 3.14003E-20
8.29092E-04 2.77543E-20
8.80086E-04 2.46216E-20
9.32601E-04 2.19180E-20
9.86636E-04 1.95749E-20
1.04219E-03 1.75362E-20
1.09927E-03 1.57556E-20
1.15786E-03 1.41950E-20
1.21797E-03 1.28227E-20
1.27961E-03 1.16119E-20
1.34276E-03 1.05405E-20
1.40743E-03 9.58957E-21
1.47362E-03 8.74334E-21
1.54133E-03 7.98824E-21
1.61056E-03 7.31277E-21
1.68131E-03 6.70707E-21
1.75357E-03 6.16267E-21
1.82735E-03 5.67229E-21
1.90265E-03 5.22963E-21
1.97947E-03 4.82923E-21
2.05780E-03 4.46634E-21
2.13765E-03 4.13683E-21
2.21902E-03 3.83709E-21
2.30190E-03 3.56394E-21
2.38630E-03 3.31462E-21
2.47222E-03 3.08668E-21
2.55965E-03 2.87795E-21
2.64859E-03 2.68652E-21
2.73905E-03 2.51071E-21
2.83103E-03 2.34901E-21
2.92452E-03 2.20009E-21
3.01952E-03 2.06276E-21
3.11604E-03 1.93594E-21
3.21407E-03 1.81870E-21
3.31362E-03 1.71018E-21
3.41468E-03 1.60961E-21
3.51725E-03 1.51630E-21
3.62133E-03 1.42964E-21
3.72692E-03 1.34907E-21
3.83403E-03 1.27407E-21
3.94265E-03 1.20420E-21
4.05278E-03 1.13904E-21
4.16442E-03 1.07821E-21
4.27757E-03 1.02138E-21
4.39223E-03 9.68235E-22
4.50840E-03 9.18488E-22
4.62608E-03 8.71886E-22
4.74527E-03 8.28192E-22
4.86597E-03 7.87193E-22
4.98817E-03 7.48691E-22
5.11188E-03 7.12506E-22
5.23711E-03 6.78474E-22
5.36383E-03 6.46443E-22
5.49207E-03 6.16273E-22
5.62181E-03 5.87836E-22
5.75306E-03 5.61015E-22
5.88581E-03 5.35701E-22
6.02007E-03 5.11793E-22
6.15583E-03 4.89200E-22
6.29310E-03 4.67835E-22
6.43187E-03 4.47619E-22
6.57214E-03 4.28479E-22
6.71392E-03 4.10347E-22
6.85720E-03 3.93161E-22
7.00198E-03 3.76861E-22
7.14827E-03 3.61395E-22
7.29605E-03 3.46710E-22
7.44534E-03 3.32760E-22
7.59612E-03 3.19502E-22
7.97965E-03 2.89124E-22
8.37255E-03 2.62257E-22
8.77480E-03 2.38427E-22
9.18641E-03 2.17232E-22
9.60736E-03 1.98331E-22
1.00376E-02 1.81432E-22
1.04773E-02 1.66288E-22
1.09262E-02 1.52684E-22
1.13844E-02 1.40437E-22
1.18520E-02 1.29387E-22
1.23288E-02 1.19398E-22
1.28150E-02 1.10350E-22
1.33104E-02 1.02138E-22
1.38150E-02 9.46726E-23
1.43290E-02 8.78731E-23
1.48521E-02 8.16698E-23
1.53845E-02 7.60014E-23
1.59262E-02 7.08136E-23
1.64770E-02 6.60585E-23
1.70371E-02 6.16934E-23
1.76063E-02 5.76809E-23
1.81848E-02 5.39874E-23
1.87724E-02 5.05830E-23
1.93692E-02 4.74411E-23
1.99751E-02 4.45377E-23
2.05901E-02 4.18517E-23
2.12143E-02 3.93639E-23
2.18476E-02 3.70569E-23
2.24900E-02 3.49153E-23
2.31415E-02 3.29251E-23
2.38021E-02 3.10737E-23
2.44717E-02 2.93497E-23
2.51504E-02 2.77427E-23
2.58382E-02 2.62434E-23
2.65349E-02 2.48432E-23
2.72407E-02 2.35345E-23
2.79555E-02 2.23102E-23
2.86793E-02 2.11638E-23
2.94120E-02 2.00895E-23
3.01537E-02 1.90820E-23
3.09043E-02 1.81363E-23
3.16639E-02 1.72480E-23
3.24324E-02 1.64130E-23
3.32098E-02 1.56274E-23
3.39961E-02 1.48879E-23
3.47912E-02 1.41912E-23
3.55952E-02 1.35345E-23
3.64081E-02 1.29149E-23
3.72297E-02 1.23300E-23
3.80602E-02 1.17776E-23
3.88995E-02 1.12555E-23
3.97476E-02 1.07617E-23
4.06044E-02 1.02944E-23
4.14700E-02 9.85203E-24
4.23443E-02 9.43287E-24
4.32273E-02 9.03554E-24
4.41190E-02 8.65869E-24
4.50194E-02 8.30108E-24
4.59284E-02 7.96155E-24
4.68461E-02 7.63902E-24
4.87074E-02 7.04099E-24
5.06030E-02 6.49973E-24
5.25328E-02 6.00894E-24
5.44967E-02 5.56311E-24
5.64946E-02 5.15739E-24
5.85262E-02 4.78757E-24
6.05914E-02 4.44992E-24
6.26901E-02 4.14115E-24
6.48222E-02 3.85838E-24
6.69873E-02 3.59902E-24
6.91854E-02 3.36081E-24
7.14163E-02 3.14172E-24
7.36799E-02 2.93996E-24
7.59760E-02 2.75391E-24
7.83043E-02 2.58213E-24
8.06647E-02 2.42335E-24
8.30571E-02 2.27640E-24
8.54812E-02 2.14026E-24
8.79369E-02 2.01398E-24
9.04240E-02 1.89673E-24
9.29422E-02 1.78775E-24
9.54915E-02 1.68636E-24
9.80716E-02 1.59194E-24
1.00682E-01 1.50391E-24
1.03323E-01 1.42178E-24
1.05995E-01 1.34508E-24
1.08696E-01 1.27339E-24
1.11427E-01 1.20632E-24
1.14188E-01 1.14352E-24
1.16978E-01 1.08468E-24
1.19797E-01 1.02950E-24
1.22645E-01 9.77709E-25
1.25522E-01 9.29069E-25
1.28428E-01 8.83352E-25
1.31361E-01 8.40352E-25
1.34323E-01 7.99880E-25
1.37313E-01 7.61760E-25
1.40330E-01 7.25832E-25
1.43375E-01 6.91948E-25
1.46447E-01 6.59972E-25
1.49545E-01 6.29777E-25
1.52671E-01 6.01246E-25
1.55823E-01 5.74272E-25
1.59001E-01 5.48756E-25
1.62205E-01 5.24604E-25
1.65435E-01 5.01730E-25
1.68690E-01 4.80056E-25
1.71970E-01 4.59508E-25
1.75276E-01 4.40017E-25
1.78606E-01 4.21518E-25
1.81961E-01 4.03953E-25
1.85340E-01 3.87267E-25
1.88743E-01 3.71407E-25
1.92169E-01 3.56326E-25
1.95619E-01 3.41979E-25
1.99092E-01 3.28323E-25
2.02589E-01 3.15320E-25
2.06107E-01 3.02934E-25
2.09649E-01 2.91129E-25
2.13212E-01 2.79874E-25
2.16797E-01 2.69139E-25
2.20404E-01 2.58895E-25
2.24032E-01 2.49117E-25
2.27680E-01 2.39778E-25
2.31350E-01 2.30858E-25
2.35040E-01 2.22332E-25
2.38751E-01 2.14181E-25
2.42481E-01 2.06385E-25
2.46231E-01 1.98927E-25
2.50000E-01 1.91789E-25
2.53788E-01 1.84955E-25
2.57595E-01 1.78410E-25
2.61421E-01 1.72140E-25
2.65264E-01 1.66130E-25
2.69126E-01 1.60369E-25
2.73005E-01 1.54845E-25
2.76901E-01 1.49545E-25
2.80814E-01 1.44460E-25
2.84744E-01 1.39578E-25
2.88691E-01 1.34891E-25
2.92653E-01 1.30390E-25
2.96632E-01 1.26066E-25
3.00625E-01 1.21910E-25
3.04634E-01 1.17915E-25
3.08658E-01 1.14074E-25
3.12697E-01 1.10380E-25
3.16749E-01 1.06826E-25
3.20816E-01 1.03406E-25
3.24896E-01 1.00114E-25
3.28990E-01 9.69452E-26
3.33097E-01 9.38932E-26
3.37216E-01 9.09534E-26
3.41348E-01 8.81208E-26
3.45492E-01 8.53910E-26
3.49647E-01 8.27596E-26
3.53814E-01 8.02224E-26
3.57992E-01 7.77755E-26
3.62181E-01 7.54153E-26
3.66381E-01 7.31380E-26
3.70590E-01 7.09403E-26
3.74810E-01 6.88189E-26
3.79039E-01 6.67708E-26
3.83277E-01 6.47930E-26
3.87524E-01 6.28828E-26
3.91780E-01 6.10373E-26
3.96044E-01 5.92541E-26
4.00316E-01 5.75306E-26
4.04596E-01 5.58647E-26
4.08882E-01 5.42540E-26
4.13176E-01 5.26964E-26
4.17476E-01 5.11899E-26
4.21783E-01 4.97325E-26
4.26095E-01 4.83224E-26
4.30413E-01 4.69578E-26
4.34737E-01 4.56369E-26
4.39065E-01 4.43582E-26
4.43398E-01 4.31201E-26
4.47736E-01 4.19210E-26
4.52077E-01 4.07596E-26
4.56422E-01 3.96346E-26
4.60770E-01 3.85444E-26
4.65122E-01 3.74880E-26
4.69476E-01 3.64641E-26
4.73832E-01 3.54715E-26
4.78190E-01 3.45092E-26
4.82550E-01 3.35761E-26
4.86912E-01 3.26710E-26
4.91274E-01 3.17932E-26
4.95637E-01 3.09415E-26
5.00000E-01 3.01152E-26
5.04363E-01 2.93133E-26
5.08726E-01 2.85350E-26
5.13088E-01 2.77795E-26
5.17450E-01 2.70461E-26
5.21810E-01 2.63339E-26
5.26168E-01 2.56423E-26
5.30524E-01 2.49706E-26
5.34878E-01 2.43182E-26
5.39230E-01 2.36843E-26
5.43578E-01 2.30685E-26
5.47923E-01 2.24700E-26
5.52264E-01 2.18883E-26
5.56602E-01 2.13230E-26
5.60935E-01 2.07734E-26
5.65263E-01 2.02391E-26
5.69587E-01 1.97195E-26
5.73905E-01 1.92143E-26
5.78217E-01 1.87229E-26
5.82524E-01 1.82449E-26
5.86824E-01 1.77799E-26
5.91118E-01 1.73275E-26
5.95404E-01 1.68873E-26
5.99684E-01 1.64589E-26
6.03956E-01 1.60420E-26
6.08220E-01 1.56362E-26
6.12476E-01 1.52412E-26
6.16723E-01 1.48566E-26
6.20961E-01 1.44821E-26
6.25190E-01 1.41175E-26
6.29410E-01 1.37624E-26
6.33619E-01 1.34166E-26
6.37819E-01 1.30797E-26
6.42008E-01 1.27515E-26
6.46186E-01 1.24318E-26
6.50353E-01 1.21203E-26
6.54508E-01 1.18168E-26
6.58652E-01 1.15210E-26
6.62784E-01 1.12327E-26
6.66903E-01 1.09517E-26
6.71010E-01 1.06778E-26
6.75104E-01 1.04108E-26
6.79184E-01 1.01505E-26
6.83251E-01 9.89666E-27
6.87303E-01 9.64916E-27
6.91342E-01 9.40780E-27
6.95366E-01 9.17241E-27
6.99375E-01 8.94282E-27
7.03368E-01 8.71888E-27
7.07347E-01 8.50043E-27
7.11309E-01 8.28732E-27
7.15256E-01 8.07940E-27
7.19186E-01 7.87653E-27
7.23099E-01 7.67857E-27
7.26995E-01 7.48540E-27
7.30874E-01 7.29688E-27
7.34736E-01 7.11289E-27
7.38579E-01 6.93331E-27
7.42405E-01 6.75802E-27
7.46212E-01 6.58690E-27
7.50000E-01 6.41986E-27
7.53769E-01 6.25678E-27
7.57519E-01 6.09755E-27
7.61249E-01 5.94209E-27
7.64960E-01 5.79028E-27
7.68650E-01 5.64204E-27
7.72320E-01 5.49728E-27
7.75968E-01 5.35590E-27
7.79596E-01 5.21783E-27
7.83203E-01 5.08297E-27
7.86788E-01 4.95125E-27
7.90351E-01 4.82258E-27
7.93893E-01 4.69690E-27
7.97411E-01 4.57412E-27
8.00908E-01 4.45418E-27
8.04381E-01 4.33700E-27
8.07831E-01 4.22252E-27
8.11257E-01 4.11067E-27
8.14660E-01 4.00138E-27
8.18039E-01 3.89460E-27
8.21394E-01 3.79027E-27
8.24724E-01 3.68832E-27
8.28030E-01 3.58870E-27
8.31310E-01 3.49135E-27
8.34565E-01 3.39622E-27
8.37795E-01 3.30326E-27
8.40999E-01 3.21242E-27
8.44177E-01 3.12364E-27
8.47329E-01 3.03688E-27
8.50455E-01 2.95210E-27
8.53553E-01 2.86924E-27
8.56625E-01 2.78826E-27
8.59670E-01 2.70913E-27
8.62687E-01 2.63179E-27
8.65677E-01 2.55621E-27
8.68639E-01 2.48234E-27
8.71572E-01 2.41016E-27
8.74478E-01 2.33962E-27
8.77355E-01 2.27069E-27
8.80203E-01 2.20333E-27
8.83022E-01 2.13751E-27
8.85812E-01 2.07319E-27
8.88573E-01 2.01034E-27
8.91304E-01 1.94894E-27
8.94005E-01 1.88894E-27
8.96677E-01 1.83032E-27
8.99318E-01 1.77306E-27
9.01928E-01 1.71711E-27
9.04508E-01 1.66246E-27
9.07058E-01 1.60908E-27
9.09576E-01 1.55695E-27
9.12063E-01 1.50603E-27
9.14519E-01 1.45630E-27
9.16943E-01 1.40774E-27
9.19335E-01 1.36033E-27
9.21696E-01 1.31405E-27
9.24024E-01 1.26886E-27
9.26320E-01 1.22476E-27
9.28584E-01 1.18171E-27
9.30815E-01 1.13971E-27
9.33013E-01 1.09872E-27
9.35178E-01 1.05874E-27
9.37310E-01 1.01974E-27
9.39409E-01 9.81698E-28
9.41474E-01 9.44608E-28
9.43505E-01 9.08449E-28
9.45503E-01 8.73203E-28
9.47467E-01 8.38855E-28
9.49397E-01 8.05389E-28
9.51293E-01 7.72790E-28
9.53154E-01 7.41043E-28
9.54981E-01 7.10135E-28
9.56773E-01 6.80052E-28
9.58530E-01 6.50779E-28
9.60252E-01 6.22304E-28
9.61940E-01 5.94615E-28
9.63592E-01 5.67699E-28
9.65209E-01 5.41545E-28
9.66790E-01 5.16140E-28
9.68336E-01 4.91474E-28
9.69846E-01 4.67536E-28
9.71321E-01 4.44316E-28
9.72759E-01 4.21804E-28
9.74162E-01 3.99989E-28
9.75528E-01 3.78863E-28
9.76858E-01 3.58416E-28
9.78152E-01 3.38639E-28
9.79410E-01 3.19524E-28
9.80631E-01 3.01064E-28
9.81815E-01 2.83249E-28
9.82963E-01 2.66073E-28
9.84074E-01 2.49527E-28
9.85148E-01 2.33606E-28
9.86185E-01 2.18302E-28
9.87185E-01 2.03609E-28
9.88148E-01 1.89521E-28
9.89074E-01 1.76031E-28
9.89962E-01 1.63134E-28
9.90814E-01 1.50825E-28
9.91627E-01 1.39098E-28
9.92404E-01 1.27949E-28
9.93143E-01 1.17373E-28
9.93844E-01 1.07365E-28
9.94508E-01 9.79216E-29
9.95134E-01 8.90385E-29
9.95722E-01 8.07120E-29
9.96273E-01 7.29388E-29
9.96786E-01 6.57155E-29
9.97261E-01 5.90391E-29
9.97698E-01 5.29071E-29
9.98097E-01 4.73167E-29
9.98459E-01 4.22656E-29
9.98782E-01 3.77518E-29
9.99067E-01 3.37734E-29
9.99315E-01 3.03288E-29
9.99524E-01 2.74165E-29
9.99695E-01 2.50354E-29
9.99829E-01 2.31845E-29
9.99924E-01 2.18629E-29
9.99981E-01 2.10701E-29
1.00000E+00 2.08059E-29
