 #
 # Subroutine ELSEPA. Elastic scattering of electrons and positrons
 #                    by neutral atoms and positive ions
 #
 # Projectile: positron
 # Kinetic energy = 1.00000E+08 eV = 3.67493E+06 a.u.
 #
 # WARNING: High-energy factorization with free-atom DF screening.
 #          Absorption, polarization and exchange corrections are
 #          switched off.
 #          Phase shifts are calculated for the bare nucleus.
 #          Scattering amplitudes are not evaluated.
 #
 # Element: Zn,  Z =  30,  atomic weight = 6.53900E+01 g/mol
 #
 # Nuclear model: Fermi distribution
 #                Average radius = 4.31076E-13 cm
 #                Skin thickness = 5.46000E-14 cm
 #
 # Number of electrons = 30
 #
 # Total elastic cross section = 1.97363E-18 cm**2 = 7.04796E-02 a0**2
 # 1st transport cross section = 1.78259E-25 cm**2 = 6.36576E-09 a0**2
 # 2nd transport cross section = 5.29237E-25 cm**2 = 1.88994E-08 a0**2
 #
 #
 # Differential cross section:                       MU=(1-COS(THETA))/2
 #
 #  THETA        MU          DCS          DCS        Sherman      error
 #  (deg)                 (cm**2/sr)   (a0**2/sr)    function
 #----------------------------------------------------------------------
0.00000E+00 1.40232E-10
7.61557E-13 1.39902E-10
1.18994E-12 1.39718E-10
1.71346E-12 1.39493E-10
2.33225E-12 1.39228E-10
3.04617E-12 1.38924E-10
3.85530E-12 1.38580E-10
4.75964E-12 1.38198E-10
5.75917E-12 1.37777E-10
6.85391E-12 1.37319E-10
8.04379E-12 1.36825E-10
9.32893E-12 1.36294E-10
1.07092E-11 1.35727E-10
1.21847E-11 1.35126E-10
1.37554E-11 1.34491E-10
1.54213E-11 1.33823E-10
1.71823E-11 1.33124E-10
1.90386E-11 1.32392E-10
2.09900E-11 1.31631E-10
2.30367E-11 1.30840E-10
2.51785E-11 1.30014E-10
2.74156E-11 1.29164E-10
2.97478E-11 1.28292E-10
3.21752E-11 1.27399E-10
3.46979E-11 1.26486E-10
3.73157E-11 1.25538E-10
4.00286E-11 1.24566E-10
4.28368E-11 1.23578E-10
4.57402E-11 1.22575E-10
4.87388E-11 1.21559E-10
5.18325E-11 1.20525E-10
5.50215E-11 1.19457E-10
5.83057E-11 1.18380E-10
6.16850E-11 1.17295E-10
6.51595E-11 1.16203E-10
6.87293E-11 1.15106E-10
7.23943E-11 1.13978E-10
7.61544E-11 1.12839E-10
1.18991E-10 1.01241E-10
1.71347E-10 8.96775E-11
2.33223E-10 7.87481E-11
3.04617E-10 6.88481E-11
3.85531E-10 6.01215E-11
4.75965E-10 5.25645E-11
5.75917E-10 4.60889E-11
6.85389E-10 4.05669E-11
8.04380E-10 3.58564E-11
9.32891E-10 3.18386E-11
1.07092E-09 2.83981E-11
1.21847E-09 2.54371E-11
1.37554E-09 2.28741E-11
1.54213E-09 2.06418E-11
1.71823E-09 1.86832E-11
1.90386E-09 1.69585E-11
2.09900E-09 1.54319E-11
2.30367E-09 1.40514E-11
2.51785E-09 1.27350E-11
2.74156E-09 1.16101E-11
2.97478E-09 1.06433E-11
3.21752E-09 9.80746E-12
3.46978E-09 9.08104E-12
3.73156E-09 8.33532E-12
4.00286E-09 7.64215E-12
4.28368E-09 7.03647E-12
4.57402E-09 6.50485E-12
4.87388E-09 6.03622E-12
5.18326E-09 5.60131E-12
5.50215E-09 5.15786E-12
5.83057E-09 4.76525E-12
6.16850E-09 4.41640E-12
6.51596E-09 4.10537E-12
6.87293E-09 3.82715E-12
7.23942E-09 3.54706E-12
7.61544E-09 3.28827E-12
1.18991E-08 1.64904E-12
1.71347E-08 8.87179E-13
2.33223E-08 5.11971E-13
3.04617E-08 3.15811E-13
3.85531E-08 2.06191E-13
4.75965E-08 1.41050E-13
5.75917E-08 1.00186E-13
6.85389E-08 7.33083E-14
8.04380E-08 5.49516E-14
9.32891E-08 4.20204E-14
1.07092E-07 3.26680E-14
1.21847E-07 2.57578E-14
1.37554E-07 2.05622E-14
1.54213E-07 1.65973E-14
1.71823E-07 1.35307E-14
1.90386E-07 1.11321E-14
2.09900E-07 9.23564E-15
2.30367E-07 7.72092E-15
2.51785E-07 6.49959E-15
2.74156E-07 5.51409E-15
2.97478E-07 4.70318E-15
3.21752E-07 4.03768E-15
3.46978E-07 3.48424E-15
3.73156E-07 3.02281E-15
4.00286E-07 2.63507E-15
4.28368E-07 2.30759E-15
4.57402E-07 2.02955E-15
4.87388E-07 1.79208E-15
5.18325E-07 1.58857E-15
5.50215E-07 1.41307E-15
5.83057E-07 1.26137E-15
6.16850E-07 1.12941E-15
6.51596E-07 1.01443E-15
6.87293E-07 9.13677E-16
7.23942E-07 8.25227E-16
7.61543E-07 7.47227E-16
1.18991E-06 3.11373E-16
1.71347E-06 1.52044E-16
2.33223E-06 8.27941E-17
3.04617E-06 4.88280E-17
3.85531E-06 3.06128E-17
4.75964E-06 2.01452E-17
5.75916E-06 1.37888E-17
6.85388E-06 9.75083E-18
8.04378E-06 7.08730E-18
9.32888E-06 5.27354E-18
1.07092E-05 4.00420E-18
1.21846E-05 3.09456E-18
1.37553E-05 2.42901E-18
1.54212E-05 1.93305E-18
1.71822E-05 1.55739E-18
1.90385E-05 1.26856E-18
2.09899E-05 1.04387E-18
2.30365E-05 8.66739E-19
2.51783E-05 7.25581E-19
2.74153E-05 6.11979E-19
2.97475E-05 5.19738E-19
3.21749E-05 4.44232E-19
3.46974E-05 3.81955E-19
3.73152E-05 3.30226E-19
4.00281E-05 2.86970E-19
4.28362E-05 2.50571E-19
4.57395E-05 2.19762E-19
4.87380E-05 1.93541E-19
5.18317E-05 1.71111E-19
5.50205E-05 1.51835E-19
5.83045E-05 1.35196E-19
6.16838E-05 1.20774E-19
6.51582E-05 1.08226E-19
6.87277E-05 9.72661E-20
7.23925E-05 8.76595E-20
7.61524E-05 7.92118E-20
9.21439E-05 5.40791E-20
1.09658E-04 3.81652E-20
1.28695E-04 2.76963E-20
1.49255E-04 2.05809E-20
1.71338E-04 1.56099E-20
1.94942E-04 1.20522E-20
2.20070E-04 9.45209E-21
2.46720E-04 7.51642E-21
2.74892E-04 6.05143E-21
3.04586E-04 4.92635E-21
3.35803E-04 4.05075E-21
3.68542E-04 3.36116E-21
4.02802E-04 2.81211E-21
4.38585E-04 2.37061E-21
4.75889E-04 2.01236E-21
5.14715E-04 1.71921E-21
5.55063E-04 1.47749E-21
5.96931E-04 1.27673E-21
6.40321E-04 1.10890E-21
6.85233E-04 9.67716E-22
7.31665E-04 8.48267E-22
7.79618E-04 7.46662E-22
8.29092E-04 6.59797E-22
8.80086E-04 5.85181E-22
9.32601E-04 5.20801E-22
9.86636E-04 4.65018E-22
1.04219E-03 4.16492E-22
1.09927E-03 3.74118E-22
1.15786E-03 3.36987E-22
1.21797E-03 3.04339E-22
1.27961E-03 2.75540E-22
1.34276E-03 2.50060E-22
1.40743E-03 2.27450E-22
1.47362E-03 2.07332E-22
1.54133E-03 1.89383E-22
1.61056E-03 1.73329E-22
1.68131E-03 1.58935E-22
1.75357E-03 1.46000E-22
1.82735E-03 1.34350E-22
1.90265E-03 1.23835E-22
1.97947E-03 1.14325E-22
2.05780E-03 1.05708E-22
2.13765E-03 9.78838E-23
2.21902E-03 9.07677E-23
2.30190E-03 8.42840E-23
2.38630E-03 7.83665E-23
2.47222E-03 7.29571E-23
2.55965E-03 6.80044E-23
2.64859E-03 6.34629E-23
2.73905E-03 5.92925E-23
2.83103E-03 5.54574E-23
2.92452E-03 5.19258E-23
3.01952E-03 4.86695E-23
3.11604E-03 4.56632E-23
3.21407E-03 4.28841E-23
3.31362E-03 4.03121E-23
3.41468E-03 3.79289E-23
3.51725E-03 3.57182E-23
3.62133E-03 3.36653E-23
3.72692E-03 3.17569E-23
3.83403E-03 2.99809E-23
3.94265E-03 2.83265E-23
4.05278E-03 2.67840E-23
4.16442E-03 2.53443E-23
4.27757E-03 2.39994E-23
4.39223E-03 2.27418E-23
4.50840E-03 2.15650E-23
4.62608E-03 2.04627E-23
4.74527E-03 1.94294E-23
4.86597E-03 1.84601E-23
4.98817E-03 1.75499E-23
5.11188E-03 1.66947E-23
5.23711E-03 1.58905E-23
5.36383E-03 1.51338E-23
5.49207E-03 1.44211E-23
5.62181E-03 1.37496E-23
5.75306E-03 1.31163E-23
5.88581E-03 1.25188E-23
6.02007E-03 1.19545E-23
6.15583E-03 1.14214E-23
6.29310E-03 1.09174E-23
6.43187E-03 1.04406E-23
6.57214E-03 9.98928E-24
6.71392E-03 9.56184E-24
6.85720E-03 9.15677E-24
7.00198E-03 8.77270E-24
7.14827E-03 8.40833E-24
7.29605E-03 8.06247E-24
7.44534E-03 7.73401E-24
7.59612E-03 7.42191E-24
7.97965E-03 6.70710E-24
8.37255E-03 6.07533E-24
8.77480E-03 5.51535E-24
9.18641E-03 5.01763E-24
9.60736E-03 4.57409E-24
1.00376E-02 4.17784E-24
1.04773E-02 3.82299E-24
1.09262E-02 3.50448E-24
1.13844E-02 3.21796E-24
1.18520E-02 2.95968E-24
1.23288E-02 2.72638E-24
1.28150E-02 2.51523E-24
1.33104E-02 2.32378E-24
1.38150E-02 2.14988E-24
1.43290E-02 1.99164E-24
1.48521E-02 1.84742E-24
1.53845E-02 1.71576E-24
1.59262E-02 1.59538E-24
1.64770E-02 1.48516E-24
1.70371E-02 1.38408E-24
1.76063E-02 1.29127E-24
1.81848E-02 1.20592E-24
1.87724E-02 1.12735E-24
1.93692E-02 1.05491E-24
1.99751E-02 9.88060E-25
2.05901E-02 9.26281E-25
2.12143E-02 8.69129E-25
2.18476E-02 8.16197E-25
2.24900E-02 7.67121E-25
2.31415E-02 7.21574E-25
2.38021E-02 6.79258E-25
2.44717E-02 6.39906E-25
2.51504E-02 6.03275E-25
2.58382E-02 5.69146E-25
2.65349E-02 5.37318E-25
2.72407E-02 5.07610E-25
2.79555E-02 4.79859E-25
2.86793E-02 4.53912E-25
2.94120E-02 4.29634E-25
3.01537E-02 4.06899E-25
3.09043E-02 3.85593E-25
3.16639E-02 3.65610E-25
3.24324E-02 3.46856E-25
3.32098E-02 3.29242E-25
3.39961E-02 3.12687E-25
3.47912E-02 2.97117E-25
3.55952E-02 2.82464E-25
3.64081E-02 2.68665E-25
3.72297E-02 2.55662E-25
3.80602E-02 2.43402E-25
3.88995E-02 2.31835E-25
3.97476E-02 2.20916E-25
4.06044E-02 2.10602E-25
4.14700E-02 2.00854E-25
4.23443E-02 1.91637E-25
4.32273E-02 1.82917E-25
4.41190E-02 1.74662E-25
4.50194E-02 1.66845E-25
4.59284E-02 1.59437E-25
4.68461E-02 1.52415E-25
4.87074E-02 1.39434E-25
5.06030E-02 1.27735E-25
5.25328E-02 1.17173E-25
5.44967E-02 1.07620E-25
5.64946E-02 9.89671E-26
5.85262E-02 9.11158E-26
6.05914E-02 8.39816E-26
6.26901E-02 7.74893E-26
6.48222E-02 7.15730E-26
6.69873E-02 6.61743E-26
6.91854E-02 6.12415E-26
7.14163E-02 5.67287E-26
7.36799E-02 5.25951E-26
7.59760E-02 4.88045E-26
7.83043E-02 4.53245E-26
8.06647E-02 4.21262E-26
8.30571E-02 3.91836E-26
8.54812E-02 3.64736E-26
8.79369E-02 3.39753E-26
9.04240E-02 3.16701E-26
9.29422E-02 2.95409E-26
9.54915E-02 2.75727E-26
9.80716E-02 2.57517E-26
1.00682E-01 2.40655E-26
1.03323E-01 2.25028E-26
1.05995E-01 2.10535E-26
1.08696E-01 1.97083E-26
1.11427E-01 1.84588E-26
1.14188E-01 1.72974E-26
1.16978E-01 1.62172E-26
1.19797E-01 1.52117E-26
1.22645E-01 1.42752E-26
1.25522E-01 1.34025E-26
1.28428E-01 1.25886E-26
1.31361E-01 1.18292E-26
1.34323E-01 1.11202E-26
1.37313E-01 1.04578E-26
1.40330E-01 9.83878E-27
1.43375E-01 9.25986E-27
1.46447E-01 8.71821E-27
1.49545E-01 8.21115E-27
1.52671E-01 7.73627E-27
1.55823E-01 7.29129E-27
1.59001E-01 6.87416E-27
1.62205E-01 6.48294E-27
1.65435E-01 6.11588E-27
1.68690E-01 5.77133E-27
1.71970E-01 5.44777E-27
1.75276E-01 5.14382E-27
1.78606E-01 4.85816E-27
1.81961E-01 4.58960E-27
1.85340E-01 4.33702E-27
1.88743E-01 4.09938E-27
1.92169E-01 3.87571E-27
1.95619E-01 3.66514E-27
1.99092E-01 3.46682E-27
2.02589E-01 3.27997E-27
2.06107E-01 3.10389E-27
2.09649E-01 2.93790E-27
2.13212E-01 2.78137E-27
2.16797E-01 2.63372E-27
2.20404E-01 2.49441E-27
2.24032E-01 2.36293E-27
2.27680E-01 2.23881E-27
2.31350E-01 2.12160E-27
2.35040E-01 2.01089E-27
2.38751E-01 1.90629E-27
2.42481E-01 1.80745E-27
2.46231E-01 1.71402E-27
2.50000E-01 1.62568E-27
2.53788E-01 1.54214E-27
2.57595E-01 1.46313E-27
2.61421E-01 1.38837E-27
2.65264E-01 1.31763E-27
2.69126E-01 1.25068E-27
2.73005E-01 1.18730E-27
2.76901E-01 1.12728E-27
2.80814E-01 1.07044E-27
2.84744E-01 1.01661E-27
2.88691E-01 9.65604E-28
2.92653E-01 9.17274E-28
2.96632E-01 8.71471E-28
3.00625E-01 8.28055E-28
3.04634E-01 7.86895E-28
3.08658E-01 7.47867E-28
3.12697E-01 7.10854E-28
3.16749E-01 6.75748E-28
3.20816E-01 6.42446E-28
3.24896E-01 6.10849E-28
3.28990E-01 5.80866E-28
3.33097E-01 5.52410E-28
3.37216E-01 5.25401E-28
3.41348E-01 4.99761E-28
3.45492E-01 4.75417E-28
3.49647E-01 4.52302E-28
3.53814E-01 4.30349E-28
3.57992E-01 4.09499E-28
3.62181E-01 3.89693E-28
3.66381E-01 3.70877E-28
3.70590E-01 3.52999E-28
3.74810E-01 3.36011E-28
3.79039E-01 3.19866E-28
3.83277E-01 3.04521E-28
3.87524E-01 2.89935E-28
3.91780E-01 2.76069E-28
3.96044E-01 2.62886E-28
4.00316E-01 2.50351E-28
4.04596E-01 2.38431E-28
4.08882E-01 2.27094E-28
4.13176E-01 2.16312E-28
4.17476E-01 2.06056E-28
4.21783E-01 1.96300E-28
4.26095E-01 1.87018E-28
4.30413E-01 1.78186E-28
4.34737E-01 1.69783E-28
4.39065E-01 1.61786E-28
4.43398E-01 1.54176E-28
4.47736E-01 1.46932E-28
4.52077E-01 1.40037E-28
4.56422E-01 1.33474E-28
4.60770E-01 1.27226E-28
4.65122E-01 1.21278E-28
4.69476E-01 1.15614E-28
4.73832E-01 1.10220E-28
4.78190E-01 1.05085E-28
4.82550E-01 1.00194E-28
4.86912E-01 9.55356E-29
4.91274E-01 9.10989E-29
4.95637E-01 8.68728E-29
5.00000E-01 8.28470E-29
5.04363E-01 7.90118E-29
5.08726E-01 7.53580E-29
5.13088E-01 7.18767E-29
5.17450E-01 6.85596E-29
5.21810E-01 6.53988E-29
5.26168E-01 6.23868E-29
5.30524E-01 5.95162E-29
5.34878E-01 5.67805E-29
5.39230E-01 5.41730E-29
5.43578E-01 5.16876E-29
5.47923E-01 4.93185E-29
5.52264E-01 4.70600E-29
5.56602E-01 4.49070E-29
5.60935E-01 4.28544E-29
5.65263E-01 4.08974E-29
5.69587E-01 3.90314E-29
5.73905E-01 3.72522E-29
5.78217E-01 3.55555E-29
5.82524E-01 3.39375E-29
5.86824E-01 3.23945E-29
5.91118E-01 3.09229E-29
5.95404E-01 2.95194E-29
5.99684E-01 2.81807E-29
6.03956E-01 2.69037E-29
6.08220E-01 2.56856E-29
6.12476E-01 2.45236E-29
6.16723E-01 2.34151E-29
6.20961E-01 2.23575E-29
6.25190E-01 2.13485E-29
6.29410E-01 2.03857E-29
6.33619E-01 1.94671E-29
6.37819E-01 1.85906E-29
6.42008E-01 1.77541E-29
6.46186E-01 1.69559E-29
6.50353E-01 1.61941E-29
6.54508E-01 1.54671E-29
6.58652E-01 1.47732E-29
6.62784E-01 1.41109E-29
6.66903E-01 1.34787E-29
6.71010E-01 1.28753E-29
6.75104E-01 1.22993E-29
6.79184E-01 1.17494E-29
6.83251E-01 1.12244E-29
6.87303E-01 1.07232E-29
6.91342E-01 1.02447E-29
6.95366E-01 9.78784E-30
6.99375E-01 9.35161E-30
7.03368E-01 8.93506E-30
7.07347E-01 8.53730E-30
7.11309E-01 8.15745E-30
7.15256E-01 7.79471E-30
7.19186E-01 7.44828E-30
7.23099E-01 7.11741E-30
7.26995E-01 6.80140E-30
7.30874E-01 6.49957E-30
7.34736E-01 6.21126E-30
7.38579E-01 5.93587E-30
7.42405E-01 5.67280E-30
7.46212E-01 5.42148E-30
7.50000E-01 5.18139E-30
7.53769E-01 4.95202E-30
7.57519E-01 4.73288E-30
7.61249E-01 4.52349E-30
7.64960E-01 4.32343E-30
7.68650E-01 4.13227E-30
7.72320E-01 3.94960E-30
7.75968E-01 3.77504E-30
7.79596E-01 3.60822E-30
7.83203E-01 3.44880E-30
7.86788E-01 3.29644E-30
7.90351E-01 3.15082E-30
7.93893E-01 3.01163E-30
7.97411E-01 2.87860E-30
8.00908E-01 2.75144E-30
8.04381E-01 2.62988E-30
8.07831E-01 2.51368E-30
8.11257E-01 2.40260E-30
8.14660E-01 2.29640E-30
8.18039E-01 2.19487E-30
8.21394E-01 2.09780E-30
8.24724E-01 2.00499E-30
8.28030E-01 1.91624E-30
8.31310E-01 1.83138E-30
8.34565E-01 1.75024E-30
8.37795E-01 1.67265E-30
8.40999E-01 1.59844E-30
8.44177E-01 1.52748E-30
8.47329E-01 1.45961E-30
8.50455E-01 1.39470E-30
8.53553E-01 1.33261E-30
8.56625E-01 1.27323E-30
8.59670E-01 1.21643E-30
8.62687E-01 1.16209E-30
8.65677E-01 1.11012E-30
8.68639E-01 1.06040E-30
8.71572E-01 1.01284E-30
8.74478E-01 9.67332E-31
8.77355E-01 9.23797E-31
8.80203E-01 8.82145E-31
8.83022E-01 8.42293E-31
8.85812E-01 8.04162E-31
8.88573E-01 7.67677E-31
8.91304E-01 7.32766E-31
8.94005E-01 6.99359E-31
8.96677E-01 6.67391E-31
8.99318E-01 6.36799E-31
9.01928E-01 6.07523E-31
9.04508E-01 5.79507E-31
9.07058E-01 5.52694E-31
9.09576E-01 5.27033E-31
9.12063E-01 5.02474E-31
9.14519E-01 4.78969E-31
9.16943E-01 4.56473E-31
9.19335E-01 4.34941E-31
9.21696E-01 4.14333E-31
9.24024E-01 3.94608E-31
9.26320E-01 3.75729E-31
9.28584E-01 3.57658E-31
9.30815E-01 3.40363E-31
9.33013E-01 3.23808E-31
9.35178E-01 3.07963E-31
9.37310E-01 2.92798E-31
9.39409E-01 2.78283E-31
9.41474E-01 2.64391E-31
9.43505E-01 2.51096E-31
9.45503E-01 2.38372E-31
9.47467E-01 2.26195E-31
9.49397E-01 2.14542E-31
9.51293E-01 2.03392E-31
9.53154E-01 1.92722E-31
9.54981E-01 1.82514E-31
9.56773E-01 1.72748E-31
9.58530E-01 1.63406E-31
9.60252E-01 1.54470E-31
9.61940E-01 1.45924E-31
9.63592E-01 1.37751E-31
9.65209E-01 1.29937E-31
9.66790E-01 1.22467E-31
9.68336E-01 1.15326E-31
9.69846E-01 1.08503E-31
9.71321E-01 1.01984E-31
9.72759E-01 9.57572E-32
9.74162E-01 8.98112E-32
9.75528E-01 8.41349E-32
9.76858E-01 7.87182E-32
9.78152E-01 7.35508E-32
9.79410E-01 6.86235E-32
9.80631E-01 6.39271E-32
9.81815E-01 5.94533E-32
9.82963E-01 5.51935E-32
9.84074E-01 5.11403E-32
9.85148E-01 4.72862E-32
9.86185E-01 4.36243E-32
9.87185E-01 4.01480E-32
9.88148E-01 3.68507E-32
9.89074E-01 3.37266E-32
9.89962E-01 3.07703E-32
9.90814E-01 2.79761E-32
9.91627E-01 2.53391E-32
9.92404E-01 2.28546E-32
9.93143E-01 2.05181E-32
9.93844E-01 1.83253E-32
9.94508E-01 1.62725E-32
9.95134E-01 1.43558E-32
9.95722E-01 1.25718E-32
9.96273E-01 1.09174E-32
9.96786E-01 9.38960E-33
9.97261E-01 7.98559E-33
9.97698E-01 6.70298E-33
9.98097E-01 5.53943E-33
9.98459E-01 4.49282E-33
9.98782E-01 3.56135E-33
9.99067E-01 2.74329E-33
9.99315E-01 2.03725E-33
9.99524E-01 1.44195E-33
9.99695E-01 9.56319E-34
9.99829E-01 5.79504E-34
9.99924E-01 3.10826E-34
9.99981E-01 1.49813E-34
1.00000E+00 9.61394E-35
