 #
 # Subroutine ELSEPA. Elastic scattering of electrons and positrons
 #                    by neutral atoms and positive ions
 #
 # Projectile: positron
 # Kinetic energy = 2.50000E+07 eV = 9.18733E+05 a.u.
 #
 # WARNING: High-energy factorization with free-atom DF screening.
 #          Absorption, polarization and exchange corrections are
 #          switched off.
 #          Phase shifts are calculated for the bare nucleus.
 #          Scattering amplitudes are not evaluated.
 #
 # Element: Zn,  Z =  30,  atomic weight = 6.53900E+01 g/mol
 #
 # Nuclear model: Fermi distribution
 #                Average radius = 4.31076E-13 cm
 #                Skin thickness = 5.46000E-14 cm
 #
 # Number of electrons = 30
 #
 # Total elastic cross section = 1.97439E-18 cm**2 = 7.05067E-02 a0**2
 # 1st transport cross section = 2.44427E-24 cm**2 = 8.72863E-08 a0**2
 # 2nd transport cross section = 7.12082E-24 cm**2 = 2.54289E-07 a0**2
 #
 #
 # Differential cross section:                       MU=(1-COS(THETA))/2
 #
 #  THETA        MU          DCS          DCS        Sherman      error
 #  (deg)                 (cm**2/sr)   (a0**2/sr)    function
 #----------------------------------------------------------------------
0.00000E+00 9.03386E-12
7.61557E-13 9.03247E-12
1.18994E-12 9.03170E-12
1.71346E-12 9.03075E-12
2.33225E-12 9.02964E-12
3.04617E-12 9.02835E-12
3.85530E-12 9.02690E-12
4.75964E-12 9.02528E-12
5.75917E-12 9.02348E-12
6.85391E-12 9.02152E-12
8.04379E-12 9.01938E-12
9.32893E-12 9.01708E-12
1.07092E-11 9.01461E-12
1.21847E-11 9.01197E-12
1.37554E-11 9.00916E-12
1.54213E-11 9.00619E-12
1.71823E-11 9.00304E-12
1.90386E-11 8.99973E-12
2.09900E-11 8.99625E-12
2.30367E-11 8.99260E-12
2.51785E-11 8.98879E-12
2.74156E-11 8.98481E-12
2.97478E-11 8.98067E-12
3.21752E-11 8.97636E-12
3.46979E-11 8.97188E-12
3.73157E-11 8.96724E-12
4.00286E-11 8.96244E-12
4.28368E-11 8.95747E-12
4.57402E-11 8.95234E-12
4.87388E-11 8.94704E-12
5.18325E-11 8.94158E-12
5.50215E-11 8.93597E-12
5.83057E-11 8.93019E-12
6.16850E-11 8.92425E-12
6.51595E-11 8.91814E-12
6.87293E-11 8.91188E-12
7.23943E-11 8.90546E-12
7.61544E-11 8.89889E-12
1.18991E-10 8.82453E-12
1.71347E-10 8.73508E-12
2.33223E-10 8.63134E-12
3.04617E-10 8.51423E-12
3.85531E-10 8.38423E-12
4.75965E-10 8.24311E-12
5.75917E-10 8.09253E-12
6.85389E-10 7.93184E-12
8.04380E-10 7.76495E-12
9.32891E-10 7.58929E-12
1.07092E-09 7.41055E-12
1.21847E-09 7.22480E-12
1.37554E-09 7.03812E-12
1.54213E-09 6.84724E-12
1.71823E-09 6.65666E-12
1.90386E-09 6.46460E-12
2.09900E-09 6.27366E-12
2.30367E-09 6.08378E-12
2.51785E-09 5.89550E-12
2.74156E-09 5.71046E-12
2.97478E-09 5.52727E-12
3.21752E-09 5.34911E-12
3.46978E-09 5.17288E-12
3.73156E-09 5.00305E-12
4.00286E-09 4.83510E-12
4.28368E-09 4.67400E-12
4.57402E-09 4.51575E-12
4.87388E-09 4.36387E-12
5.18326E-09 4.21582E-12
5.50215E-09 4.07346E-12
5.83057E-09 3.93563E-12
6.16850E-09 3.80283E-12
6.51596E-09 3.67499E-12
6.87293E-09 3.55155E-12
7.23942E-09 3.43334E-12
7.61544E-09 3.31893E-12
1.18991E-08 2.39911E-12
1.71347E-08 1.78392E-12
2.33223E-08 1.36177E-12
3.04617E-08 1.06159E-12
3.85531E-08 8.33095E-13
4.75965E-08 6.64404E-13
5.75917E-08 5.41040E-13
6.85389E-08 4.37227E-13
8.04380E-08 3.61117E-13
9.32891E-08 2.94771E-13
1.07092E-07 2.45419E-13
1.21847E-07 2.02597E-13
1.37554E-07 1.69605E-13
1.54213E-07 1.41771E-13
1.71823E-07 1.19503E-13
1.90386E-07 1.01009E-13
2.09900E-07 8.58319E-14
2.30367E-07 7.32983E-14
2.51785E-07 6.28357E-14
2.74156E-07 5.41817E-14
2.97478E-07 4.68723E-14
3.21752E-07 4.07891E-14
3.46978E-07 3.56056E-14
3.73156E-07 3.12542E-14
4.00286E-07 2.75187E-14
4.28368E-07 2.43486E-14
4.57402E-07 2.16155E-14
4.87388E-07 1.92686E-14
5.18325E-07 1.72340E-14
5.50215E-07 1.54691E-14
5.83057E-07 1.39290E-14
6.16850E-07 1.25811E-14
6.51596E-07 1.13972E-14
6.87293E-07 1.03524E-14
7.23942E-07 9.42907E-15
7.61543E-07 8.60782E-15
1.18991E-06 3.86181E-15
1.71347E-06 1.99124E-15
2.33223E-06 1.12286E-15
3.04617E-06 6.76838E-16
3.85531E-06 4.29891E-16
4.75964E-06 2.85587E-16
5.75916E-06 1.96875E-16
6.85388E-06 1.40057E-16
8.04378E-06 1.02339E-16
9.32888E-06 7.65285E-17
1.07092E-05 5.83853E-17
1.21846E-05 4.53279E-17
1.37553E-05 3.57339E-17
1.54212E-05 2.85548E-17
1.71822E-05 2.30939E-17
1.90385E-05 1.88779E-17
2.09899E-05 1.55856E-17
2.30365E-05 1.29807E-17
2.51783E-05 1.08974E-17
2.74153E-05 9.21522E-18
2.97475E-05 7.84492E-18
3.21749E-05 6.71973E-18
3.46974E-05 5.78918E-18
3.73152E-05 5.01424E-18
4.00281E-05 4.36470E-18
4.28362E-05 3.81691E-18
4.57395E-05 3.35228E-18
4.87380E-05 2.95603E-18
5.18317E-05 2.61649E-18
5.50205E-05 2.32421E-18
5.83045E-05 2.07154E-18
6.16838E-05 1.85224E-18
6.51582E-05 1.66117E-18
6.87277E-05 1.49407E-18
7.23925E-05 1.34744E-18
7.61524E-05 1.21835E-18
9.21439E-05 8.33559E-19
1.09658E-04 5.89193E-19
1.28695E-04 4.28082E-19
1.49255E-04 3.18395E-19
1.71338E-04 2.41665E-19
1.94942E-04 1.86692E-19
2.20070E-04 1.46484E-19
2.46720E-04 1.16531E-19
2.74892E-04 9.38488E-20
3.04586E-04 7.64220E-20
3.35803E-04 6.28542E-20
3.68542E-04 5.21654E-20
4.02802E-04 4.36528E-20
4.38585E-04 3.68061E-20
4.75889E-04 3.12492E-20
5.14715E-04 2.67014E-20
5.55063E-04 2.29507E-20
5.96931E-04 1.98352E-20
6.40321E-04 1.72303E-20
6.85233E-04 1.50388E-20
7.31665E-04 1.31844E-20
7.79618E-04 1.16069E-20
8.29092E-04 1.02581E-20
8.80086E-04 9.09938E-21
9.32601E-04 8.09952E-21
9.86636E-04 7.23308E-21
1.04219E-03 6.47930E-21
1.09927E-03 5.82105E-21
1.15786E-03 5.24418E-21
1.21797E-03 4.73691E-21
1.27961E-03 4.28942E-21
1.34276E-03 3.89345E-21
1.40743E-03 3.54206E-21
1.47362E-03 3.22936E-21
1.54133E-03 2.95035E-21
1.61056E-03 2.70078E-21
1.68131E-03 2.47700E-21
1.75357E-03 2.27587E-21
1.82735E-03 2.09472E-21
1.90265E-03 1.93119E-21
1.97947E-03 1.78328E-21
2.05780E-03 1.64924E-21
2.13765E-03 1.52752E-21
2.21902E-03 1.41681E-21
2.30190E-03 1.31593E-21
2.38630E-03 1.22384E-21
2.47222E-03 1.13965E-21
2.55965E-03 1.06256E-21
2.64859E-03 9.91868E-22
2.73905E-03 9.26940E-22
2.83103E-03 8.67226E-22
2.92452E-03 8.12230E-22
3.01952E-03 7.61515E-22
3.11604E-03 7.14686E-22
3.21407E-03 6.71392E-22
3.31362E-03 6.31319E-22
3.41468E-03 5.94182E-22
3.51725E-03 5.59729E-22
3.62133E-03 5.27729E-22
3.72692E-03 4.97978E-22
3.83403E-03 4.70287E-22
3.94265E-03 4.44488E-22
4.05278E-03 4.20430E-22
4.16442E-03 3.97972E-22
4.27757E-03 3.76989E-22
4.39223E-03 3.57366E-22
4.50840E-03 3.39000E-22
4.62608E-03 3.21794E-22
4.74527E-03 3.05662E-22
4.86597E-03 2.90526E-22
4.98817E-03 2.76311E-22
5.11188E-03 2.62952E-22
5.23711E-03 2.50388E-22
5.36383E-03 2.38563E-22
5.49207E-03 2.27425E-22
5.62181E-03 2.16928E-22
5.75306E-03 2.07026E-22
5.88581E-03 1.97681E-22
6.02007E-03 1.88856E-22
6.15583E-03 1.80515E-22
6.29310E-03 1.72629E-22
6.43187E-03 1.65166E-22
6.57214E-03 1.58101E-22
6.71392E-03 1.51408E-22
6.85720E-03 1.45064E-22
7.00198E-03 1.39047E-22
7.14827E-03 1.33338E-22
7.29605E-03 1.27917E-22
7.44534E-03 1.22768E-22
7.59612E-03 1.17875E-22
7.97965E-03 1.06662E-22
8.37255E-03 9.67456E-23
8.77480E-03 8.79504E-23
9.18641E-03 8.01280E-23
9.60736E-03 7.31521E-23
1.00376E-02 6.69157E-23
1.04773E-02 6.13268E-23
1.09262E-02 5.63064E-23
1.13844E-02 5.17869E-23
1.18520E-02 4.77095E-23
1.23288E-02 4.40235E-23
1.28150E-02 4.06848E-23
1.33104E-02 3.76549E-23
1.38150E-02 3.49003E-23
1.43290E-02 3.23916E-23
1.48521E-02 3.01029E-23
1.53845E-02 2.80118E-23
1.59262E-02 2.60979E-23
1.64770E-02 2.43436E-23
1.70371E-02 2.27334E-23
1.76063E-02 2.12532E-23
1.81848E-02 1.98908E-23
1.87724E-02 1.86351E-23
1.93692E-02 1.74762E-23
1.99751E-02 1.64054E-23
2.05901E-02 1.54147E-23
2.12143E-02 1.44972E-23
2.18476E-02 1.36464E-23
2.24900E-02 1.28567E-23
2.31415E-02 1.21228E-23
2.38021E-02 1.14401E-23
2.44717E-02 1.08044E-23
2.51504E-02 1.02119E-23
2.58382E-02 9.65918E-24
2.65349E-02 9.14299E-24
2.72407E-02 8.66053E-24
2.79555E-02 8.20919E-24
2.86793E-02 7.78662E-24
2.94120E-02 7.39064E-24
3.01537E-02 7.01928E-24
3.09043E-02 6.67074E-24
3.16639E-02 6.34336E-24
3.24324E-02 6.03562E-24
3.32098E-02 5.74614E-24
3.39961E-02 5.47364E-24
3.47912E-02 5.21693E-24
3.55952E-02 4.97494E-24
3.64081E-02 4.74668E-24
3.72297E-02 4.53122E-24
3.80602E-02 4.32772E-24
3.88995E-02 4.13539E-24
3.97476E-02 3.95350E-24
4.06044E-02 3.78140E-24
4.14700E-02 3.61845E-24
4.23443E-02 3.46409E-24
4.32273E-02 3.31777E-24
4.41190E-02 3.17900E-24
4.50194E-02 3.04733E-24
4.59284E-02 2.92232E-24
4.68461E-02 2.80358E-24
4.87074E-02 2.58343E-24
5.06030E-02 2.38421E-24
5.25328E-02 2.20359E-24
5.44967E-02 2.03954E-24
5.64946E-02 1.89027E-24
5.85262E-02 1.75422E-24
6.05914E-02 1.63003E-24
6.26901E-02 1.51648E-24
6.48222E-02 1.41251E-24
6.69873E-02 1.31716E-24
6.91854E-02 1.22960E-24
7.14163E-02 1.14908E-24
7.36799E-02 1.07494E-24
7.59760E-02 1.00658E-24
7.83043E-02 9.43486E-25
8.06647E-02 8.85171E-25
8.30571E-02 8.31213E-25
8.54812E-02 7.81230E-25
8.79369E-02 7.34880E-25
9.04240E-02 6.91851E-25
9.29422E-02 6.51866E-25
9.54915E-02 6.14671E-25
9.80716E-02 5.80038E-25
1.00682E-01 5.47760E-25
1.03323E-01 5.17650E-25
1.05995E-01 4.89536E-25
1.08696E-01 4.63263E-25
1.11427E-01 4.38690E-25
1.14188E-01 4.15688E-25
1.16978E-01 3.94139E-25
1.19797E-01 3.73935E-25
1.22645E-01 3.54978E-25
1.25522E-01 3.37178E-25
1.28428E-01 3.20452E-25
1.31361E-01 3.04723E-25
1.34323E-01 2.89923E-25
1.37313E-01 2.75986E-25
1.40330E-01 2.62854E-25
1.43375E-01 2.50472E-25
1.46447E-01 2.38791E-25
1.49545E-01 2.27763E-25
1.52671E-01 2.17345E-25
1.55823E-01 2.07499E-25
1.59001E-01 1.98187E-25
1.62205E-01 1.89376E-25
1.65435E-01 1.81034E-25
1.68690E-01 1.73131E-25
1.71970E-01 1.65641E-25
1.75276E-01 1.58538E-25
1.78606E-01 1.51799E-25
1.81961E-01 1.45402E-25
1.85340E-01 1.39327E-25
1.88743E-01 1.33554E-25
1.92169E-01 1.28067E-25
1.95619E-01 1.22848E-25
1.99092E-01 1.17882E-25
2.02589E-01 1.13156E-25
2.06107E-01 1.08655E-25
2.09649E-01 1.04366E-25
2.13212E-01 1.00279E-25
2.16797E-01 9.63815E-26
2.20404E-01 9.26639E-26
2.24032E-01 8.91164E-26
2.27680E-01 8.57298E-26
2.31350E-01 8.24956E-26
2.35040E-01 7.94058E-26
2.38751E-01 7.64529E-26
2.42481E-01 7.36297E-26
2.46231E-01 7.09297E-26
2.50000E-01 6.83465E-26
2.53788E-01 6.58743E-26
2.57595E-01 6.35075E-26
2.61421E-01 6.12408E-26
2.65264E-01 5.90693E-26
2.69126E-01 5.69884E-26
2.73005E-01 5.49936E-26
2.76901E-01 5.30808E-26
2.80814E-01 5.12460E-26
2.84744E-01 4.94856E-26
2.88691E-01 4.77960E-26
2.92653E-01 4.61740E-26
2.96632E-01 4.46163E-26
3.00625E-01 4.31200E-26
3.04634E-01 4.16822E-26
3.08658E-01 4.03004E-26
3.12697E-01 3.89720E-26
3.16749E-01 3.76946E-26
3.20816E-01 3.64658E-26
3.24896E-01 3.52836E-26
3.28990E-01 3.41459E-26
3.33097E-01 3.30508E-26
3.37216E-01 3.19964E-26
3.41348E-01 3.09809E-26
3.45492E-01 3.00027E-26
3.49647E-01 2.90601E-26
3.53814E-01 2.81518E-26
3.57992E-01 2.72762E-26
3.62181E-01 2.64320E-26
3.66381E-01 2.56178E-26
3.70590E-01 2.48324E-26
3.74810E-01 2.40747E-26
3.79039E-01 2.33436E-26
3.83277E-01 2.26378E-26
3.87524E-01 2.19565E-26
3.91780E-01 2.12986E-26
3.96044E-01 2.06632E-26
4.00316E-01 2.00494E-26
4.04596E-01 1.94564E-26
4.08882E-01 1.88834E-26
4.13176E-01 1.83295E-26
4.17476E-01 1.77941E-26
4.21783E-01 1.72763E-26
4.26095E-01 1.67757E-26
4.30413E-01 1.62914E-26
4.34737E-01 1.58229E-26
4.39065E-01 1.53696E-26
4.43398E-01 1.49310E-26
4.47736E-01 1.45064E-26
4.52077E-01 1.40953E-26
4.56422E-01 1.36973E-26
4.60770E-01 1.33119E-26
4.65122E-01 1.29386E-26
4.69476E-01 1.25770E-26
4.73832E-01 1.22267E-26
4.78190E-01 1.18872E-26
4.82550E-01 1.15582E-26
4.86912E-01 1.12393E-26
4.91274E-01 1.09302E-26
4.95637E-01 1.06304E-26
5.00000E-01 1.03397E-26
5.04363E-01 1.00578E-26
5.08726E-01 9.78435E-27
5.13088E-01 9.51905E-27
5.17450E-01 9.26165E-27
5.21810E-01 9.01186E-27
5.26168E-01 8.76943E-27
5.30524E-01 8.53411E-27
5.34878E-01 8.30567E-27
5.39230E-01 8.08388E-27
5.43578E-01 7.86850E-27
5.47923E-01 7.65934E-27
5.52264E-01 7.45619E-27
5.56602E-01 7.25884E-27
5.60935E-01 7.06712E-27
5.65263E-01 6.88083E-27
5.69587E-01 6.69981E-27
5.73905E-01 6.52387E-27
5.78217E-01 6.35287E-27
5.82524E-01 6.18664E-27
5.86824E-01 6.02504E-27
5.91118E-01 5.86791E-27
5.95404E-01 5.71511E-27
5.99684E-01 5.56651E-27
6.03956E-01 5.42198E-27
6.08220E-01 5.28140E-27
6.12476E-01 5.14463E-27
6.16723E-01 5.01156E-27
6.20961E-01 4.88209E-27
6.25190E-01 4.75609E-27
6.29410E-01 4.63347E-27
6.33619E-01 4.51412E-27
6.37819E-01 4.39795E-27
6.42008E-01 4.28485E-27
6.46186E-01 4.17474E-27
6.50353E-01 4.06752E-27
6.54508E-01 3.96312E-27
6.58652E-01 3.86145E-27
6.62784E-01 3.76243E-27
6.66903E-01 3.66598E-27
6.71010E-01 3.57202E-27
6.75104E-01 3.48049E-27
6.79184E-01 3.39131E-27
6.83251E-01 3.30442E-27
6.87303E-01 3.21975E-27
6.91342E-01 3.13724E-27
6.95366E-01 3.05683E-27
6.99375E-01 2.97845E-27
7.03368E-01 2.90205E-27
7.07347E-01 2.82757E-27
7.11309E-01 2.75497E-27
7.15256E-01 2.68418E-27
7.19186E-01 2.61516E-27
7.23099E-01 2.54786E-27
7.26995E-01 2.48223E-27
7.30874E-01 2.41823E-27
7.34736E-01 2.35580E-27
7.38579E-01 2.29492E-27
7.42405E-01 2.23553E-27
7.46212E-01 2.17760E-27
7.50000E-01 2.12108E-27
7.53769E-01 2.06595E-27
7.57519E-01 2.01215E-27
7.61249E-01 1.95967E-27
7.64960E-01 1.90845E-27
7.68650E-01 1.85847E-27
7.72320E-01 1.80970E-27
7.75968E-01 1.76211E-27
7.79596E-01 1.71565E-27
7.83203E-01 1.67032E-27
7.86788E-01 1.62606E-27
7.90351E-01 1.58287E-27
7.93893E-01 1.54070E-27
7.97411E-01 1.49954E-27
8.00908E-01 1.45936E-27
8.04381E-01 1.42013E-27
8.07831E-01 1.38183E-27
8.11257E-01 1.34444E-27
8.14660E-01 1.30793E-27
8.18039E-01 1.27228E-27
8.21394E-01 1.23747E-27
8.24724E-01 1.20348E-27
8.28030E-01 1.17029E-27
8.31310E-01 1.13789E-27
8.34565E-01 1.10624E-27
8.37795E-01 1.07533E-27
8.40999E-01 1.04515E-27
8.44177E-01 1.01568E-27
8.47329E-01 9.86891E-28
8.50455E-01 9.58780E-28
8.53553E-01 9.31326E-28
8.56625E-01 9.04515E-28
8.59670E-01 8.78330E-28
8.62687E-01 8.52758E-28
8.65677E-01 8.27784E-28
8.68639E-01 8.03393E-28
8.71572E-01 7.79574E-28
8.74478E-01 7.56312E-28
8.77355E-01 7.33595E-28
8.80203E-01 7.11410E-28
8.83022E-01 6.89746E-28
8.85812E-01 6.68591E-28
8.88573E-01 6.47933E-28
8.91304E-01 6.27761E-28
8.94005E-01 6.08065E-28
8.96677E-01 5.88835E-28
8.99318E-01 5.70059E-28
9.01928E-01 5.51728E-28
9.04508E-01 5.33833E-28
9.07058E-01 5.16364E-28
9.09576E-01 4.99313E-28
9.12063E-01 4.82669E-28
9.14519E-01 4.66426E-28
9.16943E-01 4.50574E-28
9.19335E-01 4.35105E-28
9.21696E-01 4.20012E-28
9.24024E-01 4.05287E-28
9.26320E-01 3.90922E-28
9.28584E-01 3.76911E-28
9.30815E-01 3.63245E-28
9.33013E-01 3.49919E-28
9.35178E-01 3.36925E-28
9.37310E-01 3.24258E-28
9.39409E-01 3.11911E-28
9.41474E-01 2.99878E-28
9.43505E-01 2.88152E-28
9.45503E-01 2.76729E-28
9.47467E-01 2.65603E-28
9.49397E-01 2.54768E-28
9.51293E-01 2.44219E-28
9.53154E-01 2.33951E-28
9.54981E-01 2.23959E-28
9.56773E-01 2.14238E-28
9.58530E-01 2.04784E-28
9.60252E-01 1.95591E-28
9.61940E-01 1.86657E-28
9.63592E-01 1.77976E-28
9.65209E-01 1.69544E-28
9.66790E-01 1.61357E-28
9.68336E-01 1.53412E-28
9.69846E-01 1.45705E-28
9.71321E-01 1.38231E-28
9.72759E-01 1.30989E-28
9.74162E-01 1.23973E-28
9.75528E-01 1.17182E-28
9.76858E-01 1.10611E-28
9.78152E-01 1.04258E-28
9.79410E-01 9.81203E-29
9.80631E-01 9.21943E-29
9.81815E-01 8.64776E-29
9.82963E-01 8.09676E-29
9.84074E-01 7.56616E-29
9.85148E-01 7.05574E-29
9.86185E-01 6.56526E-29
9.87185E-01 6.09449E-29
9.88148E-01 5.64322E-29
9.89074E-01 5.21123E-29
9.89962E-01 4.79835E-29
9.90814E-01 4.40438E-29
9.91627E-01 4.02914E-29
9.92404E-01 3.67246E-29
9.93143E-01 3.33418E-29
9.93844E-01 3.01415E-29
9.94508E-01 2.71223E-29
9.95134E-01 2.42827E-29
9.95722E-01 2.16216E-29
9.96273E-01 1.91376E-29
9.96786E-01 1.68298E-29
9.97261E-01 1.46970E-29
9.97698E-01 1.27384E-29
9.98097E-01 1.09529E-29
9.98459E-01 9.33993E-30
9.98782E-01 7.89865E-30
9.99067E-01 6.62844E-30
9.99315E-01 5.52873E-30
9.99524E-01 4.59905E-30
9.99695E-01 3.83895E-30
9.99829E-01 3.24813E-30
9.99924E-01 2.82629E-30
9.99981E-01 2.57327E-30
1.00000E+00 2.48892E-30
