 #
 # Subroutine ELSEPA. Elastic scattering of electrons and positrons
 #                    by neutral atoms and positive ions
 #
 # Projectile: positron
 # Kinetic energy = 8.00000E+06 eV = 2.93995E+05 a.u.
 #
 # WARNING: High-energy factorization with free-atom DF screening.
 #          Absorption, polarization and exchange corrections are
 #          switched off.
 #          Phase shifts are calculated for the bare nucleus.
 #          Scattering amplitudes are not evaluated.
 #
 # Element: Zn,  Z =  30,  atomic weight = 6.53900E+01 g/mol
 #
 # Nuclear model: Fermi distribution
 #                Average radius = 4.31076E-13 cm
 #                Skin thickness = 5.46000E-14 cm
 #
 # Number of electrons = 30
 #
 # Total elastic cross section = 1.97940E-18 cm**2 = 7.06855E-02 a0**2
 # 1st transport cross section = 1.86511E-23 cm**2 = 6.66044E-07 a0**2
 # 2nd transport cross section = 5.39044E-23 cm**2 = 1.92496E-06 a0**2
 #
 #
 # Differential cross section:                       MU=(1-COS(THETA))/2
 #
 #  THETA        MU          DCS          DCS        Sherman      error
 #  (deg)                 (cm**2/sr)   (a0**2/sr)    function
 #----------------------------------------------------------------------
0.00000E+00 1.00549E-12
7.61557E-13 1.00548E-12
1.18994E-12 1.00547E-12
1.71346E-12 1.00545E-12
2.33225E-12 1.00544E-12
3.04617E-12 1.00542E-12
3.85530E-12 1.00541E-12
4.75964E-12 1.00539E-12
5.75917E-12 1.00536E-12
6.85391E-12 1.00534E-12
8.04379E-12 1.00531E-12
9.32893E-12 1.00528E-12
1.07092E-11 1.00525E-12
1.21847E-11 1.00522E-12
1.37554E-11 1.00518E-12
1.54213E-11 1.00515E-12
1.71823E-11 1.00511E-12
1.90386E-11 1.00507E-12
2.09900E-11 1.00502E-12
2.30367E-11 1.00498E-12
2.51785E-11 1.00493E-12
2.74156E-11 1.00488E-12
2.97478E-11 1.00483E-12
3.21752E-11 1.00477E-12
3.46979E-11 1.00472E-12
3.73157E-11 1.00466E-12
4.00286E-11 1.00460E-12
4.28368E-11 1.00454E-12
4.57402E-11 1.00447E-12
4.87388E-11 1.00441E-12
5.18325E-11 1.00434E-12
5.50215E-11 1.00427E-12
5.83057E-11 1.00419E-12
6.16850E-11 1.00412E-12
6.51595E-11 1.00404E-12
6.87293E-11 1.00396E-12
7.23943E-11 1.00388E-12
7.61544E-11 1.00380E-12
1.18991E-10 1.00285E-12
1.71347E-10 1.00170E-12
2.33223E-10 1.00033E-12
3.04617E-10 9.98767E-13
3.85531E-10 9.96996E-13
4.75965E-10 9.95024E-13
5.75917E-10 9.92852E-13
6.85389E-10 9.90483E-13
8.04380E-10 9.87919E-13
9.32891E-10 9.85162E-13
1.07092E-09 9.82216E-13
1.21847E-09 9.79084E-13
1.37554E-09 9.75768E-13
1.54213E-09 9.72272E-13
1.71823E-09 9.68600E-13
1.90386E-09 9.64755E-13
2.09900E-09 9.60740E-13
2.30367E-09 9.56560E-13
2.51785E-09 9.52218E-13
2.74156E-09 9.47720E-13
2.97478E-09 9.43069E-13
3.21752E-09 9.38260E-13
3.46978E-09 9.33268E-13
3.73156E-09 9.28154E-13
4.00286E-09 9.22922E-13
4.28368E-09 9.17578E-13
4.57402E-09 9.12130E-13
4.87388E-09 9.06582E-13
5.18326E-09 9.00839E-13
5.50215E-09 8.94965E-13
5.83057E-09 8.89007E-13
6.16850E-09 8.82972E-13
6.51596E-09 8.76866E-13
6.87293E-09 8.70695E-13
7.23942E-09 8.64419E-13
7.61544E-09 8.57955E-13
1.18991E-08 7.90513E-13
1.71347E-08 7.19811E-13
2.33223E-08 6.49643E-13
3.04617E-08 5.82560E-13
3.85531E-08 5.20581E-13
4.75965E-08 4.64225E-13
5.75917E-08 4.14122E-13
6.85389E-08 3.69738E-13
8.04380E-08 3.30924E-13
9.32891E-08 2.96941E-13
1.07092E-07 2.67305E-13
1.21847E-07 2.41396E-13
1.37554E-07 2.18697E-13
1.54213E-07 1.98773E-13
1.71823E-07 1.81171E-13
1.90386E-07 1.65620E-13
2.09900E-07 1.51745E-13
2.30367E-07 1.39393E-13
2.51785E-07 1.28283E-13
2.74156E-07 1.18305E-13
2.97478E-07 1.09277E-13
3.21752E-07 1.00961E-13
3.46978E-07 9.28563E-14
3.73156E-07 8.57674E-14
4.00286E-07 7.95399E-14
4.28368E-07 7.40463E-14
4.57402E-07 6.91810E-14
4.87388E-07 6.48557E-14
5.18325E-07 6.03144E-14
5.50215E-07 5.60077E-14
5.83057E-07 5.21692E-14
6.16850E-07 4.87367E-14
6.51596E-07 4.56575E-14
6.87293E-07 4.28870E-14
7.23942E-07 4.02632E-14
7.61543E-07 3.75393E-14
1.18991E-06 2.00321E-14
1.71347E-06 1.12650E-14
2.33223E-06 6.66859E-15
3.04617E-06 4.15229E-15
3.85531E-06 2.71528E-15
4.75964E-06 1.85300E-15
5.75916E-06 1.31305E-15
6.85388E-06 9.59665E-16
8.04378E-06 7.20023E-16
9.32888E-06 5.51701E-16
1.07092E-05 4.30442E-16
1.21846E-05 3.40938E-16
1.37553E-05 2.73522E-16
1.54212E-05 2.21898E-16
1.71822E-05 1.81751E-16
1.90385E-05 1.50194E-16
2.09899E-05 1.25112E-16
2.30365E-05 1.05001E-16
2.51783E-05 8.87010E-17
2.74153E-05 7.54050E-17
2.97475E-05 6.44714E-17
3.21749E-05 5.54215E-17
3.46974E-05 4.78745E-17
3.73152E-05 4.15900E-17
4.00281E-05 3.62894E-17
4.28362E-05 3.17988E-17
4.57395E-05 2.79907E-17
4.87380E-05 2.47195E-17
5.18317E-05 2.19172E-17
5.50205E-05 1.95004E-17
5.83045E-05 1.74053E-17
6.16838E-05 1.55871E-17
6.51582E-05 1.39981E-17
6.87277E-05 1.26077E-17
7.23925E-05 1.13868E-17
7.61524E-05 1.03095E-17
9.21439E-05 7.09250E-18
1.09658E-04 5.03974E-18
1.28695E-04 3.68053E-18
1.49255E-04 2.75062E-18
1.71338E-04 2.09710E-18
1.94942E-04 1.62669E-18
2.20070E-04 1.28107E-18
2.46720E-04 1.02252E-18
2.74892E-04 8.25935E-19
3.04586E-04 6.74369E-19
3.35803E-04 5.55946E-19
3.68542E-04 4.62382E-19
4.02802E-04 3.87649E-19
4.38585E-04 3.27395E-19
4.75889E-04 2.78378E-19
5.14715E-04 2.38179E-19
5.55063E-04 2.04965E-19
5.96931E-04 1.77329E-19
6.40321E-04 1.54187E-19
6.85233E-04 1.34690E-19
7.31665E-04 1.18173E-19
7.79618E-04 1.04104E-19
8.29092E-04 9.20642E-20
8.80086E-04 8.17108E-20
9.32601E-04 7.27694E-20
9.86636E-04 6.50151E-20
1.04219E-03 5.82643E-20
1.09927E-03 5.23653E-20
1.15786E-03 4.71924E-20
1.21797E-03 4.26413E-20
1.27961E-03 3.86244E-20
1.34276E-03 3.50685E-20
1.40743E-03 3.19115E-20
1.47362E-03 2.91010E-20
1.54133E-03 2.65925E-20
1.61056E-03 2.43479E-20
1.68131E-03 2.23346E-20
1.75357E-03 2.05246E-20
1.82735E-03 1.88939E-20
1.90265E-03 1.74216E-20
1.97947E-03 1.60895E-20
2.05780E-03 1.48821E-20
2.13765E-03 1.37855E-20
2.21902E-03 1.27878E-20
2.30190E-03 1.18786E-20
2.38630E-03 1.10485E-20
2.47222E-03 1.02895E-20
2.55965E-03 9.59436E-21
2.64859E-03 8.95680E-21
2.73905E-03 8.37119E-21
2.83103E-03 7.83254E-21
2.92452E-03 7.33640E-21
3.01952E-03 6.87882E-21
3.11604E-03 6.45626E-21
3.21407E-03 6.06556E-21
3.31362E-03 5.70389E-21
3.41468E-03 5.36870E-21
3.51725E-03 5.05771E-21
3.62133E-03 4.76883E-21
3.72692E-03 4.50023E-21
3.83403E-03 4.25023E-21
3.94265E-03 4.01728E-21
4.05278E-03 3.80004E-21
4.16442E-03 3.59723E-21
4.27757E-03 3.40773E-21
4.39223E-03 3.23051E-21
4.50840E-03 3.06462E-21
4.62608E-03 2.90921E-21
4.74527E-03 2.76349E-21
4.86597E-03 2.62676E-21
4.98817E-03 2.49834E-21
5.11188E-03 2.37766E-21
5.23711E-03 2.26415E-21
5.36383E-03 2.15730E-21
5.49207E-03 2.05667E-21
5.62181E-03 1.96181E-21
5.75306E-03 1.87234E-21
5.88581E-03 1.78789E-21
6.02007E-03 1.70814E-21
6.15583E-03 1.63276E-21
6.29310E-03 1.56149E-21
6.43187E-03 1.49404E-21
6.57214E-03 1.43018E-21
6.71392E-03 1.36969E-21
6.85720E-03 1.31235E-21
7.00198E-03 1.25796E-21
7.14827E-03 1.20636E-21
7.29605E-03 1.15736E-21
7.44534E-03 1.11081E-21
7.59612E-03 1.06657E-21
7.97965E-03 9.65201E-22
8.37255E-03 8.75545E-22
8.77480E-03 7.96020E-22
9.18641E-03 7.25285E-22
9.60736E-03 6.62204E-22
1.00376E-02 6.05804E-22
1.04773E-02 5.55257E-22
1.09262E-02 5.09850E-22
1.13844E-02 4.68970E-22
1.18520E-02 4.32087E-22
1.23288E-02 3.98743E-22
1.28150E-02 3.68538E-22
1.33104E-02 3.41126E-22
1.38150E-02 3.16202E-22
1.43290E-02 2.93503E-22
1.48521E-02 2.72793E-22
1.53845E-02 2.53869E-22
1.59262E-02 2.36548E-22
1.64770E-02 2.20672E-22
1.70371E-02 2.06098E-22
1.76063E-02 1.92700E-22
1.81848E-02 1.80368E-22
1.87724E-02 1.69000E-22
1.93692E-02 1.58509E-22
1.99751E-02 1.48814E-22
2.05901E-02 1.39845E-22
2.12143E-02 1.31537E-22
2.18476E-02 1.23832E-22
2.24900E-02 1.16680E-22
2.31415E-02 1.10034E-22
2.38021E-02 1.03851E-22
2.44717E-02 9.80932E-23
2.51504E-02 9.27262E-23
2.58382E-02 8.77186E-23
2.65349E-02 8.30422E-23
2.72407E-02 7.86709E-23
2.79555E-02 7.45815E-23
2.86793E-02 7.07523E-23
2.94120E-02 6.71639E-23
3.01537E-02 6.37983E-23
3.09043E-02 6.06393E-23
3.16639E-02 5.76719E-23
3.24324E-02 5.48823E-23
3.32098E-02 5.22580E-23
3.39961E-02 4.97873E-23
3.47912E-02 4.74598E-23
3.55952E-02 4.52655E-23
3.64081E-02 4.31955E-23
3.72297E-02 4.12415E-23
3.80602E-02 3.93957E-23
3.88995E-02 3.76511E-23
3.97476E-02 3.60011E-23
4.06044E-02 3.44398E-23
4.14700E-02 3.29613E-23
4.23443E-02 3.15606E-23
4.32273E-02 3.02328E-23
4.41190E-02 2.89735E-23
4.50194E-02 2.77784E-23
4.59284E-02 2.66436E-23
4.68461E-02 2.55657E-23
4.87074E-02 2.35669E-23
5.06030E-02 2.17577E-23
5.25328E-02 2.01172E-23
5.44967E-02 1.86268E-23
5.64946E-02 1.72704E-23
5.85262E-02 1.60340E-23
6.05914E-02 1.49050E-23
6.26901E-02 1.38726E-23
6.48222E-02 1.29270E-23
6.69873E-02 1.20596E-23
6.91854E-02 1.12629E-23
7.14163E-02 1.05302E-23
7.36799E-02 9.85525E-24
7.59760E-02 9.23286E-24
7.83043E-02 8.65819E-24
8.06647E-02 8.12695E-24
8.30571E-02 7.63527E-24
8.54812E-02 7.17968E-24
8.79369E-02 6.75709E-24
9.04240E-02 6.36469E-24
9.29422E-02 5.99993E-24
9.54915E-02 5.66053E-24
9.80716E-02 5.34442E-24
1.00682E-01 5.04972E-24
1.03323E-01 4.77473E-24
1.05995E-01 4.51789E-24
1.08696E-01 4.27780E-24
1.11427E-01 4.05317E-24
1.14188E-01 3.84283E-24
1.16978E-01 3.64572E-24
1.19797E-01 3.46085E-24
1.22645E-01 3.28733E-24
1.25522E-01 3.12435E-24
1.28428E-01 2.97115E-24
1.31361E-01 2.82704E-24
1.34323E-01 2.69138E-24
1.37313E-01 2.56360E-24
1.40330E-01 2.44315E-24
1.43375E-01 2.32954E-24
1.46447E-01 2.22231E-24
1.49545E-01 2.12104E-24
1.52671E-01 2.02535E-24
1.55823E-01 1.93487E-24
1.59001E-01 1.84926E-24
1.62205E-01 1.76823E-24
1.65435E-01 1.69147E-24
1.68690E-01 1.61874E-24
1.71970E-01 1.54977E-24
1.75276E-01 1.48434E-24
1.78606E-01 1.42223E-24
1.81961E-01 1.36326E-24
1.85340E-01 1.30722E-24
1.88743E-01 1.25396E-24
1.92169E-01 1.20330E-24
1.95619E-01 1.15510E-24
1.99092E-01 1.10922E-24
2.02589E-01 1.06553E-24
2.06107E-01 1.02390E-24
2.09649E-01 9.84224E-25
2.13212E-01 9.46388E-25
2.16797E-01 9.10295E-25
2.20404E-01 8.75850E-25
2.24032E-01 8.42964E-25
2.27680E-01 8.11555E-25
2.31350E-01 7.81545E-25
2.35040E-01 7.52860E-25
2.38751E-01 7.25432E-25
2.42481E-01 6.99196E-25
2.46231E-01 6.74091E-25
2.50000E-01 6.50061E-25
2.53788E-01 6.27051E-25
2.57595E-01 6.05009E-25
2.61421E-01 5.83890E-25
2.65264E-01 5.63646E-25
2.69126E-01 5.44236E-25
2.73005E-01 5.25619E-25
2.76901E-01 5.07758E-25
2.80814E-01 4.90616E-25
2.84744E-01 4.74159E-25
2.88691E-01 4.58355E-25
2.92653E-01 4.43174E-25
2.96632E-01 4.28587E-25
3.00625E-01 4.14567E-25
3.04634E-01 4.01088E-25
3.08658E-01 3.88125E-25
3.12697E-01 3.75656E-25
3.16749E-01 3.63658E-25
3.20816E-01 3.52110E-25
3.24896E-01 3.40993E-25
3.28990E-01 3.30288E-25
3.33097E-01 3.19977E-25
3.37216E-01 3.10042E-25
3.41348E-01 3.00469E-25
3.45492E-01 2.91241E-25
3.49647E-01 2.82344E-25
3.53814E-01 2.73765E-25
3.57992E-01 2.65489E-25
3.62181E-01 2.57504E-25
3.66381E-01 2.49798E-25
3.70590E-01 2.42361E-25
3.74810E-01 2.35180E-25
3.79039E-01 2.28246E-25
3.83277E-01 2.21548E-25
3.87524E-01 2.15078E-25
3.91780E-01 2.08826E-25
3.96044E-01 2.02784E-25
4.00316E-01 1.96943E-25
4.04596E-01 1.91296E-25
4.08882E-01 1.85835E-25
4.13176E-01 1.80553E-25
4.17476E-01 1.75443E-25
4.21783E-01 1.70498E-25
4.26095E-01 1.65713E-25
4.30413E-01 1.61081E-25
4.34737E-01 1.56597E-25
4.39065E-01 1.52255E-25
4.43398E-01 1.48050E-25
4.47736E-01 1.43977E-25
4.52077E-01 1.40031E-25
4.56422E-01 1.36207E-25
4.60770E-01 1.32501E-25
4.65122E-01 1.28909E-25
4.69476E-01 1.25427E-25
4.73832E-01 1.22050E-25
4.78190E-01 1.18776E-25
4.82550E-01 1.15600E-25
4.86912E-01 1.12519E-25
4.91274E-01 1.09530E-25
4.95637E-01 1.06629E-25
5.00000E-01 1.03814E-25
5.04363E-01 1.01082E-25
5.08726E-01 9.84292E-26
5.13088E-01 9.58537E-26
5.17450E-01 9.33527E-26
5.21810E-01 9.09236E-26
5.26168E-01 8.85642E-26
5.30524E-01 8.62721E-26
5.34878E-01 8.40451E-26
5.39230E-01 8.18809E-26
5.43578E-01 7.97777E-26
5.47923E-01 7.77334E-26
5.52264E-01 7.57460E-26
5.56602E-01 7.38139E-26
5.60935E-01 7.19351E-26
5.65263E-01 7.01080E-26
5.69587E-01 6.83309E-26
5.73905E-01 6.66023E-26
5.78217E-01 6.49207E-26
5.82524E-01 6.32846E-26
5.86824E-01 6.16925E-26
5.91118E-01 6.01431E-26
5.95404E-01 5.86351E-26
5.99684E-01 5.71672E-26
6.03956E-01 5.57382E-26
6.08220E-01 5.43469E-26
6.12476E-01 5.29921E-26
6.16723E-01 5.16728E-26
6.20961E-01 5.03880E-26
6.25190E-01 4.91365E-26
6.29410E-01 4.79173E-26
6.33619E-01 4.67296E-26
6.37819E-01 4.55724E-26
6.42008E-01 4.44448E-26
6.46186E-01 4.33460E-26
6.50353E-01 4.22750E-26
6.54508E-01 4.12311E-26
6.58652E-01 4.02136E-26
6.62784E-01 3.92216E-26
6.66903E-01 3.82545E-26
6.71010E-01 3.73115E-26
6.75104E-01 3.63919E-26
6.79184E-01 3.54951E-26
6.83251E-01 3.46205E-26
6.87303E-01 3.37674E-26
6.91342E-01 3.29352E-26
6.95366E-01 3.21233E-26
6.99375E-01 3.13313E-26
7.03368E-01 3.05585E-26
7.07347E-01 2.98044E-26
7.11309E-01 2.90686E-26
7.15256E-01 2.83504E-26
7.19186E-01 2.76495E-26
7.23099E-01 2.69654E-26
7.26995E-01 2.62976E-26
7.30874E-01 2.56457E-26
7.34736E-01 2.50093E-26
7.38579E-01 2.43879E-26
7.42405E-01 2.37812E-26
7.46212E-01 2.31888E-26
7.50000E-01 2.26103E-26
7.53769E-01 2.20454E-26
7.57519E-01 2.14936E-26
7.61249E-01 2.09548E-26
7.64960E-01 2.04284E-26
7.68650E-01 1.99143E-26
7.72320E-01 1.94121E-26
7.75968E-01 1.89214E-26
7.79596E-01 1.84421E-26
7.83203E-01 1.79738E-26
7.86788E-01 1.75163E-26
7.90351E-01 1.70692E-26
7.93893E-01 1.66324E-26
7.97411E-01 1.62056E-26
8.00908E-01 1.57885E-26
8.04381E-01 1.53808E-26
8.07831E-01 1.49825E-26
8.11257E-01 1.45931E-26
8.14660E-01 1.42126E-26
8.18039E-01 1.38408E-26
8.21394E-01 1.34773E-26
8.24724E-01 1.31220E-26
8.28030E-01 1.27747E-26
8.31310E-01 1.24353E-26
8.34565E-01 1.21035E-26
8.37795E-01 1.17791E-26
8.40999E-01 1.14621E-26
8.44177E-01 1.11522E-26
8.47329E-01 1.08492E-26
8.50455E-01 1.05531E-26
8.53553E-01 1.02635E-26
8.56625E-01 9.98052E-27
8.59670E-01 9.70386E-27
8.62687E-01 9.43340E-27
8.65677E-01 9.16902E-27
8.68639E-01 8.91057E-27
8.71572E-01 8.65793E-27
8.74478E-01 8.41097E-27
8.77355E-01 8.16957E-27
8.80203E-01 7.93361E-27
8.83022E-01 7.70297E-27
8.85812E-01 7.47753E-27
8.88573E-01 7.25720E-27
8.91304E-01 7.04185E-27
8.94005E-01 6.83139E-27
8.96677E-01 6.62571E-27
8.99318E-01 6.42473E-27
9.01928E-01 6.22833E-27
9.04508E-01 6.03642E-27
9.07058E-01 5.84893E-27
9.09576E-01 5.66575E-27
9.12063E-01 5.48680E-27
9.14519E-01 5.31200E-27
9.16943E-01 5.14127E-27
9.19335E-01 4.97453E-27
9.21696E-01 4.81169E-27
9.24024E-01 4.65270E-27
9.26320E-01 4.49746E-27
9.28584E-01 4.34592E-27
9.30815E-01 4.19801E-27
9.33013E-01 4.05365E-27
9.35178E-01 3.91278E-27
9.37310E-01 3.77535E-27
9.39409E-01 3.64128E-27
9.41474E-01 3.51052E-27
9.43505E-01 3.38301E-27
9.45503E-01 3.25870E-27
9.47467E-01 3.13753E-27
9.49397E-01 3.01944E-27
9.51293E-01 2.90439E-27
9.53154E-01 2.79232E-27
9.54981E-01 2.68319E-27
9.56773E-01 2.57695E-27
9.58530E-01 2.47355E-27
9.60252E-01 2.37295E-27
9.61940E-01 2.27511E-27
9.63592E-01 2.17998E-27
9.65209E-01 2.08752E-27
9.66790E-01 1.99770E-27
9.68336E-01 1.91048E-27
9.69846E-01 1.82581E-27
9.71321E-01 1.74367E-27
9.72759E-01 1.66402E-27
9.74162E-01 1.58683E-27
9.75528E-01 1.51205E-27
9.76858E-01 1.43967E-27
9.78152E-01 1.36966E-27
9.79410E-01 1.30198E-27
9.80631E-01 1.23660E-27
9.81815E-01 1.17350E-27
9.82963E-01 1.11265E-27
9.84074E-01 1.05404E-27
9.85148E-01 9.97621E-28
9.86185E-01 9.43386E-28
9.87185E-01 8.91311E-28
9.88148E-01 8.41372E-28
9.89074E-01 7.93549E-28
9.89962E-01 7.47825E-28
9.90814E-01 7.04179E-28
9.91627E-01 6.62594E-28
9.92404E-01 6.23053E-28
9.93143E-01 5.85540E-28
9.93844E-01 5.50041E-28
9.94508E-01 5.16541E-28
9.95134E-01 4.85025E-28
9.95722E-01 4.55483E-28
9.96273E-01 4.27902E-28
9.96786E-01 4.02270E-28
9.97261E-01 3.78577E-28
9.97698E-01 3.56815E-28
9.98097E-01 3.36974E-28
9.98459E-01 3.19047E-28
9.98782E-01 3.03026E-28
9.99067E-01 2.88904E-28
9.99315E-01 2.76677E-28
9.99524E-01 2.66339E-28
9.99695E-01 2.57887E-28
9.99829E-01 2.51316E-28
9.99924E-01 2.46624E-28
9.99981E-01 2.43810E-28
1.00000E+00 2.42872E-28
