 #
 # Subroutine ELSEPA. Elastic scattering of electrons and positrons
 #                    by neutral atoms and positive ions
 #
 # Projectile: positron
 # Kinetic energy = 8.00000E+07 eV = 2.93995E+06 a.u.
 #
 # WARNING: High-energy factorization with free-atom DF screening.
 #          Absorption, polarization and exchange corrections are
 #          switched off.
 #          Phase shifts are calculated for the bare nucleus.
 #          Scattering amplitudes are not evaluated.
 #
 # Element: Zn,  Z =  30,  atomic weight = 6.53900E+01 g/mol
 #
 # Nuclear model: Fermi distribution
 #                Average radius = 4.31076E-13 cm
 #                Skin thickness = 5.46000E-14 cm
 #
 # Number of electrons = 30
 #
 # Total elastic cross section = 1.97306E-18 cm**2 = 7.04592E-02 a0**2
 # 1st transport cross section = 2.75022E-25 cm**2 = 9.82121E-09 a0**2
 # 2nd transport cross section = 8.13381E-25 cm**2 = 2.90464E-08 a0**2
 #
 #
 # Differential cross section:                       MU=(1-COS(THETA))/2
 #
 #  THETA        MU          DCS          DCS        Sherman      error
 #  (deg)                 (cm**2/sr)   (a0**2/sr)    function
 #----------------------------------------------------------------------
0.00000E+00 8.99765E-11
7.61557E-13 8.98405E-11
1.18994E-12 8.97644E-11
1.71346E-12 8.96716E-11
2.33225E-12 8.95622E-11
3.04617E-12 8.94362E-11
3.85530E-12 8.92938E-11
4.75964E-12 8.91351E-11
5.75917E-12 8.89603E-11
6.85391E-12 8.87696E-11
8.04379E-12 8.85630E-11
9.32893E-12 8.83408E-11
1.07092E-11 8.81033E-11
1.21847E-11 8.78505E-11
1.37554E-11 8.75829E-11
1.54213E-11 8.73005E-11
1.71823E-11 8.70037E-11
1.90386E-11 8.66926E-11
2.09900E-11 8.63677E-11
2.30367E-11 8.60291E-11
2.51785E-11 8.56772E-11
2.74156E-11 8.53122E-11
2.97478E-11 8.49345E-11
3.21752E-11 8.45445E-11
3.46979E-11 8.41423E-11
3.73157E-11 8.37253E-11
4.00286E-11 8.32967E-11
4.28368E-11 8.28584E-11
4.57402E-11 8.24110E-11
4.87388E-11 8.19547E-11
5.18325E-11 8.14902E-11
5.50215E-11 8.10178E-11
5.83057E-11 8.05267E-11
6.16850E-11 8.00276E-11
6.51595E-11 7.95218E-11
6.87293E-11 7.90099E-11
7.23943E-11 7.84922E-11
7.61544E-11 7.79693E-11
1.18991E-10 7.23633E-11
1.71347E-10 6.64159E-11
2.33223E-10 6.04139E-11
3.04617E-10 5.46019E-11
3.85531E-10 4.91395E-11
4.75965E-10 4.41146E-11
5.75917E-10 3.95796E-11
6.85389E-10 3.55210E-11
8.04380E-10 3.19336E-11
9.32891E-10 2.87612E-11
1.07092E-09 2.59795E-11
1.21847E-09 2.35243E-11
1.37554E-09 2.13701E-11
1.54213E-09 1.94641E-11
1.71823E-09 1.77818E-11
1.90386E-09 1.62853E-11
2.09900E-09 1.49537E-11
2.30367E-09 1.37615E-11
2.51785E-09 1.26915E-11
2.74156E-09 1.17274E-11
2.97478E-09 1.08549E-11
3.21752E-09 1.00642E-11
3.46978E-09 9.34325E-12
3.73156E-09 8.63729E-12
4.00286E-09 7.99554E-12
4.28368E-09 7.42912E-12
4.57402E-09 6.92727E-12
4.87388E-09 6.48102E-12
5.18326E-09 6.08280E-12
5.50215E-09 5.72625E-12
5.83057E-09 5.33132E-12
6.16850E-09 4.97204E-12
6.51596E-09 4.64975E-12
6.87293E-09 4.35981E-12
7.23942E-09 4.09822E-12
7.61544E-09 3.86157E-12
1.18991E-08 2.10190E-12
1.71347E-08 1.20250E-12
2.33223E-08 7.19268E-13
3.04617E-08 4.50675E-13
3.85531E-08 2.95408E-13
4.75965E-08 2.01704E-13
5.75917E-08 1.42849E-13
6.85389E-08 1.04343E-13
8.04380E-08 7.82567E-14
9.32891E-08 5.99751E-14
1.07092E-07 4.68223E-14
1.21847E-07 3.71121E-14
1.37554E-07 2.98170E-14
1.54213E-07 2.42212E-14
1.71823E-07 1.98750E-14
1.90386E-07 1.64489E-14
2.09900E-07 1.37229E-14
2.30367E-07 1.15313E-14
2.51785E-07 9.75483E-15
2.74156E-07 8.30316E-15
2.97478E-07 7.10787E-15
3.21752E-07 6.11754E-15
3.46978E-07 5.29146E-15
3.73156E-07 4.59685E-15
4.00286E-07 4.01304E-15
4.28368E-07 3.52047E-15
4.57402E-07 3.09806E-15
4.87388E-07 2.73794E-15
5.18325E-07 2.42874E-15
5.50215E-07 2.16114E-15
5.83057E-07 1.92981E-15
6.16850E-07 1.72847E-15
6.51596E-07 1.55262E-15
6.87293E-07 1.39881E-15
7.23942E-07 1.26339E-15
7.61543E-07 1.14406E-15
1.18991E-06 4.77012E-16
1.71347E-06 2.33319E-16
2.33223E-06 1.27328E-16
3.04617E-06 7.52629E-17
3.85531E-06 4.72812E-17
4.75964E-06 3.11653E-17
5.75916E-06 2.13605E-17
6.85388E-06 1.51215E-17
8.04378E-06 1.10003E-17
9.32888E-06 8.19073E-18
1.07092E-05 6.22265E-18
1.21846E-05 4.81116E-18
1.37553E-05 3.77778E-18
1.54212E-05 3.00731E-18
1.71822E-05 2.42347E-18
1.90385E-05 1.97441E-18
2.09899E-05 1.62497E-18
2.30365E-05 1.34943E-18
2.51783E-05 1.12980E-18
2.74153E-05 9.53006E-19
2.97475E-05 8.09436E-19
3.21749E-05 6.91895E-19
3.46974E-05 5.94938E-19
3.73152E-05 5.14393E-19
4.00281E-05 4.47035E-19
4.28362E-05 3.90351E-19
4.57395E-05 3.42368E-19
4.87380E-05 3.01529E-19
5.18317E-05 2.66593E-19
5.50205E-05 2.36566E-19
5.83045E-05 2.10647E-19
6.16838E-05 1.88181E-19
6.51582E-05 1.68633E-19
6.87277E-05 1.51558E-19
7.23925E-05 1.36592E-19
7.61524E-05 1.23430E-19
9.21439E-05 8.42721E-20
1.09658E-04 5.94756E-20
1.28695E-04 4.31627E-20
1.49255E-04 3.20747E-20
1.71338E-04 2.43283E-20
1.94942E-04 1.87840E-20
2.20070E-04 1.47320E-20
2.46720E-04 1.17153E-20
2.74892E-04 9.43218E-21
3.04586E-04 7.67877E-21
3.35803E-04 6.31413E-21
3.68542E-04 5.23938E-21
4.02802E-04 4.38366E-21
4.38585E-04 3.69554E-21
4.75889E-04 3.13718E-21
5.14715E-04 2.68027E-21
5.55063E-04 2.30350E-21
5.96931E-04 1.99059E-21
6.40321E-04 1.72898E-21
6.85233E-04 1.50892E-21
7.31665E-04 1.32273E-21
7.79618E-04 1.16435E-21
8.29092E-04 1.02894E-21
8.80086E-04 9.12628E-22
9.32601E-04 8.12268E-22
9.86636E-04 7.25305E-22
1.04219E-03 6.49656E-22
1.09927E-03 5.83596E-22
1.15786E-03 5.25709E-22
1.21797E-03 4.74808E-22
1.27961E-03 4.29909E-22
1.34276E-03 3.90181E-22
1.40743E-03 3.54928E-22
1.47362E-03 3.23558E-22
1.54133E-03 2.95571E-22
1.61056E-03 2.70537E-22
1.68131E-03 2.48092E-22
1.75357E-03 2.27920E-22
1.82735E-03 2.09751E-22
1.90265E-03 1.93352E-22
1.97947E-03 1.78520E-22
2.05780E-03 1.65079E-22
2.13765E-03 1.52876E-22
2.21902E-03 1.41776E-22
2.30190E-03 1.31662E-22
2.38630E-03 1.22431E-22
2.47222E-03 1.13992E-22
2.55965E-03 1.06265E-22
2.64859E-03 9.91795E-23
2.73905E-03 9.26725E-23
2.83103E-03 8.66885E-23
2.92452E-03 8.11778E-23
3.01952E-03 7.60963E-23
3.11604E-03 7.14046E-23
3.21407E-03 6.70673E-23
3.31362E-03 6.30530E-23
3.41468E-03 5.93333E-23
3.51725E-03 5.58825E-23
3.62133E-03 5.26778E-23
3.72692E-03 4.96985E-23
3.83403E-03 4.69258E-23
3.94265E-03 4.43428E-23
4.05278E-03 4.19342E-23
4.16442E-03 3.96860E-23
4.27757E-03 3.75857E-23
4.39223E-03 3.56218E-23
4.50840E-03 3.37837E-23
4.62608E-03 3.20620E-23
4.74527E-03 3.04479E-23
4.86597E-03 2.89335E-23
4.98817E-03 2.75116E-23
5.11188E-03 2.61754E-23
5.23711E-03 2.49188E-23
5.36383E-03 2.37362E-23
5.49207E-03 2.26225E-23
5.62181E-03 2.15729E-23
5.75306E-03 2.05830E-23
5.88581E-03 1.96489E-23
6.02007E-03 1.87668E-23
6.15583E-03 1.79333E-23
6.29310E-03 1.71452E-23
6.43187E-03 1.63996E-23
6.57214E-03 1.56938E-23
6.71392E-03 1.50253E-23
6.85720E-03 1.43917E-23
7.00198E-03 1.37908E-23
7.14827E-03 1.32208E-23
7.29605E-03 1.26796E-23
7.44534E-03 1.21656E-23
7.59612E-03 1.16772E-23
7.97965E-03 1.05583E-23
8.37255E-03 9.56921E-24
8.77480E-03 8.69222E-24
9.18641E-03 7.91253E-24
9.60736E-03 7.21750E-24
1.00376E-02 6.59639E-24
1.04773E-02 6.03999E-24
1.09262E-02 5.54042E-24
1.13844E-02 5.09088E-24
1.18520E-02 4.68550E-24
1.23288E-02 4.31921E-24
1.28150E-02 3.98759E-24
1.33104E-02 3.68679E-24
1.38150E-02 3.41345E-24
1.43290E-02 3.16465E-24
1.48521E-02 2.93779E-24
1.53845E-02 2.73060E-24
1.59262E-02 2.54110E-24
1.64770E-02 2.36750E-24
1.70371E-02 2.20825E-24
1.76063E-02 2.06195E-24
1.81848E-02 1.92736E-24
1.87724E-02 1.80340E-24
1.93692E-02 1.68906E-24
1.99751E-02 1.58348E-24
2.05901E-02 1.48588E-24
2.12143E-02 1.39553E-24
2.18476E-02 1.31182E-24
2.24900E-02 1.23416E-24
2.31415E-02 1.16205E-24
2.38021E-02 1.09502E-24
2.44717E-02 1.03265E-24
2.51504E-02 9.74558E-25
2.58382E-02 9.20405E-25
2.65349E-02 8.69874E-25
2.72407E-02 8.22683E-25
2.79555E-02 7.78571E-25
2.86793E-02 7.37304E-25
2.94120E-02 6.98667E-25
3.01537E-02 6.62463E-25
3.09043E-02 6.28512E-25
3.16639E-02 5.96650E-25
3.24324E-02 5.66727E-25
3.32098E-02 5.38604E-25
3.39961E-02 5.12155E-25
3.47912E-02 4.87262E-25
3.55952E-02 4.63818E-25
3.64081E-02 4.41726E-25
3.72297E-02 4.20892E-25
3.80602E-02 4.01234E-25
3.88995E-02 3.82674E-25
3.97476E-02 3.65140E-25
4.06044E-02 3.48565E-25
4.14700E-02 3.32889E-25
4.23443E-02 3.18054E-25
4.32273E-02 3.04007E-25
4.41190E-02 2.90700E-25
4.50194E-02 2.78087E-25
4.59284E-02 2.66126E-25
4.68461E-02 2.54777E-25
4.87074E-02 2.33771E-25
5.06030E-02 2.14807E-25
5.25328E-02 1.97655E-25
5.44967E-02 1.82114E-25
5.64946E-02 1.68009E-25
5.85262E-02 1.55187E-25
6.05914E-02 1.43513E-25
6.26901E-02 1.32868E-25
6.48222E-02 1.23147E-25
6.69873E-02 1.14257E-25
6.91854E-02 1.06118E-25
7.14163E-02 9.86545E-26
7.36799E-02 9.18031E-26
7.59760E-02 8.55056E-26
7.83043E-02 7.97104E-26
8.06647E-02 7.43715E-26
8.30571E-02 6.94475E-26
8.54812E-02 6.49012E-26
8.79369E-02 6.06995E-26
9.04240E-02 5.68123E-26
9.29422E-02 5.32125E-26
9.54915E-02 4.98758E-26
9.80716E-02 4.67802E-26
1.00682E-01 4.39056E-26
1.03323E-01 4.12341E-26
1.05995E-01 3.87491E-26
1.08696E-01 3.64359E-26
1.11427E-01 3.42808E-26
1.14188E-01 3.22715E-26
1.16978E-01 3.03967E-26
1.19797E-01 2.86462E-26
1.22645E-01 2.70106E-26
1.25522E-01 2.54813E-26
1.28428E-01 2.40504E-26
1.31361E-01 2.27108E-26
1.34323E-01 2.14558E-26
1.37313E-01 2.02793E-26
1.40330E-01 1.91759E-26
1.43375E-01 1.81403E-26
1.46447E-01 1.71678E-26
1.49545E-01 1.62541E-26
1.52671E-01 1.53951E-26
1.55823E-01 1.45872E-26
1.59001E-01 1.38270E-26
1.62205E-01 1.31112E-26
1.65435E-01 1.24369E-26
1.68690E-01 1.18015E-26
1.71970E-01 1.12023E-26
1.75276E-01 1.06371E-26
1.78606E-01 1.01038E-26
1.81961E-01 9.60024E-27
1.85340E-01 9.12463E-27
1.88743E-01 8.67522E-27
1.92169E-01 8.25039E-27
1.95619E-01 7.84865E-27
1.99092E-01 7.46858E-27
2.02589E-01 7.10890E-27
2.06107E-01 6.76837E-27
2.09649E-01 6.44586E-27
2.13212E-01 6.14032E-27
2.16797E-01 5.85074E-27
2.20404E-01 5.57620E-27
2.24032E-01 5.31583E-27
2.27680E-01 5.06883E-27
2.31350E-01 4.83443E-27
2.35040E-01 4.61192E-27
2.38751E-01 4.40063E-27
2.42481E-01 4.19994E-27
2.46231E-01 4.00926E-27
2.50000E-01 3.82804E-27
2.53788E-01 3.65577E-27
2.57595E-01 3.49194E-27
2.61421E-01 3.33612E-27
2.65264E-01 3.18787E-27
2.69126E-01 3.04678E-27
2.73005E-01 2.91248E-27
2.76901E-01 2.78461E-27
2.80814E-01 2.66283E-27
2.84744E-01 2.54682E-27
2.88691E-01 2.43628E-27
2.92653E-01 2.33094E-27
2.96632E-01 2.23052E-27
3.00625E-01 2.13477E-27
3.04634E-01 2.04346E-27
3.08658E-01 1.95637E-27
3.12697E-01 1.87327E-27
3.16749E-01 1.79398E-27
3.20816E-01 1.71829E-27
3.24896E-01 1.64604E-27
3.28990E-01 1.57706E-27
3.33097E-01 1.51118E-27
3.37216E-01 1.44825E-27
3.41348E-01 1.38813E-27
3.45492E-01 1.33068E-27
3.49647E-01 1.27578E-27
3.53814E-01 1.22331E-27
3.57992E-01 1.17314E-27
3.62181E-01 1.12517E-27
3.66381E-01 1.07929E-27
3.70590E-01 1.03541E-27
3.74810E-01 9.93430E-28
3.79039E-01 9.53266E-28
3.83277E-01 9.14831E-28
3.87524E-01 8.78045E-28
3.91780E-01 8.42833E-28
3.96044E-01 8.09121E-28
4.00316E-01 7.76842E-28
4.04596E-01 7.45931E-28
4.08882E-01 7.16324E-28
4.13176E-01 6.87964E-28
4.17476E-01 6.60794E-28
4.21783E-01 6.34761E-28
4.26095E-01 6.09813E-28
4.30413E-01 5.85903E-28
4.34737E-01 5.62984E-28
4.39065E-01 5.41013E-28
4.43398E-01 5.19947E-28
4.47736E-01 4.99748E-28
4.52077E-01 4.80376E-28
4.56422E-01 4.61797E-28
4.60770E-01 4.43975E-28
4.65122E-01 4.26878E-28
4.69476E-01 4.10474E-28
4.73832E-01 3.94733E-28
4.78190E-01 3.79628E-28
4.82550E-01 3.65130E-28
4.86912E-01 3.51214E-28
4.91274E-01 3.37855E-28
4.95637E-01 3.25029E-28
5.00000E-01 3.12715E-28
5.04363E-01 3.00889E-28
5.08726E-01 2.89533E-28
5.13088E-01 2.78625E-28
5.17450E-01 2.68148E-28
5.21810E-01 2.58083E-28
5.26168E-01 2.48414E-28
5.30524E-01 2.39123E-28
5.34878E-01 2.30195E-28
5.39230E-01 2.21616E-28
5.43578E-01 2.13370E-28
5.47923E-01 2.05444E-28
5.52264E-01 1.97826E-28
5.56602E-01 1.90502E-28
5.60935E-01 1.83460E-28
5.65263E-01 1.76690E-28
5.69587E-01 1.70179E-28
5.73905E-01 1.63918E-28
5.78217E-01 1.57897E-28
5.82524E-01 1.52105E-28
5.86824E-01 1.46534E-28
5.91118E-01 1.41175E-28
5.95404E-01 1.36019E-28
5.99684E-01 1.31058E-28
6.03956E-01 1.26285E-28
6.08220E-01 1.21691E-28
6.12476E-01 1.17271E-28
6.16723E-01 1.13017E-28
6.20961E-01 1.08922E-28
6.25190E-01 1.04980E-28
6.29410E-01 1.01186E-28
6.33619E-01 9.75327E-29
6.37819E-01 9.40156E-29
6.42008E-01 9.06292E-29
6.46186E-01 8.73684E-29
6.50353E-01 8.42282E-29
6.54508E-01 8.12040E-29
6.58652E-01 7.82913E-29
6.62784E-01 7.54858E-29
6.66903E-01 7.27835E-29
6.71010E-01 7.01802E-29
6.75104E-01 6.76722E-29
6.79184E-01 6.52559E-29
6.83251E-01 6.29278E-29
6.87303E-01 6.06844E-29
6.91342E-01 5.85227E-29
6.95366E-01 5.64394E-29
6.99375E-01 5.44316E-29
7.03368E-01 5.24964E-29
7.07347E-01 5.06312E-29
7.11309E-01 4.88332E-29
7.15256E-01 4.70999E-29
7.19186E-01 4.54289E-29
7.23099E-01 4.38179E-29
7.26995E-01 4.22646E-29
7.30874E-01 4.07669E-29
7.34736E-01 3.93226E-29
7.38579E-01 3.79298E-29
7.42405E-01 3.65867E-29
7.46212E-01 3.52912E-29
7.50000E-01 3.40418E-29
7.53769E-01 3.28366E-29
7.57519E-01 3.16741E-29
7.61249E-01 3.05526E-29
7.64960E-01 2.94707E-29
7.68650E-01 2.84269E-29
7.72320E-01 2.74198E-29
7.75968E-01 2.64481E-29
7.79596E-01 2.55105E-29
7.83203E-01 2.46057E-29
7.86788E-01 2.37325E-29
7.90351E-01 2.28899E-29
7.93893E-01 2.20766E-29
7.97411E-01 2.12917E-29
8.00908E-01 2.05340E-29
8.04381E-01 1.98027E-29
8.07831E-01 1.90967E-29
8.11257E-01 1.84152E-29
8.14660E-01 1.77572E-29
8.18039E-01 1.71220E-29
8.21394E-01 1.65087E-29
8.24724E-01 1.59166E-29
8.28030E-01 1.53448E-29
8.31310E-01 1.47927E-29
8.34565E-01 1.42595E-29
8.37795E-01 1.37446E-29
8.40999E-01 1.32474E-29
8.44177E-01 1.27672E-29
8.47329E-01 1.23034E-29
8.50455E-01 1.18554E-29
8.53553E-01 1.14228E-29
8.56625E-01 1.10048E-29
8.59670E-01 1.06011E-29
8.62687E-01 1.02112E-29
8.65677E-01 9.83444E-30
8.68639E-01 9.47051E-30
8.71572E-01 9.11894E-30
8.74478E-01 8.77928E-30
8.77355E-01 8.45113E-30
8.80203E-01 8.13409E-30
8.83022E-01 7.82778E-30
8.85812E-01 7.53183E-30
8.88573E-01 7.24588E-30
8.91304E-01 6.96958E-30
8.94005E-01 6.70262E-30
8.96677E-01 6.44467E-30
8.99318E-01 6.19543E-30
9.01928E-01 5.95459E-30
9.04508E-01 5.72188E-30
9.07058E-01 5.49703E-30
9.09576E-01 5.27976E-30
9.12063E-01 5.06982E-30
9.14519E-01 4.86697E-30
9.16943E-01 4.67096E-30
9.19335E-01 4.48158E-30
9.21696E-01 4.29860E-30
9.24024E-01 4.12182E-30
9.26320E-01 3.95101E-30
9.28584E-01 3.78600E-30
9.30815E-01 3.62659E-30
9.33013E-01 3.47259E-30
9.35178E-01 3.32383E-30
9.37310E-01 3.18015E-30
9.39409E-01 3.04137E-30
9.41474E-01 2.90734E-30
9.43505E-01 2.77791E-30
9.45503E-01 2.65293E-30
9.47467E-01 2.53226E-30
9.49397E-01 2.41577E-30
9.51293E-01 2.30331E-30
9.53154E-01 2.19478E-30
9.54981E-01 2.09005E-30
9.56773E-01 1.98899E-30
9.58530E-01 1.89150E-30
9.60252E-01 1.79747E-30
9.61940E-01 1.70679E-30
9.63592E-01 1.61937E-30
9.65209E-01 1.53510E-30
9.66790E-01 1.45391E-30
9.68336E-01 1.37568E-30
9.69846E-01 1.30035E-30
9.71321E-01 1.22782E-30
9.72759E-01 1.15802E-30
9.74162E-01 1.09087E-30
9.75528E-01 1.02630E-30
9.76858E-01 9.64239E-31
9.78152E-01 9.04617E-31
9.79410E-01 8.47371E-31
9.80631E-01 7.92440E-31
9.81815E-01 7.39763E-31
9.82963E-01 6.89283E-31
9.84074E-01 6.40947E-31
9.85148E-01 5.94702E-31
9.86185E-01 5.50499E-31
9.87185E-01 5.08290E-31
9.88148E-01 4.68030E-31
9.89074E-01 4.29676E-31
9.89962E-01 3.93186E-31
9.90814E-01 3.58523E-31
9.91627E-01 3.25648E-31
9.92404E-01 2.94527E-31
9.93143E-01 2.65127E-31
9.93844E-01 2.37416E-31
9.94508E-01 2.11366E-31
9.95134E-01 1.86947E-31
9.95722E-01 1.64136E-31
9.96273E-01 1.42907E-31
9.96786E-01 1.23237E-31
9.97261E-01 1.05107E-31
9.97698E-01 8.84969E-32
9.98097E-01 7.33892E-32
9.98459E-01 5.97677E-32
9.98782E-01 4.76185E-32
9.99067E-01 3.69283E-32
9.99315E-01 2.76863E-32
9.99524E-01 1.98826E-32
9.99695E-01 1.35088E-32
9.99829E-01 8.55844E-33
9.99924E-01 5.02616E-33
9.99981E-01 2.90829E-33
1.00000E+00 2.20238E-33
