 #
 # Subroutine ELSEPA. Elastic scattering of electrons and positrons
 #                    by neutral atoms and positive ions
 #
 # Projectile: positron
 # Kinetic energy = 5.00000E+08 eV = 1.83747E+07 a.u.
 #
 # WARNING: High-energy factorization with free-atom DF screening.
 #          Absorption, polarization and exchange corrections are
 #          switched off.
 #          Phase shifts are calculated for the bare nucleus.
 #          Scattering amplitudes are not evaluated.
 #
 # Element: Zn,  Z =  30,  atomic weight = 6.53900E+01 g/mol
 #
 # Nuclear model: Fermi distribution
 #                Average radius = 4.31076E-13 cm
 #                Skin thickness = 5.46000E-14 cm
 #
 # Number of electrons = 30
 #
 # Total elastic cross section = 1.97109E-18 cm**2 = 7.03889E-02 a0**2
 # 1st transport cross section = 7.33805E-27 cm**2 = 2.62046E-10 a0**2
 # 2nd transport cross section = 2.20036E-26 cm**2 = 7.85762E-10 a0**2
 #
 #
 # Differential cross section:                       MU=(1-COS(THETA))/2
 #
 #  THETA        MU          DCS          DCS        Sherman      error
 #  (deg)                 (cm**2/sr)   (a0**2/sr)    function
 #----------------------------------------------------------------------
0.00000E+00 3.47733E-09
7.61557E-13 3.28444E-09
1.18994E-12 3.18348E-09
1.71346E-12 3.06737E-09
2.33225E-12 2.93929E-09
3.04617E-12 2.80266E-09
3.85530E-12 2.66073E-09
4.75964E-12 2.51646E-09
5.75917E-12 2.37242E-09
6.85391E-12 2.23049E-09
8.04379E-12 2.09254E-09
9.32893E-12 1.96003E-09
1.07092E-11 1.83390E-09
1.21847E-11 1.71473E-09
1.37554E-11 1.60282E-09
1.54213E-11 1.49824E-09
1.71823E-11 1.40090E-09
1.90386E-11 1.31056E-09
2.09900E-11 1.22691E-09
2.30367E-11 1.14958E-09
2.51785E-11 1.07812E-09
2.74156E-11 1.01206E-09
2.97478E-11 9.51094E-10
3.21752E-11 8.94811E-10
3.46979E-11 8.42818E-10
3.73157E-11 7.94748E-10
4.00286E-11 7.50260E-10
4.28368E-11 7.09035E-10
4.57402E-11 6.70786E-10
4.87388E-11 6.35247E-10
5.18325E-11 6.02180E-10
5.50215E-11 5.71366E-10
5.83057E-11 5.42555E-10
6.16850E-11 5.15623E-10
6.51595E-11 4.90419E-10
6.87293E-11 4.66798E-10
7.23943E-11 4.44630E-10
7.61544E-11 4.23799E-10
1.18991E-10 2.66201E-10
1.71347E-10 1.76212E-10
2.33223E-10 1.19480E-10
3.04617E-10 8.25367E-11
3.85531E-10 5.79985E-11
4.75965E-10 4.14567E-11
5.75917E-10 3.01541E-11
6.85389E-10 2.23098E-11
8.04380E-10 1.68041E-11
9.32891E-10 1.28824E-11
1.07092E-09 1.00410E-11
1.21847E-09 7.94786E-12
1.37554E-09 6.38073E-12
1.54213E-09 5.18903E-12
1.71823E-09 4.26931E-12
1.90386E-09 3.54955E-12
2.09900E-09 2.97896E-12
2.30367E-09 2.52122E-12
2.51785E-09 2.14943E-12
2.74156E-09 1.84467E-12
2.97478E-09 1.59279E-12
3.21752E-09 1.38288E-12
3.46978E-09 1.20663E-12
3.73156E-09 1.05761E-12
4.00286E-09 9.30826E-13
4.28368E-09 8.22358E-13
4.57402E-09 7.29087E-13
4.87388E-09 6.48518E-13
5.18326E-09 5.78635E-13
5.50215E-09 5.17790E-13
5.83057E-09 4.64593E-13
6.16850E-09 4.17960E-13
6.51596E-09 3.76955E-13
6.87293E-09 3.40786E-13
7.23942E-09 3.08791E-13
7.61544E-09 2.80410E-13
1.18991E-08 1.18515E-13
1.71347E-08 5.81558E-14
2.33223E-08 3.17917E-14
3.04617E-08 1.88343E-14
3.85531E-08 1.18676E-14
4.75965E-08 7.84917E-15
5.75917E-08 5.39800E-15
6.85389E-08 3.83338E-15
8.04380E-08 2.79668E-15
9.32891E-08 2.08773E-15
1.07092E-07 1.58961E-15
1.21847E-07 1.23142E-15
1.37554E-07 9.68557E-16
1.54213E-07 7.72150E-16
1.71823E-07 6.23027E-16
1.90386E-07 5.08185E-16
2.09900E-07 4.18595E-16
2.30367E-07 3.47881E-16
2.51785E-07 2.91472E-16
2.74156E-07 2.46035E-16
2.97478E-07 2.09108E-16
3.21752E-07 1.78849E-16
3.46978E-07 1.53866E-16
3.73156E-07 1.33093E-16
4.00286E-07 1.15708E-16
4.28368E-07 1.01069E-16
4.57402E-07 8.86715E-17
4.87388E-07 7.81171E-17
5.18325E-07 6.90863E-17
5.50215E-07 6.13229E-17
5.83057E-07 5.46195E-17
6.16850E-07 4.88070E-17
6.51596E-07 4.37472E-17
6.87293E-07 3.93261E-17
7.23942E-07 3.54494E-17
7.61543E-07 3.20387E-17
1.18991E-06 1.31316E-17
1.71347E-06 6.33429E-18
2.33223E-06 3.41935E-18
3.04617E-06 2.00435E-18
3.85531E-06 1.25124E-18
4.75964E-06 8.20881E-19
5.75916E-06 5.60623E-19
6.85388E-06 3.95799E-19
8.04378E-06 2.87329E-19
9.32888E-06 2.13596E-19
1.07092E-05 1.62066E-19
1.21846E-05 1.25177E-19
1.37553E-05 9.82109E-20
1.54212E-05 7.81293E-20
1.71822E-05 6.29270E-20
1.90385E-05 5.12441E-20
2.09899E-05 4.21589E-20
2.30365E-05 3.49992E-20
2.51783E-05 2.92949E-20
2.74153E-05 2.47052E-20
2.97475E-05 2.09793E-20
3.21749E-05 1.79298E-20
3.46974E-05 1.54150E-20
3.73152E-05 1.33264E-20
4.00281E-05 1.15801E-20
4.28362E-05 1.01107E-20
4.57395E-05 8.86712E-21
4.87380E-05 7.80879E-21
5.18317E-05 6.90355E-21
5.50205E-05 6.12563E-21
5.83045E-05 5.45417E-21
6.16838E-05 4.87223E-21
6.51582E-05 4.36589E-21
6.87277E-05 3.92367E-21
7.23925E-05 3.53607E-21
7.61524E-05 3.18212E-21
9.21439E-05 2.16963E-21
1.09658E-04 1.52892E-21
1.28695E-04 1.10772E-21
1.49255E-04 8.21642E-22
1.71338E-04 6.21949E-22
1.94942E-04 4.79154E-22
2.20070E-04 3.74898E-22
2.46720E-04 2.97366E-22
2.74892E-04 2.38754E-22
3.04586E-04 1.93798E-22
3.35803E-04 1.58858E-22
3.68542E-04 1.31380E-22
4.02802E-04 1.09536E-22
4.38585E-04 9.19987E-23
4.75889E-04 7.77935E-23
5.14715E-04 6.61909E-23
5.55063E-04 5.66423E-23
5.96931E-04 4.87282E-23
6.40321E-04 4.21260E-23
6.85233E-04 3.65849E-23
7.31665E-04 3.19078E-23
7.79618E-04 2.79392E-23
8.29092E-04 2.45551E-23
8.80086E-04 2.16560E-23
9.32601E-04 1.91616E-23
9.86636E-04 1.70065E-23
1.04219E-03 1.51375E-23
1.09927E-03 1.35106E-23
1.15786E-03 1.20895E-23
1.21797E-03 1.08443E-23
1.27961E-03 9.74967E-24
1.34276E-03 8.78468E-24
1.40743E-03 7.93156E-24
1.47362E-03 7.17537E-24
1.54133E-03 6.50337E-24
1.61056E-03 5.90478E-24
1.68131E-03 5.37034E-24
1.75357E-03 4.89213E-24
1.82735E-03 4.46335E-24
1.90265E-03 4.07810E-24
1.97947E-03 3.73132E-24
2.05780E-03 3.41858E-24
2.13765E-03 3.13606E-24
2.21902E-03 2.88039E-24
2.30190E-03 2.64865E-24
2.38630E-03 2.43829E-24
2.47222E-03 2.24703E-24
2.55965E-03 2.07291E-24
2.64859E-03 1.91415E-24
2.73905E-03 1.76922E-24
2.83103E-03 1.63675E-24
2.92452E-03 1.51551E-24
3.01952E-03 1.40442E-24
3.11604E-03 1.30251E-24
3.21407E-03 1.20893E-24
3.31362E-03 1.12290E-24
3.41468E-03 1.04373E-24
3.51725E-03 9.70809E-25
3.62133E-03 9.03571E-25
3.72692E-03 8.41519E-25
3.83403E-03 7.84204E-25
3.94265E-03 7.31217E-25
4.05278E-03 6.82192E-25
4.16442E-03 6.36797E-25
4.27757E-03 5.94730E-25
4.39223E-03 5.55718E-25
4.50840E-03 5.19513E-25
4.62608E-03 4.85891E-25
4.74527E-03 4.54645E-25
4.86597E-03 4.25589E-25
4.98817E-03 3.98553E-25
5.11188E-03 3.73380E-25
5.23711E-03 3.49929E-25
5.36383E-03 3.28069E-25
5.49207E-03 3.07682E-25
5.62181E-03 2.88658E-25
5.75306E-03 2.70896E-25
5.88581E-03 2.54305E-25
6.02007E-03 2.38800E-25
6.15583E-03 2.24304E-25
6.29310E-03 2.10744E-25
6.43187E-03 1.98055E-25
6.57214E-03 1.86175E-25
6.71392E-03 1.75049E-25
6.85720E-03 1.64625E-25
7.00198E-03 1.54855E-25
7.14827E-03 1.45694E-25
7.29605E-03 1.37102E-25
7.44534E-03 1.29039E-25
7.59612E-03 1.21473E-25
7.97965E-03 1.04513E-25
8.37255E-03 9.00022E-26
8.77480E-03 7.75646E-26
9.18641E-03 6.68882E-26
9.60736E-03 5.77110E-26
1.00376E-02 4.98130E-26
1.04773E-02 4.30083E-26
1.09262E-02 3.71401E-26
1.13844E-02 3.20752E-26
1.18520E-02 2.77006E-26
1.23288E-02 2.39199E-26
1.28150E-02 2.06510E-26
1.33104E-02 1.78234E-26
1.38150E-02 1.53770E-26
1.43290E-02 1.32599E-26
1.48521E-02 1.14278E-26
1.53845E-02 9.84230E-27
1.59262E-02 8.47041E-27
1.64770E-02 7.28362E-27
1.70371E-02 6.25728E-27
1.76063E-02 5.37009E-27
1.81848E-02 4.60357E-27
1.87724E-02 3.94172E-27
1.93692E-02 3.37065E-27
1.99751E-02 2.87832E-27
2.05901E-02 2.45427E-27
2.12143E-02 2.08940E-27
2.18476E-02 1.77580E-27
2.24900E-02 1.50662E-27
2.31415E-02 1.27588E-27
2.38021E-02 1.07838E-27
2.44717E-02 9.09619E-28
2.51504E-02 7.65660E-28
2.58382E-02 6.43095E-28
2.65349E-02 5.38961E-28
2.72407E-02 4.50684E-28
2.79555E-02 3.76029E-28
2.86793E-02 3.13058E-28
2.94120E-02 2.60091E-28
3.01537E-02 2.15674E-28
3.09043E-02 1.78548E-28
3.16639E-02 1.47625E-28
3.24324E-02 1.21968E-28
3.32098E-02 1.00768E-28
3.39961E-02 8.33271E-29
3.47912E-02 6.90491E-29
3.55952E-02 5.74212E-29
3.64081E-02 4.80049E-29
3.72297E-02 4.04258E-29
3.80602E-02 3.43656E-29
3.88995E-02 2.95536E-29
3.97476E-02 2.57612E-29
4.06044E-02 2.27953E-29
4.14700E-02 2.04939E-29
4.23443E-02 1.87214E-29
4.32273E-02 1.73652E-29
4.41190E-02 1.63319E-29
4.50194E-02 1.55448E-29
4.59284E-02 1.49413E-29
4.68461E-02 1.44709E-29
4.87074E-02 1.37754E-29
5.06030E-02 1.32279E-29
5.25328E-02 1.26936E-29
5.44967E-02 1.21028E-29
5.64946E-02 1.14286E-29
5.85262E-02 1.06707E-29
6.05914E-02 9.84396E-30
6.26901E-02 8.97086E-30
6.48222E-02 8.07618E-30
6.69873E-02 7.18379E-30
6.91854E-02 6.31472E-30
7.14163E-02 5.48617E-30
7.36799E-02 4.71125E-30
7.59760E-02 3.99904E-30
7.83043E-02 3.35495E-30
8.06647E-02 2.78126E-30
8.30571E-02 2.27764E-30
8.54812E-02 1.84171E-30
8.79369E-02 1.46957E-30
9.04240E-02 1.15630E-30
9.29422E-02 8.96315E-31
9.54915E-02 6.83717E-31
9.80716E-02 5.12579E-31
1.00682E-01 3.77137E-31
1.03323E-01 2.71944E-31
1.05995E-01 1.91976E-31
1.08696E-01 1.32690E-31
1.11427E-01 9.00618E-32
1.14188E-01 6.05849E-32
1.16978E-01 4.12598E-32
1.19797E-01 2.95643E-32
1.22645E-01 2.34158E-32
1.25522E-01 2.11278E-32
1.28428E-01 2.13634E-32
1.31361E-01 2.30887E-32
1.34323E-01 2.55273E-32
1.37313E-01 2.81177E-32
1.40330E-01 3.04743E-32
1.43375E-01 3.23522E-32
1.46447E-01 3.36163E-32
1.49545E-01 3.42146E-32
1.52671E-01 3.41560E-32
1.55823E-01 3.34911E-32
1.59001E-01 3.22977E-32
1.62205E-01 3.06683E-32
1.65435E-01 2.87011E-32
1.68690E-01 2.64934E-32
1.71970E-01 2.41360E-32
1.75276E-01 2.17109E-32
1.78606E-01 1.92888E-32
1.81961E-01 1.69284E-32
1.85340E-01 1.46764E-32
1.88743E-01 1.25680E-32
1.92169E-01 1.06278E-32
1.95619E-01 8.87118E-33
1.99092E-01 7.30506E-33
2.02589E-01 5.92983E-33
2.06107E-01 4.74040E-33
2.09649E-01 3.72746E-33
2.13212E-01 2.87865E-33
2.16797E-01 2.17957E-33
2.20404E-01 1.61462E-33
2.24032E-01 1.16774E-33
2.27680E-01 8.22975E-34
2.31350E-01 5.64978E-34
2.35040E-01 3.79311E-34
2.38751E-01 2.52700E-34
2.42481E-01 1.73181E-34
2.46231E-01 1.30183E-34
2.50000E-01 1.14534E-34
2.53788E-01 1.18436E-34
2.57595E-01 1.35394E-34
2.61421E-01 1.60118E-34
2.65264E-01 1.88415E-34
2.69126E-01 2.17064E-34
2.73005E-01 2.43695E-34
2.76901E-01 2.66660E-34
2.80814E-01 2.84918E-34
2.84744E-01 2.97920E-34
2.88691E-01 3.05511E-34
2.92653E-01 3.07837E-34
2.96632E-01 3.05263E-34
3.00625E-01 2.98311E-34
3.04634E-01 2.87592E-34
3.08658E-01 2.73772E-34
3.12697E-01 2.57521E-34
3.16749E-01 2.39493E-34
3.20816E-01 2.20301E-34
3.24896E-01 2.00499E-34
3.28990E-01 1.80580E-34
3.33097E-01 1.60963E-34
3.37216E-01 1.41996E-34
3.41348E-01 1.23955E-34
3.45492E-01 1.07051E-34
3.49647E-01 9.14353E-35
3.53814E-01 7.72002E-35
3.57992E-01 6.43919E-35
3.62181E-01 5.30163E-35
3.66381E-01 4.30442E-35
3.70590E-01 3.44195E-35
3.74810E-01 2.70652E-35
3.79039E-01 2.08891E-35
3.83277E-01 1.57892E-35
3.87524E-01 1.16571E-35
3.91780E-01 8.38273E-36
3.96044E-01 5.85752E-36
4.00316E-01 3.97595E-36
4.04596E-01 2.63843E-36
4.08882E-01 1.75215E-36
4.13176E-01 1.23224E-36
4.17476E-01 1.00224E-36
4.21783E-01 9.94482E-37
4.26095E-01 1.14994E-36
4.30413E-01 1.41811E-36
4.34737E-01 1.75640E-36
4.39065E-01 2.12980E-36
4.43398E-01 2.51011E-36
4.47736E-01 2.87533E-36
4.52077E-01 3.20894E-36
4.56422E-01 3.49922E-36
4.60770E-01 3.73848E-36
4.65122E-01 3.92256E-36
4.69476E-01 4.05007E-36
4.73832E-01 4.12185E-36
4.78190E-01 4.14060E-36
4.82550E-01 4.11028E-36
4.86912E-01 4.03580E-36
4.91274E-01 3.92261E-36
4.95637E-01 3.77649E-36
5.00000E-01 3.60328E-36
5.04363E-01 3.40879E-36
5.08726E-01 3.19836E-36
5.13088E-01 2.97734E-36
5.17450E-01 2.75018E-36
5.21810E-01 2.52123E-36
5.26168E-01 2.29410E-36
5.30524E-01 2.07186E-36
5.34878E-01 1.85719E-36
5.39230E-01 1.65218E-36
5.43578E-01 1.45850E-36
5.47923E-01 1.27732E-36
5.52264E-01 1.10953E-36
5.56602E-01 9.55465E-37
5.60935E-01 8.15399E-37
5.65263E-01 6.89173E-37
5.69587E-01 5.76498E-37
5.73905E-01 4.76886E-37
5.78217E-01 3.89637E-37
5.82524E-01 3.14068E-37
5.86824E-01 2.49333E-37
5.91118E-01 1.94574E-37
5.95404E-01 1.48881E-37
5.99684E-01 1.11384E-37
6.03956E-01 8.11690E-38
6.08220E-01 5.74018E-38
6.12476E-01 3.92504E-38
6.16723E-01 2.59464E-38
6.20961E-01 1.67632E-38
6.25190E-01 1.10331E-38
6.29410E-01 8.15595E-39
6.33619E-01 7.57126E-39
6.37819E-01 8.79258E-39
6.42008E-01 1.13852E-38
6.46186E-01 1.49688E-38
6.50353E-01 1.92180E-38
6.54508E-01 2.38547E-38
6.58652E-01 2.86470E-38
6.62784E-01 3.34006E-38
6.66903E-01 3.79708E-38
6.71010E-01 4.22247E-38
6.75104E-01 4.60893E-38
6.79184E-01 4.94926E-38
6.83251E-01 5.23898E-38
6.87303E-01 5.47674E-38
6.91342E-01 5.66099E-38
6.95366E-01 5.79324E-38
6.99375E-01 5.87552E-38
7.03368E-01 5.90988E-38
7.07347E-01 5.89879E-38
7.11309E-01 5.84669E-38
7.15256E-01 5.75813E-38
7.19186E-01 5.63607E-38
7.23099E-01 5.48583E-38
7.26995E-01 5.31121E-38
7.30874E-01 5.11538E-38
7.34736E-01 4.90365E-38
7.38579E-01 4.67835E-38
7.42405E-01 4.44397E-38
7.46212E-01 4.20306E-38
7.50000E-01 3.95869E-38
7.53769E-01 3.71329E-38
7.57519E-01 3.46934E-38
7.61249E-01 3.22954E-38
7.64960E-01 2.99521E-38
7.68650E-01 2.76773E-38
7.72320E-01 2.54747E-38
7.75968E-01 2.33695E-38
7.79596E-01 2.13544E-38
7.83203E-01 1.94493E-38
7.86788E-01 1.76473E-38
7.90351E-01 1.59537E-38
7.93893E-01 1.43666E-38
7.97411E-01 1.28892E-38
8.00908E-01 1.15178E-38
8.04381E-01 1.02527E-38
8.07831E-01 9.08642E-39
8.11257E-01 8.02033E-39
8.14660E-01 7.04300E-39
8.18039E-01 6.15604E-39
8.21394E-01 5.35491E-39
8.24724E-01 4.63348E-39
8.28030E-01 3.98619E-39
8.31310E-01 3.40900E-39
8.34565E-01 2.89595E-39
8.37795E-01 2.44369E-39
8.40999E-01 2.04588E-39
8.44177E-01 1.69807E-39
8.47329E-01 1.39665E-39
8.50455E-01 1.13736E-39
8.53553E-01 9.14576E-40
8.56625E-01 7.25827E-40
8.59670E-01 5.66991E-40
8.62687E-01 4.35926E-40
8.65677E-01 1.00000E-45
8.68639E-01 1.00000E-45
8.71572E-01 1.00000E-45
8.74478E-01 1.00000E-45
8.77355E-01 1.00000E-45
8.80203E-01 1.00000E-45
8.83022E-01 1.00000E-45
8.85812E-01 1.00000E-45
8.88573E-01 1.00000E-45
8.91304E-01 1.00000E-45
8.94005E-01 1.00000E-45
8.96677E-01 1.00000E-45
8.99318E-01 1.00000E-45
9.01928E-01 1.00000E-45
9.04508E-01 1.00000E-45
9.07058E-01 1.00000E-45
9.09576E-01 1.00000E-45
9.12063E-01 1.00000E-45
9.14519E-01 1.00000E-45
9.16943E-01 1.00000E-45
9.19335E-01 1.00000E-45
9.21696E-01 1.00000E-45
9.24024E-01 1.00000E-45
9.26320E-01 1.00000E-45
9.28584E-01 1.00000E-45
9.30815E-01 1.00000E-45
9.33013E-01 1.00000E-45
9.35178E-01 1.00000E-45
9.37310E-01 1.00000E-45
9.39409E-01 1.00000E-45
9.41474E-01 1.00000E-45
9.43505E-01 1.00000E-45
9.45503E-01 1.00000E-45
9.47467E-01 1.00000E-45
9.49397E-01 1.00000E-45
9.51293E-01 1.00000E-45
9.53154E-01 1.00000E-45
9.54981E-01 1.00000E-45
9.56773E-01 1.00000E-45
9.58530E-01 1.00000E-45
9.60252E-01 1.00000E-45
9.61940E-01 1.00000E-45
9.63592E-01 1.00000E-45
9.65209E-01 1.00000E-45
9.66790E-01 1.00000E-45
9.68336E-01 1.00000E-45
9.69846E-01 1.00000E-45
9.71321E-01 1.00000E-45
9.72759E-01 1.00000E-45
9.74162E-01 1.00000E-45
9.75528E-01 1.00000E-45
9.76858E-01 1.00000E-45
9.78152E-01 1.00000E-45
9.79410E-01 1.00000E-45
9.80631E-01 1.00000E-45
9.81815E-01 1.00000E-45
9.82963E-01 1.00000E-45
9.84074E-01 1.00000E-45
9.85148E-01 1.00000E-45
9.86185E-01 1.00000E-45
9.87185E-01 1.00000E-45
9.88148E-01 1.00000E-45
9.89074E-01 1.00000E-45
9.89962E-01 1.00000E-45
9.90814E-01 1.00000E-45
9.91627E-01 1.00000E-45
9.92404E-01 1.00000E-45
9.93143E-01 1.00000E-45
9.93844E-01 1.00000E-45
9.94508E-01 1.00000E-45
9.95134E-01 1.00000E-45
9.95722E-01 1.00000E-45
9.96273E-01 1.00000E-45
9.96786E-01 1.00000E-45
9.97261E-01 1.00000E-45
9.97698E-01 1.00000E-45
9.98097E-01 1.00000E-45
9.98459E-01 1.00000E-45
9.98782E-01 1.00000E-45
9.99067E-01 1.00000E-45
9.99315E-01 1.00000E-45
9.99524E-01 1.00000E-45
9.99695E-01 1.00000E-45
9.99829E-01 1.00000E-45
9.99924E-01 1.00000E-45
9.99981E-01 1.00000E-45
1.00000E+00 1.00000E-45
