 #
 # Subroutine ELSEPA. Elastic scattering of electrons and positrons
 #                    by neutral atoms and positive ions
 #
 # Projectile: positron
 # Kinetic energy = 7.00000E+06 eV = 2.57245E+05 a.u.
 #
 # WARNING: High-energy factorization with free-atom DF screening.
 #          Absorption, polarization and exchange corrections are
 #          switched off.
 #          Phase shifts are calculated for the bare nucleus.
 #          Scattering amplitudes are not evaluated.
 #
 # Element: Zn,  Z =  30,  atomic weight = 6.53900E+01 g/mol
 #
 # Nuclear model: Fermi distribution
 #                Average radius = 4.31076E-13 cm
 #                Skin thickness = 5.46000E-14 cm
 #
 # Number of electrons = 30
 #
 # Total elastic cross section = 1.98092E-18 cm**2 = 7.07398E-02 a0**2
 # 1st transport cross section = 2.34791E-23 cm**2 = 8.38453E-07 a0**2
 # 2nd transport cross section = 6.77927E-23 cm**2 = 2.42092E-06 a0**2
 #
 #
 # Differential cross section:                       MU=(1-COS(THETA))/2
 #
 #  THETA        MU          DCS          DCS        Sherman      error
 #  (deg)                 (cm**2/sr)   (a0**2/sr)    function
 #----------------------------------------------------------------------
0.00000E+00 7.83094E-13
7.61557E-13 7.83083E-13
1.18994E-12 7.83077E-13
1.71346E-12 7.83070E-13
2.33225E-12 7.83061E-13
3.04617E-12 7.83051E-13
3.85530E-12 7.83040E-13
4.75964E-12 7.83028E-13
5.75917E-12 7.83014E-13
6.85391E-12 7.82999E-13
8.04379E-12 7.82983E-13
9.32893E-12 7.82966E-13
1.07092E-11 7.82947E-13
1.21847E-11 7.82927E-13
1.37554E-11 7.82906E-13
1.54213E-11 7.82883E-13
1.71823E-11 7.82859E-13
1.90386E-11 7.82834E-13
2.09900E-11 7.82808E-13
2.30367E-11 7.82780E-13
2.51785E-11 7.82751E-13
2.74156E-11 7.82721E-13
2.97478E-11 7.82689E-13
3.21752E-11 7.82657E-13
3.46979E-11 7.82623E-13
3.73157E-11 7.82587E-13
4.00286E-11 7.82551E-13
4.28368E-11 7.82513E-13
4.57402E-11 7.82474E-13
4.87388E-11 7.82434E-13
5.18325E-11 7.82392E-13
5.50215E-11 7.82349E-13
5.83057E-11 7.82305E-13
6.16850E-11 7.82259E-13
6.51595E-11 7.82213E-13
6.87293E-11 7.82165E-13
7.23943E-11 7.82115E-13
7.61544E-11 7.82065E-13
1.18991E-10 7.81490E-13
1.71347E-10 7.80789E-13
2.33223E-10 7.79962E-13
3.04617E-10 7.79010E-13
3.85531E-10 7.77933E-13
4.75965E-10 7.76734E-13
5.75917E-10 7.75412E-13
6.85389E-10 7.73968E-13
8.04380E-10 7.72405E-13
9.32891E-10 7.70722E-13
1.07092E-09 7.68922E-13
1.21847E-09 7.67006E-13
1.37554E-09 7.64975E-13
1.54213E-09 7.62831E-13
1.71823E-09 7.60576E-13
1.90386E-09 7.58211E-13
2.09900E-09 7.55739E-13
2.30367E-09 7.53161E-13
2.51785E-09 7.50478E-13
2.74156E-09 7.47694E-13
2.97478E-09 7.44810E-13
3.21752E-09 7.41828E-13
3.46978E-09 7.38752E-13
3.73156E-09 7.35581E-13
4.00286E-09 7.32320E-13
4.28368E-09 7.28946E-13
4.57402E-09 7.25482E-13
4.87388E-09 7.21945E-13
5.18326E-09 7.18338E-13
5.50215E-09 7.14663E-13
5.83057E-09 7.10925E-13
6.16850E-09 7.07127E-13
6.51596E-09 7.03232E-13
6.87293E-09 6.99222E-13
7.23942E-09 6.95159E-13
7.61544E-09 6.91048E-13
1.18991E-08 6.47175E-13
1.71347E-08 5.99702E-13
2.33223E-08 5.50939E-13
3.04617E-08 5.02956E-13
3.85531E-08 4.56827E-13
4.75965E-08 4.13716E-13
5.75917E-08 3.74164E-13
6.85389E-08 3.38122E-13
8.04380E-08 3.05815E-13
9.32891E-08 2.76972E-13
1.07092E-07 2.51270E-13
1.21847E-07 2.28508E-13
1.37554E-07 2.08287E-13
1.54213E-07 1.90329E-13
1.71823E-07 1.74391E-13
1.90386E-07 1.60140E-13
2.09900E-07 1.47417E-13
2.30367E-07 1.36023E-13
2.51785E-07 1.25739E-13
2.74156E-07 1.16477E-13
2.97478E-07 1.08087E-13
3.21752E-07 1.00452E-13
3.46978E-07 9.35116E-14
3.73156E-07 8.71570E-14
4.00286E-07 8.13354E-14
4.28368E-07 7.56063E-14
4.57402E-07 7.03351E-14
4.87388E-07 6.56446E-14
5.18325E-07 6.14572E-14
5.50215E-07 5.77067E-14
5.83057E-07 5.43373E-14
6.16850E-07 5.13013E-14
6.51596E-07 4.82937E-14
6.87293E-07 4.51851E-14
7.23942E-07 4.23805E-14
7.61543E-07 3.98436E-14
1.18991E-06 2.24633E-14
1.71347E-06 1.31301E-14
2.33223E-06 7.97065E-15
3.04617E-06 5.05159E-15
3.85531E-06 3.32461E-15
4.75964E-06 2.27377E-15
5.75916E-06 1.61010E-15
6.85388E-06 1.17476E-15
8.04378E-06 8.80099E-16
9.32888E-06 6.74228E-16
1.07092E-05 5.26250E-16
1.21846E-05 4.17387E-16
1.37553E-05 3.35565E-16
1.54212E-05 2.72968E-16
1.71822E-05 2.24365E-16
1.90385E-05 1.85995E-16
2.09899E-05 1.55462E-16
2.30365E-05 1.30882E-16
2.51783E-05 1.10882E-16
2.74153E-05 9.45174E-17
2.97475E-05 8.10200E-17
3.21749E-05 6.98099E-17
3.46974E-05 6.04525E-17
3.73152E-05 5.25890E-17
4.00281E-05 4.59491E-17
4.28362E-05 4.02980E-17
4.57395E-05 3.54912E-17
4.87380E-05 3.13910E-17
5.18317E-05 2.78463E-17
5.50205E-05 2.47870E-17
5.83045E-05 2.21418E-17
6.16838E-05 1.98308E-17
6.51582E-05 1.78149E-17
6.87277E-05 1.60519E-17
7.23925E-05 1.44976E-17
7.61524E-05 1.31283E-17
9.21439E-05 9.03421E-18
1.09658E-04 6.41982E-18
1.28695E-04 4.68867E-18
1.49255E-04 3.50474E-18
1.71338E-04 2.67260E-18
1.94942E-04 2.07383E-18
2.20070E-04 1.63385E-18
2.46720E-04 1.30464E-18
2.74892E-04 1.05435E-18
3.04586E-04 8.61235E-19
3.35803E-04 7.10343E-19
3.68542E-04 5.91066E-19
4.02802E-04 4.95747E-19
4.38585E-04 4.18865E-19
4.75889E-04 3.56295E-19
5.14715E-04 3.04953E-19
5.55063E-04 2.62519E-19
5.96931E-04 2.27195E-19
6.40321E-04 1.97602E-19
6.85233E-04 1.72664E-19
7.31665E-04 1.51527E-19
7.79618E-04 1.33519E-19
8.29092E-04 1.18103E-19
8.80086E-04 1.04841E-19
9.32601E-04 9.33861E-20
9.86636E-04 8.34490E-20
1.04219E-03 7.47956E-20
1.09927E-03 6.72325E-20
1.15786E-03 6.05990E-20
1.21797E-03 5.47616E-20
1.27961E-03 4.96087E-20
1.34276E-03 4.50461E-20
1.40743E-03 4.09949E-20
1.47362E-03 3.73879E-20
1.54133E-03 3.41678E-20
1.61056E-03 3.12862E-20
1.68131E-03 2.87013E-20
1.75357E-03 2.63772E-20
1.82735E-03 2.42830E-20
1.90265E-03 2.23920E-20
1.97947E-03 2.06810E-20
2.05780E-03 1.91300E-20
2.13765E-03 1.77212E-20
2.21902E-03 1.64395E-20
2.30190E-03 1.52712E-20
2.38630E-03 1.42046E-20
2.47222E-03 1.32293E-20
2.55965E-03 1.23360E-20
2.64859E-03 1.15166E-20
2.73905E-03 1.07640E-20
2.83103E-03 1.00716E-20
2.92452E-03 9.43393E-21
3.01952E-03 8.84576E-21
3.11604E-03 8.30258E-21
3.21407E-03 7.80033E-21
3.31362E-03 7.33539E-21
3.41468E-03 6.90446E-21
3.51725E-03 6.50463E-21
3.62133E-03 6.13324E-21
3.72692E-03 5.78789E-21
3.83403E-03 5.46644E-21
3.94265E-03 5.16692E-21
4.05278E-03 4.88758E-21
4.16442E-03 4.62679E-21
4.27757E-03 4.38312E-21
4.39223E-03 4.15523E-21
4.50840E-03 3.94191E-21
4.62608E-03 3.74205E-21
4.74527E-03 3.55466E-21
4.86597E-03 3.37882E-21
4.98817E-03 3.21367E-21
5.11188E-03 3.05846E-21
5.23711E-03 2.91248E-21
5.36383E-03 2.77507E-21
5.49207E-03 2.64564E-21
5.62181E-03 2.52364E-21
5.75306E-03 2.40857E-21
5.88581E-03 2.29996E-21
6.02007E-03 2.19738E-21
6.15583E-03 2.10043E-21
6.29310E-03 2.00875E-21
6.43187E-03 1.92200E-21
6.57214E-03 1.83986E-21
6.71392E-03 1.76205E-21
6.85720E-03 1.68830E-21
7.00198E-03 1.61834E-21
7.14827E-03 1.55196E-21
7.29605E-03 1.48893E-21
7.44534E-03 1.42906E-21
7.59612E-03 1.37215E-21
7.97965E-03 1.24175E-21
8.37255E-03 1.12642E-21
8.77480E-03 1.02412E-21
9.18641E-03 9.33130E-22
9.60736E-03 8.51980E-22
1.00376E-02 7.79425E-22
1.04773E-02 7.14398E-22
1.09262E-02 6.55982E-22
1.13844E-02 6.03391E-22
1.18520E-02 5.55941E-22
1.23288E-02 5.13042E-22
1.28150E-02 4.74183E-22
1.33104E-02 4.38916E-22
1.38150E-02 4.06851E-22
1.43290E-02 3.77647E-22
1.48521E-02 3.51002E-22
1.53845E-02 3.26655E-22
1.59262E-02 3.04370E-22
1.64770E-02 2.83944E-22
1.70371E-02 2.65193E-22
1.76063E-02 2.47955E-22
1.81848E-02 2.32088E-22
1.87724E-02 2.17462E-22
1.93692E-02 2.03963E-22
1.99751E-02 1.91490E-22
2.05901E-02 1.79949E-22
2.12143E-02 1.69260E-22
2.18476E-02 1.59347E-22
2.24900E-02 1.50145E-22
2.31415E-02 1.41593E-22
2.38021E-02 1.33637E-22
2.44717E-02 1.26229E-22
2.51504E-02 1.19323E-22
2.58382E-02 1.12880E-22
2.65349E-02 1.06863E-22
2.72407E-02 1.01238E-22
2.79555E-02 9.59763E-23
2.86793E-02 9.10493E-23
2.94120E-02 8.64319E-23
3.01537E-02 8.21014E-23
3.09043E-02 7.80366E-23
3.16639E-02 7.42182E-23
3.24324E-02 7.06287E-23
3.32098E-02 6.72519E-23
3.39961E-02 6.40728E-23
3.47912E-02 6.10778E-23
3.55952E-02 5.82542E-23
3.64081E-02 5.55906E-23
3.72297E-02 5.30762E-23
3.80602E-02 5.07011E-23
3.88995E-02 4.84561E-23
3.97476E-02 4.63330E-23
4.06044E-02 4.43238E-23
4.14700E-02 4.24213E-23
4.23443E-02 4.06189E-23
4.32273E-02 3.89103E-23
4.41190E-02 3.72897E-23
4.50194E-02 3.57518E-23
4.59284E-02 3.42916E-23
4.68461E-02 3.29044E-23
4.87074E-02 3.03323E-23
5.06030E-02 2.80042E-23
5.25328E-02 2.58930E-23
5.44967E-02 2.39751E-23
5.64946E-02 2.22296E-23
5.85262E-02 2.06384E-23
6.05914E-02 1.91856E-23
6.26901E-02 1.78569E-23
6.48222E-02 1.66399E-23
6.69873E-02 1.55237E-23
6.91854E-02 1.44984E-23
7.14163E-02 1.35553E-23
7.36799E-02 1.26868E-23
7.59760E-02 1.18858E-23
7.83043E-02 1.11462E-23
8.06647E-02 1.04624E-23
8.30571E-02 9.82962E-24
8.54812E-02 9.24327E-24
8.79369E-02 8.69937E-24
9.04240E-02 8.19432E-24
9.29422E-02 7.72486E-24
9.54915E-02 7.28802E-24
9.80716E-02 6.88115E-24
1.00682E-01 6.50183E-24
1.03323E-01 6.14788E-24
1.05995E-01 5.81730E-24
1.08696E-01 5.50826E-24
1.11427E-01 5.21912E-24
1.14188E-01 4.94838E-24
1.16978E-01 4.69466E-24
1.19797E-01 4.45669E-24
1.22645E-01 4.23334E-24
1.25522E-01 4.02354E-24
1.28428E-01 3.82632E-24
1.31361E-01 3.64081E-24
1.34323E-01 3.46618E-24
1.37313E-01 3.30168E-24
1.40330E-01 3.14662E-24
1.43375E-01 3.00037E-24
1.46447E-01 2.86233E-24
1.49545E-01 2.73197E-24
1.52671E-01 2.60877E-24
1.55823E-01 2.49228E-24
1.59001E-01 2.38207E-24
1.62205E-01 2.27775E-24
1.65435E-01 2.17893E-24
1.68690E-01 2.08528E-24
1.71970E-01 1.99648E-24
1.75276E-01 1.91225E-24
1.78606E-01 1.83229E-24
1.81961E-01 1.75635E-24
1.85340E-01 1.68420E-24
1.88743E-01 1.61562E-24
1.92169E-01 1.55039E-24
1.95619E-01 1.48833E-24
1.99092E-01 1.42926E-24
2.02589E-01 1.37299E-24
2.06107E-01 1.31939E-24
2.09649E-01 1.26830E-24
2.13212E-01 1.21957E-24
2.16797E-01 1.17309E-24
2.20404E-01 1.12874E-24
2.24032E-01 1.08639E-24
2.27680E-01 1.04594E-24
2.31350E-01 1.00729E-24
2.35040E-01 9.70347E-25
2.38751E-01 9.35023E-25
2.42481E-01 9.01234E-25
2.46231E-01 8.68901E-25
2.50000E-01 8.37951E-25
2.53788E-01 8.08314E-25
2.57595E-01 7.79926E-25
2.61421E-01 7.52723E-25
2.65264E-01 7.26649E-25
2.69126E-01 7.01648E-25
2.73005E-01 6.77668E-25
2.76901E-01 6.54660E-25
2.80814E-01 6.32579E-25
2.84744E-01 6.11380E-25
2.88691E-01 5.91022E-25
2.92653E-01 5.71465E-25
2.96632E-01 5.52674E-25
3.00625E-01 5.34613E-25
3.04634E-01 5.17248E-25
3.08658E-01 5.00548E-25
3.12697E-01 4.84483E-25
3.16749E-01 4.69025E-25
3.20816E-01 4.54148E-25
3.24896E-01 4.39825E-25
3.28990E-01 4.26032E-25
3.33097E-01 4.12746E-25
3.37216E-01 3.99946E-25
3.41348E-01 3.87611E-25
3.45492E-01 3.75720E-25
3.49647E-01 3.64256E-25
3.53814E-01 3.53200E-25
3.57992E-01 3.42535E-25
3.62181E-01 3.32246E-25
3.66381E-01 3.22316E-25
3.70590E-01 3.12731E-25
3.74810E-01 3.03477E-25
3.79039E-01 2.94541E-25
3.83277E-01 2.85909E-25
3.87524E-01 2.77570E-25
3.91780E-01 2.69512E-25
3.96044E-01 2.61725E-25
4.00316E-01 2.54196E-25
4.04596E-01 2.46917E-25
4.08882E-01 2.39878E-25
4.13176E-01 2.33069E-25
4.17476E-01 2.26482E-25
4.21783E-01 2.20109E-25
4.26095E-01 2.13940E-25
4.30413E-01 2.07969E-25
4.34737E-01 2.02188E-25
4.39065E-01 1.96591E-25
4.43398E-01 1.91169E-25
4.47736E-01 1.85918E-25
4.52077E-01 1.80830E-25
4.56422E-01 1.75900E-25
4.60770E-01 1.71122E-25
4.65122E-01 1.66490E-25
4.69476E-01 1.62000E-25
4.73832E-01 1.57646E-25
4.78190E-01 1.53424E-25
4.82550E-01 1.49328E-25
4.86912E-01 1.45355E-25
4.91274E-01 1.41501E-25
4.95637E-01 1.37760E-25
5.00000E-01 1.34130E-25
5.04363E-01 1.30606E-25
5.08726E-01 1.27184E-25
5.13088E-01 1.23863E-25
5.17450E-01 1.20637E-25
5.21810E-01 1.17504E-25
5.26168E-01 1.14460E-25
5.30524E-01 1.11504E-25
5.34878E-01 1.08631E-25
5.39230E-01 1.05839E-25
5.43578E-01 1.03126E-25
5.47923E-01 1.00489E-25
5.52264E-01 9.79250E-26
5.56602E-01 9.54322E-26
5.60935E-01 9.30082E-26
5.65263E-01 9.06509E-26
5.69587E-01 8.83581E-26
5.73905E-01 8.61277E-26
5.78217E-01 8.39579E-26
5.82524E-01 8.18467E-26
5.86824E-01 7.97922E-26
5.91118E-01 7.77928E-26
5.95404E-01 7.58468E-26
5.99684E-01 7.39525E-26
6.03956E-01 7.21082E-26
6.08220E-01 7.03126E-26
6.12476E-01 6.85642E-26
6.16723E-01 6.68614E-26
6.20961E-01 6.52030E-26
6.25190E-01 6.35876E-26
6.29410E-01 6.20140E-26
6.33619E-01 6.04809E-26
6.37819E-01 5.89870E-26
6.42008E-01 5.75314E-26
6.46186E-01 5.61128E-26
6.50353E-01 5.47302E-26
6.54508E-01 5.33826E-26
6.58652E-01 5.20689E-26
6.62784E-01 5.07881E-26
6.66903E-01 4.95394E-26
6.71010E-01 4.83217E-26
6.75104E-01 4.71343E-26
6.79184E-01 4.59763E-26
6.83251E-01 4.48469E-26
6.87303E-01 4.37452E-26
6.91342E-01 4.26705E-26
6.95366E-01 4.16221E-26
6.99375E-01 4.05992E-26
7.03368E-01 3.96011E-26
7.07347E-01 3.86271E-26
7.11309E-01 3.76767E-26
7.15256E-01 3.67491E-26
7.19186E-01 3.58437E-26
7.23099E-01 3.49600E-26
7.26995E-01 3.40973E-26
7.30874E-01 3.32552E-26
7.34736E-01 3.24330E-26
7.38579E-01 3.16303E-26
7.42405E-01 3.08464E-26
7.46212E-01 3.00810E-26
7.50000E-01 2.93336E-26
7.53769E-01 2.86036E-26
7.57519E-01 2.78907E-26
7.61249E-01 2.71944E-26
7.64960E-01 2.65142E-26
7.68650E-01 2.58498E-26
7.72320E-01 2.52008E-26
7.75968E-01 2.45667E-26
7.79596E-01 2.39472E-26
7.83203E-01 2.33420E-26
7.86788E-01 2.27506E-26
7.90351E-01 2.21728E-26
7.93893E-01 2.16082E-26
7.97411E-01 2.10564E-26
8.00908E-01 2.05172E-26
8.04381E-01 1.99903E-26
8.07831E-01 1.94753E-26
8.11257E-01 1.89720E-26
8.14660E-01 1.84801E-26
8.18039E-01 1.79993E-26
8.21394E-01 1.75293E-26
8.24724E-01 1.70699E-26
8.28030E-01 1.66209E-26
8.31310E-01 1.61820E-26
8.34565E-01 1.57530E-26
8.37795E-01 1.53335E-26
8.40999E-01 1.49235E-26
8.44177E-01 1.45227E-26
8.47329E-01 1.41309E-26
8.50455E-01 1.37479E-26
8.53553E-01 1.33735E-26
8.56625E-01 1.30074E-26
8.59670E-01 1.26495E-26
8.62687E-01 1.22997E-26
8.65677E-01 1.19577E-26
8.68639E-01 1.16234E-26
8.71572E-01 1.12966E-26
8.74478E-01 1.09771E-26
8.77355E-01 1.06648E-26
8.80203E-01 1.03596E-26
8.83022E-01 1.00612E-26
8.85812E-01 9.76949E-27
8.88573E-01 9.48440E-27
8.91304E-01 9.20577E-27
8.94005E-01 8.93345E-27
8.96677E-01 8.66731E-27
8.99318E-01 8.40723E-27
9.01928E-01 8.15308E-27
9.04508E-01 7.90474E-27
9.07058E-01 7.66210E-27
9.09576E-01 7.42504E-27
9.12063E-01 7.19344E-27
9.14519E-01 6.96721E-27
9.16943E-01 6.74624E-27
9.19335E-01 6.53042E-27
9.21696E-01 6.31966E-27
9.24024E-01 6.11385E-27
9.26320E-01 5.91292E-27
9.28584E-01 5.71675E-27
9.30815E-01 5.52528E-27
9.33013E-01 5.33840E-27
9.35178E-01 5.15604E-27
9.37310E-01 4.97812E-27
9.39409E-01 4.80455E-27
9.41474E-01 4.63526E-27
9.43505E-01 4.47018E-27
9.45503E-01 4.30923E-27
9.47467E-01 4.15234E-27
9.49397E-01 3.99944E-27
9.51293E-01 3.85047E-27
9.53154E-01 3.70536E-27
9.54981E-01 3.56404E-27
9.56773E-01 3.42647E-27
9.58530E-01 3.29258E-27
9.60252E-01 3.16230E-27
9.61940E-01 3.03560E-27
9.63592E-01 2.91240E-27
9.65209E-01 2.79267E-27
9.66790E-01 2.67634E-27
9.68336E-01 2.56337E-27
9.69846E-01 2.45372E-27
9.71321E-01 2.34734E-27
9.72759E-01 2.24417E-27
9.74162E-01 2.14419E-27
9.75528E-01 2.04734E-27
9.76858E-01 1.95359E-27
9.78152E-01 1.86290E-27
9.79410E-01 1.77523E-27
9.80631E-01 1.69055E-27
9.81815E-01 1.60881E-27
9.82963E-01 1.52999E-27
9.84074E-01 1.45406E-27
9.85148E-01 1.38098E-27
9.86185E-01 1.31072E-27
9.87185E-01 1.24326E-27
9.88148E-01 1.17857E-27
9.89074E-01 1.11662E-27
9.89962E-01 1.05738E-27
9.90814E-01 1.00084E-27
9.91627E-01 9.46962E-28
9.92404E-01 8.95735E-28
9.93143E-01 8.47136E-28
9.93844E-01 8.01144E-28
9.94508E-01 7.57742E-28
9.95134E-01 7.16911E-28
9.95722E-01 6.78636E-28
9.96273E-01 6.42902E-28
9.96786E-01 6.09693E-28
9.97261E-01 5.78996E-28
9.97698E-01 5.50800E-28
9.98097E-01 5.25094E-28
9.98459E-01 5.01866E-28
9.98782E-01 4.81108E-28
9.99067E-01 4.62812E-28
9.99315E-01 4.46969E-28
9.99524E-01 4.33575E-28
9.99695E-01 4.22623E-28
9.99829E-01 4.14109E-28
9.99924E-01 4.08031E-28
9.99981E-01 4.04384E-28
1.00000E+00 4.03168E-28
