 #
 # Subroutine ELSEPA. Elastic scattering of electrons and positrons
 #                    by neutral atoms and positive ions
 #
 # Projectile: electron
 # Kinetic energy = 6.00000E+07 eV = 2.20496E+06 a.u.
 #
 # WARNING: High-energy factorization with free-atom DF screening.
 #          Absorption, polarization and exchange corrections are
 #          switched off.
 #          Phase shifts are calculated for the bare nucleus.
 #          Scattering amplitudes are not evaluated.
 #
 # Element: Pt,  Z =  78,  atomic weight = 1.95078E+02 g/mol
 #
 # Nuclear model: Fermi distribution
 #                Average radius = 6.20564E-13 cm
 #                Skin thickness = 5.46000E-14 cm
 #
 # Number of electrons = 78
 #
 # Total elastic cross section = 7.62824E-18 cm**2 = 2.72410E-01 a0**2
 # 1st transport cross section = 3.18188E-24 cm**2 = 1.13627E-07 a0**2
 # 2nd transport cross section = 9.37310E-24 cm**2 = 3.34719E-07 a0**2
 #
 #
 # Differential cross section:                       MU=(1-COS(THETA))/2
 #
 #  THETA        MU          DCS          DCS        Sherman      error
 #  (deg)                 (cm**2/sr)   (a0**2/sr)    function
 #----------------------------------------------------------------------
0.00000E+00 1.51862E-10
7.61557E-13 1.51769E-10
1.18994E-12 1.51717E-10
1.71346E-12 1.51653E-10
2.33225E-12 1.51578E-10
3.04617E-12 1.51492E-10
3.85530E-12 1.51394E-10
4.75964E-12 1.51285E-10
5.75917E-12 1.51164E-10
6.85391E-12 1.51032E-10
8.04379E-12 1.50889E-10
9.32893E-12 1.50735E-10
1.07092E-11 1.50570E-10
1.21847E-11 1.50394E-10
1.37554E-11 1.50207E-10
1.54213E-11 1.50009E-10
1.71823E-11 1.49800E-10
1.90386E-11 1.49581E-10
2.09900E-11 1.49351E-10
2.30367E-11 1.49110E-10
2.51785E-11 1.48859E-10
2.74156E-11 1.48598E-10
2.97478E-11 1.48327E-10
3.21752E-11 1.48045E-10
3.46979E-11 1.47754E-10
3.73157E-11 1.47452E-10
4.00286E-11 1.47141E-10
4.28368E-11 1.46821E-10
4.57402E-11 1.46490E-10
4.87388E-11 1.46151E-10
5.18325E-11 1.45802E-10
5.50215E-11 1.45444E-10
5.83057E-11 1.45077E-10
6.16850E-11 1.44701E-10
6.51595E-11 1.44312E-10
6.87293E-11 1.43914E-10
7.23943E-11 1.43509E-10
7.61544E-11 1.43097E-10
1.18991E-10 1.38572E-10
1.71347E-10 1.33392E-10
2.33223E-10 1.27719E-10
3.04617E-10 1.21711E-10
3.85531E-10 1.15511E-10
4.75965E-10 1.09237E-10
5.75917E-10 1.02979E-10
6.85389E-10 9.68457E-11
8.04380E-10 9.09014E-11
9.32891E-10 8.51933E-11
1.07092E-09 7.97529E-11
1.21847E-09 7.45985E-11
1.37554E-09 6.97386E-11
1.54213E-09 6.51740E-11
1.71823E-09 6.08996E-11
1.90386E-09 5.68981E-11
2.09900E-09 5.31610E-11
2.30367E-09 4.96823E-11
2.51785E-09 4.64475E-11
2.74156E-09 4.34413E-11
2.97478E-09 4.06489E-11
3.21752E-09 3.80556E-11
3.46978E-09 3.56474E-11
3.73156E-09 3.34108E-11
4.00286E-09 3.13334E-11
4.28368E-09 2.93990E-11
4.57402E-09 2.76007E-11
4.87388E-09 2.59294E-11
5.18326E-09 2.43754E-11
5.50215E-09 2.29297E-11
5.83057E-09 2.15843E-11
6.16850E-09 2.03314E-11
6.51596E-09 1.90847E-11
6.87293E-09 1.79195E-11
7.23942E-09 1.68622E-11
7.61544E-09 1.59007E-11
1.18991E-08 9.34426E-12
1.71347E-08 5.83136E-12
2.33223E-08 3.83548E-12
3.04617E-08 2.63506E-12
3.85531E-08 1.87418E-12
4.75965E-08 1.36891E-12
5.75917E-08 1.02036E-12
6.85389E-08 7.74255E-13
8.04380E-08 5.96575E-13
9.32891E-08 4.66023E-13
1.07092E-07 3.68695E-13
1.21847E-07 2.95202E-13
1.37554E-07 2.39048E-13
1.54213E-07 1.95748E-13
1.71823E-07 1.61726E-13
1.90386E-07 1.34860E-13
2.09900E-07 1.13462E-13
2.30367E-07 9.62430E-14
2.51785E-07 8.22334E-14
2.74156E-07 7.07183E-14
2.97478E-07 6.11683E-14
3.21752E-07 5.31871E-14
3.46978E-07 4.64737E-14
3.73156E-07 4.07939E-14
4.00286E-07 3.59628E-14
4.28368E-07 3.18293E-14
4.57402E-07 2.82760E-14
4.87388E-07 2.52062E-14
5.18325E-07 2.25418E-14
5.50215E-07 2.02196E-14
5.83057E-07 1.81880E-14
6.16850E-07 1.64048E-14
6.51596E-07 1.48264E-14
6.87293E-07 1.34362E-14
7.23942E-07 1.22122E-14
7.61543E-07 1.11288E-14
1.18991E-06 4.84235E-15
1.71347E-06 2.43191E-15
2.33223E-06 1.35120E-15
3.04617E-06 8.09595E-16
3.85531E-06 5.14284E-16
4.75964E-06 3.42279E-16
5.75916E-06 2.36583E-16
6.85388E-06 1.68716E-16
8.04378E-06 1.23516E-16
9.32888E-06 9.24746E-17
1.07092E-05 7.05910E-17
1.21846E-05 5.48080E-17
1.37553E-05 4.31949E-17
1.54212E-05 3.44986E-17
1.71822E-05 2.78836E-17
1.90385E-05 2.27671E-17
2.09899E-05 1.87950E-17
2.30365E-05 1.56497E-17
2.51783E-05 1.31320E-17
2.74153E-05 1.10979E-17
2.97475E-05 9.44156E-18
3.21749E-05 8.08306E-18
3.46974E-05 6.96120E-18
3.73152E-05 6.02840E-18
4.00281E-05 5.24751E-18
4.28362E-05 4.58944E-18
4.57395E-05 4.03141E-18
4.87380E-05 3.55553E-18
5.18317E-05 3.14766E-18
5.50205E-05 2.79651E-18
5.83045E-05 2.49295E-18
6.16838E-05 2.22953E-18
6.51582E-05 2.00009E-18
6.87277E-05 1.79952E-18
7.23925E-05 1.62353E-18
7.61524E-05 1.46834E-18
9.21439E-05 1.00626E-18
1.09658E-04 7.12521E-19
1.28695E-04 5.18649E-19
1.49255E-04 3.86468E-19
1.71338E-04 2.93875E-19
1.94942E-04 2.27442E-19
2.20070E-04 1.78780E-19
2.46720E-04 1.42477E-19
2.74892E-04 1.14948E-19
3.04586E-04 9.37665E-20
3.35803E-04 7.72537E-20
3.68542E-04 6.42266E-20
4.02802E-04 5.38380E-20
4.38585E-04 4.54714E-20
4.75889E-04 3.86720E-20
5.14715E-04 3.31003E-20
5.55063E-04 2.84991E-20
5.96931E-04 2.46725E-20
6.40321E-04 2.14689E-20
6.85233E-04 1.87703E-20
7.31665E-04 1.64840E-20
7.79618E-04 1.45366E-20
8.29092E-04 1.28695E-20
8.80086E-04 1.14355E-20
9.32601E-04 1.01966E-20
9.86636E-04 9.12173E-21
1.04219E-03 8.18538E-21
1.09927E-03 7.36670E-21
1.15786E-03 6.64832E-21
1.21797E-03 6.01583E-21
1.27961E-03 5.45717E-21
1.34276E-03 4.96221E-21
1.40743E-03 4.52241E-21
1.47362E-03 4.13054E-21
1.54133E-03 3.78045E-21
1.61056E-03 3.46688E-21
1.68131E-03 3.18536E-21
1.75357E-03 2.93202E-21
1.82735E-03 2.70352E-21
1.90265E-03 2.49700E-21
1.97947E-03 2.30996E-21
2.05780E-03 2.14022E-21
2.13765E-03 1.98591E-21
2.21902E-03 1.84534E-21
2.30190E-03 1.71709E-21
2.38630E-03 1.59987E-21
2.47222E-03 1.49255E-21
2.55965E-03 1.39415E-21
2.64859E-03 1.30380E-21
2.73905E-03 1.22069E-21
2.83103E-03 1.14417E-21
2.92452E-03 1.07358E-21
3.01952E-03 1.00841E-21
3.11604E-03 9.48143E-22
3.21407E-03 8.92351E-22
3.31362E-03 8.40638E-22
3.41468E-03 7.92647E-22
3.51725E-03 7.48063E-22
3.62133E-03 7.06596E-22
3.72692E-03 6.67987E-22
3.83403E-03 6.32003E-22
3.94265E-03 5.98430E-22
4.05278E-03 5.67077E-22
4.16442E-03 5.37769E-22
4.27757E-03 5.10346E-22
4.39223E-03 4.84665E-22
4.50840E-03 4.60594E-22
4.62608E-03 4.38012E-22
4.74527E-03 4.16809E-22
4.86597E-03 3.96885E-22
4.98817E-03 3.78149E-22
5.11188E-03 3.60515E-22
5.23711E-03 3.43906E-22
5.36383E-03 3.28252E-22
5.49207E-03 3.13485E-22
5.62181E-03 2.99548E-22
5.75306E-03 2.86383E-22
5.88581E-03 2.73941E-22
6.02007E-03 2.62173E-22
6.15583E-03 2.51035E-22
6.29310E-03 2.40489E-22
6.43187E-03 2.30495E-22
6.57214E-03 2.21019E-22
6.71392E-03 2.12031E-22
6.85720E-03 2.03498E-22
7.00198E-03 1.95395E-22
7.14827E-03 1.87696E-22
7.29605E-03 1.80375E-22
7.44534E-03 1.73406E-22
7.59612E-03 1.66774E-22
7.97965E-03 1.51537E-22
8.37255E-03 1.38014E-22
8.77480E-03 1.25976E-22
9.18641E-03 1.15230E-22
9.60736E-03 1.05613E-22
1.00376E-02 9.69839E-23
1.04773E-02 8.92228E-23
1.09262E-02 8.22262E-23
1.13844E-02 7.59049E-23
1.18520E-02 7.01817E-23
1.23288E-02 6.49895E-23
1.28150E-02 6.02698E-23
1.33104E-02 5.59716E-23
1.38150E-02 5.20503E-23
1.43290E-02 4.84666E-23
1.48521E-02 4.51859E-23
1.53845E-02 4.21780E-23
1.59262E-02 3.94158E-23
1.64770E-02 3.68754E-23
1.70371E-02 3.45358E-23
1.76063E-02 3.23781E-23
1.81848E-02 3.03854E-23
1.87724E-02 2.85428E-23
1.93692E-02 2.68369E-23
1.99751E-02 2.52555E-23
2.05901E-02 2.37879E-23
2.12143E-02 2.24244E-23
2.18476E-02 2.11561E-23
2.24900E-02 1.99753E-23
2.31415E-02 1.88746E-23
2.38021E-02 1.78477E-23
2.44717E-02 1.68887E-23
2.51504E-02 1.59922E-23
2.58382E-02 1.51535E-23
2.65349E-02 1.43680E-23
2.72407E-02 1.36318E-23
2.79555E-02 1.29413E-23
2.86793E-02 1.22930E-23
2.94120E-02 1.16839E-23
3.01537E-02 1.11111E-23
3.09043E-02 1.05722E-23
3.16639E-02 1.00647E-23
3.24324E-02 9.58653E-24
3.32098E-02 9.13559E-24
3.39961E-02 8.71009E-24
3.47912E-02 8.30832E-24
3.55952E-02 7.92872E-24
3.64081E-02 7.56985E-24
3.72297E-02 7.23036E-24
3.80602E-02 6.90902E-24
3.88995E-02 6.60468E-24
3.97476E-02 6.31629E-24
4.06044E-02 6.04286E-24
4.14700E-02 5.78346E-24
4.23443E-02 5.53727E-24
4.32273E-02 5.30347E-24
4.41190E-02 5.08134E-24
4.50194E-02 4.87020E-24
4.59284E-02 4.66940E-24
4.68461E-02 4.47835E-24
4.87074E-02 4.12332E-24
5.06030E-02 3.80107E-24
5.25328E-02 3.50809E-24
5.44967E-02 3.24130E-24
5.64946E-02 2.99798E-24
5.85262E-02 2.77573E-24
6.05914E-02 2.57246E-24
6.26901E-02 2.38628E-24
6.48222E-02 2.21554E-24
6.69873E-02 2.05877E-24
6.91854E-02 1.91464E-24
7.14163E-02 1.78200E-24
7.36799E-02 1.65978E-24
7.59760E-02 1.54705E-24
7.83043E-02 1.44297E-24
8.06647E-02 1.34678E-24
8.30571E-02 1.25779E-24
8.54812E-02 1.17540E-24
8.79369E-02 1.09905E-24
9.04240E-02 1.02824E-24
9.29422E-02 9.62501E-25
9.54915E-02 9.01435E-25
9.80716E-02 8.44665E-25
1.00682E-01 7.91849E-25
1.03323E-01 7.42677E-25
1.05995E-01 6.96868E-25
1.08696E-01 6.54163E-25
1.11427E-01 6.14327E-25
1.14188E-01 5.77145E-25
1.16978E-01 5.42420E-25
1.19797E-01 5.09971E-25
1.22645E-01 4.79632E-25
1.25522E-01 4.51252E-25
1.28428E-01 4.24689E-25
1.31361E-01 3.99817E-25
1.34323E-01 3.76515E-25
1.37313E-01 3.54675E-25
1.40330E-01 3.34196E-25
1.43375E-01 3.14986E-25
1.46447E-01 2.96957E-25
1.49545E-01 2.80031E-25
1.52671E-01 2.64134E-25
1.55823E-01 2.49197E-25
1.59001E-01 2.35159E-25
1.62205E-01 2.21960E-25
1.65435E-01 2.09545E-25
1.68690E-01 1.97865E-25
1.71970E-01 1.86873E-25
1.75276E-01 1.76525E-25
1.78606E-01 1.66779E-25
1.81961E-01 1.57600E-25
1.85340E-01 1.48951E-25
1.88743E-01 1.40799E-25
1.92169E-01 1.33115E-25
1.95619E-01 1.25869E-25
1.99092E-01 1.19035E-25
2.02589E-01 1.12588E-25
2.06107E-01 1.06505E-25
2.09649E-01 1.00763E-25
2.13212E-01 9.53435E-26
2.16797E-01 9.02264E-26
2.20404E-01 8.53941E-26
2.24032E-01 8.08299E-26
2.27680E-01 7.65182E-26
2.31350E-01 7.24443E-26
2.35040E-01 6.85944E-26
2.38751E-01 6.49557E-26
2.42481E-01 6.15161E-26
2.46231E-01 5.82642E-26
2.50000E-01 5.51893E-26
2.53788E-01 5.22814E-26
2.57595E-01 4.95311E-26
2.61421E-01 4.69294E-26
2.65264E-01 4.44681E-26
2.69126E-01 4.21394E-26
2.73005E-01 3.99357E-26
2.76901E-01 3.78503E-26
2.80814E-01 3.58765E-26
2.84744E-01 3.40083E-26
2.88691E-01 3.22397E-26
2.92653E-01 3.05653E-26
2.96632E-01 2.89800E-26
3.00625E-01 2.74789E-26
3.04634E-01 2.60574E-26
3.08658E-01 2.47112E-26
3.12697E-01 2.34363E-26
3.16749E-01 2.22286E-26
3.20816E-01 2.10848E-26
3.24896E-01 2.00012E-26
3.28990E-01 1.89746E-26
3.33097E-01 1.80021E-26
3.37216E-01 1.70806E-26
3.41348E-01 1.62076E-26
3.45492E-01 1.53803E-26
3.49647E-01 1.45963E-26
3.53814E-01 1.38534E-26
3.57992E-01 1.31494E-26
3.62181E-01 1.24822E-26
3.66381E-01 1.18498E-26
3.70590E-01 1.12505E-26
3.74810E-01 1.06823E-26
3.79039E-01 1.01439E-26
3.83277E-01 9.63341E-27
3.87524E-01 9.14954E-27
3.91780E-01 8.69084E-27
3.96044E-01 8.25599E-27
4.00316E-01 7.84373E-27
4.04596E-01 7.45288E-27
4.08882E-01 7.08232E-27
4.13176E-01 6.73097E-27
4.17476E-01 6.39784E-27
4.21783E-01 6.08197E-27
4.26095E-01 5.78245E-27
4.30413E-01 5.49843E-27
4.34737E-01 5.22909E-27
4.39065E-01 4.97368E-27
4.43398E-01 4.73146E-27
4.47736E-01 4.50173E-27
4.52077E-01 4.28386E-27
4.56422E-01 4.07722E-27
4.60770E-01 3.88121E-27
4.65122E-01 3.69530E-27
4.69476E-01 3.51894E-27
4.73832E-01 3.35165E-27
4.78190E-01 3.19294E-27
4.82550E-01 3.04237E-27
4.86912E-01 2.89951E-27
4.91274E-01 2.76396E-27
4.95637E-01 2.63535E-27
5.00000E-01 2.51329E-27
5.04363E-01 2.39747E-27
5.08726E-01 2.28754E-27
5.13088E-01 2.18320E-27
5.17450E-01 2.08416E-27
5.21810E-01 1.99013E-27
5.26168E-01 1.90087E-27
5.30524E-01 1.81612E-27
5.34878E-01 1.73564E-27
5.39230E-01 1.65921E-27
5.43578E-01 1.58662E-27
5.47923E-01 1.51767E-27
5.52264E-01 1.45217E-27
5.56602E-01 1.38993E-27
5.60935E-01 1.33078E-27
5.65263E-01 1.27458E-27
5.69587E-01 1.22115E-27
5.73905E-01 1.17035E-27
5.78217E-01 1.12206E-27
5.82524E-01 1.07613E-27
5.86824E-01 1.03244E-27
5.91118E-01 9.90873E-28
5.95404E-01 9.51323E-28
5.99684E-01 9.13681E-28
6.03956E-01 8.77847E-28
6.08220E-01 8.43727E-28
6.12476E-01 8.11231E-28
6.16723E-01 7.80275E-28
6.20961E-01 7.50777E-28
6.25190E-01 7.22662E-28
6.29410E-01 6.95858E-28
6.33619E-01 6.70296E-28
6.37819E-01 6.45911E-28
6.42008E-01 6.22642E-28
6.46186E-01 6.00431E-28
6.50353E-01 5.79223E-28
6.54508E-01 5.58966E-28
6.58652E-01 5.39611E-28
6.62784E-01 5.21111E-28
6.66903E-01 5.03421E-28
6.71010E-01 4.86500E-28
6.75104E-01 4.70309E-28
6.79184E-01 4.54809E-28
6.83251E-01 4.39965E-28
6.87303E-01 4.25744E-28
6.91342E-01 4.12114E-28
6.95366E-01 3.99045E-28
6.99375E-01 3.86507E-28
7.03368E-01 3.74475E-28
7.07347E-01 3.62923E-28
7.11309E-01 3.51826E-28
7.15256E-01 3.41162E-28
7.19186E-01 3.30908E-28
7.23099E-01 3.21046E-28
7.26995E-01 3.11554E-28
7.30874E-01 3.02416E-28
7.34736E-01 2.93613E-28
7.38579E-01 2.85129E-28
7.42405E-01 2.76949E-28
7.46212E-01 2.69058E-28
7.50000E-01 2.61441E-28
7.53769E-01 2.54087E-28
7.57519E-01 2.46982E-28
7.61249E-01 2.40116E-28
7.64960E-01 2.33475E-28
7.68650E-01 2.27051E-28
7.72320E-01 2.20833E-28
7.75968E-01 2.14812E-28
7.79596E-01 2.08978E-28
7.83203E-01 2.03324E-28
7.86788E-01 1.97841E-28
7.90351E-01 1.92523E-28
7.93893E-01 1.87361E-28
7.97411E-01 1.82349E-28
8.00908E-01 1.77480E-28
8.04381E-01 1.72749E-28
8.07831E-01 1.68150E-28
8.11257E-01 1.63678E-28
8.14660E-01 1.59327E-28
8.18039E-01 1.55092E-28
8.21394E-01 1.50969E-28
8.24724E-01 1.46953E-28
8.28030E-01 1.43041E-28
8.31310E-01 1.39229E-28
8.34565E-01 1.35512E-28
8.37795E-01 1.31887E-28
8.40999E-01 1.28352E-28
8.44177E-01 1.24902E-28
8.47329E-01 1.21535E-28
8.50455E-01 1.18248E-28
8.53553E-01 1.15038E-28
8.56625E-01 1.11903E-28
8.59670E-01 1.08841E-28
8.62687E-01 1.05849E-28
8.65677E-01 1.02924E-28
8.68639E-01 1.00065E-28
8.71572E-01 9.72708E-29
8.74478E-01 9.45381E-29
8.77355E-01 9.18657E-29
8.80203E-01 8.92519E-29
8.83022E-01 8.66951E-29
8.85812E-01 8.41937E-29
8.88573E-01 8.17464E-29
8.91304E-01 7.93517E-29
8.94005E-01 7.70084E-29
8.96677E-01 7.47152E-29
8.99318E-01 7.24709E-29
9.01928E-01 7.02744E-29
9.04508E-01 6.81246E-29
9.07058E-01 6.60205E-29
9.09576E-01 6.39610E-29
9.12063E-01 6.19453E-29
9.14519E-01 5.99725E-29
9.16943E-01 5.80417E-29
9.19335E-01 5.61520E-29
9.21696E-01 5.43028E-29
9.24024E-01 5.24932E-29
9.26320E-01 5.07225E-29
9.28584E-01 4.89902E-29
9.30815E-01 4.72954E-29
9.33013E-01 4.56375E-29
9.35178E-01 4.40161E-29
9.37310E-01 4.24304E-29
9.39409E-01 4.08800E-29
9.41474E-01 3.93643E-29
9.43505E-01 3.78828E-29
9.45503E-01 3.64350E-29
9.47467E-01 3.50205E-29
9.49397E-01 3.36387E-29
9.51293E-01 3.22893E-29
9.53154E-01 3.09719E-29
9.54981E-01 2.96860E-29
9.56773E-01 2.84312E-29
9.58530E-01 2.72073E-29
9.60252E-01 2.60137E-29
9.61940E-01 2.48503E-29
9.63592E-01 2.37166E-29
9.65209E-01 2.26124E-29
9.66790E-01 2.15373E-29
9.68336E-01 2.04910E-29
9.69846E-01 1.94734E-29
9.71321E-01 1.84840E-29
9.72759E-01 1.75226E-29
9.74162E-01 1.65891E-29
9.75528E-01 1.56830E-29
9.76858E-01 1.48043E-29
9.78152E-01 1.39527E-29
9.79410E-01 1.31279E-29
9.80631E-01 1.23298E-29
9.81815E-01 1.15582E-29
9.82963E-01 1.08128E-29
9.84074E-01 1.00936E-29
9.85148E-01 9.40024E-30
9.86185E-01 8.73266E-30
9.87185E-01 8.09069E-30
9.88148E-01 7.47416E-30
9.89074E-01 6.88292E-30
9.89962E-01 6.31685E-30
9.90814E-01 5.77580E-30
9.91627E-01 5.25966E-30
9.92404E-01 4.76830E-30
9.93143E-01 4.30160E-30
9.93844E-01 3.85947E-30
9.94508E-01 3.44180E-30
9.95134E-01 3.04850E-30
9.95722E-01 2.67947E-30
9.96273E-01 2.33464E-30
9.96786E-01 2.01392E-30
9.97261E-01 1.71725E-30
9.97698E-01 1.44455E-30
9.98097E-01 1.19576E-30
9.98459E-01 9.70841E-31
9.98782E-01 7.69728E-31
9.99067E-01 5.92380E-31
9.99315E-01 4.38759E-31
9.99524E-01 3.08828E-31
9.99695E-01 2.02561E-31
9.99829E-01 1.19933E-31
9.99924E-01 6.09260E-32
9.99981E-01 2.55270E-32
1.00000E+00 1.37283E-32
