 #
 # Subroutine ELSEPA. Elastic scattering of electrons and positrons
 #                    by neutral atoms and positive ions
 #
 # Projectile: electron
 # Kinetic energy = 2.50000E+06 eV = 9.18733E+04 a.u.
 #
 # WARNING: High-energy factorization with free-atom DF screening.
 #          Absorption, polarization and exchange corrections are
 #          switched off.
 #          Phase shifts are calculated for the bare nucleus.
 #          Scattering amplitudes are not evaluated.
 #
 # Element: Pt,  Z =  78,  atomic weight = 1.95078E+02 g/mol
 #
 # Nuclear model: Fermi distribution
 #                Average radius = 6.20564E-13 cm
 #                Skin thickness = 5.46000E-14 cm
 #
 # Number of electrons = 78
 #
 # Total elastic cross section = 7.87258E-18 cm**2 = 2.81135E-01 a0**2
 # 1st transport cross section = 1.07218E-21 cm**2 = 3.82882E-05 a0**2
 # 2nd transport cross section = 2.83739E-21 cm**2 = 1.01325E-04 a0**2
 #
 #
 # Differential cross section:                       MU=(1-COS(THETA))/2
 #
 #  THETA        MU          DCS          DCS        Sherman      error
 #  (deg)                 (cm**2/sr)   (a0**2/sr)    function
 #----------------------------------------------------------------------
0.00000E+00 3.76013E-13
7.61557E-13 3.76013E-13
1.18994E-12 3.76012E-13
1.71346E-12 3.76012E-13
2.33225E-12 3.76012E-13
3.04617E-12 3.76011E-13
3.85530E-12 3.76011E-13
4.75964E-12 3.76010E-13
5.75917E-12 3.76009E-13
6.85391E-12 3.76008E-13
8.04379E-12 3.76008E-13
9.32893E-12 3.76007E-13
1.07092E-11 3.76006E-13
1.21847E-11 3.76005E-13
1.37554E-11 3.76004E-13
1.54213E-11 3.76002E-13
1.71823E-11 3.76001E-13
1.90386E-11 3.76000E-13
2.09900E-11 3.75999E-13
2.30367E-11 3.75997E-13
2.51785E-11 3.75996E-13
2.74156E-11 3.75994E-13
2.97478E-11 3.75992E-13
3.21752E-11 3.75991E-13
3.46979E-11 3.75989E-13
3.73157E-11 3.75987E-13
4.00286E-11 3.75985E-13
4.28368E-11 3.75983E-13
4.57402E-11 3.75981E-13
4.87388E-11 3.75979E-13
5.18325E-11 3.75977E-13
5.50215E-11 3.75974E-13
5.83057E-11 3.75972E-13
6.16850E-11 3.75970E-13
6.51595E-11 3.75967E-13
6.87293E-11 3.75965E-13
7.23943E-11 3.75962E-13
7.61544E-11 3.75959E-13
1.18991E-10 3.75929E-13
1.71347E-10 3.75891E-13
2.33223E-10 3.75847E-13
3.04617E-10 3.75796E-13
3.85531E-10 3.75738E-13
4.75965E-10 3.75673E-13
5.75917E-10 3.75601E-13
6.85389E-10 3.75523E-13
8.04380E-10 3.75437E-13
9.32891E-10 3.75345E-13
1.07092E-09 3.75246E-13
1.21847E-09 3.75140E-13
1.37554E-09 3.75028E-13
1.54213E-09 3.74908E-13
1.71823E-09 3.74782E-13
1.90386E-09 3.74649E-13
2.09900E-09 3.74510E-13
2.30367E-09 3.74363E-13
2.51785E-09 3.74210E-13
2.74156E-09 3.74051E-13
2.97478E-09 3.73884E-13
3.21752E-09 3.73711E-13
3.46978E-09 3.73532E-13
3.73156E-09 3.73345E-13
4.00286E-09 3.73152E-13
4.28368E-09 3.72953E-13
4.57402E-09 3.72747E-13
4.87388E-09 3.72534E-13
5.18326E-09 3.72315E-13
5.50215E-09 3.72090E-13
5.83057E-09 3.71858E-13
6.16850E-09 3.71619E-13
6.51596E-09 3.71374E-13
6.87293E-09 3.71123E-13
7.23942E-09 3.70865E-13
7.61544E-09 3.70601E-13
1.18991E-08 3.67616E-13
1.71347E-08 3.64027E-13
2.33223E-08 3.59868E-13
3.04617E-08 3.55144E-13
3.85531E-08 3.49976E-13
4.75965E-08 3.44317E-13
5.75917E-08 3.38327E-13
6.85389E-08 3.31891E-13
8.04380E-08 3.25257E-13
9.32891E-08 3.18244E-13
1.07092E-07 3.11120E-13
1.21847E-07 3.03743E-13
1.37554E-07 2.96299E-13
1.54213E-07 2.88731E-13
1.71823E-07 2.81118E-13
1.90386E-07 2.73508E-13
2.09900E-07 2.65861E-13
2.30367E-07 2.58331E-13
2.51785E-07 2.50758E-13
2.74156E-07 2.43405E-13
2.97478E-07 2.35996E-13
3.21752E-07 2.28851E-13
3.46978E-07 2.21713E-13
3.73156E-07 2.14819E-13
4.00286E-07 2.08009E-13
4.28368E-07 2.01405E-13
4.57402E-07 1.94951E-13
4.87388E-07 1.88662E-13
5.18325E-07 1.82576E-13
5.50215E-07 1.76616E-13
5.83057E-07 1.70901E-13
6.16850E-07 1.65276E-13
6.51596E-07 1.59922E-13
6.87293E-07 1.54632E-13
7.23942E-07 1.49600E-13
7.61543E-07 1.44669E-13
1.18991E-06 1.04017E-13
1.71347E-06 7.55723E-14
2.33223E-06 5.57275E-14
3.04617E-06 4.12355E-14
3.85531E-06 3.15758E-14
4.75964E-06 2.43369E-14
5.75916E-06 1.92244E-14
6.85388E-06 1.52312E-14
8.04378E-06 1.23451E-14
9.32888E-06 1.00381E-14
1.07092E-05 8.30431E-15
1.21846E-05 6.90759E-15
1.37553E-05 5.81240E-15
1.54212E-05 4.92081E-15
1.71822E-05 4.19688E-15
1.90385E-05 3.59993E-15
2.09899E-05 3.10544E-15
2.30365E-05 2.69549E-15
2.51783E-05 2.34406E-15
2.74153E-05 2.05126E-15
2.97475E-05 1.79628E-15
3.21749E-05 1.58244E-15
3.46974E-05 1.39606E-15
3.73152E-05 1.23763E-15
4.00281E-05 1.09962E-15
4.28362E-05 9.80595E-16
4.57395E-05 8.76743E-16
4.87380E-05 7.86091E-16
5.18317E-05 7.06834E-16
5.50205E-05 6.37032E-16
5.83045E-05 5.75876E-16
6.16838E-05 5.21784E-16
6.51582E-05 4.74250E-16
6.87277E-05 4.31530E-16
7.23925E-05 3.93768E-16
7.61524E-05 3.60022E-16
9.21439E-05 2.57122E-16
1.09658E-04 1.89105E-16
1.28695E-04 1.42372E-16
1.49255E-04 1.09293E-16
1.71338E-04 8.53534E-17
1.94942E-04 6.76644E-17
2.20070E-04 5.43387E-17
2.46720E-04 4.41336E-17
2.74892E-04 3.61860E-17
3.04586E-04 2.99789E-17
3.35803E-04 2.50410E-17
3.68542E-04 2.10913E-17
4.02802E-04 1.78781E-17
4.38585E-04 1.52672E-17
4.75889E-04 1.31047E-17
5.14715E-04 1.13211E-17
5.55063E-04 9.82455E-18
5.96931E-04 8.57164E-18
6.40321E-04 7.50996E-18
6.85233E-04 6.60913E-18
7.31665E-04 5.83900E-18
7.79618E-04 5.17795E-18
8.29092E-04 4.60833E-18
8.80086E-04 4.11449E-18
9.32601E-04 3.68586E-18
9.86636E-04 3.31101E-18
1.04219E-03 2.98349E-18
1.09927E-03 2.69487E-18
1.15786E-03 2.44095E-18
1.21797E-03 2.21601E-18
1.27961E-03 2.01672E-18
1.34276E-03 1.83929E-18
1.40743E-03 1.68111E-18
1.47362E-03 1.53963E-18
1.54133E-03 1.41277E-18
1.61056E-03 1.29883E-18
1.68131E-03 1.19611E-18
1.75357E-03 1.10350E-18
1.82735E-03 1.01962E-18
1.90265E-03 9.43696E-19
1.97947E-03 8.74649E-19
2.05780E-03 8.11900E-19
2.13765E-03 7.54658E-19
2.21902E-03 7.02426E-19
2.30190E-03 6.54641E-19
2.38630E-03 6.10873E-19
2.47222E-03 5.70723E-19
2.55965E-03 5.33821E-19
2.64859E-03 4.99885E-19
2.73905E-03 4.68593E-19
2.83103E-03 4.39746E-19
2.92452E-03 4.13068E-19
3.01952E-03 3.88415E-19
3.11604E-03 3.65562E-19
3.21407E-03 3.44387E-19
3.31362E-03 3.24721E-19
3.41468E-03 3.06450E-19
3.51725E-03 2.89451E-19
3.62133E-03 2.73619E-19
3.72692E-03 2.58862E-19
3.83403E-03 2.45088E-19
3.94265E-03 2.32228E-19
4.05278E-03 2.20198E-19
4.16442E-03 2.08949E-19
4.27757E-03 1.98405E-19
4.39223E-03 1.88528E-19
4.50840E-03 1.79257E-19
4.62608E-03 1.70555E-19
4.74527E-03 1.62377E-19
4.86597E-03 1.54687E-19
4.98817E-03 1.47450E-19
5.11188E-03 1.40633E-19
5.23711E-03 1.34210E-19
5.36383E-03 1.28150E-19
5.49207E-03 1.22434E-19
5.62181E-03 1.17032E-19
5.75306E-03 1.11930E-19
5.88581E-03 1.07103E-19
6.02007E-03 1.02537E-19
6.15583E-03 9.82134E-20
6.29310E-03 9.41179E-20
6.43187E-03 9.02350E-20
6.57214E-03 8.65525E-20
6.71392E-03 8.30578E-20
6.85720E-03 7.97393E-20
7.00198E-03 7.65869E-20
7.14827E-03 7.35899E-20
7.29605E-03 7.07404E-20
7.44534E-03 6.80282E-20
7.59612E-03 6.54470E-20
7.97965E-03 5.95144E-20
8.37255E-03 5.42470E-20
8.77480E-03 4.95567E-20
9.18641E-03 4.53685E-20
9.60736E-03 4.16196E-20
1.00376E-02 3.82554E-20
1.04773E-02 3.52291E-20
1.09262E-02 3.25009E-20
1.13844E-02 3.00358E-20
1.18520E-02 2.78039E-20
1.23288E-02 2.57790E-20
1.28150E-02 2.39384E-20
1.33104E-02 2.22621E-20
1.38150E-02 2.07328E-20
1.43290E-02 1.93352E-20
1.48521E-02 1.80557E-20
1.53845E-02 1.68825E-20
1.59262E-02 1.58051E-20
1.64770E-02 1.48142E-20
1.70371E-02 1.39016E-20
1.76063E-02 1.30597E-20
1.81848E-02 1.22821E-20
1.87724E-02 1.15630E-20
1.93692E-02 1.08971E-20
1.99751E-02 1.02797E-20
2.05901E-02 9.70652E-21
2.12143E-02 9.17382E-21
2.18476E-02 8.67819E-21
2.24900E-02 8.21654E-21
2.31415E-02 7.78606E-21
2.38021E-02 7.38424E-21
2.44717E-02 7.00881E-21
2.51504E-02 6.65765E-21
2.58382E-02 6.32892E-21
2.65349E-02 6.02084E-21
2.72407E-02 5.73196E-21
2.79555E-02 5.46071E-21
2.86793E-02 5.20593E-21
2.94120E-02 4.96629E-21
3.01537E-02 4.74081E-21
3.09043E-02 4.52841E-21
3.16639E-02 4.32823E-21
3.24324E-02 4.13938E-21
3.32098E-02 3.96112E-21
3.39961E-02 3.79272E-21
3.47912E-02 3.63352E-21
3.55952E-02 3.48292E-21
3.64081E-02 3.34034E-21
3.72297E-02 3.20530E-21
3.80602E-02 3.07727E-21
3.88995E-02 2.95587E-21
3.97476E-02 2.84062E-21
4.06044E-02 2.73119E-21
4.14700E-02 2.62720E-21
4.23443E-02 2.52834E-21
4.32273E-02 2.43429E-21
4.41190E-02 2.34477E-21
4.50194E-02 2.25951E-21
4.59284E-02 2.17828E-21
4.68461E-02 2.10083E-21
4.87074E-02 1.95646E-21
5.06030E-02 1.82485E-21
5.25328E-02 1.70464E-21
5.44967E-02 1.59464E-21
5.64946E-02 1.49380E-21
5.85262E-02 1.40120E-21
6.05914E-02 1.31603E-21
6.26901E-02 1.23757E-21
6.48222E-02 1.16517E-21
6.69873E-02 1.09826E-21
6.91854E-02 1.03635E-21
7.14163E-02 9.78982E-22
7.36799E-02 9.25744E-22
7.59760E-02 8.76277E-22
7.83043E-02 8.30256E-22
8.06647E-02 7.87389E-22
8.30571E-02 7.47411E-22
8.54812E-02 7.10084E-22
8.79369E-02 6.75194E-22
9.04240E-02 6.42546E-22
9.29422E-02 6.11964E-22
9.54915E-02 5.83288E-22
9.80716E-02 5.56371E-22
1.00682E-01 5.31082E-22
1.03323E-01 5.07299E-22
1.05995E-01 4.84913E-22
1.08696E-01 4.63822E-22
1.11427E-01 4.43934E-22
1.14188E-01 4.25164E-22
1.16978E-01 4.07436E-22
1.19797E-01 3.90678E-22
1.22645E-01 3.74823E-22
1.25522E-01 3.59813E-22
1.28428E-01 3.45591E-22
1.31361E-01 3.32107E-22
1.34323E-01 3.19313E-22
1.37313E-01 3.07164E-22
1.40330E-01 2.95622E-22
1.43375E-01 2.84648E-22
1.46447E-01 2.74208E-22
1.49545E-01 2.64269E-22
1.52671E-01 2.54801E-22
1.55823E-01 2.45778E-22
1.59001E-01 2.37172E-22
1.62205E-01 2.28960E-22
1.65435E-01 2.21119E-22
1.68690E-01 2.13629E-22
1.71970E-01 2.06470E-22
1.75276E-01 1.99623E-22
1.78606E-01 1.93073E-22
1.81961E-01 1.86802E-22
1.85340E-01 1.80796E-22
1.88743E-01 1.75040E-22
1.92169E-01 1.69523E-22
1.95619E-01 1.64231E-22
1.99092E-01 1.59154E-22
2.02589E-01 1.54279E-22
2.06107E-01 1.49597E-22
2.09649E-01 1.45099E-22
2.13212E-01 1.40776E-22
2.16797E-01 1.36618E-22
2.20404E-01 1.32619E-22
2.24032E-01 1.28770E-22
2.27680E-01 1.25064E-22
2.31350E-01 1.21495E-22
2.35040E-01 1.18057E-22
2.38751E-01 1.14742E-22
2.42481E-01 1.11547E-22
2.46231E-01 1.08465E-22
2.50000E-01 1.05492E-22
2.53788E-01 1.02622E-22
2.57595E-01 9.98514E-23
2.61421E-01 9.71755E-23
2.65264E-01 9.45903E-23
2.69126E-01 9.20920E-23
2.73005E-01 8.96768E-23
2.76901E-01 8.73415E-23
2.80814E-01 8.50824E-23
2.84744E-01 8.28968E-23
2.88691E-01 8.07814E-23
2.92653E-01 7.87336E-23
2.96632E-01 7.67504E-23
3.00625E-01 7.48294E-23
3.04634E-01 7.29683E-23
3.08658E-01 7.11645E-23
3.12697E-01 6.94159E-23
3.16749E-01 6.77203E-23
3.20816E-01 6.60759E-23
3.24896E-01 6.44806E-23
3.28990E-01 6.29326E-23
3.33097E-01 6.14300E-23
3.37216E-01 5.99713E-23
3.41348E-01 5.85549E-23
3.45492E-01 5.71792E-23
3.49647E-01 5.58427E-23
3.53814E-01 5.45441E-23
3.57992E-01 5.32819E-23
3.62181E-01 5.20550E-23
3.66381E-01 5.08621E-23
3.70590E-01 4.97019E-23
3.74810E-01 4.85735E-23
3.79039E-01 4.74756E-23
3.83277E-01 4.64073E-23
3.87524E-01 4.53675E-23
3.91780E-01 4.43554E-23
3.96044E-01 4.33699E-23
4.00316E-01 4.24103E-23
4.04596E-01 4.14756E-23
4.08882E-01 4.05651E-23
4.13176E-01 3.96779E-23
4.17476E-01 3.88134E-23
4.21783E-01 3.79708E-23
4.26095E-01 3.71494E-23
4.30413E-01 3.63486E-23
4.34737E-01 3.55676E-23
4.39065E-01 3.48060E-23
4.43398E-01 3.40630E-23
4.47736E-01 3.33382E-23
4.52077E-01 3.26310E-23
4.56422E-01 3.19408E-23
4.60770E-01 3.12672E-23
4.65122E-01 3.06096E-23
4.69476E-01 2.99676E-23
4.73832E-01 2.93408E-23
4.78190E-01 2.87286E-23
4.82550E-01 2.81306E-23
4.86912E-01 2.75465E-23
4.91274E-01 2.69758E-23
4.95637E-01 2.64182E-23
5.00000E-01 2.58733E-23
5.04363E-01 2.53408E-23
5.08726E-01 2.48202E-23
5.13088E-01 2.43113E-23
5.17450E-01 2.38138E-23
5.21810E-01 2.33272E-23
5.26168E-01 2.28514E-23
5.30524E-01 2.23861E-23
5.34878E-01 2.19309E-23
5.39230E-01 2.14856E-23
5.43578E-01 2.10500E-23
5.47923E-01 2.06237E-23
5.52264E-01 2.02065E-23
5.56602E-01 1.97982E-23
5.60935E-01 1.93986E-23
5.65263E-01 1.90074E-23
5.69587E-01 1.86245E-23
5.73905E-01 1.82495E-23
5.78217E-01 1.78824E-23
5.82524E-01 1.75228E-23
5.86824E-01 1.71707E-23
5.91118E-01 1.68258E-23
5.95404E-01 1.64880E-23
5.99684E-01 1.61571E-23
6.03956E-01 1.58329E-23
6.08220E-01 1.55152E-23
6.12476E-01 1.52040E-23
6.16723E-01 1.48989E-23
6.20961E-01 1.46000E-23
6.25190E-01 1.43070E-23
6.29410E-01 1.40198E-23
6.33619E-01 1.37383E-23
6.37819E-01 1.34623E-23
6.42008E-01 1.31918E-23
6.46186E-01 1.29265E-23
6.50353E-01 1.26664E-23
6.54508E-01 1.24113E-23
6.58652E-01 1.21611E-23
6.62784E-01 1.19158E-23
6.66903E-01 1.16752E-23
6.71010E-01 1.14392E-23
6.75104E-01 1.12077E-23
6.79184E-01 1.09806E-23
6.83251E-01 1.07578E-23
6.87303E-01 1.05392E-23
6.91342E-01 1.03247E-23
6.95366E-01 1.01143E-23
6.99375E-01 9.90778E-24
7.03368E-01 9.70515E-24
7.07347E-01 9.50630E-24
7.11309E-01 9.31115E-24
7.15256E-01 9.11963E-24
7.19186E-01 8.93164E-24
7.23099E-01 8.74713E-24
7.26995E-01 8.56602E-24
7.30874E-01 8.38825E-24
7.34736E-01 8.21373E-24
7.38579E-01 8.04241E-24
7.42405E-01 7.87422E-24
7.46212E-01 7.70911E-24
7.50000E-01 7.54700E-24
7.53769E-01 7.38784E-24
7.57519E-01 7.23157E-24
7.61249E-01 7.07813E-24
7.64960E-01 6.92747E-24
7.68650E-01 6.77954E-24
7.72320E-01 6.63428E-24
7.75968E-01 6.49164E-24
7.79596E-01 6.35157E-24
7.83203E-01 6.21403E-24
7.86788E-01 6.07896E-24
7.90351E-01 5.94632E-24
7.93893E-01 5.81606E-24
7.97411E-01 5.68815E-24
8.00908E-01 5.56253E-24
8.04381E-01 5.43916E-24
8.07831E-01 5.31801E-24
8.11257E-01 5.19904E-24
8.14660E-01 5.08220E-24
8.18039E-01 4.96745E-24
8.21394E-01 4.85477E-24
8.24724E-01 4.74411E-24
8.28030E-01 4.63545E-24
8.31310E-01 4.52873E-24
8.34565E-01 4.42394E-24
8.37795E-01 4.32104E-24
8.40999E-01 4.21999E-24
8.44177E-01 4.12077E-24
8.47329E-01 4.02335E-24
8.50455E-01 3.92769E-24
8.53553E-01 3.83376E-24
8.56625E-01 3.74155E-24
8.59670E-01 3.65101E-24
8.62687E-01 3.56213E-24
8.65677E-01 3.47487E-24
8.68639E-01 3.38922E-24
8.71572E-01 3.30514E-24
8.74478E-01 3.22261E-24
8.77355E-01 3.14162E-24
8.80203E-01 3.06212E-24
8.83022E-01 2.98411E-24
8.85812E-01 2.90755E-24
8.88573E-01 2.83243E-24
8.91304E-01 2.75873E-24
8.94005E-01 2.68643E-24
8.96677E-01 2.61549E-24
8.99318E-01 2.54592E-24
9.01928E-01 2.47768E-24
9.04508E-01 2.41075E-24
9.07058E-01 2.34513E-24
9.09576E-01 2.28078E-24
9.12063E-01 2.21770E-24
9.14519E-01 2.15587E-24
9.16943E-01 2.09526E-24
9.19335E-01 2.03587E-24
9.21696E-01 1.97767E-24
9.24024E-01 1.92065E-24
9.26320E-01 1.86481E-24
9.28584E-01 1.81011E-24
9.30815E-01 1.75655E-24
9.33013E-01 1.70411E-24
9.35178E-01 1.65278E-24
9.37310E-01 1.60255E-24
9.39409E-01 1.55340E-24
9.41474E-01 1.50533E-24
9.43505E-01 1.45831E-24
9.45503E-01 1.41233E-24
9.47467E-01 1.36739E-24
9.49397E-01 1.32348E-24
9.51293E-01 1.28057E-24
9.53154E-01 1.23867E-24
9.54981E-01 1.19775E-24
9.56773E-01 1.15782E-24
9.58530E-01 1.11885E-24
9.60252E-01 1.08085E-24
9.61940E-01 1.04379E-24
9.63592E-01 1.00768E-24
9.65209E-01 9.72502E-25
9.66790E-01 9.38246E-25
9.68336E-01 9.04905E-25
9.69846E-01 8.72472E-25
9.71321E-01 8.40938E-25
9.72759E-01 8.10295E-25
9.74162E-01 7.80536E-25
9.75528E-01 7.51655E-25
9.76858E-01 7.23643E-25
9.78152E-01 6.96494E-25
9.79410E-01 6.70202E-25
9.80631E-01 6.44760E-25
9.81815E-01 6.20162E-25
9.82963E-01 5.96402E-25
9.84074E-01 5.73474E-25
9.85148E-01 5.51374E-25
9.86185E-01 5.30096E-25
9.87185E-01 5.09634E-25
9.88148E-01 4.89984E-25
9.89074E-01 4.71141E-25
9.89962E-01 4.53101E-25
9.90814E-01 4.35859E-25
9.91627E-01 4.19412E-25
9.92404E-01 4.03755E-25
9.93143E-01 3.88885E-25
9.93844E-01 3.74799E-25
9.94508E-01 3.61492E-25
9.95134E-01 3.48962E-25
9.95722E-01 3.37206E-25
9.96273E-01 3.26222E-25
9.96786E-01 3.16006E-25
9.97261E-01 3.06556E-25
9.97698E-01 2.97871E-25
9.98097E-01 2.89947E-25
9.98459E-01 2.82784E-25
9.98782E-01 2.76379E-25
9.99067E-01 2.70731E-25
9.99315E-01 2.65839E-25
9.99524E-01 2.61701E-25
9.99695E-01 2.58317E-25
9.99829E-01 2.55686E-25
9.99924E-01 2.53807E-25
9.99981E-01 2.52679E-25
1.00000E+00 2.52304E-25
