 #
 # Subroutine ELSEPA. Elastic scattering of electrons and positrons
 #                    by neutral atoms and positive ions
 #
 # Projectile: electron
 # Kinetic energy = 5.00000E+08 eV = 1.83747E+07 a.u.
 #
 # WARNING: High-energy factorization with free-atom DF screening.
 #          Absorption, polarization and exchange corrections are
 #          switched off.
 #          Phase shifts are calculated for the bare nucleus.
 #          Scattering amplitudes are not evaluated.
 #
 # Element: Pt,  Z =  78,  atomic weight = 1.95078E+02 g/mol
 #
 # Nuclear model: Fermi distribution
 #                Average radius = 6.20564E-13 cm
 #                Skin thickness = 5.46000E-14 cm
 #
 # Number of electrons = 78
 #
 # Total elastic cross section = 7.62352E-18 cm**2 = 2.72241E-01 a0**2
 # 1st transport cross section = 4.58145E-26 cm**2 = 1.63606E-09 a0**2
 # 2nd transport cross section = 1.37391E-25 cm**2 = 4.90632E-09 a0**2
 #
 #
 # Differential cross section:                       MU=(1-COS(THETA))/2
 #
 #  THETA        MU          DCS          DCS        Sherman      error
 #  (deg)                 (cm**2/sr)   (a0**2/sr)    function
 #----------------------------------------------------------------------
0.00000E+00 1.03898E-08
7.61557E-13 9.97303E-09
1.18994E-12 9.75108E-09
1.71346E-12 9.49278E-09
2.33225E-12 9.20356E-09
3.04617E-12 8.88976E-09
3.85530E-12 8.55754E-09
4.75964E-12 8.21273E-09
5.75917E-12 7.86067E-09
6.85391E-12 7.50498E-09
8.04379E-12 7.15013E-09
9.32893E-12 6.80020E-09
1.07092E-11 6.45800E-09
1.21847E-11 6.12569E-09
1.37554E-11 5.80486E-09
1.54213E-11 5.49664E-09
1.71823E-11 5.20177E-09
1.90386E-11 4.92061E-09
2.09900E-11 4.65331E-09
2.30367E-11 4.39976E-09
2.51785E-11 4.15949E-09
2.74156E-11 3.93169E-09
2.97478E-11 3.71674E-09
3.21752E-11 3.51410E-09
3.46979E-11 3.32321E-09
3.73157E-11 3.14350E-09
4.00286E-11 2.97437E-09
4.28368E-11 2.81525E-09
4.57402E-11 2.66558E-09
4.87388E-11 2.52478E-09
5.18325E-11 2.39235E-09
5.50215E-11 2.26777E-09
5.83057E-11 2.15025E-09
6.16850E-11 2.03966E-09
6.51595E-11 1.93561E-09
6.87293E-11 1.83769E-09
7.23943E-11 1.74551E-09
7.61544E-11 1.65870E-09
1.18991E-10 1.00765E-09
1.71347E-10 6.51289E-10
2.33223E-10 4.38543E-10
3.04617E-10 3.06404E-10
3.85531E-10 2.21072E-10
4.75965E-10 1.63872E-10
5.75917E-10 1.24196E-10
6.85389E-10 9.57449E-11
8.04380E-10 7.48912E-11
9.32891E-10 5.93331E-11
1.07092E-09 4.75320E-11
1.21847E-09 3.84593E-11
1.37554E-09 3.14055E-11
1.54213E-09 2.58679E-11
1.71823E-09 2.14824E-11
1.90386E-09 1.79809E-11
2.09900E-09 1.51646E-11
2.30367E-09 1.28855E-11
2.51785E-09 1.10104E-11
2.74156E-09 9.46897E-12
2.97478E-09 8.19431E-12
3.21752E-09 7.13232E-12
3.46978E-09 6.24081E-12
3.73156E-09 5.48691E-12
4.00286E-09 4.84506E-12
4.28368E-09 4.29525E-12
4.57402E-09 3.82179E-12
4.87388E-09 3.41217E-12
5.18326E-09 3.05632E-12
5.50215E-09 2.74600E-12
5.83057E-09 2.47425E-12
6.16850E-09 2.23555E-12
6.51596E-09 2.02515E-12
6.87293E-09 1.83902E-12
7.23942E-09 1.67382E-12
7.61544E-09 1.52674E-12
1.18991E-08 6.71940E-13
1.71347E-08 3.40357E-13
2.33223E-08 1.90306E-13
3.04617E-08 1.14479E-13
3.85531E-08 7.29287E-14
4.75965E-08 4.86432E-14
5.75917E-08 3.36840E-14
6.85389E-08 2.40613E-14
8.04380E-08 1.76447E-14
9.32891E-08 1.32319E-14
1.07092E-07 1.01152E-14
1.21847E-07 7.86364E-15
1.37554E-07 6.20451E-15
1.54213E-07 4.96021E-15
1.71823E-07 4.01228E-15
1.90386E-07 3.28011E-15
2.09900E-07 2.70742E-15
2.30367E-07 2.25429E-15
2.51785E-07 1.89205E-15
2.74156E-07 1.59969E-15
2.97478E-07 1.36167E-15
3.21752E-07 1.16629E-15
3.46978E-07 1.00473E-15
3.73156E-07 8.70206E-16
4.00286E-07 7.57461E-16
4.28368E-07 6.62401E-16
4.57402E-07 5.81801E-16
4.87388E-07 5.13100E-16
5.18325E-07 4.54248E-16
5.50215E-07 4.03601E-16
5.83057E-07 3.59823E-16
6.16850E-07 3.21824E-16
6.51596E-07 2.88713E-16
6.87293E-07 2.59755E-16
7.23942E-07 2.34339E-16
7.61543E-07 2.11958E-16
1.18991E-06 8.74318E-17
1.71347E-06 4.23632E-17
2.33223E-06 2.29415E-17
3.04617E-06 1.34797E-17
3.85531E-06 8.43015E-18
4.75964E-06 5.53855E-18
5.75916E-06 3.78698E-18
6.85388E-06 2.67621E-18
8.04378E-06 1.94442E-18
9.32888E-06 1.44651E-18
1.07092E-05 1.09826E-18
1.21846E-05 8.48781E-19
1.37553E-05 6.66293E-19
1.54212E-05 5.30322E-19
1.71822E-05 4.27336E-19
1.90385E-05 3.47980E-19
2.09899E-05 2.86572E-19
2.30365E-05 2.38092E-19
2.51783E-05 1.99386E-19
2.74153E-05 1.68190E-19
2.97475E-05 1.42843E-19
3.21749E-05 1.22096E-19
3.46974E-05 1.04994E-19
3.73152E-05 9.07978E-20
4.00281E-05 7.89328E-20
4.28362E-05 6.89493E-20
4.57395E-05 6.04958E-20
4.87380E-05 5.32965E-20
5.18317E-05 4.71338E-20
5.50205E-05 4.18346E-20
5.83045E-05 3.72590E-20
6.16838E-05 3.32928E-20
6.51582E-05 2.98419E-20
6.87277E-05 2.68281E-20
7.23925E-05 2.41863E-20
7.61524E-05 2.21968E-20
9.21439E-05 1.52046E-20
1.09658E-04 1.07641E-20
1.28695E-04 7.83340E-21
1.49255E-04 5.83546E-21
1.71338E-04 4.43563E-21
1.94942E-04 3.43089E-21
2.20070E-04 2.69456E-21
2.46720E-04 2.14493E-21
2.74892E-04 1.72789E-21
3.04586E-04 1.40685E-21
3.35803E-04 1.15645E-21
3.68542E-04 9.58833E-22
4.02802E-04 8.01210E-22
4.38585E-04 6.74259E-22
4.75889E-04 5.71100E-22
5.14715E-04 4.86593E-22
5.55063E-04 4.16845E-22
5.96931E-04 3.58882E-22
6.40321E-04 3.10405E-22
6.85233E-04 2.69621E-22
7.31665E-04 2.35122E-22
7.79618E-04 2.05789E-22
8.29092E-04 1.80731E-22
8.80086E-04 1.59229E-22
9.32601E-04 1.40701E-22
9.86636E-04 1.24674E-22
1.04219E-03 1.10759E-22
1.09927E-03 9.86367E-23
1.15786E-03 8.80411E-23
1.21797E-03 7.87522E-23
1.27961E-03 7.05851E-23
1.34276E-03 6.33847E-23
1.40743E-03 5.70206E-23
1.47362E-03 5.13815E-23
1.54133E-03 4.63736E-23
1.61056E-03 4.19164E-23
1.68131E-03 3.79412E-23
1.75357E-03 3.43888E-23
1.82735E-03 3.12083E-23
1.90265E-03 2.83558E-23
1.97947E-03 2.57931E-23
2.05780E-03 2.34870E-23
2.13765E-03 2.14088E-23
2.21902E-03 1.95331E-23
2.30190E-03 1.78378E-23
2.38630E-03 1.63037E-23
2.47222E-03 1.49136E-23
2.55965E-03 1.36525E-23
2.64859E-03 1.25071E-23
2.73905E-03 1.14657E-23
2.83103E-03 1.05178E-23
2.92452E-03 9.65426E-24
3.01952E-03 8.86675E-24
3.11604E-03 8.14796E-24
3.21407E-03 7.49132E-24
3.31362E-03 6.89098E-24
3.41468E-03 6.34167E-24
3.51725E-03 5.83869E-24
3.62133E-03 5.37781E-24
3.72692E-03 4.95521E-24
3.83403E-03 4.56747E-24
3.94265E-03 4.21151E-24
4.05278E-03 3.88452E-24
4.16442E-03 3.58398E-24
4.27757E-03 3.30762E-24
4.39223E-03 3.05335E-24
4.50840E-03 2.81931E-24
4.62608E-03 2.60379E-24
4.74527E-03 2.40524E-24
4.86597E-03 2.22226E-24
4.98817E-03 2.05355E-24
5.11188E-03 1.89796E-24
5.23711E-03 1.75442E-24
5.36383E-03 1.62195E-24
5.49207E-03 1.49966E-24
5.62181E-03 1.38674E-24
5.75306E-03 1.28245E-24
5.88581E-03 1.18610E-24
6.02007E-03 1.09707E-24
6.15583E-03 1.01480E-24
6.29310E-03 9.38743E-25
6.43187E-03 8.68430E-25
6.57214E-03 8.03415E-25
6.71392E-03 7.43292E-25
6.85720E-03 6.87685E-25
7.00198E-03 6.36251E-25
7.14827E-03 5.88671E-25
7.29605E-03 5.44654E-25
7.44534E-03 5.03930E-25
7.59612E-03 4.66251E-25
7.97965E-03 3.83918E-25
8.37255E-03 3.16112E-25
8.77480E-03 2.60275E-25
9.18641E-03 2.14304E-25
9.60736E-03 1.76470E-25
1.00376E-02 1.45349E-25
1.04773E-02 1.19765E-25
1.09262E-02 9.87477E-26
1.13844E-02 8.14940E-26
1.18520E-02 6.73409E-26
1.23288E-02 5.57400E-26
1.28150E-02 4.62375E-26
1.33104E-02 3.84583E-26
1.38150E-02 3.20925E-26
1.43290E-02 2.68841E-26
1.48521E-02 2.26220E-26
1.53845E-02 1.91321E-26
1.59262E-02 1.62715E-26
1.64770E-02 1.39224E-26
1.70371E-02 1.19886E-26
1.76063E-02 1.03913E-26
1.81848E-02 9.06617E-27
1.87724E-02 7.96095E-27
1.93692E-02 7.03323E-27
1.99751E-02 6.24875E-27
2.05901E-02 5.57990E-27
2.12143E-02 5.00455E-27
2.18476E-02 4.50499E-27
2.24900E-02 4.06714E-27
2.31415E-02 3.67986E-27
2.38021E-02 3.33434E-27
2.44717E-02 3.02367E-27
2.51504E-02 2.74242E-27
2.58382E-02 2.48637E-27
2.65349E-02 2.25222E-27
2.72407E-02 2.03738E-27
2.79555E-02 1.83982E-27
2.86793E-02 1.65795E-27
2.94120E-02 1.49047E-27
3.01537E-02 1.33633E-27
3.09043E-02 1.19465E-27
3.16639E-02 1.06467E-27
3.24324E-02 9.45698E-28
3.32098E-02 8.37114E-28
3.39961E-02 7.38328E-28
3.47912E-02 6.48777E-28
3.55952E-02 5.67909E-28
3.64081E-02 4.95182E-28
3.72297E-02 4.30064E-28
3.80602E-02 3.72025E-28
3.88995E-02 3.20547E-28
3.97476E-02 2.75120E-28
4.06044E-02 2.35245E-28
4.14700E-02 2.00438E-28
4.23443E-02 1.70231E-28
4.32273E-02 1.44177E-28
4.41190E-02 1.21849E-28
4.50194E-02 1.02843E-28
4.59284E-02 8.67794E-29
4.68461E-02 7.33043E-29
4.87074E-02 5.28340E-29
5.06030E-02 3.91225E-29
5.25328E-02 3.02697E-29
5.44967E-02 2.47603E-29
5.64946E-02 2.14257E-29
5.85262E-02 1.93994E-29
6.05914E-02 1.80681E-29
6.26901E-02 1.70238E-29
6.48222E-02 1.60179E-29
6.69873E-02 1.49208E-29
6.91854E-02 1.36868E-29
7.14163E-02 1.23248E-29
7.36799E-02 1.08753E-29
7.59760E-02 9.39343E-30
7.83043E-02 7.93635E-30
8.06647E-02 6.55522E-30
8.30571E-02 5.29062E-30
8.54812E-02 4.17049E-30
8.79369E-02 3.21015E-30
9.04240E-02 2.41345E-30
9.29422E-02 1.77478E-30
9.54915E-02 1.28140E-30
9.80716E-02 9.15804E-31
1.00682E-01 6.57882E-31
1.03323E-01 4.86783E-31
1.05995E-01 3.82383E-31
1.08696E-01 3.26354E-31
1.11427E-01 3.02839E-31
1.14188E-01 2.98809E-31
1.16978E-01 3.04125E-31
1.19797E-01 3.11400E-31
1.22645E-01 3.15711E-31
1.25522E-01 3.14219E-31
1.28428E-01 3.05748E-31
1.31361E-01 2.90366E-31
1.34323E-01 2.68996E-31
1.37313E-01 2.43069E-31
1.40330E-01 2.14245E-31
1.43375E-01 1.84189E-31
1.46447E-01 1.54417E-31
1.49545E-01 1.26191E-31
1.52671E-01 1.00470E-31
1.55823E-01 7.78958E-32
1.59001E-01 5.88089E-32
1.62205E-01 4.32855E-32
1.65435E-01 3.11863E-32
1.68690E-01 2.22111E-32
1.71970E-01 1.59517E-32
1.75276E-01 1.19420E-32
1.78606E-01 9.70013E-33
1.81961E-01 8.76201E-33
1.85340E-01 8.70675E-33
1.88743E-01 9.17283E-33
1.92169E-01 9.86675E-33
1.95619E-01 1.05652E-32
1.99092E-01 1.11118E-32
2.02589E-01 1.14108E-32
2.06107E-01 1.14175E-32
2.09649E-01 1.11280E-32
2.13212E-01 1.05688E-32
2.16797E-01 9.78677E-33
2.20404E-01 8.84002E-33
2.24032E-01 7.79058E-33
2.27680E-01 6.69847E-33
2.31350E-01 5.61739E-33
2.35040E-01 4.59195E-33
2.38751E-01 3.65622E-33
2.42481E-01 2.83338E-33
2.46231E-01 2.13631E-33
2.50000E-01 1.56868E-33
2.53788E-01 1.12655E-33
2.57595E-01 8.00069E-34
2.61421E-01 5.75296E-34
2.65264E-01 4.35826E-34
2.69126E-01 3.64287E-34
2.73005E-01 3.43565E-34
2.76901E-01 3.57755E-34
2.80814E-01 3.92835E-34
2.84744E-01 4.37082E-34
2.88691E-01 4.81252E-34
2.92653E-01 5.18573E-34
2.96632E-01 5.44587E-34
3.00625E-01 5.56881E-34
3.04634E-01 5.54764E-34
3.08658E-01 5.38894E-34
3.12697E-01 5.10920E-34
3.16749E-01 4.73135E-34
3.20816E-01 4.28172E-34
3.24896E-01 3.78741E-34
3.28990E-01 3.27430E-34
3.33097E-01 2.76552E-34
3.37216E-01 2.28043E-34
3.41348E-01 1.83414E-34
3.45492E-01 1.43731E-34
3.49647E-01 1.09636E-34
3.53814E-01 8.13863E-35
3.57992E-01 5.89092E-35
3.62181E-01 4.18682E-35
3.66381E-01 2.97301E-35
3.70590E-01 2.18312E-35
3.74810E-01 1.74372E-35
3.79039E-01 1.57961E-35
3.83277E-01 1.61809E-35
3.87524E-01 1.79230E-35
3.91780E-01 2.04353E-35
3.96044E-01 2.32264E-35
4.00316E-01 2.59064E-35
4.04596E-01 2.81865E-35
4.08882E-01 2.98725E-35
4.13176E-01 3.08555E-35
4.17476E-01 3.10989E-35
4.21783E-01 3.06248E-35
4.26095E-01 2.95001E-35
4.30413E-01 2.78227E-35
4.34737E-01 2.57093E-35
4.39065E-01 2.32845E-35
4.43398E-01 2.06720E-35
4.47736E-01 1.79876E-35
4.52077E-01 1.53337E-35
4.56422E-01 1.27965E-35
4.60770E-01 1.04441E-35
4.65122E-01 8.32601E-36
4.69476E-01 6.47378E-36
4.73832E-01 4.90279E-36
4.78190E-01 3.61413E-36
4.82550E-01 2.59707E-36
4.86912E-01 1.83169E-36
4.91274E-01 1.29139E-36
4.95637E-01 9.45298E-37
5.00000E-01 7.60453E-37
5.04363E-01 7.03650E-37
5.08726E-01 7.42977E-37
5.13088E-01 8.48950E-37
5.17450E-01 9.95387E-37
5.21810E-01 1.15990E-36
5.26168E-01 1.32417E-36
5.30524E-01 1.47393E-36
5.34878E-01 1.59881E-36
5.39230E-01 1.69203E-36
5.43578E-01 1.74994E-36
5.47923E-01 1.77161E-36
5.52264E-01 1.75825E-36
5.56602E-01 1.71277E-36
5.60935E-01 1.63927E-36
5.65263E-01 1.54264E-36
5.69587E-01 1.42812E-36
5.73905E-01 1.30102E-36
5.78217E-01 1.16647E-36
5.82524E-01 1.02916E-36
5.86824E-01 8.93260E-37
5.91118E-01 7.62299E-37
5.95404E-01 6.39116E-37
5.99684E-01 5.25886E-37
6.03956E-01 4.24088E-37
6.08220E-01 3.34626E-37
6.12476E-01 2.57841E-37
6.16723E-01 1.93609E-37
6.20961E-01 1.41428E-37
6.25190E-01 1.00486E-37
6.29410E-01 1.00000E-45
6.33619E-01 1.00000E-45
6.37819E-01 1.00000E-45
6.42008E-01 1.00000E-45
6.46186E-01 1.00000E-45
6.50353E-01 1.00000E-45
6.54508E-01 1.00000E-45
6.58652E-01 1.00000E-45
6.62784E-01 1.00000E-45
6.66903E-01 1.00000E-45
6.71010E-01 1.00000E-45
6.75104E-01 1.00000E-45
6.79184E-01 1.00000E-45
6.83251E-01 1.00000E-45
6.87303E-01 1.00000E-45
6.91342E-01 1.00000E-45
6.95366E-01 1.00000E-45
6.99375E-01 1.00000E-45
7.03368E-01 1.00000E-45
7.07347E-01 1.00000E-45
7.11309E-01 1.00000E-45
7.15256E-01 1.00000E-45
7.19186E-01 1.00000E-45
7.23099E-01 1.00000E-45
7.26995E-01 1.00000E-45
7.30874E-01 1.00000E-45
7.34736E-01 1.00000E-45
7.38579E-01 1.00000E-45
7.42405E-01 1.00000E-45
7.46212E-01 1.00000E-45
7.50000E-01 1.00000E-45
7.53769E-01 1.00000E-45
7.57519E-01 1.00000E-45
7.61249E-01 1.00000E-45
7.64960E-01 1.00000E-45
7.68650E-01 1.00000E-45
7.72320E-01 1.00000E-45
7.75968E-01 1.00000E-45
7.79596E-01 1.00000E-45
7.83203E-01 1.00000E-45
7.86788E-01 1.00000E-45
7.90351E-01 1.00000E-45
7.93893E-01 1.00000E-45
7.97411E-01 1.00000E-45
8.00908E-01 1.00000E-45
8.04381E-01 1.00000E-45
8.07831E-01 1.00000E-45
8.11257E-01 1.00000E-45
8.14660E-01 1.00000E-45
8.18039E-01 1.00000E-45
8.21394E-01 1.00000E-45
8.24724E-01 1.00000E-45
8.28030E-01 1.00000E-45
8.31310E-01 1.00000E-45
8.34565E-01 1.00000E-45
8.37795E-01 1.00000E-45
8.40999E-01 1.00000E-45
8.44177E-01 1.00000E-45
8.47329E-01 1.00000E-45
8.50455E-01 1.00000E-45
8.53553E-01 1.00000E-45
8.56625E-01 1.00000E-45
8.59670E-01 1.00000E-45
8.62687E-01 1.00000E-45
8.65677E-01 1.00000E-45
8.68639E-01 1.00000E-45
8.71572E-01 1.00000E-45
8.74478E-01 1.00000E-45
8.77355E-01 1.00000E-45
8.80203E-01 1.00000E-45
8.83022E-01 1.00000E-45
8.85812E-01 1.00000E-45
8.88573E-01 1.00000E-45
8.91304E-01 1.00000E-45
8.94005E-01 1.00000E-45
8.96677E-01 1.00000E-45
8.99318E-01 1.00000E-45
9.01928E-01 1.00000E-45
9.04508E-01 1.00000E-45
9.07058E-01 1.00000E-45
9.09576E-01 1.00000E-45
9.12063E-01 1.00000E-45
9.14519E-01 1.00000E-45
9.16943E-01 1.00000E-45
9.19335E-01 1.00000E-45
9.21696E-01 1.00000E-45
9.24024E-01 1.00000E-45
9.26320E-01 1.00000E-45
9.28584E-01 1.00000E-45
9.30815E-01 1.00000E-45
9.33013E-01 1.00000E-45
9.35178E-01 1.00000E-45
9.37310E-01 1.00000E-45
9.39409E-01 1.00000E-45
9.41474E-01 1.00000E-45
9.43505E-01 1.00000E-45
9.45503E-01 1.00000E-45
9.47467E-01 1.00000E-45
9.49397E-01 1.00000E-45
9.51293E-01 1.00000E-45
9.53154E-01 1.00000E-45
9.54981E-01 1.00000E-45
9.56773E-01 1.00000E-45
9.58530E-01 1.00000E-45
9.60252E-01 1.00000E-45
9.61940E-01 1.00000E-45
9.63592E-01 1.00000E-45
9.65209E-01 1.00000E-45
9.66790E-01 1.00000E-45
9.68336E-01 1.00000E-45
9.69846E-01 1.00000E-45
9.71321E-01 1.00000E-45
9.72759E-01 1.00000E-45
9.74162E-01 1.00000E-45
9.75528E-01 1.00000E-45
9.76858E-01 1.00000E-45
9.78152E-01 1.00000E-45
9.79410E-01 1.00000E-45
9.80631E-01 1.00000E-45
9.81815E-01 1.00000E-45
9.82963E-01 1.00000E-45
9.84074E-01 1.00000E-45
9.85148E-01 1.00000E-45
9.86185E-01 1.00000E-45
9.87185E-01 1.00000E-45
9.88148E-01 1.00000E-45
9.89074E-01 1.00000E-45
9.89962E-01 1.00000E-45
9.90814E-01 1.00000E-45
9.91627E-01 1.00000E-45
9.92404E-01 1.00000E-45
9.93143E-01 1.00000E-45
9.93844E-01 1.00000E-45
9.94508E-01 1.00000E-45
9.95134E-01 1.00000E-45
9.95722E-01 1.00000E-45
9.96273E-01 1.00000E-45
9.96786E-01 1.00000E-45
9.97261E-01 1.00000E-45
9.97698E-01 1.00000E-45
9.98097E-01 1.00000E-45
9.98459E-01 1.00000E-45
9.98782E-01 1.00000E-45
9.99067E-01 1.00000E-45
9.99315E-01 1.00000E-45
9.99524E-01 1.00000E-45
9.99695E-01 1.00000E-45
9.99829E-01 1.00000E-45
9.99924E-01 1.00000E-45
9.99981E-01 1.00000E-45
1.00000E+00 1.00000E-45
