 #
 # Subroutine ELSEPA. Elastic scattering of electrons and positrons
 #                    by neutral atoms and positive ions
 #
 # Projectile: electron
 # Kinetic energy = 1.50000E+08 eV = 5.51240E+06 a.u.
 #
 # WARNING: High-energy factorization with free-atom DF screening.
 #          Absorption, polarization and exchange corrections are
 #          switched off.
 #          Phase shifts are calculated for the bare nucleus.
 #          Scattering amplitudes are not evaluated.
 #
 # Element: Pt,  Z =  78,  atomic weight = 1.95078E+02 g/mol
 #
 # Nuclear model: Fermi distribution
 #                Average radius = 6.20564E-13 cm
 #                Skin thickness = 5.46000E-14 cm
 #
 # Number of electrons = 78
 #
 # Total elastic cross section = 7.62906E-18 cm**2 = 2.72439E-01 a0**2
 # 1st transport cross section = 5.10717E-25 cm**2 = 1.82380E-08 a0**2
 # 2nd transport cross section = 1.52625E-24 cm**2 = 5.45035E-08 a0**2
 #
 #
 # Differential cross section:                       MU=(1-COS(THETA))/2
 #
 #  THETA        MU          DCS          DCS        Sherman      error
 #  (deg)                 (cm**2/sr)   (a0**2/sr)    function
 #----------------------------------------------------------------------
0.00000E+00 9.39546E-10
7.61557E-13 9.36006E-10
1.18994E-12 9.34032E-10
1.71346E-12 9.31629E-10
2.33225E-12 9.28806E-10
3.04617E-12 9.25568E-10
3.85530E-12 9.21925E-10
4.75964E-12 9.17884E-10
5.75917E-12 9.13457E-10
6.85391E-12 9.08654E-10
8.04379E-12 9.03485E-10
9.32893E-12 8.97965E-10
1.07092E-11 8.92070E-10
1.21847E-11 8.85831E-10
1.37554E-11 8.79335E-10
1.54213E-11 8.72602E-10
1.71823E-11 8.65465E-10
1.90386E-11 8.58073E-10
2.09900E-11 8.50504E-10
2.30367E-11 8.42742E-10
2.51785E-11 8.34569E-10
2.74156E-11 8.26280E-10
2.97478E-11 8.17896E-10
3.21752E-11 8.09258E-10
3.46979E-11 8.00367E-10
3.73157E-11 7.91439E-10
4.00286E-11 7.82492E-10
4.28368E-11 7.73189E-10
4.57402E-11 7.63831E-10
4.87388E-11 7.54507E-10
5.18325E-11 7.45142E-10
5.50215E-11 7.35466E-10
5.83057E-11 7.25869E-10
6.16850E-11 7.16363E-10
6.51595E-11 7.06696E-10
6.87293E-11 6.96926E-10
7.23943E-11 6.87284E-10
7.61544E-11 6.77778E-10
1.18991E-10 5.82921E-10
1.71347E-10 4.95892E-10
2.33223E-10 4.19606E-10
3.04617E-10 3.54427E-10
3.85531E-10 2.99454E-10
4.75965E-10 2.53588E-10
5.75917E-10 2.15420E-10
6.85389E-10 1.83631E-10
8.04380E-10 1.57102E-10
9.32891E-10 1.34958E-10
1.07092E-09 1.15750E-10
1.21847E-09 9.95248E-11
1.37554E-09 8.66609E-11
1.54213E-09 7.63312E-11
1.71823E-09 6.67031E-11
1.90386E-09 5.85462E-11
2.09900E-09 5.18559E-11
2.30367E-09 4.62245E-11
2.51785E-09 4.09603E-11
2.74156E-09 3.65597E-11
2.97478E-09 3.28524E-11
3.21752E-09 2.95525E-11
3.46978E-09 2.65902E-11
3.73156E-09 2.40566E-11
4.00286E-09 2.18768E-11
4.28368E-09 1.98559E-11
4.57402E-09 1.80795E-11
4.87388E-09 1.65327E-11
5.18326E-09 1.51608E-11
5.50215E-09 1.38816E-11
5.83057E-09 1.27563E-11
6.16850E-09 1.17626E-11
6.51596E-09 1.08485E-11
6.87293E-09 1.00108E-11
7.23942E-09 9.26483E-12
7.61544E-09 8.59851E-12
1.18991E-08 4.26583E-12
1.71347E-08 2.32044E-12
2.33223E-08 1.36006E-12
3.04617E-08 8.49218E-13
3.85531E-08 5.59703E-13
4.75965E-08 3.85195E-13
5.75917E-08 2.74070E-13
6.85389E-08 2.00473E-13
8.04380E-08 1.50090E-13
9.32891E-08 1.14580E-13
1.07092E-07 8.88958E-14
1.21847E-07 7.01171E-14
1.37554E-07 5.59781E-14
1.54213E-07 4.52571E-14
1.71823E-07 3.69960E-14
1.90386E-07 3.05136E-14
2.09900E-07 2.53975E-14
2.30367E-07 2.13148E-14
2.51785E-07 1.80131E-14
2.74156E-07 1.53271E-14
2.97478E-07 1.31257E-14
3.21752E-07 1.13036E-14
3.46978E-07 9.78632E-15
3.73156E-07 8.51648E-15
4.00286E-07 7.44582E-15
4.28368E-07 6.53762E-15
4.57402E-07 5.76447E-15
4.87388E-07 5.10256E-15
5.18325E-07 4.53250E-15
5.50215E-07 4.04030E-15
5.83057E-07 3.61344E-15
6.16850E-07 3.24114E-15
6.51596E-07 2.91581E-15
6.87293E-07 2.63048E-15
7.23942E-07 2.37906E-15
7.61543E-07 2.15705E-15
1.18991E-06 9.06860E-16
1.71347E-06 4.44734E-16
2.33223E-06 2.42772E-16
3.04617E-06 1.43458E-16
3.85531E-06 9.01129E-17
4.75964E-06 5.94167E-17
5.75916E-06 4.07505E-17
6.85388E-06 2.88743E-17
8.04378E-06 2.10277E-17
9.32888E-06 1.56753E-17
1.07092E-05 1.19230E-17
1.21846E-05 9.22955E-18
1.37553E-05 7.25560E-18
1.54212E-05 5.78234E-18
1.71822E-05 4.66478E-18
1.90385E-05 3.80243E-18
2.09899E-05 3.13430E-18
2.30365E-05 2.60621E-18
2.51783E-05 2.18415E-18
2.74153E-05 1.84366E-18
2.97475E-05 1.56676E-18
3.21749E-05 1.33994E-18
3.46974E-05 1.15283E-18
3.73152E-05 9.97416E-19
4.00281E-05 8.67443E-19
4.28362E-05 7.58017E-19
4.57395E-05 6.65313E-19
4.87380E-05 5.86325E-19
5.18317E-05 5.18682E-19
5.50205E-05 4.60492E-19
5.83045E-05 4.10230E-19
6.16838E-05 3.66647E-19
6.51582E-05 3.28713E-19
6.87277E-05 2.95574E-19
7.23925E-05 2.66517E-19
7.61524E-05 2.41249E-19
9.21439E-05 1.65081E-19
1.09658E-04 1.16757E-19
1.28695E-04 8.49156E-20
1.49255E-04 6.32357E-20
1.71338E-04 4.80656E-20
1.94942E-04 3.71910E-20
2.20070E-04 2.92309E-20
2.46720E-04 2.32956E-20
2.74892E-04 1.87965E-20
3.04586E-04 1.53357E-20
3.35803E-04 1.26381E-20
3.68542E-04 1.05101E-20
4.02802E-04 8.81309E-21
4.38585E-04 7.44627E-21
4.75889E-04 6.33528E-21
5.14715E-04 5.42474E-21
5.55063E-04 4.67261E-21
5.96931E-04 4.04691E-21
6.40321E-04 3.52291E-21
6.85233E-04 3.08136E-21
7.31665E-04 2.70714E-21
7.79618E-04 2.38825E-21
8.29092E-04 2.11515E-21
8.80086E-04 1.88014E-21
9.32601E-04 1.67701E-21
9.86636E-04 1.50069E-21
1.04219E-03 1.34704E-21
1.09927E-03 1.21263E-21
1.15786E-03 1.09466E-21
1.21797E-03 9.90708E-22
1.27961E-03 8.98825E-22
1.34276E-03 8.17381E-22
1.40743E-03 7.44981E-22
1.47362E-03 6.80441E-22
1.54133E-03 6.22756E-22
1.61056E-03 5.71067E-22
1.68131E-03 5.24640E-22
1.75357E-03 4.82842E-22
1.82735E-03 4.45128E-22
1.90265E-03 4.11028E-22
1.97947E-03 3.80132E-22
2.05780E-03 3.52084E-22
2.13765E-03 3.26574E-22
2.21902E-03 3.03330E-22
2.30190E-03 2.82115E-22
2.38630E-03 2.62718E-22
2.47222E-03 2.44956E-22
2.55965E-03 2.28665E-22
2.64859E-03 2.13701E-22
2.73905E-03 1.99937E-22
2.83103E-03 1.87257E-22
2.92452E-03 1.75562E-22
3.01952E-03 1.64760E-22
3.11604E-03 1.54770E-22
3.21407E-03 1.45521E-22
3.31362E-03 1.36947E-22
3.41468E-03 1.28990E-22
3.51725E-03 1.21597E-22
3.62133E-03 1.14722E-22
3.72692E-03 1.08320E-22
3.83403E-03 1.02353E-22
3.94265E-03 9.67864E-23
4.05278E-03 9.15884E-23
4.16442E-03 8.67299E-23
4.27757E-03 8.21847E-23
4.39223E-03 7.79288E-23
4.50840E-03 7.39405E-23
4.62608E-03 7.01997E-23
4.74527E-03 6.66883E-23
4.86597E-03 6.33897E-23
4.98817E-03 6.02886E-23
5.11188E-03 5.73709E-23
5.23711E-03 5.46239E-23
5.36383E-03 5.20357E-23
5.49207E-03 4.95955E-23
5.62181E-03 4.72933E-23
5.75306E-03 4.51197E-23
5.88581E-03 4.30665E-23
6.02007E-03 4.11256E-23
6.15583E-03 3.92897E-23
6.29310E-03 3.75523E-23
6.43187E-03 3.59070E-23
6.57214E-03 3.43481E-23
6.71392E-03 3.28703E-23
6.85720E-03 3.14685E-23
7.00198E-03 3.01381E-23
7.14827E-03 2.88749E-23
7.29605E-03 2.76748E-23
7.44534E-03 2.65342E-23
7.59612E-03 2.54495E-23
7.97965E-03 2.29621E-23
8.37255E-03 2.07598E-23
8.77480E-03 1.88048E-23
9.18641E-03 1.70649E-23
9.60736E-03 1.55125E-23
1.00376E-02 1.41244E-23
1.04773E-02 1.28804E-23
1.09262E-02 1.17632E-23
1.13844E-02 1.07579E-23
1.18520E-02 9.85154E-24
1.23288E-02 9.03291E-24
1.28150E-02 8.29224E-24
1.33104E-02 7.62100E-24
1.38150E-02 7.01172E-24
1.43290E-02 6.45784E-24
1.48521E-02 5.95360E-24
1.53845E-02 5.49391E-24
1.59262E-02 5.07428E-24
1.64770E-02 4.69074E-24
1.70371E-02 4.33974E-24
1.76063E-02 4.01816E-24
1.81848E-02 3.72319E-24
1.87724E-02 3.45235E-24
1.93692E-02 3.20340E-24
1.99751E-02 2.97435E-24
2.05901E-02 2.76341E-24
2.12143E-02 2.56896E-24
2.18476E-02 2.38956E-24
2.24900E-02 2.22391E-24
2.31415E-02 2.07082E-24
2.38021E-02 1.92924E-24
2.44717E-02 1.79820E-24
2.51504E-02 1.67682E-24
2.58382E-02 1.56433E-24
2.65349E-02 1.45999E-24
2.72407E-02 1.36315E-24
2.79555E-02 1.27323E-24
2.86793E-02 1.18967E-24
2.94120E-02 1.11198E-24
3.01537E-02 1.03972E-24
3.09043E-02 9.72455E-25
3.16639E-02 9.09821E-25
3.24324E-02 8.51467E-25
3.32098E-02 7.97076E-25
3.39961E-02 7.46355E-25
3.47912E-02 6.99037E-25
3.55952E-02 6.54875E-25
3.64081E-02 6.13642E-25
3.72297E-02 5.75128E-25
3.80602E-02 5.39142E-25
3.88995E-02 5.05506E-25
3.97476E-02 4.74056E-25
4.06044E-02 4.44639E-25
4.14700E-02 4.17116E-25
4.23443E-02 3.91358E-25
4.32273E-02 3.67245E-25
4.41190E-02 3.44665E-25
4.50194E-02 3.23515E-25
4.59284E-02 3.03701E-25
4.68461E-02 2.85132E-25
4.87074E-02 2.51411E-25
5.06030E-02 2.21761E-25
5.25328E-02 1.95672E-25
5.44967E-02 1.72699E-25
5.64946E-02 1.52460E-25
5.85262E-02 1.34619E-25
6.05914E-02 1.18885E-25
6.26901E-02 1.05003E-25
6.48222E-02 9.27527E-26
6.69873E-02 8.19380E-26
6.91854E-02 7.23891E-26
7.14163E-02 6.39563E-26
7.36799E-02 5.65083E-26
7.59760E-02 4.99297E-26
7.83043E-02 4.41189E-26
8.06647E-02 3.89863E-26
8.30571E-02 3.44530E-26
8.54812E-02 3.04495E-26
8.79369E-02 2.69143E-26
9.04240E-02 2.37930E-26
9.29422E-02 2.10377E-26
9.54915E-02 1.86061E-26
9.80716E-02 1.64604E-26
1.00682E-01 1.45676E-26
1.03323E-01 1.28983E-26
1.05995E-01 1.14264E-26
1.08696E-01 1.01289E-26
1.11427E-01 8.98549E-27
1.14188E-01 7.97802E-27
1.16978E-01 7.09052E-27
1.19797E-01 6.30885E-27
1.22645E-01 5.62047E-27
1.25522E-01 5.01431E-27
1.28428E-01 4.48055E-27
1.31361E-01 4.01051E-27
1.34323E-01 3.59653E-27
1.37313E-01 3.23183E-27
1.40330E-01 2.91043E-27
1.43375E-01 2.62704E-27
1.46447E-01 2.37699E-27
1.49545E-01 2.15619E-27
1.52671E-01 1.96101E-27
1.55823E-01 1.78828E-27
1.59001E-01 1.63517E-27
1.62205E-01 1.49925E-27
1.65435E-01 1.37834E-27
1.68690E-01 1.27055E-27
1.71970E-01 1.17423E-27
1.75276E-01 1.08793E-27
1.78606E-01 1.01037E-27
1.81961E-01 9.40453E-28
1.85340E-01 8.77213E-28
1.88743E-01 8.19813E-28
1.92169E-01 7.67522E-28
1.95619E-01 7.19710E-28
1.99092E-01 6.75828E-28
2.02589E-01 6.35402E-28
2.06107E-01 5.98022E-28
2.09649E-01 5.63336E-28
2.13212E-01 5.31039E-28
2.16797E-01 5.00869E-28
2.20404E-01 4.72601E-28
2.24032E-01 4.46043E-28
2.27680E-01 4.21027E-28
2.31350E-01 3.97414E-28
2.35040E-01 3.75079E-28
2.38751E-01 3.53920E-28
2.42481E-01 3.33846E-28
2.46231E-01 3.14781E-28
2.50000E-01 2.96657E-28
2.53788E-01 2.79417E-28
2.57595E-01 2.63011E-28
2.61421E-01 2.47395E-28
2.65264E-01 2.32531E-28
2.69126E-01 2.18383E-28
2.73005E-01 2.04921E-28
2.76901E-01 1.92118E-28
2.80814E-01 1.79946E-28
2.84744E-01 1.68384E-28
2.88691E-01 1.57408E-28
2.92653E-01 1.46996E-28
2.96632E-01 1.37130E-28
3.00625E-01 1.27790E-28
3.04634E-01 1.18957E-28
3.08658E-01 1.10611E-28
3.12697E-01 1.02737E-28
3.16749E-01 9.53149E-29
3.20816E-01 8.83284E-29
3.24896E-01 8.17601E-29
3.28990E-01 7.55929E-29
3.33097E-01 6.98101E-29
3.37216E-01 6.43951E-29
3.41348E-01 5.93316E-29
3.45492E-01 5.46035E-29
3.49647E-01 5.01950E-29
3.53814E-01 4.60905E-29
3.57992E-01 4.22748E-29
3.62181E-01 3.87329E-29
3.66381E-01 3.54504E-29
3.70590E-01 3.24130E-29
3.74810E-01 2.96069E-29
3.79039E-01 2.70187E-29
3.83277E-01 2.46355E-29
3.87524E-01 2.24448E-29
3.91780E-01 2.04344E-29
3.96044E-01 1.85927E-29
4.00316E-01 1.69087E-29
4.04596E-01 1.53715E-29
4.08882E-01 1.39710E-29
4.13176E-01 1.26974E-29
4.17476E-01 1.15415E-29
4.21783E-01 1.04944E-29
4.26095E-01 9.54770E-30
4.30413E-01 8.69361E-30
4.34737E-01 7.92459E-30
4.39065E-01 7.23362E-30
4.43398E-01 6.61408E-30
4.47736E-01 6.05977E-30
4.52077E-01 5.56487E-30
4.56422E-01 5.12395E-30
4.60770E-01 4.73195E-30
4.65122E-01 4.38416E-30
4.69476E-01 4.07622E-30
4.73832E-01 3.80409E-30
4.78190E-01 3.56402E-30
4.82550E-01 3.35257E-30
4.86912E-01 3.16657E-30
4.91274E-01 3.00314E-30
4.95637E-01 2.85960E-30
5.00000E-01 2.73355E-30
5.04363E-01 2.62278E-30
5.08726E-01 2.52530E-30
5.13088E-01 2.43932E-30
5.17450E-01 2.36320E-30
5.21810E-01 2.29549E-30
5.26168E-01 2.23489E-30
5.30524E-01 2.18025E-30
5.34878E-01 2.13055E-30
5.39230E-01 2.08487E-30
5.43578E-01 2.04243E-30
5.47923E-01 2.00253E-30
5.52264E-01 1.96460E-30
5.56602E-01 1.92810E-30
5.60935E-01 1.89261E-30
5.65263E-01 1.85777E-30
5.69587E-01 1.82327E-30
5.73905E-01 1.78887E-30
5.78217E-01 1.75436E-30
5.82524E-01 1.71961E-30
5.86824E-01 1.68448E-30
5.91118E-01 1.64891E-30
5.95404E-01 1.61285E-30
5.99684E-01 1.57627E-30
6.03956E-01 1.53918E-30
6.08220E-01 1.50158E-30
6.12476E-01 1.46351E-30
6.16723E-01 1.42502E-30
6.20961E-01 1.38616E-30
6.25190E-01 1.34701E-30
6.29410E-01 1.30762E-30
6.33619E-01 1.26807E-30
6.37819E-01 1.22845E-30
6.42008E-01 1.18883E-30
6.46186E-01 1.14929E-30
6.50353E-01 1.10991E-30
6.54508E-01 1.07077E-30
6.58652E-01 1.03194E-30
6.62784E-01 9.93494E-31
6.66903E-01 9.55500E-31
6.71010E-01 9.18024E-31
6.75104E-01 8.81125E-31
6.79184E-01 8.44859E-31
6.83251E-01 8.09277E-31
6.87303E-01 7.74427E-31
6.91342E-01 7.40349E-31
6.95366E-01 7.07081E-31
6.99375E-01 6.74655E-31
7.03368E-01 6.43099E-31
7.07347E-01 6.12437E-31
7.11309E-01 5.82687E-31
7.15256E-01 5.53864E-31
7.19186E-01 5.25979E-31
7.23099E-01 4.99039E-31
7.26995E-01 4.73048E-31
7.30874E-01 4.48007E-31
7.34736E-01 4.23912E-31
7.38579E-01 4.00757E-31
7.42405E-01 3.78534E-31
7.46212E-01 3.57233E-31
7.50000E-01 3.36841E-31
7.53769E-01 3.17342E-31
7.57519E-01 2.98719E-31
7.61249E-01 2.80955E-31
7.64960E-01 2.64030E-31
7.68650E-01 2.47922E-31
7.72320E-01 2.32609E-31
7.75968E-01 2.18070E-31
7.79596E-01 2.04279E-31
7.83203E-01 1.91214E-31
7.86788E-01 1.78848E-31
7.90351E-01 1.67159E-31
7.93893E-01 1.56120E-31
7.97411E-01 1.45707E-31
8.00908E-01 1.35895E-31
8.04381E-01 1.26658E-31
8.07831E-01 1.17972E-31
8.11257E-01 1.09814E-31
8.14660E-01 1.02158E-31
8.18039E-01 9.49809E-32
8.21394E-01 8.82604E-32
8.24724E-01 8.19736E-32
8.28030E-01 7.60985E-32
8.31310E-01 7.06136E-32
8.34565E-01 6.54984E-32
8.37795E-01 6.07326E-32
8.40999E-01 5.62968E-32
8.44177E-01 5.21723E-32
8.47329E-01 4.83411E-32
8.50455E-01 4.47857E-32
8.53553E-01 4.14895E-32
8.56625E-01 3.84365E-32
8.59670E-01 3.56115E-32
8.62687E-01 3.29999E-32
8.65677E-01 3.05878E-32
8.68639E-01 2.83618E-32
8.71572E-01 2.63095E-32
8.74478E-01 2.44188E-32
8.77355E-01 2.26786E-32
8.80203E-01 2.10779E-32
8.83022E-01 1.96067E-32
8.85812E-01 1.82555E-32
8.88573E-01 1.70152E-32
8.91304E-01 1.58774E-32
8.94005E-01 1.48340E-32
8.96677E-01 1.38777E-32
8.99318E-01 1.30013E-32
9.01928E-01 1.21984E-32
9.04508E-01 1.14629E-32
9.07058E-01 1.07890E-32
9.09576E-01 1.01714E-32
9.12063E-01 9.60525E-33
9.14519E-01 9.08586E-33
9.16943E-01 8.60901E-33
9.19335E-01 8.17077E-33
9.21696E-01 7.76751E-33
9.24024E-01 7.39588E-33
9.26320E-01 7.05278E-33
9.28584E-01 6.73540E-33
9.30815E-01 6.44113E-33
9.33013E-01 6.16761E-33
9.35178E-01 5.91264E-33
9.37310E-01 5.67428E-33
9.39409E-01 5.45070E-33
9.41474E-01 5.24030E-33
9.43505E-01 5.04160E-33
9.45503E-01 4.85328E-33
9.47467E-01 4.67415E-33
9.49397E-01 4.50314E-33
9.51293E-01 4.33930E-33
9.53154E-01 4.18179E-33
9.54981E-01 4.02987E-33
9.56773E-01 3.88289E-33
9.58530E-01 3.74026E-33
9.60252E-01 3.60150E-33
9.61940E-01 3.46618E-33
9.63592E-01 3.33394E-33
9.65209E-01 3.20446E-33
9.66790E-01 3.07750E-33
9.68336E-01 2.95285E-33
9.69846E-01 2.83034E-33
9.71321E-01 2.70985E-33
9.72759E-01 2.59128E-33
9.74162E-01 2.47458E-33
9.75528E-01 2.35970E-33
9.76858E-01 2.24663E-33
9.78152E-01 2.13539E-33
9.79410E-01 2.02600E-33
9.80631E-01 1.91851E-33
9.81815E-01 1.81296E-33
9.82963E-01 1.70944E-33
9.84074E-01 1.60801E-33
9.85148E-01 1.50876E-33
9.86185E-01 1.41179E-33
9.87185E-01 1.31719E-33
9.88148E-01 1.22507E-33
9.89074E-01 1.13552E-33
9.89962E-01 1.04865E-33
9.90814E-01 9.64563E-34
9.91627E-01 8.83370E-34
9.92404E-01 8.05172E-34
9.93143E-01 7.30069E-34
9.93844E-01 6.58164E-34
9.94508E-01 5.89551E-34
9.95134E-01 5.24327E-34
9.95722E-01 4.62580E-34
9.96273E-01 4.04395E-34
9.96786E-01 3.49857E-34
9.97261E-01 2.99039E-34
9.97698E-01 2.52016E-34
9.98097E-01 2.08852E-34
9.98459E-01 1.69610E-34
9.98782E-01 1.34347E-34
9.99067E-01 1.03112E-34
9.99315E-01 7.59509E-35
9.99524E-01 5.29027E-35
9.99695E-01 3.39987E-35
9.99829E-01 1.92678E-35
9.99924E-01 8.73047E-36
9.99981E-01 2.40172E-36
1.00000E+00 2.91415E-37
