 #
 # Subroutine ELSEPA. Elastic scattering of electrons and positrons
 #                    by neutral atoms and positive ions
 #
 # Projectile: electron
 # Kinetic energy = 8.00000E+06 eV = 2.93995E+05 a.u.
 #
 # WARNING: High-energy factorization with free-atom DF screening.
 #          Absorption, polarization and exchange corrections are
 #          switched off.
 #          Phase shifts are calculated for the bare nucleus.
 #          Scattering amplitudes are not evaluated.
 #
 # Element: Pt,  Z =  78,  atomic weight = 1.95078E+02 g/mol
 #
 # Nuclear model: Fermi distribution
 #                Average radius = 6.20564E-13 cm
 #                Skin thickness = 5.46000E-14 cm
 #
 # Number of electrons = 78
 #
 # Total elastic cross section = 7.66502E-18 cm**2 = 2.73723E-01 a0**2
 # 1st transport cross section = 1.48148E-22 cm**2 = 5.29046E-06 a0**2
 # 2nd transport cross section = 4.03891E-22 cm**2 = 1.44232E-05 a0**2
 #
 #
 # Differential cross section:                       MU=(1-COS(THETA))/2
 #
 #  THETA        MU          DCS          DCS        Sherman      error
 #  (deg)                 (cm**2/sr)   (a0**2/sr)    function
 #----------------------------------------------------------------------
0.00000E+00 3.00430E-12
7.61557E-13 3.00426E-12
1.18994E-12 3.00424E-12
1.71346E-12 3.00421E-12
2.33225E-12 3.00418E-12
3.04617E-12 3.00415E-12
3.85530E-12 3.00411E-12
4.75964E-12 3.00407E-12
5.75917E-12 3.00402E-12
6.85391E-12 3.00397E-12
8.04379E-12 3.00391E-12
9.32893E-12 3.00385E-12
1.07092E-11 3.00379E-12
1.21847E-11 3.00372E-12
1.37554E-11 3.00364E-12
1.54213E-11 3.00356E-12
1.71823E-11 3.00348E-12
1.90386E-11 3.00339E-12
2.09900E-11 3.00330E-12
2.30367E-11 3.00320E-12
2.51785E-11 3.00310E-12
2.74156E-11 3.00299E-12
2.97478E-11 3.00288E-12
3.21752E-11 3.00277E-12
3.46979E-11 3.00265E-12
3.73157E-11 3.00253E-12
4.00286E-11 3.00240E-12
4.28368E-11 3.00226E-12
4.57402E-11 3.00213E-12
4.87388E-11 3.00198E-12
5.18325E-11 3.00184E-12
5.50215E-11 3.00169E-12
5.83057E-11 3.00153E-12
6.16850E-11 3.00137E-12
6.51595E-11 3.00121E-12
6.87293E-11 3.00104E-12
7.23943E-11 3.00087E-12
7.61544E-11 3.00069E-12
1.18991E-10 2.99867E-12
1.71347E-10 2.99620E-12
2.33223E-10 2.99329E-12
3.04617E-10 2.98993E-12
3.85531E-10 2.98614E-12
4.75965E-10 2.98192E-12
5.75917E-10 2.97726E-12
6.85389E-10 2.97218E-12
8.04380E-10 2.96667E-12
9.32891E-10 2.96074E-12
1.07092E-09 2.95440E-12
1.21847E-09 2.94765E-12
1.37554E-09 2.94049E-12
1.54213E-09 2.93294E-12
1.71823E-09 2.92499E-12
1.90386E-09 2.91666E-12
2.09900E-09 2.90794E-12
2.30367E-09 2.89886E-12
2.51785E-09 2.88940E-12
2.74156E-09 2.87959E-12
2.97478E-09 2.86942E-12
3.21752E-09 2.85889E-12
3.46978E-09 2.84790E-12
3.73156E-09 2.83664E-12
4.00286E-09 2.82510E-12
4.28368E-09 2.81331E-12
4.57402E-09 2.80128E-12
4.87388E-09 2.78902E-12
5.18326E-09 2.77623E-12
5.50215E-09 2.76309E-12
5.83057E-09 2.74976E-12
6.16850E-09 2.73625E-12
6.51596E-09 2.72256E-12
6.87293E-09 2.70871E-12
7.23942E-09 2.69458E-12
7.61544E-09 2.67988E-12
1.18991E-08 2.52455E-12
1.71347E-08 2.35606E-12
2.33223E-08 2.18231E-12
3.04617E-08 2.00873E-12
3.85531E-08 1.84124E-12
4.75965E-08 1.68119E-12
5.75917E-08 1.53247E-12
6.85389E-08 1.39401E-12
8.04380E-08 1.26771E-12
9.32891E-08 1.15219E-12
1.07092E-07 1.04757E-12
1.21847E-07 9.52837E-13
1.37554E-07 8.67231E-13
1.54213E-07 7.90127E-13
1.71823E-07 7.20412E-13
1.90386E-07 6.57789E-13
2.09900E-07 6.01056E-13
2.30367E-07 5.50086E-13
2.51785E-07 5.03901E-13
2.74156E-07 4.62288E-13
2.97478E-07 4.24598E-13
3.21752E-07 3.89997E-13
3.46978E-07 3.56661E-13
3.73156E-07 3.27584E-13
4.00286E-07 3.02112E-13
4.28368E-07 2.79704E-13
4.57402E-07 2.59912E-13
4.87388E-07 2.42365E-13
5.18325E-07 2.24606E-13
5.50215E-07 2.07996E-13
5.83057E-07 1.93211E-13
6.16850E-07 1.80008E-13
6.51596E-07 1.68180E-13
6.87293E-07 1.57553E-13
7.23942E-07 1.47653E-13
7.61543E-07 1.37795E-13
1.18991E-06 7.53448E-14
1.71347E-06 4.49466E-14
2.33223E-06 2.85393E-14
3.04617E-06 1.89134E-14
3.85531E-06 1.29822E-14
4.75964E-06 9.14464E-15
5.75916E-06 6.61348E-15
6.85388E-06 4.88822E-15
8.04378E-06 3.69504E-15
9.32888E-06 2.84264E-15
1.07092E-05 2.22708E-15
1.21846E-05 1.77279E-15
1.37553E-05 1.43040E-15
1.54212E-05 1.16765E-15
1.71822E-05 9.62746E-16
1.90385E-05 8.00812E-16
2.09899E-05 6.72480E-16
2.30365E-05 5.69009E-16
2.51783E-05 4.84529E-16
2.74153E-05 4.15075E-16
2.97475E-05 3.57520E-16
3.21749E-05 3.09540E-16
3.46974E-05 2.69230E-16
3.73152E-05 2.35575E-16
4.00281E-05 2.06955E-16
4.28362E-05 1.82536E-16
4.57395E-05 1.61755E-16
4.87380E-05 1.43660E-16
5.18317E-05 1.28105E-16
5.50205E-05 1.14594E-16
5.83045E-05 1.02780E-16
6.16838E-05 9.25035E-17
6.51582E-05 8.34335E-17
6.87277E-05 7.54692E-17
7.23925E-05 6.84472E-17
7.61524E-05 6.21960E-17
9.21439E-05 4.33620E-17
1.09658E-04 3.11320E-17
1.28695E-04 2.29347E-17
1.49255E-04 1.72654E-17
1.71338E-04 1.32486E-17
1.94942E-04 1.03366E-17
2.20070E-04 8.18383E-18
2.46720E-04 6.56461E-18
2.74892E-04 5.32707E-18
3.04586E-04 4.36845E-18
3.35803E-04 3.61600E-18
3.68542E-04 3.01905E-18
4.02802E-04 2.54025E-18
4.38585E-04 2.15281E-18
4.75889E-04 1.83644E-18
5.14715E-04 1.57614E-18
5.55063E-04 1.36036E-18
5.96931E-04 1.18027E-18
6.40321E-04 1.02904E-18
6.85233E-04 9.01273E-19
7.31665E-04 7.92765E-19
7.79618E-04 7.00103E-19
8.29092E-04 6.20620E-19
8.80086E-04 5.52111E-19
9.32601E-04 4.92819E-19
9.86636E-04 4.41291E-19
1.04219E-03 3.96337E-19
1.09927E-03 3.56980E-19
1.15786E-03 3.22399E-19
1.21797E-03 2.91919E-19
1.27961E-03 2.64966E-19
1.34276E-03 2.41064E-19
1.40743E-03 2.19805E-19
1.47362E-03 2.00848E-19
1.54133E-03 1.83898E-19
1.61056E-03 1.68705E-19
1.68131E-03 1.55056E-19
1.75357E-03 1.42765E-19
1.82735E-03 1.31673E-19
1.90265E-03 1.21642E-19
1.97947E-03 1.12553E-19
2.05780E-03 1.04301E-19
2.13765E-03 9.67956E-20
2.21902E-03 8.99560E-20
2.30190E-03 8.37133E-20
2.38630E-03 7.80054E-20
2.47222E-03 7.27784E-20
2.55965E-03 6.79843E-20
2.64859E-03 6.35806E-20
2.73905E-03 5.95299E-20
2.83103E-03 5.57984E-20
2.92452E-03 5.23566E-20
3.01952E-03 4.91776E-20
3.11604E-03 4.62378E-20
3.21407E-03 4.35156E-20
3.31362E-03 4.09923E-20
3.41468E-03 3.86503E-20
3.51725E-03 3.64746E-20
3.62133E-03 3.44507E-20
3.72692E-03 3.25662E-20
3.83403E-03 3.08099E-20
3.94265E-03 2.91710E-20
4.05278E-03 2.76407E-20
4.16442E-03 2.62101E-20
4.27757E-03 2.48715E-20
4.39223E-03 2.36181E-20
4.50840E-03 2.24432E-20
4.62608E-03 2.13411E-20
4.74527E-03 2.03065E-20
4.86597E-03 1.93342E-20
4.98817E-03 1.84200E-20
5.11188E-03 1.75596E-20
5.23711E-03 1.67494E-20
5.36383E-03 1.59858E-20
5.49207E-03 1.52656E-20
5.62181E-03 1.45859E-20
5.75306E-03 1.39440E-20
5.88581E-03 1.33374E-20
6.02007E-03 1.27637E-20
6.15583E-03 1.22209E-20
6.29310E-03 1.17069E-20
6.43187E-03 1.12200E-20
6.57214E-03 1.07583E-20
6.71392E-03 1.03205E-20
6.85720E-03 9.90492E-21
7.00198E-03 9.51029E-21
7.14827E-03 9.13538E-21
7.29605E-03 8.77896E-21
7.44534E-03 8.43997E-21
7.59612E-03 8.11740E-21
7.97965E-03 7.37664E-21
8.37255E-03 6.71950E-21
8.77480E-03 6.13483E-21
9.18641E-03 5.61322E-21
9.60736E-03 5.14663E-21
1.00376E-02 4.72820E-21
1.04773E-02 4.35207E-21
1.09262E-02 4.01315E-21
1.13844E-02 3.70712E-21
1.18520E-02 3.43017E-21
1.23288E-02 3.17904E-21
1.28150E-02 2.95087E-21
1.33104E-02 2.74318E-21
1.38150E-02 2.55377E-21
1.43290E-02 2.38074E-21
1.48521E-02 2.22240E-21
1.53845E-02 2.07727E-21
1.59262E-02 1.94404E-21
1.64770E-02 1.82155E-21
1.70371E-02 1.70876E-21
1.76063E-02 1.60477E-21
1.81848E-02 1.50874E-21
1.87724E-02 1.41996E-21
1.93692E-02 1.33777E-21
1.99751E-02 1.26159E-21
2.05901E-02 1.19088E-21
2.12143E-02 1.12519E-21
2.18476E-02 1.06409E-21
2.24900E-02 1.00718E-21
2.31415E-02 9.54137E-22
2.38021E-02 9.04635E-22
2.44717E-02 8.58392E-22
2.51504E-02 8.15150E-22
2.58382E-02 7.74677E-22
2.65349E-02 7.36760E-22
2.72407E-02 7.01205E-22
2.79555E-02 6.67836E-22
2.86793E-02 6.36489E-22
2.94120E-02 6.07019E-22
3.01537E-02 5.79291E-22
3.09043E-02 5.53180E-22
3.16639E-02 5.28572E-22
3.24324E-02 5.05363E-22
3.32098E-02 4.83459E-22
3.39961E-02 4.62769E-22
3.47912E-02 4.43213E-22
3.55952E-02 4.24717E-22
3.64081E-02 4.07210E-22
3.72297E-02 3.90629E-22
3.80602E-02 3.74914E-22
3.88995E-02 3.60011E-22
3.97476E-02 3.45870E-22
4.06044E-02 3.32442E-22
4.14700E-02 3.19685E-22
4.23443E-02 3.07558E-22
4.32273E-02 2.96023E-22
4.41190E-02 2.85046E-22
4.50194E-02 2.74593E-22
4.59284E-02 2.64634E-22
4.68461E-02 2.55141E-22
4.87074E-02 2.37448E-22
5.06030E-02 2.21324E-22
5.25328E-02 2.06601E-22
5.44967E-02 1.93131E-22
5.64946E-02 1.80787E-22
5.85262E-02 1.69456E-22
6.05914E-02 1.59036E-22
6.26901E-02 1.49439E-22
6.48222E-02 1.40587E-22
6.69873E-02 1.32409E-22
6.91854E-02 1.24843E-22
7.14163E-02 1.17835E-22
7.36799E-02 1.11333E-22
7.59760E-02 1.05294E-22
7.83043E-02 9.96770E-23
8.06647E-02 9.44469E-23
8.30571E-02 8.95709E-23
8.54812E-02 8.50200E-23
8.79369E-02 8.07677E-23
9.04240E-02 7.67900E-23
9.29422E-02 7.30654E-23
9.54915E-02 6.95742E-23
9.80716E-02 6.62987E-23
1.00682E-01 6.32223E-23
1.03323E-01 6.03304E-23
1.05995E-01 5.76095E-23
1.08696E-01 5.50472E-23
1.11427E-01 5.26320E-23
1.14188E-01 5.03537E-23
1.16978E-01 4.82028E-23
1.19797E-01 4.61706E-23
1.22645E-01 4.42490E-23
1.25522E-01 4.24305E-23
1.28428E-01 4.07084E-23
1.31361E-01 3.90766E-23
1.34323E-01 3.75291E-23
1.37313E-01 3.60604E-23
1.40330E-01 3.46658E-23
1.43375E-01 3.33408E-23
1.46447E-01 3.20807E-23
1.49545E-01 3.08819E-23
1.52671E-01 2.97408E-23
1.55823E-01 2.86538E-23
1.59001E-01 2.76177E-23
1.62205E-01 2.66296E-23
1.65435E-01 2.56870E-23
1.68690E-01 2.47870E-23
1.71970E-01 2.39273E-23
1.75276E-01 2.31058E-23
1.78606E-01 2.23203E-23
1.81961E-01 2.15689E-23
1.85340E-01 2.08498E-23
1.88743E-01 2.01611E-23
1.92169E-01 1.95015E-23
1.95619E-01 1.88692E-23
1.99092E-01 1.82630E-23
2.02589E-01 1.76815E-23
2.06107E-01 1.71235E-23
2.09649E-01 1.65878E-23
2.13212E-01 1.60732E-23
2.16797E-01 1.55788E-23
2.20404E-01 1.51036E-23
2.24032E-01 1.46467E-23
2.27680E-01 1.42071E-23
2.31350E-01 1.37841E-23
2.35040E-01 1.33769E-23
2.38751E-01 1.29848E-23
2.42481E-01 1.26071E-23
2.46231E-01 1.22431E-23
2.50000E-01 1.18923E-23
2.53788E-01 1.15539E-23
2.57595E-01 1.12276E-23
2.61421E-01 1.09127E-23
2.65264E-01 1.06087E-23
2.69126E-01 1.03153E-23
2.73005E-01 1.00319E-23
2.76901E-01 9.75806E-24
2.80814E-01 9.49348E-24
2.84744E-01 9.23773E-24
2.88691E-01 8.99044E-24
2.92653E-01 8.75127E-24
2.96632E-01 8.51990E-24
3.00625E-01 8.29600E-24
3.04634E-01 8.07929E-24
3.08658E-01 7.86948E-24
3.12697E-01 7.66629E-24
3.16749E-01 7.46947E-24
3.20816E-01 7.27878E-24
3.24896E-01 7.09397E-24
3.28990E-01 6.91483E-24
3.33097E-01 6.74114E-24
3.37216E-01 6.57269E-24
3.41348E-01 6.40931E-24
3.45492E-01 6.25078E-24
3.49647E-01 6.09696E-24
3.53814E-01 5.94764E-24
3.57992E-01 5.80269E-24
3.62181E-01 5.66194E-24
3.66381E-01 5.52525E-24
3.70590E-01 5.39244E-24
3.74810E-01 5.26333E-24
3.79039E-01 5.13786E-24
3.83277E-01 5.01590E-24
3.87524E-01 4.89734E-24
3.91780E-01 4.78205E-24
3.96044E-01 4.66993E-24
4.00316E-01 4.56086E-24
4.04596E-01 4.45475E-24
4.08882E-01 4.35150E-24
4.13176E-01 4.25102E-24
4.17476E-01 4.15321E-24
4.21783E-01 4.05798E-24
4.26095E-01 3.96526E-24
4.30413E-01 3.87496E-24
4.34737E-01 3.78701E-24
4.39065E-01 3.70133E-24
4.43398E-01 3.61785E-24
4.47736E-01 3.53650E-24
4.52077E-01 3.45722E-24
4.56422E-01 3.37994E-24
4.60770E-01 3.30459E-24
4.65122E-01 3.23113E-24
4.69476E-01 3.15949E-24
4.73832E-01 3.08962E-24
4.78190E-01 3.02147E-24
4.82550E-01 2.95498E-24
4.86912E-01 2.89010E-24
4.91274E-01 2.82679E-24
4.95637E-01 2.76501E-24
5.00000E-01 2.70470E-24
5.04363E-01 2.64583E-24
5.08726E-01 2.58835E-24
5.13088E-01 2.53222E-24
5.17450E-01 2.47741E-24
5.21810E-01 2.42388E-24
5.26168E-01 2.37159E-24
5.30524E-01 2.32051E-24
5.34878E-01 2.27061E-24
5.39230E-01 2.22184E-24
5.43578E-01 2.17419E-24
5.47923E-01 2.12762E-24
5.52264E-01 2.08209E-24
5.56602E-01 2.03759E-24
5.60935E-01 1.99409E-24
5.65263E-01 1.95155E-24
5.69587E-01 1.90996E-24
5.73905E-01 1.86928E-24
5.78217E-01 1.82950E-24
5.82524E-01 1.79059E-24
5.86824E-01 1.75253E-24
5.91118E-01 1.71529E-24
5.95404E-01 1.67886E-24
5.99684E-01 1.64321E-24
6.03956E-01 1.60833E-24
6.08220E-01 1.57419E-24
6.12476E-01 1.54078E-24
6.16723E-01 1.50807E-24
6.20961E-01 1.47606E-24
6.25190E-01 1.44472E-24
6.29410E-01 1.41403E-24
6.33619E-01 1.38399E-24
6.37819E-01 1.35457E-24
6.42008E-01 1.32576E-24
6.46186E-01 1.29755E-24
6.50353E-01 1.26992E-24
6.54508E-01 1.24285E-24
6.58652E-01 1.21634E-24
6.62784E-01 1.19037E-24
6.66903E-01 1.16492E-24
6.71010E-01 1.13999E-24
6.75104E-01 1.11557E-24
6.79184E-01 1.09163E-24
6.83251E-01 1.06818E-24
6.87303E-01 1.04519E-24
6.91342E-01 1.02267E-24
6.95366E-01 1.00059E-24
6.99375E-01 9.78951E-25
7.03368E-01 9.57740E-25
7.07347E-01 9.36947E-25
7.11309E-01 9.16564E-25
7.15256E-01 8.96580E-25
7.19186E-01 8.76989E-25
7.23099E-01 8.57780E-25
7.26995E-01 8.38945E-25
7.30874E-01 8.20477E-25
7.34736E-01 8.02368E-25
7.38579E-01 7.84609E-25
7.42405E-01 7.67194E-25
7.46212E-01 7.50115E-25
7.50000E-01 7.33365E-25
7.53769E-01 7.16936E-25
7.57519E-01 7.00823E-25
7.61249E-01 6.85019E-25
7.64960E-01 6.69517E-25
7.68650E-01 6.54312E-25
7.72320E-01 6.39396E-25
7.75968E-01 6.24764E-25
7.79596E-01 6.10411E-25
7.83203E-01 5.96331E-25
7.86788E-01 5.82518E-25
7.90351E-01 5.68967E-25
7.93893E-01 5.55673E-25
7.97411E-01 5.42631E-25
8.00908E-01 5.29835E-25
8.04381E-01 5.17282E-25
8.07831E-01 5.04966E-25
8.11257E-01 4.92883E-25
8.14660E-01 4.81028E-25
8.18039E-01 4.69397E-25
8.21394E-01 4.57985E-25
8.24724E-01 4.46790E-25
8.28030E-01 4.35806E-25
8.31310E-01 4.25029E-25
8.34565E-01 4.14457E-25
8.37795E-01 4.04084E-25
8.40999E-01 3.93908E-25
8.44177E-01 3.83925E-25
8.47329E-01 3.74131E-25
8.50455E-01 3.64523E-25
8.53553E-01 3.55098E-25
8.56625E-01 3.45852E-25
8.59670E-01 3.36783E-25
8.62687E-01 3.27887E-25
8.65677E-01 3.19162E-25
8.68639E-01 3.10603E-25
8.71572E-01 3.02209E-25
8.74478E-01 2.93977E-25
8.77355E-01 2.85904E-25
8.80203E-01 2.77988E-25
8.83022E-01 2.70225E-25
8.85812E-01 2.62613E-25
8.88573E-01 2.55150E-25
8.91304E-01 2.47834E-25
8.94005E-01 2.40661E-25
8.96677E-01 2.33631E-25
8.99318E-01 2.26740E-25
9.01928E-01 2.19986E-25
9.04508E-01 2.13368E-25
9.07058E-01 2.06883E-25
9.09576E-01 2.00529E-25
9.12063E-01 1.94304E-25
9.14519E-01 1.88206E-25
9.16943E-01 1.82234E-25
9.19335E-01 1.76385E-25
9.21696E-01 1.70659E-25
9.24024E-01 1.65052E-25
9.26320E-01 1.59563E-25
9.28584E-01 1.54192E-25
9.30815E-01 1.48935E-25
9.33013E-01 1.43792E-25
9.35178E-01 1.38761E-25
9.37310E-01 1.33840E-25
9.39409E-01 1.29028E-25
9.41474E-01 1.24324E-25
9.43505E-01 1.19726E-25
9.45503E-01 1.15233E-25
9.47467E-01 1.10844E-25
9.49397E-01 1.06557E-25
9.51293E-01 1.02371E-25
9.53154E-01 9.82847E-26
9.54981E-01 9.42972E-26
9.56773E-01 9.04073E-26
9.58530E-01 8.66137E-26
9.60252E-01 8.29155E-26
9.61940E-01 7.93116E-26
9.63592E-01 7.58009E-26
9.65209E-01 7.23825E-26
9.66790E-01 6.90555E-26
9.68336E-01 6.58187E-26
9.69846E-01 6.26715E-26
9.71321E-01 5.96128E-26
9.72759E-01 5.66419E-26
9.74162E-01 5.37579E-26
9.75528E-01 5.09599E-26
9.76858E-01 4.82473E-26
9.78152E-01 4.56193E-26
9.79410E-01 4.30752E-26
9.80631E-01 4.06142E-26
9.81815E-01 3.82356E-26
9.82963E-01 3.59389E-26
9.84074E-01 3.37234E-26
9.85148E-01 3.15885E-26
9.86185E-01 2.95336E-26
9.87185E-01 2.75582E-26
9.88148E-01 2.56616E-26
9.89074E-01 2.38435E-26
9.89962E-01 2.21033E-26
9.90814E-01 2.04405E-26
9.91627E-01 1.88548E-26
9.92404E-01 1.73455E-26
9.93143E-01 1.59125E-26
9.93844E-01 1.45552E-26
9.94508E-01 1.32734E-26
9.95134E-01 1.20666E-26
9.95722E-01 1.09345E-26
9.96273E-01 9.87689E-27
9.96786E-01 8.89343E-27
9.97261E-01 7.98387E-27
9.97698E-01 7.14796E-27
9.98097E-01 6.38549E-27
9.98459E-01 5.69624E-27
9.98782E-01 5.08003E-27
9.99067E-01 4.53670E-27
9.99315E-01 4.06611E-27
9.99524E-01 3.66813E-27
9.99695E-01 3.34265E-27
9.99829E-01 3.08959E-27
9.99924E-01 2.90888E-27
9.99981E-01 2.80048E-27
1.00000E+00 2.76434E-27
