 #
 # Subroutine ELSEPA. Elastic scattering of electrons and positrons
 #                    by neutral atoms and positive ions
 #
 # Projectile: electron
 # Kinetic energy = 1.00000E+07 eV = 3.67493E+05 a.u.
 #
 # WARNING: High-energy factorization with free-atom DF screening.
 #          Absorption, polarization and exchange corrections are
 #          switched off.
 #          Phase shifts are calculated for the bare nucleus.
 #          Scattering amplitudes are not evaluated.
 #
 # Element: Pt,  Z =  78,  atomic weight = 1.95078E+02 g/mol
 #
 # Nuclear model: Fermi distribution
 #                Average radius = 6.20564E-13 cm
 #                Skin thickness = 5.46000E-14 cm
 #
 # Number of electrons = 78
 #
 # Total elastic cross section = 7.65287E-18 cm**2 = 2.73289E-01 a0**2
 # 1st transport cross section = 9.91117E-23 cm**2 = 3.53934E-06 a0**2
 # 2nd transport cross section = 2.72036E-22 cm**2 = 9.71459E-06 a0**2
 #
 #
 # Differential cross section:                       MU=(1-COS(THETA))/2
 #
 #  THETA        MU          DCS          DCS        Sherman      error
 #  (deg)                 (cm**2/sr)   (a0**2/sr)    function
 #----------------------------------------------------------------------
0.00000E+00 4.58215E-12
7.61557E-13 4.58207E-12
1.18994E-12 4.58202E-12
1.71346E-12 4.58196E-12
2.33225E-12 4.58189E-12
3.04617E-12 4.58181E-12
3.85530E-12 4.58172E-12
4.75964E-12 4.58162E-12
5.75917E-12 4.58151E-12
6.85391E-12 4.58139E-12
8.04379E-12 4.58126E-12
9.32893E-12 4.58112E-12
1.07092E-11 4.58096E-12
1.21847E-11 4.58080E-12
1.37554E-11 4.58063E-12
1.54213E-11 4.58044E-12
1.71823E-11 4.58025E-12
1.90386E-11 4.58004E-12
2.09900E-11 4.57983E-12
2.30367E-11 4.57960E-12
2.51785E-11 4.57937E-12
2.74156E-11 4.57912E-12
2.97478E-11 4.57886E-12
3.21752E-11 4.57859E-12
3.46979E-11 4.57832E-12
3.73157E-11 4.57803E-12
4.00286E-11 4.57773E-12
4.28368E-11 4.57742E-12
4.57402E-11 4.57710E-12
4.87388E-11 4.57677E-12
5.18325E-11 4.57643E-12
5.50215E-11 4.57608E-12
5.83057E-11 4.57572E-12
6.16850E-11 4.57534E-12
6.51595E-11 4.57496E-12
6.87293E-11 4.57457E-12
7.23943E-11 4.57417E-12
7.61544E-11 4.57375E-12
1.18991E-10 4.56905E-12
1.71347E-10 4.56331E-12
2.33223E-10 4.55655E-12
3.04617E-10 4.54877E-12
3.85531E-10 4.53999E-12
4.75965E-10 4.53021E-12
5.75917E-10 4.51945E-12
6.85389E-10 4.50772E-12
8.04380E-10 4.49504E-12
9.32891E-10 4.48141E-12
1.07092E-09 4.46686E-12
1.21847E-09 4.45140E-12
1.37554E-09 4.43505E-12
1.54213E-09 4.41784E-12
1.71823E-09 4.39977E-12
1.90386E-09 4.38088E-12
2.09900E-09 4.36115E-12
2.30367E-09 4.34041E-12
2.51785E-09 4.31901E-12
2.74156E-09 4.29701E-12
2.97478E-09 4.27443E-12
3.21752E-09 4.25131E-12
3.46978E-09 4.22697E-12
3.73156E-09 4.20203E-12
4.00286E-09 4.17665E-12
4.28368E-09 4.15087E-12
4.57402E-09 4.12471E-12
4.87388E-09 4.09753E-12
5.18326E-09 4.06966E-12
5.50215E-09 4.04152E-12
5.83057E-09 4.01313E-12
6.16850E-09 3.98454E-12
6.51596E-09 3.95525E-12
6.87293E-09 3.92507E-12
7.23942E-09 3.89478E-12
7.61544E-09 3.86440E-12
1.18991E-08 3.54611E-12
1.71347E-08 3.21772E-12
2.33223E-08 2.89576E-12
3.04617E-08 2.59117E-12
3.85531E-08 2.31018E-12
4.75965E-08 2.05542E-12
5.75917E-08 1.82719E-12
6.85389E-08 1.62414E-12
8.04380E-08 1.44442E-12
9.32891E-08 1.28601E-12
1.07092E-07 1.14659E-12
1.21847E-07 1.02394E-12
1.37554E-07 9.16017E-13
1.54213E-07 8.20993E-13
1.71823E-07 7.37240E-13
1.90386E-07 6.63327E-13
2.09900E-07 5.97452E-13
2.30367E-07 5.35189E-13
2.51785E-07 4.82551E-13
2.74156E-07 4.37759E-13
2.97478E-07 3.99405E-13
3.21752E-07 3.66368E-13
3.46978E-07 3.32923E-13
3.73156E-07 3.03332E-13
4.00286E-07 2.77645E-13
4.28368E-07 2.55237E-13
4.57402E-07 2.35600E-13
4.87388E-07 2.16793E-13
5.18325E-07 1.99441E-13
5.50215E-07 1.84125E-13
5.83057E-07 1.70555E-13
6.16850E-07 1.58487E-13
6.51596E-07 1.47258E-13
6.87293E-07 1.36614E-13
7.23942E-07 1.27090E-13
7.61543E-07 1.18542E-13
1.18991E-06 6.29064E-14
1.71347E-06 3.65027E-14
2.33223E-06 2.24892E-14
3.04617E-06 1.44926E-14
3.85531E-06 9.70399E-15
4.75964E-06 6.72725E-15
5.75916E-06 4.81083E-15
6.85388E-06 3.53568E-15
8.04378E-06 2.66409E-15
9.32888E-06 2.04897E-15
1.07092E-05 1.60281E-15
1.21846E-05 1.27237E-15
1.37553E-05 1.02341E-15
1.54212E-05 8.32828E-16
1.71822E-05 6.84688E-16
1.90385E-05 5.67676E-16
2.09899E-05 4.75105E-16
2.30365E-05 4.00319E-16
2.51783E-05 3.40160E-16
2.74153E-05 2.90336E-16
2.97475E-05 2.49603E-16
3.21749E-05 2.15531E-16
3.46974E-05 1.87256E-16
3.73152E-05 1.63389E-16
4.00281E-05 1.43298E-16
4.28362E-05 1.26160E-16
4.57395E-05 1.11537E-16
4.87380E-05 9.89477E-17
5.18317E-05 8.80884E-17
5.50205E-05 7.86689E-17
5.83045E-05 7.04732E-17
6.16838E-05 6.33202E-17
6.51582E-05 5.70495E-17
6.87277E-05 5.15437E-17
7.23925E-05 4.66817E-17
7.61524E-05 4.23847E-17
9.21439E-05 2.94331E-17
1.09658E-04 2.10751E-17
1.28695E-04 1.54892E-17
1.49255E-04 1.16396E-17
1.71338E-04 8.91694E-18
1.94942E-04 6.94652E-18
2.20070E-04 5.49185E-18
2.46720E-04 4.39889E-18
2.74892E-04 3.56477E-18
3.04586E-04 2.91926E-18
3.35803E-04 2.41343E-18
3.68542E-04 2.01253E-18
4.02802E-04 1.69151E-18
4.38585E-04 1.43201E-18
4.75889E-04 1.22043E-18
5.14715E-04 1.04654E-18
5.55063E-04 9.02568E-19
5.96931E-04 7.82549E-19
6.40321E-04 6.81856E-19
6.85233E-04 5.96872E-19
7.31665E-04 5.24749E-19
7.79618E-04 4.63217E-19
8.29092E-04 4.10465E-19
8.80086E-04 3.65029E-19
9.32601E-04 3.25726E-19
9.86636E-04 2.91586E-19
1.04219E-03 2.61816E-19
1.09927E-03 2.35762E-19
1.15786E-03 2.12879E-19
1.21797E-03 1.92715E-19
1.27961E-03 1.74891E-19
1.34276E-03 1.59087E-19
1.40743E-03 1.45036E-19
1.47362E-03 1.32507E-19
1.54133E-03 1.21308E-19
1.61056E-03 1.11272E-19
1.68131E-03 1.02257E-19
1.75357E-03 9.41402E-20
1.82735E-03 8.68163E-20
1.90265E-03 8.01942E-20
1.97947E-03 7.41942E-20
2.05780E-03 6.87477E-20
2.13765E-03 6.37938E-20
2.21902E-03 5.92806E-20
2.30190E-03 5.51616E-20
2.38630E-03 5.13959E-20
2.47222E-03 4.79476E-20
2.55965E-03 4.47853E-20
2.64859E-03 4.18810E-20
2.73905E-03 3.92096E-20
2.83103E-03 3.67488E-20
2.92452E-03 3.44793E-20
3.01952E-03 3.23834E-20
3.11604E-03 3.04454E-20
3.21407E-03 2.86509E-20
3.31362E-03 2.69876E-20
3.41468E-03 2.54441E-20
3.51725E-03 2.40101E-20
3.62133E-03 2.26763E-20
3.72692E-03 2.14345E-20
3.83403E-03 2.02772E-20
3.94265E-03 1.91976E-20
4.05278E-03 1.81894E-20
4.16442E-03 1.72469E-20
4.27757E-03 1.63652E-20
4.39223E-03 1.55396E-20
4.50840E-03 1.47658E-20
4.62608E-03 1.40400E-20
4.74527E-03 1.33586E-20
4.86597E-03 1.27184E-20
4.98817E-03 1.21164E-20
5.11188E-03 1.15500E-20
5.23711E-03 1.10165E-20
5.36383E-03 1.05138E-20
5.49207E-03 1.00397E-20
5.62181E-03 9.59235E-21
5.75306E-03 9.16983E-21
5.88581E-03 8.77056E-21
6.02007E-03 8.39301E-21
6.15583E-03 8.03578E-21
6.29310E-03 7.69754E-21
6.43187E-03 7.37711E-21
6.57214E-03 7.07336E-21
6.71392E-03 6.78527E-21
6.85720E-03 6.51186E-21
7.00198E-03 6.25224E-21
7.14827E-03 6.00558E-21
7.29605E-03 5.77112E-21
7.44534E-03 5.54813E-21
7.59612E-03 5.33593E-21
7.97965E-03 4.84870E-21
8.37255E-03 4.41650E-21
8.77480E-03 4.03202E-21
9.18641E-03 3.68902E-21
9.60736E-03 3.38222E-21
1.00376E-02 3.10712E-21
1.04773E-02 2.85983E-21
1.09262E-02 2.63703E-21
1.13844E-02 2.43585E-21
1.18520E-02 2.25381E-21
1.23288E-02 2.08875E-21
1.28150E-02 1.93878E-21
1.33104E-02 1.80227E-21
1.38150E-02 1.67779E-21
1.43290E-02 1.56407E-21
1.48521E-02 1.46001E-21
1.53845E-02 1.36464E-21
1.59262E-02 1.27709E-21
1.64770E-02 1.19659E-21
1.70371E-02 1.12248E-21
1.76063E-02 1.05414E-21
1.81848E-02 9.91035E-22
1.87724E-02 9.32695E-22
1.93692E-02 8.78686E-22
1.99751E-02 8.28625E-22
2.05901E-02 7.82166E-22
2.12143E-02 7.38999E-22
2.18476E-02 6.98846E-22
2.24900E-02 6.61453E-22
2.31415E-02 6.26596E-22
2.38021E-02 5.94066E-22
2.44717E-02 5.63679E-22
2.51504E-02 5.35263E-22
2.58382E-02 5.08667E-22
2.65349E-02 4.83750E-22
2.72407E-02 4.60386E-22
2.79555E-02 4.38457E-22
2.86793E-02 4.17857E-22
2.94120E-02 3.98491E-22
3.01537E-02 3.80268E-22
3.09043E-02 3.63109E-22
3.16639E-02 3.46937E-22
3.24324E-02 3.31684E-22
3.32098E-02 3.17289E-22
3.39961E-02 3.03692E-22
3.47912E-02 2.90839E-22
3.55952E-02 2.78683E-22
3.64081E-02 2.67177E-22
3.72297E-02 2.56280E-22
3.80602E-02 2.45952E-22
3.88995E-02 2.36157E-22
3.97476E-02 2.26863E-22
4.06044E-02 2.18037E-22
4.14700E-02 2.09653E-22
4.23443E-02 2.01682E-22
4.32273E-02 1.94101E-22
4.41190E-02 1.86886E-22
4.50194E-02 1.80016E-22
4.59284E-02 1.73470E-22
4.68461E-02 1.67231E-22
4.87074E-02 1.55603E-22
5.06030E-02 1.45005E-22
5.25328E-02 1.35328E-22
5.44967E-02 1.26476E-22
5.64946E-02 1.18363E-22
5.85262E-02 1.10916E-22
6.05914E-02 1.04068E-22
6.26901E-02 9.77615E-23
6.48222E-02 9.19444E-23
6.69873E-02 8.65708E-23
6.91854E-02 8.15997E-23
7.14163E-02 7.69949E-23
7.36799E-02 7.27234E-23
7.59760E-02 6.87559E-23
7.83043E-02 6.50664E-23
8.06647E-02 6.16311E-23
8.30571E-02 5.84287E-23
8.54812E-02 5.54400E-23
8.79369E-02 5.26478E-23
9.04240E-02 5.00361E-23
9.29422E-02 4.75910E-23
9.54915E-02 4.52994E-23
9.80716E-02 4.31494E-23
1.00682E-01 4.11307E-23
1.03323E-01 3.92331E-23
1.05995E-01 3.74480E-23
1.08696E-01 3.57672E-23
1.11427E-01 3.41833E-23
1.14188E-01 3.26893E-23
1.16978E-01 3.12791E-23
1.19797E-01 2.99470E-23
1.22645E-01 2.86875E-23
1.25522E-01 2.74960E-23
1.28428E-01 2.63679E-23
1.31361E-01 2.52990E-23
1.34323E-01 2.42855E-23
1.37313E-01 2.33240E-23
1.40330E-01 2.24112E-23
1.43375E-01 2.15440E-23
1.46447E-01 2.07196E-23
1.49545E-01 1.99355E-23
1.52671E-01 1.91893E-23
1.55823E-01 1.84786E-23
1.59001E-01 1.78014E-23
1.62205E-01 1.71558E-23
1.65435E-01 1.65400E-23
1.68690E-01 1.59523E-23
1.71970E-01 1.53910E-23
1.75276E-01 1.48548E-23
1.78606E-01 1.43423E-23
1.81961E-01 1.38522E-23
1.85340E-01 1.33832E-23
1.88743E-01 1.29343E-23
1.92169E-01 1.25044E-23
1.95619E-01 1.20925E-23
1.99092E-01 1.16977E-23
2.02589E-01 1.13192E-23
2.06107E-01 1.09560E-23
2.09649E-01 1.06075E-23
2.13212E-01 1.02728E-23
2.16797E-01 9.95144E-24
2.20404E-01 9.64262E-24
2.24032E-01 9.34579E-24
2.27680E-01 9.06037E-24
2.31350E-01 8.78583E-24
2.35040E-01 8.52167E-24
2.38751E-01 8.26739E-24
2.42481E-01 8.02255E-24
2.46231E-01 7.78653E-24
2.50000E-01 7.55912E-24
2.53788E-01 7.33991E-24
2.57595E-01 7.12855E-24
2.61421E-01 6.92469E-24
2.65264E-01 6.72801E-24
2.69126E-01 6.53820E-24
2.73005E-01 6.35495E-24
2.76901E-01 6.17800E-24
2.80814E-01 6.00707E-24
2.84744E-01 5.84192E-24
2.88691E-01 5.68231E-24
2.92653E-01 5.52801E-24
2.96632E-01 5.37880E-24
3.00625E-01 5.23447E-24
3.04634E-01 5.09484E-24
3.08658E-01 4.95972E-24
3.12697E-01 4.82892E-24
3.16749E-01 4.70227E-24
3.20816E-01 4.57963E-24
3.24896E-01 4.46082E-24
3.28990E-01 4.34571E-24
3.33097E-01 4.23415E-24
3.37216E-01 4.12602E-24
3.41348E-01 4.02117E-24
3.45492E-01 3.91950E-24
3.49647E-01 3.82088E-24
3.53814E-01 3.72520E-24
3.57992E-01 3.63235E-24
3.62181E-01 3.54224E-24
3.66381E-01 3.45476E-24
3.70590E-01 3.36982E-24
3.74810E-01 3.28733E-24
3.79039E-01 3.20720E-24
3.83277E-01 3.12936E-24
3.87524E-01 3.05372E-24
3.91780E-01 2.98021E-24
3.96044E-01 2.90875E-24
4.00316E-01 2.83928E-24
4.04596E-01 2.77172E-24
4.08882E-01 2.70602E-24
4.13176E-01 2.64211E-24
4.17476E-01 2.57994E-24
4.21783E-01 2.51944E-24
4.26095E-01 2.46056E-24
4.30413E-01 2.40325E-24
4.34737E-01 2.34745E-24
4.39065E-01 2.29313E-24
4.43398E-01 2.24023E-24
4.47736E-01 2.18871E-24
4.52077E-01 2.13852E-24
4.56422E-01 2.08962E-24
4.60770E-01 2.04198E-24
4.65122E-01 1.99555E-24
4.69476E-01 1.95030E-24
4.73832E-01 1.90619E-24
4.78190E-01 1.86319E-24
4.82550E-01 1.82125E-24
4.86912E-01 1.78036E-24
4.91274E-01 1.74048E-24
4.95637E-01 1.70158E-24
5.00000E-01 1.66363E-24
5.04363E-01 1.62660E-24
5.08726E-01 1.59047E-24
5.13088E-01 1.55521E-24
5.17450E-01 1.52080E-24
5.21810E-01 1.48720E-24
5.26168E-01 1.45441E-24
5.30524E-01 1.42239E-24
5.34878E-01 1.39112E-24
5.39230E-01 1.36059E-24
5.43578E-01 1.33076E-24
5.47923E-01 1.30163E-24
5.52264E-01 1.27317E-24
5.56602E-01 1.24537E-24
5.60935E-01 1.21820E-24
5.65263E-01 1.19165E-24
5.69587E-01 1.16571E-24
5.73905E-01 1.14035E-24
5.78217E-01 1.11557E-24
5.82524E-01 1.09133E-24
5.86824E-01 1.06764E-24
5.91118E-01 1.04448E-24
5.95404E-01 1.02183E-24
5.99684E-01 9.99681E-25
6.03956E-01 9.78018E-25
6.08220E-01 9.56829E-25
6.12476E-01 9.36102E-25
6.16723E-01 9.15825E-25
6.20961E-01 8.95988E-25
6.25190E-01 8.76578E-25
6.29410E-01 8.57586E-25
6.33619E-01 8.39000E-25
6.37819E-01 8.20811E-25
6.42008E-01 8.03008E-25
6.46186E-01 7.85583E-25
6.50353E-01 7.68526E-25
6.54508E-01 7.51828E-25
6.58652E-01 7.35480E-25
6.62784E-01 7.19475E-25
6.66903E-01 7.03802E-25
6.71010E-01 6.88456E-25
6.75104E-01 6.73428E-25
6.79184E-01 6.58710E-25
6.83251E-01 6.44295E-25
6.87303E-01 6.30176E-25
6.91342E-01 6.16346E-25
6.95366E-01 6.02799E-25
6.99375E-01 5.89527E-25
7.03368E-01 5.76525E-25
7.07347E-01 5.63787E-25
7.11309E-01 5.51305E-25
7.15256E-01 5.39076E-25
7.19186E-01 5.27092E-25
7.23099E-01 5.15349E-25
7.26995E-01 5.03840E-25
7.30874E-01 4.92561E-25
7.34736E-01 4.81507E-25
7.38579E-01 4.70673E-25
7.42405E-01 4.60054E-25
7.46212E-01 4.49645E-25
7.50000E-01 4.39441E-25
7.53769E-01 4.29439E-25
7.57519E-01 4.19634E-25
7.61249E-01 4.10021E-25
7.64960E-01 4.00597E-25
7.68650E-01 3.91358E-25
7.72320E-01 3.82300E-25
7.75968E-01 3.73418E-25
7.79596E-01 3.64710E-25
7.83203E-01 3.56172E-25
7.86788E-01 3.47799E-25
7.90351E-01 3.39590E-25
7.93893E-01 3.31540E-25
7.97411E-01 3.23646E-25
8.00908E-01 3.15906E-25
8.04381E-01 3.08315E-25
8.07831E-01 3.00871E-25
8.11257E-01 2.93572E-25
8.14660E-01 2.86414E-25
8.18039E-01 2.79394E-25
8.21394E-01 2.72510E-25
8.24724E-01 2.65760E-25
8.28030E-01 2.59140E-25
8.31310E-01 2.52648E-25
8.34565E-01 2.46281E-25
8.37795E-01 2.40038E-25
8.40999E-01 2.33916E-25
8.44177E-01 2.27913E-25
8.47329E-01 2.22026E-25
8.50455E-01 2.16253E-25
8.53553E-01 2.10592E-25
8.56625E-01 2.05042E-25
8.59670E-01 1.99600E-25
8.62687E-01 1.94264E-25
8.65677E-01 1.89033E-25
8.68639E-01 1.83904E-25
8.71572E-01 1.78875E-25
8.74478E-01 1.73946E-25
8.77355E-01 1.69113E-25
8.80203E-01 1.64376E-25
8.83022E-01 1.59733E-25
8.85812E-01 1.55183E-25
8.88573E-01 1.50722E-25
8.91304E-01 1.46352E-25
8.94005E-01 1.42068E-25
8.96677E-01 1.37871E-25
8.99318E-01 1.33759E-25
9.01928E-01 1.29731E-25
9.04508E-01 1.25784E-25
9.07058E-01 1.21918E-25
9.09576E-01 1.18132E-25
9.12063E-01 1.14424E-25
9.14519E-01 1.10793E-25
9.16943E-01 1.07238E-25
9.19335E-01 1.03758E-25
9.21696E-01 1.00352E-25
9.24024E-01 9.70175E-26
9.26320E-01 9.37548E-26
9.28584E-01 9.05626E-26
9.30815E-01 8.74397E-26
9.33013E-01 8.43852E-26
9.35178E-01 8.13981E-26
9.37310E-01 7.84776E-26
9.39409E-01 7.56226E-26
9.41474E-01 7.28322E-26
9.43505E-01 7.01057E-26
9.45503E-01 6.74421E-26
9.47467E-01 6.48407E-26
9.49397E-01 6.23006E-26
9.51293E-01 5.98210E-26
9.53154E-01 5.74012E-26
9.54981E-01 5.50405E-26
9.56773E-01 5.27382E-26
9.58530E-01 5.04934E-26
9.60252E-01 4.83056E-26
9.61940E-01 4.61741E-26
9.63592E-01 4.40983E-26
9.65209E-01 4.20775E-26
9.66790E-01 4.01111E-26
9.68336E-01 3.81986E-26
9.69846E-01 3.63393E-26
9.71321E-01 3.45327E-26
9.72759E-01 3.27784E-26
9.74162E-01 3.10757E-26
9.75528E-01 2.94241E-26
9.76858E-01 2.78232E-26
9.78152E-01 2.62726E-26
9.79410E-01 2.47717E-26
9.80631E-01 2.33201E-26
9.81815E-01 2.19174E-26
9.82963E-01 2.05631E-26
9.84074E-01 1.92570E-26
9.85148E-01 1.79986E-26
9.86185E-01 1.67875E-26
9.87185E-01 1.56234E-26
9.88148E-01 1.45060E-26
9.89074E-01 1.34349E-26
9.89962E-01 1.24099E-26
9.90814E-01 1.14306E-26
9.91627E-01 1.04967E-26
9.92404E-01 9.60808E-27
9.93143E-01 8.76436E-27
9.93844E-01 7.96533E-27
9.94508E-01 7.21078E-27
9.95134E-01 6.50047E-27
9.95722E-01 5.83422E-27
9.96273E-01 5.21183E-27
9.96786E-01 4.63312E-27
9.97261E-01 4.09794E-27
9.97698E-01 3.60613E-27
9.98097E-01 3.15754E-27
9.98459E-01 2.75206E-27
9.98782E-01 2.38957E-27
9.99067E-01 2.06996E-27
9.99315E-01 1.79316E-27
9.99524E-01 1.55906E-27
9.99695E-01 1.36763E-27
9.99829E-01 1.21878E-27
9.99924E-01 1.11250E-27
9.99981E-01 1.04874E-27
1.00000E+00 1.02749E-27
