 #
 # Subroutine ELSEPA. Elastic scattering of electrons and positrons
 #                    by neutral atoms and positive ions
 #
 # Projectile: electron
 # Kinetic energy = 1.00000E+08 eV = 3.67493E+06 a.u.
 #
 # WARNING: High-energy factorization with free-atom DF screening.
 #          Absorption, polarization and exchange corrections are
 #          switched off.
 #          Phase shifts are calculated for the bare nucleus.
 #          Scattering amplitudes are not evaluated.
 #
 # Element: Pt,  Z =  78,  atomic weight = 1.95078E+02 g/mol
 #
 # Nuclear model: Fermi distribution
 #                Average radius = 6.20564E-13 cm
 #                Skin thickness = 5.46000E-14 cm
 #
 # Number of electrons = 78
 #
 # Total elastic cross section = 7.63166E-18 cm**2 = 2.72531E-01 a0**2
 # 1st transport cross section = 1.14916E-24 cm**2 = 4.10373E-08 a0**2
 # 2nd transport cross section = 3.42015E-24 cm**2 = 1.22136E-07 a0**2
 #
 #
 # Differential cross section:                       MU=(1-COS(THETA))/2
 #
 #  THETA        MU          DCS          DCS        Sherman      error
 #  (deg)                 (cm**2/sr)   (a0**2/sr)    function
 #----------------------------------------------------------------------
0.00000E+00 4.18995E-10
7.61557E-13 4.18288E-10
1.18994E-12 4.17893E-10
1.71346E-12 4.17411E-10
2.33225E-12 4.16844E-10
3.04617E-12 4.16191E-10
3.85530E-12 4.15453E-10
4.75964E-12 4.14631E-10
5.75917E-12 4.13727E-10
6.85391E-12 4.12741E-10
8.04379E-12 4.11674E-10
9.32893E-12 4.10528E-10
1.07092E-11 4.09303E-10
1.21847E-11 4.08002E-10
1.37554E-11 4.06625E-10
1.54213E-11 4.05174E-10
1.71823E-11 4.03650E-10
1.90386E-11 4.02056E-10
2.09900E-11 4.00392E-10
2.30367E-11 3.98657E-10
2.51785E-11 3.96838E-10
2.74156E-11 3.94964E-10
2.97478E-11 3.93040E-10
3.21752E-11 3.91067E-10
3.46979E-11 3.89049E-10
3.73157E-11 3.86937E-10
4.00286E-11 3.84762E-10
4.28368E-11 3.82549E-10
4.57402E-11 3.80302E-10
4.87388E-11 3.78022E-10
5.18325E-11 3.75691E-10
5.50215E-11 3.73262E-10
5.83057E-11 3.70808E-10
6.16850E-11 3.68333E-10
6.51595E-11 3.65840E-10
6.87293E-11 3.63330E-10
7.23943E-11 3.60719E-10
7.61544E-11 3.58073E-10
1.18991E-10 3.30615E-10
1.71347E-10 3.01975E-10
2.33223E-10 2.73454E-10
3.04617E-10 2.46184E-10
3.85531E-10 2.20776E-10
4.75965E-10 1.97529E-10
5.75917E-10 1.76527E-10
6.85389E-10 1.57706E-10
8.04380E-10 1.40890E-10
9.32891E-10 1.25976E-10
1.07092E-09 1.12774E-10
1.21847E-09 1.01099E-10
1.37554E-09 9.07734E-11
1.54213E-09 8.16339E-11
1.71823E-09 7.35256E-11
1.90386E-09 6.63431E-11
2.09900E-09 5.99725E-11
2.30367E-09 5.42302E-11
2.51785E-09 4.88191E-11
2.74156E-09 4.42112E-11
2.97478E-09 4.02636E-11
3.21752E-09 3.68621E-11
3.46978E-09 3.39153E-11
3.73156E-09 3.10003E-11
4.00286E-09 2.83290E-11
4.28368E-09 2.59988E-11
4.57402E-09 2.39568E-11
4.87388E-09 2.21597E-11
5.18326E-09 2.05192E-11
5.50215E-09 1.89154E-11
5.83057E-09 1.74947E-11
6.16850E-09 1.62317E-11
6.51596E-09 1.51050E-11
6.87293E-09 1.40966E-11
7.23942E-09 1.31168E-11
7.61544E-09 1.22178E-11
1.18991E-08 6.53004E-12
1.71347E-08 3.81576E-12
2.33223E-08 2.36278E-12
3.04617E-08 1.53048E-12
3.85531E-08 1.02890E-12
4.75965E-08 7.14987E-13
5.75917E-08 5.12274E-13
6.85389E-08 3.76491E-13
8.04380E-08 2.83587E-13
9.32891E-08 2.18159E-13
1.07092E-07 1.70765E-13
1.21847E-07 1.35646E-13
1.37554E-07 1.09157E-13
1.54213E-07 8.88711E-14
1.71823E-07 7.31025E-14
1.90386E-07 6.06843E-14
2.09900E-07 5.07891E-14
2.30367E-07 4.28187E-14
2.51785E-07 3.63345E-14
2.74156E-07 3.10810E-14
2.97478E-07 2.67016E-14
3.21752E-07 2.30936E-14
3.46978E-07 2.00589E-14
3.73156E-07 1.75150E-14
4.00286E-07 1.53582E-14
4.28368E-07 1.35244E-14
4.57402E-07 1.19571E-14
4.87388E-07 1.06079E-14
5.18325E-07 9.44662E-15
5.50215E-07 8.43650E-15
5.83057E-07 7.56122E-15
6.16850E-07 6.79296E-15
6.51596E-07 6.12245E-15
6.87293E-07 5.53058E-15
7.23942E-07 5.00979E-15
7.61543E-07 4.54813E-15
1.18991E-06 1.93266E-15
1.71347E-06 9.56026E-16
2.33223E-06 5.25783E-16
3.04617E-06 3.12495E-16
3.85531E-06 1.97130E-16
4.75964E-06 1.30374E-16
5.75916E-06 8.96106E-17
6.85388E-06 6.35977E-17
8.04378E-06 4.63730E-17
9.32888E-06 3.46050E-17
1.07092E-05 2.63449E-17
1.21846E-05 2.04097E-17
1.37553E-05 1.60564E-17
1.54212E-05 1.28049E-17
1.71822E-05 1.03367E-17
1.90385E-05 8.43092E-18
2.09899E-05 6.95351E-18
2.30365E-05 5.78507E-18
2.51783E-05 4.85072E-18
2.74153E-05 4.09655E-18
2.97475E-05 3.48289E-18
3.21749E-05 2.97994E-18
3.46974E-05 2.56488E-18
3.73152E-05 2.21996E-18
4.00281E-05 1.93138E-18
4.28362E-05 1.68832E-18
4.57395E-05 1.48232E-18
4.87380E-05 1.30672E-18
5.18317E-05 1.15630E-18
5.50205E-05 1.02685E-18
5.83045E-05 9.15001E-19
6.16838E-05 8.17985E-19
6.51582E-05 7.33520E-19
6.87277E-05 6.59709E-19
7.23925E-05 5.94973E-19
7.61524E-05 5.38117E-19
9.21439E-05 3.68358E-19
1.09658E-04 2.60586E-19
1.28695E-04 1.89540E-19
1.49255E-04 1.41149E-19
1.71338E-04 1.07281E-19
1.94942E-04 8.29995E-20
2.20070E-04 6.52244E-20
2.46720E-04 5.19702E-20
2.74892E-04 4.19239E-20
3.04586E-04 3.41966E-20
3.35803E-04 2.81742E-20
3.68542E-04 2.34241E-20
4.02802E-04 1.96368E-20
4.38585E-04 1.65869E-20
4.75889E-04 1.41085E-20
5.14715E-04 1.20776E-20
5.55063E-04 1.04005E-20
5.96931E-04 9.00573E-21
6.40321E-04 7.83794E-21
6.85233E-04 6.85415E-21
7.31665E-04 6.02061E-21
7.79618E-04 5.31053E-21
8.29092E-04 4.70256E-21
8.80086E-04 4.17955E-21
9.32601E-04 3.72759E-21
9.86636E-04 3.33539E-21
1.04219E-03 2.99370E-21
1.09927E-03 2.69488E-21
1.15786E-03 2.43260E-21
1.21797E-03 2.20165E-21
1.27961E-03 1.99760E-21
1.34276E-03 1.81678E-21
1.40743E-03 1.65608E-21
1.47362E-03 1.51285E-21
1.54133E-03 1.38486E-21
1.61056E-03 1.27020E-21
1.68131E-03 1.16723E-21
1.75357E-03 1.07454E-21
1.82735E-03 9.90929E-22
1.90265E-03 9.15337E-22
1.97947E-03 8.46857E-22
2.05780E-03 7.84700E-22
2.13765E-03 7.28174E-22
2.21902E-03 6.76675E-22
2.30190E-03 6.29676E-22
2.38630E-03 5.86710E-22
2.47222E-03 5.47369E-22
2.55965E-03 5.11292E-22
2.64859E-03 4.78157E-22
2.73905E-03 4.47659E-22
2.83103E-03 4.19565E-22
2.92452E-03 3.93651E-22
3.01952E-03 3.69716E-22
3.11604E-03 3.47580E-22
3.21407E-03 3.27084E-22
3.31362E-03 3.08081E-22
3.41468E-03 2.90444E-22
3.51725E-03 2.74055E-22
3.62133E-03 2.58810E-22
3.72692E-03 2.44613E-22
3.83403E-03 2.31379E-22
3.94265E-03 2.19031E-22
4.05278E-03 2.07497E-22
4.16442E-03 1.96713E-22
4.27757E-03 1.86623E-22
4.39223E-03 1.77172E-22
4.50840E-03 1.68312E-22
4.62608E-03 1.59999E-22
4.74527E-03 1.52194E-22
4.86597E-03 1.44859E-22
4.98817E-03 1.37960E-22
5.11188E-03 1.31467E-22
5.23711E-03 1.25351E-22
5.36383E-03 1.19586E-22
5.49207E-03 1.14147E-22
5.62181E-03 1.09014E-22
5.75306E-03 1.04166E-22
5.88581E-03 9.95827E-23
6.02007E-03 9.52482E-23
6.15583E-03 9.11460E-23
6.29310E-03 8.72613E-23
6.43187E-03 8.35803E-23
6.57214E-03 8.00904E-23
6.71392E-03 7.67797E-23
6.85720E-03 7.36372E-23
7.00198E-03 7.06527E-23
7.14827E-03 6.78168E-23
7.29605E-03 6.51207E-23
7.44534E-03 6.25561E-23
7.59612E-03 6.01153E-23
7.97965E-03 5.45099E-23
8.37255E-03 4.95365E-23
8.77480E-03 4.51111E-23
9.18641E-03 4.11629E-23
9.60736E-03 3.76313E-23
1.00376E-02 3.44647E-23
1.04773E-02 3.16186E-23
1.09262E-02 2.90550E-23
1.13844E-02 2.67409E-23
1.18520E-02 2.46476E-23
1.23288E-02 2.27506E-23
1.28150E-02 2.10281E-23
1.33104E-02 1.94613E-23
1.38150E-02 1.80337E-23
1.43290E-02 1.67307E-23
1.48521E-02 1.55396E-23
1.53845E-02 1.44492E-23
1.59262E-02 1.34494E-23
1.64770E-02 1.25314E-23
1.70371E-02 1.16875E-23
1.76063E-02 1.09105E-23
1.81848E-02 1.01944E-23
1.87724E-02 9.53347E-24
1.93692E-02 8.92281E-24
1.99751E-02 8.35795E-24
2.05901E-02 7.83489E-24
2.12143E-02 7.35003E-24
2.18476E-02 6.90010E-24
2.24900E-02 6.48220E-24
2.31415E-02 6.09367E-24
2.38021E-02 5.73211E-24
2.44717E-02 5.39535E-24
2.51504E-02 5.08142E-24
2.58382E-02 4.78853E-24
2.65349E-02 4.51505E-24
2.72407E-02 4.25949E-24
2.79555E-02 4.02050E-24
2.86793E-02 3.79684E-24
2.94120E-02 3.58737E-24
3.01537E-02 3.39106E-24
3.09043E-02 3.20697E-24
3.16639E-02 3.03421E-24
3.24324E-02 2.87199E-24
3.32098E-02 2.71957E-24
3.39961E-02 2.57627E-24
3.47912E-02 2.44148E-24
3.55952E-02 2.31461E-24
3.64081E-02 2.19514E-24
3.72297E-02 2.08257E-24
3.80602E-02 1.97645E-24
3.88995E-02 1.87636E-24
3.97476E-02 1.78191E-24
4.06044E-02 1.69275E-24
4.14700E-02 1.60854E-24
4.23443E-02 1.52896E-24
4.32273E-02 1.45373E-24
4.41190E-02 1.38259E-24
4.50194E-02 1.31528E-24
4.59284E-02 1.25157E-24
4.68461E-02 1.19124E-24
4.87074E-02 1.07996E-24
5.06030E-02 9.79971E-25
5.25328E-02 8.90006E-25
5.44967E-02 8.08956E-25
5.64946E-02 7.35848E-25
5.85262E-02 6.69826E-25
6.05914E-02 6.10138E-25
6.26901E-02 5.56120E-25
6.48222E-02 5.07185E-25
6.69873E-02 4.62813E-25
6.91854E-02 4.22543E-25
7.14163E-02 3.85966E-25
7.36799E-02 3.52716E-25
7.59760E-02 3.22468E-25
7.83043E-02 2.94932E-25
8.06647E-02 2.69848E-25
8.30571E-02 2.46983E-25
8.54812E-02 2.26128E-25
8.79369E-02 2.07096E-25
9.04240E-02 1.89719E-25
9.29422E-02 1.73845E-25
9.54915E-02 1.59338E-25
9.80716E-02 1.46073E-25
1.00682E-01 1.33939E-25
1.03323E-01 1.22836E-25
1.05995E-01 1.12673E-25
1.08696E-01 1.03368E-25
1.11427E-01 9.48438E-26
1.14188E-01 8.70344E-26
1.16978E-01 7.98776E-26
1.19797E-01 7.33172E-26
1.22645E-01 6.73024E-26
1.25522E-01 6.17866E-26
1.28428E-01 5.67276E-26
1.31361E-01 5.20868E-26
1.34323E-01 4.78290E-26
1.37313E-01 4.39222E-26
1.40330E-01 4.03370E-26
1.43375E-01 3.70466E-26
1.46447E-01 3.40266E-26
1.49545E-01 3.12546E-26
1.52671E-01 2.87100E-26
1.55823E-01 2.63743E-26
1.59001E-01 2.42300E-26
1.62205E-01 2.22616E-26
1.65435E-01 2.04546E-26
1.68690E-01 1.87958E-26
1.71970E-01 1.72731E-26
1.75276E-01 1.58753E-26
1.78606E-01 1.45923E-26
1.81961E-01 1.34146E-26
1.85340E-01 1.23337E-26
1.88743E-01 1.13416E-26
1.92169E-01 1.04312E-26
1.95619E-01 9.59570E-27
1.99092E-01 8.82906E-27
2.02589E-01 8.12563E-27
2.06107E-01 7.48025E-27
2.09649E-01 6.88816E-27
2.13212E-01 6.34500E-27
2.16797E-01 5.84675E-27
2.20404E-01 5.38974E-27
2.24032E-01 4.97056E-27
2.27680E-01 4.58610E-27
2.31350E-01 4.23351E-27
2.35040E-01 3.91014E-27
2.38751E-01 3.61358E-27
2.42481E-01 3.34160E-27
2.46231E-01 3.09217E-27
2.50000E-01 2.86339E-27
2.53788E-01 2.65356E-27
2.57595E-01 2.46108E-27
2.61421E-01 2.28449E-27
2.65264E-01 2.12247E-27
2.69126E-01 1.97379E-27
2.73005E-01 1.83731E-27
2.76901E-01 1.71201E-27
2.80814E-01 1.59693E-27
2.84744E-01 1.49121E-27
2.88691E-01 1.39405E-27
2.92653E-01 1.30471E-27
2.96632E-01 1.22253E-27
3.00625E-01 1.14689E-27
3.04634E-01 1.07723E-27
3.08658E-01 1.01304E-27
3.12697E-01 9.53836E-28
3.16749E-01 8.99193E-28
3.20816E-01 8.48715E-28
3.24896E-01 8.02042E-28
3.28990E-01 7.58843E-28
3.33097E-01 7.18818E-28
3.37216E-01 6.81691E-28
3.41348E-01 6.47210E-28
3.45492E-01 6.15147E-28
3.49647E-01 5.85293E-28
3.53814E-01 5.57456E-28
3.57992E-01 5.31464E-28
3.62181E-01 5.07159E-28
3.66381E-01 4.84395E-28
3.70590E-01 4.63043E-28
3.74810E-01 4.42984E-28
3.79039E-01 4.24108E-28
3.83277E-01 4.06319E-28
3.87524E-01 3.89526E-28
3.91780E-01 3.73648E-28
3.96044E-01 3.58613E-28
4.00316E-01 3.44352E-28
4.04596E-01 3.30807E-28
4.08882E-01 3.17921E-28
4.13176E-01 3.05645E-28
4.17476E-01 2.93935E-28
4.21783E-01 2.82750E-28
4.26095E-01 2.72052E-28
4.30413E-01 2.61809E-28
4.34737E-01 2.51989E-28
4.39065E-01 2.42567E-28
4.43398E-01 2.33516E-28
4.47736E-01 2.24814E-28
4.52077E-01 2.16442E-28
4.56422E-01 2.08380E-28
4.60770E-01 2.00612E-28
4.65122E-01 1.93123E-28
4.69476E-01 1.85898E-28
4.73832E-01 1.78925E-28
4.78190E-01 1.72192E-28
4.82550E-01 1.65690E-28
4.86912E-01 1.59408E-28
4.91274E-01 1.53337E-28
4.95637E-01 1.47469E-28
5.00000E-01 1.41797E-28
5.04363E-01 1.36313E-28
5.08726E-01 1.31012E-28
5.13088E-01 1.25887E-28
5.17450E-01 1.20932E-28
5.21810E-01 1.16142E-28
5.26168E-01 1.11512E-28
5.30524E-01 1.07037E-28
5.34878E-01 1.02713E-28
5.39230E-01 9.85354E-29
5.43578E-01 9.45002E-29
5.47923E-01 9.06033E-29
5.52264E-01 8.68410E-29
5.56602E-01 8.32096E-29
5.60935E-01 7.97054E-29
5.65263E-01 7.63252E-29
5.69587E-01 7.30654E-29
5.73905E-01 6.99228E-29
5.78217E-01 6.68943E-29
5.82524E-01 6.39767E-29
5.86824E-01 6.11669E-29
5.91118E-01 5.84620E-29
5.95404E-01 5.58589E-29
5.99684E-01 5.33548E-29
6.03956E-01 5.09468E-29
6.08220E-01 4.86322E-29
6.12476E-01 4.64082E-29
6.16723E-01 4.42721E-29
6.20961E-01 4.22213E-29
6.25190E-01 4.02531E-29
6.29410E-01 3.83649E-29
6.33619E-01 3.65543E-29
6.37819E-01 3.48188E-29
6.42008E-01 3.31559E-29
6.46186E-01 3.15633E-29
6.50353E-01 3.00385E-29
6.54508E-01 2.85794E-29
6.58652E-01 2.71837E-29
6.62784E-01 2.58491E-29
6.66903E-01 2.45736E-29
6.71010E-01 2.33549E-29
6.75104E-01 2.21911E-29
6.79184E-01 2.10801E-29
6.83251E-01 2.00200E-29
6.87303E-01 1.90088E-29
6.91342E-01 1.80447E-29
6.95366E-01 1.71259E-29
6.99375E-01 1.62505E-29
7.03368E-01 1.54169E-29
7.07347E-01 1.46234E-29
7.11309E-01 1.38683E-29
7.15256E-01 1.31501E-29
7.19186E-01 1.24672E-29
7.23099E-01 1.18182E-29
7.26995E-01 1.12015E-29
7.30874E-01 1.06159E-29
7.34736E-01 1.00599E-29
7.38579E-01 9.53229E-30
7.42405E-01 9.03174E-30
7.46212E-01 8.55705E-30
7.50000E-01 8.10705E-30
7.53769E-01 7.68060E-30
7.57519E-01 7.27659E-30
7.61249E-01 6.89399E-30
7.64960E-01 6.53176E-30
7.68650E-01 6.18894E-30
7.72320E-01 5.86459E-30
7.75968E-01 5.55779E-30
7.79596E-01 5.26769E-30
7.83203E-01 4.99344E-30
7.86788E-01 4.73426E-30
7.90351E-01 4.48937E-30
7.93893E-01 4.25805E-30
7.97411E-01 4.03958E-30
8.00908E-01 3.83331E-30
8.04381E-01 3.63857E-30
8.07831E-01 3.45477E-30
8.11257E-01 3.28131E-30
8.14660E-01 3.11763E-30
8.18039E-01 2.96319E-30
8.21394E-01 2.81750E-30
8.24724E-01 2.68005E-30
8.28030E-01 2.55040E-30
8.31310E-01 2.42809E-30
8.34565E-01 2.31271E-30
8.37795E-01 2.20386E-30
8.40999E-01 2.10117E-30
8.44177E-01 2.00426E-30
8.47329E-01 1.91281E-30
8.50455E-01 1.82648E-30
8.53553E-01 1.74497E-30
8.56625E-01 1.66800E-30
8.59670E-01 1.59527E-30
8.62687E-01 1.52655E-30
8.65677E-01 1.46157E-30
8.68639E-01 1.40011E-30
8.71572E-01 1.34194E-30
8.74478E-01 1.28687E-30
8.77355E-01 1.23468E-30
8.80203E-01 1.18521E-30
8.83022E-01 1.13828E-30
8.85812E-01 1.09372E-30
8.88573E-01 1.05138E-30
8.91304E-01 1.01112E-30
8.94005E-01 9.72798E-31
8.96677E-01 9.36292E-31
8.99318E-01 9.01482E-31
9.01928E-01 8.68256E-31
9.04508E-01 8.36511E-31
9.07058E-01 8.06148E-31
9.09576E-01 7.77078E-31
9.12063E-01 7.49215E-31
9.14519E-01 7.22479E-31
9.16943E-01 6.96798E-31
9.19335E-01 6.72102E-31
9.21696E-01 6.48328E-31
9.24024E-01 6.25417E-31
9.26320E-01 6.03314E-31
9.28584E-01 5.81968E-31
9.30815E-01 5.61332E-31
9.33013E-01 5.41363E-31
9.35178E-01 5.22021E-31
9.37310E-01 5.03269E-31
9.39409E-01 4.85073E-31
9.41474E-01 4.67403E-31
9.43505E-01 4.50229E-31
9.45503E-01 4.33526E-31
9.47467E-01 4.17271E-31
9.49397E-01 4.01441E-31
9.51293E-01 3.86018E-31
9.53154E-01 3.70983E-31
9.54981E-01 3.56320E-31
9.56773E-01 3.42016E-31
9.58530E-01 3.28058E-31
9.60252E-01 3.14434E-31
9.61940E-01 3.01134E-31
9.63592E-01 2.88149E-31
9.65209E-01 2.75471E-31
9.66790E-01 2.63094E-31
9.68336E-01 2.51012E-31
9.69846E-01 2.39220E-31
9.71321E-01 2.27713E-31
9.72759E-01 2.16488E-31
9.74162E-01 2.05542E-31
9.75528E-01 1.94873E-31
9.76858E-01 1.84480E-31
9.78152E-01 1.74361E-31
9.79410E-01 1.64516E-31
9.80631E-01 1.54944E-31
9.81815E-01 1.45645E-31
9.82963E-01 1.36619E-31
9.84074E-01 1.27868E-31
9.85148E-01 1.19392E-31
9.86185E-01 1.11192E-31
9.87185E-01 1.03269E-31
9.88148E-01 9.56254E-32
9.89074E-01 8.82621E-32
9.89962E-01 8.11808E-32
9.90814E-01 7.43834E-32
9.91627E-01 6.78715E-32
9.92404E-01 6.16471E-32
9.93143E-01 5.57119E-32
9.93844E-01 5.00678E-32
9.94508E-01 4.47166E-32
9.95134E-01 3.96602E-32
9.95722E-01 3.49003E-32
9.96273E-01 3.04386E-32
9.96786E-01 2.62769E-32
9.97261E-01 2.24166E-32
9.97698E-01 1.88593E-32
9.98097E-01 1.56064E-32
9.98459E-01 1.26591E-32
9.98782E-01 1.00188E-32
9.99067E-01 7.68646E-33
9.99315E-01 5.66307E-33
9.99524E-01 3.94950E-33
9.99695E-01 2.54649E-33
9.99829E-01 1.45462E-33
9.99924E-01 6.74383E-34
9.99981E-01 2.06107E-34
1.00000E+00 4.99876E-35
