 #
 # Subroutine ELSEPA. Elastic scattering of electrons and positrons
 #                    by neutral atoms and positive ions
 #
 # Projectile: positron
 # Kinetic energy = 3.50000E+08 eV = 1.28623E+07 a.u.
 #
 # WARNING: High-energy factorization with free-atom DF screening.
 #          Absorption, polarization and exchange corrections are
 #          switched off.
 #          Phase shifts are calculated for the bare nucleus.
 #          Scattering amplitudes are not evaluated.
 #
 # Element: La,  Z =  57,  atomic weight = 1.38905E+02 g/mol
 #
 # Nuclear model: Fermi distribution
 #                Average radius = 5.54145E-13 cm
 #                Skin thickness = 5.46000E-14 cm
 #
 # Number of electrons = 57
 #
 # Total elastic cross section = 7.52694E-18 cm**2 = 2.68792E-01 a0**2
 # 1st transport cross section = 5.11079E-26 cm**2 = 1.82510E-09 a0**2
 # 2nd transport cross section = 1.53199E-25 cm**2 = 5.47084E-09 a0**2
 #
 #
 # Differential cross section:                       MU=(1-COS(THETA))/2
 #
 #  THETA        MU          DCS          DCS        Sherman      error
 #  (deg)                 (cm**2/sr)   (a0**2/sr)    function
 #----------------------------------------------------------------------
0.00000E+00 1.44599E-08
7.61557E-13 1.35802E-08
1.18994E-12 1.31227E-08
1.71346E-12 1.25965E-08
2.33225E-12 1.20198E-08
3.04617E-12 1.14029E-08
3.85530E-12 1.07668E-08
4.75964E-12 1.01230E-08
5.75917E-12 9.47956E-09
6.85391E-12 8.85632E-09
8.04379E-12 8.25220E-09
9.32893E-12 7.67372E-09
1.07092E-11 7.13202E-09
1.21847E-11 6.62068E-09
1.37554E-11 6.14484E-09
1.54213E-11 5.70595E-09
1.71823E-11 5.29834E-09
1.90386E-11 4.92535E-09
2.09900E-11 4.58301E-09
2.30367E-11 4.26765E-09
2.51785E-11 3.98116E-09
2.74156E-11 3.71796E-09
2.97478E-11 3.47639E-09
3.21752E-11 3.25641E-09
3.46979E-11 3.05385E-09
3.73157E-11 2.86795E-09
4.00286E-11 2.69728E-09
4.28368E-11 2.53978E-09
4.57402E-11 2.39461E-09
4.87388E-11 2.26036E-09
5.18325E-11 2.13605E-09
5.50215E-11 2.02067E-09
5.83057E-11 1.91340E-09
6.16850E-11 1.81369E-09
6.51595E-11 1.72039E-09
6.87293E-11 1.63336E-09
7.23943E-11 1.55202E-09
7.61544E-11 1.47554E-09
1.18991E-10 9.19993E-10
1.71347E-10 5.99863E-10
2.33223E-10 4.02753E-10
3.04617E-10 2.84932E-10
3.85531E-10 2.06337E-10
4.75965E-10 1.53786E-10
5.75917E-10 1.17691E-10
6.85389E-10 9.09194E-11
8.04380E-10 7.15258E-11
9.32891E-10 5.70235E-11
1.07092E-09 4.57390E-11
1.21847E-09 3.71619E-11
1.37554E-09 3.04474E-11
1.54213E-09 2.51475E-11
1.71823E-09 2.09780E-11
1.90386E-09 1.76287E-11
2.09900E-09 1.49358E-11
2.30367E-09 1.27571E-11
2.51785E-09 1.09654E-11
2.74156E-09 9.49091E-12
2.97478E-09 8.26719E-12
3.21752E-09 7.23673E-12
3.46978E-09 6.36953E-12
3.73156E-09 5.63242E-12
4.00286E-09 4.99952E-12
4.28368E-09 4.45680E-12
4.57402E-09 3.98653E-12
4.87388E-09 3.57552E-12
5.18326E-09 3.21704E-12
5.50215E-09 2.90103E-12
5.83057E-09 2.62319E-12
6.16850E-09 2.37842E-12
6.51596E-09 2.16001E-12
6.87293E-09 1.96646E-12
7.23942E-09 1.79393E-12
7.61544E-09 1.63902E-12
1.18991E-08 7.26029E-13
1.71347E-08 3.67070E-13
2.33223E-08 2.05170E-13
3.04617E-08 1.23771E-13
3.85531E-08 7.91207E-14
4.75965E-08 5.29381E-14
5.75917E-08 3.67235E-14
6.85389E-08 2.62647E-14
8.04380E-08 1.92673E-14
9.32891E-08 1.44470E-14
1.07092E-07 1.10414E-14
1.21847E-07 8.57960E-15
1.37554E-07 6.76652E-15
1.54213E-07 5.40720E-15
1.71823E-07 4.37240E-15
1.90386E-07 3.57363E-15
2.09900E-07 2.94906E-15
2.30367E-07 2.45522E-15
2.51785E-07 2.06054E-15
2.74156E-07 1.74210E-15
2.97478E-07 1.48291E-15
3.21752E-07 1.27018E-15
3.46978E-07 1.09430E-15
3.73156E-07 9.47845E-16
4.00286E-07 8.25106E-16
4.28368E-07 7.21619E-16
4.57402E-07 6.33862E-16
4.87388E-07 5.59058E-16
5.18325E-07 4.94972E-16
5.50215E-07 4.39814E-16
5.83057E-07 3.92133E-16
6.16850E-07 3.50740E-16
6.51596E-07 3.14670E-16
6.87293E-07 2.83119E-16
7.23942E-07 2.55425E-16
7.61543E-07 2.31035E-16
1.18991E-06 9.52903E-17
1.71347E-06 4.61479E-17
2.33223E-06 2.49754E-17
3.04617E-06 1.46652E-17
3.85531E-06 9.16577E-18
4.75964E-06 6.01825E-18
5.75916E-06 4.11267E-18
6.85388E-06 2.90483E-18
8.04378E-06 2.10946E-18
9.32888E-06 1.56854E-18
1.07092E-05 1.19035E-18
1.21846E-05 9.19546E-19
1.37553E-05 7.21531E-19
1.54212E-05 5.74045E-19
1.71822E-05 4.62377E-19
1.90385E-05 3.76454E-19
2.09899E-05 3.09813E-19
2.30365E-05 2.57256E-19
2.51783E-05 2.15341E-19
2.74153E-05 1.81590E-19
2.97475E-05 1.54180E-19
3.21749E-05 1.31750E-19
3.46974E-05 1.13259E-19
3.73152E-05 9.79109E-20
4.00281E-05 8.50826E-20
4.28362E-05 7.42911E-20
4.57395E-05 6.51562E-20
4.87380E-05 5.73803E-20
5.18317E-05 5.07267E-20
5.50205E-05 4.50078E-20
5.83045E-05 4.00710E-20
6.16838E-05 3.57931E-20
6.51582E-05 3.20715E-20
6.87277E-05 2.88222E-20
7.23925E-05 2.59746E-20
7.61524E-05 2.35522E-20
9.21439E-05 1.60808E-20
1.09658E-04 1.13486E-20
1.28695E-04 8.23539E-21
1.49255E-04 6.11866E-21
1.71338E-04 4.63983E-21
1.94942E-04 3.58112E-21
2.20070E-04 2.80728E-21
2.46720E-04 2.23115E-21
2.74892E-04 1.79507E-21
3.04586E-04 1.46019E-21
3.35803E-04 1.19956E-21
3.68542E-04 9.94320E-22
4.02802E-04 8.30931E-22
4.38585E-04 6.99571E-22
4.75889E-04 5.93008E-22
5.14715E-04 5.05834E-22
5.55063E-04 4.33979E-22
5.96931E-04 3.74327E-22
6.40321E-04 3.24482E-22
6.85233E-04 2.82575E-22
7.31665E-04 2.47141E-22
7.79618E-04 2.17022E-22
8.29092E-04 1.91291E-22
8.80086E-04 1.69207E-22
9.32601E-04 1.50169E-22
9.86636E-04 1.33690E-22
1.04219E-03 1.19370E-22
1.09927E-03 1.06880E-22
1.15786E-03 9.59476E-23
1.21797E-03 8.63478E-23
1.27961E-03 7.78915E-23
1.34276E-03 7.04203E-23
1.40743E-03 6.38008E-23
1.47362E-03 5.79201E-23
1.54133E-03 5.26824E-23
1.61056E-03 4.80060E-23
1.68131E-03 4.38209E-23
1.75357E-03 4.00673E-23
1.82735E-03 3.66933E-23
1.90265E-03 3.36545E-23
1.97947E-03 3.09123E-23
2.05780E-03 2.84329E-23
2.13765E-03 2.61872E-23
2.21902E-03 2.41497E-23
2.30190E-03 2.22980E-23
2.38630E-03 2.06125E-23
2.47222E-03 1.90759E-23
2.55965E-03 1.76729E-23
2.64859E-03 1.63902E-23
2.73905E-03 1.52158E-23
2.83103E-03 1.41392E-23
2.92452E-03 1.31510E-23
3.01952E-03 1.22428E-23
3.11604E-03 1.14070E-23
3.21407E-03 1.06372E-23
3.31362E-03 9.92726E-24
3.41468E-03 9.27184E-24
3.51725E-03 8.66614E-24
3.62133E-03 8.10583E-24
3.72692E-03 7.58700E-24
3.83403E-03 7.10614E-24
3.94265E-03 6.66006E-24
4.05278E-03 6.24588E-24
4.16442E-03 5.86100E-24
4.27757E-03 5.50305E-24
4.39223E-03 5.16988E-24
4.50840E-03 4.85953E-24
4.62608E-03 4.57023E-24
4.74527E-03 4.30034E-24
4.86597E-03 4.04840E-24
4.98817E-03 3.81303E-24
5.11188E-03 3.59302E-24
5.23711E-03 3.38722E-24
5.36383E-03 3.19459E-24
5.49207E-03 3.01418E-24
5.62181E-03 2.84512E-24
5.75306E-03 2.68660E-24
5.88581E-03 2.53788E-24
6.02007E-03 2.39828E-24
6.15583E-03 2.26717E-24
6.29310E-03 2.14397E-24
6.43187E-03 2.02815E-24
6.57214E-03 1.91920E-24
6.71392E-03 1.81668E-24
6.85720E-03 1.72017E-24
7.00198E-03 1.62926E-24
7.14827E-03 1.54360E-24
7.29605E-03 1.46285E-24
7.44534E-03 1.38669E-24
7.59612E-03 1.31484E-24
7.97965E-03 1.15233E-24
8.37255E-03 1.01138E-24
8.77480E-03 8.88847E-25
9.18641E-03 7.82121E-25
9.60736E-03 6.88986E-25
1.00376E-02 6.07567E-25
1.04773E-02 5.36275E-25
1.09262E-02 4.73755E-25
1.13844E-02 4.18849E-25
1.18520E-02 3.70568E-25
1.23288E-02 3.28059E-25
1.28150E-02 2.90590E-25
1.33104E-02 2.57530E-25
1.38150E-02 2.28331E-25
1.43290E-02 2.02520E-25
1.48521E-02 1.79685E-25
1.53845E-02 1.59469E-25
1.59262E-02 1.41558E-25
1.64770E-02 1.25681E-25
1.70371E-02 1.11599E-25
1.76063E-02 9.91029E-26
1.81848E-02 8.80096E-26
1.87724E-02 7.81582E-26
1.93692E-02 6.94069E-26
1.99751E-02 6.16308E-26
2.05901E-02 5.47200E-26
2.12143E-02 4.85773E-26
2.18476E-02 4.31166E-26
2.24900E-02 3.82621E-26
2.31415E-02 3.39464E-26
2.38021E-02 3.01099E-26
2.44717E-02 2.66996E-26
2.51504E-02 2.36686E-26
2.58382E-02 2.09751E-26
2.65349E-02 1.85821E-26
2.72407E-02 1.64566E-26
2.79555E-02 1.45692E-26
2.86793E-02 1.28938E-26
2.94120E-02 1.14071E-26
3.01537E-02 1.00884E-26
3.09043E-02 8.91928E-27
3.16639E-02 7.88321E-27
3.24324E-02 6.96552E-27
3.32098E-02 6.15312E-27
3.39961E-02 5.43434E-27
3.47912E-02 4.79876E-27
3.55952E-02 4.23710E-27
3.64081E-02 3.74109E-27
3.72297E-02 3.30334E-27
3.80602E-02 2.91726E-27
3.88995E-02 2.57700E-27
3.97476E-02 2.27732E-27
4.06044E-02 2.01357E-27
4.14700E-02 1.78160E-27
4.23443E-02 1.57772E-27
4.32273E-02 1.39865E-27
4.41190E-02 1.24146E-27
4.50194E-02 1.10357E-27
4.59284E-02 9.82660E-28
4.68461E-02 8.76694E-28
4.87074E-02 7.02540E-28
5.06030E-02 5.68948E-28
5.25328E-02 4.66407E-28
5.44967E-02 3.87511E-28
5.64946E-02 3.26521E-28
5.85262E-02 2.79015E-28
6.05914E-02 2.41608E-28
6.26901E-02 2.11726E-28
6.48222E-02 1.87433E-28
6.69873E-02 1.67280E-28
6.91854E-02 1.50198E-28
7.14163E-02 1.35409E-28
7.36799E-02 1.22351E-28
7.59760E-02 1.10629E-28
7.83043E-02 9.99647E-29
8.06647E-02 9.01715E-29
8.30571E-02 8.11236E-29
8.54812E-02 7.27390E-29
8.79369E-02 6.49644E-29
9.04240E-02 5.77654E-29
9.29422E-02 5.11184E-29
9.54915E-02 4.50053E-29
9.80716E-02 3.94103E-29
1.00682E-01 3.43170E-29
1.03323E-01 2.97076E-29
1.05995E-01 2.55622E-29
1.08696E-01 2.18581E-29
1.11427E-01 1.85709E-29
1.14188E-01 1.56739E-29
1.16978E-01 1.31391E-29
1.19797E-01 1.09379E-29
1.22645E-01 9.04121E-30
1.25522E-01 7.42000E-30
1.28428E-01 6.04603E-30
1.31361E-01 4.89197E-30
1.34323E-01 3.93182E-30
1.37313E-01 3.14111E-30
1.40330E-01 2.49711E-30
1.43375E-01 1.97888E-30
1.46447E-01 1.56738E-30
1.49545E-01 1.24549E-30
1.52671E-01 9.97921E-31
1.55823E-01 8.11198E-31
1.59001E-01 6.73564E-31
1.62205E-01 5.74867E-31
1.65435E-01 5.06447E-31
1.68690E-01 4.60999E-31
1.71970E-01 4.32453E-31
1.75276E-01 4.15830E-31
1.78606E-01 4.07125E-31
1.81961E-01 4.03172E-31
1.85340E-01 4.01535E-31
1.88743E-01 4.00395E-31
1.92169E-01 3.98452E-31
1.95619E-01 3.94832E-31
1.99092E-01 3.89009E-31
2.02589E-01 3.80734E-31
2.06107E-01 3.69966E-31
2.09649E-01 3.56828E-31
2.13212E-01 3.41555E-31
2.16797E-01 3.24456E-31
2.20404E-01 3.05889E-31
2.24032E-01 2.86226E-31
2.27680E-01 2.65842E-31
2.31350E-01 2.45097E-31
2.35040E-01 2.24324E-31
2.38751E-01 2.03822E-31
2.42481E-01 1.83852E-31
2.46231E-01 1.64633E-31
2.50000E-01 1.46347E-31
2.53788E-01 1.29131E-31
2.57595E-01 1.13088E-31
2.61421E-01 9.82830E-32
2.65264E-01 8.47521E-32
2.69126E-01 7.25024E-32
2.73005E-01 6.15176E-32
2.76901E-01 5.17613E-32
2.80814E-01 4.31812E-32
2.84744E-01 3.57123E-32
2.88691E-01 2.92803E-32
2.92653E-01 2.38045E-32
2.96632E-01 1.92006E-32
3.00625E-01 1.53826E-32
3.04634E-01 1.22651E-32
3.08658E-01 9.76480E-33
3.12697E-01 7.80167E-33
3.16749E-01 6.30004E-33
3.20816E-01 5.18934E-33
3.24896E-01 4.40462E-33
3.28990E-01 3.88682E-33
3.33097E-01 3.58292E-33
3.37216E-01 3.44592E-33
3.41348E-01 3.43470E-33
3.45492E-01 3.51376E-33
3.49647E-01 3.65296E-33
3.53814E-01 3.82710E-33
3.57992E-01 4.01554E-33
3.62181E-01 4.20177E-33
3.66381E-01 4.37298E-33
3.70590E-01 4.51962E-33
3.74810E-01 4.63497E-33
3.79039E-01 4.71476E-33
3.83277E-01 4.75676E-33
3.87524E-01 4.76044E-33
3.91780E-01 4.72666E-33
3.96044E-01 4.65733E-33
4.00316E-01 4.55520E-33
4.04596E-01 4.42360E-33
4.08882E-01 4.26624E-33
4.13176E-01 4.08706E-33
4.17476E-01 3.89007E-33
4.21783E-01 3.67923E-33
4.26095E-01 3.45836E-33
4.30413E-01 3.23106E-33
4.34737E-01 3.00068E-33
4.39065E-01 2.77025E-33
4.43398E-01 2.54247E-33
4.47736E-01 2.31971E-33
4.52077E-01 2.10397E-33
4.56422E-01 1.89694E-33
4.60770E-01 1.69997E-33
4.65122E-01 1.51409E-33
4.69476E-01 1.34006E-33
4.73832E-01 1.17839E-33
4.78190E-01 1.02932E-33
4.82550E-01 8.92924E-34
4.86912E-01 7.69059E-34
4.91274E-01 6.57447E-34
4.95637E-01 5.57676E-34
5.00000E-01 4.69227E-34
5.04363E-01 3.91501E-34
5.08726E-01 3.23837E-34
5.13088E-01 2.65531E-34
5.17450E-01 2.15851E-34
5.21810E-01 1.74054E-34
5.26168E-01 1.39399E-34
5.30524E-01 1.11155E-34
5.34878E-01 8.86153E-35
5.39230E-01 7.10978E-35
5.43578E-01 5.79569E-35
5.47923E-01 4.85850E-35
5.52264E-01 4.24167E-35
5.56602E-01 3.89293E-35
5.60935E-01 3.76470E-35
5.65263E-01 3.81373E-35
5.69587E-01 4.00130E-35
5.73905E-01 4.29300E-35
5.78217E-01 4.65862E-35
5.82524E-01 5.07188E-35
5.86824E-01 5.51027E-35
5.91118E-01 5.95477E-35
5.95404E-01 6.38956E-35
5.99684E-01 6.80179E-35
6.03956E-01 7.18123E-35
6.08220E-01 7.52018E-35
6.12476E-01 7.81285E-35
6.16723E-01 8.05556E-35
6.20961E-01 8.24605E-35
6.25190E-01 8.38358E-35
6.29410E-01 8.46855E-35
6.33619E-01 8.50237E-35
6.37819E-01 8.48720E-35
6.42008E-01 8.42587E-35
6.46186E-01 8.32166E-35
6.50353E-01 8.17825E-35
6.54508E-01 7.99953E-35
6.58652E-01 7.78948E-35
6.62784E-01 7.55222E-35
6.66903E-01 7.29174E-35
6.71010E-01 7.01200E-35
6.75104E-01 6.71678E-35
6.79184E-01 6.40974E-35
6.83251E-01 6.09423E-35
6.87303E-01 5.77346E-35
6.91342E-01 5.45032E-35
6.95366E-01 5.12744E-35
6.99375E-01 4.80724E-35
7.03368E-01 4.49180E-35
7.07347E-01 4.18302E-35
7.11309E-01 3.88244E-35
7.15256E-01 3.59146E-35
7.19186E-01 3.31120E-35
7.23099E-01 3.04257E-35
7.26995E-01 2.78626E-35
7.30874E-01 2.54280E-35
7.34736E-01 2.31253E-35
7.38579E-01 2.09567E-35
7.42405E-01 1.89226E-35
7.46212E-01 1.70224E-35
7.50000E-01 1.52544E-35
7.53769E-01 1.36159E-35
7.57519E-01 1.21036E-35
7.61249E-01 1.07133E-35
7.64960E-01 9.44051E-36
7.68650E-01 8.28009E-36
7.72320E-01 7.22664E-36
7.75968E-01 6.27457E-36
7.79596E-01 5.41807E-36
7.83203E-01 4.65129E-36
7.86788E-01 3.96839E-36
7.90351E-01 3.36349E-36
7.93893E-01 2.83083E-36
7.97411E-01 2.36481E-36
8.00908E-01 1.95997E-36
8.04381E-01 1.61106E-36
8.07831E-01 1.31300E-36
8.11257E-01 1.06099E-36
8.14660E-01 8.50499E-37
8.18039E-01 6.77191E-37
8.21394E-01 5.37022E-37
8.24724E-01 4.26201E-37
8.28030E-01 3.41254E-37
8.31310E-01 2.78878E-37
8.34565E-01 2.36058E-37
8.37795E-01 2.10074E-37
8.40999E-01 1.98403E-37
8.44177E-01 1.98741E-37
8.47329E-01 2.08996E-37
8.50455E-01 2.27343E-37
8.53553E-01 2.52090E-37
8.56625E-01 2.81749E-37
8.59670E-01 3.14993E-37
8.62687E-01 3.50689E-37
8.65677E-01 3.87818E-37
8.68639E-01 4.25522E-37
8.71572E-01 4.63043E-37
8.74478E-01 4.99746E-37
8.77355E-01 5.35114E-37
8.80203E-01 5.68691E-37
8.83022E-01 6.00218E-37
8.85812E-01 6.29287E-37
8.88573E-01 6.55774E-37
8.91304E-01 6.79520E-37
8.94005E-01 7.00409E-37
8.96677E-01 7.18471E-37
8.99318E-01 7.33588E-37
9.01928E-01 7.45881E-37
9.04508E-01 7.55339E-37
9.07058E-01 7.62110E-37
9.09576E-01 7.66235E-37
9.12063E-01 7.67856E-37
9.14519E-01 7.67091E-37
9.16943E-01 7.64072E-37
9.19335E-01 7.58971E-37
9.21696E-01 7.51932E-37
9.24024E-01 7.43087E-37
9.26320E-01 7.32591E-37
9.28584E-01 7.20569E-37
9.30815E-01 7.07262E-37
9.33013E-01 6.92679E-37
9.35178E-01 6.77067E-37
9.37310E-01 6.60492E-37
9.39409E-01 6.43158E-37
9.41474E-01 6.25116E-37
9.43505E-01 6.06521E-37
9.45503E-01 5.87450E-37
9.47467E-01 5.68057E-37
9.49397E-01 5.48396E-37
9.51293E-01 5.28560E-37
9.53154E-01 5.08635E-37
9.54981E-01 4.88733E-37
9.56773E-01 4.68867E-37
9.58530E-01 4.49145E-37
9.60252E-01 4.29600E-37
9.61940E-01 4.10284E-37
9.63592E-01 3.91263E-37
9.65209E-01 3.72559E-37
9.66790E-01 3.54229E-37
9.68336E-01 3.36255E-37
9.69846E-01 3.18725E-37
9.71321E-01 3.01637E-37
9.72759E-01 2.85013E-37
9.74162E-01 2.68855E-37
9.75528E-01 2.53196E-37
9.76858E-01 2.38034E-37
9.78152E-01 2.23386E-37
9.79410E-01 2.09246E-37
9.80631E-01 1.95623E-37
9.81815E-01 1.82514E-37
9.82963E-01 1.69915E-37
9.84074E-01 1.57846E-37
9.85148E-01 1.46273E-37
9.86185E-01 1.35200E-37
9.87185E-01 1.24634E-37
9.88148E-01 1.14558E-37
9.89074E-01 1.04976E-37
9.89962E-01 9.58624E-38
9.90814E-01 8.72218E-38
9.91627E-01 7.90397E-38
9.92404E-01 7.13189E-38
9.93143E-01 6.40278E-38
9.93844E-01 5.71789E-38
9.94508E-01 5.07647E-38
9.95134E-01 4.47615E-38
9.95722E-01 3.91728E-38
9.96273E-01 3.39805E-38
9.96786E-01 2.91897E-38
9.97261E-01 2.47778E-38
9.97698E-01 2.07559E-38
9.98097E-01 1.70997E-38
9.98459E-01 1.38140E-38
9.98782E-01 1.08928E-38
9.99067E-01 8.32525E-39
9.99315E-01 6.10985E-39
9.99524E-01 4.24352E-39
9.99695E-01 2.72140E-39
9.99829E-01 1.53968E-39
9.99924E-01 6.95522E-40
9.99981E-01 1.92084E-40
1.00000E+00 2.18886E-41
