 #
 # Subroutine ELSEPA. Elastic scattering of electrons and positrons
 #                    by neutral atoms and positive ions
 #
 # Projectile: positron
 # Kinetic energy = 8.00000E+06 eV = 2.93995E+05 a.u.
 #
 # WARNING: High-energy factorization with free-atom DF screening.
 #          Absorption, polarization and exchange corrections are
 #          switched off.
 #          Phase shifts are calculated for the bare nucleus.
 #          Scattering amplitudes are not evaluated.
 #
 # Element: La,  Z =  57,  atomic weight = 1.38905E+02 g/mol
 #
 # Nuclear model: Fermi distribution
 #                Average radius = 5.54145E-13 cm
 #                Skin thickness = 5.46000E-14 cm
 #
 # Number of electrons = 57
 #
 # Total elastic cross section = 7.55377E-18 cm**2 = 2.69750E-01 a0**2
 # 1st transport cross section = 6.23211E-23 cm**2 = 2.22553E-06 a0**2
 # 2nd transport cross section = 1.80136E-22 cm**2 = 6.43279E-06 a0**2
 #
 #
 # Differential cross section:                       MU=(1-COS(THETA))/2
 #
 #  THETA        MU          DCS          DCS        Sherman      error
 #  (deg)                 (cm**2/sr)   (a0**2/sr)    function
 #----------------------------------------------------------------------
0.00000E+00 8.52558E-12
7.61557E-13 8.52524E-12
1.18994E-12 8.52506E-12
1.71346E-12 8.52483E-12
2.33225E-12 8.52457E-12
3.04617E-12 8.52426E-12
3.85530E-12 8.52392E-12
4.75964E-12 8.52354E-12
5.75917E-12 8.52311E-12
6.85391E-12 8.52265E-12
8.04379E-12 8.52215E-12
9.32893E-12 8.52160E-12
1.07092E-11 8.52102E-12
1.21847E-11 8.52040E-12
1.37554E-11 8.51973E-12
1.54213E-11 8.51903E-12
1.71823E-11 8.51829E-12
1.90386E-11 8.51750E-12
2.09900E-11 8.51668E-12
2.30367E-11 8.51582E-12
2.51785E-11 8.51492E-12
2.74156E-11 8.51397E-12
2.97478E-11 8.51299E-12
3.21752E-11 8.51197E-12
3.46979E-11 8.51091E-12
3.73157E-11 8.50981E-12
4.00286E-11 8.50867E-12
4.28368E-11 8.50749E-12
4.57402E-11 8.50627E-12
4.87388E-11 8.50501E-12
5.18325E-11 8.50371E-12
5.50215E-11 8.50237E-12
5.83057E-11 8.50099E-12
6.16850E-11 8.49958E-12
6.51595E-11 8.49812E-12
6.87293E-11 8.49662E-12
7.23943E-11 8.49509E-12
7.61544E-11 8.49351E-12
1.18991E-10 8.47561E-12
1.71347E-10 8.45381E-12
2.33223E-10 8.42818E-12
3.04617E-10 8.39876E-12
3.85531E-10 8.36562E-12
4.75965E-10 8.32883E-12
5.75917E-10 8.28847E-12
6.85389E-10 8.24463E-12
8.04380E-10 8.19740E-12
9.32891E-10 8.14688E-12
1.07092E-09 8.09317E-12
1.21847E-09 8.03639E-12
1.37554E-09 7.97664E-12
1.54213E-09 7.91405E-12
1.71823E-09 7.84874E-12
1.90386E-09 7.78084E-12
2.09900E-09 7.71048E-12
2.30367E-09 7.63777E-12
2.51785E-09 7.56288E-12
2.74156E-09 7.48591E-12
2.97478E-09 7.40702E-12
3.21752E-09 7.32646E-12
3.46978E-09 7.24480E-12
3.73156E-09 7.16137E-12
4.00286E-09 7.07630E-12
4.28368E-09 6.98970E-12
4.57402E-09 6.90168E-12
4.87388E-09 6.81236E-12
5.18326E-09 6.72330E-12
5.50215E-09 6.63377E-12
5.83057E-09 6.54329E-12
6.16850E-09 6.45197E-12
6.51596E-09 6.35991E-12
6.87293E-09 6.26722E-12
7.23942E-09 6.17458E-12
7.61544E-09 6.08333E-12
1.18991E-08 5.17786E-12
1.71347E-08 4.34863E-12
2.33223E-08 3.63171E-12
3.04617E-08 3.03595E-12
3.85531E-08 2.54906E-12
4.75965E-08 2.15689E-12
5.75917E-08 1.83923E-12
6.85389E-08 1.58176E-12
8.04380E-08 1.37047E-12
9.32891E-08 1.19550E-12
1.07092E-07 1.04898E-12
1.21847E-07 9.25039E-13
1.37554E-07 8.19210E-13
1.54213E-07 7.28245E-13
1.71823E-07 6.49379E-13
1.90386E-07 5.80877E-13
2.09900E-07 5.20836E-13
2.30367E-07 4.68301E-13
2.51785E-07 4.21973E-13
2.74156E-07 3.81181E-13
2.97478E-07 3.45082E-13
3.21752E-07 3.12830E-13
3.46978E-07 2.83096E-13
3.73156E-07 2.57297E-13
4.00286E-07 2.34815E-13
4.28368E-07 2.15140E-13
4.57402E-07 1.97854E-13
4.87388E-07 1.82606E-13
5.18325E-07 1.67989E-13
5.50215E-07 1.54616E-13
5.83057E-07 1.42749E-13
6.16850E-07 1.32184E-13
6.51596E-07 1.22748E-13
6.87293E-07 1.14295E-13
7.23942E-07 1.06520E-13
7.61543E-07 9.90064E-14
1.18991E-06 5.20425E-14
1.71347E-06 2.97460E-14
2.33223E-06 1.80460E-14
3.04617E-06 1.15258E-14
3.85531E-06 7.72953E-15
4.75964E-06 5.40234E-15
5.75916E-06 3.91288E-15
6.85388E-06 2.91251E-15
8.04378E-06 2.21853E-15
9.32888E-06 1.71803E-15
1.07092E-05 1.35099E-15
1.21846E-05 1.07603E-15
1.37553E-05 8.66511E-16
1.54212E-05 7.04711E-16
1.71822E-05 5.78172E-16
1.90385E-05 4.78342E-16
2.09899E-05 3.99199E-16
2.30365E-05 3.35720E-16
2.51783E-05 2.84254E-16
2.74153E-05 2.42242E-16
2.97475E-05 2.07676E-16
3.21749E-05 1.79059E-16
3.46974E-05 1.55192E-16
3.73152E-05 1.35295E-16
4.00281E-05 1.18485E-16
4.28362E-05 1.04217E-16
4.57395E-05 9.20926E-17
4.87380E-05 8.16198E-17
5.18317E-05 7.26286E-17
5.50205E-05 6.48436E-17
5.83045E-05 5.80635E-17
6.16838E-05 5.21702E-17
6.51582E-05 4.69874E-17
6.87277E-05 4.24423E-17
7.23925E-05 3.84404E-17
7.61524E-05 3.48885E-17
9.21439E-05 2.42104E-17
1.09658E-04 1.73078E-17
1.28695E-04 1.26966E-17
1.49255E-04 9.51708E-18
1.71338E-04 7.27126E-18
1.94942E-04 5.64820E-18
2.20070E-04 4.45256E-18
2.46720E-04 3.55655E-18
2.74892E-04 2.87439E-18
3.04586E-04 2.34806E-18
3.35803E-04 1.93657E-18
3.68542E-04 1.61136E-18
4.02802E-04 1.35152E-18
4.38585E-04 1.14198E-18
4.75889E-04 9.71473E-19
5.14715E-04 8.31607E-19
5.55063E-04 7.16011E-19
5.96931E-04 6.19799E-19
6.40321E-04 5.39207E-19
6.85233E-04 4.71280E-19
7.31665E-04 4.13714E-19
7.79618E-04 3.64659E-19
8.29092E-04 3.22658E-19
8.80086E-04 2.86523E-19
9.32601E-04 2.55301E-19
9.86636E-04 2.28210E-19
1.04219E-03 2.04613E-19
1.09927E-03 1.83983E-19
1.15786E-03 1.65882E-19
1.21797E-03 1.49950E-19
1.27961E-03 1.35880E-19
1.34276E-03 1.23419E-19
1.40743E-03 1.12350E-19
1.47362E-03 1.02492E-19
1.54133E-03 9.36880E-20
1.61056E-03 8.58072E-20
1.68131E-03 7.87353E-20
1.75357E-03 7.23749E-20
1.82735E-03 6.66421E-20
1.90265E-03 6.14638E-20
1.97947E-03 5.67774E-20
2.05780E-03 5.25275E-20
2.13765E-03 4.86667E-20
2.21902E-03 4.51528E-20
2.30190E-03 4.19493E-20
2.38630E-03 3.90239E-20
2.47222E-03 3.63481E-20
2.55965E-03 3.38969E-20
2.64859E-03 3.16481E-20
2.73905E-03 2.95820E-20
2.83103E-03 2.76811E-20
2.92452E-03 2.59299E-20
3.01952E-03 2.43143E-20
3.11604E-03 2.28222E-20
3.21407E-03 2.14422E-20
3.31362E-03 2.01646E-20
3.41468E-03 1.89803E-20
3.51725E-03 1.78813E-20
3.62133E-03 1.68604E-20
3.72692E-03 1.59109E-20
3.83403E-03 1.50271E-20
3.94265E-03 1.42035E-20
4.05278E-03 1.34353E-20
4.16442E-03 1.27181E-20
4.27757E-03 1.20478E-20
4.39223E-03 1.14210E-20
4.50840E-03 1.08342E-20
4.62608E-03 1.02844E-20
4.74527E-03 9.76889E-21
4.86597E-03 9.28509E-21
4.98817E-03 8.83074E-21
5.11188E-03 8.40370E-21
5.23711E-03 8.00202E-21
5.36383E-03 7.62395E-21
5.49207E-03 7.26781E-21
5.62181E-03 6.93212E-21
5.75306E-03 6.61549E-21
5.88581E-03 6.31663E-21
6.02007E-03 6.03437E-21
6.15583E-03 5.76761E-21
6.29310E-03 5.51535E-21
6.43187E-03 5.27667E-21
6.57214E-03 5.05067E-21
6.71392E-03 4.83657E-21
6.85720E-03 4.63365E-21
7.00198E-03 4.44118E-21
7.14827E-03 4.25855E-21
7.29605E-03 4.08516E-21
7.44534E-03 3.92045E-21
7.59612E-03 3.76391E-21
7.97965E-03 3.40522E-21
8.37255E-03 3.08803E-21
8.77480E-03 2.80671E-21
9.18641E-03 2.55652E-21
9.60736E-03 2.33343E-21
1.00376E-02 2.13401E-21
1.04773E-02 1.95531E-21
1.09262E-02 1.79481E-21
1.13844E-02 1.65034E-21
1.18520E-02 1.52003E-21
1.23288E-02 1.40224E-21
1.28150E-02 1.29556E-21
1.33104E-02 1.19877E-21
1.38150E-02 1.11079E-21
1.43290E-02 1.03068E-21
1.48521E-02 9.57605E-22
1.53845E-02 8.90847E-22
1.59262E-02 8.29764E-22
1.64770E-02 7.73787E-22
1.70371E-02 7.22415E-22
1.76063E-02 6.75204E-22
1.81848E-02 6.31757E-22
1.87724E-02 5.91720E-22
1.93692E-02 5.54779E-22
1.99751E-02 5.20653E-22
2.05901E-02 4.89088E-22
2.12143E-02 4.59859E-22
2.18476E-02 4.32762E-22
2.24900E-02 4.07615E-22
2.31415E-02 3.84252E-22
2.38021E-02 3.62524E-22
2.44717E-02 3.42296E-22
2.51504E-02 3.23447E-22
2.58382E-02 3.05864E-22
2.65349E-02 2.89450E-22
2.72407E-02 2.74111E-22
2.79555E-02 2.59765E-22
2.86793E-02 2.46336E-22
2.94120E-02 2.33755E-22
3.01537E-02 2.21959E-22
3.09043E-02 2.10890E-22
3.16639E-02 2.00496E-22
3.24324E-02 1.90727E-22
3.32098E-02 1.81540E-22
3.39961E-02 1.72893E-22
3.47912E-02 1.64750E-22
3.55952E-02 1.57075E-22
3.64081E-02 1.49837E-22
3.72297E-02 1.43007E-22
3.80602E-02 1.36557E-22
3.88995E-02 1.30462E-22
3.97476E-02 1.24700E-22
4.06044E-02 1.19248E-22
4.14700E-02 1.14088E-22
4.23443E-02 1.09200E-22
4.32273E-02 1.04569E-22
4.41190E-02 1.00177E-22
4.50194E-02 9.60108E-23
4.59284E-02 9.20561E-23
4.68461E-02 8.83004E-23
4.87074E-02 8.13393E-23
5.06030E-02 7.50425E-23
5.25328E-02 6.93359E-23
5.44967E-02 6.41547E-23
5.64946E-02 5.94422E-23
5.85262E-02 5.51488E-23
6.05914E-02 5.12310E-23
6.26901E-02 4.76502E-23
6.48222E-02 4.43724E-23
6.69873E-02 4.13676E-23
6.91854E-02 3.86093E-23
7.14163E-02 3.60737E-23
7.36799E-02 3.37397E-23
7.59760E-02 3.15885E-23
7.83043E-02 2.96033E-23
8.06647E-02 2.77693E-23
8.30571E-02 2.60727E-23
8.54812E-02 2.45016E-23
8.79369E-02 2.30451E-23
9.04240E-02 2.16934E-23
9.29422E-02 2.04376E-23
9.54915E-02 1.92698E-23
9.80716E-02 1.81827E-23
1.00682E-01 1.71697E-23
1.03323E-01 1.62251E-23
1.05995E-01 1.53432E-23
1.08696E-01 1.45193E-23
1.11427E-01 1.37489E-23
1.14188E-01 1.30279E-23
1.16978E-01 1.23526E-23
1.19797E-01 1.17196E-23
1.22645E-01 1.11257E-23
1.25522E-01 1.05682E-23
1.28428E-01 1.00444E-23
1.31361E-01 9.55195E-24
1.34323E-01 9.08861E-24
1.37313E-01 8.65243E-24
1.40330E-01 8.24148E-24
1.43375E-01 7.85401E-24
1.46447E-01 7.48855E-24
1.49545E-01 7.14360E-24
1.52671E-01 6.81774E-24
1.55823E-01 6.50980E-24
1.59001E-01 6.21861E-24
1.62205E-01 5.94310E-24
1.65435E-01 5.68226E-24
1.68690E-01 5.43520E-24
1.71970E-01 5.20105E-24
1.75276E-01 4.97903E-24
1.78606E-01 4.76838E-24
1.81961E-01 4.56844E-24
1.85340E-01 4.37857E-24
1.88743E-01 4.19817E-24
1.92169E-01 4.02668E-24
1.95619E-01 3.86358E-24
1.99092E-01 3.70841E-24
2.02589E-01 3.56070E-24
2.06107E-01 3.42004E-24
2.09649E-01 3.28602E-24
2.13212E-01 3.15829E-24
2.16797E-01 3.03649E-24
2.20404E-01 2.92031E-24
2.24032E-01 2.80944E-24
2.27680E-01 2.70359E-24
2.31350E-01 2.60250E-24
2.35040E-01 2.50592E-24
2.38751E-01 2.41361E-24
2.42481E-01 2.32535E-24
2.46231E-01 2.24093E-24
2.50000E-01 2.16016E-24
2.53788E-01 2.08285E-24
2.57595E-01 2.00883E-24
2.61421E-01 1.93793E-24
2.65264E-01 1.87001E-24
2.69126E-01 1.80490E-24
2.73005E-01 1.74248E-24
2.76901E-01 1.68263E-24
2.80814E-01 1.62520E-24
2.84744E-01 1.57009E-24
2.88691E-01 1.51719E-24
2.92653E-01 1.46640E-24
2.96632E-01 1.41761E-24
3.00625E-01 1.37074E-24
3.04634E-01 1.32570E-24
3.08658E-01 1.28240E-24
3.12697E-01 1.24075E-24
3.16749E-01 1.20070E-24
3.20816E-01 1.16217E-24
3.24896E-01 1.12509E-24
3.28990E-01 1.08939E-24
3.33097E-01 1.05502E-24
3.37216E-01 1.02193E-24
3.41348E-01 9.90041E-25
3.45492E-01 9.59319E-25
3.49647E-01 9.29709E-25
3.53814E-01 9.01166E-25
3.57992E-01 8.73643E-25
3.62181E-01 8.47098E-25
3.66381E-01 8.21492E-25
3.70590E-01 7.96784E-25
3.74810E-01 7.72938E-25
3.79039E-01 7.49920E-25
3.83277E-01 7.27695E-25
3.87524E-01 7.06232E-25
3.91780E-01 6.85500E-25
3.96044E-01 6.65470E-25
4.00316E-01 6.46115E-25
4.04596E-01 6.27408E-25
4.08882E-01 6.09323E-25
4.13176E-01 5.91837E-25
4.17476E-01 5.74927E-25
4.21783E-01 5.58570E-25
4.26095E-01 5.42745E-25
4.30413E-01 5.27433E-25
4.34737E-01 5.12613E-25
4.39065E-01 4.98268E-25
4.43398E-01 4.84380E-25
4.47736E-01 4.70932E-25
4.52077E-01 4.57907E-25
4.56422E-01 4.45290E-25
4.60770E-01 4.33067E-25
4.65122E-01 4.21222E-25
4.69476E-01 4.09743E-25
4.73832E-01 3.98616E-25
4.78190E-01 3.87829E-25
4.82550E-01 3.77370E-25
4.86912E-01 3.67227E-25
4.91274E-01 3.57389E-25
4.95637E-01 3.47845E-25
5.00000E-01 3.38586E-25
5.04363E-01 3.29601E-25
5.08726E-01 3.20881E-25
5.13088E-01 3.12416E-25
5.17450E-01 3.04199E-25
5.21810E-01 2.96221E-25
5.26168E-01 2.88474E-25
5.30524E-01 2.80950E-25
5.34878E-01 2.73642E-25
5.39230E-01 2.66542E-25
5.43578E-01 2.59644E-25
5.47923E-01 2.52941E-25
5.52264E-01 2.46426E-25
5.56602E-01 2.40094E-25
5.60935E-01 2.33939E-25
5.65263E-01 2.27955E-25
5.69587E-01 2.22136E-25
5.73905E-01 2.16478E-25
5.78217E-01 2.10974E-25
5.82524E-01 2.05621E-25
5.86824E-01 2.00414E-25
5.91118E-01 1.95347E-25
5.95404E-01 1.90417E-25
5.99684E-01 1.85619E-25
6.03956E-01 1.80950E-25
6.08220E-01 1.76405E-25
6.12476E-01 1.71981E-25
6.16723E-01 1.67673E-25
6.20961E-01 1.63479E-25
6.25190E-01 1.59395E-25
6.29410E-01 1.55418E-25
6.33619E-01 1.51543E-25
6.37819E-01 1.47770E-25
6.42008E-01 1.44094E-25
6.46186E-01 1.40512E-25
6.50353E-01 1.37022E-25
6.54508E-01 1.33621E-25
6.58652E-01 1.30307E-25
6.62784E-01 1.27077E-25
6.66903E-01 1.23928E-25
6.71010E-01 1.20858E-25
6.75104E-01 1.17866E-25
6.79184E-01 1.14948E-25
6.83251E-01 1.12103E-25
6.87303E-01 1.09329E-25
6.91342E-01 1.06623E-25
6.95366E-01 1.03985E-25
6.99375E-01 1.01411E-25
7.03368E-01 9.88997E-26
7.07347E-01 9.64501E-26
7.11309E-01 9.40602E-26
7.15256E-01 9.17283E-26
7.19186E-01 8.94529E-26
7.23099E-01 8.72324E-26
7.26995E-01 8.50654E-26
7.30874E-01 8.29504E-26
7.34736E-01 8.08860E-26
7.38579E-01 7.88708E-26
7.42405E-01 7.69037E-26
7.46212E-01 7.49832E-26
7.50000E-01 7.31082E-26
7.53769E-01 7.12775E-26
7.57519E-01 6.94899E-26
7.61249E-01 6.77443E-26
7.64960E-01 6.60396E-26
7.68650E-01 6.43748E-26
7.72320E-01 6.27489E-26
7.75968E-01 6.11608E-26
7.79596E-01 5.96096E-26
7.83203E-01 5.80944E-26
7.86788E-01 5.66142E-26
7.90351E-01 5.51682E-26
7.93893E-01 5.37556E-26
7.97411E-01 5.23754E-26
8.00908E-01 5.10269E-26
8.04381E-01 4.97094E-26
8.07831E-01 4.84220E-26
8.11257E-01 4.71640E-26
8.14660E-01 4.59348E-26
8.18039E-01 4.47336E-26
8.21394E-01 4.35597E-26
8.24724E-01 4.24125E-26
8.28030E-01 4.12913E-26
8.31310E-01 4.01956E-26
8.34565E-01 3.91247E-26
8.37795E-01 3.80781E-26
8.40999E-01 3.70551E-26
8.44177E-01 3.60553E-26
8.47329E-01 3.50781E-26
8.50455E-01 3.41230E-26
8.53553E-01 3.31895E-26
8.56625E-01 3.22770E-26
8.59670E-01 3.13852E-26
8.62687E-01 3.05134E-26
8.65677E-01 2.96614E-26
8.68639E-01 2.88287E-26
8.71572E-01 2.80147E-26
8.74478E-01 2.72192E-26
8.77355E-01 2.64417E-26
8.80203E-01 2.56818E-26
8.83022E-01 2.49391E-26
8.85812E-01 2.42133E-26
8.88573E-01 2.35040E-26
8.91304E-01 2.28108E-26
8.94005E-01 2.21335E-26
8.96677E-01 2.14717E-26
8.99318E-01 2.08250E-26
9.01928E-01 2.01931E-26
9.04508E-01 1.95758E-26
9.07058E-01 1.89728E-26
9.09576E-01 1.83837E-26
9.12063E-01 1.78082E-26
9.14519E-01 1.72462E-26
9.16943E-01 1.66973E-26
9.19335E-01 1.61613E-26
9.21696E-01 1.56379E-26
9.24024E-01 1.51269E-26
9.26320E-01 1.46281E-26
9.28584E-01 1.41412E-26
9.30815E-01 1.36659E-26
9.33013E-01 1.32022E-26
9.35178E-01 1.27497E-26
9.37310E-01 1.23083E-26
9.39409E-01 1.18777E-26
9.41474E-01 1.14578E-26
9.43505E-01 1.10484E-26
9.45503E-01 1.06493E-26
9.47467E-01 1.02603E-26
9.49397E-01 9.88118E-27
9.51293E-01 9.51189E-27
9.53154E-01 9.15221E-27
9.54981E-01 8.80198E-27
9.56773E-01 8.46105E-27
9.58530E-01 8.12927E-27
9.60252E-01 7.80650E-27
9.61940E-01 7.49259E-27
9.63592E-01 7.18742E-27
9.65209E-01 6.89084E-27
9.66790E-01 6.60274E-27
9.68336E-01 6.32299E-27
9.69846E-01 6.05146E-27
9.71321E-01 5.78804E-27
9.72759E-01 5.53263E-27
9.74162E-01 5.28510E-27
9.75528E-01 5.04537E-27
9.76858E-01 4.81331E-27
9.78152E-01 4.58885E-27
9.79410E-01 4.37188E-27
9.80631E-01 4.16232E-27
9.81815E-01 3.96006E-27
9.82963E-01 3.76504E-27
9.84074E-01 3.57717E-27
9.85148E-01 3.39637E-27
9.86185E-01 3.22257E-27
9.87185E-01 3.05569E-27
9.88148E-01 2.89566E-27
9.89074E-01 2.74243E-27
9.89962E-01 2.59592E-27
9.90814E-01 2.45608E-27
9.91627E-01 2.32284E-27
9.92404E-01 2.19616E-27
9.93143E-01 2.07598E-27
9.93844E-01 1.96226E-27
9.94508E-01 1.85494E-27
9.95134E-01 1.75399E-27
9.95722E-01 1.65935E-27
9.96273E-01 1.57101E-27
9.96786E-01 1.48890E-27
9.97261E-01 1.41302E-27
9.97698E-01 1.34331E-27
9.98097E-01 1.27976E-27
9.98459E-01 1.22234E-27
9.98782E-01 1.17103E-27
9.99067E-01 1.12580E-27
9.99315E-01 1.08664E-27
9.99524E-01 1.05353E-27
9.99695E-01 1.02646E-27
9.99829E-01 1.00542E-27
9.99924E-01 9.90392E-28
9.99981E-01 9.81379E-28
1.00000E+00 9.78375E-28
