 #
 # Subroutine ELSEPA. Elastic scattering of electrons and positrons
 #                    by neutral atoms and positive ions
 #
 # Projectile: positron
 # Kinetic energy = 3.00000E+08 eV = 1.10248E+07 a.u.
 #
 # WARNING: High-energy factorization with free-atom DF screening.
 #          Absorption, polarization and exchange corrections are
 #          switched off.
 #          Phase shifts are calculated for the bare nucleus.
 #          Scattering amplitudes are not evaluated.
 #
 # Element: La,  Z =  57,  atomic weight = 1.38905E+02 g/mol
 #
 # Nuclear model: Fermi distribution
 #                Average radius = 5.54145E-13 cm
 #                Skin thickness = 5.46000E-14 cm
 #
 # Number of electrons = 57
 #
 # Total elastic cross section = 7.52917E-18 cm**2 = 2.68872E-01 a0**2
 # 1st transport cross section = 6.94596E-26 cm**2 = 2.48045E-09 a0**2
 # 2nd transport cross section = 2.08148E-25 cm**2 = 7.43309E-09 a0**2
 #
 #
 # Differential cross section:                       MU=(1-COS(THETA))/2
 #
 #  THETA        MU          DCS          DCS        Sherman      error
 #  (deg)                 (cm**2/sr)   (a0**2/sr)    function
 #----------------------------------------------------------------------
0.00000E+00 1.06288E-08
7.61557E-13 1.01472E-08
1.18994E-12 9.89154E-09
1.71346E-12 9.59295E-09
2.33225E-12 9.25842E-09
3.04617E-12 8.89708E-09
3.85530E-12 8.51186E-09
4.75964E-12 8.11570E-09
5.75917E-12 7.70859E-09
6.85391E-12 7.30460E-09
8.04379E-12 6.90103E-09
9.32893E-12 6.50852E-09
1.07092E-11 6.12620E-09
1.21847E-11 5.75925E-09
1.37554E-11 5.40919E-09
1.54213E-11 5.07588E-09
1.71823E-11 4.76333E-09
1.90386E-11 4.46692E-09
2.09900E-11 4.19281E-09
2.30367E-11 3.93387E-09
2.51785E-11 3.69560E-09
2.74156E-11 3.47213E-09
2.97478E-11 3.26596E-09
3.21752E-11 3.07406E-09
3.46979E-11 2.89637E-09
3.73157E-11 2.73182E-09
4.00286E-11 2.57884E-09
4.28368E-11 2.43755E-09
4.57402E-11 2.30570E-09
4.87388E-11 2.18398E-09
5.18325E-11 2.07021E-09
5.50215E-11 1.96468E-09
5.83057E-11 1.86606E-09
6.16850E-11 1.77413E-09
6.51595E-11 1.68814E-09
6.87293E-11 1.60771E-09
7.23943E-11 1.53228E-09
7.61544E-11 1.46156E-09
1.18991E-10 9.41942E-10
1.71347E-10 6.34212E-10
2.33223E-10 4.40667E-10
3.04617E-10 3.12170E-10
3.85531E-10 2.30754E-10
4.75965E-10 1.72986E-10
5.75917E-10 1.33784E-10
6.85389E-10 1.04299E-10
8.04380E-10 8.31597E-11
9.32891E-10 6.67829E-11
1.07092E-09 5.43668E-11
1.21847E-09 4.45836E-11
1.37554E-09 3.68588E-11
1.54213E-09 3.07232E-11
1.71823E-09 2.57426E-11
1.90386E-09 2.17616E-11
2.09900E-09 1.84696E-11
2.30367E-09 1.58093E-11
2.51785E-09 1.35917E-11
2.74156E-09 1.17691E-11
2.97478E-09 1.02421E-11
3.21752E-09 8.96504E-12
3.46978E-09 7.88653E-12
3.73156E-09 6.97050E-12
4.00286E-09 6.19004E-12
4.28368E-09 5.51746E-12
4.57402E-09 4.93966E-12
4.87388E-09 4.43475E-12
5.18326E-09 3.99704E-12
5.50215E-09 3.61121E-12
5.83057E-09 3.27324E-12
6.16850E-09 2.97404E-12
6.51596E-09 2.70832E-12
6.87293E-09 2.47125E-12
7.23942E-09 2.25920E-12
7.61544E-09 2.07002E-12
1.18991E-08 9.39241E-13
1.71347E-08 4.80145E-13
2.33223E-08 2.69564E-13
3.04617E-08 1.62903E-13
3.85531E-08 1.04318E-13
4.75965E-08 6.99505E-14
5.75917E-08 4.86725E-14
6.85389E-08 3.48933E-14
8.04380E-08 2.56637E-14
9.32891E-08 1.92871E-14
1.07092E-07 1.47674E-14
1.21847E-07 1.14955E-14
1.37554E-07 9.07820E-15
1.54213E-07 7.26287E-15
1.71823E-07 5.87884E-15
1.90386E-07 4.80830E-15
2.09900E-07 3.97058E-15
2.30367E-07 3.30743E-15
2.51785E-07 2.77694E-15
2.74156E-07 2.34870E-15
2.97478E-07 1.99986E-15
3.21752E-07 1.71345E-15
3.46978E-07 1.47656E-15
3.73156E-07 1.27922E-15
4.00286E-07 1.11379E-15
4.28368E-07 9.74285E-16
4.57402E-07 8.55950E-16
4.87388E-07 7.55066E-16
5.18325E-07 6.68622E-16
5.50215E-07 5.94207E-16
5.83057E-07 5.29872E-16
6.16850E-07 4.74013E-16
6.51596E-07 4.25329E-16
6.87293E-07 3.82741E-16
7.23942E-07 3.45352E-16
7.61543E-07 3.12422E-16
1.18991E-06 1.29031E-16
1.71347E-06 6.25552E-17
2.33223E-06 3.38824E-17
3.04617E-06 1.99071E-17
3.85531E-06 1.24475E-17
4.75964E-06 8.17577E-18
5.75916E-06 5.58845E-18
6.85388E-06 3.94796E-18
8.04378E-06 2.86741E-18
9.32888E-06 2.13239E-18
1.07092E-05 1.61841E-18
1.21846E-05 1.25032E-18
1.37553E-05 9.81144E-19
1.54212E-05 7.80634E-19
1.71822E-05 6.28808E-19
1.90385E-05 5.11976E-19
2.09899E-05 4.21360E-19
2.30365E-05 3.49889E-19
2.51783E-05 2.92889E-19
2.74153E-05 2.46988E-19
2.97475E-05 2.09712E-19
3.21749E-05 1.79205E-19
3.46974E-05 1.54057E-19
3.73152E-05 1.33182E-19
4.00281E-05 1.15734E-19
4.28362E-05 1.01055E-19
4.57395E-05 8.86305E-20
4.87380E-05 7.80536E-20
5.18317E-05 6.90037E-20
5.50205E-05 6.12243E-20
5.83045E-05 5.45094E-20
6.16838E-05 4.86901E-20
6.51582E-05 4.36280E-20
6.87277E-05 3.92079E-20
7.23925E-05 3.53344E-20
7.61524E-05 3.20190E-20
9.21439E-05 2.18625E-20
1.09658E-04 1.54298E-20
1.28695E-04 1.11981E-20
1.49255E-04 8.32089E-21
1.71338E-04 6.31080E-21
1.94942E-04 4.87182E-21
2.20070E-04 3.82007E-21
2.46720E-04 3.03702E-21
2.74892E-04 2.44422E-21
3.04586E-04 1.98896E-21
3.35803E-04 1.63463E-21
3.68542E-04 1.35556E-21
4.02802E-04 1.13338E-21
4.38585E-04 9.54722E-22
4.75889E-04 8.09765E-22
5.14715E-04 6.91162E-22
5.55063E-04 5.93380E-22
5.96931E-04 5.12185E-22
6.40321E-04 4.44321E-22
6.85233E-04 3.87249E-22
7.31665E-04 3.38977E-22
7.79618E-04 2.97931E-22
8.29092E-04 2.62854E-22
8.80086E-04 2.32737E-22
9.32601E-04 2.06763E-22
9.86636E-04 1.84270E-22
1.04219E-03 1.64715E-22
1.09927E-03 1.47651E-22
1.15786E-03 1.32708E-22
1.21797E-03 1.19578E-22
1.27961E-03 1.08006E-22
1.34276E-03 9.77762E-23
1.40743E-03 8.87067E-23
1.47362E-03 8.06443E-23
1.54133E-03 7.34585E-23
1.61056E-03 6.70382E-23
1.68131E-03 6.12882E-23
1.75357E-03 5.61270E-23
1.82735E-03 5.14843E-23
1.90265E-03 4.72993E-23
1.97947E-03 4.35195E-23
2.05780E-03 4.00990E-23
2.13765E-03 3.69982E-23
2.21902E-03 3.41821E-23
2.30190E-03 3.16203E-23
2.38630E-03 2.92861E-23
2.47222E-03 2.71560E-23
2.55965E-03 2.52091E-23
2.64859E-03 2.34271E-23
2.73905E-03 2.17938E-23
2.83103E-03 2.02948E-23
2.92452E-03 1.89171E-23
3.01952E-03 1.76495E-23
3.11604E-03 1.64817E-23
3.21407E-03 1.54045E-23
3.31362E-03 1.44098E-23
3.41468E-03 1.34904E-23
3.51725E-03 1.26395E-23
3.62133E-03 1.18512E-23
3.72692E-03 1.11203E-23
3.83403E-03 1.04419E-23
3.94265E-03 9.81160E-24
4.05278E-03 9.22550E-24
4.16442E-03 8.68000E-24
4.27757E-03 8.17186E-24
4.39223E-03 7.69813E-24
4.50840E-03 7.25612E-24
4.62608E-03 6.84338E-24
4.74527E-03 6.45768E-24
4.86597E-03 6.09699E-24
4.98817E-03 5.75943E-24
5.11188E-03 5.44331E-24
5.23711E-03 5.14706E-24
5.36383E-03 4.86924E-24
5.49207E-03 4.60855E-24
5.62181E-03 4.36377E-24
5.75306E-03 4.13380E-24
5.88581E-03 3.91760E-24
6.02007E-03 3.71424E-24
6.15583E-03 3.52284E-24
6.29310E-03 3.34260E-24
6.43187E-03 3.17279E-24
6.57214E-03 3.01271E-24
6.71392E-03 2.86173E-24
6.85720E-03 2.71926E-24
7.00198E-03 2.58475E-24
7.14827E-03 2.45771E-24
7.29605E-03 2.33766E-24
7.44534E-03 2.22417E-24
7.59612E-03 2.11683E-24
7.97965E-03 1.87298E-24
8.37255E-03 1.66008E-24
8.77480E-03 1.47375E-24
9.18641E-03 1.31030E-24
9.60736E-03 1.16663E-24
1.00376E-02 1.04007E-24
1.04773E-02 9.28382E-25
1.09262E-02 8.29640E-25
1.13844E-02 7.42195E-25
1.18520E-02 6.64631E-25
1.23288E-02 5.95728E-25
1.28150E-02 5.34432E-25
1.33104E-02 4.79830E-25
1.38150E-02 4.31130E-25
1.43290E-02 3.87641E-25
1.48521E-02 3.48764E-25
1.53845E-02 3.13972E-25
1.59262E-02 2.82805E-25
1.64770E-02 2.54860E-25
1.70371E-02 2.29782E-25
1.76063E-02 2.07258E-25
1.81848E-02 1.87012E-25
1.87724E-02 1.68802E-25
1.93692E-02 1.52411E-25
1.99751E-02 1.37649E-25
2.05901E-02 1.24346E-25
2.12143E-02 1.12351E-25
2.18476E-02 1.01532E-25
2.24900E-02 9.17671E-26
2.31415E-02 8.29513E-26
2.38021E-02 7.49889E-26
2.44717E-02 6.77951E-26
2.51504E-02 6.12936E-26
2.58382E-02 5.54162E-26
2.65349E-02 5.01019E-26
2.72407E-02 4.52957E-26
2.79555E-02 4.09483E-26
2.86793E-02 3.70154E-26
2.94120E-02 3.34570E-26
3.01537E-02 3.02372E-26
3.09043E-02 2.73238E-26
3.16639E-02 2.46874E-26
3.24324E-02 2.23018E-26
3.32098E-02 2.01431E-26
3.39961E-02 1.81899E-26
3.47912E-02 1.64228E-26
3.55952E-02 1.48242E-26
3.64081E-02 1.33782E-26
3.72297E-02 1.20706E-26
3.80602E-02 1.08882E-26
3.88995E-02 9.81930E-27
3.97476E-02 8.85322E-27
4.06044E-02 7.98029E-27
4.14700E-02 7.19173E-27
4.23443E-02 6.47961E-27
4.32273E-02 5.83671E-27
4.41190E-02 5.25650E-27
4.50194E-02 4.73306E-27
4.59284E-02 4.26099E-27
4.68461E-02 3.83543E-27
4.87074E-02 3.10652E-27
5.06030E-02 2.51562E-27
5.25328E-02 2.03746E-27
5.44967E-02 1.65126E-27
5.64946E-02 1.33993E-27
5.85262E-02 1.08942E-27
6.05914E-02 8.88226E-28
6.26901E-02 7.26909E-28
6.48222E-02 5.97754E-28
6.69873E-02 4.94461E-28
6.91854E-02 4.11897E-28
7.14163E-02 3.45896E-28
7.36799E-02 2.93078E-28
7.59760E-02 2.50718E-28
7.83043E-02 2.16622E-28
8.06647E-02 1.89031E-28
8.30571E-02 1.66542E-28
8.54812E-02 1.48042E-28
8.79369E-02 1.32652E-28
9.04240E-02 1.19681E-28
9.29422E-02 1.08593E-28
9.54915E-02 9.89706E-29
9.80716E-02 9.04956E-29
1.00682E-01 8.29249E-29
1.03323E-01 7.60761E-29
1.05995E-01 6.98131E-29
1.08696E-01 6.40359E-29
1.11427E-01 5.86718E-29
1.14188E-01 5.36687E-29
1.16978E-01 4.89894E-29
1.19797E-01 4.46078E-29
1.22645E-01 4.05052E-29
1.25522E-01 3.66681E-29
1.28428E-01 3.30864E-29
1.31361E-01 2.97518E-29
1.34323E-01 2.66569E-29
1.37313E-01 2.37945E-29
1.40330E-01 2.11572E-29
1.43375E-01 1.87371E-29
1.46447E-01 1.65258E-29
1.49545E-01 1.45141E-29
1.52671E-01 1.26923E-29
1.55823E-01 1.10502E-29
1.59001E-01 9.57713E-30
1.62205E-01 8.26220E-30
1.65435E-01 7.09435E-30
1.68690E-01 6.06252E-30
1.71970E-01 5.15576E-30
1.75276E-01 4.36333E-30
1.78606E-01 3.67483E-30
1.81961E-01 3.08023E-30
1.85340E-01 2.56999E-30
1.88743E-01 2.13506E-30
1.92169E-01 1.76698E-30
1.95619E-01 1.45784E-30
1.99092E-01 1.20033E-30
2.02589E-01 9.87737E-31
2.06107E-01 8.13935E-31
2.09649E-01 6.73377E-31
2.13212E-01 5.61070E-31
2.16797E-01 4.72552E-31
2.20404E-01 4.03865E-31
2.24032E-01 3.51522E-31
2.27680E-01 3.12478E-31
2.31350E-01 2.84090E-31
2.35040E-01 2.64088E-31
2.38751E-01 2.50538E-31
2.42481E-01 2.41811E-31
2.46231E-01 2.36550E-31
2.50000E-01 2.33638E-31
2.53788E-01 2.32173E-31
2.57595E-01 2.31437E-31
2.61421E-01 2.30872E-31
2.65264E-01 2.30059E-31
2.69126E-01 2.28695E-31
2.73005E-01 2.26576E-31
2.76901E-01 2.23577E-31
2.80814E-01 2.19639E-31
2.84744E-01 2.14757E-31
2.88691E-01 2.08965E-31
2.92653E-01 2.02330E-31
2.96632E-01 1.94939E-31
3.00625E-01 1.86895E-31
3.04634E-01 1.78309E-31
3.08658E-01 1.69298E-31
3.12697E-01 1.59977E-31
3.16749E-01 1.50458E-31
3.20816E-01 1.40847E-31
3.24896E-01 1.31243E-31
3.28990E-01 1.21735E-31
3.33097E-01 1.12403E-31
3.37216E-01 1.03317E-31
3.41348E-01 9.45368E-32
3.45492E-01 8.61113E-32
3.49647E-01 7.80806E-32
3.53814E-01 7.04749E-32
3.57992E-01 6.33165E-32
3.62181E-01 5.66193E-32
3.66381E-01 5.03904E-32
3.70590E-01 4.46304E-32
3.74810E-01 3.93347E-32
3.79039E-01 3.44937E-32
3.83277E-01 3.00937E-32
3.87524E-01 2.61181E-32
3.91780E-01 2.25472E-32
3.96044E-01 1.93596E-32
4.00316E-01 1.65323E-32
4.04596E-01 1.40414E-32
4.08882E-01 1.18623E-32
4.13176E-01 9.97047E-33
4.17476E-01 8.34145E-33
4.21783E-01 6.95130E-33
4.26095E-01 5.77676E-33
4.30413E-01 4.79551E-33
4.34737E-01 3.98628E-33
4.39065E-01 3.32896E-33
4.43398E-01 2.80473E-33
4.47736E-01 2.39603E-33
4.52077E-01 2.08670E-33
4.56422E-01 1.86187E-33
4.60770E-01 1.70802E-33
4.65122E-01 1.61294E-33
4.69476E-01 1.56566E-33
4.73832E-01 1.55643E-33
4.78190E-01 1.57663E-33
4.82550E-01 1.61872E-33
4.86912E-01 1.67617E-33
4.91274E-01 1.74338E-33
4.95637E-01 1.81561E-33
5.00000E-01 1.88889E-33
5.04363E-01 1.95999E-33
5.08726E-01 2.02628E-33
5.13088E-01 2.08572E-33
5.17450E-01 2.13678E-33
5.21810E-01 2.17837E-33
5.26168E-01 2.20976E-33
5.30524E-01 2.23058E-33
5.34878E-01 2.24072E-33
5.39230E-01 2.24031E-33
5.43578E-01 2.22969E-33
5.47923E-01 2.20933E-33
5.52264E-01 2.17982E-33
5.56602E-01 2.14188E-33
5.60935E-01 2.09624E-33
5.65263E-01 2.04372E-33
5.69587E-01 1.98513E-33
5.73905E-01 1.92131E-33
5.78217E-01 1.85307E-33
5.82524E-01 1.78121E-33
5.86824E-01 1.70651E-33
5.91118E-01 1.62970E-33
5.95404E-01 1.55146E-33
5.99684E-01 1.47244E-33
6.03956E-01 1.39323E-33
6.08220E-01 1.31435E-33
6.12476E-01 1.23631E-33
6.16723E-01 1.15953E-33
6.20961E-01 1.08438E-33
6.25190E-01 1.01121E-33
6.29410E-01 9.40278E-34
6.33619E-01 8.71833E-34
6.37819E-01 8.06062E-34
6.42008E-01 7.43114E-34
6.46186E-01 6.83103E-34
6.50353E-01 6.26104E-34
6.54508E-01 5.72166E-34
6.58652E-01 5.21305E-34
6.62784E-01 4.73514E-34
6.66903E-01 4.28763E-34
6.71010E-01 3.87003E-34
6.75104E-01 3.48167E-34
6.79184E-01 3.12173E-34
6.83251E-01 2.78929E-34
6.87303E-01 2.48332E-34
6.91342E-01 2.20271E-34
6.95366E-01 1.94630E-34
6.99375E-01 1.71286E-34
7.03368E-01 1.50116E-34
7.07347E-01 1.30994E-34
7.11309E-01 1.13795E-34
7.15256E-01 9.83947E-35
7.19186E-01 8.46694E-35
7.23099E-01 7.24986E-35
7.26995E-01 6.17651E-35
7.30874E-01 5.23557E-35
7.34736E-01 4.41605E-35
7.38579E-01 3.70755E-35
7.42405E-01 3.10005E-35
7.46212E-01 2.58409E-35
7.50000E-01 2.15071E-35
7.53769E-01 1.79147E-35
7.57519E-01 1.49850E-35
7.61249E-01 1.26435E-35
7.64960E-01 1.08220E-35
7.68650E-01 9.45683E-36
7.72320E-01 8.48917E-36
7.75968E-01 7.86499E-36
7.79596E-01 7.53510E-36
7.83203E-01 7.45440E-36
7.86788E-01 7.58167E-36
7.90351E-01 7.88035E-36
7.93893E-01 8.31689E-36
7.97411E-01 8.86196E-36
8.00908E-01 9.48860E-36
8.04381E-01 1.01737E-35
8.07831E-01 1.08967E-35
8.11257E-01 1.16398E-35
8.14660E-01 1.23870E-35
8.18039E-01 1.31252E-35
8.21394E-01 1.38433E-35
8.24724E-01 1.45318E-35
8.28030E-01 1.51826E-35
8.31310E-01 1.57898E-35
8.34565E-01 1.63486E-35
8.37795E-01 1.68550E-35
8.40999E-01 1.73064E-35
8.44177E-01 1.77013E-35
8.47329E-01 1.80389E-35
8.50455E-01 1.83188E-35
8.53553E-01 1.85418E-35
8.56625E-01 1.87088E-35
8.59670E-01 1.88214E-35
8.62687E-01 1.88814E-35
8.65677E-01 1.88910E-35
8.68639E-01 1.88525E-35
8.71572E-01 1.87686E-35
8.74478E-01 1.86420E-35
8.77355E-01 1.84757E-35
8.80203E-01 1.82724E-35
8.83022E-01 1.80350E-35
8.85812E-01 1.77667E-35
8.88573E-01 1.74701E-35
8.91304E-01 1.71482E-35
8.94005E-01 1.68037E-35
8.96677E-01 1.64391E-35
8.99318E-01 1.60573E-35
9.01928E-01 1.56605E-35
9.04508E-01 1.52513E-35
9.07058E-01 1.48317E-35
9.09576E-01 1.44039E-35
9.12063E-01 1.39700E-35
9.14519E-01 1.35316E-35
9.16943E-01 1.30906E-35
9.19335E-01 1.26486E-35
9.21696E-01 1.22069E-35
9.24024E-01 1.17670E-35
9.26320E-01 1.13302E-35
9.28584E-01 1.08975E-35
9.30815E-01 1.04697E-35
9.33013E-01 1.00482E-35
9.35178E-01 9.63348E-36
9.37310E-01 9.22634E-36
9.39409E-01 8.82725E-36
9.41474E-01 8.43695E-36
9.43505E-01 8.05577E-36
9.45503E-01 7.68419E-36
9.47467E-01 7.32241E-36
9.49397E-01 6.97079E-36
9.51293E-01 6.62948E-36
9.53154E-01 6.29863E-36
9.54981E-01 5.97825E-36
9.56773E-01 5.66852E-36
9.58530E-01 5.36934E-36
9.60252E-01 5.08070E-36
9.61940E-01 4.80259E-36
9.63592E-01 4.53484E-36
9.65209E-01 4.27739E-36
9.66790E-01 4.03001E-36
9.68336E-01 3.79266E-36
9.69846E-01 3.56501E-36
9.71321E-01 3.34695E-36
9.72759E-01 3.13826E-36
9.74162E-01 2.93874E-36
9.75528E-01 2.74809E-36
9.76858E-01 2.56614E-36
9.78152E-01 2.39262E-36
9.79410E-01 2.22729E-36
9.80631E-01 2.06991E-36
9.81815E-01 1.92025E-36
9.82963E-01 1.77806E-36
9.84074E-01 1.64305E-36
9.85148E-01 1.51505E-36
9.86185E-01 1.39380E-36
9.87185E-01 1.27906E-36
9.88148E-01 1.17061E-36
9.89074E-01 1.06823E-36
9.89962E-01 9.71721E-37
9.90814E-01 8.80870E-37
9.91627E-01 7.95476E-37
9.92404E-01 7.15339E-37
9.93143E-01 6.40301E-37
9.93844E-01 5.70166E-37
9.94508E-01 5.04759E-37
9.95134E-01 4.43961E-37
9.95722E-01 3.87592E-37
9.96273E-01 3.35518E-37
9.96786E-01 2.87601E-37
9.97261E-01 2.43745E-37
9.97698E-01 2.03807E-37
9.98097E-01 1.67693E-37
9.98459E-01 1.35299E-37
9.98782E-01 1.06548E-37
9.99067E-01 8.13666E-38
9.99315E-01 5.96814E-38
9.99524E-01 4.14255E-38
9.99695E-01 2.65622E-38
9.99829E-01 1.50427E-38
9.99924E-01 6.84119E-39
9.99981E-01 1.92382E-39
1.00000E+00 2.92894E-40
