 #
 # Subroutine ELSEPA. Elastic scattering of electrons and positrons
 #                    by neutral atoms and positive ions
 #
 # Projectile: positron
 # Kinetic energy = 3.00000E+07 eV = 1.10248E+06 a.u.
 #
 # WARNING: High-energy factorization with free-atom DF screening.
 #          Absorption, polarization and exchange corrections are
 #          switched off.
 #          Phase shifts are calculated for the bare nucleus.
 #          Scattering amplitudes are not evaluated.
 #
 # Element: La,  Z =  57,  atomic weight = 1.38905E+02 g/mol
 #
 # Nuclear model: Fermi distribution
 #                Average radius = 5.54145E-13 cm
 #                Skin thickness = 5.46000E-14 cm
 #
 # Number of electrons = 57
 #
 # Total elastic cross section = 7.53270E-18 cm**2 = 2.68998E-01 a0**2
 # 1st transport cross section = 5.92777E-24 cm**2 = 2.11685E-07 a0**2
 # 2nd transport cross section = 1.73066E-23 cm**2 = 6.18029E-07 a0**2
 #
 #
 # Differential cross section:                       MU=(1-COS(THETA))/2
 #
 #  THETA        MU          DCS          DCS        Sherman      error
 #  (deg)                 (cm**2/sr)   (a0**2/sr)    function
 #----------------------------------------------------------------------
0.00000E+00 1.09566E-10
7.61557E-13 1.09512E-10
1.18994E-12 1.09482E-10
1.71346E-12 1.09446E-10
2.33225E-12 1.09403E-10
3.04617E-12 1.09353E-10
3.85530E-12 1.09297E-10
4.75964E-12 1.09234E-10
5.75917E-12 1.09165E-10
6.85391E-12 1.09089E-10
8.04379E-12 1.09006E-10
9.32893E-12 1.08917E-10
1.07092E-11 1.08822E-10
1.21847E-11 1.08720E-10
1.37554E-11 1.08612E-10
1.54213E-11 1.08498E-10
1.71823E-11 1.08377E-10
1.90386E-11 1.08250E-10
2.09900E-11 1.08117E-10
2.30367E-11 1.07977E-10
2.51785E-11 1.07831E-10
2.74156E-11 1.07680E-10
2.97478E-11 1.07522E-10
3.21752E-11 1.07358E-10
3.46979E-11 1.07188E-10
3.73157E-11 1.07012E-10
4.00286E-11 1.06830E-10
4.28368E-11 1.06642E-10
4.57402E-11 1.06449E-10
4.87388E-11 1.06249E-10
5.18325E-11 1.06044E-10
5.50215E-11 1.05834E-10
5.83057E-11 1.05618E-10
6.16850E-11 1.05396E-10
6.51595E-11 1.05169E-10
6.87293E-11 1.04936E-10
7.23943E-11 1.04698E-10
7.61544E-11 1.04455E-10
1.18991E-10 1.01747E-10
1.71347E-10 9.85876E-11
2.33223E-10 9.50541E-11
3.04617E-10 9.12445E-11
3.85531E-10 8.71848E-11
4.75965E-10 8.30285E-11
5.75917E-10 7.87710E-11
6.85389E-10 7.45360E-11
8.04380E-10 7.03369E-11
9.32891E-10 6.62385E-11
1.07092E-09 6.22814E-11
1.21847E-09 5.84651E-11
1.37554E-09 5.48609E-11
1.54213E-09 5.14095E-11
1.71823E-09 4.82062E-11
1.90386E-09 4.51681E-11
2.09900E-09 4.23522E-11
2.30367E-09 3.97162E-11
2.51785E-09 3.72697E-11
2.74156E-09 3.50028E-11
2.97478E-09 3.28927E-11
3.21752E-09 3.09517E-11
3.46978E-09 2.91391E-11
3.73156E-09 2.74776E-11
4.00286E-09 2.59271E-11
4.28368E-09 2.44969E-11
4.57402E-09 2.31666E-11
4.87388E-09 2.19328E-11
5.18326E-09 2.07862E-11
5.50215E-09 1.97182E-11
5.83057E-09 1.87244E-11
6.16850E-09 1.77960E-11
6.51596E-09 1.69292E-11
6.87293E-09 1.61179E-11
7.23942E-09 1.53576E-11
7.61544E-09 1.46442E-11
1.18991E-08 9.41061E-12
1.71347E-08 6.31597E-12
2.33223E-08 4.37764E-12
3.04617E-08 3.09389E-12
3.85531E-08 2.28977E-12
4.75965E-08 1.71129E-12
5.75917E-08 1.32007E-12
6.85389E-08 1.03045E-12
8.04380E-08 8.19366E-13
9.32891E-08 6.58767E-13
1.07092E-07 5.34773E-13
1.21847E-07 4.38977E-13
1.37554E-07 3.61964E-13
1.54213E-07 3.01920E-13
1.71823E-07 2.52465E-13
1.90386E-07 2.13241E-13
2.09900E-07 1.80977E-13
2.30367E-07 1.54759E-13
2.51785E-07 1.33122E-13
2.74156E-07 1.15200E-13
2.97478E-07 1.00304E-13
3.21752E-07 8.77618E-14
3.46978E-07 7.72386E-14
3.73156E-07 6.82479E-14
4.00286E-07 6.06108E-14
4.28368E-07 5.40286E-14
4.57402E-07 4.83558E-14
4.87388E-07 4.34284E-14
5.18325E-07 3.91234E-14
5.50215E-07 3.53612E-14
5.83057E-07 3.20370E-14
6.16850E-07 2.91181E-14
6.51596E-07 2.64945E-14
6.87293E-07 2.41742E-14
7.23942E-07 2.20941E-14
7.61543E-07 2.02367E-14
1.18991E-06 9.16087E-15
1.71347E-06 4.67513E-15
2.33223E-06 2.62290E-15
3.04617E-06 1.58432E-15
3.85531E-06 1.01427E-15
4.75964E-06 6.80040E-16
5.75916E-06 4.72840E-16
6.85388E-06 3.38905E-16
8.04378E-06 2.49175E-16
9.32888E-06 1.87164E-16
1.07092E-05 1.43272E-16
1.21846E-05 1.11479E-16
1.37553E-05 8.80120E-17
1.54212E-05 7.03970E-17
1.71822E-05 5.69609E-17
1.90385E-05 4.65638E-17
2.09899E-05 3.84585E-17
2.30365E-05 3.20365E-17
2.51783E-05 2.68954E-17
2.74153E-05 2.27398E-17
2.97475E-05 1.93548E-17
3.21749E-05 1.65765E-17
3.46974E-05 1.42801E-17
3.73152E-05 1.23694E-17
4.00281E-05 1.07686E-17
4.28362E-05 9.41920E-18
4.57395E-05 8.27471E-18
4.87380E-05 7.29852E-18
5.18317E-05 6.46184E-18
5.50205E-05 5.74138E-18
5.83045E-05 5.11848E-18
6.16838E-05 4.57787E-18
6.51582E-05 4.10687E-18
6.87277E-05 3.69505E-18
7.23925E-05 3.33366E-18
7.61524E-05 3.01547E-18
9.21439E-05 2.06602E-18
1.09658E-04 1.46229E-18
1.28695E-04 1.06379E-18
1.49255E-04 7.92069E-19
1.71338E-04 6.01779E-19
1.94942E-04 4.65275E-19
2.20070E-04 3.65329E-19
2.46720E-04 2.90804E-19
2.74892E-04 2.34320E-19
3.04586E-04 1.90892E-19
3.35803E-04 1.57058E-19
3.68542E-04 1.30388E-19
4.02802E-04 1.09137E-19
4.38585E-04 9.20372E-20
4.75889E-04 7.81540E-20
5.14715E-04 6.67877E-20
5.55063E-04 5.74112E-20
5.96931E-04 4.96209E-20
6.40321E-04 4.31058E-20
6.85233E-04 3.76238E-20
7.31665E-04 3.29845E-20
7.79618E-04 2.90373E-20
8.29092E-04 2.56620E-20
8.80086E-04 2.27623E-20
9.32601E-04 2.02599E-20
9.86636E-04 1.80914E-20
1.04219E-03 1.62047E-20
1.09927E-03 1.45572E-20
1.15786E-03 1.31133E-20
1.21797E-03 1.18437E-20
1.27961E-03 1.07236E-20
1.34276E-03 9.73262E-21
1.40743E-03 8.85319E-21
1.47362E-03 8.07063E-21
1.54133E-03 7.37242E-21
1.61056E-03 6.74790E-21
1.68131E-03 6.18795E-21
1.75357E-03 5.68473E-21
1.82735E-03 5.23150E-21
1.90265E-03 4.82242E-21
1.97947E-03 4.45243E-21
2.05780E-03 4.11714E-21
2.13765E-03 3.81273E-21
2.21902E-03 3.53585E-21
2.30190E-03 3.28358E-21
2.38630E-03 3.05334E-21
2.47222E-03 2.84285E-21
2.55965E-03 2.65014E-21
2.64859E-03 2.47342E-21
2.73905E-03 2.31114E-21
2.83103E-03 2.16191E-21
2.92452E-03 2.02448E-21
3.01952E-03 1.89777E-21
3.11604E-03 1.78077E-21
3.21407E-03 1.67262E-21
3.31362E-03 1.57253E-21
3.41468E-03 1.47978E-21
3.51725E-03 1.39374E-21
3.62133E-03 1.31384E-21
3.72692E-03 1.23956E-21
3.83403E-03 1.17044E-21
3.94265E-03 1.10604E-21
4.05278E-03 1.04600E-21
4.16442E-03 9.89959E-22
4.27757E-03 9.37604E-22
4.39223E-03 8.88647E-22
4.50840E-03 8.42830E-22
4.62608E-03 7.99916E-22
4.74527E-03 7.59686E-22
4.86597E-03 7.21942E-22
4.98817E-03 6.86501E-22
5.11188E-03 6.53197E-22
5.23711E-03 6.21878E-22
5.36383E-03 5.92405E-22
5.49207E-03 5.64650E-22
5.62181E-03 5.38493E-22
5.75306E-03 5.13824E-22
5.88581E-03 4.90545E-22
6.02007E-03 4.68562E-22
6.15583E-03 4.47790E-22
6.29310E-03 4.28151E-22
6.43187E-03 4.09571E-22
6.57214E-03 3.91982E-22
6.71392E-03 3.75321E-22
6.85720E-03 3.59532E-22
7.00198E-03 3.44559E-22
7.14827E-03 3.30354E-22
7.29605E-03 3.16869E-22
7.44534E-03 3.04060E-22
7.59612E-03 2.91888E-22
7.97965E-03 2.64005E-22
8.37255E-03 2.39354E-22
8.77480E-03 2.17498E-22
9.18641E-03 1.98065E-22
9.60736E-03 1.80741E-22
1.00376E-02 1.65259E-22
1.04773E-02 1.51388E-22
1.09262E-02 1.38934E-22
1.13844E-02 1.27724E-22
1.18520E-02 1.17615E-22
1.23288E-02 1.08480E-22
1.28150E-02 1.00208E-22
1.33104E-02 9.27034E-23
1.38150E-02 8.58832E-23
1.43290E-02 7.96738E-23
1.48521E-02 7.40111E-23
1.53845E-02 6.88385E-23
1.59262E-02 6.41062E-23
1.64770E-02 5.97703E-23
1.70371E-02 5.57915E-23
1.76063E-02 5.21355E-23
1.81848E-02 4.87713E-23
1.87724E-02 4.56717E-23
1.93692E-02 4.28121E-23
1.99751E-02 4.01708E-23
2.05901E-02 3.77280E-23
2.12143E-02 3.54663E-23
2.18476E-02 3.33699E-23
2.24900E-02 3.14245E-23
2.31415E-02 2.96173E-23
2.38021E-02 2.79368E-23
2.44717E-02 2.63725E-23
2.51504E-02 2.49148E-23
2.58382E-02 2.35554E-23
2.65349E-02 2.22864E-23
2.72407E-02 2.11007E-23
2.79555E-02 1.99918E-23
2.86793E-02 1.89540E-23
2.94120E-02 1.79819E-23
3.01537E-02 1.70705E-23
3.09043E-02 1.62154E-23
3.16639E-02 1.54125E-23
3.24324E-02 1.46580E-23
3.32098E-02 1.39486E-23
3.39961E-02 1.32810E-23
3.47912E-02 1.26523E-23
3.55952E-02 1.20598E-23
3.64081E-02 1.15012E-23
3.72297E-02 1.09740E-23
3.80602E-02 1.04763E-23
3.88995E-02 1.00061E-23
3.97476E-02 9.56161E-24
4.06044E-02 9.14114E-24
4.14700E-02 8.74318E-24
4.23443E-02 8.36631E-24
4.32273E-02 8.00922E-24
4.41190E-02 7.67068E-24
4.50194E-02 7.34955E-24
4.59284E-02 7.04478E-24
4.68461E-02 6.75539E-24
4.87074E-02 6.21915E-24
5.06030E-02 5.73422E-24
5.25328E-02 5.29488E-24
5.44967E-02 4.89612E-24
5.64946E-02 4.53355E-24
5.85262E-02 4.20334E-24
6.05914E-02 3.90211E-24
6.26901E-02 3.62689E-24
6.48222E-02 3.37505E-24
6.69873E-02 3.14428E-24
6.91854E-02 2.93251E-24
7.14163E-02 2.73791E-24
7.36799E-02 2.55885E-24
7.59760E-02 2.39388E-24
7.83043E-02 2.24172E-24
8.06647E-02 2.10118E-24
8.30571E-02 1.97124E-24
8.54812E-02 1.85096E-24
8.79369E-02 1.73950E-24
9.04240E-02 1.63611E-24
9.29422E-02 1.54010E-24
9.54915E-02 1.45085E-24
9.80716E-02 1.36781E-24
1.00682E-01 1.29048E-24
1.03323E-01 1.21839E-24
1.05995E-01 1.15113E-24
1.08696E-01 1.08832E-24
1.11427E-01 1.02962E-24
1.14188E-01 9.74711E-25
1.16978E-01 9.23309E-25
1.19797E-01 8.75151E-25
1.22645E-01 8.30000E-25
1.25522E-01 7.87634E-25
1.28428E-01 7.47854E-25
1.31361E-01 7.10475E-25
1.34323E-01 6.75328E-25
1.37313E-01 6.42257E-25
1.40330E-01 6.11119E-25
1.43375E-01 5.81782E-25
1.46447E-01 5.54124E-25
1.49545E-01 5.28034E-25
1.52671E-01 5.03407E-25
1.55823E-01 4.80147E-25
1.59001E-01 4.58167E-25
1.62205E-01 4.37384E-25
1.65435E-01 4.17722E-25
1.68690E-01 3.99110E-25
1.71970E-01 3.81484E-25
1.75276E-01 3.64781E-25
1.78606E-01 3.48946E-25
1.81961E-01 3.33927E-25
1.85340E-01 3.19674E-25
1.88743E-01 3.06141E-25
1.92169E-01 2.93287E-25
1.95619E-01 2.81071E-25
1.99092E-01 2.69457E-25
2.02589E-01 2.58410E-25
2.06107E-01 2.47898E-25
2.09649E-01 2.37891E-25
2.13212E-01 2.28361E-25
2.16797E-01 2.19281E-25
2.20404E-01 2.10626E-25
2.24032E-01 2.02374E-25
2.27680E-01 1.94502E-25
2.31350E-01 1.86990E-25
2.35040E-01 1.79819E-25
2.38751E-01 1.72971E-25
2.42481E-01 1.66429E-25
2.46231E-01 1.60178E-25
2.50000E-01 1.54201E-25
2.53788E-01 1.48486E-25
2.57595E-01 1.43019E-25
2.61421E-01 1.37788E-25
2.65264E-01 1.32780E-25
2.69126E-01 1.27984E-25
2.73005E-01 1.23391E-25
2.76901E-01 1.18990E-25
2.80814E-01 1.14772E-25
2.84744E-01 1.10728E-25
2.88691E-01 1.06850E-25
2.92653E-01 1.03130E-25
2.96632E-01 9.95598E-26
3.00625E-01 9.61335E-26
3.04634E-01 9.28440E-26
3.08658E-01 8.96849E-26
3.12697E-01 8.66503E-26
3.16749E-01 8.37345E-26
3.20816E-01 8.09321E-26
3.24896E-01 7.82380E-26
3.28990E-01 7.56475E-26
3.33097E-01 7.31558E-26
3.37216E-01 7.07587E-26
3.41348E-01 6.84519E-26
3.45492E-01 6.62317E-26
3.49647E-01 6.40941E-26
3.53814E-01 6.20358E-26
3.57992E-01 6.00532E-26
3.62181E-01 5.81432E-26
3.66381E-01 5.63027E-26
3.70590E-01 5.45288E-26
3.74810E-01 5.28188E-26
3.79039E-01 5.11699E-26
3.83277E-01 4.95797E-26
3.87524E-01 4.80457E-26
3.91780E-01 4.65657E-26
3.96044E-01 4.51375E-26
4.00316E-01 4.37591E-26
4.04596E-01 4.24283E-26
4.08882E-01 4.11434E-26
4.13176E-01 3.99024E-26
4.17476E-01 3.87038E-26
4.21783E-01 3.75458E-26
4.26095E-01 3.64268E-26
4.30413E-01 3.53454E-26
4.34737E-01 3.43001E-26
4.39065E-01 3.32894E-26
4.43398E-01 3.23122E-26
4.47736E-01 3.13671E-26
4.52077E-01 3.04530E-26
4.56422E-01 2.95686E-26
4.60770E-01 2.87128E-26
4.65122E-01 2.78847E-26
4.69476E-01 2.70831E-26
4.73832E-01 2.63071E-26
4.78190E-01 2.55558E-26
4.82550E-01 2.48283E-26
4.86912E-01 2.41237E-26
4.91274E-01 2.34412E-26
4.95637E-01 2.27800E-26
5.00000E-01 2.21393E-26
5.04363E-01 2.15185E-26
5.08726E-01 2.09167E-26
5.13088E-01 2.03335E-26
5.17450E-01 1.97680E-26
5.21810E-01 1.92197E-26
5.26168E-01 1.86880E-26
5.30524E-01 1.81723E-26
5.34878E-01 1.76721E-26
5.39230E-01 1.71869E-26
5.43578E-01 1.67161E-26
5.47923E-01 1.62592E-26
5.52264E-01 1.58159E-26
5.56602E-01 1.53855E-26
5.60935E-01 1.49678E-26
5.65263E-01 1.45622E-26
5.69587E-01 1.41685E-26
5.73905E-01 1.37861E-26
5.78217E-01 1.34147E-26
5.82524E-01 1.30540E-26
5.86824E-01 1.27036E-26
5.91118E-01 1.23632E-26
5.95404E-01 1.20325E-26
5.99684E-01 1.17111E-26
6.03956E-01 1.13987E-26
6.08220E-01 1.10952E-26
6.12476E-01 1.08001E-26
6.16723E-01 1.05132E-26
6.20961E-01 1.02343E-26
6.25190E-01 9.96316E-27
6.29410E-01 9.69946E-27
6.33619E-01 9.44301E-27
6.37819E-01 9.19357E-27
6.42008E-01 8.95094E-27
6.46186E-01 8.71492E-27
6.50353E-01 8.48528E-27
6.54508E-01 8.26186E-27
6.58652E-01 8.04444E-27
6.62784E-01 7.83287E-27
6.66903E-01 7.62695E-27
6.71010E-01 7.42652E-27
6.75104E-01 7.23143E-27
6.79184E-01 7.04150E-27
6.83251E-01 6.85659E-27
6.87303E-01 6.67655E-27
6.91342E-01 6.50124E-27
6.95366E-01 6.33052E-27
6.99375E-01 6.16426E-27
7.03368E-01 6.00232E-27
7.07347E-01 5.84459E-27
7.11309E-01 5.69094E-27
7.15256E-01 5.54126E-27
7.19186E-01 5.39543E-27
7.23099E-01 5.25334E-27
7.26995E-01 5.11489E-27
7.30874E-01 4.97997E-27
7.34736E-01 4.84849E-27
7.38579E-01 4.72036E-27
7.42405E-01 4.59546E-27
7.46212E-01 4.47373E-27
7.50000E-01 4.35506E-27
7.53769E-01 4.23938E-27
7.57519E-01 4.12661E-27
7.61249E-01 4.01665E-27
7.64960E-01 3.90945E-27
7.68650E-01 3.80491E-27
7.72320E-01 3.70298E-27
7.75968E-01 3.60358E-27
7.79596E-01 3.50664E-27
7.83203E-01 3.41209E-27
7.86788E-01 3.31988E-27
7.90351E-01 3.22994E-27
7.93893E-01 3.14222E-27
7.97411E-01 3.05664E-27
8.00908E-01 2.97316E-27
8.04381E-01 2.89172E-27
8.07831E-01 2.81227E-27
8.11257E-01 2.73476E-27
8.14660E-01 2.65914E-27
8.18039E-01 2.58535E-27
8.21394E-01 2.51336E-27
8.24724E-01 2.44311E-27
8.28030E-01 2.37456E-27
8.31310E-01 2.30767E-27
8.34565E-01 2.24240E-27
8.37795E-01 2.17871E-27
8.40999E-01 2.11655E-27
8.44177E-01 2.05589E-27
8.47329E-01 1.99669E-27
8.50455E-01 1.93892E-27
8.53553E-01 1.88254E-27
8.56625E-01 1.82751E-27
8.59670E-01 1.77381E-27
8.62687E-01 1.72140E-27
8.65677E-01 1.67025E-27
8.68639E-01 1.62032E-27
8.71572E-01 1.57160E-27
8.74478E-01 1.52406E-27
8.77355E-01 1.47765E-27
8.80203E-01 1.43237E-27
8.83022E-01 1.38817E-27
8.85812E-01 1.34504E-27
8.88573E-01 1.30295E-27
8.91304E-01 1.26188E-27
8.94005E-01 1.22180E-27
8.96677E-01 1.18270E-27
8.99318E-01 1.14454E-27
9.01928E-01 1.10731E-27
9.04508E-01 1.07098E-27
9.07058E-01 1.03555E-27
9.09576E-01 1.00098E-27
9.12063E-01 9.67257E-28
9.14519E-01 9.34365E-28
9.16943E-01 9.02284E-28
9.19335E-01 8.70997E-28
9.21696E-01 8.40488E-28
9.24024E-01 8.10738E-28
9.26320E-01 7.81733E-28
9.28584E-01 7.53457E-28
9.30815E-01 7.25894E-28
9.33013E-01 6.99030E-28
9.35178E-01 6.72851E-28
9.37310E-01 6.47343E-28
9.39409E-01 6.22492E-28
9.41474E-01 5.98285E-28
9.43505E-01 5.74710E-28
9.45503E-01 5.51754E-28
9.47467E-01 5.29405E-28
9.49397E-01 5.07652E-28
9.51293E-01 4.86484E-28
9.53154E-01 4.65888E-28
9.54981E-01 4.45856E-28
9.56773E-01 4.26377E-28
9.58530E-01 4.07440E-28
9.60252E-01 3.89035E-28
9.61940E-01 3.71155E-28
9.63592E-01 3.53789E-28
9.65209E-01 3.36929E-28
9.66790E-01 3.20566E-28
9.68336E-01 3.04692E-28
9.69846E-01 2.89299E-28
9.71321E-01 2.74379E-28
9.72759E-01 2.59926E-28
9.74162E-01 2.45930E-28
9.75528E-01 2.32387E-28
9.76858E-01 2.19288E-28
9.78152E-01 2.06628E-28
9.79410E-01 1.94400E-28
9.80631E-01 1.82599E-28
9.81815E-01 1.71218E-28
9.82963E-01 1.60251E-28
9.84074E-01 1.49694E-28
9.85148E-01 1.39541E-28
9.86185E-01 1.29788E-28
9.87185E-01 1.20428E-28
9.88148E-01 1.11459E-28
9.89074E-01 1.02876E-28
9.89962E-01 9.46739E-29
9.90814E-01 8.68493E-29
9.91627E-01 7.93984E-29
9.92404E-01 7.23176E-29
9.93143E-01 6.56034E-29
9.93844E-01 5.92526E-29
9.94508E-01 5.32622E-29
9.95134E-01 4.76293E-29
9.95722E-01 4.23512E-29
9.96273E-01 3.74253E-29
9.96786E-01 3.28493E-29
9.97261E-01 2.86209E-29
9.97698E-01 2.47383E-29
9.98097E-01 2.11994E-29
9.98459E-01 1.80026E-29
9.98782E-01 1.51464E-29
9.99067E-01 1.26295E-29
9.99315E-01 1.04505E-29
9.99524E-01 8.60857E-30
9.99695E-01 7.10270E-30
9.99829E-01 5.93221E-30
9.99924E-01 5.09654E-30
9.99981E-01 4.59530E-30
1.00000E+00 4.42824E-30
