 #
 # Subroutine ELSEPA. Elastic scattering of electrons and positrons
 #                    by neutral atoms and positive ions
 #
 # Projectile: positron
 # Kinetic energy = 1.50000E+08 eV = 5.51240E+06 a.u.
 #
 # WARNING: High-energy factorization with free-atom DF screening.
 #          Absorption, polarization and exchange corrections are
 #          switched off.
 #          Phase shifts are calculated for the bare nucleus.
 #          Scattering amplitudes are not evaluated.
 #
 # Element: La,  Z =  57,  atomic weight = 1.38905E+02 g/mol
 #
 # Nuclear model: Fermi distribution
 #                Average radius = 5.54145E-13 cm
 #                Skin thickness = 5.46000E-14 cm
 #
 # Number of electrons = 57
 #
 # Total elastic cross section = 7.53171E-18 cm**2 = 2.68962E-01 a0**2
 # 1st transport cross section = 2.74510E-25 cm**2 = 9.80294E-09 a0**2
 # 2nd transport cross section = 8.19946E-25 cm**2 = 2.92808E-08 a0**2
 #
 #
 # Differential cross section:                       MU=(1-COS(THETA))/2
 #
 #  THETA        MU          DCS          DCS        Sherman      error
 #  (deg)                 (cm**2/sr)   (a0**2/sr)    function
 #----------------------------------------------------------------------
0.00000E+00 2.66624E-09
7.61557E-13 2.63506E-09
1.18994E-12 2.61779E-09
1.71346E-12 2.59694E-09
2.33225E-12 2.57263E-09
3.04617E-12 2.54503E-09
3.85530E-12 2.51433E-09
4.75964E-12 2.48071E-09
5.75917E-12 2.44439E-09
6.85391E-12 2.40558E-09
8.04379E-12 2.36452E-09
9.32893E-12 2.32144E-09
1.07092E-11 2.27674E-09
1.21847E-11 2.23057E-09
1.37554E-11 2.18281E-09
1.54213E-11 2.13369E-09
1.71823E-11 2.08426E-09
1.90386E-11 2.03411E-09
2.09900E-11 1.98319E-09
2.30367E-11 1.93182E-09
2.51785E-11 1.88120E-09
2.74156E-11 1.83029E-09
2.97478E-11 1.77926E-09
3.21752E-11 1.72894E-09
3.46979E-11 1.67952E-09
3.73157E-11 1.63034E-09
4.00286E-11 1.58152E-09
4.28368E-11 1.53439E-09
4.57402E-11 1.48802E-09
4.87388E-11 1.44225E-09
5.18325E-11 1.39741E-09
5.50215E-11 1.35444E-09
5.83057E-11 1.31222E-09
6.16850E-11 1.27078E-09
6.51595E-11 1.23089E-09
6.87293E-11 1.19243E-09
7.23943E-11 1.15482E-09
7.61544E-11 1.11807E-09
1.18991E-10 8.17140E-10
1.71347E-10 6.09723E-10
2.33223E-10 4.66688E-10
3.04617E-10 3.65469E-10
3.85531E-10 2.91352E-10
4.75965E-10 2.35455E-10
5.75917E-10 1.92330E-10
6.85389E-10 1.58484E-10
8.04380E-10 1.31596E-10
9.32891E-10 1.10082E-10
1.07092E-09 9.23702E-11
1.21847E-09 7.79616E-11
1.37554E-09 6.66433E-11
1.54213E-09 5.76378E-11
1.71823E-09 4.97440E-11
1.90386E-09 4.31926E-11
2.09900E-09 3.78480E-11
2.30367E-09 3.33946E-11
2.51785E-09 2.93812E-11
2.74156E-09 2.60382E-11
2.97478E-09 2.32319E-11
3.21752E-09 2.07546E-11
3.46978E-09 1.85493E-11
3.73156E-09 1.66695E-11
4.00286E-09 1.50575E-11
4.28368E-09 1.35660E-11
4.57402E-09 1.22594E-11
4.87388E-09 1.11261E-11
5.18326E-09 1.01248E-11
5.50215E-09 9.19560E-12
5.83057E-09 8.38158E-12
6.16850E-09 7.66558E-12
6.51596E-09 7.01363E-12
6.87293E-09 6.42135E-12
7.23942E-09 5.89610E-12
7.61544E-09 5.42874E-12
1.18991E-08 2.55443E-12
1.71347E-08 1.37606E-12
2.33223E-08 8.16306E-13
3.04617E-08 5.16211E-13
3.85531E-08 3.41558E-13
4.75965E-08 2.34144E-13
5.75917E-08 1.65232E-13
6.85389E-08 1.19677E-13
8.04380E-08 8.87442E-14
9.32891E-08 6.71821E-14
1.07092E-07 5.17780E-14
1.21847E-07 4.05994E-14
1.37554E-07 3.22742E-14
1.54213E-07 2.59964E-14
1.71823E-07 2.11847E-14
1.90386E-07 1.74317E-14
2.09900E-07 1.44786E-14
2.30367E-07 1.21282E-14
2.51785E-07 1.02333E-14
2.74156E-07 8.69453E-15
2.97478E-07 7.43525E-15
3.21752E-07 6.39456E-15
3.46978E-07 5.52906E-15
3.73156E-07 4.80539E-15
4.00286E-07 4.19579E-15
4.28368E-07 3.67921E-15
4.57402E-07 3.23982E-15
4.87388E-07 2.86395E-15
5.18325E-07 2.54056E-15
5.50215E-07 2.26160E-15
5.83057E-07 2.01989E-15
6.16850E-07 1.80931E-15
6.51596E-07 1.62550E-15
6.87293E-07 1.46446E-15
7.23942E-07 1.32275E-15
7.61543E-07 1.19776E-15
1.18991E-06 4.98111E-16
1.71347E-06 2.42643E-16
2.33223E-06 1.31951E-16
3.04617E-06 7.77931E-17
3.85531E-06 4.87856E-17
4.75964E-06 3.21227E-17
5.75916E-06 2.20025E-17
6.85388E-06 1.55704E-17
8.04378E-06 1.13250E-17
9.32888E-06 8.43202E-18
1.07092E-05 6.40601E-18
1.21846E-05 4.95321E-18
1.37553E-05 3.88960E-18
1.54212E-05 3.09658E-18
1.71822E-05 2.49562E-18
1.90385E-05 2.03285E-18
2.09899E-05 1.67369E-18
2.30365E-05 1.39026E-18
2.51783E-05 1.16412E-18
2.74153E-05 9.81935E-19
2.97475E-05 8.33927E-19
3.21749E-05 7.12759E-19
3.46974E-05 6.12846E-19
3.73152E-05 5.29886E-19
4.00281E-05 4.60533E-19
4.28362E-05 4.02176E-19
4.57395E-05 3.52769E-19
4.87380E-05 3.10703E-19
5.18317E-05 2.74704E-19
5.50205E-05 2.43756E-19
5.83045E-05 2.17038E-19
6.16838E-05 1.93882E-19
6.51582E-05 1.73736E-19
6.87277E-05 1.56144E-19
7.23925E-05 1.40725E-19
7.61524E-05 1.27269E-19
9.21439E-05 8.68989E-20
1.09658E-04 6.13304E-20
1.28695E-04 4.45111E-20
1.49255E-04 3.30765E-20
1.71338E-04 2.50886E-20
1.94942E-04 1.93707E-20
2.20070E-04 1.51919E-20
2.46720E-04 1.20809E-20
2.74892E-04 9.72616E-21
3.04586E-04 7.91782E-21
3.35803E-04 6.51038E-21
3.68542E-04 5.40193E-21
4.02802E-04 4.51936E-21
4.38585E-04 3.80966E-21
4.75889E-04 3.23378E-21
5.14715E-04 2.76252E-21
5.55063E-04 2.37394E-21
5.96931E-04 2.05122E-21
6.40321E-04 1.78141E-21
6.85233E-04 1.55445E-21
7.31665E-04 1.36243E-21
7.79618E-04 1.19910E-21
8.29092E-04 1.05946E-21
8.80086E-04 9.39516E-22
9.32601E-04 8.36026E-22
9.86636E-04 7.46358E-22
1.04219E-03 6.68349E-22
1.09927E-03 6.00234E-22
1.15786E-03 5.40547E-22
1.21797E-03 4.88069E-22
1.27961E-03 4.41781E-22
1.34276E-03 4.00828E-22
1.40743E-03 3.64490E-22
1.47362E-03 3.32158E-22
1.54133E-03 3.03315E-22
1.61056E-03 2.77518E-22
1.68131E-03 2.54391E-22
1.75357E-03 2.33610E-22
1.82735E-03 2.14894E-22
1.90265E-03 1.98004E-22
1.97947E-03 1.82729E-22
2.05780E-03 1.68889E-22
2.13765E-03 1.56325E-22
2.21902E-03 1.44899E-22
2.30190E-03 1.34490E-22
2.38630E-03 1.24991E-22
2.47222E-03 1.16308E-22
2.55965E-03 1.08360E-22
2.64859E-03 1.01073E-22
2.73905E-03 9.43823E-23
2.83103E-03 8.82306E-23
2.92452E-03 8.25668E-23
3.01952E-03 7.73454E-23
3.11604E-03 7.25256E-23
3.21407E-03 6.80711E-23
3.31362E-03 6.39493E-23
3.41468E-03 6.01309E-23
3.51725E-03 5.65897E-23
3.62133E-03 5.33020E-23
3.72692E-03 5.02463E-23
3.83403E-03 4.74035E-23
3.94265E-03 4.47560E-23
4.05278E-03 4.22880E-23
4.16442E-03 3.99852E-23
4.27757E-03 3.78346E-23
4.39223E-03 3.58243E-23
4.50840E-03 3.39436E-23
4.62608E-03 3.21826E-23
4.74527E-03 3.05323E-23
4.86597E-03 2.89846E-23
4.98817E-03 2.75319E-23
5.11188E-03 2.61674E-23
5.23711E-03 2.48847E-23
5.36383E-03 2.36781E-23
5.49207E-03 2.25423E-23
5.62181E-03 2.14724E-23
5.75306E-03 2.04638E-23
5.88581E-03 1.95125E-23
6.02007E-03 1.86146E-23
6.15583E-03 1.77666E-23
6.29310E-03 1.69652E-23
6.43187E-03 1.62074E-23
6.57214E-03 1.54904E-23
6.71392E-03 1.48116E-23
6.85720E-03 1.41687E-23
7.00198E-03 1.35594E-23
7.14827E-03 1.29816E-23
7.29605E-03 1.24335E-23
7.44534E-03 1.19132E-23
7.59612E-03 1.14190E-23
7.97965E-03 1.02883E-23
8.37255E-03 9.29026E-24
8.77480E-03 8.40691E-24
9.18641E-03 7.62295E-24
9.60736E-03 6.92541E-24
1.00376E-02 6.30325E-24
1.04773E-02 5.74702E-24
1.09262E-02 5.24863E-24
1.13844E-02 4.80112E-24
1.18520E-02 4.39846E-24
1.23288E-02 4.03546E-24
1.28150E-02 3.70760E-24
1.33104E-02 3.41093E-24
1.38150E-02 3.14204E-24
1.43290E-02 2.89791E-24
1.48521E-02 2.67591E-24
1.53845E-02 2.47373E-24
1.59262E-02 2.28932E-24
1.64770E-02 2.12088E-24
1.70371E-02 1.96683E-24
1.76063E-02 1.82574E-24
1.81848E-02 1.69636E-24
1.87724E-02 1.57757E-24
1.93692E-02 1.46837E-24
1.99751E-02 1.36788E-24
2.05901E-02 1.27530E-24
2.12143E-02 1.18992E-24
2.18476E-02 1.11108E-24
2.24900E-02 1.03823E-24
2.31415E-02 9.70838E-25
2.38021E-02 9.08437E-25
2.44717E-02 8.50606E-25
2.51504E-02 7.96963E-25
2.58382E-02 7.47162E-25
2.65349E-02 7.00890E-25
2.72407E-02 6.57862E-25
2.79555E-02 6.17820E-25
2.86793E-02 5.80528E-25
2.94120E-02 5.45773E-25
3.01537E-02 5.13357E-25
3.09043E-02 4.83104E-25
3.16639E-02 4.54850E-25
3.24324E-02 4.28446E-25
3.32098E-02 4.03755E-25
3.39961E-02 3.80651E-25
3.47912E-02 3.59021E-25
3.55952E-02 3.38757E-25
3.64081E-02 3.19763E-25
3.72297E-02 3.01950E-25
3.80602E-02 2.85235E-25
3.88995E-02 2.69543E-25
3.97476E-02 2.54803E-25
4.06044E-02 2.40951E-25
4.14700E-02 2.27927E-25
4.23443E-02 2.15676E-25
4.32273E-02 2.04147E-25
4.41190E-02 1.93293E-25
4.50194E-02 1.83069E-25
4.59284E-02 1.73435E-25
4.68461E-02 1.64354E-25
4.87074E-02 1.47710E-25
5.06030E-02 1.32885E-25
5.25328E-02 1.19663E-25
5.44967E-02 1.07853E-25
5.64946E-02 9.72901E-26
5.85262E-02 8.78319E-26
6.05914E-02 7.93526E-26
6.26901E-02 7.17425E-26
6.48222E-02 6.49053E-26
6.69873E-02 5.87563E-26
6.91854E-02 5.32210E-26
7.14163E-02 4.82337E-26
7.36799E-02 4.37362E-26
7.59760E-02 3.96773E-26
7.83043E-02 3.60113E-26
8.06647E-02 3.26978E-26
8.30571E-02 2.97008E-26
8.54812E-02 2.69884E-26
8.79369E-02 2.45321E-26
9.04240E-02 2.23063E-26
9.29422E-02 2.02884E-26
9.54915E-02 1.84579E-26
9.80716E-02 1.67968E-26
1.00682E-01 1.52885E-26
1.03323E-01 1.39186E-26
1.05995E-01 1.26737E-26
1.08696E-01 1.15421E-26
1.11427E-01 1.05131E-26
1.14188E-01 9.57715E-27
1.16978E-01 8.72549E-27
1.19797E-01 7.95036E-27
1.22645E-01 7.24470E-27
1.25522E-01 6.60214E-27
1.28428E-01 6.01691E-27
1.31361E-01 5.48379E-27
1.34323E-01 4.99806E-27
1.37313E-01 4.55543E-27
1.40330E-01 4.15204E-27
1.43375E-01 3.78435E-27
1.46447E-01 3.44917E-27
1.49545E-01 3.14361E-27
1.52671E-01 2.86502E-27
1.55823E-01 2.61101E-27
1.59001E-01 2.37941E-27
1.62205E-01 2.16823E-27
1.65435E-01 1.97567E-27
1.68690E-01 1.80008E-27
1.71970E-01 1.63998E-27
1.75276E-01 1.49400E-27
1.78606E-01 1.36091E-27
1.81961E-01 1.23956E-27
1.85340E-01 1.12894E-27
1.88743E-01 1.02810E-27
1.92169E-01 9.36181E-28
1.95619E-01 8.52407E-28
1.99092E-01 7.76062E-28
2.02589E-01 7.06496E-28
2.06107E-01 6.43115E-28
2.09649E-01 5.85375E-28
2.13212E-01 5.32784E-28
2.16797E-01 4.84888E-28
2.20404E-01 4.41275E-28
2.24032E-01 4.01569E-28
2.27680E-01 3.65426E-28
2.31350E-01 3.32531E-28
2.35040E-01 3.02599E-28
2.38751E-01 2.75366E-28
2.42481E-01 2.50595E-28
2.46231E-01 2.28066E-28
2.50000E-01 2.07581E-28
2.53788E-01 1.88958E-28
2.57595E-01 1.72031E-28
2.61421E-01 1.56648E-28
2.65264E-01 1.42671E-28
2.69126E-01 1.29973E-28
2.73005E-01 1.18440E-28
2.76901E-01 1.07967E-28
2.80814E-01 9.84570E-29
2.84744E-01 8.98234E-29
2.88691E-01 8.19864E-29
2.92653E-01 7.48734E-29
2.96632E-01 6.84182E-29
3.00625E-01 6.25604E-29
3.04634E-01 5.72451E-29
3.08658E-01 5.24223E-29
3.12697E-01 4.80464E-29
3.16749E-01 4.40759E-29
3.20816E-01 4.04732E-29
3.24896E-01 3.72038E-29
3.28990E-01 3.42366E-29
3.33097E-01 3.15431E-29
3.37216E-01 2.90977E-29
3.41348E-01 2.68768E-29
3.45492E-01 2.48592E-29
3.49647E-01 2.30255E-29
3.53814E-01 2.13583E-29
3.57992E-01 1.98416E-29
3.62181E-01 1.84611E-29
3.66381E-01 1.72036E-29
3.70590E-01 1.60573E-29
3.74810E-01 1.50115E-29
3.79039E-01 1.40566E-29
3.83277E-01 1.31836E-29
3.87524E-01 1.23847E-29
3.91780E-01 1.16528E-29
3.96044E-01 1.09813E-29
4.00316E-01 1.03643E-29
4.04596E-01 9.79668E-30
4.08882E-01 9.27357E-30
4.13176E-01 8.79070E-30
4.17476E-01 8.34421E-30
4.21783E-01 7.93059E-30
4.26095E-01 7.54672E-30
4.30413E-01 7.18977E-30
4.34737E-01 6.85719E-30
4.39065E-01 6.54672E-30
4.43398E-01 6.25628E-30
4.47736E-01 5.98405E-30
4.52077E-01 5.72837E-30
4.56422E-01 5.48775E-30
4.60770E-01 5.26086E-30
4.65122E-01 5.04651E-30
4.69476E-01 4.84362E-30
4.73832E-01 4.65124E-30
4.78190E-01 4.46851E-30
4.82550E-01 4.29465E-30
4.86912E-01 4.12898E-30
4.91274E-01 3.97088E-30
4.95637E-01 3.81978E-30
5.00000E-01 3.67520E-30
5.04363E-01 3.53668E-30
5.08726E-01 3.40383E-30
5.13088E-01 3.27628E-30
5.17450E-01 3.15372E-30
5.21810E-01 3.03584E-30
5.26168E-01 2.92239E-30
5.30524E-01 2.81313E-30
5.34878E-01 2.70783E-30
5.39230E-01 2.60632E-30
5.43578E-01 2.50840E-30
5.47923E-01 2.41392E-30
5.52264E-01 2.32273E-30
5.56602E-01 2.23469E-30
5.60935E-01 2.14968E-30
5.65263E-01 2.06758E-30
5.69587E-01 1.98828E-30
5.73905E-01 1.91169E-30
5.78217E-01 1.83770E-30
5.82524E-01 1.76625E-30
5.86824E-01 1.69723E-30
5.91118E-01 1.63057E-30
5.95404E-01 1.56621E-30
5.99684E-01 1.50406E-30
6.03956E-01 1.44406E-30
6.08220E-01 1.38615E-30
6.12476E-01 1.33026E-30
6.16723E-01 1.27634E-30
6.20961E-01 1.22432E-30
6.25190E-01 1.17415E-30
6.29410E-01 1.12578E-30
6.33619E-01 1.07915E-30
6.37819E-01 1.03422E-30
6.42008E-01 9.90919E-31
6.46186E-01 9.49216E-31
6.50353E-01 9.09056E-31
6.54508E-01 8.70395E-31
6.58652E-01 8.33186E-31
6.62784E-01 7.97384E-31
6.66903E-01 7.62947E-31
6.71010E-01 7.29830E-31
6.75104E-01 6.97993E-31
6.79184E-01 6.67395E-31
6.83251E-01 6.37995E-31
6.87303E-01 6.09755E-31
6.91342E-01 5.82637E-31
6.95366E-01 5.56603E-31
6.99375E-01 5.31617E-31
7.03368E-01 5.07643E-31
7.07347E-01 4.84646E-31
7.11309E-01 4.62593E-31
7.15256E-01 4.41451E-31
7.19186E-01 4.21187E-31
7.23099E-01 4.01771E-31
7.26995E-01 3.83171E-31
7.30874E-01 3.65357E-31
7.34736E-01 3.48302E-31
7.38579E-01 3.31977E-31
7.42405E-01 3.16354E-31
7.46212E-01 3.01408E-31
7.50000E-01 2.87111E-31
7.53769E-01 2.73441E-31
7.57519E-01 2.60371E-31
7.61249E-01 2.47879E-31
7.64960E-01 2.35942E-31
7.68650E-01 2.24539E-31
7.72320E-01 2.13647E-31
7.75968E-01 2.03246E-31
7.79596E-01 1.93316E-31
7.83203E-01 1.83839E-31
7.86788E-01 1.74795E-31
7.90351E-01 1.66166E-31
7.93893E-01 1.57936E-31
7.97411E-01 1.50087E-31
8.00908E-01 1.42603E-31
8.04381E-01 1.35470E-31
8.07831E-01 1.28671E-31
8.11257E-01 1.22192E-31
8.14660E-01 1.16021E-31
8.18039E-01 1.10142E-31
8.21394E-01 1.04544E-31
8.24724E-01 9.92136E-32
8.28030E-01 9.41396E-32
8.31310E-01 8.93104E-32
8.34565E-01 8.47151E-32
8.37795E-01 8.03430E-32
8.40999E-01 7.61842E-32
8.44177E-01 7.22288E-32
8.47329E-01 6.84677E-32
8.50455E-01 6.48919E-32
8.53553E-01 6.14929E-32
8.56625E-01 5.82624E-32
8.59670E-01 5.51927E-32
8.62687E-01 5.22762E-32
8.65677E-01 4.95057E-32
8.68639E-01 4.68743E-32
8.71572E-01 4.43755E-32
8.74478E-01 4.20029E-32
8.77355E-01 3.97506E-32
8.80203E-01 3.76127E-32
8.83022E-01 3.55837E-32
8.85812E-01 3.36585E-32
8.88573E-01 3.18319E-32
8.91304E-01 3.00991E-32
8.94005E-01 2.84556E-32
8.96677E-01 2.68969E-32
8.99318E-01 2.54190E-32
9.01928E-01 2.40178E-32
9.04508E-01 2.26895E-32
9.07058E-01 2.14305E-32
9.09576E-01 2.02373E-32
9.12063E-01 1.91067E-32
9.14519E-01 1.80354E-32
9.16943E-01 1.70206E-32
9.19335E-01 1.60592E-32
9.21696E-01 1.51488E-32
9.24024E-01 1.42865E-32
9.26320E-01 1.34701E-32
9.28584E-01 1.26971E-32
9.30815E-01 1.19653E-32
9.33013E-01 1.12727E-32
9.35178E-01 1.06171E-32
9.37310E-01 9.99666E-33
9.39409E-01 9.40958E-33
9.41474E-01 8.85413E-33
9.43505E-01 8.32865E-33
9.45503E-01 7.83159E-33
9.47467E-01 7.36143E-33
9.49397E-01 6.91680E-33
9.51293E-01 6.49635E-33
9.53154E-01 6.09881E-33
9.54981E-01 5.72295E-33
9.56773E-01 5.36767E-33
9.58530E-01 5.03185E-33
9.60252E-01 4.71448E-33
9.61940E-01 4.41458E-33
9.63592E-01 4.13121E-33
9.65209E-01 3.86352E-33
9.66790E-01 3.61066E-33
9.68336E-01 3.37187E-33
9.69846E-01 3.14638E-33
9.71321E-01 2.93350E-33
9.72759E-01 2.73254E-33
9.74162E-01 2.54290E-33
9.75528E-01 2.36397E-33
9.76858E-01 2.19519E-33
9.78152E-01 2.03601E-33
9.79410E-01 1.88595E-33
9.80631E-01 1.74453E-33
9.81815E-01 1.61129E-33
9.82963E-01 1.48582E-33
9.84074E-01 1.36770E-33
9.85148E-01 1.25658E-33
9.86185E-01 1.15210E-33
9.87185E-01 1.05391E-33
9.88148E-01 9.61707E-34
9.89074E-01 8.75191E-34
9.89962E-01 7.94095E-34
9.90814E-01 7.18150E-34
9.91627E-01 6.47120E-34
9.92404E-01 5.80767E-34
9.93143E-01 5.18897E-34
9.93844E-01 4.61295E-34
9.94508E-01 4.07776E-34
9.95134E-01 3.58175E-34
9.95722E-01 3.12329E-34
9.96273E-01 2.70099E-34
9.96786E-01 2.31339E-34
9.97261E-01 1.95931E-34
9.97698E-01 1.63751E-34
9.98097E-01 1.34713E-34
9.98459E-01 1.08714E-34
9.98782E-01 8.56673E-35
9.99067E-01 6.55042E-35
9.99315E-01 4.81580E-35
9.99524E-01 3.35746E-35
9.99695E-01 2.17043E-35
9.99829E-01 1.25127E-35
9.99924E-01 5.96879E-36
9.99981E-01 2.04999E-36
1.00000E+00 7.45945E-37
