 #
 # Subroutine ELSEPA. Elastic scattering of electrons and positrons
 #                    by neutral atoms and positive ions
 #
 # Projectile: positron
 # Kinetic energy = 4.00000E+06 eV = 1.46997E+05 a.u.
 #
 # WARNING: High-energy factorization with free-atom DF screening.
 #          Absorption, polarization and exchange corrections are
 #          switched off.
 #          Phase shifts are calculated for the bare nucleus.
 #          Scattering amplitudes are not evaluated.
 #
 # Element: La,  Z =  57,  atomic weight = 1.38905E+02 g/mol
 #
 # Nuclear model: Fermi distribution
 #                Average radius = 5.54145E-13 cm
 #                Skin thickness = 5.46000E-14 cm
 #
 # Number of electrons = 57
 #
 # Total elastic cross section = 7.62167E-18 cm**2 = 2.72175E-01 a0**2
 # 1st transport cross section = 1.99356E-22 cm**2 = 7.11914E-06 a0**2
 # 2nd transport cross section = 5.72801E-22 cm**2 = 2.04551E-05 a0**2
 #
 #
 # Differential cross section:                       MU=(1-COS(THETA))/2
 #
 #  THETA        MU          DCS          DCS        Sherman      error
 #  (deg)                 (cm**2/sr)   (a0**2/sr)    function
 #----------------------------------------------------------------------
0.00000E+00 2.39501E-12
7.61557E-13 2.39499E-12
1.18994E-12 2.39497E-12
1.71346E-12 2.39495E-12
2.33225E-12 2.39493E-12
3.04617E-12 2.39491E-12
3.85530E-12 2.39488E-12
4.75964E-12 2.39485E-12
5.75917E-12 2.39482E-12
6.85391E-12 2.39478E-12
8.04379E-12 2.39474E-12
9.32893E-12 2.39470E-12
1.07092E-11 2.39465E-12
1.21847E-11 2.39460E-12
1.37554E-11 2.39455E-12
1.54213E-11 2.39449E-12
1.71823E-11 2.39444E-12
1.90386E-11 2.39437E-12
2.09900E-11 2.39431E-12
2.30367E-11 2.39424E-12
2.51785E-11 2.39417E-12
2.74156E-11 2.39410E-12
2.97478E-11 2.39402E-12
3.21752E-11 2.39394E-12
3.46979E-11 2.39385E-12
3.73157E-11 2.39377E-12
4.00286E-11 2.39368E-12
4.28368E-11 2.39358E-12
4.57402E-11 2.39349E-12
4.87388E-11 2.39339E-12
5.18325E-11 2.39329E-12
5.50215E-11 2.39318E-12
5.83057E-11 2.39307E-12
6.16850E-11 2.39296E-12
6.51595E-11 2.39285E-12
6.87293E-11 2.39273E-12
7.23943E-11 2.39261E-12
7.61544E-11 2.39248E-12
1.18991E-10 2.39107E-12
1.71347E-10 2.38935E-12
2.33223E-10 2.38732E-12
3.04617E-10 2.38498E-12
3.85531E-10 2.38233E-12
4.75965E-10 2.37938E-12
5.75917E-10 2.37612E-12
6.85389E-10 2.37257E-12
8.04380E-10 2.36871E-12
9.32891E-10 2.36456E-12
1.07092E-09 2.36012E-12
1.21847E-09 2.35538E-12
1.37554E-09 2.35035E-12
1.54213E-09 2.34504E-12
1.71823E-09 2.33945E-12
1.90386E-09 2.33358E-12
2.09900E-09 2.32743E-12
2.30367E-09 2.32101E-12
2.51785E-09 2.31433E-12
2.74156E-09 2.30737E-12
2.97478E-09 2.30016E-12
3.21752E-09 2.29270E-12
3.46978E-09 2.28498E-12
3.73156E-09 2.27701E-12
4.00286E-09 2.26880E-12
4.28368E-09 2.26036E-12
4.57402E-09 2.25168E-12
4.87388E-09 2.24277E-12
5.18326E-09 2.23364E-12
5.50215E-09 2.22429E-12
5.83057E-09 2.21473E-12
6.16850E-09 2.20496E-12
6.51596E-09 2.19499E-12
6.87293E-09 2.18481E-12
7.23942E-09 2.17445E-12
7.61544E-09 2.16390E-12
1.18991E-08 2.04946E-12
1.71347E-08 1.92237E-12
2.33223E-08 1.78837E-12
3.04617E-08 1.65200E-12
3.85531E-08 1.51728E-12
4.75965E-08 1.38736E-12
5.75917E-08 1.26459E-12
6.85389E-08 1.15110E-12
8.04380E-08 1.04676E-12
9.32891E-08 9.51762E-13
1.07092E-07 8.65904E-13
1.21847E-07 7.88741E-13
1.37554E-07 7.19903E-13
1.54213E-07 6.58447E-13
1.71823E-07 6.03491E-13
1.90386E-07 5.54348E-13
2.09900E-07 5.10372E-13
2.30367E-07 4.70976E-13
2.51785E-07 4.35627E-13
2.74156E-07 4.03746E-13
2.97478E-07 3.74925E-13
3.21752E-07 3.48803E-13
3.46978E-07 3.25066E-13
3.73156E-07 3.03407E-13
4.00286E-07 2.83590E-13
4.28368E-07 2.65423E-13
4.57402E-07 2.48732E-13
4.87388E-07 2.33365E-13
5.18325E-07 2.19173E-13
5.50215E-07 2.06016E-13
5.83057E-07 1.93832E-13
6.16850E-07 1.82533E-13
6.51596E-07 1.72040E-13
6.87293E-07 1.62282E-13
7.23942E-07 1.53168E-13
7.61543E-07 1.44667E-13
1.18991E-06 8.45464E-14
1.71347E-06 5.26966E-14
2.33223E-06 3.46410E-14
3.04617E-06 2.38515E-14
3.85531E-06 1.70064E-14
4.75964E-06 1.24491E-14
5.75916E-06 9.29514E-15
6.85388E-06 7.03478E-15
8.04378E-06 5.41472E-15
9.32888E-06 4.23235E-15
1.07092E-05 3.35588E-15
1.21846E-05 2.69704E-15
1.37553E-05 2.19420E-15
1.54212E-05 1.80626E-15
1.71822E-05 1.50322E-15
1.90385E-05 1.26287E-15
2.09899E-05 1.07108E-15
2.30365E-05 9.15252E-16
2.51783E-05 7.86911E-16
2.74153E-05 6.80714E-16
2.97475E-05 5.91840E-16
3.21749E-05 5.16927E-16
3.46974E-05 4.53553E-16
3.73152E-05 3.99487E-16
4.00281E-05 3.53191E-16
4.28362E-05 3.13370E-16
4.57395E-05 2.78933E-16
4.87380E-05 2.49010E-16
5.18317E-05 2.22881E-16
5.50205E-05 1.99963E-16
5.83045E-05 1.79863E-16
6.16838E-05 1.62187E-16
6.51582E-05 1.46605E-16
6.87277E-05 1.32834E-16
7.23925E-05 1.20618E-16
7.61524E-05 1.09768E-16
9.21439E-05 7.68421E-17
1.09658E-04 5.53636E-17
1.28695E-04 4.08924E-17
1.49255E-04 3.08879E-17
1.71338E-04 2.37794E-17
1.94942E-04 1.86096E-17
2.20070E-04 1.47719E-17
2.46720E-04 1.18741E-17
2.74892E-04 9.65377E-18
3.04586E-04 7.92906E-18
3.35803E-04 6.57220E-18
3.68542E-04 5.49261E-18
4.02802E-04 4.62436E-18
4.38585E-04 3.92059E-18
4.75889E-04 3.34534E-18
5.14715E-04 2.87144E-18
5.55063E-04 2.47824E-18
5.96931E-04 2.14962E-18
6.40321E-04 1.87348E-18
6.85233E-04 1.64013E-18
7.31665E-04 1.44189E-18
7.79618E-04 1.27262E-18
8.29092E-04 1.12736E-18
8.80086E-04 1.00215E-18
9.32601E-04 8.93799E-19
9.86636E-04 7.99668E-19
1.04219E-03 7.17578E-19
1.09927E-03 6.45730E-19
1.15786E-03 5.82615E-19
1.21797E-03 5.27008E-19
1.27961E-03 4.77866E-19
1.34276E-03 4.34310E-19
1.40743E-03 3.95595E-19
1.47362E-03 3.61088E-19
1.54133E-03 3.30251E-19
1.61056E-03 3.02631E-19
1.68131E-03 2.77834E-19
1.75357E-03 2.55521E-19
1.82735E-03 2.35399E-19
1.90265E-03 2.17212E-19
1.97947E-03 2.00745E-19
2.05780E-03 1.85806E-19
2.13765E-03 1.72228E-19
2.21902E-03 1.59866E-19
2.30190E-03 1.48590E-19
2.38630E-03 1.38288E-19
2.47222E-03 1.28861E-19
2.55965E-03 1.20222E-19
2.64859E-03 1.12294E-19
2.73905E-03 1.05006E-19
2.83103E-03 9.82982E-20
2.92452E-03 9.21158E-20
3.01952E-03 8.64106E-20
3.11604E-03 8.11389E-20
3.21407E-03 7.62621E-20
3.31362E-03 7.17447E-20
3.41468E-03 6.75556E-20
3.51725E-03 6.36669E-20
3.62133E-03 6.00531E-20
3.72692E-03 5.66911E-20
3.83403E-03 5.35603E-20
3.94265E-03 5.06416E-20
4.05278E-03 4.79183E-20
4.16442E-03 4.53749E-20
4.27757E-03 4.29974E-20
4.39223E-03 4.07729E-20
4.50840E-03 3.86898E-20
4.62608E-03 3.67373E-20
4.74527E-03 3.49060E-20
4.86597E-03 3.31869E-20
4.98817E-03 3.15718E-20
5.11188E-03 3.00533E-20
5.23711E-03 2.86246E-20
5.36383E-03 2.72793E-20
5.49207E-03 2.60117E-20
5.62181E-03 2.48166E-20
5.75306E-03 2.36891E-20
5.88581E-03 2.26243E-20
6.02007E-03 2.16185E-20
6.15583E-03 2.06677E-20
6.29310E-03 1.97683E-20
6.43187E-03 1.89170E-20
6.57214E-03 1.81108E-20
6.71392E-03 1.73468E-20
6.85720E-03 1.66225E-20
7.00198E-03 1.59353E-20
7.14827E-03 1.52831E-20
7.29605E-03 1.46638E-20
7.44534E-03 1.40753E-20
7.59612E-03 1.35158E-20
7.97965E-03 1.22334E-20
8.37255E-03 1.10987E-20
8.77480E-03 1.00918E-20
9.18641E-03 9.19586E-21
9.60736E-03 8.39655E-21
1.00376E-02 7.68169E-21
1.04773E-02 7.04083E-21
1.09262E-02 6.46499E-21
1.13844E-02 5.94644E-21
1.18520E-02 5.47849E-21
1.23288E-02 5.05537E-21
1.28150E-02 4.67204E-21
1.33104E-02 4.32411E-21
1.38150E-02 4.00774E-21
1.43290E-02 3.71956E-21
1.48521E-02 3.45663E-21
1.53845E-02 3.21635E-21
1.59262E-02 2.99644E-21
1.64770E-02 2.79486E-21
1.70371E-02 2.60981E-21
1.76063E-02 2.43970E-21
1.81848E-02 2.28312E-21
1.87724E-02 2.13879E-21
1.93692E-02 2.00560E-21
1.99751E-02 1.88253E-21
2.05901E-02 1.76867E-21
2.12143E-02 1.66322E-21
2.18476E-02 1.56544E-21
2.24900E-02 1.47468E-21
2.31415E-02 1.39035E-21
2.38021E-02 1.31190E-21
2.44717E-02 1.23886E-21
2.51504E-02 1.17078E-21
2.58382E-02 1.10727E-21
2.65349E-02 1.04797E-21
2.72407E-02 9.92547E-22
2.79555E-02 9.40704E-22
2.86793E-02 8.92169E-22
2.94120E-02 8.46693E-22
3.01537E-02 8.04049E-22
3.09043E-02 7.64030E-22
3.16639E-02 7.26443E-22
3.24324E-02 6.91115E-22
3.32098E-02 6.57887E-22
3.39961E-02 6.26611E-22
3.47912E-02 5.97151E-22
3.55952E-02 5.69385E-22
3.64081E-02 5.43194E-22
3.72297E-02 5.18477E-22
3.80602E-02 4.95133E-22
3.88995E-02 4.73074E-22
3.97476E-02 4.52216E-22
4.06044E-02 4.32482E-22
4.14700E-02 4.13799E-22
4.23443E-02 3.96103E-22
4.32273E-02 3.79332E-22
4.41190E-02 3.63428E-22
4.50194E-02 3.48340E-22
4.59284E-02 3.34016E-22
4.68461E-02 3.20413E-22
4.87074E-02 2.95196E-22
5.06030E-02 2.72383E-22
5.25328E-02 2.51705E-22
5.44967E-02 2.32928E-22
5.64946E-02 2.15847E-22
5.85262E-02 2.00284E-22
6.05914E-02 1.86080E-22
6.26901E-02 1.73097E-22
6.48222E-02 1.61211E-22
6.69873E-02 1.50314E-22
6.91854E-02 1.40309E-22
7.14163E-02 1.31111E-22
7.36799E-02 1.22643E-22
7.59760E-02 1.14838E-22
7.83043E-02 1.07635E-22
8.06647E-02 1.00979E-22
8.30571E-02 9.48221E-23
8.54812E-02 8.91197E-23
8.79369E-02 8.38327E-23
9.04240E-02 7.89255E-23
9.29422E-02 7.43661E-23
9.54915E-02 7.01256E-23
9.80716E-02 6.61779E-23
1.00682E-01 6.24993E-23
1.03323E-01 5.90682E-23
1.05995E-01 5.58651E-23
1.08696E-01 5.28722E-23
1.11427E-01 5.00733E-23
1.14188E-01 4.74537E-23
1.16978E-01 4.49998E-23
1.19797E-01 4.26994E-23
1.22645E-01 4.05411E-23
1.25522E-01 3.85148E-23
1.28428E-01 3.66108E-23
1.31361E-01 3.48207E-23
1.34323E-01 3.31363E-23
1.37313E-01 3.15503E-23
1.40330E-01 3.00560E-23
1.43375E-01 2.86471E-23
1.46447E-01 2.73179E-23
1.49545E-01 2.60632E-23
1.52671E-01 2.48779E-23
1.55823E-01 2.37577E-23
1.59001E-01 2.26984E-23
1.62205E-01 2.16959E-23
1.65435E-01 2.07468E-23
1.68690E-01 1.98478E-23
1.71970E-01 1.89956E-23
1.75276E-01 1.81875E-23
1.78606E-01 1.74207E-23
1.81961E-01 1.66929E-23
1.85340E-01 1.60016E-23
1.88743E-01 1.53447E-23
1.92169E-01 1.47203E-23
1.95619E-01 1.41264E-23
1.99092E-01 1.35612E-23
2.02589E-01 1.30232E-23
2.06107E-01 1.25108E-23
2.09649E-01 1.20225E-23
2.13212E-01 1.15571E-23
2.16797E-01 1.11133E-23
2.20404E-01 1.06900E-23
2.24032E-01 1.02859E-23
2.27680E-01 9.90011E-24
2.31350E-01 9.53161E-24
2.35040E-01 9.17951E-24
2.38751E-01 8.84295E-24
2.42481E-01 8.52113E-24
2.46231E-01 8.21329E-24
2.50000E-01 7.91872E-24
2.53788E-01 7.63675E-24
2.57595E-01 7.36674E-24
2.61421E-01 7.10811E-24
2.65264E-01 6.86027E-24
2.69126E-01 6.62271E-24
2.73005E-01 6.39493E-24
2.76901E-01 6.17646E-24
2.80814E-01 5.96686E-24
2.84744E-01 5.76569E-24
2.88691E-01 5.57258E-24
2.92653E-01 5.38712E-24
2.96632E-01 5.20897E-24
3.00625E-01 5.03780E-24
3.04634E-01 4.87327E-24
3.08658E-01 4.71509E-24
3.12697E-01 4.56297E-24
3.16749E-01 4.41665E-24
3.20816E-01 4.27585E-24
3.24896E-01 4.14035E-24
3.28990E-01 4.00991E-24
3.33097E-01 3.88429E-24
3.37216E-01 3.76330E-24
3.41348E-01 3.64674E-24
3.45492E-01 3.53440E-24
3.49647E-01 3.42613E-24
3.53814E-01 3.32174E-24
3.57992E-01 3.22107E-24
3.62181E-01 3.12397E-24
3.66381E-01 3.03029E-24
3.70590E-01 2.93989E-24
3.74810E-01 2.85263E-24
3.79039E-01 2.76838E-24
3.83277E-01 2.68703E-24
3.87524E-01 2.60846E-24
3.91780E-01 2.53255E-24
3.96044E-01 2.45921E-24
4.00316E-01 2.38833E-24
4.04596E-01 2.31981E-24
4.08882E-01 2.25357E-24
4.13176E-01 2.18951E-24
4.17476E-01 2.12755E-24
4.21783E-01 2.06761E-24
4.26095E-01 2.00961E-24
4.30413E-01 1.95348E-24
4.34737E-01 1.89915E-24
4.39065E-01 1.84656E-24
4.43398E-01 1.79563E-24
4.47736E-01 1.74631E-24
4.52077E-01 1.69854E-24
4.56422E-01 1.65226E-24
4.60770E-01 1.60741E-24
4.65122E-01 1.56395E-24
4.69476E-01 1.52182E-24
4.73832E-01 1.48098E-24
4.78190E-01 1.44138E-24
4.82550E-01 1.40297E-24
4.86912E-01 1.36573E-24
4.91274E-01 1.32960E-24
4.95637E-01 1.29455E-24
5.00000E-01 1.26053E-24
5.04363E-01 1.22752E-24
5.08726E-01 1.19548E-24
5.13088E-01 1.16437E-24
5.17450E-01 1.13416E-24
5.21810E-01 1.10483E-24
5.26168E-01 1.07635E-24
5.30524E-01 1.04868E-24
5.34878E-01 1.02180E-24
5.39230E-01 9.95687E-25
5.43578E-01 9.70308E-25
5.47923E-01 9.45642E-25
5.52264E-01 9.21668E-25
5.56602E-01 8.98361E-25
5.60935E-01 8.75703E-25
5.65263E-01 8.53670E-25
5.69587E-01 8.32244E-25
5.73905E-01 8.11405E-25
5.78217E-01 7.91133E-25
5.82524E-01 7.71412E-25
5.86824E-01 7.52224E-25
5.91118E-01 7.33552E-25
5.95404E-01 7.15380E-25
5.99684E-01 6.97694E-25
6.03956E-01 6.80478E-25
6.08220E-01 6.63718E-25
6.12476E-01 6.47401E-25
6.16723E-01 6.31511E-25
6.20961E-01 6.16038E-25
6.25190E-01 6.00967E-25
6.29410E-01 5.86288E-25
6.33619E-01 5.71988E-25
6.37819E-01 5.58056E-25
6.42008E-01 5.44482E-25
6.46186E-01 5.31255E-25
6.50353E-01 5.18364E-25
6.54508E-01 5.05801E-25
6.58652E-01 4.93555E-25
6.62784E-01 4.81618E-25
6.66903E-01 4.69980E-25
6.71010E-01 4.58634E-25
6.75104E-01 4.47570E-25
6.79184E-01 4.36781E-25
6.83251E-01 4.26258E-25
6.87303E-01 4.15996E-25
6.91342E-01 4.05985E-25
6.95366E-01 3.96220E-25
6.99375E-01 3.86694E-25
7.03368E-01 3.77399E-25
7.07347E-01 3.68330E-25
7.11309E-01 3.59480E-25
7.15256E-01 3.50844E-25
7.19186E-01 3.42416E-25
7.23099E-01 3.34189E-25
7.26995E-01 3.26159E-25
7.30874E-01 3.18320E-25
7.34736E-01 3.10668E-25
7.38579E-01 3.03197E-25
7.42405E-01 2.95903E-25
7.46212E-01 2.88780E-25
7.50000E-01 2.81825E-25
7.53769E-01 2.75033E-25
7.57519E-01 2.68400E-25
7.61249E-01 2.61922E-25
7.64960E-01 2.55594E-25
7.68650E-01 2.49414E-25
7.72320E-01 2.43376E-25
7.75968E-01 2.37478E-25
7.79596E-01 2.31716E-25
7.83203E-01 2.26087E-25
7.86788E-01 2.20587E-25
7.90351E-01 2.15213E-25
7.93893E-01 2.09962E-25
7.97411E-01 2.04831E-25
8.00908E-01 1.99817E-25
8.04381E-01 1.94917E-25
8.07831E-01 1.90128E-25
8.11257E-01 1.85448E-25
8.14660E-01 1.80874E-25
8.18039E-01 1.76404E-25
8.21394E-01 1.72034E-25
8.24724E-01 1.67763E-25
8.28030E-01 1.63589E-25
8.31310E-01 1.59508E-25
8.34565E-01 1.55519E-25
8.37795E-01 1.51620E-25
8.40999E-01 1.47808E-25
8.44177E-01 1.44083E-25
8.47329E-01 1.40440E-25
8.50455E-01 1.36880E-25
8.53553E-01 1.33399E-25
8.56625E-01 1.29996E-25
8.59670E-01 1.26670E-25
8.62687E-01 1.23418E-25
8.65677E-01 1.20239E-25
8.68639E-01 1.17131E-25
8.71572E-01 1.14093E-25
8.74478E-01 1.11124E-25
8.77355E-01 1.08221E-25
8.80203E-01 1.05383E-25
8.83022E-01 1.02610E-25
8.85812E-01 9.98986E-26
8.88573E-01 9.72487E-26
8.91304E-01 9.46588E-26
8.94005E-01 9.21276E-26
8.96677E-01 8.96538E-26
8.99318E-01 8.72363E-26
9.01928E-01 8.48740E-26
9.04508E-01 8.25657E-26
9.07058E-01 8.03103E-26
9.09576E-01 7.81067E-26
9.12063E-01 7.59540E-26
9.14519E-01 7.38511E-26
9.16943E-01 7.17971E-26
9.19335E-01 6.97910E-26
9.21696E-01 6.78318E-26
9.24024E-01 6.59188E-26
9.26320E-01 6.40510E-26
9.28584E-01 6.22275E-26
9.30815E-01 6.04476E-26
9.33013E-01 5.87104E-26
9.35178E-01 5.70152E-26
9.37310E-01 5.53613E-26
9.39409E-01 5.37478E-26
9.41474E-01 5.21740E-26
9.43505E-01 5.06393E-26
9.45503E-01 4.91431E-26
9.47467E-01 4.76845E-26
9.49397E-01 4.62631E-26
9.51293E-01 4.48781E-26
9.53154E-01 4.35291E-26
9.54981E-01 4.22153E-26
9.56773E-01 4.09363E-26
9.58530E-01 3.96914E-26
9.60252E-01 3.84802E-26
9.61940E-01 3.73022E-26
9.63592E-01 3.61567E-26
9.65209E-01 3.50435E-26
9.66790E-01 3.39619E-26
9.68336E-01 3.29116E-26
9.69846E-01 3.18920E-26
9.71321E-01 3.09028E-26
9.72759E-01 2.99436E-26
9.74162E-01 2.90139E-26
9.75528E-01 2.81133E-26
9.76858E-01 2.72416E-26
9.78152E-01 2.63983E-26
9.79410E-01 2.55830E-26
9.80631E-01 2.47956E-26
9.81815E-01 2.40355E-26
9.82963E-01 2.33026E-26
9.84074E-01 2.25964E-26
9.85148E-01 2.19168E-26
9.86185E-01 2.12635E-26
9.87185E-01 2.06361E-26
9.88148E-01 2.00345E-26
9.89074E-01 1.94583E-26
9.89962E-01 1.89075E-26
9.90814E-01 1.83816E-26
9.91627E-01 1.78806E-26
9.92404E-01 1.74041E-26
9.93143E-01 1.69522E-26
9.93844E-01 1.65244E-26
9.94508E-01 1.61208E-26
9.95134E-01 1.57410E-26
9.95722E-01 1.53850E-26
9.96273E-01 1.50527E-26
9.96786E-01 1.47438E-26
9.97261E-01 1.44583E-26
9.97698E-01 1.41961E-26
9.98097E-01 1.39570E-26
9.98459E-01 1.37410E-26
9.98782E-01 1.35479E-26
9.99067E-01 1.33777E-26
9.99315E-01 1.32304E-26
9.99524E-01 1.31058E-26
9.99695E-01 1.30039E-26
9.99829E-01 1.29247E-26
9.99924E-01 1.28682E-26
9.99981E-01 1.28343E-26
1.00000E+00 1.28230E-26
