 #
 # Subroutine ELSEPA. Elastic scattering of electrons and positrons
 #                    by neutral atoms and positive ions
 #
 # Projectile: positron
 # Kinetic energy = 1.25000E+08 eV = 4.59367E+06 a.u.
 #
 # WARNING: High-energy factorization with free-atom DF screening.
 #          Absorption, polarization and exchange corrections are
 #          switched off.
 #          Phase shifts are calculated for the bare nucleus.
 #          Scattering amplitudes are not evaluated.
 #
 # Element: La,  Z =  57,  atomic weight = 1.38905E+02 g/mol
 #
 # Nuclear model: Fermi distribution
 #                Average radius = 5.54145E-13 cm
 #                Skin thickness = 5.46000E-14 cm
 #
 # Number of electrons = 57
 #
 # Total elastic cross section = 7.53098E-18 cm**2 = 2.68936E-01 a0**2
 # 1st transport cross section = 3.93071E-25 cm**2 = 1.40368E-08 a0**2
 # 2nd transport cross section = 1.17196E-24 cm**2 = 4.18516E-08 a0**2
 #
 #
 # Differential cross section:                       MU=(1-COS(THETA))/2
 #
 #  THETA        MU          DCS          DCS        Sherman      error
 #  (deg)                 (cm**2/sr)   (a0**2/sr)    function
 #----------------------------------------------------------------------
0.00000E+00 1.85407E-09
7.61557E-13 1.83895E-09
1.18994E-12 1.83053E-09
1.71346E-12 1.82034E-09
2.33225E-12 1.80840E-09
3.04617E-12 1.79479E-09
3.85530E-12 1.77956E-09
4.75964E-12 1.76278E-09
5.75917E-12 1.74453E-09
6.85391E-12 1.72489E-09
8.04379E-12 1.70394E-09
9.32893E-12 1.68177E-09
1.07092E-11 1.65848E-09
1.21847E-11 1.63415E-09
1.37554E-11 1.60889E-09
1.54213E-11 1.58290E-09
1.71823E-11 1.55619E-09
1.90386E-11 1.52871E-09
2.09900E-11 1.50053E-09
2.30367E-11 1.47182E-09
2.51785E-11 1.44315E-09
2.74156E-11 1.41402E-09
2.97478E-11 1.38452E-09
3.21752E-11 1.35471E-09
3.46979E-11 1.32526E-09
3.73157E-11 1.29582E-09
4.00286E-11 1.26627E-09
4.28368E-11 1.23667E-09
4.57402E-11 1.20742E-09
4.87388E-11 1.17874E-09
5.18325E-11 1.15016E-09
5.50215E-11 1.12172E-09
5.83057E-11 1.09349E-09
6.16850E-11 1.06634E-09
6.51595E-11 1.03943E-09
6.87293E-11 1.01280E-09
7.23943E-11 9.86484E-10
7.61544E-11 9.61050E-10
1.18991E-10 7.36850E-10
1.71347E-10 5.67639E-10
2.33223E-10 4.43807E-10
3.04617E-10 3.53382E-10
3.85531E-10 2.86099E-10
4.75965E-10 2.34935E-10
5.75917E-10 1.95116E-10
6.85389E-10 1.63503E-10
8.04380E-10 1.38035E-10
9.32891E-10 1.17275E-10
1.07092E-09 1.00169E-10
1.21847E-09 8.60147E-11
1.37554E-09 7.42382E-11
1.54213E-09 6.41180E-11
1.71823E-09 5.56181E-11
1.90386E-09 4.86795E-11
2.09900E-09 4.29638E-11
2.30367E-09 3.81410E-11
2.51785E-09 3.37009E-11
2.74156E-09 2.99800E-11
2.97478E-09 2.68396E-11
3.21752E-09 2.41711E-11
3.46978E-09 2.17192E-11
3.73156E-09 1.95719E-11
4.00286E-09 1.77238E-11
4.28368E-09 1.61248E-11
4.57402E-09 1.46835E-11
4.87388E-09 1.33557E-11
5.18326E-09 1.21954E-11
5.50215E-09 1.11770E-11
5.83057E-09 1.02778E-11
6.16850E-09 9.41376E-12
6.51596E-09 8.64944E-12
6.87293E-09 7.97098E-12
7.23942E-09 7.36674E-12
7.61544E-09 6.80060E-12
1.18991E-08 3.28274E-12
1.71347E-08 1.77223E-12
2.33223E-08 1.05064E-12
3.04617E-08 6.68282E-13
3.85531E-08 4.47412E-13
4.75965E-08 3.10645E-13
5.75917E-08 2.22018E-13
6.85389E-08 1.62416E-13
8.04380E-08 1.21236E-13
9.32891E-08 9.21803E-14
1.07092E-07 7.12818E-14
1.21847E-07 5.59770E-14
1.37554E-07 4.45668E-14
1.54213E-07 3.59120E-14
1.71823E-07 2.92890E-14
1.90386E-07 2.41240E-14
2.09900E-07 2.00671E-14
2.30367E-07 1.68186E-14
2.51785E-07 1.42119E-14
2.74156E-07 1.20899E-14
2.97478E-07 1.03513E-14
3.21752E-07 8.91543E-15
3.46978E-07 7.71849E-15
3.73156E-07 6.71828E-15
4.00286E-07 5.87211E-15
4.28368E-07 5.15649E-15
4.57402E-07 4.54563E-15
4.87388E-07 4.02265E-15
5.18325E-07 3.57278E-15
5.50215E-07 3.18341E-15
5.83057E-07 2.84609E-15
6.16850E-07 2.55152E-15
6.51596E-07 2.29436E-15
6.87293E-07 2.06851E-15
7.23942E-07 1.86974E-15
7.61543E-07 1.69426E-15
1.18991E-06 7.07646E-16
1.71347E-06 3.45398E-16
2.33223E-06 1.88042E-16
3.04617E-06 1.10956E-16
3.85531E-06 6.96361E-17
4.75964E-06 4.58849E-17
5.75916E-06 3.14503E-17
6.85388E-06 2.22701E-17
8.04378E-06 1.62071E-17
9.32888E-06 1.20731E-17
1.07092E-05 9.17635E-18
1.21846E-05 7.09805E-18
1.37553E-05 5.57583E-18
1.54212E-05 4.44036E-18
1.71822E-05 3.57957E-18
1.90385E-05 2.91648E-18
2.09899E-05 2.40172E-18
2.30365E-05 1.99537E-18
2.51783E-05 1.67107E-18
2.74153E-05 1.40976E-18
2.97475E-05 1.19742E-18
3.21749E-05 1.02356E-18
3.46974E-05 8.80170E-19
3.73152E-05 7.61093E-19
4.00281E-05 6.61534E-19
4.28362E-05 5.77752E-19
4.57395E-05 5.06810E-19
4.87380E-05 4.46403E-19
5.18317E-05 3.94705E-19
5.50205E-05 3.50255E-19
5.83045E-05 3.11879E-19
6.16838E-05 2.78616E-19
6.51582E-05 2.49676E-19
6.87277E-05 2.24403E-19
7.23925E-05 2.02251E-19
7.61524E-05 1.82869E-19
9.21439E-05 1.24870E-19
1.09658E-04 8.81325E-20
1.28695E-04 6.39643E-20
1.49255E-04 4.75328E-20
1.71338E-04 3.60538E-20
1.94942E-04 2.78369E-20
2.20070E-04 2.18317E-20
2.46720E-04 1.73609E-20
2.74892E-04 1.39769E-20
3.04586E-04 1.13783E-20
3.35803E-04 9.35572E-21
3.68542E-04 7.76284E-21
4.02802E-04 6.49460E-21
4.38585E-04 5.47478E-21
4.75889E-04 4.64727E-21
5.14715E-04 3.97012E-21
5.55063E-04 3.41177E-21
5.96931E-04 2.94806E-21
6.40321E-04 2.56039E-21
6.85233E-04 2.23429E-21
7.31665E-04 1.95838E-21
7.79618E-04 1.72370E-21
8.29092E-04 1.52306E-21
8.80086E-04 1.35072E-21
9.32601E-04 1.20203E-21
9.86636E-04 1.07319E-21
1.04219E-03 9.61113E-22
1.09927E-03 8.63252E-22
1.15786E-03 7.77499E-22
1.21797E-03 7.02101E-22
1.27961E-03 6.35596E-22
1.34276E-03 5.76756E-22
1.40743E-03 5.24545E-22
1.47362E-03 4.78085E-22
1.54133E-03 4.36636E-22
1.61056E-03 3.99564E-22
1.68131E-03 3.66327E-22
1.75357E-03 3.36460E-22
1.82735E-03 3.09561E-22
1.90265E-03 2.85284E-22
1.97947E-03 2.63329E-22
2.05780E-03 2.43435E-22
2.13765E-03 2.25373E-22
2.21902E-03 2.08947E-22
2.30190E-03 1.93981E-22
2.38630E-03 1.80323E-22
2.47222E-03 1.67839E-22
2.55965E-03 1.56409E-22
2.64859E-03 1.45929E-22
2.73905E-03 1.36306E-22
2.83103E-03 1.27457E-22
2.92452E-03 1.19310E-22
3.01952E-03 1.11798E-22
3.11604E-03 1.04863E-22
3.21407E-03 9.84528E-23
3.31362E-03 9.25210E-23
3.41468E-03 8.70252E-23
3.51725E-03 8.19277E-23
3.62133E-03 7.71944E-23
3.72692E-03 7.27948E-23
3.83403E-03 6.87009E-23
3.94265E-03 6.48879E-23
4.05278E-03 6.13329E-23
4.16442E-03 5.80154E-23
4.27757E-03 5.49166E-23
4.39223E-03 5.20196E-23
4.50840E-03 4.93089E-23
4.62608E-03 4.67702E-23
4.74527E-03 4.43908E-23
4.86597E-03 4.21589E-23
4.98817E-03 4.00636E-23
5.11188E-03 3.80951E-23
5.23711E-03 3.62444E-23
5.36383E-03 3.45031E-23
5.49207E-03 3.28636E-23
5.62181E-03 3.13189E-23
5.75306E-03 2.98625E-23
5.88581E-03 2.84884E-23
6.02007E-03 2.71913E-23
6.15583E-03 2.59659E-23
6.29310E-03 2.48076E-23
6.43187E-03 2.37121E-23
6.57214E-03 2.26753E-23
6.71392E-03 2.16936E-23
6.85720E-03 2.07635E-23
7.00198E-03 1.98818E-23
7.14827E-03 1.90455E-23
7.29605E-03 1.82518E-23
7.44534E-03 1.74983E-23
7.59612E-03 1.67825E-23
7.97965E-03 1.51436E-23
8.37255E-03 1.36961E-23
8.77480E-03 1.24139E-23
9.18641E-03 1.12751E-23
9.60736E-03 1.02610E-23
1.00376E-02 9.35567E-24
1.04773E-02 8.54559E-24
1.09262E-02 7.81906E-24
1.13844E-02 7.16608E-24
1.18520E-02 6.57796E-24
1.23288E-02 6.04722E-24
1.28150E-02 5.56735E-24
1.33104E-02 5.13267E-24
1.38150E-02 4.73823E-24
1.43290E-02 4.37970E-24
1.48521E-02 4.05329E-24
1.53845E-02 3.75565E-24
1.59262E-02 3.48383E-24
1.64770E-02 3.23523E-24
1.70371E-02 3.00755E-24
1.76063E-02 2.79874E-24
1.81848E-02 2.60700E-24
1.87724E-02 2.43069E-24
1.93692E-02 2.26839E-24
1.99751E-02 2.11881E-24
2.05901E-02 1.98078E-24
2.12143E-02 1.85328E-24
2.18476E-02 1.73537E-24
2.24900E-02 1.62622E-24
2.31415E-02 1.52509E-24
2.38021E-02 1.43128E-24
2.44717E-02 1.34419E-24
2.51504E-02 1.26326E-24
2.58382E-02 1.18798E-24
2.65349E-02 1.11791E-24
2.72407E-02 1.05263E-24
2.79555E-02 9.91754E-25
2.86793E-02 9.34949E-25
2.94120E-02 8.81900E-25
3.01537E-02 8.32320E-25
3.09043E-02 7.85949E-25
3.16639E-02 7.42549E-25
3.24324E-02 7.01902E-25
3.32098E-02 6.63806E-25
3.39961E-02 6.28079E-25
3.47912E-02 5.94552E-25
3.55952E-02 5.63071E-25
3.64081E-02 5.33491E-25
3.72297E-02 5.05683E-25
3.80602E-02 4.79525E-25
3.88995E-02 4.54905E-25
3.97476E-02 4.31720E-25
4.06044E-02 4.09875E-25
4.14700E-02 3.89282E-25
4.23443E-02 3.69859E-25
4.32273E-02 3.51531E-25
4.41190E-02 3.34228E-25
4.50194E-02 3.17884E-25
4.59284E-02 3.02439E-25
4.68461E-02 2.87838E-25
4.87074E-02 2.60961E-25
5.06030E-02 2.36877E-25
5.25328E-02 2.15261E-25
5.44967E-02 1.95831E-25
5.64946E-02 1.78339E-25
5.85262E-02 1.62570E-25
6.05914E-02 1.48335E-25
6.26901E-02 1.35468E-25
6.48222E-02 1.23823E-25
6.69873E-02 1.13272E-25
6.91854E-02 1.03700E-25
7.14163E-02 9.50089E-26
7.36799E-02 8.71078E-26
7.59760E-02 7.99182E-26
7.83043E-02 7.33696E-26
8.06647E-02 6.73995E-26
8.30571E-02 6.19520E-26
8.54812E-02 5.69771E-26
8.79369E-02 5.24301E-26
9.04240E-02 4.82710E-26
9.29422E-02 4.44638E-26
9.54915E-02 4.09763E-26
9.80716E-02 3.77794E-26
1.00682E-01 3.48470E-26
1.03323E-01 3.21555E-26
1.05995E-01 2.96835E-26
1.08696E-01 2.74120E-26
1.11427E-01 2.53233E-26
1.14188E-01 2.34018E-26
1.16978E-01 2.16332E-26
1.19797E-01 2.00045E-26
1.22645E-01 1.85040E-26
1.25522E-01 1.71208E-26
1.28428E-01 1.58453E-26
1.31361E-01 1.46687E-26
1.34323E-01 1.35827E-26
1.37313E-01 1.25801E-26
1.40330E-01 1.16540E-26
1.43375E-01 1.07984E-26
1.46447E-01 1.00076E-26
1.49545E-01 9.27651E-27
1.52671E-01 8.60035E-27
1.55823E-01 7.97483E-27
1.59001E-01 7.39600E-27
1.62205E-01 6.86022E-27
1.65435E-01 6.36417E-27
1.68690E-01 5.90479E-27
1.71970E-01 5.47927E-27
1.75276E-01 5.08502E-27
1.78606E-01 4.71967E-27
1.81961E-01 4.38102E-27
1.85340E-01 4.06708E-27
1.88743E-01 3.77598E-27
1.92169E-01 3.50602E-27
1.95619E-01 3.25562E-27
1.99092E-01 3.02332E-27
2.02589E-01 2.80779E-27
2.06107E-01 2.60779E-27
2.09649E-01 2.42217E-27
2.13212E-01 2.24989E-27
2.16797E-01 2.08995E-27
2.20404E-01 1.94148E-27
2.24032E-01 1.80361E-27
2.27680E-01 1.67560E-27
2.31350E-01 1.55672E-27
2.35040E-01 1.44632E-27
2.38751E-01 1.34378E-27
2.42481E-01 1.24853E-27
2.46231E-01 1.16005E-27
2.50000E-01 1.07786E-27
2.53788E-01 1.00151E-27
2.57595E-01 9.30568E-28
2.61421E-01 8.64661E-28
2.65264E-01 8.03425E-28
2.69126E-01 7.46528E-28
2.73005E-01 6.93661E-28
2.76901E-01 6.44538E-28
2.80814E-01 5.98892E-28
2.84744E-01 5.56478E-28
2.88691E-01 5.17066E-28
2.92653E-01 4.80443E-28
2.96632E-01 4.46412E-28
3.00625E-01 4.14789E-28
3.04634E-01 3.85405E-28
3.08658E-01 3.58101E-28
3.12697E-01 3.32730E-28
3.16749E-01 3.09156E-28
3.20816E-01 2.87252E-28
3.24896E-01 2.66900E-28
3.28990E-01 2.47990E-28
3.33097E-01 2.30421E-28
3.37216E-01 2.14098E-28
3.41348E-01 1.98933E-28
3.45492E-01 1.84844E-28
3.49647E-01 1.71756E-28
3.53814E-01 1.59597E-28
3.57992E-01 1.48303E-28
3.62181E-01 1.37812E-28
3.66381E-01 1.28067E-28
3.70590E-01 1.19016E-28
3.74810E-01 1.10610E-28
3.79039E-01 1.02802E-28
3.83277E-01 9.55509E-29
3.87524E-01 8.88170E-29
3.91780E-01 8.25637E-29
3.96044E-01 7.67568E-29
4.00316E-01 7.13646E-29
4.04596E-01 6.63577E-29
4.08882E-01 6.17088E-29
4.13176E-01 5.73924E-29
4.17476E-01 5.33848E-29
4.21783E-01 4.96641E-29
4.26095E-01 4.62098E-29
4.30413E-01 4.30028E-29
4.34737E-01 4.00256E-29
4.39065E-01 3.72617E-29
4.43398E-01 3.46959E-29
4.47736E-01 3.23139E-29
4.52077E-01 3.01027E-29
4.56422E-01 2.80499E-29
4.60770E-01 2.61442E-29
4.65122E-01 2.43751E-29
4.69476E-01 2.27327E-29
4.73832E-01 2.12078E-29
4.78190E-01 1.97921E-29
4.82550E-01 1.84776E-29
4.86912E-01 1.72570E-29
4.91274E-01 1.61236E-29
4.95637E-01 1.50711E-29
5.00000E-01 1.40935E-29
5.04363E-01 1.31855E-29
5.08726E-01 1.23421E-29
5.13088E-01 1.15584E-29
5.17450E-01 1.08303E-29
5.21810E-01 1.01536E-29
5.26168E-01 9.52471E-30
5.30524E-01 8.94002E-30
5.34878E-01 8.39636E-30
5.39230E-01 7.89073E-30
5.43578E-01 7.42038E-30
5.47923E-01 6.98272E-30
5.52264E-01 6.57538E-30
5.56602E-01 6.19614E-30
5.60935E-01 5.84295E-30
5.65263E-01 5.51391E-30
5.69587E-01 5.20726E-30
5.73905E-01 4.92136E-30
5.78217E-01 4.65471E-30
5.82524E-01 4.40590E-30
5.86824E-01 4.17362E-30
5.91118E-01 3.95669E-30
5.95404E-01 3.75397E-30
5.99684E-01 3.56445E-30
6.03956E-01 3.38715E-30
6.08220E-01 3.22119E-30
6.12476E-01 3.06576E-30
6.16723E-01 2.92009E-30
6.20961E-01 2.78349E-30
6.25190E-01 2.65528E-30
6.29410E-01 2.53489E-30
6.33619E-01 2.42174E-30
6.37819E-01 2.31532E-30
6.42008E-01 2.21515E-30
6.46186E-01 2.12079E-30
6.50353E-01 2.03182E-30
6.54508E-01 1.94788E-30
6.58652E-01 1.86861E-30
6.62784E-01 1.79369E-30
6.66903E-01 1.72280E-30
6.71010E-01 1.65569E-30
6.75104E-01 1.59209E-30
6.79184E-01 1.53175E-30
6.83251E-01 1.47447E-30
6.87303E-01 1.42004E-30
6.91342E-01 1.36827E-30
6.95366E-01 1.31899E-30
6.99375E-01 1.27203E-30
7.03368E-01 1.22724E-30
7.07347E-01 1.18449E-30
7.11309E-01 1.14365E-30
7.15256E-01 1.10460E-30
7.19186E-01 1.06723E-30
7.23099E-01 1.03144E-30
7.26995E-01 9.97130E-31
7.30874E-01 9.64220E-31
7.34736E-01 9.32625E-31
7.38579E-01 9.02272E-31
7.42405E-01 8.73089E-31
7.46212E-01 8.45013E-31
7.50000E-01 8.17983E-31
7.53769E-01 7.91944E-31
7.57519E-01 7.66844E-31
7.61249E-01 7.42634E-31
7.64960E-01 7.19269E-31
7.68650E-01 6.96709E-31
7.72320E-01 6.74913E-31
7.75968E-01 6.53846E-31
7.79596E-01 6.33474E-31
7.83203E-01 6.13765E-31
7.86788E-01 5.94690E-31
7.90351E-01 5.76220E-31
7.93893E-01 5.58331E-31
7.97411E-01 5.40998E-31
8.00908E-01 5.24199E-31
8.04381E-01 5.07911E-31
8.07831E-01 4.92115E-31
8.11257E-01 4.76792E-31
8.14660E-01 4.61925E-31
8.18039E-01 4.47496E-31
8.21394E-01 4.33489E-31
8.24724E-01 4.19891E-31
8.28030E-01 4.06686E-31
8.31310E-01 3.93862E-31
8.34565E-01 3.81405E-31
8.37795E-01 3.69303E-31
8.40999E-01 3.57546E-31
8.44177E-01 3.46122E-31
8.47329E-01 3.35020E-31
8.50455E-01 3.24232E-31
8.53553E-01 3.13746E-31
8.56625E-01 3.03555E-31
8.59670E-01 2.93650E-31
8.62687E-01 2.84022E-31
8.65677E-01 2.74663E-31
8.68639E-01 2.65566E-31
8.71572E-01 2.56723E-31
8.74478E-01 2.48127E-31
8.77355E-01 2.39772E-31
8.80203E-01 2.31650E-31
8.83022E-01 2.23756E-31
8.85812E-01 2.16083E-31
8.88573E-01 2.08625E-31
8.91304E-01 2.01377E-31
8.94005E-01 1.94333E-31
8.96677E-01 1.87488E-31
8.99318E-01 1.80836E-31
9.01928E-01 1.74373E-31
9.04508E-01 1.68093E-31
9.07058E-01 1.61992E-31
9.09576E-01 1.56065E-31
9.12063E-01 1.50308E-31
9.14519E-01 1.44717E-31
9.16943E-01 1.39286E-31
9.19335E-01 1.34013E-31
9.21696E-01 1.28893E-31
9.24024E-01 1.23922E-31
9.26320E-01 1.19096E-31
9.28584E-01 1.14413E-31
9.30815E-01 1.09867E-31
9.33013E-01 1.05456E-31
9.35178E-01 1.01177E-31
9.37310E-01 9.70256E-32
9.39409E-01 9.29991E-32
9.41474E-01 8.90944E-32
9.43505E-01 8.53085E-32
9.45503E-01 8.16384E-32
9.47467E-01 7.80813E-32
9.49397E-01 7.46343E-32
9.51293E-01 7.12948E-32
9.53154E-01 6.80601E-32
9.54981E-01 6.49277E-32
9.56773E-01 6.18952E-32
9.58530E-01 5.89599E-32
9.60252E-01 5.61198E-32
9.61940E-01 5.33724E-32
9.63592E-01 5.07155E-32
9.65209E-01 4.81470E-32
9.66790E-01 4.56648E-32
9.68336E-01 4.32670E-32
9.69846E-01 4.09514E-32
9.71321E-01 3.87164E-32
9.72759E-01 3.65598E-32
9.74162E-01 3.44802E-32
9.75528E-01 3.24756E-32
9.76858E-01 3.05444E-32
9.78152E-01 2.86851E-32
9.79410E-01 2.68960E-32
9.80631E-01 2.51757E-32
9.81815E-01 2.35228E-32
9.82963E-01 2.19357E-32
9.84074E-01 2.04132E-32
9.85148E-01 1.89540E-32
9.86185E-01 1.75569E-32
9.87185E-01 1.62206E-32
9.88148E-01 1.49440E-32
9.89074E-01 1.37260E-32
9.89962E-01 1.25656E-32
9.90814E-01 1.14617E-32
9.91627E-01 1.04135E-32
9.92404E-01 9.41994E-33
9.93143E-01 8.48026E-33
9.93844E-01 7.59359E-33
9.94508E-01 6.75917E-33
9.95134E-01 5.97626E-33
9.95722E-01 5.24419E-33
9.96273E-01 4.56234E-33
9.96786E-01 3.93007E-33
9.97261E-01 3.34685E-33
9.97698E-01 2.81215E-33
9.98097E-01 2.32553E-33
9.98459E-01 1.88654E-33
9.98782E-01 1.49479E-33
9.99067E-01 1.14994E-33
9.99315E-01 8.51681E-34
9.99524E-01 5.99760E-34
9.99695E-01 3.93939E-34
9.99829E-01 2.34051E-34
9.99924E-01 1.19947E-34
9.99981E-01 5.15237E-35
1.00000E+00 2.87245E-35
