 #
 # Subroutine ELSEPA. Elastic scattering of electrons and positrons
 #                    by neutral atoms and positive ions
 #
 # Projectile: positron
 # Kinetic energy = 2.00000E+07 eV = 7.34987E+05 a.u.
 #
 # WARNING: High-energy factorization with free-atom DF screening.
 #          Absorption, polarization and exchange corrections are
 #          switched off.
 #          Phase shifts are calculated for the bare nucleus.
 #          Scattering amplitudes are not evaluated.
 #
 # Element: La,  Z =  57,  atomic weight = 1.38905E+02 g/mol
 #
 # Nuclear model: Fermi distribution
 #                Average radius = 5.54145E-13 cm
 #                Skin thickness = 5.46000E-14 cm
 #
 # Number of electrons = 57
 #
 # Total elastic cross section = 7.53509E-18 cm**2 = 2.69083E-01 a0**2
 # 1st transport cross section = 1.23898E-23 cm**2 = 4.42446E-07 a0**2
 # 2nd transport cross section = 3.60503E-23 cm**2 = 1.28738E-06 a0**2
 #
 #
 # Differential cross section:                       MU=(1-COS(THETA))/2
 #
 #  THETA        MU          DCS          DCS        Sherman      error
 #  (deg)                 (cm**2/sr)   (a0**2/sr)    function
 #----------------------------------------------------------------------
0.00000E+00 4.95149E-11
7.61557E-13 4.95039E-11
1.18994E-12 4.94978E-11
1.71346E-12 4.94903E-11
2.33225E-12 4.94815E-11
3.04617E-12 4.94713E-11
3.85530E-12 4.94598E-11
4.75964E-12 4.94469E-11
5.75917E-12 4.94327E-11
6.85391E-12 4.94171E-11
8.04379E-12 4.94002E-11
9.32893E-12 4.93820E-11
1.07092E-11 4.93624E-11
1.21847E-11 4.93415E-11
1.37554E-11 4.93193E-11
1.54213E-11 4.92957E-11
1.71823E-11 4.92708E-11
1.90386E-11 4.92446E-11
2.09900E-11 4.92170E-11
2.30367E-11 4.91882E-11
2.51785E-11 4.91580E-11
2.74156E-11 4.91265E-11
2.97478E-11 4.90938E-11
3.21752E-11 4.90597E-11
3.46979E-11 4.90243E-11
3.73157E-11 4.89877E-11
4.00286E-11 4.89497E-11
4.28368E-11 4.89105E-11
4.57402E-11 4.88700E-11
4.87388E-11 4.88282E-11
5.18325E-11 4.87852E-11
5.50215E-11 4.87409E-11
5.83057E-11 4.86953E-11
6.16850E-11 4.86486E-11
6.51595E-11 4.86005E-11
6.87293E-11 4.85512E-11
7.23943E-11 4.85007E-11
7.61544E-11 4.84490E-11
1.18991E-10 4.78659E-11
1.71347E-10 4.71684E-11
2.33223E-10 4.63649E-11
3.04617E-10 4.54649E-11
3.85531E-10 4.44785E-11
4.75965E-10 4.34164E-11
5.75917E-10 4.22928E-11
6.85389E-10 4.11177E-11
8.04380E-10 3.98907E-11
9.32891E-10 3.86389E-11
1.07092E-09 3.73649E-11
1.21847E-09 3.60666E-11
1.37554E-09 3.47841E-11
1.54213E-09 3.34948E-11
1.71823E-09 3.22136E-11
1.90386E-09 3.09636E-11
2.09900E-09 2.97230E-11
2.30367E-09 2.85190E-11
2.51785E-09 2.73481E-11
2.74156E-09 2.61985E-11
2.97478E-09 2.51062E-11
3.21752E-09 2.40427E-11
3.46978E-09 2.30149E-11
3.73156E-09 2.20411E-11
4.00286E-09 2.10966E-11
4.28368E-09 2.01987E-11
4.57402E-09 1.93434E-11
4.87388E-09 1.85178E-11
5.18326E-09 1.77440E-11
5.50215E-09 1.70016E-11
5.83057E-09 1.62919E-11
6.16850E-09 1.56258E-11
6.51596E-09 1.49862E-11
6.87293E-09 1.43811E-11
7.23942E-09 1.38082E-11
7.61544E-09 1.32592E-11
1.18991E-08 9.09674E-12
1.71347E-08 6.51624E-12
2.33223E-08 4.81919E-12
3.04617E-08 3.64387E-12
3.85531E-08 2.80113E-12
4.75965E-08 2.18433E-12
5.75917E-08 1.71944E-12
6.85389E-08 1.36874E-12
8.04380E-08 1.11485E-12
9.32891E-08 9.13862E-13
1.07092E-07 7.56340E-13
1.21847E-07 6.36306E-13
1.37554E-07 5.34818E-13
1.54213E-07 4.55111E-13
1.71823E-07 3.90501E-13
1.90386E-07 3.35245E-13
2.09900E-07 2.90708E-13
2.30367E-07 2.52595E-13
2.51785E-07 2.20237E-13
2.74156E-07 1.93522E-13
2.97478E-07 1.69767E-13
3.21752E-07 1.49794E-13
3.46978E-07 1.32764E-13
3.73156E-07 1.17709E-13
4.00286E-07 1.04918E-13
4.28368E-07 9.37279E-14
4.57402E-07 8.39431E-14
4.87388E-07 7.55093E-14
5.18325E-07 6.80082E-14
5.50215E-07 6.14670E-14
5.83057E-07 5.57331E-14
6.16850E-07 5.06223E-14
6.51596E-07 4.61308E-14
6.87293E-07 4.21332E-14
7.23942E-07 3.85673E-14
7.61543E-07 3.54025E-14
1.18991E-06 1.66162E-14
1.71347E-06 8.88521E-15
2.33223E-06 5.15532E-15
3.04617E-06 3.17117E-15
3.85531E-06 2.04832E-15
4.75964E-06 1.38032E-15
5.75916E-06 9.63434E-16
6.85388E-06 6.93665E-16
8.04378E-06 5.12444E-16
9.32888E-06 3.86915E-16
1.07092E-05 2.97697E-16
1.21846E-05 2.32768E-16
1.37553E-05 1.84618E-16
1.54212E-05 1.48289E-16
1.71822E-05 1.20456E-16
1.90385E-05 9.88102E-17
2.09899E-05 8.18614E-17
2.30365E-05 6.83774E-17
2.51783E-05 5.75392E-17
2.74153E-05 4.87500E-17
2.97475E-05 4.15672E-17
3.21749E-05 3.56556E-17
3.46974E-05 3.07577E-17
3.73152E-05 2.66732E-17
4.00281E-05 2.32453E-17
4.28362E-05 2.03507E-17
4.57395E-05 1.78918E-17
4.87380E-05 1.57920E-17
5.18317E-05 1.39903E-17
5.50205E-05 1.24374E-17
5.83045E-05 1.10938E-17
6.16838E-05 9.92674E-18
6.51582E-05 8.90938E-18
6.87277E-05 8.01931E-18
7.23925E-05 7.23782E-18
7.61524E-05 6.54937E-18
9.21439E-05 4.49341E-18
1.09658E-04 3.18431E-18
1.28695E-04 2.31924E-18
1.49255E-04 1.72877E-18
1.71338E-04 1.31484E-18
1.94942E-04 1.01760E-18
2.20070E-04 7.99745E-19
2.46720E-04 6.37149E-19
2.74892E-04 5.13801E-19
3.04586E-04 4.18878E-19
3.35803E-04 3.44863E-19
3.68542E-04 2.86477E-19
4.02802E-04 2.39919E-19
4.38585E-04 2.02431E-19
4.75889E-04 1.71975E-19
5.14715E-04 1.47025E-19
5.55063E-04 1.26432E-19
5.96931E-04 1.09315E-19
6.40321E-04 9.49924E-20
6.85233E-04 8.29362E-20
7.31665E-04 7.27289E-20
7.79618E-04 6.40416E-20
8.29092E-04 5.66103E-20
8.80086E-04 5.02240E-20
9.32601E-04 4.47111E-20
9.86636E-04 3.99326E-20
1.04219E-03 3.57742E-20
1.09927E-03 3.21419E-20
1.15786E-03 2.89579E-20
1.21797E-03 2.61576E-20
1.27961E-03 2.36868E-20
1.34276E-03 2.15003E-20
1.40743E-03 1.95596E-20
1.47362E-03 1.78324E-20
1.54133E-03 1.62912E-20
1.61056E-03 1.49125E-20
1.68131E-03 1.36761E-20
1.75357E-03 1.25649E-20
1.82735E-03 1.15640E-20
1.90265E-03 1.06604E-20
1.97947E-03 9.84316E-21
2.05780E-03 9.10248E-21
2.13765E-03 8.42995E-21
2.21902E-03 7.81820E-21
2.30190E-03 7.26077E-21
2.38630E-03 6.75197E-21
2.47222E-03 6.28682E-21
2.55965E-03 5.86090E-21
2.64859E-03 5.47031E-21
2.73905E-03 5.11162E-21
2.83103E-03 4.78174E-21
2.92452E-03 4.47794E-21
3.01952E-03 4.19781E-21
3.11604E-03 3.93916E-21
3.21407E-03 3.70005E-21
3.31362E-03 3.47874E-21
3.41468E-03 3.27367E-21
3.51725E-03 3.08342E-21
3.62133E-03 2.90674E-21
3.72692E-03 2.74249E-21
3.83403E-03 2.58962E-21
3.94265E-03 2.44722E-21
4.05278E-03 2.31442E-21
4.16442E-03 2.19048E-21
4.27757E-03 2.07469E-21
4.39223E-03 1.96641E-21
4.50840E-03 1.86507E-21
4.62608E-03 1.77015E-21
4.74527E-03 1.68116E-21
4.86597E-03 1.59767E-21
4.98817E-03 1.51927E-21
5.11188E-03 1.44560E-21
5.23711E-03 1.37632E-21
5.36383E-03 1.31112E-21
5.49207E-03 1.24972E-21
5.62181E-03 1.19185E-21
5.75306E-03 1.13728E-21
5.88581E-03 1.08578E-21
6.02007E-03 1.03714E-21
6.15583E-03 9.91187E-22
6.29310E-03 9.47736E-22
6.43187E-03 9.06627E-22
6.57214E-03 8.67711E-22
6.71392E-03 8.30849E-22
6.85720E-03 7.95912E-22
7.00198E-03 7.62783E-22
7.14827E-03 7.31350E-22
7.29605E-03 7.01510E-22
7.44534E-03 6.73168E-22
7.59612E-03 6.46236E-22
7.97965E-03 5.84536E-22
8.37255E-03 5.29985E-22
8.77480E-03 4.81616E-22
9.18641E-03 4.38611E-22
9.60736E-03 4.00272E-22
1.00376E-02 3.66005E-22
1.04773E-02 3.35306E-22
1.09262E-02 3.07740E-22
1.13844E-02 2.82929E-22
1.18520E-02 2.60553E-22
1.23288E-02 2.40332E-22
1.28150E-02 2.22021E-22
1.33104E-02 2.05408E-22
1.38150E-02 1.90310E-22
1.43290E-02 1.76564E-22
1.48521E-02 1.64027E-22
1.53845E-02 1.52575E-22
1.59262E-02 1.42098E-22
1.64770E-02 1.32497E-22
1.70371E-02 1.23687E-22
1.76063E-02 1.15592E-22
1.81848E-02 1.08143E-22
1.87724E-02 1.01278E-22
1.93692E-02 9.49460E-23
1.99751E-02 8.90965E-23
2.05901E-02 8.36863E-23
2.12143E-02 7.86770E-23
2.18476E-02 7.40337E-23
2.24900E-02 6.97245E-23
2.31415E-02 6.57213E-23
2.38021E-02 6.19989E-23
2.44717E-02 5.85334E-23
2.51504E-02 5.53044E-23
2.58382E-02 5.22930E-23
2.65349E-02 4.94813E-23
2.72407E-02 4.68544E-23
2.79555E-02 4.43977E-23
2.86793E-02 4.20980E-23
2.94120E-02 3.99439E-23
3.01537E-02 3.79242E-23
3.09043E-02 3.60292E-23
3.16639E-02 3.42497E-23
3.24324E-02 3.25775E-23
3.32098E-02 3.10049E-23
3.39961E-02 2.95250E-23
3.47912E-02 2.81313E-23
3.55952E-02 2.68178E-23
3.64081E-02 2.55793E-23
3.72297E-02 2.44105E-23
3.80602E-02 2.33068E-23
3.88995E-02 2.22641E-23
3.97476E-02 2.12783E-23
4.06044E-02 2.03457E-23
4.14700E-02 1.94630E-23
4.23443E-02 1.86271E-23
4.32273E-02 1.78349E-23
4.41190E-02 1.70838E-23
4.50194E-02 1.63713E-23
4.59284E-02 1.56951E-23
4.68461E-02 1.50529E-23
4.87074E-02 1.38628E-23
5.06030E-02 1.27865E-23
5.25328E-02 1.18111E-23
5.44967E-02 1.09256E-23
5.64946E-02 1.01203E-23
5.85262E-02 9.38677E-24
6.05914E-02 8.71747E-24
6.26901E-02 8.10585E-24
6.48222E-02 7.54608E-24
6.69873E-02 7.03301E-24
6.91854E-02 6.56209E-24
7.14163E-02 6.12927E-24
7.36799E-02 5.73093E-24
7.59760E-02 5.36385E-24
7.83043E-02 5.02517E-24
8.06647E-02 4.71231E-24
8.30571E-02 4.42297E-24
8.54812E-02 4.15507E-24
8.79369E-02 3.90676E-24
9.04240E-02 3.67635E-24
9.29422E-02 3.46233E-24
9.54915E-02 3.26334E-24
9.80716E-02 3.07815E-24
1.00682E-01 2.90562E-24
1.03323E-01 2.74475E-24
1.05995E-01 2.59462E-24
1.08696E-01 2.45438E-24
1.11427E-01 2.32326E-24
1.14188E-01 2.20059E-24
1.16978E-01 2.08571E-24
1.19797E-01 1.97805E-24
1.22645E-01 1.87707E-24
1.25522E-01 1.78230E-24
1.28428E-01 1.69327E-24
1.31361E-01 1.60960E-24
1.34323E-01 1.53089E-24
1.37313E-01 1.45681E-24
1.40330E-01 1.38703E-24
1.43375E-01 1.32126E-24
1.46447E-01 1.25923E-24
1.49545E-01 1.20070E-24
1.52671E-01 1.14543E-24
1.55823E-01 1.09321E-24
1.59001E-01 1.04384E-24
1.62205E-01 9.97147E-25
1.65435E-01 9.52951E-25
1.68690E-01 9.11098E-25
1.71970E-01 8.71445E-25
1.75276E-01 8.33855E-25
1.78606E-01 7.98202E-25
1.81961E-01 7.64371E-25
1.85340E-01 7.32252E-25
1.88743E-01 7.01744E-25
1.92169E-01 6.72752E-25
1.95619E-01 6.45188E-25
1.99092E-01 6.18970E-25
2.02589E-01 5.94021E-25
2.06107E-01 5.70269E-25
2.09649E-01 5.47647E-25
2.13212E-01 5.26093E-25
2.16797E-01 5.05547E-25
2.20404E-01 4.85954E-25
2.24032E-01 4.67262E-25
2.27680E-01 4.49424E-25
2.31350E-01 4.32393E-25
2.35040E-01 4.16127E-25
2.38751E-01 4.00586E-25
2.42481E-01 3.85731E-25
2.46231E-01 3.71529E-25
2.50000E-01 3.57945E-25
2.53788E-01 3.44947E-25
2.57595E-01 3.32507E-25
2.61421E-01 3.20596E-25
2.65264E-01 3.09188E-25
2.69126E-01 2.98258E-25
2.73005E-01 2.87784E-25
2.76901E-01 2.77742E-25
2.80814E-01 2.68112E-25
2.84744E-01 2.58874E-25
2.88691E-01 2.50010E-25
2.92653E-01 2.41502E-25
2.96632E-01 2.33333E-25
3.00625E-01 2.25488E-25
3.04634E-01 2.17952E-25
3.08658E-01 2.10710E-25
3.12697E-01 2.03750E-25
3.16749E-01 1.97057E-25
3.20816E-01 1.90622E-25
3.24896E-01 1.84431E-25
3.28990E-01 1.78474E-25
3.33097E-01 1.72741E-25
3.37216E-01 1.67222E-25
3.41348E-01 1.61907E-25
3.45492E-01 1.56789E-25
3.49647E-01 1.51858E-25
3.53814E-01 1.47107E-25
3.57992E-01 1.42528E-25
3.62181E-01 1.38113E-25
3.66381E-01 1.33856E-25
3.70590E-01 1.29751E-25
3.74810E-01 1.25790E-25
3.79039E-01 1.21969E-25
3.83277E-01 1.18281E-25
3.87524E-01 1.14721E-25
3.91780E-01 1.11284E-25
3.96044E-01 1.07965E-25
4.00316E-01 1.04759E-25
4.04596E-01 1.01662E-25
4.08882E-01 9.86698E-26
4.13176E-01 9.57777E-26
4.17476E-01 9.29822E-26
4.21783E-01 9.02795E-26
4.26095E-01 8.76660E-26
4.30413E-01 8.51383E-26
4.34737E-01 8.26933E-26
4.39065E-01 8.03276E-26
4.43398E-01 7.80384E-26
4.47736E-01 7.58229E-26
4.52077E-01 7.36782E-26
4.56422E-01 7.16018E-26
4.60770E-01 6.95911E-26
4.65122E-01 6.76438E-26
4.69476E-01 6.57575E-26
4.73832E-01 6.39301E-26
4.78190E-01 6.21593E-26
4.82550E-01 6.04433E-26
4.86912E-01 5.87801E-26
4.91274E-01 5.71677E-26
4.95637E-01 5.56044E-26
5.00000E-01 5.40884E-26
5.04363E-01 5.26182E-26
5.08726E-01 5.11921E-26
5.13088E-01 4.98086E-26
5.17450E-01 4.84663E-26
5.21810E-01 4.71637E-26
5.26168E-01 4.58995E-26
5.30524E-01 4.46724E-26
5.34878E-01 4.34811E-26
5.39230E-01 4.23245E-26
5.43578E-01 4.12013E-26
5.47923E-01 4.01105E-26
5.52264E-01 3.90511E-26
5.56602E-01 3.80219E-26
5.60935E-01 3.70220E-26
5.65263E-01 3.60504E-26
5.69587E-01 3.51063E-26
5.73905E-01 3.41886E-26
5.78217E-01 3.32967E-26
5.82524E-01 3.24296E-26
5.86824E-01 3.15866E-26
5.91118E-01 3.07669E-26
5.95404E-01 2.99698E-26
5.99684E-01 2.91945E-26
6.03956E-01 2.84404E-26
6.08220E-01 2.77068E-26
6.12476E-01 2.69931E-26
6.16723E-01 2.62987E-26
6.20961E-01 2.56230E-26
6.25190E-01 2.49654E-26
6.29410E-01 2.43253E-26
6.33619E-01 2.37023E-26
6.37819E-01 2.30958E-26
6.42008E-01 2.25053E-26
6.46186E-01 2.19303E-26
6.50353E-01 2.13705E-26
6.54508E-01 2.08252E-26
6.58652E-01 2.02942E-26
6.62784E-01 1.97769E-26
6.66903E-01 1.92731E-26
6.71010E-01 1.87822E-26
6.75104E-01 1.83039E-26
6.79184E-01 1.78379E-26
6.83251E-01 1.73838E-26
6.87303E-01 1.69412E-26
6.91342E-01 1.65098E-26
6.95366E-01 1.60894E-26
6.99375E-01 1.56795E-26
7.03368E-01 1.52800E-26
7.07347E-01 1.48905E-26
7.11309E-01 1.45107E-26
7.15256E-01 1.41403E-26
7.19186E-01 1.37792E-26
7.23099E-01 1.34270E-26
7.26995E-01 1.30835E-26
7.30874E-01 1.27484E-26
7.34736E-01 1.24216E-26
7.38579E-01 1.21028E-26
7.42405E-01 1.17917E-26
7.46212E-01 1.14883E-26
7.50000E-01 1.11922E-26
7.53769E-01 1.09033E-26
7.57519E-01 1.06214E-26
7.61249E-01 1.03463E-26
7.64960E-01 1.00778E-26
7.68650E-01 9.81580E-27
7.72320E-01 9.56004E-27
7.75968E-01 9.31040E-27
7.79596E-01 9.06672E-27
7.83203E-01 8.82884E-27
7.86788E-01 8.59661E-27
7.90351E-01 8.36989E-27
7.93893E-01 8.14854E-27
7.97411E-01 7.93242E-27
8.00908E-01 7.72140E-27
8.04381E-01 7.51535E-27
8.07831E-01 7.31415E-27
8.11257E-01 7.11767E-27
8.14660E-01 6.92580E-27
8.18039E-01 6.73842E-27
8.21394E-01 6.55542E-27
8.24724E-01 6.37669E-27
8.28030E-01 6.20213E-27
8.31310E-01 6.03165E-27
8.34565E-01 5.86513E-27
8.37795E-01 5.70248E-27
8.40999E-01 5.54362E-27
8.44177E-01 5.38844E-27
8.47329E-01 5.23687E-27
8.50455E-01 5.08881E-27
8.53553E-01 4.94419E-27
8.56625E-01 4.80293E-27
8.59670E-01 4.66493E-27
8.62687E-01 4.53014E-27
8.65677E-01 4.39847E-27
8.68639E-01 4.26986E-27
8.71572E-01 4.14422E-27
8.74478E-01 4.02151E-27
8.77355E-01 3.90164E-27
8.80203E-01 3.78456E-27
8.83022E-01 3.67021E-27
8.85812E-01 3.55851E-27
8.88573E-01 3.44942E-27
8.91304E-01 3.34288E-27
8.94005E-01 3.23883E-27
8.96677E-01 3.13721E-27
8.99318E-01 3.03798E-27
9.01928E-01 2.94108E-27
9.04508E-01 2.84646E-27
9.07058E-01 2.75408E-27
9.09576E-01 2.66389E-27
9.12063E-01 2.57584E-27
9.14519E-01 2.48989E-27
9.16943E-01 2.40599E-27
9.19335E-01 2.32410E-27
9.21696E-01 2.24419E-27
9.24024E-01 2.16621E-27
9.26320E-01 2.09012E-27
9.28584E-01 2.01589E-27
9.30815E-01 1.94348E-27
9.33013E-01 1.87286E-27
9.35178E-01 1.80398E-27
9.37310E-01 1.73682E-27
9.39409E-01 1.67135E-27
9.41474E-01 1.60752E-27
9.43505E-01 1.54533E-27
9.45503E-01 1.48472E-27
9.47467E-01 1.42567E-27
9.49397E-01 1.36817E-27
9.51293E-01 1.31217E-27
9.53154E-01 1.25765E-27
9.54981E-01 1.20459E-27
9.56773E-01 1.15296E-27
9.58530E-01 1.10273E-27
9.60252E-01 1.05389E-27
9.61940E-01 1.00641E-27
9.63592E-01 9.60276E-28
9.65209E-01 9.15455E-28
9.66790E-01 8.71931E-28
9.68336E-01 8.29685E-28
9.69846E-01 7.88696E-28
9.71321E-01 7.48947E-28
9.72759E-01 7.10418E-28
9.74162E-01 6.73094E-28
9.75528E-01 6.36955E-28
9.76858E-01 6.01988E-28
9.78152E-01 5.68174E-28
9.79410E-01 5.35500E-28
9.80631E-01 5.03951E-28
9.81815E-01 4.73512E-28
9.82963E-01 4.44170E-28
9.84074E-01 4.15911E-28
9.85148E-01 3.88724E-28
9.86185E-01 3.62596E-28
9.87185E-01 3.37515E-28
9.88148E-01 3.13470E-28
9.89074E-01 2.90451E-28
9.89962E-01 2.68448E-28
9.90814E-01 2.47451E-28
9.91627E-01 2.27450E-28
9.92404E-01 2.08437E-28
9.93143E-01 1.90403E-28
9.93844E-01 1.73341E-28
9.94508E-01 1.57243E-28
9.95134E-01 1.42102E-28
9.95722E-01 1.27911E-28
9.96273E-01 1.14664E-28
9.96786E-01 1.02356E-28
9.97261E-01 9.09812E-29
9.97698E-01 8.05342E-29
9.98097E-01 7.10107E-29
9.98459E-01 6.24067E-29
9.98782E-01 5.47184E-29
9.99067E-01 4.79424E-29
9.99315E-01 4.20757E-29
9.99524E-01 3.71160E-29
9.99695E-01 3.30609E-29
9.99829E-01 2.99088E-29
9.99924E-01 2.76583E-29
9.99981E-01 2.63083E-29
1.00000E+00 2.58584E-29
