 #
 # Subroutine ELSEPA. Elastic scattering of electrons and positrons
 #                    by neutral atoms and positive ions
 #
 # Projectile: positron
 # Kinetic energy = 2.00000E+08 eV = 7.34987E+06 a.u.
 #
 # WARNING: High-energy factorization with free-atom DF screening.
 #          Absorption, polarization and exchange corrections are
 #          switched off.
 #          Phase shifts are calculated for the bare nucleus.
 #          Scattering amplitudes are not evaluated.
 #
 # Element: La,  Z =  57,  atomic weight = 1.38905E+02 g/mol
 #
 # Nuclear model: Fermi distribution
 #                Average radius = 5.54145E-13 cm
 #                Skin thickness = 5.46000E-14 cm
 #
 # Number of electrons = 57
 #
 # Total elastic cross section = 7.53192E-18 cm**2 = 2.68970E-01 a0**2
 # 1st transport cross section = 1.55401E-25 cm**2 = 5.54949E-09 a0**2
 # 2nd transport cross section = 4.65046E-25 cm**2 = 1.66071E-08 a0**2
 #
 #
 # Differential cross section:                       MU=(1-COS(THETA))/2
 #
 #  THETA        MU          DCS          DCS        Sherman      error
 #  (deg)                 (cm**2/sr)   (a0**2/sr)    function
 #----------------------------------------------------------------------
0.00000E+00 4.73194E-09
7.61557E-13 4.63448E-09
1.18994E-12 4.58109E-09
1.71346E-12 4.51718E-09
2.33225E-12 4.44347E-09
3.04617E-12 4.36080E-09
3.85530E-12 4.27006E-09
4.75964E-12 4.17222E-09
5.75917E-12 4.06829E-09
6.85391E-12 3.95985E-09
8.04379E-12 3.84644E-09
9.32893E-12 3.72974E-09
1.07092E-11 3.61159E-09
1.21847E-11 3.49095E-09
1.37554E-11 3.37042E-09
1.54213E-11 3.25017E-09
1.71823E-11 3.12951E-09
1.90386E-11 3.01193E-09
2.09900E-11 2.89553E-09
2.30367E-11 2.78062E-09
2.51785E-11 2.67034E-09
2.74156E-11 2.56183E-09
2.97478E-11 2.45667E-09
3.21752E-11 2.35590E-09
3.46979E-11 2.25756E-09
3.73157E-11 2.16379E-09
4.00286E-11 2.07379E-09
4.28368E-11 1.98649E-09
4.57402E-11 1.90441E-09
4.87388E-11 1.82532E-09
5.18325E-11 1.74932E-09
5.50215E-11 1.67797E-09
5.83057E-11 1.60922E-09
6.16850E-11 1.54387E-09
6.51595E-11 1.48210E-09
6.87293E-11 1.42274E-09
7.23943E-11 1.36677E-09
7.61544E-11 1.31352E-09
1.18991E-10 9.04309E-10
1.71347E-10 6.49652E-10
2.33223E-10 4.81809E-10
3.04617E-10 3.65434E-10
3.85531E-10 2.81810E-10
4.75965E-10 2.20330E-10
5.75917E-10 1.74386E-10
6.85389E-10 1.38670E-10
8.04380E-10 1.12792E-10
9.32891E-10 9.29585E-11
1.07092E-09 7.68347E-11
1.21847E-09 6.45466E-11
1.37554E-09 5.45061E-11
1.54213E-09 4.63225E-11
1.71823E-09 3.98429E-11
1.90386E-09 3.42416E-11
2.09900E-09 2.96579E-11
2.30367E-09 2.58911E-11
2.51785E-09 2.25527E-11
2.74156E-09 1.97973E-11
2.97478E-09 1.74424E-11
3.21752E-09 1.53779E-11
3.46978E-09 1.36412E-11
3.73156E-09 1.21169E-11
4.00286E-09 1.07929E-11
4.28368E-09 9.66144E-12
4.57402E-09 8.65207E-12
4.87388E-09 7.77816E-12
5.18326E-09 7.01778E-12
5.50215E-09 6.33945E-12
5.83057E-09 5.74759E-12
6.16850E-09 5.22434E-12
6.51596E-09 4.75843E-12
6.87293E-09 4.34752E-12
7.23942E-09 3.97962E-12
7.61544E-09 3.65129E-12
1.18991E-08 1.71453E-12
1.71347E-08 9.18857E-13
2.33223E-08 5.34251E-13
3.04617E-08 3.29431E-13
3.85531E-08 2.13078E-13
4.75965E-08 1.43698E-13
5.75917E-08 1.00382E-13
6.85389E-08 7.22887E-14
8.04380E-08 5.34083E-14
9.32891E-08 4.03325E-14
1.07092E-07 3.10393E-14
1.21847E-07 2.42803E-14
1.37554E-07 1.92665E-14
1.54213E-07 1.54825E-14
1.71823E-07 1.25823E-14
1.90386E-07 1.03292E-14
2.09900E-07 8.55745E-15
2.30367E-07 7.14864E-15
2.51785E-07 6.01737E-15
2.74156E-07 5.10026E-15
2.97478E-07 4.35090E-15
3.21752E-07 3.73391E-15
3.46978E-07 3.22224E-15
3.73156E-07 2.79510E-15
4.00286E-07 2.43630E-15
4.28368E-07 2.13318E-15
4.57402E-07 1.87569E-15
4.87388E-07 1.65586E-15
5.18325E-07 1.46728E-15
5.50215E-07 1.30478E-15
5.83057E-07 1.16414E-15
6.16850E-07 1.04194E-15
6.51596E-07 9.35356E-16
6.87293E-07 8.42060E-16
7.23942E-07 7.60113E-16
7.61543E-07 6.87899E-16
1.18991E-06 2.85039E-16
1.71347E-06 1.38576E-16
2.33223E-06 7.52397E-17
3.04617E-06 4.42945E-17
3.85531E-06 2.77414E-17
4.75964E-06 1.82447E-17
5.75916E-06 1.24839E-17
6.85388E-06 8.82661E-18
8.04378E-06 6.41509E-18
9.32888E-06 4.77328E-18
1.07092E-05 3.62440E-18
1.21846E-05 2.80111E-18
1.37553E-05 2.19875E-18
1.54212E-05 1.74986E-18
1.71822E-05 1.40984E-18
1.90385E-05 1.14811E-18
2.09899E-05 9.45058E-19
2.30365E-05 7.84868E-19
2.51783E-05 6.57085E-19
2.74153E-05 5.54169E-19
2.97475E-05 4.70575E-19
3.21749E-05 4.02154E-19
3.46974E-05 3.45745E-19
3.73152E-05 2.98914E-19
4.00281E-05 2.59769E-19
4.28362E-05 2.26835E-19
4.57395E-05 1.98955E-19
4.87380E-05 1.75219E-19
5.18317E-05 1.54909E-19
5.50205E-05 1.37450E-19
5.83045E-05 1.22379E-19
6.16838E-05 1.09317E-19
6.51582E-05 9.79543E-20
6.87277E-05 8.80327E-20
7.23925E-05 7.93372E-20
7.61524E-05 7.17944E-20
9.21439E-05 4.90200E-20
1.09658E-04 3.45966E-20
1.28695E-04 2.51091E-20
1.49255E-04 1.86589E-20
1.71338E-04 1.41529E-20
1.94942E-04 1.09274E-20
2.20070E-04 8.57006E-21
2.46720E-04 6.81500E-21
2.74892E-04 5.48653E-21
3.04586E-04 4.46629E-21
3.35803E-04 3.67220E-21
3.68542E-04 3.04678E-21
4.02802E-04 2.54880E-21
4.38585E-04 2.14834E-21
4.75889E-04 1.82339E-21
5.14715E-04 1.55747E-21
5.55063E-04 1.33821E-21
5.96931E-04 1.15609E-21
6.40321E-04 1.00383E-21
6.85233E-04 8.75750E-22
7.31665E-04 7.67390E-22
7.79618E-04 6.75222E-22
8.29092E-04 5.96428E-22
8.80086E-04 5.28749E-22
9.32601E-04 4.70358E-22
9.86636E-04 4.19768E-22
1.04219E-03 3.75764E-22
1.09927E-03 3.37343E-22
1.15786E-03 3.03680E-22
1.21797E-03 2.74085E-22
1.27961E-03 2.47984E-22
1.34276E-03 2.24894E-22
1.40743E-03 2.04409E-22
1.47362E-03 1.86185E-22
1.54133E-03 1.69929E-22
1.61056E-03 1.55393E-22
1.68131E-03 1.42363E-22
1.75357E-03 1.30657E-22
1.82735E-03 1.20117E-22
1.90265E-03 1.10606E-22
1.97947E-03 1.02008E-22
2.05780E-03 9.42183E-23
2.13765E-03 8.71489E-23
2.21902E-03 8.07213E-23
2.30190E-03 7.48672E-23
2.38630E-03 6.95266E-23
2.47222E-03 6.46466E-23
2.55965E-03 6.01805E-23
2.64859E-03 5.60873E-23
2.73905E-03 5.23302E-23
2.83103E-03 4.88770E-23
2.92452E-03 4.56988E-23
3.01952E-03 4.27699E-23
3.11604E-03 4.00673E-23
3.21407E-03 3.75705E-23
3.31362E-03 3.52612E-23
3.41468E-03 3.31227E-23
3.51725E-03 3.11403E-23
3.62133E-03 2.93006E-23
3.72692E-03 2.75916E-23
3.83403E-03 2.60023E-23
3.94265E-03 2.45229E-23
4.05278E-03 2.31446E-23
4.16442E-03 2.18592E-23
4.27757E-03 2.06593E-23
4.39223E-03 1.95383E-23
4.50840E-03 1.84902E-23
4.62608E-03 1.75093E-23
4.74527E-03 1.65906E-23
4.86597E-03 1.57295E-23
4.98817E-03 1.49218E-23
5.11188E-03 1.41636E-23
5.23711E-03 1.34513E-23
5.36383E-03 1.27817E-23
5.49207E-03 1.21517E-23
5.62181E-03 1.15588E-23
5.75306E-03 1.10002E-23
5.88581E-03 1.04737E-23
6.02007E-03 9.97707E-24
6.15583E-03 9.50840E-24
6.29310E-03 9.06583E-24
6.43187E-03 8.64766E-24
6.57214E-03 8.25232E-24
6.71392E-03 7.87835E-24
6.85720E-03 7.52440E-24
7.00198E-03 7.18923E-24
7.14827E-03 6.87167E-24
7.29605E-03 6.57065E-24
7.44534E-03 6.28515E-24
7.59612E-03 6.01426E-24
7.97965E-03 5.39532E-24
8.37255E-03 4.85030E-24
8.77480E-03 4.36905E-24
9.18641E-03 3.94302E-24
9.60736E-03 3.56492E-24
1.00376E-02 3.22859E-24
1.04773E-02 2.92873E-24
1.09262E-02 2.66082E-24
1.13844E-02 2.42098E-24
1.18520E-02 2.20583E-24
1.23288E-02 2.01249E-24
1.28150E-02 1.83842E-24
1.33104E-02 1.68145E-24
1.38150E-02 1.53967E-24
1.43290E-02 1.41139E-24
1.48521E-02 1.29518E-24
1.53845E-02 1.18973E-24
1.59262E-02 1.09392E-24
1.64770E-02 1.00676E-24
1.70371E-02 9.27364E-25
1.76063E-02 8.54951E-25
1.81848E-02 7.88831E-25
1.87724E-02 7.28389E-25
1.93692E-02 6.73078E-25
1.99751E-02 6.22410E-25
2.05901E-02 5.75949E-25
2.12143E-02 5.33304E-25
2.18476E-02 4.94127E-25
2.24900E-02 4.58102E-25
2.31415E-02 4.24947E-25
2.38021E-02 3.94410E-25
2.44717E-02 3.66261E-25
2.51504E-02 3.40292E-25
2.58382E-02 3.16319E-25
2.65349E-02 2.94170E-25
2.72407E-02 2.73695E-25
2.79555E-02 2.54753E-25
2.86793E-02 2.37219E-25
2.94120E-02 2.20978E-25
3.01537E-02 2.05926E-25
3.09043E-02 1.91968E-25
3.16639E-02 1.79018E-25
3.24324E-02 1.66995E-25
3.32098E-02 1.55829E-25
3.39961E-02 1.45452E-25
3.47912E-02 1.35806E-25
3.55952E-02 1.26833E-25
3.64081E-02 1.18484E-25
3.72297E-02 1.10712E-25
3.80602E-02 1.03474E-25
3.88995E-02 9.67303E-26
3.97476E-02 9.04454E-26
4.06044E-02 8.45859E-26
4.14700E-02 7.91210E-26
4.23443E-02 7.40225E-26
4.32273E-02 6.92642E-26
4.41190E-02 6.48222E-26
4.50194E-02 6.06741E-26
4.59284E-02 5.67996E-26
4.68461E-02 5.31794E-26
4.87074E-02 4.66336E-26
5.06030E-02 4.09109E-26
5.25328E-02 3.59036E-26
5.44967E-02 3.15188E-26
5.64946E-02 2.76763E-26
5.85262E-02 2.43069E-26
6.05914E-02 2.13508E-26
6.26901E-02 1.87560E-26
6.48222E-02 1.64773E-26
6.69873E-02 1.44756E-26
6.91854E-02 1.27165E-26
7.14163E-02 1.11704E-26
7.36799E-02 9.81114E-27
7.59760E-02 8.61605E-27
7.83043E-02 7.56522E-27
8.06647E-02 6.64119E-27
8.30571E-02 5.82869E-27
8.54812E-02 5.11431E-27
8.79369E-02 4.48628E-27
9.04240E-02 3.93424E-27
9.29422E-02 3.44910E-27
9.54915E-02 3.02287E-27
9.80716E-02 2.64849E-27
1.00682E-01 2.31976E-27
1.03323E-01 2.03123E-27
1.05995E-01 1.77808E-27
1.08696E-01 1.55607E-27
1.11427E-01 1.36146E-27
1.14188E-01 1.19095E-27
1.16978E-01 1.04163E-27
1.19797E-01 9.10947E-28
1.22645E-01 7.96634E-28
1.25522E-01 6.96702E-28
1.28428E-01 6.09392E-28
1.31361E-01 5.33157E-28
1.34323E-01 4.66633E-28
1.37313E-01 4.08618E-28
1.40330E-01 3.58054E-28
1.43375E-01 3.14010E-28
1.46447E-01 2.75667E-28
1.49545E-01 2.42303E-28
1.52671E-01 2.13286E-28
1.55823E-01 1.88060E-28
1.59001E-01 1.66136E-28
1.62205E-01 1.47086E-28
1.65435E-01 1.30536E-28
1.68690E-01 1.16157E-28
1.71970E-01 1.03661E-28
1.75276E-01 9.27974E-29
1.78606E-01 8.33474E-29
1.81961E-01 7.51198E-29
1.85340E-01 6.79480E-29
1.88743E-01 6.16873E-29
1.92169E-01 5.62121E-29
1.95619E-01 5.14132E-29
1.99092E-01 4.71963E-29
2.02589E-01 4.34795E-29
2.06107E-01 4.01926E-29
2.09649E-01 3.72746E-29
2.13212E-01 3.46733E-29
2.16797E-01 3.23439E-29
2.20404E-01 3.02479E-29
2.24032E-01 2.83525E-29
2.27680E-01 2.66295E-29
2.31350E-01 2.50551E-29
2.35040E-01 2.36091E-29
2.38751E-01 2.22742E-29
2.42481E-01 2.10359E-29
2.46231E-01 1.98820E-29
2.50000E-01 1.88022E-29
2.53788E-01 1.77878E-29
2.57595E-01 1.68315E-29
2.61421E-01 1.59274E-29
2.65264E-01 1.50703E-29
2.69126E-01 1.42560E-29
2.73005E-01 1.34811E-29
2.76901E-01 1.27426E-29
2.80814E-01 1.20379E-29
2.84744E-01 1.13652E-29
2.88691E-01 1.07226E-29
2.92653E-01 1.01086E-29
2.96632E-01 9.52208E-30
3.00625E-01 8.96182E-30
3.04634E-01 8.42688E-30
3.08658E-01 7.91639E-30
3.12697E-01 7.42956E-30
3.16749E-01 6.96565E-30
3.20816E-01 6.52397E-30
3.24896E-01 6.10384E-30
3.28990E-01 5.70462E-30
3.33097E-01 5.32568E-30
3.37216E-01 4.96639E-30
3.41348E-01 4.62613E-30
3.45492E-01 4.30426E-30
3.49647E-01 4.00017E-30
3.53814E-01 3.71323E-30
3.57992E-01 3.44281E-30
3.62181E-01 3.18830E-30
3.66381E-01 2.94906E-30
3.70590E-01 2.72448E-30
3.74810E-01 2.51393E-30
3.79039E-01 2.31680E-30
3.83277E-01 2.13248E-30
3.87524E-01 1.96037E-30
3.91780E-01 1.79988E-30
3.96044E-01 1.65043E-30
4.00316E-01 1.51146E-30
4.04596E-01 1.38241E-30
4.08882E-01 1.26274E-30
4.13176E-01 1.15192E-30
4.17476E-01 1.04945E-30
4.21783E-01 9.54846E-31
4.26095E-01 8.67622E-31
4.30413E-01 7.87325E-31
4.34737E-01 7.13519E-31
4.39065E-01 6.45782E-31
4.43398E-01 5.83715E-31
4.47736E-01 5.26933E-31
4.52077E-01 4.75072E-31
4.56422E-01 4.27785E-31
4.60770E-01 3.84743E-31
4.65122E-01 3.45633E-31
4.69476E-01 3.10162E-31
4.73832E-01 2.78051E-31
4.78190E-01 2.49037E-31
4.82550E-01 2.22875E-31
4.86912E-01 1.99334E-31
4.91274E-01 1.78196E-31
4.95637E-01 1.59258E-31
5.00000E-01 1.42332E-31
5.04363E-01 1.27240E-31
5.08726E-01 1.13819E-31
5.13088E-01 1.01916E-31
5.17450E-01 9.13882E-32
5.21810E-01 8.21057E-32
5.26168E-01 7.39469E-32
5.30524E-01 6.68000E-32
5.34878E-01 6.05620E-32
5.39230E-01 5.51382E-32
5.43578E-01 5.04416E-32
5.47923E-01 4.63928E-32
5.52264E-01 4.29189E-32
5.56602E-01 3.99535E-32
5.60935E-01 3.74364E-32
5.65263E-01 3.53127E-32
5.69587E-01 3.35325E-32
5.73905E-01 3.20510E-32
5.78217E-01 3.08277E-32
5.82524E-01 2.98261E-32
5.86824E-01 2.90135E-32
5.91118E-01 2.83606E-32
5.95404E-01 2.78414E-32
5.99684E-01 2.74329E-32
6.03956E-01 2.71144E-32
6.08220E-01 2.68680E-32
6.12476E-01 2.66778E-32
6.16723E-01 2.65301E-32
6.20961E-01 2.64128E-32
6.25190E-01 2.63157E-32
6.29410E-01 2.62298E-32
6.33619E-01 2.61477E-32
6.37819E-01 2.60630E-32
6.42008E-01 2.59707E-32
6.46186E-01 2.58664E-32
6.50353E-01 2.57467E-32
6.54508E-01 2.56089E-32
6.58652E-01 2.54512E-32
6.62784E-01 2.52720E-32
6.66903E-01 2.50705E-32
6.71010E-01 2.48462E-32
6.75104E-01 2.45991E-32
6.79184E-01 2.43293E-32
6.83251E-01 2.40375E-32
6.87303E-01 2.37243E-32
6.91342E-01 2.33907E-32
6.95366E-01 2.30378E-32
6.99375E-01 2.26668E-32
7.03368E-01 2.22789E-32
7.07347E-01 2.18756E-32
7.11309E-01 2.14583E-32
7.15256E-01 2.10283E-32
7.19186E-01 2.05872E-32
7.23099E-01 2.01363E-32
7.26995E-01 1.96771E-32
7.30874E-01 1.92110E-32
7.34736E-01 1.87393E-32
7.38579E-01 1.82633E-32
7.42405E-01 1.77844E-32
7.46212E-01 1.73036E-32
7.50000E-01 1.68222E-32
7.53769E-01 1.63412E-32
7.57519E-01 1.58617E-32
7.61249E-01 1.53846E-32
7.64960E-01 1.49107E-32
7.68650E-01 1.44411E-32
7.72320E-01 1.39763E-32
7.75968E-01 1.35170E-32
7.79596E-01 1.30641E-32
7.83203E-01 1.26179E-32
7.86788E-01 1.21791E-32
7.90351E-01 1.17481E-32
7.93893E-01 1.13252E-32
7.97411E-01 1.09110E-32
8.00908E-01 1.05057E-32
8.04381E-01 1.01095E-32
8.07831E-01 9.72263E-33
8.11257E-01 9.34536E-33
8.14660E-01 8.97778E-33
8.18039E-01 8.62000E-33
8.21394E-01 8.27210E-33
8.24724E-01 7.93410E-33
8.28030E-01 7.60603E-33
8.31310E-01 7.28785E-33
8.34565E-01 6.97954E-33
8.37795E-01 6.68103E-33
8.40999E-01 6.39222E-33
8.44177E-01 6.11303E-33
8.47329E-01 5.84332E-33
8.50455E-01 5.58296E-33
8.53553E-01 5.33181E-33
8.56625E-01 5.08969E-33
8.59670E-01 4.85644E-33
8.62687E-01 4.63188E-33
8.65677E-01 4.41581E-33
8.68639E-01 4.20805E-33
8.71572E-01 4.00839E-33
8.74478E-01 3.81662E-33
8.77355E-01 3.63254E-33
8.80203E-01 3.45594E-33
8.83022E-01 3.28660E-33
8.85812E-01 3.12431E-33
8.88573E-01 2.96885E-33
8.91304E-01 2.82002E-33
8.94005E-01 2.67759E-33
8.96677E-01 2.54137E-33
8.99318E-01 2.41113E-33
9.01928E-01 2.28668E-33
9.04508E-01 2.16781E-33
9.07058E-01 2.05432E-33
9.09576E-01 1.94601E-33
9.12063E-01 1.84269E-33
9.14519E-01 1.74417E-33
9.16943E-01 1.65027E-33
9.19335E-01 1.56081E-33
9.21696E-01 1.47560E-33
9.24024E-01 1.39449E-33
9.26320E-01 1.31729E-33
9.28584E-01 1.24386E-33
9.30815E-01 1.17402E-33
9.33013E-01 1.10764E-33
9.35178E-01 1.04456E-33
9.37310E-01 9.84630E-34
9.39409E-01 9.27725E-34
9.41474E-01 8.73706E-34
9.43505E-01 8.22443E-34
9.45503E-01 7.73811E-34
9.47467E-01 7.27694E-34
9.49397E-01 6.83973E-34
9.51293E-01 6.42536E-34
9.53154E-01 6.03278E-34
9.54981E-01 5.66097E-34
9.56773E-01 5.30892E-34
9.58530E-01 4.97571E-34
9.60252E-01 4.66041E-34
9.61940E-01 4.36216E-34
9.63592E-01 4.08014E-34
9.65209E-01 3.81355E-34
9.66790E-01 3.56161E-34
9.68336E-01 3.32359E-34
9.69846E-01 3.09880E-34
9.71321E-01 2.88660E-34
9.72759E-01 2.68634E-34
9.74162E-01 2.49742E-34
9.75528E-01 2.31924E-34
9.76858E-01 2.15128E-34
9.78152E-01 1.99302E-34
9.79410E-01 1.84395E-34
9.80631E-01 1.70360E-34
9.81815E-01 1.57153E-34
9.82963E-01 1.44731E-34
9.84074E-01 1.33055E-34
9.85148E-01 1.22085E-34
9.86185E-01 1.11786E-34
9.87185E-01 1.02124E-34
9.88148E-01 9.30657E-35
9.89074E-01 8.45827E-35
9.89962E-01 7.66442E-35
9.90814E-01 6.92246E-35
9.91627E-01 6.22975E-35
9.92404E-01 5.58402E-35
9.93143E-01 4.98280E-35
9.93844E-01 4.42423E-35
9.94508E-01 3.90631E-35
9.95134E-01 3.42719E-35
9.95722E-01 2.98519E-35
9.96273E-01 2.57862E-35
9.96786E-01 2.20620E-35
9.97261E-01 1.86650E-35
9.97698E-01 1.55842E-35
9.98097E-01 1.28064E-35
9.98459E-01 1.03227E-35
9.98782E-01 8.12472E-36
9.99067E-01 6.20364E-36
9.99315E-01 4.55275E-36
9.99524E-01 3.16575E-36
9.99695E-01 2.03807E-36
9.99829E-01 1.16503E-36
9.99924E-01 5.43650E-37
9.99981E-01 1.71812E-37
1.00000E+00 4.79754E-38
