 #
 # Subroutine ELSEPA. Elastic scattering of electrons and positrons
 #                    by neutral atoms and positive ions
 #
 # Projectile: positron
 # Kinetic energy = 3.50000E+06 eV = 1.28623E+05 a.u.
 #
 # WARNING: High-energy factorization with free-atom DF screening.
 #          Absorption, polarization and exchange corrections are
 #          switched off.
 #          Phase shifts are calculated for the bare nucleus.
 #          Scattering amplitudes are not evaluated.
 #
 # Element: La,  Z =  57,  atomic weight = 1.38905E+02 g/mol
 #
 # Nuclear model: Fermi distribution
 #                Average radius = 5.54145E-13 cm
 #                Skin thickness = 5.46000E-14 cm
 #
 # Number of electrons = 57
 #
 # Total elastic cross section = 7.64596E-18 cm**2 = 2.73042E-01 a0**2
 # 1st transport cross section = 2.47646E-22 cm**2 = 8.84360E-06 a0**2
 # 2nd transport cross section = 7.10569E-22 cm**2 = 2.53749E-05 a0**2
 #
 #
 # Differential cross section:                       MU=(1-COS(THETA))/2
 #
 #  THETA        MU          DCS          DCS        Sherman      error
 #  (deg)                 (cm**2/sr)   (a0**2/sr)    function
 #----------------------------------------------------------------------
0.00000E+00 1.89351E-12
7.61557E-13 1.89349E-12
1.18994E-12 1.89348E-12
1.71346E-12 1.89347E-12
2.33225E-12 1.89346E-12
3.04617E-12 1.89344E-12
3.85530E-12 1.89343E-12
4.75964E-12 1.89341E-12
5.75917E-12 1.89339E-12
6.85391E-12 1.89336E-12
8.04379E-12 1.89334E-12
9.32893E-12 1.89331E-12
1.07092E-11 1.89328E-12
1.21847E-11 1.89325E-12
1.37554E-11 1.89322E-12
1.54213E-11 1.89318E-12
1.71823E-11 1.89315E-12
1.90386E-11 1.89311E-12
2.09900E-11 1.89307E-12
2.30367E-11 1.89303E-12
2.51785E-11 1.89298E-12
2.74156E-11 1.89294E-12
2.97478E-11 1.89289E-12
3.21752E-11 1.89284E-12
3.46979E-11 1.89279E-12
3.73157E-11 1.89273E-12
4.00286E-11 1.89267E-12
4.28368E-11 1.89262E-12
4.57402E-11 1.89256E-12
4.87388E-11 1.89250E-12
5.18325E-11 1.89243E-12
5.50215E-11 1.89237E-12
5.83057E-11 1.89230E-12
6.16850E-11 1.89223E-12
6.51595E-11 1.89216E-12
6.87293E-11 1.89208E-12
7.23943E-11 1.89201E-12
7.61544E-11 1.89193E-12
1.18991E-10 1.89105E-12
1.71347E-10 1.88997E-12
2.33223E-10 1.88871E-12
3.04617E-10 1.88725E-12
3.85531E-10 1.88559E-12
4.75965E-10 1.88375E-12
5.75917E-10 1.88172E-12
6.85389E-10 1.87950E-12
8.04380E-10 1.87709E-12
9.32891E-10 1.87449E-12
1.07092E-09 1.87170E-12
1.21847E-09 1.86874E-12
1.37554E-09 1.86559E-12
1.54213E-09 1.86226E-12
1.71823E-09 1.85875E-12
1.90386E-09 1.85506E-12
2.09900E-09 1.85119E-12
2.30367E-09 1.84715E-12
2.51785E-09 1.84294E-12
2.74156E-09 1.83856E-12
2.97478E-09 1.83400E-12
3.21752E-09 1.82929E-12
3.46978E-09 1.82440E-12
3.73156E-09 1.81936E-12
4.00286E-09 1.81415E-12
4.28368E-09 1.80879E-12
4.57402E-09 1.80328E-12
4.87388E-09 1.79761E-12
5.18326E-09 1.79179E-12
5.50215E-09 1.78582E-12
5.83057E-09 1.77971E-12
6.16850E-09 1.77346E-12
6.51596E-09 1.76707E-12
6.87293E-09 1.76054E-12
7.23942E-09 1.75388E-12
7.61544E-09 1.74708E-12
1.18991E-08 1.67260E-12
1.71347E-08 1.58863E-12
2.33223E-08 1.49749E-12
3.04617E-08 1.40292E-12
3.85531E-08 1.30728E-12
4.75965E-08 1.21247E-12
5.75917E-08 1.12035E-12
6.85389E-08 1.03315E-12
8.04380E-08 9.50778E-13
9.32891E-08 8.73810E-13
1.07092E-07 8.02935E-13
1.21847E-07 7.38162E-13
1.37554E-07 6.78871E-13
1.54213E-07 6.24853E-13
1.71823E-07 5.76208E-13
1.90386E-07 5.32115E-13
2.09900E-07 4.92133E-13
2.30367E-07 4.55969E-13
2.51785E-07 4.23356E-13
2.74156E-07 3.93722E-13
2.97478E-07 3.66786E-13
3.21752E-07 3.42317E-13
3.46978E-07 3.20004E-13
3.73156E-07 2.99597E-13
4.00286E-07 2.80910E-13
4.28368E-07 2.63742E-13
4.57402E-07 2.47935E-13
4.87388E-07 2.33362E-13
5.18325E-07 2.19892E-13
5.50215E-07 2.07386E-13
5.83057E-07 1.95789E-13
6.16850E-07 1.85021E-13
6.51596E-07 1.74970E-13
6.87293E-07 1.65585E-13
7.23942E-07 1.56834E-13
7.61543E-07 1.48664E-13
1.18991E-06 8.97926E-14
1.71347E-06 5.66016E-14
2.33223E-06 3.79914E-14
3.04617E-06 2.63499E-14
3.85531E-06 1.89297E-14
4.75964E-06 1.40077E-14
5.75916E-06 1.05944E-14
6.85388E-06 8.10044E-15
8.04378E-06 6.29885E-15
9.32888E-06 4.96700E-15
1.07092E-05 3.95783E-15
1.21846E-05 3.18808E-15
1.37553E-05 2.59904E-15
1.54212E-05 2.14197E-15
1.71822E-05 1.78154E-15
1.90385E-05 1.49564E-15
2.09899E-05 1.26790E-15
2.30365E-05 1.08329E-15
2.51783E-05 9.31581E-16
2.74153E-05 8.06353E-16
2.97475E-05 7.02120E-16
3.21749E-05 6.14395E-16
3.46974E-05 5.40209E-16
3.73152E-05 4.77065E-16
4.00281E-05 4.22900E-16
4.28362E-05 3.76023E-16
4.57395E-05 3.35494E-16
4.87380E-05 3.00291E-16
5.18317E-05 2.69520E-16
5.50205E-05 2.42450E-16
5.83045E-05 2.18670E-16
6.16838E-05 1.97709E-16
6.51582E-05 1.79109E-16
6.87277E-05 1.62595E-16
7.23925E-05 1.47923E-16
7.61524E-05 1.34848E-16
9.21439E-05 9.47857E-17
1.09658E-04 6.84835E-17
1.28695E-04 5.06911E-17
1.49255E-04 3.83075E-17
1.71338E-04 2.95090E-17
1.94942E-04 2.31023E-17
2.20070E-04 1.83549E-17
2.46720E-04 1.47731E-17
2.74892E-04 1.20211E-17
3.04586E-04 9.88254E-18
3.35803E-04 8.20027E-18
3.68542E-04 6.86116E-18
4.02802E-04 5.78234E-18
4.38585E-04 4.90757E-18
4.75889E-04 4.19205E-18
5.14715E-04 3.60138E-18
5.55063E-04 3.11056E-18
5.96931E-04 2.70045E-18
6.40321E-04 2.35560E-18
6.85233E-04 2.06348E-18
7.31665E-04 1.81515E-18
7.79618E-04 1.60299E-18
8.29092E-04 1.42079E-18
8.80086E-04 1.26356E-18
9.32601E-04 1.12744E-18
9.86636E-04 1.00912E-18
1.04219E-03 9.05823E-19
1.09927E-03 8.15357E-19
1.15786E-03 7.35887E-19
1.21797E-03 6.65845E-19
1.27961E-03 6.03881E-19
1.34276E-03 5.48950E-19
1.40743E-03 5.00114E-19
1.47362E-03 4.56570E-19
1.54133E-03 4.17643E-19
1.61056E-03 3.82772E-19
1.68131E-03 3.51460E-19
1.75357E-03 3.23270E-19
1.82735E-03 2.97844E-19
1.90265E-03 2.74866E-19
1.97947E-03 2.54057E-19
2.05780E-03 2.35171E-19
2.13765E-03 2.18005E-19
2.21902E-03 2.02375E-19
2.30190E-03 1.88117E-19
2.38630E-03 1.75088E-19
2.47222E-03 1.63166E-19
2.55965E-03 1.52240E-19
2.64859E-03 1.42209E-19
2.73905E-03 1.32989E-19
2.83103E-03 1.24503E-19
2.92452E-03 1.16681E-19
3.01952E-03 1.09461E-19
3.11604E-03 1.02790E-19
3.21407E-03 9.66182E-20
3.31362E-03 9.09010E-20
3.41468E-03 8.55989E-20
3.51725E-03 8.06769E-20
3.62133E-03 7.61028E-20
3.72692E-03 7.18465E-20
3.83403E-03 6.78828E-20
3.94265E-03 6.41879E-20
4.05278E-03 6.07401E-20
4.16442E-03 5.75195E-20
4.27757E-03 5.45090E-20
4.39223E-03 5.16922E-20
4.50840E-03 4.90541E-20
4.62608E-03 4.65815E-20
4.74527E-03 4.42621E-20
4.86597E-03 4.20848E-20
4.98817E-03 4.00389E-20
5.11188E-03 3.81154E-20
5.23711E-03 3.63056E-20
5.36383E-03 3.46014E-20
5.49207E-03 3.29954E-20
5.62181E-03 3.14812E-20
5.75306E-03 3.00525E-20
5.88581E-03 2.87034E-20
6.02007E-03 2.74289E-20
6.15583E-03 2.62239E-20
6.29310E-03 2.50841E-20
6.43187E-03 2.40051E-20
6.57214E-03 2.29833E-20
6.71392E-03 2.20150E-20
6.85720E-03 2.10969E-20
7.00198E-03 2.02258E-20
7.14827E-03 1.93990E-20
7.29605E-03 1.86138E-20
7.44534E-03 1.78676E-20
7.59612E-03 1.71583E-20
7.97965E-03 1.55322E-20
8.37255E-03 1.40932E-20
8.77480E-03 1.28160E-20
9.18641E-03 1.16795E-20
9.60736E-03 1.06654E-20
1.00376E-02 9.75839E-21
1.04773E-02 8.94516E-21
1.09262E-02 8.21436E-21
1.13844E-02 7.55619E-21
1.18520E-02 6.96220E-21
1.23288E-02 6.42504E-21
1.28150E-02 5.93835E-21
1.33104E-02 5.49655E-21
1.38150E-02 5.09478E-21
1.43290E-02 4.72880E-21
1.48521E-02 4.39483E-21
1.53845E-02 4.08962E-21
1.59262E-02 3.81027E-21
1.64770E-02 3.55415E-21
1.70371E-02 3.31903E-21
1.76063E-02 3.10289E-21
1.81848E-02 2.90392E-21
1.87724E-02 2.72050E-21
1.93692E-02 2.55122E-21
1.99751E-02 2.39480E-21
2.05901E-02 2.25007E-21
2.12143E-02 2.11602E-21
2.18476E-02 1.99172E-21
2.24900E-02 1.87634E-21
2.31415E-02 1.76911E-21
2.38021E-02 1.66936E-21
2.44717E-02 1.57649E-21
2.51504E-02 1.48992E-21
2.58382E-02 1.40915E-21
2.65349E-02 1.33374E-21
2.72407E-02 1.26325E-21
2.79555E-02 1.19731E-21
2.86793E-02 1.13558E-21
2.94120E-02 1.07774E-21
3.01537E-02 1.02349E-21
3.09043E-02 9.72580E-22
3.16639E-02 9.24765E-22
3.24324E-02 8.79822E-22
3.32098E-02 8.37545E-22
3.39961E-02 7.97752E-22
3.47912E-02 7.60270E-22
3.55952E-02 7.24938E-22
3.64081E-02 6.91613E-22
3.72297E-02 6.60160E-22
3.80602E-02 6.30456E-22
3.88995E-02 6.02384E-22
3.97476E-02 5.75839E-22
4.06044E-02 5.50725E-22
4.14700E-02 5.26948E-22
4.23443E-02 5.04426E-22
4.32273E-02 4.83080E-22
4.41190E-02 4.62838E-22
4.50194E-02 4.43633E-22
4.59284E-02 4.25401E-22
4.68461E-02 4.08084E-22
4.87074E-02 3.75985E-22
5.06030E-02 3.46944E-22
5.25328E-02 3.20618E-22
5.44967E-02 2.96713E-22
5.64946E-02 2.74966E-22
5.85262E-02 2.55151E-22
6.05914E-02 2.37065E-22
6.26901E-02 2.20533E-22
6.48222E-02 2.05397E-22
6.69873E-02 1.91520E-22
6.91854E-02 1.78779E-22
7.14163E-02 1.67065E-22
7.36799E-02 1.56281E-22
7.59760E-02 1.46341E-22
7.83043E-02 1.37167E-22
8.06647E-02 1.28689E-22
8.30571E-02 1.20846E-22
8.54812E-02 1.13583E-22
8.79369E-02 1.06848E-22
9.04240E-02 1.00597E-22
9.29422E-02 9.47889E-23
9.54915E-02 8.93869E-23
9.80716E-02 8.43577E-23
1.00682E-01 7.96712E-23
1.03323E-01 7.52999E-23
1.05995E-01 7.12190E-23
1.08696E-01 6.74058E-23
1.11427E-01 6.38397E-23
1.14188E-01 6.05019E-23
1.16978E-01 5.73752E-23
1.19797E-01 5.44440E-23
1.22645E-01 5.16939E-23
1.25522E-01 4.91117E-23
1.28428E-01 4.66855E-23
1.31361E-01 4.44043E-23
1.34323E-01 4.22577E-23
1.37313E-01 4.02365E-23
1.40330E-01 3.83322E-23
1.43375E-01 3.65366E-23
1.46447E-01 3.48426E-23
1.49545E-01 3.32435E-23
1.52671E-01 3.17328E-23
1.55823E-01 3.03050E-23
1.59001E-01 2.89547E-23
1.62205E-01 2.76770E-23
1.65435E-01 2.64672E-23
1.68690E-01 2.53212E-23
1.71970E-01 2.42350E-23
1.75276E-01 2.32048E-23
1.78606E-01 2.22274E-23
1.81961E-01 2.12996E-23
1.85340E-01 2.04183E-23
1.88743E-01 1.95809E-23
1.92169E-01 1.87848E-23
1.95619E-01 1.80275E-23
1.99092E-01 1.73070E-23
2.02589E-01 1.66211E-23
2.06107E-01 1.59678E-23
2.09649E-01 1.53453E-23
2.13212E-01 1.47519E-23
2.16797E-01 1.41860E-23
2.20404E-01 1.36461E-23
2.24032E-01 1.31309E-23
2.27680E-01 1.26389E-23
2.31350E-01 1.21690E-23
2.35040E-01 1.17200E-23
2.38751E-01 1.12908E-23
2.42481E-01 1.08804E-23
2.46231E-01 1.04879E-23
2.50000E-01 1.01122E-23
2.53788E-01 9.75255E-24
2.57595E-01 9.40817E-24
2.61421E-01 9.07829E-24
2.65264E-01 8.76219E-24
2.69126E-01 8.45919E-24
2.73005E-01 8.16866E-24
2.76901E-01 7.89000E-24
2.80814E-01 7.62264E-24
2.84744E-01 7.36604E-24
2.88691E-01 7.11968E-24
2.92653E-01 6.88310E-24
2.96632E-01 6.65583E-24
3.00625E-01 6.43745E-24
3.04634E-01 6.22755E-24
3.08658E-01 6.02575E-24
3.12697E-01 5.83168E-24
3.16749E-01 5.64499E-24
3.20816E-01 5.46536E-24
3.24896E-01 5.29247E-24
3.28990E-01 5.12603E-24
3.33097E-01 4.96575E-24
3.37216E-01 4.81136E-24
3.41348E-01 4.66261E-24
3.45492E-01 4.51927E-24
3.49647E-01 4.38110E-24
3.53814E-01 4.24788E-24
3.57992E-01 4.11941E-24
3.62181E-01 3.99549E-24
3.66381E-01 3.87594E-24
3.70590E-01 3.76056E-24
3.74810E-01 3.64919E-24
3.79039E-01 3.54166E-24
3.83277E-01 3.43783E-24
3.87524E-01 3.33754E-24
3.91780E-01 3.24065E-24
3.96044E-01 3.14703E-24
4.00316E-01 3.05655E-24
4.04596E-01 2.96908E-24
4.08882E-01 2.88452E-24
4.13176E-01 2.80274E-24
4.17476E-01 2.72364E-24
4.21783E-01 2.64711E-24
4.26095E-01 2.57307E-24
4.30413E-01 2.50141E-24
4.34737E-01 2.43204E-24
4.39065E-01 2.36488E-24
4.43398E-01 2.29985E-24
4.47736E-01 2.23687E-24
4.52077E-01 2.17587E-24
4.56422E-01 2.11677E-24
4.60770E-01 2.05950E-24
4.65122E-01 2.00399E-24
4.69476E-01 1.95019E-24
4.73832E-01 1.89804E-24
4.78190E-01 1.84746E-24
4.82550E-01 1.79842E-24
4.86912E-01 1.75084E-24
4.91274E-01 1.70469E-24
4.95637E-01 1.65992E-24
5.00000E-01 1.61647E-24
5.04363E-01 1.57430E-24
5.08726E-01 1.53336E-24
5.13088E-01 1.49363E-24
5.17450E-01 1.45504E-24
5.21810E-01 1.41757E-24
5.26168E-01 1.38118E-24
5.30524E-01 1.34583E-24
5.34878E-01 1.31149E-24
5.39230E-01 1.27812E-24
5.43578E-01 1.24569E-24
5.47923E-01 1.21417E-24
5.52264E-01 1.18354E-24
5.56602E-01 1.15376E-24
5.60935E-01 1.12480E-24
5.65263E-01 1.09664E-24
5.69587E-01 1.06926E-24
5.73905E-01 1.04263E-24
5.78217E-01 1.01672E-24
5.82524E-01 9.91513E-25
5.86824E-01 9.66987E-25
5.91118E-01 9.43120E-25
5.95404E-01 9.19892E-25
5.99684E-01 8.97283E-25
6.03956E-01 8.75275E-25
6.08220E-01 8.53849E-25
6.12476E-01 8.32988E-25
6.16723E-01 8.12674E-25
6.20961E-01 7.92892E-25
6.25190E-01 7.73624E-25
6.29410E-01 7.54856E-25
6.33619E-01 7.36572E-25
6.37819E-01 7.18758E-25
6.42008E-01 7.01400E-25
6.46186E-01 6.84484E-25
6.50353E-01 6.67998E-25
6.54508E-01 6.51931E-25
6.58652E-01 6.36269E-25
6.62784E-01 6.21002E-25
6.66903E-01 6.06118E-25
6.71010E-01 5.91607E-25
6.75104E-01 5.77456E-25
6.79184E-01 5.63655E-25
6.83251E-01 5.50195E-25
6.87303E-01 5.37067E-25
6.91342E-01 5.24261E-25
6.95366E-01 5.11767E-25
6.99375E-01 4.99579E-25
7.03368E-01 4.87687E-25
7.07347E-01 4.76084E-25
7.11309E-01 4.64761E-25
7.15256E-01 4.53710E-25
7.19186E-01 4.42925E-25
7.23099E-01 4.32399E-25
7.26995E-01 4.22123E-25
7.30874E-01 4.12092E-25
7.34736E-01 4.02299E-25
7.38579E-01 3.92737E-25
7.42405E-01 3.83401E-25
7.46212E-01 3.74285E-25
7.50000E-01 3.65383E-25
7.53769E-01 3.56689E-25
7.57519E-01 3.48198E-25
7.61249E-01 3.39905E-25
7.64960E-01 3.31804E-25
7.68650E-01 3.23892E-25
7.72320E-01 3.16163E-25
7.75968E-01 3.08612E-25
7.79596E-01 3.01234E-25
7.83203E-01 2.94027E-25
7.86788E-01 2.86985E-25
7.90351E-01 2.80103E-25
7.93893E-01 2.73379E-25
7.97411E-01 2.66809E-25
8.00908E-01 2.60388E-25
8.04381E-01 2.54112E-25
8.07831E-01 2.47979E-25
8.11257E-01 2.41985E-25
8.14660E-01 2.36127E-25
8.18039E-01 2.30401E-25
8.21394E-01 2.24804E-25
8.24724E-01 2.19333E-25
8.28030E-01 2.13985E-25
8.31310E-01 2.08758E-25
8.34565E-01 2.03648E-25
8.37795E-01 1.98653E-25
8.40999E-01 1.93770E-25
8.44177E-01 1.88996E-25
8.47329E-01 1.84329E-25
8.50455E-01 1.79767E-25
8.53553E-01 1.75307E-25
8.56625E-01 1.70947E-25
8.59670E-01 1.66684E-25
8.62687E-01 1.62517E-25
8.65677E-01 1.58443E-25
8.68639E-01 1.54460E-25
8.71572E-01 1.50567E-25
8.74478E-01 1.46761E-25
8.77355E-01 1.43040E-25
8.80203E-01 1.39403E-25
8.83022E-01 1.35848E-25
8.85812E-01 1.32373E-25
8.88573E-01 1.28976E-25
8.91304E-01 1.25656E-25
8.94005E-01 1.22411E-25
8.96677E-01 1.19239E-25
8.99318E-01 1.16140E-25
9.01928E-01 1.13111E-25
9.04508E-01 1.10152E-25
9.07058E-01 1.07260E-25
9.09576E-01 1.04435E-25
9.12063E-01 1.01674E-25
9.14519E-01 9.89777E-26
9.16943E-01 9.63438E-26
9.19335E-01 9.37712E-26
9.21696E-01 9.12587E-26
9.24024E-01 8.88054E-26
9.26320E-01 8.64099E-26
9.28584E-01 8.40712E-26
9.30815E-01 8.17884E-26
9.33013E-01 7.95603E-26
9.35178E-01 7.73860E-26
9.37310E-01 7.52645E-26
9.39409E-01 7.31948E-26
9.41474E-01 7.11761E-26
9.43505E-01 6.92074E-26
9.45503E-01 6.72880E-26
9.47467E-01 6.54169E-26
9.49397E-01 6.35934E-26
9.51293E-01 6.18166E-26
9.53154E-01 6.00858E-26
9.54981E-01 5.84003E-26
9.56773E-01 5.67593E-26
9.58530E-01 5.51621E-26
9.60252E-01 5.36080E-26
9.61940E-01 5.20965E-26
9.63592E-01 5.06268E-26
9.65209E-01 4.91983E-26
9.66790E-01 4.78104E-26
9.68336E-01 4.64626E-26
9.69846E-01 4.51543E-26
9.71321E-01 4.38849E-26
9.72759E-01 4.26539E-26
9.74162E-01 4.14608E-26
9.75528E-01 4.03051E-26
9.76858E-01 3.91863E-26
9.78152E-01 3.81040E-26
9.79410E-01 3.70577E-26
9.80631E-01 3.60470E-26
9.81815E-01 3.50715E-26
9.82963E-01 3.41308E-26
9.84074E-01 3.32245E-26
9.85148E-01 3.23522E-26
9.86185E-01 3.15136E-26
9.87185E-01 3.07083E-26
9.88148E-01 2.99361E-26
9.89074E-01 2.91965E-26
9.89962E-01 2.84894E-26
9.90814E-01 2.78144E-26
9.91627E-01 2.71712E-26
9.92404E-01 2.65597E-26
9.93143E-01 2.59795E-26
9.93844E-01 2.54304E-26
9.94508E-01 2.49122E-26
9.95134E-01 2.44247E-26
9.95722E-01 2.39677E-26
9.96273E-01 2.35411E-26
9.96786E-01 2.31446E-26
9.97261E-01 2.27781E-26
9.97698E-01 2.24414E-26
9.98097E-01 2.21345E-26
9.98459E-01 2.18571E-26
9.98782E-01 2.16092E-26
9.99067E-01 2.13908E-26
9.99315E-01 2.12016E-26
9.99524E-01 2.10417E-26
9.99695E-01 2.09109E-26
9.99829E-01 2.08092E-26
9.99924E-01 2.07367E-26
9.99981E-01 2.06931E-26
1.00000E+00 2.06786E-26
