 #
 # Subroutine ELSEPA. Elastic scattering of electrons and positrons
 #                    by neutral atoms and positive ions
 #
 # Projectile: positron
 # Kinetic energy = 7.00000E+08 eV = 2.57245E+07 a.u.
 #
 # WARNING: High-energy factorization with free-atom DF screening.
 #          Absorption, polarization and exchange corrections are
 #          switched off.
 #          Phase shifts are calculated for the bare nucleus.
 #          Scattering amplitudes are not evaluated.
 #
 # Element: La,  Z =  57,  atomic weight = 1.38905E+02 g/mol
 #
 # Nuclear model: Fermi distribution
 #                Average radius = 5.54145E-13 cm
 #                Skin thickness = 5.46000E-14 cm
 #
 # Number of electrons = 57
 #
 # Total elastic cross section = 7.47902E-18 cm**2 = 2.67081E-01 a0**2
 # 1st transport cross section = 1.28279E-26 cm**2 = 4.58094E-10 a0**2
 # 2nd transport cross section = 3.84760E-26 cm**2 = 1.37400E-09 a0**2
 #
 #
 # Differential cross section:                       MU=(1-COS(THETA))/2
 #
 #  THETA        MU          DCS          DCS        Sherman      error
 #  (deg)                 (cm**2/sr)   (a0**2/sr)    function
 #----------------------------------------------------------------------
0.00000E+00 5.77554E-08
7.61557E-13 4.55593E-08
1.18994E-12 4.04512E-08
1.71346E-12 3.53954E-08
2.33225E-12 3.06733E-08
3.04617E-12 2.64669E-08
3.85530E-12 2.28128E-08
4.75964E-12 1.96938E-08
5.75917E-12 1.70648E-08
6.85391E-12 1.48677E-08
8.04379E-12 1.30227E-08
9.32893E-12 1.14697E-08
1.07092E-11 1.01575E-08
1.21847E-11 9.04032E-09
1.37554E-11 8.08193E-09
1.54213E-11 7.25426E-09
1.71823E-11 6.53329E-09
1.90386E-11 5.90219E-09
2.09900E-11 5.34695E-09
2.30367E-11 4.85557E-09
2.51785E-11 4.41820E-09
2.74156E-11 4.02863E-09
2.97478E-11 3.68057E-09
3.21752E-11 3.36791E-09
3.46979E-11 3.08692E-09
3.73157E-11 2.83422E-09
4.00286E-11 2.60647E-09
4.28368E-11 2.40026E-09
4.57402E-11 2.21394E-09
4.87388E-11 2.03900E-09
5.18325E-11 1.87987E-09
5.50215E-11 1.73821E-09
5.83057E-11 1.61172E-09
6.16850E-11 1.49846E-09
6.51595E-11 1.39677E-09
6.87293E-11 1.30521E-09
7.23943E-11 1.22257E-09
7.61544E-11 1.14039E-09
1.18991E-10 6.15528E-10
1.71347E-10 3.63925E-10
2.33223E-10 2.28266E-10
3.04617E-10 1.48792E-10
3.85531E-10 1.00691E-10
4.75965E-10 7.05863E-11
5.75917E-10 5.10822E-11
6.85389E-10 3.80031E-11
8.04380E-10 2.89766E-11
9.32891E-10 2.25526E-11
1.07092E-09 1.78461E-11
1.21847E-09 1.43174E-11
1.37554E-09 1.16167E-11
1.54213E-09 9.52413E-12
1.71823E-09 7.87493E-12
1.90386E-09 6.56378E-12
2.09900E-09 5.51038E-12
2.30367E-09 4.65563E-12
2.51785E-09 3.95651E-12
2.74156E-09 3.38232E-12
2.97478E-09 2.90784E-12
3.21752E-09 2.51305E-12
3.46978E-09 2.18286E-12
3.73156E-09 1.90515E-12
4.00286E-09 1.67021E-12
4.28368E-09 1.47025E-12
4.57402E-09 1.29943E-12
4.87388E-09 1.15246E-12
5.18326E-09 1.02597E-12
5.50215E-09 9.16878E-13
5.83057E-09 8.21800E-13
6.16850E-09 7.38654E-13
6.51596E-09 6.66066E-13
6.87293E-09 6.02182E-13
7.23942E-09 5.45637E-13
7.61544E-09 4.95760E-13
1.18991E-08 2.12050E-13
1.71347E-08 1.05213E-13
2.33223E-08 5.78750E-14
3.04617E-08 3.43710E-14
3.85531E-08 2.16625E-14
4.75965E-08 1.43171E-14
5.75917E-08 9.83665E-15
6.85389E-08 6.97974E-15
8.04380E-08 5.08909E-15
9.32891E-08 3.79769E-15
1.07092E-07 2.89134E-15
1.21847E-07 2.24004E-15
1.37554E-07 1.76229E-15
1.54213E-07 1.40541E-15
1.71823E-07 1.13447E-15
1.90386E-07 9.25785E-16
2.09900E-07 7.62946E-16
2.30367E-07 6.34378E-16
2.51785E-07 5.31778E-16
2.74156E-07 4.49100E-16
2.97478E-07 3.81875E-16
3.21752E-07 3.26766E-16
3.46978E-07 2.81242E-16
3.73156E-07 2.43374E-16
4.00286E-07 2.11666E-16
4.28368E-07 1.84954E-16
4.57402E-07 1.62324E-16
4.87388E-07 1.43050E-16
5.18325E-07 1.26551E-16
5.50215E-07 1.12362E-16
5.83057E-07 1.00107E-16
6.16850E-07 8.94766E-17
6.51596E-07 8.02195E-17
6.87293E-07 7.21286E-17
7.23942E-07 6.50320E-17
7.61543E-07 5.87866E-17
1.18991E-06 2.41290E-17
1.71347E-06 1.16484E-17
2.33223E-06 6.29093E-18
3.04617E-06 3.68868E-18
3.85531E-06 2.30313E-18
4.75964E-06 1.51115E-18
5.75916E-06 1.03212E-18
6.85388E-06 7.28703E-19
8.04378E-06 5.29012E-19
9.32888E-06 3.93262E-19
1.07092E-05 2.98386E-19
1.21846E-05 2.30466E-19
1.37553E-05 1.80814E-19
1.54212E-05 1.43839E-19
1.71822E-05 1.15848E-19
1.90385E-05 9.43123E-20
2.09899E-05 7.76119E-20
2.30365E-05 6.44419E-20
2.51783E-05 5.39398E-20
2.74153E-05 4.54837E-20
2.97475E-05 3.86170E-20
3.21749E-05 3.29979E-20
3.46974E-05 2.83661E-20
3.73152E-05 2.45214E-20
4.00281E-05 2.13083E-20
4.28362E-05 1.86053E-20
4.57395E-05 1.63175E-20
4.87380E-05 1.43698E-20
5.18317E-05 1.27033E-20
5.50205E-05 1.12709E-20
5.83045E-05 1.00345E-20
6.16838E-05 8.96305E-21
6.51582E-05 8.03104E-21
6.87277E-05 7.21727E-21
7.23925E-05 6.50414E-21
7.61524E-05 5.89441E-21
9.21439E-05 4.01663E-21
1.09658E-04 2.82769E-21
1.28695E-04 2.04596E-21
1.49255E-04 1.51487E-21
1.71338E-04 1.14420E-21
1.94942E-04 8.79197E-22
2.20070E-04 6.85808E-22
2.46720E-04 5.42091E-22
2.74892E-04 4.33540E-22
3.04586E-04 3.50379E-22
3.35803E-04 2.85833E-22
3.68542E-04 2.35158E-22
4.02802E-04 1.94949E-22
4.38585E-04 1.62739E-22
4.75889E-04 1.36712E-22
5.14715E-04 1.15511E-22
5.55063E-04 9.81159E-23
5.96931E-04 8.37457E-23
6.40321E-04 7.18006E-23
6.85233E-04 6.18138E-23
7.31665E-04 5.34193E-23
7.79618E-04 4.63283E-23
8.29092E-04 4.03104E-23
8.80086E-04 3.51812E-23
9.32601E-04 3.07917E-23
9.86636E-04 2.70210E-23
1.04219E-03 2.37704E-23
1.09927E-03 2.09589E-23
1.15786E-03 1.85195E-23
1.21797E-03 1.63969E-23
1.27961E-03 1.45447E-23
1.34276E-03 1.29243E-23
1.40743E-03 1.15033E-23
1.47362E-03 1.02542E-23
1.54133E-03 9.15384E-24
1.61056E-03 8.18256E-24
1.68131E-03 7.32352E-24
1.75357E-03 6.56237E-24
1.82735E-03 5.88680E-24
1.90265E-03 5.28620E-24
1.97947E-03 4.75143E-24
2.05780E-03 4.27458E-24
2.13765E-03 3.84880E-24
2.21902E-03 3.46812E-24
2.30190E-03 3.12735E-24
2.38630E-03 2.82195E-24
2.47222E-03 2.54796E-24
2.55965E-03 2.30189E-24
2.64859E-03 2.08068E-24
2.73905E-03 1.88164E-24
2.83103E-03 1.70240E-24
2.92452E-03 1.54085E-24
3.01952E-03 1.39515E-24
3.11604E-03 1.26364E-24
3.21407E-03 1.14486E-24
3.31362E-03 1.03752E-24
3.41468E-03 9.40462E-25
3.51725E-03 8.52652E-25
3.62133E-03 7.73170E-25
3.72692E-03 7.01195E-25
3.83403E-03 6.35992E-25
3.94265E-03 5.76901E-25
4.05278E-03 5.23331E-25
4.16442E-03 4.74751E-25
4.27757E-03 4.30686E-25
4.39223E-03 3.90705E-25
4.50840E-03 3.54424E-25
4.62608E-03 3.21493E-25
4.74527E-03 2.91600E-25
4.86597E-03 2.64460E-25
4.98817E-03 2.39819E-25
5.11188E-03 2.17444E-25
5.23711E-03 1.97128E-25
5.36383E-03 1.78679E-25
5.49207E-03 1.61928E-25
5.62181E-03 1.46719E-25
5.75306E-03 1.32911E-25
5.88581E-03 1.20376E-25
6.02007E-03 1.08998E-25
6.15583E-03 9.86722E-26
6.29310E-03 8.93027E-26
6.43187E-03 8.08026E-26
6.57214E-03 7.30931E-26
6.71392E-03 6.61023E-26
6.85720E-03 5.97650E-26
7.00198E-03 5.40217E-26
7.14827E-03 4.88183E-26
7.29605E-03 4.41057E-26
7.44534E-03 3.98391E-26
7.59612E-03 3.59778E-26
7.97965E-03 2.78618E-26
8.37255E-03 2.15607E-26
8.77480E-03 1.66826E-26
9.18641E-03 1.29180E-26
9.60736E-03 1.00220E-26
1.00376E-02 7.80143E-27
1.04773E-02 6.10408E-27
1.09262E-02 4.81031E-27
1.13844E-02 3.82635E-27
1.18520E-02 3.07897E-27
1.23288E-02 2.51120E-27
1.28150E-02 2.07891E-27
1.33104E-02 1.74816E-27
1.38150E-02 1.49299E-27
1.43290E-02 1.29366E-27
1.48521E-02 1.13534E-27
1.53845E-02 1.00697E-27
1.59262E-02 9.00399E-28
1.64770E-02 8.09708E-28
1.70371E-02 7.30659E-28
1.76063E-02 6.60278E-28
1.81848E-02 5.96522E-28
1.87724E-02 5.38027E-28
1.93692E-02 4.83908E-28
1.99751E-02 4.33617E-28
2.05901E-02 3.86826E-28
2.12143E-02 3.43348E-28
2.18476E-02 3.03078E-28
2.24900E-02 2.65951E-28
2.31415E-02 2.31915E-28
2.38021E-02 2.00912E-28
2.44717E-02 1.72867E-28
2.51504E-02 1.47684E-28
2.58382E-02 1.25245E-28
2.65349E-02 1.05411E-28
2.72407E-02 8.80265E-29
2.79555E-02 7.29190E-29
2.86793E-02 5.99083E-29
2.94120E-02 4.88086E-29
3.01537E-02 3.94326E-29
3.09043E-02 3.15953E-29
3.16639E-02 2.51174E-29
3.24324E-02 1.98275E-29
3.32098E-02 1.55645E-29
3.39961E-02 1.21788E-29
3.47912E-02 9.53343E-30
3.55952E-02 7.50442E-30
3.64081E-02 5.98120E-30
3.72297E-02 4.86624E-30
3.80602E-02 4.07467E-30
3.88995E-02 3.53364E-30
3.97476E-02 3.18145E-30
4.06044E-02 2.96674E-30
4.14700E-02 2.84742E-30
4.23443E-02 2.78971E-30
4.32273E-02 2.76713E-30
4.41190E-02 2.75954E-30
4.50194E-02 2.75216E-30
4.59284E-02 2.73476E-30
4.68461E-02 2.70081E-30
4.87074E-02 2.57141E-30
5.06030E-02 2.36045E-30
5.25328E-02 2.08557E-30
5.44967E-02 1.77335E-30
5.64946E-02 1.45120E-30
5.85262E-02 1.14256E-30
6.05914E-02 8.64632E-31
6.26901E-02 6.27841E-31
6.48222E-02 4.36487E-31
6.69873E-02 2.89931E-31
6.91854E-02 1.84040E-31
7.14163E-02 1.12581E-31
7.36799E-02 6.84249E-32
7.59760E-02 4.44768E-32
7.83043E-02 3.43159E-32
8.06647E-02 3.25727E-32
8.30571E-02 3.50834E-32
8.54812E-02 3.88773E-32
8.79369E-02 4.20529E-32
9.04240E-02 4.35886E-32
9.29422E-02 4.31308E-32
9.54915E-02 4.07850E-32
9.80716E-02 3.69331E-32
1.00682E-01 3.20831E-32
1.03323E-01 2.67594E-32
1.05995E-01 2.14280E-32
1.08696E-01 1.64554E-32
1.11427E-01 1.20924E-32
1.14188E-01 8.47720E-33
1.16978E-01 5.65008E-33
1.19797E-01 3.57551E-33
1.22645E-01 2.16560E-33
1.25522E-01 1.30254E-33
1.28428E-01 8.57755E-34
1.31361E-01 7.06692E-34
1.34323E-01 7.38996E-34
1.37313E-01 8.64392E-34
1.40330E-01 1.01494E-33
1.43375E-01 1.14451E-33
1.46447E-01 1.22630E-33
1.49545E-01 1.24929E-33
1.52671E-01 1.21420E-33
1.55823E-01 1.12960E-33
1.59001E-01 1.00840E-33
1.62205E-01 8.64997E-34
1.65435E-01 7.13169E-34
1.68690E-01 5.64689E-34
1.71970E-01 4.28551E-34
1.75276E-01 3.10735E-34
1.78606E-01 2.14361E-34
1.81961E-01 1.40092E-34
1.85340E-01 8.66812E-35
1.88743E-01 5.15609E-35
1.92169E-01 3.14066E-35
1.95619E-01 2.26206E-35
1.99092E-01 2.17145E-35
2.02589E-01 2.55802E-35
2.06107E-01 3.16544E-35
2.09649E-01 3.79887E-35
2.13212E-01 4.32468E-35
2.16797E-01 4.66463E-35
2.20404E-01 4.78689E-35
2.24032E-01 4.69522E-35
2.27680E-01 4.41807E-35
2.31350E-01 3.99850E-35
2.35040E-01 3.48559E-35
2.38751E-01 2.92774E-35
2.42481E-01 2.36790E-35
2.46231E-01 1.84069E-35
2.50000E-01 1.37111E-35
2.53788E-01 9.74452E-36
2.57595E-01 6.57232E-36
2.61421E-01 4.18666E-36
2.65264E-01 2.52410E-36
2.69126E-01 1.48422E-36
2.73005E-01 9.46393E-37
2.76901E-01 7.84367E-37
2.80814E-01 8.77609E-37
2.84744E-01 1.11936E-36
2.88691E-01 1.42157E-36
2.92653E-01 1.71705E-36
2.96632E-01 1.95928E-36
3.00625E-01 2.12074E-36
3.04634E-01 2.19002E-36
3.08658E-01 2.16840E-36
3.12697E-01 2.06631E-36
3.16749E-01 1.89989E-36
3.20816E-01 1.68811E-36
3.24896E-01 1.45030E-36
3.28990E-01 1.20428E-36
3.33097E-01 9.65226E-37
3.37216E-01 7.44905E-37
3.41348E-01 5.51498E-37
3.45492E-01 3.89708E-37
3.49647E-01 2.61145E-37
3.53814E-01 1.64919E-37
3.57992E-01 9.82231E-38
3.62181E-01 5.69717E-38
3.66381E-01 3.63798E-38
3.70590E-01 3.14672E-38
3.74810E-01 3.74465E-38
3.79039E-01 5.00080E-38
3.83277E-01 6.55245E-38
3.87524E-01 8.11063E-38
3.91780E-01 9.46704E-38
3.96044E-01 1.04831E-37
4.00316E-01 1.10902E-37
4.04596E-01 1.12713E-37
4.08882E-01 1.10512E-37
4.13176E-01 1.04845E-37
4.17476E-01 9.64506E-38
4.21783E-01 8.61303E-38
4.26095E-01 7.46959E-38
4.30413E-01 6.28783E-38
4.34737E-01 5.13211E-38
4.39065E-01 4.05320E-38
4.43398E-01 3.08714E-38
4.47736E-01 2.25731E-38
4.52077E-01 1.57470E-38
4.56422E-01 1.03964E-38
4.60770E-01 1.00000E-45
4.65122E-01 1.00000E-45
4.69476E-01 1.00000E-45
4.73832E-01 1.00000E-45
4.78190E-01 1.00000E-45
4.82550E-01 1.00000E-45
4.86912E-01 1.00000E-45
4.91274E-01 1.00000E-45
4.95637E-01 1.00000E-45
5.00000E-01 1.00000E-45
5.04363E-01 1.00000E-45
5.08726E-01 1.00000E-45
5.13088E-01 1.00000E-45
5.17450E-01 1.00000E-45
5.21810E-01 1.00000E-45
5.26168E-01 1.00000E-45
5.30524E-01 1.00000E-45
5.34878E-01 1.00000E-45
5.39230E-01 1.00000E-45
5.43578E-01 1.00000E-45
5.47923E-01 1.00000E-45
5.52264E-01 1.00000E-45
5.56602E-01 1.00000E-45
5.60935E-01 1.00000E-45
5.65263E-01 1.00000E-45
5.69587E-01 1.00000E-45
5.73905E-01 1.00000E-45
5.78217E-01 1.00000E-45
5.82524E-01 1.00000E-45
5.86824E-01 1.00000E-45
5.91118E-01 1.00000E-45
5.95404E-01 1.00000E-45
5.99684E-01 1.00000E-45
6.03956E-01 1.00000E-45
6.08220E-01 1.00000E-45
6.12476E-01 1.00000E-45
6.16723E-01 1.00000E-45
6.20961E-01 1.00000E-45
6.25190E-01 1.00000E-45
6.29410E-01 1.00000E-45
6.33619E-01 1.00000E-45
6.37819E-01 1.00000E-45
6.42008E-01 1.00000E-45
6.46186E-01 1.00000E-45
6.50353E-01 1.00000E-45
6.54508E-01 1.00000E-45
6.58652E-01 1.00000E-45
6.62784E-01 1.00000E-45
6.66903E-01 1.00000E-45
6.71010E-01 1.00000E-45
6.75104E-01 1.00000E-45
6.79184E-01 1.00000E-45
6.83251E-01 1.00000E-45
6.87303E-01 1.00000E-45
6.91342E-01 1.00000E-45
6.95366E-01 1.00000E-45
6.99375E-01 1.00000E-45
7.03368E-01 1.00000E-45
7.07347E-01 1.00000E-45
7.11309E-01 1.00000E-45
7.15256E-01 1.00000E-45
7.19186E-01 1.00000E-45
7.23099E-01 1.00000E-45
7.26995E-01 1.00000E-45
7.30874E-01 1.00000E-45
7.34736E-01 1.00000E-45
7.38579E-01 1.00000E-45
7.42405E-01 1.00000E-45
7.46212E-01 1.00000E-45
7.50000E-01 1.00000E-45
7.53769E-01 1.00000E-45
7.57519E-01 1.00000E-45
7.61249E-01 1.00000E-45
7.64960E-01 1.00000E-45
7.68650E-01 1.00000E-45
7.72320E-01 1.00000E-45
7.75968E-01 1.00000E-45
7.79596E-01 1.00000E-45
7.83203E-01 1.00000E-45
7.86788E-01 1.00000E-45
7.90351E-01 1.00000E-45
7.93893E-01 1.00000E-45
7.97411E-01 1.00000E-45
8.00908E-01 1.00000E-45
8.04381E-01 1.00000E-45
8.07831E-01 1.00000E-45
8.11257E-01 1.00000E-45
8.14660E-01 1.00000E-45
8.18039E-01 1.00000E-45
8.21394E-01 1.00000E-45
8.24724E-01 1.00000E-45
8.28030E-01 1.00000E-45
8.31310E-01 1.00000E-45
8.34565E-01 1.00000E-45
8.37795E-01 1.00000E-45
8.40999E-01 1.00000E-45
8.44177E-01 1.00000E-45
8.47329E-01 1.00000E-45
8.50455E-01 1.00000E-45
8.53553E-01 1.00000E-45
8.56625E-01 1.00000E-45
8.59670E-01 1.00000E-45
8.62687E-01 1.00000E-45
8.65677E-01 1.00000E-45
8.68639E-01 1.00000E-45
8.71572E-01 1.00000E-45
8.74478E-01 1.00000E-45
8.77355E-01 1.00000E-45
8.80203E-01 1.00000E-45
8.83022E-01 1.00000E-45
8.85812E-01 1.00000E-45
8.88573E-01 1.00000E-45
8.91304E-01 1.00000E-45
8.94005E-01 1.00000E-45
8.96677E-01 1.00000E-45
8.99318E-01 1.00000E-45
9.01928E-01 1.00000E-45
9.04508E-01 1.00000E-45
9.07058E-01 1.00000E-45
9.09576E-01 1.00000E-45
9.12063E-01 1.00000E-45
9.14519E-01 1.00000E-45
9.16943E-01 1.00000E-45
9.19335E-01 1.00000E-45
9.21696E-01 1.00000E-45
9.24024E-01 1.00000E-45
9.26320E-01 1.00000E-45
9.28584E-01 1.00000E-45
9.30815E-01 1.00000E-45
9.33013E-01 1.00000E-45
9.35178E-01 1.00000E-45
9.37310E-01 1.00000E-45
9.39409E-01 1.00000E-45
9.41474E-01 1.00000E-45
9.43505E-01 1.00000E-45
9.45503E-01 1.00000E-45
9.47467E-01 1.00000E-45
9.49397E-01 1.00000E-45
9.51293E-01 1.00000E-45
9.53154E-01 1.00000E-45
9.54981E-01 1.00000E-45
9.56773E-01 1.00000E-45
9.58530E-01 1.00000E-45
9.60252E-01 1.00000E-45
9.61940E-01 1.00000E-45
9.63592E-01 1.00000E-45
9.65209E-01 1.00000E-45
9.66790E-01 1.00000E-45
9.68336E-01 1.00000E-45
9.69846E-01 1.00000E-45
9.71321E-01 1.00000E-45
9.72759E-01 1.00000E-45
9.74162E-01 1.00000E-45
9.75528E-01 1.00000E-45
9.76858E-01 1.00000E-45
9.78152E-01 1.00000E-45
9.79410E-01 1.00000E-45
9.80631E-01 1.00000E-45
9.81815E-01 1.00000E-45
9.82963E-01 1.00000E-45
9.84074E-01 1.00000E-45
9.85148E-01 1.00000E-45
9.86185E-01 1.00000E-45
9.87185E-01 1.00000E-45
9.88148E-01 1.00000E-45
9.89074E-01 1.00000E-45
9.89962E-01 1.00000E-45
9.90814E-01 1.00000E-45
9.91627E-01 1.00000E-45
9.92404E-01 1.00000E-45
9.93143E-01 1.00000E-45
9.93844E-01 1.00000E-45
9.94508E-01 1.00000E-45
9.95134E-01 1.00000E-45
9.95722E-01 1.00000E-45
9.96273E-01 1.00000E-45
9.96786E-01 1.00000E-45
9.97261E-01 1.00000E-45
9.97698E-01 1.00000E-45
9.98097E-01 1.00000E-45
9.98459E-01 1.00000E-45
9.98782E-01 1.00000E-45
9.99067E-01 1.00000E-45
9.99315E-01 1.00000E-45
9.99524E-01 1.00000E-45
9.99695E-01 1.00000E-45
9.99829E-01 1.00000E-45
9.99924E-01 1.00000E-45
9.99981E-01 1.00000E-45
1.00000E+00 1.00000E-45
