 #
 # Subroutine ELSEPA. Elastic scattering of electrons and positrons
 #                    by neutral atoms and positive ions
 #
 # Projectile: positron
 # Kinetic energy = 3.00000E+08 eV = 1.10248E+07 a.u.
 #
 # WARNING: High-energy factorization with free-atom DF screening.
 #          Absorption, polarization and exchange corrections are
 #          switched off.
 #          Phase shifts are calculated for the bare nucleus.
 #          Scattering amplitudes are not evaluated.
 #
 # Element: Tm,  Z =  69,  atomic weight = 1.68934E+02 g/mol
 #
 # Nuclear model: Fermi distribution
 #                Average radius = 5.91502E-13 cm
 #                Skin thickness = 5.46000E-14 cm
 #
 # Number of electrons = 69
 #
 # Total elastic cross section = 7.02220E-18 cm**2 = 2.50767E-01 a0**2
 # 1st transport cross section = 9.96963E-26 cm**2 = 3.56022E-09 a0**2
 # 2nd transport cross section = 2.98757E-25 cm**2 = 1.06688E-08 a0**2
 #
 #
 # Differential cross section:                       MU=(1-COS(THETA))/2
 #
 #  THETA        MU          DCS          DCS        Sherman      error
 #  (deg)                 (cm**2/sr)   (a0**2/sr)    function
 #----------------------------------------------------------------------
0.00000E+00 6.27048E-09
7.61557E-13 6.02952E-09
1.18994E-12 5.90087E-09
1.71346E-12 5.74989E-09
2.33225E-12 5.57983E-09
3.04617E-12 5.39474E-09
3.85530E-12 5.19655E-09
4.75964E-12 4.99073E-09
5.75917E-12 4.77816E-09
6.85391E-12 4.56479E-09
8.04379E-12 4.35035E-09
9.32893E-12 4.13954E-09
1.07092E-11 3.93260E-09
1.21847E-11 3.73204E-09
1.37554E-11 3.53894E-09
1.54213E-11 3.35352E-09
1.71823E-11 3.17784E-09
1.90386E-11 3.01007E-09
2.09900E-11 2.85316E-09
2.30367E-11 2.70403E-09
2.51785E-11 2.56534E-09
2.74156E-11 2.43445E-09
2.97478E-11 2.31260E-09
3.21752E-11 2.19842E-09
3.46979E-11 2.09188E-09
3.73157E-11 1.99252E-09
4.00286E-11 1.89955E-09
4.28368E-11 1.81306E-09
4.57402E-11 1.73190E-09
4.87388E-11 1.65641E-09
5.18325E-11 1.58548E-09
5.50215E-11 1.51922E-09
5.83057E-11 1.45696E-09
6.16850E-11 1.39855E-09
6.51595E-11 1.34358E-09
6.87293E-11 1.29184E-09
7.23943E-11 1.24300E-09
7.61544E-11 1.19694E-09
1.18991E-10 8.45736E-10
1.71347E-10 6.19207E-10
2.33223E-10 4.62150E-10
3.04617E-10 3.45099E-10
3.85531E-10 2.67527E-10
4.75965E-10 2.06776E-10
5.75917E-10 1.64358E-10
6.85389E-10 1.30385E-10
8.04380E-10 1.05684E-10
9.32891E-10 8.60108E-11
1.07092E-09 7.09193E-11
1.21847E-09 5.88562E-11
1.37554E-09 4.92061E-11
1.54213E-09 4.14561E-11
1.71823E-09 3.50547E-11
1.90386E-09 2.98925E-11
2.09900E-09 2.55275E-11
2.30367E-09 2.19769E-11
2.51785E-09 1.89530E-11
2.74156E-09 1.64520E-11
2.97478E-09 1.43251E-11
3.21752E-09 1.25349E-11
3.46978E-09 1.10108E-11
3.73156E-09 9.71007E-12
4.00286E-09 8.59900E-12
4.28368E-09 7.63980E-12
4.57402E-09 6.81639E-12
4.87388E-09 6.09844E-12
5.18326E-09 5.47748E-12
5.50215E-09 4.93304E-12
5.83057E-09 4.45794E-12
6.16850E-09 4.04014E-12
6.51596E-09 3.67068E-12
6.87293E-09 3.34255E-12
7.23942E-09 3.05103E-12
7.61544E-09 2.79195E-12
1.18991E-08 1.27362E-12
1.71347E-08 6.61799E-13
2.33223E-08 3.76232E-13
3.04617E-08 2.28888E-13
3.85531E-08 1.47025E-13
4.75965E-08 9.87402E-14
5.75917E-08 6.87765E-14
6.85389E-08 4.93586E-14
8.04380E-08 3.63504E-14
9.32891E-08 2.73619E-14
1.07092E-07 2.09880E-14
1.21847E-07 1.63694E-14
1.37554E-07 1.29527E-14
1.54213E-07 1.03827E-14
1.71823E-07 8.41968E-15
1.90386E-07 6.89810E-15
2.09900E-07 5.70510E-15
2.30367E-07 4.75883E-15
2.51785E-07 4.00037E-15
2.74156E-07 3.38705E-15
2.97478E-07 2.88663E-15
3.21752E-07 2.47515E-15
3.46978E-07 2.13440E-15
3.73156E-07 1.85018E-15
4.00286E-07 1.61170E-15
4.28368E-07 1.41041E-15
4.57402E-07 1.23953E-15
4.87388E-07 1.09377E-15
5.18325E-07 9.68800E-16
5.50215E-07 8.61170E-16
5.83057E-07 7.68083E-16
6.16850E-07 6.87231E-16
6.51596E-07 6.16746E-16
6.87293E-07 5.55073E-16
7.23942E-07 5.00916E-16
7.61543E-07 4.53209E-16
1.18991E-06 1.87389E-16
1.71347E-06 9.09527E-17
2.33223E-06 4.93189E-17
3.04617E-06 2.90054E-17
3.85531E-06 1.81518E-17
4.75964E-06 1.19308E-17
5.75916E-06 8.15987E-18
6.85388E-06 5.76729E-18
8.04378E-06 4.19043E-18
9.32888E-06 3.11728E-18
1.07092E-05 2.36655E-18
1.21846E-05 1.82872E-18
1.37553E-05 1.43530E-18
1.54212E-05 1.14216E-18
1.71822E-05 9.20147E-19
1.90385E-05 7.49165E-19
2.09899E-05 6.16730E-19
2.30365E-05 5.12218E-19
2.51783E-05 4.28819E-19
2.74153E-05 3.61627E-19
2.97475E-05 3.07047E-19
3.21749E-05 2.62378E-19
3.46974E-05 2.25560E-19
3.73152E-05 1.95001E-19
4.00281E-05 1.69463E-19
4.28362E-05 1.47979E-19
4.57395E-05 1.29792E-19
4.87380E-05 1.14307E-19
5.18317E-05 1.01056E-19
5.50205E-05 8.96643E-20
5.83045E-05 7.98304E-20
6.16838E-05 7.13081E-20
6.51582E-05 6.38948E-20
6.87277E-05 5.74221E-20
7.23925E-05 5.17498E-20
7.61524E-05 4.69507E-20
9.21439E-05 3.20700E-20
1.09658E-04 2.26426E-20
1.28695E-04 1.64394E-20
1.49255E-04 1.22207E-20
1.71338E-04 9.27250E-21
1.94942E-04 7.16139E-21
2.20070E-04 5.61789E-21
2.46720E-04 4.46835E-21
2.74892E-04 3.59799E-21
3.04586E-04 2.92918E-21
3.35803E-04 2.40845E-21
3.68542E-04 1.99819E-21
4.02802E-04 1.67143E-21
4.38585E-04 1.40859E-21
4.75889E-04 1.19525E-21
5.14715E-04 1.02064E-21
5.55063E-04 8.76620E-22
5.96931E-04 7.56989E-22
6.40321E-04 6.56959E-22
6.85233E-04 5.72805E-22
7.31665E-04 5.01600E-22
7.79618E-04 4.41031E-22
8.29092E-04 3.89249E-22
8.80086E-04 3.44772E-22
9.32601E-04 3.06401E-22
9.86636E-04 2.73159E-22
1.04219E-03 2.44248E-22
1.09927E-03 2.19010E-22
1.15786E-03 1.96902E-22
1.21797E-03 1.77470E-22
1.27961E-03 1.60337E-22
1.34276E-03 1.45186E-22
1.40743E-03 1.31749E-22
1.47362E-03 1.19800E-22
1.54133E-03 1.09147E-22
1.61056E-03 9.96253E-23
1.68131E-03 9.10955E-23
1.75357E-03 8.34369E-23
1.82735E-03 7.65456E-23
1.90265E-03 7.03319E-23
1.97947E-03 6.47183E-23
2.05780E-03 5.96370E-23
2.13765E-03 5.50294E-23
2.21902E-03 5.08439E-23
2.30190E-03 4.70355E-23
2.38630E-03 4.35646E-23
2.47222E-03 4.03964E-23
2.55965E-03 3.75002E-23
2.64859E-03 3.48488E-23
2.73905E-03 3.24182E-23
2.83103E-03 3.01869E-23
2.92452E-03 2.81361E-23
3.01952E-03 2.62487E-23
3.11604E-03 2.45096E-23
3.21407E-03 2.29054E-23
3.31362E-03 2.14238E-23
3.41468E-03 2.00541E-23
3.51725E-03 1.87864E-23
3.62133E-03 1.76119E-23
3.72692E-03 1.65228E-23
3.83403E-03 1.55119E-23
3.94265E-03 1.45726E-23
4.05278E-03 1.36991E-23
4.16442E-03 1.28861E-23
4.27757E-03 1.21287E-23
4.39223E-03 1.14227E-23
4.50840E-03 1.07639E-23
4.62608E-03 1.01488E-23
4.74527E-03 9.57392E-24
4.86597E-03 9.03637E-24
4.98817E-03 8.53333E-24
5.11188E-03 8.06225E-24
5.23711E-03 7.62081E-24
5.36383E-03 7.20688E-24
5.49207E-03 6.81850E-24
5.62181E-03 6.45386E-24
5.75306E-03 6.11131E-24
5.88581E-03 5.78932E-24
6.02007E-03 5.48649E-24
6.15583E-03 5.20152E-24
6.29310E-03 4.93321E-24
6.43187E-03 4.68046E-24
6.57214E-03 4.44224E-24
6.71392E-03 4.21760E-24
6.85720E-03 4.00567E-24
7.00198E-03 3.80563E-24
7.14827E-03 3.61673E-24
7.29605E-03 3.43827E-24
7.44534E-03 3.26960E-24
7.59612E-03 3.11012E-24
7.97965E-03 2.74798E-24
8.37255E-03 2.43204E-24
8.77480E-03 2.15575E-24
9.18641E-03 1.91361E-24
9.60736E-03 1.70096E-24
1.00376E-02 1.51384E-24
1.04773E-02 1.34888E-24
1.09262E-02 1.20321E-24
1.13844E-02 1.07437E-24
1.18520E-02 9.60224E-25
1.23288E-02 8.58964E-25
1.28150E-02 7.69011E-25
1.33104E-02 6.89000E-25
1.38150E-02 6.17747E-25
1.43290E-02 5.54222E-25
1.48521E-02 4.97527E-25
1.53845E-02 4.46878E-25
1.59262E-02 4.01588E-25
1.64770E-02 3.61055E-25
1.70371E-02 3.24749E-25
1.76063E-02 2.92206E-25
1.81848E-02 2.63015E-25
1.87724E-02 2.36813E-25
1.93692E-02 2.13280E-25
1.99751E-02 1.92133E-25
2.05901E-02 1.73119E-25
2.12143E-02 1.56016E-25
2.18476E-02 1.40624E-25
2.24900E-02 1.26768E-25
2.31415E-02 1.14289E-25
2.38021E-02 1.03047E-25
2.44717E-02 9.29162E-26
2.51504E-02 8.37850E-26
2.58382E-02 7.55527E-26
2.65349E-02 6.81296E-26
2.72407E-02 6.14350E-26
2.79555E-02 5.53967E-26
2.86793E-02 4.99499E-26
2.94120E-02 4.50362E-26
3.01537E-02 4.06034E-26
3.09043E-02 3.66043E-26
3.16639E-02 3.29966E-26
3.24324E-02 2.97419E-26
3.32098E-02 2.68061E-26
3.39961E-02 2.41579E-26
3.47912E-02 2.17696E-26
3.55952E-02 1.96159E-26
3.64081E-02 1.76739E-26
3.72297E-02 1.59232E-26
3.80602E-02 1.43453E-26
3.88995E-02 1.29232E-26
3.97476E-02 1.16420E-26
4.06044E-02 1.04879E-26
4.14700E-02 9.44848E-27
4.23443E-02 8.51267E-27
4.32273E-02 7.67032E-27
4.41190E-02 6.91229E-27
4.50194E-02 6.23032E-27
4.59284E-02 5.61695E-27
4.68461E-02 5.06541E-27
4.87074E-02 4.12402E-27
5.06030E-02 3.36402E-27
5.25328E-02 2.75103E-27
5.44967E-02 2.25695E-27
5.64946E-02 1.85891E-27
5.85262E-02 1.53828E-27
6.05914E-02 1.27991E-27
6.26901E-02 1.07153E-27
6.48222E-02 9.03188E-28
6.69873E-02 7.66845E-28
6.91854E-02 6.56029E-28
7.14163E-02 5.65542E-28
7.36799E-02 4.91218E-28
7.59760E-02 4.29734E-28
7.83043E-02 3.78447E-28
8.06647E-02 3.35263E-28
8.30571E-02 2.98533E-28
8.54812E-02 2.66957E-28
8.79369E-02 2.39523E-28
9.04240E-02 2.15441E-28
9.29422E-02 1.94098E-28
9.54915E-02 1.75019E-28
9.80716E-02 1.57842E-28
1.00682E-01 1.42283E-28
1.03323E-01 1.28127E-28
1.05995E-01 1.15206E-28
1.08696E-01 1.03389E-28
1.11427E-01 9.25709E-29
1.14188E-01 8.26694E-29
1.16978E-01 7.36147E-29
1.19797E-01 6.53476E-29
1.22645E-01 5.78161E-29
1.25522E-01 5.09733E-29
1.28428E-01 4.47755E-29
1.31361E-01 3.91811E-29
1.34323E-01 3.41503E-29
1.37313E-01 2.96446E-29
1.40330E-01 2.56261E-29
1.43375E-01 2.20583E-29
1.46447E-01 1.89053E-29
1.49545E-01 1.61325E-29
1.52671E-01 1.37065E-29
1.55823E-01 1.15951E-29
1.59001E-01 9.76780E-30
1.62205E-01 8.19547E-30
1.65435E-01 6.85080E-30
1.68690E-01 5.70816E-30
1.71970E-01 4.74377E-30
1.75276E-01 3.93564E-30
1.78606E-01 3.26359E-30
1.81961E-01 2.70925E-30
1.85340E-01 2.25594E-30
1.88743E-01 1.88871E-30
1.92169E-01 1.59418E-30
1.95619E-01 1.36047E-30
1.99092E-01 1.17715E-30
2.02589E-01 1.03510E-30
2.06107E-01 9.26394E-31
2.09649E-01 8.44243E-31
2.13212E-01 7.82859E-31
2.16797E-01 7.37366E-31
2.20404E-01 7.03697E-31
2.24032E-01 6.78509E-31
2.27680E-01 6.59089E-31
2.31350E-01 6.43278E-31
2.35040E-01 6.29391E-31
2.38751E-01 6.16150E-31
2.42481E-01 6.02620E-31
2.46231E-01 5.88151E-31
2.50000E-01 5.72332E-31
2.53788E-01 5.54940E-31
2.57595E-01 5.35905E-31
2.61421E-01 5.15271E-31
2.65264E-01 4.93173E-31
2.69126E-01 4.69806E-31
2.73005E-01 4.45406E-31
2.76901E-01 4.20235E-31
2.80814E-01 3.94563E-31
2.84744E-01 3.68659E-31
2.88691E-01 3.42781E-31
2.92653E-01 3.17171E-31
2.96632E-01 2.92048E-31
3.00625E-01 2.67607E-31
3.04634E-01 2.44017E-31
3.08658E-01 2.21419E-31
3.12697E-01 1.99927E-31
3.16749E-01 1.79628E-31
3.20816E-01 1.60585E-31
3.24896E-01 1.42839E-31
3.28990E-01 1.26408E-31
3.33097E-01 1.11292E-31
3.37216E-01 9.74755E-32
3.41348E-01 8.49269E-32
3.45492E-01 7.36045E-32
3.49647E-01 6.34559E-32
3.53814E-01 5.44215E-32
3.57992E-01 4.64357E-32
3.62181E-01 3.94289E-32
3.66381E-01 3.33290E-32
3.70590E-01 2.80629E-32
3.74810E-01 2.35572E-32
3.79039E-01 1.97400E-32
3.83277E-01 1.65411E-32
3.87524E-01 1.38932E-32
3.91780E-01 1.17319E-32
3.96044E-01 9.99677E-33
4.00316E-01 8.63107E-33
4.04596E-01 7.58234E-33
4.08882E-01 6.80237E-33
4.13176E-01 6.24722E-33
4.17476E-01 5.87722E-33
4.21783E-01 5.65681E-33
4.26095E-01 5.55448E-33
4.30413E-01 5.54249E-33
4.34737E-01 5.59675E-33
4.39065E-01 5.69651E-33
4.43398E-01 5.82417E-33
4.47736E-01 5.96499E-33
4.52077E-01 6.10685E-33
4.56422E-01 6.23999E-33
4.60770E-01 6.35676E-33
4.65122E-01 6.45139E-33
4.69476E-01 6.51973E-33
4.73832E-01 6.55905E-33
4.78190E-01 6.56786E-33
4.82550E-01 6.54568E-33
4.86912E-01 6.49290E-33
4.91274E-01 6.41058E-33
4.95637E-01 6.30035E-33
5.00000E-01 6.16428E-33
5.04363E-01 6.00473E-33
5.08726E-01 5.82429E-33
5.13088E-01 5.62567E-33
5.17450E-01 5.41165E-33
5.21810E-01 5.18498E-33
5.26168E-01 4.94837E-33
5.30524E-01 4.70443E-33
5.34878E-01 4.45564E-33
5.39230E-01 4.20431E-33
5.43578E-01 3.95258E-33
5.47923E-01 3.70241E-33
5.52264E-01 3.45555E-33
5.56602E-01 3.21356E-33
5.60935E-01 2.97780E-33
5.65263E-01 2.74944E-33
5.69587E-01 2.52945E-33
5.73905E-01 2.31863E-33
5.78217E-01 2.11761E-33
5.82524E-01 1.92688E-33
5.86824E-01 1.74674E-33
5.91118E-01 1.57741E-33
5.95404E-01 1.41895E-33
5.99684E-01 1.27134E-33
6.03956E-01 1.13446E-33
6.08220E-01 1.00809E-33
6.12476E-01 8.91961E-34
6.16723E-01 7.85740E-34
6.20961E-01 6.89041E-34
6.25190E-01 6.01440E-34
6.29410E-01 5.22484E-34
6.33619E-01 4.51700E-34
6.37819E-01 3.88597E-34
6.42008E-01 3.32678E-34
6.46186E-01 2.83444E-34
6.50353E-01 2.40399E-34
6.54508E-01 2.03055E-34
6.58652E-01 1.70934E-34
6.62784E-01 1.43575E-34
6.66903E-01 1.20531E-34
6.71010E-01 1.01377E-34
6.75104E-01 8.57088E-35
6.79184E-01 7.31423E-35
6.83251E-01 6.33186E-35
6.87303E-01 5.59003E-35
6.91342E-01 5.05754E-35
6.95366E-01 4.70539E-35
6.99375E-01 4.50703E-35
7.03368E-01 4.43806E-35
7.07347E-01 4.47633E-35
7.11309E-01 4.60179E-35
7.15256E-01 4.79643E-35
7.19186E-01 5.04412E-35
7.23099E-01 5.33062E-35
7.26995E-01 5.64332E-35
7.30874E-01 5.97127E-35
7.34736E-01 6.30496E-35
7.38579E-01 6.63626E-35
7.42405E-01 6.95833E-35
7.46212E-01 7.26544E-35
7.50000E-01 7.55292E-35
7.53769E-01 7.81708E-35
7.57519E-01 8.05503E-35
7.61249E-01 8.26467E-35
7.64960E-01 8.44457E-35
7.68650E-01 8.59388E-35
7.72320E-01 8.71226E-35
7.75968E-01 8.79985E-35
7.79596E-01 8.85712E-35
7.83203E-01 8.88491E-35
7.86788E-01 8.88429E-35
7.90351E-01 8.85657E-35
7.93893E-01 8.80318E-35
7.97411E-01 8.72577E-35
8.00908E-01 8.62605E-35
8.04381E-01 8.50572E-35
8.07831E-01 8.36662E-35
8.11257E-01 8.21057E-35
8.14660E-01 8.03933E-35
8.18039E-01 7.85471E-35
8.21394E-01 7.65839E-35
8.24724E-01 7.45211E-35
8.28030E-01 7.23739E-35
8.31310E-01 7.01584E-35
8.34565E-01 6.78889E-35
8.37795E-01 6.55787E-35
8.40999E-01 6.32412E-35
8.44177E-01 6.08878E-35
8.47329E-01 5.85298E-35
8.50455E-01 5.61772E-35
8.53553E-01 5.38393E-35
8.56625E-01 5.15240E-35
8.59670E-01 4.92394E-35
8.62687E-01 4.69914E-35
8.65677E-01 4.47869E-35
8.68639E-01 4.26298E-35
8.71572E-01 4.05254E-35
8.74478E-01 3.84772E-35
8.77355E-01 3.64880E-35
8.80203E-01 3.45609E-35
8.83022E-01 3.26977E-35
8.85812E-01 3.08996E-35
8.88573E-01 2.91678E-35
8.91304E-01 2.75031E-35
8.94005E-01 2.59054E-35
8.96677E-01 2.43748E-35
8.99318E-01 2.29109E-35
9.01928E-01 2.15129E-35
9.04508E-01 2.01801E-35
9.07058E-01 1.89110E-35
9.09576E-01 1.77043E-35
9.12063E-01 1.65588E-35
9.14519E-01 1.54724E-35
9.16943E-01 1.44439E-35
9.19335E-01 1.34713E-35
9.21696E-01 1.25528E-35
9.24024E-01 1.16860E-35
9.26320E-01 1.08696E-35
9.28584E-01 1.01009E-35
9.30815E-01 9.37873E-36
9.33013E-01 8.70022E-36
9.35178E-01 8.06391E-36
9.37310E-01 7.46752E-36
9.39409E-01 6.90949E-36
9.41474E-01 6.38768E-36
9.43505E-01 5.90013E-36
9.45503E-01 5.44516E-36
9.47467E-01 5.02114E-36
9.49397E-01 4.62608E-36
9.51293E-01 4.25862E-36
9.53154E-01 3.91684E-36
9.54981E-01 3.59964E-36
9.56773E-01 3.30524E-36
9.58530E-01 3.03220E-36
9.60252E-01 2.77942E-36
9.61940E-01 2.54535E-36
9.63592E-01 2.32898E-36
9.65209E-01 2.12912E-36
9.66790E-01 1.94459E-36
9.68336E-01 1.77443E-36
9.69846E-01 1.61759E-36
9.71321E-01 1.47318E-36
9.72759E-01 1.34026E-36
9.74162E-01 1.21823E-36
9.75528E-01 1.10590E-36
9.76858E-01 1.00293E-36
9.78152E-01 9.08432E-37
9.79410E-01 8.21964E-37
9.80631E-01 7.42682E-37
9.81815E-01 6.70073E-37
9.82963E-01 6.03805E-37
9.84074E-01 5.43227E-37
9.85148E-01 4.87870E-37
9.86185E-01 4.37405E-37
9.87185E-01 3.91397E-37
9.88148E-01 3.49490E-37
9.89074E-01 3.11373E-37
9.89962E-01 2.76719E-37
9.90814E-01 2.45198E-37
9.91627E-01 2.16611E-37
9.92404E-01 1.90709E-37
9.93143E-01 1.67280E-37
9.93844E-01 1.46080E-37
9.94508E-01 1.26904E-37
9.95134E-01 1.09650E-37
9.95722E-01 9.41356E-38
9.96273E-01 8.01979E-38
9.96786E-01 6.77112E-38
9.97261E-01 5.66052E-38
9.97698E-01 4.67025E-38
9.98097E-01 3.79968E-38
9.98459E-01 3.02996E-38
9.98782E-01 2.36614E-38
9.99067E-01 1.78984E-38
9.99315E-01 1.30317E-38
9.99524E-01 8.98151E-39
9.99695E-01 5.72587E-39
9.99829E-01 3.22456E-39
9.99924E-01 1.45797E-39
9.99981E-01 3.99872E-40
1.00000E+00 6.06564E-41
