 #
 # Subroutine ELSEPA. Elastic scattering of electrons and positrons
 #                    by neutral atoms and positive ions
 #
 # Projectile: positron
 # Kinetic energy = 5.00000E+06 eV = 1.83747E+05 a.u.
 #
 # WARNING: High-energy factorization with free-atom DF screening.
 #          Absorption, polarization and exchange corrections are
 #          switched off.
 #          Phase shifts are calculated for the bare nucleus.
 #          Scattering amplitudes are not evaluated.
 #
 # Element: Tm,  Z =  69,  atomic weight = 1.68934E+02 g/mol
 #
 # Nuclear model: Fermi distribution
 #                Average radius = 5.91502E-13 cm
 #                Skin thickness = 5.46000E-14 cm
 #
 # Number of electrons = 69
 #
 # Total elastic cross section = 7.08641E-18 cm**2 = 2.53060E-01 a0**2
 # 1st transport cross section = 1.94781E-22 cm**2 = 6.95575E-06 a0**2
 # 2nd transport cross section = 5.60394E-22 cm**2 = 2.00120E-05 a0**2
 #
 #
 # Differential cross section:                       MU=(1-COS(THETA))/2
 #
 #  THETA        MU          DCS          DCS        Sherman      error
 #  (deg)                 (cm**2/sr)   (a0**2/sr)    function
 #----------------------------------------------------------------------
0.00000E+00 2.10882E-12
7.61557E-13 2.10879E-12
1.18994E-12 2.10878E-12
1.71346E-12 2.10876E-12
2.33225E-12 2.10873E-12
3.04617E-12 2.10871E-12
3.85530E-12 2.10868E-12
4.75964E-12 2.10864E-12
5.75917E-12 2.10861E-12
6.85391E-12 2.10856E-12
8.04379E-12 2.10852E-12
9.32893E-12 2.10847E-12
1.07092E-11 2.10842E-12
1.21847E-11 2.10837E-12
1.37554E-11 2.10831E-12
1.54213E-11 2.10825E-12
1.71823E-11 2.10818E-12
1.90386E-11 2.10811E-12
2.09900E-11 2.10804E-12
2.30367E-11 2.10796E-12
2.51785E-11 2.10789E-12
2.74156E-11 2.10780E-12
2.97478E-11 2.10772E-12
3.21752E-11 2.10763E-12
3.46979E-11 2.10753E-12
3.73157E-11 2.10744E-12
4.00286E-11 2.10734E-12
4.28368E-11 2.10723E-12
4.57402E-11 2.10713E-12
4.87388E-11 2.10702E-12
5.18325E-11 2.10690E-12
5.50215E-11 2.10678E-12
5.83057E-11 2.10666E-12
6.16850E-11 2.10654E-12
6.51595E-11 2.10641E-12
6.87293E-11 2.10628E-12
7.23943E-11 2.10615E-12
7.61544E-11 2.10601E-12
1.18991E-10 2.10443E-12
1.71347E-10 2.10252E-12
2.33223E-10 2.10026E-12
3.04617E-10 2.09765E-12
3.85531E-10 2.09471E-12
4.75965E-10 2.09143E-12
5.75917E-10 2.08782E-12
6.85389E-10 2.08388E-12
8.04380E-10 2.07960E-12
9.32891E-10 2.07501E-12
1.07092E-09 2.07009E-12
1.21847E-09 2.06485E-12
1.37554E-09 2.05930E-12
1.54213E-09 2.05345E-12
1.71823E-09 2.04729E-12
1.90386E-09 2.04083E-12
2.09900E-09 2.03408E-12
2.30367E-09 2.02704E-12
2.51785E-09 2.01971E-12
2.74156E-09 2.01211E-12
2.97478E-09 2.00424E-12
3.21752E-09 1.99610E-12
3.46978E-09 1.98771E-12
3.73156E-09 1.97906E-12
4.00286E-09 1.97016E-12
4.28368E-09 1.96102E-12
4.57402E-09 1.95165E-12
4.87388E-09 1.94205E-12
5.18326E-09 1.93224E-12
5.50215E-09 1.92221E-12
5.83057E-09 1.91197E-12
6.16850E-09 1.90154E-12
6.51596E-09 1.89091E-12
6.87293E-09 1.88010E-12
7.23942E-09 1.86911E-12
7.61544E-09 1.85795E-12
1.18991E-08 1.73856E-12
1.71347E-08 1.60991E-12
2.33223E-08 1.47838E-12
3.04617E-08 1.34918E-12
3.85531E-08 1.22614E-12
4.75965E-08 1.11177E-12
5.75917E-08 1.00739E-12
6.85389E-08 9.13428E-13
8.04380E-08 8.29656E-13
9.32891E-08 7.55443E-13
1.07092E-07 6.89928E-13
1.21847E-07 6.32158E-13
1.37554E-07 5.81180E-13
1.54213E-07 5.36095E-13
1.71823E-07 4.96088E-13
1.90386E-07 4.60440E-13
2.09900E-07 4.28529E-13
2.30367E-07 3.99822E-13
2.51785E-07 3.73870E-13
2.74156E-07 3.50294E-13
2.97478E-07 3.28777E-13
3.21752E-07 3.09056E-13
3.46978E-07 2.90909E-13
3.73156E-07 2.74151E-13
4.00286E-07 2.58628E-13
4.28368E-07 2.44208E-13
4.57402E-07 2.30781E-13
4.87388E-07 2.18253E-13
5.18325E-07 2.06542E-13
5.50215E-07 1.95580E-13
5.83057E-07 1.85303E-13
6.16850E-07 1.75660E-13
6.51596E-07 1.66603E-13
6.87293E-07 1.58089E-13
7.23942E-07 1.50080E-13
7.61543E-07 1.42542E-13
1.18991E-06 8.72469E-14
1.71347E-06 5.58223E-14
2.33223E-06 3.72421E-14
3.04617E-06 2.57485E-14
3.85531E-06 1.83210E-14
4.75964E-06 1.33405E-14
5.75916E-06 9.90252E-15
6.85388E-06 7.47547E-15
8.04378E-06 5.73123E-15
9.32888E-06 4.45853E-15
1.07092E-05 3.51697E-15
1.21846E-05 2.81109E-15
1.37553E-05 2.27495E-15
1.54212E-05 1.86246E-15
1.71822E-05 1.54104E-15
1.90385E-05 1.28754E-15
2.09899E-05 1.08519E-15
2.30365E-05 9.21897E-16
2.51783E-05 7.88773E-16
2.74153E-05 6.79212E-16
2.97475E-05 5.88265E-16
3.21749E-05 5.12177E-16
3.46974E-05 4.48068E-16
3.73152E-05 3.93704E-16
4.00281E-05 3.47336E-16
4.28362E-05 3.07577E-16
4.57395E-05 2.73321E-16
4.87380E-05 2.43675E-16
5.18317E-05 2.17914E-16
5.50205E-05 1.95444E-16
5.83045E-05 1.75775E-16
6.16838E-05 1.58501E-16
6.51582E-05 1.43283E-16
6.87277E-05 1.29837E-16
7.23925E-05 1.17922E-16
7.61524E-05 1.07335E-16
9.21439E-05 7.51829E-17
1.09658E-04 5.41976E-17
1.28695E-04 4.00456E-17
1.49255E-04 3.02261E-17
1.71338E-04 2.32415E-17
1.94942E-04 1.81637E-17
2.20070E-04 1.44006E-17
2.46720E-04 1.15638E-17
2.74892E-04 9.39237E-18
3.04586E-04 7.70747E-18
3.35803E-04 6.38381E-18
3.68542E-04 5.33224E-18
4.02802E-04 4.48828E-18
4.38585E-04 3.80461E-18
4.75889E-04 3.24602E-18
5.14715E-04 2.78605E-18
5.55063E-04 2.40451E-18
5.96931E-04 2.08592E-18
6.40321E-04 1.81821E-18
6.85233E-04 1.59197E-18
7.31665E-04 1.39972E-18
7.79618E-04 1.23553E-18
8.29092E-04 1.09463E-18
8.80086E-04 9.73188E-19
9.32601E-04 8.68067E-19
9.86636E-04 7.76712E-19
1.04219E-03 6.97021E-19
1.09927E-03 6.27258E-19
1.15786E-03 5.65978E-19
1.21797E-03 5.11976E-19
1.27961E-03 4.64243E-19
1.34276E-03 4.21927E-19
1.40743E-03 3.84308E-19
1.47362E-03 3.50777E-19
1.54133E-03 3.20814E-19
1.61056E-03 2.93972E-19
1.68131E-03 2.69872E-19
1.75357E-03 2.48183E-19
1.82735E-03 2.28624E-19
1.90265E-03 2.10949E-19
1.97947E-03 1.94944E-19
2.05780E-03 1.80424E-19
2.13765E-03 1.67228E-19
2.21902E-03 1.55212E-19
2.30190E-03 1.44253E-19
2.38630E-03 1.34242E-19
2.47222E-03 1.25081E-19
2.55965E-03 1.16687E-19
2.64859E-03 1.08982E-19
2.73905E-03 1.01901E-19
2.83103E-03 9.53845E-20
2.92452E-03 8.93786E-20
3.01952E-03 8.38365E-20
3.11604E-03 7.87158E-20
3.21407E-03 7.39789E-20
3.31362E-03 6.95917E-20
3.41468E-03 6.55237E-20
3.51725E-03 6.17477E-20
3.62133E-03 5.82386E-20
3.72692E-03 5.49744E-20
3.83403E-03 5.19348E-20
3.94265E-03 4.91015E-20
4.05278E-03 4.64581E-20
4.16442E-03 4.39895E-20
4.27757E-03 4.16819E-20
4.39223E-03 3.95231E-20
4.50840E-03 3.75016E-20
4.62608E-03 3.56071E-20
4.74527E-03 3.38302E-20
4.86597E-03 3.21623E-20
4.98817E-03 3.05954E-20
5.11188E-03 2.91223E-20
5.23711E-03 2.77364E-20
5.36383E-03 2.64315E-20
5.49207E-03 2.52021E-20
5.62181E-03 2.40430E-20
5.75306E-03 2.29494E-20
5.88581E-03 2.19170E-20
6.02007E-03 2.09416E-20
6.15583E-03 2.00197E-20
6.29310E-03 1.91476E-20
6.43187E-03 1.83222E-20
6.57214E-03 1.75406E-20
6.71392E-03 1.68000E-20
6.85720E-03 1.60978E-20
7.00198E-03 1.54317E-20
7.14827E-03 1.47996E-20
7.29605E-03 1.41992E-20
7.44534E-03 1.36288E-20
7.59612E-03 1.30866E-20
7.97965E-03 1.18438E-20
8.37255E-03 1.07443E-20
8.77480E-03 9.76864E-21
9.18641E-03 8.90059E-21
9.60736E-03 8.12624E-21
1.00376E-02 7.43376E-21
1.04773E-02 6.81301E-21
1.09262E-02 6.25528E-21
1.13844E-02 5.75308E-21
1.18520E-02 5.29992E-21
1.23288E-02 4.89020E-21
1.28150E-02 4.51902E-21
1.33104E-02 4.18215E-21
1.38150E-02 3.87584E-21
1.43290E-02 3.59686E-21
1.48521E-02 3.34234E-21
1.53845E-02 3.10975E-21
1.59262E-02 2.89689E-21
1.64770E-02 2.70178E-21
1.70371E-02 2.52268E-21
1.76063E-02 2.35806E-21
1.81848E-02 2.20654E-21
1.87724E-02 2.06688E-21
1.93692E-02 1.93800E-21
1.99751E-02 1.81893E-21
2.05901E-02 1.70877E-21
2.12143E-02 1.60676E-21
2.18476E-02 1.51217E-21
2.24900E-02 1.42438E-21
2.31415E-02 1.34280E-21
2.38021E-02 1.26693E-21
2.44717E-02 1.19629E-21
2.51504E-02 1.13045E-21
2.58382E-02 1.06903E-21
2.65349E-02 1.01169E-21
2.72407E-02 9.58104E-22
2.79555E-02 9.07980E-22
2.86793E-02 8.61057E-22
2.94120E-02 8.17094E-22
3.01537E-02 7.75872E-22
3.09043E-02 7.37188E-22
3.16639E-02 7.00859E-22
3.24324E-02 6.66715E-22
3.32098E-02 6.34603E-22
3.39961E-02 6.04378E-22
3.47912E-02 5.75911E-22
3.55952E-02 5.49081E-22
3.64081E-02 5.23777E-22
3.72297E-02 4.99897E-22
3.80602E-02 4.77346E-22
3.88995E-02 4.56037E-22
3.97476E-02 4.35889E-22
4.06044E-02 4.16829E-22
4.14700E-02 3.98786E-22
4.23443E-02 3.81696E-22
4.32273E-02 3.65501E-22
4.41190E-02 3.50144E-22
4.50194E-02 3.35576E-22
4.59284E-02 3.21747E-22
4.68461E-02 3.08614E-22
4.87074E-02 2.84272E-22
5.06030E-02 2.62253E-22
5.25328E-02 2.42298E-22
5.44967E-02 2.24180E-22
5.64946E-02 2.07702E-22
5.85262E-02 1.92689E-22
6.05914E-02 1.78990E-22
6.26901E-02 1.66469E-22
6.48222E-02 1.55009E-22
6.69873E-02 1.44503E-22
6.91854E-02 1.34859E-22
7.14163E-02 1.25995E-22
7.36799E-02 1.17835E-22
7.59760E-02 1.10315E-22
7.83043E-02 1.03376E-22
8.06647E-02 9.69648E-23
8.30571E-02 9.10350E-23
8.54812E-02 8.55439E-23
8.79369E-02 8.04537E-23
9.04240E-02 7.57299E-23
9.29422E-02 7.13416E-23
9.54915E-02 6.72609E-23
9.80716E-02 6.34624E-23
1.00682E-01 5.99234E-23
1.03323E-01 5.66230E-23
1.05995E-01 5.35424E-23
1.08696E-01 5.06644E-23
1.11427E-01 4.79734E-23
1.14188E-01 4.54550E-23
1.16978E-01 4.30964E-23
1.19797E-01 4.08857E-23
1.22645E-01 3.88119E-23
1.25522E-01 3.68651E-23
1.28428E-01 3.50363E-23
1.31361E-01 3.33169E-23
1.34323E-01 3.16994E-23
1.37313E-01 3.01766E-23
1.40330E-01 2.87420E-23
1.43375E-01 2.73897E-23
1.46447E-01 2.61141E-23
1.49545E-01 2.49101E-23
1.52671E-01 2.37730E-23
1.55823E-01 2.26984E-23
1.59001E-01 2.16823E-23
1.62205E-01 2.07210E-23
1.65435E-01 1.98109E-23
1.68690E-01 1.89490E-23
1.71970E-01 1.81322E-23
1.75276E-01 1.73577E-23
1.78606E-01 1.66229E-23
1.81961E-01 1.59256E-23
1.85340E-01 1.52633E-23
1.88743E-01 1.46342E-23
1.92169E-01 1.40362E-23
1.95619E-01 1.34674E-23
1.99092E-01 1.29264E-23
2.02589E-01 1.24113E-23
2.06107E-01 1.19209E-23
2.09649E-01 1.14537E-23
2.13212E-01 1.10084E-23
2.16797E-01 1.05838E-23
2.20404E-01 1.01788E-23
2.24032E-01 9.79238E-24
2.27680E-01 9.42346E-24
2.31350E-01 9.07113E-24
2.35040E-01 8.73453E-24
2.38751E-01 8.41284E-24
2.42481E-01 8.10528E-24
2.46231E-01 7.81112E-24
2.50000E-01 7.52968E-24
2.53788E-01 7.26031E-24
2.57595E-01 7.00241E-24
2.61421E-01 6.75540E-24
2.65264E-01 6.51875E-24
2.69126E-01 6.29195E-24
2.73005E-01 6.07452E-24
2.76901E-01 5.86600E-24
2.80814E-01 5.66597E-24
2.84744E-01 5.47402E-24
2.88691E-01 5.28977E-24
2.92653E-01 5.11286E-24
2.96632E-01 4.94294E-24
3.00625E-01 4.77970E-24
3.04634E-01 4.62282E-24
3.08658E-01 4.47202E-24
3.12697E-01 4.32702E-24
3.16749E-01 4.18755E-24
3.20816E-01 4.05338E-24
3.24896E-01 3.92427E-24
3.28990E-01 3.79998E-24
3.33097E-01 3.68032E-24
3.37216E-01 3.56508E-24
3.41348E-01 3.45408E-24
3.45492E-01 3.34712E-24
3.49647E-01 3.24404E-24
3.53814E-01 3.14466E-24
3.57992E-01 3.04885E-24
3.62181E-01 2.95644E-24
3.66381E-01 2.86730E-24
3.70590E-01 2.78129E-24
3.74810E-01 2.69828E-24
3.79039E-01 2.61815E-24
3.83277E-01 2.54078E-24
3.87524E-01 2.46607E-24
3.91780E-01 2.39390E-24
3.96044E-01 2.32418E-24
4.00316E-01 2.25681E-24
4.04596E-01 2.19169E-24
4.08882E-01 2.12874E-24
4.13176E-01 2.06787E-24
4.17476E-01 2.00901E-24
4.21783E-01 1.95207E-24
4.26095E-01 1.89699E-24
4.30413E-01 1.84369E-24
4.34737E-01 1.79210E-24
4.39065E-01 1.74217E-24
4.43398E-01 1.69383E-24
4.47736E-01 1.64701E-24
4.52077E-01 1.60167E-24
4.56422E-01 1.55776E-24
4.60770E-01 1.51521E-24
4.65122E-01 1.47397E-24
4.69476E-01 1.43402E-24
4.73832E-01 1.39528E-24
4.78190E-01 1.35773E-24
4.82550E-01 1.32132E-24
4.86912E-01 1.28601E-24
4.91274E-01 1.25176E-24
4.95637E-01 1.21853E-24
5.00000E-01 1.18630E-24
5.04363E-01 1.15501E-24
5.08726E-01 1.12465E-24
5.13088E-01 1.09519E-24
5.17450E-01 1.06658E-24
5.21810E-01 1.03880E-24
5.26168E-01 1.01182E-24
5.30524E-01 9.85624E-25
5.34878E-01 9.60176E-25
5.39230E-01 9.35453E-25
5.43578E-01 9.11431E-25
5.47923E-01 8.88088E-25
5.52264E-01 8.65402E-25
5.56602E-01 8.43351E-25
5.60935E-01 8.21914E-25
5.65263E-01 8.01071E-25
5.69587E-01 7.80805E-25
5.73905E-01 7.61096E-25
5.78217E-01 7.41926E-25
5.82524E-01 7.23280E-25
5.86824E-01 7.05139E-25
5.91118E-01 6.87489E-25
5.95404E-01 6.70315E-25
5.99684E-01 6.53600E-25
6.03956E-01 6.37332E-25
6.08220E-01 6.21496E-25
6.12476E-01 6.06080E-25
6.16723E-01 5.91071E-25
6.20961E-01 5.76456E-25
6.25190E-01 5.62223E-25
6.29410E-01 5.48361E-25
6.33619E-01 5.34859E-25
6.37819E-01 5.21707E-25
6.42008E-01 5.08893E-25
6.46186E-01 4.96408E-25
6.50353E-01 4.84243E-25
6.54508E-01 4.72388E-25
6.58652E-01 4.60833E-25
6.62784E-01 4.49571E-25
6.66903E-01 4.38592E-25
6.71010E-01 4.27890E-25
6.75104E-01 4.17455E-25
6.79184E-01 4.07281E-25
6.83251E-01 3.97359E-25
6.87303E-01 3.87683E-25
6.91342E-01 3.78246E-25
6.95366E-01 3.69042E-25
6.99375E-01 3.60063E-25
7.03368E-01 3.51303E-25
7.07347E-01 3.42757E-25
7.11309E-01 3.34419E-25
7.15256E-01 3.26283E-25
7.19186E-01 3.18343E-25
7.23099E-01 3.10594E-25
7.26995E-01 3.03032E-25
7.30874E-01 2.95650E-25
7.34736E-01 2.88444E-25
7.38579E-01 2.81410E-25
7.42405E-01 2.74543E-25
7.46212E-01 2.67839E-25
7.50000E-01 2.61292E-25
7.53769E-01 2.54900E-25
7.57519E-01 2.48658E-25
7.61249E-01 2.42563E-25
7.64960E-01 2.36609E-25
7.68650E-01 2.30795E-25
7.72320E-01 2.25116E-25
7.75968E-01 2.19568E-25
7.79596E-01 2.14149E-25
7.83203E-01 2.08856E-25
7.86788E-01 2.03684E-25
7.90351E-01 1.98632E-25
7.93893E-01 1.93695E-25
7.97411E-01 1.88872E-25
8.00908E-01 1.84159E-25
8.04381E-01 1.79554E-25
8.07831E-01 1.75054E-25
8.11257E-01 1.70656E-25
8.14660E-01 1.66359E-25
8.18039E-01 1.62159E-25
8.21394E-01 1.58054E-25
8.24724E-01 1.54043E-25
8.28030E-01 1.50122E-25
8.31310E-01 1.46289E-25
8.34565E-01 1.42544E-25
8.37795E-01 1.38883E-25
8.40999E-01 1.35304E-25
8.44177E-01 1.31805E-25
8.47329E-01 1.28386E-25
8.50455E-01 1.25043E-25
8.53553E-01 1.21776E-25
8.56625E-01 1.18583E-25
8.59670E-01 1.15461E-25
8.62687E-01 1.12409E-25
8.65677E-01 1.09426E-25
8.68639E-01 1.06511E-25
8.71572E-01 1.03661E-25
8.74478E-01 1.00875E-25
8.77355E-01 9.81520E-26
8.80203E-01 9.54906E-26
8.83022E-01 9.28893E-26
8.85812E-01 9.03469E-26
8.88573E-01 8.78621E-26
8.91304E-01 8.54338E-26
8.94005E-01 8.30606E-26
8.96677E-01 8.07415E-26
8.99318E-01 7.84753E-26
9.01928E-01 7.62610E-26
9.04508E-01 7.40975E-26
9.07058E-01 7.19837E-26
9.09576E-01 6.99187E-26
9.12063E-01 6.79015E-26
9.14519E-01 6.59311E-26
9.16943E-01 6.40066E-26
9.19335E-01 6.21272E-26
9.21696E-01 6.02919E-26
9.24024E-01 5.84999E-26
9.26320E-01 5.67503E-26
9.28584E-01 5.50425E-26
9.30815E-01 5.33755E-26
9.33013E-01 5.17487E-26
9.35178E-01 5.01613E-26
9.37310E-01 4.86126E-26
9.39409E-01 4.71018E-26
9.41474E-01 4.56284E-26
9.43505E-01 4.41917E-26
9.45503E-01 4.27910E-26
9.47467E-01 4.14257E-26
9.49397E-01 4.00952E-26
9.51293E-01 3.87989E-26
9.53154E-01 3.75363E-26
9.54981E-01 3.63068E-26
9.56773E-01 3.51099E-26
9.58530E-01 3.39450E-26
9.60252E-01 3.28117E-26
9.61940E-01 3.17094E-26
9.63592E-01 3.06377E-26
9.65209E-01 2.95962E-26
9.66790E-01 2.85844E-26
9.68336E-01 2.76018E-26
9.69846E-01 2.66481E-26
9.71321E-01 2.57228E-26
9.72759E-01 2.48256E-26
9.74162E-01 2.39560E-26
9.75528E-01 2.31138E-26
9.76858E-01 2.22985E-26
9.78152E-01 2.15098E-26
9.79410E-01 2.07474E-26
9.80631E-01 2.00111E-26
9.81815E-01 1.93003E-26
9.82963E-01 1.86150E-26
9.84074E-01 1.79548E-26
9.85148E-01 1.73193E-26
9.86185E-01 1.67085E-26
9.87185E-01 1.61219E-26
9.88148E-01 1.55595E-26
9.89074E-01 1.50209E-26
9.89962E-01 1.45059E-26
9.90814E-01 1.40143E-26
9.91627E-01 1.35459E-26
9.92404E-01 1.31006E-26
9.93143E-01 1.26781E-26
9.93844E-01 1.22783E-26
9.94508E-01 1.19010E-26
9.95134E-01 1.15460E-26
9.95722E-01 1.12133E-26
9.96273E-01 1.09026E-26
9.96786E-01 1.06140E-26
9.97261E-01 1.03471E-26
9.97698E-01 1.01020E-26
9.98097E-01 9.87859E-27
9.98459E-01 9.67668E-27
9.98782E-01 9.49624E-27
9.99067E-01 9.33720E-27
9.99315E-01 9.19949E-27
9.99524E-01 9.08307E-27
9.99695E-01 8.98787E-27
9.99829E-01 8.91387E-27
9.99924E-01 8.86103E-27
9.99981E-01 8.82934E-27
1.00000E+00 8.81878E-27
