 #
 # Subroutine ELSEPA. Elastic scattering of electrons and positrons
 #                    by neutral atoms and positive ions
 #
 # Projectile: positron
 # Kinetic energy = 3.50000E+08 eV = 1.28623E+07 a.u.
 #
 # WARNING: High-energy factorization with free-atom DF screening.
 #          Absorption, polarization and exchange corrections are
 #          switched off.
 #          Phase shifts are calculated for the bare nucleus.
 #          Scattering amplitudes are not evaluated.
 #
 # Element: Tm,  Z =  69,  atomic weight = 1.68934E+02 g/mol
 #
 # Nuclear model: Fermi distribution
 #                Average radius = 5.91502E-13 cm
 #                Skin thickness = 5.46000E-14 cm
 #
 # Number of electrons = 69
 #
 # Total elastic cross section = 7.01969E-18 cm**2 = 2.50678E-01 a0**2
 # 1st transport cross section = 7.33601E-26 cm**2 = 2.61974E-09 a0**2
 # 2nd transport cross section = 2.19901E-25 cm**2 = 7.85280E-09 a0**2
 #
 #
 # Differential cross section:                       MU=(1-COS(THETA))/2
 #
 #  THETA        MU          DCS          DCS        Sherman      error
 #  (deg)                 (cm**2/sr)   (a0**2/sr)    function
 #----------------------------------------------------------------------
0.00000E+00 8.53067E-09
7.61557E-13 8.08996E-09
1.18994E-12 7.85889E-09
1.71346E-12 7.59151E-09
2.33225E-12 7.29601E-09
3.04617E-12 6.97792E-09
3.85530E-12 6.64667E-09
4.75964E-12 6.30823E-09
5.75917E-12 5.96722E-09
6.85391E-12 5.63260E-09
8.04379E-12 5.30526E-09
9.32893E-12 4.98873E-09
1.07092E-11 4.68847E-09
1.21847E-11 4.40251E-09
1.37554E-11 4.13351E-09
1.54213E-11 3.88264E-09
1.71823E-11 3.64763E-09
1.90386E-11 3.43026E-09
2.09900E-11 3.22892E-09
2.30367E-11 3.04195E-09
2.51785E-11 2.87041E-09
2.74156E-11 2.71161E-09
2.97478E-11 2.56475E-09
3.21752E-11 2.42986E-09
3.46979E-11 2.30479E-09
3.73157E-11 2.18917E-09
4.00286E-11 2.08220E-09
4.28368E-11 1.98282E-09
4.57402E-11 1.89055E-09
4.87388E-11 1.80458E-09
5.18325E-11 1.72444E-09
5.50215E-11 1.64944E-09
5.83057E-11 1.57919E-09
6.16850E-11 1.51342E-09
6.51595E-11 1.45129E-09
6.87293E-11 1.39289E-09
7.23943E-11 1.33785E-09
7.61544E-11 1.28557E-09
1.18991E-10 8.86355E-10
1.71347E-10 6.29039E-10
2.33223E-10 4.48776E-10
3.04617E-10 3.34240E-10
3.85531E-10 2.50097E-10
4.75965E-10 1.91128E-10
5.75917E-10 1.49230E-10
6.85389E-10 1.17091E-10
8.04380E-10 9.34838E-11
9.32891E-10 7.55762E-11
1.07092E-09 6.13848E-11
1.21847E-09 5.04578E-11
1.37554E-09 4.17609E-11
1.54213E-09 3.47563E-11
1.71823E-09 2.91766E-11
1.90386E-09 2.46077E-11
2.09900E-09 2.08841E-11
2.30367E-09 1.78456E-11
2.51785E-09 1.53133E-11
2.74156E-09 1.32213E-11
2.97478E-09 1.14794E-11
3.21752E-09 1.00093E-11
3.46978E-09 8.77456E-12
3.73156E-09 7.72750E-12
4.00286E-09 6.83335E-12
4.28368E-09 6.07002E-12
4.57402E-09 5.41337E-12
4.87388E-09 4.84284E-12
5.18326E-09 4.34741E-12
5.50215E-09 3.91450E-12
5.83057E-09 3.53596E-12
6.16850E-09 3.20393E-12
6.51596E-09 2.90999E-12
6.87293E-09 2.65020E-12
7.23942E-09 2.41943E-12
7.61544E-09 2.21300E-12
1.18991E-08 9.98041E-13
1.71347E-08 5.12314E-13
2.33223E-08 2.88459E-13
3.04617E-08 1.74552E-13
3.85531E-08 1.11745E-13
4.75965E-08 7.48548E-14
5.75917E-08 5.20034E-14
6.85389E-08 3.72606E-14
8.04380E-08 2.73919E-14
9.32891E-08 2.05858E-14
1.07092E-07 1.57692E-14
1.21847E-07 1.22801E-14
1.37554E-07 9.70477E-15
1.54213E-07 7.76926E-15
1.71823E-07 6.29242E-15
1.90386E-07 5.14999E-15
2.09900E-07 4.25481E-15
2.30367E-07 3.54579E-15
2.51785E-07 2.97821E-15
2.74156E-07 2.51966E-15
2.97478E-07 2.14598E-15
3.21752E-07 1.83898E-15
3.46978E-07 1.58495E-15
3.73156E-07 1.37327E-15
4.00286E-07 1.19576E-15
4.28368E-07 1.04603E-15
4.57402E-07 9.19009E-16
4.87388E-07 8.10702E-16
5.18325E-07 7.17886E-16
5.50215E-07 6.37984E-16
5.83057E-07 5.68900E-16
6.16850E-07 5.08918E-16
6.51596E-07 4.56642E-16
6.87293E-07 4.10908E-16
7.23942E-07 3.70763E-16
7.61543E-07 3.35404E-16
1.18991E-06 1.38522E-16
1.71347E-06 6.71727E-17
2.33223E-06 3.63957E-17
3.04617E-06 2.13912E-17
3.85531E-06 1.33797E-17
4.75964E-06 8.79041E-18
5.75916E-06 6.00995E-18
6.85388E-06 4.24654E-18
8.04378E-06 3.08476E-18
9.32888E-06 2.29433E-18
1.07092E-05 1.74152E-18
1.21846E-05 1.34555E-18
1.37553E-05 1.05596E-18
1.54212E-05 8.40214E-19
1.71822E-05 6.76839E-19
1.90385E-05 5.51030E-19
2.09899E-05 4.53592E-19
2.30365E-05 3.76707E-19
2.51783E-05 3.15356E-19
2.74153E-05 2.65933E-19
2.97475E-05 2.25787E-19
3.21749E-05 1.92934E-19
3.46974E-05 1.65855E-19
3.73152E-05 1.43382E-19
4.00281E-05 1.24601E-19
4.28362E-05 1.08802E-19
4.57395E-05 9.54284E-20
4.87380E-05 8.40421E-20
5.18317E-05 7.42982E-20
5.50205E-05 6.59218E-20
5.83045E-05 5.86910E-20
6.16838E-05 5.24249E-20
6.51582E-05 4.69742E-20
6.87277E-05 4.22152E-20
7.23925E-05 3.80447E-20
7.61524E-05 3.45604E-20
9.21439E-05 2.36086E-20
1.09658E-04 1.66695E-20
1.28695E-04 1.21031E-20
1.49255E-04 8.99713E-21
1.71338E-04 6.82634E-21
1.94942E-04 5.27181E-21
2.20070E-04 4.13504E-21
2.46720E-04 3.28824E-21
2.74892E-04 2.64703E-21
3.04586E-04 2.15438E-21
3.35803E-04 1.77082E-21
3.68542E-04 1.46863E-21
4.02802E-04 1.22795E-21
4.38585E-04 1.03436E-21
4.75889E-04 8.77241E-22
5.14715E-04 7.48652E-22
5.55063E-04 6.42607E-22
5.96931E-04 5.54533E-22
6.40321E-04 4.80903E-22
6.85233E-04 4.18970E-22
7.31665E-04 3.66581E-22
7.79618E-04 3.22028E-22
8.29092E-04 2.83951E-22
8.80086E-04 2.51255E-22
9.32601E-04 2.23058E-22
9.86636E-04 1.98640E-22
1.04219E-03 1.77412E-22
1.09927E-03 1.58890E-22
1.15786E-03 1.42671E-22
1.21797E-03 1.28424E-22
1.27961E-03 1.15869E-22
1.34276E-03 1.04773E-22
1.40743E-03 9.49387E-23
1.47362E-03 8.61988E-23
1.54133E-03 7.84120E-23
1.61056E-03 7.14575E-23
1.68131E-03 6.52319E-23
1.75357E-03 5.96465E-23
1.82735E-03 5.46248E-23
1.90265E-03 5.01008E-23
1.97947E-03 4.60172E-23
2.05780E-03 4.23243E-23
2.13765E-03 3.89789E-23
2.21902E-03 3.59429E-23
2.30190E-03 3.31833E-23
2.38630E-03 3.06709E-23
2.47222E-03 2.83801E-23
2.55965E-03 2.62884E-23
2.64859E-03 2.43757E-23
2.73905E-03 2.26244E-23
2.83103E-03 2.10187E-23
2.92452E-03 1.95447E-23
3.01952E-03 1.81900E-23
3.11604E-03 1.69434E-23
3.21407E-03 1.57951E-23
3.31362E-03 1.47361E-23
3.41468E-03 1.37584E-23
3.51725E-03 1.28549E-23
3.62133E-03 1.20192E-23
3.72692E-03 1.12454E-23
3.83403E-03 1.05282E-23
3.94265E-03 9.86302E-24
4.05278E-03 9.24546E-24
4.16442E-03 8.67166E-24
4.27757E-03 8.13807E-24
4.39223E-03 7.64150E-24
4.50840E-03 7.17903E-24
4.62608E-03 6.74799E-24
4.74527E-03 6.34597E-24
4.86597E-03 5.97076E-24
4.98817E-03 5.62033E-24
5.11188E-03 5.29283E-24
5.23711E-03 4.98657E-24
5.36383E-03 4.70000E-24
5.49207E-03 4.43168E-24
5.62181E-03 4.18033E-24
5.75306E-03 3.94472E-24
5.88581E-03 3.72376E-24
6.02007E-03 3.51642E-24
6.15583E-03 3.32176E-24
6.29310E-03 3.13892E-24
6.43187E-03 2.96710E-24
6.57214E-03 2.80556E-24
6.71392E-03 2.65361E-24
6.85720E-03 2.51062E-24
7.00198E-03 2.37601E-24
7.14827E-03 2.24922E-24
7.29605E-03 2.12976E-24
7.44534E-03 2.01716E-24
7.59612E-03 1.91099E-24
7.97965E-03 1.67108E-24
8.37255E-03 1.46329E-24
8.77480E-03 1.28294E-24
9.18641E-03 1.12613E-24
9.60736E-03 9.89516E-25
1.00376E-02 8.70315E-25
1.04773E-02 7.66142E-25
1.09262E-02 6.74973E-25
1.13844E-02 5.95079E-25
1.18520E-02 5.24979E-25
1.23288E-02 4.63404E-25
1.28150E-02 4.09260E-25
1.33104E-02 3.61606E-25
1.38150E-02 3.19626E-25
1.43290E-02 2.82616E-25
1.48521E-02 2.49963E-25
1.53845E-02 2.21137E-25
1.59262E-02 1.95673E-25
1.64770E-02 1.73168E-25
1.70371E-02 1.53269E-25
1.76063E-02 1.35667E-25
1.81848E-02 1.20092E-25
1.87724E-02 1.06306E-25
1.93692E-02 9.41007E-26
1.99751E-02 8.32935E-26
2.05901E-02 7.37227E-26
2.12143E-02 6.52461E-26
2.18476E-02 5.77383E-26
2.24900E-02 5.10886E-26
2.31415E-02 4.51991E-26
2.38021E-02 3.99835E-26
2.44717E-02 3.53652E-26
2.51504E-02 3.12764E-26
2.58382E-02 2.76571E-26
2.65349E-02 2.44541E-26
2.72407E-02 2.16203E-26
2.79555E-02 1.91138E-26
2.86793E-02 1.68976E-26
2.94120E-02 1.49385E-26
3.01537E-02 1.32075E-26
3.09043E-02 1.16784E-26
3.16639E-02 1.03284E-26
3.24324E-02 9.13679E-27
3.32098E-02 8.08549E-27
3.39961E-02 7.15833E-27
3.47912E-02 6.34095E-27
3.55952E-02 5.62064E-27
3.64081E-02 4.98608E-27
3.72297E-02 4.42725E-27
3.80602E-02 3.93525E-27
3.88995E-02 3.50219E-27
3.97476E-02 3.12108E-27
4.06044E-02 2.78572E-27
4.14700E-02 2.49063E-27
4.23443E-02 2.23095E-27
4.32273E-02 2.00239E-27
4.41190E-02 1.80116E-27
4.50194E-02 1.62390E-27
4.59284E-02 1.46766E-27
4.68461E-02 1.32983E-27
4.87074E-02 1.10049E-27
5.06030E-02 9.20642E-28
5.25328E-02 7.78540E-28
5.44967E-02 6.65166E-28
5.64946E-02 5.73638E-28
5.85262E-02 4.98736E-28
6.05914E-02 4.36523E-28
6.26901E-02 3.84050E-28
6.48222E-02 3.39120E-28
6.69873E-02 3.00112E-28
6.91854E-02 2.65832E-28
7.14163E-02 2.35409E-28
7.36799E-02 2.08204E-28
7.59760E-02 1.83752E-28
7.83043E-02 1.61709E-28
8.06647E-02 1.41816E-28
8.30571E-02 1.23874E-28
8.54812E-02 1.07721E-28
8.79369E-02 9.32241E-29
9.04240E-02 8.02631E-29
9.29422E-02 6.87291E-29
9.54915E-02 5.85183E-29
9.80716E-02 4.95307E-29
1.00682E-01 4.16683E-29
1.03323E-01 3.48353E-29
1.05995E-01 2.89380E-29
1.08696E-01 2.38855E-29
1.11427E-01 1.95899E-29
1.14188E-01 1.59675E-29
1.16978E-01 1.29389E-29
1.19797E-01 1.04299E-29
1.22645E-01 8.37140E-30
1.25522E-01 6.70007E-30
1.28428E-01 5.35821E-30
1.31361E-01 4.29388E-30
1.34323E-01 3.46076E-30
1.37313E-01 2.81793E-30
1.40330E-01 2.32965E-30
1.43375E-01 1.96505E-30
1.46447E-01 1.69773E-30
1.49545E-01 1.50540E-30
1.52671E-01 1.36948E-30
1.55823E-01 1.27474E-30
1.59001E-01 1.20885E-30
1.62205E-01 1.16204E-30
1.65435E-01 1.12672E-30
1.68690E-01 1.09721E-30
1.71970E-01 1.06935E-30
1.75276E-01 1.04028E-30
1.78606E-01 1.00819E-30
1.81961E-01 9.72092E-31
1.85340E-01 9.31622E-31
1.88743E-01 8.86903E-31
1.92169E-01 8.38392E-31
1.95619E-01 7.86771E-31
1.99092E-01 7.32855E-31
2.02589E-01 6.77516E-31
2.06107E-01 6.21632E-31
2.09649E-01 5.66036E-31
2.13212E-01 5.11492E-31
2.16797E-01 4.58671E-31
2.20404E-01 4.08141E-31
2.24032E-01 3.60360E-31
2.27680E-01 3.15679E-31
2.31350E-01 2.74344E-31
2.35040E-01 2.36505E-31
2.38751E-01 2.02224E-31
2.42481E-01 1.71488E-31
2.46231E-01 1.44217E-31
2.50000E-01 1.20279E-31
2.53788E-01 9.94977E-32
2.57595E-01 8.16654E-32
2.61421E-01 6.65518E-32
2.65264E-01 5.39123E-32
2.69126E-01 4.34961E-32
2.73005E-01 3.50522E-32
2.76901E-01 2.83352E-32
2.80814E-01 2.31096E-32
2.84744E-01 1.91529E-32
2.88691E-01 1.62585E-32
2.92653E-01 1.42371E-32
2.96632E-01 1.29179E-32
3.00625E-01 1.21490E-32
3.04634E-01 1.17971E-32
3.08658E-01 1.17473E-32
3.12697E-01 1.19019E-32
3.16749E-01 1.21796E-32
3.20816E-01 1.25141E-32
3.24896E-01 1.28528E-32
3.28990E-01 1.31553E-32
3.33097E-01 1.33919E-32
3.37216E-01 1.35421E-32
3.41348E-01 1.35936E-32
3.45492E-01 1.35405E-32
3.49647E-01 1.33824E-32
3.53814E-01 1.31232E-32
3.57992E-01 1.27700E-32
3.62181E-01 1.23323E-32
3.66381E-01 1.18213E-32
3.70590E-01 1.12492E-32
3.74810E-01 1.06286E-32
3.79039E-01 9.97177E-33
3.83277E-01 9.29095E-33
3.87524E-01 8.59746E-33
3.91780E-01 7.90173E-33
3.96044E-01 7.21317E-33
4.00316E-01 6.53999E-33
4.04596E-01 5.88924E-33
4.08882E-01 5.26675E-33
4.13176E-01 4.67721E-33
4.17476E-01 4.12417E-33
4.21783E-01 3.61016E-33
4.26095E-01 3.13676E-33
4.30413E-01 2.70468E-33
4.34737E-01 2.31389E-33
4.39065E-01 1.96371E-33
4.43398E-01 1.65291E-33
4.47736E-01 1.37982E-33
4.52077E-01 1.14241E-33
4.56422E-01 9.38385E-34
4.60770E-01 7.65247E-34
4.65122E-01 6.20393E-34
4.69476E-01 5.01163E-34
4.73832E-01 4.04892E-34
4.78190E-01 3.28963E-34
4.82550E-01 2.70839E-34
4.86912E-01 2.28103E-34
4.91274E-01 1.98469E-34
4.95637E-01 1.79814E-34
5.00000E-01 1.70181E-34
5.04363E-01 1.67788E-34
5.08726E-01 1.71032E-34
5.13088E-01 1.78489E-34
5.17450E-01 1.88911E-34
5.21810E-01 2.01214E-34
5.26168E-01 2.14477E-34
5.30524E-01 2.27927E-34
5.34878E-01 2.40931E-34
5.39230E-01 2.52981E-34
5.43578E-01 2.63686E-34
5.47923E-01 2.72757E-34
5.52264E-01 2.79997E-34
5.56602E-01 2.85287E-34
5.60935E-01 2.88576E-34
5.65263E-01 2.89871E-34
5.69587E-01 2.89225E-34
5.73905E-01 2.86732E-34
5.78217E-01 2.82513E-34
5.82524E-01 2.76714E-34
5.86824E-01 2.69495E-34
5.91118E-01 2.61027E-34
5.95404E-01 2.51488E-34
5.99684E-01 2.41053E-34
6.03956E-01 2.29897E-34
6.08220E-01 2.18187E-34
6.12476E-01 2.06084E-34
6.16723E-01 1.93736E-34
6.20961E-01 1.81283E-34
6.25190E-01 1.68850E-34
6.29410E-01 1.56549E-34
6.33619E-01 1.44481E-34
6.37819E-01 1.32732E-34
6.42008E-01 1.21376E-34
6.46186E-01 1.10474E-34
6.50353E-01 1.00074E-34
6.54508E-01 9.02166E-35
6.58652E-01 8.09282E-35
6.62784E-01 7.22276E-35
6.66903E-01 6.41254E-35
6.71010E-01 5.66235E-35
6.75104E-01 4.97177E-35
6.79184E-01 4.33978E-35
6.83251E-01 3.76484E-35
6.87303E-01 3.24504E-35
6.91342E-01 2.77807E-35
6.95366E-01 2.36139E-35
6.99375E-01 1.99222E-35
7.03368E-01 1.66764E-35
7.07347E-01 1.38466E-35
7.11309E-01 1.14020E-35
7.15256E-01 9.31212E-36
7.19186E-01 7.54654E-36
7.23099E-01 6.07546E-36
7.26995E-01 4.87006E-36
7.30874E-01 3.90272E-36
7.34736E-01 3.14657E-36
7.38579E-01 2.57687E-36
7.42405E-01 2.16979E-36
7.46212E-01 1.90334E-36
7.50000E-01 1.75695E-36
7.53769E-01 1.71187E-36
7.57519E-01 1.75072E-36
7.61249E-01 1.85786E-36
7.64960E-01 2.01914E-36
7.68650E-01 2.22183E-36
7.72320E-01 2.45472E-36
7.75968E-01 2.70785E-36
7.79596E-01 2.97256E-36
7.83203E-01 3.24136E-36
7.86788E-01 3.50790E-36
7.90351E-01 3.76680E-36
7.93893E-01 4.01363E-36
7.97411E-01 4.24482E-36
8.00908E-01 4.45748E-36
8.04381E-01 4.64954E-36
8.07831E-01 4.81945E-36
8.11257E-01 4.96617E-36
8.14660E-01 5.08926E-36
8.18039E-01 5.18851E-36
8.21394E-01 5.26426E-36
8.24724E-01 5.31693E-36
8.28030E-01 5.34739E-36
8.31310E-01 5.35657E-36
8.34565E-01 5.34556E-36
8.37795E-01 5.31572E-36
8.40999E-01 5.26828E-36
8.44177E-01 5.20469E-36
8.47329E-01 5.12638E-36
8.50455E-01 5.03476E-36
8.53553E-01 4.93131E-36
8.56625E-01 4.81744E-36
8.59670E-01 4.69449E-36
8.62687E-01 4.56389E-36
8.65677E-01 4.42673E-36
8.68639E-01 4.28444E-36
8.71572E-01 4.13799E-36
8.74478E-01 3.98850E-36
8.77355E-01 3.83700E-36
8.80203E-01 3.68432E-36
8.83022E-01 3.53130E-36
8.85812E-01 3.37878E-36
8.88573E-01 3.22741E-36
8.91304E-01 3.07777E-36
8.94005E-01 2.93045E-36
8.96677E-01 2.78590E-36
8.99318E-01 2.64453E-36
9.01928E-01 2.50670E-36
9.04508E-01 2.37268E-36
9.07058E-01 2.24276E-36
9.09576E-01 2.11716E-36
9.12063E-01 1.99594E-36
9.14519E-01 1.87933E-36
9.16943E-01 1.76731E-36
9.19335E-01 1.65994E-36
9.21696E-01 1.55721E-36
9.24024E-01 1.45920E-36
9.26320E-01 1.36573E-36
9.28584E-01 1.27689E-36
9.30815E-01 1.19241E-36
9.33013E-01 1.11239E-36
9.35178E-01 1.03662E-36
9.37310E-01 9.65032E-37
9.39409E-01 8.97413E-37
9.41474E-01 8.33690E-37
9.43505E-01 7.73741E-37
9.45503E-01 7.17387E-37
9.47467E-01 6.64450E-37
9.49397E-01 6.14855E-37
9.51293E-01 5.68376E-37
9.53154E-01 5.24947E-37
9.54981E-01 4.84317E-37
9.56773E-01 4.46414E-37
9.58530E-01 4.11114E-37
9.60252E-01 3.78211E-37
9.61940E-01 3.47640E-37
9.63592E-01 3.19213E-37
9.65209E-01 2.92815E-37
9.66790E-01 2.68344E-37
9.68336E-01 2.45666E-37
9.69846E-01 2.24680E-37
9.71321E-01 2.05268E-37
9.72759E-01 1.87349E-37
9.74162E-01 1.70764E-37
9.75528E-01 1.55529E-37
9.76858E-01 1.41456E-37
9.78152E-01 1.28513E-37
9.79410E-01 1.16571E-37
9.80631E-01 1.05619E-37
9.81815E-01 9.55780E-38
9.82963E-01 8.63316E-38
9.84074E-01 7.78610E-38
9.85148E-01 7.01165E-38
9.86185E-01 6.30173E-38
9.87185E-01 5.65275E-38
9.88148E-01 5.05962E-38
9.89074E-01 4.51774E-38
9.89962E-01 4.02324E-38
9.90814E-01 3.57390E-38
9.91627E-01 3.16436E-38
9.92404E-01 2.79166E-38
9.93143E-01 2.45236E-38
9.93844E-01 2.14502E-38
9.94508E-01 1.86772E-38
9.95134E-01 1.61613E-38
9.95722E-01 1.38899E-38
9.96273E-01 1.18497E-38
9.96786E-01 1.00223E-38
9.97261E-01 8.38030E-39
9.97698E-01 6.92795E-39
9.98097E-01 5.63028E-39
9.98459E-01 4.50438E-39
9.98782E-01 3.50608E-39
9.99067E-01 2.65930E-39
9.99315E-01 1.93512E-39
9.99524E-01 1.33588E-39
9.99695E-01 8.51752E-40
9.99829E-01 4.80207E-40
9.99924E-01 2.16293E-40
9.99981E-01 6.05435E-41
1.00000E+00 5.37415E-42
