 #
 # Subroutine ELSEPA. Elastic scattering of electrons and positrons
 #                    by neutral atoms and positive ions
 #
 # Projectile: positron
 # Kinetic energy = 8.00000E+07 eV = 2.93995E+06 a.u.
 #
 # WARNING: High-energy factorization with free-atom DF screening.
 #          Absorption, polarization and exchange corrections are
 #          switched off.
 #          Phase shifts are calculated for the bare nucleus.
 #          Scattering amplitudes are not evaluated.
 #
 # Element: Tm,  Z =  69,  atomic weight = 1.68934E+02 g/mol
 #
 # Nuclear model: Fermi distribution
 #                Average radius = 5.91502E-13 cm
 #                Skin thickness = 5.46000E-14 cm
 #
 # Number of electrons = 69
 #
 # Total elastic cross section = 7.02177E-18 cm**2 = 2.50752E-01 a0**2
 # 1st transport cross section = 1.34363E-24 cm**2 = 4.79819E-08 a0**2
 # 2nd transport cross section = 3.97788E-24 cm**2 = 1.42053E-07 a0**2
 #
 #
 # Differential cross section:                       MU=(1-COS(THETA))/2
 #
 #  THETA        MU          DCS          DCS        Sherman      error
 #  (deg)                 (cm**2/sr)   (a0**2/sr)    function
 #----------------------------------------------------------------------
0.00000E+00 4.50081E-10
7.61557E-13 4.48797E-10
1.18994E-12 4.48079E-10
1.71346E-12 4.47204E-10
2.33225E-12 4.46175E-10
3.04617E-12 4.44992E-10
3.85530E-12 4.43658E-10
4.75964E-12 4.42176E-10
5.75917E-12 4.40547E-10
6.85391E-12 4.38774E-10
8.04379E-12 4.36862E-10
9.32893E-12 4.34812E-10
1.07092E-11 4.32628E-10
1.21847E-11 4.30315E-10
1.37554E-11 4.27876E-10
1.54213E-11 4.25314E-10
1.71823E-11 4.22634E-10
1.90386E-11 4.19841E-10
2.09900E-11 4.16938E-10
2.30367E-11 4.13931E-10
2.51785E-11 4.10823E-10
2.74156E-11 4.07620E-10
2.97478E-11 4.04326E-10
3.21752E-11 4.00946E-10
3.46979E-11 3.97485E-10
3.73157E-11 3.93964E-10
4.00286E-11 3.90372E-10
4.28368E-11 3.86707E-10
4.57402E-11 3.82972E-10
4.87388E-11 3.79172E-10
5.18325E-11 3.75312E-10
5.50215E-11 3.71396E-10
5.83057E-11 3.67485E-10
6.16850E-11 3.63531E-10
6.51595E-11 3.59534E-10
6.87293E-11 3.55498E-10
7.23943E-11 3.51427E-10
7.61544E-11 3.47324E-10
1.18991E-10 3.06264E-10
1.71347E-10 2.66815E-10
2.33223E-10 2.31139E-10
3.04617E-10 2.00086E-10
3.85531E-10 1.73736E-10
4.75965E-10 1.51712E-10
5.75917E-10 1.33368E-10
6.85389E-10 1.18112E-10
8.04380E-10 1.05322E-10
9.32891E-10 9.45257E-11
1.07092E-09 8.53171E-11
1.21847E-09 7.73649E-11
1.37554E-09 7.04504E-11
1.54213E-09 6.43534E-11
1.71823E-09 5.89595E-11
1.90386E-09 5.41306E-11
2.09900E-09 4.97998E-11
2.30367E-09 4.58853E-11
2.51785E-09 4.23398E-11
2.74156E-09 3.91174E-11
2.97478E-09 3.61789E-11
3.21752E-09 3.35002E-11
3.46978E-09 3.10463E-11
3.73156E-09 2.86360E-11
4.00286E-09 2.64458E-11
4.28368E-09 2.45150E-11
4.57402E-09 2.28062E-11
4.87388E-09 2.12885E-11
5.18326E-09 1.99357E-11
5.50215E-09 1.87258E-11
5.83057E-09 1.74174E-11
6.16850E-09 1.62297E-11
6.51596E-09 1.51647E-11
6.87293E-09 1.42070E-11
7.23942E-09 1.33433E-11
7.61544E-09 1.25622E-11
1.18991E-08 6.97347E-12
1.71347E-08 4.16874E-12
2.33223E-08 2.62122E-12
3.04617E-08 1.71572E-12
3.85531E-08 1.16220E-12
4.75965E-08 8.11540E-13
5.75917E-08 5.83560E-13
6.85389E-08 4.30614E-13
8.04380E-08 3.25496E-13
9.32891E-08 2.51109E-13
1.07092E-07 1.97131E-13
1.21847E-07 1.57178E-13
1.37554E-07 1.27076E-13
1.54213E-07 1.03884E-13
1.71823E-07 8.57738E-14
1.90386E-07 7.14144E-14
2.09900E-07 5.99321E-14
2.30367E-07 5.06576E-14
2.51785E-07 4.31060E-14
2.74156E-07 3.69044E-14
2.97478E-07 3.17701E-14
3.21752E-07 2.74925E-14
3.46978E-07 2.39047E-14
3.73156E-07 2.08686E-14
4.00286E-07 1.83079E-14
4.28368E-07 1.61418E-14
4.57402E-07 1.42671E-14
4.87388E-07 1.26653E-14
5.18325E-07 1.12842E-14
5.50215E-07 1.00801E-14
5.83057E-07 9.03714E-15
6.16850E-07 8.12417E-15
6.51596E-07 7.32294E-15
6.87293E-07 6.62093E-15
7.23942E-07 5.99830E-15
7.61543E-07 5.44818E-15
1.18991E-06 2.32461E-15
1.71347E-06 1.15321E-15
2.33223E-06 6.35116E-16
3.04617E-06 3.77808E-16
3.85531E-06 2.38452E-16
4.75964E-06 1.57740E-16
5.75916E-06 1.08435E-16
6.85388E-06 7.69613E-17
8.04378E-06 5.61159E-17
9.32888E-06 4.18726E-17
1.07092E-05 3.18747E-17
1.21846E-05 2.46905E-17
1.37553E-05 1.94212E-17
1.54212E-05 1.54857E-17
1.71822E-05 1.24984E-17
1.90385E-05 1.01930E-17
2.09899E-05 8.40407E-18
2.30365E-05 6.98981E-18
2.51783E-05 5.85936E-18
2.74153E-05 4.94722E-18
2.97475E-05 4.20519E-18
3.21749E-05 3.59710E-18
3.46974E-05 3.09526E-18
3.73152E-05 2.67826E-18
4.00281E-05 2.32938E-18
4.28362E-05 2.03561E-18
4.57395E-05 1.78666E-18
4.87380E-05 1.57453E-18
5.18317E-05 1.39283E-18
5.50205E-05 1.23651E-18
5.83045E-05 1.10147E-18
6.16838E-05 9.84360E-19
6.51582E-05 8.82422E-19
6.87277E-05 7.93367E-19
7.23925E-05 7.15277E-19
7.61524E-05 6.46666E-19
9.21439E-05 4.41992E-19
1.09658E-04 3.12184E-19
1.28695E-04 2.26705E-19
1.49255E-04 1.68544E-19
1.71338E-04 1.27887E-19
1.94942E-04 9.87691E-20
2.20070E-04 7.74795E-20
2.46720E-04 6.16244E-20
2.74892E-04 4.96208E-20
3.04586E-04 4.04000E-20
3.35803E-04 3.32225E-20
3.68542E-04 2.75688E-20
4.02802E-04 2.30667E-20
4.38585E-04 1.94462E-20
4.75889E-04 1.65080E-20
5.14715E-04 1.41037E-20
5.55063E-04 1.21209E-20
5.96931E-04 1.04742E-20
6.40321E-04 9.09743E-21
6.85233E-04 7.93927E-21
7.31665E-04 6.95939E-21
7.79618E-04 6.12586E-21
8.29092E-04 5.41326E-21
8.80086E-04 4.80113E-21
9.32601E-04 4.27297E-21
9.86636E-04 3.81534E-21
1.04219E-03 3.41724E-21
1.09927E-03 3.06963E-21
1.15786E-03 2.76501E-21
1.21797E-03 2.49718E-21
1.27961E-03 2.26093E-21
1.34276E-03 2.05190E-21
1.40743E-03 1.86641E-21
1.47362E-03 1.70137E-21
1.54133E-03 1.55412E-21
1.61056E-03 1.42242E-21
1.68131E-03 1.30434E-21
1.75357E-03 1.19823E-21
1.82735E-03 1.10266E-21
1.90265E-03 1.01639E-21
1.97947E-03 9.38379E-22
2.05780E-03 8.67682E-22
2.13765E-03 8.03496E-22
2.21902E-03 7.45116E-22
2.30190E-03 6.91924E-22
2.38630E-03 6.43377E-22
2.47222E-03 5.98998E-22
2.55965E-03 5.58364E-22
2.64859E-03 5.21105E-22
2.73905E-03 4.86889E-22
2.83103E-03 4.55423E-22
2.92452E-03 4.26448E-22
3.01952E-03 3.99731E-22
3.11604E-03 3.75064E-22
3.21407E-03 3.52261E-22
3.31362E-03 3.31158E-22
3.41468E-03 3.11603E-22
3.51725E-03 2.93463E-22
3.62133E-03 2.76618E-22
3.72692E-03 2.60958E-22
3.83403E-03 2.46386E-22
3.94265E-03 2.32809E-22
4.05278E-03 2.20147E-22
4.16442E-03 2.08329E-22
4.27757E-03 1.97289E-22
4.39223E-03 1.86966E-22
4.50840E-03 1.77305E-22
4.62608E-03 1.68256E-22
4.74527E-03 1.59773E-22
4.86597E-03 1.51814E-22
4.98817E-03 1.44341E-22
5.11188E-03 1.37319E-22
5.23711E-03 1.30716E-22
5.36383E-03 1.24502E-22
5.49207E-03 1.18650E-22
5.62181E-03 1.13135E-22
5.75306E-03 1.07934E-22
5.88581E-03 1.03027E-22
6.02007E-03 9.83926E-23
6.15583E-03 9.40138E-23
6.29310E-03 8.98738E-23
6.43187E-03 8.59572E-23
6.57214E-03 8.22498E-23
6.71392E-03 7.87382E-23
6.85720E-03 7.54103E-23
7.00198E-03 7.22548E-23
7.14827E-03 6.92609E-23
7.29605E-03 6.64190E-23
7.44534E-03 6.37199E-23
7.59612E-03 6.11551E-23
7.97965E-03 5.52802E-23
8.37255E-03 5.00872E-23
8.77480E-03 4.54835E-23
9.18641E-03 4.13910E-23
9.60736E-03 3.77434E-23
1.00376E-02 3.44841E-23
1.04773E-02 3.15649E-23
1.09262E-02 2.89442E-23
1.13844E-02 2.65862E-23
1.18520E-02 2.44603E-23
1.23288E-02 2.25396E-23
1.28150E-02 2.08010E-23
1.33104E-02 1.92243E-23
1.38150E-02 1.77918E-23
1.43290E-02 1.64880E-23
1.48521E-02 1.52995E-23
1.53845E-02 1.42143E-23
1.59262E-02 1.32219E-23
1.64770E-02 1.23130E-23
1.70371E-02 1.14793E-23
1.76063E-02 1.07136E-23
1.81848E-02 1.00094E-23
1.87724E-02 9.36092E-24
1.93692E-02 8.76296E-24
1.99751E-02 8.21092E-24
2.05901E-02 7.70069E-24
2.12143E-02 7.22854E-24
2.18476E-02 6.79116E-24
2.24900E-02 6.38555E-24
2.31415E-02 6.00901E-24
2.38021E-02 5.65909E-24
2.44717E-02 5.33360E-24
2.51504E-02 5.03053E-24
2.58382E-02 4.74809E-24
2.65349E-02 4.48463E-24
2.72407E-02 4.23866E-24
2.79555E-02 4.00882E-24
2.86793E-02 3.79387E-24
2.94120E-02 3.59268E-24
3.01537E-02 3.40424E-24
3.09043E-02 3.22758E-24
3.16639E-02 3.06186E-24
3.24324E-02 2.90627E-24
3.32098E-02 2.76011E-24
3.39961E-02 2.62269E-24
3.47912E-02 2.49341E-24
3.55952E-02 2.37171E-24
3.64081E-02 2.25707E-24
3.72297E-02 2.14901E-24
3.80602E-02 2.04709E-24
3.88995E-02 1.95090E-24
3.97476E-02 1.86007E-24
4.06044E-02 1.77424E-24
4.14700E-02 1.69311E-24
4.23443E-02 1.61637E-24
4.32273E-02 1.54374E-24
4.41190E-02 1.47496E-24
4.50194E-02 1.40980E-24
4.59284E-02 1.34804E-24
4.68461E-02 1.28947E-24
4.87074E-02 1.18115E-24
5.06030E-02 1.08346E-24
5.25328E-02 9.95198E-25
5.44967E-02 9.15312E-25
5.64946E-02 8.42891E-25
5.85262E-02 7.77132E-25
6.05914E-02 7.17330E-25
6.26901E-02 6.62865E-25
6.48222E-02 6.13191E-25
6.69873E-02 5.67823E-25
6.91854E-02 5.26335E-25
7.14163E-02 4.88345E-25
7.36799E-02 4.53516E-25
7.59760E-02 4.21546E-25
7.83043E-02 3.92168E-25
8.06647E-02 3.65141E-25
8.30571E-02 3.40250E-25
8.54812E-02 3.17303E-25
8.79369E-02 2.96126E-25
9.04240E-02 2.76564E-25
9.29422E-02 2.58477E-25
9.54915E-02 2.41737E-25
9.80716E-02 2.26232E-25
1.00682E-01 2.11857E-25
1.03323E-01 1.98520E-25
1.05995E-01 1.86134E-25
1.08696E-01 1.74624E-25
1.11427E-01 1.63919E-25
1.14188E-01 1.53955E-25
1.16978E-01 1.44675E-25
1.19797E-01 1.36025E-25
1.22645E-01 1.27957E-25
1.25522E-01 1.20427E-25
1.28428E-01 1.13395E-25
1.31361E-01 1.06823E-25
1.34323E-01 1.00678E-25
1.37313E-01 9.49282E-26
1.40330E-01 8.95456E-26
1.43375E-01 8.45037E-26
1.46447E-01 7.97783E-26
1.49545E-01 7.53472E-26
1.52671E-01 7.11899E-26
1.55823E-01 6.72875E-26
1.59001E-01 6.36225E-26
1.62205E-01 6.01788E-26
1.65435E-01 5.69416E-26
1.68690E-01 5.38971E-26
1.71970E-01 5.10324E-26
1.75276E-01 4.83359E-26
1.78606E-01 4.57964E-26
1.81961E-01 4.34040E-26
1.85340E-01 4.11491E-26
1.88743E-01 3.90230E-26
1.92169E-01 3.70176E-26
1.95619E-01 3.51252E-26
1.99092E-01 3.33389E-26
2.02589E-01 3.16520E-26
2.06107E-01 3.00586E-26
2.09649E-01 2.85528E-26
2.13212E-01 2.71294E-26
2.16797E-01 2.57834E-26
2.20404E-01 2.45103E-26
2.24032E-01 2.33055E-26
2.27680E-01 2.21653E-26
2.31350E-01 2.10856E-26
2.35040E-01 2.00631E-26
2.38751E-01 1.90944E-26
2.42481E-01 1.81765E-26
2.46231E-01 1.73063E-26
2.50000E-01 1.64813E-26
2.53788E-01 1.56988E-26
2.57595E-01 1.49564E-26
2.61421E-01 1.42520E-26
2.65264E-01 1.35834E-26
2.69126E-01 1.29486E-26
2.73005E-01 1.23458E-26
2.76901E-01 1.17732E-26
2.80814E-01 1.12291E-26
2.84744E-01 1.07122E-26
2.88691E-01 1.02208E-26
2.92653E-01 9.75356E-27
2.96632E-01 9.30929E-27
3.00625E-01 8.88671E-27
3.04634E-01 8.48470E-27
3.08658E-01 8.10216E-27
3.12697E-01 7.73809E-27
3.16749E-01 7.39151E-27
3.20816E-01 7.06153E-27
3.24896E-01 6.74730E-27
3.28990E-01 6.44799E-27
3.33097E-01 6.16285E-27
3.37216E-01 5.89116E-27
3.41348E-01 5.63224E-27
3.45492E-01 5.38545E-27
3.49647E-01 5.15016E-27
3.53814E-01 4.92582E-27
3.57992E-01 4.71187E-27
3.62181E-01 4.50781E-27
3.66381E-01 4.31313E-27
3.70590E-01 4.12738E-27
3.74810E-01 3.95013E-27
3.79039E-01 3.78095E-27
3.83277E-01 3.61945E-27
3.87524E-01 3.46527E-27
3.91780E-01 3.31804E-27
3.96044E-01 3.17744E-27
4.00316E-01 3.04314E-27
4.04596E-01 2.91485E-27
4.08882E-01 2.79228E-27
4.13176E-01 2.67516E-27
4.17476E-01 2.56323E-27
4.21783E-01 2.45625E-27
4.26095E-01 2.35397E-27
4.30413E-01 2.25620E-27
4.34737E-01 2.16270E-27
4.39065E-01 2.07329E-27
4.43398E-01 1.98778E-27
4.47736E-01 1.90598E-27
4.52077E-01 1.82773E-27
4.56422E-01 1.75286E-27
4.60770E-01 1.68122E-27
4.65122E-01 1.61265E-27
4.69476E-01 1.54703E-27
4.73832E-01 1.48421E-27
4.78190E-01 1.42407E-27
4.82550E-01 1.36650E-27
4.86912E-01 1.31136E-27
4.91274E-01 1.25856E-27
4.95637E-01 1.20799E-27
5.00000E-01 1.15955E-27
5.04363E-01 1.11314E-27
5.08726E-01 1.06869E-27
5.13088E-01 1.02609E-27
5.17450E-01 9.85266E-28
5.21810E-01 9.46144E-28
5.26168E-01 9.08647E-28
5.30524E-01 8.72704E-28
5.34878E-01 8.38247E-28
5.39230E-01 8.05212E-28
5.43578E-01 7.73536E-28
5.47923E-01 7.43161E-28
5.52264E-01 7.14031E-28
5.56602E-01 6.86092E-28
5.60935E-01 6.59292E-28
5.65263E-01 6.33584E-28
5.69587E-01 6.08920E-28
5.73905E-01 5.85255E-28
5.78217E-01 5.62548E-28
5.82524E-01 5.40758E-28
5.86824E-01 5.19845E-28
5.91118E-01 4.99773E-28
5.95404E-01 4.80505E-28
5.99684E-01 4.62010E-28
6.03956E-01 4.44253E-28
6.08220E-01 4.27204E-28
6.12476E-01 4.10834E-28
6.16723E-01 3.95113E-28
6.20961E-01 3.80016E-28
6.25190E-01 3.65516E-28
6.29410E-01 3.51588E-28
6.33619E-01 3.38209E-28
6.37819E-01 3.25356E-28
6.42008E-01 3.13008E-28
6.46186E-01 3.01143E-28
6.50353E-01 2.89742E-28
6.54508E-01 2.78786E-28
6.58652E-01 2.68257E-28
6.62784E-01 2.58138E-28
6.66903E-01 2.48411E-28
6.71010E-01 2.39061E-28
6.75104E-01 2.30072E-28
6.79184E-01 2.21431E-28
6.83251E-01 2.13122E-28
6.87303E-01 2.05133E-28
6.91342E-01 1.97451E-28
6.95366E-01 1.90063E-28
6.99375E-01 1.82957E-28
7.03368E-01 1.76124E-28
7.07347E-01 1.69550E-28
7.11309E-01 1.63227E-28
7.15256E-01 1.57144E-28
7.19186E-01 1.51292E-28
7.23099E-01 1.45661E-28
7.26995E-01 1.40243E-28
7.30874E-01 1.35030E-28
7.34736E-01 1.30012E-28
7.38579E-01 1.25184E-28
7.42405E-01 1.20537E-28
7.46212E-01 1.16064E-28
7.50000E-01 1.11759E-28
7.53769E-01 1.07614E-28
7.57519E-01 1.03625E-28
7.61249E-01 9.97832E-29
7.64960E-01 9.60848E-29
7.68650E-01 9.25237E-29
7.72320E-01 8.90947E-29
7.75968E-01 8.57926E-29
7.79596E-01 8.26125E-29
7.83203E-01 7.95498E-29
7.86788E-01 7.65999E-29
7.90351E-01 7.37586E-29
7.93893E-01 7.10217E-29
7.97411E-01 6.83852E-29
8.00908E-01 6.58453E-29
8.04381E-01 6.33983E-29
8.07831E-01 6.10407E-29
8.11257E-01 5.87691E-29
8.14660E-01 5.65803E-29
8.18039E-01 5.44711E-29
8.21394E-01 5.24385E-29
8.24724E-01 5.04796E-29
8.28030E-01 4.85918E-29
8.31310E-01 4.67722E-29
8.34565E-01 4.50185E-29
8.37795E-01 4.33280E-29
8.40999E-01 4.16985E-29
8.44177E-01 4.01276E-29
8.47329E-01 3.86133E-29
8.50455E-01 3.71533E-29
8.53553E-01 3.57457E-29
8.56625E-01 3.43886E-29
8.59670E-01 3.30801E-29
8.62687E-01 3.18184E-29
8.65677E-01 3.06018E-29
8.68639E-01 2.94286E-29
8.71572E-01 2.82972E-29
8.74478E-01 2.72062E-29
8.77355E-01 2.61540E-29
8.80203E-01 2.51392E-29
8.83022E-01 2.41605E-29
8.85812E-01 2.32166E-29
8.88573E-01 2.23062E-29
8.91304E-01 2.14280E-29
8.94005E-01 2.05810E-29
8.96677E-01 1.97640E-29
8.99318E-01 1.89760E-29
9.01928E-01 1.82158E-29
9.04508E-01 1.74825E-29
9.07058E-01 1.67752E-29
9.09576E-01 1.60930E-29
9.12063E-01 1.54348E-29
9.14519E-01 1.47999E-29
9.16943E-01 1.41875E-29
9.19335E-01 1.35968E-29
9.21696E-01 1.30270E-29
9.24024E-01 1.24774E-29
9.26320E-01 1.19472E-29
9.28584E-01 1.14358E-29
9.30815E-01 1.09426E-29
9.33013E-01 1.04669E-29
9.35178E-01 1.00081E-29
9.37310E-01 9.56571E-30
9.39409E-01 9.13905E-30
9.41474E-01 8.72763E-30
9.43505E-01 8.33094E-30
9.45503E-01 7.94847E-30
9.47467E-01 7.57975E-30
9.49397E-01 7.22433E-30
9.51293E-01 6.88175E-30
9.53154E-01 6.55159E-30
9.54981E-01 6.23344E-30
9.56773E-01 5.92691E-30
9.58530E-01 5.63162E-30
9.60252E-01 5.34721E-30
9.61940E-01 5.07332E-30
9.63592E-01 4.80963E-30
9.65209E-01 4.55580E-30
9.66790E-01 4.31153E-30
9.68336E-01 4.07652E-30
9.69846E-01 3.85048E-30
9.71321E-01 3.63314E-30
9.72759E-01 3.42424E-30
9.74162E-01 3.22352E-30
9.75528E-01 3.03074E-30
9.76858E-01 2.84566E-30
9.78152E-01 2.66807E-30
9.79410E-01 2.49775E-30
9.80631E-01 2.33449E-30
9.81815E-01 2.17811E-30
9.82963E-01 2.02840E-30
9.84074E-01 1.88521E-30
9.85148E-01 1.74834E-30
9.86185E-01 1.61764E-30
9.87185E-01 1.49296E-30
9.88148E-01 1.37414E-30
9.89074E-01 1.26105E-30
9.89962E-01 1.15355E-30
9.90814E-01 1.05152E-30
9.91627E-01 9.54821E-31
9.92404E-01 8.63355E-31
9.93143E-01 7.77009E-31
9.93844E-01 6.95682E-31
9.94508E-01 6.19278E-31
9.95134E-01 5.47707E-31
9.95722E-01 4.80884E-31
9.96273E-01 4.18732E-31
9.96786E-01 3.61176E-31
9.97261E-01 3.08150E-31
9.97698E-01 2.59592E-31
9.98097E-01 2.15444E-31
9.98459E-01 1.75655E-31
9.98782E-01 1.40178E-31
9.99067E-01 1.08972E-31
9.99315E-01 8.19995E-32
9.99524E-01 5.92301E-32
9.99695E-01 4.06368E-32
9.99829E-01 2.61978E-32
9.99924E-01 1.58963E-32
9.99981E-01 9.72015E-33
1.00000E+00 7.66247E-33
