 #
 # Subroutine ELSEPA. Elastic scattering of electrons and positrons
 #                    by neutral atoms and positive ions
 #
 # Projectile: positron
 # Kinetic energy = 4.50000E+07 eV = 1.65372E+06 a.u.
 #
 # WARNING: High-energy factorization with free-atom DF screening.
 #          Absorption, polarization and exchange corrections are
 #          switched off.
 #          Phase shifts are calculated for the bare nucleus.
 #          Scattering amplitudes are not evaluated.
 #
 # Element: Tm,  Z =  69,  atomic weight = 1.68934E+02 g/mol
 #
 # Nuclear model: Fermi distribution
 #                Average radius = 5.91502E-13 cm
 #                Skin thickness = 5.46000E-14 cm
 #
 # Number of electrons = 69
 #
 # Total elastic cross section = 7.02231E-18 cm**2 = 2.50771E-01 a0**2
 # 1st transport cross section = 3.99720E-24 cm**2 = 1.42743E-07 a0**2
 # 2nd transport cross section = 1.17200E-23 cm**2 = 4.18530E-07 a0**2
 #
 #
 # Differential cross section:                       MU=(1-COS(THETA))/2
 #
 #  THETA        MU          DCS          DCS        Sherman      error
 #  (deg)                 (cm**2/sr)   (a0**2/sr)    function
 #----------------------------------------------------------------------
0.00000E+00 1.43818E-10
7.61557E-13 1.43686E-10
1.18994E-12 1.43612E-10
1.71346E-12 1.43522E-10
2.33225E-12 1.43416E-10
3.04617E-12 1.43294E-10
3.85530E-12 1.43156E-10
4.75964E-12 1.43001E-10
5.75917E-12 1.42831E-10
6.85391E-12 1.42645E-10
8.04379E-12 1.42444E-10
9.32893E-12 1.42226E-10
1.07092E-11 1.41994E-10
1.21847E-11 1.41746E-10
1.37554E-11 1.41482E-10
1.54213E-11 1.41204E-10
1.71823E-11 1.40911E-10
1.90386E-11 1.40603E-10
2.09900E-11 1.40281E-10
2.30367E-11 1.39944E-10
2.51785E-11 1.39593E-10
2.74156E-11 1.39228E-10
2.97478E-11 1.38849E-10
3.21752E-11 1.38457E-10
3.46979E-11 1.38051E-10
3.73157E-11 1.37632E-10
4.00286E-11 1.37201E-10
4.28368E-11 1.36756E-10
4.57402E-11 1.36299E-10
4.87388E-11 1.35830E-10
5.18325E-11 1.35348E-10
5.50215E-11 1.34855E-10
5.83057E-11 1.34351E-10
6.16850E-11 1.33835E-10
6.51595E-11 1.33308E-10
6.87293E-11 1.32770E-10
7.23943E-11 1.32222E-10
7.61544E-11 1.31664E-10
1.18991E-10 1.25587E-10
1.71347E-10 1.18781E-10
2.33223E-10 1.11550E-10
3.04617E-10 1.04129E-10
3.85531E-10 9.67314E-11
4.75965E-10 8.95293E-11
5.75917E-10 8.26516E-11
6.85389E-10 7.61956E-11
8.04380E-10 7.02251E-11
9.32891E-10 6.47354E-11
1.07092E-09 5.97255E-11
1.21847E-09 5.51788E-11
1.37554E-09 5.10687E-11
1.54213E-09 4.73685E-11
1.71823E-09 4.40397E-11
1.90386E-09 4.10364E-11
2.09900E-09 3.83248E-11
2.30367E-09 3.58727E-11
2.51785E-09 3.36509E-11
2.74156E-09 3.16324E-11
2.97478E-09 2.97911E-11
3.21752E-09 2.81060E-11
3.46978E-09 2.65591E-11
3.73156E-09 2.51350E-11
4.00286E-09 2.38198E-11
4.28368E-09 2.25984E-11
4.57402E-09 2.14618E-11
4.87388E-09 2.04025E-11
5.18326E-09 1.94131E-11
5.50215E-09 1.84869E-11
5.83057E-09 1.76182E-11
6.16850E-09 1.67978E-11
6.51596E-09 1.60247E-11
6.87293E-09 1.52960E-11
7.23942E-09 1.46081E-11
7.61544E-09 1.39581E-11
1.18991E-08 8.95735E-12
1.71347E-08 6.01451E-12
2.33223E-08 4.11874E-12
3.04617E-08 2.91685E-12
3.85531E-08 2.12356E-12
4.75965E-08 1.58167E-12
5.75917E-08 1.20039E-12
6.85389E-08 9.24231E-13
8.04380E-08 7.19690E-13
9.32891E-08 5.67657E-13
1.07092E-07 4.52916E-13
1.21847E-07 3.65204E-13
1.37554E-07 2.97408E-13
1.54213E-07 2.44387E-13
1.71823E-07 2.02592E-13
1.90386E-07 1.69446E-13
2.09900E-07 1.42903E-13
2.30367E-07 1.21451E-13
2.51785E-07 1.03967E-13
2.74156E-07 8.96098E-14
2.97478E-07 7.76385E-14
3.21752E-07 6.76480E-14
3.46978E-07 5.92587E-14
3.73156E-07 5.21662E-14
4.00286E-07 4.61303E-14
4.28368E-07 4.09524E-14
4.57402E-07 3.64873E-14
4.87388E-07 3.26187E-14
5.18325E-07 2.92508E-14
5.50215E-07 2.63061E-14
5.83057E-07 2.37216E-14
6.16850E-07 2.14417E-14
6.51596E-07 1.94283E-14
6.87293E-07 1.76457E-14
7.23942E-07 1.60629E-14
7.61543E-07 1.46535E-14
1.18991E-06 6.43714E-15
1.71347E-06 3.24995E-15
2.33223E-06 1.81323E-15
3.04617E-06 1.09029E-15
3.85531E-06 6.94626E-16
4.75964E-06 4.63342E-16
5.75916E-06 3.20811E-16
6.85388E-06 2.29090E-16
8.04378E-06 1.67900E-16
9.32888E-06 1.25815E-16
1.07092E-05 9.61057E-17
1.21846E-05 7.46564E-17
1.37553E-05 5.88613E-17
1.54212E-05 4.70247E-17
1.71822E-05 3.80155E-17
1.90385E-05 3.10466E-17
2.09899E-05 2.56287E-17
2.30365E-05 2.13387E-17
2.51783E-05 1.79048E-17
2.74153E-05 1.51308E-17
2.97475E-05 1.28718E-17
3.21749E-05 1.10189E-17
3.46974E-05 9.48850E-18
3.73152E-05 8.21580E-18
4.00281E-05 7.15032E-18
4.28362E-05 6.25245E-18
4.57395E-05 5.49116E-18
4.87380E-05 4.84201E-18
5.18317E-05 4.28570E-18
5.50205E-05 3.80679E-18
5.83045E-05 3.39284E-18
6.16838E-05 3.03367E-18
6.51582E-05 2.72087E-18
6.87277E-05 2.44744E-18
7.23925E-05 2.20757E-18
7.61524E-05 1.99646E-18
9.21439E-05 1.36676E-18
1.09658E-04 9.66681E-19
1.28695E-04 7.02820E-19
1.49255E-04 5.23035E-19
1.71338E-04 3.97204E-19
1.94942E-04 3.06991E-19
2.20070E-04 2.40969E-19
2.46720E-04 1.91760E-19
2.74892E-04 1.54477E-19
3.04586E-04 1.25820E-19
3.35803E-04 1.03502E-19
3.68542E-04 8.59125E-20
4.02802E-04 7.19005E-20
4.38585E-04 6.06278E-20
4.75889E-04 5.14769E-20
5.14715E-04 4.39863E-20
5.55063E-04 3.78076E-20
5.96931E-04 3.26749E-20
6.40321E-04 2.83828E-20
6.85233E-04 2.47716E-20
7.31665E-04 2.17158E-20
7.79618E-04 1.91161E-20
8.29092E-04 1.68933E-20
8.80086E-04 1.49837E-20
9.32601E-04 1.33359E-20
9.86636E-04 1.19080E-20
1.04219E-03 1.06658E-20
1.09927E-03 9.58108E-21
1.15786E-03 8.63047E-21
1.21797E-03 7.79460E-21
1.27961E-03 7.05729E-21
1.34276E-03 6.40490E-21
1.40743E-03 5.82599E-21
1.47362E-03 5.31086E-21
1.54133E-03 4.85128E-21
1.61056E-03 4.44021E-21
1.68131E-03 4.07164E-21
1.75357E-03 3.74043E-21
1.82735E-03 3.44212E-21
1.90265E-03 3.17288E-21
1.97947E-03 2.92937E-21
2.05780E-03 2.70871E-21
2.13765E-03 2.50837E-21
2.21902E-03 2.32616E-21
2.30190E-03 2.16014E-21
2.38630E-03 2.00861E-21
2.47222E-03 1.87010E-21
2.55965E-03 1.74328E-21
2.64859E-03 1.62699E-21
2.73905E-03 1.52021E-21
2.83103E-03 1.42201E-21
2.92452E-03 1.33158E-21
3.01952E-03 1.24820E-21
3.11604E-03 1.17121E-21
3.21407E-03 1.10005E-21
3.31362E-03 1.03419E-21
3.41468E-03 9.73164E-22
3.51725E-03 9.16554E-22
3.62133E-03 8.63984E-22
3.72692E-03 8.15112E-22
3.83403E-03 7.69632E-22
3.94265E-03 7.27266E-22
4.05278E-03 6.87761E-22
4.16442E-03 6.50890E-22
4.27757E-03 6.16445E-22
4.39223E-03 5.84238E-22
4.50840E-03 5.54096E-22
4.62608E-03 5.25864E-22
4.74527E-03 4.99398E-22
4.86597E-03 4.74567E-22
4.98817E-03 4.51252E-22
5.11188E-03 4.29344E-22
5.23711E-03 4.08742E-22
5.36383E-03 3.89355E-22
5.49207E-03 3.71097E-22
5.62181E-03 3.53891E-22
5.75306E-03 3.37664E-22
5.88581E-03 3.22352E-22
6.02007E-03 3.07893E-22
6.15583E-03 2.94230E-22
6.29310E-03 2.81313E-22
6.43187E-03 2.69092E-22
6.57214E-03 2.57523E-22
6.71392E-03 2.46566E-22
6.85720E-03 2.36181E-22
7.00198E-03 2.26334E-22
7.14827E-03 2.16992E-22
7.29605E-03 2.08123E-22
7.44534E-03 1.99700E-22
7.59612E-03 1.91695E-22
7.97965E-03 1.73359E-22
8.37255E-03 1.57150E-22
8.77480E-03 1.42779E-22
9.18641E-03 1.30002E-22
9.60736E-03 1.18613E-22
1.00376E-02 1.08435E-22
1.04773E-02 9.93168E-23
1.09262E-02 9.11302E-23
1.13844E-02 8.37633E-23
1.18520E-02 7.71202E-23
1.23288E-02 7.11168E-23
1.28150E-02 6.56802E-23
1.33104E-02 6.07486E-23
1.38150E-02 5.62669E-23
1.43290E-02 5.21871E-23
1.48521E-02 4.84667E-23
1.53845E-02 4.50688E-23
1.59262E-02 4.19603E-23
1.64770E-02 3.91125E-23
1.70371E-02 3.64996E-23
1.76063E-02 3.40989E-23
1.81848E-02 3.18901E-23
1.87724E-02 2.98552E-23
1.93692E-02 2.79782E-23
1.99751E-02 2.62445E-23
2.05901E-02 2.46415E-23
2.12143E-02 2.31574E-23
2.18476E-02 2.17819E-23
2.24900E-02 2.05058E-23
2.31415E-02 1.93204E-23
2.38021E-02 1.82183E-23
2.44717E-02 1.71926E-23
2.51504E-02 1.62370E-23
2.58382E-02 1.53460E-23
2.65349E-02 1.45143E-23
2.72407E-02 1.37373E-23
2.79555E-02 1.30109E-23
2.86793E-02 1.23311E-23
2.94120E-02 1.16944E-23
3.01537E-02 1.10976E-23
3.09043E-02 1.05377E-23
3.16639E-02 1.00121E-23
3.24324E-02 9.51836E-24
3.32098E-02 9.05411E-24
3.39961E-02 8.61733E-24
3.47912E-02 8.20609E-24
3.55952E-02 7.81865E-24
3.64081E-02 7.45337E-24
3.72297E-02 7.10878E-24
3.80602E-02 6.78348E-24
3.88995E-02 6.47622E-24
3.97476E-02 6.18582E-24
4.06044E-02 5.91118E-24
4.14700E-02 5.65131E-24
4.23443E-02 5.40526E-24
4.32273E-02 5.17217E-24
4.41190E-02 4.95125E-24
4.50194E-02 4.74174E-24
4.59284E-02 4.54295E-24
4.68461E-02 4.35424E-24
4.87074E-02 4.00468E-24
5.06030E-02 3.68874E-24
5.25328E-02 3.40264E-24
5.44967E-02 3.14311E-24
5.64946E-02 2.90727E-24
5.85262E-02 2.69260E-24
6.05914E-02 2.49688E-24
6.26901E-02 2.31817E-24
6.48222E-02 2.15474E-24
6.69873E-02 2.00508E-24
6.91854E-02 1.86782E-24
7.14163E-02 1.74178E-24
7.36799E-02 1.62589E-24
7.59760E-02 1.51919E-24
7.83043E-02 1.42083E-24
8.06647E-02 1.33006E-24
8.30571E-02 1.24619E-24
8.54812E-02 1.16862E-24
8.79369E-02 1.09679E-24
9.04240E-02 1.03021E-24
9.29422E-02 9.68433E-25
9.54915E-02 9.11054E-25
9.80716E-02 8.57711E-25
1.00682E-01 8.08072E-25
1.03323E-01 7.61840E-25
1.05995E-01 7.18742E-25
1.08696E-01 6.78531E-25
1.11427E-01 6.40983E-25
1.14188E-01 6.05893E-25
1.16978E-01 5.73074E-25
1.19797E-01 5.42355E-25
1.22645E-01 5.13581E-25
1.25522E-01 4.86608E-25
1.28428E-01 4.61306E-25
1.31361E-01 4.37555E-25
1.34323E-01 4.15244E-25
1.37313E-01 3.94273E-25
1.40330E-01 3.74547E-25
1.43375E-01 3.55982E-25
1.46447E-01 3.38498E-25
1.49545E-01 3.22023E-25
1.52671E-01 3.06488E-25
1.55823E-01 2.91833E-25
1.59001E-01 2.77998E-25
1.62205E-01 2.64932E-25
1.65435E-01 2.52584E-25
1.68690E-01 2.40910E-25
1.71970E-01 2.29866E-25
1.75276E-01 2.19414E-25
1.78606E-01 2.09516E-25
1.81961E-01 2.00140E-25
1.85340E-01 1.91252E-25
1.88743E-01 1.82824E-25
1.92169E-01 1.74829E-25
1.95619E-01 1.67240E-25
1.99092E-01 1.60034E-25
2.02589E-01 1.53189E-25
2.06107E-01 1.46684E-25
2.09649E-01 1.40499E-25
2.13212E-01 1.34617E-25
2.16797E-01 1.29020E-25
2.20404E-01 1.23692E-25
2.24032E-01 1.18619E-25
2.27680E-01 1.13786E-25
2.31350E-01 1.09181E-25
2.35040E-01 1.04791E-25
2.38751E-01 1.00604E-25
2.42481E-01 9.66105E-26
2.46231E-01 9.27994E-26
2.50000E-01 8.91613E-26
2.53788E-01 8.56872E-26
2.57595E-01 8.23687E-26
2.61421E-01 7.91978E-26
2.65264E-01 7.61670E-26
2.69126E-01 7.32692E-26
2.73005E-01 7.04976E-26
2.76901E-01 6.78462E-26
2.80814E-01 6.53088E-26
2.84744E-01 6.28798E-26
2.88691E-01 6.05541E-26
2.92653E-01 5.83266E-26
2.96632E-01 5.61925E-26
3.00625E-01 5.41474E-26
3.04634E-01 5.21871E-26
3.08658E-01 5.03075E-26
3.12697E-01 4.85048E-26
3.16749E-01 4.67756E-26
3.20816E-01 4.51163E-26
3.24896E-01 4.35238E-26
3.28990E-01 4.19950E-26
3.33097E-01 4.05270E-26
3.37216E-01 3.91171E-26
3.41348E-01 3.77626E-26
3.45492E-01 3.64611E-26
3.49647E-01 3.52102E-26
3.53814E-01 3.40077E-26
3.57992E-01 3.28515E-26
3.62181E-01 3.17395E-26
3.66381E-01 3.06698E-26
3.70590E-01 2.96407E-26
3.74810E-01 2.86503E-26
3.79039E-01 2.76971E-26
3.83277E-01 2.67794E-26
3.87524E-01 2.58958E-26
3.91780E-01 2.50447E-26
3.96044E-01 2.42250E-26
4.00316E-01 2.34352E-26
4.04596E-01 2.26741E-26
4.08882E-01 2.19406E-26
4.13176E-01 2.12335E-26
4.17476E-01 2.05517E-26
4.21783E-01 1.98943E-26
4.26095E-01 1.92602E-26
4.30413E-01 1.86486E-26
4.34737E-01 1.80585E-26
4.39065E-01 1.74890E-26
4.43398E-01 1.69394E-26
4.47736E-01 1.64089E-26
4.52077E-01 1.58967E-26
4.56422E-01 1.54022E-26
4.60770E-01 1.49246E-26
4.65122E-01 1.44632E-26
4.69476E-01 1.40176E-26
4.73832E-01 1.35870E-26
4.78190E-01 1.31710E-26
4.82550E-01 1.27688E-26
4.86912E-01 1.23802E-26
4.91274E-01 1.20044E-26
4.95637E-01 1.16411E-26
5.00000E-01 1.12898E-26
5.04363E-01 1.09500E-26
5.08726E-01 1.06213E-26
5.13088E-01 1.03034E-26
5.17450E-01 9.99578E-27
5.21810E-01 9.69811E-27
5.26168E-01 9.41004E-27
5.30524E-01 9.13122E-27
5.34878E-01 8.86131E-27
5.39230E-01 8.60000E-27
5.43578E-01 8.34698E-27
5.47923E-01 8.10197E-27
5.52264E-01 7.86467E-27
5.56602E-01 7.63483E-27
5.60935E-01 7.41217E-27
5.65263E-01 7.19645E-27
5.69587E-01 6.98744E-27
5.73905E-01 6.78489E-27
5.78217E-01 6.58859E-27
5.82524E-01 6.39832E-27
5.86824E-01 6.21388E-27
5.91118E-01 6.03507E-27
5.95404E-01 5.86170E-27
5.99684E-01 5.69359E-27
6.03956E-01 5.53055E-27
6.08220E-01 5.37243E-27
6.12476E-01 5.21905E-27
6.16723E-01 5.07027E-27
6.20961E-01 4.92592E-27
6.25190E-01 4.78586E-27
6.29410E-01 4.64996E-27
6.33619E-01 4.51807E-27
6.37819E-01 4.39006E-27
6.42008E-01 4.26582E-27
6.46186E-01 4.14521E-27
6.50353E-01 4.02812E-27
6.54508E-01 3.91444E-27
6.58652E-01 3.80406E-27
6.62784E-01 3.69688E-27
6.66903E-01 3.59278E-27
6.71010E-01 3.49168E-27
6.75104E-01 3.39348E-27
6.79184E-01 3.29808E-27
6.83251E-01 3.20541E-27
6.87303E-01 3.11537E-27
6.91342E-01 3.02789E-27
6.95366E-01 2.94288E-27
6.99375E-01 2.86027E-27
7.03368E-01 2.77999E-27
7.07347E-01 2.70195E-27
7.11309E-01 2.62611E-27
7.15256E-01 2.55238E-27
7.19186E-01 2.48070E-27
7.23099E-01 2.41101E-27
7.26995E-01 2.34326E-27
7.30874E-01 2.27737E-27
7.34736E-01 2.21331E-27
7.38579E-01 2.15101E-27
7.42405E-01 2.09041E-27
7.46212E-01 2.03148E-27
7.50000E-01 1.97416E-27
7.53769E-01 1.91840E-27
7.57519E-01 1.86415E-27
7.61249E-01 1.81138E-27
7.64960E-01 1.76004E-27
7.68650E-01 1.71008E-27
7.72320E-01 1.66148E-27
7.75968E-01 1.61418E-27
7.79596E-01 1.56815E-27
7.83203E-01 1.52335E-27
7.86788E-01 1.47976E-27
7.90351E-01 1.43733E-27
7.93893E-01 1.39603E-27
7.97411E-01 1.35583E-27
8.00908E-01 1.31670E-27
8.04381E-01 1.27860E-27
8.07831E-01 1.24152E-27
8.11257E-01 1.20541E-27
8.14660E-01 1.17026E-27
8.18039E-01 1.13603E-27
8.21394E-01 1.10271E-27
8.24724E-01 1.07026E-27
8.28030E-01 1.03867E-27
8.31310E-01 1.00790E-27
8.34565E-01 9.77939E-28
8.37795E-01 9.48761E-28
8.40999E-01 9.20347E-28
8.44177E-01 8.92674E-28
8.47329E-01 8.65723E-28
8.50455E-01 8.39475E-28
8.53553E-01 8.13910E-28
8.56625E-01 7.89011E-28
8.59670E-01 7.64760E-28
8.62687E-01 7.41140E-28
8.65677E-01 7.18133E-28
8.68639E-01 6.95724E-28
8.71572E-01 6.73898E-28
8.74478E-01 6.52638E-28
8.77355E-01 6.31931E-28
8.80203E-01 6.11761E-28
8.83022E-01 5.92116E-28
8.85812E-01 5.72981E-28
8.88573E-01 5.54344E-28
8.91304E-01 5.36192E-28
8.94005E-01 5.18513E-28
8.96677E-01 5.01295E-28
8.99318E-01 4.84525E-28
9.01928E-01 4.68194E-28
9.04508E-01 4.52290E-28
9.07058E-01 4.36802E-28
9.09576E-01 4.21721E-28
9.12063E-01 4.07036E-28
9.14519E-01 3.92738E-28
9.16943E-01 3.78817E-28
9.19335E-01 3.65265E-28
9.21696E-01 3.52072E-28
9.24024E-01 3.39230E-28
9.26320E-01 3.26731E-28
9.28584E-01 3.14566E-28
9.30815E-01 3.02728E-28
9.33013E-01 2.91210E-28
9.35178E-01 2.80003E-28
9.37310E-01 2.69101E-28
9.39409E-01 2.58498E-28
9.41474E-01 2.48185E-28
9.43505E-01 2.38157E-28
9.45503E-01 2.28408E-28
9.47467E-01 2.18931E-28
9.49397E-01 2.09720E-28
9.51293E-01 2.00771E-28
9.53154E-01 1.92076E-28
9.54981E-01 1.83631E-28
9.56773E-01 1.75431E-28
9.58530E-01 1.67470E-28
9.60252E-01 1.59744E-28
9.61940E-01 1.52248E-28
9.63592E-01 1.44978E-28
9.65209E-01 1.37928E-28
9.66790E-01 1.31095E-28
9.68336E-01 1.24475E-28
9.69846E-01 1.18063E-28
9.71321E-01 1.11855E-28
9.72759E-01 1.05849E-28
9.74162E-01 1.00040E-28
9.75528E-01 9.44248E-29
9.76858E-01 8.90000E-29
9.78152E-01 8.37625E-29
9.79410E-01 7.87091E-29
9.80631E-01 7.38369E-29
9.81815E-01 6.91429E-29
9.82963E-01 6.46243E-29
9.84074E-01 6.02785E-29
9.85148E-01 5.61029E-29
9.86185E-01 5.20951E-29
9.87185E-01 4.82527E-29
9.88148E-01 4.45734E-29
9.89074E-01 4.10551E-29
9.89962E-01 3.76957E-29
9.90814E-01 3.44933E-29
9.91627E-01 3.14460E-29
9.92404E-01 2.85520E-29
9.93143E-01 2.58096E-29
9.93844E-01 2.32172E-29
9.94508E-01 2.07734E-29
9.95134E-01 1.84766E-29
9.95722E-01 1.63257E-29
9.96273E-01 1.43192E-29
9.96786E-01 1.24562E-29
9.97261E-01 1.07354E-29
9.97698E-01 9.15590E-30
9.98097E-01 7.71678E-30
9.98459E-01 6.41721E-30
9.98782E-01 5.25645E-30
9.99067E-01 4.23381E-30
9.99315E-01 3.34871E-30
9.99524E-01 2.60064E-30
9.99695E-01 1.98917E-30
9.99829E-01 1.51395E-30
9.99924E-01 1.17470E-30
9.99981E-01 9.71225E-31
1.00000E+00 9.03418E-31
