 #
 # Subroutine ELSEPA. Elastic scattering of electrons and positrons
 #                    by neutral atoms and positive ions
 #
 # Projectile: positron
 # Kinetic energy = 6.00000E+07 eV = 2.20496E+06 a.u.
 #
 # WARNING: High-energy factorization with free-atom DF screening.
 #          Absorption, polarization and exchange corrections are
 #          switched off.
 #          Phase shifts are calculated for the bare nucleus.
 #          Scattering amplitudes are not evaluated.
 #
 # Element: Tm,  Z =  69,  atomic weight = 1.68934E+02 g/mol
 #
 # Nuclear model: Fermi distribution
 #                Average radius = 5.91502E-13 cm
 #                Skin thickness = 5.46000E-14 cm
 #
 # Number of electrons = 69
 #
 # Total elastic cross section = 7.01832E-18 cm**2 = 2.50629E-01 a0**2
 # 1st transport cross section = 2.32818E-24 cm**2 = 8.31408E-08 a0**2
 # 2nd transport cross section = 6.85662E-24 cm**2 = 2.44855E-07 a0**2
 #
 #
 # Differential cross section:                       MU=(1-COS(THETA))/2
 #
 #  THETA        MU          DCS          DCS        Sherman      error
 #  (deg)                 (cm**2/sr)   (a0**2/sr)    function
 #----------------------------------------------------------------------
0.00000E+00 2.54243E-10
7.61557E-13 2.53832E-10
1.18994E-12 2.53602E-10
1.71346E-12 2.53322E-10
2.33225E-12 2.52991E-10
3.04617E-12 2.52611E-10
3.85530E-12 2.52181E-10
4.75964E-12 2.51702E-10
5.75917E-12 2.51175E-10
6.85391E-12 2.50600E-10
8.04379E-12 2.49977E-10
9.32893E-12 2.49307E-10
1.07092E-11 2.48591E-10
1.21847E-11 2.47830E-10
1.37554E-11 2.47023E-10
1.54213E-11 2.46173E-10
1.71823E-11 2.45280E-10
1.90386E-11 2.44344E-10
2.09900E-11 2.43367E-10
2.30367E-11 2.42349E-10
2.51785E-11 2.41292E-10
2.74156E-11 2.40196E-10
2.97478E-11 2.39063E-10
3.21752E-11 2.37893E-10
3.46979E-11 2.36687E-10
3.73157E-11 2.35447E-10
4.00286E-11 2.34174E-10
4.28368E-11 2.32868E-10
4.57402E-11 2.31531E-10
4.87388E-11 2.30165E-10
5.18325E-11 2.28769E-10
5.50215E-11 2.27346E-10
5.83057E-11 2.25895E-10
6.16850E-11 2.24420E-10
6.51595E-11 2.22927E-10
6.87293E-11 2.21412E-10
7.23943E-11 2.19874E-10
7.61544E-11 2.18312E-10
1.18991E-10 2.01777E-10
1.71347E-10 1.84375E-10
2.33223E-10 1.67033E-10
3.04617E-10 1.50448E-10
3.85531E-10 1.35072E-10
4.75965E-10 1.21154E-10
5.75917E-10 1.08781E-10
6.85389E-10 9.78847E-11
8.04380E-10 8.83573E-11
9.32891E-10 8.00558E-11
1.07092E-09 7.28266E-11
1.21847E-09 6.65208E-11
1.37554E-09 6.10017E-11
1.54213E-09 5.61487E-11
1.71823E-09 5.18584E-11
1.90386E-09 4.80416E-11
2.09900E-09 4.46242E-11
2.30367E-09 4.15476E-11
2.51785E-09 3.87628E-11
2.74156E-09 3.62296E-11
2.97478E-09 3.39148E-11
3.21752E-09 3.17909E-11
3.46978E-09 2.98355E-11
3.73156E-09 2.80295E-11
4.00286E-09 2.63572E-11
4.28368E-09 2.48020E-11
4.57402E-09 2.33553E-11
4.87388E-09 2.20084E-11
5.18326E-09 2.07528E-11
5.50215E-09 1.95809E-11
5.83057E-09 1.84861E-11
6.16850E-09 1.74627E-11
6.51596E-09 1.64317E-11
6.87293E-09 1.54636E-11
7.23942E-09 1.45842E-11
7.61544E-09 1.37835E-11
1.18991E-08 8.24609E-12
1.71347E-08 5.19407E-12
2.33223E-08 3.42345E-12
3.04617E-08 2.34077E-12
3.85531E-08 1.64744E-12
4.75965E-08 1.18640E-12
5.75917E-08 8.71048E-13
6.85389E-08 6.51801E-13
8.04380E-08 4.96464E-13
9.32891E-08 3.84509E-13
1.07092E-07 3.02495E-13
1.21847E-07 2.41454E-13
1.37554E-07 1.95311E-13
1.54213E-07 1.59970E-13
1.71823E-07 1.32330E-13
1.90386E-07 1.10526E-13
2.09900E-07 9.31390E-14
2.30367E-07 7.91145E-14
2.51785E-07 6.76730E-14
2.74156E-07 5.82423E-14
2.97478E-07 5.03996E-14
3.21752E-07 4.38292E-14
3.46978E-07 3.82905E-14
3.73156E-07 3.35962E-14
4.00286E-07 2.95977E-14
4.28368E-07 2.61734E-14
4.57402E-07 2.32283E-14
4.87388E-07 2.06839E-14
5.18325E-07 1.84760E-14
5.50215E-07 1.65526E-14
5.83057E-07 1.48711E-14
6.16850E-07 1.33965E-14
6.51596E-07 1.20932E-14
6.87293E-07 1.09463E-14
7.23942E-07 9.93722E-15
7.61543E-07 9.04472E-15
1.18991E-06 3.89995E-15
1.71347E-06 1.94872E-15
2.33223E-06 1.07992E-15
3.04617E-06 6.45932E-16
3.85531E-06 4.09596E-16
4.75964E-06 2.72054E-16
5.75916E-06 1.87636E-16
6.85388E-06 1.33522E-16
8.04378E-06 9.75540E-17
9.32888E-06 7.29065E-17
1.07092E-05 5.55666E-17
1.21846E-05 4.30847E-17
1.37553E-05 3.39166E-17
1.54212E-05 2.70615E-17
1.71822E-05 2.18538E-17
1.90385E-05 1.78320E-17
2.09899E-05 1.47092E-17
2.30365E-05 1.22392E-17
2.51783E-05 1.02640E-17
2.74153E-05 8.66959E-18
2.97475E-05 7.37206E-18
3.21749E-05 6.30831E-18
3.46974E-05 5.43014E-18
3.73152E-05 4.70018E-18
4.00281E-05 4.08929E-18
4.28362E-05 3.57467E-18
4.57395E-05 3.13847E-18
4.87380E-05 2.76664E-18
5.18317E-05 2.44808E-18
5.50205E-05 2.17392E-18
5.83045E-05 1.93700E-18
6.16838E-05 1.73149E-18
6.51582E-05 1.55256E-18
6.87277E-05 1.39619E-18
7.23925E-05 1.25905E-18
7.61524E-05 1.13842E-18
9.21439E-05 7.78670E-19
1.09658E-04 5.50317E-19
1.28695E-04 3.99835E-19
1.49255E-04 2.97381E-19
1.71338E-04 2.25721E-19
1.94942E-04 1.74378E-19
2.20070E-04 1.36823E-19
2.46720E-04 1.08846E-19
2.74892E-04 8.76581E-20
3.04586E-04 7.13789E-20
3.35803E-04 5.87042E-20
3.68542E-04 4.87186E-20
4.02802E-04 4.07659E-20
4.38585E-04 3.43695E-20
4.75889E-04 2.91781E-20
5.14715E-04 2.49294E-20
5.55063E-04 2.14255E-20
5.96931E-04 1.85152E-20
6.40321E-04 1.60818E-20
6.85233E-04 1.40347E-20
7.31665E-04 1.23027E-20
7.79618E-04 1.08293E-20
8.29092E-04 9.56961E-21
8.80086E-04 8.48752E-21
9.32601E-04 7.55384E-21
9.86636E-04 6.74482E-21
1.04219E-03 6.04105E-21
1.09927E-03 5.42652E-21
1.15786E-03 4.88800E-21
1.21797E-03 4.41451E-21
1.27961E-03 3.99685E-21
1.34276E-03 3.62731E-21
1.40743E-03 3.29941E-21
1.47362E-03 3.00764E-21
1.54133E-03 2.74733E-21
1.61056E-03 2.51451E-21
1.68131E-03 2.30577E-21
1.75357E-03 2.11819E-21
1.82735E-03 1.94924E-21
1.90265E-03 1.79675E-21
1.97947E-03 1.65885E-21
2.05780E-03 1.53388E-21
2.13765E-03 1.42042E-21
2.21902E-03 1.31723E-21
2.30190E-03 1.22321E-21
2.38630E-03 1.13739E-21
2.47222E-03 1.05895E-21
2.55965E-03 9.87132E-22
2.64859E-03 9.21277E-22
2.73905E-03 8.60801E-22
2.83103E-03 8.05189E-22
2.92452E-03 7.53976E-22
3.01952E-03 7.06756E-22
3.11604E-03 6.63159E-22
3.21407E-03 6.22859E-22
3.31362E-03 5.85561E-22
3.41468E-03 5.51001E-22
3.51725E-03 5.18941E-22
3.62133E-03 4.89169E-22
3.72692E-03 4.61492E-22
3.83403E-03 4.35736E-22
3.94265E-03 4.11742E-22
4.05278E-03 3.89370E-22
4.16442E-03 3.68489E-22
4.27757E-03 3.48981E-22
4.39223E-03 3.30741E-22
4.50840E-03 3.13671E-22
4.62608E-03 2.97682E-22
4.74527E-03 2.82693E-22
4.86597E-03 2.68631E-22
4.98817E-03 2.55427E-22
5.11188E-03 2.43020E-22
5.23711E-03 2.31352E-22
5.36383E-03 2.20373E-22
5.49207E-03 2.10032E-22
5.62181E-03 2.00288E-22
5.75306E-03 1.91099E-22
5.88581E-03 1.82427E-22
6.02007E-03 1.74238E-22
6.15583E-03 1.66501E-22
6.29310E-03 1.59186E-22
6.43187E-03 1.52265E-22
6.57214E-03 1.45714E-22
6.71392E-03 1.39509E-22
6.85720E-03 1.33629E-22
7.00198E-03 1.28052E-22
7.14827E-03 1.22760E-22
7.29605E-03 1.17737E-22
7.44534E-03 1.12966E-22
7.59612E-03 1.08432E-22
7.97965E-03 9.80467E-23
8.37255E-03 8.88660E-23
8.77480E-03 8.07266E-23
9.18641E-03 7.34905E-23
9.60736E-03 6.70403E-23
1.00376E-02 6.12763E-23
1.04773E-02 5.61131E-23
1.09262E-02 5.14772E-23
1.13844E-02 4.73056E-23
1.18520E-02 4.35439E-23
1.23288E-02 4.01449E-23
1.28150E-02 3.70676E-23
1.33104E-02 3.42763E-23
1.38150E-02 3.17399E-23
1.43290E-02 2.94310E-23
1.48521E-02 2.73257E-23
1.53845E-02 2.54030E-23
1.59262E-02 2.36443E-23
1.64770E-02 2.20332E-23
1.70371E-02 2.05551E-23
1.76063E-02 1.91972E-23
1.81848E-02 1.79480E-23
1.87724E-02 1.67973E-23
1.93692E-02 1.57359E-23
1.99751E-02 1.47558E-23
2.05901E-02 1.38496E-23
2.12143E-02 1.30107E-23
2.18476E-02 1.22334E-23
2.24900E-02 1.15123E-23
2.31415E-02 1.08426E-23
2.38021E-02 1.02200E-23
2.44717E-02 9.64065E-24
2.51504E-02 9.10102E-24
2.58382E-02 8.59791E-24
2.65349E-02 8.12841E-24
2.72407E-02 7.68988E-24
2.79555E-02 7.27993E-24
2.86793E-02 6.89637E-24
2.94120E-02 6.53721E-24
3.01537E-02 6.20063E-24
3.09043E-02 5.88495E-24
3.16639E-02 5.58866E-24
3.24324E-02 5.31035E-24
3.32098E-02 5.04875E-24
3.39961E-02 4.80268E-24
3.47912E-02 4.57106E-24
3.55952E-02 4.35289E-24
3.64081E-02 4.14726E-24
3.72297E-02 3.95331E-24
3.80602E-02 3.77028E-24
3.88995E-02 3.59744E-24
3.97476E-02 3.43413E-24
4.06044E-02 3.27972E-24
4.14700E-02 3.13366E-24
4.23443E-02 2.99541E-24
4.32273E-02 2.86448E-24
4.41190E-02 2.74041E-24
4.50194E-02 2.62280E-24
4.59284E-02 2.51123E-24
4.68461E-02 2.40536E-24
4.87074E-02 2.20934E-24
5.06030E-02 2.03228E-24
5.25328E-02 1.87207E-24
5.44967E-02 1.72683E-24
5.64946E-02 1.59495E-24
5.85262E-02 1.47500E-24
6.05914E-02 1.36572E-24
6.26901E-02 1.26602E-24
6.48222E-02 1.17492E-24
6.69873E-02 1.09156E-24
6.91854E-02 1.01519E-24
7.14163E-02 9.45111E-25
7.36799E-02 8.80736E-25
7.59760E-02 8.21524E-25
7.83043E-02 7.66996E-25
8.06647E-02 7.16723E-25
8.30571E-02 6.70321E-25
8.54812E-02 6.27445E-25
8.79369E-02 5.87786E-25
9.04240E-02 5.51064E-25
9.29422E-02 5.17029E-25
9.54915E-02 4.85453E-25
9.80716E-02 4.56131E-25
1.00682E-01 4.28878E-25
1.03323E-01 4.03525E-25
1.05995E-01 3.79920E-25
1.08696E-01 3.57924E-25
1.11427E-01 3.37410E-25
1.14188E-01 3.18264E-25
1.16978E-01 3.00380E-25
1.19797E-01 2.83663E-25
1.22645E-01 2.68025E-25
1.25522E-01 2.53386E-25
1.28428E-01 2.39674E-25
1.31361E-01 2.26820E-25
1.34323E-01 2.14763E-25
1.37313E-01 2.03446E-25
1.40330E-01 1.92818E-25
1.43375E-01 1.82830E-25
1.46447E-01 1.73438E-25
1.49545E-01 1.64601E-25
1.52671E-01 1.56282E-25
1.55823E-01 1.48447E-25
1.59001E-01 1.41062E-25
1.62205E-01 1.34099E-25
1.65435E-01 1.27529E-25
1.68690E-01 1.21329E-25
1.71970E-01 1.15473E-25
1.75276E-01 1.09940E-25
1.78606E-01 1.04711E-25
1.81961E-01 9.97646E-26
1.85340E-01 9.50852E-26
1.88743E-01 9.06558E-26
1.92169E-01 8.64613E-26
1.95619E-01 8.24875E-26
1.99092E-01 7.87214E-26
2.02589E-01 7.51505E-26
2.06107E-01 7.17634E-26
2.09649E-01 6.85493E-26
2.13212E-01 6.54984E-26
2.16797E-01 6.26011E-26
2.20404E-01 5.98487E-26
2.24032E-01 5.72331E-26
2.27680E-01 5.47466E-26
2.31350E-01 5.23820E-26
2.35040E-01 5.01325E-26
2.38751E-01 4.79918E-26
2.42481E-01 4.59540E-26
2.46231E-01 4.40135E-26
2.50000E-01 4.21650E-26
2.53788E-01 4.04038E-26
2.57595E-01 3.87250E-26
2.61421E-01 3.71245E-26
2.65264E-01 3.55981E-26
2.69126E-01 3.41419E-26
2.73005E-01 3.27524E-26
2.76901E-01 3.14260E-26
2.80814E-01 3.01597E-26
2.84744E-01 2.89503E-26
2.88691E-01 2.77949E-26
2.92653E-01 2.66910E-26
2.96632E-01 2.56359E-26
3.00625E-01 2.46271E-26
3.04634E-01 2.36625E-26
3.08658E-01 2.27399E-26
3.12697E-01 2.18572E-26
3.16749E-01 2.10125E-26
3.20816E-01 2.02040E-26
3.24896E-01 1.94300E-26
3.28990E-01 1.86887E-26
3.33097E-01 1.79788E-26
3.37216E-01 1.72987E-26
3.41348E-01 1.66469E-26
3.45492E-01 1.60223E-26
3.49647E-01 1.54235E-26
3.53814E-01 1.48494E-26
3.57992E-01 1.42989E-26
3.62181E-01 1.37707E-26
3.66381E-01 1.32641E-26
3.70590E-01 1.27779E-26
3.74810E-01 1.23113E-26
3.79039E-01 1.18634E-26
3.83277E-01 1.14333E-26
3.87524E-01 1.10203E-26
3.91780E-01 1.06237E-26
3.96044E-01 1.02427E-26
4.00316E-01 9.87662E-27
4.04596E-01 9.52484E-27
4.08882E-01 9.18674E-27
4.13176E-01 8.86173E-27
4.17476E-01 8.54926E-27
4.21783E-01 8.24879E-27
4.26095E-01 7.95982E-27
4.30413E-01 7.68185E-27
4.34737E-01 7.41444E-27
4.39065E-01 7.15714E-27
4.43398E-01 6.90953E-27
4.47736E-01 6.67122E-27
4.52077E-01 6.44181E-27
4.56422E-01 6.22094E-27
4.60770E-01 6.00827E-27
4.65122E-01 5.80345E-27
4.69476E-01 5.60619E-27
4.73832E-01 5.41616E-27
4.78190E-01 5.23308E-27
4.82550E-01 5.05667E-27
4.86912E-01 4.88666E-27
4.91274E-01 4.72281E-27
4.95637E-01 4.56486E-27
5.00000E-01 4.41259E-27
5.04363E-01 4.26577E-27
5.08726E-01 4.12419E-27
5.13088E-01 3.98765E-27
5.17450E-01 3.85595E-27
5.21810E-01 3.72890E-27
5.26168E-01 3.60633E-27
5.30524E-01 3.48805E-27
5.34878E-01 3.37392E-27
5.39230E-01 3.26377E-27
5.43578E-01 3.15745E-27
5.47923E-01 3.05481E-27
5.52264E-01 2.95573E-27
5.56602E-01 2.86005E-27
5.60935E-01 2.76766E-27
5.65263E-01 2.67844E-27
5.69587E-01 2.59226E-27
5.73905E-01 2.50901E-27
5.78217E-01 2.42859E-27
5.82524E-01 2.35089E-27
5.86824E-01 2.27581E-27
5.91118E-01 2.20325E-27
5.95404E-01 2.13313E-27
5.99684E-01 2.06536E-27
6.03956E-01 1.99985E-27
6.08220E-01 1.93651E-27
6.12476E-01 1.87528E-27
6.16723E-01 1.81607E-27
6.20961E-01 1.75881E-27
6.25190E-01 1.70344E-27
6.29410E-01 1.64989E-27
6.33619E-01 1.59808E-27
6.37819E-01 1.54797E-27
6.42008E-01 1.49949E-27
6.46186E-01 1.45258E-27
6.50353E-01 1.40719E-27
6.54508E-01 1.36327E-27
6.58652E-01 1.32076E-27
6.62784E-01 1.27962E-27
6.66903E-01 1.23980E-27
6.71010E-01 1.20125E-27
6.75104E-01 1.16393E-27
6.79184E-01 1.12780E-27
6.83251E-01 1.09282E-27
6.87303E-01 1.05894E-27
6.91342E-01 1.02613E-27
6.95366E-01 9.94358E-28
6.99375E-01 9.63584E-28
7.03368E-01 9.33776E-28
7.07347E-01 9.04900E-28
7.11309E-01 8.76926E-28
7.15256E-01 8.49824E-28
7.19186E-01 8.23564E-28
7.23099E-01 7.98119E-28
7.26995E-01 7.73462E-28
7.30874E-01 7.49565E-28
7.34736E-01 7.26406E-28
7.38579E-01 7.03958E-28
7.42405E-01 6.82200E-28
7.46212E-01 6.61108E-28
7.50000E-01 6.40660E-28
7.53769E-01 6.20836E-28
7.57519E-01 6.01616E-28
7.61249E-01 5.82979E-28
7.64960E-01 5.64907E-28
7.68650E-01 5.47383E-28
7.72320E-01 5.30387E-28
7.75968E-01 5.13904E-28
7.79596E-01 4.97917E-28
7.83203E-01 4.82411E-28
7.86788E-01 4.67369E-28
7.90351E-01 4.52777E-28
7.93893E-01 4.38621E-28
7.97411E-01 4.24888E-28
8.00908E-01 4.11563E-28
8.04381E-01 3.98635E-28
8.07831E-01 3.86090E-28
8.11257E-01 3.73917E-28
8.14660E-01 3.62104E-28
8.18039E-01 3.50641E-28
8.21394E-01 3.39515E-28
8.24724E-01 3.28717E-28
8.28030E-01 3.18237E-28
8.31310E-01 3.08065E-28
8.34565E-01 2.98191E-28
8.37795E-01 2.88607E-28
8.40999E-01 2.79303E-28
8.44177E-01 2.70271E-28
8.47329E-01 2.61503E-28
8.50455E-01 2.52991E-28
8.53553E-01 2.44727E-28
8.56625E-01 2.36703E-28
8.59670E-01 2.28913E-28
8.62687E-01 2.21349E-28
8.65677E-01 2.14006E-28
8.68639E-01 2.06875E-28
8.71572E-01 1.99951E-28
8.74478E-01 1.93228E-28
8.77355E-01 1.86700E-28
8.80203E-01 1.80361E-28
8.83022E-01 1.74205E-28
8.85812E-01 1.68228E-28
8.88573E-01 1.62424E-28
8.91304E-01 1.56788E-28
8.94005E-01 1.51315E-28
8.96677E-01 1.46001E-28
8.99318E-01 1.40840E-28
9.01928E-01 1.35830E-28
9.04508E-01 1.30964E-28
9.07058E-01 1.26240E-28
9.09576E-01 1.21653E-28
9.12063E-01 1.17200E-28
9.14519E-01 1.12876E-28
9.16943E-01 1.08678E-28
9.19335E-01 1.04603E-28
9.21696E-01 1.00647E-28
9.24024E-01 9.68065E-29
9.26320E-01 9.30789E-29
9.28584E-01 8.94611E-29
9.30815E-01 8.59499E-29
9.33013E-01 8.25425E-29
9.35178E-01 7.92362E-29
9.37310E-01 7.60282E-29
9.39409E-01 7.29160E-29
9.41474E-01 6.98970E-29
9.43505E-01 6.69687E-29
9.45503E-01 6.41290E-29
9.47467E-01 6.13754E-29
9.49397E-01 5.87057E-29
9.51293E-01 5.61179E-29
9.53154E-01 5.36099E-29
9.54981E-01 5.11796E-29
9.56773E-01 4.88252E-29
9.58530E-01 4.65448E-29
9.60252E-01 4.43366E-29
9.61940E-01 4.21989E-29
9.63592E-01 4.01299E-29
9.65209E-01 3.81282E-29
9.66790E-01 3.61920E-29
9.68336E-01 3.43199E-29
9.69846E-01 3.25105E-29
9.71321E-01 3.07623E-29
9.72759E-01 2.90740E-29
9.74162E-01 2.74443E-29
9.75528E-01 2.58719E-29
9.76858E-01 2.43556E-29
9.78152E-01 2.28942E-29
9.79410E-01 2.14867E-29
9.80631E-01 2.01320E-29
9.81815E-01 1.88290E-29
9.82963E-01 1.75766E-29
9.84074E-01 1.63741E-29
9.85148E-01 1.52204E-29
9.86185E-01 1.41147E-29
9.87185E-01 1.30561E-29
9.88148E-01 1.20439E-29
9.89074E-01 1.10773E-29
9.89962E-01 1.01555E-29
9.90814E-01 9.27781E-30
9.91627E-01 8.44365E-30
9.92404E-01 7.65235E-30
9.93143E-01 6.90332E-30
9.93844E-01 6.19600E-30
9.94508E-01 5.52985E-30
9.95134E-01 4.90438E-30
9.95722E-01 4.31912E-30
9.96273E-01 3.77363E-30
9.96786E-01 3.26751E-30
9.97261E-01 2.80038E-30
9.97698E-01 2.37188E-30
9.98097E-01 1.98171E-30
9.98459E-01 1.62956E-30
9.98782E-01 1.31518E-30
9.99067E-01 1.03834E-30
9.99315E-01 7.98817E-31
9.99524E-01 5.96447E-31
9.99695E-01 4.31077E-31
9.99829E-01 3.02583E-31
9.99924E-01 2.10869E-31
9.99981E-01 1.55868E-31
1.00000E+00 1.37540E-31
