 #
 # Subroutine ELSEPA. Elastic scattering of electrons and positrons
 #                    by neutral atoms and positive ions
 #
 # Projectile: positron
 # Kinetic energy = 7.00000E+06 eV = 2.57245E+05 a.u.
 #
 # WARNING: High-energy factorization with free-atom DF screening.
 #          Absorption, polarization and exchange corrections are
 #          switched off.
 #          Phase shifts are calculated for the bare nucleus.
 #          Scattering amplitudes are not evaluated.
 #
 # Element: Tm,  Z =  69,  atomic weight = 1.68934E+02 g/mol
 #
 # Nuclear model: Fermi distribution
 #                Average radius = 5.91502E-13 cm
 #                Skin thickness = 5.46000E-14 cm
 #
 # Number of electrons = 69
 #
 # Total elastic cross section = 7.04806E-18 cm**2 = 2.51691E-01 a0**2
 # 1st transport cross section = 1.10744E-22 cm**2 = 3.95473E-06 a0**2
 # 2nd transport cross section = 3.19561E-22 cm**2 = 1.14117E-05 a0**2
 #
 #
 # Differential cross section:                       MU=(1-COS(THETA))/2
 #
 #  THETA        MU          DCS          DCS        Sherman      error
 #  (deg)                 (cm**2/sr)   (a0**2/sr)    function
 #----------------------------------------------------------------------
0.00000E+00 3.91719E-12
7.61557E-13 3.91709E-12
1.18994E-12 3.91704E-12
1.71346E-12 3.91697E-12
2.33225E-12 3.91689E-12
3.04617E-12 3.91679E-12
3.85530E-12 3.91669E-12
4.75964E-12 3.91657E-12
5.75917E-12 3.91645E-12
6.85391E-12 3.91631E-12
8.04379E-12 3.91615E-12
9.32893E-12 3.91599E-12
1.07092E-11 3.91581E-12
1.21847E-11 3.91562E-12
1.37554E-11 3.91542E-12
1.54213E-11 3.91521E-12
1.71823E-11 3.91498E-12
1.90386E-11 3.91475E-12
2.09900E-11 3.91450E-12
2.30367E-11 3.91424E-12
2.51785E-11 3.91396E-12
2.74156E-11 3.91368E-12
2.97478E-11 3.91338E-12
3.21752E-11 3.91307E-12
3.46979E-11 3.91275E-12
3.73157E-11 3.91242E-12
4.00286E-11 3.91207E-12
4.28368E-11 3.91171E-12
4.57402E-11 3.91135E-12
4.87388E-11 3.91096E-12
5.18325E-11 3.91057E-12
5.50215E-11 3.91017E-12
5.83057E-11 3.90975E-12
6.16850E-11 3.90932E-12
6.51595E-11 3.90888E-12
6.87293E-11 3.90843E-12
7.23943E-11 3.90796E-12
7.61544E-11 3.90748E-12
1.18991E-10 3.90206E-12
1.71347E-10 3.89545E-12
2.33223E-10 3.88767E-12
3.04617E-10 3.87872E-12
3.85531E-10 3.86863E-12
4.75965E-10 3.85740E-12
5.75917E-10 3.84506E-12
6.85389E-10 3.83162E-12
8.04380E-10 3.81710E-12
9.32891E-10 3.80153E-12
1.07092E-09 3.78492E-12
1.21847E-09 3.76731E-12
1.37554E-09 3.74871E-12
1.54213E-09 3.72915E-12
1.71823E-09 3.70867E-12
1.90386E-09 3.68729E-12
2.09900E-09 3.66504E-12
2.30367E-09 3.64194E-12
2.51785E-09 3.61805E-12
2.74156E-09 3.59337E-12
2.97478E-09 3.56795E-12
3.21752E-09 3.54182E-12
3.46978E-09 3.51502E-12
3.73156E-09 3.48757E-12
4.00286E-09 3.45951E-12
4.28368E-09 3.43100E-12
4.57402E-09 3.40197E-12
4.87388E-09 3.37237E-12
5.18326E-09 3.34225E-12
5.50215E-09 3.31163E-12
5.83057E-09 3.28055E-12
6.16850E-09 3.24902E-12
6.51596E-09 3.21728E-12
6.87293E-09 3.18547E-12
7.23942E-09 3.15332E-12
7.61544E-09 3.12085E-12
1.18991E-08 2.78848E-12
1.71347E-08 2.46129E-12
2.33223E-08 2.15732E-12
3.04617E-08 1.88538E-12
3.85531E-08 1.65007E-12
4.75965E-08 1.44917E-12
5.75917E-08 1.27916E-12
6.85389E-08 1.13640E-12
8.04380E-08 1.01570E-12
9.32891E-08 9.13314E-13
1.07092E-07 8.25818E-13
1.21847E-07 7.50379E-13
1.37554E-07 6.84692E-13
1.54213E-07 6.26995E-13
1.71823E-07 5.75993E-13
1.90386E-07 5.30357E-13
2.09900E-07 4.89431E-13
2.30367E-07 4.52537E-13
2.51785E-07 4.18935E-13
2.74156E-07 3.88426E-13
2.97478E-07 3.60553E-13
3.21752E-07 3.34981E-13
3.46978E-07 3.11589E-13
3.73156E-07 2.90047E-13
4.00286E-07 2.70232E-13
4.28368E-07 2.50673E-13
4.57402E-07 2.32683E-13
4.87388E-07 2.16692E-13
5.18325E-07 2.02431E-13
5.50215E-07 1.89673E-13
5.83057E-07 1.78222E-13
6.16850E-07 1.67916E-13
6.51596E-07 1.57824E-13
6.87293E-07 1.47545E-13
7.23942E-07 1.38276E-13
7.61543E-07 1.29895E-13
1.18991E-06 7.37168E-14
1.71347E-06 4.45892E-14
2.33223E-06 2.83484E-14
3.04617E-06 1.87949E-14
3.85531E-06 1.28248E-14
4.75964E-06 9.01054E-15
5.75916E-06 6.50413E-15
6.85388E-06 4.80522E-15
8.04378E-06 3.63302E-15
9.32888E-06 2.80303E-15
1.07092E-05 2.20126E-15
1.21846E-05 1.75484E-15
1.37553E-05 1.41847E-15
1.54212E-05 1.16051E-15
1.71822E-05 9.59498E-16
1.90385E-05 7.99688E-16
2.09899E-05 6.72474E-16
2.30365E-05 5.69433E-16
2.51783E-05 4.85077E-16
2.74153E-05 4.15693E-16
2.97475E-05 3.58188E-16
3.21749E-05 3.10206E-16
3.46974E-05 2.69985E-16
3.73152E-05 2.36033E-16
4.00281E-05 2.07241E-16
4.28362E-05 1.82594E-16
4.57395E-05 1.61555E-16
4.87380E-05 1.43561E-16
5.18317E-05 1.27879E-16
5.50205E-05 1.14291E-16
5.83045E-05 1.02517E-16
6.16838E-05 9.21476E-17
6.51582E-05 8.30785E-17
6.87277E-05 7.51350E-17
7.23925E-05 6.80767E-17
7.61524E-05 6.18462E-17
9.21439E-05 4.30531E-17
1.09658E-04 3.08747E-17
1.28695E-04 2.27232E-17
1.49255E-04 1.70928E-17
1.71338E-04 1.31022E-17
1.94942E-04 1.02118E-17
2.20070E-04 8.07514E-18
2.46720E-04 6.46846E-18
2.74892E-04 5.24188E-18
3.04586E-04 4.29176E-18
3.35803E-04 3.54706E-18
3.68542E-04 2.95678E-18
4.02802E-04 2.48382E-18
4.38585E-04 2.10156E-18
4.75889E-04 1.78987E-18
5.14715E-04 1.53368E-18
5.55063E-04 1.32163E-18
5.96931E-04 1.14487E-18
6.40321E-04 9.96614E-19
6.85233E-04 8.71552E-19
7.31665E-04 7.65438E-19
7.79618E-04 6.74961E-19
8.29092E-04 5.97438E-19
8.80086E-04 5.30700E-19
9.32601E-04 4.73010E-19
9.86636E-04 4.22932E-19
1.04219E-03 3.79294E-19
1.09927E-03 3.41133E-19
1.15786E-03 3.07640E-19
1.21797E-03 2.78150E-19
1.27961E-03 2.52105E-19
1.34276E-03 2.29029E-19
1.40743E-03 2.08530E-19
1.47362E-03 1.90268E-19
1.54133E-03 1.73958E-19
1.61056E-03 1.59354E-19
1.68131E-03 1.46248E-19
1.75357E-03 1.34458E-19
1.82735E-03 1.23830E-19
1.90265E-03 1.14229E-19
1.97947E-03 1.05538E-19
2.05780E-03 9.76555E-20
2.13765E-03 9.04931E-20
2.21902E-03 8.39739E-20
2.30190E-03 7.80294E-20
2.38630E-03 7.26000E-20
2.47222E-03 6.76333E-20
2.55965E-03 6.30827E-20
2.64859E-03 5.89071E-20
2.73905E-03 5.50703E-20
2.83103E-03 5.15395E-20
2.92452E-03 4.82862E-20
3.01952E-03 4.52847E-20
3.11604E-03 4.25119E-20
3.21407E-03 3.99472E-20
3.31362E-03 3.75723E-20
3.41468E-03 3.53706E-20
3.51725E-03 3.33271E-20
3.62133E-03 3.14285E-20
3.72692E-03 2.96625E-20
3.83403E-03 2.80184E-20
3.94265E-03 2.64860E-20
4.05278E-03 2.50565E-20
4.16442E-03 2.37216E-20
4.27757E-03 2.24742E-20
4.39223E-03 2.13072E-20
4.50840E-03 2.02147E-20
4.62608E-03 1.91909E-20
4.74527E-03 1.82308E-20
4.86597E-03 1.73297E-20
4.98817E-03 1.64833E-20
5.11188E-03 1.56877E-20
5.23711E-03 1.49392E-20
5.36383E-03 1.42346E-20
5.49207E-03 1.35708E-20
5.62181E-03 1.29452E-20
5.75306E-03 1.23548E-20
5.88581E-03 1.17976E-20
6.02007E-03 1.12713E-20
6.15583E-03 1.07738E-20
6.29310E-03 1.03034E-20
6.43187E-03 9.85812E-21
6.57214E-03 9.43655E-21
6.71392E-03 9.03712E-21
6.85720E-03 8.65850E-21
7.00198E-03 8.29935E-21
7.14827E-03 7.95855E-21
7.29605E-03 7.63492E-21
7.44534E-03 7.32749E-21
7.59612E-03 7.03527E-21
7.97965E-03 6.36563E-21
8.37255E-03 5.77330E-21
8.77480E-03 5.24788E-21
9.18641E-03 4.78052E-21
9.60736E-03 4.36371E-21
1.00376E-02 3.99106E-21
1.04773E-02 3.65709E-21
1.09262E-02 3.35709E-21
1.13844E-02 3.08702E-21
1.18520E-02 2.84338E-21
1.23288E-02 2.62313E-21
1.28150E-02 2.42365E-21
1.33104E-02 2.24263E-21
1.38150E-02 2.07807E-21
1.43290E-02 1.92822E-21
1.48521E-02 1.79152E-21
1.53845E-02 1.66664E-21
1.59262E-02 1.55236E-21
1.64770E-02 1.44763E-21
1.70371E-02 1.35151E-21
1.76063E-02 1.26317E-21
1.81848E-02 1.18187E-21
1.87724E-02 1.10695E-21
1.93692E-02 1.03782E-21
1.99751E-02 9.73952E-22
2.05901E-02 9.14880E-22
2.12143E-02 8.60179E-22
2.18476E-02 8.09468E-22
2.24900E-02 7.62404E-22
2.31415E-02 7.18679E-22
2.38021E-02 6.78014E-22
2.44717E-02 6.40156E-22
2.51504E-02 6.04878E-22
2.58382E-02 5.71972E-22
2.65349E-02 5.41251E-22
2.72407E-02 5.12545E-22
2.79555E-02 4.85696E-22
2.86793E-02 4.60564E-22
2.94120E-02 4.37020E-22
3.01537E-02 4.14945E-22
3.09043E-02 3.94231E-22
3.16639E-02 3.74779E-22
3.24324E-02 3.56499E-22
3.32098E-02 3.39308E-22
3.39961E-02 3.23128E-22
3.47912E-02 3.07891E-22
3.55952E-02 2.93530E-22
3.64081E-02 2.79987E-22
3.72297E-02 2.67208E-22
3.80602E-02 2.55140E-22
3.88995E-02 2.43738E-22
3.97476E-02 2.32958E-22
4.06044E-02 2.22760E-22
4.14700E-02 2.13106E-22
4.23443E-02 2.03964E-22
4.32273E-02 1.95300E-22
4.41190E-02 1.87086E-22
4.50194E-02 1.79293E-22
4.59284E-02 1.71897E-22
4.68461E-02 1.64873E-22
4.87074E-02 1.51855E-22
5.06030E-02 1.40081E-22
5.25328E-02 1.29411E-22
5.44967E-02 1.19724E-22
5.64946E-02 1.10915E-22
5.85262E-02 1.02890E-22
6.05914E-02 9.55670E-23
6.26901E-02 8.88751E-23
6.48222E-02 8.27501E-23
6.69873E-02 7.71360E-23
6.91854E-02 7.19828E-23
7.14163E-02 6.72462E-23
7.36799E-02 6.28866E-23
7.59760E-02 5.88690E-23
7.83043E-02 5.51620E-23
8.06647E-02 5.17374E-23
8.30571E-02 4.85700E-23
8.54812E-02 4.56371E-23
8.79369E-02 4.29185E-23
9.04240E-02 4.03957E-23
9.29422E-02 3.80522E-23
9.54915E-02 3.58731E-23
9.80716E-02 3.38449E-23
1.00682E-01 3.19553E-23
1.03323E-01 3.01932E-23
1.05995E-01 2.85485E-23
1.08696E-01 2.70121E-23
1.11427E-01 2.55755E-23
1.14188E-01 2.42313E-23
1.16978E-01 2.29723E-23
1.19797E-01 2.17924E-23
1.22645E-01 2.06856E-23
1.25522E-01 1.96466E-23
1.28428E-01 1.86706E-23
1.31361E-01 1.77531E-23
1.34323E-01 1.68900E-23
1.37313E-01 1.60774E-23
1.40330E-01 1.53120E-23
1.43375E-01 1.45905E-23
1.46447E-01 1.39100E-23
1.49545E-01 1.32677E-23
1.52671E-01 1.26611E-23
1.55823E-01 1.20879E-23
1.59001E-01 1.15459E-23
1.62205E-01 1.10332E-23
1.65435E-01 1.05478E-23
1.68690E-01 1.00881E-23
1.71970E-01 9.65250E-24
1.75276E-01 9.23949E-24
1.78606E-01 8.84769E-24
1.81961E-01 8.47585E-24
1.85340E-01 8.12277E-24
1.88743E-01 7.78731E-24
1.92169E-01 7.46847E-24
1.95619E-01 7.16529E-24
1.99092E-01 6.87685E-24
2.02589E-01 6.60232E-24
2.06107E-01 6.34090E-24
2.09649E-01 6.09187E-24
2.13212E-01 5.85454E-24
2.16797E-01 5.62826E-24
2.20404E-01 5.41244E-24
2.24032E-01 5.20649E-24
2.27680E-01 5.00990E-24
2.31350E-01 4.82217E-24
2.35040E-01 4.64283E-24
2.38751E-01 4.47143E-24
2.42481E-01 4.30757E-24
2.46231E-01 4.15087E-24
2.50000E-01 4.00094E-24
2.53788E-01 3.85745E-24
2.57595E-01 3.72008E-24
2.61421E-01 3.58852E-24
2.65264E-01 3.46249E-24
2.69126E-01 3.34170E-24
2.73005E-01 3.22591E-24
2.76901E-01 3.11487E-24
2.80814E-01 3.00836E-24
2.84744E-01 2.90616E-24
2.88691E-01 2.80806E-24
2.92653E-01 2.71387E-24
2.96632E-01 2.62342E-24
3.00625E-01 2.53652E-24
3.04634E-01 2.45301E-24
3.08658E-01 2.37274E-24
3.12697E-01 2.29557E-24
3.16749E-01 2.22134E-24
3.20816E-01 2.14994E-24
3.24896E-01 2.08123E-24
3.28990E-01 2.01510E-24
3.33097E-01 1.95143E-24
3.37216E-01 1.89012E-24
3.41348E-01 1.83106E-24
3.45492E-01 1.77416E-24
3.49647E-01 1.71932E-24
3.53814E-01 1.66646E-24
3.57992E-01 1.61550E-24
3.62181E-01 1.56635E-24
3.66381E-01 1.51894E-24
3.70590E-01 1.47320E-24
3.74810E-01 1.42906E-24
3.79039E-01 1.38645E-24
3.83277E-01 1.34532E-24
3.87524E-01 1.30560E-24
3.91780E-01 1.26723E-24
3.96044E-01 1.23017E-24
4.00316E-01 1.19435E-24
4.04596E-01 1.15974E-24
4.08882E-01 1.12628E-24
4.13176E-01 1.09394E-24
4.17476E-01 1.06266E-24
4.21783E-01 1.03240E-24
4.26095E-01 1.00313E-24
4.30413E-01 9.74814E-25
4.34737E-01 9.47409E-25
4.39065E-01 9.20883E-25
4.43398E-01 8.95203E-25
4.47736E-01 8.70339E-25
4.52077E-01 8.46255E-25
4.56422E-01 8.22926E-25
4.60770E-01 8.00325E-25
4.65122E-01 7.78427E-25
4.69476E-01 7.57205E-25
4.73832E-01 7.36636E-25
4.78190E-01 7.16696E-25
4.82550E-01 6.97362E-25
4.86912E-01 6.78615E-25
4.91274E-01 6.60432E-25
4.95637E-01 6.42794E-25
5.00000E-01 6.25683E-25
5.04363E-01 6.09079E-25
5.08726E-01 5.92966E-25
5.13088E-01 5.77327E-25
5.17450E-01 5.62145E-25
5.21810E-01 5.47405E-25
5.26168E-01 5.33093E-25
5.30524E-01 5.19193E-25
5.34878E-01 5.05693E-25
5.39230E-01 4.92578E-25
5.43578E-01 4.79836E-25
5.47923E-01 4.67456E-25
5.52264E-01 4.55424E-25
5.56602E-01 4.43730E-25
5.60935E-01 4.32363E-25
5.65263E-01 4.21312E-25
5.69587E-01 4.10567E-25
5.73905E-01 4.00119E-25
5.78217E-01 3.89957E-25
5.82524E-01 3.80073E-25
5.86824E-01 3.70458E-25
5.91118E-01 3.61104E-25
5.95404E-01 3.52003E-25
5.99684E-01 3.43146E-25
6.03956E-01 3.34526E-25
6.08220E-01 3.26137E-25
6.12476E-01 3.17970E-25
6.16723E-01 3.10019E-25
6.20961E-01 3.02277E-25
6.25190E-01 2.94739E-25
6.29410E-01 2.87398E-25
6.33619E-01 2.80248E-25
6.37819E-01 2.73284E-25
6.42008E-01 2.66499E-25
6.46186E-01 2.59890E-25
6.50353E-01 2.53449E-25
6.54508E-01 2.47174E-25
6.58652E-01 2.41058E-25
6.62784E-01 2.35098E-25
6.66903E-01 2.29288E-25
6.71010E-01 2.23624E-25
6.75104E-01 2.18103E-25
6.79184E-01 2.12720E-25
6.83251E-01 2.07471E-25
6.87303E-01 2.02353E-25
6.91342E-01 1.97361E-25
6.95366E-01 1.92493E-25
6.99375E-01 1.87744E-25
7.03368E-01 1.83112E-25
7.07347E-01 1.78593E-25
7.11309E-01 1.74185E-25
7.15256E-01 1.69883E-25
7.19186E-01 1.65686E-25
7.23099E-01 1.61590E-25
7.26995E-01 1.57593E-25
7.30874E-01 1.53692E-25
7.34736E-01 1.49884E-25
7.38579E-01 1.46167E-25
7.42405E-01 1.42539E-25
7.46212E-01 1.38997E-25
7.50000E-01 1.35538E-25
7.53769E-01 1.32162E-25
7.57519E-01 1.28865E-25
7.61249E-01 1.25645E-25
7.64960E-01 1.22502E-25
7.68650E-01 1.19431E-25
7.72320E-01 1.16433E-25
7.75968E-01 1.13504E-25
7.79596E-01 1.10643E-25
7.83203E-01 1.07849E-25
7.86788E-01 1.05119E-25
7.90351E-01 1.02452E-25
7.93893E-01 9.98471E-26
7.97411E-01 9.73019E-26
8.00908E-01 9.48151E-26
8.04381E-01 9.23854E-26
8.07831E-01 9.00113E-26
8.11257E-01 8.76915E-26
8.14660E-01 8.54247E-26
8.18039E-01 8.32095E-26
8.21394E-01 8.10448E-26
8.24724E-01 7.89293E-26
8.28030E-01 7.68618E-26
8.31310E-01 7.48413E-26
8.34565E-01 7.28665E-26
8.37795E-01 7.09365E-26
8.40999E-01 6.90501E-26
8.44177E-01 6.72065E-26
8.47329E-01 6.54045E-26
8.50455E-01 6.36432E-26
8.53553E-01 6.19217E-26
8.56625E-01 6.02391E-26
8.59670E-01 5.85945E-26
8.62687E-01 5.69870E-26
8.65677E-01 5.54159E-26
8.68639E-01 5.38802E-26
8.71572E-01 5.23793E-26
8.74478E-01 5.09123E-26
8.77355E-01 4.94785E-26
8.80203E-01 4.80772E-26
8.83022E-01 4.67077E-26
8.85812E-01 4.53693E-26
8.88573E-01 4.40613E-26
8.91304E-01 4.27831E-26
8.94005E-01 4.15341E-26
8.96677E-01 4.03136E-26
8.99318E-01 3.91210E-26
9.01928E-01 3.79558E-26
9.04508E-01 3.68174E-26
9.07058E-01 3.57053E-26
9.09576E-01 3.46190E-26
9.12063E-01 3.35578E-26
9.14519E-01 3.25213E-26
9.16943E-01 3.15091E-26
9.19335E-01 3.05206E-26
9.21696E-01 2.95554E-26
9.24024E-01 2.86131E-26
9.26320E-01 2.76931E-26
9.28584E-01 2.67951E-26
9.30815E-01 2.59187E-26
9.33013E-01 2.50635E-26
9.35178E-01 2.42290E-26
9.37310E-01 2.34149E-26
9.39409E-01 2.26208E-26
9.41474E-01 2.18464E-26
9.43505E-01 2.10913E-26
9.45503E-01 2.03552E-26
9.47467E-01 1.96377E-26
9.49397E-01 1.89386E-26
9.51293E-01 1.82575E-26
9.53154E-01 1.75941E-26
9.54981E-01 1.69482E-26
9.56773E-01 1.63194E-26
9.58530E-01 1.57074E-26
9.60252E-01 1.51121E-26
9.61940E-01 1.45332E-26
9.63592E-01 1.39703E-26
9.65209E-01 1.34233E-26
9.66790E-01 1.28919E-26
9.68336E-01 1.23759E-26
9.69846E-01 1.18751E-26
9.71321E-01 1.13892E-26
9.72759E-01 1.09181E-26
9.74162E-01 1.04615E-26
9.75528E-01 1.00193E-26
9.76858E-01 9.59130E-27
9.78152E-01 9.17727E-27
9.79410E-01 8.77706E-27
9.80631E-01 8.39050E-27
9.81815E-01 8.01743E-27
9.82963E-01 7.65770E-27
9.84074E-01 7.31115E-27
9.85148E-01 6.97765E-27
9.86185E-01 6.65705E-27
9.87185E-01 6.34922E-27
9.88148E-01 6.05403E-27
9.89074E-01 5.77137E-27
9.89962E-01 5.50111E-27
9.90814E-01 5.24315E-27
9.91627E-01 4.99738E-27
9.92404E-01 4.76369E-27
9.93143E-01 4.54201E-27
9.93844E-01 4.33222E-27
9.94508E-01 4.13425E-27
9.95134E-01 3.94802E-27
9.95722E-01 3.77345E-27
9.96273E-01 3.61047E-27
9.96786E-01 3.45902E-27
9.97261E-01 3.31903E-27
9.97698E-01 3.19044E-27
9.98097E-01 3.07321E-27
9.98459E-01 2.96729E-27
9.98782E-01 2.87263E-27
9.99067E-01 2.78919E-27
9.99315E-01 2.71695E-27
9.99524E-01 2.65587E-27
9.99695E-01 2.60593E-27
9.99829E-01 2.56711E-27
9.99924E-01 2.53939E-27
9.99981E-01 2.52277E-27
1.00000E+00 2.51723E-27
