 #
 # Subroutine ELSEPA. Elastic scattering of electrons and positrons
 #                    by neutral atoms and positive ions
 #
 # Projectile: positron
 # Kinetic energy = 1.00000E+07 eV = 3.67493E+05 a.u.
 #
 # WARNING: High-energy factorization with free-atom DF screening.
 #          Absorption, polarization and exchange corrections are
 #          switched off.
 #          Phase shifts are calculated for the bare nucleus.
 #          Scattering amplitudes are not evaluated.
 #
 # Element: Tm,  Z =  69,  atomic weight = 1.68934E+02 g/mol
 #
 # Nuclear model: Fermi distribution
 #                Average radius = 5.91502E-13 cm
 #                Skin thickness = 5.46000E-14 cm
 #
 # Number of electrons = 69
 #
 # Total elastic cross section = 7.03419E-18 cm**2 = 2.51196E-01 a0**2
 # 1st transport cross section = 6.00162E-23 cm**2 = 2.14322E-06 a0**2
 # 2nd transport cross section = 1.73670E-22 cm**2 = 6.20186E-06 a0**2
 #
 #
 # Differential cross section:                       MU=(1-COS(THETA))/2
 #
 #  THETA        MU          DCS          DCS        Sherman      error
 #  (deg)                 (cm**2/sr)   (a0**2/sr)    function
 #----------------------------------------------------------------------
0.00000E+00 7.67128E-12
7.61557E-13 7.67089E-12
1.18994E-12 7.67068E-12
1.71346E-12 7.67042E-12
2.33225E-12 7.67011E-12
3.04617E-12 7.66976E-12
3.85530E-12 7.66936E-12
4.75964E-12 7.66892E-12
5.75917E-12 7.66843E-12
6.85391E-12 7.66789E-12
8.04379E-12 7.66730E-12
9.32893E-12 7.66667E-12
1.07092E-11 7.66600E-12
1.21847E-11 7.66527E-12
1.37554E-11 7.66451E-12
1.54213E-11 7.66369E-12
1.71823E-11 7.66283E-12
1.90386E-11 7.66192E-12
2.09900E-11 7.66097E-12
2.30367E-11 7.65997E-12
2.51785E-11 7.65892E-12
2.74156E-11 7.65783E-12
2.97478E-11 7.65669E-12
3.21752E-11 7.65550E-12
3.46979E-11 7.65427E-12
3.73157E-11 7.65300E-12
4.00286E-11 7.65168E-12
4.28368E-11 7.65031E-12
4.57402E-11 7.64890E-12
4.87388E-11 7.64744E-12
5.18325E-11 7.64593E-12
5.50215E-11 7.64438E-12
5.83057E-11 7.64278E-12
6.16850E-11 7.64114E-12
6.51595E-11 7.63945E-12
6.87293E-11 7.63772E-12
7.23943E-11 7.63594E-12
7.61544E-11 7.63412E-12
1.18991E-10 7.61340E-12
1.71347E-10 7.58821E-12
2.33223E-10 7.55864E-12
3.04617E-10 7.52475E-12
3.85531E-10 7.48667E-12
4.75965E-10 7.44450E-12
5.75917E-10 7.39835E-12
6.85389E-10 7.34837E-12
8.04380E-10 7.29470E-12
9.32891E-10 7.23748E-12
1.07092E-09 7.17687E-12
1.21847E-09 7.11304E-12
1.37554E-09 7.04615E-12
1.54213E-09 6.97638E-12
1.71823E-09 6.90391E-12
1.90386E-09 6.82892E-12
2.09900E-09 6.75163E-12
2.30367E-09 6.67258E-12
2.51785E-09 6.59136E-12
2.74156E-09 6.50813E-12
2.97478E-09 6.42306E-12
3.21752E-09 6.33632E-12
3.46978E-09 6.24924E-12
3.73156E-09 6.16101E-12
4.00286E-09 6.07158E-12
4.28368E-09 5.98111E-12
4.57402E-09 5.88976E-12
4.87388E-09 5.79873E-12
5.18326E-09 5.70771E-12
5.50215E-09 5.61621E-12
5.83057E-09 5.52437E-12
6.16850E-09 5.43230E-12
6.51596E-09 5.34092E-12
6.87293E-09 5.25066E-12
7.23942E-09 5.16050E-12
7.61544E-09 5.07055E-12
1.18991E-08 4.22211E-12
1.71347E-08 3.49740E-12
2.33223E-08 2.90910E-12
3.04617E-08 2.44333E-12
3.85531E-08 2.07692E-12
4.75965E-08 1.78687E-12
5.75917E-08 1.55409E-12
6.85389E-08 1.36395E-12
8.04380E-08 1.20578E-12
9.32891E-08 1.07206E-12
1.07092E-07 9.57445E-13
1.21847E-07 8.58105E-13
1.37554E-07 7.71255E-13
1.54213E-07 6.94828E-13
1.71823E-07 6.27249E-13
1.90386E-07 5.67281E-13
2.09900E-07 5.13413E-13
2.30367E-07 4.61713E-13
2.51785E-07 4.17922E-13
2.74156E-07 3.80585E-13
2.97478E-07 3.48553E-13
3.21752E-07 3.20910E-13
3.46978E-07 2.92335E-13
3.73156E-07 2.66958E-13
4.00286E-07 2.44903E-13
4.28368E-07 2.25643E-13
4.57402E-07 2.08745E-13
4.87388E-07 1.92366E-13
5.18325E-07 1.77160E-13
5.50215E-07 1.63730E-13
5.83057E-07 1.51825E-13
6.16850E-07 1.41233E-13
6.51596E-07 1.31305E-13
6.87293E-07 1.21807E-13
7.23942E-07 1.13308E-13
7.61543E-07 1.05681E-13
1.18991E-06 5.54167E-14
1.71347E-06 3.13832E-14
2.33223E-06 1.88588E-14
3.04617E-06 1.19387E-14
3.85531E-06 7.92233E-15
4.75964E-06 5.47948E-15
5.75916E-06 3.92390E-15
6.85388E-06 2.89114E-15
8.04378E-06 2.18287E-15
9.32888E-06 1.68070E-15
1.07092E-05 1.31486E-15
1.21846E-05 1.04296E-15
1.37553E-05 8.37635E-16
1.54212E-05 6.80293E-16
1.71822E-05 5.58016E-16
1.90385E-05 4.61584E-16
2.09899E-05 3.85328E-16
2.30365E-05 3.23892E-16
2.51783E-05 2.74554E-16
2.74153E-05 2.33852E-16
2.97475E-05 2.00617E-16
3.21749E-05 1.72915E-16
3.46974E-05 1.49951E-16
3.73152E-05 1.30628E-16
4.00281E-05 1.14384E-16
4.28362E-05 1.00563E-16
4.57395E-05 8.87892E-17
4.87380E-05 7.86749E-17
5.18317E-05 6.99642E-17
5.50205E-05 6.24210E-17
5.83045E-05 5.58671E-17
6.16838E-05 5.01540E-17
6.51582E-05 4.51521E-17
6.87277E-05 4.07643E-17
7.23925E-05 3.68943E-17
7.61524E-05 3.34778E-17
9.21439E-05 2.31919E-17
1.09658E-04 1.65674E-17
1.28695E-04 1.21471E-17
1.49255E-04 9.10477E-18
1.71338E-04 6.95673E-18
1.94942E-04 5.40496E-18
2.20070E-04 4.26175E-18
2.46720E-04 3.40476E-18
2.74892E-04 2.75221E-18
3.04586E-04 2.24846E-18
3.35803E-04 1.85460E-18
3.68542E-04 1.54317E-18
4.02802E-04 1.29433E-18
4.38585E-04 1.09359E-18
4.75889E-04 9.30242E-19
5.14715E-04 7.96240E-19
5.55063E-04 6.85487E-19
5.96931E-04 5.93312E-19
6.40321E-04 5.16101E-19
6.85233E-04 4.51033E-19
7.31665E-04 3.95890E-19
7.79618E-04 3.48910E-19
8.29092E-04 3.08686E-19
8.80086E-04 2.74086E-19
9.32601E-04 2.44192E-19
9.86636E-04 2.18258E-19
1.04219E-03 1.95671E-19
1.09927E-03 1.75926E-19
1.15786E-03 1.58604E-19
1.21797E-03 1.43359E-19
1.27961E-03 1.29898E-19
1.34276E-03 1.17977E-19
1.40743E-03 1.07389E-19
1.47362E-03 9.79593E-20
1.54133E-03 8.95399E-20
1.61056E-03 8.20033E-20
1.68131E-03 7.52410E-20
1.75357E-03 6.91595E-20
1.82735E-03 6.36783E-20
1.90265E-03 5.87279E-20
1.97947E-03 5.42477E-20
2.05780E-03 5.01853E-20
2.13765E-03 4.64947E-20
2.21902E-03 4.31362E-20
2.30190E-03 4.00745E-20
2.38630E-03 3.72787E-20
2.47222E-03 3.47215E-20
2.55965E-03 3.23790E-20
2.64859E-03 3.02301E-20
2.73905E-03 2.82559E-20
2.83103E-03 2.64394E-20
2.92452E-03 2.47661E-20
3.01952E-03 2.32225E-20
3.11604E-03 2.17969E-20
3.21407E-03 2.04784E-20
3.31362E-03 1.92578E-20
3.41468E-03 1.81263E-20
3.51725E-03 1.70764E-20
3.62133E-03 1.61011E-20
3.72692E-03 1.51940E-20
3.83403E-03 1.43497E-20
3.94265E-03 1.35629E-20
4.05278E-03 1.28291E-20
4.16442E-03 1.21439E-20
4.27757E-03 1.15037E-20
4.39223E-03 1.09049E-20
4.50840E-03 1.03444E-20
4.62608E-03 9.81927E-21
4.74527E-03 9.32684E-21
4.86597E-03 8.86475E-21
4.98817E-03 8.43077E-21
5.11188E-03 8.02288E-21
5.23711E-03 7.63923E-21
5.36383E-03 7.27811E-21
5.49207E-03 6.93798E-21
5.62181E-03 6.61737E-21
5.75306E-03 6.31495E-21
5.88581E-03 6.02953E-21
6.02007E-03 5.75995E-21
6.15583E-03 5.50520E-21
6.29310E-03 5.26428E-21
6.43187E-03 5.03632E-21
6.57214E-03 4.82050E-21
6.71392E-03 4.61605E-21
6.85720E-03 4.42225E-21
7.00198E-03 4.23846E-21
7.14827E-03 4.06406E-21
7.29605E-03 3.89848E-21
7.44534E-03 3.74120E-21
7.59612E-03 3.59171E-21
7.97965E-03 3.24921E-21
8.37255E-03 2.94634E-21
8.77480E-03 2.67774E-21
9.18641E-03 2.43887E-21
9.60736E-03 2.22588E-21
1.00376E-02 2.03549E-21
1.04773E-02 1.86490E-21
1.09262E-02 1.71168E-21
1.13844E-02 1.57378E-21
1.18520E-02 1.44939E-21
1.23288E-02 1.33697E-21
1.28150E-02 1.23516E-21
1.33104E-02 1.14278E-21
1.38150E-02 1.05882E-21
1.43290E-02 9.82368E-22
1.48521E-02 9.12641E-22
1.53845E-02 8.48944E-22
1.59262E-02 7.90663E-22
1.64770E-02 7.37259E-22
1.70371E-02 6.88250E-22
1.76063E-02 6.43212E-22
1.81848E-02 6.01768E-22
1.87724E-02 5.63579E-22
1.93692E-02 5.28346E-22
1.99751E-02 4.95800E-22
2.05901E-02 4.65698E-22
2.12143E-02 4.37826E-22
2.18476E-02 4.11988E-22
2.24900E-02 3.88010E-22
2.31415E-02 3.65736E-22
2.38021E-02 3.45021E-22
2.44717E-02 3.25738E-22
2.51504E-02 3.07771E-22
2.58382E-02 2.91012E-22
2.65349E-02 2.75367E-22
2.72407E-02 2.60749E-22
2.79555E-02 2.47078E-22
2.86793E-02 2.34282E-22
2.94120E-02 2.22294E-22
3.01537E-02 2.11056E-22
3.09043E-02 2.00510E-22
3.16639E-02 1.90608E-22
3.24324E-02 1.81303E-22
3.32098E-02 1.72552E-22
3.39961E-02 1.64317E-22
3.47912E-02 1.56562E-22
3.55952E-02 1.49254E-22
3.64081E-02 1.42362E-22
3.72297E-02 1.35858E-22
3.80602E-02 1.29717E-22
3.88995E-02 1.23915E-22
3.97476E-02 1.18429E-22
4.06044E-02 1.13241E-22
4.14700E-02 1.08329E-22
4.23443E-02 1.03678E-22
4.32273E-02 9.92700E-23
4.41190E-02 9.50910E-23
4.50194E-02 9.11267E-23
4.59284E-02 8.73641E-23
4.68461E-02 8.37911E-23
4.87074E-02 7.71696E-23
5.06030E-02 7.11808E-23
5.25328E-02 6.57542E-23
5.44967E-02 6.08279E-23
5.64946E-02 5.63480E-23
5.85262E-02 5.22673E-23
6.05914E-02 4.85440E-23
6.26901E-02 4.51415E-23
6.48222E-02 4.20275E-23
6.69873E-02 3.91734E-23
6.91854E-02 3.65537E-23
7.14163E-02 3.41459E-23
7.36799E-02 3.19300E-23
7.59760E-02 2.98879E-23
7.83043E-02 2.80038E-23
8.06647E-02 2.62634E-23
8.30571E-02 2.46537E-23
8.54812E-02 2.31633E-23
8.79369E-02 2.17818E-23
9.04240E-02 2.04999E-23
9.29422E-02 1.93092E-23
9.54915E-02 1.82021E-23
9.80716E-02 1.71716E-23
1.00682E-01 1.62117E-23
1.03323E-01 1.53166E-23
1.05995E-01 1.44811E-23
1.08696E-01 1.37007E-23
1.11427E-01 1.29711E-23
1.14188E-01 1.22883E-23
1.16978E-01 1.16490E-23
1.19797E-01 1.10497E-23
1.22645E-01 1.04877E-23
1.25522E-01 9.96010E-24
1.28428E-01 9.46452E-24
1.31361E-01 8.99867E-24
1.34323E-01 8.56046E-24
1.37313E-01 8.14795E-24
1.40330E-01 7.75938E-24
1.43375E-01 7.39314E-24
1.46447E-01 7.04769E-24
1.49545E-01 6.72168E-24
1.52671E-01 6.41381E-24
1.55823E-01 6.12289E-24
1.59001E-01 5.84785E-24
1.62205E-01 5.58765E-24
1.65435E-01 5.34136E-24
1.68690E-01 5.10812E-24
1.71970E-01 4.88710E-24
1.75276E-01 4.67756E-24
1.78606E-01 4.47880E-24
1.81961E-01 4.29017E-24
1.85340E-01 4.11106E-24
1.88743E-01 3.94092E-24
1.92169E-01 3.77921E-24
1.95619E-01 3.62545E-24
1.99092E-01 3.47917E-24
2.02589E-01 3.33996E-24
2.06107E-01 3.20740E-24
2.09649E-01 3.08114E-24
2.13212E-01 2.96082E-24
2.16797E-01 2.84611E-24
2.20404E-01 2.73670E-24
2.24032E-01 2.63232E-24
2.27680E-01 2.53268E-24
2.31350E-01 2.43752E-24
2.35040E-01 2.34661E-24
2.38751E-01 2.25974E-24
2.42481E-01 2.17669E-24
2.46231E-01 2.09727E-24
2.50000E-01 2.02130E-24
2.53788E-01 1.94859E-24
2.57595E-01 1.87899E-24
2.61421E-01 1.81233E-24
2.65264E-01 1.74848E-24
2.69126E-01 1.68729E-24
2.73005E-01 1.62864E-24
2.76901E-01 1.57240E-24
2.80814E-01 1.51845E-24
2.84744E-01 1.46670E-24
2.88691E-01 1.41702E-24
2.92653E-01 1.36933E-24
2.96632E-01 1.32353E-24
3.00625E-01 1.27953E-24
3.04634E-01 1.23726E-24
3.08658E-01 1.19663E-24
3.12697E-01 1.15756E-24
3.16749E-01 1.12000E-24
3.20816E-01 1.08386E-24
3.24896E-01 1.04909E-24
3.28990E-01 1.01563E-24
3.33097E-01 9.83415E-25
3.37216E-01 9.52395E-25
3.41348E-01 9.22518E-25
3.45492E-01 8.93735E-25
3.49647E-01 8.65999E-25
3.53814E-01 8.39266E-25
3.57992E-01 8.13492E-25
3.62181E-01 7.88639E-25
3.66381E-01 7.64668E-25
3.70590E-01 7.41541E-25
3.74810E-01 7.19226E-25
3.79039E-01 6.97687E-25
3.83277E-01 6.76895E-25
3.87524E-01 6.56818E-25
3.91780E-01 6.37429E-25
3.96044E-01 6.18699E-25
4.00316E-01 6.00603E-25
4.04596E-01 5.83115E-25
4.08882E-01 5.66212E-25
4.13176E-01 5.49871E-25
4.17476E-01 5.34070E-25
4.21783E-01 5.18789E-25
4.26095E-01 5.04008E-25
4.30413E-01 4.89707E-25
4.34737E-01 4.75868E-25
4.39065E-01 4.62475E-25
4.43398E-01 4.49510E-25
4.47736E-01 4.36958E-25
4.52077E-01 4.24803E-25
4.56422E-01 4.13030E-25
4.60770E-01 4.01627E-25
4.65122E-01 3.90578E-25
4.69476E-01 3.79872E-25
4.73832E-01 3.69497E-25
4.78190E-01 3.59439E-25
4.82550E-01 3.49689E-25
4.86912E-01 3.40235E-25
4.91274E-01 3.31066E-25
4.95637E-01 3.22173E-25
5.00000E-01 3.13547E-25
5.04363E-01 3.05177E-25
5.08726E-01 2.97055E-25
5.13088E-01 2.89173E-25
5.17450E-01 2.81522E-25
5.21810E-01 2.74095E-25
5.26168E-01 2.66884E-25
5.30524E-01 2.59881E-25
5.34878E-01 2.53081E-25
5.39230E-01 2.46475E-25
5.43578E-01 2.40058E-25
5.47923E-01 2.33823E-25
5.52264E-01 2.27765E-25
5.56602E-01 2.21877E-25
5.60935E-01 2.16154E-25
5.65263E-01 2.10591E-25
5.69587E-01 2.05183E-25
5.73905E-01 1.99925E-25
5.78217E-01 1.94811E-25
5.82524E-01 1.89838E-25
5.86824E-01 1.85000E-25
5.91118E-01 1.80295E-25
5.95404E-01 1.75717E-25
5.99684E-01 1.71262E-25
6.03956E-01 1.66927E-25
6.08220E-01 1.62708E-25
6.12476E-01 1.58602E-25
6.16723E-01 1.54605E-25
6.20961E-01 1.50713E-25
6.25190E-01 1.46924E-25
6.29410E-01 1.43235E-25
6.33619E-01 1.39642E-25
6.37819E-01 1.36143E-25
6.42008E-01 1.32734E-25
6.46186E-01 1.29414E-25
6.50353E-01 1.26179E-25
6.54508E-01 1.23027E-25
6.58652E-01 1.19956E-25
6.62784E-01 1.16963E-25
6.66903E-01 1.14046E-25
6.71010E-01 1.11203E-25
6.75104E-01 1.08431E-25
6.79184E-01 1.05730E-25
6.83251E-01 1.03095E-25
6.87303E-01 1.00527E-25
6.91342E-01 9.80226E-26
6.95366E-01 9.55803E-26
6.99375E-01 9.31983E-26
7.03368E-01 9.08750E-26
7.07347E-01 8.86089E-26
7.11309E-01 8.63982E-26
7.15256E-01 8.42414E-26
7.19186E-01 8.21372E-26
7.23099E-01 8.00841E-26
7.26995E-01 7.80806E-26
7.30874E-01 7.61255E-26
7.34736E-01 7.42174E-26
7.38579E-01 7.23551E-26
7.42405E-01 7.05374E-26
7.46212E-01 6.87630E-26
7.50000E-01 6.70309E-26
7.53769E-01 6.53399E-26
7.57519E-01 6.36890E-26
7.61249E-01 6.20771E-26
7.64960E-01 6.05031E-26
7.68650E-01 5.89662E-26
7.72320E-01 5.74653E-26
7.75968E-01 5.59995E-26
7.79596E-01 5.45680E-26
7.83203E-01 5.31699E-26
7.86788E-01 5.18042E-26
7.90351E-01 5.04703E-26
7.93893E-01 4.91673E-26
7.97411E-01 4.78944E-26
8.00908E-01 4.66509E-26
8.04381E-01 4.54360E-26
8.07831E-01 4.42492E-26
8.11257E-01 4.30895E-26
8.14660E-01 4.19565E-26
8.18039E-01 4.08494E-26
8.21394E-01 3.97677E-26
8.24724E-01 3.87107E-26
8.28030E-01 3.76778E-26
8.31310E-01 3.66684E-26
8.34565E-01 3.56821E-26
8.37795E-01 3.47182E-26
8.40999E-01 3.37762E-26
8.44177E-01 3.28557E-26
8.47329E-01 3.19560E-26
8.50455E-01 3.10768E-26
8.53553E-01 3.02175E-26
8.56625E-01 2.93777E-26
8.59670E-01 2.85570E-26
8.62687E-01 2.77549E-26
8.65677E-01 2.69710E-26
8.68639E-01 2.62050E-26
8.71572E-01 2.54563E-26
8.74478E-01 2.47246E-26
8.77355E-01 2.40095E-26
8.80203E-01 2.33108E-26
8.83022E-01 2.26279E-26
8.85812E-01 2.19607E-26
8.88573E-01 2.13087E-26
8.91304E-01 2.06715E-26
8.94005E-01 2.00490E-26
8.96677E-01 1.94408E-26
8.99318E-01 1.88466E-26
9.01928E-01 1.82660E-26
9.04508E-01 1.76989E-26
9.07058E-01 1.71449E-26
9.09576E-01 1.66038E-26
9.12063E-01 1.60753E-26
9.14519E-01 1.55592E-26
9.16943E-01 1.50551E-26
9.19335E-01 1.45630E-26
9.21696E-01 1.40825E-26
9.24024E-01 1.36134E-26
9.26320E-01 1.31554E-26
9.28584E-01 1.27085E-26
9.30815E-01 1.22724E-26
9.33013E-01 1.18468E-26
9.35178E-01 1.14316E-26
9.37310E-01 1.10265E-26
9.39409E-01 1.06315E-26
9.41474E-01 1.02463E-26
9.43505E-01 9.87068E-27
9.45503E-01 9.50458E-27
9.47467E-01 9.14778E-27
9.49397E-01 8.80012E-27
9.51293E-01 8.46146E-27
9.53154E-01 8.13163E-27
9.54981E-01 7.81050E-27
9.56773E-01 7.49791E-27
9.58530E-01 7.19374E-27
9.60252E-01 6.89785E-27
9.61940E-01 6.61010E-27
9.63592E-01 6.33037E-27
9.65209E-01 6.05855E-27
9.66790E-01 5.79450E-27
9.68336E-01 5.53813E-27
9.69846E-01 5.28930E-27
9.71321E-01 5.04793E-27
9.72759E-01 4.81390E-27
9.74162E-01 4.58711E-27
9.75528E-01 4.36747E-27
9.76858E-01 4.15488E-27
9.78152E-01 3.94926E-27
9.79410E-01 3.75051E-27
9.80631E-01 3.55855E-27
9.81815E-01 3.37330E-27
9.82963E-01 3.19468E-27
9.84074E-01 3.02262E-27
9.85148E-01 2.85704E-27
9.86185E-01 2.69788E-27
9.87185E-01 2.54506E-27
9.88148E-01 2.39853E-27
9.89074E-01 2.25821E-27
9.89962E-01 2.12407E-27
9.90814E-01 1.99603E-27
9.91627E-01 1.87404E-27
9.92404E-01 1.75806E-27
9.93143E-01 1.64804E-27
9.93844E-01 1.54393E-27
9.94508E-01 1.44568E-27
9.95134E-01 1.35327E-27
9.95722E-01 1.26664E-27
9.96273E-01 1.18576E-27
9.96786E-01 1.11061E-27
9.97261E-01 1.04115E-27
9.97698E-01 9.77345E-28
9.98097E-01 9.19178E-28
9.98459E-01 8.66622E-28
9.98782E-01 8.19655E-28
9.99067E-01 7.78259E-28
9.99315E-01 7.42417E-28
9.99524E-01 7.12113E-28
9.99695E-01 6.87337E-28
9.99829E-01 6.68076E-28
9.99924E-01 6.54324E-28
9.99981E-01 6.46075E-28
1.00000E+00 6.43327E-28
