 #
 # Subroutine ELSEPA. Elastic scattering of electrons and positrons
 #                    by neutral atoms and positive ions
 #
 # Projectile: positron
 # Kinetic energy = 2.00000E+06 eV = 7.34987E+04 a.u.
 #
 # WARNING: High-energy factorization with free-atom DF screening.
 #          Absorption, polarization and exchange corrections are
 #          switched off.
 #          Phase shifts are calculated for the bare nucleus.
 #          Scattering amplitudes are not evaluated.
 #
 # Element: Tm,  Z =  69,  atomic weight = 1.68934E+02 g/mol
 #
 # Nuclear model: Fermi distribution
 #                Average radius = 5.91502E-13 cm
 #                Skin thickness = 5.46000E-14 cm
 #
 # Number of electrons = 69
 #
 # Total elastic cross section = 7.30928E-18 cm**2 = 2.61019E-01 a0**2
 # 1st transport cross section = 8.40344E-22 cm**2 = 3.00092E-05 a0**2
 # 2nd transport cross section = 2.39053E-21 cm**2 = 8.53674E-05 a0**2
 #
 #
 # Differential cross section:                       MU=(1-COS(THETA))/2
 #
 #  THETA        MU          DCS          DCS        Sherman      error
 #  (deg)                 (cm**2/sr)   (a0**2/sr)    function
 #----------------------------------------------------------------------
0.00000E+00 4.37797E-13
7.61557E-13 4.37796E-13
1.18994E-12 4.37795E-13
1.71346E-12 4.37794E-13
2.33225E-12 4.37793E-13
3.04617E-12 4.37792E-13
3.85530E-12 4.37790E-13
4.75964E-12 4.37789E-13
5.75917E-12 4.37787E-13
6.85391E-12 4.37785E-13
8.04379E-12 4.37783E-13
9.32893E-12 4.37781E-13
1.07092E-11 4.37779E-13
1.21847E-11 4.37777E-13
1.37554E-11 4.37774E-13
1.54213E-11 4.37771E-13
1.71823E-11 4.37769E-13
1.90386E-11 4.37766E-13
2.09900E-11 4.37763E-13
2.30367E-11 4.37759E-13
2.51785E-11 4.37756E-13
2.74156E-11 4.37753E-13
2.97478E-11 4.37749E-13
3.21752E-11 4.37745E-13
3.46979E-11 4.37741E-13
3.73157E-11 4.37737E-13
4.00286E-11 4.37733E-13
4.28368E-11 4.37728E-13
4.57402E-11 4.37724E-13
4.87388E-11 4.37719E-13
5.18325E-11 4.37714E-13
5.50215E-11 4.37709E-13
5.83057E-11 4.37704E-13
6.16850E-11 4.37699E-13
6.51595E-11 4.37693E-13
6.87293E-11 4.37688E-13
7.23943E-11 4.37682E-13
7.61544E-11 4.37676E-13
1.18991E-10 4.37610E-13
1.71347E-10 4.37529E-13
2.33223E-10 4.37433E-13
3.04617E-10 4.37323E-13
3.85531E-10 4.37199E-13
4.75965E-10 4.37060E-13
5.75917E-10 4.36907E-13
6.85389E-10 4.36739E-13
8.04380E-10 4.36557E-13
9.32891E-10 4.36361E-13
1.07092E-09 4.36151E-13
1.21847E-09 4.35926E-13
1.37554E-09 4.35687E-13
1.54213E-09 4.35433E-13
1.71823E-09 4.35166E-13
1.90386E-09 4.34885E-13
2.09900E-09 4.34589E-13
2.30367E-09 4.34279E-13
2.51785E-09 4.33956E-13
2.74156E-09 4.33619E-13
2.97478E-09 4.33267E-13
3.21752E-09 4.32902E-13
3.46978E-09 4.32524E-13
3.73156E-09 4.32131E-13
4.00286E-09 4.31725E-13
4.28368E-09 4.31306E-13
4.57402E-09 4.30873E-13
4.87388E-09 4.30427E-13
5.18326E-09 4.29967E-13
5.50215E-09 4.29494E-13
5.83057E-09 4.29008E-13
6.16850E-09 4.28509E-13
6.51596E-09 4.27997E-13
6.87293E-09 4.27471E-13
7.23942E-09 4.26934E-13
7.61544E-09 4.26383E-13
1.18991E-08 4.20195E-13
1.71347E-08 4.12838E-13
2.33223E-08 4.04425E-13
3.04617E-08 3.95078E-13
3.85531E-08 3.84932E-13
4.75965E-08 3.74149E-13
5.75917E-08 3.62761E-13
6.85389E-08 3.51041E-13
8.04380E-08 3.38982E-13
9.32891E-08 3.26802E-13
1.07092E-07 3.14552E-13
1.21847E-07 3.02333E-13
1.37554E-07 2.90289E-13
1.54213E-07 2.78370E-13
1.71823E-07 2.66831E-13
1.90386E-07 2.55489E-13
2.09900E-07 2.44636E-13
2.30367E-07 2.34075E-13
2.51785E-07 2.23990E-13
2.74156E-07 2.14299E-13
2.97478E-07 2.05041E-13
3.21752E-07 1.96245E-13
3.46978E-07 1.87828E-13
3.73156E-07 1.79906E-13
4.00286E-07 1.72310E-13
4.28368E-07 1.65210E-13
4.57402E-07 1.58422E-13
4.87388E-07 1.52044E-13
5.18325E-07 1.45991E-13
5.50215E-07 1.40275E-13
5.83057E-07 1.34879E-13
6.16850E-07 1.29762E-13
6.51596E-07 1.24945E-13
6.87293E-07 1.20363E-13
7.23942E-07 1.16054E-13
7.61543E-07 1.11953E-13
1.18991E-06 8.07321E-14
1.71347E-06 6.07843E-14
2.33223E-06 4.69086E-14
3.04617E-06 3.67433E-14
3.85531E-06 2.90256E-14
4.75964E-06 2.28911E-14
5.75916E-06 1.86472E-14
6.85388E-06 1.50769E-14
8.04378E-06 1.24143E-14
9.32888E-06 1.02699E-14
1.07092E-05 8.56785E-15
1.21846E-05 7.21737E-15
1.37553E-05 6.09712E-15
1.54212E-05 5.21125E-15
1.71822E-05 4.45000E-15
1.90385E-05 3.84168E-15
2.09899E-05 3.31607E-15
2.30365E-05 2.88582E-15
2.51783E-05 2.51486E-15
2.74153E-05 2.20128E-15
2.97475E-05 1.93369E-15
3.21749E-05 1.70247E-15
3.46974E-05 1.50646E-15
3.73152E-05 1.33436E-15
4.00281E-05 1.18849E-15
4.28362E-05 1.05902E-15
4.57395E-05 9.48035E-16
4.87380E-05 8.50144E-16
5.18317E-05 7.64801E-16
5.50205E-05 6.89757E-16
5.83045E-05 6.23581E-16
6.16838E-05 5.65417E-16
6.51582E-05 5.13688E-16
6.87277E-05 4.68129E-16
7.23925E-05 4.27303E-16
7.61524E-05 3.91136E-16
9.21439E-05 2.80057E-16
1.09658E-04 2.06228E-16
1.28695E-04 1.55657E-16
1.49255E-04 1.19938E-16
1.71338E-04 9.39694E-17
1.94942E-04 7.46424E-17
2.20070E-04 6.00180E-17
2.46720E-04 4.87943E-17
2.74892E-04 4.00673E-17
3.04586E-04 3.31925E-17
3.35803E-04 2.77184E-17
3.68542E-04 2.33193E-17
4.02802E-04 1.97410E-17
4.38585E-04 1.68340E-17
4.75889E-04 1.44431E-17
5.14715E-04 1.24564E-17
5.55063E-04 1.08053E-17
5.96931E-04 9.41159E-18
6.40321E-04 8.24161E-18
6.85233E-04 7.24216E-18
7.31665E-04 6.39337E-18
7.79618E-04 5.66320E-18
8.29092E-04 5.03527E-18
8.80086E-04 4.49179E-18
9.32601E-04 4.01945E-18
9.86636E-04 3.60815E-18
1.04219E-03 3.24733E-18
1.09927E-03 2.93138E-18
1.15786E-03 2.65194E-18
1.21797E-03 2.40570E-18
1.27961E-03 2.18687E-18
1.34276E-03 1.99264E-18
1.40743E-03 1.81934E-18
1.47362E-03 1.66445E-18
1.54133E-03 1.52576E-18
1.61056E-03 1.40105E-18
1.68131E-03 1.28899E-18
1.75357E-03 1.18766E-18
1.82735E-03 1.09627E-18
1.90265E-03 1.01331E-18
1.97947E-03 9.38129E-19
2.05780E-03 8.69718E-19
2.13765E-03 8.07430E-19
2.21902E-03 7.50608E-19
2.30190E-03 6.98647E-19
2.38630E-03 6.51136E-19
2.47222E-03 6.07517E-19
2.55965E-03 5.67538E-19
2.64859E-03 5.30714E-19
2.73905E-03 4.96859E-19
2.83103E-03 4.65621E-19
2.92452E-03 4.36800E-19
3.01952E-03 4.10162E-19
3.11604E-03 3.85506E-19
3.21407E-03 3.62679E-19
3.31362E-03 3.41488E-19
3.41468E-03 3.21837E-19
3.51725E-03 3.03545E-19
3.62133E-03 2.86545E-19
3.72692E-03 2.70700E-19
3.83403E-03 2.55936E-19
3.94265E-03 2.42156E-19
4.05278E-03 2.29284E-19
4.16442E-03 2.17256E-19
4.27757E-03 2.05994E-19
4.39223E-03 1.95457E-19
4.50840E-03 1.85572E-19
4.62608E-03 1.76307E-19
4.74527E-03 1.67604E-19
4.86597E-03 1.59431E-19
4.98817E-03 1.51746E-19
5.11188E-03 1.44516E-19
5.23711E-03 1.37710E-19
5.36383E-03 1.31295E-19
5.49207E-03 1.25251E-19
5.62181E-03 1.19544E-19
5.75306E-03 1.14160E-19
5.88581E-03 1.09071E-19
6.02007E-03 1.04262E-19
6.15583E-03 9.97132E-20
6.29310E-03 9.54085E-20
6.43187E-03 9.13324E-20
6.57214E-03 8.74696E-20
6.71392E-03 8.38088E-20
6.85720E-03 8.03348E-20
7.00198E-03 7.70394E-20
7.14827E-03 7.39087E-20
7.29605E-03 7.09357E-20
7.44534E-03 6.81090E-20
7.59612E-03 6.54212E-20
7.97965E-03 5.92562E-20
8.37255E-03 5.37966E-20
8.77480E-03 4.89476E-20
9.18641E-03 4.46298E-20
9.60736E-03 4.07751E-20
1.00376E-02 3.73253E-20
1.04773E-02 3.42306E-20
1.09262E-02 3.14483E-20
1.13844E-02 2.89412E-20
1.18520E-02 2.66776E-20
1.23288E-02 2.46297E-20
1.28150E-02 2.27732E-20
1.33104E-02 2.10873E-20
1.38150E-02 1.95536E-20
1.43290E-02 1.81558E-20
1.48521E-02 1.68800E-20
1.53845E-02 1.57135E-20
1.59262E-02 1.46453E-20
1.64770E-02 1.36658E-20
1.70371E-02 1.27661E-20
1.76063E-02 1.19388E-20
1.81848E-02 1.11769E-20
1.87724E-02 1.04743E-20
1.93692E-02 9.82571E-21
1.99751E-02 9.22612E-21
2.05901E-02 8.67122E-21
2.12143E-02 8.15707E-21
2.18476E-02 7.68016E-21
2.24900E-02 7.23730E-21
2.31415E-02 6.82562E-21
2.38021E-02 6.44255E-21
2.44717E-02 6.08574E-21
2.51504E-02 5.75308E-21
2.58382E-02 5.44263E-21
2.65349E-02 5.15264E-21
2.72407E-02 4.88154E-21
2.79555E-02 4.62786E-21
2.86793E-02 4.39029E-21
2.94120E-02 4.16762E-21
3.01537E-02 3.95875E-21
3.09043E-02 3.76267E-21
3.16639E-02 3.57846E-21
3.24324E-02 3.40527E-21
3.32098E-02 3.24232E-21
3.39961E-02 3.08890E-21
3.47912E-02 2.94436E-21
3.55952E-02 2.80807E-21
3.64081E-02 2.67950E-21
3.72297E-02 2.55812E-21
3.80602E-02 2.44345E-21
3.88995E-02 2.33506E-21
3.97476E-02 2.23257E-21
4.06044E-02 2.13555E-21
4.14700E-02 2.04370E-21
4.23443E-02 1.95667E-21
4.32273E-02 1.87417E-21
4.41190E-02 1.79592E-21
4.50194E-02 1.72166E-21
4.59284E-02 1.65116E-21
4.68461E-02 1.58418E-21
4.87074E-02 1.45999E-21
5.06030E-02 1.34759E-21
5.25328E-02 1.24567E-21
5.44967E-02 1.15309E-21
5.64946E-02 1.06884E-21
5.85262E-02 9.92049E-22
6.05914E-02 9.21941E-22
6.26901E-02 8.57837E-22
6.48222E-02 7.99133E-22
6.69873E-02 7.45298E-22
6.91854E-02 6.95858E-22
7.14163E-02 6.50393E-22
7.36799E-02 6.08526E-22
7.59760E-02 5.69926E-22
7.83043E-02 5.34293E-22
8.06647E-02 5.01360E-22
8.30571E-02 4.70887E-22
8.54812E-02 4.42659E-22
8.79369E-02 4.16482E-22
9.04240E-02 3.92180E-22
9.29422E-02 3.69597E-22
9.54915E-02 3.48589E-22
9.80716E-02 3.29028E-22
1.00682E-01 3.10797E-22
1.03323E-01 2.93790E-22
1.05995E-01 2.77911E-22
1.08696E-01 2.63071E-22
1.11427E-01 2.49190E-22
1.14188E-01 2.36197E-22
1.16978E-01 2.24024E-22
1.19797E-01 2.12611E-22
1.22645E-01 2.01902E-22
1.25522E-01 1.91846E-22
1.28428E-01 1.82396E-22
1.31361E-01 1.73509E-22
1.34323E-01 1.65147E-22
1.37313E-01 1.57272E-22
1.40330E-01 1.49851E-22
1.43375E-01 1.42854E-22
1.46447E-01 1.36252E-22
1.49545E-01 1.30019E-22
1.52671E-01 1.24130E-22
1.55823E-01 1.18564E-22
1.59001E-01 1.13300E-22
1.62205E-01 1.08318E-22
1.65435E-01 1.03600E-22
1.68690E-01 9.91311E-23
1.71970E-01 9.48947E-23
1.75276E-01 9.08768E-23
1.78606E-01 8.70643E-23
1.81961E-01 8.34447E-23
1.85340E-01 8.00067E-23
1.88743E-01 7.67395E-23
1.92169E-01 7.36332E-23
1.95619E-01 7.06785E-23
1.99092E-01 6.78666E-23
2.02589E-01 6.51896E-23
2.06107E-01 6.26397E-23
2.09649E-01 6.02099E-23
2.13212E-01 5.78936E-23
2.16797E-01 5.56845E-23
2.20404E-01 5.35768E-23
2.24032E-01 5.15651E-23
2.27680E-01 4.96441E-23
2.31350E-01 4.78092E-23
2.35040E-01 4.60557E-23
2.38751E-01 4.43794E-23
2.42481E-01 4.27765E-23
2.46231E-01 4.12429E-23
2.50000E-01 3.97754E-23
2.53788E-01 3.83704E-23
2.57595E-01 3.70250E-23
2.61421E-01 3.57361E-23
2.65264E-01 3.45009E-23
2.69126E-01 3.33168E-23
2.73005E-01 3.21814E-23
2.76901E-01 3.10922E-23
2.80814E-01 3.00472E-23
2.84744E-01 2.90441E-23
2.88691E-01 2.80810E-23
2.92653E-01 2.71560E-23
2.96632E-01 2.62674E-23
3.00625E-01 2.54135E-23
3.04634E-01 2.45927E-23
3.08658E-01 2.38035E-23
3.12697E-01 2.30444E-23
3.16749E-01 2.23142E-23
3.20816E-01 2.16114E-23
3.24896E-01 2.09350E-23
3.28990E-01 2.02838E-23
3.33097E-01 1.96566E-23
3.37216E-01 1.90525E-23
3.41348E-01 1.84704E-23
3.45492E-01 1.79093E-23
3.49647E-01 1.73685E-23
3.53814E-01 1.68470E-23
3.57992E-01 1.63440E-23
3.62181E-01 1.58588E-23
3.66381E-01 1.53907E-23
3.70590E-01 1.49388E-23
3.74810E-01 1.45026E-23
3.79039E-01 1.40815E-23
3.83277E-01 1.36747E-23
3.87524E-01 1.32818E-23
3.91780E-01 1.29022E-23
3.96044E-01 1.25354E-23
4.00316E-01 1.21808E-23
4.04596E-01 1.18380E-23
4.08882E-01 1.15065E-23
4.13176E-01 1.11859E-23
4.17476E-01 1.08758E-23
4.21783E-01 1.05757E-23
4.26095E-01 1.02853E-23
4.30413E-01 1.00043E-23
4.34737E-01 9.73221E-24
4.39065E-01 9.46878E-24
4.43398E-01 9.21366E-24
4.47736E-01 8.96655E-24
4.52077E-01 8.72716E-24
4.56422E-01 8.49520E-24
4.60770E-01 8.27040E-24
4.65122E-01 8.05252E-24
4.69476E-01 7.84129E-24
4.73832E-01 7.63649E-24
4.78190E-01 7.43788E-24
4.82550E-01 7.24524E-24
4.86912E-01 7.05837E-24
4.91274E-01 6.87707E-24
4.95637E-01 6.70114E-24
5.00000E-01 6.53040E-24
5.04363E-01 6.36467E-24
5.08726E-01 6.20377E-24
5.13088E-01 6.04755E-24
5.17450E-01 5.89585E-24
5.21810E-01 5.74850E-24
5.26168E-01 5.60538E-24
5.30524E-01 5.46633E-24
5.34878E-01 5.33123E-24
5.39230E-01 5.19994E-24
5.43578E-01 5.07233E-24
5.47923E-01 4.94829E-24
5.52264E-01 4.82771E-24
5.56602E-01 4.71046E-24
5.60935E-01 4.59644E-24
5.65263E-01 4.48556E-24
5.69587E-01 4.37771E-24
5.73905E-01 4.27278E-24
5.78217E-01 4.17070E-24
5.82524E-01 4.07138E-24
5.86824E-01 3.97472E-24
5.91118E-01 3.88064E-24
5.95404E-01 3.78907E-24
5.99684E-01 3.69993E-24
6.03956E-01 3.61314E-24
6.08220E-01 3.52863E-24
6.12476E-01 3.44633E-24
6.16723E-01 3.36618E-24
6.20961E-01 3.28811E-24
6.25190E-01 3.21206E-24
6.29410E-01 3.13796E-24
6.33619E-01 3.06577E-24
6.37819E-01 2.99542E-24
6.42008E-01 2.92687E-24
6.46186E-01 2.86005E-24
6.50353E-01 2.79492E-24
6.54508E-01 2.73142E-24
6.58652E-01 2.66952E-24
6.62784E-01 2.60917E-24
6.66903E-01 2.55032E-24
6.71010E-01 2.49292E-24
6.75104E-01 2.43695E-24
6.79184E-01 2.38235E-24
6.83251E-01 2.32909E-24
6.87303E-01 2.27714E-24
6.91342E-01 2.22645E-24
6.95366E-01 2.17699E-24
6.99375E-01 2.12873E-24
7.03368E-01 2.08164E-24
7.07347E-01 2.03567E-24
7.11309E-01 1.99081E-24
7.15256E-01 1.94702E-24
7.19186E-01 1.90427E-24
7.23099E-01 1.86254E-24
7.26995E-01 1.82180E-24
7.30874E-01 1.78202E-24
7.34736E-01 1.74317E-24
7.38579E-01 1.70524E-24
7.42405E-01 1.66819E-24
7.46212E-01 1.63201E-24
7.50000E-01 1.59667E-24
7.53769E-01 1.56216E-24
7.57519E-01 1.52844E-24
7.61249E-01 1.49550E-24
7.64960E-01 1.46332E-24
7.68650E-01 1.43188E-24
7.72320E-01 1.40116E-24
7.75968E-01 1.37114E-24
7.79596E-01 1.34181E-24
7.83203E-01 1.31314E-24
7.86788E-01 1.28513E-24
7.90351E-01 1.25776E-24
7.93893E-01 1.23100E-24
7.97411E-01 1.20485E-24
8.00908E-01 1.17929E-24
8.04381E-01 1.15430E-24
8.07831E-01 1.12988E-24
8.11257E-01 1.10600E-24
8.14660E-01 1.08266E-24
8.18039E-01 1.05985E-24
8.21394E-01 1.03754E-24
8.24724E-01 1.01573E-24
8.28030E-01 9.94409E-25
8.31310E-01 9.73562E-25
8.34565E-01 9.53180E-25
8.37795E-01 9.33250E-25
8.40999E-01 9.13764E-25
8.44177E-01 8.94711E-25
8.47329E-01 8.76081E-25
8.50455E-01 8.57865E-25
8.53553E-01 8.40052E-25
8.56625E-01 8.22636E-25
8.59670E-01 8.05605E-25
8.62687E-01 7.88953E-25
8.65677E-01 7.72670E-25
8.68639E-01 7.56749E-25
8.71572E-01 7.41182E-25
8.74478E-01 7.25961E-25
8.77355E-01 7.11078E-25
8.80203E-01 6.96527E-25
8.83022E-01 6.82301E-25
8.85812E-01 6.68392E-25
8.88573E-01 6.54795E-25
8.91304E-01 6.41502E-25
8.94005E-01 6.28507E-25
8.96677E-01 6.15804E-25
8.99318E-01 6.03388E-25
9.01928E-01 5.91252E-25
9.04508E-01 5.79391E-25
9.07058E-01 5.67800E-25
9.09576E-01 5.56472E-25
9.12063E-01 5.45404E-25
9.14519E-01 5.34590E-25
9.16943E-01 5.24024E-25
9.19335E-01 5.13703E-25
9.21696E-01 5.03621E-25
9.24024E-01 4.93775E-25
9.26320E-01 4.84159E-25
9.28584E-01 4.74770E-25
9.30815E-01 4.65604E-25
9.33013E-01 4.56655E-25
9.35178E-01 4.47922E-25
9.37310E-01 4.39398E-25
9.39409E-01 4.31082E-25
9.41474E-01 4.22970E-25
9.43505E-01 4.15057E-25
9.45503E-01 4.07340E-25
9.47467E-01 3.99817E-25
9.49397E-01 3.92484E-25
9.51293E-01 3.85338E-25
9.53154E-01 3.78376E-25
9.54981E-01 3.71595E-25
9.56773E-01 3.64992E-25
9.58530E-01 3.58565E-25
9.60252E-01 3.52310E-25
9.61940E-01 3.46225E-25
9.63592E-01 3.40308E-25
9.65209E-01 3.34557E-25
9.66790E-01 3.28968E-25
9.68336E-01 3.23539E-25
9.69846E-01 3.18269E-25
9.71321E-01 3.13156E-25
9.72759E-01 3.08196E-25
9.74162E-01 3.03388E-25
9.75528E-01 2.98731E-25
9.76858E-01 2.94222E-25
9.78152E-01 2.89859E-25
9.79410E-01 2.85641E-25
9.80631E-01 2.81566E-25
9.81815E-01 2.77633E-25
9.82963E-01 2.73840E-25
9.84074E-01 2.70184E-25
9.85148E-01 2.66666E-25
9.86185E-01 2.63284E-25
9.87185E-01 2.60035E-25
9.88148E-01 2.56920E-25
9.89074E-01 2.53936E-25
9.89962E-01 2.51083E-25
9.90814E-01 2.48359E-25
9.91627E-01 2.45763E-25
9.92404E-01 2.43295E-25
9.93143E-01 2.40953E-25
9.93844E-01 2.38737E-25
9.94508E-01 2.36645E-25
9.95134E-01 2.34677E-25
9.95722E-01 2.32832E-25
9.96273E-01 2.31110E-25
9.96786E-01 2.29509E-25
9.97261E-01 2.28029E-25
9.97698E-01 2.26670E-25
9.98097E-01 2.25430E-25
9.98459E-01 2.24310E-25
9.98782E-01 2.23310E-25
9.99067E-01 2.22427E-25
9.99315E-01 2.21663E-25
9.99524E-01 2.21017E-25
9.99695E-01 2.20489E-25
9.99829E-01 2.20079E-25
9.99924E-01 2.19786E-25
9.99981E-01 2.19610E-25
1.00000E+00 2.19551E-25
