 #
 # Subroutine ELSEPA. Elastic scattering of electrons and positrons
 #                    by neutral atoms and positive ions
 #
 # Projectile: positron
 # Kinetic energy = 4.00000E+08 eV = 1.46997E+07 a.u.
 #
 # WARNING: High-energy factorization with free-atom DF screening.
 #          Absorption, polarization and exchange corrections are
 #          switched off.
 #          Phase shifts are calculated for the bare nucleus.
 #          Scattering amplitudes are not evaluated.
 #
 # Element: Tm,  Z =  69,  atomic weight = 1.68934E+02 g/mol
 #
 # Nuclear model: Fermi distribution
 #                Average radius = 5.91502E-13 cm
 #                Skin thickness = 5.46000E-14 cm
 #
 # Number of electrons = 69
 #
 # Total elastic cross section = 7.01707E-18 cm**2 = 2.50584E-01 a0**2
 # 1st transport cross section = 5.62292E-26 cm**2 = 2.00798E-09 a0**2
 # 2nd transport cross section = 1.68583E-25 cm**2 = 6.02019E-09 a0**2
 #
 #
 # Differential cross section:                       MU=(1-COS(THETA))/2
 #
 #  THETA        MU          DCS          DCS        Sherman      error
 #  (deg)                 (cm**2/sr)   (a0**2/sr)    function
 #----------------------------------------------------------------------
0.00000E+00 1.11380E-08
7.61557E-13 1.03968E-08
1.18994E-12 1.00162E-08
1.71346E-12 9.58366E-09
2.33225E-12 9.11130E-09
3.04617E-12 8.61580E-09
3.85530E-12 8.11024E-09
4.75964E-12 7.60450E-09
5.75917E-12 7.10784E-09
6.85391E-12 6.63149E-09
8.04379E-12 6.17758E-09
9.32893E-12 5.74916E-09
1.07092E-11 5.34917E-09
1.21847E-11 4.98049E-09
1.37554E-11 4.63982E-09
1.54213E-11 4.32649E-09
1.71823E-11 4.04050E-09
1.90386E-11 3.77974E-09
2.09900E-11 3.54128E-09
2.30367E-11 3.32345E-09
2.51785E-11 3.12527E-09
2.74156E-11 2.94399E-09
2.97478E-11 2.77789E-09
3.21752E-11 2.62560E-09
3.46979E-11 2.48574E-09
3.73157E-11 2.35678E-09
4.00286E-11 2.23770E-09
4.28368E-11 2.12743E-09
4.57402E-11 2.02489E-09
4.87388E-11 1.92949E-09
5.18325E-11 1.84060E-09
5.50215E-11 1.75722E-09
5.83057E-11 1.67898E-09
6.16850E-11 1.60559E-09
6.51595E-11 1.53665E-09
6.87293E-11 1.47118E-09
7.23943E-11 1.40945E-09
7.61544E-11 1.35116E-09
1.18991E-10 9.04148E-10
1.71347E-10 6.13568E-10
2.33223E-10 4.36601E-10
3.04617E-10 3.14651E-10
3.85531E-10 2.31857E-10
4.75965E-10 1.75044E-10
5.75917E-10 1.34748E-10
6.85389E-10 1.04672E-10
8.04380E-10 8.25298E-11
9.32891E-10 6.59181E-11
1.07092E-09 5.31669E-11
1.21847E-09 4.31603E-11
1.37554E-09 3.53860E-11
1.54213E-09 2.92657E-11
1.71823E-09 2.43701E-11
1.90386E-09 2.04381E-11
2.09900E-09 1.72734E-11
2.30367E-09 1.47026E-11
2.51785E-09 1.25892E-11
2.74156E-09 1.08487E-11
2.97478E-09 9.40596E-12
3.21752E-09 8.20087E-12
3.46978E-09 7.18709E-12
3.73156E-09 6.32712E-12
4.00286E-09 5.59407E-12
4.28368E-09 4.96669E-12
4.57402E-09 4.42668E-12
4.87388E-09 3.96039E-12
5.18326E-09 3.55571E-12
5.50215E-09 3.20180E-12
5.83057E-09 2.89127E-12
6.16850E-09 2.61803E-12
6.51596E-09 2.37665E-12
6.87293E-09 2.16170E-12
7.23942E-09 1.97062E-12
7.61544E-09 1.80027E-12
1.18991E-08 8.01286E-13
1.71347E-08 4.07222E-13
2.33223E-08 2.28063E-13
3.04617E-08 1.37525E-13
3.85531E-08 8.78211E-14
4.75965E-08 5.86995E-14
5.75917E-08 4.07189E-14
6.85389E-08 2.91261E-14
8.04380E-08 2.13801E-14
9.32891E-08 1.60454E-14
1.07092E-07 1.22742E-14
1.21847E-07 9.54737E-15
1.37554E-07 7.53634E-15
1.54213E-07 6.02696E-15
1.71823E-07 4.87667E-15
1.90386E-07 3.98781E-15
2.09900E-07 3.29231E-15
2.30367E-07 2.74188E-15
2.51785E-07 2.30172E-15
2.74156E-07 1.94636E-15
2.97478E-07 1.65698E-15
3.21752E-07 1.41943E-15
3.46978E-07 1.22295E-15
3.73156E-07 1.05933E-15
4.00286E-07 9.22175E-16
4.28368E-07 8.06518E-16
4.57402E-07 7.08443E-16
4.87388E-07 6.24837E-16
5.18325E-07 5.53212E-16
5.50215E-07 4.91566E-16
5.83057E-07 4.38274E-16
6.16850E-07 3.92014E-16
6.51596E-07 3.51701E-16
6.87293E-07 3.16441E-16
7.23942E-07 2.85493E-16
7.61543E-07 2.58237E-16
1.18991E-06 1.06550E-16
1.71347E-06 5.16271E-17
2.33223E-06 2.79547E-17
3.04617E-06 1.64216E-17
3.85531E-06 1.02672E-17
4.75964E-06 6.74335E-18
5.75916E-06 4.60924E-18
6.85388E-06 3.25617E-18
8.04378E-06 2.36496E-18
9.32888E-06 1.75873E-18
1.07092E-05 1.33483E-18
1.21846E-05 1.03124E-18
1.37553E-05 8.09231E-19
1.54212E-05 6.43855E-19
1.71822E-05 5.18634E-19
1.90385E-05 4.22211E-19
2.09899E-05 3.47539E-19
2.30365E-05 2.88620E-19
2.51783E-05 2.41608E-19
2.74153E-05 2.03737E-19
2.97475E-05 1.72976E-19
3.21749E-05 1.47804E-19
3.46974E-05 1.27057E-19
3.73152E-05 1.09839E-19
4.00281E-05 9.54507E-20
4.28362E-05 8.33469E-20
4.57395E-05 7.31010E-20
4.87380E-05 6.43781E-20
5.18317E-05 5.69135E-20
5.50205E-05 5.04966E-20
5.83045E-05 4.49574E-20
6.16838E-05 4.01573E-20
6.51582E-05 3.59819E-20
6.87277E-05 3.23363E-20
7.23925E-05 2.91416E-20
7.61524E-05 2.65060E-20
9.21439E-05 1.81073E-20
1.09658E-04 1.27852E-20
1.28695E-04 9.28248E-21
1.49255E-04 6.89989E-21
1.71338E-04 5.23434E-21
1.94942E-04 4.04137E-21
2.20070E-04 3.16903E-21
2.46720E-04 2.51927E-21
2.74892E-04 2.02726E-21
3.04586E-04 1.64926E-21
3.35803E-04 1.35496E-21
3.68542E-04 1.12312E-21
4.02802E-04 9.38487E-22
4.38585E-04 7.90001E-22
4.75889E-04 6.69506E-22
5.14715E-04 5.70913E-22
5.55063E-04 4.89625E-22
5.96931E-04 4.22131E-22
6.40321E-04 3.65722E-22
6.85233E-04 3.18292E-22
7.31665E-04 2.78186E-22
7.79618E-04 2.44093E-22
8.29092E-04 2.14969E-22
8.80086E-04 1.89974E-22
9.32601E-04 1.68429E-22
9.86636E-04 1.49782E-22
1.04219E-03 1.33581E-22
1.09927E-03 1.19454E-22
1.15786E-03 1.07093E-22
1.21797E-03 9.62417E-23
1.27961E-03 8.66872E-23
1.34276E-03 7.82494E-23
1.40743E-03 7.07774E-23
1.47362E-03 6.41429E-23
1.54133E-03 5.82375E-23
1.61056E-03 5.29683E-23
1.68131E-03 4.82561E-23
1.75357E-03 4.40330E-23
1.82735E-03 4.02402E-23
1.90265E-03 3.68272E-23
1.97947E-03 3.37500E-23
2.05780E-03 3.09707E-23
2.13765E-03 2.84559E-23
2.21902E-03 2.61768E-23
2.30190E-03 2.41079E-23
2.38630E-03 2.22270E-23
2.47222E-03 2.05145E-23
2.55965E-03 1.89530E-23
2.64859E-03 1.75274E-23
2.73905E-03 1.62240E-23
2.83103E-03 1.50310E-23
2.92452E-03 1.39376E-23
3.01952E-03 1.29344E-23
3.11604E-03 1.20128E-23
3.21407E-03 1.11654E-23
3.31362E-03 1.03853E-23
3.41468E-03 9.66648E-24
3.51725E-03 9.00348E-24
3.62133E-03 8.39138E-24
3.72692E-03 7.82577E-24
3.83403E-03 7.30266E-24
3.94265E-03 6.81845E-24
4.05278E-03 6.36988E-24
4.16442E-03 5.95400E-24
4.27757E-03 5.56813E-24
4.39223E-03 5.20985E-24
4.50840E-03 4.87694E-24
4.62608E-03 4.56741E-24
4.74527E-03 4.27940E-24
4.86597E-03 4.01127E-24
4.98817E-03 3.76147E-24
5.11188E-03 3.52862E-24
5.23711E-03 3.31144E-24
5.36383E-03 3.10876E-24
5.49207E-03 2.91951E-24
5.62181E-03 2.74271E-24
5.75306E-03 2.57745E-24
5.88581E-03 2.42291E-24
6.02007E-03 2.27832E-24
6.15583E-03 2.14298E-24
6.29310E-03 2.01624E-24
6.43187E-03 1.89750E-24
6.57214E-03 1.78621E-24
6.71392E-03 1.68186E-24
6.85720E-03 1.58398E-24
7.00198E-03 1.49214E-24
7.14827E-03 1.40593E-24
7.29605E-03 1.32497E-24
7.44534E-03 1.24892E-24
7.59612E-03 1.17747E-24
7.97965E-03 1.01700E-24
8.37255E-03 8.79298E-25
8.77480E-03 7.60927E-25
9.18641E-03 6.59014E-25
9.60736E-03 5.71147E-25
1.00376E-02 4.95293E-25
1.04773E-02 4.29733E-25
1.09262E-02 3.73012E-25
1.13844E-02 3.23891E-25
1.18520E-02 2.81318E-25
1.23288E-02 2.44393E-25
1.28150E-02 2.12347E-25
1.33104E-02 1.84521E-25
1.38150E-02 1.60348E-25
1.43290E-02 1.39340E-25
1.48521E-02 1.21080E-25
1.53845E-02 1.05203E-25
1.59262E-02 9.13979E-26
1.64770E-02 7.93929E-26
1.70371E-02 6.89535E-26
1.76063E-02 5.98764E-26
1.81848E-02 5.19848E-26
1.87724E-02 4.51253E-26
1.93692E-02 3.91644E-26
1.99751E-02 3.39859E-26
2.05901E-02 2.94888E-26
2.12143E-02 2.55848E-26
2.18476E-02 2.21974E-26
2.24900E-02 1.92594E-26
2.31415E-02 1.67125E-26
2.38021E-02 1.45059E-26
2.44717E-02 1.25950E-26
2.51504E-02 1.09412E-26
2.58382E-02 9.51053E-27
2.65349E-02 8.27366E-27
2.72407E-02 7.20483E-27
2.79555E-02 6.28165E-27
2.86793E-02 5.48459E-27
2.94120E-02 4.79665E-27
3.01537E-02 4.20304E-27
3.09043E-02 3.69090E-27
3.16639E-02 3.24902E-27
3.24324E-02 2.86772E-27
3.32098E-02 2.53854E-27
3.39961E-02 2.25420E-27
3.47912E-02 2.00837E-27
3.55952E-02 1.79559E-27
3.64081E-02 1.61112E-27
3.72297E-02 1.45090E-27
3.80602E-02 1.31142E-27
3.88995E-02 1.18967E-27
3.97476E-02 1.08306E-27
4.06044E-02 9.89381E-28
4.14700E-02 9.06728E-28
4.23443E-02 8.33488E-28
4.32273E-02 7.68283E-28
4.41190E-02 7.09944E-28
4.50194E-02 6.57479E-28
4.59284E-02 6.10049E-28
4.68461E-02 5.66946E-28
4.87074E-02 4.91434E-28
5.06030E-02 4.27237E-28
5.25328E-02 3.71766E-28
5.44967E-02 3.23220E-28
5.64946E-02 2.80353E-28
5.85262E-02 2.42300E-28
6.05914E-02 2.08447E-28
6.26901E-02 1.78348E-28
6.48222E-02 1.51658E-28
6.69873E-02 1.28096E-28
6.91854E-02 1.07413E-28
7.14163E-02 8.93819E-29
7.36799E-02 7.37821E-29
7.59760E-02 6.03985E-29
7.83043E-02 4.90196E-29
8.06647E-02 3.94379E-29
8.30571E-02 3.14520E-29
8.54812E-02 2.48683E-29
8.79369E-02 1.95036E-29
9.04240E-02 1.51863E-29
9.29422E-02 1.17585E-29
9.54915E-02 9.07625E-30
9.80716E-02 7.01073E-30
1.00682E-01 5.44780E-30
1.03323E-01 4.28793E-30
1.05995E-01 3.44552E-30
1.08696E-01 2.84803E-30
1.11427E-01 2.43497E-30
1.14188E-01 2.15674E-30
1.16978E-01 1.97342E-30
1.19797E-01 1.85359E-30
1.22645E-01 1.77308E-30
1.25522E-01 1.71393E-30
1.28428E-01 1.66325E-30
1.31361E-01 1.61235E-30
1.34323E-01 1.55582E-30
1.37313E-01 1.49080E-30
1.40330E-01 1.41636E-30
1.43375E-01 1.33294E-30
1.46447E-01 1.24186E-30
1.49545E-01 1.14505E-30
1.52671E-01 1.04466E-30
1.55823E-01 9.42927E-31
1.59001E-01 8.41969E-31
1.62205E-01 7.43690E-31
1.65435E-01 6.49715E-31
1.68690E-01 5.61350E-31
1.71970E-01 4.79576E-31
1.75276E-01 4.05057E-31
1.78606E-01 3.38165E-31
1.81961E-01 2.79011E-31
1.85340E-01 2.27485E-31
1.88743E-01 1.83294E-31
1.92169E-01 1.46002E-31
1.95619E-01 1.15071E-31
1.99092E-01 8.98930E-32
2.02589E-01 6.98224E-32
2.06107E-01 5.42015E-32
2.09649E-01 4.23834E-32
2.13212E-01 3.37489E-32
2.16797E-01 2.77199E-32
2.20404E-01 2.37688E-32
2.24032E-01 2.14239E-32
2.27680E-01 2.02730E-32
2.31350E-01 1.99632E-32
2.35040E-01 2.01994E-32
2.38751E-01 2.07417E-32
2.42481E-01 2.14005E-32
2.46231E-01 2.20317E-32
2.50000E-01 2.25315E-32
2.53788E-01 2.28305E-32
2.57595E-01 2.28885E-32
2.61421E-01 2.26886E-32
2.65264E-01 2.22328E-32
2.69126E-01 2.15373E-32
2.73005E-01 2.06284E-32
2.76901E-01 1.95392E-32
2.80814E-01 1.83063E-32
2.84744E-01 1.69678E-32
2.88691E-01 1.55612E-32
2.92653E-01 1.41218E-32
2.96632E-01 1.26818E-32
3.00625E-01 1.12694E-32
3.04634E-01 9.90862E-33
3.08658E-01 8.61884E-33
3.12697E-01 7.41512E-33
3.16749E-01 6.30822E-33
3.20816E-01 5.30500E-33
3.24896E-01 4.40878E-33
3.28990E-01 3.61980E-33
3.33097E-01 2.93571E-33
3.37216E-01 2.35206E-33
3.41348E-01 1.86270E-33
3.45492E-01 1.46029E-33
3.49647E-01 1.13667E-33
3.53814E-01 8.83183E-34
3.57992E-01 6.91033E-34
3.62181E-01 5.51516E-34
3.66381E-01 4.56234E-34
3.70590E-01 3.97268E-34
3.74810E-01 3.67293E-34
3.79039E-01 3.59670E-34
3.83277E-01 3.68494E-34
3.87524E-01 3.88616E-34
3.91780E-01 4.15638E-34
3.96044E-01 4.45897E-34
4.00316E-01 4.76416E-34
4.04596E-01 5.04863E-34
4.08882E-01 5.29485E-34
4.13176E-01 5.49050E-34
4.17476E-01 5.62776E-34
4.21783E-01 5.70267E-34
4.26095E-01 5.71448E-34
4.30413E-01 5.66504E-34
4.34737E-01 5.55823E-34
4.39065E-01 5.39945E-34
4.43398E-01 5.19513E-34
4.47736E-01 4.95237E-34
4.52077E-01 4.67856E-34
4.56422E-01 4.38108E-34
4.60770E-01 4.06712E-34
4.65122E-01 3.74344E-34
4.69476E-01 3.41627E-34
4.73832E-01 3.09119E-34
4.78190E-01 2.77307E-34
4.82550E-01 2.46606E-34
4.86912E-01 2.17357E-34
4.91274E-01 1.89831E-34
4.95637E-01 1.64228E-34
5.00000E-01 1.40688E-34
5.04363E-01 1.19290E-34
5.08726E-01 1.00063E-34
5.13088E-01 8.29938E-35
5.17450E-01 6.80275E-35
5.21810E-01 5.50801E-35
5.26168E-01 4.40418E-35
5.30524E-01 3.47842E-35
5.34878E-01 2.71645E-35
5.39230E-01 2.10320E-35
5.43578E-01 1.62316E-35
5.47923E-01 1.26070E-35
5.52264E-01 1.00053E-35
5.56602E-01 8.27886E-36
5.60935E-01 7.28715E-36
5.65263E-01 6.89883E-36
5.69587E-01 6.99329E-36
5.73905E-01 7.46039E-36
5.78217E-01 8.20181E-36
5.82524E-01 9.13057E-36
5.86824E-01 1.01714E-35
5.91118E-01 1.12599E-35
5.95404E-01 1.23426E-35
5.99684E-01 1.33753E-35
6.03956E-01 1.43235E-35
6.08220E-01 1.51608E-35
6.12476E-01 1.58683E-35
6.16723E-01 1.64337E-35
6.20961E-01 1.68505E-35
6.25190E-01 1.71169E-35
6.29410E-01 1.72356E-35
6.33619E-01 1.72123E-35
6.37819E-01 1.70556E-35
6.42008E-01 1.67760E-35
6.46186E-01 1.63856E-35
6.50353E-01 1.58972E-35
6.54508E-01 1.53245E-35
6.58652E-01 1.46811E-35
6.62784E-01 1.39805E-35
6.66903E-01 1.32357E-35
6.71010E-01 1.24593E-35
6.75104E-01 1.16628E-35
6.79184E-01 1.08569E-35
6.83251E-01 1.00513E-35
6.87303E-01 9.25453E-36
6.91342E-01 8.47431E-36
6.95366E-01 7.71700E-36
6.99375E-01 6.98814E-36
7.03368E-01 6.29215E-36
7.07347E-01 5.63252E-36
7.11309E-01 5.01186E-36
7.15256E-01 4.43198E-36
7.19186E-01 3.89397E-36
7.23099E-01 3.39828E-36
7.26995E-01 2.94472E-36
7.30874E-01 2.53258E-36
7.34736E-01 2.16091E-36
7.38579E-01 1.82812E-36
7.42405E-01 1.53255E-36
7.46212E-01 1.27223E-36
7.50000E-01 1.04506E-36
7.53769E-01 8.48744E-37
7.57519E-01 6.81024E-37
7.61249E-01 5.39530E-37
7.64960E-01 4.21918E-37
7.68650E-01 3.25893E-37
7.72320E-01 2.49213E-37
7.75968E-01 1.89710E-37
7.79596E-01 1.45346E-37
7.83203E-01 1.14156E-37
7.86788E-01 9.43161E-38
7.90351E-01 8.41294E-38
7.93893E-01 8.20461E-38
7.97411E-01 8.66080E-38
8.00908E-01 9.65245E-38
8.04381E-01 1.10633E-37
8.07831E-01 1.27877E-37
8.11257E-01 1.47347E-37
8.14660E-01 1.68226E-37
8.18039E-01 1.89820E-37
8.21394E-01 2.11530E-37
8.24724E-01 2.32847E-37
8.28030E-01 2.53359E-37
8.31310E-01 2.72718E-37
8.34565E-01 2.90669E-37
8.37795E-01 3.06987E-37
8.40999E-01 3.21545E-37
8.44177E-01 3.34238E-37
8.47329E-01 3.45011E-37
8.50455E-01 3.53853E-37
8.53553E-01 3.60769E-37
8.56625E-01 3.65813E-37
8.59670E-01 3.69044E-37
8.62687E-01 3.70538E-37
8.65677E-01 3.70411E-37
8.68639E-01 3.68745E-37
8.71572E-01 3.65675E-37
8.74478E-01 3.61311E-37
8.77355E-01 3.55773E-37
8.80203E-01 3.49194E-37
8.83022E-01 3.41696E-37
8.85812E-01 3.33379E-37
8.88573E-01 3.24368E-37
8.91304E-01 3.14778E-37
8.94005E-01 3.04707E-37
8.96677E-01 2.94251E-37
8.99318E-01 2.83509E-37
9.01928E-01 2.72559E-37
9.04508E-01 2.61490E-37
9.07058E-01 2.50363E-37
9.09576E-01 2.39237E-37
9.12063E-01 2.28190E-37
9.14519E-01 2.17250E-37
9.16943E-01 2.06479E-37
9.19335E-01 1.95914E-37
9.21696E-01 1.85595E-37
9.24024E-01 1.75531E-37
9.26320E-01 1.65772E-37
9.28584E-01 1.56311E-37
9.30815E-01 1.47201E-37
9.33013E-01 1.38411E-37
9.35178E-01 1.29974E-37
9.37310E-01 1.21880E-37
9.39409E-01 1.14154E-37
9.41474E-01 1.06781E-37
9.43505E-01 9.97521E-38
9.45503E-01 9.30738E-38
9.47467E-01 8.67471E-38
9.49397E-01 8.07464E-38
9.51293E-01 7.50821E-38
9.53154E-01 6.97251E-38
9.54981E-01 6.46912E-38
9.56773E-01 5.99515E-38
9.58530E-01 5.54887E-38
9.60252E-01 5.13093E-38
9.61940E-01 4.73842E-38
9.63592E-01 4.37161E-38
9.65209E-01 4.02904E-38
9.66790E-01 3.70894E-38
9.68336E-01 3.41058E-38
9.69846E-01 3.13260E-38
9.71321E-01 2.87417E-38
9.72759E-01 2.63352E-38
9.74162E-01 2.41126E-38
9.75528E-01 2.20356E-38
9.76858E-01 2.01198E-38
9.78152E-01 1.83432E-38
9.79410E-01 1.67094E-38
9.80631E-01 1.51939E-38
9.81815E-01 1.37904E-38
9.82963E-01 1.25045E-38
9.84074E-01 1.13183E-38
9.85148E-01 1.02217E-38
9.86185E-01 9.21601E-39
9.87185E-01 8.29096E-39
9.88148E-01 7.44249E-39
9.89074E-01 6.66486E-39
9.89962E-01 5.95344E-39
9.90814E-01 5.29848E-39
9.91627E-01 4.70127E-39
9.92404E-01 4.15661E-39
9.93143E-01 3.66282E-39
9.93844E-01 3.21208E-39
9.94508E-01 2.79962E-39
9.95134E-01 2.42830E-39
9.95722E-01 2.09258E-39
9.96273E-01 1.78857E-39
9.96786E-01 1.51419E-39
9.97261E-01 1.27024E-39
9.97698E-01 1.05025E-39
9.98097E-01 8.57998E-40
9.98459E-01 6.84296E-40
9.98782E-01 5.37044E-40
9.99067E-01 4.06132E-40
9.99315E-01 2.96266E-40
9.99524E-01 2.04170E-40
9.99695E-01 1.30063E-40
9.99829E-01 7.29606E-41
9.99924E-01 3.28494E-41
9.99981E-01 8.43689E-42
1.00000E+00 1.10159E-42
