 #
 # Subroutine ELSEPA. Elastic scattering of electrons and positrons
 #                    by neutral atoms and positive ions
 #
 # Projectile: electron
 # Kinetic energy = 9.00000E+08 eV = 3.30744E+07 a.u.
 #
 # WARNING: High-energy factorization with free-atom DF screening.
 #          Absorption, polarization and exchange corrections are
 #          switched off.
 #          Phase shifts are calculated for the bare nucleus.
 #          Scattering amplitudes are not evaluated.
 #
 # Element: Ir,  Z =  77,  atomic weight = 1.92217E+02 g/mol
 #
 # Nuclear model: Fermi distribution
 #                Average radius = 6.17515E-13 cm
 #                Skin thickness = 5.46000E-14 cm
 #
 # Number of electrons = 77
 #
 # Total elastic cross section = 7.71726E-18 cm**2 = 2.75588E-01 a0**2
 # 1st transport cross section = 1.37678E-26 cm**2 = 4.91658E-10 a0**2
 # 2nd transport cross section = 4.12985E-26 cm**2 = 1.47480E-09 a0**2
 #
 #
 # Differential cross section:                       MU=(1-COS(THETA))/2
 #
 #  THETA        MU          DCS          DCS        Sherman      error
 #  (deg)                 (cm**2/sr)   (a0**2/sr)    function
 #----------------------------------------------------------------------
0.00000E+00 3.97597E-08
7.61557E-13 3.41535E-08
1.18994E-12 3.15823E-08
1.71346E-12 2.88733E-08
2.33225E-12 2.61594E-08
3.04617E-12 2.35576E-08
3.85530E-12 2.11182E-08
4.75964E-12 1.88843E-08
5.75917E-12 1.68740E-08
6.85391E-12 1.50711E-08
8.04379E-12 1.34745E-08
9.32893E-12 1.20663E-08
1.07092E-11 1.08194E-08
1.21847E-11 9.72332E-09
1.37554E-11 8.75715E-09
1.54213E-11 7.90225E-09
1.71823E-11 7.14793E-09
1.90386E-11 6.47887E-09
2.09900E-11 5.88429E-09
2.30367E-11 5.35611E-09
2.51785E-11 4.88403E-09
2.74156E-11 4.46218E-09
2.97478E-11 4.06482E-09
3.21752E-11 3.70753E-09
3.46979E-11 3.39758E-09
3.73157E-11 3.12743E-09
4.00286E-11 2.89089E-09
4.28368E-11 2.68287E-09
4.57402E-11 2.48094E-09
4.87388E-11 2.28782E-09
5.18325E-11 2.11712E-09
5.50215E-11 1.96566E-09
5.83057E-11 1.83080E-09
6.16850E-11 1.71032E-09
6.51595E-11 1.59568E-09
6.87293E-11 1.48493E-09
7.23943E-11 1.38552E-09
7.61544E-11 1.29604E-09
1.18991E-10 7.07556E-10
1.71347E-10 4.19441E-10
2.33223E-10 2.63519E-10
3.04617E-10 1.73185E-10
3.85531E-10 1.17585E-10
4.75965E-10 8.22701E-11
5.75917E-10 5.91816E-11
6.85389E-10 4.36370E-11
8.04380E-10 3.28891E-11
9.32891E-10 2.53032E-11
1.07092E-09 1.98230E-11
1.21847E-09 1.57749E-11
1.37554E-09 1.27185E-11
1.54213E-09 1.03695E-11
1.71823E-09 8.54249E-12
1.90386E-09 7.10273E-12
2.09900E-09 5.95505E-12
2.30367E-09 5.03074E-12
2.51785E-09 4.27809E-12
2.74156E-09 3.66070E-12
2.97478E-09 3.14852E-12
3.21752E-09 2.72431E-12
3.46978E-09 2.37087E-12
3.73156E-09 2.07059E-12
4.00286E-09 1.81812E-12
4.28368E-09 1.60182E-12
4.57402E-09 1.41709E-12
4.87388E-09 1.25850E-12
5.18326E-09 1.12095E-12
5.50215E-09 1.00230E-12
5.83057E-09 8.98345E-13
6.16850E-09 8.07792E-13
6.51596E-09 7.28353E-13
6.87293E-09 6.58313E-13
7.23942E-09 5.96733E-13
7.61544E-09 5.41886E-13
1.18991E-08 2.31027E-13
1.71347E-08 1.14510E-13
2.33223E-08 6.30723E-14
3.04617E-08 3.75403E-14
3.85531E-08 2.37096E-14
4.75965E-08 1.56951E-14
5.75917E-08 1.07950E-14
6.85389E-08 7.66494E-15
8.04380E-08 5.59078E-15
9.32891E-08 4.17286E-15
1.07092E-07 3.17722E-15
1.21847E-07 2.46161E-15
1.37554E-07 1.93664E-15
1.54213E-07 1.54447E-15
1.71823E-07 1.24677E-15
1.90386E-07 1.01748E-15
2.09900E-07 8.38568E-16
2.30367E-07 6.97321E-16
2.51785E-07 5.84605E-16
2.74156E-07 4.93774E-16
2.97478E-07 4.19920E-16
3.21752E-07 3.59371E-16
3.46978E-07 3.09353E-16
3.73156E-07 2.67743E-16
4.00286E-07 2.32898E-16
4.28368E-07 2.03541E-16
4.57402E-07 1.78667E-16
4.87388E-07 1.57478E-16
5.18325E-07 1.39338E-16
5.50215E-07 1.23737E-16
5.83057E-07 1.10258E-16
6.16850E-07 9.85650E-17
6.51596E-07 8.83816E-17
6.87293E-07 7.94795E-17
7.23942E-07 7.16703E-17
7.61543E-07 6.47968E-17
1.18991E-06 2.66296E-17
1.71347E-06 1.28682E-17
2.33223E-06 6.95521E-18
3.04617E-06 4.08087E-18
3.85531E-06 2.54947E-18
4.75964E-06 1.67365E-18
5.75916E-06 1.14365E-18
6.85388E-06 8.07811E-19
8.04378E-06 5.86694E-19
9.32888E-06 4.36322E-19
1.07092E-05 3.31191E-19
1.21846E-05 2.55905E-19
1.37553E-05 2.00851E-19
1.54212E-05 1.59839E-19
1.71822E-05 1.28783E-19
1.90385E-05 1.04858E-19
2.09899E-05 8.63450E-20
2.30365E-05 7.17321E-20
2.51783E-05 6.00671E-20
2.74153E-05 5.06669E-20
2.97475E-05 4.30301E-20
3.21749E-05 3.67804E-20
3.46974E-05 3.16274E-20
3.73152E-05 2.73498E-20
4.00281E-05 2.37748E-20
4.28362E-05 2.07669E-20
4.57395E-05 1.82200E-20
4.87380E-05 1.60512E-20
5.18317E-05 1.41948E-20
5.50205E-05 1.25985E-20
5.83045E-05 1.12203E-20
6.16838E-05 1.00257E-20
6.51582E-05 8.98625E-21
6.87277E-05 8.07853E-21
7.23925E-05 7.28286E-21
7.61524E-05 6.72022E-21
9.21439E-05 4.58556E-21
1.09658E-04 3.22984E-21
1.28695E-04 2.33606E-21
1.49255E-04 1.72751E-21
1.71338E-04 1.30198E-21
1.94942E-04 9.97369E-22
2.20070E-04 7.74894E-22
2.46720E-04 6.09519E-22
2.74892E-04 4.84657E-22
3.04586E-04 3.89080E-22
3.35803E-04 3.15016E-22
3.68542E-04 2.56988E-22
4.02802E-04 2.11073E-22
4.38585E-04 1.74418E-22
4.75889E-04 1.44918E-22
5.14715E-04 1.21003E-22
5.55063E-04 1.01486E-22
5.96931E-04 8.54604E-23
6.40321E-04 7.22289E-23
6.85233E-04 6.12487E-23
7.31665E-04 5.20943E-23
7.79618E-04 4.44292E-23
8.29092E-04 3.79863E-23
8.80086E-04 3.25508E-23
9.32601E-04 2.79501E-23
9.86636E-04 2.40443E-23
1.04219E-03 2.07188E-23
1.09927E-03 1.78804E-23
1.15786E-03 1.54518E-23
1.21797E-03 1.33695E-23
1.27961E-03 1.15805E-23
1.34276E-03 1.00407E-23
1.40743E-03 8.71315E-24
1.47362E-03 7.56690E-24
1.54133E-03 6.57584E-24
1.61056E-03 5.71789E-24
1.68131E-03 4.97434E-24
1.75357E-03 4.32930E-24
1.82735E-03 3.76921E-24
1.90265E-03 3.28252E-24
1.97947E-03 2.85931E-24
2.05780E-03 2.49110E-24
2.13765E-03 2.17056E-24
2.21902E-03 1.89142E-24
2.30190E-03 1.64825E-24
2.38630E-03 1.43636E-24
2.47222E-03 1.25170E-24
2.55965E-03 1.09075E-24
2.64859E-03 9.50450E-25
2.73905E-03 8.28166E-25
2.83103E-03 7.21588E-25
2.92452E-03 6.28713E-25
3.01952E-03 5.47794E-25
3.11604E-03 4.77308E-25
3.21407E-03 4.15927E-25
3.31362E-03 3.62492E-25
3.41468E-03 3.15991E-25
3.51725E-03 2.75537E-25
3.62133E-03 2.40360E-25
3.72692E-03 2.09783E-25
3.83403E-03 1.83214E-25
3.94265E-03 1.60139E-25
4.05278E-03 1.40104E-25
4.16442E-03 1.22716E-25
4.27757E-03 1.07628E-25
4.39223E-03 9.45413E-26
4.50840E-03 8.31908E-26
4.62608E-03 7.33471E-26
4.74527E-03 6.48098E-26
4.86597E-03 5.74038E-26
4.98817E-03 5.09769E-26
5.11188E-03 4.53965E-26
5.23711E-03 4.05472E-26
5.36383E-03 3.63288E-26
5.49207E-03 3.26542E-26
5.62181E-03 2.94480E-26
5.75306E-03 2.66450E-26
5.88581E-03 2.41885E-26
6.02007E-03 2.20300E-26
6.15583E-03 2.01273E-26
6.29310E-03 1.84444E-26
6.43187E-03 1.69501E-26
6.57214E-03 1.56178E-26
6.71392E-03 1.44247E-26
6.85720E-03 1.33514E-26
7.00198E-03 1.23812E-26
7.14827E-03 1.15002E-26
7.29605E-03 1.06962E-26
7.44534E-03 9.95921E-27
7.59612E-03 9.28064E-27
7.97965E-03 7.79524E-27
8.37255E-03 6.54816E-27
8.77480E-03 5.48468E-27
9.18641E-03 4.56948E-27
9.60736E-03 3.77935E-27
1.00376E-02 3.09828E-27
1.04773E-02 2.51442E-27
1.09262E-02 2.01804E-27
1.13844E-02 1.60049E-27
1.18520E-02 1.25358E-27
1.23288E-02 9.69343E-28
1.28150E-02 7.39990E-28
1.33104E-02 5.57984E-28
1.38150E-02 4.16145E-28
1.43290E-02 3.07774E-28
1.48521E-02 2.26746E-28
1.53845E-02 1.67590E-28
1.59262E-02 1.25521E-28
1.64770E-02 9.64533E-29
1.70371E-02 7.69786E-29
1.76063E-02 6.43248E-29
1.81848E-02 5.62994E-29
1.87724E-02 5.12218E-29
1.93692E-02 4.78512E-29
1.99751E-02 4.53138E-29
2.05901E-02 4.30320E-29
2.12143E-02 4.06605E-29
2.18476E-02 3.80279E-29
2.24900E-02 3.50869E-29
2.31415E-02 3.18730E-29
2.38021E-02 2.84707E-29
2.44717E-02 2.49877E-29
2.51504E-02 2.15361E-29
2.58382E-02 1.82189E-29
2.65349E-02 1.51220E-29
2.72407E-02 1.23100E-29
2.79555E-02 9.82493E-30
2.86793E-02 7.68729E-30
2.94120E-02 5.89858E-30
3.01537E-02 4.44460E-30
3.09043E-02 3.29928E-30
3.16639E-02 2.42830E-30
3.24324E-02 1.79267E-30
3.32098E-02 1.35166E-30
3.39961E-02 1.06533E-30
3.47912E-02 8.96404E-31
3.55952E-02 8.11609E-31
3.64081E-02 7.82468E-31
3.72297E-02 7.85664E-31
3.80602E-02 8.03021E-31
3.88995E-02 8.21202E-31
3.97476E-02 8.31205E-31
4.06044E-02 8.27736E-31
4.14700E-02 8.08519E-31
4.23443E-02 7.73599E-31
4.32273E-02 7.24686E-31
4.41190E-02 6.64561E-31
4.50194E-02 5.96567E-31
4.59284E-02 5.24200E-31
4.68461E-02 4.50790E-31
4.87074E-02 3.12075E-31
5.06030E-02 1.97253E-31
5.25328E-02 1.13804E-31
5.44967E-02 6.12800E-32
5.64946E-02 3.40711E-32
5.85262E-02 2.43239E-32
6.05914E-02 2.42818E-32
6.26901E-02 2.77477E-32
6.48222E-02 3.06820E-32
6.69873E-02 3.11342E-32
6.91854E-02 2.87735E-32
7.14163E-02 2.42699E-32
7.36799E-02 1.87105E-32
7.59760E-02 1.31607E-32
7.83043E-02 8.40610E-33
8.06647E-02 4.85967E-33
8.30571E-02 2.59000E-33
8.54812E-02 1.41811E-33
8.79369E-02 1.03502E-33
9.04240E-02 1.10677E-33
9.29422E-02 1.34830E-33
9.54915E-02 1.56147E-33
9.80716E-02 1.64195E-33
1.00682E-01 1.56452E-33
1.03323E-01 1.35753E-33
1.05995E-01 1.07570E-33
1.08696E-01 7.77442E-34
1.11427E-01 5.09776E-34
1.14188E-01 3.01287E-34
1.16978E-01 1.61623E-34
1.19797E-01 8.53469E-35
1.22645E-01 5.77336E-35
1.25522E-01 6.06200E-35
1.28428E-01 7.70335E-35
1.31361E-01 9.40513E-35
1.34323E-01 1.03893E-34
1.37313E-01 1.03619E-34
1.40330E-01 9.39680E-35
1.43375E-01 7.78578E-35
1.46447E-01 5.89650E-35
1.49545E-01 4.06463E-35
1.52671E-01 2.52991E-35
1.55823E-01 1.41419E-35
1.59001E-01 7.31547E-36
1.62205E-01 4.17662E-36
1.65435E-01 3.65848E-36
1.68690E-01 4.60265E-36
1.71970E-01 6.00470E-36
1.75276E-01 7.15163E-36
1.78606E-01 7.65907E-36
1.81961E-01 7.43295E-36
1.85340E-01 6.58783E-36
1.88743E-01 5.35172E-36
1.92169E-01 3.98032E-36
1.95619E-01 2.69419E-36
1.99092E-01 1.64369E-36
2.02589E-01 8.99161E-37
2.06107E-01 4.60270E-37
2.09649E-01 2.76362E-37
2.13212E-01 2.70417E-37
2.16797E-01 3.60802E-37
2.20404E-01 4.77304E-37
2.24032E-01 5.70164E-37
2.27680E-01 6.12537E-37
2.31350E-01 5.97975E-37
2.35040E-01 5.34907E-37
2.38751E-01 4.40133E-37
2.42481E-01 3.32814E-37
2.46231E-01 2.29951E-37
2.50000E-01 1.00000E-45
2.53788E-01 1.00000E-45
2.57595E-01 1.00000E-45
2.61421E-01 1.00000E-45
2.65264E-01 1.00000E-45
2.69126E-01 1.00000E-45
2.73005E-01 1.00000E-45
2.76901E-01 1.00000E-45
2.80814E-01 1.00000E-45
2.84744E-01 1.00000E-45
2.88691E-01 1.00000E-45
2.92653E-01 1.00000E-45
2.96632E-01 1.00000E-45
3.00625E-01 1.00000E-45
3.04634E-01 1.00000E-45
3.08658E-01 1.00000E-45
3.12697E-01 1.00000E-45
3.16749E-01 1.00000E-45
3.20816E-01 1.00000E-45
3.24896E-01 1.00000E-45
3.28990E-01 1.00000E-45
3.33097E-01 1.00000E-45
3.37216E-01 1.00000E-45
3.41348E-01 1.00000E-45
3.45492E-01 1.00000E-45
3.49647E-01 1.00000E-45
3.53814E-01 1.00000E-45
3.57992E-01 1.00000E-45
3.62181E-01 1.00000E-45
3.66381E-01 1.00000E-45
3.70590E-01 1.00000E-45
3.74810E-01 1.00000E-45
3.79039E-01 1.00000E-45
3.83277E-01 1.00000E-45
3.87524E-01 1.00000E-45
3.91780E-01 1.00000E-45
3.96044E-01 1.00000E-45
4.00316E-01 1.00000E-45
4.04596E-01 1.00000E-45
4.08882E-01 1.00000E-45
4.13176E-01 1.00000E-45
4.17476E-01 1.00000E-45
4.21783E-01 1.00000E-45
4.26095E-01 1.00000E-45
4.30413E-01 1.00000E-45
4.34737E-01 1.00000E-45
4.39065E-01 1.00000E-45
4.43398E-01 1.00000E-45
4.47736E-01 1.00000E-45
4.52077E-01 1.00000E-45
4.56422E-01 1.00000E-45
4.60770E-01 1.00000E-45
4.65122E-01 1.00000E-45
4.69476E-01 1.00000E-45
4.73832E-01 1.00000E-45
4.78190E-01 1.00000E-45
4.82550E-01 1.00000E-45
4.86912E-01 1.00000E-45
4.91274E-01 1.00000E-45
4.95637E-01 1.00000E-45
5.00000E-01 1.00000E-45
5.04363E-01 1.00000E-45
5.08726E-01 1.00000E-45
5.13088E-01 1.00000E-45
5.17450E-01 1.00000E-45
5.21810E-01 1.00000E-45
5.26168E-01 1.00000E-45
5.30524E-01 1.00000E-45
5.34878E-01 1.00000E-45
5.39230E-01 1.00000E-45
5.43578E-01 1.00000E-45
5.47923E-01 1.00000E-45
5.52264E-01 1.00000E-45
5.56602E-01 1.00000E-45
5.60935E-01 1.00000E-45
5.65263E-01 1.00000E-45
5.69587E-01 1.00000E-45
5.73905E-01 1.00000E-45
5.78217E-01 1.00000E-45
5.82524E-01 1.00000E-45
5.86824E-01 1.00000E-45
5.91118E-01 1.00000E-45
5.95404E-01 1.00000E-45
5.99684E-01 1.00000E-45
6.03956E-01 1.00000E-45
6.08220E-01 1.00000E-45
6.12476E-01 1.00000E-45
6.16723E-01 1.00000E-45
6.20961E-01 1.00000E-45
6.25190E-01 1.00000E-45
6.29410E-01 1.00000E-45
6.33619E-01 1.00000E-45
6.37819E-01 1.00000E-45
6.42008E-01 1.00000E-45
6.46186E-01 1.00000E-45
6.50353E-01 1.00000E-45
6.54508E-01 1.00000E-45
6.58652E-01 1.00000E-45
6.62784E-01 1.00000E-45
6.66903E-01 1.00000E-45
6.71010E-01 1.00000E-45
6.75104E-01 1.00000E-45
6.79184E-01 1.00000E-45
6.83251E-01 1.00000E-45
6.87303E-01 1.00000E-45
6.91342E-01 1.00000E-45
6.95366E-01 1.00000E-45
6.99375E-01 1.00000E-45
7.03368E-01 1.00000E-45
7.07347E-01 1.00000E-45
7.11309E-01 1.00000E-45
7.15256E-01 1.00000E-45
7.19186E-01 1.00000E-45
7.23099E-01 1.00000E-45
7.26995E-01 1.00000E-45
7.30874E-01 1.00000E-45
7.34736E-01 1.00000E-45
7.38579E-01 1.00000E-45
7.42405E-01 1.00000E-45
7.46212E-01 1.00000E-45
7.50000E-01 1.00000E-45
7.53769E-01 1.00000E-45
7.57519E-01 1.00000E-45
7.61249E-01 1.00000E-45
7.64960E-01 1.00000E-45
7.68650E-01 1.00000E-45
7.72320E-01 1.00000E-45
7.75968E-01 1.00000E-45
7.79596E-01 1.00000E-45
7.83203E-01 1.00000E-45
7.86788E-01 1.00000E-45
7.90351E-01 1.00000E-45
7.93893E-01 1.00000E-45
7.97411E-01 1.00000E-45
8.00908E-01 1.00000E-45
8.04381E-01 1.00000E-45
8.07831E-01 1.00000E-45
8.11257E-01 1.00000E-45
8.14660E-01 1.00000E-45
8.18039E-01 1.00000E-45
8.21394E-01 1.00000E-45
8.24724E-01 1.00000E-45
8.28030E-01 1.00000E-45
8.31310E-01 1.00000E-45
8.34565E-01 1.00000E-45
8.37795E-01 1.00000E-45
8.40999E-01 1.00000E-45
8.44177E-01 1.00000E-45
8.47329E-01 1.00000E-45
8.50455E-01 1.00000E-45
8.53553E-01 1.00000E-45
8.56625E-01 1.00000E-45
8.59670E-01 1.00000E-45
8.62687E-01 1.00000E-45
8.65677E-01 1.00000E-45
8.68639E-01 1.00000E-45
8.71572E-01 1.00000E-45
8.74478E-01 1.00000E-45
8.77355E-01 1.00000E-45
8.80203E-01 1.00000E-45
8.83022E-01 1.00000E-45
8.85812E-01 1.00000E-45
8.88573E-01 1.00000E-45
8.91304E-01 1.00000E-45
8.94005E-01 1.00000E-45
8.96677E-01 1.00000E-45
8.99318E-01 1.00000E-45
9.01928E-01 1.00000E-45
9.04508E-01 1.00000E-45
9.07058E-01 1.00000E-45
9.09576E-01 1.00000E-45
9.12063E-01 1.00000E-45
9.14519E-01 1.00000E-45
9.16943E-01 1.00000E-45
9.19335E-01 1.00000E-45
9.21696E-01 1.00000E-45
9.24024E-01 1.00000E-45
9.26320E-01 1.00000E-45
9.28584E-01 1.00000E-45
9.30815E-01 1.00000E-45
9.33013E-01 1.00000E-45
9.35178E-01 1.00000E-45
9.37310E-01 1.00000E-45
9.39409E-01 1.00000E-45
9.41474E-01 1.00000E-45
9.43505E-01 1.00000E-45
9.45503E-01 1.00000E-45
9.47467E-01 1.00000E-45
9.49397E-01 1.00000E-45
9.51293E-01 1.00000E-45
9.53154E-01 1.00000E-45
9.54981E-01 1.00000E-45
9.56773E-01 1.00000E-45
9.58530E-01 1.00000E-45
9.60252E-01 1.00000E-45
9.61940E-01 1.00000E-45
9.63592E-01 1.00000E-45
9.65209E-01 1.00000E-45
9.66790E-01 1.00000E-45
9.68336E-01 1.00000E-45
9.69846E-01 1.00000E-45
9.71321E-01 1.00000E-45
9.72759E-01 1.00000E-45
9.74162E-01 1.00000E-45
9.75528E-01 1.00000E-45
9.76858E-01 1.00000E-45
9.78152E-01 1.00000E-45
9.79410E-01 1.00000E-45
9.80631E-01 1.00000E-45
9.81815E-01 1.00000E-45
9.82963E-01 1.00000E-45
9.84074E-01 1.00000E-45
9.85148E-01 1.00000E-45
9.86185E-01 1.00000E-45
9.87185E-01 1.00000E-45
9.88148E-01 1.00000E-45
9.89074E-01 1.00000E-45
9.89962E-01 1.00000E-45
9.90814E-01 1.00000E-45
9.91627E-01 1.00000E-45
9.92404E-01 1.00000E-45
9.93143E-01 1.00000E-45
9.93844E-01 1.00000E-45
9.94508E-01 1.00000E-45
9.95134E-01 1.00000E-45
9.95722E-01 1.00000E-45
9.96273E-01 1.00000E-45
9.96786E-01 1.00000E-45
9.97261E-01 1.00000E-45
9.97698E-01 1.00000E-45
9.98097E-01 1.00000E-45
9.98459E-01 1.00000E-45
9.98782E-01 1.00000E-45
9.99067E-01 1.00000E-45
9.99315E-01 1.00000E-45
9.99524E-01 1.00000E-45
9.99695E-01 1.00000E-45
9.99829E-01 1.00000E-45
9.99924E-01 1.00000E-45
9.99981E-01 1.00000E-45
1.00000E+00 1.00000E-45
