 #
 # Subroutine ELSEPA. Elastic scattering of electrons and positrons
 #                    by neutral atoms and positive ions
 #
 # Projectile: electron
 # Kinetic energy = 9.00000E+07 eV = 3.30744E+06 a.u.
 #
 # WARNING: High-energy factorization with free-atom DF screening.
 #          Absorption, polarization and exchange corrections are
 #          switched off.
 #          Phase shifts are calculated for the bare nucleus.
 #          Scattering amplitudes are not evaluated.
 #
 # Element: Ir,  Z =  77,  atomic weight = 1.92217E+02 g/mol
 #
 # Nuclear model: Fermi distribution
 #                Average radius = 6.17515E-13 cm
 #                Skin thickness = 5.46000E-14 cm
 #
 # Number of electrons = 77
 #
 # Total elastic cross section = 7.74274E-18 cm**2 = 2.76498E-01 a0**2
 # 1st transport cross section = 1.38379E-24 cm**2 = 4.94161E-08 a0**2
 # 2nd transport cross section = 4.11206E-24 cm**2 = 1.46844E-07 a0**2
 #
 #
 # Differential cross section:                       MU=(1-COS(THETA))/2
 #
 #  THETA        MU          DCS          DCS        Sherman      error
 #  (deg)                 (cm**2/sr)   (a0**2/sr)    function
 #----------------------------------------------------------------------
0.00000E+00 4.01668E-10
7.61557E-13 4.01013E-10
1.18994E-12 4.00647E-10
1.71346E-12 4.00200E-10
2.33225E-12 3.99674E-10
3.04617E-12 3.99068E-10
3.85530E-12 3.98383E-10
4.75964E-12 3.97621E-10
5.75917E-12 3.96781E-10
6.85391E-12 3.95865E-10
8.04379E-12 3.94873E-10
9.32893E-12 3.93807E-10
1.07092E-11 3.92668E-10
1.21847E-11 3.91457E-10
1.37554E-11 3.90174E-10
1.54213E-11 3.88822E-10
1.71823E-11 3.87402E-10
1.90386E-11 3.85915E-10
2.09900E-11 3.84361E-10
2.30367E-11 3.82744E-10
2.51785E-11 3.81065E-10
2.74156E-11 3.79324E-10
2.97478E-11 3.77508E-10
3.21752E-11 3.75634E-10
3.46979E-11 3.73713E-10
3.73157E-11 3.71746E-10
4.00286E-11 3.69737E-10
4.28368E-11 3.67687E-10
4.57402E-11 3.65555E-10
4.87388E-11 3.63365E-10
5.18325E-11 3.61142E-10
5.50215E-11 3.58887E-10
5.83057E-11 3.56604E-10
6.16850E-11 3.54294E-10
6.51595E-11 3.51908E-10
6.87293E-11 3.49468E-10
7.23943E-11 3.47009E-10
7.61544E-11 3.44532E-10
1.18991E-10 3.18367E-10
1.71347E-10 2.90862E-10
2.33223E-10 2.63316E-10
3.04617E-10 2.36937E-10
3.85531E-10 2.12281E-10
4.75965E-10 1.89688E-10
5.75917E-10 1.69380E-10
6.85389E-10 1.51224E-10
8.04380E-10 1.35124E-10
9.32891E-10 1.20944E-10
1.07092E-09 1.08413E-10
1.21847E-09 9.73846E-11
1.37554E-09 8.76855E-11
1.54213E-09 7.90981E-11
1.71823E-09 7.15192E-11
1.90386E-09 6.48171E-11
2.09900E-09 5.88471E-11
2.30367E-09 5.35463E-11
2.51785E-09 4.88228E-11
2.74156E-09 4.45913E-11
2.97478E-09 4.05771E-11
3.21752E-09 3.70164E-11
3.46978E-09 3.39279E-11
3.73156E-09 3.12360E-11
4.00286E-09 2.88790E-11
4.28368E-09 2.68063E-11
4.57402E-09 2.47402E-11
4.87388E-09 2.28182E-11
5.18326E-09 2.11193E-11
5.50215E-09 1.96118E-11
5.83057E-09 1.82696E-11
6.16850E-09 1.70705E-11
6.51596E-09 1.59009E-11
6.87293E-09 1.47995E-11
7.23942E-09 1.38109E-11
7.61544E-09 1.29211E-11
1.18991E-08 7.04516E-12
1.71347E-08 4.17664E-12
2.33223E-08 2.62112E-12
3.04617E-08 1.72091E-12
3.85531E-08 1.16829E-12
4.75965E-08 8.16876E-13
5.75917E-08 5.87407E-13
6.85389E-08 4.33173E-13
8.04380E-08 3.26400E-13
9.32891E-08 2.51121E-13
1.07092E-07 1.96750E-13
1.21847E-07 1.56556E-13
1.37554E-07 1.26224E-13
1.54213E-07 1.02902E-13
1.71823E-07 8.47628E-14
1.90386E-07 7.04803E-14
2.09900E-07 5.90854E-14
2.30367E-07 4.99084E-14
2.51785E-07 4.24423E-14
2.74156E-07 3.63132E-14
2.97478E-07 3.12285E-14
3.21752E-07 2.70244E-14
3.46978E-07 2.35124E-14
3.73156E-07 2.05366E-14
4.00286E-07 1.80346E-14
4.28368E-07 1.58853E-14
4.57402E-07 1.40547E-14
4.87388E-07 1.24796E-14
5.18325E-07 1.11165E-14
5.50215E-07 9.93999E-15
5.83057E-07 8.90820E-15
6.16850E-07 8.01086E-15
6.51596E-07 7.22206E-15
6.87293E-07 6.52802E-15
7.23942E-07 5.91667E-15
7.61543E-07 5.37319E-15
1.18991E-06 2.29077E-15
1.71347E-06 1.13550E-15
2.33223E-06 6.25490E-16
3.04617E-06 3.72319E-16
3.85531E-06 2.35163E-16
4.75964E-06 1.55686E-16
5.75916E-06 1.07094E-16
6.85388E-06 7.60509E-17
8.04378E-06 5.54790E-17
9.32888E-06 4.14145E-17
1.07092E-05 3.15378E-17
1.21846E-05 2.44382E-17
1.37553E-05 1.92293E-17
1.54212E-05 1.53378E-17
1.71822E-05 1.23833E-17
1.90385E-05 1.01016E-17
2.09899E-05 8.33244E-18
2.30365E-05 6.93314E-18
2.51783E-05 5.81405E-18
2.74153E-05 4.91065E-18
2.97475E-05 4.17550E-18
3.21749E-05 3.57294E-18
3.46974E-05 3.07556E-18
3.73152E-05 2.66222E-18
4.00281E-05 2.31636E-18
4.28362E-05 2.02501E-18
4.57395E-05 1.77807E-18
4.87380E-05 1.56757E-18
5.18317E-05 1.38722E-18
5.50205E-05 1.23201E-18
5.83045E-05 1.09788E-18
6.16838E-05 9.81536E-19
6.51582E-05 8.80235E-19
6.87277E-05 7.91706E-19
7.23925E-05 7.14056E-19
7.61524E-05 6.45808E-19
9.21439E-05 4.42140E-19
1.09658E-04 3.12813E-19
1.28695E-04 2.27545E-19
1.49255E-04 1.69459E-19
1.71338E-04 1.28802E-19
1.94942E-04 9.96499E-20
2.20070E-04 7.83083E-20
2.46720E-04 6.23943E-20
2.74892E-04 5.03314E-20
3.04586E-04 4.10529E-20
3.35803E-04 3.38215E-20
3.68542E-04 2.81179E-20
4.02802E-04 2.35702E-20
4.38585E-04 1.99082E-20
4.75889E-04 1.69324E-20
5.14715E-04 1.44941E-20
5.55063E-04 1.24806E-20
5.96931E-04 1.08061E-20
6.40321E-04 9.40413E-21
6.85233E-04 8.22316E-21
7.31665E-04 7.22261E-21
7.79618E-04 6.37029E-21
8.29092E-04 5.64059E-21
8.80086E-04 5.01288E-21
9.32601E-04 4.47049E-21
9.86636E-04 3.99986E-21
1.04219E-03 3.58984E-21
1.09927E-03 3.23131E-21
1.15786E-03 2.91665E-21
1.21797E-03 2.63957E-21
1.27961E-03 2.39480E-21
1.34276E-03 2.17790E-21
1.40743E-03 1.98515E-21
1.47362E-03 1.81337E-21
1.54133E-03 1.65988E-21
1.61056E-03 1.52239E-21
1.68131E-03 1.39892E-21
1.75357E-03 1.28779E-21
1.82735E-03 1.18754E-21
1.90265E-03 1.09692E-21
1.97947E-03 1.01483E-21
2.05780E-03 9.40325E-22
2.13765E-03 8.72573E-22
2.21902E-03 8.10851E-22
2.30190E-03 7.54524E-22
2.38630E-03 7.03033E-22
2.47222E-03 6.55886E-22
2.55965E-03 6.12650E-22
2.64859E-03 5.72939E-22
2.73905E-03 5.36414E-22
2.83103E-03 5.02771E-22
2.92452E-03 4.71741E-22
3.01952E-03 4.43082E-22
3.11604E-03 4.16582E-22
3.21407E-03 3.92047E-22
3.31362E-03 3.69293E-22
3.41468E-03 3.48171E-22
3.51725E-03 3.28545E-22
3.62133E-03 3.10289E-22
3.72692E-03 2.93290E-22
3.83403E-03 2.77444E-22
3.94265E-03 2.62659E-22
4.05278E-03 2.48849E-22
4.16442E-03 2.35939E-22
4.27757E-03 2.23859E-22
4.39223E-03 2.12544E-22
4.50840E-03 2.01938E-22
4.62608E-03 1.91987E-22
4.74527E-03 1.82643E-22
4.86597E-03 1.73863E-22
4.98817E-03 1.65605E-22
5.11188E-03 1.57832E-22
5.23711E-03 1.50511E-22
5.36383E-03 1.43610E-22
5.49207E-03 1.37101E-22
5.62181E-03 1.30957E-22
5.75306E-03 1.25153E-22
5.88581E-03 1.19667E-22
6.02007E-03 1.14479E-22
6.15583E-03 1.09569E-22
6.29310E-03 1.04919E-22
6.43187E-03 1.00512E-22
6.57214E-03 9.63346E-23
6.71392E-03 9.23713E-23
6.85720E-03 8.86093E-23
7.00198E-03 8.50365E-23
7.14827E-03 8.16413E-23
7.29605E-03 7.84134E-23
7.44534E-03 7.53428E-23
7.59612E-03 7.24204E-23
7.97965E-03 6.57083E-23
8.37255E-03 5.97521E-23
8.77480E-03 5.44515E-23
9.18641E-03 4.97216E-23
9.60736E-03 4.54899E-23
1.00376E-02 4.16947E-23
1.04773E-02 3.82828E-23
1.09262E-02 3.52087E-23
1.13844E-02 3.24330E-23
1.18520E-02 2.99215E-23
1.23288E-02 2.76446E-23
1.28150E-02 2.55765E-23
1.33104E-02 2.36946E-23
1.38150E-02 2.19791E-23
1.43290E-02 2.04128E-23
1.48521E-02 1.89804E-23
1.53845E-02 1.76683E-23
1.59262E-02 1.64648E-23
1.64770E-02 1.53592E-23
1.70371E-02 1.43421E-23
1.76063E-02 1.34053E-23
1.81848E-02 1.25413E-23
1.87724E-02 1.17434E-23
1.93692E-02 1.10057E-23
1.99751E-02 1.03229E-23
2.05901E-02 9.69025E-24
2.12143E-02 9.10333E-24
2.18476E-02 8.55833E-24
2.24900E-02 8.05172E-24
2.31415E-02 7.58036E-24
2.38021E-02 7.14136E-24
2.44717E-02 6.73215E-24
2.51504E-02 6.35035E-24
2.58382E-02 5.99384E-24
2.65349E-02 5.66065E-24
2.72407E-02 5.34901E-24
2.79555E-02 5.05729E-24
2.86793E-02 4.78403E-24
2.94120E-02 4.52786E-24
3.01537E-02 4.28754E-24
3.09043E-02 4.06193E-24
3.16639E-02 3.85000E-24
3.24324E-02 3.65077E-24
3.32098E-02 3.46338E-24
3.39961E-02 3.28701E-24
3.47912E-02 3.12091E-24
3.55952E-02 2.96440E-24
3.64081E-02 2.81682E-24
3.72297E-02 2.67761E-24
3.80602E-02 2.54621E-24
3.88995E-02 2.42212E-24
3.97476E-02 2.30488E-24
4.06044E-02 2.19405E-24
4.14700E-02 2.08923E-24
4.23443E-02 1.99004E-24
4.32273E-02 1.89615E-24
4.41190E-02 1.80723E-24
4.50194E-02 1.72298E-24
4.59284E-02 1.64312E-24
4.68461E-02 1.56740E-24
4.87074E-02 1.42739E-24
5.06030E-02 1.30119E-24
5.25328E-02 1.18729E-24
5.44967E-02 1.08433E-24
5.64946E-02 9.91153E-25
5.85262E-02 9.06709E-25
6.05914E-02 8.30093E-25
6.26901E-02 7.60500E-25
6.48222E-02 6.97218E-25
6.69873E-02 6.39614E-25
6.91854E-02 5.87128E-25
7.14163E-02 5.39260E-25
7.36799E-02 4.95565E-25
7.59760E-02 4.55645E-25
7.83043E-02 4.19145E-25
8.06647E-02 3.85747E-25
8.30571E-02 3.55164E-25
8.54812E-02 3.27139E-25
8.79369E-02 3.01442E-25
9.04240E-02 2.77865E-25
9.29422E-02 2.56220E-25
9.54915E-02 2.36336E-25
9.80716E-02 2.18062E-25
1.00682E-01 2.01258E-25
1.03323E-01 1.85799E-25
1.05995E-01 1.71570E-25
1.08696E-01 1.58467E-25
1.11427E-01 1.46398E-25
1.14188E-01 1.35275E-25
1.16978E-01 1.25021E-25
1.19797E-01 1.15565E-25
1.22645E-01 1.06842E-25
1.25522E-01 9.87930E-26
1.28428E-01 9.13631E-26
1.31361E-01 8.45032E-26
1.34323E-01 7.81680E-26
1.37313E-01 7.23160E-26
1.40330E-01 6.69092E-26
1.43375E-01 6.19127E-26
1.46447E-01 5.72945E-26
1.49545E-01 5.30253E-26
1.52671E-01 4.90780E-26
1.55823E-01 4.54279E-26
1.59001E-01 4.20521E-26
1.62205E-01 3.89297E-26
1.65435E-01 3.60414E-26
1.68690E-01 3.33693E-26
1.71970E-01 3.08971E-26
1.75276E-01 2.86096E-26
1.78606E-01 2.64930E-26
1.81961E-01 2.45343E-26
1.85340E-01 2.27217E-26
1.88743E-01 2.10443E-26
1.92169E-01 1.94919E-26
1.95619E-01 1.80552E-26
1.99092E-01 1.67255E-26
2.02589E-01 1.54949E-26
2.06107E-01 1.43561E-26
2.09649E-01 1.33021E-26
2.13212E-01 1.23267E-26
2.16797E-01 1.14240E-26
2.20404E-01 1.05887E-26
2.24032E-01 9.81570E-27
2.27680E-01 9.10042E-27
2.31350E-01 8.43857E-27
2.35040E-01 7.82619E-27
2.38751E-01 7.25959E-27
2.42481E-01 6.73538E-27
2.46231E-01 6.25042E-27
2.50000E-01 5.80177E-27
2.53788E-01 5.38674E-27
2.57595E-01 5.00283E-27
2.61421E-01 4.64771E-27
2.65264E-01 4.31924E-27
2.69126E-01 4.01542E-27
2.73005E-01 3.73442E-27
2.76901E-01 3.47451E-27
2.80814E-01 3.23413E-27
2.84744E-01 3.01179E-27
2.88691E-01 2.80615E-27
2.92653E-01 2.61595E-27
2.96632E-01 2.44001E-27
3.00625E-01 2.27727E-27
3.04634E-01 2.12672E-27
3.08658E-01 1.98743E-27
3.12697E-01 1.85855E-27
3.16749E-01 1.73928E-27
3.20816E-01 1.62890E-27
3.24896E-01 1.52672E-27
3.28990E-01 1.43211E-27
3.33097E-01 1.34449E-27
3.37216E-01 1.26332E-27
3.41348E-01 1.18811E-27
3.45492E-01 1.11839E-27
3.49647E-01 1.05375E-27
3.53814E-01 9.93780E-28
3.57992E-01 9.38125E-28
3.62181E-01 8.86449E-28
3.66381E-01 8.38440E-28
3.70590E-01 7.93815E-28
3.74810E-01 7.52307E-28
3.79039E-01 7.13675E-28
3.83277E-01 6.77692E-28
3.87524E-01 6.44152E-28
3.91780E-01 6.12863E-28
3.96044E-01 5.83650E-28
4.00316E-01 5.56350E-28
4.04596E-01 5.30813E-28
4.08882E-01 5.06903E-28
4.13176E-01 4.84491E-28
4.17476E-01 4.63462E-28
4.21783E-01 4.43709E-28
4.26095E-01 4.25132E-28
4.30413E-01 4.07641E-28
4.34737E-01 3.91153E-28
4.39065E-01 3.75591E-28
4.43398E-01 3.60885E-28
4.47736E-01 3.46971E-28
4.52077E-01 3.33788E-28
4.56422E-01 3.21284E-28
4.60770E-01 3.09407E-28
4.65122E-01 2.98113E-28
4.69476E-01 2.87359E-28
4.73832E-01 2.77108E-28
4.78190E-01 2.67323E-28
4.82550E-01 2.57973E-28
4.86912E-01 2.49029E-28
4.91274E-01 2.40462E-28
4.95637E-01 2.32249E-28
5.00000E-01 2.24367E-28
5.04363E-01 2.16795E-28
5.08726E-01 2.09515E-28
5.13088E-01 2.02508E-28
5.17450E-01 1.95759E-28
5.21810E-01 1.89253E-28
5.26168E-01 1.82978E-28
5.30524E-01 1.76920E-28
5.34878E-01 1.71068E-28
5.39230E-01 1.65412E-28
5.43578E-01 1.59944E-28
5.47923E-01 1.54653E-28
5.52264E-01 1.49532E-28
5.56602E-01 1.44573E-28
5.60935E-01 1.39770E-28
5.65263E-01 1.35117E-28
5.69587E-01 1.30607E-28
5.73905E-01 1.26235E-28
5.78217E-01 1.21996E-28
5.82524E-01 1.17885E-28
5.86824E-01 1.13899E-28
5.91118E-01 1.10032E-28
5.95404E-01 1.06281E-28
5.99684E-01 1.02643E-28
6.03956E-01 9.91142E-29
6.08220E-01 9.56910E-29
6.12476E-01 9.23705E-29
6.16723E-01 8.91499E-29
6.20961E-01 8.60265E-29
6.25190E-01 8.29975E-29
6.29410E-01 8.00606E-29
6.33619E-01 7.72131E-29
6.37819E-01 7.44529E-29
6.42008E-01 7.17777E-29
6.46186E-01 6.91852E-29
6.50353E-01 6.66734E-29
6.54508E-01 6.42403E-29
6.58652E-01 6.18838E-29
6.62784E-01 5.96020E-29
6.66903E-01 5.73930E-29
6.71010E-01 5.52549E-29
6.75104E-01 5.31860E-29
6.79184E-01 5.11845E-29
6.83251E-01 4.92486E-29
6.87303E-01 4.73767E-29
6.91342E-01 4.55671E-29
6.95366E-01 4.38181E-29
6.99375E-01 4.21281E-29
7.03368E-01 4.04957E-29
7.07347E-01 3.89191E-29
7.11309E-01 3.73969E-29
7.15256E-01 3.59276E-29
7.19186E-01 3.45097E-29
7.23099E-01 3.31418E-29
7.26995E-01 3.18224E-29
7.30874E-01 3.05502E-29
7.34736E-01 2.93238E-29
7.38579E-01 2.81419E-29
7.42405E-01 2.70031E-29
7.46212E-01 2.59061E-29
7.50000E-01 2.48497E-29
7.53769E-01 2.38326E-29
7.57519E-01 2.28536E-29
7.61249E-01 2.19115E-29
7.64960E-01 2.10052E-29
7.68650E-01 2.01335E-29
7.72320E-01 1.92952E-29
7.75968E-01 1.84894E-29
7.79596E-01 1.77148E-29
7.83203E-01 1.69705E-29
7.86788E-01 1.62555E-29
7.90351E-01 1.55687E-29
7.93893E-01 1.49092E-29
7.97411E-01 1.42760E-29
8.00908E-01 1.36682E-29
8.04381E-01 1.30850E-29
8.07831E-01 1.25253E-29
8.11257E-01 1.19885E-29
8.14660E-01 1.14736E-29
8.18039E-01 1.09798E-29
8.21394E-01 1.05064E-29
8.24724E-01 1.00526E-29
8.28030E-01 9.61769E-30
8.31310E-01 9.20091E-30
8.34565E-01 8.80157E-30
8.37795E-01 8.41902E-30
8.40999E-01 8.05258E-30
8.44177E-01 7.70164E-30
8.47329E-01 7.36558E-30
8.50455E-01 7.04381E-30
8.53553E-01 6.73575E-30
8.56625E-01 6.44085E-30
8.59670E-01 6.15858E-30
8.62687E-01 5.88841E-30
8.65677E-01 5.62986E-30
8.68639E-01 5.38244E-30
8.71572E-01 5.14568E-30
8.74478E-01 4.91913E-30
8.77355E-01 4.70238E-30
8.80203E-01 4.49499E-30
8.83022E-01 4.29657E-30
8.85812E-01 4.10673E-30
8.88573E-01 3.92511E-30
8.91304E-01 3.75134E-30
8.94005E-01 3.58509E-30
8.96677E-01 3.42603E-30
8.99318E-01 3.27384E-30
9.01928E-01 3.12821E-30
9.04508E-01 2.98886E-30
9.07058E-01 2.85551E-30
9.09576E-01 2.72788E-30
9.12063E-01 2.60573E-30
9.14519E-01 2.48881E-30
9.16943E-01 2.37688E-30
9.19335E-01 2.26972E-30
9.21696E-01 2.16711E-30
9.24024E-01 2.06885E-30
9.26320E-01 1.97474E-30
9.28584E-01 1.88459E-30
9.30815E-01 1.79822E-30
9.33013E-01 1.71547E-30
9.35178E-01 1.63617E-30
9.37310E-01 1.56016E-30
9.39409E-01 1.48730E-30
9.41474E-01 1.41745E-30
9.43505E-01 1.35046E-30
9.45503E-01 1.28621E-30
9.47467E-01 1.22459E-30
9.49397E-01 1.16547E-30
9.51293E-01 1.10874E-30
9.53154E-01 1.05430E-30
9.54981E-01 1.00206E-30
9.56773E-01 9.51911E-31
9.58530E-01 9.03769E-31
9.60252E-01 8.57551E-31
9.61940E-01 8.13175E-31
9.63592E-01 7.70565E-31
9.65209E-01 7.29651E-31
9.66790E-01 6.90363E-31
9.68336E-01 6.52637E-31
9.69846E-01 6.16414E-31
9.71321E-01 5.81635E-31
9.72759E-01 5.48246E-31
9.74162E-01 5.16197E-31
9.75528E-01 4.85439E-31
9.76858E-01 4.55927E-31
9.78152E-01 4.27619E-31
9.79410E-01 4.00474E-31
9.80631E-01 3.74454E-31
9.81815E-01 3.49524E-31
9.82963E-01 3.25651E-31
9.84074E-01 3.02803E-31
9.85148E-01 2.80952E-31
9.86185E-01 2.60070E-31
9.87185E-01 2.40132E-31
9.88148E-01 2.21112E-31
9.89074E-01 2.02990E-31
9.89962E-01 1.85743E-31
9.90814E-01 1.69354E-31
9.91627E-01 1.53803E-31
9.92404E-01 1.39073E-31
9.93143E-01 1.25150E-31
9.93844E-01 1.12018E-31
9.94508E-01 9.96650E-32
9.95134E-01 8.80775E-32
9.95722E-01 7.72446E-32
9.96273E-01 6.71558E-32
9.96786E-01 5.78015E-32
9.97261E-01 4.91730E-32
9.97698E-01 4.12624E-32
9.98097E-01 3.40626E-32
9.98459E-01 2.75670E-32
9.98782E-01 2.17701E-32
9.99067E-01 1.66667E-32
9.99315E-01 1.22524E-32
9.99524E-01 8.52355E-33
9.99695E-01 5.47691E-33
9.99829E-01 3.10994E-33
9.99924E-01 1.42065E-33
9.99981E-01 4.07629E-34
1.00000E+00 7.00513E-35
