 #
 # Subroutine ELSEPA. Elastic scattering of electrons and positrons
 #                    by neutral atoms and positive ions
 #
 # Projectile: electron
 # Kinetic energy = 4.50000E+06 eV = 1.65372E+05 a.u.
 #
 # WARNING: High-energy factorization with free-atom DF screening.
 #          Absorption, polarization and exchange corrections are
 #          switched off.
 #          Phase shifts are calculated for the bare nucleus.
 #          Scattering amplitudes are not evaluated.
 #
 # Element: Ir,  Z =  77,  atomic weight = 1.92217E+02 g/mol
 #
 # Nuclear model: Fermi distribution
 #                Average radius = 6.17515E-13 cm
 #                Skin thickness = 5.46000E-14 cm
 #
 # Number of electrons = 77
 #
 # Total elastic cross section = 7.83081E-18 cm**2 = 2.79643E-01 a0**2
 # 1st transport cross section = 3.93469E-22 cm**2 = 1.40510E-05 a0**2
 # 2nd transport cross section = 1.05821E-21 cm**2 = 3.77892E-05 a0**2
 #
 #
 # Differential cross section:                       MU=(1-COS(THETA))/2
 #
 #  THETA        MU          DCS          DCS        Sherman      error
 #  (deg)                 (cm**2/sr)   (a0**2/sr)    function
 #----------------------------------------------------------------------
0.00000E+00 1.23116E-12
7.61557E-13 1.23115E-12
1.18994E-12 1.23115E-12
1.71346E-12 1.23114E-12
2.33225E-12 1.23114E-12
3.04617E-12 1.23113E-12
3.85530E-12 1.23113E-12
4.75964E-12 1.23112E-12
5.75917E-12 1.23111E-12
6.85391E-12 1.23110E-12
8.04379E-12 1.23109E-12
9.32893E-12 1.23108E-12
1.07092E-11 1.23107E-12
1.21847E-11 1.23106E-12
1.37554E-11 1.23105E-12
1.54213E-11 1.23103E-12
1.71823E-11 1.23102E-12
1.90386E-11 1.23101E-12
2.09900E-11 1.23099E-12
2.30367E-11 1.23097E-12
2.51785E-11 1.23096E-12
2.74156E-11 1.23094E-12
2.97478E-11 1.23092E-12
3.21752E-11 1.23090E-12
3.46979E-11 1.23088E-12
3.73157E-11 1.23086E-12
4.00286E-11 1.23084E-12
4.28368E-11 1.23082E-12
4.57402E-11 1.23079E-12
4.87388E-11 1.23077E-12
5.18325E-11 1.23075E-12
5.50215E-11 1.23072E-12
5.83057E-11 1.23069E-12
6.16850E-11 1.23067E-12
6.51595E-11 1.23064E-12
6.87293E-11 1.23061E-12
7.23943E-11 1.23058E-12
7.61544E-11 1.23055E-12
1.18991E-10 1.23021E-12
1.71347E-10 1.22980E-12
2.33223E-10 1.22931E-12
3.04617E-10 1.22874E-12
3.85531E-10 1.22810E-12
4.75965E-10 1.22738E-12
5.75917E-10 1.22659E-12
6.85389E-10 1.22573E-12
8.04380E-10 1.22479E-12
9.32891E-10 1.22378E-12
1.07092E-09 1.22269E-12
1.21847E-09 1.22153E-12
1.37554E-09 1.22030E-12
1.54213E-09 1.21900E-12
1.71823E-09 1.21762E-12
1.90386E-09 1.21618E-12
2.09900E-09 1.21466E-12
2.30367E-09 1.21307E-12
2.51785E-09 1.21141E-12
2.74156E-09 1.20969E-12
2.97478E-09 1.20789E-12
3.21752E-09 1.20602E-12
3.46978E-09 1.20409E-12
3.73156E-09 1.20209E-12
4.00286E-09 1.20002E-12
4.28368E-09 1.19789E-12
4.57402E-09 1.19569E-12
4.87388E-09 1.19343E-12
5.18326E-09 1.19110E-12
5.50215E-09 1.18871E-12
5.83057E-09 1.18626E-12
6.16850E-09 1.18374E-12
6.51596E-09 1.18117E-12
6.87293E-09 1.17853E-12
7.23942E-09 1.17584E-12
7.61544E-09 1.17308E-12
1.18991E-08 1.14234E-12
1.71347E-08 1.10674E-12
2.33223E-08 1.06713E-12
3.04617E-08 1.02444E-12
3.85531E-08 9.79609E-13
4.75965E-08 9.33488E-13
5.75917E-08 8.86829E-13
6.85389E-08 8.40131E-13
8.04380E-08 7.94142E-13
9.32891E-08 7.49319E-13
1.07092E-07 7.06012E-13
1.21847E-07 6.64474E-13
1.37554E-07 6.24876E-13
1.54213E-07 5.87317E-13
1.71823E-07 5.51841E-13
1.90386E-07 5.18444E-13
2.09900E-07 4.87092E-13
2.30367E-07 4.57704E-13
2.51785E-07 4.30143E-13
2.74156E-07 4.04408E-13
2.97478E-07 3.80397E-13
3.21752E-07 3.58008E-13
3.46978E-07 3.37135E-13
3.73156E-07 3.17678E-13
4.00286E-07 2.99538E-13
4.28368E-07 2.82621E-13
4.57402E-07 2.66840E-13
4.87388E-07 2.52110E-13
5.18325E-07 2.38346E-13
5.50215E-07 2.25459E-13
5.83057E-07 2.13414E-13
6.16850E-07 2.02146E-13
6.51596E-07 1.91599E-13
6.87293E-07 1.81720E-13
7.23942E-07 1.72459E-13
7.61543E-07 1.63772E-13
1.18991E-06 9.95019E-14
1.71347E-06 6.45773E-14
2.33223E-06 4.36991E-14
3.04617E-06 3.06530E-14
3.85531E-06 2.21732E-14
4.75964E-06 1.64584E-14
5.75916E-06 1.24770E-14
6.85388E-06 9.61048E-15
8.04378E-06 7.51344E-15
9.32888E-06 5.94865E-15
1.07092E-05 4.76220E-15
1.21846E-05 3.85077E-15
1.37553E-05 3.14283E-15
1.54212E-05 2.58763E-15
1.71822E-05 2.14837E-15
1.90385E-05 1.79690E-15
2.09899E-05 1.51641E-15
2.30365E-05 1.28925E-15
2.51783E-05 1.10182E-15
2.74153E-05 9.47619E-16
2.97475E-05 8.19987E-16
3.21749E-05 7.13675E-16
3.46974E-05 6.24519E-16
3.73152E-05 5.49216E-16
4.00281E-05 4.85157E-16
4.28362E-05 4.30294E-16
4.57395E-05 3.83021E-16
4.87380E-05 3.42082E-16
5.18317E-05 3.06469E-16
5.50205E-05 2.75370E-16
5.83045E-05 2.48144E-16
6.16838E-05 2.24230E-16
6.51582E-05 2.03155E-16
6.87277E-05 1.84517E-16
7.23925E-05 1.67976E-16
7.61524E-05 1.53246E-16
9.21439E-05 1.08230E-16
1.09658E-04 7.85557E-17
1.28695E-04 5.84048E-17
1.49255E-04 4.43198E-17
1.71338E-04 3.42406E-17
1.94942E-04 2.68715E-17
2.20070E-04 2.13828E-17
2.46720E-04 1.72271E-17
2.74892E-04 1.40341E-17
3.04586E-04 1.15481E-17
3.35803E-04 9.58966E-18
3.68542E-04 8.02974E-18
4.02802E-04 6.77457E-18
4.38585E-04 5.75599E-18
4.75889E-04 4.92235E-18
5.14715E-04 4.23476E-18
5.55063E-04 3.66348E-18
5.96931E-04 3.18565E-18
6.40321E-04 2.78345E-18
6.85233E-04 2.44294E-18
7.31665E-04 2.15307E-18
7.79618E-04 1.90504E-18
8.29092E-04 1.69178E-18
8.80086E-04 1.50756E-18
9.32601E-04 1.34779E-18
9.86636E-04 1.20867E-18
1.04219E-03 1.08708E-18
1.09927E-03 9.80421E-19
1.15786E-03 8.86545E-19
1.21797E-03 8.03657E-19
1.27961E-03 7.30247E-19
1.34276E-03 6.65040E-19
1.40743E-03 6.06965E-19
1.47362E-03 5.55097E-19
1.54133E-03 5.08659E-19
1.61056E-03 4.66986E-19
1.68131E-03 4.29503E-19
1.75357E-03 3.95715E-19
1.82735E-03 3.65193E-19
1.90265E-03 3.37566E-19
1.97947E-03 3.12509E-19
2.05780E-03 2.89742E-19
2.13765E-03 2.69017E-19
2.21902E-03 2.50118E-19
2.30190E-03 2.32856E-19
2.38630E-03 2.17063E-19
2.47222E-03 2.02591E-19
2.55965E-03 1.89311E-19
2.64859E-03 1.77107E-19
2.73905E-03 1.65875E-19
2.83103E-03 1.55523E-19
2.92452E-03 1.45972E-19
3.01952E-03 1.37146E-19
3.11604E-03 1.28981E-19
3.21407E-03 1.21418E-19
3.31362E-03 1.14405E-19
3.41468E-03 1.07893E-19
3.51725E-03 1.01842E-19
3.62133E-03 9.62115E-20
3.72692E-03 9.09676E-20
3.83403E-03 8.60787E-20
3.94265E-03 8.15163E-20
4.05278E-03 7.72544E-20
4.16442E-03 7.32696E-20
4.27757E-03 6.95405E-20
4.39223E-03 6.60475E-20
4.50840E-03 6.27728E-20
4.62608E-03 5.97003E-20
4.74527E-03 5.68150E-20
4.86597E-03 5.41036E-20
4.98817E-03 5.15534E-20
5.11188E-03 4.91531E-20
5.23711E-03 4.68922E-20
5.36383E-03 4.47611E-20
5.49207E-03 4.27508E-20
5.62181E-03 4.08533E-20
5.75306E-03 3.90609E-20
5.88581E-03 3.73668E-20
6.02007E-03 3.57644E-20
6.15583E-03 3.42480E-20
6.29310E-03 3.28119E-20
6.43187E-03 3.14512E-20
6.57214E-03 3.01611E-20
6.71392E-03 2.89372E-20
6.85720E-03 2.77755E-20
7.00198E-03 2.66722E-20
7.14827E-03 2.56237E-20
7.29605E-03 2.46270E-20
7.44534E-03 2.36788E-20
7.59612E-03 2.27764E-20
7.97965E-03 2.07037E-20
8.37255E-03 1.88643E-20
8.77480E-03 1.72274E-20
9.18641E-03 1.57666E-20
9.60736E-03 1.44594E-20
1.00376E-02 1.32869E-20
1.04773E-02 1.22325E-20
1.09262E-02 1.12823E-20
1.13844E-02 1.04241E-20
1.18520E-02 9.64724E-21
1.23288E-02 8.94264E-21
1.28150E-02 8.30233E-21
1.33104E-02 7.71933E-21
1.38150E-02 7.18756E-21
1.43290E-02 6.70166E-21
1.48521E-02 6.25693E-21
1.53845E-02 5.84922E-21
1.59262E-02 5.47488E-21
1.64770E-02 5.13064E-21
1.70371E-02 4.81363E-21
1.76063E-02 4.52128E-21
1.81848E-02 4.25130E-21
1.87724E-02 4.00164E-21
1.93692E-02 3.77049E-21
1.99751E-02 3.55620E-21
2.05901E-02 3.35730E-21
2.12143E-02 3.17247E-21
2.18476E-02 3.00053E-21
2.24900E-02 2.84039E-21
2.31415E-02 2.69109E-21
2.38021E-02 2.55175E-21
2.44717E-02 2.42157E-21
2.51504E-02 2.29983E-21
2.58382E-02 2.18587E-21
2.65349E-02 2.07910E-21
2.72407E-02 1.97898E-21
2.79555E-02 1.88500E-21
2.86793E-02 1.79671E-21
2.94120E-02 1.71370E-21
3.01537E-02 1.63559E-21
3.09043E-02 1.56203E-21
3.16639E-02 1.49270E-21
3.24324E-02 1.42731E-21
3.32098E-02 1.36559E-21
3.39961E-02 1.30729E-21
3.47912E-02 1.25218E-21
3.55952E-02 1.20006E-21
3.64081E-02 1.15072E-21
3.72297E-02 1.10398E-21
3.80602E-02 1.05969E-21
3.88995E-02 1.01768E-21
3.97476E-02 9.77822E-22
4.06044E-02 9.39971E-22
4.14700E-02 9.04008E-22
4.23443E-02 8.69820E-22
4.32273E-02 8.37300E-22
4.41190E-02 8.06350E-22
4.50194E-02 7.76877E-22
4.59284E-02 7.48797E-22
4.68461E-02 7.22029E-22
4.87074E-02 6.72139E-22
5.06030E-02 6.26668E-22
5.25328E-02 5.85144E-22
5.44967E-02 5.47155E-22
5.64946E-02 5.12337E-22
5.85262E-02 4.80371E-22
6.05914E-02 4.50976E-22
6.26901E-02 4.23901E-22
6.48222E-02 3.98924E-22
6.69873E-02 3.75849E-22
6.91854E-02 3.54500E-22
7.14163E-02 3.34721E-22
7.36799E-02 3.16370E-22
7.59760E-02 2.99324E-22
7.83043E-02 2.83468E-22
8.06647E-02 2.68702E-22
8.30571E-02 2.54934E-22
8.54812E-02 2.42083E-22
8.79369E-02 2.30074E-22
9.04240E-02 2.18839E-22
9.29422E-02 2.08318E-22
9.54915E-02 1.98454E-22
9.80716E-02 1.89198E-22
1.00682E-01 1.80504E-22
1.03323E-01 1.72331E-22
1.05995E-01 1.64639E-22
1.08696E-01 1.57394E-22
1.11427E-01 1.50564E-22
1.14188E-01 1.44120E-22
1.16978E-01 1.38036E-22
1.19797E-01 1.32285E-22
1.22645E-01 1.26847E-22
1.25522E-01 1.21700E-22
1.28428E-01 1.16824E-22
1.31361E-01 1.12203E-22
1.34323E-01 1.07820E-22
1.37313E-01 1.03659E-22
1.40330E-01 9.97070E-23
1.43375E-01 9.59508E-23
1.46447E-01 9.23784E-23
1.49545E-01 8.89788E-23
1.52671E-01 8.57415E-23
1.55823E-01 8.26570E-23
1.59001E-01 7.97164E-23
1.62205E-01 7.69113E-23
1.65435E-01 7.42340E-23
1.68690E-01 7.16773E-23
1.71970E-01 6.92344E-23
1.75276E-01 6.68991E-23
1.78606E-01 6.46655E-23
1.81961E-01 6.25281E-23
1.85340E-01 6.04818E-23
1.88743E-01 5.85216E-23
1.92169E-01 5.66433E-23
1.95619E-01 5.48424E-23
1.99092E-01 5.31150E-23
2.02589E-01 5.14574E-23
2.06107E-01 4.98660E-23
2.09649E-01 4.83377E-23
2.13212E-01 4.68692E-23
2.16797E-01 4.54577E-23
2.20404E-01 4.41005E-23
2.24032E-01 4.27948E-23
2.27680E-01 4.15383E-23
2.31350E-01 4.03287E-23
2.35040E-01 3.91638E-23
2.38751E-01 3.80416E-23
2.42481E-01 3.69600E-23
2.46231E-01 3.59173E-23
2.50000E-01 3.49117E-23
2.53788E-01 3.39416E-23
2.57595E-01 3.30054E-23
2.61421E-01 3.21016E-23
2.65264E-01 3.12289E-23
2.69126E-01 3.03858E-23
2.73005E-01 2.95713E-23
2.76901E-01 2.87839E-23
2.80814E-01 2.80227E-23
2.84744E-01 2.72866E-23
2.88691E-01 2.65744E-23
2.92653E-01 2.58853E-23
2.96632E-01 2.52183E-23
3.00625E-01 2.45725E-23
3.04634E-01 2.39471E-23
3.08658E-01 2.33413E-23
3.12697E-01 2.27543E-23
3.16749E-01 2.21854E-23
3.20816E-01 2.16339E-23
3.24896E-01 2.10991E-23
3.28990E-01 2.05804E-23
3.33097E-01 2.00772E-23
3.37216E-01 1.95889E-23
3.41348E-01 1.91150E-23
3.45492E-01 1.86550E-23
3.49647E-01 1.82083E-23
3.53814E-01 1.77745E-23
3.57992E-01 1.73531E-23
3.62181E-01 1.69436E-23
3.66381E-01 1.65457E-23
3.70590E-01 1.61589E-23
3.74810E-01 1.57828E-23
3.79039E-01 1.54172E-23
3.83277E-01 1.50615E-23
3.87524E-01 1.47156E-23
3.91780E-01 1.43790E-23
3.96044E-01 1.40514E-23
4.00316E-01 1.37325E-23
4.04596E-01 1.34222E-23
4.08882E-01 1.31200E-23
4.13176E-01 1.28257E-23
4.17476E-01 1.25391E-23
4.21783E-01 1.22599E-23
4.26095E-01 1.19878E-23
4.30413E-01 1.17226E-23
4.34737E-01 1.14642E-23
4.39065E-01 1.12124E-23
4.43398E-01 1.09668E-23
4.47736E-01 1.07274E-23
4.52077E-01 1.04939E-23
4.56422E-01 1.02661E-23
4.60770E-01 1.00439E-23
4.65122E-01 9.82705E-24
4.69476E-01 9.61549E-24
4.73832E-01 9.40903E-24
4.78190E-01 9.20751E-24
4.82550E-01 9.01077E-24
4.86912E-01 8.81869E-24
4.91274E-01 8.63112E-24
4.95637E-01 8.44794E-24
5.00000E-01 8.26903E-24
5.04363E-01 8.09425E-24
5.08726E-01 7.92350E-24
5.13088E-01 7.75667E-24
5.17450E-01 7.59364E-24
5.21810E-01 7.43430E-24
5.26168E-01 7.27856E-24
5.30524E-01 7.12631E-24
5.34878E-01 6.97746E-24
5.39230E-01 6.83191E-24
5.43578E-01 6.68959E-24
5.47923E-01 6.55041E-24
5.52264E-01 6.41427E-24
5.56602E-01 6.28110E-24
5.60935E-01 6.15082E-24
5.65263E-01 6.02336E-24
5.69587E-01 5.89863E-24
5.73905E-01 5.77658E-24
5.78217E-01 5.65713E-24
5.82524E-01 5.54021E-24
5.86824E-01 5.42577E-24
5.91118E-01 5.31373E-24
5.95404E-01 5.20404E-24
5.99684E-01 5.09664E-24
6.03956E-01 4.99147E-24
6.08220E-01 4.88848E-24
6.12476E-01 4.78761E-24
6.16723E-01 4.68881E-24
6.20961E-01 4.59203E-24
6.25190E-01 4.49722E-24
6.29410E-01 4.40434E-24
6.33619E-01 4.31334E-24
6.37819E-01 4.22417E-24
6.42008E-01 4.13679E-24
6.46186E-01 4.05115E-24
6.50353E-01 3.96723E-24
6.54508E-01 3.88497E-24
6.58652E-01 3.80434E-24
6.62784E-01 3.72530E-24
6.66903E-01 3.64781E-24
6.71010E-01 3.57185E-24
6.75104E-01 3.49737E-24
6.79184E-01 3.42434E-24
6.83251E-01 3.35272E-24
6.87303E-01 3.28250E-24
6.91342E-01 3.21363E-24
6.95366E-01 3.14609E-24
6.99375E-01 3.07984E-24
7.03368E-01 3.01486E-24
7.07347E-01 2.95113E-24
7.11309E-01 2.88861E-24
7.15256E-01 2.82727E-24
7.19186E-01 2.76710E-24
7.23099E-01 2.70807E-24
7.26995E-01 2.65015E-24
7.30874E-01 2.59332E-24
7.34736E-01 2.53756E-24
7.38579E-01 2.48285E-24
7.42405E-01 2.42916E-24
7.46212E-01 2.37647E-24
7.50000E-01 2.32477E-24
7.53769E-01 2.27403E-24
7.57519E-01 2.22423E-24
7.61249E-01 2.17535E-24
7.64960E-01 2.12738E-24
7.68650E-01 2.08030E-24
7.72320E-01 2.03409E-24
7.75968E-01 1.98873E-24
7.79596E-01 1.94421E-24
7.83203E-01 1.90051E-24
7.86788E-01 1.85761E-24
7.90351E-01 1.81550E-24
7.93893E-01 1.77416E-24
7.97411E-01 1.73358E-24
8.00908E-01 1.69375E-24
8.04381E-01 1.65465E-24
8.07831E-01 1.61627E-24
8.11257E-01 1.57858E-24
8.14660E-01 1.54160E-24
8.18039E-01 1.50528E-24
8.21394E-01 1.46964E-24
8.24724E-01 1.43465E-24
8.28030E-01 1.40030E-24
8.31310E-01 1.36658E-24
8.34565E-01 1.33348E-24
8.37795E-01 1.30099E-24
8.40999E-01 1.26910E-24
8.44177E-01 1.23779E-24
8.47329E-01 1.20706E-24
8.50455E-01 1.17690E-24
8.53553E-01 1.14730E-24
8.56625E-01 1.11825E-24
8.59670E-01 1.08974E-24
8.62687E-01 1.06175E-24
8.65677E-01 1.03429E-24
8.68639E-01 1.00734E-24
8.71572E-01 9.80898E-25
8.74478E-01 9.54951E-25
8.77355E-01 9.29492E-25
8.80203E-01 9.04515E-25
8.83022E-01 8.80011E-25
8.85812E-01 8.55973E-25
8.88573E-01 8.32394E-25
8.91304E-01 8.09266E-25
8.94005E-01 7.86584E-25
8.96677E-01 7.64339E-25
8.99318E-01 7.42527E-25
9.01928E-01 7.21139E-25
9.04508E-01 7.00170E-25
9.07058E-01 6.79615E-25
9.09576E-01 6.59466E-25
9.12063E-01 6.39718E-25
9.14519E-01 6.20366E-25
9.16943E-01 6.01404E-25
9.19335E-01 5.82827E-25
9.21696E-01 5.64629E-25
9.24024E-01 5.46806E-25
9.26320E-01 5.29352E-25
9.28584E-01 5.12262E-25
9.30815E-01 4.95531E-25
9.33013E-01 4.79156E-25
9.35178E-01 4.63131E-25
9.37310E-01 4.47452E-25
9.39409E-01 4.32115E-25
9.41474E-01 4.17116E-25
9.43505E-01 4.02450E-25
9.45503E-01 3.88113E-25
9.47467E-01 3.74103E-25
9.49397E-01 3.60414E-25
9.51293E-01 3.47044E-25
9.53154E-01 3.33988E-25
9.54981E-01 3.21243E-25
9.56773E-01 3.08807E-25
9.58530E-01 2.96674E-25
9.60252E-01 2.84843E-25
9.61940E-01 2.73311E-25
9.63592E-01 2.62073E-25
9.65209E-01 2.51128E-25
9.66790E-01 2.40472E-25
9.68336E-01 2.30102E-25
9.69846E-01 2.20017E-25
9.71321E-01 2.10213E-25
9.72759E-01 2.00688E-25
9.74162E-01 1.91439E-25
9.75528E-01 1.82464E-25
9.76858E-01 1.73760E-25
9.78152E-01 1.65326E-25
9.79410E-01 1.57160E-25
9.80631E-01 1.49258E-25
9.81815E-01 1.41620E-25
9.82963E-01 1.34243E-25
9.84074E-01 1.27125E-25
9.85148E-01 1.20266E-25
9.86185E-01 1.13661E-25
9.87185E-01 1.07312E-25
9.88148E-01 1.01214E-25
9.89074E-01 9.53682E-26
9.89962E-01 8.97717E-26
9.90814E-01 8.44234E-26
9.91627E-01 7.93220E-26
9.92404E-01 7.44663E-26
9.93143E-01 6.98549E-26
9.93844E-01 6.54869E-26
9.94508E-01 6.13610E-26
9.95134E-01 5.74763E-26
9.95722E-01 5.38318E-26
9.96273E-01 5.04267E-26
9.96786E-01 4.72600E-26
9.97261E-01 4.43309E-26
9.97698E-01 4.16389E-26
9.98097E-01 3.91832E-26
9.98459E-01 3.69631E-26
9.98782E-01 3.49782E-26
9.99067E-01 3.32280E-26
9.99315E-01 3.17120E-26
9.99524E-01 3.04298E-26
9.99695E-01 2.93812E-26
9.99829E-01 2.85659E-26
9.99924E-01 2.79837E-26
9.99981E-01 2.76344E-26
1.00000E+00 2.75180E-26
