 #
 # Subroutine ELSEPA. Elastic scattering of electrons and positrons
 #                    by neutral atoms and positive ions
 #
 # Projectile: electron
 # Kinetic energy = 4.50000E+08 eV = 1.65372E+07 a.u.
 #
 # WARNING: High-energy factorization with free-atom DF screening.
 #          Absorption, polarization and exchange corrections are
 #          switched off.
 #          Phase shifts are calculated for the bare nucleus.
 #          Scattering amplitudes are not evaluated.
 #
 # Element: Ir,  Z =  77,  atomic weight = 1.92217E+02 g/mol
 #
 # Nuclear model: Fermi distribution
 #                Average radius = 6.17515E-13 cm
 #                Skin thickness = 5.46000E-14 cm
 #
 # Number of electrons = 77
 #
 # Total elastic cross section = 7.74076E-18 cm**2 = 2.76428E-01 a0**2
 # 1st transport cross section = 5.52172E-26 cm**2 = 1.97184E-09 a0**2
 # 2nd transport cross section = 1.65574E-25 cm**2 = 5.91274E-09 a0**2
 #
 #
 # Differential cross section:                       MU=(1-COS(THETA))/2
 #
 #  THETA        MU          DCS          DCS        Sherman      error
 #  (deg)                 (cm**2/sr)   (a0**2/sr)    function
 #----------------------------------------------------------------------
0.00000E+00 9.95120E-09
7.61557E-13 9.56426E-09
1.18994E-12 9.35774E-09
1.71346E-12 9.11621E-09
2.33225E-12 8.84365E-09
3.04617E-12 8.54670E-09
3.85530E-12 8.23117E-09
4.75964E-12 7.90267E-09
5.75917E-12 7.56636E-09
6.85391E-12 7.22421E-09
8.04379E-12 6.88228E-09
9.32893E-12 6.54464E-09
1.07092E-11 6.21419E-09
1.21847E-11 5.89318E-09
1.37554E-11 5.58266E-09
1.54213E-11 5.28260E-09
1.71823E-11 4.99604E-09
1.90386E-11 4.72340E-09
2.09900E-11 4.46485E-09
2.30367E-11 4.22028E-09
2.51785E-11 3.98827E-09
2.74156E-11 3.76919E-09
2.97478E-11 3.56319E-09
3.21752E-11 3.36966E-09
3.46979E-11 3.18798E-09
3.73157E-11 3.01741E-09
4.00286E-11 2.85639E-09
4.28368E-11 2.70545E-09
4.57402E-11 2.56394E-09
4.87388E-11 2.43125E-09
5.18325E-11 2.30677E-09
5.50215E-11 2.18962E-09
5.83057E-11 2.07932E-09
6.16850E-11 1.97577E-09
6.51595E-11 1.87851E-09
6.87293E-11 1.78709E-09
7.23943E-11 1.70111E-09
7.61544E-11 1.61979E-09
1.18991E-10 1.01600E-09
1.71347E-10 6.70651E-10
2.33223E-10 4.57592E-10
3.04617E-10 3.23900E-10
3.85531E-10 2.36296E-10
4.75965E-10 1.76803E-10
5.75917E-10 1.35135E-10
6.85389E-10 1.04810E-10
8.04380E-10 8.25259E-11
9.32891E-10 6.58400E-11
1.07092E-09 5.31159E-11
1.21847E-09 4.32654E-11
1.37554E-09 3.55283E-11
1.54213E-09 2.93750E-11
1.71823E-09 2.44799E-11
1.90386E-09 2.05512E-11
2.09900E-09 1.73729E-11
2.30367E-09 1.47830E-11
2.51785E-09 1.26537E-11
2.74156E-09 1.09003E-11
2.97478E-09 9.43877E-12
3.21752E-09 8.21527E-12
3.46978E-09 7.18803E-12
3.73156E-09 6.32051E-12
4.00286E-09 5.58240E-12
4.28368E-09 4.95158E-12
4.57402E-09 4.40923E-12
4.87388E-09 3.94037E-12
5.18326E-09 3.53296E-12
5.50215E-09 3.17695E-12
5.83057E-09 2.86468E-12
6.16850E-09 2.59015E-12
6.51596E-09 2.34801E-12
6.87293E-09 2.13376E-12
7.23942E-09 1.94362E-12
7.61544E-09 1.77415E-12
1.18991E-08 7.86408E-13
1.71347E-08 4.00081E-13
2.33223E-08 2.24375E-13
3.04617E-08 1.35343E-13
3.85531E-08 8.63906E-14
4.75965E-08 5.77019E-14
5.75917E-08 3.99998E-14
6.85389E-08 2.86004E-14
8.04380E-08 2.09910E-14
9.32891E-08 1.57534E-14
1.07092E-07 1.20522E-14
1.21847E-07 9.37640E-15
1.37554E-07 7.40304E-15
1.54213E-07 5.92197E-15
1.71823E-07 4.79295E-15
1.90386E-07 3.92021E-15
2.09900E-07 3.23711E-15
2.30367E-07 2.69635E-15
2.51785E-07 2.26381E-15
2.74156E-07 1.91455E-15
2.97478E-07 1.63007E-15
3.21752E-07 1.39649E-15
3.46978E-07 1.20327E-15
3.73156E-07 1.04233E-15
4.00286E-07 9.07420E-16
4.28368E-07 7.93646E-16
4.57402E-07 6.97160E-16
4.87388E-07 6.14903E-16
5.18325E-07 5.44430E-16
5.50215E-07 4.83773E-16
5.83057E-07 4.31336E-16
6.16850E-07 3.85818E-16
6.51596E-07 3.46150E-16
6.87293E-07 3.11454E-16
7.23942E-07 2.81000E-16
7.61543E-07 2.54179E-16
1.18991E-06 1.04911E-16
1.71347E-06 5.08563E-17
2.33223E-06 2.75512E-17
3.04617E-06 1.61929E-17
3.85531E-06 1.01293E-17
4.75964E-06 6.65602E-18
5.75916E-06 4.55168E-18
6.85388E-06 3.21697E-18
8.04378E-06 2.33752E-18
9.32888E-06 1.73908E-18
1.07092E-05 1.32046E-18
1.21846E-05 1.02056E-18
1.37553E-05 8.01176E-19
1.54212E-05 6.37702E-19
1.71822E-05 5.13880E-19
1.90385E-05 4.18465E-19
2.09899E-05 3.44622E-19
2.30365E-05 2.86326E-19
2.51783E-05 2.39782E-19
2.74153E-05 2.02270E-19
2.97475E-05 1.71790E-19
3.21749E-05 1.46840E-19
3.46974E-05 1.26274E-19
3.73152E-05 1.09201E-19
4.00281E-05 9.49324E-20
4.28362E-05 8.29258E-20
4.57395E-05 7.27589E-20
4.87380E-05 6.41006E-20
5.18317E-05 5.66891E-20
5.50205E-05 5.03158E-20
5.83045E-05 4.48127E-20
6.16838E-05 4.00425E-20
6.51582E-05 3.58921E-20
6.87277E-05 3.22673E-20
7.23925E-05 2.90898E-20
7.61524E-05 2.66373E-20
9.21439E-05 1.82440E-20
1.09658E-04 1.29147E-20
1.28695E-04 9.40016E-21
1.49255E-04 7.00384E-21
1.71338E-04 5.32512E-21
1.94942E-04 4.12039E-21
2.20070E-04 3.23760E-21
2.46720E-04 2.57868E-21
2.74892E-04 2.07873E-21
3.04586E-04 1.69383E-21
3.35803E-04 1.39361E-21
3.68542E-04 1.15663E-21
4.02802E-04 9.67567E-22
4.38585E-04 8.15249E-22
4.75889E-04 6.91432E-22
5.14715E-04 5.89960E-22
5.55063E-04 5.06168E-22
5.96931E-04 4.36496E-22
6.40321E-04 3.78188E-22
6.85233E-04 3.29099E-22
7.31665E-04 2.87544E-22
7.79618E-04 2.52180E-22
8.29092E-04 2.21943E-22
8.80086E-04 1.95971E-22
9.32601E-04 1.73567E-22
9.86636E-04 1.54165E-22
1.04219E-03 1.37300E-22
1.09927E-03 1.22588E-22
1.15786E-03 1.09712E-22
1.21797E-03 9.84079E-23
1.27961E-03 8.84537E-23
1.34276E-03 7.96638E-23
1.40743E-03 7.18818E-23
1.47362E-03 6.49745E-23
1.54133E-03 5.88292E-23
1.61056E-03 5.33494E-23
1.68131E-03 4.84524E-23
1.75357E-03 4.40674E-23
1.82735E-03 4.01332E-23
1.90265E-03 3.65969E-23
1.97947E-03 3.34126E-23
2.05780E-03 3.05406E-23
2.13765E-03 2.79459E-23
2.21902E-03 2.55982E-23
2.30190E-03 2.34709E-23
2.38630E-03 2.15407E-23
2.47222E-03 1.97868E-23
2.55965E-03 1.81912E-23
2.64859E-03 1.67378E-23
2.73905E-03 1.54124E-23
2.83103E-03 1.42024E-23
2.92452E-03 1.30965E-23
3.01952E-03 1.20847E-23
3.11604E-03 1.11581E-23
3.21407E-03 1.03088E-23
3.31362E-03 9.52956E-24
3.41468E-03 8.81403E-24
3.51725E-03 8.15644E-24
3.62133E-03 7.55163E-24
3.72692E-03 6.99494E-24
3.83403E-03 6.48216E-24
3.94265E-03 6.00951E-24
4.05278E-03 5.57356E-24
4.16442E-03 5.17119E-24
4.27757E-03 4.79960E-24
4.39223E-03 4.45624E-24
4.50840E-03 4.13877E-24
4.62608E-03 3.84509E-24
4.74527E-03 3.57328E-24
4.86597E-03 3.32159E-24
4.98817E-03 3.08842E-24
5.11188E-03 2.87231E-24
5.23711E-03 2.67192E-24
5.36383E-03 2.48605E-24
5.49207E-03 2.31356E-24
5.62181E-03 2.15345E-24
5.75306E-03 2.00476E-24
5.88581E-03 1.86665E-24
6.02007E-03 1.73831E-24
6.15583E-03 1.61901E-24
6.29310E-03 1.50810E-24
6.43187E-03 1.40495E-24
6.57214E-03 1.30900E-24
6.71392E-03 1.21972E-24
6.85720E-03 1.13663E-24
7.00198E-03 1.05929E-24
7.14827E-03 9.87282E-25
7.29605E-03 9.20228E-25
7.44534E-03 8.57777E-25
7.59612E-03 7.99603E-25
7.97965E-03 6.70966E-25
8.37255E-03 5.63120E-25
8.77480E-03 4.72652E-25
9.18641E-03 3.96728E-25
9.60736E-03 3.32993E-25
1.00376E-02 2.79483E-25
1.04773E-02 2.34558E-25
1.09262E-02 1.96845E-25
1.13844E-02 1.65194E-25
1.18520E-02 1.38640E-25
1.23288E-02 1.16371E-25
1.28150E-02 9.77063E-26
1.33104E-02 8.20710E-26
1.38150E-02 6.89817E-26
1.43290E-02 5.80308E-26
1.48521E-02 4.88752E-26
1.53845E-02 4.12252E-26
1.59262E-02 3.48371E-26
1.64770E-02 2.95054E-26
1.70371E-02 2.50569E-26
1.76063E-02 2.13461E-26
1.81848E-02 1.82504E-26
1.87724E-02 1.56671E-26
1.93692E-02 1.35096E-26
1.99751E-02 1.17059E-26
2.05901E-02 1.01952E-26
2.12143E-02 8.92716E-27
2.18476E-02 7.85958E-27
2.24900E-02 6.95745E-27
2.31415E-02 6.19171E-27
2.38021E-02 5.53832E-27
2.44717E-02 4.97743E-27
2.51504E-02 4.49271E-27
2.58382E-02 4.07076E-27
2.65349E-02 3.70064E-27
2.72407E-02 3.37344E-27
2.79555E-02 3.08191E-27
2.86793E-02 2.82021E-27
2.94120E-02 2.58361E-27
3.01537E-02 2.36834E-27
3.09043E-02 2.17137E-27
3.16639E-02 1.99027E-27
3.24324E-02 1.82311E-27
3.32098E-02 1.66835E-27
3.39961E-02 1.52477E-27
3.47912E-02 1.39138E-27
3.55952E-02 1.26737E-27
3.64081E-02 1.15209E-27
3.72297E-02 1.04498E-27
3.80602E-02 9.45576E-28
3.88995E-02 8.53465E-28
3.97476E-02 7.68276E-28
4.06044E-02 6.89665E-28
4.14700E-02 6.17309E-28
4.23443E-02 5.50896E-28
4.32273E-02 4.90120E-28
4.41190E-02 4.34684E-28
4.50194E-02 3.84290E-28
4.59284E-02 3.38643E-28
4.68461E-02 2.97451E-28
4.87074E-02 2.27278E-28
5.06030E-02 1.71509E-28
5.25328E-02 1.27982E-28
5.44967E-02 9.46698E-29
5.64946E-02 6.97172E-29
5.85262E-02 5.14623E-29
6.05914E-02 3.84502E-29
6.26901E-02 2.94364E-29
6.48222E-02 2.33812E-29
6.69873E-02 1.94382E-29
6.91854E-02 1.69363E-29
7.14163E-02 1.53600E-29
7.36799E-02 1.43274E-29
7.59760E-02 1.35679E-29
7.83043E-02 1.29013E-29
8.06647E-02 1.22179E-29
8.30571E-02 1.14615E-29
8.54812E-02 1.06139E-29
8.79369E-02 9.68251E-30
9.04240E-02 8.69037E-30
9.29422E-02 7.66817E-30
9.54915E-02 6.64853E-30
9.80716E-02 5.66198E-30
1.00682E-01 4.73440E-30
1.03323E-01 3.88571E-30
1.05995E-01 3.12937E-30
1.08696E-01 2.47261E-30
1.11427E-01 1.91710E-30
1.14188E-01 1.45984E-30
1.16978E-01 1.09420E-30
1.19797E-01 8.11024E-31
1.22645E-01 5.99568E-31
1.25522E-01 4.48398E-31
1.28428E-01 3.46107E-31
1.31361E-01 2.81879E-31
1.34323E-01 2.45899E-31
1.37313E-01 2.29608E-31
1.40330E-01 2.25843E-31
1.43375E-01 2.28858E-31
1.46447E-01 2.34271E-31
1.49545E-01 2.38946E-31
1.52671E-01 2.40837E-31
1.55823E-01 2.38813E-31
1.59001E-01 2.32467E-31
1.62205E-01 2.21945E-31
1.65435E-01 2.07774E-31
1.68690E-01 1.90721E-31
1.71970E-01 1.71672E-31
1.75276E-01 1.51533E-31
1.78606E-01 1.31155E-31
1.81961E-01 1.11289E-31
1.85340E-01 9.25490E-32
1.88743E-01 7.54010E-32
1.92169E-01 6.01611E-32
1.95619E-01 4.70043E-32
1.99092E-01 3.59811E-32
2.02589E-01 2.70376E-32
2.06107E-01 2.00382E-32
2.09649E-01 1.47883E-32
2.13212E-01 1.10557E-32
2.16797E-01 8.58979E-33
2.20404E-01 7.13791E-33
2.24032E-01 6.45811E-33
2.27680E-01 6.32912E-33
2.31350E-01 6.55683E-33
2.35040E-01 6.97816E-33
2.38751E-01 7.46234E-33
2.42481E-01 7.91036E-33
2.46231E-01 8.25275E-33
2.50000E-01 8.44637E-33
2.53788E-01 8.47053E-33
2.57595E-01 8.32273E-33
2.61421E-01 8.01442E-33
2.65264E-01 7.56700E-33
2.69126E-01 7.00809E-33
2.73005E-01 6.36842E-33
2.76901E-01 5.67916E-33
2.80814E-01 4.96992E-33
2.84744E-01 4.26718E-33
2.88691E-01 3.59336E-33
2.92653E-01 2.96628E-33
2.96632E-01 2.39895E-33
3.00625E-01 1.89978E-33
3.04634E-01 1.47294E-33
3.08658E-01 1.11887E-33
3.12697E-01 8.34965E-34
3.16749E-01 6.16191E-34
3.20816E-01 4.55800E-34
3.24896E-01 3.45938E-34
3.28990E-01 2.78211E-34
3.33097E-01 2.44176E-34
3.37216E-01 2.35723E-34
3.41348E-01 2.45385E-34
3.45492E-01 2.66545E-34
3.49647E-01 2.93567E-34
3.53814E-01 3.21856E-34
3.57992E-01 3.47851E-34
3.62181E-01 3.68980E-34
3.66381E-01 3.83567E-34
3.70590E-01 3.90726E-34
3.74810E-01 3.90231E-34
3.79039E-01 3.82388E-34
3.83277E-01 3.67901E-34
3.87524E-01 3.47754E-34
3.91780E-01 3.23099E-34
3.96044E-01 2.95159E-34
4.00316E-01 2.65155E-34
4.04596E-01 2.34236E-34
4.08882E-01 2.03435E-34
4.13176E-01 1.73642E-34
4.17476E-01 1.45580E-34
4.21783E-01 1.19801E-34
4.26095E-01 9.66923E-35
4.30413E-01 7.64817E-35
4.34737E-01 5.92573E-35
4.39065E-01 4.49862E-35
4.43398E-01 3.35360E-35
4.47736E-01 2.46967E-35
4.52077E-01 1.82029E-35
4.56422E-01 1.37533E-35
4.60770E-01 1.10292E-35
4.65122E-01 9.70965E-36
4.69476E-01 9.48442E-36
4.73832E-01 1.00641E-35
4.78190E-01 1.11873E-35
4.82550E-01 1.26257E-35
4.86912E-01 1.41865E-35
4.91274E-01 1.57134E-35
4.95637E-01 1.70854E-35
5.00000E-01 1.82150E-35
5.04363E-01 1.90448E-35
5.08726E-01 1.95443E-35
5.13088E-01 1.97054E-35
5.17450E-01 1.95386E-35
5.21810E-01 1.90688E-35
5.26168E-01 1.83312E-35
5.30524E-01 1.73679E-35
5.34878E-01 1.62252E-35
5.39230E-01 1.49502E-35
5.43578E-01 1.35889E-35
5.47923E-01 1.21846E-35
5.52264E-01 1.07764E-35
5.56602E-01 9.39855E-36
5.60935E-01 8.07957E-36
5.65263E-01 6.84239E-36
5.69587E-01 5.70424E-36
5.73905E-01 4.67698E-36
5.78217E-01 3.76747E-36
5.82524E-01 2.97824E-36
5.86824E-01 2.30794E-36
5.91118E-01 1.75213E-36
5.95404E-01 1.30383E-36
5.99684E-01 9.54186E-37
6.03956E-01 6.93077E-37
6.08220E-01 5.09581E-37
6.12476E-01 3.92507E-37
6.16723E-01 3.30743E-37
6.20961E-01 3.13586E-37
6.25190E-01 3.31002E-37
6.29410E-01 3.73816E-37
6.33619E-01 4.33830E-37
6.37819E-01 5.03898E-37
6.42008E-01 5.77959E-37
6.46186E-01 6.51022E-37
6.50353E-01 7.19118E-37
6.54508E-01 7.79240E-37
6.58652E-01 8.29255E-37
6.62784E-01 8.67808E-37
6.66903E-01 8.94220E-37
6.71010E-01 9.08378E-37
6.75104E-01 9.10645E-37
6.79184E-01 9.01745E-37
6.83251E-01 8.82680E-37
6.87303E-01 8.54654E-37
6.91342E-01 8.18980E-37
6.95366E-01 7.77025E-37
6.99375E-01 7.30183E-37
7.03368E-01 6.79782E-37
7.07347E-01 6.27079E-37
7.11309E-01 5.73245E-37
7.15256E-01 5.19317E-37
7.19186E-01 4.66202E-37
7.23099E-01 4.14688E-37
7.26995E-01 3.65402E-37
7.30874E-01 3.18869E-37
7.34736E-01 2.75462E-37
7.38579E-01 2.35454E-37
7.42405E-01 1.99008E-37
7.46212E-01 1.66195E-37
7.50000E-01 1.37011E-37
7.53769E-01 1.11373E-37
7.57519E-01 8.91517E-38
7.61249E-01 7.01652E-38
7.64960E-01 5.42022E-38
7.68650E-01 4.10315E-38
7.72320E-01 1.00000E-45
7.75968E-01 1.00000E-45
7.79596E-01 1.00000E-45
7.83203E-01 1.00000E-45
7.86788E-01 1.00000E-45
7.90351E-01 1.00000E-45
7.93893E-01 1.00000E-45
7.97411E-01 1.00000E-45
8.00908E-01 1.00000E-45
8.04381E-01 1.00000E-45
8.07831E-01 1.00000E-45
8.11257E-01 1.00000E-45
8.14660E-01 1.00000E-45
8.18039E-01 1.00000E-45
8.21394E-01 1.00000E-45
8.24724E-01 1.00000E-45
8.28030E-01 1.00000E-45
8.31310E-01 1.00000E-45
8.34565E-01 1.00000E-45
8.37795E-01 1.00000E-45
8.40999E-01 1.00000E-45
8.44177E-01 1.00000E-45
8.47329E-01 1.00000E-45
8.50455E-01 1.00000E-45
8.53553E-01 1.00000E-45
8.56625E-01 1.00000E-45
8.59670E-01 1.00000E-45
8.62687E-01 1.00000E-45
8.65677E-01 1.00000E-45
8.68639E-01 1.00000E-45
8.71572E-01 1.00000E-45
8.74478E-01 1.00000E-45
8.77355E-01 1.00000E-45
8.80203E-01 1.00000E-45
8.83022E-01 1.00000E-45
8.85812E-01 1.00000E-45
8.88573E-01 1.00000E-45
8.91304E-01 1.00000E-45
8.94005E-01 1.00000E-45
8.96677E-01 1.00000E-45
8.99318E-01 1.00000E-45
9.01928E-01 1.00000E-45
9.04508E-01 1.00000E-45
9.07058E-01 1.00000E-45
9.09576E-01 1.00000E-45
9.12063E-01 1.00000E-45
9.14519E-01 1.00000E-45
9.16943E-01 1.00000E-45
9.19335E-01 1.00000E-45
9.21696E-01 1.00000E-45
9.24024E-01 1.00000E-45
9.26320E-01 1.00000E-45
9.28584E-01 1.00000E-45
9.30815E-01 1.00000E-45
9.33013E-01 1.00000E-45
9.35178E-01 1.00000E-45
9.37310E-01 1.00000E-45
9.39409E-01 1.00000E-45
9.41474E-01 1.00000E-45
9.43505E-01 1.00000E-45
9.45503E-01 1.00000E-45
9.47467E-01 1.00000E-45
9.49397E-01 1.00000E-45
9.51293E-01 1.00000E-45
9.53154E-01 1.00000E-45
9.54981E-01 1.00000E-45
9.56773E-01 1.00000E-45
9.58530E-01 1.00000E-45
9.60252E-01 1.00000E-45
9.61940E-01 1.00000E-45
9.63592E-01 1.00000E-45
9.65209E-01 1.00000E-45
9.66790E-01 1.00000E-45
9.68336E-01 1.00000E-45
9.69846E-01 1.00000E-45
9.71321E-01 1.00000E-45
9.72759E-01 1.00000E-45
9.74162E-01 1.00000E-45
9.75528E-01 1.00000E-45
9.76858E-01 1.00000E-45
9.78152E-01 1.00000E-45
9.79410E-01 1.00000E-45
9.80631E-01 1.00000E-45
9.81815E-01 1.00000E-45
9.82963E-01 1.00000E-45
9.84074E-01 1.00000E-45
9.85148E-01 1.00000E-45
9.86185E-01 1.00000E-45
9.87185E-01 1.00000E-45
9.88148E-01 1.00000E-45
9.89074E-01 1.00000E-45
9.89962E-01 1.00000E-45
9.90814E-01 1.00000E-45
9.91627E-01 1.00000E-45
9.92404E-01 1.00000E-45
9.93143E-01 1.00000E-45
9.93844E-01 1.00000E-45
9.94508E-01 1.00000E-45
9.95134E-01 1.00000E-45
9.95722E-01 1.00000E-45
9.96273E-01 1.00000E-45
9.96786E-01 1.00000E-45
9.97261E-01 1.00000E-45
9.97698E-01 1.00000E-45
9.98097E-01 1.00000E-45
9.98459E-01 1.00000E-45
9.98782E-01 1.00000E-45
9.99067E-01 1.00000E-45
9.99315E-01 1.00000E-45
9.99524E-01 1.00000E-45
9.99695E-01 1.00000E-45
9.99829E-01 1.00000E-45
9.99924E-01 1.00000E-45
9.99981E-01 1.00000E-45
1.00000E+00 1.00000E-45
