 #
 # Subroutine ELSEPA. Elastic scattering of electrons and positrons
 #                    by neutral atoms and positive ions
 #
 # Projectile: electron
 # Kinetic energy = 7.00000E+06 eV = 2.57245E+05 a.u.
 #
 # WARNING: High-energy factorization with free-atom DF screening.
 #          Absorption, polarization and exchange corrections are
 #          switched off.
 #          Phase shifts are calculated for the bare nucleus.
 #          Scattering amplitudes are not evaluated.
 #
 # Element: Ir,  Z =  77,  atomic weight = 1.92217E+02 g/mol
 #
 # Nuclear model: Fermi distribution
 #                Average radius = 6.17515E-13 cm
 #                Skin thickness = 5.46000E-14 cm
 #
 # Number of electrons = 77
 #
 # Total elastic cross section = 7.78528E-18 cm**2 = 2.78017E-01 a0**2
 # 1st transport cross section = 1.82806E-22 cm**2 = 6.52812E-06 a0**2
 # 2nd transport cross section = 4.97188E-22 cm**2 = 1.77549E-05 a0**2
 #
 #
 # Differential cross section:                       MU=(1-COS(THETA))/2
 #
 #  THETA        MU          DCS          DCS        Sherman      error
 #  (deg)                 (cm**2/sr)   (a0**2/sr)    function
 #----------------------------------------------------------------------
0.00000E+00 2.76605E-12
7.61557E-13 2.76602E-12
1.18994E-12 2.76600E-12
1.71346E-12 2.76598E-12
2.33225E-12 2.76596E-12
3.04617E-12 2.76593E-12
3.85530E-12 2.76589E-12
4.75964E-12 2.76586E-12
5.75917E-12 2.76582E-12
6.85391E-12 2.76577E-12
8.04379E-12 2.76572E-12
9.32893E-12 2.76567E-12
1.07092E-11 2.76562E-12
1.21847E-11 2.76556E-12
1.37554E-11 2.76549E-12
1.54213E-11 2.76543E-12
1.71823E-11 2.76535E-12
1.90386E-11 2.76528E-12
2.09900E-11 2.76520E-12
2.30367E-11 2.76512E-12
2.51785E-11 2.76503E-12
2.74156E-11 2.76494E-12
2.97478E-11 2.76485E-12
3.21752E-11 2.76475E-12
3.46979E-11 2.76465E-12
3.73157E-11 2.76454E-12
4.00286E-11 2.76443E-12
4.28368E-11 2.76432E-12
4.57402E-11 2.76420E-12
4.87388E-11 2.76408E-12
5.18325E-11 2.76395E-12
5.50215E-11 2.76382E-12
5.83057E-11 2.76369E-12
6.16850E-11 2.76356E-12
6.51595E-11 2.76342E-12
6.87293E-11 2.76327E-12
7.23943E-11 2.76312E-12
7.61544E-11 2.76297E-12
1.18991E-10 2.76124E-12
1.71347E-10 2.75914E-12
2.33223E-10 2.75665E-12
3.04617E-10 2.75378E-12
3.85531E-10 2.75054E-12
4.75965E-10 2.74693E-12
5.75917E-10 2.74294E-12
6.85389E-10 2.73859E-12
8.04380E-10 2.73387E-12
9.32891E-10 2.72879E-12
1.07092E-09 2.72336E-12
1.21847E-09 2.71757E-12
1.37554E-09 2.71142E-12
1.54213E-09 2.70494E-12
1.71823E-09 2.69811E-12
1.90386E-09 2.69095E-12
2.09900E-09 2.68345E-12
2.30367E-09 2.67563E-12
2.51785E-09 2.66748E-12
2.74156E-09 2.65902E-12
2.97478E-09 2.65025E-12
3.21752E-09 2.64118E-12
3.46978E-09 2.63181E-12
3.73156E-09 2.62214E-12
4.00286E-09 2.61219E-12
4.28368E-09 2.60186E-12
4.57402E-09 2.59125E-12
4.87388E-09 2.58041E-12
5.18326E-09 2.56935E-12
5.50215E-09 2.55809E-12
5.83057E-09 2.54662E-12
6.16850E-09 2.53496E-12
6.51596E-09 2.52298E-12
6.87293E-09 2.51059E-12
7.23942E-09 2.49804E-12
7.61544E-09 2.48533E-12
1.18991E-08 2.34879E-12
1.71347E-08 2.19874E-12
2.33223E-08 2.04189E-12
3.04617E-08 1.88472E-12
3.85531E-08 1.73031E-12
4.75965E-08 1.58297E-12
5.75917E-08 1.44495E-12
6.85389E-08 1.31616E-12
8.04380E-08 1.19837E-12
9.32891E-08 1.09105E-12
1.07092E-07 9.93456E-13
1.21847E-07 9.05578E-13
1.37554E-07 8.26187E-13
1.54213E-07 7.54670E-13
1.71823E-07 6.90479E-13
1.90386E-07 6.32444E-13
2.09900E-07 5.80242E-13
2.30367E-07 5.33235E-13
2.51785E-07 4.90612E-13
2.74156E-07 4.52164E-13
2.97478E-07 4.17328E-13
3.21752E-07 3.85667E-13
3.46978E-07 3.56966E-13
3.73156E-07 3.30796E-13
4.00286E-07 3.06946E-13
4.28368E-07 2.83892E-13
4.57402E-07 2.62847E-13
4.87388E-07 2.44165E-13
5.18325E-07 2.27525E-13
5.50215E-07 2.12656E-13
5.83057E-07 1.99329E-13
6.16850E-07 1.87347E-13
6.51596E-07 1.75764E-13
6.87293E-07 1.64161E-13
7.23942E-07 1.53702E-13
7.61543E-07 1.44249E-13
1.18991E-06 8.14716E-14
1.71347E-06 4.94794E-14
2.33223E-06 3.18209E-14
3.04617E-06 2.14385E-14
3.85531E-06 1.48821E-14
4.75964E-06 1.06145E-14
5.75916E-06 7.74998E-15
6.85388E-06 5.76405E-15
8.04378E-06 4.37264E-15
9.32888E-06 3.37635E-15
1.07092E-05 2.64927E-15
1.21846E-05 2.10864E-15
1.37553E-05 1.70175E-15
1.54212E-05 1.39054E-15
1.71822E-05 1.14876E-15
1.90385E-05 9.57075E-16
2.09899E-05 8.05050E-16
2.30365E-05 6.82137E-16
2.51783E-05 5.81665E-16
2.74153E-05 4.99078E-16
2.97475E-05 4.30650E-16
3.21749E-05 3.73548E-16
3.46974E-05 3.25655E-16
3.73152E-05 2.85193E-16
4.00281E-05 2.50840E-16
4.28362E-05 2.21379E-16
4.57395E-05 1.96197E-16
4.87380E-05 1.74640E-16
5.18317E-05 1.55800E-16
5.50205E-05 1.39453E-16
5.83045E-05 1.25276E-16
6.16838E-05 1.12754E-16
6.51582E-05 1.01789E-16
6.87277E-05 9.21784E-17
7.23925E-05 8.36118E-17
7.61524E-05 7.60412E-17
9.21439E-05 5.31436E-17
1.09658E-04 3.82273E-17
1.28695E-04 2.82062E-17
1.49255E-04 2.12644E-17
1.71338E-04 1.63328E-17
1.94942E-04 1.27551E-17
2.20070E-04 1.01065E-17
2.46720E-04 8.11234E-18
2.74892E-04 6.58806E-18
3.04586E-04 5.40569E-18
3.35803E-04 4.47762E-18
3.68542E-04 3.74081E-18
4.02802E-04 3.14943E-18
4.38585E-04 2.67062E-18
4.75889E-04 2.27947E-18
5.14715E-04 1.95736E-18
5.55063E-04 1.69024E-18
5.96931E-04 1.46715E-18
6.40321E-04 1.27969E-18
6.85233E-04 1.12127E-18
7.31665E-04 9.86597E-19
7.79618E-04 8.71574E-19
8.29092E-04 7.72854E-19
8.80086E-04 6.87724E-19
9.32601E-04 6.14020E-19
9.86636E-04 5.49943E-19
1.04219E-03 4.94020E-19
1.09927E-03 4.45047E-19
1.15786E-03 4.02003E-19
1.21797E-03 3.64052E-19
1.27961E-03 3.30489E-19
1.34276E-03 3.00713E-19
1.40743E-03 2.74228E-19
1.47362E-03 2.50605E-19
1.54133E-03 2.29479E-19
1.61056E-03 2.10542E-19
1.68131E-03 1.93526E-19
1.75357E-03 1.78200E-19
1.82735E-03 1.64369E-19
1.90265E-03 1.51860E-19
1.97947E-03 1.40523E-19
2.05780E-03 1.30230E-19
2.13765E-03 1.20866E-19
2.21902E-03 1.12333E-19
2.30190E-03 1.04544E-19
2.38630E-03 9.74219E-20
2.47222E-03 9.08994E-20
2.55965E-03 8.49164E-20
2.64859E-03 7.94205E-20
2.73905E-03 7.43647E-20
2.83103E-03 6.97071E-20
2.92452E-03 6.54107E-20
3.01952E-03 6.14424E-20
3.11604E-03 5.77722E-20
3.21407E-03 5.43739E-20
3.31362E-03 5.12234E-20
3.41468E-03 4.82993E-20
3.51725E-03 4.55823E-20
3.62133E-03 4.30551E-20
3.72692E-03 4.07018E-20
3.83403E-03 3.85084E-20
3.94265E-03 3.64617E-20
4.05278E-03 3.45503E-20
4.16442E-03 3.27633E-20
4.27757E-03 3.10916E-20
4.39223E-03 2.95256E-20
4.50840E-03 2.80581E-20
4.62608E-03 2.66812E-20
4.74527E-03 2.53886E-20
4.86597E-03 2.41740E-20
4.98817E-03 2.30317E-20
5.11188E-03 2.19568E-20
5.23711E-03 2.09444E-20
5.36383E-03 1.99903E-20
5.49207E-03 1.90903E-20
5.62181E-03 1.82410E-20
5.75306E-03 1.74387E-20
5.88581E-03 1.66806E-20
6.02007E-03 1.59636E-20
6.15583E-03 1.52852E-20
6.29310E-03 1.46428E-20
6.43187E-03 1.40341E-20
6.57214E-03 1.34571E-20
6.71392E-03 1.29098E-20
6.85720E-03 1.23903E-20
7.00198E-03 1.18970E-20
7.14827E-03 1.14283E-20
7.29605E-03 1.09827E-20
7.44534E-03 1.05589E-20
7.59612E-03 1.01555E-20
7.97965E-03 9.22936E-21
8.37255E-03 8.40762E-21
8.77480E-03 7.67647E-21
9.18641E-03 7.02412E-21
9.60736E-03 6.44054E-21
1.00376E-02 5.91717E-21
1.04773E-02 5.44666E-21
1.09262E-02 5.02269E-21
1.13844E-02 4.63984E-21
1.18520E-02 4.29334E-21
1.23288E-02 3.97914E-21
1.28150E-02 3.69365E-21
1.33104E-02 3.43375E-21
1.38150E-02 3.19674E-21
1.43290E-02 2.98020E-21
1.48521E-02 2.78205E-21
1.53845E-02 2.60042E-21
1.59262E-02 2.43368E-21
1.64770E-02 2.28037E-21
1.70371E-02 2.13920E-21
1.76063E-02 2.00903E-21
1.81848E-02 1.88883E-21
1.87724E-02 1.77770E-21
1.93692E-02 1.67482E-21
1.99751E-02 1.57945E-21
2.05901E-02 1.49094E-21
2.12143E-02 1.40870E-21
2.18476E-02 1.33221E-21
2.24900E-02 1.26097E-21
2.31415E-02 1.19456E-21
2.38021E-02 1.13258E-21
2.44717E-02 1.07469E-21
2.51504E-02 1.02055E-21
2.58382E-02 9.69880E-22
2.65349E-02 9.22407E-22
2.72407E-02 8.77892E-22
2.79555E-02 8.36112E-22
2.86793E-02 7.96866E-22
2.94120E-02 7.59969E-22
3.01537E-02 7.25252E-22
3.09043E-02 6.92559E-22
3.16639E-02 6.61749E-22
3.24324E-02 6.32692E-22
3.32098E-02 6.05265E-22
3.39961E-02 5.79361E-22
3.47912E-02 5.54877E-22
3.55952E-02 5.31717E-22
3.64081E-02 5.09798E-22
3.72297E-02 4.89038E-22
3.80602E-02 4.69362E-22
3.88995E-02 4.50704E-22
3.97476E-02 4.32998E-22
4.06044E-02 4.16187E-22
4.14700E-02 4.00214E-22
4.23443E-02 3.85031E-22
4.32273E-02 3.70590E-22
4.41190E-02 3.56846E-22
4.50194E-02 3.43759E-22
4.59284E-02 3.31291E-22
4.68461E-02 3.19406E-22
4.87074E-02 2.97256E-22
5.06030E-02 2.77070E-22
5.25328E-02 2.58637E-22
5.44967E-02 2.41775E-22
5.64946E-02 2.26323E-22
5.85262E-02 2.12138E-22
6.05914E-02 1.99094E-22
6.26901E-02 1.87081E-22
6.48222E-02 1.76000E-22
6.69873E-02 1.65764E-22
6.91854E-02 1.56295E-22
7.14163E-02 1.47522E-22
7.36799E-02 1.39385E-22
7.59760E-02 1.31826E-22
7.83043E-02 1.24796E-22
8.06647E-02 1.18251E-22
8.30571E-02 1.12149E-22
8.54812E-02 1.06453E-22
8.79369E-02 1.01132E-22
9.04240E-02 9.61540E-23
9.29422E-02 9.14931E-23
9.54915E-02 8.71244E-23
9.80716E-02 8.30255E-23
1.00682E-01 7.91760E-23
1.03323E-01 7.55574E-23
1.05995E-01 7.21528E-23
1.08696E-01 6.89466E-23
1.11427E-01 6.59247E-23
1.14188E-01 6.30741E-23
1.16978E-01 6.03829E-23
1.19797E-01 5.78401E-23
1.22645E-01 5.54358E-23
1.25522E-01 5.31606E-23
1.28428E-01 5.10061E-23
1.31361E-01 4.89643E-23
1.34323E-01 4.70281E-23
1.37313E-01 4.51907E-23
1.40330E-01 4.34459E-23
1.43375E-01 4.17879E-23
1.46447E-01 4.02114E-23
1.49545E-01 3.87116E-23
1.52671E-01 3.72838E-23
1.55823E-01 3.59238E-23
1.59001E-01 3.46275E-23
1.62205E-01 3.33913E-23
1.65435E-01 3.22117E-23
1.68690E-01 3.10857E-23
1.71970E-01 3.00102E-23
1.75276E-01 2.89822E-23
1.78606E-01 2.79992E-23
1.81961E-01 2.70591E-23
1.85340E-01 2.61593E-23
1.88743E-01 2.52975E-23
1.92169E-01 2.44719E-23
1.95619E-01 2.36808E-23
1.99092E-01 2.29222E-23
2.02589E-01 2.21944E-23
2.06107E-01 2.14960E-23
2.09649E-01 2.08255E-23
2.13212E-01 2.01815E-23
2.16797E-01 1.95627E-23
2.20404E-01 1.89679E-23
2.24032E-01 1.83959E-23
2.27680E-01 1.78457E-23
2.31350E-01 1.73162E-23
2.35040E-01 1.68064E-23
2.38751E-01 1.63155E-23
2.42481E-01 1.58426E-23
2.46231E-01 1.53869E-23
2.50000E-01 1.49476E-23
2.53788E-01 1.45239E-23
2.57595E-01 1.41152E-23
2.61421E-01 1.37208E-23
2.65264E-01 1.33402E-23
2.69126E-01 1.29726E-23
2.73005E-01 1.26176E-23
2.76901E-01 1.22747E-23
2.80814E-01 1.19432E-23
2.84744E-01 1.16228E-23
2.88691E-01 1.13130E-23
2.92653E-01 1.10133E-23
2.96632E-01 1.07234E-23
3.00625E-01 1.04428E-23
3.04634E-01 1.01712E-23
3.08658E-01 9.90823E-24
3.12697E-01 9.65354E-24
3.16749E-01 9.40682E-24
3.20816E-01 9.16775E-24
3.24896E-01 8.93604E-24
3.28990E-01 8.71142E-24
3.33097E-01 8.49362E-24
3.37216E-01 8.28237E-24
3.41348E-01 8.07744E-24
3.45492E-01 7.87859E-24
3.49647E-01 7.68561E-24
3.53814E-01 7.49827E-24
3.57992E-01 7.31637E-24
3.62181E-01 7.13973E-24
3.66381E-01 6.96815E-24
3.70590E-01 6.80145E-24
3.74810E-01 6.63947E-24
3.79039E-01 6.48204E-24
3.83277E-01 6.32900E-24
3.87524E-01 6.18020E-24
3.91780E-01 6.03549E-24
3.96044E-01 5.89476E-24
4.00316E-01 5.75784E-24
4.04596E-01 5.62462E-24
4.08882E-01 5.49498E-24
4.13176E-01 5.36880E-24
4.17476E-01 5.24596E-24
4.21783E-01 5.12636E-24
4.26095E-01 5.00989E-24
4.30413E-01 4.89645E-24
4.34737E-01 4.78595E-24
4.39065E-01 4.67830E-24
4.43398E-01 4.57339E-24
4.47736E-01 4.47116E-24
4.52077E-01 4.37152E-24
4.56422E-01 4.27437E-24
4.60770E-01 4.17966E-24
4.65122E-01 4.08731E-24
4.69476E-01 3.99723E-24
4.73832E-01 3.90936E-24
4.78190E-01 3.82361E-24
4.82550E-01 3.73994E-24
4.86912E-01 3.65829E-24
4.91274E-01 3.57860E-24
4.95637E-01 3.50082E-24
5.00000E-01 3.42489E-24
5.04363E-01 3.35076E-24
5.08726E-01 3.27838E-24
5.13088E-01 3.20769E-24
5.17450E-01 3.13865E-24
5.21810E-01 3.07122E-24
5.26168E-01 3.00534E-24
5.30524E-01 2.94097E-24
5.34878E-01 2.87808E-24
5.39230E-01 2.81661E-24
5.43578E-01 2.75654E-24
5.47923E-01 2.69782E-24
5.52264E-01 2.64043E-24
5.56602E-01 2.58431E-24
5.60935E-01 2.52944E-24
5.65263E-01 2.47579E-24
5.69587E-01 2.42332E-24
5.73905E-01 2.37200E-24
5.78217E-01 2.32180E-24
5.82524E-01 2.27269E-24
5.86824E-01 2.22465E-24
5.91118E-01 2.17764E-24
5.95404E-01 2.13165E-24
5.99684E-01 2.08663E-24
6.03956E-01 2.04258E-24
6.08220E-01 1.99946E-24
6.12476E-01 1.95726E-24
6.16723E-01 1.91594E-24
6.20961E-01 1.87549E-24
6.25190E-01 1.83588E-24
6.29410E-01 1.79710E-24
6.33619E-01 1.75913E-24
6.37819E-01 1.72194E-24
6.42008E-01 1.68551E-24
6.46186E-01 1.64984E-24
6.50353E-01 1.61489E-24
6.54508E-01 1.58066E-24
6.58652E-01 1.54712E-24
6.62784E-01 1.51426E-24
6.66903E-01 1.48206E-24
6.71010E-01 1.45051E-24
6.75104E-01 1.41960E-24
6.79184E-01 1.38930E-24
6.83251E-01 1.35961E-24
6.87303E-01 1.33050E-24
6.91342E-01 1.30198E-24
6.95366E-01 1.27402E-24
6.99375E-01 1.24660E-24
7.03368E-01 1.21973E-24
7.07347E-01 1.19339E-24
7.11309E-01 1.16756E-24
7.15256E-01 1.14223E-24
7.19186E-01 1.11740E-24
7.23099E-01 1.09305E-24
7.26995E-01 1.06917E-24
7.30874E-01 1.04575E-24
7.34736E-01 1.02278E-24
7.38579E-01 1.00026E-24
7.42405E-01 9.78168E-25
7.46212E-01 9.56500E-25
7.50000E-01 9.35247E-25
7.53769E-01 9.14399E-25
7.57519E-01 8.93949E-25
7.61249E-01 8.73888E-25
7.64960E-01 8.54209E-25
7.68650E-01 8.34903E-25
7.72320E-01 8.15963E-25
7.75968E-01 7.97382E-25
7.79596E-01 7.79151E-25
7.83203E-01 7.61265E-25
7.86788E-01 7.43717E-25
7.90351E-01 7.26499E-25
7.93893E-01 7.09606E-25
7.97411E-01 6.93030E-25
8.00908E-01 6.76766E-25
8.04381E-01 6.60808E-25
8.07831E-01 6.45150E-25
8.11257E-01 6.29786E-25
8.14660E-01 6.14710E-25
8.18039E-01 5.99918E-25
8.21394E-01 5.85403E-25
8.24724E-01 5.71161E-25
8.28030E-01 5.57186E-25
8.31310E-01 5.43474E-25
8.34565E-01 5.30020E-25
8.37795E-01 5.16818E-25
8.40999E-01 5.03866E-25
8.44177E-01 4.91157E-25
8.47329E-01 4.78688E-25
8.50455E-01 4.66455E-25
8.53553E-01 4.54453E-25
8.56625E-01 4.42678E-25
8.59670E-01 4.31127E-25
8.62687E-01 4.19795E-25
8.65677E-01 4.08679E-25
8.68639E-01 3.97775E-25
8.71572E-01 3.87079E-25
8.74478E-01 3.76588E-25
8.77355E-01 3.66299E-25
8.80203E-01 3.56208E-25
8.83022E-01 3.46313E-25
8.85812E-01 3.36609E-25
8.88573E-01 3.27093E-25
8.91304E-01 3.17764E-25
8.94005E-01 3.08617E-25
8.96677E-01 2.99651E-25
8.99318E-01 2.90861E-25
9.01928E-01 2.82246E-25
9.04508E-01 2.73803E-25
9.07058E-01 2.65529E-25
9.09576E-01 2.57421E-25
9.12063E-01 2.49478E-25
9.14519E-01 2.41696E-25
9.16943E-01 2.34073E-25
9.19335E-01 2.26608E-25
9.21696E-01 2.19298E-25
9.24024E-01 2.12140E-25
9.26320E-01 2.05132E-25
9.28584E-01 1.98273E-25
9.30815E-01 1.91561E-25
9.33013E-01 1.84993E-25
9.35178E-01 1.78567E-25
9.37310E-01 1.72282E-25
9.39409E-01 1.66136E-25
9.41474E-01 1.60126E-25
9.43505E-01 1.54252E-25
9.45503E-01 1.48512E-25
9.47467E-01 1.42903E-25
9.49397E-01 1.37425E-25
9.51293E-01 1.32076E-25
9.53154E-01 1.26854E-25
9.54981E-01 1.21757E-25
9.56773E-01 1.16785E-25
9.58530E-01 1.11936E-25
9.60252E-01 1.07208E-25
9.61940E-01 1.02601E-25
9.63592E-01 9.81127E-26
9.65209E-01 9.37420E-26
9.66790E-01 8.94879E-26
9.68336E-01 8.53490E-26
9.69846E-01 8.13243E-26
9.71321E-01 7.74126E-26
9.72759E-01 7.36130E-26
9.74162E-01 6.99243E-26
9.75528E-01 6.63456E-26
9.76858E-01 6.28758E-26
9.78152E-01 5.95141E-26
9.79410E-01 5.62594E-26
9.80631E-01 5.31110E-26
9.81815E-01 5.00680E-26
9.82963E-01 4.71295E-26
9.84074E-01 4.42949E-26
9.85148E-01 4.15632E-26
9.86185E-01 3.89338E-26
9.87185E-01 3.64059E-26
9.88148E-01 3.39790E-26
9.89074E-01 3.16523E-26
9.89962E-01 2.94253E-26
9.90814E-01 2.72973E-26
9.91627E-01 2.52677E-26
9.92404E-01 2.33361E-26
9.93143E-01 2.15019E-26
9.93844E-01 1.97647E-26
9.94508E-01 1.81239E-26
9.95134E-01 1.65792E-26
9.95722E-01 1.51301E-26
9.96273E-01 1.37763E-26
9.96786E-01 1.25174E-26
9.97261E-01 1.13531E-26
9.97698E-01 1.02830E-26
9.98097E-01 9.30689E-27
9.98459E-01 8.42453E-27
9.98782E-01 7.63567E-27
9.99067E-01 6.94010E-27
9.99315E-01 6.33764E-27
9.99524E-01 5.82813E-27
9.99695E-01 5.41144E-27
9.99829E-01 5.08746E-27
9.99924E-01 4.85611E-27
9.99981E-01 4.71732E-27
1.00000E+00 4.67106E-27
