 #
 # Subroutine ELSEPA. Elastic scattering of electrons and positrons
 #                    by neutral atoms and positive ions
 #
 # Projectile: electron
 # Kinetic energy = 1.00000E+07 eV = 3.67493E+05 a.u.
 #
 # WARNING: High-energy factorization with free-atom DF screening.
 #          Absorption, polarization and exchange corrections are
 #          switched off.
 #          Phase shifts are calculated for the bare nucleus.
 #          Scattering amplitudes are not evaluated.
 #
 # Element: Ir,  Z =  77,  atomic weight = 1.92217E+02 g/mol
 #
 # Nuclear model: Fermi distribution
 #                Average radius = 6.17515E-13 cm
 #                Skin thickness = 5.46000E-14 cm
 #
 # Number of electrons = 77
 #
 # Total elastic cross section = 7.76470E-18 cm**2 = 2.77282E-01 a0**2
 # 1st transport cross section = 9.65035E-23 cm**2 = 3.44620E-06 a0**2
 # 2nd transport cross section = 2.65174E-22 cm**2 = 9.46952E-06 a0**2
 #
 #
 # Differential cross section:                       MU=(1-COS(THETA))/2
 #
 #  THETA        MU          DCS          DCS        Sherman      error
 #  (deg)                 (cm**2/sr)   (a0**2/sr)    function
 #----------------------------------------------------------------------
0.00000E+00 5.41692E-12
7.61557E-13 5.41680E-12
1.18994E-12 5.41674E-12
1.71346E-12 5.41665E-12
2.33225E-12 5.41656E-12
3.04617E-12 5.41644E-12
3.85530E-12 5.41632E-12
4.75964E-12 5.41618E-12
5.75917E-12 5.41602E-12
6.85391E-12 5.41585E-12
8.04379E-12 5.41566E-12
9.32893E-12 5.41546E-12
1.07092E-11 5.41525E-12
1.21847E-11 5.41502E-12
1.37554E-11 5.41477E-12
1.54213E-11 5.41452E-12
1.71823E-11 5.41424E-12
1.90386E-11 5.41395E-12
2.09900E-11 5.41365E-12
2.30367E-11 5.41333E-12
2.51785E-11 5.41300E-12
2.74156E-11 5.41265E-12
2.97478E-11 5.41229E-12
3.21752E-11 5.41191E-12
3.46979E-11 5.41152E-12
3.73157E-11 5.41111E-12
4.00286E-11 5.41069E-12
4.28368E-11 5.41026E-12
4.57402E-11 5.40980E-12
4.87388E-11 5.40934E-12
5.18325E-11 5.40886E-12
5.50215E-11 5.40836E-12
5.83057E-11 5.40786E-12
6.16850E-11 5.40733E-12
6.51595E-11 5.40679E-12
6.87293E-11 5.40624E-12
7.23943E-11 5.40567E-12
7.61544E-11 5.40509E-12
1.18991E-10 5.39846E-12
1.71347E-10 5.39039E-12
2.33223E-10 5.38087E-12
3.04617E-10 5.36992E-12
3.85531E-10 5.35757E-12
4.75965E-10 5.34382E-12
5.75917E-10 5.32869E-12
6.85389E-10 5.31221E-12
8.04380E-10 5.29440E-12
9.32891E-10 5.27528E-12
1.07092E-09 5.25488E-12
1.21847E-09 5.23322E-12
1.37554E-09 5.21034E-12
1.54213E-09 5.18625E-12
1.71823E-09 5.16101E-12
1.90386E-09 5.13463E-12
2.09900E-09 5.10712E-12
2.30367E-09 5.07825E-12
2.51785E-09 5.04850E-12
2.74156E-09 5.01791E-12
2.97478E-09 4.98654E-12
3.21752E-09 4.95443E-12
3.46978E-09 4.92076E-12
3.73156E-09 4.88630E-12
4.00286E-09 4.85125E-12
4.28368E-09 4.81566E-12
4.57402E-09 4.77958E-12
4.87388E-09 4.74223E-12
5.18326E-09 4.70401E-12
5.50215E-09 4.66544E-12
5.83057E-09 4.62657E-12
6.16850E-09 4.58744E-12
6.51596E-09 4.54748E-12
6.87293E-09 4.50645E-12
7.23942E-09 4.46531E-12
7.61544E-09 4.42408E-12
1.18991E-08 3.99705E-12
1.71347E-08 3.56619E-12
2.33223E-08 3.15421E-12
3.04617E-08 2.77486E-12
3.85531E-08 2.43452E-12
4.75965E-08 2.13448E-12
5.75917E-08 1.87285E-12
6.85389E-08 1.64604E-12
8.04380E-08 1.45001E-12
9.32891E-08 1.28086E-12
1.07092E-07 1.13475E-12
1.21847E-07 1.00829E-12
1.37554E-07 8.98564E-13
1.54213E-07 8.03075E-13
1.71823E-07 7.19722E-13
1.90386E-07 6.46737E-13
2.09900E-07 5.82135E-13
2.30367E-07 5.21638E-13
2.51785E-07 4.70486E-13
2.74156E-07 4.26951E-13
2.97478E-07 3.89666E-13
3.21752E-07 3.57546E-13
3.46978E-07 3.25182E-13
3.73156E-07 2.96555E-13
4.00286E-07 2.71693E-13
4.28368E-07 2.49995E-13
4.57402E-07 2.30971E-13
4.87388E-07 2.12711E-13
5.18325E-07 1.95841E-13
5.50215E-07 1.80945E-13
5.83057E-07 1.67742E-13
6.16850E-07 1.55996E-13
6.51596E-07 1.45039E-13
6.87293E-07 1.34621E-13
7.23942E-07 1.25297E-13
7.61543E-07 1.16926E-13
1.18991E-06 6.21645E-14
1.71347E-06 3.60193E-14
2.33223E-06 2.21346E-14
3.04617E-06 1.42310E-14
3.85531E-06 9.51416E-15
4.75964E-06 6.59063E-15
5.75916E-06 4.71215E-15
6.85388E-06 3.46342E-15
8.04378E-06 2.61004E-15
9.32888E-06 2.00769E-15
1.07092E-05 1.57067E-15
1.21846E-05 1.24688E-15
1.37553E-05 1.00288E-15
1.54212E-05 8.16049E-16
1.71822E-05 6.70814E-16
1.90385E-05 5.56095E-16
2.09899E-05 4.65331E-16
2.30365E-05 3.92012E-16
2.51783E-05 3.33042E-16
2.74153E-05 2.84212E-16
2.97475E-05 2.44294E-16
3.21749E-05 2.10911E-16
3.46974E-05 1.83210E-16
3.73152E-05 1.59833E-16
4.00281E-05 1.40157E-16
4.28362E-05 1.23376E-16
4.57395E-05 1.09061E-16
4.87380E-05 9.67397E-17
5.18317E-05 8.61130E-17
5.50205E-05 7.68970E-17
5.83045E-05 6.88796E-17
6.16838E-05 6.18833E-17
6.51582E-05 5.57508E-17
6.87277E-05 5.03671E-17
7.23925E-05 4.56137E-17
7.61524E-05 4.14132E-17
9.21439E-05 2.87545E-17
1.09658E-04 2.05873E-17
1.28695E-04 1.51296E-17
1.49255E-04 1.13683E-17
1.71338E-04 8.70826E-18
1.94942E-04 6.78321E-18
2.20070E-04 5.36212E-18
2.46720E-04 4.29447E-18
2.74892E-04 3.47974E-18
3.04586E-04 2.84932E-18
3.35803E-04 2.35537E-18
3.68542E-04 1.96394E-18
4.02802E-04 1.65054E-18
4.38585E-04 1.39723E-18
4.75889E-04 1.19071E-18
5.14715E-04 1.02100E-18
5.55063E-04 8.80505E-19
5.96931E-04 7.63392E-19
6.40321E-04 6.65143E-19
6.85233E-04 5.82227E-19
7.31665E-04 5.11863E-19
7.79618E-04 4.51833E-19
8.29092E-04 4.00372E-19
8.80086E-04 3.56050E-19
9.32601E-04 3.17710E-19
9.86636E-04 2.84408E-19
1.04219E-03 2.55369E-19
1.09927E-03 2.29955E-19
1.15786E-03 2.07635E-19
1.21797E-03 1.87968E-19
1.27961E-03 1.70582E-19
1.34276E-03 1.55168E-19
1.40743E-03 1.41462E-19
1.47362E-03 1.29243E-19
1.54133E-03 1.18319E-19
1.61056E-03 1.08530E-19
1.68131E-03 9.97373E-20
1.75357E-03 9.18206E-20
1.82735E-03 8.46772E-20
1.90265E-03 7.82182E-20
1.97947E-03 7.23661E-20
2.05780E-03 6.70538E-20
2.13765E-03 6.22220E-20
2.21902E-03 5.78200E-20
2.30190E-03 5.38026E-20
2.38630E-03 5.01297E-20
2.47222E-03 4.67664E-20
2.55965E-03 4.36820E-20
2.64859E-03 4.08492E-20
2.73905E-03 3.82437E-20
2.83103E-03 3.58436E-20
2.92452E-03 3.36300E-20
3.01952E-03 3.15857E-20
3.11604E-03 2.96955E-20
3.21407E-03 2.79452E-20
3.31362E-03 2.63229E-20
3.41468E-03 2.48174E-20
3.51725E-03 2.34188E-20
3.62133E-03 2.21179E-20
3.72692E-03 2.09067E-20
3.83403E-03 1.97779E-20
3.94265E-03 1.87249E-20
4.05278E-03 1.77415E-20
4.16442E-03 1.68223E-20
4.27757E-03 1.59623E-20
4.39223E-03 1.51570E-20
4.50840E-03 1.44023E-20
4.62608E-03 1.36944E-20
4.74527E-03 1.30298E-20
4.86597E-03 1.24053E-20
4.98817E-03 1.18182E-20
5.11188E-03 1.12657E-20
5.23711E-03 1.07454E-20
5.36383E-03 1.02551E-20
5.49207E-03 9.79268E-21
5.62181E-03 9.35631E-21
5.75306E-03 8.94419E-21
5.88581E-03 8.55475E-21
6.02007E-03 8.18650E-21
6.15583E-03 7.83807E-21
6.29310E-03 7.50816E-21
6.43187E-03 7.19561E-21
6.57214E-03 6.89935E-21
6.71392E-03 6.61834E-21
6.85720E-03 6.35166E-21
7.00198E-03 6.09843E-21
7.14827E-03 5.85784E-21
7.29605E-03 5.62915E-21
7.44534E-03 5.41165E-21
7.59612E-03 5.20467E-21
7.97965E-03 4.72943E-21
8.37255E-03 4.30786E-21
8.77480E-03 3.93283E-21
9.18641E-03 3.59826E-21
9.60736E-03 3.29901E-21
1.00376E-02 3.03066E-21
1.04773E-02 2.78945E-21
1.09262E-02 2.57212E-21
1.13844E-02 2.37588E-21
1.18520E-02 2.19831E-21
1.23288E-02 2.03729E-21
1.28150E-02 1.89101E-21
1.33104E-02 1.75785E-21
1.38150E-02 1.63641E-21
1.43290E-02 1.52548E-21
1.48521E-02 1.42398E-21
1.53845E-02 1.33094E-21
1.59262E-02 1.24553E-21
1.64770E-02 1.16701E-21
1.70371E-02 1.09471E-21
1.76063E-02 1.02804E-21
1.81848E-02 9.66485E-22
1.87724E-02 9.09573E-22
1.93692E-02 8.56887E-22
1.99751E-02 8.08051E-22
2.05901E-02 7.62728E-22
2.12143E-02 7.20618E-22
2.18476E-02 6.81447E-22
2.24900E-02 6.44969E-22
2.31415E-02 6.10964E-22
2.38021E-02 5.79230E-22
2.44717E-02 5.49587E-22
2.51504E-02 5.21866E-22
2.58382E-02 4.95921E-22
2.65349E-02 4.71614E-22
2.72407E-02 4.48821E-22
2.79555E-02 4.27429E-22
2.86793E-02 4.07334E-22
2.94120E-02 3.88442E-22
3.01537E-02 3.70666E-22
3.09043E-02 3.53926E-22
3.16639E-02 3.38151E-22
3.24324E-02 3.23272E-22
3.32098E-02 3.09229E-22
3.39961E-02 2.95966E-22
3.47912E-02 2.83429E-22
3.55952E-02 2.71571E-22
3.64081E-02 2.60348E-22
3.72297E-02 2.49718E-22
3.80602E-02 2.39644E-22
3.88995E-02 2.30090E-22
3.97476E-02 2.21024E-22
4.06044E-02 2.12416E-22
4.14700E-02 2.04238E-22
4.23443E-02 1.96464E-22
4.32273E-02 1.89070E-22
4.41190E-02 1.82033E-22
4.50194E-02 1.75332E-22
4.59284E-02 1.68948E-22
4.68461E-02 1.62863E-22
4.87074E-02 1.51523E-22
5.06030E-02 1.41188E-22
5.25328E-02 1.31751E-22
5.44967E-02 1.23119E-22
5.64946E-02 1.15208E-22
5.85262E-02 1.07947E-22
6.05914E-02 1.01271E-22
6.26901E-02 9.51220E-23
6.48222E-02 8.94510E-23
6.69873E-02 8.42127E-23
6.91854E-02 7.93671E-23
7.14163E-02 7.48788E-23
7.36799E-02 7.07156E-23
7.59760E-02 6.68490E-23
7.83043E-02 6.32535E-23
8.06647E-02 5.99060E-23
8.30571E-02 5.67856E-23
8.54812E-02 5.38738E-23
8.79369E-02 5.11536E-23
9.04240E-02 4.86094E-23
9.29422E-02 4.62277E-23
9.54915E-02 4.39957E-23
9.80716E-02 4.19017E-23
1.00682E-01 3.99359E-23
1.03323E-01 3.80882E-23
1.05995E-01 3.63501E-23
1.08696E-01 3.47137E-23
1.11427E-01 3.31717E-23
1.14188E-01 3.17175E-23
1.16978E-01 3.03450E-23
1.19797E-01 2.90485E-23
1.22645E-01 2.78229E-23
1.25522E-01 2.66635E-23
1.28428E-01 2.55659E-23
1.31361E-01 2.45261E-23
1.34323E-01 2.35403E-23
1.37313E-01 2.26051E-23
1.40330E-01 2.17173E-23
1.43375E-01 2.08740E-23
1.46447E-01 2.00724E-23
1.49545E-01 1.93101E-23
1.52671E-01 1.85846E-23
1.55823E-01 1.78938E-23
1.59001E-01 1.72357E-23
1.62205E-01 1.66083E-23
1.65435E-01 1.60099E-23
1.68690E-01 1.54388E-23
1.71970E-01 1.48936E-23
1.75276E-01 1.43727E-23
1.78606E-01 1.38749E-23
1.81961E-01 1.33989E-23
1.85340E-01 1.29435E-23
1.88743E-01 1.25076E-23
1.92169E-01 1.20902E-23
1.95619E-01 1.16904E-23
1.99092E-01 1.13072E-23
2.02589E-01 1.09398E-23
2.06107E-01 1.05874E-23
2.09649E-01 1.02492E-23
2.13212E-01 9.92452E-24
2.16797E-01 9.61274E-24
2.20404E-01 9.31320E-24
2.24032E-01 9.02532E-24
2.27680E-01 8.74853E-24
2.31350E-01 8.48233E-24
2.35040E-01 8.22622E-24
2.38751E-01 7.97972E-24
2.42481E-01 7.74233E-24
2.46231E-01 7.51360E-24
2.50000E-01 7.29322E-24
2.53788E-01 7.08082E-24
2.57595E-01 6.87605E-24
2.61421E-01 6.67858E-24
2.65264E-01 6.48807E-24
2.69126E-01 6.30424E-24
2.73005E-01 6.12679E-24
2.76901E-01 5.95545E-24
2.80814E-01 5.78997E-24
2.84744E-01 5.63011E-24
2.88691E-01 5.47561E-24
2.92653E-01 5.32628E-24
2.96632E-01 5.18189E-24
3.00625E-01 5.04225E-24
3.04634E-01 4.90716E-24
3.08658E-01 4.77645E-24
3.12697E-01 4.64993E-24
3.16749E-01 4.52745E-24
3.20816E-01 4.40885E-24
3.24896E-01 4.29398E-24
3.28990E-01 4.18269E-24
3.33097E-01 4.07486E-24
3.37216E-01 3.97034E-24
3.41348E-01 3.86901E-24
3.45492E-01 3.77076E-24
3.49647E-01 3.67547E-24
3.53814E-01 3.58303E-24
3.57992E-01 3.49334E-24
3.62181E-01 3.40630E-24
3.66381E-01 3.32182E-24
3.70590E-01 3.23979E-24
3.74810E-01 3.16015E-24
3.79039E-01 3.08279E-24
3.83277E-01 3.00765E-24
3.87524E-01 2.93464E-24
3.91780E-01 2.86369E-24
3.96044E-01 2.79473E-24
4.00316E-01 2.72770E-24
4.04596E-01 2.66252E-24
4.08882E-01 2.59914E-24
4.13176E-01 2.53750E-24
4.17476E-01 2.47753E-24
4.21783E-01 2.41919E-24
4.26095E-01 2.36241E-24
4.30413E-01 2.30716E-24
4.34737E-01 2.25337E-24
4.39065E-01 2.20101E-24
4.43398E-01 2.15002E-24
4.47736E-01 2.10037E-24
4.52077E-01 2.05201E-24
4.56422E-01 2.00490E-24
4.60770E-01 1.95900E-24
4.65122E-01 1.91428E-24
4.69476E-01 1.87069E-24
4.73832E-01 1.82821E-24
4.78190E-01 1.78680E-24
4.82550E-01 1.74642E-24
4.86912E-01 1.70705E-24
4.91274E-01 1.66866E-24
4.95637E-01 1.63122E-24
5.00000E-01 1.59469E-24
5.04363E-01 1.55906E-24
5.08726E-01 1.52429E-24
5.13088E-01 1.49037E-24
5.17450E-01 1.45726E-24
5.21810E-01 1.42495E-24
5.26168E-01 1.39340E-24
5.30524E-01 1.36261E-24
5.34878E-01 1.33254E-24
5.39230E-01 1.30318E-24
5.43578E-01 1.27450E-24
5.47923E-01 1.24650E-24
5.52264E-01 1.21915E-24
5.56602E-01 1.19242E-24
5.60935E-01 1.16631E-24
5.65263E-01 1.14080E-24
5.69587E-01 1.11588E-24
5.73905E-01 1.09151E-24
5.78217E-01 1.06770E-24
5.82524E-01 1.04443E-24
5.86824E-01 1.02168E-24
5.91118E-01 9.99431E-25
5.95404E-01 9.77682E-25
5.99684E-01 9.56415E-25
6.03956E-01 9.35617E-25
6.08220E-01 9.15276E-25
6.12476E-01 8.95382E-25
6.16723E-01 8.75921E-25
6.20961E-01 8.56884E-25
6.25190E-01 8.38259E-25
6.29410E-01 8.20036E-25
6.33619E-01 8.02205E-25
6.37819E-01 7.84757E-25
6.42008E-01 7.67681E-25
6.46186E-01 7.50969E-25
6.50353E-01 7.34611E-25
6.54508E-01 7.18599E-25
6.58652E-01 7.02924E-25
6.62784E-01 6.87579E-25
6.66903E-01 6.72555E-25
6.71010E-01 6.57845E-25
6.75104E-01 6.43441E-25
6.79184E-01 6.29336E-25
6.83251E-01 6.15523E-25
6.87303E-01 6.01994E-25
6.91342E-01 5.88744E-25
6.95366E-01 5.75766E-25
6.99375E-01 5.63053E-25
7.03368E-01 5.50599E-25
7.07347E-01 5.38399E-25
7.11309E-01 5.26447E-25
7.15256E-01 5.14736E-25
7.19186E-01 5.03262E-25
7.23099E-01 4.92019E-25
7.26995E-01 4.81002E-25
7.30874E-01 4.70206E-25
7.34736E-01 4.59626E-25
7.38579E-01 4.49257E-25
7.42405E-01 4.39095E-25
7.46212E-01 4.29135E-25
7.50000E-01 4.19372E-25
7.53769E-01 4.09803E-25
7.57519E-01 4.00423E-25
7.61249E-01 3.91229E-25
7.64960E-01 3.82215E-25
7.68650E-01 3.73379E-25
7.72320E-01 3.64717E-25
7.75968E-01 3.56224E-25
7.79596E-01 3.47898E-25
7.83203E-01 3.39735E-25
7.86788E-01 3.31731E-25
7.90351E-01 3.23884E-25
7.93893E-01 3.16190E-25
7.97411E-01 3.08646E-25
8.00908E-01 3.01249E-25
8.04381E-01 2.93995E-25
8.07831E-01 2.86883E-25
8.11257E-01 2.79909E-25
8.14660E-01 2.73071E-25
8.18039E-01 2.66365E-25
8.21394E-01 2.59790E-25
8.24724E-01 2.53342E-25
8.28030E-01 2.47020E-25
8.31310E-01 2.40820E-25
8.34565E-01 2.34741E-25
8.37795E-01 2.28780E-25
8.40999E-01 2.22935E-25
8.44177E-01 2.17204E-25
8.47329E-01 2.11584E-25
8.50455E-01 2.06074E-25
8.53553E-01 2.00672E-25
8.56625E-01 1.95375E-25
8.59670E-01 1.90181E-25
8.62687E-01 1.85089E-25
8.65677E-01 1.80098E-25
8.68639E-01 1.75204E-25
8.71572E-01 1.70407E-25
8.74478E-01 1.65704E-25
8.77355E-01 1.61094E-25
8.80203E-01 1.56576E-25
8.83022E-01 1.52148E-25
8.85812E-01 1.47808E-25
8.88573E-01 1.43554E-25
8.91304E-01 1.39386E-25
8.94005E-01 1.35302E-25
8.96677E-01 1.31301E-25
8.99318E-01 1.27380E-25
9.01928E-01 1.23540E-25
9.04508E-01 1.19777E-25
9.07058E-01 1.16093E-25
9.09576E-01 1.12484E-25
9.12063E-01 1.08950E-25
9.14519E-01 1.05489E-25
9.16943E-01 1.02102E-25
9.19335E-01 9.87853E-26
9.21696E-01 9.55392E-26
9.24024E-01 9.23625E-26
9.26320E-01 8.92539E-26
9.28584E-01 8.62127E-26
9.30815E-01 8.32377E-26
9.33013E-01 8.03279E-26
9.35178E-01 7.74826E-26
9.37310E-01 7.47008E-26
9.39409E-01 7.19815E-26
9.41474E-01 6.93240E-26
9.43505E-01 6.67274E-26
9.45503E-01 6.41909E-26
9.47467E-01 6.17137E-26
9.49397E-01 5.92950E-26
9.51293E-01 5.69340E-26
9.53154E-01 5.46301E-26
9.54981E-01 5.23826E-26
9.56773E-01 5.01906E-26
9.58530E-01 4.80537E-26
9.60252E-01 4.59710E-26
9.61940E-01 4.39420E-26
9.63592E-01 4.19661E-26
9.65209E-01 4.00427E-26
9.66790E-01 3.81711E-26
9.68336E-01 3.63508E-26
9.69846E-01 3.45813E-26
9.71321E-01 3.28621E-26
9.72759E-01 3.11925E-26
9.74162E-01 2.95722E-26
9.75528E-01 2.80007E-26
9.76858E-01 2.64774E-26
9.78152E-01 2.50019E-26
9.79410E-01 2.35738E-26
9.80631E-01 2.21927E-26
9.81815E-01 2.08581E-26
9.82963E-01 1.95697E-26
9.84074E-01 1.83271E-26
9.85148E-01 1.71299E-26
9.86185E-01 1.59778E-26
9.87185E-01 1.48704E-26
9.88148E-01 1.38075E-26
9.89074E-01 1.27886E-26
9.89962E-01 1.18136E-26
9.90814E-01 1.08821E-26
9.91627E-01 9.99383E-27
9.92404E-01 9.14858E-27
9.93143E-01 8.34608E-27
9.93844E-01 7.58611E-27
9.94508E-01 6.86845E-27
9.95134E-01 6.19289E-27
9.95722E-01 5.55923E-27
9.96273E-01 4.96730E-27
9.96786E-01 4.41693E-27
9.97261E-01 3.90795E-27
9.97698E-01 3.44022E-27
9.98097E-01 3.01361E-27
9.98459E-01 2.62800E-27
9.98782E-01 2.28327E-27
9.99067E-01 1.97933E-27
9.99315E-01 1.71609E-27
9.99524E-01 1.49347E-27
9.99695E-01 1.31142E-27
9.99829E-01 1.16988E-27
9.99924E-01 1.06881E-27
9.99981E-01 1.00817E-27
1.00000E+00 9.87964E-28
