 #
 # Subroutine ELSEPA. Elastic scattering of electrons and positrons
 #                    by neutral atoms and positive ions
 #
 # Projectile: electron
 # Kinetic energy = 2.00000E+08 eV = 7.34987E+06 a.u.
 #
 # WARNING: High-energy factorization with free-atom DF screening.
 #          Absorption, polarization and exchange corrections are
 #          switched off.
 #          Phase shifts are calculated for the bare nucleus.
 #          Scattering amplitudes are not evaluated.
 #
 # Element: Ir,  Z =  77,  atomic weight = 1.92217E+02 g/mol
 #
 # Nuclear model: Fermi distribution
 #                Average radius = 6.17515E-13 cm
 #                Skin thickness = 5.46000E-14 cm
 #
 # Number of electrons = 77
 #
 # Total elastic cross section = 7.74089E-18 cm**2 = 2.76432E-01 a0**2
 # 1st transport cross section = 2.80182E-25 cm**2 = 1.00055E-08 a0**2
 # 2nd transport cross section = 8.38655E-25 cm**2 = 2.99489E-08 a0**2
 #
 #
 # Differential cross section:                       MU=(1-COS(THETA))/2
 #
 #  THETA        MU          DCS          DCS        Sherman      error
 #  (deg)                 (cm**2/sr)   (a0**2/sr)    function
 #----------------------------------------------------------------------
0.00000E+00 1.97125E-09
7.61557E-13 1.95561E-09
1.18994E-12 1.94693E-09
1.71346E-12 1.93641E-09
2.33225E-12 1.92410E-09
3.04617E-12 1.91007E-09
3.85530E-12 1.89439E-09
4.75964E-12 1.87713E-09
5.75917E-12 1.85835E-09
6.85391E-12 1.83799E-09
8.04379E-12 1.81653E-09
9.32893E-12 1.79385E-09
1.07092E-11 1.76982E-09
1.21847E-11 1.74505E-09
1.37554E-11 1.71913E-09
1.54213E-11 1.69234E-09
1.71823E-11 1.66518E-09
1.90386E-11 1.63686E-09
2.09900E-11 1.60822E-09
2.30367E-11 1.57942E-09
2.51785E-11 1.54962E-09
2.74156E-11 1.51999E-09
2.97478E-11 1.49013E-09
3.21752E-11 1.45982E-09
3.46979E-11 1.42993E-09
3.73157E-11 1.39969E-09
4.00286E-11 1.36954E-09
4.28368E-11 1.33999E-09
4.57402E-11 1.30995E-09
4.87388E-11 1.28049E-09
5.18325E-11 1.25156E-09
5.50215E-11 1.22238E-09
5.83057E-11 1.19400E-09
6.16850E-11 1.16595E-09
6.51595E-11 1.13808E-09
6.87293E-11 1.11107E-09
7.23943E-11 1.08417E-09
7.61544E-11 1.05783E-09
1.18991E-10 8.23962E-10
1.71347E-10 6.41989E-10
2.33223E-10 5.03709E-10
3.04617E-10 3.99337E-10
3.85531E-10 3.19997E-10
4.75965E-10 2.59037E-10
5.75917E-10 2.11557E-10
6.85389E-10 1.72548E-10
8.04380E-10 1.43924E-10
9.32891E-10 1.21263E-10
1.07092E-09 1.01861E-10
1.21847E-09 8.69546E-11
1.37554E-09 7.43949E-11
1.54213E-09 6.39257E-11
1.71823E-09 5.55906E-11
1.90386E-09 4.82569E-11
2.09900E-09 4.22119E-11
2.30367E-09 3.72182E-11
2.51785E-09 3.27587E-11
2.74156E-09 2.90586E-11
2.97478E-09 2.58742E-11
3.21752E-09 2.30594E-11
3.46978E-09 2.06786E-11
3.73156E-09 1.85601E-11
4.00286E-09 1.67013E-11
4.28368E-09 1.51048E-11
4.57402E-09 1.36448E-11
4.87388E-09 1.23723E-11
5.18326E-09 1.12555E-11
5.50215E-09 1.02317E-11
5.83057E-09 9.33560E-12
6.16850E-09 8.53115E-12
6.51596E-09 7.80094E-12
6.87293E-09 7.15567E-12
7.23942E-09 6.56629E-12
7.61544E-09 6.03531E-12
1.18991E-08 2.81298E-12
1.71347E-08 1.48063E-12
2.33223E-08 8.58196E-13
3.04617E-08 5.33762E-13
3.85531E-08 3.49693E-13
4.75965E-08 2.38756E-13
5.75917E-08 1.68443E-13
6.85389E-08 1.22210E-13
8.04380E-08 9.07788E-14
9.32891E-08 6.88307E-14
1.07092E-07 5.31342E-14
1.21847E-07 4.16661E-14
1.37554E-07 3.31302E-14
1.54213E-07 2.66714E-14
1.71823E-07 2.17118E-14
1.90386E-07 1.78529E-14
2.09900E-07 1.48145E-14
2.30367E-07 1.23961E-14
2.51785E-07 1.04519E-14
2.74156E-07 8.87422E-15
2.97478E-07 7.58362E-15
3.21752E-07 6.51968E-15
3.46978E-07 5.63622E-15
3.73156E-07 4.89764E-15
4.00286E-07 4.27630E-15
4.28368E-07 3.75053E-15
4.57402E-07 3.30318E-15
4.87388E-07 2.92060E-15
5.18325E-07 2.59185E-15
5.50215E-07 2.30805E-15
5.83057E-07 2.06203E-15
6.16850E-07 1.84787E-15
6.51596E-07 1.66078E-15
6.87293E-07 1.49676E-15
7.23942E-07 1.35247E-15
7.61543E-07 1.22513E-15
1.18991E-06 5.10839E-16
1.71347E-06 2.49094E-16
2.33223E-06 1.35499E-16
3.04617E-06 7.98968E-17
3.85531E-06 5.01153E-17
4.75964E-06 3.30087E-17
5.75916E-06 2.26187E-17
6.85388E-06 1.60143E-17
8.04378E-06 1.16540E-17
9.32888E-06 8.68182E-18
1.07092E-05 6.59957E-18
1.21846E-05 5.10575E-18
1.37553E-05 4.01165E-18
1.54212E-05 3.19552E-18
1.71822E-05 2.57676E-18
1.90385E-05 2.09955E-18
2.09899E-05 1.72996E-18
2.30365E-05 1.43798E-18
2.51783E-05 1.20472E-18
2.74153E-05 1.01662E-18
2.97475E-05 8.63709E-19
3.21749E-05 7.38487E-19
3.46974E-05 6.35222E-19
3.73152E-05 5.49473E-19
4.00281E-05 4.77778E-19
4.28362E-05 4.17434E-19
4.57395E-05 3.66322E-19
4.87380E-05 3.22783E-19
5.18317E-05 2.85504E-19
5.50205E-05 2.53442E-19
5.83045E-05 2.25751E-19
6.16838E-05 2.01744E-19
6.51582E-05 1.80853E-19
6.87277E-05 1.62604E-19
7.23925E-05 1.46606E-19
7.61524E-05 1.32904E-19
9.21439E-05 9.09463E-20
1.09658E-04 6.43303E-20
1.28695E-04 4.67938E-20
1.49255E-04 3.48533E-20
1.71338E-04 2.64976E-20
1.94942E-04 2.05072E-20
2.20070E-04 1.61215E-20
2.46720E-04 1.28508E-20
2.74892E-04 1.03711E-20
3.04586E-04 8.46320E-21
3.35803E-04 6.97573E-21
3.68542E-04 5.80205E-21
4.02802E-04 4.86584E-21
4.38585E-04 4.11162E-21
4.75889E-04 3.49843E-21
5.14715E-04 2.99574E-21
5.55063E-04 2.58042E-21
5.96931E-04 2.23486E-21
6.40321E-04 1.94543E-21
6.85233E-04 1.70145E-21
7.31665E-04 1.49457E-21
7.79618E-04 1.31825E-21
8.29092E-04 1.16723E-21
8.80086E-04 1.03725E-21
9.32601E-04 9.24884E-22
9.86636E-04 8.27338E-22
1.04219E-03 7.42319E-22
1.09927E-03 6.67942E-22
1.15786E-03 6.02642E-22
1.21797E-03 5.45119E-22
1.27961E-03 4.94286E-22
1.34276E-03 4.49226E-22
1.40743E-03 4.09171E-22
1.47362E-03 3.73465E-22
1.54133E-03 3.41554E-22
1.61056E-03 3.12961E-22
1.68131E-03 2.87282E-22
1.75357E-03 2.64166E-22
1.82735E-03 2.43311E-22
1.90265E-03 2.24458E-22
1.97947E-03 2.07380E-22
2.05780E-03 1.91880E-22
2.13765E-03 1.77785E-22
2.21902E-03 1.64946E-22
2.30190E-03 1.53232E-22
2.38630E-03 1.42525E-22
2.47222E-03 1.32723E-22
2.55965E-03 1.23737E-22
2.64859E-03 1.15486E-22
2.73905E-03 1.07900E-22
2.83103E-03 1.00915E-22
2.92452E-03 9.44750E-23
3.01952E-03 8.85301E-23
3.11604E-03 8.30355E-23
3.21407E-03 7.79509E-23
3.31362E-03 7.32403E-23
3.41468E-03 6.88713E-23
3.51725E-03 6.48147E-23
3.62133E-03 6.10443E-23
3.72692E-03 5.75363E-23
3.83403E-03 5.42692E-23
3.94265E-03 5.12235E-23
4.05278E-03 4.83817E-23
4.16442E-03 4.57276E-23
4.27757E-03 4.32468E-23
4.39223E-03 4.09259E-23
4.50840E-03 3.87529E-23
4.62608E-03 3.67166E-23
4.74527E-03 3.48071E-23
4.86597E-03 3.30149E-23
4.98817E-03 3.13318E-23
5.11188E-03 2.97499E-23
5.23711E-03 2.82622E-23
5.36383E-03 2.68619E-23
5.49207E-03 2.55433E-23
5.62181E-03 2.43005E-23
5.75306E-03 2.31287E-23
5.88581E-03 2.20230E-23
6.02007E-03 2.09792E-23
6.15583E-03 1.99930E-23
6.29310E-03 1.90610E-23
6.43187E-03 1.81795E-23
6.57214E-03 1.73455E-23
6.71392E-03 1.65558E-23
6.85720E-03 1.58079E-23
7.00198E-03 1.50991E-23
7.14827E-03 1.44271E-23
7.29605E-03 1.37896E-23
7.44534E-03 1.31846E-23
7.59612E-03 1.26102E-23
7.97965E-03 1.12964E-23
8.37255E-03 1.01380E-23
8.77480E-03 9.11414E-24
9.18641E-03 8.20691E-24
9.60736E-03 7.40126E-24
1.00376E-02 6.68429E-24
1.04773E-02 6.04494E-24
1.09262E-02 5.47372E-24
1.13844E-02 4.96244E-24
1.18520E-02 4.50402E-24
1.23288E-02 4.09233E-24
1.28150E-02 3.72203E-24
1.33104E-02 3.38847E-24
1.38150E-02 3.08757E-24
1.43290E-02 2.81579E-24
1.48521E-02 2.56999E-24
1.53845E-02 2.34743E-24
1.59262E-02 2.14566E-24
1.64770E-02 1.96256E-24
1.70371E-02 1.79623E-24
1.76063E-02 1.64497E-24
1.81848E-02 1.50730E-24
1.87724E-02 1.38188E-24
1.93692E-02 1.26753E-24
1.99751E-02 1.16318E-24
2.05901E-02 1.06790E-24
2.12143E-02 9.80817E-25
2.18476E-02 9.01187E-25
2.24900E-02 8.28319E-25
2.31415E-02 7.61599E-25
2.38021E-02 7.00473E-25
2.44717E-02 6.44440E-25
2.51504E-02 5.93050E-25
2.58382E-02 5.45894E-25
2.65349E-02 5.02604E-25
2.72407E-02 4.62846E-25
2.79555E-02 4.26315E-25
2.86793E-02 3.92738E-25
2.94120E-02 3.61865E-25
3.01537E-02 3.33468E-25
3.09043E-02 3.07340E-25
3.16639E-02 2.83293E-25
3.24324E-02 2.61155E-25
3.32098E-02 2.40770E-25
3.39961E-02 2.21995E-25
3.47912E-02 2.04698E-25
3.55952E-02 1.88761E-25
3.64081E-02 1.74073E-25
3.72297E-02 1.60536E-25
3.80602E-02 1.48056E-25
3.88995E-02 1.36550E-25
3.97476E-02 1.25942E-25
4.06044E-02 1.16159E-25
4.14700E-02 1.07137E-25
4.23443E-02 9.88167E-26
4.32273E-02 9.11428E-26
4.41190E-02 8.40649E-26
4.50194E-02 7.75366E-26
4.59284E-02 7.15152E-26
4.68461E-02 6.59613E-26
4.87074E-02 5.61143E-26
5.06030E-02 4.77387E-26
5.25328E-02 4.06163E-26
5.44967E-02 3.45612E-26
5.64946E-02 2.94155E-26
5.85262E-02 2.50444E-26
6.05914E-02 2.13330E-26
6.26901E-02 1.81834E-26
6.48222E-02 1.55118E-26
6.69873E-02 1.32469E-26
6.91854E-02 1.13277E-26
7.14163E-02 9.70224E-27
7.36799E-02 8.32605E-27
7.59760E-02 7.16127E-27
7.83043E-02 6.17558E-27
8.06647E-02 5.34145E-27
8.30571E-02 4.63545E-27
8.54812E-02 4.03760E-27
8.79369E-02 3.53096E-27
9.04240E-02 3.10114E-27
9.29422E-02 2.73591E-27
9.54915E-02 2.42495E-27
9.80716E-02 2.15952E-27
1.00682E-01 1.93225E-27
1.03323E-01 1.73693E-27
1.05995E-01 1.56835E-27
1.08696E-01 1.42212E-27
1.11427E-01 1.29459E-27
1.14188E-01 1.18270E-27
1.16978E-01 1.08392E-27
1.19797E-01 9.96124E-28
1.22645E-01 9.17572E-28
1.25522E-01 8.46823E-28
1.28428E-01 7.82691E-28
1.31361E-01 7.24202E-28
1.34323E-01 6.70563E-28
1.37313E-01 6.21122E-28
1.40330E-01 5.75351E-28
1.43375E-01 5.32821E-28
1.46447E-01 4.93182E-28
1.49545E-01 4.56150E-28
1.52671E-01 4.21494E-28
1.55823E-01 3.89023E-28
1.59001E-01 3.58581E-28
1.62205E-01 3.30036E-28
1.65435E-01 3.03279E-28
1.68690E-01 2.78214E-28
1.71970E-01 2.54757E-28
1.75276E-01 2.32833E-28
1.78606E-01 2.12372E-28
1.81961E-01 1.93310E-28
1.85340E-01 1.75585E-28
1.88743E-01 1.59138E-28
1.92169E-01 1.43910E-28
1.95619E-01 1.29845E-28
1.99092E-01 1.16884E-28
2.02589E-01 1.04973E-28
2.06107E-01 9.40545E-29
2.09649E-01 8.40741E-29
2.13212E-01 7.49769E-29
2.16797E-01 6.67090E-29
2.20404E-01 5.92175E-29
2.24032E-01 5.24504E-29
2.27680E-01 4.63574E-29
2.31350E-01 4.08893E-29
2.35040E-01 3.59987E-29
2.38751E-01 3.16399E-29
2.42481E-01 2.77692E-29
2.46231E-01 2.43448E-29
2.50000E-01 2.13269E-29
2.53788E-01 1.86780E-29
2.57595E-01 1.63627E-29
2.61421E-01 1.43476E-29
2.65264E-01 1.26016E-29
2.69126E-01 1.10960E-29
2.73005E-01 9.80370E-30
2.76901E-01 8.70010E-30
2.80814E-01 7.76241E-30
2.84744E-01 6.96982E-30
2.88691E-01 6.30335E-30
2.92653E-01 5.74583E-30
2.96632E-01 5.28174E-30
3.00625E-01 4.89715E-30
3.04634E-01 4.57964E-30
3.08658E-01 4.31817E-30
3.12697E-01 4.10297E-30
3.16749E-01 3.92550E-30
3.20816E-01 3.77832E-30
3.24896E-01 3.65497E-30
3.28990E-01 3.54994E-30
3.33097E-01 3.45854E-30
3.37216E-01 3.37683E-30
3.41348E-01 3.30156E-30
3.45492E-01 3.23005E-30
3.49647E-01 3.16018E-30
3.53814E-01 3.09027E-30
3.57992E-01 3.01906E-30
3.62181E-01 2.94565E-30
3.66381E-01 2.86943E-30
3.70590E-01 2.79004E-30
3.74810E-01 2.70735E-30
3.79039E-01 2.62137E-30
3.83277E-01 2.53230E-30
3.87524E-01 2.44041E-30
3.91780E-01 2.34608E-30
3.96044E-01 2.24973E-30
4.00316E-01 2.15185E-30
4.04596E-01 2.05294E-30
4.08882E-01 1.95349E-30
4.13176E-01 1.85402E-30
4.17476E-01 1.75502E-30
4.21783E-01 1.65695E-30
4.26095E-01 1.56027E-30
4.30413E-01 1.46537E-30
4.34737E-01 1.37264E-30
4.39065E-01 1.28240E-30
4.43398E-01 1.19495E-30
4.47736E-01 1.11055E-30
4.52077E-01 1.02940E-30
4.56422E-01 9.51672E-31
4.60770E-01 8.77509E-31
4.65122E-01 8.07002E-31
4.69476E-01 7.40215E-31
4.73832E-01 6.77179E-31
4.78190E-01 6.17894E-31
4.82550E-01 5.62335E-31
4.86912E-01 5.10451E-31
4.91274E-01 4.62171E-31
4.95637E-01 4.17405E-31
5.00000E-01 3.76046E-31
5.04363E-01 3.37974E-31
5.08726E-01 3.03057E-31
5.13088E-01 2.71155E-31
5.17450E-01 2.42120E-31
5.21810E-01 2.15800E-31
5.26168E-01 1.92039E-31
5.30524E-01 1.70681E-31
5.34878E-01 1.51567E-31
5.39230E-01 1.34542E-31
5.43578E-01 1.19453E-31
5.47923E-01 1.06149E-31
5.52264E-01 9.44850E-32
5.56602E-01 8.43193E-32
5.60935E-01 7.55171E-32
5.65263E-01 6.79492E-32
5.69587E-01 6.14929E-32
5.73905E-01 5.60322E-32
5.78217E-01 5.14579E-32
5.82524E-01 4.76680E-32
5.86824E-01 4.45673E-32
5.91118E-01 4.20675E-32
5.95404E-01 4.00873E-32
5.99684E-01 3.85520E-32
6.03956E-01 3.73934E-32
6.08220E-01 3.65495E-32
6.12476E-01 3.59644E-32
6.16723E-01 3.55880E-32
6.20961E-01 3.53753E-32
6.25190E-01 3.52867E-32
6.29410E-01 3.52874E-32
6.33619E-01 3.53469E-32
6.37819E-01 3.54389E-32
6.42008E-01 3.55411E-32
6.46186E-01 3.56345E-32
6.50353E-01 3.57035E-32
6.54508E-01 3.57354E-32
6.58652E-01 3.57200E-32
6.62784E-01 3.56496E-32
6.66903E-01 3.55185E-32
6.71010E-01 3.53231E-32
6.75104E-01 3.50612E-32
6.79184E-01 3.47322E-32
6.83251E-01 3.43365E-32
6.87303E-01 3.38758E-32
6.91342E-01 3.33525E-32
6.95366E-01 3.27699E-32
6.99375E-01 3.21315E-32
7.03368E-01 3.14418E-32
7.07347E-01 3.07052E-32
7.11309E-01 2.99265E-32
7.15256E-01 2.91106E-32
7.19186E-01 2.82625E-32
7.23099E-01 2.73872E-32
7.26995E-01 2.64895E-32
7.30874E-01 2.55745E-32
7.34736E-01 2.46465E-32
7.38579E-01 2.37102E-32
7.42405E-01 2.27697E-32
7.46212E-01 2.18290E-32
7.50000E-01 2.08919E-32
7.53769E-01 1.99617E-32
7.57519E-01 1.90418E-32
7.61249E-01 1.81349E-32
7.64960E-01 1.72437E-32
7.68650E-01 1.63706E-32
7.72320E-01 1.55175E-32
7.75968E-01 1.46864E-32
7.79596E-01 1.38786E-32
7.83203E-01 1.30956E-32
7.86788E-01 1.23385E-32
7.90351E-01 1.16079E-32
7.93893E-01 1.09047E-32
7.97411E-01 1.02293E-32
8.00908E-01 9.58182E-33
8.04381E-01 8.96254E-33
8.07831E-01 8.37136E-33
8.11257E-01 7.80811E-33
8.14660E-01 7.27251E-33
8.18039E-01 6.76414E-33
8.21394E-01 6.28252E-33
8.24724E-01 5.82705E-33
8.28030E-01 5.39709E-33
8.31310E-01 4.99192E-33
8.34565E-01 4.61076E-33
8.37795E-01 4.25282E-33
8.40999E-01 3.91723E-33
8.44177E-01 3.60315E-33
8.47329E-01 3.30968E-33
8.50455E-01 3.03591E-33
8.53553E-01 2.78096E-33
8.56625E-01 2.54392E-33
8.59670E-01 2.32388E-33
8.62687E-01 2.11998E-33
8.65677E-01 1.93133E-33
8.68639E-01 1.75708E-33
8.71572E-01 1.59639E-33
8.74478E-01 1.44847E-33
8.77355E-01 1.31251E-33
8.80203E-01 1.18777E-33
8.83022E-01 1.07351E-33
8.85812E-01 9.69026E-34
8.88573E-01 8.73649E-34
8.91304E-01 7.86737E-34
8.94005E-01 7.07676E-34
8.96677E-01 6.35885E-34
8.99318E-01 5.70814E-34
9.01928E-01 5.11940E-34
9.04508E-01 4.58772E-34
9.07058E-01 4.10846E-34
9.09576E-01 3.67727E-34
9.12063E-01 3.29007E-34
9.14519E-01 2.94304E-34
9.16943E-01 2.63263E-34
9.19335E-01 2.35551E-34
9.21696E-01 2.10860E-34
9.24024E-01 1.88904E-34
9.26320E-01 1.69418E-34
9.28584E-01 1.52159E-34
9.30815E-01 1.36900E-34
9.33013E-01 1.23435E-34
9.35178E-01 1.11574E-34
9.37310E-01 1.01143E-34
9.39409E-01 9.19836E-35
9.41474E-01 8.39505E-35
9.43505E-01 7.69125E-35
9.45503E-01 7.07506E-35
9.47467E-01 6.53572E-35
9.49397E-01 6.06351E-35
9.51293E-01 5.64972E-35
9.53154E-01 5.28653E-35
9.54981E-01 4.96697E-35
9.56773E-01 4.68479E-35
9.58530E-01 4.43451E-35
9.60252E-01 4.21125E-35
9.61940E-01 4.01074E-35
9.63592E-01 3.82924E-35
9.65209E-01 3.66348E-35
9.66790E-01 3.51063E-35
9.68336E-01 3.36828E-35
9.69846E-01 3.23434E-35
9.71321E-01 3.10708E-35
9.72759E-01 2.98502E-35
9.74162E-01 2.86699E-35
9.75528E-01 2.75193E-35
9.76858E-01 2.63914E-35
9.78152E-01 2.52794E-35
9.79410E-01 2.41791E-35
9.80631E-01 2.30869E-35
9.81815E-01 2.20010E-35
9.82963E-01 2.09204E-35
9.84074E-01 1.98444E-35
9.85148E-01 1.87740E-35
9.86185E-01 1.77099E-35
9.87185E-01 1.66537E-35
9.88148E-01 1.56072E-35
9.89074E-01 1.45730E-35
9.89962E-01 1.35531E-35
9.90814E-01 1.25508E-35
9.91627E-01 1.15681E-35
9.92404E-01 1.06086E-35
9.93143E-01 9.67453E-36
9.93844E-01 8.76889E-36
9.94508E-01 7.89493E-36
9.95134E-01 7.05490E-36
9.95722E-01 6.25170E-36
9.96273E-01 5.48774E-36
9.96786E-01 4.76561E-36
9.97261E-01 4.08745E-36
9.97698E-01 3.45558E-36
9.98097E-01 2.87186E-36
9.98459E-01 2.33817E-36
9.98782E-01 1.85612E-36
9.99067E-01 1.42719E-36
9.99315E-01 1.05283E-36
9.99524E-01 7.34005E-37
9.99695E-01 4.71912E-37
9.99829E-01 2.67242E-37
9.99924E-01 1.20601E-37
9.99981E-01 3.24064E-38
1.00000E+00 2.99326E-39
