 #
 # Subroutine ELSEPA. Elastic scattering of electrons and positrons
 #                    by neutral atoms and positive ions
 #
 # Projectile: electron
 # Kinetic energy = 6.00000E+07 eV = 2.20496E+06 a.u.
 #
 # WARNING: High-energy factorization with free-atom DF screening.
 #          Absorption, polarization and exchange corrections are
 #          switched off.
 #          Phase shifts are calculated for the bare nucleus.
 #          Scattering amplitudes are not evaluated.
 #
 # Element: Ir,  Z =  77,  atomic weight = 1.92217E+02 g/mol
 #
 # Nuclear model: Fermi distribution
 #                Average radius = 6.17515E-13 cm
 #                Skin thickness = 5.46000E-14 cm
 #
 # Number of electrons = 77
 #
 # Total elastic cross section = 7.74063E-18 cm**2 = 2.76423E-01 a0**2
 # 1st transport cross section = 3.10400E-24 cm**2 = 1.10846E-07 a0**2
 # 2nd transport cross section = 9.14404E-24 cm**2 = 3.26540E-07 a0**2
 #
 #
 # Differential cross section:                       MU=(1-COS(THETA))/2
 #
 #  THETA        MU          DCS          DCS        Sherman      error
 #  (deg)                 (cm**2/sr)   (a0**2/sr)    function
 #----------------------------------------------------------------------
0.00000E+00 1.79529E-10
7.61557E-13 1.79397E-10
1.18994E-12 1.79324E-10
1.71346E-12 1.79234E-10
2.33225E-12 1.79128E-10
3.04617E-12 1.79007E-10
3.85530E-12 1.78869E-10
4.75964E-12 1.78715E-10
5.75917E-12 1.78545E-10
6.85391E-12 1.78360E-10
8.04379E-12 1.78159E-10
9.32893E-12 1.77942E-10
1.07092E-11 1.77710E-10
1.21847E-11 1.77462E-10
1.37554E-11 1.77199E-10
1.54213E-11 1.76920E-10
1.71823E-11 1.76627E-10
1.90386E-11 1.76319E-10
2.09900E-11 1.75996E-10
2.30367E-11 1.75658E-10
2.51785E-11 1.75306E-10
2.74156E-11 1.74940E-10
2.97478E-11 1.74559E-10
3.21752E-11 1.74164E-10
3.46979E-11 1.73756E-10
3.73157E-11 1.73334E-10
4.00286E-11 1.72898E-10
4.28368E-11 1.72449E-10
4.57402E-11 1.71987E-10
4.87388E-11 1.71513E-10
5.18325E-11 1.71025E-10
5.50215E-11 1.70525E-10
5.83057E-11 1.70013E-10
6.16850E-11 1.69489E-10
6.51595E-11 1.68948E-10
6.87293E-11 1.68394E-10
7.23943E-11 1.67831E-10
7.61544E-11 1.67258E-10
1.18991E-10 1.60987E-10
1.71347E-10 1.53867E-10
2.33223E-10 1.46143E-10
3.04617E-10 1.38051E-10
3.85531E-10 1.29799E-10
4.75965E-10 1.21559E-10
5.75917E-10 1.13461E-10
6.85389E-10 1.05642E-10
8.04380E-10 9.81806E-11
9.32891E-10 9.11288E-11
1.07092E-09 8.45148E-11
1.21847E-09 7.83490E-11
1.37554E-09 7.26276E-11
1.54213E-09 6.73377E-11
1.71823E-09 6.24592E-11
1.90386E-09 5.79615E-11
2.09900E-09 5.38214E-11
2.30367E-09 5.00188E-11
2.51785E-09 4.65270E-11
2.74156E-09 4.33203E-11
2.97478E-09 4.03741E-11
3.21752E-09 3.76657E-11
3.46978E-09 3.51742E-11
3.73156E-09 3.28801E-11
4.00286E-09 3.07658E-11
4.28368E-09 2.88118E-11
4.57402E-09 2.70068E-11
4.87388E-09 2.53387E-11
5.18326E-09 2.37954E-11
5.50215E-09 2.23662E-11
5.83057E-09 2.10412E-11
6.16850E-09 1.98115E-11
6.51596E-09 1.85974E-11
6.87293E-09 1.74653E-11
7.23942E-09 1.64379E-11
7.61544E-09 1.55034E-11
1.18991E-08 9.14241E-12
1.71347E-08 5.73329E-12
2.33223E-08 3.78383E-12
3.04617E-08 2.60364E-12
3.85531E-08 1.85202E-12
4.75965E-08 1.35154E-12
5.75917E-08 1.00601E-12
6.85389E-08 7.62212E-13
8.04380E-08 5.86451E-13
9.32891E-08 4.57553E-13
1.07092E-07 3.61648E-13
1.21847E-07 2.89364E-13
1.37554E-07 2.34219E-13
1.54213E-07 1.91748E-13
1.71823E-07 1.58409E-13
1.90386E-07 1.32096E-13
2.09900E-07 1.11145E-13
2.30367E-07 9.42858E-14
2.51785E-07 8.05684E-14
2.74156E-07 6.92922E-14
2.97478E-07 5.99388E-14
3.21752E-07 5.21205E-14
3.46978E-07 4.55428E-14
3.73156E-07 3.99769E-14
4.00286E-07 3.52419E-14
4.28368E-07 3.11902E-14
4.57402E-07 2.77067E-14
4.87388E-07 2.46973E-14
5.18325E-07 2.20851E-14
5.50215E-07 1.98082E-14
5.83057E-07 1.78164E-14
6.16850E-07 1.60682E-14
6.51596E-07 1.45207E-14
6.87293E-07 1.31578E-14
7.23942E-07 1.19580E-14
7.61543E-07 1.08960E-14
1.18991E-06 4.73639E-15
1.71347E-06 2.37704E-15
2.33223E-06 1.32022E-15
3.04617E-06 7.90896E-16
3.85531E-06 5.02348E-16
4.75964E-06 3.34291E-16
5.75916E-06 2.31026E-16
6.85388E-06 1.64725E-16
8.04378E-06 1.20573E-16
9.32888E-06 9.02570E-17
1.07092E-05 6.88882E-17
1.21846E-05 5.34792E-17
1.37553E-05 4.21433E-17
1.54212E-05 3.36558E-17
1.71822E-05 2.72006E-17
1.90385E-05 2.22082E-17
2.09899E-05 1.83325E-17
2.30365E-05 1.52640E-17
2.51783E-05 1.28079E-17
2.74153E-05 1.08238E-17
2.97475E-05 9.20820E-18
3.21749E-05 7.88314E-18
3.46974E-05 6.78891E-18
3.73152E-05 5.87910E-18
4.00281E-05 5.11746E-18
4.28362E-05 4.47563E-18
4.57395E-05 3.93138E-18
4.87380E-05 3.46727E-18
5.18317E-05 3.06949E-18
5.50205E-05 2.72702E-18
5.83045E-05 2.43097E-18
6.16838E-05 2.17408E-18
6.51582E-05 1.95032E-18
6.87277E-05 1.75471E-18
7.23925E-05 1.58309E-18
7.61524E-05 1.43181E-18
9.21439E-05 9.81187E-19
1.09658E-04 6.94737E-19
1.28695E-04 5.05687E-19
1.49255E-04 3.76797E-19
1.71338E-04 2.86513E-19
1.94942E-04 2.21739E-19
2.20070E-04 1.74293E-19
2.46720E-04 1.38898E-19
2.74892E-04 1.12059E-19
3.04586E-04 9.14081E-20
3.35803E-04 7.53095E-20
3.68542E-04 6.26094E-20
4.02802E-04 5.24818E-20
4.38585E-04 4.43254E-20
4.75889E-04 3.76970E-20
5.14715E-04 3.22655E-20
5.55063E-04 2.77801E-20
5.96931E-04 2.40498E-20
6.40321E-04 2.09269E-20
6.85233E-04 1.82962E-20
7.31665E-04 1.60676E-20
7.79618E-04 1.41692E-20
8.29092E-04 1.25441E-20
8.80086E-04 1.11463E-20
9.32601E-04 9.93865E-21
9.86636E-04 8.89086E-21
1.04219E-03 7.97813E-21
1.09927E-03 7.18011E-21
1.15786E-03 6.47986E-21
1.21797E-03 5.86333E-21
1.27961E-03 5.31878E-21
1.34276E-03 4.83631E-21
1.40743E-03 4.40762E-21
1.47362E-03 4.02564E-21
1.54133E-03 3.68440E-21
1.61056E-03 3.37876E-21
1.68131E-03 3.10435E-21
1.75357E-03 2.85741E-21
1.82735E-03 2.63469E-21
1.90265E-03 2.43339E-21
1.97947E-03 2.25108E-21
2.05780E-03 2.08564E-21
2.13765E-03 1.93523E-21
2.21902E-03 1.79822E-21
2.30190E-03 1.67321E-21
2.38630E-03 1.55896E-21
2.47222E-03 1.45436E-21
2.55965E-03 1.35846E-21
2.64859E-03 1.27039E-21
2.73905E-03 1.18939E-21
2.83103E-03 1.11481E-21
2.92452E-03 1.04602E-21
3.01952E-03 9.82496E-22
3.11604E-03 9.23761E-22
3.21407E-03 8.69386E-22
3.31362E-03 8.18986E-22
3.41468E-03 7.72215E-22
3.51725E-03 7.28764E-22
3.62133E-03 6.88352E-22
3.72692E-03 6.50726E-22
3.83403E-03 6.15658E-22
3.94265E-03 5.82940E-22
4.05278E-03 5.52386E-22
4.16442E-03 5.23825E-22
4.27757E-03 4.97102E-22
4.39223E-03 4.72076E-22
4.50840E-03 4.48619E-22
4.62608E-03 4.26614E-22
4.74527E-03 4.05953E-22
4.86597E-03 3.86539E-22
4.98817E-03 3.68282E-22
5.11188E-03 3.51099E-22
5.23711E-03 3.34916E-22
5.36383E-03 3.19662E-22
5.49207E-03 3.05275E-22
5.62181E-03 2.91695E-22
5.75306E-03 2.78868E-22
5.88581E-03 2.66745E-22
6.02007E-03 2.55280E-22
6.15583E-03 2.44429E-22
6.29310E-03 2.34153E-22
6.43187E-03 2.24417E-22
6.57214E-03 2.15186E-22
6.71392E-03 2.06429E-22
6.85720E-03 1.98116E-22
7.00198E-03 1.90222E-22
7.14827E-03 1.82722E-22
7.29605E-03 1.75589E-22
7.44534E-03 1.68801E-22
7.59612E-03 1.62340E-22
7.97965E-03 1.47499E-22
8.37255E-03 1.34327E-22
8.77480E-03 1.22602E-22
9.18641E-03 1.12137E-22
9.60736E-03 1.02770E-22
1.00376E-02 9.43673E-23
1.04773E-02 8.68097E-23
1.09262E-02 7.99969E-23
1.13844E-02 7.38421E-23
1.18520E-02 6.82699E-23
1.23288E-02 6.32149E-23
1.28150E-02 5.86203E-23
1.33104E-02 5.44362E-23
1.38150E-02 5.06192E-23
1.43290E-02 4.71310E-23
1.48521E-02 4.39380E-23
1.53845E-02 4.10106E-23
1.59262E-02 3.83225E-23
1.64770E-02 3.58504E-23
1.70371E-02 3.35738E-23
1.76063E-02 3.14744E-23
1.81848E-02 2.95356E-23
1.87724E-02 2.77430E-23
1.93692E-02 2.60833E-23
1.99751E-02 2.45450E-23
2.05901E-02 2.31175E-23
2.12143E-02 2.17912E-23
2.18476E-02 2.05577E-23
2.24900E-02 1.94092E-23
2.31415E-02 1.83389E-23
2.38021E-02 1.73403E-23
2.44717E-02 1.64078E-23
2.51504E-02 1.55361E-23
2.58382E-02 1.47206E-23
2.65349E-02 1.39570E-23
2.72407E-02 1.32413E-23
2.79555E-02 1.25700E-23
2.86793E-02 1.19398E-23
2.94120E-02 1.13477E-23
3.01537E-02 1.07911E-23
3.09043E-02 1.02673E-23
3.16639E-02 9.77409E-24
3.24324E-02 9.30937E-24
3.32098E-02 8.87117E-24
3.39961E-02 8.45771E-24
3.47912E-02 8.06733E-24
3.55952E-02 7.69851E-24
3.64081E-02 7.34984E-24
3.72297E-02 7.02003E-24
3.80602E-02 6.70786E-24
3.88995E-02 6.41222E-24
3.97476E-02 6.13208E-24
4.06044E-02 5.86649E-24
4.14700E-02 5.61454E-24
4.23443E-02 5.37542E-24
4.32273E-02 5.14836E-24
4.41190E-02 4.93264E-24
4.50194E-02 4.72759E-24
4.59284E-02 4.53260E-24
4.68461E-02 4.34709E-24
4.87074E-02 4.00235E-24
5.06030E-02 3.68948E-24
5.25328E-02 3.40504E-24
5.44967E-02 3.14604E-24
5.64946E-02 2.90984E-24
5.85262E-02 2.69412E-24
6.05914E-02 2.49682E-24
6.26901E-02 2.31613E-24
6.48222E-02 2.15043E-24
6.69873E-02 1.99828E-24
6.91854E-02 1.85842E-24
7.14163E-02 1.72971E-24
7.36799E-02 1.61111E-24
7.59760E-02 1.50173E-24
7.83043E-02 1.40074E-24
8.06647E-02 1.30741E-24
8.30571E-02 1.22108E-24
8.54812E-02 1.14114E-24
8.79369E-02 1.06707E-24
9.04240E-02 9.98361E-25
9.29422E-02 9.34587E-25
9.54915E-02 8.75342E-25
9.80716E-02 8.20264E-25
1.00682E-01 7.69022E-25
1.03323E-01 7.21316E-25
1.05995E-01 6.76872E-25
1.08696E-01 6.35439E-25
1.11427E-01 5.96789E-25
1.14188E-01 5.60713E-25
1.16978E-01 5.27020E-25
1.19797E-01 4.95534E-25
1.22645E-01 4.66096E-25
1.25522E-01 4.38556E-25
1.28428E-01 4.12780E-25
1.31361E-01 3.88642E-25
1.34323E-01 3.66028E-25
1.37313E-01 3.44831E-25
1.40330E-01 3.24955E-25
1.43375E-01 3.06308E-25
1.46447E-01 2.88808E-25
1.49545E-01 2.72376E-25
1.52671E-01 2.56943E-25
1.55823E-01 2.42442E-25
1.59001E-01 2.28811E-25
1.62205E-01 2.15994E-25
1.65435E-01 2.03939E-25
1.68690E-01 1.92595E-25
1.71970E-01 1.81919E-25
1.75276E-01 1.71867E-25
1.78606E-01 1.62400E-25
1.81961E-01 1.53482E-25
1.85340E-01 1.45079E-25
1.88743E-01 1.37158E-25
1.92169E-01 1.29690E-25
1.95619E-01 1.22648E-25
1.99092E-01 1.16005E-25
2.02589E-01 1.09737E-25
2.06107E-01 1.03823E-25
2.09649E-01 9.82405E-26
2.13212E-01 9.29701E-26
2.16797E-01 8.79933E-26
2.20404E-01 8.32930E-26
2.24032E-01 7.88529E-26
2.27680E-01 7.46579E-26
2.31350E-01 7.06937E-26
2.35040E-01 6.69471E-26
2.38751E-01 6.34055E-26
2.42481E-01 6.00572E-26
2.46231E-01 5.68911E-26
2.50000E-01 5.38970E-26
2.53788E-01 5.10651E-26
2.57595E-01 4.83862E-26
2.61421E-01 4.58518E-26
2.65264E-01 4.34537E-26
2.69126E-01 4.11844E-26
2.73005E-01 3.90368E-26
2.76901E-01 3.70040E-26
2.80814E-01 3.50797E-26
2.84744E-01 3.32580E-26
2.88691E-01 3.15332E-26
2.92653E-01 2.99000E-26
2.96632E-01 2.83535E-26
3.00625E-01 2.68888E-26
3.04634E-01 2.55016E-26
3.08658E-01 2.41876E-26
3.12697E-01 2.29430E-26
3.16749E-01 2.17638E-26
3.20816E-01 2.06467E-26
3.24896E-01 1.95883E-26
3.28990E-01 1.85855E-26
3.33097E-01 1.76352E-26
3.37216E-01 1.67347E-26
3.41348E-01 1.58813E-26
3.45492E-01 1.50726E-26
3.49647E-01 1.43060E-26
3.53814E-01 1.35795E-26
3.57992E-01 1.28908E-26
3.62181E-01 1.22381E-26
3.66381E-01 1.16193E-26
3.70590E-01 1.10327E-26
3.74810E-01 1.04765E-26
3.79039E-01 9.94931E-27
3.83277E-01 9.44945E-27
3.87524E-01 8.97552E-27
3.91780E-01 8.52617E-27
3.96044E-01 8.10010E-27
4.00316E-01 7.69609E-27
4.04596E-01 7.31299E-27
4.08882E-01 6.94971E-27
4.13176E-01 6.60521E-27
4.17476E-01 6.27851E-27
4.21783E-01 5.96867E-27
4.26095E-01 5.67483E-27
4.30413E-01 5.39614E-27
4.34737E-01 5.13182E-27
4.39065E-01 4.88111E-27
4.43398E-01 4.64331E-27
4.47736E-01 4.41775E-27
4.52077E-01 4.20379E-27
4.56422E-01 4.00082E-27
4.60770E-01 3.80828E-27
4.65122E-01 3.62561E-27
4.69476E-01 3.45231E-27
4.73832E-01 3.28789E-27
4.78190E-01 3.13189E-27
4.82550E-01 2.98387E-27
4.86912E-01 2.84341E-27
4.91274E-01 2.71012E-27
4.95637E-01 2.58363E-27
5.00000E-01 2.46359E-27
5.04363E-01 2.34965E-27
5.08726E-01 2.24150E-27
5.13088E-01 2.13885E-27
5.17450E-01 2.04140E-27
5.21810E-01 1.94888E-27
5.26168E-01 1.86103E-27
5.30524E-01 1.77762E-27
5.34878E-01 1.69841E-27
5.39230E-01 1.62319E-27
5.43578E-01 1.55174E-27
5.47923E-01 1.48387E-27
5.52264E-01 1.41939E-27
5.56602E-01 1.35812E-27
5.60935E-01 1.29991E-27
5.65263E-01 1.24458E-27
5.69587E-01 1.19199E-27
5.73905E-01 1.14199E-27
5.78217E-01 1.09446E-27
5.82524E-01 1.04926E-27
5.86824E-01 1.00626E-27
5.91118E-01 9.65366E-28
5.95404E-01 9.26454E-28
5.99684E-01 8.89424E-28
6.03956E-01 8.54177E-28
6.08220E-01 8.20621E-28
6.12476E-01 7.88668E-28
6.16723E-01 7.58234E-28
6.20961E-01 7.29240E-28
6.25190E-01 7.01611E-28
6.29410E-01 6.75275E-28
6.33619E-01 6.50167E-28
6.37819E-01 6.26221E-28
6.42008E-01 6.03378E-28
6.46186E-01 5.81579E-28
6.50353E-01 5.60772E-28
6.54508E-01 5.40904E-28
6.58652E-01 5.21927E-28
6.62784E-01 5.03795E-28
6.66903E-01 4.86463E-28
6.71010E-01 4.69892E-28
6.75104E-01 4.54042E-28
6.79184E-01 4.38875E-28
6.83251E-01 4.24356E-28
6.87303E-01 4.10453E-28
6.91342E-01 3.97134E-28
6.95366E-01 3.84369E-28
6.99375E-01 3.72130E-28
7.03368E-01 3.60390E-28
7.07347E-01 3.49123E-28
7.11309E-01 3.38307E-28
7.15256E-01 3.27918E-28
7.19186E-01 3.17935E-28
7.23099E-01 3.08338E-28
7.26995E-01 2.99108E-28
7.30874E-01 2.90225E-28
7.34736E-01 2.81674E-28
7.38579E-01 2.73437E-28
7.42405E-01 2.65500E-28
7.46212E-01 2.57848E-28
7.50000E-01 2.50467E-28
7.53769E-01 2.43345E-28
7.57519E-01 2.36467E-28
7.61249E-01 2.29825E-28
7.64960E-01 2.23405E-28
7.68650E-01 2.17197E-28
7.72320E-01 2.11193E-28
7.75968E-01 2.05381E-28
7.79596E-01 1.99755E-28
7.83203E-01 1.94304E-28
7.86788E-01 1.89022E-28
7.90351E-01 1.83900E-28
7.93893E-01 1.78932E-28
7.97411E-01 1.74111E-28
8.00908E-01 1.69431E-28
8.04381E-01 1.64885E-28
8.07831E-01 1.60468E-28
8.11257E-01 1.56174E-28
8.14660E-01 1.51999E-28
8.18039E-01 1.47938E-28
8.21394E-01 1.43985E-28
8.24724E-01 1.40137E-28
8.28030E-01 1.36390E-28
8.31310E-01 1.32740E-28
8.34565E-01 1.29183E-28
8.37795E-01 1.25715E-28
8.40999E-01 1.22334E-28
8.44177E-01 1.19035E-28
8.47329E-01 1.15817E-28
8.50455E-01 1.12677E-28
8.53553E-01 1.09611E-28
8.56625E-01 1.06618E-28
8.59670E-01 1.03694E-28
8.62687E-01 1.00839E-28
8.65677E-01 9.80483E-29
8.68639E-01 9.53213E-29
8.71572E-01 9.26560E-29
8.74478E-01 9.00502E-29
8.77355E-01 8.75025E-29
8.80203E-01 8.50110E-29
8.83022E-01 8.25743E-29
8.85812E-01 8.01908E-29
8.88573E-01 7.78591E-29
8.91304E-01 7.55778E-29
8.94005E-01 7.33457E-29
8.96677E-01 7.11616E-29
8.99318E-01 6.90243E-29
9.01928E-01 6.69326E-29
9.04508E-01 6.48856E-29
9.07058E-01 6.28822E-29
9.09576E-01 6.09214E-29
9.12063E-01 5.90024E-29
9.14519E-01 5.71243E-29
9.16943E-01 5.52862E-29
9.19335E-01 5.34874E-29
9.21696E-01 5.17271E-29
9.24024E-01 5.00046E-29
9.26320E-01 4.83191E-29
9.28584E-01 4.66700E-29
9.30815E-01 4.50568E-29
9.33013E-01 4.34787E-29
9.35178E-01 4.19352E-29
9.37310E-01 4.04258E-29
9.39409E-01 3.89498E-29
9.41474E-01 3.75069E-29
9.43505E-01 3.60965E-29
9.45503E-01 3.47182E-29
9.47467E-01 3.33714E-29
9.49397E-01 3.20558E-29
9.51293E-01 3.07710E-29
9.53154E-01 2.95165E-29
9.54981E-01 2.82920E-29
9.56773E-01 2.70971E-29
9.58530E-01 2.59315E-29
9.60252E-01 2.47948E-29
9.61940E-01 2.36867E-29
9.63592E-01 2.26069E-29
9.65209E-01 2.15551E-29
9.66790E-01 2.05310E-29
9.68336E-01 1.95343E-29
9.69846E-01 1.85648E-29
9.71321E-01 1.76221E-29
9.72759E-01 1.67062E-29
9.74162E-01 1.58166E-29
9.75528E-01 1.49532E-29
9.76858E-01 1.41159E-29
9.78152E-01 1.33042E-29
9.79410E-01 1.25182E-29
9.80631E-01 1.17575E-29
9.81815E-01 1.10220E-29
9.82963E-01 1.03116E-29
9.84074E-01 9.62593E-30
9.85148E-01 8.96498E-30
9.86185E-01 8.32854E-30
9.87185E-01 7.71648E-30
9.88148E-01 7.12865E-30
9.89074E-01 6.56492E-30
9.89962E-01 6.02516E-30
9.90814E-01 5.50923E-30
9.91627E-01 5.01703E-30
9.92404E-01 4.54845E-30
9.93143E-01 4.10337E-30
9.93844E-01 3.68171E-30
9.94508E-01 3.28336E-30
9.95134E-01 2.90823E-30
9.95722E-01 2.55625E-30
9.96273E-01 2.22734E-30
9.96786E-01 1.92141E-30
9.97261E-01 1.63842E-30
9.97698E-01 1.37829E-30
9.98097E-01 1.14097E-30
9.98459E-01 9.26404E-31
9.98782E-01 7.34549E-31
9.99067E-01 5.65363E-31
9.99315E-01 4.18809E-31
9.99524E-01 2.94855E-31
9.99695E-01 1.93474E-31
9.99829E-01 1.14645E-31
9.99924E-01 5.83505E-32
9.99981E-01 2.45787E-32
1.00000E+00 1.33222E-32
