 #
 # Subroutine ELSEPA. Elastic scattering of electrons and positrons
 #                    by neutral atoms and positive ions
 #
 # Projectile: electron
 # Kinetic energy = 4.50000E+07 eV = 1.65372E+06 a.u.
 #
 # WARNING: High-energy factorization with free-atom DF screening.
 #          Absorption, polarization and exchange corrections are
 #          switched off.
 #          Phase shifts are calculated for the bare nucleus.
 #          Scattering amplitudes are not evaluated.
 #
 # Element: Ir,  Z =  77,  atomic weight = 1.92217E+02 g/mol
 #
 # Nuclear model: Fermi distribution
 #                Average radius = 6.17515E-13 cm
 #                Skin thickness = 5.46000E-14 cm
 #
 # Number of electrons = 77
 #
 # Total elastic cross section = 7.74508E-18 cm**2 = 2.76582E-01 a0**2
 # 1st transport cross section = 5.49034E-24 cm**2 = 1.96063E-07 a0**2
 # 2nd transport cross section = 1.60236E-23 cm**2 = 5.72214E-07 a0**2
 #
 #
 # Differential cross section:                       MU=(1-COS(THETA))/2
 #
 #  THETA        MU          DCS          DCS        Sherman      error
 #  (deg)                 (cm**2/sr)   (a0**2/sr)    function
 #----------------------------------------------------------------------
0.00000E+00 1.01554E-10
7.61557E-13 1.01512E-10
1.18994E-12 1.01488E-10
1.71346E-12 1.01460E-10
2.33225E-12 1.01426E-10
3.04617E-12 1.01387E-10
3.85530E-12 1.01342E-10
4.75964E-12 1.01293E-10
5.75917E-12 1.01239E-10
6.85391E-12 1.01179E-10
8.04379E-12 1.01114E-10
9.32893E-12 1.01044E-10
1.07092E-11 1.00969E-10
1.21847E-11 1.00889E-10
1.37554E-11 1.00804E-10
1.54213E-11 1.00714E-10
1.71823E-11 1.00620E-10
1.90386E-11 1.00520E-10
2.09900E-11 1.00415E-10
2.30367E-11 1.00305E-10
2.51785E-11 1.00190E-10
2.74156E-11 1.00071E-10
2.97478E-11 9.99465E-11
3.21752E-11 9.98174E-11
3.46979E-11 9.96835E-11
3.73157E-11 9.95450E-11
4.00286E-11 9.94017E-11
4.28368E-11 9.92538E-11
4.57402E-11 9.91013E-11
4.87388E-11 9.89443E-11
5.18325E-11 9.87827E-11
5.50215E-11 9.86166E-11
5.83057E-11 9.84461E-11
6.16850E-11 9.82712E-11
6.51595E-11 9.80918E-11
6.87293E-11 9.79082E-11
7.23943E-11 9.77203E-11
7.61544E-11 9.75283E-11
1.18991E-10 9.53805E-11
1.71347E-10 9.28752E-11
2.33223E-10 9.00471E-11
3.04617E-10 8.69681E-11
3.85531E-10 8.36995E-11
4.75965E-10 8.02999E-11
5.75917E-10 7.68231E-11
6.85389E-10 7.33086E-11
8.04380E-10 6.97841E-11
9.32891E-10 6.63079E-11
1.07092E-09 6.29099E-11
1.21847E-09 5.96130E-11
1.37554E-09 5.64345E-11
1.54213E-09 5.33761E-11
1.71823E-09 5.04439E-11
1.90386E-09 4.76575E-11
2.09900E-09 4.50179E-11
2.30367E-09 4.25238E-11
2.51785E-09 4.01720E-11
2.74156E-09 3.79492E-11
2.97478E-09 3.58541E-11
3.21752E-09 3.38876E-11
3.46978E-09 3.20430E-11
3.73156E-09 3.03134E-11
4.00286E-09 2.86920E-11
4.28368E-09 2.71654E-11
4.57402E-09 2.57324E-11
4.87388E-09 2.43894E-11
5.18326E-09 2.31305E-11
5.50215E-09 2.19497E-11
5.83057E-09 2.08418E-11
6.16850E-09 1.97967E-11
6.51596E-09 1.88147E-11
6.87293E-09 1.78921E-11
7.23942E-09 1.70248E-11
7.61544E-09 1.62090E-11
1.18991E-08 1.01256E-11
1.71347E-08 6.69609E-12
2.33223E-08 4.55732E-12
3.04617E-08 3.21980E-12
3.85531E-08 2.34569E-12
4.75965E-08 1.75314E-12
5.75917E-08 1.33861E-12
6.85389E-08 1.03940E-12
8.04380E-08 8.17496E-13
9.32891E-08 6.51499E-13
1.07092E-07 5.25052E-13
1.21847E-07 4.27283E-13
1.37554E-07 3.50746E-13
1.54213E-07 2.90036E-13
1.71823E-07 2.41526E-13
1.90386E-07 2.02647E-13
2.09900E-07 1.71234E-13
2.30367E-07 1.45662E-13
2.51785E-07 1.24704E-13
2.74156E-07 1.07430E-13
2.97478E-07 9.29864E-14
3.21752E-07 8.09274E-14
3.46978E-07 7.08073E-14
3.73156E-07 6.22622E-14
4.00286E-07 5.50024E-14
4.28368E-07 4.87883E-14
4.57402E-07 4.34410E-14
4.87388E-07 3.88171E-14
5.18325E-07 3.47990E-14
5.50215E-07 3.12918E-14
5.83057E-07 2.82184E-14
6.16850E-07 2.55116E-14
6.51596E-07 2.31240E-14
6.87293E-07 2.10120E-14
7.23942E-07 1.91378E-14
7.61543E-07 1.74698E-14
1.18991E-06 7.73782E-15
1.71347E-06 3.93546E-15
2.33223E-06 2.20672E-15
3.04617E-06 1.33096E-15
3.85531E-06 8.49532E-16
4.75964E-06 5.67426E-16
5.75916E-06 3.93369E-16
6.85388E-06 2.81285E-16
8.04378E-06 2.06462E-16
9.32888E-06 1.54957E-16
1.07092E-05 1.18558E-16
1.21846E-05 9.22424E-17
1.37553E-05 7.28346E-17
1.54212E-05 5.82682E-17
1.71822E-05 4.71639E-17
1.90385E-05 3.85579E-17
2.09899E-05 3.18648E-17
2.30365E-05 2.65569E-17
2.51783E-05 2.23021E-17
2.74153E-05 1.88606E-17
2.97475E-05 1.60553E-17
3.21749E-05 1.37524E-17
3.46974E-05 1.18491E-17
3.73152E-05 1.02655E-17
4.00281E-05 8.93897E-18
4.28362E-05 7.82056E-18
4.57395E-05 6.87177E-18
4.87380E-05 6.06234E-18
5.18317E-05 5.36834E-18
5.50205E-05 4.77065E-18
5.83045E-05 4.25383E-18
6.16838E-05 3.80523E-18
6.51582E-05 3.41440E-18
6.87277E-05 3.07265E-18
7.23925E-05 2.77273E-18
7.61524E-05 2.50820E-18
9.21439E-05 1.72015E-18
1.09658E-04 1.21881E-18
1.28695E-04 8.87702E-19
1.49255E-04 6.61809E-19
1.71338E-04 5.03481E-19
1.94942E-04 3.89821E-19
2.20070E-04 3.06524E-19
2.46720E-04 2.44355E-19
2.74892E-04 1.97191E-19
3.04586E-04 1.60889E-19
3.35803E-04 1.32580E-19
3.68542E-04 1.10239E-19
4.02802E-04 9.24190E-20
4.38585E-04 7.80642E-20
4.75889E-04 6.63957E-20
5.14715E-04 5.68325E-20
5.55063E-04 4.89339E-20
5.96931E-04 4.23640E-20
6.40321E-04 3.68633E-20
6.85233E-04 3.22291E-20
7.31665E-04 2.83028E-20
7.79618E-04 2.49582E-20
8.29092E-04 2.20949E-20
8.80086E-04 1.96320E-20
9.32601E-04 1.75040E-20
9.86636E-04 1.56576E-20
1.04219E-03 1.40493E-20
1.09927E-03 1.26431E-20
1.15786E-03 1.14092E-20
1.21797E-03 1.03229E-20
1.27961E-03 9.36338E-21
1.34276E-03 8.51330E-21
1.40743E-03 7.75801E-21
1.47362E-03 7.08505E-21
1.54133E-03 6.48387E-21
1.61056E-03 5.94545E-21
1.68131E-03 5.46208E-21
1.75357E-03 5.02713E-21
1.82735E-03 4.63486E-21
1.90265E-03 4.28035E-21
1.97947E-03 3.95930E-21
2.05780E-03 3.66798E-21
2.13765E-03 3.40314E-21
2.21902E-03 3.16194E-21
2.30190E-03 2.94187E-21
2.38630E-03 2.74075E-21
2.47222E-03 2.55665E-21
2.55965E-03 2.38787E-21
2.64859E-03 2.23289E-21
2.73905E-03 2.09037E-21
2.83103E-03 1.95913E-21
2.92452E-03 1.83811E-21
3.01952E-03 1.72637E-21
3.11604E-03 1.62306E-21
3.21407E-03 1.52743E-21
3.31362E-03 1.43880E-21
3.41468E-03 1.35656E-21
3.51725E-03 1.28016E-21
3.62133E-03 1.20912E-21
3.72692E-03 1.14298E-21
3.83403E-03 1.08134E-21
3.94265E-03 1.02384E-21
4.05278E-03 9.70141E-22
4.16442E-03 9.19955E-22
4.27757E-03 8.73004E-22
4.39223E-03 8.29038E-22
4.50840E-03 7.87832E-22
4.62608E-03 7.49182E-22
4.74527E-03 7.12895E-22
4.86597E-03 6.78799E-22
4.98817E-03 6.46743E-22
5.11188E-03 6.16573E-22
5.23711E-03 5.88159E-22
5.36383E-03 5.61384E-22
5.49207E-03 5.36128E-22
5.62181E-03 5.12293E-22
5.75306E-03 4.89782E-22
5.88581E-03 4.68507E-22
6.02007E-03 4.48387E-22
6.15583E-03 4.29347E-22
6.29310E-03 4.11319E-22
6.43187E-03 3.94237E-22
6.57214E-03 3.78043E-22
6.71392E-03 3.62681E-22
6.85720E-03 3.48100E-22
7.00198E-03 3.34252E-22
7.14827E-03 3.21094E-22
7.29605E-03 3.08585E-22
7.44534E-03 2.96685E-22
7.59612E-03 2.85360E-22
7.97965E-03 2.59349E-22
8.37255E-03 2.36266E-22
8.77480E-03 2.15722E-22
9.18641E-03 1.97386E-22
9.60736E-03 1.80979E-22
1.00376E-02 1.66258E-22
1.04773E-02 1.53021E-22
1.09262E-02 1.41088E-22
1.13844E-02 1.30309E-22
1.18520E-02 1.20550E-22
1.23288E-02 1.11698E-22
1.28150E-02 1.03653E-22
1.33104E-02 9.63216E-23
1.38150E-02 8.96333E-23
1.43290E-02 8.35206E-23
1.48521E-02 7.79248E-23
1.53845E-02 7.27937E-23
1.59262E-02 6.80814E-23
1.64770E-02 6.37473E-23
1.70371E-02 5.97551E-23
1.76063E-02 5.60727E-23
1.81848E-02 5.26715E-23
1.87724E-02 4.95259E-23
1.93692E-02 4.66129E-23
1.99751E-02 4.39121E-23
2.05901E-02 4.14049E-23
2.12143E-02 3.90749E-23
2.18476E-02 3.69071E-23
2.24900E-02 3.48880E-23
2.31415E-02 3.30055E-23
2.38021E-02 3.12484E-23
2.44717E-02 2.96069E-23
2.51504E-02 2.80719E-23
2.58382E-02 2.66350E-23
2.65349E-02 2.52888E-23
2.72407E-02 2.40266E-23
2.79555E-02 2.28419E-23
2.86793E-02 2.17292E-23
2.94120E-02 2.06831E-23
3.01537E-02 1.96990E-23
3.09043E-02 1.87725E-23
3.16639E-02 1.78995E-23
3.24324E-02 1.70763E-23
3.32098E-02 1.62996E-23
3.39961E-02 1.55662E-23
3.47912E-02 1.48732E-23
3.55952E-02 1.42179E-23
3.64081E-02 1.35980E-23
3.72297E-02 1.30112E-23
3.80602E-02 1.24552E-23
3.88995E-02 1.19283E-23
3.97476E-02 1.14285E-23
4.06044E-02 1.09543E-23
4.14700E-02 1.05040E-23
4.23443E-02 1.00763E-23
4.32273E-02 9.66970E-24
4.41190E-02 9.28305E-24
4.50194E-02 8.91516E-24
4.59284E-02 8.56495E-24
4.68461E-02 8.23141E-24
4.87074E-02 7.61062E-24
5.06030E-02 7.04594E-24
5.25328E-02 6.53140E-24
5.44967E-02 6.06175E-24
5.64946E-02 5.63239E-24
5.85262E-02 5.23923E-24
6.05914E-02 4.87870E-24
6.26901E-02 4.54761E-24
6.48222E-02 4.24313E-24
6.69873E-02 3.96275E-24
6.91854E-02 3.70424E-24
7.14163E-02 3.46560E-24
7.36799E-02 3.24503E-24
7.59760E-02 3.04094E-24
7.83043E-02 2.85189E-24
8.06647E-02 2.67658E-24
8.30571E-02 2.51384E-24
8.54812E-02 2.36263E-24
8.79369E-02 2.22199E-24
9.04240E-02 2.09107E-24
9.29422E-02 1.96908E-24
9.54915E-02 1.85531E-24
9.80716E-02 1.74913E-24
1.00682E-01 1.64995E-24
1.03323E-01 1.55723E-24
1.05995E-01 1.47048E-24
1.08696E-01 1.38927E-24
1.11427E-01 1.31318E-24
1.14188E-01 1.24185E-24
1.16978E-01 1.17492E-24
1.19797E-01 1.11210E-24
1.22645E-01 1.05308E-24
1.25522E-01 9.97613E-25
1.28428E-01 9.45444E-25
1.31361E-01 8.96352E-25
1.34323E-01 8.50130E-25
1.37313E-01 8.06586E-25
1.40330E-01 7.65545E-25
1.43375E-01 7.26841E-25
1.46447E-01 6.90325E-25
1.49545E-01 6.55856E-25
1.52671E-01 6.23305E-25
1.55823E-01 5.92549E-25
1.59001E-01 5.63479E-25
1.62205E-01 5.35989E-25
1.65435E-01 5.09983E-25
1.68690E-01 4.85371E-25
1.71970E-01 4.62069E-25
1.75276E-01 4.39999E-25
1.78606E-01 4.19088E-25
1.81961E-01 3.99267E-25
1.85340E-01 3.80474E-25
1.88743E-01 3.62649E-25
1.92169E-01 3.45737E-25
1.95619E-01 3.29685E-25
1.99092E-01 3.14445E-25
2.02589E-01 2.99972E-25
2.06107E-01 2.86222E-25
2.09649E-01 2.73156E-25
2.13212E-01 2.60736E-25
2.16797E-01 2.48927E-25
2.20404E-01 2.37697E-25
2.24032E-01 2.27013E-25
2.27680E-01 2.16846E-25
2.31350E-01 2.07170E-25
2.35040E-01 1.97958E-25
2.38751E-01 1.89186E-25
2.42481E-01 1.80831E-25
2.46231E-01 1.72871E-25
2.50000E-01 1.65287E-25
2.53788E-01 1.58058E-25
2.57595E-01 1.51166E-25
2.61421E-01 1.44595E-25
2.65264E-01 1.38329E-25
2.69126E-01 1.32352E-25
2.73005E-01 1.26649E-25
2.76901E-01 1.21208E-25
2.80814E-01 1.16014E-25
2.84744E-01 1.11057E-25
2.88691E-01 1.06324E-25
2.92653E-01 1.01805E-25
2.96632E-01 9.74893E-26
3.00625E-01 9.33668E-26
3.04634E-01 8.94285E-26
3.08658E-01 8.56655E-26
3.12697E-01 8.20695E-26
3.16749E-01 7.86326E-26
3.20816E-01 7.53474E-26
3.24896E-01 7.22067E-26
3.28990E-01 6.92037E-26
3.33097E-01 6.63320E-26
3.37216E-01 6.35856E-26
3.41348E-01 6.09586E-26
3.45492E-01 5.84455E-26
3.49647E-01 5.60412E-26
3.53814E-01 5.37406E-26
3.57992E-01 5.15390E-26
3.62181E-01 4.94319E-26
3.66381E-01 4.74151E-26
3.70590E-01 4.54845E-26
3.74810E-01 4.36362E-26
3.79039E-01 4.18664E-26
3.83277E-01 4.01718E-26
3.87524E-01 3.85489E-26
3.91780E-01 3.69946E-26
3.96044E-01 3.55059E-26
4.00316E-01 3.40798E-26
4.04596E-01 3.27135E-26
4.08882E-01 3.14045E-26
4.13176E-01 3.01503E-26
4.17476E-01 2.89484E-26
4.21783E-01 2.77966E-26
4.26095E-01 2.66926E-26
4.30413E-01 2.56345E-26
4.34737E-01 2.46203E-26
4.39065E-01 2.36480E-26
4.43398E-01 2.27158E-26
4.47736E-01 2.18220E-26
4.52077E-01 2.09650E-26
4.56422E-01 2.01433E-26
4.60770E-01 1.93552E-26
4.65122E-01 1.85994E-26
4.69476E-01 1.78744E-26
4.73832E-01 1.71791E-26
4.78190E-01 1.65120E-26
4.82550E-01 1.58722E-26
4.86912E-01 1.52583E-26
4.91274E-01 1.46692E-26
4.95637E-01 1.41041E-26
5.00000E-01 1.35618E-26
5.04363E-01 1.30413E-26
5.08726E-01 1.25419E-26
5.13088E-01 1.20625E-26
5.17450E-01 1.16024E-26
5.21810E-01 1.11608E-26
5.26168E-01 1.07368E-26
5.30524E-01 1.03298E-26
5.34878E-01 9.93910E-27
5.39230E-01 9.56395E-27
5.43578E-01 9.20373E-27
5.47923E-01 8.85784E-27
5.52264E-01 8.52567E-27
5.56602E-01 8.20667E-27
5.60935E-01 7.90030E-27
5.65263E-01 7.60603E-27
5.69587E-01 7.32337E-27
5.73905E-01 7.05184E-27
5.78217E-01 6.79099E-27
5.82524E-01 6.54038E-27
5.86824E-01 6.29960E-27
5.91118E-01 6.06824E-27
5.95404E-01 5.84592E-27
5.99684E-01 5.63227E-27
6.03956E-01 5.42694E-27
6.08220E-01 5.22959E-27
6.12476E-01 5.03990E-27
6.16723E-01 4.85755E-27
6.20961E-01 4.68225E-27
6.25190E-01 4.51372E-27
6.29410E-01 4.35168E-27
6.33619E-01 4.19586E-27
6.37819E-01 4.04603E-27
6.42008E-01 3.90193E-27
6.46186E-01 3.76334E-27
6.50353E-01 3.63003E-27
6.54508E-01 3.50179E-27
6.58652E-01 3.37842E-27
6.62784E-01 3.25972E-27
6.66903E-01 3.14551E-27
6.71010E-01 3.03561E-27
6.75104E-01 2.92984E-27
6.79184E-01 2.82804E-27
6.83251E-01 2.73005E-27
6.87303E-01 2.63572E-27
6.91342E-01 2.54490E-27
6.95366E-01 2.45745E-27
6.99375E-01 2.37325E-27
7.03368E-01 2.29215E-27
7.07347E-01 2.21404E-27
7.11309E-01 2.13880E-27
7.15256E-01 2.06631E-27
7.19186E-01 1.99647E-27
7.23099E-01 1.92917E-27
7.26995E-01 1.86432E-27
7.30874E-01 1.80180E-27
7.34736E-01 1.74154E-27
7.38579E-01 1.68345E-27
7.42405E-01 1.62743E-27
7.46212E-01 1.57342E-27
7.50000E-01 1.52132E-27
7.53769E-01 1.47106E-27
7.57519E-01 1.42258E-27
7.61249E-01 1.37580E-27
7.64960E-01 1.33066E-27
7.68650E-01 1.28709E-27
7.72320E-01 1.24504E-27
7.75968E-01 1.20444E-27
7.79596E-01 1.16524E-27
7.83203E-01 1.12738E-27
7.86788E-01 1.09081E-27
7.90351E-01 1.05549E-27
7.93893E-01 1.02136E-27
7.97411E-01 9.88380E-28
8.00908E-01 9.56507E-28
8.04381E-01 9.25697E-28
8.07831E-01 8.95910E-28
8.11257E-01 8.67107E-28
8.14660E-01 8.39251E-28
8.18039E-01 8.12307E-28
8.21394E-01 7.86241E-28
8.24724E-01 7.61019E-28
8.28030E-01 7.36610E-28
8.31310E-01 7.12984E-28
8.34565E-01 6.90112E-28
8.37795E-01 6.67965E-28
8.40999E-01 6.46518E-28
8.44177E-01 6.25745E-28
8.47329E-01 6.05621E-28
8.50455E-01 5.86123E-28
8.53553E-01 5.67227E-28
8.56625E-01 5.48913E-28
8.59670E-01 5.31160E-28
8.62687E-01 5.13946E-28
8.65677E-01 4.97255E-28
8.68639E-01 4.81066E-28
8.71572E-01 4.65362E-28
8.74478E-01 4.50127E-28
8.77355E-01 4.35344E-28
8.80203E-01 4.20998E-28
8.83022E-01 4.07074E-28
8.85812E-01 3.93557E-28
8.88573E-01 3.80433E-28
8.91304E-01 3.67690E-28
8.94005E-01 3.55315E-28
8.96677E-01 3.43296E-28
8.99318E-01 3.31621E-28
9.01928E-01 3.20279E-28
9.04508E-01 3.09259E-28
9.07058E-01 2.98551E-28
9.09576E-01 2.88146E-28
9.12063E-01 2.78033E-28
9.14519E-01 2.68204E-28
9.16943E-01 2.58650E-28
9.19335E-01 2.49363E-28
9.21696E-01 2.40335E-28
9.24024E-01 2.31558E-28
9.26320E-01 2.23024E-28
9.28584E-01 2.14728E-28
9.30815E-01 2.06662E-28
9.33013E-01 1.98819E-28
9.35178E-01 1.91194E-28
9.37310E-01 1.83780E-28
9.39409E-01 1.76573E-28
9.41474E-01 1.69565E-28
9.43505E-01 1.62753E-28
9.45503E-01 1.56132E-28
9.47467E-01 1.49695E-28
9.49397E-01 1.43440E-28
9.51293E-01 1.37361E-28
9.53154E-01 1.31454E-28
9.54981E-01 1.25716E-28
9.56773E-01 1.20142E-28
9.58530E-01 1.14728E-28
9.60252E-01 1.09472E-28
9.61940E-01 1.04370E-28
9.63592E-01 9.94183E-29
9.65209E-01 9.46140E-29
9.66790E-01 8.99542E-29
9.68336E-01 8.54362E-29
9.69846E-01 8.10570E-29
9.71321E-01 7.68143E-29
9.72759E-01 7.27055E-29
9.74162E-01 6.87282E-29
9.75528E-01 6.48802E-29
9.76858E-01 6.11594E-29
9.78152E-01 5.75637E-29
9.79410E-01 5.40910E-29
9.80631E-01 5.07396E-29
9.81815E-01 4.75077E-29
9.82963E-01 4.43935E-29
9.84074E-01 4.13955E-29
9.85148E-01 3.85121E-29
9.86185E-01 3.57419E-29
9.87185E-01 3.30834E-29
9.88148E-01 3.05353E-29
9.89074E-01 2.80965E-29
9.89962E-01 2.57656E-29
9.90814E-01 2.35416E-29
9.91627E-01 2.14234E-29
9.92404E-01 1.94101E-29
9.93143E-01 1.75006E-29
9.93844E-01 1.56941E-29
9.94508E-01 1.39898E-29
9.95134E-01 1.23869E-29
9.95722E-01 1.08846E-29
9.96273E-01 9.48234E-30
9.96786E-01 8.17941E-30
9.97261E-01 6.97526E-30
9.97698E-01 5.86935E-30
9.98097E-01 4.86121E-30
9.98459E-01 3.95039E-30
9.98782E-01 3.13649E-30
9.99067E-01 2.41916E-30
9.99315E-01 1.79810E-30
9.99524E-01 1.27304E-30
9.99695E-01 8.43744E-31
9.99829E-01 5.10039E-31
9.99924E-01 2.71780E-31
9.99981E-01 1.28866E-31
1.00000E+00 8.12339E-32
