 #
 # Subroutine ELSEPA. Elastic scattering of electrons and positrons
 #                    by neutral atoms and positive ions
 #
 # Projectile: electron
 # Kinetic energy = 8.00000E+07 eV = 2.93995E+06 a.u.
 #
 # WARNING: High-energy factorization with free-atom DF screening.
 #          Absorption, polarization and exchange corrections are
 #          switched off.
 #          Phase shifts are calculated for the bare nucleus.
 #          Scattering amplitudes are not evaluated.
 #
 # Element: Ir,  Z =  77,  atomic weight = 1.92217E+02 g/mol
 #
 # Nuclear model: Fermi distribution
 #                Average radius = 6.17515E-13 cm
 #                Skin thickness = 5.46000E-14 cm
 #
 # Number of electrons = 77
 #
 # Total elastic cross section = 7.74321E-18 cm**2 = 2.76515E-01 a0**2
 # 1st transport cross section = 1.75044E-24 cm**2 = 6.25092E-08 a0**2
 # 2nd transport cross section = 5.19090E-24 cm**2 = 1.85370E-07 a0**2
 #
 #
 # Differential cross section:                       MU=(1-COS(THETA))/2
 #
 #  THETA        MU          DCS          DCS        Sherman      error
 #  (deg)                 (cm**2/sr)   (a0**2/sr)    function
 #----------------------------------------------------------------------
0.00000E+00 3.17816E-10
7.61557E-13 3.17405E-10
1.18994E-12 3.17175E-10
1.71346E-12 3.16895E-10
2.33225E-12 3.16565E-10
3.04617E-12 3.16185E-10
3.85530E-12 3.15755E-10
4.75964E-12 3.15276E-10
5.75917E-12 3.14748E-10
6.85391E-12 3.14172E-10
8.04379E-12 3.13547E-10
9.32893E-12 3.12876E-10
1.07092E-11 3.12157E-10
1.21847E-11 3.11392E-10
1.37554E-11 3.10581E-10
1.54213E-11 3.09725E-10
1.71823E-11 3.08824E-10
1.90386E-11 3.07880E-10
2.09900E-11 3.06893E-10
2.30367E-11 3.05864E-10
2.51785E-11 3.04793E-10
2.74156E-11 3.03682E-10
2.97478E-11 3.02531E-10
3.21752E-11 3.01341E-10
3.46979E-11 3.00113E-10
3.73157E-11 2.98836E-10
4.00286E-11 2.97522E-10
4.28368E-11 2.96178E-10
4.57402E-11 2.94806E-10
4.87388E-11 2.93406E-10
5.18325E-11 2.91980E-10
5.50215E-11 2.90529E-10
5.83057E-11 2.89013E-10
6.16850E-11 2.87470E-10
6.51595E-11 2.85906E-10
6.87293E-11 2.84322E-10
7.23943E-11 2.82720E-10
7.61544E-11 2.81101E-10
1.18991E-10 2.63554E-10
1.71347E-10 2.44628E-10
2.33223E-10 2.25146E-10
3.04617E-10 2.05879E-10
3.85531E-10 1.87359E-10
4.75965E-10 1.69916E-10
5.75917E-10 1.53812E-10
6.85389E-10 1.39050E-10
8.04380E-10 1.25727E-10
9.32891E-10 1.13681E-10
1.07092E-09 1.02933E-10
1.21847E-09 9.32660E-11
1.37554E-09 8.46712E-11
1.54213E-09 7.69628E-11
1.71823E-09 7.00967E-11
1.90386E-09 6.39391E-11
2.09900E-09 5.84335E-11
2.30367E-09 5.34884E-11
2.51785E-09 4.90465E-11
2.74156E-09 4.50479E-11
2.97478E-09 4.14392E-11
3.21752E-09 3.81823E-11
3.46978E-09 3.52295E-11
3.73156E-09 3.23919E-11
4.00286E-09 2.98316E-11
4.28368E-09 2.75777E-11
4.57402E-09 2.55857E-11
4.87388E-09 2.38189E-11
5.18326E-09 2.22461E-11
5.50215E-09 2.08413E-11
5.83057E-09 1.93622E-11
6.16850E-09 1.80228E-11
6.51596E-09 1.68224E-11
6.87293E-09 1.57436E-11
7.23942E-09 1.47711E-11
7.61544E-09 1.38922E-11
1.18991E-08 7.69919E-12
1.71347E-08 4.63598E-12
2.33223E-08 2.95839E-12
3.04617E-08 1.97184E-12
3.85531E-08 1.35855E-12
4.75965E-08 9.60971E-13
5.75917E-08 6.96700E-13
6.85389E-08 5.15955E-13
8.04380E-08 3.90278E-13
9.32891E-08 3.00705E-13
1.07092E-07 2.35576E-13
1.21847E-07 1.87454E-13
1.37554E-07 1.51310E-13
1.54213E-07 1.23570E-13
1.71823E-07 1.01978E-13
1.90386E-07 8.49112E-14
2.09900E-07 7.12946E-14
2.30367E-07 6.03149E-14
2.51785E-07 5.13828E-14
2.74156E-07 4.40492E-14
2.97478E-07 3.79757E-14
3.21752E-07 3.29120E-14
3.46978E-07 2.86602E-14
3.73156E-07 2.50560E-14
4.00286E-07 2.20130E-14
4.28368E-07 1.94371E-14
4.57402E-07 1.72009E-14
4.87388E-07 1.52891E-14
5.18325E-07 1.36383E-14
5.50215E-07 1.21957E-14
5.83057E-07 1.09456E-14
6.16850E-07 9.84902E-15
6.51596E-07 8.88513E-15
6.87293E-07 8.04023E-15
7.23942E-07 7.28916E-15
7.61543E-07 6.62506E-15
1.18991E-06 2.83837E-15
1.71347E-06 1.41096E-15
2.33223E-06 7.78722E-16
3.04617E-06 4.64391E-16
3.85531E-06 2.93844E-16
4.75964E-06 1.94828E-16
5.75916E-06 1.34187E-16
6.85388E-06 9.53871E-17
8.04378E-06 6.96374E-17
9.32888E-06 5.20145E-17
1.07092E-05 3.96283E-17
1.21846E-05 3.07185E-17
1.37553E-05 2.41781E-17
1.54212E-05 1.92900E-17
1.71822E-05 1.55775E-17
1.90385E-05 1.27097E-17
2.09899E-05 1.04856E-17
2.30365E-05 8.72615E-18
2.51783E-05 7.31877E-18
2.74153E-05 6.18249E-18
2.97475E-05 5.25770E-18
3.21749E-05 4.49956E-18
3.46974E-05 3.87373E-18
3.73152E-05 3.35353E-18
4.00281E-05 2.91820E-18
4.28362E-05 2.55147E-18
4.57395E-05 2.24058E-18
4.87380E-05 1.97555E-18
5.18317E-05 1.74844E-18
5.50205E-05 1.55297E-18
5.83045E-05 1.38403E-18
6.16838E-05 1.23748E-18
6.51582E-05 1.10986E-18
6.87277E-05 9.98325E-19
7.23925E-05 9.00483E-19
7.61524E-05 8.14387E-19
9.21439E-05 5.57688E-19
1.09658E-04 3.94638E-19
1.28695E-04 2.87107E-19
1.49255E-04 2.13841E-19
1.71338E-04 1.62548E-19
1.94942E-04 1.25766E-19
2.20070E-04 9.88346E-20
2.46720E-04 7.87507E-20
2.74892E-04 6.35259E-20
3.04586E-04 5.18147E-20
3.35803E-04 4.26869E-20
3.68542E-04 3.54873E-20
4.02802E-04 2.97468E-20
4.38585E-04 2.51242E-20
4.75889E-04 2.13678E-20
5.14715E-04 1.82900E-20
5.55063E-04 1.57483E-20
5.96931E-04 1.36347E-20
6.40321E-04 1.18651E-20
6.85233E-04 1.03745E-20
7.31665E-04 9.11170E-21
7.79618E-04 8.03599E-21
8.29092E-04 7.11509E-21
8.80086E-04 6.32295E-21
9.32601E-04 5.63850E-21
9.86636E-04 5.04463E-21
1.04219E-03 4.52728E-21
1.09927E-03 4.07491E-21
1.15786E-03 3.67792E-21
1.21797E-03 3.32837E-21
1.27961E-03 3.01959E-21
1.34276E-03 2.74599E-21
1.40743E-03 2.50286E-21
1.47362E-03 2.28620E-21
1.54133E-03 2.09262E-21
1.61056E-03 1.91923E-21
1.68131E-03 1.76352E-21
1.75357E-03 1.62339E-21
1.82735E-03 1.49699E-21
1.90265E-03 1.38273E-21
1.97947E-03 1.27924E-21
2.05780E-03 1.18531E-21
2.13765E-03 1.09990E-21
2.21902E-03 1.02210E-21
2.30190E-03 9.51101E-22
2.38630E-03 8.86200E-22
2.47222E-03 8.26780E-22
2.55965E-03 7.72289E-22
2.64859E-03 7.22245E-22
2.73905E-03 6.76216E-22
2.83103E-03 6.33820E-22
2.92452E-03 5.94718E-22
3.01952E-03 5.58606E-22
3.11604E-03 5.25211E-22
3.21407E-03 4.94291E-22
3.31362E-03 4.65629E-22
3.41468E-03 4.39029E-22
3.51725E-03 4.14313E-22
3.62133E-03 3.91324E-22
3.72692E-03 3.69919E-22
3.83403E-03 3.49968E-22
3.94265E-03 3.31353E-22
4.05278E-03 3.13970E-22
4.16442E-03 2.97713E-22
4.27757E-03 2.82497E-22
4.39223E-03 2.68247E-22
4.50840E-03 2.54889E-22
4.62608E-03 2.42356E-22
4.74527E-03 2.30589E-22
4.86597E-03 2.19530E-22
4.98817E-03 2.09130E-22
5.11188E-03 1.99341E-22
5.23711E-03 1.90121E-22
5.36383E-03 1.81431E-22
5.49207E-03 1.73233E-22
5.62181E-03 1.65495E-22
5.75306E-03 1.58186E-22
5.88581E-03 1.51277E-22
6.02007E-03 1.44743E-22
6.15583E-03 1.38558E-22
6.29310E-03 1.32702E-22
6.43187E-03 1.27152E-22
6.57214E-03 1.21890E-22
6.71392E-03 1.16898E-22
6.85720E-03 1.12160E-22
7.00198E-03 1.07659E-22
7.14827E-03 1.03382E-22
7.29605E-03 9.93162E-23
7.44534E-03 9.54480E-23
7.59612E-03 9.17663E-23
7.97965E-03 8.33096E-23
8.37255E-03 7.58042E-23
8.77480E-03 6.91239E-23
9.18641E-03 6.31618E-23
9.60736E-03 5.78268E-23
1.00376E-02 5.30409E-23
1.04773E-02 4.87376E-23
1.09262E-02 4.48593E-23
1.13844E-02 4.13564E-23
1.18520E-02 3.81861E-23
1.23288E-02 3.53111E-23
1.28150E-02 3.26988E-23
1.33104E-02 3.03208E-23
1.38150E-02 2.81525E-23
1.43290E-02 2.61718E-23
1.48521E-02 2.43597E-23
1.53845E-02 2.26992E-23
1.59262E-02 2.11753E-23
1.64770E-02 1.97748E-23
1.70371E-02 1.84858E-23
1.76063E-02 1.72979E-23
1.81848E-02 1.62018E-23
1.87724E-02 1.51890E-23
1.93692E-02 1.42520E-23
1.99751E-02 1.33843E-23
2.05901E-02 1.25798E-23
2.12143E-02 1.18330E-23
2.18476E-02 1.11390E-23
2.24900E-02 1.04935E-23
2.31415E-02 9.89256E-24
2.38021E-02 9.33245E-24
2.44717E-02 8.80995E-24
2.51504E-02 8.32209E-24
2.58382E-02 7.86619E-24
2.65349E-02 7.43978E-24
2.72407E-02 7.04062E-24
2.79555E-02 6.66668E-24
2.86793E-02 6.31609E-24
2.94120E-02 5.98714E-24
3.01537E-02 5.67827E-24
3.09043E-02 5.38806E-24
3.16639E-02 5.11517E-24
3.24324E-02 4.85841E-24
3.32098E-02 4.61666E-24
3.39961E-02 4.38891E-24
3.47912E-02 4.17420E-24
3.55952E-02 3.97167E-24
3.64081E-02 3.78052E-24
3.72297E-02 3.60000E-24
3.80602E-02 3.42943E-24
3.88995E-02 3.26817E-24
3.97476E-02 3.11564E-24
4.06044E-02 2.97128E-24
4.14700E-02 2.83459E-24
4.23443E-02 2.70510E-24
4.32273E-02 2.58237E-24
4.41190E-02 2.46600E-24
4.50194E-02 2.35560E-24
4.59284E-02 2.25083E-24
4.68461E-02 2.15135E-24
4.87074E-02 1.96705E-24
5.06030E-02 1.80051E-24
5.25328E-02 1.64976E-24
5.44967E-02 1.51312E-24
5.64946E-02 1.38908E-24
5.85262E-02 1.27635E-24
6.05914E-02 1.17374E-24
6.26901E-02 1.08025E-24
6.48222E-02 9.94960E-25
6.69873E-02 9.17065E-25
6.91854E-02 8.45850E-25
7.14163E-02 7.80674E-25
7.36799E-02 7.20969E-25
7.59760E-02 6.66223E-25
7.83043E-02 6.15981E-25
8.06647E-02 5.69833E-25
8.30571E-02 5.27411E-25
8.54812E-02 4.88383E-25
8.79369E-02 4.52452E-25
9.04240E-02 4.19348E-25
9.29422E-02 3.88828E-25
9.54915E-02 3.60673E-25
9.80716E-02 3.34682E-25
1.00682E-01 3.10675E-25
1.03323E-01 2.88489E-25
1.05995E-01 2.67973E-25
1.08696E-01 2.48993E-25
1.11427E-01 2.31424E-25
1.14188E-01 2.15155E-25
1.16978E-01 2.00081E-25
1.19797E-01 1.86110E-25
1.22645E-01 1.73154E-25
1.25522E-01 1.61137E-25
1.28428E-01 1.49985E-25
1.31361E-01 1.39633E-25
1.34323E-01 1.30019E-25
1.37313E-01 1.21089E-25
1.40330E-01 1.12791E-25
1.43375E-01 1.05079E-25
1.46447E-01 9.79084E-26
1.49545E-01 9.12400E-26
1.52671E-01 8.50371E-26
1.55823E-01 7.92657E-26
1.59001E-01 7.38948E-26
1.62205E-01 6.88954E-26
1.65435E-01 6.42410E-26
1.68690E-01 5.99069E-26
1.71970E-01 5.58705E-26
1.75276E-01 5.21106E-26
1.78606E-01 4.86077E-26
1.81961E-01 4.53439E-26
1.85340E-01 4.23025E-26
1.88743E-01 3.94678E-26
1.92169E-01 3.68257E-26
1.95619E-01 3.43627E-26
1.99092E-01 3.20664E-26
2.02589E-01 2.99255E-26
2.06107E-01 2.79292E-26
2.09649E-01 2.60676E-26
2.13212E-01 2.43316E-26
2.16797E-01 2.27125E-26
2.20404E-01 2.12025E-26
2.24032E-01 1.97940E-26
2.27680E-01 1.84803E-26
2.31350E-01 1.72549E-26
2.35040E-01 1.61119E-26
2.38751E-01 1.50456E-26
2.42481E-01 1.40509E-26
2.46231E-01 1.31231E-26
2.50000E-01 1.22575E-26
2.53788E-01 1.14501E-26
2.57595E-01 1.06969E-26
2.61421E-01 9.99425E-27
2.65264E-01 9.33879E-27
2.69126E-01 8.72735E-27
2.73005E-01 8.15698E-27
2.76901E-01 7.62493E-27
2.80814E-01 7.12864E-27
2.84744E-01 6.66570E-27
2.88691E-01 6.23388E-27
2.92653E-01 5.83109E-27
2.96632E-01 5.45539E-27
3.00625E-01 5.10497E-27
3.04634E-01 4.77812E-27
3.08658E-01 4.47326E-27
3.12697E-01 4.18892E-27
3.16749E-01 3.92372E-27
3.20816E-01 3.67637E-27
3.24896E-01 3.44566E-27
3.28990E-01 3.23048E-27
3.33097E-01 3.02978E-27
3.37216E-01 2.84257E-27
3.41348E-01 2.66796E-27
3.45492E-01 2.50508E-27
3.49647E-01 2.35314E-27
3.53814E-01 2.21140E-27
3.57992E-01 2.07917E-27
3.62181E-01 1.95579E-27
3.66381E-01 1.84067E-27
3.70590E-01 1.73325E-27
3.74810E-01 1.63299E-27
3.79039E-01 1.53940E-27
3.83277E-01 1.45204E-27
3.87524E-01 1.37048E-27
3.91780E-01 1.29430E-27
3.96044E-01 1.22316E-27
4.00316E-01 1.15669E-27
4.04596E-01 1.09458E-27
4.08882E-01 1.03652E-27
4.13176E-01 9.82240E-28
4.17476E-01 9.31474E-28
4.21783E-01 8.83979E-28
4.26095E-01 8.39528E-28
4.30413E-01 7.97910E-28
4.34737E-01 7.58929E-28
4.39065E-01 7.22400E-28
4.43398E-01 6.88155E-28
4.47736E-01 6.56033E-28
4.52077E-01 6.25887E-28
4.56422E-01 5.97580E-28
4.60770E-01 5.70984E-28
4.65122E-01 5.45979E-28
4.69476E-01 5.22456E-28
4.73832E-01 5.00311E-28
4.78190E-01 4.79449E-28
4.82550E-01 4.59781E-28
4.86912E-01 4.41224E-28
4.91274E-01 4.23702E-28
4.95637E-01 4.07144E-28
5.00000E-01 3.91483E-28
5.04363E-01 3.76658E-28
5.08726E-01 3.62612E-28
5.13088E-01 3.49292E-28
5.17450E-01 3.36649E-28
5.21810E-01 3.24637E-28
5.26168E-01 3.13215E-28
5.30524E-01 3.02343E-28
5.34878E-01 2.91985E-28
5.39230E-01 2.82107E-28
5.43578E-01 2.72679E-28
5.47923E-01 2.63671E-28
5.52264E-01 2.55056E-28
5.56602E-01 2.46810E-28
5.60935E-01 2.38909E-28
5.65263E-01 2.31334E-28
5.69587E-01 2.24063E-28
5.73905E-01 2.17078E-28
5.78217E-01 2.10363E-28
5.82524E-01 2.03903E-28
5.86824E-01 1.97681E-28
5.91118E-01 1.91686E-28
5.95404E-01 1.85905E-28
5.99684E-01 1.80325E-28
6.03956E-01 1.74938E-28
6.08220E-01 1.69731E-28
6.12476E-01 1.64697E-28
6.16723E-01 1.59827E-28
6.20961E-01 1.55113E-28
6.25190E-01 1.50548E-28
6.29410E-01 1.46125E-28
6.33619E-01 1.41837E-28
6.37819E-01 1.37678E-28
6.42008E-01 1.33644E-28
6.46186E-01 1.29729E-28
6.50353E-01 1.25928E-28
6.54508E-01 1.22236E-28
6.58652E-01 1.18651E-28
6.62784E-01 1.15167E-28
6.66903E-01 1.11781E-28
6.71010E-01 1.08490E-28
6.75104E-01 1.05290E-28
6.79184E-01 1.02179E-28
6.83251E-01 9.91534E-29
6.87303E-01 9.62105E-29
6.91342E-01 9.33480E-29
6.95366E-01 9.05635E-29
6.99375E-01 8.78546E-29
7.03368E-01 8.52191E-29
7.07347E-01 8.26550E-29
7.11309E-01 8.01604E-29
7.15256E-01 7.77333E-29
7.19186E-01 7.53719E-29
7.23099E-01 7.30746E-29
7.26995E-01 7.08396E-29
7.30874E-01 6.86653E-29
7.34736E-01 6.65503E-29
7.38579E-01 6.44929E-29
7.42405E-01 6.24918E-29
7.46212E-01 6.05456E-29
7.50000E-01 5.86530E-29
7.53769E-01 5.68126E-29
7.57519E-01 5.50231E-29
7.61249E-01 5.32833E-29
7.64960E-01 5.15921E-29
7.68650E-01 4.99482E-29
7.72320E-01 4.83504E-29
7.75968E-01 4.67978E-29
7.79596E-01 4.52891E-29
7.83203E-01 4.38233E-29
7.86788E-01 4.23993E-29
7.90351E-01 4.10162E-29
7.93893E-01 3.96729E-29
7.97411E-01 3.83684E-29
8.00908E-01 3.71019E-29
8.04381E-01 3.58722E-29
8.07831E-01 3.46786E-29
8.11257E-01 3.35200E-29
8.14660E-01 3.23957E-29
8.18039E-01 3.13047E-29
8.21394E-01 3.02462E-29
8.24724E-01 2.92193E-29
8.28030E-01 2.82233E-29
8.31310E-01 2.72573E-29
8.34565E-01 2.63205E-29
8.37795E-01 2.54121E-29
8.40999E-01 2.45314E-29
8.44177E-01 2.36777E-29
8.47329E-01 2.28502E-29
8.50455E-01 2.20482E-29
8.53553E-01 2.12710E-29
8.56625E-01 2.05179E-29
8.59670E-01 1.97883E-29
8.62687E-01 1.90814E-29
8.65677E-01 1.83967E-29
8.68639E-01 1.77336E-29
8.71572E-01 1.70913E-29
8.74478E-01 1.64694E-29
8.77355E-01 1.58672E-29
8.80203E-01 1.52841E-29
8.83022E-01 1.47196E-29
8.85812E-01 1.41732E-29
8.88573E-01 1.36443E-29
8.91304E-01 1.31324E-29
8.94005E-01 1.26371E-29
8.96677E-01 1.21577E-29
8.99318E-01 1.16938E-29
9.01928E-01 1.12450E-29
9.04508E-01 1.08108E-29
9.07058E-01 1.03908E-29
9.09576E-01 9.98451E-30
9.12063E-01 9.59152E-30
9.14519E-01 9.21144E-30
9.16943E-01 8.84386E-30
9.19335E-01 8.48840E-30
9.21696E-01 8.14469E-30
9.24024E-01 7.81236E-30
9.26320E-01 7.49107E-30
9.28584E-01 7.18046E-30
9.30815E-01 6.88022E-30
9.33013E-01 6.59002E-30
9.35178E-01 6.30954E-30
9.37310E-01 6.03848E-30
9.39409E-01 5.77656E-30
9.41474E-01 5.52349E-30
9.43505E-01 5.27900E-30
9.45503E-01 5.04281E-30
9.47467E-01 4.81468E-30
9.49397E-01 4.59436E-30
9.51293E-01 4.38160E-30
9.53154E-01 4.17619E-30
9.54981E-01 3.97788E-30
9.56773E-01 3.78648E-30
9.58530E-01 3.60176E-30
9.60252E-01 3.42353E-30
9.61940E-01 3.25160E-30
9.63592E-01 3.08578E-30
9.65209E-01 2.92589E-30
9.66790E-01 2.77176E-30
9.68336E-01 2.62323E-30
9.69846E-01 2.48012E-30
9.71321E-01 2.34230E-30
9.72759E-01 2.20960E-30
9.74162E-01 2.08189E-30
9.75528E-01 1.95904E-30
9.76858E-01 1.84091E-30
9.78152E-01 1.72738E-30
9.79410E-01 1.61832E-30
9.80631E-01 1.51363E-30
9.81815E-01 1.41319E-30
9.82963E-01 1.31690E-30
9.84074E-01 1.22465E-30
9.85148E-01 1.13636E-30
9.86185E-01 1.05192E-30
9.87185E-01 9.71257E-31
9.88148E-01 8.94283E-31
9.89074E-01 8.20919E-31
9.89962E-01 7.51091E-31
9.90814E-01 6.84727E-31
9.91627E-01 6.21761E-31
9.92404E-01 5.62127E-31
9.93143E-01 5.05767E-31
9.93844E-01 4.52623E-31
9.94508E-01 4.02643E-31
9.95134E-01 3.55776E-31
9.95722E-01 3.11976E-31
9.96273E-01 2.71200E-31
9.96786E-01 2.33407E-31
9.97261E-01 1.98560E-31
9.97698E-01 1.66624E-31
9.98097E-01 1.37569E-31
9.98459E-01 1.11366E-31
9.98782E-01 8.79886E-32
9.99067E-01 6.74148E-32
9.99315E-01 4.96245E-32
9.99524E-01 3.46002E-32
9.99695E-01 2.23274E-32
9.99829E-01 1.27942E-32
9.99924E-01 5.99133E-33
9.99981E-01 1.91225E-33
1.00000E+00 5.52991E-34
