 #
 # Subroutine ELSEPA. Elastic scattering of electrons and positrons
 #                    by neutral atoms and positive ions
 #
 # Projectile: positron
 # Kinetic energy = 2.00000E+07 eV = 7.34987E+05 a.u.
 #
 # WARNING: High-energy factorization with free-atom DF screening.
 #          Absorption, polarization and exchange corrections are
 #          switched off.
 #          Phase shifts are calculated for the bare nucleus.
 #          Scattering amplitudes are not evaluated.
 #
 # Element: Cr,  Z =  24,  atomic weight = 5.19961E+01 g/mol
 #
 # Nuclear model: Fermi distribution
 #                Average radius = 3.99369E-13 cm
 #                Skin thickness = 5.46000E-14 cm
 #
 # Number of electrons = 24
 #
 # Total elastic cross section = 1.79173E-18 cm**2 = 6.39838E-02 a0**2
 # 1st transport cross section = 2.40440E-24 cm**2 = 8.58626E-08 a0**2
 # 2nd transport cross section = 6.99183E-24 cm**2 = 2.49683E-07 a0**2
 #
 #
 # Differential cross section:                       MU=(1-COS(THETA))/2
 #
 #  THETA        MU          DCS          DCS        Sherman      error
 #  (deg)                 (cm**2/sr)   (a0**2/sr)    function
 #----------------------------------------------------------------------
0.00000E+00 7.77724E-12
7.61557E-13 7.77611E-12
1.18994E-12 7.77548E-12
1.71346E-12 7.77471E-12
2.33225E-12 7.77380E-12
3.04617E-12 7.77276E-12
3.85530E-12 7.77157E-12
4.75964E-12 7.77024E-12
5.75917E-12 7.76878E-12
6.85391E-12 7.76718E-12
8.04379E-12 7.76543E-12
9.32893E-12 7.76356E-12
1.07092E-11 7.76154E-12
1.21847E-11 7.75938E-12
1.37554E-11 7.75709E-12
1.54213E-11 7.75466E-12
1.71823E-11 7.75209E-12
1.90386E-11 7.74938E-12
2.09900E-11 7.74654E-12
2.30367E-11 7.74356E-12
2.51785E-11 7.74045E-12
2.74156E-11 7.73720E-12
2.97478E-11 7.73381E-12
3.21752E-11 7.73029E-12
3.46979E-11 7.72664E-12
3.73157E-11 7.72285E-12
4.00286E-11 7.71892E-12
4.28368E-11 7.71486E-12
4.57402E-11 7.71067E-12
4.87388E-11 7.70634E-12
5.18325E-11 7.70188E-12
5.50215E-11 7.69729E-12
5.83057E-11 7.69257E-12
6.16850E-11 7.68771E-12
6.51595E-11 7.68273E-12
6.87293E-11 7.67761E-12
7.23943E-11 7.67236E-12
7.61544E-11 7.66699E-12
1.18991E-10 7.60620E-12
1.71347E-10 7.53304E-12
2.33223E-10 7.44815E-12
3.04617E-10 7.35226E-12
3.85531E-10 7.24617E-12
4.75965E-10 7.13074E-12
5.75917E-10 7.00682E-12
6.85389E-10 6.87538E-12
8.04380E-10 6.73746E-12
9.32891E-10 6.59385E-12
1.07092E-09 6.44556E-12
1.21847E-09 6.29359E-12
1.37554E-09 6.13856E-12
1.54213E-09 5.98156E-12
1.71823E-09 5.82331E-12
1.90386E-09 5.66443E-12
2.09900E-09 5.50577E-12
2.30367E-09 5.34782E-12
2.51785E-09 5.19116E-12
2.74156E-09 5.03639E-12
2.97478E-09 4.88375E-12
3.21752E-09 4.73378E-12
3.46978E-09 4.58678E-12
3.73156E-09 4.44291E-12
4.00286E-09 4.30255E-12
4.28368E-09 4.16574E-12
4.57402E-09 4.03266E-12
4.87388E-09 3.90351E-12
5.18326E-09 3.77811E-12
5.50215E-09 3.65672E-12
5.83057E-09 3.53930E-12
6.16850E-09 3.42566E-12
6.51596E-09 3.31603E-12
6.87293E-09 3.21015E-12
7.23942E-09 3.10800E-12
7.61544E-09 3.00969E-12
1.18991E-08 2.20504E-12
1.71347E-08 1.65351E-12
2.33223E-08 1.26718E-12
3.04617E-08 9.87837E-13
3.85531E-08 7.79947E-13
4.75965E-08 6.21912E-13
5.75917E-08 4.96639E-13
6.85389E-08 3.97945E-13
8.04380E-08 3.26261E-13
9.32891E-08 2.66542E-13
1.07092E-07 2.18509E-13
1.21847E-07 1.82082E-13
1.37554E-07 1.50327E-13
1.54213E-07 1.25560E-13
1.71823E-07 1.05698E-13
1.90386E-07 8.89363E-14
2.09900E-07 7.55624E-14
2.30367E-07 6.44529E-14
2.51785E-07 5.52325E-14
2.74156E-07 4.76865E-14
2.97478E-07 4.12921E-14
3.21752E-07 3.59705E-14
3.46978E-07 3.15051E-14
3.73156E-07 2.77012E-14
4.00286E-07 2.44828E-14
4.28368E-07 2.17288E-14
4.57402E-07 1.93623E-14
4.87388E-07 1.73277E-14
5.18325E-07 1.55569E-14
5.50215E-07 1.40190E-14
5.83057E-07 1.26764E-14
6.16850E-07 1.14929E-14
6.51596E-07 1.04538E-14
6.87293E-07 9.53237E-15
7.23942E-07 8.71315E-15
7.61543E-07 7.98659E-15
1.18991E-06 3.68402E-15
1.71347E-06 1.92523E-15
2.33223E-06 1.09211E-15
3.04617E-06 6.59465E-16
3.85531E-06 4.19380E-16
4.75964E-06 2.78688E-16
5.75916E-06 1.92170E-16
6.85388E-06 1.36822E-16
8.04378E-06 1.00083E-16
9.32888E-06 7.49264E-17
1.07092E-05 5.72297E-17
1.21846E-05 4.44784E-17
1.37553E-05 3.51001E-17
1.54212E-05 2.80748E-17
1.71822E-05 2.27260E-17
1.90385E-05 1.85932E-17
2.09899E-05 1.53615E-17
2.30365E-05 1.28023E-17
2.51783E-05 1.07541E-17
2.74153E-05 9.09894E-18
2.97475E-05 7.74982E-18
3.21749E-05 6.64136E-18
3.46974E-05 5.72394E-18
3.73152E-05 4.95942E-18
4.00281E-05 4.31821E-18
4.28362E-05 3.77720E-18
4.57395E-05 3.31810E-18
4.87380E-05 2.92649E-18
5.18317E-05 2.59082E-18
5.50205E-05 2.30180E-18
5.83045E-05 2.05187E-18
6.16838E-05 1.83490E-18
6.51582E-05 1.64580E-18
6.87277E-05 1.48041E-18
7.23925E-05 1.33525E-18
7.61524E-05 1.20742E-18
9.21439E-05 8.26305E-19
1.09658E-04 5.84179E-19
1.28695E-04 4.24496E-19
1.49255E-04 3.15764E-19
1.71338E-04 2.39690E-19
1.94942E-04 1.85181E-19
2.20070E-04 1.45309E-19
2.46720E-04 1.15604E-19
2.74892E-04 9.31091E-20
3.04586E-04 7.58244E-20
3.35803E-04 6.23669E-20
3.68542E-04 5.17643E-20
4.02802E-04 4.33200E-20
4.38585E-04 3.65279E-20
4.75889E-04 3.10150E-20
5.14715E-04 2.65030E-20
5.55063E-04 2.27817E-20
5.96931E-04 1.96905E-20
6.40321E-04 1.71057E-20
6.85233E-04 1.49311E-20
7.31665E-04 1.30909E-20
7.79618E-04 1.15253E-20
8.29092E-04 1.01867E-20
8.80086E-04 9.03668E-21
9.32601E-04 8.04425E-21
9.86636E-04 7.18423E-21
1.04219E-03 6.43599E-21
1.09927E-03 5.78253E-21
1.15786E-03 5.20984E-21
1.21797E-03 4.70622E-21
1.27961E-03 4.26193E-21
1.34276E-03 3.86877E-21
1.40743E-03 3.51985E-21
1.47362E-03 3.20934E-21
1.54133E-03 2.93227E-21
1.61056E-03 2.68442E-21
1.68131E-03 2.46216E-21
1.75357E-03 2.26240E-21
1.82735E-03 2.08246E-21
1.90265E-03 1.92003E-21
1.97947E-03 1.77310E-21
2.05780E-03 1.63994E-21
2.13765E-03 1.51902E-21
2.21902E-03 1.40902E-21
2.30190E-03 1.30878E-21
2.38630E-03 1.21729E-21
2.47222E-03 1.13363E-21
2.55965E-03 1.05702E-21
2.64859E-03 9.86765E-22
2.73905E-03 9.22237E-22
2.83103E-03 8.62887E-22
2.92452E-03 8.08224E-22
3.01952E-03 7.57813E-22
3.11604E-03 7.11262E-22
3.21407E-03 6.68223E-22
3.31362E-03 6.28383E-22
3.41468E-03 5.91461E-22
3.51725E-03 5.57205E-22
3.62133E-03 5.25387E-22
3.72692E-03 4.95803E-22
3.83403E-03 4.68266E-22
3.94265E-03 4.42610E-22
4.05278E-03 4.18683E-22
4.16442E-03 3.96346E-22
4.27757E-03 3.75476E-22
4.39223E-03 3.55957E-22
4.50840E-03 3.37687E-22
4.62608E-03 3.20570E-22
4.74527E-03 3.04522E-22
4.86597E-03 2.89462E-22
4.98817E-03 2.75319E-22
5.11188E-03 2.62027E-22
5.23711E-03 2.49525E-22
5.36383E-03 2.37758E-22
5.49207E-03 2.26674E-22
5.62181E-03 2.16226E-22
5.75306E-03 2.06371E-22
5.88581E-03 1.97070E-22
6.02007E-03 1.88285E-22
6.15583E-03 1.79983E-22
6.29310E-03 1.72131E-22
6.43187E-03 1.64702E-22
6.57214E-03 1.57668E-22
6.71392E-03 1.51004E-22
6.85720E-03 1.44687E-22
7.00198E-03 1.38696E-22
7.14827E-03 1.33011E-22
7.29605E-03 1.27613E-22
7.44534E-03 1.22485E-22
7.59612E-03 1.17611E-22
7.97965E-03 1.06442E-22
8.37255E-03 9.65632E-23
8.77480E-03 8.78003E-23
9.18641E-03 8.00054E-23
9.60736E-03 7.30533E-23
1.00376E-02 6.68373E-23
1.04773E-02 6.12658E-23
1.09262E-02 5.62605E-23
1.13844E-02 5.17539E-23
1.18520E-02 4.76877E-23
1.23288E-02 4.40113E-23
1.28150E-02 4.06808E-23
1.33104E-02 3.76580E-23
1.38150E-02 3.49094E-23
1.43290E-02 3.24059E-23
1.48521E-02 3.01216E-23
1.53845E-02 2.80341E-23
1.59262E-02 2.61234E-23
1.64770E-02 2.43719E-23
1.70371E-02 2.27639E-23
1.76063E-02 2.12856E-23
1.81848E-02 1.99248E-23
1.87724E-02 1.86703E-23
1.93692E-02 1.75124E-23
1.99751E-02 1.64424E-23
2.05901E-02 1.54523E-23
2.12143E-02 1.45352E-23
2.18476E-02 1.36847E-23
2.24900E-02 1.28951E-23
2.31415E-02 1.21612E-23
2.38021E-02 1.14785E-23
2.44717E-02 1.08427E-23
2.51504E-02 1.02500E-23
2.58382E-02 9.69691E-24
2.65349E-02 9.18040E-24
2.72407E-02 8.69756E-24
2.79555E-02 8.24582E-24
2.86793E-02 7.82281E-24
2.94120E-02 7.42637E-24
3.01537E-02 7.05452E-24
3.09043E-02 6.70548E-24
3.16639E-02 6.37758E-24
3.24324E-02 6.06931E-24
3.32098E-02 5.77929E-24
3.39961E-02 5.50624E-24
3.47912E-02 5.24899E-24
3.55952E-02 5.00646E-24
3.64081E-02 4.77764E-24
3.72297E-02 4.56164E-24
3.80602E-02 4.35759E-24
3.88995E-02 4.16471E-24
3.97476E-02 3.98229E-24
4.06044E-02 3.80966E-24
4.14700E-02 3.64618E-24
4.23443E-02 3.49129E-24
4.32273E-02 3.34446E-24
4.41190E-02 3.20519E-24
4.50194E-02 3.07302E-24
4.59284E-02 2.94752E-24
4.68461E-02 2.82829E-24
4.87074E-02 2.60720E-24
5.06030E-02 2.40708E-24
5.25328E-02 2.22558E-24
5.44967E-02 2.06069E-24
5.64946E-02 1.91061E-24
5.85262E-02 1.77379E-24
6.05914E-02 1.64886E-24
6.26901E-02 1.53460E-24
6.48222E-02 1.42995E-24
6.69873E-02 1.33395E-24
6.91854E-02 1.24576E-24
7.14163E-02 1.16465E-24
7.36799E-02 1.08994E-24
7.59760E-02 1.02104E-24
7.83043E-02 9.57417E-25
8.06647E-02 8.98602E-25
8.30571E-02 8.44166E-25
8.54812E-02 7.93726E-25
8.79369E-02 7.46937E-25
9.04240E-02 7.03489E-25
9.29422E-02 6.63102E-25
9.54915E-02 6.25522E-25
9.80716E-02 5.90521E-25
1.00682E-01 5.57890E-25
1.03323E-01 5.27440E-25
1.05995E-01 4.99002E-25
1.08696E-01 4.72417E-25
1.11427E-01 4.47546E-25
1.14188E-01 4.24257E-25
1.16978E-01 4.02432E-25
1.19797E-01 3.81964E-25
1.22645E-01 3.62753E-25
1.25522E-01 3.44709E-25
1.28428E-01 3.27748E-25
1.31361E-01 3.11794E-25
1.34323E-01 2.96777E-25
1.37313E-01 2.82632E-25
1.40330E-01 2.69299E-25
1.43375E-01 2.56724E-25
1.46447E-01 2.44857E-25
1.49545E-01 2.33650E-25
1.52671E-01 2.23060E-25
1.55823E-01 2.13047E-25
1.59001E-01 2.03575E-25
1.62205E-01 1.94610E-25
1.65435E-01 1.86118E-25
1.68690E-01 1.78072E-25
1.71970E-01 1.70443E-25
1.75276E-01 1.63206E-25
1.78606E-01 1.56338E-25
1.81961E-01 1.49816E-25
1.85340E-01 1.43620E-25
1.88743E-01 1.37731E-25
1.92169E-01 1.32131E-25
1.95619E-01 1.26803E-25
1.99092E-01 1.21732E-25
2.02589E-01 1.16904E-25
2.06107E-01 1.12304E-25
2.09649E-01 1.07920E-25
2.13212E-01 1.03740E-25
2.16797E-01 9.97535E-26
2.20404E-01 9.59493E-26
2.24032E-01 9.23179E-26
2.27680E-01 8.88500E-26
2.31350E-01 8.55371E-26
2.35040E-01 8.23709E-26
2.38751E-01 7.93440E-26
2.42481E-01 7.64491E-26
2.46231E-01 7.36794E-26
2.50000E-01 7.10287E-26
2.53788E-01 6.84910E-26
2.57595E-01 6.60605E-26
2.61421E-01 6.37321E-26
2.65264E-01 6.15007E-26
2.69126E-01 5.93615E-26
2.73005E-01 5.73102E-26
2.76901E-01 5.53424E-26
2.80814E-01 5.34543E-26
2.84744E-01 5.16420E-26
2.88691E-01 4.99020E-26
2.92653E-01 4.82309E-26
2.96632E-01 4.66255E-26
3.00625E-01 4.50828E-26
3.04634E-01 4.36000E-26
3.08658E-01 4.21743E-26
3.12697E-01 4.08032E-26
3.16749E-01 3.94842E-26
3.20816E-01 3.82150E-26
3.24896E-01 3.69934E-26
3.28990E-01 3.58174E-26
3.33097E-01 3.46849E-26
3.37216E-01 3.35941E-26
3.41348E-01 3.25432E-26
3.45492E-01 3.15304E-26
3.49647E-01 3.05543E-26
3.53814E-01 2.96131E-26
3.57992E-01 2.87056E-26
3.62181E-01 2.78302E-26
3.66381E-01 2.69856E-26
3.70590E-01 2.61706E-26
3.74810E-01 2.53840E-26
3.79039E-01 2.46247E-26
3.83277E-01 2.38914E-26
3.87524E-01 2.31833E-26
3.91780E-01 2.24992E-26
3.96044E-01 2.18383E-26
4.00316E-01 2.11996E-26
4.04596E-01 2.05822E-26
4.08882E-01 1.99854E-26
4.13176E-01 1.94083E-26
4.17476E-01 1.88502E-26
4.21783E-01 1.83103E-26
4.26095E-01 1.77881E-26
4.30413E-01 1.72827E-26
4.34737E-01 1.67935E-26
4.39065E-01 1.63201E-26
4.43398E-01 1.58617E-26
4.47736E-01 1.54178E-26
4.52077E-01 1.49880E-26
4.56422E-01 1.45716E-26
4.60770E-01 1.41682E-26
4.65122E-01 1.37773E-26
4.69476E-01 1.33985E-26
4.73832E-01 1.30313E-26
4.78190E-01 1.26754E-26
4.82550E-01 1.23303E-26
4.86912E-01 1.19957E-26
4.91274E-01 1.16711E-26
4.95637E-01 1.13563E-26
5.00000E-01 1.10508E-26
5.04363E-01 1.07545E-26
5.08726E-01 1.04669E-26
5.13088E-01 1.01878E-26
5.17450E-01 9.91683E-27
5.21810E-01 9.65380E-27
5.26168E-01 9.39840E-27
5.30524E-01 9.15038E-27
5.34878E-01 8.90950E-27
5.39230E-01 8.67553E-27
5.43578E-01 8.44822E-27
5.47923E-01 8.22738E-27
5.52264E-01 8.01278E-27
5.56602E-01 7.80422E-27
5.60935E-01 7.60152E-27
5.65263E-01 7.40447E-27
5.69587E-01 7.21290E-27
5.73905E-01 7.02664E-27
5.78217E-01 6.84551E-27
5.82524E-01 6.66936E-27
5.86824E-01 6.49803E-27
5.91118E-01 6.33137E-27
5.95404E-01 6.16923E-27
5.99684E-01 6.01147E-27
6.03956E-01 5.85797E-27
6.08220E-01 5.70858E-27
6.12476E-01 5.56318E-27
6.16723E-01 5.42165E-27
6.20961E-01 5.28388E-27
6.25190E-01 5.14974E-27
6.29410E-01 5.01914E-27
6.33619E-01 4.89197E-27
6.37819E-01 4.76811E-27
6.42008E-01 4.64749E-27
6.46186E-01 4.52999E-27
6.50353E-01 4.41553E-27
6.54508E-01 4.30402E-27
6.58652E-01 4.19538E-27
6.62784E-01 4.08951E-27
6.66903E-01 3.98635E-27
6.71010E-01 3.88581E-27
6.75104E-01 3.78781E-27
6.79184E-01 3.69229E-27
6.83251E-01 3.59918E-27
6.87303E-01 3.50840E-27
6.91342E-01 3.41990E-27
6.95366E-01 3.33360E-27
6.99375E-01 3.24945E-27
7.03368E-01 3.16738E-27
7.07347E-01 3.08734E-27
7.11309E-01 3.00928E-27
7.15256E-01 2.93313E-27
7.19186E-01 2.85885E-27
7.23099E-01 2.78639E-27
7.26995E-01 2.71569E-27
7.30874E-01 2.64671E-27
7.34736E-01 2.57940E-27
7.38579E-01 2.51372E-27
7.42405E-01 2.44962E-27
7.46212E-01 2.38706E-27
7.50000E-01 2.32601E-27
7.53769E-01 2.26641E-27
7.57519E-01 2.20824E-27
7.61249E-01 2.15145E-27
7.64960E-01 2.09602E-27
7.68650E-01 2.04190E-27
7.72320E-01 1.98906E-27
7.75968E-01 1.93747E-27
7.79596E-01 1.88709E-27
7.83203E-01 1.83790E-27
7.86788E-01 1.78986E-27
7.90351E-01 1.74295E-27
7.93893E-01 1.69714E-27
7.97411E-01 1.65240E-27
8.00908E-01 1.60870E-27
8.04381E-01 1.56601E-27
8.07831E-01 1.52432E-27
8.11257E-01 1.48360E-27
8.14660E-01 1.44382E-27
8.18039E-01 1.40496E-27
8.21394E-01 1.36700E-27
8.24724E-01 1.32992E-27
8.28030E-01 1.29369E-27
8.31310E-01 1.25829E-27
8.34565E-01 1.22372E-27
8.37795E-01 1.18993E-27
8.40999E-01 1.15693E-27
8.44177E-01 1.12468E-27
8.47329E-01 1.09317E-27
8.50455E-01 1.06239E-27
8.53553E-01 1.03231E-27
8.56625E-01 1.00292E-27
8.59670E-01 9.74209E-28
8.62687E-01 9.46155E-28
8.65677E-01 9.18745E-28
8.68639E-01 8.91964E-28
8.71572E-01 8.65798E-28
8.74478E-01 8.40234E-28
8.77355E-01 8.15257E-28
8.80203E-01 7.90856E-28
8.83022E-01 7.67017E-28
8.85812E-01 7.43728E-28
8.88573E-01 7.20976E-28
8.91304E-01 6.98751E-28
8.94005E-01 6.77041E-28
8.96677E-01 6.55835E-28
8.99318E-01 6.35122E-28
9.01928E-01 6.14892E-28
9.04508E-01 5.95135E-28
9.07058E-01 5.75840E-28
9.09576E-01 5.56999E-28
9.12063E-01 5.38601E-28
9.14519E-01 5.20639E-28
9.16943E-01 5.03102E-28
9.19335E-01 4.85983E-28
9.21696E-01 4.69273E-28
9.24024E-01 4.52964E-28
9.26320E-01 4.37049E-28
9.28584E-01 4.21519E-28
9.30815E-01 4.06367E-28
9.33013E-01 3.91585E-28
9.35178E-01 3.77168E-28
9.37310E-01 3.63108E-28
9.39409E-01 3.49398E-28
9.41474E-01 3.36032E-28
9.43505E-01 3.23003E-28
9.45503E-01 3.10307E-28
9.47467E-01 2.97935E-28
9.49397E-01 2.85884E-28
9.51293E-01 2.74147E-28
9.53154E-01 2.62719E-28
9.54981E-01 2.51595E-28
9.56773E-01 2.40769E-28
9.58530E-01 2.30237E-28
9.60252E-01 2.19993E-28
9.61940E-01 2.10034E-28
9.63592E-01 2.00355E-28
9.65209E-01 1.90950E-28
9.66790E-01 1.81817E-28
9.68336E-01 1.72951E-28
9.69846E-01 1.64347E-28
9.71321E-01 1.56003E-28
9.72759E-01 1.47915E-28
9.74162E-01 1.40078E-28
9.75528E-01 1.32489E-28
9.76858E-01 1.25145E-28
9.78152E-01 1.18044E-28
9.79410E-01 1.11180E-28
9.80631E-01 1.04553E-28
9.81815E-01 9.81575E-29
9.82963E-01 9.19924E-29
9.84074E-01 8.60544E-29
9.85148E-01 8.03411E-29
9.86185E-01 7.48498E-29
9.87185E-01 6.95783E-29
9.88148E-01 6.45241E-29
9.89074E-01 5.96853E-29
9.89962E-01 5.50596E-29
9.90814E-01 5.06450E-29
9.91627E-01 4.64397E-29
9.92404E-01 4.24418E-29
9.93143E-01 3.86497E-29
9.93844E-01 3.50616E-29
9.94508E-01 3.16761E-29
9.95134E-01 2.84917E-29
9.95722E-01 2.55070E-29
9.96273E-01 2.27208E-29
9.96786E-01 2.01318E-29
9.97261E-01 1.77391E-29
9.97698E-01 1.55415E-29
9.98097E-01 1.35381E-29
9.98459E-01 1.17280E-29
9.98782E-01 1.01106E-29
9.99067E-01 8.68501E-30
9.99315E-01 7.45075E-30
9.99524E-01 6.40726E-30
9.99695E-01 5.55410E-30
9.99829E-01 4.89091E-30
9.99924E-01 4.41741E-30
9.99981E-01 4.13336E-30
1.00000E+00 4.03872E-30
