 #
 # Subroutine ELSEPA. Elastic scattering of electrons and positrons
 #                    by neutral atoms and positive ions
 #
 # Projectile: positron
 # Kinetic energy = 2.00000E+08 eV = 7.34987E+06 a.u.
 #
 # WARNING: High-energy factorization with free-atom DF screening.
 #          Absorption, polarization and exchange corrections are
 #          switched off.
 #          Phase shifts are calculated for the bare nucleus.
 #          Scattering amplitudes are not evaluated.
 #
 # Element: Cr,  Z =  24,  atomic weight = 5.19961E+01 g/mol
 #
 # Nuclear model: Fermi distribution
 #                Average radius = 3.99369E-13 cm
 #                Skin thickness = 5.46000E-14 cm
 #
 # Number of electrons = 24
 #
 # Total elastic cross section = 1.79092E-18 cm**2 = 6.39550E-02 a0**2
 # 1st transport cross section = 2.96949E-26 cm**2 = 1.06043E-09 a0**2
 # 2nd transport cross section = 8.88048E-26 cm**2 = 3.17128E-09 a0**2
 #
 #
 # Differential cross section:                       MU=(1-COS(THETA))/2
 #
 #  THETA        MU          DCS          DCS        Sherman      error
 #  (deg)                 (cm**2/sr)   (a0**2/sr)    function
 #----------------------------------------------------------------------
0.00000E+00 7.43239E-10
7.61557E-13 7.33160E-10
1.18994E-12 7.27598E-10
1.71346E-12 7.20900E-10
2.33225E-12 7.13121E-10
3.04617E-12 7.04326E-10
3.85530E-12 6.94585E-10
4.75964E-12 6.83974E-10
5.75917E-12 6.72573E-10
6.85391E-12 6.60458E-10
8.04379E-12 6.47728E-10
9.32893E-12 6.34460E-10
1.07092E-11 6.20730E-10
1.21847E-11 6.06637E-10
1.37554E-11 5.92245E-10
1.54213E-11 5.77635E-10
1.71823E-11 5.62889E-10
1.90386E-11 5.48055E-10
2.09900E-11 5.33211E-10
2.30367E-11 5.18417E-10
2.51785E-11 5.03706E-10
2.74156E-11 4.89146E-10
2.97478E-11 4.74769E-10
3.21752E-11 4.60609E-10
3.46979E-11 4.46708E-10
3.73157E-11 4.33080E-10
4.00286E-11 4.19754E-10
4.28368E-11 4.06755E-10
4.57402E-11 3.94078E-10
4.87388E-11 3.81752E-10
5.18325E-11 3.69783E-10
5.50215E-11 3.58158E-10
5.83057E-11 3.46903E-10
6.16850E-11 3.36005E-10
6.51595E-11 3.25457E-10
6.87293E-11 3.15276E-10
7.23943E-11 3.05430E-10
7.61544E-11 2.95929E-10
1.18991E-10 2.17873E-10
1.71347E-10 1.63981E-10
2.33223E-10 1.26037E-10
3.04617E-10 9.85551E-11
3.85531E-10 7.80726E-11
4.75965E-10 6.24466E-11
5.75917E-10 5.02859E-11
6.85389E-10 4.02436E-11
8.04380E-10 3.29439E-11
9.32891E-10 2.71901E-11
1.07092E-09 2.22662E-11
1.21847E-09 1.85312E-11
1.37554E-09 1.54259E-11
1.54213E-09 1.28740E-11
1.71823E-09 1.08719E-11
1.90386E-09 9.16432E-12
2.09900E-09 7.78163E-12
2.30367E-09 6.66064E-12
2.51785E-09 5.70538E-12
2.74156E-09 4.92356E-12
2.97478E-09 4.27156E-12
3.21752E-09 3.71957E-12
3.46978E-09 3.25812E-12
3.73156E-09 2.86587E-12
4.00286E-09 2.53187E-12
4.28368E-09 2.24764E-12
4.57402E-09 2.00227E-12
4.87388E-09 1.79109E-12
5.18326E-09 1.60843E-12
5.50215E-09 1.44880E-12
5.83057E-09 1.30972E-12
6.16850E-09 1.18758E-12
6.51596E-09 1.07972E-12
6.87293E-09 9.84689E-13
7.23942E-09 8.99981E-13
7.61544E-09 8.24570E-13
1.18991E-08 3.80911E-13
1.71347E-08 1.99640E-13
2.33223E-08 1.13505E-13
3.04617E-08 6.86801E-14
3.85531E-08 4.37324E-14
4.75965E-08 2.90810E-14
5.75917E-08 2.00640E-14
6.85389E-08 1.42868E-14
8.04380E-08 1.04509E-14
9.32891E-08 7.82419E-15
1.07092E-07 5.97641E-15
1.21847E-07 4.64530E-15
1.37554E-07 3.66628E-15
1.54213E-07 2.93291E-15
1.71823E-07 2.37453E-15
1.90386E-07 1.94318E-15
2.09900E-07 1.60560E-15
2.30367E-07 1.33830E-15
2.51785E-07 1.12439E-15
2.74156E-07 9.51506E-16
2.97478E-07 8.10588E-16
3.21752E-07 6.94794E-16
3.46978E-07 5.98933E-16
3.73156E-07 5.19026E-16
4.00286E-07 4.51989E-16
4.28368E-07 3.95416E-16
4.57402E-07 3.47407E-16
4.87388E-07 3.06454E-16
5.18325E-07 2.71349E-16
5.50215E-07 2.41120E-16
5.83057E-07 2.14977E-16
6.16850E-07 1.92274E-16
6.51596E-07 1.72484E-16
6.87293E-07 1.55172E-16
7.23942E-07 1.39974E-16
7.61543E-07 1.26589E-16
1.18991E-06 5.21084E-17
1.71347E-06 2.51876E-17
2.33223E-06 1.36115E-17
3.04617E-06 7.98380E-18
3.85531E-06 4.98596E-18
4.75964E-06 3.27189E-18
5.75916E-06 2.23495E-18
6.85388E-06 1.57807E-18
8.04378E-06 1.14572E-18
9.32888E-06 8.51775E-19
1.07092E-05 6.46325E-19
1.21846E-05 4.99240E-19
1.37553E-05 3.91709E-19
1.54212E-05 3.11628E-19
1.71822E-05 2.51001E-19
1.90385E-05 2.04412E-19
2.09899E-05 1.68169E-19
2.30365E-05 1.39611E-19
2.51783E-05 1.16859E-19
2.74153E-05 9.85551E-20
2.97475E-05 8.36958E-20
3.21749E-05 7.15334E-20
3.46974E-05 6.15024E-20
3.73152E-05 5.31705E-20
4.00281E-05 4.62034E-20
4.28362E-05 4.03412E-20
4.57395E-05 3.53797E-20
4.87380E-05 3.11575E-20
5.18317E-05 2.75463E-20
5.50205E-05 2.44429E-20
5.83045E-05 2.17643E-20
6.16838E-05 1.94427E-20
6.51582E-05 1.74226E-20
6.87277E-05 1.56581E-20
7.23925E-05 1.41116E-20
7.61524E-05 1.27453E-20
9.21439E-05 8.70044E-21
1.09658E-04 6.13946E-21
1.28695E-04 4.45480E-21
1.49255E-04 3.30989E-21
1.71338E-04 2.51006E-21
1.94942E-04 1.93767E-21
2.20070E-04 1.51937E-21
2.46720E-04 1.20798E-21
2.74892E-04 9.72333E-22
3.04586E-04 7.91373E-22
3.35803E-04 6.50554E-22
3.68542E-04 5.39660E-22
4.02802E-04 4.51377E-22
4.38585E-04 3.80395E-22
4.75889E-04 3.22805E-22
5.14715E-04 2.75686E-22
5.55063E-04 2.36838E-22
5.96931E-04 2.04579E-22
6.40321E-04 1.77615E-22
6.85233E-04 1.54936E-22
7.31665E-04 1.35752E-22
7.79618E-04 1.19437E-22
8.29092E-04 1.05491E-22
8.80086E-04 9.35144E-23
9.32601E-04 8.31829E-23
9.86636E-04 7.42331E-23
1.04219E-03 6.64494E-23
1.09927E-03 5.96545E-23
1.15786E-03 5.37016E-23
1.21797E-03 4.84689E-23
1.27961E-03 4.38545E-23
1.34276E-03 3.97730E-23
1.40743E-03 3.61523E-23
1.47362E-03 3.29315E-23
1.54133E-03 3.00590E-23
1.61056E-03 2.74906E-23
1.68131E-03 2.51886E-23
1.75357E-03 2.31206E-23
1.82735E-03 2.12587E-23
1.90265E-03 1.95788E-23
1.97947E-03 1.80602E-23
2.05780E-03 1.66845E-23
2.13765E-03 1.54360E-23
2.21902E-03 1.43009E-23
2.30190E-03 1.32672E-23
2.38630E-03 1.23241E-23
2.47222E-03 1.14624E-23
2.55965E-03 1.06738E-23
2.64859E-03 9.95104E-24
2.73905E-03 9.28763E-24
2.83103E-03 8.67786E-24
2.92452E-03 8.11664E-24
3.01952E-03 7.59941E-24
3.11604E-03 7.12214E-24
3.21407E-03 6.68119E-24
3.31362E-03 6.27331E-24
3.41468E-03 5.89559E-24
3.51725E-03 5.54541E-24
3.62133E-03 5.22040E-24
3.72692E-03 4.91845E-24
3.83403E-03 4.63762E-24
3.94265E-03 4.37619E-24
4.05278E-03 4.13257E-24
4.16442E-03 3.90534E-24
4.27757E-03 3.69321E-24
4.39223E-03 3.49499E-24
4.50840E-03 3.30961E-24
4.62608E-03 3.13610E-24
4.74527E-03 2.97356E-24
4.86597E-03 2.82118E-24
4.98817E-03 2.67821E-24
5.11188E-03 2.54397E-24
5.23711E-03 2.41784E-24
5.36383E-03 2.29923E-24
5.49207E-03 2.18762E-24
5.62181E-03 2.08253E-24
5.75306E-03 1.98350E-24
5.88581E-03 1.89014E-24
6.02007E-03 1.80205E-24
6.15583E-03 1.71889E-24
6.29310E-03 1.64033E-24
6.43187E-03 1.56608E-24
6.57214E-03 1.49586E-24
6.71392E-03 1.42941E-24
6.85720E-03 1.36649E-24
7.00198E-03 1.30689E-24
7.14827E-03 1.25039E-24
7.29605E-03 1.19682E-24
7.44534E-03 1.14599E-24
7.59612E-03 1.09773E-24
7.97965E-03 9.87395E-25
8.37255E-03 8.90117E-25
8.77480E-03 8.04112E-25
9.18641E-03 7.27870E-25
9.60736E-03 6.60110E-25
1.00376E-02 5.99742E-25
1.04773E-02 5.45836E-25
1.09262E-02 4.97593E-25
1.13844E-02 4.54326E-25
1.18520E-02 4.15445E-25
1.23288E-02 3.80436E-25
1.28150E-02 3.48855E-25
1.33104E-02 3.20316E-25
1.38150E-02 2.94482E-25
1.43290E-02 2.71058E-25
1.48521E-02 2.49785E-25
1.53845E-02 2.30438E-25
1.59262E-02 2.12815E-25
1.64770E-02 1.96741E-25
1.70371E-02 1.82060E-25
1.76063E-02 1.68633E-25
1.81848E-02 1.56339E-25
1.87724E-02 1.45067E-25
1.93692E-02 1.34721E-25
1.99751E-02 1.25214E-25
2.05901E-02 1.16469E-25
2.12143E-02 1.08416E-25
2.18476E-02 1.00992E-25
2.24900E-02 9.41428E-26
2.31415E-02 8.78167E-26
2.38021E-02 8.19688E-26
2.44717E-02 7.65582E-26
2.51504E-02 7.15477E-26
2.58382E-02 6.69041E-26
2.65349E-02 6.25969E-26
2.72407E-02 5.85988E-26
2.79555E-02 5.48847E-26
2.86793E-02 5.14320E-26
2.94120E-02 4.82199E-26
3.01537E-02 4.52297E-26
3.09043E-02 4.24443E-26
3.16639E-02 3.98478E-26
3.24324E-02 3.74261E-26
3.32098E-02 3.51659E-26
3.39961E-02 3.30553E-26
3.47912E-02 3.10832E-26
3.55952E-02 2.92395E-26
3.64081E-02 2.75150E-26
3.72297E-02 2.59011E-26
3.80602E-02 2.43900E-26
3.88995E-02 2.29744E-26
3.97476E-02 2.16477E-26
4.06044E-02 2.04037E-26
4.14700E-02 1.92367E-26
4.23443E-02 1.81415E-26
4.32273E-02 1.71133E-26
4.41190E-02 1.61475E-26
4.50194E-02 1.52400E-26
4.59284E-02 1.43870E-26
4.68461E-02 1.35849E-26
4.87074E-02 1.21204E-26
5.06030E-02 1.08227E-26
5.25328E-02 9.67143E-27
5.44967E-02 8.64873E-27
5.64946E-02 7.73923E-27
5.85262E-02 6.92954E-27
6.05914E-02 6.20797E-27
6.26901E-02 5.56432E-27
6.48222E-02 4.98968E-27
6.69873E-02 4.47623E-27
6.91854E-02 4.01709E-27
7.14163E-02 3.60622E-27
7.36799E-02 3.23831E-27
7.59760E-02 2.90866E-27
7.83043E-02 2.61312E-27
8.06647E-02 2.34803E-27
8.30571E-02 2.11013E-27
8.54812E-02 1.89655E-27
8.79369E-02 1.70471E-27
9.04240E-02 1.53234E-27
9.29422E-02 1.37742E-27
9.54915E-02 1.23814E-27
9.80716E-02 1.11289E-27
1.00682E-01 1.00023E-27
1.03323E-01 8.98888E-28
1.05995E-01 8.07700E-28
1.08696E-01 7.25645E-28
1.11427E-01 6.51802E-28
1.14188E-01 5.85344E-28
1.16978E-01 5.25533E-28
1.19797E-01 4.71704E-28
1.22645E-01 4.23261E-28
1.25522E-01 3.79668E-28
1.28428E-01 3.40443E-28
1.31361E-01 3.05152E-28
1.34323E-01 2.73408E-28
1.37313E-01 2.44857E-28
1.40330E-01 2.19185E-28
1.43375E-01 1.96107E-28
1.46447E-01 1.75366E-28
1.49545E-01 1.56731E-28
1.52671E-01 1.39995E-28
1.55823E-01 1.24968E-28
1.59001E-01 1.11482E-28
1.62205E-01 9.93840E-29
1.65435E-01 8.85357E-29
1.68690E-01 7.88128E-29
1.71970E-01 7.01032E-29
1.75276E-01 6.23056E-29
1.78606E-01 5.53285E-29
1.81961E-01 4.90895E-29
1.85340E-01 4.35141E-29
1.88743E-01 3.85354E-29
1.92169E-01 3.40926E-29
1.95619E-01 3.01312E-29
1.99092E-01 2.66020E-29
2.02589E-01 2.34605E-29
2.06107E-01 2.06666E-29
2.09649E-01 1.81844E-29
2.13212E-01 1.59813E-29
2.16797E-01 1.40279E-29
2.20404E-01 1.22980E-29
2.24032E-01 1.07679E-29
2.27680E-01 9.41609E-30
2.31350E-01 8.22346E-30
2.35040E-01 7.17274E-30
2.38751E-01 6.24843E-30
2.42481E-01 5.43660E-30
2.46231E-01 4.72475E-30
2.50000E-01 4.10169E-30
2.53788E-01 3.55736E-30
2.57595E-01 3.08277E-30
2.61421E-01 2.66987E-30
2.65264E-01 2.31146E-30
2.69126E-01 2.00111E-30
2.73005E-01 1.73307E-30
2.76901E-01 1.50222E-30
2.80814E-01 1.30400E-30
2.84744E-01 1.13435E-30
2.88691E-01 9.89660E-31
2.92653E-01 8.66721E-31
2.96632E-01 7.62692E-31
3.00625E-01 6.75058E-31
3.04634E-01 6.01594E-31
3.08658E-01 5.40335E-31
3.12697E-01 4.89551E-31
3.16749E-01 4.47721E-31
3.20816E-01 4.13508E-31
3.24896E-01 3.85743E-31
3.28990E-01 3.63403E-31
3.33097E-01 3.45598E-31
3.37216E-01 3.31553E-31
3.41348E-01 3.20598E-31
3.45492E-01 3.12153E-31
3.49647E-01 3.05721E-31
3.53814E-01 3.00876E-31
3.57992E-01 2.97254E-31
3.62181E-01 2.94547E-31
3.66381E-01 2.92495E-31
3.70590E-01 2.90883E-31
3.74810E-01 2.89531E-31
3.79039E-01 2.88291E-31
3.83277E-01 2.87045E-31
3.87524E-01 2.85697E-31
3.91780E-01 2.84174E-31
3.96044E-01 2.82420E-31
4.00316E-01 2.80393E-31
4.04596E-01 2.78066E-31
4.08882E-01 2.75423E-31
4.13176E-01 2.72454E-31
4.17476E-01 2.69162E-31
4.21783E-01 2.65550E-31
4.26095E-01 2.61631E-31
4.30413E-01 2.57419E-31
4.34737E-01 2.52932E-31
4.39065E-01 2.48191E-31
4.43398E-01 2.43218E-31
4.47736E-01 2.38035E-31
4.52077E-01 2.32667E-31
4.56422E-01 2.27138E-31
4.60770E-01 2.21471E-31
4.65122E-01 2.15689E-31
4.69476E-01 2.09815E-31
4.73832E-01 2.03872E-31
4.78190E-01 1.97880E-31
4.82550E-01 1.91859E-31
4.86912E-01 1.85828E-31
4.91274E-01 1.79805E-31
4.95637E-01 1.73806E-31
5.00000E-01 1.67846E-31
5.04363E-01 1.61940E-31
5.08726E-01 1.56099E-31
5.13088E-01 1.50336E-31
5.17450E-01 1.44662E-31
5.21810E-01 1.39084E-31
5.26168E-01 1.33612E-31
5.30524E-01 1.28254E-31
5.34878E-01 1.23014E-31
5.39230E-01 1.17898E-31
5.43578E-01 1.12911E-31
5.47923E-01 1.08057E-31
5.52264E-01 1.03338E-31
5.56602E-01 9.87570E-32
5.60935E-01 9.43147E-32
5.65263E-01 9.00123E-32
5.69587E-01 8.58502E-32
5.73905E-01 8.18284E-32
5.78217E-01 7.79461E-32
5.82524E-01 7.42024E-32
5.86824E-01 7.05959E-32
5.91118E-01 6.71249E-32
5.95404E-01 6.37875E-32
5.99684E-01 6.05812E-32
6.03956E-01 5.75037E-32
6.08220E-01 5.45523E-32
6.12476E-01 5.17241E-32
6.16723E-01 4.90161E-32
6.20961E-01 4.64252E-32
6.25190E-01 4.39482E-32
6.29410E-01 4.15818E-32
6.33619E-01 3.93227E-32
6.37819E-01 3.71676E-32
6.42008E-01 3.51130E-32
6.46186E-01 3.31556E-32
6.50353E-01 3.12920E-32
6.54508E-01 2.95188E-32
6.58652E-01 2.78326E-32
6.62784E-01 2.62303E-32
6.66903E-01 2.47084E-32
6.71010E-01 2.32639E-32
6.75104E-01 2.18937E-32
6.79184E-01 2.05945E-32
6.83251E-01 1.93635E-32
6.87303E-01 1.81976E-32
6.91342E-01 1.70942E-32
6.95366E-01 1.60502E-32
6.99375E-01 1.50632E-32
7.03368E-01 1.41304E-32
7.07347E-01 1.32494E-32
7.11309E-01 1.24177E-32
7.15256E-01 1.16329E-32
7.19186E-01 1.08927E-32
7.23099E-01 1.01950E-32
7.26995E-01 9.53770E-33
7.30874E-01 8.91868E-33
7.34736E-01 8.33604E-33
7.38579E-01 7.78790E-33
7.42405E-01 7.27247E-33
7.46212E-01 6.78802E-33
7.50000E-01 6.33292E-33
7.53769E-01 5.90558E-33
7.57519E-01 5.50451E-33
7.61249E-01 5.12827E-33
7.64960E-01 4.77549E-33
7.68650E-01 4.44487E-33
7.72320E-01 4.13515E-33
7.75968E-01 3.84517E-33
7.79596E-01 3.57377E-33
7.83203E-01 3.31992E-33
7.86788E-01 3.08257E-33
7.90351E-01 2.86076E-33
7.93893E-01 2.65358E-33
7.97411E-01 2.46016E-33
8.00908E-01 2.27967E-33
8.04381E-01 2.11134E-33
8.07831E-01 1.95441E-33
8.11257E-01 1.80819E-33
8.14660E-01 1.67203E-33
8.18039E-01 1.54529E-33
8.21394E-01 1.42738E-33
8.24724E-01 1.31774E-33
8.28030E-01 1.21585E-33
8.31310E-01 1.12122E-33
8.34565E-01 1.03336E-33
8.37795E-01 9.51853E-34
8.40999E-01 8.76263E-34
8.44177E-01 8.06214E-34
8.47329E-01 7.41327E-34
8.50455E-01 6.81267E-34
8.53553E-01 6.25698E-34
8.56625E-01 5.74319E-34
8.59670E-01 5.26844E-34
8.62687E-01 4.83002E-34
8.65677E-01 4.42541E-34
8.68639E-01 4.05224E-34
8.71572E-01 3.70832E-34
8.74478E-01 3.39153E-34
8.77355E-01 3.09996E-34
8.80203E-01 2.83174E-34
8.83022E-01 2.58521E-34
8.85812E-01 2.35877E-34
8.88573E-01 2.15093E-34
8.91304E-01 1.96031E-34
8.94005E-01 1.78560E-34
8.96677E-01 1.62563E-34
8.99318E-01 1.47921E-34
9.01928E-01 1.34535E-34
9.04508E-01 1.22305E-34
9.07058E-01 1.11141E-34
9.09576E-01 1.00957E-34
9.12063E-01 9.16755E-35
9.14519E-01 8.32241E-35
9.16943E-01 7.55343E-35
9.19335E-01 6.85440E-35
9.21696E-01 6.21944E-35
9.24024E-01 5.64319E-35
9.26320E-01 5.12066E-35
9.28584E-01 4.64713E-35
9.30815E-01 4.21839E-35
9.33013E-01 3.83075E-35
9.35178E-01 3.48021E-35
9.37310E-01 3.16364E-35
9.39409E-01 2.87790E-35
9.41474E-01 2.62003E-35
9.43505E-01 2.38765E-35
9.45503E-01 2.17812E-35
9.47467E-01 1.98937E-35
9.49397E-01 1.81952E-35
9.51293E-01 1.66647E-35
9.53154E-01 1.52872E-35
9.54981E-01 1.40453E-35
9.56773E-01 1.29270E-35
9.58530E-01 1.19176E-35
9.60252E-01 1.10076E-35
9.61940E-01 1.01856E-35
9.63592E-01 9.44180E-36
9.65209E-01 8.76714E-36
9.66790E-01 8.15454E-36
9.68336E-01 7.59674E-36
9.69846E-01 7.08768E-36
9.71321E-01 6.62093E-36
9.72759E-01 6.19244E-36
9.74162E-01 5.79763E-36
9.75528E-01 5.43138E-36
9.76858E-01 5.09164E-36
9.78152E-01 4.77435E-36
9.79410E-01 4.47694E-36
9.80631E-01 4.19748E-36
9.81815E-01 3.93354E-36
9.82963E-01 3.68322E-36
9.84074E-01 3.44550E-36
9.85148E-01 3.21880E-36
9.86185E-01 3.00230E-36
9.87185E-01 2.79422E-36
9.88148E-01 2.59503E-36
9.89074E-01 2.40339E-36
9.89962E-01 2.21942E-36
9.90814E-01 2.04219E-36
9.91627E-01 1.87214E-36
9.92404E-01 1.70838E-36
9.93143E-01 1.55149E-36
9.93844E-01 1.40121E-36
9.94508E-01 1.25773E-36
9.95134E-01 1.12090E-36
9.95722E-01 9.91130E-37
9.96273E-01 8.68467E-37
9.96786E-01 7.53120E-37
9.97261E-01 6.45128E-37
9.97698E-01 5.44880E-37
9.98097E-01 4.52511E-37
9.98459E-01 3.68262E-37
9.98782E-01 2.92221E-37
9.99067E-01 2.24786E-37
9.99315E-01 1.65877E-37
9.99524E-01 1.15803E-37
9.99695E-01 7.45925E-38
9.99829E-01 4.24977E-38
9.99924E-01 1.94480E-38
9.99981E-01 5.59676E-39
1.00000E+00 9.94018E-40
