 #
 # Subroutine ELSEPA. Elastic scattering of electrons and positrons
 #                    by neutral atoms and positive ions
 #
 # Projectile: positron
 # Kinetic energy = 5.00000E+07 eV = 1.83747E+06 a.u.
 #
 # WARNING: High-energy factorization with free-atom DF screening.
 #          Absorption, polarization and exchange corrections are
 #          switched off.
 #          Phase shifts are calculated for the bare nucleus.
 #          Scattering amplitudes are not evaluated.
 #
 # Element: Cr,  Z =  24,  atomic weight = 5.19961E+01 g/mol
 #
 # Nuclear model: Fermi distribution
 #                Average radius = 3.99369E-13 cm
 #                Skin thickness = 5.46000E-14 cm
 #
 # Number of electrons = 24
 #
 # Total elastic cross section = 1.78946E-18 cm**2 = 6.39029E-02 a0**2
 # 1st transport cross section = 4.41068E-25 cm**2 = 1.57508E-08 a0**2
 # 2nd transport cross section = 1.29408E-24 cm**2 = 4.62123E-08 a0**2
 #
 #
 # Differential cross section:                       MU=(1-COS(THETA))/2
 #
 #  THETA        MU          DCS          DCS        Sherman      error
 #  (deg)                 (cm**2/sr)   (a0**2/sr)    function
 #----------------------------------------------------------------------
0.00000E+00 4.71655E-11
7.61557E-13 4.71243E-11
1.18994E-12 4.71012E-11
1.71346E-12 4.70730E-11
2.33225E-12 4.70398E-11
3.04617E-12 4.70015E-11
3.85530E-12 4.69581E-11
4.75964E-12 4.69098E-11
5.75917E-12 4.68565E-11
6.85391E-12 4.67982E-11
8.04379E-12 4.67350E-11
9.32893E-12 4.66669E-11
1.07092E-11 4.65939E-11
1.21847E-11 4.65162E-11
1.37554E-11 4.64337E-11
1.54213E-11 4.63464E-11
1.71823E-11 4.62545E-11
1.90386E-11 4.61580E-11
2.09900E-11 4.60569E-11
2.30367E-11 4.59512E-11
2.51785E-11 4.58412E-11
2.74156E-11 4.57267E-11
2.97478E-11 4.56079E-11
3.21752E-11 4.54848E-11
3.46979E-11 4.53574E-11
3.73157E-11 4.52260E-11
4.00286E-11 4.50904E-11
4.28368E-11 4.49509E-11
4.57402E-11 4.48074E-11
4.87388E-11 4.46600E-11
5.18325E-11 4.45089E-11
5.50215E-11 4.43540E-11
5.83057E-11 4.41955E-11
6.16850E-11 4.40334E-11
6.51595E-11 4.38679E-11
6.87293E-11 4.36989E-11
7.23943E-11 4.35267E-11
7.61544E-11 4.33511E-11
1.18991E-10 4.14358E-11
1.71347E-10 3.92901E-11
2.33223E-10 3.69977E-11
3.04617E-10 3.46358E-11
3.85531E-10 3.22709E-11
4.75965E-10 2.99565E-11
5.75917E-10 2.77326E-11
6.85389E-10 2.56270E-11
8.04380E-10 2.36562E-11
9.32891E-10 2.18280E-11
1.07092E-09 2.01440E-11
1.21847E-09 1.86004E-11
1.37554E-09 1.71906E-11
1.54213E-09 1.59056E-11
1.71823E-09 1.47359E-11
1.90386E-09 1.36714E-11
2.09900E-09 1.27023E-11
2.30367E-09 1.18193E-11
2.51785E-09 1.10136E-11
2.74156E-09 1.02774E-11
2.97478E-09 9.60340E-12
3.21752E-09 8.98440E-12
3.46978E-09 8.41537E-12
3.73156E-09 7.89140E-12
4.00286E-09 7.40800E-12
4.28368E-09 6.96119E-12
4.57402E-09 6.54747E-12
4.87388E-09 6.16372E-12
5.18326E-09 5.80719E-12
5.50215E-09 5.47544E-12
5.83057E-09 5.16628E-12
6.16850E-09 4.87780E-12
6.51596E-09 4.60827E-12
6.87293E-09 4.35600E-12
7.23942E-09 4.11940E-12
7.61544E-09 3.89767E-12
1.18991E-08 2.26124E-12
1.71347E-08 1.38259E-12
2.33223E-08 8.71748E-13
3.04617E-08 5.66910E-13
3.85531E-08 3.80631E-13
4.75965E-08 2.63893E-13
5.75917E-08 1.88708E-13
6.85389E-08 1.38871E-13
8.04380E-08 1.04849E-13
9.32891E-08 8.09516E-14
1.07092E-07 6.37147E-14
1.21847E-07 5.09740E-14
1.37554E-07 4.13499E-14
1.54213E-07 3.39404E-14
1.71823E-07 2.81407E-14
1.90386E-07 2.35359E-14
2.09900E-07 1.98350E-14
2.30367E-07 1.68285E-14
2.51785E-07 1.43625E-14
2.74156E-07 1.23252E-14
2.97478E-07 1.06301E-14
3.21752E-07 9.20959E-15
3.46978E-07 8.01371E-15
3.73156E-07 7.00180E-15
4.00286E-07 6.14138E-15
4.28368E-07 5.40646E-15
4.57402E-07 4.77613E-15
4.87388E-07 4.23339E-15
5.18325E-07 3.76434E-15
5.50215E-07 3.35757E-15
5.83057E-07 3.00361E-15
6.16850E-07 2.69458E-15
6.51596E-07 2.42394E-15
6.87293E-07 2.18615E-15
7.23942E-07 1.97659E-15
7.61543E-07 1.79142E-15
1.18991E-06 7.50107E-16
1.71347E-06 3.68048E-16
2.33223E-06 2.01612E-16
3.04617E-06 1.19638E-16
3.85531E-06 7.54405E-17
4.75964E-06 4.98939E-17
5.75916E-06 3.42909E-17
6.85388E-06 2.43310E-17
8.04378E-06 1.77336E-17
9.32888E-06 1.32244E-17
1.07092E-05 1.00593E-17
1.21846E-05 7.78547E-18
1.37553E-05 6.11833E-18
1.54212E-05 4.87381E-18
1.71822E-05 3.92983E-18
1.90385E-05 3.20324E-18
2.09899E-05 2.63723E-18
2.30365E-05 2.19072E-18
2.51783E-05 1.83468E-18
2.74153E-05 1.54798E-18
2.97475E-05 1.31508E-18
3.21749E-05 1.12434E-18
3.46974E-05 9.66949E-19
3.73152E-05 8.36153E-19
4.00281E-05 7.26743E-19
4.28362E-05 6.34652E-19
4.57395E-05 5.56686E-19
4.87380E-05 4.90322E-19
5.18317E-05 4.33547E-19
5.50205E-05 3.84747E-19
5.83045E-05 3.42618E-19
6.16838E-05 3.06098E-19
6.51582E-05 2.74316E-19
6.87277E-05 2.46553E-19
7.23925E-05 2.22215E-19
7.61524E-05 2.00805E-19
9.21439E-05 1.37121E-19
1.09658E-04 9.67878E-20
1.28695E-04 7.02487E-20
1.49255E-04 5.22086E-20
1.71338E-04 3.96035E-20
1.94942E-04 3.05810E-20
2.20070E-04 2.39865E-20
2.46720E-04 1.90766E-20
2.74892E-04 1.53603E-20
3.04586E-04 1.25061E-20
3.35803E-04 1.02845E-20
3.68542E-04 8.53476E-21
4.02802E-04 7.14151E-21
4.38585E-04 6.02108E-21
4.75889E-04 5.11185E-21
5.14715E-04 4.36778E-21
5.55063E-04 3.75418E-21
5.96931E-04 3.24455E-21
6.40321E-04 2.81844E-21
6.85233E-04 2.45997E-21
7.31665E-04 2.15666E-21
7.79618E-04 1.89864E-21
8.29092E-04 1.67803E-21
8.80086E-04 1.48851E-21
9.32601E-04 1.32497E-21
9.86636E-04 1.18326E-21
1.04219E-03 1.05997E-21
1.09927E-03 9.52309E-22
1.15786E-03 8.57955E-22
1.21797E-03 7.74984E-22
1.27961E-03 7.01789E-22
1.34276E-03 6.37021E-22
1.40743E-03 5.79542E-22
1.47362E-03 5.28392E-22
1.54133E-03 4.82752E-22
1.61056E-03 4.41927E-22
1.68131E-03 4.05319E-22
1.75357E-03 3.72417E-22
1.82735E-03 3.42781E-22
1.90265E-03 3.16028E-22
1.97947E-03 2.91830E-22
2.05780E-03 2.69900E-22
2.13765E-03 2.49986E-22
2.21902E-03 2.31872E-22
2.30190E-03 2.15365E-22
2.38630E-03 2.00298E-22
2.47222E-03 1.86523E-22
2.55965E-03 1.73909E-22
2.64859E-03 1.62341E-22
2.73905E-03 1.51716E-22
2.83103E-03 1.41944E-22
2.92452E-03 1.32944E-22
3.01952E-03 1.24645E-22
3.11604E-03 1.16981E-22
3.21407E-03 1.09896E-22
3.31362E-03 1.03337E-22
3.41468E-03 9.72591E-23
3.51725E-03 9.16201E-23
3.62133E-03 8.63827E-23
3.72692E-03 8.15131E-23
3.83403E-03 7.69807E-23
3.94265E-03 7.27579E-23
4.05278E-03 6.88198E-23
4.16442E-03 6.51437E-23
4.27757E-03 6.17089E-23
4.39223E-03 5.84968E-23
4.50840E-03 5.54902E-23
4.62608E-03 5.26736E-23
4.74527E-03 5.00328E-23
4.86597E-03 4.75548E-23
4.98817E-03 4.52278E-23
5.11188E-03 4.30408E-23
5.23711E-03 4.09839E-23
5.36383E-03 3.90479E-23
5.49207E-03 3.72244E-23
5.62181E-03 3.55057E-23
5.75306E-03 3.38846E-23
5.88581E-03 3.23546E-23
6.02007E-03 3.09096E-23
6.15583E-03 2.95441E-23
6.29310E-03 2.82527E-23
6.43187E-03 2.70309E-23
6.57214E-03 2.58740E-23
6.71392E-03 2.47781E-23
6.85720E-03 2.37394E-23
7.00198E-03 2.27542E-23
7.14827E-03 2.18194E-23
7.29605E-03 2.09319E-23
7.44534E-03 2.00887E-23
7.59612E-03 1.92874E-23
7.97965E-03 1.74514E-23
8.37255E-03 1.58276E-23
8.77480E-03 1.43874E-23
9.18641E-03 1.31065E-23
9.60736E-03 1.19642E-23
1.00376E-02 1.09430E-23
1.04773E-02 1.00278E-23
1.09262E-02 9.20574E-24
1.13844E-02 8.46570E-24
1.18520E-02 7.79806E-24
1.23288E-02 7.19453E-24
1.28150E-02 6.64787E-24
1.33104E-02 6.15179E-24
1.38150E-02 5.70080E-24
1.43290E-02 5.29008E-24
1.48521E-02 4.91541E-24
1.53845E-02 4.57306E-24
1.59262E-02 4.25977E-24
1.64770E-02 3.97263E-24
1.70371E-02 3.70907E-24
1.76063E-02 3.46682E-24
1.81848E-02 3.24385E-24
1.87724E-02 3.03836E-24
1.93692E-02 2.84873E-24
1.99751E-02 2.67352E-24
2.05901E-02 2.51144E-24
2.12143E-02 2.36134E-24
2.18476E-02 2.22217E-24
2.24900E-02 2.09299E-24
2.31415E-02 1.97296E-24
2.38021E-02 1.86132E-24
2.44717E-02 1.75738E-24
2.51504E-02 1.66050E-24
2.58382E-02 1.57013E-24
2.65349E-02 1.48576E-24
2.72407E-02 1.40690E-24
2.79555E-02 1.33314E-24
2.86793E-02 1.26409E-24
2.94120E-02 1.19939E-24
3.01537E-02 1.13873E-24
3.09043E-02 1.08180E-24
3.16639E-02 1.02833E-24
3.24324E-02 9.78079E-25
3.32098E-02 9.30816E-25
3.39961E-02 8.86331E-25
3.47912E-02 8.44432E-25
3.55952E-02 8.04942E-25
3.64081E-02 7.67697E-25
3.72297E-02 7.32548E-25
3.80602E-02 6.99355E-25
3.88995E-02 6.67990E-25
3.97476E-02 6.38334E-25
4.06044E-02 6.10277E-25
4.14700E-02 5.83719E-25
4.23443E-02 5.58564E-25
4.32273E-02 5.34725E-25
4.41190E-02 5.12121E-25
4.50194E-02 4.90677E-25
4.59284E-02 4.70323E-25
4.68461E-02 4.50993E-25
4.87074E-02 4.15167E-25
5.06030E-02 3.82761E-25
5.25328E-02 3.53394E-25
5.44967E-02 3.26734E-25
5.64946E-02 3.02489E-25
5.85262E-02 2.80403E-25
6.05914E-02 2.60253E-25
6.26901E-02 2.41839E-25
6.48222E-02 2.24987E-25
6.69873E-02 2.09543E-25
6.91854E-02 1.95368E-25
7.14163E-02 1.82342E-25
7.36799E-02 1.70355E-25
7.59760E-02 1.59311E-25
7.83043E-02 1.49123E-25
8.06647E-02 1.39714E-25
8.30571E-02 1.31014E-25
8.54812E-02 1.22960E-25
8.79369E-02 1.15497E-25
9.04240E-02 1.08575E-25
9.29422E-02 1.02147E-25
9.54915E-02 9.61721E-26
9.80716E-02 9.06134E-26
1.00682E-01 8.54370E-26
1.03323E-01 8.06122E-26
1.05995E-01 7.61112E-26
1.08696E-01 7.19086E-26
1.11427E-01 6.79814E-26
1.14188E-01 6.43087E-26
1.16978E-01 6.08711E-26
1.19797E-01 5.76512E-26
1.22645E-01 5.46329E-26
1.25522E-01 5.18015E-26
1.28428E-01 4.91436E-26
1.31361E-01 4.66468E-26
1.34323E-01 4.42997E-26
1.37313E-01 4.20920E-26
1.40330E-01 4.00139E-26
1.43375E-01 3.80567E-26
1.46447E-01 3.62122E-26
1.49545E-01 3.44729E-26
1.52671E-01 3.28317E-26
1.55823E-01 3.12823E-26
1.59001E-01 2.98188E-26
1.62205E-01 2.84355E-26
1.65435E-01 2.71274E-26
1.68690E-01 2.58898E-26
1.71970E-01 2.47183E-26
1.75276E-01 2.36087E-26
1.78606E-01 2.25574E-26
1.81961E-01 2.15606E-26
1.85340E-01 2.06153E-26
1.88743E-01 1.97183E-26
1.92169E-01 1.88667E-26
1.95619E-01 1.80579E-26
1.99092E-01 1.72895E-26
2.02589E-01 1.65590E-26
2.06107E-01 1.58643E-26
2.09649E-01 1.52035E-26
2.13212E-01 1.45746E-26
2.16797E-01 1.39757E-26
2.20404E-01 1.34054E-26
2.24032E-01 1.28620E-26
2.27680E-01 1.23440E-26
2.31350E-01 1.18501E-26
2.35040E-01 1.13790E-26
2.38751E-01 1.09294E-26
2.42481E-01 1.05003E-26
2.46231E-01 1.00906E-26
2.50000E-01 9.69928E-27
2.53788E-01 9.32537E-27
2.57595E-01 8.96799E-27
2.61421E-01 8.62632E-27
2.65264E-01 8.29956E-27
2.69126E-01 7.98696E-27
2.73005E-01 7.68783E-27
2.76901E-01 7.40149E-27
2.80814E-01 7.12733E-27
2.84744E-01 6.86475E-27
2.88691E-01 6.61319E-27
2.92653E-01 6.37212E-27
2.96632E-01 6.14105E-27
3.00625E-01 5.91950E-27
3.04634E-01 5.70703E-27
3.08658E-01 5.50321E-27
3.12697E-01 5.30764E-27
3.16749E-01 5.11993E-27
3.20816E-01 4.93974E-27
3.24896E-01 4.76671E-27
3.28990E-01 4.60053E-27
3.33097E-01 4.44088E-27
3.37216E-01 4.28748E-27
3.41348E-01 4.14005E-27
3.45492E-01 3.99832E-27
3.49647E-01 3.86204E-27
3.53814E-01 3.73098E-27
3.57992E-01 3.60491E-27
3.62181E-01 3.48361E-27
3.66381E-01 3.36688E-27
3.70590E-01 3.25453E-27
3.74810E-01 3.14637E-27
3.79039E-01 3.04222E-27
3.83277E-01 2.94192E-27
3.87524E-01 2.84530E-27
3.91780E-01 2.75222E-27
3.96044E-01 2.66252E-27
4.00316E-01 2.57607E-27
4.04596E-01 2.49273E-27
4.08882E-01 2.41239E-27
4.13176E-01 2.33491E-27
4.17476E-01 2.26019E-27
4.21783E-01 2.18811E-27
4.26095E-01 2.11857E-27
4.30413E-01 2.05146E-27
4.34737E-01 1.98670E-27
4.39065E-01 1.92419E-27
4.43398E-01 1.86384E-27
4.47736E-01 1.80557E-27
4.52077E-01 1.74930E-27
4.56422E-01 1.69495E-27
4.60770E-01 1.64245E-27
4.65122E-01 1.59173E-27
4.69476E-01 1.54272E-27
4.73832E-01 1.49536E-27
4.78190E-01 1.44958E-27
4.82550E-01 1.40533E-27
4.86912E-01 1.36255E-27
4.91274E-01 1.32118E-27
4.95637E-01 1.28117E-27
5.00000E-01 1.24248E-27
5.04363E-01 1.20505E-27
5.08726E-01 1.16884E-27
5.13088E-01 1.13380E-27
5.17450E-01 1.09990E-27
5.21810E-01 1.06709E-27
5.26168E-01 1.03533E-27
5.30524E-01 1.00458E-27
5.34878E-01 9.74818E-28
5.39230E-01 9.45998E-28
5.43578E-01 9.18090E-28
5.47923E-01 8.91061E-28
5.52264E-01 8.64881E-28
5.56602E-01 8.39521E-28
5.60935E-01 8.14952E-28
5.65263E-01 7.91146E-28
5.69587E-01 7.68079E-28
5.73905E-01 7.45723E-28
5.78217E-01 7.24056E-28
5.82524E-01 7.03054E-28
5.86824E-01 6.82694E-28
5.91118E-01 6.62955E-28
5.95404E-01 6.43816E-28
5.99684E-01 6.25257E-28
6.03956E-01 6.07258E-28
6.08220E-01 5.89801E-28
6.12476E-01 5.72869E-28
6.16723E-01 5.56443E-28
6.20961E-01 5.40507E-28
6.25190E-01 5.25045E-28
6.29410E-01 5.10043E-28
6.33619E-01 4.95483E-28
6.37819E-01 4.81354E-28
6.42008E-01 4.67640E-28
6.46186E-01 4.54328E-28
6.50353E-01 4.41405E-28
6.54508E-01 4.28860E-28
6.58652E-01 4.16679E-28
6.62784E-01 4.04852E-28
6.66903E-01 3.93366E-28
6.71010E-01 3.82213E-28
6.75104E-01 3.71380E-28
6.79184E-01 3.60858E-28
6.83251E-01 3.50638E-28
6.87303E-01 3.40709E-28
6.91342E-01 3.31063E-28
6.95366E-01 3.21691E-28
6.99375E-01 3.12585E-28
7.03368E-01 3.03737E-28
7.07347E-01 2.95138E-28
7.11309E-01 2.86781E-28
7.15256E-01 2.78659E-28
7.19186E-01 2.70764E-28
7.23099E-01 2.63090E-28
7.26995E-01 2.55630E-28
7.30874E-01 2.48378E-28
7.34736E-01 2.41327E-28
7.38579E-01 2.34471E-28
7.42405E-01 2.27805E-28
7.46212E-01 2.21322E-28
7.50000E-01 2.15019E-28
7.53769E-01 2.08888E-28
7.57519E-01 2.02925E-28
7.61249E-01 1.97126E-28
7.64960E-01 1.91485E-28
7.68650E-01 1.85998E-28
7.72320E-01 1.80660E-28
7.75968E-01 1.75467E-28
7.79596E-01 1.70415E-28
7.83203E-01 1.65500E-28
7.86788E-01 1.60717E-28
7.90351E-01 1.56064E-28
7.93893E-01 1.51536E-28
7.97411E-01 1.47129E-28
8.00908E-01 1.42841E-28
8.04381E-01 1.38668E-28
8.07831E-01 1.34607E-28
8.11257E-01 1.30654E-28
8.14660E-01 1.26807E-28
8.18039E-01 1.23062E-28
8.21394E-01 1.19417E-28
8.24724E-01 1.15869E-28
8.28030E-01 1.12415E-28
8.31310E-01 1.09053E-28
8.34565E-01 1.05780E-28
8.37795E-01 1.02594E-28
8.40999E-01 9.94915E-29
8.44177E-01 9.64714E-29
8.47329E-01 9.35312E-29
8.50455E-01 9.06685E-29
8.53553E-01 8.78814E-29
8.56625E-01 8.51678E-29
8.59670E-01 8.25257E-29
8.62687E-01 7.99532E-29
8.65677E-01 7.74485E-29
8.68639E-01 7.50097E-29
8.71572E-01 7.26351E-29
8.74478E-01 7.03230E-29
8.77355E-01 6.80719E-29
8.80203E-01 6.58799E-29
8.83022E-01 6.37458E-29
8.85812E-01 6.16678E-29
8.88573E-01 5.96447E-29
8.91304E-01 5.76749E-29
8.94005E-01 5.57571E-29
8.96677E-01 5.38900E-29
8.99318E-01 5.20723E-29
9.01928E-01 5.03027E-29
9.04508E-01 4.85800E-29
9.07058E-01 4.69030E-29
9.09576E-01 4.52707E-29
9.12063E-01 4.36819E-29
9.14519E-01 4.21355E-29
9.16943E-01 4.06304E-29
9.19335E-01 3.91657E-29
9.21696E-01 3.77405E-29
9.24024E-01 3.63536E-29
9.26320E-01 3.50042E-29
9.28584E-01 3.36915E-29
9.30815E-01 3.24144E-29
9.33013E-01 3.11723E-29
9.35178E-01 2.99643E-29
9.37310E-01 2.87895E-29
9.39409E-01 2.76473E-29
9.41474E-01 2.65368E-29
9.43505E-01 2.54574E-29
9.45503E-01 2.44083E-29
9.47467E-01 2.33889E-29
9.49397E-01 2.23984E-29
9.51293E-01 2.14364E-29
9.53154E-01 2.05021E-29
9.54981E-01 1.95949E-29
9.56773E-01 1.87143E-29
9.58530E-01 1.78598E-29
9.60252E-01 1.70307E-29
9.61940E-01 1.62265E-29
9.63592E-01 1.54467E-29
9.65209E-01 1.46909E-29
9.66790E-01 1.39586E-29
9.68336E-01 1.32492E-29
9.69846E-01 1.25624E-29
9.71321E-01 1.18977E-29
9.72759E-01 1.12547E-29
9.74162E-01 1.06330E-29
9.75528E-01 1.00322E-29
9.76858E-01 9.45196E-30
9.78152E-01 8.89189E-30
9.79410E-01 8.35166E-30
9.80631E-01 7.83092E-30
9.81815E-01 7.32936E-30
9.82963E-01 6.84666E-30
9.84074E-01 6.38253E-30
9.85148E-01 5.93668E-30
9.86185E-01 5.50884E-30
9.87185E-01 5.09874E-30
9.88148E-01 4.70614E-30
9.89074E-01 4.33080E-30
9.89962E-01 3.97248E-30
9.90814E-01 3.63096E-30
9.91627E-01 3.30604E-30
9.92404E-01 2.99753E-30
9.93143E-01 2.70523E-30
9.93844E-01 2.42896E-30
9.94508E-01 2.16856E-30
9.95134E-01 1.92387E-30
9.95722E-01 1.69474E-30
9.96273E-01 1.48103E-30
9.96786E-01 1.28262E-30
9.97261E-01 1.09938E-30
9.97698E-01 9.31205E-31
9.98097E-01 7.77990E-31
9.98459E-01 6.39644E-31
9.98782E-01 5.16083E-31
9.99067E-01 4.07233E-31
9.99315E-01 3.13028E-31
9.99524E-01 2.33413E-31
9.99695E-01 1.68338E-31
9.99829E-01 1.17765E-31
9.99924E-01 8.16635E-32
9.99981E-01 6.00101E-32
1.00000E+00 5.27949E-32
