 #
 # Subroutine ELSEPA. Elastic scattering of electrons and positrons
 #                    by neutral atoms and positive ions
 #
 # Projectile: positron
 # Kinetic energy = 1.25000E+07 eV = 4.59367E+05 a.u.
 #
 # WARNING: High-energy factorization with free-atom DF screening.
 #          Absorption, polarization and exchange corrections are
 #          switched off.
 #          Phase shifts are calculated for the bare nucleus.
 #          Scattering amplitudes are not evaluated.
 #
 # Element: Cr,  Z =  24,  atomic weight = 5.19961E+01 g/mol
 #
 # Nuclear model: Fermi distribution
 #                Average radius = 3.99369E-13 cm
 #                Skin thickness = 5.46000E-14 cm
 #
 # Number of electrons = 24
 #
 # Total elastic cross section = 1.79376E-18 cm**2 = 6.40565E-02 a0**2
 # 1st transport cross section = 5.59762E-24 cm**2 = 1.99895E-07 a0**2
 # 2nd transport cross section = 1.62262E-23 cm**2 = 5.79450E-07 a0**2
 #
 #
 # Differential cross section:                       MU=(1-COS(THETA))/2
 #
 #  THETA        MU          DCS          DCS        Sherman      error
 #  (deg)                 (cm**2/sr)   (a0**2/sr)    function
 #----------------------------------------------------------------------
0.00000E+00 3.12949E-12
7.61557E-13 3.12930E-12
1.18994E-12 3.12920E-12
1.71346E-12 3.12908E-12
2.33225E-12 3.12893E-12
3.04617E-12 3.12876E-12
3.85530E-12 3.12857E-12
4.75964E-12 3.12835E-12
5.75917E-12 3.12811E-12
6.85391E-12 3.12785E-12
8.04379E-12 3.12757E-12
9.32893E-12 3.12727E-12
1.07092E-11 3.12694E-12
1.21847E-11 3.12659E-12
1.37554E-11 3.12622E-12
1.54213E-11 3.12582E-12
1.71823E-11 3.12540E-12
1.90386E-11 3.12496E-12
2.09900E-11 3.12450E-12
2.30367E-11 3.12402E-12
2.51785E-11 3.12351E-12
2.74156E-11 3.12298E-12
2.97478E-11 3.12243E-12
3.21752E-11 3.12186E-12
3.46979E-11 3.12126E-12
3.73157E-11 3.12064E-12
4.00286E-11 3.12000E-12
4.28368E-11 3.11934E-12
4.57402E-11 3.11866E-12
4.87388E-11 3.11795E-12
5.18325E-11 3.11722E-12
5.50215E-11 3.11647E-12
5.83057E-11 3.11570E-12
6.16850E-11 3.11490E-12
6.51595E-11 3.11408E-12
6.87293E-11 3.11324E-12
7.23943E-11 3.11238E-12
7.61544E-11 3.11150E-12
1.18991E-10 3.10148E-12
1.71347E-10 3.08930E-12
2.33223E-10 3.07502E-12
3.04617E-10 3.05869E-12
3.85531E-10 3.04036E-12
4.75965E-10 3.02010E-12
5.75917E-10 2.99798E-12
6.85389E-10 2.97408E-12
8.04380E-10 2.94847E-12
9.32891E-10 2.92125E-12
1.07092E-09 2.89250E-12
1.21847E-09 2.86231E-12
1.37554E-09 2.83077E-12
1.54213E-09 2.79796E-12
1.71823E-09 2.76402E-12
1.90386E-09 2.72903E-12
2.09900E-09 2.69311E-12
2.30367E-09 2.65627E-12
2.51785E-09 2.61868E-12
2.74156E-09 2.58044E-12
2.97478E-09 2.54163E-12
3.21752E-09 2.50230E-12
3.46978E-09 2.46257E-12
3.73156E-09 2.42253E-12
4.00286E-09 2.38227E-12
4.28368E-09 2.34184E-12
4.57402E-09 2.30131E-12
4.87388E-09 2.26077E-12
5.18326E-09 2.22031E-12
5.50215E-09 2.17995E-12
5.83057E-09 2.13974E-12
6.16850E-09 2.09978E-12
6.51596E-09 2.06010E-12
6.87293E-09 2.02076E-12
7.23942E-09 1.98175E-12
7.61544E-09 1.94317E-12
1.18991E-08 1.58600E-12
1.71347E-08 1.28990E-12
2.33223E-08 1.05383E-12
3.04617E-08 8.68338E-13
3.85531E-08 7.22254E-13
4.75965E-08 6.06346E-13
5.75917E-08 5.13255E-13
6.85389E-08 4.37358E-13
8.04380E-08 3.74925E-13
9.32891E-08 3.22936E-13
1.07092E-07 2.79251E-13
1.21847E-07 2.42355E-13
1.37554E-07 2.10574E-13
1.54213E-07 1.81822E-13
1.71823E-07 1.58553E-13
1.90386E-07 1.39535E-13
2.09900E-07 1.23846E-13
2.30367E-07 1.08386E-13
2.51785E-07 9.53117E-14
2.74156E-07 8.43910E-14
2.97478E-07 7.52026E-14
3.21752E-07 6.66895E-14
3.46978E-07 5.91587E-14
3.73156E-07 5.27512E-14
4.00286E-07 4.72684E-14
4.28368E-07 4.23648E-14
4.57402E-07 3.79324E-14
4.87388E-07 3.41003E-14
5.18325E-07 3.07723E-14
5.50215E-07 2.78348E-14
5.83057E-07 2.51600E-14
6.16850E-07 2.28150E-14
6.51596E-07 2.07516E-14
6.87293E-07 1.89291E-14
7.23942E-07 1.72672E-14
7.61543E-07 1.57923E-14
1.18991E-06 7.20209E-15
1.71347E-06 3.81982E-15
2.33223E-06 2.24292E-15
3.04617E-06 1.40954E-15
3.85531E-06 9.27928E-16
4.75964E-06 6.33375E-16
5.75916E-06 4.45309E-16
6.85388E-06 3.20965E-16
8.04378E-06 2.36581E-16
9.32888E-06 1.77897E-16
1.07092E-05 1.36196E-16
1.21846E-05 1.05974E-16
1.37553E-05 8.36614E-17
1.54212E-05 6.69183E-17
1.71822E-05 5.41815E-17
1.90385E-05 4.43399E-17
2.09899E-05 3.66443E-17
2.30365E-05 3.05586E-17
2.51783E-05 2.56852E-17
2.74153E-05 2.17513E-17
2.97475E-05 1.85444E-17
3.21749E-05 1.59089E-17
3.46974E-05 1.37288E-17
3.73152E-05 1.19089E-17
4.00281E-05 1.03829E-17
4.28362E-05 9.09384E-18
4.57395E-05 7.99903E-18
4.87380E-05 7.06478E-18
5.18317E-05 6.26222E-18
5.50205E-05 5.57098E-18
5.83045E-05 4.97220E-18
6.16838E-05 4.45179E-18
6.51582E-05 3.99784E-18
6.87277E-05 3.60000E-18
7.23925E-05 3.25065E-18
7.61524E-05 2.94242E-18
9.21439E-05 2.02122E-18
1.09658E-04 1.43329E-18
1.28695E-04 1.04410E-18
1.49255E-04 7.78223E-19
1.71338E-04 5.91689E-19
1.94942E-04 4.57740E-19
2.20070E-04 3.59568E-19
2.46720E-04 2.86316E-19
2.74892E-04 2.30771E-19
3.04586E-04 1.88044E-19
3.35803E-04 1.54748E-19
3.68542E-04 1.28495E-19
4.02802E-04 1.07572E-19
4.38585E-04 9.07334E-20
4.75889E-04 7.70599E-20
5.14715E-04 6.58640E-20
5.55063E-04 5.66270E-20
5.96931E-04 4.89516E-20
6.40321E-04 4.25320E-20
6.85233E-04 3.71297E-20
7.31665E-04 3.25572E-20
7.79618E-04 2.86666E-20
8.29092E-04 2.53393E-20
8.80086E-04 2.24804E-20
9.32601E-04 2.00130E-20
9.86636E-04 1.78745E-20
1.04219E-03 1.60138E-20
1.09927E-03 1.43887E-20
1.15786E-03 1.29643E-20
1.21797E-03 1.17116E-20
1.27961E-03 1.06063E-20
1.34276E-03 9.62828E-21
1.40743E-03 8.76021E-21
1.47362E-03 7.98766E-21
1.54133E-03 7.29827E-21
1.61056E-03 6.68156E-21
1.68131E-03 6.12853E-21
1.75357E-03 5.63145E-21
1.82735E-03 5.18367E-21
1.90265E-03 4.77944E-21
1.97947E-03 4.41379E-21
2.05780E-03 4.08238E-21
2.13765E-03 3.78145E-21
2.21902E-03 3.50768E-21
2.30190E-03 3.25820E-21
2.38630E-03 3.03046E-21
2.47222E-03 2.82224E-21
2.55965E-03 2.63156E-21
2.64859E-03 2.45669E-21
2.73905E-03 2.29607E-21
2.83103E-03 2.14833E-21
2.92452E-03 2.01227E-21
3.01952E-03 1.88678E-21
3.11604E-03 1.77090E-21
3.21407E-03 1.66377E-21
3.31362E-03 1.56459E-21
3.41468E-03 1.47268E-21
3.51725E-03 1.38740E-21
3.62133E-03 1.30819E-21
3.72692E-03 1.23454E-21
3.83403E-03 1.16599E-21
3.94265E-03 1.10212E-21
4.05278E-03 1.04255E-21
4.16442E-03 9.86944E-22
4.27757E-03 9.34984E-22
4.39223E-03 8.86390E-22
4.50840E-03 8.40904E-22
4.62608E-03 7.98290E-22
4.74527E-03 7.58335E-22
4.86597E-03 7.20841E-22
4.98817E-03 6.85629E-22
5.11188E-03 6.52535E-22
5.23711E-03 6.21408E-22
5.36383E-03 5.92109E-22
5.49207E-03 5.64512E-22
5.62181E-03 5.38499E-22
5.75306E-03 5.13962E-22
5.88581E-03 4.90803E-22
6.02007E-03 4.68930E-22
6.15583E-03 4.48257E-22
6.29310E-03 4.28708E-22
6.43187E-03 4.10210E-22
6.57214E-03 3.92695E-22
6.71392E-03 3.76102E-22
6.85720E-03 3.60373E-22
7.00198E-03 3.45455E-22
7.14827E-03 3.31299E-22
7.29605E-03 3.17857E-22
7.44534E-03 3.05088E-22
7.59612E-03 2.92952E-22
7.97965E-03 2.65140E-22
8.37255E-03 2.40540E-22
8.77480E-03 2.18719E-22
9.18641E-03 1.99308E-22
9.60736E-03 1.81995E-22
1.00376E-02 1.66515E-22
1.04773E-02 1.52640E-22
1.09262E-02 1.40174E-22
1.13844E-02 1.28951E-22
1.18520E-02 1.18824E-22
1.23288E-02 1.09667E-22
1.28150E-02 1.01372E-22
1.33104E-02 9.38433E-23
1.38150E-02 8.69974E-23
1.43290E-02 8.07616E-23
1.48521E-02 7.50720E-23
1.53845E-02 6.98723E-23
1.59262E-02 6.51128E-23
1.64770E-02 6.07497E-23
1.70371E-02 5.67442E-23
1.76063E-02 5.30617E-23
1.81848E-02 4.96715E-23
1.87724E-02 4.65463E-23
1.93692E-02 4.36617E-23
1.99751E-02 4.09959E-23
2.05901E-02 3.85293E-23
2.12143E-02 3.62443E-23
2.18476E-02 3.41253E-23
2.24900E-02 3.21579E-23
2.31415E-02 3.03294E-23
2.38021E-02 2.86282E-23
2.44717E-02 2.70439E-23
2.51504E-02 2.55670E-23
2.58382E-02 2.41888E-23
2.65349E-02 2.29017E-23
2.72407E-02 2.16984E-23
2.79555E-02 2.05726E-23
2.86793E-02 1.95184E-23
2.94120E-02 1.85303E-23
3.01537E-02 1.76036E-23
3.09043E-02 1.67336E-23
3.16639E-02 1.59163E-23
3.24324E-02 1.51479E-23
3.32098E-02 1.44250E-23
3.39961E-02 1.37444E-23
3.47912E-02 1.31031E-23
3.55952E-02 1.24985E-23
3.64081E-02 1.19280E-23
3.72297E-02 1.13895E-23
3.80602E-02 1.08808E-23
3.88995E-02 1.03999E-23
3.97476E-02 9.94505E-24
4.06044E-02 9.51459E-24
4.14700E-02 9.10696E-24
4.23443E-02 8.72073E-24
4.32273E-02 8.35458E-24
4.41190E-02 8.00726E-24
4.50194E-02 7.67764E-24
4.59284E-02 7.36464E-24
4.68461E-02 7.06728E-24
4.87074E-02 6.51582E-24
5.06030E-02 6.01662E-24
5.25328E-02 5.56385E-24
5.44967E-02 5.15246E-24
5.64946E-02 4.77801E-24
5.85262E-02 4.43661E-24
6.05914E-02 4.12483E-24
6.26901E-02 3.83967E-24
6.48222E-02 3.57845E-24
6.69873E-02 3.33881E-24
6.91854E-02 3.11866E-24
7.14163E-02 2.91615E-24
7.36799E-02 2.72960E-24
7.59760E-02 2.55754E-24
7.83043E-02 2.39865E-24
8.06647E-02 2.25175E-24
8.30571E-02 2.11576E-24
8.54812E-02 1.98975E-24
8.79369E-02 1.87285E-24
9.04240E-02 1.76428E-24
9.29422E-02 1.66334E-24
9.54915E-02 1.56942E-24
9.80716E-02 1.48192E-24
1.00682E-01 1.40034E-24
1.03323E-01 1.32421E-24
1.05995E-01 1.25310E-24
1.08696E-01 1.18661E-24
1.11427E-01 1.12440E-24
1.14188E-01 1.06614E-24
1.16978E-01 1.01154E-24
1.19797E-01 9.60320E-25
1.22645E-01 9.12242E-25
1.25522E-01 8.67078E-25
1.28428E-01 8.24619E-25
1.31361E-01 7.84676E-25
1.34323E-01 7.47072E-25
1.37313E-01 7.11647E-25
1.40330E-01 6.78252E-25
1.43375E-01 6.46750E-25
1.46447E-01 6.17015E-25
1.49545E-01 5.88931E-25
1.52671E-01 5.62390E-25
1.55823E-01 5.37291E-25
1.59001E-01 5.13544E-25
1.62205E-01 4.91062E-25
1.65435E-01 4.69766E-25
1.68690E-01 4.49583E-25
1.71970E-01 4.30443E-25
1.75276E-01 4.12285E-25
1.78606E-01 3.95048E-25
1.81961E-01 3.78678E-25
1.85340E-01 3.63123E-25
1.88743E-01 3.48336E-25
1.92169E-01 3.34272E-25
1.95619E-01 3.20889E-25
1.99092E-01 3.08149E-25
2.02589E-01 2.96016E-25
2.06107E-01 2.84455E-25
2.09649E-01 2.73436E-25
2.13212E-01 2.62927E-25
2.16797E-01 2.52901E-25
2.20404E-01 2.43333E-25
2.24032E-01 2.34197E-25
2.27680E-01 2.25471E-25
2.31350E-01 2.17134E-25
2.35040E-01 2.09164E-25
2.38751E-01 2.01542E-25
2.42481E-01 1.94252E-25
2.46231E-01 1.87276E-25
2.50000E-01 1.80598E-25
2.53788E-01 1.74203E-25
2.57595E-01 1.68077E-25
2.61421E-01 1.62207E-25
2.65264E-01 1.56580E-25
2.69126E-01 1.51185E-25
2.73005E-01 1.46010E-25
2.76901E-01 1.41045E-25
2.80814E-01 1.36280E-25
2.84744E-01 1.31705E-25
2.88691E-01 1.27311E-25
2.92653E-01 1.23090E-25
2.96632E-01 1.19035E-25
3.00625E-01 1.15137E-25
3.04634E-01 1.11389E-25
3.08658E-01 1.07785E-25
3.12697E-01 1.04318E-25
3.16749E-01 1.00981E-25
3.20816E-01 9.77703E-26
3.24896E-01 9.46790E-26
3.28990E-01 9.17022E-26
3.33097E-01 8.88348E-26
3.37216E-01 8.60723E-26
3.41348E-01 8.34101E-26
3.45492E-01 8.08440E-26
3.49647E-01 7.83698E-26
3.53814E-01 7.59838E-26
3.57992E-01 7.36823E-26
3.62181E-01 7.14618E-26
3.66381E-01 6.93189E-26
3.70590E-01 6.72505E-26
3.74810E-01 6.52536E-26
3.79039E-01 6.33252E-26
3.83277E-01 6.14627E-26
3.87524E-01 5.96634E-26
3.91780E-01 5.79248E-26
3.96044E-01 5.62445E-26
4.00316E-01 5.46202E-26
4.04596E-01 5.30498E-26
4.08882E-01 5.15312E-26
4.13176E-01 5.00624E-26
4.17476E-01 4.86414E-26
4.21783E-01 4.72665E-26
4.26095E-01 4.59359E-26
4.30413E-01 4.46480E-26
4.34737E-01 4.34012E-26
4.39065E-01 4.21939E-26
4.43398E-01 4.10247E-26
4.47736E-01 3.98922E-26
4.52077E-01 3.87950E-26
4.56422E-01 3.77319E-26
4.60770E-01 3.67017E-26
4.65122E-01 3.57031E-26
4.69476E-01 3.47350E-26
4.73832E-01 3.37964E-26
4.78190E-01 3.28862E-26
4.82550E-01 3.20034E-26
4.86912E-01 3.11471E-26
4.91274E-01 3.03163E-26
4.95637E-01 2.95101E-26
5.00000E-01 2.87278E-26
5.04363E-01 2.79684E-26
5.08726E-01 2.72313E-26
5.13088E-01 2.65156E-26
5.17450E-01 2.58207E-26
5.21810E-01 2.51457E-26
5.26168E-01 2.44902E-26
5.30524E-01 2.38534E-26
5.34878E-01 2.32347E-26
5.39230E-01 2.26335E-26
5.43578E-01 2.20492E-26
5.47923E-01 2.14814E-26
5.52264E-01 2.09294E-26
5.56602E-01 2.03928E-26
5.60935E-01 1.98710E-26
5.65263E-01 1.93636E-26
5.69587E-01 1.88701E-26
5.73905E-01 1.83902E-26
5.78217E-01 1.79233E-26
5.82524E-01 1.74690E-26
5.86824E-01 1.70270E-26
5.91118E-01 1.65969E-26
5.95404E-01 1.61783E-26
5.99684E-01 1.57709E-26
6.03956E-01 1.53743E-26
6.08220E-01 1.49882E-26
6.12476E-01 1.46123E-26
6.16723E-01 1.42462E-26
6.20961E-01 1.38897E-26
6.25190E-01 1.35425E-26
6.29410E-01 1.32043E-26
6.33619E-01 1.28749E-26
6.37819E-01 1.25539E-26
6.42008E-01 1.22412E-26
6.46186E-01 1.19364E-26
6.50353E-01 1.16395E-26
6.54508E-01 1.13500E-26
6.58652E-01 1.10679E-26
6.62784E-01 1.07929E-26
6.66903E-01 1.05248E-26
6.71010E-01 1.02634E-26
6.75104E-01 1.00086E-26
6.79184E-01 9.76005E-27
6.83251E-01 9.51769E-27
6.87303E-01 9.28131E-27
6.91342E-01 9.05076E-27
6.95366E-01 8.82586E-27
6.99375E-01 8.60647E-27
7.03368E-01 8.39243E-27
7.07347E-01 8.18359E-27
7.11309E-01 7.97982E-27
7.15256E-01 7.78097E-27
7.19186E-01 7.58692E-27
7.23099E-01 7.39753E-27
7.26995E-01 7.21268E-27
7.30874E-01 7.03225E-27
7.34736E-01 6.85612E-27
7.38579E-01 6.68417E-27
7.42405E-01 6.51631E-27
7.46212E-01 6.35241E-27
7.50000E-01 6.19238E-27
7.53769E-01 6.03611E-27
7.57519E-01 5.88351E-27
7.61249E-01 5.73449E-27
7.64960E-01 5.58894E-27
7.68650E-01 5.44679E-27
7.72320E-01 5.30795E-27
7.75968E-01 5.17233E-27
7.79596E-01 5.03984E-27
7.83203E-01 4.91043E-27
7.86788E-01 4.78399E-27
7.90351E-01 4.66047E-27
7.93893E-01 4.53979E-27
7.97411E-01 4.42187E-27
8.00908E-01 4.30666E-27
8.04381E-01 4.19408E-27
8.07831E-01 4.08408E-27
8.11257E-01 3.97658E-27
8.14660E-01 3.87153E-27
8.18039E-01 3.76886E-27
8.21394E-01 3.66853E-27
8.24724E-01 3.57048E-27
8.28030E-01 3.47465E-27
8.31310E-01 3.38098E-27
8.34565E-01 3.28944E-27
8.37795E-01 3.19997E-27
8.40999E-01 3.11252E-27
8.44177E-01 3.02704E-27
8.47329E-01 2.94349E-27
8.50455E-01 2.86183E-27
8.53553E-01 2.78200E-27
8.56625E-01 2.70398E-27
8.59670E-01 2.62772E-27
8.62687E-01 2.55318E-27
8.65677E-01 2.48032E-27
8.68639E-01 2.40911E-27
8.71572E-01 2.33950E-27
8.74478E-01 2.27146E-27
8.77355E-01 2.20497E-27
8.80203E-01 2.13998E-27
8.83022E-01 2.07646E-27
8.85812E-01 2.01439E-27
8.88573E-01 1.95372E-27
8.91304E-01 1.89444E-27
8.94005E-01 1.83650E-27
8.96677E-01 1.77989E-27
8.99318E-01 1.72458E-27
9.01928E-01 1.67053E-27
9.04508E-01 1.61773E-27
9.07058E-01 1.56615E-27
9.09576E-01 1.51576E-27
9.12063E-01 1.46654E-27
9.14519E-01 1.41846E-27
9.16943E-01 1.37151E-27
9.19335E-01 1.32566E-27
9.21696E-01 1.28089E-27
9.24024E-01 1.23718E-27
9.26320E-01 1.19451E-27
9.28584E-01 1.15286E-27
9.30815E-01 1.11221E-27
9.33013E-01 1.07254E-27
9.35178E-01 1.03383E-27
9.37310E-01 9.96073E-28
9.39409E-01 9.59242E-28
9.41474E-01 9.23323E-28
9.43505E-01 8.88301E-28
9.45503E-01 8.54160E-28
9.47467E-01 8.20884E-28
9.49397E-01 7.88459E-28
9.51293E-01 7.56870E-28
9.53154E-01 7.26103E-28
9.54981E-01 6.96145E-28
9.56773E-01 6.66983E-28
9.58530E-01 6.38604E-28
9.60252E-01 6.10995E-28
9.61940E-01 5.84145E-28
9.63592E-01 5.58042E-28
9.65209E-01 5.32674E-28
9.66790E-01 5.08032E-28
9.68336E-01 4.84103E-28
9.69846E-01 4.60879E-28
9.71321E-01 4.38348E-28
9.72759E-01 4.16502E-28
9.74162E-01 3.95332E-28
9.75528E-01 3.74827E-28
9.76858E-01 3.54980E-28
9.78152E-01 3.35782E-28
9.79410E-01 3.17225E-28
9.80631E-01 2.99301E-28
9.81815E-01 2.82004E-28
9.82963E-01 2.65324E-28
9.84074E-01 2.49257E-28
9.85148E-01 2.33794E-28
9.86185E-01 2.18929E-28
9.87185E-01 2.04657E-28
9.88148E-01 1.90972E-28
9.89074E-01 1.77867E-28
9.89962E-01 1.65337E-28
9.90814E-01 1.53378E-28
9.91627E-01 1.41984E-28
9.92404E-01 1.31150E-28
9.93143E-01 1.20873E-28
9.93844E-01 1.11148E-28
9.94508E-01 1.01970E-28
9.95134E-01 9.33367E-29
9.95722E-01 8.52441E-29
9.96273E-01 7.76888E-29
9.96786E-01 7.06678E-29
9.97261E-01 6.41783E-29
9.97698E-01 5.82175E-29
9.98097E-01 5.27832E-29
9.98459E-01 4.78730E-29
9.98782E-01 4.34850E-29
9.99067E-01 3.96174E-29
9.99315E-01 3.62686E-29
9.99524E-01 3.34374E-29
9.99695E-01 3.11225E-29
9.99829E-01 2.93229E-29
9.99924E-01 2.80381E-29
9.99981E-01 2.72673E-29
1.00000E+00 2.70105E-29
