 #
 # Subroutine ELSEPA. Elastic scattering of electrons and positrons
 #                    by neutral atoms and positive ions
 #
 # Projectile: positron
 # Kinetic energy = 4.00000E+06 eV = 1.46997E+05 a.u.
 #
 # WARNING: High-energy factorization with free-atom DF screening.
 #          Absorption, polarization and exchange corrections are
 #          switched off.
 #          Phase shifts are calculated for the bare nucleus.
 #          Scattering amplitudes are not evaluated.
 #
 # Element: Cr,  Z =  24,  atomic weight = 5.19961E+01 g/mol
 #
 # Nuclear model: Fermi distribution
 #                Average radius = 3.99369E-13 cm
 #                Skin thickness = 5.46000E-14 cm
 #
 # Number of electrons = 24
 #
 # Total elastic cross section = 1.81264E-18 cm**2 = 6.47305E-02 a0**2
 # 1st transport cross section = 3.97170E-23 cm**2 = 1.41832E-06 a0**2
 # 2nd transport cross section = 1.14183E-22 cm**2 = 4.07754E-06 a0**2
 #
 #
 # Differential cross section:                       MU=(1-COS(THETA))/2
 #
 #  THETA        MU          DCS          DCS        Sherman      error
 #  (deg)                 (cm**2/sr)   (a0**2/sr)    function
 #----------------------------------------------------------------------
0.00000E+00 3.76182E-13
7.61557E-13 3.76179E-13
1.18994E-12 3.76177E-13
1.71346E-12 3.76175E-13
2.33225E-12 3.76173E-13
3.04617E-12 3.76171E-13
3.85530E-12 3.76168E-13
4.75964E-12 3.76165E-13
5.75917E-12 3.76161E-13
6.85391E-12 3.76158E-13
8.04379E-12 3.76153E-13
9.32893E-12 3.76149E-13
1.07092E-11 3.76144E-13
1.21847E-11 3.76139E-13
1.37554E-11 3.76134E-13
1.54213E-11 3.76128E-13
1.71823E-11 3.76122E-13
1.90386E-11 3.76116E-13
2.09900E-11 3.76109E-13
2.30367E-11 3.76102E-13
2.51785E-11 3.76095E-13
2.74156E-11 3.76087E-13
2.97478E-11 3.76079E-13
3.21752E-11 3.76071E-13
3.46979E-11 3.76062E-13
3.73157E-11 3.76053E-13
4.00286E-11 3.76044E-13
4.28368E-11 3.76035E-13
4.57402E-11 3.76025E-13
4.87388E-11 3.76014E-13
5.18325E-11 3.76004E-13
5.50215E-11 3.75993E-13
5.83057E-11 3.75982E-13
6.16850E-11 3.75970E-13
6.51595E-11 3.75959E-13
6.87293E-11 3.75946E-13
7.23943E-11 3.75934E-13
7.61544E-11 3.75921E-13
1.18991E-10 3.75776E-13
1.71347E-10 3.75598E-13
2.33223E-10 3.75389E-13
3.04617E-10 3.75148E-13
3.85531E-10 3.74875E-13
4.75965E-10 3.74570E-13
5.75917E-10 3.74234E-13
6.85389E-10 3.73867E-13
8.04380E-10 3.73468E-13
9.32891E-10 3.73039E-13
1.07092E-09 3.72578E-13
1.21847E-09 3.72087E-13
1.37554E-09 3.71566E-13
1.54213E-09 3.71014E-13
1.71823E-09 3.70433E-13
1.90386E-09 3.69821E-13
2.09900E-09 3.69181E-13
2.30367E-09 3.68511E-13
2.51785E-09 3.67812E-13
2.74156E-09 3.67085E-13
2.97478E-09 3.66329E-13
3.21752E-09 3.65546E-13
3.46978E-09 3.64735E-13
3.73156E-09 3.63897E-13
4.00286E-09 3.63031E-13
4.28368E-09 3.62139E-13
4.57402E-09 3.61221E-13
4.87388E-09 3.60278E-13
5.18326E-09 3.59308E-13
5.50215E-09 3.58314E-13
5.83057E-09 3.57295E-13
6.16850E-09 3.56251E-13
6.51596E-09 3.55184E-13
6.87293E-09 3.54094E-13
7.23942E-09 3.52980E-13
7.61544E-09 3.51844E-13
1.18991E-08 3.39340E-13
1.71347E-08 3.25087E-13
2.33223E-08 3.09556E-13
3.04617E-08 2.93214E-13
3.85531E-08 2.76482E-13
4.75965E-08 2.59729E-13
5.75917E-08 2.43258E-13
6.85389E-08 2.27300E-13
8.04380E-08 2.12035E-13
9.32891E-08 1.97577E-13
1.07092E-07 1.83996E-13
1.21847E-07 1.71321E-13
1.37554E-07 1.59546E-13
1.54213E-07 1.48649E-13
1.71823E-07 1.38594E-13
1.90386E-07 1.29334E-13
2.09900E-07 1.20817E-13
2.30367E-07 1.12984E-13
2.51785E-07 1.05767E-13
2.74156E-07 9.91274E-14
2.97478E-07 9.30138E-14
3.21752E-07 8.73795E-14
3.46978E-07 8.21811E-14
3.73156E-07 7.73649E-14
4.00286E-07 7.29025E-14
4.28368E-07 6.87670E-14
4.57402E-07 6.49289E-14
4.87388E-07 6.13615E-14
5.18325E-07 5.80366E-14
5.50215E-07 5.49249E-14
5.83057E-07 5.20202E-14
6.16850E-07 4.93052E-14
6.51596E-07 4.67642E-14
6.87293E-07 4.43830E-14
7.23942E-07 4.21389E-14
7.61543E-07 4.00290E-14
1.18991E-06 2.44151E-14
1.71347E-06 1.54380E-14
2.33223E-06 9.98279E-15
3.04617E-06 6.64654E-15
3.85531E-06 4.54367E-15
4.75964E-06 3.18590E-15
5.75916E-06 2.28995E-15
6.85388E-06 1.68530E-15
8.04378E-06 1.27068E-15
9.32888E-06 9.78917E-16
1.07092E-05 7.68731E-16
1.21846E-05 6.13975E-16
1.37553E-05 4.97522E-16
1.54212E-05 4.08247E-16
1.71822E-05 3.38707E-16
1.90385E-05 2.83702E-16
2.09899E-05 2.39659E-16
2.30365E-05 2.03911E-16
2.51783E-05 1.74514E-16
2.74153E-05 1.50221E-16
2.97475E-05 1.29979E-16
3.21749E-05 1.12992E-16
3.46974E-05 9.86553E-17
3.73152E-05 8.64582E-17
4.00281E-05 7.60508E-17
4.28362E-05 6.71368E-17
4.57395E-05 5.94669E-17
4.87380E-05 5.28393E-17
5.18317E-05 4.70871E-17
5.50205E-05 4.20735E-17
5.83045E-05 3.76982E-17
6.16838E-05 3.38679E-17
6.51582E-05 3.05047E-17
6.87277E-05 2.75430E-17
7.23925E-05 2.49254E-17
7.61524E-05 2.26081E-17
9.21439E-05 1.56299E-17
1.09658E-04 1.11365E-17
1.28695E-04 8.14457E-18
1.49255E-04 6.09589E-18
1.71338E-04 4.65438E-18
1.94942E-04 3.61616E-18
2.20070E-04 2.85279E-18
2.46720E-04 2.28122E-18
2.74892E-04 1.84636E-18
3.04586E-04 1.51067E-18
3.35803E-04 1.24809E-18
3.68542E-04 1.04024E-18
4.02802E-04 8.73876E-19
4.38585E-04 7.39500E-19
4.75889E-04 6.29994E-19
5.14715E-04 5.40019E-19
5.55063E-04 4.65535E-19
5.96931E-04 4.03421E-19
6.40321E-04 3.51307E-19
6.85233E-04 3.07329E-19
7.31665E-04 2.70008E-19
7.79618E-04 2.38171E-19
8.29092E-04 2.10877E-19
8.80086E-04 1.87366E-19
9.32601E-04 1.67034E-19
9.86636E-04 1.49379E-19
1.04219E-03 1.33990E-19
1.09927E-03 1.20526E-19
1.15786E-03 1.08704E-19
1.21797E-03 9.82920E-20
1.27961E-03 8.90936E-20
1.34276E-03 8.09432E-20
1.40743E-03 7.37009E-20
1.47362E-03 6.72479E-20
1.54133E-03 6.14831E-20
1.61056E-03 5.63211E-20
1.68131E-03 5.16881E-20
1.75357E-03 4.75203E-20
1.82735E-03 4.37630E-20
1.90265E-03 4.03682E-20
1.97947E-03 3.72953E-20
2.05780E-03 3.45085E-20
2.13765E-03 3.19763E-20
2.21902E-03 2.96715E-20
2.30190E-03 2.75700E-20
2.38630E-03 2.56506E-20
2.47222E-03 2.38948E-20
2.55965E-03 2.22864E-20
2.64859E-03 2.08105E-20
2.73905E-03 1.94545E-20
2.83103E-03 1.82068E-20
2.92452E-03 1.70571E-20
3.01952E-03 1.59966E-20
3.11604E-03 1.50169E-20
3.21407E-03 1.41109E-20
3.31362E-03 1.32720E-20
3.41468E-03 1.24943E-20
3.51725E-03 1.17725E-20
3.62133E-03 1.11020E-20
3.72692E-03 1.04784E-20
3.83403E-03 9.89778E-21
3.94265E-03 9.35672E-21
4.05278E-03 8.85202E-21
4.16442E-03 8.38079E-21
4.27757E-03 7.94040E-21
4.39223E-03 7.52847E-21
4.50840E-03 7.14282E-21
4.62608E-03 6.78147E-21
4.74527E-03 6.44261E-21
4.86597E-03 6.12458E-21
4.98817E-03 5.82588E-21
5.11188E-03 5.54510E-21
5.23711E-03 5.28098E-21
5.36383E-03 5.03234E-21
5.49207E-03 4.79812E-21
5.62181E-03 4.57732E-21
5.75306E-03 4.36904E-21
5.88581E-03 4.17243E-21
6.02007E-03 3.98671E-21
6.15583E-03 3.81118E-21
6.29310E-03 3.64517E-21
6.43187E-03 3.48807E-21
6.57214E-03 3.33931E-21
6.71392E-03 3.19837E-21
6.85720E-03 3.06476E-21
7.00198E-03 2.93803E-21
7.14827E-03 2.81776E-21
7.29605E-03 2.70355E-21
7.44534E-03 2.59506E-21
7.59612E-03 2.49193E-21
7.97965E-03 2.25558E-21
8.37255E-03 2.04650E-21
8.77480E-03 1.86101E-21
9.18641E-03 1.69599E-21
9.60736E-03 1.54879E-21
1.00376E-02 1.41716E-21
1.04773E-02 1.29917E-21
1.09262E-02 1.19315E-21
1.13844E-02 1.09769E-21
1.18520E-02 1.01155E-21
1.23288E-02 9.33662E-22
1.28150E-02 8.63095E-22
1.33104E-02 7.99041E-22
1.38150E-02 7.40794E-22
1.43290E-02 6.87736E-22
1.48521E-02 6.39321E-22
1.53845E-02 5.95073E-22
1.59262E-02 5.54569E-22
1.64770E-02 5.17437E-22
1.70371E-02 4.83346E-22
1.76063E-02 4.52002E-22
1.81848E-02 4.23146E-22
1.87724E-02 3.96544E-22
1.93692E-02 3.71988E-22
1.99751E-02 3.49295E-22
2.05901E-02 3.28296E-22
2.12143E-02 3.08843E-22
2.18476E-02 2.90801E-22
2.24900E-02 2.74050E-22
2.31415E-02 2.58481E-22
2.38021E-02 2.43996E-22
2.44717E-02 2.30505E-22
2.51504E-02 2.17928E-22
2.58382E-02 2.06192E-22
2.65349E-02 1.95230E-22
2.72407E-02 1.84983E-22
2.79555E-02 1.75395E-22
2.86793E-02 1.66416E-22
2.94120E-02 1.58000E-22
3.01537E-02 1.50106E-22
3.09043E-02 1.42696E-22
3.16639E-02 1.35734E-22
3.24324E-02 1.29188E-22
3.32098E-02 1.23030E-22
3.39961E-02 1.17231E-22
3.47912E-02 1.11768E-22
3.55952E-02 1.06616E-22
3.64081E-02 1.01756E-22
3.72297E-02 9.71679E-23
3.80602E-02 9.28331E-23
3.88995E-02 8.87355E-23
3.97476E-02 8.48598E-23
4.06044E-02 8.11916E-23
4.14700E-02 7.77178E-23
4.23443E-02 7.44263E-23
4.32273E-02 7.13058E-23
4.41190E-02 6.83457E-23
4.50194E-02 6.55362E-23
4.59284E-02 6.28684E-23
4.68461E-02 6.03338E-23
4.87074E-02 5.56331E-23
5.06030E-02 5.13775E-23
5.25328E-02 4.75175E-23
5.44967E-02 4.40100E-23
5.64946E-02 4.08172E-23
5.85262E-02 3.79059E-23
6.05914E-02 3.52471E-23
6.26901E-02 3.28150E-23
6.48222E-02 3.05870E-23
6.69873E-02 2.85429E-23
6.91854E-02 2.66649E-23
7.14163E-02 2.49371E-23
7.36799E-02 2.33454E-23
7.59760E-02 2.18773E-23
7.83043E-02 2.05214E-23
8.06647E-02 1.92677E-23
8.30571E-02 1.81070E-23
8.54812E-02 1.70314E-23
8.79369E-02 1.60334E-23
9.04240E-02 1.51065E-23
9.29422E-02 1.42447E-23
9.54915E-02 1.34427E-23
9.80716E-02 1.26955E-23
1.00682E-01 1.19988E-23
1.03323E-01 1.13485E-23
1.05995E-01 1.07410E-23
1.08696E-01 1.01730E-23
1.11427E-01 9.64143E-24
1.14188E-01 9.14360E-24
1.16978E-01 8.67697E-24
1.19797E-01 8.23923E-24
1.22645E-01 7.82828E-24
1.25522E-01 7.44219E-24
1.28428E-01 7.07918E-24
1.31361E-01 6.73765E-24
1.34323E-01 6.41608E-24
1.37313E-01 6.11310E-24
1.40330E-01 5.82746E-24
1.43375E-01 5.55798E-24
1.46447E-01 5.30359E-24
1.49545E-01 5.06329E-24
1.52671E-01 4.83616E-24
1.55823E-01 4.62136E-24
1.59001E-01 4.41809E-24
1.62205E-01 4.22563E-24
1.65435E-01 4.04330E-24
1.68690E-01 3.87047E-24
1.71970E-01 3.70657E-24
1.75276E-01 3.55104E-24
1.78606E-01 3.40339E-24
1.81961E-01 3.26314E-24
1.85340E-01 3.12986E-24
1.88743E-01 3.00313E-24
1.92169E-01 2.88259E-24
1.95619E-01 2.76788E-24
1.99092E-01 2.65866E-24
2.02589E-01 2.55463E-24
2.06107E-01 2.45549E-24
2.09649E-01 2.36097E-24
2.13212E-01 2.27083E-24
2.16797E-01 2.18481E-24
2.20404E-01 2.10271E-24
2.24032E-01 2.02431E-24
2.27680E-01 1.94941E-24
2.31350E-01 1.87784E-24
2.35040E-01 1.80941E-24
2.38751E-01 1.74396E-24
2.42481E-01 1.68135E-24
2.46231E-01 1.62143E-24
2.50000E-01 1.56405E-24
2.53788E-01 1.50910E-24
2.57595E-01 1.45646E-24
2.61421E-01 1.40600E-24
2.65264E-01 1.35763E-24
2.69126E-01 1.31124E-24
2.73005E-01 1.26673E-24
2.76901E-01 1.22403E-24
2.80814E-01 1.18303E-24
2.84744E-01 1.14367E-24
2.88691E-01 1.10586E-24
2.92653E-01 1.06953E-24
2.96632E-01 1.03461E-24
3.00625E-01 1.00105E-24
3.04634E-01 9.68775E-25
3.08658E-01 9.37730E-25
3.12697E-01 9.07860E-25
3.16749E-01 8.79113E-25
3.20816E-01 8.51439E-25
3.24896E-01 8.24793E-25
3.28990E-01 7.99127E-25
3.33097E-01 7.74402E-25
3.37216E-01 7.50575E-25
3.41348E-01 7.27609E-25
3.45492E-01 7.05468E-25
3.49647E-01 6.84116E-25
3.53814E-01 6.63521E-25
3.57992E-01 6.43651E-25
3.62181E-01 6.24476E-25
3.66381E-01 6.05968E-25
3.70590E-01 5.88100E-25
3.74810E-01 5.70845E-25
3.79039E-01 5.54180E-25
3.83277E-01 5.38080E-25
3.87524E-01 5.22523E-25
3.91780E-01 5.07488E-25
3.96044E-01 4.92954E-25
4.00316E-01 4.78902E-25
4.04596E-01 4.65312E-25
4.08882E-01 4.52168E-25
4.13176E-01 4.39452E-25
4.17476E-01 4.27147E-25
4.21783E-01 4.15239E-25
4.26095E-01 4.03712E-25
4.30413E-01 3.92552E-25
4.34737E-01 3.81746E-25
4.39065E-01 3.71280E-25
4.43398E-01 3.61142E-25
4.47736E-01 3.51319E-25
4.52077E-01 3.41801E-25
4.56422E-01 3.32577E-25
4.60770E-01 3.23635E-25
4.65122E-01 3.14966E-25
4.69476E-01 3.06560E-25
4.73832E-01 2.98408E-25
4.78190E-01 2.90500E-25
4.82550E-01 2.82829E-25
4.86912E-01 2.75386E-25
4.91274E-01 2.68163E-25
4.95637E-01 2.61153E-25
5.00000E-01 2.54348E-25
5.04363E-01 2.47741E-25
5.08726E-01 2.41326E-25
5.13088E-01 2.35096E-25
5.17450E-01 2.29045E-25
5.21810E-01 2.23167E-25
5.26168E-01 2.17456E-25
5.30524E-01 2.11907E-25
5.34878E-01 2.06514E-25
5.39230E-01 2.01272E-25
5.43578E-01 1.96177E-25
5.47923E-01 1.91224E-25
5.52264E-01 1.86408E-25
5.56602E-01 1.81724E-25
5.60935E-01 1.77169E-25
5.65263E-01 1.72738E-25
5.69587E-01 1.68428E-25
5.73905E-01 1.64234E-25
5.78217E-01 1.60153E-25
5.82524E-01 1.56182E-25
5.86824E-01 1.52317E-25
5.91118E-01 1.48555E-25
5.95404E-01 1.44893E-25
5.99684E-01 1.41327E-25
6.03956E-01 1.37855E-25
6.08220E-01 1.34474E-25
6.12476E-01 1.31181E-25
6.16723E-01 1.27974E-25
6.20961E-01 1.24849E-25
6.25190E-01 1.21805E-25
6.29410E-01 1.18840E-25
6.33619E-01 1.15950E-25
6.37819E-01 1.13133E-25
6.42008E-01 1.10388E-25
6.46186E-01 1.07713E-25
6.50353E-01 1.05105E-25
6.54508E-01 1.02562E-25
6.58652E-01 1.00083E-25
6.62784E-01 9.76659E-26
6.66903E-01 9.53087E-26
6.71010E-01 9.30097E-26
6.75104E-01 9.07675E-26
6.79184E-01 8.85803E-26
6.83251E-01 8.64467E-26
6.87303E-01 8.43652E-26
6.91342E-01 8.23344E-26
6.95366E-01 8.03527E-26
6.99375E-01 7.84190E-26
7.03368E-01 7.65319E-26
7.07347E-01 7.46901E-26
7.11309E-01 7.28924E-26
7.15256E-01 7.11376E-26
7.19186E-01 6.94246E-26
7.23099E-01 6.77522E-26
7.26995E-01 6.61194E-26
7.30874E-01 6.45252E-26
7.34736E-01 6.29684E-26
7.38579E-01 6.14482E-26
7.42405E-01 5.99636E-26
7.46212E-01 5.85136E-26
7.50000E-01 5.70974E-26
7.53769E-01 5.57141E-26
7.57519E-01 5.43628E-26
7.61249E-01 5.30428E-26
7.64960E-01 5.17532E-26
7.68650E-01 5.04932E-26
7.72320E-01 4.92622E-26
7.75968E-01 4.80594E-26
7.79596E-01 4.68840E-26
7.83203E-01 4.57355E-26
7.86788E-01 4.46131E-26
7.90351E-01 4.35162E-26
7.93893E-01 4.24442E-26
7.97411E-01 4.13965E-26
8.00908E-01 4.03724E-26
8.04381E-01 3.93714E-26
8.07831E-01 3.83930E-26
8.11257E-01 3.74366E-26
8.14660E-01 3.65017E-26
8.18039E-01 3.55877E-26
8.21394E-01 3.46943E-26
8.24724E-01 3.38208E-26
8.28030E-01 3.29669E-26
8.31310E-01 3.21320E-26
8.34565E-01 3.13158E-26
8.37795E-01 3.05178E-26
8.40999E-01 2.97376E-26
8.44177E-01 2.89747E-26
8.47329E-01 2.82289E-26
8.50455E-01 2.74996E-26
8.53553E-01 2.67866E-26
8.56625E-01 2.60894E-26
8.59670E-01 2.54078E-26
8.62687E-01 2.47413E-26
8.65677E-01 2.40897E-26
8.68639E-01 2.34526E-26
8.71572E-01 2.28297E-26
8.74478E-01 2.22207E-26
8.77355E-01 2.16253E-26
8.80203E-01 2.10432E-26
8.83022E-01 2.04741E-26
8.85812E-01 1.99178E-26
8.88573E-01 1.93739E-26
8.91304E-01 1.88423E-26
8.94005E-01 1.83227E-26
8.96677E-01 1.78148E-26
8.99318E-01 1.73183E-26
9.01928E-01 1.68331E-26
9.04508E-01 1.63590E-26
9.07058E-01 1.58957E-26
9.09576E-01 1.54429E-26
9.12063E-01 1.50005E-26
9.14519E-01 1.45684E-26
9.16943E-01 1.41462E-26
9.19335E-01 1.37338E-26
9.21696E-01 1.33310E-26
9.24024E-01 1.29376E-26
9.26320E-01 1.25535E-26
9.28584E-01 1.21785E-26
9.30815E-01 1.18124E-26
9.33013E-01 1.14550E-26
9.35178E-01 1.11062E-26
9.37310E-01 1.07659E-26
9.39409E-01 1.04339E-26
9.41474E-01 1.01100E-26
9.43505E-01 9.79412E-27
9.45503E-01 9.48612E-27
9.47467E-01 9.18585E-27
9.49397E-01 8.89318E-27
9.51293E-01 8.60801E-27
9.53154E-01 8.33019E-27
9.54981E-01 8.05962E-27
9.56773E-01 7.79618E-27
9.58530E-01 7.53976E-27
9.60252E-01 7.29025E-27
9.61940E-01 7.04755E-27
9.63592E-01 6.81155E-27
9.65209E-01 6.58215E-27
9.66790E-01 6.35927E-27
9.68336E-01 6.14280E-27
9.69846E-01 5.93267E-27
9.71321E-01 5.72877E-27
9.72759E-01 5.53104E-27
9.74162E-01 5.33938E-27
9.75528E-01 5.15372E-27
9.76858E-01 4.97399E-27
9.78152E-01 4.80010E-27
9.79410E-01 4.63200E-27
9.80631E-01 4.46961E-27
9.81815E-01 4.31286E-27
9.82963E-01 4.16170E-27
9.84074E-01 4.01605E-27
9.85148E-01 3.87588E-27
9.86185E-01 3.74111E-27
9.87185E-01 3.61169E-27
9.88148E-01 3.48757E-27
9.89074E-01 3.36871E-27
9.89962E-01 3.25505E-27
9.90814E-01 3.14656E-27
9.91627E-01 3.04318E-27
9.92404E-01 2.94487E-27
9.93143E-01 2.85161E-27
9.93844E-01 2.76334E-27
9.94508E-01 2.68004E-27
9.95134E-01 2.60167E-27
9.95722E-01 2.52821E-27
9.96273E-01 2.45962E-27
9.96786E-01 2.39587E-27
9.97261E-01 2.33695E-27
9.97698E-01 2.28282E-27
9.98097E-01 2.23347E-27
9.98459E-01 2.18888E-27
9.98782E-01 2.14903E-27
9.99067E-01 2.11390E-27
9.99315E-01 2.08349E-27
9.99524E-01 2.05777E-27
9.99695E-01 2.03675E-27
9.99829E-01 2.02040E-27
9.99924E-01 2.00873E-27
9.99981E-01 2.00173E-27
1.00000E+00 1.99940E-27
