 #
 # Subroutine ELSEPA. Elastic scattering of electrons and positrons
 #                    by neutral atoms and positive ions
 #
 # Projectile: positron
 # Kinetic energy = 2.50000E+07 eV = 9.18733E+05 a.u.
 #
 # WARNING: High-energy factorization with free-atom DF screening.
 #          Absorption, polarization and exchange corrections are
 #          switched off.
 #          Phase shifts are calculated for the bare nucleus.
 #          Scattering amplitudes are not evaluated.
 #
 # Element: Cr,  Z =  24,  atomic weight = 5.19961E+01 g/mol
 #
 # Nuclear model: Fermi distribution
 #                Average radius = 3.99369E-13 cm
 #                Skin thickness = 5.46000E-14 cm
 #
 # Number of electrons = 24
 #
 # Total elastic cross section = 1.79122E-18 cm**2 = 6.39655E-02 a0**2
 # 1st transport cross section = 1.60028E-24 cm**2 = 5.71472E-08 a0**2
 # 2nd transport cross section = 4.66130E-24 cm**2 = 1.66458E-07 a0**2
 #
 #
 # Differential cross section:                       MU=(1-COS(THETA))/2
 #
 #  THETA        MU          DCS          DCS        Sherman      error
 #  (deg)                 (cm**2/sr)   (a0**2/sr)    function
 #----------------------------------------------------------------------
0.00000E+00 1.20311E-11
7.61557E-13 1.20285E-11
1.18994E-12 1.20269E-11
1.71346E-12 1.20251E-11
2.33225E-12 1.20229E-11
3.04617E-12 1.20204E-11
3.85530E-12 1.20176E-11
4.75964E-12 1.20144E-11
5.75917E-12 1.20109E-11
6.85391E-12 1.20071E-11
8.04379E-12 1.20029E-11
9.32893E-12 1.19984E-11
1.07092E-11 1.19936E-11
1.21847E-11 1.19885E-11
1.37554E-11 1.19830E-11
1.54213E-11 1.19772E-11
1.71823E-11 1.19711E-11
1.90386E-11 1.19646E-11
2.09900E-11 1.19578E-11
2.30367E-11 1.19507E-11
2.51785E-11 1.19433E-11
2.74156E-11 1.19356E-11
2.97478E-11 1.19275E-11
3.21752E-11 1.19191E-11
3.46979E-11 1.19104E-11
3.73157E-11 1.19014E-11
4.00286E-11 1.18921E-11
4.28368E-11 1.18825E-11
4.57402E-11 1.18725E-11
4.87388E-11 1.18622E-11
5.18325E-11 1.18517E-11
5.50215E-11 1.18408E-11
5.83057E-11 1.18296E-11
6.16850E-11 1.18181E-11
6.51595E-11 1.18063E-11
6.87293E-11 1.17942E-11
7.23943E-11 1.17818E-11
7.61544E-11 1.17691E-11
1.18991E-10 1.16261E-11
1.71347E-10 1.14554E-11
2.33223E-10 1.12592E-11
3.04617E-10 1.10401E-11
3.85531E-10 1.08005E-11
4.75965E-10 1.05435E-11
5.75917E-10 1.02718E-11
6.85389E-10 9.98808E-12
8.04380E-10 9.69534E-12
9.32891E-10 9.39577E-12
1.07092E-09 9.09228E-12
1.21847E-09 8.78668E-12
1.37554E-09 8.48143E-12
1.54213E-09 8.17804E-12
1.71823E-09 7.87836E-12
1.90386E-09 7.58360E-12
2.09900E-09 7.29504E-12
2.30367E-09 7.01358E-12
2.51785E-09 6.73999E-12
2.74156E-09 6.47491E-12
2.97478E-09 6.21865E-12
3.21752E-09 5.97171E-12
3.46978E-09 5.73394E-12
3.73156E-09 5.50583E-12
4.00286E-09 5.28677E-12
4.28368E-09 5.07732E-12
4.57402E-09 4.87662E-12
4.87388E-09 4.68511E-12
5.18326E-09 4.50195E-12
5.50215E-09 4.32735E-12
5.83057E-09 4.16061E-12
6.16850E-09 4.00166E-12
6.51596E-09 3.85010E-12
6.87293E-09 3.70547E-12
7.23942E-09 3.56778E-12
7.61544E-09 3.43615E-12
1.18991E-08 2.40873E-12
1.71347E-08 1.74344E-12
2.33223E-08 1.29144E-12
3.04617E-08 9.72649E-13
3.85531E-08 7.34368E-13
4.75965E-08 5.62709E-13
5.75917E-08 4.40779E-13
6.85389E-08 3.42787E-13
8.04380E-08 2.72670E-13
9.32891E-08 2.15502E-13
1.07092E-07 1.73663E-13
1.21847E-07 1.39861E-13
1.37554E-07 1.14229E-13
1.54213E-07 9.37929E-14
1.71823E-07 7.77805E-14
1.90386E-07 6.49915E-14
2.09900E-07 5.47415E-14
2.30367E-07 4.64692E-14
2.51785E-07 3.97223E-14
2.74156E-07 3.42002E-14
2.97478E-07 2.96261E-14
3.21752E-07 2.58283E-14
3.46978E-07 2.26345E-14
3.73156E-07 1.99488E-14
4.00286E-07 1.76555E-14
4.28368E-07 1.57042E-14
4.57402E-07 1.40173E-14
4.87388E-07 1.25649E-14
5.18325E-07 1.12969E-14
5.50215E-07 1.01923E-14
5.83057E-07 9.22069E-15
6.16850E-07 8.36484E-15
6.51596E-07 7.60783E-15
6.87293E-07 6.93399E-15
7.23942E-07 6.33556E-15
7.61543E-07 5.79774E-15
1.18991E-06 2.61408E-15
1.71347E-06 1.32815E-15
2.33223E-06 7.37171E-16
3.04617E-06 4.39491E-16
3.85531E-06 2.77609E-16
4.75964E-06 1.83975E-16
5.75916E-06 1.26787E-16
6.85388E-06 9.02644E-17
8.04378E-06 6.60328E-17
9.32888E-06 4.94359E-17
1.07092E-05 3.77530E-17
1.21846E-05 2.93320E-17
1.37553E-05 2.31356E-17
1.54212E-05 1.84930E-17
1.71822E-05 1.49578E-17
1.90385E-05 1.22266E-17
2.09899E-05 1.00920E-17
2.30365E-05 8.40282E-18
2.51783E-05 7.05189E-18
2.74153E-05 5.96116E-18
2.97475E-05 5.07281E-18
3.21749E-05 4.34351E-18
3.46974E-05 3.74048E-18
3.73152E-05 3.23842E-18
4.00281E-05 2.81773E-18
4.28362E-05 2.46308E-18
4.57395E-05 2.16240E-18
4.87380E-05 1.90610E-18
5.18317E-05 1.68658E-18
5.50205E-05 1.49770E-18
5.83045E-05 1.33448E-18
6.16838E-05 1.19286E-18
6.51582E-05 1.06952E-18
6.87277E-05 9.61690E-19
7.23925E-05 8.67099E-19
7.61524E-05 7.83841E-19
9.21439E-05 5.35873E-19
1.09658E-04 3.78560E-19
1.28695E-04 2.74925E-19
1.49255E-04 2.04415E-19
1.71338E-04 1.55115E-19
1.94942E-04 1.19808E-19
2.20070E-04 9.39924E-20
2.46720E-04 7.47655E-20
2.74892E-04 6.02089E-20
3.04586E-04 4.90264E-20
3.35803E-04 4.03214E-20
3.68542E-04 3.34641E-20
4.02802E-04 2.80034E-20
4.38585E-04 2.36114E-20
4.75889E-04 2.00471E-20
5.14715E-04 1.71300E-20
5.55063E-04 1.47242E-20
5.96931E-04 1.27259E-20
6.40321E-04 1.10551E-20
6.85233E-04 9.64945E-21
7.31665E-04 8.46002E-21
7.79618E-04 7.44814E-21
8.29092E-04 6.58295E-21
8.80086E-04 5.83968E-21
9.32601E-04 5.19828E-21
9.86636E-04 4.64247E-21
1.04219E-03 4.15890E-21
1.09927E-03 3.73660E-21
1.15786E-03 3.36650E-21
1.21797E-03 3.04104E-21
1.27961E-03 2.75392E-21
1.34276E-03 2.49985E-21
1.40743E-03 2.27437E-21
1.47362E-03 2.07372E-21
1.54133E-03 1.89467E-21
1.61056E-03 1.73451E-21
1.68131E-03 1.59089E-21
1.75357E-03 1.46181E-21
1.82735E-03 1.34553E-21
1.90265E-03 1.24057E-21
1.97947E-03 1.14563E-21
2.05780E-03 1.05958E-21
2.13765E-03 9.81449E-22
2.21902E-03 9.10373E-22
2.30190E-03 8.45603E-22
2.38630E-03 7.86481E-22
2.47222E-03 7.32426E-22
2.55965E-03 6.82926E-22
2.64859E-03 6.37529E-22
2.73905E-03 5.95834E-22
2.83103E-03 5.57486E-22
2.92452E-03 5.22166E-22
3.01952E-03 4.89594E-22
3.11604E-03 4.59516E-22
3.21407E-03 4.31707E-22
3.31362E-03 4.05965E-22
3.41468E-03 3.82109E-22
3.51725E-03 3.59976E-22
3.62133E-03 3.39418E-22
3.72692E-03 3.20303E-22
3.83403E-03 3.02511E-22
3.94265E-03 2.85935E-22
4.05278E-03 2.70475E-22
4.16442E-03 2.56043E-22
4.27757E-03 2.42559E-22
4.39223E-03 2.29948E-22
4.50840E-03 2.18144E-22
4.62608E-03 2.07085E-22
4.74527E-03 1.96716E-22
4.86597E-03 1.86986E-22
4.98817E-03 1.77849E-22
5.11188E-03 1.69261E-22
5.23711E-03 1.61184E-22
5.36383E-03 1.53581E-22
5.49207E-03 1.46420E-22
5.62181E-03 1.39670E-22
5.75306E-03 1.33303E-22
5.88581E-03 1.27294E-22
6.02007E-03 1.21618E-22
6.15583E-03 1.16255E-22
6.29310E-03 1.11182E-22
6.43187E-03 1.06382E-22
6.57214E-03 1.01838E-22
6.71392E-03 9.75328E-23
6.85720E-03 9.34519E-23
7.00198E-03 8.95814E-23
7.14827E-03 8.59085E-23
7.29605E-03 8.24212E-23
7.44534E-03 7.91084E-23
7.59612E-03 7.59597E-23
7.97965E-03 6.87444E-23
8.37255E-03 6.23627E-23
8.77480E-03 5.67018E-23
9.18641E-03 5.16663E-23
9.60736E-03 4.71754E-23
1.00376E-02 4.31600E-23
1.04773E-02 3.95610E-23
1.09262E-02 3.63279E-23
1.13844E-02 3.34168E-23
1.18520E-02 3.07903E-23
1.23288E-02 2.84156E-23
1.28150E-02 2.62644E-23
1.33104E-02 2.43119E-23
1.38150E-02 2.25366E-23
1.43290E-02 2.09196E-23
1.48521E-02 1.94443E-23
1.53845E-02 1.80961E-23
1.59262E-02 1.68621E-23
1.64770E-02 1.57309E-23
1.70371E-02 1.46924E-23
1.76063E-02 1.37377E-23
1.81848E-02 1.28589E-23
1.87724E-02 1.20487E-23
1.93692E-02 1.13010E-23
1.99751E-02 1.06100E-23
2.05901E-02 9.97073E-24
2.12143E-02 9.37853E-24
2.18476E-02 8.82935E-24
2.24900E-02 8.31950E-24
2.31415E-02 7.84567E-24
2.38021E-02 7.40485E-24
2.44717E-02 6.99434E-24
2.51504E-02 6.61167E-24
2.58382E-02 6.25461E-24
2.65349E-02 5.92115E-24
2.72407E-02 5.60944E-24
2.79555E-02 5.31782E-24
2.86793E-02 5.04474E-24
2.94120E-02 4.78882E-24
3.01537E-02 4.54879E-24
3.09043E-02 4.32349E-24
3.16639E-02 4.11183E-24
3.24324E-02 3.91286E-24
3.32098E-02 3.72567E-24
3.39961E-02 3.54944E-24
3.47912E-02 3.38341E-24
3.55952E-02 3.22688E-24
3.64081E-02 3.07921E-24
3.72297E-02 2.93981E-24
3.80602E-02 2.80814E-24
3.88995E-02 2.68367E-24
3.97476E-02 2.56596E-24
4.06044E-02 2.45457E-24
4.14700E-02 2.34909E-24
4.23443E-02 2.24915E-24
4.32273E-02 2.15442E-24
4.41190E-02 2.06456E-24
4.50194E-02 1.97929E-24
4.59284E-02 1.89833E-24
4.68461E-02 1.82141E-24
4.87074E-02 1.67880E-24
5.06030E-02 1.54971E-24
5.25328E-02 1.43265E-24
5.44967E-02 1.32630E-24
5.64946E-02 1.22952E-24
5.85262E-02 1.14130E-24
6.05914E-02 1.06075E-24
6.26901E-02 9.87084E-25
6.48222E-02 9.19616E-25
6.69873E-02 8.57735E-25
6.91854E-02 8.00896E-25
7.14163E-02 7.48619E-25
7.36799E-02 7.00474E-25
7.59760E-02 6.56077E-25
7.83043E-02 6.15087E-25
8.06647E-02 5.77196E-25
8.30571E-02 5.42130E-25
8.54812E-02 5.09641E-25
8.79369E-02 4.79506E-25
9.04240E-02 4.51527E-25
9.29422E-02 4.25522E-25
9.54915E-02 4.01326E-25
9.80716E-02 3.78794E-25
1.00682E-01 3.57789E-25
1.03323E-01 3.38192E-25
1.05995E-01 3.19890E-25
1.08696E-01 3.02784E-25
1.11427E-01 2.86782E-25
1.14188E-01 2.71800E-25
1.16978E-01 2.57761E-25
1.19797E-01 2.44597E-25
1.22645E-01 2.32243E-25
1.25522E-01 2.20641E-25
1.28428E-01 2.09737E-25
1.31361E-01 1.99481E-25
1.34323E-01 1.89829E-25
1.37313E-01 1.80739E-25
1.40330E-01 1.72172E-25
1.43375E-01 1.64093E-25
1.46447E-01 1.56470E-25
1.49545E-01 1.49271E-25
1.52671E-01 1.42471E-25
1.55823E-01 1.36042E-25
1.59001E-01 1.29961E-25
1.62205E-01 1.24205E-25
1.65435E-01 1.18756E-25
1.68690E-01 1.13592E-25
1.71970E-01 1.08697E-25
1.75276E-01 1.04055E-25
1.78606E-01 9.96496E-26
1.81961E-01 9.54672E-26
1.85340E-01 9.14944E-26
1.88743E-01 8.77190E-26
1.92169E-01 8.41295E-26
1.95619E-01 8.07152E-26
1.99092E-01 7.74659E-26
2.02589E-01 7.43725E-26
2.06107E-01 7.14262E-26
2.09649E-01 6.86187E-26
2.13212E-01 6.59424E-26
2.16797E-01 6.33902E-26
2.20404E-01 6.09552E-26
2.24032E-01 5.86313E-26
2.27680E-01 5.64124E-26
2.31350E-01 5.42931E-26
2.35040E-01 5.22680E-26
2.38751E-01 5.03324E-26
2.42481E-01 4.84816E-26
2.46231E-01 4.67112E-26
2.50000E-01 4.50171E-26
2.53788E-01 4.33956E-26
2.57595E-01 4.18429E-26
2.61421E-01 4.03558E-26
2.65264E-01 3.89308E-26
2.69126E-01 3.75651E-26
2.73005E-01 3.62557E-26
2.76901E-01 3.50000E-26
2.80814E-01 3.37953E-26
2.84744E-01 3.26392E-26
2.88691E-01 3.15295E-26
2.92653E-01 3.04640E-26
2.96632E-01 2.94406E-26
3.00625E-01 2.84574E-26
3.04634E-01 2.75126E-26
3.08658E-01 2.66044E-26
3.12697E-01 2.57311E-26
3.16749E-01 2.48912E-26
3.20816E-01 2.40832E-26
3.24896E-01 2.33058E-26
3.28990E-01 2.25575E-26
3.33097E-01 2.18370E-26
3.37216E-01 2.11433E-26
3.41348E-01 2.04751E-26
3.45492E-01 1.98313E-26
3.49647E-01 1.92109E-26
3.53814E-01 1.86129E-26
3.57992E-01 1.80364E-26
3.62181E-01 1.74805E-26
3.66381E-01 1.69443E-26
3.70590E-01 1.64270E-26
3.74810E-01 1.59279E-26
3.79039E-01 1.54461E-26
3.83277E-01 1.49811E-26
3.87524E-01 1.45321E-26
3.91780E-01 1.40984E-26
3.96044E-01 1.36796E-26
4.00316E-01 1.32749E-26
4.04596E-01 1.28839E-26
4.08882E-01 1.25060E-26
4.13176E-01 1.21407E-26
4.17476E-01 1.17875E-26
4.21783E-01 1.14459E-26
4.26095E-01 1.11156E-26
4.30413E-01 1.07960E-26
4.34737E-01 1.04868E-26
4.39065E-01 1.01876E-26
4.43398E-01 9.89797E-27
4.47736E-01 9.61763E-27
4.52077E-01 9.34620E-27
4.56422E-01 9.08335E-27
4.60770E-01 8.82879E-27
4.65122E-01 8.58220E-27
4.69476E-01 8.34330E-27
4.73832E-01 8.11181E-27
4.78190E-01 7.88746E-27
4.82550E-01 7.67001E-27
4.86912E-01 7.45921E-27
4.91274E-01 7.25483E-27
4.95637E-01 7.05664E-27
5.00000E-01 6.86443E-27
5.04363E-01 6.67798E-27
5.08726E-01 6.49711E-27
5.13088E-01 6.32161E-27
5.17450E-01 6.15132E-27
5.21810E-01 5.98604E-27
5.26168E-01 5.82561E-27
5.30524E-01 5.66988E-27
5.34878E-01 5.51867E-27
5.39230E-01 5.37184E-27
5.43578E-01 5.22925E-27
5.47923E-01 5.09076E-27
5.52264E-01 4.95622E-27
5.56602E-01 4.82552E-27
5.60935E-01 4.69853E-27
5.65263E-01 4.57512E-27
5.69587E-01 4.45519E-27
5.73905E-01 4.33861E-27
5.78217E-01 4.22529E-27
5.82524E-01 4.11512E-27
5.86824E-01 4.00800E-27
5.91118E-01 3.90384E-27
5.95404E-01 3.80254E-27
5.99684E-01 3.70401E-27
6.03956E-01 3.60816E-27
6.08220E-01 3.51492E-27
6.12476E-01 3.42421E-27
6.16723E-01 3.33594E-27
6.20961E-01 3.25004E-27
6.25190E-01 3.16644E-27
6.29410E-01 3.08507E-27
6.33619E-01 3.00586E-27
6.37819E-01 2.92875E-27
6.42008E-01 2.85368E-27
6.46186E-01 2.78058E-27
6.50353E-01 2.70940E-27
6.54508E-01 2.64007E-27
6.58652E-01 2.57255E-27
6.62784E-01 2.50678E-27
6.66903E-01 2.44272E-27
6.71010E-01 2.38030E-27
6.75104E-01 2.31949E-27
6.79184E-01 2.26024E-27
6.83251E-01 2.20250E-27
6.87303E-01 2.14623E-27
6.91342E-01 2.09139E-27
6.95366E-01 2.03794E-27
6.99375E-01 1.98583E-27
7.03368E-01 1.93504E-27
7.07347E-01 1.88552E-27
7.11309E-01 1.83724E-27
7.15256E-01 1.79016E-27
7.19186E-01 1.74425E-27
7.23099E-01 1.69948E-27
7.26995E-01 1.65582E-27
7.30874E-01 1.61324E-27
7.34736E-01 1.57171E-27
7.38579E-01 1.53119E-27
7.42405E-01 1.49167E-27
7.46212E-01 1.45311E-27
7.50000E-01 1.41549E-27
7.53769E-01 1.37879E-27
7.57519E-01 1.34297E-27
7.61249E-01 1.30802E-27
7.64960E-01 1.27392E-27
7.68650E-01 1.24064E-27
7.72320E-01 1.20815E-27
7.75968E-01 1.17645E-27
7.79596E-01 1.14551E-27
7.83203E-01 1.11530E-27
7.86788E-01 1.08582E-27
7.90351E-01 1.05704E-27
7.93893E-01 1.02894E-27
7.97411E-01 1.00151E-27
8.00908E-01 9.74725E-28
8.04381E-01 9.48576E-28
8.07831E-01 9.23045E-28
8.11257E-01 8.98116E-28
8.14660E-01 8.73774E-28
8.18039E-01 8.50004E-28
8.21394E-01 8.26792E-28
8.24724E-01 8.04126E-28
8.28030E-01 7.81990E-28
8.31310E-01 7.60373E-28
8.34565E-01 7.39261E-28
8.37795E-01 7.18643E-28
8.40999E-01 6.98506E-28
8.44177E-01 6.78839E-28
8.47329E-01 6.59632E-28
8.50455E-01 6.40872E-28
8.53553E-01 6.22549E-28
8.56625E-01 6.04654E-28
8.59670E-01 5.87176E-28
8.62687E-01 5.70105E-28
8.65677E-01 5.53432E-28
8.68639E-01 5.37147E-28
8.71572E-01 5.21243E-28
8.74478E-01 5.05710E-28
8.77355E-01 4.90539E-28
8.80203E-01 4.75723E-28
8.83022E-01 4.61253E-28
8.85812E-01 4.47122E-28
8.88573E-01 4.33323E-28
8.91304E-01 4.19847E-28
8.94005E-01 4.06688E-28
8.96677E-01 3.93839E-28
8.99318E-01 3.81293E-28
9.01928E-01 3.69044E-28
9.04508E-01 3.57085E-28
9.07058E-01 3.45410E-28
9.09576E-01 3.34013E-28
9.12063E-01 3.22889E-28
9.14519E-01 3.12031E-28
9.16943E-01 3.01434E-28
9.19335E-01 2.91092E-28
9.21696E-01 2.81001E-28
9.24024E-01 2.71156E-28
9.26320E-01 2.61550E-28
9.28584E-01 2.52181E-28
9.30815E-01 2.43042E-28
9.33013E-01 2.34129E-28
9.35178E-01 2.25439E-28
9.37310E-01 2.16966E-28
9.39409E-01 2.08707E-28
9.41474E-01 2.00658E-28
9.43505E-01 1.92814E-28
9.45503E-01 1.85172E-28
9.47467E-01 1.77728E-28
9.49397E-01 1.70478E-28
9.51293E-01 1.63420E-28
9.53154E-01 1.56549E-28
9.54981E-01 1.49862E-28
9.56773E-01 1.43357E-28
9.58530E-01 1.37030E-28
9.60252E-01 1.30878E-28
9.61940E-01 1.24898E-28
9.63592E-01 1.19087E-28
9.65209E-01 1.13443E-28
9.66790E-01 1.07963E-28
9.68336E-01 1.02644E-28
9.69846E-01 9.74844E-29
9.71321E-01 9.24812E-29
9.72759E-01 8.76322E-29
9.74162E-01 8.29351E-29
9.75528E-01 7.83879E-29
9.76858E-01 7.39883E-29
9.78152E-01 6.97344E-29
9.79410E-01 6.56242E-29
9.80631E-01 6.16559E-29
9.81815E-01 5.78275E-29
9.82963E-01 5.41375E-29
9.84074E-01 5.05840E-29
9.85148E-01 4.71656E-29
9.86185E-01 4.38805E-29
9.87185E-01 4.07274E-29
9.88148E-01 3.77048E-29
9.89074E-01 3.48114E-29
9.89962E-01 3.20458E-29
9.90814E-01 2.94068E-29
9.91627E-01 2.68932E-29
9.92404E-01 2.45039E-29
9.93143E-01 2.22378E-29
9.93844E-01 2.00939E-29
9.94508E-01 1.80713E-29
9.95134E-01 1.61690E-29
9.95722E-01 1.43862E-29
9.96273E-01 1.27221E-29
9.96786E-01 1.11759E-29
9.97261E-01 9.74704E-30
9.97698E-01 8.43478E-30
9.98097E-01 7.23858E-30
9.98459E-01 6.15789E-30
9.98782E-01 5.19224E-30
9.99067E-01 4.34119E-30
9.99315E-01 3.60438E-30
9.99524E-01 2.98148E-30
9.99695E-01 2.47221E-30
9.99829E-01 2.07634E-30
9.99924E-01 1.79371E-30
9.99981E-01 1.62417E-30
1.00000E+00 1.56768E-30
