 #
 # Subroutine ELSEPA. Elastic scattering of electrons and positrons
 #                    by neutral atoms and positive ions
 #
 # Projectile: positron
 # Kinetic energy = 7.00000E+06 eV = 2.57245E+05 a.u.
 #
 # WARNING: High-energy factorization with free-atom DF screening.
 #          Absorption, polarization and exchange corrections are
 #          switched off.
 #          Phase shifts are calculated for the bare nucleus.
 #          Scattering amplitudes are not evaluated.
 #
 # Element: Cr,  Z =  24,  atomic weight = 5.19961E+01 g/mol
 #
 # Nuclear model: Fermi distribution
 #                Average radius = 3.99369E-13 cm
 #                Skin thickness = 5.46000E-14 cm
 #
 # Number of electrons = 24
 #
 # Total elastic cross section = 1.79834E-18 cm**2 = 6.42201E-02 a0**2
 # 1st transport cross section = 1.54470E-23 cm**2 = 5.51622E-07 a0**2
 # 2nd transport cross section = 4.46030E-23 cm**2 = 1.59280E-06 a0**2
 #
 #
 # Differential cross section:                       MU=(1-COS(THETA))/2
 #
 #  THETA        MU          DCS          DCS        Sherman      error
 #  (deg)                 (cm**2/sr)   (a0**2/sr)    function
 #----------------------------------------------------------------------
0.00000E+00 1.04291E-12
7.61557E-13 1.04289E-12
1.18994E-12 1.04288E-12
1.71346E-12 1.04287E-12
2.33225E-12 1.04285E-12
3.04617E-12 1.04283E-12
3.85530E-12 1.04281E-12
4.75964E-12 1.04278E-12
5.75917E-12 1.04276E-12
6.85391E-12 1.04273E-12
8.04379E-12 1.04270E-12
9.32893E-12 1.04266E-12
1.07092E-11 1.04263E-12
1.21847E-11 1.04259E-12
1.37554E-11 1.04255E-12
1.54213E-11 1.04250E-12
1.71823E-11 1.04246E-12
1.90386E-11 1.04241E-12
2.09900E-11 1.04236E-12
2.30367E-11 1.04230E-12
2.51785E-11 1.04225E-12
2.74156E-11 1.04219E-12
2.97478E-11 1.04213E-12
3.21752E-11 1.04206E-12
3.46979E-11 1.04200E-12
3.73157E-11 1.04193E-12
4.00286E-11 1.04186E-12
4.28368E-11 1.04178E-12
4.57402E-11 1.04171E-12
4.87388E-11 1.04163E-12
5.18325E-11 1.04155E-12
5.50215E-11 1.04146E-12
5.83057E-11 1.04138E-12
6.16850E-11 1.04129E-12
6.51595E-11 1.04120E-12
6.87293E-11 1.04110E-12
7.23943E-11 1.04101E-12
7.61544E-11 1.04091E-12
1.18991E-10 1.03979E-12
1.71347E-10 1.03842E-12
2.33223E-10 1.03681E-12
3.04617E-10 1.03496E-12
3.85531E-10 1.03287E-12
4.75965E-10 1.03054E-12
5.75917E-10 1.02797E-12
6.85389E-10 1.02518E-12
8.04380E-10 1.02215E-12
9.32891E-10 1.01891E-12
1.07092E-09 1.01544E-12
1.21847E-09 1.01176E-12
1.37554E-09 1.00786E-12
1.54213E-09 1.00376E-12
1.71823E-09 9.99449E-13
1.90386E-09 9.94945E-13
2.09900E-09 9.90248E-13
2.30367E-09 9.85363E-13
2.51785E-09 9.80296E-13
2.74156E-09 9.75053E-13
2.97478E-09 9.69638E-13
3.21752E-09 9.64058E-13
3.46978E-09 9.58319E-13
3.73156E-09 9.52427E-13
4.00286E-09 9.46387E-13
4.28368E-09 9.40202E-13
4.57402E-09 9.33881E-13
4.87388E-09 9.27433E-13
5.18326E-09 9.20864E-13
5.50215E-09 9.14180E-13
5.83057E-09 9.07387E-13
6.16850E-09 9.00492E-13
6.51596E-09 8.93496E-13
6.87293E-09 8.86401E-13
7.23942E-09 8.79223E-13
7.61544E-09 8.71966E-13
1.18991E-08 7.96309E-13
1.71347E-08 7.18632E-13
2.33223E-08 6.43116E-13
3.04617E-08 5.72548E-13
3.85531E-08 5.08408E-13
4.75965E-08 4.51252E-13
5.75917E-08 4.00977E-13
6.85389E-08 3.57035E-13
8.04380E-08 3.18819E-13
9.32891E-08 2.85585E-13
1.07092E-07 2.56611E-13
1.21847E-07 2.31337E-13
1.37554E-07 2.09157E-13
1.54213E-07 1.89627E-13
1.71823E-07 1.72394E-13
1.90386E-07 1.57047E-13
2.09900E-07 1.43384E-13
2.30367E-07 1.31175E-13
2.51785E-07 1.20172E-13
2.74156E-07 1.10283E-13
2.97478E-07 1.01346E-13
3.21752E-07 9.32360E-14
3.46978E-07 8.58905E-14
3.73156E-07 7.91938E-14
4.00286E-07 7.30905E-14
4.28368E-07 6.71527E-14
4.57402E-07 6.17335E-14
4.87388E-07 5.69399E-14
5.18325E-07 5.26854E-14
5.50215E-07 4.88972E-14
5.83057E-07 4.55136E-14
6.16850E-07 4.24822E-14
6.51596E-07 3.95422E-14
6.87293E-07 3.65820E-14
7.23942E-07 3.39264E-14
7.61543E-07 3.15378E-14
1.18991E-06 1.60584E-14
1.71347E-06 8.73936E-15
2.33223E-06 5.10361E-15
3.04617E-06 3.18909E-15
3.85531E-06 2.10908E-15
4.75964E-06 1.46191E-15
5.75916E-06 1.05193E-15
6.85388E-06 7.78657E-16
8.04378E-06 5.89986E-16
9.32888E-06 4.55355E-16
1.07092E-05 3.56675E-16
1.21846E-05 2.83102E-16
1.37553E-05 2.27211E-16
1.54212E-05 1.84202E-16
1.71822E-05 1.50746E-16
1.90385E-05 1.24359E-16
2.09899E-05 1.03421E-16
2.30365E-05 8.66416E-17
2.51783E-05 7.30689E-17
2.74153E-05 6.20262E-17
2.97475E-05 5.29725E-17
3.21749E-05 4.54979E-17
3.46974E-05 3.92911E-17
3.73152E-05 3.41028E-17
4.00281E-05 2.97417E-17
4.28362E-05 2.60515E-17
4.57395E-05 2.29193E-17
4.87380E-05 2.02491E-17
5.18317E-05 1.79533E-17
5.50205E-05 1.59752E-17
5.83045E-05 1.42653E-17
6.16838E-05 1.27764E-17
6.51582E-05 1.14784E-17
6.87277E-05 1.03431E-17
7.23925E-05 9.34390E-18
7.61524E-05 8.46367E-18
9.21439E-05 5.83215E-18
1.09658E-04 4.15022E-18
1.28695E-04 3.03463E-18
1.49255E-04 2.27028E-18
1.71338E-04 1.73209E-18
1.94942E-04 1.34435E-18
2.20070E-04 1.05913E-18
2.46720E-04 8.45583E-19
2.74892E-04 6.83171E-19
3.04586E-04 5.57836E-19
3.35803E-04 4.59912E-19
3.68542E-04 3.82519E-19
4.02802E-04 3.20689E-19
4.38585E-04 2.70836E-19
4.75889E-04 2.30281E-19
5.14715E-04 1.97018E-19
5.55063E-04 1.69537E-19
5.96931E-04 1.46672E-19
6.40321E-04 1.27525E-19
6.85233E-04 1.11396E-19
7.31665E-04 9.77312E-20
7.79618E-04 8.60945E-20
8.29092E-04 7.61355E-20
8.80086E-04 6.75720E-20
9.32601E-04 6.01769E-20
9.86636E-04 5.37640E-20
1.04219E-03 4.81812E-20
1.09927E-03 4.33030E-20
1.15786E-03 3.90254E-20
1.21797E-03 3.52621E-20
1.27961E-03 3.19408E-20
1.34276E-03 2.90006E-20
1.40743E-03 2.63903E-20
1.47362E-03 2.40666E-20
1.54133E-03 2.19926E-20
1.61056E-03 2.01367E-20
1.68131E-03 1.84722E-20
1.75357E-03 1.69758E-20
1.82735E-03 1.56275E-20
1.90265E-03 1.44102E-20
1.97947E-03 1.33089E-20
2.05780E-03 1.23106E-20
2.13765E-03 1.14039E-20
2.21902E-03 1.05791E-20
2.30190E-03 9.82728E-21
2.38630E-03 9.14095E-21
2.47222E-03 8.51336E-21
2.55965E-03 7.93860E-21
2.64859E-03 7.41143E-21
2.73905E-03 6.92719E-21
2.83103E-03 6.48177E-21
2.92452E-03 6.07150E-21
3.01952E-03 5.69310E-21
3.11604E-03 5.34366E-21
3.21407E-03 5.02055E-21
3.31362E-03 4.72144E-21
3.41468E-03 4.44422E-21
3.51725E-03 4.18700E-21
3.62133E-03 3.94807E-21
3.72692E-03 3.72591E-21
3.83403E-03 3.51911E-21
3.94265E-03 3.32642E-21
4.05278E-03 3.14671E-21
4.16442E-03 2.97894E-21
4.27757E-03 2.82217E-21
4.39223E-03 2.67555E-21
4.50840E-03 2.53830E-21
4.62608E-03 2.40972E-21
4.74527E-03 2.28915E-21
4.86597E-03 2.17601E-21
4.98817E-03 2.06976E-21
5.11188E-03 1.96989E-21
5.23711E-03 1.87595E-21
5.36383E-03 1.78753E-21
5.49207E-03 1.70425E-21
5.62181E-03 1.62574E-21
5.75306E-03 1.55169E-21
5.88581E-03 1.48179E-21
6.02007E-03 1.41577E-21
6.15583E-03 1.35338E-21
6.29310E-03 1.29437E-21
6.43187E-03 1.23854E-21
6.57214E-03 1.18567E-21
6.71392E-03 1.13559E-21
6.85720E-03 1.08811E-21
7.00198E-03 1.04308E-21
7.14827E-03 1.00035E-21
7.29605E-03 9.59774E-22
7.44534E-03 9.21229E-22
7.59612E-03 8.84592E-22
7.97965E-03 8.00636E-22
8.37255E-03 7.26373E-22
8.77480E-03 6.60496E-22
9.18641E-03 6.01893E-22
9.60736E-03 5.49625E-22
1.00376E-02 5.02888E-22
1.04773E-02 4.60995E-22
1.09262E-02 4.23359E-22
1.13844E-02 3.89471E-22
1.18520E-02 3.58893E-22
1.23288E-02 3.31245E-22
1.28150E-02 3.06198E-22
1.33104E-02 2.83464E-22
1.38150E-02 2.62792E-22
1.43290E-02 2.43961E-22
1.48521E-02 2.26780E-22
1.53845E-02 2.11078E-22
1.59262E-02 1.96705E-22
1.64770E-02 1.83529E-22
1.70371E-02 1.71432E-22
1.76063E-02 1.60311E-22
1.81848E-02 1.50072E-22
1.87724E-02 1.40634E-22
1.93692E-02 1.31922E-22
1.99751E-02 1.23871E-22
2.05901E-02 1.16421E-22
2.12143E-02 1.09520E-22
2.18476E-02 1.03119E-22
2.24900E-02 9.71769E-23
2.31415E-02 9.16540E-23
2.38021E-02 8.65156E-23
2.44717E-02 8.17300E-23
2.51504E-02 7.72687E-23
2.58382E-02 7.31058E-23
2.65349E-02 6.92177E-23
2.72407E-02 6.55830E-23
2.79555E-02 6.21822E-23
2.86793E-02 5.89975E-23
2.94120E-02 5.60127E-23
3.01537E-02 5.32129E-23
3.09043E-02 5.05847E-23
3.16639E-02 4.81156E-23
3.24324E-02 4.57942E-23
3.32098E-02 4.36102E-23
3.39961E-02 4.15538E-23
3.47912E-02 3.96163E-23
3.55952E-02 3.77895E-23
3.64081E-02 3.60660E-23
3.72297E-02 3.44389E-23
3.80602E-02 3.29017E-23
3.88995E-02 3.14487E-23
3.97476E-02 3.00744E-23
4.06044E-02 2.87736E-23
4.14700E-02 2.75419E-23
4.23443E-02 2.63748E-23
4.32273E-02 2.52683E-23
4.41190E-02 2.42188E-23
4.50194E-02 2.32227E-23
4.59284E-02 2.22768E-23
4.68461E-02 2.13781E-23
4.87074E-02 1.97115E-23
5.06030E-02 1.82028E-23
5.25328E-02 1.68343E-23
5.44967E-02 1.55909E-23
5.64946E-02 1.44590E-23
5.85262E-02 1.34270E-23
6.05914E-02 1.24845E-23
6.26901E-02 1.16225E-23
6.48222E-02 1.08327E-23
6.69873E-02 1.01082E-23
6.91854E-02 9.44258E-24
7.14163E-02 8.83022E-24
7.36799E-02 8.26613E-24
7.59760E-02 7.74583E-24
7.83043E-02 7.26532E-24
8.06647E-02 6.82103E-24
8.30571E-02 6.40976E-24
8.54812E-02 6.02861E-24
8.79369E-02 5.67499E-24
9.04240E-02 5.34657E-24
9.29422E-02 5.04123E-24
9.54915E-02 4.75707E-24
9.80716E-02 4.49236E-24
1.00682E-01 4.24552E-24
1.03323E-01 4.01515E-24
1.05995E-01 3.79995E-24
1.08696E-01 3.59875E-24
1.11427E-01 3.41047E-24
1.14188E-01 3.23414E-24
1.16978E-01 3.06886E-24
1.19797E-01 2.91383E-24
1.22645E-01 2.76828E-24
1.25522E-01 2.63155E-24
1.28428E-01 2.50300E-24
1.31361E-01 2.38206E-24
1.34323E-01 2.26819E-24
1.37313E-01 2.16091E-24
1.40330E-01 2.05977E-24
1.43375E-01 1.96436E-24
1.46447E-01 1.87429E-24
1.49545E-01 1.78922E-24
1.52671E-01 1.70881E-24
1.55823E-01 1.63277E-24
1.59001E-01 1.56082E-24
1.62205E-01 1.49270E-24
1.65435E-01 1.42816E-24
1.68690E-01 1.36699E-24
1.71970E-01 1.30899E-24
1.75276E-01 1.25394E-24
1.78606E-01 1.20169E-24
1.81961E-01 1.15206E-24
1.85340E-01 1.10490E-24
1.88743E-01 1.06007E-24
1.92169E-01 1.01742E-24
1.95619E-01 9.76832E-25
1.99092E-01 9.38193E-25
2.02589E-01 9.01390E-25
2.06107E-01 8.66321E-25
2.09649E-01 8.32889E-25
2.13212E-01 8.01004E-25
2.16797E-01 7.70583E-25
2.20404E-01 7.41547E-25
2.24032E-01 7.13821E-25
2.27680E-01 6.87335E-25
2.31350E-01 6.62026E-25
2.35040E-01 6.37830E-25
2.38751E-01 6.14691E-25
2.42481E-01 5.92555E-25
2.46231E-01 5.71370E-25
2.50000E-01 5.51088E-25
2.53788E-01 5.31664E-25
2.57595E-01 5.13056E-25
2.61421E-01 4.95223E-25
2.65264E-01 4.78127E-25
2.69126E-01 4.61733E-25
2.73005E-01 4.46006E-25
2.76901E-01 4.30915E-25
2.80814E-01 4.16430E-25
2.84744E-01 4.02522E-25
2.88691E-01 3.89164E-25
2.92653E-01 3.76330E-25
2.96632E-01 3.63997E-25
3.00625E-01 3.52142E-25
3.04634E-01 3.40742E-25
3.08658E-01 3.29778E-25
3.12697E-01 3.19229E-25
3.16749E-01 3.09077E-25
3.20816E-01 2.99306E-25
3.24896E-01 2.89897E-25
3.28990E-01 2.80836E-25
3.33097E-01 2.72107E-25
3.37216E-01 2.63696E-25
3.41348E-01 2.55589E-25
3.45492E-01 2.47774E-25
3.49647E-01 2.40238E-25
3.53814E-01 2.32970E-25
3.57992E-01 2.25958E-25
3.62181E-01 2.19192E-25
3.66381E-01 2.12662E-25
3.70590E-01 2.06358E-25
3.74810E-01 2.00271E-25
3.79039E-01 1.94392E-25
3.83277E-01 1.88713E-25
3.87524E-01 1.83226E-25
3.91780E-01 1.77924E-25
3.96044E-01 1.72798E-25
4.00316E-01 1.67843E-25
4.04596E-01 1.63051E-25
4.08882E-01 1.58417E-25
4.13176E-01 1.53934E-25
4.17476E-01 1.49597E-25
4.21783E-01 1.45399E-25
4.26095E-01 1.41337E-25
4.30413E-01 1.37404E-25
4.34737E-01 1.33595E-25
4.39065E-01 1.29908E-25
4.43398E-01 1.26335E-25
4.47736E-01 1.22875E-25
4.52077E-01 1.19522E-25
4.56422E-01 1.16272E-25
4.60770E-01 1.13123E-25
4.65122E-01 1.10070E-25
4.69476E-01 1.07110E-25
4.73832E-01 1.04239E-25
4.78190E-01 1.01455E-25
4.82550E-01 9.87538E-26
4.86912E-01 9.61335E-26
4.91274E-01 9.35910E-26
4.95637E-01 9.11234E-26
5.00000E-01 8.87284E-26
5.04363E-01 8.64034E-26
5.08726E-01 8.41460E-26
5.13088E-01 8.19539E-26
5.17450E-01 7.98250E-26
5.21810E-01 7.77571E-26
5.26168E-01 7.57483E-26
5.30524E-01 7.37965E-26
5.34878E-01 7.18999E-26
5.39230E-01 7.00567E-26
5.43578E-01 6.82651E-26
5.47923E-01 6.65235E-26
5.52264E-01 6.48303E-26
5.56602E-01 6.31838E-26
5.60935E-01 6.15827E-26
5.65263E-01 6.00255E-26
5.69587E-01 5.85107E-26
5.73905E-01 5.70371E-26
5.78217E-01 5.56033E-26
5.82524E-01 5.42082E-26
5.86824E-01 5.28505E-26
5.91118E-01 5.15290E-26
5.95404E-01 5.02427E-26
5.99684E-01 4.89905E-26
6.03956E-01 4.77713E-26
6.08220E-01 4.65842E-26
6.12476E-01 4.54281E-26
6.16723E-01 4.43022E-26
6.20961E-01 4.32055E-26
6.25190E-01 4.21371E-26
6.29410E-01 4.10963E-26
6.33619E-01 4.00822E-26
6.37819E-01 3.90941E-26
6.42008E-01 3.81311E-26
6.46186E-01 3.71926E-26
6.50353E-01 3.62778E-26
6.54508E-01 3.53860E-26
6.58652E-01 3.45167E-26
6.62784E-01 3.36691E-26
6.66903E-01 3.28426E-26
6.71010E-01 3.20366E-26
6.75104E-01 3.12507E-26
6.79184E-01 3.04841E-26
6.83251E-01 2.97363E-26
6.87303E-01 2.90069E-26
6.91342E-01 2.82954E-26
6.95366E-01 2.76011E-26
6.99375E-01 2.69237E-26
7.03368E-01 2.62627E-26
7.07347E-01 2.56176E-26
7.11309E-01 2.49881E-26
7.15256E-01 2.43737E-26
7.19186E-01 2.37739E-26
7.23099E-01 2.31884E-26
7.26995E-01 2.26169E-26
7.30874E-01 2.20589E-26
7.34736E-01 2.15141E-26
7.38579E-01 2.09822E-26
7.42405E-01 2.04627E-26
7.46212E-01 1.99554E-26
7.50000E-01 1.94600E-26
7.53769E-01 1.89762E-26
7.57519E-01 1.85036E-26
7.61249E-01 1.80420E-26
7.64960E-01 1.75911E-26
7.68650E-01 1.71506E-26
7.72320E-01 1.67203E-26
7.75968E-01 1.62998E-26
7.79596E-01 1.58890E-26
7.83203E-01 1.54877E-26
7.86788E-01 1.50955E-26
7.90351E-01 1.47123E-26
7.93893E-01 1.43378E-26
7.97411E-01 1.39718E-26
8.00908E-01 1.36141E-26
8.04381E-01 1.32645E-26
8.07831E-01 1.29229E-26
8.11257E-01 1.25890E-26
8.14660E-01 1.22626E-26
8.18039E-01 1.19435E-26
8.21394E-01 1.16317E-26
8.24724E-01 1.13269E-26
8.28030E-01 1.10289E-26
8.31310E-01 1.07376E-26
8.34565E-01 1.04528E-26
8.37795E-01 1.01744E-26
8.40999E-01 9.90229E-27
8.44177E-01 9.63624E-27
8.47329E-01 9.37614E-27
8.50455E-01 9.12186E-27
8.53553E-01 8.87326E-27
8.56625E-01 8.63022E-27
8.59670E-01 8.39262E-27
8.62687E-01 8.16033E-27
8.65677E-01 7.93324E-27
8.68639E-01 7.71123E-27
8.71572E-01 7.49420E-27
8.74478E-01 7.28202E-27
8.77355E-01 7.07461E-27
8.80203E-01 6.87185E-27
8.83022E-01 6.67365E-27
8.85812E-01 6.47991E-27
8.88573E-01 6.29054E-27
8.91304E-01 6.10544E-27
8.94005E-01 5.92453E-27
8.96677E-01 5.74772E-27
8.99318E-01 5.57493E-27
9.01928E-01 5.40607E-27
9.04508E-01 5.24106E-27
9.07058E-01 5.07983E-27
9.09576E-01 4.92231E-27
9.12063E-01 4.76841E-27
9.14519E-01 4.61807E-27
9.16943E-01 4.47121E-27
9.19335E-01 4.32778E-27
9.21696E-01 4.18770E-27
9.24024E-01 4.05092E-27
9.26320E-01 3.91736E-27
9.28584E-01 3.78698E-27
9.30815E-01 3.65970E-27
9.33013E-01 3.53548E-27
9.35178E-01 3.41425E-27
9.37310E-01 3.29597E-27
9.39409E-01 3.18058E-27
9.41474E-01 3.06804E-27
9.43505E-01 2.95828E-27
9.45503E-01 2.85127E-27
9.47467E-01 2.74695E-27
9.49397E-01 2.64529E-27
9.51293E-01 2.54623E-27
9.53154E-01 2.44974E-27
9.54981E-01 2.35578E-27
9.56773E-01 2.26429E-27
9.58530E-01 2.17525E-27
9.60252E-01 2.08862E-27
9.61940E-01 2.00435E-27
9.63592E-01 1.92242E-27
9.65209E-01 1.84279E-27
9.66790E-01 1.76542E-27
9.68336E-01 1.69029E-27
9.69846E-01 1.61735E-27
9.71321E-01 1.54659E-27
9.72759E-01 1.47797E-27
9.74162E-01 1.41147E-27
9.75528E-01 1.34705E-27
9.76858E-01 1.28468E-27
9.78152E-01 1.22436E-27
9.79410E-01 1.16604E-27
9.80631E-01 1.10970E-27
9.81815E-01 1.05533E-27
9.82963E-01 1.00289E-27
9.84074E-01 9.52378E-28
9.85148E-01 9.03759E-28
9.86185E-01 8.57018E-28
9.87185E-01 8.12136E-28
9.88148E-01 7.69094E-28
9.89074E-01 7.27876E-28
9.89962E-01 6.88464E-28
9.90814E-01 6.50843E-28
9.91627E-01 6.14998E-28
9.92404E-01 5.80914E-28
9.93143E-01 5.48578E-28
9.93844E-01 5.17976E-28
9.94508E-01 4.89097E-28
9.95134E-01 4.61929E-28
9.95722E-01 4.36461E-28
9.96273E-01 4.12683E-28
9.96786E-01 3.90586E-28
9.97261E-01 3.70160E-28
9.97698E-01 3.51398E-28
9.98097E-01 3.34293E-28
9.98459E-01 3.18836E-28
9.98782E-01 3.05023E-28
9.99067E-01 2.92848E-28
9.99315E-01 2.82306E-28
9.99524E-01 2.73393E-28
9.99695E-01 2.66106E-28
9.99829E-01 2.60440E-28
9.99924E-01 2.56395E-28
9.99981E-01 2.53969E-28
1.00000E+00 2.53160E-28
