 #
 # Subroutine ELSEPA. Elastic scattering of electrons and positrons
 #                    by neutral atoms and positive ions
 #
 # Projectile: positron
 # Kinetic energy = 3.00000E+08 eV = 1.10248E+07 a.u.
 #
 # WARNING: High-energy factorization with free-atom DF screening.
 #          Absorption, polarization and exchange corrections are
 #          switched off.
 #          Phase shifts are calculated for the bare nucleus.
 #          Scattering amplitudes are not evaluated.
 #
 # Element: Cr,  Z =  24,  atomic weight = 5.19961E+01 g/mol
 #
 # Nuclear model: Fermi distribution
 #                Average radius = 3.99369E-13 cm
 #                Skin thickness = 5.46000E-14 cm
 #
 # Number of electrons = 24
 #
 # Total elastic cross section = 1.79053E-18 cm**2 = 6.39409E-02 a0**2
 # 1st transport cross section = 1.32634E-26 cm**2 = 4.73644E-10 a0**2
 # 2nd transport cross section = 3.97336E-26 cm**2 = 1.41891E-09 a0**2
 #
 #
 # Differential cross section:                       MU=(1-COS(THETA))/2
 #
 #  THETA        MU          DCS          DCS        Sherman      error
 #  (deg)                 (cm**2/sr)   (a0**2/sr)    function
 #----------------------------------------------------------------------
0.00000E+00 1.66945E-09
7.61557E-13 1.61935E-09
1.18994E-12 1.59232E-09
1.71346E-12 1.56034E-09
2.33225E-12 1.52396E-09
3.04617E-12 1.48379E-09
3.85530E-12 1.44050E-09
4.75964E-12 1.39467E-09
5.75917E-12 1.34699E-09
6.85391E-12 1.29797E-09
8.04379E-12 1.24826E-09
9.32893E-12 1.19828E-09
1.07092E-11 1.14853E-09
1.21847E-11 1.09937E-09
1.37554E-11 1.05113E-09
1.54213E-11 1.00409E-09
1.71823E-11 9.58444E-10
1.90386E-11 9.14378E-10
2.09900E-11 8.71967E-10
2.30367E-11 8.31341E-10
2.51785E-11 7.92484E-10
2.74156E-11 7.55464E-10
2.97478E-11 7.20227E-10
3.21752E-11 6.86771E-10
3.46979E-11 6.55043E-10
3.73157E-11 6.24971E-10
4.00286E-11 5.96535E-10
4.28368E-11 5.69588E-10
4.57402E-11 5.44171E-10
4.87388E-11 5.20055E-10
5.18325E-11 4.97331E-10
5.50215E-11 4.75776E-10
5.83057E-11 4.55440E-10
6.16850E-11 4.36168E-10
6.51595E-11 4.17940E-10
6.87293E-11 4.00688E-10
7.23943E-11 3.84313E-10
7.61544E-11 3.68841E-10
1.18991E-10 2.50263E-10
1.71347E-10 1.75668E-10
2.33223E-10 1.26073E-10
3.04617E-10 9.05891E-11
3.85531E-10 6.76081E-11
4.75965E-10 5.01361E-11
5.75917E-10 3.82132E-11
6.85389E-10 2.89948E-11
8.04380E-10 2.24829E-11
9.32891E-10 1.75286E-11
1.07092E-09 1.38743E-11
1.21847E-09 1.10917E-11
1.37554E-09 8.97337E-12
1.54213E-09 7.34016E-12
1.71823E-09 6.06495E-12
1.90386E-09 5.06368E-12
2.09900E-09 4.26419E-12
2.30367E-09 3.62364E-12
2.51785E-09 3.10196E-12
2.74156E-09 2.67544E-12
2.97478E-09 2.32202E-12
3.21752E-09 2.02750E-12
3.46978E-09 1.77982E-12
3.73156E-09 1.56977E-12
4.00286E-09 1.39105E-12
4.28368E-09 1.23701E-12
4.57402E-09 1.10479E-12
4.87388E-09 9.89139E-13
5.18326E-09 8.88987E-13
5.50215E-09 8.00691E-13
5.83057E-09 7.23407E-13
6.16850E-09 6.54977E-13
6.51596E-09 5.94426E-13
6.87293E-09 5.40613E-13
7.23942E-09 4.92576E-13
7.61544E-09 4.49800E-13
1.18991E-08 1.97583E-13
1.71347E-08 9.85551E-14
2.33223E-08 5.42091E-14
3.04617E-08 3.21982E-14
3.85531E-08 2.03244E-14
4.75965E-08 1.34693E-14
5.75917E-08 9.28500E-15
6.85389E-08 6.61014E-15
8.04380E-08 4.83521E-15
9.32891E-08 3.61874E-15
1.07092E-07 2.76198E-15
1.21847E-07 2.14455E-15
1.37554E-07 1.69019E-15
1.54213E-07 1.34994E-15
1.71823E-07 1.09108E-15
1.90386E-07 8.91248E-16
2.09900E-07 7.35088E-16
2.30367E-07 6.11620E-16
2.51785E-07 5.12961E-16
2.74156E-07 4.33390E-16
2.97478E-07 3.68634E-16
3.21752E-07 3.15511E-16
3.46978E-07 2.71609E-16
3.73156E-07 2.35068E-16
4.00286E-07 2.04462E-16
4.28368E-07 1.78672E-16
4.57402E-07 1.56816E-16
4.87388E-07 1.38199E-16
5.18325E-07 1.22260E-16
5.50215E-07 1.08551E-16
5.83057E-07 9.67090E-17
6.16850E-07 8.64366E-17
6.51596E-07 7.74913E-17
6.87293E-07 6.96728E-17
7.23942E-07 6.28148E-17
7.61543E-07 5.67797E-17
1.18991E-06 2.32938E-17
1.71347E-06 1.12410E-17
2.33223E-06 6.06938E-18
3.04617E-06 3.55820E-18
3.85531E-06 2.22145E-18
4.75964E-06 1.45747E-18
5.75916E-06 9.95432E-19
6.85388E-06 7.02799E-19
8.04378E-06 5.10213E-19
9.32888E-06 3.79296E-19
1.07092E-05 2.87798E-19
1.21846E-05 2.22297E-19
1.37553E-05 1.74412E-19
1.54212E-05 1.38753E-19
1.71822E-05 1.11757E-19
1.90385E-05 9.10123E-20
2.09899E-05 7.48748E-20
2.30365E-05 6.21589E-20
2.51783E-05 5.20290E-20
2.74153E-05 4.38792E-20
2.97475E-05 3.72632E-20
3.21749E-05 3.18481E-20
3.46974E-05 2.73820E-20
3.73152E-05 2.36724E-20
4.00281E-05 2.05705E-20
4.28362E-05 1.79605E-20
4.57395E-05 1.57515E-20
4.87380E-05 1.38717E-20
5.18317E-05 1.22639E-20
5.50205E-05 1.08822E-20
5.83045E-05 9.68968E-21
6.16838E-05 8.65605E-21
6.51582E-05 7.75666E-21
6.87277E-05 6.97112E-21
7.23925E-05 6.28257E-21
7.61524E-05 5.66901E-21
9.21439E-05 3.86889E-21
1.09658E-04 2.72929E-21
1.28695E-04 1.97975E-21
1.49255E-04 1.47042E-21
1.71338E-04 1.11467E-21
1.94942E-04 8.60122E-22
2.20070E-04 6.74138E-22
2.46720E-04 5.35718E-22
2.74892E-04 4.30988E-22
3.04586E-04 3.50584E-22
3.35803E-04 2.88031E-22
3.68542E-04 2.38784E-22
4.02802E-04 1.99591E-22
4.38585E-04 1.68087E-22
4.75889E-04 1.42536E-22
5.14715E-04 1.21638E-22
5.55063E-04 1.04414E-22
5.96931E-04 9.01171E-23
6.40321E-04 7.81713E-23
6.85233E-04 6.81284E-23
7.31665E-04 5.96368E-23
7.79618E-04 5.24183E-23
8.29092E-04 4.62512E-23
8.80086E-04 4.09574E-23
9.32601E-04 3.63931E-23
9.86636E-04 3.24412E-23
1.04219E-03 2.90062E-23
1.09927E-03 2.60092E-23
1.15786E-03 2.33851E-23
1.21797E-03 2.10799E-23
1.27961E-03 1.90484E-23
1.34276E-03 1.72526E-23
1.40743E-03 1.56606E-23
1.47362E-03 1.42454E-23
1.54133E-03 1.29842E-23
1.61056E-03 1.18572E-23
1.68131E-03 1.08480E-23
1.75357E-03 9.94196E-24
1.82735E-03 9.12691E-24
1.90265E-03 8.39213E-24
1.97947E-03 7.72839E-24
2.05780E-03 7.12766E-24
2.13765E-03 6.58295E-24
2.21902E-03 6.08816E-24
2.30190E-03 5.63794E-24
2.38630E-03 5.22760E-24
2.47222E-03 4.85301E-24
2.55965E-03 4.51053E-24
2.64859E-03 4.19696E-24
2.73905E-03 3.90943E-24
2.83103E-03 3.64542E-24
2.92452E-03 3.40268E-24
3.01952E-03 3.17922E-24
3.11604E-03 2.97325E-24
3.21407E-03 2.78316E-24
3.31362E-03 2.60753E-24
3.41468E-03 2.44508E-24
3.51725E-03 2.29465E-24
3.62133E-03 2.15520E-24
3.72692E-03 2.02581E-24
3.83403E-03 1.90562E-24
3.94265E-03 1.79387E-24
4.05278E-03 1.68987E-24
4.16442E-03 1.59300E-24
4.27757E-03 1.50268E-24
4.39223E-03 1.41841E-24
4.50840E-03 1.33970E-24
4.62608E-03 1.26614E-24
4.74527E-03 1.19733E-24
4.86597E-03 1.13291E-24
4.98817E-03 1.07256E-24
5.11188E-03 1.01598E-24
5.23711E-03 9.62901E-25
5.36383E-03 9.13066E-25
5.49207E-03 8.66247E-25
5.62181E-03 8.22232E-25
5.75306E-03 7.80826E-25
5.88581E-03 7.41851E-25
6.02007E-03 7.05141E-25
6.15583E-03 6.70544E-25
6.29310E-03 6.37919E-25
6.43187E-03 6.07136E-25
6.57214E-03 5.78076E-25
6.71392E-03 5.50626E-25
6.85720E-03 5.24684E-25
7.00198E-03 5.00154E-25
7.14827E-03 4.76948E-25
7.29605E-03 4.54983E-25
7.44534E-03 4.34183E-25
7.59612E-03 4.14476E-25
7.97965E-03 3.69573E-25
8.37255E-03 3.30187E-25
8.77480E-03 2.95552E-25
9.18641E-03 2.65016E-25
9.60736E-03 2.38032E-25
1.00376E-02 2.14132E-25
1.04773E-02 1.92918E-25
1.09262E-02 1.74051E-25
1.13844E-02 1.57238E-25
1.18520E-02 1.42229E-25
1.23288E-02 1.28806E-25
1.28150E-02 1.16782E-25
1.33104E-02 1.05993E-25
1.38150E-02 9.62987E-26
1.43290E-02 8.75750E-26
1.48521E-02 7.97140E-26
1.53845E-02 7.26211E-26
1.59262E-02 6.62132E-26
1.64770E-02 6.04173E-26
1.70371E-02 5.51689E-26
1.76063E-02 5.04112E-26
1.81848E-02 4.60938E-26
1.87724E-02 4.21720E-26
1.93692E-02 3.86064E-26
1.99751E-02 3.53615E-26
2.05901E-02 3.24061E-26
2.12143E-02 2.97121E-26
2.18476E-02 2.72544E-26
2.24900E-02 2.50107E-26
2.31415E-02 2.29609E-26
2.38021E-02 2.10869E-26
2.44717E-02 1.93726E-26
2.51504E-02 1.78035E-26
2.58382E-02 1.63663E-26
2.65349E-02 1.50493E-26
2.72407E-02 1.38418E-26
2.79555E-02 1.27341E-26
2.86793E-02 1.17176E-26
2.94120E-02 1.07843E-26
3.01537E-02 9.92697E-27
3.09043E-02 9.13921E-27
3.16639E-02 8.41509E-27
3.24324E-02 7.74922E-27
3.32098E-02 7.13673E-27
3.39961E-02 6.57316E-27
3.47912E-02 6.05447E-27
3.55952E-02 5.57695E-27
3.64081E-02 5.13723E-27
3.72297E-02 4.73224E-27
3.80602E-02 4.35914E-27
3.88995E-02 4.01538E-27
3.97476E-02 3.69858E-27
4.06044E-02 3.40660E-27
4.14700E-02 3.13746E-27
4.23443E-02 2.88933E-27
4.32273E-02 2.66057E-27
4.41190E-02 2.44963E-27
4.50194E-02 2.25513E-27
4.59284E-02 2.07577E-27
4.68461E-02 1.91037E-27
4.87074E-02 1.61719E-27
5.06030E-02 1.36788E-27
5.25328E-02 1.15592E-27
5.44967E-02 9.75770E-28
5.64946E-02 8.22720E-28
5.85262E-02 6.92768E-28
6.05914E-02 5.82503E-28
6.26901E-02 4.89020E-28
6.48222E-02 4.09840E-28
6.69873E-02 3.42846E-28
6.91854E-02 2.86233E-28
7.14163E-02 2.38457E-28
7.36799E-02 1.98200E-28
7.59760E-02 1.64335E-28
7.83043E-02 1.35900E-28
8.06647E-02 1.12073E-28
8.30571E-02 9.21504E-29
8.54812E-02 7.55333E-29
8.79369E-02 6.17096E-29
9.04240E-02 5.02431E-29
9.29422E-02 4.07617E-29
9.54915E-02 3.29488E-29
9.80716E-02 2.65352E-29
1.00682E-01 2.12920E-29
1.03323E-01 1.70253E-29
1.05995E-01 1.35708E-29
1.08696E-01 1.07894E-29
1.11427E-01 8.56397E-30
1.14188E-01 6.79577E-30
1.16978E-01 5.40186E-30
1.19797E-01 4.31275E-30
1.22645E-01 3.47042E-30
1.25522E-01 2.82652E-30
1.28428E-01 2.34096E-30
1.31361E-01 1.98063E-30
1.34323E-01 1.71828E-30
1.37313E-01 1.53164E-30
1.40330E-01 1.40256E-30
1.43375E-01 1.31643E-30
1.46447E-01 1.26151E-30
1.49545E-01 1.22848E-30
1.52671E-01 1.21005E-30
1.55823E-01 1.20055E-30
1.59001E-01 1.19568E-30
1.62205E-01 1.19224E-30
1.65435E-01 1.18791E-30
1.68690E-01 1.18108E-30
1.71970E-01 1.17073E-30
1.75276E-01 1.15627E-30
1.78606E-01 1.13743E-30
1.81961E-01 1.11424E-30
1.85340E-01 1.08688E-30
1.88743E-01 1.05569E-30
1.92169E-01 1.02109E-30
1.95619E-01 9.83568E-31
1.99092E-01 9.43623E-31
2.02589E-01 9.01767E-31
2.06107E-01 8.58501E-31
2.09649E-01 8.14304E-31
2.13212E-01 7.69622E-31
2.16797E-01 7.24865E-31
2.20404E-01 6.80402E-31
2.24032E-01 6.36561E-31
2.27680E-01 5.93627E-31
2.31350E-01 5.51842E-31
2.35040E-01 5.11410E-31
2.38751E-01 4.72497E-31
2.42481E-01 4.35232E-31
2.46231E-01 3.99714E-31
2.50000E-01 3.66012E-31
2.53788E-01 3.34167E-31
2.57595E-01 3.04199E-31
2.61421E-01 2.76107E-31
2.65264E-01 2.49872E-31
2.69126E-01 2.25459E-31
2.73005E-01 2.02823E-31
2.76901E-01 1.81906E-31
2.80814E-01 1.62644E-31
2.84744E-01 1.44965E-31
2.88691E-01 1.28792E-31
2.92653E-01 1.14047E-31
2.96632E-01 1.00647E-31
3.00625E-01 8.85117E-32
3.04634E-01 7.75572E-32
3.08658E-01 6.77030E-32
3.12697E-01 5.88693E-32
3.16749E-01 5.09788E-32
3.20816E-01 4.39568E-32
3.24896E-01 3.77316E-32
3.28990E-01 3.22347E-32
3.33097E-01 2.74012E-32
3.37216E-01 2.31699E-32
3.41348E-01 1.94830E-32
3.45492E-01 1.62867E-32
3.49647E-01 1.35307E-32
3.53814E-01 1.11683E-32
3.57992E-01 9.15648E-33
3.62181E-01 7.45552E-33
3.66381E-01 6.02901E-33
3.70590E-01 4.84369E-33
3.74810E-01 3.86926E-33
3.79039E-01 3.07827E-33
3.83277E-01 2.44591E-33
3.87524E-01 1.94984E-33
3.91780E-01 1.57006E-33
3.96044E-01 1.28870E-33
4.00316E-01 1.08990E-33
4.04596E-01 9.59599E-34
4.08882E-01 8.85445E-34
4.13176E-01 8.56607E-34
4.17476E-01 8.63650E-34
4.21783E-01 8.98407E-34
4.26095E-01 9.53850E-34
4.30413E-01 1.02398E-33
4.34737E-01 1.10373E-33
4.39065E-01 1.18883E-33
4.43398E-01 1.27577E-33
4.47736E-01 1.36164E-33
4.52077E-01 1.44415E-33
4.56422E-01 1.52146E-33
4.60770E-01 1.59218E-33
4.65122E-01 1.65530E-33
4.69476E-01 1.71010E-33
4.73832E-01 1.75617E-33
4.78190E-01 1.79329E-33
4.82550E-01 1.82145E-33
4.86912E-01 1.84079E-33
4.91274E-01 1.85160E-33
4.95637E-01 1.85422E-33
5.00000E-01 1.84912E-33
5.04363E-01 1.83680E-33
5.08726E-01 1.81781E-33
5.13088E-01 1.79271E-33
5.17450E-01 1.76210E-33
5.21810E-01 1.72655E-33
5.26168E-01 1.68666E-33
5.30524E-01 1.64299E-33
5.34878E-01 1.59609E-33
5.39230E-01 1.54650E-33
5.43578E-01 1.49470E-33
5.47923E-01 1.44117E-33
5.52264E-01 1.38635E-33
5.56602E-01 1.33065E-33
5.60935E-01 1.27444E-33
5.65263E-01 1.21807E-33
5.69587E-01 1.16185E-33
5.73905E-01 1.10604E-33
5.78217E-01 1.05091E-33
5.82524E-01 9.96677E-34
5.86824E-01 9.43522E-34
5.91118E-01 8.91615E-34
5.95404E-01 8.41096E-34
5.99684E-01 7.92082E-34
6.03956E-01 7.44669E-34
6.08220E-01 6.98932E-34
6.12476E-01 6.54930E-34
6.16723E-01 6.12704E-34
6.20961E-01 5.72279E-34
6.25190E-01 5.33670E-34
6.29410E-01 4.96875E-34
6.33619E-01 4.61886E-34
6.37819E-01 4.28684E-34
6.42008E-01 3.97241E-34
6.46186E-01 3.67521E-34
6.50353E-01 3.39485E-34
6.54508E-01 3.13086E-34
6.58652E-01 2.88277E-34
6.62784E-01 2.65001E-34
6.66903E-01 2.43203E-34
6.71010E-01 2.22826E-34
6.75104E-01 2.03811E-34
6.79184E-01 1.86097E-34
6.83251E-01 1.69623E-34
6.87303E-01 1.54331E-34
6.91342E-01 1.40157E-34
6.95366E-01 1.27046E-34
6.99375E-01 1.14937E-34
7.03368E-01 1.03773E-34
7.07347E-01 9.35010E-35
7.11309E-01 8.40648E-35
7.15256E-01 7.54136E-35
7.19186E-01 6.74962E-35
7.23099E-01 6.02647E-35
7.26995E-01 5.36730E-35
7.30874E-01 4.76771E-35
7.34736E-01 4.22340E-35
7.38579E-01 3.73041E-35
7.42405E-01 3.28491E-35
7.46212E-01 2.88332E-35
7.50000E-01 2.52220E-35
7.53769E-01 2.19838E-35
7.57519E-01 1.90877E-35
7.61249E-01 1.65059E-35
7.64960E-01 1.42116E-35
7.68650E-01 1.21796E-35
7.72320E-01 1.03870E-35
7.75968E-01 8.81210E-36
7.79596E-01 7.43492E-36
7.83203E-01 6.23597E-36
7.86788E-01 5.19868E-36
7.90351E-01 4.30697E-36
7.93893E-01 3.54551E-36
7.97411E-01 2.90109E-36
8.00908E-01 2.36088E-36
8.04381E-01 1.91348E-36
8.07831E-01 1.54832E-36
8.11257E-01 1.25569E-36
8.14660E-01 1.02683E-36
8.18039E-01 8.53616E-37
8.21394E-01 7.28938E-37
8.24724E-01 6.46068E-37
8.28030E-01 5.99038E-37
8.31310E-01 5.82385E-37
8.34565E-01 5.91456E-37
8.37795E-01 6.21750E-37
8.40999E-01 6.69540E-37
8.44177E-01 7.31236E-37
8.47329E-01 8.03868E-37
8.50455E-01 8.84653E-37
8.53553E-01 9.71282E-37
8.56625E-01 1.06166E-36
8.59670E-01 1.15397E-36
8.62687E-01 1.24662E-36
8.65677E-01 1.33831E-36
8.68639E-01 1.42790E-36
8.71572E-01 1.51440E-36
8.74478E-01 1.59703E-36
8.77355E-01 1.67516E-36
8.80203E-01 1.74825E-36
8.83022E-01 1.81587E-36
8.85812E-01 1.87777E-36
8.88573E-01 1.93370E-36
8.91304E-01 1.98355E-36
8.94005E-01 2.02724E-36
8.96677E-01 2.06485E-36
8.99318E-01 2.09629E-36
9.01928E-01 2.12178E-36
9.04508E-01 2.14141E-36
9.07058E-01 2.15537E-36
9.09576E-01 2.16383E-36
9.12063E-01 2.16697E-36
9.14519E-01 2.16511E-36
9.16943E-01 2.15843E-36
9.19335E-01 2.14722E-36
9.21696E-01 2.13172E-36
9.24024E-01 2.11222E-36
9.26320E-01 2.08897E-36
9.28584E-01 2.06220E-36
9.30815E-01 2.03217E-36
9.33013E-01 1.99930E-36
9.35178E-01 1.96365E-36
9.37310E-01 1.92556E-36
9.39409E-01 1.88528E-36
9.41474E-01 1.84296E-36
9.43505E-01 1.79895E-36
9.45503E-01 1.75334E-36
9.47467E-01 1.70640E-36
9.49397E-01 1.65843E-36
9.51293E-01 1.60945E-36
9.53154E-01 1.55976E-36
9.54981E-01 1.50940E-36
9.56773E-01 1.45865E-36
9.58530E-01 1.40755E-36
9.60252E-01 1.35639E-36
9.61940E-01 1.30528E-36
9.63592E-01 1.25426E-36
9.65209E-01 1.20342E-36
9.66790E-01 1.15296E-36
9.68336E-01 1.10296E-36
9.69846E-01 1.05352E-36
9.71321E-01 1.00464E-36
9.72759E-01 9.56521E-37
9.74162E-01 9.09233E-37
9.75528E-01 8.62686E-37
9.76858E-01 8.17136E-37
9.78152E-01 7.72510E-37
9.79410E-01 7.28880E-37
9.80631E-01 6.86353E-37
9.81815E-01 6.44913E-37
9.82963E-01 6.04596E-37
9.84074E-01 5.65482E-37
9.85148E-01 5.27582E-37
9.86185E-01 4.90943E-37
9.87185E-01 4.55425E-37
9.88148E-01 4.21265E-37
9.89074E-01 3.88351E-37
9.89962E-01 3.56786E-37
9.90814E-01 3.26467E-37
9.91627E-01 2.97541E-37
9.92404E-01 2.69852E-37
9.93143E-01 2.43549E-37
9.93844E-01 2.18586E-37
9.94508E-01 1.94978E-37
9.95134E-01 1.72688E-37
9.95722E-01 1.51790E-37
9.96273E-01 1.32218E-37
9.96786E-01 1.14013E-37
9.97261E-01 9.71372E-38
9.97698E-01 8.16248E-38
9.98097E-01 6.74664E-38
9.98459E-01 5.46529E-38
9.98782E-01 4.31923E-38
9.99067E-01 3.31100E-38
9.99315E-01 2.43456E-38
9.99524E-01 1.69440E-38
9.99695E-01 1.08736E-38
9.99829E-01 6.17443E-39
9.99924E-01 2.80070E-39
9.99981E-01 7.81179E-40
1.00000E+00 1.10241E-40
