 #
 # Subroutine ELSEPA. Elastic scattering of electrons and positrons
 #                    by neutral atoms and positive ions
 #
 # Projectile: positron
 # Kinetic energy = 6.00000E+08 eV = 2.20496E+07 a.u.
 #
 # WARNING: High-energy factorization with free-atom DF screening.
 #          Absorption, polarization and exchange corrections are
 #          switched off.
 #          Phase shifts are calculated for the bare nucleus.
 #          Scattering amplitudes are not evaluated.
 #
 # Element: Cr,  Z =  24,  atomic weight = 5.19961E+01 g/mol
 #
 # Nuclear model: Fermi distribution
 #                Average radius = 3.99369E-13 cm
 #                Skin thickness = 5.46000E-14 cm
 #
 # Number of electrons = 24
 #
 # Total elastic cross section = 1.78635E-18 cm**2 = 6.37916E-02 a0**2
 # 1st transport cross section = 3.33064E-27 cm**2 = 1.18939E-10 a0**2
 # 2nd transport cross section = 9.98835E-27 cm**2 = 3.56690E-10 a0**2
 #
 #
 # Differential cross section:                       MU=(1-COS(THETA))/2
 #
 #  THETA        MU          DCS          DCS        Sherman      error
 #  (deg)                 (cm**2/sr)   (a0**2/sr)    function
 #----------------------------------------------------------------------
0.00000E+00 6.66644E-09
7.61557E-13 5.92620E-09
1.18994E-12 5.57077E-09
1.71346E-12 5.18510E-09
2.33225E-12 4.78734E-09
3.04617E-12 4.39266E-09
3.85530E-12 4.01239E-09
4.75964E-12 3.65424E-09
5.75917E-12 3.32269E-09
6.85391E-12 3.01966E-09
8.04379E-12 2.74530E-09
9.32893E-12 2.49842E-09
1.07092E-11 2.27715E-09
1.21847E-11 2.07923E-09
1.37554E-11 1.90228E-09
1.54213E-11 1.74399E-09
1.71823E-11 1.60219E-09
1.90386E-11 1.47490E-09
2.09900E-11 1.36035E-09
2.30367E-11 1.25687E-09
2.51785E-11 1.16320E-09
2.74156E-11 1.07823E-09
2.97478E-11 1.00092E-09
3.21752E-11 9.30415E-10
3.46979E-11 8.65950E-10
3.73157E-11 8.06874E-10
4.00286E-11 7.52618E-10
4.28368E-11 7.02688E-10
4.57402E-11 6.56658E-10
4.87388E-11 6.14128E-10
5.18325E-11 5.74728E-10
5.50215E-11 5.38241E-10
5.83057E-11 5.04410E-10
6.16850E-11 4.73005E-10
6.51595E-11 4.42556E-10
6.87293E-11 4.13195E-10
7.23943E-11 3.86623E-10
7.61544E-11 3.62521E-10
1.18991E-10 2.00694E-10
1.71347E-10 1.16092E-10
2.33223E-10 7.01947E-11
3.04617E-10 4.44219E-11
3.85531E-10 2.93983E-11
4.75965E-10 2.02808E-11
5.75917E-10 1.45133E-11
6.85389E-10 1.07154E-11
8.04380E-10 8.12020E-12
9.32891E-10 6.28696E-12
1.07092E-09 4.95426E-12
1.21847E-09 3.96157E-12
1.37554E-09 3.20688E-12
1.54213E-09 2.62333E-12
1.71823E-09 2.16534E-12
1.90386E-09 1.80165E-12
2.09900E-09 1.50995E-12
2.30367E-09 1.27365E-12
2.51785E-09 1.08088E-12
2.74156E-09 9.22515E-13
2.97478E-09 7.91542E-13
3.21752E-09 6.82567E-13
3.46978E-09 5.91388E-13
3.73156E-09 5.14704E-13
4.00286E-09 4.49891E-13
4.28368E-09 3.94852E-13
4.57402E-09 3.47901E-13
4.87388E-09 3.07669E-13
5.18326E-09 2.73045E-13
5.50215E-09 2.43133E-13
5.83057E-09 2.17193E-13
6.16850E-09 1.94615E-13
6.51596E-09 1.74878E-13
6.87293E-09 1.57575E-13
7.23942E-09 1.42386E-13
7.61544E-09 1.29006E-13
1.18991E-08 5.39671E-14
1.71347E-08 2.64850E-14
2.33223E-08 1.44996E-14
3.04617E-08 8.59293E-15
3.85531E-08 5.40914E-15
4.75965E-08 3.57127E-15
5.75917E-08 2.45083E-15
6.85389E-08 1.73667E-15
8.04380E-08 1.26433E-15
9.32891E-08 9.41990E-16
1.07092E-07 7.16005E-16
1.21847E-07 5.53819E-16
1.37554E-07 4.35015E-16
1.54213E-07 3.46396E-16
1.71823E-07 2.79219E-16
1.90386E-07 2.27551E-16
2.09900E-07 1.87292E-16
2.30367E-07 1.55550E-16
2.51785E-07 1.30253E-16
2.74156E-07 1.09893E-16
2.97478E-07 9.33582E-17
3.21752E-07 7.98183E-17
3.46978E-07 6.86454E-17
3.73156E-07 5.93602E-17
4.00286E-07 5.15926E-17
4.28368E-07 4.50547E-17
4.57402E-07 3.95200E-17
4.87388E-07 3.48095E-17
5.18325E-07 3.07802E-17
5.50215E-07 2.73173E-17
5.83057E-07 2.43278E-17
6.16850E-07 2.17363E-17
6.51596E-07 1.94808E-17
6.87293E-07 1.75103E-17
7.23942E-07 1.57827E-17
7.61543E-07 1.42631E-17
1.18991E-06 5.84291E-18
1.71347E-06 2.81778E-18
2.33223E-06 1.52090E-18
3.04617E-06 8.91460E-19
3.85531E-06 5.56488E-19
4.75964E-06 3.65079E-19
5.75916E-06 2.49330E-19
6.85388E-06 1.76026E-19
8.04378E-06 1.27787E-19
9.32888E-06 9.49955E-20
1.07092E-05 7.20785E-20
1.21846E-05 5.56732E-20
1.37553E-05 4.36803E-20
1.54212E-05 3.47493E-20
1.71822E-05 2.79883E-20
1.90385E-05 2.27928E-20
2.09899E-05 1.87513E-20
2.30365E-05 1.55667E-20
2.51783E-05 1.30298E-20
2.74153E-05 1.09888E-20
2.97475E-05 9.33189E-21
3.21749E-05 7.97575E-21
3.46974E-05 6.85728E-21
3.73152E-05 5.92826E-21
4.00281E-05 5.15144E-21
4.28362E-05 4.49781E-21
4.57395E-05 3.94461E-21
4.87380E-05 3.47385E-21
5.18317E-05 3.07121E-21
5.50205E-05 2.72520E-21
5.83045E-05 2.42655E-21
6.16838E-05 2.16770E-21
6.51582E-05 1.94247E-21
6.87277E-05 1.74575E-21
7.23925E-05 1.57332E-21
7.61524E-05 1.41028E-21
9.21439E-05 9.60881E-22
1.09658E-04 6.76608E-22
1.28695E-04 4.89796E-22
1.49255E-04 3.62981E-22
1.71338E-04 2.74497E-22
1.94942E-04 2.11259E-22
2.20070E-04 1.65114E-22
2.46720E-04 1.30818E-22
2.74892E-04 1.04907E-22
3.04586E-04 8.50462E-23
3.35803E-04 6.96209E-23
3.68542E-04 5.74988E-23
4.02802E-04 4.78695E-23
4.38585E-04 4.01452E-23
4.75889E-04 3.38935E-23
5.14715E-04 2.87917E-23
5.55063E-04 2.45969E-23
5.96931E-04 2.11234E-23
6.40321E-04 1.82286E-23
6.85233E-04 1.58015E-23
7.31665E-04 1.37549E-23
7.79618E-04 1.20204E-23
8.29092E-04 1.05429E-23
8.80086E-04 9.27866E-24
9.32601E-04 8.19222E-24
9.86636E-04 7.25476E-24
1.04219E-03 6.44276E-24
1.09927E-03 5.73689E-24
1.15786E-03 5.12120E-24
1.21797E-03 4.58242E-24
1.27961E-03 4.10952E-24
1.34276E-03 3.69323E-24
1.40743E-03 3.32577E-24
1.47362E-03 3.00057E-24
1.54133E-03 2.71205E-24
1.61056E-03 2.45547E-24
1.68131E-03 2.22679E-24
1.75357E-03 2.02252E-24
1.82735E-03 1.83970E-24
1.90265E-03 1.67575E-24
1.97947E-03 1.52844E-24
2.05780E-03 1.39586E-24
2.13765E-03 1.27632E-24
2.21902E-03 1.16837E-24
2.30190E-03 1.07073E-24
2.38630E-03 9.82286E-25
2.47222E-03 9.02051E-25
2.55965E-03 8.29166E-25
2.64859E-03 7.62869E-25
2.73905E-03 7.02489E-25
2.83103E-03 6.47429E-25
2.92452E-03 5.97164E-25
3.01952E-03 5.51222E-25
3.11604E-03 5.09188E-25
3.21407E-03 4.70688E-25
3.31362E-03 4.35391E-25
3.41468E-03 4.02998E-25
3.51725E-03 3.73243E-25
3.62133E-03 3.45888E-25
3.72692E-03 3.20716E-25
3.83403E-03 2.97535E-25
3.94265E-03 2.76170E-25
4.05278E-03 2.56464E-25
4.16442E-03 2.38275E-25
4.27757E-03 2.21474E-25
4.39223E-03 2.05945E-25
4.50840E-03 1.91582E-25
4.62608E-03 1.78289E-25
4.74527E-03 1.65979E-25
4.86597E-03 1.54572E-25
4.98817E-03 1.43997E-25
5.11188E-03 1.34188E-25
5.23711E-03 1.25083E-25
5.36383E-03 1.16630E-25
5.49207E-03 1.08776E-25
5.62181E-03 1.01477E-25
5.75306E-03 9.46900E-26
5.88581E-03 8.83766E-26
6.02007E-03 8.25013E-26
6.15583E-03 7.70317E-26
6.29310E-03 7.19377E-26
6.43187E-03 6.71921E-26
6.57214E-03 6.27693E-26
6.71392E-03 5.86462E-26
6.85720E-03 5.48012E-26
7.00198E-03 5.12146E-26
7.14827E-03 4.78679E-26
7.29605E-03 4.47444E-26
7.44534E-03 4.18284E-26
7.59612E-03 3.91054E-26
7.97965E-03 3.30574E-26
8.37255E-03 2.79520E-26
8.77480E-03 2.36375E-26
9.18641E-03 1.99880E-26
9.60736E-03 1.68987E-26
1.00376E-02 1.42821E-26
1.04773E-02 1.20649E-26
1.09262E-02 1.01856E-26
1.13844E-02 8.59247E-27
1.18520E-02 7.24205E-27
1.23288E-02 6.09753E-27
1.28150E-02 5.12784E-27
1.33104E-02 4.30665E-27
1.38150E-02 3.61164E-27
1.43290E-02 3.02388E-27
1.48521E-02 2.52727E-27
1.53845E-02 2.10812E-27
1.59262E-02 1.75478E-27
1.64770E-02 1.45734E-27
1.70371E-02 1.20734E-27
1.76063E-02 9.97586E-28
1.81848E-02 8.21934E-28
1.87724E-02 6.75157E-28
1.93692E-02 5.52796E-28
1.99751E-02 4.51055E-28
2.05901E-02 3.66700E-28
2.12143E-02 2.96978E-28
2.18476E-02 2.39550E-28
2.24900E-02 1.92426E-28
2.31415E-02 1.53919E-28
2.38021E-02 1.22598E-28
2.44717E-02 9.72518E-29
2.51504E-02 7.68567E-29
2.58382E-02 6.05493E-29
2.65349E-02 4.76027E-29
2.72407E-02 3.74064E-29
2.79555E-02 2.94492E-29
2.86793E-02 2.33039E-29
2.94120E-02 1.86149E-29
3.01537E-02 1.50875E-29
3.09043E-02 1.24780E-29
3.16639E-02 1.05861E-29
3.24324E-02 9.24817E-30
3.32098E-02 8.33107E-30
3.39961E-02 7.72738E-30
3.47912E-02 7.35111E-30
3.55952E-02 7.13409E-30
3.64081E-02 7.02289E-30
3.72297E-02 6.97625E-30
3.80602E-02 6.96285E-30
3.88995E-02 6.95946E-30
3.97476E-02 6.94940E-30
4.06044E-02 6.92121E-30
4.14700E-02 6.86760E-30
4.23443E-02 6.78447E-30
4.32273E-02 6.67025E-30
4.41190E-02 6.52521E-30
4.50194E-02 6.35099E-30
4.59284E-02 6.15019E-30
4.68461E-02 5.92603E-30
4.87074E-02 5.42222E-30
5.06030E-02 4.86936E-30
5.25328E-02 4.29577E-30
5.44967E-02 3.72576E-30
5.64946E-02 3.17869E-30
5.85262E-02 2.66869E-30
6.05914E-02 2.20511E-30
6.26901E-02 1.79312E-30
6.48222E-02 1.43450E-30
6.69873E-02 1.12836E-30
6.91854E-02 8.71924E-31
7.14163E-02 6.61097E-31
7.36799E-02 4.91037E-31
7.59760E-02 3.56557E-31
7.83043E-02 2.52450E-31
8.06647E-02 1.73729E-31
8.30571E-02 1.15779E-31
8.54812E-02 7.44572E-32
8.79369E-02 4.61411E-32
9.04240E-02 2.77374E-32
9.29422E-02 1.66656E-32
9.54915E-02 1.08221E-32
9.80716E-02 8.53343E-33
1.00682E-01 8.50250E-33
1.03323E-01 9.75431E-33
1.05995E-01 1.15821E-32
1.08696E-01 1.34974E-32
1.11427E-01 1.51847E-32
1.14188E-01 1.64615E-32
1.16978E-01 1.72443E-32
1.19797E-01 1.75204E-32
1.22645E-01 1.73245E-32
1.25522E-01 1.67206E-32
1.28428E-01 1.57878E-32
1.31361E-01 1.46103E-32
1.34323E-01 1.32696E-32
1.37313E-01 1.18401E-32
1.40330E-01 1.03859E-32
1.43375E-01 8.95974E-33
1.46447E-01 7.60264E-33
1.49545E-01 6.34437E-33
1.52671E-01 5.20457E-33
1.55823E-01 4.19415E-33
1.59001E-01 3.31669E-33
1.62205E-01 2.57002E-33
1.65435E-01 1.94755E-33
1.68690E-01 1.43962E-33
1.71970E-01 1.03461E-33
1.75276E-01 7.19849E-34
1.78606E-01 4.82403E-34
1.81961E-01 3.09648E-34
1.85340E-01 1.89708E-34
1.88743E-01 1.11740E-34
1.92169E-01 6.61211E-35
1.95619E-01 4.45218E-35
1.99092E-01 3.99183E-35
2.02589E-01 4.65410E-35
2.06107E-01 5.97866E-35
2.09649E-01 7.61007E-35
2.13212E-01 9.28494E-35
2.16797E-01 1.08183E-34
2.20404E-01 1.20903E-34
2.24032E-01 1.30335E-34
2.27680E-01 1.36214E-34
2.31350E-01 1.38580E-34
2.35040E-01 1.37692E-34
2.38751E-01 1.33950E-34
2.42481E-01 1.27836E-34
2.46231E-01 1.19864E-34
2.50000E-01 1.10546E-34
2.53788E-01 1.00364E-34
2.57595E-01 8.97507E-35
2.61421E-01 7.90794E-35
2.65264E-01 6.86602E-35
2.69126E-01 5.87380E-35
2.73005E-01 4.94954E-35
2.76901E-01 4.10582E-35
2.80814E-01 3.35014E-35
2.84744E-01 2.68568E-35
2.88691E-01 2.11205E-35
2.92653E-01 1.62605E-35
2.96632E-01 1.22232E-35
3.00625E-01 8.94046E-36
3.04634E-01 6.33435E-36
3.08658E-01 4.32241E-36
3.12697E-01 2.82128E-36
3.16749E-01 1.74976E-36
3.20816E-01 1.03117E-36
3.24896E-01 5.94872E-37
3.28990E-01 3.77578E-37
3.33097E-01 3.23608E-37
3.37216E-01 3.85254E-37
3.41348E-01 5.22566E-37
3.45492E-01 7.02974E-37
3.49647E-01 9.00645E-37
3.53814E-01 1.09591E-36
3.57992E-01 1.27445E-36
3.62181E-01 1.42653E-36
3.66381E-01 1.54625E-36
3.70590E-01 1.63085E-36
3.74810E-01 1.68002E-36
3.79039E-01 1.69530E-36
3.83277E-01 1.67958E-36
3.87524E-01 1.63661E-36
3.91780E-01 1.57069E-36
3.96044E-01 1.48628E-36
4.00316E-01 1.38784E-36
4.04596E-01 1.27963E-36
4.08882E-01 1.16552E-36
4.13176E-01 1.04901E-36
4.17476E-01 9.33081E-37
4.21783E-01 8.20242E-37
4.26095E-01 7.12511E-37
4.30413E-01 6.11424E-37
4.34737E-01 5.18085E-37
4.39065E-01 4.33202E-37
4.43398E-01 3.57158E-37
4.47736E-01 2.90009E-37
4.52077E-01 2.31597E-37
4.56422E-01 1.81558E-37
4.60770E-01 1.39388E-37
4.65122E-01 1.04471E-37
4.69476E-01 7.61299E-38
4.73832E-01 5.36536E-38
4.78190E-01 3.63012E-38
4.82550E-01 2.33897E-38
4.86912E-01 1.42187E-38
4.91274E-01 8.15878E-39
4.95637E-01 4.62168E-39
5.00000E-01 3.08102E-39
5.04363E-01 3.06632E-39
5.08726E-01 4.16804E-39
5.13088E-01 6.03280E-39
5.17450E-01 8.37150E-39
5.21810E-01 1.09353E-38
5.26168E-01 1.35350E-38
5.30524E-01 1.60171E-38
5.34878E-01 1.82710E-38
5.39230E-01 2.02209E-38
5.43578E-01 2.18159E-38
5.47923E-01 2.30322E-38
5.52264E-01 2.38652E-38
5.56602E-01 2.43255E-38
5.60935E-01 2.44358E-38
5.65263E-01 2.42263E-38
5.69587E-01 2.37341E-38
5.73905E-01 2.29984E-38
5.78217E-01 2.20596E-38
5.82524E-01 2.09573E-38
5.86824E-01 1.97300E-38
5.91118E-01 1.84135E-38
5.95404E-01 1.70406E-38
5.99684E-01 1.56402E-38
6.03956E-01 1.42389E-38
6.08220E-01 1.28580E-38
6.12476E-01 1.15180E-38
6.16723E-01 1.02323E-38
6.20961E-01 9.01484E-39
6.25190E-01 7.87443E-39
6.29410E-01 6.81764E-39
6.33619E-01 5.84919E-39
6.37819E-01 4.96926E-39
6.42008E-01 4.17829E-39
6.46186E-01 3.47524E-39
6.50353E-01 2.85600E-39
6.54508E-01 2.31713E-39
6.58652E-01 1.85180E-39
6.62784E-01 1.45604E-39
6.66903E-01 1.12308E-39
6.71010E-01 8.46949E-40
6.75104E-01 1.00000E-45
6.79184E-01 1.00000E-45
6.83251E-01 1.00000E-45
6.87303E-01 1.00000E-45
6.91342E-01 1.00000E-45
6.95366E-01 1.00000E-45
6.99375E-01 1.00000E-45
7.03368E-01 1.00000E-45
7.07347E-01 1.00000E-45
7.11309E-01 1.00000E-45
7.15256E-01 1.00000E-45
7.19186E-01 1.00000E-45
7.23099E-01 1.00000E-45
7.26995E-01 1.00000E-45
7.30874E-01 1.00000E-45
7.34736E-01 1.00000E-45
7.38579E-01 1.00000E-45
7.42405E-01 1.00000E-45
7.46212E-01 1.00000E-45
7.50000E-01 1.00000E-45
7.53769E-01 1.00000E-45
7.57519E-01 1.00000E-45
7.61249E-01 1.00000E-45
7.64960E-01 1.00000E-45
7.68650E-01 1.00000E-45
7.72320E-01 1.00000E-45
7.75968E-01 1.00000E-45
7.79596E-01 1.00000E-45
7.83203E-01 1.00000E-45
7.86788E-01 1.00000E-45
7.90351E-01 1.00000E-45
7.93893E-01 1.00000E-45
7.97411E-01 1.00000E-45
8.00908E-01 1.00000E-45
8.04381E-01 1.00000E-45
8.07831E-01 1.00000E-45
8.11257E-01 1.00000E-45
8.14660E-01 1.00000E-45
8.18039E-01 1.00000E-45
8.21394E-01 1.00000E-45
8.24724E-01 1.00000E-45
8.28030E-01 1.00000E-45
8.31310E-01 1.00000E-45
8.34565E-01 1.00000E-45
8.37795E-01 1.00000E-45
8.40999E-01 1.00000E-45
8.44177E-01 1.00000E-45
8.47329E-01 1.00000E-45
8.50455E-01 1.00000E-45
8.53553E-01 1.00000E-45
8.56625E-01 1.00000E-45
8.59670E-01 1.00000E-45
8.62687E-01 1.00000E-45
8.65677E-01 1.00000E-45
8.68639E-01 1.00000E-45
8.71572E-01 1.00000E-45
8.74478E-01 1.00000E-45
8.77355E-01 1.00000E-45
8.80203E-01 1.00000E-45
8.83022E-01 1.00000E-45
8.85812E-01 1.00000E-45
8.88573E-01 1.00000E-45
8.91304E-01 1.00000E-45
8.94005E-01 1.00000E-45
8.96677E-01 1.00000E-45
8.99318E-01 1.00000E-45
9.01928E-01 1.00000E-45
9.04508E-01 1.00000E-45
9.07058E-01 1.00000E-45
9.09576E-01 1.00000E-45
9.12063E-01 1.00000E-45
9.14519E-01 1.00000E-45
9.16943E-01 1.00000E-45
9.19335E-01 1.00000E-45
9.21696E-01 1.00000E-45
9.24024E-01 1.00000E-45
9.26320E-01 1.00000E-45
9.28584E-01 1.00000E-45
9.30815E-01 1.00000E-45
9.33013E-01 1.00000E-45
9.35178E-01 1.00000E-45
9.37310E-01 1.00000E-45
9.39409E-01 1.00000E-45
9.41474E-01 1.00000E-45
9.43505E-01 1.00000E-45
9.45503E-01 1.00000E-45
9.47467E-01 1.00000E-45
9.49397E-01 1.00000E-45
9.51293E-01 1.00000E-45
9.53154E-01 1.00000E-45
9.54981E-01 1.00000E-45
9.56773E-01 1.00000E-45
9.58530E-01 1.00000E-45
9.60252E-01 1.00000E-45
9.61940E-01 1.00000E-45
9.63592E-01 1.00000E-45
9.65209E-01 1.00000E-45
9.66790E-01 1.00000E-45
9.68336E-01 1.00000E-45
9.69846E-01 1.00000E-45
9.71321E-01 1.00000E-45
9.72759E-01 1.00000E-45
9.74162E-01 1.00000E-45
9.75528E-01 1.00000E-45
9.76858E-01 1.00000E-45
9.78152E-01 1.00000E-45
9.79410E-01 1.00000E-45
9.80631E-01 1.00000E-45
9.81815E-01 1.00000E-45
9.82963E-01 1.00000E-45
9.84074E-01 1.00000E-45
9.85148E-01 1.00000E-45
9.86185E-01 1.00000E-45
9.87185E-01 1.00000E-45
9.88148E-01 1.00000E-45
9.89074E-01 1.00000E-45
9.89962E-01 1.00000E-45
9.90814E-01 1.00000E-45
9.91627E-01 1.00000E-45
9.92404E-01 1.00000E-45
9.93143E-01 1.00000E-45
9.93844E-01 1.00000E-45
9.94508E-01 1.00000E-45
9.95134E-01 1.00000E-45
9.95722E-01 1.00000E-45
9.96273E-01 1.00000E-45
9.96786E-01 1.00000E-45
9.97261E-01 1.00000E-45
9.97698E-01 1.00000E-45
9.98097E-01 1.00000E-45
9.98459E-01 1.00000E-45
9.98782E-01 1.00000E-45
9.99067E-01 1.00000E-45
9.99315E-01 1.00000E-45
9.99524E-01 1.00000E-45
9.99695E-01 1.00000E-45
9.99829E-01 1.00000E-45
9.99924E-01 1.00000E-45
9.99981E-01 1.00000E-45
1.00000E+00 1.00000E-45
