 #
 # Subroutine ELSEPA. Elastic scattering of electrons and positrons
 #                    by neutral atoms and positive ions
 #
 # Projectile: positron
 # Kinetic energy = 1.50000E+07 eV = 5.51240E+05 a.u.
 #
 # WARNING: High-energy factorization with free-atom DF screening.
 #          Absorption, polarization and exchange corrections are
 #          switched off.
 #          Phase shifts are calculated for the bare nucleus.
 #          Scattering amplitudes are not evaluated.
 #
 # Element: Cr,  Z =  24,  atomic weight = 5.19961E+01 g/mol
 #
 # Nuclear model: Fermi distribution
 #                Average radius = 3.99369E-13 cm
 #                Skin thickness = 5.46000E-14 cm
 #
 # Number of electrons = 24
 #
 # Total elastic cross section = 1.79282E-18 cm**2 = 6.40226E-02 a0**2
 # 1st transport cross section = 4.04170E-24 cm**2 = 1.44332E-07 a0**2
 # 2nd transport cross section = 1.17300E-23 cm**2 = 4.18886E-07 a0**2
 #
 #
 # Differential cross section:                       MU=(1-COS(THETA))/2
 #
 #  THETA        MU          DCS          DCS        Sherman      error
 #  (deg)                 (cm**2/sr)   (a0**2/sr)    function
 #----------------------------------------------------------------------
0.00000E+00 4.44766E-12
7.61557E-13 4.44729E-12
1.18994E-12 4.44708E-12
1.71346E-12 4.44683E-12
2.33225E-12 4.44653E-12
3.04617E-12 4.44619E-12
3.85530E-12 4.44580E-12
4.75964E-12 4.44537E-12
5.75917E-12 4.44489E-12
6.85391E-12 4.44436E-12
8.04379E-12 4.44379E-12
9.32893E-12 4.44318E-12
1.07092E-11 4.44251E-12
1.21847E-11 4.44181E-12
1.37554E-11 4.44106E-12
1.54213E-11 4.44026E-12
1.71823E-11 4.43942E-12
1.90386E-11 4.43853E-12
2.09900E-11 4.43760E-12
2.30367E-11 4.43662E-12
2.51785E-11 4.43560E-12
2.74156E-11 4.43453E-12
2.97478E-11 4.43342E-12
3.21752E-11 4.43226E-12
3.46979E-11 4.43106E-12
3.73157E-11 4.42982E-12
4.00286E-11 4.42853E-12
4.28368E-11 4.42719E-12
4.57402E-11 4.42581E-12
4.87388E-11 4.42439E-12
5.18325E-11 4.42292E-12
5.50215E-11 4.42141E-12
5.83057E-11 4.41985E-12
6.16850E-11 4.41825E-12
6.51595E-11 4.41660E-12
6.87293E-11 4.41492E-12
7.23943E-11 4.41318E-12
7.61544E-11 4.41141E-12
1.18991E-10 4.39126E-12
1.71347E-10 4.36686E-12
2.33223E-10 4.33832E-12
3.04617E-10 4.30580E-12
3.85531E-10 4.26945E-12
4.75965E-10 4.22946E-12
5.75917E-10 4.18601E-12
6.85389E-10 4.13932E-12
8.04380E-10 4.08959E-12
9.32891E-10 4.03705E-12
1.07092E-09 3.98189E-12
1.21847E-09 3.92440E-12
1.37554E-09 3.86482E-12
1.54213E-09 3.80336E-12
1.71823E-09 3.74021E-12
1.90386E-09 3.67566E-12
2.09900E-09 3.60994E-12
2.30367E-09 3.54319E-12
2.51785E-09 3.47567E-12
2.74156E-09 3.40761E-12
2.97478E-09 3.33918E-12
3.21752E-09 3.27049E-12
3.46978E-09 3.20181E-12
3.73156E-09 3.13329E-12
4.00286E-09 3.06500E-12
4.28368E-09 2.99713E-12
4.57402E-09 2.92982E-12
4.87388E-09 2.86318E-12
5.18326E-09 2.79725E-12
5.50215E-09 2.73220E-12
5.83057E-09 2.66810E-12
6.16850E-09 2.60498E-12
6.51596E-09 2.54291E-12
6.87293E-09 2.48199E-12
7.23942E-09 2.42226E-12
7.61544E-09 2.36366E-12
1.18991E-08 1.84760E-12
1.71347E-08 1.45279E-12
2.33223E-08 1.15642E-12
3.04617E-08 9.33050E-13
3.85531E-08 7.62169E-13
4.75965E-08 6.29064E-13
5.75917E-08 5.23582E-13
6.85389E-08 4.38668E-13
8.04380E-08 3.69506E-13
9.32891E-08 3.12678E-13
1.07092E-07 2.62631E-13
1.21847E-07 2.23018E-13
1.37554E-07 1.91850E-13
1.54213E-07 1.65536E-13
1.71823E-07 1.41476E-13
1.90386E-07 1.22125E-13
2.09900E-07 1.06396E-13
2.30367E-07 9.21280E-14
2.51785E-07 8.00277E-14
2.74156E-07 7.00185E-14
2.97478E-07 6.15159E-14
3.21752E-07 5.38960E-14
3.46978E-07 4.74902E-14
3.73156E-07 4.20707E-14
4.00286E-07 3.72946E-14
4.28368E-07 3.31476E-14
4.57402E-07 2.95910E-14
4.87388E-07 2.65129E-14
5.18325E-07 2.37804E-14
5.50215E-07 2.14075E-14
5.83057E-07 1.93384E-14
6.16850E-07 1.75094E-14
6.51596E-07 1.58924E-14
6.87293E-07 1.44675E-14
7.23942E-07 1.32068E-14
7.61543E-07 1.20780E-14
1.18991E-06 5.55010E-15
1.71347E-06 2.95707E-15
2.33223E-06 1.72490E-15
3.04617E-06 1.06917E-15
3.85531E-06 6.93824E-16
4.75964E-06 4.67355E-16
5.75916E-06 3.25001E-16
6.85388E-06 2.32433E-16
8.04378E-06 1.70399E-16
9.32888E-06 1.27679E-16
1.07092E-05 9.75168E-17
1.21846E-05 7.57935E-17
1.37553E-05 5.98155E-17
1.54212E-05 4.78379E-17
1.71822E-05 3.87290E-17
1.90385E-05 3.16975E-17
2.09899E-05 2.61994E-17
2.30365E-05 2.18465E-17
2.51783E-05 1.83646E-17
2.74153E-05 1.55511E-17
2.97475E-05 1.32556E-17
3.21749E-05 1.13698E-17
3.46974E-05 9.80870E-18
3.73152E-05 8.50612E-18
4.00281E-05 7.41305E-18
4.28362E-05 6.49038E-18
4.57395E-05 5.70671E-18
4.87380E-05 5.03743E-18
5.18317E-05 4.46345E-18
5.50205E-05 3.96890E-18
5.83045E-05 3.54057E-18
6.16838E-05 3.16849E-18
6.51582E-05 2.84403E-18
6.87277E-05 2.55992E-18
7.23925E-05 2.31033E-18
7.61524E-05 2.09041E-18
9.21439E-05 1.43358E-18
1.09658E-04 1.01517E-18
1.28695E-04 7.38629E-19
1.49255E-04 5.49995E-19
1.71338E-04 4.17829E-19
1.94942E-04 3.23020E-19
2.20070E-04 2.53602E-19
2.46720E-04 2.01845E-19
2.74892E-04 1.62624E-19
3.04586E-04 1.32472E-19
3.35803E-04 1.08987E-19
3.68542E-04 9.04764E-20
4.02802E-04 7.57296E-20
4.38585E-04 6.38649E-20
4.75889E-04 5.42329E-20
5.14715E-04 4.63479E-20
5.55063E-04 3.98437E-20
5.96931E-04 3.44400E-20
6.40321E-04 2.99211E-20
6.85233E-04 2.61188E-20
7.31665E-04 2.29009E-20
7.79618E-04 2.01631E-20
8.29092E-04 1.78220E-20
8.80086E-04 1.58105E-20
9.32601E-04 1.40747E-20
9.86636E-04 1.25703E-20
1.04219E-03 1.12614E-20
1.09927E-03 1.01183E-20
1.15786E-03 9.11637E-21
1.21797E-03 8.23529E-21
1.27961E-03 7.45797E-21
1.34276E-03 6.77010E-21
1.40743E-03 6.15962E-21
1.47362E-03 5.61632E-21
1.54133E-03 5.13152E-21
1.61056E-03 4.69784E-21
1.68131E-03 4.30894E-21
1.75357E-03 3.95940E-21
1.82735E-03 3.64453E-21
1.90265E-03 3.36029E-21
1.97947E-03 3.10318E-21
2.05780E-03 2.87015E-21
2.13765E-03 2.65855E-21
2.21902E-03 2.46606E-21
2.30190E-03 2.29065E-21
2.38630E-03 2.13052E-21
2.47222E-03 1.98412E-21
2.55965E-03 1.85006E-21
2.64859E-03 1.72710E-21
2.73905E-03 1.61418E-21
2.83103E-03 1.51031E-21
2.92452E-03 1.41464E-21
3.01952E-03 1.32642E-21
3.11604E-03 1.24495E-21
3.21407E-03 1.16962E-21
3.31362E-03 1.09990E-21
3.41468E-03 1.03528E-21
3.51725E-03 9.75326E-22
3.62133E-03 9.19639E-22
3.72692E-03 8.67861E-22
3.83403E-03 8.19666E-22
3.94265E-03 7.74763E-22
4.05278E-03 7.32885E-22
4.16442E-03 6.93790E-22
4.27757E-03 6.57262E-22
4.39223E-03 6.23099E-22
4.50840E-03 5.91122E-22
4.62608E-03 5.61164E-22
4.74527E-03 5.33075E-22
4.86597E-03 5.06716E-22
4.98817E-03 4.81962E-22
5.11188E-03 4.58697E-22
5.23711E-03 4.36814E-22
5.36383E-03 4.16217E-22
5.49207E-03 3.96817E-22
5.62181E-03 3.78530E-22
5.75306E-03 3.61281E-22
5.88581E-03 3.45000E-22
6.02007E-03 3.29623E-22
6.15583E-03 3.15091E-22
6.29310E-03 3.01349E-22
6.43187E-03 2.88344E-22
6.57214E-03 2.76032E-22
6.71392E-03 2.64367E-22
6.85720E-03 2.53310E-22
7.00198E-03 2.42823E-22
7.14827E-03 2.32872E-22
7.29605E-03 2.23423E-22
7.44534E-03 2.14447E-22
7.59612E-03 2.05915E-22
7.97965E-03 1.86364E-22
8.37255E-03 1.69072E-22
8.77480E-03 1.53732E-22
9.18641E-03 1.40087E-22
9.60736E-03 1.27917E-22
1.00376E-02 1.17036E-22
1.04773E-02 1.07283E-22
1.09262E-02 9.85203E-23
1.13844E-02 9.06309E-23
1.18520E-02 8.35123E-23
1.23288E-02 7.70761E-23
1.28150E-02 7.12454E-23
1.33104E-02 6.59533E-23
1.38150E-02 6.11412E-23
1.43290E-02 5.67581E-23
1.48521E-02 5.27589E-23
1.53845E-02 4.91040E-23
1.59262E-02 4.57587E-23
1.64770E-02 4.26919E-23
1.70371E-02 3.98765E-23
1.76063E-02 3.72882E-23
1.81848E-02 3.49053E-23
1.87724E-02 3.27087E-23
1.93692E-02 3.06813E-23
1.99751E-02 2.88076E-23
2.05901E-02 2.70739E-23
2.12143E-02 2.54680E-23
2.18476E-02 2.39786E-23
2.24900E-02 2.25959E-23
2.31415E-02 2.13107E-23
2.38021E-02 2.01151E-23
2.44717E-02 1.90016E-23
2.51504E-02 1.79636E-23
2.58382E-02 1.69951E-23
2.65349E-02 1.60904E-23
2.72407E-02 1.52448E-23
2.79555E-02 1.44536E-23
2.86793E-02 1.37127E-23
2.94120E-02 1.30183E-23
3.01537E-02 1.23670E-23
3.09043E-02 1.17556E-23
3.16639E-02 1.11813E-23
3.24324E-02 1.06413E-23
3.32098E-02 1.01333E-23
3.39961E-02 9.65495E-24
3.47912E-02 9.20429E-24
3.55952E-02 8.77941E-24
3.64081E-02 8.37856E-24
3.72297E-02 8.00013E-24
3.80602E-02 7.64264E-24
3.88995E-02 7.30472E-24
3.97476E-02 6.98511E-24
4.06044E-02 6.68263E-24
4.14700E-02 6.39620E-24
4.23443E-02 6.12481E-24
4.32273E-02 5.86752E-24
4.41190E-02 5.62348E-24
4.50194E-02 5.39187E-24
4.59284E-02 5.17195E-24
4.68461E-02 4.96301E-24
4.87074E-02 4.57555E-24
5.06030E-02 4.22481E-24
5.25328E-02 3.90670E-24
5.44967E-02 3.61767E-24
5.64946E-02 3.35460E-24
5.85262E-02 3.11476E-24
6.05914E-02 2.89573E-24
6.26901E-02 2.69540E-24
6.48222E-02 2.51190E-24
6.69873E-02 2.34357E-24
6.91854E-02 2.18893E-24
7.14163E-02 2.04668E-24
7.36799E-02 1.91565E-24
7.59760E-02 1.79480E-24
7.83043E-02 1.68320E-24
8.06647E-02 1.58002E-24
8.30571E-02 1.48452E-24
8.54812E-02 1.39602E-24
8.79369E-02 1.31392E-24
9.04240E-02 1.23768E-24
9.29422E-02 1.16680E-24
9.54915E-02 1.10085E-24
9.80716E-02 1.03941E-24
1.00682E-01 9.82131E-25
1.03323E-01 9.28676E-25
1.05995E-01 8.78745E-25
1.08696E-01 8.32067E-25
1.11427E-01 7.88391E-25
1.14188E-01 7.47492E-25
1.16978E-01 7.09160E-25
1.19797E-01 6.73207E-25
1.22645E-01 6.39459E-25
1.25522E-01 6.07758E-25
1.28428E-01 5.77956E-25
1.31361E-01 5.49921E-25
1.34323E-01 5.23530E-25
1.37313E-01 4.98668E-25
1.40330E-01 4.75232E-25
1.43375E-01 4.53126E-25
1.46447E-01 4.32261E-25
1.49545E-01 4.12555E-25
1.52671E-01 3.93932E-25
1.55823E-01 3.76322E-25
1.59001E-01 3.59661E-25
1.62205E-01 3.43889E-25
1.65435E-01 3.28949E-25
1.68690E-01 3.14791E-25
1.71970E-01 3.01366E-25
1.75276E-01 2.88629E-25
1.78606E-01 2.76539E-25
1.81961E-01 2.65058E-25
1.85340E-01 2.54149E-25
1.88743E-01 2.43779E-25
1.92169E-01 2.33916E-25
1.95619E-01 2.24532E-25
1.99092E-01 2.15599E-25
2.02589E-01 2.07092E-25
2.06107E-01 1.98987E-25
2.09649E-01 1.91262E-25
2.13212E-01 1.83895E-25
2.16797E-01 1.76867E-25
2.20404E-01 1.70160E-25
2.24032E-01 1.63757E-25
2.27680E-01 1.57641E-25
2.31350E-01 1.51798E-25
2.35040E-01 1.46213E-25
2.38751E-01 1.40872E-25
2.42481E-01 1.35764E-25
2.46231E-01 1.30876E-25
2.50000E-01 1.26197E-25
2.53788E-01 1.21717E-25
2.57595E-01 1.17425E-25
2.61421E-01 1.13314E-25
2.65264E-01 1.09372E-25
2.69126E-01 1.05593E-25
2.73005E-01 1.01969E-25
2.76901E-01 9.84920E-26
2.80814E-01 9.51549E-26
2.84744E-01 9.19514E-26
2.88691E-01 8.88751E-26
2.92653E-01 8.59202E-26
2.96632E-01 8.30810E-26
3.00625E-01 8.03522E-26
3.04634E-01 7.77288E-26
3.08658E-01 7.52061E-26
3.12697E-01 7.27794E-26
3.16749E-01 7.04447E-26
3.20816E-01 6.81976E-26
3.24896E-01 6.60345E-26
3.28990E-01 6.39517E-26
3.33097E-01 6.19456E-26
3.37216E-01 6.00130E-26
3.41348E-01 5.81507E-26
3.45492E-01 5.63557E-26
3.49647E-01 5.46252E-26
3.53814E-01 5.29565E-26
3.57992E-01 5.13470E-26
3.62181E-01 4.97943E-26
3.66381E-01 4.82960E-26
3.70590E-01 4.68498E-26
3.74810E-01 4.54538E-26
3.79039E-01 4.41058E-26
3.83277E-01 4.28039E-26
3.87524E-01 4.15463E-26
3.91780E-01 4.03312E-26
3.96044E-01 3.91570E-26
4.00316E-01 3.80220E-26
4.04596E-01 3.69247E-26
4.08882E-01 3.58638E-26
4.13176E-01 3.48376E-26
4.17476E-01 3.38451E-26
4.21783E-01 3.28847E-26
4.26095E-01 3.19554E-26
4.30413E-01 3.10560E-26
4.34737E-01 3.01854E-26
4.39065E-01 2.93424E-26
4.43398E-01 2.85261E-26
4.47736E-01 2.77355E-26
4.52077E-01 2.69696E-26
4.56422E-01 2.62276E-26
4.60770E-01 2.55086E-26
4.65122E-01 2.48117E-26
4.69476E-01 2.41362E-26
4.73832E-01 2.34813E-26
4.78190E-01 2.28463E-26
4.82550E-01 2.22305E-26
4.86912E-01 2.16332E-26
4.91274E-01 2.10537E-26
4.95637E-01 2.04915E-26
5.00000E-01 1.99459E-26
5.04363E-01 1.94165E-26
5.08726E-01 1.89025E-26
5.13088E-01 1.84036E-26
5.17450E-01 1.79192E-26
5.21810E-01 1.74488E-26
5.26168E-01 1.69919E-26
5.30524E-01 1.65481E-26
5.34878E-01 1.61170E-26
5.39230E-01 1.56982E-26
5.43578E-01 1.52912E-26
5.47923E-01 1.48956E-26
5.52264E-01 1.45111E-26
5.56602E-01 1.41374E-26
5.60935E-01 1.37741E-26
5.65263E-01 1.34208E-26
5.69587E-01 1.30772E-26
5.73905E-01 1.27431E-26
5.78217E-01 1.24181E-26
5.82524E-01 1.21019E-26
5.86824E-01 1.17943E-26
5.91118E-01 1.14950E-26
5.95404E-01 1.12038E-26
5.99684E-01 1.09204E-26
6.03956E-01 1.06445E-26
6.08220E-01 1.03759E-26
6.12476E-01 1.01145E-26
6.16723E-01 9.85989E-27
6.20961E-01 9.61201E-27
6.25190E-01 9.37062E-27
6.29410E-01 9.13551E-27
6.33619E-01 8.90651E-27
6.37819E-01 8.68343E-27
6.42008E-01 8.46610E-27
6.46186E-01 8.25434E-27
6.50353E-01 8.04801E-27
6.54508E-01 7.84694E-27
6.58652E-01 7.65097E-27
6.62784E-01 7.45997E-27
6.66903E-01 7.27379E-27
6.71010E-01 7.09228E-27
6.75104E-01 6.91533E-27
6.79184E-01 6.74280E-27
6.83251E-01 6.57456E-27
6.87303E-01 6.41049E-27
6.91342E-01 6.25049E-27
6.95366E-01 6.09443E-27
6.99375E-01 5.94221E-27
7.03368E-01 5.79372E-27
7.07347E-01 5.64885E-27
7.11309E-01 5.50752E-27
7.15256E-01 5.36961E-27
7.19186E-01 5.23505E-27
7.23099E-01 5.10374E-27
7.26995E-01 4.97559E-27
7.30874E-01 4.85051E-27
7.34736E-01 4.72844E-27
7.38579E-01 4.60927E-27
7.42405E-01 4.49295E-27
7.46212E-01 4.37939E-27
7.50000E-01 4.26853E-27
7.53769E-01 4.16028E-27
7.57519E-01 4.05459E-27
7.61249E-01 3.95138E-27
7.64960E-01 3.85060E-27
7.68650E-01 3.75218E-27
7.72320E-01 3.65606E-27
7.75968E-01 3.56218E-27
7.79596E-01 3.47049E-27
7.83203E-01 3.38093E-27
7.86788E-01 3.29344E-27
7.90351E-01 3.20798E-27
7.93893E-01 3.12449E-27
7.97411E-01 3.04293E-27
8.00908E-01 2.96325E-27
8.04381E-01 2.88539E-27
8.07831E-01 2.80933E-27
8.11257E-01 2.73501E-27
8.14660E-01 2.66238E-27
8.18039E-01 2.59142E-27
8.21394E-01 2.52208E-27
8.24724E-01 2.45432E-27
8.28030E-01 2.38810E-27
8.31310E-01 2.32339E-27
8.34565E-01 2.26015E-27
8.37795E-01 2.19835E-27
8.40999E-01 2.13795E-27
8.44177E-01 2.07892E-27
8.47329E-01 2.02124E-27
8.50455E-01 1.96485E-27
8.53553E-01 1.90975E-27
8.56625E-01 1.85590E-27
8.59670E-01 1.80326E-27
8.62687E-01 1.75182E-27
8.65677E-01 1.70155E-27
8.68639E-01 1.65242E-27
8.71572E-01 1.60440E-27
8.74478E-01 1.55747E-27
8.77355E-01 1.51161E-27
8.80203E-01 1.46679E-27
8.83022E-01 1.42299E-27
8.85812E-01 1.38019E-27
8.88573E-01 1.33837E-27
8.91304E-01 1.29750E-27
8.94005E-01 1.25757E-27
8.96677E-01 1.21856E-27
8.99318E-01 1.18044E-27
9.01928E-01 1.14320E-27
9.04508E-01 1.10683E-27
9.07058E-01 1.07129E-27
9.09576E-01 1.03658E-27
9.12063E-01 1.00268E-27
9.14519E-01 9.69575E-28
9.16943E-01 9.37245E-28
9.19335E-01 9.05676E-28
9.21696E-01 8.74854E-28
9.24024E-01 8.44765E-28
9.26320E-01 8.15393E-28
9.28584E-01 7.86727E-28
9.30815E-01 7.58751E-28
9.33013E-01 7.31453E-28
9.35178E-01 7.04822E-28
9.37310E-01 6.78843E-28
9.39409E-01 6.53506E-28
9.41474E-01 6.28799E-28
9.43505E-01 6.04711E-28
9.45503E-01 5.81230E-28
9.47467E-01 5.58347E-28
9.49397E-01 5.36050E-28
9.51293E-01 5.14331E-28
9.53154E-01 4.93179E-28
9.54981E-01 4.72584E-28
9.56773E-01 4.52538E-28
9.58530E-01 4.33032E-28
9.60252E-01 4.14057E-28
9.61940E-01 3.95605E-28
9.63592E-01 3.77667E-28
9.65209E-01 3.60237E-28
9.66790E-01 3.43305E-28
9.68336E-01 3.26866E-28
9.69846E-01 3.10911E-28
9.71321E-01 2.95435E-28
9.72759E-01 2.80429E-28
9.74162E-01 2.65888E-28
9.75528E-01 2.51806E-28
9.76858E-01 2.38175E-28
9.78152E-01 2.24992E-28
9.79410E-01 2.12250E-28
9.80631E-01 1.99943E-28
9.81815E-01 1.88067E-28
9.82963E-01 1.76615E-28
9.84074E-01 1.65585E-28
9.85148E-01 1.54970E-28
9.86185E-01 1.44766E-28
9.87185E-01 1.34970E-28
9.88148E-01 1.25577E-28
9.89074E-01 1.16582E-28
9.89962E-01 1.07983E-28
9.90814E-01 9.97755E-29
9.91627E-01 9.19562E-29
9.92404E-01 8.45219E-29
9.93143E-01 7.74695E-29
9.93844E-01 7.07961E-29
9.94508E-01 6.44989E-29
9.95134E-01 5.85752E-29
9.95722E-01 5.30227E-29
9.96273E-01 4.78391E-29
9.96786E-01 4.30221E-29
9.97261E-01 3.85699E-29
9.97698E-01 3.44806E-29
9.98097E-01 3.07524E-29
9.98459E-01 2.73840E-29
9.98782E-01 2.43738E-29
9.99067E-01 2.17206E-29
9.99315E-01 1.94234E-29
9.99524E-01 1.74812E-29
9.99695E-01 1.58932E-29
9.99829E-01 1.46588E-29
9.99924E-01 1.37774E-29
9.99981E-01 1.32487E-29
1.00000E+00 1.30726E-29
