 #
 # Subroutine ELSEPA. Elastic scattering of electrons and positrons
 #                    by neutral atoms and positive ions
 #
 # Projectile: positron
 # Kinetic energy = 3.50000E+08 eV = 1.28623E+07 a.u.
 #
 # WARNING: High-energy factorization with free-atom DF screening.
 #          Absorption, polarization and exchange corrections are
 #          switched off.
 #          Phase shifts are calculated for the bare nucleus.
 #          Scattering amplitudes are not evaluated.
 #
 # Element: Cr,  Z =  24,  atomic weight = 5.19961E+01 g/mol
 #
 # Nuclear model: Fermi distribution
 #                Average radius = 3.99369E-13 cm
 #                Skin thickness = 5.46000E-14 cm
 #
 # Number of electrons = 24
 #
 # Total elastic cross section = 1.79002E-18 cm**2 = 6.39229E-02 a0**2
 # 1st transport cross section = 9.75729E-27 cm**2 = 3.48439E-10 a0**2
 # 2nd transport cross section = 2.92412E-26 cm**2 = 1.04422E-09 a0**2
 #
 #
 # Differential cross section:                       MU=(1-COS(THETA))/2
 #
 #  THETA        MU          DCS          DCS        Sherman      error
 #  (deg)                 (cm**2/sr)   (a0**2/sr)    function
 #----------------------------------------------------------------------
0.00000E+00 2.27120E-09
7.61557E-13 2.17936E-09
1.18994E-12 2.13051E-09
1.71346E-12 2.07337E-09
2.33225E-12 2.00919E-09
3.04617E-12 1.93942E-09
3.85530E-12 1.86537E-09
4.75964E-12 1.78839E-09
5.75917E-12 1.70972E-09
6.85391E-12 1.63043E-09
8.04379E-12 1.55155E-09
9.32893E-12 1.47388E-09
1.07092E-11 1.39806E-09
1.21847E-11 1.32467E-09
1.37554E-11 1.25408E-09
1.54213E-11 1.18655E-09
1.71823E-11 1.12230E-09
1.90386E-11 1.06136E-09
2.09900E-11 1.00377E-09
2.30367E-11 9.49530E-10
2.51785E-11 8.98456E-10
2.74156E-11 8.50513E-10
2.97478E-11 8.05590E-10
3.21752E-11 7.63396E-10
3.46979E-11 7.23920E-10
3.73157E-11 6.86959E-10
4.00286E-11 6.52268E-10
4.28368E-11 6.19833E-10
4.57402E-11 5.89393E-10
4.87388E-11 5.60816E-10
5.18325E-11 5.34074E-10
5.50215E-11 5.08863E-10
5.83057E-11 4.85188E-10
6.16850E-11 4.62991E-10
6.51595E-11 4.41948E-10
6.87293E-11 4.22185E-10
7.23943E-11 4.03563E-10
7.61544E-11 3.85891E-10
1.18991E-10 2.53194E-10
1.71347E-10 1.71611E-10
2.33223E-10 1.17061E-10
3.04617E-10 8.33532E-11
3.85531E-10 5.93869E-11
4.75965E-10 4.31460E-11
5.75917E-10 3.19765E-11
6.85389E-10 2.38662E-11
8.04380E-10 1.81785E-11
9.32891E-10 1.40662E-11
1.07092E-09 1.10325E-11
1.21847E-09 8.79155E-12
1.37554E-09 7.10003E-12
1.54213E-09 5.80618E-12
1.71823E-09 4.80505E-12
1.90386E-09 4.01752E-12
2.09900E-09 3.39078E-12
2.30367E-09 2.88713E-12
2.51785E-09 2.47556E-12
2.74156E-09 2.13740E-12
2.97478E-09 1.85720E-12
3.21752E-09 1.62119E-12
3.46978E-09 1.42267E-12
3.73156E-09 1.25396E-12
4.00286E-09 1.10911E-12
4.28368E-09 9.85009E-13
4.57402E-09 8.77465E-13
4.87388E-09 7.83925E-13
5.18326E-09 7.02614E-13
5.50215E-09 6.31107E-13
5.83057E-09 5.68399E-13
6.16850E-09 5.13293E-13
6.51596E-09 4.64310E-13
6.87293E-09 4.21040E-13
7.23942E-09 3.82607E-13
7.61544E-09 3.48269E-13
1.18991E-08 1.49588E-13
1.71347E-08 7.38192E-14
2.33223E-08 4.04517E-14
3.04617E-08 2.40128E-14
3.85531E-08 1.51608E-14
4.75965E-08 1.00490E-14
5.75917E-08 6.92480E-15
6.85389E-08 4.92791E-15
8.04380E-08 3.60187E-15
9.32891E-08 2.69328E-15
1.07092E-07 2.05385E-15
1.21847E-07 1.59308E-15
1.37554E-07 1.25446E-15
1.54213E-07 1.00104E-15
1.71823E-07 8.08399E-16
1.90386E-07 6.59877E-16
2.09900E-07 5.43875E-16
2.30367E-07 4.52245E-16
2.51785E-07 3.79088E-16
2.74156E-07 3.20120E-16
2.97478E-07 2.72169E-16
3.21752E-07 2.32854E-16
3.46978E-07 2.00381E-16
3.73156E-07 1.73367E-16
4.00286E-07 1.50751E-16
4.28368E-07 1.31702E-16
4.57402E-07 1.15565E-16
4.87388E-07 1.01824E-16
5.18325E-07 9.00629E-17
5.50215E-07 7.99508E-17
5.83057E-07 7.12179E-17
6.16850E-07 6.36443E-17
6.51596E-07 5.70506E-17
6.87293E-07 5.12885E-17
7.23942E-07 4.62354E-17
7.61543E-07 4.17892E-17
1.18991E-06 1.71337E-17
1.71347E-06 8.26599E-18
2.33223E-06 4.46245E-18
3.04617E-06 2.61592E-18
3.85531E-06 1.63309E-18
4.75964E-06 1.07142E-18
5.75916E-06 7.31748E-19
6.85388E-06 5.16624E-19
8.04378E-06 3.75051E-19
9.32888E-06 2.78813E-19
1.07092E-05 2.11553E-19
1.21846E-05 1.63404E-19
1.37553E-05 1.28205E-19
1.54212E-05 1.01992E-19
1.71822E-05 8.21487E-20
1.90385E-05 6.68997E-20
2.09899E-05 5.50376E-20
2.30365E-05 4.56906E-20
2.51783E-05 3.82444E-20
2.74153E-05 3.22538E-20
2.97475E-05 2.73906E-20
3.21749E-05 2.34102E-20
3.46974E-05 2.01273E-20
3.73152E-05 1.74005E-20
4.00281E-05 1.51204E-20
4.28362E-05 1.32019E-20
4.57395E-05 1.15782E-20
4.87380E-05 1.01965E-20
5.18317E-05 9.01463E-21
5.50205E-05 7.99904E-21
5.83045E-05 7.12244E-21
6.16838E-05 6.36267E-21
6.51582E-05 5.70156E-21
6.87277E-05 5.12414E-21
7.23925E-05 4.61802E-21
7.61524E-05 4.16413E-21
9.21439E-05 2.84135E-21
1.09658E-04 2.00402E-21
1.28695E-04 1.45333E-21
1.49255E-04 1.07917E-21
1.71338E-04 8.17856E-22
1.94942E-04 6.30904E-22
2.20070E-04 4.94329E-22
2.46720E-04 3.92696E-22
2.74892E-04 3.15812E-22
3.04586E-04 2.56797E-22
3.35803E-04 2.10892E-22
3.68542E-04 1.74759E-22
4.02802E-04 1.46008E-22
4.38585E-04 1.22904E-22
4.75889E-04 1.04169E-22
5.14715E-04 8.88491E-23
5.55063E-04 7.62265E-23
5.96931E-04 6.57517E-23
6.40321E-04 5.70019E-23
6.85233E-04 4.96481E-23
7.31665E-04 4.34320E-23
7.79618E-04 3.81496E-23
8.29092E-04 3.36380E-23
8.80086E-04 2.97667E-23
9.32601E-04 2.64301E-23
9.86636E-04 2.35422E-23
1.04219E-03 2.10330E-23
1.09927E-03 1.88446E-23
1.15786E-03 1.69293E-23
1.21797E-03 1.52475E-23
1.27961E-03 1.37660E-23
1.34276E-03 1.24569E-23
1.40743E-03 1.12970E-23
1.47362E-03 1.02664E-23
1.54133E-03 9.34838E-24
1.61056E-03 8.52853E-24
1.68131E-03 7.79464E-24
1.75357E-03 7.13620E-24
1.82735E-03 6.54419E-24
1.90265E-03 6.01078E-24
1.97947E-03 5.52922E-24
2.05780E-03 5.09363E-24
2.13765E-03 4.69891E-24
2.21902E-03 4.34058E-24
2.30190E-03 4.01474E-24
2.38630E-03 3.71795E-24
2.47222E-03 3.44720E-24
2.55965E-03 3.19984E-24
2.64859E-03 2.97350E-24
2.73905E-03 2.76611E-24
2.83103E-03 2.57583E-24
2.92452E-03 2.40101E-24
3.01952E-03 2.24019E-24
3.11604E-03 2.09207E-24
3.21407E-03 1.95549E-24
3.31362E-03 1.82940E-24
3.41468E-03 1.71286E-24
3.51725E-03 1.60503E-24
3.62133E-03 1.50517E-24
3.72692E-03 1.41258E-24
3.83403E-03 1.32666E-24
3.94265E-03 1.24685E-24
4.05278E-03 1.17264E-24
4.16442E-03 1.10357E-24
4.27757E-03 1.03925E-24
4.39223E-03 9.79285E-25
4.50840E-03 9.23339E-25
4.62608E-03 8.71102E-25
4.74527E-03 8.22288E-25
4.86597E-03 7.76640E-25
4.98817E-03 7.33921E-25
5.11188E-03 6.93914E-25
5.23711E-03 6.56420E-25
5.36383E-03 6.21259E-25
5.49207E-03 5.88263E-25
5.62181E-03 5.57280E-25
5.75306E-03 5.28167E-25
5.88581E-03 5.00796E-25
6.02007E-03 4.75047E-25
6.15583E-03 4.50810E-25
6.29310E-03 4.27983E-25
6.43187E-03 4.06472E-25
6.57214E-03 3.86191E-25
6.71392E-03 3.67059E-25
6.85720E-03 3.49002E-25
7.00198E-03 3.31951E-25
7.14827E-03 3.15842E-25
7.29605E-03 3.00615E-25
7.44534E-03 2.86217E-25
7.59612E-03 2.72595E-25
7.97965E-03 2.41634E-25
8.37255E-03 2.14579E-25
8.77480E-03 1.90880E-25
9.18641E-03 1.70069E-25
9.60736E-03 1.51755E-25
1.00376E-02 1.35604E-25
1.04773E-02 1.21332E-25
1.09262E-02 1.08697E-25
1.13844E-02 9.74900E-26
1.18520E-02 8.75339E-26
1.23288E-02 7.86747E-26
1.28150E-02 7.07795E-26
1.33104E-02 6.37335E-26
1.38150E-02 5.74367E-26
1.43290E-02 5.18022E-26
1.48521E-02 4.67544E-26
1.53845E-02 4.22268E-26
1.59262E-02 3.81616E-26
1.64770E-02 3.45077E-26
1.70371E-02 3.12204E-26
1.76063E-02 2.82601E-26
1.81848E-02 2.55921E-26
1.87724E-02 2.31856E-26
1.93692E-02 2.10132E-26
1.99751E-02 1.90508E-26
2.05901E-02 1.72770E-26
2.12143E-02 1.56725E-26
2.18476E-02 1.42204E-26
2.24900E-02 1.29055E-26
2.31415E-02 1.17142E-26
2.38021E-02 1.06344E-26
2.44717E-02 9.65518E-27
2.51504E-02 8.76691E-27
2.58382E-02 7.96080E-27
2.65349E-02 7.22902E-27
2.72407E-02 6.56452E-27
2.79555E-02 5.96095E-27
2.86793E-02 5.41259E-27
2.94120E-02 4.91430E-27
3.01537E-02 4.46141E-27
3.09043E-02 4.04974E-27
3.16639E-02 3.67549E-27
3.24324E-02 3.33522E-27
3.32098E-02 3.02583E-27
3.39961E-02 2.74451E-27
3.47912E-02 2.48871E-27
3.55952E-02 2.25612E-27
3.64081E-02 2.04465E-27
3.72297E-02 1.85238E-27
3.80602E-02 1.67759E-27
3.88995E-02 1.51872E-27
3.97476E-02 1.37434E-27
4.06044E-02 1.24314E-27
4.14700E-02 1.12394E-27
4.23443E-02 1.01569E-27
4.32273E-02 9.17384E-28
4.41190E-02 8.28147E-28
4.50194E-02 7.47164E-28
4.59284E-02 6.73697E-28
4.68461E-02 6.07073E-28
4.87074E-02 4.91954E-28
5.06030E-02 3.97520E-28
5.25328E-02 3.20210E-28
5.44967E-02 2.57062E-28
5.64946E-02 2.05611E-28
5.85262E-02 1.63809E-28
6.05914E-02 1.29955E-28
6.26901E-02 1.02632E-28
6.48222E-02 8.06666E-29
6.69873E-02 6.30845E-29
6.91854E-02 4.90786E-29
7.14163E-02 3.79814E-29
7.36799E-02 2.92415E-29
7.59760E-02 2.24044E-29
7.83043E-02 1.70965E-29
8.06647E-02 1.30112E-29
8.30571E-02 9.89785E-30
8.54812E-02 7.55198E-30
8.79369E-02 5.80767E-30
9.04240E-02 4.53072E-30
9.29422E-02 3.61311E-30
9.54915E-02 2.96843E-30
9.80716E-02 2.52795E-30
1.00682E-01 2.23743E-30
1.03323E-01 2.05443E-30
1.05995E-01 1.94607E-30
1.08696E-01 1.88722E-30
1.11427E-01 1.85894E-30
1.14188E-01 1.84722E-30
1.16978E-01 1.84200E-30
1.19797E-01 1.83625E-30
1.22645E-01 1.82534E-30
1.25522E-01 1.80645E-30
1.28428E-01 1.77814E-30
1.31361E-01 1.73996E-30
1.34323E-01 1.69220E-30
1.37313E-01 1.63562E-30
1.40330E-01 1.57131E-30
1.43375E-01 1.50056E-30
1.46447E-01 1.42471E-30
1.49545E-01 1.34511E-30
1.52671E-01 1.26308E-30
1.55823E-01 1.17981E-30
1.59001E-01 1.09641E-30
1.62205E-01 1.01386E-30
1.65435E-01 9.32997E-31
1.68690E-01 8.54522E-31
1.71970E-01 7.79014E-31
1.75276E-01 7.06929E-31
1.78606E-01 6.38611E-31
1.81961E-01 5.74301E-31
1.85340E-01 5.14149E-31
1.88743E-01 4.58227E-31
1.92169E-01 4.06538E-31
1.95619E-01 3.59029E-31
1.99092E-01 3.15598E-31
2.02589E-01 2.76105E-31
2.06107E-01 2.40379E-31
2.09649E-01 2.08228E-31
2.13212E-01 1.79442E-31
2.16797E-01 1.53804E-31
2.20404E-01 1.31088E-31
2.24032E-01 1.11069E-31
2.27680E-01 9.35229E-32
2.31350E-01 7.82321E-32
2.35040E-01 6.49857E-32
2.38751E-01 5.35820E-32
2.42481E-01 4.38299E-32
2.46231E-01 3.55495E-32
2.50000E-01 2.85732E-32
2.53788E-01 2.27454E-32
2.57595E-01 1.79230E-32
2.61421E-01 1.39752E-32
2.65264E-01 1.07828E-32
2.69126E-01 8.23840E-33
2.73005E-01 6.24540E-33
2.76901E-01 4.71760E-33
2.80814E-01 3.57852E-33
2.84744E-01 2.76074E-33
2.88691E-01 2.20524E-33
2.92653E-01 1.86063E-33
2.96632E-01 1.68259E-33
3.00625E-01 1.63311E-33
3.04634E-01 1.67992E-33
3.08658E-01 1.79587E-33
3.12697E-01 1.95837E-33
3.16749E-01 2.14882E-33
3.20816E-01 2.35220E-33
3.24896E-01 2.55651E-33
3.28990E-01 2.75246E-33
3.33097E-01 2.93301E-33
3.37216E-01 3.09307E-33
3.41348E-01 3.22919E-33
3.45492E-01 3.33926E-33
3.49647E-01 3.42232E-33
3.53814E-01 3.47828E-33
3.57992E-01 3.50779E-33
3.62181E-01 3.51204E-33
3.66381E-01 3.49265E-33
3.70590E-01 3.45152E-33
3.74810E-01 3.39078E-33
3.79039E-01 3.31263E-33
3.83277E-01 3.21935E-33
3.87524E-01 3.11319E-33
3.91780E-01 2.99634E-33
3.96044E-01 2.87091E-33
4.00316E-01 2.73890E-33
4.04596E-01 2.60214E-33
4.08882E-01 2.46236E-33
4.13176E-01 2.32108E-33
4.17476E-01 2.17970E-33
4.21783E-01 2.03944E-33
4.26095E-01 1.90137E-33
4.30413E-01 1.76642E-33
4.34737E-01 1.63535E-33
4.39065E-01 1.50883E-33
4.43398E-01 1.38735E-33
4.47736E-01 1.27133E-33
4.52077E-01 1.16105E-33
4.56422E-01 1.05674E-33
4.60770E-01 9.58494E-34
4.65122E-01 8.66370E-34
4.69476E-01 7.80343E-34
4.73832E-01 7.00338E-34
4.78190E-01 6.26227E-34
4.82550E-01 5.57852E-34
4.86912E-01 4.95011E-34
4.91274E-01 4.37484E-34
4.95637E-01 3.85027E-34
5.00000E-01 3.37383E-34
5.04363E-01 2.94284E-34
5.08726E-01 2.55458E-34
5.13088E-01 2.20627E-34
5.17450E-01 1.89520E-34
5.21810E-01 1.61863E-34
5.26168E-01 1.37394E-34
5.30524E-01 1.15854E-34
5.34878E-01 9.69962E-35
5.39230E-01 8.05841E-35
5.43578E-01 6.63907E-35
5.47923E-01 5.42030E-35
5.52264E-01 4.38199E-35
5.56602E-01 3.50522E-35
5.60935E-01 2.77238E-35
5.65263E-01 2.16721E-35
5.69587E-01 1.67453E-35
5.73905E-01 1.28046E-35
5.78217E-01 9.72283E-36
5.82524E-01 7.38390E-36
5.86824E-01 5.68220E-36
5.91118E-01 4.52259E-36
5.95404E-01 3.81915E-36
5.99684E-01 3.49534E-36
6.03956E-01 3.48253E-36
6.08220E-01 3.72036E-36
6.12476E-01 4.15527E-36
6.16723E-01 4.74073E-36
6.20961E-01 5.43597E-36
6.25190E-01 6.20594E-36
6.29410E-01 7.02060E-36
6.33619E-01 7.85454E-36
6.37819E-01 8.68647E-36
6.42008E-01 9.49871E-36
6.46186E-01 1.02769E-35
6.50353E-01 1.10097E-35
6.54508E-01 1.16882E-35
6.58652E-01 1.23058E-35
6.62784E-01 1.28580E-35
6.66903E-01 1.33417E-35
6.71010E-01 1.37555E-35
6.75104E-01 1.40992E-35
6.79184E-01 1.43735E-35
6.83251E-01 1.45802E-35
6.87303E-01 1.47214E-35
6.91342E-01 1.48003E-35
6.95366E-01 1.48201E-35
6.99375E-01 1.47845E-35
7.03368E-01 1.46973E-35
7.07347E-01 1.45626E-35
7.11309E-01 1.43845E-35
7.15256E-01 1.41670E-35
7.19186E-01 1.39143E-35
7.23099E-01 1.36304E-35
7.26995E-01 1.33191E-35
7.30874E-01 1.29841E-35
7.34736E-01 1.26291E-35
7.38579E-01 1.22573E-35
7.42405E-01 1.18721E-35
7.46212E-01 1.14762E-35
7.50000E-01 1.10726E-35
7.53769E-01 1.06637E-35
7.57519E-01 1.02520E-35
7.61249E-01 9.83954E-36
7.64960E-01 9.42829E-36
7.68650E-01 9.02002E-36
7.72320E-01 8.61631E-36
7.75968E-01 8.21846E-36
7.79596E-01 7.82765E-36
7.83203E-01 7.44524E-36
7.86788E-01 7.07183E-36
7.90351E-01 6.70819E-36
7.93893E-01 6.35517E-36
7.97411E-01 6.01310E-36
8.00908E-01 5.68250E-36
8.04381E-01 5.36362E-36
8.07831E-01 5.05667E-36
8.11257E-01 4.76181E-36
8.14660E-01 4.47905E-36
8.18039E-01 4.20844E-36
8.21394E-01 3.94980E-36
8.24724E-01 3.70304E-36
8.28030E-01 3.46802E-36
8.31310E-01 3.24461E-36
8.34565E-01 3.03236E-36
8.37795E-01 2.83116E-36
8.40999E-01 2.64053E-36
8.44177E-01 2.46035E-36
8.47329E-01 2.29012E-36
8.50455E-01 2.12965E-36
8.53553E-01 1.97842E-36
8.56625E-01 1.83614E-36
8.59670E-01 1.70244E-36
8.62687E-01 1.57693E-36
8.65677E-01 1.45926E-36
8.68639E-01 1.34906E-36
8.71572E-01 1.24601E-36
8.74478E-01 1.14971E-36
8.77355E-01 1.05984E-36
8.80203E-01 9.76020E-37
8.83022E-01 8.97940E-37
8.85812E-01 8.25321E-37
8.88573E-01 7.57828E-37
8.91304E-01 6.95166E-37
8.94005E-01 6.37026E-37
8.96677E-01 5.83219E-37
8.99318E-01 5.33357E-37
9.01928E-01 4.87297E-37
9.04508E-01 4.44755E-37
9.07058E-01 4.05510E-37
9.09576E-01 3.69339E-37
9.12063E-01 3.36019E-37
9.14519E-01 3.05396E-37
9.16943E-01 2.77254E-37
9.19335E-01 2.51433E-37
9.21696E-01 2.27760E-37
9.24024E-01 2.06086E-37
9.26320E-01 1.86260E-37
9.28584E-01 1.68128E-37
9.30815E-01 1.51568E-37
9.33013E-01 1.36509E-37
9.35178E-01 1.22767E-37
9.37310E-01 1.10278E-37
9.39409E-01 9.89353E-38
9.41474E-01 8.86237E-38
9.43505E-01 7.92968E-38
9.45503E-01 7.08362E-38
9.47467E-01 6.31888E-38
9.49397E-01 5.63066E-38
9.51293E-01 5.00863E-38
9.53154E-01 4.44982E-38
9.54981E-01 3.94556E-38
9.56773E-01 3.49382E-38
9.58530E-01 3.08721E-38
9.60252E-01 2.72489E-38
9.61940E-01 2.40163E-38
9.63592E-01 2.11287E-38
9.65209E-01 1.85483E-38
9.66790E-01 1.62565E-38
9.68336E-01 1.42227E-38
9.69846E-01 1.24237E-38
9.71321E-01 1.08225E-38
9.72759E-01 9.41476E-39
9.74162E-01 8.18058E-39
9.75528E-01 7.08151E-39
9.76858E-01 6.12709E-39
9.78152E-01 5.28618E-39
9.79410E-01 4.54841E-39
9.80631E-01 3.90927E-39
9.81815E-01 3.35136E-39
9.82963E-01 2.86430E-39
9.84074E-01 2.44570E-39
9.85148E-01 2.08449E-39
9.86185E-01 1.77657E-39
9.87185E-01 1.50031E-39
9.88148E-01 1.27081E-39
9.89074E-01 1.07061E-39
9.89962E-01 9.03830E-40
9.90814E-01 7.56630E-40
9.91627E-01 6.36951E-40
9.92404E-01 5.28633E-40
9.93143E-01 4.40161E-40
9.93844E-01 3.65152E-40
9.94508E-01 3.02854E-40
9.95134E-01 2.48118E-40
9.95722E-01 2.04489E-40
9.96273E-01 1.66911E-40
9.96786E-01 1.36208E-40
9.97261E-01 1.08831E-40
9.97698E-01 8.66211E-41
9.98097E-01 6.80694E-41
9.98459E-01 5.25803E-41
9.98782E-01 3.92850E-41
9.99067E-01 3.01957E-41
9.99315E-01 2.11621E-41
9.99524E-01 1.46651E-41
9.99695E-01 8.67425E-42
9.99829E-01 5.43872E-42
9.99924E-01 2.20938E-42
9.99981E-01 4.86044E-43
1.00000E+00 1.06302E-43
