 #
 # Subroutine ELSEPA. Elastic scattering of electrons and positrons
 #                    by neutral atoms and positive ions
 #
 # Projectile: positron
 # Kinetic energy = 8.00000E+08 eV = 2.93995E+07 a.u.
 #
 # WARNING: High-energy factorization with free-atom DF screening.
 #          Absorption, polarization and exchange corrections are
 #          switched off.
 #          Phase shifts are calculated for the bare nucleus.
 #          Scattering amplitudes are not evaluated.
 #
 # Element: Cr,  Z =  24,  atomic weight = 5.19961E+01 g/mol
 #
 # Nuclear model: Fermi distribution
 #                Average radius = 3.99369E-13 cm
 #                Skin thickness = 5.46000E-14 cm
 #
 # Number of electrons = 24
 #
 # Total elastic cross section = 1.78153E-18 cm**2 = 6.36197E-02 a0**2
 # 1st transport cross section = 1.87607E-27 cm**2 = 6.69958E-11 a0**2
 # 2nd transport cross section = 5.62709E-27 cm**2 = 2.00947E-10 a0**2
 #
 #
 # Differential cross section:                       MU=(1-COS(THETA))/2
 #
 #  THETA        MU          DCS          DCS        Sherman      error
 #  (deg)                 (cm**2/sr)   (a0**2/sr)    function
 #----------------------------------------------------------------------
0.00000E+00 1.18464E-08
7.61557E-13 9.67603E-09
1.18994E-12 8.74439E-09
1.71346E-12 7.80704E-09
2.33225E-12 6.91430E-09
3.04617E-12 6.09655E-09
3.85530E-12 5.36733E-09
4.75964E-12 4.72817E-09
5.75917E-12 4.17423E-09
6.85391E-12 3.69596E-09
8.04379E-12 3.28451E-09
9.32893E-12 2.92896E-09
1.07092E-11 2.62183E-09
1.21847E-11 2.35453E-09
1.37554E-11 2.12144E-09
1.54213E-11 1.91677E-09
1.71823E-11 1.73636E-09
1.90386E-11 1.57665E-09
2.09900E-11 1.43443E-09
2.30367E-11 1.30769E-09
2.51785E-11 1.19382E-09
2.74156E-11 1.09182E-09
2.97478E-11 9.99508E-10
3.21752E-11 9.16419E-10
3.46979E-11 8.40953E-10
3.73157E-11 7.68872E-10
4.00286E-11 7.02645E-10
4.28368E-11 6.44556E-10
4.57402E-11 5.93410E-10
4.87388E-11 5.48211E-10
5.18325E-11 5.08125E-10
5.50215E-11 4.72452E-10
5.83057E-11 4.35807E-10
6.16850E-11 4.01500E-10
6.51595E-11 3.70911E-10
6.87293E-11 3.43555E-10
7.23943E-11 3.19024E-10
7.61544E-11 2.96965E-10
1.18991E-10 1.47013E-10
1.71347E-10 7.89968E-11
2.33223E-10 4.59897E-11
3.04617E-10 2.87403E-11
3.85531E-10 1.90556E-11
4.75965E-10 1.32300E-11
5.75917E-10 9.52507E-12
6.85389E-10 7.04503E-12
8.04380E-10 5.32973E-12
9.32891E-10 4.10092E-12
1.07092E-09 3.20403E-12
1.21847E-09 2.53485E-12
1.37554E-09 2.02893E-12
1.54213E-09 1.64065E-12
1.71823E-09 1.33921E-12
1.90386E-09 1.10276E-12
2.09900E-09 9.15390E-13
2.30367E-09 7.65751E-13
2.51785E-09 6.45114E-13
2.74156E-09 5.47191E-13
2.97478E-09 4.67009E-13
3.21752E-09 4.00951E-13
3.46978E-09 3.46126E-13
3.73156E-09 3.00310E-13
4.00286E-09 2.61858E-13
4.28368E-09 2.29438E-13
4.57402E-09 2.01844E-13
4.87388E-09 1.78305E-13
5.18326E-09 1.58132E-13
5.50215E-09 1.40714E-13
5.83057E-09 1.25656E-13
6.16850E-09 1.12571E-13
6.51596E-09 1.01144E-13
6.87293E-09 9.11486E-14
7.23942E-09 8.23573E-14
7.61544E-09 7.46045E-14
1.18991E-08 3.12095E-14
1.71347E-08 1.52829E-14
2.33223E-08 8.33704E-15
3.04617E-08 4.92283E-15
3.85531E-08 3.08880E-15
4.75965E-08 2.03371E-15
5.75917E-08 1.39255E-15
6.85389E-08 9.85024E-16
8.04380E-08 7.16114E-16
9.32891E-08 5.32945E-16
1.07092E-07 4.04728E-16
1.21847E-07 3.12829E-16
1.37554E-07 2.45580E-16
1.54213E-07 1.95461E-16
1.71823E-07 1.57494E-16
1.90386E-07 1.28310E-16
2.09900E-07 1.05582E-16
2.30367E-07 8.76689E-17
2.51785E-07 7.33977E-17
2.74156E-07 6.19152E-17
2.97478E-07 5.25923E-17
3.21752E-07 4.49596E-17
3.46978E-07 3.86624E-17
3.73156E-07 3.34300E-17
4.00286E-07 2.90534E-17
4.28368E-07 2.53700E-17
4.57402E-07 2.22523E-17
4.87388E-07 1.95990E-17
5.18325E-07 1.73296E-17
5.50215E-07 1.53793E-17
5.83057E-07 1.36958E-17
6.16850E-07 1.22365E-17
6.51596E-07 1.09664E-17
6.87293E-07 9.85695E-18
7.23942E-07 8.88427E-18
7.61543E-07 8.02866E-18
1.18991E-06 3.28855E-18
1.71347E-06 1.58583E-18
2.33223E-06 8.55926E-19
3.04617E-06 5.01684E-19
3.85531E-06 3.13169E-19
4.75964E-06 2.05450E-19
5.75916E-06 1.40311E-19
6.85388E-06 9.90589E-20
8.04378E-06 7.19118E-20
9.32888E-06 5.34584E-20
1.07092E-05 4.05619E-20
1.21846E-05 3.13298E-20
1.37553E-05 2.45808E-20
1.54212E-05 1.95549E-20
1.71822E-05 1.57502E-20
1.90385E-05 1.28265E-20
2.09899E-05 1.05521E-20
2.30365E-05 8.76002E-21
2.51783E-05 7.33239E-21
2.74153E-05 6.18381E-21
2.97475E-05 5.25142E-21
3.21749E-05 4.48826E-21
3.46974E-05 3.85886E-21
3.73152E-05 3.33606E-21
4.00281E-05 2.89892E-21
4.28362E-05 2.53109E-21
4.57395E-05 2.21979E-21
4.87380E-05 1.95487E-21
5.18317E-05 1.72829E-21
5.50205E-05 1.53358E-21
5.83045E-05 1.36552E-21
6.16838E-05 1.21985E-21
6.51582E-05 1.09310E-21
6.87277E-05 9.82401E-22
7.23925E-05 8.85367E-22
7.61524E-05 7.87387E-22
9.21439E-05 5.35475E-22
1.09658E-04 3.76273E-22
1.28695E-04 2.71762E-22
1.49255E-04 2.00897E-22
1.71338E-04 1.51515E-22
1.94942E-04 1.16271E-22
2.20070E-04 9.05910E-23
2.46720E-04 7.15357E-23
2.74892E-04 5.71645E-23
3.04586E-04 4.61691E-23
3.35803E-04 3.76461E-23
3.68542E-04 3.09623E-23
4.02802E-04 2.56646E-23
4.38585E-04 2.14250E-23
4.75889E-04 1.80022E-23
5.14715E-04 1.52162E-23
5.55063E-04 1.29317E-23
5.96931E-04 1.10455E-23
6.40321E-04 9.47830E-24
6.85233E-04 8.16840E-24
7.31665E-04 7.06755E-24
7.79618E-04 6.13770E-24
8.29092E-04 5.34851E-24
8.80086E-04 4.67574E-24
9.32601E-04 4.09982E-24
9.86636E-04 3.60487E-24
1.04219E-03 3.17797E-24
1.09927E-03 2.80847E-24
1.15786E-03 2.48762E-24
1.21797E-03 2.20817E-24
1.27961E-03 1.96407E-24
1.34276E-03 1.75027E-24
1.40743E-03 1.56252E-24
1.47362E-03 1.39725E-24
1.54133E-03 1.25143E-24
1.61056E-03 1.12249E-24
1.68131E-03 1.00825E-24
1.75357E-03 9.06824E-25
1.82735E-03 8.16612E-25
1.90265E-03 7.36231E-25
1.97947E-03 6.64492E-25
2.05780E-03 6.00362E-25
2.13765E-03 5.42949E-25
2.21902E-03 4.91475E-25
2.30190E-03 4.45263E-25
2.38630E-03 4.03722E-25
2.47222E-03 3.66333E-25
2.55965E-03 3.32642E-25
2.64859E-03 3.02250E-25
2.73905E-03 2.74806E-25
2.83103E-03 2.49998E-25
2.92452E-03 2.27552E-25
3.01952E-03 2.07225E-25
3.11604E-03 1.88802E-25
3.21407E-03 1.72090E-25
3.31362E-03 1.56919E-25
3.41468E-03 1.43138E-25
3.51725E-03 1.30610E-25
3.62133E-03 1.19214E-25
3.72692E-03 1.08842E-25
3.83403E-03 9.93958E-26
3.94265E-03 9.07891E-26
4.05278E-03 8.29430E-26
4.16442E-03 7.57869E-26
4.27757E-03 6.92575E-26
4.39223E-03 6.32974E-26
4.50840E-03 5.78550E-26
4.62608E-03 5.28836E-26
4.74527E-03 4.83410E-26
4.86597E-03 4.41891E-26
4.98817E-03 4.03933E-26
5.11188E-03 3.69222E-26
5.23711E-03 3.37475E-26
5.36383E-03 3.08432E-26
5.49207E-03 2.81860E-26
5.62181E-03 2.57545E-26
5.75306E-03 2.35293E-26
5.88581E-03 2.14927E-26
6.02007E-03 1.96287E-26
6.15583E-03 1.79226E-26
6.29310E-03 1.63609E-26
6.43187E-03 1.49315E-26
6.57214E-03 1.36232E-26
6.71392E-03 1.24258E-26
6.85720E-03 1.13300E-26
7.00198E-03 1.03273E-26
7.14827E-03 9.40987E-27
7.29605E-03 8.57062E-27
7.44534E-03 7.80301E-27
7.59612E-03 7.10106E-27
7.97965E-03 5.59863E-27
8.37255E-03 4.39977E-27
8.77480E-03 3.44505E-27
9.18641E-03 2.68656E-27
9.60736E-03 2.08567E-27
1.00376E-02 1.61118E-27
1.04773E-02 1.23788E-27
1.09262E-02 9.45448E-28
1.13844E-02 7.17470E-28
1.18520E-02 5.40715E-28
1.23288E-02 4.04526E-28
1.28150E-02 3.00336E-28
1.33104E-02 2.21270E-28
1.38150E-02 1.61825E-28
1.43290E-02 1.17611E-28
1.48521E-02 8.51333E-29
1.53845E-02 6.16256E-29
1.59262E-02 4.49065E-29
1.64770E-02 3.32659E-29
1.70371E-02 2.53714E-29
1.76063E-02 2.01930E-29
1.81848E-02 1.69415E-29
1.87724E-02 1.50186E-29
1.93692E-02 1.39765E-29
1.99751E-02 1.34853E-29
2.05901E-02 1.33071E-29
2.12143E-02 1.32745E-29
2.18476E-02 1.32744E-29
2.24900E-02 1.32341E-29
2.31415E-02 1.31109E-29
2.38021E-02 1.28842E-29
2.44717E-02 1.25485E-29
2.51504E-02 1.21090E-29
2.58382E-02 1.15774E-29
2.65349E-02 1.09693E-29
2.72407E-02 1.03020E-29
2.79555E-02 9.59317E-30
2.86793E-02 8.85977E-30
2.94120E-02 8.11726E-30
3.01537E-02 7.37932E-30
3.09043E-02 6.65762E-30
3.16639E-02 5.96175E-30
3.24324E-02 5.29928E-30
3.32098E-02 4.67590E-30
3.39961E-02 4.09557E-30
3.47912E-02 3.56073E-30
3.55952E-02 3.07249E-30
3.64081E-02 2.63086E-30
3.72297E-02 2.23492E-30
3.80602E-02 1.88305E-30
3.88995E-02 1.57303E-30
3.97476E-02 1.30226E-30
4.06044E-02 1.06786E-30
4.14700E-02 8.66804E-31
4.23443E-02 6.95972E-31
4.32273E-02 5.52276E-31
4.41190E-02 4.32701E-31
4.50194E-02 3.34355E-31
4.59284E-02 2.54509E-31
4.68461E-02 1.90622E-31
4.87074E-02 1.01579E-31
5.06030E-02 5.10672E-32
5.25328E-02 2.62763E-32
5.44967E-02 1.74802E-32
5.64946E-02 1.76302E-32
5.85262E-02 2.18855E-32
6.05914E-02 2.71432E-32
6.26901E-02 3.16057E-32
6.48222E-02 3.44066E-32
6.69873E-02 3.53039E-32
6.91854E-02 3.44391E-32
7.14163E-02 3.21586E-32
7.36799E-02 2.88877E-32
7.59760E-02 2.50480E-32
7.83043E-02 2.10083E-32
8.06647E-02 1.70615E-32
8.30571E-02 1.34171E-32
8.54812E-02 1.02068E-32
8.79369E-02 7.49571E-33
9.04240E-02 5.29582E-33
9.29422E-02 3.58105E-33
9.54915E-02 2.30037E-33
9.80716E-02 1.38914E-33
1.00682E-01 7.78013E-34
1.03323E-01 3.99508E-34
1.05995E-01 1.92312E-34
1.08696E-01 1.03799E-34
1.11427E-01 9.10755E-35
1.14188E-01 1.20943E-34
1.16978E-01 1.69135E-34
1.19797E-01 2.19129E-34
1.22645E-01 2.60747E-34
1.25522E-01 2.88736E-34
1.28428E-01 3.01439E-34
1.31361E-01 2.99636E-34
1.34323E-01 2.85576E-34
1.37313E-01 2.62237E-34
1.40330E-01 2.32767E-34
1.43375E-01 2.00112E-34
1.46447E-01 1.66792E-34
1.49545E-01 1.34787E-34
1.52671E-01 1.05512E-34
1.55823E-01 7.98561E-35
1.59001E-01 5.82486E-35
1.62205E-01 4.07517E-35
1.65435E-01 2.71528E-35
1.68690E-01 1.70549E-35
1.71970E-01 9.95377E-36
1.75276E-01 5.30282E-36
1.78606E-01 2.56188E-36
1.81961E-01 1.23185E-36
1.85340E-01 8.76596E-37
1.88743E-01 1.13376E-36
1.92169E-01 1.71737E-36
1.95619E-01 2.41443E-36
1.99092E-01 3.07718E-36
2.02589E-01 3.61325E-36
2.06107E-01 3.97471E-36
2.09649E-01 4.14744E-36
2.13212E-01 4.14114E-36
2.16797E-01 3.98080E-36
2.20404E-01 3.69969E-36
2.24032E-01 3.33377E-36
2.27680E-01 2.91780E-36
2.31350E-01 2.48266E-36
2.35040E-01 2.05388E-36
2.38751E-01 1.65096E-36
2.42481E-01 1.28749E-36
2.46231E-01 9.71595E-37
2.50000E-01 7.06777E-37
2.53788E-01 4.92793E-37
2.57595E-01 3.26617E-37
2.61421E-01 2.03324E-37
2.65264E-01 1.16865E-37
2.69126E-01 6.07337E-38
2.73005E-01 2.84694E-38
2.76901E-01 1.40334E-38
2.80814E-01 1.20852E-38
2.84744E-01 1.80886E-38
2.88691E-01 2.83862E-38
2.92653E-01 4.01858E-38
2.96632E-01 5.14816E-38
3.00625E-01 6.09524E-38
3.04634E-01 6.78583E-38
3.08658E-01 7.19035E-38
3.12697E-01 7.31297E-38
3.16749E-01 7.18117E-38
3.20816E-01 6.83637E-38
3.24896E-01 6.32734E-38
3.28990E-01 5.70382E-38
3.33097E-01 5.01363E-38
3.37216E-01 4.29911E-38
3.41348E-01 3.59567E-38
3.45492E-01 2.93113E-38
3.49647E-01 2.32569E-38
3.53814E-01 1.79212E-38
3.57992E-01 1.33680E-38
3.62181E-01 9.60758E-39
3.66381E-01 6.60750E-39
3.70590E-01 4.30451E-39
3.74810E-01 1.00000E-45
3.79039E-01 1.00000E-45
3.83277E-01 1.00000E-45
3.87524E-01 1.00000E-45
3.91780E-01 1.00000E-45
3.96044E-01 1.00000E-45
4.00316E-01 1.00000E-45
4.04596E-01 1.00000E-45
4.08882E-01 1.00000E-45
4.13176E-01 1.00000E-45
4.17476E-01 1.00000E-45
4.21783E-01 1.00000E-45
4.26095E-01 1.00000E-45
4.30413E-01 1.00000E-45
4.34737E-01 1.00000E-45
4.39065E-01 1.00000E-45
4.43398E-01 1.00000E-45
4.47736E-01 1.00000E-45
4.52077E-01 1.00000E-45
4.56422E-01 1.00000E-45
4.60770E-01 1.00000E-45
4.65122E-01 1.00000E-45
4.69476E-01 1.00000E-45
4.73832E-01 1.00000E-45
4.78190E-01 1.00000E-45
4.82550E-01 1.00000E-45
4.86912E-01 1.00000E-45
4.91274E-01 1.00000E-45
4.95637E-01 1.00000E-45
5.00000E-01 1.00000E-45
5.04363E-01 1.00000E-45
5.08726E-01 1.00000E-45
5.13088E-01 1.00000E-45
5.17450E-01 1.00000E-45
5.21810E-01 1.00000E-45
5.26168E-01 1.00000E-45
5.30524E-01 1.00000E-45
5.34878E-01 1.00000E-45
5.39230E-01 1.00000E-45
5.43578E-01 1.00000E-45
5.47923E-01 1.00000E-45
5.52264E-01 1.00000E-45
5.56602E-01 1.00000E-45
5.60935E-01 1.00000E-45
5.65263E-01 1.00000E-45
5.69587E-01 1.00000E-45
5.73905E-01 1.00000E-45
5.78217E-01 1.00000E-45
5.82524E-01 1.00000E-45
5.86824E-01 1.00000E-45
5.91118E-01 1.00000E-45
5.95404E-01 1.00000E-45
5.99684E-01 1.00000E-45
6.03956E-01 1.00000E-45
6.08220E-01 1.00000E-45
6.12476E-01 1.00000E-45
6.16723E-01 1.00000E-45
6.20961E-01 1.00000E-45
6.25190E-01 1.00000E-45
6.29410E-01 1.00000E-45
6.33619E-01 1.00000E-45
6.37819E-01 1.00000E-45
6.42008E-01 1.00000E-45
6.46186E-01 1.00000E-45
6.50353E-01 1.00000E-45
6.54508E-01 1.00000E-45
6.58652E-01 1.00000E-45
6.62784E-01 1.00000E-45
6.66903E-01 1.00000E-45
6.71010E-01 1.00000E-45
6.75104E-01 1.00000E-45
6.79184E-01 1.00000E-45
6.83251E-01 1.00000E-45
6.87303E-01 1.00000E-45
6.91342E-01 1.00000E-45
6.95366E-01 1.00000E-45
6.99375E-01 1.00000E-45
7.03368E-01 1.00000E-45
7.07347E-01 1.00000E-45
7.11309E-01 1.00000E-45
7.15256E-01 1.00000E-45
7.19186E-01 1.00000E-45
7.23099E-01 1.00000E-45
7.26995E-01 1.00000E-45
7.30874E-01 1.00000E-45
7.34736E-01 1.00000E-45
7.38579E-01 1.00000E-45
7.42405E-01 1.00000E-45
7.46212E-01 1.00000E-45
7.50000E-01 1.00000E-45
7.53769E-01 1.00000E-45
7.57519E-01 1.00000E-45
7.61249E-01 1.00000E-45
7.64960E-01 1.00000E-45
7.68650E-01 1.00000E-45
7.72320E-01 1.00000E-45
7.75968E-01 1.00000E-45
7.79596E-01 1.00000E-45
7.83203E-01 1.00000E-45
7.86788E-01 1.00000E-45
7.90351E-01 1.00000E-45
7.93893E-01 1.00000E-45
7.97411E-01 1.00000E-45
8.00908E-01 1.00000E-45
8.04381E-01 1.00000E-45
8.07831E-01 1.00000E-45
8.11257E-01 1.00000E-45
8.14660E-01 1.00000E-45
8.18039E-01 1.00000E-45
8.21394E-01 1.00000E-45
8.24724E-01 1.00000E-45
8.28030E-01 1.00000E-45
8.31310E-01 1.00000E-45
8.34565E-01 1.00000E-45
8.37795E-01 1.00000E-45
8.40999E-01 1.00000E-45
8.44177E-01 1.00000E-45
8.47329E-01 1.00000E-45
8.50455E-01 1.00000E-45
8.53553E-01 1.00000E-45
8.56625E-01 1.00000E-45
8.59670E-01 1.00000E-45
8.62687E-01 1.00000E-45
8.65677E-01 1.00000E-45
8.68639E-01 1.00000E-45
8.71572E-01 1.00000E-45
8.74478E-01 1.00000E-45
8.77355E-01 1.00000E-45
8.80203E-01 1.00000E-45
8.83022E-01 1.00000E-45
8.85812E-01 1.00000E-45
8.88573E-01 1.00000E-45
8.91304E-01 1.00000E-45
8.94005E-01 1.00000E-45
8.96677E-01 1.00000E-45
8.99318E-01 1.00000E-45
9.01928E-01 1.00000E-45
9.04508E-01 1.00000E-45
9.07058E-01 1.00000E-45
9.09576E-01 1.00000E-45
9.12063E-01 1.00000E-45
9.14519E-01 1.00000E-45
9.16943E-01 1.00000E-45
9.19335E-01 1.00000E-45
9.21696E-01 1.00000E-45
9.24024E-01 1.00000E-45
9.26320E-01 1.00000E-45
9.28584E-01 1.00000E-45
9.30815E-01 1.00000E-45
9.33013E-01 1.00000E-45
9.35178E-01 1.00000E-45
9.37310E-01 1.00000E-45
9.39409E-01 1.00000E-45
9.41474E-01 1.00000E-45
9.43505E-01 1.00000E-45
9.45503E-01 1.00000E-45
9.47467E-01 1.00000E-45
9.49397E-01 1.00000E-45
9.51293E-01 1.00000E-45
9.53154E-01 1.00000E-45
9.54981E-01 1.00000E-45
9.56773E-01 1.00000E-45
9.58530E-01 1.00000E-45
9.60252E-01 1.00000E-45
9.61940E-01 1.00000E-45
9.63592E-01 1.00000E-45
9.65209E-01 1.00000E-45
9.66790E-01 1.00000E-45
9.68336E-01 1.00000E-45
9.69846E-01 1.00000E-45
9.71321E-01 1.00000E-45
9.72759E-01 1.00000E-45
9.74162E-01 1.00000E-45
9.75528E-01 1.00000E-45
9.76858E-01 1.00000E-45
9.78152E-01 1.00000E-45
9.79410E-01 1.00000E-45
9.80631E-01 1.00000E-45
9.81815E-01 1.00000E-45
9.82963E-01 1.00000E-45
9.84074E-01 1.00000E-45
9.85148E-01 1.00000E-45
9.86185E-01 1.00000E-45
9.87185E-01 1.00000E-45
9.88148E-01 1.00000E-45
9.89074E-01 1.00000E-45
9.89962E-01 1.00000E-45
9.90814E-01 1.00000E-45
9.91627E-01 1.00000E-45
9.92404E-01 1.00000E-45
9.93143E-01 1.00000E-45
9.93844E-01 1.00000E-45
9.94508E-01 1.00000E-45
9.95134E-01 1.00000E-45
9.95722E-01 1.00000E-45
9.96273E-01 1.00000E-45
9.96786E-01 1.00000E-45
9.97261E-01 1.00000E-45
9.97698E-01 1.00000E-45
9.98097E-01 1.00000E-45
9.98459E-01 1.00000E-45
9.98782E-01 1.00000E-45
9.99067E-01 1.00000E-45
9.99315E-01 1.00000E-45
9.99524E-01 1.00000E-45
9.99695E-01 1.00000E-45
9.99829E-01 1.00000E-45
9.99924E-01 1.00000E-45
9.99981E-01 1.00000E-45
1.00000E+00 1.00000E-45
