 #
 # Subroutine ELSEPA. Elastic scattering of electrons and positrons
 #                    by neutral atoms and positive ions
 #
 # Projectile: positron
 # Kinetic energy = 5.00000E+08 eV = 1.83747E+07 a.u.
 #
 # WARNING: High-energy factorization with free-atom DF screening.
 #          Absorption, polarization and exchange corrections are
 #          switched off.
 #          Phase shifts are calculated for the bare nucleus.
 #          Scattering amplitudes are not evaluated.
 #
 # Element: Cr,  Z =  24,  atomic weight = 5.19961E+01 g/mol
 #
 # Nuclear model: Fermi distribution
 #                Average radius = 3.99369E-13 cm
 #                Skin thickness = 5.46000E-14 cm
 #
 # Number of electrons = 24
 #
 # Total elastic cross section = 1.78766E-18 cm**2 = 6.38386E-02 a0**2
 # 1st transport cross section = 4.79180E-27 cm**2 = 1.71118E-10 a0**2
 # 2nd transport cross section = 1.43680E-26 cm**2 = 5.13090E-10 a0**2
 #
 #
 # Differential cross section:                       MU=(1-COS(THETA))/2
 #
 #  THETA        MU          DCS          DCS        Sherman      error
 #  (deg)                 (cm**2/sr)   (a0**2/sr)    function
 #----------------------------------------------------------------------
0.00000E+00 4.63105E-09
7.61557E-13 4.26282E-09
1.18994E-12 4.07754E-09
1.71346E-12 3.86970E-09
2.33225E-12 3.64727E-09
3.04617E-12 3.41771E-09
3.85530E-12 3.18743E-09
4.75964E-12 2.96165E-09
5.75917E-12 2.74430E-09
6.85391E-12 2.53811E-09
8.04379E-12 2.34481E-09
9.32893E-12 2.16521E-09
1.07092E-11 1.99953E-09
1.21847E-11 1.84746E-09
1.37554E-11 1.70840E-09
1.54213E-11 1.58152E-09
1.71823E-11 1.46592E-09
1.90386E-11 1.36062E-09
2.09900E-11 1.26470E-09
2.30367E-11 1.17725E-09
2.51785E-11 1.09739E-09
2.74156E-11 1.02430E-09
2.97478E-11 9.57352E-10
3.21752E-11 8.95927E-10
3.46979E-11 8.39460E-10
3.73157E-11 7.87455E-10
4.00286E-11 7.39466E-10
4.28368E-11 6.95102E-10
4.57402E-11 6.54016E-10
4.87388E-11 6.15898E-10
5.18325E-11 5.80477E-10
5.50215E-11 5.47511E-10
5.83057E-11 5.16720E-10
6.16850E-11 4.87976E-10
6.51595E-11 4.61118E-10
6.87293E-11 4.35992E-10
7.23943E-11 4.12462E-10
7.61544E-11 3.90404E-10
1.18991E-10 2.27139E-10
1.71347E-10 1.39350E-10
2.33223E-10 8.80981E-11
3.04617E-10 5.73970E-11
3.85531E-10 3.85789E-11
4.75965E-10 2.67603E-11
5.75917E-10 1.91384E-11
6.85389E-10 1.40803E-11
8.04380E-10 1.06281E-11
9.32891E-10 8.20434E-12
1.07092E-09 6.45649E-12
1.21847E-09 5.16507E-12
1.37554E-09 4.19000E-12
1.54213E-09 3.43959E-12
1.71823E-09 2.85240E-12
1.90386E-09 2.38625E-12
2.09900E-09 2.01159E-12
2.30367E-09 1.70726E-12
2.51785E-09 1.45746E-12
2.74156E-09 1.25081E-12
2.97478E-09 1.07891E-12
3.21752E-09 9.35013E-13
3.46978E-09 8.13854E-13
3.73156E-09 7.11295E-13
4.00286E-09 6.24056E-13
4.28368E-09 5.49514E-13
4.57402E-09 4.85554E-13
4.87388E-09 4.30461E-13
5.18326E-09 3.82831E-13
5.50215E-09 3.41511E-13
5.83057E-09 3.05531E-13
6.16850E-09 2.74115E-13
6.51596E-09 2.46599E-13
6.87293E-09 2.22423E-13
7.23942E-09 2.01119E-13
7.61544E-09 1.82291E-13
1.18991E-08 7.63517E-14
1.71347E-08 3.74646E-14
2.33223E-08 2.05258E-14
3.04617E-08 1.21819E-14
3.85531E-08 7.68265E-15
4.75965E-08 5.08188E-15
5.75917E-08 3.49349E-15
6.85389E-08 2.47917E-15
8.04380E-08 1.80721E-15
9.32891E-08 1.34792E-15
1.07092E-07 1.02546E-15
1.21847E-07 7.93767E-16
1.37554E-07 6.23878E-16
1.54213E-07 4.97043E-16
1.71823E-07 4.00819E-16
1.90386E-07 3.26769E-16
2.09900E-07 2.69039E-16
2.30367E-07 2.23500E-16
2.51785E-07 1.87192E-16
2.74156E-07 1.57961E-16
2.97478E-07 1.34216E-16
3.21752E-07 1.14766E-16
3.46978E-07 9.87127E-17
3.73156E-07 8.53693E-17
4.00286E-07 7.42050E-17
4.28368E-07 6.48067E-17
4.57402E-07 5.68496E-17
4.87388E-07 5.00766E-17
5.18325E-07 4.42825E-17
5.50215E-07 3.93024E-17
5.83057E-07 3.50029E-17
6.16850E-07 3.12753E-17
6.51596E-07 2.80309E-17
6.87293E-07 2.51964E-17
7.23942E-07 2.27112E-17
7.61543E-07 2.05249E-17
1.18991E-06 8.40940E-18
1.71347E-06 4.05577E-18
2.33223E-06 2.18918E-18
3.04617E-06 1.28320E-18
3.85531E-06 8.01038E-19
4.75964E-06 5.25518E-19
5.75916E-06 3.58904E-19
6.85388E-06 2.53387E-19
8.04378E-06 1.83947E-19
9.32888E-06 1.36745E-19
1.07092E-05 1.03756E-19
1.21846E-05 8.01413E-20
1.37553E-05 6.28776E-20
1.54212E-05 5.00215E-20
1.71822E-05 4.02891E-20
1.90385E-05 3.28103E-20
2.09899E-05 2.69926E-20
2.30365E-05 2.24084E-20
2.51783E-05 1.87565E-20
2.74153E-05 1.58184E-20
2.97475E-05 1.34333E-20
3.21749E-05 1.14812E-20
3.46974E-05 9.87113E-21
3.73152E-05 8.53379E-21
4.00281E-05 7.41555E-21
4.28362E-05 6.47464E-21
4.57395E-05 5.67831E-21
4.87380E-05 5.00065E-21
5.18317E-05 4.42104E-21
5.50205E-05 3.92296E-21
5.83045E-05 3.49305E-21
6.16838E-05 3.12043E-21
6.51582E-05 2.79620E-21
6.87277E-05 2.51302E-21
7.23925E-05 2.26481E-21
7.61524E-05 2.03598E-21
9.21439E-05 1.38817E-21
1.09658E-04 9.78246E-22
1.28695E-04 7.08762E-22
1.49255E-04 5.25748E-22
1.71338E-04 3.97993E-22
1.94942E-04 3.06643E-22
2.20070E-04 2.39947E-22
2.46720E-04 1.90348E-22
2.74892E-04 1.52852E-22
3.04586E-04 1.24091E-22
3.35803E-04 1.01737E-22
3.68542E-04 8.41568E-23
4.02802E-04 7.01803E-23
4.38585E-04 5.89591E-23
4.75889E-04 4.98690E-23
5.14715E-04 4.24438E-23
5.55063E-04 3.63324E-23
5.96931E-04 3.12666E-23
6.40321E-04 2.70401E-23
6.85233E-04 2.34923E-23
7.31665E-04 2.04973E-23
7.79618E-04 1.79556E-23
8.29092E-04 1.57879E-23
8.80086E-04 1.39304E-23
9.32601E-04 1.23320E-23
9.86636E-04 1.09507E-23
1.04219E-03 9.75248E-24
1.09927E-03 8.70923E-24
1.15786E-03 7.79777E-24
1.21797E-03 6.99883E-24
1.27961E-03 6.29635E-24
1.34276E-03 5.67686E-24
1.40743E-03 5.12902E-24
1.47362E-03 4.64326E-24
1.54133E-03 4.21144E-24
1.61056E-03 3.82665E-24
1.68131E-03 3.48297E-24
1.75357E-03 3.17532E-24
1.82735E-03 2.89936E-24
1.90265E-03 2.65132E-24
1.97947E-03 2.42794E-24
2.05780E-03 2.22640E-24
2.13765E-03 2.04425E-24
2.21902E-03 1.87933E-24
2.30190E-03 1.72977E-24
2.38630E-03 1.59393E-24
2.47222E-03 1.47036E-24
2.55965E-03 1.35780E-24
2.64859E-03 1.25512E-24
2.73905E-03 1.16132E-24
2.83103E-03 1.07553E-24
2.92452E-03 9.96964E-25
3.01952E-03 9.24931E-25
3.11604E-03 8.58808E-25
3.21407E-03 7.98045E-25
3.31362E-03 7.42146E-25
3.41468E-03 6.90668E-25
3.51725E-03 6.43214E-25
3.62133E-03 5.99427E-25
3.72692E-03 5.58987E-25
3.83403E-03 5.21602E-25
3.94265E-03 4.87013E-25
4.05278E-03 4.54984E-25
4.16442E-03 4.25299E-25
4.27757E-03 3.97767E-25
4.39223E-03 3.72212E-25
4.50840E-03 3.48473E-25
4.62608E-03 3.26407E-25
4.74527E-03 3.05880E-25
4.86597E-03 2.86773E-25
4.98817E-03 2.68977E-25
5.11188E-03 2.52390E-25
5.23711E-03 2.36921E-25
5.36383E-03 2.22486E-25
5.49207E-03 2.09009E-25
5.62181E-03 1.96418E-25
5.75306E-03 1.84650E-25
5.88581E-03 1.73645E-25
6.02007E-03 1.63347E-25
6.15583E-03 1.53708E-25
6.29310E-03 1.44681E-25
6.43187E-03 1.36222E-25
6.57214E-03 1.28293E-25
6.71392E-03 1.20857E-25
6.85720E-03 1.13881E-25
7.00198E-03 1.07333E-25
7.14827E-03 1.01185E-25
7.29605E-03 9.54111E-26
7.44534E-03 8.99854E-26
7.59612E-03 8.48855E-26
7.97965E-03 7.34256E-26
8.37255E-03 6.35816E-26
8.77480E-03 5.51099E-26
9.18641E-03 4.78069E-26
9.60736E-03 4.15015E-26
1.00376E-02 3.60499E-26
1.04773E-02 3.13303E-26
1.09262E-02 2.72397E-26
1.13844E-02 2.36907E-26
1.18520E-02 2.06086E-26
1.23288E-02 1.79299E-26
1.28150E-02 1.56001E-26
1.33104E-02 1.35725E-26
1.38150E-02 1.18070E-26
1.43290E-02 1.02691E-26
1.48521E-02 8.92898E-27
1.53845E-02 7.76095E-27
1.59262E-02 6.74273E-27
1.64770E-02 5.85506E-27
1.70371E-02 5.08121E-27
1.76063E-02 4.40664E-27
1.81848E-02 3.81874E-27
1.87724E-02 3.30650E-27
1.93692E-02 2.86033E-27
1.99751E-02 2.47189E-27
2.05901E-02 2.13387E-27
2.12143E-02 1.83991E-27
2.18476E-02 1.58444E-27
2.24900E-02 1.36259E-27
2.31415E-02 1.17010E-27
2.38021E-02 1.00325E-27
2.44717E-02 8.58768E-28
2.51504E-02 7.33807E-28
2.58382E-02 6.25864E-28
2.65349E-02 5.32749E-28
2.72407E-02 4.52544E-28
2.79555E-02 3.83570E-28
2.86793E-02 3.24359E-28
2.94120E-02 2.73623E-28
3.01537E-02 2.30239E-28
3.09043E-02 1.93222E-28
3.16639E-02 1.61714E-28
3.24324E-02 1.34963E-28
3.32098E-02 1.12314E-28
3.39961E-02 9.31967E-29
3.47912E-02 7.71130E-29
3.55952E-02 6.36300E-29
3.64081E-02 5.23712E-29
3.72297E-02 4.30098E-29
3.80602E-02 3.52627E-29
3.88995E-02 2.88845E-29
3.97476E-02 2.36636E-29
4.06044E-02 1.94172E-29
4.14700E-02 1.59880E-29
4.23443E-02 1.32410E-29
4.32273E-02 1.10607E-29
4.41190E-02 9.34803E-30
4.50194E-02 8.01905E-30
4.59284E-02 7.00227E-30
4.68461E-02 6.23732E-30
4.87074E-02 5.26770E-30
5.06030E-02 4.79542E-30
5.25328E-02 4.60418E-30
5.44967E-02 4.54973E-30
5.64946E-02 4.53986E-30
5.85262E-02 4.51933E-30
6.05914E-02 4.45850E-30
6.26901E-02 4.34502E-30
6.48222E-02 4.17771E-30
6.69873E-02 3.96215E-30
6.91854E-02 3.70753E-30
7.14163E-02 3.42461E-30
7.36799E-02 3.12422E-30
7.59760E-02 2.81641E-30
7.83043E-02 2.50995E-30
8.06647E-02 2.21211E-30
8.30571E-02 1.92857E-30
8.54812E-02 1.66348E-30
8.79369E-02 1.41967E-30
9.04240E-02 1.19874E-30
9.29422E-02 1.00130E-30
9.54915E-02 8.27176E-31
9.80716E-02 6.75546E-31
1.00682E-01 5.45144E-31
1.03323E-01 4.34383E-31
1.05995E-01 3.41483E-31
1.08696E-01 2.64571E-31
1.11427E-01 2.01760E-31
1.14188E-01 1.51208E-31
1.16978E-01 1.11168E-31
1.19797E-01 8.00155E-32
1.22645E-01 5.62701E-32
1.25522E-01 3.86052E-32
1.28428E-01 2.58512E-32
1.31361E-01 1.69926E-32
1.34323E-01 1.11610E-32
1.37313E-01 7.62493E-33
1.40330E-01 5.77804E-33
1.43375E-01 5.12624E-33
1.46447E-01 5.27432E-33
1.49545E-01 5.91288E-33
1.52671E-01 6.80577E-33
1.55823E-01 7.77833E-33
1.59001E-01 8.70673E-33
1.62205E-01 9.50830E-33
1.65435E-01 1.01330E-32
1.68690E-01 1.05563E-32
1.71970E-01 1.07724E-32
1.75276E-01 1.07895E-32
1.78606E-01 1.06252E-32
1.81961E-01 1.03030E-32
1.85340E-01 9.84960E-33
1.88743E-01 9.29260E-33
1.92169E-01 8.65918E-33
1.95619E-01 7.97478E-33
1.99092E-01 7.26240E-33
2.02589E-01 6.54218E-33
2.06107E-01 5.83113E-33
2.09649E-01 5.14317E-33
2.13212E-01 4.48919E-33
2.16797E-01 3.87732E-33
2.20404E-01 3.31312E-33
2.24032E-01 2.79996E-33
2.27680E-01 2.33929E-33
2.31350E-01 1.93098E-33
2.35040E-01 1.57364E-33
2.38751E-01 1.26488E-33
2.42481E-01 1.00160E-33
2.46231E-01 7.80186E-34
2.50000E-01 5.96718E-34
2.53788E-01 4.47146E-34
2.57595E-01 3.27417E-34
2.61421E-01 2.33585E-34
2.65264E-01 1.61893E-34
2.69126E-01 1.08835E-34
2.73005E-01 7.11945E-35
2.76901E-01 4.60681E-35
2.80814E-01 3.08803E-35
2.84744E-01 2.33773E-35
2.88691E-01 2.16199E-35
2.92653E-01 2.39672E-35
2.96632E-01 2.90549E-35
3.00625E-01 3.57711E-35
3.04634E-01 4.32311E-35
3.08658E-01 5.07501E-35
3.12697E-01 5.78173E-35
3.16749E-01 6.40706E-35
3.20816E-01 6.92722E-35
3.24896E-01 7.32872E-35
3.28990E-01 7.60625E-35
3.33097E-01 7.76101E-35
3.37216E-01 7.79901E-35
3.41348E-01 7.72981E-35
3.45492E-01 7.56531E-35
3.49647E-01 7.31880E-35
3.53814E-01 7.00418E-35
3.57992E-01 6.63536E-35
3.62181E-01 6.22572E-35
3.66381E-01 5.78783E-35
3.70590E-01 5.33314E-35
3.74810E-01 4.87187E-35
3.79039E-01 4.41289E-35
3.83277E-01 3.96371E-35
3.87524E-01 3.53051E-35
3.91780E-01 3.11821E-35
3.96044E-01 2.73053E-35
4.00316E-01 2.37012E-35
4.04596E-01 2.03866E-35
4.08882E-01 1.73700E-35
4.13176E-01 1.46525E-35
4.17476E-01 1.22296E-35
4.21783E-01 1.00915E-35
4.26095E-01 8.22451E-36
4.30413E-01 6.61241E-36
4.34737E-01 5.23670E-36
4.39065E-01 4.07765E-36
4.43398E-01 3.11473E-36
4.47736E-01 2.32755E-36
4.52077E-01 1.69583E-36
4.56422E-01 1.20009E-36
4.60770E-01 8.21796E-37
4.65122E-01 5.43603E-37
4.69476E-01 3.49469E-37
4.73832E-01 2.24750E-37
4.78190E-01 1.56372E-37
4.82550E-01 1.32465E-37
4.86912E-01 1.42834E-37
4.91274E-01 1.78501E-37
4.95637E-01 2.31828E-37
5.00000E-01 2.96355E-37
5.04363E-01 3.66740E-37
5.08726E-01 4.38645E-37
5.13088E-01 5.08634E-37
5.17450E-01 5.74040E-37
5.21810E-01 6.32927E-37
5.26168E-01 6.83925E-37
5.30524E-01 7.26201E-37
5.34878E-01 7.59329E-37
5.39230E-01 7.83239E-37
5.43578E-01 7.98139E-37
5.47923E-01 8.04463E-37
5.52264E-01 8.02804E-37
5.56602E-01 7.93870E-37
5.60935E-01 7.78445E-37
5.65263E-01 7.57371E-37
5.69587E-01 7.31481E-37
5.73905E-01 7.01603E-37
5.78217E-01 6.68548E-37
5.82524E-01 6.33078E-37
5.86824E-01 5.95896E-37
5.91118E-01 5.57652E-37
5.95404E-01 5.18924E-37
5.99684E-01 4.80234E-37
6.03956E-01 4.42021E-37
6.08220E-01 4.04678E-37
6.12476E-01 3.68511E-37
6.16723E-01 3.33798E-37
6.20961E-01 3.00732E-37
6.25190E-01 2.69470E-37
6.29410E-01 2.40124E-37
6.33619E-01 2.12755E-37
6.37819E-01 1.87413E-37
6.42008E-01 1.64092E-37
6.46186E-01 1.42760E-37
6.50353E-01 1.23378E-37
6.54508E-01 1.05873E-37
6.58652E-01 9.01786E-38
6.62784E-01 7.61881E-38
6.66903E-01 6.38084E-38
6.71010E-01 5.29325E-38
6.75104E-01 4.34490E-38
6.79184E-01 3.52475E-38
6.83251E-01 2.82231E-38
6.87303E-01 2.22614E-38
6.91342E-01 1.72555E-38
6.95366E-01 1.31100E-38
6.99375E-01 9.72754E-39
7.03368E-01 7.01583E-39
7.07347E-01 4.89384E-39
7.11309E-01 3.28019E-39
7.15256E-01 2.10724E-39
7.19186E-01 1.30468E-39
7.23099E-01 8.15079E-40
7.26995E-01 5.85221E-40
7.30874E-01 5.67475E-40
7.34736E-01 7.17108E-40
7.38579E-01 9.98044E-40
7.42405E-01 1.37650E-39
7.46212E-01 1.82451E-39
7.50000E-01 2.31688E-39
7.53769E-01 2.83345E-39
7.57519E-01 3.35597E-39
7.61249E-01 3.87022E-39
7.64960E-01 4.36500E-39
7.68650E-01 4.83044E-39
7.72320E-01 5.26028E-39
7.75968E-01 5.64881E-39
7.79596E-01 5.99263E-39
7.83203E-01 6.29103E-39
7.86788E-01 6.54206E-39
7.90351E-01 6.74565E-39
7.93893E-01 6.90405E-39
7.97411E-01 7.01786E-39
8.00908E-01 7.08989E-39
8.04381E-01 7.12218E-39
8.07831E-01 7.11757E-39
8.11257E-01 7.07926E-39
8.14660E-01 7.00942E-39
8.18039E-01 6.91214E-39
8.21394E-01 6.78893E-39
8.24724E-01 6.64276E-39
8.28030E-01 6.47752E-39
8.31310E-01 6.29715E-39
8.34565E-01 6.10131E-39
8.37795E-01 5.89458E-39
8.40999E-01 5.67722E-39
8.44177E-01 5.45471E-39
8.47329E-01 5.22619E-39
8.50455E-01 4.99658E-39
8.53553E-01 4.76486E-39
8.56625E-01 4.53417E-39
8.59670E-01 4.30552E-39
8.62687E-01 4.07972E-39
8.65677E-01 3.85864E-39
8.68639E-01 3.64301E-39
8.71572E-01 3.43401E-39
8.74478E-01 3.23129E-39
8.77355E-01 3.03610E-39
8.80203E-01 2.84755E-39
8.83022E-01 2.66611E-39
8.85812E-01 2.49307E-39
8.88573E-01 2.32753E-39
8.91304E-01 2.16962E-39
8.94005E-01 2.01879E-39
8.96677E-01 1.87690E-39
8.99318E-01 1.74087E-39
9.01928E-01 1.61307E-39
9.04508E-01 1.49232E-39
9.07058E-01 1.37873E-39
9.09576E-01 1.27195E-39
9.12063E-01 1.17122E-39
9.14519E-01 1.07764E-39
9.16943E-01 9.89963E-40
9.19335E-01 9.08471E-40
9.21696E-01 8.32653E-40
9.24024E-01 7.62511E-40
9.26320E-01 6.97563E-40
9.28584E-01 6.37148E-40
9.30815E-01 5.81099E-40
9.33013E-01 5.30400E-40
9.35178E-01 4.83052E-40
9.37310E-01 4.39621E-40
9.39409E-01 3.99900E-40
9.41474E-01 3.62888E-40
9.43505E-01 3.29339E-40
9.45503E-01 2.98074E-40
9.47467E-01 2.69431E-40
9.49397E-01 2.43720E-40
9.51293E-01 2.19812E-40
9.53154E-01 1.98246E-40
9.54981E-01 1.78099E-40
9.56773E-01 1.59944E-40
9.58530E-01 1.43005E-40
9.60252E-01 1.28094E-40
9.61940E-01 1.14771E-40
9.63592E-01 1.02628E-40
9.65209E-01 9.14387E-41
9.66790E-01 8.14666E-41
9.68336E-01 7.25717E-41
9.69846E-01 6.46983E-41
9.71321E-01 5.73773E-41
9.72759E-01 5.10023E-41
9.74162E-01 4.55129E-41
9.75528E-01 4.02132E-41
9.76858E-01 3.57723E-41
9.78152E-01 3.16557E-41
9.79410E-01 2.78905E-41
9.80631E-01 2.46459E-41
9.81815E-01 2.16784E-41
9.82963E-01 1.89758E-41
9.84074E-01 1.00000E-45
9.85148E-01 1.00000E-45
9.86185E-01 1.00000E-45
9.87185E-01 1.00000E-45
9.88148E-01 1.00000E-45
9.89074E-01 1.00000E-45
9.89962E-01 1.00000E-45
9.90814E-01 1.00000E-45
9.91627E-01 1.00000E-45
9.92404E-01 1.00000E-45
9.93143E-01 1.00000E-45
9.93844E-01 1.00000E-45
9.94508E-01 1.00000E-45
9.95134E-01 1.00000E-45
9.95722E-01 1.00000E-45
9.96273E-01 1.00000E-45
9.96786E-01 1.00000E-45
9.97261E-01 1.00000E-45
9.97698E-01 1.00000E-45
9.98097E-01 1.00000E-45
9.98459E-01 1.00000E-45
9.98782E-01 1.00000E-45
9.99067E-01 1.00000E-45
9.99315E-01 1.00000E-45
9.99524E-01 1.00000E-45
9.99695E-01 1.00000E-45
9.99829E-01 1.00000E-45
9.99924E-01 1.00000E-45
9.99981E-01 1.00000E-45
1.00000E+00 1.00000E-45
