 #
 # Subroutine ELSEPA. Elastic scattering of electrons and positrons
 #                    by neutral atoms and positive ions
 #
 # Projectile: positron
 # Kinetic energy = 1.25000E+06 eV = 4.59367E+04 a.u.
 #
 # WARNING: High-energy factorization with free-atom DF screening.
 #          Absorption, polarization and exchange corrections are
 #          switched off.
 #          Phase shifts are calculated for the bare nucleus.
 #          Scattering amplitudes are not evaluated.
 #
 # Element: Cr,  Z =  24,  atomic weight = 5.19961E+01 g/mol
 #
 # Nuclear model: Fermi distribution
 #                Average radius = 3.99369E-13 cm
 #                Skin thickness = 5.46000E-14 cm
 #
 # Number of electrons = 24
 #
 # Total elastic cross section = 1.95257E-18 cm**2 = 6.97275E-02 a0**2
 # 1st transport cross section = 2.49373E-22 cm**2 = 8.90528E-06 a0**2
 # 2nd transport cross section = 7.06774E-22 cm**2 = 2.52393E-05 a0**2
 #
 #
 # Differential cross section:                       MU=(1-COS(THETA))/2
 #
 #  THETA        MU          DCS          DCS        Sherman      error
 #  (deg)                 (cm**2/sr)   (a0**2/sr)    function
 #----------------------------------------------------------------------
0.00000E+00 5.73285E-14
7.61557E-13 5.73284E-14
1.18994E-12 5.73283E-14
1.71346E-12 5.73283E-14
2.33225E-12 5.73282E-14
3.04617E-12 5.73282E-14
3.85530E-12 5.73281E-14
4.75964E-12 5.73280E-14
5.75917E-12 5.73280E-14
6.85391E-12 5.73279E-14
8.04379E-12 5.73278E-14
9.32893E-12 5.73277E-14
1.07092E-11 5.73276E-14
1.21847E-11 5.73275E-14
1.37554E-11 5.73273E-14
1.54213E-11 5.73272E-14
1.71823E-11 5.73271E-14
1.90386E-11 5.73269E-14
2.09900E-11 5.73268E-14
2.30367E-11 5.73266E-14
2.51785E-11 5.73264E-14
2.74156E-11 5.73263E-14
2.97478E-11 5.73261E-14
3.21752E-11 5.73259E-14
3.46979E-11 5.73257E-14
3.73157E-11 5.73255E-14
4.00286E-11 5.73253E-14
4.28368E-11 5.73251E-14
4.57402E-11 5.73249E-14
4.87388E-11 5.73247E-14
5.18325E-11 5.73244E-14
5.50215E-11 5.73242E-14
5.83057E-11 5.73239E-14
6.16850E-11 5.73237E-14
6.51595E-11 5.73234E-14
6.87293E-11 5.73232E-14
7.23943E-11 5.73229E-14
7.61544E-11 5.73226E-14
1.18991E-10 5.73194E-14
1.71347E-10 5.73155E-14
2.33223E-10 5.73109E-14
3.04617E-10 5.73057E-14
3.85531E-10 5.72997E-14
4.75965E-10 5.72930E-14
5.75917E-10 5.72857E-14
6.85389E-10 5.72776E-14
8.04380E-10 5.72689E-14
9.32891E-10 5.72595E-14
1.07092E-09 5.72493E-14
1.21847E-09 5.72385E-14
1.37554E-09 5.72271E-14
1.54213E-09 5.72149E-14
1.71823E-09 5.72020E-14
1.90386E-09 5.71885E-14
2.09900E-09 5.71742E-14
2.30367E-09 5.71593E-14
2.51785E-09 5.71437E-14
2.74156E-09 5.71274E-14
2.97478E-09 5.71104E-14
3.21752E-09 5.70928E-14
3.46978E-09 5.70745E-14
3.73156E-09 5.70555E-14
4.00286E-09 5.70358E-14
4.28368E-09 5.70154E-14
4.57402E-09 5.69944E-14
4.87388E-09 5.69727E-14
5.18326E-09 5.69503E-14
5.50215E-09 5.69273E-14
5.83057E-09 5.69035E-14
6.16850E-09 5.68792E-14
6.51596E-09 5.68541E-14
6.87293E-09 5.68284E-14
7.23942E-09 5.68020E-14
7.61544E-09 5.67750E-14
1.18991E-08 5.64687E-14
1.71347E-08 5.60983E-14
2.33223E-08 5.56661E-14
3.04617E-08 5.51747E-14
3.85531E-08 5.46269E-14
4.75965E-08 5.40259E-14
5.75917E-08 5.33750E-14
6.85389E-08 5.26778E-14
8.04380E-08 5.19379E-14
9.32891E-08 5.11586E-14
1.07092E-07 5.03448E-14
1.21847E-07 4.95003E-14
1.37554E-07 4.86279E-14
1.54213E-07 4.77321E-14
1.71823E-07 4.68170E-14
1.90386E-07 4.58857E-14
2.09900E-07 4.49414E-14
2.30367E-07 4.39884E-14
2.51785E-07 4.30295E-14
2.74156E-07 4.20669E-14
2.97478E-07 4.11045E-14
3.21752E-07 4.01450E-14
3.46978E-07 3.91894E-14
3.73156E-07 3.82413E-14
4.00286E-07 3.73025E-14
4.28368E-07 3.63741E-14
4.57402E-07 3.54581E-14
4.87388E-07 3.45564E-14
5.18325E-07 3.36696E-14
5.50215E-07 3.27986E-14
5.83057E-07 3.19450E-14
6.16850E-07 3.11094E-14
6.51596E-07 3.02914E-14
6.87293E-07 2.94927E-14
7.23942E-07 2.87137E-14
7.61543E-07 2.79531E-14
1.18991E-06 2.14109E-14
1.71347E-06 1.65838E-14
2.33223E-06 1.30492E-14
3.04617E-06 1.04262E-14
3.85531E-06 8.43873E-15
4.75964E-06 6.90119E-15
5.75916E-06 5.69004E-15
6.85388E-06 4.72205E-15
8.04378E-06 3.93962E-15
9.32888E-06 3.25828E-15
1.07092E-05 2.73789E-15
1.21846E-05 2.33513E-15
1.37553E-05 1.97315E-15
1.54212E-05 1.67294E-15
1.71822E-05 1.43448E-15
1.90385E-05 1.23078E-15
2.09899E-05 1.05424E-15
2.30365E-05 9.10804E-16
2.51783E-05 7.91099E-16
2.74153E-05 6.85294E-16
2.97475E-05 5.97621E-16
3.21749E-05 5.24441E-16
3.46974E-05 4.59873E-16
3.73152E-05 4.05298E-16
4.00281E-05 3.59015E-16
4.28362E-05 3.18737E-16
4.57395E-05 2.83919E-16
4.87380E-05 2.53956E-16
5.18317E-05 2.27868E-16
5.50205E-05 2.05009E-16
5.83045E-05 1.85090E-16
6.16838E-05 1.67634E-16
6.51582E-05 1.52180E-16
6.87277E-05 1.38567E-16
7.23925E-05 1.26535E-16
7.61524E-05 1.15781E-16
9.21439E-05 8.30692E-17
1.09658E-04 6.14668E-17
1.28695E-04 4.66285E-17
1.49255E-04 3.60613E-17
1.71338E-04 2.83470E-17
1.94942E-04 2.25901E-17
2.20070E-04 1.82114E-17
2.46720E-04 1.48259E-17
2.74892E-04 1.21761E-17
3.04586E-04 1.00828E-17
3.35803E-04 8.41231E-18
3.68542E-04 7.06696E-18
4.02802E-04 5.97348E-18
4.38585E-04 5.08005E-18
4.75889E-04 4.34512E-18
5.14715E-04 3.73671E-18
5.55063E-04 3.22973E-18
5.96931E-04 2.80507E-18
6.40321E-04 2.44749E-18
6.85233E-04 2.14477E-18
7.31665E-04 1.88719E-18
7.79618E-04 1.66697E-18
8.29092E-04 1.47776E-18
8.80086E-04 1.31461E-18
9.32601E-04 1.17359E-18
9.86636E-04 1.05110E-18
1.04219E-03 9.43970E-19
1.09927E-03 8.50282E-19
1.15786E-03 7.68058E-19
1.21797E-03 6.95417E-19
1.27961E-03 6.31232E-19
1.34276E-03 5.74364E-19
1.40743E-03 5.23732E-19
1.47362E-03 4.78573E-19
1.54133E-03 4.38230E-19
1.61056E-03 4.02054E-19
1.68131E-03 3.69517E-19
1.75357E-03 3.40242E-19
1.82735E-03 3.13830E-19
1.90265E-03 2.89901E-19
1.97947E-03 2.68233E-19
2.05780E-03 2.48575E-19
2.13765E-03 2.30657E-19
2.21902E-03 2.14337E-19
2.30190E-03 1.99450E-19
2.38630E-03 1.85821E-19
2.47222E-03 1.73334E-19
2.55965E-03 1.61890E-19
2.64859E-03 1.51373E-19
2.73905E-03 1.41686E-19
2.83103E-03 1.32770E-19
2.92452E-03 1.24549E-19
3.01952E-03 1.16940E-19
3.11604E-03 1.09908E-19
3.21407E-03 1.03403E-19
3.31362E-03 9.73613E-20
3.41468E-03 9.17560E-20
3.51725E-03 8.65520E-20
3.62133E-03 8.17072E-20
3.72692E-03 7.71942E-20
3.83403E-03 7.29911E-20
3.94265E-03 6.90693E-20
4.05278E-03 6.54029E-20
4.16442E-03 6.19784E-20
4.27757E-03 5.87763E-20
4.39223E-03 5.57730E-20
4.50840E-03 5.29604E-20
4.62608E-03 5.03241E-20
4.74527E-03 4.78464E-20
4.86597E-03 4.55191E-20
4.98817E-03 4.33325E-20
5.11188E-03 4.12741E-20
5.23711E-03 3.93353E-20
5.36383E-03 3.75096E-20
5.49207E-03 3.57883E-20
5.62181E-03 3.41627E-20
5.75306E-03 3.26289E-20
5.88581E-03 3.11806E-20
6.02007E-03 2.98096E-20
6.15583E-03 2.85135E-20
6.29310E-03 2.72874E-20
6.43187E-03 2.61253E-20
6.57214E-03 2.50242E-20
6.71392E-03 2.39807E-20
6.85720E-03 2.29905E-20
7.00198E-03 2.20502E-20
7.14827E-03 2.11577E-20
7.29605E-03 2.03098E-20
7.44534E-03 1.95032E-20
7.59612E-03 1.87363E-20
7.97965E-03 1.69768E-20
8.37255E-03 1.54182E-20
8.77480E-03 1.40336E-20
9.18641E-03 1.27998E-20
9.60736E-03 1.16982E-20
1.00376E-02 1.07120E-20
1.04773E-02 9.82704E-21
1.09262E-02 9.03101E-21
1.13844E-02 8.31358E-21
1.18520E-02 7.66565E-21
1.23288E-02 7.07932E-21
1.28150E-02 6.54765E-21
1.33104E-02 6.06468E-21
1.38150E-02 5.62522E-21
1.43290E-02 5.22464E-21
1.48521E-02 4.85889E-21
1.53845E-02 4.52440E-21
1.59262E-02 4.21805E-21
1.64770E-02 3.93706E-21
1.70371E-02 3.67896E-21
1.76063E-02 3.44152E-21
1.81848E-02 3.22284E-21
1.87724E-02 3.02116E-21
1.93692E-02 2.83492E-21
1.99751E-02 2.66272E-21
2.05901E-02 2.50332E-21
2.12143E-02 2.35561E-21
2.18476E-02 2.21858E-21
2.24900E-02 2.09129E-21
2.31415E-02 1.97296E-21
2.38021E-02 1.86283E-21
2.44717E-02 1.76023E-21
2.51504E-02 1.66455E-21
2.58382E-02 1.57524E-21
2.65349E-02 1.49181E-21
2.72407E-02 1.41380E-21
2.79555E-02 1.34079E-21
2.86793E-02 1.27239E-21
2.94120E-02 1.20828E-21
3.01537E-02 1.14813E-21
3.09043E-02 1.09165E-21
3.16639E-02 1.03858E-21
3.24324E-02 9.88670E-22
3.32098E-02 9.41706E-22
3.39961E-02 8.97478E-22
3.47912E-02 8.55797E-22
3.55952E-02 8.16493E-22
3.64081E-02 7.79403E-22
3.72297E-02 7.44381E-22
3.80602E-02 7.11290E-22
3.88995E-02 6.80004E-22
3.97476E-02 6.50407E-22
4.06044E-02 6.22392E-22
4.14700E-02 5.95857E-22
4.23443E-02 5.70711E-22
4.32273E-02 5.46868E-22
4.41190E-02 5.24248E-22
4.50194E-02 5.02775E-22
4.59284E-02 4.82383E-22
4.68461E-02 4.63006E-22
4.87074E-02 4.27063E-22
5.06030E-02 3.94515E-22
5.25328E-02 3.64986E-22
5.44967E-02 3.38146E-22
5.64946E-02 3.13710E-22
5.85262E-02 2.91423E-22
6.05914E-02 2.71064E-22
6.26901E-02 2.52437E-22
6.48222E-02 2.35369E-22
6.69873E-02 2.19707E-22
6.91854E-02 2.05315E-22
7.14163E-02 1.92071E-22
7.36799E-02 1.79868E-22
7.59760E-02 1.68609E-22
7.83043E-02 1.58209E-22
8.06647E-02 1.48591E-22
8.30571E-02 1.39686E-22
8.54812E-02 1.31431E-22
8.79369E-02 1.23770E-22
9.04240E-02 1.16653E-22
9.29422E-02 1.10036E-22
9.54915E-02 1.03875E-22
9.80716E-02 9.81353E-23
1.00682E-01 9.27817E-23
1.03323E-01 8.77840E-23
1.05995E-01 8.31143E-23
1.08696E-01 7.87473E-23
1.11427E-01 7.46598E-23
1.14188E-01 7.08308E-23
1.16978E-01 6.72410E-23
1.19797E-01 6.38728E-23
1.22645E-01 6.07101E-23
1.25522E-01 5.77381E-23
1.28428E-01 5.49432E-23
1.31361E-01 5.23131E-23
1.34323E-01 4.98363E-23
1.37313E-01 4.75021E-23
1.40330E-01 4.53011E-23
1.43375E-01 4.32242E-23
1.46447E-01 4.12631E-23
1.49545E-01 3.94102E-23
1.52671E-01 3.76586E-23
1.55823E-01 3.60016E-23
1.59001E-01 3.44333E-23
1.62205E-01 3.29481E-23
1.65435E-01 3.15407E-23
1.68690E-01 3.02064E-23
1.71970E-01 2.89407E-23
1.75276E-01 2.77394E-23
1.78606E-01 2.65986E-23
1.81961E-01 2.55149E-23
1.85340E-01 2.44847E-23
1.88743E-01 2.35050E-23
1.92169E-01 2.25729E-23
1.95619E-01 2.16857E-23
1.99092E-01 2.08407E-23
2.02589E-01 2.00356E-23
2.06107E-01 1.92683E-23
2.09649E-01 1.85366E-23
2.13212E-01 1.78385E-23
2.16797E-01 1.71723E-23
2.20404E-01 1.65362E-23
2.24032E-01 1.59286E-23
2.27680E-01 1.53480E-23
2.31350E-01 1.47931E-23
2.35040E-01 1.42624E-23
2.38751E-01 1.37547E-23
2.42481E-01 1.32689E-23
2.46231E-01 1.28038E-23
2.50000E-01 1.23584E-23
2.53788E-01 1.19317E-23
2.57595E-01 1.15228E-23
2.61421E-01 1.11308E-23
2.65264E-01 1.07548E-23
2.69126E-01 1.03942E-23
2.73005E-01 1.00482E-23
2.76901E-01 9.71601E-24
2.80814E-01 9.39707E-24
2.84744E-01 9.09073E-24
2.88691E-01 8.79641E-24
2.92653E-01 8.51354E-24
2.96632E-01 8.24161E-24
3.00625E-01 7.98012E-24
3.04634E-01 7.72860E-24
3.08658E-01 7.48659E-24
3.12697E-01 7.25368E-24
3.16749E-01 7.02946E-24
3.20816E-01 6.81355E-24
3.24896E-01 6.60558E-24
3.28990E-01 6.40522E-24
3.33097E-01 6.21213E-24
3.37216E-01 6.02601E-24
3.41348E-01 5.84656E-24
3.45492E-01 5.67350E-24
3.49647E-01 5.50656E-24
3.53814E-01 5.34548E-24
3.57992E-01 5.19003E-24
3.62181E-01 5.03997E-24
3.66381E-01 4.89508E-24
3.70590E-01 4.75515E-24
3.74810E-01 4.61999E-24
3.79039E-01 4.48940E-24
3.83277E-01 4.36320E-24
3.87524E-01 4.24122E-24
3.91780E-01 4.12329E-24
3.96044E-01 4.00926E-24
4.00316E-01 3.89896E-24
4.04596E-01 3.79227E-24
4.08882E-01 3.68903E-24
4.13176E-01 3.58912E-24
4.17476E-01 3.49242E-24
4.21783E-01 3.39879E-24
4.26095E-01 3.30814E-24
4.30413E-01 3.22034E-24
4.34737E-01 3.13529E-24
4.39065E-01 3.05289E-24
4.43398E-01 2.97304E-24
4.47736E-01 2.89566E-24
4.52077E-01 2.82064E-24
4.56422E-01 2.74791E-24
4.60770E-01 2.67739E-24
4.65122E-01 2.60899E-24
4.69476E-01 2.54264E-24
4.73832E-01 2.47828E-24
4.78190E-01 2.41582E-24
4.82550E-01 2.35520E-24
4.86912E-01 2.29637E-24
4.91274E-01 2.23925E-24
4.95637E-01 2.18380E-24
5.00000E-01 2.12995E-24
5.04363E-01 2.07764E-24
5.08726E-01 2.02684E-24
5.13088E-01 1.97748E-24
5.17450E-01 1.92952E-24
5.21810E-01 1.88292E-24
5.26168E-01 1.83762E-24
5.30524E-01 1.79359E-24
5.34878E-01 1.75078E-24
5.39230E-01 1.70916E-24
5.43578E-01 1.66868E-24
5.47923E-01 1.62931E-24
5.52264E-01 1.59102E-24
5.56602E-01 1.55377E-24
5.60935E-01 1.51752E-24
5.65263E-01 1.48225E-24
5.69587E-01 1.44793E-24
5.73905E-01 1.41452E-24
5.78217E-01 1.38199E-24
5.82524E-01 1.35033E-24
5.86824E-01 1.31950E-24
5.91118E-01 1.28948E-24
5.95404E-01 1.26024E-24
5.99684E-01 1.23176E-24
6.03956E-01 1.20402E-24
6.08220E-01 1.17699E-24
6.12476E-01 1.15066E-24
6.16723E-01 1.12500E-24
6.20961E-01 1.09999E-24
6.25190E-01 1.07562E-24
6.29410E-01 1.05186E-24
6.33619E-01 1.02870E-24
6.37819E-01 1.00612E-24
6.42008E-01 9.84105E-25
6.46186E-01 9.62635E-25
6.50353E-01 9.41698E-25
6.54508E-01 9.21276E-25
6.58652E-01 9.01357E-25
6.62784E-01 8.81926E-25
6.66903E-01 8.62968E-25
6.71010E-01 8.44472E-25
6.75104E-01 8.26423E-25
6.79184E-01 8.08810E-25
6.83251E-01 7.91621E-25
6.87303E-01 7.74844E-25
6.91342E-01 7.58467E-25
6.95366E-01 7.42481E-25
6.99375E-01 7.26874E-25
7.03368E-01 7.11636E-25
7.07347E-01 6.96758E-25
7.11309E-01 6.82229E-25
7.15256E-01 6.68040E-25
7.19186E-01 6.54183E-25
7.23099E-01 6.40649E-25
7.26995E-01 6.27429E-25
7.30874E-01 6.14515E-25
7.34736E-01 6.01899E-25
7.38579E-01 5.89574E-25
7.42405E-01 5.77531E-25
7.46212E-01 5.65765E-25
7.50000E-01 5.54267E-25
7.53769E-01 5.43030E-25
7.57519E-01 5.32050E-25
7.61249E-01 5.21318E-25
7.64960E-01 5.10828E-25
7.68650E-01 5.00575E-25
7.72320E-01 4.90553E-25
7.75968E-01 4.80756E-25
7.79596E-01 4.71179E-25
7.83203E-01 4.61815E-25
7.86788E-01 4.52661E-25
7.90351E-01 4.43711E-25
7.93893E-01 4.34959E-25
7.97411E-01 4.26402E-25
8.00908E-01 4.18034E-25
8.04381E-01 4.09851E-25
8.07831E-01 4.01849E-25
8.11257E-01 3.94024E-25
8.14660E-01 3.86370E-25
8.18039E-01 3.78885E-25
8.21394E-01 3.71565E-25
8.24724E-01 3.64405E-25
8.28030E-01 3.57402E-25
8.31310E-01 3.50553E-25
8.34565E-01 3.43853E-25
8.37795E-01 3.37300E-25
8.40999E-01 3.30890E-25
8.44177E-01 3.24620E-25
8.47329E-01 3.18487E-25
8.50455E-01 3.12487E-25
8.53553E-01 3.06619E-25
8.56625E-01 3.00879E-25
8.59670E-01 2.95264E-25
8.62687E-01 2.89772E-25
8.65677E-01 2.84400E-25
8.68639E-01 2.79145E-25
8.71572E-01 2.74005E-25
8.74478E-01 2.68978E-25
8.77355E-01 2.64060E-25
8.80203E-01 2.59251E-25
8.83022E-01 2.54547E-25
8.85812E-01 2.49947E-25
8.88573E-01 2.45448E-25
8.91304E-01 2.41048E-25
8.94005E-01 2.36746E-25
8.96677E-01 2.32539E-25
8.99318E-01 2.28426E-25
9.01928E-01 2.24404E-25
9.04508E-01 2.20472E-25
9.07058E-01 2.16628E-25
9.09576E-01 2.12870E-25
9.12063E-01 2.09198E-25
9.14519E-01 2.05608E-25
9.16943E-01 2.02100E-25
9.19335E-01 1.98672E-25
9.21696E-01 1.95323E-25
9.24024E-01 1.92051E-25
9.26320E-01 1.88855E-25
9.28584E-01 1.85733E-25
9.30815E-01 1.82684E-25
9.33013E-01 1.79707E-25
9.35178E-01 1.76800E-25
9.37310E-01 1.73963E-25
9.39409E-01 1.71194E-25
9.41474E-01 1.68493E-25
9.43505E-01 1.65857E-25
9.45503E-01 1.63285E-25
9.47467E-01 1.60778E-25
9.49397E-01 1.58333E-25
9.51293E-01 1.55951E-25
9.53154E-01 1.53628E-25
9.54981E-01 1.51366E-25
9.56773E-01 1.49163E-25
9.58530E-01 1.47018E-25
9.60252E-01 1.44930E-25
9.61940E-01 1.42898E-25
9.63592E-01 1.40922E-25
9.65209E-01 1.39000E-25
9.66790E-01 1.37133E-25
9.68336E-01 1.35319E-25
9.69846E-01 1.33558E-25
9.71321E-01 1.31848E-25
9.72759E-01 1.30190E-25
9.74162E-01 1.28582E-25
9.75528E-01 1.27024E-25
9.76858E-01 1.25515E-25
9.78152E-01 1.24056E-25
9.79410E-01 1.22644E-25
9.80631E-01 1.21280E-25
9.81815E-01 1.19964E-25
9.82963E-01 1.18694E-25
9.84074E-01 1.17470E-25
9.85148E-01 1.16291E-25
9.86185E-01 1.15158E-25
9.87185E-01 1.14070E-25
9.88148E-01 1.13026E-25
9.89074E-01 1.12027E-25
9.89962E-01 1.11070E-25
9.90814E-01 1.10157E-25
9.91627E-01 1.09287E-25
9.92404E-01 1.08460E-25
9.93143E-01 1.07675E-25
9.93844E-01 1.06932E-25
9.94508E-01 1.06231E-25
9.95134E-01 1.05571E-25
9.95722E-01 1.04952E-25
9.96273E-01 1.04374E-25
9.96786E-01 1.03837E-25
9.97261E-01 1.03341E-25
9.97698E-01 1.02885E-25
9.98097E-01 1.02469E-25
9.98459E-01 1.02093E-25
9.98782E-01 1.01757E-25
9.99067E-01 1.01461E-25
9.99315E-01 1.01205E-25
9.99524E-01 1.00988E-25
9.99695E-01 1.00811E-25
9.99829E-01 1.00673E-25
9.99924E-01 1.00575E-25
9.99981E-01 1.00516E-25
1.00000E+00 1.00496E-25
