 #
 # Subroutine ELSEPA. Elastic scattering of electrons and positrons
 #                    by neutral atoms and positive ions
 #
 # Projectile: electron
 # Kinetic energy = 1.00000E+09 eV = 3.67493E+07 a.u.
 #
 # WARNING: High-energy factorization with free-atom DF screening.
 #          Absorption, polarization and exchange corrections are
 #          switched off.
 #          Phase shifts are calculated for the bare nucleus.
 #          Scattering amplitudes are not evaluated.
 #
 # Element: Zr,  Z =  40,  atomic weight = 9.12240E+01 g/mol
 #
 # Nuclear model: Fermi distribution
 #                Average radius = 4.81674E-13 cm
 #                Skin thickness = 5.46000E-14 cm
 #
 # Number of electrons = 40
 #
 # Total elastic cross section = 3.99517E-18 cm**2 = 1.42670E-01 a0**2
 # 1st transport cross section = 3.20459E-27 cm**2 = 1.14438E-10 a0**2
 # 2nd transport cross section = 9.61274E-27 cm**2 = 3.43277E-10 a0**2
 #
 #
 # Differential cross section:                       MU=(1-COS(THETA))/2
 #
 #  THETA        MU          DCS          DCS        Sherman      error
 #  (deg)                 (cm**2/sr)   (a0**2/sr)    function
 #----------------------------------------------------------------------
0.00000E+00 5.57132E-08
7.61557E-13 3.85973E-08
1.18994E-12 3.24079E-08
1.71346E-12 2.68247E-08
2.33225E-12 2.20731E-08
3.04617E-12 1.81722E-08
3.85530E-12 1.50334E-08
4.75964E-12 1.25294E-08
5.75917E-12 1.05325E-08
6.85391E-12 8.93127E-09
8.04379E-12 7.63581E-09
9.32893E-12 6.57704E-09
1.07092E-11 5.70269E-09
1.21847E-11 4.97324E-09
1.37554E-11 4.35893E-09
1.54213E-11 3.83646E-09
1.71823E-11 3.38968E-09
1.90386E-11 3.00530E-09
2.09900E-11 2.67291E-09
2.30367E-11 2.38307E-09
2.51785E-11 2.11707E-09
2.74156E-11 1.89200E-09
2.97478E-11 1.70043E-09
3.21752E-11 1.53643E-09
3.46979E-11 1.39526E-09
3.73157E-11 1.26387E-09
4.00286E-11 1.14391E-09
4.28368E-11 1.03976E-09
4.57402E-11 9.48920E-10
4.87388E-11 8.69350E-10
5.18325E-11 7.98827E-10
5.50215E-11 7.31757E-10
5.83057E-11 6.72528E-10
6.16850E-11 6.20036E-10
6.51595E-11 5.73356E-10
6.87293E-11 5.31707E-10
7.23943E-11 4.93044E-10
7.61544E-11 4.57558E-10
1.18991E-10 2.38715E-10
1.71347E-10 1.38184E-10
2.33223E-10 8.48976E-11
3.04617E-10 5.44047E-11
3.85531E-10 3.60889E-11
4.75965E-10 2.47052E-11
5.75917E-10 1.74215E-11
6.85389E-10 1.26180E-11
8.04380E-10 9.37222E-12
9.32891E-10 7.11826E-12
1.07092E-09 5.51141E-12
1.21847E-09 4.33879E-12
1.37554E-09 3.46560E-12
1.54213E-09 2.80352E-12
1.71823E-09 2.29352E-12
1.90386E-09 1.89484E-12
2.09900E-09 1.57912E-12
2.30367E-09 1.32623E-12
2.51785E-09 1.12100E-12
2.74156E-09 9.55062E-13
2.97478E-09 8.17624E-13
3.21752E-09 7.04379E-13
3.46978E-09 6.09655E-13
3.73156E-09 5.30292E-13
4.00286E-09 4.63344E-13
4.28368E-09 4.06496E-13
4.57402E-09 3.58133E-13
4.87388E-09 3.16597E-13
5.18326E-09 2.80978E-13
5.50215E-09 2.50109E-13
5.83057E-09 2.23420E-13
6.16850E-09 2.00127E-13
6.51596E-09 1.79817E-13
6.87293E-09 1.61995E-13
7.23942E-09 1.46330E-13
7.61544E-09 1.32510E-13
1.18991E-08 5.51610E-14
1.71347E-08 2.69194E-14
2.33223E-08 1.46674E-14
3.04617E-08 8.66151E-15
3.85531E-08 5.43886E-15
4.75965E-08 3.58465E-15
5.75917E-08 2.45711E-15
6.85389E-08 1.73976E-15
8.04380E-08 1.26593E-15
9.32891E-08 9.42866E-16
1.07092E-07 7.16516E-16
1.21847E-07 5.54147E-16
1.37554E-07 4.35243E-16
1.54213E-07 3.46569E-16
1.71823E-07 2.79357E-16
1.90386E-07 2.27669E-16
2.09900E-07 1.87395E-16
2.30367E-07 1.55642E-16
2.51785E-07 1.30336E-16
2.74156E-07 1.09968E-16
2.97478E-07 9.34265E-17
3.21752E-07 7.98807E-17
3.46978E-07 6.87026E-17
3.73156E-07 5.94127E-17
4.00286E-07 5.16409E-17
4.28368E-07 4.50990E-17
4.57402E-07 3.95609E-17
4.87388E-07 3.48471E-17
5.18325E-07 3.08149E-17
5.50215E-07 2.73493E-17
5.83057E-07 2.43575E-17
6.16850E-07 2.17637E-17
6.51596E-07 1.95062E-17
6.87293E-07 1.75339E-17
7.23942E-07 1.58046E-17
7.61543E-07 1.42834E-17
1.18991E-06 5.85336E-18
1.71347E-06 2.82372E-18
2.33223E-06 1.52456E-18
3.04617E-06 8.93856E-19
3.85531E-06 5.58139E-19
4.75964E-06 3.66261E-19
5.75916E-06 2.50204E-19
6.85388E-06 1.76691E-19
8.04378E-06 1.28303E-19
9.32888E-06 9.54046E-20
1.07092E-05 7.24080E-20
1.21846E-05 5.59422E-20
1.37553E-05 4.39029E-20
1.54212E-05 3.49356E-20
1.71822E-05 2.81456E-20
1.90385E-05 2.29247E-20
2.09899E-05 1.88674E-20
2.30365E-05 1.56686E-20
2.51783E-05 1.31188E-20
2.74153E-05 1.10663E-20
2.97475E-05 9.39953E-21
3.21749E-05 8.03510E-21
3.46974E-05 6.90983E-21
3.73152E-05 5.97523E-21
4.00281E-05 5.19375E-21
4.28362E-05 4.53614E-21
4.57395E-05 3.97942E-21
4.87380E-05 3.50550E-21
5.18317E-05 3.10000E-21
5.50205E-05 2.75143E-21
5.83045E-05 2.45048E-21
6.16838E-05 2.18961E-21
6.51582E-05 1.96260E-21
6.87277E-05 1.76431E-21
7.23925E-05 1.59049E-21
7.61524E-05 1.40503E-21
9.21439E-05 9.53193E-22
1.09658E-04 6.67749E-22
1.28695E-04 4.80522E-22
1.49255E-04 3.53694E-22
1.71338E-04 2.65448E-22
1.94942E-04 2.02575E-22
2.20070E-04 1.56865E-22
2.46720E-04 1.23032E-22
2.74892E-04 9.75887E-23
3.04586E-04 7.81874E-23
3.35803E-04 6.32039E-23
3.68542E-04 5.15022E-23
4.02802E-04 4.22694E-23
4.38585E-04 3.49171E-23
4.75889E-04 2.90133E-23
5.14715E-04 2.42360E-23
5.55063E-04 2.03433E-23
5.96931E-04 1.71509E-23
6.40321E-04 1.45175E-23
6.85233E-04 1.23335E-23
7.31665E-04 1.05130E-23
7.79618E-04 8.98858E-24
8.29092E-04 7.70666E-24
8.80086E-04 6.62445E-24
9.32601E-04 5.70748E-24
9.86636E-04 4.92792E-24
1.04219E-03 4.26311E-24
1.09927E-03 3.69450E-24
1.15786E-03 3.20690E-24
1.21797E-03 2.78771E-24
1.27961E-03 2.42652E-24
1.34276E-03 2.11464E-24
1.40743E-03 1.84480E-24
1.47362E-03 1.61093E-24
1.54133E-03 1.40789E-24
1.61056E-03 1.23135E-24
1.68131E-03 1.07763E-24
1.75357E-03 9.43608E-25
1.82735E-03 8.26632E-25
1.90265E-03 7.24422E-25
1.97947E-03 6.35032E-25
2.05780E-03 5.56785E-25
2.13765E-03 4.88241E-25
2.21902E-03 4.28159E-25
2.30190E-03 3.75462E-25
2.38630E-03 3.29222E-25
2.47222E-03 2.88631E-25
2.55965E-03 2.52988E-25
2.64859E-03 2.21681E-25
2.73905E-03 1.94180E-25
2.83103E-03 1.70020E-25
2.92452E-03 1.48794E-25
3.01952E-03 1.30148E-25
3.11604E-03 1.13771E-25
3.21407E-03 9.93887E-26
3.31362E-03 8.67628E-26
3.41468E-03 7.56826E-26
3.51725E-03 6.59631E-26
3.62133E-03 5.74415E-26
3.72692E-03 4.99745E-26
3.83403E-03 4.34359E-26
3.94265E-03 3.77145E-26
4.05278E-03 3.27122E-26
4.16442E-03 2.83424E-26
4.27757E-03 2.45289E-26
4.39223E-03 2.12044E-26
4.50840E-03 1.83094E-26
4.62608E-03 1.57914E-26
4.74527E-03 1.36044E-26
4.86597E-03 1.17073E-26
4.98817E-03 1.00642E-26
5.11188E-03 8.64332E-27
5.23711E-03 7.41670E-27
5.36383E-03 6.35966E-27
5.49207E-03 5.45045E-27
5.62181E-03 4.66995E-27
5.75306E-03 4.00135E-27
5.88581E-03 3.42985E-27
6.02007E-03 2.94247E-27
6.15583E-03 2.52782E-27
6.29310E-03 2.17592E-27
6.43187E-03 1.87804E-27
6.57214E-03 1.62653E-27
6.71392E-03 1.41475E-27
6.85720E-03 1.23689E-27
7.00198E-03 1.08789E-27
7.14827E-03 9.63371E-28
7.29605E-03 8.59544E-28
7.44534E-03 7.73126E-28
7.59612E-03 7.01288E-28
7.97965E-03 5.70382E-28
8.37255E-03 4.87055E-28
8.77480E-03 4.31823E-28
9.18641E-03 3.92129E-28
9.60736E-03 3.60217E-28
1.00376E-02 3.31590E-28
1.04773E-02 3.03901E-28
1.09262E-02 2.76171E-28
1.13844E-02 2.48236E-28
1.18520E-02 2.20379E-28
1.23288E-02 1.93079E-28
1.28150E-02 1.66857E-28
1.33104E-02 1.42185E-28
1.38150E-02 1.19435E-28
1.43290E-02 9.88649E-29
1.48521E-02 8.06123E-29
1.53845E-02 6.47118E-29
1.59262E-02 5.11090E-29
1.64770E-02 3.96815E-29
1.70371E-02 3.02575E-29
1.76063E-02 2.26337E-29
1.81848E-02 1.65909E-29
1.87724E-02 1.19065E-29
1.93692E-02 8.36389E-30
1.99751E-02 5.76025E-30
2.05901E-02 3.91088E-30
2.12143E-02 2.65227E-30
2.18476E-02 1.84320E-30
2.24900E-02 1.36474E-30
2.31415E-02 1.11919E-30
2.38021E-02 1.02844E-30
2.44717E-02 1.03189E-30
2.51504E-02 1.08413E-30
2.58382E-02 1.15261E-30
2.65349E-02 1.21534E-30
2.72407E-02 1.25881E-30
2.79555E-02 1.27600E-30
2.86793E-02 1.26474E-30
2.94120E-02 1.22626E-30
3.01537E-02 1.16401E-30
3.09043E-02 1.08270E-30
3.16639E-02 9.87594E-31
3.24324E-02 8.83943E-31
3.32098E-02 7.76615E-31
3.39961E-02 6.69858E-31
3.47912E-02 5.67161E-31
3.55952E-02 4.71213E-31
3.64081E-02 3.83915E-31
3.72297E-02 3.06446E-31
3.80602E-02 2.39348E-31
3.88995E-02 1.82636E-31
3.97476E-02 1.35902E-31
4.06044E-02 9.84290E-32
4.14700E-02 6.92855E-32
4.23443E-02 4.74161E-32
4.32273E-02 3.17151E-32
4.41190E-02 2.10867E-32
4.50194E-02 1.44911E-32
4.59284E-02 1.09776E-32
4.68461E-02 9.70594E-33
4.87074E-02 1.11390E-32
5.06030E-02 1.45131E-32
5.25328E-02 1.73318E-32
5.44967E-02 1.84957E-32
5.64946E-02 1.78534E-32
5.85262E-02 1.57877E-32
6.05914E-02 1.28913E-32
6.26901E-02 9.74840E-33
6.48222E-02 6.81470E-33
6.69873E-02 4.37330E-33
6.91854E-02 2.54302E-33
7.14163E-02 1.31474E-33
7.36799E-02 5.97565E-34
7.59760E-02 2.62323E-34
7.83043E-02 1.75609E-34
8.06647E-02 2.21925E-34
8.30571E-02 3.14672E-34
8.54812E-02 3.98320E-34
8.79369E-02 4.44759E-34
9.04240E-02 4.46628E-34
9.29422E-02 4.09881E-34
9.54915E-02 3.47094E-34
9.80716E-02 2.72330E-34
1.00682E-01 1.97804E-34
1.03323E-01 1.32210E-34
1.05995E-01 8.03260E-35
1.08696E-01 4.34891E-35
1.11427E-01 2.05049E-35
1.14188E-01 8.67634E-36
1.16978E-01 4.72554E-36
1.19797E-01 5.49054E-36
1.22645E-01 8.35977E-36
1.25522E-01 1.14669E-35
1.28428E-01 1.36994E-35
1.31361E-01 1.45862E-35
1.34323E-01 1.41257E-35
1.37313E-01 1.26026E-35
1.40330E-01 1.04272E-35
1.43375E-01 8.01309E-36
1.46447E-01 5.70123E-36
1.49545E-01 3.72309E-36
1.52671E-01 2.19655E-36
1.55823E-01 1.14247E-36
1.59001E-01 5.11884E-37
1.62205E-01 2.15574E-37
1.65435E-01 1.50214E-37
1.68690E-01 2.18010E-37
1.71970E-01 3.38949E-37
1.75276E-01 4.56247E-37
1.78606E-01 5.36485E-37
1.81961E-01 5.66227E-37
1.85340E-01 5.46821E-37
1.88743E-01 4.88780E-37
1.92169E-01 4.06713E-37
1.95619E-01 3.15399E-37
1.99092E-01 2.27196E-37
2.02589E-01 1.50744E-37
2.06107E-01 9.07164E-38
2.09649E-01 4.83044E-38
2.13212E-01 1.00000E-45
2.16797E-01 1.00000E-45
2.20404E-01 1.00000E-45
2.24032E-01 1.00000E-45
2.27680E-01 1.00000E-45
2.31350E-01 1.00000E-45
2.35040E-01 1.00000E-45
2.38751E-01 1.00000E-45
2.42481E-01 1.00000E-45
2.46231E-01 1.00000E-45
2.50000E-01 1.00000E-45
2.53788E-01 1.00000E-45
2.57595E-01 1.00000E-45
2.61421E-01 1.00000E-45
2.65264E-01 1.00000E-45
2.69126E-01 1.00000E-45
2.73005E-01 1.00000E-45
2.76901E-01 1.00000E-45
2.80814E-01 1.00000E-45
2.84744E-01 1.00000E-45
2.88691E-01 1.00000E-45
2.92653E-01 1.00000E-45
2.96632E-01 1.00000E-45
3.00625E-01 1.00000E-45
3.04634E-01 1.00000E-45
3.08658E-01 1.00000E-45
3.12697E-01 1.00000E-45
3.16749E-01 1.00000E-45
3.20816E-01 1.00000E-45
3.24896E-01 1.00000E-45
3.28990E-01 1.00000E-45
3.33097E-01 1.00000E-45
3.37216E-01 1.00000E-45
3.41348E-01 1.00000E-45
3.45492E-01 1.00000E-45
3.49647E-01 1.00000E-45
3.53814E-01 1.00000E-45
3.57992E-01 1.00000E-45
3.62181E-01 1.00000E-45
3.66381E-01 1.00000E-45
3.70590E-01 1.00000E-45
3.74810E-01 1.00000E-45
3.79039E-01 1.00000E-45
3.83277E-01 1.00000E-45
3.87524E-01 1.00000E-45
3.91780E-01 1.00000E-45
3.96044E-01 1.00000E-45
4.00316E-01 1.00000E-45
4.04596E-01 1.00000E-45
4.08882E-01 1.00000E-45
4.13176E-01 1.00000E-45
4.17476E-01 1.00000E-45
4.21783E-01 1.00000E-45
4.26095E-01 1.00000E-45
4.30413E-01 1.00000E-45
4.34737E-01 1.00000E-45
4.39065E-01 1.00000E-45
4.43398E-01 1.00000E-45
4.47736E-01 1.00000E-45
4.52077E-01 1.00000E-45
4.56422E-01 1.00000E-45
4.60770E-01 1.00000E-45
4.65122E-01 1.00000E-45
4.69476E-01 1.00000E-45
4.73832E-01 1.00000E-45
4.78190E-01 1.00000E-45
4.82550E-01 1.00000E-45
4.86912E-01 1.00000E-45
4.91274E-01 1.00000E-45
4.95637E-01 1.00000E-45
5.00000E-01 1.00000E-45
5.04363E-01 1.00000E-45
5.08726E-01 1.00000E-45
5.13088E-01 1.00000E-45
5.17450E-01 1.00000E-45
5.21810E-01 1.00000E-45
5.26168E-01 1.00000E-45
5.30524E-01 1.00000E-45
5.34878E-01 1.00000E-45
5.39230E-01 1.00000E-45
5.43578E-01 1.00000E-45
5.47923E-01 1.00000E-45
5.52264E-01 1.00000E-45
5.56602E-01 1.00000E-45
5.60935E-01 1.00000E-45
5.65263E-01 1.00000E-45
5.69587E-01 1.00000E-45
5.73905E-01 1.00000E-45
5.78217E-01 1.00000E-45
5.82524E-01 1.00000E-45
5.86824E-01 1.00000E-45
5.91118E-01 1.00000E-45
5.95404E-01 1.00000E-45
5.99684E-01 1.00000E-45
6.03956E-01 1.00000E-45
6.08220E-01 1.00000E-45
6.12476E-01 1.00000E-45
6.16723E-01 1.00000E-45
6.20961E-01 1.00000E-45
6.25190E-01 1.00000E-45
6.29410E-01 1.00000E-45
6.33619E-01 1.00000E-45
6.37819E-01 1.00000E-45
6.42008E-01 1.00000E-45
6.46186E-01 1.00000E-45
6.50353E-01 1.00000E-45
6.54508E-01 1.00000E-45
6.58652E-01 1.00000E-45
6.62784E-01 1.00000E-45
6.66903E-01 1.00000E-45
6.71010E-01 1.00000E-45
6.75104E-01 1.00000E-45
6.79184E-01 1.00000E-45
6.83251E-01 1.00000E-45
6.87303E-01 1.00000E-45
6.91342E-01 1.00000E-45
6.95366E-01 1.00000E-45
6.99375E-01 1.00000E-45
7.03368E-01 1.00000E-45
7.07347E-01 1.00000E-45
7.11309E-01 1.00000E-45
7.15256E-01 1.00000E-45
7.19186E-01 1.00000E-45
7.23099E-01 1.00000E-45
7.26995E-01 1.00000E-45
7.30874E-01 1.00000E-45
7.34736E-01 1.00000E-45
7.38579E-01 1.00000E-45
7.42405E-01 1.00000E-45
7.46212E-01 1.00000E-45
7.50000E-01 1.00000E-45
7.53769E-01 1.00000E-45
7.57519E-01 1.00000E-45
7.61249E-01 1.00000E-45
7.64960E-01 1.00000E-45
7.68650E-01 1.00000E-45
7.72320E-01 1.00000E-45
7.75968E-01 1.00000E-45
7.79596E-01 1.00000E-45
7.83203E-01 1.00000E-45
7.86788E-01 1.00000E-45
7.90351E-01 1.00000E-45
7.93893E-01 1.00000E-45
7.97411E-01 1.00000E-45
8.00908E-01 1.00000E-45
8.04381E-01 1.00000E-45
8.07831E-01 1.00000E-45
8.11257E-01 1.00000E-45
8.14660E-01 1.00000E-45
8.18039E-01 1.00000E-45
8.21394E-01 1.00000E-45
8.24724E-01 1.00000E-45
8.28030E-01 1.00000E-45
8.31310E-01 1.00000E-45
8.34565E-01 1.00000E-45
8.37795E-01 1.00000E-45
8.40999E-01 1.00000E-45
8.44177E-01 1.00000E-45
8.47329E-01 1.00000E-45
8.50455E-01 1.00000E-45
8.53553E-01 1.00000E-45
8.56625E-01 1.00000E-45
8.59670E-01 1.00000E-45
8.62687E-01 1.00000E-45
8.65677E-01 1.00000E-45
8.68639E-01 1.00000E-45
8.71572E-01 1.00000E-45
8.74478E-01 1.00000E-45
8.77355E-01 1.00000E-45
8.80203E-01 1.00000E-45
8.83022E-01 1.00000E-45
8.85812E-01 1.00000E-45
8.88573E-01 1.00000E-45
8.91304E-01 1.00000E-45
8.94005E-01 1.00000E-45
8.96677E-01 1.00000E-45
8.99318E-01 1.00000E-45
9.01928E-01 1.00000E-45
9.04508E-01 1.00000E-45
9.07058E-01 1.00000E-45
9.09576E-01 1.00000E-45
9.12063E-01 1.00000E-45
9.14519E-01 1.00000E-45
9.16943E-01 1.00000E-45
9.19335E-01 1.00000E-45
9.21696E-01 1.00000E-45
9.24024E-01 1.00000E-45
9.26320E-01 1.00000E-45
9.28584E-01 1.00000E-45
9.30815E-01 1.00000E-45
9.33013E-01 1.00000E-45
9.35178E-01 1.00000E-45
9.37310E-01 1.00000E-45
9.39409E-01 1.00000E-45
9.41474E-01 1.00000E-45
9.43505E-01 1.00000E-45
9.45503E-01 1.00000E-45
9.47467E-01 1.00000E-45
9.49397E-01 1.00000E-45
9.51293E-01 1.00000E-45
9.53154E-01 1.00000E-45
9.54981E-01 1.00000E-45
9.56773E-01 1.00000E-45
9.58530E-01 1.00000E-45
9.60252E-01 1.00000E-45
9.61940E-01 1.00000E-45
9.63592E-01 1.00000E-45
9.65209E-01 1.00000E-45
9.66790E-01 1.00000E-45
9.68336E-01 1.00000E-45
9.69846E-01 1.00000E-45
9.71321E-01 1.00000E-45
9.72759E-01 1.00000E-45
9.74162E-01 1.00000E-45
9.75528E-01 1.00000E-45
9.76858E-01 1.00000E-45
9.78152E-01 1.00000E-45
9.79410E-01 1.00000E-45
9.80631E-01 1.00000E-45
9.81815E-01 1.00000E-45
9.82963E-01 1.00000E-45
9.84074E-01 1.00000E-45
9.85148E-01 1.00000E-45
9.86185E-01 1.00000E-45
9.87185E-01 1.00000E-45
9.88148E-01 1.00000E-45
9.89074E-01 1.00000E-45
9.89962E-01 1.00000E-45
9.90814E-01 1.00000E-45
9.91627E-01 1.00000E-45
9.92404E-01 1.00000E-45
9.93143E-01 1.00000E-45
9.93844E-01 1.00000E-45
9.94508E-01 1.00000E-45
9.95134E-01 1.00000E-45
9.95722E-01 1.00000E-45
9.96273E-01 1.00000E-45
9.96786E-01 1.00000E-45
9.97261E-01 1.00000E-45
9.97698E-01 1.00000E-45
9.98097E-01 1.00000E-45
9.98459E-01 1.00000E-45
9.98782E-01 1.00000E-45
9.99067E-01 1.00000E-45
9.99315E-01 1.00000E-45
9.99524E-01 1.00000E-45
9.99695E-01 1.00000E-45
9.99829E-01 1.00000E-45
9.99924E-01 1.00000E-45
9.99981E-01 1.00000E-45
1.00000E+00 1.00000E-45
