 #
 # Subroutine ELSEPA. Elastic scattering of electrons and positrons
 #                    by neutral atoms and positive ions
 #
 # Projectile: electron
 # Kinetic energy = 3.50000E+07 eV = 1.28623E+06 a.u.
 #
 # WARNING: High-energy factorization with free-atom DF screening.
 #          Absorption, polarization and exchange corrections are
 #          switched off.
 #          Phase shifts are calculated for the bare nucleus.
 #          Scattering amplitudes are not evaluated.
 #
 # Element: Zr,  Z =  40,  atomic weight = 9.12240E+01 g/mol
 #
 # Nuclear model: Fermi distribution
 #                Average radius = 4.81674E-13 cm
 #                Skin thickness = 5.46000E-14 cm
 #
 # Number of electrons = 40
 #
 # Total elastic cross section = 4.06798E-18 cm**2 = 1.45270E-01 a0**2
 # 1st transport cross section = 2.48533E-24 cm**2 = 8.87528E-08 a0**2
 # 2nd transport cross section = 7.21192E-24 cm**2 = 2.57542E-07 a0**2
 #
 #
 # Differential cross section:                       MU=(1-COS(THETA))/2
 #
 #  THETA        MU          DCS          DCS        Sherman      error
 #  (deg)                 (cm**2/sr)   (a0**2/sr)    function
 #----------------------------------------------------------------------
0.00000E+00 7.01844E-11
7.61557E-13 7.01480E-11
1.18994E-12 7.01276E-11
1.71346E-12 7.01027E-11
2.33225E-12 7.00733E-11
3.04617E-12 7.00394E-11
3.85530E-12 7.00010E-11
4.75964E-12 6.99582E-11
5.75917E-12 6.99109E-11
6.85391E-12 6.98592E-11
8.04379E-12 6.98030E-11
9.32893E-12 6.97425E-11
1.07092E-11 6.96775E-11
1.21847E-11 6.96082E-11
1.37554E-11 6.95345E-11
1.54213E-11 6.94565E-11
1.71823E-11 6.93742E-11
1.90386E-11 6.92876E-11
2.09900E-11 6.91968E-11
2.30367E-11 6.91017E-11
2.51785E-11 6.90024E-11
2.74156E-11 6.88990E-11
2.97478E-11 6.87914E-11
3.21752E-11 6.86797E-11
3.46979E-11 6.85639E-11
3.73157E-11 6.84441E-11
4.00286E-11 6.83203E-11
4.28368E-11 6.81925E-11
4.57402E-11 6.80608E-11
4.87388E-11 6.79251E-11
5.18325E-11 6.77856E-11
5.50215E-11 6.76423E-11
5.83057E-11 6.74952E-11
6.16850E-11 6.73444E-11
6.51595E-11 6.71898E-11
6.87293E-11 6.70317E-11
7.23943E-11 6.68699E-11
7.61544E-11 6.67045E-11
1.18991E-10 6.48652E-11
1.71347E-10 6.27238E-11
2.33223E-10 6.03344E-11
3.04617E-10 5.77524E-11
3.85531E-10 5.50335E-11
4.75965E-10 5.22315E-11
5.75917E-10 4.93926E-11
6.85389E-10 4.65625E-11
8.04380E-10 4.37769E-11
9.32891E-10 4.10627E-11
1.07092E-09 3.84499E-11
1.21847E-09 3.59511E-11
1.37554E-09 3.35763E-11
1.54213E-09 3.13419E-11
1.71823E-09 2.92422E-11
1.90386E-09 2.72789E-11
2.09900E-09 2.54548E-11
2.30367E-09 2.37588E-11
2.51785E-09 2.21879E-11
2.74156E-09 2.07370E-11
2.97478E-09 1.93952E-11
3.21752E-09 1.81577E-11
3.46978E-09 1.70164E-11
3.73156E-09 1.59626E-11
4.00286E-09 1.49911E-11
4.28368E-09 1.40940E-11
4.57402E-09 1.32651E-11
4.87388E-09 1.24989E-11
5.18326E-09 1.17895E-11
5.50215E-09 1.11328E-11
5.83057E-09 1.05227E-11
6.16850E-09 9.95633E-12
6.51596E-09 9.43003E-12
6.87293E-09 8.93883E-12
7.23942E-09 8.48140E-12
7.61544E-09 8.05435E-12
1.18991E-08 4.99125E-12
1.71347E-08 3.25549E-12
2.33223E-08 2.17788E-12
3.04617E-08 1.53060E-12
3.85531E-08 1.10093E-12
4.75965E-08 8.14000E-13
5.75917E-08 6.19414E-13
6.85389E-08 4.80611E-13
8.04380E-08 3.80339E-13
9.32891E-08 3.06578E-13
1.07092E-07 2.49567E-13
1.21847E-07 2.05617E-13
1.37554E-07 1.71282E-13
1.54213E-07 1.43149E-13
1.71823E-07 1.20663E-13
1.90386E-07 1.02348E-13
2.09900E-07 8.70483E-14
2.30367E-07 7.45017E-14
2.51785E-07 6.40322E-14
2.74156E-07 5.52165E-14
2.97478E-07 4.78574E-14
3.21752E-07 4.16243E-14
3.46978E-07 3.63391E-14
3.73156E-07 3.18638E-14
4.00286E-07 2.80309E-14
4.28368E-07 2.47540E-14
4.57402E-07 2.19443E-14
4.87388E-07 1.95093E-14
5.18325E-07 1.74060E-14
5.50215E-07 1.55820E-14
5.83057E-07 1.39899E-14
6.16850E-07 1.26002E-14
6.51596E-07 1.13819E-14
6.87293E-07 1.03084E-14
7.23942E-07 9.36144E-15
7.61543E-07 8.52257E-15
1.18991E-06 3.72663E-15
1.71347E-06 1.89019E-15
2.33223E-06 1.05619E-15
3.04617E-06 6.34214E-16
3.85531E-06 4.02261E-16
4.75964E-06 2.66985E-16
5.75916E-06 1.83931E-16
6.85388E-06 1.30774E-16
8.04378E-06 9.55156E-17
9.32888E-06 7.13836E-17
1.07092E-05 5.44266E-17
1.21846E-05 4.22268E-17
1.37553E-05 3.32663E-17
1.54212E-05 2.65657E-17
1.71822E-05 2.14723E-17
1.90385E-05 1.75418E-17
2.09899E-05 1.44773E-17
2.30365E-05 1.20531E-17
2.51783E-05 1.01152E-17
2.74153E-05 8.55087E-18
2.97475E-05 7.27712E-18
3.21749E-05 6.23198E-18
3.46974E-05 5.36799E-18
3.73152E-05 4.64892E-18
4.00281E-05 4.04650E-18
4.28362E-05 3.53860E-18
4.57395E-05 3.10793E-18
4.87380E-05 2.74072E-18
5.18317E-05 2.42607E-18
5.50205E-05 2.15522E-18
5.83045E-05 1.92108E-18
6.16838E-05 1.71789E-18
6.51582E-05 1.54088E-18
6.87277E-05 1.38610E-18
7.23925E-05 1.25030E-18
7.61524E-05 1.13084E-18
9.21439E-05 7.74344E-19
1.09658E-04 5.47855E-19
1.28695E-04 3.98465E-19
1.49255E-04 2.96683E-19
1.71338E-04 2.25438E-19
1.94942E-04 1.74353E-19
2.20070E-04 1.36960E-19
2.46720E-04 1.09081E-19
2.74892E-04 8.79511E-20
3.04586E-04 7.17035E-20
3.35803E-04 5.90427E-20
3.68542E-04 4.90599E-20
4.02802E-04 4.11025E-20
4.38585E-04 3.46966E-20
4.75889E-04 2.94931E-20
5.14715E-04 2.52306E-20
5.55063E-04 2.17122E-20
5.96931E-04 1.87870E-20
6.40321E-04 1.63391E-20
6.85233E-04 1.42778E-20
7.31665E-04 1.25320E-20
7.79618E-04 1.10456E-20
8.29092E-04 9.77358E-21
8.80086E-04 8.67983E-21
9.32601E-04 7.73518E-21
9.86636E-04 6.91588E-21
1.04219E-03 6.20246E-21
1.09927E-03 5.57890E-21
1.15786E-03 5.03195E-21
1.21797E-03 4.55056E-21
1.27961E-03 4.12551E-21
1.34276E-03 3.74908E-21
1.40743E-03 3.41472E-21
1.47362E-03 3.11692E-21
1.54133E-03 2.85096E-21
1.61056E-03 2.61285E-21
1.68131E-03 2.39916E-21
1.75357E-03 2.20694E-21
1.82735E-03 2.03364E-21
1.90265E-03 1.87706E-21
1.97947E-03 1.73532E-21
2.05780E-03 1.60675E-21
2.13765E-03 1.48990E-21
2.21902E-03 1.38352E-21
2.30190E-03 1.28649E-21
2.38630E-03 1.19785E-21
2.47222E-03 1.11674E-21
2.55965E-03 1.04240E-21
2.64859E-03 9.74172E-22
2.73905E-03 9.11449E-22
2.83103E-03 8.53712E-22
2.92452E-03 8.00491E-22
3.01952E-03 7.51369E-22
3.11604E-03 7.05971E-22
3.21407E-03 6.63962E-22
3.31362E-03 6.25043E-22
3.41468E-03 5.88945E-22
3.51725E-03 5.55427E-22
3.62133E-03 5.24268E-22
3.72692E-03 4.95271E-22
3.83403E-03 4.68259E-22
3.94265E-03 4.43071E-22
4.05278E-03 4.19561E-22
4.16442E-03 3.97597E-22
4.27757E-03 3.77056E-22
4.39223E-03 3.57829E-22
4.50840E-03 3.39818E-22
4.62608E-03 3.22931E-22
4.74527E-03 3.07084E-22
4.86597E-03 2.92201E-22
4.98817E-03 2.78213E-22
5.11188E-03 2.65055E-22
5.23711E-03 2.52669E-22
5.36383E-03 2.41002E-22
5.49207E-03 2.30002E-22
5.62181E-03 2.19626E-22
5.75306E-03 2.09831E-22
5.88581E-03 2.00579E-22
6.02007E-03 1.91833E-22
6.15583E-03 1.83560E-22
6.29310E-03 1.75730E-22
6.43187E-03 1.68316E-22
6.57214E-03 1.61290E-22
6.71392E-03 1.54628E-22
6.85720E-03 1.48308E-22
7.00198E-03 1.42309E-22
7.14827E-03 1.36613E-22
7.29605E-03 1.31199E-22
7.44534E-03 1.26052E-22
7.59612E-03 1.21156E-22
7.97965E-03 1.09921E-22
8.37255E-03 9.99635E-23
8.77480E-03 9.11131E-23
9.18641E-03 8.32250E-23
9.60736E-03 7.61752E-23
1.00376E-02 6.98596E-23
1.04773E-02 6.41875E-23
1.09262E-02 5.90819E-23
1.13844E-02 5.44759E-23
1.18520E-02 5.03117E-23
1.23288E-02 4.65395E-23
1.28150E-02 4.31154E-23
1.33104E-02 4.00016E-23
1.38150E-02 3.71649E-23
1.43290E-02 3.45760E-23
1.48521E-02 3.22095E-23
1.53845E-02 3.00426E-23
1.59262E-02 2.80555E-23
1.64770E-02 2.62305E-23
1.70371E-02 2.45519E-23
1.76063E-02 2.30058E-23
1.81848E-02 2.15798E-23
1.87724E-02 2.02629E-23
1.93692E-02 1.90452E-23
1.99751E-02 1.79177E-23
2.05901E-02 1.68727E-23
2.12143E-02 1.59028E-23
2.18476E-02 1.50018E-23
2.24900E-02 1.41638E-23
2.31415E-02 1.33835E-23
2.38021E-02 1.26563E-23
2.44717E-02 1.19779E-23
2.51504E-02 1.13443E-23
2.58382E-02 1.07521E-23
2.65349E-02 1.01981E-23
2.72407E-02 9.67929E-24
2.79555E-02 9.19304E-24
2.86793E-02 8.73693E-24
2.94120E-02 8.30874E-24
3.01537E-02 7.90643E-24
3.09043E-02 7.52815E-24
3.16639E-02 7.17219E-24
3.24324E-02 6.83699E-24
3.32098E-02 6.52110E-24
3.39961E-02 6.22321E-24
3.47912E-02 5.94208E-24
3.55952E-02 5.67661E-24
3.64081E-02 5.42575E-24
3.72297E-02 5.18855E-24
3.80602E-02 4.96412E-24
3.88995E-02 4.75165E-24
3.97476E-02 4.55037E-24
4.06044E-02 4.35959E-24
4.14700E-02 4.17865E-24
4.23443E-02 4.00695E-24
4.32273E-02 3.84393E-24
4.41190E-02 3.68906E-24
4.50194E-02 3.54187E-24
4.59284E-02 3.40190E-24
4.68461E-02 3.26872E-24
4.87074E-02 3.02122E-24
5.06030E-02 2.79652E-24
5.25328E-02 2.59216E-24
5.44967E-02 2.40595E-24
5.64946E-02 2.23600E-24
5.85262E-02 2.08064E-24
6.05914E-02 1.93839E-24
6.26901E-02 1.80794E-24
6.48222E-02 1.68814E-24
6.69873E-02 1.57796E-24
6.91854E-02 1.47649E-24
7.14163E-02 1.38293E-24
7.36799E-02 1.29654E-24
7.59760E-02 1.21667E-24
7.83043E-02 1.14275E-24
8.06647E-02 1.07425E-24
8.30571E-02 1.01071E-24
8.54812E-02 9.51695E-25
8.79369E-02 8.96834E-25
9.04240E-02 8.45781E-25
9.29422E-02 7.98223E-25
9.54915E-02 7.53879E-25
9.80716E-02 7.12494E-25
1.00682E-01 6.73835E-25
1.03323E-01 6.37691E-25
1.05995E-01 6.03869E-25
1.08696E-01 5.72194E-25
1.11427E-01 5.42506E-25
1.14188E-01 5.14658E-25
1.16978E-01 4.88516E-25
1.19797E-01 4.63958E-25
1.22645E-01 4.40870E-25
1.25522E-01 4.19150E-25
1.28428E-01 3.98702E-25
1.31361E-01 3.79439E-25
1.34323E-01 3.61281E-25
1.37313E-01 3.44153E-25
1.40330E-01 3.27987E-25
1.43375E-01 3.12719E-25
1.46447E-01 2.98292E-25
1.49545E-01 2.84650E-25
1.52671E-01 2.71745E-25
1.55823E-01 2.59529E-25
1.59001E-01 2.47959E-25
1.62205E-01 2.36996E-25
1.65435E-01 2.26603E-25
1.68690E-01 2.16744E-25
1.71970E-01 2.07389E-25
1.75276E-01 1.98506E-25
1.78606E-01 1.90068E-25
1.81961E-01 1.82050E-25
1.85340E-01 1.74426E-25
1.88743E-01 1.67175E-25
1.92169E-01 1.60275E-25
1.95619E-01 1.53706E-25
1.99092E-01 1.47450E-25
2.02589E-01 1.41490E-25
2.06107E-01 1.35810E-25
2.09649E-01 1.30393E-25
2.13212E-01 1.25227E-25
2.16797E-01 1.20297E-25
2.20404E-01 1.15591E-25
2.24032E-01 1.11098E-25
2.27680E-01 1.06806E-25
2.31350E-01 1.02705E-25
2.35040E-01 9.87850E-26
2.38751E-01 9.50368E-26
2.42481E-01 9.14518E-26
2.46231E-01 8.80218E-26
2.50000E-01 8.47390E-26
2.53788E-01 8.15963E-26
2.57595E-01 7.85867E-26
2.61421E-01 7.57038E-26
2.65264E-01 7.29414E-26
2.69126E-01 7.02938E-26
2.73005E-01 6.77555E-26
2.76901E-01 6.53213E-26
2.80814E-01 6.29863E-26
2.84744E-01 6.07460E-26
2.88691E-01 5.85959E-26
2.92653E-01 5.65319E-26
2.96632E-01 5.45500E-26
3.00625E-01 5.26466E-26
3.04634E-01 5.08180E-26
3.08658E-01 4.90609E-26
3.12697E-01 4.73722E-26
3.16749E-01 4.57488E-26
3.20816E-01 4.41878E-26
3.24896E-01 4.26866E-26
3.28990E-01 4.12425E-26
3.33097E-01 3.98530E-26
3.37216E-01 3.85159E-26
3.41348E-01 3.72288E-26
3.45492E-01 3.59897E-26
3.49647E-01 3.47965E-26
3.53814E-01 3.36473E-26
3.57992E-01 3.25404E-26
3.62181E-01 3.14738E-26
3.66381E-01 3.04460E-26
3.70590E-01 2.94554E-26
3.74810E-01 2.85005E-26
3.79039E-01 2.75798E-26
3.83277E-01 2.66919E-26
3.87524E-01 2.58355E-26
3.91780E-01 2.50094E-26
3.96044E-01 2.42124E-26
4.00316E-01 2.34433E-26
4.04596E-01 2.27010E-26
4.08882E-01 2.19845E-26
4.13176E-01 2.12928E-26
4.17476E-01 2.06249E-26
4.21783E-01 1.99799E-26
4.26095E-01 1.93569E-26
4.30413E-01 1.87551E-26
4.34737E-01 1.81736E-26
4.39065E-01 1.76118E-26
4.43398E-01 1.70689E-26
4.47736E-01 1.65441E-26
4.52077E-01 1.60369E-26
4.56422E-01 1.55465E-26
4.60770E-01 1.50723E-26
4.65122E-01 1.46137E-26
4.69476E-01 1.41702E-26
4.73832E-01 1.37412E-26
4.78190E-01 1.33262E-26
4.82550E-01 1.29247E-26
4.86912E-01 1.25362E-26
4.91274E-01 1.21602E-26
4.95637E-01 1.17962E-26
5.00000E-01 1.14440E-26
5.04363E-01 1.11030E-26
5.08726E-01 1.07728E-26
5.13088E-01 1.04531E-26
5.17450E-01 1.01436E-26
5.21810E-01 9.84373E-27
5.26168E-01 9.55332E-27
5.30524E-01 9.27199E-27
5.34878E-01 8.99945E-27
5.39230E-01 8.73538E-27
5.43578E-01 8.47951E-27
5.47923E-01 8.23154E-27
5.52264E-01 7.99122E-27
5.56602E-01 7.75829E-27
5.60935E-01 7.53249E-27
5.65263E-01 7.31359E-27
5.69587E-01 7.10136E-27
5.73905E-01 6.89558E-27
5.78217E-01 6.69603E-27
5.82524E-01 6.50251E-27
5.86824E-01 6.31482E-27
5.91118E-01 6.13277E-27
5.95404E-01 5.95617E-27
5.99684E-01 5.78485E-27
6.03956E-01 5.61863E-27
6.08220E-01 5.45736E-27
6.12476E-01 5.30086E-27
6.16723E-01 5.14900E-27
6.20961E-01 5.00161E-27
6.25190E-01 4.85856E-27
6.29410E-01 4.71971E-27
6.33619E-01 4.58492E-27
6.37819E-01 4.45408E-27
6.42008E-01 4.32704E-27
6.46186E-01 4.20369E-27
6.50353E-01 4.08393E-27
6.54508E-01 3.96762E-27
6.58652E-01 3.85468E-27
6.62784E-01 3.74499E-27
6.66903E-01 3.63845E-27
6.71010E-01 3.53496E-27
6.75104E-01 3.43444E-27
6.79184E-01 3.33678E-27
6.83251E-01 3.24191E-27
6.87303E-01 3.14973E-27
6.91342E-01 3.06017E-27
6.95366E-01 2.97315E-27
6.99375E-01 2.88858E-27
7.03368E-01 2.80640E-27
7.07347E-01 2.72653E-27
7.11309E-01 2.64890E-27
7.15256E-01 2.57345E-27
7.19186E-01 2.50011E-27
7.23099E-01 2.42882E-27
7.26995E-01 2.35951E-27
7.30874E-01 2.29214E-27
7.34736E-01 2.22663E-27
7.38579E-01 2.16295E-27
7.42405E-01 2.10102E-27
7.46212E-01 2.04080E-27
7.50000E-01 1.98225E-27
7.53769E-01 1.92531E-27
7.57519E-01 1.86993E-27
7.61249E-01 1.81608E-27
7.64960E-01 1.76370E-27
7.68650E-01 1.71275E-27
7.72320E-01 1.66320E-27
7.75968E-01 1.61500E-27
7.79596E-01 1.56811E-27
7.83203E-01 1.52250E-27
7.86788E-01 1.47812E-27
7.90351E-01 1.43495E-27
7.93893E-01 1.39296E-27
7.97411E-01 1.35209E-27
8.00908E-01 1.31234E-27
8.04381E-01 1.27365E-27
8.07831E-01 1.23601E-27
8.11257E-01 1.19938E-27
8.14660E-01 1.16374E-27
8.18039E-01 1.12906E-27
8.21394E-01 1.09531E-27
8.24724E-01 1.06247E-27
8.28030E-01 1.03050E-27
8.31310E-01 9.99393E-28
8.34565E-01 9.69118E-28
8.37795E-01 9.39653E-28
8.40999E-01 9.10976E-28
8.44177E-01 8.83066E-28
8.47329E-01 8.55900E-28
8.50455E-01 8.29460E-28
8.53553E-01 8.03725E-28
8.56625E-01 7.78677E-28
8.59670E-01 7.54297E-28
8.62687E-01 7.30567E-28
8.65677E-01 7.07469E-28
8.68639E-01 6.84988E-28
8.71572E-01 6.63106E-28
8.74478E-01 6.41807E-28
8.77355E-01 6.21076E-28
8.80203E-01 6.00898E-28
8.83022E-01 5.81259E-28
8.85812E-01 5.62145E-28
8.88573E-01 5.43541E-28
8.91304E-01 5.25434E-28
8.94005E-01 5.07813E-28
8.96677E-01 4.90663E-28
8.99318E-01 4.73973E-28
9.01928E-01 4.57732E-28
9.04508E-01 4.41927E-28
9.07058E-01 4.26548E-28
9.09576E-01 4.11584E-28
9.12063E-01 3.97024E-28
9.14519E-01 3.82858E-28
9.16943E-01 3.69077E-28
9.19335E-01 3.55671E-28
9.21696E-01 3.42631E-28
9.24024E-01 3.29947E-28
9.26320E-01 3.17611E-28
9.28584E-01 3.05614E-28
9.30815E-01 2.93949E-28
9.33013E-01 2.82607E-28
9.35178E-01 2.71580E-28
9.37310E-01 2.60862E-28
9.39409E-01 2.50444E-28
9.41474E-01 2.40320E-28
9.43505E-01 2.30483E-28
9.45503E-01 2.20926E-28
9.47467E-01 2.11644E-28
9.49397E-01 2.02628E-28
9.51293E-01 1.93875E-28
9.53154E-01 1.85377E-28
9.54981E-01 1.77129E-28
9.56773E-01 1.69125E-28
9.58530E-01 1.61361E-28
9.60252E-01 1.53831E-28
9.61940E-01 1.46531E-28
9.63592E-01 1.39454E-28
9.65209E-01 1.32597E-28
9.66790E-01 1.25956E-28
9.68336E-01 1.19525E-28
9.69846E-01 1.13301E-28
9.71321E-01 1.07279E-28
9.72759E-01 1.01455E-28
9.74162E-01 9.58270E-29
9.75528E-01 9.03896E-29
9.76858E-01 8.51397E-29
9.78152E-01 8.00739E-29
9.79410E-01 7.51891E-29
9.80631E-01 7.04819E-29
9.81815E-01 6.59493E-29
9.82963E-01 6.15885E-29
9.84074E-01 5.73966E-29
9.85148E-01 5.33709E-29
9.86185E-01 4.95087E-29
9.87185E-01 4.58078E-29
9.88148E-01 4.22656E-29
9.89074E-01 3.88798E-29
9.89962E-01 3.56484E-29
9.90814E-01 3.25692E-29
9.91627E-01 2.96403E-29
9.92404E-01 2.68598E-29
9.93143E-01 2.42260E-29
9.93844E-01 2.17371E-29
9.94508E-01 1.93915E-29
9.95134E-01 1.71879E-29
9.95722E-01 1.51247E-29
9.96273E-01 1.32007E-29
9.96786E-01 1.14146E-29
9.97261E-01 9.76531E-30
9.97698E-01 8.25179E-30
9.98097E-01 6.87307E-30
9.98459E-01 5.62828E-30
9.98782E-01 4.51662E-30
9.99067E-01 3.53740E-30
9.99315E-01 2.68999E-30
9.99524E-01 1.97385E-30
9.99695E-01 1.38854E-30
9.99829E-01 9.33679E-31
9.99924E-01 6.08984E-31
9.99981E-01 4.14250E-31
1.00000E+00 3.49352E-31
