 #
 # Subroutine ELSEPA. Elastic scattering of electrons and positrons
 #                    by neutral atoms and positive ions
 #
 # Projectile: electron
 # Kinetic energy = 4.00000E+07 eV = 1.46997E+06 a.u.
 #
 # WARNING: High-energy factorization with free-atom DF screening.
 #          Absorption, polarization and exchange corrections are
 #          switched off.
 #          Phase shifts are calculated for the bare nucleus.
 #          Scattering amplitudes are not evaluated.
 #
 # Element: Zr,  Z =  40,  atomic weight = 9.12240E+01 g/mol
 #
 # Nuclear model: Fermi distribution
 #                Average radius = 4.81674E-13 cm
 #                Skin thickness = 5.46000E-14 cm
 #
 # Number of electrons = 40
 #
 # Total elastic cross section = 4.06730E-18 cm**2 = 1.45246E-01 a0**2
 # 1st transport cross section = 1.92291E-24 cm**2 = 6.86684E-08 a0**2
 # 2nd transport cross section = 5.59954E-24 cm**2 = 1.99963E-07 a0**2
 #
 #
 # Differential cross section:                       MU=(1-COS(THETA))/2
 #
 #  THETA        MU          DCS          DCS        Sherman      error
 #  (deg)                 (cm**2/sr)   (a0**2/sr)    function
 #----------------------------------------------------------------------
0.00000E+00 9.13399E-11
7.61557E-13 9.12783E-11
1.18994E-12 9.12438E-11
1.71346E-12 9.12016E-11
2.33225E-12 9.11519E-11
3.04617E-12 9.10945E-11
3.85530E-12 9.10296E-11
4.75964E-12 9.09572E-11
5.75917E-12 9.08773E-11
6.85391E-12 9.07898E-11
8.04379E-12 9.06949E-11
9.32893E-12 9.05927E-11
1.07092E-11 9.04830E-11
1.21847E-11 9.03660E-11
1.37554E-11 9.02418E-11
1.54213E-11 9.01103E-11
1.71823E-11 8.99716E-11
1.90386E-11 8.98258E-11
2.09900E-11 8.96729E-11
2.30367E-11 8.95130E-11
2.51785E-11 8.93461E-11
2.74156E-11 8.91724E-11
2.97478E-11 8.89918E-11
3.21752E-11 8.88044E-11
3.46979E-11 8.86104E-11
3.73157E-11 8.84098E-11
4.00286E-11 8.82026E-11
4.28368E-11 8.79889E-11
4.57402E-11 8.77689E-11
4.87388E-11 8.75425E-11
5.18325E-11 8.73099E-11
5.50215E-11 8.70712E-11
5.83057E-11 8.68265E-11
6.16850E-11 8.65757E-11
6.51595E-11 8.63191E-11
6.87293E-11 8.60567E-11
7.23943E-11 8.57886E-11
7.61544E-11 8.55149E-11
1.18991E-10 8.24918E-11
1.71347E-10 7.90211E-11
2.33223E-10 7.52095E-11
3.04617E-10 7.11645E-11
3.85531E-10 6.69894E-11
4.75965E-10 6.27740E-11
5.75917E-10 5.85959E-11
6.85389E-10 5.45229E-11
8.04380E-10 5.06060E-11
9.32891E-10 4.68777E-11
1.07092E-09 4.33619E-11
1.21847E-09 4.00788E-11
1.37554E-09 3.70298E-11
1.54213E-09 3.42107E-11
1.71823E-09 3.16154E-11
1.90386E-09 2.92397E-11
2.09900E-09 2.70651E-11
2.30367E-09 2.50776E-11
2.51785E-09 2.32638E-11
2.74156E-09 2.16115E-11
2.97478E-09 2.01034E-11
3.21752E-09 1.87269E-11
3.46978E-09 1.74700E-11
3.73156E-09 1.63209E-11
4.00286E-09 1.52687E-11
4.28368E-09 1.43045E-11
4.57402E-09 1.34190E-11
4.87388E-09 1.26039E-11
5.18326E-09 1.18532E-11
5.50215E-09 1.11610E-11
5.83057E-09 1.05202E-11
6.16850E-09 9.92627E-12
6.51596E-09 9.37580E-12
6.87293E-09 8.86488E-12
7.23942E-09 8.38803E-12
7.61544E-09 7.94359E-12
1.18991E-08 4.78790E-12
1.71347E-08 3.00514E-12
2.33223E-08 2.00202E-12
3.04617E-08 1.37899E-12
3.85531E-08 9.82014E-13
4.75965E-08 7.24112E-13
5.75917E-08 5.49469E-13
6.85389E-08 4.25872E-13
8.04380E-08 3.35828E-13
9.32891E-08 2.69042E-13
1.07092E-07 2.18298E-13
1.21847E-07 1.78400E-13
1.37554E-07 1.46966E-13
1.54213E-07 1.22034E-13
1.71823E-07 1.02023E-13
1.90386E-07 8.56233E-14
2.09900E-07 7.23040E-14
2.30367E-07 6.14144E-14
2.51785E-07 5.24407E-14
2.74156E-07 4.49657E-14
2.97478E-07 3.87643E-14
3.21752E-07 3.35875E-14
3.46978E-07 2.92386E-14
3.73156E-07 2.55557E-14
4.00286E-07 2.24382E-14
4.28368E-07 1.97860E-14
4.57402E-07 1.75171E-14
4.87388E-07 1.55678E-14
5.18325E-07 1.38871E-14
5.50215E-07 1.24314E-14
5.83057E-07 1.11639E-14
6.16850E-07 1.00562E-14
6.51596E-07 9.08499E-15
6.87293E-07 8.23031E-15
7.23942E-07 7.47459E-15
7.61543E-07 6.80492E-15
1.18991E-06 2.97167E-15
1.71347E-06 1.49690E-15
2.33223E-06 8.30885E-16
3.04617E-06 4.95826E-16
3.85531E-06 3.13357E-16
4.75964E-06 2.07475E-16
5.75916E-06 1.42750E-16
6.85388E-06 1.01424E-16
8.04378E-06 7.40449E-17
9.32888E-06 5.53237E-17
1.07092E-05 4.21718E-17
1.21846E-05 3.27117E-17
1.37553E-05 2.57649E-17
1.54212E-05 2.05699E-17
1.71822E-05 1.66217E-17
1.90385E-05 1.35752E-17
2.09899E-05 1.12000E-17
2.30365E-05 9.32186E-18
2.51783E-05 7.82061E-18
2.74153E-05 6.60907E-18
2.97475E-05 5.62291E-18
3.21749E-05 4.81391E-18
3.46974E-05 4.14535E-18
3.73152E-05 3.58907E-18
4.00281E-05 3.12316E-18
4.28362E-05 2.73049E-18
4.57395E-05 2.39761E-18
4.87380E-05 2.11386E-18
5.18317E-05 1.87079E-18
5.50205E-05 1.66160E-18
5.83045E-05 1.48082E-18
6.16838E-05 1.32396E-18
6.51582E-05 1.18735E-18
6.87277E-05 1.06792E-18
7.23925E-05 9.63156E-19
7.61524E-05 8.71037E-19
9.21439E-05 5.96169E-19
1.09658E-04 4.21646E-19
1.28695E-04 3.06586E-19
1.49255E-04 2.28223E-19
1.71338E-04 1.73388E-19
1.94942E-04 1.34079E-19
2.20070E-04 1.05312E-19
2.46720E-04 8.38671E-20
2.74892E-04 6.76163E-20
3.04586E-04 5.51217E-20
3.35803E-04 4.53863E-20
3.68542E-04 3.77108E-20
4.02802E-04 3.15930E-20
4.38585E-04 2.66683E-20
4.75889E-04 2.26682E-20
5.14715E-04 1.93915E-20
5.55063E-04 1.66870E-20
5.96931E-04 1.44386E-20
6.40321E-04 1.25570E-20
6.85233E-04 1.09726E-20
7.31665E-04 9.63088E-21
7.79618E-04 8.48846E-21
8.29092E-04 7.51080E-21
8.80086E-04 6.67020E-21
9.32601E-04 5.94419E-21
9.86636E-04 5.31452E-21
1.04219E-03 4.76625E-21
1.09927E-03 4.28703E-21
1.15786E-03 3.86669E-21
1.21797E-03 3.49673E-21
1.27961E-03 3.17009E-21
1.34276E-03 2.88081E-21
1.40743E-03 2.62386E-21
1.47362E-03 2.39500E-21
1.54133E-03 2.19061E-21
1.61056E-03 2.00764E-21
1.68131E-03 1.84342E-21
1.75357E-03 1.69570E-21
1.82735E-03 1.56252E-21
1.90265E-03 1.44221E-21
1.97947E-03 1.33328E-21
2.05780E-03 1.23448E-21
2.13765E-03 1.14469E-21
2.21902E-03 1.06294E-21
2.30190E-03 9.88383E-22
2.38630E-03 9.20270E-22
2.47222E-03 8.57942E-22
2.55965E-03 8.00818E-22
2.64859E-03 7.48386E-22
2.73905E-03 7.00190E-22
2.83103E-03 6.55825E-22
2.92452E-03 6.14928E-22
3.01952E-03 5.77182E-22
3.11604E-03 5.42298E-22
3.21407E-03 5.10020E-22
3.31362E-03 4.80114E-22
3.41468E-03 4.52377E-22
3.51725E-03 4.26621E-22
3.62133E-03 4.02680E-22
3.72692E-03 3.80399E-22
3.83403E-03 3.59644E-22
3.94265E-03 3.40291E-22
4.05278E-03 3.22227E-22
4.16442E-03 3.05350E-22
4.27757E-03 2.89567E-22
4.39223E-03 2.74795E-22
4.50840E-03 2.60957E-22
4.62608E-03 2.47982E-22
4.74527E-03 2.35806E-22
4.86597E-03 2.24371E-22
4.98817E-03 2.13624E-22
5.11188E-03 2.03515E-22
5.23711E-03 1.93999E-22
5.36383E-03 1.85035E-22
5.49207E-03 1.76585E-22
5.62181E-03 1.68613E-22
5.75306E-03 1.61088E-22
5.88581E-03 1.53979E-22
6.02007E-03 1.47260E-22
6.15583E-03 1.40906E-22
6.29310E-03 1.34890E-22
6.43187E-03 1.29194E-22
6.57214E-03 1.23797E-22
6.71392E-03 1.18679E-22
6.85720E-03 1.13824E-22
7.00198E-03 1.09217E-22
7.14827E-03 1.04840E-22
7.29605E-03 1.00682E-22
7.44534E-03 9.67278E-23
7.59612E-03 9.29672E-23
7.97965E-03 8.43373E-23
8.37255E-03 7.66894E-23
8.77480E-03 6.98918E-23
9.18641E-03 6.38333E-23
9.60736E-03 5.84194E-23
1.00376E-02 5.35690E-23
1.04773E-02 4.92133E-23
1.09262E-02 4.52927E-23
1.13844E-02 4.17559E-23
1.18520E-02 3.85586E-23
1.23288E-02 3.56624E-23
1.28150E-02 3.30337E-23
1.33104E-02 3.06434E-23
1.38150E-02 2.84659E-23
1.43290E-02 2.64788E-23
1.48521E-02 2.46624E-23
1.53845E-02 2.29995E-23
1.59262E-02 2.14745E-23
1.64770E-02 2.00741E-23
1.70371E-02 1.87861E-23
1.76063E-02 1.75999E-23
1.81848E-02 1.65059E-23
1.87724E-02 1.54957E-23
1.93692E-02 1.45617E-23
1.99751E-02 1.36969E-23
2.05901E-02 1.28954E-23
2.12143E-02 1.21517E-23
2.18476E-02 1.14608E-23
2.24900E-02 1.08183E-23
2.31415E-02 1.02201E-23
2.38021E-02 9.66268E-24
2.44717E-02 9.14267E-24
2.51504E-02 8.65711E-24
2.58382E-02 8.20329E-24
2.65349E-02 7.77876E-24
2.72407E-02 7.38126E-24
2.79555E-02 7.00876E-24
2.86793E-02 6.65938E-24
2.94120E-02 6.33142E-24
3.01537E-02 6.02333E-24
3.09043E-02 5.73368E-24
3.16639E-02 5.46114E-24
3.24324E-02 5.20453E-24
3.32098E-02 4.96274E-24
3.39961E-02 4.73475E-24
3.47912E-02 4.51962E-24
3.55952E-02 4.31650E-24
3.64081E-02 4.12458E-24
3.72297E-02 3.94314E-24
3.80602E-02 3.77149E-24
3.88995E-02 3.60900E-24
3.97476E-02 3.45510E-24
4.06044E-02 3.30925E-24
4.14700E-02 3.17094E-24
4.23443E-02 3.03972E-24
4.32273E-02 2.91515E-24
4.41190E-02 2.79683E-24
4.50194E-02 2.68438E-24
4.59284E-02 2.57747E-24
4.68461E-02 2.47577E-24
4.87074E-02 2.28681E-24
5.06030E-02 2.11531E-24
5.25328E-02 1.95939E-24
5.44967E-02 1.81737E-24
5.64946E-02 1.68781E-24
5.85262E-02 1.56940E-24
6.05914E-02 1.46102E-24
6.26901E-02 1.36168E-24
6.48222E-02 1.27048E-24
6.69873E-02 1.18665E-24
6.91854E-02 1.10947E-24
7.14163E-02 1.03834E-24
7.36799E-02 9.72683E-25
7.59760E-02 9.12016E-25
7.83043E-02 8.55890E-25
8.06647E-02 8.03906E-25
8.30571E-02 7.55705E-25
8.54812E-02 7.10963E-25
8.79369E-02 6.69389E-25
9.04240E-02 6.30719E-25
9.29422E-02 5.94716E-25
9.54915E-02 5.61163E-25
9.80716E-02 5.29865E-25
1.00682E-01 5.00645E-25
1.03323E-01 4.73340E-25
1.05995E-01 4.47805E-25
1.08696E-01 4.23903E-25
1.11427E-01 4.01514E-25
1.14188E-01 3.80524E-25
1.16978E-01 3.60833E-25
1.19797E-01 3.42345E-25
1.22645E-01 3.24975E-25
1.25522E-01 3.08644E-25
1.28428E-01 2.93280E-25
1.31361E-01 2.78815E-25
1.34323E-01 2.65188E-25
1.37313E-01 2.52343E-25
1.40330E-01 2.40228E-25
1.43375E-01 2.28793E-25
1.46447E-01 2.17996E-25
1.49545E-01 2.07793E-25
1.52671E-01 1.98148E-25
1.55823E-01 1.89025E-25
1.59001E-01 1.80391E-25
1.62205E-01 1.72216E-25
1.65435E-01 1.64471E-25
1.68690E-01 1.57130E-25
1.71970E-01 1.50169E-25
1.75276E-01 1.43565E-25
1.78606E-01 1.37297E-25
1.81961E-01 1.31345E-25
1.85340E-01 1.25690E-25
1.88743E-01 1.20316E-25
1.92169E-01 1.15207E-25
1.95619E-01 1.10347E-25
1.99092E-01 1.05722E-25
2.02589E-01 1.01320E-25
2.06107E-01 9.71276E-26
2.09649E-01 9.31338E-26
2.13212E-01 8.93277E-26
2.16797E-01 8.56992E-26
2.20404E-01 8.22388E-26
2.24032E-01 7.89375E-26
2.27680E-01 7.57870E-26
2.31350E-01 7.27794E-26
2.35040E-01 6.99073E-26
2.38751E-01 6.71637E-26
2.42481E-01 6.45420E-26
2.46231E-01 6.20361E-26
2.50000E-01 5.96401E-26
2.53788E-01 5.73486E-26
2.57595E-01 5.51563E-26
2.61421E-01 5.30584E-26
2.65264E-01 5.10503E-26
2.69126E-01 4.91275E-26
2.73005E-01 4.72861E-26
2.76901E-01 4.55220E-26
2.80814E-01 4.38316E-26
2.84744E-01 4.22114E-26
2.88691E-01 4.06581E-26
2.92653E-01 3.91687E-26
2.96632E-01 3.77400E-26
3.00625E-01 3.63694E-26
3.04634E-01 3.50542E-26
3.08658E-01 3.37918E-26
3.12697E-01 3.25799E-26
3.16749E-01 3.14162E-26
3.20816E-01 3.02985E-26
3.24896E-01 2.92248E-26
3.28990E-01 2.81932E-26
3.33097E-01 2.72018E-26
3.37216E-01 2.62488E-26
3.41348E-01 2.53326E-26
3.45492E-01 2.44516E-26
3.49647E-01 2.36043E-26
3.53814E-01 2.27893E-26
3.57992E-01 2.20051E-26
3.62181E-01 2.12505E-26
3.66381E-01 2.05242E-26
3.70590E-01 1.98251E-26
3.74810E-01 1.91520E-26
3.79039E-01 1.85038E-26
3.83277E-01 1.78796E-26
3.87524E-01 1.72783E-26
3.91780E-01 1.66990E-26
3.96044E-01 1.61408E-26
4.00316E-01 1.56029E-26
4.04596E-01 1.50844E-26
4.08882E-01 1.45846E-26
4.13176E-01 1.41027E-26
4.17476E-01 1.36381E-26
4.21783E-01 1.31900E-26
4.26095E-01 1.27577E-26
4.30413E-01 1.23408E-26
4.34737E-01 1.19385E-26
4.39065E-01 1.15504E-26
4.43398E-01 1.11758E-26
4.47736E-01 1.08142E-26
4.52077E-01 1.04652E-26
4.56422E-01 1.01283E-26
4.60770E-01 9.80301E-27
4.65122E-01 9.48888E-27
4.69476E-01 9.18550E-27
4.73832E-01 8.89248E-27
4.78190E-01 8.60942E-27
4.82550E-01 8.33597E-27
4.86912E-01 8.07176E-27
4.91274E-01 7.81645E-27
4.95637E-01 7.56972E-27
5.00000E-01 7.33125E-27
5.04363E-01 7.10075E-27
5.08726E-01 6.87791E-27
5.13088E-01 6.66248E-27
5.17450E-01 6.45417E-27
5.21810E-01 6.25274E-27
5.26168E-01 6.05794E-27
5.30524E-01 5.86953E-27
5.34878E-01 5.68729E-27
5.39230E-01 5.51099E-27
5.43578E-01 5.34043E-27
5.47923E-01 5.17540E-27
5.52264E-01 5.01572E-27
5.56602E-01 4.86120E-27
5.60935E-01 4.71165E-27
5.65263E-01 4.56690E-27
5.69587E-01 4.42679E-27
5.73905E-01 4.29116E-27
5.78217E-01 4.15986E-27
5.82524E-01 4.03272E-27
5.86824E-01 3.90963E-27
5.91118E-01 3.79043E-27
5.95404E-01 3.67499E-27
5.99684E-01 3.56319E-27
6.03956E-01 3.45490E-27
6.08220E-01 3.35001E-27
6.12476E-01 3.24839E-27
6.16723E-01 3.14996E-27
6.20961E-01 3.05458E-27
6.25190E-01 2.96217E-27
6.29410E-01 2.87263E-27
6.33619E-01 2.78586E-27
6.37819E-01 2.70177E-27
6.42008E-01 2.62026E-27
6.46186E-01 2.54127E-27
6.50353E-01 2.46470E-27
6.54508E-01 2.39047E-27
6.58652E-01 2.31852E-27
6.62784E-01 2.24875E-27
6.66903E-01 2.18112E-27
6.71010E-01 2.11553E-27
6.75104E-01 2.05194E-27
6.79184E-01 1.99027E-27
6.83251E-01 1.93047E-27
6.87303E-01 1.87247E-27
6.91342E-01 1.81621E-27
6.95366E-01 1.76165E-27
6.99375E-01 1.70872E-27
7.03368E-01 1.65738E-27
7.07347E-01 1.60757E-27
7.11309E-01 1.55925E-27
7.15256E-01 1.51236E-27
7.19186E-01 1.46688E-27
7.23099E-01 1.42274E-27
7.26995E-01 1.37991E-27
7.30874E-01 1.33835E-27
7.34736E-01 1.29802E-27
7.38579E-01 1.25888E-27
7.42405E-01 1.22089E-27
7.46212E-01 1.18402E-27
7.50000E-01 1.14823E-27
7.53769E-01 1.11349E-27
7.57519E-01 1.07977E-27
7.61249E-01 1.04703E-27
7.64960E-01 1.01525E-27
7.68650E-01 9.84402E-28
7.72320E-01 9.54448E-28
7.75968E-01 9.25366E-28
7.79596E-01 8.97128E-28
7.83203E-01 8.69709E-28
7.86788E-01 8.43086E-28
7.90351E-01 8.17232E-28
7.93893E-01 7.92126E-28
7.97411E-01 7.67745E-28
8.00908E-01 7.44067E-28
8.04381E-01 7.21071E-28
8.07831E-01 6.98737E-28
8.11257E-01 6.77045E-28
8.14660E-01 6.55976E-28
8.18039E-01 6.35512E-28
8.21394E-01 6.15634E-28
8.24724E-01 5.96325E-28
8.28030E-01 5.77569E-28
8.31310E-01 5.59350E-28
8.34565E-01 5.41651E-28
8.37795E-01 5.24457E-28
8.40999E-01 5.07753E-28
8.44177E-01 4.91526E-28
8.47329E-01 4.75762E-28
8.50455E-01 4.60446E-28
8.53553E-01 4.45566E-28
8.56625E-01 4.31109E-28
8.59670E-01 4.17064E-28
8.62687E-01 4.03418E-28
8.65677E-01 3.90160E-28
8.68639E-01 3.77279E-28
8.71572E-01 3.64763E-28
8.74478E-01 3.52604E-28
8.77355E-01 3.40790E-28
8.80203E-01 3.29311E-28
8.83022E-01 3.18159E-28
8.85812E-01 3.07324E-28
8.88573E-01 2.96797E-28
8.91304E-01 2.86569E-28
8.94005E-01 2.76633E-28
8.96677E-01 2.66980E-28
8.99318E-01 2.57602E-28
9.01928E-01 2.48491E-28
9.04508E-01 2.39641E-28
9.07058E-01 2.31043E-28
9.09576E-01 2.22692E-28
9.12063E-01 2.14580E-28
9.14519E-01 2.06701E-28
9.16943E-01 1.99049E-28
9.19335E-01 1.91617E-28
9.21696E-01 1.84400E-28
9.24024E-01 1.77392E-28
9.26320E-01 1.70587E-28
9.28584E-01 1.63979E-28
9.30815E-01 1.57565E-28
9.33013E-01 1.51338E-28
9.35178E-01 1.45293E-28
9.37310E-01 1.39427E-28
9.39409E-01 1.33734E-28
9.41474E-01 1.28210E-28
9.43505E-01 1.22850E-28
9.45503E-01 1.17651E-28
9.47467E-01 1.12609E-28
9.49397E-01 1.07719E-28
9.51293E-01 1.02977E-28
9.53154E-01 9.83811E-29
9.54981E-01 9.39262E-29
9.56773E-01 8.96095E-29
9.58530E-01 8.54275E-29
9.60252E-01 8.13770E-29
9.61940E-01 7.74550E-29
9.63592E-01 7.36585E-29
9.65209E-01 6.99845E-29
9.66790E-01 6.64302E-29
9.68336E-01 6.29931E-29
9.69846E-01 5.96703E-29
9.71321E-01 5.64595E-29
9.72759E-01 5.33582E-29
9.74162E-01 5.03641E-29
9.75528E-01 4.74748E-29
9.76858E-01 4.46883E-29
9.78152E-01 4.20023E-29
9.79410E-01 3.94150E-29
9.80631E-01 3.69243E-29
9.81815E-01 3.45285E-29
9.82963E-01 3.22256E-29
9.84074E-01 3.00140E-29
9.85148E-01 2.78921E-29
9.86185E-01 2.58581E-29
9.87185E-01 2.39108E-29
9.88148E-01 2.20484E-29
9.89074E-01 2.02698E-29
9.89962E-01 1.85736E-29
9.90814E-01 1.69585E-29
9.91627E-01 1.54233E-29
9.92404E-01 1.39669E-29
9.93143E-01 1.25882E-29
9.93844E-01 1.12861E-29
9.94508E-01 1.00599E-29
9.95134E-01 8.90837E-30
9.95722E-01 7.83087E-30
9.96273E-01 6.82653E-30
9.96786E-01 5.89464E-30
9.97261E-01 5.03450E-30
9.97698E-01 4.24547E-30
9.98097E-01 3.52698E-30
9.98459E-01 2.87850E-30
9.98782E-01 2.29955E-30
9.99067E-01 1.78971E-30
9.99315E-01 1.34860E-30
9.99524E-01 9.75900E-31
9.99695E-01 6.71336E-31
9.99829E-01 4.34685E-31
9.99924E-01 2.65772E-31
9.99981E-01 1.64474E-31
1.00000E+00 1.30716E-31
