 #
 # Subroutine ELSEPA. Elastic scattering of electrons and positrons
 #                    by neutral atoms and positive ions
 #
 # Projectile: electron
 # Kinetic energy = 1.00000E+07 eV = 3.67493E+05 a.u.
 #
 # WARNING: High-energy factorization with free-atom DF screening.
 #          Absorption, polarization and exchange corrections are
 #          switched off.
 #          Phase shifts are calculated for the bare nucleus.
 #          Scattering amplitudes are not evaluated.
 #
 # Element: Zr,  Z =  40,  atomic weight = 9.12240E+01 g/mol
 #
 # Nuclear model: Fermi distribution
 #                Average radius = 4.81674E-13 cm
 #                Skin thickness = 5.46000E-14 cm
 #
 # Number of electrons = 40
 #
 # Total elastic cross section = 4.07717E-18 cm**2 = 1.45598E-01 a0**2
 # 1st transport cross section = 2.51470E-23 cm**2 = 8.98015E-07 a0**2
 # 2nd transport cross section = 7.13251E-23 cm**2 = 2.54707E-06 a0**2
 #
 #
 # Differential cross section:                       MU=(1-COS(THETA))/2
 #
 #  THETA        MU          DCS          DCS        Sherman      error
 #  (deg)                 (cm**2/sr)   (a0**2/sr)    function
 #----------------------------------------------------------------------
0.00000E+00 6.14897E-12
7.61557E-13 6.14869E-12
1.18994E-12 6.14853E-12
1.71346E-12 6.14834E-12
2.33225E-12 6.14812E-12
3.04617E-12 6.14786E-12
3.85530E-12 6.14756E-12
4.75964E-12 6.14723E-12
5.75917E-12 6.14687E-12
6.85391E-12 6.14647E-12
8.04379E-12 6.14603E-12
9.32893E-12 6.14557E-12
1.07092E-11 6.14506E-12
1.21847E-11 6.14453E-12
1.37554E-11 6.14395E-12
1.54213E-11 6.14335E-12
1.71823E-11 6.14271E-12
1.90386E-11 6.14203E-12
2.09900E-11 6.14132E-12
2.30367E-11 6.14058E-12
2.51785E-11 6.13980E-12
2.74156E-11 6.13899E-12
2.97478E-11 6.13814E-12
3.21752E-11 6.13726E-12
3.46979E-11 6.13634E-12
3.73157E-11 6.13539E-12
4.00286E-11 6.13441E-12
4.28368E-11 6.13339E-12
4.57402E-11 6.13233E-12
4.87388E-11 6.13125E-12
5.18325E-11 6.13013E-12
5.50215E-11 6.12897E-12
5.83057E-11 6.12778E-12
6.16850E-11 6.12656E-12
6.51595E-11 6.12530E-12
6.87293E-11 6.12401E-12
7.23943E-11 6.12268E-12
7.61544E-11 6.12132E-12
1.18991E-10 6.10586E-12
1.71347E-10 6.08705E-12
2.33223E-10 6.06494E-12
3.04617E-10 6.03959E-12
3.85531E-10 6.01105E-12
4.75965E-10 5.97941E-12
5.75917E-10 5.94474E-12
6.85389E-10 5.90713E-12
8.04380E-10 5.86668E-12
9.32891E-10 5.82347E-12
1.07092E-09 5.77762E-12
1.21847E-09 5.72923E-12
1.37554E-09 5.67842E-12
1.54213E-09 5.62530E-12
1.71823E-09 5.56999E-12
1.90386E-09 5.51262E-12
2.09900E-09 5.45331E-12
2.30367E-09 5.39220E-12
2.51785E-09 5.32940E-12
2.74156E-09 5.26504E-12
2.97478E-09 5.19922E-12
3.21752E-09 5.13209E-12
3.46978E-09 5.06384E-12
3.73156E-09 4.99453E-12
4.00286E-09 4.92427E-12
4.28368E-09 4.85318E-12
4.57402E-09 4.78137E-12
4.87388E-09 4.70905E-12
5.18326E-09 4.63629E-12
5.50215E-09 4.56315E-12
5.83057E-09 4.48972E-12
6.16850E-09 4.41610E-12
6.51596E-09 4.34248E-12
6.87293E-09 4.26900E-12
7.23942E-09 4.19560E-12
7.61544E-09 4.12236E-12
1.18991E-08 3.41763E-12
1.71347E-08 2.79585E-12
2.33223E-08 2.27753E-12
3.04617E-08 1.85984E-12
3.85531E-08 1.52894E-12
4.75965E-08 1.26816E-12
5.75917E-08 1.06202E-12
6.85389E-08 8.97754E-13
8.04380E-08 7.65407E-13
9.32891E-08 6.57539E-13
1.07092E-07 5.68611E-13
1.21847E-07 4.94520E-13
1.37554E-07 4.32208E-13
1.54213E-07 3.79377E-13
1.71823E-07 3.34278E-13
1.90386E-07 2.95559E-13
2.09900E-07 2.61960E-13
2.30367E-07 2.31457E-13
2.51785E-07 2.05848E-13
2.74156E-07 1.84204E-13
2.97478E-07 1.65796E-13
3.21752E-07 1.50048E-13
3.46978E-07 1.34942E-13
3.73156E-07 1.21734E-13
4.00286E-07 1.10324E-13
4.28368E-07 1.00421E-13
4.57402E-07 9.17843E-14
4.87388E-07 8.38114E-14
5.18325E-07 7.66052E-14
5.50215E-07 7.02652E-14
5.83057E-07 6.46660E-14
6.16850E-07 5.97030E-14
6.51596E-07 5.51781E-14
6.87293E-07 5.09986E-14
7.23942E-07 4.72659E-14
7.61543E-07 4.39221E-14
1.18991E-06 2.28342E-14
1.71347E-06 1.31305E-14
2.33223E-06 8.00912E-15
3.04617E-06 5.09390E-15
3.85531E-06 3.35866E-15
4.75964E-06 2.29033E-15
5.75916E-06 1.61149E-15
6.85388E-06 1.16670E-15
8.04378E-06 8.66812E-16
9.32888E-06 6.58566E-16
1.07092E-05 5.10007E-16
1.21846E-05 4.01545E-16
1.37553E-05 3.20751E-16
1.54212E-05 2.59466E-16
1.71822E-05 2.12207E-16
1.90385E-05 1.75206E-16
2.09899E-05 1.45945E-16
2.30365E-05 1.22444E-16
2.51783E-05 1.03606E-16
2.74153E-05 8.80950E-17
2.97475E-05 7.54449E-17
3.21749E-05 6.49050E-17
3.46974E-05 5.61714E-17
3.73152E-05 4.88247E-17
4.00281E-05 4.26518E-17
4.28362E-05 3.74078E-17
4.57395E-05 3.29468E-17
4.87380E-05 2.91239E-17
5.18317E-05 2.58382E-17
5.50205E-05 2.30001E-17
5.83045E-05 2.05396E-17
6.16838E-05 1.83993E-17
6.51582E-05 1.65297E-17
6.87277E-05 1.48926E-17
7.23925E-05 1.34525E-17
7.61524E-05 1.21835E-17
9.21439E-05 8.38485E-18
1.09658E-04 5.95929E-18
1.28695E-04 4.35247E-18
1.49255E-04 3.25337E-18
1.71338E-04 2.48111E-18
1.94942E-04 1.92535E-18
2.20070E-04 1.51712E-18
2.46720E-04 1.21174E-18
2.74892E-04 9.79560E-19
3.04586E-04 8.00491E-19
3.35803E-04 6.60562E-19
3.68542E-04 5.49945E-19
4.02802E-04 4.61558E-19
4.38585E-04 3.90244E-19
4.75889E-04 3.32197E-19
5.14715E-04 2.84557E-19
5.55063E-04 2.45166E-19
5.96931E-04 2.12364E-19
6.40321E-04 1.84874E-19
6.85233E-04 1.61695E-19
7.31665E-04 1.42039E-19
7.79618E-04 1.25285E-19
8.29092E-04 1.10932E-19
8.80086E-04 9.85789E-20
9.32601E-04 8.79003E-20
9.86636E-04 7.86311E-20
1.04219E-03 7.05538E-20
1.09927E-03 6.34889E-20
1.15786E-03 5.72881E-20
1.21797E-03 5.18273E-20
1.27961E-03 4.70031E-20
1.34276E-03 4.27284E-20
1.40743E-03 3.89298E-20
1.47362E-03 3.55449E-20
1.54133E-03 3.25208E-20
1.61056E-03 2.98124E-20
1.68131E-03 2.73807E-20
1.75357E-03 2.51926E-20
1.82735E-03 2.32194E-20
1.90265E-03 2.14361E-20
1.97947E-03 1.98212E-20
2.05780E-03 1.83560E-20
2.13765E-03 1.70241E-20
2.21902E-03 1.58113E-20
2.30190E-03 1.47049E-20
2.38630E-03 1.36939E-20
2.47222E-03 1.27686E-20
2.55965E-03 1.19204E-20
2.64859E-03 1.11417E-20
2.73905E-03 1.04258E-20
2.83103E-03 9.76672E-21
2.92452E-03 9.15908E-21
3.01952E-03 8.59817E-21
3.11604E-03 8.07971E-21
3.21407E-03 7.59989E-21
3.31362E-03 7.15531E-21
3.41468E-03 6.74291E-21
3.51725E-03 6.35993E-21
3.62133E-03 6.00387E-21
3.72692E-03 5.67249E-21
3.83403E-03 5.36376E-21
3.94265E-03 5.07586E-21
4.05278E-03 4.80710E-21
4.16442E-03 4.55598E-21
4.27757E-03 4.32112E-21
4.39223E-03 4.10128E-21
4.50840E-03 3.89531E-21
4.62608E-03 3.70217E-21
4.74527E-03 3.52092E-21
4.86597E-03 3.35069E-21
4.98817E-03 3.19067E-21
5.11188E-03 3.04014E-21
5.23711E-03 2.89843E-21
5.36383E-03 2.76493E-21
5.49207E-03 2.63908E-21
5.62181E-03 2.52034E-21
5.75306E-03 2.40824E-21
5.88581E-03 2.30234E-21
6.02007E-03 2.20223E-21
6.15583E-03 2.10754E-21
6.29310E-03 2.01791E-21
6.43187E-03 1.93303E-21
6.57214E-03 1.85259E-21
6.71392E-03 1.77631E-21
6.85720E-03 1.70395E-21
7.00198E-03 1.63526E-21
7.14827E-03 1.57001E-21
7.29605E-03 1.50801E-21
7.44534E-03 1.44906E-21
7.59612E-03 1.39298E-21
7.97965E-03 1.26427E-21
8.37255E-03 1.15019E-21
8.77480E-03 1.04876E-21
9.18641E-03 9.58352E-22
9.60736E-03 8.77540E-22
1.00376E-02 8.05126E-22
1.04773E-02 7.40082E-22
1.09262E-02 6.81521E-22
1.13844E-02 6.28681E-22
1.18520E-02 5.80901E-22
1.23288E-02 5.37609E-22
1.28150E-02 4.98306E-22
1.33104E-02 4.62557E-22
1.38150E-02 4.29982E-22
1.43290E-02 4.00247E-22
1.48521E-02 3.73060E-22
1.53845E-02 3.48160E-22
1.59262E-02 3.25321E-22
1.64770E-02 3.04339E-22
1.70371E-02 2.85036E-22
1.76063E-02 2.67253E-22
1.81848E-02 2.50846E-22
1.87724E-02 2.35690E-22
1.93692E-02 2.21672E-22
1.99751E-02 2.08690E-22
2.05901E-02 1.96653E-22
2.12143E-02 1.85479E-22
2.18476E-02 1.75094E-22
2.24900E-02 1.65433E-22
2.31415E-02 1.56435E-22
2.38021E-02 1.48046E-22
2.44717E-02 1.40217E-22
2.51504E-02 1.32904E-22
2.58382E-02 1.26065E-22
2.65349E-02 1.19665E-22
2.72407E-02 1.13670E-22
2.79555E-02 1.08049E-22
2.86793E-02 1.02775E-22
2.94120E-02 9.78212E-23
3.01537E-02 9.31655E-23
3.09043E-02 8.87860E-23
3.16639E-02 8.46632E-23
3.24324E-02 8.07792E-23
3.32098E-02 7.71176E-23
3.39961E-02 7.36631E-23
3.47912E-02 7.04018E-23
3.55952E-02 6.73207E-23
3.64081E-02 6.44078E-23
3.72297E-02 6.16523E-23
3.80602E-02 5.90439E-23
3.88995E-02 5.65734E-23
3.97476E-02 5.42320E-23
4.06044E-02 5.20116E-23
4.14700E-02 4.99048E-23
4.23443E-02 4.79045E-23
4.32273E-02 4.60044E-23
4.41190E-02 4.41984E-23
4.50194E-02 4.24810E-23
4.59284E-02 4.08470E-23
4.68461E-02 3.92916E-23
4.87074E-02 3.63985E-23
5.06030E-02 3.37690E-23
5.25328E-02 3.13748E-23
5.44967E-02 2.91908E-23
5.64946E-02 2.71951E-23
5.85262E-02 2.53684E-23
6.05914E-02 2.36938E-23
6.26901E-02 2.21561E-23
6.48222E-02 2.07421E-23
6.69873E-02 1.94400E-23
6.91854E-02 1.82392E-23
7.14163E-02 1.71302E-23
7.36799E-02 1.61049E-23
7.59760E-02 1.51556E-23
7.83043E-02 1.42757E-23
8.06647E-02 1.34590E-23
8.30571E-02 1.27004E-23
8.54812E-02 1.19946E-23
8.79369E-02 1.13374E-23
9.04240E-02 1.07249E-23
9.29422E-02 1.01533E-23
9.54915E-02 9.61944E-24
9.80716E-02 9.12040E-24
1.00682E-01 8.65332E-24
1.03323E-01 8.21588E-24
1.05995E-01 7.80582E-24
1.08696E-01 7.42103E-24
1.11427E-01 7.05972E-24
1.14188E-01 6.72016E-24
1.16978E-01 6.40077E-24
1.19797E-01 6.10014E-24
1.22645E-01 5.81696E-24
1.25522E-01 5.54999E-24
1.28428E-01 5.29815E-24
1.31361E-01 5.06041E-24
1.34323E-01 4.83582E-24
1.37313E-01 4.62352E-24
1.40330E-01 4.42270E-24
1.43375E-01 4.23262E-24
1.46447E-01 4.05260E-24
1.49545E-01 3.88199E-24
1.52671E-01 3.72022E-24
1.55823E-01 3.56673E-24
1.59001E-01 3.42103E-24
1.62205E-01 3.28263E-24
1.65435E-01 3.15110E-24
1.68690E-01 3.02603E-24
1.71970E-01 2.90705E-24
1.75276E-01 2.79380E-24
1.78606E-01 2.68595E-24
1.81961E-01 2.58320E-24
1.85340E-01 2.48525E-24
1.88743E-01 2.39184E-24
1.92169E-01 2.30271E-24
1.95619E-01 2.21764E-24
1.99092E-01 2.13640E-24
2.02589E-01 2.05879E-24
2.06107E-01 1.98461E-24
2.09649E-01 1.91368E-24
2.13212E-01 1.84583E-24
2.16797E-01 1.78091E-24
2.20404E-01 1.71876E-24
2.24032E-01 1.65924E-24
2.27680E-01 1.60221E-24
2.31350E-01 1.54756E-24
2.35040E-01 1.49517E-24
2.38751E-01 1.44491E-24
2.42481E-01 1.39670E-24
2.46231E-01 1.35043E-24
2.50000E-01 1.30601E-24
2.53788E-01 1.26335E-24
2.57595E-01 1.22236E-24
2.61421E-01 1.18298E-24
2.65264E-01 1.14511E-24
2.69126E-01 1.10870E-24
2.73005E-01 1.07368E-24
2.76901E-01 1.03998E-24
2.80814E-01 1.00755E-24
2.84744E-01 9.76329E-25
2.88691E-01 9.46261E-25
2.92653E-01 9.17296E-25
2.96632E-01 8.89387E-25
3.00625E-01 8.62489E-25
3.04634E-01 8.36557E-25
3.08658E-01 8.11550E-25
3.12697E-01 7.87429E-25
3.16749E-01 7.64158E-25
3.20816E-01 7.41700E-25
3.24896E-01 7.20021E-25
3.28990E-01 6.99090E-25
3.33097E-01 6.78876E-25
3.37216E-01 6.59349E-25
3.41348E-01 6.40483E-25
3.45492E-01 6.22250E-25
3.49647E-01 6.04626E-25
3.53814E-01 5.87586E-25
3.57992E-01 5.71107E-25
3.62181E-01 5.55167E-25
3.66381E-01 5.39747E-25
3.70590E-01 5.24824E-25
3.74810E-01 5.10382E-25
3.79039E-01 4.96400E-25
3.83277E-01 4.82863E-25
3.87524E-01 4.69752E-25
3.91780E-01 4.57053E-25
3.96044E-01 4.44750E-25
4.00316E-01 4.32828E-25
4.04596E-01 4.21274E-25
4.08882E-01 4.10073E-25
4.13176E-01 3.99214E-25
4.17476E-01 3.88684E-25
4.21783E-01 3.78472E-25
4.26095E-01 3.68565E-25
4.30413E-01 3.58954E-25
4.34737E-01 3.49627E-25
4.39065E-01 3.40575E-25
4.43398E-01 3.31789E-25
4.47736E-01 3.23259E-25
4.52077E-01 3.14976E-25
4.56422E-01 3.06932E-25
4.60770E-01 2.99119E-25
4.65122E-01 2.91529E-25
4.69476E-01 2.84155E-25
4.73832E-01 2.76989E-25
4.78190E-01 2.70025E-25
4.82550E-01 2.63256E-25
4.86912E-01 2.56675E-25
4.91274E-01 2.50276E-25
4.95637E-01 2.44054E-25
5.00000E-01 2.38003E-25
5.04363E-01 2.32116E-25
5.08726E-01 2.26390E-25
5.13088E-01 2.20819E-25
5.17450E-01 2.15397E-25
5.21810E-01 2.10121E-25
5.26168E-01 2.04986E-25
5.30524E-01 1.99987E-25
5.34878E-01 1.95120E-25
5.39230E-01 1.90382E-25
5.43578E-01 1.85767E-25
5.47923E-01 1.81273E-25
5.52264E-01 1.76895E-25
5.56602E-01 1.72631E-25
5.60935E-01 1.68476E-25
5.65263E-01 1.64428E-25
5.69587E-01 1.60484E-25
5.73905E-01 1.56639E-25
5.78217E-01 1.52892E-25
5.82524E-01 1.49240E-25
5.86824E-01 1.45679E-25
5.91118E-01 1.42207E-25
5.95404E-01 1.38822E-25
5.99684E-01 1.35521E-25
6.03956E-01 1.32301E-25
6.08220E-01 1.29161E-25
6.12476E-01 1.26097E-25
6.16723E-01 1.23109E-25
6.20961E-01 1.20193E-25
6.25190E-01 1.17348E-25
6.29410E-01 1.14572E-25
6.33619E-01 1.11862E-25
6.37819E-01 1.09218E-25
6.42008E-01 1.06637E-25
6.46186E-01 1.04117E-25
6.50353E-01 1.01657E-25
6.54508E-01 9.92557E-26
6.58652E-01 9.69107E-26
6.62784E-01 9.46207E-26
6.66903E-01 9.23845E-26
6.71010E-01 9.02004E-26
6.75104E-01 8.80672E-26
6.79184E-01 8.59835E-26
6.83251E-01 8.39480E-26
6.87303E-01 8.19594E-26
6.91342E-01 8.00165E-26
6.95366E-01 7.81181E-26
6.99375E-01 7.62632E-26
7.03368E-01 7.44505E-26
7.07347E-01 7.26790E-26
7.11309E-01 7.09476E-26
7.15256E-01 6.92554E-26
7.19186E-01 6.76013E-26
7.23099E-01 6.59843E-26
7.26995E-01 6.44037E-26
7.30874E-01 6.28583E-26
7.34736E-01 6.13475E-26
7.38579E-01 5.98702E-26
7.42405E-01 5.84258E-26
7.46212E-01 5.70133E-26
7.50000E-01 5.56321E-26
7.53769E-01 5.42813E-26
7.57519E-01 5.29603E-26
7.61249E-01 5.16682E-26
7.64960E-01 5.04045E-26
7.68650E-01 4.91684E-26
7.72320E-01 4.79592E-26
7.75968E-01 4.67765E-26
7.79596E-01 4.56194E-26
7.83203E-01 4.44875E-26
7.86788E-01 4.33801E-26
7.90351E-01 4.22967E-26
7.93893E-01 4.12367E-26
7.97411E-01 4.01996E-26
8.00908E-01 3.91848E-26
8.04381E-01 3.81919E-26
8.07831E-01 3.72203E-26
8.11257E-01 3.62697E-26
8.14660E-01 3.53394E-26
8.18039E-01 3.44290E-26
8.21394E-01 3.35382E-26
8.24724E-01 3.26664E-26
8.28030E-01 3.18133E-26
8.31310E-01 3.09784E-26
8.34565E-01 3.01614E-26
8.37795E-01 2.93618E-26
8.40999E-01 2.85794E-26
8.44177E-01 2.78136E-26
8.47329E-01 2.70642E-26
8.50455E-01 2.63308E-26
8.53553E-01 2.56131E-26
8.56625E-01 2.49107E-26
8.59670E-01 2.42233E-26
8.62687E-01 2.35507E-26
8.65677E-01 2.28925E-26
8.68639E-01 2.22484E-26
8.71572E-01 2.16181E-26
8.74478E-01 2.10013E-26
8.77355E-01 2.03979E-26
8.80203E-01 1.98074E-26
8.83022E-01 1.92297E-26
8.85812E-01 1.86644E-26
8.88573E-01 1.81115E-26
8.91304E-01 1.75705E-26
8.94005E-01 1.70413E-26
8.96677E-01 1.65237E-26
8.99318E-01 1.60173E-26
9.01928E-01 1.55221E-26
9.04508E-01 1.50378E-26
9.07058E-01 1.45642E-26
9.09576E-01 1.41011E-26
9.12063E-01 1.36484E-26
9.14519E-01 1.32057E-26
9.16943E-01 1.27730E-26
9.19335E-01 1.23500E-26
9.21696E-01 1.19366E-26
9.24024E-01 1.15326E-26
9.26320E-01 1.11379E-26
9.28584E-01 1.07522E-26
9.30815E-01 1.03755E-26
9.33013E-01 1.00076E-26
9.35178E-01 9.64833E-27
9.37310E-01 9.29752E-27
9.39409E-01 8.95507E-27
9.41474E-01 8.62083E-27
9.43505E-01 8.29468E-27
9.45503E-01 7.97647E-27
9.47467E-01 7.66609E-27
9.49397E-01 7.36342E-27
9.51293E-01 7.06833E-27
9.53154E-01 6.78071E-27
9.54981E-01 6.50046E-27
9.56773E-01 6.22745E-27
9.58530E-01 5.96160E-27
9.60252E-01 5.70278E-27
9.61940E-01 5.45091E-27
9.63592E-01 5.20588E-27
9.65209E-01 4.96761E-27
9.66790E-01 4.73601E-27
9.68336E-01 4.51097E-27
9.69846E-01 4.29243E-27
9.71321E-01 4.08030E-27
9.72759E-01 3.87449E-27
9.74162E-01 3.67493E-27
9.75528E-01 3.48154E-27
9.76858E-01 3.29426E-27
9.78152E-01 3.11301E-27
9.79410E-01 2.93773E-27
9.80631E-01 2.76834E-27
9.81815E-01 2.60480E-27
9.82963E-01 2.44702E-27
9.84074E-01 2.29497E-27
9.85148E-01 2.14858E-27
9.86185E-01 2.00779E-27
9.87185E-01 1.87256E-27
9.88148E-01 1.74284E-27
9.89074E-01 1.61858E-27
9.89962E-01 1.49972E-27
9.90814E-01 1.38624E-27
9.91627E-01 1.27809E-27
9.92404E-01 1.17523E-27
9.93143E-01 1.07761E-27
9.93844E-01 9.85216E-28
9.94508E-01 8.98001E-28
9.95134E-01 8.15937E-28
9.95722E-01 7.38994E-28
9.96273E-01 6.67144E-28
9.96786E-01 6.00361E-28
9.97261E-01 5.38621E-28
9.97698E-01 4.81902E-28
9.98097E-01 4.30183E-28
9.98459E-01 3.83445E-28
9.98782E-01 3.41673E-28
9.99067E-01 3.04850E-28
9.99315E-01 2.72963E-28
9.99524E-01 2.46002E-28
9.99695E-01 2.23956E-28
9.99829E-01 2.06817E-28
9.99924E-01 1.94579E-28
9.99981E-01 1.87239E-28
1.00000E+00 1.84792E-28
