 #
 # Subroutine ELSEPA. Elastic scattering of electrons and positrons
 #                    by neutral atoms and positive ions
 #
 # Projectile: electron
 # Kinetic energy = 2.00000E+07 eV = 7.34987E+05 a.u.
 #
 # WARNING: High-energy factorization with free-atom DF screening.
 #          Absorption, polarization and exchange corrections are
 #          switched off.
 #          Phase shifts are calculated for the bare nucleus.
 #          Scattering amplitudes are not evaluated.
 #
 # Element: Zr,  Z =  40,  atomic weight = 9.12240E+01 g/mol
 #
 # Nuclear model: Fermi distribution
 #                Average radius = 4.81674E-13 cm
 #                Skin thickness = 5.46000E-14 cm
 #
 # Number of electrons = 40
 #
 # Total elastic cross section = 4.06978E-18 cm**2 = 1.45335E-01 a0**2
 # 1st transport cross section = 7.13297E-24 cm**2 = 2.54723E-07 a0**2
 # 2nd transport cross section = 2.04444E-23 cm**2 = 7.30082E-07 a0**2
 #
 #
 # Differential cross section:                       MU=(1-COS(THETA))/2
 #
 #  THETA        MU          DCS          DCS        Sherman      error
 #  (deg)                 (cm**2/sr)   (a0**2/sr)    function
 #----------------------------------------------------------------------
0.00000E+00 2.34147E-11
7.61557E-13 2.34106E-11
1.18994E-12 2.34083E-11
1.71346E-12 2.34056E-11
2.33225E-12 2.34023E-11
3.04617E-12 2.33985E-11
3.85530E-12 2.33942E-11
4.75964E-12 2.33894E-11
5.75917E-12 2.33842E-11
6.85391E-12 2.33784E-11
8.04379E-12 2.33721E-11
9.32893E-12 2.33653E-11
1.07092E-11 2.33580E-11
1.21847E-11 2.33502E-11
1.37554E-11 2.33420E-11
1.54213E-11 2.33332E-11
1.71823E-11 2.33239E-11
1.90386E-11 2.33142E-11
2.09900E-11 2.33039E-11
2.30367E-11 2.32932E-11
2.51785E-11 2.32819E-11
2.74156E-11 2.32702E-11
2.97478E-11 2.32580E-11
3.21752E-11 2.32453E-11
3.46979E-11 2.32321E-11
3.73157E-11 2.32184E-11
4.00286E-11 2.32043E-11
4.28368E-11 2.31896E-11
4.57402E-11 2.31745E-11
4.87388E-11 2.31589E-11
5.18325E-11 2.31428E-11
5.50215E-11 2.31263E-11
5.83057E-11 2.31093E-11
6.16850E-11 2.30918E-11
6.51595E-11 2.30738E-11
6.87293E-11 2.30554E-11
7.23943E-11 2.30364E-11
7.61544E-11 2.30171E-11
1.18991E-10 2.27982E-11
1.71347E-10 2.25350E-11
2.33223E-10 2.22301E-11
3.04617E-10 2.18863E-11
3.85531E-10 2.15067E-11
4.75965E-10 2.10946E-11
5.75917E-10 2.06536E-11
6.85389E-10 2.01871E-11
8.04380E-10 1.96986E-11
9.32891E-10 1.91921E-11
1.07092E-09 1.86708E-11
1.21847E-09 1.81380E-11
1.37554E-09 1.75978E-11
1.54213E-09 1.70524E-11
1.71823E-09 1.65049E-11
1.90386E-09 1.59587E-11
2.09900E-09 1.54150E-11
2.30367E-09 1.48773E-11
2.51785E-09 1.43469E-11
2.74156E-09 1.38247E-11
2.97478E-09 1.33146E-11
3.21752E-09 1.28155E-11
3.46978E-09 1.23288E-11
3.73156E-09 1.18571E-11
4.00286E-09 1.13986E-11
4.28368E-09 1.09555E-11
4.57402E-09 1.05278E-11
4.87388E-09 1.01142E-11
5.18326E-09 9.71762E-12
5.50215E-09 9.33558E-12
5.83057E-09 8.96828E-12
6.16850E-09 8.61715E-12
6.51596E-09 8.27967E-12
6.87293E-09 7.95695E-12
7.23942E-09 7.64842E-12
7.61544E-09 7.35258E-12
1.18991E-08 5.04096E-12
1.71347E-08 3.58043E-12
2.33223E-08 2.62962E-12
3.04617E-08 1.98308E-12
3.85531E-08 1.52545E-12
4.75965E-08 1.19169E-12
5.75917E-08 9.38570E-13
6.85389E-08 7.46018E-13
8.04380E-08 6.06726E-13
9.32891E-08 4.95632E-13
1.07092E-07 4.08288E-13
1.21847E-07 3.41886E-13
1.37554E-07 2.86496E-13
1.54213E-07 2.43088E-13
1.71823E-07 2.08236E-13
1.90386E-07 1.79105E-13
2.09900E-07 1.55603E-13
2.30367E-07 1.35819E-13
2.51785E-07 1.19183E-13
2.74156E-07 1.05405E-13
2.97478E-07 9.32725E-14
3.21752E-07 8.30392E-14
3.46978E-07 7.42649E-14
3.73156E-07 6.64456E-14
4.00286E-07 5.97719E-14
4.28368E-07 5.38403E-14
4.57402E-07 4.85864E-14
4.87388E-07 4.40407E-14
5.18325E-07 3.98772E-14
5.50215E-07 3.62250E-14
5.83057E-07 3.29943E-14
6.16850E-07 3.00362E-14
6.51596E-07 2.74335E-14
6.87293E-07 2.50788E-14
7.23942E-07 2.29490E-14
7.61543E-07 2.10591E-14
1.18991E-06 9.50443E-15
1.71347E-06 4.84738E-15
2.33223E-06 2.73561E-15
3.04617E-06 1.66773E-15
3.85531E-06 1.07761E-15
4.75964E-06 7.28093E-16
5.75916E-06 5.09011E-16
6.85388E-06 3.66459E-16
8.04378E-06 2.70210E-16
9.32888E-06 2.03366E-16
1.07092E-05 1.55845E-16
1.21846E-05 1.21332E-16
1.37553E-05 9.58268E-17
1.54212E-05 7.66646E-17
1.71822E-05 6.20519E-17
1.90385E-05 5.07499E-17
2.09899E-05 4.19225E-17
2.30365E-05 3.49329E-17
2.51783E-05 2.93398E-17
2.74153E-05 2.48218E-17
2.97475E-05 2.11412E-17
3.21749E-05 1.81195E-17
3.46974E-05 1.56204E-17
3.73152E-05 1.35394E-17
4.00281E-05 1.17950E-17
4.28362E-05 1.03235E-17
4.57395E-05 9.07489E-18
4.87380E-05 8.00955E-18
5.18317E-05 7.09609E-18
5.50205E-05 6.30922E-18
5.83045E-05 5.62853E-18
6.16838E-05 5.03735E-18
6.51582E-05 4.52194E-18
6.87277E-05 4.07095E-18
7.23925E-05 3.67492E-18
7.61524E-05 3.32608E-18
9.21439E-05 2.28378E-18
1.09658E-04 1.61960E-18
1.28695E-04 1.18031E-18
1.49255E-04 8.80301E-19
1.71338E-04 6.69857E-19
1.94942E-04 5.18685E-19
2.20070E-04 4.07852E-19
2.46720E-04 3.25108E-19
2.74892E-04 2.62322E-19
3.04586E-04 2.13994E-19
3.35803E-04 1.76301E-19
3.68542E-04 1.46559E-19
4.02802E-04 1.22836E-19
4.38585E-04 1.03727E-19
4.75889E-04 8.81972E-20
5.14715E-04 7.54700E-20
5.55063E-04 6.49604E-20
5.96931E-04 5.62202E-20
6.40321E-04 4.89034E-20
6.85233E-04 4.27409E-20
7.31665E-04 3.75203E-20
7.79618E-04 3.30744E-20
8.29092E-04 2.92689E-20
8.80086E-04 2.59963E-20
9.32601E-04 2.31693E-20
9.86636E-04 2.07171E-20
1.04219E-03 1.85816E-20
1.09927E-03 1.67148E-20
1.15786E-03 1.50771E-20
1.21797E-03 1.36357E-20
1.27961E-03 1.23628E-20
1.34276E-03 1.12355E-20
1.40743E-03 1.02340E-20
1.47362E-03 9.34203E-21
1.54133E-03 8.54536E-21
1.61056E-03 7.83207E-21
1.68131E-03 7.19189E-21
1.75357E-03 6.61597E-21
1.82735E-03 6.09675E-21
1.90265E-03 5.62762E-21
1.97947E-03 5.20290E-21
2.05780E-03 4.81763E-21
2.13765E-03 4.46749E-21
2.21902E-03 4.14869E-21
2.30190E-03 3.85792E-21
2.38630E-03 3.59227E-21
2.47222E-03 3.34918E-21
2.55965E-03 3.12639E-21
2.64859E-03 2.92188E-21
2.73905E-03 2.73388E-21
2.83103E-03 2.56083E-21
2.92452E-03 2.40130E-21
3.01952E-03 2.25405E-21
3.11604E-03 2.11797E-21
3.21407E-03 1.99204E-21
3.31362E-03 1.87538E-21
3.41468E-03 1.76716E-21
3.51725E-03 1.66667E-21
3.62133E-03 1.57326E-21
3.72692E-03 1.48633E-21
3.83403E-03 1.40534E-21
3.94265E-03 1.32983E-21
4.05278E-03 1.25934E-21
4.16442E-03 1.19348E-21
4.27757E-03 1.13189E-21
4.39223E-03 1.07424E-21
4.50840E-03 1.02024E-21
4.62608E-03 9.69599E-22
4.74527E-03 9.22079E-22
4.86597E-03 8.77449E-22
4.98817E-03 8.35500E-22
5.11188E-03 7.96042E-22
5.23711E-03 7.58898E-22
5.36383E-03 7.23906E-22
5.49207E-03 6.90919E-22
5.62181E-03 6.59799E-22
5.75306E-03 6.30420E-22
5.88581E-03 6.02668E-22
6.02007E-03 5.76435E-22
6.15583E-03 5.51621E-22
6.29310E-03 5.28136E-22
6.43187E-03 5.05894E-22
6.57214E-03 4.84818E-22
6.71392E-03 4.64834E-22
6.85720E-03 4.45875E-22
7.00198E-03 4.27878E-22
7.14827E-03 4.10785E-22
7.29605E-03 3.94543E-22
7.44534E-03 3.79100E-22
7.59612E-03 3.64410E-22
7.97965E-03 3.30698E-22
8.37255E-03 3.00817E-22
8.77480E-03 2.74256E-22
9.18641E-03 2.50579E-22
9.60736E-03 2.29418E-22
1.00376E-02 2.10457E-22
1.04773E-02 1.93428E-22
1.09262E-02 1.78097E-22
1.13844E-02 1.64264E-22
1.18520E-02 1.51758E-22
1.23288E-02 1.40426E-22
1.28150E-02 1.30140E-22
1.33104E-02 1.20784E-22
1.38150E-02 1.12260E-22
1.43290E-02 1.04480E-22
1.48521E-02 9.73657E-23
1.53845E-02 9.08514E-23
1.59262E-02 8.48766E-23
1.64770E-02 7.93881E-23
1.70371E-02 7.43390E-23
1.76063E-02 6.96880E-23
1.81848E-02 6.53974E-23
1.87724E-02 6.14341E-23
1.93692E-02 5.77687E-23
1.99751E-02 5.43745E-23
2.05901E-02 5.12274E-23
2.12143E-02 4.83064E-23
2.18476E-02 4.55922E-23
2.24900E-02 4.30671E-23
2.31415E-02 4.07155E-23
2.38021E-02 3.85236E-23
2.44717E-02 3.64779E-23
2.51504E-02 3.45672E-23
2.58382E-02 3.27810E-23
2.65349E-02 3.11091E-23
2.72407E-02 2.95434E-23
2.79555E-02 2.80755E-23
2.86793E-02 2.66982E-23
2.94120E-02 2.54049E-23
3.01537E-02 2.41895E-23
3.09043E-02 2.30463E-23
3.16639E-02 2.19703E-23
3.24324E-02 2.09567E-23
3.32098E-02 2.00012E-23
3.39961E-02 1.91000E-23
3.47912E-02 1.82492E-23
3.55952E-02 1.74455E-23
3.64081E-02 1.66858E-23
3.72297E-02 1.59673E-23
3.80602E-02 1.52872E-23
3.88995E-02 1.46431E-23
3.97476E-02 1.40328E-23
4.06044E-02 1.34541E-23
4.14700E-02 1.29050E-23
4.23443E-02 1.23839E-23
4.32273E-02 1.18888E-23
4.41190E-02 1.14184E-23
4.50194E-02 1.09712E-23
4.59284E-02 1.05457E-23
4.68461E-02 1.01407E-23
4.87074E-02 9.38763E-24
5.06030E-02 8.70343E-24
5.25328E-02 8.08064E-24
5.44967E-02 7.51272E-24
5.64946E-02 6.99396E-24
5.85262E-02 6.51930E-24
6.05914E-02 6.08431E-24
6.26901E-02 5.68505E-24
6.48222E-02 5.31804E-24
6.69873E-02 4.98020E-24
6.91854E-02 4.66876E-24
7.14163E-02 4.38129E-24
7.36799E-02 4.11559E-24
7.59760E-02 3.86971E-24
7.83043E-02 3.64189E-24
8.06647E-02 3.43056E-24
8.30571E-02 3.23430E-24
8.54812E-02 3.05182E-24
8.79369E-02 2.88200E-24
9.04240E-02 2.72377E-24
9.29422E-02 2.57620E-24
9.54915E-02 2.43845E-24
9.80716E-02 2.30972E-24
1.00682E-01 2.18932E-24
1.03323E-01 2.07662E-24
1.05995E-01 1.97102E-24
1.08696E-01 1.87199E-24
1.11427E-01 1.77905E-24
1.14188E-01 1.69175E-24
1.16978E-01 1.60969E-24
1.19797E-01 1.53249E-24
1.22645E-01 1.45981E-24
1.25522E-01 1.39134E-24
1.28428E-01 1.32678E-24
1.31361E-01 1.26588E-24
1.34323E-01 1.20838E-24
1.37313E-01 1.15406E-24
1.40330E-01 1.10271E-24
1.43375E-01 1.05414E-24
1.46447E-01 1.00817E-24
1.49545E-01 9.64633E-25
1.52671E-01 9.23379E-25
1.55823E-01 8.84264E-25
1.59001E-01 8.47157E-25
1.62205E-01 8.11936E-25
1.65435E-01 7.78487E-25
1.68690E-01 7.46704E-25
1.71970E-01 7.16489E-25
1.75276E-01 6.87751E-25
1.78606E-01 6.60403E-25
1.81961E-01 6.34367E-25
1.85340E-01 6.09567E-25
1.88743E-01 5.85934E-25
1.92169E-01 5.63403E-25
1.95619E-01 5.41914E-25
1.99092E-01 5.21408E-25
2.02589E-01 5.01834E-25
2.06107E-01 4.83140E-25
2.09649E-01 4.65281E-25
2.13212E-01 4.48211E-25
2.16797E-01 4.31890E-25
2.20404E-01 4.16280E-25
2.24032E-01 4.01342E-25
2.27680E-01 3.87044E-25
2.31350E-01 3.73353E-25
2.35040E-01 3.60238E-25
2.38751E-01 3.47671E-25
2.42481E-01 3.35624E-25
2.46231E-01 3.24073E-25
2.50000E-01 3.12994E-25
2.53788E-01 3.02363E-25
2.57595E-01 2.92159E-25
2.61421E-01 2.82362E-25
2.65264E-01 2.72954E-25
2.69126E-01 2.63915E-25
2.73005E-01 2.55229E-25
2.76901E-01 2.46879E-25
2.80814E-01 2.38851E-25
2.84744E-01 2.31129E-25
2.88691E-01 2.23701E-25
2.92653E-01 2.16552E-25
2.96632E-01 2.09671E-25
3.00625E-01 2.03045E-25
3.04634E-01 1.96664E-25
3.08658E-01 1.90517E-25
3.12697E-01 1.84594E-25
3.16749E-01 1.78886E-25
3.20816E-01 1.73382E-25
3.24896E-01 1.68076E-25
3.28990E-01 1.62958E-25
3.33097E-01 1.58020E-25
3.37216E-01 1.53256E-25
3.41348E-01 1.48657E-25
3.45492E-01 1.44218E-25
3.49647E-01 1.39932E-25
3.53814E-01 1.35793E-25
3.57992E-01 1.31794E-25
3.62181E-01 1.27930E-25
3.66381E-01 1.24197E-25
3.70590E-01 1.20588E-25
3.74810E-01 1.17100E-25
3.79039E-01 1.13726E-25
3.83277E-01 1.10464E-25
3.87524E-01 1.07308E-25
3.91780E-01 1.04255E-25
3.96044E-01 1.01300E-25
4.00316E-01 9.84406E-26
4.04596E-01 9.56726E-26
4.08882E-01 9.29926E-26
4.13176E-01 9.03975E-26
4.17476E-01 8.78840E-26
4.21783E-01 8.54493E-26
4.26095E-01 8.30905E-26
4.30413E-01 8.08047E-26
4.34737E-01 7.85895E-26
4.39065E-01 7.64423E-26
4.43398E-01 7.43607E-26
4.47736E-01 7.23423E-26
4.52077E-01 7.03850E-26
4.56422E-01 6.84866E-26
4.60770E-01 6.66451E-26
4.65122E-01 6.48585E-26
4.69476E-01 6.31249E-26
4.73832E-01 6.14425E-26
4.78190E-01 5.98096E-26
4.82550E-01 5.82245E-26
4.86912E-01 5.66855E-26
4.91274E-01 5.51912E-26
4.95637E-01 5.37401E-26
5.00000E-01 5.23307E-26
5.04363E-01 5.09616E-26
5.08726E-01 4.96315E-26
5.13088E-01 4.83392E-26
5.17450E-01 4.70834E-26
5.21810E-01 4.58630E-26
5.26168E-01 4.46768E-26
5.30524E-01 4.35236E-26
5.34878E-01 4.24026E-26
5.39230E-01 4.13125E-26
5.43578E-01 4.02525E-26
5.47923E-01 3.92217E-26
5.52264E-01 3.82190E-26
5.56602E-01 3.72436E-26
5.60935E-01 3.62947E-26
5.65263E-01 3.53715E-26
5.69587E-01 3.44732E-26
5.73905E-01 3.35989E-26
5.78217E-01 3.27480E-26
5.82524E-01 3.19198E-26
5.86824E-01 3.11136E-26
5.91118E-01 3.03287E-26
5.95404E-01 2.95644E-26
5.99684E-01 2.88203E-26
6.03956E-01 2.80956E-26
6.08220E-01 2.73898E-26
6.12476E-01 2.67023E-26
6.16723E-01 2.60327E-26
6.20961E-01 2.53803E-26
6.25190E-01 2.47447E-26
6.29410E-01 2.41254E-26
6.33619E-01 2.35220E-26
6.37819E-01 2.29339E-26
6.42008E-01 2.23607E-26
6.46186E-01 2.18021E-26
6.50353E-01 2.12575E-26
6.54508E-01 2.07266E-26
6.58652E-01 2.02091E-26
6.62784E-01 1.97045E-26
6.66903E-01 1.92125E-26
6.71010E-01 1.87327E-26
6.75104E-01 1.82648E-26
6.79184E-01 1.78084E-26
6.83251E-01 1.73633E-26
6.87303E-01 1.69292E-26
6.91342E-01 1.65057E-26
6.95366E-01 1.60925E-26
6.99375E-01 1.56894E-26
7.03368E-01 1.52961E-26
7.07347E-01 1.49124E-26
7.11309E-01 1.45379E-26
7.15256E-01 1.41725E-26
7.19186E-01 1.38159E-26
7.23099E-01 1.34678E-26
7.26995E-01 1.31280E-26
7.30874E-01 1.27964E-26
7.34736E-01 1.24727E-26
7.38579E-01 1.21567E-26
7.42405E-01 1.18482E-26
7.46212E-01 1.15470E-26
7.50000E-01 1.12530E-26
7.53769E-01 1.09658E-26
7.57519E-01 1.06854E-26
7.61249E-01 1.04117E-26
7.64960E-01 1.01443E-26
7.68650E-01 9.88319E-27
7.72320E-01 9.62818E-27
7.75968E-01 9.37913E-27
7.79596E-01 9.13587E-27
7.83203E-01 8.89827E-27
7.86788E-01 8.66619E-27
7.90351E-01 8.43948E-27
7.93893E-01 8.21802E-27
7.97411E-01 8.00168E-27
8.00908E-01 7.79034E-27
8.04381E-01 7.58386E-27
8.07831E-01 7.38215E-27
8.11257E-01 7.18507E-27
8.14660E-01 6.99252E-27
8.18039E-01 6.80439E-27
8.21394E-01 6.62057E-27
8.24724E-01 6.44097E-27
8.28030E-01 6.26548E-27
8.31310E-01 6.09400E-27
8.34565E-01 5.92645E-27
8.37795E-01 5.76273E-27
8.40999E-01 5.60275E-27
8.44177E-01 5.44642E-27
8.47329E-01 5.29366E-27
8.50455E-01 5.14439E-27
8.53553E-01 4.99853E-27
8.56625E-01 4.85601E-27
8.59670E-01 4.71674E-27
8.62687E-01 4.58065E-27
8.65677E-01 4.44767E-27
8.68639E-01 4.31773E-27
8.71572E-01 4.19077E-27
8.74478E-01 4.06672E-27
8.77355E-01 3.94551E-27
8.80203E-01 3.82708E-27
8.83022E-01 3.71138E-27
8.85812E-01 3.59833E-27
8.88573E-01 3.48790E-27
8.91304E-01 3.38001E-27
8.94005E-01 3.27462E-27
8.96677E-01 3.17167E-27
8.99318E-01 3.07112E-27
9.01928E-01 2.97290E-27
9.04508E-01 2.87698E-27
9.07058E-01 2.78330E-27
9.09576E-01 2.69182E-27
9.12063E-01 2.60250E-27
9.14519E-01 2.51528E-27
9.16943E-01 2.43014E-27
9.19335E-01 2.34702E-27
9.21696E-01 2.26589E-27
9.24024E-01 2.18670E-27
9.26320E-01 2.10943E-27
9.28584E-01 2.03403E-27
9.30815E-01 1.96047E-27
9.33013E-01 1.88870E-27
9.35178E-01 1.81871E-27
9.37310E-01 1.75045E-27
9.39409E-01 1.68389E-27
9.41474E-01 1.61901E-27
9.43505E-01 1.55576E-27
9.45503E-01 1.49413E-27
9.47467E-01 1.43408E-27
9.49397E-01 1.37558E-27
9.51293E-01 1.31861E-27
9.53154E-01 1.26315E-27
9.54981E-01 1.20916E-27
9.56773E-01 1.15662E-27
9.58530E-01 1.10550E-27
9.60252E-01 1.05580E-27
9.61940E-01 1.00747E-27
9.63592E-01 9.60502E-28
9.65209E-01 9.14872E-28
9.66790E-01 8.70559E-28
9.68336E-01 8.27543E-28
9.69846E-01 7.85805E-28
9.71321E-01 7.45326E-28
9.72759E-01 7.06088E-28
9.74162E-01 6.68074E-28
9.75528E-01 6.31265E-28
9.76858E-01 5.95647E-28
9.78152E-01 5.61203E-28
9.79410E-01 5.27918E-28
9.80631E-01 4.95776E-28
9.81815E-01 4.64765E-28
9.82963E-01 4.34869E-28
9.84074E-01 4.06077E-28
9.85148E-01 3.78375E-28
9.86185E-01 3.51751E-28
9.87185E-01 3.26193E-28
9.88148E-01 3.01691E-28
9.89074E-01 2.78232E-28
9.89962E-01 2.55809E-28
9.90814E-01 2.34409E-28
9.91627E-01 2.14025E-28
9.92404E-01 1.94647E-28
9.93143E-01 1.76267E-28
9.93844E-01 1.58876E-28
9.94508E-01 1.42468E-28
9.95134E-01 1.27035E-28
9.95722E-01 1.12570E-28
9.96273E-01 9.90676E-29
9.96786E-01 8.65215E-29
9.97261E-01 7.49263E-29
9.97698E-01 6.42770E-29
9.98097E-01 5.45691E-29
9.98459E-01 4.57983E-29
9.98782E-01 3.79608E-29
9.99067E-01 3.10533E-29
9.99315E-01 2.50728E-29
9.99524E-01 2.00167E-29
9.99695E-01 1.58829E-29
9.99829E-01 1.26695E-29
9.99924E-01 1.03753E-29
9.99981E-01 8.99912E-30
1.00000E+00 8.54046E-30
