 #
 # Subroutine ELSEPA. Elastic scattering of electrons and positrons
 #                    by neutral atoms and positive ions
 #
 # Projectile: electron
 # Kinetic energy = 9.00000E+07 eV = 3.30744E+06 a.u.
 #
 # WARNING: High-energy factorization with free-atom DF screening.
 #          Absorption, polarization and exchange corrections are
 #          switched off.
 #          Phase shifts are calculated for the bare nucleus.
 #          Scattering amplitudes are not evaluated.
 #
 # Element: Zr,  Z =  40,  atomic weight = 9.12240E+01 g/mol
 #
 # Nuclear model: Fermi distribution
 #                Average radius = 4.81674E-13 cm
 #                Skin thickness = 5.46000E-14 cm
 #
 # Number of electrons = 40
 #
 # Total elastic cross section = 4.06682E-18 cm**2 = 1.45229E-01 a0**2
 # 1st transport cross section = 3.92188E-25 cm**2 = 1.40053E-08 a0**2
 # 2nd transport cross section = 1.16460E-24 cm**2 = 4.15885E-08 a0**2
 #
 #
 # Differential cross section:                       MU=(1-COS(THETA))/2
 #
 #  THETA        MU          DCS          DCS        Sherman      error
 #  (deg)                 (cm**2/sr)   (a0**2/sr)    function
 #----------------------------------------------------------------------
0.00000E+00 4.55950E-10
7.61557E-13 4.54422E-10
1.18994E-12 4.53568E-10
1.71346E-12 4.52527E-10
2.33225E-12 4.51302E-10
3.04617E-12 4.49895E-10
3.85530E-12 4.48309E-10
4.75964E-12 4.46547E-10
5.75917E-12 4.44612E-10
6.85391E-12 4.42508E-10
8.04379E-12 4.40239E-10
9.32893E-12 4.37808E-10
1.07092E-11 4.35222E-10
1.21847E-11 4.32483E-10
1.37554E-11 4.29597E-10
1.54213E-11 4.26569E-10
1.71823E-11 4.23405E-10
1.90386E-11 4.20109E-10
2.09900E-11 4.16688E-10
2.30367E-11 4.13148E-10
2.51785E-11 4.09493E-10
2.74156E-11 4.05730E-10
2.97478E-11 4.01866E-10
3.21752E-11 3.97906E-10
3.46979E-11 3.93855E-10
3.73157E-11 3.89720E-10
4.00286E-11 3.85506E-10
4.28368E-11 3.81220E-10
4.57402E-11 3.76871E-10
4.87388E-11 3.72462E-10
5.18325E-11 3.67999E-10
5.50215E-11 3.63486E-10
5.83057E-11 3.58929E-10
6.16850E-11 3.54334E-10
6.51595E-11 3.49711E-10
6.87293E-11 3.45065E-10
7.23943E-11 3.40396E-10
7.61544E-11 3.35709E-10
1.18991E-10 2.88962E-10
1.71347E-10 2.44917E-10
2.33223E-10 2.05829E-10
3.04617E-10 1.72463E-10
3.85531E-10 1.44718E-10
4.75965E-10 1.21978E-10
5.75917E-10 1.03440E-10
6.85389E-10 8.83388E-11
8.04380E-10 7.59815E-11
9.32891E-10 6.58053E-11
1.07092E-09 5.73509E-11
1.21847E-09 5.02682E-11
1.37554E-09 4.42890E-11
1.54213E-09 3.91875E-11
1.71823E-09 3.48126E-11
1.90386E-09 3.10378E-11
2.09900E-09 2.77506E-11
2.30367E-09 2.48849E-11
2.51785E-09 2.23739E-11
2.74156E-09 2.01606E-11
2.97478E-09 1.81193E-11
3.21752E-09 1.63301E-11
3.46978E-09 1.47876E-11
3.73156E-09 1.34512E-11
4.00286E-09 1.22882E-11
4.28368E-09 1.12715E-11
4.57402E-09 1.02980E-11
4.87388E-09 9.40948E-12
5.18326E-09 8.62776E-12
5.50215E-09 7.93741E-12
5.83057E-09 7.32559E-12
6.16850E-09 6.78150E-12
6.51596E-09 6.27042E-12
6.87293E-09 5.79962E-12
7.23942E-09 5.37838E-12
7.61544E-09 5.00039E-12
1.18991E-08 2.61915E-12
1.71347E-08 1.53145E-12
2.33223E-08 9.55461E-13
3.04617E-08 6.23402E-13
3.85531E-08 4.19509E-13
4.75965E-08 2.90037E-13
5.75917E-08 2.05885E-13
6.85389E-08 1.49697E-13
8.04380E-08 1.11310E-13
9.32891E-08 8.45357E-14
1.07092E-07 6.54277E-14
1.21847E-07 5.14970E-14
1.37554E-07 4.11338E-14
1.54213E-07 3.32781E-14
1.71823E-07 2.72341E-14
1.90386E-07 2.25177E-14
2.09900E-07 1.87853E-14
2.30367E-07 1.57989E-14
2.51785E-07 1.33834E-14
2.74156E-07 1.14102E-14
2.97478E-07 9.78006E-15
3.21752E-07 8.43527E-15
3.46978E-07 7.31461E-15
3.73156E-07 6.36828E-15
4.00286E-07 5.57390E-15
4.28368E-07 4.89396E-15
4.57402E-07 4.31589E-15
4.87388E-07 3.81989E-15
5.18325E-07 3.39193E-15
5.50215E-07 3.02317E-15
5.83057E-07 2.70123E-15
6.16850E-07 2.42167E-15
6.51596E-07 2.17685E-15
6.87293E-07 1.96205E-15
7.23942E-07 1.77325E-15
7.61543E-07 1.60617E-15
1.18991E-06 6.69859E-16
1.71347E-06 3.27115E-16
2.33223E-06 1.78333E-16
3.04617E-06 1.05383E-16
3.85531E-06 6.62202E-17
4.75964E-06 4.36763E-17
5.75916E-06 2.99584E-17
6.85388E-06 2.12254E-17
8.04378E-06 1.54533E-17
9.32888E-06 1.15154E-17
1.07092E-05 8.75491E-18
1.21846E-05 6.77370E-18
1.37553E-05 5.32220E-18
1.54212E-05 4.23928E-18
1.71822E-05 3.41817E-18
1.90385E-05 2.78607E-18
2.09899E-05 2.29434E-18
2.30365E-05 1.90633E-18
2.51783E-05 1.59681E-18
2.74153E-05 1.34749E-18
2.97475E-05 1.14491E-18
3.21749E-05 9.78999E-19
3.46974E-05 8.42108E-19
3.73152E-05 7.28370E-19
4.00281E-05 6.33235E-19
4.28362E-05 5.53154E-19
4.57395E-05 4.85342E-19
4.87380E-05 4.27602E-19
5.18317E-05 3.78187E-19
5.50205E-05 3.35700E-19
5.83045E-05 2.99013E-19
6.16838E-05 2.67206E-19
6.51582E-05 2.39523E-19
6.87277E-05 2.15340E-19
7.23925E-05 1.94138E-19
7.61524E-05 1.75555E-19
9.21439E-05 1.20016E-19
1.09658E-04 8.48088E-20
1.28695E-04 6.16257E-20
1.49255E-04 4.58513E-20
1.71338E-04 3.48210E-20
1.94942E-04 2.69184E-20
2.20070E-04 2.11375E-20
2.46720E-04 1.68298E-20
2.74892E-04 1.35663E-20
3.04586E-04 1.10578E-20
3.35803E-04 9.10364E-21
3.68542E-04 7.56318E-21
4.02802E-04 6.33554E-21
4.38585E-04 5.34741E-21
4.75889E-04 4.54489E-21
5.14715E-04 3.88756E-21
5.55063E-04 3.34506E-21
5.96931E-04 2.89407E-21
6.40321E-04 2.51669E-21
6.85233E-04 2.19893E-21
7.31665E-04 1.92985E-21
7.79618E-04 1.70075E-21
8.29092E-04 1.50470E-21
8.80086E-04 1.33614E-21
9.32601E-04 1.19057E-21
9.86636E-04 1.06432E-21
1.04219E-03 9.54394E-22
1.09927E-03 8.58316E-22
1.15786E-03 7.74046E-22
1.21797E-03 6.99884E-22
1.27961E-03 6.34400E-22
1.34276E-03 5.76415E-22
1.40743E-03 5.24912E-22
1.47362E-03 4.79040E-22
1.54133E-03 4.38079E-22
1.61056E-03 4.01407E-22
1.68131E-03 3.68499E-22
1.75357E-03 3.38898E-22
1.82735E-03 3.12213E-22
1.90265E-03 2.88106E-22
1.97947E-03 2.66283E-22
2.05780E-03 2.46489E-22
2.13765E-03 2.28502E-22
2.21902E-03 2.12127E-22
2.30190E-03 1.97194E-22
2.38630E-03 1.83553E-22
2.47222E-03 1.71072E-22
2.55965E-03 1.59634E-22
2.64859E-03 1.49136E-22
2.73905E-03 1.39488E-22
2.83103E-03 1.30607E-22
2.92452E-03 1.22422E-22
3.01952E-03 1.14868E-22
3.11604E-03 1.07887E-22
3.21407E-03 1.01429E-22
3.31362E-03 9.54461E-23
3.41468E-03 8.98979E-23
3.51725E-03 8.47468E-23
3.62133E-03 7.99589E-23
3.72692E-03 7.55042E-23
3.83403E-03 7.13549E-23
3.94265E-03 6.74865E-23
4.05278E-03 6.38763E-23
4.16442E-03 6.05039E-23
4.27757E-03 5.73507E-23
4.39223E-03 5.43999E-23
4.50840E-03 5.16361E-23
4.62608E-03 4.90451E-23
4.74527E-03 4.66143E-23
4.86597E-03 4.43318E-23
4.98817E-03 4.21869E-23
5.11188E-03 4.01697E-23
5.23711E-03 3.82714E-23
5.36383E-03 3.64834E-23
5.49207E-03 3.47983E-23
5.62181E-03 3.32090E-23
5.75306E-03 3.17090E-23
5.88581E-03 3.02925E-23
6.02007E-03 2.89538E-23
6.15583E-03 2.76879E-23
6.29310E-03 2.64901E-23
6.43187E-03 2.53560E-23
6.57214E-03 2.42817E-23
6.71392E-03 2.32633E-23
6.85720E-03 2.22975E-23
7.00198E-03 2.13810E-23
7.14827E-03 2.05108E-23
7.29605E-03 1.96841E-23
7.44534E-03 1.88984E-23
7.59612E-03 1.81512E-23
7.97965E-03 1.64376E-23
8.37255E-03 1.49200E-23
8.77480E-03 1.35722E-23
9.18641E-03 1.23719E-23
9.60736E-03 1.13002E-23
1.00376E-02 1.03410E-23
1.04773E-02 9.48033E-24
1.09262E-02 8.70636E-24
1.13844E-02 8.00885E-24
1.18520E-02 7.37891E-24
1.23288E-02 6.80888E-24
1.28150E-02 6.29205E-24
1.33104E-02 5.82260E-24
1.38150E-02 5.39544E-24
1.43290E-02 5.00607E-24
1.48521E-02 4.65059E-24
1.53845E-02 4.32552E-24
1.59262E-02 4.02782E-24
1.64770E-02 3.75477E-24
1.70371E-02 3.50398E-24
1.76063E-02 3.27332E-24
1.81848E-02 3.06089E-24
1.87724E-02 2.86500E-24
1.93692E-02 2.68415E-24
1.99751E-02 2.51697E-24
2.05901E-02 2.36225E-24
2.12143E-02 2.21891E-24
2.18476E-02 2.08597E-24
2.24900E-02 1.96253E-24
2.31415E-02 1.84781E-24
2.38021E-02 1.74107E-24
2.44717E-02 1.64168E-24
2.51504E-02 1.54904E-24
2.58382E-02 1.46261E-24
2.65349E-02 1.38191E-24
2.72407E-02 1.30649E-24
2.79555E-02 1.23594E-24
2.86793E-02 1.16990E-24
2.94120E-02 1.10804E-24
3.01537E-02 1.05004E-24
3.09043E-02 9.95620E-25
3.16639E-02 9.44526E-25
3.24324E-02 8.96519E-25
3.32098E-02 8.51382E-25
3.39961E-02 8.08915E-25
3.47912E-02 7.68933E-25
3.55952E-02 7.31268E-25
3.64081E-02 6.95763E-25
3.72297E-02 6.62274E-25
3.80602E-02 6.30669E-25
3.88995E-02 6.00823E-25
3.97476E-02 5.72623E-25
4.06044E-02 5.45964E-25
4.14700E-02 5.20748E-25
4.23443E-02 4.96885E-25
4.32273E-02 4.74290E-25
4.41190E-02 4.52886E-25
4.50194E-02 4.32599E-25
4.59284E-02 4.13363E-25
4.68461E-02 3.95114E-25
4.87074E-02 3.61348E-25
5.06030E-02 3.30880E-25
5.25328E-02 3.03340E-25
5.44967E-02 2.78407E-25
5.64946E-02 2.55800E-25
5.85262E-02 2.35272E-25
6.05914E-02 2.16604E-25
6.26901E-02 1.99606E-25
6.48222E-02 1.84107E-25
6.69873E-02 1.69958E-25
6.91854E-02 1.57026E-25
7.14163E-02 1.45193E-25
7.36799E-02 1.34352E-25
7.59760E-02 1.24411E-25
7.83043E-02 1.15286E-25
8.06647E-02 1.06901E-25
8.30571E-02 9.91883E-26
8.54812E-02 9.20884E-26
8.79369E-02 8.55466E-26
9.04240E-02 7.95139E-26
9.29422E-02 7.39463E-26
9.54915E-02 6.88039E-26
9.80716E-02 6.40506E-26
1.00682E-01 5.96537E-26
1.03323E-01 5.55838E-26
1.05995E-01 5.18140E-26
1.08696E-01 4.83198E-26
1.11427E-01 4.50792E-26
1.14188E-01 4.20719E-26
1.16978E-01 3.92795E-26
1.19797E-01 3.66853E-26
1.22645E-01 3.42737E-26
1.25522E-01 3.20309E-26
1.28428E-01 2.99440E-26
1.31361E-01 2.80011E-26
1.34323E-01 2.61917E-26
1.37313E-01 2.45056E-26
1.40330E-01 2.29339E-26
1.43375E-01 2.14681E-26
1.46447E-01 2.01007E-26
1.49545E-01 1.88244E-26
1.52671E-01 1.76329E-26
1.55823E-01 1.65200E-26
1.59001E-01 1.54803E-26
1.62205E-01 1.45085E-26
1.65435E-01 1.36001E-26
1.68690E-01 1.27506E-26
1.71970E-01 1.19559E-26
1.75276E-01 1.12123E-26
1.78606E-01 1.05164E-26
1.81961E-01 9.86486E-27
1.85340E-01 9.25479E-27
1.88743E-01 8.68339E-27
1.92169E-01 8.14809E-27
1.95619E-01 7.64650E-27
1.99092E-01 7.17641E-27
2.02589E-01 6.73576E-27
2.06107E-01 6.32262E-27
2.09649E-01 5.93521E-27
2.13212E-01 5.57187E-27
2.16797E-01 5.23105E-27
2.20404E-01 4.91131E-27
2.24032E-01 4.61129E-27
2.27680E-01 4.32976E-27
2.31350E-01 4.06553E-27
2.35040E-01 3.81752E-27
2.38751E-01 3.58470E-27
2.42481E-01 3.36612E-27
2.46231E-01 3.16090E-27
2.50000E-01 2.96819E-27
2.53788E-01 2.78722E-27
2.57595E-01 2.61727E-27
2.61421E-01 2.45765E-27
2.65264E-01 2.30773E-27
2.69126E-01 2.16690E-27
2.73005E-01 2.03462E-27
2.76901E-01 1.91035E-27
2.80814E-01 1.79361E-27
2.84744E-01 1.68394E-27
2.88691E-01 1.58091E-27
2.92653E-01 1.48411E-27
2.96632E-01 1.39317E-27
3.00625E-01 1.30773E-27
3.04634E-01 1.22746E-27
3.08658E-01 1.15205E-27
3.12697E-01 1.08120E-27
3.16749E-01 1.01464E-27
3.20816E-01 9.52113E-28
3.24896E-01 8.93371E-28
3.28990E-01 8.38189E-28
3.33097E-01 7.86354E-28
3.37216E-01 7.37664E-28
3.41348E-01 6.91931E-28
3.45492E-01 6.48977E-28
3.49647E-01 6.08636E-28
3.53814E-01 5.70752E-28
3.57992E-01 5.35176E-28
3.62181E-01 5.01770E-28
3.66381E-01 4.70405E-28
3.70590E-01 4.40958E-28
3.74810E-01 4.13315E-28
3.79039E-01 3.87366E-28
3.83277E-01 3.63011E-28
3.87524E-01 3.40153E-28
3.91780E-01 3.18704E-28
3.96044E-01 2.98577E-28
4.00316E-01 2.79694E-28
4.04596E-01 2.61980E-28
4.08882E-01 2.45365E-28
4.13176E-01 2.29781E-28
4.17476E-01 2.15168E-28
4.21783E-01 2.01466E-28
4.26095E-01 1.88620E-28
4.30413E-01 1.76578E-28
4.34737E-01 1.65292E-28
4.39065E-01 1.54716E-28
4.43398E-01 1.44806E-28
4.47736E-01 1.35522E-28
4.52077E-01 1.26826E-28
4.56422E-01 1.18682E-28
4.60770E-01 1.11056E-28
4.65122E-01 1.03916E-28
4.69476E-01 9.72320E-29
4.73832E-01 9.09766E-29
4.78190E-01 8.51231E-29
4.82550E-01 7.96465E-29
4.86912E-01 7.45235E-29
4.91274E-01 6.97321E-29
4.95637E-01 6.52517E-29
5.00000E-01 6.10629E-29
5.04363E-01 5.71474E-29
5.08726E-01 5.34880E-29
5.13088E-01 5.00687E-29
5.17450E-01 4.68742E-29
5.21810E-01 4.38904E-29
5.26168E-01 4.11039E-29
5.30524E-01 3.85022E-29
5.34878E-01 3.60733E-29
5.39230E-01 3.38063E-29
5.43578E-01 3.16908E-29
5.47923E-01 2.97169E-29
5.52264E-01 2.78756E-29
5.56602E-01 2.61582E-29
5.60935E-01 2.45566E-29
5.65263E-01 2.30633E-29
5.69587E-01 2.16712E-29
5.73905E-01 2.03736E-29
5.78217E-01 1.91642E-29
5.82524E-01 1.80373E-29
5.86824E-01 1.69872E-29
5.91118E-01 1.60090E-29
5.95404E-01 1.50977E-29
5.99684E-01 1.42488E-29
6.03956E-01 1.34581E-29
6.08220E-01 1.27216E-29
6.12476E-01 1.20357E-29
6.16723E-01 1.13969E-29
6.20961E-01 1.08019E-29
6.25190E-01 1.02477E-29
6.29410E-01 9.73145E-30
6.33619E-01 9.25050E-30
6.37819E-01 8.80237E-30
6.42008E-01 8.38474E-30
6.46186E-01 7.99546E-30
6.50353E-01 7.63250E-30
6.54508E-01 7.29398E-30
6.58652E-01 6.97814E-30
6.62784E-01 6.68334E-30
6.66903E-01 6.40805E-30
6.71010E-01 6.15085E-30
6.75104E-01 5.91041E-30
6.79184E-01 5.68548E-30
6.83251E-01 5.47493E-30
6.87303E-01 5.27768E-30
6.91342E-01 5.09274E-30
6.95366E-01 4.91917E-30
6.99375E-01 4.75612E-30
7.03368E-01 4.60279E-30
7.07347E-01 4.45843E-30
7.11309E-01 4.32236E-30
7.15256E-01 4.19395E-30
7.19186E-01 4.07259E-30
7.23099E-01 3.95774E-30
7.26995E-01 3.84889E-30
7.30874E-01 3.74558E-30
7.34736E-01 3.64737E-30
7.38579E-01 3.55385E-30
7.42405E-01 3.46467E-30
7.46212E-01 3.37947E-30
7.50000E-01 3.29794E-30
7.53769E-01 3.21980E-30
7.57519E-01 3.14477E-30
7.61249E-01 3.07262E-30
7.64960E-01 3.00310E-30
7.68650E-01 2.93603E-30
7.72320E-01 2.87120E-30
7.75968E-01 2.80844E-30
7.79596E-01 2.74759E-30
7.83203E-01 2.68852E-30
7.86788E-01 2.63107E-30
7.90351E-01 2.57515E-30
7.93893E-01 2.52062E-30
7.97411E-01 2.46739E-30
8.00908E-01 2.41538E-30
8.04381E-01 2.36449E-30
8.07831E-01 2.31465E-30
8.11257E-01 2.26580E-30
8.14660E-01 2.21787E-30
8.18039E-01 2.17081E-30
8.21394E-01 2.12457E-30
8.24724E-01 2.07910E-30
8.28030E-01 2.03436E-30
8.31310E-01 1.99032E-30
8.34565E-01 1.94695E-30
8.37795E-01 1.90421E-30
8.40999E-01 1.86209E-30
8.44177E-01 1.82056E-30
8.47329E-01 1.77960E-30
8.50455E-01 1.73919E-30
8.53553E-01 1.69933E-30
8.56625E-01 1.65999E-30
8.59670E-01 1.62116E-30
8.62687E-01 1.58285E-30
8.65677E-01 1.54503E-30
8.68639E-01 1.50770E-30
8.71572E-01 1.47086E-30
8.74478E-01 1.43450E-30
8.77355E-01 1.39862E-30
8.80203E-01 1.36321E-30
8.83022E-01 1.32827E-30
8.85812E-01 1.29380E-30
8.88573E-01 1.25981E-30
8.91304E-01 1.22628E-30
8.94005E-01 1.19321E-30
8.96677E-01 1.16062E-30
8.99318E-01 1.12849E-30
9.01928E-01 1.09683E-30
9.04508E-01 1.06563E-30
9.07058E-01 1.03490E-30
9.09576E-01 1.00464E-30
9.12063E-01 9.74851E-31
9.14519E-01 9.45529E-31
9.16943E-01 9.16675E-31
9.19335E-01 8.88291E-31
9.21696E-01 8.60377E-31
9.24024E-01 8.32933E-31
9.26320E-01 8.05959E-31
9.28584E-01 7.79456E-31
9.30815E-01 7.53423E-31
9.33013E-01 7.27861E-31
9.35178E-01 7.02768E-31
9.37310E-01 6.78145E-31
9.39409E-01 6.53992E-31
9.41474E-01 6.30307E-31
9.43505E-01 6.07089E-31
9.45503E-01 5.84339E-31
9.47467E-01 5.62055E-31
9.49397E-01 5.40236E-31
9.51293E-01 5.18880E-31
9.53154E-01 4.97987E-31
9.54981E-01 4.77555E-31
9.56773E-01 4.57583E-31
9.58530E-01 4.38069E-31
9.60252E-01 4.19011E-31
9.61940E-01 4.00407E-31
9.63592E-01 3.82256E-31
9.65209E-01 3.64556E-31
9.66790E-01 3.47304E-31
9.68336E-01 3.30499E-31
9.69846E-01 3.14139E-31
9.71321E-01 2.98221E-31
9.72759E-01 2.82743E-31
9.74162E-01 2.67704E-31
9.75528E-01 2.53100E-31
9.76858E-01 2.38930E-31
9.78152E-01 2.25191E-31
9.79410E-01 2.11881E-31
9.80631E-01 1.98998E-31
9.81815E-01 1.86539E-31
9.82963E-01 1.74502E-31
9.84074E-01 1.62886E-31
9.85148E-01 1.51687E-31
9.86185E-01 1.40903E-31
9.87185E-01 1.30533E-31
9.88148E-01 1.20573E-31
9.89074E-01 1.11023E-31
9.89962E-01 1.01880E-31
9.90814E-01 9.31417E-32
9.91627E-01 8.48065E-32
9.92404E-01 7.68724E-32
9.93143E-01 6.93377E-32
9.93844E-01 6.22005E-32
9.94508E-01 5.54591E-32
9.95134E-01 4.91120E-32
9.95722E-01 4.31576E-32
9.96273E-01 3.75944E-32
9.96786E-01 3.24211E-32
9.97261E-01 2.76363E-32
9.97698E-01 2.32389E-32
9.98097E-01 1.92277E-32
9.98459E-01 1.56016E-32
9.98782E-01 1.23598E-32
9.99067E-01 9.50140E-33
9.99315E-01 7.02564E-33
9.99524E-01 4.93187E-33
9.99695E-01 3.21955E-33
9.99829E-01 1.88822E-33
9.99924E-01 9.37519E-34
9.99981E-01 3.67211E-34
1.00000E+00 1.77096E-34
