 #
 # Subroutine ELSEPA. Elastic scattering of electrons and positrons
 #                    by neutral atoms and positive ions
 #
 # Projectile: electron
 # Kinetic energy = 8.00000E+07 eV = 2.93995E+06 a.u.
 #
 # WARNING: High-energy factorization with free-atom DF screening.
 #          Absorption, polarization and exchange corrections are
 #          switched off.
 #          Phase shifts are calculated for the bare nucleus.
 #          Scattering amplitudes are not evaluated.
 #
 # Element: Zr,  Z =  40,  atomic weight = 9.12240E+01 g/mol
 #
 # Nuclear model: Fermi distribution
 #                Average radius = 4.81674E-13 cm
 #                Skin thickness = 5.46000E-14 cm
 #
 # Number of electrons = 40
 #
 # Total elastic cross section = 4.06723E-18 cm**2 = 1.45243E-01 a0**2
 # 1st transport cross section = 4.95235E-25 cm**2 = 1.76852E-08 a0**2
 # 2nd transport cross section = 1.46746E-24 cm**2 = 5.24039E-08 a0**2
 #
 #
 # Differential cross section:                       MU=(1-COS(THETA))/2
 #
 #  THETA        MU          DCS          DCS        Sherman      error
 #  (deg)                 (cm**2/sr)   (a0**2/sr)    function
 #----------------------------------------------------------------------
0.00000E+00 3.60765E-10
7.61557E-13 3.59808E-10
1.18994E-12 3.59272E-10
1.71346E-12 3.58620E-10
2.33225E-12 3.57850E-10
3.04617E-12 3.56966E-10
3.85530E-12 3.55968E-10
4.75964E-12 3.54858E-10
5.75917E-12 3.53638E-10
6.85391E-12 3.52308E-10
8.04379E-12 3.50873E-10
9.32893E-12 3.49332E-10
1.07092E-11 3.47689E-10
1.21847E-11 3.45947E-10
1.37554E-11 3.44107E-10
1.54213E-11 3.42172E-10
1.71823E-11 3.40146E-10
1.90386E-11 3.38030E-10
2.09900E-11 3.35828E-10
2.30367E-11 3.33543E-10
2.51785E-11 3.31177E-10
2.74156E-11 3.28735E-10
2.97478E-11 3.26219E-10
3.21752E-11 3.23632E-10
3.46979E-11 3.20979E-10
3.73157E-11 3.18262E-10
4.00286E-11 3.15484E-10
4.28368E-11 3.12650E-10
4.57402E-11 3.09761E-10
4.87388E-11 3.06821E-10
5.18325E-11 3.03834E-10
5.50215E-11 3.00803E-10
5.83057E-11 2.97734E-10
6.16850E-11 2.94628E-10
6.51595E-11 2.91488E-10
6.87293E-11 2.88316E-10
7.23943E-11 2.85116E-10
7.61544E-11 2.81891E-10
1.18991E-10 2.48975E-10
1.71347E-10 2.16537E-10
2.33223E-10 1.86405E-10
3.04617E-10 1.59556E-10
3.85531E-10 1.36325E-10
4.75965E-10 1.16617E-10
5.75917E-10 1.00082E-10
6.85389E-10 8.62994E-11
8.04380E-10 7.48132E-11
9.32891E-10 6.52263E-11
1.07092E-09 5.71877E-11
1.21847E-09 5.04025E-11
1.37554E-09 4.46455E-11
1.54213E-09 3.97166E-11
1.71823E-09 3.54783E-11
1.90386E-09 3.18013E-11
2.09900E-09 2.85993E-11
2.30367E-09 2.57911E-11
2.51785E-09 2.33193E-11
2.74156E-09 2.11338E-11
2.97478E-09 1.91933E-11
3.21752E-09 1.74673E-11
3.46978E-09 1.59244E-11
3.73156E-09 1.44807E-11
4.00286E-09 1.31931E-11
4.28368E-09 1.20656E-11
4.57402E-09 1.10745E-11
4.87388E-09 1.02002E-11
5.18326E-09 9.42596E-12
5.50215E-09 8.73811E-12
5.83057E-09 8.04938E-12
6.16850E-09 7.43043E-12
6.51596E-09 6.87805E-12
6.87293E-09 6.38363E-12
7.23942E-09 5.93983E-12
7.61544E-09 5.54039E-12
1.18991E-08 2.91277E-12
1.71347E-08 1.71255E-12
2.33223E-08 1.08308E-12
3.04617E-08 7.18337E-13
3.85531E-08 4.92114E-13
4.75965E-08 3.45413E-13
5.75917E-08 2.48017E-13
6.85389E-08 1.81627E-13
8.04380E-08 1.35734E-13
9.32891E-08 1.03284E-13
1.07092E-07 7.99759E-14
1.21847E-07 6.29208E-14
1.37554E-07 5.02432E-14
1.54213E-07 4.06418E-14
1.71823E-07 3.32612E-14
1.90386E-07 2.75011E-14
2.09900E-07 2.29516E-14
2.30367E-07 1.93152E-14
2.51785E-07 1.63783E-14
2.74156E-07 1.39825E-14
2.97478E-07 1.20100E-14
3.21752E-07 1.03733E-14
3.46978E-07 9.00484E-15
3.73156E-07 7.84931E-15
4.00286E-07 6.87570E-15
4.28368E-07 6.05277E-15
4.57402E-07 5.34121E-15
4.87388E-07 4.73374E-15
5.18325E-07 4.21032E-15
5.50215E-07 3.75427E-15
5.83057E-07 3.35962E-15
6.16850E-07 3.01445E-15
6.51596E-07 2.71180E-15
6.87293E-07 2.44689E-15
7.23942E-07 2.21233E-15
7.61543E-07 2.00532E-15
1.18991E-06 8.39220E-16
1.71347E-06 4.10221E-16
2.33223E-06 2.23729E-16
3.04617E-06 1.32270E-16
3.85531E-06 8.31651E-17
4.75964E-06 5.48859E-17
5.75916E-06 3.76706E-17
6.85388E-06 2.67052E-17
8.04378E-06 1.94531E-17
9.32888E-06 1.45028E-17
1.07092E-05 1.10307E-17
1.21846E-05 8.53756E-18
1.37553E-05 6.71019E-18
1.54212E-05 5.34631E-18
1.71822E-05 4.31178E-18
1.90385E-05 3.51514E-18
2.09899E-05 2.89525E-18
2.30365E-05 2.40599E-18
2.51783E-05 2.01561E-18
2.74153E-05 1.70110E-18
2.97475E-05 1.44551E-18
3.21749E-05 1.23615E-18
3.46974E-05 1.06339E-18
3.73152E-05 9.19829E-19
4.00281E-05 7.99737E-19
4.28362E-05 6.98640E-19
4.57395E-05 6.13023E-19
4.87380E-05 5.40118E-19
5.18317E-05 4.77720E-19
5.50205E-05 4.24067E-19
5.83045E-05 3.77735E-19
6.16838E-05 3.37565E-19
6.51582E-05 3.02601E-19
6.87277E-05 2.72057E-19
7.23925E-05 2.45276E-19
7.61524E-05 2.21789E-19
9.21439E-05 1.51633E-19
1.09658E-04 1.07156E-19
1.28695E-04 7.78667E-20
1.49255E-04 5.79366E-20
1.71338E-04 4.39998E-20
1.94942E-04 3.40147E-20
2.20070E-04 2.67102E-20
2.46720E-04 2.12671E-20
2.74892E-04 1.71435E-20
3.04586E-04 1.39737E-20
3.35803E-04 1.15043E-20
3.68542E-04 9.55779E-21
4.02802E-04 8.00648E-21
4.38585E-04 6.75787E-21
4.75889E-04 5.74375E-21
5.14715E-04 4.91314E-21
5.55063E-04 4.22758E-21
5.96931E-04 3.65769E-21
6.40321E-04 3.18080E-21
6.85233E-04 2.77927E-21
7.31665E-04 2.43923E-21
7.79618E-04 2.14972E-21
8.29092E-04 1.90197E-21
8.80086E-04 1.68896E-21
9.32601E-04 1.50500E-21
9.86636E-04 1.34545E-21
1.04219E-03 1.20654E-21
1.09927E-03 1.08512E-21
1.15786E-03 9.78623E-22
1.21797E-03 8.84893E-22
1.27961E-03 8.02143E-22
1.34276E-03 7.28855E-22
1.40743E-03 6.63765E-22
1.47362E-03 6.05789E-22
1.54133E-03 5.54022E-22
1.61056E-03 5.07669E-22
1.68131E-03 4.66079E-22
1.75357E-03 4.28663E-22
1.82735E-03 3.94936E-22
1.90265E-03 3.64465E-22
1.97947E-03 3.36881E-22
2.05780E-03 3.11861E-22
2.13765E-03 2.89125E-22
2.21902E-03 2.68426E-22
2.30190E-03 2.49549E-22
2.38630E-03 2.32305E-22
2.47222E-03 2.16526E-22
2.55965E-03 2.02065E-22
2.64859E-03 1.88793E-22
2.73905E-03 1.76594E-22
2.83103E-03 1.65366E-22
2.92452E-03 1.55016E-22
3.01952E-03 1.45465E-22
3.11604E-03 1.36638E-22
3.21407E-03 1.28471E-22
3.31362E-03 1.20906E-22
3.41468E-03 1.13889E-22
3.51725E-03 1.07375E-22
3.62133E-03 1.01319E-22
3.72692E-03 9.56849E-23
3.83403E-03 9.04368E-23
3.94265E-03 8.55436E-23
4.05278E-03 8.09769E-23
4.16442E-03 7.67107E-23
4.27757E-03 7.27218E-23
4.39223E-03 6.89886E-23
4.50840E-03 6.54918E-23
4.62608E-03 6.22136E-23
4.74527E-03 5.91377E-23
4.86597E-03 5.62495E-23
4.98817E-03 5.35352E-23
5.11188E-03 5.09824E-23
5.23711E-03 4.85798E-23
5.36383E-03 4.63169E-23
5.49207E-03 4.41839E-23
5.62181E-03 4.21721E-23
5.75306E-03 4.02733E-23
5.88581E-03 3.84799E-23
6.02007E-03 3.67850E-23
6.15583E-03 3.51822E-23
6.29310E-03 3.36655E-23
6.43187E-03 3.22294E-23
6.57214E-03 3.08688E-23
6.71392E-03 2.95791E-23
6.85720E-03 2.83558E-23
7.00198E-03 2.71948E-23
7.14827E-03 2.60925E-23
7.29605E-03 2.50452E-23
7.44534E-03 2.40497E-23
7.59612E-03 2.31030E-23
7.97965E-03 2.09313E-23
8.37255E-03 1.90078E-23
8.77480E-03 1.72991E-23
9.18641E-03 1.57770E-23
9.60736E-03 1.44178E-23
1.00376E-02 1.32008E-23
1.04773E-02 1.21086E-23
1.09262E-02 1.11262E-23
1.13844E-02 1.02406E-23
1.18520E-02 9.44061E-24
1.23288E-02 8.71647E-24
1.28150E-02 8.05973E-24
1.33104E-02 7.46302E-24
1.38150E-02 6.91989E-24
1.43290E-02 6.42466E-24
1.48521E-02 5.97239E-24
1.53845E-02 5.55867E-24
1.59262E-02 5.17965E-24
1.64770E-02 4.83190E-24
1.70371E-02 4.51238E-24
1.76063E-02 4.21840E-24
1.81848E-02 3.94756E-24
1.87724E-02 3.69772E-24
1.93692E-02 3.46695E-24
1.99751E-02 3.25355E-24
2.05901E-02 3.05598E-24
2.12143E-02 2.87285E-24
2.18476E-02 2.70294E-24
2.24900E-02 2.54510E-24
2.31415E-02 2.39835E-24
2.38021E-02 2.26175E-24
2.44717E-02 2.13449E-24
2.51504E-02 2.01582E-24
2.58382E-02 1.90505E-24
2.65349E-02 1.80157E-24
2.72407E-02 1.70481E-24
2.79555E-02 1.61427E-24
2.86793E-02 1.52946E-24
2.94120E-02 1.44997E-24
3.01537E-02 1.37541E-24
3.09043E-02 1.30541E-24
3.16639E-02 1.23966E-24
3.24324E-02 1.17784E-24
3.32098E-02 1.11968E-24
3.39961E-02 1.06493E-24
3.47912E-02 1.01336E-24
3.55952E-02 9.64743E-25
3.64081E-02 9.18888E-25
3.72297E-02 8.75609E-25
3.80602E-02 8.34738E-25
3.88995E-02 7.96118E-25
3.97476E-02 7.59605E-25
4.06044E-02 7.25063E-25
4.14700E-02 6.92370E-25
4.23443E-02 6.61409E-25
4.32273E-02 6.32073E-25
4.41190E-02 6.04264E-25
4.50194E-02 5.77888E-25
4.59284E-02 5.52860E-25
4.68461E-02 5.29099E-25
4.87074E-02 4.85086E-25
5.06030E-02 4.45310E-25
5.25328E-02 4.09302E-25
5.44967E-02 3.76650E-25
5.64946E-02 3.46994E-25
5.85262E-02 3.20020E-25
6.05914E-02 2.95449E-25
6.26901E-02 2.73035E-25
6.48222E-02 2.52561E-25
6.69873E-02 2.33836E-25
6.91854E-02 2.16689E-25
7.14163E-02 2.00967E-25
7.36799E-02 1.86537E-25
7.59760E-02 1.73277E-25
7.83043E-02 1.61079E-25
8.06647E-02 1.49847E-25
8.30571E-02 1.39493E-25
8.54812E-02 1.29941E-25
8.79369E-02 1.21120E-25
9.04240E-02 1.12966E-25
9.29422E-02 1.05424E-25
9.54915E-02 9.84400E-26
9.80716E-02 9.19691E-26
1.00682E-01 8.59685E-26
1.03323E-01 8.04000E-26
1.05995E-01 7.52286E-26
1.08696E-01 7.04228E-26
1.11427E-01 6.59536E-26
1.14188E-01 6.17948E-26
1.16978E-01 5.79224E-26
1.19797E-01 5.43145E-26
1.22645E-01 5.09510E-26
1.25522E-01 4.78136E-26
1.28428E-01 4.48855E-26
1.31361E-01 4.21513E-26
1.34323E-01 3.95969E-26
1.37313E-01 3.72091E-26
1.40330E-01 3.49762E-26
1.43375E-01 3.28870E-26
1.46447E-01 3.09314E-26
1.49545E-01 2.91002E-26
1.52671E-01 2.73846E-26
1.55823E-01 2.57767E-26
1.59001E-01 2.42692E-26
1.62205E-01 2.28552E-26
1.65435E-01 2.15285E-26
1.68690E-01 2.02832E-26
1.71970E-01 1.91139E-26
1.75276E-01 1.80157E-26
1.78606E-01 1.69838E-26
1.81961E-01 1.60140E-26
1.85340E-01 1.51023E-26
1.88743E-01 1.42449E-26
1.92169E-01 1.34383E-26
1.95619E-01 1.26794E-26
1.99092E-01 1.19652E-26
2.02589E-01 1.12927E-26
2.06107E-01 1.06596E-26
2.09649E-01 1.00632E-26
2.13212E-01 9.50141E-27
2.16797E-01 8.97202E-27
2.20404E-01 8.47308E-27
2.24032E-01 8.00275E-27
2.27680E-01 7.55929E-27
2.31350E-01 7.14109E-27
2.35040E-01 6.74665E-27
2.38751E-01 6.37454E-27
2.42481E-01 6.02345E-27
2.46231E-01 5.69213E-27
2.50000E-01 5.37943E-27
2.53788E-01 5.08424E-27
2.57595E-01 4.80556E-27
2.61421E-01 4.54243E-27
2.65264E-01 4.29393E-27
2.69126E-01 4.05924E-27
2.73005E-01 3.83755E-27
2.76901E-01 3.62813E-27
2.80814E-01 3.43027E-27
2.84744E-01 3.24332E-27
2.88691E-01 3.06665E-27
2.92653E-01 2.89969E-27
2.96632E-01 2.74189E-27
3.00625E-01 2.59274E-27
3.04634E-01 2.45174E-27
3.08658E-01 2.31845E-27
3.12697E-01 2.19243E-27
3.16749E-01 2.07328E-27
3.20816E-01 1.96062E-27
3.24896E-01 1.85409E-27
3.28990E-01 1.75335E-27
3.33097E-01 1.65808E-27
3.37216E-01 1.56798E-27
3.41348E-01 1.48276E-27
3.45492E-01 1.40217E-27
3.49647E-01 1.32594E-27
3.53814E-01 1.25384E-27
3.57992E-01 1.18564E-27
3.62181E-01 1.12113E-27
3.66381E-01 1.06011E-27
3.70590E-01 1.00238E-27
3.74810E-01 9.47782E-28
3.79039E-01 8.96132E-28
3.83277E-01 8.47273E-28
3.87524E-01 8.01055E-28
3.91780E-01 7.57336E-28
3.96044E-01 7.15979E-28
4.00316E-01 6.76859E-28
4.04596E-01 6.39853E-28
4.08882E-01 6.04850E-28
4.13176E-01 5.71740E-28
4.17476E-01 5.40423E-28
4.21783E-01 5.10801E-28
4.26095E-01 4.82783E-28
4.30413E-01 4.56284E-28
4.34737E-01 4.31222E-28
4.39065E-01 4.07520E-28
4.43398E-01 3.85105E-28
4.47736E-01 3.63907E-28
4.52077E-01 3.43862E-28
4.56422E-01 3.24907E-28
4.60770E-01 3.06985E-28
4.65122E-01 2.90039E-28
4.69476E-01 2.74017E-28
4.73832E-01 2.58870E-28
4.78190E-01 2.44550E-28
4.82550E-01 2.31014E-28
4.86912E-01 2.18219E-28
4.91274E-01 2.06125E-28
4.95637E-01 1.94695E-28
5.00000E-01 1.83892E-28
5.04363E-01 1.73683E-28
5.08726E-01 1.64036E-28
5.13088E-01 1.54921E-28
5.17450E-01 1.46309E-28
5.21810E-01 1.38173E-28
5.26168E-01 1.30486E-28
5.30524E-01 1.23226E-28
5.34878E-01 1.16367E-28
5.39230E-01 1.09890E-28
5.43578E-01 1.03773E-28
5.47923E-01 9.79963E-29
5.52264E-01 9.25416E-29
5.56602E-01 8.73914E-29
5.60935E-01 8.25291E-29
5.65263E-01 7.79389E-29
5.69587E-01 7.36060E-29
5.73905E-01 6.95162E-29
5.78217E-01 6.56562E-29
5.82524E-01 6.20135E-29
5.86824E-01 5.85760E-29
5.91118E-01 5.53325E-29
5.95404E-01 5.22722E-29
5.99684E-01 4.93850E-29
6.03956E-01 4.66614E-29
6.08220E-01 4.40922E-29
6.12476E-01 4.16690E-29
6.16723E-01 3.93835E-29
6.20961E-01 3.72280E-29
6.25190E-01 3.51954E-29
6.29410E-01 3.32788E-29
6.33619E-01 3.14716E-29
6.37819E-01 2.97677E-29
6.42008E-01 2.81612E-29
6.46186E-01 2.66468E-29
6.50353E-01 2.52192E-29
6.54508E-01 2.38734E-29
6.58652E-01 2.26048E-29
6.62784E-01 2.14091E-29
6.66903E-01 2.02821E-29
6.71010E-01 1.92198E-29
6.75104E-01 1.82185E-29
6.79184E-01 1.72749E-29
6.83251E-01 1.63854E-29
6.87303E-01 1.55471E-29
6.91342E-01 1.47569E-29
6.95366E-01 1.40121E-29
6.99375E-01 1.33101E-29
7.03368E-01 1.26482E-29
7.07347E-01 1.20243E-29
7.11309E-01 1.14361E-29
7.15256E-01 1.08815E-29
7.19186E-01 1.03585E-29
7.23099E-01 9.86532E-30
7.26995E-01 9.40011E-30
7.30874E-01 8.96126E-30
7.34736E-01 8.54720E-30
7.38579E-01 8.15646E-30
7.42405E-01 7.78765E-30
7.46212E-01 7.43946E-30
7.50000E-01 7.11067E-30
7.53769E-01 6.80010E-30
7.57519E-01 6.50667E-30
7.61249E-01 6.22934E-30
7.64960E-01 5.96715E-30
7.68650E-01 5.71917E-30
7.72320E-01 5.48455E-30
7.75968E-01 5.26248E-30
7.79596E-01 5.05219E-30
7.83203E-01 4.85298E-30
7.86788E-01 4.66416E-30
7.90351E-01 4.48510E-30
7.93893E-01 4.31521E-30
7.97411E-01 4.15392E-30
8.00908E-01 4.00072E-30
8.04381E-01 3.85509E-30
8.07831E-01 3.71659E-30
8.11257E-01 3.58478E-30
8.14660E-01 3.45923E-30
8.18039E-01 3.33958E-30
8.21394E-01 3.22546E-30
8.24724E-01 3.11653E-30
8.28030E-01 3.01248E-30
8.31310E-01 2.91301E-30
8.34565E-01 2.81783E-30
8.37795E-01 2.72670E-30
8.40999E-01 2.63936E-30
8.44177E-01 2.55559E-30
8.47329E-01 2.47516E-30
8.50455E-01 2.39790E-30
8.53553E-01 2.32359E-30
8.56625E-01 2.25207E-30
8.59670E-01 2.18318E-30
8.62687E-01 2.11677E-30
8.65677E-01 2.05268E-30
8.68639E-01 1.99079E-30
8.71572E-01 1.93097E-30
8.74478E-01 1.87310E-30
8.77355E-01 1.81708E-30
8.80203E-01 1.76281E-30
8.83022E-01 1.71019E-30
8.85812E-01 1.65914E-30
8.88573E-01 1.60957E-30
8.91304E-01 1.56141E-30
8.94005E-01 1.51458E-30
8.96677E-01 1.46902E-30
8.99318E-01 1.42468E-30
9.01928E-01 1.38148E-30
9.04508E-01 1.33939E-30
9.07058E-01 1.29835E-30
9.09576E-01 1.25832E-30
9.12063E-01 1.21925E-30
9.14519E-01 1.18111E-30
9.16943E-01 1.14386E-30
9.19335E-01 1.10746E-30
9.21696E-01 1.07190E-30
9.24024E-01 1.03713E-30
9.26320E-01 1.00313E-30
9.28584E-01 9.69881E-31
9.30815E-01 9.37357E-31
9.33013E-01 9.05539E-31
9.35178E-01 8.74406E-31
9.37310E-01 8.43943E-31
9.39409E-01 8.14132E-31
9.41474E-01 7.84960E-31
9.43505E-01 7.56413E-31
9.45503E-01 7.28478E-31
9.47467E-01 7.01144E-31
9.49397E-01 6.74401E-31
9.51293E-01 6.48240E-31
9.53154E-01 6.22651E-31
9.54981E-01 5.97628E-31
9.56773E-01 5.73162E-31
9.58530E-01 5.49247E-31
9.60252E-01 5.25878E-31
9.61940E-01 5.03049E-31
9.63592E-01 4.80754E-31
9.65209E-01 4.58991E-31
9.66790E-01 4.37754E-31
9.68336E-01 4.17040E-31
9.69846E-01 3.96845E-31
9.71321E-01 3.77168E-31
9.72759E-01 3.58004E-31
9.74162E-01 3.39353E-31
9.75528E-01 3.21211E-31
9.76858E-01 3.03577E-31
9.78152E-01 2.86449E-31
9.79410E-01 2.69825E-31
9.80631E-01 2.53705E-31
9.81815E-01 2.38087E-31
9.82963E-01 2.22970E-31
9.84074E-01 2.08353E-31
9.85148E-01 1.94235E-31
9.86185E-01 1.80616E-31
9.87185E-01 1.67495E-31
9.88148E-01 1.54871E-31
9.89074E-01 1.42744E-31
9.89962E-01 1.31114E-31
9.90814E-01 1.19979E-31
9.91627E-01 1.09341E-31
9.92404E-01 9.91985E-32
9.93143E-01 8.95514E-32
9.93844E-01 8.03994E-32
9.94508E-01 7.17426E-32
9.95134E-01 6.35808E-32
9.95722E-01 5.59139E-32
9.96273E-01 4.87418E-32
9.96786E-01 4.20645E-32
9.97261E-01 3.58818E-32
9.97698E-01 3.01939E-32
9.98097E-01 2.50005E-32
9.98459E-01 2.03018E-32
9.98782E-01 1.60978E-32
9.99067E-01 1.23883E-32
9.99315E-01 9.17341E-33
9.99524E-01 6.45312E-33
9.99695E-01 4.22742E-33
9.99829E-01 2.49634E-33
9.99924E-01 1.25983E-33
9.99981E-01 5.17949E-34
1.00000E+00 2.70607E-34
