 #
 # Subroutine ELSEPA. Elastic scattering of electrons and positrons
 #                    by neutral atoms and positive ions
 #
 # Projectile: electron
 # Kinetic energy = 3.00000E+07 eV = 1.10248E+06 a.u.
 #
 # WARNING: High-energy factorization with free-atom DF screening.
 #          Absorption, polarization and exchange corrections are
 #          switched off.
 #          Phase shifts are calculated for the bare nucleus.
 #          Scattering amplitudes are not evaluated.
 #
 # Element: Zr,  Z =  40,  atomic weight = 9.12240E+01 g/mol
 #
 # Nuclear model: Fermi distribution
 #                Average radius = 4.81674E-13 cm
 #                Skin thickness = 5.46000E-14 cm
 #
 # Number of electrons = 40
 #
 # Total elastic cross section = 4.06905E-18 cm**2 = 1.45308E-01 a0**2
 # 1st transport cross section = 3.33425E-24 cm**2 = 1.19068E-07 a0**2
 # 2nd transport cross section = 9.63842E-24 cm**2 = 3.44194E-07 a0**2
 #
 #
 # Differential cross section:                       MU=(1-COS(THETA))/2
 #
 #  THETA        MU          DCS          DCS        Sherman      error
 #  (deg)                 (cm**2/sr)   (a0**2/sr)    function
 #----------------------------------------------------------------------
0.00000E+00 5.18116E-11
7.61557E-13 5.17918E-11
1.18994E-12 5.17807E-11
1.71346E-12 5.17671E-11
2.33225E-12 5.17511E-11
3.04617E-12 5.17326E-11
3.85530E-12 5.17117E-11
4.75964E-12 5.16883E-11
5.75917E-12 5.16625E-11
6.85391E-12 5.16342E-11
8.04379E-12 5.16036E-11
9.32893E-12 5.15705E-11
1.07092E-11 5.15350E-11
1.21847E-11 5.14971E-11
1.37554E-11 5.14568E-11
1.54213E-11 5.14141E-11
1.71823E-11 5.13690E-11
1.90386E-11 5.13216E-11
2.09900E-11 5.12718E-11
2.30367E-11 5.12197E-11
2.51785E-11 5.11653E-11
2.74156E-11 5.11085E-11
2.97478E-11 5.10494E-11
3.21752E-11 5.09880E-11
3.46979E-11 5.09243E-11
3.73157E-11 5.08584E-11
4.00286E-11 5.07902E-11
4.28368E-11 5.07197E-11
4.57402E-11 5.06471E-11
4.87388E-11 5.05722E-11
5.18325E-11 5.04951E-11
5.50215E-11 5.04159E-11
5.83057E-11 5.03345E-11
6.16850E-11 5.02509E-11
6.51595E-11 5.01652E-11
6.87293E-11 5.00774E-11
7.23943E-11 4.99875E-11
7.61544E-11 4.98956E-11
1.18991E-10 4.88666E-11
1.71347E-10 4.76536E-11
2.33223E-10 4.62803E-11
3.04617E-10 4.47724E-11
3.85531E-10 4.31553E-11
4.75965E-10 4.14565E-11
5.75917E-10 3.96996E-11
6.85389E-10 3.79101E-11
8.04380E-10 3.61086E-11
9.32891E-10 3.43147E-11
1.07092E-09 3.25461E-11
1.21847E-09 3.08148E-11
1.37554E-09 2.91363E-11
1.54213E-09 2.75138E-11
1.71823E-09 2.59619E-11
1.90386E-09 2.44775E-11
2.09900E-09 2.30693E-11
2.30367E-09 2.17349E-11
2.51785E-09 2.04761E-11
2.74156E-09 1.92920E-11
2.97478E-09 1.81787E-11
3.21752E-09 1.71375E-11
3.46978E-09 1.61606E-11
3.73156E-09 1.52503E-11
4.00286E-09 1.43982E-11
4.28368E-09 1.36040E-11
4.57402E-09 1.28622E-11
4.87388E-09 1.21703E-11
5.18326E-09 1.15248E-11
5.50215E-09 1.09221E-11
5.83057E-09 1.03596E-11
6.16850E-09 9.83396E-12
6.51596E-09 9.34263E-12
6.87293E-09 8.88303E-12
7.23942E-09 8.45261E-12
7.61544E-09 8.04933E-12
1.18991E-08 5.12599E-12
1.71347E-08 3.43885E-12
2.33223E-08 2.38956E-12
3.04617E-08 1.68632E-12
3.85531E-08 1.24519E-12
4.75965E-08 9.24170E-13
5.75917E-08 7.08328E-13
6.85389E-08 5.50522E-13
8.04380E-08 4.37118E-13
9.32891E-08 3.52418E-13
1.07092E-07 2.88060E-13
1.21847E-07 2.38733E-13
1.37554E-07 1.99335E-13
1.54213E-07 1.68503E-13
1.71823E-07 1.42822E-13
1.90386E-07 1.22229E-13
2.09900E-07 1.04910E-13
2.30367E-07 9.05899E-14
2.51785E-07 7.85133E-14
2.74156E-07 6.82815E-14
2.97478E-07 5.96526E-14
3.21752E-07 5.22053E-14
3.46978E-07 4.59202E-14
3.73156E-07 4.04305E-14
4.00286E-07 3.57597E-14
4.28368E-07 3.16923E-14
4.57402E-07 2.81846E-14
4.87388E-07 2.51322E-14
5.18325E-07 2.24718E-14
5.50215E-07 2.01538E-14
5.83057E-07 1.81175E-14
6.16850E-07 1.63376E-14
6.51596E-07 1.47598E-14
6.87293E-07 1.33726E-14
7.23942E-07 1.21429E-14
7.61543E-07 1.10537E-14
1.18991E-06 4.82964E-15
1.71347E-06 2.45683E-15
2.33223E-06 1.38333E-15
3.04617E-06 8.36057E-16
3.85531E-06 5.33411E-16
4.75964E-06 3.55616E-16
5.75916E-06 2.45664E-16
6.85388E-06 1.74981E-16
8.04378E-06 1.27945E-16
9.32888E-06 9.56797E-17
1.07092E-05 7.29821E-17
1.21846E-05 5.66377E-17
1.37553E-05 4.46296E-17
1.54212E-05 3.56481E-17
1.71822E-05 2.88191E-17
1.90385E-05 2.35496E-17
2.09899E-05 1.94403E-17
2.30365E-05 1.61897E-17
2.51783E-05 1.35908E-17
2.74153E-05 1.14923E-17
2.97475E-05 9.78345E-18
3.21749E-05 8.38093E-18
3.46974E-05 7.22125E-18
3.73152E-05 6.25590E-18
4.00281E-05 5.44683E-18
4.28362E-05 4.76459E-18
4.57395E-05 4.18591E-18
4.87380E-05 3.69232E-18
5.18317E-05 3.26930E-18
5.50205E-05 2.90503E-18
5.83045E-05 2.59007E-18
6.16838E-05 2.31666E-18
6.51582E-05 2.07839E-18
6.87277E-05 1.87002E-18
7.23925E-05 1.68714E-18
7.61524E-05 1.52619E-18
9.21439E-05 1.04574E-18
1.09658E-04 7.40255E-19
1.28695E-04 5.38624E-19
1.49255E-04 4.01175E-19
1.71338E-04 3.04920E-19
1.94942E-04 2.35877E-19
2.20070E-04 1.85322E-19
2.46720E-04 1.47620E-19
2.74892E-04 1.19040E-19
3.04586E-04 9.70592E-20
3.35803E-04 7.99283E-20
3.68542E-04 6.64192E-20
4.02802E-04 5.56497E-20
4.38585E-04 4.69793E-20
4.75889E-04 3.99356E-20
5.14715E-04 3.41653E-20
5.55063E-04 2.94020E-20
5.96931E-04 2.54417E-20
6.40321E-04 2.21272E-20
6.85233E-04 1.93362E-20
7.31665E-04 1.69724E-20
7.79618E-04 1.49596E-20
8.29092E-04 1.32371E-20
8.80086E-04 1.17560E-20
9.32601E-04 1.04767E-20
9.86636E-04 9.36717E-21
1.04219E-03 8.40102E-21
1.09927E-03 7.55653E-21
1.15786E-03 6.81578E-21
1.21797E-03 6.16382E-21
1.27961E-03 5.58816E-21
1.34276E-03 5.07833E-21
1.40743E-03 4.62548E-21
1.47362E-03 4.22214E-21
1.54133E-03 3.86193E-21
1.61056E-03 3.53943E-21
1.68131E-03 3.24999E-21
1.75357E-03 2.98963E-21
1.82735E-03 2.75491E-21
1.90265E-03 2.54284E-21
1.97947E-03 2.35085E-21
2.05780E-03 2.17670E-21
2.13765E-03 2.01843E-21
2.21902E-03 1.87433E-21
2.30190E-03 1.74291E-21
2.38630E-03 1.62285E-21
2.47222E-03 1.51298E-21
2.55965E-03 1.41229E-21
2.64859E-03 1.31986E-21
2.73905E-03 1.23490E-21
2.83103E-03 1.15669E-21
2.92452E-03 1.08460E-21
3.01952E-03 1.01806E-21
3.11604E-03 9.56567E-22
3.21407E-03 8.99663E-22
3.31362E-03 8.46944E-22
3.41468E-03 7.98046E-22
3.51725E-03 7.52641E-22
3.62133E-03 7.10432E-22
3.72692E-03 6.71152E-22
3.83403E-03 6.34560E-22
3.94265E-03 6.00439E-22
4.05278E-03 5.68592E-22
4.16442E-03 5.38837E-22
4.27757E-03 5.11011E-22
4.39223E-03 4.84965E-22
4.50840E-03 4.60565E-22
4.62608E-03 4.37687E-22
4.74527E-03 4.16220E-22
4.86597E-03 3.96058E-22
4.98817E-03 3.77107E-22
5.11188E-03 3.59281E-22
5.23711E-03 3.42501E-22
5.36383E-03 3.26694E-22
5.49207E-03 3.11793E-22
5.62181E-03 2.97736E-22
5.75306E-03 2.84465E-22
5.88581E-03 2.71929E-22
6.02007E-03 2.60079E-22
6.15583E-03 2.48871E-22
6.29310E-03 2.38264E-22
6.43187E-03 2.28218E-22
6.57214E-03 2.18698E-22
6.71392E-03 2.09672E-22
6.85720E-03 2.01109E-22
7.00198E-03 1.92982E-22
7.14827E-03 1.85262E-22
7.29605E-03 1.77927E-22
7.44534E-03 1.70953E-22
7.59612E-03 1.64318E-22
7.97965E-03 1.49095E-22
8.37255E-03 1.35602E-22
8.77480E-03 1.23608E-22
9.18641E-03 1.12918E-22
9.60736E-03 1.03364E-22
1.00376E-02 9.48051E-23
1.04773E-02 8.71172E-23
1.09262E-02 8.01974E-23
1.13844E-02 7.39539E-23
1.18520E-02 6.83093E-23
1.23288E-02 6.31957E-23
1.28150E-02 5.85539E-23
1.33104E-02 5.43326E-23
1.38150E-02 5.04866E-23
1.43290E-02 4.69766E-23
1.48521E-02 4.37677E-23
1.53845E-02 4.08295E-23
1.59262E-02 3.81347E-23
1.64770E-02 3.56597E-23
1.70371E-02 3.33831E-23
1.76063E-02 3.12860E-23
1.81848E-02 2.93517E-23
1.87724E-02 2.75652E-23
1.93692E-02 2.59131E-23
1.99751E-02 2.43834E-23
2.05901E-02 2.29654E-23
2.12143E-02 2.16493E-23
2.18476E-02 2.04265E-23
2.24900E-02 1.92891E-23
2.31415E-02 1.82301E-23
2.38021E-02 1.72429E-23
2.44717E-02 1.63219E-23
2.51504E-02 1.54618E-23
2.58382E-02 1.46577E-23
2.65349E-02 1.39053E-23
2.72407E-02 1.32008E-23
2.79555E-02 1.25403E-23
2.86793E-02 1.19208E-23
2.94120E-02 1.13391E-23
3.01537E-02 1.07925E-23
3.09043E-02 1.02785E-23
3.16639E-02 9.79484E-24
3.24324E-02 9.33929E-24
3.32098E-02 8.90993E-24
3.39961E-02 8.50499E-24
3.47912E-02 8.12280E-24
3.55952E-02 7.76185E-24
3.64081E-02 7.42073E-24
3.72297E-02 7.09814E-24
3.80602E-02 6.79288E-24
3.88995E-02 6.50385E-24
3.97476E-02 6.23001E-24
4.06044E-02 5.97042E-24
4.14700E-02 5.72419E-24
4.23443E-02 5.49050E-24
4.32273E-02 5.26859E-24
4.41190E-02 5.05776E-24
4.50194E-02 4.85735E-24
4.59284E-02 4.66673E-24
4.68461E-02 4.48535E-24
4.87074E-02 4.14818E-24
5.06030E-02 3.84200E-24
5.25328E-02 3.56343E-24
5.44967E-02 3.30953E-24
5.64946E-02 3.07773E-24
5.85262E-02 2.86575E-24
6.05914E-02 2.67160E-24
6.26901E-02 2.49349E-24
6.48222E-02 2.32986E-24
6.69873E-02 2.17932E-24
6.91854E-02 2.04063E-24
7.14163E-02 1.91270E-24
7.36799E-02 1.79452E-24
7.59760E-02 1.68523E-24
7.83043E-02 1.58404E-24
8.06647E-02 1.49023E-24
8.30571E-02 1.40316E-24
8.54812E-02 1.32228E-24
8.79369E-02 1.24705E-24
9.04240E-02 1.17701E-24
9.29422E-02 1.11173E-24
9.54915E-02 1.05084E-24
9.80716E-02 9.93987E-25
1.00682E-01 9.40852E-25
1.03323E-01 8.91149E-25
1.05995E-01 8.44617E-25
1.08696E-01 8.01017E-25
1.11427E-01 7.60131E-25
1.14188E-01 7.21759E-25
1.16978E-01 6.85719E-25
1.19797E-01 6.51844E-25
1.22645E-01 6.19980E-25
1.25522E-01 5.89988E-25
1.28428E-01 5.61736E-25
1.31361E-01 5.35107E-25
1.34323E-01 5.09990E-25
1.37313E-01 4.86284E-25
1.40330E-01 4.63896E-25
1.43375E-01 4.42740E-25
1.46447E-01 4.22736E-25
1.49545E-01 4.03810E-25
1.52671E-01 3.85894E-25
1.55823E-01 3.68925E-25
1.59001E-01 3.52843E-25
1.62205E-01 3.37594E-25
1.65435E-01 3.23128E-25
1.68690E-01 3.09397E-25
1.71970E-01 2.96358E-25
1.75276E-01 2.83970E-25
1.78606E-01 2.72194E-25
1.81961E-01 2.60995E-25
1.85340E-01 2.50341E-25
1.88743E-01 2.40199E-25
1.92169E-01 2.30542E-25
1.95619E-01 2.21341E-25
1.99092E-01 2.12573E-25
2.02589E-01 2.04213E-25
2.06107E-01 1.96238E-25
2.09649E-01 1.88629E-25
2.13212E-01 1.81365E-25
2.16797E-01 1.74429E-25
2.20404E-01 1.67803E-25
2.24032E-01 1.61470E-25
2.27680E-01 1.55417E-25
2.31350E-01 1.49628E-25
2.35040E-01 1.44090E-25
2.38751E-01 1.38790E-25
2.42481E-01 1.33717E-25
2.46231E-01 1.28859E-25
2.50000E-01 1.24206E-25
2.53788E-01 1.19747E-25
2.57595E-01 1.15474E-25
2.61421E-01 1.11376E-25
2.65264E-01 1.07447E-25
2.69126E-01 1.03677E-25
2.73005E-01 1.00060E-25
2.76901E-01 9.65879E-26
2.80814E-01 9.32543E-26
2.84744E-01 9.00529E-26
2.88691E-01 8.69775E-26
2.92653E-01 8.40224E-26
2.96632E-01 8.11823E-26
3.00625E-01 7.84518E-26
3.04634E-01 7.58263E-26
3.08658E-01 7.33010E-26
3.12697E-01 7.08715E-26
3.16749E-01 6.85336E-26
3.20816E-01 6.62835E-26
3.24896E-01 6.41172E-26
3.28990E-01 6.20312E-26
3.33097E-01 6.00221E-26
3.37216E-01 5.80867E-26
3.41348E-01 5.62218E-26
3.45492E-01 5.44245E-26
3.49647E-01 5.26920E-26
3.53814E-01 5.10216E-26
3.57992E-01 4.94108E-26
3.62181E-01 4.78572E-26
3.66381E-01 4.63584E-26
3.70590E-01 4.49122E-26
3.74810E-01 4.35166E-26
3.79039E-01 4.21695E-26
3.83277E-01 4.08690E-26
3.87524E-01 3.96132E-26
3.91780E-01 3.84005E-26
3.96044E-01 3.72291E-26
4.00316E-01 3.60974E-26
4.04596E-01 3.50039E-26
4.08882E-01 3.39472E-26
4.13176E-01 3.29258E-26
4.17476E-01 3.19384E-26
4.21783E-01 3.09837E-26
4.26095E-01 3.00606E-26
4.30413E-01 2.91677E-26
4.34737E-01 2.83041E-26
4.39065E-01 2.74685E-26
4.43398E-01 2.66601E-26
4.47736E-01 2.58778E-26
4.52077E-01 2.51206E-26
4.56422E-01 2.43876E-26
4.60770E-01 2.36780E-26
4.65122E-01 2.29909E-26
4.69476E-01 2.23256E-26
4.73832E-01 2.16812E-26
4.78190E-01 2.10570E-26
4.82550E-01 2.04523E-26
4.86912E-01 1.98664E-26
4.91274E-01 1.92987E-26
4.95637E-01 1.87485E-26
5.00000E-01 1.82153E-26
5.04363E-01 1.76983E-26
5.08726E-01 1.71972E-26
5.13088E-01 1.67113E-26
5.17450E-01 1.62402E-26
5.21810E-01 1.57832E-26
5.26168E-01 1.53401E-26
5.30524E-01 1.49102E-26
5.34878E-01 1.44931E-26
5.39230E-01 1.40885E-26
5.43578E-01 1.36959E-26
5.47923E-01 1.33149E-26
5.52264E-01 1.29452E-26
5.56602E-01 1.25863E-26
5.60935E-01 1.22379E-26
5.65263E-01 1.18996E-26
5.69587E-01 1.15713E-26
5.73905E-01 1.12524E-26
5.78217E-01 1.09428E-26
5.82524E-01 1.06421E-26
5.86824E-01 1.03500E-26
5.91118E-01 1.00663E-26
5.95404E-01 9.79069E-27
5.99684E-01 9.52293E-27
6.03956E-01 9.26278E-27
6.08220E-01 9.00999E-27
6.12476E-01 8.76434E-27
6.16723E-01 8.52560E-27
6.20961E-01 8.29356E-27
6.25190E-01 8.06801E-27
6.29410E-01 7.84876E-27
6.33619E-01 7.63561E-27
6.37819E-01 7.42837E-27
6.42008E-01 7.22688E-27
6.46186E-01 7.03094E-27
6.50353E-01 6.84040E-27
6.54508E-01 6.65510E-27
6.58652E-01 6.47487E-27
6.62784E-01 6.29956E-27
6.66903E-01 6.12903E-27
6.71010E-01 5.96314E-27
6.75104E-01 5.80175E-27
6.79184E-01 5.64473E-27
6.83251E-01 5.49194E-27
6.87303E-01 5.34327E-27
6.91342E-01 5.19859E-27
6.95366E-01 5.05779E-27
6.99375E-01 4.92075E-27
7.03368E-01 4.78737E-27
7.07347E-01 4.65755E-27
7.11309E-01 4.53117E-27
7.15256E-01 4.40814E-27
7.19186E-01 4.28837E-27
7.23099E-01 4.17176E-27
7.26995E-01 4.05822E-27
7.30874E-01 3.94766E-27
7.34736E-01 3.84001E-27
7.38579E-01 3.73518E-27
7.42405E-01 3.63308E-27
7.46212E-01 3.53365E-27
7.50000E-01 3.43681E-27
7.53769E-01 3.34249E-27
7.57519E-01 3.25062E-27
7.61249E-01 3.16112E-27
7.64960E-01 3.07394E-27
7.68650E-01 2.98901E-27
7.72320E-01 2.90627E-27
7.75968E-01 2.82566E-27
7.79596E-01 2.74712E-27
7.83203E-01 2.67060E-27
7.86788E-01 2.59604E-27
7.90351E-01 2.52338E-27
7.93893E-01 2.45258E-27
7.97411E-01 2.38359E-27
8.00908E-01 2.31636E-27
8.04381E-01 2.25083E-27
8.07831E-01 2.18698E-27
8.11257E-01 2.12474E-27
8.14660E-01 2.06409E-27
8.18039E-01 2.00497E-27
8.21394E-01 1.94734E-27
8.24724E-01 1.89118E-27
8.28030E-01 1.83643E-27
8.31310E-01 1.78307E-27
8.34565E-01 1.73106E-27
8.37795E-01 1.68035E-27
8.40999E-01 1.63093E-27
8.44177E-01 1.58275E-27
8.47329E-01 1.53578E-27
8.50455E-01 1.48999E-27
8.53553E-01 1.44536E-27
8.56625E-01 1.40185E-27
8.59670E-01 1.35944E-27
8.62687E-01 1.31809E-27
8.65677E-01 1.27778E-27
8.68639E-01 1.23849E-27
8.71572E-01 1.20018E-27
8.74478E-01 1.16284E-27
8.77355E-01 1.12645E-27
8.80203E-01 1.09096E-27
8.83022E-01 1.05638E-27
8.85812E-01 1.02266E-27
8.88573E-01 9.89801E-28
8.91304E-01 9.57770E-28
8.94005E-01 9.26551E-28
8.96677E-01 8.96123E-28
8.99318E-01 8.66467E-28
9.01928E-01 8.37566E-28
9.04508E-01 8.09401E-28
9.07058E-01 7.81955E-28
9.09576E-01 7.55212E-28
9.12063E-01 7.29154E-28
9.14519E-01 7.03766E-28
9.16943E-01 6.79033E-28
9.19335E-01 6.54938E-28
9.21696E-01 6.31469E-28
9.24024E-01 6.08610E-28
9.26320E-01 5.86348E-28
9.28584E-01 5.64669E-28
9.30815E-01 5.43561E-28
9.33013E-01 5.23010E-28
9.35178E-01 5.03005E-28
9.37310E-01 4.83534E-28
9.39409E-01 4.64585E-28
9.41474E-01 4.46146E-28
9.43505E-01 4.28208E-28
9.45503E-01 4.10759E-28
9.47467E-01 3.93789E-28
9.49397E-01 3.77289E-28
9.51293E-01 3.61248E-28
9.53154E-01 3.45657E-28
9.54981E-01 3.30507E-28
9.56773E-01 3.15790E-28
9.58530E-01 3.01496E-28
9.60252E-01 2.87618E-28
9.61940E-01 2.74148E-28
9.63592E-01 2.61077E-28
9.65209E-01 2.48399E-28
9.66790E-01 2.36105E-28
9.68336E-01 2.24190E-28
9.69846E-01 2.12645E-28
9.71321E-01 2.01465E-28
9.72759E-01 1.90644E-28
9.74162E-01 1.80174E-28
9.75528E-01 1.70050E-28
9.76858E-01 1.60267E-28
9.78152E-01 1.50818E-28
9.79410E-01 1.41699E-28
9.80631E-01 1.32905E-28
9.81815E-01 1.24429E-28
9.82963E-01 1.16268E-28
9.84074E-01 1.08417E-28
9.85148E-01 1.00872E-28
9.86185E-01 9.36283E-29
9.87185E-01 8.66817E-29
9.88148E-01 8.00286E-29
9.89074E-01 7.36652E-29
9.89962E-01 6.75880E-29
9.90814E-01 6.17935E-29
9.91627E-01 5.62787E-29
9.92404E-01 5.10403E-29
9.93143E-01 4.60756E-29
9.93844E-01 4.13816E-29
9.94508E-01 3.69560E-29
9.95134E-01 3.27961E-29
9.95722E-01 2.88997E-29
9.96273E-01 2.52646E-29
9.96786E-01 2.18889E-29
9.97261E-01 1.87706E-29
9.97698E-01 1.59081E-29
9.98097E-01 1.32998E-29
9.98459E-01 1.09441E-29
9.98782E-01 8.83992E-30
9.99067E-01 6.98598E-30
9.99315E-01 5.38130E-30
9.99524E-01 4.02498E-30
9.99695E-01 2.91627E-30
9.99829E-01 2.05458E-30
9.99924E-01 1.43943E-30
9.99981E-01 1.07047E-30
1.00000E+00 9.47506E-31
