 #
 # Subroutine ELSEPA. Elastic scattering of electrons and positrons
 #                    by neutral atoms and positive ions
 #
 # Projectile: electron
 # Kinetic energy = 5.00000E+06 eV = 1.83747E+05 a.u.
 #
 # WARNING: High-energy factorization with free-atom DF screening.
 #          Absorption, polarization and exchange corrections are
 #          switched off.
 #          Phase shifts are calculated for the bare nucleus.
 #          Scattering amplitudes are not evaluated.
 #
 # Element: Zr,  Z =  40,  atomic weight = 9.12240E+01 g/mol
 #
 # Nuclear model: Fermi distribution
 #                Average radius = 4.81674E-13 cm
 #                Skin thickness = 5.46000E-14 cm
 #
 # Number of electrons = 40
 #
 # Total elastic cross section = 4.10951E-18 cm**2 = 1.46753E-01 a0**2
 # 1st transport cross section = 8.40890E-23 cm**2 = 3.00287E-06 a0**2
 # 2nd transport cross section = 2.36497E-22 cm**2 = 8.44546E-06 a0**2
 #
 #
 # Differential cross section:                       MU=(1-COS(THETA))/2
 #
 #  THETA        MU          DCS          DCS        Sherman      error
 #  (deg)                 (cm**2/sr)   (a0**2/sr)    function
 #----------------------------------------------------------------------
0.00000E+00 1.69034E-12
7.61557E-13 1.69032E-12
1.18994E-12 1.69031E-12
1.71346E-12 1.69030E-12
2.33225E-12 1.69028E-12
3.04617E-12 1.69026E-12
3.85530E-12 1.69024E-12
4.75964E-12 1.69021E-12
5.75917E-12 1.69019E-12
6.85391E-12 1.69016E-12
8.04379E-12 1.69012E-12
9.32893E-12 1.69009E-12
1.07092E-11 1.69005E-12
1.21847E-11 1.69001E-12
1.37554E-11 1.68997E-12
1.54213E-11 1.68992E-12
1.71823E-11 1.68987E-12
1.90386E-11 1.68982E-12
2.09900E-11 1.68977E-12
2.30367E-11 1.68971E-12
2.51785E-11 1.68966E-12
2.74156E-11 1.68960E-12
2.97478E-11 1.68953E-12
3.21752E-11 1.68947E-12
3.46979E-11 1.68940E-12
3.73157E-11 1.68932E-12
4.00286E-11 1.68925E-12
4.28368E-11 1.68917E-12
4.57402E-11 1.68909E-12
4.87388E-11 1.68901E-12
5.18325E-11 1.68893E-12
5.50215E-11 1.68884E-12
5.83057E-11 1.68875E-12
6.16850E-11 1.68866E-12
6.51595E-11 1.68857E-12
6.87293E-11 1.68847E-12
7.23943E-11 1.68837E-12
7.61544E-11 1.68827E-12
1.18991E-10 1.68710E-12
1.71347E-10 1.68567E-12
2.33223E-10 1.68399E-12
3.04617E-10 1.68205E-12
3.85531E-10 1.67986E-12
4.75965E-10 1.67741E-12
5.75917E-10 1.67472E-12
6.85389E-10 1.67177E-12
8.04380E-10 1.66858E-12
9.32891E-10 1.66515E-12
1.07092E-09 1.66147E-12
1.21847E-09 1.65755E-12
1.37554E-09 1.65339E-12
1.54213E-09 1.64901E-12
1.71823E-09 1.64439E-12
1.90386E-09 1.63954E-12
2.09900E-09 1.63446E-12
2.30367E-09 1.62917E-12
2.51785E-09 1.62366E-12
2.74156E-09 1.61794E-12
2.97478E-09 1.61200E-12
3.21752E-09 1.60586E-12
3.46978E-09 1.59952E-12
3.73156E-09 1.59298E-12
4.00286E-09 1.58624E-12
4.28368E-09 1.57932E-12
4.57402E-09 1.57221E-12
4.87388E-09 1.56493E-12
5.18326E-09 1.55746E-12
5.50215E-09 1.54983E-12
5.83057E-09 1.54203E-12
6.16850E-09 1.53406E-12
6.51596E-09 1.52594E-12
6.87293E-09 1.51767E-12
7.23942E-09 1.50925E-12
7.61544E-09 1.50069E-12
1.18991E-08 1.40837E-12
1.71347E-08 1.30730E-12
2.33223E-08 1.20215E-12
3.04617E-08 1.09697E-12
3.85531E-08 9.94954E-13
4.75965E-08 8.98411E-13
5.75917E-08 8.08816E-13
6.85389E-08 7.26938E-13
8.04380E-08 6.52994E-13
9.32891E-08 5.86805E-13
1.07092E-07 5.27931E-13
1.21847E-07 4.75783E-13
1.37554E-07 4.29703E-13
1.54213E-07 3.89023E-13
1.71823E-07 3.53100E-13
1.90386E-07 3.21340E-13
2.09900E-07 2.93206E-13
2.30367E-07 2.68223E-13
2.51785E-07 2.45974E-13
2.74156E-07 2.26099E-13
2.97478E-07 2.08288E-13
3.21752E-07 1.92275E-13
3.46978E-07 1.77832E-13
3.73156E-07 1.64766E-13
4.00286E-07 1.52910E-13
4.28368E-07 1.42122E-13
4.57402E-07 1.32281E-13
4.87388E-07 1.23282E-13
5.18325E-07 1.15034E-13
5.50215E-07 1.07460E-13
5.83057E-07 1.00492E-13
6.16850E-07 9.40697E-14
6.51596E-07 8.81422E-14
6.87293E-07 8.26634E-14
7.23942E-07 7.75931E-14
7.61543E-07 7.28952E-14
1.18991E-06 4.07333E-14
1.71347E-06 2.44617E-14
2.33223E-06 1.56913E-14
3.04617E-06 1.06435E-14
3.85531E-06 7.54037E-15
4.75964E-06 5.51644E-15
5.75916E-06 4.13156E-15
6.85388E-06 3.14920E-15
8.04378E-06 2.43406E-15
9.32888E-06 1.90364E-15
1.07092E-05 1.50472E-15
1.21846E-05 1.20133E-15
1.37553E-05 9.68373E-16
1.54212E-05 7.87885E-16
1.71822E-05 6.46841E-16
1.90385E-05 5.35677E-16
2.09899E-05 4.47316E-16
2.30365E-05 3.76485E-16
2.51783E-05 3.19233E-16
2.74153E-05 2.72579E-16
2.97475E-05 2.34260E-16
3.21749E-05 2.02546E-16
3.46974E-05 1.76109E-16
3.73152E-05 1.53918E-16
4.00281E-05 1.35169E-16
4.28362E-05 1.19232E-16
4.57395E-05 1.05608E-16
4.87380E-05 9.38970E-17
5.18317E-05 8.37811E-17
5.50205E-05 7.50019E-17
5.83045E-05 6.73496E-17
6.16838E-05 6.06523E-17
6.51582E-05 5.47688E-17
6.87277E-05 4.95817E-17
7.23925E-05 4.49935E-17
7.61524E-05 4.09225E-17
9.21439E-05 2.85811E-17
1.09658E-04 2.05377E-17
1.28695E-04 1.51183E-17
1.49255E-04 1.13641E-17
1.71338E-04 8.70046E-18
1.94942E-04 6.77061E-18
2.20070E-04 5.34609E-18
2.46720E-04 4.27683E-18
2.74892E-04 3.46199E-18
3.04586E-04 2.83245E-18
3.35803E-04 2.33994E-18
3.68542E-04 1.95020E-18
4.02802E-04 1.63853E-18
4.38585E-04 1.38689E-18
4.75889E-04 1.18190E-18
5.14715E-04 1.01353E-18
5.55063E-04 8.74207E-19
5.96931E-04 7.58094E-19
6.40321E-04 6.60694E-19
6.85233E-04 5.78494E-19
7.31665E-04 5.08727E-19
7.79618E-04 4.49197E-19
8.29092E-04 3.98149E-19
8.80086E-04 3.54171E-19
9.32601E-04 3.16116E-19
9.86636E-04 2.83050E-19
1.04219E-03 2.54208E-19
1.09927E-03 2.28955E-19
1.15786E-03 2.06770E-19
1.21797E-03 1.87213E-19
1.27961E-03 1.69920E-19
1.34276E-03 1.54583E-19
1.40743E-03 1.40941E-19
1.47362E-03 1.28775E-19
1.54133E-03 1.17897E-19
1.61056E-03 1.08146E-19
1.68131E-03 9.93844E-20
1.75357E-03 9.14945E-20
1.82735E-03 8.43741E-20
1.90265E-03 7.79347E-20
1.97947E-03 7.20994E-20
2.05780E-03 6.68015E-20
2.13765E-03 6.19826E-20
2.21902E-03 5.75916E-20
2.30190E-03 5.35836E-20
2.38630E-03 4.99192E-20
2.47222E-03 4.65637E-20
2.55965E-03 4.34861E-20
2.64859E-03 4.06594E-20
2.73905E-03 3.80594E-20
2.83103E-03 3.56645E-20
2.92452E-03 3.34557E-20
3.01952E-03 3.14158E-20
3.11604E-03 2.95295E-20
3.21407E-03 2.77832E-20
3.31362E-03 2.61645E-20
3.41468E-03 2.46624E-20
3.51725E-03 2.32670E-20
3.62133E-03 2.19692E-20
3.72692E-03 2.07611E-20
3.83403E-03 1.96351E-20
3.94265E-03 1.85848E-20
4.05278E-03 1.76041E-20
4.16442E-03 1.66874E-20
4.27757E-03 1.58299E-20
4.39223E-03 1.50271E-20
4.50840E-03 1.42747E-20
4.62608E-03 1.35690E-20
4.74527E-03 1.29066E-20
4.86597E-03 1.22843E-20
4.98817E-03 1.16993E-20
5.11188E-03 1.11488E-20
5.23711E-03 1.06305E-20
5.36383E-03 1.01421E-20
5.49207E-03 9.68163E-21
5.62181E-03 9.24710E-21
5.75306E-03 8.83680E-21
5.88581E-03 8.44913E-21
6.02007E-03 8.08260E-21
6.15583E-03 7.73584E-21
6.29310E-03 7.40758E-21
6.43187E-03 7.09665E-21
6.57214E-03 6.80196E-21
6.71392E-03 6.52250E-21
6.85720E-03 6.25732E-21
7.00198E-03 6.00557E-21
7.14827E-03 5.76643E-21
7.29605E-03 5.53914E-21
7.44534E-03 5.32302E-21
7.59612E-03 5.11740E-21
7.97965E-03 4.64541E-21
8.37255E-03 4.22693E-21
8.77480E-03 3.85482E-21
9.18641E-03 3.52303E-21
9.60736E-03 3.22642E-21
1.00376E-02 2.96058E-21
1.04773E-02 2.72176E-21
1.09262E-02 2.50670E-21
1.13844E-02 2.31263E-21
1.18520E-02 2.13711E-21
1.23288E-02 1.97806E-21
1.28150E-02 1.83365E-21
1.33104E-02 1.70228E-21
1.38150E-02 1.58256E-21
1.43290E-02 1.47327E-21
1.48521E-02 1.37333E-21
1.53845E-02 1.28179E-21
1.59262E-02 1.19782E-21
1.64770E-02 1.12067E-21
1.70371E-02 1.04968E-21
1.76063E-02 9.84282E-22
1.81848E-02 9.23941E-22
1.87724E-02 8.68196E-22
1.93692E-02 8.16630E-22
1.99751E-02 7.68871E-22
2.05901E-02 7.24586E-22
2.12143E-02 6.83474E-22
2.18476E-02 6.45264E-22
2.24900E-02 6.09713E-22
2.31415E-02 5.76601E-22
2.38021E-02 5.45728E-22
2.44717E-02 5.16914E-22
2.51504E-02 4.89997E-22
2.58382E-02 4.64825E-22
2.65349E-02 4.41266E-22
2.72407E-02 4.19196E-22
2.79555E-02 3.98503E-22
2.86793E-02 3.79083E-22
2.94120E-02 3.60845E-22
3.01537E-02 3.43702E-22
3.09043E-02 3.27575E-22
3.16639E-02 3.12393E-22
3.24324E-02 2.98090E-22
3.32098E-02 2.84604E-22
3.39961E-02 2.71881E-22
3.47912E-02 2.59868E-22
3.55952E-02 2.48519E-22
3.64081E-02 2.37789E-22
3.72297E-02 2.27638E-22
3.80602E-02 2.18028E-22
3.88995E-02 2.08926E-22
3.97476E-02 2.00299E-22
4.06044E-02 1.92118E-22
4.14700E-02 1.84354E-22
4.23443E-02 1.76983E-22
4.32273E-02 1.69981E-22
4.41190E-02 1.63325E-22
4.50194E-02 1.56995E-22
4.59284E-02 1.50972E-22
4.68461E-02 1.45239E-22
4.87074E-02 1.34573E-22
5.06030E-02 1.24879E-22
5.25328E-02 1.16051E-22
5.44967E-02 1.07997E-22
5.64946E-02 1.00637E-22
5.85262E-02 9.38989E-23
6.05914E-02 8.77212E-23
6.26901E-02 8.20481E-23
6.48222E-02 7.68306E-23
6.69873E-02 7.20251E-23
6.91854E-02 6.75930E-23
7.14163E-02 6.34997E-23
7.36799E-02 5.97144E-23
7.59760E-02 5.62094E-23
7.83043E-02 5.29599E-23
8.06647E-02 4.99438E-23
8.30571E-02 4.71412E-23
8.54812E-02 4.45339E-23
8.79369E-02 4.21058E-23
9.04240E-02 3.98421E-23
9.29422E-02 3.77297E-23
9.54915E-02 3.57562E-23
9.80716E-02 3.39110E-23
1.00682E-01 3.21839E-23
1.03323E-01 3.05661E-23
1.05995E-01 2.90493E-23
1.08696E-01 2.76258E-23
1.11427E-01 2.62889E-23
1.14188E-01 2.50322E-23
1.16978E-01 2.38501E-23
1.19797E-01 2.27371E-23
1.22645E-01 2.16885E-23
1.25522E-01 2.06999E-23
1.28428E-01 1.97671E-23
1.31361E-01 1.88863E-23
1.34323E-01 1.80541E-23
1.37313E-01 1.72673E-23
1.40330E-01 1.65228E-23
1.43375E-01 1.58181E-23
1.46447E-01 1.51506E-23
1.49545E-01 1.45178E-23
1.52671E-01 1.39177E-23
1.55823E-01 1.33482E-23
1.59001E-01 1.28075E-23
1.62205E-01 1.22937E-23
1.65435E-01 1.18054E-23
1.68690E-01 1.13410E-23
1.71970E-01 1.08990E-23
1.75276E-01 1.04783E-23
1.78606E-01 1.00775E-23
1.81961E-01 9.69560E-24
1.85340E-01 9.33145E-24
1.88743E-01 8.98410E-24
1.92169E-01 8.65263E-24
1.95619E-01 8.33615E-24
1.99092E-01 8.03386E-24
2.02589E-01 7.74498E-24
2.06107E-01 7.46881E-24
2.09649E-01 7.20468E-24
2.13212E-01 6.95198E-24
2.16797E-01 6.71010E-24
2.20404E-01 6.47850E-24
2.24032E-01 6.25663E-24
2.27680E-01 6.04402E-24
2.31350E-01 5.84021E-24
2.35040E-01 5.64475E-24
2.38751E-01 5.45724E-24
2.42481E-01 5.27731E-24
2.46231E-01 5.10458E-24
2.50000E-01 4.93869E-24
2.53788E-01 4.77933E-24
2.57595E-01 4.62619E-24
2.61421E-01 4.47898E-24
2.65264E-01 4.33744E-24
2.69126E-01 4.20129E-24
2.73005E-01 4.07030E-24
2.76901E-01 3.94422E-24
2.80814E-01 3.82284E-24
2.84744E-01 3.70594E-24
2.88691E-01 3.59334E-24
2.92653E-01 3.48484E-24
2.96632E-01 3.38026E-24
3.00625E-01 3.27945E-24
3.04634E-01 3.18223E-24
3.08658E-01 3.08844E-24
3.12697E-01 2.99795E-24
3.16749E-01 2.91061E-24
3.20816E-01 2.82630E-24
3.24896E-01 2.74490E-24
3.28990E-01 2.66629E-24
3.33097E-01 2.59034E-24
3.37216E-01 2.51695E-24
3.41348E-01 2.44600E-24
3.45492E-01 2.37742E-24
3.49647E-01 2.31112E-24
3.53814E-01 2.24700E-24
3.57992E-01 2.18496E-24
3.62181E-01 2.12493E-24
3.66381E-01 2.06683E-24
3.70590E-01 2.01060E-24
3.74810E-01 1.95615E-24
3.79039E-01 1.90343E-24
3.83277E-01 1.85236E-24
3.87524E-01 1.80289E-24
3.91780E-01 1.75495E-24
3.96044E-01 1.70849E-24
4.00316E-01 1.66345E-24
4.04596E-01 1.61979E-24
4.08882E-01 1.57745E-24
4.13176E-01 1.53638E-24
4.17476E-01 1.49655E-24
4.21783E-01 1.45790E-24
4.26095E-01 1.42040E-24
4.30413E-01 1.38399E-24
4.34737E-01 1.34866E-24
4.39065E-01 1.31435E-24
4.43398E-01 1.28104E-24
4.47736E-01 1.24869E-24
4.52077E-01 1.21726E-24
4.56422E-01 1.18673E-24
4.60770E-01 1.15707E-24
4.65122E-01 1.12824E-24
4.69476E-01 1.10021E-24
4.73832E-01 1.07297E-24
4.78190E-01 1.04649E-24
4.82550E-01 1.02074E-24
4.86912E-01 9.95691E-25
4.91274E-01 9.71329E-25
4.95637E-01 9.47629E-25
5.00000E-01 9.24571E-25
5.04363E-01 9.02134E-25
5.08726E-01 8.80298E-25
5.13088E-01 8.59044E-25
5.17450E-01 8.38354E-25
5.21810E-01 8.18209E-25
5.26168E-01 7.98594E-25
5.30524E-01 7.79492E-25
5.34878E-01 7.60887E-25
5.39230E-01 7.42765E-25
5.43578E-01 7.25110E-25
5.47923E-01 7.07908E-25
5.52264E-01 6.91146E-25
5.56602E-01 6.74811E-25
5.60935E-01 6.58889E-25
5.65263E-01 6.43369E-25
5.69587E-01 6.28239E-25
5.73905E-01 6.13488E-25
5.78217E-01 5.99104E-25
5.82524E-01 5.85076E-25
5.86824E-01 5.71395E-25
5.91118E-01 5.58051E-25
5.95404E-01 5.45033E-25
5.99684E-01 5.32333E-25
6.03956E-01 5.19941E-25
6.08220E-01 5.07849E-25
6.12476E-01 4.96049E-25
6.16723E-01 4.84532E-25
6.20961E-01 4.73291E-25
6.25190E-01 4.62317E-25
6.29410E-01 4.51604E-25
6.33619E-01 4.41144E-25
6.37819E-01 4.30931E-25
6.42008E-01 4.20957E-25
6.46186E-01 4.11217E-25
6.50353E-01 4.01704E-25
6.54508E-01 3.92411E-25
6.58652E-01 3.83334E-25
6.62784E-01 3.74466E-25
6.66903E-01 3.65802E-25
6.71010E-01 3.57337E-25
6.75104E-01 3.49064E-25
6.79184E-01 3.40981E-25
6.83251E-01 3.33080E-25
6.87303E-01 3.25358E-25
6.91342E-01 3.17810E-25
6.95366E-01 3.10432E-25
6.99375E-01 3.03219E-25
7.03368E-01 2.96168E-25
7.07347E-01 2.89273E-25
7.11309E-01 2.82532E-25
7.15256E-01 2.75940E-25
7.19186E-01 2.69493E-25
7.23099E-01 2.63189E-25
7.26995E-01 2.57023E-25
7.30874E-01 2.50992E-25
7.34736E-01 2.45094E-25
7.38579E-01 2.39323E-25
7.42405E-01 2.33679E-25
7.46212E-01 2.28156E-25
7.50000E-01 2.22754E-25
7.53769E-01 2.17468E-25
7.57519E-01 2.12296E-25
7.61249E-01 2.07235E-25
7.64960E-01 2.02283E-25
7.68650E-01 1.97437E-25
7.72320E-01 1.92694E-25
7.75968E-01 1.88053E-25
7.79596E-01 1.83511E-25
7.83203E-01 1.79065E-25
7.86788E-01 1.74714E-25
7.90351E-01 1.70455E-25
7.93893E-01 1.66286E-25
7.97411E-01 1.62205E-25
8.00908E-01 1.58211E-25
8.04381E-01 1.54301E-25
8.07831E-01 1.50473E-25
8.11257E-01 1.46725E-25
8.14660E-01 1.43057E-25
8.18039E-01 1.39465E-25
8.21394E-01 1.35949E-25
8.24724E-01 1.32507E-25
8.28030E-01 1.29136E-25
8.31310E-01 1.25837E-25
8.34565E-01 1.22606E-25
8.37795E-01 1.19444E-25
8.40999E-01 1.16347E-25
8.44177E-01 1.13315E-25
8.47329E-01 1.10347E-25
8.50455E-01 1.07441E-25
8.53553E-01 1.04596E-25
8.56625E-01 1.01810E-25
8.59670E-01 9.90831E-26
8.62687E-01 9.64132E-26
8.65677E-01 9.37994E-26
8.68639E-01 9.12406E-26
8.71572E-01 8.87357E-26
8.74478E-01 8.62836E-26
8.77355E-01 8.38833E-26
8.80203E-01 8.15337E-26
8.83022E-01 7.92339E-26
8.85812E-01 7.69829E-26
8.88573E-01 7.47799E-26
8.91304E-01 7.26238E-26
8.94005E-01 7.05138E-26
8.96677E-01 6.84491E-26
8.99318E-01 6.64288E-26
9.01928E-01 6.44520E-26
9.04508E-01 6.25180E-26
9.07058E-01 6.06261E-26
9.09576E-01 5.87754E-26
9.12063E-01 5.69652E-26
9.14519E-01 5.51948E-26
9.16943E-01 5.34635E-26
9.19335E-01 5.17706E-26
9.21696E-01 5.01155E-26
9.24024E-01 4.84975E-26
9.26320E-01 4.69160E-26
9.28584E-01 4.53704E-26
9.30815E-01 4.38600E-26
9.33013E-01 4.23844E-26
9.35178E-01 4.09429E-26
9.37310E-01 3.95350E-26
9.39409E-01 3.81601E-26
9.41474E-01 3.68178E-26
9.43505E-01 3.55075E-26
9.45503E-01 3.42288E-26
9.47467E-01 3.29811E-26
9.49397E-01 3.17640E-26
9.51293E-01 3.05770E-26
9.53154E-01 2.94198E-26
9.54981E-01 2.82919E-26
9.56773E-01 2.71928E-26
9.58530E-01 2.61222E-26
9.60252E-01 2.50796E-26
9.61940E-01 2.40647E-26
9.63592E-01 2.30772E-26
9.65209E-01 2.21166E-26
9.66790E-01 2.11827E-26
9.68336E-01 2.02750E-26
9.69846E-01 1.93933E-26
9.71321E-01 1.85372E-26
9.72759E-01 1.77065E-26
9.74162E-01 1.69008E-26
9.75528E-01 1.61199E-26
9.76858E-01 1.53634E-26
9.78152E-01 1.46311E-26
9.79410E-01 1.39228E-26
9.80631E-01 1.32382E-26
9.81815E-01 1.25770E-26
9.82963E-01 1.19391E-26
9.84074E-01 1.13242E-26
9.85148E-01 1.07320E-26
9.86185E-01 1.01625E-26
9.87185E-01 9.61530E-27
9.88148E-01 9.09032E-27
9.89074E-01 8.58734E-27
9.89962E-01 8.10621E-27
9.90814E-01 7.64674E-27
9.91627E-01 7.20879E-27
9.92404E-01 6.79220E-27
9.93143E-01 6.39682E-27
9.93844E-01 6.02252E-27
9.94508E-01 5.66918E-27
9.95134E-01 5.33667E-27
9.95722E-01 5.02487E-27
9.96273E-01 4.73369E-27
9.96786E-01 4.46302E-27
9.97261E-01 4.21276E-27
9.97698E-01 3.98284E-27
9.98097E-01 3.77317E-27
9.98459E-01 3.58369E-27
9.98782E-01 3.41432E-27
9.99067E-01 3.26502E-27
9.99315E-01 3.13572E-27
9.99524E-01 3.02639E-27
9.99695E-01 2.93699E-27
9.99829E-01 2.86749E-27
9.99924E-01 2.81786E-27
9.99981E-01 2.78809E-27
1.00000E+00 2.77817E-27
