 #
 # Subroutine ELSEPA. Elastic scattering of electrons and positrons
 #                    by neutral atoms and positive ions
 #
 # Projectile: electron
 # Kinetic energy = 2.50000E+07 eV = 9.18733E+05 a.u.
 #
 # WARNING: High-energy factorization with free-atom DF screening.
 #          Absorption, polarization and exchange corrections are
 #          switched off.
 #          Phase shifts are calculated for the bare nucleus.
 #          Scattering amplitudes are not evaluated.
 #
 # Element:  P,  Z =  15,  atomic weight = 3.09738E+01 g/mol
 #
 # Nuclear model: Fermi distribution
 #                Average radius = 3.36033E-13 cm
 #                Skin thickness = 5.46000E-14 cm
 #
 # Number of electrons = 15
 #
 # Total elastic cross section = 9.76403E-19 cm**2 = 3.48680E-02 a0**2
 # 1st transport cross section = 6.72766E-25 cm**2 = 2.40249E-08 a0**2
 # 2nd transport cross section = 1.94877E-24 cm**2 = 6.95918E-08 a0**2
 #
 #
 # Differential cross section:                       MU=(1-COS(THETA))/2
 #
 #  THETA        MU          DCS          DCS        Sherman      error
 #  (deg)                 (cm**2/sr)   (a0**2/sr)    function
 #----------------------------------------------------------------------
0.00000E+00 7.47139E-12
7.61557E-13 7.47026E-12
1.18994E-12 7.46964E-12
1.71346E-12 7.46888E-12
2.33225E-12 7.46799E-12
3.04617E-12 7.46696E-12
3.85530E-12 7.46579E-12
4.75964E-12 7.46449E-12
5.75917E-12 7.46305E-12
6.85391E-12 7.46147E-12
8.04379E-12 7.45976E-12
9.32893E-12 7.45792E-12
1.07092E-11 7.45594E-12
1.21847E-11 7.45382E-12
1.37554E-11 7.45157E-12
1.54213E-11 7.44918E-12
1.71823E-11 7.44666E-12
1.90386E-11 7.44400E-12
2.09900E-11 7.44121E-12
2.30367E-11 7.43829E-12
2.51785E-11 7.43523E-12
2.74156E-11 7.43204E-12
2.97478E-11 7.42871E-12
3.21752E-11 7.42525E-12
3.46979E-11 7.42166E-12
3.73157E-11 7.41794E-12
4.00286E-11 7.41408E-12
4.28368E-11 7.41009E-12
4.57402E-11 7.40597E-12
4.87388E-11 7.40172E-12
5.18325E-11 7.39734E-12
5.50215E-11 7.39282E-12
5.83057E-11 7.38818E-12
6.16850E-11 7.38340E-12
6.51595E-11 7.37850E-12
6.87293E-11 7.37347E-12
7.23943E-11 7.36831E-12
7.61544E-11 7.36301E-12
1.18991E-10 7.30313E-12
1.71347E-10 7.23086E-12
2.33223E-10 7.14676E-12
3.04617E-10 7.05144E-12
3.85531E-10 6.94560E-12
4.75965E-10 6.82993E-12
5.75917E-10 6.70516E-12
6.85389E-10 6.57218E-12
8.04380E-10 6.43185E-12
9.32891E-10 6.28504E-12
1.07092E-09 6.13252E-12
1.21847E-09 5.97511E-12
1.37554E-09 5.81379E-12
1.54213E-09 5.64937E-12
1.71823E-09 5.48267E-12
1.90386E-09 5.31428E-12
2.09900E-09 5.14499E-12
2.30367E-09 4.97556E-12
2.51785E-09 4.79994E-12
2.74156E-09 4.62597E-12
2.97478E-09 4.45769E-12
3.21752E-09 4.29533E-12
3.46978E-09 4.13899E-12
3.73156E-09 3.98634E-12
4.00286E-09 3.82349E-12
4.28368E-09 3.66786E-12
4.57402E-09 3.51933E-12
4.87388E-09 3.37774E-12
5.18326E-09 3.24289E-12
5.50215E-09 3.10652E-12
5.83057E-09 2.97065E-12
6.16850E-09 2.84184E-12
6.51596E-09 2.71977E-12
6.87293E-09 2.60415E-12
7.23942E-09 2.49466E-12
7.61544E-09 2.38126E-12
1.18991E-08 1.50972E-12
1.71347E-08 9.61621E-13
2.33223E-08 6.28489E-13
3.04617E-08 4.25061E-13
3.85531E-08 2.98293E-13
4.75965E-08 2.16967E-13
5.75917E-08 1.63021E-13
6.85389E-08 1.25941E-13
8.04380E-08 9.95899E-14
9.32891E-08 8.02794E-14
1.07092E-07 6.57186E-14
1.21847E-07 5.44658E-14
1.37554E-07 4.56003E-14
1.54213E-07 3.84988E-14
1.71823E-07 3.27317E-14
1.90386E-07 2.79886E-14
2.09900E-07 2.40532E-14
2.30367E-07 2.07654E-14
2.51785E-07 1.79634E-14
2.74156E-07 1.56353E-14
2.97478E-07 1.36569E-14
3.21752E-07 1.19578E-14
3.46978E-07 1.05195E-14
3.73156E-07 9.26280E-15
4.00286E-07 8.19952E-15
4.28368E-07 7.25985E-15
4.57402E-07 6.45762E-15
4.87388E-07 5.75280E-15
5.18325E-07 5.14155E-15
5.50215E-07 4.60604E-15
5.83057E-07 4.13607E-15
6.16850E-07 3.72425E-15
6.51596E-07 3.35966E-15
6.87293E-07 3.03946E-15
7.23942E-07 2.75407E-15
7.61543E-07 2.50217E-15
1.18991E-06 1.06255E-15
1.71347E-06 5.25919E-16
2.33223E-06 2.90525E-16
3.04617E-06 1.73891E-16
3.85531E-06 1.10547E-16
4.75964E-06 7.36535E-17
5.75916E-06 5.09518E-17
6.85388E-06 3.63543E-17
8.04378E-06 2.66207E-17
9.32888E-06 1.99300E-17
1.07092E-05 1.52098E-17
1.21846E-05 1.18040E-17
1.37553E-05 9.29767E-18
1.54212E-05 7.42080E-18
1.71822E-05 5.99326E-18
1.90385E-05 4.89176E-18
2.09899E-05 4.03202E-18
2.30365E-05 3.35277E-18
2.51783E-05 2.81041E-18
2.74153E-05 2.37319E-18
2.97475E-05 2.01760E-18
3.21749E-05 1.72605E-18
3.46974E-05 1.48524E-18
3.73152E-05 1.28495E-18
4.00281E-05 1.11730E-18
4.28362E-05 9.76100E-19
4.57395E-05 8.56508E-19
4.87380E-05 7.54672E-19
5.18317E-05 6.67518E-19
5.50205E-05 5.92577E-19
5.83045E-05 5.27855E-19
6.16838E-05 4.71725E-19
6.51582E-05 4.22857E-19
6.87277E-05 3.80157E-19
7.23925E-05 3.42713E-19
7.61524E-05 3.09763E-19
9.21439E-05 2.11720E-19
1.09658E-04 1.49568E-19
1.28695E-04 1.08642E-19
1.49255E-04 8.08051E-20
1.71338E-04 6.13411E-20
1.94942E-04 4.74016E-20
2.20070E-04 3.72062E-20
2.46720E-04 2.96106E-20
2.74892E-04 2.38585E-20
3.04586E-04 1.94384E-20
3.35803E-04 1.59965E-20
3.68542E-04 1.32841E-20
4.02802E-04 1.11232E-20
4.38585E-04 9.38460E-21
4.75889E-04 7.97297E-21
5.14715E-04 6.81718E-21
5.55063E-04 5.86355E-21
5.96931E-04 5.07109E-21
6.40321E-04 4.40816E-21
6.85233E-04 3.85018E-21
7.31665E-04 3.37781E-21
7.79618E-04 2.97575E-21
8.29092E-04 2.63182E-21
8.80086E-04 2.33620E-21
9.32601E-04 2.08098E-21
9.86636E-04 1.85970E-21
1.04219E-03 1.66709E-21
1.09927E-03 1.49880E-21
1.15786E-03 1.35123E-21
1.21797E-03 1.22140E-21
1.27961E-03 1.10681E-21
1.34276E-03 1.00536E-21
1.40743E-03 9.15283E-22
1.47362E-03 8.35079E-22
1.54133E-03 7.63478E-22
1.61056E-03 6.99396E-22
1.68131E-03 6.41904E-22
1.75357E-03 5.90206E-22
1.82735E-03 5.43614E-22
1.90265E-03 5.01534E-22
1.97947E-03 4.63452E-22
2.05780E-03 4.28920E-22
2.13765E-03 3.97549E-22
2.21902E-03 3.68997E-22
2.30190E-03 3.42965E-22
2.38630E-03 3.19191E-22
2.47222E-03 2.97444E-22
2.55965E-03 2.77520E-22
2.64859E-03 2.59238E-22
2.73905E-03 2.42439E-22
2.83103E-03 2.26980E-22
2.92452E-03 2.12735E-22
3.01952E-03 1.99592E-22
3.11604E-03 1.87449E-22
3.21407E-03 1.76217E-22
3.31362E-03 1.65814E-22
3.41468E-03 1.56169E-22
3.51725E-03 1.47216E-22
3.62133E-03 1.38896E-22
3.72692E-03 1.31156E-22
3.83403E-03 1.23948E-22
3.94265E-03 1.17230E-22
4.05278E-03 1.10961E-22
4.16442E-03 1.05106E-22
4.27757E-03 9.96322E-23
4.39223E-03 9.45109E-23
4.50840E-03 8.97148E-23
4.62608E-03 8.52195E-23
4.74527E-03 8.10025E-23
4.86597E-03 7.70435E-23
4.98817E-03 7.33237E-23
5.11188E-03 6.98260E-23
5.23711E-03 6.65346E-23
5.36383E-03 6.34351E-23
5.49207E-03 6.05142E-23
5.62181E-03 5.77597E-23
5.75306E-03 5.51603E-23
5.88581E-03 5.27057E-23
6.02007E-03 5.03863E-23
6.15583E-03 4.81932E-23
6.29310E-03 4.61183E-23
6.43187E-03 4.41540E-23
6.57214E-03 4.22932E-23
6.71392E-03 4.05296E-23
6.85720E-03 3.88571E-23
7.00198E-03 3.72700E-23
7.14827E-03 3.57632E-23
7.29605E-03 3.43319E-23
7.44534E-03 3.29716E-23
7.59612E-03 3.16781E-23
7.97965E-03 2.87114E-23
8.37255E-03 2.60844E-23
8.77480E-03 2.37514E-23
9.18641E-03 2.16737E-23
9.60736E-03 1.98185E-23
1.00376E-02 1.81578E-23
1.04773E-02 1.66676E-23
1.09262E-02 1.53273E-23
1.13844E-02 1.41192E-23
1.18520E-02 1.30278E-23
1.23288E-02 1.20400E-23
1.28150E-02 1.11441E-23
1.33104E-02 1.03301E-23
1.38150E-02 9.58909E-24
1.43290E-02 8.91339E-24
1.48521E-02 8.29619E-24
1.53845E-02 7.73152E-24
1.59262E-02 7.21411E-24
1.64770E-02 6.73927E-24
1.70371E-02 6.30287E-24
1.76063E-02 5.90124E-24
1.81848E-02 5.53110E-24
1.87724E-02 5.18953E-24
1.93692E-02 4.87392E-24
1.99751E-02 4.58194E-24
2.05901E-02 4.31150E-24
2.12143E-02 4.06071E-24
2.18476E-02 3.82789E-24
2.24900E-02 3.61151E-24
2.31415E-02 3.41019E-24
2.38021E-02 3.22270E-24
2.44717E-02 3.04792E-24
2.51504E-02 2.88481E-24
2.58382E-02 2.73246E-24
2.65349E-02 2.59002E-24
2.72407E-02 2.45674E-24
2.79555E-02 2.33191E-24
2.86793E-02 2.21489E-24
2.94120E-02 2.10512E-24
3.01537E-02 2.00205E-24
3.09043E-02 1.90520E-24
3.16639E-02 1.81413E-24
3.24324E-02 1.72843E-24
3.32098E-02 1.64772E-24
3.39961E-02 1.57165E-24
3.47912E-02 1.49991E-24
3.55952E-02 1.43221E-24
3.64081E-02 1.36828E-24
3.72297E-02 1.30787E-24
3.80602E-02 1.25074E-24
3.88995E-02 1.19669E-24
3.97476E-02 1.14552E-24
4.06044E-02 1.09705E-24
4.14700E-02 1.05111E-24
4.23443E-02 1.00753E-24
4.32273E-02 9.66188E-25
4.41190E-02 9.26933E-25
4.50194E-02 8.89644E-25
4.59284E-02 8.54204E-25
4.68461E-02 8.20504E-25
4.87074E-02 7.57923E-25
5.06030E-02 7.01171E-25
5.25328E-02 6.49607E-25
5.44967E-02 6.02673E-25
5.64946E-02 5.59880E-25
5.85262E-02 5.20796E-25
6.05914E-02 4.85043E-25
6.26901E-02 4.52286E-25
6.48222E-02 4.22230E-25
6.69873E-02 3.94611E-25
6.91854E-02 3.69197E-25
7.14163E-02 3.45780E-25
7.36799E-02 3.24175E-25
7.59760E-02 3.04216E-25
7.83043E-02 2.85756E-25
8.06647E-02 2.68662E-25
8.30571E-02 2.52814E-25
8.54812E-02 2.38105E-25
8.79369E-02 2.24439E-25
9.04240E-02 2.11728E-25
9.29422E-02 1.99894E-25
9.54915E-02 1.88865E-25
9.80716E-02 1.78576E-25
1.00682E-01 1.68969E-25
1.03323E-01 1.59991E-25
1.05995E-01 1.51593E-25
1.08696E-01 1.43730E-25
1.11427E-01 1.36363E-25
1.14188E-01 1.29454E-25
1.16978E-01 1.22970E-25
1.19797E-01 1.16880E-25
1.22645E-01 1.11156E-25
1.25522E-01 1.05772E-25
1.28428E-01 1.00704E-25
1.31361E-01 9.59294E-26
1.34323E-01 9.14292E-26
1.37313E-01 8.71845E-26
1.40330E-01 8.31781E-26
1.43375E-01 7.93942E-26
1.46447E-01 7.58183E-26
1.49545E-01 7.24369E-26
1.52671E-01 6.92374E-26
1.55823E-01 6.62084E-26
1.59001E-01 6.33392E-26
1.62205E-01 6.06198E-26
1.65435E-01 5.80409E-26
1.68690E-01 5.55941E-26
1.71970E-01 5.32713E-26
1.75276E-01 5.10652E-26
1.78606E-01 4.89688E-26
1.81961E-01 4.69757E-26
1.85340E-01 4.50800E-26
1.88743E-01 4.32759E-26
1.92169E-01 4.15584E-26
1.95619E-01 3.99225E-26
1.99092E-01 3.83636E-26
2.02589E-01 3.68775E-26
2.06107E-01 3.54602E-26
2.09649E-01 3.41079E-26
2.13212E-01 3.28171E-26
2.16797E-01 3.15846E-26
2.20404E-01 3.04072E-26
2.24032E-01 2.92820E-26
2.27680E-01 2.82064E-26
2.31350E-01 2.71778E-26
2.35040E-01 2.61937E-26
2.38751E-01 2.52518E-26
2.42481E-01 2.43502E-26
2.46231E-01 2.34866E-26
2.50000E-01 2.26593E-26
2.53788E-01 2.18665E-26
2.57595E-01 2.11065E-26
2.61421E-01 2.03776E-26
2.65264E-01 1.96785E-26
2.69126E-01 1.90076E-26
2.73005E-01 1.83636E-26
2.76901E-01 1.77453E-26
2.80814E-01 1.71515E-26
2.84744E-01 1.65810E-26
2.88691E-01 1.60328E-26
2.92653E-01 1.55058E-26
2.96632E-01 1.49991E-26
3.00625E-01 1.45118E-26
3.04634E-01 1.40430E-26
3.08658E-01 1.35918E-26
3.12697E-01 1.31576E-26
3.16749E-01 1.27395E-26
3.20816E-01 1.23369E-26
3.24896E-01 1.19491E-26
3.28990E-01 1.15754E-26
3.33097E-01 1.12153E-26
3.37216E-01 1.08682E-26
3.41348E-01 1.05335E-26
3.45492E-01 1.02107E-26
3.49647E-01 9.89936E-27
3.53814E-01 9.59896E-27
3.57992E-01 9.30906E-27
3.62181E-01 9.02925E-27
3.66381E-01 8.75910E-27
3.70590E-01 8.49823E-27
3.74810E-01 8.24627E-27
3.79039E-01 8.00287E-27
3.83277E-01 7.76769E-27
3.87524E-01 7.54040E-27
3.91780E-01 7.32070E-27
3.96044E-01 7.10830E-27
4.00316E-01 6.90291E-27
4.04596E-01 6.70426E-27
4.08882E-01 6.51210E-27
4.13176E-01 6.32619E-27
4.17476E-01 6.14628E-27
4.21783E-01 5.97216E-27
4.26095E-01 5.80360E-27
4.30413E-01 5.64041E-27
4.34737E-01 5.48238E-27
4.39065E-01 5.32933E-27
4.43398E-01 5.18107E-27
4.47736E-01 5.03744E-27
4.52077E-01 4.89826E-27
4.56422E-01 4.76337E-27
4.60770E-01 4.63263E-27
4.65122E-01 4.50589E-27
4.69476E-01 4.38300E-27
4.73832E-01 4.26383E-27
4.78190E-01 4.14825E-27
4.82550E-01 4.03614E-27
4.86912E-01 3.92737E-27
4.91274E-01 3.82184E-27
4.95637E-01 3.71943E-27
5.00000E-01 3.62003E-27
5.04363E-01 3.52355E-27
5.08726E-01 3.42988E-27
5.13088E-01 3.33893E-27
5.17450E-01 3.25062E-27
5.21810E-01 3.16485E-27
5.26168E-01 3.08154E-27
5.30524E-01 3.00060E-27
5.34878E-01 2.92197E-27
5.39230E-01 2.84557E-27
5.43578E-01 2.77132E-27
5.47923E-01 2.69915E-27
5.52264E-01 2.62901E-27
5.56602E-01 2.56082E-27
5.60935E-01 2.49452E-27
5.65263E-01 2.43005E-27
5.69587E-01 2.36735E-27
5.73905E-01 2.30638E-27
5.78217E-01 2.24707E-27
5.82524E-01 2.18937E-27
5.86824E-01 2.13324E-27
5.91118E-01 2.07863E-27
5.95404E-01 2.02548E-27
5.99684E-01 1.97376E-27
6.03956E-01 1.92342E-27
6.08220E-01 1.87441E-27
6.12476E-01 1.82671E-27
6.16723E-01 1.78027E-27
6.20961E-01 1.73505E-27
6.25190E-01 1.69102E-27
6.29410E-01 1.64813E-27
6.33619E-01 1.60637E-27
6.37819E-01 1.56569E-27
6.42008E-01 1.52606E-27
6.46186E-01 1.48746E-27
6.50353E-01 1.44985E-27
6.54508E-01 1.41320E-27
6.58652E-01 1.37749E-27
6.62784E-01 1.34268E-27
6.66903E-01 1.30876E-27
6.71010E-01 1.27570E-27
6.75104E-01 1.24348E-27
6.79184E-01 1.21206E-27
6.83251E-01 1.18143E-27
6.87303E-01 1.15157E-27
6.91342E-01 1.12246E-27
6.95366E-01 1.09406E-27
6.99375E-01 1.06637E-27
7.03368E-01 1.03937E-27
7.07347E-01 1.01303E-27
7.11309E-01 9.87339E-28
7.15256E-01 9.62279E-28
7.19186E-01 9.37831E-28
7.23099E-01 9.13980E-28
7.26995E-01 8.90710E-28
7.30874E-01 8.68004E-28
7.34736E-01 8.45849E-28
7.38579E-01 8.24228E-28
7.42405E-01 8.03129E-28
7.46212E-01 7.82537E-28
7.50000E-01 7.62440E-28
7.53769E-01 7.42823E-28
7.57519E-01 7.23676E-28
7.61249E-01 7.04984E-28
7.64960E-01 6.86738E-28
7.68650E-01 6.68925E-28
7.72320E-01 6.51534E-28
7.75968E-01 6.34554E-28
7.79596E-01 6.17975E-28
7.83203E-01 6.01787E-28
7.86788E-01 5.85980E-28
7.90351E-01 5.70544E-28
7.93893E-01 5.55470E-28
7.97411E-01 5.40749E-28
8.00908E-01 5.26372E-28
8.04381E-01 5.12331E-28
8.07831E-01 4.98617E-28
8.11257E-01 4.85223E-28
8.14660E-01 4.72140E-28
8.18039E-01 4.59361E-28
8.21394E-01 4.46879E-28
8.24724E-01 4.34686E-28
8.28030E-01 4.22775E-28
8.31310E-01 4.11141E-28
8.34565E-01 3.99775E-28
8.37795E-01 3.88672E-28
8.40999E-01 3.77826E-28
8.44177E-01 3.67230E-28
8.47329E-01 3.56879E-28
8.50455E-01 3.46766E-28
8.53553E-01 3.36887E-28
8.56625E-01 3.27236E-28
8.59670E-01 3.17808E-28
8.62687E-01 3.08597E-28
8.65677E-01 2.99599E-28
8.68639E-01 2.90809E-28
8.71572E-01 2.82221E-28
8.74478E-01 2.73833E-28
8.77355E-01 2.65638E-28
8.80203E-01 2.57634E-28
8.83022E-01 2.49815E-28
8.85812E-01 2.42177E-28
8.88573E-01 2.34717E-28
8.91304E-01 2.27431E-28
8.94005E-01 2.20315E-28
8.96677E-01 2.13365E-28
8.99318E-01 2.06577E-28
9.01928E-01 1.99949E-28
9.04508E-01 1.93477E-28
9.07058E-01 1.87158E-28
9.09576E-01 1.80988E-28
9.12063E-01 1.74964E-28
9.14519E-01 1.69084E-28
9.16943E-01 1.63344E-28
9.19335E-01 1.57742E-28
9.21696E-01 1.52274E-28
9.24024E-01 1.46939E-28
9.26320E-01 1.41733E-28
9.28584E-01 1.36654E-28
9.30815E-01 1.31700E-28
9.33013E-01 1.26867E-28
9.35178E-01 1.22155E-28
9.37310E-01 1.17560E-28
9.39409E-01 1.13080E-28
9.41474E-01 1.08713E-28
9.43505E-01 1.04457E-28
9.45503E-01 1.00311E-28
9.47467E-01 9.62708E-29
9.49397E-01 9.23362E-29
9.51293E-01 8.85048E-29
9.53154E-01 8.47748E-29
9.54981E-01 8.11445E-29
9.56773E-01 7.76123E-29
9.58530E-01 7.41763E-29
9.60252E-01 7.08351E-29
9.61940E-01 6.75871E-29
9.63592E-01 6.44308E-29
9.65209E-01 6.13647E-29
9.66790E-01 5.83874E-29
9.68336E-01 5.54976E-29
9.69846E-01 5.26939E-29
9.71321E-01 4.99750E-29
9.72759E-01 4.73397E-29
9.74162E-01 4.47868E-29
9.75528E-01 4.23151E-29
9.76858E-01 3.99235E-29
9.78152E-01 3.76110E-29
9.79410E-01 3.53764E-29
9.80631E-01 3.32188E-29
9.81815E-01 3.11372E-29
9.82963E-01 2.91307E-29
9.84074E-01 2.71983E-29
9.85148E-01 2.53392E-29
9.86185E-01 2.35526E-29
9.87185E-01 2.18377E-29
9.88148E-01 2.01937E-29
9.89074E-01 1.86198E-29
9.89962E-01 1.71154E-29
9.90814E-01 1.56798E-29
9.91627E-01 1.43124E-29
9.92404E-01 1.30125E-29
9.93143E-01 1.17796E-29
9.93844E-01 1.06132E-29
9.94508E-01 9.51269E-30
9.95134E-01 8.47763E-30
9.95722E-01 7.50756E-30
9.96273E-01 6.60204E-30
9.96786E-01 5.76069E-30
9.97261E-01 4.98313E-30
9.97698E-01 4.26903E-30
9.98097E-01 3.61806E-30
9.98459E-01 3.02994E-30
9.98782E-01 2.50442E-30
9.99067E-01 2.04127E-30
9.99315E-01 1.64028E-30
9.99524E-01 1.30127E-30
9.99695E-01 1.02410E-30
9.99829E-01 8.08657E-31
9.99924E-01 6.54833E-31
9.99981E-01 5.62566E-31
1.00000E+00 5.31815E-31
