 #
 # Subroutine ELSEPA. Elastic scattering of electrons and positrons
 #                    by neutral atoms and positive ions
 #
 # Projectile: electron
 # Kinetic energy = 3.50000E+07 eV = 1.28623E+06 a.u.
 #
 # WARNING: High-energy factorization with free-atom DF screening.
 #          Absorption, polarization and exchange corrections are
 #          switched off.
 #          Phase shifts are calculated for the bare nucleus.
 #          Scattering amplitudes are not evaluated.
 #
 # Element:  P,  Z =  15,  atomic weight = 3.09738E+01 g/mol
 #
 # Nuclear model: Fermi distribution
 #                Average radius = 3.36033E-13 cm
 #                Skin thickness = 5.46000E-14 cm
 #
 # Number of electrons = 15
 #
 # Total elastic cross section = 9.76927E-19 cm**2 = 3.48867E-02 a0**2
 # 1st transport cross section = 3.59291E-25 cm**2 = 1.28305E-08 a0**2
 # 2nd transport cross section = 1.04506E-24 cm**2 = 3.73197E-08 a0**2
 #
 #
 # Differential cross section:                       MU=(1-COS(THETA))/2
 #
 #  THETA        MU          DCS          DCS        Sherman      error
 #  (deg)                 (cm**2/sr)   (a0**2/sr)    function
 #----------------------------------------------------------------------
0.00000E+00 1.44768E-11
7.61557E-13 1.44726E-11
1.18994E-12 1.44703E-11
1.71346E-12 1.44674E-11
2.33225E-12 1.44641E-11
3.04617E-12 1.44602E-11
3.85530E-12 1.44558E-11
4.75964E-12 1.44510E-11
5.75917E-12 1.44456E-11
6.85391E-12 1.44397E-11
8.04379E-12 1.44333E-11
9.32893E-12 1.44264E-11
1.07092E-11 1.44190E-11
1.21847E-11 1.44110E-11
1.37554E-11 1.44026E-11
1.54213E-11 1.43937E-11
1.71823E-11 1.43843E-11
1.90386E-11 1.43744E-11
2.09900E-11 1.43639E-11
2.30367E-11 1.43530E-11
2.51785E-11 1.43416E-11
2.74156E-11 1.43297E-11
2.97478E-11 1.43173E-11
3.21752E-11 1.43045E-11
3.46979E-11 1.42911E-11
3.73157E-11 1.42773E-11
4.00286E-11 1.42629E-11
4.28368E-11 1.42481E-11
4.57402E-11 1.42328E-11
4.87388E-11 1.42171E-11
5.18325E-11 1.42008E-11
5.50215E-11 1.41841E-11
5.83057E-11 1.41669E-11
6.16850E-11 1.41493E-11
6.51595E-11 1.41311E-11
6.87293E-11 1.41125E-11
7.23943E-11 1.40935E-11
7.61544E-11 1.40740E-11
1.18991E-10 1.38546E-11
1.71347E-10 1.35931E-11
2.33223E-10 1.32927E-11
3.04617E-10 1.29578E-11
3.85531E-10 1.25922E-11
4.75965E-10 1.22009E-11
5.75917E-10 1.17877E-11
6.85389E-10 1.13579E-11
8.04380E-10 1.09149E-11
9.32891E-10 1.04639E-11
1.07092E-09 1.00078E-11
1.21847E-09 9.55118E-12
1.37554E-09 9.07473E-12
1.54213E-09 8.61868E-12
1.71823E-09 8.18484E-12
1.90386E-09 7.77377E-12
2.09900E-09 7.33647E-12
2.30367E-09 6.92495E-12
2.51785E-09 6.53972E-12
2.74156E-09 6.17981E-12
2.97478E-09 5.80673E-12
3.21752E-09 5.45922E-12
3.46978E-09 5.13682E-12
3.73156E-09 4.83793E-12
4.00286E-09 4.53527E-12
4.28368E-09 4.25484E-12
4.57402E-09 3.99582E-12
4.87388E-09 3.75656E-12
5.18326E-09 3.51909E-12
5.50215E-09 3.29953E-12
5.83057E-09 3.09703E-12
6.16850E-09 2.91018E-12
6.51596E-09 2.72773E-12
6.87293E-09 2.55907E-12
7.23942E-09 2.40345E-12
7.61544E-09 2.25975E-12
1.18991E-08 1.23758E-12
1.71347E-08 7.23871E-13
2.33223E-08 4.54479E-13
3.04617E-08 3.04441E-13
3.85531E-08 2.14950E-13
4.75965E-08 1.58124E-13
5.75917E-08 1.19899E-13
6.85389E-08 9.30299E-14
8.04380E-08 7.33968E-14
9.32891E-08 5.87018E-14
1.07092E-07 4.74331E-14
1.21847E-07 3.86795E-14
1.37554E-07 3.17044E-14
1.54213E-07 2.62521E-14
1.71823E-07 2.18679E-14
1.90386E-07 1.83035E-14
2.09900E-07 1.54329E-14
2.30367E-07 1.30639E-14
2.51785E-07 1.11221E-14
2.74156E-07 9.52297E-15
2.97478E-07 8.18303E-15
3.21752E-07 7.07032E-15
3.46978E-07 6.13570E-15
3.73156E-07 5.34662E-15
4.00286E-07 4.68014E-15
4.28368E-07 4.11190E-15
4.57402E-07 3.62698E-15
4.87388E-07 3.21142E-15
5.18325E-07 2.85283E-15
5.50215E-07 2.54321E-15
5.83057E-07 2.27444E-15
6.16850E-07 2.04024E-15
6.51596E-07 1.83566E-15
6.87293E-07 1.65611E-15
7.23942E-07 1.49816E-15
7.61543E-07 1.35877E-15
1.18991E-06 5.75202E-16
1.71347E-06 2.85385E-16
2.33223E-06 1.57646E-16
3.04617E-06 9.40842E-17
3.85531E-06 5.95414E-17
4.75964E-06 3.94675E-17
5.75916E-06 2.71657E-17
6.85388E-06 1.92931E-17
8.04378E-06 1.40698E-17
9.32888E-06 1.04964E-17
1.07092E-05 7.98631E-18
1.21846E-05 6.18223E-18
1.37553E-05 4.85907E-18
1.54212E-05 3.87122E-18
1.71822E-05 3.12175E-18
1.90385E-05 2.54474E-18
2.09899E-05 2.09522E-18
2.30365E-05 1.74066E-18
2.51783E-05 1.45795E-18
2.74153E-05 1.23031E-18
2.97475E-05 1.04537E-18
3.21749E-05 8.93873E-19
3.46974E-05 7.68837E-19
3.73152E-05 6.64915E-19
4.00281E-05 5.77975E-19
4.28362E-05 5.04795E-19
4.57395E-05 4.42841E-19
4.87380E-05 3.90106E-19
5.18317E-05 3.44990E-19
5.50205E-05 3.06208E-19
5.83045E-05 2.72723E-19
6.16838E-05 2.43691E-19
6.51582E-05 2.18422E-19
6.87277E-05 1.96345E-19
7.23925E-05 1.76989E-19
7.61524E-05 1.59958E-19
9.21439E-05 1.09301E-19
1.09658E-04 7.72011E-20
1.28695E-04 5.60668E-20
1.49255E-04 4.16954E-20
1.71338E-04 3.16488E-20
1.94942E-04 2.44549E-20
2.20070E-04 1.91941E-20
2.46720E-04 1.52755E-20
2.74892E-04 1.23080E-20
3.04586E-04 1.00277E-20
3.35803E-04 8.25204E-21
3.68542E-04 6.85273E-21
4.02802E-04 5.73799E-21
4.38585E-04 4.84106E-21
4.75889E-04 4.11283E-21
5.14715E-04 3.51658E-21
5.55063E-04 3.02463E-21
5.96931E-04 2.61582E-21
6.40321E-04 2.27384E-21
6.85233E-04 1.98600E-21
7.31665E-04 1.74231E-21
7.79618E-04 1.53491E-21
8.29092E-04 1.35749E-21
8.80086E-04 1.20499E-21
9.32601E-04 1.07334E-21
9.86636E-04 9.59192E-22
1.04219E-03 8.59835E-22
1.09927E-03 7.73024E-22
1.15786E-03 6.96906E-22
1.21797E-03 6.29937E-22
1.27961E-03 5.70827E-22
1.34276E-03 5.18497E-22
1.40743E-03 4.72032E-22
1.47362E-03 4.30661E-22
1.54133E-03 3.93729E-22
1.61056E-03 3.60675E-22
1.68131E-03 3.31021E-22
1.75357E-03 3.04355E-22
1.82735E-03 2.80323E-22
1.90265E-03 2.58619E-22
1.97947E-03 2.38977E-22
2.05780E-03 2.21166E-22
2.13765E-03 2.04986E-22
2.21902E-03 1.90259E-22
2.30190E-03 1.76833E-22
2.38630E-03 1.64572E-22
2.47222E-03 1.53356E-22
2.55965E-03 1.43080E-22
2.64859E-03 1.33651E-22
2.73905E-03 1.24987E-22
2.83103E-03 1.17015E-22
2.92452E-03 1.09668E-22
3.01952E-03 1.02890E-22
3.11604E-03 9.66280E-23
3.21407E-03 9.08355E-23
3.31362E-03 8.54710E-23
3.41468E-03 8.04970E-23
3.51725E-03 7.58800E-23
3.62133E-03 7.15895E-23
3.72692E-03 6.75983E-23
3.83403E-03 6.38817E-23
3.94265E-03 6.04172E-23
4.05278E-03 5.71846E-23
4.16442E-03 5.41656E-23
4.27757E-03 5.13433E-23
4.39223E-03 4.87026E-23
4.50840E-03 4.62297E-23
4.62608E-03 4.39119E-23
4.74527E-03 4.17376E-23
4.86597E-03 3.96964E-23
4.98817E-03 3.77785E-23
5.11188E-03 3.59752E-23
5.23711E-03 3.42782E-23
5.36383E-03 3.26802E-23
5.49207E-03 3.11744E-23
5.62181E-03 2.97543E-23
5.75306E-03 2.84143E-23
5.88581E-03 2.71489E-23
6.02007E-03 2.59532E-23
6.15583E-03 2.48226E-23
6.29310E-03 2.37530E-23
6.43187E-03 2.27404E-23
6.57214E-03 2.17813E-23
6.71392E-03 2.08722E-23
6.85720E-03 2.00100E-23
7.00198E-03 1.91920E-23
7.14827E-03 1.84154E-23
7.29605E-03 1.76776E-23
7.44534E-03 1.69765E-23
7.59612E-03 1.63098E-23
7.97965E-03 1.47808E-23
8.37255E-03 1.34270E-23
8.77480E-03 1.22247E-23
9.18641E-03 1.11540E-23
9.60736E-03 1.01981E-23
1.00376E-02 9.34242E-24
1.04773E-02 8.57465E-24
1.09262E-02 7.88415E-24
1.13844E-02 7.26178E-24
1.18520E-02 6.69962E-24
1.23288E-02 6.19081E-24
1.28150E-02 5.72938E-24
1.33104E-02 5.31014E-24
1.38150E-02 4.92853E-24
1.43290E-02 4.58058E-24
1.48521E-02 4.26278E-24
1.53845E-02 3.97205E-24
1.59262E-02 3.70567E-24
1.64770E-02 3.46123E-24
1.70371E-02 3.23659E-24
1.76063E-02 3.02986E-24
1.81848E-02 2.83936E-24
1.87724E-02 2.66358E-24
1.93692E-02 2.50117E-24
1.99751E-02 2.35094E-24
2.05901E-02 2.21179E-24
2.12143E-02 2.08278E-24
2.18476E-02 1.96301E-24
2.24900E-02 1.85171E-24
2.31415E-02 1.74817E-24
2.38021E-02 1.65176E-24
2.44717E-02 1.56188E-24
2.51504E-02 1.47801E-24
2.58382E-02 1.39969E-24
2.65349E-02 1.32646E-24
2.72407E-02 1.25795E-24
2.79555E-02 1.19379E-24
2.86793E-02 1.13366E-24
2.94120E-02 1.07725E-24
3.01537E-02 1.02430E-24
3.09043E-02 9.74541E-25
3.16639E-02 9.27759E-25
3.24324E-02 8.83738E-25
3.32098E-02 8.42286E-25
3.39961E-02 8.03224E-25
3.47912E-02 7.66391E-25
3.55952E-02 7.31633E-25
3.64081E-02 6.98814E-25
3.72297E-02 6.67805E-25
3.80602E-02 6.38487E-25
3.88995E-02 6.10752E-25
3.97476E-02 5.84497E-25
4.06044E-02 5.59629E-25
4.14700E-02 5.36061E-25
4.23443E-02 5.13713E-25
4.32273E-02 4.92510E-25
4.41190E-02 4.72381E-25
4.50194E-02 4.53263E-25
4.59284E-02 4.35096E-25
4.68461E-02 4.17822E-25
4.87074E-02 3.85753E-25
5.06030E-02 3.56678E-25
5.25328E-02 3.30269E-25
5.44967E-02 3.06238E-25
5.64946E-02 2.84333E-25
5.85262E-02 2.64333E-25
6.05914E-02 2.46044E-25
6.26901E-02 2.29292E-25
6.48222E-02 2.13927E-25
6.69873E-02 1.99812E-25
6.91854E-02 1.86828E-25
7.14163E-02 1.74868E-25
7.36799E-02 1.63838E-25
7.59760E-02 1.53652E-25
7.83043E-02 1.44234E-25
8.06647E-02 1.35516E-25
8.30571E-02 1.27436E-25
8.54812E-02 1.19940E-25
8.79369E-02 1.12978E-25
9.04240E-02 1.06506E-25
9.29422E-02 1.00482E-25
9.54915E-02 9.48698E-26
9.80716E-02 8.96369E-26
1.00682E-01 8.47527E-26
1.03323E-01 8.01899E-26
1.05995E-01 7.59237E-26
1.08696E-01 7.19313E-26
1.11427E-01 6.81921E-26
1.14188E-01 6.46871E-26
1.16978E-01 6.13992E-26
1.19797E-01 5.83125E-26
1.22645E-01 5.54125E-26
1.25522E-01 5.26859E-26
1.28428E-01 5.01206E-26
1.31361E-01 4.77053E-26
1.34323E-01 4.54298E-26
1.37313E-01 4.32844E-26
1.40330E-01 4.12606E-26
1.43375E-01 3.93501E-26
1.46447E-01 3.75455E-26
1.49545E-01 3.58399E-26
1.52671E-01 3.42270E-26
1.55823E-01 3.27009E-26
1.59001E-01 3.12560E-26
1.62205E-01 2.98873E-26
1.65435E-01 2.85900E-26
1.68690E-01 2.73599E-26
1.71970E-01 2.61927E-26
1.75276E-01 2.50849E-26
1.78606E-01 2.40327E-26
1.81961E-01 2.30330E-26
1.85340E-01 2.20826E-26
1.88743E-01 2.11788E-26
1.92169E-01 2.03188E-26
1.95619E-01 1.95002E-26
1.99092E-01 1.87206E-26
2.02589E-01 1.79779E-26
2.06107E-01 1.72700E-26
2.09649E-01 1.65950E-26
2.13212E-01 1.59511E-26
2.16797E-01 1.53367E-26
2.20404E-01 1.47501E-26
2.24032E-01 1.41900E-26
2.27680E-01 1.36548E-26
2.31350E-01 1.31434E-26
2.35040E-01 1.26545E-26
2.38751E-01 1.21868E-26
2.42481E-01 1.17395E-26
2.46231E-01 1.13113E-26
2.50000E-01 1.09014E-26
2.53788E-01 1.05089E-26
2.57595E-01 1.01329E-26
2.61421E-01 9.77254E-27
2.65264E-01 9.42714E-27
2.69126E-01 9.09595E-27
2.73005E-01 8.77830E-27
2.76901E-01 8.47353E-27
2.80814E-01 8.18105E-27
2.84744E-01 7.90028E-27
2.88691E-01 7.63067E-27
2.92653E-01 7.37172E-27
2.96632E-01 7.12292E-27
3.00625E-01 6.88383E-27
3.04634E-01 6.65399E-27
3.08658E-01 6.43301E-27
3.12697E-01 6.22047E-27
3.16749E-01 6.01602E-27
3.20816E-01 5.81929E-27
3.24896E-01 5.62994E-27
3.28990E-01 5.44767E-27
3.33097E-01 5.27215E-27
3.37216E-01 5.10310E-27
3.41348E-01 4.94026E-27
3.45492E-01 4.78334E-27
3.49647E-01 4.63212E-27
3.53814E-01 4.48634E-27
3.57992E-01 4.34578E-27
3.62181E-01 4.21023E-27
3.66381E-01 4.07948E-27
3.70590E-01 3.95333E-27
3.74810E-01 3.83161E-27
3.79039E-01 3.71413E-27
3.83277E-01 3.60072E-27
3.87524E-01 3.49122E-27
3.91780E-01 3.38547E-27
3.96044E-01 3.28333E-27
4.00316E-01 3.18466E-27
4.04596E-01 3.08932E-27
4.08882E-01 2.99718E-27
4.13176E-01 2.90813E-27
4.17476E-01 2.82203E-27
4.21783E-01 2.73879E-27
4.26095E-01 2.65828E-27
4.30413E-01 2.58042E-27
4.34737E-01 2.50509E-27
4.39065E-01 2.43221E-27
4.43398E-01 2.36169E-27
4.47736E-01 2.29343E-27
4.52077E-01 2.22736E-27
4.56422E-01 2.16339E-27
4.60770E-01 2.10145E-27
4.65122E-01 2.04147E-27
4.69476E-01 1.98338E-27
4.73832E-01 1.92710E-27
4.78190E-01 1.87257E-27
4.82550E-01 1.81974E-27
4.86912E-01 1.76854E-27
4.91274E-01 1.71892E-27
4.95637E-01 1.67081E-27
5.00000E-01 1.62417E-27
5.04363E-01 1.57895E-27
5.08726E-01 1.53510E-27
5.13088E-01 1.49257E-27
5.17450E-01 1.45131E-27
5.21810E-01 1.41129E-27
5.26168E-01 1.37246E-27
5.30524E-01 1.33478E-27
5.34878E-01 1.29822E-27
5.39230E-01 1.26273E-27
5.43578E-01 1.22828E-27
5.47923E-01 1.19483E-27
5.52264E-01 1.16236E-27
5.56602E-01 1.13083E-27
5.60935E-01 1.10021E-27
5.65263E-01 1.07048E-27
5.69587E-01 1.04159E-27
5.73905E-01 1.01353E-27
5.78217E-01 9.86270E-28
5.82524E-01 9.59783E-28
5.86824E-01 9.34044E-28
5.91118E-01 9.09030E-28
5.95404E-01 8.84718E-28
5.99684E-01 8.61087E-28
6.03956E-01 8.38115E-28
6.08220E-01 8.15782E-28
6.12476E-01 7.94067E-28
6.16723E-01 7.72952E-28
6.20961E-01 7.52418E-28
6.25190E-01 7.32448E-28
6.29410E-01 7.13024E-28
6.33619E-01 6.94130E-28
6.37819E-01 6.75749E-28
6.42008E-01 6.57867E-28
6.46186E-01 6.40468E-28
6.50353E-01 6.23537E-28
6.54508E-01 6.07062E-28
6.58652E-01 5.91028E-28
6.62784E-01 5.75422E-28
6.66903E-01 5.60231E-28
6.71010E-01 5.45445E-28
6.75104E-01 5.31049E-28
6.79184E-01 5.17034E-28
6.83251E-01 5.03389E-28
6.87303E-01 4.90101E-28
6.91342E-01 4.77162E-28
6.95366E-01 4.64561E-28
6.99375E-01 4.52288E-28
7.03368E-01 4.40335E-28
7.07347E-01 4.28691E-28
7.11309E-01 4.17349E-28
7.15256E-01 4.06300E-28
7.19186E-01 3.95535E-28
7.23099E-01 3.85046E-28
7.26995E-01 3.74826E-28
7.30874E-01 3.64868E-28
7.34736E-01 3.55164E-28
7.38579E-01 3.45706E-28
7.42405E-01 3.36489E-28
7.46212E-01 3.27506E-28
7.50000E-01 3.18750E-28
7.53769E-01 3.10214E-28
7.57519E-01 3.01894E-28
7.61249E-01 2.93783E-28
7.64960E-01 2.85876E-28
7.68650E-01 2.78166E-28
7.72320E-01 2.70650E-28
7.75968E-01 2.63321E-28
7.79596E-01 2.56174E-28
7.83203E-01 2.49206E-28
7.86788E-01 2.42410E-28
7.90351E-01 2.35783E-28
7.93893E-01 2.29320E-28
7.97411E-01 2.23017E-28
8.00908E-01 2.16869E-28
8.04381E-01 2.10873E-28
8.07831E-01 2.05024E-28
8.11257E-01 1.99319E-28
8.14660E-01 1.93755E-28
8.18039E-01 1.88327E-28
8.21394E-01 1.83031E-28
8.24724E-01 1.77866E-28
8.28030E-01 1.72827E-28
8.31310E-01 1.67911E-28
8.34565E-01 1.63115E-28
8.37795E-01 1.58436E-28
8.40999E-01 1.53871E-28
8.44177E-01 1.49418E-28
8.47329E-01 1.45073E-28
8.50455E-01 1.40833E-28
8.53553E-01 1.36697E-28
8.56625E-01 1.32662E-28
8.59670E-01 1.28725E-28
8.62687E-01 1.24883E-28
8.65677E-01 1.21136E-28
8.68639E-01 1.17479E-28
8.71572E-01 1.13911E-28
8.74478E-01 1.10431E-28
8.77355E-01 1.07035E-28
8.80203E-01 1.03722E-28
8.83022E-01 1.00490E-28
8.85812E-01 9.73370E-29
8.88573E-01 9.42611E-29
8.91304E-01 9.12604E-29
8.94005E-01 8.83334E-29
8.96677E-01 8.54782E-29
8.99318E-01 8.26933E-29
9.01928E-01 7.99770E-29
9.04508E-01 7.73277E-29
9.07058E-01 7.47441E-29
9.09576E-01 7.22245E-29
9.12063E-01 6.97676E-29
9.14519E-01 6.73719E-29
9.16943E-01 6.50361E-29
9.19335E-01 6.27590E-29
9.21696E-01 6.05392E-29
9.24024E-01 5.83754E-29
9.26320E-01 5.62666E-29
9.28584E-01 5.42114E-29
9.30815E-01 5.22088E-29
9.33013E-01 5.02577E-29
9.35178E-01 4.83570E-29
9.37310E-01 4.65056E-29
9.39409E-01 4.47025E-29
9.41474E-01 4.29468E-29
9.43505E-01 4.12375E-29
9.45503E-01 3.95736E-29
9.47467E-01 3.79544E-29
9.49397E-01 3.63788E-29
9.51293E-01 3.48460E-29
9.53154E-01 3.33553E-29
9.54981E-01 3.19058E-29
9.56773E-01 3.04967E-29
9.58530E-01 2.91273E-29
9.60252E-01 2.77969E-29
9.61940E-01 2.65048E-29
9.63592E-01 2.52502E-29
9.65209E-01 2.40326E-29
9.66790E-01 2.28512E-29
9.68336E-01 2.17055E-29
9.69846E-01 2.05948E-29
9.71321E-01 1.95186E-29
9.72759E-01 1.84763E-29
9.74162E-01 1.74673E-29
9.75528E-01 1.64912E-29
9.76858E-01 1.55474E-29
9.78152E-01 1.46354E-29
9.79410E-01 1.37548E-29
9.80631E-01 1.29052E-29
9.81815E-01 1.20859E-29
9.82963E-01 1.12968E-29
9.84074E-01 1.05372E-29
9.85148E-01 9.80697E-30
9.86185E-01 9.10558E-30
9.87185E-01 8.43270E-30
9.88148E-01 7.78799E-30
9.89074E-01 7.17113E-30
9.89962E-01 6.58180E-30
9.90814E-01 6.01969E-30
9.91627E-01 5.48452E-30
9.92404E-01 4.97603E-30
9.93143E-01 4.49395E-30
9.93844E-01 4.03803E-30
9.94508E-01 3.60805E-30
9.95134E-01 3.20378E-30
9.95722E-01 2.82503E-30
9.96273E-01 2.47160E-30
9.96786E-01 2.14332E-30
9.97261E-01 1.84001E-30
9.97698E-01 1.56152E-30
9.98097E-01 1.30772E-30
9.98459E-01 1.07847E-30
9.98782E-01 8.73660E-31
9.99067E-01 6.93190E-31
9.99315E-01 5.36965E-31
9.99524E-01 4.04907E-31
9.99695E-01 2.96950E-31
9.99829E-01 2.13040E-31
9.99924E-01 1.53135E-31
9.99981E-01 1.17203E-31
1.00000E+00 1.05229E-31
