 #
 # Subroutine ELSEPA. Elastic scattering of electrons and positrons
 #                    by neutral atoms and positive ions
 #
 # Projectile: electron
 # Kinetic energy = 1.00000E+09 eV = 3.67493E+07 a.u.
 #
 # WARNING: High-energy factorization with free-atom DF screening.
 #          Absorption, polarization and exchange corrections are
 #          switched off.
 #          Phase shifts are calculated for the bare nucleus.
 #          Scattering amplitudes are not evaluated.
 #
 # Element:  P,  Z =  15,  atomic weight = 3.09738E+01 g/mol
 #
 # Nuclear model: Fermi distribution
 #                Average radius = 3.36033E-13 cm
 #                Skin thickness = 5.46000E-14 cm
 #
 # Number of electrons = 15
 #
 # Total elastic cross section = 9.66420E-19 cm**2 = 3.45115E-02 a0**2
 # 1st transport cross section = 4.84985E-28 cm**2 = 1.73191E-11 a0**2
 # 2nd transport cross section = 1.45473E-27 cm**2 = 5.19494E-11 a0**2
 #
 #
 # Differential cross section:                       MU=(1-COS(THETA))/2
 #
 #  THETA        MU          DCS          DCS        Sherman      error
 #  (deg)                 (cm**2/sr)   (a0**2/sr)    function
 #----------------------------------------------------------------------
0.00000E+00 1.14919E-08
7.61557E-13 9.26592E-09
1.18994E-12 8.27412E-09
1.71346E-12 7.23826E-09
2.33225E-12 6.25895E-09
3.04617E-12 5.32872E-09
3.85530E-12 4.50774E-09
4.75964E-12 3.79687E-09
5.75917E-12 3.17278E-09
6.85391E-12 2.65065E-09
8.04379E-12 2.21749E-09
9.32893E-12 1.85554E-09
1.07092E-11 1.55627E-09
1.21847E-11 1.31123E-09
1.37554E-11 1.10969E-09
1.54213E-11 9.42985E-10
1.71823E-11 8.06060E-10
1.90386E-11 6.92966E-10
2.09900E-11 5.98979E-10
2.30367E-11 5.20778E-10
2.51785E-11 4.55383E-10
2.74156E-11 4.00395E-10
2.97478E-11 3.53933E-10
3.21752E-11 3.14473E-10
3.46979E-11 2.80778E-10
3.73157E-11 2.51852E-10
4.00286E-11 2.26871E-10
4.28368E-11 2.05195E-10
4.57402E-11 1.86278E-10
4.87388E-11 1.69688E-10
5.18325E-11 1.55085E-10
5.50215E-11 1.42165E-10
5.83057E-11 1.30658E-10
6.16850E-11 1.20396E-10
6.51595E-11 1.11213E-10
6.87293E-11 1.02921E-10
7.23943E-11 9.54406E-11
7.61544E-11 8.86753E-11
1.18991E-10 4.56984E-11
1.71347E-10 2.56203E-11
2.33223E-10 1.52496E-11
3.04617E-10 9.50219E-12
3.85531E-10 6.15961E-12
4.75965E-10 4.14287E-12
5.75917E-10 2.88018E-12
6.85389E-10 2.06173E-12
8.04380E-10 1.51425E-12
9.32891E-10 1.13760E-12
1.07092E-09 8.71777E-13
1.21847E-09 6.79809E-13
1.37554E-09 5.38291E-13
1.54213E-09 4.32032E-13
1.71823E-09 3.50942E-13
1.90386E-09 2.88145E-13
2.09900E-09 2.38867E-13
2.30367E-09 1.99733E-13
2.51785E-09 1.68326E-13
2.74156E-09 1.42876E-13
2.97478E-09 1.22069E-13
3.21752E-09 1.04915E-13
3.46978E-09 9.06730E-14
3.73156E-09 7.87669E-14
4.00286E-09 6.87507E-14
4.28368E-09 6.02732E-14
4.57402E-09 5.30604E-14
4.87388E-09 4.68926E-14
5.18326E-09 4.15932E-14
5.50215E-09 3.70190E-14
5.83057E-09 3.30546E-14
6.16850E-09 2.96052E-14
6.51596E-09 2.65929E-14
6.87293E-09 2.39526E-14
7.23942E-09 2.16308E-14
7.61544E-09 1.95826E-14
1.18991E-08 8.11826E-15
1.71347E-08 3.93798E-15
2.33223E-08 2.13215E-15
3.04617E-08 1.25197E-15
3.85531E-08 7.82403E-16
4.75965E-08 5.13665E-16
5.75917E-08 3.50989E-16
6.85389E-08 2.47894E-16
8.04380E-08 1.80014E-16
9.32891E-08 1.33855E-16
1.07092E-07 1.01585E-16
1.21847E-07 7.84789E-17
1.37554E-07 6.15838E-17
1.54213E-07 4.89981E-17
1.71823E-07 3.94694E-17
1.90386E-07 3.21484E-17
2.09900E-07 2.64489E-17
2.30367E-07 2.19583E-17
2.51785E-07 1.83815E-17
2.74156E-07 1.55043E-17
2.97478E-07 1.31686E-17
3.21752E-07 1.12567E-17
3.46978E-07 9.67951E-18
3.73156E-07 8.36913E-18
4.00286E-07 7.27317E-18
4.28368E-07 6.35089E-18
4.57402E-07 5.57027E-18
4.87388E-07 4.90599E-18
5.18325E-07 4.33785E-18
5.50215E-07 3.84962E-18
5.83057E-07 3.42819E-18
6.16850E-07 3.06288E-18
6.51596E-07 2.74497E-18
6.87293E-07 2.46725E-18
7.23942E-07 2.22378E-18
7.61543E-07 2.00962E-18
1.18991E-06 8.23202E-19
1.71347E-06 3.97021E-19
2.33223E-06 2.14318E-19
3.04617E-06 1.25638E-19
3.85531E-06 7.84411E-20
4.75964E-06 5.14689E-20
5.75916E-06 3.51565E-20
6.85388E-06 2.48247E-20
8.04378E-06 1.80246E-20
9.32888E-06 1.34017E-20
1.07092E-05 1.01704E-20
1.21846E-05 7.85696E-21
1.37553E-05 6.16553E-21
1.54212E-05 4.90577E-21
1.71822E-05 3.95198E-21
1.90385E-05 3.21883E-21
2.09899E-05 2.64845E-21
2.30365E-05 2.19903E-21
2.51783E-05 1.84103E-21
2.74153E-05 1.55298E-21
2.97475E-05 1.31910E-21
3.21749E-05 1.12762E-21
3.46974E-05 9.69664E-22
3.73152E-05 8.38429E-22
4.00281E-05 7.28676E-22
4.28362E-05 6.36320E-22
4.57395E-05 5.58152E-22
4.87380E-05 4.91630E-22
5.18317E-05 4.34730E-22
5.50205E-05 3.85827E-22
5.83045E-05 3.43609E-22
6.16838E-05 3.07011E-22
6.51582E-05 2.75158E-22
6.87277E-05 2.47334E-22
7.23925E-05 2.22941E-22
7.61524E-05 1.96290E-22
9.21439E-05 1.33337E-22
1.09658E-04 9.35720E-23
1.28695E-04 6.74845E-23
1.49255E-04 4.98090E-23
1.71338E-04 3.75008E-23
1.94942E-04 2.87248E-23
2.20070E-04 2.23362E-23
2.46720E-04 1.76007E-23
2.74892E-04 1.40332E-23
3.04586E-04 1.13070E-23
3.35803E-04 9.19659E-24
3.68542E-04 7.54377E-24
4.02802E-04 6.23571E-24
4.38585E-04 5.19048E-24
4.75889E-04 4.34799E-24
5.14715E-04 3.66344E-24
5.55063E-04 3.10314E-24
5.96931E-04 2.64141E-24
6.40321E-04 2.25852E-24
6.85233E-04 1.93918E-24
7.31665E-04 1.67139E-24
7.79618E-04 1.44572E-24
8.29092E-04 1.25465E-24
8.80086E-04 1.09217E-24
9.32601E-04 9.53445E-25
9.86636E-04 8.34551E-25
1.04219E-03 7.32291E-25
1.09927E-03 6.44043E-25
1.15786E-03 5.67649E-25
1.21797E-03 5.01323E-25
1.27961E-03 4.43577E-25
1.34276E-03 3.93172E-25
1.40743E-03 3.49065E-25
1.47362E-03 3.10381E-25
1.54133E-03 2.76380E-25
1.61056E-03 2.46432E-25
1.68131E-03 2.20004E-25
1.75357E-03 1.96640E-25
1.82735E-03 1.75948E-25
1.90265E-03 1.57593E-25
1.97947E-03 1.41286E-25
2.05780E-03 1.26778E-25
2.13765E-03 1.13852E-25
2.21902E-03 1.02322E-25
2.30190E-03 9.20232E-26
2.38630E-03 8.28147E-26
2.47222E-03 7.45718E-26
2.55965E-03 6.71859E-26
2.64859E-03 6.05616E-26
2.73905E-03 5.46149E-26
2.83103E-03 4.92722E-26
2.92452E-03 4.44684E-26
3.01952E-03 4.01459E-26
3.11604E-03 3.62538E-26
3.21407E-03 3.27471E-26
3.31362E-03 2.95858E-26
3.41468E-03 2.67342E-26
3.51725E-03 2.41608E-26
3.62133E-03 2.18374E-26
3.72692E-03 1.97387E-26
3.83403E-03 1.78424E-26
3.94265E-03 1.61283E-26
4.05278E-03 1.45785E-26
4.16442E-03 1.31768E-26
4.27757E-03 1.19088E-26
4.39223E-03 1.07615E-26
4.50840E-03 9.72328E-27
4.62608E-03 8.78361E-27
4.74527E-03 7.93305E-27
4.86597E-03 7.16311E-27
4.98817E-03 6.46613E-27
5.11188E-03 5.83518E-27
5.23711E-03 5.26404E-27
5.36383E-03 4.74706E-27
5.49207E-03 4.27916E-27
5.62181E-03 3.85571E-27
5.75306E-03 3.47257E-27
5.88581E-03 3.12595E-27
6.02007E-03 2.81245E-27
6.15583E-03 2.52896E-27
6.29310E-03 2.27269E-27
6.43187E-03 2.04110E-27
6.57214E-03 1.83188E-27
6.71392E-03 1.64294E-27
6.85720E-03 1.47238E-27
7.00198E-03 1.31849E-27
7.14827E-03 1.17971E-27
7.29605E-03 1.05461E-27
7.44534E-03 9.41903E-28
7.59612E-03 8.40430E-28
7.97965E-03 6.29150E-28
8.37255E-03 4.67597E-28
8.77480E-03 3.44698E-28
9.18641E-03 2.51758E-28
9.60736E-03 1.81954E-28
1.00376E-02 1.29944E-28
1.04773E-02 9.15500E-29
1.09262E-02 6.35154E-29
1.13844E-02 4.33084E-29
1.18520E-02 2.89687E-29
1.23288E-02 1.89853E-29
1.28150E-02 1.21999E-29
1.33104E-02 7.73015E-30
1.38150E-02 4.90894E-30
1.43290E-02 3.23648E-30
1.48521E-02 2.34230E-30
1.53845E-02 1.95541E-30
1.59262E-02 1.88078E-30
1.64770E-02 1.98092E-30
1.70371E-02 2.16157E-30
1.76063E-02 2.36047E-30
1.81848E-02 2.53878E-30
1.87724E-02 2.67446E-30
1.93692E-02 2.75727E-30
1.99751E-02 2.78493E-30
2.05901E-02 2.76035E-30
2.12143E-02 2.68955E-30
2.18476E-02 2.58018E-30
2.24900E-02 2.44047E-30
2.31415E-02 2.27853E-30
2.38021E-02 2.10190E-30
2.44717E-02 1.91729E-30
2.51504E-02 1.73045E-30
2.58382E-02 1.54610E-30
2.65349E-02 1.36801E-30
2.72407E-02 1.19903E-30
2.79555E-02 1.04119E-30
2.86793E-02 8.95828E-31
2.94120E-02 7.63661E-31
3.01537E-02 6.44926E-31
3.09043E-02 5.39461E-31
3.16639E-02 4.46800E-31
3.24324E-02 3.66253E-31
3.32098E-02 2.96975E-31
3.39961E-02 2.38022E-31
3.47912E-02 1.88399E-31
3.55952E-02 1.47101E-31
3.64081E-02 1.13141E-31
3.72297E-02 8.55715E-32
3.80602E-02 6.35035E-32
3.88995E-02 4.61149E-32
3.97476E-02 3.26581E-32
4.06044E-02 2.24627E-32
4.14700E-02 1.49353E-32
4.23443E-02 9.55745E-33
4.32273E-02 5.88183E-33
4.41190E-02 3.52760E-33
4.50194E-02 2.17469E-33
4.59284E-02 1.55788E-33
4.68461E-02 1.46078E-33
4.87074E-02 2.16852E-33
5.06030E-02 3.32226E-33
5.25328E-02 4.37670E-33
5.44967E-02 5.07939E-33
5.64946E-02 5.36309E-33
5.85262E-02 5.26624E-33
6.05914E-02 4.87740E-33
6.26901E-02 4.29925E-33
6.48222E-02 3.62721E-33
6.69873E-02 2.93881E-33
6.91854E-02 2.29005E-33
7.14163E-02 1.71614E-33
7.36799E-02 1.23471E-33
7.59760E-02 8.49828E-34
7.83043E-02 5.56212E-34
8.06647E-02 3.42856E-34
8.30571E-02 1.96017E-34
8.54812E-02 1.01396E-34
8.79369E-02 4.56019E-35
9.04240E-02 1.70096E-35
9.29422E-02 6.14078E-36
9.54915E-02 5.71078E-36
9.80716E-02 1.04555E-35
1.00682E-01 1.68357E-35
1.03323E-01 2.26932E-35
1.05995E-01 2.69068E-35
1.08696E-01 2.90830E-35
1.11427E-01 2.92952E-35
1.14188E-01 2.78803E-35
1.16978E-01 2.52882E-35
1.19797E-01 2.19806E-35
1.22645E-01 1.83684E-35
1.25522E-01 1.47802E-35
1.28428E-01 1.14520E-35
1.31361E-01 8.53204E-36
1.34323E-01 6.09308E-36
1.37313E-01 4.14865E-36
1.40330E-01 2.67029E-36
1.43375E-01 1.60286E-36
1.46447E-01 8.77621E-37
1.49545E-01 4.22335E-37
1.52671E-01 1.68376E-37
1.55823E-01 5.52188E-38
1.59001E-01 3.27306E-38
1.62205E-01 6.17911E-38
1.65435E-01 1.13758E-37
1.68690E-01 1.69159E-37
1.71970E-01 2.16086E-37
1.75276E-01 2.48455E-37
1.78606E-01 2.64410E-37
1.81961E-01 2.64891E-37
1.85340E-01 2.52481E-37
1.88743E-01 2.30545E-37
1.92169E-01 2.02567E-37
1.95619E-01 1.71713E-37
1.99092E-01 1.40619E-37
2.02589E-01 1.11258E-37
2.06107E-01 8.49608E-38
2.09649E-01 6.24622E-38
2.13212E-01 4.40230E-38
2.16797E-01 2.95411E-38
2.20404E-01 1.86716E-38
2.24032E-01 1.09268E-38
2.27680E-01 5.75415E-39
2.31350E-01 1.00000E-45
2.35040E-01 1.00000E-45
2.38751E-01 1.00000E-45
2.42481E-01 1.00000E-45
2.46231E-01 1.00000E-45
2.50000E-01 1.00000E-45
2.53788E-01 1.00000E-45
2.57595E-01 1.00000E-45
2.61421E-01 1.00000E-45
2.65264E-01 1.00000E-45
2.69126E-01 1.00000E-45
2.73005E-01 1.00000E-45
2.76901E-01 1.00000E-45
2.80814E-01 1.00000E-45
2.84744E-01 1.00000E-45
2.88691E-01 1.00000E-45
2.92653E-01 1.00000E-45
2.96632E-01 1.00000E-45
3.00625E-01 1.00000E-45
3.04634E-01 1.00000E-45
3.08658E-01 1.00000E-45
3.12697E-01 1.00000E-45
3.16749E-01 1.00000E-45
3.20816E-01 1.00000E-45
3.24896E-01 1.00000E-45
3.28990E-01 1.00000E-45
3.33097E-01 1.00000E-45
3.37216E-01 1.00000E-45
3.41348E-01 1.00000E-45
3.45492E-01 1.00000E-45
3.49647E-01 1.00000E-45
3.53814E-01 1.00000E-45
3.57992E-01 1.00000E-45
3.62181E-01 1.00000E-45
3.66381E-01 1.00000E-45
3.70590E-01 1.00000E-45
3.74810E-01 1.00000E-45
3.79039E-01 1.00000E-45
3.83277E-01 1.00000E-45
3.87524E-01 1.00000E-45
3.91780E-01 1.00000E-45
3.96044E-01 1.00000E-45
4.00316E-01 1.00000E-45
4.04596E-01 1.00000E-45
4.08882E-01 1.00000E-45
4.13176E-01 1.00000E-45
4.17476E-01 1.00000E-45
4.21783E-01 1.00000E-45
4.26095E-01 1.00000E-45
4.30413E-01 1.00000E-45
4.34737E-01 1.00000E-45
4.39065E-01 1.00000E-45
4.43398E-01 1.00000E-45
4.47736E-01 1.00000E-45
4.52077E-01 1.00000E-45
4.56422E-01 1.00000E-45
4.60770E-01 1.00000E-45
4.65122E-01 1.00000E-45
4.69476E-01 1.00000E-45
4.73832E-01 1.00000E-45
4.78190E-01 1.00000E-45
4.82550E-01 1.00000E-45
4.86912E-01 1.00000E-45
4.91274E-01 1.00000E-45
4.95637E-01 1.00000E-45
5.00000E-01 1.00000E-45
5.04363E-01 1.00000E-45
5.08726E-01 1.00000E-45
5.13088E-01 1.00000E-45
5.17450E-01 1.00000E-45
5.21810E-01 1.00000E-45
5.26168E-01 1.00000E-45
5.30524E-01 1.00000E-45
5.34878E-01 1.00000E-45
5.39230E-01 1.00000E-45
5.43578E-01 1.00000E-45
5.47923E-01 1.00000E-45
5.52264E-01 1.00000E-45
5.56602E-01 1.00000E-45
5.60935E-01 1.00000E-45
5.65263E-01 1.00000E-45
5.69587E-01 1.00000E-45
5.73905E-01 1.00000E-45
5.78217E-01 1.00000E-45
5.82524E-01 1.00000E-45
5.86824E-01 1.00000E-45
5.91118E-01 1.00000E-45
5.95404E-01 1.00000E-45
5.99684E-01 1.00000E-45
6.03956E-01 1.00000E-45
6.08220E-01 1.00000E-45
6.12476E-01 1.00000E-45
6.16723E-01 1.00000E-45
6.20961E-01 1.00000E-45
6.25190E-01 1.00000E-45
6.29410E-01 1.00000E-45
6.33619E-01 1.00000E-45
6.37819E-01 1.00000E-45
6.42008E-01 1.00000E-45
6.46186E-01 1.00000E-45
6.50353E-01 1.00000E-45
6.54508E-01 1.00000E-45
6.58652E-01 1.00000E-45
6.62784E-01 1.00000E-45
6.66903E-01 1.00000E-45
6.71010E-01 1.00000E-45
6.75104E-01 1.00000E-45
6.79184E-01 1.00000E-45
6.83251E-01 1.00000E-45
6.87303E-01 1.00000E-45
6.91342E-01 1.00000E-45
6.95366E-01 1.00000E-45
6.99375E-01 1.00000E-45
7.03368E-01 1.00000E-45
7.07347E-01 1.00000E-45
7.11309E-01 1.00000E-45
7.15256E-01 1.00000E-45
7.19186E-01 1.00000E-45
7.23099E-01 1.00000E-45
7.26995E-01 1.00000E-45
7.30874E-01 1.00000E-45
7.34736E-01 1.00000E-45
7.38579E-01 1.00000E-45
7.42405E-01 1.00000E-45
7.46212E-01 1.00000E-45
7.50000E-01 1.00000E-45
7.53769E-01 1.00000E-45
7.57519E-01 1.00000E-45
7.61249E-01 1.00000E-45
7.64960E-01 1.00000E-45
7.68650E-01 1.00000E-45
7.72320E-01 1.00000E-45
7.75968E-01 1.00000E-45
7.79596E-01 1.00000E-45
7.83203E-01 1.00000E-45
7.86788E-01 1.00000E-45
7.90351E-01 1.00000E-45
7.93893E-01 1.00000E-45
7.97411E-01 1.00000E-45
8.00908E-01 1.00000E-45
8.04381E-01 1.00000E-45
8.07831E-01 1.00000E-45
8.11257E-01 1.00000E-45
8.14660E-01 1.00000E-45
8.18039E-01 1.00000E-45
8.21394E-01 1.00000E-45
8.24724E-01 1.00000E-45
8.28030E-01 1.00000E-45
8.31310E-01 1.00000E-45
8.34565E-01 1.00000E-45
8.37795E-01 1.00000E-45
8.40999E-01 1.00000E-45
8.44177E-01 1.00000E-45
8.47329E-01 1.00000E-45
8.50455E-01 1.00000E-45
8.53553E-01 1.00000E-45
8.56625E-01 1.00000E-45
8.59670E-01 1.00000E-45
8.62687E-01 1.00000E-45
8.65677E-01 1.00000E-45
8.68639E-01 1.00000E-45
8.71572E-01 1.00000E-45
8.74478E-01 1.00000E-45
8.77355E-01 1.00000E-45
8.80203E-01 1.00000E-45
8.83022E-01 1.00000E-45
8.85812E-01 1.00000E-45
8.88573E-01 1.00000E-45
8.91304E-01 1.00000E-45
8.94005E-01 1.00000E-45
8.96677E-01 1.00000E-45
8.99318E-01 1.00000E-45
9.01928E-01 1.00000E-45
9.04508E-01 1.00000E-45
9.07058E-01 1.00000E-45
9.09576E-01 1.00000E-45
9.12063E-01 1.00000E-45
9.14519E-01 1.00000E-45
9.16943E-01 1.00000E-45
9.19335E-01 1.00000E-45
9.21696E-01 1.00000E-45
9.24024E-01 1.00000E-45
9.26320E-01 1.00000E-45
9.28584E-01 1.00000E-45
9.30815E-01 1.00000E-45
9.33013E-01 1.00000E-45
9.35178E-01 1.00000E-45
9.37310E-01 1.00000E-45
9.39409E-01 1.00000E-45
9.41474E-01 1.00000E-45
9.43505E-01 1.00000E-45
9.45503E-01 1.00000E-45
9.47467E-01 1.00000E-45
9.49397E-01 1.00000E-45
9.51293E-01 1.00000E-45
9.53154E-01 1.00000E-45
9.54981E-01 1.00000E-45
9.56773E-01 1.00000E-45
9.58530E-01 1.00000E-45
9.60252E-01 1.00000E-45
9.61940E-01 1.00000E-45
9.63592E-01 1.00000E-45
9.65209E-01 1.00000E-45
9.66790E-01 1.00000E-45
9.68336E-01 1.00000E-45
9.69846E-01 1.00000E-45
9.71321E-01 1.00000E-45
9.72759E-01 1.00000E-45
9.74162E-01 1.00000E-45
9.75528E-01 1.00000E-45
9.76858E-01 1.00000E-45
9.78152E-01 1.00000E-45
9.79410E-01 1.00000E-45
9.80631E-01 1.00000E-45
9.81815E-01 1.00000E-45
9.82963E-01 1.00000E-45
9.84074E-01 1.00000E-45
9.85148E-01 1.00000E-45
9.86185E-01 1.00000E-45
9.87185E-01 1.00000E-45
9.88148E-01 1.00000E-45
9.89074E-01 1.00000E-45
9.89962E-01 1.00000E-45
9.90814E-01 1.00000E-45
9.91627E-01 1.00000E-45
9.92404E-01 1.00000E-45
9.93143E-01 1.00000E-45
9.93844E-01 1.00000E-45
9.94508E-01 1.00000E-45
9.95134E-01 1.00000E-45
9.95722E-01 1.00000E-45
9.96273E-01 1.00000E-45
9.96786E-01 1.00000E-45
9.97261E-01 1.00000E-45
9.97698E-01 1.00000E-45
9.98097E-01 1.00000E-45
9.98459E-01 1.00000E-45
9.98782E-01 1.00000E-45
9.99067E-01 1.00000E-45
9.99315E-01 1.00000E-45
9.99524E-01 1.00000E-45
9.99695E-01 1.00000E-45
9.99829E-01 1.00000E-45
9.99924E-01 1.00000E-45
9.99981E-01 1.00000E-45
1.00000E+00 1.00000E-45
