 #
 # Subroutine ELSEPA. Elastic scattering of electrons and positrons
 #                    by neutral atoms and positive ions
 #
 # Projectile: electron
 # Kinetic energy = 2.00000E+07 eV = 7.34987E+05 a.u.
 #
 # WARNING: High-energy factorization with free-atom DF screening.
 #          Absorption, polarization and exchange corrections are
 #          switched off.
 #          Phase shifts are calculated for the bare nucleus.
 #          Scattering amplitudes are not evaluated.
 #
 # Element:  P,  Z =  15,  atomic weight = 3.09738E+01 g/mol
 #
 # Nuclear model: Fermi distribution
 #                Average radius = 3.36033E-13 cm
 #                Skin thickness = 5.46000E-14 cm
 #
 # Number of electrons = 15
 #
 # Total elastic cross section = 9.76236E-19 cm**2 = 3.48620E-02 a0**2
 # 1st transport cross section = 1.01460E-24 cm**2 = 3.62319E-08 a0**2
 # 2nd transport cross section = 2.93232E-24 cm**2 = 1.04715E-07 a0**2
 #
 #
 # Differential cross section:                       MU=(1-COS(THETA))/2
 #
 #  THETA        MU          DCS          DCS        Sherman      error
 #  (deg)                 (cm**2/sr)   (a0**2/sr)    function
 #----------------------------------------------------------------------
0.00000E+00 4.82970E-12
7.61557E-13 4.82922E-12
1.18994E-12 4.82896E-12
1.71346E-12 4.82865E-12
2.33225E-12 4.82827E-12
3.04617E-12 4.82784E-12
3.85530E-12 4.82735E-12
4.75964E-12 4.82681E-12
5.75917E-12 4.82620E-12
6.85391E-12 4.82554E-12
8.04379E-12 4.82483E-12
9.32893E-12 4.82406E-12
1.07092E-11 4.82323E-12
1.21847E-11 4.82234E-12
1.37554E-11 4.82140E-12
1.54213E-11 4.82040E-12
1.71823E-11 4.81934E-12
1.90386E-11 4.81823E-12
2.09900E-11 4.81706E-12
2.30367E-11 4.81584E-12
2.51785E-11 4.81456E-12
2.74156E-11 4.81322E-12
2.97478E-11 4.81182E-12
3.21752E-11 4.81037E-12
3.46979E-11 4.80887E-12
3.73157E-11 4.80731E-12
4.00286E-11 4.80569E-12
4.28368E-11 4.80401E-12
4.57402E-11 4.80228E-12
4.87388E-11 4.80050E-12
5.18325E-11 4.79866E-12
5.50215E-11 4.79676E-12
5.83057E-11 4.79481E-12
6.16850E-11 4.79280E-12
6.51595E-11 4.79074E-12
6.87293E-11 4.78862E-12
7.23943E-11 4.78645E-12
7.61544E-11 4.78423E-12
1.18991E-10 4.75896E-12
1.71347E-10 4.72835E-12
2.33223E-10 4.69254E-12
3.04617E-10 4.65168E-12
3.85531E-10 4.60602E-12
4.75965E-10 4.55568E-12
5.75917E-10 4.50099E-12
6.85389E-10 4.44211E-12
8.04380E-10 4.37936E-12
9.32891E-10 4.31298E-12
1.07092E-09 4.24323E-12
1.21847E-09 4.17049E-12
1.37554E-09 4.09486E-12
1.54213E-09 4.01687E-12
1.71823E-09 3.93655E-12
1.90386E-09 3.85442E-12
2.09900E-09 3.77060E-12
2.30367E-09 3.68546E-12
2.51785E-09 3.59925E-12
2.74156E-09 3.51217E-12
2.97478E-09 3.42463E-12
3.21752E-09 3.33660E-12
3.46978E-09 3.24863E-12
3.73156E-09 3.15925E-12
4.00286E-09 3.06716E-12
4.28368E-09 2.97738E-12
4.57402E-09 2.88999E-12
4.87388E-09 2.80506E-12
5.18326E-09 2.72264E-12
5.50215E-09 2.64277E-12
5.83057E-09 2.56217E-12
6.16850E-09 2.47769E-12
6.51596E-09 2.39623E-12
6.87293E-09 2.31775E-12
7.23942E-09 2.24220E-12
7.61544E-09 2.16952E-12
1.18991E-08 1.52541E-12
1.71347E-08 1.05636E-12
2.33223E-08 7.33947E-13
3.04617E-08 5.15432E-13
3.85531E-08 3.69501E-13
4.75965E-08 2.70794E-13
5.75917E-08 2.03349E-13
6.85389E-08 1.56320E-13
8.04380E-08 1.22827E-13
9.32891E-08 9.84352E-14
1.07092E-07 8.02497E-14
1.21847E-07 6.64116E-14
1.37554E-07 5.56535E-14
1.54213E-07 4.71526E-14
1.71823E-07 4.02997E-14
1.90386E-07 3.47130E-14
2.09900E-07 3.00884E-14
2.30367E-07 2.62246E-14
2.51785E-07 2.29664E-14
2.74156E-07 2.01933E-14
2.97478E-07 1.78239E-14
3.21752E-07 1.57784E-14
3.46978E-07 1.40128E-14
3.73156E-07 1.24659E-14
4.00286E-07 1.11087E-14
4.28368E-07 9.94882E-15
4.57402E-07 8.92365E-15
4.87388E-07 8.01231E-15
5.18325E-07 7.22363E-15
5.50215E-07 6.51413E-15
5.83057E-07 5.88695E-15
6.16850E-07 5.33838E-15
6.51596E-07 4.83900E-15
6.87293E-07 4.39861E-15
7.23942E-07 4.00795E-15
7.61543E-07 3.65312E-15
1.18991E-06 1.58786E-15
1.71347E-06 7.89005E-16
2.33223E-06 4.35348E-16
3.04617E-06 2.60218E-16
3.85531E-06 1.65409E-16
4.75964E-06 1.10333E-16
5.75916E-06 7.64766E-17
6.85388E-06 5.47005E-17
8.04378E-06 4.01609E-17
9.32888E-06 3.01455E-17
1.07092E-05 2.30633E-17
1.21846E-05 1.79398E-17
1.37553E-05 1.41599E-17
1.54212E-05 1.13224E-17
1.71822E-05 9.15923E-18
1.90385E-05 7.48664E-18
2.09899E-05 6.17863E-18
2.30365E-05 5.14344E-18
2.51783E-05 4.31562E-18
2.74153E-05 3.64730E-18
2.97475E-05 3.10310E-18
3.21749E-05 2.65643E-18
3.46974E-05 2.28711E-18
3.73152E-05 1.97967E-18
4.00281E-05 1.72214E-18
4.28362E-05 1.50510E-18
4.57395E-05 1.32115E-18
4.87380E-05 1.16443E-18
5.18317E-05 1.03024E-18
5.50205E-05 9.14797E-19
5.83045E-05 8.15055E-19
6.16838E-05 7.28529E-19
6.51582E-05 6.53171E-19
6.87277E-05 5.87306E-19
7.23925E-05 5.29532E-19
7.61524E-05 4.78685E-19
9.21439E-05 3.27306E-19
1.09658E-04 2.31286E-19
1.28695E-04 1.68033E-19
1.49255E-04 1.24995E-19
1.71338E-04 9.48967E-20
1.94942E-04 7.33376E-20
2.20070E-04 5.75680E-20
2.46720E-04 4.58196E-20
2.74892E-04 3.69214E-20
3.04586E-04 3.00829E-20
3.35803E-04 2.47571E-20
3.68542E-04 2.05593E-20
4.02802E-04 1.72152E-20
4.38585E-04 1.45244E-20
4.75889E-04 1.23397E-20
5.14715E-04 1.05509E-20
5.55063E-04 9.07504E-21
5.96931E-04 7.84858E-21
6.40321E-04 6.82259E-21
6.85233E-04 5.95903E-21
7.31665E-04 5.22794E-21
7.79618E-04 4.60570E-21
8.29092E-04 4.07339E-21
8.80086E-04 3.61587E-21
9.32601E-04 3.22086E-21
9.86636E-04 2.87839E-21
1.04219E-03 2.58029E-21
1.09927E-03 2.31982E-21
1.15786E-03 2.09144E-21
1.21797E-03 1.89050E-21
1.27961E-03 1.71315E-21
1.34276E-03 1.55613E-21
1.40743E-03 1.41671E-21
1.47362E-03 1.29258E-21
1.54133E-03 1.18176E-21
1.61056E-03 1.08257E-21
1.68131E-03 9.93593E-22
1.75357E-03 9.13576E-22
1.82735E-03 8.41463E-22
1.90265E-03 7.76333E-22
1.97947E-03 7.17391E-22
2.05780E-03 6.63944E-22
2.13765E-03 6.15388E-22
2.21902E-03 5.71195E-22
2.30190E-03 5.30904E-22
2.38630E-03 4.94106E-22
2.47222E-03 4.60446E-22
2.55965E-03 4.29607E-22
2.64859E-03 4.01310E-22
2.73905E-03 3.75308E-22
2.83103E-03 3.51380E-22
2.92452E-03 3.29331E-22
3.01952E-03 3.08987E-22
3.11604E-03 2.90192E-22
3.21407E-03 2.72806E-22
3.31362E-03 2.56704E-22
3.41468E-03 2.41774E-22
3.51725E-03 2.27916E-22
3.62133E-03 2.15037E-22
3.72692E-03 2.03057E-22
3.83403E-03 1.91900E-22
3.94265E-03 1.81500E-22
4.05278E-03 1.71796E-22
4.16442E-03 1.62733E-22
4.27757E-03 1.54260E-22
4.39223E-03 1.46333E-22
4.50840E-03 1.38909E-22
4.62608E-03 1.31950E-22
4.74527E-03 1.25422E-22
4.86597E-03 1.19294E-22
4.98817E-03 1.13535E-22
5.11188E-03 1.08121E-22
5.23711E-03 1.03026E-22
5.36383E-03 9.82277E-23
5.49207E-03 9.37060E-23
5.62181E-03 8.94419E-23
5.75306E-03 8.54179E-23
5.88581E-03 8.16180E-23
6.02007E-03 7.80273E-23
6.15583E-03 7.46322E-23
6.29310E-03 7.14200E-23
6.43187E-03 6.83790E-23
6.57214E-03 6.54984E-23
6.71392E-03 6.27680E-23
6.85720E-03 6.01787E-23
7.00198E-03 5.77217E-23
7.14827E-03 5.53889E-23
7.29605E-03 5.31730E-23
7.44534E-03 5.10670E-23
7.59612E-03 4.90643E-23
7.97965E-03 4.44712E-23
8.37255E-03 4.04040E-23
8.77480E-03 3.67917E-23
9.18641E-03 3.35748E-23
9.60736E-03 3.07023E-23
1.00376E-02 2.81309E-23
1.04773E-02 2.58234E-23
1.09262E-02 2.37480E-23
1.13844E-02 2.18772E-23
1.18520E-02 2.01872E-23
1.23288E-02 1.86575E-23
1.28150E-02 1.72701E-23
1.33104E-02 1.60095E-23
1.38150E-02 1.48619E-23
1.43290E-02 1.38154E-23
1.48521E-02 1.28595E-23
1.53845E-02 1.19849E-23
1.59262E-02 1.11835E-23
1.64770E-02 1.04480E-23
1.70371E-02 9.77206E-24
1.76063E-02 9.14992E-24
1.81848E-02 8.57655E-24
1.87724E-02 8.04742E-24
1.93692E-02 7.55849E-24
1.99751E-02 7.10615E-24
2.05901E-02 6.68717E-24
2.12143E-02 6.29862E-24
2.18476E-02 5.93789E-24
2.24900E-02 5.60263E-24
2.31415E-02 5.29070E-24
2.38021E-02 5.00018E-24
2.44717E-02 4.72933E-24
2.51504E-02 4.47657E-24
2.58382E-02 4.24048E-24
2.65349E-02 4.01974E-24
2.72407E-02 3.81317E-24
2.79555E-02 3.61970E-24
2.86793E-02 3.43833E-24
2.94120E-02 3.26818E-24
3.01537E-02 3.10842E-24
3.09043E-02 2.95830E-24
3.16639E-02 2.81712E-24
3.24324E-02 2.68425E-24
3.32098E-02 2.55912E-24
3.39961E-02 2.44119E-24
3.47912E-02 2.32997E-24
3.55952E-02 2.22500E-24
3.64081E-02 2.12586E-24
3.72297E-02 2.03218E-24
3.80602E-02 1.94359E-24
3.88995E-02 1.85977E-24
3.97476E-02 1.78041E-24
4.06044E-02 1.70523E-24
4.14700E-02 1.63397E-24
4.23443E-02 1.56639E-24
4.32273E-02 1.50225E-24
4.41190E-02 1.44136E-24
4.50194E-02 1.38351E-24
4.59284E-02 1.32853E-24
4.68461E-02 1.27624E-24
4.87074E-02 1.17914E-24
5.06030E-02 1.09107E-24
5.25328E-02 1.01105E-24
5.44967E-02 9.38199E-25
5.64946E-02 8.71770E-25
5.85262E-02 8.11092E-25
6.05914E-02 7.55580E-25
6.26901E-02 7.04713E-25
6.48222E-02 6.58034E-25
6.69873E-02 6.15135E-25
6.91854E-02 5.75656E-25
7.14163E-02 5.39274E-25
7.36799E-02 5.05703E-25
7.59760E-02 4.74686E-25
7.83043E-02 4.45994E-25
8.06647E-02 4.19422E-25
8.30571E-02 3.94783E-25
8.54812E-02 3.71912E-25
8.79369E-02 3.50659E-25
9.04240E-02 3.30889E-25
9.29422E-02 3.12479E-25
9.54915E-02 2.95320E-25
9.80716E-02 2.79310E-25
1.00682E-01 2.64358E-25
1.03323E-01 2.50383E-25
1.05995E-01 2.37308E-25
1.08696E-01 2.25065E-25
1.11427E-01 2.13592E-25
1.14188E-01 2.02831E-25
1.16978E-01 1.92730E-25
1.19797E-01 1.83241E-25
1.22645E-01 1.74320E-25
1.25522E-01 1.65928E-25
1.28428E-01 1.58026E-25
1.31361E-01 1.50582E-25
1.34323E-01 1.43564E-25
1.37313E-01 1.36943E-25
1.40330E-01 1.30692E-25
1.43375E-01 1.24788E-25
1.46447E-01 1.19207E-25
1.49545E-01 1.13928E-25
1.52671E-01 1.08933E-25
1.55823E-01 1.04203E-25
1.59001E-01 9.97209E-26
1.62205E-01 9.54723E-26
1.65435E-01 9.14425E-26
1.68690E-01 8.76182E-26
1.71970E-01 8.39870E-26
1.75276E-01 8.05374E-26
1.78606E-01 7.72587E-26
1.81961E-01 7.41409E-26
1.85340E-01 7.11746E-26
1.88743E-01 6.83512E-26
1.92169E-01 6.56626E-26
1.95619E-01 6.31012E-26
1.99092E-01 6.06598E-26
2.02589E-01 5.83318E-26
2.06107E-01 5.61111E-26
2.09649E-01 5.39917E-26
2.13212E-01 5.19683E-26
2.16797E-01 5.00357E-26
2.20404E-01 4.81891E-26
2.24032E-01 4.64240E-26
2.27680E-01 4.47361E-26
2.31350E-01 4.31216E-26
2.35040E-01 4.15765E-26
2.38751E-01 4.00975E-26
2.42481E-01 3.86811E-26
2.46231E-01 3.73243E-26
2.50000E-01 3.60241E-26
2.53788E-01 3.47778E-26
2.57595E-01 3.35826E-26
2.61421E-01 3.24362E-26
2.65264E-01 3.13362E-26
2.69126E-01 3.02803E-26
2.73005E-01 2.92666E-26
2.76901E-01 2.82930E-26
2.80814E-01 2.73576E-26
2.84744E-01 2.64587E-26
2.88691E-01 2.55947E-26
2.92653E-01 2.47639E-26
2.96632E-01 2.39648E-26
3.00625E-01 2.31961E-26
3.04634E-01 2.24563E-26
3.08658E-01 2.17442E-26
3.12697E-01 2.10586E-26
3.16749E-01 2.03982E-26
3.20816E-01 1.97621E-26
3.24896E-01 1.91492E-26
3.28990E-01 1.85585E-26
3.33097E-01 1.79890E-26
3.37216E-01 1.74399E-26
3.41348E-01 1.69102E-26
3.45492E-01 1.63993E-26
3.49647E-01 1.59063E-26
3.53814E-01 1.54305E-26
3.57992E-01 1.49711E-26
3.62181E-01 1.45276E-26
3.66381E-01 1.40992E-26
3.70590E-01 1.36855E-26
3.74810E-01 1.32857E-26
3.79039E-01 1.28993E-26
3.83277E-01 1.25259E-26
3.87524E-01 1.21649E-26
3.91780E-01 1.18158E-26
3.96044E-01 1.14782E-26
4.00316E-01 1.11516E-26
4.04596E-01 1.08356E-26
4.08882E-01 1.05299E-26
4.13176E-01 1.02339E-26
4.17476E-01 9.94743E-27
4.21783E-01 9.67006E-27
4.26095E-01 9.40145E-27
4.30413E-01 9.14129E-27
4.34737E-01 8.88927E-27
4.39065E-01 8.64509E-27
4.43398E-01 8.40847E-27
4.47736E-01 8.17913E-27
4.52077E-01 7.95683E-27
4.56422E-01 7.74130E-27
4.60770E-01 7.53231E-27
4.65122E-01 7.32962E-27
4.69476E-01 7.13303E-27
4.73832E-01 6.94231E-27
4.78190E-01 6.75726E-27
4.82550E-01 6.57769E-27
4.86912E-01 6.40341E-27
4.91274E-01 6.23424E-27
4.95637E-01 6.07000E-27
5.00000E-01 5.91053E-27
5.04363E-01 5.75568E-27
5.08726E-01 5.60528E-27
5.13088E-01 5.45919E-27
5.17450E-01 5.31726E-27
5.21810E-01 5.17937E-27
5.26168E-01 5.04537E-27
5.30524E-01 4.91514E-27
5.34878E-01 4.78856E-27
5.39230E-01 4.66551E-27
5.43578E-01 4.54588E-27
5.47923E-01 4.42956E-27
5.52264E-01 4.31644E-27
5.56602E-01 4.20643E-27
5.60935E-01 4.09942E-27
5.65263E-01 3.99532E-27
5.69587E-01 3.89404E-27
5.73905E-01 3.79549E-27
5.78217E-01 3.69959E-27
5.82524E-01 3.60626E-27
5.86824E-01 3.51541E-27
5.91118E-01 3.42698E-27
5.95404E-01 3.34089E-27
5.99684E-01 3.25707E-27
6.03956E-01 3.17545E-27
6.08220E-01 3.09596E-27
6.12476E-01 3.01854E-27
6.16723E-01 2.94314E-27
6.20961E-01 2.86968E-27
6.25190E-01 2.79812E-27
6.29410E-01 2.72839E-27
6.33619E-01 2.66046E-27
6.37819E-01 2.59425E-27
6.42008E-01 2.52972E-27
6.46186E-01 2.46683E-27
6.50353E-01 2.40553E-27
6.54508E-01 2.34577E-27
6.58652E-01 2.28751E-27
6.62784E-01 2.23071E-27
6.66903E-01 2.17532E-27
6.71010E-01 2.12130E-27
6.75104E-01 2.06862E-27
6.79184E-01 2.01725E-27
6.83251E-01 1.96713E-27
6.87303E-01 1.91825E-27
6.91342E-01 1.87056E-27
6.95366E-01 1.82403E-27
6.99375E-01 1.77864E-27
7.03368E-01 1.73434E-27
7.07347E-01 1.69112E-27
7.11309E-01 1.64894E-27
7.15256E-01 1.60777E-27
7.19186E-01 1.56759E-27
7.23099E-01 1.52837E-27
7.26995E-01 1.49008E-27
7.30874E-01 1.45271E-27
7.34736E-01 1.41622E-27
7.38579E-01 1.38060E-27
7.42405E-01 1.34582E-27
7.46212E-01 1.31185E-27
7.50000E-01 1.27869E-27
7.53769E-01 1.24630E-27
7.57519E-01 1.21467E-27
7.61249E-01 1.18378E-27
7.64960E-01 1.15361E-27
7.68650E-01 1.12414E-27
7.72320E-01 1.09535E-27
7.75968E-01 1.06723E-27
7.79596E-01 1.03976E-27
7.83203E-01 1.01292E-27
7.86788E-01 9.86707E-28
7.90351E-01 9.61091E-28
7.93893E-01 9.36064E-28
7.97411E-01 9.11610E-28
8.00908E-01 8.87716E-28
8.04381E-01 8.64368E-28
8.07831E-01 8.41553E-28
8.11257E-01 8.19258E-28
8.14660E-01 7.97470E-28
8.18039E-01 7.76178E-28
8.21394E-01 7.55369E-28
8.24724E-01 7.35033E-28
8.28030E-01 7.15158E-28
8.31310E-01 6.95733E-28
8.34565E-01 6.76748E-28
8.37795E-01 6.58192E-28
8.40999E-01 6.40056E-28
8.44177E-01 6.22331E-28
8.47329E-01 6.05005E-28
8.50455E-01 5.88072E-28
8.53553E-01 5.71521E-28
8.56625E-01 5.55343E-28
8.59670E-01 5.39532E-28
8.62687E-01 5.24078E-28
8.65677E-01 5.08973E-28
8.68639E-01 4.94210E-28
8.71572E-01 4.79781E-28
8.74478E-01 4.65679E-28
8.77355E-01 4.51897E-28
8.80203E-01 4.38427E-28
8.83022E-01 4.25264E-28
8.85812E-01 4.12400E-28
8.88573E-01 3.99830E-28
8.91304E-01 3.87546E-28
8.94005E-01 3.75543E-28
8.96677E-01 3.63816E-28
8.99318E-01 3.52357E-28
9.01928E-01 3.41163E-28
9.04508E-01 3.30227E-28
9.07058E-01 3.19544E-28
9.09576E-01 3.09109E-28
9.12063E-01 2.98917E-28
9.14519E-01 2.88963E-28
9.16943E-01 2.79243E-28
9.19335E-01 2.69752E-28
9.21696E-01 2.60485E-28
9.24024E-01 2.51438E-28
9.26320E-01 2.42607E-28
9.28584E-01 2.33988E-28
9.30815E-01 2.25577E-28
9.33013E-01 2.17369E-28
9.35178E-01 2.09362E-28
9.37310E-01 2.01551E-28
9.39409E-01 1.93933E-28
9.41474E-01 1.86505E-28
9.43505E-01 1.79262E-28
9.45503E-01 1.72203E-28
9.47467E-01 1.65323E-28
9.49397E-01 1.58619E-28
9.51293E-01 1.52089E-28
9.53154E-01 1.45730E-28
9.54981E-01 1.39538E-28
9.56773E-01 1.33511E-28
9.58530E-01 1.27647E-28
9.60252E-01 1.21943E-28
9.61940E-01 1.16395E-28
9.63592E-01 1.11003E-28
9.65209E-01 1.05763E-28
9.66790E-01 1.00673E-28
9.68336E-01 9.57315E-29
9.69846E-01 9.09354E-29
9.71321E-01 8.62832E-29
9.72759E-01 8.17726E-29
9.74162E-01 7.74018E-29
9.75528E-01 7.31689E-29
9.76858E-01 6.90720E-29
9.78152E-01 6.51095E-29
9.79410E-01 6.12796E-29
9.80631E-01 5.75807E-29
9.81815E-01 5.40112E-29
9.82963E-01 5.05696E-29
9.84074E-01 4.72545E-29
9.85148E-01 4.40644E-29
9.86185E-01 4.09979E-29
9.87185E-01 3.80539E-29
9.88148E-01 3.52309E-29
9.89074E-01 3.25280E-29
9.89962E-01 2.99439E-29
9.90814E-01 2.74775E-29
9.91627E-01 2.51278E-29
9.92404E-01 2.28938E-29
9.93143E-01 2.07747E-29
9.93844E-01 1.87694E-29
9.94508E-01 1.68772E-29
9.95134E-01 1.50973E-29
9.95722E-01 1.34289E-29
9.96273E-01 1.18714E-29
9.96786E-01 1.04240E-29
9.97261E-01 9.08630E-30
9.97698E-01 7.85762E-30
9.98097E-01 6.73747E-30
9.98459E-01 5.72539E-30
9.98782E-01 4.82097E-30
9.99067E-01 4.02383E-30
9.99315E-01 3.33363E-30
9.99524E-01 2.75010E-30
9.99695E-01 2.27300E-30
9.99829E-01 1.90212E-30
9.99924E-01 1.63732E-30
9.99981E-01 1.47848E-30
1.00000E+00 1.42554E-30
