 #
 # Subroutine ELSEPA. Elastic scattering of electrons and positrons
 #                    by neutral atoms and positive ions
 #
 # Projectile: positron
 # Kinetic energy = 3.50000E+08 eV = 1.28623E+07 a.u.
 #
 # WARNING: High-energy factorization with free-atom DF screening.
 #          Absorption, polarization and exchange corrections are
 #          switched off.
 #          Phase shifts are calculated for the bare nucleus.
 #          Scattering amplitudes are not evaluated.
 #
 # Element: Ir,  Z =  77,  atomic weight = 1.92217E+02 g/mol
 #
 # Nuclear model: Fermi distribution
 #                Average radius = 6.17515E-13 cm
 #                Skin thickness = 5.46000E-14 cm
 #
 # Number of electrons = 77
 #
 # Total elastic cross section = 7.74018E-18 cm**2 = 2.76407E-01 a0**2
 # 1st transport cross section = 9.02492E-26 cm**2 = 3.22286E-09 a0**2
 # 2nd transport cross section = 2.70526E-25 cm**2 = 9.66067E-09 a0**2
 #
 #
 # Differential cross section:                       MU=(1-COS(THETA))/2
 #
 #  THETA        MU          DCS          DCS        Sherman      error
 #  (deg)                 (cm**2/sr)   (a0**2/sr)    function
 #----------------------------------------------------------------------
0.00000E+00 6.02377E-09
7.61557E-13 5.87999E-09
1.18994E-12 5.80180E-09
1.71346E-12 5.70868E-09
2.33225E-12 5.60131E-09
3.04617E-12 5.48275E-09
3.85530E-12 5.35294E-09
4.75964E-12 5.21412E-09
5.75917E-12 5.06907E-09
6.85391E-12 4.91640E-09
8.04379E-12 4.76031E-09
9.32893E-12 4.60214E-09
1.07092E-11 4.44058E-09
1.21847E-11 4.28000E-09
1.37554E-11 4.12003E-09
1.54213E-11 3.96073E-09
1.71823E-11 3.80523E-09
1.90386E-11 3.65188E-09
2.09900E-11 3.50215E-09
2.30367E-11 3.35778E-09
2.51785E-11 3.21622E-09
2.74156E-11 3.08010E-09
2.97478E-11 2.94966E-09
3.21752E-11 2.82263E-09
3.46979E-11 2.70164E-09
3.73157E-11 2.58575E-09
4.00286E-11 2.47408E-09
4.28368E-11 2.36811E-09
4.57402E-11 2.26651E-09
4.87388E-11 2.16939E-09
5.18325E-11 2.07741E-09
5.50215E-11 1.98903E-09
5.83057E-11 1.90507E-09
6.16850E-11 1.82561E-09
6.51595E-11 1.74908E-09
6.87293E-11 1.67670E-09
7.23943E-11 1.60792E-09
7.61544E-11 1.54200E-09
1.18991E-10 1.03469E-09
1.71347E-10 7.16487E-10
2.33223E-10 5.04132E-10
3.04617E-10 3.71580E-10
3.85531E-10 2.76768E-10
4.75965E-10 2.11003E-10
5.75917E-10 1.64595E-10
6.85389E-10 1.29366E-10
8.04380E-10 1.03588E-10
9.32891E-10 8.41079E-11
1.07092E-09 6.87447E-11
1.21847E-09 5.68993E-11
1.37554E-09 4.74586E-11
1.54213E-09 3.98129E-11
1.71823E-09 3.36866E-11
1.90386E-09 2.86230E-11
2.09900E-09 2.44544E-11
2.30367E-09 2.10258E-11
2.51785E-09 1.81290E-11
2.74156E-09 1.57161E-11
2.97478E-09 1.36914E-11
3.21752E-09 1.19626E-11
3.46978E-09 1.05036E-11
3.73156E-09 9.25863E-12
4.00286E-09 8.18928E-12
4.28368E-09 7.27425E-12
4.57402E-09 6.48467E-12
4.87388E-09 5.79714E-12
5.18326E-09 5.19962E-12
5.50215E-09 4.67740E-12
5.83057E-09 4.22112E-12
6.16850E-09 3.82119E-12
6.51596E-09 3.46780E-12
6.87293E-09 3.15583E-12
7.23942E-09 2.87911E-12
7.61544E-09 2.63210E-12
1.18991E-08 1.18708E-12
1.71347E-08 6.12832E-13
2.33223E-08 3.47163E-13
3.04617E-08 2.11105E-13
3.85531E-08 1.35615E-13
4.75965E-08 9.10571E-14
5.75917E-08 6.33486E-14
6.85389E-08 4.54326E-14
8.04380E-08 3.34233E-14
9.32891E-08 2.51355E-14
1.07092E-07 1.92684E-14
1.21847E-07 1.50173E-14
1.37554E-07 1.18785E-14
1.54213E-07 9.51845E-15
1.71823E-07 7.71654E-15
1.90386E-07 6.32157E-15
2.09900E-07 5.22750E-15
2.30367E-07 4.36015E-15
2.51785E-07 3.66511E-15
2.74156E-07 3.10303E-15
2.97478E-07 2.64457E-15
3.21752E-07 2.26754E-15
3.46978E-07 1.95531E-15
3.73156E-07 1.69492E-15
4.00286E-07 1.47642E-15
4.28368E-07 1.29199E-15
4.57402E-07 1.13544E-15
4.87388E-07 1.00189E-15
5.18325E-07 8.87385E-16
5.50215E-07 7.88775E-16
5.83057E-07 7.03486E-16
6.16850E-07 6.29410E-16
6.51596E-07 5.64835E-16
6.87293E-07 5.08329E-16
7.23942E-07 4.58716E-16
7.61543E-07 4.15011E-16
1.18991E-06 1.71531E-16
1.71347E-06 8.32338E-17
2.33223E-06 4.51265E-17
3.04617E-06 2.65380E-17
3.85531E-06 1.66074E-17
4.75964E-06 1.09157E-17
5.75916E-06 7.46579E-18
6.85388E-06 5.27686E-18
8.04378E-06 3.83421E-18
9.32888E-06 2.85237E-18
1.07092E-05 2.16551E-18
1.21846E-05 1.67341E-18
1.37553E-05 1.31343E-18
1.54212E-05 1.04521E-18
1.71822E-05 8.42058E-19
1.90385E-05 6.85532E-19
2.09899E-05 5.64413E-19
2.30365E-05 4.68805E-19
2.51783E-05 3.92484E-19
2.74153E-05 3.30984E-19
2.97475E-05 2.81021E-19
3.21749E-05 2.40132E-19
3.46974E-05 2.06433E-19
3.73152E-05 1.78466E-19
4.00281E-05 1.55096E-19
4.28362E-05 1.35436E-19
4.57395E-05 1.18792E-19
4.87380E-05 1.04621E-19
5.18317E-05 9.24928E-20
5.50205E-05 8.20664E-20
5.83045E-05 7.30658E-20
6.16838E-05 6.52657E-20
6.51582E-05 5.84808E-20
6.87277E-05 5.25565E-20
7.23925E-05 4.73649E-20
7.61524E-05 4.30604E-20
9.21439E-05 2.94252E-20
1.09658E-04 2.07841E-20
1.28695E-04 1.50961E-20
1.49255E-04 1.12267E-20
1.71338E-04 8.52142E-21
1.94942E-04 6.58372E-21
2.20070E-04 5.16658E-21
2.46720E-04 4.11028E-21
2.74892E-04 3.31022E-21
3.04586E-04 2.69530E-21
3.35803E-04 2.21641E-21
3.68542E-04 1.83897E-21
4.02802E-04 1.53825E-21
4.38585E-04 1.29629E-21
4.75889E-04 1.09983E-21
5.14715E-04 9.38997E-22
5.55063E-04 8.06307E-22
5.96931E-04 6.96063E-22
6.40321E-04 6.03864E-22
6.85233E-04 5.26284E-22
7.31665E-04 4.60635E-22
7.79618E-04 4.04784E-22
8.29092E-04 3.57035E-22
8.80086E-04 3.16019E-22
9.32601E-04 2.80634E-22
9.86636E-04 2.49981E-22
1.04219E-03 2.23322E-22
1.09927E-03 2.00054E-22
1.15786E-03 1.79674E-22
1.21797E-03 1.61765E-22
1.27961E-03 1.45978E-22
1.34276E-03 1.32021E-22
1.40743E-03 1.19648E-22
1.47362E-03 1.08648E-22
1.54133E-03 9.88452E-23
1.61056E-03 9.00879E-23
1.68131E-03 8.22464E-23
1.75357E-03 7.52095E-23
1.82735E-03 6.88813E-23
1.90265E-03 6.31791E-23
1.97947E-03 5.80308E-23
2.05780E-03 5.33742E-23
2.13765E-03 4.91548E-23
2.21902E-03 4.53251E-23
2.30190E-03 4.18434E-23
2.38630E-03 3.86731E-23
2.47222E-03 3.57821E-23
2.55965E-03 3.31419E-23
2.64859E-03 3.07274E-23
2.73905E-03 2.85163E-23
2.83103E-03 2.64890E-23
2.92452E-03 2.46278E-23
3.01952E-03 2.29170E-23
3.11604E-03 2.13427E-23
3.21407E-03 1.98924E-23
3.31362E-03 1.85548E-23
3.41468E-03 1.73200E-23
3.51725E-03 1.61789E-23
3.62133E-03 1.51233E-23
3.72692E-03 1.41459E-23
3.83403E-03 1.32402E-23
3.94265E-03 1.24001E-23
4.05278E-03 1.16202E-23
4.16442E-03 1.08956E-23
4.27757E-03 1.02218E-23
4.39223E-03 9.59489E-24
4.50840E-03 9.01104E-24
4.62608E-03 8.46694E-24
4.74527E-03 7.95953E-24
4.86597E-03 7.48602E-24
4.98817E-03 7.04385E-24
5.11188E-03 6.63068E-24
5.23711E-03 6.24438E-24
5.36383E-03 5.88298E-24
5.49207E-03 5.54467E-24
5.62181E-03 5.22781E-24
5.75306E-03 4.93086E-24
5.88581E-03 4.65244E-24
6.02007E-03 4.39125E-24
6.15583E-03 4.14610E-24
6.29310E-03 3.91590E-24
6.43187E-03 3.69963E-24
6.57214E-03 3.49636E-24
6.71392E-03 3.30522E-24
6.85720E-03 3.12540E-24
7.00198E-03 2.95617E-24
7.14827E-03 2.79684E-24
7.29605E-03 2.64677E-24
7.44534E-03 2.50537E-24
7.59612E-03 2.37209E-24
7.97965E-03 2.07112E-24
8.37255E-03 1.81072E-24
8.77480E-03 1.58497E-24
9.18641E-03 1.38890E-24
9.60736E-03 1.21830E-24
1.00376E-02 1.06964E-24
1.04773E-02 9.39901E-25
1.09262E-02 8.26521E-25
1.13844E-02 7.27312E-25
1.18520E-02 6.40403E-25
1.23288E-02 5.64186E-25
1.28150E-02 4.97281E-25
1.33104E-02 4.38498E-25
1.38150E-02 3.86809E-25
1.43290E-02 3.41324E-25
1.48521E-02 3.01272E-25
1.53845E-02 2.65983E-25
1.59262E-02 2.34874E-25
1.64770E-02 2.07437E-25
1.70371E-02 1.83228E-25
1.76063E-02 1.61861E-25
1.81848E-02 1.42996E-25
1.87724E-02 1.26336E-25
1.93692E-02 1.11621E-25
1.99751E-02 9.86214E-26
2.05901E-02 8.71361E-26
2.12143E-02 7.69883E-26
2.18476E-02 6.80219E-26
2.24900E-02 6.00996E-26
2.31415E-02 5.31001E-26
2.38021E-02 4.69166E-26
2.44717E-02 4.14546E-26
2.51504E-02 3.66305E-26
2.58382E-02 3.23705E-26
2.65349E-02 2.86095E-26
2.72407E-02 2.52897E-26
2.79555E-02 2.23600E-26
2.86793E-02 1.97751E-26
2.94120E-02 1.74950E-26
3.01537E-02 1.54842E-26
3.09043E-02 1.37115E-26
3.16639E-02 1.21488E-26
3.24324E-02 1.07717E-26
3.32098E-02 9.55837E-27
3.39961E-02 8.48943E-27
3.47912E-02 7.54784E-27
3.55952E-02 6.71848E-27
3.64081E-02 5.98799E-27
3.72297E-02 5.34454E-27
3.80602E-02 4.77767E-27
3.88995E-02 4.27816E-27
3.97476E-02 3.83785E-27
4.06044E-02 3.44953E-27
4.14700E-02 3.10687E-27
4.23443E-02 2.80427E-27
4.32273E-02 2.53681E-27
4.41190E-02 2.30013E-27
4.50194E-02 2.09043E-27
4.59284E-02 1.90437E-27
4.68461E-02 1.73898E-27
4.87074E-02 1.46028E-27
5.06030E-02 1.23730E-27
5.25328E-02 1.05702E-27
5.44967E-02 9.09542E-28
5.64946E-02 7.87362E-28
5.85262E-02 6.84818E-28
6.05914E-02 5.97660E-28
6.26901E-02 5.22708E-28
6.48222E-02 4.57585E-28
6.69873E-02 4.00519E-28
6.91854E-02 3.50184E-28
7.14163E-02 3.05581E-28
7.36799E-02 2.65948E-28
7.59760E-02 2.30693E-28
7.83043E-02 1.99345E-28
8.06647E-02 1.71518E-28
8.30571E-02 1.46884E-28
8.54812E-02 1.25155E-28
8.79369E-02 1.06074E-28
9.04240E-02 8.94025E-29
9.29422E-02 7.49177E-29
9.54915E-02 6.24095E-29
9.80716E-02 5.16793E-29
1.00682E-01 4.25389E-29
1.03323E-01 3.48106E-29
1.05995E-01 2.83280E-29
1.08696E-01 2.29358E-29
1.11427E-01 1.84904E-29
1.14188E-01 1.48602E-29
1.16978E-01 1.19254E-29
1.19797E-01 9.57823E-30
1.22645E-01 7.72237E-30
1.25522E-01 6.27274E-30
1.28428E-01 5.15488E-30
1.31361E-01 4.30431E-30
1.34323E-01 3.66582E-30
1.37313E-01 3.19266E-30
1.40330E-01 2.84577E-30
1.43375E-01 2.59296E-30
1.46447E-01 2.40808E-30
1.49545E-01 2.27030E-30
1.52671E-01 2.16335E-30
1.55823E-01 2.07484E-30
1.59001E-01 1.99563E-30
1.62205E-01 1.91929E-30
1.65435E-01 1.84152E-30
1.68690E-01 1.75980E-30
1.71970E-01 1.67292E-30
1.75276E-01 1.58066E-30
1.78606E-01 1.48354E-30
1.81961E-01 1.38256E-30
1.85340E-01 1.27901E-30
1.88743E-01 1.17433E-30
1.92169E-01 1.06998E-30
1.95619E-01 9.67361E-31
1.99092E-01 8.67747E-31
2.02589E-01 7.72246E-31
2.06107E-01 6.81779E-31
2.09649E-01 5.97065E-31
2.13212E-01 5.18626E-31
2.16797E-01 4.46794E-31
2.20404E-01 3.81728E-31
2.24032E-01 3.23431E-31
2.27680E-01 2.71771E-31
2.31350E-01 2.26506E-31
2.35040E-01 1.87303E-31
2.38751E-01 1.53763E-31
2.42481E-01 1.25437E-31
2.46231E-01 1.01846E-31
2.50000E-01 8.24964E-32
2.53788E-01 6.68949E-32
2.57595E-01 5.45582E-32
2.61421E-01 4.50233E-32
2.65264E-01 3.78541E-32
2.69126E-01 3.26469E-32
2.73005E-01 2.90341E-32
2.76901E-01 2.66858E-32
2.80814E-01 2.53108E-32
2.84744E-01 2.46563E-32
2.88691E-01 2.45062E-32
2.92653E-01 2.46798E-32
2.96632E-01 2.50291E-32
3.00625E-01 2.54359E-32
3.04634E-01 2.58087E-32
3.08658E-01 2.60799E-32
3.12697E-01 2.62027E-32
3.16749E-01 2.61475E-32
3.20816E-01 2.58997E-32
3.24896E-01 2.54566E-32
3.28990E-01 2.48248E-32
3.33097E-01 2.40185E-32
3.37216E-01 2.30569E-32
3.41348E-01 2.19626E-32
3.45492E-01 2.07605E-32
3.49647E-01 1.94761E-32
3.53814E-01 1.81348E-32
3.57992E-01 1.67608E-32
3.62181E-01 1.53769E-32
3.66381E-01 1.40035E-32
3.70590E-01 1.26590E-32
3.74810E-01 1.13588E-32
3.79039E-01 1.01160E-32
3.83277E-01 8.94115E-33
3.87524E-01 7.84206E-33
3.91780E-01 6.82438E-33
3.96044E-01 5.89154E-33
4.00316E-01 5.04507E-33
4.04596E-01 4.28476E-33
4.08882E-01 3.60895E-33
4.13176E-01 3.01478E-33
4.17476E-01 2.49836E-33
4.21783E-01 2.05503E-33
4.26095E-01 1.67957E-33
4.30413E-01 1.36635E-33
4.34737E-01 1.10955E-33
4.39065E-01 9.03246E-34
4.43398E-01 7.41567E-34
4.47736E-01 6.18800E-34
4.52077E-01 5.29465E-34
4.56422E-01 4.68387E-34
4.60770E-01 4.30747E-34
4.65122E-01 4.12114E-34
4.69476E-01 4.08472E-34
4.73832E-01 4.16223E-34
4.78190E-01 4.32196E-34
4.82550E-01 4.53630E-34
4.86912E-01 4.78166E-34
4.91274E-01 5.03820E-34
4.95637E-01 5.28966E-34
5.00000E-01 5.52299E-34
5.04363E-01 5.72815E-34
5.08726E-01 5.89770E-34
5.13088E-01 6.02659E-34
5.17450E-01 6.11181E-34
5.21810E-01 6.15207E-34
5.26168E-01 6.14760E-34
5.30524E-01 6.09981E-34
5.34878E-01 6.01106E-34
5.39230E-01 5.88450E-34
5.43578E-01 5.72381E-34
5.47923E-01 5.53303E-34
5.52264E-01 5.31645E-34
5.56602E-01 5.07841E-34
5.60935E-01 4.82325E-34
5.65263E-01 4.55518E-34
5.69587E-01 4.27822E-34
5.73905E-01 3.99614E-34
5.78217E-01 3.71243E-34
5.82524E-01 3.43023E-34
5.86824E-01 3.15235E-34
5.91118E-01 2.88125E-34
5.95404E-01 2.61903E-34
5.99684E-01 2.36746E-34
6.03956E-01 2.12795E-34
6.08220E-01 1.90163E-34
6.12476E-01 1.68930E-34
6.16723E-01 1.49152E-34
6.20961E-01 1.30858E-34
6.25190E-01 1.14056E-34
6.29410E-01 9.87353E-35
6.33619E-01 8.48666E-35
6.37819E-01 7.24081E-35
6.42008E-01 6.13045E-35
6.46186E-01 5.14922E-35
6.50353E-01 4.28991E-35
6.54508E-01 3.54485E-35
6.58652E-01 2.90593E-35
6.62784E-01 2.36481E-35
6.66903E-01 1.91315E-35
6.71010E-01 1.54258E-35
6.75104E-01 1.24490E-35
6.79184E-01 1.01218E-35
6.83251E-01 8.36747E-36
6.87303E-01 7.11353E-36
6.91342E-01 6.29127E-36
6.95366E-01 5.83649E-36
6.99375E-01 5.68997E-36
7.03368E-01 5.79696E-36
7.07347E-01 6.10776E-36
7.11309E-01 6.57739E-36
7.15256E-01 7.16562E-36
7.19186E-01 7.83685E-36
7.23099E-01 8.55973E-36
7.26995E-01 9.30727E-36
7.30874E-01 1.00561E-35
7.34736E-01 1.07868E-35
7.38579E-01 1.14831E-35
7.42405E-01 1.21320E-35
7.46212E-01 1.27233E-35
7.50000E-01 1.32489E-35
7.53769E-01 1.37037E-35
7.57519E-01 1.40839E-35
7.61249E-01 1.43880E-35
7.64960E-01 1.46157E-35
7.68650E-01 1.47678E-35
7.72320E-01 1.48468E-35
7.75968E-01 1.48553E-35
7.79596E-01 1.47973E-35
7.83203E-01 1.46769E-35
7.86788E-01 1.44989E-35
7.90351E-01 1.42682E-35
7.93893E-01 1.39896E-35
7.97411E-01 1.36689E-35
8.00908E-01 1.33108E-35
8.04381E-01 1.29208E-35
8.07831E-01 1.25034E-35
8.11257E-01 1.20638E-35
8.14660E-01 1.16064E-35
8.18039E-01 1.11357E-35
8.21394E-01 1.06554E-35
8.24724E-01 1.01693E-35
8.28030E-01 9.68120E-36
8.31310E-01 9.19371E-36
8.34565E-01 8.70997E-36
8.37795E-01 8.23237E-36
8.40999E-01 7.76329E-36
8.44177E-01 7.30441E-36
8.47329E-01 6.85748E-36
8.50455E-01 6.42410E-36
8.53553E-01 6.00522E-36
8.56625E-01 5.60179E-36
8.59670E-01 5.21454E-36
8.62687E-01 4.84422E-36
8.65677E-01 4.49090E-36
8.68639E-01 4.15497E-36
8.71572E-01 3.83629E-36
8.74478E-01 3.53498E-36
8.77355E-01 3.25085E-36
8.80203E-01 2.98352E-36
8.83022E-01 2.73259E-36
8.85812E-01 2.49781E-36
8.88573E-01 2.27859E-36
8.91304E-01 2.07428E-36
8.94005E-01 1.88442E-36
8.96677E-01 1.70845E-36
8.99318E-01 1.54556E-36
9.01928E-01 1.39529E-36
9.04508E-01 1.25695E-36
9.07058E-01 1.12982E-36
9.09576E-01 1.01329E-36
9.12063E-01 9.06740E-37
9.14519E-01 8.09551E-37
9.16943E-01 7.21053E-37
9.19335E-01 6.40740E-37
9.21696E-01 5.67927E-37
9.24024E-01 5.02201E-37
9.26320E-01 4.42901E-37
9.28584E-01 3.89628E-37
9.30815E-01 3.41855E-37
9.33013E-01 2.99112E-37
9.35178E-01 2.61008E-37
9.37310E-01 2.27122E-37
9.39409E-01 1.97092E-37
9.41474E-01 1.70527E-37
9.43505E-01 1.47145E-37
9.45503E-01 1.26606E-37
9.47467E-01 1.08642E-37
9.49397E-01 9.29639E-38
9.51293E-01 7.93720E-38
9.53154E-01 6.76105E-38
9.54981E-01 5.75042E-38
9.56773E-01 4.88210E-38
9.58530E-01 4.14230E-38
9.60252E-01 3.51397E-38
9.61940E-01 2.98466E-38
9.63592E-01 2.54081E-38
9.65209E-01 2.17190E-38
9.66790E-01 1.86575E-38
9.68336E-01 1.61508E-38
9.69846E-01 1.41001E-38
9.71321E-01 1.24512E-38
9.72759E-01 1.11234E-38
9.74162E-01 1.00764E-38
9.75528E-01 9.24285E-39
9.76858E-01 8.59783E-39
9.78152E-01 8.09073E-39
9.79410E-01 7.69438E-39
9.80631E-01 7.38196E-39
9.81815E-01 7.12944E-39
9.82963E-01 6.91725E-39
9.84074E-01 6.72932E-39
9.85148E-01 6.55400E-39
9.86185E-01 6.37981E-39
9.87185E-01 6.19968E-39
9.88148E-01 6.00745E-39
9.89074E-01 5.80167E-39
9.89962E-01 5.57803E-39
9.90814E-01 5.33032E-39
9.91627E-01 5.06886E-39
9.92404E-01 4.78451E-39
9.93143E-01 4.48811E-39
9.93844E-01 4.18064E-39
9.94508E-01 3.85609E-39
9.95134E-01 3.52716E-39
9.95722E-01 3.19313E-39
9.96273E-01 2.86161E-39
9.96786E-01 2.53176E-39
9.97261E-01 2.21011E-39
9.97698E-01 1.89543E-39
9.98097E-01 1.59627E-39
9.98459E-01 1.31550E-39
9.98782E-01 1.05594E-39
9.99067E-01 8.20724E-40
9.99315E-01 6.09771E-40
9.99524E-01 4.30479E-40
9.99695E-01 2.78489E-40
9.99829E-01 1.57751E-40
9.99924E-01 7.17535E-41
9.99981E-01 2.03344E-41
1.00000E+00 2.14980E-42
