 #
 # Subroutine ELSEPA. Elastic scattering of electrons and positrons
 #                    by neutral atoms and positive ions
 #
 # Projectile: positron
 # Kinetic energy = 3.50000E+06 eV = 1.28623E+05 a.u.
 #
 # WARNING: High-energy factorization with free-atom DF screening.
 #          Absorption, polarization and exchange corrections are
 #          switched off.
 #          Phase shifts are calculated for the bare nucleus.
 #          Scattering amplitudes are not evaluated.
 #
 # Element: Ir,  Z =  77,  atomic weight = 1.92217E+02 g/mol
 #
 # Nuclear model: Fermi distribution
 #                Average radius = 6.17515E-13 cm
 #                Skin thickness = 5.46000E-14 cm
 #
 # Number of electrons = 77
 #
 # Total elastic cross section = 7.85492E-18 cm**2 = 2.80504E-01 a0**2
 # 1st transport cross section = 4.23821E-22 cm**2 = 1.51349E-05 a0**2
 # 2nd transport cross section = 1.21396E-21 cm**2 = 4.33512E-05 a0**2
 #
 #
 # Differential cross section:                       MU=(1-COS(THETA))/2
 #
 #  THETA        MU          DCS          DCS        Sherman      error
 #  (deg)                 (cm**2/sr)   (a0**2/sr)    function
 #----------------------------------------------------------------------
0.00000E+00 7.88805E-13
7.61557E-13 7.88802E-13
1.18994E-12 7.88800E-13
1.71346E-12 7.88798E-13
2.33225E-12 7.88796E-13
3.04617E-12 7.88794E-13
3.85530E-12 7.88791E-13
4.75964E-12 7.88788E-13
5.75917E-12 7.88784E-13
6.85391E-12 7.88780E-13
8.04379E-12 7.88776E-13
9.32893E-12 7.88772E-13
1.07092E-11 7.88767E-13
1.21847E-11 7.88762E-13
1.37554E-11 7.88757E-13
1.54213E-11 7.88751E-13
1.71823E-11 7.88745E-13
1.90386E-11 7.88739E-13
2.09900E-11 7.88732E-13
2.30367E-11 7.88725E-13
2.51785E-11 7.88718E-13
2.74156E-11 7.88711E-13
2.97478E-11 7.88703E-13
3.21752E-11 7.88695E-13
3.46979E-11 7.88686E-13
3.73157E-11 7.88677E-13
4.00286E-11 7.88668E-13
4.28368E-11 7.88659E-13
4.57402E-11 7.88649E-13
4.87388E-11 7.88639E-13
5.18325E-11 7.88629E-13
5.50215E-11 7.88618E-13
5.83057E-11 7.88608E-13
6.16850E-11 7.88596E-13
6.51595E-11 7.88585E-13
6.87293E-11 7.88573E-13
7.23943E-11 7.88561E-13
7.61544E-11 7.88548E-13
1.18991E-10 7.88407E-13
1.71347E-10 7.88235E-13
2.33223E-10 7.88032E-13
3.04617E-10 7.87798E-13
3.85531E-10 7.87534E-13
4.75965E-10 7.87239E-13
5.75917E-10 7.86913E-13
6.85389E-10 7.86557E-13
8.04380E-10 7.86170E-13
9.32891E-10 7.85753E-13
1.07092E-09 7.85306E-13
1.21847E-09 7.84828E-13
1.37554E-09 7.84321E-13
1.54213E-09 7.83783E-13
1.71823E-09 7.83216E-13
1.90386E-09 7.82619E-13
2.09900E-09 7.81992E-13
2.30367E-09 7.81335E-13
2.51785E-09 7.80650E-13
2.74156E-09 7.79934E-13
2.97478E-09 7.79190E-13
3.21752E-09 7.78417E-13
3.46978E-09 7.77615E-13
3.73156E-09 7.76785E-13
4.00286E-09 7.75926E-13
4.28368E-09 7.75038E-13
4.57402E-09 7.74123E-13
4.87388E-09 7.73179E-13
5.18326E-09 7.72208E-13
5.50215E-09 7.71209E-13
5.83057E-09 7.70182E-13
6.16850E-09 7.69129E-13
6.51596E-09 7.68049E-13
6.87293E-09 7.66941E-13
7.23942E-09 7.65807E-13
7.61544E-09 7.64647E-13
1.18991E-08 7.51645E-13
1.71347E-08 7.36200E-13
2.33223E-08 7.18776E-13
3.04617E-08 6.99462E-13
3.85531E-08 6.78633E-13
4.75965E-08 6.56694E-13
5.75917E-08 6.33942E-13
6.85389E-08 6.10353E-13
8.04380E-08 5.86511E-13
9.32891E-08 5.62667E-13
1.07092E-07 5.38854E-13
1.21847E-07 5.15215E-13
1.37554E-07 4.92113E-13
1.54213E-07 4.69663E-13
1.71823E-07 4.47674E-13
1.90386E-07 4.26453E-13
2.09900E-07 4.06104E-13
2.30367E-07 3.86597E-13
2.51785E-07 3.67779E-13
2.74156E-07 3.49889E-13
2.97478E-07 3.32910E-13
3.21752E-07 3.16699E-13
3.46978E-07 3.01268E-13
3.73156E-07 2.86686E-13
4.00286E-07 2.72913E-13
4.28368E-07 2.59763E-13
4.57402E-07 2.47349E-13
4.87388E-07 2.35644E-13
5.18325E-07 2.24570E-13
5.50215E-07 2.14042E-13
5.83057E-07 2.04119E-13
6.16850E-07 1.94763E-13
6.51596E-07 1.85876E-13
6.87293E-07 1.77461E-13
7.23942E-07 1.69523E-13
7.61543E-07 1.62030E-13
1.18991E-06 1.05280E-13
1.71347E-06 7.02533E-14
2.33223E-06 4.94650E-14
3.04617E-06 3.54212E-14
3.85531E-06 2.60785E-14
4.75964E-06 1.97071E-14
5.75916E-06 1.51997E-14
6.85388E-06 1.18640E-14
8.04378E-06 9.42221E-15
9.32888E-06 7.58942E-15
1.07092E-05 6.17112E-15
1.21846E-05 5.05876E-15
1.37553E-05 4.18653E-15
1.54212E-05 3.49289E-15
1.71822E-05 2.92788E-15
1.90385E-05 2.46942E-15
2.09899E-05 2.09917E-15
2.30365E-05 1.79405E-15
2.51783E-05 1.53969E-15
2.74153E-05 1.32868E-15
2.97475E-05 1.15253E-15
3.21749E-05 1.00429E-15
3.46974E-05 8.79530E-16
3.73152E-05 7.73787E-16
4.00281E-05 6.83459E-16
4.28362E-05 6.06036E-16
4.57395E-05 5.39576E-16
4.87380E-05 4.82228E-16
5.18317E-05 4.32459E-16
5.50205E-05 3.89005E-16
5.83045E-05 3.50998E-16
6.16838E-05 3.17623E-16
6.51582E-05 2.88132E-16
6.87277E-05 2.62011E-16
7.23925E-05 2.38829E-16
7.61524E-05 2.18186E-16
9.21439E-05 1.54900E-16
1.09658E-04 1.13065E-16
1.28695E-04 8.44461E-17
1.49255E-04 6.42768E-17
1.71338E-04 4.98041E-17
1.94942E-04 3.91644E-17
2.20070E-04 3.12299E-17
2.46720E-04 2.52096E-17
2.74892E-04 2.05585E-17
3.04586E-04 1.69326E-17
3.35803E-04 1.40735E-17
3.68542E-04 1.17923E-17
4.02802E-04 9.95094E-18
4.38585E-04 8.45617E-18
4.75889E-04 7.23211E-18
5.14715E-04 6.22062E-18
5.55063E-04 5.37942E-18
5.96931E-04 4.67601E-18
6.40321E-04 4.08406E-18
6.85233E-04 3.58222E-18
7.31665E-04 3.15527E-18
7.79618E-04 2.79018E-18
8.29092E-04 2.47634E-18
8.80086E-04 2.20521E-18
9.32601E-04 1.97026E-18
9.86636E-04 1.76581E-18
1.04219E-03 1.58708E-18
1.09927E-03 1.43035E-18
1.15786E-03 1.29251E-18
1.21797E-03 1.17087E-18
1.27961E-03 1.06310E-18
1.34276E-03 9.67435E-19
1.40743E-03 8.82287E-19
1.47362E-03 8.06263E-19
1.54133E-03 7.38202E-19
1.61056E-03 6.77162E-19
1.68131E-03 6.22291E-19
1.75357E-03 5.72823E-19
1.82735E-03 5.28153E-19
1.90265E-03 4.87744E-19
1.97947E-03 4.51112E-19
2.05780E-03 4.17824E-19
2.13765E-03 3.87542E-19
2.21902E-03 3.59946E-19
2.30190E-03 3.34747E-19
2.38630E-03 3.11701E-19
2.47222E-03 2.90598E-19
2.55965E-03 2.71244E-19
2.64859E-03 2.53461E-19
2.73905E-03 2.37106E-19
2.83103E-03 2.22044E-19
2.92452E-03 2.08154E-19
3.01952E-03 1.95324E-19
3.11604E-03 1.83464E-19
3.21407E-03 1.72487E-19
3.31362E-03 1.62314E-19
3.41468E-03 1.52875E-19
3.51725E-03 1.44110E-19
3.62133E-03 1.35962E-19
3.72692E-03 1.28377E-19
3.83403E-03 1.21311E-19
3.94265E-03 1.14723E-19
4.05278E-03 1.08574E-19
4.16442E-03 1.02829E-19
4.27757E-03 9.74570E-20
4.39223E-03 9.24300E-20
4.50840E-03 8.77209E-20
4.62608E-03 8.33064E-20
4.74527E-03 7.91649E-20
4.86597E-03 7.52766E-20
4.98817E-03 7.16223E-20
5.11188E-03 6.81862E-20
5.23711E-03 6.49528E-20
5.36383E-03 6.19078E-20
5.49207E-03 5.90380E-20
5.62181E-03 5.63319E-20
5.75306E-03 5.37785E-20
5.88581E-03 5.13670E-20
6.02007E-03 4.90886E-20
6.15583E-03 4.69346E-20
6.29310E-03 4.48968E-20
6.43187E-03 4.29676E-20
6.57214E-03 4.11406E-20
6.71392E-03 3.94091E-20
6.85720E-03 3.77672E-20
7.00198E-03 3.62094E-20
7.14827E-03 3.47308E-20
7.29605E-03 3.33265E-20
7.44534E-03 3.19919E-20
7.59612E-03 3.07231E-20
7.97965E-03 2.78144E-20
8.37255E-03 2.52400E-20
8.77480E-03 2.29551E-20
9.18641E-03 2.09215E-20
9.60736E-03 1.91068E-20
1.00376E-02 1.74836E-20
1.04773E-02 1.60281E-20
1.09262E-02 1.47200E-20
1.13844E-02 1.35418E-20
1.18520E-02 1.24784E-20
1.23288E-02 1.15166E-20
1.28150E-02 1.06452E-20
1.33104E-02 9.85399E-21
1.38150E-02 9.13443E-21
1.43290E-02 8.47890E-21
1.48521E-02 7.88064E-21
1.53845E-02 7.33388E-21
1.59262E-02 6.83337E-21
1.64770E-02 6.37445E-21
1.70371E-02 5.95312E-21
1.76063E-02 5.56576E-21
1.81848E-02 5.20913E-21
1.87724E-02 4.88035E-21
1.93692E-02 4.57689E-21
1.99751E-02 4.29646E-21
2.05901E-02 4.03696E-21
2.12143E-02 3.79659E-21
2.18476E-02 3.57369E-21
2.24900E-02 3.36675E-21
2.31415E-02 3.17443E-21
2.38021E-02 2.99552E-21
2.44717E-02 2.82891E-21
2.51504E-02 2.67361E-21
2.58382E-02 2.52871E-21
2.65349E-02 2.39340E-21
2.72407E-02 2.26693E-21
2.79555E-02 2.14861E-21
2.86793E-02 2.03783E-21
2.94120E-02 1.93402E-21
3.01537E-02 1.83667E-21
3.09043E-02 1.74529E-21
3.16639E-02 1.65947E-21
3.24324E-02 1.57880E-21
3.32098E-02 1.50291E-21
3.39961E-02 1.43148E-21
3.47912E-02 1.36419E-21
3.55952E-02 1.30077E-21
3.64081E-02 1.24094E-21
3.72297E-02 1.18447E-21
3.80602E-02 1.13114E-21
3.88995E-02 1.08074E-21
3.97476E-02 1.03308E-21
4.06044E-02 9.87987E-22
4.14700E-02 9.45297E-22
4.23443E-02 9.04857E-22
4.32273E-02 8.66530E-22
4.41190E-02 8.30185E-22
4.50194E-02 7.95699E-22
4.59284E-02 7.62963E-22
4.68461E-02 7.31870E-22
4.87074E-02 6.74233E-22
5.06030E-02 6.22087E-22
5.25328E-02 5.74819E-22
5.44967E-02 5.31897E-22
5.64946E-02 4.92852E-22
5.85262E-02 4.57276E-22
6.05914E-02 4.24807E-22
6.26901E-02 3.95128E-22
6.48222E-02 3.67958E-22
6.69873E-02 3.43049E-22
6.91854E-02 3.20181E-22
7.14163E-02 2.99157E-22
7.36799E-02 2.79804E-22
7.59760E-02 2.61967E-22
7.83043E-02 2.45505E-22
8.06647E-02 2.30295E-22
8.30571E-02 2.16226E-22
8.54812E-02 2.03196E-22
8.79369E-02 1.91116E-22
9.04240E-02 1.79905E-22
9.29422E-02 1.69490E-22
9.54915E-02 1.59804E-22
9.80716E-02 1.50788E-22
1.00682E-01 1.42386E-22
1.03323E-01 1.34551E-22
1.05995E-01 1.27237E-22
1.08696E-01 1.20404E-22
1.11427E-01 1.14015E-22
1.14188E-01 1.08035E-22
1.16978E-01 1.02434E-22
1.19797E-01 9.71840E-23
1.22645E-01 9.22591E-23
1.25522E-01 8.76355E-23
1.28428E-01 8.32919E-23
1.31361E-01 7.92082E-23
1.34323E-01 7.53662E-23
1.37313E-01 7.17491E-23
1.40330E-01 6.83415E-23
1.43375E-01 6.51291E-23
1.46447E-01 6.20988E-23
1.49545E-01 5.92386E-23
1.52671E-01 5.65372E-23
1.55823E-01 5.39842E-23
1.59001E-01 5.15702E-23
1.62205E-01 4.92862E-23
1.65435E-01 4.71240E-23
1.68690E-01 4.50760E-23
1.71970E-01 4.31352E-23
1.75276E-01 4.12949E-23
1.78606E-01 3.95490E-23
1.81961E-01 3.78920E-23
1.85340E-01 3.63183E-23
1.88743E-01 3.48232E-23
1.92169E-01 3.34021E-23
1.95619E-01 3.20505E-23
1.99092E-01 3.07647E-23
2.02589E-01 2.95407E-23
2.06107E-01 2.83752E-23
2.09649E-01 2.72648E-23
2.13212E-01 2.62065E-23
2.16797E-01 2.51974E-23
2.20404E-01 2.42348E-23
2.24032E-01 2.33163E-23
2.27680E-01 2.24394E-23
2.31350E-01 2.16020E-23
2.35040E-01 2.08019E-23
2.38751E-01 2.00372E-23
2.42481E-01 1.93062E-23
2.46231E-01 1.86069E-23
2.50000E-01 1.79379E-23
2.53788E-01 1.72976E-23
2.57595E-01 1.66845E-23
2.61421E-01 1.60973E-23
2.65264E-01 1.55347E-23
2.69126E-01 1.49955E-23
2.73005E-01 1.44786E-23
2.76901E-01 1.39829E-23
2.80814E-01 1.35073E-23
2.84744E-01 1.30509E-23
2.88691E-01 1.26129E-23
2.92653E-01 1.21922E-23
2.96632E-01 1.17882E-23
3.00625E-01 1.14001E-23
3.04634E-01 1.10270E-23
3.08658E-01 1.06685E-23
3.12697E-01 1.03237E-23
3.16749E-01 9.99203E-24
3.20816E-01 9.67297E-24
3.24896E-01 9.36593E-24
3.28990E-01 9.07037E-24
3.33097E-01 8.78580E-24
3.37216E-01 8.51174E-24
3.41348E-01 8.24773E-24
3.45492E-01 7.99335E-24
3.49647E-01 7.74818E-24
3.53814E-01 7.51183E-24
3.57992E-01 7.28393E-24
3.62181E-01 7.06412E-24
3.66381E-01 6.85208E-24
3.70590E-01 6.64749E-24
3.74810E-01 6.45002E-24
3.79039E-01 6.25941E-24
3.83277E-01 6.07536E-24
3.87524E-01 5.89762E-24
3.91780E-01 5.72593E-24
3.96044E-01 5.56005E-24
4.00316E-01 5.39975E-24
4.04596E-01 5.24482E-24
4.08882E-01 5.09503E-24
4.13176E-01 4.95020E-24
4.17476E-01 4.81014E-24
4.21783E-01 4.67465E-24
4.26095E-01 4.54357E-24
4.30413E-01 4.41672E-24
4.34737E-01 4.29396E-24
4.39065E-01 4.17512E-24
4.43398E-01 4.06006E-24
4.47736E-01 3.94864E-24
4.52077E-01 3.84072E-24
4.56422E-01 3.73618E-24
4.60770E-01 3.63489E-24
4.65122E-01 3.53674E-24
4.69476E-01 3.44161E-24
4.73832E-01 3.34940E-24
4.78190E-01 3.26000E-24
4.82550E-01 3.17331E-24
4.86912E-01 3.08923E-24
4.91274E-01 3.00768E-24
4.95637E-01 2.92856E-24
5.00000E-01 2.85180E-24
5.04363E-01 2.77731E-24
5.08726E-01 2.70500E-24
5.13088E-01 2.63482E-24
5.17450E-01 2.56668E-24
5.21810E-01 2.50051E-24
5.26168E-01 2.43626E-24
5.30524E-01 2.37385E-24
5.34878E-01 2.31323E-24
5.39230E-01 2.25433E-24
5.43578E-01 2.19710E-24
5.47923E-01 2.14149E-24
5.52264E-01 2.08743E-24
5.56602E-01 2.03489E-24
5.60935E-01 1.98380E-24
5.65263E-01 1.93414E-24
5.69587E-01 1.88584E-24
5.73905E-01 1.83886E-24
5.78217E-01 1.79317E-24
5.82524E-01 1.74873E-24
5.86824E-01 1.70548E-24
5.91118E-01 1.66341E-24
5.95404E-01 1.62246E-24
5.99684E-01 1.58262E-24
6.03956E-01 1.54383E-24
6.08220E-01 1.50607E-24
6.12476E-01 1.46931E-24
6.16723E-01 1.43352E-24
6.20961E-01 1.39866E-24
6.25190E-01 1.36472E-24
6.29410E-01 1.33165E-24
6.33619E-01 1.29945E-24
6.37819E-01 1.26807E-24
6.42008E-01 1.23750E-24
6.46186E-01 1.20772E-24
6.50353E-01 1.17870E-24
6.54508E-01 1.15041E-24
6.58652E-01 1.12284E-24
6.62784E-01 1.09596E-24
6.66903E-01 1.06976E-24
6.71010E-01 1.04422E-24
6.75104E-01 1.01931E-24
6.79184E-01 9.95023E-25
6.83251E-01 9.71339E-25
6.87303E-01 9.48241E-25
6.91342E-01 9.25711E-25
6.95366E-01 9.03734E-25
6.99375E-01 8.82294E-25
7.03368E-01 8.61377E-25
7.07347E-01 8.40968E-25
7.11309E-01 8.21053E-25
7.15256E-01 8.01619E-25
7.19186E-01 7.82653E-25
7.23099E-01 7.64142E-25
7.26995E-01 7.46075E-25
7.30874E-01 7.28438E-25
7.34736E-01 7.11222E-25
7.38579E-01 6.94413E-25
7.42405E-01 6.78003E-25
7.46212E-01 6.61980E-25
7.50000E-01 6.46334E-25
7.53769E-01 6.31055E-25
7.57519E-01 6.16134E-25
7.61249E-01 6.01562E-25
7.64960E-01 5.87328E-25
7.68650E-01 5.73426E-25
7.72320E-01 5.59846E-25
7.75968E-01 5.46580E-25
7.79596E-01 5.33620E-25
7.83203E-01 5.20959E-25
7.86788E-01 5.08589E-25
7.90351E-01 4.96503E-25
7.93893E-01 4.84693E-25
7.97411E-01 4.73154E-25
8.00908E-01 4.61877E-25
8.04381E-01 4.50858E-25
8.07831E-01 4.40089E-25
8.11257E-01 4.29565E-25
8.14660E-01 4.19279E-25
8.18039E-01 4.09226E-25
8.21394E-01 3.99400E-25
8.24724E-01 3.89796E-25
8.28030E-01 3.80409E-25
8.31310E-01 3.71233E-25
8.34565E-01 3.62264E-25
8.37795E-01 3.53496E-25
8.40999E-01 3.44926E-25
8.44177E-01 3.36548E-25
8.47329E-01 3.28358E-25
8.50455E-01 3.20352E-25
8.53553E-01 3.12525E-25
8.56625E-01 3.04874E-25
8.59670E-01 2.97395E-25
8.62687E-01 2.90083E-25
8.65677E-01 2.82936E-25
8.68639E-01 2.75948E-25
8.71572E-01 2.69118E-25
8.74478E-01 2.62441E-25
8.77355E-01 2.55915E-25
8.80203E-01 2.49535E-25
8.83022E-01 2.43299E-25
8.85812E-01 2.37203E-25
8.88573E-01 2.31245E-25
8.91304E-01 2.25422E-25
8.94005E-01 2.19731E-25
8.96677E-01 2.14169E-25
8.99318E-01 2.08734E-25
9.01928E-01 2.03423E-25
9.04508E-01 1.98233E-25
9.07058E-01 1.93162E-25
9.09576E-01 1.88207E-25
9.12063E-01 1.83367E-25
9.14519E-01 1.78639E-25
9.16943E-01 1.74021E-25
9.19335E-01 1.69511E-25
9.21696E-01 1.65106E-25
9.24024E-01 1.60805E-25
9.26320E-01 1.56605E-25
9.28584E-01 1.52505E-25
9.30815E-01 1.48503E-25
9.33013E-01 1.44598E-25
9.35178E-01 1.40786E-25
9.37310E-01 1.37067E-25
9.39409E-01 1.33440E-25
9.41474E-01 1.29901E-25
9.43505E-01 1.26451E-25
9.45503E-01 1.23086E-25
9.47467E-01 1.19807E-25
9.49397E-01 1.16611E-25
9.51293E-01 1.13497E-25
9.53154E-01 1.10463E-25
9.54981E-01 1.07509E-25
9.56773E-01 1.04634E-25
9.58530E-01 1.01835E-25
9.60252E-01 9.91111E-26
9.61940E-01 9.64623E-26
9.63592E-01 9.38867E-26
9.65209E-01 9.13835E-26
9.66790E-01 8.89515E-26
9.68336E-01 8.65898E-26
9.69846E-01 8.42972E-26
9.71321E-01 8.20729E-26
9.72759E-01 7.99159E-26
9.74162E-01 7.78254E-26
9.75528E-01 7.58004E-26
9.76858E-01 7.38402E-26
9.78152E-01 7.19439E-26
9.79410E-01 7.01107E-26
9.80631E-01 6.83399E-26
9.81815E-01 6.66308E-26
9.82963E-01 6.49826E-26
9.84074E-01 6.33948E-26
9.85148E-01 6.18665E-26
9.86185E-01 6.03973E-26
9.87185E-01 5.89866E-26
9.88148E-01 5.76336E-26
9.89074E-01 5.63380E-26
9.89962E-01 5.50992E-26
9.90814E-01 5.39167E-26
9.91627E-01 5.27900E-26
9.92404E-01 5.17186E-26
9.93143E-01 5.07022E-26
9.93844E-01 4.97403E-26
9.94508E-01 4.88325E-26
9.95134E-01 4.79786E-26
9.95722E-01 4.71780E-26
9.96273E-01 4.64306E-26
9.96786E-01 4.57360E-26
9.97261E-01 4.50940E-26
9.97698E-01 4.45042E-26
9.98097E-01 4.39666E-26
9.98459E-01 4.34807E-26
9.98782E-01 4.30465E-26
9.99067E-01 4.26638E-26
9.99315E-01 4.23325E-26
9.99524E-01 4.20523E-26
9.99695E-01 4.18232E-26
9.99829E-01 4.16452E-26
9.99924E-01 4.15180E-26
9.99981E-01 4.14417E-26
1.00000E+00 4.14163E-26
