 #
 # Subroutine ELSEPA. Elastic scattering of electrons and positrons
 #                    by neutral atoms and positive ions
 #
 # Projectile: positron
 # Kinetic energy = 9.00000E+08 eV = 3.30744E+07 a.u.
 #
 # WARNING: High-energy factorization with free-atom DF screening.
 #          Absorption, polarization and exchange corrections are
 #          switched off.
 #          Phase shifts are calculated for the bare nucleus.
 #          Scattering amplitudes are not evaluated.
 #
 # Element: Ir,  Z =  77,  atomic weight = 1.92217E+02 g/mol
 #
 # Nuclear model: Fermi distribution
 #                Average radius = 6.17515E-13 cm
 #                Skin thickness = 5.46000E-14 cm
 #
 # Number of electrons = 77
 #
 # Total elastic cross section = 7.71714E-18 cm**2 = 2.75584E-01 a0**2
 # 1st transport cross section = 1.37076E-26 cm**2 = 4.89507E-10 a0**2
 # 2nd transport cross section = 4.11177E-26 cm**2 = 1.46834E-09 a0**2
 #
 #
 # Differential cross section:                       MU=(1-COS(THETA))/2
 #
 #  THETA        MU          DCS          DCS        Sherman      error
 #  (deg)                 (cm**2/sr)   (a0**2/sr)    function
 #----------------------------------------------------------------------
0.00000E+00 3.97597E-08
7.61557E-13 3.41534E-08
1.18994E-12 3.15822E-08
1.71346E-12 2.88732E-08
2.33225E-12 2.61593E-08
3.04617E-12 2.35575E-08
3.85530E-12 2.11182E-08
4.75964E-12 1.88842E-08
5.75917E-12 1.68740E-08
6.85391E-12 1.50710E-08
8.04379E-12 1.34744E-08
9.32893E-12 1.20662E-08
1.07092E-11 1.08193E-08
1.21847E-11 9.72327E-09
1.37554E-11 8.75710E-09
1.54213E-11 7.90220E-09
1.71823E-11 7.14788E-09
1.90386E-11 6.47882E-09
2.09900E-11 5.88424E-09
2.30367E-11 5.35607E-09
2.51785E-11 4.88399E-09
2.74156E-11 4.46214E-09
2.97478E-11 4.06479E-09
3.21752E-11 3.70750E-09
3.46979E-11 3.39755E-09
3.73157E-11 3.12740E-09
4.00286E-11 2.89086E-09
4.28368E-11 2.68284E-09
4.57402E-11 2.48091E-09
4.87388E-11 2.28780E-09
5.18325E-11 2.11709E-09
5.50215E-11 1.96564E-09
5.83057E-11 1.83078E-09
6.16850E-11 1.71030E-09
6.51595E-11 1.59566E-09
6.87293E-11 1.48491E-09
7.23943E-11 1.38550E-09
7.61544E-11 1.29603E-09
1.18991E-10 7.07543E-10
1.71347E-10 4.19432E-10
2.33223E-10 2.63512E-10
3.04617E-10 1.73180E-10
3.85531E-10 1.17581E-10
4.75965E-10 8.22671E-11
5.75917E-10 5.91792E-11
6.85389E-10 4.36351E-11
8.04380E-10 3.28875E-11
9.32891E-10 2.53019E-11
1.07092E-09 1.98219E-11
1.21847E-09 1.57740E-11
1.37554E-09 1.27178E-11
1.54213E-09 1.03688E-11
1.71823E-09 8.54189E-12
1.90386E-09 7.10221E-12
2.09900E-09 5.95459E-12
2.30367E-09 5.03034E-12
2.51785E-09 4.27773E-12
2.74156E-09 3.66038E-12
2.97478E-09 3.14823E-12
3.21752E-09 2.72405E-12
3.46978E-09 2.37063E-12
3.73156E-09 2.07038E-12
4.00286E-09 1.81793E-12
4.28368E-09 1.60164E-12
4.57402E-09 1.41693E-12
4.87388E-09 1.25836E-12
5.18326E-09 1.12082E-12
5.50215E-09 1.00217E-12
5.83057E-09 8.98230E-13
6.16850E-09 8.07685E-13
6.51596E-09 7.28255E-13
6.87293E-09 6.58221E-13
7.23942E-09 5.96647E-13
7.61544E-09 5.41806E-13
1.18991E-08 2.30984E-13
1.71347E-08 1.14484E-13
2.33223E-08 6.30561E-14
3.04617E-08 3.75293E-14
3.85531E-08 2.37017E-14
4.75965E-08 1.56893E-14
5.75917E-08 1.07907E-14
6.85389E-08 7.66157E-15
8.04380E-08 5.58811E-15
9.32891E-08 4.17072E-15
1.07092E-07 3.17548E-15
1.21847E-07 2.46017E-15
1.37554E-07 1.93543E-15
1.54213E-07 1.54345E-15
1.71823E-07 1.24590E-15
1.90386E-07 1.01673E-15
2.09900E-07 8.37923E-16
2.30367E-07 6.96758E-16
2.51785E-07 5.84112E-16
2.74156E-07 4.93340E-16
2.97478E-07 4.19535E-16
3.21752E-07 3.59029E-16
3.46978E-07 3.09047E-16
3.73156E-07 2.67469E-16
4.00286E-07 2.32650E-16
4.28368E-07 2.03317E-16
4.57402E-07 1.78464E-16
4.87388E-07 1.57293E-16
5.18325E-07 1.39170E-16
5.50215E-07 1.23582E-16
5.83057E-07 1.10116E-16
6.16850E-07 9.84350E-17
6.51596E-07 8.82618E-17
6.87293E-07 7.93688E-17
7.23942E-07 7.15679E-17
7.61543E-07 6.47018E-17
1.18991E-06 2.65808E-17
1.71347E-06 1.28399E-17
2.33223E-06 6.93738E-18
3.04617E-06 4.06891E-18
3.85531E-06 2.54107E-18
4.75964E-06 1.66752E-18
5.75916E-06 1.13905E-18
6.85388E-06 8.04264E-19
8.04378E-06 5.83903E-19
9.32888E-06 4.34088E-19
1.07092E-05 3.29374E-19
1.21846E-05 2.54408E-19
1.37553E-05 1.99603E-19
1.54212E-05 1.58788E-19
1.71822E-05 1.27889E-19
1.90385E-05 1.04091E-19
2.09899E-05 8.56828E-20
2.30365E-05 7.11560E-20
2.51783E-05 5.95629E-20
2.74153E-05 5.02232E-20
2.97475E-05 4.26376E-20
3.21749E-05 3.64317E-20
3.46974E-05 3.13161E-20
3.73152E-05 2.70708E-20
4.00281E-05 2.35238E-20
4.28362E-05 2.05402E-20
4.57395E-05 1.80146E-20
4.87380E-05 1.58645E-20
5.18317E-05 1.40246E-20
5.50205E-05 1.24430E-20
5.83045E-05 1.10777E-20
6.16838E-05 9.89470E-21
6.51582E-05 8.86567E-21
6.87277E-05 7.96726E-21
7.23925E-05 7.17997E-21
7.61524E-05 6.59731E-21
9.21439E-05 4.49474E-21
1.09658E-04 3.16148E-21
1.28695E-04 2.28382E-21
1.49255E-04 1.68708E-21
1.71338E-04 1.27037E-21
1.94942E-04 9.72452E-22
2.20070E-04 7.55116E-22
2.46720E-04 5.93733E-22
2.74892E-04 4.72002E-22
3.04586E-04 3.78903E-22
3.35803E-04 3.06811E-22
3.68542E-04 2.50365E-22
4.02802E-04 2.05726E-22
4.38585E-04 1.70103E-22
4.75889E-04 1.41442E-22
5.14715E-04 1.18210E-22
5.55063E-04 9.92509E-23
5.96931E-04 8.36825E-23
6.40321E-04 7.08254E-23
6.85233E-04 6.01520E-23
7.31665E-04 5.12492E-23
7.79618E-04 4.37901E-23
8.29092E-04 3.75155E-23
8.80086E-04 3.22173E-23
9.32601E-04 2.77282E-23
9.86636E-04 2.39125E-23
1.04219E-03 2.06596E-23
1.09927E-03 1.78790E-23
1.15786E-03 1.54961E-23
1.21797E-03 1.34493E-23
1.27961E-03 1.16874E-23
1.34276E-03 1.01678E-23
1.40743E-03 8.85473E-24
1.47362E-03 7.71830E-24
1.54133E-03 6.73323E-24
1.61056E-03 5.87815E-24
1.68131E-03 5.13495E-24
1.75357E-03 4.48826E-24
1.82735E-03 3.92492E-24
1.90265E-03 3.43376E-24
1.97947E-03 3.00513E-24
2.05780E-03 2.63080E-24
2.13765E-03 2.30367E-24
2.21902E-03 2.01761E-24
2.30190E-03 1.76734E-24
2.38630E-03 1.54829E-24
2.47222E-03 1.35650E-24
2.55965E-03 1.18851E-24
2.64859E-03 1.04135E-24
2.73905E-03 9.12412E-25
2.83103E-03 7.99422E-25
2.92452E-03 7.00406E-25
3.01952E-03 6.13635E-25
3.11604E-03 5.37599E-25
3.21407E-03 4.70977E-25
3.31362E-03 4.12611E-25
3.41468E-03 3.61487E-25
3.51725E-03 3.16717E-25
3.62133E-03 2.77521E-25
3.72692E-03 2.43214E-25
3.83403E-03 2.13196E-25
3.94265E-03 1.86938E-25
4.05278E-03 1.63978E-25
4.16442E-03 1.43908E-25
4.27757E-03 1.26370E-25
4.39223E-03 1.11050E-25
4.50840E-03 9.76705E-26
4.62608E-03 8.59897E-26
4.74527E-03 7.57943E-26
4.86597E-03 6.68968E-26
4.98817E-03 5.91330E-26
5.11188E-03 5.23584E-26
5.23711E-03 4.64467E-26
5.36383E-03 4.12869E-26
5.49207E-03 3.67818E-26
5.62181E-03 3.28465E-26
5.75306E-03 2.94066E-26
5.88581E-03 2.63970E-26
6.02007E-03 2.37609E-26
6.15583E-03 2.14489E-26
6.29310E-03 1.94178E-26
6.43187E-03 1.76301E-26
6.57214E-03 1.60531E-26
6.71392E-03 1.46585E-26
6.85720E-03 1.34217E-26
7.00198E-03 1.23215E-26
7.14827E-03 1.13394E-26
7.29605E-03 1.04597E-26
7.44534E-03 9.66866E-27
7.59612E-03 8.95449E-27
7.97965E-03 7.44272E-27
8.37255E-03 6.23026E-27
8.77480E-03 5.23476E-27
9.18641E-03 4.40120E-27
9.60736E-03 3.69297E-27
1.00376E-02 3.08566E-27
1.04773E-02 2.56268E-27
1.09262E-02 2.11238E-27
1.13844E-02 1.72604E-27
1.18520E-02 1.39671E-27
1.23288E-02 1.11838E-27
1.28150E-02 8.85576E-28
1.33104E-02 6.93148E-28
1.38150E-02 5.36169E-28
1.43290E-02 4.09937E-28
1.48521E-02 3.10007E-28
1.53845E-02 2.32231E-28
1.59262E-02 1.72810E-28
1.64770E-02 1.28322E-28
1.70371E-02 9.57458E-29
1.76063E-02 7.24643E-29
1.81848E-02 5.62584E-29
1.87724E-02 4.52859E-29
1.93692E-02 3.80525E-29
1.99751E-02 3.33768E-29
2.05901E-02 3.03518E-29
2.12143E-02 2.83046E-29
2.18476E-02 2.67572E-29
2.24900E-02 2.53896E-29
2.31415E-02 2.40052E-29
2.38021E-02 2.25010E-29
2.44717E-02 2.08416E-29
2.51504E-02 1.90373E-29
2.58382E-02 1.71267E-29
2.65349E-02 1.51630E-29
2.72407E-02 1.32039E-29
2.79555E-02 1.13041E-29
2.86793E-02 9.51086E-30
2.94120E-02 7.86134E-30
3.01537E-02 6.38145E-30
3.09043E-02 5.08609E-30
3.16639E-02 3.98007E-30
3.24324E-02 3.05960E-30
3.32098E-02 2.31406E-30
3.39961E-02 1.72777E-30
3.47912E-02 1.28180E-30
3.55952E-02 9.55522E-31
3.64081E-02 7.27937E-31
3.72297E-02 5.78786E-31
3.80602E-02 4.89351E-31
3.88995E-02 4.43007E-31
3.97476E-02 4.25553E-31
4.06044E-02 4.25333E-31
4.14700E-02 4.33200E-31
4.23443E-02 4.42361E-31
4.32273E-02 4.48132E-31
4.41190E-02 4.47639E-31
4.50194E-02 4.39495E-31
4.59284E-02 4.23474E-31
4.68461E-02 4.00203E-31
4.87074E-02 3.37046E-31
5.06030E-02 2.62442E-31
5.25328E-02 1.88722E-31
5.44967E-02 1.24983E-31
5.64946E-02 7.60416E-32
5.85262E-02 4.27984E-32
6.05914E-02 2.33487E-32
6.26901E-02 1.42855E-32
6.48222E-02 1.18436E-32
6.69873E-02 1.27023E-32
6.91854E-02 1.44121E-32
7.14163E-02 1.54980E-32
7.36799E-02 1.53414E-32
7.59760E-02 1.39437E-32
7.83043E-02 1.16639E-32
8.06647E-02 8.98956E-33
8.30571E-02 6.37242E-33
8.54812E-02 4.13702E-33
8.79369E-02 2.45137E-33
9.04240E-02 1.34220E-33
9.29422E-02 7.34544E-34
9.54915E-02 4.98489E-34
9.80716E-02 4.90947E-34
1.00682E-01 5.85746E-34
1.03323E-01 6.90216E-34
1.05995E-01 7.49744E-34
1.08696E-01 7.43622E-34
1.11427E-01 6.76031E-34
1.14188E-01 5.65581E-34
1.16978E-01 4.35908E-34
1.19797E-01 3.08727E-34
1.22645E-01 1.99801E-34
1.25522E-01 1.17550E-34
1.28428E-01 6.36308E-35
1.31361E-01 3.46812E-35
1.34323E-01 2.44720E-35
1.37313E-01 2.59132E-35
1.40330E-01 3.25722E-35
1.43375E-01 3.95775E-35
1.46447E-01 4.39422E-35
1.49545E-01 4.44380E-35
1.52671E-01 4.11941E-35
1.55823E-01 3.51841E-35
1.59001E-01 2.77333E-35
1.62205E-01 2.01295E-35
1.65435E-01 1.33742E-35
1.68690E-01 8.07149E-36
1.71970E-01 4.43106E-36
1.75276E-01 2.34447E-36
1.78606E-01 1.49757E-36
1.81961E-01 1.48570E-36
1.85340E-01 1.90967E-36
1.88743E-01 2.44088E-36
1.92169E-01 2.85407E-36
1.95619E-01 3.03158E-36
1.99092E-01 2.94778E-36
2.02589E-01 2.64254E-36
2.06107E-01 2.19183E-36
2.09649E-01 1.68163E-36
2.13212E-01 1.18833E-36
2.16797E-01 7.67274E-37
2.20404E-01 4.48682E-37
2.24032E-01 2.39358E-37
2.27680E-01 1.28079E-37
2.31350E-01 9.25353E-38
2.35040E-01 1.06142E-37
2.38751E-01 1.43538E-37
2.42481E-01 1.84268E-37
2.46231E-01 2.14516E-37
2.50000E-01 2.27262E-37
2.53788E-01 2.21261E-37
2.57595E-01 1.99410E-37
2.61421E-01 1.66934E-37
2.65264E-01 1.29765E-37
2.69126E-01 9.32596E-38
2.73005E-01 6.14552E-38
2.76901E-01 1.00000E-45
2.80814E-01 1.00000E-45
2.84744E-01 1.00000E-45
2.88691E-01 1.00000E-45
2.92653E-01 1.00000E-45
2.96632E-01 1.00000E-45
3.00625E-01 1.00000E-45
3.04634E-01 1.00000E-45
3.08658E-01 1.00000E-45
3.12697E-01 1.00000E-45
3.16749E-01 1.00000E-45
3.20816E-01 1.00000E-45
3.24896E-01 1.00000E-45
3.28990E-01 1.00000E-45
3.33097E-01 1.00000E-45
3.37216E-01 1.00000E-45
3.41348E-01 1.00000E-45
3.45492E-01 1.00000E-45
3.49647E-01 1.00000E-45
3.53814E-01 1.00000E-45
3.57992E-01 1.00000E-45
3.62181E-01 1.00000E-45
3.66381E-01 1.00000E-45
3.70590E-01 1.00000E-45
3.74810E-01 1.00000E-45
3.79039E-01 1.00000E-45
3.83277E-01 1.00000E-45
3.87524E-01 1.00000E-45
3.91780E-01 1.00000E-45
3.96044E-01 1.00000E-45
4.00316E-01 1.00000E-45
4.04596E-01 1.00000E-45
4.08882E-01 1.00000E-45
4.13176E-01 1.00000E-45
4.17476E-01 1.00000E-45
4.21783E-01 1.00000E-45
4.26095E-01 1.00000E-45
4.30413E-01 1.00000E-45
4.34737E-01 1.00000E-45
4.39065E-01 1.00000E-45
4.43398E-01 1.00000E-45
4.47736E-01 1.00000E-45
4.52077E-01 1.00000E-45
4.56422E-01 1.00000E-45
4.60770E-01 1.00000E-45
4.65122E-01 1.00000E-45
4.69476E-01 1.00000E-45
4.73832E-01 1.00000E-45
4.78190E-01 1.00000E-45
4.82550E-01 1.00000E-45
4.86912E-01 1.00000E-45
4.91274E-01 1.00000E-45
4.95637E-01 1.00000E-45
5.00000E-01 1.00000E-45
5.04363E-01 1.00000E-45
5.08726E-01 1.00000E-45
5.13088E-01 1.00000E-45
5.17450E-01 1.00000E-45
5.21810E-01 1.00000E-45
5.26168E-01 1.00000E-45
5.30524E-01 1.00000E-45
5.34878E-01 1.00000E-45
5.39230E-01 1.00000E-45
5.43578E-01 1.00000E-45
5.47923E-01 1.00000E-45
5.52264E-01 1.00000E-45
5.56602E-01 1.00000E-45
5.60935E-01 1.00000E-45
5.65263E-01 1.00000E-45
5.69587E-01 1.00000E-45
5.73905E-01 1.00000E-45
5.78217E-01 1.00000E-45
5.82524E-01 1.00000E-45
5.86824E-01 1.00000E-45
5.91118E-01 1.00000E-45
5.95404E-01 1.00000E-45
5.99684E-01 1.00000E-45
6.03956E-01 1.00000E-45
6.08220E-01 1.00000E-45
6.12476E-01 1.00000E-45
6.16723E-01 1.00000E-45
6.20961E-01 1.00000E-45
6.25190E-01 1.00000E-45
6.29410E-01 1.00000E-45
6.33619E-01 1.00000E-45
6.37819E-01 1.00000E-45
6.42008E-01 1.00000E-45
6.46186E-01 1.00000E-45
6.50353E-01 1.00000E-45
6.54508E-01 1.00000E-45
6.58652E-01 1.00000E-45
6.62784E-01 1.00000E-45
6.66903E-01 1.00000E-45
6.71010E-01 1.00000E-45
6.75104E-01 1.00000E-45
6.79184E-01 1.00000E-45
6.83251E-01 1.00000E-45
6.87303E-01 1.00000E-45
6.91342E-01 1.00000E-45
6.95366E-01 1.00000E-45
6.99375E-01 1.00000E-45
7.03368E-01 1.00000E-45
7.07347E-01 1.00000E-45
7.11309E-01 1.00000E-45
7.15256E-01 1.00000E-45
7.19186E-01 1.00000E-45
7.23099E-01 1.00000E-45
7.26995E-01 1.00000E-45
7.30874E-01 1.00000E-45
7.34736E-01 1.00000E-45
7.38579E-01 1.00000E-45
7.42405E-01 1.00000E-45
7.46212E-01 1.00000E-45
7.50000E-01 1.00000E-45
7.53769E-01 1.00000E-45
7.57519E-01 1.00000E-45
7.61249E-01 1.00000E-45
7.64960E-01 1.00000E-45
7.68650E-01 1.00000E-45
7.72320E-01 1.00000E-45
7.75968E-01 1.00000E-45
7.79596E-01 1.00000E-45
7.83203E-01 1.00000E-45
7.86788E-01 1.00000E-45
7.90351E-01 1.00000E-45
7.93893E-01 1.00000E-45
7.97411E-01 1.00000E-45
8.00908E-01 1.00000E-45
8.04381E-01 1.00000E-45
8.07831E-01 1.00000E-45
8.11257E-01 1.00000E-45
8.14660E-01 1.00000E-45
8.18039E-01 1.00000E-45
8.21394E-01 1.00000E-45
8.24724E-01 1.00000E-45
8.28030E-01 1.00000E-45
8.31310E-01 1.00000E-45
8.34565E-01 1.00000E-45
8.37795E-01 1.00000E-45
8.40999E-01 1.00000E-45
8.44177E-01 1.00000E-45
8.47329E-01 1.00000E-45
8.50455E-01 1.00000E-45
8.53553E-01 1.00000E-45
8.56625E-01 1.00000E-45
8.59670E-01 1.00000E-45
8.62687E-01 1.00000E-45
8.65677E-01 1.00000E-45
8.68639E-01 1.00000E-45
8.71572E-01 1.00000E-45
8.74478E-01 1.00000E-45
8.77355E-01 1.00000E-45
8.80203E-01 1.00000E-45
8.83022E-01 1.00000E-45
8.85812E-01 1.00000E-45
8.88573E-01 1.00000E-45
8.91304E-01 1.00000E-45
8.94005E-01 1.00000E-45
8.96677E-01 1.00000E-45
8.99318E-01 1.00000E-45
9.01928E-01 1.00000E-45
9.04508E-01 1.00000E-45
9.07058E-01 1.00000E-45
9.09576E-01 1.00000E-45
9.12063E-01 1.00000E-45
9.14519E-01 1.00000E-45
9.16943E-01 1.00000E-45
9.19335E-01 1.00000E-45
9.21696E-01 1.00000E-45
9.24024E-01 1.00000E-45
9.26320E-01 1.00000E-45
9.28584E-01 1.00000E-45
9.30815E-01 1.00000E-45
9.33013E-01 1.00000E-45
9.35178E-01 1.00000E-45
9.37310E-01 1.00000E-45
9.39409E-01 1.00000E-45
9.41474E-01 1.00000E-45
9.43505E-01 1.00000E-45
9.45503E-01 1.00000E-45
9.47467E-01 1.00000E-45
9.49397E-01 1.00000E-45
9.51293E-01 1.00000E-45
9.53154E-01 1.00000E-45
9.54981E-01 1.00000E-45
9.56773E-01 1.00000E-45
9.58530E-01 1.00000E-45
9.60252E-01 1.00000E-45
9.61940E-01 1.00000E-45
9.63592E-01 1.00000E-45
9.65209E-01 1.00000E-45
9.66790E-01 1.00000E-45
9.68336E-01 1.00000E-45
9.69846E-01 1.00000E-45
9.71321E-01 1.00000E-45
9.72759E-01 1.00000E-45
9.74162E-01 1.00000E-45
9.75528E-01 1.00000E-45
9.76858E-01 1.00000E-45
9.78152E-01 1.00000E-45
9.79410E-01 1.00000E-45
9.80631E-01 1.00000E-45
9.81815E-01 1.00000E-45
9.82963E-01 1.00000E-45
9.84074E-01 1.00000E-45
9.85148E-01 1.00000E-45
9.86185E-01 1.00000E-45
9.87185E-01 1.00000E-45
9.88148E-01 1.00000E-45
9.89074E-01 1.00000E-45
9.89962E-01 1.00000E-45
9.90814E-01 1.00000E-45
9.91627E-01 1.00000E-45
9.92404E-01 1.00000E-45
9.93143E-01 1.00000E-45
9.93844E-01 1.00000E-45
9.94508E-01 1.00000E-45
9.95134E-01 1.00000E-45
9.95722E-01 1.00000E-45
9.96273E-01 1.00000E-45
9.96786E-01 1.00000E-45
9.97261E-01 1.00000E-45
9.97698E-01 1.00000E-45
9.98097E-01 1.00000E-45
9.98459E-01 1.00000E-45
9.98782E-01 1.00000E-45
9.99067E-01 1.00000E-45
9.99315E-01 1.00000E-45
9.99524E-01 1.00000E-45
9.99695E-01 1.00000E-45
9.99829E-01 1.00000E-45
9.99924E-01 1.00000E-45
9.99981E-01 1.00000E-45
1.00000E+00 1.00000E-45
