 #
 # Subroutine ELSEPA. Elastic scattering of electrons and positrons
 #                    by neutral atoms and positive ions
 #
 # Projectile: positron
 # Kinetic energy = 4.50000E+07 eV = 1.65372E+06 a.u.
 #
 # WARNING: High-energy factorization with free-atom DF screening.
 #          Absorption, polarization and exchange corrections are
 #          switched off.
 #          Phase shifts are calculated for the bare nucleus.
 #          Scattering amplitudes are not evaluated.
 #
 # Element: Ir,  Z =  77,  atomic weight = 1.92217E+02 g/mol
 #
 # Nuclear model: Fermi distribution
 #                Average radius = 6.17515E-13 cm
 #                Skin thickness = 5.46000E-14 cm
 #
 # Number of electrons = 77
 #
 # Total elastic cross section = 7.74266E-18 cm**2 = 2.76495E-01 a0**2
 # 1st transport cross section = 4.90250E-24 cm**2 = 1.75071E-07 a0**2
 # 2nd transport cross section = 1.43709E-23 cm**2 = 5.13194E-07 a0**2
 #
 #
 # Differential cross section:                       MU=(1-COS(THETA))/2
 #
 #  THETA        MU          DCS          DCS        Sherman      error
 #  (deg)                 (cm**2/sr)   (a0**2/sr)    function
 #----------------------------------------------------------------------
0.00000E+00 1.01554E-10
7.61557E-13 1.01512E-10
1.18994E-12 1.01488E-10
1.71346E-12 1.01459E-10
2.33225E-12 1.01426E-10
3.04617E-12 1.01386E-10
3.85530E-12 1.01342E-10
4.75964E-12 1.01293E-10
5.75917E-12 1.01238E-10
6.85391E-12 1.01178E-10
8.04379E-12 1.01114E-10
9.32893E-12 1.01044E-10
1.07092E-11 1.00969E-10
1.21847E-11 1.00889E-10
1.37554E-11 1.00804E-10
1.54213E-11 1.00714E-10
1.71823E-11 1.00619E-10
1.90386E-11 1.00519E-10
2.09900E-11 1.00414E-10
2.30367E-11 1.00304E-10
2.51785E-11 1.00189E-10
2.74156E-11 1.00070E-10
2.97478E-11 9.99456E-11
3.21752E-11 9.98164E-11
3.46979E-11 9.96825E-11
3.73157E-11 9.95439E-11
4.00286E-11 9.94007E-11
4.28368E-11 9.92527E-11
4.57402E-11 9.91002E-11
4.87388E-11 9.89431E-11
5.18325E-11 9.87815E-11
5.50215E-11 9.86154E-11
5.83057E-11 9.84448E-11
6.16850E-11 9.82699E-11
6.51595E-11 9.80905E-11
6.87293E-11 9.79069E-11
7.23943E-11 9.77189E-11
7.61544E-11 9.75268E-11
1.18991E-10 9.53787E-11
1.71347E-10 9.28731E-11
2.33223E-10 9.00448E-11
3.04617E-10 8.69656E-11
3.85531E-10 8.36968E-11
4.75965E-10 8.02969E-11
5.75917E-10 7.68200E-11
6.85389E-10 7.33053E-11
8.04380E-10 6.97807E-11
9.32891E-10 6.63045E-11
1.07092E-09 6.29064E-11
1.21847E-09 5.96095E-11
1.37554E-09 5.64310E-11
1.54213E-09 5.33726E-11
1.71823E-09 5.04404E-11
1.90386E-09 4.76540E-11
2.09900E-09 4.50144E-11
2.30367E-09 4.25203E-11
2.51785E-09 4.01686E-11
2.74156E-09 3.79459E-11
2.97478E-09 3.58508E-11
3.21752E-09 3.38843E-11
3.46978E-09 3.20398E-11
3.73156E-09 3.03103E-11
4.00286E-09 2.86889E-11
4.28368E-09 2.71625E-11
4.57402E-09 2.57295E-11
4.87388E-09 2.43866E-11
5.18326E-09 2.31277E-11
5.50215E-09 2.19470E-11
5.83057E-09 2.08391E-11
6.16850E-09 1.97941E-11
6.51596E-09 1.88121E-11
6.87293E-09 1.78896E-11
7.23942E-09 1.70224E-11
7.61544E-09 1.62066E-11
1.18991E-08 1.01238E-11
1.71347E-08 6.69461E-12
2.33223E-08 4.55615E-12
3.04617E-08 3.21886E-12
3.85531E-08 2.34492E-12
4.75965E-08 1.75250E-12
5.75917E-08 1.33807E-12
6.85389E-08 1.03895E-12
8.04380E-08 8.17107E-13
9.32891E-08 6.51165E-13
1.07092E-07 5.24764E-13
1.21847E-07 4.27032E-13
1.37554E-07 3.50527E-13
1.54213E-07 2.89845E-13
1.71823E-07 2.41358E-13
1.90386E-07 2.02499E-13
2.09900E-07 1.71102E-13
2.30367E-07 1.45544E-13
2.51785E-07 1.24599E-13
2.74156E-07 1.07336E-13
2.97478E-07 9.29012E-14
3.21752E-07 8.08503E-14
3.46978E-07 7.07373E-14
3.73156E-07 6.21983E-14
4.00286E-07 5.49439E-14
4.28368E-07 4.87347E-14
4.57402E-07 4.33917E-14
4.87388E-07 3.87716E-14
5.18325E-07 3.47569E-14
5.50215E-07 3.12528E-14
5.83057E-07 2.81822E-14
6.16850E-07 2.54780E-14
6.51596E-07 2.30927E-14
6.87293E-07 2.09827E-14
7.23942E-07 1.91105E-14
7.61543E-07 1.74442E-14
1.18991E-06 7.72365E-15
1.71347E-06 3.92681E-15
2.33223E-06 2.20107E-15
3.04617E-06 1.32706E-15
3.85531E-06 8.46733E-16
4.75964E-06 5.65350E-16
5.75916E-06 3.91785E-16
6.85388E-06 2.80050E-16
8.04378E-06 2.05481E-16
9.32888E-06 1.54164E-16
1.07092E-05 1.17907E-16
1.21846E-05 9.17028E-17
1.37553E-05 7.23820E-17
1.54212E-05 5.78849E-17
1.71822E-05 4.68365E-17
1.90385E-05 3.82761E-17
2.09899E-05 3.16204E-17
2.30365E-05 2.63436E-17
2.51783E-05 2.21149E-17
2.74153E-05 1.86955E-17
2.97475E-05 1.59089E-17
3.21749E-05 1.36220E-17
3.46974E-05 1.17325E-17
3.73152E-05 1.01608E-17
4.00281E-05 8.84460E-18
4.28362E-05 7.73520E-18
4.57395E-05 6.79431E-18
4.87380E-05 5.99184E-18
5.18317E-05 5.30399E-18
5.50205E-05 4.71175E-18
5.83045E-05 4.19979E-18
6.16838E-05 3.75553E-18
6.51582E-05 3.36859E-18
6.87277E-05 3.03033E-18
7.23925E-05 2.73356E-18
7.61524E-05 2.47230E-18
9.21439E-05 1.69307E-18
1.09658E-04 1.19788E-18
1.28695E-04 8.71182E-19
1.49255E-04 6.48536E-19
1.71338E-04 4.92653E-19
1.94942E-04 3.80867E-19
2.20070E-04 2.99033E-19
2.46720E-04 2.38022E-19
2.74892E-04 1.91787E-19
3.04586E-04 1.56240E-19
3.35803E-04 1.28549E-19
3.68542E-04 1.06720E-19
4.02802E-04 8.93283E-20
4.38585E-04 7.53338E-20
4.75889E-04 6.39711E-20
5.14715E-04 5.46689E-20
5.55063E-04 4.69946E-20
5.96931E-04 4.06187E-20
6.40321E-04 3.52864E-20
6.85233E-04 3.07993E-20
7.31665E-04 2.70021E-20
7.79618E-04 2.37711E-20
8.29092E-04 2.10084E-20
8.80086E-04 1.86348E-20
9.32601E-04 1.65864E-20
9.86636E-04 1.48113E-20
1.04219E-03 1.32668E-20
1.09927E-03 1.19181E-20
1.15786E-03 1.07361E-20
1.21797E-03 9.69668E-21
1.27961E-03 8.77976E-21
1.34276E-03 7.96842E-21
1.40743E-03 7.24844E-21
1.47362E-03 6.60774E-21
1.54133E-03 6.03610E-21
1.61056E-03 5.52479E-21
1.68131E-03 5.06633E-21
1.75357E-03 4.65432E-21
1.82735E-03 4.28323E-21
1.90265E-03 3.94828E-21
1.97947E-03 3.64534E-21
2.05780E-03 3.37082E-21
2.13765E-03 3.12157E-21
2.21902E-03 2.89486E-21
2.30190E-03 2.68830E-21
2.38630E-03 2.49977E-21
2.47222E-03 2.32742E-21
2.55965E-03 2.16962E-21
2.64859E-03 2.02493E-21
2.73905E-03 1.89205E-21
2.83103E-03 1.76985E-21
2.92452E-03 1.65732E-21
3.01952E-03 1.55356E-21
3.11604E-03 1.45776E-21
3.21407E-03 1.36921E-21
3.31362E-03 1.28725E-21
3.41468E-03 1.21130E-21
3.51725E-03 1.14085E-21
3.62133E-03 1.07543E-21
3.72692E-03 1.01460E-21
3.83403E-03 9.58003E-22
3.94265E-03 9.05275E-22
4.05278E-03 8.56108E-22
4.16442E-03 8.10220E-22
4.27757E-03 7.67350E-22
4.39223E-03 7.27263E-22
4.50840E-03 6.89748E-22
4.62608E-03 6.54610E-22
4.74527E-03 6.21668E-22
4.86597E-03 5.90761E-22
4.98817E-03 5.61744E-22
5.11188E-03 5.34474E-22
5.23711E-03 5.08830E-22
5.36383E-03 4.84700E-22
5.49207E-03 4.61973E-22
5.62181E-03 4.40556E-22
5.75306E-03 4.20359E-22
5.88581E-03 4.01299E-22
6.02007E-03 3.83300E-22
6.15583E-03 3.66293E-22
6.29310E-03 3.50214E-22
6.43187E-03 3.35002E-22
6.57214E-03 3.20601E-22
6.71392E-03 3.06962E-22
6.85720E-03 2.94035E-22
7.00198E-03 2.81777E-22
7.14827E-03 2.70147E-22
7.29605E-03 2.59107E-22
7.44534E-03 2.48621E-22
7.59612E-03 2.38657E-22
7.97965E-03 2.15831E-22
8.37255E-03 1.95652E-22
8.77480E-03 1.77761E-22
9.18641E-03 1.61855E-22
9.60736E-03 1.47676E-22
1.00376E-02 1.35005E-22
1.04773E-02 1.23654E-22
1.09262E-02 1.13462E-22
1.13844E-02 1.04290E-22
1.18520E-02 9.60194E-23
1.23288E-02 8.85462E-23
1.28150E-02 8.17807E-23
1.33104E-02 7.56400E-23
1.38150E-02 7.00596E-23
1.43290E-02 6.49795E-23
1.48521E-02 6.03470E-23
1.53845E-02 5.61158E-23
1.59262E-02 5.22453E-23
1.64770E-02 4.86991E-23
1.70371E-02 4.54455E-23
1.76063E-02 4.24561E-23
1.81848E-02 3.97057E-23
1.87724E-02 3.71718E-23
1.93692E-02 3.48345E-23
1.99751E-02 3.26757E-23
2.05901E-02 3.06795E-23
2.12143E-02 2.88315E-23
2.18476E-02 2.71188E-23
2.24900E-02 2.55296E-23
2.31415E-02 2.40536E-23
2.38021E-02 2.26812E-23
2.44717E-02 2.14039E-23
2.51504E-02 2.02140E-23
2.58382E-02 1.91044E-23
2.65349E-02 1.80688E-23
2.72407E-02 1.71013E-23
2.79555E-02 1.61967E-23
2.86793E-02 1.53502E-23
2.94120E-02 1.45574E-23
3.01537E-02 1.38142E-23
3.09043E-02 1.31171E-23
3.16639E-02 1.24626E-23
3.24324E-02 1.18478E-23
3.32098E-02 1.12697E-23
3.39961E-02 1.07258E-23
3.47912E-02 1.02137E-23
3.55952E-02 9.73129E-24
3.64081E-02 9.27646E-24
3.72297E-02 8.84739E-24
3.80602E-02 8.44235E-24
3.88995E-02 8.05976E-24
3.97476E-02 7.69817E-24
4.06044E-02 7.35621E-24
4.14700E-02 7.03263E-24
4.23443E-02 6.72628E-24
4.32273E-02 6.43607E-24
4.41190E-02 6.16100E-24
4.50194E-02 5.90014E-24
4.59284E-02 5.65264E-24
4.68461E-02 5.41769E-24
4.87074E-02 4.98248E-24
5.06030E-02 4.58913E-24
5.25328E-02 4.23296E-24
5.44967E-02 3.90986E-24
5.64946E-02 3.61626E-24
5.85262E-02 3.34903E-24
6.05914E-02 3.10540E-24
6.26901E-02 2.88295E-24
6.48222E-02 2.67953E-24
6.69873E-02 2.49324E-24
6.91854E-02 2.32241E-24
7.14163E-02 2.16554E-24
7.36799E-02 2.02131E-24
7.59760E-02 1.88852E-24
7.83043E-02 1.76613E-24
8.06647E-02 1.65318E-24
8.30571E-02 1.54882E-24
8.54812E-02 1.45230E-24
8.79369E-02 1.36293E-24
9.04240E-02 1.28010E-24
9.29422E-02 1.20324E-24
9.54915E-02 1.13187E-24
9.80716E-02 1.06551E-24
1.00682E-01 1.00377E-24
1.03323E-01 9.46265E-25
1.05995E-01 8.92664E-25
1.08696E-01 8.42656E-25
1.11427E-01 7.95963E-25
1.14188E-01 7.52329E-25
1.16978E-01 7.11521E-25
1.19797E-01 6.73328E-25
1.22645E-01 6.37554E-25
1.25522E-01 6.04022E-25
1.28428E-01 5.72569E-25
1.31361E-01 5.43046E-25
1.34323E-01 5.15315E-25
1.37313E-01 4.89251E-25
1.40330E-01 4.64736E-25
1.43375E-01 4.41666E-25
1.46447E-01 4.19940E-25
1.49545E-01 3.99469E-25
1.52671E-01 3.80169E-25
1.55823E-01 3.61961E-25
1.59001E-01 3.44775E-25
1.62205E-01 3.28545E-25
1.65435E-01 3.13208E-25
1.68690E-01 2.98709E-25
1.71970E-01 2.84994E-25
1.75276E-01 2.72014E-25
1.78606E-01 2.59724E-25
1.81961E-01 2.48082E-25
1.85340E-01 2.37047E-25
1.88743E-01 2.26585E-25
1.92169E-01 2.16660E-25
1.95619E-01 2.07240E-25
1.99092E-01 1.98296E-25
2.02589E-01 1.89801E-25
2.06107E-01 1.81728E-25
2.09649E-01 1.74054E-25
2.13212E-01 1.66755E-25
2.16797E-01 1.59810E-25
2.20404E-01 1.53201E-25
2.24032E-01 1.46907E-25
2.27680E-01 1.40913E-25
2.31350E-01 1.35201E-25
2.35040E-01 1.29756E-25
2.38751E-01 1.24564E-25
2.42481E-01 1.19611E-25
2.46231E-01 1.14886E-25
2.50000E-01 1.10375E-25
2.53788E-01 1.06068E-25
2.57595E-01 1.01954E-25
2.61421E-01 9.80231E-26
2.65264E-01 9.42663E-26
2.69126E-01 9.06746E-26
2.73005E-01 8.72398E-26
2.76901E-01 8.39539E-26
2.80814E-01 8.08097E-26
2.84744E-01 7.78000E-26
2.88691E-01 7.49185E-26
2.92653E-01 7.21588E-26
2.96632E-01 6.95150E-26
3.00625E-01 6.69817E-26
3.04634E-01 6.45535E-26
3.08658E-01 6.22255E-26
3.12697E-01 5.99929E-26
3.16749E-01 5.78514E-26
3.20816E-01 5.57967E-26
3.24896E-01 5.38248E-26
3.28990E-01 5.19319E-26
3.33097E-01 5.01144E-26
3.37216E-01 4.83689E-26
3.41348E-01 4.66922E-26
3.45492E-01 4.50811E-26
3.49647E-01 4.35328E-26
3.53814E-01 4.20445E-26
3.57992E-01 4.06135E-26
3.62181E-01 3.92374E-26
3.66381E-01 3.79137E-26
3.70590E-01 3.66403E-26
3.74810E-01 3.54149E-26
3.79039E-01 3.42355E-26
3.83277E-01 3.31001E-26
3.87524E-01 3.20070E-26
3.91780E-01 3.09542E-26
3.96044E-01 2.99402E-26
4.00316E-01 2.89633E-26
4.04596E-01 2.80219E-26
4.08882E-01 2.71147E-26
4.13176E-01 2.62402E-26
4.17476E-01 2.53971E-26
4.21783E-01 2.45842E-26
4.26095E-01 2.38001E-26
4.30413E-01 2.30438E-26
4.34737E-01 2.23142E-26
4.39065E-01 2.16101E-26
4.43398E-01 2.09306E-26
4.47736E-01 2.02748E-26
4.52077E-01 1.96416E-26
4.56422E-01 1.90303E-26
4.60770E-01 1.84399E-26
4.65122E-01 1.78697E-26
4.69476E-01 1.73189E-26
4.73832E-01 1.67867E-26
4.78190E-01 1.62725E-26
4.82550E-01 1.57755E-26
4.86912E-01 1.52952E-26
4.91274E-01 1.48308E-26
4.95637E-01 1.43819E-26
5.00000E-01 1.39477E-26
5.04363E-01 1.35279E-26
5.08726E-01 1.31218E-26
5.13088E-01 1.27290E-26
5.17450E-01 1.23489E-26
5.21810E-01 1.19811E-26
5.26168E-01 1.16252E-26
5.30524E-01 1.12807E-26
5.34878E-01 1.09473E-26
5.39230E-01 1.06245E-26
5.43578E-01 1.03119E-26
5.47923E-01 1.00092E-26
5.52264E-01 9.71612E-27
5.56602E-01 9.43220E-27
5.60935E-01 9.15717E-27
5.65263E-01 8.89071E-27
5.69587E-01 8.63253E-27
5.73905E-01 8.38235E-27
5.78217E-01 8.13989E-27
5.82524E-01 7.90488E-27
5.86824E-01 7.67708E-27
5.91118E-01 7.45623E-27
5.95404E-01 7.24210E-27
5.99684E-01 7.03447E-27
6.03956E-01 6.83311E-27
6.08220E-01 6.63782E-27
6.12476E-01 6.44840E-27
6.16723E-01 6.26465E-27
6.20961E-01 6.08637E-27
6.25190E-01 5.91340E-27
6.29410E-01 5.74556E-27
6.33619E-01 5.58268E-27
6.37819E-01 5.42460E-27
6.42008E-01 5.27115E-27
6.46186E-01 5.12221E-27
6.50353E-01 4.97761E-27
6.54508E-01 4.83721E-27
6.58652E-01 4.70089E-27
6.62784E-01 4.56852E-27
6.66903E-01 4.43996E-27
6.71010E-01 4.31510E-27
6.75104E-01 4.19382E-27
6.79184E-01 4.07601E-27
6.83251E-01 3.96156E-27
6.87303E-01 3.85036E-27
6.91342E-01 3.74232E-27
6.95366E-01 3.63733E-27
6.99375E-01 3.53531E-27
7.03368E-01 3.43615E-27
7.07347E-01 3.33977E-27
7.11309E-01 3.24609E-27
7.15256E-01 3.15503E-27
7.19186E-01 3.06650E-27
7.23099E-01 2.98043E-27
7.26995E-01 2.89674E-27
7.30874E-01 2.81537E-27
7.34736E-01 2.73623E-27
7.38579E-01 2.65928E-27
7.42405E-01 2.58443E-27
7.46212E-01 2.51164E-27
7.50000E-01 2.44083E-27
7.53769E-01 2.37195E-27
7.57519E-01 2.30494E-27
7.61249E-01 2.23975E-27
7.64960E-01 2.17632E-27
7.68650E-01 2.11461E-27
7.72320E-01 2.05456E-27
7.75968E-01 1.99612E-27
7.79596E-01 1.93925E-27
7.83203E-01 1.88391E-27
7.86788E-01 1.83005E-27
7.90351E-01 1.77762E-27
7.93893E-01 1.72659E-27
7.97411E-01 1.67692E-27
8.00908E-01 1.62856E-27
8.04381E-01 1.58149E-27
8.07831E-01 1.53566E-27
8.11257E-01 1.49105E-27
8.14660E-01 1.44761E-27
8.18039E-01 1.40531E-27
8.21394E-01 1.36413E-27
8.24724E-01 1.32402E-27
8.28030E-01 1.28497E-27
8.31310E-01 1.24695E-27
8.34565E-01 1.20991E-27
8.37795E-01 1.17385E-27
8.40999E-01 1.13873E-27
8.44177E-01 1.10452E-27
8.47329E-01 1.07120E-27
8.50455E-01 1.03875E-27
8.53553E-01 1.00715E-27
8.56625E-01 9.76367E-28
8.59670E-01 9.46385E-28
8.62687E-01 9.17181E-28
8.65677E-01 8.88735E-28
8.68639E-01 8.61028E-28
8.71572E-01 8.34039E-28
8.74478E-01 8.07750E-28
8.77355E-01 7.82144E-28
8.80203E-01 7.57202E-28
8.83022E-01 7.32907E-28
8.85812E-01 7.09243E-28
8.88573E-01 6.86193E-28
8.91304E-01 6.63743E-28
8.94005E-01 6.41876E-28
8.96677E-01 6.20579E-28
8.99318E-01 5.99836E-28
9.01928E-01 5.79635E-28
9.04508E-01 5.59961E-28
9.07058E-01 5.40801E-28
9.09576E-01 5.22144E-28
9.12063E-01 5.03977E-28
9.14519E-01 4.86287E-28
9.16943E-01 4.69063E-28
9.19335E-01 4.52295E-28
9.21696E-01 4.35971E-28
9.24024E-01 4.20080E-28
9.26320E-01 4.04613E-28
9.28584E-01 3.89560E-28
9.30815E-01 3.74911E-28
9.33013E-01 3.60656E-28
9.35178E-01 3.46787E-28
9.37310E-01 3.33294E-28
9.39409E-01 3.20170E-28
9.41474E-01 3.07406E-28
9.43505E-01 2.94994E-28
9.45503E-01 2.82926E-28
9.47467E-01 2.71195E-28
9.49397E-01 2.59793E-28
9.51293E-01 2.48714E-28
9.53154E-01 2.37950E-28
9.54981E-01 2.27495E-28
9.56773E-01 2.17343E-28
9.58530E-01 2.07487E-28
9.60252E-01 1.97921E-28
9.61940E-01 1.88640E-28
9.63592E-01 1.79637E-28
9.65209E-01 1.70908E-28
9.66790E-01 1.62447E-28
9.68336E-01 1.54249E-28
9.69846E-01 1.46308E-28
9.71321E-01 1.38621E-28
9.72759E-01 1.31183E-28
9.74162E-01 1.23989E-28
9.75528E-01 1.17034E-28
9.76858E-01 1.10315E-28
9.78152E-01 1.03828E-28
9.79410E-01 9.75694E-29
9.80631E-01 9.15345E-29
9.81815E-01 8.57203E-29
9.82963E-01 8.01233E-29
9.84074E-01 7.47401E-29
9.85148E-01 6.95677E-29
9.86185E-01 6.46029E-29
9.87185E-01 5.98430E-29
9.88148E-01 5.52851E-29
9.89074E-01 5.09265E-29
9.89962E-01 4.67647E-29
9.90814E-01 4.27973E-29
9.91627E-01 3.90219E-29
9.92404E-01 3.54365E-29
9.93143E-01 3.20388E-29
9.93844E-01 2.88270E-29
9.94508E-01 2.57991E-29
9.95134E-01 2.29535E-29
9.95722E-01 2.02884E-29
9.96273E-01 1.78024E-29
9.96786E-01 1.54940E-29
9.97261E-01 1.33618E-29
9.97698E-01 1.14047E-29
9.98097E-01 9.62158E-30
9.98459E-01 8.01130E-30
9.98782E-01 6.57300E-30
9.99067E-01 5.30585E-30
9.99315E-01 4.20911E-30
9.99524E-01 3.28217E-30
9.99695E-01 2.52448E-30
9.99829E-01 1.93562E-30
9.99924E-01 1.51525E-30
9.99981E-01 1.26312E-30
1.00000E+00 1.17909E-30
