 #
 # Subroutine ELSEPA. Elastic scattering of electrons and positrons
 #                    by neutral atoms and positive ions
 #
 # Projectile: positron
 # Kinetic energy = 1.00000E+07 eV = 3.67493E+05 a.u.
 #
 # WARNING: High-energy factorization with free-atom DF screening.
 #          Absorption, polarization and exchange corrections are
 #          switched off.
 #          Phase shifts are calculated for the bare nucleus.
 #          Scattering amplitudes are not evaluated.
 #
 # Element: Ir,  Z =  77,  atomic weight = 1.92217E+02 g/mol
 #
 # Nuclear model: Fermi distribution
 #                Average radius = 6.17515E-13 cm
 #                Skin thickness = 5.46000E-14 cm
 #
 # Number of electrons = 77
 #
 # Total elastic cross section = 7.75423E-18 cm**2 = 2.76909E-01 a0**2
 # 1st transport cross section = 7.32609E-23 cm**2 = 2.61619E-06 a0**2
 # 2nd transport cross section = 2.11908E-22 cm**2 = 7.56738E-06 a0**2
 #
 #
 # Differential cross section:                       MU=(1-COS(THETA))/2
 #
 #  THETA        MU          DCS          DCS        Sherman      error
 #  (deg)                 (cm**2/sr)   (a0**2/sr)    function
 #----------------------------------------------------------------------
0.00000E+00 5.41692E-12
7.61557E-13 5.41679E-12
1.18994E-12 5.41673E-12
1.71346E-12 5.41664E-12
2.33225E-12 5.41654E-12
3.04617E-12 5.41643E-12
3.85530E-12 5.41630E-12
4.75964E-12 5.41616E-12
5.75917E-12 5.41600E-12
6.85391E-12 5.41583E-12
8.04379E-12 5.41564E-12
9.32893E-12 5.41544E-12
1.07092E-11 5.41522E-12
1.21847E-11 5.41499E-12
1.37554E-11 5.41474E-12
1.54213E-11 5.41448E-12
1.71823E-11 5.41420E-12
1.90386E-11 5.41391E-12
2.09900E-11 5.41361E-12
2.30367E-11 5.41329E-12
2.51785E-11 5.41295E-12
2.74156E-11 5.41260E-12
2.97478E-11 5.41224E-12
3.21752E-11 5.41186E-12
3.46979E-11 5.41147E-12
3.73157E-11 5.41106E-12
4.00286E-11 5.41063E-12
4.28368E-11 5.41020E-12
4.57402E-11 5.40974E-12
4.87388E-11 5.40928E-12
5.18325E-11 5.40879E-12
5.50215E-11 5.40830E-12
5.83057E-11 5.40779E-12
6.16850E-11 5.40726E-12
6.51595E-11 5.40672E-12
6.87293E-11 5.40616E-12
7.23943E-11 5.40559E-12
7.61544E-11 5.40501E-12
1.18991E-10 5.39836E-12
1.71347E-10 5.39027E-12
2.33223E-10 5.38073E-12
3.04617E-10 5.36977E-12
3.85531E-10 5.35739E-12
4.75965E-10 5.34362E-12
5.75917E-10 5.32848E-12
6.85389E-10 5.31198E-12
8.04380E-10 5.29415E-12
9.32891E-10 5.27501E-12
1.07092E-09 5.25459E-12
1.21847E-09 5.23291E-12
1.37554E-09 5.21001E-12
1.54213E-09 5.18591E-12
1.71823E-09 5.16065E-12
1.90386E-09 5.13426E-12
2.09900E-09 5.10673E-12
2.30367E-09 5.07784E-12
2.51785E-09 5.04807E-12
2.74156E-09 5.01747E-12
2.97478E-09 4.98608E-12
3.21752E-09 4.95396E-12
3.46978E-09 4.92027E-12
3.73156E-09 4.88580E-12
4.00286E-09 4.85074E-12
4.28368E-09 4.81513E-12
4.57402E-09 4.77904E-12
4.87388E-09 4.74167E-12
5.18326E-09 4.70344E-12
5.50215E-09 4.66486E-12
5.83057E-09 4.62598E-12
6.16850E-09 4.58684E-12
6.51596E-09 4.54686E-12
6.87293E-09 4.50582E-12
7.23942E-09 4.46467E-12
7.61544E-09 4.42344E-12
1.18991E-08 3.99632E-12
1.71347E-08 3.56540E-12
2.33223E-08 3.15340E-12
3.04617E-08 2.77405E-12
3.85531E-08 2.43372E-12
4.75965E-08 2.13370E-12
5.75917E-08 1.87210E-12
6.85389E-08 1.64531E-12
8.04380E-08 1.44932E-12
9.32891E-08 1.28020E-12
1.07092E-07 1.13412E-12
1.21847E-07 1.00770E-12
1.37554E-07 8.98005E-13
1.54213E-07 8.02547E-13
1.71823E-07 7.19222E-13
1.90386E-07 6.46263E-13
2.09900E-07 5.81688E-13
2.30367E-07 5.21218E-13
2.51785E-07 4.70090E-13
2.74156E-07 4.26576E-13
2.97478E-07 3.89310E-13
3.21752E-07 3.57206E-13
3.46978E-07 3.24861E-13
3.73156E-07 2.96252E-13
4.00286E-07 2.71405E-13
4.28368E-07 2.49721E-13
4.57402E-07 2.30709E-13
4.87388E-07 2.12462E-13
5.18325E-07 1.95605E-13
5.50215E-07 1.80720E-13
5.83057E-07 1.67527E-13
6.16850E-07 1.55791E-13
6.51596E-07 1.44843E-13
6.87293E-07 1.34434E-13
7.23942E-07 1.25118E-13
7.61543E-07 1.16755E-13
1.18991E-06 6.20508E-14
1.71347E-06 3.59403E-14
2.33223E-06 2.20780E-14
3.04617E-06 1.41894E-14
3.85531E-06 9.48288E-15
4.75964E-06 6.56656E-15
5.75916E-06 4.69323E-15
6.85388E-06 3.44825E-15
8.04378E-06 2.59766E-15
9.32888E-06 1.99743E-15
1.07092E-05 1.56207E-15
1.21846E-05 1.23961E-15
1.37553E-05 9.96662E-16
1.54212E-05 8.10692E-16
1.71822E-05 6.66167E-16
1.90385E-05 5.52040E-16
2.09899E-05 4.61770E-16
2.30365E-05 3.88871E-16
2.51783E-05 3.30253E-16
2.74153E-05 2.81729E-16
2.97475E-05 2.42071E-16
3.21749E-05 2.08916E-16
3.46974E-05 1.81411E-16
3.73152E-05 1.58207E-16
4.00281E-05 1.38680E-16
4.28362E-05 1.22033E-16
4.57395E-05 1.07835E-16
4.87380E-05 9.56171E-17
5.18317E-05 8.50829E-17
5.50205E-05 7.59497E-17
5.83045E-05 6.80064E-17
6.16838E-05 6.10767E-17
6.51582E-05 5.50044E-17
6.87277E-05 4.96749E-17
7.23925E-05 4.49707E-17
7.61524E-05 4.08166E-17
9.21439E-05 2.82997E-17
1.09658E-04 2.02327E-17
1.28695E-04 1.48478E-17
1.49255E-04 1.11407E-17
1.71338E-04 8.52180E-18
1.94942E-04 6.62853E-18
2.20070E-04 5.23239E-18
2.46720E-04 4.18462E-18
2.74892E-04 3.38591E-18
3.04586E-04 2.76855E-18
3.35803E-04 2.28535E-18
3.68542E-04 1.90284E-18
4.02802E-04 1.59691E-18
4.38585E-04 1.34990E-18
4.75889E-04 1.14874E-18
5.14715E-04 9.83606E-19
5.55063E-04 8.47038E-19
5.96931E-04 7.33322E-19
6.40321E-04 6.38025E-19
6.85233E-04 5.57686E-19
7.31665E-04 4.89580E-19
7.79618E-04 4.31539E-19
8.29092E-04 3.81836E-19
8.80086E-04 3.39072E-19
9.32601E-04 3.02120E-19
9.86636E-04 2.70058E-19
1.04219E-03 2.42130E-19
1.09927E-03 2.17714E-19
1.15786E-03 1.96293E-19
1.21797E-03 1.77437E-19
1.27961E-03 1.60788E-19
1.34276E-03 1.46042E-19
1.40743E-03 1.32945E-19
1.47362E-03 1.21280E-19
1.54133E-03 1.10863E-19
1.61056E-03 1.01539E-19
1.68131E-03 9.31719E-20
1.75357E-03 8.56469E-20
1.82735E-03 7.88643E-20
1.90265E-03 7.27381E-20
1.97947E-03 6.71936E-20
2.05780E-03 6.21659E-20
2.13765E-03 5.75980E-20
2.21902E-03 5.34409E-20
2.30190E-03 4.96512E-20
2.38630E-03 4.61901E-20
2.47222E-03 4.30243E-20
2.55965E-03 4.01242E-20
2.64859E-03 3.74636E-20
2.73905E-03 3.50192E-20
2.83103E-03 3.27699E-20
2.92452E-03 3.06977E-20
3.01952E-03 2.87861E-20
3.11604E-03 2.70205E-20
3.21407E-03 2.53875E-20
3.31362E-03 2.38755E-20
3.41468E-03 2.24739E-20
3.51725E-03 2.11733E-20
3.62133E-03 1.99650E-20
3.72692E-03 1.88412E-20
3.83403E-03 1.77951E-20
3.94265E-03 1.68202E-20
4.05278E-03 1.59109E-20
4.16442E-03 1.50619E-20
4.27757E-03 1.42685E-20
4.39223E-03 1.35264E-20
4.50840E-03 1.28317E-20
4.62608E-03 1.21807E-20
4.74527E-03 1.15704E-20
4.86597E-03 1.09975E-20
4.98817E-03 1.04596E-20
5.11188E-03 9.95388E-21
5.23711E-03 9.47823E-21
5.36383E-03 9.03050E-21
5.49207E-03 8.60876E-21
5.62181E-03 8.21122E-21
5.75306E-03 7.83621E-21
5.88581E-03 7.48226E-21
6.02007E-03 7.14795E-21
6.15583E-03 6.83201E-21
6.29310E-03 6.53321E-21
6.43187E-03 6.25048E-21
6.57214E-03 5.98278E-21
6.71392E-03 5.72918E-21
6.85720E-03 5.48879E-21
7.00198E-03 5.26080E-21
7.14827E-03 5.04444E-21
7.29605E-03 4.83903E-21
7.44534E-03 4.64390E-21
7.59612E-03 4.45844E-21
7.97965E-03 4.03349E-21
8.37255E-03 3.65768E-21
8.77480E-03 3.32436E-21
9.18641E-03 3.02791E-21
9.60736E-03 2.76357E-21
1.00376E-02 2.52727E-21
1.04773E-02 2.31552E-21
1.09262E-02 2.12533E-21
1.13844E-02 1.95414E-21
1.18520E-02 1.79972E-21
1.23288E-02 1.66014E-21
1.28150E-02 1.53374E-21
1.33104E-02 1.41904E-21
1.38150E-02 1.31479E-21
1.43290E-02 1.21986E-21
1.48521E-02 1.13328E-21
1.53845E-02 1.05419E-21
1.59262E-02 9.81813E-22
1.64770E-02 9.15494E-22
1.70371E-02 8.54633E-22
1.76063E-02 7.98702E-22
1.81848E-02 7.47233E-22
1.87724E-02 6.99806E-22
1.93692E-02 6.56049E-22
1.99751E-02 6.15628E-22
2.05901E-02 5.78243E-22
2.12143E-02 5.43626E-22
2.18476E-02 5.11537E-22
2.24900E-02 4.81757E-22
2.31415E-02 4.54093E-22
2.38021E-02 4.28365E-22
2.44717E-02 4.04417E-22
2.51504E-02 3.82100E-22
2.58382E-02 3.61287E-22
2.65349E-02 3.41856E-22
2.72407E-02 3.23701E-22
2.79555E-02 3.06722E-22
2.86793E-02 2.90829E-22
2.94120E-02 2.75941E-22
3.01537E-02 2.61983E-22
3.09043E-02 2.48887E-22
3.16639E-02 2.36589E-22
3.24324E-02 2.25033E-22
3.32098E-02 2.14166E-22
3.39961E-02 2.03939E-22
3.47912E-02 1.94307E-22
3.55952E-02 1.85231E-22
3.64081E-02 1.76672E-22
3.72297E-02 1.68596E-22
3.80602E-02 1.60970E-22
3.88995E-02 1.53765E-22
3.97476E-02 1.46954E-22
4.06044E-02 1.40511E-22
4.14700E-02 1.34412E-22
4.23443E-02 1.28636E-22
4.32273E-02 1.23163E-22
4.41190E-02 1.17975E-22
4.50194E-02 1.13052E-22
4.59284E-02 1.08381E-22
4.68461E-02 1.03945E-22
4.87074E-02 9.57237E-23
5.06030E-02 8.82888E-23
5.25328E-02 8.15520E-23
5.44967E-02 7.54366E-23
5.64946E-02 6.98757E-23
5.85262E-02 6.48105E-23
6.05914E-02 6.01891E-23
6.26901E-02 5.59662E-23
6.48222E-02 5.21016E-23
6.69873E-02 4.85596E-23
6.91854E-02 4.53087E-23
7.14163E-02 4.23211E-23
7.36799E-02 3.95715E-23
7.59760E-02 3.70379E-23
7.83043E-02 3.47004E-23
8.06647E-02 3.25412E-23
8.30571E-02 3.05443E-23
8.54812E-02 2.86956E-23
8.79369E-02 2.69821E-23
9.04240E-02 2.53921E-23
9.29422E-02 2.39154E-23
9.54915E-02 2.25425E-23
9.80716E-02 2.12646E-23
1.00682E-01 2.00743E-23
1.03323E-01 1.89644E-23
1.05995E-01 1.79286E-23
1.08696E-01 1.69611E-23
1.11427E-01 1.60566E-23
1.14188E-01 1.52102E-23
1.16978E-01 1.44177E-23
1.19797E-01 1.36750E-23
1.22645E-01 1.29784E-23
1.25522E-01 1.23246E-23
1.28428E-01 1.17105E-23
1.31361E-01 1.11332E-23
1.34323E-01 1.05903E-23
1.37313E-01 1.00792E-23
1.40330E-01 9.59781E-24
1.43375E-01 9.14410E-24
1.46447E-01 8.71619E-24
1.49545E-01 8.31237E-24
1.52671E-01 7.93106E-24
1.55823E-01 7.57077E-24
1.59001E-01 7.23015E-24
1.62205E-01 6.90795E-24
1.65435E-01 6.60298E-24
1.68690E-01 6.31419E-24
1.71970E-01 6.04055E-24
1.75276E-01 5.78114E-24
1.78606E-01 5.53510E-24
1.81961E-01 5.30160E-24
1.85340E-01 5.07991E-24
1.88743E-01 4.86933E-24
1.92169E-01 4.66920E-24
1.95619E-01 4.47892E-24
1.99092E-01 4.29791E-24
2.02589E-01 4.12566E-24
2.06107E-01 3.96165E-24
2.09649E-01 3.80545E-24
2.13212E-01 3.65659E-24
2.16797E-01 3.51469E-24
2.20404E-01 3.37936E-24
2.24032E-01 3.25026E-24
2.27680E-01 3.12703E-24
2.31350E-01 3.00937E-24
2.35040E-01 2.89699E-24
2.38751E-01 2.78962E-24
2.42481E-01 2.68695E-24
2.46231E-01 2.58875E-24
2.50000E-01 2.49481E-24
2.53788E-01 2.40492E-24
2.57595E-01 2.31887E-24
2.61421E-01 2.23647E-24
2.65264E-01 2.15754E-24
2.69126E-01 2.08191E-24
2.73005E-01 2.00942E-24
2.76901E-01 1.93991E-24
2.80814E-01 1.87325E-24
2.84744E-01 1.80929E-24
2.88691E-01 1.74790E-24
2.92653E-01 1.68898E-24
2.96632E-01 1.63239E-24
3.00625E-01 1.57804E-24
3.04634E-01 1.52582E-24
3.08658E-01 1.47563E-24
3.12697E-01 1.42737E-24
3.16749E-01 1.38098E-24
3.20816E-01 1.33635E-24
3.24896E-01 1.29341E-24
3.28990E-01 1.25208E-24
3.33097E-01 1.21230E-24
3.37216E-01 1.17400E-24
3.41348E-01 1.13711E-24
3.45492E-01 1.10158E-24
3.49647E-01 1.06734E-24
3.53814E-01 1.03433E-24
3.57992E-01 1.00252E-24
3.62181E-01 9.71843E-25
3.66381E-01 9.42256E-25
3.70590E-01 9.13714E-25
3.74810E-01 8.86174E-25
3.79039E-01 8.59595E-25
3.83277E-01 8.33938E-25
3.87524E-01 8.09165E-25
3.91780E-01 7.85242E-25
3.96044E-01 7.62134E-25
4.00316E-01 7.39808E-25
4.04596E-01 7.18235E-25
4.08882E-01 6.97384E-25
4.13176E-01 6.77227E-25
4.17476E-01 6.57738E-25
4.21783E-01 6.38891E-25
4.26095E-01 6.20661E-25
4.30413E-01 6.03025E-25
4.34737E-01 5.85960E-25
4.39065E-01 5.69444E-25
4.43398E-01 5.53458E-25
4.47736E-01 5.37981E-25
4.52077E-01 5.22995E-25
4.56422E-01 5.08482E-25
4.60770E-01 4.94423E-25
4.65122E-01 4.80804E-25
4.69476E-01 4.67607E-25
4.73832E-01 4.54818E-25
4.78190E-01 4.42422E-25
4.82550E-01 4.30404E-25
4.86912E-01 4.18753E-25
4.91274E-01 4.07454E-25
4.95637E-01 3.96495E-25
5.00000E-01 3.85865E-25
5.04363E-01 3.75552E-25
5.08726E-01 3.65545E-25
5.13088E-01 3.55834E-25
5.17450E-01 3.46408E-25
5.21810E-01 3.37258E-25
5.26168E-01 3.28375E-25
5.30524E-01 3.19749E-25
5.34878E-01 3.11372E-25
5.39230E-01 3.03235E-25
5.43578E-01 2.95332E-25
5.47923E-01 2.87653E-25
5.52264E-01 2.80191E-25
5.56602E-01 2.72941E-25
5.60935E-01 2.65894E-25
5.65263E-01 2.59043E-25
5.69587E-01 2.52384E-25
5.73905E-01 2.45909E-25
5.78217E-01 2.39613E-25
5.82524E-01 2.33490E-25
5.86824E-01 2.27535E-25
5.91118E-01 2.21742E-25
5.95404E-01 2.16106E-25
5.99684E-01 2.10622E-25
6.03956E-01 2.05286E-25
6.08220E-01 2.00094E-25
6.12476E-01 1.95039E-25
6.16723E-01 1.90120E-25
6.20961E-01 1.85330E-25
6.25190E-01 1.80667E-25
6.29410E-01 1.76127E-25
6.33619E-01 1.71705E-25
6.37819E-01 1.67399E-25
6.42008E-01 1.63205E-25
6.46186E-01 1.59119E-25
6.50353E-01 1.55139E-25
6.54508E-01 1.51261E-25
6.58652E-01 1.47482E-25
6.62784E-01 1.43800E-25
6.66903E-01 1.40212E-25
6.71010E-01 1.36714E-25
6.75104E-01 1.33305E-25
6.79184E-01 1.29981E-25
6.83251E-01 1.26741E-25
6.87303E-01 1.23582E-25
6.91342E-01 1.20502E-25
6.95366E-01 1.17498E-25
6.99375E-01 1.14568E-25
7.03368E-01 1.11711E-25
7.07347E-01 1.08924E-25
7.11309E-01 1.06205E-25
7.15256E-01 1.03553E-25
7.19186E-01 1.00966E-25
7.23099E-01 9.84409E-26
7.26995E-01 9.59774E-26
7.30874E-01 9.35734E-26
7.34736E-01 9.12273E-26
7.38579E-01 8.89376E-26
7.42405E-01 8.67027E-26
7.46212E-01 8.45213E-26
7.50000E-01 8.23918E-26
7.53769E-01 8.03130E-26
7.57519E-01 7.82834E-26
7.61249E-01 7.63019E-26
7.64960E-01 7.43671E-26
7.68650E-01 7.24778E-26
7.72320E-01 7.06330E-26
7.75968E-01 6.88313E-26
7.79596E-01 6.70718E-26
7.83203E-01 6.53533E-26
7.86788E-01 6.36749E-26
7.90351E-01 6.20354E-26
7.93893E-01 6.04340E-26
7.97411E-01 5.88697E-26
8.00908E-01 5.73415E-26
8.04381E-01 5.58485E-26
8.07831E-01 5.43900E-26
8.11257E-01 5.29650E-26
8.14660E-01 5.15727E-26
8.18039E-01 5.02124E-26
8.21394E-01 4.88832E-26
8.24724E-01 4.75844E-26
8.28030E-01 4.63152E-26
8.31310E-01 4.50751E-26
8.34565E-01 4.38632E-26
8.37795E-01 4.26789E-26
8.40999E-01 4.15216E-26
8.44177E-01 4.03906E-26
8.47329E-01 3.92854E-26
8.50455E-01 3.82052E-26
8.53553E-01 3.71496E-26
8.56625E-01 3.61180E-26
8.59670E-01 3.51098E-26
8.62687E-01 3.41245E-26
8.65677E-01 3.31616E-26
8.68639E-01 3.22205E-26
8.71572E-01 3.13009E-26
8.74478E-01 3.04021E-26
8.77355E-01 2.95238E-26
8.80203E-01 2.86656E-26
8.83022E-01 2.78269E-26
8.85812E-01 2.70073E-26
8.88573E-01 2.62065E-26
8.91304E-01 2.54240E-26
8.94005E-01 2.46594E-26
8.96677E-01 2.39124E-26
8.99318E-01 2.31826E-26
9.01928E-01 2.24696E-26
9.04508E-01 2.17731E-26
9.07058E-01 2.10928E-26
9.09576E-01 2.04283E-26
9.12063E-01 1.97793E-26
9.14519E-01 1.91454E-26
9.16943E-01 1.85265E-26
9.19335E-01 1.79221E-26
9.21696E-01 1.73321E-26
9.24024E-01 1.67560E-26
9.26320E-01 1.61937E-26
9.28584E-01 1.56449E-26
9.30815E-01 1.51094E-26
9.33013E-01 1.45868E-26
9.35178E-01 1.40770E-26
9.37310E-01 1.35796E-26
9.39409E-01 1.30946E-26
9.41474E-01 1.26216E-26
9.43505E-01 1.21605E-26
9.45503E-01 1.17110E-26
9.47467E-01 1.12729E-26
9.49397E-01 1.08461E-26
9.51293E-01 1.04303E-26
9.53154E-01 1.00253E-26
9.54981E-01 9.63104E-27
9.56773E-01 9.24727E-27
9.58530E-01 8.87384E-27
9.60252E-01 8.51057E-27
9.61940E-01 8.15730E-27
9.63592E-01 7.81389E-27
9.65209E-01 7.48018E-27
9.66790E-01 7.15602E-27
9.68336E-01 6.84128E-27
9.69846E-01 6.53581E-27
9.71321E-01 6.23950E-27
9.72759E-01 5.95220E-27
9.74162E-01 5.67379E-27
9.75528E-01 5.40416E-27
9.76858E-01 5.14319E-27
9.78152E-01 4.89077E-27
9.79410E-01 4.64679E-27
9.80631E-01 4.41115E-27
9.81815E-01 4.18374E-27
9.82963E-01 3.96448E-27
9.84074E-01 3.75327E-27
9.85148E-01 3.55001E-27
9.86185E-01 3.35463E-27
9.87185E-01 3.16705E-27
9.88148E-01 2.98717E-27
9.89074E-01 2.81494E-27
9.89962E-01 2.65027E-27
9.90814E-01 2.49310E-27
9.91627E-01 2.34337E-27
9.92404E-01 2.20100E-27
9.93143E-01 2.06595E-27
9.93844E-01 1.93816E-27
9.94508E-01 1.81756E-27
9.95134E-01 1.70412E-27
9.95722E-01 1.59779E-27
9.96273E-01 1.49852E-27
9.96786E-01 1.40627E-27
9.97261E-01 1.32101E-27
9.97698E-01 1.24270E-27
9.98097E-01 1.17130E-27
9.98459E-01 1.10679E-27
9.98782E-01 1.04914E-27
9.99067E-01 9.98328E-28
9.99315E-01 9.54334E-28
9.99524E-01 9.17138E-28
9.99695E-01 8.86726E-28
9.99829E-01 8.63085E-28
9.99924E-01 8.46205E-28
9.99981E-01 8.36080E-28
1.00000E+00 8.32706E-28
