 #
 # Subroutine ELSEPA. Elastic scattering of electrons and positrons
 #                    by neutral atoms and positive ions
 #
 # Projectile: positron
 # Kinetic energy = 2.50000E+08 eV = 9.18733E+06 a.u.
 #
 # WARNING: High-energy factorization with free-atom DF screening.
 #          Absorption, polarization and exchange corrections are
 #          switched off.
 #          Phase shifts are calculated for the bare nucleus.
 #          Scattering amplitudes are not evaluated.
 #
 # Element: Ge,  Z =  32,  atomic weight = 7.26100E+01 g/mol
 #
 # Nuclear model: Fermi distribution
 #                Average radius = 4.46392E-13 cm
 #                Skin thickness = 5.46000E-14 cm
 #
 # Number of electrons = 32
 #
 # Total elastic cross section = 2.34694E-18 cm**2 = 8.38109E-02 a0**2
 # 1st transport cross section = 3.29972E-26 cm**2 = 1.17835E-09 a0**2
 # 2nd transport cross section = 9.88094E-26 cm**2 = 3.52855E-09 a0**2
 #
 #
 # Differential cross section:                       MU=(1-COS(THETA))/2
 #
 #  THETA        MU          DCS          DCS        Sherman      error
 #  (deg)                 (cm**2/sr)   (a0**2/sr)    function
 #----------------------------------------------------------------------
0.00000E+00 1.28458E-09
7.61557E-13 1.26439E-09
1.18994E-12 1.25326E-09
1.71346E-12 1.23988E-09
2.33225E-12 1.22435E-09
3.04617E-12 1.20681E-09
3.85530E-12 1.18737E-09
4.75964E-12 1.16619E-09
5.75917E-12 1.14370E-09
6.85391E-12 1.11955E-09
8.04379E-12 1.09453E-09
9.32893E-12 1.06820E-09
1.07092E-11 1.04129E-09
1.21847E-11 1.01353E-09
1.37554E-11 9.85388E-10
1.54213E-11 9.56874E-10
1.71823E-11 9.28107E-10
1.90386E-11 8.99429E-10
2.09900E-11 8.70574E-10
2.30367E-11 8.42232E-10
2.51785E-11 8.13752E-10
2.74156E-11 7.86061E-10
2.97478E-11 7.58417E-10
3.21752E-11 7.31613E-10
3.46979E-11 7.05170E-10
3.73157E-11 6.79497E-10
4.00286E-11 6.54444E-10
4.28368E-11 6.30078E-10
4.57402E-11 6.06528E-10
4.87388E-11 5.83580E-10
5.18325E-11 5.61587E-10
5.50215E-11 5.40115E-10
5.83057E-11 5.19661E-10
6.16850E-11 4.99703E-10
6.51595E-11 4.80700E-10
6.87293E-11 4.62297E-10
7.23943E-11 4.44714E-10
7.61544E-11 4.27796E-10
1.18991E-10 2.93451E-10
1.71347E-10 2.07347E-10
2.33223E-10 1.51699E-10
3.04617E-10 1.14600E-10
3.85531E-10 8.86036E-11
4.75965E-10 6.98292E-11
5.75917E-10 5.67674E-11
6.85389E-10 4.59135E-11
8.04380E-10 3.80764E-11
9.32891E-10 3.14144E-11
1.07092E-09 2.63125E-11
1.21847E-09 2.20381E-11
1.37554E-09 1.85861E-11
1.54213E-09 1.57428E-11
1.71823E-09 1.33609E-11
1.90386E-09 1.14203E-11
2.09900E-09 9.75735E-12
2.30367E-09 8.40674E-12
2.51785E-09 7.23464E-12
2.74156E-09 6.27497E-12
2.97478E-09 5.44515E-12
3.21752E-09 4.75308E-12
3.46978E-09 4.15959E-12
3.73156E-09 3.65565E-12
4.00286E-09 3.22420E-12
4.28368E-09 2.85318E-12
4.57402E-09 2.53467E-12
4.87388E-09 2.25820E-12
5.18326E-09 2.01962E-12
5.50215E-09 1.81096E-12
5.83057E-09 1.62969E-12
6.16850E-09 1.47021E-12
6.51596E-09 1.33054E-12
6.87293E-09 1.20715E-12
7.23942E-09 1.09820E-12
7.61544E-09 1.00150E-12
1.18991E-08 4.45909E-13
1.71347E-08 2.29982E-13
2.33223E-08 1.30280E-13
3.04617E-08 7.89062E-14
3.85531E-08 5.03159E-14
4.75965E-08 3.35088E-14
5.75917E-08 2.31350E-14
6.85389E-08 1.64712E-14
8.04380E-08 1.20406E-14
9.32891E-08 9.00522E-15
1.07092E-07 6.86984E-15
1.21847E-07 5.33286E-15
1.37554E-07 4.20373E-15
1.54213E-07 3.35896E-15
1.71823E-07 2.71662E-15
1.90386E-07 2.22105E-15
2.09900E-07 1.83370E-15
2.30367E-07 1.52729E-15
2.51785E-07 1.28234E-15
2.74156E-07 1.08462E-15
2.97478E-07 9.23596E-16
3.21752E-07 7.91374E-16
3.46978E-07 6.81984E-16
3.73156E-07 5.90848E-16
4.00286E-07 5.14423E-16
4.28368E-07 4.49951E-16
4.57402E-07 3.95261E-16
4.87388E-07 3.48625E-16
5.18325E-07 3.08661E-16
5.50215E-07 2.74255E-16
5.83057E-07 2.44507E-16
6.16850E-07 2.18677E-16
6.51596E-07 1.96165E-16
6.87293E-07 1.76473E-16
7.23942E-07 1.59188E-16
7.61543E-07 1.43965E-16
1.18991E-06 5.92707E-17
1.71347E-06 2.86561E-17
2.33223E-06 1.54888E-17
3.04617E-06 9.08611E-18
3.85531E-06 5.67486E-18
4.75964E-06 3.72418E-18
5.75916E-06 2.54400E-18
6.85388E-06 1.79634E-18
8.04378E-06 1.30420E-18
9.32888E-06 9.69601E-19
1.07092E-05 7.35731E-19
1.21846E-05 5.68297E-19
1.37553E-05 4.45888E-19
1.54212E-05 3.54726E-19
1.71822E-05 2.85711E-19
1.90385E-05 2.32662E-19
2.09899E-05 1.91420E-19
2.30365E-05 1.58917E-19
2.51783E-05 1.33019E-19
2.74153E-05 1.12180E-19
2.97475E-05 9.52614E-20
3.21749E-05 8.14140E-20
3.46974E-05 6.99945E-20
3.73152E-05 6.05105E-20
4.00281E-05 5.25811E-20
4.28362E-05 4.59095E-20
4.57395E-05 4.02629E-20
4.87380E-05 3.54576E-20
5.18317E-05 3.13473E-20
5.50205E-05 2.78149E-20
5.83045E-05 2.47658E-20
6.16838E-05 2.21233E-20
6.51582E-05 1.98241E-20
6.87277E-05 1.78160E-20
7.23925E-05 1.60561E-20
7.61524E-05 1.45044E-20
9.21439E-05 9.90003E-21
1.09658E-04 6.98493E-21
1.28695E-04 5.06752E-21
1.49255E-04 3.76447E-21
1.71338E-04 2.85427E-21
1.94942E-04 2.20291E-21
2.20070E-04 1.72696E-21
2.46720E-04 1.37269E-21
2.74892E-04 1.10461E-21
3.04586E-04 8.98776E-22
3.35803E-04 7.38617E-22
3.68542E-04 6.12512E-22
4.02802E-04 5.12133E-22
4.38585E-04 4.31437E-22
4.75889E-04 3.65976E-22
5.14715E-04 3.12427E-22
5.55063E-04 2.68285E-22
5.96931E-04 2.31638E-22
6.40321E-04 2.01011E-22
6.85233E-04 1.75257E-22
7.31665E-04 1.53477E-22
7.79618E-04 1.34958E-22
8.29092E-04 1.19133E-22
8.80086E-04 1.05545E-22
9.32601E-04 9.38273E-23
9.86636E-04 8.36792E-23
1.04219E-03 7.48559E-23
1.09927E-03 6.71557E-23
1.15786E-03 6.04119E-23
1.21797E-03 5.44858E-23
1.27961E-03 4.92617E-23
1.34276E-03 4.46425E-23
1.40743E-03 4.05463E-23
1.47362E-03 3.69040E-23
1.54133E-03 3.36566E-23
1.61056E-03 3.07543E-23
1.68131E-03 2.81540E-23
1.75357E-03 2.58190E-23
1.82735E-03 2.37177E-23
1.90265E-03 2.18227E-23
1.97947E-03 2.01102E-23
2.05780E-03 1.85597E-23
2.13765E-03 1.71533E-23
2.21902E-03 1.58753E-23
2.30190E-03 1.47120E-23
2.38630E-03 1.36512E-23
2.47222E-03 1.26825E-23
2.55965E-03 1.17965E-23
2.64859E-03 1.09849E-23
2.73905E-03 1.02403E-23
2.83103E-03 9.55642E-24
2.92452E-03 8.92733E-24
3.01952E-03 8.34792E-24
3.11604E-03 7.81359E-24
3.21407E-03 7.32026E-24
3.31362E-03 6.86422E-24
3.41468E-03 6.44219E-24
3.51725E-03 6.05120E-24
3.62133E-03 5.68858E-24
3.72692E-03 5.35191E-24
3.83403E-03 5.03903E-24
3.94265E-03 4.74797E-24
4.05278E-03 4.47696E-24
4.16442E-03 4.22437E-24
4.27757E-03 3.98875E-24
4.39223E-03 3.76877E-24
4.50840E-03 3.56320E-24
4.62608E-03 3.37095E-24
4.74527E-03 3.19102E-24
4.86597E-03 3.02247E-24
4.98817E-03 2.86448E-24
5.11188E-03 2.71626E-24
5.23711E-03 2.57711E-24
5.36383E-03 2.44640E-24
5.49207E-03 2.32351E-24
5.62181E-03 2.20791E-24
5.75306E-03 2.09909E-24
5.88581E-03 1.99658E-24
6.02007E-03 1.89997E-24
6.15583E-03 1.80886E-24
6.29310E-03 1.72288E-24
6.43187E-03 1.64170E-24
6.57214E-03 1.56500E-24
6.71392E-03 1.49251E-24
6.85720E-03 1.42394E-24
7.00198E-03 1.35906E-24
7.14827E-03 1.29763E-24
7.29605E-03 1.23945E-24
7.44534E-03 1.18430E-24
7.59612E-03 1.13202E-24
7.97965E-03 1.01271E-24
8.37255E-03 9.07855E-25
8.77480E-03 8.15446E-25
9.18641E-03 7.33798E-25
9.60736E-03 6.61482E-25
1.00376E-02 5.97284E-25
1.04773E-02 5.40166E-25
1.09262E-02 4.89240E-25
1.13844E-02 4.43745E-25
1.18520E-02 4.03023E-25
1.23288E-02 3.66508E-25
1.28150E-02 3.33707E-25
1.33104E-02 3.04195E-25
1.38150E-02 2.77599E-25
1.43290E-02 2.53595E-25
1.48521E-02 2.31898E-25
1.53845E-02 2.12259E-25
1.59262E-02 1.94461E-25
1.64770E-02 1.78308E-25
1.70371E-02 1.63633E-25
1.76063E-02 1.50283E-25
1.81848E-02 1.38126E-25
1.87724E-02 1.27042E-25
1.93692E-02 1.16928E-25
1.99751E-02 1.07688E-25
2.05901E-02 9.92395E-26
2.12143E-02 9.15075E-26
2.18476E-02 8.44250E-26
2.24900E-02 7.79321E-26
2.31415E-02 7.19749E-26
2.38021E-02 6.65050E-26
2.44717E-02 6.14787E-26
2.51504E-02 5.68570E-26
2.58382E-02 5.26042E-26
2.65349E-02 4.86885E-26
2.72407E-02 4.50808E-26
2.79555E-02 4.17550E-26
2.86793E-02 3.86872E-26
2.94120E-02 3.58559E-26
3.01537E-02 3.32415E-26
3.09043E-02 3.08262E-26
3.16639E-02 2.85937E-26
3.24324E-02 2.65292E-26
3.32098E-02 2.46194E-26
3.39961E-02 2.28517E-26
3.47912E-02 2.12151E-26
3.55952E-02 1.96992E-26
3.64081E-02 1.82947E-26
3.72297E-02 1.69928E-26
3.80602E-02 1.57857E-26
3.88995E-02 1.46662E-26
3.97476E-02 1.36275E-26
4.06044E-02 1.26637E-26
4.14700E-02 1.17690E-26
4.23443E-02 1.09383E-26
4.32273E-02 1.01668E-26
4.41190E-02 9.45023E-27
4.50194E-02 8.78446E-27
4.59284E-02 8.16581E-27
4.68461E-02 7.59083E-27
4.87074E-02 6.55946E-27
5.06030E-02 5.66779E-27
5.25328E-02 4.89656E-27
5.44967E-02 4.22924E-27
5.64946E-02 3.65168E-27
5.85262E-02 3.15173E-27
6.05914E-02 2.71892E-27
6.26901E-02 2.34423E-27
6.48222E-02 2.01989E-27
6.69873E-02 1.73919E-27
6.91854E-02 1.49632E-27
7.14163E-02 1.28625E-27
7.36799E-02 1.10464E-27
7.59760E-02 9.47705E-28
7.83043E-02 8.12182E-28
8.06647E-02 6.95229E-28
8.30571E-02 5.94381E-28
8.54812E-02 5.07496E-28
8.79369E-02 4.32713E-28
9.04240E-02 3.68415E-28
9.29422E-02 3.13195E-28
9.54915E-02 2.65831E-28
9.80716E-02 2.25262E-28
1.00682E-01 1.90563E-28
1.03323E-01 1.60931E-28
1.05995E-01 1.35671E-28
1.08696E-01 1.14177E-28
1.11427E-01 9.59218E-29
1.14188E-01 8.04513E-29
1.16978E-01 6.73698E-29
1.19797E-01 5.63350E-29
1.22645E-01 4.70505E-29
1.25522E-01 3.92602E-29
1.28428E-01 3.27427E-29
1.31361E-01 2.73071E-29
1.34323E-01 2.27889E-29
1.37313E-01 1.90465E-29
1.40330E-01 1.59585E-29
1.43375E-01 1.34204E-29
1.46447E-01 1.13432E-29
1.49545E-01 9.65061E-30
1.52671E-01 8.27768E-30
1.55823E-01 7.16922E-30
1.59001E-01 6.27847E-30
1.62205E-01 5.56588E-30
1.65435E-01 4.99816E-30
1.68690E-01 4.54736E-30
1.71970E-01 4.19015E-30
1.75276E-01 3.90710E-30
1.78606E-01 3.68215E-30
1.81961E-01 3.50209E-30
1.85340E-01 3.35611E-30
1.88743E-01 3.23547E-30
1.92169E-01 3.13315E-30
1.95619E-01 3.04356E-30
1.99092E-01 2.96234E-30
2.02589E-01 2.88613E-30
2.06107E-01 2.81237E-30
2.09649E-01 2.73923E-30
2.13212E-01 2.66538E-30
2.16797E-01 2.58998E-30
2.20404E-01 2.51251E-30
2.24032E-01 2.43276E-30
2.27680E-01 2.35071E-30
2.31350E-01 2.26650E-30
2.35040E-01 2.18042E-30
2.38751E-01 2.09280E-30
2.42481E-01 2.00406E-30
2.46231E-01 1.91462E-30
2.50000E-01 1.82493E-30
2.53788E-01 1.73543E-30
2.57595E-01 1.64654E-30
2.61421E-01 1.55865E-30
2.65264E-01 1.47214E-30
2.69126E-01 1.38735E-30
2.73005E-01 1.30457E-30
2.76901E-01 1.22406E-30
2.80814E-01 1.14605E-30
2.84744E-01 1.07073E-30
2.88691E-01 9.98246E-31
2.92653E-01 9.28718E-31
2.96632E-01 8.62234E-31
3.00625E-01 7.98850E-31
3.04634E-01 7.38595E-31
3.08658E-01 6.81477E-31
3.12697E-01 6.27479E-31
3.16749E-01 5.76566E-31
3.20816E-01 5.28685E-31
3.24896E-01 4.83770E-31
3.28990E-01 4.41742E-31
3.33097E-01 4.02510E-31
3.37216E-01 3.65977E-31
3.41348E-01 3.32039E-31
3.45492E-01 3.00585E-31
3.49647E-01 2.71502E-31
3.53814E-01 2.44675E-31
3.57992E-01 2.19986E-31
3.62181E-01 1.97318E-31
3.66381E-01 1.76557E-31
3.70590E-01 1.57586E-31
3.74810E-01 1.40294E-31
3.79039E-01 1.24570E-31
3.83277E-01 1.10310E-31
3.87524E-01 9.74095E-32
3.91780E-01 8.57706E-32
3.96044E-01 7.52986E-32
4.00316E-01 6.59033E-32
4.04596E-01 5.74989E-32
4.08882E-01 5.00042E-32
4.13176E-01 4.33425E-32
4.17476E-01 3.74413E-32
4.21783E-01 3.22330E-32
4.26095E-01 2.76539E-32
4.30413E-01 2.36448E-32
4.34737E-01 2.01506E-32
4.39065E-01 1.71198E-32
4.43398E-01 1.45053E-32
4.47736E-01 1.22630E-32
4.52077E-01 1.03528E-32
4.56422E-01 8.73765E-33
4.60770E-01 7.38355E-33
4.65122E-01 6.25955E-33
4.69476E-01 5.33745E-33
4.73832E-01 4.59164E-33
4.78190E-01 3.99890E-33
4.82550E-01 3.53829E-33
4.86912E-01 3.19097E-33
4.91274E-01 2.94003E-33
4.95637E-01 2.77035E-33
5.00000E-01 2.66850E-33
5.04363E-01 2.62252E-33
5.08726E-01 2.62188E-33
5.13088E-01 2.65732E-33
5.17450E-01 2.72072E-33
5.21810E-01 2.80502E-33
5.26168E-01 2.90414E-33
5.30524E-01 3.01284E-33
5.34878E-01 3.12666E-33
5.39230E-01 3.24183E-33
5.43578E-01 3.35522E-33
5.47923E-01 3.46425E-33
5.52264E-01 3.56681E-33
5.56602E-01 3.66125E-33
5.60935E-01 3.74630E-33
5.65263E-01 3.82102E-33
5.69587E-01 3.88474E-33
5.73905E-01 3.93707E-33
5.78217E-01 3.97781E-33
5.82524E-01 4.00698E-33
5.86824E-01 4.02471E-33
5.91118E-01 4.03128E-33
5.95404E-01 4.02708E-33
5.99684E-01 4.01256E-33
6.03956E-01 3.98826E-33
6.08220E-01 3.95477E-33
6.12476E-01 3.91270E-33
6.16723E-01 3.86270E-33
6.20961E-01 3.80542E-33
6.25190E-01 3.74152E-33
6.29410E-01 3.67165E-33
6.33619E-01 3.59647E-33
6.37819E-01 3.51662E-33
6.42008E-01 3.43269E-33
6.46186E-01 3.34529E-33
6.50353E-01 3.25498E-33
6.54508E-01 3.16229E-33
6.58652E-01 3.06775E-33
6.62784E-01 2.97180E-33
6.66903E-01 2.87492E-33
6.71010E-01 2.77751E-33
6.75104E-01 2.67995E-33
6.79184E-01 2.58260E-33
6.83251E-01 2.48578E-33
6.87303E-01 2.38978E-33
6.91342E-01 2.29487E-33
6.95366E-01 2.20128E-33
6.99375E-01 2.10923E-33
7.03368E-01 2.01889E-33
7.07347E-01 1.93044E-33
7.11309E-01 1.84402E-33
7.15256E-01 1.75973E-33
7.19186E-01 1.67769E-33
7.23099E-01 1.59798E-33
7.26995E-01 1.52066E-33
7.30874E-01 1.44577E-33
7.34736E-01 1.37336E-33
7.38579E-01 1.30344E-33
7.42405E-01 1.23603E-33
7.46212E-01 1.17112E-33
7.50000E-01 1.10871E-33
7.53769E-01 1.04877E-33
7.57519E-01 9.91275E-34
7.61249E-01 9.36191E-34
7.64960E-01 8.83481E-34
7.68650E-01 8.33094E-34
7.72320E-01 7.84984E-34
7.75968E-01 7.39095E-34
7.79596E-01 6.95367E-34
7.83203E-01 6.53742E-34
7.86788E-01 6.14158E-34
7.90351E-01 5.76554E-34
7.93893E-01 5.40857E-34
7.97411E-01 5.07007E-34
8.00908E-01 4.74935E-34
8.04381E-01 4.44576E-34
8.07831E-01 4.15862E-34
8.11257E-01 3.88727E-34
8.14660E-01 3.63105E-34
8.18039E-01 3.38935E-34
8.21394E-01 3.16150E-34
8.24724E-01 2.94690E-34
8.28030E-01 2.74493E-34
8.31310E-01 2.55500E-34
8.34565E-01 2.37653E-34
8.37795E-01 2.20897E-34
8.40999E-01 2.05176E-34
8.44177E-01 1.90439E-34
8.47329E-01 1.76633E-34
8.50455E-01 1.63712E-34
8.53553E-01 1.51625E-34
8.56625E-01 1.40329E-34
8.59670E-01 1.29779E-34
8.62687E-01 1.19933E-34
8.65677E-01 1.10753E-34
8.68639E-01 1.02199E-34
8.71572E-01 9.42342E-35
8.74478E-01 8.68242E-35
8.77355E-01 7.99360E-35
8.80203E-01 7.35357E-35
8.83022E-01 6.75959E-35
8.85812E-01 6.20857E-35
8.88573E-01 5.69794E-35
8.91304E-01 5.22503E-35
8.94005E-01 4.78750E-35
8.96677E-01 4.38300E-35
8.99318E-01 4.00922E-35
9.01928E-01 3.66422E-35
9.04508E-01 3.34605E-35
9.07058E-01 3.05281E-35
9.09576E-01 2.78290E-35
9.12063E-01 2.53450E-35
9.14519E-01 2.30623E-35
9.16943E-01 2.09658E-35
9.19335E-01 1.90419E-35
9.21696E-01 1.72790E-35
9.24024E-01 1.56643E-35
9.26320E-01 1.41869E-35
9.28584E-01 1.28363E-35
9.30815E-01 1.16032E-35
9.33013E-01 1.04780E-35
9.35178E-01 9.45258E-36
9.37310E-01 8.51926E-36
9.39409E-01 7.67026E-36
9.41474E-01 6.89886E-36
9.43505E-01 6.19894E-36
9.45503E-01 5.56436E-36
9.47467E-01 4.98959E-36
9.49397E-01 4.47002E-36
9.51293E-01 4.00020E-36
9.53154E-01 3.57663E-36
9.54981E-01 3.19452E-36
9.56773E-01 2.85074E-36
9.58530E-01 2.54159E-36
9.60252E-01 2.26392E-36
9.61940E-01 2.01493E-36
9.63592E-01 1.79177E-36
9.65209E-01 1.59179E-36
9.66790E-01 1.41342E-36
9.68336E-01 1.25402E-36
9.69846E-01 1.11195E-36
9.71321E-01 9.85498E-37
9.72759E-01 8.72840E-37
9.74162E-01 7.72777E-37
9.75528E-01 6.83854E-37
9.76858E-01 6.05156E-37
9.78152E-01 5.35136E-37
9.79410E-01 4.73293E-37
9.80631E-01 4.18544E-37
9.81815E-01 3.70069E-37
9.82963E-01 3.27198E-37
9.84074E-01 2.89266E-37
9.85148E-01 2.55718E-37
9.86185E-01 2.26054E-37
9.87185E-01 1.99725E-37
9.88148E-01 1.76480E-37
9.89074E-01 1.55809E-37
9.89962E-01 1.37438E-37
9.90814E-01 1.21162E-37
9.91627E-01 1.06615E-37
9.92404E-01 9.36773E-38
9.93143E-01 8.21025E-38
9.93844E-01 7.17320E-38
9.94508E-01 6.24739E-38
9.95134E-01 5.41401E-38
9.95722E-01 4.66637E-38
9.96273E-01 3.99339E-38
9.96786E-01 3.39147E-38
9.97261E-01 2.84992E-38
9.97698E-01 2.36810E-38
9.98097E-01 1.93781E-38
9.98459E-01 1.55560E-38
9.98782E-01 1.21877E-38
9.99067E-01 9.29568E-39
9.99315E-01 6.78513E-39
9.99524E-01 4.70530E-39
9.99695E-01 3.00118E-39
9.99829E-01 1.69477E-39
9.99924E-01 7.57165E-40
9.99981E-01 1.98759E-40
1.00000E+00 1.32683E-41
