 #
 # Subroutine ELSEPA. Elastic scattering of electrons and positrons
 #                    by neutral atoms and positive ions
 #
 # Projectile: positron
 # Kinetic energy = 8.00000E+07 eV = 2.93995E+06 a.u.
 #
 # WARNING: High-energy factorization with free-atom DF screening.
 #          Absorption, polarization and exchange corrections are
 #          switched off.
 #          Phase shifts are calculated for the bare nucleus.
 #          Scattering amplitudes are not evaluated.
 #
 # Element: Ge,  Z =  32,  atomic weight = 7.26100E+01 g/mol
 #
 # Nuclear model: Fermi distribution
 #                Average radius = 4.46392E-13 cm
 #                Skin thickness = 5.46000E-14 cm
 #
 # Number of electrons = 32
 #
 # Total elastic cross section = 2.34588E-18 cm**2 = 8.37728E-02 a0**2
 # 1st transport cross section = 3.10982E-25 cm**2 = 1.11054E-08 a0**2
 # 2nd transport cross section = 9.19992E-25 cm**2 = 3.28535E-08 a0**2
 #
 #
 # Differential cross section:                       MU=(1-COS(THETA))/2
 #
 #  THETA        MU          DCS          DCS        Sherman      error
 #  (deg)                 (cm**2/sr)   (a0**2/sr)    function
 #----------------------------------------------------------------------
0.00000E+00 1.32684E-10
7.61557E-13 1.32465E-10
1.18994E-12 1.32343E-10
1.71346E-12 1.32194E-10
2.33225E-12 1.32018E-10
3.04617E-12 1.31815E-10
3.85530E-12 1.31586E-10
4.75964E-12 1.31331E-10
5.75917E-12 1.31050E-10
6.85391E-12 1.30744E-10
8.04379E-12 1.30412E-10
9.32893E-12 1.30054E-10
1.07092E-11 1.29673E-10
1.21847E-11 1.29267E-10
1.37554E-11 1.28837E-10
1.54213E-11 1.28383E-10
1.71823E-11 1.27906E-10
1.90386E-11 1.27407E-10
2.09900E-11 1.26885E-10
2.30367E-11 1.26341E-10
2.51785E-11 1.25777E-10
2.74156E-11 1.25191E-10
2.97478E-11 1.24585E-10
3.21752E-11 1.23959E-10
3.46979E-11 1.23314E-10
3.73157E-11 1.22646E-10
4.00286E-11 1.21958E-10
4.28368E-11 1.21256E-10
4.57402E-11 1.20539E-10
4.87388E-11 1.19808E-10
5.18325E-11 1.19064E-10
5.50215E-11 1.18308E-10
5.83057E-11 1.17522E-10
6.16850E-11 1.16723E-10
6.51595E-11 1.15914E-10
6.87293E-11 1.15095E-10
7.23943E-11 1.14267E-10
7.61544E-11 1.13432E-10
1.18991E-10 1.04486E-10
1.71347E-10 9.50289E-11
2.33223E-10 8.55224E-11
3.04617E-10 7.63590E-11
3.85531E-10 6.77917E-11
4.75965E-10 5.99584E-11
5.75917E-10 5.29394E-11
6.85389E-10 4.67110E-11
8.04380E-10 4.12597E-11
9.32891E-10 3.64959E-11
1.07092E-09 3.23723E-11
1.21847E-09 2.87897E-11
1.37554E-09 2.56960E-11
1.54213E-09 2.30105E-11
1.71823E-09 2.06841E-11
1.90386E-09 1.86582E-11
2.09900E-09 1.68925E-11
2.30367E-09 1.53460E-11
2.51785E-09 1.39878E-11
2.74156E-09 1.27899E-11
2.97478E-09 1.17288E-11
3.21752E-09 1.07861E-11
3.46978E-09 9.94383E-12
3.73156E-09 9.15472E-12
4.00286E-09 8.44714E-12
4.28368E-09 7.82362E-12
4.57402E-09 7.27207E-12
4.87388E-09 6.78238E-12
5.18326E-09 6.34609E-12
5.50215E-09 5.95604E-12
5.83057E-09 5.54820E-12
6.16850E-09 5.17858E-12
6.51596E-09 4.84688E-12
6.87293E-09 4.54835E-12
7.23942E-09 4.27890E-12
7.61544E-09 4.03504E-12
1.18991E-08 2.24850E-12
1.71347E-08 1.32019E-12
2.33223E-08 8.05054E-13
3.04617E-08 5.10279E-13
3.85531E-08 3.36160E-13
4.75965E-08 2.29610E-13
5.75917E-08 1.62266E-13
6.85389E-08 1.18136E-13
8.04380E-08 8.83014E-14
9.32891E-08 6.74797E-14
1.07092E-07 5.25629E-14
1.21847E-07 4.16062E-14
1.37554E-07 3.34049E-14
1.54213E-07 2.71353E-14
1.71823E-07 2.22754E-14
1.90386E-07 1.84496E-14
2.09900E-07 1.54071E-14
2.30367E-07 1.29608E-14
2.51785E-07 1.09769E-14
2.74156E-07 9.35421E-15
2.97478E-07 8.01655E-15
3.21752E-07 6.90678E-15
3.46978E-07 5.97975E-15
3.73156E-07 5.19875E-15
4.00286E-07 4.54181E-15
4.28368E-07 3.98732E-15
4.57402E-07 3.51052E-15
4.87388E-07 3.10394E-15
5.18325E-07 2.75457E-15
5.50215E-07 2.45172E-15
5.83057E-07 2.18989E-15
6.16850E-07 1.96178E-15
6.51596E-07 1.76242E-15
6.87293E-07 1.58804E-15
7.23942E-07 1.43436E-15
7.61543E-07 1.29892E-15
1.18991E-06 5.41350E-16
1.71347E-06 2.64647E-16
2.33223E-06 1.44403E-16
3.04617E-06 8.53664E-17
3.85531E-06 5.36425E-17
4.75964E-06 3.53693E-17
5.75916E-06 2.42492E-17
6.85388E-06 1.71713E-17
8.04378E-06 1.24945E-17
9.32888E-06 9.30521E-18
1.07092E-05 7.07061E-18
1.21846E-05 5.46759E-18
1.37553E-05 4.29376E-18
1.54212E-05 3.41843E-18
1.71822E-05 2.75501E-18
1.90385E-05 2.24462E-18
2.09899E-05 1.84751E-18
2.30365E-05 1.53435E-18
2.51783E-05 1.28470E-18
2.74153E-05 1.08371E-18
2.97475E-05 9.20478E-19
3.21749E-05 7.86827E-19
3.46974E-05 6.76576E-19
3.73152E-05 5.84988E-19
4.00281E-05 5.08395E-19
4.28362E-05 4.43940E-19
4.57395E-05 3.89378E-19
4.87380E-05 3.42936E-19
5.18317E-05 3.03206E-19
5.50205E-05 2.69058E-19
5.83045E-05 2.39580E-19
6.16838E-05 2.14029E-19
6.51582E-05 1.91795E-19
6.87277E-05 1.72376E-19
7.23925E-05 1.55355E-19
7.61524E-05 1.40389E-19
9.21439E-05 9.58514E-20
1.09658E-04 6.76476E-20
1.28695E-04 4.90932E-20
1.49255E-04 3.64814E-20
1.71338E-04 2.76705E-20
1.94942E-04 2.13642E-20
2.20070E-04 1.67554E-20
2.46720E-04 1.33243E-20
2.74892E-04 1.07274E-20
3.04586E-04 8.73307E-21
3.35803E-04 7.18095E-21
3.68542E-04 5.95856E-21
4.02802E-04 4.98530E-21
4.38585E-04 4.20268E-21
4.75889E-04 3.56763E-21
5.14715E-04 3.04798E-21
5.55063E-04 2.61948E-21
5.96931E-04 2.26361E-21
6.40321E-04 1.96609E-21
6.85233E-04 1.71582E-21
7.31665E-04 1.50407E-21
7.79618E-04 1.32395E-21
8.29092E-04 1.16997E-21
8.80086E-04 1.03769E-21
9.32601E-04 9.23562E-22
9.86636E-04 8.24670E-22
1.04219E-03 7.38644E-22
1.09927E-03 6.63524E-22
1.15786E-03 5.97698E-22
1.21797E-03 5.39817E-22
1.27961E-03 4.88762E-22
1.34276E-03 4.43587E-22
1.40743E-03 4.03502E-22
1.47362E-03 3.67832E-22
1.54133E-03 3.36010E-22
1.61056E-03 3.07544E-22
1.68131E-03 2.82024E-22
1.75357E-03 2.59088E-22
1.82735E-03 2.38431E-22
1.90265E-03 2.19786E-22
1.97947E-03 2.02922E-22
2.05780E-03 1.87640E-22
2.13765E-03 1.73766E-22
2.21902E-03 1.61146E-22
2.30190E-03 1.49647E-22
2.38630E-03 1.39152E-22
2.47222E-03 1.29558E-22
2.55965E-03 1.20774E-22
2.64859E-03 1.12719E-22
2.73905E-03 1.05321E-22
2.83103E-03 9.85186E-23
2.92452E-03 9.22540E-23
3.01952E-03 8.64774E-23
3.11604E-03 8.11440E-23
3.21407E-03 7.62136E-23
3.31362E-03 7.16504E-23
3.41468E-03 6.74220E-23
3.51725E-03 6.34995E-23
3.62133E-03 5.98568E-23
3.72692E-03 5.64702E-23
3.83403E-03 5.33186E-23
3.94265E-03 5.03826E-23
4.05278E-03 4.76449E-23
4.16442E-03 4.50896E-23
4.27757E-03 4.27024E-23
4.39223E-03 4.04702E-23
4.50840E-03 3.83811E-23
4.62608E-03 3.64243E-23
4.74527E-03 3.45899E-23
4.86597E-03 3.28688E-23
4.98817E-03 3.12527E-23
5.11188E-03 2.97341E-23
5.23711E-03 2.83060E-23
5.36383E-03 2.69621E-23
5.49207E-03 2.56964E-23
5.62181E-03 2.45036E-23
5.75306E-03 2.33788E-23
5.88581E-03 2.23173E-23
6.02007E-03 2.13149E-23
6.15583E-03 2.03677E-23
6.29310E-03 1.94722E-23
6.43187E-03 1.86249E-23
6.57214E-03 1.78229E-23
6.71392E-03 1.70633E-23
6.85720E-03 1.63433E-23
7.00198E-03 1.56606E-23
7.14827E-03 1.50129E-23
7.29605E-03 1.43980E-23
7.44534E-03 1.38141E-23
7.59612E-03 1.32591E-23
7.97965E-03 1.19879E-23
8.37255E-03 1.08642E-23
8.77480E-03 9.86784E-24
9.18641E-03 8.98210E-24
9.60736E-03 8.19257E-24
1.00376E-02 7.48704E-24
1.04773E-02 6.85505E-24
1.09262E-02 6.28762E-24
1.13844E-02 5.77705E-24
1.18520E-02 5.31665E-24
1.23288E-02 4.90066E-24
1.28150E-02 4.52406E-24
1.33104E-02 4.18248E-24
1.38150E-02 3.87211E-24
1.43290E-02 3.58959E-24
1.48521E-02 3.33201E-24
1.53845E-02 3.09679E-24
1.59262E-02 2.88164E-24
1.64770E-02 2.68456E-24
1.70371E-02 2.50378E-24
1.76063E-02 2.33771E-24
1.81848E-02 2.18494E-24
1.87724E-02 2.04423E-24
1.93692E-02 1.91447E-24
1.99751E-02 1.79465E-24
2.05901E-02 1.68388E-24
2.12143E-02 1.58135E-24
2.18476E-02 1.48636E-24
2.24900E-02 1.39825E-24
2.31415E-02 1.31643E-24
2.38021E-02 1.24038E-24
2.44717E-02 1.16962E-24
2.51504E-02 1.10372E-24
2.58382E-02 1.04229E-24
2.65349E-02 9.84976E-25
2.72407E-02 9.31450E-25
2.79555E-02 8.81421E-25
2.86793E-02 8.34621E-25
2.94120E-02 7.90806E-25
3.01537E-02 7.49752E-25
3.09043E-02 7.11256E-25
3.16639E-02 6.75131E-25
3.24324E-02 6.41205E-25
3.32098E-02 6.09323E-25
3.39961E-02 5.79340E-25
3.47912E-02 5.51124E-25
3.55952E-02 5.24552E-25
3.64081E-02 4.99512E-25
3.72297E-02 4.75902E-25
3.80602E-02 4.53625E-25
3.88995E-02 4.32593E-25
3.97476E-02 4.12726E-25
4.06044E-02 3.93947E-25
4.14700E-02 3.76188E-25
4.23443E-02 3.59382E-25
4.32273E-02 3.43471E-25
4.41190E-02 3.28398E-25
4.50194E-02 3.14113E-25
4.59284E-02 3.00567E-25
4.68461E-02 2.87715E-25
4.87074E-02 2.63930E-25
5.06030E-02 2.42461E-25
5.25328E-02 2.23045E-25
5.44967E-02 2.05457E-25
5.64946E-02 1.89496E-25
5.85262E-02 1.74989E-25
6.05914E-02 1.61783E-25
6.26901E-02 1.49743E-25
6.48222E-02 1.38750E-25
6.69873E-02 1.28700E-25
6.91854E-02 1.19498E-25
7.14163E-02 1.11063E-25
7.36799E-02 1.03321E-25
7.59760E-02 9.62060E-26
7.83043E-02 8.96599E-26
8.06647E-02 8.36302E-26
8.30571E-02 7.80702E-26
8.54812E-02 7.29378E-26
8.79369E-02 6.81952E-26
9.04240E-02 6.38086E-26
9.29422E-02 5.97471E-26
9.54915E-02 5.59833E-26
9.80716E-02 5.24922E-26
1.00682E-01 4.92510E-26
1.03323E-01 4.62394E-26
1.05995E-01 4.34388E-26
1.08696E-01 4.08323E-26
1.11427E-01 3.84045E-26
1.14188E-01 3.61415E-26
1.16978E-01 3.40305E-26
1.19797E-01 3.20599E-26
1.22645E-01 3.02191E-26
1.25522E-01 2.84983E-26
1.28428E-01 2.68887E-26
1.31361E-01 2.53821E-26
1.34323E-01 2.39710E-26
1.37313E-01 2.26486E-26
1.40330E-01 2.14085E-26
1.43375E-01 2.02450E-26
1.46447E-01 1.91527E-26
1.49545E-01 1.81267E-26
1.52671E-01 1.71625E-26
1.55823E-01 1.62558E-26
1.59001E-01 1.54028E-26
1.62205E-01 1.45999E-26
1.65435E-01 1.38438E-26
1.68690E-01 1.31314E-26
1.71970E-01 1.24600E-26
1.75276E-01 1.18268E-26
1.78606E-01 1.12294E-26
1.81961E-01 1.06655E-26
1.85340E-01 1.01331E-26
1.88743E-01 9.63020E-27
1.92169E-01 9.15494E-27
1.95619E-01 8.70564E-27
1.99092E-01 8.28071E-27
2.02589E-01 7.87870E-27
2.06107E-01 7.49821E-27
2.09649E-01 7.13798E-27
2.13212E-01 6.79680E-27
2.16797E-01 6.47355E-27
2.20404E-01 6.16720E-27
2.24032E-01 5.87675E-27
2.27680E-01 5.60131E-27
2.31350E-01 5.34000E-27
2.35040E-01 5.09204E-27
2.38751E-01 4.85666E-27
2.42481E-01 4.63316E-27
2.46231E-01 4.42089E-27
2.50000E-01 4.21921E-27
2.53788E-01 4.02756E-27
2.57595E-01 3.84538E-27
2.61421E-01 3.67215E-27
2.65264E-01 3.50740E-27
2.69126E-01 3.35067E-27
2.73005E-01 3.20153E-27
2.76901E-01 3.05959E-27
2.80814E-01 2.92445E-27
2.84744E-01 2.79577E-27
2.88691E-01 2.67321E-27
2.92653E-01 2.55644E-27
2.96632E-01 2.44518E-27
3.00625E-01 2.33913E-27
3.04634E-01 2.23804E-27
3.08658E-01 2.14165E-27
3.12697E-01 2.04973E-27
3.16749E-01 1.96204E-27
3.20816E-01 1.87838E-27
3.24896E-01 1.79855E-27
3.28990E-01 1.72235E-27
3.33097E-01 1.64962E-27
3.37216E-01 1.58017E-27
3.41348E-01 1.51385E-27
3.45492E-01 1.45050E-27
3.49647E-01 1.38998E-27
3.53814E-01 1.33217E-27
3.57992E-01 1.27691E-27
3.62181E-01 1.22410E-27
3.66381E-01 1.17362E-27
3.70590E-01 1.12535E-27
3.74810E-01 1.07920E-27
3.79039E-01 1.03506E-27
3.83277E-01 9.92835E-28
3.87524E-01 9.52442E-28
3.91780E-01 9.13793E-28
3.96044E-01 8.76808E-28
4.00316E-01 8.41410E-28
4.04596E-01 8.07526E-28
4.08882E-01 7.75088E-28
4.13176E-01 7.44028E-28
4.17476E-01 7.14285E-28
4.21783E-01 6.85800E-28
4.26095E-01 6.58514E-28
4.30413E-01 6.32376E-28
4.34737E-01 6.07332E-28
4.39065E-01 5.83335E-28
4.43398E-01 5.60337E-28
4.47736E-01 5.38295E-28
4.52077E-01 5.17167E-28
4.56422E-01 4.96911E-28
4.60770E-01 4.77491E-28
4.65122E-01 4.58868E-28
4.69476E-01 4.41010E-28
4.73832E-01 4.23881E-28
4.78190E-01 4.07452E-28
4.82550E-01 3.91690E-28
4.86912E-01 3.76569E-28
4.91274E-01 3.62059E-28
4.95637E-01 3.48136E-28
5.00000E-01 3.34774E-28
5.04363E-01 3.21949E-28
5.08726E-01 3.09638E-28
5.13088E-01 2.97819E-28
5.17450E-01 2.86473E-28
5.21810E-01 2.75578E-28
5.26168E-01 2.65116E-28
5.30524E-01 2.55069E-28
5.34878E-01 2.45419E-28
5.39230E-01 2.36150E-28
5.43578E-01 2.27247E-28
5.47923E-01 2.18693E-28
5.52264E-01 2.10474E-28
5.56602E-01 2.02577E-28
5.60935E-01 1.94989E-28
5.65263E-01 1.87696E-28
5.69587E-01 1.80687E-28
5.73905E-01 1.73950E-28
5.78217E-01 1.67473E-28
5.82524E-01 1.61247E-28
5.86824E-01 1.55261E-28
5.91118E-01 1.49506E-28
5.95404E-01 1.43972E-28
5.99684E-01 1.38650E-28
6.03956E-01 1.33531E-28
6.08220E-01 1.28609E-28
6.12476E-01 1.23873E-28
6.16723E-01 1.19318E-28
6.20961E-01 1.14937E-28
6.25190E-01 1.10721E-28
6.29410E-01 1.06664E-28
6.33619E-01 1.02761E-28
6.37819E-01 9.90055E-29
6.42008E-01 9.53909E-29
6.46186E-01 9.19122E-29
6.50353E-01 8.85639E-29
6.54508E-01 8.53409E-29
6.58652E-01 8.22384E-29
6.62784E-01 7.92517E-29
6.66903E-01 7.63761E-29
6.71010E-01 7.36075E-29
6.75104E-01 7.09416E-29
6.79184E-01 6.83744E-29
6.83251E-01 6.59022E-29
6.87303E-01 6.35213E-29
6.91342E-01 6.12282E-29
6.95366E-01 5.90194E-29
6.99375E-01 5.68918E-29
7.03368E-01 5.48423E-29
7.07347E-01 5.28678E-29
7.11309E-01 5.09654E-29
7.15256E-01 4.91325E-29
7.19186E-01 4.73665E-29
7.23099E-01 4.56646E-29
7.26995E-01 4.40246E-29
7.30874E-01 4.24441E-29
7.34736E-01 4.09208E-29
7.38579E-01 3.94526E-29
7.42405E-01 3.80374E-29
7.46212E-01 3.66732E-29
7.50000E-01 3.53582E-29
7.53769E-01 3.40903E-29
7.57519E-01 3.28680E-29
7.61249E-01 3.16895E-29
7.64960E-01 3.05531E-29
7.68650E-01 2.94574E-29
7.72320E-01 2.84007E-29
7.75968E-01 2.73817E-29
7.79596E-01 2.63989E-29
7.83203E-01 2.54510E-29
7.86788E-01 2.45368E-29
7.90351E-01 2.36549E-29
7.93893E-01 2.28043E-29
7.97411E-01 2.19837E-29
8.00908E-01 2.11920E-29
8.04381E-01 2.04282E-29
8.07831E-01 1.96913E-29
8.11257E-01 1.89803E-29
8.14660E-01 1.82942E-29
8.18039E-01 1.76322E-29
8.21394E-01 1.69934E-29
8.24724E-01 1.63769E-29
8.28030E-01 1.57819E-29
8.31310E-01 1.52077E-29
8.34565E-01 1.46534E-29
8.37795E-01 1.41185E-29
8.40999E-01 1.36021E-29
8.44177E-01 1.31037E-29
8.47329E-01 1.26225E-29
8.50455E-01 1.21581E-29
8.53553E-01 1.17097E-29
8.56625E-01 1.12768E-29
8.59670E-01 1.08588E-29
8.62687E-01 1.04553E-29
8.65677E-01 1.00656E-29
8.68639E-01 9.68943E-30
8.71572E-01 9.32617E-30
8.74478E-01 8.97540E-30
8.77355E-01 8.63669E-30
8.80203E-01 8.30960E-30
8.83022E-01 7.99373E-30
8.85812E-01 7.68870E-30
8.88573E-01 7.39412E-30
8.91304E-01 7.10963E-30
8.94005E-01 6.83488E-30
8.96677E-01 6.56954E-30
8.99318E-01 6.31327E-30
9.01928E-01 6.06577E-30
9.04508E-01 5.82674E-30
9.07058E-01 5.59588E-30
9.09576E-01 5.37292E-30
9.12063E-01 5.15758E-30
9.14519E-01 4.94961E-30
9.16943E-01 4.74875E-30
9.19335E-01 4.55477E-30
9.21696E-01 4.36744E-30
9.24024E-01 4.18653E-30
9.26320E-01 4.01182E-30
9.28584E-01 3.84311E-30
9.30815E-01 3.68019E-30
9.33013E-01 3.52289E-30
9.35178E-01 3.37100E-30
9.37310E-01 3.22436E-30
9.39409E-01 3.08279E-30
9.41474E-01 2.94612E-30
9.43505E-01 2.81420E-30
9.45503E-01 2.68687E-30
9.47467E-01 2.56398E-30
9.49397E-01 2.44539E-30
9.51293E-01 2.33097E-30
9.53154E-01 2.22058E-30
9.54981E-01 2.11409E-30
9.56773E-01 2.01139E-30
9.58530E-01 1.91235E-30
9.60252E-01 1.81686E-30
9.61940E-01 1.72481E-30
9.63592E-01 1.63610E-30
9.65209E-01 1.55063E-30
9.66790E-01 1.46829E-30
9.68336E-01 1.38901E-30
9.69846E-01 1.31268E-30
9.71321E-01 1.23921E-30
9.72759E-01 1.16854E-30
9.74162E-01 1.10057E-30
9.75528E-01 1.03524E-30
9.76858E-01 9.72461E-31
9.78152E-01 9.12172E-31
9.79410E-01 8.54304E-31
9.80631E-01 7.98792E-31
9.81815E-01 7.45574E-31
9.82963E-01 6.94591E-31
9.84074E-01 6.45787E-31
9.85148E-01 5.99108E-31
9.86185E-01 5.54501E-31
9.87185E-01 5.11917E-31
9.88148E-01 4.71311E-31
9.89074E-01 4.32635E-31
9.89962E-01 3.95849E-31
9.90814E-01 3.60912E-31
9.91627E-01 3.27784E-31
9.92404E-01 2.96431E-31
9.93143E-01 2.66817E-31
9.93844E-01 2.38910E-31
9.94508E-01 2.12680E-31
9.95134E-01 1.88098E-31
9.95722E-01 1.65137E-31
9.96273E-01 1.43772E-31
9.96786E-01 1.23979E-31
9.97261E-01 1.05738E-31
9.97698E-01 8.90285E-32
9.98097E-01 7.38319E-32
9.98459E-01 6.01316E-32
9.98782E-01 4.79131E-32
9.99067E-01 3.71635E-32
9.99315E-01 2.78702E-32
9.99524E-01 2.00239E-32
9.99695E-01 1.36156E-32
9.99829E-01 8.63867E-33
9.99924E-01 5.08749E-33
9.99981E-01 2.95834E-33
1.00000E+00 2.24894E-33
