 #
 # Subroutine ELSEPA. Elastic scattering of electrons and positrons
 #                    by neutral atoms and positive ions
 #
 # Projectile: positron
 # Kinetic energy = 3.50000E+07 eV = 1.28623E+06 a.u.
 #
 # WARNING: High-energy factorization with free-atom DF screening.
 #          Absorption, polarization and exchange corrections are
 #          switched off.
 #          Phase shifts are calculated for the bare nucleus.
 #          Scattering amplitudes are not evaluated.
 #
 # Element: Ge,  Z =  32,  atomic weight = 7.26100E+01 g/mol
 #
 # Nuclear model: Fermi distribution
 #                Average radius = 4.46392E-13 cm
 #                Skin thickness = 5.46000E-14 cm
 #
 # Number of electrons = 32
 #
 # Total elastic cross section = 2.34745E-18 cm**2 = 8.38290E-02 a0**2
 # 1st transport cross section = 1.48713E-24 cm**2 = 5.31062E-08 a0**2
 # 2nd transport cross section = 4.34633E-24 cm**2 = 1.55210E-07 a0**2
 #
 #
 # Differential cross section:                       MU=(1-COS(THETA))/2
 #
 #  THETA        MU          DCS          DCS        Sherman      error
 #  (deg)                 (cm**2/sr)   (a0**2/sr)    function
 #----------------------------------------------------------------------
0.00000E+00 2.58127E-11
7.61557E-13 2.58044E-11
1.18994E-12 2.57997E-11
1.71346E-12 2.57941E-11
2.33225E-12 2.57874E-11
3.04617E-12 2.57796E-11
3.85530E-12 2.57709E-11
4.75964E-12 2.57611E-11
5.75917E-12 2.57503E-11
6.85391E-12 2.57384E-11
8.04379E-12 2.57256E-11
9.32893E-12 2.57118E-11
1.07092E-11 2.56969E-11
1.21847E-11 2.56810E-11
1.37554E-11 2.56641E-11
1.54213E-11 2.56463E-11
1.71823E-11 2.56274E-11
1.90386E-11 2.56075E-11
2.09900E-11 2.55866E-11
2.30367E-11 2.55648E-11
2.51785E-11 2.55420E-11
2.74156E-11 2.55181E-11
2.97478E-11 2.54934E-11
3.21752E-11 2.54676E-11
3.46979E-11 2.54409E-11
3.73157E-11 2.54132E-11
4.00286E-11 2.53845E-11
4.28368E-11 2.53550E-11
4.57402E-11 2.53244E-11
4.87388E-11 2.52930E-11
5.18325E-11 2.52605E-11
5.50215E-11 2.52272E-11
5.83057E-11 2.51930E-11
6.16850E-11 2.51578E-11
6.51595E-11 2.51217E-11
6.87293E-11 2.50847E-11
7.23943E-11 2.50468E-11
7.61544E-11 2.50081E-11
1.18991E-10 2.45731E-11
1.71347E-10 2.40578E-11
2.33223E-10 2.34679E-11
3.04617E-10 2.28192E-11
3.85531E-10 2.21172E-11
4.75965E-10 2.13709E-11
5.75917E-10 2.05966E-11
6.85389E-10 1.97954E-11
8.04380E-10 1.89803E-11
9.32891E-10 1.81647E-11
1.07092E-09 1.73439E-11
1.21847E-09 1.65338E-11
1.37554E-09 1.57426E-11
1.54213E-09 1.49608E-11
1.71823E-09 1.42061E-11
1.90386E-09 1.34790E-11
2.09900E-09 1.27736E-11
2.30367E-09 1.21016E-11
2.51785E-09 1.14596E-11
2.74156E-09 1.08455E-11
2.97478E-09 1.02653E-11
3.21752E-09 9.71420E-12
3.46978E-09 9.19212E-12
3.73156E-09 8.70147E-12
4.00286E-09 8.23703E-12
4.28368E-09 7.79995E-12
4.57402E-09 7.39041E-12
4.87388E-09 7.00340E-12
5.18326E-09 6.64070E-12
5.50215E-09 6.30131E-12
5.83057E-09 5.98074E-12
6.16850E-09 5.68098E-12
6.51596E-09 5.40013E-12
6.87293E-09 5.13547E-12
7.23942E-09 4.88786E-12
7.61544E-09 4.65543E-12
1.18991E-08 2.97082E-12
1.71347E-08 2.02032E-12
2.33223E-08 1.42765E-12
3.04617E-08 1.05817E-12
3.85531E-08 7.99006E-13
4.75965E-08 6.11193E-13
5.75917E-08 4.76797E-13
6.85389E-08 3.72888E-13
8.04380E-08 2.94502E-13
9.32891E-08 2.35378E-13
1.07092E-07 1.88443E-13
1.21847E-07 1.52405E-13
1.37554E-07 1.24407E-13
1.54213E-07 1.01942E-13
1.71823E-07 8.43359E-14
1.90386E-07 7.03019E-14
2.09900E-07 5.89617E-14
2.30367E-07 4.98404E-14
2.51785E-07 4.24097E-14
2.74156E-07 3.63115E-14
2.97478E-07 3.12921E-14
3.21752E-07 2.71197E-14
3.46978E-07 2.36319E-14
3.73156E-07 2.07022E-14
4.00286E-07 1.82205E-14
4.28368E-07 1.61094E-14
4.57402E-07 1.43048E-14
4.87388E-07 1.27476E-14
5.18325E-07 1.14023E-14
5.50215E-07 1.02352E-14
5.83057E-07 9.21436E-15
6.16850E-07 8.32112E-15
6.51596E-07 7.53590E-15
6.87293E-07 6.84089E-15
7.23942E-07 6.22591E-15
7.61543E-07 5.67901E-15
1.18991E-06 2.49853E-15
1.71347E-06 1.25581E-15
2.33223E-06 6.93613E-16
3.04617E-06 4.12651E-16
3.85531E-06 2.60264E-16
4.75964E-06 1.72194E-16
5.75916E-06 1.18461E-16
6.85388E-06 8.41850E-17
8.04378E-06 6.14839E-17
9.32888E-06 4.59544E-17
1.07092E-05 3.50407E-17
1.21846E-05 2.71860E-17
1.37553E-05 2.14143E-17
1.54212E-05 1.70968E-17
1.71822E-05 1.38139E-17
1.90385E-05 1.12807E-17
2.09899E-05 9.30450E-18
2.30365E-05 7.74173E-18
2.51783E-05 6.49300E-18
2.74153E-05 5.48548E-18
2.97475E-05 4.66551E-18
3.21749E-05 3.99296E-18
3.46974E-05 3.43719E-18
3.73152E-05 2.97482E-18
4.00281E-05 2.58762E-18
4.28362E-05 2.26134E-18
4.57395E-05 1.98484E-18
4.87380E-05 1.74924E-18
5.18317E-05 1.54749E-18
5.50205E-05 1.37395E-18
5.83045E-05 1.22400E-18
6.16838E-05 1.09395E-18
6.51582E-05 9.80700E-19
6.87277E-05 8.81727E-19
7.23925E-05 7.94926E-19
7.61524E-05 7.18543E-19
9.21439E-05 4.91081E-19
1.09658E-04 3.46835E-19
1.28695E-04 2.51841E-19
1.49255E-04 1.87222E-19
1.71338E-04 1.42050E-19
1.94942E-04 1.09704E-19
2.20070E-04 8.60558E-20
2.46720E-04 6.84453E-20
2.74892E-04 5.51135E-20
3.04586E-04 4.48731E-20
3.35803E-04 3.69019E-20
3.68542E-04 3.06233E-20
4.02802E-04 2.56236E-20
4.38585E-04 2.16029E-20
4.75889E-04 1.83400E-20
5.14715E-04 1.56698E-20
5.55063E-04 1.34679E-20
5.96931E-04 1.16390E-20
6.40321E-04 1.01099E-20
6.85233E-04 8.82363E-21
7.31665E-04 7.73525E-21
7.79618E-04 6.80943E-21
8.29092E-04 6.01786E-21
8.80086E-04 5.33788E-21
9.32601E-04 4.75115E-21
9.86636E-04 4.24274E-21
1.04219E-03 3.80044E-21
1.09927E-03 3.41422E-21
1.15786E-03 3.07575E-21
1.21797E-03 2.77813E-21
1.27961E-03 2.51559E-21
1.34276E-03 2.28329E-21
1.40743E-03 2.07715E-21
1.47362E-03 1.89371E-21
1.54133E-03 1.73004E-21
1.61056E-03 1.58364E-21
1.68131E-03 1.45237E-21
1.75357E-03 1.33440E-21
1.82735E-03 1.22814E-21
1.90265E-03 1.13222E-21
1.97947E-03 1.04547E-21
2.05780E-03 9.66854E-22
2.13765E-03 8.95470E-22
2.21902E-03 8.30540E-22
2.30190E-03 7.71373E-22
2.38630E-03 7.17370E-22
2.47222E-03 6.67999E-22
2.55965E-03 6.22792E-22
2.64859E-03 5.81335E-22
2.73905E-03 5.43261E-22
2.83103E-03 5.08246E-22
2.92452E-03 4.75998E-22
3.01952E-03 4.46261E-22
3.11604E-03 4.18804E-22
3.21407E-03 3.93419E-22
3.31362E-03 3.69923E-22
3.41468E-03 3.48150E-22
3.51725E-03 3.27951E-22
3.62133E-03 3.09191E-22
3.72692E-03 2.91749E-22
3.83403E-03 2.75515E-22
3.94265E-03 2.60391E-22
4.05278E-03 2.46288E-22
4.16442E-03 2.33123E-22
4.27757E-03 2.20823E-22
4.39223E-03 2.09321E-22
4.50840E-03 1.98555E-22
4.62608E-03 1.88470E-22
4.74527E-03 1.79015E-22
4.86597E-03 1.70143E-22
4.98817E-03 1.61812E-22
5.11188E-03 1.53982E-22
5.23711E-03 1.46619E-22
5.36383E-03 1.39689E-22
5.49207E-03 1.33162E-22
5.62181E-03 1.27010E-22
5.75306E-03 1.21207E-22
5.88581E-03 1.15731E-22
6.02007E-03 1.10560E-22
6.15583E-03 1.05673E-22
6.29310E-03 1.01051E-22
6.43187E-03 9.66786E-23
6.57214E-03 9.25391E-23
6.71392E-03 8.86176E-23
6.85720E-03 8.49006E-23
7.00198E-03 8.13756E-23
7.14827E-03 7.80309E-23
7.29605E-03 7.48555E-23
7.44534E-03 7.18390E-23
7.59612E-03 6.89721E-23
7.97965E-03 6.24041E-23
8.37255E-03 5.65954E-23
8.77480E-03 5.14441E-23
9.18641E-03 4.68628E-23
9.60736E-03 4.27776E-23
1.00376E-02 3.91257E-23
1.04773E-02 3.58531E-23
1.09262E-02 3.29138E-23
1.13844E-02 3.02678E-23
1.18520E-02 2.78809E-23
1.23288E-02 2.57233E-23
1.28150E-02 2.37691E-23
1.33104E-02 2.19958E-23
1.38150E-02 2.03838E-23
1.43290E-02 1.89158E-23
1.48521E-02 1.75766E-23
1.53845E-02 1.63531E-23
1.59262E-02 1.52335E-23
1.64770E-02 1.42073E-23
1.70371E-02 1.32655E-23
1.76063E-02 1.23998E-23
1.81848E-02 1.16030E-23
1.87724E-02 1.08688E-23
1.93692E-02 1.01912E-23
1.99751E-02 9.56512E-24
2.05901E-02 8.98601E-24
2.12143E-02 8.44968E-24
2.18476E-02 7.95242E-24
2.24900E-02 7.49088E-24
2.31415E-02 7.06202E-24
2.38021E-02 6.66314E-24
2.44717E-02 6.29175E-24
2.51504E-02 5.94562E-24
2.58382E-02 5.62273E-24
2.65349E-02 5.32125E-24
2.72407E-02 5.03949E-24
2.79555E-02 4.77594E-24
2.86793E-02 4.52921E-24
2.94120E-02 4.29803E-24
3.01537E-02 4.08126E-24
3.09043E-02 3.87782E-24
3.16639E-02 3.68676E-24
3.24324E-02 3.50718E-24
3.32098E-02 3.33827E-24
3.39961E-02 3.17929E-24
3.47912E-02 3.02954E-24
3.55952E-02 2.88840E-24
3.64081E-02 2.75527E-24
3.72297E-02 2.62963E-24
3.80602E-02 2.51098E-24
3.88995E-02 2.39885E-24
3.97476E-02 2.29283E-24
4.06044E-02 2.19252E-24
4.14700E-02 2.09756E-24
4.23443E-02 2.00761E-24
4.32273E-02 1.92236E-24
4.41190E-02 1.84153E-24
4.50194E-02 1.76483E-24
4.59284E-02 1.69203E-24
4.68461E-02 1.62289E-24
4.87074E-02 1.49472E-24
5.06030E-02 1.37877E-24
5.25328E-02 1.27367E-24
5.44967E-02 1.17824E-24
5.64946E-02 1.09144E-24
5.85262E-02 1.01235E-24
6.05914E-02 9.40175E-25
6.26901E-02 8.74203E-25
6.48222E-02 8.13813E-25
6.69873E-02 7.58451E-25
6.91854E-02 7.07628E-25
7.14163E-02 6.60908E-25
7.36799E-02 6.17903E-25
7.59760E-02 5.78268E-25
7.83043E-02 5.41694E-25
8.06647E-02 5.07903E-25
8.30571E-02 4.76648E-25
8.54812E-02 4.47707E-25
8.79369E-02 4.20878E-25
9.04240E-02 3.95981E-25
9.29422E-02 3.72854E-25
9.54915E-02 3.51350E-25
9.80716E-02 3.31334E-25
1.00682E-01 3.12687E-25
1.03323E-01 2.95298E-25
1.05995E-01 2.79070E-25
1.08696E-01 2.63910E-25
1.11427E-01 2.49737E-25
1.14188E-01 2.36476E-25
1.16978E-01 2.24057E-25
1.19797E-01 2.12419E-25
1.22645E-01 2.01504E-25
1.25522E-01 1.91260E-25
1.28428E-01 1.81637E-25
1.31361E-01 1.72593E-25
1.34323E-01 1.64087E-25
1.37313E-01 1.56080E-25
1.40330E-01 1.48540E-25
1.43375E-01 1.41434E-25
1.46447E-01 1.34732E-25
1.49545E-01 1.28409E-25
1.52671E-01 1.22439E-25
1.55823E-01 1.16799E-25
1.59001E-01 1.11468E-25
1.62205E-01 1.06426E-25
1.65435E-01 1.01654E-25
1.68690E-01 9.71369E-26
1.71970E-01 9.28575E-26
1.75276E-01 8.88015E-26
1.78606E-01 8.49554E-26
1.81961E-01 8.13064E-26
1.85340E-01 7.78429E-26
1.88743E-01 7.45538E-26
1.92169E-01 7.14289E-26
1.95619E-01 6.84587E-26
1.99092E-01 6.56342E-26
2.02589E-01 6.29471E-26
2.06107E-01 6.03896E-26
2.09649E-01 5.79546E-26
2.13212E-01 5.56350E-26
2.16797E-01 5.34247E-26
2.20404E-01 5.13176E-26
2.24032E-01 4.93080E-26
2.27680E-01 4.73908E-26
2.31350E-01 4.55610E-26
2.35040E-01 4.38141E-26
2.38751E-01 4.21455E-26
2.42481E-01 4.05513E-26
2.46231E-01 3.90277E-26
2.50000E-01 3.75709E-26
2.53788E-01 3.61776E-26
2.57595E-01 3.48446E-26
2.61421E-01 3.35688E-26
2.65264E-01 3.23474E-26
2.69126E-01 3.11778E-26
2.73005E-01 3.00574E-26
2.76901E-01 2.89837E-26
2.80814E-01 2.79546E-26
2.84744E-01 2.69678E-26
2.88691E-01 2.60214E-26
2.92653E-01 2.51135E-26
2.96632E-01 2.42423E-26
3.00625E-01 2.34060E-26
3.04634E-01 2.26030E-26
3.08658E-01 2.18318E-26
3.12697E-01 2.10910E-26
3.16749E-01 2.03791E-26
3.20816E-01 1.96949E-26
3.24896E-01 1.90371E-26
3.28990E-01 1.84045E-26
3.33097E-01 1.77961E-26
3.37216E-01 1.72107E-26
3.41348E-01 1.66474E-26
3.45492E-01 1.61052E-26
3.49647E-01 1.55832E-26
3.53814E-01 1.50805E-26
3.57992E-01 1.45963E-26
3.62181E-01 1.41299E-26
3.66381E-01 1.36804E-26
3.70590E-01 1.32472E-26
3.74810E-01 1.28296E-26
3.79039E-01 1.24269E-26
3.83277E-01 1.20386E-26
3.87524E-01 1.16640E-26
3.91780E-01 1.13026E-26
3.96044E-01 1.09539E-26
4.00316E-01 1.06173E-26
4.04596E-01 1.02924E-26
4.08882E-01 9.97865E-27
4.13176E-01 9.67570E-27
4.17476E-01 9.38308E-27
4.21783E-01 9.10041E-27
4.26095E-01 8.82728E-27
4.30413E-01 8.56334E-27
4.34737E-01 8.30822E-27
4.39065E-01 8.06160E-27
4.43398E-01 7.82315E-27
4.47736E-01 7.59256E-27
4.52077E-01 7.36954E-27
4.56422E-01 7.15380E-27
4.60770E-01 6.94507E-27
4.65122E-01 6.74309E-27
4.69476E-01 6.54762E-27
4.73832E-01 6.35842E-27
4.78190E-01 6.17525E-27
4.82550E-01 5.99790E-27
4.86912E-01 5.82617E-27
4.91274E-01 5.65983E-27
4.95637E-01 5.49872E-27
5.00000E-01 5.34263E-27
5.04363E-01 5.19139E-27
5.08726E-01 5.04484E-27
5.13088E-01 4.90280E-27
5.17450E-01 4.76511E-27
5.21810E-01 4.63164E-27
5.26168E-01 4.50223E-27
5.30524E-01 4.37674E-27
5.34878E-01 4.25503E-27
5.39230E-01 4.13699E-27
5.43578E-01 4.02248E-27
5.47923E-01 3.91139E-27
5.52264E-01 3.80359E-27
5.56602E-01 3.69899E-27
5.60935E-01 3.59747E-27
5.65263E-01 3.49893E-27
5.69587E-01 3.40327E-27
5.73905E-01 3.31040E-27
5.78217E-01 3.22023E-27
5.82524E-01 3.13267E-27
5.86824E-01 3.04763E-27
5.91118E-01 2.96503E-27
5.95404E-01 2.88479E-27
5.99684E-01 2.80685E-27
6.03956E-01 2.73111E-27
6.08220E-01 2.65753E-27
6.12476E-01 2.58601E-27
6.16723E-01 2.51651E-27
6.20961E-01 2.44896E-27
6.25190E-01 2.38329E-27
6.29410E-01 2.31945E-27
6.33619E-01 2.25738E-27
6.37819E-01 2.19703E-27
6.42008E-01 2.13834E-27
6.46186E-01 2.08127E-27
6.50353E-01 2.02575E-27
6.54508E-01 1.97175E-27
6.58652E-01 1.91923E-27
6.62784E-01 1.86812E-27
6.66903E-01 1.81840E-27
6.71010E-01 1.77002E-27
6.75104E-01 1.72294E-27
6.79184E-01 1.67712E-27
6.83251E-01 1.63253E-27
6.87303E-01 1.58913E-27
6.91342E-01 1.54688E-27
6.95366E-01 1.50574E-27
6.99375E-01 1.46570E-27
7.03368E-01 1.42671E-27
7.07347E-01 1.38875E-27
7.11309E-01 1.35178E-27
7.15256E-01 1.31577E-27
7.19186E-01 1.28071E-27
7.23099E-01 1.24656E-27
7.26995E-01 1.21329E-27
7.30874E-01 1.18089E-27
7.34736E-01 1.14932E-27
7.38579E-01 1.11856E-27
7.42405E-01 1.08860E-27
7.46212E-01 1.05940E-27
7.50000E-01 1.03095E-27
7.53769E-01 1.00322E-27
7.57519E-01 9.76204E-28
7.61249E-01 9.49871E-28
7.64960E-01 9.24205E-28
7.68650E-01 8.99189E-28
7.72320E-01 8.74804E-28
7.75968E-01 8.51034E-28
7.79596E-01 8.27861E-28
7.83203E-01 8.05270E-28
7.86788E-01 7.83245E-28
7.90351E-01 7.61770E-28
7.93893E-01 7.40832E-28
7.97411E-01 7.20416E-28
8.00908E-01 7.00507E-28
8.04381E-01 6.81093E-28
8.07831E-01 6.62161E-28
8.11257E-01 6.43698E-28
8.14660E-01 6.25691E-28
8.18039E-01 6.08129E-28
8.21394E-01 5.91000E-28
8.24724E-01 5.74294E-28
8.28030E-01 5.57998E-28
8.31310E-01 5.42104E-28
8.34565E-01 5.26600E-28
8.37795E-01 5.11476E-28
8.40999E-01 4.96723E-28
8.44177E-01 4.82332E-28
8.47329E-01 4.68293E-28
8.50455E-01 4.54598E-28
8.53553E-01 4.41238E-28
8.56625E-01 4.28204E-28
8.59670E-01 4.15489E-28
8.62687E-01 4.03085E-28
8.65677E-01 3.90984E-28
8.68639E-01 3.79179E-28
8.71572E-01 3.67663E-28
8.74478E-01 3.56428E-28
8.77355E-01 3.45468E-28
8.80203E-01 3.34776E-28
8.83022E-01 3.24346E-28
8.85812E-01 3.14171E-28
8.88573E-01 3.04247E-28
8.91304E-01 2.94565E-28
8.94005E-01 2.85122E-28
8.96677E-01 2.75912E-28
8.99318E-01 2.66928E-28
9.01928E-01 2.58166E-28
9.04508E-01 2.49621E-28
9.07058E-01 2.41288E-28
9.09576E-01 2.33162E-28
9.12063E-01 2.25239E-28
9.14519E-01 2.17513E-28
9.16943E-01 2.09981E-28
9.19335E-01 2.02638E-28
9.21696E-01 1.95480E-28
9.24024E-01 1.88503E-28
9.26320E-01 1.81703E-28
9.28584E-01 1.75076E-28
9.30815E-01 1.68619E-28
9.33013E-01 1.62328E-28
9.35178E-01 1.56200E-28
9.37310E-01 1.50231E-28
9.39409E-01 1.44418E-28
9.41474E-01 1.38757E-28
9.43505E-01 1.33246E-28
9.45503E-01 1.27882E-28
9.47467E-01 1.22661E-28
9.49397E-01 1.17581E-28
9.51293E-01 1.12640E-28
9.53154E-01 1.07834E-28
9.54981E-01 1.03160E-28
9.56773E-01 9.86173E-29
9.58530E-01 9.42023E-29
9.60252E-01 8.99129E-29
9.61940E-01 8.57468E-29
9.63592E-01 8.17018E-29
9.65209E-01 7.77758E-29
9.66790E-01 7.39667E-29
9.68336E-01 7.02725E-29
9.69846E-01 6.66912E-29
9.71321E-01 6.32211E-29
9.72759E-01 5.98601E-29
9.74162E-01 5.66068E-29
9.75528E-01 5.34592E-29
9.76858E-01 5.04158E-29
9.78152E-01 4.74750E-29
9.79410E-01 4.46353E-29
9.80631E-01 4.18952E-29
9.81815E-01 3.92534E-29
9.82963E-01 3.67084E-29
9.84074E-01 3.42589E-29
9.85148E-01 3.19038E-29
9.86185E-01 2.96417E-29
9.87185E-01 2.74716E-29
9.88148E-01 2.53922E-29
9.89074E-01 2.34027E-29
9.89962E-01 2.15019E-29
9.90814E-01 1.96889E-29
9.91627E-01 1.79627E-29
9.92404E-01 1.63226E-29
9.93143E-01 1.47676E-29
9.93844E-01 1.32970E-29
9.94508E-01 1.19100E-29
9.95134E-01 1.06060E-29
9.95722E-01 9.38422E-30
9.96273E-01 8.24413E-30
9.96786E-01 7.18513E-30
9.97261E-01 6.20670E-30
9.97698E-01 5.30833E-30
9.98097E-01 4.48958E-30
9.98459E-01 3.75004E-30
9.98782E-01 3.08933E-30
9.99067E-01 2.50713E-30
9.99315E-01 2.00314E-30
9.99524E-01 1.57712E-30
9.99695E-01 1.22885E-30
9.99829E-01 9.58146E-31
9.99924E-01 7.64886E-31
9.99981E-01 6.48968E-31
1.00000E+00 6.10337E-31
