 #
 # Subroutine ELSEPA. Elastic scattering of electrons and positrons
 #                    by neutral atoms and positive ions
 #
 # Projectile: positron
 # Kinetic energy = 1.00000E+07 eV = 3.67493E+05 a.u.
 #
 # WARNING: High-energy factorization with free-atom DF screening.
 #          Absorption, polarization and exchange corrections are
 #          switched off.
 #          Phase shifts are calculated for the bare nucleus.
 #          Scattering amplitudes are not evaluated.
 #
 # Element: Ge,  Z =  32,  atomic weight = 7.26100E+01 g/mol
 #
 # Nuclear model: Fermi distribution
 #                Average radius = 4.46392E-13 cm
 #                Skin thickness = 5.46000E-14 cm
 #
 # Number of electrons = 32
 #
 # Total elastic cross section = 2.35039E-18 cm**2 = 8.39341E-02 a0**2
 # 1st transport cross section = 1.42818E-23 cm**2 = 5.10013E-07 a0**2
 # 2nd transport cross section = 4.13420E-23 cm**2 = 1.47635E-06 a0**2
 #
 #
 # Differential cross section:                       MU=(1-COS(THETA))/2
 #
 #  THETA        MU          DCS          DCS        Sherman      error
 #  (deg)                 (cm**2/sr)   (a0**2/sr)    function
 #----------------------------------------------------------------------
0.00000E+00 2.26150E-12
7.61557E-13 2.26143E-12
1.18994E-12 2.26140E-12
1.71346E-12 2.26135E-12
2.33225E-12 2.26130E-12
3.04617E-12 2.26124E-12
3.85530E-12 2.26117E-12
4.75964E-12 2.26110E-12
5.75917E-12 2.26101E-12
6.85391E-12 2.26092E-12
8.04379E-12 2.26082E-12
9.32893E-12 2.26071E-12
1.07092E-11 2.26060E-12
1.21847E-11 2.26048E-12
1.37554E-11 2.26034E-12
1.54213E-11 2.26021E-12
1.71823E-11 2.26006E-12
1.90386E-11 2.25990E-12
2.09900E-11 2.25974E-12
2.30367E-11 2.25957E-12
2.51785E-11 2.25939E-12
2.74156E-11 2.25921E-12
2.97478E-11 2.25901E-12
3.21752E-11 2.25881E-12
3.46979E-11 2.25860E-12
3.73157E-11 2.25839E-12
4.00286E-11 2.25816E-12
4.28368E-11 2.25793E-12
4.57402E-11 2.25769E-12
4.87388E-11 2.25744E-12
5.18325E-11 2.25718E-12
5.50215E-11 2.25692E-12
5.83057E-11 2.25664E-12
6.16850E-11 2.25636E-12
6.51595E-11 2.25608E-12
6.87293E-11 2.25578E-12
7.23943E-11 2.25548E-12
7.61544E-11 2.25517E-12
1.18991E-10 2.25163E-12
1.71347E-10 2.24732E-12
2.33223E-10 2.24224E-12
3.04617E-10 2.23640E-12
3.85531E-10 2.22982E-12
4.75965E-10 2.22250E-12
5.75917E-10 2.21446E-12
6.85389E-10 2.20570E-12
8.04380E-10 2.19625E-12
9.32891E-10 2.18611E-12
1.07092E-09 2.17530E-12
1.21847E-09 2.16385E-12
1.37554E-09 2.15175E-12
1.54213E-09 2.13905E-12
1.71823E-09 2.12575E-12
1.90386E-09 2.11187E-12
2.09900E-09 2.09742E-12
2.30367E-09 2.08231E-12
2.51785E-09 2.06675E-12
2.74156E-09 2.05077E-12
2.97478E-09 2.03439E-12
3.21752E-09 2.01765E-12
3.46978E-09 2.00018E-12
3.73156E-09 1.98234E-12
4.00286E-09 1.96421E-12
4.28368E-09 1.94582E-12
4.57402E-09 1.92720E-12
4.87388E-09 1.90802E-12
5.18326E-09 1.88846E-12
5.50215E-09 1.86874E-12
5.83057E-09 1.84889E-12
6.16850E-09 1.82894E-12
6.51596E-09 1.80864E-12
6.87293E-09 1.78792E-12
7.23942E-09 1.76717E-12
7.61544E-09 1.74640E-12
1.18991E-08 1.53484E-12
1.71347E-08 1.32813E-12
2.33223E-08 1.13742E-12
3.04617E-08 9.68424E-13
3.85531E-08 8.22804E-13
4.75965E-08 6.99649E-13
5.75917E-08 5.96699E-13
6.85389E-08 5.11152E-13
8.04380E-08 4.40240E-13
9.32891E-08 3.81444E-13
1.07092E-07 3.32550E-13
1.21847E-07 2.91707E-13
1.37554E-07 2.57399E-13
1.54213E-07 2.28399E-13
1.71823E-07 2.03722E-13
1.90386E-07 1.82581E-13
2.09900E-07 1.64238E-13
2.30367E-07 1.47531E-13
2.51785E-07 1.33388E-13
2.74156E-07 1.21336E-13
2.97478E-07 1.11002E-13
3.21752E-07 1.02090E-13
3.46978E-07 9.31646E-14
3.73156E-07 8.52646E-14
4.00286E-07 7.83914E-14
4.28368E-07 7.23824E-14
4.57402E-07 6.71048E-14
4.87388E-07 6.19235E-14
5.18325E-07 5.70813E-14
5.50215E-07 5.28031E-14
5.83057E-07 4.90087E-14
6.16850E-07 4.56312E-14
6.51596E-07 4.24221E-14
6.87293E-07 3.92996E-14
7.23942E-07 3.65077E-14
7.61543E-07 3.40038E-14
1.18991E-06 1.72870E-14
1.71347E-06 9.38787E-15
2.33223E-06 5.43996E-15
3.04617E-06 3.35202E-15
3.85531E-06 2.18131E-15
4.75964E-06 1.48651E-15
5.75916E-06 1.05200E-15
6.85388E-06 7.67615E-16
8.04378E-06 5.74322E-16
9.32888E-06 4.38590E-16
1.07092E-05 3.40671E-16
1.21846E-05 2.68479E-16
1.37553E-05 2.14294E-16
1.54212E-05 1.72988E-16
1.71822E-05 1.41059E-16
1.90385E-05 1.16062E-16
2.09899E-05 9.63130E-17
2.30365E-05 8.05036E-17
2.51783E-05 6.78597E-17
2.74153E-05 5.75142E-17
2.97475E-05 4.90924E-17
3.21749E-05 4.21222E-17
3.46974E-05 3.63569E-17
3.73152E-05 3.15344E-17
4.00281E-05 2.74906E-17
4.28362E-05 2.40708E-17
4.57395E-05 2.11683E-17
4.87380E-05 1.86894E-17
5.18317E-05 1.65634E-17
5.50205E-05 1.47313E-17
5.83045E-05 1.31459E-17
6.16838E-05 1.17688E-17
6.51582E-05 1.05677E-17
6.87277E-05 9.51674E-18
7.23925E-05 8.59343E-18
7.61524E-05 7.78007E-18
9.21439E-05 5.34948E-18
1.09658E-04 3.79933E-18
1.28695E-04 2.77277E-18
1.49255E-04 2.07072E-18
1.71338E-04 1.57748E-18
1.94942E-04 1.22263E-18
2.20070E-04 9.62090E-19
2.46720E-04 7.67312E-19
2.74892E-04 6.19342E-19
3.04586E-04 5.05325E-19
3.35803E-04 4.16325E-19
3.68542E-04 3.46047E-19
4.02802E-04 2.89961E-19
4.38585E-04 2.44765E-19
4.75889E-04 2.08024E-19
5.14715E-04 1.77909E-19
5.55063E-04 1.53040E-19
5.96931E-04 1.32359E-19
6.40321E-04 1.15049E-19
6.85233E-04 1.00472E-19
7.31665E-04 8.81274E-20
7.79618E-04 7.76176E-20
8.29092E-04 6.86252E-20
8.80086E-04 6.08955E-20
9.32601E-04 5.42216E-20
9.86636E-04 4.84354E-20
1.04219E-03 4.33992E-20
1.09927E-03 3.89994E-20
1.15786E-03 3.51421E-20
1.21797E-03 3.17490E-20
1.27961E-03 2.87548E-20
1.34276E-03 2.61046E-20
1.40743E-03 2.37522E-20
1.47362E-03 2.16582E-20
1.54133E-03 1.97895E-20
1.61056E-03 1.81175E-20
1.68131E-03 1.66181E-20
1.75357E-03 1.52702E-20
1.82735E-03 1.40560E-20
1.90265E-03 1.29597E-20
1.97947E-03 1.19681E-20
2.05780E-03 1.10692E-20
2.13765E-03 1.02530E-20
2.21902E-03 9.51041E-21
2.30190E-03 8.83371E-21
2.38630E-03 8.21598E-21
2.47222E-03 7.65117E-21
2.55965E-03 7.13394E-21
2.64859E-03 6.65958E-21
2.73905E-03 6.22389E-21
2.83103E-03 5.82315E-21
2.92452E-03 5.45406E-21
3.01952E-03 5.11368E-21
3.11604E-03 4.79936E-21
3.21407E-03 4.50876E-21
3.31362E-03 4.23976E-21
3.41468E-03 3.99046E-21
3.51725E-03 3.75917E-21
3.62133E-03 3.54434E-21
3.72692E-03 3.34459E-21
3.83403E-03 3.15868E-21
3.94265E-03 2.98546E-21
4.05278E-03 2.82392E-21
4.16442E-03 2.67313E-21
4.27757E-03 2.53223E-21
4.39223E-03 2.40047E-21
4.50840E-03 2.27713E-21
4.62608E-03 2.16159E-21
4.74527E-03 2.05326E-21
4.86597E-03 1.95161E-21
4.98817E-03 1.85615E-21
5.11188E-03 1.76644E-21
5.23711E-03 1.68206E-21
5.36383E-03 1.60264E-21
5.49207E-03 1.52784E-21
5.62181E-03 1.45733E-21
5.75306E-03 1.39083E-21
5.88581E-03 1.32807E-21
6.02007E-03 1.26879E-21
6.15583E-03 1.21277E-21
6.29310E-03 1.15980E-21
6.43187E-03 1.10968E-21
6.57214E-03 1.06222E-21
6.71392E-03 1.01727E-21
6.85720E-03 9.74653E-22
7.00198E-03 9.34240E-22
7.14827E-03 8.95891E-22
7.29605E-03 8.59482E-22
7.44534E-03 8.24895E-22
7.59612E-03 7.92024E-22
7.97965E-03 7.16704E-22
8.37255E-03 6.50092E-22
8.77480E-03 5.91010E-22
9.18641E-03 5.38462E-22
9.60736E-03 4.91601E-22
1.00376E-02 4.49706E-22
1.04773E-02 4.12160E-22
1.09262E-02 3.78434E-22
1.13844E-02 3.48072E-22
1.18520E-02 3.20679E-22
1.23288E-02 2.95916E-22
1.28150E-02 2.73486E-22
1.33104E-02 2.53130E-22
1.38150E-02 2.34623E-22
1.43290E-02 2.17768E-22
1.48521E-02 2.02392E-22
1.53845E-02 1.88341E-22
1.59262E-02 1.75482E-22
1.64770E-02 1.63695E-22
1.70371E-02 1.52876E-22
1.76063E-02 1.42931E-22
1.81848E-02 1.33776E-22
1.87724E-02 1.25339E-22
1.93692E-02 1.17552E-22
1.99751E-02 1.10356E-22
2.05901E-02 1.03699E-22
2.12143E-02 9.75337E-23
2.18476E-02 9.18164E-23
2.24900E-02 8.65091E-23
2.31415E-02 8.15770E-23
2.38021E-02 7.69891E-23
2.44717E-02 7.27169E-23
2.51504E-02 6.87348E-23
2.58382E-02 6.50195E-23
2.65349E-02 6.15500E-23
2.72407E-02 5.83071E-23
2.79555E-02 5.52734E-23
2.86793E-02 5.24329E-23
2.94120E-02 4.97711E-23
3.01537E-02 4.72747E-23
3.09043E-02 4.49316E-23
3.16639E-02 4.27306E-23
3.24324E-02 4.06617E-23
3.32098E-02 3.87154E-23
3.39961E-02 3.68831E-23
3.47912E-02 3.51571E-23
3.55952E-02 3.35300E-23
3.64081E-02 3.19950E-23
3.72297E-02 3.05461E-23
3.80602E-02 2.91775E-23
3.88995E-02 2.78840E-23
3.97476E-02 2.66607E-23
4.06044E-02 2.55032E-23
4.14700E-02 2.44072E-23
4.23443E-02 2.33688E-23
4.32273E-02 2.23845E-23
4.41190E-02 2.14510E-23
4.50194E-02 2.05651E-23
4.59284E-02 1.97241E-23
4.68461E-02 1.89251E-23
4.87074E-02 1.74438E-23
5.06030E-02 1.61031E-23
5.25328E-02 1.48874E-23
5.44967E-02 1.37831E-23
5.64946E-02 1.27782E-23
5.85262E-02 1.18621E-23
6.05914E-02 1.10258E-23
6.26901E-02 1.02611E-23
6.48222E-02 9.56067E-24
6.69873E-02 8.91831E-24
6.91854E-02 8.32832E-24
7.14163E-02 7.78568E-24
7.36799E-02 7.28595E-24
7.59760E-02 6.82516E-24
7.83043E-02 6.39970E-24
8.06647E-02 6.00643E-24
8.30571E-02 5.64249E-24
8.54812E-02 5.30528E-24
8.79369E-02 4.99251E-24
9.04240E-02 4.70213E-24
9.29422E-02 4.43220E-24
9.54915E-02 4.18106E-24
9.80716E-02 3.94720E-24
1.00682E-01 3.72915E-24
1.03323E-01 3.52573E-24
1.05995E-01 3.33574E-24
1.08696E-01 3.15816E-24
1.11427E-01 2.99202E-24
1.14188E-01 2.83647E-24
1.16978E-01 2.69070E-24
1.19797E-01 2.55401E-24
1.22645E-01 2.42571E-24
1.25522E-01 2.30522E-24
1.28428E-01 2.19196E-24
1.31361E-01 2.08543E-24
1.34323E-01 1.98516E-24
1.37313E-01 1.89071E-24
1.40330E-01 1.80170E-24
1.43375E-01 1.71774E-24
1.46447E-01 1.63851E-24
1.49545E-01 1.56369E-24
1.52671E-01 1.49299E-24
1.55823E-01 1.42615E-24
1.59001E-01 1.36291E-24
1.62205E-01 1.30306E-24
1.65435E-01 1.24637E-24
1.68690E-01 1.19265E-24
1.71970E-01 1.14172E-24
1.75276E-01 1.09341E-24
1.78606E-01 1.04756E-24
1.81961E-01 1.00401E-24
1.85340E-01 9.62648E-25
1.88743E-01 9.23330E-25
1.92169E-01 8.85940E-25
1.95619E-01 8.50367E-25
1.99092E-01 8.16508E-25
2.02589E-01 7.84265E-25
2.06107E-01 7.53548E-25
2.09649E-01 7.24273E-25
2.13212E-01 6.96360E-25
2.16797E-01 6.69733E-25
2.20404E-01 6.44325E-25
2.24032E-01 6.20069E-25
2.27680E-01 5.96903E-25
2.31350E-01 5.74772E-25
2.35040E-01 5.53619E-25
2.38751E-01 5.33395E-25
2.42481E-01 5.14051E-25
2.46231E-01 4.95543E-25
2.50000E-01 4.77828E-25
2.53788E-01 4.60867E-25
2.57595E-01 4.44621E-25
2.61421E-01 4.29056E-25
2.65264E-01 4.14138E-25
2.69126E-01 3.99835E-25
2.73005E-01 3.86117E-25
2.76901E-01 3.72958E-25
2.80814E-01 3.60329E-25
2.84744E-01 3.48206E-25
2.88691E-01 3.36565E-25
2.92653E-01 3.25384E-25
2.96632E-01 3.14641E-25
3.00625E-01 3.04316E-25
3.04634E-01 2.94391E-25
3.08658E-01 2.84847E-25
3.12697E-01 2.75667E-25
3.16749E-01 2.66834E-25
3.20816E-01 2.58334E-25
3.24896E-01 2.50151E-25
3.28990E-01 2.42272E-25
3.33097E-01 2.34684E-25
3.37216E-01 2.27374E-25
3.41348E-01 2.20330E-25
3.45492E-01 2.13541E-25
3.49647E-01 2.06995E-25
3.53814E-01 2.00684E-25
3.57992E-01 1.94596E-25
3.62181E-01 1.88724E-25
3.66381E-01 1.83057E-25
3.70590E-01 1.77587E-25
3.74810E-01 1.72307E-25
3.79039E-01 1.67209E-25
3.83277E-01 1.62285E-25
3.87524E-01 1.57529E-25
3.91780E-01 1.52933E-25
3.96044E-01 1.48492E-25
4.00316E-01 1.44200E-25
4.04596E-01 1.40050E-25
4.08882E-01 1.36037E-25
4.13176E-01 1.32156E-25
4.17476E-01 1.28402E-25
4.21783E-01 1.24769E-25
4.26095E-01 1.21254E-25
4.30413E-01 1.17852E-25
4.34737E-01 1.14559E-25
4.39065E-01 1.11370E-25
4.43398E-01 1.08283E-25
4.47736E-01 1.05292E-25
4.52077E-01 1.02395E-25
4.56422E-01 9.95876E-26
4.60770E-01 9.68674E-26
4.65122E-01 9.42309E-26
4.69476E-01 9.16752E-26
4.73832E-01 8.91974E-26
4.78190E-01 8.67946E-26
4.82550E-01 8.44644E-26
4.86912E-01 8.22041E-26
4.91274E-01 8.00114E-26
4.95637E-01 7.78838E-26
5.00000E-01 7.58191E-26
5.04363E-01 7.38152E-26
5.08726E-01 7.18699E-26
5.13088E-01 6.99814E-26
5.17450E-01 6.81477E-26
5.21810E-01 6.63669E-26
5.26168E-01 6.46374E-26
5.30524E-01 6.29573E-26
5.34878E-01 6.13250E-26
5.39230E-01 5.97390E-26
5.43578E-01 5.81978E-26
5.47923E-01 5.66998E-26
5.52264E-01 5.52438E-26
5.56602E-01 5.38283E-26
5.60935E-01 5.24520E-26
5.65263E-01 5.11138E-26
5.69587E-01 4.98123E-26
5.73905E-01 4.85464E-26
5.78217E-01 4.73150E-26
5.82524E-01 4.61171E-26
5.86824E-01 4.49515E-26
5.91118E-01 4.38172E-26
5.95404E-01 4.27134E-26
5.99684E-01 4.16390E-26
6.03956E-01 4.05932E-26
6.08220E-01 3.95751E-26
6.12476E-01 3.85838E-26
6.16723E-01 3.76186E-26
6.20961E-01 3.66786E-26
6.25190E-01 3.57631E-26
6.29410E-01 3.48714E-26
6.33619E-01 3.40028E-26
6.37819E-01 3.31565E-26
6.42008E-01 3.23320E-26
6.46186E-01 3.15285E-26
6.50353E-01 3.07456E-26
6.54508E-01 2.99825E-26
6.58652E-01 2.92387E-26
6.62784E-01 2.85137E-26
6.66903E-01 2.78069E-26
6.71010E-01 2.71178E-26
6.75104E-01 2.64459E-26
6.79184E-01 2.57907E-26
6.83251E-01 2.51517E-26
6.87303E-01 2.45286E-26
6.91342E-01 2.39207E-26
6.95366E-01 2.33278E-26
6.99375E-01 2.27495E-26
7.03368E-01 2.21852E-26
7.07347E-01 2.16346E-26
7.11309E-01 2.10974E-26
7.15256E-01 2.05732E-26
7.19186E-01 2.00616E-26
7.23099E-01 1.95623E-26
7.26995E-01 1.90749E-26
7.30874E-01 1.85992E-26
7.34736E-01 1.81349E-26
7.38579E-01 1.76815E-26
7.42405E-01 1.72390E-26
7.46212E-01 1.68069E-26
7.50000E-01 1.63849E-26
7.53769E-01 1.59729E-26
7.57519E-01 1.55706E-26
7.61249E-01 1.51777E-26
7.64960E-01 1.47939E-26
7.68650E-01 1.44191E-26
7.72320E-01 1.40530E-26
7.75968E-01 1.36954E-26
7.79596E-01 1.33461E-26
7.83203E-01 1.30048E-26
7.86788E-01 1.26714E-26
7.90351E-01 1.23457E-26
7.93893E-01 1.20275E-26
7.97411E-01 1.17165E-26
8.00908E-01 1.14127E-26
8.04381E-01 1.11158E-26
8.07831E-01 1.08257E-26
8.11257E-01 1.05422E-26
8.14660E-01 1.02651E-26
8.18039E-01 9.99439E-27
8.21394E-01 9.72977E-27
8.24724E-01 9.47116E-27
8.28030E-01 9.21840E-27
8.31310E-01 8.97135E-27
8.34565E-01 8.72989E-27
8.37795E-01 8.49388E-27
8.40999E-01 8.26320E-27
8.44177E-01 8.03773E-27
8.47329E-01 7.81733E-27
8.50455E-01 7.60190E-27
8.53553E-01 7.39133E-27
8.56625E-01 7.18550E-27
8.59670E-01 6.98430E-27
8.62687E-01 6.78764E-27
8.65677E-01 6.59541E-27
8.68639E-01 6.40752E-27
8.71572E-01 6.22386E-27
8.74478E-01 6.04435E-27
8.77355E-01 5.86889E-27
8.80203E-01 5.69740E-27
8.83022E-01 5.52979E-27
8.85812E-01 5.36598E-27
8.88573E-01 5.20588E-27
8.91304E-01 5.04943E-27
8.94005E-01 4.89654E-27
8.96677E-01 4.74713E-27
8.99318E-01 4.60114E-27
9.01928E-01 4.45850E-27
9.04508E-01 4.31913E-27
9.07058E-01 4.18298E-27
9.09576E-01 4.04997E-27
9.12063E-01 3.92004E-27
9.14519E-01 3.79314E-27
9.16943E-01 3.66919E-27
9.19335E-01 3.54815E-27
9.21696E-01 3.42996E-27
9.24024E-01 3.31456E-27
9.26320E-01 3.20191E-27
9.28584E-01 3.09194E-27
9.30815E-01 2.98460E-27
9.33013E-01 2.87986E-27
9.35178E-01 2.77766E-27
9.37310E-01 2.67795E-27
9.39409E-01 2.58070E-27
9.41474E-01 2.48585E-27
9.43505E-01 2.39336E-27
9.45503E-01 2.30320E-27
9.47467E-01 2.21532E-27
9.49397E-01 2.12968E-27
9.51293E-01 2.04625E-27
9.53154E-01 1.96499E-27
9.54981E-01 1.88587E-27
9.56773E-01 1.80884E-27
9.58530E-01 1.73388E-27
9.60252E-01 1.66096E-27
9.61940E-01 1.59003E-27
9.63592E-01 1.52108E-27
9.65209E-01 1.45407E-27
9.66790E-01 1.38897E-27
9.68336E-01 1.32575E-27
9.69846E-01 1.26440E-27
9.71321E-01 1.20487E-27
9.72759E-01 1.14716E-27
9.74162E-01 1.09122E-27
9.75528E-01 1.03705E-27
9.76858E-01 9.84610E-28
9.78152E-01 9.33884E-28
9.79410E-01 8.84852E-28
9.80631E-01 8.37492E-28
9.81815E-01 7.91785E-28
9.82963E-01 7.47711E-28
9.84074E-01 7.05252E-28
9.85148E-01 6.64391E-28
9.86185E-01 6.25111E-28
9.87185E-01 5.87395E-28
9.88148E-01 5.51229E-28
9.89074E-01 5.16596E-28
9.89962E-01 4.83484E-28
9.90814E-01 4.51878E-28
9.91627E-01 4.21765E-28
9.92404E-01 3.93133E-28
9.93143E-01 3.65971E-28
9.93844E-01 3.40267E-28
9.94508E-01 3.16011E-28
9.95134E-01 2.93193E-28
9.95722E-01 2.71804E-28
9.96273E-01 2.51834E-28
9.96786E-01 2.33277E-28
9.97261E-01 2.16125E-28
9.97698E-01 2.00370E-28
9.98097E-01 1.86006E-28
9.98459E-01 1.73027E-28
9.98782E-01 1.61429E-28
9.99067E-01 1.51206E-28
9.99315E-01 1.42355E-28
9.99524E-01 1.34871E-28
9.99695E-01 1.28752E-28
9.99829E-01 1.23995E-28
9.99924E-01 1.20599E-28
9.99981E-01 1.18562E-28
1.00000E+00 1.17883E-28
