 #
 # Subroutine ELSEPA. Elastic scattering of electrons and positrons
 #                    by neutral atoms and positive ions
 #
 # Projectile: positron
 # Kinetic energy = 1.25000E+08 eV = 4.59367E+06 a.u.
 #
 # WARNING: High-energy factorization with free-atom DF screening.
 #          Absorption, polarization and exchange corrections are
 #          switched off.
 #          Phase shifts are calculated for the bare nucleus.
 #          Scattering amplitudes are not evaluated.
 #
 # Element: Ge,  Z =  32,  atomic weight = 7.26100E+01 g/mol
 #
 # Nuclear model: Fermi distribution
 #                Average radius = 4.46392E-13 cm
 #                Skin thickness = 5.46000E-14 cm
 #
 # Number of electrons = 32
 #
 # Total elastic cross section = 2.34626E-18 cm**2 = 8.37863E-02 a0**2
 # 1st transport cross section = 1.30120E-25 cm**2 = 4.64667E-09 a0**2
 # 2nd transport cross section = 3.87665E-25 cm**2 = 1.38438E-08 a0**2
 #
 #
 # Differential cross section:                       MU=(1-COS(THETA))/2
 #
 #  THETA        MU          DCS          DCS        Sherman      error
 #  (deg)                 (cm**2/sr)   (a0**2/sr)    function
 #----------------------------------------------------------------------
0.00000E+00 3.22457E-10
7.61557E-13 3.21171E-10
1.18994E-12 3.20452E-10
1.71346E-12 3.19577E-10
2.33225E-12 3.18549E-10
3.04617E-12 3.17368E-10
3.85530E-12 3.16039E-10
4.75964E-12 3.14564E-10
5.75917E-12 3.12947E-10
6.85391E-12 3.11191E-10
8.04379E-12 3.09299E-10
9.32893E-12 3.07278E-10
1.07092E-11 3.05129E-10
1.21847E-11 3.02859E-10
1.37554E-11 3.00473E-10
1.54213E-11 2.97960E-10
1.71823E-11 2.95337E-10
1.90386E-11 2.92627E-10
2.09900E-11 2.89835E-10
2.30367E-11 2.86958E-10
2.51785E-11 2.83950E-10
2.74156E-11 2.80879E-10
2.97478E-11 2.77754E-10
3.21752E-11 2.74580E-10
3.46979E-11 2.71293E-10
3.73157E-11 2.67948E-10
4.00286E-11 2.64574E-10
4.28368E-11 2.61177E-10
4.57402E-11 2.57720E-10
4.87388E-11 2.54187E-10
5.18325E-11 2.50648E-10
5.50215E-11 2.47108E-10
5.83057E-11 2.43570E-10
6.16850E-11 2.39929E-10
6.51595E-11 2.36303E-10
6.87293E-11 2.32696E-10
7.23943E-11 2.29112E-10
7.61544E-11 2.25478E-10
1.18991E-10 1.90030E-10
1.71347E-10 1.57798E-10
2.33223E-10 1.30086E-10
3.04617E-10 1.07046E-10
3.85531E-10 8.83676E-11
4.75965E-10 7.33915E-11
5.75917E-10 6.14179E-11
6.85389E-10 5.18387E-11
8.04380E-10 4.41449E-11
9.32891E-10 3.79198E-11
1.07092E-09 3.28325E-11
1.21847E-09 2.86426E-11
1.37554E-09 2.51578E-11
1.54213E-09 2.21372E-11
1.71823E-09 1.95674E-11
1.90386E-09 1.74499E-11
2.09900E-09 1.56893E-11
2.30367E-09 1.41778E-11
2.51785E-09 1.27091E-11
2.74156E-09 1.14693E-11
2.97478E-09 1.04154E-11
3.21752E-09 9.51356E-12
3.46978E-09 8.63175E-12
3.73156E-09 7.84381E-12
4.00286E-09 7.16281E-12
4.28368E-09 6.57112E-12
4.57402E-09 6.02315E-12
4.87388E-09 5.50003E-12
5.18326E-09 5.04198E-12
5.50215E-09 4.63919E-12
5.83057E-09 4.28250E-12
6.16850E-09 3.92719E-12
6.51596E-09 3.61270E-12
6.87293E-09 3.33337E-12
7.23942E-09 3.08444E-12
7.61544E-09 2.84782E-12
1.18991E-08 1.35718E-12
1.71347E-08 7.10965E-13
2.33223E-08 4.06052E-13
3.04617E-08 2.49530E-13
3.85531E-08 1.62714E-13
4.75965E-08 1.11107E-13
5.75917E-08 7.86639E-14
6.85389E-08 5.72983E-14
8.04380E-08 4.27080E-14
9.32891E-08 3.24538E-14
1.07092E-07 2.50714E-14
1.21847E-07 1.96532E-14
1.37554E-07 1.56064E-14
1.54213E-07 1.25303E-14
1.71823E-07 1.01776E-14
1.90386E-07 8.34428E-15
2.09900E-07 6.90711E-15
2.30367E-07 5.76074E-15
2.51785E-07 4.84395E-15
2.74156E-07 4.10128E-15
2.97478E-07 3.49575E-15
3.21752E-07 2.99799E-15
3.46978E-07 2.58561E-15
3.73156E-07 2.24215E-15
4.00286E-07 1.95368E-15
4.28368E-07 1.71043E-15
4.57402E-07 1.50390E-15
4.87388E-07 1.32774E-15
5.18325E-07 1.17674E-15
5.50215E-07 1.04661E-15
5.83057E-07 9.34094E-16
6.16850E-07 8.36275E-16
6.51596E-07 7.51010E-16
6.87293E-07 6.76344E-16
7.23942E-07 6.10757E-16
7.61543E-07 5.52956E-16
1.18991E-06 2.29919E-16
1.71347E-06 1.11999E-16
2.33223E-06 6.08561E-17
3.04617E-06 3.58290E-17
3.85531E-06 2.24338E-17
4.75964E-06 1.47486E-17
5.75916E-06 1.00876E-17
6.85388E-06 7.12958E-18
8.04378E-06 5.17991E-18
9.32888E-06 3.85304E-18
1.07092E-05 2.92488E-18
1.21846E-05 2.25998E-18
1.37553E-05 1.77364E-18
1.54212E-05 1.41131E-18
1.71822E-05 1.13692E-18
1.90385E-05 9.25956E-19
2.09899E-05 7.61907E-19
2.30365E-05 6.32598E-19
2.51783E-05 5.29551E-19
2.74153E-05 4.46621E-19
2.97475E-05 3.79287E-19
3.21749E-05 3.24170E-19
3.46974E-05 2.78713E-19
3.73152E-05 2.40958E-19
4.00281E-05 2.09390E-19
4.28362E-05 1.82828E-19
4.57395E-05 1.60346E-19
4.87380E-05 1.41212E-19
5.18317E-05 1.24845E-19
5.50205E-05 1.10779E-19
5.83045E-05 9.86376E-20
6.16838E-05 8.81142E-20
6.51582E-05 7.89578E-20
6.87277E-05 7.09610E-20
7.23925E-05 6.39518E-20
7.61524E-05 5.77905E-20
9.21439E-05 3.94528E-20
1.09658E-04 2.78417E-20
1.28695E-04 2.02039E-20
1.49255E-04 1.50127E-20
1.71338E-04 1.13862E-20
1.94942E-04 8.79066E-21
2.20070E-04 6.89389E-21
2.46720E-04 5.48184E-21
2.74892E-04 4.41316E-21
3.04586E-04 3.59248E-21
3.35803E-04 2.95378E-21
3.68542E-04 2.45078E-21
4.02802E-04 2.05031E-21
4.38585E-04 1.72830E-21
4.75889E-04 1.46701E-21
5.14715E-04 1.25321E-21
5.55063E-04 1.07692E-21
5.96931E-04 9.30514E-22
6.40321E-04 8.08123E-22
6.85233E-04 7.05170E-22
7.31665E-04 6.18068E-22
7.79618E-04 5.43982E-22
8.29092E-04 4.80645E-22
8.80086E-04 4.26243E-22
9.32601E-04 3.79306E-22
9.86636E-04 3.38639E-22
1.04219E-03 3.03264E-22
1.09927E-03 2.72376E-22
1.15786E-03 2.45311E-22
1.21797E-03 2.21515E-22
1.27961E-03 2.00527E-22
1.34276E-03 1.81958E-22
1.40743E-03 1.65481E-22
1.47362E-03 1.50821E-22
1.54133E-03 1.37743E-22
1.61056E-03 1.26047E-22
1.68131E-03 1.15561E-22
1.75357E-03 1.06138E-22
1.82735E-03 9.76518E-23
1.90265E-03 8.99932E-23
1.97947E-03 8.30672E-23
2.05780E-03 7.67915E-23
2.13765E-03 7.10943E-23
2.21902E-03 6.59130E-23
2.30190E-03 6.11925E-23
2.38630E-03 5.68846E-23
2.47222E-03 5.29470E-23
2.55965E-03 4.93422E-23
2.64859E-03 4.60371E-23
2.73905E-03 4.30022E-23
2.83103E-03 4.02117E-23
2.92452E-03 3.76423E-23
3.01952E-03 3.52734E-23
3.11604E-03 3.30866E-23
3.21407E-03 3.10654E-23
3.31362E-03 2.91949E-23
3.41468E-03 2.74620E-23
3.51725E-03 2.58547E-23
3.62133E-03 2.43623E-23
3.72692E-03 2.29751E-23
3.83403E-03 2.16843E-23
3.94265E-03 2.04821E-23
4.05278E-03 1.93613E-23
4.16442E-03 1.83154E-23
4.27757E-03 1.73384E-23
4.39223E-03 1.64250E-23
4.50840E-03 1.55704E-23
4.62608E-03 1.47701E-23
4.74527E-03 1.40199E-23
4.86597E-03 1.33162E-23
4.98817E-03 1.26557E-23
5.11188E-03 1.20351E-23
5.23711E-03 1.14516E-23
5.36383E-03 1.09026E-23
5.49207E-03 1.03857E-23
5.62181E-03 9.89871E-24
5.75306E-03 9.43954E-24
5.88581E-03 9.00633E-24
6.02007E-03 8.59735E-24
6.15583E-03 8.21100E-24
6.29310E-03 7.84580E-24
6.43187E-03 7.50038E-24
6.57214E-03 7.17348E-24
6.71392E-03 6.86392E-24
6.85720E-03 6.57063E-24
7.00198E-03 6.29259E-24
7.14827E-03 6.02887E-24
7.29605E-03 5.77859E-24
7.44534E-03 5.54095E-24
7.59612E-03 5.31519E-24
7.97965E-03 4.79830E-24
8.37255E-03 4.34171E-24
8.77480E-03 3.93721E-24
9.18641E-03 3.57789E-24
9.60736E-03 3.25786E-24
1.00376E-02 2.97213E-24
1.04773E-02 2.71639E-24
1.09262E-02 2.48700E-24
1.13844E-02 2.28077E-24
1.18520E-02 2.09499E-24
1.23288E-02 1.92730E-24
1.28150E-02 1.77563E-24
1.33104E-02 1.63821E-24
1.38150E-02 1.51347E-24
1.43290E-02 1.40006E-24
1.48521E-02 1.29677E-24
1.53845E-02 1.20255E-24
1.59262E-02 1.11647E-24
1.64770E-02 1.03772E-24
1.70371E-02 9.65563E-25
1.76063E-02 8.99362E-25
1.81848E-02 8.38544E-25
1.87724E-02 7.82598E-25
1.93692E-02 7.31072E-25
1.99751E-02 6.83558E-25
2.05901E-02 6.39694E-25
2.12143E-02 5.99154E-25
2.18476E-02 5.61645E-25
2.24900E-02 5.26903E-25
2.31415E-02 4.94692E-25
2.38021E-02 4.64798E-25
2.44717E-02 4.37027E-25
2.51504E-02 4.11205E-25
2.58382E-02 3.87172E-25
2.65349E-02 3.64785E-25
2.72407E-02 3.43914E-25
2.79555E-02 3.24440E-25
2.86793E-02 3.06254E-25
2.94120E-02 2.89257E-25
3.01537E-02 2.73361E-25
3.09043E-02 2.58482E-25
3.16639E-02 2.44545E-25
3.24324E-02 2.31482E-25
3.32098E-02 2.19229E-25
3.39961E-02 2.07728E-25
3.47912E-02 1.96926E-25
3.55952E-02 1.86774E-25
3.64081E-02 1.77227E-25
3.72297E-02 1.68244E-25
3.80602E-02 1.59785E-25
3.88995E-02 1.51817E-25
3.97476E-02 1.44306E-25
4.06044E-02 1.37222E-25
4.14700E-02 1.30538E-25
4.23443E-02 1.24226E-25
4.32273E-02 1.18265E-25
4.41190E-02 1.12631E-25
4.50194E-02 1.07303E-25
4.59284E-02 1.02264E-25
4.68461E-02 9.74937E-26
4.87074E-02 8.86990E-26
5.06030E-02 8.08001E-26
5.25328E-02 7.36938E-26
5.44967E-02 6.72903E-26
5.64946E-02 6.15110E-26
5.85262E-02 5.62875E-26
6.05914E-02 5.15596E-26
6.26901E-02 4.72744E-26
6.48222E-02 4.33853E-26
6.69873E-02 3.98514E-26
6.91854E-02 3.66363E-26
7.14163E-02 3.37079E-26
7.36799E-02 3.10376E-26
7.59760E-02 2.86002E-26
7.83043E-02 2.63729E-26
8.06647E-02 2.43357E-26
8.30571E-02 2.24706E-26
8.54812E-02 2.07615E-26
8.79369E-02 1.91940E-26
9.04240E-02 1.77550E-26
9.29422E-02 1.64331E-26
9.54915E-02 1.52177E-26
9.80716E-02 1.40994E-26
1.00682E-01 1.30696E-26
1.03323E-01 1.21208E-26
1.05995E-01 1.12460E-26
1.08696E-01 1.04388E-26
1.11427E-01 9.69356E-27
1.14188E-01 9.00513E-27
1.16978E-01 8.36881E-27
1.19797E-01 7.78030E-27
1.22645E-01 7.23573E-27
1.25522E-01 6.73155E-27
1.28428E-01 6.26454E-27
1.31361E-01 5.83174E-27
1.34323E-01 5.43046E-27
1.37313E-01 5.05823E-27
1.40330E-01 4.71281E-27
1.43375E-01 4.39213E-27
1.46447E-01 4.09430E-27
1.49545E-01 3.81758E-27
1.52671E-01 3.56038E-27
1.55823E-01 3.32124E-27
1.59001E-01 3.09881E-27
1.62205E-01 2.89186E-27
1.65435E-01 2.69925E-27
1.68690E-01 2.51992E-27
1.71970E-01 2.35292E-27
1.75276E-01 2.19735E-27
1.78606E-01 2.05239E-27
1.81961E-01 1.91728E-27
1.85340E-01 1.79132E-27
1.88743E-01 1.67387E-27
1.92169E-01 1.56431E-27
1.95619E-01 1.46210E-27
1.99092E-01 1.36673E-27
2.02589E-01 1.27771E-27
2.06107E-01 1.19462E-27
2.09649E-01 1.11703E-27
2.13212E-01 1.04458E-27
2.16797E-01 9.76908E-28
2.20404E-01 9.13691E-28
2.24032E-01 8.54628E-28
2.27680E-01 7.99436E-28
2.31350E-01 7.47855E-28
2.35040E-01 6.99642E-28
2.38751E-01 6.54571E-28
2.42481E-01 6.12433E-28
2.46231E-01 5.73031E-28
2.50000E-01 5.36185E-28
2.53788E-01 5.01725E-28
2.57595E-01 4.69493E-28
2.61421E-01 4.39343E-28
2.65264E-01 4.11137E-28
2.69126E-01 3.84749E-28
2.73005E-01 3.60059E-28
2.76901E-01 3.36956E-28
2.80814E-01 3.15337E-28
2.84744E-01 2.95105E-28
2.88691E-01 2.76171E-28
2.92653E-01 2.58451E-28
2.96632E-01 2.41865E-28
3.00625E-01 2.26340E-28
3.04634E-01 2.11809E-28
3.08658E-01 1.98206E-28
3.12697E-01 1.85473E-28
3.16749E-01 1.73554E-28
3.20816E-01 1.62396E-28
3.24896E-01 1.51950E-28
3.28990E-01 1.42172E-28
3.33097E-01 1.33018E-28
3.37216E-01 1.24448E-28
3.41348E-01 1.16425E-28
3.45492E-01 1.08915E-28
3.49647E-01 1.01884E-28
3.53814E-01 9.53019E-29
3.57992E-01 8.91404E-29
3.62181E-01 8.33727E-29
3.66381E-01 7.79736E-29
3.70590E-01 7.29198E-29
3.74810E-01 6.81892E-29
3.79039E-01 6.37613E-29
3.83277E-01 5.96170E-29
3.87524E-01 5.57382E-29
3.91780E-01 5.21080E-29
3.96044E-01 4.87106E-29
4.00316E-01 4.55314E-29
4.04596E-01 4.25563E-29
4.08882E-01 3.97725E-29
4.13176E-01 3.71678E-29
4.17476E-01 3.47308E-29
4.21783E-01 3.24509E-29
4.26095E-01 3.03180E-29
4.30413E-01 2.83228E-29
4.34737E-01 2.64567E-29
4.39065E-01 2.47112E-29
4.43398E-01 2.30788E-29
4.47736E-01 2.15522E-29
4.52077E-01 2.01248E-29
4.56422E-01 1.87901E-29
4.60770E-01 1.75423E-29
4.65122E-01 1.63758E-29
4.69476E-01 1.52854E-29
4.73832E-01 1.42662E-29
4.78190E-01 1.33137E-29
4.82550E-01 1.24235E-29
4.86912E-01 1.15918E-29
4.91274E-01 1.08147E-29
4.95637E-01 1.00887E-29
5.00000E-01 9.41060E-30
5.04363E-01 8.77721E-30
5.08726E-01 8.18569E-30
5.13088E-01 7.63333E-30
5.17450E-01 7.11759E-30
5.21810E-01 6.63610E-30
5.26168E-01 6.18665E-30
5.30524E-01 5.76715E-30
5.34878E-01 5.37565E-30
5.39230E-01 5.01034E-30
5.43578E-01 4.66949E-30
5.47923E-01 4.35153E-30
5.52264E-01 4.05493E-30
5.56602E-01 3.77832E-30
5.60935E-01 3.52037E-30
5.65263E-01 3.27987E-30
5.69587E-01 3.05565E-30
5.73905E-01 2.84665E-30
5.78217E-01 2.65186E-30
5.82524E-01 2.47034E-30
5.86824E-01 2.30121E-30
5.91118E-01 2.14364E-30
5.95404E-01 1.99687E-30
5.99684E-01 1.86018E-30
6.03956E-01 1.73289E-30
6.08220E-01 1.61437E-30
6.12476E-01 1.50404E-30
6.16723E-01 1.40134E-30
6.20961E-01 1.30576E-30
6.25190E-01 1.21682E-30
6.29410E-01 1.13406E-30
6.33619E-01 1.05708E-30
6.37819E-01 9.85466E-31
6.42008E-01 9.18866E-31
6.46186E-01 8.56933E-31
6.50353E-01 7.99347E-31
6.54508E-01 7.45810E-31
6.58652E-01 6.96044E-31
6.62784E-01 6.49787E-31
6.66903E-01 6.06797E-31
6.71010E-01 5.66848E-31
6.75104E-01 5.29728E-31
6.79184E-01 4.95239E-31
6.83251E-01 4.63197E-31
6.87303E-01 4.33431E-31
6.91342E-01 4.05781E-31
6.95366E-01 3.80098E-31
6.99375E-01 3.56242E-31
7.03368E-01 3.34083E-31
7.07347E-01 3.13502E-31
7.11309E-01 2.94385E-31
7.15256E-01 2.76628E-31
7.19186E-01 2.60133E-31
7.23099E-01 2.44809E-31
7.26995E-01 2.30572E-31
7.30874E-01 2.17343E-31
7.34736E-01 2.05049E-31
7.38579E-01 1.93622E-31
7.42405E-01 1.82997E-31
7.46212E-01 1.73117E-31
7.50000E-01 1.63927E-31
7.53769E-01 1.55376E-31
7.57519E-01 1.47416E-31
7.61249E-01 1.40004E-31
7.64960E-01 1.33099E-31
7.68650E-01 1.26664E-31
7.72320E-01 1.20662E-31
7.75968E-01 1.15061E-31
7.79596E-01 1.09832E-31
7.83203E-01 1.04946E-31
7.86788E-01 1.00378E-31
7.90351E-01 9.61026E-32
7.93893E-01 9.20983E-32
7.97411E-01 8.83444E-32
8.00908E-01 8.48218E-32
8.04381E-01 8.15128E-32
8.07831E-01 7.84010E-32
8.11257E-01 7.54715E-32
8.14660E-01 7.27102E-32
8.18039E-01 7.01042E-32
8.21394E-01 6.76417E-32
8.24724E-01 6.53116E-32
8.28030E-01 6.31038E-32
8.31310E-01 6.10089E-32
8.34565E-01 5.90184E-32
8.37795E-01 5.71243E-32
8.40999E-01 5.53192E-32
8.44177E-01 5.35965E-32
8.47329E-01 5.19500E-32
8.50455E-01 5.03739E-32
8.53553E-01 4.88630E-32
8.56625E-01 4.74126E-32
8.59670E-01 4.60182E-32
8.62687E-01 4.46758E-32
8.65677E-01 4.33816E-32
8.68639E-01 4.21323E-32
8.71572E-01 4.09248E-32
8.74478E-01 3.97561E-32
8.77355E-01 3.86238E-32
8.80203E-01 3.75254E-32
8.83022E-01 3.64588E-32
8.85812E-01 3.54219E-32
8.88573E-01 3.44131E-32
8.91304E-01 3.34305E-32
8.94005E-01 3.24728E-32
8.96677E-01 3.15386E-32
8.99318E-01 3.06266E-32
9.01928E-01 2.97358E-32
9.04508E-01 2.88651E-32
9.07058E-01 2.80135E-32
9.09576E-01 2.71803E-32
9.12063E-01 2.63647E-32
9.14519E-01 2.55660E-32
9.16943E-01 2.47836E-32
9.19335E-01 2.40170E-32
9.21696E-01 2.32656E-32
9.24024E-01 2.25291E-32
9.26320E-01 2.18069E-32
9.28584E-01 2.10988E-32
9.30815E-01 2.04044E-32
9.33013E-01 1.97235E-32
9.35178E-01 1.90557E-32
9.37310E-01 1.84008E-32
9.39409E-01 1.77587E-32
9.41474E-01 1.71292E-32
9.43505E-01 1.65120E-32
9.45503E-01 1.59070E-32
9.47467E-01 1.53142E-32
9.49397E-01 1.47334E-32
9.51293E-01 1.41645E-32
9.53154E-01 1.36073E-32
9.54981E-01 1.30619E-32
9.56773E-01 1.25281E-32
9.58530E-01 1.20059E-32
9.60252E-01 1.14953E-32
9.61940E-01 1.09961E-32
9.63592E-01 1.05083E-32
9.65209E-01 1.00320E-32
9.66790E-01 9.56691E-33
9.68336E-01 9.11320E-33
9.69846E-01 8.67076E-33
9.71321E-01 8.23956E-33
9.72759E-01 7.81962E-33
9.74162E-01 7.41086E-33
9.75528E-01 7.01330E-33
9.76858E-01 6.62686E-33
9.78152E-01 6.25161E-33
9.79410E-01 5.88744E-33
9.80631E-01 5.53437E-33
9.81815E-01 5.19238E-33
9.82963E-01 4.86145E-33
9.84074E-01 4.54158E-33
9.85148E-01 4.23272E-33
9.86185E-01 3.93488E-33
9.87185E-01 3.64804E-33
9.88148E-01 3.37216E-33
9.89074E-01 3.10727E-33
9.89962E-01 2.85332E-33
9.90814E-01 2.61029E-33
9.91627E-01 2.37820E-33
9.92404E-01 2.15699E-33
9.93143E-01 1.94668E-33
9.93844E-01 1.74725E-33
9.94508E-01 1.55867E-33
9.95134E-01 1.38096E-33
9.95722E-01 1.21408E-33
9.96273E-01 1.05803E-33
9.96786E-01 9.12777E-34
9.97261E-01 7.78345E-34
9.97698E-01 6.54691E-34
9.98097E-01 5.41828E-34
9.98459E-01 4.39750E-34
9.98782E-01 3.48441E-34
9.99067E-01 2.67868E-34
9.99315E-01 1.98076E-34
9.99524E-01 1.39017E-34
9.99695E-01 9.07108E-35
9.99829E-01 5.31394E-35
9.99924E-01 2.63089E-35
9.99981E-01 1.02093E-35
1.00000E+00 4.84160E-36
