 #
 # Subroutine ELSEPA. Elastic scattering of electrons and positrons
 #                    by neutral atoms and positive ions
 #
 # Projectile: positron
 # Kinetic energy = 5.00000E+06 eV = 1.83747E+05 a.u.
 #
 # WARNING: High-energy factorization with free-atom DF screening.
 #          Absorption, polarization and exchange corrections are
 #          switched off.
 #          Phase shifts are calculated for the bare nucleus.
 #          Scattering amplitudes are not evaluated.
 #
 # Element: Ge,  Z =  32,  atomic weight = 7.26100E+01 g/mol
 #
 # Nuclear model: Fermi distribution
 #                Average radius = 4.46392E-13 cm
 #                Skin thickness = 5.46000E-14 cm
 #
 # Number of electrons = 32
 #
 # Total elastic cross section = 2.36914E-18 cm**2 = 8.46037E-02 a0**2
 # 1st transport cross section = 4.69316E-23 cm**2 = 1.67596E-06 a0**2
 # 2nd transport cross section = 1.35161E-22 cm**2 = 4.82668E-06 a0**2
 #
 #
 # Differential cross section:                       MU=(1-COS(THETA))/2
 #
 #  THETA        MU          DCS          DCS        Sherman      error
 #  (deg)                 (cm**2/sr)   (a0**2/sr)    function
 #----------------------------------------------------------------------
0.00000E+00 6.21683E-13
7.61557E-13 6.21678E-13
1.18994E-12 6.21675E-13
1.71346E-12 6.21671E-13
2.33225E-12 6.21668E-13
3.04617E-12 6.21663E-13
3.85530E-12 6.21658E-13
4.75964E-12 6.21652E-13
5.75917E-12 6.21645E-13
6.85391E-12 6.21639E-13
8.04379E-12 6.21631E-13
9.32893E-12 6.21623E-13
1.07092E-11 6.21614E-13
1.21847E-11 6.21605E-13
1.37554E-11 6.21595E-13
1.54213E-11 6.21584E-13
1.71823E-11 6.21573E-13
1.90386E-11 6.21561E-13
2.09900E-11 6.21549E-13
2.30367E-11 6.21536E-13
2.51785E-11 6.21523E-13
2.74156E-11 6.21509E-13
2.97478E-11 6.21494E-13
3.21752E-11 6.21479E-13
3.46979E-11 6.21463E-13
3.73157E-11 6.21446E-13
4.00286E-11 6.21429E-13
4.28368E-11 6.21412E-13
4.57402E-11 6.21393E-13
4.87388E-11 6.21375E-13
5.18325E-11 6.21355E-13
5.50215E-11 6.21335E-13
5.83057E-11 6.21315E-13
6.16850E-11 6.21294E-13
6.51595E-11 6.21272E-13
6.87293E-11 6.21249E-13
7.23943E-11 6.21226E-13
7.61544E-11 6.21203E-13
1.18991E-10 6.20935E-13
1.71347E-10 6.20608E-13
2.33223E-10 6.20223E-13
3.04617E-10 6.19779E-13
3.85531E-10 6.19276E-13
4.75965E-10 6.18715E-13
5.75917E-10 6.18097E-13
6.85389E-10 6.17421E-13
8.04380E-10 6.16687E-13
9.32891E-10 6.15896E-13
1.07092E-09 6.15049E-13
1.21847E-09 6.14146E-13
1.37554E-09 6.13186E-13
1.54213E-09 6.12172E-13
1.71823E-09 6.11102E-13
1.90386E-09 6.09978E-13
2.09900E-09 6.08799E-13
2.30367E-09 6.07567E-13
2.51785E-09 6.06283E-13
2.74156E-09 6.04945E-13
2.97478E-09 6.03556E-13
3.21752E-09 6.02116E-13
3.46978E-09 6.00625E-13
3.73156E-09 5.99084E-13
4.00286E-09 5.97493E-13
4.28368E-09 5.95854E-13
4.57402E-09 5.94167E-13
4.87388E-09 5.92433E-13
5.18326E-09 5.90652E-13
5.50215E-09 5.88825E-13
5.83057E-09 5.86954E-13
6.16850E-09 5.85037E-13
6.51596E-09 5.83078E-13
6.87293E-09 5.81075E-13
7.23942E-09 5.79031E-13
7.61544E-09 5.76945E-13
1.18991E-08 5.54011E-13
1.71347E-08 5.27907E-13
2.33223E-08 4.99522E-13
3.04617E-08 4.69716E-13
3.85531E-08 4.39277E-13
4.75965E-08 4.08890E-13
5.75917E-08 3.79117E-13
6.85389E-08 3.50399E-13
8.04380E-08 3.23057E-13
9.32891E-08 2.97304E-13
1.07092E-07 2.73264E-13
1.21847E-07 2.50990E-13
1.37554E-07 2.30473E-13
1.54213E-07 2.11666E-13
1.71823E-07 1.94490E-13
1.90386E-07 1.78849E-13
2.09900E-07 1.64636E-13
2.30367E-07 1.51738E-13
2.51785E-07 1.40043E-13
2.74156E-07 1.29444E-13
2.97478E-07 1.19837E-13
3.21752E-07 1.11125E-13
3.46978E-07 1.03220E-13
3.73156E-07 9.60391E-14
4.00286E-07 8.95089E-14
4.28368E-07 8.35621E-14
4.57402E-07 7.81384E-14
4.87388E-07 7.31838E-14
5.18325E-07 6.86500E-14
5.50215E-07 6.44938E-14
5.83057E-07 6.06768E-14
6.16850E-07 5.71649E-14
6.51596E-07 5.39275E-14
6.87293E-07 5.09378E-14
7.23942E-07 4.81715E-14
7.61543E-07 4.56073E-14
1.18991E-06 2.77547E-14
1.71347E-06 1.79612E-14
2.33223E-06 1.20410E-14
3.04617E-06 8.26582E-15
3.85531E-06 5.78550E-15
4.75964E-06 4.12387E-15
5.75916E-06 2.99306E-15
6.85388E-06 2.21195E-15
8.04378E-06 1.66412E-15
9.32888E-06 1.27382E-15
1.07092E-05 9.91222E-16
1.21846E-05 7.83263E-16
1.37553E-05 6.27759E-16
1.54212E-05 5.09659E-16
1.71822E-05 4.18628E-16
1.90385E-05 3.47466E-16
2.09899E-05 2.91127E-16
2.30365E-05 2.45980E-16
2.51783E-05 2.09402E-16
2.74153E-05 1.79471E-16
2.97475E-05 1.54755E-16
3.21749E-05 1.34178E-16
3.46974E-05 1.16920E-16
3.73152E-05 1.02348E-16
4.00281E-05 8.99684E-17
4.28362E-05 7.93940E-17
4.57395E-05 7.03154E-17
4.87380E-05 6.24848E-17
5.18317E-05 5.57018E-17
5.50205E-05 4.98030E-17
5.83045E-05 4.46544E-17
6.16838E-05 4.01449E-17
6.51582E-05 3.61827E-17
6.87277E-05 3.26907E-17
7.23925E-05 2.96043E-17
7.61524E-05 2.68689E-17
9.21439E-05 1.86097E-17
1.09658E-04 1.32731E-17
1.28695E-04 9.71085E-18
1.49255E-04 7.26439E-18
1.71338E-04 5.54135E-18
1.94942E-04 4.30034E-18
2.20070E-04 3.38848E-18
2.46720E-04 2.70638E-18
2.74892E-04 2.18791E-18
3.04586E-04 1.78808E-18
3.35803E-04 1.47570E-18
3.68542E-04 1.22875E-18
4.02802E-04 1.03142E-18
4.38585E-04 8.72188E-19
4.75889E-04 7.42541E-19
5.14715E-04 6.36112E-19
5.55063E-04 5.48079E-19
5.96931E-04 4.74750E-19
6.40321E-04 4.13272E-19
6.85233E-04 3.61417E-19
7.31665E-04 3.17434E-19
7.79618E-04 2.79930E-19
8.29092E-04 2.47793E-19
8.80086E-04 2.20128E-19
9.32601E-04 1.96209E-19
9.86636E-04 1.75444E-19
1.04219E-03 1.57348E-19
1.09927E-03 1.41519E-19
1.15786E-03 1.27626E-19
1.21797E-03 1.15391E-19
1.27961E-03 1.04584E-19
1.34276E-03 9.50089E-20
1.40743E-03 8.65014E-20
1.47362E-03 7.89222E-20
1.54133E-03 7.21526E-20
1.61056E-03 6.60911E-20
1.68131E-03 6.06508E-20
1.75357E-03 5.57571E-20
1.82735E-03 5.13456E-20
1.90265E-03 4.73603E-20
1.97947E-03 4.37531E-20
2.05780E-03 4.04816E-20
2.13765E-03 3.75092E-20
2.21902E-03 3.48038E-20
2.30190E-03 3.23371E-20
2.38630E-03 3.00843E-20
2.47222E-03 2.80237E-20
2.55965E-03 2.61359E-20
2.64859E-03 2.44039E-20
2.73905E-03 2.28124E-20
2.83103E-03 2.13482E-20
2.92452E-03 1.99992E-20
3.01952E-03 1.87547E-20
3.11604E-03 1.76051E-20
3.21407E-03 1.65420E-20
3.31362E-03 1.55576E-20
3.41468E-03 1.46452E-20
3.51725E-03 1.37984E-20
3.62133E-03 1.30117E-20
3.72692E-03 1.22800E-20
3.83403E-03 1.15989E-20
3.94265E-03 1.09642E-20
4.05278E-03 1.03722E-20
4.16442E-03 9.81941E-21
4.27757E-03 9.30284E-21
4.39223E-03 8.81968E-21
4.50840E-03 8.36735E-21
4.62608E-03 7.94354E-21
4.74527E-03 7.54613E-21
4.86597E-03 7.17316E-21
4.98817E-03 6.82287E-21
5.11188E-03 6.49361E-21
5.23711E-03 6.18390E-21
5.36383E-03 5.89236E-21
5.49207E-03 5.61773E-21
5.62181E-03 5.35885E-21
5.75306E-03 5.11466E-21
5.88581E-03 4.88416E-21
6.02007E-03 4.66644E-21
6.15583E-03 4.46067E-21
6.29310E-03 4.26608E-21
6.43187E-03 4.08193E-21
6.57214E-03 3.90757E-21
6.71392E-03 3.74238E-21
6.85720E-03 3.58580E-21
7.00198E-03 3.43728E-21
7.14827E-03 3.29634E-21
7.29605E-03 3.16251E-21
7.44534E-03 3.03538E-21
7.59612E-03 2.91455E-21
7.97965E-03 2.63764E-21
8.37255E-03 2.39272E-21
8.77480E-03 2.17545E-21
9.18641E-03 1.98219E-21
9.60736E-03 1.80982E-21
1.00376E-02 1.65571E-21
1.04773E-02 1.51758E-21
1.09262E-02 1.39349E-21
1.13844E-02 1.28176E-21
1.18520E-02 1.18096E-21
1.23288E-02 1.08983E-21
1.28150E-02 1.00727E-21
1.33104E-02 9.32350E-22
1.38150E-02 8.64227E-22
1.43290E-02 8.02182E-22
1.48521E-02 7.45575E-22
1.53845E-02 6.93847E-22
1.59262E-02 6.46503E-22
1.64770E-02 6.03105E-22
1.70371E-02 5.63268E-22
1.76063E-02 5.26647E-22
1.81848E-02 4.92936E-22
1.87724E-02 4.61864E-22
1.93692E-02 4.33186E-22
1.99751E-02 4.06686E-22
2.05901E-02 3.82169E-22
2.12143E-02 3.59459E-22
2.18476E-02 3.38401E-22
2.24900E-02 3.18852E-22
2.31415E-02 3.00685E-22
2.38021E-02 2.83785E-22
2.44717E-02 2.68047E-22
2.51504E-02 2.53377E-22
2.58382E-02 2.39690E-22
2.65349E-02 2.26908E-22
2.72407E-02 2.14961E-22
2.79555E-02 2.03784E-22
2.86793E-02 1.93318E-22
2.94120E-02 1.83511E-22
3.01537E-02 1.74312E-22
3.09043E-02 1.65679E-22
3.16639E-02 1.57569E-22
3.24324E-02 1.49945E-22
3.32098E-02 1.42773E-22
3.39961E-02 1.36021E-22
3.47912E-02 1.29660E-22
3.55952E-02 1.23663E-22
3.64081E-02 1.18007E-22
3.72297E-02 1.12667E-22
3.80602E-02 1.07623E-22
3.88995E-02 1.02855E-22
3.97476E-02 9.83468E-23
4.06044E-02 9.40802E-23
4.14700E-02 9.00403E-23
4.23443E-02 8.62130E-23
4.32273E-02 8.25849E-23
4.41190E-02 7.91438E-23
4.50194E-02 7.58783E-23
4.59284E-02 7.27779E-23
4.68461E-02 6.98326E-23
4.87074E-02 6.43714E-23
5.06030E-02 5.94286E-23
5.25328E-02 5.49465E-23
5.44967E-02 5.08748E-23
5.64946E-02 4.71694E-23
5.85262E-02 4.37916E-23
6.05914E-02 4.07076E-23
6.26901E-02 3.78873E-23
6.48222E-02 3.53042E-23
6.69873E-02 3.29350E-23
6.91854E-02 3.07589E-23
7.14163E-02 2.87574E-23
7.36799E-02 2.69140E-23
7.59760E-02 2.52141E-23
7.83043E-02 2.36446E-23
8.06647E-02 2.21937E-23
8.30571E-02 2.08509E-23
8.54812E-02 1.96067E-23
8.79369E-02 1.84526E-23
9.04240E-02 1.73810E-23
9.29422E-02 1.63849E-23
9.54915E-02 1.54581E-23
9.80716E-02 1.45949E-23
1.00682E-01 1.37902E-23
1.03323E-01 1.30393E-23
1.05995E-01 1.23380E-23
1.08696E-01 1.16824E-23
1.11427E-01 1.10690E-23
1.14188E-01 1.04947E-23
1.16978E-01 9.95653E-24
1.19797E-01 9.45178E-24
1.22645E-01 8.97803E-24
1.25522E-01 8.53304E-24
1.28428E-01 8.11476E-24
1.31361E-01 7.72130E-24
1.34323E-01 7.35092E-24
1.37313E-01 7.00205E-24
1.40330E-01 6.67320E-24
1.43375E-01 6.36303E-24
1.46447E-01 6.07030E-24
1.49545E-01 5.79384E-24
1.52671E-01 5.53260E-24
1.55823E-01 5.28558E-24
1.59001E-01 5.05187E-24
1.62205E-01 4.83065E-24
1.65435E-01 4.62111E-24
1.68690E-01 4.42254E-24
1.71970E-01 4.23426E-24
1.75276E-01 4.05564E-24
1.78606E-01 3.88610E-24
1.81961E-01 3.72509E-24
1.85340E-01 3.57211E-24
1.88743E-01 3.42670E-24
1.92169E-01 3.28841E-24
1.95619E-01 3.15683E-24
1.99092E-01 3.03158E-24
2.02589E-01 2.91230E-24
2.06107E-01 2.79865E-24
2.09649E-01 2.69033E-24
2.13212E-01 2.58703E-24
2.16797E-01 2.48850E-24
2.20404E-01 2.39446E-24
2.24032E-01 2.30468E-24
2.27680E-01 2.21893E-24
2.31350E-01 2.13699E-24
2.35040E-01 2.05867E-24
2.38751E-01 1.98379E-24
2.42481E-01 1.91216E-24
2.46231E-01 1.84362E-24
2.50000E-01 1.77801E-24
2.53788E-01 1.71518E-24
2.57595E-01 1.65499E-24
2.61421E-01 1.59733E-24
2.65264E-01 1.54205E-24
2.69126E-01 1.48905E-24
2.73005E-01 1.43822E-24
2.76901E-01 1.38944E-24
2.80814E-01 1.34263E-24
2.84744E-01 1.29769E-24
2.88691E-01 1.25453E-24
2.92653E-01 1.21308E-24
2.96632E-01 1.17324E-24
3.00625E-01 1.13495E-24
3.04634E-01 1.09814E-24
3.08658E-01 1.06274E-24
3.12697E-01 1.02868E-24
3.16749E-01 9.95907E-25
3.20816E-01 9.64365E-25
3.24896E-01 9.34001E-25
3.28990E-01 9.04761E-25
3.33097E-01 8.76597E-25
3.37216E-01 8.49460E-25
3.41348E-01 8.23305E-25
3.45492E-01 7.98093E-25
3.49647E-01 7.73790E-25
3.53814E-01 7.50352E-25
3.57992E-01 7.27742E-25
3.62181E-01 7.05925E-25
3.66381E-01 6.84870E-25
3.70590E-01 6.64547E-25
3.74810E-01 6.44926E-25
3.79039E-01 6.25979E-25
3.83277E-01 6.07677E-25
3.87524E-01 5.89996E-25
3.91780E-01 5.72909E-25
3.96044E-01 5.56396E-25
4.00316E-01 5.40432E-25
4.04596E-01 5.24997E-25
4.08882E-01 5.10070E-25
4.13176E-01 4.95631E-25
4.17476E-01 4.81662E-25
4.21783E-01 4.68146E-25
4.26095E-01 4.55064E-25
4.30413E-01 4.42401E-25
4.34737E-01 4.30141E-25
4.39065E-01 4.18269E-25
4.43398E-01 4.06770E-25
4.47736E-01 3.95632E-25
4.52077E-01 3.84841E-25
4.56422E-01 3.74384E-25
4.60770E-01 3.64249E-25
4.65122E-01 3.54425E-25
4.69476E-01 3.44900E-25
4.73832E-01 3.35664E-25
4.78190E-01 3.26708E-25
4.82550E-01 3.18020E-25
4.86912E-01 3.09591E-25
4.91274E-01 3.01413E-25
4.95637E-01 2.93478E-25
5.00000E-01 2.85775E-25
5.04363E-01 2.78299E-25
5.08726E-01 2.71040E-25
5.13088E-01 2.63992E-25
5.17450E-01 2.57147E-25
5.21810E-01 2.50499E-25
5.26168E-01 2.44041E-25
5.30524E-01 2.37767E-25
5.34878E-01 2.31671E-25
5.39230E-01 2.25746E-25
5.43578E-01 2.19988E-25
5.47923E-01 2.14391E-25
5.52264E-01 2.08949E-25
5.56602E-01 2.03658E-25
5.60935E-01 1.98513E-25
5.65263E-01 1.93510E-25
5.69587E-01 1.88643E-25
5.73905E-01 1.83908E-25
5.78217E-01 1.79302E-25
5.82524E-01 1.74820E-25
5.86824E-01 1.70458E-25
5.91118E-01 1.66214E-25
5.95404E-01 1.62082E-25
5.99684E-01 1.58060E-25
6.03956E-01 1.54144E-25
6.08220E-01 1.50331E-25
6.12476E-01 1.46618E-25
6.16723E-01 1.43002E-25
6.20961E-01 1.39480E-25
6.25190E-01 1.36049E-25
6.29410E-01 1.32707E-25
6.33619E-01 1.29451E-25
6.37819E-01 1.26278E-25
6.42008E-01 1.23186E-25
6.46186E-01 1.20173E-25
6.50353E-01 1.17236E-25
6.54508E-01 1.14373E-25
6.58652E-01 1.11582E-25
6.62784E-01 1.08860E-25
6.66903E-01 1.06207E-25
6.71010E-01 1.03620E-25
6.75104E-01 1.01097E-25
6.79184E-01 9.86362E-26
6.83251E-01 9.62360E-26
6.87303E-01 9.38948E-26
6.91342E-01 9.16107E-26
6.95366E-01 8.93824E-26
6.99375E-01 8.72082E-26
7.03368E-01 8.50867E-26
7.07347E-01 8.30163E-26
7.11309E-01 8.09959E-26
7.15256E-01 7.90239E-26
7.19186E-01 7.70991E-26
7.23099E-01 7.52202E-26
7.26995E-01 7.33860E-26
7.30874E-01 7.15953E-26
7.34736E-01 6.98470E-26
7.38579E-01 6.81399E-26
7.42405E-01 6.64729E-26
7.46212E-01 6.48451E-26
7.50000E-01 6.32554E-26
7.53769E-01 6.17028E-26
7.57519E-01 6.01863E-26
7.61249E-01 5.87051E-26
7.64960E-01 5.72581E-26
7.68650E-01 5.58447E-26
7.72320E-01 5.44638E-26
7.75968E-01 5.31148E-26
7.79596E-01 5.17967E-26
7.83203E-01 5.05088E-26
7.86788E-01 4.92504E-26
7.90351E-01 4.80207E-26
7.93893E-01 4.68191E-26
7.97411E-01 4.56448E-26
8.00908E-01 4.44971E-26
8.04381E-01 4.33755E-26
8.07831E-01 4.22793E-26
8.11257E-01 4.12078E-26
8.14660E-01 4.01606E-26
8.18039E-01 3.91369E-26
8.21394E-01 3.81363E-26
8.24724E-01 3.71582E-26
8.28030E-01 3.62021E-26
8.31310E-01 3.52674E-26
8.34565E-01 3.43537E-26
8.37795E-01 3.34605E-26
8.40999E-01 3.25873E-26
8.44177E-01 3.17336E-26
8.47329E-01 3.08990E-26
8.50455E-01 3.00831E-26
8.53553E-01 2.92854E-26
8.56625E-01 2.85056E-26
8.59670E-01 2.77431E-26
8.62687E-01 2.69978E-26
8.65677E-01 2.62691E-26
8.68639E-01 2.55567E-26
8.71572E-01 2.48603E-26
8.74478E-01 2.41794E-26
8.77355E-01 2.35139E-26
8.80203E-01 2.28632E-26
8.83022E-01 2.22272E-26
8.85812E-01 2.16055E-26
8.88573E-01 2.09978E-26
8.91304E-01 2.04039E-26
8.94005E-01 1.98233E-26
8.96677E-01 1.92559E-26
8.99318E-01 1.87014E-26
9.01928E-01 1.81595E-26
9.04508E-01 1.76300E-26
9.07058E-01 1.71125E-26
9.09576E-01 1.66070E-26
9.12063E-01 1.61131E-26
9.14519E-01 1.56306E-26
9.16943E-01 1.51593E-26
9.19335E-01 1.46990E-26
9.21696E-01 1.42494E-26
9.24024E-01 1.38104E-26
9.26320E-01 1.33818E-26
9.28584E-01 1.29633E-26
9.30815E-01 1.25548E-26
9.33013E-01 1.21561E-26
9.35178E-01 1.17670E-26
9.37310E-01 1.13873E-26
9.39409E-01 1.10170E-26
9.41474E-01 1.06557E-26
9.43505E-01 1.03034E-26
9.45503E-01 9.95992E-27
9.47467E-01 9.62508E-27
9.49397E-01 9.29875E-27
9.51293E-01 8.98079E-27
9.53154E-01 8.67105E-27
9.54981E-01 8.36941E-27
9.56773E-01 8.07574E-27
9.58530E-01 7.78991E-27
9.60252E-01 7.51180E-27
9.61940E-01 7.24129E-27
9.63592E-01 6.97827E-27
9.65209E-01 6.72263E-27
9.66790E-01 6.47426E-27
9.68336E-01 6.23305E-27
9.69846E-01 5.99891E-27
9.71321E-01 5.77174E-27
9.72759E-01 5.55144E-27
9.74162E-01 5.33792E-27
9.75528E-01 5.13110E-27
9.76858E-01 4.93088E-27
9.78152E-01 4.73719E-27
9.79410E-01 4.54995E-27
9.80631E-01 4.36908E-27
9.81815E-01 4.19450E-27
9.82963E-01 4.02615E-27
9.84074E-01 3.86395E-27
9.85148E-01 3.70785E-27
9.86185E-01 3.55777E-27
9.87185E-01 3.41367E-27
9.88148E-01 3.27547E-27
9.89074E-01 3.14312E-27
9.89962E-01 3.01657E-27
9.90814E-01 2.89577E-27
9.91627E-01 2.78067E-27
9.92404E-01 2.67123E-27
9.93143E-01 2.56740E-27
9.93844E-01 2.46914E-27
9.94508E-01 2.37641E-27
9.95134E-01 2.28917E-27
9.95722E-01 2.20739E-27
9.96273E-01 2.13104E-27
9.96786E-01 2.06008E-27
9.97261E-01 1.99449E-27
9.97698E-01 1.93424E-27
9.98097E-01 1.87931E-27
9.98459E-01 1.82968E-27
9.98782E-01 1.78533E-27
9.99067E-01 1.74623E-27
9.99315E-01 1.71238E-27
9.99524E-01 1.68376E-27
9.99695E-01 1.66035E-27
9.99829E-01 1.64216E-27
9.99924E-01 1.62917E-27
9.99981E-01 1.62138E-27
1.00000E+00 1.61878E-27
