 #
 # Subroutine ELSEPA. Elastic scattering of electrons and positrons
 #                    by neutral atoms and positive ions
 #
 # Projectile: positron
 # Kinetic energy = 8.00000E+08 eV = 2.93995E+07 a.u.
 #
 # WARNING: High-energy factorization with free-atom DF screening.
 #          Absorption, polarization and exchange corrections are
 #          switched off.
 #          Phase shifts are calculated for the bare nucleus.
 #          Scattering amplitudes are not evaluated.
 #
 # Element: Ge,  Z =  32,  atomic weight = 7.26100E+01 g/mol
 #
 # Nuclear model: Fermi distribution
 #                Average radius = 4.46392E-13 cm
 #                Skin thickness = 5.46000E-14 cm
 #
 # Number of electrons = 32
 #
 # Total elastic cross section = 2.33752E-18 cm**2 = 8.34742E-02 a0**2
 # 1st transport cross section = 3.24777E-27 cm**2 = 1.15980E-10 a0**2
 # 2nd transport cross section = 9.74156E-27 cm**2 = 3.47878E-10 a0**2
 #
 #
 # Differential cross section:                       MU=(1-COS(THETA))/2
 #
 #  THETA        MU          DCS          DCS        Sherman      error
 #  (deg)                 (cm**2/sr)   (a0**2/sr)    function
 #----------------------------------------------------------------------
0.00000E+00 1.31173E-08
7.61557E-13 1.12328E-08
1.18994E-12 1.03559E-08
1.71346E-12 9.42669E-09
2.33225E-12 8.49217E-09
3.04617E-12 7.58885E-09
3.85530E-12 6.74415E-09
4.75964E-12 5.96941E-09
5.75917E-12 5.27528E-09
6.85391E-12 4.65745E-09
8.04379E-12 4.11664E-09
9.32893E-12 3.64319E-09
1.07092E-11 3.23281E-09
1.21847E-11 2.87641E-09
1.37554E-11 2.56796E-09
1.54213E-11 2.30042E-09
1.71823E-11 2.06816E-09
1.90386E-11 1.86610E-09
2.09900E-11 1.68965E-09
2.30367E-11 1.53530E-09
2.51785E-11 1.39947E-09
2.74156E-11 1.27987E-09
2.97478E-11 1.17371E-09
3.21752E-11 1.07952E-09
3.46979E-11 9.95283E-10
3.73157E-11 9.17082E-10
4.00286E-11 8.46059E-10
4.28368E-11 7.83469E-10
4.57402E-11 7.28101E-10
4.87388E-11 6.78940E-10
5.18325E-11 6.35139E-10
5.50215E-11 5.95978E-10
5.83057E-11 5.56297E-10
6.16850E-11 5.19147E-10
6.51595E-11 4.85808E-10
6.87293E-11 4.55801E-10
7.23943E-11 4.28719E-10
7.61544E-11 4.04210E-10
1.18991E-10 2.25941E-10
1.71347E-10 1.32772E-10
2.33223E-10 8.11457E-11
3.04617E-10 5.14584E-11
3.85531E-10 3.39302E-11
4.75965E-10 2.31774E-11
5.75917E-10 1.63826E-11
6.85389E-10 1.19261E-11
8.04380E-10 8.91397E-12
9.32891E-10 6.81180E-12
1.07092E-09 5.30558E-12
1.21847E-09 4.19997E-12
1.37554E-09 3.37198E-12
1.54213E-09 2.73964E-12
1.71823E-09 2.24904E-12
1.90386E-09 1.86321E-12
2.09900E-09 1.55604E-12
2.30367E-09 1.30927E-12
2.51785E-09 1.10892E-12
2.74156E-09 9.45196E-13
2.97478E-09 8.10083E-13
3.21752E-09 6.98043E-13
3.46978E-09 6.04408E-13
3.73156E-09 5.25563E-13
4.00286E-09 4.59131E-13
4.28368E-09 4.03068E-13
4.57402E-09 3.54958E-13
4.87388E-09 3.13839E-13
5.18326E-09 2.78566E-13
5.50215E-09 2.47935E-13
5.83057E-09 2.21453E-13
6.16850E-09 1.98410E-13
6.51596E-09 1.78245E-13
6.87293E-09 1.60606E-13
7.23942E-09 1.45078E-13
7.61544E-09 1.31378E-13
1.18991E-08 5.47638E-14
1.71347E-08 2.67750E-14
2.33223E-08 1.46120E-14
3.04617E-08 8.63965E-15
3.85531E-08 5.42978E-15
4.75965E-08 3.58075E-15
5.75917E-08 2.45537E-15
6.85389E-08 1.73893E-15
8.04380E-08 1.26550E-15
9.32891E-08 9.42617E-16
1.07092E-07 7.16347E-16
1.21847E-07 5.54016E-16
1.37554E-07 4.35133E-16
1.54213E-07 3.46470E-16
1.71823E-07 2.79266E-16
1.90386E-07 2.27585E-16
2.09900E-07 1.87317E-16
2.30367E-07 1.55570E-16
2.51785E-07 1.30269E-16
2.74156E-07 1.09906E-16
2.97478E-07 9.33698E-17
3.21752E-07 7.98284E-17
3.46978E-07 6.86545E-17
3.73156E-07 5.93683E-17
4.00286E-07 5.15999E-17
4.28368E-07 4.50613E-17
4.57402E-07 3.95261E-17
4.87388E-07 3.48151E-17
5.18325E-07 3.07853E-17
5.50215E-07 2.73219E-17
5.83057E-07 2.43321E-17
6.16850E-07 2.17402E-17
6.51596E-07 1.94843E-17
6.87293E-07 1.75136E-17
7.23942E-07 1.57858E-17
7.61543E-07 1.42658E-17
1.18991E-06 5.84416E-18
1.71347E-06 2.81838E-18
2.33223E-06 1.52121E-18
3.04617E-06 8.91631E-19
3.85531E-06 5.56585E-19
4.75964E-06 3.65135E-19
5.75916E-06 2.49363E-19
6.85388E-06 1.76046E-19
8.04378E-06 1.27798E-19
9.32888E-06 9.50019E-20
1.07092E-05 7.20816E-20
1.21846E-05 5.56742E-20
1.37553E-05 4.36800E-20
1.54212E-05 3.47483E-20
1.71822E-05 2.79868E-20
1.90385E-05 2.27898E-20
2.09899E-05 1.87495E-20
2.30365E-05 1.55655E-20
2.51783E-05 1.30287E-20
2.74153E-05 1.09874E-20
2.97475E-05 9.33018E-21
3.21749E-05 7.97382E-21
3.46974E-05 6.85531E-21
3.73152E-05 5.92638E-21
4.00281E-05 5.14973E-21
4.28362E-05 4.49629E-21
4.57395E-05 3.94325E-21
4.87380E-05 3.47261E-21
5.18317E-05 3.07004E-21
5.50205E-05 2.72407E-21
5.83045E-05 2.42545E-21
6.16838E-05 2.16664E-21
6.51582E-05 1.94146E-21
6.87277E-05 1.74480E-21
7.23925E-05 1.57243E-21
7.61524E-05 1.40064E-21
9.21439E-05 9.52305E-22
1.09658E-04 6.68953E-22
1.28695E-04 4.82956E-22
1.49255E-04 3.56839E-22
1.71338E-04 2.68969E-22
1.94942E-04 2.06263E-22
2.20070E-04 1.60585E-22
2.46720E-04 1.26698E-22
2.74892E-04 1.01149E-22
3.04586E-04 8.16085E-23
3.35803E-04 6.64680E-23
3.68542E-04 5.46002E-23
4.02802E-04 4.51987E-23
4.38585E-04 3.76792E-23
4.75889E-04 3.16122E-23
5.14715E-04 2.66775E-23
5.55063E-04 2.26342E-23
5.96931E-04 1.92985E-23
6.40321E-04 1.65294E-23
6.85233E-04 1.42172E-23
7.31665E-04 1.22759E-23
7.79618E-04 1.06380E-23
8.29092E-04 9.24945E-24
8.80086E-04 8.06718E-24
9.32601E-04 7.05640E-24
9.86636E-04 6.18893E-24
1.04219E-03 5.44178E-24
1.09927E-03 4.79607E-24
1.15786E-03 4.23628E-24
1.21797E-03 3.74951E-24
1.27961E-03 3.32505E-24
1.34276E-03 2.95395E-24
1.40743E-03 2.62869E-24
1.47362E-03 2.34294E-24
1.54133E-03 2.09133E-24
1.61056E-03 1.86933E-24
1.68131E-03 1.67306E-24
1.75357E-03 1.49922E-24
1.82735E-03 1.34496E-24
1.90265E-03 1.20786E-24
1.97947E-03 1.08581E-24
2.05780E-03 9.76997E-25
2.13765E-03 8.79848E-25
2.21902E-03 7.92996E-25
2.30190E-03 7.15253E-25
2.38630E-03 6.45579E-25
2.47222E-03 5.83067E-25
2.55965E-03 5.26920E-25
2.64859E-03 4.76441E-25
2.73905E-03 4.31013E-25
2.83103E-03 3.90095E-25
2.92452E-03 3.53209E-25
3.01952E-03 3.19931E-25
3.11604E-03 2.89886E-25
3.21407E-03 2.62742E-25
3.31362E-03 2.38202E-25
3.41468E-03 2.16003E-25
3.51725E-03 1.95911E-25
3.62133E-03 1.77717E-25
3.72692E-03 1.61233E-25
3.83403E-03 1.46292E-25
3.94265E-03 1.32744E-25
4.05278E-03 1.20456E-25
4.16442E-03 1.09305E-25
4.27757E-03 9.91844E-26
4.39223E-03 8.99962E-26
4.50840E-03 8.16527E-26
4.62608E-03 7.40746E-26
4.74527E-03 6.71907E-26
4.86597E-03 6.09367E-26
4.98817E-03 5.52542E-26
5.11188E-03 5.00908E-26
5.23711E-03 4.53988E-26
5.36383E-03 4.11353E-26
5.49207E-03 3.72610E-26
5.62181E-03 3.37408E-26
5.75306E-03 3.05425E-26
5.88581E-03 2.76369E-26
6.02007E-03 2.49977E-26
6.15583E-03 2.26009E-26
6.29310E-03 2.04246E-26
6.43187E-03 1.84489E-26
6.57214E-03 1.66559E-26
6.71392E-03 1.50292E-26
6.85720E-03 1.35537E-26
7.00198E-03 1.22159E-26
7.14827E-03 1.10034E-26
7.29605E-03 9.90485E-27
7.44534E-03 8.91007E-27
7.59612E-03 8.00965E-27
7.97965E-03 6.11723E-27
8.37255E-03 4.64921E-27
8.77480E-03 3.51506E-27
9.18641E-03 2.64297E-27
9.60736E-03 1.97600E-27
1.00376E-02 1.46900E-27
1.04773E-02 1.08627E-27
1.09262E-02 7.99604E-28
1.13844E-02 5.86790E-28
1.18520E-02 4.30378E-28
1.23288E-02 3.16716E-28
1.28150E-02 2.35168E-28
1.33104E-02 1.77494E-28
1.38150E-02 1.37348E-28
1.43290E-02 1.09880E-28
1.48521E-02 9.14146E-29
1.53845E-02 7.91952E-29
1.59262E-02 7.11822E-29
1.64770E-02 6.58885E-29
1.70371E-02 6.22515E-29
1.76063E-02 5.95312E-29
1.81848E-02 5.72298E-29
1.87724E-02 5.50288E-29
1.93692E-02 5.27404E-29
1.99751E-02 5.02696E-29
2.05901E-02 4.75854E-29
2.12143E-02 4.46989E-29
2.18476E-02 4.16474E-29
2.24900E-02 3.84821E-29
2.31415E-02 3.52598E-29
2.38021E-02 3.20370E-29
2.44717E-02 2.88663E-29
2.51504E-02 2.57935E-29
2.58382E-02 2.28569E-29
2.65349E-02 2.00867E-29
2.72407E-02 1.75050E-29
2.79555E-02 1.51264E-29
2.86793E-02 1.29588E-29
2.94120E-02 1.10043E-29
3.01537E-02 9.26001E-30
3.09043E-02 7.71910E-30
3.16639E-02 6.37164E-30
3.24324E-02 5.20537E-30
3.32098E-02 4.20649E-30
3.39961E-02 3.36024E-30
3.47912E-02 2.65146E-30
3.55952E-02 2.06503E-30
3.64081E-02 1.58620E-30
3.72297E-02 1.20090E-30
3.80602E-02 8.95906E-31
3.88995E-02 6.59009E-31
3.97476E-02 4.79082E-31
4.06044E-02 3.46125E-31
4.14700E-02 2.51274E-31
4.23443E-02 1.86768E-31
4.32273E-02 1.45907E-31
4.41190E-02 1.22984E-31
4.50194E-02 1.13209E-31
4.59284E-02 1.12628E-31
4.68461E-02 1.18035E-31
4.87074E-02 1.37205E-31
5.06030E-02 1.56775E-31
5.25328E-02 1.69531E-31
5.44967E-02 1.72842E-31
5.64946E-02 1.66934E-31
5.85262E-02 1.53587E-31
6.05914E-02 1.35213E-31
6.26901E-02 1.14248E-31
6.48222E-02 9.28025E-32
6.69873E-02 7.24920E-32
6.91854E-02 5.44007E-32
7.14163E-02 3.91234E-32
7.36799E-02 2.68526E-32
7.59760E-02 1.74809E-32
7.83043E-02 1.07027E-32
8.06647E-02 6.10270E-33
8.30571E-02 3.22758E-33
8.54812E-02 1.63731E-33
8.79369E-02 9.39168E-34
9.04240E-02 8.06082E-34
9.29422E-02 9.82969E-34
9.54915E-02 1.28442E-33
9.80716E-02 1.58682E-33
1.00682E-01 1.81758E-33
1.03323E-01 1.94326E-33
1.05995E-01 1.95835E-33
1.08696E-01 1.87522E-33
1.11427E-01 1.71601E-33
1.14188E-01 1.50642E-33
1.16978E-01 1.27140E-33
1.19797E-01 1.03244E-33
1.22645E-01 8.06205E-34
1.25522E-01 6.04183E-34
1.28428E-01 4.32969E-34
1.31361E-01 2.95010E-34
1.34323E-01 1.89536E-34
1.37313E-01 1.13523E-34
1.40330E-01 6.25954E-35
1.43375E-01 3.17768E-35
1.46447E-01 1.60841E-35
1.49545E-01 1.09372E-35
1.52671E-01 1.24177E-35
1.55823E-01 1.73881E-35
1.59001E-01 2.35100E-35
1.62205E-01 2.91869E-35
1.65435E-01 3.34610E-35
1.68690E-01 3.58863E-35
1.71970E-01 3.63979E-35
1.75276E-01 3.51890E-35
1.78606E-01 3.26042E-35
1.81961E-01 2.90537E-35
1.85340E-01 2.49496E-35
1.88743E-01 2.06617E-35
1.92169E-01 1.64927E-35
1.95619E-01 1.26667E-35
1.99092E-01 9.32955E-36
2.02589E-01 6.55581E-36
2.06107E-01 4.36116E-36
2.09649E-01 2.71638E-36
2.13212E-01 1.56116E-36
2.16797E-01 8.17384E-37
2.20404E-01 3.99612E-37
2.24032E-01 2.24035E-37
2.27680E-01 2.14123E-37
2.31350E-01 3.04524E-37
2.35040E-01 4.42899E-37
2.38751E-01 5.90105E-37
2.42481E-01 7.19368E-37
2.46231E-01 8.14674E-37
2.50000E-01 8.68788E-37
2.53788E-01 8.81147E-37
2.57595E-01 8.55841E-37
2.61421E-01 7.99824E-37
2.65264E-01 7.21418E-37
2.69126E-01 6.29128E-37
2.73005E-01 5.30814E-37
2.76901E-01 4.33178E-37
2.80814E-01 3.41421E-37
2.84744E-01 2.59229E-37
2.88691E-01 1.88795E-37
2.92653E-01 1.31063E-37
2.96632E-01 8.59179E-38
3.00625E-01 5.24899E-38
3.04634E-01 2.93568E-38
3.08658E-01 1.48355E-38
3.12697E-01 1.00000E-45
3.16749E-01 1.00000E-45
3.20816E-01 1.00000E-45
3.24896E-01 1.00000E-45
3.28990E-01 1.00000E-45
3.33097E-01 1.00000E-45
3.37216E-01 1.00000E-45
3.41348E-01 1.00000E-45
3.45492E-01 1.00000E-45
3.49647E-01 1.00000E-45
3.53814E-01 1.00000E-45
3.57992E-01 1.00000E-45
3.62181E-01 1.00000E-45
3.66381E-01 1.00000E-45
3.70590E-01 1.00000E-45
3.74810E-01 1.00000E-45
3.79039E-01 1.00000E-45
3.83277E-01 1.00000E-45
3.87524E-01 1.00000E-45
3.91780E-01 1.00000E-45
3.96044E-01 1.00000E-45
4.00316E-01 1.00000E-45
4.04596E-01 1.00000E-45
4.08882E-01 1.00000E-45
4.13176E-01 1.00000E-45
4.17476E-01 1.00000E-45
4.21783E-01 1.00000E-45
4.26095E-01 1.00000E-45
4.30413E-01 1.00000E-45
4.34737E-01 1.00000E-45
4.39065E-01 1.00000E-45
4.43398E-01 1.00000E-45
4.47736E-01 1.00000E-45
4.52077E-01 1.00000E-45
4.56422E-01 1.00000E-45
4.60770E-01 1.00000E-45
4.65122E-01 1.00000E-45
4.69476E-01 1.00000E-45
4.73832E-01 1.00000E-45
4.78190E-01 1.00000E-45
4.82550E-01 1.00000E-45
4.86912E-01 1.00000E-45
4.91274E-01 1.00000E-45
4.95637E-01 1.00000E-45
5.00000E-01 1.00000E-45
5.04363E-01 1.00000E-45
5.08726E-01 1.00000E-45
5.13088E-01 1.00000E-45
5.17450E-01 1.00000E-45
5.21810E-01 1.00000E-45
5.26168E-01 1.00000E-45
5.30524E-01 1.00000E-45
5.34878E-01 1.00000E-45
5.39230E-01 1.00000E-45
5.43578E-01 1.00000E-45
5.47923E-01 1.00000E-45
5.52264E-01 1.00000E-45
5.56602E-01 1.00000E-45
5.60935E-01 1.00000E-45
5.65263E-01 1.00000E-45
5.69587E-01 1.00000E-45
5.73905E-01 1.00000E-45
5.78217E-01 1.00000E-45
5.82524E-01 1.00000E-45
5.86824E-01 1.00000E-45
5.91118E-01 1.00000E-45
5.95404E-01 1.00000E-45
5.99684E-01 1.00000E-45
6.03956E-01 1.00000E-45
6.08220E-01 1.00000E-45
6.12476E-01 1.00000E-45
6.16723E-01 1.00000E-45
6.20961E-01 1.00000E-45
6.25190E-01 1.00000E-45
6.29410E-01 1.00000E-45
6.33619E-01 1.00000E-45
6.37819E-01 1.00000E-45
6.42008E-01 1.00000E-45
6.46186E-01 1.00000E-45
6.50353E-01 1.00000E-45
6.54508E-01 1.00000E-45
6.58652E-01 1.00000E-45
6.62784E-01 1.00000E-45
6.66903E-01 1.00000E-45
6.71010E-01 1.00000E-45
6.75104E-01 1.00000E-45
6.79184E-01 1.00000E-45
6.83251E-01 1.00000E-45
6.87303E-01 1.00000E-45
6.91342E-01 1.00000E-45
6.95366E-01 1.00000E-45
6.99375E-01 1.00000E-45
7.03368E-01 1.00000E-45
7.07347E-01 1.00000E-45
7.11309E-01 1.00000E-45
7.15256E-01 1.00000E-45
7.19186E-01 1.00000E-45
7.23099E-01 1.00000E-45
7.26995E-01 1.00000E-45
7.30874E-01 1.00000E-45
7.34736E-01 1.00000E-45
7.38579E-01 1.00000E-45
7.42405E-01 1.00000E-45
7.46212E-01 1.00000E-45
7.50000E-01 1.00000E-45
7.53769E-01 1.00000E-45
7.57519E-01 1.00000E-45
7.61249E-01 1.00000E-45
7.64960E-01 1.00000E-45
7.68650E-01 1.00000E-45
7.72320E-01 1.00000E-45
7.75968E-01 1.00000E-45
7.79596E-01 1.00000E-45
7.83203E-01 1.00000E-45
7.86788E-01 1.00000E-45
7.90351E-01 1.00000E-45
7.93893E-01 1.00000E-45
7.97411E-01 1.00000E-45
8.00908E-01 1.00000E-45
8.04381E-01 1.00000E-45
8.07831E-01 1.00000E-45
8.11257E-01 1.00000E-45
8.14660E-01 1.00000E-45
8.18039E-01 1.00000E-45
8.21394E-01 1.00000E-45
8.24724E-01 1.00000E-45
8.28030E-01 1.00000E-45
8.31310E-01 1.00000E-45
8.34565E-01 1.00000E-45
8.37795E-01 1.00000E-45
8.40999E-01 1.00000E-45
8.44177E-01 1.00000E-45
8.47329E-01 1.00000E-45
8.50455E-01 1.00000E-45
8.53553E-01 1.00000E-45
8.56625E-01 1.00000E-45
8.59670E-01 1.00000E-45
8.62687E-01 1.00000E-45
8.65677E-01 1.00000E-45
8.68639E-01 1.00000E-45
8.71572E-01 1.00000E-45
8.74478E-01 1.00000E-45
8.77355E-01 1.00000E-45
8.80203E-01 1.00000E-45
8.83022E-01 1.00000E-45
8.85812E-01 1.00000E-45
8.88573E-01 1.00000E-45
8.91304E-01 1.00000E-45
8.94005E-01 1.00000E-45
8.96677E-01 1.00000E-45
8.99318E-01 1.00000E-45
9.01928E-01 1.00000E-45
9.04508E-01 1.00000E-45
9.07058E-01 1.00000E-45
9.09576E-01 1.00000E-45
9.12063E-01 1.00000E-45
9.14519E-01 1.00000E-45
9.16943E-01 1.00000E-45
9.19335E-01 1.00000E-45
9.21696E-01 1.00000E-45
9.24024E-01 1.00000E-45
9.26320E-01 1.00000E-45
9.28584E-01 1.00000E-45
9.30815E-01 1.00000E-45
9.33013E-01 1.00000E-45
9.35178E-01 1.00000E-45
9.37310E-01 1.00000E-45
9.39409E-01 1.00000E-45
9.41474E-01 1.00000E-45
9.43505E-01 1.00000E-45
9.45503E-01 1.00000E-45
9.47467E-01 1.00000E-45
9.49397E-01 1.00000E-45
9.51293E-01 1.00000E-45
9.53154E-01 1.00000E-45
9.54981E-01 1.00000E-45
9.56773E-01 1.00000E-45
9.58530E-01 1.00000E-45
9.60252E-01 1.00000E-45
9.61940E-01 1.00000E-45
9.63592E-01 1.00000E-45
9.65209E-01 1.00000E-45
9.66790E-01 1.00000E-45
9.68336E-01 1.00000E-45
9.69846E-01 1.00000E-45
9.71321E-01 1.00000E-45
9.72759E-01 1.00000E-45
9.74162E-01 1.00000E-45
9.75528E-01 1.00000E-45
9.76858E-01 1.00000E-45
9.78152E-01 1.00000E-45
9.79410E-01 1.00000E-45
9.80631E-01 1.00000E-45
9.81815E-01 1.00000E-45
9.82963E-01 1.00000E-45
9.84074E-01 1.00000E-45
9.85148E-01 1.00000E-45
9.86185E-01 1.00000E-45
9.87185E-01 1.00000E-45
9.88148E-01 1.00000E-45
9.89074E-01 1.00000E-45
9.89962E-01 1.00000E-45
9.90814E-01 1.00000E-45
9.91627E-01 1.00000E-45
9.92404E-01 1.00000E-45
9.93143E-01 1.00000E-45
9.93844E-01 1.00000E-45
9.94508E-01 1.00000E-45
9.95134E-01 1.00000E-45
9.95722E-01 1.00000E-45
9.96273E-01 1.00000E-45
9.96786E-01 1.00000E-45
9.97261E-01 1.00000E-45
9.97698E-01 1.00000E-45
9.98097E-01 1.00000E-45
9.98459E-01 1.00000E-45
9.98782E-01 1.00000E-45
9.99067E-01 1.00000E-45
9.99315E-01 1.00000E-45
9.99524E-01 1.00000E-45
9.99695E-01 1.00000E-45
9.99829E-01 1.00000E-45
9.99924E-01 1.00000E-45
9.99981E-01 1.00000E-45
1.00000E+00 1.00000E-45
