 #
 # Subroutine ELSEPA. Elastic scattering of electrons and positrons
 #                    by neutral atoms and positive ions
 #
 # Projectile: positron
 # Kinetic energy = 5.00000E+08 eV = 1.83747E+07 a.u.
 #
 # WARNING: High-energy factorization with free-atom DF screening.
 #          Absorption, polarization and exchange corrections are
 #          switched off.
 #          Phase shifts are calculated for the bare nucleus.
 #          Scattering amplitudes are not evaluated.
 #
 # Element: Ge,  Z =  32,  atomic weight = 7.26100E+01 g/mol
 #
 # Nuclear model: Fermi distribution
 #                Average radius = 4.46392E-13 cm
 #                Skin thickness = 5.46000E-14 cm
 #
 # Number of electrons = 32
 #
 # Total elastic cross section = 2.34458E-18 cm**2 = 8.37266E-02 a0**2
 # 1st transport cross section = 8.29554E-27 cm**2 = 2.96239E-10 a0**2
 # 2nd transport cross section = 2.48751E-26 cm**2 = 8.88306E-10 a0**2
 #
 #
 # Differential cross section:                       MU=(1-COS(THETA))/2
 #
 #  THETA        MU          DCS          DCS        Sherman      error
 #  (deg)                 (cm**2/sr)   (a0**2/sr)    function
 #----------------------------------------------------------------------
0.00000E+00 5.12785E-09
7.61557E-13 4.81801E-09
1.18994E-12 4.65614E-09
1.71346E-12 4.47028E-09
2.33225E-12 4.26559E-09
3.04617E-12 4.04769E-09
3.85530E-12 3.82182E-09
4.75964E-12 3.59276E-09
5.75917E-12 3.36465E-09
6.85391E-12 3.14050E-09
8.04379E-12 2.92328E-09
9.32893E-12 2.71532E-09
1.07092E-11 2.51809E-09
1.21847E-11 2.33248E-09
1.37554E-11 2.15896E-09
1.54213E-11 1.99760E-09
1.71823E-11 1.84821E-09
1.90386E-11 1.71041E-09
2.09900E-11 1.58365E-09
2.30367E-11 1.46731E-09
2.51785E-11 1.36066E-09
2.74156E-11 1.26293E-09
2.97478E-11 1.17357E-09
3.21752E-11 1.09190E-09
3.46979E-11 1.01724E-09
3.73157E-11 9.48984E-10
4.00286E-11 8.86540E-10
4.28368E-11 8.29372E-10
4.57402E-11 7.76990E-10
4.87388E-11 7.28939E-10
5.18325E-11 6.84811E-10
5.50215E-11 6.44234E-10
5.83057E-11 6.06833E-10
6.16850E-11 5.72342E-10
6.51595E-11 5.40495E-10
6.87293E-11 5.11043E-10
7.23943E-11 4.83764E-10
7.61544E-11 4.58459E-10
1.18991E-10 2.79377E-10
1.71347E-10 1.83728E-10
2.33223E-10 1.25737E-10
3.04617E-10 8.82292E-11
3.85531E-10 6.30401E-11
4.75965E-10 4.57399E-11
5.75917E-10 3.36752E-11
6.85389E-10 2.51341E-11
8.04380E-10 1.90407E-11
9.32891E-10 1.46458E-11
1.07092E-09 1.14315E-11
1.21847E-09 9.04797E-12
1.37554E-09 7.25614E-12
1.54213E-09 5.89085E-12
1.71823E-09 4.83684E-12
1.90386E-09 4.01280E-12
2.09900E-09 3.36079E-12
2.30367E-09 2.83909E-12
2.51785E-09 2.41650E-12
2.74156E-09 2.07119E-12
2.97478E-09 1.78662E-12
3.21752E-09 1.55010E-12
3.46978E-09 1.35198E-12
3.73156E-09 1.18481E-12
4.00286E-09 1.04283E-12
4.28368E-09 9.21517E-13
4.57402E-09 8.17300E-13
4.87388E-09 7.27335E-13
5.18326E-09 6.49331E-13
5.50215E-09 5.81424E-13
5.83057E-09 5.22050E-13
6.16850E-09 4.69986E-13
6.51596E-09 4.24184E-13
6.87293E-09 3.83762E-13
7.23942E-09 3.47981E-13
7.61544E-09 3.16216E-13
1.18991E-08 1.34301E-13
1.71347E-08 6.60181E-14
2.33223E-08 3.60945E-14
3.04617E-08 2.13755E-14
3.85531E-08 1.34638E-14
4.75965E-08 8.90280E-15
5.75917E-08 6.12207E-15
6.85389E-08 4.34773E-15
8.04380E-08 3.17229E-15
9.32891E-08 2.36851E-15
1.07092E-07 1.80374E-15
1.21847E-07 1.39757E-15
1.37554E-07 1.09946E-15
1.54213E-07 8.76669E-16
1.71823E-07 7.07485E-16
1.90386E-07 5.77169E-16
2.09900E-07 4.75489E-16
2.30367E-07 3.95217E-16
2.51785E-07 3.31173E-16
2.74156E-07 2.79578E-16
2.97478E-07 2.37640E-16
3.21752E-07 2.03271E-16
3.46978E-07 1.74891E-16
3.73156E-07 1.51291E-16
4.00286E-07 1.31537E-16
4.28368E-07 1.14902E-16
4.57402E-07 1.00814E-16
4.87388E-07 8.88187E-17
5.18325E-07 7.85542E-17
5.50215E-07 6.97298E-17
5.83057E-07 6.21097E-17
6.16850E-07 5.55020E-17
6.51596E-07 4.97496E-17
6.87293E-07 4.47232E-17
7.23942E-07 4.03156E-17
7.61543E-07 3.64375E-17
1.18991E-06 1.49369E-17
1.71347E-06 7.20568E-18
2.33223E-06 3.88990E-18
3.04617E-06 2.28022E-18
3.85531E-06 1.42348E-18
4.75964E-06 9.33885E-19
5.75916E-06 6.37802E-19
6.85388E-06 4.50287E-19
8.04378E-06 3.26885E-19
9.32888E-06 2.43001E-19
1.07092E-05 1.84376E-19
1.21846E-05 1.42409E-19
1.37553E-05 1.11730E-19
1.54212E-05 8.88836E-20
1.71822E-05 7.15884E-20
1.90385E-05 5.82951E-20
2.09899E-05 4.79606E-20
2.30365E-05 3.98163E-20
2.51783E-05 3.33271E-20
2.74153E-05 2.81057E-20
2.97475E-05 2.38666E-20
3.21749E-05 2.03971E-20
3.46974E-05 1.75360E-20
3.73152E-05 1.51598E-20
4.00281E-05 1.31732E-20
4.28362E-05 1.15017E-20
4.57395E-05 1.00870E-20
4.87380E-05 8.88308E-21
5.18317E-05 7.85328E-21
5.50205E-05 6.96829E-21
5.83045E-05 6.20441E-21
6.16838E-05 5.54237E-21
6.51582E-05 4.96634E-21
6.87277E-05 4.46328E-21
7.23925E-05 4.02235E-21
7.61524E-05 3.62096E-21
9.21439E-05 2.46883E-21
1.09658E-04 1.73973E-21
1.28695E-04 1.26042E-21
1.49255E-04 9.34870E-22
1.71338E-04 7.07626E-22
1.94942E-04 5.45128E-22
2.20070E-04 4.26489E-22
2.46720E-04 3.38261E-22
2.74892E-04 2.71564E-22
3.04586E-04 2.20409E-22
3.35803E-04 1.80650E-22
3.68542E-04 1.49384E-22
4.02802E-04 1.24530E-22
4.38585E-04 1.04577E-22
4.75889E-04 8.84160E-23
5.14715E-04 7.52164E-23
5.55063E-04 6.43542E-23
5.96931E-04 5.53520E-23
6.40321E-04 4.78427E-23
6.85233E-04 4.15407E-23
7.31665E-04 3.62218E-23
7.79618E-04 3.17092E-23
8.29092E-04 2.78614E-23
8.80086E-04 2.45656E-23
9.32601E-04 2.17301E-23
9.86636E-04 1.92806E-23
1.04219E-03 1.71566E-23
1.09927E-03 1.53080E-23
1.15786E-03 1.36935E-23
1.21797E-03 1.22790E-23
1.27961E-03 1.10358E-23
1.34276E-03 9.93995E-24
1.40743E-03 8.97136E-24
1.47362E-03 8.11296E-24
1.54133E-03 7.35029E-24
1.61056E-03 6.67106E-24
1.68131E-03 6.06476E-24
1.75357E-03 5.52237E-24
1.82735E-03 5.03614E-24
1.90265E-03 4.59939E-24
1.97947E-03 4.20635E-24
2.05780E-03 3.85197E-24
2.13765E-03 3.53192E-24
2.21902E-03 3.24237E-24
2.30190E-03 2.98000E-24
2.38630E-03 2.74189E-24
2.47222E-03 2.52547E-24
2.55965E-03 2.32850E-24
2.64859E-03 2.14898E-24
2.73905E-03 1.98514E-24
2.83103E-03 1.83543E-24
2.92452E-03 1.69847E-24
3.01952E-03 1.57301E-24
3.11604E-03 1.45797E-24
3.21407E-03 1.35237E-24
3.31362E-03 1.25532E-24
3.41468E-03 1.16606E-24
3.51725E-03 1.08386E-24
3.62133E-03 1.00811E-24
3.72692E-03 9.38226E-25
3.83403E-03 8.73707E-25
3.94265E-03 8.14087E-25
4.05278E-03 7.58951E-25
4.16442E-03 7.07920E-25
4.27757E-03 6.60654E-25
4.39223E-03 6.16842E-25
4.50840E-03 5.76203E-25
4.62608E-03 5.38482E-25
4.74527E-03 5.03445E-25
4.86597E-03 4.70882E-25
4.98817E-03 4.40599E-25
5.11188E-03 4.12419E-25
5.23711E-03 3.86181E-25
5.36383E-03 3.61739E-25
5.49207E-03 3.38956E-25
5.62181E-03 3.17709E-25
5.75306E-03 2.97885E-25
5.88581E-03 2.79379E-25
6.02007E-03 2.62096E-25
6.15583E-03 2.45947E-25
6.29310E-03 2.30852E-25
6.43187E-03 2.16736E-25
6.57214E-03 2.03530E-25
6.71392E-03 1.91171E-25
6.85720E-03 1.79599E-25
7.00198E-03 1.68761E-25
7.14827E-03 1.58607E-25
7.29605E-03 1.49091E-25
7.44534E-03 1.40169E-25
7.59612E-03 1.31801E-25
7.97965E-03 1.13074E-25
8.37255E-03 9.70840E-26
8.77480E-03 8.34094E-26
9.18641E-03 7.16983E-26
9.60736E-03 6.16561E-26
1.00376E-02 5.30353E-26
1.04773E-02 4.56276E-26
1.09262E-02 3.92569E-26
1.13844E-02 3.37740E-26
1.18520E-02 2.90525E-26
1.23288E-02 2.49847E-26
1.28150E-02 2.14789E-26
1.33104E-02 1.84567E-26
1.38150E-02 1.58510E-26
1.43290E-02 1.36045E-26
1.48521E-02 1.16677E-26
1.53845E-02 9.99827E-27
1.59262E-02 8.55976E-27
1.64770E-02 7.32071E-27
1.70371E-02 6.25402E-27
1.76063E-02 5.33626E-27
1.81848E-02 4.54722E-27
1.87724E-02 3.86940E-27
1.93692E-02 3.28769E-27
1.99751E-02 2.78898E-27
2.05901E-02 2.36193E-27
2.12143E-02 1.99672E-27
2.18476E-02 1.68484E-27
2.24900E-02 1.41892E-27
2.31415E-02 1.19257E-27
2.38021E-02 1.00025E-27
2.44717E-02 8.37181E-28
2.51504E-02 6.99205E-28
2.58382E-02 5.82735E-28
2.65349E-02 4.84666E-28
2.72407E-02 4.02315E-28
2.79555E-02 3.33364E-28
2.86793E-02 2.75815E-28
2.94120E-02 2.27946E-28
3.01537E-02 1.88273E-28
3.09043E-02 1.55524E-28
3.16639E-02 1.28603E-28
3.24324E-02 1.06575E-28
3.32098E-02 8.86384E-29
3.39961E-02 7.41094E-29
3.47912E-02 6.24062E-29
3.55952E-02 5.30348E-29
3.64081E-02 4.55769E-29
3.72297E-02 3.96795E-29
3.80602E-02 3.50455E-29
3.88995E-02 3.14264E-29
3.97476E-02 2.86146E-29
4.06044E-02 2.64381E-29
4.14700E-02 2.47548E-29
4.23443E-02 2.34484E-29
4.32273E-02 2.24240E-29
4.41190E-02 2.16053E-29
4.50194E-02 2.09314E-29
4.59284E-02 2.03541E-29
4.68461E-02 1.98362E-29
4.87074E-02 1.88723E-29
5.06030E-02 1.78929E-29
5.25328E-02 1.68303E-29
5.44967E-02 1.56670E-29
5.64946E-02 1.44150E-29
5.85262E-02 1.31020E-29
6.05914E-02 1.17622E-29
6.26901E-02 1.04297E-29
6.48222E-02 9.13535E-30
6.69873E-02 7.90459E-30
6.91854E-02 6.75691E-30
7.14163E-02 5.70572E-30
7.36799E-02 4.75886E-30
7.59760E-02 3.91936E-30
7.83043E-02 3.18626E-30
8.06647E-02 2.55550E-30
8.30571E-02 2.02071E-30
8.54812E-02 1.57399E-30
8.79369E-02 1.20648E-30
9.04240E-02 9.08962E-31
9.29422E-02 6.72191E-31
9.54915E-02 4.87275E-31
9.80716E-02 3.45873E-31
1.00682E-01 2.40352E-31
1.03323E-01 1.63878E-31
1.05995E-01 1.10448E-31
1.08696E-01 7.48928E-32
1.11427E-01 5.28394E-32
1.14188E-01 4.06608E-32
1.16978E-01 3.54080E-32
1.19797E-01 3.47355E-32
1.22645E-01 3.68240E-32
1.25522E-01 4.03038E-32
1.28428E-01 4.41818E-32
1.31361E-01 4.77734E-32
1.34323E-01 5.06415E-32
1.37313E-01 5.25421E-32
1.40330E-01 5.33777E-32
1.43375E-01 5.31570E-32
1.46447E-01 5.19624E-32
1.49545E-01 4.99231E-32
1.52671E-01 4.71938E-32
1.55823E-01 4.39389E-32
1.59001E-01 4.03201E-32
1.62205E-01 3.64881E-32
1.65435E-01 3.25773E-32
1.68690E-01 2.87027E-32
1.71970E-01 2.49582E-32
1.75276E-01 2.14172E-32
1.78606E-01 1.81331E-32
1.81961E-01 1.51419E-32
1.85340E-01 1.24635E-32
1.88743E-01 1.01045E-32
1.92169E-01 8.06089E-33
1.95619E-01 6.31973E-33
1.99092E-01 4.86183E-33
2.02589E-01 3.66355E-33
2.06107E-01 2.69845E-33
2.09649E-01 1.93883E-33
2.13212E-01 1.35683E-33
2.16797E-01 9.25414E-34
2.20404E-01 6.19019E-34
2.24032E-01 4.14112E-34
2.27680E-01 2.89471E-34
2.31350E-01 2.26364E-34
2.35040E-01 2.08611E-34
2.38751E-01 2.22520E-34
2.42481E-01 2.56776E-34
2.46231E-01 3.02262E-34
2.50000E-01 3.51850E-34
2.53788E-01 4.00176E-34
2.57595E-01 4.43394E-34
2.61421E-01 4.78953E-34
2.65264E-01 5.05362E-34
2.69126E-01 5.21990E-34
2.73005E-01 5.28870E-34
2.76901E-01 5.26535E-34
2.80814E-01 5.15867E-34
2.84744E-01 4.97980E-34
2.88691E-01 4.74107E-34
2.92653E-01 4.45528E-34
2.96632E-01 4.13498E-34
3.00625E-01 3.79204E-34
3.04634E-01 3.43722E-34
3.08658E-01 3.08007E-34
3.12697E-01 2.72874E-34
3.16749E-01 2.38993E-34
3.20816E-01 2.06895E-34
3.24896E-01 1.76979E-34
3.28990E-01 1.49518E-34
3.33097E-01 1.24681E-34
3.37216E-01 1.02538E-34
3.41348E-01 8.30804E-35
3.45492E-01 6.62337E-35
3.49647E-01 5.18722E-35
3.53814E-01 3.98310E-35
3.57992E-01 2.99179E-35
3.62181E-01 2.19240E-35
3.66381E-01 1.56324E-35
3.70590E-01 1.08257E-35
3.74810E-01 7.29170E-36
3.79039E-01 4.82807E-36
3.83277E-01 3.24623E-36
3.87524E-01 2.37346E-36
3.91780E-01 2.05435E-36
3.96044E-01 2.15176E-36
4.00316E-01 2.54676E-36
4.04596E-01 3.13817E-36
4.08882E-01 3.84172E-36
4.13176E-01 4.58892E-36
4.17476E-01 5.32564E-36
4.21783E-01 6.01071E-36
4.26095E-01 6.61423E-36
4.30413E-01 7.11625E-36
4.34737E-01 7.50495E-36
4.39065E-01 7.77559E-36
4.43398E-01 7.92880E-36
4.47736E-01 7.96961E-36
4.52077E-01 7.90626E-36
4.56422E-01 7.74932E-36
4.60770E-01 7.51078E-36
4.65122E-01 7.20349E-36
4.69476E-01 6.84041E-36
4.73832E-01 6.43420E-36
4.78190E-01 5.99707E-36
4.82550E-01 5.54025E-36
4.86912E-01 5.07392E-36
4.91274E-01 4.60703E-36
4.95637E-01 4.14757E-36
5.00000E-01 3.70191E-36
5.04363E-01 3.27545E-36
5.08726E-01 2.87239E-36
5.13088E-01 2.49586E-36
5.17450E-01 2.14804E-36
5.21810E-01 1.83015E-36
5.26168E-01 1.54271E-36
5.30524E-01 1.28562E-36
5.34878E-01 1.05814E-36
5.39230E-01 8.59118E-37
5.43578E-01 6.87109E-37
5.47923E-01 5.40375E-37
5.52264E-01 4.16938E-37
5.56602E-01 3.14758E-37
5.60935E-01 2.31785E-37
5.65263E-01 1.65856E-37
5.69587E-01 1.14930E-37
5.73905E-01 7.70217E-38
5.78217E-01 5.02365E-38
5.82524E-01 3.28224E-38
5.86824E-01 2.31609E-38
5.91118E-01 1.97558E-38
5.95404E-01 2.12942E-38
5.99684E-01 2.65900E-38
6.03956E-01 3.46132E-38
6.08220E-01 4.44720E-38
6.12476E-01 5.54079E-38
6.16723E-01 6.67879E-38
6.20961E-01 7.80933E-38
6.25190E-01 8.89051E-38
6.29410E-01 9.89143E-38
6.33619E-01 1.07866E-37
6.37819E-01 1.15598E-37
6.42008E-01 1.22022E-37
6.46186E-01 1.27068E-37
6.50353E-01 1.30741E-37
6.54508E-01 1.33083E-37
6.58652E-01 1.34129E-37
6.62784E-01 1.33976E-37
6.66903E-01 1.32715E-37
6.71010E-01 1.30467E-37
6.75104E-01 1.27343E-37
6.79184E-01 1.23451E-37
6.83251E-01 1.18940E-37
6.87303E-01 1.13899E-37
6.91342E-01 1.08438E-37
6.95366E-01 1.02680E-37
6.99375E-01 9.67066E-38
7.03368E-01 9.06128E-38
7.07347E-01 8.44838E-38
7.11309E-01 7.83779E-38
7.15256E-01 7.23551E-38
7.19186E-01 6.64761E-38
7.23099E-01 6.07778E-38
7.26995E-01 5.52959E-38
7.30874E-01 5.00750E-38
7.34736E-01 4.51201E-38
7.38579E-01 4.04487E-38
7.42405E-01 3.60718E-38
7.46212E-01 3.20039E-38
7.50000E-01 2.82382E-38
7.53769E-01 2.47732E-38
7.57519E-01 2.16026E-38
7.61249E-01 1.87254E-38
7.64960E-01 1.61215E-38
7.68650E-01 1.37853E-38
7.72320E-01 1.16950E-38
7.75968E-01 9.84016E-39
7.79596E-01 8.20830E-39
7.83203E-01 6.78040E-39
7.86788E-01 5.53963E-39
7.90351E-01 4.46629E-39
7.93893E-01 3.55434E-39
7.97411E-01 2.78262E-39
8.00908E-01 2.13718E-39
8.04381E-01 1.60599E-39
8.07831E-01 1.17502E-39
8.11257E-01 8.34442E-40
8.14660E-01 1.00000E-45
8.18039E-01 1.00000E-45
8.21394E-01 1.00000E-45
8.24724E-01 1.00000E-45
8.28030E-01 1.00000E-45
8.31310E-01 1.00000E-45
8.34565E-01 1.00000E-45
8.37795E-01 1.00000E-45
8.40999E-01 1.00000E-45
8.44177E-01 1.00000E-45
8.47329E-01 1.00000E-45
8.50455E-01 1.00000E-45
8.53553E-01 1.00000E-45
8.56625E-01 1.00000E-45
8.59670E-01 1.00000E-45
8.62687E-01 1.00000E-45
8.65677E-01 1.00000E-45
8.68639E-01 1.00000E-45
8.71572E-01 1.00000E-45
8.74478E-01 1.00000E-45
8.77355E-01 1.00000E-45
8.80203E-01 1.00000E-45
8.83022E-01 1.00000E-45
8.85812E-01 1.00000E-45
8.88573E-01 1.00000E-45
8.91304E-01 1.00000E-45
8.94005E-01 1.00000E-45
8.96677E-01 1.00000E-45
8.99318E-01 1.00000E-45
9.01928E-01 1.00000E-45
9.04508E-01 1.00000E-45
9.07058E-01 1.00000E-45
9.09576E-01 1.00000E-45
9.12063E-01 1.00000E-45
9.14519E-01 1.00000E-45
9.16943E-01 1.00000E-45
9.19335E-01 1.00000E-45
9.21696E-01 1.00000E-45
9.24024E-01 1.00000E-45
9.26320E-01 1.00000E-45
9.28584E-01 1.00000E-45
9.30815E-01 1.00000E-45
9.33013E-01 1.00000E-45
9.35178E-01 1.00000E-45
9.37310E-01 1.00000E-45
9.39409E-01 1.00000E-45
9.41474E-01 1.00000E-45
9.43505E-01 1.00000E-45
9.45503E-01 1.00000E-45
9.47467E-01 1.00000E-45
9.49397E-01 1.00000E-45
9.51293E-01 1.00000E-45
9.53154E-01 1.00000E-45
9.54981E-01 1.00000E-45
9.56773E-01 1.00000E-45
9.58530E-01 1.00000E-45
9.60252E-01 1.00000E-45
9.61940E-01 1.00000E-45
9.63592E-01 1.00000E-45
9.65209E-01 1.00000E-45
9.66790E-01 1.00000E-45
9.68336E-01 1.00000E-45
9.69846E-01 1.00000E-45
9.71321E-01 1.00000E-45
9.72759E-01 1.00000E-45
9.74162E-01 1.00000E-45
9.75528E-01 1.00000E-45
9.76858E-01 1.00000E-45
9.78152E-01 1.00000E-45
9.79410E-01 1.00000E-45
9.80631E-01 1.00000E-45
9.81815E-01 1.00000E-45
9.82963E-01 1.00000E-45
9.84074E-01 1.00000E-45
9.85148E-01 1.00000E-45
9.86185E-01 1.00000E-45
9.87185E-01 1.00000E-45
9.88148E-01 1.00000E-45
9.89074E-01 1.00000E-45
9.89962E-01 1.00000E-45
9.90814E-01 1.00000E-45
9.91627E-01 1.00000E-45
9.92404E-01 1.00000E-45
9.93143E-01 1.00000E-45
9.93844E-01 1.00000E-45
9.94508E-01 1.00000E-45
9.95134E-01 1.00000E-45
9.95722E-01 1.00000E-45
9.96273E-01 1.00000E-45
9.96786E-01 1.00000E-45
9.97261E-01 1.00000E-45
9.97698E-01 1.00000E-45
9.98097E-01 1.00000E-45
9.98459E-01 1.00000E-45
9.98782E-01 1.00000E-45
9.99067E-01 1.00000E-45
9.99315E-01 1.00000E-45
9.99524E-01 1.00000E-45
9.99695E-01 1.00000E-45
9.99829E-01 1.00000E-45
9.99924E-01 1.00000E-45
9.99981E-01 1.00000E-45
1.00000E+00 1.00000E-45
