 #
 # Subroutine ELSEPA. Elastic scattering of electrons and positrons
 #                    by neutral atoms and positive ions
 #
 # Projectile: positron
 # Kinetic energy = 6.00000E+06 eV = 2.20496E+05 a.u.
 #
 # WARNING: High-energy factorization with free-atom DF screening.
 #          Absorption, polarization and exchange corrections are
 #          switched off.
 #          Phase shifts are calculated for the bare nucleus.
 #          Scattering amplitudes are not evaluated.
 #
 # Element: Ge,  Z =  32,  atomic weight = 7.26100E+01 g/mol
 #
 # Nuclear model: Fermi distribution
 #                Average radius = 4.46392E-13 cm
 #                Skin thickness = 5.46000E-14 cm
 #
 # Number of electrons = 32
 #
 # Total elastic cross section = 2.35978E-18 cm**2 = 8.42694E-02 a0**2
 # 1st transport cross section = 3.44977E-23 cm**2 = 1.23194E-06 a0**2
 # 2nd transport cross section = 9.94949E-23 cm**2 = 3.55303E-06 a0**2
 #
 #
 # Differential cross section:                       MU=(1-COS(THETA))/2
 #
 #  THETA        MU          DCS          DCS        Sherman      error
 #  (deg)                 (cm**2/sr)   (a0**2/sr)    function
 #----------------------------------------------------------------------
0.00000E+00 8.67768E-13
7.61557E-13 8.67758E-13
1.18994E-12 8.67752E-13
1.71346E-12 8.67746E-13
2.33225E-12 8.67738E-13
3.04617E-12 8.67729E-13
3.85530E-12 8.67719E-13
4.75964E-12 8.67708E-13
5.75917E-12 8.67695E-13
6.85391E-12 8.67682E-13
8.04379E-12 8.67667E-13
9.32893E-12 8.67651E-13
1.07092E-11 8.67634E-13
1.21847E-11 8.67616E-13
1.37554E-11 8.67597E-13
1.54213E-11 8.67576E-13
1.71823E-11 8.67555E-13
1.90386E-11 8.67532E-13
2.09900E-11 8.67508E-13
2.30367E-11 8.67483E-13
2.51785E-11 8.67456E-13
2.74156E-11 8.67429E-13
2.97478E-11 8.67400E-13
3.21752E-11 8.67371E-13
3.46979E-11 8.67340E-13
3.73157E-11 8.67308E-13
4.00286E-11 8.67274E-13
4.28368E-11 8.67240E-13
4.57402E-11 8.67205E-13
4.87388E-11 8.67168E-13
5.18325E-11 8.67130E-13
5.50215E-11 8.67091E-13
5.83057E-11 8.67051E-13
6.16850E-11 8.67010E-13
6.51595E-11 8.66967E-13
6.87293E-11 8.66924E-13
7.23943E-11 8.66879E-13
7.61544E-11 8.66833E-13
1.18991E-10 8.66311E-13
1.71347E-10 8.65674E-13
2.33223E-10 8.64923E-13
3.04617E-10 8.64057E-13
3.85531E-10 8.63079E-13
4.75965E-10 8.61987E-13
5.75917E-10 8.60784E-13
6.85389E-10 8.59469E-13
8.04380E-10 8.58044E-13
9.32891E-10 8.56509E-13
1.07092E-09 8.54865E-13
1.21847E-09 8.53114E-13
1.37554E-09 8.51256E-13
1.54213E-09 8.49293E-13
1.71823E-09 8.47225E-13
1.90386E-09 8.45055E-13
2.09900E-09 8.42783E-13
2.30367E-09 8.40411E-13
2.51785E-09 8.37939E-13
2.74156E-09 8.35370E-13
2.97478E-09 8.32706E-13
3.21752E-09 8.29947E-13
3.46978E-09 8.27096E-13
3.73156E-09 8.24153E-13
4.00286E-09 8.21121E-13
4.28368E-09 8.18001E-13
4.57402E-09 8.14796E-13
4.87388E-09 8.11507E-13
5.18326E-09 8.08135E-13
5.50215E-09 8.04676E-13
5.83057E-09 8.01110E-13
6.16850E-09 7.97476E-13
6.51596E-09 7.93777E-13
6.87293E-09 7.90016E-13
7.23942E-09 7.86195E-13
7.61544E-09 7.82316E-13
1.18991E-08 7.40097E-13
1.71347E-08 6.93218E-13
2.33223E-08 6.43651E-13
3.04617E-08 5.93286E-13
3.85531E-08 5.43607E-13
4.75965E-08 4.95749E-13
5.75917E-08 4.50495E-13
6.85389E-08 4.08192E-13
8.04380E-08 3.69308E-13
9.32891E-08 3.33906E-13
1.07092E-07 3.01912E-13
1.21847E-07 2.73156E-13
1.37554E-07 2.47369E-13
1.54213E-07 2.24333E-13
1.71823E-07 2.03817E-13
1.90386E-07 1.85559E-13
2.09900E-07 1.69312E-13
2.30367E-07 1.54842E-13
2.51785E-07 1.41921E-13
2.74156E-07 1.30392E-13
2.97478E-07 1.20085E-13
3.21752E-07 1.10853E-13
3.46978E-07 1.02564E-13
3.73156E-07 9.50949E-14
4.00286E-07 8.83520E-14
4.28368E-07 8.22535E-14
4.57402E-07 7.67235E-14
4.87388E-07 7.16957E-14
5.18325E-07 6.71106E-14
5.50215E-07 6.28629E-14
5.83057E-07 5.87872E-14
6.16850E-07 5.51158E-14
6.51596E-07 5.17999E-14
6.87293E-07 4.87978E-14
7.23942E-07 4.60731E-14
7.61543E-07 4.35944E-14
1.18991E-06 2.59080E-14
1.71347E-06 1.61521E-14
2.33223E-06 1.03806E-14
3.04617E-06 6.86526E-15
3.85531E-06 4.66058E-15
4.75964E-06 3.24501E-15
5.75916E-06 2.31571E-15
6.85388E-06 1.69105E-15
8.04378E-06 1.26363E-15
9.32888E-06 9.64227E-16
1.07092E-05 7.49749E-16
1.21846E-05 5.92828E-16
1.37553E-05 4.75712E-16
1.54212E-05 3.86606E-16
1.71822E-05 3.17822E-16
1.90385E-05 2.63905E-16
2.09899E-05 2.21158E-16
2.30365E-05 1.86787E-16
2.51783E-05 1.58819E-16
2.74153E-05 1.35879E-16
2.97475E-05 1.16912E-16
3.21749E-05 1.01120E-16
3.46974E-05 8.78880E-17
3.73152E-05 7.67258E-17
4.00281E-05 6.72614E-17
4.28362E-05 5.91966E-17
4.57395E-05 5.22895E-17
4.87380E-05 4.63468E-17
5.18317E-05 4.12118E-17
5.50205E-05 3.67523E-17
5.83045E-05 3.28606E-17
6.16838E-05 2.94800E-17
6.51582E-05 2.65318E-17
6.87277E-05 2.39238E-17
7.23925E-05 2.16278E-17
7.61524E-05 1.96050E-17
9.21439E-05 1.35197E-17
1.09658E-04 9.61459E-18
1.28695E-04 7.02279E-18
1.49255E-04 5.24890E-18
1.71338E-04 4.00230E-18
1.94942E-04 3.10542E-18
2.20070E-04 2.44663E-18
2.46720E-04 1.95392E-18
2.74892E-04 1.57938E-18
3.04586E-04 1.29056E-18
3.35803E-04 1.06488E-18
3.68542E-04 8.86465E-19
4.02802E-04 7.43861E-19
4.38585E-04 6.28801E-19
4.75889E-04 5.35137E-19
5.14715E-04 4.58260E-19
5.55063E-04 3.94687E-19
5.96931E-04 3.41741E-19
6.40321E-04 2.97363E-19
6.85233E-04 2.59947E-19
7.31665E-04 2.28222E-19
7.79618E-04 2.01181E-19
8.29092E-04 1.78019E-19
8.80086E-04 1.58086E-19
9.32601E-04 1.40859E-19
9.86636E-04 1.25909E-19
1.04219E-03 1.12886E-19
1.09927E-03 1.01500E-19
1.15786E-03 9.15084E-20
1.21797E-03 8.27131E-20
1.27961E-03 7.49465E-20
1.34276E-03 6.80679E-20
1.40743E-03 6.19583E-20
1.47362E-03 5.65170E-20
1.54133E-03 5.16580E-20
1.61056E-03 4.73087E-20
1.68131E-03 4.34063E-20
1.75357E-03 3.98969E-20
1.82735E-03 3.67340E-20
1.90265E-03 3.38773E-20
1.97947E-03 3.12922E-20
2.05780E-03 2.89482E-20
2.13765E-03 2.68191E-20
2.21902E-03 2.48815E-20
2.30190E-03 2.31152E-20
2.38630E-03 2.15023E-20
2.47222E-03 2.00273E-20
2.55965E-03 1.86762E-20
2.64859E-03 1.74368E-20
2.73905E-03 1.62982E-20
2.83103E-03 1.52507E-20
2.92452E-03 1.42858E-20
3.01952E-03 1.33957E-20
3.11604E-03 1.25737E-20
3.21407E-03 1.18135E-20
3.31362E-03 1.11098E-20
3.41468E-03 1.04575E-20
3.51725E-03 9.85219E-21
3.62133E-03 9.28993E-21
3.72692E-03 8.76707E-21
3.83403E-03 8.28036E-21
3.94265E-03 7.82683E-21
4.05278E-03 7.40383E-21
4.16442E-03 7.00892E-21
4.27757E-03 6.63990E-21
4.39223E-03 6.29477E-21
4.50840E-03 5.97168E-21
4.62608E-03 5.66899E-21
4.74527E-03 5.38516E-21
4.86597E-03 5.11882E-21
4.98817E-03 4.86867E-21
5.11188E-03 4.63356E-21
5.23711E-03 4.41242E-21
5.36383E-03 4.20427E-21
5.49207E-03 4.00819E-21
5.62181E-03 3.82338E-21
5.75306E-03 3.64905E-21
5.88581E-03 3.48451E-21
6.02007E-03 3.32910E-21
6.15583E-03 3.18222E-21
6.29310E-03 3.04333E-21
6.43187E-03 2.91189E-21
6.57214E-03 2.78745E-21
6.71392E-03 2.66956E-21
6.85720E-03 2.55781E-21
7.00198E-03 2.45182E-21
7.14827E-03 2.35124E-21
7.29605E-03 2.25574E-21
7.44534E-03 2.16502E-21
7.59612E-03 2.07880E-21
7.97965E-03 1.88122E-21
8.37255E-03 1.70647E-21
8.77480E-03 1.55146E-21
9.18641E-03 1.41359E-21
9.60736E-03 1.29063E-21
1.00376E-02 1.18069E-21
1.04773E-02 1.08216E-21
1.09262E-02 9.93647E-22
1.13844E-02 9.13960E-22
1.18520E-02 8.42064E-22
1.23288E-02 7.77067E-22
1.28150E-02 7.18189E-22
1.33104E-02 6.64755E-22
1.38150E-02 6.16174E-22
1.43290E-02 5.71927E-22
1.48521E-02 5.31559E-22
1.53845E-02 4.94672E-22
1.59262E-02 4.60911E-22
1.64770E-02 4.29966E-22
1.70371E-02 4.01559E-22
1.76063E-02 3.75446E-22
1.81848E-02 3.51409E-22
1.87724E-02 3.29254E-22
1.93692E-02 3.08806E-22
1.99751E-02 2.89911E-22
2.05901E-02 2.72431E-22
2.12143E-02 2.56239E-22
2.18476E-02 2.41225E-22
2.24900E-02 2.27287E-22
2.31415E-02 2.14335E-22
2.38021E-02 2.02286E-22
2.44717E-02 1.91065E-22
2.51504E-02 1.80607E-22
2.58382E-02 1.70849E-22
2.65349E-02 1.61737E-22
2.72407E-02 1.53219E-22
2.79555E-02 1.45251E-22
2.86793E-02 1.37790E-22
2.94120E-02 1.30798E-22
3.01537E-02 1.24241E-22
3.09043E-02 1.18086E-22
3.16639E-02 1.12305E-22
3.24324E-02 1.06870E-22
3.32098E-02 1.01757E-22
3.39961E-02 9.69442E-23
3.47912E-02 9.24098E-23
3.55952E-02 8.81352E-23
3.64081E-02 8.41028E-23
3.72297E-02 8.02963E-23
3.80602E-02 7.67009E-23
3.88995E-02 7.33026E-23
3.97476E-02 7.00887E-23
4.06044E-02 6.70474E-23
4.14700E-02 6.41678E-23
4.23443E-02 6.14396E-23
4.32273E-02 5.88535E-23
4.41190E-02 5.64007E-23
4.50194E-02 5.40731E-23
4.59284E-02 5.18631E-23
4.68461E-02 4.97638E-23
4.87074E-02 4.58712E-23
5.06030E-02 4.23482E-23
5.25328E-02 3.91535E-23
5.44967E-02 3.62514E-23
5.64946E-02 3.36104E-23
5.85262E-02 3.12030E-23
6.05914E-02 2.90050E-23
6.26901E-02 2.69949E-23
6.48222E-02 2.51540E-23
6.69873E-02 2.34655E-23
6.91854E-02 2.19146E-23
7.14163E-02 2.04882E-23
7.36799E-02 1.91745E-23
7.59760E-02 1.79630E-23
7.83043E-02 1.68445E-23
8.06647E-02 1.58105E-23
8.30571E-02 1.48536E-23
8.54812E-02 1.39670E-23
8.79369E-02 1.31446E-23
9.04240E-02 1.23810E-23
9.29422E-02 1.16712E-23
9.54915E-02 1.10107E-23
9.80716E-02 1.03956E-23
1.00682E-01 9.82219E-24
1.03323E-01 9.28714E-24
1.05995E-01 8.78742E-24
1.08696E-01 8.32031E-24
1.11427E-01 7.88328E-24
1.14188E-01 7.47407E-24
1.16978E-01 7.09060E-24
1.19797E-01 6.73097E-24
1.22645E-01 6.39344E-24
1.25522E-01 6.07639E-24
1.28428E-01 5.77838E-24
1.31361E-01 5.49805E-24
1.34323E-01 5.23418E-24
1.37313E-01 4.98563E-24
1.40330E-01 4.75136E-24
1.43375E-01 4.53039E-24
1.46447E-01 4.32184E-24
1.49545E-01 4.12489E-24
1.52671E-01 3.93879E-24
1.55823E-01 3.76282E-24
1.59001E-01 3.59635E-24
1.62205E-01 3.43876E-24
1.65435E-01 3.28949E-24
1.68690E-01 3.14804E-24
1.71970E-01 3.01393E-24
1.75276E-01 2.88670E-24
1.78606E-01 2.76594E-24
1.81961E-01 2.65126E-24
1.85340E-01 2.54230E-24
1.88743E-01 2.43873E-24
1.92169E-01 2.34023E-24
1.95619E-01 2.24652E-24
1.99092E-01 2.15731E-24
2.02589E-01 2.07236E-24
2.06107E-01 1.99142E-24
2.09649E-01 1.91427E-24
2.13212E-01 1.84071E-24
2.16797E-01 1.77054E-24
2.20404E-01 1.70357E-24
2.24032E-01 1.63964E-24
2.27680E-01 1.57857E-24
2.31350E-01 1.52022E-24
2.35040E-01 1.46446E-24
2.38751E-01 1.41114E-24
2.42481E-01 1.36013E-24
2.46231E-01 1.31132E-24
2.50000E-01 1.26460E-24
2.53788E-01 1.21988E-24
2.57595E-01 1.17703E-24
2.61421E-01 1.13596E-24
2.65264E-01 1.09661E-24
2.69126E-01 1.05888E-24
2.73005E-01 1.02269E-24
2.76901E-01 9.87962E-25
2.80814E-01 9.54637E-25
2.84744E-01 9.22644E-25
2.88691E-01 8.91920E-25
2.92653E-01 8.62408E-25
2.96632E-01 8.34050E-25
3.00625E-01 8.06794E-25
3.04634E-01 7.80590E-25
3.08658E-01 7.55390E-25
3.12697E-01 7.31148E-25
3.16749E-01 7.07823E-25
3.20816E-01 6.85374E-25
3.24896E-01 6.63761E-25
3.28990E-01 6.42950E-25
3.33097E-01 6.22904E-25
3.37216E-01 6.03590E-25
3.41348E-01 5.84979E-25
3.45492E-01 5.67039E-25
3.49647E-01 5.49742E-25
3.53814E-01 5.33061E-25
3.57992E-01 5.16971E-25
3.62181E-01 5.01447E-25
3.66381E-01 4.86466E-25
3.70590E-01 4.72005E-25
3.74810E-01 4.58044E-25
3.79039E-01 4.44562E-25
3.83277E-01 4.31541E-25
3.87524E-01 4.18960E-25
3.91780E-01 4.06805E-25
3.96044E-01 3.95056E-25
4.00316E-01 3.83699E-25
4.04596E-01 3.72719E-25
4.08882E-01 3.62100E-25
4.13176E-01 3.51829E-25
4.17476E-01 3.41892E-25
4.21783E-01 3.32278E-25
4.26095E-01 3.22973E-25
4.30413E-01 3.13966E-25
4.34737E-01 3.05245E-25
4.39065E-01 2.96801E-25
4.43398E-01 2.88624E-25
4.47736E-01 2.80702E-25
4.52077E-01 2.73027E-25
4.56422E-01 2.65591E-25
4.60770E-01 2.58383E-25
4.65122E-01 2.51397E-25
4.69476E-01 2.44624E-25
4.73832E-01 2.38057E-25
4.78190E-01 2.31688E-25
4.82550E-01 2.25511E-25
4.86912E-01 2.19518E-25
4.91274E-01 2.13704E-25
4.95637E-01 2.08061E-25
5.00000E-01 2.02585E-25
5.04363E-01 1.97270E-25
5.08726E-01 1.92110E-25
5.13088E-01 1.87099E-25
5.17450E-01 1.82234E-25
5.21810E-01 1.77508E-25
5.26168E-01 1.72917E-25
5.30524E-01 1.68458E-25
5.34878E-01 1.64125E-25
5.39230E-01 1.59914E-25
5.43578E-01 1.55821E-25
5.47923E-01 1.51843E-25
5.52264E-01 1.47976E-25
5.56602E-01 1.44216E-25
5.60935E-01 1.40560E-25
5.65263E-01 1.37004E-25
5.69587E-01 1.33546E-25
5.73905E-01 1.30181E-25
5.78217E-01 1.26908E-25
5.82524E-01 1.23724E-25
5.86824E-01 1.20625E-25
5.91118E-01 1.17609E-25
5.95404E-01 1.14673E-25
5.99684E-01 1.11816E-25
6.03956E-01 1.09034E-25
6.08220E-01 1.06326E-25
6.12476E-01 1.03688E-25
6.16723E-01 1.01120E-25
6.20961E-01 9.86179E-26
6.25190E-01 9.61811E-26
6.29410E-01 9.38073E-26
6.33619E-01 9.14946E-26
6.37819E-01 8.92411E-26
6.42008E-01 8.70453E-26
6.46186E-01 8.49053E-26
6.50353E-01 8.28196E-26
6.54508E-01 8.07865E-26
6.58652E-01 7.88047E-26
6.62784E-01 7.68725E-26
6.66903E-01 7.49887E-26
6.71010E-01 7.31517E-26
6.75104E-01 7.13604E-26
6.79184E-01 6.96134E-26
6.83251E-01 6.79094E-26
6.87303E-01 6.62473E-26
6.91342E-01 6.46260E-26
6.95366E-01 6.30442E-26
6.99375E-01 6.15009E-26
7.03368E-01 5.99950E-26
7.07347E-01 5.85255E-26
7.11309E-01 5.70915E-26
7.15256E-01 5.56919E-26
7.19186E-01 5.43259E-26
7.23099E-01 5.29925E-26
7.26995E-01 5.16909E-26
7.30874E-01 5.04202E-26
7.34736E-01 4.91796E-26
7.38579E-01 4.79683E-26
7.42405E-01 4.67855E-26
7.46212E-01 4.56306E-26
7.50000E-01 4.45027E-26
7.53769E-01 4.34011E-26
7.57519E-01 4.23253E-26
7.61249E-01 4.12745E-26
7.64960E-01 4.02481E-26
7.68650E-01 3.92455E-26
7.72320E-01 3.82660E-26
7.75968E-01 3.73091E-26
7.79596E-01 3.63742E-26
7.83203E-01 3.54608E-26
7.86788E-01 3.45683E-26
7.90351E-01 3.36963E-26
7.93893E-01 3.28441E-26
7.97411E-01 3.20113E-26
8.00908E-01 3.11975E-26
8.04381E-01 3.04022E-26
8.07831E-01 2.96249E-26
8.11257E-01 2.88652E-26
8.14660E-01 2.81227E-26
8.18039E-01 2.73970E-26
8.21394E-01 2.66876E-26
8.24724E-01 2.59942E-26
8.28030E-01 2.53164E-26
8.31310E-01 2.46538E-26
8.34565E-01 2.40061E-26
8.37795E-01 2.33730E-26
8.40999E-01 2.27541E-26
8.44177E-01 2.21490E-26
8.47329E-01 2.15575E-26
8.50455E-01 2.09792E-26
8.53553E-01 2.04139E-26
8.56625E-01 1.98613E-26
8.59670E-01 1.93210E-26
8.62687E-01 1.87929E-26
8.65677E-01 1.82765E-26
8.68639E-01 1.77717E-26
8.71572E-01 1.72783E-26
8.74478E-01 1.67959E-26
8.77355E-01 1.63244E-26
8.80203E-01 1.58634E-26
8.83022E-01 1.54129E-26
8.85812E-01 1.49724E-26
8.88573E-01 1.45419E-26
8.91304E-01 1.41212E-26
8.94005E-01 1.37100E-26
8.96677E-01 1.33081E-26
8.99318E-01 1.29153E-26
9.01928E-01 1.25315E-26
9.04508E-01 1.21565E-26
9.07058E-01 1.17900E-26
9.09576E-01 1.14320E-26
9.12063E-01 1.10822E-26
9.14519E-01 1.07405E-26
9.16943E-01 1.04068E-26
9.19335E-01 1.00808E-26
9.21696E-01 9.76251E-27
9.24024E-01 9.45167E-27
9.26320E-01 9.14817E-27
9.28584E-01 8.85188E-27
9.30815E-01 8.56266E-27
9.33013E-01 8.28039E-27
9.35178E-01 8.00493E-27
9.37310E-01 7.73617E-27
9.39409E-01 7.47398E-27
9.41474E-01 7.21825E-27
9.43505E-01 6.96888E-27
9.45503E-01 6.72573E-27
9.47467E-01 6.48872E-27
9.49397E-01 6.25774E-27
9.51293E-01 6.03269E-27
9.53154E-01 5.81347E-27
9.54981E-01 5.59998E-27
9.56773E-01 5.39214E-27
9.58530E-01 5.18985E-27
9.60252E-01 4.99303E-27
9.61940E-01 4.80160E-27
9.63592E-01 4.61547E-27
9.65209E-01 4.43456E-27
9.66790E-01 4.25880E-27
9.68336E-01 4.08812E-27
9.69846E-01 3.92244E-27
9.71321E-01 3.76170E-27
9.72759E-01 3.60582E-27
9.74162E-01 3.45475E-27
9.75528E-01 3.30841E-27
9.76858E-01 3.16675E-27
9.78152E-01 3.02971E-27
9.79410E-01 2.89724E-27
9.80631E-01 2.76927E-27
9.81815E-01 2.64577E-27
9.82963E-01 2.52666E-27
9.84074E-01 2.41192E-27
9.85148E-01 2.30149E-27
9.86185E-01 2.19532E-27
9.87185E-01 2.09337E-27
9.88148E-01 1.99561E-27
9.89074E-01 1.90199E-27
9.89962E-01 1.81247E-27
9.90814E-01 1.72702E-27
9.91627E-01 1.64560E-27
9.92404E-01 1.56819E-27
9.93143E-01 1.49474E-27
9.93844E-01 1.42524E-27
9.94508E-01 1.35964E-27
9.95134E-01 1.29794E-27
9.95722E-01 1.24009E-27
9.96273E-01 1.18609E-27
9.96786E-01 1.13590E-27
9.97261E-01 1.08951E-27
9.97698E-01 1.04690E-27
9.98097E-01 1.00805E-27
9.98459E-01 9.72941E-28
9.98782E-01 9.41569E-28
9.99067E-01 9.13917E-28
9.99315E-01 8.89974E-28
9.99524E-01 8.69730E-28
9.99695E-01 8.53178E-28
9.99829E-01 8.40311E-28
9.99924E-01 8.31124E-28
9.99981E-01 8.25613E-28
1.00000E+00 8.23777E-28
