 #
 # Subroutine ELSEPA. Elastic scattering of electrons and positrons
 #                    by neutral atoms and positive ions
 #
 # Projectile: positron
 # Kinetic energy = 2.00000E+08 eV = 7.34987E+06 a.u.
 #
 # WARNING: High-energy factorization with free-atom DF screening.
 #          Absorption, polarization and exchange corrections are
 #          switched off.
 #          Phase shifts are calculated for the bare nucleus.
 #          Scattering amplitudes are not evaluated.
 #
 # Element: Pt,  Z =  78,  atomic weight = 1.95078E+02 g/mol
 #
 # Nuclear model: Fermi distribution
 #                Average radius = 6.20564E-13 cm
 #                Skin thickness = 5.46000E-14 cm
 #
 # Number of electrons = 78
 #
 # Total elastic cross section = 7.62777E-18 cm**2 = 2.72393E-01 a0**2
 # 1st transport cross section = 2.80911E-25 cm**2 = 1.00315E-08 a0**2
 # 2nd transport cross section = 8.40625E-25 cm**2 = 3.00193E-08 a0**2
 #
 #
 # Differential cross section:                       MU=(1-COS(THETA))/2
 #
 #  THETA        MU          DCS          DCS        Sherman      error
 #  (deg)                 (cm**2/sr)   (a0**2/sr)    function
 #----------------------------------------------------------------------
0.00000E+00 1.66747E-09
7.61557E-13 1.65636E-09
1.18994E-12 1.65019E-09
1.71346E-12 1.64270E-09
2.33225E-12 1.63393E-09
3.04617E-12 1.62393E-09
3.85530E-12 1.61273E-09
4.75964E-12 1.60038E-09
5.75917E-12 1.58692E-09
6.85391E-12 1.57228E-09
8.04379E-12 1.55684E-09
9.32893E-12 1.54048E-09
1.07092E-11 1.52309E-09
1.21847E-11 1.50514E-09
1.37554E-11 1.48629E-09
1.54213E-11 1.46674E-09
1.71823E-11 1.44689E-09
1.90386E-11 1.42607E-09
2.09900E-11 1.40498E-09
2.30367E-11 1.38372E-09
2.51785E-11 1.36157E-09
2.74156E-11 1.33950E-09
2.97478E-11 1.31718E-09
3.21752E-11 1.29439E-09
3.46979E-11 1.27187E-09
3.73157E-11 1.24895E-09
4.00286E-11 1.22599E-09
4.28368E-11 1.20345E-09
4.57402E-11 1.18032E-09
4.87388E-11 1.15759E-09
5.18325E-11 1.13519E-09
5.50215E-11 1.11239E-09
5.83057E-11 1.09019E-09
6.16850E-11 1.06811E-09
6.51595E-11 1.04601E-09
6.87293E-11 1.02457E-09
7.23943E-11 1.00303E-09
7.61544E-11 9.81829E-10
1.18991E-10 7.88340E-10
1.71347E-10 6.29713E-10
2.33223E-10 5.03299E-10
3.04617E-10 4.04113E-10
3.85531E-10 3.26405E-10
4.75965E-10 2.65373E-10
5.75917E-10 2.17113E-10
6.85389E-10 1.76970E-10
8.04380E-10 1.47521E-10
9.32891E-10 1.24174E-10
1.07092E-09 1.04120E-10
1.21847E-09 8.87277E-11
1.37554E-09 7.57897E-11
1.54213E-09 6.50253E-11
1.71823E-09 5.64617E-11
1.90386E-09 4.89630E-11
2.09900E-09 4.27897E-11
2.30367E-09 3.76949E-11
2.51785E-09 3.31656E-11
2.74156E-09 2.94082E-11
2.97478E-09 2.61796E-11
3.21752E-09 2.33322E-11
3.46978E-09 2.09239E-11
3.73156E-09 1.87840E-11
4.00286E-09 1.69079E-11
4.28368E-09 1.52963E-11
4.57402E-09 1.38237E-11
4.87388E-09 1.25402E-11
5.18326E-09 1.14134E-11
5.50215E-09 1.03805E-11
5.83057E-09 9.47615E-12
6.16850E-09 8.66390E-12
6.51596E-09 7.92620E-12
6.87293E-09 7.27415E-12
7.23942E-09 6.67802E-12
7.61544E-09 6.14067E-12
1.18991E-08 2.87000E-12
1.71347E-08 1.51128E-12
2.33223E-08 8.75691E-13
3.04617E-08 5.44516E-13
3.85531E-08 3.56739E-13
4.75965E-08 2.43607E-13
5.75917E-08 1.71910E-13
6.85389E-08 1.24763E-13
8.04380E-08 9.27035E-14
9.32891E-08 7.03109E-14
1.07092E-07 5.42915E-14
1.21847E-07 4.25837E-14
1.37554E-07 3.38666E-14
1.54213E-07 2.72685E-14
1.71823E-07 2.22006E-14
1.90386E-07 1.82564E-14
2.09900E-07 1.51502E-14
2.30367E-07 1.26775E-14
2.51785E-07 1.06894E-14
2.74156E-07 9.07596E-15
2.97478E-07 7.75606E-15
3.21752E-07 6.66793E-15
3.46978E-07 5.76439E-15
3.73156E-07 5.00902E-15
4.00286E-07 4.37358E-15
4.28368E-07 3.83588E-15
4.57402E-07 3.37839E-15
4.87388E-07 2.98714E-15
5.18325E-07 2.65094E-15
5.50215E-07 2.36072E-15
5.83057E-07 2.10913E-15
6.16850E-07 1.89012E-15
6.51596E-07 1.69879E-15
6.87293E-07 1.53104E-15
7.23942E-07 1.38348E-15
7.61543E-07 1.25324E-15
1.18991E-06 5.22603E-16
1.71347E-06 2.54800E-16
2.33223E-06 1.38570E-16
3.04617E-06 8.16830E-17
3.85531E-06 5.12195E-17
4.75964E-06 3.37250E-17
5.75916E-06 2.31020E-17
6.85388E-06 1.63512E-17
8.04378E-06 1.18952E-17
9.32888E-06 8.85862E-18
1.07092E-05 6.73174E-18
1.21846E-05 5.20627E-18
1.37553E-05 4.08926E-18
1.54212E-05 3.25624E-18
1.71822E-05 2.62483E-18
1.90385E-05 2.13794E-18
2.09899E-05 1.76102E-18
2.30365E-05 1.46330E-18
2.51783E-05 1.22552E-18
2.74153E-05 1.03381E-18
2.97475E-05 8.78004E-19
3.21749E-05 7.50444E-19
3.46974E-05 6.45279E-19
3.73152E-05 5.57975E-19
4.00281E-05 4.85001E-19
4.28362E-05 4.23596E-19
4.57395E-05 3.71600E-19
4.87380E-05 3.27318E-19
5.18317E-05 2.89414E-19
5.50205E-05 2.56821E-19
5.83045E-05 2.28680E-19
6.16838E-05 2.04289E-19
6.51582E-05 1.83069E-19
6.87277E-05 1.64538E-19
7.23925E-05 1.48297E-19
7.61524E-05 1.34231E-19
9.21439E-05 9.16892E-20
1.09658E-04 6.47364E-20
1.28695E-04 4.70008E-20
1.49255E-04 3.49407E-20
1.71338E-04 2.65127E-20
1.94942E-04 2.04786E-20
2.20070E-04 1.60672E-20
2.46720E-04 1.27820E-20
2.74892E-04 1.02948E-20
3.04586E-04 8.38402E-21
3.35803E-04 6.89648E-21
3.68542E-04 5.72452E-21
4.02802E-04 4.79109E-21
4.38585E-04 4.04026E-21
4.75889E-04 3.43077E-21
5.14715E-04 2.93189E-21
5.55063E-04 2.52036E-21
5.96931E-04 2.17849E-21
6.40321E-04 1.89261E-21
6.85233E-04 1.65201E-21
7.31665E-04 1.44832E-21
7.79618E-04 1.27499E-21
8.29092E-04 1.12676E-21
8.80086E-04 9.99396E-22
9.32601E-04 8.89466E-22
9.86636E-04 7.94187E-22
1.04219E-03 7.11276E-22
1.09927E-03 6.38861E-22
1.15786E-03 5.75384E-22
1.21797E-03 5.19557E-22
1.27961E-03 4.70300E-22
1.34276E-03 4.26707E-22
1.40743E-03 3.88017E-22
1.47362E-03 3.53581E-22
1.54133E-03 3.22854E-22
1.61056E-03 2.95365E-22
1.68131E-03 2.70714E-22
1.75357E-03 2.48559E-22
1.82735E-03 2.28601E-22
1.90265E-03 2.10586E-22
1.97947E-03 1.94292E-22
2.05780E-03 1.79525E-22
2.13765E-03 1.66117E-22
2.21902E-03 1.53922E-22
2.30190E-03 1.42810E-22
2.38630E-03 1.32669E-22
2.47222E-03 1.23398E-22
2.55965E-03 1.14911E-22
2.64859E-03 1.07129E-22
2.73905E-03 9.99839E-23
2.83103E-03 9.34137E-23
2.92452E-03 8.73645E-23
3.01952E-03 8.17876E-23
3.11604E-03 7.66397E-23
3.21407E-03 7.18822E-23
3.31362E-03 6.74802E-23
3.41468E-03 6.34025E-23
3.51725E-03 5.96210E-23
3.62133E-03 5.61105E-23
3.72692E-03 5.28482E-23
3.83403E-03 4.98135E-23
3.94265E-03 4.69878E-23
4.05278E-03 4.43542E-23
4.16442E-03 4.18973E-23
4.27757E-03 3.96032E-23
4.39223E-03 3.74593E-23
4.50840E-03 3.54541E-23
4.62608E-03 3.35771E-23
4.74527E-03 3.18186E-23
4.86597E-03 3.01698E-23
4.98817E-03 2.86228E-23
5.11188E-03 2.71702E-23
5.23711E-03 2.58053E-23
5.36383E-03 2.45219E-23
5.49207E-03 2.33142E-23
5.62181E-03 2.21770E-23
5.75306E-03 2.11056E-23
5.88581E-03 2.00955E-23
6.02007E-03 1.91426E-23
6.15583E-03 1.82430E-23
6.29310E-03 1.73934E-23
6.43187E-03 1.65905E-23
6.57214E-03 1.58313E-23
6.71392E-03 1.51130E-23
6.85720E-03 1.44330E-23
7.00198E-03 1.37890E-23
7.14827E-03 1.31787E-23
7.29605E-03 1.26002E-23
7.44534E-03 1.20514E-23
7.59612E-03 1.15306E-23
7.97965E-03 1.03404E-23
8.37255E-03 9.29213E-24
8.77480E-03 8.36631E-24
9.18641E-03 7.54656E-24
9.60736E-03 6.81899E-24
1.00376E-02 6.17173E-24
1.04773E-02 5.59466E-24
1.09262E-02 5.07911E-24
1.13844E-02 4.61758E-24
1.18520E-02 4.20365E-24
1.23288E-02 3.83173E-24
1.28150E-02 3.49698E-24
1.33104E-02 3.19518E-24
1.38150E-02 2.92267E-24
1.43290E-02 2.67623E-24
1.48521E-02 2.45304E-24
1.53845E-02 2.25064E-24
1.59262E-02 2.06683E-24
1.64770E-02 1.89971E-24
1.70371E-02 1.74757E-24
1.76063E-02 1.60890E-24
1.81848E-02 1.48237E-24
1.87724E-02 1.36680E-24
1.93692E-02 1.26112E-24
1.99751E-02 1.16440E-24
2.05901E-02 1.07579E-24
2.12143E-02 9.94530E-25
2.18476E-02 9.19952E-25
2.24900E-02 8.51445E-25
2.31415E-02 7.88466E-25
2.38021E-02 7.30522E-25
2.44717E-02 6.77170E-25
2.51504E-02 6.28012E-25
2.58382E-02 5.82686E-25
2.65349E-02 5.40866E-25
2.72407E-02 5.02255E-25
2.79555E-02 4.66585E-25
2.86793E-02 4.33612E-25
2.94120E-02 4.03116E-25
3.01537E-02 3.74894E-25
3.09043E-02 3.48763E-25
3.16639E-02 3.24556E-25
3.24324E-02 3.02120E-25
3.32098E-02 2.81316E-25
3.39961E-02 2.62016E-25
3.47912E-02 2.44104E-25
3.55952E-02 2.27474E-25
3.64081E-02 2.12026E-25
3.72297E-02 1.97673E-25
3.80602E-02 1.84330E-25
3.88995E-02 1.71924E-25
3.97476E-02 1.60383E-25
4.06044E-02 1.49645E-25
4.14700E-02 1.39650E-25
4.23443E-02 1.30344E-25
4.32273E-02 1.21677E-25
4.41190E-02 1.13603E-25
4.50194E-02 1.06080E-25
4.59284E-02 9.90678E-26
4.68461E-02 9.25307E-26
4.87074E-02 8.07496E-26
5.06030E-02 7.04974E-26
5.25328E-02 6.15689E-26
5.44967E-02 5.37880E-26
5.64946E-02 4.70029E-26
5.85262E-02 4.10832E-26
6.05914E-02 3.59161E-26
6.26901E-02 3.14039E-26
6.48222E-02 2.74625E-26
6.69873E-02 2.40185E-26
6.91854E-02 2.10084E-26
7.14163E-02 1.83772E-26
7.36799E-02 1.60767E-26
7.59760E-02 1.40652E-26
7.83043E-02 1.23063E-26
8.06647E-02 1.07682E-26
8.30571E-02 9.42328E-27
8.54812E-02 8.24724E-27
8.79369E-02 7.21896E-27
9.04240E-02 6.31997E-27
9.29422E-02 5.53408E-27
9.54915E-02 4.84715E-27
9.80716E-02 4.24679E-27
1.00682E-01 3.72218E-27
1.03323E-01 3.26380E-27
1.05995E-01 2.86336E-27
1.08696E-01 2.51357E-27
1.11427E-01 2.20806E-27
1.14188E-01 1.94123E-27
1.16978E-01 1.70821E-27
1.19797E-01 1.50471E-27
1.22645E-01 1.32698E-27
1.25522E-01 1.17173E-27
1.28428E-01 1.03611E-27
1.31361E-01 9.17597E-28
1.34323E-01 8.13997E-28
1.37313E-01 7.23392E-28
1.40330E-01 6.44106E-28
1.43375E-01 5.74677E-28
1.46447E-01 5.13827E-28
1.49545E-01 4.60442E-28
1.52671E-01 4.13552E-28
1.55823E-01 3.72312E-28
1.59001E-01 3.35985E-28
1.62205E-01 3.03931E-28
1.65435E-01 2.75595E-28
1.68690E-01 2.50492E-28
1.71970E-01 2.28203E-28
1.75276E-01 2.08364E-28
1.78606E-01 1.90660E-28
1.81961E-01 1.74818E-28
1.85340E-01 1.60602E-28
1.88743E-01 1.47806E-28
1.92169E-01 1.36255E-28
1.95619E-01 1.25795E-28
1.99092E-01 1.16294E-28
2.02589E-01 1.07639E-28
2.06107E-01 9.97313E-29
2.09649E-01 9.24858E-29
2.13212E-01 8.58293E-29
2.16797E-01 7.96983E-29
2.20404E-01 7.40380E-29
2.24032E-01 6.88010E-29
2.27680E-01 6.39461E-29
2.31350E-01 5.94375E-29
2.35040E-01 5.52441E-29
2.38751E-01 5.13387E-29
2.42481E-01 4.76974E-29
2.46231E-01 4.42992E-29
2.50000E-01 4.11258E-29
2.53788E-01 3.81606E-29
2.57595E-01 3.53890E-29
2.61421E-01 3.27978E-29
2.65264E-01 3.03752E-29
2.69126E-01 2.81106E-29
2.73005E-01 2.59939E-29
2.76901E-01 2.40164E-29
2.80814E-01 2.21696E-29
2.84744E-01 2.04459E-29
2.88691E-01 1.88382E-29
2.92653E-01 1.73396E-29
2.96632E-01 1.59440E-29
3.00625E-01 1.46453E-29
3.04634E-01 1.34380E-29
3.08658E-01 1.23168E-29
3.12697E-01 1.12766E-29
3.16749E-01 1.03125E-29
3.20816E-01 9.42014E-30
3.24896E-01 8.59502E-30
3.28990E-01 7.83304E-30
3.33097E-01 7.13025E-30
3.37216E-01 6.48289E-30
3.41348E-01 5.88738E-30
3.45492E-01 5.34031E-30
3.49647E-01 4.83844E-30
3.53814E-01 4.37869E-30
3.57992E-01 3.95815E-30
3.62181E-01 3.57404E-30
3.66381E-01 3.22374E-30
3.70590E-01 2.90478E-30
3.74810E-01 2.61482E-30
3.79039E-01 2.35165E-30
3.83277E-01 2.11320E-30
3.87524E-01 1.89751E-30
3.91780E-01 1.70276E-30
3.96044E-01 1.52722E-30
4.00316E-01 1.36930E-30
4.04596E-01 1.22749E-30
4.08882E-01 1.10040E-30
4.13176E-01 9.86720E-31
4.17476E-01 8.85245E-31
4.21783E-01 7.94852E-31
4.26095E-01 7.14501E-31
4.30413E-01 6.43232E-31
4.34737E-01 5.80158E-31
4.39065E-01 5.24462E-31
4.43398E-01 4.75393E-31
4.47736E-01 4.32263E-31
4.52077E-01 3.94440E-31
4.56422E-01 3.61347E-31
4.60770E-01 3.32459E-31
4.65122E-01 3.07295E-31
4.69476E-01 2.85423E-31
4.73832E-01 2.66447E-31
4.78190E-01 2.50011E-31
4.82550E-01 2.35794E-31
4.86912E-01 2.23507E-31
4.91274E-01 2.12891E-31
4.95637E-01 2.03715E-31
5.00000E-01 1.95771E-31
5.04363E-01 1.88876E-31
5.08726E-01 1.82868E-31
5.13088E-01 1.77603E-31
5.17450E-01 1.72954E-31
5.21810E-01 1.68813E-31
5.26168E-01 1.65081E-31
5.30524E-01 1.61678E-31
5.34878E-01 1.58530E-31
5.39230E-01 1.55577E-31
5.43578E-01 1.52767E-31
5.47923E-01 1.50056E-31
5.52264E-01 1.47409E-31
5.56602E-01 1.44795E-31
5.60935E-01 1.42191E-31
5.65263E-01 1.39578E-31
5.69587E-01 1.36942E-31
5.73905E-01 1.34272E-31
5.78217E-01 1.31560E-31
5.82524E-01 1.28802E-31
5.86824E-01 1.25997E-31
5.91118E-01 1.23144E-31
5.95404E-01 1.20244E-31
5.99684E-01 1.17301E-31
6.03956E-01 1.14319E-31
6.08220E-01 1.11302E-31
6.12476E-01 1.08257E-31
6.16723E-01 1.05189E-31
6.20961E-01 1.02105E-31
6.25190E-01 9.90114E-32
6.29410E-01 9.59150E-32
6.33619E-01 9.28223E-32
6.37819E-01 8.97400E-32
6.42008E-01 8.66742E-32
6.46186E-01 8.36313E-32
6.50353E-01 8.06168E-32
6.54508E-01 7.76364E-32
6.58652E-01 7.46952E-32
6.62784E-01 7.17979E-32
6.66903E-01 6.89490E-32
6.71010E-01 6.61523E-32
6.75104E-01 6.34115E-32
6.79184E-01 6.07298E-32
6.83251E-01 5.81101E-32
6.87303E-01 5.55548E-32
6.91342E-01 5.30659E-32
6.95366E-01 5.06452E-32
6.99375E-01 4.82941E-32
7.03368E-01 4.60137E-32
7.07347E-01 4.38047E-32
7.11309E-01 4.16677E-32
7.15256E-01 3.96029E-32
7.19186E-01 3.76102E-32
7.23099E-01 3.56895E-32
7.26995E-01 3.38402E-32
7.30874E-01 3.20618E-32
7.34736E-01 3.03533E-32
7.38579E-01 2.87138E-32
7.42405E-01 2.71423E-32
7.46212E-01 2.56374E-32
7.50000E-01 2.41977E-32
7.53769E-01 2.28219E-32
7.57519E-01 2.15084E-32
7.61249E-01 2.02556E-32
7.64960E-01 1.90618E-32
7.68650E-01 1.79253E-32
7.72320E-01 1.68443E-32
7.75968E-01 1.58171E-32
7.79596E-01 1.48419E-32
7.83203E-01 1.39168E-32
7.86788E-01 1.30401E-32
7.90351E-01 1.22099E-32
7.93893E-01 1.14245E-32
7.97411E-01 1.06821E-32
8.00908E-01 9.98090E-33
8.04381E-01 9.31919E-33
8.07831E-01 8.69527E-33
8.11257E-01 8.10745E-33
8.14660E-01 7.55413E-33
8.18039E-01 7.03369E-33
8.21394E-01 6.54458E-33
8.24724E-01 6.08531E-33
8.28030E-01 5.65439E-33
8.31310E-01 5.25041E-33
8.34565E-01 4.87198E-33
8.37795E-01 4.51780E-33
8.40999E-01 4.18656E-33
8.44177E-01 3.87703E-33
8.47329E-01 3.58803E-33
8.50455E-01 3.31841E-33
8.53553E-01 3.06709E-33
8.56625E-01 2.83301E-33
8.59670E-01 2.61516E-33
8.62687E-01 2.41259E-33
8.65677E-01 2.22439E-33
8.68639E-01 2.04967E-33
8.71572E-01 1.88761E-33
8.74478E-01 1.73742E-33
8.77355E-01 1.59834E-33
8.80203E-01 1.46966E-33
8.83022E-01 1.35070E-33
8.85812E-01 1.24082E-33
8.88573E-01 1.13941E-33
8.91304E-01 1.04590E-33
8.94005E-01 9.59747E-34
8.96677E-01 8.80438E-34
8.99318E-01 8.07491E-34
9.01928E-01 7.40451E-34
9.04508E-01 6.78892E-34
9.07058E-01 6.22410E-34
9.09576E-01 5.70631E-34
9.12063E-01 5.23199E-34
9.14519E-01 4.79783E-34
9.16943E-01 4.40074E-34
9.19335E-01 4.03782E-34
9.21696E-01 3.70634E-34
9.24024E-01 3.40380E-34
9.26320E-01 3.12782E-34
9.28584E-01 2.87623E-34
9.30815E-01 2.64697E-34
9.33013E-01 2.43816E-34
9.35178E-01 2.24804E-34
9.37310E-01 2.07497E-34
9.39409E-01 1.91746E-34
9.41474E-01 1.77410E-34
9.43505E-01 1.64361E-34
9.45503E-01 1.52480E-34
9.47467E-01 1.41658E-34
9.49397E-01 1.31794E-34
9.51293E-01 1.22797E-34
9.53154E-01 1.14582E-34
9.54981E-01 1.07071E-34
9.56773E-01 1.00194E-34
9.58530E-01 9.38869E-35
9.60252E-01 8.80910E-35
9.61940E-01 8.27522E-35
9.63592E-01 7.78233E-35
9.65209E-01 7.32605E-35
9.66790E-01 6.90244E-35
9.68336E-01 6.50798E-35
9.69846E-01 6.13954E-35
9.71321E-01 5.79420E-35
9.72759E-01 5.46958E-35
9.74162E-01 5.16327E-35
9.75528E-01 4.87341E-35
9.76858E-01 4.59823E-35
9.78152E-01 4.33636E-35
9.79410E-01 4.08622E-35
9.80631E-01 3.84689E-35
9.81815E-01 3.61734E-35
9.82963E-01 3.39669E-35
9.84074E-01 3.18436E-35
9.85148E-01 2.97968E-35
9.86185E-01 2.78227E-35
9.87185E-01 2.59172E-35
9.88148E-01 2.40773E-35
9.89074E-01 2.23011E-35
9.89962E-01 2.05879E-35
9.90814E-01 1.89369E-35
9.91627E-01 1.73468E-35
9.92404E-01 1.58183E-35
9.93143E-01 1.43524E-35
9.93844E-01 1.29491E-35
9.94508E-01 1.16101E-35
9.95134E-01 1.03360E-35
9.95722E-01 9.12872E-36
9.96273E-01 7.98993E-36
9.96786E-01 6.92048E-36
9.97261E-01 5.92260E-36
9.97698E-01 4.99725E-36
9.98097E-01 4.14686E-36
9.98459E-01 3.37219E-36
9.98782E-01 2.67475E-36
9.99067E-01 2.05618E-36
9.99315E-01 1.51746E-36
9.99524E-01 1.05948E-36
9.99695E-01 6.83797E-37
9.99829E-01 3.90639E-37
9.99924E-01 1.80815E-37
9.99981E-01 5.48172E-38
1.00000E+00 1.27728E-38
