 #
 # Subroutine ELSEPA. Elastic scattering of electrons and positrons
 #                    by neutral atoms and positive ions
 #
 # Projectile: positron
 # Kinetic energy = 4.00000E+07 eV = 1.46997E+06 a.u.
 #
 # WARNING: High-energy factorization with free-atom DF screening.
 #          Absorption, polarization and exchange corrections are
 #          switched off.
 #          Phase shifts are calculated for the bare nucleus.
 #          Scattering amplitudes are not evaluated.
 #
 # Element: Pt,  Z =  78,  atomic weight = 1.95078E+02 g/mol
 #
 # Nuclear model: Fermi distribution
 #                Average radius = 6.20564E-13 cm
 #                Skin thickness = 5.46000E-14 cm
 #
 # Number of electrons = 78
 #
 # Total elastic cross section = 7.62685E-18 cm**2 = 2.72360E-01 a0**2
 # 1st transport cross section = 6.24745E-24 cm**2 = 2.23100E-07 a0**2
 # 2nd transport cross section = 1.82849E-23 cm**2 = 6.52967E-07 a0**2
 #
 #
 # Differential cross section:                       MU=(1-COS(THETA))/2
 #
 #  THETA        MU          DCS          DCS        Sherman      error
 #  (deg)                 (cm**2/sr)   (a0**2/sr)    function
 #----------------------------------------------------------------------
0.00000E+00 6.80656E-11
7.61557E-13 6.80466E-11
1.18994E-12 6.80361E-11
1.71346E-12 6.80233E-11
2.33225E-12 6.80081E-11
3.04617E-12 6.79907E-11
3.85530E-12 6.79709E-11
4.75964E-12 6.79488E-11
5.75917E-12 6.79245E-11
6.85391E-12 6.78978E-11
8.04379E-12 6.78689E-11
9.32893E-12 6.78377E-11
1.07092E-11 6.78042E-11
1.21847E-11 6.77684E-11
1.37554E-11 6.77304E-11
1.54213E-11 6.76901E-11
1.71823E-11 6.76476E-11
1.90386E-11 6.76028E-11
2.09900E-11 6.75558E-11
2.30367E-11 6.75066E-11
2.51785E-11 6.74551E-11
2.74156E-11 6.74015E-11
2.97478E-11 6.73457E-11
3.21752E-11 6.72876E-11
3.46979E-11 6.72274E-11
3.73157E-11 6.71651E-11
4.00286E-11 6.71006E-11
4.28368E-11 6.70339E-11
4.57402E-11 6.69652E-11
4.87388E-11 6.68943E-11
5.18325E-11 6.68213E-11
5.50215E-11 6.67462E-11
5.83057E-11 6.66690E-11
6.16850E-11 6.65898E-11
6.51595E-11 6.65086E-11
6.87293E-11 6.64253E-11
7.23943E-11 6.63399E-11
7.61544E-11 6.62526E-11
1.18991E-10 6.52728E-11
1.71347E-10 6.41047E-11
2.33223E-10 6.27823E-11
3.04617E-10 6.13180E-11
3.85531E-10 5.97243E-11
4.75965E-10 5.80371E-11
5.75917E-10 5.62805E-11
6.85389E-10 5.44592E-11
8.04380E-10 5.25926E-11
9.32891E-10 5.07134E-11
1.07092E-09 4.88380E-11
1.21847E-09 4.69553E-11
1.37554E-09 4.50918E-11
1.54213E-09 4.32671E-11
1.71823E-09 4.14887E-11
1.90386E-09 3.97345E-11
2.09900E-09 3.80355E-11
2.30367E-09 3.63978E-11
2.51785E-09 3.48209E-11
2.74156E-09 3.32844E-11
2.97478E-09 3.18142E-11
3.21752E-09 3.04093E-11
3.46978E-09 2.90628E-11
3.73156E-09 2.77643E-11
4.00286E-09 2.65285E-11
4.28368E-09 2.53530E-11
4.57402E-09 2.42278E-11
4.87388E-09 2.31501E-11
5.18326E-09 2.21270E-11
5.50215E-09 2.11557E-11
5.83057E-09 2.02257E-11
6.16850E-09 1.93389E-11
6.51596E-09 1.84977E-11
6.87293E-09 1.76996E-11
7.23942E-09 1.69345E-11
7.61544E-09 1.62070E-11
1.18991E-08 1.06128E-11
1.71347E-08 7.05730E-12
2.33223E-08 4.93814E-12
3.04617E-08 3.53379E-12
3.85531E-08 2.58437E-12
4.75965E-08 1.94309E-12
5.75917E-08 1.49418E-12
6.85389E-08 1.16698E-12
8.04380E-08 9.24793E-13
9.32891E-08 7.43691E-13
1.07092E-07 6.05351E-13
1.21847E-07 4.96325E-13
1.37554E-07 4.10379E-13
1.54213E-07 3.42161E-13
1.71823E-07 2.87361E-13
1.90386E-07 2.42410E-13
2.09900E-07 2.05824E-13
2.30367E-07 1.75836E-13
2.51785E-07 1.51050E-13
2.74156E-07 1.30324E-13
2.97478E-07 1.13059E-13
3.21752E-07 9.85913E-14
3.46978E-07 8.63988E-14
3.73156E-07 7.59644E-14
4.00286E-07 6.70874E-14
4.28368E-07 5.95012E-14
4.57402E-07 5.29793E-14
4.87388E-07 4.73449E-14
5.18325E-07 4.24611E-14
5.50215E-07 3.82076E-14
5.83057E-07 3.44779E-14
6.16850E-07 3.11964E-14
6.51596E-07 2.83022E-14
6.87293E-07 2.57403E-14
7.23942E-07 2.34591E-14
7.61543E-07 2.14272E-14
1.18991E-06 9.57977E-15
1.71347E-06 4.90199E-15
2.33223E-06 2.76177E-15
3.04617E-06 1.67167E-15
3.85531E-06 1.06993E-15
4.75964E-06 7.16033E-16
5.75916E-06 4.97058E-16
6.85388E-06 3.55772E-16
8.04378E-06 2.61338E-16
9.32888E-06 1.96269E-16
1.07092E-05 1.50265E-16
1.21846E-05 1.16989E-16
1.37553E-05 9.24339E-17
1.54212E-05 7.39927E-17
1.71822E-05 5.99248E-17
1.90385E-05 4.90123E-17
2.09899E-05 4.05205E-17
2.30365E-05 3.37816E-17
2.51783E-05 2.83763E-17
2.74153E-05 2.40017E-17
2.97475E-05 2.04339E-17
3.21749E-05 1.75038E-17
3.46974E-05 1.50812E-17
3.73152E-05 1.30650E-17
4.00281E-05 1.13758E-17
4.28362E-05 9.95139E-18
4.57395E-05 8.74288E-18
4.87380E-05 7.71181E-18
5.18317E-05 6.82771E-18
5.50205E-05 6.06630E-18
5.83045E-05 5.40794E-18
6.16838E-05 4.83652E-18
6.51582E-05 4.33874E-18
6.87277E-05 3.90352E-18
7.23925E-05 3.52162E-18
7.61524E-05 3.18535E-18
9.21439E-05 2.18220E-18
1.09658E-04 1.54446E-18
1.28695E-04 1.12358E-18
1.49255E-04 8.36669E-19
1.71338E-04 6.35734E-19
1.94942E-04 4.91606E-19
2.20070E-04 3.86068E-19
2.46720E-04 3.07364E-19
2.74892E-04 2.47709E-19
3.04586E-04 2.01832E-19
3.35803E-04 1.66088E-19
3.68542E-04 1.37906E-19
4.02802E-04 1.15448E-19
4.38585E-04 9.73734E-20
4.75889E-04 8.26958E-20
5.14715E-04 7.06782E-20
5.55063E-04 6.07624E-20
5.96931E-04 5.25231E-20
6.40321E-04 4.56316E-20
6.85233E-04 3.98320E-20
7.31665E-04 3.49234E-20
7.79618E-04 3.07466E-20
8.29092E-04 2.71747E-20
8.80086E-04 2.41056E-20
9.32601E-04 2.14568E-20
9.86636E-04 1.91613E-20
1.04219E-03 1.71639E-20
1.09927E-03 1.54196E-20
1.15786E-03 1.38908E-20
1.21797E-03 1.25464E-20
1.27961E-03 1.13603E-20
1.34276E-03 1.03108E-20
1.40743E-03 9.37938E-21
1.47362E-03 8.55051E-21
1.54133E-03 7.81097E-21
1.61056E-03 7.14945E-21
1.68131E-03 6.55630E-21
1.75357E-03 6.02324E-21
1.82735E-03 5.54308E-21
1.90265E-03 5.10969E-21
1.97947E-03 4.71770E-21
2.05780E-03 4.36247E-21
2.13765E-03 4.03995E-21
2.21902E-03 3.74658E-21
2.30190E-03 3.47928E-21
2.38630E-03 3.23531E-21
2.47222E-03 3.01229E-21
2.55965E-03 2.80808E-21
2.64859E-03 2.62082E-21
2.73905E-03 2.44886E-21
2.83103E-03 2.29072E-21
2.92452E-03 2.14509E-21
3.01952E-03 2.01081E-21
3.11604E-03 1.88683E-21
3.21407E-03 1.77221E-21
3.31362E-03 1.66614E-21
3.41468E-03 1.56785E-21
3.51725E-03 1.47667E-21
3.62133E-03 1.39200E-21
3.72692E-03 1.31328E-21
3.83403E-03 1.24002E-21
3.94265E-03 1.17178E-21
4.05278E-03 1.10814E-21
4.16442E-03 1.04875E-21
4.27757E-03 9.93266E-22
4.39223E-03 9.41384E-22
4.50840E-03 8.92829E-22
4.62608E-03 8.47348E-22
4.74527E-03 8.04713E-22
4.86597E-03 7.64712E-22
4.98817E-03 7.27152E-22
5.11188E-03 6.91857E-22
5.23711E-03 6.58668E-22
5.36383E-03 6.27435E-22
5.49207E-03 5.98020E-22
5.62181E-03 5.70298E-22
5.75306E-03 5.44157E-22
5.88581E-03 5.19488E-22
6.02007E-03 4.96191E-22
6.15583E-03 4.74178E-22
6.29310E-03 4.53368E-22
6.43187E-03 4.33678E-22
6.57214E-03 4.15038E-22
6.71392E-03 3.97384E-22
6.85720E-03 3.80653E-22
7.00198E-03 3.64787E-22
7.14827E-03 3.49734E-22
7.29605E-03 3.35444E-22
7.44534E-03 3.21872E-22
7.59612E-03 3.08975E-22
7.97965E-03 2.79431E-22
8.37255E-03 2.53312E-22
8.77480E-03 2.30155E-22
9.18641E-03 2.09567E-22
9.60736E-03 1.91214E-22
1.00376E-02 1.74812E-22
1.04773E-02 1.60119E-22
1.09262E-02 1.46926E-22
1.13844E-02 1.35054E-22
1.18520E-02 1.24347E-22
1.23288E-02 1.14672E-22
1.28150E-02 1.05912E-22
1.33104E-02 9.79651E-23
1.38150E-02 9.07436E-23
1.43290E-02 8.41696E-23
1.48521E-02 7.81750E-23
1.53845E-02 7.27000E-23
1.59262E-02 6.76919E-23
1.64770E-02 6.31030E-23
1.70371E-02 5.88907E-23
1.76063E-02 5.50205E-23
1.81848E-02 5.14596E-23
1.87724E-02 4.81790E-23
1.93692E-02 4.51527E-23
1.99751E-02 4.23577E-23
2.05901E-02 3.97730E-23
2.12143E-02 3.73802E-23
2.18476E-02 3.51625E-23
2.24900E-02 3.31047E-23
2.31415E-02 3.11934E-23
2.38021E-02 2.94163E-23
2.44717E-02 2.77623E-23
2.51504E-02 2.62213E-23
2.58382E-02 2.47843E-23
2.65349E-02 2.34431E-23
2.72407E-02 2.21900E-23
2.79555E-02 2.10184E-23
2.86793E-02 1.99220E-23
2.94120E-02 1.88950E-23
3.01537E-02 1.79324E-23
3.09043E-02 1.70293E-23
3.16639E-02 1.61815E-23
3.24324E-02 1.53850E-23
3.32098E-02 1.46360E-23
3.39961E-02 1.39314E-23
3.47912E-02 1.32679E-23
3.55952E-02 1.26427E-23
3.64081E-02 1.20534E-23
3.72297E-02 1.14973E-23
3.80602E-02 1.09724E-23
3.88995E-02 1.04766E-23
3.97476E-02 1.00079E-23
4.06044E-02 9.56468E-24
4.14700E-02 9.14524E-24
4.23443E-02 8.74810E-24
4.32273E-02 8.37187E-24
4.41190E-02 8.01524E-24
4.50194E-02 7.67702E-24
4.59284E-02 7.35610E-24
4.68461E-02 7.05141E-24
4.87074E-02 6.48700E-24
5.06030E-02 5.97680E-24
5.25328E-02 5.51474E-24
5.44967E-02 5.09552E-24
5.64946E-02 4.71453E-24
5.85262E-02 4.36768E-24
6.05914E-02 4.05141E-24
6.26901E-02 3.76259E-24
6.48222E-02 3.49842E-24
6.69873E-02 3.25646E-24
6.91854E-02 3.03453E-24
7.14163E-02 2.83070E-24
7.36799E-02 2.64325E-24
7.59760E-02 2.47063E-24
7.83043E-02 2.31149E-24
8.06647E-02 2.16460E-24
8.30571E-02 2.02885E-24
8.54812E-02 1.90326E-24
8.79369E-02 1.78696E-24
9.04240E-02 1.67912E-24
9.29422E-02 1.57905E-24
9.54915E-02 1.48608E-24
9.80716E-02 1.39963E-24
1.00682E-01 1.31917E-24
1.03323E-01 1.24422E-24
1.05995E-01 1.17433E-24
1.08696E-01 1.10910E-24
1.11427E-01 1.04819E-24
1.14188E-01 9.91242E-25
1.16978E-01 9.37970E-25
1.19797E-01 8.88094E-25
1.22645E-01 8.41364E-25
1.25522E-01 7.97548E-25
1.28428E-01 7.56436E-25
1.31361E-01 7.17832E-25
1.34323E-01 6.81560E-25
1.37313E-01 6.47456E-25
1.40330E-01 6.15368E-25
1.43375E-01 5.85160E-25
1.46447E-01 5.56703E-25
1.49545E-01 5.29878E-25
1.52671E-01 5.04579E-25
1.55823E-01 4.80703E-25
1.59001E-01 4.58158E-25
1.62205E-01 4.36858E-25
1.65435E-01 4.16723E-25
1.68690E-01 3.97680E-25
1.71970E-01 3.79659E-25
1.75276E-01 3.62598E-25
1.78606E-01 3.46436E-25
1.81961E-01 3.31120E-25
1.85340E-01 3.16598E-25
1.88743E-01 3.02822E-25
1.92169E-01 2.89748E-25
1.95619E-01 2.77334E-25
1.99092E-01 2.65543E-25
2.02589E-01 2.54337E-25
2.06107E-01 2.43684E-25
2.09649E-01 2.33551E-25
2.13212E-01 2.23911E-25
2.16797E-01 2.14734E-25
2.20404E-01 2.05995E-25
2.24032E-01 1.97670E-25
2.27680E-01 1.89737E-25
2.31350E-01 1.82174E-25
2.35040E-01 1.74961E-25
2.38751E-01 1.68080E-25
2.42481E-01 1.61513E-25
2.46231E-01 1.55243E-25
2.50000E-01 1.49255E-25
2.53788E-01 1.43535E-25
2.57595E-01 1.38068E-25
2.61421E-01 1.32842E-25
2.65264E-01 1.27845E-25
2.69126E-01 1.23065E-25
2.73005E-01 1.18491E-25
2.76901E-01 1.14113E-25
2.80814E-01 1.09921E-25
2.84744E-01 1.05906E-25
2.88691E-01 1.02061E-25
2.92653E-01 9.83754E-26
2.96632E-01 9.48430E-26
3.00625E-01 9.14561E-26
3.04634E-01 8.82080E-26
3.08658E-01 8.50920E-26
3.12697E-01 8.21021E-26
3.16749E-01 7.92324E-26
3.20816E-01 7.64773E-26
3.24896E-01 7.38317E-26
3.28990E-01 7.12905E-26
3.33097E-01 6.88491E-26
3.37216E-01 6.65029E-26
3.41348E-01 6.42478E-26
3.45492E-01 6.20797E-26
3.49647E-01 5.99947E-26
3.53814E-01 5.79892E-26
3.57992E-01 5.60598E-26
3.62181E-01 5.42031E-26
3.66381E-01 5.24162E-26
3.70590E-01 5.06958E-26
3.74810E-01 4.90393E-26
3.79039E-01 4.74440E-26
3.83277E-01 4.59072E-26
3.87524E-01 4.44265E-26
3.91780E-01 4.29996E-26
3.96044E-01 4.16243E-26
4.00316E-01 4.02984E-26
4.04596E-01 3.90200E-26
4.08882E-01 3.77871E-26
4.13176E-01 3.65978E-26
4.17476E-01 3.54505E-26
4.21783E-01 3.43434E-26
4.26095E-01 3.32749E-26
4.30413E-01 3.22435E-26
4.34737E-01 3.12478E-26
4.39065E-01 3.02863E-26
4.43398E-01 2.93577E-26
4.47736E-01 2.84608E-26
4.52077E-01 2.75943E-26
4.56422E-01 2.67570E-26
4.60770E-01 2.59479E-26
4.65122E-01 2.51659E-26
4.69476E-01 2.44099E-26
4.73832E-01 2.36790E-26
4.78190E-01 2.29722E-26
4.82550E-01 2.22886E-26
4.86912E-01 2.16274E-26
4.91274E-01 2.09878E-26
4.95637E-01 2.03689E-26
5.00000E-01 1.97699E-26
5.04363E-01 1.91903E-26
5.08726E-01 1.86292E-26
5.13088E-01 1.80861E-26
5.17450E-01 1.75601E-26
5.21810E-01 1.70509E-26
5.26168E-01 1.65576E-26
5.30524E-01 1.60799E-26
5.34878E-01 1.56171E-26
5.39230E-01 1.51687E-26
5.43578E-01 1.47342E-26
5.47923E-01 1.43131E-26
5.52264E-01 1.39050E-26
5.56602E-01 1.35094E-26
5.60935E-01 1.31259E-26
5.65263E-01 1.27541E-26
5.69587E-01 1.23935E-26
5.73905E-01 1.20438E-26
5.78217E-01 1.17047E-26
5.82524E-01 1.13757E-26
5.86824E-01 1.10565E-26
5.91118E-01 1.07469E-26
5.95404E-01 1.04464E-26
5.99684E-01 1.01548E-26
6.03956E-01 9.87182E-27
6.08220E-01 9.59713E-27
6.12476E-01 9.33047E-27
6.16723E-01 9.07158E-27
6.20961E-01 8.82022E-27
6.25190E-01 8.57613E-27
6.29410E-01 8.33909E-27
6.33619E-01 8.10887E-27
6.37819E-01 7.88525E-27
6.42008E-01 7.66802E-27
6.46186E-01 7.45698E-27
6.50353E-01 7.25193E-27
6.54508E-01 7.05269E-27
6.58652E-01 6.85907E-27
6.62784E-01 6.67090E-27
6.66903E-01 6.48800E-27
6.71010E-01 6.31022E-27
6.75104E-01 6.13739E-27
6.79184E-01 5.96937E-27
6.83251E-01 5.80601E-27
6.87303E-01 5.64716E-27
6.91342E-01 5.49269E-27
6.95366E-01 5.34246E-27
6.99375E-01 5.19635E-27
7.03368E-01 5.05423E-27
7.07347E-01 4.91598E-27
7.11309E-01 4.78149E-27
7.15256E-01 4.65065E-27
7.19186E-01 4.52334E-27
7.23099E-01 4.39946E-27
7.26995E-01 4.27892E-27
7.30874E-01 4.16160E-27
7.34736E-01 4.04743E-27
7.38579E-01 3.93631E-27
7.42405E-01 3.82814E-27
7.46212E-01 3.72284E-27
7.50000E-01 3.62034E-27
7.53769E-01 3.52054E-27
7.57519E-01 3.42338E-27
7.61249E-01 3.32878E-27
7.64960E-01 3.23665E-27
7.68650E-01 3.14695E-27
7.72320E-01 3.05958E-27
7.75968E-01 2.97450E-27
7.79596E-01 2.89163E-27
7.83203E-01 2.81092E-27
7.86788E-01 2.73229E-27
7.90351E-01 2.65571E-27
7.93893E-01 2.58110E-27
7.97411E-01 2.50842E-27
8.00908E-01 2.43761E-27
8.04381E-01 2.36861E-27
8.07831E-01 2.30139E-27
8.11257E-01 2.23589E-27
8.14660E-01 2.17207E-27
8.18039E-01 2.10988E-27
8.21394E-01 2.04927E-27
8.24724E-01 1.99021E-27
8.28030E-01 1.93265E-27
8.31310E-01 1.87655E-27
8.34565E-01 1.82188E-27
8.37795E-01 1.76859E-27
8.40999E-01 1.71665E-27
8.44177E-01 1.66603E-27
8.47329E-01 1.61668E-27
8.50455E-01 1.56859E-27
8.53553E-01 1.52170E-27
8.56625E-01 1.47600E-27
8.59670E-01 1.43146E-27
8.62687E-01 1.38803E-27
8.65677E-01 1.34570E-27
8.68639E-01 1.30444E-27
8.71572E-01 1.26422E-27
8.74478E-01 1.22501E-27
8.77355E-01 1.18679E-27
8.80203E-01 1.14953E-27
8.83022E-01 1.11321E-27
8.85812E-01 1.07781E-27
8.88573E-01 1.04330E-27
8.91304E-01 1.00966E-27
8.94005E-01 9.76875E-28
8.96677E-01 9.44919E-28
8.99318E-01 9.13773E-28
9.01928E-01 8.83416E-28
9.04508E-01 8.53832E-28
9.07058E-01 8.25001E-28
9.09576E-01 7.96905E-28
9.12063E-01 7.69527E-28
9.14519E-01 7.42851E-28
9.16943E-01 7.16860E-28
9.19335E-01 6.91538E-28
9.21696E-01 6.66871E-28
9.24024E-01 6.42842E-28
9.26320E-01 6.19438E-28
9.28584E-01 5.96645E-28
9.30815E-01 5.74449E-28
9.33013E-01 5.52837E-28
9.35178E-01 5.31796E-28
9.37310E-01 5.11313E-28
9.39409E-01 4.91377E-28
9.41474E-01 4.71976E-28
9.43505E-01 4.53098E-28
9.45503E-01 4.34733E-28
9.47467E-01 4.16869E-28
9.49397E-01 3.99497E-28
9.51293E-01 3.82606E-28
9.53154E-01 3.66186E-28
9.54981E-01 3.50229E-28
9.56773E-01 3.34725E-28
9.58530E-01 3.19665E-28
9.60252E-01 3.05041E-28
9.61940E-01 2.90844E-28
9.63592E-01 2.77066E-28
9.65209E-01 2.63699E-28
9.66790E-01 2.50737E-28
9.68336E-01 2.38171E-28
9.69846E-01 2.25994E-28
9.71321E-01 2.14200E-28
9.72759E-01 2.02782E-28
9.74162E-01 1.91734E-28
9.75528E-01 1.81050E-28
9.76858E-01 1.70723E-28
9.78152E-01 1.60748E-28
9.79410E-01 1.51119E-28
9.80631E-01 1.41832E-28
9.81815E-01 1.32881E-28
9.82963E-01 1.24260E-28
9.84074E-01 1.15966E-28
9.85148E-01 1.07994E-28
9.86185E-01 1.00339E-28
9.87185E-01 9.29979E-29
9.88148E-01 8.59656E-29
9.89074E-01 7.92388E-29
9.89962E-01 7.28138E-29
9.90814E-01 6.66871E-29
9.91627E-01 6.08553E-29
9.92404E-01 5.53153E-29
9.93143E-01 5.00642E-29
9.93844E-01 4.50991E-29
9.94508E-01 4.04173E-29
9.95134E-01 3.60162E-29
9.95722E-01 3.18936E-29
9.96273E-01 2.80472E-29
9.96786E-01 2.44750E-29
9.97261E-01 2.11749E-29
9.97698E-01 1.81454E-29
9.98097E-01 1.53846E-29
9.98459E-01 1.28913E-29
9.98782E-01 1.06639E-29
9.99067E-01 8.70140E-30
9.99315E-01 7.00266E-30
9.99524E-01 5.56680E-30
9.99695E-01 4.39305E-30
9.99829E-01 3.48078E-30
9.99924E-01 2.82951E-30
9.99981E-01 2.43889E-30
1.00000E+00 2.30870E-30
