 #
 # Subroutine ELSEPA. Elastic scattering of electrons and positrons
 #                    by neutral atoms and positive ions
 #
 # Projectile: positron
 # Kinetic energy = 4.00000E+06 eV = 1.46997E+05 a.u.
 #
 # WARNING: High-energy factorization with free-atom DF screening.
 #          Absorption, polarization and exchange corrections are
 #          switched off.
 #          Phase shifts are calculated for the bare nucleus.
 #          Scattering amplitudes are not evaluated.
 #
 # Element: Pt,  Z =  78,  atomic weight = 1.95078E+02 g/mol
 #
 # Nuclear model: Fermi distribution
 #                Average radius = 6.20564E-13 cm
 #                Skin thickness = 5.46000E-14 cm
 #
 # Number of electrons = 78
 #
 # Total elastic cross section = 7.71619E-18 cm**2 = 2.75550E-01 a0**2
 # 1st transport cross section = 3.49573E-22 cm**2 = 1.24835E-05 a0**2
 # 2nd transport cross section = 1.00271E-21 cm**2 = 3.58075E-05 a0**2
 #
 #
 # Differential cross section:                       MU=(1-COS(THETA))/2
 #
 #  THETA        MU          DCS          DCS        Sherman      error
 #  (deg)                 (cm**2/sr)   (a0**2/sr)    function
 #----------------------------------------------------------------------
0.00000E+00 8.43970E-13
7.61557E-13 8.43967E-13
1.18994E-12 8.43965E-13
1.71346E-12 8.43962E-13
2.33225E-12 8.43960E-13
3.04617E-12 8.43957E-13
3.85530E-12 8.43954E-13
4.75964E-12 8.43950E-13
5.75917E-12 8.43946E-13
6.85391E-12 8.43942E-13
8.04379E-12 8.43937E-13
9.32893E-12 8.43932E-13
1.07092E-11 8.43927E-13
1.21847E-11 8.43921E-13
1.37554E-11 8.43915E-13
1.54213E-11 8.43908E-13
1.71823E-11 8.43902E-13
1.90386E-11 8.43894E-13
2.09900E-11 8.43887E-13
2.30367E-11 8.43879E-13
2.51785E-11 8.43871E-13
2.74156E-11 8.43862E-13
2.97478E-11 8.43853E-13
3.21752E-11 8.43844E-13
3.46979E-11 8.43835E-13
3.73157E-11 8.43825E-13
4.00286E-11 8.43814E-13
4.28368E-11 8.43804E-13
4.57402E-11 8.43793E-13
4.87388E-11 8.43781E-13
5.18325E-11 8.43770E-13
5.50215E-11 8.43758E-13
5.83057E-11 8.43745E-13
6.16850E-11 8.43732E-13
6.51595E-11 8.43719E-13
6.87293E-11 8.43706E-13
7.23943E-11 8.43692E-13
7.61544E-11 8.43678E-13
1.18991E-10 8.43517E-13
1.71347E-10 8.43321E-13
2.33223E-10 8.43090E-13
3.04617E-10 8.42824E-13
3.85531E-10 8.42522E-13
4.75965E-10 8.42187E-13
5.75917E-10 8.41816E-13
6.85389E-10 8.41410E-13
8.04380E-10 8.40970E-13
9.32891E-10 8.40496E-13
1.07092E-09 8.39987E-13
1.21847E-09 8.39444E-13
1.37554E-09 8.38867E-13
1.54213E-09 8.38255E-13
1.71823E-09 8.37610E-13
1.90386E-09 8.36931E-13
2.09900E-09 8.36219E-13
2.30367E-09 8.35473E-13
2.51785E-09 8.34694E-13
2.74156E-09 8.33881E-13
2.97478E-09 8.33036E-13
3.21752E-09 8.32158E-13
3.46978E-09 8.31248E-13
3.73156E-09 8.30305E-13
4.00286E-09 8.29330E-13
4.28368E-09 8.28323E-13
4.57402E-09 8.27285E-13
4.87388E-09 8.26215E-13
5.18326E-09 8.25115E-13
5.50215E-09 8.23982E-13
5.83057E-09 8.22820E-13
6.16850E-09 8.21627E-13
6.51596E-09 8.20403E-13
6.87293E-09 8.19150E-13
7.23942E-09 8.17867E-13
7.61544E-09 8.16555E-13
1.18991E-08 8.01854E-13
1.71347E-08 7.84564E-13
2.33223E-08 7.64950E-13
3.04617E-08 7.43441E-13
3.85531E-08 7.20423E-13
4.75965E-08 6.96270E-13
5.75917E-08 6.71308E-13
6.85389E-08 6.45607E-13
8.04380E-08 6.19701E-13
9.32891E-08 5.93850E-13
1.07092E-07 5.68269E-13
1.21847E-07 5.43137E-13
1.37554E-07 5.18420E-13
1.54213E-07 4.94312E-13
1.71823E-07 4.71007E-13
1.90386E-07 4.48565E-13
2.09900E-07 4.27022E-13
2.30367E-07 4.06360E-13
2.51785E-07 3.86456E-13
2.74156E-07 3.67494E-13
2.97478E-07 3.49458E-13
3.21752E-07 3.32323E-13
3.46978E-07 3.16060E-13
3.73156E-07 3.00536E-13
4.00286E-07 2.85793E-13
4.28368E-07 2.71839E-13
4.57402E-07 2.58636E-13
4.87388E-07 2.46145E-13
5.18325E-07 2.34304E-13
5.50215E-07 2.23038E-13
5.83057E-07 2.12389E-13
6.16850E-07 2.02323E-13
6.51596E-07 1.92805E-13
6.87293E-07 1.83803E-13
7.23942E-07 1.75240E-13
7.61543E-07 1.67130E-13
1.18991E-06 1.05718E-13
1.71347E-06 6.96114E-14
2.33223E-06 4.73768E-14
3.04617E-06 3.34420E-14
3.85531E-06 2.43417E-14
4.75964E-06 1.81873E-14
5.75916E-06 1.38886E-14
6.85388E-06 1.07686E-14
8.04378E-06 8.48693E-15
9.32888E-06 6.77931E-15
1.07092E-05 5.47678E-15
1.21846E-05 4.46749E-15
1.37553E-05 3.67075E-15
1.54212E-05 3.03887E-15
1.71822E-05 2.53516E-15
1.90385E-05 2.12880E-15
2.09899E-05 1.80196E-15
2.30365E-05 1.53449E-15
2.51783E-05 1.31367E-15
2.74153E-05 1.13151E-15
2.97475E-05 9.79620E-16
3.21749E-05 8.52277E-16
3.46974E-05 7.45432E-16
3.73152E-05 6.55206E-16
4.00281E-05 5.78618E-16
4.28362E-05 5.13204E-16
4.57395E-05 4.56967E-16
4.87380E-05 4.08334E-16
5.18317E-05 3.66030E-16
5.50205E-05 3.29035E-16
5.83045E-05 2.96628E-16
6.16838E-05 2.68148E-16
6.51582E-05 2.43041E-16
6.87277E-05 2.20839E-16
7.23925E-05 2.01119E-16
7.61524E-05 1.83570E-16
9.21439E-05 1.29974E-16
1.09658E-04 9.45441E-17
1.28695E-04 7.03349E-17
1.49255E-04 5.34425E-17
1.71338E-04 4.13323E-17
1.94942E-04 3.24631E-17
2.20070E-04 2.58393E-17
2.46720E-04 2.08172E-17
2.74892E-04 1.69580E-17
3.04586E-04 1.39523E-17
3.35803E-04 1.15833E-17
3.68542E-04 9.69520E-18
4.02802E-04 8.17446E-18
4.38585E-04 6.94057E-18
4.75889E-04 5.93092E-18
5.14715E-04 5.09837E-18
5.55063E-04 4.40689E-18
5.96931E-04 3.82839E-18
6.40321E-04 3.34171E-18
6.85233E-04 2.93000E-18
7.31665E-04 2.57980E-18
7.79618E-04 2.28039E-18
8.29092E-04 2.02313E-18
8.80086E-04 1.80100E-18
9.32601E-04 1.60853E-18
9.86636E-04 1.44107E-18
1.04219E-03 1.29481E-18
1.09927E-03 1.16662E-18
1.15786E-03 1.05382E-18
1.21797E-03 9.54284E-19
1.27961E-03 8.66201E-19
1.34276E-03 7.88022E-19
1.40743E-03 7.18441E-19
1.47362E-03 6.56334E-19
1.54133E-03 6.00759E-19
1.61056E-03 5.50921E-19
1.68131E-03 5.06127E-19
1.75357E-03 4.65777E-19
1.82735E-03 4.29352E-19
1.90265E-03 3.96394E-19
1.97947E-03 3.66525E-19
2.05780E-03 3.39405E-19
2.13765E-03 3.14738E-19
2.21902E-03 2.92261E-19
2.30190E-03 2.71744E-19
2.38630E-03 2.52986E-19
2.47222E-03 2.35812E-19
2.55965E-03 2.20065E-19
2.64859E-03 2.05604E-19
2.73905E-03 1.92307E-19
2.83103E-03 1.80061E-19
2.92452E-03 1.68770E-19
3.01952E-03 1.58346E-19
3.11604E-03 1.48711E-19
3.21407E-03 1.39795E-19
3.31362E-03 1.31534E-19
3.41468E-03 1.23871E-19
3.51725E-03 1.16755E-19
3.62133E-03 1.10141E-19
3.72692E-03 1.03987E-19
3.83403E-03 9.82546E-20
3.94265E-03 9.29096E-20
4.05278E-03 8.79215E-20
4.16442E-03 8.32623E-20
4.27757E-03 7.89063E-20
4.39223E-03 7.48303E-20
4.50840E-03 7.10126E-20
4.62608E-03 6.74341E-20
4.74527E-03 6.40772E-20
4.86597E-03 6.09257E-20
4.98817E-03 5.79647E-20
5.11188E-03 5.51806E-20
5.23711E-03 5.25606E-20
5.36383E-03 5.00936E-20
5.49207E-03 4.77690E-20
5.62181E-03 4.55770E-20
5.75306E-03 4.35088E-20
5.88581E-03 4.15558E-20
6.02007E-03 3.97106E-20
6.15583E-03 3.79663E-20
6.29310E-03 3.63162E-20
6.43187E-03 3.47543E-20
6.57214E-03 3.32750E-20
6.71392E-03 3.18731E-20
6.85720E-03 3.05439E-20
7.00198E-03 2.92829E-20
7.14827E-03 2.80860E-20
7.29605E-03 2.69493E-20
7.44534E-03 2.58691E-20
7.59612E-03 2.48422E-20
7.97965E-03 2.24882E-20
8.37255E-03 2.04050E-20
8.77480E-03 1.85561E-20
9.18641E-03 1.69108E-20
9.60736E-03 1.54428E-20
1.00376E-02 1.41297E-20
1.04773E-02 1.29524E-20
1.09262E-02 1.18945E-20
1.13844E-02 1.09416E-20
1.18520E-02 1.00816E-20
1.23288E-02 9.30390E-21
1.28150E-02 8.59924E-21
1.33104E-02 7.95958E-21
1.38150E-02 7.37788E-21
1.43290E-02 6.84794E-21
1.48521E-02 6.36436E-21
1.53845E-02 5.92240E-21
1.59262E-02 5.51784E-21
1.64770E-02 5.14697E-21
1.70371E-02 4.80648E-21
1.76063E-02 4.49343E-21
1.81848E-02 4.20525E-21
1.87724E-02 3.93960E-21
1.93692E-02 3.69442E-21
1.99751E-02 3.46786E-21
2.05901E-02 3.25822E-21
2.12143E-02 3.06405E-21
2.18476E-02 2.88399E-21
2.24900E-02 2.71684E-21
2.31415E-02 2.56151E-21
2.38021E-02 2.41702E-21
2.44717E-02 2.28246E-21
2.51504E-02 2.15705E-21
2.58382E-02 2.04005E-21
2.65349E-02 1.93079E-21
2.72407E-02 1.82867E-21
2.79555E-02 1.73314E-21
2.86793E-02 1.64370E-21
2.94120E-02 1.55990E-21
3.01537E-02 1.48131E-21
3.09043E-02 1.40755E-21
3.16639E-02 1.33827E-21
3.24324E-02 1.27316E-21
3.32098E-02 1.21191E-21
3.39961E-02 1.15426E-21
3.47912E-02 1.09996E-21
3.55952E-02 1.04877E-21
3.64081E-02 1.00049E-21
3.72297E-02 9.54926E-22
3.80602E-02 9.11893E-22
3.88995E-02 8.71228E-22
3.97476E-02 8.32775E-22
4.06044E-02 7.96394E-22
4.14700E-02 7.61952E-22
4.23443E-02 7.29328E-22
4.32273E-02 6.98410E-22
4.41190E-02 6.69091E-22
4.50194E-02 6.41274E-22
4.59284E-02 6.14868E-22
4.68461E-02 5.89790E-22
4.87074E-02 5.43304E-22
5.06030E-02 5.01250E-22
5.25328E-02 4.63132E-22
5.44967E-02 4.28521E-22
5.64946E-02 3.97039E-22
5.85262E-02 3.68355E-22
6.05914E-02 3.42178E-22
6.26901E-02 3.18252E-22
6.48222E-02 2.96351E-22
6.69873E-02 2.76273E-22
6.91854E-02 2.57840E-22
7.14163E-02 2.40896E-22
7.36799E-02 2.25299E-22
7.59760E-02 2.10924E-22
7.83043E-02 1.97659E-22
8.06647E-02 1.85402E-22
8.30571E-02 1.74066E-22
8.54812E-02 1.63568E-22
8.79369E-02 1.53836E-22
9.04240E-02 1.44804E-22
9.29422E-02 1.36413E-22
9.54915E-02 1.28611E-22
9.80716E-02 1.21348E-22
1.00682E-01 1.14581E-22
1.03323E-01 1.08270E-22
1.05995E-01 1.02379E-22
1.08696E-01 9.68760E-23
1.11427E-01 9.17302E-23
1.14188E-01 8.69147E-23
1.16978E-01 8.24045E-23
1.19797E-01 7.81770E-23
1.22645E-01 7.42114E-23
1.25522E-01 7.04887E-23
1.28428E-01 6.69915E-23
1.31361E-01 6.37037E-23
1.34323E-01 6.06106E-23
1.37313E-01 5.76987E-23
1.40330E-01 5.49555E-23
1.43375E-01 5.23697E-23
1.46447E-01 4.99304E-23
1.49545E-01 4.76282E-23
1.52671E-01 4.54539E-23
1.55823E-01 4.33991E-23
1.59001E-01 4.14563E-23
1.62205E-01 3.96181E-23
1.65435E-01 3.78781E-23
1.68690E-01 3.62300E-23
1.71970E-01 3.46682E-23
1.75276E-01 3.31874E-23
1.78606E-01 3.17826E-23
1.81961E-01 3.04493E-23
1.85340E-01 2.91832E-23
1.88743E-01 2.79803E-23
1.92169E-01 2.68369E-23
1.95619E-01 2.57497E-23
1.99092E-01 2.47152E-23
2.02589E-01 2.37306E-23
2.06107E-01 2.27931E-23
2.09649E-01 2.18999E-23
2.13212E-01 2.10486E-23
2.16797E-01 2.02370E-23
2.20404E-01 1.94628E-23
2.24032E-01 1.87241E-23
2.27680E-01 1.80188E-23
2.31350E-01 1.73454E-23
2.35040E-01 1.67020E-23
2.38751E-01 1.60871E-23
2.42481E-01 1.54992E-23
2.46231E-01 1.49370E-23
2.50000E-01 1.43990E-23
2.53788E-01 1.38842E-23
2.57595E-01 1.33912E-23
2.61421E-01 1.29192E-23
2.65264E-01 1.24669E-23
2.69126E-01 1.20334E-23
2.73005E-01 1.16179E-23
2.76901E-01 1.12193E-23
2.80814E-01 1.08371E-23
2.84744E-01 1.04702E-23
2.88691E-01 1.01181E-23
2.92653E-01 9.78004E-24
2.96632E-01 9.45533E-24
3.00625E-01 9.14338E-24
3.04634E-01 8.84360E-24
3.08658E-01 8.55543E-24
3.12697E-01 8.27835E-24
3.16749E-01 8.01185E-24
3.20816E-01 7.75547E-24
3.24896E-01 7.50876E-24
3.28990E-01 7.27128E-24
3.33097E-01 7.04264E-24
3.37216E-01 6.82245E-24
3.41348E-01 6.61034E-24
3.45492E-01 6.40598E-24
3.49647E-01 6.20902E-24
3.53814E-01 6.01916E-24
3.57992E-01 5.83609E-24
3.62181E-01 5.65953E-24
3.66381E-01 5.48922E-24
3.70590E-01 5.32488E-24
3.74810E-01 5.16629E-24
3.79039E-01 5.01320E-24
3.83277E-01 4.86539E-24
3.87524E-01 4.72265E-24
3.91780E-01 4.58477E-24
3.96044E-01 4.45157E-24
4.00316E-01 4.32285E-24
4.04596E-01 4.19844E-24
4.08882E-01 4.07818E-24
4.13176E-01 3.96189E-24
4.17476E-01 3.84944E-24
4.21783E-01 3.74066E-24
4.26095E-01 3.63543E-24
4.30413E-01 3.53361E-24
4.34737E-01 3.43506E-24
4.39065E-01 3.33966E-24
4.43398E-01 3.24730E-24
4.47736E-01 3.15787E-24
4.52077E-01 3.07125E-24
4.56422E-01 2.98735E-24
4.60770E-01 2.90606E-24
4.65122E-01 2.82729E-24
4.69476E-01 2.75095E-24
4.73832E-01 2.67695E-24
4.78190E-01 2.60522E-24
4.82550E-01 2.53566E-24
4.86912E-01 2.46820E-24
4.91274E-01 2.40276E-24
4.95637E-01 2.33928E-24
5.00000E-01 2.27769E-24
5.04363E-01 2.21793E-24
5.08726E-01 2.15993E-24
5.13088E-01 2.10363E-24
5.17450E-01 2.04898E-24
5.21810E-01 1.99590E-24
5.26168E-01 1.94436E-24
5.30524E-01 1.89431E-24
5.34878E-01 1.84568E-24
5.39230E-01 1.79845E-24
5.43578E-01 1.75255E-24
5.47923E-01 1.70796E-24
5.52264E-01 1.66461E-24
5.56602E-01 1.62248E-24
5.60935E-01 1.58152E-24
5.65263E-01 1.54169E-24
5.69587E-01 1.50297E-24
5.73905E-01 1.46531E-24
5.78217E-01 1.42868E-24
5.82524E-01 1.39305E-24
5.86824E-01 1.35838E-24
5.91118E-01 1.32466E-24
5.95404E-01 1.29184E-24
5.99684E-01 1.25990E-24
6.03956E-01 1.22881E-24
6.08220E-01 1.19855E-24
6.12476E-01 1.16909E-24
6.16723E-01 1.14040E-24
6.20961E-01 1.11247E-24
6.25190E-01 1.08527E-24
6.29410E-01 1.05877E-24
6.33619E-01 1.03297E-24
6.37819E-01 1.00783E-24
6.42008E-01 9.83341E-25
6.46186E-01 9.59479E-25
6.50353E-01 9.36226E-25
6.54508E-01 9.13564E-25
6.58652E-01 8.91478E-25
6.62784E-01 8.69950E-25
6.66903E-01 8.48964E-25
6.71010E-01 8.28504E-25
6.75104E-01 8.08556E-25
6.79184E-01 7.89106E-25
6.83251E-01 7.70138E-25
6.87303E-01 7.51640E-25
6.91342E-01 7.33598E-25
6.95366E-01 7.15999E-25
6.99375E-01 6.98832E-25
7.03368E-01 6.82084E-25
7.07347E-01 6.65743E-25
7.11309E-01 6.49799E-25
7.15256E-01 6.34241E-25
7.19186E-01 6.19058E-25
7.23099E-01 6.04240E-25
7.26995E-01 5.89777E-25
7.30874E-01 5.75661E-25
7.34736E-01 5.61880E-25
7.38579E-01 5.48428E-25
7.42405E-01 5.35294E-25
7.46212E-01 5.22470E-25
7.50000E-01 5.09949E-25
7.53769E-01 4.97722E-25
7.57519E-01 4.85783E-25
7.61249E-01 4.74122E-25
7.64960E-01 4.62733E-25
7.68650E-01 4.51610E-25
7.72320E-01 4.40745E-25
7.75968E-01 4.30132E-25
7.79596E-01 4.19765E-25
7.83203E-01 4.09637E-25
7.86788E-01 3.99742E-25
7.90351E-01 3.90074E-25
7.93893E-01 3.80628E-25
7.97411E-01 3.71398E-25
8.00908E-01 3.62380E-25
8.04381E-01 3.53567E-25
8.07831E-01 3.44955E-25
8.11257E-01 3.36538E-25
8.14660E-01 3.28313E-25
8.18039E-01 3.20274E-25
8.21394E-01 3.12418E-25
8.24724E-01 3.04739E-25
8.28030E-01 2.97234E-25
8.31310E-01 2.89898E-25
8.34565E-01 2.82728E-25
8.37795E-01 2.75719E-25
8.40999E-01 2.68868E-25
8.44177E-01 2.62171E-25
8.47329E-01 2.55624E-25
8.50455E-01 2.49225E-25
8.53553E-01 2.42970E-25
8.56625E-01 2.36855E-25
8.59670E-01 2.30877E-25
8.62687E-01 2.25034E-25
8.65677E-01 2.19322E-25
8.68639E-01 2.13739E-25
8.71572E-01 2.08281E-25
8.74478E-01 2.02946E-25
8.77355E-01 1.97731E-25
8.80203E-01 1.92634E-25
8.83022E-01 1.87652E-25
8.85812E-01 1.82782E-25
8.88573E-01 1.78022E-25
8.91304E-01 1.73371E-25
8.94005E-01 1.68825E-25
8.96677E-01 1.64382E-25
8.99318E-01 1.60040E-25
9.01928E-01 1.55798E-25
9.04508E-01 1.51653E-25
9.07058E-01 1.47603E-25
9.09576E-01 1.43646E-25
9.12063E-01 1.39781E-25
9.14519E-01 1.36005E-25
9.16943E-01 1.32317E-25
9.19335E-01 1.28715E-25
9.21696E-01 1.25198E-25
9.24024E-01 1.21764E-25
9.26320E-01 1.18411E-25
9.28584E-01 1.15137E-25
9.30815E-01 1.11942E-25
9.33013E-01 1.08824E-25
9.35178E-01 1.05781E-25
9.37310E-01 1.02812E-25
9.39409E-01 9.99163E-26
9.41474E-01 9.70917E-26
9.43505E-01 9.43373E-26
9.45503E-01 9.16519E-26
9.47467E-01 8.90342E-26
9.49397E-01 8.64832E-26
9.51293E-01 8.39978E-26
9.53154E-01 8.15768E-26
9.54981E-01 7.92192E-26
9.56773E-01 7.69240E-26
9.58530E-01 7.46902E-26
9.60252E-01 7.25168E-26
9.61940E-01 7.04030E-26
9.63592E-01 6.83478E-26
9.65209E-01 6.63503E-26
9.66790E-01 6.44097E-26
9.68336E-01 6.25251E-26
9.69846E-01 6.06959E-26
9.71321E-01 5.89211E-26
9.72759E-01 5.72001E-26
9.74162E-01 5.55322E-26
9.75528E-01 5.39166E-26
9.76858E-01 5.23527E-26
9.78152E-01 5.08398E-26
9.79410E-01 4.93773E-26
9.80631E-01 4.79646E-26
9.81815E-01 4.66011E-26
9.82963E-01 4.52863E-26
9.84074E-01 4.40196E-26
9.85148E-01 4.28005E-26
9.86185E-01 4.16285E-26
9.87185E-01 4.05031E-26
9.88148E-01 3.94239E-26
9.89074E-01 3.83905E-26
9.89962E-01 3.74023E-26
9.90814E-01 3.64591E-26
9.91627E-01 3.55604E-26
9.92404E-01 3.47058E-26
9.93143E-01 3.38951E-26
9.93844E-01 3.31279E-26
9.94508E-01 3.24039E-26
9.95134E-01 3.17228E-26
9.95722E-01 3.10843E-26
9.96273E-01 3.04882E-26
9.96786E-01 2.99342E-26
9.97261E-01 2.94221E-26
9.97698E-01 2.89518E-26
9.98097E-01 2.85229E-26
9.98459E-01 2.81355E-26
9.98782E-01 2.77892E-26
9.99067E-01 2.74840E-26
9.99315E-01 2.72197E-26
9.99524E-01 2.69963E-26
9.99695E-01 2.68136E-26
9.99829E-01 2.66715E-26
9.99924E-01 2.65701E-26
9.99981E-01 2.65093E-26
1.00000E+00 2.64890E-26
