 #
 # Subroutine ELSEPA. Elastic scattering of electrons and positrons
 #                    by neutral atoms and positive ions
 #
 # Projectile: positron
 # Kinetic energy = 2.50000E+06 eV = 9.18733E+04 a.u.
 #
 # WARNING: High-energy factorization with free-atom DF screening.
 #          Absorption, polarization and exchange corrections are
 #          switched off.
 #          Phase shifts are calculated for the bare nucleus.
 #          Scattering amplitudes are not evaluated.
 #
 # Element: Pt,  Z =  78,  atomic weight = 1.95078E+02 g/mol
 #
 # Nuclear model: Fermi distribution
 #                Average radius = 6.20564E-13 cm
 #                Skin thickness = 5.46000E-14 cm
 #
 # Number of electrons = 78
 #
 # Total elastic cross section = 7.83503E-18 cm**2 = 2.79794E-01 a0**2
 # 1st transport cross section = 7.38309E-22 cm**2 = 2.63655E-05 a0**2
 # 2nd transport cross section = 2.10520E-21 cm**2 = 7.51780E-05 a0**2
 #
 #
 # Differential cross section:                       MU=(1-COS(THETA))/2
 #
 #  THETA        MU          DCS          DCS        Sherman      error
 #  (deg)                 (cm**2/sr)   (a0**2/sr)    function
 #----------------------------------------------------------------------
0.00000E+00 3.76013E-13
7.61557E-13 3.76012E-13
1.18994E-12 3.76012E-13
1.71346E-12 3.76011E-13
2.33225E-12 3.76011E-13
3.04617E-12 3.76010E-13
3.85530E-12 3.76009E-13
4.75964E-12 3.76009E-13
5.75917E-12 3.76008E-13
6.85391E-12 3.76007E-13
8.04379E-12 3.76006E-13
9.32893E-12 3.76005E-13
1.07092E-11 3.76004E-13
1.21847E-11 3.76003E-13
1.37554E-11 3.76001E-13
1.54213E-11 3.76000E-13
1.71823E-11 3.75999E-13
1.90386E-11 3.75997E-13
2.09900E-11 3.75996E-13
2.30367E-11 3.75994E-13
2.51785E-11 3.75993E-13
2.74156E-11 3.75991E-13
2.97478E-11 3.75989E-13
3.21752E-11 3.75987E-13
3.46979E-11 3.75985E-13
3.73157E-11 3.75983E-13
4.00286E-11 3.75981E-13
4.28368E-11 3.75979E-13
4.57402E-11 3.75977E-13
4.87388E-11 3.75975E-13
5.18325E-11 3.75972E-13
5.50215E-11 3.75970E-13
5.83057E-11 3.75967E-13
6.16850E-11 3.75965E-13
6.51595E-11 3.75962E-13
6.87293E-11 3.75960E-13
7.23943E-11 3.75957E-13
7.61544E-11 3.75954E-13
1.18991E-10 3.75922E-13
1.71347E-10 3.75883E-13
2.33223E-10 3.75838E-13
3.04617E-10 3.75785E-13
3.85531E-10 3.75726E-13
4.75965E-10 3.75659E-13
5.75917E-10 3.75586E-13
6.85389E-10 3.75506E-13
8.04380E-10 3.75420E-13
9.32891E-10 3.75326E-13
1.07092E-09 3.75226E-13
1.21847E-09 3.75119E-13
1.37554E-09 3.75005E-13
1.54213E-09 3.74884E-13
1.71823E-09 3.74757E-13
1.90386E-09 3.74623E-13
2.09900E-09 3.74482E-13
2.30367E-09 3.74334E-13
2.51785E-09 3.74180E-13
2.74156E-09 3.74019E-13
2.97478E-09 3.73851E-13
3.21752E-09 3.73677E-13
3.46978E-09 3.73496E-13
3.73156E-09 3.73308E-13
4.00286E-09 3.73114E-13
4.28368E-09 3.72913E-13
4.57402E-09 3.72706E-13
4.87388E-09 3.72492E-13
5.18326E-09 3.72271E-13
5.50215E-09 3.72045E-13
5.83057E-09 3.71811E-13
6.16850E-09 3.71571E-13
6.51596E-09 3.71325E-13
6.87293E-09 3.71072E-13
7.23942E-09 3.70813E-13
7.61544E-09 3.70548E-13
1.18991E-08 3.67550E-13
1.71347E-08 3.63949E-13
2.33223E-08 3.59778E-13
3.04617E-08 3.55043E-13
3.85531E-08 3.49864E-13
4.75965E-08 3.44195E-13
5.75917E-08 3.38194E-13
6.85389E-08 3.31749E-13
8.04380E-08 3.25106E-13
9.32891E-08 3.18085E-13
1.07092E-07 3.10953E-13
1.21847E-07 3.03570E-13
1.37554E-07 2.96119E-13
1.54213E-07 2.88545E-13
1.71823E-07 2.80928E-13
1.90386E-07 2.73313E-13
2.09900E-07 2.65662E-13
2.30367E-07 2.58128E-13
2.51785E-07 2.50553E-13
2.74156E-07 2.43197E-13
2.97478E-07 2.35786E-13
3.21752E-07 2.28639E-13
3.46978E-07 2.21500E-13
3.73156E-07 2.14604E-13
4.00286E-07 2.07794E-13
4.28368E-07 2.01189E-13
4.57402E-07 1.94736E-13
4.87388E-07 1.88446E-13
5.18325E-07 1.82361E-13
5.50215E-07 1.76402E-13
5.83057E-07 1.70688E-13
6.16850E-07 1.65063E-13
6.51596E-07 1.59711E-13
6.87293E-07 1.54423E-13
7.23942E-07 1.49392E-13
7.61543E-07 1.44462E-13
1.18991E-06 1.03832E-13
1.71347E-06 7.54107E-14
2.33223E-06 5.55886E-14
3.04617E-06 4.11180E-14
3.85531E-06 3.14746E-14
4.75964E-06 2.42503E-14
5.75916E-06 1.91491E-14
6.85388E-06 1.51662E-14
8.04378E-06 1.22880E-14
9.32888E-06 9.98810E-15
1.07092E-05 8.26000E-15
1.21846E-05 6.86828E-15
1.37553E-05 5.77726E-15
1.54212E-05 4.88932E-15
1.71822E-05 4.16853E-15
1.90385E-05 3.57428E-15
2.09899E-05 3.08222E-15
2.30365E-05 2.67439E-15
2.51783E-05 2.32490E-15
2.74153E-05 2.03378E-15
2.97475E-05 1.78033E-15
3.21749E-05 1.56784E-15
3.46974E-05 1.38268E-15
3.73152E-05 1.22533E-15
4.00281E-05 1.08831E-15
4.28362E-05 9.70166E-16
4.57395E-05 8.67113E-16
4.87380E-05 7.77185E-16
5.18317E-05 6.98580E-16
5.50205E-05 6.29372E-16
5.83045E-05 5.68751E-16
6.16838E-05 5.15145E-16
6.51582E-05 4.68051E-16
6.87277E-05 4.25739E-16
7.23925E-05 3.88348E-16
7.61524E-05 3.54946E-16
9.21439E-05 2.53142E-16
1.09658E-04 1.85918E-16
1.28695E-04 1.39778E-16
1.49255E-04 1.07153E-16
1.71338E-04 8.35665E-17
1.94942E-04 6.61563E-17
2.20070E-04 5.30544E-17
2.46720E-04 4.30312E-17
2.74892E-04 3.52337E-17
3.04586E-04 2.91499E-17
3.35803E-04 2.43151E-17
3.68542E-04 2.04519E-17
4.02802E-04 1.73124E-17
4.38585E-04 1.47639E-17
4.75889E-04 1.26554E-17
5.14715E-04 1.09180E-17
5.55063E-04 9.46180E-18
5.96931E-04 8.24387E-18
6.40321E-04 7.21293E-18
6.85233E-04 6.33905E-18
7.31665E-04 5.59274E-18
7.79618E-04 4.95279E-18
8.29092E-04 4.40190E-18
8.80086E-04 3.92480E-18
9.32601E-04 3.51112E-18
9.86636E-04 3.14971E-18
1.04219E-03 2.83424E-18
1.09927E-03 2.55654E-18
1.15786E-03 2.31247E-18
1.21797E-03 2.09647E-18
1.27961E-03 1.90529E-18
1.34276E-03 1.73526E-18
1.40743E-03 1.58383E-18
1.47362E-03 1.44852E-18
1.54133E-03 1.32731E-18
1.61056E-03 1.21856E-18
1.68131E-03 1.12063E-18
1.75357E-03 1.03242E-18
1.82735E-03 9.52600E-19
1.90265E-03 8.80428E-19
1.97947E-03 8.14860E-19
2.05780E-03 7.55332E-19
2.13765E-03 7.01084E-19
2.21902E-03 6.51635E-19
2.30190E-03 6.06441E-19
2.38630E-03 5.65089E-19
2.47222E-03 5.27193E-19
2.55965E-03 4.92399E-19
2.64859E-03 4.60433E-19
2.73905E-03 4.30988E-19
2.83103E-03 4.03872E-19
2.92452E-03 3.78821E-19
3.01952E-03 3.55694E-19
3.11604E-03 3.34279E-19
3.21407E-03 3.14456E-19
3.31362E-03 2.96064E-19
3.41468E-03 2.78996E-19
3.51725E-03 2.63131E-19
3.62133E-03 2.48371E-19
3.72692E-03 2.34628E-19
3.83403E-03 2.21813E-19
3.94265E-03 2.09861E-19
4.05278E-03 1.98692E-19
4.16442E-03 1.88259E-19
4.27757E-03 1.78490E-19
4.39223E-03 1.69349E-19
4.50840E-03 1.60777E-19
4.62608E-03 1.52740E-19
4.74527E-03 1.45194E-19
4.86597E-03 1.38107E-19
4.98817E-03 1.31444E-19
5.11188E-03 1.25175E-19
5.23711E-03 1.19273E-19
5.36383E-03 1.13712E-19
5.49207E-03 1.08471E-19
5.62181E-03 1.03525E-19
5.75306E-03 9.88570E-20
5.88581E-03 9.44456E-20
6.02007E-03 9.02777E-20
6.15583E-03 8.63345E-20
6.29310E-03 8.26038E-20
6.43187E-03 7.90705E-20
6.57214E-03 7.57232E-20
6.71392E-03 7.25499E-20
6.85720E-03 6.95399E-20
7.00198E-03 6.66838E-20
7.14827E-03 6.39713E-20
7.29605E-03 6.13951E-20
7.44534E-03 5.89457E-20
7.59612E-03 5.66172E-20
7.97965E-03 5.12754E-20
8.37255E-03 4.65455E-20
8.77480E-03 4.23455E-20
9.18641E-03 3.86055E-20
9.60736E-03 3.52671E-20
1.00376E-02 3.22796E-20
1.04773E-02 2.95998E-20
1.09262E-02 2.71907E-20
1.13844E-02 2.50202E-20
1.18520E-02 2.30605E-20
1.23288E-02 2.12878E-20
1.28150E-02 1.96811E-20
1.33104E-02 1.82221E-20
1.38150E-02 1.68949E-20
1.43290E-02 1.56854E-20
1.48521E-02 1.45816E-20
1.53845E-02 1.35724E-20
1.59262E-02 1.26484E-20
1.64770E-02 1.18011E-20
1.70371E-02 1.10231E-20
1.76063E-02 1.03076E-20
1.81848E-02 9.64881E-21
1.87724E-02 9.04139E-21
1.93692E-02 8.48061E-21
1.99751E-02 7.96229E-21
2.05901E-02 7.48265E-21
2.12143E-02 7.03826E-21
2.18476E-02 6.62609E-21
2.24900E-02 6.24340E-21
2.31415E-02 5.88767E-21
2.38021E-02 5.55670E-21
2.44717E-02 5.24846E-21
2.51504E-02 4.96108E-21
2.58382E-02 4.69292E-21
2.65349E-02 4.44244E-21
2.72407E-02 4.20833E-21
2.79555E-02 3.98924E-21
2.86793E-02 3.78412E-21
2.94120E-02 3.59185E-21
3.01537E-02 3.41153E-21
3.09043E-02 3.24225E-21
3.16639E-02 3.08325E-21
3.24324E-02 2.93376E-21
3.32098E-02 2.79312E-21
3.39961E-02 2.66072E-21
3.47912E-02 2.53599E-21
3.55952E-02 2.41840E-21
3.64081E-02 2.30746E-21
3.72297E-02 2.20274E-21
3.80602E-02 2.10382E-21
3.88995E-02 2.01034E-21
3.97476E-02 1.92192E-21
4.06044E-02 1.83826E-21
4.14700E-02 1.75903E-21
4.23443E-02 1.68399E-21
4.32273E-02 1.61284E-21
4.41190E-02 1.54538E-21
4.50194E-02 1.48135E-21
4.59284E-02 1.42057E-21
4.68461E-02 1.36283E-21
4.87074E-02 1.25579E-21
5.06030E-02 1.15891E-21
5.25328E-02 1.07109E-21
5.44967E-02 9.91316E-22
5.64946E-02 9.18735E-22
5.85262E-02 8.52588E-22
6.05914E-02 7.92206E-22
6.26901E-02 7.37002E-22
6.48222E-02 6.86455E-22
6.69873E-02 6.40106E-22
6.91854E-02 5.97546E-22
7.14163E-02 5.58413E-22
7.36799E-02 5.22383E-22
7.59760E-02 4.89167E-22
7.83043E-02 4.58509E-22
8.06647E-02 4.30178E-22
8.30571E-02 4.03966E-22
8.54812E-02 3.79687E-22
8.79369E-02 3.57175E-22
9.04240E-02 3.36279E-22
9.29422E-02 3.16863E-22
9.54915E-02 2.98804E-22
9.80716E-02 2.81990E-22
1.00682E-01 2.66322E-22
1.03323E-01 2.51707E-22
1.05995E-01 2.38062E-22
1.08696E-01 2.25313E-22
1.11427E-01 2.13389E-22
1.14188E-01 2.02229E-22
1.16978E-01 1.91775E-22
1.19797E-01 1.81974E-22
1.22645E-01 1.72779E-22
1.25522E-01 1.64145E-22
1.28428E-01 1.56033E-22
1.31361E-01 1.48406E-22
1.34323E-01 1.41229E-22
1.37313E-01 1.34472E-22
1.40330E-01 1.28105E-22
1.43375E-01 1.22102E-22
1.46447E-01 1.16439E-22
1.49545E-01 1.11093E-22
1.52671E-01 1.06043E-22
1.55823E-01 1.01271E-22
1.59001E-01 9.67570E-23
1.62205E-01 9.24860E-23
1.65435E-01 8.84425E-23
1.68690E-01 8.46121E-23
1.71970E-01 8.09817E-23
1.75276E-01 7.75389E-23
1.78606E-01 7.42726E-23
1.81961E-01 7.11719E-23
1.85340E-01 6.82272E-23
1.88743E-01 6.54290E-23
1.92169E-01 6.27691E-23
1.95619E-01 6.02392E-23
1.99092E-01 5.78319E-23
2.02589E-01 5.55403E-23
2.06107E-01 5.33579E-23
2.09649E-01 5.12785E-23
2.13212E-01 4.92964E-23
2.16797E-01 4.74063E-23
2.20404E-01 4.56032E-23
2.24032E-01 4.38824E-23
2.27680E-01 4.22394E-23
2.31350E-01 4.06702E-23
2.35040E-01 3.91709E-23
2.38751E-01 3.77378E-23
2.42481E-01 3.63675E-23
2.46231E-01 3.50568E-23
2.50000E-01 3.38026E-23
2.53788E-01 3.26020E-23
2.57595E-01 3.14524E-23
2.61421E-01 3.03513E-23
2.65264E-01 2.92962E-23
2.69126E-01 2.82849E-23
2.73005E-01 2.73152E-23
2.76901E-01 2.63852E-23
2.80814E-01 2.54929E-23
2.84744E-01 2.46366E-23
2.88691E-01 2.38145E-23
2.92653E-01 2.30251E-23
2.96632E-01 2.22668E-23
3.00625E-01 2.15382E-23
3.04634E-01 2.08380E-23
3.08658E-01 2.01648E-23
3.12697E-01 1.95173E-23
3.16749E-01 1.88945E-23
3.20816E-01 1.82953E-23
3.24896E-01 1.77187E-23
3.28990E-01 1.71635E-23
3.33097E-01 1.66289E-23
3.37216E-01 1.61140E-23
3.41348E-01 1.56179E-23
3.45492E-01 1.51399E-23
3.49647E-01 1.46792E-23
3.53814E-01 1.42349E-23
3.57992E-01 1.38065E-23
3.62181E-01 1.33933E-23
3.66381E-01 1.29947E-23
3.70590E-01 1.26100E-23
3.74810E-01 1.22387E-23
3.79039E-01 1.18802E-23
3.83277E-01 1.15340E-23
3.87524E-01 1.11997E-23
3.91780E-01 1.08767E-23
3.96044E-01 1.05646E-23
4.00316E-01 1.02630E-23
4.04596E-01 9.97142E-24
4.08882E-01 9.68953E-24
4.13176E-01 9.41693E-24
4.17476E-01 9.15327E-24
4.21783E-01 8.89820E-24
4.26095E-01 8.65140E-24
4.30413E-01 8.41256E-24
4.34737E-01 8.18136E-24
4.39065E-01 7.95754E-24
4.43398E-01 7.74081E-24
4.47736E-01 7.53092E-24
4.52077E-01 7.32760E-24
4.56422E-01 7.13063E-24
4.60770E-01 6.93977E-24
4.65122E-01 6.75479E-24
4.69476E-01 6.57549E-24
4.73832E-01 6.40167E-24
4.78190E-01 6.23313E-24
4.82550E-01 6.06968E-24
4.86912E-01 5.91114E-24
4.91274E-01 5.75735E-24
4.95637E-01 5.60813E-24
5.00000E-01 5.46333E-24
5.04363E-01 5.32280E-24
5.08726E-01 5.18639E-24
5.13088E-01 5.05396E-24
5.17450E-01 4.92537E-24
5.21810E-01 4.80050E-24
5.26168E-01 4.67921E-24
5.30524E-01 4.56140E-24
5.34878E-01 4.44695E-24
5.39230E-01 4.33574E-24
5.43578E-01 4.22767E-24
5.47923E-01 4.12263E-24
5.52264E-01 4.02053E-24
5.56602E-01 3.92127E-24
5.60935E-01 3.82476E-24
5.65263E-01 3.73091E-24
5.69587E-01 3.63964E-24
5.73905E-01 3.55086E-24
5.78217E-01 3.46450E-24
5.82524E-01 3.38048E-24
5.86824E-01 3.29873E-24
5.91118E-01 3.21917E-24
5.95404E-01 3.14174E-24
5.99684E-01 3.06637E-24
6.03956E-01 2.99300E-24
6.08220E-01 2.92157E-24
6.12476E-01 2.85202E-24
6.16723E-01 2.78429E-24
6.20961E-01 2.71833E-24
6.25190E-01 2.65409E-24
6.29410E-01 2.59150E-24
6.33619E-01 2.53053E-24
6.37819E-01 2.47113E-24
6.42008E-01 2.41325E-24
6.46186E-01 2.35684E-24
6.50353E-01 2.30186E-24
6.54508E-01 2.24827E-24
6.58652E-01 2.19604E-24
6.62784E-01 2.14511E-24
6.66903E-01 2.09546E-24
6.71010E-01 2.04705E-24
6.75104E-01 1.99984E-24
6.79184E-01 1.95380E-24
6.83251E-01 1.90889E-24
6.87303E-01 1.86509E-24
6.91342E-01 1.82236E-24
6.95366E-01 1.78068E-24
6.99375E-01 1.74001E-24
7.03368E-01 1.70032E-24
7.07347E-01 1.66160E-24
7.11309E-01 1.62381E-24
7.15256E-01 1.58692E-24
7.19186E-01 1.55092E-24
7.23099E-01 1.51578E-24
7.26995E-01 1.48148E-24
7.30874E-01 1.44799E-24
7.34736E-01 1.41529E-24
7.38579E-01 1.38337E-24
7.42405E-01 1.35219E-24
7.46212E-01 1.32175E-24
7.50000E-01 1.29202E-24
7.53769E-01 1.26298E-24
7.57519E-01 1.23462E-24
7.61249E-01 1.20692E-24
7.64960E-01 1.17986E-24
7.68650E-01 1.15343E-24
7.72320E-01 1.12761E-24
7.75968E-01 1.10238E-24
7.79596E-01 1.07773E-24
7.83203E-01 1.05364E-24
7.86788E-01 1.03010E-24
7.90351E-01 1.00711E-24
7.93893E-01 9.84632E-25
7.97411E-01 9.62668E-25
8.00908E-01 9.41203E-25
8.04381E-01 9.20223E-25
8.07831E-01 8.99718E-25
8.11257E-01 8.79676E-25
8.14660E-01 8.60086E-25
8.18039E-01 8.40937E-25
8.21394E-01 8.22218E-25
8.24724E-01 8.03920E-25
8.28030E-01 7.86032E-25
8.31310E-01 7.68545E-25
8.34565E-01 7.51449E-25
8.37795E-01 7.34736E-25
8.40999E-01 7.18396E-25
8.44177E-01 7.02422E-25
8.47329E-01 6.86804E-25
8.50455E-01 6.71534E-25
8.53553E-01 6.56605E-25
8.56625E-01 6.42010E-25
8.59670E-01 6.27739E-25
8.62687E-01 6.13788E-25
8.65677E-01 6.00147E-25
8.68639E-01 5.86811E-25
8.71572E-01 5.73773E-25
8.74478E-01 5.61027E-25
8.77355E-01 5.48565E-25
8.80203E-01 5.36382E-25
8.83022E-01 5.24473E-25
8.85812E-01 5.12830E-25
8.88573E-01 5.01449E-25
8.91304E-01 4.90325E-25
8.94005E-01 4.79451E-25
8.96677E-01 4.68823E-25
8.99318E-01 4.58435E-25
9.01928E-01 4.48284E-25
9.04508E-01 4.38363E-25
9.07058E-01 4.28668E-25
9.09576E-01 4.19196E-25
9.12063E-01 4.09941E-25
9.14519E-01 4.00899E-25
9.16943E-01 3.92066E-25
9.19335E-01 3.83438E-25
9.21696E-01 3.75012E-25
9.24024E-01 3.66783E-25
9.26320E-01 3.58747E-25
9.28584E-01 3.50901E-25
9.30815E-01 3.43243E-25
9.33013E-01 3.35767E-25
9.35178E-01 3.28471E-25
9.37310E-01 3.21351E-25
9.39409E-01 3.14406E-25
9.41474E-01 3.07630E-25
9.43505E-01 3.01023E-25
9.45503E-01 2.94580E-25
9.47467E-01 2.88298E-25
9.49397E-01 2.82176E-25
9.51293E-01 2.76211E-25
9.53154E-01 2.70400E-25
9.54981E-01 2.64740E-25
9.56773E-01 2.59229E-25
9.58530E-01 2.53865E-25
9.60252E-01 2.48646E-25
9.61940E-01 2.43569E-25
9.63592E-01 2.38632E-25
9.65209E-01 2.33833E-25
9.66790E-01 2.29171E-25
9.68336E-01 2.24643E-25
9.69846E-01 2.20247E-25
9.71321E-01 2.15982E-25
9.72759E-01 2.11846E-25
9.74162E-01 2.07836E-25
9.75528E-01 2.03953E-25
9.76858E-01 2.00193E-25
9.78152E-01 1.96555E-25
9.79410E-01 1.93039E-25
9.80631E-01 1.89642E-25
9.81815E-01 1.86363E-25
9.82963E-01 1.83200E-25
9.84074E-01 1.80153E-25
9.85148E-01 1.77221E-25
9.86185E-01 1.74402E-25
9.87185E-01 1.71694E-25
9.88148E-01 1.69098E-25
9.89074E-01 1.66611E-25
9.89962E-01 1.64233E-25
9.90814E-01 1.61963E-25
9.91627E-01 1.59801E-25
9.92404E-01 1.57744E-25
9.93143E-01 1.55793E-25
9.93844E-01 1.53946E-25
9.94508E-01 1.52204E-25
9.95134E-01 1.50564E-25
9.95722E-01 1.49027E-25
9.96273E-01 1.47592E-25
9.96786E-01 1.46258E-25
9.97261E-01 1.45026E-25
9.97698E-01 1.43893E-25
9.98097E-01 1.42861E-25
9.98459E-01 1.41928E-25
9.98782E-01 1.41094E-25
9.99067E-01 1.40359E-25
9.99315E-01 1.39723E-25
9.99524E-01 1.39185E-25
9.99695E-01 1.38745E-25
9.99829E-01 1.38403E-25
9.99924E-01 1.38159E-25
9.99981E-01 1.38012E-25
1.00000E+00 1.37963E-25
