 #
 # Subroutine ELSEPA. Elastic scattering of electrons and positrons
 #                    by neutral atoms and positive ions
 #
 # Projectile: positron
 # Kinetic energy = 1.25000E+07 eV = 4.59367E+05 a.u.
 #
 # WARNING: High-energy factorization with free-atom DF screening.
 #          Absorption, polarization and exchange corrections are
 #          switched off.
 #          Phase shifts are calculated for the bare nucleus.
 #          Scattering amplitudes are not evaluated.
 #
 # Element: Pt,  Z =  78,  atomic weight = 1.95078E+02 g/mol
 #
 # Nuclear model: Fermi distribution
 #                Average radius = 6.20564E-13 cm
 #                Skin thickness = 5.46000E-14 cm
 #
 # Number of electrons = 78
 #
 # Total elastic cross section = 7.63682E-18 cm**2 = 2.72716E-01 a0**2
 # 1st transport cross section = 5.08221E-23 cm**2 = 1.81489E-06 a0**2
 # 2nd transport cross section = 1.47246E-22 cm**2 = 5.25824E-06 a0**2
 #
 #
 # Differential cross section:                       MU=(1-COS(THETA))/2
 #
 #  THETA        MU          DCS          DCS        Sherman      error
 #  (deg)                 (cm**2/sr)   (a0**2/sr)    function
 #----------------------------------------------------------------------
0.00000E+00 7.02107E-12
7.61557E-13 7.02085E-12
1.18994E-12 7.02074E-12
1.71346E-12 7.02060E-12
2.33225E-12 7.02043E-12
3.04617E-12 7.02024E-12
3.85530E-12 7.02003E-12
4.75964E-12 7.01979E-12
5.75917E-12 7.01953E-12
6.85391E-12 7.01924E-12
8.04379E-12 7.01893E-12
9.32893E-12 7.01859E-12
1.07092E-11 7.01823E-12
1.21847E-11 7.01785E-12
1.37554E-11 7.01743E-12
1.54213E-11 7.01700E-12
1.71823E-11 7.01654E-12
1.90386E-11 7.01606E-12
2.09900E-11 7.01555E-12
2.30367E-11 7.01502E-12
2.51785E-11 7.01446E-12
2.74156E-11 7.01388E-12
2.97478E-11 7.01327E-12
3.21752E-11 7.01264E-12
3.46979E-11 7.01198E-12
3.73157E-11 7.01130E-12
4.00286E-11 7.01060E-12
4.28368E-11 7.00987E-12
4.57402E-11 7.00912E-12
4.87388E-11 7.00834E-12
5.18325E-11 7.00754E-12
5.50215E-11 7.00671E-12
5.83057E-11 7.00586E-12
6.16850E-11 7.00498E-12
6.51595E-11 7.00408E-12
6.87293E-11 7.00316E-12
7.23943E-11 7.00221E-12
7.61544E-11 7.00124E-12
1.18991E-10 6.99019E-12
1.71347E-10 6.97673E-12
2.33223E-10 6.96089E-12
3.04617E-10 6.94271E-12
3.85531E-10 6.92222E-12
4.75965E-10 6.89945E-12
5.75917E-10 6.87445E-12
6.85389E-10 6.84726E-12
8.04380E-10 6.81794E-12
9.32891E-10 6.78654E-12
1.07092E-09 6.75310E-12
1.21847E-09 6.71771E-12
1.37554E-09 6.68034E-12
1.54213E-09 6.64073E-12
1.71823E-09 6.59963E-12
1.90386E-09 6.55715E-12
2.09900E-09 6.51337E-12
2.30367E-09 6.46700E-12
2.51785E-09 6.41935E-12
2.74156E-09 6.37070E-12
2.97478E-09 6.32116E-12
3.21752E-09 6.26944E-12
3.46978E-09 6.21637E-12
3.73156E-09 6.16269E-12
4.00286E-09 6.10850E-12
4.28368E-09 6.05279E-12
4.57402E-09 5.99544E-12
4.87388E-09 5.93786E-12
5.18326E-09 5.88013E-12
5.50215E-09 5.82171E-12
5.83057E-09 5.76121E-12
6.16850E-09 5.70083E-12
6.51596E-09 5.64064E-12
6.87293E-09 5.58066E-12
7.23942E-09 5.51809E-12
7.61544E-09 5.45593E-12
1.18991E-08 4.83421E-12
1.71347E-08 4.23168E-12
2.33223E-08 3.67683E-12
3.04617E-08 3.18339E-12
3.85531E-08 2.75053E-12
4.75965E-08 2.37749E-12
5.75917E-08 2.05797E-12
6.85389E-08 1.78416E-12
8.04380E-08 1.55097E-12
9.32891E-08 1.35179E-12
1.07092E-07 1.18144E-12
1.21847E-07 1.03585E-12
1.37554E-07 9.09439E-13
1.54213E-07 7.94655E-13
1.71823E-07 7.01210E-13
1.90386E-07 6.24383E-13
2.09900E-07 5.60632E-13
2.30367E-07 4.98010E-13
2.51785E-07 4.44704E-13
2.74156E-07 3.99835E-13
2.97478E-07 3.61792E-13
3.21752E-07 3.26321E-13
3.46978E-07 2.94691E-13
3.73156E-07 2.67537E-13
4.00286E-07 2.44092E-13
4.28368E-07 2.22788E-13
4.57402E-07 2.03202E-13
4.87388E-07 1.86112E-13
5.18325E-07 1.71129E-13
5.50215E-07 1.57679E-13
5.83057E-07 1.45019E-13
6.16850E-07 1.33823E-13
6.51596E-07 1.23884E-13
6.87293E-07 1.15022E-13
7.23942E-07 1.06503E-13
7.61543E-07 9.88857E-14
1.18991E-06 5.07066E-14
1.71347E-06 2.83218E-14
2.33223E-06 1.68641E-14
3.04617E-06 1.06166E-14
3.85531E-06 7.01014E-15
4.75964E-06 4.82682E-15
5.75916E-06 3.44437E-15
6.85388E-06 2.52680E-15
8.04378E-06 1.89705E-15
9.32888E-06 1.45285E-15
1.07092E-05 1.13180E-15
1.21846E-05 8.94733E-16
1.37553E-05 7.16251E-16
1.54212E-05 5.79906E-16
1.71822E-05 4.74893E-16
1.90385E-05 3.92342E-16
2.09899E-05 3.27235E-16
2.30365E-05 2.75225E-16
2.51783E-05 2.32875E-16
2.74153E-05 1.98408E-16
2.97475E-05 1.70028E-16
3.21749E-05 1.46523E-16
3.46974E-05 1.26998E-16
3.73152E-05 1.10571E-16
4.00281E-05 9.67599E-17
4.28362E-05 8.50300E-17
4.57395E-05 7.50231E-17
4.87380E-05 6.64514E-17
5.18317E-05 5.90494E-17
5.50205E-05 5.26573E-17
5.83045E-05 4.70999E-17
6.16838E-05 4.22590E-17
6.51582E-05 3.80283E-17
6.87277E-05 3.43114E-17
7.23925E-05 3.10428E-17
7.61524E-05 2.81520E-17
9.21439E-05 1.94729E-17
1.09658E-04 1.38939E-17
1.28695E-04 1.01781E-17
1.49255E-04 7.62390E-18
1.71338E-04 5.82195E-18
1.94942E-04 4.52139E-18
2.20070E-04 3.56370E-18
2.46720E-04 2.84614E-18
2.74892E-04 2.30006E-18
3.04586E-04 1.87856E-18
3.35803E-04 1.54916E-18
3.68542E-04 1.28875E-18
4.02802E-04 1.08072E-18
4.38585E-04 9.12962E-19
4.75889E-04 7.76467E-19
5.14715E-04 6.64516E-19
5.55063E-04 5.72004E-19
5.96931E-04 4.95019E-19
6.40321E-04 4.30543E-19
6.85233E-04 3.76215E-19
7.31665E-04 3.30180E-19
7.79618E-04 2.90964E-19
8.29092E-04 2.57392E-19
8.80086E-04 2.28517E-19
9.32601E-04 2.03574E-19
9.86636E-04 1.81936E-19
1.04219E-03 1.63093E-19
1.09927E-03 1.46622E-19
1.15786E-03 1.32175E-19
1.21797E-03 1.19461E-19
1.27961E-03 1.08235E-19
1.34276E-03 9.82946E-20
1.40743E-03 8.94666E-20
1.47362E-03 8.16053E-20
1.54133E-03 7.45866E-20
1.61056E-03 6.83044E-20
1.68131E-03 6.26680E-20
1.75357E-03 5.75995E-20
1.82735E-03 5.30316E-20
1.90265E-03 4.89063E-20
1.97947E-03 4.51732E-20
2.05780E-03 4.17884E-20
2.13765E-03 3.87136E-20
2.21902E-03 3.59156E-20
2.30190E-03 3.33649E-20
2.38630E-03 3.10359E-20
2.47222E-03 2.89059E-20
2.55965E-03 2.69548E-20
2.64859E-03 2.51649E-20
2.73905E-03 2.35206E-20
2.83103E-03 2.20078E-20
2.92452E-03 2.06143E-20
3.01952E-03 1.93288E-20
3.11604E-03 1.81416E-20
3.21407E-03 1.70438E-20
3.31362E-03 1.60274E-20
3.41468E-03 1.50853E-20
3.51725E-03 1.42111E-20
3.62133E-03 1.33990E-20
3.72692E-03 1.26439E-20
3.83403E-03 1.19410E-20
3.94265E-03 1.12860E-20
4.05278E-03 1.06751E-20
4.16442E-03 1.01047E-20
4.27757E-03 9.57179E-21
4.39223E-03 9.07336E-21
4.50840E-03 8.60678E-21
4.62608E-03 8.16966E-21
4.74527E-03 7.75979E-21
4.86597E-03 7.37518E-21
4.98817E-03 7.01397E-21
5.11188E-03 6.67449E-21
5.23711E-03 6.35519E-21
5.36383E-03 6.05465E-21
5.49207E-03 5.77157E-21
5.62181E-03 5.50475E-21
5.75306E-03 5.25308E-21
5.88581E-03 5.01555E-21
6.02007E-03 4.79122E-21
6.15583E-03 4.57922E-21
6.29310E-03 4.37874E-21
6.43187E-03 4.18905E-21
6.57214E-03 4.00946E-21
6.71392E-03 3.83933E-21
6.85720E-03 3.67808E-21
7.00198E-03 3.52515E-21
7.14827E-03 3.38004E-21
7.29605E-03 3.24227E-21
7.44534E-03 3.11140E-21
7.59612E-03 2.98703E-21
7.97965E-03 2.70207E-21
8.37255E-03 2.45009E-21
8.77480E-03 2.22663E-21
9.18641E-03 2.02790E-21
9.60736E-03 1.85072E-21
1.00376E-02 1.69235E-21
1.04773E-02 1.55044E-21
1.09262E-02 1.42300E-21
1.13844E-02 1.30830E-21
1.18520E-02 1.20483E-21
1.23288E-02 1.11133E-21
1.28150E-02 1.02665E-21
1.33104E-02 9.49825E-22
1.38150E-02 8.79997E-22
1.43290E-02 8.16420E-22
1.48521E-02 7.58435E-22
1.53845E-02 7.05466E-22
1.59262E-02 6.57003E-22
1.64770E-02 6.12595E-22
1.70371E-02 5.71846E-22
1.76063E-02 5.34398E-22
1.81848E-02 4.99940E-22
1.87724E-02 4.68190E-22
1.93692E-02 4.38897E-22
1.99751E-02 4.11839E-22
2.05901E-02 3.86814E-22
2.12143E-02 3.63644E-22
2.18476E-02 3.42166E-22
2.24900E-02 3.22235E-22
2.31415E-02 3.03719E-22
2.38021E-02 2.86502E-22
2.44717E-02 2.70474E-22
2.51504E-02 2.55541E-22
2.58382E-02 2.41613E-22
2.65349E-02 2.28611E-22
2.72407E-02 2.16462E-22
2.79555E-02 2.05101E-22
2.86793E-02 1.94468E-22
2.94120E-02 1.84507E-22
3.01537E-02 1.75168E-22
3.09043E-02 1.66406E-22
3.16639E-02 1.58179E-22
3.24324E-02 1.50448E-22
3.32098E-02 1.43178E-22
3.39961E-02 1.36337E-22
3.47912E-02 1.29894E-22
3.55952E-02 1.23823E-22
3.64081E-02 1.18098E-22
3.72297E-02 1.12696E-22
3.80602E-02 1.07595E-22
3.88995E-02 1.02776E-22
3.97476E-02 9.82200E-23
4.06044E-02 9.39106E-23
4.14700E-02 8.98319E-23
4.23443E-02 8.59692E-23
4.32273E-02 8.23090E-23
4.41190E-02 7.88389E-23
4.50194E-02 7.55472E-23
4.59284E-02 7.24232E-23
4.68461E-02 6.94567E-23
4.87074E-02 6.39595E-23
5.06030E-02 5.89880E-23
5.25328E-02 5.44836E-23
5.44967E-02 5.03948E-23
5.64946E-02 4.66770E-23
5.85262E-02 4.32906E-23
6.05914E-02 4.02012E-23
6.26901E-02 3.73783E-23
6.48222E-02 3.47949E-23
6.69873E-02 3.24274E-23
6.91854E-02 3.02545E-23
7.14163E-02 2.82576E-23
7.36799E-02 2.64200E-23
7.59760E-02 2.47267E-23
7.83043E-02 2.31646E-23
8.06647E-02 2.17217E-23
8.30571E-02 2.03874E-23
8.54812E-02 1.91521E-23
8.79369E-02 1.80071E-23
9.04240E-02 1.69449E-23
9.29422E-02 1.59582E-23
9.54915E-02 1.50410E-23
9.80716E-02 1.41874E-23
1.00682E-01 1.33922E-23
1.03323E-01 1.26508E-23
1.05995E-01 1.19590E-23
1.08696E-01 1.13127E-23
1.11427E-01 1.07086E-23
1.14188E-01 1.01434E-23
1.16978E-01 9.61414E-24
1.19797E-01 9.11817E-24
1.22645E-01 8.65303E-24
1.25522E-01 8.21648E-24
1.28428E-01 7.80645E-24
1.31361E-01 7.42107E-24
1.34323E-01 7.05858E-24
1.37313E-01 6.71742E-24
1.40330E-01 6.39609E-24
1.43375E-01 6.09326E-24
1.46447E-01 5.80768E-24
1.49545E-01 5.53820E-24
1.52671E-01 5.28376E-24
1.55823E-01 5.04339E-24
1.59001E-01 4.81612E-24
1.62205E-01 4.60105E-24
1.65435E-01 4.39751E-24
1.68690E-01 4.20478E-24
1.71970E-01 4.02217E-24
1.75276E-01 3.84906E-24
1.78606E-01 3.68488E-24
1.81961E-01 3.52909E-24
1.85340E-01 3.38119E-24
1.88743E-01 3.24070E-24
1.92169E-01 3.10719E-24
1.95619E-01 2.98026E-24
1.99092E-01 2.85953E-24
2.02589E-01 2.74464E-24
2.06107E-01 2.63526E-24
2.09649E-01 2.53109E-24
2.13212E-01 2.43182E-24
2.16797E-01 2.33720E-24
2.20404E-01 2.24697E-24
2.24032E-01 2.16088E-24
2.27680E-01 2.07872E-24
2.31350E-01 2.00028E-24
2.35040E-01 1.92536E-24
2.38751E-01 1.85377E-24
2.42481E-01 1.78535E-24
2.46231E-01 1.71992E-24
2.50000E-01 1.65734E-24
2.53788E-01 1.59746E-24
2.57595E-01 1.54014E-24
2.61421E-01 1.48526E-24
2.65264E-01 1.43269E-24
2.69126E-01 1.38233E-24
2.73005E-01 1.33405E-24
2.76901E-01 1.28777E-24
2.80814E-01 1.24338E-24
2.84744E-01 1.20080E-24
2.88691E-01 1.15994E-24
2.92653E-01 1.12071E-24
2.96632E-01 1.08305E-24
3.00625E-01 1.04687E-24
3.04634E-01 1.01212E-24
3.08658E-01 9.78717E-25
3.12697E-01 9.46610E-25
3.16749E-01 9.15738E-25
3.20816E-01 8.86045E-25
3.24896E-01 8.57479E-25
3.28990E-01 8.29990E-25
3.33097E-01 8.03531E-25
3.37216E-01 7.78057E-25
3.41348E-01 7.53524E-25
3.45492E-01 7.29893E-25
3.49647E-01 7.07125E-25
3.53814E-01 6.85182E-25
3.57992E-01 6.64031E-25
3.62181E-01 6.43638E-25
3.66381E-01 6.23971E-25
3.70590E-01 6.05000E-25
3.74810E-01 5.86697E-25
3.79039E-01 5.69034E-25
3.83277E-01 5.51985E-25
3.87524E-01 5.35525E-25
3.91780E-01 5.19631E-25
3.96044E-01 5.04280E-25
4.00316E-01 4.89450E-25
4.04596E-01 4.75121E-25
4.08882E-01 4.61273E-25
4.13176E-01 4.47887E-25
4.17476E-01 4.34946E-25
4.21783E-01 4.22432E-25
4.26095E-01 4.10329E-25
4.30413E-01 3.98621E-25
4.34737E-01 3.87294E-25
4.39065E-01 3.76332E-25
4.43398E-01 3.65723E-25
4.47736E-01 3.55452E-25
4.52077E-01 3.45509E-25
4.56422E-01 3.35879E-25
4.60770E-01 3.26553E-25
4.65122E-01 3.17518E-25
4.69476E-01 3.08765E-25
4.73832E-01 3.00283E-25
4.78190E-01 2.92062E-25
4.82550E-01 2.84094E-25
4.86912E-01 2.76369E-25
4.91274E-01 2.68878E-25
4.95637E-01 2.61613E-25
5.00000E-01 2.54567E-25
5.04363E-01 2.47732E-25
5.08726E-01 2.41100E-25
5.13088E-01 2.34665E-25
5.17450E-01 2.28420E-25
5.21810E-01 2.22358E-25
5.26168E-01 2.16473E-25
5.30524E-01 2.10760E-25
5.34878E-01 2.05212E-25
5.39230E-01 1.99823E-25
5.43578E-01 1.94590E-25
5.47923E-01 1.89506E-25
5.52264E-01 1.84566E-25
5.56602E-01 1.79766E-25
5.60935E-01 1.75102E-25
5.65263E-01 1.70568E-25
5.69587E-01 1.66161E-25
5.73905E-01 1.61877E-25
5.78217E-01 1.57711E-25
5.82524E-01 1.53660E-25
5.86824E-01 1.49721E-25
5.91118E-01 1.45889E-25
5.95404E-01 1.42162E-25
5.99684E-01 1.38536E-25
6.03956E-01 1.35008E-25
6.08220E-01 1.31575E-25
6.12476E-01 1.28234E-25
6.16723E-01 1.24982E-25
6.20961E-01 1.21816E-25
6.25190E-01 1.18735E-25
6.29410E-01 1.15735E-25
6.33619E-01 1.12813E-25
6.37819E-01 1.09968E-25
6.42008E-01 1.07198E-25
6.46186E-01 1.04499E-25
6.50353E-01 1.01871E-25
6.54508E-01 9.93100E-26
6.58652E-01 9.68151E-26
6.62784E-01 9.43841E-26
6.66903E-01 9.20152E-26
6.71010E-01 8.97066E-26
6.75104E-01 8.74566E-26
6.79184E-01 8.52634E-26
6.83251E-01 8.31254E-26
6.87303E-01 8.10412E-26
6.91342E-01 7.90090E-26
6.95366E-01 7.70276E-26
6.99375E-01 7.50954E-26
7.03368E-01 7.32111E-26
7.07347E-01 7.13734E-26
7.11309E-01 6.95809E-26
7.15256E-01 6.78325E-26
7.19186E-01 6.61268E-26
7.23099E-01 6.44628E-26
7.26995E-01 6.28393E-26
7.30874E-01 6.12552E-26
7.34736E-01 5.97094E-26
7.38579E-01 5.82009E-26
7.42405E-01 5.67288E-26
7.46212E-01 5.52919E-26
7.50000E-01 5.38895E-26
7.53769E-01 5.25206E-26
7.57519E-01 5.11842E-26
7.61249E-01 4.98797E-26
7.64960E-01 4.86060E-26
7.68650E-01 4.73625E-26
7.72320E-01 4.61483E-26
7.75968E-01 4.49627E-26
7.79596E-01 4.38049E-26
7.83203E-01 4.26743E-26
7.86788E-01 4.15702E-26
7.90351E-01 4.04918E-26
7.93893E-01 3.94385E-26
7.97411E-01 3.84098E-26
8.00908E-01 3.74049E-26
8.04381E-01 3.64233E-26
8.07831E-01 3.54645E-26
8.11257E-01 3.45277E-26
8.14660E-01 3.36127E-26
8.18039E-01 3.27186E-26
8.21394E-01 3.18452E-26
8.24724E-01 3.09918E-26
8.28030E-01 3.01580E-26
8.31310E-01 2.93434E-26
8.34565E-01 2.85474E-26
8.37795E-01 2.77696E-26
8.40999E-01 2.70096E-26
8.44177E-01 2.62670E-26
8.47329E-01 2.55413E-26
8.50455E-01 2.48322E-26
8.53553E-01 2.41393E-26
8.56625E-01 2.34622E-26
8.59670E-01 2.28005E-26
8.62687E-01 2.21540E-26
8.65677E-01 2.15221E-26
8.68639E-01 2.09048E-26
8.71572E-01 2.03015E-26
8.74478E-01 1.97119E-26
8.77355E-01 1.91359E-26
8.80203E-01 1.85731E-26
8.83022E-01 1.80231E-26
8.85812E-01 1.74857E-26
8.88573E-01 1.69607E-26
8.91304E-01 1.64477E-26
8.94005E-01 1.59466E-26
8.96677E-01 1.54570E-26
8.99318E-01 1.49787E-26
9.01928E-01 1.45115E-26
9.04508E-01 1.40552E-26
9.07058E-01 1.36095E-26
9.09576E-01 1.31741E-26
9.12063E-01 1.27490E-26
9.14519E-01 1.23339E-26
9.16943E-01 1.19285E-26
9.19335E-01 1.15327E-26
9.21696E-01 1.11464E-26
9.24024E-01 1.07692E-26
9.26320E-01 1.04011E-26
9.28584E-01 1.00418E-26
9.30815E-01 9.69129E-27
9.33013E-01 9.34926E-27
9.35178E-01 9.01560E-27
9.37310E-01 8.69015E-27
9.39409E-01 8.37276E-27
9.41474E-01 8.06330E-27
9.43505E-01 7.76160E-27
9.45503E-01 7.46754E-27
9.47467E-01 7.18098E-27
9.49397E-01 6.90179E-27
9.51293E-01 6.62984E-27
9.53154E-01 6.36502E-27
9.54981E-01 6.10719E-27
9.56773E-01 5.85625E-27
9.58530E-01 5.61208E-27
9.60252E-01 5.37458E-27
9.61940E-01 5.14364E-27
9.63592E-01 4.91915E-27
9.65209E-01 4.70101E-27
9.66790E-01 4.48914E-27
9.68336E-01 4.28343E-27
9.69846E-01 4.08380E-27
9.71321E-01 3.89016E-27
9.72759E-01 3.70242E-27
9.74162E-01 3.52051E-27
9.75528E-01 3.34434E-27
9.76858E-01 3.17384E-27
9.78152E-01 3.00893E-27
9.79410E-01 2.84954E-27
9.80631E-01 2.69561E-27
9.81815E-01 2.54707E-27
9.82963E-01 2.40386E-27
9.84074E-01 2.26590E-27
9.85148E-01 2.13316E-27
9.86185E-01 2.00556E-27
9.87185E-01 1.88306E-27
9.88148E-01 1.76559E-27
9.89074E-01 1.65313E-27
9.89962E-01 1.54560E-27
9.90814E-01 1.44298E-27
9.91627E-01 1.34522E-27
9.92404E-01 1.25227E-27
9.93143E-01 1.16409E-27
9.93844E-01 1.08066E-27
9.94508E-01 1.00193E-27
9.95134E-01 9.27878E-28
9.95722E-01 8.58463E-28
9.96273E-01 7.93661E-28
9.96786E-01 7.33445E-28
9.97261E-01 6.77788E-28
9.97698E-01 6.26668E-28
9.98097E-01 5.80065E-28
9.98459E-01 5.37957E-28
9.98782E-01 5.00329E-28
9.99067E-01 4.67164E-28
9.99315E-01 4.38449E-28
9.99524E-01 4.14172E-28
9.99695E-01 3.94322E-28
9.99829E-01 3.78892E-28
9.99924E-01 3.67875E-28
9.99981E-01 3.61267E-28
1.00000E+00 3.59065E-28
