 #
 # Subroutine ELSEPA. Elastic scattering of electrons and positrons
 #                    by neutral atoms and positive ions
 #
 # Projectile: electron
 # Kinetic energy = 5.00000E+08 eV = 1.83747E+07 a.u.
 #
 # WARNING: High-energy factorization with free-atom DF screening.
 #          Absorption, polarization and exchange corrections are
 #          switched off.
 #          Phase shifts are calculated for the bare nucleus.
 #          Scattering amplitudes are not evaluated.
 #
 # Element:  U,  Z =  92,  atomic weight = 2.38029E+02 g/mol
 #
 # Nuclear model: Fermi distribution
 #                Average radius = 6.63122E-13 cm
 #                Skin thickness = 5.46000E-14 cm
 #
 # Number of electrons = 92
 #
 # Total elastic cross section = 1.17090E-17 cm**2 = 4.18136E-01 a0**2
 # 1st transport cross section = 6.27186E-26 cm**2 = 2.23972E-09 a0**2
 # 2nd transport cross section = 1.88083E-25 cm**2 = 6.71655E-09 a0**2
 #
 #
 # Differential cross section:                       MU=(1-COS(THETA))/2
 #
 #  THETA        MU          DCS          DCS        Sherman      error
 #  (deg)                 (cm**2/sr)   (a0**2/sr)    function
 #----------------------------------------------------------------------
0.00000E+00 3.31239E-08
7.61557E-13 3.00341E-08
1.18994E-12 2.85057E-08
1.71346E-12 2.68100E-08
2.33225E-12 2.50194E-08
3.04617E-12 2.31986E-08
3.85530E-12 2.14010E-08
4.75964E-12 1.96677E-08
5.75917E-12 1.80278E-08
6.85391E-12 1.65003E-08
8.04379E-12 1.50936E-08
9.32893E-12 1.38086E-08
1.07092E-11 1.26423E-08
1.21847E-11 1.15883E-08
1.37554E-11 1.06385E-08
1.54213E-11 9.78348E-09
1.71823E-11 9.01410E-09
1.90386E-11 8.32122E-09
2.09900E-11 7.69638E-09
2.30367E-11 7.13184E-09
2.51785E-11 6.62051E-09
2.74156E-11 6.15590E-09
2.97478E-11 5.73294E-09
3.21752E-11 5.34695E-09
3.46979E-11 4.99383E-09
3.73157E-11 4.67005E-09
4.00286E-11 4.37249E-09
4.28368E-11 4.09848E-09
4.57402E-11 3.84566E-09
4.87388E-11 3.61199E-09
5.18325E-11 3.39566E-09
5.50215E-11 3.19509E-09
5.83057E-11 3.00855E-09
6.16850E-11 2.83514E-09
6.51595E-11 2.67381E-09
6.87293E-11 2.52357E-09
7.23943E-11 2.38353E-09
7.61544E-11 2.25287E-09
1.18991E-10 1.31607E-09
1.71347E-10 8.29458E-10
2.33223E-10 5.50338E-10
3.04617E-10 3.80734E-10
3.85531E-10 2.72326E-10
4.75965E-10 2.00138E-10
5.75917E-10 1.50503E-10
6.85389E-10 1.15390E-10
8.04380E-10 9.00543E-11
9.32891E-10 7.14196E-11
1.07092E-09 5.74398E-11
1.21847E-09 4.67624E-11
1.37554E-09 3.84750E-11
1.54213E-09 3.19507E-11
1.71823E-09 2.67502E-11
1.90386E-09 2.25602E-11
2.09900E-09 1.91549E-11
2.30367E-09 1.63701E-11
2.51785E-09 1.40499E-11
2.74156E-09 1.21243E-11
2.97478E-09 1.05198E-11
3.21752E-09 9.17458E-12
3.46978E-09 8.03953E-12
3.73156E-09 7.07590E-12
4.00286E-09 6.25306E-12
4.28368E-09 5.54681E-12
4.57402E-09 4.93782E-12
4.87388E-09 4.41056E-12
5.18326E-09 3.95233E-12
5.50215E-09 3.55266E-12
5.83057E-09 3.20260E-12
6.16850E-09 2.89505E-12
6.51596E-09 2.62389E-12
6.87293E-09 2.38397E-12
7.23942E-09 2.17097E-12
7.61544E-09 1.98128E-12
1.18991E-08 8.77010E-13
1.71347E-08 4.47213E-13
2.33223E-08 2.52012E-13
3.04617E-08 1.52674E-13
3.85531E-08 9.77604E-14
4.75965E-08 6.54157E-14
5.75917E-08 4.53843E-14
6.85389E-08 3.24594E-14
8.04380E-08 2.38290E-14
9.32891E-08 1.78899E-14
1.07092E-07 1.36936E-14
1.21847E-07 1.06605E-14
1.37554E-07 8.42367E-15
1.54213E-07 6.74431E-15
1.71823E-07 5.46326E-15
1.90386E-07 4.47238E-15
2.09900E-07 3.69617E-15
2.30367E-07 3.08107E-15
2.51785E-07 2.58861E-15
2.74156E-07 2.19061E-15
2.97478E-07 1.86615E-15
3.21752E-07 1.59950E-15
3.46978E-07 1.37877E-15
3.73156E-07 1.19480E-15
4.00286E-07 1.04048E-15
4.28368E-07 9.10274E-16
4.57402E-07 7.99798E-16
4.87388E-07 7.05577E-16
5.18325E-07 6.24822E-16
5.50215E-07 5.55294E-16
5.83057E-07 4.95173E-16
6.16850E-07 4.42971E-16
6.51596E-07 3.97470E-16
6.87293E-07 3.57665E-16
7.23942E-07 3.22722E-16
7.61543E-07 2.91944E-16
1.18991E-06 1.20580E-16
1.71347E-06 5.84908E-17
2.33223E-06 3.17081E-17
3.04617E-06 1.86476E-17
3.85531E-06 1.16713E-17
4.75964E-06 7.67304E-18
5.75916E-06 5.24937E-18
6.85388E-06 3.71141E-18
8.04378E-06 2.69763E-18
9.32888E-06 2.00752E-18
1.07092E-05 1.52464E-18
1.21846E-05 1.17860E-18
1.37553E-05 9.25393E-19
1.54212E-05 7.36678E-19
1.71822E-05 5.93712E-19
1.90385E-05 4.83461E-19
2.09899E-05 3.98250E-19
2.30365E-05 3.30941E-19
2.51783E-05 2.77172E-19
2.74153E-05 2.33820E-19
2.97475E-05 1.98591E-19
3.21749E-05 1.69754E-19
3.46974E-05 1.45985E-19
3.73152E-05 1.26253E-19
4.00281E-05 1.09761E-19
4.28362E-05 9.58819E-20
4.57395E-05 8.41290E-20
4.87380E-05 7.41195E-20
5.18317E-05 6.55516E-20
5.50205E-05 5.81844E-20
5.83045E-05 5.18232E-20
6.16838E-05 4.63090E-20
6.51582E-05 4.15105E-20
6.87277E-05 3.73192E-20
7.23925E-05 3.36447E-20
7.61524E-05 3.09619E-20
9.21439E-05 2.12397E-20
1.09658E-04 1.50621E-20
1.28695E-04 1.09798E-20
1.49255E-04 8.19345E-21
1.71338E-04 6.23853E-21
1.94942E-04 4.83383E-21
2.20070E-04 3.80298E-21
2.46720E-04 3.03239E-21
2.74892E-04 2.44694E-21
3.04586E-04 1.99551E-21
3.35803E-04 1.64294E-21
3.68542E-04 1.36425E-21
4.02802E-04 1.14163E-21
4.38585E-04 9.62057E-22
4.75889E-04 8.15912E-22
5.14715E-04 6.96023E-22
5.55063E-04 5.96921E-22
5.96931E-04 5.14450E-22
6.40321E-04 4.45380E-22
6.85233E-04 3.87192E-22
7.31665E-04 3.37909E-22
7.79618E-04 2.95952E-22
8.29092E-04 2.60067E-22
8.80086E-04 2.29239E-22
9.32601E-04 2.02647E-22
9.86636E-04 1.79621E-22
1.04219E-03 1.59609E-22
1.09927E-03 1.42161E-22
1.15786E-03 1.26897E-22
1.21797E-03 1.13506E-22
1.27961E-03 1.01723E-22
1.34276E-03 9.13294E-23
1.40743E-03 8.21373E-23
1.47362E-03 7.39886E-23
1.54133E-03 6.67491E-23
1.61056E-03 6.03034E-23
1.68131E-03 5.45531E-23
1.75357E-03 4.94135E-23
1.82735E-03 4.48114E-23
1.90265E-03 4.06836E-23
1.97947E-03 3.69752E-23
2.05780E-03 3.36385E-23
2.13765E-03 3.06319E-23
2.21902E-03 2.79189E-23
2.30190E-03 2.54676E-23
2.38630E-03 2.32501E-23
2.47222E-03 2.12417E-23
2.55965E-03 1.94205E-23
2.64859E-03 1.77674E-23
2.73905E-03 1.62654E-23
2.83103E-03 1.48992E-23
2.92452E-03 1.36555E-23
3.01952E-03 1.25222E-23
3.11604E-03 1.14888E-23
3.21407E-03 1.05456E-23
3.31362E-03 9.68423E-24
3.41468E-03 8.89691E-24
3.51725E-03 8.17682E-24
3.62133E-03 7.51780E-24
3.72692E-03 6.91430E-24
3.83403E-03 6.36132E-24
3.94265E-03 5.85437E-24
4.05278E-03 5.38936E-24
4.16442E-03 4.96261E-24
4.27757E-03 4.57081E-24
4.39223E-03 4.21092E-24
4.50840E-03 3.88022E-24
4.62608E-03 3.57622E-24
4.74527E-03 3.29666E-24
4.86597E-03 3.03950E-24
4.98817E-03 2.80285E-24
5.11188E-03 2.58502E-24
5.23711E-03 2.38446E-24
5.36383E-03 2.19975E-24
5.49207E-03 2.02959E-24
5.62181E-03 1.87281E-24
5.75306E-03 1.72833E-24
5.88581E-03 1.59515E-24
6.02007E-03 1.47237E-24
6.15583E-03 1.35916E-24
6.29310E-03 1.25475E-24
6.43187E-03 1.15846E-24
6.57214E-03 1.06965E-24
6.71392E-03 9.87711E-25
6.85720E-03 9.12119E-25
7.00198E-03 8.42375E-25
7.14827E-03 7.78021E-25
7.29605E-03 7.18639E-25
7.44534E-03 6.63841E-25
7.59612E-03 6.13273E-25
7.97965E-03 5.03268E-25
8.37255E-03 4.13265E-25
8.77480E-03 3.39632E-25
9.18641E-03 2.79398E-25
9.60736E-03 2.30133E-25
1.00376E-02 1.89848E-25
1.04773E-02 1.56910E-25
1.09262E-02 1.29983E-25
1.13844E-02 1.07967E-25
1.18520E-02 8.99631E-26
1.23288E-02 7.52332E-26
1.28150E-02 6.31721E-26
1.33104E-02 5.32845E-26
1.38150E-02 4.51649E-26
1.43290E-02 3.84823E-26
1.48521E-02 3.29665E-26
1.53845E-02 2.83974E-26
1.59262E-02 2.45962E-26
1.64770E-02 2.14178E-26
1.70371E-02 1.87445E-26
1.76063E-02 1.64817E-26
1.81848E-02 1.45528E-26
1.87724E-02 1.28964E-26
1.93692E-02 1.14633E-26
1.99751E-02 1.02140E-26
2.05901E-02 9.11725E-27
2.12143E-02 8.14783E-27
2.18476E-02 7.28582E-27
2.24900E-02 6.51531E-27
2.31415E-02 5.82359E-27
2.38021E-02 5.20048E-27
2.44717E-02 4.63780E-27
2.51504E-02 4.12887E-27
2.58382E-02 3.66822E-27
2.65349E-02 3.25129E-27
2.72407E-02 2.87421E-27
2.79555E-02 2.53363E-27
2.86793E-02 2.22662E-27
2.94120E-02 1.95054E-27
3.01537E-02 1.70299E-27
3.09043E-02 1.48175E-27
3.16639E-02 1.28473E-27
3.24324E-02 1.10998E-27
3.32098E-02 9.55650E-28
3.39961E-02 8.19961E-28
3.47912E-02 7.01239E-28
3.55952E-02 5.97889E-28
3.64081E-02 5.08401E-28
3.72297E-02 4.31348E-28
3.80602E-02 3.65390E-28
3.88995E-02 3.09272E-28
3.97476E-02 2.61829E-28
4.06044E-02 2.21982E-28
4.14700E-02 1.88740E-28
4.23443E-02 1.61198E-28
4.32273E-02 1.38536E-28
4.41190E-02 1.20016E-28
4.50194E-02 1.04977E-28
4.59284E-02 9.28341E-29
4.68461E-02 8.30737E-29
4.87074E-02 6.89687E-29
5.06030E-02 5.97846E-29
5.25328E-02 5.34681E-29
5.44967E-02 4.86329E-29
5.64946E-02 4.44119E-29
5.85262E-02 4.03236E-29
6.05914E-02 3.61586E-29
6.26901E-02 3.18847E-29
6.48222E-02 2.75736E-29
6.69873E-02 2.33449E-29
6.91854E-02 1.93281E-29
7.14163E-02 1.56370E-29
7.36799E-02 1.23564E-29
7.59760E-02 9.53681E-30
7.83043E-02 7.19469E-30
8.06647E-02 5.31718E-30
8.30571E-02 3.86838E-30
8.54812E-02 2.79663E-30
8.79369E-02 2.04145E-30
9.04240E-02 1.53965E-30
9.29422E-02 1.23023E-30
9.54915E-02 1.05793E-30
9.80716E-02 9.75507E-31
1.00682E-01 9.44796E-31
1.03323E-01 9.36884E-31
1.05995E-01 9.31513E-31
1.08696E-01 9.16011E-31
1.11427E-01 8.83942E-31
1.14188E-01 8.33657E-31
1.16978E-01 7.66887E-31
1.19797E-01 6.87469E-31
1.22645E-01 6.00272E-31
1.25522E-01 5.10362E-31
1.28428E-01 4.22385E-31
1.31361E-01 3.40183E-31
1.34323E-01 2.66585E-31
1.37313E-01 2.03365E-31
1.40330E-01 1.51296E-31
1.43375E-01 1.10295E-31
1.46447E-01 7.96090E-32
1.49545E-01 5.80081E-32
1.52671E-01 4.39823E-32
1.55823E-01 3.59115E-32
1.59001E-01 3.22069E-32
1.62205E-01 3.14169E-32
1.65435E-01 3.22971E-32
1.68690E-01 3.38491E-32
1.71970E-01 3.53306E-32
1.75276E-01 3.62439E-32
1.78606E-01 3.63090E-32
1.81961E-01 3.54261E-32
1.85340E-01 3.36347E-32
1.88743E-01 3.10712E-32
1.92169E-01 2.79308E-32
1.95619E-01 2.44336E-32
1.99092E-01 2.07980E-32
2.02589E-01 1.72211E-32
2.06107E-01 1.38650E-32
2.09649E-01 1.08510E-32
2.13212E-01 8.25703E-33
2.16797E-01 6.12053E-33
2.20404E-01 4.44344E-33
2.24032E-01 3.19910E-33
2.27680E-01 2.33999E-33
2.31350E-01 1.80529E-33
2.35040E-01 1.52790E-33
2.38751E-01 1.44038E-33
2.42481E-01 1.47964E-33
2.46231E-01 1.59031E-33
2.50000E-01 1.72676E-33
2.53788E-01 1.85401E-33
2.57595E-01 1.94770E-33
2.61421E-01 1.99325E-33
2.65264E-01 1.98455E-33
2.69126E-01 1.92235E-33
2.73005E-01 1.81248E-33
2.76901E-01 1.66418E-33
2.80814E-01 1.48852E-33
2.84744E-01 1.29709E-33
2.88691E-01 1.10092E-33
2.92653E-01 9.09717E-34
2.96632E-01 7.31384E-34
3.00625E-01 5.71763E-34
3.04634E-01 4.34600E-34
3.08658E-01 3.21676E-34
3.12697E-01 2.33056E-34
3.16749E-01 1.67404E-34
3.20816E-01 1.22343E-34
3.24896E-01 9.48060E-35
3.28990E-01 8.13703E-35
3.33097E-01 7.85409E-35
3.37216E-01 8.29861E-35
3.41348E-01 9.17117E-35
3.45492E-01 1.02178E-34
3.49647E-01 1.12362E-34
3.53814E-01 1.20774E-34
3.57992E-01 1.26434E-34
3.62181E-01 1.28824E-34
3.66381E-01 1.27817E-34
3.70590E-01 1.23598E-34
3.74810E-01 1.16579E-34
3.79039E-01 1.07323E-34
3.83277E-01 9.64683E-35
3.87524E-01 8.46689E-35
3.91780E-01 7.25447E-35
3.96044E-01 6.06451E-35
4.00316E-01 4.94246E-35
4.04596E-01 3.92315E-35
4.08882E-01 3.03037E-35
4.13176E-01 2.27739E-35
4.17476E-01 1.66808E-35
4.21783E-01 1.19834E-35
4.26095E-01 8.57762E-36
4.30413E-01 6.31422E-36
4.34737E-01 5.01504E-36
4.39065E-01 4.48867E-36
4.43398E-01 4.54335E-36
4.47736E-01 4.99764E-36
4.52077E-01 5.68831E-36
4.56422E-01 6.47568E-36
4.60770E-01 7.24647E-36
4.65122E-01 7.91479E-36
4.69476E-01 8.42115E-36
4.73832E-01 8.73034E-36
4.78190E-01 8.82836E-36
4.82550E-01 8.71875E-36
4.86912E-01 8.41861E-36
4.91274E-01 7.95487E-36
4.95637E-01 7.36056E-36
5.00000E-01 6.67172E-36
5.04363E-01 5.92448E-36
5.08726E-01 5.15310E-36
5.13088E-01 4.38813E-36
5.17450E-01 3.65557E-36
5.21810E-01 2.97596E-36
5.26168E-01 2.36448E-36
5.30524E-01 1.83086E-36
5.34878E-01 1.38000E-36
5.39230E-01 1.01239E-36
5.43578E-01 7.24988E-37
5.47923E-01 5.11868E-37
5.52264E-01 3.65072E-37
5.56602E-01 2.75318E-37
5.60935E-01 2.32653E-37
5.65263E-01 2.27041E-37
5.69587E-01 2.48832E-37
5.73905E-01 2.89133E-37
5.78217E-01 3.40039E-37
5.82524E-01 3.94839E-37
5.86824E-01 4.48060E-37
5.91118E-01 4.95481E-37
5.95404E-01 5.34100E-37
5.99684E-01 5.61985E-37
6.03956E-01 5.78197E-37
6.08220E-01 5.82619E-37
6.12476E-01 5.75782E-37
6.16723E-01 5.58724E-37
6.20961E-01 5.32844E-37
6.25190E-01 4.99768E-37
6.29410E-01 4.61206E-37
6.33619E-01 4.18881E-37
6.37819E-01 3.74432E-37
6.42008E-01 3.29357E-37
6.46186E-01 2.84975E-37
6.50353E-01 2.42407E-37
6.54508E-01 2.02520E-37
6.58652E-01 1.65999E-37
6.62784E-01 1.33289E-37
6.66903E-01 1.00000E-45
6.71010E-01 1.00000E-45
6.75104E-01 1.00000E-45
6.79184E-01 1.00000E-45
6.83251E-01 1.00000E-45
6.87303E-01 1.00000E-45
6.91342E-01 1.00000E-45
6.95366E-01 1.00000E-45
6.99375E-01 1.00000E-45
7.03368E-01 1.00000E-45
7.07347E-01 1.00000E-45
7.11309E-01 1.00000E-45
7.15256E-01 1.00000E-45
7.19186E-01 1.00000E-45
7.23099E-01 1.00000E-45
7.26995E-01 1.00000E-45
7.30874E-01 1.00000E-45
7.34736E-01 1.00000E-45
7.38579E-01 1.00000E-45
7.42405E-01 1.00000E-45
7.46212E-01 1.00000E-45
7.50000E-01 1.00000E-45
7.53769E-01 1.00000E-45
7.57519E-01 1.00000E-45
7.61249E-01 1.00000E-45
7.64960E-01 1.00000E-45
7.68650E-01 1.00000E-45
7.72320E-01 1.00000E-45
7.75968E-01 1.00000E-45
7.79596E-01 1.00000E-45
7.83203E-01 1.00000E-45
7.86788E-01 1.00000E-45
7.90351E-01 1.00000E-45
7.93893E-01 1.00000E-45
7.97411E-01 1.00000E-45
8.00908E-01 1.00000E-45
8.04381E-01 1.00000E-45
8.07831E-01 1.00000E-45
8.11257E-01 1.00000E-45
8.14660E-01 1.00000E-45
8.18039E-01 1.00000E-45
8.21394E-01 1.00000E-45
8.24724E-01 1.00000E-45
8.28030E-01 1.00000E-45
8.31310E-01 1.00000E-45
8.34565E-01 1.00000E-45
8.37795E-01 1.00000E-45
8.40999E-01 1.00000E-45
8.44177E-01 1.00000E-45
8.47329E-01 1.00000E-45
8.50455E-01 1.00000E-45
8.53553E-01 1.00000E-45
8.56625E-01 1.00000E-45
8.59670E-01 1.00000E-45
8.62687E-01 1.00000E-45
8.65677E-01 1.00000E-45
8.68639E-01 1.00000E-45
8.71572E-01 1.00000E-45
8.74478E-01 1.00000E-45
8.77355E-01 1.00000E-45
8.80203E-01 1.00000E-45
8.83022E-01 1.00000E-45
8.85812E-01 1.00000E-45
8.88573E-01 1.00000E-45
8.91304E-01 1.00000E-45
8.94005E-01 1.00000E-45
8.96677E-01 1.00000E-45
8.99318E-01 1.00000E-45
9.01928E-01 1.00000E-45
9.04508E-01 1.00000E-45
9.07058E-01 1.00000E-45
9.09576E-01 1.00000E-45
9.12063E-01 1.00000E-45
9.14519E-01 1.00000E-45
9.16943E-01 1.00000E-45
9.19335E-01 1.00000E-45
9.21696E-01 1.00000E-45
9.24024E-01 1.00000E-45
9.26320E-01 1.00000E-45
9.28584E-01 1.00000E-45
9.30815E-01 1.00000E-45
9.33013E-01 1.00000E-45
9.35178E-01 1.00000E-45
9.37310E-01 1.00000E-45
9.39409E-01 1.00000E-45
9.41474E-01 1.00000E-45
9.43505E-01 1.00000E-45
9.45503E-01 1.00000E-45
9.47467E-01 1.00000E-45
9.49397E-01 1.00000E-45
9.51293E-01 1.00000E-45
9.53154E-01 1.00000E-45
9.54981E-01 1.00000E-45
9.56773E-01 1.00000E-45
9.58530E-01 1.00000E-45
9.60252E-01 1.00000E-45
9.61940E-01 1.00000E-45
9.63592E-01 1.00000E-45
9.65209E-01 1.00000E-45
9.66790E-01 1.00000E-45
9.68336E-01 1.00000E-45
9.69846E-01 1.00000E-45
9.71321E-01 1.00000E-45
9.72759E-01 1.00000E-45
9.74162E-01 1.00000E-45
9.75528E-01 1.00000E-45
9.76858E-01 1.00000E-45
9.78152E-01 1.00000E-45
9.79410E-01 1.00000E-45
9.80631E-01 1.00000E-45
9.81815E-01 1.00000E-45
9.82963E-01 1.00000E-45
9.84074E-01 1.00000E-45
9.85148E-01 1.00000E-45
9.86185E-01 1.00000E-45
9.87185E-01 1.00000E-45
9.88148E-01 1.00000E-45
9.89074E-01 1.00000E-45
9.89962E-01 1.00000E-45
9.90814E-01 1.00000E-45
9.91627E-01 1.00000E-45
9.92404E-01 1.00000E-45
9.93143E-01 1.00000E-45
9.93844E-01 1.00000E-45
9.94508E-01 1.00000E-45
9.95134E-01 1.00000E-45
9.95722E-01 1.00000E-45
9.96273E-01 1.00000E-45
9.96786E-01 1.00000E-45
9.97261E-01 1.00000E-45
9.97698E-01 1.00000E-45
9.98097E-01 1.00000E-45
9.98459E-01 1.00000E-45
9.98782E-01 1.00000E-45
9.99067E-01 1.00000E-45
9.99315E-01 1.00000E-45
9.99524E-01 1.00000E-45
9.99695E-01 1.00000E-45
9.99829E-01 1.00000E-45
9.99924E-01 1.00000E-45
9.99981E-01 1.00000E-45
1.00000E+00 1.00000E-45
