 #
 # Subroutine ELSEPA. Elastic scattering of electrons and positrons
 #                    by neutral atoms and positive ions
 #
 # Projectile: electron
 # Kinetic energy = 6.00000E+08 eV = 2.20496E+07 a.u.
 #
 # WARNING: High-energy factorization with free-atom DF screening.
 #          Absorption, polarization and exchange corrections are
 #          switched off.
 #          Phase shifts are calculated for the bare nucleus.
 #          Scattering amplitudes are not evaluated.
 #
 # Element:  U,  Z =  92,  atomic weight = 2.38029E+02 g/mol
 #
 # Nuclear model: Fermi distribution
 #                Average radius = 6.63122E-13 cm
 #                Skin thickness = 5.46000E-14 cm
 #
 # Number of electrons = 92
 #
 # Total elastic cross section = 1.16965E-17 cm**2 = 4.17691E-01 a0**2
 # 1st transport cross section = 4.35152E-26 cm**2 = 1.55395E-09 a0**2
 # 2nd transport cross section = 1.30510E-25 cm**2 = 4.66059E-09 a0**2
 #
 #
 # Differential cross section:                       MU=(1-COS(THETA))/2
 #
 #  THETA        MU          DCS          DCS        Sherman      error
 #  (deg)                 (cm**2/sr)   (a0**2/sr)    function
 #----------------------------------------------------------------------
0.00000E+00 4.76821E-08
7.61557E-13 4.14991E-08
1.18994E-12 3.85957E-08
1.71346E-12 3.54957E-08
2.33225E-12 3.23558E-08
3.04617E-12 2.93005E-08
3.85530E-12 2.64166E-08
4.75964E-12 2.37568E-08
5.75917E-12 2.13465E-08
6.85391E-12 1.91893E-08
8.04379E-12 1.72732E-08
9.32893E-12 1.55798E-08
1.07092E-11 1.40870E-08
1.21847E-11 1.27714E-08
1.37554E-11 1.16107E-08
1.54213E-11 1.05843E-08
1.71823E-11 9.67411E-09
1.90386E-11 8.86406E-09
2.09900E-11 8.14055E-09
2.30367E-11 7.49126E-09
2.51785E-11 6.90689E-09
2.74156E-11 6.37937E-09
2.97478E-11 5.90173E-09
3.21752E-11 5.46807E-09
3.46979E-11 5.07333E-09
3.73157E-11 4.71324E-09
4.00286E-11 4.38408E-09
4.28368E-11 4.08267E-09
4.57402E-11 3.80623E-09
4.87388E-11 3.55222E-09
5.18325E-11 3.31829E-09
5.50215E-11 3.10294E-09
5.83057E-11 2.90448E-09
6.16850E-11 2.72140E-09
6.51595E-11 2.54700E-09
6.87293E-11 2.38145E-09
7.23943E-11 2.23152E-09
7.61544E-11 2.09543E-09
1.18991E-10 1.19454E-09
1.71347E-10 7.33720E-10
2.33223E-10 4.77490E-10
3.04617E-10 3.24799E-10
3.85531E-10 2.28897E-10
4.75965E-10 1.66189E-10
5.75917E-10 1.23747E-10
6.85389E-10 9.41707E-11
8.04380E-10 7.30457E-11
9.32891E-10 5.75822E-11
1.07092E-09 4.60187E-11
1.21847E-09 3.72132E-11
1.37554E-09 3.04048E-11
1.54213E-09 2.50848E-11
1.71823E-09 2.08507E-11
1.90386E-09 1.74632E-11
2.09900E-09 1.47397E-11
2.30367E-09 1.25296E-11
2.51785E-09 1.07215E-11
2.74156E-09 9.22970E-12
2.97478E-09 7.98943E-12
3.21752E-09 6.95134E-12
3.46978E-09 6.07738E-12
3.73156E-09 5.33766E-12
4.00286E-09 4.70827E-12
4.28368E-09 4.16994E-12
4.57402E-09 3.70708E-12
4.87388E-09 3.30704E-12
5.18326E-09 2.95952E-12
5.50215E-09 2.65653E-12
5.83057E-09 2.39136E-12
6.16850E-09 2.15849E-12
6.51596E-09 1.95264E-12
6.87293E-09 1.77052E-12
7.23942E-09 1.61013E-12
7.61544E-09 1.46839E-12
1.18991E-08 6.44161E-13
1.71347E-08 3.26613E-13
2.33223E-08 1.82927E-13
3.04617E-08 1.10138E-13
3.85531E-08 7.01440E-14
4.75965E-08 4.67546E-14
5.75917E-08 3.23568E-14
6.85389E-08 2.31049E-14
8.04380E-08 1.69407E-14
9.32891E-08 1.27044E-14
1.07092E-07 9.71440E-15
1.21847E-07 7.55437E-15
1.37554E-07 5.96247E-15
1.54213E-07 4.76835E-15
1.71823E-07 3.85845E-15
1.90386E-07 3.15527E-15
2.09900E-07 2.60505E-15
2.30367E-07 2.16956E-15
2.51785E-07 1.82129E-15
2.74156E-07 1.54011E-15
2.97478E-07 1.31111E-15
3.21752E-07 1.12311E-15
3.46978E-07 9.67609E-16
3.73156E-07 8.38103E-16
4.00286E-07 7.29553E-16
4.28368E-07 6.38020E-16
4.57402E-07 5.60402E-16
4.87388E-07 4.94237E-16
5.18325E-07 4.37556E-16
5.50215E-07 3.88775E-16
5.83057E-07 3.46608E-16
6.16850E-07 3.10008E-16
6.51596E-07 2.78114E-16
6.87293E-07 2.50221E-16
7.23942E-07 2.25740E-16
7.61543E-07 2.04182E-16
1.18991E-06 8.42395E-17
1.71347E-06 4.08282E-17
2.33223E-06 2.21176E-17
3.04617E-06 1.29997E-17
3.85531E-06 8.13237E-18
4.75964E-06 5.34427E-18
5.75916E-06 3.65496E-18
6.85388E-06 2.58339E-18
8.04378E-06 1.87728E-18
9.32888E-06 1.39674E-18
1.07092E-05 1.06059E-18
1.21846E-05 8.19748E-19
1.37553E-05 6.43553E-19
1.54212E-05 5.12256E-19
1.71822E-05 4.12802E-19
1.90385E-05 3.36116E-19
2.09899E-05 2.76855E-19
2.30365E-05 2.30047E-19
2.51783E-05 1.92659E-19
2.74153E-05 1.62518E-19
2.97475E-05 1.38025E-19
3.21749E-05 1.17979E-19
3.46974E-05 1.01455E-19
3.73152E-05 8.77400E-20
4.00281E-05 7.62763E-20
4.28362E-05 6.66299E-20
4.57395E-05 5.84613E-20
4.87380E-05 5.15047E-20
5.18317E-05 4.55503E-20
5.50205E-05 4.04305E-20
5.83045E-05 3.60100E-20
6.16838E-05 3.21783E-20
6.51582E-05 2.88441E-20
6.87277E-05 2.59321E-20
7.23925E-05 2.33796E-20
7.61524E-05 2.16533E-20
9.21439E-05 1.48575E-20
1.09658E-04 1.05333E-20
1.28695E-04 7.67535E-21
1.49255E-04 5.72416E-21
1.71338E-04 4.35452E-21
1.94942E-04 3.36999E-21
2.20070E-04 2.64733E-21
2.46720E-04 2.10711E-21
2.74892E-04 1.69672E-21
3.04586E-04 1.38039E-21
3.35803E-04 1.13344E-21
3.68542E-04 9.38386E-22
4.02802E-04 7.82707E-22
4.38585E-04 6.57272E-22
4.75889E-04 5.55318E-22
5.14715E-04 4.71806E-22
5.55063E-04 4.02891E-22
5.96931E-04 3.45650E-22
6.40321E-04 2.97811E-22
6.85233E-04 2.57602E-22
7.31665E-04 2.23632E-22
7.79618E-04 1.94790E-22
8.29092E-04 1.70195E-22
8.80086E-04 1.49130E-22
9.32601E-04 1.31021E-22
9.86636E-04 1.15395E-22
1.04219E-03 1.01865E-22
1.09927E-03 9.01145E-23
1.15786E-03 7.98774E-23
1.21797E-03 7.09347E-23
1.27961E-03 6.31020E-23
1.34276E-03 5.62247E-23
1.40743E-03 5.01725E-23
1.47362E-03 4.48346E-23
1.54133E-03 4.01174E-23
1.61056E-03 3.59404E-23
1.68131E-03 3.22353E-23
1.75357E-03 2.89432E-23
1.82735E-03 2.60133E-23
1.90265E-03 2.34019E-23
1.97947E-03 2.10709E-23
2.05780E-03 1.89876E-23
2.13765E-03 1.71233E-23
2.21902E-03 1.54530E-23
2.30190E-03 1.39549E-23
2.38630E-03 1.26097E-23
2.47222E-03 1.14007E-23
2.55965E-03 1.03131E-23
2.64859E-03 9.33381E-24
2.73905E-03 8.45140E-24
2.83103E-03 7.65564E-24
2.92452E-03 6.93752E-24
3.01952E-03 6.28903E-24
3.11604E-03 5.70305E-24
3.21407E-03 5.17325E-24
3.31362E-03 4.69399E-24
3.41468E-03 4.26024E-24
3.51725E-03 3.86747E-24
3.62133E-03 3.51168E-24
3.72692E-03 3.18926E-24
3.83403E-03 2.89696E-24
3.94265E-03 2.63190E-24
4.05278E-03 2.39145E-24
4.16442E-03 2.17328E-24
4.27757E-03 1.97526E-24
4.39223E-03 1.79551E-24
4.50840E-03 1.63231E-24
4.62608E-03 1.48410E-24
4.74527E-03 1.34950E-24
4.86597E-03 1.22722E-24
4.98817E-03 1.11615E-24
5.11188E-03 1.01523E-24
5.23711E-03 9.23545E-25
5.36383E-03 8.40235E-25
5.49207E-03 7.64534E-25
5.62181E-03 6.95747E-25
5.75306E-03 6.33241E-25
5.88581E-03 5.76444E-25
6.02007E-03 5.24834E-25
6.15583E-03 4.77940E-25
6.29310E-03 4.35332E-25
6.43187E-03 3.96618E-25
6.57214E-03 3.61446E-25
6.71392E-03 3.29492E-25
6.85720E-03 3.00462E-25
7.00198E-03 2.74091E-25
7.14827E-03 2.50136E-25
7.29605E-03 2.28376E-25
7.44534E-03 2.08610E-25
7.59612E-03 1.90656E-25
7.97965E-03 1.52642E-25
8.37255E-03 1.22741E-25
8.77480E-03 9.92054E-26
9.18641E-03 8.06578E-26
9.60736E-03 6.60130E-26
1.00376E-02 5.44176E-26
1.04773E-02 4.52016E-26
1.09262E-02 3.78402E-26
1.13844E-02 3.19235E-26
1.18520E-02 2.71323E-26
1.23288E-02 2.32188E-26
1.28150E-02 1.99911E-26
1.33104E-02 1.73013E-26
1.38150E-02 1.50359E-26
1.43290E-02 1.31077E-26
1.48521E-02 1.14504E-26
1.53845E-02 1.00130E-26
1.59262E-02 8.75703E-27
1.64770E-02 7.65279E-27
1.70371E-02 6.67755E-27
1.76063E-02 5.81368E-27
1.81848E-02 5.04732E-27
1.87724E-02 4.36737E-27
1.93692E-02 3.76472E-27
1.99751E-02 3.23172E-27
2.05901E-02 2.76177E-27
2.12143E-02 2.34900E-27
2.18476E-02 1.98811E-27
2.24900E-02 1.67421E-27
2.31415E-02 1.40276E-27
2.38021E-02 1.16947E-27
2.44717E-02 9.70341E-28
2.51504E-02 8.01583E-28
2.58382E-02 6.59657E-28
2.65349E-02 5.41260E-28
2.72407E-02 4.43333E-28
2.79555E-02 3.63058E-28
2.86793E-02 2.97867E-28
2.94120E-02 2.45435E-28
3.01537E-02 2.03681E-28
3.09043E-02 1.70757E-28
3.16639E-02 1.45040E-28
3.24324E-02 1.25120E-28
3.32098E-02 1.09791E-28
3.39961E-02 9.80255E-29
3.47912E-02 8.89696E-29
3.55952E-02 8.19189E-29
3.64081E-02 7.63049E-29
3.72297E-02 7.16778E-29
3.80602E-02 6.76904E-29
3.88995E-02 6.40832E-29
3.97476E-02 6.06700E-29
4.06044E-02 5.73252E-29
4.14700E-02 5.39715E-29
4.23443E-02 5.05701E-29
4.32273E-02 4.71108E-29
4.41190E-02 4.36047E-29
4.50194E-02 4.00769E-29
4.59284E-02 3.65613E-29
4.68461E-02 3.30961E-29
4.87074E-02 2.64700E-29
5.06030E-02 2.04736E-29
5.25328E-02 1.53028E-29
5.44967E-02 1.10562E-29
5.64946E-02 7.73994E-30
5.85262E-02 5.28661E-30
6.05914E-02 3.57857E-30
6.26901E-02 2.47211E-30
6.48222E-02 1.81807E-30
6.69873E-02 1.47746E-30
6.91854E-02 1.33169E-30
7.14163E-02 1.28763E-30
7.36799E-02 1.27854E-30
7.59760E-02 1.26201E-30
7.83043E-02 1.21592E-30
8.06647E-02 1.13357E-30
8.30571E-02 1.01874E-30
8.54812E-02 8.81207E-31
8.79369E-02 7.33080E-31
9.04240E-02 5.86168E-31
9.29422E-02 4.50236E-31
9.54915E-02 3.32150E-31
9.80716E-02 2.35669E-31
1.00682E-01 1.61734E-31
1.03323E-01 1.09031E-31
1.05995E-01 7.46873E-32
1.08696E-01 5.49702E-32
1.11427E-01 4.58961E-32
1.14188E-01 4.37069E-32
1.16978E-01 4.51919E-32
1.19797E-01 4.78616E-32
1.22645E-01 4.99943E-32
1.25522E-01 5.05868E-32
1.28428E-01 4.92402E-32
1.31361E-01 4.60131E-32
1.34323E-01 4.12672E-32
1.37313E-01 3.55241E-32
1.40330E-01 2.93473E-32
1.43375E-01 2.32543E-32
1.46447E-01 1.76602E-32
1.49545E-01 1.28508E-32
1.52671E-01 8.97826E-33
1.55823E-01 6.07528E-33
1.59001E-01 4.07897E-33
1.62205E-01 2.86024E-33
1.65435E-01 2.25311E-33
1.68690E-01 2.08073E-33
1.71970E-01 2.17604E-33
1.75276E-01 2.39608E-33
1.78606E-01 2.63011E-33
1.81961E-01 2.80216E-33
1.85340E-01 2.86929E-33
1.88743E-01 2.81675E-33
1.92169E-01 2.65153E-33
1.95619E-01 2.39526E-33
1.99092E-01 2.07750E-33
2.02589E-01 1.72999E-33
2.06107E-01 1.38221E-33
2.09649E-01 1.05839E-33
2.13212E-01 7.75964E-34
2.16797E-01 5.45129E-34
2.20404E-01 3.69359E-34
2.24032E-01 2.46546E-34
2.27680E-01 1.70456E-34
2.31350E-01 1.32291E-34
2.35040E-01 1.22133E-34
2.38751E-01 1.30174E-34
2.42481E-01 1.47623E-34
2.46231E-01 1.67308E-34
2.50000E-01 1.83958E-34
2.53788E-01 1.94230E-34
2.57595E-01 1.96538E-34
2.61421E-01 1.90751E-34
2.65264E-01 1.77817E-34
2.69126E-01 1.59378E-34
2.73005E-01 1.37413E-34
2.76901E-01 1.13931E-34
2.80814E-01 9.07502E-35
2.84744E-01 6.93398E-35
2.88691E-01 5.07457E-35
2.92653E-01 3.55746E-35
2.96632E-01 2.40273E-35
3.00625E-01 1.59658E-35
3.04634E-01 1.09989E-35
3.08658E-01 8.57210E-36
3.12697E-01 8.05436E-36
3.16749E-01 8.81115E-36
3.20816E-01 1.02619E-35
3.24896E-01 1.19188E-35
3.28990E-01 1.34089E-35
3.33097E-01 1.44792E-35
3.37216E-01 1.49911E-35
3.41348E-01 1.49043E-35
3.45492E-01 1.42566E-35
3.49647E-01 1.31407E-35
3.53814E-01 1.16819E-35
3.57992E-01 1.00180E-35
3.62181E-01 8.28251E-36
3.66381E-01 6.59312E-36
3.70590E-01 5.04343E-36
3.74810E-01 3.69947E-36
3.79039E-01 2.59925E-36
3.83277E-01 1.75520E-36
3.87524E-01 1.15824E-36
3.91780E-01 7.82935E-37
3.96044E-01 5.92992E-37
4.00316E-01 5.46497E-37
4.04596E-01 6.00431E-37
4.08882E-01 7.14407E-37
4.13176E-01 8.53285E-37
4.17476E-01 9.88811E-37
4.21783E-01 1.10033E-36
4.26095E-01 1.17468E-36
4.30413E-01 1.20555E-36
4.34737E-01 1.19239E-36
4.39065E-01 1.13909E-36
4.43398E-01 1.05265E-36
4.47736E-01 9.41807E-37
4.52077E-01 8.15969E-37
4.56422E-01 6.84191E-37
4.60770E-01 5.54533E-37
4.65122E-01 4.33564E-37
4.69476E-01 3.26142E-37
4.73832E-01 2.35360E-37
4.78190E-01 1.00000E-45
4.82550E-01 1.00000E-45
4.86912E-01 1.00000E-45
4.91274E-01 1.00000E-45
4.95637E-01 1.00000E-45
5.00000E-01 1.00000E-45
5.04363E-01 1.00000E-45
5.08726E-01 1.00000E-45
5.13088E-01 1.00000E-45
5.17450E-01 1.00000E-45
5.21810E-01 1.00000E-45
5.26168E-01 1.00000E-45
5.30524E-01 1.00000E-45
5.34878E-01 1.00000E-45
5.39230E-01 1.00000E-45
5.43578E-01 1.00000E-45
5.47923E-01 1.00000E-45
5.52264E-01 1.00000E-45
5.56602E-01 1.00000E-45
5.60935E-01 1.00000E-45
5.65263E-01 1.00000E-45
5.69587E-01 1.00000E-45
5.73905E-01 1.00000E-45
5.78217E-01 1.00000E-45
5.82524E-01 1.00000E-45
5.86824E-01 1.00000E-45
5.91118E-01 1.00000E-45
5.95404E-01 1.00000E-45
5.99684E-01 1.00000E-45
6.03956E-01 1.00000E-45
6.08220E-01 1.00000E-45
6.12476E-01 1.00000E-45
6.16723E-01 1.00000E-45
6.20961E-01 1.00000E-45
6.25190E-01 1.00000E-45
6.29410E-01 1.00000E-45
6.33619E-01 1.00000E-45
6.37819E-01 1.00000E-45
6.42008E-01 1.00000E-45
6.46186E-01 1.00000E-45
6.50353E-01 1.00000E-45
6.54508E-01 1.00000E-45
6.58652E-01 1.00000E-45
6.62784E-01 1.00000E-45
6.66903E-01 1.00000E-45
6.71010E-01 1.00000E-45
6.75104E-01 1.00000E-45
6.79184E-01 1.00000E-45
6.83251E-01 1.00000E-45
6.87303E-01 1.00000E-45
6.91342E-01 1.00000E-45
6.95366E-01 1.00000E-45
6.99375E-01 1.00000E-45
7.03368E-01 1.00000E-45
7.07347E-01 1.00000E-45
7.11309E-01 1.00000E-45
7.15256E-01 1.00000E-45
7.19186E-01 1.00000E-45
7.23099E-01 1.00000E-45
7.26995E-01 1.00000E-45
7.30874E-01 1.00000E-45
7.34736E-01 1.00000E-45
7.38579E-01 1.00000E-45
7.42405E-01 1.00000E-45
7.46212E-01 1.00000E-45
7.50000E-01 1.00000E-45
7.53769E-01 1.00000E-45
7.57519E-01 1.00000E-45
7.61249E-01 1.00000E-45
7.64960E-01 1.00000E-45
7.68650E-01 1.00000E-45
7.72320E-01 1.00000E-45
7.75968E-01 1.00000E-45
7.79596E-01 1.00000E-45
7.83203E-01 1.00000E-45
7.86788E-01 1.00000E-45
7.90351E-01 1.00000E-45
7.93893E-01 1.00000E-45
7.97411E-01 1.00000E-45
8.00908E-01 1.00000E-45
8.04381E-01 1.00000E-45
8.07831E-01 1.00000E-45
8.11257E-01 1.00000E-45
8.14660E-01 1.00000E-45
8.18039E-01 1.00000E-45
8.21394E-01 1.00000E-45
8.24724E-01 1.00000E-45
8.28030E-01 1.00000E-45
8.31310E-01 1.00000E-45
8.34565E-01 1.00000E-45
8.37795E-01 1.00000E-45
8.40999E-01 1.00000E-45
8.44177E-01 1.00000E-45
8.47329E-01 1.00000E-45
8.50455E-01 1.00000E-45
8.53553E-01 1.00000E-45
8.56625E-01 1.00000E-45
8.59670E-01 1.00000E-45
8.62687E-01 1.00000E-45
8.65677E-01 1.00000E-45
8.68639E-01 1.00000E-45
8.71572E-01 1.00000E-45
8.74478E-01 1.00000E-45
8.77355E-01 1.00000E-45
8.80203E-01 1.00000E-45
8.83022E-01 1.00000E-45
8.85812E-01 1.00000E-45
8.88573E-01 1.00000E-45
8.91304E-01 1.00000E-45
8.94005E-01 1.00000E-45
8.96677E-01 1.00000E-45
8.99318E-01 1.00000E-45
9.01928E-01 1.00000E-45
9.04508E-01 1.00000E-45
9.07058E-01 1.00000E-45
9.09576E-01 1.00000E-45
9.12063E-01 1.00000E-45
9.14519E-01 1.00000E-45
9.16943E-01 1.00000E-45
9.19335E-01 1.00000E-45
9.21696E-01 1.00000E-45
9.24024E-01 1.00000E-45
9.26320E-01 1.00000E-45
9.28584E-01 1.00000E-45
9.30815E-01 1.00000E-45
9.33013E-01 1.00000E-45
9.35178E-01 1.00000E-45
9.37310E-01 1.00000E-45
9.39409E-01 1.00000E-45
9.41474E-01 1.00000E-45
9.43505E-01 1.00000E-45
9.45503E-01 1.00000E-45
9.47467E-01 1.00000E-45
9.49397E-01 1.00000E-45
9.51293E-01 1.00000E-45
9.53154E-01 1.00000E-45
9.54981E-01 1.00000E-45
9.56773E-01 1.00000E-45
9.58530E-01 1.00000E-45
9.60252E-01 1.00000E-45
9.61940E-01 1.00000E-45
9.63592E-01 1.00000E-45
9.65209E-01 1.00000E-45
9.66790E-01 1.00000E-45
9.68336E-01 1.00000E-45
9.69846E-01 1.00000E-45
9.71321E-01 1.00000E-45
9.72759E-01 1.00000E-45
9.74162E-01 1.00000E-45
9.75528E-01 1.00000E-45
9.76858E-01 1.00000E-45
9.78152E-01 1.00000E-45
9.79410E-01 1.00000E-45
9.80631E-01 1.00000E-45
9.81815E-01 1.00000E-45
9.82963E-01 1.00000E-45
9.84074E-01 1.00000E-45
9.85148E-01 1.00000E-45
9.86185E-01 1.00000E-45
9.87185E-01 1.00000E-45
9.88148E-01 1.00000E-45
9.89074E-01 1.00000E-45
9.89962E-01 1.00000E-45
9.90814E-01 1.00000E-45
9.91627E-01 1.00000E-45
9.92404E-01 1.00000E-45
9.93143E-01 1.00000E-45
9.93844E-01 1.00000E-45
9.94508E-01 1.00000E-45
9.95134E-01 1.00000E-45
9.95722E-01 1.00000E-45
9.96273E-01 1.00000E-45
9.96786E-01 1.00000E-45
9.97261E-01 1.00000E-45
9.97698E-01 1.00000E-45
9.98097E-01 1.00000E-45
9.98459E-01 1.00000E-45
9.98782E-01 1.00000E-45
9.99067E-01 1.00000E-45
9.99315E-01 1.00000E-45
9.99524E-01 1.00000E-45
9.99695E-01 1.00000E-45
9.99829E-01 1.00000E-45
9.99924E-01 1.00000E-45
9.99981E-01 1.00000E-45
1.00000E+00 1.00000E-45
