 #
 # Subroutine ELSEPA. Elastic scattering of electrons and positrons
 #                    by neutral atoms and positive ions
 #
 # Projectile: electron
 # Kinetic energy = 3.50000E+08 eV = 1.28623E+07 a.u.
 #
 # WARNING: High-energy factorization with free-atom DF screening.
 #          Absorption, polarization and exchange corrections are
 #          switched off.
 #          Phase shifts are calculated for the bare nucleus.
 #          Scattering amplitudes are not evaluated.
 #
 # Element:  U,  Z =  92,  atomic weight = 2.38029E+02 g/mol
 #
 # Nuclear model: Fermi distribution
 #                Average radius = 6.63122E-13 cm
 #                Skin thickness = 5.46000E-14 cm
 #
 # Number of electrons = 92
 #
 # Total elastic cross section = 1.17223E-17 cm**2 = 4.18612E-01 a0**2
 # 1st transport cross section = 1.28195E-25 cm**2 = 4.57791E-09 a0**2
 # 2nd transport cross section = 3.84282E-25 cm**2 = 1.37230E-08 a0**2
 #
 #
 # Differential cross section:                       MU=(1-COS(THETA))/2
 #
 #  THETA        MU          DCS          DCS        Sherman      error
 #  (deg)                 (cm**2/sr)   (a0**2/sr)    function
 #----------------------------------------------------------------------
0.00000E+00 1.62449E-08
7.61557E-13 1.54703E-08
1.18994E-12 1.50617E-08
1.71346E-12 1.45866E-08
2.33225E-12 1.40577E-08
3.04617E-12 1.34860E-08
3.85530E-12 1.28856E-08
4.75964E-12 1.22675E-08
5.75917E-12 1.16411E-08
6.85391E-12 1.10189E-08
8.04379E-12 1.04058E-08
9.32893E-12 9.80837E-09
1.07092E-11 9.23431E-09
1.21847E-11 8.68391E-09
1.37554E-11 8.16113E-09
1.54213E-11 7.66802E-09
1.71823E-11 7.20319E-09
1.90386E-11 6.76845E-09
2.09900E-11 6.36228E-09
2.30367E-11 5.98304E-09
2.51785E-11 5.63099E-09
2.74156E-11 5.30334E-09
2.97478E-11 4.99883E-09
3.21752E-11 4.71636E-09
3.46979E-11 4.45376E-09
3.73157E-11 4.20984E-09
4.00286E-11 3.98292E-09
4.28368E-11 3.77186E-09
4.57402E-11 3.57521E-09
4.87388E-11 3.39169E-09
5.18325E-11 3.22066E-09
5.50215E-11 3.06043E-09
5.83057E-11 2.91054E-09
6.16850E-11 2.77047E-09
6.51595E-11 2.63836E-09
6.87293E-11 2.51462E-09
7.23943E-11 2.39838E-09
7.61544E-11 2.28847E-09
1.18991E-10 1.47415E-09
1.71347E-10 9.88155E-10
2.33223E-10 6.77471E-10
3.04617E-10 4.88131E-10
3.85531E-10 3.57922E-10
4.75965E-10 2.69579E-10
5.75917E-10 2.08226E-10
6.85389E-10 1.62401E-10
8.04380E-10 1.29103E-10
9.32891E-10 1.04119E-10
1.07092E-09 8.46281E-11
1.21847E-09 6.97162E-11
1.37554E-09 5.79564E-11
1.54213E-09 4.85597E-11
1.71823E-09 4.10843E-11
1.90386E-09 3.49791E-11
2.09900E-09 2.99867E-11
2.30367E-09 2.58938E-11
2.51785E-09 2.24516E-11
2.74156E-09 1.95795E-11
2.97478E-09 1.71648E-11
3.21752E-09 1.50917E-11
3.46978E-09 1.33322E-11
3.73156E-09 1.18205E-11
4.00286E-09 1.05094E-11
4.28368E-09 9.38037E-12
4.57402E-09 8.39754E-12
4.87388E-09 7.53328E-12
5.18326E-09 6.77746E-12
5.50215E-09 6.11118E-12
5.83057E-09 5.52616E-12
6.16850E-09 5.01131E-12
6.51596E-09 4.55346E-12
6.87293E-09 4.14828E-12
7.23942E-09 3.78779E-12
7.61544E-09 3.46497E-12
1.18991E-08 1.56824E-12
1.71347E-08 8.12956E-13
2.33223E-08 4.62673E-13
3.04617E-08 2.82773E-13
3.85531E-08 1.82690E-13
4.75965E-08 1.23400E-13
5.75917E-08 8.63159E-14
6.85389E-08 6.21841E-14
8.04380E-08 4.59012E-14
9.32891E-08 3.46022E-14
1.07092E-07 2.65702E-14
1.21847E-07 2.07330E-14
1.37554E-07 1.64155E-14
1.54213E-07 1.31656E-14
1.71823E-07 1.06828E-14
1.90386E-07 8.75990E-15
2.09900E-07 7.25123E-15
2.30367E-07 6.05467E-15
2.51785E-07 5.09530E-15
2.74156E-07 4.31889E-15
2.97478E-07 3.68508E-15
3.21752E-07 3.16333E-15
3.46978E-07 2.73081E-15
3.73156E-07 2.36968E-15
4.00286E-07 2.06629E-15
4.28368E-07 1.80992E-15
4.57402E-07 1.59202E-15
4.87388E-07 1.40594E-15
5.18325E-07 1.24621E-15
5.50215E-07 1.10851E-15
5.83057E-07 9.89293E-16
6.16850E-07 8.85647E-16
6.51596E-07 7.95218E-16
6.87293E-07 7.16020E-16
7.23942E-07 6.46431E-16
7.61543E-07 5.85087E-16
1.18991E-06 2.42495E-16
1.71347E-06 1.17857E-16
2.33223E-06 6.39824E-17
3.04617E-06 3.76736E-17
3.85531E-06 2.36041E-17
4.75964E-06 1.55322E-17
5.75916E-06 1.06345E-17
6.85388E-06 7.52401E-18
8.04378E-06 5.47208E-18
9.32888E-06 4.07435E-18
1.07092E-05 3.09573E-18
1.21846E-05 2.39406E-18
1.37553E-05 1.88040E-18
1.54212E-05 1.49740E-18
1.71822E-05 1.20714E-18
1.90385E-05 9.83217E-19
2.09899E-05 8.10105E-19
2.30365E-05 6.73317E-19
2.51783E-05 5.64021E-19
2.74153E-05 4.75881E-19
2.97475E-05 4.04239E-19
3.21749E-05 3.45585E-19
3.46974E-05 2.97230E-19
3.73152E-05 2.57084E-19
4.00281E-05 2.23522E-19
4.28362E-05 1.95275E-19
4.57395E-05 1.71353E-19
4.87380E-05 1.50976E-19
5.18317E-05 1.33533E-19
5.50205E-05 1.18532E-19
5.83045E-05 1.05579E-19
6.16838E-05 9.43494E-20
6.51582E-05 8.45771E-20
6.87277E-05 7.60402E-20
7.23925E-05 6.85558E-20
7.61524E-05 6.24876E-20
9.21439E-05 4.28204E-20
1.09658E-04 3.03349E-20
1.28695E-04 2.20988E-20
1.49255E-04 1.64862E-20
1.71338E-04 1.25529E-20
1.94942E-04 9.72994E-21
2.20070E-04 7.66088E-21
2.46720E-04 6.11531E-21
2.74892E-04 4.94109E-21
3.04586E-04 4.03622E-21
3.35803E-04 3.32980E-21
3.68542E-04 2.77156E-21
4.02802E-04 2.32563E-21
4.38585E-04 1.96588E-21
4.75889E-04 1.67298E-21
5.14715E-04 1.43256E-21
5.55063E-04 1.23366E-21
5.96931E-04 1.06796E-21
6.40321E-04 9.29006E-22
6.85233E-04 8.11767E-22
7.31665E-04 7.12295E-22
7.79618E-04 6.27439E-22
8.29092E-04 5.54703E-22
8.80086E-04 4.92060E-22
9.32601E-04 4.37878E-22
9.86636E-04 3.90822E-22
1.04219E-03 3.49797E-22
1.09927E-03 3.13902E-22
1.15786E-03 2.82386E-22
1.21797E-03 2.54628E-22
1.27961E-03 2.30103E-22
1.34276E-03 2.08373E-22
1.40743E-03 1.89066E-22
1.47362E-03 1.71867E-22
1.54133E-03 1.56509E-22
1.61056E-03 1.42761E-22
1.68131E-03 1.30428E-22
1.75357E-03 1.19341E-22
1.82735E-03 1.09353E-22
1.90265E-03 1.00337E-22
1.97947E-03 9.21851E-23
2.05780E-03 8.48002E-23
2.13765E-03 7.80992E-23
2.21902E-03 7.20087E-23
2.30190E-03 6.64647E-23
2.38630E-03 6.14106E-23
2.47222E-03 5.67966E-23
2.55965E-03 5.25786E-23
2.64859E-03 4.87176E-23
2.73905E-03 4.51789E-23
2.83103E-03 4.19317E-23
2.92452E-03 3.89485E-23
3.01952E-03 3.62049E-23
3.11604E-03 3.36789E-23
3.21407E-03 3.13508E-23
3.31362E-03 2.92030E-23
3.41468E-03 2.72198E-23
3.51725E-03 2.53867E-23
3.62133E-03 2.36909E-23
3.72692E-03 2.21208E-23
3.83403E-03 2.06659E-23
3.94265E-03 1.93167E-23
4.05278E-03 1.80646E-23
4.16442E-03 1.69017E-23
4.27757E-03 1.58209E-23
4.39223E-03 1.48157E-23
4.50840E-03 1.38803E-23
4.62608E-03 1.30092E-23
4.74527E-03 1.21975E-23
4.86597E-03 1.14407E-23
4.98817E-03 1.07347E-23
5.11188E-03 1.00758E-23
5.23711E-03 9.46038E-24
5.36383E-03 8.88541E-24
5.49207E-03 8.34793E-24
5.62181E-03 7.84524E-24
5.75306E-03 7.37490E-24
5.88581E-03 6.93461E-24
6.02007E-03 6.52229E-24
6.15583E-03 6.13600E-24
6.29310E-03 5.77396E-24
6.43187E-03 5.43451E-24
6.57214E-03 5.11613E-24
6.71392E-03 4.81740E-24
6.85720E-03 4.53701E-24
7.00198E-03 4.27376E-24
7.14827E-03 4.02652E-24
7.29605E-03 3.79425E-24
7.44534E-03 3.57596E-24
7.59612E-03 3.37077E-24
7.97965E-03 2.90973E-24
8.37255E-03 2.51387E-24
8.77480E-03 2.17349E-24
9.18641E-03 1.88045E-24
9.60736E-03 1.62786E-24
1.00376E-02 1.40992E-24
1.04773E-02 1.22171E-24
1.09262E-02 1.05904E-24
1.13844E-02 9.18356E-25
1.18520E-02 7.96604E-25
1.23288E-02 6.91186E-25
1.28150E-02 5.99873E-25
1.33104E-02 5.20750E-25
1.38150E-02 4.52171E-25
1.43290E-02 3.92718E-25
1.48521E-02 3.41170E-25
1.53845E-02 2.96471E-25
1.59262E-02 2.57710E-25
1.64770E-02 2.24098E-25
1.70371E-02 1.94952E-25
1.76063E-02 1.69680E-25
1.81848E-02 1.47768E-25
1.87724E-02 1.28773E-25
1.93692E-02 1.12306E-25
1.99751E-02 9.80334E-26
2.05901E-02 8.56628E-26
2.12143E-02 7.49411E-26
2.18476E-02 6.56485E-26
2.24900E-02 5.75938E-26
2.31415E-02 5.06111E-26
2.38021E-02 4.45562E-26
2.44717E-02 3.93039E-26
2.51504E-02 3.47456E-26
2.58382E-02 3.07870E-26
2.65349E-02 2.73465E-26
2.72407E-02 2.43531E-26
2.79555E-02 2.17456E-26
2.86793E-02 1.94709E-26
2.94120E-02 1.74831E-26
3.01537E-02 1.57426E-26
3.09043E-02 1.42152E-26
3.16639E-02 1.28713E-26
3.24324E-02 1.16858E-26
3.32098E-02 1.06366E-26
3.39961E-02 9.70513E-27
3.47912E-02 8.87521E-27
3.55952E-02 8.13310E-27
3.64081E-02 7.46699E-27
3.72297E-02 6.86680E-27
3.80602E-02 6.32394E-27
3.88995E-02 5.83105E-27
3.97476E-02 5.38190E-27
4.06044E-02 4.97115E-27
4.14700E-02 4.59428E-27
4.23443E-02 4.24744E-27
4.32273E-02 3.92735E-27
4.41190E-02 3.63122E-27
4.50194E-02 3.35668E-27
4.59284E-02 3.10169E-27
4.68461E-02 2.86452E-27
4.87074E-02 2.43785E-27
5.06030E-02 2.06695E-27
5.25328E-02 1.74443E-27
5.44967E-02 1.46441E-27
5.64946E-02 1.22211E-27
5.85262E-02 1.01343E-27
6.05914E-02 8.34792E-28
6.26901E-02 6.82926E-28
6.48222E-02 5.54838E-28
6.69873E-02 4.47742E-28
6.91854E-02 3.59040E-28
7.14163E-02 2.86313E-28
7.36799E-02 2.27329E-28
7.59760E-02 1.80038E-28
7.83043E-02 1.42582E-28
8.06647E-02 1.13291E-28
8.30571E-02 9.06869E-29
8.54812E-02 7.34760E-29
8.79369E-02 6.05419E-29
9.04240E-02 5.09356E-29
9.29422E-02 4.38631E-29
9.54915E-02 3.86713E-29
9.80716E-02 3.48337E-29
1.00682E-01 3.19345E-29
1.03323E-01 2.96539E-29
1.05995E-01 2.77535E-29
1.08696E-01 2.60627E-29
1.11427E-01 2.44655E-29
1.14188E-01 2.28898E-29
1.16978E-01 2.12968E-29
1.19797E-01 1.96727E-29
1.22645E-01 1.80209E-29
1.25522E-01 1.63564E-29
1.28428E-01 1.47005E-29
1.31361E-01 1.30773E-29
1.34323E-01 1.15107E-29
1.37313E-01 1.00227E-29
1.40330E-01 8.63150E-30
1.43375E-01 7.35124E-30
1.46447E-01 6.19159E-30
1.49545E-01 5.15778E-30
1.52671E-01 4.25094E-30
1.55823E-01 3.46857E-30
1.59001E-01 2.80514E-30
1.62205E-01 2.25276E-30
1.65435E-01 1.80176E-30
1.68690E-01 1.44134E-30
1.71970E-01 1.16010E-30
1.75276E-01 9.46566E-31
1.78606E-01 7.89520E-31
1.81961E-01 6.78376E-31
1.85340E-01 6.03401E-31
1.88743E-01 5.55875E-31
1.92169E-01 5.28192E-31
1.95619E-01 5.13896E-31
1.99092E-01 5.07665E-31
2.02589E-01 5.05266E-31
2.06107E-01 5.03467E-31
2.09649E-01 4.99936E-31
2.13212E-01 4.93130E-31
2.16797E-01 4.82168E-31
2.20404E-01 4.66717E-31
2.24032E-01 4.46869E-31
2.27680E-01 4.23035E-31
2.31350E-01 3.95852E-31
2.35040E-01 3.66089E-31
2.38751E-01 3.34582E-31
2.42481E-01 3.02174E-31
2.46231E-01 2.69664E-31
2.50000E-01 2.37781E-31
2.53788E-01 2.07152E-31
2.57595E-01 1.78294E-31
2.61421E-01 1.51605E-31
2.65264E-01 1.27367E-31
2.69126E-01 1.05751E-31
2.73005E-01 8.68275E-32
2.76901E-01 7.05764E-32
2.80814E-01 5.69046E-32
2.84744E-01 4.56587E-32
2.88691E-01 3.66404E-32
2.92653E-01 2.96196E-32
2.96632E-01 2.43480E-32
3.00625E-01 2.05699E-32
3.04634E-01 1.80323E-32
3.08658E-01 1.64921E-32
3.12697E-01 1.57233E-32
3.16749E-01 1.55206E-32
3.20816E-01 1.57030E-32
3.24896E-01 1.61153E-32
3.28990E-01 1.66282E-32
3.33097E-01 1.71385E-32
3.37216E-01 1.75668E-32
3.41348E-01 1.78563E-32
3.45492E-01 1.79702E-32
3.49647E-01 1.78887E-32
3.53814E-01 1.76070E-32
3.57992E-01 1.71317E-32
3.62181E-01 1.64787E-32
3.66381E-01 1.56707E-32
3.70590E-01 1.47345E-32
3.74810E-01 1.36995E-32
3.79039E-01 1.25958E-32
3.83277E-01 1.14529E-32
3.87524E-01 1.02983E-32
3.91780E-01 9.15708E-33
3.96044E-01 8.05108E-33
4.00316E-01 6.99857E-33
4.04596E-01 6.01416E-33
4.08882E-01 5.10879E-33
4.13176E-01 4.28987E-33
4.17476E-01 3.56155E-33
4.21783E-01 2.92507E-33
4.26095E-01 2.37909E-33
4.30413E-01 1.92015E-33
4.34737E-01 1.54308E-33
4.39065E-01 1.24137E-33
4.43398E-01 1.00762E-33
4.47736E-01 8.33828E-34
4.52077E-01 7.11775E-34
4.56422E-01 6.33251E-34
4.60770E-01 5.90306E-34
4.65122E-01 5.75434E-34
4.69476E-01 5.81711E-34
4.73832E-01 6.02903E-34
4.78190E-01 6.33524E-34
4.82550E-01 6.68869E-34
4.86912E-01 7.05020E-34
4.91274E-01 7.38817E-34
4.95637E-01 7.67827E-34
5.00000E-01 7.90281E-34
5.04363E-01 8.05012E-34
5.08726E-01 8.11382E-34
5.13088E-01 8.09207E-34
5.17450E-01 7.98679E-34
5.21810E-01 7.80294E-34
5.26168E-01 7.54779E-34
5.30524E-01 7.23027E-34
5.34878E-01 6.86042E-34
5.39230E-01 6.44882E-34
5.43578E-01 6.00616E-34
5.47923E-01 5.54290E-34
5.52264E-01 5.06893E-34
5.56602E-01 4.59336E-34
5.60935E-01 4.12436E-34
5.65263E-01 3.66900E-34
5.69587E-01 3.23329E-34
5.73905E-01 2.82206E-34
5.78217E-01 2.43905E-34
5.82524E-01 2.08695E-34
5.86824E-01 1.76744E-34
5.91118E-01 1.48133E-34
5.95404E-01 1.22861E-34
5.99684E-01 1.00861E-34
6.03956E-01 8.20096E-35
6.08220E-01 6.61344E-35
6.12476E-01 5.30293E-35
6.16723E-01 4.24616E-35
6.20961E-01 3.41823E-35
6.25190E-01 2.79333E-35
6.29410E-01 2.34553E-35
6.33619E-01 2.04930E-35
6.37819E-01 1.88010E-35
6.42008E-01 1.81470E-35
6.46186E-01 1.83156E-35
6.50353E-01 1.91100E-35
6.54508E-01 2.03533E-35
6.58652E-01 2.18900E-35
6.62784E-01 2.35851E-35
6.66903E-01 2.53244E-35
6.71010E-01 2.70135E-35
6.75104E-01 2.85766E-35
6.79184E-01 2.99550E-35
6.83251E-01 3.11061E-35
6.87303E-01 3.20008E-35
6.91342E-01 3.26227E-35
6.95366E-01 3.29660E-35
6.99375E-01 3.30336E-35
7.03368E-01 3.28358E-35
7.07347E-01 3.23890E-35
7.11309E-01 3.17138E-35
7.15256E-01 3.08341E-35
7.19186E-01 2.97756E-35
7.23099E-01 2.85657E-35
7.26995E-01 2.72316E-35
7.30874E-01 2.58002E-35
7.34736E-01 2.42975E-35
7.38579E-01 2.27478E-35
7.42405E-01 2.11739E-35
7.46212E-01 1.95964E-35
7.50000E-01 1.80336E-35
7.53769E-01 1.65019E-35
7.57519E-01 1.50148E-35
7.61249E-01 1.35842E-35
7.64960E-01 1.22192E-35
7.68650E-01 1.09273E-35
7.72320E-01 9.71385E-36
7.75968E-01 8.58258E-36
7.79596E-01 7.53541E-36
7.83203E-01 6.57310E-36
7.86788E-01 5.69502E-36
7.90351E-01 4.89957E-36
7.93893E-01 4.18420E-36
7.97411E-01 3.54572E-36
8.00908E-01 2.98034E-36
8.04381E-01 2.48380E-36
8.07831E-01 2.05160E-36
8.11257E-01 1.67900E-36
8.14660E-01 1.36119E-36
8.18039E-01 1.09334E-36
8.21394E-01 8.70695E-37
8.24724E-01 6.88606E-37
8.28030E-01 5.42606E-37
8.31310E-01 4.28430E-37
8.34565E-01 3.42070E-37
8.37795E-01 2.79761E-37
8.40999E-01 2.38019E-37
8.44177E-01 2.13650E-37
8.47329E-01 2.03715E-37
8.50455E-01 2.05601E-37
8.53553E-01 2.16919E-37
8.56625E-01 2.35570E-37
8.59670E-01 2.59709E-37
8.62687E-01 2.87704E-37
8.65677E-01 3.18170E-37
8.68639E-01 3.49900E-37
8.71572E-01 3.81902E-37
8.74478E-01 4.13326E-37
8.77355E-01 4.43506E-37
8.80203E-01 4.71873E-37
8.83022E-01 4.98034E-37
8.85812E-01 5.21655E-37
8.88573E-01 5.42508E-37
8.91304E-01 5.60488E-37
8.94005E-01 5.75504E-37
8.96677E-01 5.87552E-37
8.99318E-01 5.96647E-37
9.01928E-01 6.02915E-37
9.04508E-01 6.06400E-37
9.07058E-01 6.07313E-37
9.09576E-01 6.05780E-37
9.12063E-01 6.01944E-37
9.14519E-01 5.96021E-37
9.16943E-01 5.88180E-37
9.19335E-01 5.78618E-37
9.21696E-01 5.67497E-37
9.24024E-01 5.55021E-37
9.26320E-01 5.41348E-37
9.28584E-01 5.26679E-37
9.30815E-01 5.11154E-37
9.33013E-01 4.94917E-37
9.35178E-01 4.78124E-37
9.37310E-01 4.60936E-37
9.39409E-01 4.43413E-37
9.41474E-01 4.25726E-37
9.43505E-01 4.07950E-37
9.45503E-01 3.90196E-37
9.47467E-01 3.72537E-37
9.49397E-01 3.55037E-37
9.51293E-01 3.37805E-37
9.53154E-01 3.20853E-37
9.54981E-01 3.04248E-37
9.56773E-01 2.88030E-37
9.58530E-01 2.72241E-37
9.60252E-01 2.56919E-37
9.61940E-01 2.42075E-37
9.63592E-01 2.27734E-37
9.65209E-01 2.13918E-37
9.66790E-01 2.00622E-37
9.68336E-01 1.87865E-37
9.69846E-01 1.75644E-37
9.71321E-01 1.63958E-37
9.72759E-01 1.52813E-37
9.74162E-01 1.42194E-37
9.75528E-01 1.32105E-37
9.76858E-01 1.22519E-37
9.78152E-01 1.13440E-37
9.79410E-01 1.04843E-37
9.80631E-01 9.67299E-38
9.81815E-01 8.90697E-38
9.82963E-01 8.18577E-38
9.84074E-01 7.50688E-38
9.85148E-01 6.86947E-38
9.86185E-01 6.27140E-38
9.87185E-01 5.71130E-38
9.88148E-01 5.18725E-38
9.89074E-01 4.69820E-38
9.89962E-01 4.24110E-38
9.90814E-01 3.81628E-38
9.91627E-01 3.42116E-38
9.92404E-01 3.05438E-38
9.93143E-01 2.71444E-38
9.93844E-01 2.40071E-38
9.94508E-01 2.11098E-38
9.95134E-01 1.84456E-38
9.95722E-01 1.60022E-38
9.96273E-01 1.37665E-38
9.96786E-01 1.17333E-38
9.97261E-01 9.88567E-39
9.97698E-01 8.22140E-39
9.98097E-01 6.73247E-39
9.98459E-01 5.40662E-39
9.98782E-01 4.23882E-39
9.99067E-01 3.22415E-39
9.99315E-01 2.35556E-39
9.99524E-01 1.62780E-39
9.99695E-01 1.03990E-39
9.99829E-01 5.86443E-40
9.99924E-01 2.63402E-40
9.99981E-01 7.13162E-41
1.00000E+00 7.10877E-42
