 #
 # Subroutine ELSEPA. Elastic scattering of electrons and positrons
 #                    by neutral atoms and positive ions
 #
 # Projectile: electron
 # Kinetic energy = 7.00000E+06 eV = 2.57245E+05 a.u.
 #
 # WARNING: High-energy factorization with free-atom DF screening.
 #          Absorption, polarization and exchange corrections are
 #          switched off.
 #          Phase shifts are calculated for the bare nucleus.
 #          Scattering amplitudes are not evaluated.
 #
 # Element:  U,  Z =  92,  atomic weight = 2.38029E+02 g/mol
 #
 # Nuclear model: Fermi distribution
 #                Average radius = 6.63122E-13 cm
 #                Skin thickness = 5.46000E-14 cm
 #
 # Number of electrons = 92
 #
 # Total elastic cross section = 1.17911E-17 cm**2 = 4.21069E-01 a0**2
 # 1st transport cross section = 2.66080E-22 cm**2 = 9.50189E-06 a0**2
 # 2nd transport cross section = 7.07764E-22 cm**2 = 2.52747E-05 a0**2
 #
 #
 # Differential cross section:                       MU=(1-COS(THETA))/2
 #
 #  THETA        MU          DCS          DCS        Sherman      error
 #  (deg)                 (cm**2/sr)   (a0**2/sr)    function
 #----------------------------------------------------------------------
0.00000E+00 7.45949E-12
7.61557E-13 7.45932E-12
1.18994E-12 7.45922E-12
1.71346E-12 7.45910E-12
2.33225E-12 7.45897E-12
3.04617E-12 7.45881E-12
3.85530E-12 7.45863E-12
4.75964E-12 7.45843E-12
5.75917E-12 7.45820E-12
6.85391E-12 7.45796E-12
8.04379E-12 7.45769E-12
9.32893E-12 7.45741E-12
1.07092E-11 7.45710E-12
1.21847E-11 7.45677E-12
1.37554E-11 7.45642E-12
1.54213E-11 7.45605E-12
1.71823E-11 7.45566E-12
1.90386E-11 7.45525E-12
2.09900E-11 7.45482E-12
2.30367E-11 7.45436E-12
2.51785E-11 7.45389E-12
2.74156E-11 7.45339E-12
2.97478E-11 7.45287E-12
3.21752E-11 7.45233E-12
3.46979E-11 7.45177E-12
3.73157E-11 7.45119E-12
4.00286E-11 7.45059E-12
4.28368E-11 7.44997E-12
4.57402E-11 7.44932E-12
4.87388E-11 7.44866E-12
5.18325E-11 7.44797E-12
5.50215E-11 7.44726E-12
5.83057E-11 7.44654E-12
6.16850E-11 7.44579E-12
6.51595E-11 7.44502E-12
6.87293E-11 7.44423E-12
7.23943E-11 7.44342E-12
7.61544E-11 7.44258E-12
1.18991E-10 7.43311E-12
1.71347E-10 7.42155E-12
2.33223E-10 7.40794E-12
3.04617E-10 7.39229E-12
3.85531E-10 7.37461E-12
4.75965E-10 7.35494E-12
5.75917E-10 7.33330E-12
6.85389E-10 7.30972E-12
8.04380E-10 7.28424E-12
9.32891E-10 7.25689E-12
1.07092E-09 7.22770E-12
1.21847E-09 7.19671E-12
1.37554E-09 7.16397E-12
1.54213E-09 7.12953E-12
1.71823E-09 7.09341E-12
1.90386E-09 7.05567E-12
2.09900E-09 7.01637E-12
2.30367E-09 6.97554E-12
2.51785E-09 6.93324E-12
2.74156E-09 6.88952E-12
2.97478E-09 6.84444E-12
3.21752E-09 6.79804E-12
3.46978E-09 6.75039E-12
3.73156E-09 6.70153E-12
4.00286E-09 6.65153E-12
4.28368E-09 6.60055E-12
4.57402E-09 6.54854E-12
4.87388E-09 6.49551E-12
5.18326E-09 6.44152E-12
5.50215E-09 6.38662E-12
5.83057E-09 6.33087E-12
6.16850E-09 6.27431E-12
6.51596E-09 6.21715E-12
6.87293E-09 6.15956E-12
7.23942E-09 6.10132E-12
7.61544E-09 6.04248E-12
1.18991E-08 5.43544E-12
1.71347E-08 4.82671E-12
2.33223E-08 4.24981E-12
3.04617E-08 3.72390E-12
3.85531E-08 3.25892E-12
4.75965E-08 2.85460E-12
5.75917E-08 2.50688E-12
6.85389E-08 2.20988E-12
8.04380E-08 1.95611E-12
9.32891E-08 1.73894E-12
1.07092E-07 1.55228E-12
1.21847E-07 1.39118E-12
1.37554E-07 1.25116E-12
1.54213E-07 1.12883E-12
1.71823E-07 1.02157E-12
1.90386E-07 9.26660E-13
2.09900E-07 8.42626E-13
2.30367E-07 7.67942E-13
2.51785E-07 7.01048E-13
2.74156E-07 6.41277E-13
2.97478E-07 5.87608E-13
3.21752E-07 5.39251E-13
3.46978E-07 4.95750E-13
3.73156E-07 4.56404E-13
4.00286E-07 4.20821E-13
4.28368E-07 3.87053E-13
4.57402E-07 3.56469E-13
4.87388E-07 3.29391E-13
5.18325E-07 3.05336E-13
5.50215E-07 2.83898E-13
5.83057E-07 2.64733E-13
6.16850E-07 2.47547E-13
6.51596E-07 2.31216E-13
6.87293E-07 2.15225E-13
7.23942E-07 2.00835E-13
7.61543E-07 1.87852E-13
1.18991E-06 1.03372E-13
1.71347E-06 6.17359E-14
2.33223E-06 3.91785E-14
3.04617E-06 2.61702E-14
3.85531E-06 1.81579E-14
4.75964E-06 1.30356E-14
5.75916E-06 9.62532E-15
6.85388E-06 7.25536E-15
8.04378E-06 5.57525E-15
9.32888E-06 4.35219E-15
1.07092E-05 3.44304E-15
1.21846E-05 2.75604E-15
1.37553E-05 2.23243E-15
1.54212E-05 1.82835E-15
1.71822E-05 1.51260E-15
1.90385E-05 1.26112E-15
2.09899E-05 1.06167E-15
2.30365E-05 9.00236E-16
2.51783E-05 7.68194E-16
2.74153E-05 6.59614E-16
2.97475E-05 5.69625E-16
3.21749E-05 4.94515E-16
3.46974E-05 4.31507E-16
3.73152E-05 3.78258E-16
4.00281E-05 3.33025E-16
4.28362E-05 2.94197E-16
4.57395E-05 2.60987E-16
4.87380E-05 2.32542E-16
5.18317E-05 2.07665E-16
5.50205E-05 1.86069E-16
5.83045E-05 1.67331E-16
6.16838E-05 1.50776E-16
6.51582E-05 1.36271E-16
6.87277E-05 1.23548E-16
7.23925E-05 1.12197E-16
7.61524E-05 1.02157E-16
9.21439E-05 7.17585E-17
1.09658E-04 5.18759E-17
1.28695E-04 3.84499E-17
1.49255E-04 2.90984E-17
1.71338E-04 2.24152E-17
1.94942E-04 1.75446E-17
2.20070E-04 1.39240E-17
2.46720E-04 1.11897E-17
2.74892E-04 9.09578E-18
3.04586E-04 7.46896E-18
3.35803E-04 6.19113E-18
3.68542E-04 5.17603E-18
4.02802E-04 4.36100E-18
4.38585E-04 3.70094E-18
4.75889E-04 3.16151E-18
5.14715E-04 2.71715E-18
5.55063E-04 2.34846E-18
5.96931E-04 2.04036E-18
6.40321E-04 1.78128E-18
6.85233E-04 1.56216E-18
7.31665E-04 1.37574E-18
7.79618E-04 1.21636E-18
8.29092E-04 1.07945E-18
8.80086E-04 9.61269E-19
9.32601E-04 8.58853E-19
9.86636E-04 7.69728E-19
1.04219E-03 6.91868E-19
1.09927E-03 6.23626E-19
1.15786E-03 5.63589E-19
1.21797E-03 5.10613E-19
1.27961E-03 4.63727E-19
1.34276E-03 4.22097E-19
1.40743E-03 3.85044E-19
1.47362E-03 3.51973E-19
1.54133E-03 3.22380E-19
1.61056E-03 2.95838E-19
1.68131E-03 2.71976E-19
1.75357E-03 2.50475E-19
1.82735E-03 2.31063E-19
1.90265E-03 2.13498E-19
1.97947E-03 1.97575E-19
2.05780E-03 1.83113E-19
2.13765E-03 1.69952E-19
2.21902E-03 1.57957E-19
2.30190E-03 1.47005E-19
2.38630E-03 1.36988E-19
2.47222E-03 1.27814E-19
2.55965E-03 1.19397E-19
2.64859E-03 1.11664E-19
2.73905E-03 1.04550E-19
2.83103E-03 9.79950E-20
2.92452E-03 9.19484E-20
3.01952E-03 8.63631E-20
3.11604E-03 8.11972E-20
3.21407E-03 7.64138E-20
3.31362E-03 7.19792E-20
3.41468E-03 6.78632E-20
3.51725E-03 6.40388E-20
3.62133E-03 6.04815E-20
3.72692E-03 5.71691E-20
3.83403E-03 5.40818E-20
3.94265E-03 5.12011E-20
4.05278E-03 4.85110E-20
4.16442E-03 4.59960E-20
4.27757E-03 4.36435E-20
4.39223E-03 4.14398E-20
4.50840E-03 3.93749E-20
4.62608E-03 3.74376E-20
4.74527E-03 3.56190E-20
4.86597E-03 3.39102E-20
4.98817E-03 3.23034E-20
5.11188E-03 3.07915E-20
5.23711E-03 2.93675E-20
5.36383E-03 2.80257E-20
5.49207E-03 2.67601E-20
5.62181E-03 2.55659E-20
5.75306E-03 2.44379E-20
5.88581E-03 2.33722E-20
6.02007E-03 2.23643E-20
6.15583E-03 2.14107E-20
6.29310E-03 2.05079E-20
6.43187E-03 1.96526E-20
6.57214E-03 1.88418E-20
6.71392E-03 1.80728E-20
6.85720E-03 1.73431E-20
7.00198E-03 1.66501E-20
7.14827E-03 1.59919E-20
7.29605E-03 1.53661E-20
7.44534E-03 1.47710E-20
7.59612E-03 1.42047E-20
7.97965E-03 1.29046E-20
8.37255E-03 1.17514E-20
8.77480E-03 1.07257E-20
9.18641E-03 9.81086E-21
9.60736E-03 8.99268E-21
1.00376E-02 8.25917E-21
1.04773E-02 7.59995E-21
1.09262E-02 7.00614E-21
1.13844E-02 6.47009E-21
1.18520E-02 5.98512E-21
1.23288E-02 5.54550E-21
1.28150E-02 5.14618E-21
1.33104E-02 4.78280E-21
1.38150E-02 4.45153E-21
1.43290E-02 4.14899E-21
1.48521E-02 3.87223E-21
1.53845E-02 3.61864E-21
1.59262E-02 3.38591E-21
1.64770E-02 3.17202E-21
1.70371E-02 2.97513E-21
1.76063E-02 2.79365E-21
1.81848E-02 2.62613E-21
1.87724E-02 2.47131E-21
1.93692E-02 2.32802E-21
1.99751E-02 2.19525E-21
2.05901E-02 2.07207E-21
2.12143E-02 1.95767E-21
2.18476E-02 1.85128E-21
2.24900E-02 1.75224E-21
2.31415E-02 1.65994E-21
2.38021E-02 1.57384E-21
2.44717E-02 1.49343E-21
2.51504E-02 1.41827E-21
2.58382E-02 1.34794E-21
2.65349E-02 1.28207E-21
2.72407E-02 1.22032E-21
2.79555E-02 1.16239E-21
2.86793E-02 1.10798E-21
2.94120E-02 1.05685E-21
3.01537E-02 1.00875E-21
3.09043E-02 9.63469E-22
3.16639E-02 9.20807E-22
3.24324E-02 8.80582E-22
3.32098E-02 8.42625E-22
3.39961E-02 8.06783E-22
3.47912E-02 7.72915E-22
3.55952E-02 7.40887E-22
3.64081E-02 7.10579E-22
3.72297E-02 6.81882E-22
3.80602E-02 6.54688E-22
3.88995E-02 6.28905E-22
3.97476E-02 6.04444E-22
4.06044E-02 5.81222E-22
4.14700E-02 5.59163E-22
4.23443E-02 5.38197E-22
4.32273E-02 5.18259E-22
4.41190E-02 4.99285E-22
4.50194E-02 4.81222E-22
4.59284E-02 4.64014E-22
4.68461E-02 4.47613E-22
4.87074E-02 4.17050E-22
5.06030E-02 3.89200E-22
5.25328E-02 3.63774E-22
5.44967E-02 3.40515E-22
5.64946E-02 3.19200E-22
5.85262E-02 2.99632E-22
6.05914E-02 2.81638E-22
6.26901E-02 2.65064E-22
6.48222E-02 2.49773E-22
6.69873E-02 2.35644E-22
6.91854E-02 2.22570E-22
7.14163E-02 2.10455E-22
7.36799E-02 1.99212E-22
7.59760E-02 1.88765E-22
7.83043E-02 1.79045E-22
8.06647E-02 1.69989E-22
8.30571E-02 1.61542E-22
8.54812E-02 1.53654E-22
8.79369E-02 1.46278E-22
9.04240E-02 1.39375E-22
9.29422E-02 1.32906E-22
9.54915E-02 1.26838E-22
9.80716E-02 1.21140E-22
1.00682E-01 1.15784E-22
1.03323E-01 1.10745E-22
1.05995E-01 1.05999E-22
1.08696E-01 1.01525E-22
1.11427E-01 9.73046E-23
1.14188E-01 9.33189E-23
1.16978E-01 8.95517E-23
1.19797E-01 8.59883E-23
1.22645E-01 8.26150E-23
1.25522E-01 7.94190E-23
1.28428E-01 7.63887E-23
1.31361E-01 7.35131E-23
1.34323E-01 7.07825E-23
1.37313E-01 6.81878E-23
1.40330E-01 6.57205E-23
1.43375E-01 6.33726E-23
1.46447E-01 6.11368E-23
1.49545E-01 5.90064E-23
1.52671E-01 5.69754E-23
1.55823E-01 5.50378E-23
1.59001E-01 5.31880E-23
1.62205E-01 5.14210E-23
1.65435E-01 4.97323E-23
1.68690E-01 4.81177E-23
1.71970E-01 4.65727E-23
1.75276E-01 4.50935E-23
1.78606E-01 4.36766E-23
1.81961E-01 4.23190E-23
1.85340E-01 4.10174E-23
1.88743E-01 3.97685E-23
1.92169E-01 3.85699E-23
1.95619E-01 3.74191E-23
1.99092E-01 3.63137E-23
2.02589E-01 3.52511E-23
2.06107E-01 3.42294E-23
2.09649E-01 3.32466E-23
2.13212E-01 3.23009E-23
2.16797E-01 3.13904E-23
2.20404E-01 3.05134E-23
2.24032E-01 2.96684E-23
2.27680E-01 2.88539E-23
2.31350E-01 2.80685E-23
2.35040E-01 2.73108E-23
2.38751E-01 2.65796E-23
2.42481E-01 2.58738E-23
2.46231E-01 2.51922E-23
2.50000E-01 2.45338E-23
2.53788E-01 2.38974E-23
2.57595E-01 2.32823E-23
2.61421E-01 2.26875E-23
2.65264E-01 2.21121E-23
2.69126E-01 2.15553E-23
2.73005E-01 2.10164E-23
2.76901E-01 2.04946E-23
2.80814E-01 1.99892E-23
2.84744E-01 1.94996E-23
2.88691E-01 1.90252E-23
2.92653E-01 1.85652E-23
2.96632E-01 1.81193E-23
3.00625E-01 1.76868E-23
3.04634E-01 1.72672E-23
3.08658E-01 1.68600E-23
3.12697E-01 1.64647E-23
3.16749E-01 1.60810E-23
3.20816E-01 1.57083E-23
3.24896E-01 1.53463E-23
3.28990E-01 1.49946E-23
3.33097E-01 1.46528E-23
3.37216E-01 1.43205E-23
3.41348E-01 1.39974E-23
3.45492E-01 1.36833E-23
3.49647E-01 1.33777E-23
3.53814E-01 1.30803E-23
3.57992E-01 1.27910E-23
3.62181E-01 1.25093E-23
3.66381E-01 1.22352E-23
3.70590E-01 1.19682E-23
3.74810E-01 1.17082E-23
3.79039E-01 1.14549E-23
3.83277E-01 1.12081E-23
3.87524E-01 1.09676E-23
3.91780E-01 1.07332E-23
3.96044E-01 1.05047E-23
4.00316E-01 1.02819E-23
4.04596E-01 1.00647E-23
4.08882E-01 9.85276E-24
4.13176E-01 9.64604E-24
4.17476E-01 9.44434E-24
4.21783E-01 9.24751E-24
4.26095E-01 9.05542E-24
4.30413E-01 8.86789E-24
4.34737E-01 8.68481E-24
4.39065E-01 8.50605E-24
4.43398E-01 8.33146E-24
4.47736E-01 8.16094E-24
4.52077E-01 7.99435E-24
4.56422E-01 7.83159E-24
4.60770E-01 7.67256E-24
4.65122E-01 7.51713E-24
4.69476E-01 7.36521E-24
4.73832E-01 7.21672E-24
4.78190E-01 7.07153E-24
4.82550E-01 6.92958E-24
4.86912E-01 6.79078E-24
4.91274E-01 6.65504E-24
4.95637E-01 6.52228E-24
5.00000E-01 6.39245E-24
5.04363E-01 6.26523E-24
5.08726E-01 6.14064E-24
5.13088E-01 6.01870E-24
5.17450E-01 5.89935E-24
5.21810E-01 5.78251E-24
5.26168E-01 5.66812E-24
5.30524E-01 5.55612E-24
5.34878E-01 5.44645E-24
5.39230E-01 5.33904E-24
5.43578E-01 5.23383E-24
5.47923E-01 5.13078E-24
5.52264E-01 5.02983E-24
5.56602E-01 4.93092E-24
5.60935E-01 4.83400E-24
5.65263E-01 4.73903E-24
5.69587E-01 4.64595E-24
5.73905E-01 4.55473E-24
5.78217E-01 4.46531E-24
5.82524E-01 4.37766E-24
5.86824E-01 4.29172E-24
5.91118E-01 4.20746E-24
5.95404E-01 4.12484E-24
5.99684E-01 4.04382E-24
6.03956E-01 3.96437E-24
6.08220E-01 3.88644E-24
6.12476E-01 3.81000E-24
6.16723E-01 3.73502E-24
6.20961E-01 3.66147E-24
6.25190E-01 3.58930E-24
6.29410E-01 3.51850E-24
6.33619E-01 3.44902E-24
6.37819E-01 3.38085E-24
6.42008E-01 3.31394E-24
6.46186E-01 3.24828E-24
6.50353E-01 3.18383E-24
6.54508E-01 3.12058E-24
6.58652E-01 3.05848E-24
6.62784E-01 2.99753E-24
6.66903E-01 2.93769E-24
6.71010E-01 2.87894E-24
6.75104E-01 2.82125E-24
6.79184E-01 2.76461E-24
6.83251E-01 2.70900E-24
6.87303E-01 2.65438E-24
6.91342E-01 2.60075E-24
6.95366E-01 2.54807E-24
6.99375E-01 2.49634E-24
7.03368E-01 2.44553E-24
7.07347E-01 2.39562E-24
7.11309E-01 2.34660E-24
7.15256E-01 2.29845E-24
7.19186E-01 2.25114E-24
7.23099E-01 2.20467E-24
7.26995E-01 2.15902E-24
7.30874E-01 2.11416E-24
7.34736E-01 2.07010E-24
7.38579E-01 2.02680E-24
7.42405E-01 1.98426E-24
7.46212E-01 1.94246E-24
7.50000E-01 1.90139E-24
7.53769E-01 1.86103E-24
7.57519E-01 1.82138E-24
7.61249E-01 1.78241E-24
7.64960E-01 1.74411E-24
7.68650E-01 1.70648E-24
7.72320E-01 1.66950E-24
7.75968E-01 1.63315E-24
7.79596E-01 1.59744E-24
7.83203E-01 1.56234E-24
7.86788E-01 1.52784E-24
7.90351E-01 1.49394E-24
7.93893E-01 1.46062E-24
7.97411E-01 1.42788E-24
8.00908E-01 1.39570E-24
8.04381E-01 1.36407E-24
8.07831E-01 1.33299E-24
8.11257E-01 1.30245E-24
8.14660E-01 1.27243E-24
8.18039E-01 1.24292E-24
8.21394E-01 1.21393E-24
8.24724E-01 1.18544E-24
8.28030E-01 1.15744E-24
8.31310E-01 1.12993E-24
8.34565E-01 1.10289E-24
8.37795E-01 1.07632E-24
8.40999E-01 1.05021E-24
8.44177E-01 1.02456E-24
8.47329E-01 9.99352E-25
8.50455E-01 9.74586E-25
8.53553E-01 9.50254E-25
8.56625E-01 9.26348E-25
8.59670E-01 9.02864E-25
8.62687E-01 8.79793E-25
8.65677E-01 8.57130E-25
8.68639E-01 8.34869E-25
8.71572E-01 8.13004E-25
8.74478E-01 7.91530E-25
8.77355E-01 7.70440E-25
8.80203E-01 7.49729E-25
8.83022E-01 7.29392E-25
8.85812E-01 7.09423E-25
8.88573E-01 6.89818E-25
8.91304E-01 6.70572E-25
8.94005E-01 6.51679E-25
8.96677E-01 6.33135E-25
8.99318E-01 6.14935E-25
9.01928E-01 5.97074E-25
9.04508E-01 5.79549E-25
9.07058E-01 5.62354E-25
9.09576E-01 5.45487E-25
9.12063E-01 5.28941E-25
9.14519E-01 5.12714E-25
9.16943E-01 4.96801E-25
9.19335E-01 4.81199E-25
9.21696E-01 4.65904E-25
9.24024E-01 4.50912E-25
9.26320E-01 4.36220E-25
9.28584E-01 4.21823E-25
9.30815E-01 4.07720E-25
9.33013E-01 3.93905E-25
9.35178E-01 3.80377E-25
9.37310E-01 3.67132E-25
9.39409E-01 3.54166E-25
9.41474E-01 3.41478E-25
9.43505E-01 3.29063E-25
9.45503E-01 3.16920E-25
9.47467E-01 3.05044E-25
9.49397E-01 2.93434E-25
9.51293E-01 2.82087E-25
9.53154E-01 2.71001E-25
9.54981E-01 2.60172E-25
9.56773E-01 2.49598E-25
9.58530E-01 2.39278E-25
9.60252E-01 2.29208E-25
9.61940E-01 2.19386E-25
9.63592E-01 2.09811E-25
9.65209E-01 2.00480E-25
9.66790E-01 1.91390E-25
9.68336E-01 1.82541E-25
9.69846E-01 1.73930E-25
9.71321E-01 1.65555E-25
9.72759E-01 1.57414E-25
9.74162E-01 1.49505E-25
9.75528E-01 1.41828E-25
9.76858E-01 1.34380E-25
9.78152E-01 1.27159E-25
9.79410E-01 1.20164E-25
9.80631E-01 1.13393E-25
9.81815E-01 1.06846E-25
9.82963E-01 1.00520E-25
9.84074E-01 9.44143E-26
9.85148E-01 8.85274E-26
9.86185E-01 8.28583E-26
9.87185E-01 7.74055E-26
9.88148E-01 7.21680E-26
9.89074E-01 6.71447E-26
9.89962E-01 6.23344E-26
9.90814E-01 5.77362E-26
9.91627E-01 5.33491E-26
9.92404E-01 4.91721E-26
9.93143E-01 4.52045E-26
9.93844E-01 4.14453E-26
9.94508E-01 3.78937E-26
9.95134E-01 3.45490E-26
9.95722E-01 3.14105E-26
9.96273E-01 2.84776E-26
9.96786E-01 2.57496E-26
9.97261E-01 2.32259E-26
9.97698E-01 2.09061E-26
9.98097E-01 1.87896E-26
9.98459E-01 1.68760E-26
9.98782E-01 1.51650E-26
9.99067E-01 1.36560E-26
9.99315E-01 1.23489E-26
9.99524E-01 1.12433E-26
9.99695E-01 1.03391E-26
9.99829E-01 9.63601E-27
9.99924E-01 9.13391E-27
9.99981E-01 8.83268E-27
1.00000E+00 8.73228E-27
