 #
 # Subroutine ELSEPA. Elastic scattering of electrons and positrons
 #                    by neutral atoms and positive ions
 #
 # Projectile: electron
 # Kinetic energy = 4.00000E+07 eV = 1.46997E+06 a.u.
 #
 # WARNING: High-energy factorization with free-atom DF screening.
 #          Absorption, polarization and exchange corrections are
 #          switched off.
 #          Phase shifts are calculated for the bare nucleus.
 #          Scattering amplitudes are not evaluated.
 #
 # Element:  U,  Z =  92,  atomic weight = 2.38029E+02 g/mol
 #
 # Nuclear model: Fermi distribution
 #                Average radius = 6.63122E-13 cm
 #                Skin thickness = 5.46000E-14 cm
 #
 # Number of electrons = 92
 #
 # Total elastic cross section = 1.17284E-17 cm**2 = 4.18829E-01 a0**2
 # 1st transport cross section = 9.79313E-24 cm**2 = 3.49719E-07 a0**2
 # 2nd transport cross section = 2.84017E-23 cm**2 = 1.01424E-06 a0**2
 #
 #
 # Differential cross section:                       MU=(1-COS(THETA))/2
 #
 #  THETA        MU          DCS          DCS        Sherman      error
 #  (deg)                 (cm**2/sr)   (a0**2/sr)    function
 #----------------------------------------------------------------------
0.00000E+00 2.17000E-10
7.61557E-13 2.16855E-10
1.18994E-12 2.16774E-10
1.71346E-12 2.16675E-10
2.33225E-12 2.16558E-10
3.04617E-12 2.16424E-10
3.85530E-12 2.16272E-10
4.75964E-12 2.16102E-10
5.75917E-12 2.15914E-10
6.85391E-12 2.15709E-10
8.04379E-12 2.15486E-10
9.32893E-12 2.15247E-10
1.07092E-11 2.14989E-10
1.21847E-11 2.14715E-10
1.37554E-11 2.14424E-10
1.54213E-11 2.14115E-10
1.71823E-11 2.13790E-10
1.90386E-11 2.13449E-10
2.09900E-11 2.13090E-10
2.30367E-11 2.12716E-10
2.51785E-11 2.12325E-10
2.74156E-11 2.11918E-10
2.97478E-11 2.11495E-10
3.21752E-11 2.11057E-10
3.46979E-11 2.10602E-10
3.73157E-11 2.10133E-10
4.00286E-11 2.09648E-10
4.28368E-11 2.09148E-10
4.57402E-11 2.08634E-10
4.87388E-11 2.08104E-10
5.18325E-11 2.07561E-10
5.50215E-11 2.07003E-10
5.83057E-11 2.06431E-10
6.16850E-11 2.05845E-10
6.51595E-11 2.05246E-10
6.87293E-11 2.04633E-10
7.23943E-11 2.04007E-10
7.61544E-11 2.03368E-10
1.18991E-10 1.96324E-10
1.71347E-10 1.88270E-10
2.33223E-10 1.79444E-10
3.04617E-10 1.70112E-10
3.85531E-10 1.60525E-10
4.75965E-10 1.50873E-10
5.75917E-10 1.41331E-10
6.85389E-10 1.32064E-10
8.04380E-10 1.23176E-10
9.32891E-10 1.14725E-10
1.07092E-09 1.06762E-10
1.21847E-09 9.93335E-11
1.37554E-09 9.24287E-11
1.54213E-09 8.60324E-11
1.71823E-09 8.01291E-11
1.90386E-09 7.47073E-11
2.09900E-09 6.97210E-11
2.30367E-09 6.51399E-11
2.51785E-09 6.09349E-11
2.74156E-09 5.70736E-11
2.97478E-09 5.35231E-11
3.21752E-09 5.02571E-11
3.46978E-09 4.72491E-11
3.73156E-09 4.44697E-11
4.00286E-09 4.19024E-11
4.28368E-09 3.95284E-11
4.57402E-09 3.73257E-11
4.87388E-09 3.52763E-11
5.18326E-09 3.33721E-11
5.50215E-09 3.16008E-11
5.83057E-09 2.99440E-11
6.16850E-09 2.83942E-11
6.51596E-09 2.69466E-11
6.87293E-09 2.55928E-11
7.23942E-09 2.43176E-11
7.61544E-09 2.31207E-11
1.18991E-08 1.43821E-11
1.71347E-08 9.26395E-12
2.33223E-08 6.32876E-12
3.04617E-08 4.46380E-12
3.85531E-08 3.23461E-12
4.75965E-08 2.41340E-12
5.75917E-08 1.84290E-12
6.85389E-08 1.42928E-12
8.04380E-08 1.12536E-12
9.32891E-08 9.00054E-13
1.07092E-07 7.29600E-13
1.21847E-07 5.97228E-13
1.37554E-07 4.94093E-13
1.54213E-07 4.12912E-13
1.71823E-07 3.48147E-13
1.90386E-07 2.95343E-13
2.09900E-07 2.52342E-13
2.30367E-07 2.17009E-13
2.51785E-07 1.87685E-13
2.74156E-07 1.62963E-13
2.97478E-07 1.42209E-13
3.21752E-07 1.24684E-13
3.46978E-07 1.09788E-13
3.73156E-07 9.68886E-14
4.00286E-07 8.58370E-14
4.28368E-07 7.63326E-14
4.57402E-07 6.81074E-14
4.87388E-07 6.09618E-14
5.18325E-07 5.47449E-14
5.50215E-07 4.93123E-14
5.83057E-07 4.45330E-14
6.16850E-07 4.03191E-14
6.51596E-07 3.65976E-14
6.87293E-07 3.32998E-14
7.23942E-07 3.03608E-14
7.61543E-07 2.77420E-14
1.18991E-06 1.24579E-14
1.71347E-06 6.40675E-15
2.33223E-06 3.62945E-15
3.04617E-06 2.21103E-15
3.85531E-06 1.42456E-15
4.75964E-06 9.58971E-16
5.75916E-06 6.68735E-16
6.85388E-06 4.80200E-16
8.04378E-06 3.53524E-16
9.32888E-06 2.65926E-16
1.07092E-05 2.03863E-16
1.21846E-05 1.58914E-16
1.37553E-05 1.25720E-16
1.54212E-05 1.00776E-16
1.71822E-05 8.17347E-17
1.90385E-05 6.69447E-17
2.09899E-05 5.54405E-17
2.30365E-05 4.62967E-17
2.51783E-05 3.89498E-17
2.74153E-05 3.29940E-17
2.97475E-05 2.81293E-17
3.21749E-05 2.41285E-17
3.46974E-05 2.08159E-17
3.73152E-05 1.80551E-17
4.00281E-05 1.57387E-17
4.28362E-05 1.37827E-17
4.57395E-05 1.21209E-17
4.87380E-05 1.07014E-17
5.18317E-05 9.48286E-18
5.50205E-05 8.43240E-18
5.83045E-05 7.52325E-18
6.16838E-05 6.73341E-18
6.51582E-05 6.04469E-18
6.87277E-05 5.44196E-18
7.23925E-05 4.91260E-18
7.61524E-05 4.44396E-18
9.21439E-05 3.05097E-18
1.09658E-04 2.16362E-18
1.28695E-04 1.57687E-18
1.49255E-04 1.17636E-18
1.71338E-04 8.95404E-19
1.94942E-04 6.93632E-19
2.20070E-04 5.45681E-19
2.46720E-04 4.35194E-19
2.74892E-04 3.51348E-19
3.04586E-04 2.86772E-19
3.35803E-04 2.36398E-19
3.68542E-04 1.96626E-19
4.02802E-04 1.64890E-19
4.38585E-04 1.39316E-19
4.75889E-04 1.18520E-19
5.14715E-04 1.01471E-19
5.55063E-04 8.73855E-20
5.96931E-04 7.56664E-20
6.40321E-04 6.58516E-20
6.85233E-04 5.75810E-20
7.31665E-04 5.05725E-20
7.79618E-04 4.46009E-20
8.29092E-04 3.94879E-20
8.80086E-04 3.50889E-20
9.32601E-04 3.12877E-20
9.86636E-04 2.79893E-20
1.04219E-03 2.51156E-20
1.09927E-03 2.26029E-20
1.15786E-03 2.03979E-20
1.21797E-03 1.84564E-20
1.27961E-03 1.67414E-20
1.34276E-03 1.52220E-20
1.40743E-03 1.38719E-20
1.47362E-03 1.26689E-20
1.54133E-03 1.15942E-20
1.61056E-03 1.06317E-20
1.68131E-03 9.76754E-21
1.75357E-03 8.98997E-21
1.82735E-03 8.28869E-21
1.90265E-03 7.65491E-21
1.97947E-03 7.08094E-21
2.05780E-03 6.56013E-21
2.13765E-03 6.08668E-21
2.21902E-03 5.65547E-21
2.30190E-03 5.26206E-21
2.38630E-03 4.90252E-21
2.47222E-03 4.57343E-21
2.55965E-03 4.27171E-21
2.64859E-03 3.99467E-21
2.73905E-03 3.73992E-21
2.83103E-03 3.50534E-21
2.92452E-03 3.28903E-21
3.01952E-03 3.08931E-21
3.11604E-03 2.90466E-21
3.21407E-03 2.73373E-21
3.31362E-03 2.57533E-21
3.41468E-03 2.42835E-21
3.51725E-03 2.29181E-21
3.62133E-03 2.16484E-21
3.72692E-03 2.04664E-21
3.83403E-03 1.93649E-21
3.94265E-03 1.83373E-21
4.05278E-03 1.73777E-21
4.16442E-03 1.64809E-21
4.27757E-03 1.56419E-21
4.39223E-03 1.48563E-21
4.50840E-03 1.41199E-21
4.62608E-03 1.34292E-21
4.74527E-03 1.27808E-21
4.86597E-03 1.21716E-21
4.98817E-03 1.15987E-21
5.11188E-03 1.10596E-21
5.23711E-03 1.05519E-21
5.36383E-03 1.00734E-21
5.49207E-03 9.62203E-22
5.62181E-03 9.19606E-22
5.75306E-03 8.79378E-22
5.88581E-03 8.41358E-22
6.02007E-03 8.05397E-22
6.15583E-03 7.71366E-22
6.29310E-03 7.39147E-22
6.43187E-03 7.08614E-22
6.57214E-03 6.79664E-22
6.71392E-03 6.52205E-22
6.85720E-03 6.26140E-22
7.00198E-03 6.01383E-22
7.14827E-03 5.77858E-22
7.29605E-03 5.55492E-22
7.44534E-03 5.34216E-22
7.59612E-03 5.13964E-22
7.97965E-03 4.67446E-22
8.37255E-03 4.26155E-22
8.77480E-03 3.89397E-22
9.18641E-03 3.56583E-22
9.60736E-03 3.27211E-22
1.00376E-02 3.00852E-22
1.04773E-02 2.77139E-22
1.09262E-02 2.55758E-22
1.13844E-02 2.36434E-22
1.18520E-02 2.18933E-22
1.23288E-02 2.03050E-22
1.28150E-02 1.88607E-22
1.33104E-02 1.75448E-22
1.38150E-02 1.63437E-22
1.43290E-02 1.52454E-22
1.48521E-02 1.42396E-22
1.53845E-02 1.33168E-22
1.59262E-02 1.24690E-22
1.64770E-02 1.16890E-22
1.70371E-02 1.09706E-22
1.76063E-02 1.03067E-22
1.81848E-02 9.69268E-23
1.87724E-02 9.12444E-23
1.93692E-02 8.59788E-23
1.99751E-02 8.10933E-23
2.05901E-02 7.65550E-23
2.12143E-02 7.23342E-23
2.18476E-02 6.84044E-23
2.24900E-02 6.47415E-23
2.31415E-02 6.13236E-23
2.38021E-02 5.81311E-23
2.44717E-02 5.51461E-23
2.51504E-02 5.23524E-23
2.58382E-02 4.97353E-23
2.65349E-02 4.72814E-23
2.72407E-02 4.49783E-23
2.79555E-02 4.28151E-23
2.86793E-02 4.07813E-23
2.94120E-02 3.88678E-23
3.01537E-02 3.70660E-23
3.09043E-02 3.53680E-23
3.16639E-02 3.37666E-23
3.24324E-02 3.22552E-23
3.32098E-02 3.08278E-23
3.39961E-02 2.94786E-23
3.47912E-02 2.82027E-23
3.55952E-02 2.69951E-23
3.64081E-02 2.58514E-23
3.72297E-02 2.47677E-23
3.80602E-02 2.37400E-23
3.88995E-02 2.27650E-23
3.97476E-02 2.18394E-23
4.06044E-02 2.09601E-23
4.14700E-02 2.01244E-23
4.23443E-02 1.93297E-23
4.32273E-02 1.85736E-23
4.41190E-02 1.78537E-23
4.50194E-02 1.71681E-23
4.59284E-02 1.65148E-23
4.68461E-02 1.58919E-23
4.87074E-02 1.47307E-23
5.06030E-02 1.36722E-23
5.25328E-02 1.27057E-23
5.44967E-02 1.18216E-23
5.64946E-02 1.10116E-23
5.85262E-02 1.02683E-23
6.05914E-02 9.58520E-24
6.26901E-02 8.95652E-24
6.48222E-02 8.37711E-24
6.69873E-02 7.84240E-24
6.91854E-02 7.34833E-24
7.14163E-02 6.89122E-24
7.36799E-02 6.46783E-24
7.59760E-02 6.07520E-24
7.83043E-02 5.71072E-24
8.06647E-02 5.37199E-24
8.30571E-02 5.05689E-24
8.54812E-02 4.76347E-24
8.79369E-02 4.48998E-24
9.04240E-02 4.23484E-24
9.29422E-02 3.99660E-24
9.54915E-02 3.77395E-24
9.80716E-02 3.56570E-24
1.00682E-01 3.37077E-24
1.03323E-01 3.18816E-24
1.05995E-01 3.01696E-24
1.08696E-01 2.85634E-24
1.11427E-01 2.70556E-24
1.14188E-01 2.56390E-24
1.16978E-01 2.43072E-24
1.19797E-01 2.30545E-24
1.22645E-01 2.18754E-24
1.25522E-01 2.07649E-24
1.28428E-01 1.97184E-24
1.31361E-01 1.87316E-24
1.34323E-01 1.78007E-24
1.37313E-01 1.69221E-24
1.40330E-01 1.60923E-24
1.43375E-01 1.53082E-24
1.46447E-01 1.45671E-24
1.49545E-01 1.38662E-24
1.52671E-01 1.32030E-24
1.55823E-01 1.25752E-24
1.59001E-01 1.19807E-24
1.62205E-01 1.14174E-24
1.65435E-01 1.08836E-24
1.68690E-01 1.03775E-24
1.71970E-01 9.89742E-25
1.75276E-01 9.44189E-25
1.78606E-01 9.00951E-25
1.81961E-01 8.59895E-25
1.85340E-01 8.20898E-25
1.88743E-01 7.83844E-25
1.92169E-01 7.48625E-25
1.95619E-01 7.15139E-25
1.99092E-01 6.83292E-25
2.02589E-01 6.52994E-25
2.06107E-01 6.24161E-25
2.09649E-01 5.96716E-25
2.13212E-01 5.70584E-25
2.16797E-01 5.45695E-25
2.20404E-01 5.21984E-25
2.24032E-01 4.99391E-25
2.27680E-01 4.77856E-25
2.31350E-01 4.57325E-25
2.35040E-01 4.37747E-25
2.38751E-01 4.19073E-25
2.42481E-01 4.01258E-25
2.46231E-01 3.84259E-25
2.50000E-01 3.68034E-25
2.53788E-01 3.52545E-25
2.57595E-01 3.37756E-25
2.61421E-01 3.23632E-25
2.65264E-01 3.10142E-25
2.69126E-01 2.97253E-25
2.73005E-01 2.84937E-25
2.76901E-01 2.73167E-25
2.80814E-01 2.61916E-25
2.84744E-01 2.51160E-25
2.88691E-01 2.40875E-25
2.92653E-01 2.31038E-25
2.96632E-01 2.21630E-25
3.00625E-01 2.12629E-25
3.04634E-01 2.04017E-25
3.08658E-01 1.95776E-25
3.12697E-01 1.87889E-25
3.16749E-01 1.80340E-25
3.20816E-01 1.73112E-25
3.24896E-01 1.66192E-25
3.28990E-01 1.59565E-25
3.33097E-01 1.53218E-25
3.37216E-01 1.47139E-25
3.41348E-01 1.41316E-25
3.45492E-01 1.35736E-25
3.49647E-01 1.30390E-25
3.53814E-01 1.25267E-25
3.57992E-01 1.20357E-25
3.62181E-01 1.15651E-25
3.66381E-01 1.11140E-25
3.70590E-01 1.06815E-25
3.74810E-01 1.02668E-25
3.79039E-01 9.86909E-26
3.83277E-01 9.48772E-26
3.87524E-01 9.12195E-26
3.91780E-01 8.77110E-26
3.96044E-01 8.43453E-26
4.00316E-01 8.11164E-26
4.04596E-01 7.80183E-26
4.08882E-01 7.50455E-26
4.13176E-01 7.21927E-26
4.17476E-01 6.94548E-26
4.21783E-01 6.68269E-26
4.26095E-01 6.43044E-26
4.30413E-01 6.18828E-26
4.34737E-01 5.95580E-26
4.39065E-01 5.73259E-26
4.43398E-01 5.51826E-26
4.47736E-01 5.31244E-26
4.52077E-01 5.11477E-26
4.56422E-01 4.92493E-26
4.60770E-01 4.74258E-26
4.65122E-01 4.56741E-26
4.69476E-01 4.39914E-26
4.73832E-01 4.23747E-26
4.78190E-01 4.08214E-26
4.82550E-01 3.93288E-26
4.86912E-01 3.78944E-26
4.91274E-01 3.65160E-26
4.95637E-01 3.51912E-26
5.00000E-01 3.39178E-26
5.04363E-01 3.26937E-26
5.08726E-01 3.15170E-26
5.13088E-01 3.03857E-26
5.17450E-01 2.92980E-26
5.21810E-01 2.82521E-26
5.26168E-01 2.72463E-26
5.30524E-01 2.62791E-26
5.34878E-01 2.53488E-26
5.39230E-01 2.44541E-26
5.43578E-01 2.35934E-26
5.47923E-01 2.27655E-26
5.52264E-01 2.19689E-26
5.56602E-01 2.12025E-26
5.60935E-01 2.04651E-26
5.65263E-01 1.97554E-26
5.69587E-01 1.90725E-26
5.73905E-01 1.84152E-26
5.78217E-01 1.77825E-26
5.82524E-01 1.71734E-26
5.86824E-01 1.65871E-26
5.91118E-01 1.60226E-26
5.95404E-01 1.54790E-26
5.99684E-01 1.49556E-26
6.03956E-01 1.44515E-26
6.08220E-01 1.39660E-26
6.12476E-01 1.34984E-26
6.16723E-01 1.30478E-26
6.20961E-01 1.26138E-26
6.25190E-01 1.21956E-26
6.29410E-01 1.17927E-26
6.33619E-01 1.14043E-26
6.37819E-01 1.10300E-26
6.42008E-01 1.06692E-26
6.46186E-01 1.03214E-26
6.50353E-01 9.98605E-27
6.54508E-01 9.66271E-27
6.58652E-01 9.35090E-27
6.62784E-01 9.05017E-27
6.66903E-01 8.76009E-27
6.71010E-01 8.48026E-27
6.75104E-01 8.21028E-27
6.79184E-01 7.94976E-27
6.83251E-01 7.69836E-27
6.87303E-01 7.45570E-27
6.91342E-01 7.22147E-27
6.95366E-01 6.99534E-27
6.99375E-01 6.77699E-27
7.03368E-01 6.56613E-27
7.07347E-01 6.36248E-27
7.11309E-01 6.16577E-27
7.15256E-01 5.97571E-27
7.19186E-01 5.79208E-27
7.23099E-01 5.61461E-27
7.26995E-01 5.44308E-27
7.30874E-01 5.27727E-27
7.34736E-01 5.11696E-27
7.38579E-01 4.96193E-27
7.42405E-01 4.81200E-27
7.46212E-01 4.66698E-27
7.50000E-01 4.52667E-27
7.53769E-01 4.39090E-27
7.57519E-01 4.25951E-27
7.61249E-01 4.13233E-27
7.64960E-01 4.00920E-27
7.68650E-01 3.88998E-27
7.72320E-01 3.77452E-27
7.75968E-01 3.66269E-27
7.79596E-01 3.55434E-27
7.83203E-01 3.44936E-27
7.86788E-01 3.34761E-27
7.90351E-01 3.24899E-27
7.93893E-01 3.15338E-27
7.97411E-01 3.06066E-27
8.00908E-01 2.97075E-27
8.04381E-01 2.88352E-27
8.07831E-01 2.79890E-27
8.11257E-01 2.71678E-27
8.14660E-01 2.63709E-27
8.18039E-01 2.55972E-27
8.21394E-01 2.48460E-27
8.24724E-01 2.41166E-27
8.28030E-01 2.34081E-27
8.31310E-01 2.27199E-27
8.34565E-01 2.20511E-27
8.37795E-01 2.14013E-27
8.40999E-01 2.07697E-27
8.44177E-01 2.01557E-27
8.47329E-01 1.95587E-27
8.50455E-01 1.89781E-27
8.53553E-01 1.84134E-27
8.56625E-01 1.78641E-27
8.59670E-01 1.73297E-27
8.62687E-01 1.68096E-27
8.65677E-01 1.63034E-27
8.68639E-01 1.58108E-27
8.71572E-01 1.53311E-27
8.74478E-01 1.48641E-27
8.77355E-01 1.44093E-27
8.80203E-01 1.39663E-27
8.83022E-01 1.35349E-27
8.85812E-01 1.31145E-27
8.88573E-01 1.27050E-27
8.91304E-01 1.23060E-27
8.94005E-01 1.19171E-27
8.96677E-01 1.15381E-27
8.99318E-01 1.11686E-27
9.01928E-01 1.08085E-27
9.04508E-01 1.04574E-27
9.07058E-01 1.01152E-27
9.09576E-01 9.78143E-28
9.12063E-01 9.45603E-28
9.14519E-01 9.13874E-28
9.16943E-01 8.82933E-28
9.19335E-01 8.52760E-28
9.21696E-01 8.23336E-28
9.24024E-01 7.94641E-28
9.26320E-01 7.66658E-28
9.28584E-01 7.39369E-28
9.30815E-01 7.12758E-28
9.33013E-01 6.86809E-28
9.35178E-01 6.61506E-28
9.37310E-01 6.36835E-28
9.39409E-01 6.12781E-28
9.41474E-01 5.89332E-28
9.43505E-01 5.66475E-28
9.45503E-01 5.44196E-28
9.47467E-01 5.22484E-28
9.49397E-01 5.01328E-28
9.51293E-01 4.80717E-28
9.53154E-01 4.60641E-28
9.54981E-01 4.41089E-28
9.56773E-01 4.22052E-28
9.58530E-01 4.03520E-28
9.60252E-01 3.85486E-28
9.61940E-01 3.67941E-28
9.63592E-01 3.50876E-28
9.65209E-01 3.34284E-28
9.66790E-01 3.18158E-28
9.68336E-01 3.02490E-28
9.69846E-01 2.87275E-28
9.71321E-01 2.72505E-28
9.72759E-01 2.58174E-28
9.74162E-01 2.44277E-28
9.75528E-01 2.30807E-28
9.76858E-01 2.17761E-28
9.78152E-01 2.05132E-28
9.79410E-01 1.92915E-28
9.80631E-01 1.81107E-28
9.81815E-01 1.69702E-28
9.82963E-01 1.58697E-28
9.84074E-01 1.48087E-28
9.85148E-01 1.37869E-28
9.86185E-01 1.28038E-28
9.87185E-01 1.18593E-28
9.88148E-01 1.09528E-28
9.89074E-01 1.00842E-28
9.89962E-01 9.25316E-29
9.90814E-01 8.45935E-29
9.91627E-01 7.70253E-29
9.92404E-01 6.98246E-29
9.93143E-01 6.29890E-29
9.93844E-01 5.65165E-29
9.94508E-01 5.04049E-29
9.95134E-01 4.46524E-29
9.95722E-01 3.92571E-29
9.96273E-01 3.42174E-29
9.96786E-01 2.95318E-29
9.97261E-01 2.51988E-29
9.97698E-01 2.12171E-29
9.98097E-01 1.75856E-29
9.98459E-01 1.43032E-29
9.98782E-01 1.13688E-29
9.99067E-01 8.78170E-30
9.99315E-01 6.54105E-30
9.99524E-01 4.64621E-30
9.99695E-01 3.09663E-30
9.99829E-01 1.89187E-30
9.99924E-01 1.03158E-30
9.99981E-01 5.15501E-31
1.00000E+00 3.43492E-31
