 #
 # Subroutine ELSEPA. Elastic scattering of electrons and positrons
 #                    by neutral atoms and positive ions
 #
 # Projectile: electron
 # Kinetic energy = 2.00000E+08 eV = 7.34987E+06 a.u.
 #
 # WARNING: High-energy factorization with free-atom DF screening.
 #          Absorption, polarization and exchange corrections are
 #          switched off.
 #          Phase shifts are calculated for the bare nucleus.
 #          Scattering amplitudes are not evaluated.
 #
 # Element:  U,  Z =  92,  atomic weight = 2.38029E+02 g/mol
 #
 # Nuclear model: Fermi distribution
 #                Average radius = 6.63122E-13 cm
 #                Skin thickness = 5.46000E-14 cm
 #
 # Number of electrons = 92
 #
 # Total elastic cross section = 1.17264E-17 cm**2 = 4.18757E-01 a0**2
 # 1st transport cross section = 3.93412E-25 cm**2 = 1.40490E-08 a0**2
 # 2nd transport cross section = 1.17752E-24 cm**2 = 4.20499E-08 a0**2
 #
 #
 # Differential cross section:                       MU=(1-COS(THETA))/2
 #
 #  THETA        MU          DCS          DCS        Sherman      error
 #  (deg)                 (cm**2/sr)   (a0**2/sr)    function
 #----------------------------------------------------------------------
0.00000E+00 5.31606E-09
7.61557E-13 5.23076E-09
1.18994E-12 5.18382E-09
1.71346E-12 5.12741E-09
2.33225E-12 5.06206E-09
3.04617E-12 4.98839E-09
3.85530E-12 4.90707E-09
4.75964E-12 4.81880E-09
5.75917E-12 4.72435E-09
6.85391E-12 4.62465E-09
8.04379E-12 4.52006E-09
9.32893E-12 4.41156E-09
1.07092E-11 4.30017E-09
1.21847E-11 4.18605E-09
1.37554E-11 4.07044E-09
1.54213E-11 3.95382E-09
1.71823E-11 3.83637E-09
1.90386E-11 3.71960E-09
2.09900E-11 3.60321E-09
2.30367E-11 3.48762E-09
2.51785E-11 3.37420E-09
2.74156E-11 3.26219E-09
2.97478E-11 3.15236E-09
3.21752E-11 3.04530E-09
3.46979E-11 2.94043E-09
3.73157E-11 2.83872E-09
4.00286E-11 2.73996E-09
4.28368E-11 2.64382E-09
4.57402E-11 2.55139E-09
4.87388E-11 2.46182E-09
5.18325E-11 2.37520E-09
5.50215E-11 2.29217E-09
5.83057E-11 2.21194E-09
6.16850E-11 2.13481E-09
6.51595E-11 2.06086E-09
6.87293E-11 1.98959E-09
7.23943E-11 1.92137E-09
7.61544E-11 1.85590E-09
1.18991E-10 1.33226E-09
1.71347E-10 9.85379E-10
2.33223E-10 7.47379E-10
3.04617E-10 5.77921E-10
3.85531E-10 4.53557E-10
4.75965E-10 3.60333E-10
5.75917E-10 2.89299E-10
6.85389E-10 2.32642E-10
8.04380E-10 1.91360E-10
9.32891E-10 1.59272E-10
1.07092E-09 1.32590E-10
1.21847E-09 1.12182E-10
1.37554E-09 9.53058E-11
1.54213E-09 8.14268E-11
1.71823E-09 7.04085E-11
1.90386E-09 6.08390E-11
2.09900E-09 5.29836E-11
2.30367E-09 4.65134E-11
2.51785E-09 4.07822E-11
2.74156E-09 3.60361E-11
2.97478E-09 3.19724E-11
3.21752E-09 2.84053E-11
3.46978E-09 2.53931E-11
3.73156E-09 2.27382E-11
4.00286E-09 2.04222E-11
4.28368E-09 1.84349E-11
4.57402E-09 1.66443E-11
4.87388E-09 1.50866E-11
5.18326E-09 1.37230E-11
5.50215E-09 1.24890E-11
5.83057E-09 1.14084E-11
6.16850E-09 1.04427E-11
6.51596E-09 9.57164E-12
6.87293E-09 8.80097E-12
7.23942E-09 8.09985E-12
7.61544E-09 7.46875E-12
1.18991E-08 3.60234E-12
1.71347E-08 1.93575E-12
2.33223E-08 1.12962E-12
3.04617E-08 7.04063E-13
3.85531E-08 4.62143E-13
4.75965E-08 3.16260E-13
5.75917E-08 2.23702E-13
6.85389E-08 1.62728E-13
8.04380E-08 1.21205E-13
9.32891E-08 9.21751E-14
1.07092E-07 7.13806E-14
1.21847E-07 5.61621E-14
1.37554E-07 4.48080E-14
1.54213E-07 3.61911E-14
1.71823E-07 2.95520E-14
1.90386E-07 2.43671E-14
2.09900E-07 2.02688E-14
2.30367E-07 1.69950E-14
2.51785E-07 1.43538E-14
2.74156E-07 1.22037E-14
2.97478E-07 1.04404E-14
3.21752E-07 8.98368E-15
3.46978E-07 7.77210E-15
3.73156E-07 6.75785E-15
4.00286E-07 5.90377E-15
4.28368E-07 5.18052E-15
4.57402E-07 4.56481E-15
4.87388E-07 4.03805E-15
5.18325E-07 3.58527E-15
5.50215E-07 3.19432E-15
5.83057E-07 2.85536E-15
6.16850E-07 2.56022E-15
6.51596E-07 2.30234E-15
6.87293E-07 2.07620E-15
7.23942E-07 1.87721E-15
7.61543E-07 1.70154E-15
1.18991E-06 7.13901E-16
1.71347E-06 3.49702E-16
2.33223E-06 1.90751E-16
3.04617E-06 1.12657E-16
3.85531E-06 7.07346E-17
4.75964E-06 4.66230E-17
5.75916E-06 3.19666E-17
6.85388E-06 2.26448E-17
8.04378E-06 1.64876E-17
9.32888E-06 1.22888E-17
1.07092E-05 9.34593E-18
1.21846E-05 7.23380E-18
1.37553E-05 5.68620E-18
1.54212E-05 4.53131E-18
1.71822E-05 3.65534E-18
1.90385E-05 2.97908E-18
2.09899E-05 2.45593E-18
2.30365E-05 2.04228E-18
2.51783E-05 1.71157E-18
2.74153E-05 1.44472E-18
2.97475E-05 1.22771E-18
3.21749E-05 1.04996E-18
3.46974E-05 9.03354E-19
3.73152E-05 7.81586E-19
4.00281E-05 6.79751E-19
4.28362E-05 5.94011E-19
4.57395E-05 5.21370E-19
4.87380E-05 4.59479E-19
5.18317E-05 4.06481E-19
5.50205E-05 3.60892E-19
5.83045E-05 3.21514E-19
6.16838E-05 2.87369E-19
6.51582E-05 2.57646E-19
6.87277E-05 2.31677E-19
7.23925E-05 2.08904E-19
7.61524E-05 1.89062E-19
9.21439E-05 1.29415E-19
1.09658E-04 9.15704E-20
1.28695E-04 6.66255E-20
1.49255E-04 4.96423E-20
1.71338E-04 3.77533E-20
1.94942E-04 2.92296E-20
2.20070E-04 2.29883E-20
2.46720E-04 1.83325E-20
2.74892E-04 1.48026E-20
3.04586E-04 1.20857E-20
3.35803E-04 9.96733E-21
3.68542E-04 8.29529E-21
4.02802E-04 6.96121E-21
4.38585E-04 5.88617E-21
4.75889E-04 5.01180E-21
5.14715E-04 4.29480E-21
5.55063E-04 3.70216E-21
5.96931E-04 3.20887E-21
6.40321E-04 2.79554E-21
6.85233E-04 2.44716E-21
7.31665E-04 2.15158E-21
7.79618E-04 1.89932E-21
8.29092E-04 1.68314E-21
8.80086E-04 1.49698E-21
9.32601E-04 1.33595E-21
9.86636E-04 1.19609E-21
1.04219E-03 1.07410E-21
1.09927E-03 9.67322E-22
1.15786E-03 8.73512E-22
1.21797E-03 7.90822E-22
1.27961E-03 7.17697E-22
1.34276E-03 6.52835E-22
1.40743E-03 5.95136E-22
1.47362E-03 5.43664E-22
1.54133E-03 4.97630E-22
1.61056E-03 4.56354E-22
1.68131E-03 4.19255E-22
1.75357E-03 3.85835E-22
1.82735E-03 3.55663E-22
1.90265E-03 3.28365E-22
1.97947E-03 3.03618E-22
2.05780E-03 2.81141E-22
2.13765E-03 2.60687E-22
2.21902E-03 2.42041E-22
2.30190E-03 2.25015E-22
2.38630E-03 2.09441E-22
2.47222E-03 1.95173E-22
2.55965E-03 1.82083E-22
2.64859E-03 1.70054E-22
2.73905E-03 1.58986E-22
2.83103E-03 1.48788E-22
2.92452E-03 1.39378E-22
3.01952E-03 1.30686E-22
3.11604E-03 1.22646E-22
3.21407E-03 1.15200E-22
3.31362E-03 1.08297E-22
3.41468E-03 1.01890E-22
3.51725E-03 9.59370E-23
3.62133E-03 9.04000E-23
3.72692E-03 8.52449E-23
3.83403E-03 8.04405E-23
3.94265E-03 7.59588E-23
4.05278E-03 7.17742E-23
4.16442E-03 6.78635E-23
4.27757E-03 6.42058E-23
4.39223E-03 6.07817E-23
4.50840E-03 5.75737E-23
4.62608E-03 5.45658E-23
4.74527E-03 5.17434E-23
4.86597E-03 4.90931E-23
4.98817E-03 4.66025E-23
5.11188E-03 4.42603E-23
5.23711E-03 4.20563E-23
5.36383E-03 3.99809E-23
5.49207E-03 3.80253E-23
5.62181E-03 3.61814E-23
5.75306E-03 3.44418E-23
5.88581E-03 3.27997E-23
6.02007E-03 3.12485E-23
6.15583E-03 2.97826E-23
6.29310E-03 2.83964E-23
6.43187E-03 2.70848E-23
6.57214E-03 2.58433E-23
6.71392E-03 2.46675E-23
6.85720E-03 2.35533E-23
7.00198E-03 2.24970E-23
7.14827E-03 2.14951E-23
7.29605E-03 2.05444E-23
7.44534E-03 1.96418E-23
7.59612E-03 1.87846E-23
7.97965E-03 1.68230E-23
8.37255E-03 1.50924E-23
8.77480E-03 1.35617E-23
9.18641E-03 1.22048E-23
9.60736E-03 1.09993E-23
1.00376E-02 9.92623E-24
1.04773E-02 8.96911E-24
1.09262E-02 8.11388E-24
1.13844E-02 7.34838E-24
1.18520E-02 6.66208E-24
1.23288E-02 6.04584E-24
1.28150E-02 5.49169E-24
1.33104E-02 4.99268E-24
1.38150E-02 4.54275E-24
1.43290E-02 4.13657E-24
1.48521E-02 3.76944E-24
1.53845E-02 3.43724E-24
1.59262E-02 3.13634E-24
1.64770E-02 2.86351E-24
1.70371E-02 2.61590E-24
1.76063E-02 2.39098E-24
1.81848E-02 2.18649E-24
1.87724E-02 2.00043E-24
1.93692E-02 1.83101E-24
1.99751E-02 1.67663E-24
2.05901E-02 1.53586E-24
2.12143E-02 1.40742E-24
2.18476E-02 1.29016E-24
2.24900E-02 1.18304E-24
2.31415E-02 1.08513E-24
2.38021E-02 9.95597E-25
2.44717E-02 9.13686E-25
2.51504E-02 8.38714E-25
2.58382E-02 7.70063E-25
2.65349E-02 7.07177E-25
2.72407E-02 6.49551E-25
2.79555E-02 5.96726E-25
2.86793E-02 5.48288E-25
2.94120E-02 5.03858E-25
3.01537E-02 4.63095E-25
3.09043E-02 4.25686E-25
3.16639E-02 3.91347E-25
3.24324E-02 3.59820E-25
3.32098E-02 3.30870E-25
3.39961E-02 3.04280E-25
3.47912E-02 2.79855E-25
3.55952E-02 2.57415E-25
3.64081E-02 2.36797E-25
3.72297E-02 2.17850E-25
3.80602E-02 2.00437E-25
3.88995E-02 1.84433E-25
3.97476E-02 1.69723E-25
4.06044E-02 1.56201E-25
4.14700E-02 1.43772E-25
4.23443E-02 1.32345E-25
4.32273E-02 1.21841E-25
4.41190E-02 1.12184E-25
4.50194E-02 1.03307E-25
4.59284E-02 9.51454E-26
4.68461E-02 8.76426E-26
4.87074E-02 7.44045E-26
5.06030E-02 6.32177E-26
5.25328E-02 5.37652E-26
5.44967E-02 4.57789E-26
5.64946E-02 3.90319E-26
5.85262E-02 3.33322E-26
6.05914E-02 2.85171E-26
6.26901E-02 2.44489E-26
6.48222E-02 2.10108E-26
6.69873E-02 1.81042E-26
6.91854E-02 1.56454E-26
7.14163E-02 1.35638E-26
7.36799E-02 1.17996E-26
7.59760E-02 1.03024E-26
7.83043E-02 9.02947E-27
8.06647E-02 7.94501E-27
8.30571E-02 7.01875E-27
8.54812E-02 6.22526E-27
8.79369E-02 5.54320E-27
9.04240E-02 4.95465E-27
9.29422E-02 4.44461E-27
9.54915E-02 4.00056E-27
9.80716E-02 3.61202E-27
1.00682E-01 3.27029E-27
1.03323E-01 2.96812E-27
1.05995E-01 2.69949E-27
1.08696E-01 2.45940E-27
1.11427E-01 2.24371E-27
1.14188E-01 2.04902E-27
1.16978E-01 1.87249E-27
1.19797E-01 1.71177E-27
1.22645E-01 1.56494E-27
1.25522E-01 1.43039E-27
1.28428E-01 1.30679E-27
1.31361E-01 1.19302E-27
1.34323E-01 1.08816E-27
1.37313E-01 9.91412E-28
1.40330E-01 9.02106E-28
1.43375E-01 8.19666E-28
1.46447E-01 7.43589E-28
1.49545E-01 6.73430E-28
1.52671E-01 6.08794E-28
1.55823E-01 5.49320E-28
1.59001E-01 4.94680E-28
1.62205E-01 4.44569E-28
1.65435E-01 3.98700E-28
1.68690E-01 3.56804E-28
1.71970E-01 3.18624E-28
1.75276E-01 2.83917E-28
1.78606E-01 2.52448E-28
1.81961E-01 2.23992E-28
1.85340E-01 1.98333E-28
1.88743E-01 1.75266E-28
1.92169E-01 1.54593E-28
1.95619E-01 1.36123E-28
1.99092E-01 1.19676E-28
2.02589E-01 1.05080E-28
2.06107E-01 9.21722E-29
2.09649E-01 8.07984E-29
2.13212E-01 7.08133E-29
2.16797E-01 6.20804E-29
2.20404E-01 5.44722E-29
2.24032E-01 4.78700E-29
2.27680E-01 4.21635E-29
2.31350E-01 3.72510E-29
2.35040E-01 3.30388E-29
2.38751E-01 2.94411E-29
2.42481E-01 2.63798E-29
2.46231E-01 2.37840E-29
2.50000E-01 2.15894E-29
2.53788E-01 1.97387E-29
2.57595E-01 1.81803E-29
2.61421E-01 1.68685E-29
2.65264E-01 1.57630E-29
2.69126E-01 1.48283E-29
2.73005E-01 1.40334E-29
2.76901E-01 1.33517E-29
2.80814E-01 1.27602E-29
2.84744E-01 1.22393E-29
2.88691E-01 1.17726E-29
2.92653E-01 1.13464E-29
2.96632E-01 1.09496E-29
3.00625E-01 1.05730E-29
3.04634E-01 1.02095E-29
3.08658E-01 9.85364E-30
3.12697E-01 9.50129E-30
3.16749E-01 9.14957E-30
3.20816E-01 8.79663E-30
3.24896E-01 8.44144E-30
3.28990E-01 8.08368E-30
3.33097E-01 7.72357E-30
3.37216E-01 7.36176E-30
3.41348E-01 6.99921E-30
3.45492E-01 6.63714E-30
3.49647E-01 6.27688E-30
3.53814E-01 5.91987E-30
3.57992E-01 5.56757E-30
3.62181E-01 5.22140E-30
3.66381E-01 4.88273E-30
3.70590E-01 4.55286E-30
3.74810E-01 4.23295E-30
3.79039E-01 3.92404E-30
3.83277E-01 3.62703E-30
3.87524E-01 3.34270E-30
3.91780E-01 3.07164E-30
3.96044E-01 2.81431E-30
4.00316E-01 2.57106E-30
4.04596E-01 2.34205E-30
4.08882E-01 2.12736E-30
4.13176E-01 1.92692E-30
4.17476E-01 1.74057E-30
4.21783E-01 1.56804E-30
4.26095E-01 1.40899E-30
4.30413E-01 1.26300E-30
4.34737E-01 1.12957E-30
4.39065E-01 1.00817E-30
4.43398E-01 8.98223E-31
4.47736E-01 7.99113E-31
4.52077E-01 7.10207E-31
4.56422E-01 6.30855E-31
4.60770E-01 5.60402E-31
4.65122E-01 4.98193E-31
4.69476E-01 4.43582E-31
4.73832E-01 3.95931E-31
4.78190E-01 3.54624E-31
4.82550E-01 3.19062E-31
4.86912E-01 2.88673E-31
4.91274E-01 2.62911E-31
4.95637E-01 2.41261E-31
5.00000E-01 2.23235E-31
5.04363E-01 2.08382E-31
5.08726E-01 1.96278E-31
5.13088E-01 1.86535E-31
5.17450E-01 1.78797E-31
5.21810E-01 1.72738E-31
5.26168E-01 1.68064E-31
5.30524E-01 1.64511E-31
5.34878E-01 1.61843E-31
5.39230E-01 1.59851E-31
5.43578E-01 1.58354E-31
5.47923E-01 1.57192E-31
5.52264E-01 1.56229E-31
5.56602E-01 1.55351E-31
5.60935E-01 1.54462E-31
5.65263E-01 1.53483E-31
5.69587E-01 1.52351E-31
5.73905E-01 1.51019E-31
5.78217E-01 1.49450E-31
5.82524E-01 1.47622E-31
5.86824E-01 1.45518E-31
5.91118E-01 1.43135E-31
5.95404E-01 1.40473E-31
5.99684E-01 1.37539E-31
6.03956E-01 1.34348E-31
6.08220E-01 1.30915E-31
6.12476E-01 1.27262E-31
6.16723E-01 1.23410E-31
6.20961E-01 1.19386E-31
6.25190E-01 1.15213E-31
6.29410E-01 1.10919E-31
6.33619E-01 1.06530E-31
6.37819E-01 1.02072E-31
6.42008E-01 9.75695E-32
6.46186E-01 9.30480E-32
6.50353E-01 8.85304E-32
6.54508E-01 8.40383E-32
6.58652E-01 7.95921E-32
6.62784E-01 7.52102E-32
6.66903E-01 7.09097E-32
6.71010E-01 6.67057E-32
6.75104E-01 6.26115E-32
6.79184E-01 5.86388E-32
6.83251E-01 5.47974E-32
6.87303E-01 5.10958E-32
6.91342E-01 4.75405E-32
6.95366E-01 4.41368E-32
6.99375E-01 4.08885E-32
7.03368E-01 3.77979E-32
7.07347E-01 3.48664E-32
7.11309E-01 3.20939E-32
7.15256E-01 2.94797E-32
7.19186E-01 2.70217E-32
7.23099E-01 2.47175E-32
7.26995E-01 2.25635E-32
7.30874E-01 2.05559E-32
7.34736E-01 1.86900E-32
7.38579E-01 1.69609E-32
7.42405E-01 1.53632E-32
7.46212E-01 1.38913E-32
7.50000E-01 1.25393E-32
7.53769E-01 1.13013E-32
7.57519E-01 1.01712E-32
7.61249E-01 9.14280E-33
7.64960E-01 8.21002E-33
7.68650E-01 7.36678E-33
7.72320E-01 6.60714E-33
7.75968E-01 5.92525E-33
7.79596E-01 5.31543E-33
7.83203E-01 4.77217E-33
7.86788E-01 4.29017E-33
7.90351E-01 3.86434E-33
7.93893E-01 3.48983E-33
7.97411E-01 3.16200E-33
8.00908E-01 2.87650E-33
8.04381E-01 2.62918E-33
8.07831E-01 2.41617E-33
8.11257E-01 2.23384E-33
8.14660E-01 2.07881E-33
8.18039E-01 1.94792E-33
8.21394E-01 1.83828E-33
8.24724E-01 1.74721E-33
8.28030E-01 1.67224E-33
8.31310E-01 1.61114E-33
8.34565E-01 1.56186E-33
8.37795E-01 1.52254E-33
8.40999E-01 1.49154E-33
8.44177E-01 1.46734E-33
8.47329E-01 1.44861E-33
8.50455E-01 1.43418E-33
8.53553E-01 1.42300E-33
8.56625E-01 1.41417E-33
8.59670E-01 1.40688E-33
8.62687E-01 1.40047E-33
8.65677E-01 1.39436E-33
8.68639E-01 1.38806E-33
8.71572E-01 1.38116E-33
8.74478E-01 1.37335E-33
8.77355E-01 1.36437E-33
8.80203E-01 1.35403E-33
8.83022E-01 1.34217E-33
8.85812E-01 1.32870E-33
8.88573E-01 1.31357E-33
8.91304E-01 1.29677E-33
8.94005E-01 1.27830E-33
8.96677E-01 1.25820E-33
8.99318E-01 1.23655E-33
9.01928E-01 1.21340E-33
9.04508E-01 1.18887E-33
9.07058E-01 1.16305E-33
9.09576E-01 1.13606E-33
9.12063E-01 1.10802E-33
9.14519E-01 1.07906E-33
9.16943E-01 1.04929E-33
9.19335E-01 1.01885E-33
9.21696E-01 9.87857E-34
9.24024E-01 9.56440E-34
9.26320E-01 9.24716E-34
9.28584E-01 8.92797E-34
9.30815E-01 8.60796E-34
9.33013E-01 8.28814E-34
9.35178E-01 7.96951E-34
9.37310E-01 7.65296E-34
9.39409E-01 7.33935E-34
9.41474E-01 7.02946E-34
9.43505E-01 6.72399E-34
9.45503E-01 6.42360E-34
9.47467E-01 6.12886E-34
9.49397E-01 5.84028E-34
9.51293E-01 5.55831E-34
9.53154E-01 5.28335E-34
9.54981E-01 5.01572E-34
9.56773E-01 4.75571E-34
9.58530E-01 4.50353E-34
9.60252E-01 4.25937E-34
9.61940E-01 4.02335E-34
9.63592E-01 3.79556E-34
9.65209E-01 3.57605E-34
9.66790E-01 3.36483E-34
9.68336E-01 3.16188E-34
9.69846E-01 2.96715E-34
9.71321E-01 2.78056E-34
9.72759E-01 2.60201E-34
9.74162E-01 2.43137E-34
9.75528E-01 2.26850E-34
9.76858E-01 2.11325E-34
9.78152E-01 1.96544E-34
9.79410E-01 1.82488E-34
9.80631E-01 1.69138E-34
9.81815E-01 1.56475E-34
9.82963E-01 1.44478E-34
9.84074E-01 1.33125E-34
9.85148E-01 1.22395E-34
9.86185E-01 1.12266E-34
9.87185E-01 1.02719E-34
9.88148E-01 9.37294E-35
9.89074E-01 8.52783E-35
9.89962E-01 7.73445E-35
9.90814E-01 6.99077E-35
9.91627E-01 6.29483E-35
9.92404E-01 5.64470E-35
9.93143E-01 5.03852E-35
9.93844E-01 4.47452E-35
9.94508E-01 3.95099E-35
9.95134E-01 3.46631E-35
9.95722E-01 3.01891E-35
9.96273E-01 2.60734E-35
9.96786E-01 2.23021E-35
9.97261E-01 1.88625E-35
9.97698E-01 1.57424E-35
9.98097E-01 1.29309E-35
9.98459E-01 1.04177E-35
9.98782E-01 8.19386E-36
9.99067E-01 6.25112E-36
9.99315E-01 4.58208E-36
9.99524E-01 3.18045E-36
9.99695E-01 2.04101E-36
9.99829E-01 1.15930E-36
9.99924E-01 5.31927E-37
9.99981E-01 1.56478E-37
1.00000E+00 3.14929E-38
