 #
 # Subroutine ELSEPA. Elastic scattering of electrons and positrons
 #                    by neutral atoms and positive ions
 #
 # Projectile: electron
 # Kinetic energy = 9.00000E+06 eV = 3.30744E+05 a.u.
 #
 # WARNING: High-energy factorization with free-atom DF screening.
 #          Absorption, polarization and exchange corrections are
 #          switched off.
 #          Phase shifts are calculated for the bare nucleus.
 #          Scattering amplitudes are not evaluated.
 #
 # Element:  U,  Z =  92,  atomic weight = 2.38029E+02 g/mol
 #
 # Nuclear model: Fermi distribution
 #                Average radius = 6.63122E-13 cm
 #                Skin thickness = 5.46000E-14 cm
 #
 # Number of electrons = 92
 #
 # Total elastic cross section = 1.17684E-17 cm**2 = 4.20259E-01 a0**2
 # 1st transport cross section = 1.69262E-22 cm**2 = 6.04444E-06 a0**2
 # 2nd transport cross section = 4.54845E-22 cm**2 = 1.62428E-05 a0**2
 #
 #
 # Differential cross section:                       MU=(1-COS(THETA))/2
 #
 #  THETA        MU          DCS          DCS        Sherman      error
 #  (deg)                 (cm**2/sr)   (a0**2/sr)    function
 #----------------------------------------------------------------------
0.00000E+00 1.19610E-11
7.61557E-13 1.19605E-11
1.18994E-12 1.19603E-11
1.71346E-12 1.19600E-11
2.33225E-12 1.19596E-11
3.04617E-12 1.19592E-11
3.85530E-12 1.19587E-11
4.75964E-12 1.19582E-11
5.75917E-12 1.19576E-11
6.85391E-12 1.19570E-11
8.04379E-12 1.19563E-11
9.32893E-12 1.19556E-11
1.07092E-11 1.19548E-11
1.21847E-11 1.19540E-11
1.37554E-11 1.19531E-11
1.54213E-11 1.19521E-11
1.71823E-11 1.19511E-11
1.90386E-11 1.19500E-11
2.09900E-11 1.19489E-11
2.30367E-11 1.19478E-11
2.51785E-11 1.19465E-11
2.74156E-11 1.19452E-11
2.97478E-11 1.19439E-11
3.21752E-11 1.19425E-11
3.46979E-11 1.19411E-11
3.73157E-11 1.19396E-11
4.00286E-11 1.19380E-11
4.28368E-11 1.19364E-11
4.57402E-11 1.19348E-11
4.87388E-11 1.19331E-11
5.18325E-11 1.19313E-11
5.50215E-11 1.19295E-11
5.83057E-11 1.19276E-11
6.16850E-11 1.19257E-11
6.51595E-11 1.19237E-11
6.87293E-11 1.19217E-11
7.23943E-11 1.19196E-11
7.61544E-11 1.19175E-11
1.18991E-10 1.18931E-11
1.71347E-10 1.18635E-11
2.33223E-10 1.18286E-11
3.04617E-10 1.17886E-11
3.85531E-10 1.17436E-11
4.75965E-10 1.16936E-11
5.75917E-10 1.16387E-11
6.85389E-10 1.15791E-11
8.04380E-10 1.15149E-11
9.32891E-10 1.14462E-11
1.07092E-09 1.13732E-11
1.21847E-09 1.12961E-11
1.37554E-09 1.12149E-11
1.54213E-09 1.11299E-11
1.71823E-09 1.10412E-11
1.90386E-09 1.09490E-11
2.09900E-09 1.08535E-11
2.30367E-09 1.07548E-11
2.51785E-09 1.06532E-11
2.74156E-09 1.05490E-11
2.97478E-09 1.04421E-11
3.21752E-09 1.03328E-11
3.46978E-09 1.02210E-11
3.73156E-09 1.01071E-11
4.00286E-09 9.99133E-12
4.28368E-09 9.87443E-12
4.57402E-09 9.75588E-12
4.87388E-09 9.63584E-12
5.18326E-09 9.51449E-12
5.50215E-09 9.39196E-12
5.83057E-09 9.26879E-12
6.16850E-09 9.14547E-12
6.51596E-09 9.02144E-12
6.87293E-09 8.89686E-12
7.23942E-09 8.77185E-12
7.61544E-09 8.64655E-12
1.18991E-08 7.42003E-12
1.71347E-08 6.29381E-12
2.33223E-08 5.31524E-12
3.04617E-08 4.49412E-12
3.85531E-08 3.81700E-12
4.75965E-08 3.26212E-12
5.75917E-08 2.80723E-12
6.85389E-08 2.43190E-12
8.04380E-08 2.11972E-12
9.32891E-08 1.85785E-12
1.07092E-07 1.63620E-12
1.21847E-07 1.44665E-12
1.37554E-07 1.28386E-12
1.54213E-07 1.14323E-12
1.71823E-07 1.02096E-12
1.90386E-07 9.14184E-13
2.09900E-07 8.20804E-13
2.30367E-07 7.38879E-13
2.51785E-07 6.66658E-13
2.74156E-07 5.99353E-13
2.97478E-07 5.41235E-13
3.21752E-07 4.91282E-13
3.46978E-07 4.48124E-13
3.73156E-07 4.10648E-13
4.00286E-07 3.77429E-13
4.28368E-07 3.44531E-13
4.57402E-07 3.15749E-13
4.87388E-07 2.90462E-13
5.18325E-07 2.68157E-13
5.50215E-07 2.48407E-13
5.83057E-07 2.30198E-13
6.16850E-07 2.12769E-13
6.51596E-07 1.97240E-13
6.87293E-07 1.83360E-13
7.23942E-07 1.70916E-13
7.61543E-07 1.59727E-13
1.18991E-06 8.43318E-14
1.71347E-06 4.89273E-14
2.33223E-06 3.04557E-14
3.04617E-06 2.00066E-14
3.85531E-06 1.37124E-14
4.75964E-06 9.71905E-15
5.75916E-06 7.07508E-15
6.85388E-06 5.26219E-15
8.04378E-06 3.98868E-15
9.32888E-06 3.08081E-15
1.07092E-05 2.41883E-15
1.21846E-05 1.92554E-15
1.37553E-05 1.55243E-15
1.54212E-05 1.26616E-15
1.71822E-05 1.04350E-15
1.90385E-05 8.67406E-16
2.09899E-05 7.28216E-16
2.30365E-05 6.15769E-16
2.51783E-05 5.23997E-16
2.74153E-05 4.48207E-16
2.97475E-05 3.86071E-16
3.21749E-05 3.34259E-16
3.46974E-05 2.90898E-16
3.73152E-05 2.54533E-16
4.00281E-05 2.23579E-16
4.28362E-05 1.97393E-16
4.57395E-05 1.74794E-16
4.87380E-05 1.55444E-16
5.18317E-05 1.38668E-16
5.50205E-05 1.24112E-16
5.83045E-05 1.11440E-16
6.16838E-05 1.00322E-16
6.51582E-05 9.06085E-17
6.87277E-05 8.19973E-17
7.23925E-05 7.44227E-17
7.61524E-05 6.76800E-17
9.21439E-05 4.73056E-17
1.09658E-04 3.40308E-17
1.28695E-04 2.50953E-17
1.49255E-04 1.89062E-17
1.71338E-04 1.45115E-17
1.94942E-04 1.13227E-17
2.20070E-04 8.96540E-18
2.46720E-04 7.19231E-18
2.74892E-04 5.83789E-18
3.04586E-04 4.78843E-18
3.35803E-04 3.96532E-18
3.68542E-04 3.31212E-18
4.02802E-04 2.78825E-18
4.38585E-04 2.36415E-18
4.75889E-04 2.01779E-18
5.14715E-04 1.73270E-18
5.55063E-04 1.49620E-18
5.96931E-04 1.29874E-18
6.40321E-04 1.13283E-18
6.85233E-04 9.92582E-19
7.31665E-04 8.73382E-19
7.79618E-04 7.71551E-19
8.29092E-04 6.84151E-19
8.80086E-04 6.08783E-19
9.32601E-04 5.43516E-19
9.86636E-04 4.86775E-19
1.04219E-03 4.37255E-19
1.09927E-03 3.93880E-19
1.15786E-03 3.55758E-19
1.21797E-03 3.22146E-19
1.27961E-03 2.92418E-19
1.34276E-03 2.66046E-19
1.40743E-03 2.42588E-19
1.47362E-03 2.21664E-19
1.54133E-03 2.02954E-19
1.61056E-03 1.86181E-19
1.68131E-03 1.71110E-19
1.75357E-03 1.57539E-19
1.82735E-03 1.45290E-19
1.90265E-03 1.34213E-19
1.97947E-03 1.24175E-19
2.05780E-03 1.15062E-19
2.13765E-03 1.06772E-19
2.21902E-03 9.92184E-20
2.30190E-03 9.23238E-20
2.38630E-03 8.60202E-20
2.47222E-03 8.02477E-20
2.55965E-03 7.49532E-20
2.64859E-03 7.00905E-20
2.73905E-03 6.56173E-20
2.83103E-03 6.14973E-20
2.92452E-03 5.76974E-20
3.01952E-03 5.41875E-20
3.11604E-03 5.09420E-20
3.21407E-03 4.79374E-20
3.31362E-03 4.51520E-20
3.41468E-03 4.25671E-20
3.51725E-03 4.01658E-20
3.62133E-03 3.79324E-20
3.72692E-03 3.58529E-20
3.83403E-03 3.39149E-20
3.94265E-03 3.21070E-20
4.05278E-03 3.04186E-20
4.16442E-03 2.88405E-20
4.27757E-03 2.73642E-20
4.39223E-03 2.59817E-20
4.50840E-03 2.46861E-20
4.62608E-03 2.34708E-20
4.74527E-03 2.23299E-20
4.86597E-03 2.12580E-20
4.98817E-03 2.02503E-20
5.11188E-03 1.93019E-20
5.23711E-03 1.84089E-20
5.36383E-03 1.75673E-20
5.49207E-03 1.67738E-20
5.62181E-03 1.60248E-20
5.75306E-03 1.53176E-20
5.88581E-03 1.46494E-20
6.02007E-03 1.40175E-20
6.15583E-03 1.34196E-20
6.29310E-03 1.28536E-20
6.43187E-03 1.23174E-20
6.57214E-03 1.18091E-20
6.71392E-03 1.13271E-20
6.85720E-03 1.08696E-20
7.00198E-03 1.04353E-20
7.14827E-03 1.00227E-20
7.29605E-03 9.63048E-21
7.44534E-03 9.25746E-21
7.59612E-03 8.90255E-21
7.97965E-03 8.08774E-21
8.37255E-03 7.36510E-21
8.77480E-03 6.72234E-21
9.18641E-03 6.14906E-21
9.60736E-03 5.63640E-21
1.00376E-02 5.17680E-21
1.04773E-02 4.76376E-21
1.09262E-02 4.39173E-21
1.13844E-02 4.05587E-21
1.18520E-02 3.75204E-21
1.23288E-02 3.47660E-21
1.28150E-02 3.22643E-21
1.33104E-02 2.99877E-21
1.38150E-02 2.79122E-21
1.43290E-02 2.60167E-21
1.48521E-02 2.42827E-21
1.53845E-02 2.26939E-21
1.59262E-02 2.12356E-21
1.64770E-02 1.98954E-21
1.70371E-02 1.86617E-21
1.76063E-02 1.75245E-21
1.81848E-02 1.64748E-21
1.87724E-02 1.55044E-21
1.93692E-02 1.46064E-21
1.99751E-02 1.37743E-21
2.05901E-02 1.30022E-21
2.12143E-02 1.22851E-21
2.18476E-02 1.16182E-21
2.24900E-02 1.09973E-21
2.31415E-02 1.04186E-21
2.38021E-02 9.87875E-22
2.44717E-02 9.37455E-22
2.51504E-02 8.90319E-22
2.58382E-02 8.46211E-22
2.65349E-02 8.04899E-22
2.72407E-02 7.66168E-22
2.79555E-02 7.29825E-22
2.86793E-02 6.95693E-22
2.94120E-02 6.63610E-22
3.01537E-02 6.33429E-22
3.09043E-02 6.05012E-22
3.16639E-02 5.78238E-22
3.24324E-02 5.52990E-22
3.32098E-02 5.29164E-22
3.39961E-02 5.06663E-22
3.47912E-02 4.85398E-22
3.55952E-02 4.65287E-22
3.64081E-02 4.46255E-22
3.72297E-02 4.28231E-22
3.80602E-02 4.11152E-22
3.88995E-02 3.94956E-22
3.97476E-02 3.79589E-22
4.06044E-02 3.64999E-22
4.14700E-02 3.51139E-22
4.23443E-02 3.37963E-22
4.32273E-02 3.25432E-22
4.41190E-02 3.13507E-22
4.50194E-02 3.02152E-22
4.59284E-02 2.91335E-22
4.68461E-02 2.81023E-22
4.87074E-02 2.61805E-22
5.06030E-02 2.44289E-22
5.25328E-02 2.28295E-22
5.44967E-02 2.13662E-22
5.64946E-02 2.00249E-22
5.85262E-02 1.87934E-22
6.05914E-02 1.76607E-22
6.26901E-02 1.66173E-22
6.48222E-02 1.56545E-22
6.69873E-02 1.47647E-22
6.91854E-02 1.39413E-22
7.14163E-02 1.31782E-22
7.36799E-02 1.24700E-22
7.59760E-02 1.18118E-22
7.83043E-02 1.11994E-22
8.06647E-02 1.06287E-22
8.30571E-02 1.00964E-22
8.54812E-02 9.59933E-23
8.79369E-02 9.13454E-23
9.04240E-02 8.69946E-23
9.29422E-02 8.29175E-23
9.54915E-02 7.90932E-23
9.80716E-02 7.55022E-23
1.00682E-01 7.21267E-23
1.03323E-01 6.89509E-23
1.05995E-01 6.59605E-23
1.08696E-01 6.31414E-23
1.11427E-01 6.04818E-23
1.14188E-01 5.79708E-23
1.16978E-01 5.55976E-23
1.19797E-01 5.33528E-23
1.22645E-01 5.12283E-23
1.25522E-01 4.92156E-23
1.28428E-01 4.73074E-23
1.31361E-01 4.54972E-23
1.34323E-01 4.37785E-23
1.37313E-01 4.21456E-23
1.40330E-01 4.05931E-23
1.43375E-01 3.91161E-23
1.46447E-01 3.77101E-23
1.49545E-01 3.63706E-23
1.52671E-01 3.50939E-23
1.55823E-01 3.38761E-23
1.59001E-01 3.27140E-23
1.62205E-01 3.16042E-23
1.65435E-01 3.05440E-23
1.68690E-01 2.95303E-23
1.71970E-01 2.85608E-23
1.75276E-01 2.76330E-23
1.78606E-01 2.67447E-23
1.81961E-01 2.58936E-23
1.85340E-01 2.50779E-23
1.88743E-01 2.42958E-23
1.92169E-01 2.35454E-23
1.95619E-01 2.28251E-23
1.99092E-01 2.21335E-23
2.02589E-01 2.14691E-23
2.06107E-01 2.08305E-23
2.09649E-01 2.02165E-23
2.13212E-01 1.96259E-23
2.16797E-01 1.90576E-23
2.20404E-01 1.85105E-23
2.24032E-01 1.79836E-23
2.27680E-01 1.74759E-23
2.31350E-01 1.69867E-23
2.35040E-01 1.65149E-23
2.38751E-01 1.60600E-23
2.42481E-01 1.56210E-23
2.46231E-01 1.51973E-23
2.50000E-01 1.47883E-23
2.53788E-01 1.43932E-23
2.57595E-01 1.40115E-23
2.61421E-01 1.36426E-23
2.65264E-01 1.32860E-23
2.69126E-01 1.29411E-23
2.73005E-01 1.26075E-23
2.76901E-01 1.22847E-23
2.80814E-01 1.19723E-23
2.84744E-01 1.16699E-23
2.88691E-01 1.13770E-23
2.92653E-01 1.10933E-23
2.96632E-01 1.08184E-23
3.00625E-01 1.05520E-23
3.04634E-01 1.02938E-23
3.08658E-01 1.00435E-23
3.12697E-01 9.80083E-24
3.16749E-01 9.56478E-24
3.20816E-01 9.33570E-24
3.24896E-01 9.11333E-24
3.28990E-01 8.89742E-24
3.33097E-01 8.68774E-24
3.37216E-01 8.48406E-24
3.41348E-01 8.28617E-24
3.45492E-01 8.09385E-24
3.49647E-01 7.90691E-24
3.53814E-01 7.72517E-24
3.57992E-01 7.54843E-24
3.62181E-01 7.37654E-24
3.66381E-01 7.20931E-24
3.70590E-01 7.04660E-24
3.74810E-01 6.88824E-24
3.79039E-01 6.73410E-24
3.83277E-01 6.58403E-24
3.87524E-01 6.43790E-24
3.91780E-01 6.29558E-24
3.96044E-01 6.15694E-24
4.00316E-01 6.02187E-24
4.04596E-01 5.89024E-24
4.08882E-01 5.76196E-24
4.13176E-01 5.63691E-24
4.17476E-01 5.51500E-24
4.21783E-01 5.39612E-24
4.26095E-01 5.28018E-24
4.30413E-01 5.16710E-24
4.34737E-01 5.05677E-24
4.39065E-01 4.94913E-24
4.43398E-01 4.84408E-24
4.47736E-01 4.74155E-24
4.52077E-01 4.64147E-24
4.56422E-01 4.54376E-24
4.60770E-01 4.44836E-24
4.65122E-01 4.35519E-24
4.69476E-01 4.26419E-24
4.73832E-01 4.17530E-24
4.78190E-01 4.08846E-24
4.82550E-01 4.00361E-24
4.86912E-01 3.92069E-24
4.91274E-01 3.83965E-24
4.95637E-01 3.76044E-24
5.00000E-01 3.68300E-24
5.04363E-01 3.60729E-24
5.08726E-01 3.53326E-24
5.13088E-01 3.46086E-24
5.17450E-01 3.39006E-24
5.21810E-01 3.32080E-24
5.26168E-01 3.25304E-24
5.30524E-01 3.18675E-24
5.34878E-01 3.12189E-24
5.39230E-01 3.05842E-24
5.43578E-01 2.99630E-24
5.47923E-01 2.93550E-24
5.52264E-01 2.87598E-24
5.56602E-01 2.81772E-24
5.60935E-01 2.76067E-24
5.65263E-01 2.70481E-24
5.69587E-01 2.65011E-24
5.73905E-01 2.59654E-24
5.78217E-01 2.54406E-24
5.82524E-01 2.49267E-24
5.86824E-01 2.44232E-24
5.91118E-01 2.39299E-24
5.95404E-01 2.34466E-24
5.99684E-01 2.29730E-24
6.03956E-01 2.25089E-24
6.08220E-01 2.20540E-24
6.12476E-01 2.16082E-24
6.16723E-01 2.11713E-24
6.20961E-01 2.07429E-24
6.25190E-01 2.03230E-24
6.29410E-01 1.99113E-24
6.33619E-01 1.95076E-24
6.37819E-01 1.91118E-24
6.42008E-01 1.87237E-24
6.46186E-01 1.83430E-24
6.50353E-01 1.79697E-24
6.54508E-01 1.76035E-24
6.58652E-01 1.72443E-24
6.62784E-01 1.68920E-24
6.66903E-01 1.65463E-24
6.71010E-01 1.62072E-24
6.75104E-01 1.58745E-24
6.79184E-01 1.55481E-24
6.83251E-01 1.52277E-24
6.87303E-01 1.49134E-24
6.91342E-01 1.46049E-24
6.95366E-01 1.43022E-24
6.99375E-01 1.40051E-24
7.03368E-01 1.37135E-24
7.07347E-01 1.34273E-24
7.11309E-01 1.31463E-24
7.15256E-01 1.28705E-24
7.19186E-01 1.25998E-24
7.23099E-01 1.23340E-24
7.26995E-01 1.20731E-24
7.30874E-01 1.18169E-24
7.34736E-01 1.15653E-24
7.38579E-01 1.13184E-24
7.42405E-01 1.10759E-24
7.46212E-01 1.08378E-24
7.50000E-01 1.06040E-24
7.53769E-01 1.03744E-24
7.57519E-01 1.01489E-24
7.61249E-01 9.92746E-25
7.64960E-01 9.71002E-25
7.68650E-01 9.49647E-25
7.72320E-01 9.28674E-25
7.75968E-01 9.08076E-25
7.79596E-01 8.87846E-25
7.83203E-01 8.67977E-25
7.86788E-01 8.48463E-25
7.90351E-01 8.29296E-25
7.93893E-01 8.10471E-25
7.97411E-01 7.91981E-25
8.00908E-01 7.73821E-25
8.04381E-01 7.55983E-25
8.07831E-01 7.38463E-25
8.11257E-01 7.21255E-25
8.14660E-01 7.04353E-25
8.18039E-01 6.87752E-25
8.21394E-01 6.71446E-25
8.24724E-01 6.55432E-25
8.28030E-01 6.39702E-25
8.31310E-01 6.24254E-25
8.34565E-01 6.09081E-25
8.37795E-01 5.94180E-25
8.40999E-01 5.79545E-25
8.44177E-01 5.65173E-25
8.47329E-01 5.51058E-25
8.50455E-01 5.37197E-25
8.53553E-01 5.23586E-25
8.56625E-01 5.10221E-25
8.59670E-01 4.97097E-25
8.62687E-01 4.84212E-25
8.65677E-01 4.71560E-25
8.68639E-01 4.59139E-25
8.71572E-01 4.46944E-25
8.74478E-01 4.34973E-25
8.77355E-01 4.23222E-25
8.80203E-01 4.11688E-25
8.83022E-01 4.00367E-25
8.85812E-01 3.89256E-25
8.88573E-01 3.78353E-25
8.91304E-01 3.67653E-25
8.94005E-01 3.57155E-25
8.96677E-01 3.46855E-25
8.99318E-01 3.36751E-25
9.01928E-01 3.26839E-25
9.04508E-01 3.17118E-25
9.07058E-01 3.07584E-25
9.09576E-01 2.98235E-25
9.12063E-01 2.89068E-25
9.14519E-01 2.80081E-25
9.16943E-01 2.71272E-25
9.19335E-01 2.62638E-25
9.21696E-01 2.54177E-25
9.24024E-01 2.45887E-25
9.26320E-01 2.37766E-25
9.28584E-01 2.29811E-25
9.30815E-01 2.22021E-25
9.33013E-01 2.14393E-25
9.35178E-01 2.06926E-25
9.37310E-01 1.99617E-25
9.39409E-01 1.92466E-25
9.41474E-01 1.85469E-25
9.43505E-01 1.78625E-25
9.45503E-01 1.71934E-25
9.47467E-01 1.65392E-25
9.49397E-01 1.58998E-25
9.51293E-01 1.52751E-25
9.53154E-01 1.46649E-25
9.54981E-01 1.40691E-25
9.56773E-01 1.34874E-25
9.58530E-01 1.29199E-25
9.60252E-01 1.23663E-25
9.61940E-01 1.18265E-25
9.63592E-01 1.13003E-25
9.65209E-01 1.07877E-25
9.66790E-01 1.02886E-25
9.68336E-01 9.80267E-26
9.69846E-01 9.32997E-26
9.71321E-01 8.87035E-26
9.72759E-01 8.42368E-26
9.74162E-01 7.98987E-26
9.75528E-01 7.56881E-26
9.76858E-01 7.16040E-26
9.78152E-01 6.76455E-26
9.79410E-01 6.38116E-26
9.80631E-01 6.01014E-26
9.81815E-01 5.65141E-26
9.82963E-01 5.30488E-26
9.84074E-01 4.97047E-26
9.85148E-01 4.64811E-26
9.86185E-01 4.33771E-26
9.87185E-01 4.03922E-26
9.88148E-01 3.75255E-26
9.89074E-01 3.47764E-26
9.89962E-01 3.21443E-26
9.90814E-01 2.96285E-26
9.91627E-01 2.72286E-26
9.92404E-01 2.49439E-26
9.93143E-01 2.27739E-26
9.93844E-01 2.07182E-26
9.94508E-01 1.87762E-26
9.95134E-01 1.69476E-26
9.95722E-01 1.52318E-26
9.96273E-01 1.36286E-26
9.96786E-01 1.21375E-26
9.97261E-01 1.07581E-26
9.97698E-01 9.49033E-27
9.98097E-01 8.33372E-27
9.98459E-01 7.28805E-27
9.98782E-01 6.35308E-27
9.99067E-01 5.52861E-27
9.99315E-01 4.81444E-27
9.99524E-01 4.21042E-27
9.99695E-01 3.71640E-27
9.99829E-01 3.33229E-27
9.99924E-01 3.05798E-27
9.99981E-01 2.89342E-27
1.00000E+00 2.83857E-27
