 #
 # Subroutine ELSEPA. Elastic scattering of electrons and positrons
 #                    by neutral atoms and positive ions
 #
 # Projectile: electron
 # Kinetic energy = 2.00000E+07 eV = 7.34987E+05 a.u.
 #
 # WARNING: High-energy factorization with free-atom DF screening.
 #          Absorption, polarization and exchange corrections are
 #          switched off.
 #          Phase shifts are calculated for the bare nucleus.
 #          Scattering amplitudes are not evaluated.
 #
 # Element:  U,  Z =  92,  atomic weight = 2.38029E+02 g/mol
 #
 # Nuclear model: Fermi distribution
 #                Average radius = 6.63122E-13 cm
 #                Skin thickness = 5.46000E-14 cm
 #
 # Number of electrons = 92
 #
 # Total elastic cross section = 1.17369E-17 cm**2 = 4.19131E-01 a0**2
 # 1st transport cross section = 3.79678E-23 cm**2 = 1.35585E-06 a0**2
 # 2nd transport cross section = 1.06140E-22 cm**2 = 3.79034E-06 a0**2
 #
 #
 # Differential cross section:                       MU=(1-COS(THETA))/2
 #
 #  THETA        MU          DCS          DCS        Sherman      error
 #  (deg)                 (cm**2/sr)   (a0**2/sr)    function
 #----------------------------------------------------------------------
0.00000E+00 5.56272E-11
7.61557E-13 5.56176E-11
1.18994E-12 5.56123E-11
1.71346E-12 5.56058E-11
2.33225E-12 5.55981E-11
3.04617E-12 5.55892E-11
3.85530E-12 5.55792E-11
4.75964E-12 5.55679E-11
5.75917E-12 5.55555E-11
6.85391E-12 5.55420E-11
8.04379E-12 5.55272E-11
9.32893E-12 5.55113E-11
1.07092E-11 5.54942E-11
1.21847E-11 5.54760E-11
1.37554E-11 5.54566E-11
1.54213E-11 5.54360E-11
1.71823E-11 5.54142E-11
1.90386E-11 5.53913E-11
2.09900E-11 5.53673E-11
2.30367E-11 5.53421E-11
2.51785E-11 5.53157E-11
2.74156E-11 5.52882E-11
2.97478E-11 5.52596E-11
3.21752E-11 5.52298E-11
3.46979E-11 5.51988E-11
3.73157E-11 5.51668E-11
4.00286E-11 5.51336E-11
4.28368E-11 5.50992E-11
4.57402E-11 5.50638E-11
4.87388E-11 5.50272E-11
5.18325E-11 5.49895E-11
5.50215E-11 5.49507E-11
5.83057E-11 5.49108E-11
6.16850E-11 5.48698E-11
6.51595E-11 5.48277E-11
6.87293E-11 5.47844E-11
7.23943E-11 5.47401E-11
7.61544E-11 5.46947E-11
1.18991E-10 5.41820E-11
1.71347E-10 5.35662E-11
2.33223E-10 5.28535E-11
3.04617E-10 5.20509E-11
3.85531E-10 5.11659E-11
4.75965E-10 5.02065E-11
5.75917E-10 4.91820E-11
6.85389E-10 4.81009E-11
8.04380E-10 4.69684E-11
9.32891E-10 4.57980E-11
1.07092E-09 4.45957E-11
1.21847E-09 4.33660E-11
1.37554E-09 4.21264E-11
1.54213E-09 4.08742E-11
1.71823E-09 3.96188E-11
1.90386E-09 3.83715E-11
2.09900E-09 3.71289E-11
2.30367E-09 3.59035E-11
2.51785E-09 3.46970E-11
2.74156E-09 3.35077E-11
2.97478E-09 3.23514E-11
3.21752E-09 3.12190E-11
3.46978E-09 3.01150E-11
3.73156E-09 2.90479E-11
4.00286E-09 2.80091E-11
4.28368E-09 2.70063E-11
4.57402E-09 2.60387E-11
4.87388E-09 2.51015E-11
5.18326E-09 2.42040E-11
5.50215E-09 2.33382E-11
5.83057E-09 2.25047E-11
6.16850E-09 2.17076E-11
6.51596E-09 2.09400E-11
6.87293E-09 2.02048E-11
7.23942E-09 1.95007E-11
7.61544E-09 1.88241E-11
1.18991E-08 1.34546E-11
1.71347E-08 9.91820E-12
2.33223E-08 7.50136E-12
3.04617E-08 5.78315E-12
3.85531E-08 4.52483E-12
4.75965E-08 3.58565E-12
5.75917E-08 2.86145E-12
6.85389E-08 2.30419E-12
8.04380E-08 1.89844E-12
9.32891E-08 1.57003E-12
1.07092E-07 1.30897E-12
1.21847E-07 1.10931E-12
1.37554E-07 9.37567E-13
1.54213E-07 8.02198E-13
1.71823E-07 6.92096E-13
1.90386E-07 5.97506E-13
2.09900E-07 5.21052E-13
2.30367E-07 4.55588E-13
2.51785E-07 3.99917E-13
2.74156E-07 3.53800E-13
2.97478E-07 3.12791E-13
3.21752E-07 2.78186E-13
3.46978E-07 2.48558E-13
3.73156E-07 2.22250E-13
4.00286E-07 1.99802E-13
4.28368E-07 1.80009E-13
4.57402E-07 1.62578E-13
4.87388E-07 1.47490E-13
5.18325E-07 1.33868E-13
5.50215E-07 1.21927E-13
5.83057E-07 1.11383E-13
6.16850E-07 1.01826E-13
6.51596E-07 9.33994E-14
6.87293E-07 8.58002E-14
7.23942E-07 7.89424E-14
7.61543E-07 7.28401E-14
1.18991E-06 3.49997E-14
1.71347E-06 1.87563E-14
2.33223E-06 1.09387E-14
3.04617E-06 6.81183E-15
3.85531E-06 4.46925E-15
4.75964E-06 3.05700E-15
5.75916E-06 2.15991E-15
6.85388E-06 1.57104E-15
8.04378E-06 1.17036E-15
9.32888E-06 8.90130E-16
1.07092E-05 6.89358E-16
1.21846E-05 5.42319E-16
1.37553E-05 4.32602E-16
1.54212E-05 3.49345E-16
1.71822E-05 2.85204E-16
1.90385E-05 2.34947E-16
2.09899E-05 1.95563E-16
2.30365E-05 1.64035E-16
2.51783E-05 1.38545E-16
2.74153E-05 1.17769E-16
2.97475E-05 1.00719E-16
3.21749E-05 8.66411E-17
3.46974E-05 7.49453E-17
3.73152E-05 6.51670E-17
4.00281E-05 5.69411E-17
4.28362E-05 4.99771E-17
4.57395E-05 4.40466E-17
4.87380E-05 3.89697E-17
5.18317E-05 3.46031E-17
5.50205E-05 3.08315E-17
5.83045E-05 2.75609E-17
6.16838E-05 2.47142E-17
6.51582E-05 2.22273E-17
6.87277E-05 2.00468E-17
7.23925E-05 1.81282E-17
7.61524E-05 1.64307E-17
9.21439E-05 1.13501E-17
1.09658E-04 8.09071E-18
1.28695E-04 5.92175E-18
1.49255E-04 4.43311E-18
1.71338E-04 3.38391E-18
1.94942E-04 2.62742E-18
2.20070E-04 2.07092E-18
2.46720E-04 1.65423E-18
2.74892E-04 1.33732E-18
3.04586E-04 1.09278E-18
3.35803E-04 9.01733E-19
3.68542E-04 7.50695E-19
4.02802E-04 6.30034E-19
4.38585E-04 5.32704E-19
4.75889E-04 4.53484E-19
5.14715E-04 3.88489E-19
5.55063E-04 3.34744E-19
5.96931E-04 2.90003E-19
6.40321E-04 2.52505E-19
6.85233E-04 2.20890E-19
7.31665E-04 1.94082E-19
7.79618E-04 1.71229E-19
8.29092E-04 1.51650E-19
8.80086E-04 1.34799E-19
9.32601E-04 1.20229E-19
9.86636E-04 1.07582E-19
1.04219E-03 9.65583E-20
1.09927E-03 8.69158E-20
1.15786E-03 7.84501E-20
1.21797E-03 7.09940E-20
1.27961E-03 6.44054E-20
1.34276E-03 5.85663E-20
1.40743E-03 5.33762E-20
1.47362E-03 4.87505E-20
1.54133E-03 4.46168E-20
1.61056E-03 4.09138E-20
1.68131E-03 3.75885E-20
1.75357E-03 3.45957E-20
1.82735E-03 3.18959E-20
1.90265E-03 2.94557E-20
1.97947E-03 2.72453E-20
2.05780E-03 2.52394E-20
2.13765E-03 2.34156E-20
2.21902E-03 2.17544E-20
2.30190E-03 2.02386E-20
2.38630E-03 1.88533E-20
2.47222E-03 1.75851E-20
2.55965E-03 1.64223E-20
2.64859E-03 1.53547E-20
2.73905E-03 1.43729E-20
2.83103E-03 1.34688E-20
2.92452E-03 1.26351E-20
3.01952E-03 1.18653E-20
3.11604E-03 1.11537E-20
3.21407E-03 1.04950E-20
3.31362E-03 9.88452E-21
3.41468E-03 9.31811E-21
3.51725E-03 8.79201E-21
3.62133E-03 8.30281E-21
3.72692E-03 7.84741E-21
3.83403E-03 7.42306E-21
3.94265E-03 7.02725E-21
4.05278E-03 6.65770E-21
4.16442E-03 6.31233E-21
4.27757E-03 5.98926E-21
4.39223E-03 5.68679E-21
4.50840E-03 5.40335E-21
4.62608E-03 5.13752E-21
4.74527E-03 4.88800E-21
4.86597E-03 4.65359E-21
4.98817E-03 4.43321E-21
5.11188E-03 4.22586E-21
5.23711E-03 4.03062E-21
5.36383E-03 3.84664E-21
5.49207E-03 3.67317E-21
5.62181E-03 3.50947E-21
5.75306E-03 3.35490E-21
5.88581E-03 3.20885E-21
6.02007E-03 3.07075E-21
6.15583E-03 2.94009E-21
6.29310E-03 2.81640E-21
6.43187E-03 2.69923E-21
6.57214E-03 2.58816E-21
6.71392E-03 2.48283E-21
6.85720E-03 2.38287E-21
7.00198E-03 2.28797E-21
7.14827E-03 2.19780E-21
7.29605E-03 2.11210E-21
7.44534E-03 2.03060E-21
7.59612E-03 1.95304E-21
7.97965E-03 1.77498E-21
8.37255E-03 1.61705E-21
8.77480E-03 1.47657E-21
9.18641E-03 1.35124E-21
9.60736E-03 1.23915E-21
1.00376E-02 1.13865E-21
1.04773E-02 1.04830E-21
1.09262E-02 9.66896E-22
1.13844E-02 8.93392E-22
1.18520E-02 8.26875E-22
1.23288E-02 7.66554E-22
1.28150E-02 7.11747E-22
1.33104E-02 6.61855E-22
1.38150E-02 6.16350E-22
1.43290E-02 5.74776E-22
1.48521E-02 5.36728E-22
1.53845E-02 5.01849E-22
1.59262E-02 4.69823E-22
1.64770E-02 4.40374E-22
1.70371E-02 4.13253E-22
1.76063E-02 3.88240E-22
1.81848E-02 3.65139E-22
1.87724E-02 3.43777E-22
1.93692E-02 3.23995E-22
1.99751E-02 3.05653E-22
2.05901E-02 2.88627E-22
2.12143E-02 2.72803E-22
2.18476E-02 2.58079E-22
2.24900E-02 2.44364E-22
2.31415E-02 2.31574E-22
2.38021E-02 2.19634E-22
2.44717E-02 2.08478E-22
2.51504E-02 1.98041E-22
2.58382E-02 1.88269E-22
2.65349E-02 1.79112E-22
2.72407E-02 1.70521E-22
2.79555E-02 1.62455E-22
2.86793E-02 1.54876E-22
2.94120E-02 1.47748E-22
3.01537E-02 1.41038E-22
3.09043E-02 1.34717E-22
3.16639E-02 1.28757E-22
3.24324E-02 1.23134E-22
3.32098E-02 1.17825E-22
3.39961E-02 1.12808E-22
3.47912E-02 1.08065E-22
3.55952E-02 1.03576E-22
3.64081E-02 9.93253E-23
3.72297E-02 9.52979E-23
3.80602E-02 9.14795E-23
3.88995E-02 8.78566E-23
3.97476E-02 8.44174E-23
4.06044E-02 8.11504E-23
4.14700E-02 7.80453E-23
4.23443E-02 7.50922E-23
4.32273E-02 7.22821E-23
4.41190E-02 6.96066E-23
4.50194E-02 6.70579E-23
4.59284E-02 6.46287E-23
4.68461E-02 6.23121E-23
4.87074E-02 5.79919E-23
5.06030E-02 5.40514E-23
5.25328E-02 5.04502E-23
5.44967E-02 4.71533E-23
5.64946E-02 4.41295E-23
5.85262E-02 4.13517E-23
6.05914E-02 3.87956E-23
6.26901E-02 3.64402E-23
6.48222E-02 3.42667E-23
6.69873E-02 3.22592E-23
6.91854E-02 3.03966E-23
7.14163E-02 2.86700E-23
7.36799E-02 2.70673E-23
7.59760E-02 2.55778E-23
7.83043E-02 2.41917E-23
8.06647E-02 2.29004E-23
8.30571E-02 2.16960E-23
8.54812E-02 2.05714E-23
8.79369E-02 1.95202E-23
9.04240E-02 1.85365E-23
9.29422E-02 1.76151E-23
9.54915E-02 1.67512E-23
9.80716E-02 1.59404E-23
1.00682E-01 1.51789E-23
1.03323E-01 1.44628E-23
1.05995E-01 1.37890E-23
1.08696E-01 1.31544E-23
1.11427E-01 1.25563E-23
1.14188E-01 1.19921E-23
1.16978E-01 1.14594E-23
1.19797E-01 1.09562E-23
1.22645E-01 1.04804E-23
1.25522E-01 1.00302E-23
1.28428E-01 9.60405E-24
1.31361E-01 9.20029E-24
1.34323E-01 8.81751E-24
1.37313E-01 8.45440E-24
1.40330E-01 8.10974E-24
1.43375E-01 7.78238E-24
1.46447E-01 7.47128E-24
1.49545E-01 7.17546E-24
1.52671E-01 6.89402E-24
1.55823E-01 6.62611E-24
1.59001E-01 6.37094E-24
1.62205E-01 6.12778E-24
1.65435E-01 5.89595E-24
1.68690E-01 5.67482E-24
1.71970E-01 5.46378E-24
1.75276E-01 5.26229E-24
1.78606E-01 5.06983E-24
1.81961E-01 4.88590E-24
1.85340E-01 4.71005E-24
1.88743E-01 4.54186E-24
1.92169E-01 4.38093E-24
1.95619E-01 4.22687E-24
1.99092E-01 4.07935E-24
2.02589E-01 3.93801E-24
2.06107E-01 3.80257E-24
2.09649E-01 3.67271E-24
2.13212E-01 3.54817E-24
2.16797E-01 3.42868E-24
2.20404E-01 3.31401E-24
2.24032E-01 3.20391E-24
2.27680E-01 3.09817E-24
2.31350E-01 2.99659E-24
2.35040E-01 2.89897E-24
2.38751E-01 2.80512E-24
2.42481E-01 2.71488E-24
2.46231E-01 2.62808E-24
2.50000E-01 2.54456E-24
2.53788E-01 2.46418E-24
2.57595E-01 2.38679E-24
2.61421E-01 2.31226E-24
2.65264E-01 2.24048E-24
2.69126E-01 2.17131E-24
2.73005E-01 2.10465E-24
2.76901E-01 2.04039E-24
2.80814E-01 1.97843E-24
2.84744E-01 1.91867E-24
2.88691E-01 1.86101E-24
2.92653E-01 1.80538E-24
2.96632E-01 1.75168E-24
3.00625E-01 1.69984E-24
3.04634E-01 1.64979E-24
3.08658E-01 1.60144E-24
3.12697E-01 1.55474E-24
3.16749E-01 1.50961E-24
3.20816E-01 1.46600E-24
3.24896E-01 1.42384E-24
3.28990E-01 1.38308E-24
3.33097E-01 1.34367E-24
3.37216E-01 1.30554E-24
3.41348E-01 1.26866E-24
3.45492E-01 1.23297E-24
3.49647E-01 1.19844E-24
3.53814E-01 1.16501E-24
3.57992E-01 1.13265E-24
3.62181E-01 1.10131E-24
3.66381E-01 1.07096E-24
3.70590E-01 1.04156E-24
3.74810E-01 1.01309E-24
3.79039E-01 9.85491E-25
3.83277E-01 9.58748E-25
3.87524E-01 9.32828E-25
3.91780E-01 9.07700E-25
3.96044E-01 8.83336E-25
4.00316E-01 8.59711E-25
4.04596E-01 8.36797E-25
4.08882E-01 8.14570E-25
4.13176E-01 7.93006E-25
4.17476E-01 7.72083E-25
4.21783E-01 7.51778E-25
4.26095E-01 7.32071E-25
4.30413E-01 7.12941E-25
4.34737E-01 6.94369E-25
4.39065E-01 6.76336E-25
4.43398E-01 6.58823E-25
4.47736E-01 6.41815E-25
4.52077E-01 6.25293E-25
4.56422E-01 6.09242E-25
4.60770E-01 5.93647E-25
4.65122E-01 5.78493E-25
4.69476E-01 5.63765E-25
4.73832E-01 5.49450E-25
4.78190E-01 5.35535E-25
4.82550E-01 5.22006E-25
4.86912E-01 5.08852E-25
4.91274E-01 4.96060E-25
4.95637E-01 4.83619E-25
5.00000E-01 4.71519E-25
5.04363E-01 4.59747E-25
5.08726E-01 4.48295E-25
5.13088E-01 4.37153E-25
5.17450E-01 4.26310E-25
5.21810E-01 4.15758E-25
5.26168E-01 4.05487E-25
5.30524E-01 3.95490E-25
5.34878E-01 3.85757E-25
5.39230E-01 3.76282E-25
5.43578E-01 3.67055E-25
5.47923E-01 3.58071E-25
5.52264E-01 3.49320E-25
5.56602E-01 3.40797E-25
5.60935E-01 3.32495E-25
5.65263E-01 3.24408E-25
5.69587E-01 3.16528E-25
5.73905E-01 3.08850E-25
5.78217E-01 3.01368E-25
5.82524E-01 2.94077E-25
5.86824E-01 2.86970E-25
5.91118E-01 2.80043E-25
5.95404E-01 2.73291E-25
5.99684E-01 2.66708E-25
6.03956E-01 2.60289E-25
6.08220E-01 2.54030E-25
6.12476E-01 2.47927E-25
6.16723E-01 2.41975E-25
6.20961E-01 2.36170E-25
6.25190E-01 2.30507E-25
6.29410E-01 2.24984E-25
6.33619E-01 2.19595E-25
6.37819E-01 2.14337E-25
6.42008E-01 2.09207E-25
6.46186E-01 2.04201E-25
6.50353E-01 1.99316E-25
6.54508E-01 1.94548E-25
6.58652E-01 1.89894E-25
6.62784E-01 1.85352E-25
6.66903E-01 1.80918E-25
6.71010E-01 1.76589E-25
6.75104E-01 1.72362E-25
6.79184E-01 1.68235E-25
6.83251E-01 1.64206E-25
6.87303E-01 1.60271E-25
6.91342E-01 1.56428E-25
6.95366E-01 1.52674E-25
6.99375E-01 1.49008E-25
7.03368E-01 1.45427E-25
7.07347E-01 1.41928E-25
7.11309E-01 1.38511E-25
7.15256E-01 1.35172E-25
7.19186E-01 1.31909E-25
7.23099E-01 1.28722E-25
7.26995E-01 1.25607E-25
7.30874E-01 1.22562E-25
7.34736E-01 1.19587E-25
7.38579E-01 1.16680E-25
7.42405E-01 1.13838E-25
7.46212E-01 1.11060E-25
7.50000E-01 1.08344E-25
7.53769E-01 1.05689E-25
7.57519E-01 1.03094E-25
7.61249E-01 1.00557E-25
7.64960E-01 9.80758E-26
7.68650E-01 9.56501E-26
7.72320E-01 9.32782E-26
7.75968E-01 9.09588E-26
7.79596E-01 8.86906E-26
7.83203E-01 8.64724E-26
7.86788E-01 8.43031E-26
7.90351E-01 8.21814E-26
7.93893E-01 8.01062E-26
7.97411E-01 7.80764E-26
8.00908E-01 7.60909E-26
8.04381E-01 7.41488E-26
8.07831E-01 7.22491E-26
8.11257E-01 7.03906E-26
8.14660E-01 6.85725E-26
8.18039E-01 6.67939E-26
8.21394E-01 6.50538E-26
8.24724E-01 6.33514E-26
8.28030E-01 6.16858E-26
8.31310E-01 6.00562E-26
8.34565E-01 5.84618E-26
8.37795E-01 5.69018E-26
8.40999E-01 5.53754E-26
8.44177E-01 5.38820E-26
8.47329E-01 5.24207E-26
8.50455E-01 5.09909E-26
8.53553E-01 4.95919E-26
8.56625E-01 4.82230E-26
8.59670E-01 4.68836E-26
8.62687E-01 4.55731E-26
8.65677E-01 4.42908E-26
8.68639E-01 4.30361E-26
8.71572E-01 4.18085E-26
8.74478E-01 4.06075E-26
8.77355E-01 3.94323E-26
8.80203E-01 3.82826E-26
8.83022E-01 3.71579E-26
8.85812E-01 3.60575E-26
8.88573E-01 3.49810E-26
8.91304E-01 3.39280E-26
8.94005E-01 3.28979E-26
8.96677E-01 3.18904E-26
8.99318E-01 3.09049E-26
9.01928E-01 2.99411E-26
9.04508E-01 2.89986E-26
9.07058E-01 2.80768E-26
9.09576E-01 2.71755E-26
9.12063E-01 2.62943E-26
9.14519E-01 2.54327E-26
9.16943E-01 2.45904E-26
9.19335E-01 2.37671E-26
9.21696E-01 2.29625E-26
9.24024E-01 2.21761E-26
9.26320E-01 2.14077E-26
9.28584E-01 2.06570E-26
9.30815E-01 1.99236E-26
9.33013E-01 1.92072E-26
9.35178E-01 1.85076E-26
9.37310E-01 1.78245E-26
9.39409E-01 1.71576E-26
9.41474E-01 1.65066E-26
9.43505E-01 1.58713E-26
9.45503E-01 1.52515E-26
9.47467E-01 1.46468E-26
9.49397E-01 1.40571E-26
9.51293E-01 1.34820E-26
9.53154E-01 1.29215E-26
9.54981E-01 1.23753E-26
9.56773E-01 1.18431E-26
9.58530E-01 1.13248E-26
9.60252E-01 1.08202E-26
9.61940E-01 1.03291E-26
9.63592E-01 9.85123E-27
9.65209E-01 9.38649E-27
9.66790E-01 8.93469E-27
9.68336E-01 8.49565E-27
9.69846E-01 8.06923E-27
9.71321E-01 7.65525E-27
9.72759E-01 7.25356E-27
9.74162E-01 6.86403E-27
9.75528E-01 6.48649E-27
9.76858E-01 6.12082E-27
9.78152E-01 5.76689E-27
9.79410E-01 5.42455E-27
9.80631E-01 5.09370E-27
9.81815E-01 4.77420E-27
9.82963E-01 4.46596E-27
9.84074E-01 4.16884E-27
9.85148E-01 3.88275E-27
9.86185E-01 3.60759E-27
9.87185E-01 3.34326E-27
9.88148E-01 3.08966E-27
9.89074E-01 2.84671E-27
9.89962E-01 2.61431E-27
9.90814E-01 2.39239E-27
9.91627E-01 2.18086E-27
9.92404E-01 1.97966E-27
9.93143E-01 1.78872E-27
9.93844E-01 1.60796E-27
9.94508E-01 1.43732E-27
9.95134E-01 1.27675E-27
9.95722E-01 1.12618E-27
9.96273E-01 9.85575E-28
9.96786E-01 8.54874E-28
9.97261E-01 7.34033E-28
9.97698E-01 6.23013E-28
9.98097E-01 5.21775E-28
9.98459E-01 4.30282E-28
9.98782E-01 3.48505E-28
9.99067E-01 2.76415E-28
9.99315E-01 2.13987E-28
9.99524E-01 1.61200E-28
9.99695E-01 1.18034E-28
9.99829E-01 8.44769E-29
9.99924E-01 6.05155E-29
9.99981E-01 4.61419E-29
1.00000E+00 4.13513E-29
