 #
 # Subroutine ELSEPA. Elastic scattering of electrons and positrons
 #                    by neutral atoms and positive ions
 #
 # Projectile: electron
 # Kinetic energy = 1.00000E+09 eV = 3.67493E+07 a.u.
 #
 # WARNING: High-energy factorization with free-atom DF screening.
 #          Absorption, polarization and exchange corrections are
 #          switched off.
 #          Phase shifts are calculated for the bare nucleus.
 #          Scattering amplitudes are not evaluated.
 #
 # Element:  U,  Z =  92,  atomic weight = 2.38029E+02 g/mol
 #
 # Nuclear model: Fermi distribution
 #                Average radius = 6.63122E-13 cm
 #                Skin thickness = 5.46000E-14 cm
 #
 # Number of electrons = 92
 #
 # Total elastic cross section = 1.15629E-17 cm**2 = 4.12917E-01 a0**2
 # 1st transport cross section = 1.56164E-26 cm**2 = 5.57672E-10 a0**2
 # 2nd transport cross section = 4.68445E-26 cm**2 = 1.67285E-09 a0**2
 #
 #
 # Differential cross section:                       MU=(1-COS(THETA))/2
 #
 #  THETA        MU          DCS          DCS        Sherman      error
 #  (deg)                 (cm**2/sr)   (a0**2/sr)    function
 #----------------------------------------------------------------------
0.00000E+00 1.32360E-07
7.61557E-13 9.27286E-08
1.18994E-12 7.86240E-08
1.71346E-12 6.59704E-08
2.33225E-12 5.52127E-08
3.04617E-12 4.63386E-08
3.85530E-12 3.91238E-08
4.75964E-12 3.32777E-08
5.75917E-12 2.85223E-08
6.85391E-12 2.46199E-08
8.04379E-12 2.13854E-08
9.32893E-12 1.86787E-08
1.07092E-11 1.63933E-08
1.21847E-11 1.44479E-08
1.37554E-11 1.27808E-08
1.54213E-11 1.13411E-08
1.71823E-11 1.00952E-08
1.90386E-11 9.01256E-09
2.09900E-11 8.06882E-09
2.30367E-11 7.24017E-09
2.51785E-11 6.47285E-09
2.74156E-11 5.82156E-09
2.97478E-11 5.26542E-09
3.21752E-11 4.78782E-09
3.46979E-11 4.37540E-09
3.73157E-11 3.98730E-09
4.00286E-11 3.63000E-09
4.28368E-11 3.31887E-09
4.57402E-11 3.04672E-09
4.87388E-11 2.80763E-09
5.18325E-11 2.59455E-09
5.50215E-11 2.38638E-09
5.83057E-11 2.20218E-09
6.16850E-11 2.03860E-09
6.51595E-11 1.89283E-09
6.87293E-11 1.76251E-09
7.23943E-11 1.63877E-09
7.61544E-11 1.52360E-09
1.18991E-10 8.00969E-10
1.71347E-10 4.61790E-10
2.33223E-10 2.85836E-10
3.04617E-10 1.87160E-10
3.85531E-10 1.27884E-10
4.75965E-10 9.03021E-11
5.75917E-10 6.55276E-11
6.85389E-10 4.85319E-11
8.04380E-10 3.67252E-11
9.32891E-10 2.83247E-11
1.07092E-09 2.22041E-11
1.21847E-09 1.76559E-11
1.37554E-09 1.42217E-11
1.54213E-09 1.15891E-11
1.71823E-09 9.54330E-12
1.90386E-09 7.93137E-12
2.09900E-09 6.64618E-12
2.30367E-09 5.61082E-12
2.51785E-09 4.76590E-12
2.74156E-09 4.08100E-12
2.97478E-09 3.51089E-12
3.21752E-09 3.03979E-12
3.46978E-09 2.64425E-12
3.73156E-09 2.31181E-12
4.00286E-09 2.03029E-12
4.28368E-09 1.79031E-12
4.57402E-09 1.58543E-12
4.87388E-09 1.40863E-12
5.18326E-09 1.25657E-12
5.50215E-09 1.12387E-12
5.83057E-09 1.00887E-12
6.16850E-09 9.07757E-13
6.51596E-09 8.19342E-13
6.87293E-09 7.41246E-13
7.23942E-09 6.72333E-13
7.61544E-09 6.11205E-13
1.18991E-08 2.61881E-13
1.71347E-08 1.29947E-13
2.33223E-08 7.16187E-14
3.04617E-08 4.26767E-14
3.85531E-08 2.69989E-14
4.75965E-08 1.79036E-14
5.75917E-08 1.23338E-14
6.85389E-08 8.76909E-15
8.04380E-08 6.40278E-15
9.32891E-08 4.78271E-15
1.07092E-07 3.64370E-15
1.21847E-07 2.82428E-15
1.37554E-07 2.22269E-15
1.54213E-07 1.77307E-15
1.71823E-07 1.43159E-15
1.90386E-07 1.16851E-15
2.09900E-07 9.63195E-16
2.30367E-07 8.01065E-16
2.51785E-07 6.71672E-16
2.74156E-07 5.67385E-16
2.97478E-07 4.82583E-16
3.21752E-07 4.13053E-16
3.46978E-07 3.55611E-16
3.73156E-07 3.07819E-16
4.00286E-07 2.67794E-16
4.28368E-07 2.34069E-16
4.57402E-07 2.05491E-16
4.87388E-07 1.81145E-16
5.18325E-07 1.60301E-16
5.50215E-07 1.42370E-16
5.83057E-07 1.26879E-16
6.16850E-07 1.13438E-16
6.51596E-07 1.01730E-16
6.87293E-07 9.14953E-17
7.23942E-07 8.25155E-17
7.61543E-07 7.46108E-17
1.18991E-06 3.06949E-17
1.71347E-06 1.48443E-17
2.33223E-06 8.02789E-18
3.04617E-06 4.71223E-18
3.85531E-06 2.94482E-18
4.75964E-06 1.93363E-18
5.75916E-06 1.32153E-18
6.85388E-06 9.33581E-19
8.04378E-06 6.78108E-19
9.32888E-06 5.04346E-19
1.07092E-05 3.82849E-19
1.21846E-05 2.95837E-19
1.37553E-05 2.32201E-19
1.54212E-05 1.84795E-19
1.71822E-05 1.48895E-19
1.90385E-05 1.21221E-19
2.09899E-05 9.98381E-20
2.30365E-05 8.29524E-20
2.51783E-05 6.94683E-20
2.74153E-05 5.86035E-20
2.97475E-05 4.97724E-20
3.21749E-05 4.25399E-20
3.46974E-05 3.65792E-20
3.73152E-05 3.16322E-20
4.00281E-05 2.74977E-20
4.28362E-05 2.40188E-20
4.57395E-05 2.10731E-20
4.87380E-05 1.85647E-20
5.18317E-05 1.64178E-20
5.50205E-05 1.45718E-20
5.83045E-05 1.29781E-20
6.16838E-05 1.15966E-20
6.51582E-05 1.03946E-20
6.87277E-05 9.34469E-21
7.23925E-05 8.42429E-21
7.61524E-05 7.90859E-21
9.21439E-05 5.40242E-21
1.09658E-04 3.80700E-21
1.28695E-04 2.75271E-21
1.49255E-04 2.03373E-21
1.71338E-04 1.53016E-21
1.94942E-04 1.16937E-21
2.20070E-04 9.05714E-22
2.46720E-04 7.09710E-22
2.74892E-04 5.61808E-22
3.04586E-04 4.48695E-22
3.35803E-04 3.61184E-22
3.68542E-04 2.92759E-22
4.02802E-04 2.38762E-22
4.38585E-04 1.95792E-22
4.75889E-04 1.61338E-22
5.14715E-04 1.33529E-22
5.55063E-04 1.10942E-22
5.96931E-04 9.24972E-23
6.40321E-04 7.73594E-23
6.85233E-04 6.48791E-23
7.31665E-04 5.45484E-23
7.79618E-04 4.59643E-23
8.29092E-04 3.88083E-23
8.80086E-04 3.28242E-23
9.32601E-04 2.78065E-23
9.86636E-04 2.35888E-23
1.04219E-03 2.00353E-23
1.09927E-03 1.70357E-23
1.15786E-03 1.44988E-23
1.21797E-03 1.23500E-23
1.27961E-03 1.05273E-23
1.34276E-03 8.97919E-24
1.40743E-03 7.66293E-24
1.47362E-03 6.54266E-24
1.54133E-03 5.58848E-24
1.61056E-03 4.77515E-24
1.68131E-03 4.08151E-24
1.75357E-03 3.48966E-24
1.82735E-03 2.98446E-24
1.90265E-03 2.55314E-24
1.97947E-03 2.18479E-24
2.05780E-03 1.87019E-24
2.13765E-03 1.60149E-24
2.21902E-03 1.37198E-24
2.30190E-03 1.17596E-24
2.38630E-03 1.00856E-24
2.47222E-03 8.65605E-25
2.55965E-03 7.43546E-25
2.64859E-03 6.39338E-25
2.73905E-03 5.50378E-25
2.83103E-03 4.74437E-25
2.92452E-03 4.09611E-25
3.01952E-03 3.54265E-25
3.11604E-03 3.07005E-25
3.21407E-03 2.66637E-25
3.31362E-03 2.32138E-25
3.41468E-03 2.02635E-25
3.51725E-03 1.77383E-25
3.62133E-03 1.55745E-25
3.72692E-03 1.37177E-25
3.83403E-03 1.21217E-25
3.94265E-03 1.07470E-25
4.05278E-03 9.56013E-26
4.16442E-03 8.53263E-26
4.27757E-03 7.64034E-26
4.39223E-03 6.86279E-26
4.50840E-03 6.18267E-26
4.62608E-03 5.58536E-26
4.74527E-03 5.05853E-26
4.86597E-03 4.59178E-26
4.98817E-03 4.17638E-26
5.11188E-03 3.80500E-26
5.23711E-03 3.47146E-26
5.36383E-03 3.17063E-26
5.49207E-03 2.89817E-26
5.62181E-03 2.65047E-26
5.75306E-03 2.42451E-26
5.88581E-03 2.21775E-26
6.02007E-03 2.02806E-26
6.15583E-03 1.85366E-26
6.29310E-03 1.69304E-26
6.43187E-03 1.54492E-26
6.57214E-03 1.40821E-26
6.71392E-03 1.28197E-26
6.85720E-03 1.16540E-26
7.00198E-03 1.05778E-26
7.14827E-03 9.58488E-27
7.29605E-03 8.66962E-27
7.44534E-03 7.82696E-27
7.59612E-03 7.05223E-27
7.97965E-03 5.38522E-27
8.37255E-03 4.05665E-27
8.77480E-03 3.01387E-27
9.18641E-03 2.20969E-27
9.60736E-03 1.60167E-27
1.00376E-02 1.15187E-27
1.04773E-02 8.26963E-28
1.09262E-02 5.98199E-28
1.13844E-02 4.41398E-28
1.18520E-02 3.36736E-28
1.23288E-02 2.68431E-28
1.28150E-02 2.24313E-28
1.33104E-02 1.95348E-28
1.38150E-02 1.75122E-28
1.43290E-02 1.59333E-28
1.48521E-02 1.45319E-28
1.53845E-02 1.31630E-28
1.59262E-02 1.17669E-28
1.64770E-02 1.03386E-28
1.70371E-02 8.90462E-29
1.76063E-02 7.50574E-29
1.81848E-02 6.18444E-29
1.87724E-02 4.97737E-29
1.93692E-02 3.91113E-29
1.99751E-02 3.00074E-29
2.05901E-02 2.25004E-29
2.12143E-02 1.65329E-29
2.18476E-02 1.19733E-29
2.24900E-02 8.64073E-30
2.31415E-02 6.32794E-30
2.38021E-02 4.82149E-30
2.44717E-02 3.91782E-30
2.51504E-02 3.43469E-30
2.58382E-02 3.21823E-30
2.65349E-02 3.14609E-30
2.72407E-02 3.12745E-30
2.79555E-02 3.10058E-30
2.86793E-02 3.02891E-30
2.94120E-02 2.89619E-30
3.01537E-02 2.70138E-30
3.09043E-02 2.45382E-30
3.16639E-02 2.16892E-30
3.24324E-02 1.86453E-30
3.32098E-02 1.55827E-30
3.39961E-02 1.26557E-30
3.47912E-02 9.98542E-31
3.55952E-02 7.65483E-31
3.64081E-02 5.70871E-31
3.72297E-02 4.15749E-31
3.80602E-02 2.98345E-31
3.88995E-02 2.14795E-31
3.97476E-02 1.59891E-31
4.06044E-02 1.27779E-31
4.14700E-02 1.12545E-31
4.23443E-02 1.08681E-31
4.32273E-02 1.11401E-31
4.41190E-02 1.16831E-31
4.50194E-02 1.22079E-31
4.59284E-02 1.25209E-31
4.68461E-02 1.25143E-31
4.87074E-02 1.14532E-31
5.06030E-02 9.29556E-32
5.25328E-02 6.68391E-32
5.44967E-02 4.24506E-32
5.64946E-02 2.38022E-32
5.85262E-02 1.21727E-32
6.05914E-02 6.69290E-33
6.26901E-02 5.36485E-33
6.48222E-02 6.02759E-33
6.69873E-02 6.99924E-33
6.91854E-02 7.33431E-33
7.14163E-02 6.77255E-33
7.36799E-02 5.51561E-33
7.59760E-02 3.96373E-33
7.83043E-02 2.50330E-33
8.06647E-02 1.38608E-33
8.30571E-02 6.97902E-34
8.54812E-02 3.90324E-34
8.79369E-02 3.40817E-34
9.04240E-02 4.12621E-34
9.29422E-02 4.96741E-34
9.54915E-02 5.30610E-34
9.80716E-02 4.96779E-34
1.00682E-01 4.09505E-34
1.03323E-01 2.97588E-34
1.05995E-01 1.89719E-34
1.08696E-01 1.05534E-34
1.11427E-01 5.27471E-35
1.14188E-01 2.88848E-35
1.16978E-01 2.53721E-35
1.19797E-01 3.19348E-35
1.22645E-01 3.99282E-35
1.25522E-01 4.40369E-35
1.28428E-01 4.24509E-35
1.31361E-01 3.60169E-35
1.34323E-01 2.69692E-35
1.37313E-01 1.77430E-35
1.40330E-01 1.01692E-35
1.43375E-01 5.13560E-36
1.46447E-01 2.63956E-36
1.49545E-01 2.07588E-36
1.52671E-01 2.59520E-36
1.55823E-01 3.40781E-36
1.59001E-01 3.96758E-36
1.62205E-01 4.02735E-36
1.65435E-01 3.59533E-36
1.68690E-01 2.83856E-36
1.71970E-01 1.97782E-36
1.75276E-01 1.20516E-36
1.78606E-01 6.38341E-37
1.81961E-01 1.00000E-45
1.85340E-01 1.00000E-45
1.88743E-01 1.00000E-45
1.92169E-01 1.00000E-45
1.95619E-01 1.00000E-45
1.99092E-01 1.00000E-45
2.02589E-01 1.00000E-45
2.06107E-01 1.00000E-45
2.09649E-01 1.00000E-45
2.13212E-01 1.00000E-45
2.16797E-01 1.00000E-45
2.20404E-01 1.00000E-45
2.24032E-01 1.00000E-45
2.27680E-01 1.00000E-45
2.31350E-01 1.00000E-45
2.35040E-01 1.00000E-45
2.38751E-01 1.00000E-45
2.42481E-01 1.00000E-45
2.46231E-01 1.00000E-45
2.50000E-01 1.00000E-45
2.53788E-01 1.00000E-45
2.57595E-01 1.00000E-45
2.61421E-01 1.00000E-45
2.65264E-01 1.00000E-45
2.69126E-01 1.00000E-45
2.73005E-01 1.00000E-45
2.76901E-01 1.00000E-45
2.80814E-01 1.00000E-45
2.84744E-01 1.00000E-45
2.88691E-01 1.00000E-45
2.92653E-01 1.00000E-45
2.96632E-01 1.00000E-45
3.00625E-01 1.00000E-45
3.04634E-01 1.00000E-45
3.08658E-01 1.00000E-45
3.12697E-01 1.00000E-45
3.16749E-01 1.00000E-45
3.20816E-01 1.00000E-45
3.24896E-01 1.00000E-45
3.28990E-01 1.00000E-45
3.33097E-01 1.00000E-45
3.37216E-01 1.00000E-45
3.41348E-01 1.00000E-45
3.45492E-01 1.00000E-45
3.49647E-01 1.00000E-45
3.53814E-01 1.00000E-45
3.57992E-01 1.00000E-45
3.62181E-01 1.00000E-45
3.66381E-01 1.00000E-45
3.70590E-01 1.00000E-45
3.74810E-01 1.00000E-45
3.79039E-01 1.00000E-45
3.83277E-01 1.00000E-45
3.87524E-01 1.00000E-45
3.91780E-01 1.00000E-45
3.96044E-01 1.00000E-45
4.00316E-01 1.00000E-45
4.04596E-01 1.00000E-45
4.08882E-01 1.00000E-45
4.13176E-01 1.00000E-45
4.17476E-01 1.00000E-45
4.21783E-01 1.00000E-45
4.26095E-01 1.00000E-45
4.30413E-01 1.00000E-45
4.34737E-01 1.00000E-45
4.39065E-01 1.00000E-45
4.43398E-01 1.00000E-45
4.47736E-01 1.00000E-45
4.52077E-01 1.00000E-45
4.56422E-01 1.00000E-45
4.60770E-01 1.00000E-45
4.65122E-01 1.00000E-45
4.69476E-01 1.00000E-45
4.73832E-01 1.00000E-45
4.78190E-01 1.00000E-45
4.82550E-01 1.00000E-45
4.86912E-01 1.00000E-45
4.91274E-01 1.00000E-45
4.95637E-01 1.00000E-45
5.00000E-01 1.00000E-45
5.04363E-01 1.00000E-45
5.08726E-01 1.00000E-45
5.13088E-01 1.00000E-45
5.17450E-01 1.00000E-45
5.21810E-01 1.00000E-45
5.26168E-01 1.00000E-45
5.30524E-01 1.00000E-45
5.34878E-01 1.00000E-45
5.39230E-01 1.00000E-45
5.43578E-01 1.00000E-45
5.47923E-01 1.00000E-45
5.52264E-01 1.00000E-45
5.56602E-01 1.00000E-45
5.60935E-01 1.00000E-45
5.65263E-01 1.00000E-45
5.69587E-01 1.00000E-45
5.73905E-01 1.00000E-45
5.78217E-01 1.00000E-45
5.82524E-01 1.00000E-45
5.86824E-01 1.00000E-45
5.91118E-01 1.00000E-45
5.95404E-01 1.00000E-45
5.99684E-01 1.00000E-45
6.03956E-01 1.00000E-45
6.08220E-01 1.00000E-45
6.12476E-01 1.00000E-45
6.16723E-01 1.00000E-45
6.20961E-01 1.00000E-45
6.25190E-01 1.00000E-45
6.29410E-01 1.00000E-45
6.33619E-01 1.00000E-45
6.37819E-01 1.00000E-45
6.42008E-01 1.00000E-45
6.46186E-01 1.00000E-45
6.50353E-01 1.00000E-45
6.54508E-01 1.00000E-45
6.58652E-01 1.00000E-45
6.62784E-01 1.00000E-45
6.66903E-01 1.00000E-45
6.71010E-01 1.00000E-45
6.75104E-01 1.00000E-45
6.79184E-01 1.00000E-45
6.83251E-01 1.00000E-45
6.87303E-01 1.00000E-45
6.91342E-01 1.00000E-45
6.95366E-01 1.00000E-45
6.99375E-01 1.00000E-45
7.03368E-01 1.00000E-45
7.07347E-01 1.00000E-45
7.11309E-01 1.00000E-45
7.15256E-01 1.00000E-45
7.19186E-01 1.00000E-45
7.23099E-01 1.00000E-45
7.26995E-01 1.00000E-45
7.30874E-01 1.00000E-45
7.34736E-01 1.00000E-45
7.38579E-01 1.00000E-45
7.42405E-01 1.00000E-45
7.46212E-01 1.00000E-45
7.50000E-01 1.00000E-45
7.53769E-01 1.00000E-45
7.57519E-01 1.00000E-45
7.61249E-01 1.00000E-45
7.64960E-01 1.00000E-45
7.68650E-01 1.00000E-45
7.72320E-01 1.00000E-45
7.75968E-01 1.00000E-45
7.79596E-01 1.00000E-45
7.83203E-01 1.00000E-45
7.86788E-01 1.00000E-45
7.90351E-01 1.00000E-45
7.93893E-01 1.00000E-45
7.97411E-01 1.00000E-45
8.00908E-01 1.00000E-45
8.04381E-01 1.00000E-45
8.07831E-01 1.00000E-45
8.11257E-01 1.00000E-45
8.14660E-01 1.00000E-45
8.18039E-01 1.00000E-45
8.21394E-01 1.00000E-45
8.24724E-01 1.00000E-45
8.28030E-01 1.00000E-45
8.31310E-01 1.00000E-45
8.34565E-01 1.00000E-45
8.37795E-01 1.00000E-45
8.40999E-01 1.00000E-45
8.44177E-01 1.00000E-45
8.47329E-01 1.00000E-45
8.50455E-01 1.00000E-45
8.53553E-01 1.00000E-45
8.56625E-01 1.00000E-45
8.59670E-01 1.00000E-45
8.62687E-01 1.00000E-45
8.65677E-01 1.00000E-45
8.68639E-01 1.00000E-45
8.71572E-01 1.00000E-45
8.74478E-01 1.00000E-45
8.77355E-01 1.00000E-45
8.80203E-01 1.00000E-45
8.83022E-01 1.00000E-45
8.85812E-01 1.00000E-45
8.88573E-01 1.00000E-45
8.91304E-01 1.00000E-45
8.94005E-01 1.00000E-45
8.96677E-01 1.00000E-45
8.99318E-01 1.00000E-45
9.01928E-01 1.00000E-45
9.04508E-01 1.00000E-45
9.07058E-01 1.00000E-45
9.09576E-01 1.00000E-45
9.12063E-01 1.00000E-45
9.14519E-01 1.00000E-45
9.16943E-01 1.00000E-45
9.19335E-01 1.00000E-45
9.21696E-01 1.00000E-45
9.24024E-01 1.00000E-45
9.26320E-01 1.00000E-45
9.28584E-01 1.00000E-45
9.30815E-01 1.00000E-45
9.33013E-01 1.00000E-45
9.35178E-01 1.00000E-45
9.37310E-01 1.00000E-45
9.39409E-01 1.00000E-45
9.41474E-01 1.00000E-45
9.43505E-01 1.00000E-45
9.45503E-01 1.00000E-45
9.47467E-01 1.00000E-45
9.49397E-01 1.00000E-45
9.51293E-01 1.00000E-45
9.53154E-01 1.00000E-45
9.54981E-01 1.00000E-45
9.56773E-01 1.00000E-45
9.58530E-01 1.00000E-45
9.60252E-01 1.00000E-45
9.61940E-01 1.00000E-45
9.63592E-01 1.00000E-45
9.65209E-01 1.00000E-45
9.66790E-01 1.00000E-45
9.68336E-01 1.00000E-45
9.69846E-01 1.00000E-45
9.71321E-01 1.00000E-45
9.72759E-01 1.00000E-45
9.74162E-01 1.00000E-45
9.75528E-01 1.00000E-45
9.76858E-01 1.00000E-45
9.78152E-01 1.00000E-45
9.79410E-01 1.00000E-45
9.80631E-01 1.00000E-45
9.81815E-01 1.00000E-45
9.82963E-01 1.00000E-45
9.84074E-01 1.00000E-45
9.85148E-01 1.00000E-45
9.86185E-01 1.00000E-45
9.87185E-01 1.00000E-45
9.88148E-01 1.00000E-45
9.89074E-01 1.00000E-45
9.89962E-01 1.00000E-45
9.90814E-01 1.00000E-45
9.91627E-01 1.00000E-45
9.92404E-01 1.00000E-45
9.93143E-01 1.00000E-45
9.93844E-01 1.00000E-45
9.94508E-01 1.00000E-45
9.95134E-01 1.00000E-45
9.95722E-01 1.00000E-45
9.96273E-01 1.00000E-45
9.96786E-01 1.00000E-45
9.97261E-01 1.00000E-45
9.97698E-01 1.00000E-45
9.98097E-01 1.00000E-45
9.98459E-01 1.00000E-45
9.98782E-01 1.00000E-45
9.99067E-01 1.00000E-45
9.99315E-01 1.00000E-45
9.99524E-01 1.00000E-45
9.99695E-01 1.00000E-45
9.99829E-01 1.00000E-45
9.99924E-01 1.00000E-45
9.99981E-01 1.00000E-45
1.00000E+00 1.00000E-45
