 #
 # Subroutine ELSEPA. Elastic scattering of electrons and positrons
 #                    by neutral atoms and positive ions
 #
 # Projectile: electron
 # Kinetic energy = 4.50000E+07 eV = 1.65372E+06 a.u.
 #
 # WARNING: High-energy factorization with free-atom DF screening.
 #          Absorption, polarization and exchange corrections are
 #          switched off.
 #          Phase shifts are calculated for the bare nucleus.
 #          Scattering amplitudes are not evaluated.
 #
 # Element:  U,  Z =  92,  atomic weight = 2.38029E+02 g/mol
 #
 # Nuclear model: Fermi distribution
 #                Average radius = 6.63122E-13 cm
 #                Skin thickness = 5.46000E-14 cm
 #
 # Number of electrons = 92
 #
 # Total elastic cross section = 1.17308E-17 cm**2 = 4.18914E-01 a0**2
 # 1st transport cross section = 7.75400E-24 cm**2 = 2.76900E-07 a0**2
 # 2nd transport cross section = 2.26011E-23 cm**2 = 8.07099E-07 a0**2
 #
 #
 # Differential cross section:                       MU=(1-COS(THETA))/2
 #
 #  THETA        MU          DCS          DCS        Sherman      error
 #  (deg)                 (cm**2/sr)   (a0**2/sr)    function
 #----------------------------------------------------------------------
0.00000E+00 2.73871E-10
7.61557E-13 2.73641E-10
1.18994E-12 2.73512E-10
1.71346E-12 2.73354E-10
2.33225E-12 2.73169E-10
3.04617E-12 2.72955E-10
3.85530E-12 2.72712E-10
4.75964E-12 2.72442E-10
5.75917E-12 2.72144E-10
6.85391E-12 2.71818E-10
8.04379E-12 2.71465E-10
9.32893E-12 2.71084E-10
1.07092E-11 2.70676E-10
1.21847E-11 2.70241E-10
1.37554E-11 2.69779E-10
1.54213E-11 2.69291E-10
1.71823E-11 2.68776E-10
1.90386E-11 2.68236E-10
2.09900E-11 2.67669E-10
2.30367E-11 2.67077E-10
2.51785E-11 2.66461E-10
2.74156E-11 2.65819E-10
2.97478E-11 2.65152E-10
3.21752E-11 2.64462E-10
3.46979E-11 2.63747E-10
3.73157E-11 2.63010E-10
4.00286E-11 2.62248E-10
4.28368E-11 2.61465E-10
4.57402E-11 2.60658E-10
4.87388E-11 2.59830E-10
5.18325E-11 2.58980E-10
5.50215E-11 2.58109E-10
5.83057E-11 2.57216E-10
6.16850E-11 2.56304E-10
6.51595E-11 2.55371E-10
6.87293E-11 2.54419E-10
7.23943E-11 2.53448E-10
7.61544E-11 2.52458E-10
1.18991E-10 2.41633E-10
1.71347E-10 2.29428E-10
2.33223E-10 2.16326E-10
3.04617E-10 2.02747E-10
3.85531E-10 1.89067E-10
4.75965E-10 1.75602E-10
5.75917E-10 1.62596E-10
6.85389E-10 1.50233E-10
8.04380E-10 1.38640E-10
9.32891E-10 1.27857E-10
1.07092E-09 1.17904E-10
1.21847E-09 1.08772E-10
1.37554E-09 1.00431E-10
1.54213E-09 9.28392E-11
1.71823E-09 8.59396E-11
1.90386E-09 7.96680E-11
2.09900E-09 7.39684E-11
2.30367E-09 6.87861E-11
2.51785E-09 6.40697E-11
2.74156E-09 5.97680E-11
2.97478E-09 5.58357E-11
3.21752E-09 5.22364E-11
3.46978E-09 4.89359E-11
3.73156E-09 4.59035E-11
4.00286E-09 4.31119E-11
4.28368E-09 4.05305E-11
4.57402E-09 3.81416E-11
4.87388E-09 3.59297E-11
5.18326E-09 3.38782E-11
5.50215E-09 3.19726E-11
5.83057E-09 3.01999E-11
6.16850E-09 2.85424E-11
6.51596E-09 2.69955E-11
6.87293E-09 2.55514E-11
7.23942E-09 2.42017E-11
7.61544E-09 2.29392E-11
1.18991E-08 1.37784E-11
1.71347E-08 8.82798E-12
2.33223E-08 5.88535E-12
3.04617E-08 4.09763E-12
3.85531E-08 2.95172E-12
4.75965E-08 2.18510E-12
5.75917E-08 1.65427E-12
6.85389E-08 1.27544E-12
8.04380E-08 9.98669E-13
9.32891E-08 7.94491E-13
1.07092E-07 6.40922E-13
1.21847E-07 5.23414E-13
1.37554E-07 4.32089E-13
1.54213E-07 3.59912E-13
1.71823E-07 3.02139E-13
1.90386E-07 2.55576E-13
2.09900E-07 2.17659E-13
2.30367E-07 1.86500E-13
2.51785E-07 1.60700E-13
2.74156E-07 1.39200E-13
2.97478E-07 1.20994E-13
3.21752E-07 1.05660E-13
3.46978E-07 9.26958E-14
3.73156E-07 8.16787E-14
4.00286E-07 7.22683E-14
4.28368E-07 6.41745E-14
4.57402E-07 5.71872E-14
4.87388E-07 5.11317E-14
5.18325E-07 4.58612E-14
5.50215E-07 4.12561E-14
5.83057E-07 3.72182E-14
6.16850E-07 3.36611E-14
6.51596E-07 3.05233E-14
6.87293E-07 2.77474E-14
7.23942E-07 2.52841E-14
7.61543E-07 2.30915E-14
1.18991E-06 1.02855E-14
1.71347E-06 5.26405E-15
2.33223E-06 2.97332E-15
3.04617E-06 1.80693E-15
3.85531E-06 1.16074E-15
4.75964E-06 7.78856E-16
5.75916E-06 5.41534E-16
6.85388E-06 3.87946E-16
8.04378E-06 2.85115E-16
9.32888E-06 2.14223E-16
1.07092E-05 1.64088E-16
1.21846E-05 1.27825E-16
1.37553E-05 1.01068E-16
1.54212E-05 8.09712E-17
1.71822E-05 6.56364E-17
1.90385E-05 5.37302E-17
2.09899E-05 4.44725E-17
2.30365E-05 3.71168E-17
2.51783E-05 3.12090E-17
2.74153E-05 2.64220E-17
2.97475E-05 2.25140E-17
3.21749E-05 1.93018E-17
3.46974E-05 1.66439E-17
3.73152E-05 1.44298E-17
4.00281E-05 1.25732E-17
4.28362E-05 1.10062E-17
4.57395E-05 9.67567E-18
4.87380E-05 8.53967E-18
5.18317E-05 7.56505E-18
5.50205E-05 6.72522E-18
5.83045E-05 5.99865E-18
6.16838E-05 5.36766E-18
6.51582E-05 4.81764E-18
6.87277E-05 4.33645E-18
7.23925E-05 3.91396E-18
7.61524E-05 3.53983E-18
9.21439E-05 2.42902E-18
1.09658E-04 1.72191E-18
1.28695E-04 1.25458E-18
1.49255E-04 9.35704E-19
1.71338E-04 7.12080E-19
1.94942E-04 5.51516E-19
2.20070E-04 4.33804E-19
2.46720E-04 3.45916E-19
2.74892E-04 2.79231E-19
3.04586E-04 2.27880E-19
3.35803E-04 1.87828E-19
3.68542E-04 1.56211E-19
4.02802E-04 1.30985E-19
4.38585E-04 1.10660E-19
4.75889E-04 9.41337E-20
5.14715E-04 8.05875E-20
5.55063E-04 6.93964E-20
5.96931E-04 6.00866E-20
6.40321E-04 5.22904E-20
6.85233E-04 4.57213E-20
7.31665E-04 4.01552E-20
7.79618E-04 3.54128E-20
8.29092E-04 3.13527E-20
8.80086E-04 2.78597E-20
9.32601E-04 2.48416E-20
9.86636E-04 2.22228E-20
1.04219E-03 1.99413E-20
1.09927E-03 1.79465E-20
1.15786E-03 1.61960E-20
1.21797E-03 1.46547E-20
1.27961E-03 1.32933E-20
1.34276E-03 1.20872E-20
1.40743E-03 1.10155E-20
1.47362E-03 1.00606E-20
1.54133E-03 9.20753E-21
1.61056E-03 8.44349E-21
1.68131E-03 7.75757E-21
1.75357E-03 7.14035E-21
1.82735E-03 6.58368E-21
1.90265E-03 6.08058E-21
1.97947E-03 5.62497E-21
2.05780E-03 5.21156E-21
2.13765E-03 4.83570E-21
2.21902E-03 4.49338E-21
2.30190E-03 4.18108E-21
2.38630E-03 3.89565E-21
2.47222E-03 3.63437E-21
2.55965E-03 3.39482E-21
2.64859E-03 3.17487E-21
2.73905E-03 2.97260E-21
2.83103E-03 2.78633E-21
2.92452E-03 2.61457E-21
3.01952E-03 2.45597E-21
3.11604E-03 2.30934E-21
3.21407E-03 2.17360E-21
3.31362E-03 2.04779E-21
3.41468E-03 1.93106E-21
3.51725E-03 1.82261E-21
3.62133E-03 1.72175E-21
3.72692E-03 1.62786E-21
3.83403E-03 1.54035E-21
3.94265E-03 1.45871E-21
4.05278E-03 1.38248E-21
4.16442E-03 1.31122E-21
4.27757E-03 1.24456E-21
4.39223E-03 1.18212E-21
4.50840E-03 1.12361E-21
4.62608E-03 1.06872E-21
4.74527E-03 1.01718E-21
4.86597E-03 9.68753E-22
4.98817E-03 9.23219E-22
5.11188E-03 8.80360E-22
5.23711E-03 8.39993E-22
5.36383E-03 8.01951E-22
5.49207E-03 7.66066E-22
5.62181E-03 7.32194E-22
5.75306E-03 7.00203E-22
5.88581E-03 6.69965E-22
6.02007E-03 6.41366E-22
6.15583E-03 6.14299E-22
6.29310E-03 5.88668E-22
6.43187E-03 5.64379E-22
6.57214E-03 5.41350E-22
6.71392E-03 5.19501E-22
6.85720E-03 4.98761E-22
7.00198E-03 4.79062E-22
7.14827E-03 4.60342E-22
7.29605E-03 4.42541E-22
7.44534E-03 4.25606E-22
7.59612E-03 4.09488E-22
7.97965E-03 3.72456E-22
8.37255E-03 3.39580E-22
8.77480E-03 3.10308E-22
9.18641E-03 2.84172E-22
9.60736E-03 2.60774E-22
1.00376E-02 2.39772E-22
1.04773E-02 2.20876E-22
1.09262E-02 2.03835E-22
1.13844E-02 1.88432E-22
1.18520E-02 1.74481E-22
1.23288E-02 1.61819E-22
1.28150E-02 1.50305E-22
1.33104E-02 1.39818E-22
1.38150E-02 1.30243E-22
1.43290E-02 1.21475E-22
1.48521E-02 1.13443E-22
1.53845E-02 1.06074E-22
1.59262E-02 9.93010E-23
1.64770E-02 9.30675E-23
1.70371E-02 8.73219E-23
1.76063E-02 8.20184E-23
1.81848E-02 7.71164E-23
1.87724E-02 7.25794E-23
1.93692E-02 6.83748E-23
1.99751E-02 6.44736E-23
2.05901E-02 6.08493E-23
2.12143E-02 5.74786E-23
2.18476E-02 5.43400E-23
2.24900E-02 5.14145E-23
2.31415E-02 4.86847E-23
2.38021E-02 4.61348E-23
2.44717E-02 4.37507E-23
2.51504E-02 4.15194E-23
2.58382E-02 3.94291E-23
2.65349E-02 3.74692E-23
2.72407E-02 3.56299E-23
2.79555E-02 3.39022E-23
2.86793E-02 3.22782E-23
2.94120E-02 3.07502E-23
3.01537E-02 2.93115E-23
3.09043E-02 2.79558E-23
3.16639E-02 2.66773E-23
3.24324E-02 2.54709E-23
3.32098E-02 2.43315E-23
3.39961E-02 2.32548E-23
3.47912E-02 2.22366E-23
3.55952E-02 2.12731E-23
3.64081E-02 2.03607E-23
3.72297E-02 1.94963E-23
3.80602E-02 1.86767E-23
3.88995E-02 1.78993E-23
3.97476E-02 1.71614E-23
4.06044E-02 1.64605E-23
4.14700E-02 1.57946E-23
4.23443E-02 1.51614E-23
4.32273E-02 1.45591E-23
4.41190E-02 1.39858E-23
4.50194E-02 1.34400E-23
4.59284E-02 1.29199E-23
4.68461E-02 1.24242E-23
4.87074E-02 1.15005E-23
5.06030E-02 1.06591E-23
5.25328E-02 9.89113E-24
5.44967E-02 9.18915E-24
5.64946E-02 8.54643E-24
5.85262E-02 7.95706E-24
6.05914E-02 7.41583E-24
6.26901E-02 6.91811E-24
6.48222E-02 6.45978E-24
6.69873E-02 6.03717E-24
6.91854E-02 5.64702E-24
7.14163E-02 5.28640E-24
7.36799E-02 4.95269E-24
7.59760E-02 4.64355E-24
7.83043E-02 4.35685E-24
8.06647E-02 4.09069E-24
8.30571E-02 3.84337E-24
8.54812E-02 3.61332E-24
8.79369E-02 3.39915E-24
9.04240E-02 3.19958E-24
9.29422E-02 3.01346E-24
9.54915E-02 2.83973E-24
9.80716E-02 2.67745E-24
1.00682E-01 2.52574E-24
1.03323E-01 2.38381E-24
1.05995E-01 2.25093E-24
1.08696E-01 2.12645E-24
1.11427E-01 2.00974E-24
1.14188E-01 1.90026E-24
1.16978E-01 1.79749E-24
1.19797E-01 1.70096E-24
1.22645E-01 1.61025E-24
1.25522E-01 1.52494E-24
1.28428E-01 1.44468E-24
1.31361E-01 1.36913E-24
1.34323E-01 1.29797E-24
1.37313E-01 1.23091E-24
1.40330E-01 1.16769E-24
1.43375E-01 1.10806E-24
1.46447E-01 1.05180E-24
1.49545E-01 9.98676E-25
1.52671E-01 9.48505E-25
1.55823E-01 9.01101E-25
1.59001E-01 8.56293E-25
1.62205E-01 8.13923E-25
1.65435E-01 7.73841E-25
1.68690E-01 7.35912E-25
1.71970E-01 7.00006E-25
1.75276E-01 6.66004E-25
1.78606E-01 6.33794E-25
1.81961E-01 6.03272E-25
1.85340E-01 5.74340E-25
1.88743E-01 5.46907E-25
1.92169E-01 5.20887E-25
1.95619E-01 4.96200E-25
1.99092E-01 4.72773E-25
2.02589E-01 4.50533E-25
2.06107E-01 4.29416E-25
2.09649E-01 4.09359E-25
2.13212E-01 3.90305E-25
2.16797E-01 3.72198E-25
2.20404E-01 3.54989E-25
2.24032E-01 3.38628E-25
2.27680E-01 3.23070E-25
2.31350E-01 3.08273E-25
2.35040E-01 2.94197E-25
2.38751E-01 2.80803E-25
2.42481E-01 2.68055E-25
2.46231E-01 2.55922E-25
2.50000E-01 2.44369E-25
2.53788E-01 2.33369E-25
2.57595E-01 2.22892E-25
2.61421E-01 2.12912E-25
2.65264E-01 2.03404E-25
2.69126E-01 1.94343E-25
2.73005E-01 1.85708E-25
2.76901E-01 1.77477E-25
2.80814E-01 1.69630E-25
2.84744E-01 1.62148E-25
2.88691E-01 1.55013E-25
2.92653E-01 1.48208E-25
2.96632E-01 1.41717E-25
3.00625E-01 1.35524E-25
3.04634E-01 1.29616E-25
3.08658E-01 1.23978E-25
3.12697E-01 1.18596E-25
3.16749E-01 1.13460E-25
3.20816E-01 1.08557E-25
3.24896E-01 1.03876E-25
3.28990E-01 9.94070E-26
3.33097E-01 9.51391E-26
3.37216E-01 9.10632E-26
3.41348E-01 8.71702E-26
3.45492E-01 8.34515E-26
3.49647E-01 7.98990E-26
3.53814E-01 7.65050E-26
3.57992E-01 7.32620E-26
3.62181E-01 7.01631E-26
3.66381E-01 6.72016E-26
3.70590E-01 6.43711E-26
3.74810E-01 6.16656E-26
3.79039E-01 5.90794E-26
3.83277E-01 5.66070E-26
3.87524E-01 5.42432E-26
3.91780E-01 5.19831E-26
3.96044E-01 4.98219E-26
4.00316E-01 4.77552E-26
4.04596E-01 4.57786E-26
4.08882E-01 4.38881E-26
4.13176E-01 4.20798E-26
4.17476E-01 4.03501E-26
4.21783E-01 3.86953E-26
4.26095E-01 3.71121E-26
4.30413E-01 3.55974E-26
4.34737E-01 3.41479E-26
4.39065E-01 3.27610E-26
4.43398E-01 3.14337E-26
4.47736E-01 3.01634E-26
4.52077E-01 2.89475E-26
4.56422E-01 2.77837E-26
4.60770E-01 2.66697E-26
4.65122E-01 2.56032E-26
4.69476E-01 2.45822E-26
4.73832E-01 2.36046E-26
4.78190E-01 2.26686E-26
4.82550E-01 2.17723E-26
4.86912E-01 2.09139E-26
4.91274E-01 2.00919E-26
4.95637E-01 1.93045E-26
5.00000E-01 1.85504E-26
5.04363E-01 1.78280E-26
5.08726E-01 1.71359E-26
5.13088E-01 1.64729E-26
5.17450E-01 1.58377E-26
5.21810E-01 1.52290E-26
5.26168E-01 1.46457E-26
5.30524E-01 1.40868E-26
5.34878E-01 1.35511E-26
5.39230E-01 1.30376E-26
5.43578E-01 1.25454E-26
5.47923E-01 1.20736E-26
5.52264E-01 1.16212E-26
5.56602E-01 1.11875E-26
5.60935E-01 1.07716E-26
5.65263E-01 1.03728E-26
5.69587E-01 9.99031E-27
5.73905E-01 9.62344E-27
5.78217E-01 9.27153E-27
5.82524E-01 8.93393E-27
5.86824E-01 8.61003E-27
5.91118E-01 8.29923E-27
5.95404E-01 8.00099E-27
5.99684E-01 7.71475E-27
6.03956E-01 7.44001E-27
6.08220E-01 7.17627E-27
6.12476E-01 6.92307E-27
6.16723E-01 6.67995E-27
6.20961E-01 6.44648E-27
6.25190E-01 6.22226E-27
6.29410E-01 6.00688E-27
6.33619E-01 5.79998E-27
6.37819E-01 5.60118E-27
6.42008E-01 5.41016E-27
6.46186E-01 5.22657E-27
6.50353E-01 5.05010E-27
6.54508E-01 4.88045E-27
6.58652E-01 4.71734E-27
6.62784E-01 4.56047E-27
6.66903E-01 4.40960E-27
6.71010E-01 4.26447E-27
6.75104E-01 4.12483E-27
6.79184E-01 3.99046E-27
6.83251E-01 3.86113E-27
6.87303E-01 3.73663E-27
6.91342E-01 3.61676E-27
6.95366E-01 3.50133E-27
6.99375E-01 3.39014E-27
7.03368E-01 3.28303E-27
7.07347E-01 3.17981E-27
7.11309E-01 3.08034E-27
7.15256E-01 2.98444E-27
7.19186E-01 2.89199E-27
7.23099E-01 2.80282E-27
7.26995E-01 2.71681E-27
7.30874E-01 2.63383E-27
7.34736E-01 2.55375E-27
7.38579E-01 2.47645E-27
7.42405E-01 2.40181E-27
7.46212E-01 2.32974E-27
7.50000E-01 2.26011E-27
7.53769E-01 2.19285E-27
7.57519E-01 2.12784E-27
7.61249E-01 2.06499E-27
7.64960E-01 2.00423E-27
7.68650E-01 1.94546E-27
7.72320E-01 1.88860E-27
7.75968E-01 1.83359E-27
7.79596E-01 1.78033E-27
7.83203E-01 1.72878E-27
7.86788E-01 1.67885E-27
7.90351E-01 1.63048E-27
7.93893E-01 1.58362E-27
7.97411E-01 1.53820E-27
8.00908E-01 1.49417E-27
8.04381E-01 1.45147E-27
8.07831E-01 1.41005E-27
8.11257E-01 1.36986E-27
8.14660E-01 1.33086E-27
8.18039E-01 1.29301E-27
8.21394E-01 1.25624E-27
8.24724E-01 1.22054E-27
8.28030E-01 1.18585E-27
8.31310E-01 1.15214E-27
8.34565E-01 1.11938E-27
8.37795E-01 1.08752E-27
8.40999E-01 1.05654E-27
8.44177E-01 1.02641E-27
8.47329E-01 9.97087E-28
8.50455E-01 9.68552E-28
8.53553E-01 9.40776E-28
8.56625E-01 9.13731E-28
8.59670E-01 8.87393E-28
8.62687E-01 8.61738E-28
8.65677E-01 8.36743E-28
8.68639E-01 8.12385E-28
8.71572E-01 7.88644E-28
8.74478E-01 7.65500E-28
8.77355E-01 7.42933E-28
8.80203E-01 7.20925E-28
8.83022E-01 6.99459E-28
8.85812E-01 6.78518E-28
8.88573E-01 6.58086E-28
8.91304E-01 6.38147E-28
8.94005E-01 6.18687E-28
8.96677E-01 5.99692E-28
8.99318E-01 5.81148E-28
9.01928E-01 5.63043E-28
9.04508E-01 5.45365E-28
9.07058E-01 5.28102E-28
9.09576E-01 5.11243E-28
9.12063E-01 4.94777E-28
9.14519E-01 4.78695E-28
9.16943E-01 4.62985E-28
9.19335E-01 4.47640E-28
9.21696E-01 4.32651E-28
9.24024E-01 4.18008E-28
9.26320E-01 4.03704E-28
9.28584E-01 3.89731E-28
9.30815E-01 3.76082E-28
9.33013E-01 3.62750E-28
9.35178E-01 3.49729E-28
9.37310E-01 3.37011E-28
9.39409E-01 3.24590E-28
9.41474E-01 3.12462E-28
9.43505E-01 3.00620E-28
9.45503E-01 2.89059E-28
9.47467E-01 2.77774E-28
9.49397E-01 2.66760E-28
9.51293E-01 2.56013E-28
9.53154E-01 2.45528E-28
9.54981E-01 2.35302E-28
9.56773E-01 2.25329E-28
9.58530E-01 2.15607E-28
9.60252E-01 2.06131E-28
9.61940E-01 1.96899E-28
9.63592E-01 1.87907E-28
9.65209E-01 1.79152E-28
9.66790E-01 1.70631E-28
9.68336E-01 1.62341E-28
9.69846E-01 1.54279E-28
9.71321E-01 1.46443E-28
9.72759E-01 1.38831E-28
9.74162E-01 1.31439E-28
9.75528E-01 1.24267E-28
9.76858E-01 1.17311E-28
9.78152E-01 1.10571E-28
9.79410E-01 1.04043E-28
9.80631E-01 9.77262E-29
9.81815E-01 9.16191E-29
9.82963E-01 8.57197E-29
9.84074E-01 8.00267E-29
9.85148E-01 7.45386E-29
9.86185E-01 6.92539E-29
9.87185E-01 6.41714E-29
9.88148E-01 5.92899E-29
9.89074E-01 5.46083E-29
9.89962E-01 5.01253E-29
9.90814E-01 4.58400E-29
9.91627E-01 4.17515E-29
9.92404E-01 3.78587E-29
9.93143E-01 3.41609E-29
9.93844E-01 3.06573E-29
9.94508E-01 2.73471E-29
9.95134E-01 2.42295E-29
9.95722E-01 2.13040E-29
9.96273E-01 1.85700E-29
9.96786E-01 1.60269E-29
9.97261E-01 1.36741E-29
9.97698E-01 1.15112E-29
9.98097E-01 9.53785E-30
9.98459E-01 7.75356E-30
9.98782E-01 6.15801E-30
9.99067E-01 4.75088E-30
9.99315E-01 3.53192E-30
9.99524E-01 2.50088E-30
9.99695E-01 1.65757E-30
9.99829E-01 1.00183E-30
9.99924E-01 5.33530E-31
9.99981E-01 2.52586E-31
1.00000E+00 1.58944E-31
