 #
 # Subroutine ELSEPA. Elastic scattering of electrons and positrons
 #                    by neutral atoms and positive ions
 #
 # Projectile: electron
 # Kinetic energy = 2.00000E+06 eV = 7.34987E+04 a.u.
 #
 # WARNING: High-energy factorization with free-atom DF screening.
 #          Absorption, polarization and exchange corrections are
 #          switched off.
 #          Phase shifts are calculated for the bare nucleus.
 #          Scattering amplitudes are not evaluated.
 #
 # Element:  U,  Z =  92,  atomic weight = 2.38029E+02 g/mol
 #
 # Nuclear model: Fermi distribution
 #                Average radius = 6.63122E-13 cm
 #                Skin thickness = 5.46000E-14 cm
 #
 # Number of electrons = 92
 #
 # Total elastic cross section = 1.22641E-17 cm**2 = 4.37958E-01 a0**2
 # 1st transport cross section = 2.19525E-21 cm**2 = 7.83937E-05 a0**2
 # 2nd transport cross section = 5.59489E-21 cm**2 = 1.99797E-04 a0**2
 #
 #
 # Differential cross section:                       MU=(1-COS(THETA))/2
 #
 #  THETA        MU          DCS          DCS        Sherman      error
 #  (deg)                 (cm**2/sr)   (a0**2/sr)    function
 #----------------------------------------------------------------------
0.00000E+00 8.33694E-13
7.61557E-13 8.33692E-13
1.18994E-12 8.33691E-13
1.71346E-12 8.33690E-13
2.33225E-12 8.33688E-13
3.04617E-12 8.33687E-13
3.85530E-12 8.33684E-13
4.75964E-12 8.33682E-13
5.75917E-12 8.33679E-13
6.85391E-12 8.33677E-13
8.04379E-12 8.33674E-13
9.32893E-12 8.33670E-13
1.07092E-11 8.33667E-13
1.21847E-11 8.33663E-13
1.37554E-11 8.33659E-13
1.54213E-11 8.33654E-13
1.71823E-11 8.33650E-13
1.90386E-11 8.33645E-13
2.09900E-11 8.33640E-13
2.30367E-11 8.33634E-13
2.51785E-11 8.33629E-13
2.74156E-11 8.33623E-13
2.97478E-11 8.33616E-13
3.21752E-11 8.33610E-13
3.46979E-11 8.33603E-13
3.73157E-11 8.33596E-13
4.00286E-11 8.33589E-13
4.28368E-11 8.33582E-13
4.57402E-11 8.33574E-13
4.87388E-11 8.33566E-13
5.18325E-11 8.33558E-13
5.50215E-11 8.33550E-13
5.83057E-11 8.33541E-13
6.16850E-11 8.33532E-13
6.51595E-11 8.33523E-13
6.87293E-11 8.33513E-13
7.23943E-11 8.33504E-13
7.61544E-11 8.33494E-13
1.18991E-10 8.33380E-13
1.71347E-10 8.33241E-13
2.33223E-10 8.33077E-13
3.04617E-10 8.32887E-13
3.85531E-10 8.32672E-13
4.75965E-10 8.32432E-13
5.75917E-10 8.32166E-13
6.85389E-10 8.31875E-13
8.04380E-10 8.31559E-13
9.32891E-10 8.31218E-13
1.07092E-09 8.30852E-13
1.21847E-09 8.30461E-13
1.37554E-09 8.30045E-13
1.54213E-09 8.29604E-13
1.71823E-09 8.29138E-13
1.90386E-09 8.28648E-13
2.09900E-09 8.28132E-13
2.30367E-09 8.27593E-13
2.51785E-09 8.27028E-13
2.74156E-09 8.26440E-13
2.97478E-09 8.25827E-13
3.21752E-09 8.25189E-13
3.46978E-09 8.24528E-13
3.73156E-09 8.23842E-13
4.00286E-09 8.23133E-13
4.28368E-09 8.22400E-13
4.57402E-09 8.21642E-13
4.87388E-09 8.20862E-13
5.18326E-09 8.20058E-13
5.50215E-09 8.19230E-13
5.83057E-09 8.18379E-13
6.16850E-09 8.17505E-13
6.51596E-09 8.16608E-13
6.87293E-09 8.15689E-13
7.23942E-09 8.14746E-13
7.61544E-09 8.13781E-13
1.18991E-08 8.02918E-13
1.71347E-08 7.89968E-13
2.33223E-08 7.75109E-13
3.04617E-08 7.58542E-13
3.85531E-08 7.40483E-13
4.75965E-08 7.21177E-13
5.75917E-08 7.00763E-13
6.85389E-08 6.79577E-13
8.04380E-08 6.57725E-13
9.32891E-08 6.35492E-13
1.07092E-07 6.13020E-13
1.21847E-07 5.90485E-13
1.37554E-07 5.68092E-13
1.54213E-07 5.45872E-13
1.71823E-07 5.24111E-13
1.90386E-07 5.02703E-13
2.09900E-07 4.81956E-13
2.30367E-07 4.61732E-13
2.51785E-07 4.42227E-13
2.74156E-07 4.23392E-13
2.97478E-07 4.05282E-13
3.21752E-07 3.87933E-13
3.46978E-07 3.71282E-13
3.73156E-07 3.55434E-13
4.00286E-07 3.40243E-13
4.28368E-07 3.25846E-13
4.57402E-07 3.12088E-13
4.87388E-07 2.99036E-13
5.18325E-07 2.86615E-13
5.50215E-07 2.74817E-13
5.83057E-07 2.63619E-13
6.16850E-07 2.52975E-13
6.51596E-07 2.42881E-13
6.87293E-07 2.33287E-13
7.23942E-07 2.24181E-13
7.61543E-07 2.15531E-13
1.18991E-06 1.48983E-13
1.71347E-06 1.06854E-13
2.33223E-06 7.86619E-14
3.04617E-06 5.90840E-14
3.85531E-06 4.50778E-14
4.75964E-06 3.46592E-14
5.75916E-06 2.75420E-14
6.85388E-06 2.19239E-14
8.04378E-06 1.78049E-14
9.32888E-06 1.45851E-14
1.07092E-05 1.20783E-14
1.21846E-05 1.01133E-14
1.37553E-05 8.51055E-15
1.54212E-05 7.24862E-15
1.71822E-05 6.18138E-15
1.90385E-05 5.32788E-15
2.09899E-05 4.60404E-15
2.30365E-05 4.01157E-15
2.51783E-05 3.50542E-15
2.74153E-05 3.07885E-15
2.97475E-05 2.71626E-15
3.21749E-05 2.40459E-15
3.46974E-05 2.14018E-15
3.73152E-05 1.90890E-15
4.00281E-05 1.71221E-15
4.28362E-05 1.53735E-15
4.57395E-05 1.38687E-15
4.87380E-05 1.25319E-15
5.18317E-05 1.13609E-15
5.50205E-05 1.03221E-15
5.83045E-05 9.39841E-16
6.16838E-05 8.58058E-16
6.51582E-05 7.84371E-16
6.87277E-05 7.19206E-16
7.23925E-05 6.59782E-16
7.61524E-05 6.06996E-16
9.21439E-05 4.40967E-16
1.09658E-04 3.27285E-16
1.28695E-04 2.47993E-16
1.49255E-04 1.91512E-16
1.71338E-04 1.50288E-16
1.94942E-04 1.19614E-16
2.20070E-04 9.64323E-17
2.46720E-04 7.86574E-17
2.74892E-04 6.48378E-17
3.04586E-04 5.39353E-17
3.35803E-04 4.52373E-17
3.68542E-04 3.82271E-17
4.02802E-04 3.25021E-17
4.38585E-04 2.78371E-17
4.75889E-04 2.39855E-17
5.14715E-04 2.07726E-17
5.55063E-04 1.80942E-17
5.96931E-04 1.58241E-17
6.40321E-04 1.39138E-17
6.85233E-04 1.22735E-17
7.31665E-04 1.08773E-17
7.79618E-04 9.67132E-18
8.29092E-04 8.63132E-18
8.80086E-04 7.72768E-18
9.32601E-04 6.93936E-18
9.86636E-04 6.25087E-18
1.04219E-03 5.64412E-18
1.09927E-03 5.11172E-18
1.15786E-03 4.63828E-18
1.21797E-03 4.22034E-18
1.27961E-03 3.84709E-18
1.34276E-03 3.51496E-18
1.40743E-03 3.21759E-18
1.47362E-03 2.95101E-18
1.54133E-03 2.71166E-18
1.61056E-03 2.49565E-18
1.68131E-03 2.30121E-18
1.75357E-03 2.12475E-18
1.82735E-03 1.96536E-18
1.90265E-03 1.82021E-18
1.97947E-03 1.68847E-18
2.05780E-03 1.56831E-18
2.13765E-03 1.45869E-18
2.21902E-03 1.35852E-18
2.30190E-03 1.26674E-18
2.38630E-03 1.18271E-18
2.47222E-03 1.10541E-18
2.55965E-03 1.03447E-18
2.64859E-03 9.69020E-19
2.73905E-03 9.08777E-19
2.83103E-03 8.53105E-19
2.92452E-03 8.01677E-19
3.01952E-03 7.54081E-19
3.11604E-03 7.09969E-19
3.21407E-03 6.69082E-19
3.31362E-03 6.31075E-19
3.41468E-03 5.95791E-19
3.51725E-03 5.62900E-19
3.62133E-03 5.32299E-19
3.72692E-03 5.03740E-19
3.83403E-03 4.77098E-19
3.94265E-03 4.52201E-19
4.05278E-03 4.28915E-19
4.16442E-03 4.07127E-19
4.27757E-03 3.86703E-19
4.39223E-03 3.67569E-19
4.50840E-03 3.49593E-19
4.62608E-03 3.32726E-19
4.74527E-03 3.16859E-19
4.86597E-03 3.01941E-19
4.98817E-03 2.87893E-19
5.11188E-03 2.74660E-19
5.23711E-03 2.62186E-19
5.36383E-03 2.50412E-19
5.49207E-03 2.39304E-19
5.62181E-03 2.28801E-19
5.75306E-03 2.18880E-19
5.88581E-03 2.09487E-19
6.02007E-03 2.00602E-19
6.15583E-03 1.92183E-19
6.29310E-03 1.84206E-19
6.43187E-03 1.76642E-19
6.57214E-03 1.69463E-19
6.71392E-03 1.62651E-19
6.85720E-03 1.56176E-19
7.00198E-03 1.50027E-19
7.14827E-03 1.44176E-19
7.29605E-03 1.38613E-19
7.44534E-03 1.33315E-19
7.59612E-03 1.28271E-19
7.97965E-03 1.16674E-19
8.37255E-03 1.06369E-19
8.77480E-03 9.71845E-20
9.18641E-03 8.89786E-20
9.60736E-03 8.16284E-20
1.00376E-02 7.50289E-20
1.04773E-02 6.90896E-20
1.09262E-02 6.37326E-20
1.13844E-02 5.88907E-20
1.18520E-02 5.45053E-20
1.23288E-02 5.05256E-20
1.28150E-02 4.69070E-20
1.33104E-02 4.36111E-20
1.38150E-02 4.06040E-20
1.43290E-02 3.78556E-20
1.48521E-02 3.53396E-20
1.53845E-02 3.30328E-20
1.59262E-02 3.09145E-20
1.64770E-02 2.89666E-20
1.70371E-02 2.71727E-20
1.76063E-02 2.55183E-20
1.81848E-02 2.39907E-20
1.87724E-02 2.25782E-20
1.93692E-02 2.12707E-20
1.99751E-02 2.00588E-20
2.05901E-02 1.89342E-20
2.12143E-02 1.78894E-20
2.18476E-02 1.69177E-20
2.24900E-02 1.60129E-20
2.31415E-02 1.51696E-20
2.38021E-02 1.43828E-20
2.44717E-02 1.36480E-20
2.51504E-02 1.29611E-20
2.58382E-02 1.23184E-20
2.65349E-02 1.17164E-20
2.72407E-02 1.11520E-20
2.79555E-02 1.06226E-20
2.86793E-02 1.01253E-20
2.94120E-02 9.65802E-21
3.01537E-02 9.21846E-21
3.09043E-02 8.80468E-21
3.16639E-02 8.41487E-21
3.24324E-02 8.04736E-21
3.32098E-02 7.70060E-21
3.39961E-02 7.37321E-21
3.47912E-02 7.06386E-21
3.55952E-02 6.77137E-21
3.64081E-02 6.49462E-21
3.72297E-02 6.23260E-21
3.80602E-02 5.98434E-21
3.88995E-02 5.74898E-21
3.97476E-02 5.52579E-21
4.06044E-02 5.31385E-21
4.14700E-02 5.11263E-21
4.23443E-02 4.92136E-21
4.32273E-02 4.73952E-21
4.41190E-02 4.56651E-21
4.50194E-02 4.40181E-21
4.59284E-02 4.24496E-21
4.68461E-02 4.09546E-21
4.87074E-02 3.81698E-21
5.06030E-02 3.56332E-21
5.25328E-02 3.33180E-21
5.44967E-02 3.12009E-21
5.64946E-02 2.92614E-21
5.85262E-02 2.74815E-21
6.05914E-02 2.58452E-21
6.26901E-02 2.43386E-21
6.48222E-02 2.29490E-21
6.69873E-02 2.16655E-21
6.91854E-02 2.04781E-21
7.14163E-02 1.93781E-21
7.36799E-02 1.83575E-21
7.59760E-02 1.74094E-21
7.83043E-02 1.65274E-21
8.06647E-02 1.57059E-21
8.30571E-02 1.49397E-21
8.54812E-02 1.42243E-21
8.79369E-02 1.35556E-21
9.04240E-02 1.29296E-21
9.29422E-02 1.23431E-21
9.54915E-02 1.17930E-21
9.80716E-02 1.12764E-21
1.00682E-01 1.07909E-21
1.03323E-01 1.03340E-21
1.05995E-01 9.90378E-22
1.08696E-01 9.49816E-22
1.11427E-01 9.11539E-22
1.14188E-01 8.75390E-22
1.16978E-01 8.41218E-22
1.19797E-01 8.08888E-22
1.22645E-01 7.78275E-22
1.25522E-01 7.49262E-22
1.28428E-01 7.21746E-22
1.31361E-01 6.95627E-22
1.34323E-01 6.70816E-22
1.37313E-01 6.47230E-22
1.40330E-01 6.24793E-22
1.43375E-01 6.03433E-22
1.46447E-01 5.83084E-22
1.49545E-01 5.63684E-22
1.52671E-01 5.45178E-22
1.55823E-01 5.27513E-22
1.59001E-01 5.10639E-22
1.62205E-01 4.94512E-22
1.65435E-01 4.79089E-22
1.68690E-01 4.64330E-22
1.71970E-01 4.50199E-22
1.75276E-01 4.36661E-22
1.78606E-01 4.23683E-22
1.81961E-01 4.11237E-22
1.85340E-01 3.99294E-22
1.88743E-01 3.87827E-22
1.92169E-01 3.76812E-22
1.95619E-01 3.66226E-22
1.99092E-01 3.56047E-22
2.02589E-01 3.46255E-22
2.06107E-01 3.36830E-22
2.09649E-01 3.27755E-22
2.13212E-01 3.19012E-22
2.16797E-01 3.10587E-22
2.20404E-01 3.02463E-22
2.24032E-01 2.94627E-22
2.27680E-01 2.87065E-22
2.31350E-01 2.79765E-22
2.35040E-01 2.72715E-22
2.38751E-01 2.65903E-22
2.42481E-01 2.59320E-22
2.46231E-01 2.52954E-22
2.50000E-01 2.46798E-22
2.53788E-01 2.40840E-22
2.57595E-01 2.35074E-22
2.61421E-01 2.29491E-22
2.65264E-01 2.24083E-22
2.69126E-01 2.18843E-22
2.73005E-01 2.13764E-22
2.76901E-01 2.08840E-22
2.80814E-01 2.04064E-22
2.84744E-01 1.99431E-22
2.88691E-01 1.94935E-22
2.92653E-01 1.90570E-22
2.96632E-01 1.86332E-22
3.00625E-01 1.82215E-22
3.04634E-01 1.78215E-22
3.08658E-01 1.74328E-22
3.12697E-01 1.70550E-22
3.16749E-01 1.66876E-22
3.20816E-01 1.63302E-22
3.24896E-01 1.59826E-22
3.28990E-01 1.56443E-22
3.33097E-01 1.53150E-22
3.37216E-01 1.49944E-22
3.41348E-01 1.46822E-22
3.45492E-01 1.43781E-22
3.49647E-01 1.40818E-22
3.53814E-01 1.37931E-22
3.57992E-01 1.35117E-22
3.62181E-01 1.32373E-22
3.66381E-01 1.29698E-22
3.70590E-01 1.27089E-22
3.74810E-01 1.24543E-22
3.79039E-01 1.22060E-22
3.83277E-01 1.19636E-22
3.87524E-01 1.17270E-22
3.91780E-01 1.14961E-22
3.96044E-01 1.12705E-22
4.00316E-01 1.10502E-22
4.04596E-01 1.08351E-22
4.08882E-01 1.06248E-22
4.13176E-01 1.04194E-22
4.17476E-01 1.02187E-22
4.21783E-01 1.00224E-22
4.26095E-01 9.83055E-23
4.30413E-01 9.64292E-23
4.34737E-01 9.45944E-23
4.39065E-01 9.27997E-23
4.43398E-01 9.10439E-23
4.47736E-01 8.93261E-23
4.52077E-01 8.76450E-23
4.56422E-01 8.59997E-23
4.60770E-01 8.43892E-23
4.65122E-01 8.28125E-23
4.69476E-01 8.12687E-23
4.73832E-01 7.97570E-23
4.78190E-01 7.82764E-23
4.82550E-01 7.68261E-23
4.86912E-01 7.54053E-23
4.91274E-01 7.40133E-23
4.95637E-01 7.26492E-23
5.00000E-01 7.13125E-23
5.04363E-01 7.00022E-23
5.08726E-01 6.87179E-23
5.13088E-01 6.74587E-23
5.17450E-01 6.62242E-23
5.21810E-01 6.50136E-23
5.26168E-01 6.38264E-23
5.30524E-01 6.26621E-23
5.34878E-01 6.15199E-23
5.39230E-01 6.03995E-23
5.43578E-01 5.93003E-23
5.47923E-01 5.82217E-23
5.52264E-01 5.71633E-23
5.56602E-01 5.61247E-23
5.60935E-01 5.51053E-23
5.65263E-01 5.41047E-23
5.69587E-01 5.31225E-23
5.73905E-01 5.21582E-23
5.78217E-01 5.12115E-23
5.82524E-01 5.02819E-23
5.86824E-01 4.93690E-23
5.91118E-01 4.84725E-23
5.95404E-01 4.75920E-23
5.99684E-01 4.67272E-23
6.03956E-01 4.58777E-23
6.08220E-01 4.50432E-23
6.12476E-01 4.42234E-23
6.16723E-01 4.34178E-23
6.20961E-01 4.26264E-23
6.25190E-01 4.18487E-23
6.29410E-01 4.10844E-23
6.33619E-01 4.03333E-23
6.37819E-01 3.95951E-23
6.42008E-01 3.88696E-23
6.46186E-01 3.81564E-23
6.50353E-01 3.74554E-23
6.54508E-01 3.67662E-23
6.58652E-01 3.60887E-23
6.62784E-01 3.54226E-23
6.66903E-01 3.47677E-23
6.71010E-01 3.41237E-23
6.75104E-01 3.34905E-23
6.79184E-01 3.28679E-23
6.83251E-01 3.22556E-23
6.87303E-01 3.16534E-23
6.91342E-01 3.10612E-23
6.95366E-01 3.04787E-23
6.99375E-01 2.99059E-23
7.03368E-01 2.93424E-23
7.07347E-01 2.87881E-23
7.11309E-01 2.82429E-23
7.15256E-01 2.77066E-23
7.19186E-01 2.71790E-23
7.23099E-01 2.66600E-23
7.26995E-01 2.61494E-23
7.30874E-01 2.56470E-23
7.34736E-01 2.51528E-23
7.38579E-01 2.46666E-23
7.42405E-01 2.41882E-23
7.46212E-01 2.37176E-23
7.50000E-01 2.32545E-23
7.53769E-01 2.27988E-23
7.57519E-01 2.23505E-23
7.61249E-01 2.19094E-23
7.64960E-01 2.14753E-23
7.68650E-01 2.10482E-23
7.72320E-01 2.06280E-23
7.75968E-01 2.02145E-23
7.79596E-01 1.98076E-23
7.83203E-01 1.94072E-23
7.86788E-01 1.90133E-23
7.90351E-01 1.86257E-23
7.93893E-01 1.82442E-23
7.97411E-01 1.78689E-23
8.00908E-01 1.74996E-23
8.04381E-01 1.71362E-23
8.07831E-01 1.67787E-23
8.11257E-01 1.64269E-23
8.14660E-01 1.60808E-23
8.18039E-01 1.57403E-23
8.21394E-01 1.54052E-23
8.24724E-01 1.50756E-23
8.28030E-01 1.47513E-23
8.31310E-01 1.44323E-23
8.34565E-01 1.41184E-23
8.37795E-01 1.38097E-23
8.40999E-01 1.35060E-23
8.44177E-01 1.32072E-23
8.47329E-01 1.29134E-23
8.50455E-01 1.26244E-23
8.53553E-01 1.23401E-23
8.56625E-01 1.20606E-23
8.59670E-01 1.17857E-23
8.62687E-01 1.15154E-23
8.65677E-01 1.12496E-23
8.68639E-01 1.09882E-23
8.71572E-01 1.07313E-23
8.74478E-01 1.04787E-23
8.77355E-01 1.02304E-23
8.80203E-01 9.98631E-24
8.83022E-01 9.74642E-24
8.85812E-01 9.51066E-24
8.88573E-01 9.27899E-24
8.91304E-01 9.05135E-24
8.94005E-01 8.82769E-24
8.96677E-01 8.60797E-24
8.99318E-01 8.39215E-24
9.01928E-01 8.18017E-24
9.04508E-01 7.97200E-24
9.07058E-01 7.76758E-24
9.09576E-01 7.56689E-24
9.12063E-01 7.36987E-24
9.14519E-01 7.17649E-24
9.16943E-01 6.98672E-24
9.19335E-01 6.80050E-24
9.21696E-01 6.61781E-24
9.24024E-01 6.43860E-24
9.26320E-01 6.26285E-24
9.28584E-01 6.09051E-24
9.30815E-01 5.92155E-24
9.33013E-01 5.75595E-24
9.35178E-01 5.59366E-24
9.37310E-01 5.43467E-24
9.39409E-01 5.27892E-24
9.41474E-01 5.12640E-24
9.43505E-01 4.97708E-24
9.45503E-01 4.83092E-24
9.47467E-01 4.68791E-24
9.49397E-01 4.54800E-24
9.51293E-01 4.41119E-24
9.53154E-01 4.27743E-24
9.54981E-01 4.14671E-24
9.56773E-01 4.01899E-24
9.58530E-01 3.89427E-24
9.60252E-01 3.77250E-24
9.61940E-01 3.65368E-24
9.63592E-01 3.53778E-24
9.65209E-01 3.42477E-24
9.66790E-01 3.31464E-24
9.68336E-01 3.20736E-24
9.69846E-01 3.10292E-24
9.71321E-01 3.00130E-24
9.72759E-01 2.90248E-24
9.74162E-01 2.80644E-24
9.75528E-01 2.71316E-24
9.76858E-01 2.62262E-24
9.78152E-01 2.53482E-24
9.79410E-01 2.44973E-24
9.80631E-01 2.36734E-24
9.81815E-01 2.28763E-24
9.82963E-01 2.21059E-24
9.84074E-01 2.13621E-24
9.85148E-01 2.06447E-24
9.86185E-01 1.99536E-24
9.87185E-01 1.92887E-24
9.88148E-01 1.86499E-24
9.89074E-01 1.80370E-24
9.89962E-01 1.74499E-24
9.90814E-01 1.68885E-24
9.91627E-01 1.63528E-24
9.92404E-01 1.58426E-24
9.93143E-01 1.53579E-24
9.93844E-01 1.48986E-24
9.94508E-01 1.44645E-24
9.95134E-01 1.40556E-24
9.95722E-01 1.36719E-24
9.96273E-01 1.33132E-24
9.96786E-01 1.29796E-24
9.97261E-01 1.26709E-24
9.97698E-01 1.23870E-24
9.98097E-01 1.21281E-24
9.98459E-01 1.18939E-24
9.98782E-01 1.16845E-24
9.99067E-01 1.14998E-24
9.99315E-01 1.13398E-24
9.99524E-01 1.12044E-24
9.99695E-01 1.10937E-24
9.99829E-01 1.10077E-24
9.99924E-01 1.09462E-24
9.99981E-01 1.09093E-24
1.00000E+00 1.08970E-24
