 #
 # Subroutine ELSEPA. Elastic scattering of electrons and positrons
 #                    by neutral atoms and positive ions
 #
 # Projectile: electron
 # Kinetic energy = 2.50000E+08 eV = 9.18733E+06 a.u.
 #
 # WARNING: High-energy factorization with free-atom DF screening.
 #          Absorption, polarization and exchange corrections are
 #          switched off.
 #          Phase shifts are calculated for the bare nucleus.
 #          Scattering amplitudes are not evaluated.
 #
 # Element:  U,  Z =  92,  atomic weight = 2.38029E+02 g/mol
 #
 # Nuclear model: Fermi distribution
 #                Average radius = 6.63122E-13 cm
 #                Skin thickness = 5.46000E-14 cm
 #
 # Number of electrons = 92
 #
 # Total elastic cross section = 1.17260E-17 cm**2 = 4.18743E-01 a0**2
 # 1st transport cross section = 2.51576E-25 cm**2 = 8.98393E-09 a0**2
 # 2nd transport cross section = 7.53592E-25 cm**2 = 2.69113E-08 a0**2
 #
 #
 # Differential cross section:                       MU=(1-COS(THETA))/2
 #
 #  THETA        MU          DCS          DCS        Sherman      error
 #  (deg)                 (cm**2/sr)   (a0**2/sr)    function
 #----------------------------------------------------------------------
0.00000E+00 8.29788E-09
7.61557E-13 8.09166E-09
1.18994E-12 7.97949E-09
1.71346E-12 7.84592E-09
2.33225E-12 7.69285E-09
3.04617E-12 7.52243E-09
3.85530E-12 7.33703E-09
4.75964E-12 7.13895E-09
5.75917E-12 6.92991E-09
6.85391E-12 6.71351E-09
8.04379E-12 6.49045E-09
9.32893E-12 6.26440E-09
1.07092E-11 6.03587E-09
1.21847E-11 5.80780E-09
1.37554E-11 5.58095E-09
1.54213E-11 5.35712E-09
1.71823E-11 5.13755E-09
1.90386E-11 4.92268E-09
2.09900E-11 4.71437E-09
2.30367E-11 4.51174E-09
2.51785E-11 4.31722E-09
2.74156E-11 4.12901E-09
2.97478E-11 3.94935E-09
3.21752E-11 3.77663E-09
3.46979E-11 3.61206E-09
3.73157E-11 3.45482E-09
4.00286E-11 3.30513E-09
4.28368E-11 3.16279E-09
4.57402E-11 3.02733E-09
4.87388E-11 2.89893E-09
5.18325E-11 2.77676E-09
5.50215E-11 2.66115E-09
5.83057E-11 2.55122E-09
6.16850E-11 2.44716E-09
6.51595E-11 2.34833E-09
6.87293E-11 2.25460E-09
7.23943E-11 2.16566E-09
7.61544E-11 2.08121E-09
1.18991E-10 1.43361E-09
1.71347E-10 1.02470E-09
2.33223E-10 7.52092E-10
3.04617E-10 5.63086E-10
3.85531E-10 4.27198E-10
4.75965E-10 3.28873E-10
5.75917E-10 2.61345E-10
6.85389E-10 2.07235E-10
8.04380E-10 1.68548E-10
9.32891E-10 1.37481E-10
1.07092E-09 1.14002E-10
1.21847E-09 9.51017E-11
1.37554E-09 8.01229E-11
1.54213E-09 6.80162E-11
1.71823E-09 5.80606E-11
1.90386E-09 4.99826E-11
2.09900E-09 4.31535E-11
2.30367E-09 3.75844E-11
2.51785E-09 3.27795E-11
2.74156E-09 2.88188E-11
2.97478E-09 2.53792E-11
3.21752E-09 2.24899E-11
3.46978E-09 1.99835E-11
3.73156E-09 1.78353E-11
4.00286E-09 1.59698E-11
4.28368E-09 1.43436E-11
4.57402E-09 1.29288E-11
4.87388E-09 1.16768E-11
5.18326E-09 1.05857E-11
5.50215E-09 9.60699E-12
5.83057E-09 8.75162E-12
6.16850E-09 7.97756E-12
6.51596E-09 7.29535E-12
6.87293E-09 6.67881E-12
7.23942E-09 6.12882E-12
7.61544E-09 5.63245E-12
1.18991E-08 2.62615E-12
1.71347E-08 1.38460E-12
2.33223E-08 7.99425E-13
3.04617E-08 4.94544E-13
3.85531E-08 3.22074E-13
4.75965E-08 2.18897E-13
5.75917E-08 1.54044E-13
6.85389E-08 1.11622E-13
8.04380E-08 8.29139E-14
9.32891E-08 6.29012E-14
1.07092E-07 4.85756E-14
1.21847E-07 3.81051E-14
1.37554E-07 3.03059E-14
1.54213E-07 2.43994E-14
1.71823E-07 1.98603E-14
1.90386E-07 1.63267E-14
2.09900E-07 1.35434E-14
2.30367E-07 1.13270E-14
2.51785E-07 9.54563E-15
2.74156E-07 8.10132E-15
2.97478E-07 6.92040E-15
3.21752E-07 5.94739E-15
3.46978E-07 5.13985E-15
3.73156E-07 4.46515E-15
4.00286E-07 3.89772E-15
4.28368E-07 3.41780E-15
4.57402E-07 3.00968E-15
4.87388E-07 2.66081E-15
5.18325E-07 2.36113E-15
5.50215E-07 2.10254E-15
5.83057E-07 1.87843E-15
6.16850E-07 1.68339E-15
6.51596E-07 1.51301E-15
6.87293E-07 1.36365E-15
7.23942E-07 1.23228E-15
7.61543E-07 1.11634E-15
1.18991E-06 4.65835E-16
1.71347E-06 2.27244E-16
2.33223E-06 1.23627E-16
3.04617E-06 7.28942E-17
3.85531E-06 4.57201E-17
4.75964E-06 3.01125E-17
5.75916E-06 2.06341E-17
6.85388E-06 1.46095E-17
8.04378E-06 1.06323E-17
9.32888E-06 7.92132E-18
1.07092E-05 6.02200E-18
1.21846E-05 4.65939E-18
1.37553E-05 3.66133E-18
1.54212E-05 2.91678E-18
1.71822E-05 2.35224E-18
1.90385E-05 1.91655E-18
2.09899E-05 1.57959E-18
2.30365E-05 1.31324E-18
2.51783E-05 1.10035E-18
2.74153E-05 9.28610E-19
2.97475E-05 7.88979E-19
3.21749E-05 6.74634E-19
3.46974E-05 5.80340E-19
3.73152E-05 5.02039E-19
4.00281E-05 4.36566E-19
4.28362E-05 3.81451E-19
4.57395E-05 3.34763E-19
4.87380E-05 2.94991E-19
5.18317E-05 2.60937E-19
5.50205E-05 2.31649E-19
5.83045E-05 2.06354E-19
6.16838E-05 1.84423E-19
6.51582E-05 1.65334E-19
6.87277E-05 1.48658E-19
7.23925E-05 1.34035E-19
7.61524E-05 1.21533E-19
9.21439E-05 8.32130E-20
1.09658E-04 5.88996E-20
1.28695E-04 4.28716E-20
1.49255E-04 3.19570E-20
1.71338E-04 2.43143E-20
1.94942E-04 1.88334E-20
2.20070E-04 1.48185E-20
2.46720E-04 1.18226E-20
2.74892E-04 9.55004E-21
3.04586E-04 7.80024E-21
3.35803E-04 6.43529E-21
3.68542E-04 5.35749E-21
4.02802E-04 4.49723E-21
4.38585E-04 3.80399E-21
4.75889E-04 3.23963E-21
5.14715E-04 2.77632E-21
5.55063E-04 2.39321E-21
5.96931E-04 2.07418E-21
6.40321E-04 1.80673E-21
6.85233E-04 1.58111E-21
7.31665E-04 1.38971E-21
7.79618E-04 1.22644E-21
8.29092E-04 1.08647E-21
8.80086E-04 9.65909E-22
9.32601E-04 8.61596E-22
9.86636E-04 7.70967E-22
1.04219E-03 6.91911E-22
1.09927E-03 6.22698E-22
1.15786E-03 5.61884E-22
1.21797E-03 5.08274E-22
1.27961E-03 4.60864E-22
1.34276E-03 4.18810E-22
1.40743E-03 3.81402E-22
1.47362E-03 3.48034E-22
1.54133E-03 3.18194E-22
1.61056E-03 2.91442E-22
1.68131E-03 2.67403E-22
1.75357E-03 2.45753E-22
1.82735E-03 2.26213E-22
1.90265E-03 2.08540E-22
1.97947E-03 1.92524E-22
2.05780E-03 1.77984E-22
2.13765E-03 1.64758E-22
2.21902E-03 1.52708E-22
2.30190E-03 1.41711E-22
2.38630E-03 1.31657E-22
2.47222E-03 1.22454E-22
2.55965E-03 1.14015E-22
2.64859E-03 1.06266E-22
2.73905E-03 9.91421E-23
2.83103E-03 9.25831E-23
2.92452E-03 8.65369E-23
3.01952E-03 8.09565E-23
3.11604E-03 7.57998E-23
3.21407E-03 7.10294E-23
3.31362E-03 6.66114E-23
3.41468E-03 6.25153E-23
3.51725E-03 5.87139E-23
3.62133E-03 5.51824E-23
3.72692E-03 5.18984E-23
3.83403E-03 4.88419E-23
3.94265E-03 4.59944E-23
4.05278E-03 4.33394E-23
4.16442E-03 4.08618E-23
4.27757E-03 3.85478E-23
4.39223E-03 3.63849E-23
4.50840E-03 3.43617E-23
4.62608E-03 3.24677E-23
4.74527E-03 3.06934E-23
4.86597E-03 2.90301E-23
4.98817E-03 2.74698E-23
5.11188E-03 2.60051E-23
5.23711E-03 2.46294E-23
5.36383E-03 2.33363E-23
5.49207E-03 2.21202E-23
5.62181E-03 2.09759E-23
5.75306E-03 1.98984E-23
5.88581E-03 1.88833E-23
6.02007E-03 1.79266E-23
6.15583E-03 1.70243E-23
6.29310E-03 1.61730E-23
6.43187E-03 1.53693E-23
6.57214E-03 1.46102E-23
6.71392E-03 1.38930E-23
6.85720E-03 1.32150E-23
7.00198E-03 1.25737E-23
7.14827E-03 1.19670E-23
7.29605E-03 1.13927E-23
7.44534E-03 1.08488E-23
7.59612E-03 1.03336E-23
7.97965E-03 9.16011E-24
8.37255E-03 8.13176E-24
8.77480E-03 7.22869E-24
9.18641E-03 6.43402E-24
9.60736E-03 5.73342E-24
1.00376E-02 5.11466E-24
1.04773E-02 4.56728E-24
1.09262E-02 4.08229E-24
1.13844E-02 3.65196E-24
1.18520E-02 3.26962E-24
1.23288E-02 2.92947E-24
1.28150E-02 2.62651E-24
1.33104E-02 2.35637E-24
1.38150E-02 2.11525E-24
1.43290E-02 1.89982E-24
1.48521E-02 1.70717E-24
1.53845E-02 1.53475E-24
1.59262E-02 1.38032E-24
1.64770E-02 1.24190E-24
1.70371E-02 1.11775E-24
1.76063E-02 1.00633E-24
1.81848E-02 9.06276E-25
1.87724E-02 8.16387E-25
1.93692E-02 7.35590E-25
1.99751E-02 6.62934E-25
2.05901E-02 5.97574E-25
2.12143E-02 5.38757E-25
2.18476E-02 4.85812E-25
2.24900E-02 4.38138E-25
2.31415E-02 3.95200E-25
2.38021E-02 3.56520E-25
2.44717E-02 3.21669E-25
2.51504E-02 2.90263E-25
2.58382E-02 2.61958E-25
2.65349E-02 2.36445E-25
2.72407E-02 2.13447E-25
2.79555E-02 1.92714E-25
2.86793E-02 1.74024E-25
2.94120E-02 1.57173E-25
3.01537E-02 1.41981E-25
3.09043E-02 1.28285E-25
3.16639E-02 1.15938E-25
3.24324E-02 1.04807E-25
3.32098E-02 9.47722E-26
3.39961E-02 8.57269E-26
3.47912E-02 7.75736E-26
3.55952E-02 7.02246E-26
3.64081E-02 6.36009E-26
3.72297E-02 5.76311E-26
3.80602E-02 5.22508E-26
3.88995E-02 4.74018E-26
3.97476E-02 4.30317E-26
4.06044E-02 3.90931E-26
4.14700E-02 3.55433E-26
4.23443E-02 3.23435E-26
4.32273E-02 2.94590E-26
4.41190E-02 2.68583E-26
4.50194E-02 2.45130E-26
4.59284E-02 2.23976E-26
4.68461E-02 2.04889E-26
4.87074E-02 1.72105E-26
5.06030E-02 1.45347E-26
5.25328E-02 1.23453E-26
5.44967E-02 1.05482E-26
5.64946E-02 9.06714E-27
5.85262E-02 7.84075E-27
6.05914E-02 6.81946E-27
6.26901E-02 5.96348E-27
6.48222E-02 5.24090E-27
6.69873E-02 4.62623E-27
6.91854E-02 4.09910E-27
7.14163E-02 3.64336E-27
7.36799E-02 3.24615E-27
7.59760E-02 2.89732E-27
7.83043E-02 2.58881E-27
8.06647E-02 2.31426E-27
8.30571E-02 2.06866E-27
8.54812E-02 1.84799E-27
8.79369E-02 1.64910E-27
9.04240E-02 1.46941E-27
9.29422E-02 1.30687E-27
9.54915E-02 1.15976E-27
9.80716E-02 1.02667E-27
1.00682E-01 9.06392E-28
1.03323E-01 7.97861E-28
1.05995E-01 7.00149E-28
1.08696E-01 6.12410E-28
1.11427E-01 5.33870E-28
1.14188E-01 4.63806E-28
1.16978E-01 4.01539E-28
1.19797E-01 3.46428E-28
1.22645E-01 2.97863E-28
1.25522E-01 2.55262E-28
1.28428E-01 2.18077E-28
1.31361E-01 1.85782E-28
1.34323E-01 1.57885E-28
1.37313E-01 1.33921E-28
1.40330E-01 1.13454E-28
1.43375E-01 9.60788E-29
1.46447E-01 8.14200E-29
1.49545E-01 6.91320E-29
1.52671E-01 5.88986E-29
1.55823E-01 5.04327E-29
1.59001E-01 4.34749E-29
1.62205E-01 3.77933E-29
1.65435E-01 3.31812E-29
1.68690E-01 2.94566E-29
1.71970E-01 2.64601E-29
1.75276E-01 2.40533E-29
1.78606E-01 2.21174E-29
1.81961E-01 2.05515E-29
1.85340E-01 1.92706E-29
1.88743E-01 1.82042E-29
1.92169E-01 1.72946E-29
1.95619E-01 1.64954E-29
1.99092E-01 1.57701E-29
2.02589E-01 1.50905E-29
2.06107E-01 1.44358E-29
2.09649E-01 1.37912E-29
2.13212E-01 1.31468E-29
2.16797E-01 1.24971E-29
2.20404E-01 1.18393E-29
2.24032E-01 1.11737E-29
2.27680E-01 1.05020E-29
2.31350E-01 9.82746E-30
2.35040E-01 9.15417E-30
2.38751E-01 8.48666E-30
2.42481E-01 7.82964E-30
2.46231E-01 7.18774E-30
2.50000E-01 6.56531E-30
2.53788E-01 5.96631E-30
2.57595E-01 5.39416E-30
2.61421E-01 4.85174E-30
2.65264E-01 4.34131E-30
2.69126E-01 3.86451E-30
2.73005E-01 3.42242E-30
2.76901E-01 3.01553E-30
2.80814E-01 2.64383E-30
2.84744E-01 2.30683E-30
2.88691E-01 2.00365E-30
2.92653E-01 1.73302E-30
2.96632E-01 1.49343E-30
3.00625E-01 1.28311E-30
3.04634E-01 1.10011E-30
3.08658E-01 9.42382E-31
3.12697E-01 8.07782E-31
3.16749E-01 6.94154E-31
3.20816E-01 5.99346E-31
3.24896E-01 5.21251E-31
3.28990E-01 4.57835E-31
3.33097E-01 4.07158E-31
3.37216E-01 3.67396E-31
3.41348E-01 3.36849E-31
3.45492E-01 3.13957E-31
3.49647E-01 2.97299E-31
3.53814E-01 2.85601E-31
3.57992E-01 2.77732E-31
3.62181E-01 2.72703E-31
3.66381E-01 2.69658E-31
3.70590E-01 2.67872E-31
3.74810E-01 2.66741E-31
3.79039E-01 2.65770E-31
3.83277E-01 2.64569E-31
3.87524E-01 2.62838E-31
3.91780E-01 2.60360E-31
3.96044E-01 2.56987E-31
4.00316E-01 2.52636E-31
4.04596E-01 2.47275E-31
4.08882E-01 2.40917E-31
4.13176E-01 2.33608E-31
4.17476E-01 2.25423E-31
4.21783E-01 2.16459E-31
4.26095E-01 2.06827E-31
4.30413E-01 1.96647E-31
4.34737E-01 1.86045E-31
4.39065E-01 1.75145E-31
4.43398E-01 1.64073E-31
4.47736E-01 1.52945E-31
4.52077E-01 1.41872E-31
4.56422E-01 1.30956E-31
4.60770E-01 1.20288E-31
4.65122E-01 1.09948E-31
4.69476E-01 1.00004E-31
4.73832E-01 9.05143E-32
4.78190E-01 8.15240E-32
4.82550E-01 7.30684E-32
4.86912E-01 6.51719E-32
4.91274E-01 5.78497E-32
4.95637E-01 5.11080E-32
5.00000E-01 4.49451E-32
5.04363E-01 3.93521E-32
5.08726E-01 3.43144E-32
5.13088E-01 2.98119E-32
5.17450E-01 2.58203E-32
5.21810E-01 2.23120E-32
5.26168E-01 1.92567E-32
5.30524E-01 1.66223E-32
5.34878E-01 1.43756E-32
5.39230E-01 1.24827E-32
5.43578E-01 1.09097E-32
5.47923E-01 9.62339E-33
5.52264E-01 8.59126E-33
5.56602E-01 7.78209E-33
5.60935E-01 7.16618E-33
5.65263E-01 6.71553E-33
5.69587E-01 6.40406E-33
5.73905E-01 6.20768E-33
5.78217E-01 6.10436E-33
5.82524E-01 6.07418E-33
5.86824E-01 6.09931E-33
5.91118E-01 6.16396E-33
5.95404E-01 6.25434E-33
5.99684E-01 6.35854E-33
6.03956E-01 6.46648E-33
6.08220E-01 6.56973E-33
6.12476E-01 6.66145E-33
6.16723E-01 6.73621E-33
6.20961E-01 6.78987E-33
6.25190E-01 6.81950E-33
6.29410E-01 6.82314E-33
6.33619E-01 6.79979E-33
6.37819E-01 6.74920E-33
6.42008E-01 6.67178E-33
6.46186E-01 6.56851E-33
6.50353E-01 6.44082E-33
6.54508E-01 6.29049E-33
6.58652E-01 6.11957E-33
6.62784E-01 5.93029E-33
6.66903E-01 5.72503E-33
6.71010E-01 5.50623E-33
6.75104E-01 5.27631E-33
6.79184E-01 5.03770E-33
6.83251E-01 4.79272E-33
6.87303E-01 4.54361E-33
6.91342E-01 4.29248E-33
6.95366E-01 4.04129E-33
6.99375E-01 3.79184E-33
7.03368E-01 3.54576E-33
7.07347E-01 3.30452E-33
7.11309E-01 3.06938E-33
7.15256E-01 2.84147E-33
7.19186E-01 2.62171E-33
7.23099E-01 2.41088E-33
7.26995E-01 2.20959E-33
7.30874E-01 2.01832E-33
7.34736E-01 1.83739E-33
7.38579E-01 1.66701E-33
7.42405E-01 1.50726E-33
7.46212E-01 1.35814E-33
7.50000E-01 1.21953E-33
7.53769E-01 1.09124E-33
7.57519E-01 9.73029E-34
7.61249E-01 8.64568E-34
7.64960E-01 7.65493E-34
7.68650E-01 6.75398E-34
7.72320E-01 5.93846E-34
7.75968E-01 5.20379E-34
7.79596E-01 4.54518E-34
7.83203E-01 3.95781E-34
7.86788E-01 3.43679E-34
7.90351E-01 2.97728E-34
7.93893E-01 2.57449E-34
7.97411E-01 2.22373E-34
8.00908E-01 1.92048E-34
8.04381E-01 1.66035E-34
8.07831E-01 1.43917E-34
8.11257E-01 1.25295E-34
8.14660E-01 1.09795E-34
8.18039E-01 9.70634E-35
8.21394E-01 8.67701E-35
8.24724E-01 7.86090E-35
8.28030E-01 7.22973E-35
8.31310E-01 6.75753E-35
8.34565E-01 6.42048E-35
8.37795E-01 6.19711E-35
8.40999E-01 6.06787E-35
8.44177E-01 6.01538E-35
8.47329E-01 6.02396E-35
8.50455E-01 6.07992E-35
8.53553E-01 6.17108E-35
8.56625E-01 6.28689E-35
8.59670E-01 6.41825E-35
8.62687E-01 6.55733E-35
8.65677E-01 6.69758E-35
8.68639E-01 6.83348E-35
8.71572E-01 6.96058E-35
8.74478E-01 7.07525E-35
8.77355E-01 7.17472E-35
8.80203E-01 7.25687E-35
8.83022E-01 7.32025E-35
8.85812E-01 7.36390E-35
8.88573E-01 7.38735E-35
8.91304E-01 7.39057E-35
8.94005E-01 7.37380E-35
8.96677E-01 7.33759E-35
8.99318E-01 7.28268E-35
9.01928E-01 7.21008E-35
9.04508E-01 7.12081E-35
9.07058E-01 7.01615E-35
9.09576E-01 6.89734E-35
9.12063E-01 6.76567E-35
9.14519E-01 6.62250E-35
9.16943E-01 6.46917E-35
9.19335E-01 6.30699E-35
9.21696E-01 6.13722E-35
9.24024E-01 5.96114E-35
9.26320E-01 5.77990E-35
9.28584E-01 5.59468E-35
9.30815E-01 5.40651E-35
9.33013E-01 5.21637E-35
9.35178E-01 5.02519E-35
9.37310E-01 4.83384E-35
9.39409E-01 4.64305E-35
9.41474E-01 4.45356E-35
9.43505E-01 4.26598E-35
9.45503E-01 4.08088E-35
9.47467E-01 3.89875E-35
9.49397E-01 3.72002E-35
9.51293E-01 3.54510E-35
9.53154E-01 3.37425E-35
9.54981E-01 3.20777E-35
9.56773E-01 3.04587E-35
9.58530E-01 2.88872E-35
9.60252E-01 2.73647E-35
9.61940E-01 2.58920E-35
9.63592E-01 2.44697E-35
9.65209E-01 2.30983E-35
9.66790E-01 2.17776E-35
9.68336E-01 2.05076E-35
9.69846E-01 1.92878E-35
9.71321E-01 1.81177E-35
9.72759E-01 1.69965E-35
9.74162E-01 1.59234E-35
9.75528E-01 1.48974E-35
9.76858E-01 1.39173E-35
9.78152E-01 1.29823E-35
9.79410E-01 1.20908E-35
9.80631E-01 1.12420E-35
9.81815E-01 1.04342E-35
9.82963E-01 9.66648E-36
9.84074E-01 8.93737E-36
9.85148E-01 8.24571E-36
9.86185E-01 7.59016E-36
9.87185E-01 6.96953E-36
9.88148E-01 6.38260E-36
9.89074E-01 5.82823E-36
9.89962E-01 5.30515E-36
9.90814E-01 4.81244E-36
9.91627E-01 4.34893E-36
9.92404E-01 3.91361E-36
9.93143E-01 3.50553E-36
9.93844E-01 3.12383E-36
9.94508E-01 2.76752E-36
9.95134E-01 2.43586E-36
9.95722E-01 2.12807E-36
9.96273E-01 1.84341E-36
9.96786E-01 1.58125E-36
9.97261E-01 1.34089E-36
9.97698E-01 1.12185E-36
9.98097E-01 9.23587E-37
9.98459E-01 7.45604E-37
9.98782E-01 5.87475E-37
9.99067E-01 4.48828E-37
9.99315E-01 3.29333E-37
9.99524E-01 2.28697E-37
9.99695E-01 1.46699E-37
9.99829E-01 8.31310E-38
9.99924E-01 3.78229E-38
9.99981E-01 1.06923E-38
1.00000E+00 1.65241E-39
