 #
 # Subroutine ELSEPA. Elastic scattering of electrons and positrons
 #                    by neutral atoms and positive ions
 #
 # Projectile: electron
 # Kinetic energy = 3.00000E+07 eV = 1.10248E+06 a.u.
 #
 # WARNING: High-energy factorization with free-atom DF screening.
 #          Absorption, polarization and exchange corrections are
 #          switched off.
 #          Phase shifts are calculated for the bare nucleus.
 #          Scattering amplitudes are not evaluated.
 #
 # Element:  U,  Z =  92,  atomic weight = 2.38029E+02 g/mol
 #
 # Nuclear model: Fermi distribution
 #                Average radius = 6.63122E-13 cm
 #                Skin thickness = 5.46000E-14 cm
 #
 # Number of electrons = 92
 #
 # Total elastic cross section = 1.17329E-17 cm**2 = 4.18989E-01 a0**2
 # 1st transport cross section = 1.72673E-23 cm**2 = 6.16625E-07 a0**2
 # 2nd transport cross section = 4.93675E-23 cm**2 = 1.76295E-06 a0**2
 #
 #
 # Differential cross section:                       MU=(1-COS(THETA))/2
 #
 #  THETA        MU          DCS          DCS        Sherman      error
 #  (deg)                 (cm**2/sr)   (a0**2/sr)    function
 #----------------------------------------------------------------------
0.00000E+00 1.23091E-10
7.61557E-13 1.23044E-10
1.18994E-12 1.23018E-10
1.71346E-12 1.22986E-10
2.33225E-12 1.22949E-10
3.04617E-12 1.22905E-10
3.85530E-12 1.22856E-10
4.75964E-12 1.22801E-10
5.75917E-12 1.22741E-10
6.85391E-12 1.22675E-10
8.04379E-12 1.22603E-10
9.32893E-12 1.22525E-10
1.07092E-11 1.22442E-10
1.21847E-11 1.22353E-10
1.37554E-11 1.22258E-10
1.54213E-11 1.22158E-10
1.71823E-11 1.22053E-10
1.90386E-11 1.21941E-10
2.09900E-11 1.21825E-10
2.30367E-11 1.21702E-10
2.51785E-11 1.21575E-10
2.74156E-11 1.21442E-10
2.97478E-11 1.21303E-10
3.21752E-11 1.21159E-10
3.46979E-11 1.21010E-10
3.73157E-11 1.20856E-10
4.00286E-11 1.20696E-10
4.28368E-11 1.20531E-10
4.57402E-11 1.20361E-10
4.87388E-11 1.20185E-10
5.18325E-11 1.20005E-10
5.50215E-11 1.19819E-10
5.83057E-11 1.19629E-10
6.16850E-11 1.19433E-10
6.51595E-11 1.19232E-10
6.87293E-11 1.19027E-10
7.23943E-11 1.18817E-10
7.61544E-11 1.18602E-10
1.18991E-10 1.16197E-10
1.71347E-10 1.13368E-10
2.33223E-10 1.10172E-10
3.04617E-10 1.06675E-10
3.85531E-10 1.02926E-10
4.75965E-10 9.90080E-11
5.75917E-10 9.49589E-11
6.85389E-10 9.08519E-11
8.04380E-10 8.67243E-11
9.32891E-10 8.26258E-11
1.07092E-09 7.85958E-11
1.21847E-09 7.46548E-11
1.37554E-09 7.08470E-11
1.54213E-09 6.71638E-11
1.71823E-09 6.36531E-11
1.90386E-09 6.02907E-11
2.09900E-09 5.71052E-11
2.30367E-09 5.40831E-11
2.51785E-09 5.12303E-11
2.74156E-09 4.85429E-11
2.97478E-09 4.60112E-11
3.21752E-09 4.36375E-11
3.46978E-09 4.14037E-11
3.73156E-09 3.93140E-11
4.00286E-09 3.73506E-11
4.28368E-09 3.55115E-11
4.57402E-09 3.37855E-11
4.87388E-09 3.21670E-11
5.18326E-09 3.06473E-11
5.50215E-09 2.92213E-11
5.83057E-09 2.78793E-11
6.16850E-09 2.66198E-11
6.51596E-09 2.54306E-11
6.87293E-09 2.43131E-11
7.23942E-09 2.32571E-11
7.61544E-09 2.22614E-11
1.18991E-08 1.47761E-11
1.71347E-08 1.01888E-11
2.33223E-08 7.22967E-12
3.04617E-08 5.20179E-12
3.85531E-08 3.91573E-12
4.75965E-08 2.95851E-12
5.75917E-08 2.30574E-12
6.85389E-08 1.81448E-12
8.04380E-08 1.45463E-12
9.32891E-08 1.17932E-12
1.07092E-07 9.66340E-13
1.21847E-07 8.01255E-13
1.37554E-07 6.68252E-13
1.54213E-07 5.64027E-13
1.71823E-07 4.77622E-13
1.90386E-07 4.08562E-13
2.09900E-07 3.51104E-13
2.30367E-07 3.03888E-13
2.51785E-07 2.64404E-13
2.74156E-07 2.31185E-13
2.97478E-07 2.03253E-13
3.21752E-07 1.79263E-13
3.46978E-07 1.58976E-13
3.73156E-07 1.41256E-13
4.00286E-07 1.26106E-13
4.28368E-07 1.12837E-13
4.57402E-07 1.01312E-13
4.87388E-07 9.12006E-14
5.18325E-07 8.22970E-14
5.50215E-07 7.44767E-14
5.83057E-07 6.75323E-14
6.16850E-07 6.14246E-14
6.51596E-07 5.58882E-14
6.87293E-07 5.09918E-14
7.23942E-07 4.66021E-14
7.61543E-07 4.26864E-14
1.18991E-06 1.95124E-14
1.71347E-06 1.01782E-14
2.33223E-06 5.83403E-15
3.04617E-06 3.58031E-15
3.85531E-06 2.31940E-15
4.75964E-06 1.57071E-15
5.75916E-06 1.10184E-15
6.85388E-06 7.96109E-16
8.04378E-06 5.89617E-16
9.32888E-06 4.45696E-16
1.07092E-05 3.43113E-16
1.21846E-05 2.68308E-16
1.37553E-05 2.12775E-16
1.54212E-05 1.70894E-16
1.71822E-05 1.38801E-16
1.90385E-05 1.13833E-16
2.09899E-05 9.43818E-17
2.30365E-05 7.89010E-17
2.51783E-05 6.64545E-17
2.74153E-05 5.63523E-17
2.97475E-05 4.80967E-17
3.21749E-05 4.13020E-17
3.46974E-05 3.56713E-17
3.73152E-05 3.09753E-17
4.00281E-05 2.70305E-17
4.28362E-05 2.36964E-17
4.57395E-05 2.08610E-17
4.87380E-05 1.84359E-17
5.18317E-05 1.63524E-17
5.50205E-05 1.45540E-17
5.83045E-05 1.29959E-17
6.16838E-05 1.16409E-17
6.51582E-05 1.04579E-17
6.87277E-05 9.42173E-18
7.23925E-05 8.51076E-18
7.61524E-05 7.70450E-18
9.21439E-05 5.30027E-18
1.09658E-04 3.76438E-18
1.28695E-04 2.74661E-18
1.49255E-04 2.05079E-18
1.71338E-04 1.56207E-18
1.94942E-04 1.21076E-18
2.20070E-04 9.52963E-19
2.46720E-04 7.60335E-19
2.74892E-04 6.14079E-19
3.04586E-04 5.01390E-19
3.35803E-04 4.13450E-19
3.68542E-04 3.43994E-19
4.02802E-04 2.88551E-19
4.38585E-04 2.43860E-19
4.75889E-04 2.07508E-19
5.14715E-04 1.77698E-19
5.55063E-04 1.53061E-19
5.96931E-04 1.32558E-19
6.40321E-04 1.15383E-19
6.85233E-04 1.00907E-19
7.31665E-04 8.86368E-20
7.79618E-04 7.81798E-20
8.29092E-04 6.92245E-20
8.80086E-04 6.15184E-20
9.32601E-04 5.48582E-20
9.86636E-04 4.90779E-20
1.04219E-03 4.40413E-20
1.09927E-03 3.96367E-20
1.15786E-03 3.57707E-20
1.21797E-03 3.23665E-20
1.27961E-03 2.93591E-20
1.34276E-03 2.66943E-20
1.40743E-03 2.43263E-20
1.47362E-03 2.22162E-20
1.54133E-03 2.03309E-20
1.61056E-03 1.86423E-20
1.68131E-03 1.71262E-20
1.75357E-03 1.57619E-20
1.82735E-03 1.45315E-20
1.90265E-03 1.34194E-20
1.97947E-03 1.24122E-20
2.05780E-03 1.14984E-20
2.13765E-03 1.06676E-20
2.21902E-03 9.91089E-21
2.30190E-03 9.22055E-21
2.38630E-03 8.58966E-21
2.47222E-03 8.01217E-21
2.55965E-03 7.48274E-21
2.64859E-03 6.99664E-21
2.73905E-03 6.54966E-21
2.83103E-03 6.13808E-21
2.92452E-03 5.75858E-21
3.01952E-03 5.40818E-21
3.11604E-03 5.08426E-21
3.21407E-03 4.78443E-21
3.31362E-03 4.50658E-21
3.41468E-03 4.24878E-21
3.51725E-03 4.00932E-21
3.62133E-03 3.78665E-21
3.72692E-03 3.57938E-21
3.83403E-03 3.38624E-21
3.94265E-03 3.20608E-21
4.05278E-03 3.03787E-21
4.16442E-03 2.88066E-21
4.27757E-03 2.73360E-21
4.39223E-03 2.59591E-21
4.50840E-03 2.46688E-21
4.62608E-03 2.34586E-21
4.74527E-03 2.23225E-21
4.86597E-03 2.12552E-21
4.98817E-03 2.02517E-21
5.11188E-03 1.93076E-21
5.23711E-03 1.84185E-21
5.36383E-03 1.75806E-21
5.49207E-03 1.67904E-21
5.62181E-03 1.60448E-21
5.75306E-03 1.53406E-21
5.88581E-03 1.46752E-21
6.02007E-03 1.40460E-21
6.15583E-03 1.34507E-21
6.29310E-03 1.28870E-21
6.43187E-03 1.23529E-21
6.57214E-03 1.18467E-21
6.71392E-03 1.13665E-21
6.85720E-03 1.09108E-21
7.00198E-03 1.04780E-21
7.14827E-03 1.00668E-21
7.29605E-03 9.67596E-22
7.44534E-03 9.30419E-22
7.59612E-03 8.95040E-22
7.97965E-03 8.13789E-22
8.37255E-03 7.41699E-22
8.77480E-03 6.77547E-22
9.18641E-03 6.20300E-22
9.60736E-03 5.69078E-22
1.00376E-02 5.23127E-22
1.04773E-02 4.81809E-22
1.09262E-02 4.44563E-22
1.13844E-02 4.10918E-22
1.18520E-02 3.80457E-22
1.23288E-02 3.52822E-22
1.28150E-02 3.27702E-22
1.33104E-02 3.04824E-22
1.38150E-02 2.83949E-22
1.43290E-02 2.64868E-22
1.48521E-02 2.47397E-22
1.53845E-02 2.31374E-22
1.59262E-02 2.16656E-22
1.64770E-02 2.03115E-22
1.70371E-02 1.90639E-22
1.76063E-02 1.79127E-22
1.81848E-02 1.68491E-22
1.87724E-02 1.58650E-22
1.93692E-02 1.49533E-22
1.99751E-02 1.41077E-22
2.05901E-02 1.33224E-22
2.12143E-02 1.25922E-22
2.18476E-02 1.19124E-22
2.24900E-02 1.12790E-22
2.31415E-02 1.06881E-22
2.38021E-02 1.01362E-22
2.44717E-02 9.62031E-23
2.51504E-02 9.13757E-23
2.58382E-02 8.68542E-23
2.65349E-02 8.26153E-23
2.72407E-02 7.86378E-23
2.79555E-02 7.49025E-23
2.86793E-02 7.13918E-23
2.94120E-02 6.80901E-23
3.01537E-02 6.49835E-23
3.09043E-02 6.20505E-23
3.16639E-02 5.92835E-23
3.24324E-02 5.66720E-23
3.32098E-02 5.42055E-23
3.39961E-02 5.18743E-23
3.47912E-02 4.96694E-23
3.55952E-02 4.75825E-23
3.64081E-02 4.56060E-23
3.72297E-02 4.37328E-23
3.80602E-02 4.19565E-23
3.88995E-02 4.02709E-23
3.97476E-02 3.86704E-23
4.06044E-02 3.71498E-23
4.14700E-02 3.57044E-23
4.23443E-02 3.43296E-23
4.32273E-02 3.30212E-23
4.41190E-02 3.17754E-23
4.50194E-02 3.05885E-23
4.59284E-02 2.94571E-23
4.68461E-02 2.83782E-23
4.87074E-02 2.63660E-23
5.06030E-02 2.45306E-23
5.25328E-02 2.28533E-23
5.44967E-02 2.13178E-23
5.64946E-02 1.99098E-23
5.85262E-02 1.86165E-23
6.05914E-02 1.74267E-23
6.26901E-02 1.63305E-23
6.48222E-02 1.53191E-23
6.69873E-02 1.43845E-23
6.91854E-02 1.35199E-23
7.14163E-02 1.27188E-23
7.36799E-02 1.19758E-23
7.59760E-02 1.12858E-23
7.83043E-02 1.06442E-23
8.06647E-02 1.00470E-23
8.30571E-02 9.49047E-24
8.54812E-02 8.97136E-24
8.79369E-02 8.48663E-24
9.04240E-02 8.03358E-24
9.29422E-02 7.60971E-24
9.54915E-02 7.21280E-24
9.80716E-02 6.84079E-24
1.00682E-01 6.49183E-24
1.03323E-01 6.16422E-24
1.05995E-01 5.85639E-24
1.08696E-01 5.56694E-24
1.11427E-01 5.29455E-24
1.14188E-01 5.03804E-24
1.16978E-01 4.79630E-24
1.19797E-01 4.56834E-24
1.22645E-01 4.35321E-24
1.25522E-01 4.15006E-24
1.28428E-01 3.95811E-24
1.31361E-01 3.77663E-24
1.34323E-01 3.60494E-24
1.37313E-01 3.44242E-24
1.40330E-01 3.28849E-24
1.43375E-01 3.14263E-24
1.46447E-01 3.00433E-24
1.49545E-01 2.87313E-24
1.52671E-01 2.74861E-24
1.55823E-01 2.63037E-24
1.59001E-01 2.51804E-24
1.62205E-01 2.41127E-24
1.65435E-01 2.30975E-24
1.68690E-01 2.21316E-24
1.71970E-01 2.12124E-24
1.75276E-01 2.03372E-24
1.78606E-01 1.95035E-24
1.81961E-01 1.87091E-24
1.85340E-01 1.79518E-24
1.88743E-01 1.72297E-24
1.92169E-01 1.65408E-24
1.95619E-01 1.58833E-24
1.99092E-01 1.52557E-24
2.02589E-01 1.46563E-24
2.06107E-01 1.40837E-24
2.09649E-01 1.35365E-24
2.13212E-01 1.30134E-24
2.16797E-01 1.25133E-24
2.20404E-01 1.20348E-24
2.24032E-01 1.15771E-24
2.27680E-01 1.11390E-24
2.31350E-01 1.07196E-24
2.35040E-01 1.03180E-24
2.38751E-01 9.93326E-25
2.42481E-01 9.56466E-25
2.46231E-01 9.21141E-25
2.50000E-01 8.87277E-25
2.53788E-01 8.54807E-25
2.57595E-01 8.23665E-25
2.61421E-01 7.93791E-25
2.65264E-01 7.65125E-25
2.69126E-01 7.37613E-25
2.73005E-01 7.11202E-25
2.76901E-01 6.85843E-25
2.80814E-01 6.61489E-25
2.84744E-01 6.38094E-25
2.88691E-01 6.15617E-25
2.92653E-01 5.94018E-25
2.96632E-01 5.73257E-25
3.00625E-01 5.53298E-25
3.04634E-01 5.34108E-25
3.08658E-01 5.15652E-25
3.12697E-01 4.97900E-25
3.16749E-01 4.80821E-25
3.20816E-01 4.64387E-25
3.24896E-01 4.48572E-25
3.28990E-01 4.33348E-25
3.33097E-01 4.18693E-25
3.37216E-01 4.04581E-25
3.41348E-01 3.90992E-25
3.45492E-01 3.77903E-25
3.49647E-01 3.65294E-25
3.53814E-01 3.53145E-25
3.57992E-01 3.41439E-25
3.62181E-01 3.30157E-25
3.66381E-01 3.19283E-25
3.70590E-01 3.08799E-25
3.74810E-01 2.98692E-25
3.79039E-01 2.88945E-25
3.83277E-01 2.79545E-25
3.87524E-01 2.70479E-25
3.91780E-01 2.61732E-25
3.96044E-01 2.53294E-25
4.00316E-01 2.45151E-25
4.04596E-01 2.37293E-25
4.08882E-01 2.29709E-25
4.13176E-01 2.22389E-25
4.17476E-01 2.15321E-25
4.21783E-01 2.08498E-25
4.26095E-01 2.01909E-25
4.30413E-01 1.95546E-25
4.34737E-01 1.89400E-25
4.39065E-01 1.83463E-25
4.43398E-01 1.77729E-25
4.47736E-01 1.72188E-25
4.52077E-01 1.66834E-25
4.56422E-01 1.61660E-25
4.60770E-01 1.56660E-25
4.65122E-01 1.51827E-25
4.69476E-01 1.47154E-25
4.73832E-01 1.42638E-25
4.78190E-01 1.38271E-25
4.82550E-01 1.34048E-25
4.86912E-01 1.29964E-25
4.91274E-01 1.26015E-25
4.95637E-01 1.22195E-25
5.00000E-01 1.18499E-25
5.04363E-01 1.14924E-25
5.08726E-01 1.11465E-25
5.13088E-01 1.08118E-25
5.17450E-01 1.04880E-25
5.21810E-01 1.01745E-25
5.26168E-01 9.87113E-26
5.30524E-01 9.57746E-26
5.34878E-01 9.29318E-26
5.39230E-01 9.01795E-26
5.43578E-01 8.75146E-26
5.47923E-01 8.49342E-26
5.52264E-01 8.24353E-26
5.56602E-01 8.00151E-26
5.60935E-01 7.76709E-26
5.65263E-01 7.54002E-26
5.69587E-01 7.32005E-26
5.73905E-01 7.10693E-26
5.78217E-01 6.90043E-26
5.82524E-01 6.70034E-26
5.86824E-01 6.50643E-26
5.91118E-01 6.31849E-26
5.95404E-01 6.13634E-26
5.99684E-01 5.95977E-26
6.03956E-01 5.78859E-26
6.08220E-01 5.62264E-26
6.12476E-01 5.46173E-26
6.16723E-01 5.30570E-26
6.20961E-01 5.15439E-26
6.25190E-01 5.00765E-26
6.29410E-01 4.86531E-26
6.33619E-01 4.72725E-26
6.37819E-01 4.59331E-26
6.42008E-01 4.46337E-26
6.46186E-01 4.33729E-26
6.50353E-01 4.21495E-26
6.54508E-01 4.09622E-26
6.58652E-01 3.98100E-26
6.62784E-01 3.86917E-26
6.66903E-01 3.76061E-26
6.71010E-01 3.65523E-26
6.75104E-01 3.55292E-26
6.79184E-01 3.45358E-26
6.83251E-01 3.35712E-26
6.87303E-01 3.26345E-26
6.91342E-01 3.17248E-26
6.95366E-01 3.08412E-26
6.99375E-01 2.99829E-26
7.03368E-01 2.91492E-26
7.07347E-01 2.83391E-26
7.11309E-01 2.75521E-26
7.15256E-01 2.67873E-26
7.19186E-01 2.60441E-26
7.23099E-01 2.53218E-26
7.26995E-01 2.46198E-26
7.30874E-01 2.39374E-26
7.34736E-01 2.32740E-26
7.38579E-01 2.26291E-26
7.42405E-01 2.20020E-26
7.46212E-01 2.13923E-26
7.50000E-01 2.07993E-26
7.53769E-01 2.02226E-26
7.57519E-01 1.96617E-26
7.61249E-01 1.91161E-26
7.64960E-01 1.85853E-26
7.68650E-01 1.80689E-26
7.72320E-01 1.75665E-26
7.75968E-01 1.70776E-26
7.79596E-01 1.66019E-26
7.83203E-01 1.61389E-26
7.86788E-01 1.56882E-26
7.90351E-01 1.52496E-26
7.93893E-01 1.48226E-26
7.97411E-01 1.44069E-26
8.00908E-01 1.40021E-26
8.04381E-01 1.36080E-26
8.07831E-01 1.32243E-26
8.11257E-01 1.28505E-26
8.14660E-01 1.24866E-26
8.18039E-01 1.21320E-26
8.21394E-01 1.17867E-26
8.24724E-01 1.14503E-26
8.28030E-01 1.11226E-26
8.31310E-01 1.08033E-26
8.34565E-01 1.04922E-26
8.37795E-01 1.01890E-26
8.40999E-01 9.89363E-27
8.44177E-01 9.60574E-27
8.47329E-01 9.32516E-27
8.50455E-01 9.05169E-27
8.53553E-01 8.78513E-27
8.56625E-01 8.52529E-27
8.59670E-01 8.27200E-27
8.62687E-01 8.02507E-27
8.65677E-01 7.78433E-27
8.68639E-01 7.54962E-27
8.71572E-01 7.32078E-27
8.74478E-01 7.09765E-27
8.77355E-01 6.88008E-27
8.80203E-01 6.66792E-27
8.83022E-01 6.46104E-27
8.85812E-01 6.25929E-27
8.88573E-01 6.06255E-27
8.91304E-01 5.87069E-27
8.94005E-01 5.68359E-27
8.96677E-01 5.50112E-27
8.99318E-01 5.32318E-27
9.01928E-01 5.14964E-27
9.04508E-01 4.98040E-27
9.07058E-01 4.81536E-27
9.09576E-01 4.65441E-27
9.12063E-01 4.49746E-27
9.14519E-01 4.34441E-27
9.16943E-01 4.19518E-27
9.19335E-01 4.04966E-27
9.21696E-01 3.90778E-27
9.24024E-01 3.76946E-27
9.26320E-01 3.63460E-27
9.28584E-01 3.50315E-27
9.30815E-01 3.37501E-27
9.33013E-01 3.25012E-27
9.35178E-01 3.12841E-27
9.37310E-01 3.00981E-27
9.39409E-01 2.89425E-27
9.41474E-01 2.78168E-27
9.43505E-01 2.67202E-27
9.45503E-01 2.56523E-27
9.47467E-01 2.46124E-27
9.49397E-01 2.35999E-27
9.51293E-01 2.26144E-27
9.53154E-01 2.16554E-27
9.54981E-01 2.07223E-27
9.56773E-01 1.98146E-27
9.58530E-01 1.89319E-27
9.60252E-01 1.80738E-27
9.61940E-01 1.72398E-27
9.63592E-01 1.64294E-27
9.65209E-01 1.56424E-27
9.66790E-01 1.48783E-27
9.68336E-01 1.41366E-27
9.69846E-01 1.34172E-27
9.71321E-01 1.27196E-27
9.72759E-01 1.20434E-27
9.74162E-01 1.13884E-27
9.75528E-01 1.07543E-27
9.76858E-01 1.01407E-27
9.78152E-01 9.54743E-28
9.79410E-01 8.97411E-28
9.80631E-01 8.42053E-28
9.81815E-01 7.88641E-28
9.82963E-01 7.37153E-28
9.84074E-01 6.87565E-28
9.85148E-01 6.39854E-28
9.86185E-01 5.93999E-28
9.87185E-01 5.49979E-28
9.88148E-01 5.07776E-28
9.89074E-01 4.67370E-28
9.89962E-01 4.28744E-28
9.90814E-01 3.91880E-28
9.91627E-01 3.56764E-28
9.92404E-01 3.23378E-28
9.93143E-01 2.91710E-28
9.93844E-01 2.61746E-28
9.94508E-01 2.33472E-28
9.95134E-01 2.06876E-28
9.95722E-01 1.81948E-28
9.96273E-01 1.58677E-28
9.96786E-01 1.37053E-28
9.97261E-01 1.17066E-28
9.97698E-01 9.87095E-29
9.98097E-01 8.19742E-29
9.98459E-01 6.68537E-29
9.98782E-01 5.33416E-29
9.99067E-01 4.14323E-29
9.99315E-01 3.11209E-29
9.99524E-01 2.24031E-29
9.99695E-01 1.52752E-29
9.99829E-01 9.73439E-30
9.99924E-01 5.77829E-30
9.99981E-01 3.40529E-30
1.00000E+00 2.61439E-30
