 #
 # Subroutine ELSEPA. Elastic scattering of electrons and positrons
 #                    by neutral atoms and positive ions
 #
 # Projectile: electron
 # Kinetic energy = 1.50000E+06 eV = 5.51240E+04 a.u.
 #
 # WARNING: High-energy factorization with free-atom DF screening.
 #          Absorption, polarization and exchange corrections are
 #          switched off.
 #          Phase shifts are calculated for the bare nucleus.
 #          Scattering amplitudes are not evaluated.
 #
 # Element: Er,  Z =  68,  atomic weight = 1.67260E+02 g/mol
 #
 # Nuclear model: Fermi distribution
 #                Average radius = 5.89542E-13 cm
 #                Skin thickness = 5.46000E-14 cm
 #
 # Number of electrons = 68
 #
 # Total elastic cross section = 7.56895E-18 cm**2 = 2.70292E-01 a0**2
 # 1st transport cross section = 1.78794E-21 cm**2 = 6.38487E-05 a0**2
 # 2nd transport cross section = 4.76085E-21 cm**2 = 1.70013E-04 a0**2
 #
 #
 # Differential cross section:                       MU=(1-COS(THETA))/2
 #
 #  THETA        MU          DCS          DCS        Sherman      error
 #  (deg)                 (cm**2/sr)   (a0**2/sr)    function
 #----------------------------------------------------------------------
0.00000E+00 2.92216E-13
7.61557E-13 2.92216E-13
1.18994E-12 2.92216E-13
1.71346E-12 2.92215E-13
2.33225E-12 2.92215E-13
3.04617E-12 2.92215E-13
3.85530E-12 2.92214E-13
4.75964E-12 2.92213E-13
5.75917E-12 2.92213E-13
6.85391E-12 2.92212E-13
8.04379E-12 2.92211E-13
9.32893E-12 2.92211E-13
1.07092E-11 2.92210E-13
1.21847E-11 2.92209E-13
1.37554E-11 2.92208E-13
1.54213E-11 2.92207E-13
1.71823E-11 2.92206E-13
1.90386E-11 2.92204E-13
2.09900E-11 2.92203E-13
2.30367E-11 2.92202E-13
2.51785E-11 2.92201E-13
2.74156E-11 2.92199E-13
2.97478E-11 2.92198E-13
3.21752E-11 2.92196E-13
3.46979E-11 2.92194E-13
3.73157E-11 2.92193E-13
4.00286E-11 2.92191E-13
4.28368E-11 2.92189E-13
4.57402E-11 2.92187E-13
4.87388E-11 2.92185E-13
5.18325E-11 2.92184E-13
5.50215E-11 2.92181E-13
5.83057E-11 2.92179E-13
6.16850E-11 2.92177E-13
6.51595E-11 2.92175E-13
6.87293E-11 2.92173E-13
7.23943E-11 2.92170E-13
7.61544E-11 2.92168E-13
1.18991E-10 2.92140E-13
1.71347E-10 2.92106E-13
2.33223E-10 2.92067E-13
3.04617E-10 2.92020E-13
3.85531E-10 2.91968E-13
4.75965E-10 2.91909E-13
5.75917E-10 2.91845E-13
6.85389E-10 2.91774E-13
8.04380E-10 2.91697E-13
9.32891E-10 2.91614E-13
1.07092E-09 2.91524E-13
1.21847E-09 2.91429E-13
1.37554E-09 2.91327E-13
1.54213E-09 2.91220E-13
1.71823E-09 2.91106E-13
1.90386E-09 2.90986E-13
2.09900E-09 2.90860E-13
2.30367E-09 2.90728E-13
2.51785E-09 2.90590E-13
2.74156E-09 2.90446E-13
2.97478E-09 2.90296E-13
3.21752E-09 2.90140E-13
3.46978E-09 2.89978E-13
3.73156E-09 2.89810E-13
4.00286E-09 2.89636E-13
4.28368E-09 2.89456E-13
4.57402E-09 2.89270E-13
4.87388E-09 2.89079E-13
5.18326E-09 2.88881E-13
5.50215E-09 2.88678E-13
5.83057E-09 2.88469E-13
6.16850E-09 2.88253E-13
6.51596E-09 2.88033E-13
6.87293E-09 2.87806E-13
7.23942E-09 2.87574E-13
7.61544E-09 2.87336E-13
1.18991E-08 2.84647E-13
1.71347E-08 2.81417E-13
2.33223E-08 2.77679E-13
3.04617E-08 2.73469E-13
3.85531E-08 2.68827E-13
4.75965E-08 2.63796E-13
5.75917E-08 2.58420E-13
6.85389E-08 2.52769E-13
8.04380E-08 2.46849E-13
9.32891E-08 2.40688E-13
1.07092E-07 2.34421E-13
1.21847E-07 2.28004E-13
1.37554E-07 2.21473E-13
1.54213E-07 2.14975E-13
1.71823E-07 2.08421E-13
1.90386E-07 2.01880E-13
2.09900E-07 1.95452E-13
2.30367E-07 1.89050E-13
2.51785E-07 1.82765E-13
2.74156E-07 1.76636E-13
2.97478E-07 1.70592E-13
3.21752E-07 1.64741E-13
3.46978E-07 1.59060E-13
3.73156E-07 1.53498E-13
4.00286E-07 1.48181E-13
4.28368E-07 1.43025E-13
4.57402E-07 1.38006E-13
4.87388E-07 1.33256E-13
5.18325E-07 1.28649E-13
5.50215E-07 1.24200E-13
5.83057E-07 1.19991E-13
6.16850E-07 1.15918E-13
6.51596E-07 1.12014E-13
6.87293E-07 1.08310E-13
7.23942E-07 1.04734E-13
7.61543E-07 1.01327E-13
1.18991E-06 7.44969E-14
1.71347E-06 5.70200E-14
2.33223E-06 4.49944E-14
3.04617E-06 3.62158E-14
3.85531E-06 2.95264E-14
4.75964E-06 2.42746E-14
5.75916E-06 2.00971E-14
6.85388E-06 1.65471E-14
8.04378E-06 1.38295E-14
9.32888E-06 1.17849E-14
1.07092E-05 9.92290E-15
1.21846E-05 8.45983E-15
1.37553E-05 7.30476E-15
1.54212E-05 6.26153E-15
1.71822E-05 5.43141E-15
1.90385E-05 4.74116E-15
2.09899E-05 4.13527E-15
2.30365E-05 3.63902E-15
2.51783E-05 3.21117E-15
2.74153E-05 2.83485E-15
2.97475E-05 2.52028E-15
3.21749E-05 2.24186E-15
3.46974E-05 1.99890E-15
3.73152E-05 1.79280E-15
4.00281E-05 1.60655E-15
4.28362E-05 1.44446E-15
4.57395E-05 1.30482E-15
4.87380E-05 1.17654E-15
5.18317E-05 1.06496E-15
5.50205E-05 9.66987E-16
5.83045E-05 8.77565E-16
6.16838E-05 7.99183E-16
6.51582E-05 7.29364E-16
6.87277E-05 6.66096E-16
7.23925E-05 6.10125E-16
7.61524E-05 5.59679E-16
9.21439E-05 4.02917E-16
1.09658E-04 2.97887E-16
1.28695E-04 2.25309E-16
1.49255E-04 1.74104E-16
1.71338E-04 1.36809E-16
1.94942E-04 1.09201E-16
2.20070E-04 8.83796E-17
2.46720E-04 7.23496E-17
2.74892E-04 5.98297E-17
3.04586E-04 4.98847E-17
3.35803E-04 4.19192E-17
3.68542E-04 3.54750E-17
4.02802E-04 3.02179E-17
4.38585E-04 2.59008E-17
4.75889E-04 2.23202E-17
5.14715E-04 1.93363E-17
5.55063E-04 1.68301E-17
5.96931E-04 1.47153E-17
6.40321E-04 1.29137E-17
6.85233E-04 1.13856E-17
7.31665E-04 1.00854E-17
7.79618E-04 8.95479E-18
8.29092E-04 7.98294E-18
8.80086E-04 7.14249E-18
9.32601E-04 6.40493E-18
9.86636E-04 5.76320E-18
1.04219E-03 5.20063E-18
1.09927E-03 4.70355E-18
1.15786E-03 4.26632E-18
1.21797E-03 3.87849E-18
1.27961E-03 3.53336E-18
1.34276E-03 3.22694E-18
1.40743E-03 2.95252E-18
1.47362E-03 2.70683E-18
1.54133E-03 2.48694E-18
1.61056E-03 2.28831E-18
1.68131E-03 2.10947E-18
1.75357E-03 1.94826E-18
1.82735E-03 1.80160E-18
1.90265E-03 1.66888E-18
1.97947E-03 1.54835E-18
2.05780E-03 1.43826E-18
2.13765E-03 1.33806E-18
2.21902E-03 1.24647E-18
2.30190E-03 1.16249E-18
2.38630E-03 1.08566E-18
2.47222E-03 1.01504E-18
2.55965E-03 9.50059E-19
2.64859E-03 8.90339E-19
2.73905E-03 8.35161E-19
2.83103E-03 7.84232E-19
2.92452E-03 7.37231E-19
3.01952E-03 6.93605E-19
3.11604E-03 6.53223E-19
3.21407E-03 6.15802E-19
3.31362E-03 5.80949E-19
3.41468E-03 5.48591E-19
3.51725E-03 5.18480E-19
3.62133E-03 4.90372E-19
3.72692E-03 4.64191E-19
3.83403E-03 4.39738E-19
3.94265E-03 4.16863E-19
4.05278E-03 3.95494E-19
4.16442E-03 3.75467E-19
4.27757E-03 3.56695E-19
4.39223E-03 3.39110E-19
4.50840E-03 3.22579E-19
4.62608E-03 3.07056E-19
4.74527E-03 2.92478E-19
4.86597E-03 2.78735E-19
4.98817E-03 2.65806E-19
5.11188E-03 2.53633E-19
5.23711E-03 2.42135E-19
5.36383E-03 2.31297E-19
5.49207E-03 2.21064E-19
5.62181E-03 2.11386E-19
5.75306E-03 2.02244E-19
5.88581E-03 1.93593E-19
6.02007E-03 1.85399E-19
6.15583E-03 1.77644E-19
6.29310E-03 1.70289E-19
6.43187E-03 1.63313E-19
6.57214E-03 1.56700E-19
6.71392E-03 1.50414E-19
6.85720E-03 1.44445E-19
7.00198E-03 1.38777E-19
7.14827E-03 1.33379E-19
7.29605E-03 1.28248E-19
7.44534E-03 1.23365E-19
7.59612E-03 1.18710E-19
7.97965E-03 1.08013E-19
8.37255E-03 9.85067E-20
8.77480E-03 9.00347E-20
9.18641E-03 8.24636E-20
9.60736E-03 7.56808E-20
1.00376E-02 6.95899E-20
1.04773E-02 6.41076E-20
1.09262E-02 5.91621E-20
1.13844E-02 5.46911E-20
1.18520E-02 5.06408E-20
1.23288E-02 4.69642E-20
1.28150E-02 4.36206E-20
1.33104E-02 4.05738E-20
1.38150E-02 3.77930E-20
1.43290E-02 3.52505E-20
1.48521E-02 3.29221E-20
1.53845E-02 3.07864E-20
1.59262E-02 2.88244E-20
1.64770E-02 2.70192E-20
1.70371E-02 2.53560E-20
1.76063E-02 2.38213E-20
1.81848E-02 2.24035E-20
1.87724E-02 2.10918E-20
1.93692E-02 1.98768E-20
1.99751E-02 1.87500E-20
2.05901E-02 1.77038E-20
2.12143E-02 1.67313E-20
2.18476E-02 1.58262E-20
2.24900E-02 1.49829E-20
2.31415E-02 1.41965E-20
2.38021E-02 1.34622E-20
2.44717E-02 1.27760E-20
2.51504E-02 1.21342E-20
2.58382E-02 1.15332E-20
2.65349E-02 1.09699E-20
2.72407E-02 1.04416E-20
2.79555E-02 9.94555E-21
2.86793E-02 9.47942E-21
2.94120E-02 9.04105E-21
3.01537E-02 8.62848E-21
3.09043E-02 8.23986E-21
3.16639E-02 7.87351E-21
3.24324E-02 7.52792E-21
3.32098E-02 7.20166E-21
3.39961E-02 6.89340E-21
3.47912E-02 6.60199E-21
3.55952E-02 6.32629E-21
3.64081E-02 6.06529E-21
3.72297E-02 5.81804E-21
3.80602E-02 5.58368E-21
3.88995E-02 5.36139E-21
3.97476E-02 5.15041E-21
4.06044E-02 4.95005E-21
4.14700E-02 4.75967E-21
4.23443E-02 4.57867E-21
4.32273E-02 4.40648E-21
4.41190E-02 4.24260E-21
4.50194E-02 4.08653E-21
4.59284E-02 3.93782E-21
4.68461E-02 3.79606E-21
4.87074E-02 3.53182E-21
5.06030E-02 3.29097E-21
5.25328E-02 3.07102E-21
5.44967E-02 2.86979E-21
5.64946E-02 2.68537E-21
5.85262E-02 2.51607E-21
6.05914E-02 2.36040E-21
6.26901E-02 2.21702E-21
6.48222E-02 2.08478E-21
6.69873E-02 1.96264E-21
6.91854E-02 1.84965E-21
7.14163E-02 1.74499E-21
7.36799E-02 1.64792E-21
7.59760E-02 1.55777E-21
7.83043E-02 1.47395E-21
8.06647E-02 1.39591E-21
8.30571E-02 1.32318E-21
8.54812E-02 1.25531E-21
8.79369E-02 1.19191E-21
9.04240E-02 1.13263E-21
9.29422E-02 1.07713E-21
9.54915E-02 1.02513E-21
9.80716E-02 9.76365E-22
1.00682E-01 9.30574E-22
1.03323E-01 8.87548E-22
1.05995E-01 8.47081E-22
1.08696E-01 8.08985E-22
1.11427E-01 7.73093E-22
1.14188E-01 7.39252E-22
1.16978E-01 7.07313E-22
1.19797E-01 6.77150E-22
1.22645E-01 6.48642E-22
1.25522E-01 6.21676E-22
1.28428E-01 5.96151E-22
1.31361E-01 5.71975E-22
1.34323E-01 5.49057E-22
1.37313E-01 5.27320E-22
1.40330E-01 5.06689E-22
1.43375E-01 4.87093E-22
1.46447E-01 4.68470E-22
1.49545E-01 4.50762E-22
1.52671E-01 4.33912E-22
1.55823E-01 4.17869E-22
1.59001E-01 4.02587E-22
1.62205E-01 3.88021E-22
1.65435E-01 3.74129E-22
1.68690E-01 3.60874E-22
1.71970E-01 3.48220E-22
1.75276E-01 3.36133E-22
1.78606E-01 3.24582E-22
1.81961E-01 3.13537E-22
1.85340E-01 3.02972E-22
1.88743E-01 2.92861E-22
1.92169E-01 2.83180E-22
1.95619E-01 2.73906E-22
1.99092E-01 2.65019E-22
2.02589E-01 2.56498E-22
2.06107E-01 2.48325E-22
2.09649E-01 2.40482E-22
2.13212E-01 2.32954E-22
2.16797E-01 2.25724E-22
2.20404E-01 2.18778E-22
2.24032E-01 2.12102E-22
2.27680E-01 2.05684E-22
2.31350E-01 1.99510E-22
2.35040E-01 1.93570E-22
2.38751E-01 1.87853E-22
2.42481E-01 1.82348E-22
2.46231E-01 1.77046E-22
2.50000E-01 1.71938E-22
2.53788E-01 1.67014E-22
2.57595E-01 1.62266E-22
2.61421E-01 1.57688E-22
2.65264E-01 1.53271E-22
2.69126E-01 1.49008E-22
2.73005E-01 1.44892E-22
2.76901E-01 1.40919E-22
2.80814E-01 1.37080E-22
2.84744E-01 1.33372E-22
2.88691E-01 1.29787E-22
2.92653E-01 1.26322E-22
2.96632E-01 1.22971E-22
3.00625E-01 1.19730E-22
3.04634E-01 1.16594E-22
3.08658E-01 1.13559E-22
3.12697E-01 1.10621E-22
3.16749E-01 1.07777E-22
3.20816E-01 1.05021E-22
3.24896E-01 1.02352E-22
3.28990E-01 9.97661E-23
3.33097E-01 9.72595E-23
3.37216E-01 9.48295E-23
3.41348E-01 9.24732E-23
3.45492E-01 9.01879E-23
3.49647E-01 8.79710E-23
3.53814E-01 8.58198E-23
3.57992E-01 8.37321E-23
3.62181E-01 8.17055E-23
3.66381E-01 7.97379E-23
3.70590E-01 7.78270E-23
3.74810E-01 7.59710E-23
3.79039E-01 7.41678E-23
3.83277E-01 7.24157E-23
3.87524E-01 7.07129E-23
3.91780E-01 6.90575E-23
3.96044E-01 6.74481E-23
4.00316E-01 6.58831E-23
4.04596E-01 6.43609E-23
4.08882E-01 6.28801E-23
4.13176E-01 6.14394E-23
4.17476E-01 6.00375E-23
4.21783E-01 5.86729E-23
4.26095E-01 5.73446E-23
4.30413E-01 5.60514E-23
4.34737E-01 5.47920E-23
4.39065E-01 5.35655E-23
4.43398E-01 5.23707E-23
4.47736E-01 5.12068E-23
4.52077E-01 5.00726E-23
4.56422E-01 4.89674E-23
4.60770E-01 4.78901E-23
4.65122E-01 4.68399E-23
4.69476E-01 4.58160E-23
4.73832E-01 4.48176E-23
4.78190E-01 4.38439E-23
4.82550E-01 4.28941E-23
4.86912E-01 4.19676E-23
4.91274E-01 4.10637E-23
4.95637E-01 4.01816E-23
5.00000E-01 3.93208E-23
5.04363E-01 3.84807E-23
5.08726E-01 3.76605E-23
5.13088E-01 3.68598E-23
5.17450E-01 3.60780E-23
5.21810E-01 3.53146E-23
5.26168E-01 3.45690E-23
5.30524E-01 3.38407E-23
5.34878E-01 3.31293E-23
5.39230E-01 3.24342E-23
5.43578E-01 3.17551E-23
5.47923E-01 3.10914E-23
5.52264E-01 3.04428E-23
5.56602E-01 2.98088E-23
5.60935E-01 2.91891E-23
5.65263E-01 2.85833E-23
5.69587E-01 2.79910E-23
5.73905E-01 2.74118E-23
5.78217E-01 2.68453E-23
5.82524E-01 2.62914E-23
5.86824E-01 2.57495E-23
5.91118E-01 2.52195E-23
5.95404E-01 2.47009E-23
5.99684E-01 2.41936E-23
6.03956E-01 2.36972E-23
6.08220E-01 2.32114E-23
6.12476E-01 2.27359E-23
6.16723E-01 2.22706E-23
6.20961E-01 2.18152E-23
6.25190E-01 2.13693E-23
6.29410E-01 2.09328E-23
6.33619E-01 2.05054E-23
6.37819E-01 2.00870E-23
6.42008E-01 1.96773E-23
6.46186E-01 1.92760E-23
6.50353E-01 1.88830E-23
6.54508E-01 1.84981E-23
6.58652E-01 1.81211E-23
6.62784E-01 1.77517E-23
6.66903E-01 1.73899E-23
6.71010E-01 1.70354E-23
6.75104E-01 1.66881E-23
6.79184E-01 1.63478E-23
6.83251E-01 1.60143E-23
6.87303E-01 1.56875E-23
6.91342E-01 1.53673E-23
6.95366E-01 1.50534E-23
6.99375E-01 1.47457E-23
7.03368E-01 1.44441E-23
7.07347E-01 1.41485E-23
7.11309E-01 1.38587E-23
7.15256E-01 1.35746E-23
7.19186E-01 1.32961E-23
7.23099E-01 1.30230E-23
7.26995E-01 1.27552E-23
7.30874E-01 1.24926E-23
7.34736E-01 1.22352E-23
7.38579E-01 1.19827E-23
7.42405E-01 1.17351E-23
7.46212E-01 1.14922E-23
7.50000E-01 1.12540E-23
7.53769E-01 1.10205E-23
7.57519E-01 1.07913E-23
7.61249E-01 1.05666E-23
7.64960E-01 1.03462E-23
7.68650E-01 1.01299E-23
7.72320E-01 9.91784E-24
7.75968E-01 9.70976E-24
7.79596E-01 9.50564E-24
7.83203E-01 9.30539E-24
7.86788E-01 9.10894E-24
7.90351E-01 8.91621E-24
7.93893E-01 8.72712E-24
7.97411E-01 8.54161E-24
8.00908E-01 8.35960E-24
8.04381E-01 8.18103E-24
8.07831E-01 8.00582E-24
8.11257E-01 7.83392E-24
8.14660E-01 7.66527E-24
8.18039E-01 7.49979E-24
8.21394E-01 7.33743E-24
8.24724E-01 7.17813E-24
8.28030E-01 7.02184E-24
8.31310E-01 6.86849E-24
8.34565E-01 6.71803E-24
8.37795E-01 6.57042E-24
8.40999E-01 6.42559E-24
8.44177E-01 6.28351E-24
8.47329E-01 6.14411E-24
8.50455E-01 6.00735E-24
8.53553E-01 5.87318E-24
8.56625E-01 5.74157E-24
8.59670E-01 5.61245E-24
8.62687E-01 5.48580E-24
8.65677E-01 5.36156E-24
8.68639E-01 5.23970E-24
8.71572E-01 5.12018E-24
8.74478E-01 5.00295E-24
8.77355E-01 4.88799E-24
8.80203E-01 4.77524E-24
8.83022E-01 4.66467E-24
8.85812E-01 4.55626E-24
8.88573E-01 4.44996E-24
8.91304E-01 4.34573E-24
8.94005E-01 4.24356E-24
8.96677E-01 4.14340E-24
8.99318E-01 4.04522E-24
9.01928E-01 3.94899E-24
9.04508E-01 3.85468E-24
9.07058E-01 3.76227E-24
9.09576E-01 3.67172E-24
9.12063E-01 3.58301E-24
9.14519E-01 3.49611E-24
9.16943E-01 3.41098E-24
9.19335E-01 3.32762E-24
9.21696E-01 3.24599E-24
9.24024E-01 3.16606E-24
9.26320E-01 3.08782E-24
9.28584E-01 3.01123E-24
9.30815E-01 2.93628E-24
9.33013E-01 2.86295E-24
9.35178E-01 2.79121E-24
9.37310E-01 2.72104E-24
9.39409E-01 2.65242E-24
9.41474E-01 2.58534E-24
9.43505E-01 2.51976E-24
9.45503E-01 2.45568E-24
9.47467E-01 2.39307E-24
9.49397E-01 2.33192E-24
9.51293E-01 2.27221E-24
9.53154E-01 2.21392E-24
9.54981E-01 2.15703E-24
9.56773E-01 2.10153E-24
9.58530E-01 2.04741E-24
9.60252E-01 1.99464E-24
9.61940E-01 1.94322E-24
9.63592E-01 1.89312E-24
9.65209E-01 1.84434E-24
9.66790E-01 1.79686E-24
9.68336E-01 1.75067E-24
9.69846E-01 1.70575E-24
9.71321E-01 1.66210E-24
9.72759E-01 1.61969E-24
9.74162E-01 1.57853E-24
9.75528E-01 1.53859E-24
9.76858E-01 1.49987E-24
9.78152E-01 1.46235E-24
9.79410E-01 1.42603E-24
9.80631E-01 1.39090E-24
9.81815E-01 1.35694E-24
9.82963E-01 1.32415E-24
9.84074E-01 1.29252E-24
9.85148E-01 1.26204E-24
9.86185E-01 1.23270E-24
9.87185E-01 1.20449E-24
9.88148E-01 1.17741E-24
9.89074E-01 1.15145E-24
9.89962E-01 1.12660E-24
9.90814E-01 1.10285E-24
9.91627E-01 1.08021E-24
9.92404E-01 1.05865E-24
9.93143E-01 1.03819E-24
9.93844E-01 1.01880E-24
9.94508E-01 1.00050E-24
9.95134E-01 9.83259E-25
9.95722E-01 9.67091E-25
9.96273E-01 9.51985E-25
9.96786E-01 9.37939E-25
9.97261E-01 9.24947E-25
9.97698E-01 9.13008E-25
9.98097E-01 9.02117E-25
9.98459E-01 8.92272E-25
9.98782E-01 8.83470E-25
9.99067E-01 8.75709E-25
9.99315E-01 8.68988E-25
9.99524E-01 8.63303E-25
9.99695E-01 8.58654E-25
9.99829E-01 8.55039E-25
9.99924E-01 8.52457E-25
9.99981E-01 8.50909E-25
1.00000E+00 8.50393E-25
