 #
 # Subroutine ELSEPA. Elastic scattering of electrons and positrons
 #                    by neutral atoms and positive ions
 #
 # Projectile: electron
 # Kinetic energy = 3.00000E+08 eV = 1.10248E+07 a.u.
 #
 # WARNING: High-energy factorization with free-atom DF screening.
 #          Absorption, polarization and exchange corrections are
 #          switched off.
 #          Phase shifts are calculated for the bare nucleus.
 #          Scattering amplitudes are not evaluated.
 #
 # Element: Er,  Z =  68,  atomic weight = 1.67260E+02 g/mol
 #
 # Nuclear model: Fermi distribution
 #                Average radius = 5.89542E-13 cm
 #                Skin thickness = 5.46000E-14 cm
 #
 # Number of electrons = 68
 #
 # Total elastic cross section = 7.05470E-18 cm**2 = 2.51928E-01 a0**2
 # 1st transport cross section = 9.82351E-26 cm**2 = 3.50804E-09 a0**2
 # 2nd transport cross section = 2.94402E-25 cm**2 = 1.05133E-08 a0**2
 #
 #
 # Differential cross section:                       MU=(1-COS(THETA))/2
 #
 #  THETA        MU          DCS          DCS        Sherman      error
 #  (deg)                 (cm**2/sr)   (a0**2/sr)    function
 #----------------------------------------------------------------------
0.00000E+00 6.52531E-09
7.61557E-13 6.26928E-09
1.18994E-12 6.13269E-09
1.71346E-12 5.97253E-09
2.33225E-12 5.79227E-09
3.04617E-12 5.59632E-09
3.85530E-12 5.38662E-09
4.75964E-12 5.16921E-09
5.75917E-12 4.94481E-09
6.85391E-12 4.71999E-09
8.04379E-12 4.49424E-09
9.32893E-12 4.27269E-09
1.07092E-11 4.05547E-09
1.21847E-11 3.84526E-09
1.37554E-11 3.64316E-09
1.54213E-11 3.44934E-09
1.71823E-11 3.26600E-09
1.90386E-11 3.09108E-09
2.09900E-11 2.92779E-09
2.30367E-11 2.77270E-09
2.51785E-11 2.62874E-09
2.74156E-11 2.49295E-09
2.97478E-11 2.36673E-09
3.21752E-11 2.24854E-09
3.46979E-11 2.13838E-09
3.73157E-11 2.03573E-09
4.00286E-11 1.93975E-09
4.28368E-11 1.85054E-09
4.57402E-11 1.76686E-09
4.87388E-11 1.68909E-09
5.18325E-11 1.61605E-09
5.50215E-11 1.54786E-09
5.83057E-11 1.48381E-09
6.16850E-11 1.42373E-09
6.51595E-11 1.36722E-09
6.87293E-11 1.31404E-09
7.23943E-11 1.26384E-09
7.61544E-11 1.21652E-09
1.18991E-10 8.55987E-10
1.71347E-10 6.23907E-10
2.33223E-10 4.63587E-10
3.04617E-10 3.44821E-10
3.85531E-10 2.66343E-10
4.75965E-10 2.05296E-10
5.75917E-10 1.62767E-10
6.85389E-10 1.28889E-10
8.04380E-10 1.04294E-10
9.32891E-10 8.47649E-11
1.07092E-09 6.98033E-11
1.21847E-09 5.78638E-11
1.37554E-09 4.83245E-11
1.54213E-09 4.06715E-11
1.71823E-09 3.43590E-11
1.90386E-09 2.92724E-11
2.09900E-09 2.49786E-11
2.30367E-09 2.14881E-11
2.51785E-09 1.85204E-11
2.74156E-09 1.60676E-11
2.97478E-09 1.39846E-11
3.21752E-09 1.22328E-11
3.46978E-09 1.07429E-11
3.73156E-09 9.47243E-12
4.00286E-09 8.38779E-12
4.28368E-09 7.45217E-12
4.57402E-09 6.64915E-12
4.87388E-09 5.94943E-12
5.18326E-09 5.34425E-12
5.50215E-09 4.81379E-12
5.83057E-09 4.35086E-12
6.16850E-09 3.94373E-12
6.51596E-09 3.58371E-12
6.87293E-09 3.26394E-12
7.23942E-09 2.97978E-12
7.61544E-09 2.72719E-12
1.18991E-08 1.24489E-12
1.71347E-08 6.46502E-13
2.33223E-08 3.67212E-13
3.04617E-08 2.23242E-13
3.85531E-08 1.43333E-13
4.75965E-08 9.62339E-14
5.75917E-08 6.70206E-14
6.85389E-08 4.80950E-14
8.04380E-08 3.54183E-14
9.32891E-08 2.66593E-14
1.07092E-07 2.04481E-14
1.21847E-07 1.59474E-14
1.37554E-07 1.26179E-14
1.54213E-07 1.01134E-14
1.71823E-07 8.20059E-15
1.90386E-07 6.71799E-15
2.09900E-07 5.55565E-15
2.30367E-07 4.63377E-15
2.51785E-07 3.89495E-15
2.74156E-07 3.29757E-15
2.97478E-07 2.81020E-15
3.21752E-07 2.40950E-15
3.46978E-07 2.07770E-15
3.73156E-07 1.80097E-15
4.00286E-07 1.56880E-15
4.28368E-07 1.37285E-15
4.57402E-07 1.20651E-15
4.87388E-07 1.06463E-15
5.18325E-07 9.42990E-16
5.50215E-07 8.38232E-16
5.83057E-07 7.47632E-16
6.16850E-07 6.68942E-16
6.51596E-07 6.00342E-16
6.87293E-07 5.40319E-16
7.23942E-07 4.87612E-16
7.61543E-07 4.41182E-16
1.18991E-06 1.82465E-16
1.71347E-06 8.85878E-17
2.33223E-06 4.80501E-17
3.04617E-06 2.82673E-17
3.85531E-06 1.76951E-17
4.75964E-06 1.16342E-17
5.75916E-06 7.95947E-18
6.85388E-06 5.62744E-18
8.04378E-06 4.09015E-18
9.32888E-06 3.04369E-18
1.07092E-05 2.31147E-18
1.21846E-05 1.78676E-18
1.37553E-05 1.40284E-18
1.54212E-05 1.11672E-18
1.71822E-05 8.99966E-19
1.90385E-05 7.32986E-19
2.09899E-05 6.03612E-19
2.30365E-05 5.01493E-19
2.51783E-05 4.19984E-19
2.74153E-05 3.54302E-19
2.97475E-05 3.00935E-19
3.21749E-05 2.57247E-19
3.46974E-05 2.21228E-19
3.73152E-05 1.91324E-19
4.00281E-05 1.66327E-19
4.28362E-05 1.45291E-19
4.57395E-05 1.27479E-19
4.87380E-05 1.12310E-19
5.18317E-05 9.93254E-20
5.50205E-05 8.81598E-20
5.83045E-05 7.85189E-20
6.16838E-05 7.01616E-20
6.51582E-05 6.28900E-20
6.87277E-05 5.65392E-20
7.23925E-05 5.09722E-20
7.61524E-05 4.63597E-20
9.21439E-05 3.17240E-20
1.09658E-04 2.24395E-20
1.28695E-04 1.63218E-20
1.49255E-04 1.21556E-20
1.71338E-04 9.23991E-21
1.94942E-04 7.14916E-21
2.20070E-04 5.61839E-21
2.46720E-04 4.47669E-21
2.74892E-04 3.61104E-21
3.04586E-04 2.94488E-21
3.35803E-04 2.42548E-21
3.68542E-04 2.01568E-21
4.02802E-04 1.68883E-21
4.38585E-04 1.42555E-21
4.75889E-04 1.21154E-21
5.14715E-04 1.03613E-21
5.55063E-04 8.91261E-22
5.96931E-04 7.70753E-22
6.40321E-04 6.69852E-22
6.85233E-04 5.84849E-22
7.31665E-04 5.12830E-22
7.79618E-04 4.51486E-22
8.29092E-04 3.98974E-22
8.80086E-04 3.53810E-22
9.32601E-04 3.14797E-22
9.86636E-04 2.80956E-22
1.04219E-03 2.51488E-22
1.09927E-03 2.25732E-22
1.15786E-03 2.03142E-22
1.21797E-03 1.83265E-22
1.27961E-03 1.65718E-22
1.34276E-03 1.50184E-22
1.40743E-03 1.36391E-22
1.47362E-03 1.24113E-22
1.54133E-03 1.13155E-22
1.61056E-03 1.03351E-22
1.68131E-03 9.45589E-23
1.75357E-03 8.66570E-23
1.82735E-03 7.95399E-23
1.90265E-03 7.31168E-23
1.97947E-03 6.73085E-23
2.05780E-03 6.20466E-23
2.13765E-03 5.72710E-23
2.21902E-03 5.29294E-23
2.30190E-03 4.89758E-23
2.38630E-03 4.53698E-23
2.47222E-03 4.20759E-23
2.55965E-03 3.90627E-23
2.64859E-03 3.63022E-23
2.73905E-03 3.37700E-23
2.83103E-03 3.14441E-23
2.92452E-03 2.93049E-23
3.01952E-03 2.73352E-23
3.11604E-03 2.55193E-23
3.21407E-03 2.38433E-23
3.31362E-03 2.22948E-23
3.41468E-03 2.08626E-23
3.51725E-03 1.95365E-23
3.62133E-03 1.83075E-23
3.72692E-03 1.71675E-23
3.83403E-03 1.61089E-23
3.94265E-03 1.51251E-23
4.05278E-03 1.42100E-23
4.16442E-03 1.33581E-23
4.27757E-03 1.25643E-23
4.39223E-03 1.18243E-23
4.50840E-03 1.11337E-23
4.62608E-03 1.04888E-23
4.74527E-03 9.88611E-24
4.86597E-03 9.32254E-24
4.98817E-03 8.79516E-24
5.11188E-03 8.30133E-24
5.23711E-03 7.83862E-24
5.36383E-03 7.40480E-24
5.49207E-03 6.99782E-24
5.62181E-03 6.61581E-24
5.75306E-03 6.25702E-24
5.88581E-03 5.91987E-24
6.02007E-03 5.60287E-24
6.15583E-03 5.30468E-24
6.29310E-03 5.02402E-24
6.43187E-03 4.75975E-24
6.57214E-03 4.51079E-24
6.71392E-03 4.27614E-24
6.85720E-03 4.05489E-24
7.00198E-03 3.84617E-24
7.14827E-03 3.64919E-24
7.29605E-03 3.46322E-24
7.44534E-03 3.28756E-24
7.59612E-03 3.12160E-24
7.97965E-03 2.74525E-24
8.37255E-03 2.41761E-24
8.77480E-03 2.13178E-24
9.18641E-03 1.88193E-24
9.60736E-03 1.66314E-24
1.00376E-02 1.47122E-24
1.04773E-02 1.30261E-24
1.09262E-02 1.15425E-24
1.13844E-02 1.02354E-24
1.18520E-02 9.08237E-25
1.23288E-02 8.06399E-25
1.28150E-02 7.16359E-25
1.33104E-02 6.36671E-25
1.38150E-02 5.66082E-25
1.43290E-02 5.03499E-25
1.48521E-02 4.47973E-25
1.53845E-02 3.98674E-25
1.59262E-02 3.54876E-25
1.64770E-02 3.15943E-25
1.70371E-02 2.81318E-25
1.76063E-02 2.50511E-25
1.81848E-02 2.23090E-25
1.87724E-02 1.98675E-25
1.93692E-02 1.76931E-25
1.99751E-02 1.57561E-25
2.05901E-02 1.40303E-25
2.12143E-02 1.24925E-25
2.18476E-02 1.11221E-25
2.24900E-02 9.90079E-26
2.31415E-02 8.81243E-26
2.38021E-02 7.84256E-26
2.44717E-02 6.97838E-26
2.51504E-02 6.20846E-26
2.58382E-02 5.52264E-26
2.65349E-02 4.91186E-26
2.72407E-02 4.36804E-26
2.79555E-02 3.88396E-26
2.86793E-02 3.45320E-26
2.94120E-02 3.07002E-26
3.01537E-02 2.72927E-26
3.09043E-02 2.42638E-26
3.16639E-02 2.15724E-26
3.24324E-02 1.91821E-26
3.32098E-02 1.70600E-26
3.39961E-02 1.51769E-26
3.47912E-02 1.35067E-26
3.55952E-02 1.20260E-26
3.64081E-02 1.07139E-26
3.72297E-02 9.55178E-27
3.80602E-02 8.52289E-27
3.88995E-02 7.61238E-27
3.97476E-02 6.80694E-27
4.06044E-02 6.09469E-27
4.14700E-02 5.46505E-27
4.23443E-02 4.90857E-27
4.32273E-02 4.41682E-27
4.41190E-02 3.98231E-27
4.50194E-02 3.59836E-27
4.59284E-02 3.25903E-27
4.68461E-02 2.95903E-27
4.87074E-02 2.45882E-27
5.06030E-02 2.06623E-27
5.25328E-02 1.75654E-27
5.44967E-02 1.51046E-27
5.64946E-02 1.31301E-27
5.85262E-02 1.15263E-27
6.05914E-02 1.02045E-27
6.26901E-02 9.09719E-28
6.48222E-02 8.15350E-28
6.69873E-02 7.33532E-28
6.91854E-02 6.61448E-28
7.14163E-02 5.97037E-28
7.36799E-02 5.38808E-28
7.59760E-02 4.85695E-28
7.83043E-02 4.36947E-28
8.06647E-02 3.92037E-28
8.30571E-02 3.50594E-28
8.54812E-02 3.12359E-28
8.79369E-02 2.77140E-28
9.04240E-02 2.44791E-28
9.29422E-02 2.15187E-28
9.54915E-02 1.88214E-28
9.80716E-02 1.63761E-28
1.00682E-01 1.41713E-28
1.03323E-01 1.21948E-28
1.05995E-01 1.04338E-28
1.08696E-01 8.87488E-29
1.11427E-01 7.50407E-29
1.14188E-01 6.30707E-29
1.16978E-01 5.26945E-29
1.19797E-01 4.37681E-29
1.22645E-01 3.61502E-29
1.25522E-01 2.97035E-29
1.28428E-01 2.42965E-29
1.31361E-01 1.98043E-29
1.34323E-01 1.61100E-29
1.37313E-01 1.31048E-29
1.40330E-01 1.06892E-29
1.43375E-01 8.77239E-30
1.46447E-01 7.27292E-30
1.49545E-01 6.11813E-30
1.52671E-01 5.24401E-30
1.55823E-01 4.59476E-30
1.59001E-01 4.12229E-30
1.62205E-01 3.78564E-30
1.65435E-01 3.55040E-30
1.68690E-01 3.38809E-30
1.71970E-01 3.27552E-30
1.75276E-01 3.19418E-30
1.78606E-01 3.12965E-30
1.81961E-01 3.07101E-30
1.85340E-01 3.01037E-30
1.88743E-01 2.94229E-30
1.92169E-01 2.86343E-30
1.95619E-01 2.77207E-30
1.99092E-01 2.66782E-30
2.02589E-01 2.55124E-30
2.06107E-01 2.42366E-30
2.09649E-01 2.28685E-30
2.13212E-01 2.14292E-30
2.16797E-01 1.99411E-30
2.20404E-01 1.84268E-30
2.24032E-01 1.69082E-30
2.27680E-01 1.54054E-30
2.31350E-01 1.39370E-30
2.35040E-01 1.25188E-30
2.38751E-01 1.11643E-30
2.42481E-01 9.88427E-31
2.46231E-01 8.68695E-31
2.50000E-01 7.57816E-31
2.53788E-01 6.56141E-31
2.57595E-01 5.63818E-31
2.61421E-01 4.80807E-31
2.65264E-01 4.06916E-31
2.69126E-01 3.41818E-31
2.73005E-01 2.85080E-31
2.76901E-01 2.36187E-31
2.80814E-01 1.94564E-31
2.84744E-01 1.59594E-31
2.88691E-01 1.30640E-31
2.92653E-01 1.07060E-31
2.96632E-01 8.82190E-32
3.00625E-01 7.35006E-32
3.04634E-01 6.23183E-32
3.08658E-01 5.41207E-32
3.12697E-01 4.83972E-32
3.16749E-01 4.46817E-32
3.20816E-01 4.25546E-32
3.24896E-01 4.16432E-32
3.28990E-01 4.16217E-32
3.33097E-01 4.22094E-32
3.37216E-01 4.31692E-32
3.41348E-01 4.43042E-32
3.45492E-01 4.54555E-32
3.49647E-01 4.64980E-32
3.53814E-01 4.73375E-32
3.57992E-01 4.79068E-32
3.62181E-01 4.81625E-32
3.66381E-01 4.80810E-32
3.70590E-01 4.76557E-32
3.74810E-01 4.68939E-32
3.79039E-01 4.58137E-32
3.83277E-01 4.44415E-32
3.87524E-01 4.28100E-32
3.91780E-01 4.09557E-32
3.96044E-01 3.89176E-32
4.00316E-01 3.67354E-32
4.04596E-01 3.44482E-32
4.08882E-01 3.20938E-32
4.13176E-01 2.97078E-32
4.17476E-01 2.73228E-32
4.21783E-01 2.49681E-32
4.26095E-01 2.26698E-32
4.30413E-01 2.04498E-32
4.34737E-01 1.83268E-32
4.39065E-01 1.63156E-32
4.43398E-01 1.44277E-32
4.47736E-01 1.26712E-32
4.52077E-01 1.10513E-32
4.56422E-01 9.57046E-33
4.60770E-01 8.22872E-33
4.65122E-01 7.02400E-33
4.69476E-01 5.95244E-33
4.73832E-01 5.00867E-33
4.78190E-01 4.18613E-33
4.82550E-01 3.47732E-33
4.86912E-01 2.87409E-33
4.91274E-01 2.36782E-33
4.95637E-01 1.94966E-33
5.00000E-01 1.61072E-33
5.04363E-01 1.34218E-33
5.08726E-01 1.13548E-33
5.13088E-01 9.82386E-34
5.17450E-01 8.75104E-34
5.21810E-01 8.06330E-34
5.26168E-01 7.69306E-34
5.30524E-01 7.57850E-34
5.34878E-01 7.66374E-34
5.39230E-01 7.89886E-34
5.43578E-01 8.23982E-34
5.47923E-01 8.64834E-34
5.52264E-01 9.09161E-34
5.56602E-01 9.54201E-34
5.60935E-01 9.97676E-34
5.65263E-01 1.03776E-33
5.69587E-01 1.07302E-33
5.73905E-01 1.10241E-33
5.78217E-01 1.12519E-33
5.82524E-01 1.14093E-33
5.86824E-01 1.14941E-33
5.91118E-01 1.15066E-33
5.95404E-01 1.14485E-33
5.99684E-01 1.13232E-33
6.03956E-01 1.11351E-33
6.08220E-01 1.08895E-33
6.12476E-01 1.05922E-33
6.16723E-01 1.02494E-33
6.20961E-01 9.86775E-34
6.25190E-01 9.45364E-34
6.29410E-01 9.01355E-34
6.33619E-01 8.55370E-34
6.37819E-01 8.08001E-34
6.42008E-01 7.59805E-34
6.46186E-01 7.11296E-34
6.50353E-01 6.62943E-34
6.54508E-01 6.15167E-34
6.58652E-01 5.68339E-34
6.62784E-01 5.22782E-34
6.66903E-01 4.78768E-34
6.71010E-01 4.36527E-34
6.75104E-01 3.96241E-34
6.79184E-01 3.58051E-34
6.83251E-01 3.22060E-34
6.87303E-01 2.88334E-34
6.91342E-01 2.56908E-34
6.95366E-01 2.27788E-34
6.99375E-01 2.00953E-34
7.03368E-01 1.76364E-34
7.07347E-01 1.53958E-34
7.11309E-01 1.33659E-34
7.15256E-01 1.15379E-34
7.19186E-01 9.90180E-35
7.23099E-01 8.44695E-35
7.26995E-01 7.16210E-35
7.30874E-01 6.03570E-35
7.34736E-01 5.05604E-35
7.38579E-01 4.21140E-35
7.42405E-01 3.49022E-35
7.46212E-01 2.88120E-35
7.50000E-01 2.37340E-35
7.53769E-01 1.95629E-35
7.57519E-01 1.61988E-35
7.61249E-01 1.35468E-35
7.64960E-01 1.15185E-35
7.68650E-01 1.00308E-35
7.72320E-01 9.00735E-36
7.75968E-01 8.37766E-36
7.79596E-01 8.07745E-36
7.83203E-01 8.04852E-36
7.86788E-01 8.23835E-36
7.90351E-01 8.60010E-36
7.93893E-01 9.09224E-36
7.97411E-01 9.67821E-36
8.00908E-01 1.03262E-35
8.04381E-01 1.10088E-35
8.07831E-01 1.17026E-35
8.11257E-01 1.23880E-35
8.14660E-01 1.30487E-35
8.18039E-01 1.36714E-35
8.21394E-01 1.42459E-35
8.24724E-01 1.47640E-35
8.28030E-01 1.52200E-35
8.31310E-01 1.56100E-35
8.34565E-01 1.59318E-35
8.37795E-01 1.61845E-35
8.40999E-01 1.63685E-35
8.44177E-01 1.64852E-35
8.47329E-01 1.65370E-35
8.50455E-01 1.65266E-35
8.53553E-01 1.64575E-35
8.56625E-01 1.63336E-35
8.59670E-01 1.61588E-35
8.62687E-01 1.59377E-35
8.65677E-01 1.56744E-35
8.68639E-01 1.53736E-35
8.71572E-01 1.50395E-35
8.74478E-01 1.46764E-35
8.77355E-01 1.42884E-35
8.80203E-01 1.38795E-35
8.83022E-01 1.34536E-35
8.85812E-01 1.30142E-35
8.88573E-01 1.25647E-35
8.91304E-01 1.21080E-35
8.94005E-01 1.16471E-35
8.96677E-01 1.11846E-35
8.99318E-01 1.07229E-35
9.01928E-01 1.02641E-35
9.04508E-01 9.81003E-36
9.07058E-01 9.36247E-36
9.09576E-01 8.92282E-36
9.12063E-01 8.49240E-36
9.14519E-01 8.07225E-36
9.16943E-01 7.66331E-36
9.19335E-01 7.26631E-36
9.21696E-01 6.88185E-36
9.24024E-01 6.51038E-36
9.26320E-01 6.15225E-36
9.28584E-01 5.80768E-36
9.30815E-01 5.47675E-36
9.33013E-01 5.15955E-36
9.35178E-01 4.85600E-36
9.37310E-01 4.56601E-36
9.39409E-01 4.28937E-36
9.41474E-01 4.02584E-36
9.43505E-01 3.77518E-36
9.45503E-01 3.53705E-36
9.47467E-01 3.31111E-36
9.49397E-01 3.09699E-36
9.51293E-01 2.89431E-36
9.53154E-01 2.70265E-36
9.54981E-01 2.52161E-36
9.56773E-01 2.35075E-36
9.58530E-01 2.18967E-36
9.60252E-01 2.03793E-36
9.61940E-01 1.89512E-36
9.63592E-01 1.76084E-36
9.65209E-01 1.63465E-36
9.66790E-01 1.51616E-36
9.68336E-01 1.40501E-36
9.69846E-01 1.30079E-36
9.71321E-01 1.20313E-36
9.72759E-01 1.11169E-36
9.74162E-01 1.02614E-36
9.75528E-01 9.46140E-37
9.76858E-01 8.71377E-37
9.78152E-01 8.01540E-37
9.79410E-01 7.36345E-37
9.80631E-01 6.75549E-37
9.81815E-01 6.18854E-37
9.82963E-01 5.66045E-37
9.84074E-01 5.16864E-37
9.85148E-01 4.71102E-37
9.86185E-01 4.28538E-37
9.87185E-01 3.88997E-37
9.88148E-01 3.52277E-37
9.89074E-01 3.18204E-37
9.89962E-01 2.86636E-37
9.90814E-01 2.57388E-37
9.91627E-01 2.30338E-37
9.92404E-01 2.05342E-37
9.93143E-01 1.82288E-37
9.93844E-01 1.61046E-37
9.94508E-01 1.41499E-37
9.95134E-01 1.23574E-37
9.95722E-01 1.07165E-37
9.96273E-01 9.21918E-38
9.96786E-01 7.85633E-38
9.97261E-01 6.62127E-38
9.97698E-01 5.50861E-38
9.98097E-01 4.51124E-38
9.98459E-01 3.62431E-38
9.98782E-01 2.84305E-38
9.99067E-01 2.16359E-38
9.99315E-01 1.58190E-38
9.99524E-01 1.09449E-38
9.99695E-01 6.99728E-39
9.99829E-01 3.94686E-39
9.99924E-01 1.78020E-39
9.99981E-01 4.85793E-40
1.00000E+00 5.79676E-41
