 #
 # Subroutine ELSEPA. Elastic scattering of electrons and positrons
 #                    by neutral atoms and positive ions
 #
 # Projectile: electron
 # Kinetic energy = 1.75000E+08 eV = 6.43113E+06 a.u.
 #
 # WARNING: High-energy factorization with free-atom DF screening.
 #          Absorption, polarization and exchange corrections are
 #          switched off.
 #          Phase shifts are calculated for the bare nucleus.
 #          Scattering amplitudes are not evaluated.
 #
 # Element: Er,  Z =  68,  atomic weight = 1.67260E+02 g/mol
 #
 # Nuclear model: Fermi distribution
 #                Average radius = 5.89542E-13 cm
 #                Skin thickness = 5.46000E-14 cm
 #
 # Number of electrons = 68
 #
 # Total elastic cross section = 7.05713E-18 cm**2 = 2.52015E-01 a0**2
 # 1st transport cross section = 2.88920E-25 cm**2 = 1.03175E-08 a0**2
 # 2nd transport cross section = 8.64272E-25 cm**2 = 3.08637E-08 a0**2
 #
 #
 # Differential cross section:                       MU=(1-COS(THETA))/2
 #
 #  THETA        MU          DCS          DCS        Sherman      error
 #  (deg)                 (cm**2/sr)   (a0**2/sr)    function
 #----------------------------------------------------------------------
0.00000E+00 2.22582E-09
7.61557E-13 2.19534E-09
1.18994E-12 2.17852E-09
1.71346E-12 2.15826E-09
2.33225E-12 2.13472E-09
3.04617E-12 2.10810E-09
3.85530E-12 2.07861E-09
4.75964E-12 2.04647E-09
5.75917E-12 2.01193E-09
6.85391E-12 1.97523E-09
8.04379E-12 1.93675E-09
9.32893E-12 1.89662E-09
1.07092E-11 1.85491E-09
1.21847E-11 1.81210E-09
1.37554E-11 1.76862E-09
1.54213E-11 1.72422E-09
1.71823E-11 1.67933E-09
1.90386E-11 1.63461E-09
2.09900E-11 1.58955E-09
2.30367E-11 1.54445E-09
2.51785E-11 1.50024E-09
2.74156E-11 1.45616E-09
2.97478E-11 1.41235E-09
3.21752E-11 1.36996E-09
3.46979E-11 1.32806E-09
3.73157E-11 1.28671E-09
4.00286E-11 1.24693E-09
4.28368E-11 1.20797E-09
4.57402E-11 1.16976E-09
4.87388E-11 1.13309E-09
5.18325E-11 1.09750E-09
5.50215E-11 1.06274E-09
5.83057E-11 1.02941E-09
6.16850E-11 9.97306E-10
6.51595E-11 9.66064E-10
6.87293E-11 9.36088E-10
7.23943E-11 9.07385E-10
7.61544E-11 8.79532E-10
1.18991E-10 6.55281E-10
1.71347E-10 5.05241E-10
2.33223E-10 4.01405E-10
3.04617E-10 3.25951E-10
3.85531E-10 2.68596E-10
4.75965E-10 2.23517E-10
5.75917E-10 1.87252E-10
6.85389E-10 1.57744E-10
8.04380E-10 1.32498E-10
9.32891E-10 1.11999E-10
1.07092E-09 9.62523E-11
1.21847E-09 8.30427E-11
1.37554E-09 7.12835E-11
1.54213E-09 6.19600E-11
1.71823E-09 5.42117E-11
1.90386E-09 4.72179E-11
2.09900E-09 4.15241E-11
2.30367E-09 3.67805E-11
2.51785E-09 3.24338E-11
2.74156E-09 2.88181E-11
2.97478E-09 2.57855E-11
3.21752E-09 2.29683E-11
3.46978E-09 2.05808E-11
3.73156E-09 1.85463E-11
4.00286E-09 1.66714E-11
4.28368E-09 1.50417E-11
4.57402E-09 1.36347E-11
4.87388E-09 1.23472E-11
5.18326E-09 1.12057E-11
5.50215E-09 1.02092E-11
5.83057E-09 9.30284E-12
6.16850E-09 8.48714E-12
6.51596E-09 7.76833E-12
6.87293E-09 7.11739E-12
7.23942E-09 6.52525E-12
7.61544E-09 5.99907E-12
1.18991E-08 2.79354E-12
1.71347E-08 1.47789E-12
2.33223E-08 8.61740E-13
3.04617E-08 5.39588E-13
3.85531E-08 3.55395E-13
4.75965E-08 2.43224E-13
5.75917E-08 1.71855E-13
6.85389E-08 1.24708E-13
8.04380E-08 9.25309E-14
9.32891E-08 7.01555E-14
1.07092E-07 5.41510E-14
1.21847E-07 4.24326E-14
1.37554E-07 3.37313E-14
1.54213E-07 2.71567E-14
1.71823E-07 2.21124E-14
1.90386E-07 1.81896E-14
2.09900E-07 1.50965E-14
2.30367E-07 1.26357E-14
2.51785E-07 1.06578E-14
2.74156E-07 9.05298E-15
2.97478E-07 7.73952E-15
3.21752E-07 6.65497E-15
3.46978E-07 5.75419E-15
3.73156E-07 5.00096E-15
4.00286E-07 4.36711E-15
4.28368E-07 3.83056E-15
4.57402E-07 3.37353E-15
4.87388E-07 2.98268E-15
5.18325E-07 2.64681E-15
5.50215E-07 2.35688E-15
5.83057E-07 2.10555E-15
6.16850E-07 1.88665E-15
6.51596E-07 1.69546E-15
6.87293E-07 1.52787E-15
7.23942E-07 1.38046E-15
7.61543E-07 1.25038E-15
1.18991E-06 5.20910E-16
1.71347E-06 2.53920E-16
2.33223E-06 1.38120E-16
3.04617E-06 8.14477E-17
3.85531E-06 5.10914E-17
4.75964E-06 3.36528E-17
5.75916E-06 2.30601E-17
6.85388E-06 1.63263E-17
8.04378E-06 1.18804E-17
9.32888E-06 8.84993E-18
1.07092E-05 6.72687E-18
1.21846E-05 5.20385E-18
1.37553E-05 4.08842E-18
1.54212E-05 3.25643E-18
1.71822E-05 2.62568E-18
1.90385E-05 2.13945E-18
2.09899E-05 1.76251E-18
2.30365E-05 1.46483E-18
2.51783E-05 1.22712E-18
2.74153E-05 1.03549E-18
2.97475E-05 8.79724E-19
3.21749E-05 7.52173E-19
3.46974E-05 6.46980E-19
3.73152E-05 5.59623E-19
4.00281E-05 4.86581E-19
4.28362E-05 4.25104E-19
4.57395E-05 3.73036E-19
4.87380E-05 3.28685E-19
5.18317E-05 2.90715E-19
5.50205E-05 2.58060E-19
5.83045E-05 2.29860E-19
6.16838E-05 2.05412E-19
6.51582E-05 1.84136E-19
6.87277E-05 1.65553E-19
7.23925E-05 1.49262E-19
7.61524E-05 1.35261E-19
9.21439E-05 9.25321E-20
1.09658E-04 6.54319E-20
1.28695E-04 4.75803E-20
1.49255E-04 3.54267E-20
1.71338E-04 2.69243E-20
1.94942E-04 2.08296E-20
2.20070E-04 1.63689E-20
2.46720E-04 1.30430E-20
2.74892E-04 1.05220E-20
3.04586E-04 8.58298E-21
3.35803E-04 7.07160E-21
3.68542E-04 5.87945E-21
4.02802E-04 4.92879E-21
4.38585E-04 4.16316E-21
4.75889E-04 3.54091E-21
5.14715E-04 3.03094E-21
5.55063E-04 2.60976E-21
5.96931E-04 2.25942E-21
6.40321E-04 1.96606E-21
6.85233E-04 1.71890E-21
7.31665E-04 1.50946E-21
7.79618E-04 1.33103E-21
8.29092E-04 1.17823E-21
8.80086E-04 1.04675E-21
9.32601E-04 9.33132E-22
9.86636E-04 8.34530E-22
1.04219E-03 7.48621E-22
1.09927E-03 6.73491E-22
1.15786E-03 6.07554E-22
1.21797E-03 5.49489E-22
1.27961E-03 4.98193E-22
1.34276E-03 4.52739E-22
1.40743E-03 4.12345E-22
1.47362E-03 3.76349E-22
1.54133E-03 3.44187E-22
1.61056E-03 3.15379E-22
1.68131E-03 2.89513E-22
1.75357E-03 2.66236E-22
1.82735E-03 2.45242E-22
1.90265E-03 2.26267E-22
1.97947E-03 2.09082E-22
2.05780E-03 1.93489E-22
2.13765E-03 1.79313E-22
2.21902E-03 1.66403E-22
2.30190E-03 1.54625E-22
2.38630E-03 1.43862E-22
2.47222E-03 1.34011E-22
2.55965E-03 1.24981E-22
2.64859E-03 1.16691E-22
2.73905E-03 1.09069E-22
2.83103E-03 1.02052E-22
2.92452E-03 9.55834E-23
3.01952E-03 8.96124E-23
3.11604E-03 8.40939E-23
3.21407E-03 7.89873E-23
3.31362E-03 7.42564E-23
3.41468E-03 6.98687E-23
3.51725E-03 6.57946E-23
3.62133E-03 6.20078E-23
3.72692E-03 5.84843E-23
3.83403E-03 5.52026E-23
3.94265E-03 5.21431E-23
4.05278E-03 4.92881E-23
4.16442E-03 4.66213E-23
4.27757E-03 4.41283E-23
4.39223E-03 4.17956E-23
4.50840E-03 3.96111E-23
4.62608E-03 3.75637E-23
4.74527E-03 3.56433E-23
4.86597E-03 3.38406E-23
4.98817E-03 3.21471E-23
5.11188E-03 3.05550E-23
5.23711E-03 2.90571E-23
5.36383E-03 2.76470E-23
5.49207E-03 2.63185E-23
5.62181E-03 2.50662E-23
5.75306E-03 2.38848E-23
5.88581E-03 2.27697E-23
6.02007E-03 2.17164E-23
6.15583E-03 2.07211E-23
6.29310E-03 1.97798E-23
6.43187E-03 1.88892E-23
6.57214E-03 1.80461E-23
6.71392E-03 1.72475E-23
6.85720E-03 1.64907E-23
7.00198E-03 1.57731E-23
7.14827E-03 1.50922E-23
7.29605E-03 1.44460E-23
7.44534E-03 1.38324E-23
7.59612E-03 1.32494E-23
7.97965E-03 1.19144E-23
8.37255E-03 1.07353E-23
8.77480E-03 9.69097E-24
9.18641E-03 8.76377E-24
9.60736E-03 7.93859E-24
1.00376E-02 7.20252E-24
1.04773E-02 6.54452E-24
1.09262E-02 5.95512E-24
1.13844E-02 5.42612E-24
1.18520E-02 4.95045E-24
1.23288E-02 4.52199E-24
1.28150E-02 4.13538E-24
1.33104E-02 3.78598E-24
1.38150E-02 3.46973E-24
1.43290E-02 3.18305E-24
1.48521E-02 2.92282E-24
1.53845E-02 2.68627E-24
1.59262E-02 2.47098E-24
1.64770E-02 2.27480E-24
1.70371E-02 2.09582E-24
1.76063E-02 1.93234E-24
1.81848E-02 1.78286E-24
1.87724E-02 1.64605E-24
1.93692E-02 1.52070E-24
1.99751E-02 1.40575E-24
2.05901E-02 1.30024E-24
2.12143E-02 1.20331E-24
2.18476E-02 1.11418E-24
2.24900E-02 1.03217E-24
2.31415E-02 9.56640E-25
2.38021E-02 8.87038E-25
2.44717E-02 8.22850E-25
2.51504E-02 7.63614E-25
2.58382E-02 7.08914E-25
2.65349E-02 6.58371E-25
2.72407E-02 6.11642E-25
2.79555E-02 5.68414E-25
2.86793E-02 5.28404E-25
2.94120E-02 4.91353E-25
3.01537E-02 4.57025E-25
3.09043E-02 4.25204E-25
3.16639E-02 3.95695E-25
3.24324E-02 3.68318E-25
3.32098E-02 3.42908E-25
3.39961E-02 3.19315E-25
3.47912E-02 2.97400E-25
3.55952E-02 2.77038E-25
3.64081E-02 2.58111E-25
3.72297E-02 2.40513E-25
3.80602E-02 2.24146E-25
3.88995E-02 2.08919E-25
3.97476E-02 1.94749E-25
4.06044E-02 1.81559E-25
4.14700E-02 1.69278E-25
4.23443E-02 1.57841E-25
4.32273E-02 1.47189E-25
4.41190E-02 1.37264E-25
4.50194E-02 1.28016E-25
4.59284E-02 1.19397E-25
4.68461E-02 1.11363E-25
4.87074E-02 9.68894E-26
5.06030E-02 8.43036E-26
5.25328E-02 7.33545E-26
5.44967E-02 6.38261E-26
5.64946E-02 5.55319E-26
5.85262E-02 4.83108E-26
6.05914E-02 4.20233E-26
6.26901E-02 3.65486E-26
6.48222E-02 3.17818E-26
6.69873E-02 2.76319E-26
6.91854E-02 2.40196E-26
7.14163E-02 2.08762E-26
7.36799E-02 1.81415E-26
7.59760E-02 1.57632E-26
7.83043E-02 1.36957E-26
8.06647E-02 1.18993E-26
8.30571E-02 1.03390E-26
8.54812E-02 8.98474E-27
8.79369E-02 7.80981E-27
9.04240E-02 6.79111E-27
9.29422E-02 5.90839E-27
9.54915E-02 5.14397E-27
9.80716E-02 4.48240E-27
1.00682E-01 3.91018E-27
1.03323E-01 3.41553E-27
1.05995E-01 2.98817E-27
1.08696E-01 2.61911E-27
1.11427E-01 2.30052E-27
1.14188E-01 2.02559E-27
1.16978E-01 1.78836E-27
1.19797E-01 1.58367E-27
1.22645E-01 1.40702E-27
1.25522E-01 1.25449E-27
1.28428E-01 1.12272E-27
1.31361E-01 1.00874E-27
1.34323E-01 9.10029E-28
1.37313E-01 8.24384E-28
1.40330E-01 7.49910E-28
1.43375E-01 6.84974E-28
1.46447E-01 6.28173E-28
1.49545E-01 5.78300E-28
1.52671E-01 5.34325E-28
1.55823E-01 4.95366E-28
1.59001E-01 4.60670E-28
1.62205E-01 4.29598E-28
1.65435E-01 4.01609E-28
1.68690E-01 3.76244E-28
1.71970E-01 3.53116E-28
1.75276E-01 3.31901E-28
1.78606E-01 3.12326E-28
1.81961E-01 2.94166E-28
1.85340E-01 2.77229E-28
1.88743E-01 2.61362E-28
1.92169E-01 2.46433E-28
1.95619E-01 2.32338E-28
1.99092E-01 2.18990E-28
2.02589E-01 2.06316E-28
2.06107E-01 1.94261E-28
2.09649E-01 1.82775E-28
2.13212E-01 1.71823E-28
2.16797E-01 1.61372E-28
2.20404E-01 1.51397E-28
2.24032E-01 1.41876E-28
2.27680E-01 1.32794E-28
2.31350E-01 1.24134E-28
2.35040E-01 1.15884E-28
2.38751E-01 1.08032E-28
2.42481E-01 1.00567E-28
2.46231E-01 9.34804E-29
2.50000E-01 8.67616E-29
2.53788E-01 8.04012E-29
2.57595E-01 7.43896E-29
2.61421E-01 6.87171E-29
2.65264E-01 6.33737E-29
2.69126E-01 5.83493E-29
2.73005E-01 5.36335E-29
2.76901E-01 4.92154E-29
2.80814E-01 4.50843E-29
2.84744E-01 4.12290E-29
2.88691E-01 3.76381E-29
2.92653E-01 3.43002E-29
2.96632E-01 3.12039E-29
3.00625E-01 2.83377E-29
3.04634E-01 2.56901E-29
3.08658E-01 2.32496E-29
3.12697E-01 2.10051E-29
3.16749E-01 1.89453E-29
3.20816E-01 1.70595E-29
3.24896E-01 1.53369E-29
3.28990E-01 1.37672E-29
3.33097E-01 1.23403E-29
3.37216E-01 1.10464E-29
3.41348E-01 9.87630E-30
3.45492E-01 8.82084E-30
3.49647E-01 7.87143E-30
3.53814E-01 7.01981E-30
3.57992E-01 6.25816E-30
3.62181E-01 5.57903E-30
3.66381E-01 4.97538E-30
3.70590E-01 4.44057E-30
3.74810E-01 3.96836E-30
3.79039E-01 3.55289E-30
3.83277E-01 3.18870E-30
3.87524E-01 2.87067E-30
3.91780E-01 2.59407E-30
3.96044E-01 2.35450E-30
4.00316E-01 2.14790E-30
4.04596E-01 1.97053E-30
4.08882E-01 1.81897E-30
4.13176E-01 1.69005E-30
4.17476E-01 1.58093E-30
4.21783E-01 1.48900E-30
4.26095E-01 1.41189E-30
4.30413E-01 1.34748E-30
4.34737E-01 1.29385E-30
4.39065E-01 1.24930E-30
4.43398E-01 1.21230E-30
4.47736E-01 1.18150E-30
4.52077E-01 1.15571E-30
4.56422E-01 1.13388E-30
4.60770E-01 1.11510E-30
4.65122E-01 1.09860E-30
4.69476E-01 1.08370E-30
4.73832E-01 1.06982E-30
4.78190E-01 1.05648E-30
4.82550E-01 1.04330E-30
4.86912E-01 1.02995E-30
4.91274E-01 1.01616E-30
4.95637E-01 1.00175E-30
5.00000E-01 9.86553E-31
5.04363E-01 9.70478E-31
5.08726E-01 9.53457E-31
5.13088E-01 9.35459E-31
5.17450E-01 9.16482E-31
5.21810E-01 8.96545E-31
5.26168E-01 8.75691E-31
5.30524E-01 8.53976E-31
5.34878E-01 8.31470E-31
5.39230E-01 8.08253E-31
5.43578E-01 7.84413E-31
5.47923E-01 7.60041E-31
5.52264E-01 7.35232E-31
5.56602E-01 7.10083E-31
5.60935E-01 6.84691E-31
5.65263E-01 6.59151E-31
5.69587E-01 6.33554E-31
5.73905E-01 6.07989E-31
5.78217E-01 5.82542E-31
5.82524E-01 5.57292E-31
5.86824E-01 5.32314E-31
5.91118E-01 5.07678E-31
5.95404E-01 4.83446E-31
5.99684E-01 4.59677E-31
6.03956E-01 4.36424E-31
6.08220E-01 4.13731E-31
6.12476E-01 3.91639E-31
6.16723E-01 3.70184E-31
6.20961E-01 3.49394E-31
6.25190E-01 3.29294E-31
6.29410E-01 3.09903E-31
6.33619E-01 2.91236E-31
6.37819E-01 2.73302E-31
6.42008E-01 2.56107E-31
6.46186E-01 2.39654E-31
6.50353E-01 2.23941E-31
6.54508E-01 2.08964E-31
6.58652E-01 1.94716E-31
6.62784E-01 1.81185E-31
6.66903E-01 1.68359E-31
6.71010E-01 1.56224E-31
6.75104E-01 1.44763E-31
6.79184E-01 1.33959E-31
6.83251E-01 1.23791E-31
6.87303E-01 1.14240E-31
6.91342E-01 1.05283E-31
6.95366E-01 9.68997E-32
6.99375E-01 8.90662E-32
7.03368E-01 8.17599E-32
7.07347E-01 7.49575E-32
7.11309E-01 6.86357E-32
7.15256E-01 6.27715E-32
7.19186E-01 5.73416E-32
7.23099E-01 5.23235E-32
7.26995E-01 4.76946E-32
7.30874E-01 4.34330E-32
7.34736E-01 3.95174E-32
7.38579E-01 3.59268E-32
7.42405E-01 3.26410E-32
7.46212E-01 2.96406E-32
7.50000E-01 2.69065E-32
7.53769E-01 2.44207E-32
7.57519E-01 2.21658E-32
7.61249E-01 2.01251E-32
7.64960E-01 1.82829E-32
7.68650E-01 1.66239E-32
7.72320E-01 1.51338E-32
7.75968E-01 1.37991E-32
7.79596E-01 1.26070E-32
7.83203E-01 1.15452E-32
7.86788E-01 1.06026E-32
7.90351E-01 9.76824E-33
7.93893E-01 9.03230E-33
7.97411E-01 8.38538E-33
8.00908E-01 7.81878E-33
8.04381E-01 7.32440E-33
8.07831E-01 6.89473E-33
8.11257E-01 6.52282E-33
8.14660E-01 6.20225E-33
8.18039E-01 5.92713E-33
8.21394E-01 5.69201E-33
8.24724E-01 5.49194E-33
8.28030E-01 5.32237E-33
8.31310E-01 5.17917E-33
8.34565E-01 5.05860E-33
8.37795E-01 4.95726E-33
8.40999E-01 4.87208E-33
8.44177E-01 4.80033E-33
8.47329E-01 4.73954E-33
8.50455E-01 4.68753E-33
8.53553E-01 4.64236E-33
8.56625E-01 4.60232E-33
8.59670E-01 4.56590E-33
8.62687E-01 4.53182E-33
8.65677E-01 4.49893E-33
8.68639E-01 4.46629E-33
8.71572E-01 4.43308E-33
8.74478E-01 4.39861E-33
8.77355E-01 4.36233E-33
8.80203E-01 4.32378E-33
8.83022E-01 4.28263E-33
8.85812E-01 4.23859E-33
8.88573E-01 4.19149E-33
8.91304E-01 4.14121E-33
8.94005E-01 4.08769E-33
8.96677E-01 4.03092E-33
8.99318E-01 3.97094E-33
9.01928E-01 3.90784E-33
9.04508E-01 3.84172E-33
9.07058E-01 3.77273E-33
9.09576E-01 3.70103E-33
9.12063E-01 3.62679E-33
9.14519E-01 3.55022E-33
9.16943E-01 3.47152E-33
9.19335E-01 3.39091E-33
9.21696E-01 3.30861E-33
9.24024E-01 3.22483E-33
9.26320E-01 3.13979E-33
9.28584E-01 3.05373E-33
9.30815E-01 2.96684E-33
9.33013E-01 2.87936E-33
9.35178E-01 2.79147E-33
9.37310E-01 2.70339E-33
9.39409E-01 2.61529E-33
9.41474E-01 2.52737E-33
9.43505E-01 2.43979E-33
9.45503E-01 2.35272E-33
9.47467E-01 2.26632E-33
9.49397E-01 2.18072E-33
9.51293E-01 2.09607E-33
9.53154E-01 2.01248E-33
9.54981E-01 1.93007E-33
9.56773E-01 1.84895E-33
9.58530E-01 1.76922E-33
9.60252E-01 1.69095E-33
9.61940E-01 1.61423E-33
9.63592E-01 1.53913E-33
9.65209E-01 1.46571E-33
9.66790E-01 1.39402E-33
9.68336E-01 1.32411E-33
9.69846E-01 1.25601E-33
9.71321E-01 1.18977E-33
9.72759E-01 1.12540E-33
9.74162E-01 1.06292E-33
9.75528E-01 1.00236E-33
9.76858E-01 9.43721E-34
9.78152E-01 8.87006E-34
9.79410E-01 8.32219E-34
9.80631E-01 7.79358E-34
9.81815E-01 7.28416E-34
9.82963E-01 6.79385E-34
9.84074E-01 6.32251E-34
9.85148E-01 5.87001E-34
9.86185E-01 5.43617E-34
9.87185E-01 5.02083E-34
9.88148E-01 4.62377E-34
9.89074E-01 4.24478E-34
9.89962E-01 3.88366E-34
9.90814E-01 3.54015E-34
9.91627E-01 3.21403E-34
9.92404E-01 2.90506E-34
9.93143E-01 2.61301E-34
9.93844E-01 2.33762E-34
9.94508E-01 2.07865E-34
9.95134E-01 1.83590E-34
9.95722E-01 1.60912E-34
9.96273E-01 1.39810E-34
9.96786E-01 1.20262E-34
9.97261E-01 1.02248E-34
9.97698E-01 8.57503E-35
9.98097E-01 7.07494E-35
9.98459E-01 5.72292E-35
9.98782E-01 4.51745E-35
9.99067E-01 3.45716E-35
9.99315E-01 2.54079E-35
9.99524E-01 1.76723E-35
9.99695E-01 1.13564E-35
9.99829E-01 6.45170E-36
9.99924E-01 2.95273E-36
9.99981E-01 8.55108E-37
1.00000E+00 1.56587E-37
