 #
 # Subroutine ELSEPA. Elastic scattering of electrons and positrons
 #                    by neutral atoms and positive ions
 #
 # Projectile: electron
 # Kinetic energy = 7.00000E+06 eV = 2.57245E+05 a.u.
 #
 # WARNING: High-energy factorization with free-atom DF screening.
 #          Absorption, polarization and exchange corrections are
 #          switched off.
 #          Phase shifts are calculated for the bare nucleus.
 #          Scattering amplitudes are not evaluated.
 #
 # Element: Er,  Z =  68,  atomic weight = 1.67260E+02 g/mol
 #
 # Nuclear model: Fermi distribution
 #                Average radius = 5.89542E-13 cm
 #                Skin thickness = 5.46000E-14 cm
 #
 # Number of electrons = 68
 #
 # Total elastic cross section = 7.09309E-18 cm**2 = 2.53299E-01 a0**2
 # 1st transport cross section = 1.40950E-22 cm**2 = 5.03342E-06 a0**2
 # 2nd transport cross section = 3.87784E-22 cm**2 = 1.38480E-05 a0**2
 #
 #
 # Differential cross section:                       MU=(1-COS(THETA))/2
 #
 #  THETA        MU          DCS          DCS        Sherman      error
 #  (deg)                 (cm**2/sr)   (a0**2/sr)    function
 #----------------------------------------------------------------------
0.00000E+00 4.07639E-12
7.61557E-13 4.07629E-12
1.18994E-12 4.07623E-12
1.71346E-12 4.07616E-12
2.33225E-12 4.07608E-12
3.04617E-12 4.07598E-12
3.85530E-12 4.07587E-12
4.75964E-12 4.07575E-12
5.75917E-12 4.07561E-12
6.85391E-12 4.07547E-12
8.04379E-12 4.07530E-12
9.32893E-12 4.07513E-12
1.07092E-11 4.07494E-12
1.21847E-11 4.07475E-12
1.37554E-11 4.07453E-12
1.54213E-11 4.07431E-12
1.71823E-11 4.07407E-12
1.90386E-11 4.07382E-12
2.09900E-11 4.07356E-12
2.30367E-11 4.07328E-12
2.51785E-11 4.07299E-12
2.74156E-11 4.07269E-12
2.97478E-11 4.07238E-12
3.21752E-11 4.07205E-12
3.46979E-11 4.07171E-12
3.73157E-11 4.07136E-12
4.00286E-11 4.07099E-12
4.28368E-11 4.07061E-12
4.57402E-11 4.07022E-12
4.87388E-11 4.06982E-12
5.18325E-11 4.06940E-12
5.50215E-11 4.06897E-12
5.83057E-11 4.06853E-12
6.16850E-11 4.06807E-12
6.51595E-11 4.06761E-12
6.87293E-11 4.06713E-12
7.23943E-11 4.06663E-12
7.61544E-11 4.06613E-12
1.18991E-10 4.06038E-12
1.71347E-10 4.05337E-12
2.33223E-10 4.04511E-12
3.04617E-10 4.03561E-12
3.85531E-10 4.02490E-12
4.75965E-10 4.01298E-12
5.75917E-10 3.99988E-12
6.85389E-10 3.98561E-12
8.04380E-10 3.97020E-12
9.32891E-10 3.95367E-12
1.07092E-09 3.93604E-12
1.21847E-09 3.91735E-12
1.37554E-09 3.89761E-12
1.54213E-09 3.87686E-12
1.71823E-09 3.85513E-12
1.90386E-09 3.83245E-12
2.09900E-09 3.80885E-12
2.30367E-09 3.78436E-12
2.51785E-09 3.75902E-12
2.74156E-09 3.73286E-12
2.97478E-09 3.70591E-12
3.21752E-09 3.67823E-12
3.46978E-09 3.64982E-12
3.73156E-09 3.62075E-12
4.00286E-09 3.59103E-12
4.28368E-09 3.56086E-12
4.57402E-09 3.53014E-12
4.87388E-09 3.49883E-12
5.18326E-09 3.46696E-12
5.50215E-09 3.43457E-12
5.83057E-09 3.40169E-12
6.16850E-09 3.36835E-12
6.51596E-09 3.33480E-12
6.87293E-09 3.30121E-12
7.23942E-09 3.26726E-12
7.61544E-09 3.23298E-12
1.18991E-08 2.88258E-12
1.71347E-08 2.53881E-12
2.33223E-08 2.22054E-12
3.04617E-08 1.93675E-12
3.85531E-08 1.69202E-12
4.75965E-08 1.48367E-12
5.75917E-08 1.30779E-12
6.85389E-08 1.16042E-12
8.04380E-08 1.03603E-12
9.32891E-08 9.30633E-13
1.07092E-07 8.40652E-13
1.21847E-07 7.63117E-13
1.37554E-07 6.95636E-13
1.54213E-07 6.36384E-13
1.71823E-07 5.84027E-13
1.90386E-07 5.37193E-13
2.09900E-07 4.95213E-13
2.30367E-07 4.57390E-13
2.51785E-07 4.22964E-13
2.74156E-07 3.91732E-13
2.97478E-07 3.63223E-13
3.21752E-07 3.37095E-13
3.46978E-07 3.13220E-13
3.73156E-07 2.91258E-13
4.00286E-07 2.71081E-13
4.28368E-07 2.51224E-13
4.57402E-07 2.32984E-13
4.87388E-07 2.16778E-13
5.18325E-07 2.02332E-13
5.50215E-07 1.89413E-13
5.83057E-07 1.77825E-13
6.16850E-07 1.67398E-13
6.51596E-07 1.57218E-13
6.87293E-07 1.46887E-13
7.23942E-07 1.37574E-13
7.61543E-07 1.29155E-13
1.18991E-06 7.29382E-14
1.71347E-06 4.39823E-14
2.33223E-06 2.78961E-14
3.04617E-06 1.84578E-14
3.85531E-06 1.25760E-14
4.75964E-06 8.82766E-15
5.75916E-06 6.36988E-15
6.85388E-06 4.70703E-15
8.04378E-06 3.56066E-15
9.32888E-06 2.74918E-15
1.07092E-05 2.16064E-15
1.21846E-05 1.72379E-15
1.37553E-05 1.39432E-15
1.54212E-05 1.14140E-15
1.71822E-05 9.44137E-16
1.90385E-05 7.87163E-16
2.09899E-05 6.62121E-16
2.30365E-05 5.60786E-16
2.51783E-05 4.77793E-16
2.74153E-05 4.09513E-16
2.97475E-05 3.52911E-16
3.21749E-05 3.05676E-16
3.46974E-05 2.66076E-16
3.73152E-05 2.32647E-16
4.00281E-05 2.04297E-16
4.28362E-05 1.80032E-16
4.57395E-05 1.59317E-16
4.87380E-05 1.41597E-16
5.18317E-05 1.26156E-16
5.50205E-05 1.12777E-16
5.83045E-05 1.01181E-16
6.16838E-05 9.09706E-17
6.51582E-05 8.20391E-17
6.87277E-05 7.42144E-17
7.23925E-05 6.72622E-17
7.61524E-05 6.11239E-17
9.21439E-05 4.26026E-17
1.09658E-04 3.05919E-17
1.28695E-04 2.25453E-17
1.49255E-04 1.69819E-17
1.71338E-04 1.30347E-17
1.94942E-04 1.01728E-17
2.20070E-04 8.05490E-18
2.46720E-04 6.46071E-18
2.74892E-04 5.24246E-18
3.04586E-04 4.29785E-18
3.35803E-04 3.55676E-18
3.68542E-04 2.96879E-18
4.02802E-04 2.49723E-18
4.38585E-04 2.11574E-18
4.75889E-04 1.80439E-18
5.14715E-04 1.54823E-18
5.55063E-04 1.33601E-18
5.96931E-04 1.15894E-18
6.40321E-04 1.01028E-18
6.85233E-04 8.84752E-19
7.31665E-04 7.78139E-19
7.79618E-04 6.87145E-19
8.29092E-04 6.09101E-19
8.80086E-04 5.41845E-19
9.32601E-04 4.83649E-19
9.86636E-04 4.33079E-19
1.04219E-03 3.88966E-19
1.09927E-03 3.50349E-19
1.15786E-03 3.16421E-19
1.21797E-03 2.86516E-19
1.27961E-03 2.60077E-19
1.34276E-03 2.36626E-19
1.40743E-03 2.15772E-19
1.47362E-03 1.97174E-19
1.54133E-03 1.80544E-19
1.61056E-03 1.65640E-19
1.68131E-03 1.52248E-19
1.75357E-03 1.40189E-19
1.82735E-03 1.29306E-19
1.90265E-03 1.19464E-19
1.97947E-03 1.10545E-19
2.05780E-03 1.02447E-19
2.13765E-03 9.50807E-20
2.21902E-03 8.83682E-20
2.30190E-03 8.22407E-20
2.38630E-03 7.66380E-20
2.47222E-03 7.15071E-20
2.55965E-03 6.68007E-20
2.64859E-03 6.24773E-20
2.73905E-03 5.85003E-20
2.83103E-03 5.48363E-20
2.92452E-03 5.14566E-20
3.01952E-03 4.83349E-20
3.11604E-03 4.54477E-20
3.21407E-03 4.27743E-20
3.31362E-03 4.02959E-20
3.41468E-03 3.79956E-20
3.51725E-03 3.58582E-20
3.62133E-03 3.38700E-20
3.72692E-03 3.20187E-20
3.83403E-03 3.02930E-20
3.94265E-03 2.86829E-20
4.05278E-03 2.71791E-20
4.16442E-03 2.57732E-20
4.27757E-03 2.44580E-20
4.39223E-03 2.32260E-20
4.50840E-03 2.20715E-20
4.62608E-03 2.09882E-20
4.74527E-03 1.99712E-20
4.86597E-03 1.90155E-20
4.98817E-03 1.81168E-20
5.11188E-03 1.72711E-20
5.23711E-03 1.64745E-20
5.36383E-03 1.57238E-20
5.49207E-03 1.50157E-20
5.62181E-03 1.43475E-20
5.75306E-03 1.37163E-20
5.88581E-03 1.31198E-20
6.02007E-03 1.25556E-20
6.15583E-03 1.20218E-20
6.29310E-03 1.15164E-20
6.43187E-03 1.10375E-20
6.57214E-03 1.05835E-20
6.71392E-03 1.01528E-20
6.85720E-03 9.74406E-21
7.00198E-03 9.35588E-21
7.14827E-03 8.98710E-21
7.29605E-03 8.63647E-21
7.44534E-03 8.30300E-21
7.59612E-03 7.98564E-21
7.97965E-03 7.25686E-21
8.37255E-03 6.61026E-21
8.77480E-03 6.03494E-21
9.18641E-03 5.52162E-21
9.60736E-03 5.06240E-21
1.00376E-02 4.65057E-21
1.04773E-02 4.28032E-21
1.09262E-02 3.94670E-21
1.13844E-02 3.64543E-21
1.18520E-02 3.37277E-21
1.23288E-02 3.12552E-21
1.28150E-02 2.90086E-21
1.33104E-02 2.69635E-21
1.38150E-02 2.50984E-21
1.43290E-02 2.33944E-21
1.48521E-02 2.18351E-21
1.53845E-02 2.04059E-21
1.59262E-02 1.90938E-21
1.64770E-02 1.78874E-21
1.70371E-02 1.67766E-21
1.76063E-02 1.57524E-21
1.81848E-02 1.48067E-21
1.87724E-02 1.39322E-21
1.93692E-02 1.31228E-21
1.99751E-02 1.23724E-21
2.05901E-02 1.16761E-21
2.12143E-02 1.10291E-21
2.18476E-02 1.04274E-21
2.24900E-02 9.86697E-22
2.31415E-02 9.34459E-22
2.38021E-02 8.85712E-22
2.44717E-02 8.40177E-22
2.51504E-02 7.97601E-22
2.58382E-02 7.57752E-22
2.65349E-02 7.20422E-22
2.72407E-02 6.85420E-22
2.79555E-02 6.52572E-22
2.86793E-02 6.21718E-22
2.94120E-02 5.92714E-22
3.01537E-02 5.65426E-22
3.09043E-02 5.39732E-22
3.16639E-02 5.15520E-22
3.24324E-02 4.92688E-22
3.32098E-02 4.71140E-22
3.39961E-02 4.50790E-22
3.47912E-02 4.31558E-22
3.55952E-02 4.13370E-22
3.64081E-02 3.96157E-22
3.72297E-02 3.79857E-22
3.80602E-02 3.64411E-22
3.88995E-02 3.49766E-22
3.97476E-02 3.35871E-22
4.06044E-02 3.22679E-22
4.14700E-02 3.10149E-22
4.23443E-02 2.98239E-22
4.32273E-02 2.86913E-22
4.41190E-02 2.76136E-22
4.50194E-02 2.65876E-22
4.59284E-02 2.56103E-22
4.68461E-02 2.46789E-22
4.87074E-02 2.29437E-22
5.06030E-02 2.13629E-22
5.25328E-02 1.99201E-22
5.44967E-02 1.86009E-22
5.64946E-02 1.73925E-22
5.85262E-02 1.62838E-22
6.05914E-02 1.52648E-22
6.26901E-02 1.43269E-22
6.48222E-02 1.34623E-22
6.69873E-02 1.26640E-22
6.91854E-02 1.19260E-22
7.14163E-02 1.12427E-22
7.36799E-02 1.06092E-22
7.59760E-02 1.00213E-22
7.83043E-02 9.47481E-23
8.06647E-02 8.96633E-23
8.30571E-02 8.49262E-23
8.54812E-02 8.05082E-23
8.79369E-02 7.63832E-23
9.04240E-02 7.25277E-23
9.29422E-02 6.89204E-23
9.54915E-02 6.55419E-23
9.80716E-02 6.23745E-23
1.00682E-01 5.94023E-23
1.03323E-01 5.66107E-23
1.05995E-01 5.39864E-23
1.08696E-01 5.15171E-23
1.11427E-01 4.91918E-23
1.14188E-01 4.70002E-23
1.16978E-01 4.49331E-23
1.19797E-01 4.29817E-23
1.22645E-01 4.11383E-23
1.25522E-01 3.93954E-23
1.28428E-01 3.77466E-23
1.31361E-01 3.61855E-23
1.34323E-01 3.47066E-23
1.37313E-01 3.33044E-23
1.40330E-01 3.19742E-23
1.43375E-01 3.07115E-23
1.46447E-01 2.95121E-23
1.49545E-01 2.83721E-23
1.52671E-01 2.72880E-23
1.55823E-01 2.62563E-23
1.59001E-01 2.52741E-23
1.62205E-01 2.43383E-23
1.65435E-01 2.34464E-23
1.68690E-01 2.25957E-23
1.71970E-01 2.17841E-23
1.75276E-01 2.10093E-23
1.78606E-01 2.02692E-23
1.81961E-01 1.95619E-23
1.85340E-01 1.88858E-23
1.88743E-01 1.82390E-23
1.92169E-01 1.76201E-23
1.95619E-01 1.70276E-23
1.99092E-01 1.64600E-23
2.02589E-01 1.59162E-23
2.06107E-01 1.53949E-23
2.09649E-01 1.48949E-23
2.13212E-01 1.44153E-23
2.16797E-01 1.39549E-23
2.20404E-01 1.35129E-23
2.24032E-01 1.30883E-23
2.27680E-01 1.26804E-23
2.31350E-01 1.22882E-23
2.35040E-01 1.19111E-23
2.38751E-01 1.15484E-23
2.42481E-01 1.11993E-23
2.46231E-01 1.08633E-23
2.50000E-01 1.05398E-23
2.53788E-01 1.02281E-23
2.57595E-01 9.92785E-24
2.61421E-01 9.63843E-24
2.65264E-01 9.35939E-24
2.69126E-01 9.09026E-24
2.73005E-01 8.83062E-24
2.76901E-01 8.58007E-24
2.80814E-01 8.33821E-24
2.84744E-01 8.10468E-24
2.88691E-01 7.87912E-24
2.92653E-01 7.66121E-24
2.96632E-01 7.45063E-24
3.00625E-01 7.24707E-24
3.04634E-01 7.05025E-24
3.08658E-01 6.85991E-24
3.12697E-01 6.67577E-24
3.16749E-01 6.49759E-24
3.20816E-01 6.32515E-24
3.24896E-01 6.15820E-24
3.28990E-01 5.99654E-24
3.33097E-01 5.83997E-24
3.37216E-01 5.68829E-24
3.41348E-01 5.54132E-24
3.45492E-01 5.39887E-24
3.49647E-01 5.26078E-24
3.53814E-01 5.12688E-24
3.57992E-01 4.99702E-24
3.62181E-01 4.87106E-24
3.66381E-01 4.74884E-24
3.70590E-01 4.63024E-24
3.74810E-01 4.51513E-24
3.79039E-01 4.40337E-24
3.83277E-01 4.29486E-24
3.87524E-01 4.18947E-24
3.91780E-01 4.08710E-24
3.96044E-01 3.98765E-24
4.00316E-01 3.89100E-24
4.04596E-01 3.79708E-24
4.08882E-01 3.70578E-24
4.13176E-01 3.61701E-24
4.17476E-01 3.53069E-24
4.21783E-01 3.44675E-24
4.26095E-01 3.36509E-24
4.30413E-01 3.28565E-24
4.34737E-01 3.20835E-24
4.39065E-01 3.13312E-24
4.43398E-01 3.05989E-24
4.47736E-01 2.98860E-24
4.52077E-01 2.91918E-24
4.56422E-01 2.85158E-24
4.60770E-01 2.78573E-24
4.65122E-01 2.72160E-24
4.69476E-01 2.65912E-24
4.73832E-01 2.59824E-24
4.78190E-01 2.53891E-24
4.82550E-01 2.48109E-24
4.86912E-01 2.42472E-24
4.91274E-01 2.36977E-24
4.95637E-01 2.31620E-24
5.00000E-01 2.26395E-24
5.04363E-01 2.21300E-24
5.08726E-01 2.16330E-24
5.13088E-01 2.11482E-24
5.17450E-01 2.06752E-24
5.21810E-01 2.02136E-24
5.26168E-01 1.97632E-24
5.30524E-01 1.93236E-24
5.34878E-01 1.88945E-24
5.39230E-01 1.84756E-24
5.43578E-01 1.80666E-24
5.47923E-01 1.76672E-24
5.52264E-01 1.72773E-24
5.56602E-01 1.68964E-24
5.60935E-01 1.65244E-24
5.65263E-01 1.61610E-24
5.69587E-01 1.58059E-24
5.73905E-01 1.54591E-24
5.78217E-01 1.51201E-24
5.82524E-01 1.47888E-24
5.86824E-01 1.44651E-24
5.91118E-01 1.41487E-24
5.95404E-01 1.38393E-24
5.99684E-01 1.35369E-24
6.03956E-01 1.32413E-24
6.08220E-01 1.29522E-24
6.12476E-01 1.26695E-24
6.16723E-01 1.23930E-24
6.20961E-01 1.21226E-24
6.25190E-01 1.18581E-24
6.29410E-01 1.15993E-24
6.33619E-01 1.13462E-24
6.37819E-01 1.10986E-24
6.42008E-01 1.08563E-24
6.46186E-01 1.06191E-24
6.50353E-01 1.03871E-24
6.54508E-01 1.01600E-24
6.58652E-01 9.93776E-25
6.62784E-01 9.72020E-25
6.66903E-01 9.50724E-25
6.71010E-01 9.29876E-25
6.75104E-01 9.09466E-25
6.79184E-01 8.89482E-25
6.83251E-01 8.69915E-25
6.87303E-01 8.50754E-25
6.91342E-01 8.31991E-25
6.95366E-01 8.13616E-25
6.99375E-01 7.95619E-25
7.03368E-01 7.77992E-25
7.07347E-01 7.60726E-25
7.11309E-01 7.43813E-25
7.15256E-01 7.27246E-25
7.19186E-01 7.11014E-25
7.23099E-01 6.95113E-25
7.26995E-01 6.79533E-25
7.30874E-01 6.64267E-25
7.34736E-01 6.49309E-25
7.38579E-01 6.34652E-25
7.42405E-01 6.20289E-25
7.46212E-01 6.06213E-25
7.50000E-01 5.92418E-25
7.53769E-01 5.78899E-25
7.57519E-01 5.65648E-25
7.61249E-01 5.52661E-25
7.64960E-01 5.39931E-25
7.68650E-01 5.27453E-25
7.72320E-01 5.15222E-25
7.75968E-01 5.03232E-25
7.79596E-01 4.91478E-25
7.83203E-01 4.79956E-25
7.86788E-01 4.68661E-25
7.90351E-01 4.57587E-25
7.93893E-01 4.46730E-25
7.97411E-01 4.36086E-25
8.00908E-01 4.25651E-25
8.04381E-01 4.15420E-25
8.07831E-01 4.05389E-25
8.11257E-01 3.95554E-25
8.14660E-01 3.85911E-25
8.18039E-01 3.76456E-25
8.21394E-01 3.67186E-25
8.24724E-01 3.58096E-25
8.28030E-01 3.49185E-25
8.31310E-01 3.40447E-25
8.34565E-01 3.31879E-25
8.37795E-01 3.23479E-25
8.40999E-01 3.15244E-25
8.44177E-01 3.07169E-25
8.47329E-01 2.99252E-25
8.50455E-01 2.91490E-25
8.53553E-01 2.83880E-25
8.56625E-01 2.76420E-25
8.59670E-01 2.69106E-25
8.62687E-01 2.61936E-25
8.65677E-01 2.54907E-25
8.68639E-01 2.48017E-25
8.71572E-01 2.41263E-25
8.74478E-01 2.34643E-25
8.77355E-01 2.28154E-25
8.80203E-01 2.21795E-25
8.83022E-01 2.15562E-25
8.85812E-01 2.09454E-25
8.88573E-01 2.03469E-25
8.91304E-01 1.97604E-25
8.94005E-01 1.91858E-25
8.96677E-01 1.86228E-25
8.99318E-01 1.80713E-25
9.01928E-01 1.75310E-25
9.04508E-01 1.70019E-25
9.07058E-01 1.64836E-25
9.09576E-01 1.59760E-25
9.12063E-01 1.54791E-25
9.14519E-01 1.49925E-25
9.16943E-01 1.45161E-25
9.19335E-01 1.40498E-25
9.21696E-01 1.35934E-25
9.24024E-01 1.31468E-25
9.26320E-01 1.27098E-25
9.28584E-01 1.22823E-25
9.30815E-01 1.18641E-25
9.33013E-01 1.14551E-25
9.35178E-01 1.10552E-25
9.37310E-01 1.06643E-25
9.39409E-01 1.02821E-25
9.41474E-01 9.90869E-26
9.43505E-01 9.54383E-26
9.45503E-01 9.18742E-26
9.47467E-01 8.83936E-26
9.49397E-01 8.49955E-26
9.51293E-01 8.16786E-26
9.53154E-01 7.84421E-26
9.54981E-01 7.52848E-26
9.56773E-01 7.22058E-26
9.58530E-01 6.92042E-26
9.60252E-01 6.62790E-26
9.61940E-01 6.34293E-26
9.63592E-01 6.06542E-26
9.65209E-01 5.79530E-26
9.66790E-01 5.53247E-26
9.68336E-01 5.27686E-26
9.69846E-01 5.02838E-26
9.71321E-01 4.78697E-26
9.72759E-01 4.55255E-26
9.74162E-01 4.32505E-26
9.75528E-01 4.10440E-26
9.76858E-01 3.89054E-26
9.78152E-01 3.68339E-26
9.79410E-01 3.48291E-26
9.80631E-01 3.28903E-26
9.81815E-01 3.10168E-26
9.82963E-01 2.92083E-26
9.84074E-01 2.74640E-26
9.85148E-01 2.57836E-26
9.86185E-01 2.41665E-26
9.87185E-01 2.26122E-26
9.88148E-01 2.11203E-26
9.89074E-01 1.96903E-26
9.89962E-01 1.83219E-26
9.90814E-01 1.70145E-26
9.91627E-01 1.57679E-26
9.92404E-01 1.45817E-26
9.93143E-01 1.34555E-26
9.93844E-01 1.23890E-26
9.94508E-01 1.13819E-26
9.95134E-01 1.04339E-26
9.95722E-01 9.54474E-27
9.96273E-01 8.71411E-27
9.96786E-01 7.94181E-27
9.97261E-01 7.22761E-27
9.97698E-01 6.57130E-27
9.98097E-01 5.97269E-27
9.98459E-01 5.43161E-27
9.98782E-01 4.94791E-27
9.99067E-01 4.52144E-27
9.99315E-01 4.15207E-27
9.99524E-01 3.83972E-27
9.99695E-01 3.58428E-27
9.99829E-01 3.38568E-27
9.99924E-01 3.24386E-27
9.99981E-01 3.15879E-27
1.00000E+00 3.13043E-27
