 #
 # Subroutine ELSEPA. Elastic scattering of electrons and positrons
 #                    by neutral atoms and positive ions
 #
 # Projectile: electron
 # Kinetic energy = 5.00000E+07 eV = 1.83747E+06 a.u.
 #
 # WARNING: High-energy factorization with free-atom DF screening.
 #          Absorption, polarization and exchange corrections are
 #          switched off.
 #          Phase shifts are calculated for the bare nucleus.
 #          Scattering amplitudes are not evaluated.
 #
 # Element: Er,  Z =  68,  atomic weight = 1.67260E+02 g/mol
 #
 # Nuclear model: Fermi distribution
 #                Average radius = 5.89542E-13 cm
 #                Skin thickness = 5.46000E-14 cm
 #
 # Number of electrons = 68
 #
 # Total elastic cross section = 7.05179E-18 cm**2 = 2.51824E-01 a0**2
 # 1st transport cross section = 3.50585E-24 cm**2 = 1.25196E-07 a0**2
 # 2nd transport cross section = 1.02747E-23 cm**2 = 3.66915E-07 a0**2
 #
 #
 # Differential cross section:                       MU=(1-COS(THETA))/2
 #
 #  THETA        MU          DCS          DCS        Sherman      error
 #  (deg)                 (cm**2/sr)   (a0**2/sr)    function
 #----------------------------------------------------------------------
0.00000E+00 1.84354E-10
7.61557E-13 1.84142E-10
1.18994E-12 1.84023E-10
1.71346E-12 1.83878E-10
2.33225E-12 1.83707E-10
3.04617E-12 1.83511E-10
3.85530E-12 1.83288E-10
4.75964E-12 1.83040E-10
5.75917E-12 1.82766E-10
6.85391E-12 1.82467E-10
8.04379E-12 1.82143E-10
9.32893E-12 1.81794E-10
1.07092E-11 1.81421E-10
1.21847E-11 1.81023E-10
1.37554E-11 1.80601E-10
1.54213E-11 1.80156E-10
1.71823E-11 1.79687E-10
1.90386E-11 1.79195E-10
2.09900E-11 1.78680E-10
2.30367E-11 1.78143E-10
2.51785E-11 1.77584E-10
2.74156E-11 1.77003E-10
2.97478E-11 1.76400E-10
3.21752E-11 1.75777E-10
3.46979E-11 1.75134E-10
3.73157E-11 1.74470E-10
4.00286E-11 1.73787E-10
4.28368E-11 1.73084E-10
4.57402E-11 1.72363E-10
4.87388E-11 1.71624E-10
5.18325E-11 1.70866E-10
5.50215E-11 1.70092E-10
5.83057E-11 1.69300E-10
6.16850E-11 1.68492E-10
6.51595E-11 1.67668E-10
6.87293E-11 1.66829E-10
7.23943E-11 1.65975E-10
7.61544E-11 1.65107E-10
1.18991E-10 1.55760E-10
1.71347E-10 1.45513E-10
2.33223E-10 1.34850E-10
3.04617E-10 1.24177E-10
3.85531E-10 1.13817E-10
4.75965E-10 1.04002E-10
5.75917E-10 9.48802E-11
6.85389E-10 8.65274E-11
8.04380E-10 7.89722E-11
9.32891E-10 7.21946E-11
1.07092E-09 6.61380E-11
1.21847E-09 6.07426E-11
1.37554E-09 5.59422E-11
1.54213E-09 5.16700E-11
1.71823E-09 4.78620E-11
1.90386E-09 4.44594E-11
2.09900E-09 4.14091E-11
2.30367E-09 3.86644E-11
2.51785E-09 3.61846E-11
2.74156E-09 3.39346E-11
2.97478E-09 3.18846E-11
3.21752E-09 3.00068E-11
3.46978E-09 2.82810E-11
3.73156E-09 2.66894E-11
4.00286E-09 2.52169E-11
4.28368E-09 2.38504E-11
4.57402E-09 2.25789E-11
4.87388E-09 2.13929E-11
5.18326E-09 2.02842E-11
5.50215E-09 1.92460E-11
5.83057E-09 1.82722E-11
6.16850E-09 1.73574E-11
6.51596E-09 1.64970E-11
6.87293E-09 1.56864E-11
7.23942E-09 1.49212E-11
7.61544E-09 1.41996E-11
1.18991E-08 8.72965E-12
1.71347E-08 5.68110E-12
2.33223E-08 3.83696E-12
3.04617E-08 2.67929E-12
3.85531E-08 1.92415E-12
4.75965E-08 1.41382E-12
5.75917E-08 1.05852E-12
6.85389E-08 8.05264E-13
8.04380E-08 6.21078E-13
9.32891E-08 4.85269E-13
1.07092E-07 3.84100E-13
1.21847E-07 3.07781E-13
1.37554E-07 2.49513E-13
1.54213E-07 2.04506E-13
1.71823E-07 1.69343E-13
1.90386E-07 1.41563E-13
2.09900E-07 1.19395E-13
2.30367E-07 1.01507E-13
2.51785E-07 8.68654E-14
2.74156E-07 7.48382E-14
2.97478E-07 6.48759E-14
3.21752E-07 5.65493E-14
3.46978E-07 4.95378E-14
3.73156E-07 4.35904E-14
4.00286E-07 3.85119E-14
4.28368E-07 3.41503E-14
4.57402E-07 3.03857E-14
4.87388E-07 2.71227E-14
5.18325E-07 2.42836E-14
5.50215E-07 2.18047E-14
5.83057E-07 1.96331E-14
6.16850E-07 1.77242E-14
6.51596E-07 1.60408E-14
6.87293E-07 1.45511E-14
7.23942E-07 1.32284E-14
7.61543E-07 1.20514E-14
1.18991E-06 5.24471E-15
1.71347E-06 2.63604E-15
2.33223E-06 1.46693E-15
3.04617E-06 8.80350E-16
3.85531E-06 5.60058E-16
4.75964E-06 3.73111E-16
5.75916E-06 2.57993E-16
6.85388E-06 1.84015E-16
8.04378E-06 1.34727E-16
9.32888E-06 1.00864E-16
1.07092E-05 7.69906E-17
1.21846E-05 5.97740E-17
1.37553E-05 4.71076E-17
1.54212E-05 3.76232E-17
1.71822E-05 3.04096E-17
1.90385E-05 2.48327E-17
2.09899E-05 2.04984E-17
2.30365E-05 1.70676E-17
2.51783E-05 1.43223E-17
2.74153E-05 1.21049E-17
2.97475E-05 1.02993E-17
3.21749E-05 8.81837E-18
3.46974E-05 7.59511E-18
3.73152E-05 6.57777E-18
4.00281E-05 5.72599E-18
4.28362E-05 5.00811E-18
4.57395E-05 4.39934E-18
4.87380E-05 3.88017E-18
5.18317E-05 3.43520E-18
5.50205E-05 3.05207E-18
5.83045E-05 2.72086E-18
6.16838E-05 2.43344E-18
6.51582E-05 2.18307E-18
6.87277E-05 1.96419E-18
7.23925E-05 1.77213E-18
7.61524E-05 1.60323E-18
9.21439E-05 1.09876E-18
1.09658E-04 7.78033E-19
1.28695E-04 5.66343E-19
1.49255E-04 4.21993E-19
1.71338E-04 3.20882E-19
1.94942E-04 2.48332E-19
2.20070E-04 1.95190E-19
2.46720E-04 1.55546E-19
2.74892E-04 1.25483E-19
3.04586E-04 1.02354E-19
3.35803E-04 8.43222E-20
3.68542E-04 7.00978E-20
4.02802E-04 5.87547E-20
4.38585E-04 4.96196E-20
4.75889E-04 4.21961E-20
5.14715E-04 3.61130E-20
5.55063E-04 3.10899E-20
5.96931E-04 2.69125E-20
6.40321E-04 2.34154E-20
6.85233E-04 2.04698E-20
7.31665E-04 1.79744E-20
7.79618E-04 1.58489E-20
8.29092E-04 1.40295E-20
8.80086E-04 1.24646E-20
9.32601E-04 1.11126E-20
9.86636E-04 9.93974E-21
1.04219E-03 8.91813E-21
1.09927E-03 8.02495E-21
1.15786E-03 7.24124E-21
1.21797E-03 6.55130E-21
1.27961E-03 5.94195E-21
1.34276E-03 5.40212E-21
1.40743E-03 4.92249E-21
1.47362E-03 4.49517E-21
1.54133E-03 4.11345E-21
1.61056E-03 3.77159E-21
1.68131E-03 3.46469E-21
1.75357E-03 3.18854E-21
1.82735E-03 2.93950E-21
1.90265E-03 2.71443E-21
1.97947E-03 2.51062E-21
2.05780E-03 2.32569E-21
2.13765E-03 2.15756E-21
2.21902E-03 2.00445E-21
2.30190E-03 1.86476E-21
2.38630E-03 1.73711E-21
2.47222E-03 1.62025E-21
2.55965E-03 1.51313E-21
2.64859E-03 1.41476E-21
2.73905E-03 1.32431E-21
2.83103E-03 1.24103E-21
2.92452E-03 1.16423E-21
3.01952E-03 1.09332E-21
3.11604E-03 1.02776E-21
3.21407E-03 9.67081E-22
3.31362E-03 9.10843E-22
3.41468E-03 8.58663E-22
3.51725E-03 8.10193E-22
3.62133E-03 7.65120E-22
3.72692E-03 7.23160E-22
3.83403E-03 6.84059E-22
3.94265E-03 6.47584E-22
4.05278E-03 6.13527E-22
4.16442E-03 5.81695E-22
4.27757E-03 5.51917E-22
4.39223E-03 5.24035E-22
4.50840E-03 4.97905E-22
4.62608E-03 4.73396E-22
4.74527E-03 4.50388E-22
4.86597E-03 4.28771E-22
4.98817E-03 4.08447E-22
5.11188E-03 3.89321E-22
5.23711E-03 3.71311E-22
5.36383E-03 3.54339E-22
5.49207E-03 3.38333E-22
5.62181E-03 3.23227E-22
5.75306E-03 3.08962E-22
5.88581E-03 2.95482E-22
6.02007E-03 2.82734E-22
6.15583E-03 2.70672E-22
6.29310E-03 2.59252E-22
6.43187E-03 2.48432E-22
6.57214E-03 2.38176E-22
6.71392E-03 2.28447E-22
6.85720E-03 2.19214E-22
7.00198E-03 2.10446E-22
7.14827E-03 2.02116E-22
7.29605E-03 1.94197E-22
7.44534E-03 1.86665E-22
7.59612E-03 1.79498E-22
7.97965E-03 1.63039E-22
8.37255E-03 1.48438E-22
8.77480E-03 1.35446E-22
9.18641E-03 1.23855E-22
9.60736E-03 1.13487E-22
1.00376E-02 1.04186E-22
1.04773E-02 9.58245E-23
1.09262E-02 8.82899E-23
1.13844E-02 8.14856E-23
1.18520E-02 7.53279E-23
1.23288E-02 6.97440E-23
1.28150E-02 6.46705E-23
1.33104E-02 6.00521E-23
1.38150E-02 5.58404E-23
1.43290E-02 5.19930E-23
1.48521E-02 4.84724E-23
1.53845E-02 4.52456E-23
1.59262E-02 4.22837E-23
1.64770E-02 3.95607E-23
1.70371E-02 3.70538E-23
1.76063E-02 3.47425E-23
1.81848E-02 3.26088E-23
1.87724E-02 3.06365E-23
1.93692E-02 2.88109E-23
1.99751E-02 2.71193E-23
2.05901E-02 2.55497E-23
2.12143E-02 2.40919E-23
2.18476E-02 2.27363E-23
2.24900E-02 2.14744E-23
2.31415E-02 2.02985E-23
2.38021E-02 1.92016E-23
2.44717E-02 1.81775E-23
2.51504E-02 1.72203E-23
2.58382E-02 1.63249E-23
2.65349E-02 1.54865E-23
2.72407E-02 1.47008E-23
2.79555E-02 1.39639E-23
2.86793E-02 1.32721E-23
2.94120E-02 1.26223E-23
3.01537E-02 1.20113E-23
3.09043E-02 1.14363E-23
3.16639E-02 1.08950E-23
3.24324E-02 1.03848E-23
3.32098E-02 9.90379E-24
3.39961E-02 9.44986E-24
3.47912E-02 9.02124E-24
3.55952E-02 8.61625E-24
3.64081E-02 8.23333E-24
3.72297E-02 7.87106E-24
3.80602E-02 7.52812E-24
3.88995E-02 7.20328E-24
3.97476E-02 6.89541E-24
4.06044E-02 6.60345E-24
4.14700E-02 6.32644E-24
4.23443E-02 6.06346E-24
4.32273E-02 5.81367E-24
4.41190E-02 5.57628E-24
4.50194E-02 5.35057E-24
4.59284E-02 5.13586E-24
4.68461E-02 4.93151E-24
4.87074E-02 4.55155E-24
5.06030E-02 4.20643E-24
5.25328E-02 3.89240E-24
5.44967E-02 3.60617E-24
5.64946E-02 3.34486E-24
5.85262E-02 3.10594E-24
6.05914E-02 2.88715E-24
6.26901E-02 2.68652E-24
6.48222E-02 2.50228E-24
6.69873E-02 2.33287E-24
6.91854E-02 2.17690E-24
7.14163E-02 2.03312E-24
7.36799E-02 1.90043E-24
7.59760E-02 1.77783E-24
7.83043E-02 1.66443E-24
8.06647E-02 1.55943E-24
8.30571E-02 1.46210E-24
8.54812E-02 1.37180E-24
8.79369E-02 1.28793E-24
9.04240E-02 1.20997E-24
9.29422E-02 1.13744E-24
9.54915E-02 1.06990E-24
9.80716E-02 1.00695E-24
1.00682E-01 9.48239E-25
1.03323E-01 8.93433E-25
1.05995E-01 8.42236E-25
1.08696E-01 7.94374E-25
1.11427E-01 7.49598E-25
1.14188E-01 7.07682E-25
1.16978E-01 6.68415E-25
1.19797E-01 6.31606E-25
1.22645E-01 5.97081E-25
1.25522E-01 5.64678E-25
1.28428E-01 5.34248E-25
1.31361E-01 5.05655E-25
1.34323E-01 4.78773E-25
1.37313E-01 4.53486E-25
1.40330E-01 4.29687E-25
1.43375E-01 4.07277E-25
1.46447E-01 3.86165E-25
1.49545E-01 3.66266E-25
1.52671E-01 3.47501E-25
1.55823E-01 3.29798E-25
1.59001E-01 3.13089E-25
1.62205E-01 2.97312E-25
1.65435E-01 2.82409E-25
1.68690E-01 2.68326E-25
1.71970E-01 2.55011E-25
1.75276E-01 2.42420E-25
1.78606E-01 2.30507E-25
1.81961E-01 2.19232E-25
1.85340E-01 2.08558E-25
1.88743E-01 1.98448E-25
1.92169E-01 1.88870E-25
1.95619E-01 1.79793E-25
1.99092E-01 1.71188E-25
2.02589E-01 1.63028E-25
2.06107E-01 1.55287E-25
2.09649E-01 1.47943E-25
2.13212E-01 1.40972E-25
2.16797E-01 1.34354E-25
2.20404E-01 1.28069E-25
2.24032E-01 1.22100E-25
2.27680E-01 1.16428E-25
2.31350E-01 1.11037E-25
2.35040E-01 1.05913E-25
2.38751E-01 1.01042E-25
2.42481E-01 9.64083E-26
2.46231E-01 9.20010E-26
2.50000E-01 8.78077E-26
2.53788E-01 8.38171E-26
2.57595E-01 8.00188E-26
2.61421E-01 7.64027E-26
2.65264E-01 7.29595E-26
2.69126E-01 6.96802E-26
2.73005E-01 6.65564E-26
2.76901E-01 6.35803E-26
2.80814E-01 6.07443E-26
2.84744E-01 5.80415E-26
2.88691E-01 5.54651E-26
2.92653E-01 5.30088E-26
2.96632E-01 5.06667E-26
3.00625E-01 4.84330E-26
3.04634E-01 4.63026E-26
3.08658E-01 4.42702E-26
3.12697E-01 4.23312E-26
3.16749E-01 4.04809E-26
3.20816E-01 3.87151E-26
3.24896E-01 3.70297E-26
3.28990E-01 3.54208E-26
3.33097E-01 3.38848E-26
3.37216E-01 3.24181E-26
3.41348E-01 3.10176E-26
3.45492E-01 2.96799E-26
3.49647E-01 2.84023E-26
3.53814E-01 2.71818E-26
3.57992E-01 2.60159E-26
3.62181E-01 2.49018E-26
3.66381E-01 2.38372E-26
3.70590E-01 2.28199E-26
3.74810E-01 2.18476E-26
3.79039E-01 2.09182E-26
3.83277E-01 2.00298E-26
3.87524E-01 1.91804E-26
3.91780E-01 1.83684E-26
3.96044E-01 1.75920E-26
4.00316E-01 1.68495E-26
4.04596E-01 1.61394E-26
4.08882E-01 1.54603E-26
4.13176E-01 1.48108E-26
4.17476E-01 1.41895E-26
4.21783E-01 1.35951E-26
4.26095E-01 1.30265E-26
4.30413E-01 1.24824E-26
4.34737E-01 1.19619E-26
4.39065E-01 1.14638E-26
4.43398E-01 1.09871E-26
4.47736E-01 1.05310E-26
4.52077E-01 1.00944E-26
4.56422E-01 9.67654E-27
4.60770E-01 9.27657E-27
4.65122E-01 8.89370E-27
4.69476E-01 8.52718E-27
4.73832E-01 8.17629E-27
4.78190E-01 7.84034E-27
4.82550E-01 7.51869E-27
4.86912E-01 7.21070E-27
4.91274E-01 6.91578E-27
4.95637E-01 6.63337E-27
5.00000E-01 6.36290E-27
5.04363E-01 6.10388E-27
5.08726E-01 5.85579E-27
5.13088E-01 5.61817E-27
5.17450E-01 5.39056E-27
5.21810E-01 5.17254E-27
5.26168E-01 4.96368E-27
5.30524E-01 4.76359E-27
5.34878E-01 4.57189E-27
5.39230E-01 4.38823E-27
5.43578E-01 4.21225E-27
5.47923E-01 4.04363E-27
5.52264E-01 3.88206E-27
5.56602E-01 3.72722E-27
5.60935E-01 3.57883E-27
5.65263E-01 3.43662E-27
5.69587E-01 3.30033E-27
5.73905E-01 3.16969E-27
5.78217E-01 3.04447E-27
5.82524E-01 2.92443E-27
5.86824E-01 2.80937E-27
5.91118E-01 2.69906E-27
5.95404E-01 2.59330E-27
5.99684E-01 2.49190E-27
6.03956E-01 2.39468E-27
6.08220E-01 2.30145E-27
6.12476E-01 2.21206E-27
6.16723E-01 2.12633E-27
6.20961E-01 2.04411E-27
6.25190E-01 1.96525E-27
6.29410E-01 1.88961E-27
6.33619E-01 1.81706E-27
6.37819E-01 1.74746E-27
6.42008E-01 1.68070E-27
6.46186E-01 1.61664E-27
6.50353E-01 1.55518E-27
6.54508E-01 1.49620E-27
6.58652E-01 1.43961E-27
6.62784E-01 1.38530E-27
6.66903E-01 1.33318E-27
6.71010E-01 1.28315E-27
6.75104E-01 1.23512E-27
6.79184E-01 1.18902E-27
6.83251E-01 1.14476E-27
6.87303E-01 1.10227E-27
6.91342E-01 1.06147E-27
6.95366E-01 1.02228E-27
6.99375E-01 9.84651E-28
7.03368E-01 9.48507E-28
7.07347E-01 9.13787E-28
7.11309E-01 8.80434E-28
7.15256E-01 8.48389E-28
7.19186E-01 8.17598E-28
7.23099E-01 7.88010E-28
7.26995E-01 7.59573E-28
7.30874E-01 7.32240E-28
7.34736E-01 7.05966E-28
7.38579E-01 6.80706E-28
7.42405E-01 6.56418E-28
7.46212E-01 6.33061E-28
7.50000E-01 6.10598E-28
7.53769E-01 5.88992E-28
7.57519E-01 5.68206E-28
7.61249E-01 5.48208E-28
7.64960E-01 5.28964E-28
7.68650E-01 5.10444E-28
7.72320E-01 4.92617E-28
7.75968E-01 4.75456E-28
7.79596E-01 4.58933E-28
7.83203E-01 4.43022E-28
7.86788E-01 4.27698E-28
7.90351E-01 4.12937E-28
7.93893E-01 3.98715E-28
7.97411E-01 3.85012E-28
8.00908E-01 3.71806E-28
8.04381E-01 3.59076E-28
8.07831E-01 3.46804E-28
8.11257E-01 3.34971E-28
8.14660E-01 3.23559E-28
8.18039E-01 3.12552E-28
8.21394E-01 3.01933E-28
8.24724E-01 2.91686E-28
8.28030E-01 2.81797E-28
8.31310E-01 2.72252E-28
8.34565E-01 2.63036E-28
8.37795E-01 2.54138E-28
8.40999E-01 2.45544E-28
8.44177E-01 2.37242E-28
8.47329E-01 2.29221E-28
8.50455E-01 2.21470E-28
8.53553E-01 2.13978E-28
8.56625E-01 2.06736E-28
8.59670E-01 1.99733E-28
8.62687E-01 1.92961E-28
8.65677E-01 1.86411E-28
8.68639E-01 1.80074E-28
8.71572E-01 1.73942E-28
8.74478E-01 1.68008E-28
8.77355E-01 1.62264E-28
8.80203E-01 1.56703E-28
8.83022E-01 1.51318E-28
8.85812E-01 1.46102E-28
8.88573E-01 1.41051E-28
8.91304E-01 1.36156E-28
8.94005E-01 1.31414E-28
8.96677E-01 1.26818E-28
8.99318E-01 1.22363E-28
9.01928E-01 1.18044E-28
9.04508E-01 1.13857E-28
9.07058E-01 1.09797E-28
9.09576E-01 1.05859E-28
9.12063E-01 1.02040E-28
9.14519E-01 9.83344E-29
9.16943E-01 9.47398E-29
9.19335E-01 9.12519E-29
9.21696E-01 8.78674E-29
9.24024E-01 8.45829E-29
9.26320E-01 8.13952E-29
9.28584E-01 7.83011E-29
9.30815E-01 7.52979E-29
9.33013E-01 7.23826E-29
9.35178E-01 6.95527E-29
9.37310E-01 6.68054E-29
9.39409E-01 6.41385E-29
9.41474E-01 6.15495E-29
9.43505E-01 5.90361E-29
9.45503E-01 5.65964E-29
9.47467E-01 5.42281E-29
9.49397E-01 5.19294E-29
9.51293E-01 4.96984E-29
9.53154E-01 4.75332E-29
9.54981E-01 4.54323E-29
9.56773E-01 4.33939E-29
9.58530E-01 4.14164E-29
9.60252E-01 3.94985E-29
9.61940E-01 3.76386E-29
9.63592E-01 3.58355E-29
9.65209E-01 3.40878E-29
9.66790E-01 3.23942E-29
9.68336E-01 3.07536E-29
9.69846E-01 2.91650E-29
9.71321E-01 2.76271E-29
9.72759E-01 2.61389E-29
9.74162E-01 2.46996E-29
9.75528E-01 2.33081E-29
9.76858E-01 2.19635E-29
9.78152E-01 2.06651E-29
9.79410E-01 1.94120E-29
9.80631E-01 1.82034E-29
9.81815E-01 1.70387E-29
9.82963E-01 1.59170E-29
9.84074E-01 1.48378E-29
9.85148E-01 1.38004E-29
9.86185E-01 1.28043E-29
9.87185E-01 1.18488E-29
9.88148E-01 1.09334E-29
9.89074E-01 1.00577E-29
9.89962E-01 9.22112E-30
9.90814E-01 8.42322E-30
9.91627E-01 7.66357E-30
9.92404E-01 6.94179E-30
9.93143E-01 6.25748E-30
9.93844E-01 5.61029E-30
9.94508E-01 4.99990E-30
9.95134E-01 4.42597E-30
9.95722E-01 3.88824E-30
9.96273E-01 3.38642E-30
9.96786E-01 2.92026E-30
9.97261E-01 2.48954E-30
9.97698E-01 2.09403E-30
9.98097E-01 1.73356E-30
9.98459E-01 1.40793E-30
9.98782E-01 1.11700E-30
9.99067E-01 8.60622E-31
9.99315E-01 6.38675E-31
9.99524E-01 4.51052E-31
9.99695E-01 2.97664E-31
9.99829E-01 1.78437E-31
9.99924E-01 9.33159E-32
9.99981E-01 4.22591E-32
1.00000E+00 2.52436E-32
