 #
 # Subroutine ELSEPA. Elastic scattering of electrons and positrons
 #                    by neutral atoms and positive ions
 #
 # Projectile: electron
 # Kinetic energy = 4.00000E+07 eV = 1.46997E+06 a.u.
 #
 # WARNING: High-energy factorization with free-atom DF screening.
 #          Absorption, polarization and exchange corrections are
 #          switched off.
 #          Phase shifts are calculated for the bare nucleus.
 #          Scattering amplitudes are not evaluated.
 #
 # Element: Er,  Z =  68,  atomic weight = 1.67260E+02 g/mol
 #
 # Nuclear model: Fermi distribution
 #                Average radius = 5.89542E-13 cm
 #                Skin thickness = 5.46000E-14 cm
 #
 # Number of electrons = 68
 #
 # Total elastic cross section = 7.05491E-18 cm**2 = 2.51935E-01 a0**2
 # 1st transport cross section = 5.44080E-24 cm**2 = 1.94294E-07 a0**2
 # 2nd transport cross section = 1.58205E-23 cm**2 = 5.64960E-07 a0**2
 #
 #
 # Differential cross section:                       MU=(1-COS(THETA))/2
 #
 #  THETA        MU          DCS          DCS        Sherman      error
 #  (deg)                 (cm**2/sr)   (a0**2/sr)    function
 #----------------------------------------------------------------------
0.00000E+00 1.18584E-10
7.61557E-13 1.18496E-10
1.18994E-12 1.18447E-10
1.71346E-12 1.18387E-10
2.33225E-12 1.18316E-10
3.04617E-12 1.18235E-10
3.85530E-12 1.18142E-10
4.75964E-12 1.18039E-10
5.75917E-12 1.17925E-10
6.85391E-12 1.17801E-10
8.04379E-12 1.17666E-10
9.32893E-12 1.17520E-10
1.07092E-11 1.17364E-10
1.21847E-11 1.17198E-10
1.37554E-11 1.17021E-10
1.54213E-11 1.16835E-10
1.71823E-11 1.16638E-10
1.90386E-11 1.16431E-10
2.09900E-11 1.16214E-10
2.30367E-11 1.15987E-10
2.51785E-11 1.15751E-10
2.74156E-11 1.15505E-10
2.97478E-11 1.15249E-10
3.21752E-11 1.14984E-10
3.46979E-11 1.14710E-10
3.73157E-11 1.14427E-10
4.00286E-11 1.14134E-10
4.28368E-11 1.13833E-10
4.57402E-11 1.13522E-10
4.87388E-11 1.13203E-10
5.18325E-11 1.12876E-10
5.50215E-11 1.12540E-10
5.83057E-11 1.12196E-10
6.16850E-11 1.11844E-10
6.51595E-11 1.11484E-10
6.87293E-11 1.11116E-10
7.23943E-11 1.10740E-10
7.61544E-11 1.10357E-10
1.18991E-10 1.06147E-10
1.71347E-10 1.01377E-10
2.33223E-10 9.61859E-11
3.04617E-10 9.07510E-11
3.85531E-10 8.52356E-11
4.75965E-10 7.97409E-11
5.75917E-10 7.43671E-11
6.85389E-10 6.92191E-11
8.04380E-10 6.43496E-11
9.32891E-10 5.97721E-11
1.07092E-09 5.55069E-11
1.21847E-09 5.15881E-11
1.37554E-09 4.79893E-11
1.54213E-09 4.46892E-11
1.71823E-09 4.16732E-11
1.90386E-09 3.89411E-11
2.09900E-09 3.64494E-11
2.30367E-09 3.41768E-11
2.51785E-09 3.21054E-11
2.74156E-09 3.02210E-11
2.97478E-09 2.84952E-11
3.21752E-09 2.69133E-11
3.46978E-09 2.54613E-11
3.73156E-09 2.41237E-11
4.00286E-09 2.28884E-11
4.28368E-09 2.17455E-11
4.57402E-09 2.06841E-11
4.87388E-09 1.96943E-11
5.18326E-09 1.87715E-11
5.50215E-09 1.79098E-11
5.83057E-09 1.70998E-11
6.16850E-09 1.63376E-11
6.51596E-09 1.56214E-11
6.87293E-09 1.49475E-11
7.23942E-09 1.43075E-11
7.61544E-09 1.37021E-11
1.18991E-08 9.08951E-12
1.71347E-08 6.11504E-12
2.33223E-08 4.31674E-12
3.04617E-08 3.10565E-12
3.85531E-08 2.27649E-12
4.75965E-08 1.71148E-12
5.75917E-08 1.31278E-12
6.85389E-08 1.01943E-12
8.04380E-08 8.01196E-13
9.32891E-08 6.38056E-13
1.07092E-07 5.13778E-13
1.21847E-07 4.16565E-13
1.37554E-07 3.40810E-13
1.54213E-07 2.81396E-13
1.71823E-07 2.34276E-13
1.90386E-07 1.96304E-13
2.09900E-07 1.65790E-13
2.30367E-07 1.41058E-13
2.51785E-07 1.20835E-13
2.74156E-07 1.04119E-13
2.97478E-07 9.02752E-14
3.21752E-07 7.87290E-14
3.46978E-07 6.90338E-14
3.73156E-07 6.07663E-14
4.00286E-07 5.37349E-14
4.28368E-07 4.77235E-14
4.57402E-07 4.25490E-14
4.87388E-07 3.80693E-14
5.18325E-07 3.41786E-14
5.50215E-07 3.07831E-14
5.83057E-07 2.77980E-14
6.16850E-07 2.51654E-14
6.51596E-07 2.28392E-14
6.87293E-07 2.07765E-14
7.23942E-07 1.89355E-14
7.61543E-07 1.72933E-14
1.18991E-06 7.68248E-15
1.71347E-06 3.89796E-15
2.33223E-06 2.18173E-15
3.04617E-06 1.31498E-15
3.85531E-06 8.39539E-16
4.75964E-06 5.61082E-16
5.75916E-06 3.89180E-16
6.85388E-06 2.78379E-16
8.04378E-06 2.04345E-16
9.32888E-06 1.53338E-16
1.07092E-05 1.17285E-16
1.21846E-05 9.12209E-17
1.37553E-05 7.20017E-17
1.54212E-05 5.75814E-17
1.71822E-05 4.65929E-17
1.90385E-05 3.80829E-17
2.09899E-05 3.14602E-17
2.30365E-05 2.62120E-17
2.51783E-05 2.20081E-17
2.74153E-05 1.86097E-17
2.97475E-05 1.58406E-17
3.21749E-05 1.35679E-17
3.46974E-05 1.16896E-17
3.73152E-05 1.01269E-17
4.00281E-05 8.81794E-18
4.28362E-05 7.71441E-18
4.57395E-05 6.77833E-18
4.87380E-05 5.97982E-18
5.18317E-05 5.29523E-18
5.50205E-05 4.70566E-18
5.83045E-05 4.19588E-18
6.16838E-05 3.75339E-18
6.51582E-05 3.36790E-18
6.87277E-05 3.03081E-18
7.23925E-05 2.73498E-18
7.61524E-05 2.47460E-18
9.21439E-05 1.69710E-18
1.09658E-04 1.20245E-18
1.28695E-04 8.75758E-19
1.49255E-04 6.52857E-19
1.71338E-04 4.96640E-19
1.94942E-04 3.84493E-19
2.20070E-04 3.02312E-19
2.46720E-04 2.40978E-19
2.74892E-04 1.94450E-19
3.04586E-04 1.58641E-19
3.35803E-04 1.30716E-19
3.68542E-04 1.08681E-19
4.02802E-04 9.11060E-20
4.38585E-04 7.69492E-20
4.75889E-04 6.54427E-20
5.14715E-04 5.60123E-20
5.55063E-04 4.82243E-20
5.96931E-04 4.17466E-20
6.40321E-04 3.63233E-20
6.85233E-04 3.17546E-20
7.31665E-04 2.78840E-20
7.79618E-04 2.45870E-20
8.29092E-04 2.17646E-20
8.80086E-04 1.93369E-20
9.32601E-04 1.72394E-20
9.86636E-04 1.54197E-20
1.04219E-03 1.38347E-20
1.09927E-03 1.24489E-20
1.15786E-03 1.12329E-20
1.21797E-03 1.01624E-20
1.27961E-03 9.21694E-21
1.34276E-03 8.37936E-21
1.40743E-03 7.63519E-21
1.47362E-03 6.97217E-21
1.54133E-03 6.37990E-21
1.61056E-03 5.84950E-21
1.68131E-03 5.37335E-21
1.75357E-03 4.94491E-21
1.82735E-03 4.55854E-21
1.90265E-03 4.20938E-21
1.97947E-03 3.89319E-21
2.05780E-03 3.60631E-21
2.13765E-03 3.34550E-21
2.21902E-03 3.10799E-21
2.30190E-03 2.89132E-21
2.38630E-03 2.69331E-21
2.47222E-03 2.51206E-21
2.55965E-03 2.34590E-21
2.64859E-03 2.19335E-21
2.73905E-03 2.05307E-21
2.83103E-03 1.92391E-21
2.92452E-03 1.80481E-21
3.01952E-03 1.69485E-21
3.11604E-03 1.59319E-21
3.21407E-03 1.49910E-21
3.31362E-03 1.41190E-21
3.41468E-03 1.33100E-21
3.51725E-03 1.25585E-21
3.62133E-03 1.18597E-21
3.72692E-03 1.12092E-21
3.83403E-03 1.06031E-21
3.94265E-03 1.00377E-21
4.05278E-03 9.50975E-22
4.16442E-03 9.01636E-22
4.27757E-03 8.55481E-22
4.39223E-03 8.12266E-22
4.50840E-03 7.71769E-22
4.62608E-03 7.33785E-22
4.74527E-03 6.98129E-22
4.86597E-03 6.64631E-22
4.98817E-03 6.33136E-22
5.11188E-03 6.03500E-22
5.23711E-03 5.75593E-22
5.36383E-03 5.49295E-22
5.49207E-03 5.24496E-22
5.62181E-03 5.01093E-22
5.75306E-03 4.78992E-22
5.88581E-03 4.58108E-22
6.02007E-03 4.38360E-22
6.15583E-03 4.19674E-22
6.29310E-03 4.01983E-22
6.43187E-03 3.85223E-22
6.57214E-03 3.69335E-22
6.71392E-03 3.54266E-22
6.85720E-03 3.39965E-22
7.00198E-03 3.26385E-22
7.14827E-03 3.13483E-22
7.29605E-03 3.01218E-22
7.44534E-03 2.89553E-22
7.59612E-03 2.78453E-22
7.97965E-03 2.52963E-22
8.37255E-03 2.30351E-22
8.77480E-03 2.10232E-22
9.18641E-03 1.92283E-22
9.60736E-03 1.76226E-22
1.00376E-02 1.61826E-22
1.04773E-02 1.48881E-22
1.09262E-02 1.37216E-22
1.13844E-02 1.26682E-22
1.18520E-02 1.17148E-22
1.23288E-02 1.08503E-22
1.28150E-02 1.00648E-22
1.33104E-02 9.34972E-23
1.38150E-02 8.69759E-23
1.43290E-02 8.10182E-23
1.48521E-02 7.55665E-23
1.53845E-02 7.05693E-23
1.59262E-02 6.59806E-23
1.64770E-02 6.17618E-23
1.70371E-02 5.78773E-23
1.76063E-02 5.42956E-23
1.81848E-02 5.09887E-23
1.87724E-02 4.79313E-23
1.93692E-02 4.51012E-23
1.99751E-02 4.24782E-23
2.05901E-02 4.00442E-23
2.12143E-02 3.77829E-23
2.18476E-02 3.56799E-23
2.24900E-02 3.37218E-23
2.31415E-02 3.18968E-23
2.38021E-02 3.01941E-23
2.44717E-02 2.86039E-23
2.51504E-02 2.71174E-23
2.58382E-02 2.57264E-23
2.65349E-02 2.44236E-23
2.72407E-02 2.32025E-23
2.79555E-02 2.20568E-23
2.86793E-02 2.09810E-23
2.94120E-02 1.99700E-23
3.01537E-02 1.90191E-23
3.09043E-02 1.81242E-23
3.16639E-02 1.72812E-23
3.24324E-02 1.64866E-23
3.32098E-02 1.57370E-23
3.39961E-02 1.50294E-23
3.47912E-02 1.43610E-23
3.55952E-02 1.37291E-23
3.64081E-02 1.31315E-23
3.72297E-02 1.25659E-23
3.80602E-02 1.20302E-23
3.88995E-02 1.15226E-23
3.97476E-02 1.10413E-23
4.06044E-02 1.05847E-23
4.14700E-02 1.01512E-23
4.23443E-02 9.73950E-24
4.32273E-02 9.34825E-24
4.41190E-02 8.97625E-24
4.50194E-02 8.62236E-24
4.59284E-02 8.28554E-24
4.68461E-02 7.96480E-24
4.87074E-02 7.36796E-24
5.06030E-02 6.82522E-24
5.25328E-02 6.33080E-24
5.44967E-02 5.87960E-24
5.64946E-02 5.46717E-24
5.85262E-02 5.08958E-24
6.05914E-02 4.74334E-24
6.26901E-02 4.42540E-24
6.48222E-02 4.13302E-24
6.69873E-02 3.86378E-24
6.91854E-02 3.61552E-24
7.14163E-02 3.38631E-24
7.36799E-02 3.17444E-24
7.59760E-02 2.97836E-24
7.83043E-02 2.79668E-24
8.06647E-02 2.62817E-24
8.30571E-02 2.47170E-24
8.54812E-02 2.32626E-24
8.79369E-02 2.19094E-24
9.04240E-02 2.06492E-24
9.29422E-02 1.94743E-24
9.54915E-02 1.83782E-24
9.80716E-02 1.73546E-24
1.00682E-01 1.63978E-24
1.03323E-01 1.55029E-24
1.05995E-01 1.46650E-24
1.08696E-01 1.38801E-24
1.11427E-01 1.31441E-24
1.14188E-01 1.24536E-24
1.16978E-01 1.18052E-24
1.19797E-01 1.11960E-24
1.22645E-01 1.06233E-24
1.25522E-01 1.00844E-24
1.28428E-01 9.57708E-25
1.31361E-01 9.09920E-25
1.34323E-01 8.64877E-25
1.37313E-01 8.22398E-25
1.40330E-01 7.82313E-25
1.43375E-01 7.44467E-25
1.46447E-01 7.08715E-25
1.49545E-01 6.74925E-25
1.52671E-01 6.42972E-25
1.55823E-01 6.12742E-25
1.59001E-01 5.84129E-25
1.62205E-01 5.57032E-25
1.65435E-01 5.31360E-25
1.68690E-01 5.07028E-25
1.71970E-01 4.83954E-25
1.75276E-01 4.62066E-25
1.78606E-01 4.41294E-25
1.81961E-01 4.21572E-25
1.85340E-01 4.02840E-25
1.88743E-01 3.85043E-25
1.92169E-01 3.68126E-25
1.95619E-01 3.52041E-25
1.99092E-01 3.36741E-25
2.02589E-01 3.22184E-25
2.06107E-01 3.08327E-25
2.09649E-01 2.95133E-25
2.13212E-01 2.82567E-25
2.16797E-01 2.70595E-25
2.20404E-01 2.59184E-25
2.24032E-01 2.48306E-25
2.27680E-01 2.37933E-25
2.31350E-01 2.28039E-25
2.35040E-01 2.18597E-25
2.38751E-01 2.09587E-25
2.42481E-01 2.00985E-25
2.46231E-01 1.92770E-25
2.50000E-01 1.84924E-25
2.53788E-01 1.77428E-25
2.57595E-01 1.70265E-25
2.61421E-01 1.63417E-25
2.65264E-01 1.56871E-25
2.69126E-01 1.50611E-25
2.73005E-01 1.44622E-25
2.76901E-01 1.38893E-25
2.80814E-01 1.33411E-25
2.84744E-01 1.28164E-25
2.88691E-01 1.23140E-25
2.92653E-01 1.18330E-25
2.96632E-01 1.13724E-25
3.00625E-01 1.09311E-25
3.04634E-01 1.05084E-25
3.08658E-01 1.01033E-25
3.12697E-01 9.71502E-26
3.16749E-01 9.34284E-26
3.20816E-01 8.98601E-26
3.24896E-01 8.64384E-26
3.28990E-01 8.31567E-26
3.33097E-01 8.00088E-26
3.37216E-01 7.69888E-26
3.41348E-01 7.40909E-26
3.45492E-01 7.13099E-26
3.49647E-01 6.86406E-26
3.53814E-01 6.60781E-26
3.57992E-01 6.36179E-26
3.62181E-01 6.12554E-26
3.66381E-01 5.89866E-26
3.70590E-01 5.68074E-26
3.74810E-01 5.47139E-26
3.79039E-01 5.27026E-26
3.83277E-01 5.07699E-26
3.87524E-01 4.89126E-26
3.91780E-01 4.71275E-26
3.96044E-01 4.54116E-26
4.00316E-01 4.37619E-26
4.04596E-01 4.21759E-26
4.08882E-01 4.06507E-26
4.13176E-01 3.91840E-26
4.17476E-01 3.77733E-26
4.21783E-01 3.64163E-26
4.26095E-01 3.51109E-26
4.30413E-01 3.38550E-26
4.34737E-01 3.26465E-26
4.39065E-01 3.14836E-26
4.43398E-01 3.03643E-26
4.47736E-01 2.92871E-26
4.52077E-01 2.82501E-26
4.56422E-01 2.72519E-26
4.60770E-01 2.62908E-26
4.65122E-01 2.53654E-26
4.69476E-01 2.44742E-26
4.73832E-01 2.36160E-26
4.78190E-01 2.27895E-26
4.82550E-01 2.19933E-26
4.86912E-01 2.12264E-26
4.91274E-01 2.04876E-26
4.95637E-01 1.97758E-26
5.00000E-01 1.90899E-26
5.04363E-01 1.84290E-26
5.08726E-01 1.77921E-26
5.13088E-01 1.71782E-26
5.17450E-01 1.65866E-26
5.21810E-01 1.60163E-26
5.26168E-01 1.54665E-26
5.30524E-01 1.49365E-26
5.34878E-01 1.44255E-26
5.39230E-01 1.39328E-26
5.43578E-01 1.34577E-26
5.47923E-01 1.29995E-26
5.52264E-01 1.25576E-26
5.56602E-01 1.21315E-26
5.60935E-01 1.17204E-26
5.65263E-01 1.13239E-26
5.69587E-01 1.09414E-26
5.73905E-01 1.05723E-26
5.78217E-01 1.02163E-26
5.82524E-01 9.87269E-27
5.86824E-01 9.54118E-27
5.91118E-01 9.22126E-27
5.95404E-01 8.91252E-27
5.99684E-01 8.61453E-27
6.03956E-01 8.32692E-27
6.08220E-01 8.04929E-27
6.12476E-01 7.78129E-27
6.16723E-01 7.52256E-27
6.20961E-01 7.27277E-27
6.25190E-01 7.03159E-27
6.29410E-01 6.79871E-27
6.33619E-01 6.57383E-27
6.37819E-01 6.35667E-27
6.42008E-01 6.14694E-27
6.46186E-01 5.94437E-27
6.50353E-01 5.74872E-27
6.54508E-01 5.55972E-27
6.58652E-01 5.37715E-27
6.62784E-01 5.20078E-27
6.66903E-01 5.03037E-27
6.71010E-01 4.86573E-27
6.75104E-01 4.70664E-27
6.79184E-01 4.55291E-27
6.83251E-01 4.40435E-27
6.87303E-01 4.26077E-27
6.91342E-01 4.12200E-27
6.95366E-01 3.98787E-27
6.99375E-01 3.85822E-27
7.03368E-01 3.73288E-27
7.07347E-01 3.61172E-27
7.11309E-01 3.49457E-27
7.15256E-01 3.38130E-27
7.19186E-01 3.27178E-27
7.23099E-01 3.16587E-27
7.26995E-01 3.06345E-27
7.30874E-01 2.96439E-27
7.34736E-01 2.86858E-27
7.38579E-01 2.77591E-27
7.42405E-01 2.68627E-27
7.46212E-01 2.59955E-27
7.50000E-01 2.51565E-27
7.53769E-01 2.43448E-27
7.57519E-01 2.35594E-27
7.61249E-01 2.27994E-27
7.64960E-01 2.20640E-27
7.68650E-01 2.13522E-27
7.72320E-01 2.06633E-27
7.75968E-01 1.99965E-27
7.79596E-01 1.93511E-27
7.83203E-01 1.87263E-27
7.86788E-01 1.81214E-27
7.90351E-01 1.75358E-27
7.93893E-01 1.69687E-27
7.97411E-01 1.64197E-27
8.00908E-01 1.58879E-27
8.04381E-01 1.53730E-27
8.07831E-01 1.48743E-27
8.11257E-01 1.43913E-27
8.14660E-01 1.39233E-27
8.18039E-01 1.34701E-27
8.21394E-01 1.30310E-27
8.24724E-01 1.26055E-27
8.28030E-01 1.21933E-27
8.31310E-01 1.17939E-27
8.34565E-01 1.14069E-27
8.37795E-01 1.10318E-27
8.40999E-01 1.06683E-27
8.44177E-01 1.03159E-27
8.47329E-01 9.97443E-28
8.50455E-01 9.64339E-28
8.53553E-01 9.32247E-28
8.56625E-01 9.01135E-28
8.59670E-01 8.70971E-28
8.62687E-01 8.41724E-28
8.65677E-01 8.13365E-28
8.68639E-01 7.85866E-28
8.71572E-01 7.59198E-28
8.74478E-01 7.33336E-28
8.77355E-01 7.08254E-28
8.80203E-01 6.83927E-28
8.83022E-01 6.60332E-28
8.85812E-01 6.37444E-28
8.88573E-01 6.15243E-28
8.91304E-01 5.93706E-28
8.94005E-01 5.72813E-28
8.96677E-01 5.52545E-28
8.99318E-01 5.32881E-28
9.01928E-01 5.13804E-28
9.04508E-01 4.95295E-28
9.07058E-01 4.77337E-28
9.09576E-01 4.59914E-28
9.12063E-01 4.43008E-28
9.14519E-01 4.26606E-28
9.16943E-01 4.10692E-28
9.19335E-01 3.95251E-28
9.21696E-01 3.80270E-28
9.24024E-01 3.65734E-28
9.26320E-01 3.51632E-28
9.28584E-01 3.37950E-28
9.30815E-01 3.24677E-28
9.33013E-01 3.11801E-28
9.35178E-01 2.99310E-28
9.37310E-01 2.87194E-28
9.39409E-01 2.75443E-28
9.41474E-01 2.64046E-28
9.43505E-01 2.52993E-28
9.45503E-01 2.42276E-28
9.47467E-01 2.31885E-28
9.49397E-01 2.21812E-28
9.51293E-01 2.12048E-28
9.53154E-01 2.02585E-28
9.54981E-01 1.93415E-28
9.56773E-01 1.84531E-28
9.58530E-01 1.75925E-28
9.60252E-01 1.67592E-28
9.61940E-01 1.59523E-28
9.63592E-01 1.51713E-28
9.65209E-01 1.44155E-28
9.66790E-01 1.36843E-28
9.68336E-01 1.29772E-28
9.69846E-01 1.22937E-28
9.71321E-01 1.16330E-28
9.72759E-01 1.09949E-28
9.74162E-01 1.03787E-28
9.75528E-01 9.78406E-29
9.76858E-01 9.21045E-29
9.78152E-01 8.65746E-29
9.79410E-01 8.12466E-29
9.80631E-01 7.61167E-29
9.81815E-01 7.11810E-29
9.82963E-01 6.64359E-29
9.84074E-01 6.18777E-29
9.85148E-01 5.75033E-29
9.86185E-01 5.33093E-29
9.87185E-01 4.92928E-29
9.88148E-01 4.54508E-29
9.89074E-01 4.17805E-29
9.89962E-01 3.82793E-29
9.90814E-01 3.49447E-29
9.91627E-01 3.17742E-29
9.92404E-01 2.87658E-29
9.93143E-01 2.59171E-29
9.93844E-01 2.32262E-29
9.94508E-01 2.06913E-29
9.95134E-01 1.83104E-29
9.95722E-01 1.60820E-29
9.96273E-01 1.40045E-29
9.96786E-01 1.20765E-29
9.97261E-01 1.02965E-29
9.97698E-01 8.66343E-30
9.98097E-01 7.17610E-30
9.98459E-01 5.83349E-30
9.98782E-01 4.63467E-30
9.99067E-01 3.57882E-30
9.99315E-01 2.66520E-30
9.99524E-01 1.89320E-30
9.99695E-01 1.26228E-30
9.99829E-01 7.72015E-31
9.99924E-01 4.22063E-31
9.99981E-01 2.12188E-31
1.00000E+00 1.42248E-31
