 #
 # Subroutine ELSEPA. Elastic scattering of electrons and positrons
 #                    by neutral atoms and positive ions
 #
 # Projectile: electron
 # Kinetic energy = 4.50000E+06 eV = 1.65372E+05 a.u.
 #
 # WARNING: High-energy factorization with free-atom DF screening.
 #          Absorption, polarization and exchange corrections are
 #          switched off.
 #          Phase shifts are calculated for the bare nucleus.
 #          Scattering amplitudes are not evaluated.
 #
 # Element: Er,  Z =  68,  atomic weight = 1.67260E+02 g/mol
 #
 # Nuclear model: Fermi distribution
 #                Average radius = 5.89542E-13 cm
 #                Skin thickness = 5.46000E-14 cm
 #
 # Number of electrons = 68
 #
 # Total elastic cross section = 7.13366E-18 cm**2 = 2.54748E-01 a0**2
 # 1st transport cross section = 3.02452E-22 cm**2 = 1.08007E-05 a0**2
 # 2nd transport cross section = 8.24541E-22 cm**2 = 2.94449E-05 a0**2
 #
 #
 # Differential cross section:                       MU=(1-COS(THETA))/2
 #
 #  THETA        MU          DCS          DCS        Sherman      error
 #  (deg)                 (cm**2/sr)   (a0**2/sr)    function
 #----------------------------------------------------------------------
0.00000E+00 1.81438E-12
7.61557E-13 1.81436E-12
1.18994E-12 1.81435E-12
1.71346E-12 1.81434E-12
2.33225E-12 1.81432E-12
3.04617E-12 1.81430E-12
3.85530E-12 1.81428E-12
4.75964E-12 1.81426E-12
5.75917E-12 1.81423E-12
6.85391E-12 1.81420E-12
8.04379E-12 1.81417E-12
9.32893E-12 1.81414E-12
1.07092E-11 1.81410E-12
1.21847E-11 1.81406E-12
1.37554E-11 1.81402E-12
1.54213E-11 1.81398E-12
1.71823E-11 1.81393E-12
1.90386E-11 1.81388E-12
2.09900E-11 1.81383E-12
2.30367E-11 1.81377E-12
2.51785E-11 1.81372E-12
2.74156E-11 1.81366E-12
2.97478E-11 1.81359E-12
3.21752E-11 1.81353E-12
3.46979E-11 1.81346E-12
3.73157E-11 1.81339E-12
4.00286E-11 1.81332E-12
4.28368E-11 1.81325E-12
4.57402E-11 1.81317E-12
4.87388E-11 1.81309E-12
5.18325E-11 1.81301E-12
5.50215E-11 1.81292E-12
5.83057E-11 1.81284E-12
6.16850E-11 1.81275E-12
6.51595E-11 1.81266E-12
6.87293E-11 1.81256E-12
7.23943E-11 1.81246E-12
7.61544E-11 1.81236E-12
1.18991E-10 1.81123E-12
1.71347E-10 1.80984E-12
2.33223E-10 1.80821E-12
3.04617E-10 1.80632E-12
3.85531E-10 1.80419E-12
4.75965E-10 1.80181E-12
5.75917E-10 1.79919E-12
6.85389E-10 1.79632E-12
8.04380E-10 1.79322E-12
9.32891E-10 1.78988E-12
1.07092E-09 1.78630E-12
1.21847E-09 1.78248E-12
1.37554E-09 1.77844E-12
1.54213E-09 1.77417E-12
1.71823E-09 1.76967E-12
1.90386E-09 1.76495E-12
2.09900E-09 1.76001E-12
2.30367E-09 1.75486E-12
2.51785E-09 1.74949E-12
2.74156E-09 1.74392E-12
2.97478E-09 1.73813E-12
3.21752E-09 1.73215E-12
3.46978E-09 1.72597E-12
3.73156E-09 1.71960E-12
4.00286E-09 1.71303E-12
4.28368E-09 1.70628E-12
4.57402E-09 1.69935E-12
4.87388E-09 1.69224E-12
5.18326E-09 1.68496E-12
5.50215E-09 1.67751E-12
5.83057E-09 1.66990E-12
6.16850E-09 1.66213E-12
6.51596E-09 1.65420E-12
6.87293E-09 1.64613E-12
7.23942E-09 1.63790E-12
7.61544E-09 1.62954E-12
1.18991E-08 1.53944E-12
1.71347E-08 1.44037E-12
2.33223E-08 1.33696E-12
3.04617E-08 1.23312E-12
3.85531E-08 1.13200E-12
4.75965E-08 1.03587E-12
5.75917E-08 9.46263E-13
6.85389E-08 8.64170E-13
8.04380E-08 7.89609E-13
9.32891E-08 7.22447E-13
1.07092E-07 6.62292E-13
1.21847E-07 6.08600E-13
1.37554E-07 5.60754E-13
1.54213E-07 5.18121E-13
1.71823E-07 4.80087E-13
1.90386E-07 4.46083E-13
2.09900E-07 4.15589E-13
2.30367E-07 3.88147E-13
2.51785E-07 3.63343E-13
2.74156E-07 3.40825E-13
2.97478E-07 3.20300E-13
3.21752E-07 3.01518E-13
3.46978E-07 2.84267E-13
3.73156E-07 2.68363E-13
4.00286E-07 2.53654E-13
4.28368E-07 2.40007E-13
4.57402E-07 2.27311E-13
4.87388E-07 2.15470E-13
5.18325E-07 2.04395E-13
5.50215E-07 1.93999E-13
5.83057E-07 1.84246E-13
6.16850E-07 1.75085E-13
6.51596E-07 1.66467E-13
6.87293E-07 1.58353E-13
7.23942E-07 1.50704E-13
7.61543E-07 1.43490E-13
1.18991E-06 8.85214E-14
1.71347E-06 5.78181E-14
2.33223E-06 3.91523E-14
3.04617E-06 2.73968E-14
3.85531E-06 1.97128E-14
4.75964E-06 1.45109E-14
5.75916E-06 1.08811E-14
6.85388E-06 8.27692E-15
8.04378E-06 6.38952E-15
9.32888E-06 4.99952E-15
1.07092E-05 3.96172E-15
1.21846E-05 3.17724E-15
1.37553E-05 2.57731E-15
1.54212E-05 2.11331E-15
1.71822E-05 1.75047E-15
1.90385E-05 1.46292E-15
2.09899E-05 1.23463E-15
2.30365E-05 1.05049E-15
2.51783E-05 8.99076E-16
2.74153E-05 7.74500E-16
2.97475E-05 6.71250E-16
3.21749E-05 5.85055E-16
3.46974E-05 5.12574E-16
3.73152E-05 4.51181E-16
4.00281E-05 3.98812E-16
4.28362E-05 3.53848E-16
4.57395E-05 3.15018E-16
4.87380E-05 2.81324E-16
5.18317E-05 2.51964E-16
5.50205E-05 2.26287E-16
5.83045E-05 2.03786E-16
6.16838E-05 1.84008E-16
6.51582E-05 1.66571E-16
6.87277E-05 1.51148E-16
7.23925E-05 1.37463E-16
7.61524E-05 1.25282E-16
9.21439E-05 8.81078E-17
1.09658E-04 6.36993E-17
1.28695E-04 4.71977E-17
1.49255E-04 3.57118E-17
1.71338E-04 2.75260E-17
1.94942E-04 2.15615E-17
2.20070E-04 1.71326E-17
2.46720E-04 1.37877E-17
2.74892E-04 1.12226E-17
3.04586E-04 9.22872E-18
3.35803E-04 7.65959E-18
3.68542E-04 6.41077E-18
4.02802E-04 5.40649E-18
4.38585E-04 4.59173E-18
4.75889E-04 3.92507E-18
5.14715E-04 3.37528E-18
5.55063E-04 2.91856E-18
5.96931E-04 2.53661E-18
6.40321E-04 2.21518E-18
6.85233E-04 1.94312E-18
7.31665E-04 1.71159E-18
7.79618E-04 1.51355E-18
8.29092E-04 1.34335E-18
8.80086E-04 1.19640E-18
9.32601E-04 1.06902E-18
9.86636E-04 9.58167E-19
1.04219E-03 8.61332E-19
1.09927E-03 7.76443E-19
1.15786E-03 7.01773E-19
1.21797E-03 6.35882E-19
1.27961E-03 5.77560E-19
1.34276E-03 5.25788E-19
1.40743E-03 4.79702E-19
1.47362E-03 4.38567E-19
1.54133E-03 4.01759E-19
1.61056E-03 3.68744E-19
1.68131E-03 3.39063E-19
1.75357E-03 3.12320E-19
1.82735E-03 2.88173E-19
1.90265E-03 2.66324E-19
1.97947E-03 2.46516E-19
2.05780E-03 2.28524E-19
2.13765E-03 2.12151E-19
2.21902E-03 1.97226E-19
2.30190E-03 1.83596E-19
2.38630E-03 1.71130E-19
2.47222E-03 1.59710E-19
2.55965E-03 1.49232E-19
2.64859E-03 1.39604E-19
2.73905E-03 1.30745E-19
2.83103E-03 1.22582E-19
2.92452E-03 1.15051E-19
3.01952E-03 1.08092E-19
3.11604E-03 1.01656E-19
3.21407E-03 9.56943E-20
3.31362E-03 9.01664E-20
3.41468E-03 8.50347E-20
3.51725E-03 8.02657E-20
3.62133E-03 7.58288E-20
3.72692E-03 7.16965E-20
3.83403E-03 6.78441E-20
3.94265E-03 6.42491E-20
4.05278E-03 6.08909E-20
4.16442E-03 5.77511E-20
4.27757E-03 5.48127E-20
4.39223E-03 5.20604E-20
4.50840E-03 4.94801E-20
4.62608E-03 4.70592E-20
4.74527E-03 4.47857E-20
4.86597E-03 4.26491E-20
4.98817E-03 4.06396E-20
5.11188E-03 3.87481E-20
5.23711E-03 3.69665E-20
5.36383E-03 3.52871E-20
5.49207E-03 3.37028E-20
5.62181E-03 3.22074E-20
5.75306E-03 3.07948E-20
5.88581E-03 2.94596E-20
6.02007E-03 2.81966E-20
6.15583E-03 2.70014E-20
6.29310E-03 2.58695E-20
6.43187E-03 2.47969E-20
6.57214E-03 2.37799E-20
6.71392E-03 2.28151E-20
6.85720E-03 2.18993E-20
7.00198E-03 2.10295E-20
7.14827E-03 2.02029E-20
7.29605E-03 1.94171E-20
7.44534E-03 1.86695E-20
7.59612E-03 1.79579E-20
7.97965E-03 1.63236E-20
8.37255E-03 1.48731E-20
8.77480E-03 1.35821E-20
9.18641E-03 1.24299E-20
9.60736E-03 1.13989E-20
1.00376E-02 1.04740E-20
1.04773E-02 9.64223E-21
1.09262E-02 8.89258E-21
1.13844E-02 8.21544E-21
1.18520E-02 7.60248E-21
1.23288E-02 7.04651E-21
1.28150E-02 6.54123E-21
1.33104E-02 6.08116E-21
1.38150E-02 5.66150E-21
1.43290E-02 5.27803E-21
1.48521E-02 4.92704E-21
1.53845E-02 4.60526E-21
1.59262E-02 4.30980E-21
1.64770E-02 4.03810E-21
1.70371E-02 3.78789E-21
1.76063E-02 3.55713E-21
1.81848E-02 3.34403E-21
1.87724E-02 3.14698E-21
1.93692E-02 2.96453E-21
1.99751E-02 2.79539E-21
2.05901E-02 2.63840E-21
2.12143E-02 2.49252E-21
2.18476E-02 2.35681E-21
2.24900E-02 2.23042E-21
2.31415E-02 2.11258E-21
2.38021E-02 2.00261E-21
2.44717E-02 1.89988E-21
2.51504E-02 1.80381E-21
2.58382E-02 1.71389E-21
2.65349E-02 1.62964E-21
2.72407E-02 1.55064E-21
2.79555E-02 1.47649E-21
2.86793E-02 1.40684E-21
2.94120E-02 1.34136E-21
3.01537E-02 1.27974E-21
3.09043E-02 1.22172E-21
3.16639E-02 1.16705E-21
3.24324E-02 1.11548E-21
3.32098E-02 1.06681E-21
3.39961E-02 1.02085E-21
3.47912E-02 9.77401E-22
3.55952E-02 9.36311E-22
3.64081E-02 8.97422E-22
3.72297E-02 8.60593E-22
3.80602E-02 8.25691E-22
3.88995E-02 7.92595E-22
3.97476E-02 7.61193E-22
4.06044E-02 7.31379E-22
4.14700E-02 7.03058E-22
4.23443E-02 6.76137E-22
4.32273E-02 6.50535E-22
4.41190E-02 6.26172E-22
4.50194E-02 6.02976E-22
4.59284E-02 5.80880E-22
4.68461E-02 5.59821E-22
4.87074E-02 5.20581E-22
5.06030E-02 4.84831E-22
5.25328E-02 4.52198E-22
5.44967E-02 4.22356E-22
5.64946E-02 3.95018E-22
5.85262E-02 3.69932E-22
6.05914E-02 3.46874E-22
6.26901E-02 3.25647E-22
6.48222E-02 3.06076E-22
6.69873E-02 2.88005E-22
6.91854E-02 2.71296E-22
7.14163E-02 2.55825E-22
7.36799E-02 2.41480E-22
7.59760E-02 2.28163E-22
7.83043E-02 2.15785E-22
8.06647E-02 2.04265E-22
8.30571E-02 1.93532E-22
8.54812E-02 1.83520E-22
8.79369E-02 1.74172E-22
9.04240E-02 1.65432E-22
9.29422E-02 1.57254E-22
9.54915E-02 1.49594E-22
9.80716E-02 1.42411E-22
1.00682E-01 1.35670E-22
1.03323E-01 1.29337E-22
1.05995E-01 1.23383E-22
1.08696E-01 1.17780E-22
1.11427E-01 1.12502E-22
1.14188E-01 1.07527E-22
1.16978E-01 1.02834E-22
1.19797E-01 9.84031E-23
1.22645E-01 9.42164E-23
1.25522E-01 9.02574E-23
1.28428E-01 8.65113E-23
1.31361E-01 8.29640E-23
1.34323E-01 7.96025E-23
1.37313E-01 7.64150E-23
1.40330E-01 7.33905E-23
1.43375E-01 7.05188E-23
1.46447E-01 6.77905E-23
1.49545E-01 6.51969E-23
1.52671E-01 6.27298E-23
1.55823E-01 6.03816E-23
1.59001E-01 5.81454E-23
1.62205E-01 5.60146E-23
1.65435E-01 5.39830E-23
1.68690E-01 5.20452E-23
1.71970E-01 5.01957E-23
1.75276E-01 4.84297E-23
1.78606E-01 4.67425E-23
1.81961E-01 4.51298E-23
1.85340E-01 4.35875E-23
1.88743E-01 4.21120E-23
1.92169E-01 4.06996E-23
1.95619E-01 3.93471E-23
1.99092E-01 3.80513E-23
2.02589E-01 3.68094E-23
2.06107E-01 3.56186E-23
2.09649E-01 3.44762E-23
2.13212E-01 3.33799E-23
2.16797E-01 3.23275E-23
2.20404E-01 3.13166E-23
2.24032E-01 3.03454E-23
2.27680E-01 2.94120E-23
2.31350E-01 2.85144E-23
2.35040E-01 2.76511E-23
2.38751E-01 2.68204E-23
2.42481E-01 2.60209E-23
2.46231E-01 2.52510E-23
2.50000E-01 2.45094E-23
2.53788E-01 2.37949E-23
2.57595E-01 2.31062E-23
2.61421E-01 2.24423E-23
2.65264E-01 2.18019E-23
2.69126E-01 2.11841E-23
2.73005E-01 2.05879E-23
2.76901E-01 2.00124E-23
2.80814E-01 1.94567E-23
2.84744E-01 1.89199E-23
2.88691E-01 1.84013E-23
2.92653E-01 1.79002E-23
2.96632E-01 1.74157E-23
3.00625E-01 1.69472E-23
3.04634E-01 1.64941E-23
3.08658E-01 1.60558E-23
3.12697E-01 1.56316E-23
3.16749E-01 1.52210E-23
3.20816E-01 1.48234E-23
3.24896E-01 1.44384E-23
3.28990E-01 1.40655E-23
3.33097E-01 1.37042E-23
3.37216E-01 1.33541E-23
3.41348E-01 1.30147E-23
3.45492E-01 1.26856E-23
3.49647E-01 1.23665E-23
3.53814E-01 1.20569E-23
3.57992E-01 1.17566E-23
3.62181E-01 1.14652E-23
3.66381E-01 1.11824E-23
3.70590E-01 1.09079E-23
3.74810E-01 1.06413E-23
3.79039E-01 1.03823E-23
3.83277E-01 1.01309E-23
3.87524E-01 9.88652E-24
3.91780E-01 9.64910E-24
3.96044E-01 9.41834E-24
4.00316E-01 9.19403E-24
4.04596E-01 8.97593E-24
4.08882E-01 8.76385E-24
4.13176E-01 8.55759E-24
4.17476E-01 8.35694E-24
4.21783E-01 8.16172E-24
4.26095E-01 7.97174E-24
4.30413E-01 7.78685E-24
4.34737E-01 7.60687E-24
4.39065E-01 7.43165E-24
4.43398E-01 7.26104E-24
4.47736E-01 7.09487E-24
4.52077E-01 6.93302E-24
4.56422E-01 6.77535E-24
4.60770E-01 6.62173E-24
4.65122E-01 6.47203E-24
4.69476E-01 6.32614E-24
4.73832E-01 6.18392E-24
4.78190E-01 6.04528E-24
4.82550E-01 5.91010E-24
4.86912E-01 5.77828E-24
4.91274E-01 5.64971E-24
4.95637E-01 5.52431E-24
5.00000E-01 5.40197E-24
5.04363E-01 5.28262E-24
5.08726E-01 5.16614E-24
5.13088E-01 5.05248E-24
5.17450E-01 4.94154E-24
5.21810E-01 4.83324E-24
5.26168E-01 4.72751E-24
5.30524E-01 4.62428E-24
5.34878E-01 4.52347E-24
5.39230E-01 4.42502E-24
5.43578E-01 4.32886E-24
5.47923E-01 4.23493E-24
5.52264E-01 4.14317E-24
5.56602E-01 4.05351E-24
5.60935E-01 3.96590E-24
5.65263E-01 3.88028E-24
5.69587E-01 3.79660E-24
5.73905E-01 3.71481E-24
5.78217E-01 3.63485E-24
5.82524E-01 3.55668E-24
5.86824E-01 3.48025E-24
5.91118E-01 3.40551E-24
5.95404E-01 3.33242E-24
5.99684E-01 3.26094E-24
6.03956E-01 3.19102E-24
6.08220E-01 3.12262E-24
6.12476E-01 3.05571E-24
6.16723E-01 2.99025E-24
6.20961E-01 2.92619E-24
6.25190E-01 2.86352E-24
6.29410E-01 2.80218E-24
6.33619E-01 2.74215E-24
6.37819E-01 2.68339E-24
6.42008E-01 2.62587E-24
6.46186E-01 2.56957E-24
6.50353E-01 2.51444E-24
6.54508E-01 2.46047E-24
6.58652E-01 2.40763E-24
6.62784E-01 2.35588E-24
6.66903E-01 2.30521E-24
6.71010E-01 2.25558E-24
6.75104E-01 2.20697E-24
6.79184E-01 2.15936E-24
6.83251E-01 2.11272E-24
6.87303E-01 2.06703E-24
6.91342E-01 2.02228E-24
6.95366E-01 1.97843E-24
6.99375E-01 1.93546E-24
7.03368E-01 1.89336E-24
7.07347E-01 1.85211E-24
7.11309E-01 1.81168E-24
7.15256E-01 1.77206E-24
7.19186E-01 1.73324E-24
7.23099E-01 1.69518E-24
7.26995E-01 1.65788E-24
7.30874E-01 1.62132E-24
7.34736E-01 1.58548E-24
7.38579E-01 1.55034E-24
7.42405E-01 1.51590E-24
7.46212E-01 1.48213E-24
7.50000E-01 1.44903E-24
7.53769E-01 1.41657E-24
7.57519E-01 1.38474E-24
7.61249E-01 1.35354E-24
7.64960E-01 1.32294E-24
7.68650E-01 1.29294E-24
7.72320E-01 1.26351E-24
7.75968E-01 1.23466E-24
7.79596E-01 1.20637E-24
7.83203E-01 1.17862E-24
7.86788E-01 1.15140E-24
7.90351E-01 1.12471E-24
7.93893E-01 1.09854E-24
7.97411E-01 1.07286E-24
8.00908E-01 1.04769E-24
8.04381E-01 1.02299E-24
8.07831E-01 9.98767E-25
8.11257E-01 9.75010E-25
8.14660E-01 9.51708E-25
8.18039E-01 9.28852E-25
8.21394E-01 9.06435E-25
8.24724E-01 8.84447E-25
8.28030E-01 8.62880E-25
8.31310E-01 8.41727E-25
8.34565E-01 8.20979E-25
8.37795E-01 8.00629E-25
8.40999E-01 7.80670E-25
8.44177E-01 7.61094E-25
8.47329E-01 7.41895E-25
8.50455E-01 7.23064E-25
8.53553E-01 7.04597E-25
8.56625E-01 6.86486E-25
8.59670E-01 6.68724E-25
8.62687E-01 6.51306E-25
8.65677E-01 6.34225E-25
8.68639E-01 6.17476E-25
8.71572E-01 6.01053E-25
8.74478E-01 5.84949E-25
8.77355E-01 5.69161E-25
8.80203E-01 5.53681E-25
8.83022E-01 5.38506E-25
8.85812E-01 5.23630E-25
8.88573E-01 5.09048E-25
8.91304E-01 4.94755E-25
8.94005E-01 4.80746E-25
8.96677E-01 4.67017E-25
8.99318E-01 4.53563E-25
9.01928E-01 4.40380E-25
9.04508E-01 4.27464E-25
9.07058E-01 4.14810E-25
9.09576E-01 4.02415E-25
9.12063E-01 3.90273E-25
9.14519E-01 3.78383E-25
9.16943E-01 3.66739E-25
9.19335E-01 3.55338E-25
9.21696E-01 3.44176E-25
9.24024E-01 3.33251E-25
9.26320E-01 3.22558E-25
9.28584E-01 3.12094E-25
9.30815E-01 3.01856E-25
9.33013E-01 2.91840E-25
9.35178E-01 2.82045E-25
9.37310E-01 2.72466E-25
9.39409E-01 2.63100E-25
9.41474E-01 2.53946E-25
9.43505E-01 2.45000E-25
9.45503E-01 2.36259E-25
9.47467E-01 2.27721E-25
9.49397E-01 2.19383E-25
9.51293E-01 2.11243E-25
9.53154E-01 2.03298E-25
9.54981E-01 1.95547E-25
9.56773E-01 1.87985E-25
9.58530E-01 1.80612E-25
9.60252E-01 1.73426E-25
9.61940E-01 1.66423E-25
9.63592E-01 1.59603E-25
9.65209E-01 1.52962E-25
9.66790E-01 1.46500E-25
9.68336E-01 1.40214E-25
9.69846E-01 1.34103E-25
9.71321E-01 1.28164E-25
9.72759E-01 1.22396E-25
9.74162E-01 1.16797E-25
9.75528E-01 1.11366E-25
9.76858E-01 1.06102E-25
9.78152E-01 1.01002E-25
9.79410E-01 9.60648E-26
9.80631E-01 9.12897E-26
9.81815E-01 8.66751E-26
9.82963E-01 8.22196E-26
9.84074E-01 7.79220E-26
9.85148E-01 7.37811E-26
9.86185E-01 6.97957E-26
9.87185E-01 6.59647E-26
9.88148E-01 6.22870E-26
9.89074E-01 5.87615E-26
9.89962E-01 5.53874E-26
9.90814E-01 5.21636E-26
9.91627E-01 4.90893E-26
9.92404E-01 4.61636E-26
9.93143E-01 4.33857E-26
9.93844E-01 4.07548E-26
9.94508E-01 3.82702E-26
9.95134E-01 3.59313E-26
9.95722E-01 3.37373E-26
9.96273E-01 3.16876E-26
9.96786E-01 2.97817E-26
9.97261E-01 2.80192E-26
9.97698E-01 2.63994E-26
9.98097E-01 2.49219E-26
9.98459E-01 2.35863E-26
9.98782E-01 2.23924E-26
9.99067E-01 2.13396E-26
9.99315E-01 2.04278E-26
9.99524E-01 1.96568E-26
9.99695E-01 1.90262E-26
9.99829E-01 1.85359E-26
9.99924E-01 1.81857E-26
9.99981E-01 1.79757E-26
1.00000E+00 1.79057E-26
