 #
 # Subroutine ELSEPA. Elastic scattering of electrons and positrons
 #                    by neutral atoms and positive ions
 #
 # Projectile: electron
 # Kinetic energy = 1.25000E+07 eV = 4.59367E+05 a.u.
 #
 # WARNING: High-energy factorization with free-atom DF screening.
 #          Absorption, polarization and exchange corrections are
 #          switched off.
 #          Phase shifts are calculated for the bare nucleus.
 #          Scattering amplitudes are not evaluated.
 #
 # Element: Er,  Z =  68,  atomic weight = 1.67260E+02 g/mol
 #
 # Nuclear model: Fermi distribution
 #                Average radius = 5.89542E-13 cm
 #                Skin thickness = 5.46000E-14 cm
 #
 # Number of electrons = 68
 #
 # Total elastic cross section = 7.07027E-18 cm**2 = 2.52484E-01 a0**2
 # 1st transport cross section = 4.97423E-23 cm**2 = 1.77633E-06 a0**2
 # 2nd transport cross section = 1.38791E-22 cm**2 = 4.95630E-06 a0**2
 #
 #
 # Differential cross section:                       MU=(1-COS(THETA))/2
 #
 #  THETA        MU          DCS          DCS        Sherman      error
 #  (deg)                 (cm**2/sr)   (a0**2/sr)    function
 #----------------------------------------------------------------------
0.00000E+00 1.22321E-11
7.61557E-13 1.22312E-11
1.18994E-12 1.22307E-11
1.71346E-12 1.22300E-11
2.33225E-12 1.22293E-11
3.04617E-12 1.22284E-11
3.85530E-12 1.22274E-11
4.75964E-12 1.22263E-11
5.75917E-12 1.22251E-11
6.85391E-12 1.22237E-11
8.04379E-12 1.22223E-11
9.32893E-12 1.22207E-11
1.07092E-11 1.22190E-11
1.21847E-11 1.22172E-11
1.37554E-11 1.22153E-11
1.54213E-11 1.22133E-11
1.71823E-11 1.22112E-11
1.90386E-11 1.22089E-11
2.09900E-11 1.22065E-11
2.30367E-11 1.22040E-11
2.51785E-11 1.22014E-11
2.74156E-11 1.21987E-11
2.97478E-11 1.21959E-11
3.21752E-11 1.21929E-11
3.46979E-11 1.21899E-11
3.73157E-11 1.21867E-11
4.00286E-11 1.21834E-11
4.28368E-11 1.21800E-11
4.57402E-11 1.21765E-11
4.87388E-11 1.21729E-11
5.18325E-11 1.21691E-11
5.50215E-11 1.21653E-11
5.83057E-11 1.21613E-11
6.16850E-11 1.21572E-11
6.51595E-11 1.21530E-11
6.87293E-11 1.21487E-11
7.23943E-11 1.21443E-11
7.61544E-11 1.21398E-11
1.18991E-10 1.20884E-11
1.71347E-10 1.20261E-11
2.33223E-10 1.19531E-11
3.04617E-10 1.18699E-11
3.85531E-10 1.17767E-11
4.75965E-10 1.16741E-11
5.75917E-10 1.15624E-11
6.85389E-10 1.14421E-11
8.04380E-10 1.13138E-11
9.32891E-10 1.11779E-11
1.07092E-09 1.10351E-11
1.21847E-09 1.08858E-11
1.37554E-09 1.07309E-11
1.54213E-09 1.05714E-11
1.71823E-09 1.04066E-11
1.90386E-09 1.02371E-11
2.09900E-09 1.00634E-11
2.30367E-09 9.88862E-12
2.51785E-09 9.71093E-12
2.74156E-09 9.53050E-12
2.97478E-09 9.34780E-12
3.21752E-09 9.16573E-12
3.46978E-09 8.98345E-12
3.73156E-09 8.80015E-12
4.00286E-09 8.61625E-12
4.28368E-09 8.43398E-12
4.57402E-09 8.25402E-12
4.87388E-09 8.07444E-12
5.18326E-09 7.89555E-12
5.50215E-09 7.71864E-12
5.83057E-09 7.54624E-12
6.16850E-09 7.37523E-12
6.51596E-09 7.20581E-12
6.87293E-09 7.03826E-12
7.23942E-09 6.87694E-12
7.61544E-09 6.71767E-12
1.18991E-08 5.30315E-12
1.71347E-08 4.22445E-12
2.33223E-08 3.42385E-12
3.04617E-08 2.82770E-12
3.85531E-08 2.37533E-12
4.75965E-08 2.02245E-12
5.75917E-08 1.73978E-12
6.85389E-08 1.50752E-12
8.04380E-08 1.31379E-12
9.32891E-08 1.14974E-12
1.07092E-07 1.00952E-12
1.21847E-07 8.89218E-13
1.37554E-07 7.84005E-13
1.54213E-07 6.87315E-13
1.71823E-07 6.08471E-13
1.90386E-07 5.43543E-13
2.09900E-07 4.89581E-13
2.30367E-07 4.35722E-13
2.51785E-07 3.89766E-13
2.74156E-07 3.51049E-13
2.97478E-07 3.18195E-13
3.21752E-07 2.87278E-13
3.46978E-07 2.59596E-13
3.73156E-07 2.35823E-13
4.00286E-07 2.15290E-13
4.28368E-07 1.96514E-13
4.57402E-07 1.79135E-13
4.87388E-07 1.63974E-13
5.18325E-07 1.50687E-13
5.50215E-07 1.38723E-13
5.83057E-07 1.27353E-13
6.16850E-07 1.17307E-13
6.51596E-07 1.08398E-13
6.87293E-07 1.00459E-13
7.23942E-07 9.27560E-14
7.61543E-07 8.58785E-14
1.18991E-06 4.25878E-14
1.71347E-06 2.30845E-14
2.33223E-06 1.35345E-14
3.04617E-06 8.49332E-15
3.85531E-06 5.62652E-15
4.75964E-06 3.89120E-15
5.75916E-06 2.78515E-15
6.85388E-06 2.04560E-15
8.04378E-06 1.53521E-15
9.32888E-06 1.17392E-15
1.07092E-05 9.12467E-16
1.21846E-05 7.19516E-16
1.37553E-05 5.74515E-16
1.54212E-05 4.64036E-16
1.71822E-05 3.79140E-16
1.90385E-05 3.12620E-16
2.09899E-05 2.60251E-16
2.30365E-05 2.18505E-16
2.51783E-05 1.84651E-16
2.74153E-05 1.57147E-16
2.97475E-05 1.34554E-16
3.21749E-05 1.15878E-16
3.46974E-05 1.00378E-16
3.73152E-05 8.73641E-17
4.00281E-05 7.64272E-17
4.28362E-05 6.71486E-17
4.57395E-05 5.92385E-17
4.87380E-05 5.24662E-17
5.18317E-05 4.66215E-17
5.50205E-05 4.15749E-17
5.83045E-05 3.71886E-17
6.16838E-05 3.33677E-17
6.51582E-05 3.00283E-17
6.87277E-05 2.70941E-17
7.23925E-05 2.45137E-17
7.61524E-05 2.22311E-17
9.21439E-05 1.53759E-17
1.09658E-04 1.09677E-17
1.28695E-04 8.03194E-18
1.49255E-04 6.01460E-18
1.71338E-04 4.59248E-18
1.94942E-04 3.56674E-18
2.20070E-04 2.81198E-18
2.46720E-04 2.24680E-18
2.74892E-04 1.81682E-18
3.04586E-04 1.48504E-18
3.35803E-04 1.22574E-18
3.68542E-04 1.02073E-18
4.02802E-04 8.56907E-19
4.38585E-04 7.24731E-19
4.75889E-04 6.17131E-19
5.14715E-04 5.28818E-19
5.55063E-04 4.55788E-19
5.96931E-04 3.94965E-19
6.40321E-04 3.43982E-19
6.85233E-04 3.00986E-19
7.31665E-04 2.64517E-19
7.79618E-04 2.33422E-19
8.29092E-04 2.06776E-19
8.80086E-04 1.83836E-19
9.32601E-04 1.63999E-19
9.86636E-04 1.46774E-19
1.04219E-03 1.31758E-19
1.09927E-03 1.18620E-19
1.15786E-03 1.07084E-19
1.21797E-03 9.69215E-20
1.27961E-03 8.79399E-20
1.34276E-03 7.99782E-20
1.40743E-03 7.29003E-20
1.47362E-03 6.65911E-20
1.54133E-03 6.09522E-20
1.61056E-03 5.59000E-20
1.68131E-03 5.13624E-20
1.75357E-03 4.72778E-20
1.82735E-03 4.35929E-20
1.90265E-03 4.02615E-20
1.97947E-03 3.72437E-20
2.05780E-03 3.45046E-20
2.13765E-03 3.20139E-20
2.21902E-03 2.97450E-20
2.30190E-03 2.76744E-20
2.38630E-03 2.57819E-20
2.47222E-03 2.40491E-20
2.55965E-03 2.24603E-20
2.64859E-03 2.10012E-20
2.73905E-03 1.96593E-20
2.83103E-03 1.84235E-20
2.92452E-03 1.72839E-20
3.01952E-03 1.62315E-20
3.11604E-03 1.52585E-20
3.21407E-03 1.43578E-20
3.31362E-03 1.35230E-20
3.41468E-03 1.27483E-20
3.51725E-03 1.20288E-20
3.62133E-03 1.13596E-20
3.72692E-03 1.07366E-20
3.83403E-03 1.01561E-20
3.94265E-03 9.61454E-21
4.05278E-03 9.10888E-21
4.16442E-03 8.63628E-21
4.27757E-03 8.19417E-21
4.39223E-03 7.78022E-21
4.50840E-03 7.39228E-21
4.62608E-03 7.02843E-21
4.74527E-03 6.68687E-21
4.86597E-03 6.36598E-21
4.98817E-03 6.06429E-21
5.11188E-03 5.78041E-21
5.23711E-03 5.51309E-21
5.36383E-03 5.26120E-21
5.49207E-03 5.02366E-21
5.62181E-03 4.79950E-21
5.75306E-03 4.58783E-21
5.88581E-03 4.38781E-21
6.02007E-03 4.19869E-21
6.15583E-03 4.01974E-21
6.29310E-03 3.85033E-21
6.43187E-03 3.68984E-21
6.57214E-03 3.53771E-21
6.71392E-03 3.39343E-21
6.85720E-03 3.25651E-21
7.00198E-03 3.12650E-21
7.14827E-03 3.00299E-21
7.29605E-03 2.88558E-21
7.44534E-03 2.77393E-21
7.59612E-03 2.66768E-21
7.97965E-03 2.42375E-21
8.37255E-03 2.20738E-21
8.77480E-03 2.01491E-21
9.18641E-03 1.84321E-21
9.60736E-03 1.68965E-21
1.00376E-02 1.55196E-21
1.04773E-02 1.42820E-21
1.09262E-02 1.31669E-21
1.13844E-02 1.21602E-21
1.18520E-02 1.12492E-21
1.23288E-02 1.04232E-21
1.28150E-02 9.67274E-22
1.33104E-02 8.98970E-22
1.38150E-02 8.36684E-22
1.43290E-02 7.79787E-22
1.48521E-02 7.27725E-22
1.53845E-02 6.80010E-22
1.59262E-02 6.36210E-22
1.64770E-02 5.95942E-22
1.70371E-02 5.58866E-22
1.76063E-02 5.24681E-22
1.81848E-02 4.93120E-22
1.87724E-02 4.63941E-22
1.93692E-02 4.36930E-22
1.99751E-02 4.11894E-22
2.05901E-02 3.88661E-22
2.12143E-02 3.67077E-22
2.18476E-02 3.47001E-22
2.24900E-02 3.28307E-22
2.31415E-02 3.10881E-22
2.38021E-02 2.94621E-22
2.44717E-02 2.79432E-22
2.51504E-02 2.65232E-22
2.58382E-02 2.51941E-22
2.65349E-02 2.39492E-22
2.72407E-02 2.27819E-22
2.79555E-02 2.16865E-22
2.86793E-02 2.06576E-22
2.94120E-02 1.96904E-22
3.01537E-02 1.87806E-22
3.09043E-02 1.79239E-22
3.16639E-02 1.71166E-22
3.24324E-02 1.63554E-22
3.32098E-02 1.56370E-22
3.39961E-02 1.49586E-22
3.47912E-02 1.43176E-22
3.55952E-02 1.37113E-22
3.64081E-02 1.31376E-22
3.72297E-02 1.25943E-22
3.80602E-02 1.20795E-22
3.88995E-02 1.15914E-22
3.97476E-02 1.11283E-22
4.06044E-02 1.06888E-22
4.14700E-02 1.02712E-22
4.23443E-02 9.87441E-23
4.32273E-02 9.49706E-23
4.41190E-02 9.13804E-23
4.50194E-02 8.79626E-23
4.59284E-02 8.47072E-23
4.68461E-02 8.16049E-23
4.87074E-02 7.58256E-23
5.06030E-02 7.05617E-23
5.25328E-02 6.57581E-23
5.44967E-02 6.13666E-23
5.64946E-02 5.73447E-23
5.85262E-02 5.36553E-23
6.05914E-02 5.02653E-23
6.26901E-02 4.71455E-23
6.48222E-02 4.42701E-23
6.69873E-02 4.16160E-23
6.91854E-02 3.91628E-23
7.14163E-02 3.68921E-23
7.36799E-02 3.47876E-23
7.59760E-02 3.28347E-23
7.83043E-02 3.10202E-23
8.06647E-02 2.93323E-23
8.30571E-02 2.77604E-23
8.54812E-02 2.62947E-23
8.79369E-02 2.49268E-23
9.04240E-02 2.36486E-23
9.29422E-02 2.24532E-23
9.54915E-02 2.13339E-23
9.80716E-02 2.02850E-23
1.00682E-01 1.93012E-23
1.03323E-01 1.83774E-23
1.05995E-01 1.75094E-23
1.08696E-01 1.66930E-23
1.11427E-01 1.59246E-23
1.14188E-01 1.52006E-23
1.16978E-01 1.45181E-23
1.19797E-01 1.38741E-23
1.22645E-01 1.32660E-23
1.25522E-01 1.26914E-23
1.28428E-01 1.21480E-23
1.31361E-01 1.16338E-23
1.34323E-01 1.11470E-23
1.37313E-01 1.06857E-23
1.40330E-01 1.02483E-23
1.43375E-01 9.83327E-24
1.46447E-01 9.43934E-24
1.49545E-01 9.06507E-24
1.52671E-01 8.70929E-24
1.55823E-01 8.37094E-24
1.59001E-01 8.04899E-24
1.62205E-01 7.74246E-24
1.65435E-01 7.45048E-24
1.68690E-01 7.17220E-24
1.71970E-01 6.90684E-24
1.75276E-01 6.65368E-24
1.78606E-01 6.41203E-24
1.81961E-01 6.18127E-24
1.85340E-01 5.96080E-24
1.88743E-01 5.75007E-24
1.92169E-01 5.54855E-24
1.95619E-01 5.35575E-24
1.99092E-01 5.17123E-24
2.02589E-01 4.99454E-24
2.06107E-01 4.82529E-24
2.09649E-01 4.66310E-24
2.13212E-01 4.50762E-24
2.16797E-01 4.35850E-24
2.20404E-01 4.21543E-24
2.24032E-01 4.07812E-24
2.27680E-01 3.94628E-24
2.31350E-01 3.81966E-24
2.35040E-01 3.69799E-24
2.38751E-01 3.58106E-24
2.42481E-01 3.46863E-24
2.46231E-01 3.36050E-24
2.50000E-01 3.25646E-24
2.53788E-01 3.15634E-24
2.57595E-01 3.05995E-24
2.61421E-01 2.96712E-24
2.65264E-01 2.87770E-24
2.69126E-01 2.79154E-24
2.73005E-01 2.70849E-24
2.76901E-01 2.62842E-24
2.80814E-01 2.55119E-24
2.84744E-01 2.47670E-24
2.88691E-01 2.40481E-24
2.92653E-01 2.33542E-24
2.96632E-01 2.26843E-24
3.00625E-01 2.20374E-24
3.04634E-01 2.14125E-24
3.08658E-01 2.08087E-24
3.12697E-01 2.02251E-24
3.16749E-01 1.96610E-24
3.20816E-01 1.91156E-24
3.24896E-01 1.85881E-24
3.28990E-01 1.80778E-24
3.33097E-01 1.75841E-24
3.37216E-01 1.71062E-24
3.41348E-01 1.66437E-24
3.45492E-01 1.61958E-24
3.49647E-01 1.57621E-24
3.53814E-01 1.53420E-24
3.57992E-01 1.49350E-24
3.62181E-01 1.45406E-24
3.66381E-01 1.41584E-24
3.70590E-01 1.37878E-24
3.74810E-01 1.34285E-24
3.79039E-01 1.30801E-24
3.83277E-01 1.27421E-24
3.87524E-01 1.24142E-24
3.91780E-01 1.20961E-24
3.96044E-01 1.17873E-24
4.00316E-01 1.14876E-24
4.04596E-01 1.11967E-24
4.08882E-01 1.09142E-24
4.13176E-01 1.06398E-24
4.17476E-01 1.03733E-24
4.21783E-01 1.01144E-24
4.26095E-01 9.86281E-25
4.30413E-01 9.61835E-25
4.34737E-01 9.38074E-25
4.39065E-01 9.14976E-25
4.43398E-01 8.92518E-25
4.47736E-01 8.70681E-25
4.52077E-01 8.49444E-25
4.56422E-01 8.28786E-25
4.60770E-01 8.08691E-25
4.65122E-01 7.89138E-25
4.69476E-01 7.70112E-25
4.73832E-01 7.51594E-25
4.78190E-01 7.33571E-25
4.82550E-01 7.16024E-25
4.86912E-01 6.98941E-25
4.91274E-01 6.82306E-25
4.95637E-01 6.66106E-25
5.00000E-01 6.50326E-25
5.04363E-01 6.34956E-25
5.08726E-01 6.19981E-25
5.13088E-01 6.05390E-25
5.17450E-01 5.91171E-25
5.21810E-01 5.77314E-25
5.26168E-01 5.63807E-25
5.30524E-01 5.50640E-25
5.34878E-01 5.37803E-25
5.39230E-01 5.25287E-25
5.43578E-01 5.13082E-25
5.47923E-01 5.01178E-25
5.52264E-01 4.89568E-25
5.56602E-01 4.78243E-25
5.60935E-01 4.67195E-25
5.65263E-01 4.56415E-25
5.69587E-01 4.45897E-25
5.73905E-01 4.35633E-25
5.78217E-01 4.25615E-25
5.82524E-01 4.15838E-25
5.86824E-01 4.06293E-25
5.91118E-01 3.96976E-25
5.95404E-01 3.87878E-25
5.99684E-01 3.78996E-25
6.03956E-01 3.70322E-25
6.08220E-01 3.61851E-25
6.12476E-01 3.53578E-25
6.16723E-01 3.45496E-25
6.20961E-01 3.37602E-25
6.25190E-01 3.29890E-25
6.29410E-01 3.22356E-25
6.33619E-01 3.14993E-25
6.37819E-01 3.07799E-25
6.42008E-01 3.00769E-25
6.46186E-01 2.93898E-25
6.50353E-01 2.87183E-25
6.54508E-01 2.80618E-25
6.58652E-01 2.74202E-25
6.62784E-01 2.67928E-25
6.66903E-01 2.61795E-25
6.71010E-01 2.55798E-25
6.75104E-01 2.49935E-25
6.79184E-01 2.44201E-25
6.83251E-01 2.38593E-25
6.87303E-01 2.33109E-25
6.91342E-01 2.27745E-25
6.95366E-01 2.22498E-25
6.99375E-01 2.17365E-25
7.03368E-01 2.12345E-25
7.07347E-01 2.07433E-25
7.11309E-01 2.02627E-25
7.15256E-01 1.97925E-25
7.19186E-01 1.93324E-25
7.23099E-01 1.88822E-25
7.26995E-01 1.84417E-25
7.30874E-01 1.80106E-25
7.34736E-01 1.75886E-25
7.38579E-01 1.71756E-25
7.42405E-01 1.67714E-25
7.46212E-01 1.63758E-25
7.50000E-01 1.59885E-25
7.53769E-01 1.56094E-25
7.57519E-01 1.52383E-25
7.61249E-01 1.48750E-25
7.64960E-01 1.45193E-25
7.68650E-01 1.41711E-25
7.72320E-01 1.38301E-25
7.75968E-01 1.34963E-25
7.79596E-01 1.31694E-25
7.83203E-01 1.28494E-25
7.86788E-01 1.25359E-25
7.90351E-01 1.22290E-25
7.93893E-01 1.19285E-25
7.97411E-01 1.16342E-25
8.00908E-01 1.13460E-25
8.04381E-01 1.10637E-25
8.07831E-01 1.07873E-25
8.11257E-01 1.05166E-25
8.14660E-01 1.02514E-25
8.18039E-01 9.99174E-26
8.21394E-01 9.73742E-26
8.24724E-01 9.48834E-26
8.28030E-01 9.24438E-26
8.31310E-01 9.00545E-26
8.34565E-01 8.77144E-26
8.37795E-01 8.54224E-26
8.40999E-01 8.31777E-26
8.44177E-01 8.09791E-26
8.47329E-01 7.88259E-26
8.50455E-01 7.67170E-26
8.53553E-01 7.46516E-26
8.56625E-01 7.26289E-26
8.59670E-01 7.06479E-26
8.62687E-01 6.87079E-26
8.65677E-01 6.68080E-26
8.68639E-01 6.49476E-26
8.71572E-01 6.31257E-26
8.74478E-01 6.13417E-26
8.77355E-01 5.95949E-26
8.80203E-01 5.78845E-26
8.83022E-01 5.62099E-26
8.85812E-01 5.45704E-26
8.88573E-01 5.29653E-26
8.91304E-01 5.13940E-26
8.94005E-01 4.98559E-26
8.96677E-01 4.83503E-26
8.99318E-01 4.68768E-26
9.01928E-01 4.54347E-26
9.04508E-01 4.40234E-26
9.07058E-01 4.26425E-26
9.09576E-01 4.12913E-26
9.12063E-01 3.99694E-26
9.14519E-01 3.86763E-26
9.16943E-01 3.74114E-26
9.19335E-01 3.61744E-26
9.21696E-01 3.49646E-26
9.24024E-01 3.37818E-26
9.26320E-01 3.26253E-26
9.28584E-01 3.14949E-26
9.30815E-01 3.03900E-26
9.33013E-01 2.93103E-26
9.35178E-01 2.82554E-26
9.37310E-01 2.72248E-26
9.39409E-01 2.62183E-26
9.41474E-01 2.52354E-26
9.43505E-01 2.42758E-26
9.45503E-01 2.33391E-26
9.47467E-01 2.24250E-26
9.49397E-01 2.15332E-26
9.51293E-01 2.06633E-26
9.53154E-01 1.98150E-26
9.54981E-01 1.89881E-26
9.56773E-01 1.81822E-26
9.58530E-01 1.73971E-26
9.60252E-01 1.66324E-26
9.61940E-01 1.58880E-26
9.63592E-01 1.51635E-26
9.65209E-01 1.44586E-26
9.66790E-01 1.37732E-26
9.68336E-01 1.31070E-26
9.69846E-01 1.24598E-26
9.71321E-01 1.18313E-26
9.72759E-01 1.12214E-26
9.74162E-01 1.06297E-26
9.75528E-01 1.00562E-26
9.76858E-01 9.50058E-27
9.78152E-01 8.96268E-27
9.79410E-01 8.44232E-27
9.80631E-01 7.93932E-27
9.81815E-01 7.45351E-27
9.82963E-01 6.98472E-27
9.84074E-01 6.53279E-27
9.85148E-01 6.09757E-27
9.86185E-01 5.67891E-27
9.87185E-01 5.27667E-27
9.88148E-01 4.89072E-27
9.89074E-01 4.52092E-27
9.89962E-01 4.16714E-27
9.90814E-01 3.82928E-27
9.91627E-01 3.50722E-27
9.92404E-01 3.20084E-27
9.93143E-01 2.91005E-27
9.93844E-01 2.63475E-27
9.94508E-01 2.37484E-27
9.95134E-01 2.13025E-27
9.95722E-01 1.90088E-27
9.96273E-01 1.68666E-27
9.96786E-01 1.48753E-27
9.97261E-01 1.30341E-27
9.97698E-01 1.13424E-27
9.98097E-01 9.79976E-28
9.98459E-01 8.40553E-28
9.98782E-01 7.15930E-28
9.99067E-01 6.06065E-28
9.99315E-01 5.10923E-28
9.99524E-01 4.30471E-28
9.99695E-01 3.64682E-28
9.99829E-01 3.13536E-28
9.99924E-01 2.77016E-28
9.99981E-01 2.55108E-28
1.00000E+00 2.47806E-28
