 #
 # Subroutine ELSEPA. Elastic scattering of electrons and positrons
 #                    by neutral atoms and positive ions
 #
 # Projectile: electron
 # Kinetic energy = 3.50000E+08 eV = 1.28623E+07 a.u.
 #
 # WARNING: High-energy factorization with free-atom DF screening.
 #          Absorption, polarization and exchange corrections are
 #          switched off.
 #          Phase shifts are calculated for the bare nucleus.
 #          Scattering amplitudes are not evaluated.
 #
 # Element: Er,  Z =  68,  atomic weight = 1.67260E+02 g/mol
 #
 # Nuclear model: Fermi distribution
 #                Average radius = 5.89542E-13 cm
 #                Skin thickness = 5.46000E-14 cm
 #
 # Number of electrons = 68
 #
 # Total elastic cross section = 7.05213E-18 cm**2 = 2.51836E-01 a0**2
 # 1st transport cross section = 7.21465E-26 cm**2 = 2.57640E-09 a0**2
 # 2nd transport cross section = 2.16274E-25 cm**2 = 7.72329E-09 a0**2
 #
 #
 # Differential cross section:                       MU=(1-COS(THETA))/2
 #
 #  THETA        MU          DCS          DCS        Sherman      error
 #  (deg)                 (cm**2/sr)   (a0**2/sr)    function
 #----------------------------------------------------------------------
0.00000E+00 8.87736E-09
7.61557E-13 8.40917E-09
1.18994E-12 8.16398E-09
1.71346E-12 7.88054E-09
2.33225E-12 7.56773E-09
3.04617E-12 7.23128E-09
3.85530E-12 6.88149E-09
4.75964E-12 6.52462E-09
5.75917E-12 6.16547E-09
6.85391E-12 5.81380E-09
8.04379E-12 5.47025E-09
9.32893E-12 5.13852E-09
1.07092E-11 4.82452E-09
1.21847E-11 4.52584E-09
1.37554E-11 4.24535E-09
1.54213E-11 3.98421E-09
1.71823E-11 3.73986E-09
1.90386E-11 3.51424E-09
2.09900E-11 3.30552E-09
2.30367E-11 3.11188E-09
2.51785E-11 2.93449E-09
2.74156E-11 2.77042E-09
2.97478E-11 2.61880E-09
3.21752E-11 2.47969E-09
3.46979E-11 2.35080E-09
3.73157E-11 2.23171E-09
4.00286E-11 2.12160E-09
4.28368E-11 2.01936E-09
4.57402E-11 1.92446E-09
4.87388E-11 1.83608E-09
5.18325E-11 1.75371E-09
5.50215E-11 1.67666E-09
5.83057E-11 1.60449E-09
6.16850E-11 1.53694E-09
6.51595E-11 1.47314E-09
6.87293E-11 1.41318E-09
7.23943E-11 1.35668E-09
7.61544E-11 1.30302E-09
1.18991E-10 8.93762E-10
1.71347E-10 6.30997E-10
2.33223E-10 4.48140E-10
3.04617E-10 3.32430E-10
3.85531E-10 2.47985E-10
4.75965E-10 1.89049E-10
5.75917E-10 1.47301E-10
6.85389E-10 1.15395E-10
8.04380E-10 9.19949E-11
9.32891E-10 7.42733E-11
1.07092E-09 6.02538E-11
1.21847E-09 4.94712E-11
1.37554E-09 4.09007E-11
1.54213E-09 3.40087E-11
1.71823E-09 2.85246E-11
1.90386E-09 2.40410E-11
2.09900E-09 2.03918E-11
2.30367E-09 1.74168E-11
2.51785E-09 1.49411E-11
2.74156E-09 1.28975E-11
2.97478E-09 1.11971E-11
3.21752E-09 9.76340E-12
3.46978E-09 8.55955E-12
3.73156E-09 7.53909E-12
4.00286E-09 6.66786E-12
4.28368E-09 5.92410E-12
4.57402E-09 5.28424E-12
4.87388E-09 4.72828E-12
5.18326E-09 4.24545E-12
5.50215E-09 3.82341E-12
5.83057E-09 3.45427E-12
6.16850E-09 3.13040E-12
6.51596E-09 2.84354E-12
6.87293E-09 2.58994E-12
7.23942E-09 2.36460E-12
7.61544E-09 2.16295E-12
1.18991E-08 9.75077E-13
1.71347E-08 5.00014E-13
2.33223E-08 2.81307E-13
3.04617E-08 1.70141E-13
3.85531E-08 1.08893E-13
4.75965E-08 7.29354E-14
5.75917E-08 5.06668E-14
6.85389E-08 3.63011E-14
8.04380E-08 2.66849E-14
9.32891E-08 2.00529E-14
1.07092E-07 1.53595E-14
1.21847E-07 1.19598E-14
1.37554E-07 9.45056E-15
1.54213E-07 7.56491E-15
1.71823E-07 6.12629E-15
1.90386E-07 5.01355E-15
2.09900E-07 4.14175E-15
2.30367E-07 3.45134E-15
2.51785E-07 2.89872E-15
2.74156E-07 2.45230E-15
2.97478E-07 2.08854E-15
3.21752E-07 1.78972E-15
3.46978E-07 1.54247E-15
3.73156E-07 1.33646E-15
4.00286E-07 1.16371E-15
4.28368E-07 1.01800E-15
4.57402E-07 8.94387E-16
4.87388E-07 7.88992E-16
5.18325E-07 6.98673E-16
5.50215E-07 6.20922E-16
5.83057E-07 5.53697E-16
6.16850E-07 4.95329E-16
6.51596E-07 4.44459E-16
6.87293E-07 3.99956E-16
7.23942E-07 3.60889E-16
7.61543E-07 3.26480E-16
1.18991E-06 1.34873E-16
1.71347E-06 6.54209E-17
2.33223E-06 3.54563E-17
3.04617E-06 2.08450E-17
3.85531E-06 1.30419E-17
4.75964E-06 8.57115E-18
5.75916E-06 5.86192E-18
6.85388E-06 4.14329E-18
8.04378E-06 3.01076E-18
9.32888E-06 2.24004E-18
1.07092E-05 1.70089E-18
1.21846E-05 1.31462E-18
1.37553E-05 1.03204E-18
1.54212E-05 8.21469E-19
1.71822E-05 6.61971E-19
1.90385E-05 5.39113E-19
2.09899E-05 4.43931E-19
2.30365E-05 3.68809E-19
2.51783E-05 3.08851E-19
2.74153E-05 2.60540E-19
2.97475E-05 2.21287E-19
3.21749E-05 1.89157E-19
3.46974E-05 1.62667E-19
3.73152E-05 1.40676E-19
4.00281E-05 1.22293E-19
4.28362E-05 1.06825E-19
4.57395E-05 9.37266E-20
4.87380E-05 8.25725E-20
5.18317E-05 7.30248E-20
5.50205E-05 6.48150E-20
5.83045E-05 5.77262E-20
6.16838E-05 5.15815E-20
6.51582E-05 4.62351E-20
6.87277E-05 4.15658E-20
7.23925E-05 3.74727E-20
7.61524E-05 3.41334E-20
9.21439E-05 2.33595E-20
1.09658E-04 1.65238E-20
1.28695E-04 1.20191E-20
1.49255E-04 8.95078E-21
1.71338E-04 6.80327E-21
1.94942E-04 5.26323E-21
2.20070E-04 4.13543E-21
2.46720E-04 3.29413E-21
2.74892E-04 2.65618E-21
3.04586E-04 2.16534E-21
3.35803E-04 1.78265E-21
3.68542E-04 1.48072E-21
4.02802E-04 1.23991E-21
4.38585E-04 1.04595E-21
4.75889E-04 8.88317E-22
5.14715E-04 7.59132E-22
5.55063E-04 6.52454E-22
5.96931E-04 5.63738E-22
6.40321E-04 4.89474E-22
6.85233E-04 4.26929E-22
7.31665E-04 3.73956E-22
7.79618E-04 3.28850E-22
8.29092E-04 2.90254E-22
8.80086E-04 2.57075E-22
9.32601E-04 2.28427E-22
9.86636E-04 2.03590E-22
1.04219E-03 1.81974E-22
1.09927E-03 1.63093E-22
1.15786E-03 1.46543E-22
1.21797E-03 1.31991E-22
1.27961E-03 1.19154E-22
1.34276E-03 1.07797E-22
1.40743E-03 9.77227E-23
1.47362E-03 8.87615E-23
1.54133E-03 8.07708E-23
1.61056E-03 7.36281E-23
1.68131E-03 6.72290E-23
1.75357E-03 6.14835E-23
1.82735E-03 5.63140E-23
1.90265E-03 5.16537E-23
1.97947E-03 4.74443E-23
2.05780E-03 4.36353E-23
2.13765E-03 4.01825E-23
2.21902E-03 3.70474E-23
2.30190E-03 3.41962E-23
2.38630E-03 3.15992E-23
2.47222E-03 2.92302E-23
2.55965E-03 2.70661E-23
2.64859E-03 2.50866E-23
2.73905E-03 2.32734E-23
2.83103E-03 2.16105E-23
2.92452E-03 2.00837E-23
3.01952E-03 1.86800E-23
3.11604E-03 1.73882E-23
3.21407E-03 1.61979E-23
3.31362E-03 1.51002E-23
3.41468E-03 1.40867E-23
3.51725E-03 1.31501E-23
3.62133E-03 1.22837E-23
3.72692E-03 1.14815E-23
3.83403E-03 1.07382E-23
3.94265E-03 1.00488E-23
4.05278E-03 9.40891E-24
4.16442E-03 8.81447E-24
4.27757E-03 8.26183E-24
4.39223E-03 7.74769E-24
4.50840E-03 7.26901E-24
4.62608E-03 6.82304E-24
4.74527E-03 6.40728E-24
4.86597E-03 6.01941E-24
4.98817E-03 5.65735E-24
5.11188E-03 5.31917E-24
5.23711E-03 5.00311E-24
5.36383E-03 4.70755E-24
5.49207E-03 4.43102E-24
5.62181E-03 4.17216E-24
5.75306E-03 3.92970E-24
5.88581E-03 3.70249E-24
6.02007E-03 3.48948E-24
6.15583E-03 3.28969E-24
6.29310E-03 3.10220E-24
6.43187E-03 2.92618E-24
6.57214E-03 2.76087E-24
6.71392E-03 2.60555E-24
6.85720E-03 2.45955E-24
7.00198E-03 2.32226E-24
7.14827E-03 2.19312E-24
7.29605E-03 2.07160E-24
7.44534E-03 1.95721E-24
7.59612E-03 1.84949E-24
7.97965E-03 1.60671E-24
8.37255E-03 1.39724E-24
8.77480E-03 1.21621E-24
9.18641E-03 1.05950E-24
9.60736E-03 9.23639E-25
1.00376E-02 8.05703E-25
1.04773E-02 7.03202E-25
1.09262E-02 6.14018E-25
1.13844E-02 5.36346E-25
1.18520E-02 4.68641E-25
1.23288E-02 4.09578E-25
1.28150E-02 3.58020E-25
1.33104E-02 3.12988E-25
1.38150E-02 2.73635E-25
1.43290E-02 2.39231E-25
1.48521E-02 2.09145E-25
1.53845E-02 1.82829E-25
1.59262E-02 1.59805E-25
1.64770E-02 1.39659E-25
1.70371E-02 1.22033E-25
1.76063E-02 1.06610E-25
1.81848E-02 9.31176E-26
1.87724E-02 8.13153E-26
1.93692E-02 7.09939E-26
1.99751E-02 6.19701E-26
2.05901E-02 5.40833E-26
2.12143E-02 4.71929E-26
2.18476E-02 4.11757E-26
2.24900E-02 3.59235E-26
2.31415E-02 3.13414E-26
2.38021E-02 2.73460E-26
2.44717E-02 2.38643E-26
2.51504E-02 2.08321E-26
2.58382E-02 1.81929E-26
2.65349E-02 1.58973E-26
2.72407E-02 1.39018E-26
2.79555E-02 1.21683E-26
2.86793E-02 1.06633E-26
2.94120E-02 9.35732E-27
3.01537E-02 8.22471E-27
3.09043E-02 7.24288E-27
3.16639E-02 6.39206E-27
3.24324E-02 5.65492E-27
3.32098E-02 5.01636E-27
3.39961E-02 4.46312E-27
3.47912E-02 3.98368E-27
3.55952E-02 3.56797E-27
3.64081E-02 3.20721E-27
3.72297E-02 2.89379E-27
3.80602E-02 2.62107E-27
3.88995E-02 2.38332E-27
3.97476E-02 2.17555E-27
4.06044E-02 1.99347E-27
4.14700E-02 1.83336E-27
4.23443E-02 1.69204E-27
4.32273E-02 1.56675E-27
4.41190E-02 1.45515E-27
4.50194E-02 1.35523E-27
4.59284E-02 1.26528E-27
4.68461E-02 1.18382E-27
4.87074E-02 1.04169E-27
5.06030E-02 9.21095E-28
5.25328E-02 8.16584E-28
5.44967E-02 7.24377E-28
5.64946E-02 6.41891E-28
5.85262E-02 5.67393E-28
6.05914E-02 4.99730E-28
6.26901E-02 4.38141E-28
6.48222E-02 3.82114E-28
6.69873E-02 3.31290E-28
6.91854E-02 2.85390E-28
7.14163E-02 2.44175E-28
7.36799E-02 2.07413E-28
7.59760E-02 1.74867E-28
7.83043E-02 1.46285E-28
8.06647E-02 1.21398E-28
8.30571E-02 9.99237E-29
8.54812E-02 8.15702E-29
8.79369E-02 6.60404E-29
9.04240E-02 5.30383E-29
9.29422E-02 4.22740E-29
9.54915E-02 3.34684E-29
9.80716E-02 2.63571E-29
1.00682E-01 2.06934E-29
1.03323E-01 1.62508E-29
1.05995E-01 1.28237E-29
1.08696E-01 1.02288E-29
1.11427E-01 8.30448E-30
1.14188E-01 6.91030E-30
1.16978E-01 5.92626E-30
1.19797E-01 5.25127E-30
1.22645E-01 4.80163E-30
1.25522E-01 4.50932E-30
1.28428E-01 4.32029E-30
1.31361E-01 4.19262E-30
1.34323E-01 4.09485E-30
1.37313E-01 4.00431E-30
1.40330E-01 3.90561E-30
1.43375E-01 3.78925E-30
1.46447E-01 3.65036E-30
1.49545E-01 3.48761E-30
1.52671E-01 3.30227E-30
1.55823E-01 3.09739E-30
1.59001E-01 2.87718E-30
1.62205E-01 2.64641E-30
1.65435E-01 2.41006E-30
1.68690E-01 2.17292E-30
1.71970E-01 1.93944E-30
1.75276E-01 1.71351E-30
1.78606E-01 1.49840E-30
1.81961E-01 1.29672E-30
1.85340E-01 1.11037E-30
1.88743E-01 9.40657E-31
1.92169E-01 7.88258E-31
1.95619E-01 6.53339E-31
1.99092E-01 5.35610E-31
2.02589E-01 4.34411E-31
2.06107E-01 3.48785E-31
2.09649E-01 2.77557E-31
2.13212E-01 2.19403E-31
2.16797E-01 1.72909E-31
2.20404E-01 1.36632E-31
2.24032E-01 1.09140E-31
2.27680E-01 8.90517E-32
2.31350E-01 7.50657E-32
2.35040E-01 6.59830E-32
2.38751E-01 6.07203E-32
2.42481E-01 5.83190E-32
2.46231E-01 5.79486E-32
2.50000E-01 5.89055E-32
2.53788E-01 6.06079E-32
2.57595E-01 6.25889E-32
2.61421E-01 6.44865E-32
2.65264E-01 6.60333E-32
2.69126E-01 6.70446E-32
2.73005E-01 6.74068E-32
2.76901E-01 6.70658E-32
2.80814E-01 6.60156E-32
2.84744E-01 6.42882E-32
2.88691E-01 6.19442E-32
2.92653E-01 5.90639E-32
2.96632E-01 5.57401E-32
3.00625E-01 5.20721E-32
3.04634E-01 4.81600E-32
3.08658E-01 4.41010E-32
3.12697E-01 3.99860E-32
3.16749E-01 3.58971E-32
3.20816E-01 3.19064E-32
3.24896E-01 2.80745E-32
3.28990E-01 2.44511E-32
3.33097E-01 2.10740E-32
3.37216E-01 1.79706E-32
3.41348E-01 1.51581E-32
3.45492E-01 1.26447E-32
3.49647E-01 1.04303E-32
3.53814E-01 8.50856E-33
3.57992E-01 6.86710E-33
3.62181E-01 5.48928E-33
3.66381E-01 4.35513E-33
3.70590E-01 3.44234E-33
3.74810E-01 2.72726E-33
3.79039E-01 2.18566E-33
3.83277E-01 1.79345E-33
3.87524E-01 1.52726E-33
3.91780E-01 1.36490E-33
3.96044E-01 1.28572E-33
4.00316E-01 1.27088E-33
4.04596E-01 1.30348E-33
4.08882E-01 1.36869E-33
4.13176E-01 1.45374E-33
4.17476E-01 1.54789E-33
4.21783E-01 1.64236E-33
4.26095E-01 1.73018E-33
4.30413E-01 1.80606E-33
4.34737E-01 1.86620E-33
4.39065E-01 1.90816E-33
4.43398E-01 1.93064E-33
4.47736E-01 1.93331E-33
4.52077E-01 1.91663E-33
4.56422E-01 1.88171E-33
4.60770E-01 1.83014E-33
4.65122E-01 1.76385E-33
4.69476E-01 1.68500E-33
4.73832E-01 1.59586E-33
4.78190E-01 1.49874E-33
4.82550E-01 1.39591E-33
4.86912E-01 1.28951E-33
4.91274E-01 1.18155E-33
4.95637E-01 1.07385E-33
5.00000E-01 9.67997E-34
5.04363E-01 8.65390E-34
5.08726E-01 7.67182E-34
5.13088E-01 6.74304E-34
5.17450E-01 5.87474E-34
5.21810E-01 5.07203E-34
5.26168E-01 4.33817E-34
5.30524E-01 3.67471E-34
5.34878E-01 3.08171E-34
5.39230E-01 2.55794E-34
5.43578E-01 2.10109E-34
5.47923E-01 1.70797E-34
5.52264E-01 1.37469E-34
5.56602E-01 1.09685E-34
5.60935E-01 8.69700E-35
5.65263E-01 6.88281E-35
5.69587E-01 5.47564E-35
5.73905E-01 4.42559E-35
5.78217E-01 3.68400E-35
5.82524E-01 3.20431E-35
5.86824E-01 2.94262E-35
5.91118E-01 2.85813E-35
5.95404E-01 2.91349E-35
5.99684E-01 3.07500E-35
6.03956E-01 3.31265E-35
6.08220E-01 3.60019E-35
6.12476E-01 3.91497E-35
6.16723E-01 4.23790E-35
6.20961E-01 4.55314E-35
6.25190E-01 4.84800E-35
6.29410E-01 5.11256E-35
6.33619E-01 5.33950E-35
6.37819E-01 5.52376E-35
6.42008E-01 5.66230E-35
6.46186E-01 5.75377E-35
6.50353E-01 5.79831E-35
6.54508E-01 5.79725E-35
6.58652E-01 5.75289E-35
6.62784E-01 5.66830E-35
6.66903E-01 5.54710E-35
6.71010E-01 5.39329E-35
6.75104E-01 5.21112E-35
6.79184E-01 5.00493E-35
6.83251E-01 4.77906E-35
6.87303E-01 4.53773E-35
6.91342E-01 4.28499E-35
6.95366E-01 4.02465E-35
6.99375E-01 3.76023E-35
7.03368E-01 3.49495E-35
7.07347E-01 3.23169E-35
7.11309E-01 2.97297E-35
7.15256E-01 2.72099E-35
7.19186E-01 2.47760E-35
7.23099E-01 2.24432E-35
7.26995E-01 2.02237E-35
7.30874E-01 1.81266E-35
7.34736E-01 1.61587E-35
7.38579E-01 1.43240E-35
7.42405E-01 1.26246E-35
7.46212E-01 1.10604E-35
7.50000E-01 9.62988E-36
7.53769E-01 8.33004E-36
7.57519E-01 7.15664E-36
7.61249E-01 6.10450E-36
7.64960E-01 5.16763E-36
7.68650E-01 4.33954E-36
7.72320E-01 3.61329E-36
7.75968E-01 2.98167E-36
7.79596E-01 2.43737E-36
7.83203E-01 1.97305E-36
7.86788E-01 1.58150E-36
7.90351E-01 1.25564E-36
7.93893E-01 9.88664E-37
7.97411E-01 7.74047E-37
8.00908E-01 6.05612E-37
8.04381E-01 4.77565E-37
8.07831E-01 3.84497E-37
8.11257E-01 3.21394E-37
8.14660E-01 2.83651E-37
8.18039E-01 2.67096E-37
8.21394E-01 2.67927E-37
8.24724E-01 2.82743E-37
8.28030E-01 3.08514E-37
8.31310E-01 3.42571E-37
8.34565E-01 3.82560E-37
8.37795E-01 4.26455E-37
8.40999E-01 4.72514E-37
8.44177E-01 5.19259E-37
8.47329E-01 5.65456E-37
8.50455E-01 6.10094E-37
8.53553E-01 6.52354E-37
8.56625E-01 6.91597E-37
8.59670E-01 7.27340E-37
8.62687E-01 7.59236E-37
8.65677E-01 7.87061E-37
8.68639E-01 8.10680E-37
8.71572E-01 8.30066E-37
8.74478E-01 8.45250E-37
8.77355E-01 8.56334E-37
8.80203E-01 8.63453E-37
8.83022E-01 8.66793E-37
8.85812E-01 8.66571E-37
8.88573E-01 8.63024E-37
8.91304E-01 8.56403E-37
8.94005E-01 8.46965E-37
8.96677E-01 8.34974E-37
8.99318E-01 8.20692E-37
9.01928E-01 8.04382E-37
9.04508E-01 7.86299E-37
9.07058E-01 7.66679E-37
9.09576E-01 7.45763E-37
9.12063E-01 7.23765E-37
9.14519E-01 7.00900E-37
9.16943E-01 6.77353E-37
9.19335E-01 6.53306E-37
9.21696E-01 6.28926E-37
9.24024E-01 6.04364E-37
9.26320E-01 5.79752E-37
9.28584E-01 5.55214E-37
9.30815E-01 5.30868E-37
9.33013E-01 5.06801E-37
9.35178E-01 4.83103E-37
9.37310E-01 4.59841E-37
9.39409E-01 4.37087E-37
9.41474E-01 4.14894E-37
9.43505E-01 3.93302E-37
9.45503E-01 3.72352E-37
9.47467E-01 3.52070E-37
9.49397E-01 3.32478E-37
9.51293E-01 3.13590E-37
9.53154E-01 2.95423E-37
9.54981E-01 2.77975E-37
9.56773E-01 2.61253E-37
9.58530E-01 2.45249E-37
9.60252E-01 2.29957E-37
9.61940E-01 2.15369E-37
9.63592E-01 2.01466E-37
9.65209E-01 1.88246E-37
9.66790E-01 1.75684E-37
9.68336E-01 1.63760E-37
9.69846E-01 1.52461E-37
9.71321E-01 1.41767E-37
9.72759E-01 1.31656E-37
9.74162E-01 1.22103E-37
9.75528E-01 1.13091E-37
9.76858E-01 1.04597E-37
9.78152E-01 9.66024E-38
9.79410E-01 8.90848E-38
9.80631E-01 8.20168E-38
9.81815E-01 7.53861E-38
9.82963E-01 6.91651E-38
9.84074E-01 6.33393E-38
9.85148E-01 5.78873E-38
9.86185E-01 5.27927E-38
9.87185E-01 4.80323E-38
9.88148E-01 4.35927E-38
9.89074E-01 3.94572E-38
9.89962E-01 3.56045E-38
9.90814E-01 3.20265E-38
9.91627E-01 2.87043E-38
9.92404E-01 2.56259E-38
9.93143E-01 2.27747E-38
9.93844E-01 2.01424E-38
9.94508E-01 1.77194E-38
9.95134E-01 1.54883E-38
9.95722E-01 1.34417E-38
9.96273E-01 1.15690E-38
9.96786E-01 9.86477E-39
9.97261E-01 8.31988E-39
9.97698E-01 6.92343E-39
9.98097E-01 5.67218E-39
9.98459E-01 4.55839E-39
9.98782E-01 3.57684E-39
9.99067E-01 2.72150E-39
9.99315E-01 1.98921E-39
9.99524E-01 1.37703E-39
9.99695E-01 8.79260E-40
9.99829E-01 4.95214E-40
9.99924E-01 2.22224E-40
9.99981E-01 5.87968E-41
1.00000E+00 3.78938E-42
