 #
 # Subroutine ELSEPA. Elastic scattering of electrons and positrons
 #                    by neutral atoms and positive ions
 #
 # Projectile: electron
 # Kinetic energy = 6.00000E+06 eV = 2.20496E+05 a.u.
 #
 # WARNING: High-energy factorization with free-atom DF screening.
 #          Absorption, polarization and exchange corrections are
 #          switched off.
 #          Phase shifts are calculated for the bare nucleus.
 #          Scattering amplitudes are not evaluated.
 #
 # Element: Er,  Z =  68,  atomic weight = 1.67260E+02 g/mol
 #
 # Nuclear model: Fermi distribution
 #                Average radius = 5.89542E-13 cm
 #                Skin thickness = 5.46000E-14 cm
 #
 # Number of electrons = 68
 #
 # Total elastic cross section = 7.10569E-18 cm**2 = 2.53749E-01 a0**2
 # 1st transport cross section = 1.84544E-22 cm**2 = 6.59019E-06 a0**2
 # 2nd transport cross section = 5.06063E-22 cm**2 = 1.80718E-05 a0**2
 #
 #
 # Differential cross section:                       MU=(1-COS(THETA))/2
 #
 #  THETA        MU          DCS          DCS        Sherman      error
 #  (deg)                 (cm**2/sr)   (a0**2/sr)    function
 #----------------------------------------------------------------------
0.00000E+00 3.06320E-12
7.61557E-13 3.06315E-12
1.18994E-12 3.06311E-12
1.71346E-12 3.06307E-12
2.33225E-12 3.06303E-12
3.04617E-12 3.06297E-12
3.85530E-12 3.06291E-12
4.75964E-12 3.06284E-12
5.75917E-12 3.06277E-12
6.85391E-12 3.06268E-12
8.04379E-12 3.06259E-12
9.32893E-12 3.06249E-12
1.07092E-11 3.06239E-12
1.21847E-11 3.06228E-12
1.37554E-11 3.06216E-12
1.54213E-11 3.06203E-12
1.71823E-11 3.06190E-12
1.90386E-11 3.06175E-12
2.09900E-11 3.06161E-12
2.30367E-11 3.06145E-12
2.51785E-11 3.06129E-12
2.74156E-11 3.06112E-12
2.97478E-11 3.06094E-12
3.21752E-11 3.06076E-12
3.46979E-11 3.06056E-12
3.73157E-11 3.06036E-12
4.00286E-11 3.06016E-12
4.28368E-11 3.05995E-12
4.57402E-11 3.05972E-12
4.87388E-11 3.05950E-12
5.18325E-11 3.05926E-12
5.50215E-11 3.05902E-12
5.83057E-11 3.05877E-12
6.16850E-11 3.05851E-12
6.51595E-11 3.05825E-12
6.87293E-11 3.05798E-12
7.23943E-11 3.05770E-12
7.61544E-11 3.05742E-12
1.18991E-10 3.05417E-12
1.71347E-10 3.05021E-12
2.33223E-10 3.04554E-12
3.04617E-10 3.04017E-12
3.85531E-10 3.03410E-12
4.75965E-10 3.02734E-12
5.75917E-10 3.01990E-12
6.85389E-10 3.01178E-12
8.04380E-10 3.00301E-12
9.32891E-10 2.99357E-12
1.07092E-09 2.98350E-12
1.21847E-09 2.97279E-12
1.37554E-09 2.96147E-12
1.54213E-09 2.94954E-12
1.71823E-09 2.93701E-12
1.90386E-09 2.92390E-12
2.09900E-09 2.91023E-12
2.30367E-09 2.89601E-12
2.51785E-09 2.88125E-12
2.74156E-09 2.86598E-12
2.97478E-09 2.85020E-12
3.21752E-09 2.83393E-12
3.46978E-09 2.81719E-12
3.73156E-09 2.80000E-12
4.00286E-09 2.78237E-12
4.28368E-09 2.76432E-12
4.57402E-09 2.74587E-12
4.87388E-09 2.72704E-12
5.18326E-09 2.70783E-12
5.50215E-09 2.68831E-12
5.83057E-09 2.66857E-12
6.16850E-09 2.64847E-12
6.51596E-09 2.62805E-12
6.87293E-09 2.60731E-12
7.23942E-09 2.58628E-12
7.61544E-09 2.56497E-12
1.18991E-08 2.34270E-12
1.71347E-08 2.11416E-12
2.33223E-08 1.89209E-12
3.04617E-08 1.68471E-12
3.85531E-08 1.49688E-12
4.75965E-08 1.33046E-12
5.75917E-08 1.18523E-12
6.85389E-08 1.06005E-12
8.04380E-08 9.52178E-13
9.32891E-08 8.59293E-13
1.07092E-07 7.79160E-13
1.21847E-07 7.09749E-13
1.37554E-07 6.49296E-13
1.54213E-07 5.96252E-13
1.71823E-07 5.49390E-13
1.90386E-07 5.07713E-13
2.09900E-07 4.70412E-13
2.30367E-07 4.36813E-13
2.51785E-07 4.06299E-13
2.74156E-07 3.78537E-13
2.97478E-07 3.53175E-13
3.21752E-07 3.29926E-13
3.46978E-07 3.08549E-13
3.73156E-07 2.88785E-13
4.00286E-07 2.70504E-13
4.28368E-07 2.53594E-13
4.57402E-07 2.37928E-13
4.87388E-07 2.23397E-13
5.18325E-07 2.09894E-13
5.50215E-07 1.97067E-13
5.83057E-07 1.84276E-13
6.16850E-07 1.72754E-13
6.51596E-07 1.62348E-13
6.87293E-07 1.52928E-13
7.23942E-07 1.44378E-13
7.61543E-07 1.36601E-13
1.18991E-06 7.99991E-14
1.71347E-06 4.94448E-14
2.33223E-06 3.20504E-14
3.04617E-06 2.16176E-14
3.85531E-06 1.50354E-14
4.75964E-06 1.07252E-14
5.75916E-06 7.82224E-15
6.85388E-06 5.81666E-15
8.04378E-06 4.41314E-15
9.32888E-06 3.41106E-15
1.07092E-05 2.68169E-15
1.21846E-05 2.14091E-15
1.37553E-05 1.73317E-15
1.54212E-05 1.41860E-15
1.71822E-05 1.17404E-15
1.90385E-05 9.80752E-16
2.09899E-05 8.27241E-16
2.30365E-05 7.02820E-16
2.51783E-05 6.00685E-16
2.74153E-05 5.16277E-16
2.97475E-05 4.46062E-16
3.21749E-05 3.87335E-16
3.46974E-05 3.37965E-16
3.73152E-05 2.96202E-16
4.00281E-05 2.60692E-16
4.28362E-05 2.30335E-16
4.57395E-05 2.04240E-16
4.87380E-05 1.81701E-16
5.18317E-05 1.62152E-16
5.50205E-05 1.45112E-16
5.83045E-05 1.30189E-16
6.16838E-05 1.17205E-16
6.51582E-05 1.05863E-16
6.87277E-05 9.57817E-17
7.23925E-05 8.68851E-17
7.61524E-05 7.90333E-17
9.21439E-05 5.52126E-17
1.09658E-04 3.97230E-17
1.28695E-04 2.93186E-17
1.49255E-04 2.21153E-17
1.71338E-04 1.70004E-17
1.94942E-04 1.32852E-17
2.20070E-04 1.05322E-17
2.46720E-04 8.45750E-18
2.74892E-04 6.87002E-18
3.04586E-04 5.63858E-18
3.35803E-04 4.67126E-18
3.68542E-04 3.90280E-18
4.02802E-04 3.28583E-18
4.38585E-04 2.78612E-18
4.75889E-04 2.37792E-18
5.14715E-04 2.04182E-18
5.55063E-04 1.76306E-18
5.96931E-04 1.53026E-18
6.40321E-04 1.33464E-18
6.85233E-04 1.16933E-18
7.31665E-04 1.02886E-18
7.79618E-04 9.08893E-19
8.29092E-04 8.05931E-19
8.80086E-04 7.17152E-19
9.32601E-04 6.40293E-19
9.86636E-04 5.73482E-19
1.04219E-03 5.15183E-19
1.09927E-03 4.64127E-19
1.15786E-03 4.19255E-19
1.21797E-03 3.79693E-19
1.27961E-03 3.44704E-19
1.34276E-03 3.13669E-19
1.40743E-03 2.86062E-19
1.47362E-03 2.61437E-19
1.54133E-03 2.39415E-19
1.61056E-03 2.19674E-19
1.68131E-03 2.01934E-19
1.75357E-03 1.85958E-19
1.82735E-03 1.71539E-19
1.90265E-03 1.58496E-19
1.97947E-03 1.46675E-19
2.05780E-03 1.35942E-19
2.13765E-03 1.26178E-19
2.21902E-03 1.17280E-19
2.30190E-03 1.09156E-19
2.38630E-03 1.01728E-19
2.47222E-03 9.49239E-20
2.55965E-03 8.86830E-20
2.64859E-03 8.29496E-20
2.73905E-03 7.76750E-20
2.83103E-03 7.28152E-20
2.92452E-03 6.83322E-20
3.01952E-03 6.41910E-20
3.11604E-03 6.03609E-20
3.21407E-03 5.68141E-20
3.31362E-03 5.35257E-20
3.41468E-03 5.04735E-20
3.51725E-03 4.76371E-20
3.62133E-03 4.49987E-20
3.72692E-03 4.25418E-20
3.83403E-03 4.02515E-20
3.94265E-03 3.81143E-20
4.05278E-03 3.61182E-20
4.16442E-03 3.42521E-20
4.27757E-03 3.25059E-20
4.39223E-03 3.08705E-20
4.50840E-03 2.93374E-20
4.62608E-03 2.78992E-20
4.74527E-03 2.65487E-20
4.86597E-03 2.52796E-20
4.98817E-03 2.40862E-20
5.11188E-03 2.29629E-20
5.23711E-03 2.19050E-20
5.36383E-03 2.09078E-20
5.49207E-03 1.99672E-20
5.62181E-03 1.90794E-20
5.75306E-03 1.82410E-20
5.88581E-03 1.74485E-20
6.02007E-03 1.66990E-20
6.15583E-03 1.59897E-20
6.29310E-03 1.53181E-20
6.43187E-03 1.46817E-20
6.57214E-03 1.40784E-20
6.71392E-03 1.35061E-20
6.85720E-03 1.29629E-20
7.00198E-03 1.24470E-20
7.14827E-03 1.19568E-20
7.29605E-03 1.14907E-20
7.44534E-03 1.10475E-20
7.59612E-03 1.06256E-20
7.97965E-03 9.65674E-21
8.37255E-03 8.79707E-21
8.77480E-03 8.03208E-21
9.18641E-03 7.34946E-21
9.60736E-03 6.73872E-21
1.00376E-02 6.19095E-21
1.04773E-02 5.69846E-21
1.09262E-02 5.25465E-21
1.13844E-02 4.85384E-21
1.18520E-02 4.49106E-21
1.23288E-02 4.16206E-21
1.28150E-02 3.86311E-21
1.33104E-02 3.59096E-21
1.38150E-02 3.34274E-21
1.43290E-02 3.11596E-21
1.48521E-02 2.90841E-21
1.53845E-02 2.71817E-21
1.59262E-02 2.54351E-21
1.64770E-02 2.38292E-21
1.70371E-02 2.23504E-21
1.76063E-02 2.09867E-21
1.81848E-02 1.97275E-21
1.87724E-02 1.85633E-21
1.93692E-02 1.74854E-21
1.99751E-02 1.64863E-21
2.05901E-02 1.55591E-21
2.12143E-02 1.46975E-21
2.18476E-02 1.38961E-21
2.24900E-02 1.31498E-21
2.31415E-02 1.24541E-21
2.38021E-02 1.18049E-21
2.44717E-02 1.11984E-21
2.51504E-02 1.06313E-21
2.58382E-02 1.01005E-21
2.65349E-02 9.60332E-22
2.72407E-02 9.13708E-22
2.79555E-02 8.69951E-22
2.86793E-02 8.28851E-22
2.94120E-02 7.90213E-22
3.01537E-02 7.53861E-22
3.09043E-02 7.19632E-22
3.16639E-02 6.87376E-22
3.24324E-02 6.56957E-22
3.32098E-02 6.28250E-22
3.39961E-02 6.01137E-22
3.47912E-02 5.75514E-22
3.55952E-02 5.51280E-22
3.64081E-02 5.28346E-22
3.72297E-02 5.06627E-22
3.80602E-02 4.86046E-22
3.88995E-02 4.66531E-22
3.97476E-02 4.48015E-22
4.06044E-02 4.30438E-22
4.14700E-02 4.13740E-22
4.23443E-02 3.97870E-22
4.32273E-02 3.82777E-22
4.41190E-02 3.68415E-22
4.50194E-02 3.54742E-22
4.59284E-02 3.41718E-22
4.68461E-02 3.29305E-22
4.87074E-02 3.06179E-22
5.06030E-02 2.85110E-22
5.25328E-02 2.65881E-22
5.44967E-02 2.48297E-22
5.64946E-02 2.32190E-22
5.85262E-02 2.17410E-22
6.05914E-02 2.03827E-22
6.26901E-02 1.91324E-22
6.48222E-02 1.79797E-22
6.69873E-02 1.69154E-22
6.91854E-02 1.59314E-22
7.14163E-02 1.50203E-22
7.36799E-02 1.41757E-22
7.59760E-02 1.33917E-22
7.83043E-02 1.26629E-22
8.06647E-02 1.19848E-22
8.30571E-02 1.13531E-22
8.54812E-02 1.07638E-22
8.79369E-02 1.02136E-22
9.04240E-02 9.69935E-23
9.29422E-02 9.21815E-23
9.54915E-02 8.76744E-23
9.80716E-02 8.34487E-23
1.00682E-01 7.94832E-23
1.03323E-01 7.57585E-23
1.05995E-01 7.22567E-23
1.08696E-01 6.89616E-23
1.11427E-01 6.58583E-23
1.14188E-01 6.29334E-23
1.16978E-01 6.01742E-23
1.19797E-01 5.75695E-23
1.22645E-01 5.51087E-23
1.25522E-01 5.27820E-23
1.28428E-01 5.05805E-23
1.31361E-01 4.84961E-23
1.34323E-01 4.65212E-23
1.37313E-01 4.46487E-23
1.40330E-01 4.28722E-23
1.43375E-01 4.11857E-23
1.46447E-01 3.95835E-23
1.49545E-01 3.80606E-23
1.52671E-01 3.66122E-23
1.55823E-01 3.52338E-23
1.59001E-01 3.39212E-23
1.62205E-01 3.26707E-23
1.65435E-01 3.14786E-23
1.68690E-01 3.03416E-23
1.71970E-01 2.92567E-23
1.75276E-01 2.82208E-23
1.78606E-01 2.72313E-23
1.81961E-01 2.62856E-23
1.85340E-01 2.53814E-23
1.88743E-01 2.45164E-23
1.92169E-01 2.36885E-23
1.95619E-01 2.28959E-23
1.99092E-01 2.21366E-23
2.02589E-01 2.14090E-23
2.06107E-01 2.07114E-23
2.09649E-01 2.00423E-23
2.13212E-01 1.94003E-23
2.16797E-01 1.87840E-23
2.20404E-01 1.81923E-23
2.24032E-01 1.76238E-23
2.27680E-01 1.70775E-23
2.31350E-01 1.65523E-23
2.35040E-01 1.60472E-23
2.38751E-01 1.55613E-23
2.42481E-01 1.50937E-23
2.46231E-01 1.46435E-23
2.50000E-01 1.42099E-23
2.53788E-01 1.37922E-23
2.57595E-01 1.33897E-23
2.61421E-01 1.30018E-23
2.65264E-01 1.26276E-23
2.69126E-01 1.22667E-23
2.73005E-01 1.19185E-23
2.76901E-01 1.15825E-23
2.80814E-01 1.12580E-23
2.84744E-01 1.09447E-23
2.88691E-01 1.06421E-23
2.92653E-01 1.03496E-23
2.96632E-01 1.00670E-23
3.00625E-01 9.79372E-24
3.04634E-01 9.52948E-24
3.08658E-01 9.27389E-24
3.12697E-01 9.02660E-24
3.16749E-01 8.78728E-24
3.20816E-01 8.55562E-24
3.24896E-01 8.33133E-24
3.28990E-01 8.11410E-24
3.33097E-01 7.90368E-24
3.37216E-01 7.69980E-24
3.41348E-01 7.50222E-24
3.45492E-01 7.31069E-24
3.49647E-01 7.12499E-24
3.53814E-01 6.94491E-24
3.57992E-01 6.77023E-24
3.62181E-01 6.60076E-24
3.66381E-01 6.43631E-24
3.70590E-01 6.27670E-24
3.74810E-01 6.12176E-24
3.79039E-01 5.97131E-24
3.83277E-01 5.82521E-24
3.87524E-01 5.68329E-24
3.91780E-01 5.54542E-24
3.96044E-01 5.41144E-24
4.00316E-01 5.28124E-24
4.04596E-01 5.15467E-24
4.08882E-01 5.03162E-24
4.13176E-01 4.91197E-24
4.17476E-01 4.79560E-24
4.21783E-01 4.68241E-24
4.26095E-01 4.57228E-24
4.30413E-01 4.46512E-24
4.34737E-01 4.36083E-24
4.39065E-01 4.25933E-24
4.43398E-01 4.16051E-24
4.47736E-01 4.06429E-24
4.52077E-01 3.97059E-24
4.56422E-01 3.87933E-24
4.60770E-01 3.79043E-24
4.65122E-01 3.70383E-24
4.69476E-01 3.61944E-24
4.73832E-01 3.53720E-24
4.78190E-01 3.45704E-24
4.82550E-01 3.37891E-24
4.86912E-01 3.30273E-24
4.91274E-01 3.22846E-24
4.95637E-01 3.15602E-24
5.00000E-01 3.08537E-24
5.04363E-01 3.01646E-24
5.08726E-01 2.94923E-24
5.13088E-01 2.88364E-24
5.17450E-01 2.81963E-24
5.21810E-01 2.75716E-24
5.26168E-01 2.69619E-24
5.30524E-01 2.63668E-24
5.34878E-01 2.57857E-24
5.39230E-01 2.52184E-24
5.43578E-01 2.46644E-24
5.47923E-01 2.41234E-24
5.52264E-01 2.35949E-24
5.56602E-01 2.30787E-24
5.60935E-01 2.25745E-24
5.65263E-01 2.20818E-24
5.69587E-01 2.16004E-24
5.73905E-01 2.11299E-24
5.78217E-01 2.06701E-24
5.82524E-01 2.02207E-24
5.86824E-01 1.97814E-24
5.91118E-01 1.93520E-24
5.95404E-01 1.89320E-24
5.99684E-01 1.85214E-24
6.03956E-01 1.81198E-24
6.08220E-01 1.77271E-24
6.12476E-01 1.73430E-24
6.16723E-01 1.69673E-24
6.20961E-01 1.65998E-24
6.25190E-01 1.62402E-24
6.29410E-01 1.58885E-24
6.33619E-01 1.55443E-24
6.37819E-01 1.52074E-24
6.42008E-01 1.48778E-24
6.46186E-01 1.45552E-24
6.50353E-01 1.42394E-24
6.54508E-01 1.39304E-24
6.58652E-01 1.36278E-24
6.62784E-01 1.33316E-24
6.66903E-01 1.30416E-24
6.71010E-01 1.27576E-24
6.75104E-01 1.24796E-24
6.79184E-01 1.22073E-24
6.83251E-01 1.19407E-24
6.87303E-01 1.16795E-24
6.91342E-01 1.14237E-24
6.95366E-01 1.11732E-24
6.99375E-01 1.09278E-24
7.03368E-01 1.06874E-24
7.07347E-01 1.04518E-24
7.11309E-01 1.02211E-24
7.15256E-01 9.99497E-25
7.19186E-01 9.77344E-25
7.23099E-01 9.55636E-25
7.26995E-01 9.34364E-25
7.30874E-01 9.13518E-25
7.34736E-01 8.93088E-25
7.38579E-01 8.73066E-25
7.42405E-01 8.53441E-25
7.46212E-01 8.34206E-25
7.50000E-01 8.15353E-25
7.53769E-01 7.96872E-25
7.57519E-01 7.78755E-25
7.61249E-01 7.60996E-25
7.64960E-01 7.43586E-25
7.68650E-01 7.26517E-25
7.72320E-01 7.09783E-25
7.75968E-01 6.93377E-25
7.79596E-01 6.77291E-25
7.83203E-01 6.61520E-25
7.86788E-01 6.46056E-25
7.90351E-01 6.30893E-25
7.93893E-01 6.16025E-25
7.97411E-01 6.01447E-25
8.00908E-01 5.87151E-25
8.04381E-01 5.73133E-25
8.07831E-01 5.59387E-25
8.11257E-01 5.45907E-25
8.14660E-01 5.32688E-25
8.18039E-01 5.19726E-25
8.21394E-01 5.07014E-25
8.24724E-01 4.94549E-25
8.28030E-01 4.82325E-25
8.31310E-01 4.70338E-25
8.34565E-01 4.58583E-25
8.37795E-01 4.47056E-25
8.40999E-01 4.35753E-25
8.44177E-01 4.24668E-25
8.47329E-01 4.13799E-25
8.50455E-01 4.03141E-25
8.53553E-01 3.92691E-25
8.56625E-01 3.82444E-25
8.59670E-01 3.72397E-25
8.62687E-01 3.62546E-25
8.65677E-01 3.52887E-25
8.68639E-01 3.43418E-25
8.71572E-01 3.34135E-25
8.74478E-01 3.25035E-25
8.77355E-01 3.16114E-25
8.80203E-01 3.07369E-25
8.83022E-01 2.98798E-25
8.85812E-01 2.90397E-25
8.88573E-01 2.82164E-25
8.91304E-01 2.74095E-25
8.94005E-01 2.66188E-25
8.96677E-01 2.58440E-25
8.99318E-01 2.50849E-25
9.01928E-01 2.43413E-25
9.04508E-01 2.36127E-25
9.07058E-01 2.28991E-25
9.09576E-01 2.22002E-25
9.12063E-01 2.15158E-25
9.14519E-01 2.08455E-25
9.16943E-01 2.01893E-25
9.19335E-01 1.95469E-25
9.21696E-01 1.89181E-25
9.24024E-01 1.83026E-25
9.26320E-01 1.77003E-25
9.28584E-01 1.71111E-25
9.30815E-01 1.65346E-25
9.33013E-01 1.59708E-25
9.35178E-01 1.54194E-25
9.37310E-01 1.48803E-25
9.39409E-01 1.43533E-25
9.41474E-01 1.38382E-25
9.43505E-01 1.33349E-25
9.45503E-01 1.28433E-25
9.47467E-01 1.23631E-25
9.49397E-01 1.18942E-25
9.51293E-01 1.14365E-25
9.53154E-01 1.09898E-25
9.54981E-01 1.05541E-25
9.56773E-01 1.01291E-25
9.58530E-01 9.71471E-26
9.60252E-01 9.31087E-26
9.61940E-01 8.91742E-26
9.63592E-01 8.53424E-26
9.65209E-01 8.16122E-26
9.66790E-01 7.79824E-26
9.68336E-01 7.44521E-26
9.69846E-01 7.10200E-26
9.71321E-01 6.76853E-26
9.72759E-01 6.44469E-26
9.74162E-01 6.13039E-26
9.75528E-01 5.82553E-26
9.76858E-01 5.53002E-26
9.78152E-01 5.24378E-26
9.79410E-01 4.96673E-26
9.80631E-01 4.69878E-26
9.81815E-01 4.43985E-26
9.82963E-01 4.18987E-26
9.84074E-01 3.94877E-26
9.85148E-01 3.71648E-26
9.86185E-01 3.49293E-26
9.87185E-01 3.27805E-26
9.88148E-01 3.07178E-26
9.89074E-01 2.87407E-26
9.89962E-01 2.68486E-26
9.90814E-01 2.50408E-26
9.91627E-01 2.33170E-26
9.92404E-01 2.16766E-26
9.93143E-01 2.01192E-26
9.93844E-01 1.86443E-26
9.94508E-01 1.72514E-26
9.95134E-01 1.59402E-26
9.95722E-01 1.47104E-26
9.96273E-01 1.35615E-26
9.96786E-01 1.24932E-26
9.97261E-01 1.15053E-26
9.97698E-01 1.05975E-26
9.98097E-01 9.76943E-27
9.98459E-01 9.02095E-27
9.98782E-01 8.35181E-27
9.99067E-01 7.76184E-27
9.99315E-01 7.25087E-27
9.99524E-01 6.81876E-27
9.99695E-01 6.46538E-27
9.99829E-01 6.19063E-27
9.99924E-01 5.99443E-27
9.99981E-01 5.87674E-27
1.00000E+00 5.83751E-27
