 #
 # Subroutine ELSEPA. Elastic scattering of electrons and positrons
 #                    by neutral atoms and positive ions
 #
 # Projectile: electron
 # Kinetic energy = 1.00000E+08 eV = 3.67493E+06 a.u.
 #
 # WARNING: High-energy factorization with free-atom DF screening.
 #          Absorption, polarization and exchange corrections are
 #          switched off.
 #          Phase shifts are calculated for the bare nucleus.
 #          Scattering amplitudes are not evaluated.
 #
 # Element: Er,  Z =  68,  atomic weight = 1.67260E+02 g/mol
 #
 # Nuclear model: Fermi distribution
 #                Average radius = 5.89542E-13 cm
 #                Skin thickness = 5.46000E-14 cm
 #
 # Number of electrons = 68
 #
 # Total elastic cross section = 7.05602E-18 cm**2 = 2.51975E-01 a0**2
 # 1st transport cross section = 8.84092E-25 cm**2 = 3.15715E-08 a0**2
 # 2nd transport cross section = 2.63147E-24 cm**2 = 9.39715E-08 a0**2
 #
 #
 # Differential cross section:                       MU=(1-COS(THETA))/2
 #
 #  THETA        MU          DCS          DCS        Sherman      error
 #  (deg)                 (cm**2/sr)   (a0**2/sr)    function
 #----------------------------------------------------------------------
0.00000E+00 7.29975E-10
7.61557E-13 7.26668E-10
1.18994E-12 7.24821E-10
1.71346E-12 7.22576E-10
2.33225E-12 7.19937E-10
3.04617E-12 7.16914E-10
3.85530E-12 7.13513E-10
4.75964E-12 7.09745E-10
5.75917E-12 7.05618E-10
6.85391E-12 7.01146E-10
8.04379E-12 6.96339E-10
9.32893E-12 6.91210E-10
1.07092E-11 6.85773E-10
1.21847E-11 6.80040E-10
1.37554E-11 6.74027E-10
1.54213E-11 6.67748E-10
1.71823E-11 6.61219E-10
1.90386E-11 6.54455E-10
2.09900E-11 6.47471E-10
2.30367E-11 6.40291E-10
2.51785E-11 6.32959E-10
2.74156E-11 6.25435E-10
2.97478E-11 6.17734E-10
3.21752E-11 6.09870E-10
3.46979E-11 6.01856E-10
3.73157E-11 5.93804E-10
4.00286E-11 5.85672E-10
4.28368E-11 5.77432E-10
4.57402E-11 5.69098E-10
4.87388E-11 5.60682E-10
5.18325E-11 5.52238E-10
5.50215E-11 5.43864E-10
5.83057E-11 5.35445E-10
6.16850E-11 5.26990E-10
6.51595E-11 5.18511E-10
6.87293E-11 5.10018E-10
7.23943E-11 5.01670E-10
7.61544E-11 4.93368E-10
1.18991E-10 4.13680E-10
1.71347E-10 3.44499E-10
2.33223E-10 2.87670E-10
3.04617E-10 2.42148E-10
3.85531E-10 2.06041E-10
4.75965E-10 1.77324E-10
5.75917E-10 1.54240E-10
6.85389E-10 1.35399E-10
8.04380E-10 1.19742E-10
9.32891E-10 1.06530E-10
1.07092E-09 9.52251E-11
1.21847E-09 8.54410E-11
1.37554E-09 7.68940E-11
1.54213E-09 6.93706E-11
1.71823E-09 6.27012E-11
1.90386E-09 5.67796E-11
2.09900E-09 5.15063E-11
2.30367E-09 4.67228E-11
2.51785E-09 4.21671E-11
2.74156E-09 3.82827E-11
2.97478E-09 3.49507E-11
3.21752E-09 3.20762E-11
3.46978E-09 2.95830E-11
3.73156E-09 2.70847E-11
4.00286E-09 2.47839E-11
4.28368E-09 2.27754E-11
4.57402E-09 2.10141E-11
4.87388E-09 1.94631E-11
5.18326E-09 1.80419E-11
5.50215E-09 1.66393E-11
5.83057E-09 1.53966E-11
6.16850E-09 1.42916E-11
6.51596E-09 1.33055E-11
6.87293E-09 1.24229E-11
7.23942E-09 1.15562E-11
7.61544E-09 1.07591E-11
1.18991E-08 5.68472E-12
1.71347E-08 3.24080E-12
2.33223E-08 1.95346E-12
3.04617E-08 1.23975E-12
3.85531E-08 8.23967E-13
4.75965E-08 5.70399E-13
5.75917E-08 4.09027E-13
6.85389E-08 3.01550E-13
8.04380E-08 2.27827E-13
9.32891E-08 1.75635E-13
1.07092E-07 1.37623E-13
1.21847E-07 1.09323E-13
1.37554E-07 8.79005E-14
1.54213E-07 7.14576E-14
1.71823E-07 5.86646E-14
1.90386E-07 4.85933E-14
2.09900E-07 4.05774E-14
2.30367E-07 3.41326E-14
2.51785E-07 2.89022E-14
2.74156E-07 2.46692E-14
2.97478E-07 2.11541E-14
3.21752E-07 1.82610E-14
3.46978E-07 1.58357E-14
3.73156E-07 1.38057E-14
4.00286E-07 1.20892E-14
4.28368E-07 1.06325E-14
4.57402E-07 9.38968E-15
4.87388E-07 8.32209E-15
5.18325E-07 7.40416E-15
5.50215E-07 6.60760E-15
5.83057E-07 5.91772E-15
6.16850E-07 5.31352E-15
6.51596E-07 4.78635E-15
6.87293E-07 4.32175E-15
7.23942E-07 3.91313E-15
7.61543E-07 3.55125E-15
1.18991E-06 1.50499E-15
1.71347E-06 7.42235E-16
2.33223E-06 4.06819E-16
3.04617E-06 2.41057E-16
3.85531E-06 1.51709E-16
4.75964E-06 1.00167E-16
5.75916E-06 6.87703E-17
6.85388E-06 4.87692E-17
8.04378E-06 3.55414E-17
9.32888E-06 2.65115E-17
1.07092E-05 2.01769E-17
1.21846E-05 1.56269E-17
1.37553E-05 1.22907E-17
1.54212E-05 9.79932E-18
1.71822E-05 7.90859E-18
1.90385E-05 6.44955E-18
2.09899E-05 5.31741E-18
2.30365E-05 4.42249E-18
2.51783E-05 3.70726E-18
2.74153E-05 3.13023E-18
2.97475E-05 2.66085E-18
3.21749E-05 2.27621E-18
3.46974E-05 1.95880E-18
3.73152E-05 1.69505E-18
4.00281E-05 1.47441E-18
4.28362E-05 1.28860E-18
4.57395E-05 1.13115E-18
4.87380E-05 9.96977E-19
5.18317E-05 8.82061E-19
5.50205E-05 7.83193E-19
5.83045E-05 6.97780E-19
6.16838E-05 6.23707E-19
6.51582E-05 5.59228E-19
6.87277E-05 5.02892E-19
7.23925E-05 4.53489E-19
7.61524E-05 4.10328E-19
9.21439E-05 2.80778E-19
1.09658E-04 1.98567E-19
1.28695E-04 1.44394E-19
1.49255E-04 1.07504E-19
1.71338E-04 8.16935E-20
1.94942E-04 6.31914E-20
2.20070E-04 4.96501E-20
2.46720E-04 3.95546E-20
2.74892E-04 3.19032E-20
3.04586E-04 2.60191E-20
3.35803E-04 2.14335E-20
3.68542E-04 1.78171E-20
4.02802E-04 1.49339E-20
4.38585E-04 1.26124E-20
4.75889E-04 1.07260E-20
5.14715E-04 9.18043E-21
5.55063E-04 7.90421E-21
5.96931E-04 6.84289E-21
6.40321E-04 5.95439E-21
6.85233E-04 5.20597E-21
7.31665E-04 4.57190E-21
7.79618E-04 4.03181E-21
8.29092E-04 3.56943E-21
8.80086E-04 3.17171E-21
9.32601E-04 2.82806E-21
9.86636E-04 2.52989E-21
1.04219E-03 2.27015E-21
1.09927E-03 2.04302E-21
1.15786E-03 1.84371E-21
1.21797E-03 1.66821E-21
1.27961E-03 1.51319E-21
1.34276E-03 1.37583E-21
1.40743E-03 1.25378E-21
1.47362E-03 1.14501E-21
1.54133E-03 1.04783E-21
1.61056E-03 9.60792E-22
1.68131E-03 8.82638E-22
1.75357E-03 8.12302E-22
1.82735E-03 7.48862E-22
1.90265E-03 6.91519E-22
1.97947E-03 6.39582E-22
2.05780E-03 5.92449E-22
2.13765E-03 5.49595E-22
2.21902E-03 5.10560E-22
2.30190E-03 4.74943E-22
2.38630E-03 4.42390E-22
2.47222E-03 4.12589E-22
2.55965E-03 3.85256E-22
2.64859E-03 3.60156E-22
2.73905E-03 3.37073E-22
2.83103E-03 3.15814E-22
2.92452E-03 2.96210E-22
3.01952E-03 2.78107E-22
3.11604E-03 2.61369E-22
3.21407E-03 2.45873E-22
3.31362E-03 2.31512E-22
3.41468E-03 2.18185E-22
3.51725E-03 2.05805E-22
3.62133E-03 1.94291E-22
3.72692E-03 1.83572E-22
3.83403E-03 1.73583E-22
3.94265E-03 1.64264E-22
4.05278E-03 1.55563E-22
4.16442E-03 1.47430E-22
4.27757E-03 1.39821E-22
4.39223E-03 1.32697E-22
4.50840E-03 1.26020E-22
4.62608E-03 1.19757E-22
4.74527E-03 1.13878E-22
4.86597E-03 1.08355E-22
4.98817E-03 1.03161E-22
5.11188E-03 9.82746E-23
5.23711E-03 9.36730E-23
5.36383E-03 8.93367E-23
5.49207E-03 8.52476E-23
5.62181E-03 8.13888E-23
5.75306E-03 7.77450E-23
5.88581E-03 7.43018E-23
6.02007E-03 7.10462E-23
6.15583E-03 6.79660E-23
6.29310E-03 6.50499E-23
6.43187E-03 6.22875E-23
6.57214E-03 5.96693E-23
6.71392E-03 5.71862E-23
6.85720E-03 5.48299E-23
7.00198E-03 5.25928E-23
7.14827E-03 5.04676E-23
7.29605E-03 4.84478E-23
7.44534E-03 4.65271E-23
7.59612E-03 4.46996E-23
7.97965E-03 4.05048E-23
8.37255E-03 3.67855E-23
8.77480E-03 3.34784E-23
9.18641E-03 3.05300E-23
9.60736E-03 2.78945E-23
1.00376E-02 2.55330E-23
1.04773E-02 2.34121E-23
1.09262E-02 2.15029E-23
1.13844E-02 1.97806E-23
1.18520E-02 1.82238E-23
1.23288E-02 1.68137E-23
1.28150E-02 1.55343E-23
1.33104E-02 1.43712E-23
1.38150E-02 1.33120E-23
1.43290E-02 1.23460E-23
1.48521E-02 1.14634E-23
1.53845E-02 1.06558E-23
1.59262E-02 9.91580E-24
1.64770E-02 9.23672E-24
1.70371E-02 8.61272E-24
1.76063E-02 8.03856E-24
1.81848E-02 7.50958E-24
1.87724E-02 7.02164E-24
1.93692E-02 6.57102E-24
1.99751E-02 6.15438E-24
2.05901E-02 5.76874E-24
2.12143E-02 5.41141E-24
2.18476E-02 5.07997E-24
2.24900E-02 4.77222E-24
2.31415E-02 4.48622E-24
2.38021E-02 4.22016E-24
2.44717E-02 3.97243E-24
2.51504E-02 3.74157E-24
2.58382E-02 3.52625E-24
2.65349E-02 3.32525E-24
2.72407E-02 3.13748E-24
2.79555E-02 2.96192E-24
2.86793E-02 2.79765E-24
2.94120E-02 2.64385E-24
3.01537E-02 2.49973E-24
3.09043E-02 2.36460E-24
3.16639E-02 2.23781E-24
3.24324E-02 2.11878E-24
3.32098E-02 2.00694E-24
3.39961E-02 1.90182E-24
3.47912E-02 1.80294E-24
3.55952E-02 1.70987E-24
3.64081E-02 1.62224E-24
3.72297E-02 1.53967E-24
3.80602E-02 1.46183E-24
3.88995E-02 1.38842E-24
3.97476E-02 1.31914E-24
4.06044E-02 1.25373E-24
4.14700E-02 1.19195E-24
4.23443E-02 1.13357E-24
4.32273E-02 1.07837E-24
4.41190E-02 1.02616E-24
4.50194E-02 9.76761E-25
4.59284E-02 9.29995E-25
4.68461E-02 8.85705E-25
4.87074E-02 8.03977E-25
5.06030E-02 7.30509E-25
5.25328E-02 6.64371E-25
5.44967E-02 6.04750E-25
5.64946E-02 5.50934E-25
5.85262E-02 5.02298E-25
6.05914E-02 4.58291E-25
6.26901E-02 4.18429E-25
6.48222E-02 3.82283E-25
6.69873E-02 3.49473E-25
6.91854E-02 3.19664E-25
7.14163E-02 2.92555E-25
7.36799E-02 2.67882E-25
7.59760E-02 2.45407E-25
7.83043E-02 2.24919E-25
8.06647E-02 2.06227E-25
8.30571E-02 1.89164E-25
8.54812E-02 1.73576E-25
8.79369E-02 1.59327E-25
9.04240E-02 1.46294E-25
9.29422E-02 1.34367E-25
9.54915E-02 1.23447E-25
9.80716E-02 1.13443E-25
1.00682E-01 1.04274E-25
1.03323E-01 9.58671E-26
1.05995E-01 8.81554E-26
1.08696E-01 8.10788E-26
1.11427E-01 7.45825E-26
1.14188E-01 6.86170E-26
1.16978E-01 6.31372E-26
1.19797E-01 5.81020E-26
1.22645E-01 5.34742E-26
1.25522E-01 4.92196E-26
1.28428E-01 4.53072E-26
1.31361E-01 4.17089E-26
1.34323E-01 3.83987E-26
1.37313E-01 3.53530E-26
1.40330E-01 3.25502E-26
1.43375E-01 2.99707E-26
1.46447E-01 2.75963E-26
1.49545E-01 2.54104E-26
1.52671E-01 2.33981E-26
1.55823E-01 2.15452E-26
1.59001E-01 1.98391E-26
1.62205E-01 1.82681E-26
1.65435E-01 1.68214E-26
1.68690E-01 1.54891E-26
1.71970E-01 1.42623E-26
1.75276E-01 1.31325E-26
1.78606E-01 1.20921E-26
1.81961E-01 1.11341E-26
1.85340E-01 1.02519E-26
1.88743E-01 9.43967E-27
1.92169E-01 8.69180E-27
1.95619E-01 8.00328E-27
1.99092E-01 7.36945E-27
2.02589E-01 6.78601E-27
2.06107E-01 6.24900E-27
2.09649E-01 5.75478E-27
2.13212E-01 5.30000E-27
2.16797E-01 4.88154E-27
2.20404E-01 4.49656E-27
2.24032E-01 4.14243E-27
2.27680E-01 3.81670E-27
2.31350E-01 3.51715E-27
2.35040E-01 3.24171E-27
2.38751E-01 2.98847E-27
2.42481E-01 2.75567E-27
2.46231E-01 2.54170E-27
2.50000E-01 2.34505E-27
2.53788E-01 2.16435E-27
2.57595E-01 1.99833E-27
2.61421E-01 1.84581E-27
2.65264E-01 1.70572E-27
2.69126E-01 1.57704E-27
2.73005E-01 1.45887E-27
2.76901E-01 1.35036E-27
2.80814E-01 1.25071E-27
2.84744E-01 1.15923E-27
2.88691E-01 1.07523E-27
2.92653E-01 9.98104E-28
2.96632E-01 9.27295E-28
3.00625E-01 8.62280E-28
3.04634E-01 8.02582E-28
3.08658E-01 7.47761E-28
3.12697E-01 6.97411E-28
3.16749E-01 6.51160E-28
3.20816E-01 6.08666E-28
3.24896E-01 5.69612E-28
3.28990E-01 5.33711E-28
3.33097E-01 5.00694E-28
3.37216E-01 4.70318E-28
3.41348E-01 4.42358E-28
3.45492E-01 4.16609E-28
3.49647E-01 3.92880E-28
3.53814E-01 3.70998E-28
3.57992E-01 3.50804E-28
3.62181E-01 3.32153E-28
3.66381E-01 3.14911E-28
3.70590E-01 2.98956E-28
3.74810E-01 2.84175E-28
3.79039E-01 2.70467E-28
3.83277E-01 2.57737E-28
3.87524E-01 2.45901E-28
3.91780E-01 2.34881E-28
3.96044E-01 2.24604E-28
4.00316E-01 2.15007E-28
4.04596E-01 2.06030E-28
4.08882E-01 1.97618E-28
4.13176E-01 1.89724E-28
4.17476E-01 1.82301E-28
4.21783E-01 1.75311E-28
4.26095E-01 1.68715E-28
4.30413E-01 1.62480E-28
4.34737E-01 1.56575E-28
4.39065E-01 1.50974E-28
4.43398E-01 1.45651E-28
4.47736E-01 1.40584E-28
4.52077E-01 1.35751E-28
4.56422E-01 1.31135E-28
4.60770E-01 1.26719E-28
4.65122E-01 1.22487E-28
4.69476E-01 1.18426E-28
4.73832E-01 1.14524E-28
4.78190E-01 1.10769E-28
4.82550E-01 1.07152E-28
4.86912E-01 1.03664E-28
4.91274E-01 1.00296E-28
4.95637E-01 9.70405E-29
5.00000E-01 9.38918E-29
5.04363E-01 9.08437E-29
5.08726E-01 8.78908E-29
5.13088E-01 8.50284E-29
5.17450E-01 8.22520E-29
5.21810E-01 7.95577E-29
5.26168E-01 7.69420E-29
5.30524E-01 7.44018E-29
5.34878E-01 7.19340E-29
5.39230E-01 6.95361E-29
5.43578E-01 6.72057E-29
5.47923E-01 6.49405E-29
5.52264E-01 6.27386E-29
5.56602E-01 6.05981E-29
5.60935E-01 5.85174E-29
5.65263E-01 5.64947E-29
5.69587E-01 5.45287E-29
5.73905E-01 5.26179E-29
5.78217E-01 5.07611E-29
5.82524E-01 4.89571E-29
5.86824E-01 4.72046E-29
5.91118E-01 4.55026E-29
5.95404E-01 4.38499E-29
5.99684E-01 4.22456E-29
6.03956E-01 4.06886E-29
6.08220E-01 3.91780E-29
6.12476E-01 3.77128E-29
6.16723E-01 3.62920E-29
6.20961E-01 3.49148E-29
6.25190E-01 3.35803E-29
6.29410E-01 3.22875E-29
6.33619E-01 3.10356E-29
6.37819E-01 2.98237E-29
6.42008E-01 2.86509E-29
6.46186E-01 2.75163E-29
6.50353E-01 2.64192E-29
6.54508E-01 2.53586E-29
6.58652E-01 2.43338E-29
6.62784E-01 2.33438E-29
6.66903E-01 2.23878E-29
6.71010E-01 2.14650E-29
6.75104E-01 2.05746E-29
6.79184E-01 1.97157E-29
6.83251E-01 1.88876E-29
6.87303E-01 1.80894E-29
6.91342E-01 1.73204E-29
6.95366E-01 1.65797E-29
6.99375E-01 1.58665E-29
7.03368E-01 1.51801E-29
7.07347E-01 1.45197E-29
7.11309E-01 1.38846E-29
7.15256E-01 1.32740E-29
7.19186E-01 1.26872E-29
7.23099E-01 1.21234E-29
7.26995E-01 1.15819E-29
7.30874E-01 1.10620E-29
7.34736E-01 1.05631E-29
7.38579E-01 1.00845E-29
7.42405E-01 9.62538E-30
7.46212E-01 9.18524E-30
7.50000E-01 8.76340E-30
7.53769E-01 8.35923E-30
7.57519E-01 7.97211E-30
7.61249E-01 7.60144E-30
7.64960E-01 7.24664E-30
7.68650E-01 6.90714E-30
7.72320E-01 6.58237E-30
7.75968E-01 6.27180E-30
7.79596E-01 5.97489E-30
7.83203E-01 5.69113E-30
7.86788E-01 5.42002E-30
7.90351E-01 5.16106E-30
7.93893E-01 4.91378E-30
7.97411E-01 4.67772E-30
8.00908E-01 4.45244E-30
8.04381E-01 4.23749E-30
8.07831E-01 4.03247E-30
8.11257E-01 3.83695E-30
8.14660E-01 3.65056E-30
8.18039E-01 3.47290E-30
8.21394E-01 3.30360E-30
8.24724E-01 3.14232E-30
8.28030E-01 2.98870E-30
8.31310E-01 2.84241E-30
8.34565E-01 2.70314E-30
8.37795E-01 2.57057E-30
8.40999E-01 2.44440E-30
8.44177E-01 2.32435E-30
8.47329E-01 2.21014E-30
8.50455E-01 2.10151E-30
8.53553E-01 1.99819E-30
8.56625E-01 1.89994E-30
8.59670E-01 1.80653E-30
8.62687E-01 1.71773E-30
8.65677E-01 1.63332E-30
8.68639E-01 1.55309E-30
8.71572E-01 1.47684E-30
8.74478E-01 1.40438E-30
8.77355E-01 1.33553E-30
8.80203E-01 1.27010E-30
8.83022E-01 1.20793E-30
8.85812E-01 1.14886E-30
8.88573E-01 1.09274E-30
8.91304E-01 1.03941E-30
8.94005E-01 9.88735E-31
8.96677E-01 9.40584E-31
8.99318E-01 8.94826E-31
9.01928E-01 8.51340E-31
9.04508E-01 8.10008E-31
9.07058E-01 7.70719E-31
9.09576E-01 7.33368E-31
9.12063E-01 6.97854E-31
9.14519E-01 6.64081E-31
9.16943E-01 6.31958E-31
9.19335E-01 6.01398E-31
9.21696E-01 5.72320E-31
9.24024E-01 5.44645E-31
9.26320E-01 5.18299E-31
9.28584E-01 4.93212E-31
9.30815E-01 4.69317E-31
9.33013E-01 4.46551E-31
9.35178E-01 4.24855E-31
9.37310E-01 4.04171E-31
9.39409E-01 3.84446E-31
9.41474E-01 3.65630E-31
9.43505E-01 3.47675E-31
9.45503E-01 3.30535E-31
9.47467E-01 3.14168E-31
9.49397E-01 2.98534E-31
9.51293E-01 2.83595E-31
9.53154E-01 2.69316E-31
9.54981E-01 2.55661E-31
9.56773E-01 2.42601E-31
9.58530E-01 2.30105E-31
9.60252E-01 2.18145E-31
9.61940E-01 2.06695E-31
9.63592E-01 1.95730E-31
9.65209E-01 1.85227E-31
9.66790E-01 1.75165E-31
9.68336E-01 1.65523E-31
9.69846E-01 1.56282E-31
9.71321E-01 1.47425E-31
9.72759E-01 1.38934E-31
9.74162E-01 1.30795E-31
9.75528E-01 1.22992E-31
9.76858E-01 1.15513E-31
9.78152E-01 1.08345E-31
9.79410E-01 1.01476E-31
9.80631E-01 9.48948E-32
9.81815E-01 8.85920E-32
9.82963E-01 8.25578E-32
9.84074E-01 7.67837E-32
9.85148E-01 7.12615E-32
9.86185E-01 6.59838E-32
9.87185E-01 6.09438E-32
9.88148E-01 5.61350E-32
9.89074E-01 5.15515E-32
9.89962E-01 4.71880E-32
9.90814E-01 4.30395E-32
9.91627E-01 3.91013E-32
9.92404E-01 3.53694E-32
9.93143E-01 3.18397E-32
9.93844E-01 2.85089E-32
9.94508E-01 2.53737E-32
9.95134E-01 2.24312E-32
9.95722E-01 1.96786E-32
9.96273E-01 1.71137E-32
9.96786E-01 1.47341E-32
9.97261E-01 1.25380E-32
9.97698E-01 1.05235E-32
9.98097E-01 8.68915E-33
9.98459E-01 7.03344E-33
9.98782E-01 5.55515E-33
9.99067E-01 4.25322E-33
9.99315E-01 3.12670E-33
9.99524E-01 2.17480E-33
9.99695E-01 1.39686E-33
9.99829E-01 7.92343E-34
9.99924E-01 3.60834E-34
9.99981E-01 1.02044E-34
1.00000E+00 1.57930E-35
