 #
 # Subroutine ELSEPA. Elastic scattering of electrons and positrons
 #                    by neutral atoms and positive ions
 #
 # Projectile: electron
 # Kinetic energy = 1.25000E+08 eV = 4.59367E+06 a.u.
 #
 # WARNING: High-energy factorization with free-atom DF screening.
 #          Absorption, polarization and exchange corrections are
 #          switched off.
 #          Phase shifts are calculated for the bare nucleus.
 #          Scattering amplitudes are not evaluated.
 #
 # Element: Er,  Z =  68,  atomic weight = 1.67260E+02 g/mol
 #
 # Nuclear model: Fermi distribution
 #                Average radius = 5.89542E-13 cm
 #                Skin thickness = 5.46000E-14 cm
 #
 # Number of electrons = 68
 #
 # Total elastic cross section = 7.05605E-18 cm**2 = 2.51976E-01 a0**2
 # 1st transport cross section = 5.66178E-25 cm**2 = 2.02186E-08 a0**2
 # 2nd transport cross section = 1.68952E-24 cm**2 = 6.03337E-08 a0**2
 #
 #
 # Differential cross section:                       MU=(1-COS(THETA))/2
 #
 #  THETA        MU          DCS          DCS        Sherman      error
 #  (deg)                 (cm**2/sr)   (a0**2/sr)    function
 #----------------------------------------------------------------------
0.00000E+00 1.13827E-09
7.61557E-13 1.13025E-09
1.18994E-12 1.12578E-09
1.71346E-12 1.12037E-09
2.33225E-12 1.11403E-09
3.04617E-12 1.10678E-09
3.85530E-12 1.09867E-09
4.75964E-12 1.08972E-09
5.75917E-12 1.07998E-09
6.85391E-12 1.06947E-09
8.04379E-12 1.05825E-09
9.32893E-12 1.04635E-09
1.07092E-11 1.03383E-09
1.21847E-11 1.02072E-09
1.37554E-11 1.00708E-09
1.54213E-11 9.93002E-10
1.71823E-11 9.78498E-10
1.90386E-11 9.63553E-10
2.09900E-11 9.48211E-10
2.30367E-11 9.32551E-10
2.51785E-11 9.16808E-10
2.74156E-11 9.00796E-10
2.97478E-11 8.84552E-10
3.21752E-11 8.68117E-10
3.46979E-11 8.51778E-10
3.73157E-11 8.35397E-10
4.00286E-11 8.18929E-10
4.28368E-11 8.02408E-10
4.57402E-11 7.86012E-10
4.87388E-11 7.69843E-10
5.18325E-11 7.53705E-10
5.50215E-11 7.37622E-10
5.83057E-11 7.21627E-10
6.16850E-11 7.06114E-10
6.51595E-11 6.90717E-10
6.87293E-11 6.75452E-10
7.23943E-11 6.60339E-10
7.61544E-11 6.45646E-10
1.18991E-10 5.13987E-10
1.71347E-10 4.11583E-10
2.33223E-10 3.34569E-10
3.04617E-10 2.76910E-10
3.85531E-10 2.32965E-10
4.75965E-10 1.98690E-10
5.75917E-10 1.71240E-10
6.85389E-10 1.48735E-10
8.04380E-10 1.29958E-10
9.32891E-10 1.14067E-10
1.07092E-09 1.00439E-10
1.21847E-09 8.87130E-11
1.37554E-09 7.85718E-11
1.54213E-09 6.93212E-11
1.71823E-09 6.12617E-11
1.90386E-09 5.46211E-11
2.09900E-09 4.91003E-11
2.30367E-09 4.43395E-11
2.51785E-09 3.95978E-11
2.74156E-09 3.56029E-11
2.97478E-09 3.22132E-11
3.21752E-09 2.93177E-11
3.46978E-09 2.65402E-11
3.73156E-09 2.40728E-11
4.00286E-09 2.19422E-11
4.28368E-09 2.00928E-11
4.57402E-09 1.84048E-11
4.87388E-09 1.68244E-11
5.18326E-09 1.54399E-11
5.50215E-09 1.42217E-11
5.83057E-09 1.31430E-11
6.16850E-09 1.20922E-11
6.51596E-09 1.11605E-11
6.87293E-09 1.03317E-11
7.23942E-09 9.59181E-12
7.61544E-09 8.89174E-12
1.18991E-08 4.43740E-12
1.71347E-08 2.42013E-12
2.33223E-08 1.42289E-12
3.04617E-08 8.92565E-13
3.85531E-08 5.91491E-13
4.75965E-08 4.08993E-13
5.75917E-08 2.92840E-13
6.85389E-08 2.15361E-13
8.04380E-08 1.61825E-13
9.32891E-08 1.23870E-13
1.07092E-07 9.63635E-14
1.21847E-07 7.60501E-14
1.37554E-07 6.07829E-14
1.54213E-07 4.91074E-14
1.71823E-07 4.01396E-14
1.90386E-07 3.31088E-14
2.09900E-07 2.75746E-14
2.30367E-07 2.31260E-14
2.51785E-07 1.95538E-14
2.74156E-07 1.66413E-14
2.97478E-07 1.42540E-14
3.21752E-07 1.22814E-14
3.46978E-07 1.06368E-14
3.73156E-07 9.26231E-15
4.00286E-07 8.09969E-15
4.28368E-07 7.11631E-15
4.57402E-07 6.27698E-15
4.87388E-07 5.55831E-15
5.18325E-07 4.94001E-15
5.50215E-07 4.40483E-15
5.83057E-07 3.94103E-15
6.16850E-07 3.53589E-15
6.51596E-07 3.18205E-15
6.87293E-07 2.87114E-15
7.23942E-07 2.59736E-15
7.61543E-07 2.35552E-15
1.18991E-06 9.91003E-16
1.71347E-06 4.85978E-16
2.33223E-06 2.65272E-16
3.04617E-06 1.56762E-16
3.85531E-06 9.84829E-17
4.75964E-06 6.49466E-17
5.75916E-06 4.45506E-17
6.85388E-06 3.15715E-17
8.04378E-06 2.29947E-17
9.32888E-06 1.71433E-17
1.07092E-05 1.30405E-17
1.21846E-05 1.00951E-17
1.37553E-05 7.93629E-18
1.54212E-05 6.32490E-18
1.71822E-05 5.10249E-18
1.90385E-05 4.15960E-18
2.09899E-05 3.42823E-18
2.30365E-05 2.85033E-18
2.51783E-05 2.38863E-18
2.74153E-05 2.01626E-18
2.97475E-05 1.71347E-18
3.21749E-05 1.46542E-18
3.46974E-05 1.26079E-18
3.73152E-05 1.09080E-18
4.00281E-05 9.48619E-19
4.28362E-05 8.28920E-19
4.57395E-05 7.27515E-19
4.87380E-05 6.41121E-19
5.18317E-05 5.67140E-19
5.50205E-05 5.03502E-19
5.83045E-05 4.48535E-19
6.16838E-05 4.00873E-19
6.51582E-05 3.59391E-19
6.87277E-05 3.23153E-19
7.23925E-05 2.91380E-19
7.61524E-05 2.63751E-19
9.21439E-05 1.80443E-19
1.09658E-04 1.27594E-19
1.28695E-04 9.27766E-20
1.49255E-04 6.90719E-20
1.71338E-04 5.24885E-20
1.94942E-04 4.06017E-20
2.20070E-04 3.19023E-20
2.46720E-04 2.54169E-20
2.74892E-04 2.05015E-20
3.04586E-04 1.67214E-20
3.35803E-04 1.37754E-20
3.68542E-04 1.14520E-20
4.02802E-04 9.59948E-21
4.38585E-04 8.10778E-21
4.75889E-04 6.89564E-21
5.14715E-04 5.90238E-21
5.55063E-04 5.08217E-21
5.96931E-04 4.40002E-21
6.40321E-04 3.82890E-21
6.85233E-04 3.34778E-21
7.31665E-04 2.94014E-21
7.79618E-04 2.59288E-21
8.29092E-04 2.29557E-21
8.80086E-04 2.03981E-21
9.32601E-04 1.81881E-21
9.86636E-04 1.62703E-21
1.04219E-03 1.45996E-21
1.09927E-03 1.31385E-21
1.15786E-03 1.18563E-21
1.21797E-03 1.07273E-21
1.27961E-03 9.72985E-22
1.34276E-03 8.84604E-22
1.40743E-03 8.06064E-22
1.47362E-03 7.36074E-22
1.54133E-03 6.73540E-22
1.61056E-03 6.17521E-22
1.68131E-03 5.67211E-22
1.75357E-03 5.21932E-22
1.82735E-03 4.81090E-22
1.90265E-03 4.44174E-22
1.97947E-03 4.10736E-22
2.05780E-03 3.80390E-22
2.13765E-03 3.52799E-22
2.21902E-03 3.27666E-22
2.30190E-03 3.04734E-22
2.38630E-03 2.83773E-22
2.47222E-03 2.64584E-22
2.55965E-03 2.46990E-22
2.64859E-03 2.30833E-22
2.73905E-03 2.15975E-22
2.83103E-03 2.02291E-22
2.92452E-03 1.89673E-22
3.01952E-03 1.78021E-22
3.11604E-03 1.67249E-22
3.21407E-03 1.57277E-22
3.31362E-03 1.48035E-22
3.41468E-03 1.39460E-22
3.51725E-03 1.31494E-22
3.62133E-03 1.24087E-22
3.72692E-03 1.17191E-22
3.83403E-03 1.10766E-22
3.94265E-03 1.04772E-22
4.05278E-03 9.91760E-23
4.16442E-03 9.39462E-23
4.27757E-03 8.90542E-23
4.39223E-03 8.44741E-23
4.50840E-03 8.01823E-23
4.62608E-03 7.61574E-23
4.74527E-03 7.23796E-23
4.86597E-03 6.88309E-23
4.98817E-03 6.54949E-23
5.11188E-03 6.23564E-23
5.23711E-03 5.94016E-23
5.36383E-03 5.66177E-23
5.49207E-03 5.39929E-23
5.62181E-03 5.15166E-23
5.75306E-03 4.91786E-23
5.88581E-03 4.69700E-23
6.02007E-03 4.48821E-23
6.15583E-03 4.29072E-23
6.29310E-03 4.10379E-23
6.43187E-03 3.92677E-23
6.57214E-03 3.75903E-23
6.71392E-03 3.59999E-23
6.85720E-03 3.44911E-23
7.00198E-03 3.30591E-23
7.14827E-03 3.16991E-23
7.29605E-03 3.04069E-23
7.44534E-03 2.91785E-23
7.59612E-03 2.80101E-23
7.97965E-03 2.53297E-23
8.37255E-03 2.29552E-23
8.77480E-03 2.08459E-23
9.18641E-03 1.89671E-23
9.60736E-03 1.72894E-23
1.00376E-02 1.57878E-23
1.04773E-02 1.44406E-23
1.09262E-02 1.32294E-23
1.13844E-02 1.21381E-23
1.18520E-02 1.11529E-23
1.23288E-02 1.02618E-23
1.28150E-02 9.45430E-24
1.33104E-02 8.72131E-24
1.38150E-02 8.05484E-24
1.43290E-02 7.44786E-24
1.48521E-02 6.89421E-24
1.53845E-02 6.38846E-24
1.59262E-02 5.92581E-24
1.64770E-02 5.50200E-24
1.70371E-02 5.11325E-24
1.76063E-02 4.75623E-24
1.81848E-02 4.42793E-24
1.87724E-02 4.12569E-24
1.93692E-02 3.84713E-24
1.99751E-02 3.59011E-24
2.05901E-02 3.35272E-24
2.12143E-02 3.13323E-24
2.18476E-02 2.93009E-24
2.24900E-02 2.74192E-24
2.31415E-02 2.56744E-24
2.38021E-02 2.40552E-24
2.44717E-02 2.25512E-24
2.51504E-02 2.11532E-24
2.58382E-02 1.98526E-24
2.65349E-02 1.86416E-24
2.72407E-02 1.75133E-24
2.79555E-02 1.64613E-24
2.86793E-02 1.54797E-24
2.94120E-02 1.45632E-24
3.01537E-02 1.37069E-24
3.09043E-02 1.29064E-24
3.16639E-02 1.21575E-24
3.24324E-02 1.14565E-24
3.32098E-02 1.08001E-24
3.39961E-02 1.01849E-24
3.47912E-02 9.60812E-25
3.55952E-02 9.06707E-25
3.64081E-02 8.55927E-25
3.72297E-02 8.08245E-25
3.80602E-02 7.63449E-25
3.88995E-02 7.21347E-25
3.97476E-02 6.81759E-25
4.06044E-02 6.44517E-25
4.14700E-02 6.09470E-25
4.23443E-02 5.76473E-25
4.32273E-02 5.45395E-25
4.41190E-02 5.16113E-25
4.50194E-02 4.88513E-25
4.59284E-02 4.62489E-25
4.68461E-02 4.37943E-25
4.87074E-02 3.92923E-25
5.06030E-02 3.52793E-25
5.25328E-02 3.16979E-25
5.44967E-02 2.84980E-25
5.64946E-02 2.56361E-25
5.85262E-02 2.30738E-25
6.05914E-02 2.07778E-25
6.26901E-02 1.87185E-25
6.48222E-02 1.68701E-25
6.69873E-02 1.52097E-25
6.91854E-02 1.37173E-25
7.14163E-02 1.23749E-25
7.36799E-02 1.11668E-25
7.59760E-02 1.00789E-25
7.83043E-02 9.09879E-26
8.06647E-02 8.21540E-26
8.30571E-02 7.41883E-26
8.54812E-02 6.70030E-26
8.79369E-02 6.05193E-26
9.04240E-02 5.46671E-26
9.29422E-02 4.93835E-26
9.54915E-02 4.46120E-26
9.80716E-02 4.03023E-26
1.00682E-01 3.64090E-26
1.03323E-01 3.28914E-26
1.05995E-01 2.97130E-26
1.08696E-01 2.68407E-26
1.11427E-01 2.42451E-26
1.14188E-01 2.18994E-26
1.16978E-01 1.97796E-26
1.19797E-01 1.78640E-26
1.22645E-01 1.61330E-26
1.25522E-01 1.45689E-26
1.28428E-01 1.31559E-26
1.31361E-01 1.18794E-26
1.34323E-01 1.07264E-26
1.37313E-01 9.68520E-27
1.40330E-01 8.74508E-27
1.43375E-01 7.89640E-27
1.46447E-01 7.13042E-27
1.49545E-01 6.43924E-27
1.52671E-01 5.81571E-27
1.55823E-01 5.25334E-27
1.59001E-01 4.74627E-27
1.62205E-01 4.28918E-27
1.65435E-01 3.87724E-27
1.68690E-01 3.50612E-27
1.71970E-01 3.17184E-27
1.75276E-01 2.87084E-27
1.78606E-01 2.59987E-27
1.81961E-01 2.35600E-27
1.85340E-01 2.13657E-27
1.88743E-01 1.93917E-27
1.92169E-01 1.76164E-27
1.95619E-01 1.60199E-27
1.99092E-01 1.45846E-27
2.02589E-01 1.32941E-27
2.06107E-01 1.21341E-27
2.09649E-01 1.10912E-27
2.13212E-01 1.01537E-27
2.16797E-01 9.31080E-28
2.20404E-01 8.55274E-28
2.24032E-01 7.87082E-28
2.27680E-01 7.25715E-28
2.31350E-01 6.70463E-28
2.35040E-01 6.20685E-28
2.38751E-01 5.75806E-28
2.42481E-01 5.35307E-28
2.46231E-01 4.98724E-28
2.50000E-01 4.65637E-28
2.53788E-01 4.35672E-28
2.57595E-01 4.08493E-28
2.61421E-01 3.83798E-28
2.65264E-01 3.61318E-28
2.69126E-01 3.40811E-28
2.73005E-01 3.22062E-28
2.76901E-01 3.04879E-28
2.80814E-01 2.89091E-28
2.84744E-01 2.74545E-28
2.88691E-01 2.61106E-28
2.92653E-01 2.48653E-28
2.96632E-01 2.37079E-28
3.00625E-01 2.26291E-28
3.04634E-01 2.16203E-28
3.08658E-01 2.06742E-28
3.12697E-01 1.97844E-28
3.16749E-01 1.89449E-28
3.20816E-01 1.81509E-28
3.24896E-01 1.73978E-28
3.28990E-01 1.66818E-28
3.33097E-01 1.59995E-28
3.37216E-01 1.53478E-28
3.41348E-01 1.47242E-28
3.45492E-01 1.41264E-28
3.49647E-01 1.35525E-28
3.53814E-01 1.30007E-28
3.57992E-01 1.24694E-28
3.62181E-01 1.19575E-28
3.66381E-01 1.14638E-28
3.70590E-01 1.09873E-28
3.74810E-01 1.05271E-28
3.79039E-01 1.00825E-28
3.83277E-01 9.65288E-29
3.87524E-01 9.23762E-29
3.91780E-01 8.83624E-29
3.96044E-01 8.44827E-29
4.00316E-01 8.07332E-29
4.04596E-01 7.71102E-29
4.08882E-01 7.36105E-29
4.13176E-01 7.02310E-29
4.17476E-01 6.69689E-29
4.21783E-01 6.38215E-29
4.26095E-01 6.07863E-29
4.30413E-01 5.78608E-29
4.34737E-01 5.50428E-29
4.39065E-01 5.23299E-29
4.43398E-01 4.97197E-29
4.47736E-01 4.72102E-29
4.52077E-01 4.47989E-29
4.56422E-01 4.24838E-29
4.60770E-01 4.02624E-29
4.65122E-01 3.81326E-29
4.69476E-01 3.60921E-29
4.73832E-01 3.41386E-29
4.78190E-01 3.22698E-29
4.82550E-01 3.04834E-29
4.86912E-01 2.87771E-29
4.91274E-01 2.71485E-29
4.95637E-01 2.55954E-29
5.00000E-01 2.41153E-29
5.04363E-01 2.27060E-29
5.08726E-01 2.13651E-29
5.13088E-01 2.00904E-29
5.17450E-01 1.88796E-29
5.21810E-01 1.77303E-29
5.26168E-01 1.66403E-29
5.30524E-01 1.56074E-29
5.34878E-01 1.46295E-29
5.39230E-01 1.37042E-29
5.43578E-01 1.28296E-29
5.47923E-01 1.20035E-29
5.52264E-01 1.12239E-29
5.56602E-01 1.04888E-29
5.60935E-01 9.79613E-30
5.65263E-01 9.14408E-30
5.69587E-01 8.53077E-30
5.73905E-01 7.95437E-30
5.78217E-01 7.41313E-30
5.82524E-01 6.90532E-30
5.86824E-01 6.42931E-30
5.91118E-01 5.98347E-30
5.95404E-01 5.56626E-30
5.99684E-01 5.17619E-30
6.03956E-01 4.81179E-30
6.08220E-01 4.47170E-30
6.12476E-01 4.15456E-30
6.16723E-01 3.85909E-30
6.20961E-01 3.58407E-30
6.25190E-01 3.32830E-30
6.29410E-01 3.09065E-30
6.33619E-01 2.87005E-30
6.37819E-01 2.66546E-30
6.42008E-01 2.47589E-30
6.46186E-01 2.30040E-30
6.50353E-01 2.13810E-30
6.54508E-01 1.98814E-30
6.58652E-01 1.84970E-30
6.62784E-01 1.72203E-30
6.66903E-01 1.60439E-30
6.71010E-01 1.49610E-30
6.75104E-01 1.39650E-30
6.79184E-01 1.30498E-30
6.83251E-01 1.22096E-30
6.87303E-01 1.14389E-30
6.91342E-01 1.07325E-30
6.95366E-01 1.00857E-30
6.99375E-01 9.49383E-31
7.03368E-01 8.95262E-31
7.07347E-01 8.45809E-31
7.11309E-01 8.00648E-31
7.15256E-01 7.59428E-31
7.19186E-01 7.21822E-31
7.23099E-01 6.87524E-31
7.26995E-01 6.56250E-31
7.30874E-01 6.27733E-31
7.34736E-01 6.01729E-31
7.38579E-01 5.78009E-31
7.42405E-01 5.56360E-31
7.46212E-01 5.36587E-31
7.50000E-01 5.18510E-31
7.53769E-01 5.01960E-31
7.57519E-01 4.86785E-31
7.61249E-01 4.72843E-31
7.64960E-01 4.60003E-31
7.68650E-01 4.48148E-31
7.72320E-01 4.37168E-31
7.75968E-01 4.26964E-31
7.79596E-01 4.17446E-31
7.83203E-01 4.08532E-31
7.86788E-01 4.00147E-31
7.90351E-01 3.92223E-31
7.93893E-01 3.84701E-31
7.97411E-01 3.77525E-31
8.00908E-01 3.70648E-31
8.04381E-01 3.64024E-31
8.07831E-01 3.57616E-31
8.11257E-01 3.51390E-31
8.14660E-01 3.45314E-31
8.18039E-01 3.39362E-31
8.21394E-01 3.33511E-31
8.24724E-01 3.27742E-31
8.28030E-01 3.22037E-31
8.31310E-01 3.16381E-31
8.34565E-01 3.10763E-31
8.37795E-01 3.05171E-31
8.40999E-01 2.99599E-31
8.44177E-01 2.94039E-31
8.47329E-01 2.88487E-31
8.50455E-01 2.82938E-31
8.53553E-01 2.77390E-31
8.56625E-01 2.71843E-31
8.59670E-01 2.66295E-31
8.62687E-01 2.60747E-31
8.65677E-01 2.55200E-31
8.68639E-01 2.49655E-31
8.71572E-01 2.44115E-31
8.74478E-01 2.38583E-31
8.77355E-01 2.33061E-31
8.80203E-01 2.27552E-31
8.83022E-01 2.22060E-31
8.85812E-01 2.16588E-31
8.88573E-01 2.11141E-31
8.91304E-01 2.05722E-31
8.94005E-01 2.00334E-31
8.96677E-01 1.94982E-31
8.99318E-01 1.89669E-31
9.01928E-01 1.84399E-31
9.04508E-01 1.79176E-31
9.07058E-01 1.74002E-31
9.09576E-01 1.68882E-31
9.12063E-01 1.63818E-31
9.14519E-01 1.58814E-31
9.16943E-01 1.53873E-31
9.19335E-01 1.48997E-31
9.21696E-01 1.44189E-31
9.24024E-01 1.39451E-31
9.26320E-01 1.34785E-31
9.28584E-01 1.30195E-31
9.30815E-01 1.25681E-31
9.33013E-01 1.21245E-31
9.35178E-01 1.16888E-31
9.37310E-01 1.12613E-31
9.39409E-01 1.08421E-31
9.41474E-01 1.04311E-31
9.43505E-01 1.00286E-31
9.45503E-01 9.63461E-32
9.47467E-01 9.24918E-32
9.49397E-01 8.87236E-32
9.51293E-01 8.50419E-32
9.53154E-01 8.14469E-32
9.54981E-01 7.79387E-32
9.56773E-01 7.45174E-32
9.58530E-01 7.11827E-32
9.60252E-01 6.79346E-32
9.61940E-01 6.47728E-32
9.63592E-01 6.16968E-32
9.65209E-01 5.87062E-32
9.66790E-01 5.58006E-32
9.68336E-01 5.29792E-32
9.69846E-01 5.02416E-32
9.71321E-01 4.75869E-32
9.72759E-01 4.50146E-32
9.74162E-01 4.25237E-32
9.75528E-01 4.01135E-32
9.76858E-01 3.77832E-32
9.78152E-01 3.55319E-32
9.79410E-01 3.33587E-32
9.80631E-01 3.12627E-32
9.81815E-01 2.92429E-32
9.82963E-01 2.72986E-32
9.84074E-01 2.54287E-32
9.85148E-01 2.36324E-32
9.86185E-01 2.19087E-32
9.87185E-01 2.02567E-32
9.88148E-01 1.86755E-32
9.89074E-01 1.71642E-32
9.89962E-01 1.57220E-32
9.90814E-01 1.43480E-32
9.91627E-01 1.30414E-32
9.92404E-01 1.18013E-32
9.93143E-01 1.06270E-32
9.93844E-01 9.51777E-33
9.94508E-01 8.47281E-33
9.95134E-01 7.49143E-33
9.95722E-01 6.57299E-33
9.96273E-01 5.71685E-33
9.96786E-01 4.92242E-33
9.97261E-01 4.18914E-33
9.97698E-01 3.51648E-33
9.98097E-01 2.90397E-33
9.98459E-01 2.35115E-33
9.98782E-01 1.85762E-33
9.99067E-01 1.42301E-33
9.99315E-01 1.04702E-33
9.99524E-01 7.29345E-34
9.99695E-01 4.69754E-34
9.99829E-01 2.68056E-34
9.99924E-01 1.24094E-34
9.99981E-01 3.77604E-35
1.00000E+00 8.98555E-36
