 #
 # Subroutine ELSEPA. Elastic scattering of electrons and positrons
 #                    by neutral atoms and positive ions
 #
 # Projectile: electron
 # Kinetic energy = 8.00000E+06 eV = 2.93995E+05 a.u.
 #
 # WARNING: High-energy factorization with free-atom DF screening.
 #          Absorption, polarization and exchange corrections are
 #          switched off.
 #          Phase shifts are calculated for the bare nucleus.
 #          Scattering amplitudes are not evaluated.
 #
 # Element: Er,  Z =  68,  atomic weight = 1.67260E+02 g/mol
 #
 # Nuclear model: Fermi distribution
 #                Average radius = 5.89542E-13 cm
 #                Skin thickness = 5.46000E-14 cm
 #
 # Number of electrons = 68
 #
 # Total elastic cross section = 7.08583E-18 cm**2 = 2.53040E-01 a0**2
 # 1st transport cross section = 1.11320E-22 cm**2 = 3.97530E-06 a0**2
 # 2nd transport cross section = 3.07170E-22 cm**2 = 1.09692E-05 a0**2
 #
 #
 # Differential cross section:                       MU=(1-COS(THETA))/2
 #
 #  THETA        MU          DCS          DCS        Sherman      error
 #  (deg)                 (cm**2/sr)   (a0**2/sr)    function
 #----------------------------------------------------------------------
0.00000E+00 5.23410E-12
7.61557E-13 5.23393E-12
1.18994E-12 5.23383E-12
1.71346E-12 5.23371E-12
2.33225E-12 5.23357E-12
3.04617E-12 5.23341E-12
3.85530E-12 5.23323E-12
4.75964E-12 5.23303E-12
5.75917E-12 5.23281E-12
6.85391E-12 5.23256E-12
8.04379E-12 5.23230E-12
9.32893E-12 5.23201E-12
1.07092E-11 5.23171E-12
1.21847E-11 5.23138E-12
1.37554E-11 5.23103E-12
1.54213E-11 5.23066E-12
1.71823E-11 5.23026E-12
1.90386E-11 5.22985E-12
2.09900E-11 5.22942E-12
2.30367E-11 5.22896E-12
2.51785E-11 5.22848E-12
2.74156E-11 5.22799E-12
2.97478E-11 5.22747E-12
3.21752E-11 5.22693E-12
3.46979E-11 5.22637E-12
3.73157E-11 5.22578E-12
4.00286E-11 5.22518E-12
4.28368E-11 5.22456E-12
4.57402E-11 5.22391E-12
4.87388E-11 5.22325E-12
5.18325E-11 5.22256E-12
5.50215E-11 5.22185E-12
5.83057E-11 5.22112E-12
6.16850E-11 5.22037E-12
6.51595E-11 5.21960E-12
6.87293E-11 5.21881E-12
7.23943E-11 5.21800E-12
7.61544E-11 5.21716E-12
1.18991E-10 5.20768E-12
1.71347E-10 5.19614E-12
2.33223E-10 5.18255E-12
3.04617E-10 5.16695E-12
3.85531E-10 5.14936E-12
4.75965E-10 5.12983E-12
5.75917E-10 5.10838E-12
6.85389E-10 5.08506E-12
8.04380E-10 5.05992E-12
9.32891E-10 5.03301E-12
1.07092E-09 5.00437E-12
1.21847E-09 4.97406E-12
1.37554E-09 4.94214E-12
1.54213E-09 4.90865E-12
1.71823E-09 4.87368E-12
1.90386E-09 4.83727E-12
2.09900E-09 4.79950E-12
2.30367E-09 4.76041E-12
2.51785E-09 4.72010E-12
2.74156E-09 4.67861E-12
2.97478E-09 4.63602E-12
3.21752E-09 4.59245E-12
3.46978E-09 4.54814E-12
3.73156E-09 4.50283E-12
4.00286E-09 4.45659E-12
4.28368E-09 4.40948E-12
4.57402E-09 4.36156E-12
4.87388E-09 4.31289E-12
5.18326E-09 4.26411E-12
5.50215E-09 4.21496E-12
5.83057E-09 4.16524E-12
6.16850E-09 4.11500E-12
6.51596E-09 4.06431E-12
6.87293E-09 4.01322E-12
7.23942E-09 3.96203E-12
7.61544E-09 3.91132E-12
1.18991E-08 3.40357E-12
1.71347E-08 2.92850E-12
2.33223E-08 2.50878E-12
3.04617E-08 2.15246E-12
3.85531E-08 1.85555E-12
4.75965E-08 1.61189E-12
5.75917E-08 1.41121E-12
6.85389E-08 1.24583E-12
8.04380E-08 1.10792E-12
9.32891E-08 9.91744E-13
1.07092E-07 8.92694E-13
1.21847E-07 8.07240E-13
1.37554E-07 7.32695E-13
1.54213E-07 6.67159E-13
1.71823E-07 6.08905E-13
1.90386E-07 5.57056E-13
2.09900E-07 5.10341E-13
2.30367E-07 4.68420E-13
2.51785E-07 4.30397E-13
2.74156E-07 3.96048E-13
2.97478E-07 3.64819E-13
3.21752E-07 3.35986E-13
3.46978E-07 3.07923E-13
3.73156E-07 2.83419E-13
4.00286E-07 2.61931E-13
4.28368E-07 2.43008E-13
4.57402E-07 2.26277E-13
4.87388E-07 2.11428E-13
5.18325E-07 1.96208E-13
5.50215E-07 1.81902E-13
5.83057E-07 1.69162E-13
6.16850E-07 1.57778E-13
6.51596E-07 1.47574E-13
6.87293E-07 1.38401E-13
7.23942E-07 1.29823E-13
7.61543E-07 1.21203E-13
1.18991E-06 6.62771E-14
1.71347E-06 3.90658E-14
2.33223E-06 2.42930E-14
3.04617E-06 1.57334E-14
3.85531E-06 1.05873E-14
4.75964E-06 7.36107E-15
5.75916E-06 5.28528E-15
6.85388E-06 3.89940E-15
8.04378E-06 2.95013E-15
9.32888E-06 2.27548E-15
1.07092E-05 1.78752E-15
1.21846E-05 1.42595E-15
1.37553E-05 1.15214E-15
1.54212E-05 9.41099E-16
1.71822E-05 7.75863E-16
1.90385E-05 6.44979E-16
2.09899E-05 5.40892E-16
2.30365E-05 4.56929E-16
2.51783E-05 3.88393E-16
2.74153E-05 3.32102E-16
2.97475E-05 2.85513E-16
3.21749E-05 2.46736E-16
3.46974E-05 2.14225E-16
3.73152E-05 1.87101E-16
4.00281E-05 1.64091E-16
4.28362E-05 1.44499E-16
4.57395E-05 1.27840E-16
4.87380E-05 1.13391E-16
5.18317E-05 1.00979E-16
5.50205E-05 9.02188E-17
5.83045E-05 8.08340E-17
6.16838E-05 7.26741E-17
6.51582E-05 6.54922E-17
6.87277E-05 5.91916E-17
7.23925E-05 5.36421E-17
7.61524E-05 4.87148E-17
9.21439E-05 3.38923E-17
1.09658E-04 2.43014E-17
1.28695E-04 1.78853E-17
1.49255E-04 1.34529E-17
1.71338E-04 1.03144E-17
1.94942E-04 8.03977E-18
2.20070E-04 6.35890E-18
2.46720E-04 5.09523E-18
2.74892E-04 4.13003E-18
3.04586E-04 3.38303E-18
3.35803E-04 2.79725E-18
3.68542E-04 2.33304E-18
4.02802E-04 1.96115E-18
4.38585E-04 1.66055E-18
4.75889E-04 1.41540E-18
5.14715E-04 1.21390E-18
5.55063E-04 1.04706E-18
5.96931E-04 9.07946E-19
6.40321E-04 7.91232E-19
6.85233E-04 6.92707E-19
7.31665E-04 6.09091E-19
7.79618E-04 5.37738E-19
8.29092E-04 4.76566E-19
8.80086E-04 4.23869E-19
9.32601E-04 3.78281E-19
9.86636E-04 3.38678E-19
1.04219E-03 3.04140E-19
1.09927E-03 2.73909E-19
1.15786E-03 2.47355E-19
1.21797E-03 2.23954E-19
1.27961E-03 2.03265E-19
1.34276E-03 1.84920E-19
1.40743E-03 1.68606E-19
1.47362E-03 1.54060E-19
1.54133E-03 1.41054E-19
1.61056E-03 1.29399E-19
1.68131E-03 1.18928E-19
1.75357E-03 1.09499E-19
1.82735E-03 1.00991E-19
1.90265E-03 9.32966E-20
1.97947E-03 8.63249E-20
2.05780E-03 7.99952E-20
2.13765E-03 7.42381E-20
2.21902E-03 6.89920E-20
2.30190E-03 6.42037E-20
2.38630E-03 5.98257E-20
2.47222E-03 5.58165E-20
2.55965E-03 5.21394E-20
2.64859E-03 4.87618E-20
2.73905E-03 4.56549E-20
2.83103E-03 4.27928E-20
2.92452E-03 4.01529E-20
3.01952E-03 3.77146E-20
3.11604E-03 3.54598E-20
3.21407E-03 3.33718E-20
3.31362E-03 3.14365E-20
3.41468E-03 2.96401E-20
3.51725E-03 2.79713E-20
3.62133E-03 2.64189E-20
3.72692E-03 2.49735E-20
3.83403E-03 2.36265E-20
3.94265E-03 2.23694E-20
4.05278E-03 2.11956E-20
4.16442E-03 2.00984E-20
4.27757E-03 1.90717E-20
4.39223E-03 1.81104E-20
4.50840E-03 1.72092E-20
4.62608E-03 1.63639E-20
4.74527E-03 1.55703E-20
4.86597E-03 1.48246E-20
4.98817E-03 1.41234E-20
5.11188E-03 1.34635E-20
5.23711E-03 1.28420E-20
5.36383E-03 1.22564E-20
5.49207E-03 1.17040E-20
5.62181E-03 1.11827E-20
5.75306E-03 1.06904E-20
5.88581E-03 1.02251E-20
6.02007E-03 9.78508E-21
6.15583E-03 9.36874E-21
6.29310E-03 8.97452E-21
6.43187E-03 8.60105E-21
6.57214E-03 8.24698E-21
6.71392E-03 7.91115E-21
6.85720E-03 7.59243E-21
7.00198E-03 7.28976E-21
7.14827E-03 7.00220E-21
7.29605E-03 6.72883E-21
7.44534E-03 6.46883E-21
7.59612E-03 6.22142E-21
7.97965E-03 5.65326E-21
8.37255E-03 5.14923E-21
8.77480E-03 4.70079E-21
9.18641E-03 4.30071E-21
9.60736E-03 3.94283E-21
1.00376E-02 3.62188E-21
1.04773E-02 3.33338E-21
1.09262E-02 3.07342E-21
1.13844E-02 2.83868E-21
1.18520E-02 2.62625E-21
1.23288E-02 2.43362E-21
1.28150E-02 2.25861E-21
1.33104E-02 2.09929E-21
1.38150E-02 1.95401E-21
1.43290E-02 1.82129E-21
1.48521E-02 1.69984E-21
1.53845E-02 1.58852E-21
1.59262E-02 1.48632E-21
1.64770E-02 1.39237E-21
1.70371E-02 1.30586E-21
1.76063E-02 1.22610E-21
1.81848E-02 1.15245E-21
1.87724E-02 1.08436E-21
1.93692E-02 1.02132E-21
1.99751E-02 9.62894E-22
2.05901E-02 9.08674E-22
2.12143E-02 8.58299E-22
2.18476E-02 8.11442E-22
2.24900E-02 7.67810E-22
2.31415E-02 7.27137E-22
2.38021E-02 6.89184E-22
2.44717E-02 6.53733E-22
2.51504E-02 6.20585E-22
2.58382E-02 5.89561E-22
2.65349E-02 5.60499E-22
2.72407E-02 5.33250E-22
2.79555E-02 5.07678E-22
2.86793E-02 4.83659E-22
2.94120E-02 4.61080E-22
3.01537E-02 4.39837E-22
3.09043E-02 4.19836E-22
3.16639E-02 4.00988E-22
3.24324E-02 3.83215E-22
3.32098E-02 3.66442E-22
3.39961E-02 3.50601E-22
3.47912E-02 3.35631E-22
3.55952E-02 3.21474E-22
3.64081E-02 3.08076E-22
3.72297E-02 2.95389E-22
3.80602E-02 2.83367E-22
3.88995E-02 2.71968E-22
3.97476E-02 2.61152E-22
4.06044E-02 2.50885E-22
4.14700E-02 2.41132E-22
4.23443E-02 2.31863E-22
4.32273E-02 2.23048E-22
4.41190E-02 2.14661E-22
4.50194E-02 2.06676E-22
4.59284E-02 1.99071E-22
4.68461E-02 1.91823E-22
4.87074E-02 1.78318E-22
5.06030E-02 1.66016E-22
5.25328E-02 1.54789E-22
5.44967E-02 1.44524E-22
5.64946E-02 1.35121E-22
5.85262E-02 1.26494E-22
6.05914E-02 1.18566E-22
6.26901E-02 1.11269E-22
6.48222E-02 1.04542E-22
6.69873E-02 9.83318E-23
6.91854E-02 9.25904E-23
7.14163E-02 8.72751E-23
7.36799E-02 8.23479E-23
7.59760E-02 7.77743E-23
7.83043E-02 7.35240E-23
8.06647E-02 6.95692E-23
8.30571E-02 6.58852E-23
8.54812E-02 6.24494E-23
8.79369E-02 5.92417E-23
9.04240E-02 5.62437E-23
9.29422E-02 5.34389E-23
9.54915E-02 5.08121E-23
9.80716E-02 4.83496E-23
1.00682E-01 4.60390E-23
1.03323E-01 4.38690E-23
1.05995E-01 4.18291E-23
1.08696E-01 3.99099E-23
1.11427E-01 3.81027E-23
1.14188E-01 3.63995E-23
1.16978E-01 3.47932E-23
1.19797E-01 3.32769E-23
1.22645E-01 3.18446E-23
1.25522E-01 3.04906E-23
1.28428E-01 2.92098E-23
1.31361E-01 2.79972E-23
1.34323E-01 2.68484E-23
1.37313E-01 2.57595E-23
1.40330E-01 2.47265E-23
1.43375E-01 2.37460E-23
1.46447E-01 2.28147E-23
1.49545E-01 2.19297E-23
1.52671E-01 2.10881E-23
1.55823E-01 2.02873E-23
1.59001E-01 1.95249E-23
1.62205E-01 1.87987E-23
1.65435E-01 1.81066E-23
1.68690E-01 1.74466E-23
1.71970E-01 1.68169E-23
1.75276E-01 1.62158E-23
1.78606E-01 1.56417E-23
1.81961E-01 1.50932E-23
1.85340E-01 1.45688E-23
1.88743E-01 1.40673E-23
1.92169E-01 1.35875E-23
1.95619E-01 1.31281E-23
1.99092E-01 1.26882E-23
2.02589E-01 1.22667E-23
2.06107E-01 1.18627E-23
2.09649E-01 1.14753E-23
2.13212E-01 1.11037E-23
2.16797E-01 1.07471E-23
2.20404E-01 1.04047E-23
2.24032E-01 1.00758E-23
2.27680E-01 9.75992E-24
2.31350E-01 9.45627E-24
2.35040E-01 9.16433E-24
2.38751E-01 8.88354E-24
2.42481E-01 8.61338E-24
2.46231E-01 8.35336E-24
2.50000E-01 8.10301E-24
2.53788E-01 7.86191E-24
2.57595E-01 7.62962E-24
2.61421E-01 7.40577E-24
2.65264E-01 7.18997E-24
2.69126E-01 6.98187E-24
2.73005E-01 6.78114E-24
2.76901E-01 6.58746E-24
2.80814E-01 6.40053E-24
2.84744E-01 6.22006E-24
2.88691E-01 6.04577E-24
2.92653E-01 5.87742E-24
2.96632E-01 5.71476E-24
3.00625E-01 5.55755E-24
3.04634E-01 5.40557E-24
3.08658E-01 5.25860E-24
3.12697E-01 5.11646E-24
3.16749E-01 4.97893E-24
3.20816E-01 4.84586E-24
3.24896E-01 4.71704E-24
3.28990E-01 4.59233E-24
3.33097E-01 4.47157E-24
3.37216E-01 4.35459E-24
3.41348E-01 4.24127E-24
3.45492E-01 4.13145E-24
3.49647E-01 4.02498E-24
3.53814E-01 3.92176E-24
3.57992E-01 3.82167E-24
3.62181E-01 3.72460E-24
3.66381E-01 3.63043E-24
3.70590E-01 3.53907E-24
3.74810E-01 3.45040E-24
3.79039E-01 3.36433E-24
3.83277E-01 3.28078E-24
3.87524E-01 3.19965E-24
3.91780E-01 3.12085E-24
3.96044E-01 3.04431E-24
4.00316E-01 2.96995E-24
4.04596E-01 2.89769E-24
4.08882E-01 2.82746E-24
4.13176E-01 2.75919E-24
4.17476E-01 2.69282E-24
4.21783E-01 2.62828E-24
4.26095E-01 2.56551E-24
4.30413E-01 2.50445E-24
4.34737E-01 2.44505E-24
4.39065E-01 2.38726E-24
4.43398E-01 2.33101E-24
4.47736E-01 2.27626E-24
4.52077E-01 2.22297E-24
4.56422E-01 2.17108E-24
4.60770E-01 2.12055E-24
4.65122E-01 2.07135E-24
4.69476E-01 2.02341E-24
4.73832E-01 1.97672E-24
4.78190E-01 1.93122E-24
4.82550E-01 1.88689E-24
4.86912E-01 1.84368E-24
4.91274E-01 1.80157E-24
4.95637E-01 1.76052E-24
5.00000E-01 1.72049E-24
5.04363E-01 1.68146E-24
5.08726E-01 1.64340E-24
5.13088E-01 1.60627E-24
5.17450E-01 1.57006E-24
5.21810E-01 1.53473E-24
5.26168E-01 1.50026E-24
5.30524E-01 1.46663E-24
5.34878E-01 1.43380E-24
5.39230E-01 1.40176E-24
5.43578E-01 1.37049E-24
5.47923E-01 1.33995E-24
5.52264E-01 1.31014E-24
5.56602E-01 1.28103E-24
5.60935E-01 1.25261E-24
5.65263E-01 1.22485E-24
5.69587E-01 1.19773E-24
5.73905E-01 1.17124E-24
5.78217E-01 1.14536E-24
5.82524E-01 1.12007E-24
5.86824E-01 1.09536E-24
5.91118E-01 1.07121E-24
5.95404E-01 1.04761E-24
5.99684E-01 1.02454E-24
6.03956E-01 1.00200E-24
6.08220E-01 9.79951E-25
6.12476E-01 9.58398E-25
6.16723E-01 9.37325E-25
6.20961E-01 9.16718E-25
6.25190E-01 8.96565E-25
6.29410E-01 8.76855E-25
6.33619E-01 8.57576E-25
6.37819E-01 8.38718E-25
6.42008E-01 8.20270E-25
6.46186E-01 8.02222E-25
6.50353E-01 7.84563E-25
6.54508E-01 7.67283E-25
6.58652E-01 7.50375E-25
6.62784E-01 7.33828E-25
6.66903E-01 7.17633E-25
6.71010E-01 7.01782E-25
6.75104E-01 6.86266E-25
6.79184E-01 6.71078E-25
6.83251E-01 6.56210E-25
6.87303E-01 6.41653E-25
6.91342E-01 6.27401E-25
6.95366E-01 6.13446E-25
6.99375E-01 5.99781E-25
7.03368E-01 5.86399E-25
7.07347E-01 5.73294E-25
7.11309E-01 5.60460E-25
7.15256E-01 5.47889E-25
7.19186E-01 5.35577E-25
7.23099E-01 5.23516E-25
7.26995E-01 5.11702E-25
7.30874E-01 5.00128E-25
7.34736E-01 4.88790E-25
7.38579E-01 4.77682E-25
7.42405E-01 4.66798E-25
7.46212E-01 4.56135E-25
7.50000E-01 4.45686E-25
7.53769E-01 4.35447E-25
7.57519E-01 4.25414E-25
7.61249E-01 4.15583E-25
7.64960E-01 4.05947E-25
7.68650E-01 3.96505E-25
7.72320E-01 3.87250E-25
7.75968E-01 3.78180E-25
7.79596E-01 3.69291E-25
7.83203E-01 3.60577E-25
7.86788E-01 3.52037E-25
7.90351E-01 3.43666E-25
7.93893E-01 3.35461E-25
7.97411E-01 3.27417E-25
8.00908E-01 3.19533E-25
8.04381E-01 3.11804E-25
8.07831E-01 3.04228E-25
8.11257E-01 2.96801E-25
8.14660E-01 2.89521E-25
8.18039E-01 2.82383E-25
8.21394E-01 2.75387E-25
8.24724E-01 2.68528E-25
8.28030E-01 2.61804E-25
8.31310E-01 2.55212E-25
8.34565E-01 2.48750E-25
8.37795E-01 2.42416E-25
8.40999E-01 2.36206E-25
8.44177E-01 2.30119E-25
8.47329E-01 2.24151E-25
8.50455E-01 2.18302E-25
8.53553E-01 2.12568E-25
8.56625E-01 2.06947E-25
8.59670E-01 2.01438E-25
8.62687E-01 1.96038E-25
8.65677E-01 1.90745E-25
8.68639E-01 1.85557E-25
8.71572E-01 1.80473E-25
8.74478E-01 1.75490E-25
8.77355E-01 1.70607E-25
8.80203E-01 1.65822E-25
8.83022E-01 1.61133E-25
8.85812E-01 1.56539E-25
8.88573E-01 1.52037E-25
8.91304E-01 1.47627E-25
8.94005E-01 1.43306E-25
8.96677E-01 1.39074E-25
8.99318E-01 1.34928E-25
9.01928E-01 1.30868E-25
9.04508E-01 1.26891E-25
9.07058E-01 1.22997E-25
9.09576E-01 1.19184E-25
9.12063E-01 1.15451E-25
9.14519E-01 1.11796E-25
9.16943E-01 1.08218E-25
9.19335E-01 1.04717E-25
9.21696E-01 1.01291E-25
9.24024E-01 9.79382E-26
9.26320E-01 9.46582E-26
9.28584E-01 9.14497E-26
9.30815E-01 8.83117E-26
9.33013E-01 8.52432E-26
9.35178E-01 8.22431E-26
9.37310E-01 7.93104E-26
9.39409E-01 7.64442E-26
9.41474E-01 7.36435E-26
9.43505E-01 7.09075E-26
9.45503E-01 6.82352E-26
9.47467E-01 6.56258E-26
9.49397E-01 6.30785E-26
9.51293E-01 6.05923E-26
9.53154E-01 5.81666E-26
9.54981E-01 5.58006E-26
9.56773E-01 5.34935E-26
9.58530E-01 5.12445E-26
9.60252E-01 4.90531E-26
9.61940E-01 4.69184E-26
9.63592E-01 4.48398E-26
9.65209E-01 4.28166E-26
9.66790E-01 4.08483E-26
9.68336E-01 3.89342E-26
9.69846E-01 3.70737E-26
9.71321E-01 3.52663E-26
9.72759E-01 3.35113E-26
9.74162E-01 3.18083E-26
9.75528E-01 3.01567E-26
9.76858E-01 2.85560E-26
9.78152E-01 2.70057E-26
9.79410E-01 2.55054E-26
9.80631E-01 2.40545E-26
9.81815E-01 2.26527E-26
9.82963E-01 2.12995E-26
9.84074E-01 1.99946E-26
9.85148E-01 1.87374E-26
9.86185E-01 1.75277E-26
9.87185E-01 1.63651E-26
9.88148E-01 1.52492E-26
9.89074E-01 1.41796E-26
9.89962E-01 1.31562E-26
9.90814E-01 1.21785E-26
9.91627E-01 1.12462E-26
9.92404E-01 1.03592E-26
9.93143E-01 9.51705E-27
9.93844E-01 8.71959E-27
9.94508E-01 7.96658E-27
9.95134E-01 7.25778E-27
9.95722E-01 6.59297E-27
9.96273E-01 5.97198E-27
9.96786E-01 5.39460E-27
9.97261E-01 4.86068E-27
9.97698E-01 4.37004E-27
9.98097E-01 3.92256E-27
9.98459E-01 3.51809E-27
9.98782E-01 3.15651E-27
9.99067E-01 2.83772E-27
9.99315E-01 2.56163E-27
9.99524E-01 2.32815E-27
9.99695E-01 2.13721E-27
9.99829E-01 1.98877E-27
9.99924E-01 1.88276E-27
9.99981E-01 1.81918E-27
1.00000E+00 1.79798E-27
