 #
 # Subroutine ELSEPA. Elastic scattering of electrons and positrons
 #                    by neutral atoms and positive ions
 #
 # Projectile: positron
 # Kinetic energy = 7.00000E+06 eV = 2.57245E+05 a.u.
 #
 # WARNING: High-energy factorization with free-atom DF screening.
 #          Absorption, polarization and exchange corrections are
 #          switched off.
 #          Phase shifts are calculated for the bare nucleus.
 #          Scattering amplitudes are not evaluated.
 #
 # Element: Sr,  Z =  38,  atomic weight = 8.76200E+01 g/mol
 #
 # Nuclear model: Fermi distribution
 #                Average radius = 4.75246E-13 cm
 #                Skin thickness = 5.46000E-14 cm
 #
 # Number of electrons = 38
 #
 # Total elastic cross section = 3.77498E-18 cm**2 = 1.34807E-01 a0**2
 # 1st transport cross section = 3.66752E-23 cm**2 = 1.30969E-06 a0**2
 # 2nd transport cross section = 1.05908E-22 cm**2 = 3.78204E-06 a0**2
 #
 #
 # Differential cross section:                       MU=(1-COS(THETA))/2
 #
 #  THETA        MU          DCS          DCS        Sherman      error
 #  (deg)                 (cm**2/sr)   (a0**2/sr)    function
 #----------------------------------------------------------------------
0.00000E+00 3.65712E-12
7.61557E-13 3.65699E-12
1.18994E-12 3.65693E-12
1.71346E-12 3.65684E-12
2.33225E-12 3.65675E-12
3.04617E-12 3.65664E-12
3.85530E-12 3.65651E-12
4.75964E-12 3.65637E-12
5.75917E-12 3.65621E-12
6.85391E-12 3.65605E-12
8.04379E-12 3.65586E-12
9.32893E-12 3.65566E-12
1.07092E-11 3.65545E-12
1.21847E-11 3.65522E-12
1.37554E-11 3.65498E-12
1.54213E-11 3.65472E-12
1.71823E-11 3.65445E-12
1.90386E-11 3.65416E-12
2.09900E-11 3.65386E-12
2.30367E-11 3.65354E-12
2.51785E-11 3.65321E-12
2.74156E-11 3.65287E-12
2.97478E-11 3.65251E-12
3.21752E-11 3.65213E-12
3.46979E-11 3.65174E-12
3.73157E-11 3.65134E-12
4.00286E-11 3.65092E-12
4.28368E-11 3.65049E-12
4.57402E-11 3.65004E-12
4.87388E-11 3.64958E-12
5.18325E-11 3.64910E-12
5.50215E-11 3.64861E-12
5.83057E-11 3.64810E-12
6.16850E-11 3.64758E-12
6.51595E-11 3.64705E-12
6.87293E-11 3.64650E-12
7.23943E-11 3.64594E-12
7.61544E-11 3.64536E-12
1.18991E-10 3.63879E-12
1.71347E-10 3.63078E-12
2.33223E-10 3.62136E-12
3.04617E-10 3.61053E-12
3.85531E-10 3.59833E-12
4.75965E-10 3.58476E-12
5.75917E-10 3.56986E-12
6.85389E-10 3.55364E-12
8.04380E-10 3.53615E-12
9.32891E-10 3.51740E-12
1.07092E-09 3.49744E-12
1.21847E-09 3.47629E-12
1.37554E-09 3.45399E-12
1.54213E-09 3.43058E-12
1.71823E-09 3.40610E-12
1.90386E-09 3.38059E-12
2.09900E-09 3.35408E-12
2.30367E-09 3.32662E-12
2.51785E-09 3.29826E-12
2.74156E-09 3.26904E-12
2.97478E-09 3.23899E-12
3.21752E-09 3.20818E-12
3.46978E-09 3.17663E-12
3.73156E-09 3.14440E-12
4.00286E-09 3.11153E-12
4.28368E-09 3.07832E-12
4.57402E-09 3.04460E-12
4.87388E-09 3.01026E-12
5.18326E-09 2.97536E-12
5.50215E-09 2.93993E-12
5.83057E-09 2.90401E-12
6.16850E-09 2.86764E-12
6.51596E-09 2.83123E-12
6.87293E-09 2.79503E-12
7.23942E-09 2.75849E-12
7.61544E-09 2.72164E-12
1.18991E-08 2.35068E-12
1.71347E-08 1.99859E-12
2.33223E-08 1.68421E-12
3.04617E-08 1.41394E-12
3.85531E-08 1.19012E-12
4.75965E-08 1.00668E-12
5.75917E-08 8.57425E-13
6.85389E-08 7.37127E-13
8.04380E-08 6.38915E-13
9.32891E-08 5.58382E-13
1.07092E-07 4.91787E-13
1.21847E-07 4.35968E-13
1.37554E-07 3.88716E-13
1.54213E-07 3.48269E-13
1.71823E-07 3.13340E-13
1.90386E-07 2.82838E-13
2.09900E-07 2.56068E-13
2.30367E-07 2.32437E-13
2.51785E-07 2.11385E-13
2.74156E-07 1.92644E-13
2.97478E-07 1.75867E-13
3.21752E-07 1.60788E-13
3.46978E-07 1.47254E-13
3.73156E-07 1.35039E-13
4.00286E-07 1.24017E-13
4.28368E-07 1.13613E-13
4.57402E-07 1.04221E-13
4.87388E-07 9.59219E-14
5.18325E-07 8.85641E-14
5.50215E-07 8.20197E-14
5.83057E-07 7.61805E-14
6.16850E-07 7.09548E-14
6.51596E-07 6.60403E-14
6.87293E-07 6.12940E-14
7.23942E-07 5.70291E-14
7.61543E-07 5.31868E-14
1.18991E-06 2.87264E-14
1.71347E-06 1.71715E-14
2.33223E-06 1.09677E-14
3.04617E-06 7.32973E-15
3.85531E-06 5.02787E-15
4.75964E-06 3.53478E-15
5.75916E-06 2.54119E-15
6.85388E-06 1.86127E-15
8.04378E-06 1.39137E-15
9.32888E-06 1.05965E-15
1.07092E-05 8.20974E-16
1.21846E-05 6.46285E-16
1.37553E-05 5.16260E-16
1.54212E-05 4.17877E-16
1.71822E-05 3.42264E-16
1.90385E-05 2.83169E-16
2.09899E-05 2.36544E-16
2.30365E-05 1.99231E-16
2.51783E-05 1.69020E-16
2.74153E-05 1.44363E-16
2.97475E-05 1.24053E-16
3.21749E-05 1.07187E-16
3.46974E-05 9.30936E-17
3.73152E-05 8.12281E-17
4.00281E-05 7.11840E-17
4.28362E-05 6.25994E-17
4.57395E-05 5.52801E-17
4.87380E-05 4.90279E-17
5.18317E-05 4.35873E-17
5.50205E-05 3.88792E-17
5.83045E-05 3.48040E-17
6.16838E-05 3.12195E-17
6.51582E-05 2.80873E-17
6.87277E-05 2.53462E-17
7.23925E-05 2.29148E-17
7.61524E-05 2.07710E-17
9.21439E-05 1.43319E-17
1.09658E-04 1.01937E-17
1.28695E-04 7.44572E-18
1.49255E-04 5.56354E-18
1.71338E-04 4.24025E-18
1.94942E-04 3.28839E-18
2.20070E-04 2.58946E-18
2.46720E-04 2.06693E-18
2.74892E-04 1.66996E-18
3.04586E-04 1.36390E-18
3.35803E-04 1.12490E-18
3.68542E-04 9.36054E-19
4.02802E-04 7.85197E-19
4.38585E-04 6.63542E-19
4.75889E-04 5.64546E-19
5.14715E-04 4.83315E-19
5.55063E-04 4.16174E-19
5.96931E-04 3.60274E-19
6.40321E-04 3.13437E-19
6.85233E-04 2.73959E-19
7.31665E-04 2.40488E-19
7.79618E-04 2.11968E-19
8.29092E-04 1.87543E-19
8.80086E-04 1.66527E-19
9.32601E-04 1.48368E-19
9.86636E-04 1.32611E-19
1.04219E-03 1.18885E-19
1.09927E-03 1.06886E-19
1.15786E-03 9.63587E-20
1.21797E-03 8.70922E-20
1.27961E-03 7.89106E-20
1.34276E-03 7.16641E-20
1.40743E-03 6.52284E-20
1.47362E-03 5.94970E-20
1.54133E-03 5.43794E-20
1.61056E-03 4.97989E-20
1.68131E-03 4.56890E-20
1.75357E-03 4.19932E-20
1.82735E-03 3.86625E-20
1.90265E-03 3.56544E-20
1.97947E-03 3.29324E-20
2.05780E-03 3.04644E-20
2.13765E-03 2.82225E-20
2.21902E-03 2.61825E-20
2.30190E-03 2.43228E-20
2.38630E-03 2.26249E-20
2.47222E-03 2.10720E-20
2.55965E-03 1.96497E-20
2.64859E-03 1.83449E-20
2.73905E-03 1.71463E-20
2.83103E-03 1.60437E-20
2.92452E-03 1.50279E-20
3.01952E-03 1.40911E-20
3.11604E-03 1.32258E-20
3.21407E-03 1.24257E-20
3.31362E-03 1.16850E-20
3.41468E-03 1.09985E-20
3.51725E-03 1.03614E-20
3.62133E-03 9.76968E-21
3.72692E-03 9.21943E-21
3.83403E-03 8.70723E-21
3.94265E-03 8.22997E-21
4.05278E-03 7.78484E-21
4.16442E-03 7.36928E-21
4.27757E-03 6.98100E-21
4.39223E-03 6.61782E-21
4.50840E-03 6.27789E-21
4.62608E-03 5.95941E-21
4.74527E-03 5.66079E-21
4.86597E-03 5.38057E-21
4.98817E-03 5.11740E-21
5.11188E-03 4.87007E-21
5.23711E-03 4.63743E-21
5.36383E-03 4.41846E-21
5.49207E-03 4.21221E-21
5.62181E-03 4.01781E-21
5.75306E-03 3.83443E-21
5.88581E-03 3.66136E-21
6.02007E-03 3.49790E-21
6.15583E-03 3.34343E-21
6.29310E-03 3.19734E-21
6.43187E-03 3.05912E-21
6.57214E-03 2.92825E-21
6.71392E-03 2.80427E-21
6.85720E-03 2.68676E-21
7.00198E-03 2.57530E-21
7.14827E-03 2.46954E-21
7.29605E-03 2.36913E-21
7.44534E-03 2.27375E-21
7.59612E-03 2.18309E-21
7.97965E-03 1.97537E-21
8.37255E-03 1.79166E-21
8.77480E-03 1.62872E-21
9.18641E-03 1.48380E-21
9.60736E-03 1.35457E-21
1.00376E-02 1.23904E-21
1.04773E-02 1.13551E-21
1.09262E-02 1.04251E-21
1.13844E-02 9.58790E-22
1.18520E-02 8.83264E-22
1.23288E-02 8.14989E-22
1.28150E-02 7.53149E-22
1.33104E-02 6.97032E-22
1.38150E-02 6.46015E-22
1.43290E-02 5.99555E-22
1.48521E-02 5.57172E-22
1.53845E-02 5.18446E-22
1.59262E-02 4.83006E-22
1.64770E-02 4.50524E-22
1.70371E-02 4.20710E-22
1.76063E-02 3.93306E-22
1.81848E-02 3.68083E-22
1.87724E-02 3.44836E-22
1.93692E-02 3.23383E-22
1.99751E-02 3.03562E-22
2.05901E-02 2.85225E-22
2.12143E-02 2.68242E-22
2.18476E-02 2.52496E-22
2.24900E-02 2.37880E-22
2.31415E-02 2.24298E-22
2.38021E-02 2.11665E-22
2.44717E-02 1.99902E-22
2.51504E-02 1.88938E-22
2.58382E-02 1.78710E-22
2.65349E-02 1.69160E-22
2.72407E-02 1.60233E-22
2.79555E-02 1.51883E-22
2.86793E-02 1.44065E-22
2.94120E-02 1.36740E-22
3.01537E-02 1.29871E-22
3.09043E-02 1.23423E-22
3.16639E-02 1.17368E-22
3.24324E-02 1.11676E-22
3.32098E-02 1.06321E-22
3.39961E-02 1.01281E-22
3.47912E-02 9.65337E-23
3.55952E-02 9.20583E-23
3.64081E-02 8.78369E-23
3.72297E-02 8.38524E-23
3.80602E-02 8.00892E-23
3.88995E-02 7.65326E-23
3.97476E-02 7.31693E-23
4.06044E-02 6.99869E-23
4.14700E-02 6.69739E-23
4.23443E-02 6.41196E-23
4.32273E-02 6.14142E-23
4.41190E-02 5.88485E-23
4.50194E-02 5.64140E-23
4.59284E-02 5.41027E-23
4.68461E-02 5.19074E-23
4.87074E-02 4.78372E-23
5.06030E-02 4.41541E-23
5.25328E-02 4.08149E-23
5.44967E-02 3.77819E-23
5.64946E-02 3.50224E-23
5.85262E-02 3.25074E-23
6.05914E-02 3.02114E-23
6.26901E-02 2.81122E-23
6.48222E-02 2.61899E-23
6.69873E-02 2.44271E-23
6.91854E-02 2.28082E-23
7.14163E-02 2.13195E-23
7.36799E-02 1.99486E-23
7.59760E-02 1.86847E-23
7.83043E-02 1.75180E-23
8.06647E-02 1.64396E-23
8.30571E-02 1.54417E-23
8.54812E-02 1.45172E-23
8.79369E-02 1.36599E-23
9.04240E-02 1.28640E-23
9.29422E-02 1.21243E-23
9.54915E-02 1.14361E-23
9.80716E-02 1.07953E-23
1.00682E-01 1.01980E-23
1.03323E-01 9.64076E-24
1.05995E-01 9.12041E-24
1.08696E-01 8.63406E-24
1.11427E-01 8.17912E-24
1.14188E-01 7.75321E-24
1.16978E-01 7.35415E-24
1.19797E-01 6.97996E-24
1.22645E-01 6.62880E-24
1.25522E-01 6.29900E-24
1.28428E-01 5.98905E-24
1.31361E-01 5.69756E-24
1.34323E-01 5.42322E-24
1.37313E-01 5.16483E-24
1.40330E-01 4.92131E-24
1.43375E-01 4.69167E-24
1.46447E-01 4.47497E-24
1.49545E-01 4.27036E-24
1.52671E-01 4.07703E-24
1.55823E-01 3.89425E-24
1.59001E-01 3.72137E-24
1.62205E-01 3.55774E-24
1.65435E-01 3.40278E-24
1.68690E-01 3.25594E-24
1.71970E-01 3.11674E-24
1.75276E-01 2.98471E-24
1.78606E-01 2.85942E-24
1.81961E-01 2.74043E-24
1.85340E-01 2.62739E-24
1.88743E-01 2.51998E-24
1.92169E-01 2.41785E-24
1.95619E-01 2.32067E-24
1.99092E-01 2.22818E-24
2.02589E-01 2.14012E-24
2.06107E-01 2.05624E-24
2.09649E-01 1.97629E-24
2.13212E-01 1.90006E-24
2.16797E-01 1.82736E-24
2.20404E-01 1.75799E-24
2.24032E-01 1.69177E-24
2.27680E-01 1.62852E-24
2.31350E-01 1.56811E-24
2.35040E-01 1.51037E-24
2.38751E-01 1.45517E-24
2.42481E-01 1.40237E-24
2.46231E-01 1.35186E-24
2.50000E-01 1.30352E-24
2.53788E-01 1.25723E-24
2.57595E-01 1.21290E-24
2.61421E-01 1.17043E-24
2.65264E-01 1.12973E-24
2.69126E-01 1.09071E-24
2.73005E-01 1.05328E-24
2.76901E-01 1.01738E-24
2.80814E-01 9.82932E-25
2.84744E-01 9.49863E-25
2.88691E-01 9.18111E-25
2.92653E-01 8.87614E-25
2.96632E-01 8.58313E-25
3.00625E-01 8.30155E-25
3.04634E-01 8.03086E-25
3.08658E-01 7.77058E-25
3.12697E-01 7.52023E-25
3.16749E-01 7.27938E-25
3.20816E-01 7.04759E-25
3.24896E-01 6.82448E-25
3.28990E-01 6.60965E-25
3.33097E-01 6.40276E-25
3.37216E-01 6.20345E-25
3.41348E-01 6.01140E-25
3.45492E-01 5.82631E-25
3.49647E-01 5.64787E-25
3.53814E-01 5.47581E-25
3.57992E-01 5.30987E-25
3.62181E-01 5.14978E-25
3.66381E-01 4.99530E-25
3.70590E-01 4.84621E-25
3.74810E-01 4.70229E-25
3.79039E-01 4.56332E-25
3.83277E-01 4.42911E-25
3.87524E-01 4.29947E-25
3.91780E-01 4.17422E-25
3.96044E-01 4.05317E-25
4.00316E-01 3.93618E-25
4.04596E-01 3.82307E-25
4.08882E-01 3.71370E-25
4.13176E-01 3.60793E-25
4.17476E-01 3.50561E-25
4.21783E-01 3.40662E-25
4.26095E-01 3.31083E-25
4.30413E-01 3.21811E-25
4.34737E-01 3.12836E-25
4.39065E-01 3.04146E-25
4.43398E-01 2.95731E-25
4.47736E-01 2.87580E-25
4.52077E-01 2.79684E-25
4.56422E-01 2.72034E-25
4.60770E-01 2.64621E-25
4.65122E-01 2.57436E-25
4.69476E-01 2.50471E-25
4.73832E-01 2.43718E-25
4.78190E-01 2.37170E-25
4.82550E-01 2.30820E-25
4.86912E-01 2.24660E-25
4.91274E-01 2.18684E-25
4.95637E-01 2.12885E-25
5.00000E-01 2.07258E-25
5.04363E-01 2.01797E-25
5.08726E-01 1.96495E-25
5.13088E-01 1.91348E-25
5.17450E-01 1.86350E-25
5.21810E-01 1.81497E-25
5.26168E-01 1.76783E-25
5.30524E-01 1.72203E-25
5.34878E-01 1.67754E-25
5.39230E-01 1.63431E-25
5.43578E-01 1.59230E-25
5.47923E-01 1.55147E-25
5.52264E-01 1.51178E-25
5.56602E-01 1.47320E-25
5.60935E-01 1.43568E-25
5.65263E-01 1.39920E-25
5.69587E-01 1.36372E-25
5.73905E-01 1.32921E-25
5.78217E-01 1.29564E-25
5.82524E-01 1.26298E-25
5.86824E-01 1.23120E-25
5.91118E-01 1.20027E-25
5.95404E-01 1.17018E-25
5.99684E-01 1.14088E-25
6.03956E-01 1.11237E-25
6.08220E-01 1.08460E-25
6.12476E-01 1.05757E-25
6.16723E-01 1.03125E-25
6.20961E-01 1.00562E-25
6.25190E-01 9.80649E-26
6.29410E-01 9.56329E-26
6.33619E-01 9.32638E-26
6.37819E-01 9.09556E-26
6.42008E-01 8.87066E-26
6.46186E-01 8.65150E-26
6.50353E-01 8.43793E-26
6.54508E-01 8.22976E-26
6.58652E-01 8.02686E-26
6.62784E-01 7.82906E-26
6.66903E-01 7.63622E-26
6.71010E-01 7.44821E-26
6.75104E-01 7.26488E-26
6.79184E-01 7.08610E-26
6.83251E-01 6.91174E-26
6.87303E-01 6.74169E-26
6.91342E-01 6.57581E-26
6.95366E-01 6.41400E-26
6.99375E-01 6.25614E-26
7.03368E-01 6.10212E-26
7.07347E-01 5.95184E-26
7.11309E-01 5.80519E-26
7.15256E-01 5.66209E-26
7.19186E-01 5.52242E-26
7.23099E-01 5.38611E-26
7.26995E-01 5.25305E-26
7.30874E-01 5.12317E-26
7.34736E-01 4.99637E-26
7.38579E-01 4.87258E-26
7.42405E-01 4.75172E-26
7.46212E-01 4.63370E-26
7.50000E-01 4.51847E-26
7.53769E-01 4.40593E-26
7.57519E-01 4.29604E-26
7.61249E-01 4.18870E-26
7.64960E-01 4.08387E-26
7.68650E-01 3.98147E-26
7.72320E-01 3.88145E-26
7.75968E-01 3.78374E-26
7.79596E-01 3.68829E-26
7.83203E-01 3.59504E-26
7.86788E-01 3.50393E-26
7.90351E-01 3.41491E-26
7.93893E-01 3.32793E-26
7.97411E-01 3.24294E-26
8.00908E-01 3.15989E-26
8.04381E-01 3.07873E-26
8.07831E-01 2.99942E-26
8.11257E-01 2.92191E-26
8.14660E-01 2.84616E-26
8.18039E-01 2.77213E-26
8.21394E-01 2.69977E-26
8.24724E-01 2.62904E-26
8.28030E-01 2.55992E-26
8.31310E-01 2.49235E-26
8.34565E-01 2.42630E-26
8.37795E-01 2.36175E-26
8.40999E-01 2.29864E-26
8.44177E-01 2.23696E-26
8.47329E-01 2.17666E-26
8.50455E-01 2.11771E-26
8.53553E-01 2.06009E-26
8.56625E-01 2.00377E-26
8.59670E-01 1.94871E-26
8.62687E-01 1.89489E-26
8.65677E-01 1.84227E-26
8.68639E-01 1.79084E-26
8.71572E-01 1.74057E-26
8.74478E-01 1.69142E-26
8.77355E-01 1.64339E-26
8.80203E-01 1.59644E-26
8.83022E-01 1.55054E-26
8.85812E-01 1.50569E-26
8.88573E-01 1.46185E-26
8.91304E-01 1.41900E-26
8.94005E-01 1.37712E-26
8.96677E-01 1.33620E-26
8.99318E-01 1.29621E-26
9.01928E-01 1.25714E-26
9.04508E-01 1.21896E-26
9.07058E-01 1.18166E-26
9.09576E-01 1.14521E-26
9.12063E-01 1.10961E-26
9.14519E-01 1.07484E-26
9.16943E-01 1.04087E-26
9.19335E-01 1.00770E-26
9.21696E-01 9.75307E-27
9.24024E-01 9.43678E-27
9.26320E-01 9.12797E-27
9.28584E-01 8.82652E-27
9.30815E-01 8.53228E-27
9.33013E-01 8.24512E-27
9.35178E-01 7.96491E-27
9.37310E-01 7.69153E-27
9.39409E-01 7.42485E-27
9.41474E-01 7.16475E-27
9.43505E-01 6.91112E-27
9.45503E-01 6.66385E-27
9.47467E-01 6.42283E-27
9.49397E-01 6.18794E-27
9.51293E-01 5.95910E-27
9.53154E-01 5.73620E-27
9.54981E-01 5.51914E-27
9.56773E-01 5.30782E-27
9.58530E-01 5.10217E-27
9.60252E-01 4.90208E-27
9.61940E-01 4.70748E-27
9.63592E-01 4.51827E-27
9.65209E-01 4.33439E-27
9.66790E-01 4.15574E-27
9.68336E-01 3.98226E-27
9.69846E-01 3.81387E-27
9.71321E-01 3.65051E-27
9.72759E-01 3.49209E-27
9.74162E-01 3.33856E-27
9.75528E-01 3.18985E-27
9.76858E-01 3.04591E-27
9.78152E-01 2.90666E-27
9.79410E-01 2.77205E-27
9.80631E-01 2.64203E-27
9.81815E-01 2.51654E-27
9.82963E-01 2.39553E-27
9.84074E-01 2.27895E-27
9.85148E-01 2.16676E-27
9.86185E-01 2.05890E-27
9.87185E-01 1.95534E-27
9.88148E-01 1.85602E-27
9.89074E-01 1.76092E-27
9.89962E-01 1.66998E-27
9.90814E-01 1.58318E-27
9.91627E-01 1.50048E-27
9.92404E-01 1.42185E-27
9.93143E-01 1.34725E-27
9.93844E-01 1.27665E-27
9.94508E-01 1.21003E-27
9.95134E-01 1.14736E-27
9.95722E-01 1.08861E-27
9.96273E-01 1.03376E-27
9.96786E-01 9.82782E-28
9.97261E-01 9.35666E-28
9.97698E-01 8.92389E-28
9.98097E-01 8.52932E-28
9.98459E-01 8.17280E-28
9.98782E-01 7.85420E-28
9.99067E-01 7.57337E-28
9.99315E-01 7.33022E-28
9.99524E-01 7.12463E-28
9.99695E-01 6.95654E-28
9.99829E-01 6.82587E-28
9.99924E-01 6.73257E-28
9.99981E-01 6.67661E-28
1.00000E+00 6.65796E-28
