 #
 # Subroutine ELSEPA. Elastic scattering of electrons and positrons
 #                    by neutral atoms and positive ions
 #
 # Projectile: positron
 # Kinetic energy = 9.00000E+08 eV = 3.30744E+07 a.u.
 #
 # WARNING: High-energy factorization with free-atom DF screening.
 #          Absorption, polarization and exchange corrections are
 #          switched off.
 #          Phase shifts are calculated for the bare nucleus.
 #          Scattering amplitudes are not evaluated.
 #
 # Element: Sr,  Z =  38,  atomic weight = 8.76200E+01 g/mol
 #
 # Nuclear model: Fermi distribution
 #                Average radius = 4.75246E-13 cm
 #                Skin thickness = 5.46000E-14 cm
 #
 # Number of electrons = 38
 #
 # Total elastic cross section = 3.68603E-18 cm**2 = 1.31631E-01 a0**2
 # 1st transport cross section = 3.57164E-27 cm**2 = 1.27545E-10 a0**2
 # 2nd transport cross section = 1.07135E-26 cm**2 = 3.82585E-10 a0**2
 #
 #
 # Differential cross section:                       MU=(1-COS(THETA))/2
 #
 #  THETA        MU          DCS          DCS        Sherman      error
 #  (deg)                 (cm**2/sr)   (a0**2/sr)    function
 #----------------------------------------------------------------------
0.00000E+00 5.25680E-08
7.61557E-13 3.48179E-08
1.18994E-12 2.86896E-08
1.71346E-12 2.33344E-08
2.33225E-12 1.89317E-08
3.04617E-12 1.54228E-08
3.85530E-12 1.26927E-08
4.75964E-12 1.05710E-08
5.75917E-12 8.91140E-09
6.85391E-12 7.60430E-09
8.04379E-12 6.55524E-09
9.32893E-12 5.70084E-09
1.07092E-11 4.99362E-09
1.21847E-11 4.40013E-09
1.37554E-11 3.89597E-09
1.54213E-11 3.46252E-09
1.71823E-11 3.08794E-09
1.90386E-11 2.76144E-09
2.09900E-11 2.47544E-09
2.30367E-11 2.22456E-09
2.51785E-11 2.00309E-09
2.74156E-11 1.80753E-09
2.97478E-11 1.62769E-09
3.21752E-11 1.46825E-09
3.46979E-11 1.33069E-09
3.73157E-11 1.21146E-09
4.00286E-11 1.10763E-09
4.28368E-11 1.01682E-09
4.57402E-11 9.31819E-10
4.87388E-11 8.52853E-10
5.18325E-11 7.83312E-10
5.50215E-11 7.21841E-10
5.83057E-11 6.67313E-10
6.16850E-11 6.18779E-10
6.51595E-11 5.73913E-10
6.87293E-11 5.31966E-10
7.23943E-11 4.94391E-10
7.61544E-11 4.60637E-10
1.18991E-10 2.46019E-10
1.71347E-10 1.44711E-10
2.33223E-10 8.99273E-11
3.04617E-10 5.81913E-11
3.85531E-10 3.88047E-11
4.75965E-10 2.66635E-11
5.75917E-10 1.88536E-11
6.85389E-10 1.36825E-11
8.04380E-10 1.01733E-11
9.32891E-10 7.73176E-12
1.07092E-09 5.99085E-12
1.21847E-09 4.72140E-12
1.37554E-09 3.77560E-12
1.54213E-09 3.05747E-12
1.71823E-09 2.50398E-12
1.90386E-09 2.07107E-12
2.09900E-09 1.72811E-12
2.30367E-09 1.45340E-12
2.51785E-09 1.23087E-12
2.74156E-09 1.04909E-12
2.97478E-09 8.98883E-13
3.21752E-09 7.74794E-13
3.46978E-09 6.71655E-13
3.73156E-09 5.84377E-13
4.00286E-09 5.11137E-13
4.28368E-09 4.48644E-13
4.57402E-09 3.95412E-13
4.87388E-09 3.49850E-13
5.18326E-09 3.10499E-13
5.50215E-09 2.76615E-13
5.83057E-09 2.47091E-13
6.16850E-09 2.21430E-13
6.51596E-09 1.99002E-13
6.87293E-09 1.79311E-13
7.23942E-09 1.62026E-13
7.61544E-09 1.46727E-13
1.18991E-08 6.11349E-14
1.71347E-08 2.98511E-14
2.33223E-08 1.62734E-14
3.04617E-08 9.61527E-15
3.85531E-08 6.04073E-15
4.75965E-08 3.98308E-15
5.75917E-08 2.73118E-15
6.85389E-08 1.93438E-15
8.04380E-08 1.40788E-15
9.32891E-08 1.04878E-15
1.07092E-07 7.97122E-16
1.21847E-07 6.16557E-16
1.37554E-07 4.84305E-16
1.54213E-07 3.85662E-16
1.71823E-07 3.10885E-16
1.90386E-07 2.53372E-16
2.09900E-07 2.08558E-16
2.30367E-07 1.73222E-16
2.51785E-07 1.45059E-16
2.74156E-07 1.22391E-16
2.97478E-07 1.03981E-16
3.21752E-07 8.89042E-17
3.46978E-07 7.64628E-17
3.73156E-07 6.61229E-17
4.00286E-07 5.74725E-17
4.28368E-07 5.01912E-17
4.57402E-07 4.40270E-17
4.87388E-07 3.87804E-17
5.18325E-07 3.42923E-17
5.50215E-07 3.04350E-17
5.83057E-07 2.71050E-17
6.16850E-07 2.42181E-17
6.51596E-07 2.17055E-17
6.87293E-07 1.95103E-17
7.23942E-07 1.75857E-17
7.61543E-07 1.58927E-17
1.18991E-06 6.51108E-18
1.71347E-06 3.14011E-18
2.33223E-06 1.69488E-18
3.04617E-06 9.93428E-19
3.85531E-06 6.20128E-19
4.75964E-06 4.06819E-19
5.75916E-06 2.77828E-19
6.85388E-06 1.96140E-19
8.04378E-06 1.42383E-19
9.32888E-06 1.05843E-19
1.07092E-05 8.03059E-20
1.21846E-05 6.20259E-20
1.37553E-05 4.86625E-20
1.54212E-05 3.87115E-20
1.71822E-05 3.11784E-20
1.90385E-05 2.53872E-20
2.09899E-05 2.08874E-20
2.30365E-05 1.73408E-20
2.51783E-05 1.45145E-20
2.74153E-05 1.22400E-20
2.97475E-05 1.03934E-20
3.21749E-05 8.88210E-21
3.46974E-05 7.63594E-21
3.73152E-05 6.60113E-21
4.00281E-05 5.73604E-21
4.28362E-05 5.00821E-21
4.57395E-05 4.39221E-21
4.87380E-05 3.86794E-21
5.18317E-05 3.41948E-21
5.50205E-05 3.03407E-21
5.83045E-05 2.70140E-21
6.16838E-05 2.41309E-21
6.51582E-05 2.16226E-21
6.87277E-05 1.94321E-21
7.23925E-05 1.75122E-21
7.61524E-05 1.55581E-21
9.21439E-05 1.05636E-21
1.09658E-04 7.40862E-22
1.28695E-04 5.33898E-22
1.49255E-04 3.93664E-22
1.71338E-04 2.96046E-22
1.94942E-04 2.26453E-22
2.20070E-04 1.75816E-22
2.46720E-04 1.38300E-22
2.74892E-04 1.10053E-22
3.04586E-04 8.84847E-23
3.35803E-04 7.18012E-23
3.68542E-04 5.87487E-23
4.02802E-04 4.84297E-23
4.38585E-04 4.01945E-23
4.75889E-04 3.35658E-23
5.14715E-04 2.81877E-23
5.55063E-04 2.37931E-23
5.96931E-04 2.01780E-23
6.40321E-04 1.71860E-23
6.85233E-04 1.46957E-23
7.31665E-04 1.26121E-23
7.79618E-04 1.08603E-23
8.29092E-04 9.38084E-24
8.80086E-04 8.12618E-24
9.32601E-04 7.05797E-24
9.86636E-04 6.14521E-24
1.04219E-03 5.36263E-24
1.09927E-03 4.68953E-24
1.15786E-03 4.10889E-24
1.21797E-03 3.60661E-24
1.27961E-03 3.17101E-24
1.34276E-03 2.79230E-24
1.40743E-03 2.46231E-24
1.47362E-03 2.17417E-24
1.54133E-03 1.92206E-24
1.61056E-03 1.70108E-24
1.68131E-03 1.50703E-24
1.75357E-03 1.33636E-24
1.82735E-03 1.18603E-24
1.90265E-03 1.05343E-24
1.97947E-03 9.36299E-25
2.05780E-03 8.32718E-25
2.13765E-03 7.41011E-25
2.21902E-03 6.59730E-25
2.30190E-03 5.87621E-25
2.38630E-03 5.23589E-25
2.47222E-03 4.66683E-25
2.55965E-03 4.16071E-25
2.64859E-03 3.71026E-25
2.73905E-03 3.30909E-25
2.83103E-03 2.95162E-25
2.92452E-03 2.63292E-25
3.01952E-03 2.34866E-25
3.11604E-03 2.09502E-25
3.21407E-03 1.86862E-25
3.31362E-03 1.66647E-25
3.41468E-03 1.48595E-25
3.51725E-03 1.32470E-25
3.62133E-03 1.18065E-25
3.72692E-03 1.05195E-25
3.83403E-03 9.36969E-26
3.94265E-03 8.34242E-26
4.05278E-03 7.42468E-26
4.16442E-03 6.60490E-26
4.27757E-03 5.87273E-26
4.39223E-03 5.21895E-26
4.50840E-03 4.63530E-26
4.62608E-03 4.11443E-26
4.74527E-03 3.64974E-26
4.86597E-03 3.23533E-26
4.98817E-03 2.86593E-26
5.11188E-03 2.53680E-26
5.23711E-03 2.24373E-26
5.36383E-03 1.98290E-26
5.49207E-03 1.75092E-26
5.62181E-03 1.54475E-26
5.75306E-03 1.36164E-26
5.88581E-03 1.19914E-26
6.02007E-03 1.05507E-26
6.15583E-03 9.27434E-27
6.29310E-03 8.14478E-27
6.43187E-03 7.14614E-27
6.57214E-03 6.26418E-27
6.71392E-03 5.48617E-27
6.85720E-03 4.80068E-27
7.00198E-03 4.19749E-27
7.14827E-03 3.66741E-27
7.29605E-03 3.20225E-27
7.44534E-03 2.79466E-27
7.59612E-03 2.43806E-27
7.97965E-03 1.73268E-27
8.37255E-03 1.23513E-27
8.77480E-03 8.88385E-28
9.18641E-03 6.49857E-28
9.60736E-03 4.87961E-28
1.00376E-02 3.79467E-28
1.04773E-02 3.07467E-28
1.09262E-02 2.59811E-28
1.13844E-02 2.27900E-28
1.18520E-02 2.05768E-28
1.23288E-02 1.89378E-28
1.28150E-02 1.76092E-28
1.33104E-02 1.64263E-28
1.38150E-02 1.52940E-28
1.43290E-02 1.41642E-28
1.48521E-02 1.30193E-28
1.53845E-02 1.18608E-28
1.59262E-02 1.07008E-28
1.64770E-02 9.55600E-29
1.70371E-02 8.44441E-29
1.76063E-02 7.38260E-29
1.81848E-02 6.38451E-29
1.87724E-02 5.46072E-29
1.93692E-02 4.61834E-29
1.99751E-02 3.86119E-29
2.05901E-02 3.19012E-29
2.12143E-02 2.60350E-29
2.18476E-02 2.09769E-29
2.24900E-02 1.66757E-29
2.31415E-02 1.30699E-29
2.38021E-02 1.00913E-29
2.44717E-02 7.66899E-30
2.51504E-02 5.73213E-30
2.58382E-02 4.21193E-30
2.65349E-02 3.04349E-30
2.72407E-02 2.16695E-30
2.79555E-02 1.52823E-30
2.86793E-02 1.07941E-30
2.94120E-02 7.78792E-31
3.01537E-02 5.90770E-31
3.09043E-02 4.85519E-31
3.16639E-02 4.38546E-31
3.24324E-02 4.30182E-31
3.32098E-02 4.45025E-31
3.39961E-02 4.71375E-31
3.47912E-02 5.00675E-31
3.55952E-02 5.26985E-31
3.64081E-02 5.46491E-31
3.72297E-02 5.57066E-31
3.80602E-02 5.57875E-31
3.88995E-02 5.49043E-31
3.97476E-02 5.31363E-31
4.06044E-02 5.06064E-31
4.14700E-02 4.74618E-31
4.23443E-02 4.38591E-31
4.32273E-02 3.99530E-31
4.41190E-02 3.58882E-31
4.50194E-02 3.17939E-31
4.59284E-02 2.77806E-31
4.68461E-02 2.39384E-31
4.87074E-02 1.70272E-31
5.06030E-02 1.13944E-31
5.25328E-02 7.12290E-32
5.44967E-02 4.11797E-32
5.64946E-02 2.17998E-32
5.85262E-02 1.06560E-32
6.05914E-02 5.32638E-33
6.26901E-02 3.68571E-33
6.48222E-02 4.04806E-33
6.69873E-02 5.20168E-33
6.91854E-02 6.37138E-33
7.14163E-02 7.14050E-33
7.36799E-02 7.35761E-33
7.59760E-02 7.04564E-33
7.83043E-02 6.32427E-33
8.06647E-02 5.35033E-33
8.30571E-02 4.27711E-33
8.54812E-02 3.23056E-33
8.79369E-02 2.29896E-33
9.04240E-02 1.53220E-33
9.29422E-02 9.47094E-34
9.54915E-02 5.35572E-34
9.80716E-02 2.73559E-34
1.00682E-01 1.29026E-34
1.03323E-01 6.83877E-35
1.05995E-01 6.09553E-35
1.08696E-01 8.15372E-35
1.11427E-01 1.11477E-34
1.14188E-01 1.38538E-34
1.16978E-01 1.56043E-34
1.19797E-01 1.61637E-34
1.22645E-01 1.55949E-34
1.25522E-01 1.41367E-34
1.28428E-01 1.21026E-34
1.31361E-01 9.80736E-35
1.34323E-01 7.51974E-35
1.37313E-01 5.43854E-35
1.40330E-01 3.68681E-35
1.43375E-01 2.31852E-35
1.46447E-01 1.33212E-35
1.49545E-01 6.87257E-36
1.52671E-01 3.21065E-36
1.55823E-01 1.62148E-36
1.59001E-01 1.41229E-36
1.62205E-01 1.98243E-36
1.65435E-01 2.86056E-36
1.68690E-01 3.71534E-36
1.71970E-01 4.34616E-36
1.75276E-01 4.66180E-36
1.78606E-01 4.65318E-36
1.81961E-01 4.36560E-36
1.85340E-01 3.87360E-36
1.88743E-01 3.26103E-36
1.92169E-01 2.60651E-36
1.95619E-01 1.97453E-36
1.99092E-01 1.41127E-36
2.02589E-01 9.44200E-37
2.06107E-01 5.83909E-37
2.09649E-01 3.27766E-37
2.13212E-01 1.63791E-37
2.16797E-01 7.46531E-38
2.20404E-01 4.09955E-38
2.24032E-01 4.40857E-38
2.27680E-01 6.76066E-38
2.31350E-01 9.86254E-38
2.35040E-01 1.27921E-37
2.38751E-01 1.49795E-37
2.42481E-01 1.61563E-37
2.46231E-01 1.62863E-37
2.50000E-01 1.54925E-37
2.53788E-01 1.39910E-37
2.57595E-01 1.20332E-37
2.61421E-01 9.86540E-38
2.65264E-01 7.70126E-38
2.69126E-01 5.70390E-38
2.73005E-01 3.98329E-38
2.76901E-01 2.59519E-38
2.80814E-01 1.55361E-38
2.84744E-01 1.00000E-45
2.88691E-01 1.00000E-45
2.92653E-01 1.00000E-45
2.96632E-01 1.00000E-45
3.00625E-01 1.00000E-45
3.04634E-01 1.00000E-45
3.08658E-01 1.00000E-45
3.12697E-01 1.00000E-45
3.16749E-01 1.00000E-45
3.20816E-01 1.00000E-45
3.24896E-01 1.00000E-45
3.28990E-01 1.00000E-45
3.33097E-01 1.00000E-45
3.37216E-01 1.00000E-45
3.41348E-01 1.00000E-45
3.45492E-01 1.00000E-45
3.49647E-01 1.00000E-45
3.53814E-01 1.00000E-45
3.57992E-01 1.00000E-45
3.62181E-01 1.00000E-45
3.66381E-01 1.00000E-45
3.70590E-01 1.00000E-45
3.74810E-01 1.00000E-45
3.79039E-01 1.00000E-45
3.83277E-01 1.00000E-45
3.87524E-01 1.00000E-45
3.91780E-01 1.00000E-45
3.96044E-01 1.00000E-45
4.00316E-01 1.00000E-45
4.04596E-01 1.00000E-45
4.08882E-01 1.00000E-45
4.13176E-01 1.00000E-45
4.17476E-01 1.00000E-45
4.21783E-01 1.00000E-45
4.26095E-01 1.00000E-45
4.30413E-01 1.00000E-45
4.34737E-01 1.00000E-45
4.39065E-01 1.00000E-45
4.43398E-01 1.00000E-45
4.47736E-01 1.00000E-45
4.52077E-01 1.00000E-45
4.56422E-01 1.00000E-45
4.60770E-01 1.00000E-45
4.65122E-01 1.00000E-45
4.69476E-01 1.00000E-45
4.73832E-01 1.00000E-45
4.78190E-01 1.00000E-45
4.82550E-01 1.00000E-45
4.86912E-01 1.00000E-45
4.91274E-01 1.00000E-45
4.95637E-01 1.00000E-45
5.00000E-01 1.00000E-45
5.04363E-01 1.00000E-45
5.08726E-01 1.00000E-45
5.13088E-01 1.00000E-45
5.17450E-01 1.00000E-45
5.21810E-01 1.00000E-45
5.26168E-01 1.00000E-45
5.30524E-01 1.00000E-45
5.34878E-01 1.00000E-45
5.39230E-01 1.00000E-45
5.43578E-01 1.00000E-45
5.47923E-01 1.00000E-45
5.52264E-01 1.00000E-45
5.56602E-01 1.00000E-45
5.60935E-01 1.00000E-45
5.65263E-01 1.00000E-45
5.69587E-01 1.00000E-45
5.73905E-01 1.00000E-45
5.78217E-01 1.00000E-45
5.82524E-01 1.00000E-45
5.86824E-01 1.00000E-45
5.91118E-01 1.00000E-45
5.95404E-01 1.00000E-45
5.99684E-01 1.00000E-45
6.03956E-01 1.00000E-45
6.08220E-01 1.00000E-45
6.12476E-01 1.00000E-45
6.16723E-01 1.00000E-45
6.20961E-01 1.00000E-45
6.25190E-01 1.00000E-45
6.29410E-01 1.00000E-45
6.33619E-01 1.00000E-45
6.37819E-01 1.00000E-45
6.42008E-01 1.00000E-45
6.46186E-01 1.00000E-45
6.50353E-01 1.00000E-45
6.54508E-01 1.00000E-45
6.58652E-01 1.00000E-45
6.62784E-01 1.00000E-45
6.66903E-01 1.00000E-45
6.71010E-01 1.00000E-45
6.75104E-01 1.00000E-45
6.79184E-01 1.00000E-45
6.83251E-01 1.00000E-45
6.87303E-01 1.00000E-45
6.91342E-01 1.00000E-45
6.95366E-01 1.00000E-45
6.99375E-01 1.00000E-45
7.03368E-01 1.00000E-45
7.07347E-01 1.00000E-45
7.11309E-01 1.00000E-45
7.15256E-01 1.00000E-45
7.19186E-01 1.00000E-45
7.23099E-01 1.00000E-45
7.26995E-01 1.00000E-45
7.30874E-01 1.00000E-45
7.34736E-01 1.00000E-45
7.38579E-01 1.00000E-45
7.42405E-01 1.00000E-45
7.46212E-01 1.00000E-45
7.50000E-01 1.00000E-45
7.53769E-01 1.00000E-45
7.57519E-01 1.00000E-45
7.61249E-01 1.00000E-45
7.64960E-01 1.00000E-45
7.68650E-01 1.00000E-45
7.72320E-01 1.00000E-45
7.75968E-01 1.00000E-45
7.79596E-01 1.00000E-45
7.83203E-01 1.00000E-45
7.86788E-01 1.00000E-45
7.90351E-01 1.00000E-45
7.93893E-01 1.00000E-45
7.97411E-01 1.00000E-45
8.00908E-01 1.00000E-45
8.04381E-01 1.00000E-45
8.07831E-01 1.00000E-45
8.11257E-01 1.00000E-45
8.14660E-01 1.00000E-45
8.18039E-01 1.00000E-45
8.21394E-01 1.00000E-45
8.24724E-01 1.00000E-45
8.28030E-01 1.00000E-45
8.31310E-01 1.00000E-45
8.34565E-01 1.00000E-45
8.37795E-01 1.00000E-45
8.40999E-01 1.00000E-45
8.44177E-01 1.00000E-45
8.47329E-01 1.00000E-45
8.50455E-01 1.00000E-45
8.53553E-01 1.00000E-45
8.56625E-01 1.00000E-45
8.59670E-01 1.00000E-45
8.62687E-01 1.00000E-45
8.65677E-01 1.00000E-45
8.68639E-01 1.00000E-45
8.71572E-01 1.00000E-45
8.74478E-01 1.00000E-45
8.77355E-01 1.00000E-45
8.80203E-01 1.00000E-45
8.83022E-01 1.00000E-45
8.85812E-01 1.00000E-45
8.88573E-01 1.00000E-45
8.91304E-01 1.00000E-45
8.94005E-01 1.00000E-45
8.96677E-01 1.00000E-45
8.99318E-01 1.00000E-45
9.01928E-01 1.00000E-45
9.04508E-01 1.00000E-45
9.07058E-01 1.00000E-45
9.09576E-01 1.00000E-45
9.12063E-01 1.00000E-45
9.14519E-01 1.00000E-45
9.16943E-01 1.00000E-45
9.19335E-01 1.00000E-45
9.21696E-01 1.00000E-45
9.24024E-01 1.00000E-45
9.26320E-01 1.00000E-45
9.28584E-01 1.00000E-45
9.30815E-01 1.00000E-45
9.33013E-01 1.00000E-45
9.35178E-01 1.00000E-45
9.37310E-01 1.00000E-45
9.39409E-01 1.00000E-45
9.41474E-01 1.00000E-45
9.43505E-01 1.00000E-45
9.45503E-01 1.00000E-45
9.47467E-01 1.00000E-45
9.49397E-01 1.00000E-45
9.51293E-01 1.00000E-45
9.53154E-01 1.00000E-45
9.54981E-01 1.00000E-45
9.56773E-01 1.00000E-45
9.58530E-01 1.00000E-45
9.60252E-01 1.00000E-45
9.61940E-01 1.00000E-45
9.63592E-01 1.00000E-45
9.65209E-01 1.00000E-45
9.66790E-01 1.00000E-45
9.68336E-01 1.00000E-45
9.69846E-01 1.00000E-45
9.71321E-01 1.00000E-45
9.72759E-01 1.00000E-45
9.74162E-01 1.00000E-45
9.75528E-01 1.00000E-45
9.76858E-01 1.00000E-45
9.78152E-01 1.00000E-45
9.79410E-01 1.00000E-45
9.80631E-01 1.00000E-45
9.81815E-01 1.00000E-45
9.82963E-01 1.00000E-45
9.84074E-01 1.00000E-45
9.85148E-01 1.00000E-45
9.86185E-01 1.00000E-45
9.87185E-01 1.00000E-45
9.88148E-01 1.00000E-45
9.89074E-01 1.00000E-45
9.89962E-01 1.00000E-45
9.90814E-01 1.00000E-45
9.91627E-01 1.00000E-45
9.92404E-01 1.00000E-45
9.93143E-01 1.00000E-45
9.93844E-01 1.00000E-45
9.94508E-01 1.00000E-45
9.95134E-01 1.00000E-45
9.95722E-01 1.00000E-45
9.96273E-01 1.00000E-45
9.96786E-01 1.00000E-45
9.97261E-01 1.00000E-45
9.97698E-01 1.00000E-45
9.98097E-01 1.00000E-45
9.98459E-01 1.00000E-45
9.98782E-01 1.00000E-45
9.99067E-01 1.00000E-45
9.99315E-01 1.00000E-45
9.99524E-01 1.00000E-45
9.99695E-01 1.00000E-45
9.99829E-01 1.00000E-45
9.99924E-01 1.00000E-45
9.99981E-01 1.00000E-45
1.00000E+00 1.00000E-45
