 #
 # Subroutine ELSEPA. Elastic scattering of electrons and positrons
 #                    by neutral atoms and positive ions
 #
 # Projectile: positron
 # Kinetic energy = 1.50000E+07 eV = 5.51240E+05 a.u.
 #
 # WARNING: High-energy factorization with free-atom DF screening.
 #          Absorption, polarization and exchange corrections are
 #          switched off.
 #          Phase shifts are calculated for the bare nucleus.
 #          Scattering amplitudes are not evaluated.
 #
 # Element: Sr,  Z =  38,  atomic weight = 8.76200E+01 g/mol
 #
 # Nuclear model: Fermi distribution
 #                Average radius = 4.75246E-13 cm
 #                Skin thickness = 5.46000E-14 cm
 #
 # Number of electrons = 38
 #
 # Total elastic cross section = 3.76264E-18 cm**2 = 1.34366E-01 a0**2
 # 1st transport cross section = 9.65209E-24 cm**2 = 3.44682E-07 a0**2
 # 2nd transport cross section = 2.80216E-23 cm**2 = 1.00067E-06 a0**2
 #
 #
 # Differential cross section:                       MU=(1-COS(THETA))/2
 #
 #  THETA        MU          DCS          DCS        Sherman      error
 #  (deg)                 (cm**2/sr)   (a0**2/sr)    function
 #----------------------------------------------------------------------
0.00000E+00 1.55963E-11
7.61557E-13 1.55942E-11
1.18994E-12 1.55930E-11
1.71346E-12 1.55915E-11
2.33225E-12 1.55897E-11
3.04617E-12 1.55877E-11
3.85530E-12 1.55854E-11
4.75964E-12 1.55829E-11
5.75917E-12 1.55801E-11
6.85391E-12 1.55770E-11
8.04379E-12 1.55736E-11
9.32893E-12 1.55700E-11
1.07092E-11 1.55661E-11
1.21847E-11 1.55620E-11
1.37554E-11 1.55576E-11
1.54213E-11 1.55529E-11
1.71823E-11 1.55480E-11
1.90386E-11 1.55428E-11
2.09900E-11 1.55373E-11
2.30367E-11 1.55316E-11
2.51785E-11 1.55256E-11
2.74156E-11 1.55193E-11
2.97478E-11 1.55128E-11
3.21752E-11 1.55060E-11
3.46979E-11 1.54990E-11
3.73157E-11 1.54917E-11
4.00286E-11 1.54841E-11
4.28368E-11 1.54763E-11
4.57402E-11 1.54682E-11
4.87388E-11 1.54599E-11
5.18325E-11 1.54513E-11
5.50215E-11 1.54425E-11
5.83057E-11 1.54334E-11
6.16850E-11 1.54240E-11
6.51595E-11 1.54144E-11
6.87293E-11 1.54045E-11
7.23943E-11 1.53944E-11
7.61544E-11 1.53841E-11
1.18991E-10 1.52667E-11
1.71347E-10 1.51251E-11
2.33223E-10 1.49603E-11
3.04617E-10 1.47736E-11
3.85531E-10 1.45664E-11
4.75965E-10 1.43400E-11
5.75917E-10 1.40960E-11
6.85389E-10 1.38361E-11
8.04380E-10 1.35619E-11
9.32891E-10 1.32752E-11
1.07092E-09 1.29799E-11
1.21847E-09 1.26741E-11
1.37554E-09 1.23588E-11
1.54213E-09 1.20380E-11
1.71823E-09 1.17163E-11
1.90386E-09 1.13893E-11
2.09900E-09 1.10582E-11
2.30367E-09 1.07320E-11
2.51785E-09 1.04065E-11
2.74156E-09 1.00803E-11
2.97478E-09 9.75691E-12
3.21752E-09 9.44326E-12
3.46978E-09 9.13152E-12
3.73156E-09 8.82245E-12
4.00286E-09 8.52446E-12
4.28368E-09 8.23377E-12
4.57402E-09 7.94730E-12
4.87388E-09 7.66714E-12
5.18326E-09 7.40135E-12
5.50215E-09 7.14067E-12
5.83057E-09 6.88543E-12
6.16850E-09 6.64200E-12
6.51596E-09 6.40816E-12
6.87293E-09 6.18000E-12
7.23942E-09 5.95824E-12
7.61544E-09 5.75072E-12
1.18991E-08 4.05874E-12
1.71347E-08 2.95994E-12
2.33223E-08 2.23839E-12
3.04617E-08 1.74461E-12
3.85531E-08 1.39070E-12
4.75965E-08 1.12635E-12
5.75917E-08 9.22634E-13
6.85389E-08 7.62120E-13
8.04380E-08 6.33916E-13
9.32891E-08 5.30666E-13
1.07092E-07 4.43383E-13
1.21847E-07 3.74838E-13
1.37554E-07 3.21024E-13
1.54213E-07 2.76699E-13
1.71823E-07 2.38073E-13
1.90386E-07 2.06901E-13
2.09900E-07 1.81479E-13
2.30367E-07 1.59274E-13
2.51785E-07 1.40546E-13
2.74156E-07 1.24931E-13
2.97478E-07 1.11615E-13
3.21752E-07 9.97442E-14
3.46978E-07 8.96652E-14
3.73156E-07 8.10519E-14
4.00286E-07 7.32831E-14
4.28368E-07 6.64296E-14
4.57402E-07 6.04932E-14
4.87388E-07 5.52697E-14
5.18325E-07 5.04012E-14
5.50215E-07 4.61382E-14
5.83057E-07 4.23894E-14
6.16850E-07 3.89275E-14
6.51596E-07 3.57735E-14
6.87293E-07 3.29768E-14
7.23942E-07 3.04773E-14
7.61543E-07 2.80971E-14
1.18991E-06 1.34414E-14
1.71347E-06 7.03237E-15
2.33223E-06 3.99280E-15
3.04617E-06 2.43450E-15
3.85531E-06 1.57509E-15
4.75964E-06 1.06778E-15
5.75916E-06 7.50927E-16
6.85388E-06 5.43994E-16
8.04378E-06 4.03739E-16
9.32888E-06 3.05731E-16
1.07092E-05 2.35378E-16
1.21846E-05 1.84176E-16
1.37553E-05 1.46101E-16
1.54212E-05 1.17191E-16
1.71822E-05 9.50761E-17
1.90385E-05 7.79095E-17
2.09899E-05 6.44341E-17
2.30365E-05 5.37348E-17
2.51783E-05 4.51612E-17
2.74153E-05 3.82243E-17
2.97475E-05 3.25617E-17
3.21749E-05 2.79113E-17
3.46974E-05 2.40641E-17
3.73152E-05 2.08571E-17
4.00281E-05 1.81688E-17
4.28362E-05 1.59014E-17
4.57395E-05 1.39773E-17
4.87380E-05 1.23354E-17
5.18317E-05 1.09280E-17
5.50205E-05 9.71597E-18
5.83045E-05 8.66712E-18
6.16838E-05 7.75647E-18
6.51582E-05 6.96275E-18
6.87277E-05 6.26814E-18
7.23925E-05 5.65818E-18
7.61524E-05 5.12085E-18
9.21439E-05 3.51602E-18
1.09658E-04 2.49341E-18
1.28695E-04 1.81696E-18
1.49255E-04 1.35490E-18
1.71338E-04 1.03073E-18
1.94942E-04 7.97822E-19
2.20070E-04 6.27053E-19
2.46720E-04 4.99556E-19
2.74892E-04 4.02820E-19
3.04586E-04 3.28372E-19
3.35803E-04 2.70322E-19
3.68542E-04 2.24530E-19
4.02802E-04 1.88019E-19
4.38585E-04 1.58622E-19
4.75889E-04 1.34742E-19
5.14715E-04 1.15183E-19
5.55063E-04 9.90411E-20
5.96931E-04 8.56248E-20
6.40321E-04 7.44011E-20
6.85233E-04 6.49540E-20
7.31665E-04 5.69569E-20
7.79618E-04 5.01513E-20
8.29092E-04 4.43303E-20
8.80086E-04 3.93283E-20
9.32601E-04 3.50109E-20
9.86636E-04 3.12687E-20
1.04219E-03 2.80125E-20
1.09927E-03 2.51684E-20
1.15786E-03 2.26755E-20
1.21797E-03 2.04830E-20
1.27961E-03 1.85487E-20
1.34276E-03 1.68369E-20
1.40743E-03 1.53177E-20
1.47362E-03 1.39656E-20
1.54133E-03 1.27591E-20
1.61056E-03 1.16799E-20
1.68131E-03 1.07121E-20
1.75357E-03 9.84223E-21
1.82735E-03 9.05869E-21
1.90265E-03 8.35140E-21
1.97947E-03 7.71164E-21
2.05780E-03 7.13182E-21
2.13765E-03 6.60535E-21
2.21902E-03 6.12644E-21
2.30190E-03 5.69004E-21
2.38630E-03 5.29171E-21
2.47222E-03 4.92753E-21
2.55965E-03 4.59406E-21
2.64859E-03 4.28825E-21
2.73905E-03 4.00740E-21
2.83103E-03 3.74909E-21
2.92452E-03 3.51121E-21
3.01952E-03 3.29183E-21
3.11604E-03 3.08928E-21
3.21407E-03 2.90201E-21
3.31362E-03 2.72868E-21
3.41468E-03 2.56806E-21
3.51725E-03 2.41904E-21
3.62133E-03 2.28065E-21
3.72692E-03 2.15197E-21
3.83403E-03 2.03222E-21
3.94265E-03 1.92065E-21
4.05278E-03 1.81660E-21
4.16442E-03 1.71949E-21
4.27757E-03 1.62875E-21
4.39223E-03 1.54390E-21
4.50840E-03 1.46448E-21
4.62608E-03 1.39008E-21
4.74527E-03 1.32034E-21
4.86597E-03 1.25489E-21
4.98817E-03 1.19344E-21
5.11188E-03 1.13568E-21
5.23711E-03 1.08137E-21
5.36383E-03 1.03025E-21
5.49207E-03 9.82099E-22
5.62181E-03 9.36721E-22
5.75306E-03 8.93923E-22
5.88581E-03 8.53531E-22
6.02007E-03 8.15385E-22
6.15583E-03 7.79338E-22
6.29310E-03 7.45252E-22
6.43187E-03 7.13001E-22
6.57214E-03 6.82468E-22
6.71392E-03 6.53545E-22
6.85720E-03 6.26132E-22
7.00198E-03 6.00134E-22
7.14827E-03 5.75466E-22
7.29605E-03 5.52046E-22
7.44534E-03 5.29800E-22
7.59612E-03 5.08658E-22
7.97965E-03 4.60218E-22
8.37255E-03 4.17383E-22
8.77480E-03 3.79395E-22
9.18641E-03 3.45612E-22
9.60736E-03 3.15489E-22
1.00376E-02 2.88560E-22
1.04773E-02 2.64430E-22
1.09262E-02 2.42758E-22
1.13844E-02 2.23249E-22
1.18520E-02 2.05650E-22
1.23288E-02 1.89743E-22
1.28150E-02 1.75335E-22
1.33104E-02 1.62262E-22
1.38150E-02 1.50377E-22
1.43290E-02 1.39554E-22
1.48521E-02 1.29682E-22
1.53845E-02 1.20662E-22
1.59262E-02 1.12408E-22
1.64770E-02 1.04843E-22
1.70371E-02 9.78998E-23
1.76063E-02 9.15180E-23
1.81848E-02 8.56444E-23
1.87724E-02 8.02313E-23
1.93692E-02 7.52361E-23
1.99751E-02 7.06208E-23
2.05901E-02 6.63514E-23
2.12143E-02 6.23976E-23
2.18476E-02 5.87317E-23
2.24900E-02 5.53290E-23
2.31415E-02 5.21672E-23
2.38021E-02 4.92264E-23
2.44717E-02 4.64883E-23
2.51504E-02 4.39363E-23
2.58382E-02 4.15556E-23
2.65349E-02 3.93326E-23
2.72407E-02 3.72551E-23
2.79555E-02 3.53118E-23
2.86793E-02 3.34924E-23
2.94120E-02 3.17876E-23
3.01537E-02 3.01889E-23
3.09043E-02 2.86887E-23
3.16639E-02 2.72796E-23
3.24324E-02 2.59551E-23
3.32098E-02 2.47092E-23
3.39961E-02 2.35366E-23
3.47912E-02 2.24320E-23
3.55952E-02 2.13908E-23
3.64081E-02 2.04086E-23
3.72297E-02 1.94817E-23
3.80602E-02 1.86063E-23
3.88995E-02 1.77789E-23
3.97476E-02 1.69965E-23
4.06044E-02 1.62562E-23
4.14700E-02 1.55555E-23
4.23443E-02 1.48916E-23
4.32273E-02 1.42623E-23
4.41190E-02 1.36656E-23
4.50194E-02 1.30995E-23
4.59284E-02 1.25619E-23
4.68461E-02 1.20514E-23
4.87074E-02 1.11050E-23
5.06030E-02 1.02485E-23
5.25328E-02 9.47220E-24
5.44967E-02 8.76708E-24
5.64946E-02 8.12559E-24
5.85262E-02 7.54096E-24
6.05914E-02 7.00732E-24
6.26901E-02 6.51943E-24
6.48222E-02 6.07271E-24
6.69873E-02 5.66307E-24
6.91854E-02 5.28692E-24
7.14163E-02 4.94104E-24
7.36799E-02 4.62257E-24
7.59760E-02 4.32898E-24
7.83043E-02 4.05797E-24
8.06647E-02 3.80751E-24
8.30571E-02 3.57577E-24
8.54812E-02 3.36111E-24
8.79369E-02 3.16205E-24
9.04240E-02 2.97727E-24
9.29422E-02 2.80555E-24
9.54915E-02 2.64583E-24
9.80716E-02 2.49710E-24
1.00682E-01 2.35849E-24
1.03323E-01 2.22918E-24
1.05995E-01 2.10845E-24
1.08696E-01 1.99563E-24
1.11427E-01 1.89010E-24
1.14188E-01 1.79131E-24
1.16978E-01 1.69877E-24
1.19797E-01 1.61199E-24
1.22645E-01 1.53057E-24
1.25522E-01 1.45412E-24
1.28428E-01 1.38227E-24
1.31361E-01 1.31471E-24
1.34323E-01 1.25113E-24
1.37313E-01 1.19126E-24
1.40330E-01 1.13484E-24
1.43375E-01 1.08164E-24
1.46447E-01 1.03145E-24
1.49545E-01 9.84059E-25
1.52671E-01 9.39291E-25
1.55823E-01 8.96974E-25
1.59001E-01 8.56950E-25
1.62205E-01 8.19073E-25
1.65435E-01 7.83209E-25
1.68690E-01 7.49232E-25
1.71970E-01 7.17024E-25
1.75276E-01 6.86479E-25
1.78606E-01 6.57496E-25
1.81961E-01 6.29980E-25
1.85340E-01 6.03845E-25
1.88743E-01 5.79009E-25
1.92169E-01 5.55396E-25
1.95619E-01 5.32937E-25
1.99092E-01 5.11564E-25
2.02589E-01 4.91217E-25
2.06107E-01 4.71836E-25
2.09649E-01 4.53370E-25
2.13212E-01 4.35767E-25
2.16797E-01 4.18979E-25
2.20404E-01 4.02963E-25
2.24032E-01 3.87676E-25
2.27680E-01 3.73081E-25
2.31350E-01 3.59140E-25
2.35040E-01 3.45819E-25
2.38751E-01 3.33086E-25
2.42481E-01 3.20910E-25
2.46231E-01 3.09262E-25
2.50000E-01 2.98117E-25
2.53788E-01 2.87448E-25
2.57595E-01 2.77231E-25
2.61421E-01 2.67445E-25
2.65264E-01 2.58068E-25
2.69126E-01 2.49080E-25
2.73005E-01 2.40462E-25
2.76901E-01 2.32196E-25
2.80814E-01 2.24266E-25
2.84744E-01 2.16655E-25
2.88691E-01 2.09348E-25
2.92653E-01 2.02332E-25
2.96632E-01 1.95593E-25
3.00625E-01 1.89117E-25
3.04634E-01 1.82893E-25
3.08658E-01 1.76910E-25
3.12697E-01 1.71156E-25
3.16749E-01 1.65622E-25
3.20816E-01 1.60297E-25
3.24896E-01 1.55173E-25
3.28990E-01 1.50240E-25
3.33097E-01 1.45490E-25
3.37216E-01 1.40915E-25
3.41348E-01 1.36508E-25
3.45492E-01 1.32261E-25
3.49647E-01 1.28168E-25
3.53814E-01 1.24222E-25
3.57992E-01 1.20417E-25
3.62181E-01 1.16748E-25
3.66381E-01 1.13208E-25
3.70590E-01 1.09792E-25
3.74810E-01 1.06495E-25
3.79039E-01 1.03312E-25
3.83277E-01 1.00240E-25
3.87524E-01 9.72721E-26
3.91780E-01 9.44057E-26
3.96044E-01 9.16363E-26
4.00316E-01 8.89602E-26
4.04596E-01 8.63736E-26
4.08882E-01 8.38732E-26
4.13176E-01 8.14556E-26
4.17476E-01 7.91175E-26
4.21783E-01 7.68560E-26
4.26095E-01 7.46681E-26
4.30413E-01 7.25511E-26
4.34737E-01 7.05022E-26
4.39065E-01 6.85190E-26
4.43398E-01 6.65990E-26
4.47736E-01 6.47399E-26
4.52077E-01 6.29393E-26
4.56422E-01 6.11953E-26
4.60770E-01 5.95056E-26
4.65122E-01 5.78685E-26
4.69476E-01 5.62819E-26
4.73832E-01 5.47440E-26
4.78190E-01 5.32532E-26
4.82550E-01 5.18078E-26
4.86912E-01 5.04061E-26
4.91274E-01 4.90467E-26
4.95637E-01 4.77280E-26
5.00000E-01 4.64486E-26
5.04363E-01 4.52073E-26
5.08726E-01 4.40026E-26
5.13088E-01 4.28334E-26
5.17450E-01 4.16984E-26
5.21810E-01 4.05965E-26
5.26168E-01 3.95266E-26
5.30524E-01 3.84875E-26
5.34878E-01 3.74784E-26
5.39230E-01 3.64981E-26
5.43578E-01 3.55457E-26
5.47923E-01 3.46204E-26
5.52264E-01 3.37211E-26
5.56602E-01 3.28472E-26
5.60935E-01 3.19977E-26
5.65263E-01 3.11719E-26
5.69587E-01 3.03690E-26
5.73905E-01 2.95884E-26
5.78217E-01 2.88292E-26
5.82524E-01 2.80908E-26
5.86824E-01 2.73725E-26
5.91118E-01 2.66738E-26
5.95404E-01 2.59940E-26
5.99684E-01 2.53326E-26
6.03956E-01 2.46889E-26
6.08220E-01 2.40624E-26
6.12476E-01 2.34526E-26
6.16723E-01 2.28591E-26
6.20961E-01 2.22812E-26
6.25190E-01 2.17185E-26
6.29410E-01 2.11706E-26
6.33619E-01 2.06370E-26
6.37819E-01 2.01173E-26
6.42008E-01 1.96111E-26
6.46186E-01 1.91180E-26
6.50353E-01 1.86376E-26
6.54508E-01 1.81696E-26
6.58652E-01 1.77135E-26
6.62784E-01 1.72691E-26
6.66903E-01 1.68359E-26
6.71010E-01 1.64137E-26
6.75104E-01 1.60022E-26
6.79184E-01 1.56010E-26
6.83251E-01 1.52098E-26
6.87303E-01 1.48285E-26
6.91342E-01 1.44566E-26
6.95366E-01 1.40940E-26
6.99375E-01 1.37404E-26
7.03368E-01 1.33955E-26
7.07347E-01 1.30590E-26
7.11309E-01 1.27308E-26
7.15256E-01 1.24107E-26
7.19186E-01 1.20983E-26
7.23099E-01 1.17936E-26
7.26995E-01 1.14962E-26
7.30874E-01 1.12060E-26
7.34736E-01 1.09229E-26
7.38579E-01 1.06465E-26
7.42405E-01 1.03768E-26
7.46212E-01 1.01135E-26
7.50000E-01 9.85647E-27
7.53769E-01 9.60558E-27
7.57519E-01 9.36065E-27
7.61249E-01 9.12152E-27
7.64960E-01 8.88804E-27
7.68650E-01 8.66007E-27
7.72320E-01 8.43746E-27
7.75968E-01 8.22007E-27
7.79596E-01 8.00778E-27
7.83203E-01 7.80046E-27
7.86788E-01 7.59797E-27
7.90351E-01 7.40019E-27
7.93893E-01 7.20702E-27
7.97411E-01 7.01832E-27
8.00908E-01 6.83400E-27
8.04381E-01 6.65394E-27
8.07831E-01 6.47804E-27
8.11257E-01 6.30619E-27
8.14660E-01 6.13830E-27
8.18039E-01 5.97427E-27
8.21394E-01 5.81401E-27
8.24724E-01 5.65743E-27
8.28030E-01 5.50443E-27
8.31310E-01 5.35493E-27
8.34565E-01 5.20886E-27
8.37795E-01 5.06612E-27
8.40999E-01 4.92664E-27
8.44177E-01 4.79035E-27
8.47329E-01 4.65716E-27
8.50455E-01 4.52701E-27
8.53553E-01 4.39983E-27
8.56625E-01 4.27555E-27
8.59670E-01 4.15410E-27
8.62687E-01 4.03541E-27
8.65677E-01 3.91944E-27
8.68639E-01 3.80610E-27
8.71572E-01 3.69535E-27
8.74478E-01 3.58714E-27
8.77355E-01 3.48139E-27
8.80203E-01 3.37806E-27
8.83022E-01 3.27709E-27
8.85812E-01 3.17844E-27
8.88573E-01 3.08205E-27
8.91304E-01 2.98788E-27
8.94005E-01 2.89587E-27
8.96677E-01 2.80599E-27
8.99318E-01 2.71818E-27
9.01928E-01 2.63240E-27
9.04508E-01 2.54862E-27
9.07058E-01 2.46678E-27
9.09576E-01 2.38686E-27
9.12063E-01 2.30881E-27
9.14519E-01 2.23258E-27
9.16943E-01 2.15816E-27
9.19335E-01 2.08550E-27
9.21696E-01 2.01456E-27
9.24024E-01 1.94532E-27
9.26320E-01 1.87773E-27
9.28584E-01 1.81177E-27
9.30815E-01 1.74741E-27
9.33013E-01 1.68461E-27
9.35178E-01 1.62335E-27
9.37310E-01 1.56360E-27
9.39409E-01 1.50533E-27
9.41474E-01 1.44852E-27
9.43505E-01 1.39313E-27
9.45503E-01 1.33914E-27
9.47467E-01 1.28653E-27
9.49397E-01 1.23528E-27
9.51293E-01 1.18535E-27
9.53154E-01 1.13673E-27
9.54981E-01 1.08940E-27
9.56773E-01 1.04333E-27
9.58530E-01 9.98507E-28
9.60252E-01 9.54907E-28
9.61940E-01 9.12511E-28
9.63592E-01 8.71300E-28
9.65209E-01 8.31257E-28
9.66790E-01 7.92363E-28
9.68336E-01 7.54602E-28
9.69846E-01 7.17956E-28
9.71321E-01 6.82411E-28
9.72759E-01 6.47949E-28
9.74162E-01 6.14557E-28
9.75528E-01 5.82220E-28
9.76858E-01 5.50923E-28
9.78152E-01 5.20654E-28
9.79410E-01 4.91399E-28
9.80631E-01 4.63145E-28
9.81815E-01 4.35881E-28
9.82963E-01 4.09594E-28
9.84074E-01 3.84274E-28
9.85148E-01 3.59909E-28
9.86185E-01 3.36490E-28
9.87185E-01 3.14006E-28
9.88148E-01 2.92447E-28
9.89074E-01 2.71806E-28
9.89962E-01 2.52072E-28
9.90814E-01 2.33237E-28
9.91627E-01 2.15295E-28
9.92404E-01 1.98236E-28
9.93143E-01 1.82054E-28
9.93844E-01 1.66742E-28
9.94508E-01 1.52293E-28
9.95134E-01 1.38703E-28
9.95722E-01 1.25964E-28
9.96273E-01 1.14071E-28
9.96786E-01 1.03020E-28
9.97261E-01 9.28062E-29
9.97698E-01 8.34249E-29
9.98097E-01 7.48724E-29
9.98459E-01 6.71451E-29
9.98782E-01 6.02398E-29
9.99067E-01 5.41537E-29
9.99315E-01 4.88841E-29
9.99524E-01 4.44289E-29
9.99695E-01 4.07862E-29
9.99829E-01 3.79547E-29
9.99924E-01 3.59329E-29
9.99981E-01 3.47202E-29
1.00000E+00 3.43160E-29
