 #
 # Subroutine ELSEPA. Elastic scattering of electrons and positrons
 #                    by neutral atoms and positive ions
 #
 # Projectile: positron
 # Kinetic energy = 1.00000E+08 eV = 3.67493E+06 a.u.
 #
 # WARNING: High-energy factorization with free-atom DF screening.
 #          Absorption, polarization and exchange corrections are
 #          switched off.
 #          Phase shifts are calculated for the bare nucleus.
 #          Scattering amplitudes are not evaluated.
 #
 # Element: Sr,  Z =  38,  atomic weight = 8.76200E+01 g/mol
 #
 # Nuclear model: Fermi distribution
 #                Average radius = 4.75246E-13 cm
 #                Skin thickness = 5.46000E-14 cm
 #
 # Number of electrons = 38
 #
 # Total elastic cross section = 3.75905E-18 cm**2 = 1.34238E-01 a0**2
 # 1st transport cross section = 2.80238E-25 cm**2 = 1.00075E-08 a0**2
 # 2nd transport cross section = 8.32522E-25 cm**2 = 2.97299E-08 a0**2
 #
 #
 # Differential cross section:                       MU=(1-COS(THETA))/2
 #
 #  THETA        MU          DCS          DCS        Sherman      error
 #  (deg)                 (cm**2/sr)   (a0**2/sr)    function
 #----------------------------------------------------------------------
0.00000E+00 6.54893E-10
7.61557E-13 6.51122E-10
1.18994E-12 6.49018E-10
1.71346E-12 6.46460E-10
2.33225E-12 6.43458E-10
3.04617E-12 6.40020E-10
3.85530E-12 6.36158E-10
4.75964E-12 6.31884E-10
5.75917E-12 6.27211E-10
6.85391E-12 6.22154E-10
8.04379E-12 6.16728E-10
9.32893E-12 6.10949E-10
1.07092E-11 6.04835E-10
1.21847E-11 5.98402E-10
1.37554E-11 5.91670E-10
1.54213E-11 5.84657E-10
1.71823E-11 5.77383E-10
1.90386E-11 5.69866E-10
2.09900E-11 5.62127E-10
2.30367E-11 5.54199E-10
2.51785E-11 5.46147E-10
2.74156E-11 5.37899E-10
2.97478E-11 5.29470E-10
3.21752E-11 5.20878E-10
3.46979E-11 5.12138E-10
3.73157E-11 5.03430E-10
4.00286E-11 4.94675E-10
4.28368E-11 4.85822E-10
4.57402E-11 4.76886E-10
4.87388E-11 4.67880E-10
5.18325E-11 4.58885E-10
5.50215E-11 4.50057E-10
5.83057E-11 4.41198E-10
6.16850E-11 4.32323E-10
6.51595E-11 4.23442E-10
6.87293E-11 4.14566E-10
7.23943E-11 4.05943E-10
7.61544E-11 3.97409E-10
1.18991E-10 3.17277E-10
1.71347E-10 2.51093E-10
2.33223E-10 1.99527E-10
3.04617E-10 1.60280E-10
3.85531E-10 1.30646E-10
4.75965E-10 1.08144E-10
5.75917E-10 9.08158E-11
6.85389E-10 7.72194E-11
8.04380E-10 6.63293E-11
9.32891E-10 5.74367E-11
1.07092E-09 5.00580E-11
1.21847E-09 4.38537E-11
1.37554E-09 3.85811E-11
1.54213E-09 3.40622E-11
1.71823E-09 3.01605E-11
1.90386E-09 2.67822E-11
2.09900E-09 2.38469E-11
2.30367E-09 2.12626E-11
2.51785E-09 1.89114E-11
2.74156E-09 1.69211E-11
2.97478E-09 1.52263E-11
3.21752E-09 1.37747E-11
3.46978E-09 1.25246E-11
3.73156E-09 1.13482E-11
4.00286E-09 1.02929E-11
4.28368E-09 9.37569E-12
4.57402E-09 8.57496E-12
4.87388E-09 7.87287E-12
5.18326E-09 7.24282E-12
5.50215E-09 6.65232E-12
5.83057E-09 6.13018E-12
6.16850E-09 5.66684E-12
6.51596E-09 5.25426E-12
6.87293E-09 4.88568E-12
7.23942E-09 4.53732E-12
7.61544E-09 4.22020E-12
1.18991E-08 2.23305E-12
1.71347E-08 1.29071E-12
2.33223E-08 7.84306E-13
3.04617E-08 4.96852E-13
3.85531E-08 3.26756E-13
4.75965E-08 2.22570E-13
5.75917E-08 1.56633E-13
6.85389E-08 1.13465E-13
8.04380E-08 8.43686E-14
9.32891E-08 6.41693E-14
1.07092E-07 4.97519E-14
1.21847E-07 3.92104E-14
1.37554E-07 3.13439E-14
1.54213E-07 2.53682E-14
1.71823E-07 2.07547E-14
1.90386E-07 1.71431E-14
2.09900E-07 1.42806E-14
2.30367E-07 1.19853E-14
2.51785E-07 1.01253E-14
2.74156E-07 8.62180E-15
2.97478E-07 7.37445E-15
3.21752E-07 6.34917E-15
3.46978E-07 5.49078E-15
3.73156E-07 4.77330E-15
4.00286E-07 4.16768E-15
4.28368E-07 3.65460E-15
4.57402E-07 3.21782E-15
4.87388E-07 2.84355E-15
5.18325E-07 2.52241E-15
5.50215E-07 2.24466E-15
5.83057E-07 2.00449E-15
6.16850E-07 1.79504E-15
6.51596E-07 1.61254E-15
6.87293E-07 1.45239E-15
7.23942E-07 1.31176E-15
7.61543E-07 1.18768E-15
1.18991E-06 4.94170E-16
1.71347E-06 2.41151E-16
2.33223E-06 1.31377E-16
3.04617E-06 7.75605E-17
3.85531E-06 4.86849E-17
4.75964E-06 3.20748E-17
5.75916E-06 2.19769E-17
6.85388E-06 1.55549E-17
8.04378E-06 1.13144E-17
9.32888E-06 8.42408E-18
1.07092E-05 6.39972E-18
1.21846E-05 4.94803E-18
1.37553E-05 3.88525E-18
1.54212E-05 3.09288E-18
1.71822E-05 2.49245E-18
1.90385E-05 2.03047E-18
2.09899E-05 1.67125E-18
2.30365E-05 1.38796E-18
2.51783E-05 1.16209E-18
2.74153E-05 9.80234E-19
2.97475E-05 8.32535E-19
3.21749E-05 7.11614E-19
3.46974E-05 6.11878E-19
3.73152E-05 5.29036E-19
4.00281E-05 4.59765E-19
4.28362E-05 4.01475E-19
4.57395E-05 3.52130E-19
4.87380E-05 3.10128E-19
5.18317E-05 2.74194E-19
5.50205E-05 2.43307E-19
5.83045E-05 2.16645E-19
6.16838E-05 1.93535E-19
6.51582E-05 1.73427E-19
6.87277E-05 1.55866E-19
7.23925E-05 1.40473E-19
7.61524E-05 1.26954E-19
9.21439E-05 8.66748E-20
1.09658E-04 6.11682E-20
1.28695E-04 4.43893E-20
1.49255E-04 3.29843E-20
1.71338E-04 2.50170E-20
1.94942E-04 1.93145E-20
2.20070E-04 1.51471E-20
2.46720E-04 1.20447E-20
2.74892E-04 9.69675E-21
3.04586E-04 7.89362E-21
3.35803E-04 6.49034E-21
3.68542E-04 5.38521E-21
4.02802E-04 4.50534E-21
4.38585E-04 3.79783E-21
4.75889E-04 3.22376E-21
5.14715E-04 2.75402E-21
5.55063E-04 2.36669E-21
5.96931E-04 2.04502E-21
6.40321E-04 1.77611E-21
6.85233E-04 1.54991E-21
7.31665E-04 1.35853E-21
7.79618E-04 1.19575E-21
8.29092E-04 1.05659E-21
8.80086E-04 9.37059E-22
9.32601E-04 8.33928E-22
9.86636E-04 7.44571E-22
1.04219E-03 6.66837E-22
1.09927E-03 5.98966E-22
1.15786E-03 5.39495E-22
1.21797E-03 4.87203E-22
1.27961E-03 4.41080E-22
1.34276E-03 4.00273E-22
1.40743E-03 3.64063E-22
1.47362E-03 3.31845E-22
1.54133E-03 3.03101E-22
1.61056E-03 2.77393E-22
1.68131E-03 2.54344E-22
1.75357E-03 2.33632E-22
1.82735E-03 2.14978E-22
1.90265E-03 1.98142E-22
1.97947E-03 1.82916E-22
2.05780E-03 1.69119E-22
2.13765E-03 1.56593E-22
2.21902E-03 1.45201E-22
2.30190E-03 1.34821E-22
2.38630E-03 1.25348E-22
2.47222E-03 1.16689E-22
2.55965E-03 1.08762E-22
2.64859E-03 1.01492E-22
2.73905E-03 9.48173E-23
2.83103E-03 8.86792E-23
2.92452E-03 8.30271E-23
3.01952E-03 7.78157E-23
3.11604E-03 7.30045E-23
3.21407E-03 6.85572E-23
3.31362E-03 6.44414E-23
3.41468E-03 6.06280E-23
3.51725E-03 5.70907E-23
3.62133E-03 5.38059E-23
3.72692E-03 5.07525E-23
3.83403E-03 4.79111E-23
3.94265E-03 4.52643E-23
4.05278E-03 4.27965E-23
4.16442E-03 4.04934E-23
4.27757E-03 3.83420E-23
4.39223E-03 3.63304E-23
4.50840E-03 3.44480E-23
4.62608E-03 3.26849E-23
4.74527E-03 3.10323E-23
4.86597E-03 2.94819E-23
4.98817E-03 2.80263E-23
5.11188E-03 2.66587E-23
5.23711E-03 2.53727E-23
5.36383E-03 2.41625E-23
5.49207E-03 2.30230E-23
5.62181E-03 2.19493E-23
5.75306E-03 2.09368E-23
5.88581E-03 1.99814E-23
6.02007E-03 1.90793E-23
6.15583E-03 1.82270E-23
6.29310E-03 1.74213E-23
6.43187E-03 1.66591E-23
6.57214E-03 1.59377E-23
6.71392E-03 1.52545E-23
6.85720E-03 1.46071E-23
7.00198E-03 1.39932E-23
7.14827E-03 1.34109E-23
7.29605E-03 1.28582E-23
7.44534E-03 1.23333E-23
7.59612E-03 1.18346E-23
7.97965E-03 1.06925E-23
8.37255E-03 9.68316E-24
8.77480E-03 8.78864E-24
9.18641E-03 7.99368E-24
9.60736E-03 7.28535E-24
1.00376E-02 6.65262E-24
1.04773E-02 6.08607E-24
1.09262E-02 5.57761E-24
1.13844E-02 5.12029E-24
1.18520E-02 4.70809E-24
1.23288E-02 4.33582E-24
1.28150E-02 3.99895E-24
1.33104E-02 3.69356E-24
1.38150E-02 3.41619E-24
1.43290E-02 3.16385E-24
1.48521E-02 2.93390E-24
1.53845E-02 2.72401E-24
1.59262E-02 2.53213E-24
1.64770E-02 2.35647E-24
1.70371E-02 2.19542E-24
1.76063E-02 2.04756E-24
1.81848E-02 1.91163E-24
1.87724E-02 1.78650E-24
1.93692E-02 1.67117E-24
1.99751E-02 1.56474E-24
2.05901E-02 1.46641E-24
2.12143E-02 1.37546E-24
2.18476E-02 1.29125E-24
2.24900E-02 1.21318E-24
2.31415E-02 1.14075E-24
2.38021E-02 1.07347E-24
2.44717E-02 1.01091E-24
2.51504E-02 9.52688E-25
2.58382E-02 8.98456E-25
2.65349E-02 8.47893E-25
2.72407E-02 8.00709E-25
2.79555E-02 7.56640E-25
2.86793E-02 7.15449E-25
2.94120E-02 6.76914E-25
3.01537E-02 6.40838E-25
3.09043E-02 6.07036E-25
3.16639E-02 5.75343E-25
3.24324E-02 5.45605E-25
3.32098E-02 5.17682E-25
3.39961E-02 4.91444E-25
3.47912E-02 4.66775E-25
3.55952E-02 4.43564E-25
3.64081E-02 4.21711E-25
3.72297E-02 4.01125E-25
3.80602E-02 3.81719E-25
3.88995E-02 3.63416E-25
3.97476E-02 3.46143E-25
4.06044E-02 3.29832E-25
4.14700E-02 3.14421E-25
4.23443E-02 2.99853E-25
4.32273E-02 2.86074E-25
4.41190E-02 2.73035E-25
4.50194E-02 2.60690E-25
4.59284E-02 2.48996E-25
4.68461E-02 2.37913E-25
4.87074E-02 2.17437E-25
5.06030E-02 1.98994E-25
5.25328E-02 1.82354E-25
5.44967E-02 1.67314E-25
5.64946E-02 1.53700E-25
5.85262E-02 1.41355E-25
6.05914E-02 1.30147E-25
6.26901E-02 1.19954E-25
6.48222E-02 1.10672E-25
6.69873E-02 1.02208E-25
6.91854E-02 9.44812E-26
7.14163E-02 8.74174E-26
7.36799E-02 8.09525E-26
7.59760E-02 7.50286E-26
7.83043E-02 6.95947E-26
8.06647E-02 6.46047E-26
8.30571E-02 6.00176E-26
8.54812E-02 5.57968E-26
8.79369E-02 5.19092E-26
9.04240E-02 4.83251E-26
9.29422E-02 4.50178E-26
9.54915E-02 4.19634E-26
9.80716E-02 3.91400E-26
1.00682E-01 3.65281E-26
1.03323E-01 3.41100E-26
1.05995E-01 3.18694E-26
1.08696E-01 2.97919E-26
1.11427E-01 2.78642E-26
1.14188E-01 2.60742E-26
1.16978E-01 2.44110E-26
1.19797E-01 2.28646E-26
1.22645E-01 2.14258E-26
1.25522E-01 2.00864E-26
1.28428E-01 1.88387E-26
1.31361E-01 1.76758E-26
1.34323E-01 1.65913E-26
1.37313E-01 1.55794E-26
1.40330E-01 1.46347E-26
1.43375E-01 1.37523E-26
1.46447E-01 1.29277E-26
1.49545E-01 1.21566E-26
1.52671E-01 1.14354E-26
1.55823E-01 1.07604E-26
1.59001E-01 1.01285E-26
1.62205E-01 9.53651E-27
1.65435E-01 8.98182E-27
1.68690E-01 8.46182E-27
1.71970E-01 7.97415E-27
1.75276E-01 7.51662E-27
1.78606E-01 7.08721E-27
1.81961E-01 6.68404E-27
1.85340E-01 6.30537E-27
1.88743E-01 5.94959E-27
1.92169E-01 5.61521E-27
1.95619E-01 5.30084E-27
1.99092E-01 5.00517E-27
2.02589E-01 4.72702E-27
2.06107E-01 4.46527E-27
2.09649E-01 4.21887E-27
2.13212E-01 3.98687E-27
2.16797E-01 3.76835E-27
2.20404E-01 3.56249E-27
2.24032E-01 3.36848E-27
2.27680E-01 3.18562E-27
2.31350E-01 3.01320E-27
2.35040E-01 2.85060E-27
2.38751E-01 2.69722E-27
2.42481E-01 2.55251E-27
2.46231E-01 2.41593E-27
2.50000E-01 2.28702E-27
2.53788E-01 2.16530E-27
2.57595E-01 2.05036E-27
2.61421E-01 1.94180E-27
2.65264E-01 1.83924E-27
2.69126E-01 1.74233E-27
2.73005E-01 1.65074E-27
2.76901E-01 1.56417E-27
2.80814E-01 1.48232E-27
2.84744E-01 1.40492E-27
2.88691E-01 1.33173E-27
2.92653E-01 1.26250E-27
2.96632E-01 1.19700E-27
3.00625E-01 1.13502E-27
3.04634E-01 1.07637E-27
3.08658E-01 1.02086E-27
3.12697E-01 9.68305E-28
3.16749E-01 9.18553E-28
3.20816E-01 8.71442E-28
3.24896E-01 8.26827E-28
3.28990E-01 7.84570E-28
3.33097E-01 7.44541E-28
3.37216E-01 7.06618E-28
3.41348E-01 6.70685E-28
3.45492E-01 6.36634E-28
3.49647E-01 6.04363E-28
3.53814E-01 5.73775E-28
3.57992E-01 5.44779E-28
3.62181E-01 5.17289E-28
3.66381E-01 4.91224E-28
3.70590E-01 4.66507E-28
3.74810E-01 4.43068E-28
3.79039E-01 4.20836E-28
3.83277E-01 3.99749E-28
3.87524E-01 3.79744E-28
3.91780E-01 3.60766E-28
3.96044E-01 3.42759E-28
4.00316E-01 3.25672E-28
4.04596E-01 3.09457E-28
4.08882E-01 2.94068E-28
4.13176E-01 2.79462E-28
4.17476E-01 2.65598E-28
4.21783E-01 2.52436E-28
4.26095E-01 2.39941E-28
4.30413E-01 2.28078E-28
4.34737E-01 2.16814E-28
4.39065E-01 2.06118E-28
4.43398E-01 1.95960E-28
4.47736E-01 1.86313E-28
4.52077E-01 1.77150E-28
4.56422E-01 1.68447E-28
4.60770E-01 1.60180E-28
4.65122E-01 1.52326E-28
4.69476E-01 1.44865E-28
4.73832E-01 1.37776E-28
4.78190E-01 1.31041E-28
4.82550E-01 1.24641E-28
4.86912E-01 1.18559E-28
4.91274E-01 1.12779E-28
4.95637E-01 1.07286E-28
5.00000E-01 1.02065E-28
5.04363E-01 9.71031E-29
5.08726E-01 9.23863E-29
5.13088E-01 8.79025E-29
5.17450E-01 8.36400E-29
5.21810E-01 7.95877E-29
5.26168E-01 7.57350E-29
5.30524E-01 7.20718E-29
5.34878E-01 6.85888E-29
5.39230E-01 6.52768E-29
5.43578E-01 6.21273E-29
5.47923E-01 5.91322E-29
5.52264E-01 5.62838E-29
5.56602E-01 5.35748E-29
5.60935E-01 5.09982E-29
5.65263E-01 4.85474E-29
5.69587E-01 4.62162E-29
5.73905E-01 4.39987E-29
5.78217E-01 4.18892E-29
5.82524E-01 3.98824E-29
5.86824E-01 3.79732E-29
5.91118E-01 3.61567E-29
5.95404E-01 3.44284E-29
5.99684E-01 3.27840E-29
6.03956E-01 3.12193E-29
6.08220E-01 2.97303E-29
6.12476E-01 2.83134E-29
6.16723E-01 2.69650E-29
6.20961E-01 2.56817E-29
6.25190E-01 2.44604E-29
6.29410E-01 2.32980E-29
6.33619E-01 2.21916E-29
6.37819E-01 2.11385E-29
6.42008E-01 2.01360E-29
6.46186E-01 1.91818E-29
6.50353E-01 1.82734E-29
6.54508E-01 1.74086E-29
6.58652E-01 1.65853E-29
6.62784E-01 1.58015E-29
6.66903E-01 1.50552E-29
6.71010E-01 1.43446E-29
6.75104E-01 1.36680E-29
6.79184E-01 1.30238E-29
6.83251E-01 1.24103E-29
6.87303E-01 1.18260E-29
6.91342E-01 1.12697E-29
6.95366E-01 1.07398E-29
6.99375E-01 1.02351E-29
7.03368E-01 9.75450E-30
7.07347E-01 9.29671E-30
7.11309E-01 8.86066E-30
7.15256E-01 8.44531E-30
7.19186E-01 8.04965E-30
7.23099E-01 7.67274E-30
7.26995E-01 7.31368E-30
7.30874E-01 6.97161E-30
7.34736E-01 6.64571E-30
7.38579E-01 6.33521E-30
7.42405E-01 6.03936E-30
7.46212E-01 5.75747E-30
7.50000E-01 5.48887E-30
7.53769E-01 5.23291E-30
7.57519E-01 4.98900E-30
7.61249E-01 4.75656E-30
7.64960E-01 4.53504E-30
7.68650E-01 4.32392E-30
7.72320E-01 4.12270E-30
7.75968E-01 3.93091E-30
7.79596E-01 3.74811E-30
7.83203E-01 3.57386E-30
7.86788E-01 3.40776E-30
7.90351E-01 3.24942E-30
7.93893E-01 3.09847E-30
7.97411E-01 2.95457E-30
8.00908E-01 2.81737E-30
8.04381E-01 2.68655E-30
8.07831E-01 2.56183E-30
8.11257E-01 2.44290E-30
8.14660E-01 2.32950E-30
8.18039E-01 2.22137E-30
8.21394E-01 2.11824E-30
8.24724E-01 2.01990E-30
8.28030E-01 1.92611E-30
8.31310E-01 1.83665E-30
8.34565E-01 1.75134E-30
8.37795E-01 1.66996E-30
8.40999E-01 1.59233E-30
8.44177E-01 1.51829E-30
8.47329E-01 1.44765E-30
8.50455E-01 1.38027E-30
8.53553E-01 1.31598E-30
8.56625E-01 1.25464E-30
8.59670E-01 1.19613E-30
8.62687E-01 1.14029E-30
8.65677E-01 1.08701E-30
8.68639E-01 1.03618E-30
8.71572E-01 9.87663E-31
8.74478E-01 9.41368E-31
8.77355E-01 8.97186E-31
8.80203E-01 8.55019E-31
8.83022E-01 8.14774E-31
8.85812E-01 7.76363E-31
8.88573E-01 7.39699E-31
8.91304E-01 7.04702E-31
8.94005E-01 6.71294E-31
8.96677E-01 6.39403E-31
8.99318E-01 6.08959E-31
9.01928E-01 5.79894E-31
9.04508E-01 5.52145E-31
9.07058E-01 5.25652E-31
9.09576E-01 5.00357E-31
9.12063E-01 4.76204E-31
9.14519E-01 4.53142E-31
9.16943E-01 4.31121E-31
9.19335E-01 4.10093E-31
9.21696E-01 3.90013E-31
9.24024E-01 3.70837E-31
9.26320E-01 3.52524E-31
9.28584E-01 3.35036E-31
9.30815E-01 3.18334E-31
9.33013E-01 3.02384E-31
9.35178E-01 2.87150E-31
9.37310E-01 2.72602E-31
9.39409E-01 2.58707E-31
9.41474E-01 2.45437E-31
9.43505E-01 2.32764E-31
9.45503E-01 2.20660E-31
9.47467E-01 2.09101E-31
9.49397E-01 1.98063E-31
9.51293E-01 1.87521E-31
9.53154E-01 1.77454E-31
9.54981E-01 1.67842E-31
9.56773E-01 1.58663E-31
9.58530E-01 1.49900E-31
9.60252E-01 1.41534E-31
9.61940E-01 1.33547E-31
9.63592E-01 1.25924E-31
9.65209E-01 1.18648E-31
9.66790E-01 1.11705E-31
9.68336E-01 1.05081E-31
9.69846E-01 9.87609E-32
9.71321E-01 9.27332E-32
9.72759E-01 8.69854E-32
9.74162E-01 8.15056E-32
9.75528E-01 7.62829E-32
9.76858E-01 7.13067E-32
9.78152E-01 6.65669E-32
9.79410E-01 6.20540E-32
9.80631E-01 5.77589E-32
9.81815E-01 5.36731E-32
9.82963E-01 4.97884E-32
9.84074E-01 4.60970E-32
9.85148E-01 4.25916E-32
9.86185E-01 3.92651E-32
9.87185E-01 3.61111E-32
9.88148E-01 3.31232E-32
9.89074E-01 3.02955E-32
9.89962E-01 2.76226E-32
9.90814E-01 2.50990E-32
9.91627E-01 2.27199E-32
9.92404E-01 2.04805E-32
9.93143E-01 1.83765E-32
9.93844E-01 1.64038E-32
9.94508E-01 1.45585E-32
9.95134E-01 1.28370E-32
9.95722E-01 1.12359E-32
9.96273E-01 9.75222E-33
9.96786E-01 8.38296E-33
9.97261E-01 7.12548E-33
9.97698E-01 5.97735E-33
9.98097E-01 4.93636E-33
9.98459E-01 4.00047E-33
9.98782E-01 3.16788E-33
9.99067E-01 2.43699E-33
9.99315E-01 1.80637E-33
9.99524E-01 1.27482E-33
9.99695E-01 8.41303E-34
9.99829E-01 5.04988E-34
9.99924E-01 2.65226E-34
9.99981E-01 1.21551E-34
1.00000E+00 7.36855E-35
