 #
 # Subroutine ELSEPA. Elastic scattering of electrons and positrons
 #                    by neutral atoms and positive ions
 #
 # Projectile: positron
 # Kinetic energy = 3.00000E+08 eV = 1.10248E+07 a.u.
 #
 # WARNING: High-energy factorization with free-atom DF screening.
 #          Absorption, polarization and exchange corrections are
 #          switched off.
 #          Phase shifts are calculated for the bare nucleus.
 #          Scattering amplitudes are not evaluated.
 #
 # Element: Sr,  Z =  38,  atomic weight = 8.76200E+01 g/mol
 #
 # Nuclear model: Fermi distribution
 #                Average radius = 4.75246E-13 cm
 #                Skin thickness = 5.46000E-14 cm
 #
 # Number of electrons = 38
 #
 # Total elastic cross section = 3.75851E-18 cm**2 = 1.34219E-01 a0**2
 # 1st transport cross section = 3.19373E-26 cm**2 = 1.14050E-09 a0**2
 # 2nd transport cross section = 9.56953E-26 cm**2 = 3.41734E-09 a0**2
 #
 #
 # Differential cross section:                       MU=(1-COS(THETA))/2
 #
 #  THETA        MU          DCS          DCS        Sherman      error
 #  (deg)                 (cm**2/sr)   (a0**2/sr)    function
 #----------------------------------------------------------------------
0.00000E+00 5.85415E-09
7.61557E-13 5.56339E-09
1.18994E-12 5.40951E-09
1.71346E-12 5.23020E-09
2.33225E-12 5.02988E-09
3.04617E-12 4.81438E-09
3.85530E-12 4.58524E-09
4.75964E-12 4.35088E-09
5.75917E-12 4.11081E-09
6.85391E-12 3.87424E-09
8.04379E-12 3.63885E-09
9.32893E-12 3.41156E-09
1.07092E-11 3.19139E-09
1.21847E-11 2.98155E-09
1.37554E-11 2.78283E-09
1.54213E-11 2.59482E-09
1.71823E-11 2.42017E-09
1.90386E-11 2.25542E-09
2.09900E-11 2.10483E-09
2.30367E-11 1.96323E-09
2.51785E-11 1.83452E-09
2.74156E-11 1.71446E-09
2.97478E-11 1.60490E-09
3.21752E-11 1.50366E-09
3.46979E-11 1.41075E-09
3.73157E-11 1.32550E-09
4.00286E-11 1.24677E-09
4.28368E-11 1.17486E-09
4.57402E-11 1.10805E-09
4.87388E-11 1.04714E-09
5.18325E-11 9.90388E-10
5.50215E-11 9.38324E-10
5.83057E-11 8.89867E-10
6.16850E-11 8.45071E-10
6.51595E-11 8.03386E-10
6.87293E-11 7.64611E-10
7.23943E-11 7.28466E-10
7.61544E-11 6.94692E-10
1.18991E-10 4.50551E-10
1.71347E-10 3.06758E-10
2.33223E-10 2.14921E-10
3.04617E-10 1.52600E-10
3.85531E-10 1.12914E-10
4.75965E-10 8.45932E-11
5.75917E-10 6.53770E-11
6.85389E-10 5.11363E-11
8.04380E-10 4.09580E-11
9.32891E-10 3.31910E-11
1.07092E-09 2.73069E-11
1.21847E-09 2.26845E-11
1.37554E-09 1.90063E-11
1.54213E-09 1.60622E-11
1.71823E-09 1.36252E-11
1.90386E-09 1.16565E-11
2.09900E-09 9.97839E-12
2.30367E-09 8.60970E-12
2.51785E-09 7.43217E-12
2.74156E-09 6.45516E-12
2.97478E-09 5.61758E-12
3.21752E-09 4.90983E-12
3.46978E-09 4.30433E-12
3.73156E-09 3.78553E-12
4.00286E-09 3.34156E-12
4.28368E-09 2.95711E-12
4.57402E-09 2.62730E-12
4.87388E-09 2.33933E-12
5.18326E-09 2.09077E-12
5.50215E-09 1.87314E-12
5.83057E-09 1.68365E-12
6.16850E-09 1.51733E-12
6.51596E-09 1.37116E-12
6.87293E-09 1.24218E-12
7.23942E-09 1.12814E-12
7.61544E-09 1.02716E-12
1.18991E-08 4.50390E-13
1.71347E-08 2.29663E-13
2.33223E-08 1.29314E-13
3.04617E-08 7.80786E-14
3.85531E-08 4.97403E-14
4.75965E-08 3.31093E-14
5.75917E-08 2.28558E-14
6.85389E-08 1.62658E-14
8.04380E-08 1.18870E-14
9.32891E-08 8.88708E-15
1.07092E-07 6.77696E-15
1.21847E-07 5.25864E-15
1.37554E-07 4.14319E-15
1.54213E-07 3.30895E-15
1.71823E-07 2.67493E-15
1.90386E-07 2.18587E-15
2.09900E-07 1.80383E-15
2.30367E-07 1.50182E-15
2.51785E-07 1.26047E-15
2.74156E-07 1.06577E-15
2.97478E-07 9.07244E-16
3.21752E-07 7.77132E-16
3.46978E-07 6.69537E-16
3.73156E-07 5.79916E-16
4.00286E-07 5.04799E-16
4.28368E-07 4.41455E-16
4.57402E-07 3.87730E-16
4.87388E-07 3.41932E-16
5.18325E-07 3.02693E-16
5.50215E-07 2.68918E-16
5.83057E-07 2.39722E-16
6.16850E-07 2.14377E-16
6.51596E-07 1.92292E-16
6.87293E-07 1.72977E-16
7.23942E-07 1.56023E-16
7.61543E-07 1.41094E-16
1.18991E-06 5.80692E-17
1.71347E-06 2.80727E-17
2.33223E-06 1.51732E-17
3.04617E-06 8.90100E-18
3.85531E-06 5.55930E-18
4.75964E-06 3.64839E-18
5.75916E-06 2.49224E-18
6.85388E-06 1.75979E-18
8.04378E-06 1.27766E-18
9.32888E-06 9.49873E-19
1.07092E-05 7.20758E-19
1.21846E-05 5.56729E-19
1.37553E-05 4.36808E-19
1.54212E-05 3.47500E-19
1.71822E-05 2.79888E-19
1.90385E-05 2.27908E-19
2.09899E-05 1.87517E-19
2.30365E-05 1.55681E-19
2.51783E-05 1.30310E-19
2.74153E-05 1.09892E-19
2.97475E-05 9.33145E-20
3.21749E-05 7.97468E-20
3.46974E-05 6.85592E-20
3.73152E-05 5.92690E-20
4.00281E-05 5.15020E-20
4.28362E-05 4.49676E-20
4.57395E-05 3.94369E-20
4.87380E-05 3.47299E-20
5.18317E-05 3.07035E-20
5.50205E-05 2.72430E-20
5.83045E-05 2.42561E-20
6.16838E-05 2.16674E-20
6.51582E-05 1.94153E-20
6.87277E-05 1.74484E-20
7.23925E-05 1.57246E-20
7.61524E-05 1.42108E-20
9.21439E-05 9.69896E-21
1.09658E-04 6.84238E-21
1.28695E-04 4.96357E-21
1.49255E-04 3.68670E-21
1.71338E-04 2.79485E-21
1.94942E-04 2.15663E-21
2.20070E-04 1.69031E-21
2.46720E-04 1.34323E-21
2.74892E-04 1.08061E-21
3.04586E-04 8.78991E-22
3.35803E-04 7.22121E-22
3.68542E-04 5.98620E-22
4.02802E-04 5.00325E-22
4.38585E-04 4.21316E-22
4.75889E-04 3.57232E-22
5.14715E-04 3.04818E-22
5.55063E-04 2.61620E-22
5.96931E-04 2.25763E-22
6.40321E-04 1.95802E-22
6.85233E-04 1.70615E-22
7.31665E-04 1.49318E-22
7.79618E-04 1.31215E-22
8.29092E-04 1.15749E-22
8.80086E-04 1.02474E-22
9.32601E-04 9.10286E-23
9.86636E-04 8.11199E-23
1.04219E-03 7.25077E-23
1.09927E-03 6.49942E-23
1.15786E-03 5.84164E-23
1.21797E-03 5.26384E-23
1.27961E-03 4.75469E-23
1.34276E-03 4.30467E-23
1.40743E-03 3.90579E-23
1.47362E-03 3.55126E-23
1.54133E-03 3.23533E-23
1.61056E-03 2.95310E-23
1.68131E-03 2.70037E-23
1.75357E-03 2.47355E-23
1.82735E-03 2.26954E-23
1.90265E-03 2.08565E-23
1.97947E-03 1.91958E-23
2.05780E-03 1.76931E-23
2.13765E-03 1.63309E-23
2.21902E-03 1.50938E-23
2.30190E-03 1.39685E-23
2.38630E-03 1.29431E-23
2.47222E-03 1.20073E-23
2.55965E-03 1.11520E-23
2.64859E-03 1.03691E-23
2.73905E-03 9.65148E-24
2.83103E-03 8.99277E-24
2.92452E-03 8.38736E-24
3.01952E-03 7.83021E-24
3.11604E-03 7.31685E-24
3.21407E-03 6.84328E-24
3.31362E-03 6.40590E-24
3.41468E-03 6.00149E-24
3.51725E-03 5.62717E-24
3.62133E-03 5.28034E-24
3.72692E-03 4.95864E-24
3.83403E-03 4.65997E-24
3.94265E-03 4.38241E-24
4.05278E-03 4.12423E-24
4.16442E-03 3.88385E-24
4.27757E-03 3.65986E-24
4.39223E-03 3.45096E-24
4.50840E-03 3.25598E-24
4.62608E-03 3.07383E-24
4.74527E-03 2.90354E-24
4.86597E-03 2.74423E-24
4.98817E-03 2.59506E-24
5.11188E-03 2.45530E-24
5.23711E-03 2.32426E-24
5.36383E-03 2.20131E-24
5.49207E-03 2.08588E-24
5.62181E-03 1.97743E-24
5.75306E-03 1.87548E-24
5.88581E-03 1.77958E-24
6.02007E-03 1.68932E-24
6.15583E-03 1.60432E-24
6.29310E-03 1.52422E-24
6.43187E-03 1.44870E-24
6.57214E-03 1.37746E-24
6.71392E-03 1.31022E-24
6.85720E-03 1.24673E-24
7.00198E-03 1.18674E-24
7.14827E-03 1.13003E-24
7.29605E-03 1.07641E-24
7.44534E-03 1.02567E-24
7.59612E-03 9.77638E-25
7.97965E-03 8.68365E-25
8.37255E-03 7.72743E-25
8.77480E-03 6.88855E-25
9.18641E-03 6.15084E-25
9.60736E-03 5.50062E-25
1.00376E-02 4.92628E-25
1.04773E-02 4.41795E-25
1.09262E-02 3.96716E-25
1.13844E-02 3.56667E-25
1.18520E-02 3.21025E-25
1.23288E-02 2.89254E-25
1.28150E-02 2.60889E-25
1.33104E-02 2.35527E-25
1.38150E-02 2.12819E-25
1.43290E-02 1.92460E-25
1.48521E-02 1.74184E-25
1.53845E-02 1.57758E-25
1.59262E-02 1.42979E-25
1.64770E-02 1.29667E-25
1.70371E-02 1.17664E-25
1.76063E-02 1.06831E-25
1.81848E-02 9.70449E-26
1.87724E-02 8.81973E-26
1.93692E-02 8.01915E-26
1.99751E-02 7.29417E-26
2.05901E-02 6.63720E-26
2.12143E-02 6.04143E-26
2.18476E-02 5.50082E-26
2.24900E-02 5.00997E-26
2.31415E-02 4.56404E-26
2.38021E-02 4.15871E-26
2.44717E-02 3.79010E-26
2.51504E-02 3.45473E-26
2.58382E-02 3.14946E-26
2.65349E-02 2.87150E-26
2.72407E-02 2.61829E-26
2.79555E-02 2.38757E-26
2.86793E-02 2.17726E-26
2.94120E-02 1.98551E-26
3.01537E-02 1.81064E-26
3.09043E-02 1.65112E-26
3.16639E-02 1.50559E-26
3.24324E-02 1.37278E-26
3.32098E-02 1.25157E-26
3.39961E-02 1.14094E-26
3.47912E-02 1.03995E-26
3.55952E-02 9.47755E-27
3.64081E-02 8.63584E-27
3.72297E-02 7.86737E-27
3.80602E-02 7.16577E-27
3.88995E-02 6.52524E-27
3.97476E-02 5.94049E-27
4.06044E-02 5.40670E-27
4.14700E-02 4.91946E-27
4.23443E-02 4.47478E-27
4.32273E-02 4.06898E-27
4.41190E-02 3.69873E-27
4.50194E-02 3.36097E-27
4.59284E-02 3.05292E-27
4.68461E-02 2.77202E-27
4.87074E-02 2.28256E-27
5.06030E-02 1.87624E-27
5.25328E-02 1.53937E-27
5.44967E-02 1.26050E-27
5.64946E-02 1.03003E-27
5.85262E-02 8.39907E-28
6.05914E-02 6.83395E-28
6.26901E-02 5.54842E-28
6.48222E-02 4.49515E-28
6.69873E-02 3.63450E-28
6.91854E-02 2.93330E-28
7.14163E-02 2.36381E-28
7.36799E-02 1.90286E-28
7.59760E-02 1.53112E-28
7.83043E-02 1.23249E-28
8.06647E-02 9.93567E-29
8.30571E-02 8.03249E-29
8.54812E-02 6.52329E-29
8.79369E-02 5.33205E-29
9.04240E-02 4.39614E-29
9.29422E-02 3.66415E-29
9.54915E-02 3.09402E-29
9.80716E-02 2.65148E-29
1.00682E-01 2.30871E-29
1.03323E-01 2.04331E-29
1.05995E-01 1.83726E-29
1.08696E-01 1.67623E-29
1.11427E-01 1.54889E-29
1.14188E-01 1.44634E-29
1.16978E-01 1.36170E-29
1.19797E-01 1.28970E-29
1.22645E-01 1.22636E-29
1.25522E-01 1.16874E-29
1.28428E-01 1.11472E-29
1.31361E-01 1.06284E-29
1.34323E-01 1.01210E-29
1.37313E-01 9.61925E-30
1.40330E-01 9.11986E-30
1.43375E-01 8.62181E-30
1.46447E-01 8.12549E-30
1.49545E-01 7.63229E-30
1.52671E-01 7.14420E-30
1.55823E-01 6.66350E-30
1.59001E-01 6.19263E-30
1.62205E-01 5.73393E-30
1.65435E-01 5.28959E-30
1.68690E-01 4.86158E-30
1.71970E-01 4.45155E-30
1.75276E-01 4.06086E-30
1.78606E-01 3.69056E-30
1.81961E-01 3.34138E-30
1.85340E-01 3.01375E-30
1.88743E-01 2.70785E-30
1.92169E-01 2.42359E-30
1.95619E-01 2.16069E-30
1.99092E-01 1.91865E-30
2.02589E-01 1.69685E-30
2.06107E-01 1.49450E-30
2.09649E-01 1.31074E-30
2.13212E-01 1.14462E-30
2.16797E-01 9.95116E-31
2.20404E-01 8.61196E-31
2.24032E-01 7.41796E-31
2.27680E-01 6.35852E-31
2.31350E-01 5.42310E-31
2.35040E-01 4.60140E-31
2.38751E-01 3.88344E-31
2.42481E-01 3.25962E-31
2.46231E-01 2.72078E-31
2.50000E-01 2.25828E-31
2.53788E-01 1.86396E-31
2.57595E-01 1.53024E-31
2.61421E-01 1.25006E-31
2.65264E-01 1.01690E-31
2.69126E-01 8.24813E-32
2.73005E-01 6.68342E-32
2.76901E-01 5.42553E-32
2.80814E-01 4.42991E-32
2.84744E-01 3.65666E-32
2.88691E-01 3.07015E-32
2.92653E-01 2.63885E-32
2.96632E-01 2.33496E-32
3.00625E-01 2.13418E-32
3.04634E-01 2.01539E-32
3.08658E-01 1.96038E-32
3.12697E-01 1.95356E-32
3.16749E-01 1.98174E-32
3.20816E-01 2.03384E-32
3.24896E-01 2.10070E-32
3.28990E-01 2.17481E-32
3.33097E-01 2.25015E-32
3.37216E-01 2.32198E-32
3.41348E-01 2.38668E-32
3.45492E-01 2.44157E-32
3.49647E-01 2.48480E-32
3.53814E-01 2.51520E-32
3.57992E-01 2.53217E-32
3.62181E-01 2.53557E-32
3.66381E-01 2.52564E-32
3.70590E-01 2.50293E-32
3.74810E-01 2.46821E-32
3.79039E-01 2.42241E-32
3.83277E-01 2.36658E-32
3.87524E-01 2.30185E-32
3.91780E-01 2.22940E-32
3.96044E-01 2.15039E-32
4.00316E-01 2.06597E-32
4.04596E-01 1.97727E-32
4.08882E-01 1.88535E-32
4.13176E-01 1.79122E-32
4.17476E-01 1.69579E-32
4.21783E-01 1.59993E-32
4.26095E-01 1.50440E-32
4.30413E-01 1.40989E-32
4.34737E-01 1.31701E-32
4.39065E-01 1.22629E-32
4.43398E-01 1.13817E-32
4.47736E-01 1.05304E-32
4.52077E-01 9.71194E-33
4.56422E-01 8.92882E-33
4.60770E-01 8.18284E-33
4.65122E-01 7.47531E-33
4.69476E-01 6.80704E-33
4.73832E-01 6.17837E-33
4.78190E-01 5.58928E-33
4.82550E-01 5.03939E-33
4.86912E-01 4.52805E-33
4.91274E-01 4.05432E-33
4.95637E-01 3.61708E-33
5.00000E-01 3.21503E-33
5.04363E-01 2.84672E-33
5.08726E-01 2.51062E-33
5.13088E-01 2.20508E-33
5.17450E-01 1.92844E-33
5.21810E-01 1.67898E-33
5.26168E-01 1.45498E-33
5.30524E-01 1.25474E-33
5.34878E-01 1.07656E-33
5.39230E-01 9.18792E-34
5.43578E-01 7.79835E-34
5.47923E-01 6.58132E-34
5.52264E-01 5.52198E-34
5.56602E-01 4.60612E-34
5.60935E-01 3.82019E-34
5.65263E-01 3.15148E-34
5.69587E-01 2.58797E-34
5.73905E-01 2.11843E-34
5.78217E-01 1.73240E-34
5.82524E-01 1.42013E-34
5.86824E-01 1.17266E-34
5.91118E-01 9.81723E-35
5.95404E-01 8.39741E-35
5.99684E-01 7.39813E-35
6.03956E-01 6.75662E-35
6.08220E-01 6.41624E-35
6.12476E-01 6.32595E-35
6.16723E-01 6.44010E-35
6.20961E-01 6.71807E-35
6.25190E-01 7.12386E-35
6.29410E-01 7.62579E-35
6.33619E-01 8.19616E-35
6.37819E-01 8.81104E-35
6.42008E-01 9.44974E-35
6.46186E-01 1.00946E-34
6.50353E-01 1.07310E-34
6.54508E-01 1.13464E-34
6.58652E-01 1.19309E-34
6.62784E-01 1.24763E-34
6.66903E-01 1.29766E-34
6.71010E-01 1.34268E-34
6.75104E-01 1.38239E-34
6.79184E-01 1.41655E-34
6.83251E-01 1.44507E-34
6.87303E-01 1.46796E-34
6.91342E-01 1.48524E-34
6.95366E-01 1.49707E-34
6.99375E-01 1.50360E-34
7.03368E-01 1.50507E-34
7.07347E-01 1.50174E-34
7.11309E-01 1.49388E-34
7.15256E-01 1.48179E-34
7.19186E-01 1.46579E-34
7.23099E-01 1.44619E-34
7.26995E-01 1.42332E-34
7.30874E-01 1.39751E-34
7.34736E-01 1.36908E-34
7.38579E-01 1.33832E-34
7.42405E-01 1.30555E-34
7.46212E-01 1.27105E-34
7.50000E-01 1.23510E-34
7.53769E-01 1.19797E-34
7.57519E-01 1.15990E-34
7.61249E-01 1.12113E-34
7.64960E-01 1.08187E-34
7.68650E-01 1.04233E-34
7.72320E-01 1.00268E-34
7.75968E-01 9.63111E-35
7.79596E-01 9.23758E-35
7.83203E-01 8.84769E-35
7.86788E-01 8.46265E-35
7.90351E-01 8.08364E-35
7.93893E-01 7.71165E-35
7.97411E-01 7.34737E-35
8.00908E-01 6.99175E-35
8.04381E-01 6.64533E-35
8.07831E-01 6.30858E-35
8.11257E-01 5.98201E-35
8.14660E-01 5.66593E-35
8.18039E-01 5.36064E-35
8.21394E-01 5.06619E-35
8.24724E-01 4.78286E-35
8.28030E-01 4.51059E-35
8.31310E-01 4.24940E-35
8.34565E-01 3.99924E-35
8.37795E-01 3.76000E-35
8.40999E-01 3.53157E-35
8.44177E-01 3.31383E-35
8.47329E-01 3.10645E-35
8.50455E-01 2.90919E-35
8.53553E-01 2.72193E-35
8.56625E-01 2.54429E-35
8.59670E-01 2.37603E-35
8.62687E-01 2.21687E-35
8.65677E-01 2.06638E-35
8.68639E-01 1.92437E-35
8.71572E-01 1.79052E-35
8.74478E-01 1.66445E-35
8.77355E-01 1.54581E-35
8.80203E-01 1.43436E-35
8.83022E-01 1.32974E-35
8.85812E-01 1.23167E-35
8.88573E-01 1.13977E-35
8.91304E-01 1.05379E-35
8.94005E-01 9.73396E-36
8.96677E-01 8.98349E-36
8.99318E-01 8.28340E-36
9.01928E-01 7.63083E-36
9.04508E-01 7.02326E-36
9.07058E-01 6.45837E-36
9.09576E-01 5.93339E-36
9.12063E-01 5.44578E-36
9.14519E-01 4.99392E-36
9.16943E-01 4.57510E-36
9.19335E-01 4.18770E-36
9.21696E-01 3.82916E-36
9.24024E-01 3.49837E-36
9.26320E-01 3.19271E-36
9.28584E-01 2.91107E-36
9.30815E-01 2.65154E-36
9.33013E-01 2.41308E-36
9.35178E-01 2.19363E-36
9.37310E-01 1.99228E-36
9.39409E-01 1.80746E-36
9.41474E-01 1.63823E-36
9.43505E-01 1.48327E-36
9.45503E-01 1.34158E-36
9.47467E-01 1.21208E-36
9.49397E-01 1.09390E-36
9.51293E-01 9.86311E-37
9.53154E-01 8.88222E-37
9.54981E-01 7.98957E-37
9.56773E-01 7.17934E-37
9.58530E-01 6.44359E-37
9.60252E-01 5.77721E-37
9.61940E-01 5.17306E-37
9.63592E-01 4.62796E-37
9.65209E-01 4.13426E-37
9.66790E-01 3.68939E-37
9.68336E-01 3.28851E-37
9.69846E-01 2.92707E-37
9.71321E-01 2.60243E-37
9.72759E-01 2.31104E-37
9.74162E-01 2.04923E-37
9.75528E-01 1.81523E-37
9.76858E-01 1.60563E-37
9.78152E-01 1.41855E-37
9.79410E-01 1.25128E-37
9.80631E-01 1.10225E-37
9.81815E-01 9.69717E-38
9.82963E-01 8.51582E-38
9.84074E-01 7.46893E-38
9.85148E-01 6.53883E-38
9.86185E-01 5.71654E-38
9.87185E-01 4.98929E-38
9.88148E-01 4.34444E-38
9.89074E-01 3.77600E-38
9.89962E-01 3.27600E-38
9.90814E-01 2.83500E-38
9.91627E-01 2.44643E-38
9.92404E-01 2.10344E-38
9.93143E-01 1.80634E-38
9.93844E-01 1.54389E-38
9.94508E-01 1.31404E-38
9.95134E-01 1.11339E-38
9.95722E-01 9.36413E-39
9.96273E-01 7.83374E-39
9.96786E-01 6.51177E-39
9.97261E-01 5.34879E-39
9.97698E-01 4.36128E-39
9.98097E-01 3.48628E-39
9.98459E-01 2.75311E-39
9.98782E-01 2.12413E-39
9.99067E-01 1.59088E-39
9.99315E-01 1.14466E-39
9.99524E-01 7.83160E-40
9.99695E-01 4.97412E-40
9.99829E-01 2.75631E-40
9.99924E-01 1.23112E-40
9.99981E-01 3.32643E-41
1.00000E+00 3.72438E-42
