 #
 # Subroutine ELSEPA. Elastic scattering of electrons and positrons
 #                    by neutral atoms and positive ions
 #
 # Projectile: positron
 # Kinetic energy = 1.00000E+09 eV = 3.67493E+07 a.u.
 #
 # WARNING: High-energy factorization with free-atom DF screening.
 #          Absorption, polarization and exchange corrections are
 #          switched off.
 #          Phase shifts are calculated for the bare nucleus.
 #          Scattering amplitudes are not evaluated.
 #
 # Element: Sr,  Z =  38,  atomic weight = 8.76200E+01 g/mol
 #
 # Nuclear model: Fermi distribution
 #                Average radius = 4.75246E-13 cm
 #                Skin thickness = 5.46000E-14 cm
 #
 # Number of electrons = 38
 #
 # Total elastic cross section = 3.65724E-18 cm**2 = 1.30602E-01 a0**2
 # 1st transport cross section = 2.89446E-27 cm**2 = 1.03363E-10 a0**2
 # 2nd transport cross section = 8.68245E-27 cm**2 = 3.10056E-10 a0**2
 #
 #
 # Differential cross section:                       MU=(1-COS(THETA))/2
 #
 #  THETA        MU          DCS          DCS        Sherman      error
 #  (deg)                 (cm**2/sr)   (a0**2/sr)    function
 #----------------------------------------------------------------------
0.00000E+00 6.48914E-08
7.61557E-13 3.95320E-08
1.18994E-12 3.16019E-08
1.71346E-12 2.50432E-08
2.33225E-12 1.99154E-08
3.04617E-12 1.60060E-08
3.85530E-12 1.30504E-08
4.75964E-12 1.08047E-08
5.75917E-12 9.07480E-09
6.85391E-12 7.71771E-09
8.04379E-12 6.63033E-09
9.32893E-12 5.74263E-09
1.07092E-11 5.00626E-09
1.21847E-11 4.38715E-09
1.37554E-11 3.86098E-09
1.54213E-11 3.40922E-09
1.71823E-11 3.01975E-09
1.90386E-11 2.68242E-09
2.09900E-11 2.38920E-09
2.30367E-11 2.13258E-09
2.51785E-11 1.89657E-09
2.74156E-11 1.69678E-09
2.97478E-11 1.52663E-09
3.21752E-11 1.38089E-09
3.46979E-11 1.25537E-09
3.73157E-11 1.13898E-09
4.00286E-11 1.03293E-09
4.28368E-11 9.40761E-10
4.57402E-11 8.60295E-10
4.87388E-11 7.89740E-10
5.18325E-11 7.27167E-10
5.50215E-11 6.67795E-10
5.83057E-11 6.15298E-10
6.16850E-11 5.68713E-10
6.51595E-11 5.27233E-10
6.87293E-11 4.90177E-10
7.23943E-11 4.55570E-10
7.61544E-11 4.23675E-10
1.18991E-10 2.24340E-10
1.71347E-10 1.29675E-10
2.33223E-10 7.88936E-11
3.04617E-10 5.00271E-11
3.85531E-10 3.29210E-11
4.75965E-10 2.24314E-11
5.75917E-10 1.57884E-11
6.85389E-10 1.14364E-11
8.04380E-10 8.50367E-12
9.32891E-10 6.46769E-12
1.07092E-09 5.01465E-12
1.21847E-09 3.95232E-12
1.37554E-09 3.15955E-12
1.54213E-09 2.55713E-12
1.71823E-09 2.09226E-12
1.90386E-09 1.72837E-12
2.09900E-09 1.43993E-12
2.30367E-09 1.20877E-12
2.51785E-09 1.02112E-12
2.74156E-09 8.69438E-13
2.97478E-09 7.43849E-13
3.21752E-09 6.40401E-13
3.46978E-09 5.53942E-13
3.73156E-09 4.81543E-13
4.00286E-09 4.20516E-13
4.28368E-09 3.68738E-13
4.57402E-09 3.24712E-13
4.87388E-09 2.86940E-13
5.18326E-09 2.54559E-13
5.50215E-09 2.26526E-13
5.83057E-09 2.02294E-13
6.16850E-09 1.81165E-13
6.51596E-09 1.62745E-13
6.87293E-09 1.46591E-13
7.23942E-09 1.32397E-13
7.61544E-09 1.19880E-13
1.18991E-08 4.98869E-14
1.71347E-08 2.43484E-14
2.33223E-08 1.32669E-14
3.04617E-08 7.83358E-15
3.85531E-08 4.91800E-15
4.75965E-08 3.24060E-15
5.75917E-08 2.22074E-15
6.85389E-08 1.57204E-15
8.04380E-08 1.14365E-15
9.32891E-08 8.51626E-16
1.07092E-07 6.47069E-16
1.21847E-07 5.00361E-16
1.37554E-07 3.92945E-16
1.54213E-07 3.12850E-16
1.71823E-07 2.52150E-16
1.90386E-07 2.05475E-16
2.09900E-07 1.69112E-16
2.30367E-07 1.40445E-16
2.51785E-07 1.17601E-16
2.74156E-07 9.92164E-17
2.97478E-07 8.42867E-17
3.21752E-07 7.20617E-17
3.46978E-07 6.19742E-17
3.73156E-07 5.35911E-17
4.00286E-07 4.65784E-17
4.28368E-07 4.06758E-17
4.57402E-07 3.56791E-17
4.87388E-07 3.14264E-17
5.18325E-07 2.77888E-17
5.50215E-07 2.46625E-17
5.83057E-07 2.19636E-17
6.16850E-07 1.96239E-17
6.51596E-07 1.75876E-17
6.87293E-07 1.58087E-17
7.23942E-07 1.42491E-17
7.61543E-07 1.28771E-17
1.18991E-06 5.27519E-18
1.71347E-06 2.54397E-18
2.33223E-06 1.37309E-18
3.04617E-06 8.04799E-19
3.85531E-06 5.02377E-19
4.75964E-06 3.29569E-19
5.75916E-06 2.25071E-19
6.85388E-06 1.58894E-19
8.04378E-06 1.15345E-19
9.32888E-06 8.57435E-20
1.07092E-05 6.50562E-20
1.21846E-05 5.02471E-20
1.37553E-05 3.94216E-20
1.54212E-05 3.13601E-20
1.71822E-05 2.52575E-20
1.90385E-05 2.05660E-20
2.09899E-05 1.69207E-20
2.30365E-05 1.40476E-20
2.51783E-05 1.17580E-20
2.74153E-05 9.91551E-21
2.97475E-05 8.41960E-21
3.21749E-05 7.19531E-21
3.46974E-05 6.18581E-21
3.73152E-05 5.34752E-21
4.00281E-05 4.64672E-21
4.28362E-05 4.05711E-21
4.57395E-05 3.55809E-21
4.87380E-05 3.13339E-21
5.18317E-05 2.77010E-21
5.50205E-05 2.45787E-21
5.83045E-05 2.18838E-21
6.16838E-05 1.95483E-21
6.51582E-05 1.75163E-21
6.87277E-05 1.57418E-21
7.23925E-05 1.41865E-21
7.61524E-05 1.25274E-21
9.21439E-05 8.49214E-22
1.09658E-04 5.94509E-22
1.28695E-04 4.27574E-22
1.49255E-04 3.14576E-22
1.71338E-04 2.36007E-22
1.94942E-04 1.80063E-22
2.20070E-04 1.39412E-22
2.46720E-04 1.09340E-22
2.74892E-04 8.67343E-23
3.04586E-04 6.95030E-23
3.35803E-04 5.61993E-23
3.68542E-04 4.58119E-23
4.02802E-04 3.76174E-23
4.38585E-04 3.10926E-23
4.75889E-04 2.58532E-23
5.14715E-04 2.16133E-23
5.55063E-04 1.81581E-23
5.96931E-04 1.53239E-23
6.40321E-04 1.29852E-23
6.85233E-04 1.10449E-23
7.31665E-04 9.42687E-24
7.79618E-04 8.07130E-24
8.29092E-04 6.93064E-24
8.80086E-04 5.96701E-24
9.32601E-04 5.14987E-24
9.86636E-04 4.45457E-24
1.04219E-03 3.86105E-24
1.09927E-03 3.35289E-24
1.15786E-03 2.91662E-24
1.21797E-03 2.54110E-24
1.27961E-03 2.21710E-24
1.34276E-03 1.93693E-24
1.40743E-03 1.69416E-24
1.47362E-03 1.48340E-24
1.54133E-03 1.30010E-24
1.61056E-03 1.14043E-24
1.68131E-03 1.00113E-24
1.75357E-03 8.79435E-25
1.82735E-03 7.72981E-25
1.90265E-03 6.79750E-25
1.97947E-03 5.98013E-25
2.05780E-03 5.26284E-25
2.13765E-03 4.63282E-25
2.21902E-03 4.07902E-25
2.30190E-03 3.59186E-25
2.38630E-03 3.16308E-25
2.47222E-03 2.78546E-25
2.55965E-03 2.45276E-25
2.64859E-03 2.15950E-25
2.73905E-03 1.90095E-25
2.83103E-03 1.67293E-25
2.92452E-03 1.47180E-25
3.01952E-03 1.29439E-25
3.11604E-03 1.13787E-25
3.21407E-03 9.99801E-26
3.31362E-03 8.78016E-26
3.41468E-03 7.70612E-26
3.51725E-03 6.75913E-26
3.62133E-03 5.92440E-26
3.72692E-03 5.18889E-26
3.83403E-03 4.54107E-26
3.94265E-03 3.97077E-26
4.05278E-03 3.46899E-26
4.16442E-03 3.02778E-26
4.27757E-03 2.64008E-26
4.39223E-03 2.29967E-26
4.50840E-03 2.00102E-26
4.62608E-03 1.73925E-26
4.74527E-03 1.51003E-26
4.86597E-03 1.30951E-26
4.98817E-03 1.13431E-26
5.11188E-03 9.81400E-27
5.23711E-03 8.48127E-27
5.36383E-03 7.32125E-27
5.49207E-03 6.31303E-27
5.62181E-03 5.43809E-27
5.75306E-03 4.68007E-27
5.88581E-03 4.02448E-27
6.02007E-03 3.45851E-27
6.15583E-03 2.97086E-27
6.29310E-03 2.55155E-27
6.43187E-03 2.19177E-27
6.57214E-03 1.88376E-27
6.71392E-03 1.62069E-27
6.85720E-03 1.39654E-27
7.00198E-03 1.20606E-27
7.14827E-03 1.04459E-27
7.29605E-03 9.08084E-28
7.44534E-03 7.92997E-28
7.59612E-03 6.96225E-28
7.97965E-03 5.17556E-28
8.37255E-03 4.04018E-28
8.77480E-03 3.32341E-28
9.18641E-03 2.86614E-28
9.60736E-03 2.56209E-28
1.00376E-02 2.34242E-28
1.04773E-02 2.16440E-28
1.09262E-02 2.00315E-28
1.13844E-02 1.84565E-28
1.18520E-02 1.68646E-28
1.23288E-02 1.52476E-28
1.28150E-02 1.36222E-28
1.33104E-02 1.20171E-28
1.38150E-02 1.04634E-28
1.43290E-02 8.98985E-29
1.48521E-02 7.61974E-29
1.53845E-02 6.36984E-29
1.59262E-02 5.25023E-29
1.64770E-02 4.26486E-29
1.70371E-02 3.41246E-29
1.76063E-02 2.68759E-29
1.81848E-02 2.08170E-29
1.87724E-02 1.58413E-29
1.93692E-02 1.18300E-29
1.99751E-02 8.65958E-30
2.05901E-02 6.20743E-30
2.12143E-02 4.35645E-30
2.18476E-02 2.99820E-30
2.24900E-02 2.03490E-30
2.31415E-02 1.38054E-30
2.38021E-02 9.61203E-31
2.44717E-02 7.14806E-31
2.51504E-02 5.90434E-31
2.58382E-02 5.47378E-31
2.65349E-02 5.54000E-31
2.72407E-02 5.86523E-31
2.79555E-02 6.27806E-31
2.86793E-02 6.66176E-31
2.94120E-02 6.94339E-31
3.01537E-02 7.08395E-31
3.09043E-02 7.06986E-31
3.16639E-02 6.90563E-31
3.24324E-02 6.60782E-31
3.32098E-02 6.20014E-31
3.39961E-02 5.70966E-31
3.47912E-02 5.16396E-31
3.55952E-02 4.58912E-31
3.64081E-02 4.00831E-31
3.72297E-02 3.44111E-31
3.80602E-02 2.90306E-31
3.88995E-02 2.40574E-31
3.97476E-02 1.95693E-31
4.06044E-02 1.56105E-31
4.14700E-02 1.21961E-31
4.23443E-02 9.31753E-32
4.32273E-02 6.94784E-32
4.41190E-02 5.04665E-32
4.50194E-02 3.56478E-32
4.59284E-02 2.44817E-32
4.68461E-02 1.64122E-32
4.87074E-02 7.41389E-33
5.06030E-02 4.74553E-33
5.25328E-02 5.33473E-33
5.44967E-02 7.04613E-33
5.64946E-02 8.59977E-33
5.85262E-02 9.39284E-33
6.05914E-02 9.29201E-33
6.26901E-02 8.44065E-33
6.48222E-02 7.10496E-33
6.69873E-02 5.56674E-33
6.91854E-02 4.06045E-33
7.14163E-02 2.74580E-33
7.36799E-02 1.70561E-33
7.59760E-02 9.58374E-34
7.83043E-02 4.77433E-34
8.06647E-02 2.10669E-34
8.30571E-02 9.71631E-35
8.54812E-02 7.91656E-35
8.79369E-02 1.09218E-34
9.04240E-02 1.53079E-34
9.29422E-02 1.89580E-34
9.54915E-02 2.08570E-34
9.80716E-02 2.07987E-34
1.00682E-01 1.90834E-34
1.03323E-01 1.62556E-34
1.05995E-01 1.29070E-34
1.08696E-01 9.54989E-35
1.11427E-01 6.55359E-35
1.14188E-01 4.12968E-35
1.16978E-01 2.34944E-35
1.19797E-01 1.17831E-35
1.22645E-01 5.15503E-36
1.25522E-01 2.30278E-36
1.28428E-01 1.90378E-36
1.31361E-01 2.80949E-36
1.34323E-01 4.14374E-36
1.37313E-01 5.32738E-36
1.40330E-01 6.05118E-36
1.43375E-01 6.21921E-36
1.46447E-01 5.88162E-36
1.49545E-01 5.17020E-36
1.52671E-01 4.24550E-36
1.55823E-01 3.25905E-36
1.59001E-01 2.33103E-36
1.62205E-01 1.54083E-36
1.65435E-01 9.27665E-37
1.68690E-01 4.97111E-37
1.71970E-01 2.30654E-37
1.75276E-01 9.57494E-38
1.78606E-01 5.45878E-38
1.81961E-01 7.08359E-38
1.85340E-01 1.13948E-37
1.88743E-01 1.61313E-37
1.92169E-01 1.98560E-37
1.95619E-01 2.18644E-37
1.99092E-01 2.20215E-37
2.02589E-01 2.05727E-37
2.06107E-01 1.79718E-37
2.09649E-01 1.47327E-37
2.13212E-01 1.13320E-37
2.16797E-01 8.14469E-38
2.20404E-01 5.42258E-38
2.24032E-01 3.29448E-38
2.27680E-01 1.00000E-45
2.31350E-01 1.00000E-45
2.35040E-01 1.00000E-45
2.38751E-01 1.00000E-45
2.42481E-01 1.00000E-45
2.46231E-01 1.00000E-45
2.50000E-01 1.00000E-45
2.53788E-01 1.00000E-45
2.57595E-01 1.00000E-45
2.61421E-01 1.00000E-45
2.65264E-01 1.00000E-45
2.69126E-01 1.00000E-45
2.73005E-01 1.00000E-45
2.76901E-01 1.00000E-45
2.80814E-01 1.00000E-45
2.84744E-01 1.00000E-45
2.88691E-01 1.00000E-45
2.92653E-01 1.00000E-45
2.96632E-01 1.00000E-45
3.00625E-01 1.00000E-45
3.04634E-01 1.00000E-45
3.08658E-01 1.00000E-45
3.12697E-01 1.00000E-45
3.16749E-01 1.00000E-45
3.20816E-01 1.00000E-45
3.24896E-01 1.00000E-45
3.28990E-01 1.00000E-45
3.33097E-01 1.00000E-45
3.37216E-01 1.00000E-45
3.41348E-01 1.00000E-45
3.45492E-01 1.00000E-45
3.49647E-01 1.00000E-45
3.53814E-01 1.00000E-45
3.57992E-01 1.00000E-45
3.62181E-01 1.00000E-45
3.66381E-01 1.00000E-45
3.70590E-01 1.00000E-45
3.74810E-01 1.00000E-45
3.79039E-01 1.00000E-45
3.83277E-01 1.00000E-45
3.87524E-01 1.00000E-45
3.91780E-01 1.00000E-45
3.96044E-01 1.00000E-45
4.00316E-01 1.00000E-45
4.04596E-01 1.00000E-45
4.08882E-01 1.00000E-45
4.13176E-01 1.00000E-45
4.17476E-01 1.00000E-45
4.21783E-01 1.00000E-45
4.26095E-01 1.00000E-45
4.30413E-01 1.00000E-45
4.34737E-01 1.00000E-45
4.39065E-01 1.00000E-45
4.43398E-01 1.00000E-45
4.47736E-01 1.00000E-45
4.52077E-01 1.00000E-45
4.56422E-01 1.00000E-45
4.60770E-01 1.00000E-45
4.65122E-01 1.00000E-45
4.69476E-01 1.00000E-45
4.73832E-01 1.00000E-45
4.78190E-01 1.00000E-45
4.82550E-01 1.00000E-45
4.86912E-01 1.00000E-45
4.91274E-01 1.00000E-45
4.95637E-01 1.00000E-45
5.00000E-01 1.00000E-45
5.04363E-01 1.00000E-45
5.08726E-01 1.00000E-45
5.13088E-01 1.00000E-45
5.17450E-01 1.00000E-45
5.21810E-01 1.00000E-45
5.26168E-01 1.00000E-45
5.30524E-01 1.00000E-45
5.34878E-01 1.00000E-45
5.39230E-01 1.00000E-45
5.43578E-01 1.00000E-45
5.47923E-01 1.00000E-45
5.52264E-01 1.00000E-45
5.56602E-01 1.00000E-45
5.60935E-01 1.00000E-45
5.65263E-01 1.00000E-45
5.69587E-01 1.00000E-45
5.73905E-01 1.00000E-45
5.78217E-01 1.00000E-45
5.82524E-01 1.00000E-45
5.86824E-01 1.00000E-45
5.91118E-01 1.00000E-45
5.95404E-01 1.00000E-45
5.99684E-01 1.00000E-45
6.03956E-01 1.00000E-45
6.08220E-01 1.00000E-45
6.12476E-01 1.00000E-45
6.16723E-01 1.00000E-45
6.20961E-01 1.00000E-45
6.25190E-01 1.00000E-45
6.29410E-01 1.00000E-45
6.33619E-01 1.00000E-45
6.37819E-01 1.00000E-45
6.42008E-01 1.00000E-45
6.46186E-01 1.00000E-45
6.50353E-01 1.00000E-45
6.54508E-01 1.00000E-45
6.58652E-01 1.00000E-45
6.62784E-01 1.00000E-45
6.66903E-01 1.00000E-45
6.71010E-01 1.00000E-45
6.75104E-01 1.00000E-45
6.79184E-01 1.00000E-45
6.83251E-01 1.00000E-45
6.87303E-01 1.00000E-45
6.91342E-01 1.00000E-45
6.95366E-01 1.00000E-45
6.99375E-01 1.00000E-45
7.03368E-01 1.00000E-45
7.07347E-01 1.00000E-45
7.11309E-01 1.00000E-45
7.15256E-01 1.00000E-45
7.19186E-01 1.00000E-45
7.23099E-01 1.00000E-45
7.26995E-01 1.00000E-45
7.30874E-01 1.00000E-45
7.34736E-01 1.00000E-45
7.38579E-01 1.00000E-45
7.42405E-01 1.00000E-45
7.46212E-01 1.00000E-45
7.50000E-01 1.00000E-45
7.53769E-01 1.00000E-45
7.57519E-01 1.00000E-45
7.61249E-01 1.00000E-45
7.64960E-01 1.00000E-45
7.68650E-01 1.00000E-45
7.72320E-01 1.00000E-45
7.75968E-01 1.00000E-45
7.79596E-01 1.00000E-45
7.83203E-01 1.00000E-45
7.86788E-01 1.00000E-45
7.90351E-01 1.00000E-45
7.93893E-01 1.00000E-45
7.97411E-01 1.00000E-45
8.00908E-01 1.00000E-45
8.04381E-01 1.00000E-45
8.07831E-01 1.00000E-45
8.11257E-01 1.00000E-45
8.14660E-01 1.00000E-45
8.18039E-01 1.00000E-45
8.21394E-01 1.00000E-45
8.24724E-01 1.00000E-45
8.28030E-01 1.00000E-45
8.31310E-01 1.00000E-45
8.34565E-01 1.00000E-45
8.37795E-01 1.00000E-45
8.40999E-01 1.00000E-45
8.44177E-01 1.00000E-45
8.47329E-01 1.00000E-45
8.50455E-01 1.00000E-45
8.53553E-01 1.00000E-45
8.56625E-01 1.00000E-45
8.59670E-01 1.00000E-45
8.62687E-01 1.00000E-45
8.65677E-01 1.00000E-45
8.68639E-01 1.00000E-45
8.71572E-01 1.00000E-45
8.74478E-01 1.00000E-45
8.77355E-01 1.00000E-45
8.80203E-01 1.00000E-45
8.83022E-01 1.00000E-45
8.85812E-01 1.00000E-45
8.88573E-01 1.00000E-45
8.91304E-01 1.00000E-45
8.94005E-01 1.00000E-45
8.96677E-01 1.00000E-45
8.99318E-01 1.00000E-45
9.01928E-01 1.00000E-45
9.04508E-01 1.00000E-45
9.07058E-01 1.00000E-45
9.09576E-01 1.00000E-45
9.12063E-01 1.00000E-45
9.14519E-01 1.00000E-45
9.16943E-01 1.00000E-45
9.19335E-01 1.00000E-45
9.21696E-01 1.00000E-45
9.24024E-01 1.00000E-45
9.26320E-01 1.00000E-45
9.28584E-01 1.00000E-45
9.30815E-01 1.00000E-45
9.33013E-01 1.00000E-45
9.35178E-01 1.00000E-45
9.37310E-01 1.00000E-45
9.39409E-01 1.00000E-45
9.41474E-01 1.00000E-45
9.43505E-01 1.00000E-45
9.45503E-01 1.00000E-45
9.47467E-01 1.00000E-45
9.49397E-01 1.00000E-45
9.51293E-01 1.00000E-45
9.53154E-01 1.00000E-45
9.54981E-01 1.00000E-45
9.56773E-01 1.00000E-45
9.58530E-01 1.00000E-45
9.60252E-01 1.00000E-45
9.61940E-01 1.00000E-45
9.63592E-01 1.00000E-45
9.65209E-01 1.00000E-45
9.66790E-01 1.00000E-45
9.68336E-01 1.00000E-45
9.69846E-01 1.00000E-45
9.71321E-01 1.00000E-45
9.72759E-01 1.00000E-45
9.74162E-01 1.00000E-45
9.75528E-01 1.00000E-45
9.76858E-01 1.00000E-45
9.78152E-01 1.00000E-45
9.79410E-01 1.00000E-45
9.80631E-01 1.00000E-45
9.81815E-01 1.00000E-45
9.82963E-01 1.00000E-45
9.84074E-01 1.00000E-45
9.85148E-01 1.00000E-45
9.86185E-01 1.00000E-45
9.87185E-01 1.00000E-45
9.88148E-01 1.00000E-45
9.89074E-01 1.00000E-45
9.89962E-01 1.00000E-45
9.90814E-01 1.00000E-45
9.91627E-01 1.00000E-45
9.92404E-01 1.00000E-45
9.93143E-01 1.00000E-45
9.93844E-01 1.00000E-45
9.94508E-01 1.00000E-45
9.95134E-01 1.00000E-45
9.95722E-01 1.00000E-45
9.96273E-01 1.00000E-45
9.96786E-01 1.00000E-45
9.97261E-01 1.00000E-45
9.97698E-01 1.00000E-45
9.98097E-01 1.00000E-45
9.98459E-01 1.00000E-45
9.98782E-01 1.00000E-45
9.99067E-01 1.00000E-45
9.99315E-01 1.00000E-45
9.99524E-01 1.00000E-45
9.99695E-01 1.00000E-45
9.99829E-01 1.00000E-45
9.99924E-01 1.00000E-45
9.99981E-01 1.00000E-45
1.00000E+00 1.00000E-45
