 #
 # Subroutine ELSEPA. Elastic scattering of electrons and positrons
 #                    by neutral atoms and positive ions
 #
 # Projectile: positron
 # Kinetic energy = 6.00000E+08 eV = 2.20496E+07 a.u.
 #
 # WARNING: High-energy factorization with free-atom DF screening.
 #          Absorption, polarization and exchange corrections are
 #          switched off.
 #          Phase shifts are calculated for the bare nucleus.
 #          Scattering amplitudes are not evaluated.
 #
 # Element: Sr,  Z =  38,  atomic weight = 8.76200E+01 g/mol
 #
 # Nuclear model: Fermi distribution
 #                Average radius = 4.75246E-13 cm
 #                Skin thickness = 5.46000E-14 cm
 #
 # Number of electrons = 38
 #
 # Total elastic cross section = 3.74084E-18 cm**2 = 1.33588E-01 a0**2
 # 1st transport cross section = 8.02152E-27 cm**2 = 2.86454E-10 a0**2
 # 2nd transport cross section = 2.40572E-26 cm**2 = 8.59099E-10 a0**2
 #
 #
 # Differential cross section:                       MU=(1-COS(THETA))/2
 #
 #  THETA        MU          DCS          DCS        Sherman      error
 #  (deg)                 (cm**2/sr)   (a0**2/sr)    function
 #----------------------------------------------------------------------
0.00000E+00 2.33768E-08
7.61557E-13 1.92308E-08
1.18994E-12 1.73819E-08
1.71346E-12 1.54803E-08
2.33225E-12 1.36337E-08
3.04617E-12 1.19172E-08
3.85530E-12 1.03729E-08
4.75964E-12 9.01730E-09
5.75917E-12 7.84946E-09
6.85391E-12 6.85539E-09
8.04379E-12 6.01289E-09
9.32893E-12 5.30071E-09
1.07092E-11 4.69851E-09
1.21847E-11 4.18783E-09
1.37554E-11 3.75274E-09
1.54213E-11 3.37984E-09
1.71823E-11 3.05809E-09
1.90386E-11 2.77849E-09
2.09900E-11 2.53378E-09
2.30367E-11 2.31803E-09
2.51785E-11 2.12655E-09
2.74156E-11 1.95562E-09
2.97478E-11 1.80224E-09
3.21752E-11 1.66399E-09
3.46979E-11 1.53886E-09
3.73157E-11 1.42523E-09
4.00286E-11 1.32174E-09
4.28368E-11 1.22724E-09
4.57402E-11 1.14077E-09
4.87388E-11 1.06148E-09
5.18325E-11 9.88595E-10
5.50215E-11 9.21612E-10
5.83057E-11 8.59990E-10
6.16850E-11 8.03242E-10
6.51595E-11 7.49393E-10
6.87293E-11 6.98478E-10
7.23943E-11 6.52438E-10
7.61544E-11 6.10715E-10
1.18991E-10 3.38588E-10
1.71347E-10 2.04682E-10
2.33223E-10 1.32855E-10
3.04617E-10 9.08031E-11
3.85531E-10 6.42990E-11
4.75965E-10 4.66667E-11
5.75917E-10 3.44782E-11
6.85389E-10 2.58522E-11
8.04380E-10 1.96647E-11
9.32891E-10 1.51626E-11
1.07092E-09 1.18449E-11
1.21847E-09 9.37065E-12
1.37554E-09 7.50339E-12
1.54213E-09 6.07817E-12
1.71823E-09 4.97601E-12
1.90386E-09 4.11470E-12
2.09900E-09 3.43465E-12
2.30367E-09 2.89179E-12
2.51785E-09 2.45398E-12
2.74156E-09 2.09737E-12
2.97478E-09 1.80421E-12
3.21752E-09 1.56119E-12
3.46978E-09 1.35821E-12
3.73156E-09 1.18750E-12
4.00286E-09 1.04302E-12
4.28368E-09 9.20018E-13
4.57402E-09 8.14708E-13
4.87388E-09 7.24061E-13
5.18326E-09 6.45629E-13
5.50215E-09 5.77491E-13
5.83057E-09 5.18056E-13
6.16850E-09 4.66020E-13
6.51596E-09 4.20174E-13
6.87293E-09 3.79731E-13
7.23942E-09 3.44173E-13
7.61544E-09 3.12802E-13
1.18991E-08 1.32657E-13
1.71347E-08 6.51746E-14
2.33223E-08 3.56103E-14
3.04617E-08 2.10715E-14
3.85531E-08 1.32593E-14
4.75965E-08 8.75914E-15
5.75917E-08 6.01814E-15
6.85389E-08 4.27085E-15
8.04380E-08 3.11426E-15
9.32891E-08 2.32399E-15
1.07092E-07 1.76915E-15
1.21847E-07 1.37032E-15
1.37554E-07 1.07774E-15
1.54213E-07 8.59170E-16
1.71823E-07 6.93258E-16
1.90386E-07 5.65488E-16
2.09900E-07 4.65816E-16
2.30367E-07 3.87148E-16
2.51785E-07 3.24392E-16
2.74156E-07 2.73839E-16
2.97478E-07 2.32753E-16
3.21752E-07 1.99086E-16
3.46978E-07 1.71286E-16
3.73156E-07 1.48170E-16
4.00286E-07 1.28822E-16
4.28368E-07 1.12530E-16
4.57402E-07 9.87319E-17
4.87388E-07 8.69840E-17
5.18325E-07 7.69315E-17
5.50215E-07 6.82894E-17
5.83057E-07 6.08267E-17
6.16850E-07 5.43556E-17
6.51596E-07 4.87221E-17
6.87293E-07 4.37996E-17
7.23942E-07 3.94831E-17
7.61543E-07 3.56853E-17
1.18991E-06 1.46290E-17
1.71347E-06 7.05733E-18
2.33223E-06 3.80986E-18
3.04617E-06 2.23332E-18
3.85531E-06 1.39420E-18
4.75964E-06 9.14669E-19
5.75916E-06 6.24673E-19
6.85388E-06 4.41014E-19
8.04378E-06 3.20150E-19
9.32888E-06 2.37992E-19
1.07092E-05 1.80574E-19
1.21846E-05 1.39470E-19
1.37553E-05 1.09423E-19
1.54212E-05 8.70471E-20
1.71822E-05 7.01084E-20
1.90385E-05 5.70866E-20
2.09899E-05 4.69684E-20
2.30365E-05 3.89935E-20
2.51783E-05 3.26382E-20
2.74153E-05 2.75238E-20
2.97475E-05 2.33716E-20
3.21749E-05 1.99732E-20
3.46974E-05 1.71710E-20
3.73152E-05 1.48441E-20
4.00281E-05 1.28988E-20
4.28362E-05 1.12621E-20
4.57395E-05 9.87687E-21
4.87380E-05 8.69794E-21
5.18317E-05 7.68948E-21
5.50205E-05 6.82279E-21
5.83045E-05 6.07471E-21
6.16838E-05 5.42638E-21
6.51582E-05 4.86232E-21
6.87277E-05 4.36974E-21
7.23925E-05 3.93802E-21
7.61524E-05 3.54239E-21
9.21439E-05 2.41372E-21
1.09658E-04 1.69959E-21
1.28695E-04 1.23026E-21
1.49255E-04 9.11573E-22
1.71338E-04 6.89209E-22
1.94942E-04 5.30266E-22
2.20070E-04 4.14280E-22
2.46720E-04 3.28076E-22
2.74892E-04 2.62949E-22
3.04586E-04 2.13033E-22
3.35803E-04 1.74268E-22
3.68542E-04 1.43810E-22
4.02802E-04 1.19620E-22
4.38585E-04 1.00220E-22
4.75889E-04 8.45239E-23
5.14715E-04 7.17188E-23
5.55063E-04 6.11944E-23
5.96931E-04 5.24837E-23
6.40321E-04 4.52277E-23
6.85233E-04 3.91474E-23
7.31665E-04 3.40237E-23
7.79618E-04 2.96838E-23
8.29092E-04 2.59899E-23
8.80086E-04 2.28316E-23
9.32601E-04 2.01196E-23
9.86636E-04 1.77817E-23
1.04219E-03 1.57586E-23
1.09927E-03 1.40016E-23
1.15786E-03 1.24708E-23
1.21797E-03 1.11327E-23
1.27961E-03 9.95956E-24
1.34276E-03 8.92821E-24
1.40743E-03 8.01902E-24
1.47362E-03 7.21551E-24
1.54133E-03 6.50367E-24
1.61056E-03 5.87159E-24
1.68131E-03 5.30911E-24
1.75357E-03 4.80752E-24
1.82735E-03 4.35936E-24
1.90265E-03 3.95816E-24
1.97947E-03 3.59838E-24
2.05780E-03 3.27517E-24
2.13765E-03 2.98434E-24
2.21902E-03 2.72224E-24
2.30190E-03 2.48569E-24
2.38630E-03 2.27187E-24
2.47222E-03 2.07836E-24
2.55965E-03 1.90298E-24
2.64859E-03 1.74384E-24
2.73905E-03 1.59927E-24
2.83103E-03 1.46778E-24
2.92452E-03 1.34806E-24
3.01952E-03 1.23893E-24
3.11604E-03 1.13937E-24
3.21407E-03 1.04845E-24
3.31362E-03 9.65334E-25
3.41468E-03 8.89293E-25
3.51725E-03 8.19665E-25
3.62133E-03 7.55858E-25
3.72692E-03 6.97339E-25
3.83403E-03 6.43632E-25
3.94265E-03 5.94306E-25
4.05278E-03 5.48972E-25
4.16442E-03 5.07281E-25
4.27757E-03 4.68916E-25
4.39223E-03 4.33592E-25
4.50840E-03 4.01049E-25
4.62608E-03 3.71052E-25
4.74527E-03 3.43388E-25
4.86597E-03 3.17863E-25
4.98817E-03 2.94301E-25
5.11188E-03 2.72540E-25
5.23711E-03 2.52436E-25
5.36383E-03 2.33855E-25
5.49207E-03 2.16674E-25
5.62181E-03 2.00783E-25
5.75306E-03 1.86081E-25
5.88581E-03 1.72472E-25
6.02007E-03 1.59874E-25
6.15583E-03 1.48207E-25
6.29310E-03 1.37400E-25
6.43187E-03 1.27387E-25
6.57214E-03 1.18107E-25
6.71392E-03 1.09505E-25
6.85720E-03 1.01531E-25
7.00198E-03 9.41363E-26
7.14827E-03 8.72785E-26
7.29605E-03 8.09176E-26
7.44534E-03 7.50167E-26
7.59612E-03 6.95421E-26
7.97965E-03 5.75207E-26
8.37255E-03 4.75472E-26
8.77480E-03 3.92707E-26
9.18641E-03 3.24024E-26
9.60736E-03 2.67039E-26
1.00376E-02 2.19779E-26
1.04773E-02 1.80608E-26
1.09262E-02 1.48168E-26
1.13844E-02 1.21332E-26
1.18520E-02 9.91576E-27
1.23288E-02 8.08632E-27
1.28150E-02 6.57949E-27
1.33104E-02 5.34075E-27
1.38150E-02 4.32460E-27
1.43290E-02 3.49302E-27
1.48521E-02 2.81428E-27
1.53845E-02 2.26190E-27
1.59262E-02 1.81379E-27
1.64770E-02 1.45151E-27
1.70371E-02 1.15974E-27
1.76063E-02 9.25702E-28
1.81848E-02 7.38803E-28
1.87724E-02 5.90248E-28
1.93692E-02 4.72765E-28
1.99751E-02 3.80348E-28
2.05901E-02 3.08051E-28
2.12143E-02 2.51814E-28
2.18476E-02 2.08318E-28
2.24900E-02 1.74856E-28
2.31415E-02 1.49235E-28
2.38021E-02 1.29681E-28
2.44717E-02 1.14776E-28
2.51504E-02 1.03385E-28
2.58382E-02 9.46142E-29
2.65349E-02 8.77612E-29
2.72407E-02 8.22823E-29
2.79555E-02 7.77612E-29
2.86793E-02 7.38845E-29
2.94120E-02 7.04207E-29
3.01537E-02 6.72035E-29
3.09043E-02 6.41175E-29
3.16639E-02 6.10867E-29
3.24324E-02 5.80650E-29
3.32098E-02 5.50291E-29
3.39961E-02 5.19719E-29
3.47912E-02 4.88978E-29
3.55952E-02 4.58191E-29
3.64081E-02 4.27525E-29
3.72297E-02 3.97173E-29
3.80602E-02 3.67336E-29
3.88995E-02 3.38209E-29
3.97476E-02 3.09972E-29
4.06044E-02 2.82785E-29
4.14700E-02 2.56785E-29
4.23443E-02 2.32082E-29
4.32273E-02 2.08762E-29
4.41190E-02 1.86884E-29
4.50194E-02 1.66484E-29
4.59284E-02 1.47577E-29
4.68461E-02 1.30155E-29
4.87074E-02 9.96648E-30
5.06030E-02 7.46645E-30
5.25328E-02 5.46452E-30
5.44967E-02 3.90040E-30
5.64946E-02 2.71005E-30
5.85262E-02 1.83007E-30
6.05914E-02 1.20078E-30
6.26901E-02 7.68252E-31
6.48222E-02 4.85485E-31
6.69873E-02 3.12772E-31
6.91854E-02 2.17621E-31
7.14163E-02 1.74263E-31
7.36799E-02 1.62947E-31
7.59760E-02 1.69112E-31
7.83043E-02 1.82516E-31
8.06647E-02 1.96399E-31
8.30571E-02 2.06705E-31
8.54812E-02 2.11396E-31
8.79369E-02 2.09867E-31
9.04240E-02 2.02468E-31
9.29422E-02 1.90122E-31
9.54915E-02 1.74042E-31
9.80716E-02 1.55515E-31
1.00682E-01 1.35761E-31
1.03323E-01 1.15848E-31
1.05995E-01 9.66425E-32
1.08696E-01 7.87928E-32
1.11427E-01 6.27389E-32
1.14188E-01 4.87314E-32
1.16978E-01 3.68616E-32
1.19797E-01 2.70937E-32
1.22645E-01 1.92975E-32
1.25522E-01 1.32790E-32
1.28428E-01 8.80645E-33
1.31361E-01 5.63270E-33
1.34323E-01 3.51229E-33
1.37313E-01 2.21417E-33
1.40330E-01 1.53027E-33
1.43375E-01 1.28052E-33
1.46447E-01 1.31496E-33
1.49545E-01 1.51360E-33
1.52671E-01 1.78465E-33
1.55823E-01 2.06163E-33
1.59001E-01 2.29985E-33
1.62205E-01 2.47262E-33
1.65435E-01 2.56753E-33
1.68690E-01 2.58285E-33
1.71970E-01 2.52446E-33
1.75276E-01 2.40310E-33
1.78606E-01 2.23215E-33
1.81961E-01 2.02592E-33
1.85340E-01 1.79829E-33
1.88743E-01 1.56188E-33
1.92169E-01 1.32747E-33
1.95619E-01 1.10370E-33
1.99092E-01 8.97015E-34
2.02589E-01 7.11774E-34
2.06107E-01 5.50450E-34
2.09649E-01 4.13906E-34
2.13212E-01 3.01695E-34
2.16797E-01 2.12379E-34
2.20404E-01 1.43816E-34
2.24032E-01 9.34295E-35
2.27680E-01 5.84325E-35
2.31350E-01 3.60141E-35
2.35040E-01 2.34819E-35
2.38751E-01 1.83660E-35
2.42481E-01 1.84853E-35
2.46231E-01 2.19845E-35
2.50000E-01 2.73454E-35
2.53788E-01 3.33777E-35
2.57595E-01 3.91957E-35
2.61421E-01 4.41856E-35
2.65264E-01 4.79666E-35
2.69126E-01 5.03495E-35
2.73005E-01 5.12968E-35
2.76901E-01 5.08831E-35
2.80814E-01 4.92631E-35
2.84744E-01 4.66388E-35
2.88691E-01 4.32370E-35
2.92653E-01 3.92884E-35
2.96632E-01 3.50131E-35
3.00625E-01 3.06097E-35
3.04634E-01 2.62491E-35
3.08658E-01 2.20703E-35
3.12697E-01 1.81801E-35
3.16749E-01 1.46538E-35
3.20816E-01 1.15380E-35
3.24896E-01 8.85407E-36
3.28990E-01 6.60213E-36
3.33097E-01 4.76526E-36
3.37216E-01 3.31406E-36
3.41348E-01 2.20998E-36
3.45492E-01 1.40913E-36
3.49647E-01 8.65369E-37
3.53814E-01 5.32536E-37
3.57992E-01 3.66469E-37
3.62181E-01 3.26543E-37
3.66381E-01 3.76438E-37
3.70590E-01 4.84829E-37
3.74810E-01 6.25564E-37
3.79039E-01 7.77569E-37
3.83277E-01 9.24676E-37
3.87524E-01 1.05511E-36
3.91780E-01 1.16100E-36
3.96044E-01 1.23782E-36
4.00316E-01 1.28388E-36
4.04596E-01 1.29954E-36
4.08882E-01 1.28689E-36
4.13176E-01 1.24918E-36
4.17476E-01 1.19036E-36
4.21783E-01 1.11476E-36
4.26095E-01 1.02678E-36
4.30413E-01 9.30657E-37
4.34737E-01 8.30305E-37
4.39065E-01 7.29154E-37
4.43398E-01 6.30167E-37
4.47736E-01 5.35730E-37
4.52077E-01 4.47652E-37
4.56422E-01 3.67262E-37
4.60770E-01 2.95404E-37
4.65122E-01 2.32508E-37
4.69476E-01 1.78572E-37
4.73832E-01 1.33408E-37
4.78190E-01 9.65178E-38
4.82550E-01 6.72569E-38
4.86912E-01 4.48510E-38
4.91274E-01 2.84670E-38
4.95637E-01 1.72425E-38
5.00000E-01 1.03129E-38
5.04363E-01 6.86433E-39
5.08726E-01 6.12461E-39
5.13088E-01 7.40335E-39
5.17450E-01 1.00864E-38
5.21810E-01 1.36436E-38
5.26168E-01 1.76371E-38
5.30524E-01 2.17081E-38
5.34878E-01 2.55764E-38
5.39230E-01 2.90381E-38
5.43578E-01 3.19508E-38
5.47923E-01 3.42211E-38
5.52264E-01 3.58165E-38
5.56602E-01 3.67340E-38
5.60935E-01 3.69883E-38
5.65263E-01 3.66463E-38
5.69587E-01 3.57599E-38
5.73905E-01 3.44136E-38
5.78217E-01 3.26870E-38
5.82524E-01 3.06531E-38
5.86824E-01 2.84095E-38
5.91118E-01 2.60188E-38
5.95404E-01 2.35530E-38
5.99684E-01 2.10773E-38
6.03956E-01 1.86429E-38
6.08220E-01 1.63002E-38
6.12476E-01 1.40740E-38
6.16723E-01 1.20023E-38
6.20961E-01 1.00958E-38
6.25190E-01 8.37053E-39
6.29410E-01 6.83370E-39
6.33619E-01 5.48546E-39
6.37819E-01 4.31715E-39
6.42008E-01 3.32314E-39
6.46186E-01 2.49390E-39
6.50353E-01 1.00000E-45
6.54508E-01 1.00000E-45
6.58652E-01 1.00000E-45
6.62784E-01 1.00000E-45
6.66903E-01 1.00000E-45
6.71010E-01 1.00000E-45
6.75104E-01 1.00000E-45
6.79184E-01 1.00000E-45
6.83251E-01 1.00000E-45
6.87303E-01 1.00000E-45
6.91342E-01 1.00000E-45
6.95366E-01 1.00000E-45
6.99375E-01 1.00000E-45
7.03368E-01 1.00000E-45
7.07347E-01 1.00000E-45
7.11309E-01 1.00000E-45
7.15256E-01 1.00000E-45
7.19186E-01 1.00000E-45
7.23099E-01 1.00000E-45
7.26995E-01 1.00000E-45
7.30874E-01 1.00000E-45
7.34736E-01 1.00000E-45
7.38579E-01 1.00000E-45
7.42405E-01 1.00000E-45
7.46212E-01 1.00000E-45
7.50000E-01 1.00000E-45
7.53769E-01 1.00000E-45
7.57519E-01 1.00000E-45
7.61249E-01 1.00000E-45
7.64960E-01 1.00000E-45
7.68650E-01 1.00000E-45
7.72320E-01 1.00000E-45
7.75968E-01 1.00000E-45
7.79596E-01 1.00000E-45
7.83203E-01 1.00000E-45
7.86788E-01 1.00000E-45
7.90351E-01 1.00000E-45
7.93893E-01 1.00000E-45
7.97411E-01 1.00000E-45
8.00908E-01 1.00000E-45
8.04381E-01 1.00000E-45
8.07831E-01 1.00000E-45
8.11257E-01 1.00000E-45
8.14660E-01 1.00000E-45
8.18039E-01 1.00000E-45
8.21394E-01 1.00000E-45
8.24724E-01 1.00000E-45
8.28030E-01 1.00000E-45
8.31310E-01 1.00000E-45
8.34565E-01 1.00000E-45
8.37795E-01 1.00000E-45
8.40999E-01 1.00000E-45
8.44177E-01 1.00000E-45
8.47329E-01 1.00000E-45
8.50455E-01 1.00000E-45
8.53553E-01 1.00000E-45
8.56625E-01 1.00000E-45
8.59670E-01 1.00000E-45
8.62687E-01 1.00000E-45
8.65677E-01 1.00000E-45
8.68639E-01 1.00000E-45
8.71572E-01 1.00000E-45
8.74478E-01 1.00000E-45
8.77355E-01 1.00000E-45
8.80203E-01 1.00000E-45
8.83022E-01 1.00000E-45
8.85812E-01 1.00000E-45
8.88573E-01 1.00000E-45
8.91304E-01 1.00000E-45
8.94005E-01 1.00000E-45
8.96677E-01 1.00000E-45
8.99318E-01 1.00000E-45
9.01928E-01 1.00000E-45
9.04508E-01 1.00000E-45
9.07058E-01 1.00000E-45
9.09576E-01 1.00000E-45
9.12063E-01 1.00000E-45
9.14519E-01 1.00000E-45
9.16943E-01 1.00000E-45
9.19335E-01 1.00000E-45
9.21696E-01 1.00000E-45
9.24024E-01 1.00000E-45
9.26320E-01 1.00000E-45
9.28584E-01 1.00000E-45
9.30815E-01 1.00000E-45
9.33013E-01 1.00000E-45
9.35178E-01 1.00000E-45
9.37310E-01 1.00000E-45
9.39409E-01 1.00000E-45
9.41474E-01 1.00000E-45
9.43505E-01 1.00000E-45
9.45503E-01 1.00000E-45
9.47467E-01 1.00000E-45
9.49397E-01 1.00000E-45
9.51293E-01 1.00000E-45
9.53154E-01 1.00000E-45
9.54981E-01 1.00000E-45
9.56773E-01 1.00000E-45
9.58530E-01 1.00000E-45
9.60252E-01 1.00000E-45
9.61940E-01 1.00000E-45
9.63592E-01 1.00000E-45
9.65209E-01 1.00000E-45
9.66790E-01 1.00000E-45
9.68336E-01 1.00000E-45
9.69846E-01 1.00000E-45
9.71321E-01 1.00000E-45
9.72759E-01 1.00000E-45
9.74162E-01 1.00000E-45
9.75528E-01 1.00000E-45
9.76858E-01 1.00000E-45
9.78152E-01 1.00000E-45
9.79410E-01 1.00000E-45
9.80631E-01 1.00000E-45
9.81815E-01 1.00000E-45
9.82963E-01 1.00000E-45
9.84074E-01 1.00000E-45
9.85148E-01 1.00000E-45
9.86185E-01 1.00000E-45
9.87185E-01 1.00000E-45
9.88148E-01 1.00000E-45
9.89074E-01 1.00000E-45
9.89962E-01 1.00000E-45
9.90814E-01 1.00000E-45
9.91627E-01 1.00000E-45
9.92404E-01 1.00000E-45
9.93143E-01 1.00000E-45
9.93844E-01 1.00000E-45
9.94508E-01 1.00000E-45
9.95134E-01 1.00000E-45
9.95722E-01 1.00000E-45
9.96273E-01 1.00000E-45
9.96786E-01 1.00000E-45
9.97261E-01 1.00000E-45
9.97698E-01 1.00000E-45
9.98097E-01 1.00000E-45
9.98459E-01 1.00000E-45
9.98782E-01 1.00000E-45
9.99067E-01 1.00000E-45
9.99315E-01 1.00000E-45
9.99524E-01 1.00000E-45
9.99695E-01 1.00000E-45
9.99829E-01 1.00000E-45
9.99924E-01 1.00000E-45
9.99981E-01 1.00000E-45
1.00000E+00 1.00000E-45
