 #
 # Subroutine ELSEPA. Elastic scattering of electrons and positrons
 #                    by neutral atoms and positive ions
 #
 # Projectile: positron
 # Kinetic energy = 4.50000E+08 eV = 1.65372E+07 a.u.
 #
 # WARNING: High-energy factorization with free-atom DF screening.
 #          Absorption, polarization and exchange corrections are
 #          switched off.
 #          Phase shifts are calculated for the bare nucleus.
 #          Scattering amplitudes are not evaluated.
 #
 # Element: Sr,  Z =  38,  atomic weight = 8.76200E+01 g/mol
 #
 # Nuclear model: Fermi distribution
 #                Average radius = 4.75246E-13 cm
 #                Skin thickness = 5.46000E-14 cm
 #
 # Number of electrons = 38
 #
 # Total elastic cross section = 3.75323E-18 cm**2 = 1.34030E-01 a0**2
 # 1st transport cross section = 1.42383E-26 cm**2 = 5.08459E-10 a0**2
 # 2nd transport cross section = 4.26917E-26 cm**2 = 1.52455E-09 a0**2
 #
 #
 # Differential cross section:                       MU=(1-COS(THETA))/2
 #
 #  THETA        MU          DCS          DCS        Sherman      error
 #  (deg)                 (cm**2/sr)   (a0**2/sr)    function
 #----------------------------------------------------------------------
0.00000E+00 1.31569E-08
7.61557E-13 1.17560E-08
1.18994E-12 1.10679E-08
1.71346E-12 1.03078E-08
2.33225E-12 9.51287E-09
3.04617E-12 8.71079E-09
3.85530E-12 7.92583E-09
4.75964E-12 7.17656E-09
5.75917E-12 6.47582E-09
6.85391E-12 5.83596E-09
8.04379E-12 5.25589E-09
9.32893E-12 4.73440E-09
1.07092E-11 4.26922E-09
1.21847E-11 3.85662E-09
1.37554E-11 3.49280E-09
1.54213E-11 3.17367E-09
1.71823E-11 2.89193E-09
1.90386E-11 2.64309E-09
2.09900E-11 2.42306E-09
2.30367E-11 2.22811E-09
2.51785E-11 2.05533E-09
2.74156E-11 1.90124E-09
2.97478E-11 1.76313E-09
3.21752E-11 1.63893E-09
3.46979E-11 1.52683E-09
3.73157E-11 1.42529E-09
4.00286E-11 1.33287E-09
4.28368E-11 1.24845E-09
4.57402E-11 1.17110E-09
4.87388E-11 1.10004E-09
5.18325E-11 1.03456E-09
5.50215E-11 9.73979E-10
5.83057E-11 9.17761E-10
6.16850E-11 8.65587E-10
6.51595E-11 8.17082E-10
6.87293E-11 7.71912E-10
7.23943E-11 7.29785E-10
7.61544E-11 6.90282E-10
1.18991E-10 4.06775E-10
1.71347E-10 2.54131E-10
2.33223E-10 1.66762E-10
3.04617E-10 1.15108E-10
3.85531E-10 8.27707E-11
4.75965E-10 6.14726E-11
5.75917E-10 4.67941E-11
6.85389E-10 3.61587E-11
8.04380E-10 2.83330E-11
9.32891E-10 2.24666E-11
1.07092E-09 1.79931E-11
1.21847E-09 1.45360E-11
1.37554E-09 1.18309E-11
1.54213E-09 9.69294E-12
1.71823E-09 8.00437E-12
1.90386E-09 6.65968E-12
2.09900E-09 5.58072E-12
2.30367E-09 4.70881E-12
2.51785E-09 3.99846E-12
2.74156E-09 3.41731E-12
2.97478E-09 2.93822E-12
3.21752E-09 2.54081E-12
3.46978E-09 2.20930E-12
3.73156E-09 1.93105E-12
4.00286E-09 1.69593E-12
4.28368E-09 1.49625E-12
4.57402E-09 1.32568E-12
4.87388E-09 1.17919E-12
5.18326E-09 1.05273E-12
5.50215E-09 9.42978E-13
5.83057E-09 8.47304E-13
6.16850E-09 7.63616E-13
6.51596E-09 6.90132E-13
6.87293E-09 6.25374E-13
7.23942E-09 5.68110E-13
7.61544E-09 5.17254E-13
1.18991E-08 2.24484E-13
1.71347E-08 1.12038E-13
2.33223E-08 6.17034E-14
3.04617E-08 3.66398E-14
3.85531E-08 2.30907E-14
4.75965E-08 1.52659E-14
5.75917E-08 1.04956E-14
6.85389E-08 7.45395E-15
8.04380E-08 5.44007E-15
9.32891E-08 4.06348E-15
1.07092E-07 3.09645E-15
1.21847E-07 2.40089E-15
1.37554E-07 1.89018E-15
1.54213E-07 1.50832E-15
1.71823E-07 1.21817E-15
1.90386E-07 9.94521E-16
2.09900E-07 8.19886E-16
2.30367E-07 6.81925E-16
2.51785E-07 5.71774E-16
2.74156E-07 4.82971E-16
2.97478E-07 4.10741E-16
3.21752E-07 3.51509E-16
3.46978E-07 3.02569E-16
3.73156E-07 2.61848E-16
4.00286E-07 2.27746E-16
4.28368E-07 1.99013E-16
4.57402E-07 1.74668E-16
4.87388E-07 1.53930E-16
5.18325E-07 1.36178E-16
5.50215E-07 1.20910E-16
5.83057E-07 1.07722E-16
6.16850E-07 9.62817E-17
6.51596E-07 8.63195E-17
6.87293E-07 7.76120E-17
7.23942E-07 6.99746E-17
7.61543E-07 6.32532E-17
1.18991E-06 2.59563E-17
1.71347E-06 1.25281E-17
2.33223E-06 6.76511E-18
3.04617E-06 3.96634E-18
3.85531E-06 2.47634E-18
4.75964E-06 1.62473E-18
5.75916E-06 1.10967E-18
6.85388E-06 7.83448E-19
8.04378E-06 5.68753E-19
9.32888E-06 4.22806E-19
1.07092E-05 3.20804E-19
1.21846E-05 2.47785E-19
1.37553E-05 1.94404E-19
1.54212E-05 1.54652E-19
1.71822E-05 1.24559E-19
1.90385E-05 1.01424E-19
2.09899E-05 8.34477E-20
2.30365E-05 6.92793E-20
2.51783E-05 5.79882E-20
2.74153E-05 4.89016E-20
2.97475E-05 4.15244E-20
3.21749E-05 3.54865E-20
3.46974E-05 3.05079E-20
3.73152E-05 2.63737E-20
4.00281E-05 2.29174E-20
4.28362E-05 2.00096E-20
4.57395E-05 1.75486E-20
4.87380E-05 1.54540E-20
5.18317E-05 1.36622E-20
5.50205E-05 1.21223E-20
5.83045E-05 1.07933E-20
6.16838E-05 9.64136E-21
6.51582E-05 8.63918E-21
6.87277E-05 7.76400E-21
7.23925E-05 6.99695E-21
7.61524E-05 6.31420E-21
9.21439E-05 4.30687E-21
1.09658E-04 3.03627E-21
1.28695E-04 2.20079E-21
1.49255E-04 1.63316E-21
1.71338E-04 1.23683E-21
1.94942E-04 9.53334E-22
2.20070E-04 7.46286E-22
2.46720E-04 5.92261E-22
2.74892E-04 4.75781E-22
3.04586E-04 3.86410E-22
3.35803E-04 3.16923E-22
3.68542E-04 2.62257E-22
4.02802E-04 2.18782E-22
4.38585E-04 1.83866E-22
4.75889E-04 1.55572E-22
5.14715E-04 1.32453E-22
5.55063E-04 1.13419E-22
5.96931E-04 9.76355E-23
6.40321E-04 8.44632E-23
6.85233E-04 7.34029E-23
7.31665E-04 6.40630E-23
7.79618E-04 5.61344E-23
8.29092E-04 4.93703E-23
8.80086E-04 4.35729E-23
9.32601E-04 3.85823E-23
9.86636E-04 3.42686E-23
1.04219E-03 3.05255E-23
1.09927E-03 2.72657E-23
1.15786E-03 2.44170E-23
1.21797E-03 2.19193E-23
1.27961E-03 1.97226E-23
1.34276E-03 1.77850E-23
1.40743E-03 1.60711E-23
1.47362E-03 1.45511E-23
1.54133E-03 1.31995E-23
1.61056E-03 1.19949E-23
1.68131E-03 1.09188E-23
1.75357E-03 9.95534E-24
1.82735E-03 9.09094E-24
1.90265E-03 8.31384E-24
1.97947E-03 7.61390E-24
2.05780E-03 6.98228E-24
2.13765E-03 6.41131E-24
2.21902E-03 5.89429E-24
2.30190E-03 5.42537E-24
2.38630E-03 4.99940E-24
2.47222E-03 4.61187E-24
2.55965E-03 4.25880E-24
2.64859E-03 3.93668E-24
2.73905E-03 3.64241E-24
2.83103E-03 3.37324E-24
2.92452E-03 3.12671E-24
3.01952E-03 2.90066E-24
3.11604E-03 2.69314E-24
3.21407E-03 2.50242E-24
3.31362E-03 2.32696E-24
3.41468E-03 2.16538E-24
3.51725E-03 2.01641E-24
3.62133E-03 1.87895E-24
3.72692E-03 1.75200E-24
3.83403E-03 1.63463E-24
3.94265E-03 1.52604E-24
4.05278E-03 1.42548E-24
4.16442E-03 1.33228E-24
4.27757E-03 1.24585E-24
4.39223E-03 1.16561E-24
4.50840E-03 1.09109E-24
4.62608E-03 1.02182E-24
4.74527E-03 9.57378E-25
4.86597E-03 8.97400E-25
4.98817E-03 8.41537E-25
5.11188E-03 7.89475E-25
5.23711E-03 7.40924E-25
5.36383E-03 6.95623E-25
5.49207E-03 6.53330E-25
5.62181E-03 6.13824E-25
5.75306E-03 5.76901E-25
5.88581E-03 5.42375E-25
6.02007E-03 5.10074E-25
6.15583E-03 4.79841E-25
6.29310E-03 4.51529E-25
6.43187E-03 4.25006E-25
6.57214E-03 4.00146E-25
6.71392E-03 3.76836E-25
6.85720E-03 3.54971E-25
7.00198E-03 3.34452E-25
7.14827E-03 3.15190E-25
7.29605E-03 2.97101E-25
7.44534E-03 2.80107E-25
7.59612E-03 2.64137E-25
7.97965E-03 2.28264E-25
8.37255E-03 1.97466E-25
8.77480E-03 1.70977E-25
9.18641E-03 1.48158E-25
9.60736E-03 1.28470E-25
1.00376E-02 1.11461E-25
1.04773E-02 9.67478E-26
1.09262E-02 8.40071E-26
1.13844E-02 7.29634E-26
1.18520E-02 6.33825E-26
1.23288E-02 5.50643E-26
1.28150E-02 4.78377E-26
1.33104E-02 4.15560E-26
1.38150E-02 3.60932E-26
1.43290E-02 3.13410E-26
1.48521E-02 2.72057E-26
1.53845E-02 2.36067E-26
1.59262E-02 2.04742E-26
1.64770E-02 1.77478E-26
1.70371E-02 1.53750E-26
1.76063E-02 1.33103E-26
1.81848E-02 1.15142E-26
1.87724E-02 9.95233E-27
1.93692E-02 8.59469E-27
1.99751E-02 7.41520E-27
2.05901E-02 6.39109E-27
2.12143E-02 5.50250E-27
2.18476E-02 4.73210E-27
2.24900E-02 4.06474E-27
2.31415E-02 3.48719E-27
2.38021E-02 2.98787E-27
2.44717E-02 2.55669E-27
2.51504E-02 2.18480E-27
2.58382E-02 1.86447E-27
2.65349E-02 1.58895E-27
2.72407E-02 1.35233E-27
2.79555E-02 1.14946E-27
2.86793E-02 9.75817E-28
2.94120E-02 8.27476E-28
3.01537E-02 7.00999E-28
3.09043E-02 5.93390E-28
3.16639E-02 5.02038E-28
3.24324E-02 4.24669E-28
3.32098E-02 3.59304E-28
3.39961E-02 3.04226E-28
3.47912E-02 2.57940E-28
3.55952E-02 2.19153E-28
3.64081E-02 1.86746E-28
3.72297E-02 1.59749E-28
3.80602E-02 1.37328E-28
3.88995E-02 1.18763E-28
3.97476E-02 1.03437E-28
4.06044E-02 9.08179E-29
4.14700E-02 8.04538E-29
4.23443E-02 7.19579E-29
4.32273E-02 6.50015E-29
4.41190E-02 5.93062E-29
4.50194E-02 5.46368E-29
4.59284E-02 5.07958E-29
4.68461E-02 4.76179E-29
4.87074E-02 4.27249E-29
5.06030E-02 3.91222E-29
5.25328E-02 3.62542E-29
5.44967E-02 3.37660E-29
5.64946E-02 3.14442E-29
5.85262E-02 2.91726E-29
6.05914E-02 2.68995E-29
6.26901E-02 2.46144E-29
6.48222E-02 2.23308E-29
6.69873E-02 2.00746E-29
6.91854E-02 1.78761E-29
7.14163E-02 1.57651E-29
7.36799E-02 1.37678E-29
7.59760E-02 1.19047E-29
7.83043E-02 1.01907E-29
8.06647E-02 8.63481E-30
8.30571E-02 7.24044E-30
8.54812E-02 6.00647E-30
8.79369E-02 4.92790E-30
9.04240E-02 3.99670E-30
9.29422E-02 3.20266E-30
9.54915E-02 2.53412E-30
9.80716E-02 1.97858E-30
1.00682E-01 1.52327E-30
1.03323E-01 1.15558E-30
1.05995E-01 8.63389E-31
1.08696E-01 6.35298E-31
1.11427E-01 4.60830E-31
1.14188E-01 3.30512E-31
1.16978E-01 2.35932E-31
1.19797E-01 1.69736E-31
1.22645E-01 1.25601E-31
1.25522E-01 9.81780E-32
1.28428E-01 8.30195E-32
1.31361E-01 7.64927E-32
1.34323E-01 7.56911E-32
1.37313E-01 7.83422E-32
1.40330E-01 8.27183E-32
1.43375E-01 8.75513E-32
1.46447E-01 9.19532E-32
1.49545E-01 9.53449E-32
1.52671E-01 9.73920E-32
1.55823E-01 9.79487E-32
1.59001E-01 9.70102E-32
1.62205E-01 9.46720E-32
1.65435E-01 9.10964E-32
1.68690E-01 8.64858E-32
1.71970E-01 8.10613E-32
1.75276E-01 7.50465E-32
1.78606E-01 6.86554E-32
1.81961E-01 6.20842E-32
1.85340E-01 5.55061E-32
1.88743E-01 4.90681E-32
1.92169E-01 4.28902E-32
1.95619E-01 3.70658E-32
1.99092E-01 3.16632E-32
2.02589E-01 2.67277E-32
2.06107E-01 2.22844E-32
2.09649E-01 1.83409E-32
2.13212E-01 1.48907E-32
2.16797E-01 1.19154E-32
2.20404E-01 9.38794E-33
2.24032E-01 7.27487E-33
2.27680E-01 5.53851E-33
2.31350E-01 4.13889E-33
2.35040E-01 3.03530E-33
2.38751E-01 2.18762E-33
2.42481E-01 1.55733E-33
2.46231E-01 1.10825E-33
2.50000E-01 8.07106E-34
2.53788E-01 6.23851E-34
2.57595E-01 5.31867E-34
2.61421E-01 5.07986E-34
2.65264E-01 5.32428E-34
2.69126E-01 5.88641E-34
2.73005E-01 6.63084E-34
2.76901E-01 7.44967E-34
2.80814E-01 8.25958E-34
2.84744E-01 8.99891E-34
2.88691E-01 9.62464E-34
2.92653E-01 1.01095E-33
2.96632E-01 1.04390E-33
3.00625E-01 1.06095E-33
3.04634E-01 1.06251E-33
3.08658E-01 1.04961E-33
3.12697E-01 1.02372E-33
3.16749E-01 9.86579E-34
3.20816E-01 9.40075E-34
3.24896E-01 8.86146E-34
3.28990E-01 8.26696E-34
3.33097E-01 7.63532E-34
3.37216E-01 6.98311E-34
3.41348E-01 6.32521E-34
3.45492E-01 5.67459E-34
3.49647E-01 5.04215E-34
3.53814E-01 4.43684E-34
3.57992E-01 3.86569E-34
3.62181E-01 3.33385E-34
3.66381E-01 2.84488E-34
3.70590E-01 2.40083E-34
3.74810E-01 2.00248E-34
3.79039E-01 1.64946E-34
3.83277E-01 1.34056E-34
3.87524E-01 1.07378E-34
3.91780E-01 8.46596E-35
3.96044E-01 6.56065E-35
4.00316E-01 4.98990E-35
4.04596E-01 3.72009E-35
4.08882E-01 2.71730E-35
4.13176E-01 1.94799E-35
4.17476E-01 1.37972E-35
4.21783E-01 9.81712E-36
4.26095E-01 7.25259E-36
4.30413E-01 5.83987E-36
4.34737E-01 5.34048E-36
4.39065E-01 5.54191E-36
4.43398E-01 6.25778E-36
4.47736E-01 7.32719E-36
4.52077E-01 8.61374E-36
4.56422E-01 1.00040E-35
4.60770E-01 1.14058E-35
4.65122E-01 1.27461E-35
4.69476E-01 1.39698E-35
4.73832E-01 1.50364E-35
4.78190E-01 1.59192E-35
4.82550E-01 1.66024E-35
4.86912E-01 1.70801E-35
4.91274E-01 1.73539E-35
4.95637E-01 1.74316E-35
5.00000E-01 1.73260E-35
5.04363E-01 1.70528E-35
5.08726E-01 1.66309E-35
5.13088E-01 1.60797E-35
5.17450E-01 1.54201E-35
5.21810E-01 1.46721E-35
5.26168E-01 1.38558E-35
5.30524E-01 1.29901E-35
5.34878E-01 1.20923E-35
5.39230E-01 1.11785E-35
5.43578E-01 1.02631E-35
5.47923E-01 9.35834E-36
5.52264E-01 8.47529E-36
5.56602E-01 7.62293E-36
5.60935E-01 6.80834E-36
5.65263E-01 6.03767E-36
5.69587E-01 5.31490E-36
5.73905E-01 4.64319E-36
5.78217E-01 4.02423E-36
5.82524E-01 3.45857E-36
5.86824E-01 2.94625E-36
5.91118E-01 2.48604E-36
5.95404E-01 2.07633E-36
5.99684E-01 1.71496E-36
6.03956E-01 1.39931E-36
6.08220E-01 1.12656E-36
6.12476E-01 8.93447E-37
6.16723E-01 6.96872E-37
6.20961E-01 5.33443E-37
6.25190E-01 3.99929E-37
6.29410E-01 2.93119E-37
6.33619E-01 2.09896E-37
6.37819E-01 1.47245E-37
6.42008E-01 1.02374E-37
6.46186E-01 7.26641E-38
6.50353E-01 5.56736E-38
6.54508E-01 4.91821E-38
6.58652E-01 5.11788E-38
6.62784E-01 5.98489E-38
6.66903E-01 7.35932E-38
6.71010E-01 9.09964E-38
6.75104E-01 1.10841E-37
6.79184E-01 1.32057E-37
6.83251E-01 1.53767E-37
6.87303E-01 1.75253E-37
6.91342E-01 1.95879E-37
6.95366E-01 2.15208E-37
6.99375E-01 2.32834E-37
7.03368E-01 2.48522E-37
7.07347E-01 2.62082E-37
7.11309E-01 2.73406E-37
7.15256E-01 2.82447E-37
7.19186E-01 2.89226E-37
7.23099E-01 2.93787E-37
7.26995E-01 2.96216E-37
7.30874E-01 2.96666E-37
7.34736E-01 2.95250E-37
7.38579E-01 2.92117E-37
7.42405E-01 2.87433E-37
7.46212E-01 2.81367E-37
7.50000E-01 2.74115E-37
7.53769E-01 2.65830E-37
7.57519E-01 2.56651E-37
7.61249E-01 2.46782E-37
7.64960E-01 2.36329E-37
7.68650E-01 2.25470E-37
7.72320E-01 2.14297E-37
7.75968E-01 2.02970E-37
7.79596E-01 1.91562E-37
7.83203E-01 1.80186E-37
7.86788E-01 1.68919E-37
7.90351E-01 1.57850E-37
7.93893E-01 1.47051E-37
7.97411E-01 1.36529E-37
8.00908E-01 1.26387E-37
8.04381E-01 1.16638E-37
8.07831E-01 1.07300E-37
8.11257E-01 9.84109E-38
8.14660E-01 8.99825E-38
8.18039E-01 8.20336E-38
8.21394E-01 7.45345E-38
8.24724E-01 6.75239E-38
8.28030E-01 6.09717E-38
8.31310E-01 5.48735E-38
8.34565E-01 4.92221E-38
8.37795E-01 4.39972E-38
8.40999E-01 3.91925E-38
8.44177E-01 3.47988E-38
8.47329E-01 3.07740E-38
8.50455E-01 2.70964E-38
8.53553E-01 2.37715E-38
8.56625E-01 2.07601E-38
8.59670E-01 1.80477E-38
8.62687E-01 1.56194E-38
8.65677E-01 1.34362E-38
8.68639E-01 1.14976E-38
8.71572E-01 9.78460E-39
8.74478E-01 8.27138E-39
8.77355E-01 6.93681E-39
8.80203E-01 5.77783E-39
8.83022E-01 4.77051E-39
8.85812E-01 3.90535E-39
8.88573E-01 3.16025E-39
8.91304E-01 2.52859E-39
8.94005E-01 1.99472E-39
8.96677E-01 1.55265E-39
8.99318E-01 1.18888E-39
9.01928E-01 8.92998E-40
9.04508E-01 6.57467E-40
9.07058E-01 4.75623E-40
9.09576E-01 1.00000E-45
9.12063E-01 1.00000E-45
9.14519E-01 1.00000E-45
9.16943E-01 1.00000E-45
9.19335E-01 1.00000E-45
9.21696E-01 1.00000E-45
9.24024E-01 1.00000E-45
9.26320E-01 1.00000E-45
9.28584E-01 1.00000E-45
9.30815E-01 1.00000E-45
9.33013E-01 1.00000E-45
9.35178E-01 1.00000E-45
9.37310E-01 1.00000E-45
9.39409E-01 1.00000E-45
9.41474E-01 1.00000E-45
9.43505E-01 1.00000E-45
9.45503E-01 1.00000E-45
9.47467E-01 1.00000E-45
9.49397E-01 1.00000E-45
9.51293E-01 1.00000E-45
9.53154E-01 1.00000E-45
9.54981E-01 1.00000E-45
9.56773E-01 1.00000E-45
9.58530E-01 1.00000E-45
9.60252E-01 1.00000E-45
9.61940E-01 1.00000E-45
9.63592E-01 1.00000E-45
9.65209E-01 1.00000E-45
9.66790E-01 1.00000E-45
9.68336E-01 1.00000E-45
9.69846E-01 1.00000E-45
9.71321E-01 1.00000E-45
9.72759E-01 1.00000E-45
9.74162E-01 1.00000E-45
9.75528E-01 1.00000E-45
9.76858E-01 1.00000E-45
9.78152E-01 1.00000E-45
9.79410E-01 1.00000E-45
9.80631E-01 1.00000E-45
9.81815E-01 1.00000E-45
9.82963E-01 1.00000E-45
9.84074E-01 1.00000E-45
9.85148E-01 1.00000E-45
9.86185E-01 1.00000E-45
9.87185E-01 1.00000E-45
9.88148E-01 1.00000E-45
9.89074E-01 1.00000E-45
9.89962E-01 1.00000E-45
9.90814E-01 1.00000E-45
9.91627E-01 1.00000E-45
9.92404E-01 1.00000E-45
9.93143E-01 1.00000E-45
9.93844E-01 1.00000E-45
9.94508E-01 1.00000E-45
9.95134E-01 1.00000E-45
9.95722E-01 1.00000E-45
9.96273E-01 1.00000E-45
9.96786E-01 1.00000E-45
9.97261E-01 1.00000E-45
9.97698E-01 1.00000E-45
9.98097E-01 1.00000E-45
9.98459E-01 1.00000E-45
9.98782E-01 1.00000E-45
9.99067E-01 1.00000E-45
9.99315E-01 1.00000E-45
9.99524E-01 1.00000E-45
9.99695E-01 1.00000E-45
9.99829E-01 1.00000E-45
9.99924E-01 1.00000E-45
9.99981E-01 1.00000E-45
1.00000E+00 1.00000E-45
