 #
 # Subroutine ELSEPA. Elastic scattering of electrons and positrons
 #                    by neutral atoms and positive ions
 #
 # Projectile: positron
 # Kinetic energy = 1.75000E+07 eV = 6.43113E+05 a.u.
 #
 # WARNING: High-energy factorization with free-atom DF screening.
 #          Absorption, polarization and exchange corrections are
 #          switched off.
 #          Phase shifts are calculated for the bare nucleus.
 #          Scattering amplitudes are not evaluated.
 #
 # Element: Cs,  Z =  55,  atomic weight = 1.32905E+02 g/mol
 #
 # Nuclear model: Fermi distribution
 #                Average radius = 5.46049E-13 cm
 #                Skin thickness = 5.46000E-14 cm
 #
 # Number of electrons = 55
 #
 # Total elastic cross section = 6.62539E-18 cm**2 = 2.36597E-01 a0**2
 # 1st transport cross section = 1.47210E-23 cm**2 = 5.25695E-07 a0**2
 # 2nd transport cross section = 4.27908E-23 cm**2 = 1.52809E-06 a0**2
 #
 #
 # Differential cross section:                       MU=(1-COS(THETA))/2
 #
 #  THETA        MU          DCS          DCS        Sherman      error
 #  (deg)                 (cm**2/sr)   (a0**2/sr)    function
 #----------------------------------------------------------------------
0.00000E+00 3.28466E-11
7.61557E-13 3.28388E-11
1.18994E-12 3.28344E-11
1.71346E-12 3.28291E-11
2.33225E-12 3.28228E-11
3.04617E-12 3.28156E-11
3.85530E-12 3.28074E-11
4.75964E-12 3.27982E-11
5.75917E-12 3.27881E-11
6.85391E-12 3.27770E-11
8.04379E-12 3.27650E-11
9.32893E-12 3.27520E-11
1.07092E-11 3.27381E-11
1.21847E-11 3.27232E-11
1.37554E-11 3.27074E-11
1.54213E-11 3.26906E-11
1.71823E-11 3.26729E-11
1.90386E-11 3.26542E-11
2.09900E-11 3.26346E-11
2.30367E-11 3.26141E-11
2.51785E-11 3.25927E-11
2.74156E-11 3.25703E-11
2.97478E-11 3.25470E-11
3.21752E-11 3.25228E-11
3.46979E-11 3.24977E-11
3.73157E-11 3.24717E-11
4.00286E-11 3.24447E-11
4.28368E-11 3.24169E-11
4.57402E-11 3.23882E-11
4.87388E-11 3.23585E-11
5.18325E-11 3.23280E-11
5.50215E-11 3.22966E-11
5.83057E-11 3.22643E-11
6.16850E-11 3.22312E-11
6.51595E-11 3.21971E-11
6.87293E-11 3.21623E-11
7.23943E-11 3.21265E-11
7.61544E-11 3.20899E-11
1.18991E-10 3.16781E-11
1.71347E-10 3.11877E-11
2.33223E-10 3.06255E-11
3.04617E-10 2.99996E-11
3.85531E-10 2.93180E-11
4.75965E-10 2.85892E-11
5.75917E-10 2.78219E-11
6.85389E-10 2.70249E-11
8.04380E-10 2.62234E-11
9.32891E-10 2.53953E-11
1.07092E-09 2.45404E-11
1.21847E-09 2.37132E-11
1.37554E-09 2.28852E-11
1.54213E-09 2.20457E-11
1.71823E-09 2.12477E-11
1.90386E-09 2.04654E-11
2.09900E-09 1.96826E-11
2.30367E-09 1.89461E-11
2.51785E-09 1.82358E-11
2.74156E-09 1.75318E-11
2.97478E-09 1.68725E-11
3.21752E-09 1.62446E-11
3.46978E-09 1.56267E-11
3.73156E-09 1.50483E-11
4.00286E-09 1.45022E-11
4.28368E-09 1.39678E-11
4.57402E-09 1.34663E-11
4.87388E-09 1.29952E-11
5.18326E-09 1.25361E-11
5.50215E-09 1.21033E-11
5.83057E-09 1.16977E-11
6.16850E-09 1.13036E-11
6.51596E-09 1.09301E-11
6.87293E-09 1.05797E-11
7.23942E-09 1.02401E-11
7.61544E-09 9.91652E-12
1.18991E-08 7.36919E-12
1.71347E-08 5.62568E-12
2.33223E-08 4.35455E-12
3.04617E-08 3.39805E-12
3.85531E-08 2.67275E-12
4.75965E-08 2.12135E-12
5.75917E-08 1.70075E-12
6.85389E-08 1.37826E-12
8.04380E-08 1.12159E-12
9.32891E-08 9.27705E-13
1.07092E-07 7.80560E-13
1.21847E-07 6.56947E-13
1.37554E-07 5.58043E-13
1.54213E-07 4.80098E-13
1.71823E-07 4.12894E-13
1.90386E-07 3.57158E-13
2.09900E-07 3.11961E-13
2.30367E-07 2.72310E-13
2.51785E-07 2.38505E-13
2.74156E-07 2.10490E-13
2.97478E-07 1.85768E-13
3.21752E-07 1.64301E-13
3.46978E-07 1.46198E-13
3.73156E-07 1.30217E-13
4.00286E-07 1.16181E-13
4.28368E-07 1.04169E-13
4.57402E-07 9.35623E-14
4.87388E-07 8.41772E-14
5.18325E-07 7.60423E-14
5.50215E-07 6.88429E-14
5.83057E-07 6.24345E-14
6.16850E-07 5.68170E-14
6.51596E-07 5.18227E-14
6.87293E-07 4.73508E-14
7.23942E-07 4.33916E-14
7.61543E-07 3.98501E-14
1.18991E-06 1.88279E-14
1.71347E-06 1.01796E-14
2.33223E-06 5.96703E-15
3.04617E-06 3.70379E-15
3.85531E-06 2.40559E-15
4.75964E-06 1.62520E-15
5.75916E-06 1.13690E-15
6.85388E-06 8.19202E-16
8.04378E-06 6.05355E-16
9.32888E-06 4.57508E-16
1.07092E-05 3.52396E-16
1.21846E-05 2.75922E-16
1.37553E-05 2.19145E-16
1.54212E-05 1.76208E-16
1.71822E-05 1.43297E-16
1.90385E-05 1.17681E-16
2.09899E-05 9.75991E-17
2.30365E-05 8.16043E-17
2.51783E-05 6.87229E-17
2.74153E-05 5.82656E-17
2.97475E-05 4.97139E-17
3.21749E-05 4.26702E-17
3.46974E-05 3.68294E-17
3.73152E-05 3.19541E-17
4.00281E-05 2.78575E-17
4.28362E-05 2.43967E-17
4.57395E-05 2.14560E-17
4.87380E-05 1.89438E-17
5.18317E-05 1.67871E-17
5.50205E-05 1.49273E-17
5.83045E-05 1.33172E-17
6.16838E-05 1.19184E-17
6.51582E-05 1.06987E-17
6.87277E-05 9.63144E-18
7.23925E-05 8.69413E-18
7.61524E-05 7.86802E-18
9.21439E-05 5.40045E-18
1.09658E-04 3.82843E-18
1.28695E-04 2.78927E-18
1.49255E-04 2.07976E-18
1.71338E-04 1.58221E-18
1.94942E-04 1.22485E-18
2.20070E-04 9.62871E-19
2.46720E-04 7.67294E-19
2.74892E-04 6.18885E-19
3.04586E-04 5.04656E-19
3.35803E-04 4.15568E-19
3.68542E-04 3.45273E-19
4.02802E-04 2.89209E-19
4.38585E-04 2.44058E-19
4.75889E-04 2.07369E-19
5.14715E-04 1.77309E-19
5.55063E-04 1.52494E-19
5.96931E-04 1.31863E-19
6.40321E-04 1.14599E-19
6.85233E-04 1.00064E-19
7.31665E-04 8.77564E-20
7.79618E-04 7.72807E-20
8.29092E-04 6.83185E-20
8.80086E-04 6.06158E-20
9.32601E-04 5.39663E-20
9.86636E-04 4.82015E-20
1.04219E-03 4.31846E-20
1.09927E-03 3.88021E-20
1.15786E-03 3.49602E-20
1.21797E-03 3.15810E-20
1.27961E-03 2.85994E-20
1.34276E-03 2.59605E-20
1.40743E-03 2.36182E-20
1.47362E-03 2.15335E-20
1.54133E-03 1.96731E-20
1.61056E-03 1.80088E-20
1.68131E-03 1.65163E-20
1.75357E-03 1.51748E-20
1.82735E-03 1.39664E-20
1.90265E-03 1.28755E-20
1.97947E-03 1.18888E-20
2.05780E-03 1.09945E-20
2.13765E-03 1.01824E-20
2.21902E-03 9.44373E-21
2.30190E-03 8.77059E-21
2.38630E-03 8.15618E-21
2.47222E-03 7.59446E-21
2.55965E-03 7.08010E-21
2.64859E-03 6.60841E-21
2.73905E-03 6.17521E-21
2.83103E-03 5.77681E-21
2.92452E-03 5.40991E-21
3.01952E-03 5.07157E-21
3.11604E-03 4.75917E-21
3.21407E-03 4.47036E-21
3.31362E-03 4.20305E-21
3.41468E-03 3.95535E-21
3.51725E-03 3.72555E-21
3.62133E-03 3.51213E-21
3.72692E-03 3.31372E-21
3.83403E-03 3.12907E-21
3.94265E-03 2.95704E-21
4.05278E-03 2.79663E-21
4.16442E-03 2.64690E-21
4.27757E-03 2.50702E-21
4.39223E-03 2.37621E-21
4.50840E-03 2.25379E-21
4.62608E-03 2.13911E-21
4.74527E-03 2.03161E-21
4.86597E-03 1.93074E-21
4.98817E-03 1.83602E-21
5.11188E-03 1.74702E-21
5.23711E-03 1.66332E-21
5.36383E-03 1.58455E-21
5.49207E-03 1.51036E-21
5.62181E-03 1.44044E-21
5.75306E-03 1.37451E-21
5.88581E-03 1.31228E-21
6.02007E-03 1.25352E-21
6.15583E-03 1.19799E-21
6.29310E-03 1.14549E-21
6.43187E-03 1.09581E-21
6.57214E-03 1.04879E-21
6.71392E-03 1.00425E-21
6.85720E-03 9.62035E-22
7.00198E-03 9.22004E-22
7.14827E-03 8.84021E-22
7.29605E-03 8.47963E-22
7.44534E-03 8.13715E-22
7.59612E-03 7.81168E-22
7.97965E-03 7.06608E-22
8.37255E-03 6.40687E-22
8.77480E-03 5.82235E-22
9.18641E-03 5.30261E-22
9.60736E-03 4.83926E-22
1.00376E-02 4.42514E-22
1.04773E-02 4.05411E-22
1.09262E-02 3.72092E-22
1.13844E-02 3.42105E-22
1.18520E-02 3.15060E-22
1.23288E-02 2.90618E-22
1.28150E-02 2.68484E-22
1.33104E-02 2.48404E-22
1.38150E-02 2.30154E-22
1.43290E-02 2.13537E-22
1.48521E-02 1.98381E-22
1.53845E-02 1.84537E-22
1.59262E-02 1.71872E-22
1.64770E-02 1.60265E-22
1.70371E-02 1.49614E-22
1.76063E-02 1.39827E-22
1.81848E-02 1.30821E-22
1.87724E-02 1.22522E-22
1.93692E-02 1.14865E-22
1.99751E-02 1.07792E-22
2.05901E-02 1.01251E-22
2.12143E-02 9.51941E-23
2.18476E-02 8.95791E-23
2.24900E-02 8.43685E-23
2.31415E-02 7.95279E-23
2.38021E-02 7.50262E-23
2.44717E-02 7.08354E-23
2.51504E-02 6.69306E-23
2.58382E-02 6.32885E-23
2.65349E-02 5.98883E-23
2.72407E-02 5.67110E-23
2.79555E-02 5.37398E-23
2.86793E-02 5.09585E-23
2.94120E-02 4.83528E-23
3.01537E-02 4.59099E-23
3.09043E-02 4.36179E-23
3.16639E-02 4.14653E-23
3.24324E-02 3.94424E-23
3.32098E-02 3.75403E-23
3.39961E-02 3.57500E-23
3.47912E-02 3.40639E-23
3.55952E-02 3.24750E-23
3.64081E-02 3.09765E-23
3.72297E-02 2.95624E-23
3.80602E-02 2.82272E-23
3.88995E-02 2.69656E-23
3.97476E-02 2.57728E-23
4.06044E-02 2.46444E-23
4.14700E-02 2.35763E-23
4.23443E-02 2.25647E-23
4.32273E-02 2.16061E-23
4.41190E-02 2.06972E-23
4.50194E-02 1.98350E-23
4.59284E-02 1.90166E-23
4.68461E-02 1.82394E-23
4.87074E-02 1.67991E-23
5.06030E-02 1.54962E-23
5.25328E-02 1.43156E-23
5.44967E-02 1.32438E-23
5.64946E-02 1.22690E-23
5.85262E-02 1.13809E-23
6.05914E-02 1.05707E-23
6.26901E-02 9.83015E-24
6.48222E-02 9.15237E-24
6.69873E-02 8.53110E-24
6.91854E-02 7.96077E-24
7.14163E-02 7.43654E-24
7.36799E-02 6.95405E-24
7.59760E-02 6.50940E-24
7.83043E-02 6.09911E-24
8.06647E-02 5.72007E-24
8.30571E-02 5.36950E-24
8.54812E-02 5.04488E-24
8.79369E-02 4.74398E-24
9.04240E-02 4.46475E-24
9.29422E-02 4.20536E-24
9.54915E-02 3.96418E-24
9.80716E-02 3.73968E-24
1.00682E-01 3.53054E-24
1.03323E-01 3.33550E-24
1.05995E-01 3.15347E-24
1.08696E-01 2.98342E-24
1.11427E-01 2.82442E-24
1.14188E-01 2.67564E-24
1.16978E-01 2.53630E-24
1.19797E-01 2.40571E-24
1.22645E-01 2.28322E-24
1.25522E-01 2.16824E-24
1.28428E-01 2.06023E-24
1.31361E-01 1.95869E-24
1.34323E-01 1.86318E-24
1.37313E-01 1.77327E-24
1.40330E-01 1.68857E-24
1.43375E-01 1.60874E-24
1.46447E-01 1.53344E-24
1.49545E-01 1.46238E-24
1.52671E-01 1.39527E-24
1.55823E-01 1.33186E-24
1.59001E-01 1.27190E-24
1.62205E-01 1.21518E-24
1.65435E-01 1.16150E-24
1.68690E-01 1.11066E-24
1.71970E-01 1.06248E-24
1.75276E-01 1.01680E-24
1.78606E-01 9.73480E-25
1.81961E-01 9.32364E-25
1.85340E-01 8.93325E-25
1.88743E-01 8.56240E-25
1.92169E-01 8.20994E-25
1.95619E-01 7.87481E-25
1.99092E-01 7.55601E-25
2.02589E-01 7.25260E-25
2.06107E-01 6.96372E-25
2.09649E-01 6.68856E-25
2.13212E-01 6.42634E-25
2.16797E-01 6.17637E-25
2.20404E-01 5.93796E-25
2.24032E-01 5.71050E-25
2.27680E-01 5.49340E-25
2.31350E-01 5.28610E-25
2.35040E-01 5.08808E-25
2.38751E-01 4.89887E-25
2.42481E-01 4.71800E-25
2.46231E-01 4.54505E-25
2.50000E-01 4.37960E-25
2.53788E-01 4.22128E-25
2.57595E-01 4.06973E-25
2.61421E-01 3.92461E-25
2.65264E-01 3.78560E-25
2.69126E-01 3.65240E-25
2.73005E-01 3.52473E-25
2.76901E-01 3.40233E-25
2.80814E-01 3.28492E-25
2.84744E-01 3.17229E-25
2.88691E-01 3.06420E-25
2.92653E-01 2.96043E-25
2.96632E-01 2.86080E-25
3.00625E-01 2.76509E-25
3.04634E-01 2.67314E-25
3.08658E-01 2.58477E-25
3.12697E-01 2.49983E-25
3.16749E-01 2.41814E-25
3.20816E-01 2.33958E-25
3.24896E-01 2.26399E-25
3.28990E-01 2.19125E-25
3.33097E-01 2.12124E-25
3.37216E-01 2.05383E-25
3.41348E-01 1.98891E-25
3.45492E-01 1.92638E-25
3.49647E-01 1.86613E-25
3.53814E-01 1.80807E-25
3.57992E-01 1.75209E-25
3.62181E-01 1.69813E-25
3.66381E-01 1.64608E-25
3.70590E-01 1.59588E-25
3.74810E-01 1.54745E-25
3.79039E-01 1.50071E-25
3.83277E-01 1.45559E-25
3.87524E-01 1.41204E-25
3.91780E-01 1.36998E-25
3.96044E-01 1.32936E-25
4.00316E-01 1.29012E-25
4.04596E-01 1.25220E-25
4.08882E-01 1.21556E-25
4.13176E-01 1.18015E-25
4.17476E-01 1.14591E-25
4.21783E-01 1.11280E-25
4.26095E-01 1.08078E-25
4.30413E-01 1.04981E-25
4.34737E-01 1.01984E-25
4.39065E-01 9.90849E-26
4.43398E-01 9.62785E-26
4.47736E-01 9.35620E-26
4.52077E-01 9.09320E-26
4.56422E-01 8.83853E-26
4.60770E-01 8.59188E-26
4.65122E-01 8.35297E-26
4.69476E-01 8.12151E-26
4.73832E-01 7.89723E-26
4.78190E-01 7.67988E-26
4.82550E-01 7.46921E-26
4.86912E-01 7.26498E-26
4.91274E-01 7.06697E-26
4.95637E-01 6.87496E-26
5.00000E-01 6.68873E-26
5.04363E-01 6.50808E-26
5.08726E-01 6.33284E-26
5.13088E-01 6.16280E-26
5.17450E-01 5.99778E-26
5.21810E-01 5.83763E-26
5.26168E-01 5.68217E-26
5.30524E-01 5.53125E-26
5.34878E-01 5.38471E-26
5.39230E-01 5.24241E-26
5.43578E-01 5.10420E-26
5.47923E-01 4.96996E-26
5.52264E-01 4.83954E-26
5.56602E-01 4.71283E-26
5.60935E-01 4.58971E-26
5.65263E-01 4.47005E-26
5.69587E-01 4.35375E-26
5.73905E-01 4.24070E-26
5.78217E-01 4.13079E-26
5.82524E-01 4.02393E-26
5.86824E-01 3.92001E-26
5.91118E-01 3.81895E-26
5.95404E-01 3.72066E-26
5.99684E-01 3.62504E-26
6.03956E-01 3.53203E-26
6.08220E-01 3.44152E-26
6.12476E-01 3.35346E-26
6.16723E-01 3.26775E-26
6.20961E-01 3.18434E-26
6.25190E-01 3.10315E-26
6.29410E-01 3.02411E-26
6.33619E-01 2.94717E-26
6.37819E-01 2.87225E-26
6.42008E-01 2.79929E-26
6.46186E-01 2.72824E-26
6.50353E-01 2.65904E-26
6.54508E-01 2.59164E-26
6.58652E-01 2.52599E-26
6.62784E-01 2.46202E-26
6.66903E-01 2.39970E-26
6.71010E-01 2.33897E-26
6.75104E-01 2.27980E-26
6.79184E-01 2.22212E-26
6.83251E-01 2.16591E-26
6.87303E-01 2.11112E-26
6.91342E-01 2.05771E-26
6.95366E-01 2.00564E-26
6.99375E-01 1.95488E-26
7.03368E-01 1.90538E-26
7.07347E-01 1.85711E-26
7.11309E-01 1.81004E-26
7.15256E-01 1.76413E-26
7.19186E-01 1.71936E-26
7.23099E-01 1.67568E-26
7.26995E-01 1.63308E-26
7.30874E-01 1.59152E-26
7.34736E-01 1.55097E-26
7.38579E-01 1.51140E-26
7.42405E-01 1.47280E-26
7.46212E-01 1.43513E-26
7.50000E-01 1.39837E-26
7.53769E-01 1.36249E-26
7.57519E-01 1.32747E-26
7.61249E-01 1.29330E-26
7.64960E-01 1.25994E-26
7.68650E-01 1.22737E-26
7.72320E-01 1.19558E-26
7.75968E-01 1.16454E-26
7.79596E-01 1.13424E-26
7.83203E-01 1.10466E-26
7.86788E-01 1.07577E-26
7.90351E-01 1.04756E-26
7.93893E-01 1.02002E-26
7.97411E-01 9.93121E-27
8.00908E-01 9.66852E-27
8.04381E-01 9.41198E-27
8.07831E-01 9.16142E-27
8.11257E-01 8.91670E-27
8.14660E-01 8.67767E-27
8.18039E-01 8.44420E-27
8.21394E-01 8.21615E-27
8.24724E-01 7.99338E-27
8.28030E-01 7.77577E-27
8.31310E-01 7.56320E-27
8.34565E-01 7.35554E-27
8.37795E-01 7.15267E-27
8.40999E-01 6.95448E-27
8.44177E-01 6.76086E-27
8.47329E-01 6.57170E-27
8.50455E-01 6.38690E-27
8.53553E-01 6.20635E-27
8.56625E-01 6.02996E-27
8.59670E-01 5.85763E-27
8.62687E-01 5.68927E-27
8.65677E-01 5.52478E-27
8.68639E-01 5.36408E-27
8.71572E-01 5.20708E-27
8.74478E-01 5.05369E-27
8.77355E-01 4.90385E-27
8.80203E-01 4.75746E-27
8.83022E-01 4.61445E-27
8.85812E-01 4.47475E-27
8.88573E-01 4.33829E-27
8.91304E-01 4.20499E-27
8.94005E-01 4.07478E-27
8.96677E-01 3.94760E-27
8.99318E-01 3.82339E-27
9.01928E-01 3.70207E-27
9.04508E-01 3.58360E-27
9.07058E-01 3.46791E-27
9.09576E-01 3.35494E-27
9.12063E-01 3.24463E-27
9.14519E-01 3.13694E-27
9.16943E-01 3.03181E-27
9.19335E-01 2.92918E-27
9.21696E-01 2.82901E-27
9.24024E-01 2.73125E-27
9.26320E-01 2.63585E-27
9.28584E-01 2.54276E-27
9.30815E-01 2.45194E-27
9.33013E-01 2.36335E-27
9.35178E-01 2.27694E-27
9.37310E-01 2.19267E-27
9.39409E-01 2.11051E-27
9.41474E-01 2.03040E-27
9.43505E-01 1.95233E-27
9.45503E-01 1.87624E-27
9.47467E-01 1.80210E-27
9.49397E-01 1.72989E-27
9.51293E-01 1.65956E-27
9.53154E-01 1.59108E-27
9.54981E-01 1.52442E-27
9.56773E-01 1.45956E-27
9.58530E-01 1.39645E-27
9.60252E-01 1.33508E-27
9.61940E-01 1.27541E-27
9.63592E-01 1.21741E-27
9.65209E-01 1.16107E-27
9.66790E-01 1.10635E-27
9.68336E-01 1.05323E-27
9.69846E-01 1.00169E-27
9.71321E-01 9.51702E-28
9.72759E-01 9.03244E-28
9.74162E-01 8.56294E-28
9.75528E-01 8.10833E-28
9.76858E-01 7.66841E-28
9.78152E-01 7.24296E-28
9.79410E-01 6.83182E-28
9.80631E-01 6.43479E-28
9.81815E-01 6.05171E-28
9.82963E-01 5.68240E-28
9.84074E-01 5.32670E-28
9.85148E-01 4.98445E-28
9.86185E-01 4.65552E-28
9.87185E-01 4.33975E-28
9.88148E-01 4.03700E-28
9.89074E-01 3.74715E-28
9.89962E-01 3.47007E-28
9.90814E-01 3.20564E-28
9.91627E-01 2.95374E-28
9.92404E-01 2.71428E-28
9.93143E-01 2.48713E-28
9.93844E-01 2.27221E-28
9.94508E-01 2.06942E-28
9.95134E-01 1.87868E-28
9.95722E-01 1.69991E-28
9.96273E-01 1.53302E-28
9.96786E-01 1.37795E-28
9.97261E-01 1.23463E-28
9.97698E-01 1.10300E-28
9.98097E-01 9.83004E-29
9.98459E-01 8.74588E-29
9.98782E-01 7.77708E-29
9.99067E-01 6.92323E-29
9.99315E-01 6.18395E-29
9.99524E-01 5.55894E-29
9.99695E-01 5.04793E-29
9.99829E-01 4.65070E-29
9.99924E-01 4.36708E-29
9.99981E-01 4.19696E-29
1.00000E+00 4.14026E-29
