 #
 # Subroutine ELSEPA. Elastic scattering of electrons and positrons
 #                    by neutral atoms and positive ions
 #
 # Projectile: positron
 # Kinetic energy = 7.00000E+08 eV = 2.57245E+07 a.u.
 #
 # WARNING: High-energy factorization with free-atom DF screening.
 #          Absorption, polarization and exchange corrections are
 #          switched off.
 #          Phase shifts are calculated for the bare nucleus.
 #          Scattering amplitudes are not evaluated.
 #
 # Element: Cs,  Z =  55,  atomic weight = 1.32905E+02 g/mol
 #
 # Nuclear model: Fermi distribution
 #                Average radius = 5.46049E-13 cm
 #                Skin thickness = 5.46000E-14 cm
 #
 # Number of electrons = 55
 #
 # Total elastic cross section = 6.56674E-18 cm**2 = 2.34503E-01 a0**2
 # 1st transport cross section = 1.19771E-26 cm**2 = 4.27709E-10 a0**2
 # 2nd transport cross section = 3.59239E-26 cm**2 = 1.28287E-09 a0**2
 #
 #
 # Differential cross section:                       MU=(1-COS(THETA))/2
 #
 #  THETA        MU          DCS          DCS        Sherman      error
 #  (deg)                 (cm**2/sr)   (a0**2/sr)    function
 #----------------------------------------------------------------------
0.00000E+00 4.96873E-08
7.61557E-13 3.64110E-08
1.18994E-12 3.16048E-08
1.71346E-12 2.72173E-08
2.33225E-12 2.34211E-08
3.04617E-12 2.02798E-08
3.85530E-12 1.76852E-08
4.75964E-12 1.55373E-08
5.75917E-12 1.37509E-08
6.85391E-12 1.22518E-08
8.04379E-12 1.09685E-08
9.32893E-12 9.85774E-09
1.07092E-11 8.88519E-09
1.21847E-11 8.02553E-09
1.37554E-11 7.26230E-09
1.54213E-11 6.58196E-09
1.71823E-11 5.97048E-09
1.90386E-11 5.42270E-09
2.09900E-11 4.93161E-09
2.30367E-11 4.49023E-09
2.51785E-11 4.09263E-09
2.74156E-11 3.73578E-09
2.97478E-11 3.41526E-09
3.21752E-11 3.12633E-09
3.46979E-11 2.86629E-09
3.73157E-11 2.63237E-09
4.00286E-11 2.42166E-09
4.28368E-11 2.23109E-09
4.57402E-11 2.05913E-09
4.87388E-11 1.89836E-09
5.18325E-11 1.75230E-09
5.50215E-11 1.62220E-09
5.83057E-11 1.50596E-09
6.16850E-11 1.40182E-09
6.51595E-11 1.30826E-09
6.87293E-11 1.22397E-09
7.23943E-11 1.14784E-09
7.61544E-11 1.07198E-09
1.18991E-10 5.84198E-10
1.71347E-10 3.45392E-10
2.33223E-10 2.15414E-10
3.04617E-10 1.39681E-10
3.85531E-10 9.43355E-11
4.75965E-10 6.61970E-11
5.75917E-10 4.80423E-11
6.85389E-10 3.58605E-11
8.04380E-10 2.74204E-11
9.32891E-10 2.13827E-11
1.07092E-09 1.69348E-11
1.21847E-09 1.35854E-11
1.37554E-09 1.10152E-11
1.54213E-09 9.02058E-12
1.71823E-09 7.44794E-12
1.90386E-09 6.19858E-12
2.09900E-09 5.19620E-12
2.30367E-09 4.38437E-12
2.51785E-09 3.72174E-12
2.74156E-09 3.17855E-12
2.97478E-09 2.73049E-12
3.21752E-09 2.35833E-12
3.46978E-09 2.04751E-12
3.73156E-09 1.78641E-12
4.00286E-09 1.56573E-12
4.28368E-09 1.37809E-12
4.57402E-09 1.21788E-12
4.87388E-09 1.08012E-12
5.18326E-09 9.61574E-13
5.50215E-09 8.59336E-13
5.83057E-09 7.70243E-13
6.16850E-09 6.92341E-13
6.51596E-09 6.24328E-13
6.87293E-09 5.64465E-13
7.23942E-09 5.11472E-13
7.61544E-09 4.64728E-13
1.18991E-08 1.98688E-13
1.71347E-08 9.84712E-14
2.33223E-08 5.41046E-14
3.04617E-08 3.21040E-14
3.85531E-08 2.02222E-14
4.75965E-08 1.33605E-14
5.75917E-08 9.17757E-15
6.85389E-08 6.51133E-15
8.04380E-08 4.74721E-15
9.32891E-08 3.54239E-15
1.07092E-07 2.69685E-15
1.21847E-07 2.08927E-15
1.37554E-07 1.64360E-15
1.54213E-07 1.31068E-15
1.71823E-07 1.05795E-15
1.90386E-07 8.63292E-16
2.09900E-07 7.11404E-16
2.30367E-07 5.91485E-16
2.51785E-07 4.95793E-16
2.74156E-07 4.18684E-16
2.97478E-07 3.55992E-16
3.21752E-07 3.04601E-16
3.46978E-07 2.62151E-16
3.73156E-07 2.26841E-16
4.00286E-07 1.97277E-16
4.28368E-07 1.72374E-16
4.57402E-07 1.51276E-16
4.87388E-07 1.33307E-16
5.18325E-07 1.17928E-16
5.50215E-07 1.04702E-16
5.83057E-07 9.32783E-17
6.16850E-07 8.33702E-17
6.51596E-07 7.47424E-17
6.87293E-07 6.72018E-17
7.23942E-07 6.05883E-17
7.61543E-07 5.47680E-17
1.18991E-06 2.24749E-17
1.71347E-06 1.08485E-17
2.33223E-06 5.85852E-18
3.04617E-06 3.43496E-18
3.85531E-06 2.14464E-18
4.75964E-06 1.40713E-18
5.75916E-06 9.61055E-19
6.85388E-06 6.78522E-19
8.04378E-06 4.92578E-19
9.32888E-06 3.66175E-19
1.07092E-05 2.77832E-19
1.21846E-05 2.14590E-19
1.37553E-05 1.68358E-19
1.54212E-05 1.33930E-19
1.71822E-05 1.07867E-19
1.90385E-05 8.78165E-20
2.09899E-05 7.22644E-20
2.30365E-05 6.00010E-20
2.51783E-05 5.02225E-20
2.74153E-05 4.23496E-20
2.97475E-05 3.59565E-20
3.21749E-05 3.07248E-20
3.46974E-05 2.64123E-20
3.73152E-05 2.28324E-20
4.00281E-05 1.98405E-20
4.28362E-05 1.73237E-20
4.57395E-05 1.51932E-20
4.87380E-05 1.33797E-20
5.18317E-05 1.18281E-20
5.50205E-05 1.04944E-20
5.83045E-05 9.34326E-21
6.16838E-05 8.34566E-21
6.51582E-05 7.47787E-21
6.87277E-05 6.72016E-21
7.23925E-05 6.05614E-21
7.61524E-05 5.48134E-21
9.21439E-05 3.73458E-21
1.09658E-04 2.62876E-21
1.28695E-04 1.90179E-21
1.49255E-04 1.40796E-21
1.71338E-04 1.06335E-21
1.94942E-04 8.17009E-22
2.20070E-04 6.37260E-22
2.46720E-04 5.03696E-22
2.74892E-04 4.02824E-22
3.04586E-04 3.25555E-22
3.35803E-04 2.65586E-22
3.68542E-04 2.18508E-22
4.02802E-04 1.81156E-22
4.38585E-04 1.51236E-22
4.75889E-04 1.27060E-22
5.14715E-04 1.07368E-22
5.55063E-04 9.12108E-23
5.96931E-04 7.78634E-23
6.40321E-04 6.67683E-23
6.85233E-04 5.74920E-23
7.31665E-04 4.96945E-23
7.79618E-04 4.31074E-23
8.29092E-04 3.75167E-23
8.80086E-04 3.27513E-23
9.32601E-04 2.86727E-23
9.86636E-04 2.51687E-23
1.04219E-03 2.21477E-23
1.09927E-03 1.95343E-23
1.15786E-03 1.72666E-23
1.21797E-03 1.52929E-23
1.27961E-03 1.35704E-23
1.34276E-03 1.20633E-23
1.40743E-03 1.07412E-23
1.47362E-03 9.57885E-24
1.54133E-03 8.55467E-24
1.61056E-03 7.65038E-24
1.68131E-03 6.85038E-24
1.75357E-03 6.14134E-24
1.82735E-03 5.51182E-24
1.90265E-03 4.95199E-24
1.97947E-03 4.45336E-24
2.05780E-03 4.00858E-24
2.13765E-03 3.61129E-24
2.21902E-03 3.25595E-24
2.30190E-03 2.93773E-24
2.38630E-03 2.65244E-24
2.47222E-03 2.39636E-24
2.55965E-03 2.16629E-24
2.64859E-03 1.95936E-24
2.73905E-03 1.77309E-24
2.83103E-03 1.60526E-24
2.92452E-03 1.45392E-24
3.01952E-03 1.31735E-24
3.11604E-03 1.19402E-24
3.21407E-03 1.08257E-24
3.31362E-03 9.81793E-25
3.41468E-03 8.90613E-25
3.51725E-03 8.08073E-25
3.62133E-03 7.33314E-25
3.72692E-03 6.65573E-25
3.83403E-03 6.04165E-25
3.94265E-03 5.48476E-25
4.05278E-03 4.97954E-25
4.16442E-03 4.52107E-25
4.27757E-03 4.10490E-25
4.39223E-03 3.72702E-25
4.50840E-03 3.38384E-25
4.62608E-03 3.07211E-25
4.74527E-03 2.78891E-25
4.86597E-03 2.53159E-25
4.98817E-03 2.29775E-25
5.11188E-03 2.08525E-25
5.23711E-03 1.89212E-25
5.36383E-03 1.71660E-25
5.49207E-03 1.55708E-25
5.62181E-03 1.41211E-25
5.75306E-03 1.28036E-25
5.88581E-03 1.16065E-25
6.02007E-03 1.05189E-25
6.15583E-03 9.53077E-26
6.29310E-03 8.63328E-26
6.43187E-03 7.81823E-26
6.57214E-03 7.07821E-26
6.71392E-03 6.40647E-26
6.85720E-03 5.79685E-26
7.00198E-03 5.24376E-26
7.14827E-03 4.74212E-26
7.29605E-03 4.28728E-26
7.44534E-03 3.87502E-26
7.59612E-03 3.50149E-26
7.97965E-03 2.71483E-26
8.37255E-03 2.10229E-26
8.77480E-03 1.62672E-26
9.18641E-03 1.25864E-26
9.60736E-03 9.74720E-27
1.00376E-02 7.56478E-27
1.04773E-02 5.89309E-27
1.09262E-02 4.61694E-27
1.13844E-02 3.64568E-27
1.18520E-02 2.90825E-27
1.23288E-02 2.34911E-27
1.28150E-02 1.92507E-27
1.33104E-02 1.60270E-27
1.38150E-02 1.35627E-27
1.43290E-02 1.16615E-27
1.48521E-02 1.01744E-27
1.53845E-02 8.98976E-28
1.59262E-02 8.02448E-28
1.64770E-02 7.21770E-28
1.70371E-02 6.52544E-28
1.76063E-02 5.91650E-28
1.81848E-02 5.36921E-28
1.87724E-02 4.86893E-28
1.93692E-02 4.40609E-28
1.99751E-02 3.97469E-28
2.05901E-02 3.57121E-28
2.12143E-02 3.19371E-28
2.18476E-02 2.84125E-28
2.24900E-02 2.51344E-28
2.31415E-02 2.21011E-28
2.38021E-02 1.93113E-28
2.44717E-02 1.67626E-28
2.51504E-02 1.44508E-28
2.58382E-02 1.23695E-28
2.65349E-02 1.05104E-28
2.72407E-02 8.86322E-29
2.79555E-02 7.41584E-29
2.86793E-02 6.15500E-29
2.94120E-02 5.06644E-29
3.01537E-02 4.13537E-29
3.09043E-02 3.34676E-29
3.16639E-02 2.68572E-29
3.24324E-02 2.13771E-29
3.32098E-02 1.68879E-29
3.39961E-02 1.32580E-29
3.47912E-02 1.03647E-29
3.55952E-02 8.09534E-30
3.64081E-02 6.34760E-30
3.72297E-02 5.02978E-30
3.80602E-02 4.06075E-30
3.88995E-02 3.36960E-30
3.97476E-02 2.89519E-30
4.06044E-02 2.58550E-30
4.14700E-02 2.39696E-30
4.23443E-02 2.29368E-30
4.32273E-02 2.24663E-30
4.41190E-02 2.23285E-30
4.50194E-02 2.23469E-30
4.59284E-02 2.23902E-30
4.68461E-02 2.23654E-30
4.87074E-02 2.18922E-30
5.06030E-02 2.07151E-30
5.25328E-02 1.88777E-30
5.44967E-02 1.65581E-30
5.64946E-02 1.39824E-30
5.85262E-02 1.13692E-30
6.05914E-02 8.89780E-31
6.26901E-02 6.69533E-31
6.48222E-02 4.83501E-31
6.69873E-02 3.34284E-31
6.91854E-02 2.20776E-31
7.14163E-02 1.39313E-31
7.36799E-02 8.47498E-32
7.59760E-02 5.13659E-32
7.83043E-02 3.35587E-32
8.06647E-02 2.63101E-32
8.30571E-02 2.54536E-32
8.54812E-02 2.77751E-32
8.79369E-02 3.09915E-32
9.04240E-02 3.36473E-32
9.29422E-02 3.49653E-32
9.54915E-02 3.46816E-32
9.80716E-02 3.28854E-32
1.00682E-01 2.98780E-32
1.03323E-01 2.60586E-32
1.05995E-01 2.18396E-32
1.08696E-01 1.75892E-32
1.11427E-01 1.35996E-32
1.14188E-01 1.00737E-32
1.16978E-01 7.12678E-33
1.19797E-01 4.79795E-33
1.22645E-01 3.06590E-33
1.25522E-01 1.86705E-33
1.28428E-01 1.11277E-33
1.31361E-01 7.04178E-34
1.34323E-01 5.43892E-34
1.37313E-01 5.44192E-34
1.40330E-01 6.32015E-34
1.43375E-01 7.51113E-34
1.46447E-01 8.62032E-34
1.49545E-01 9.40524E-34
1.52671E-01 9.75032E-34
1.55823E-01 9.63728E-34
1.59001E-01 9.11535E-34
1.62205E-01 8.27412E-34
1.65435E-01 7.22095E-34
1.68690E-01 6.06336E-34
1.71970E-01 4.89706E-34
1.75276E-01 3.79867E-34
1.78606E-01 2.82269E-34
1.81961E-01 2.00160E-34
1.85340E-01 1.34817E-34
1.88743E-01 8.59166E-35
1.92169E-01 5.19575E-35
1.95619E-01 3.06863E-35
1.99092E-01 1.94804E-35
2.02589E-01 1.56648E-35
2.06107E-01 1.67496E-35
2.09649E-01 2.05882E-35
2.13212E-01 2.54638E-35
2.16797E-01 3.01143E-35
2.20404E-01 3.37112E-35
2.24032E-01 3.58083E-35
2.27680E-01 3.62680E-35
2.31350E-01 3.51843E-35
2.35040E-01 3.28053E-35
2.38751E-01 2.94641E-35
2.42481E-01 2.55219E-35
2.46231E-01 2.13244E-35
2.50000E-01 1.71714E-35
2.53788E-01 1.32999E-35
2.57595E-01 9.87702E-36
2.61421E-01 7.00146E-36
2.65264E-01 4.71104E-36
2.69126E-01 2.99329E-36
2.73005E-01 1.79845E-36
2.76901E-01 1.05201E-36
2.80814E-01 6.66523E-37
2.84744E-01 5.51300E-37
2.88691E-01 6.20241E-37
2.92653E-01 7.97238E-37
2.96632E-01 1.01943E-36
3.00625E-01 1.23862E-36
3.04634E-01 1.42111E-36
3.08658E-01 1.54675E-36
3.12697E-01 1.60650E-36
3.16749E-01 1.60060E-36
3.20816E-01 1.53570E-36
3.24896E-01 1.42283E-36
3.28990E-01 1.27512E-36
3.33097E-01 1.10622E-36
3.37216E-01 9.28871E-37
3.41348E-01 7.54131E-37
3.45492E-01 5.90805E-37
3.49647E-01 4.45180E-37
3.53814E-01 3.21185E-37
3.57992E-01 2.20536E-37
3.62181E-01 1.43089E-37
3.66381E-01 8.73140E-38
3.70590E-01 5.06389E-38
3.74810E-01 2.99065E-38
3.79039E-01 2.16964E-38
3.83277E-01 2.26234E-38
3.87524E-01 2.95557E-38
3.91780E-01 3.97596E-38
3.96044E-01 5.09981E-38
4.00316E-01 6.15703E-38
4.04596E-01 7.02693E-38
4.08882E-01 7.63795E-38
4.13176E-01 7.95788E-38
4.17476E-01 7.98822E-38
4.21783E-01 7.75428E-38
4.26095E-01 7.29831E-38
4.30413E-01 6.67187E-38
4.34737E-01 5.92934E-38
4.39065E-01 5.12400E-38
4.43398E-01 4.30388E-38
4.47736E-01 3.50878E-38
4.52077E-01 2.77067E-38
4.56422E-01 2.11225E-38
4.60770E-01 1.54718E-38
4.65122E-01 1.08259E-38
4.69476E-01 1.00000E-45
4.73832E-01 1.00000E-45
4.78190E-01 1.00000E-45
4.82550E-01 1.00000E-45
4.86912E-01 1.00000E-45
4.91274E-01 1.00000E-45
4.95637E-01 1.00000E-45
5.00000E-01 1.00000E-45
5.04363E-01 1.00000E-45
5.08726E-01 1.00000E-45
5.13088E-01 1.00000E-45
5.17450E-01 1.00000E-45
5.21810E-01 1.00000E-45
5.26168E-01 1.00000E-45
5.30524E-01 1.00000E-45
5.34878E-01 1.00000E-45
5.39230E-01 1.00000E-45
5.43578E-01 1.00000E-45
5.47923E-01 1.00000E-45
5.52264E-01 1.00000E-45
5.56602E-01 1.00000E-45
5.60935E-01 1.00000E-45
5.65263E-01 1.00000E-45
5.69587E-01 1.00000E-45
5.73905E-01 1.00000E-45
5.78217E-01 1.00000E-45
5.82524E-01 1.00000E-45
5.86824E-01 1.00000E-45
5.91118E-01 1.00000E-45
5.95404E-01 1.00000E-45
5.99684E-01 1.00000E-45
6.03956E-01 1.00000E-45
6.08220E-01 1.00000E-45
6.12476E-01 1.00000E-45
6.16723E-01 1.00000E-45
6.20961E-01 1.00000E-45
6.25190E-01 1.00000E-45
6.29410E-01 1.00000E-45
6.33619E-01 1.00000E-45
6.37819E-01 1.00000E-45
6.42008E-01 1.00000E-45
6.46186E-01 1.00000E-45
6.50353E-01 1.00000E-45
6.54508E-01 1.00000E-45
6.58652E-01 1.00000E-45
6.62784E-01 1.00000E-45
6.66903E-01 1.00000E-45
6.71010E-01 1.00000E-45
6.75104E-01 1.00000E-45
6.79184E-01 1.00000E-45
6.83251E-01 1.00000E-45
6.87303E-01 1.00000E-45
6.91342E-01 1.00000E-45
6.95366E-01 1.00000E-45
6.99375E-01 1.00000E-45
7.03368E-01 1.00000E-45
7.07347E-01 1.00000E-45
7.11309E-01 1.00000E-45
7.15256E-01 1.00000E-45
7.19186E-01 1.00000E-45
7.23099E-01 1.00000E-45
7.26995E-01 1.00000E-45
7.30874E-01 1.00000E-45
7.34736E-01 1.00000E-45
7.38579E-01 1.00000E-45
7.42405E-01 1.00000E-45
7.46212E-01 1.00000E-45
7.50000E-01 1.00000E-45
7.53769E-01 1.00000E-45
7.57519E-01 1.00000E-45
7.61249E-01 1.00000E-45
7.64960E-01 1.00000E-45
7.68650E-01 1.00000E-45
7.72320E-01 1.00000E-45
7.75968E-01 1.00000E-45
7.79596E-01 1.00000E-45
7.83203E-01 1.00000E-45
7.86788E-01 1.00000E-45
7.90351E-01 1.00000E-45
7.93893E-01 1.00000E-45
7.97411E-01 1.00000E-45
8.00908E-01 1.00000E-45
8.04381E-01 1.00000E-45
8.07831E-01 1.00000E-45
8.11257E-01 1.00000E-45
8.14660E-01 1.00000E-45
8.18039E-01 1.00000E-45
8.21394E-01 1.00000E-45
8.24724E-01 1.00000E-45
8.28030E-01 1.00000E-45
8.31310E-01 1.00000E-45
8.34565E-01 1.00000E-45
8.37795E-01 1.00000E-45
8.40999E-01 1.00000E-45
8.44177E-01 1.00000E-45
8.47329E-01 1.00000E-45
8.50455E-01 1.00000E-45
8.53553E-01 1.00000E-45
8.56625E-01 1.00000E-45
8.59670E-01 1.00000E-45
8.62687E-01 1.00000E-45
8.65677E-01 1.00000E-45
8.68639E-01 1.00000E-45
8.71572E-01 1.00000E-45
8.74478E-01 1.00000E-45
8.77355E-01 1.00000E-45
8.80203E-01 1.00000E-45
8.83022E-01 1.00000E-45
8.85812E-01 1.00000E-45
8.88573E-01 1.00000E-45
8.91304E-01 1.00000E-45
8.94005E-01 1.00000E-45
8.96677E-01 1.00000E-45
8.99318E-01 1.00000E-45
9.01928E-01 1.00000E-45
9.04508E-01 1.00000E-45
9.07058E-01 1.00000E-45
9.09576E-01 1.00000E-45
9.12063E-01 1.00000E-45
9.14519E-01 1.00000E-45
9.16943E-01 1.00000E-45
9.19335E-01 1.00000E-45
9.21696E-01 1.00000E-45
9.24024E-01 1.00000E-45
9.26320E-01 1.00000E-45
9.28584E-01 1.00000E-45
9.30815E-01 1.00000E-45
9.33013E-01 1.00000E-45
9.35178E-01 1.00000E-45
9.37310E-01 1.00000E-45
9.39409E-01 1.00000E-45
9.41474E-01 1.00000E-45
9.43505E-01 1.00000E-45
9.45503E-01 1.00000E-45
9.47467E-01 1.00000E-45
9.49397E-01 1.00000E-45
9.51293E-01 1.00000E-45
9.53154E-01 1.00000E-45
9.54981E-01 1.00000E-45
9.56773E-01 1.00000E-45
9.58530E-01 1.00000E-45
9.60252E-01 1.00000E-45
9.61940E-01 1.00000E-45
9.63592E-01 1.00000E-45
9.65209E-01 1.00000E-45
9.66790E-01 1.00000E-45
9.68336E-01 1.00000E-45
9.69846E-01 1.00000E-45
9.71321E-01 1.00000E-45
9.72759E-01 1.00000E-45
9.74162E-01 1.00000E-45
9.75528E-01 1.00000E-45
9.76858E-01 1.00000E-45
9.78152E-01 1.00000E-45
9.79410E-01 1.00000E-45
9.80631E-01 1.00000E-45
9.81815E-01 1.00000E-45
9.82963E-01 1.00000E-45
9.84074E-01 1.00000E-45
9.85148E-01 1.00000E-45
9.86185E-01 1.00000E-45
9.87185E-01 1.00000E-45
9.88148E-01 1.00000E-45
9.89074E-01 1.00000E-45
9.89962E-01 1.00000E-45
9.90814E-01 1.00000E-45
9.91627E-01 1.00000E-45
9.92404E-01 1.00000E-45
9.93143E-01 1.00000E-45
9.93844E-01 1.00000E-45
9.94508E-01 1.00000E-45
9.95134E-01 1.00000E-45
9.95722E-01 1.00000E-45
9.96273E-01 1.00000E-45
9.96786E-01 1.00000E-45
9.97261E-01 1.00000E-45
9.97698E-01 1.00000E-45
9.98097E-01 1.00000E-45
9.98459E-01 1.00000E-45
9.98782E-01 1.00000E-45
9.99067E-01 1.00000E-45
9.99315E-01 1.00000E-45
9.99524E-01 1.00000E-45
9.99695E-01 1.00000E-45
9.99829E-01 1.00000E-45
9.99924E-01 1.00000E-45
9.99981E-01 1.00000E-45
1.00000E+00 1.00000E-45
