 #
 # Subroutine ELSEPA. Elastic scattering of electrons and positrons
 #                    by neutral atoms and positive ions
 #
 # Projectile: positron
 # Kinetic energy = 2.00000E+08 eV = 7.34987E+06 a.u.
 #
 # WARNING: High-energy factorization with free-atom DF screening.
 #          Absorption, polarization and exchange corrections are
 #          switched off.
 #          Phase shifts are calculated for the bare nucleus.
 #          Scattering amplitudes are not evaluated.
 #
 # Element: Cs,  Z =  55,  atomic weight = 1.32905E+02 g/mol
 #
 # Nuclear model: Fermi distribution
 #                Average radius = 5.46049E-13 cm
 #                Skin thickness = 5.46000E-14 cm
 #
 # Number of electrons = 55
 #
 # Total elastic cross section = 6.62056E-18 cm**2 = 2.36425E-01 a0**2
 # 1st transport cross section = 1.45098E-25 cm**2 = 5.18154E-09 a0**2
 # 2nd transport cross section = 4.34205E-25 cm**2 = 1.55057E-08 a0**2
 #
 #
 # Differential cross section:                       MU=(1-COS(THETA))/2
 #
 #  THETA        MU          DCS          DCS        Sherman      error
 #  (deg)                 (cm**2/sr)   (a0**2/sr)    function
 #----------------------------------------------------------------------
0.00000E+00 4.07091E-09
7.61557E-13 3.95520E-09
1.18994E-12 3.89270E-09
1.71346E-12 3.81872E-09
2.33225E-12 3.73452E-09
3.04617E-12 3.64151E-09
3.85530E-12 3.54113E-09
4.75964E-12 3.43489E-09
5.75917E-12 3.32439E-09
6.85391E-12 3.21313E-09
8.04379E-12 3.09719E-09
9.32893E-12 2.98033E-09
1.07092E-11 2.86677E-09
1.21847E-11 2.75122E-09
1.37554E-11 2.63992E-09
1.54213E-11 2.53195E-09
1.71823E-11 2.42392E-09
1.90386E-11 2.32399E-09
2.09900E-11 2.22620E-09
2.30367E-11 2.13040E-09
2.51785E-11 2.04318E-09
2.74156E-11 1.95742E-09
2.97478E-11 1.87589E-09
3.21752E-11 1.80036E-09
3.46979E-11 1.72661E-09
3.73157E-11 1.65820E-09
4.00286E-11 1.59357E-09
4.28368E-11 1.53080E-09
4.57402E-11 1.47356E-09
4.87388E-11 1.41849E-09
5.18325E-11 1.36567E-09
5.50215E-11 1.31703E-09
5.83057E-11 1.27003E-09
6.16850E-11 1.22551E-09
6.51595E-11 1.18368E-09
6.87293E-11 1.14335E-09
7.23943E-11 1.10534E-09
7.61544E-11 1.06911E-09
1.18991E-10 7.81663E-10
1.71347E-10 5.84906E-10
2.33223E-10 4.42740E-10
3.04617E-10 3.38462E-10
3.85531E-10 2.61576E-10
4.75965E-10 2.04680E-10
5.75917E-10 1.62258E-10
6.85389E-10 1.29469E-10
8.04380E-10 1.05671E-10
9.32891E-10 8.73900E-11
1.07092E-09 7.24835E-11
1.21847E-09 6.11033E-11
1.37554E-09 5.17057E-11
1.54213E-09 4.39899E-11
1.71823E-09 3.78774E-11
1.90386E-09 3.25300E-11
2.09900E-09 2.81465E-11
2.30367E-09 2.45443E-11
2.51785E-09 2.13405E-11
2.74156E-09 1.86985E-11
2.97478E-09 1.64454E-11
3.21752E-09 1.44757E-11
3.46978E-09 1.28200E-11
3.73156E-09 1.13745E-11
4.00286E-09 1.01227E-11
4.28368E-09 9.05345E-12
4.57402E-09 8.10627E-12
4.87388E-09 7.28690E-12
5.18326E-09 6.57465E-12
5.50215E-09 5.94227E-12
5.83057E-09 5.39037E-12
6.16850E-09 4.90295E-12
6.51596E-09 4.46958E-12
6.87293E-09 4.08722E-12
7.23942E-09 3.74485E-12
7.61544E-09 3.43923E-12
1.18991E-08 1.62617E-12
1.71347E-08 8.71140E-13
2.33223E-08 5.04499E-13
3.04617E-08 3.09916E-13
3.85531E-08 1.99986E-13
4.75965E-08 1.34721E-13
5.75917E-08 9.40810E-14
6.85389E-08 6.77522E-14
8.04380E-08 5.00621E-14
9.32891E-08 3.78081E-14
1.07092E-07 2.90959E-14
1.21847E-07 2.27574E-14
1.37554E-07 1.80545E-14
1.54213E-07 1.45047E-14
1.71823E-07 1.17841E-14
1.90386E-07 9.67063E-15
2.09900E-07 8.00903E-15
2.30367E-07 6.68818E-15
2.51785E-07 5.62789E-15
2.74156E-07 4.76865E-15
2.97478E-07 4.06683E-15
3.21752E-07 3.48919E-15
3.46978E-07 3.01033E-15
3.73156E-07 2.61072E-15
4.00286E-07 2.27517E-15
4.28368E-07 1.99176E-15
4.57402E-07 1.75109E-15
4.87388E-07 1.54567E-15
5.18325E-07 1.36948E-15
5.50215E-07 1.21770E-15
5.83057E-07 1.08636E-15
6.16850E-07 9.72256E-16
6.51596E-07 8.72750E-16
6.87293E-07 7.85659E-16
7.23942E-07 7.09171E-16
7.61543E-07 6.41773E-16
1.18991E-06 2.65875E-16
1.71347E-06 1.29243E-16
2.33223E-06 7.01613E-17
3.04617E-06 4.12978E-17
3.85531E-06 2.58603E-17
4.75964E-06 1.70050E-17
5.75916E-06 1.16341E-17
6.85388E-06 8.22484E-18
8.04378E-06 5.97715E-18
9.32888E-06 4.44705E-18
1.07092E-05 3.37646E-18
1.21846E-05 2.60934E-18
1.37553E-05 2.04811E-18
1.54212E-05 1.62991E-18
1.71822E-05 1.31315E-18
1.90385E-05 1.06935E-18
2.09899E-05 8.80182E-19
2.30365E-05 7.30960E-19
2.51783E-05 6.11940E-19
2.74153E-05 5.16089E-19
2.97475E-05 4.38238E-19
3.21749E-05 3.74517E-19
3.46974E-05 3.21983E-19
3.73152E-05 2.78367E-19
4.00281E-05 2.41909E-19
4.28362E-05 2.11236E-19
4.57395E-05 1.85271E-19
4.87380E-05 1.63167E-19
5.18317E-05 1.44253E-19
5.50205E-05 1.27995E-19
5.83045E-05 1.13960E-19
6.16838E-05 1.01797E-19
6.51582E-05 9.12153E-20
6.87277E-05 8.19759E-20
7.23925E-05 7.38783E-20
7.61524E-05 6.68481E-20
9.21439E-05 4.56413E-20
1.09658E-04 3.22110E-20
1.28695E-04 2.33769E-20
1.49255E-04 1.73712E-20
1.71338E-04 1.31758E-20
1.94942E-04 1.01727E-20
2.20070E-04 7.97784E-21
2.46720E-04 6.34386E-21
2.74892E-04 5.10706E-21
3.04586E-04 4.15724E-21
3.35803E-04 3.41799E-21
3.68542E-04 2.83576E-21
4.02802E-04 2.37219E-21
4.38585E-04 1.99941E-21
4.75889E-04 1.69693E-21
5.14715E-04 1.44941E-21
5.55063E-04 1.24531E-21
5.96931E-04 1.07579E-21
6.40321E-04 9.34078E-22
6.85233E-04 8.14874E-22
7.31665E-04 7.14024E-22
7.79618E-04 6.28246E-22
8.29092E-04 5.54916E-22
8.80086E-04 4.91933E-22
9.32601E-04 4.37595E-22
9.86636E-04 3.90517E-22
1.04219E-03 3.49569E-22
1.09927E-03 3.13819E-22
1.15786E-03 2.82495E-22
1.21797E-03 2.54959E-22
1.27961E-03 2.30673E-22
1.34276E-03 2.09190E-22
1.40743E-03 1.90131E-22
1.47362E-03 1.73176E-22
1.54133E-03 1.58052E-22
1.61056E-03 1.44529E-22
1.68131E-03 1.32408E-22
1.75357E-03 1.21518E-22
1.82735E-03 1.11713E-22
1.90265E-03 1.02867E-22
1.97947E-03 9.48682E-23
2.05780E-03 8.76227E-23
2.13765E-03 8.10471E-23
2.21902E-03 7.50687E-23
2.30190E-03 6.96238E-23
2.38630E-03 6.46566E-23
2.47222E-03 6.01179E-23
2.55965E-03 5.59643E-23
2.64859E-03 5.21575E-23
2.73905E-03 4.86635E-23
2.83103E-03 4.54521E-23
2.92452E-03 4.24965E-23
3.01952E-03 3.97727E-23
3.11604E-03 3.72595E-23
3.21407E-03 3.49377E-23
3.31362E-03 3.27903E-23
3.41468E-03 3.08018E-23
3.51725E-03 2.89584E-23
3.62133E-03 2.72478E-23
3.72692E-03 2.56587E-23
3.83403E-03 2.41809E-23
3.94265E-03 2.28054E-23
4.05278E-03 2.15238E-23
4.16442E-03 2.03286E-23
4.27757E-03 1.92130E-23
4.39223E-03 1.81708E-23
4.50840E-03 1.71962E-23
4.62608E-03 1.62843E-23
4.74527E-03 1.54301E-23
4.86597E-03 1.46296E-23
4.98817E-03 1.38786E-23
5.11188E-03 1.31737E-23
5.23711E-03 1.25114E-23
5.36383E-03 1.18889E-23
5.49207E-03 1.13032E-23
5.62181E-03 1.07519E-23
5.75306E-03 1.02326E-23
5.88581E-03 9.74310E-24
6.02007E-03 9.28142E-24
6.15583E-03 8.84569E-24
6.29310E-03 8.43423E-24
6.43187E-03 8.04546E-24
6.57214E-03 7.67790E-24
6.71392E-03 7.33022E-24
6.85720E-03 7.00115E-24
7.00198E-03 6.68953E-24
7.14827E-03 6.39429E-24
7.29605E-03 6.11441E-24
7.44534E-03 5.84898E-24
7.59612E-03 5.59711E-24
7.97965E-03 5.02165E-24
8.37255E-03 4.51489E-24
8.77480E-03 4.06742E-24
9.18641E-03 3.67126E-24
9.60736E-03 3.31967E-24
1.00376E-02 3.00690E-24
1.04773E-02 2.72804E-24
1.09262E-02 2.47887E-24
1.13844E-02 2.25578E-24
1.18520E-02 2.05566E-24
1.23288E-02 1.87580E-24
1.28150E-02 1.71386E-24
1.33104E-02 1.56782E-24
1.38150E-02 1.43589E-24
1.43290E-02 1.31652E-24
1.48521E-02 1.20836E-24
1.53845E-02 1.11021E-24
1.59262E-02 1.02102E-24
1.64770E-02 9.39877E-25
1.70371E-02 8.65949E-25
1.76063E-02 7.98516E-25
1.81848E-02 7.36934E-25
1.87724E-02 6.80633E-25
1.93692E-02 6.29104E-25
1.99751E-02 5.81893E-25
2.05901E-02 5.38595E-25
2.12143E-02 4.98847E-25
2.18476E-02 4.62324E-25
2.24900E-02 4.28735E-25
2.31415E-02 3.97817E-25
2.38021E-02 3.69334E-25
2.44717E-02 3.43073E-25
2.51504E-02 3.18843E-25
2.58382E-02 2.96469E-25
2.65349E-02 2.75795E-25
2.72407E-02 2.56677E-25
2.79555E-02 2.38988E-25
2.86793E-02 2.22610E-25
2.94120E-02 2.07437E-25
3.01537E-02 1.93371E-25
3.09043E-02 1.80324E-25
3.16639E-02 1.68216E-25
3.24324E-02 1.56973E-25
3.32098E-02 1.46527E-25
3.39961E-02 1.36819E-25
3.47912E-02 1.27790E-25
3.55952E-02 1.19390E-25
3.64081E-02 1.11572E-25
3.72297E-02 1.04292E-25
3.80602E-02 9.75100E-26
3.88995E-02 9.11899E-26
3.97476E-02 8.52978E-26
4.06044E-02 7.98028E-26
4.14700E-02 7.46762E-26
4.23443E-02 6.98919E-26
4.32273E-02 6.54254E-26
4.41190E-02 6.12544E-26
4.50194E-02 5.73582E-26
4.59284E-02 5.37176E-26
4.68461E-02 5.03149E-26
4.87074E-02 4.41591E-26
5.06030E-02 3.87736E-26
5.25328E-02 3.40578E-26
5.44967E-02 2.99251E-26
5.64946E-02 2.63007E-26
5.85262E-02 2.31201E-26
6.05914E-02 2.03272E-26
6.26901E-02 1.78736E-26
6.48222E-02 1.57171E-26
6.69873E-02 1.38210E-26
6.91854E-02 1.21532E-26
7.14163E-02 1.06859E-26
7.36799E-02 9.39483E-27
7.59760E-02 8.25852E-27
7.83043E-02 7.25838E-27
8.06647E-02 6.37803E-27
8.30571E-02 5.60314E-27
8.54812E-02 4.92111E-27
8.79369E-02 4.32087E-27
9.04240E-02 3.79269E-27
9.29422E-02 3.32800E-27
9.54915E-02 2.91928E-27
9.80716E-02 2.55987E-27
1.00682E-01 2.24394E-27
1.03323E-01 1.96631E-27
1.05995E-01 1.72244E-27
1.08696E-01 1.50832E-27
1.11427E-01 1.32041E-27
1.14188E-01 1.15557E-27
1.16978E-01 1.01106E-27
1.19797E-01 8.84427E-28
1.22645E-01 7.73537E-28
1.25522E-01 6.76486E-28
1.28428E-01 5.91602E-28
1.31361E-01 5.17407E-28
1.34323E-01 4.52597E-28
1.37313E-01 3.96023E-28
1.40330E-01 3.46672E-28
1.43375E-01 3.03649E-28
1.46447E-01 2.66167E-28
1.49545E-01 2.33534E-28
1.52671E-01 2.05139E-28
1.55823E-01 1.80446E-28
1.59001E-01 1.58983E-28
1.62205E-01 1.40335E-28
1.65435E-01 1.24139E-28
1.68690E-01 1.10075E-28
1.71970E-01 9.78642E-29
1.75276E-01 8.72617E-29
1.78606E-01 7.80533E-29
1.81961E-01 7.00520E-29
1.85340E-01 6.30947E-29
1.88743E-01 5.70391E-29
1.92169E-01 5.17615E-29
1.95619E-01 4.71542E-29
1.99092E-01 4.31238E-29
2.02589E-01 3.95895E-29
2.06107E-01 3.64812E-29
2.09649E-01 3.37385E-29
2.13212E-01 3.13091E-29
2.16797E-01 2.91482E-29
2.20404E-01 2.72174E-29
2.24032E-01 2.54836E-29
2.27680E-01 2.39185E-29
2.31350E-01 2.24981E-29
2.35040E-01 2.12019E-29
2.38751E-01 2.00125E-29
2.42481E-01 1.89152E-29
2.46231E-01 1.78976E-29
2.50000E-01 1.69492E-29
2.53788E-01 1.60612E-29
2.57595E-01 1.52262E-29
2.61421E-01 1.44383E-29
2.65264E-01 1.36921E-29
2.69126E-01 1.29836E-29
2.73005E-01 1.23091E-29
2.76901E-01 1.16659E-29
2.80814E-01 1.10514E-29
2.84744E-01 1.04637E-29
2.88691E-01 9.90114E-30
2.92653E-01 9.36239E-30
2.96632E-01 8.84629E-30
3.00625E-01 8.35188E-30
3.04634E-01 7.87834E-30
3.08658E-01 7.42496E-30
3.12697E-01 6.99110E-30
3.16749E-01 6.57620E-30
3.20816E-01 6.17975E-30
3.24896E-01 5.80126E-30
3.28990E-01 5.44025E-30
3.33097E-01 5.09627E-30
3.37216E-01 4.76888E-30
3.41348E-01 4.45763E-30
3.45492E-01 4.16206E-30
3.49647E-01 3.88173E-30
3.53814E-01 3.61616E-30
3.57992E-01 3.36491E-30
3.62181E-01 3.12749E-30
3.66381E-01 2.90344E-30
3.70590E-01 2.69227E-30
3.74810E-01 2.49350E-30
3.79039E-01 2.30665E-30
3.83277E-01 2.13124E-30
3.87524E-01 1.96677E-30
3.91780E-01 1.81279E-30
3.96044E-01 1.66880E-30
4.00316E-01 1.53435E-30
4.04596E-01 1.40896E-30
4.08882E-01 1.29219E-30
4.13176E-01 1.18360E-30
4.17476E-01 1.08275E-30
4.21783E-01 9.89223E-31
4.26095E-01 9.02603E-31
4.30413E-01 8.22498E-31
4.34737E-01 7.48523E-31
4.39065E-01 6.80309E-31
4.43398E-01 6.17500E-31
4.47736E-01 5.59755E-31
4.52077E-01 5.06745E-31
4.56422E-01 4.58159E-31
4.60770E-01 4.13698E-31
4.65122E-01 3.73077E-31
4.69476E-01 3.36027E-31
4.73832E-01 3.02290E-31
4.78190E-01 2.71625E-31
4.82550E-01 2.43802E-31
4.86912E-01 2.18604E-31
4.91274E-01 1.95827E-31
4.95637E-01 1.75279E-31
5.00000E-01 1.56781E-31
5.04363E-01 1.40164E-31
5.08726E-01 1.25269E-31
5.13088E-01 1.11950E-31
5.17450E-01 1.00069E-31
5.21810E-01 8.94976E-32
5.26168E-01 8.01170E-32
5.30524E-01 7.18168E-32
5.34878E-01 6.44948E-32
5.39230E-01 5.80564E-32
5.43578E-01 5.24144E-32
5.47923E-01 4.74882E-32
5.52264E-01 4.32039E-32
5.56602E-01 3.94936E-32
5.60935E-01 3.62948E-32
5.65263E-01 3.35509E-32
5.69587E-01 3.12095E-32
5.73905E-01 2.92235E-32
5.78217E-01 2.75498E-32
5.82524E-01 2.61492E-32
5.86824E-01 2.49865E-32
5.91118E-01 2.40296E-32
5.95404E-01 2.32499E-32
5.99684E-01 2.26214E-32
6.03956E-01 2.21212E-32
6.08220E-01 2.17285E-32
6.12476E-01 2.14249E-32
6.16723E-01 2.11943E-32
6.20961E-01 2.10222E-32
6.25190E-01 2.08960E-32
6.29410E-01 2.08047E-32
6.33619E-01 2.07385E-32
6.37819E-01 2.06892E-32
6.42008E-01 2.06497E-32
6.46186E-01 2.06139E-32
6.50353E-01 2.05766E-32
6.54508E-01 2.05335E-32
6.58652E-01 2.04812E-32
6.62784E-01 2.04168E-32
6.66903E-01 2.03381E-32
6.71010E-01 2.02433E-32
6.75104E-01 2.01313E-32
6.79184E-01 2.00012E-32
6.83251E-01 1.98525E-32
6.87303E-01 1.96851E-32
6.91342E-01 1.94990E-32
6.95366E-01 1.92947E-32
6.99375E-01 1.90726E-32
7.03368E-01 1.88333E-32
7.07347E-01 1.85777E-32
7.11309E-01 1.83067E-32
7.15256E-01 1.80213E-32
7.19186E-01 1.77225E-32
7.23099E-01 1.74114E-32
7.26995E-01 1.70891E-32
7.30874E-01 1.67568E-32
7.34736E-01 1.64155E-32
7.38579E-01 1.60664E-32
7.42405E-01 1.57106E-32
7.46212E-01 1.53492E-32
7.50000E-01 1.49832E-32
7.53769E-01 1.46136E-32
7.57519E-01 1.42414E-32
7.61249E-01 1.38676E-32
7.64960E-01 1.34930E-32
7.68650E-01 1.31184E-32
7.72320E-01 1.27447E-32
7.75968E-01 1.23726E-32
7.79596E-01 1.20027E-32
7.83203E-01 1.16358E-32
7.86788E-01 1.12724E-32
7.90351E-01 1.09131E-32
7.93893E-01 1.05583E-32
7.97411E-01 1.02085E-32
8.00908E-01 9.86417E-33
8.04381E-01 9.52563E-33
8.07831E-01 9.19320E-33
8.11257E-01 8.86717E-33
8.14660E-01 8.54781E-33
8.18039E-01 8.23532E-33
8.21394E-01 7.92989E-33
8.24724E-01 7.63166E-33
8.28030E-01 7.34076E-33
8.31310E-01 7.05728E-33
8.34565E-01 6.78129E-33
8.37795E-01 6.51283E-33
8.40999E-01 6.25191E-33
8.44177E-01 5.99855E-33
8.47329E-01 5.75271E-33
8.50455E-01 5.51436E-33
8.53553E-01 5.28346E-33
8.56625E-01 5.05992E-33
8.59670E-01 4.84367E-33
8.62687E-01 4.63461E-33
8.65677E-01 4.43264E-33
8.68639E-01 4.23765E-33
8.71572E-01 4.04952E-33
8.74478E-01 3.86810E-33
8.77355E-01 3.69328E-33
8.80203E-01 3.52490E-33
8.83022E-01 3.36282E-33
8.85812E-01 3.20690E-33
8.88573E-01 3.05697E-33
8.91304E-01 2.91288E-33
8.94005E-01 2.77448E-33
8.96677E-01 2.64160E-33
8.99318E-01 2.51409E-33
9.01928E-01 2.39179E-33
9.04508E-01 2.27454E-33
9.07058E-01 2.16218E-33
9.09576E-01 2.05456E-33
9.12063E-01 1.95152E-33
9.14519E-01 1.85291E-33
9.16943E-01 1.75858E-33
9.19335E-01 1.66837E-33
9.21696E-01 1.58214E-33
9.24024E-01 1.49975E-33
9.26320E-01 1.42106E-33
9.28584E-01 1.34593E-33
9.30815E-01 1.27423E-33
9.33013E-01 1.20582E-33
9.35178E-01 1.14057E-33
9.37310E-01 1.07837E-33
9.39409E-01 1.01908E-33
9.41474E-01 9.62598E-34
9.43505E-01 9.08803E-34
9.45503E-01 8.57584E-34
9.47467E-01 8.08834E-34
9.49397E-01 7.62451E-34
9.51293E-01 7.18332E-34
9.53154E-01 6.76381E-34
9.54981E-01 6.36504E-34
9.56773E-01 5.98609E-34
9.58530E-01 5.62611E-34
9.60252E-01 5.28425E-34
9.61940E-01 4.95971E-34
9.63592E-01 4.65170E-34
9.65209E-01 4.35947E-34
9.66790E-01 4.08232E-34
9.68336E-01 3.81955E-34
9.69846E-01 3.57050E-34
9.71321E-01 3.33453E-34
9.72759E-01 3.11103E-34
9.74162E-01 2.89944E-34
9.75528E-01 2.69920E-34
9.76858E-01 2.50976E-34
9.78152E-01 2.33063E-34
9.79410E-01 2.16132E-34
9.80631E-01 2.00136E-34
9.81815E-01 1.85033E-34
9.82963E-01 1.70779E-34
9.84074E-01 1.57336E-34
9.85148E-01 1.44664E-34
9.86185E-01 1.32728E-34
9.87185E-01 1.21494E-34
9.88148E-01 1.10930E-34
9.89074E-01 1.01004E-34
9.89962E-01 9.16883E-35
9.90814E-01 8.29552E-35
9.91627E-01 7.47784E-35
9.92404E-01 6.71338E-35
9.93143E-01 5.99977E-35
9.93844E-01 5.33505E-35
9.94508E-01 4.71702E-35
9.95134E-01 4.14396E-35
9.95722E-01 3.61393E-35
9.96273E-01 3.12551E-35
9.96786E-01 2.67705E-35
9.97261E-01 2.26720E-35
9.97698E-01 1.89471E-35
9.98097E-01 1.55840E-35
9.98459E-01 1.25719E-35
9.98782E-01 9.90250E-36
9.99067E-01 7.56613E-36
9.99315E-01 5.55612E-36
9.99524E-01 3.86596E-36
9.99695E-01 2.49035E-36
9.99829E-01 1.42499E-36
9.99924E-01 6.66254E-37
9.99981E-01 2.11949E-37
1.00000E+00 6.07850E-38
