 #
 # Subroutine ELSEPA. Elastic scattering of electrons and positrons
 #                    by neutral atoms and positive ions
 #
 # Projectile: positron
 # Kinetic energy = 4.50000E+08 eV = 1.65372E+07 a.u.
 #
 # WARNING: High-energy factorization with free-atom DF screening.
 #          Absorption, polarization and exchange corrections are
 #          switched off.
 #          Phase shifts are calculated for the bare nucleus.
 #          Scattering amplitudes are not evaluated.
 #
 # Element: Cs,  Z =  55,  atomic weight = 1.32905E+02 g/mol
 #
 # Nuclear model: Fermi distribution
 #                Average radius = 5.46049E-13 cm
 #                Skin thickness = 5.46000E-14 cm
 #
 # Number of electrons = 55
 #
 # Total elastic cross section = 6.61053E-18 cm**2 = 2.36066E-01 a0**2
 # 1st transport cross section = 2.89207E-26 cm**2 = 1.03278E-09 a0**2
 # 2nd transport cross section = 8.67192E-26 cm**2 = 3.09680E-09 a0**2
 #
 #
 # Differential cross section:                       MU=(1-COS(THETA))/2
 #
 #  THETA        MU          DCS          DCS        Sherman      error
 #  (deg)                 (cm**2/sr)   (a0**2/sr)    function
 #----------------------------------------------------------------------
0.00000E+00 2.05507E-08
7.61557E-13 1.78829E-08
1.18994E-12 1.66529E-08
1.71346E-12 1.53467E-08
2.33225E-12 1.40482E-08
3.04617E-12 1.27957E-08
3.85530E-12 1.16223E-08
4.75964E-12 1.05477E-08
5.75917E-12 9.58003E-09
6.85391E-12 8.73029E-09
8.04379E-12 7.97776E-09
9.32893E-12 7.31105E-09
1.07092E-11 6.72084E-09
1.21847E-11 6.19756E-09
1.37554E-11 5.73285E-09
1.54213E-11 5.31830E-09
1.71823E-11 4.94413E-09
1.90386E-11 4.60498E-09
2.09900E-11 4.29628E-09
2.30367E-11 4.01411E-09
2.51785E-11 3.75462E-09
2.74156E-11 3.51499E-09
2.97478E-11 3.29340E-09
3.21752E-11 3.08809E-09
3.46979E-11 2.89754E-09
3.73157E-11 2.72038E-09
4.00286E-11 2.55461E-09
4.28368E-11 2.40026E-09
4.57402E-11 2.25646E-09
4.87388E-11 2.12242E-09
5.18325E-11 1.99743E-09
5.50215E-11 1.88052E-09
5.83057E-11 1.77117E-09
6.16850E-11 1.66919E-09
6.51595E-11 1.57405E-09
6.87293E-11 1.48527E-09
7.23943E-11 1.40239E-09
7.61544E-11 1.32469E-09
1.18991E-10 7.75269E-10
1.71347E-10 4.87367E-10
2.33223E-10 3.22659E-10
3.04617E-10 2.22953E-10
3.85531E-10 1.58910E-10
4.75965E-10 1.15936E-10
5.75917E-10 8.61969E-11
6.85389E-10 6.50131E-11
8.04380E-10 4.99058E-11
9.32891E-10 3.89638E-11
1.07092E-09 3.09034E-11
1.21847E-09 2.48707E-11
1.37554E-09 2.02825E-11
1.54213E-09 1.67346E-11
1.71823E-09 1.39578E-11
1.90386E-09 1.17530E-11
2.09900E-09 9.97938E-12
2.30367E-09 8.53561E-12
2.51785E-09 7.34433E-12
2.74156E-09 6.35531E-12
2.97478E-09 5.52556E-12
3.21752E-09 4.82530E-12
3.46978E-09 4.23169E-12
3.73156E-09 3.72559E-12
4.00286E-09 3.29058E-12
4.28368E-09 2.91643E-12
4.57402E-09 2.59312E-12
4.87388E-09 2.31258E-12
5.18326E-09 2.06823E-12
5.50215E-09 1.85442E-12
5.83057E-09 1.66687E-12
6.16850E-09 1.50216E-12
6.51596E-09 1.35711E-12
6.87293E-09 1.22905E-12
7.23942E-09 1.11569E-12
7.61544E-09 1.01499E-12
1.18991E-08 4.38586E-13
1.71347E-08 2.20252E-13
2.33223E-08 1.22669E-13
3.04617E-08 7.36336E-14
3.85531E-08 4.67951E-14
4.75965E-08 3.11173E-14
5.75917E-08 2.14735E-14
6.85389E-08 1.52850E-14
8.04380E-08 1.11701E-14
9.32891E-08 8.34989E-15
1.07092E-07 6.36565E-15
1.21847E-07 4.93723E-15
1.37554E-07 3.88798E-15
1.54213E-07 3.10333E-15
1.71823E-07 2.50711E-15
1.90386E-07 2.04751E-15
2.09900E-07 1.68862E-15
2.30367E-07 1.40508E-15
2.51785E-07 1.17866E-15
2.74156E-07 9.96079E-16
2.97478E-07 8.47536E-16
3.21752E-07 7.25686E-16
3.46978E-07 6.24970E-16
3.73156E-07 5.41137E-16
4.00286E-07 4.70900E-16
4.28368E-07 4.11696E-16
4.57402E-07 3.61509E-16
4.87388E-07 3.18739E-16
5.18325E-07 2.82109E-16
5.50215E-07 2.50591E-16
5.83057E-07 2.23352E-16
6.16850E-07 1.99714E-16
6.51596E-07 1.79120E-16
6.87293E-07 1.61112E-16
7.23942E-07 1.45309E-16
7.61543E-07 1.31397E-16
1.18991E-06 5.40624E-17
1.71347E-06 2.61365E-17
2.33223E-06 1.41283E-17
3.04617E-06 8.28895E-18
3.85531E-06 5.17752E-18
4.75964E-06 3.39808E-18
5.75916E-06 2.32137E-18
6.85388E-06 1.63921E-18
8.04378E-06 1.19015E-18
9.32888E-06 8.84827E-19
1.07092E-05 6.71409E-19
1.21846E-05 5.18612E-19
1.37553E-05 4.06902E-19
1.54212E-05 3.23706E-19
1.71822E-05 2.60722E-19
1.90385E-05 2.12266E-19
2.09899E-05 1.74679E-19
2.30365E-05 1.45039E-19
2.51783E-05 1.21404E-19
2.74153E-05 1.02374E-19
2.97475E-05 8.69209E-20
3.21749E-05 7.42746E-20
3.46974E-05 6.38499E-20
3.73152E-05 5.51964E-20
4.00281E-05 4.79637E-20
4.28362E-05 4.18794E-20
4.57395E-05 3.67295E-20
4.87380E-05 3.23457E-20
5.18317E-05 2.85948E-20
5.50205E-05 2.53709E-20
5.83045E-05 2.25881E-20
6.16838E-05 2.01765E-20
6.51582E-05 1.80786E-20
6.87277E-05 1.62469E-20
7.23925E-05 1.46417E-20
7.61524E-05 1.32795E-20
9.21439E-05 9.06398E-21
1.09658E-04 6.39403E-21
1.28695E-04 4.63755E-21
1.49255E-04 3.44341E-21
1.71338E-04 2.60926E-21
1.94942E-04 2.01224E-21
2.20070E-04 1.57598E-21
2.46720E-04 1.25128E-21
2.74892E-04 1.00559E-21
3.04586E-04 8.16990E-22
3.35803E-04 6.70277E-22
3.68542E-04 5.54801E-22
4.02802E-04 4.62925E-22
4.38585E-04 3.89104E-22
4.75889E-04 3.29259E-22
5.14715E-04 2.80340E-22
5.55063E-04 2.40049E-22
5.96931E-04 2.06630E-22
6.40321E-04 1.78730E-22
6.85233E-04 1.55297E-22
7.31665E-04 1.35504E-22
7.79618E-04 1.18698E-22
8.29092E-04 1.04358E-22
8.80086E-04 9.20657E-23
9.32601E-04 8.14828E-23
9.86636E-04 7.23344E-23
1.04219E-03 6.43960E-23
1.09927E-03 5.74824E-23
1.15786E-03 5.14408E-23
1.21797E-03 4.61440E-23
1.27961E-03 4.14861E-23
1.34276E-03 3.73781E-23
1.40743E-03 3.37450E-23
1.47362E-03 3.05236E-23
1.54133E-03 2.76600E-23
1.61056E-03 2.51085E-23
1.68131E-03 2.28299E-23
1.75357E-03 2.07906E-23
1.82735E-03 1.89618E-23
1.90265E-03 1.73184E-23
1.97947E-03 1.58389E-23
2.05780E-03 1.45046E-23
2.13765E-03 1.32991E-23
2.21902E-03 1.22081E-23
2.30190E-03 1.12194E-23
2.38630E-03 1.03218E-23
2.47222E-03 9.50583E-24
2.55965E-03 8.76302E-24
2.64859E-03 8.08589E-24
2.73905E-03 7.46785E-24
2.83103E-03 6.90303E-24
2.92452E-03 6.38623E-24
3.01952E-03 5.91283E-24
3.11604E-03 5.47871E-24
3.21407E-03 5.08018E-24
3.31362E-03 4.71395E-24
3.41468E-03 4.37706E-24
3.51725E-03 4.06689E-24
3.62133E-03 3.78103E-24
3.72692E-03 3.51736E-24
3.83403E-03 3.27394E-24
3.94265E-03 3.04904E-24
4.05278E-03 2.84109E-24
4.16442E-03 2.64865E-24
4.27757E-03 2.47044E-24
4.39223E-03 2.30528E-24
4.50840E-03 2.15213E-24
4.62608E-03 2.01001E-24
4.74527E-03 1.87804E-24
4.86597E-03 1.75543E-24
4.98817E-03 1.64143E-24
5.11188E-03 1.53540E-24
5.23711E-03 1.43670E-24
5.36383E-03 1.34480E-24
5.49207E-03 1.25916E-24
5.62181E-03 1.17934E-24
5.75306E-03 1.10490E-24
5.88581E-03 1.03544E-24
6.02007E-03 9.70598E-25
6.15583E-03 9.10046E-25
6.29310E-03 8.53476E-25
6.43187E-03 8.00603E-25
6.57214E-03 7.51168E-25
6.71392E-03 7.04930E-25
6.85720E-03 6.61666E-25
7.00198E-03 6.21171E-25
7.14827E-03 5.83256E-25
7.29605E-03 5.47746E-25
7.44534E-03 5.14476E-25
7.59612E-03 4.83298E-25
7.97965E-03 4.13608E-25
8.37255E-03 3.54222E-25
8.77480E-03 3.03541E-25
9.18641E-03 2.60233E-25
9.60736E-03 2.23184E-25
1.00376E-02 1.91458E-25
1.04773E-02 1.64266E-25
1.09262E-02 1.40943E-25
1.13844E-02 1.20927E-25
1.18520E-02 1.03741E-25
1.23288E-02 8.89791E-26
1.28150E-02 7.62963E-26
1.33104E-02 6.53982E-26
1.38150E-02 5.60335E-26
1.43290E-02 4.79868E-26
1.48521E-02 4.10738E-26
1.53845E-02 3.51365E-26
1.59262E-02 3.00388E-26
1.64770E-02 2.56641E-26
1.70371E-02 2.19119E-26
1.76063E-02 1.86956E-26
1.81848E-02 1.59406E-26
1.87724E-02 1.35827E-26
1.93692E-02 1.15665E-26
1.99751E-02 9.84396E-27
2.05901E-02 8.37396E-27
2.12143E-02 7.12084E-27
2.18476E-02 6.05383E-27
2.24900E-02 5.14642E-27
2.31415E-02 4.37571E-27
2.38021E-02 3.72197E-27
2.44717E-02 3.16818E-27
2.51504E-02 2.69970E-27
2.58382E-02 2.30392E-27
2.65349E-02 1.96998E-27
2.72407E-02 1.68858E-27
2.79555E-02 1.45170E-27
2.86793E-02 1.25251E-27
2.94120E-02 1.08512E-27
3.01537E-02 9.44533E-28
3.09043E-02 8.26468E-28
3.16639E-02 7.27282E-28
3.24324E-02 6.43883E-28
3.32098E-02 5.73646E-28
3.39961E-02 5.14356E-28
3.47912E-02 4.64141E-28
3.55952E-02 4.21429E-28
3.64081E-02 3.84903E-28
3.72297E-02 3.53463E-28
3.80602E-02 3.26193E-28
3.88995E-02 3.02336E-28
3.97476E-02 2.81268E-28
4.06044E-02 2.62477E-28
4.14700E-02 2.45545E-28
4.23443E-02 2.30136E-28
4.32273E-02 2.15976E-28
4.41190E-02 2.02850E-28
4.50194E-02 1.90586E-28
4.59284E-02 1.79050E-28
4.68461E-02 1.68139E-28
4.87074E-02 1.47894E-28
5.06030E-02 1.29431E-28
5.25328E-02 1.12526E-28
5.44967E-02 9.70718E-29
5.64946E-02 8.30184E-29
5.85262E-02 7.03389E-29
6.05914E-02 5.90074E-29
6.26901E-02 4.89879E-29
6.48222E-02 4.02290E-29
6.69873E-02 3.26631E-29
6.91854E-02 2.62090E-29
7.14163E-02 2.07742E-29
7.36799E-02 1.62594E-29
7.59760E-02 1.25621E-29
7.83043E-02 9.57973E-30
8.06647E-02 7.21301E-30
8.30571E-02 5.36797E-30
8.54812E-02 3.95773E-30
8.79369E-02 2.90363E-30
9.04240E-02 2.13579E-30
9.29422E-02 1.59333E-30
9.54915E-02 1.22420E-30
9.80716E-02 9.84725E-31
1.00682E-01 8.38988E-31
1.03323E-01 7.58103E-31
1.05995E-01 7.19382E-31
1.08696E-01 7.05508E-31
1.11427E-01 7.03713E-31
1.14188E-01 7.04995E-31
1.16978E-01 7.03403E-31
1.19797E-01 6.95392E-31
1.22645E-01 6.79249E-31
1.25522E-01 6.54615E-31
1.28428E-01 6.22067E-31
1.31361E-01 5.82793E-31
1.34323E-01 5.38321E-31
1.37313E-01 4.90319E-31
1.40330E-01 4.40437E-31
1.43375E-01 3.90207E-31
1.46447E-01 3.40974E-31
1.49545E-01 2.93849E-31
1.52671E-01 2.49707E-31
1.55823E-01 2.09176E-31
1.59001E-01 1.72664E-31
1.62205E-01 1.40375E-31
1.65435E-01 1.12340E-31
1.68690E-01 8.84509E-32
1.71970E-01 6.84864E-32
1.75276E-01 5.21456E-32
1.78606E-01 3.90729E-32
1.81961E-01 2.88822E-32
1.85340E-01 2.11769E-32
1.88743E-01 1.55660E-32
1.92169E-01 1.16768E-32
1.95619E-01 9.16426E-33
1.99092E-01 7.71724E-33
2.02589E-01 7.06219E-33
2.06107E-01 6.96459E-33
2.09649E-01 7.22864E-33
2.13212E-01 7.69554E-33
2.16797E-01 8.24080E-33
2.20404E-01 8.77083E-33
2.24032E-01 9.21916E-33
2.27680E-01 9.54246E-33
2.31350E-01 9.71660E-33
2.35040E-01 9.73291E-33
2.38751E-01 9.59462E-33
2.42481E-01 9.31376E-33
2.46231E-01 8.90838E-33
2.50000E-01 8.40021E-33
2.53788E-01 7.81270E-33
2.57595E-01 7.16948E-33
2.61421E-01 6.49316E-33
2.65264E-01 5.80448E-33
2.69126E-01 5.12170E-33
2.73005E-01 4.46025E-33
2.76901E-01 3.83264E-33
2.80814E-01 3.24842E-33
2.84744E-01 2.71439E-33
2.88691E-01 2.23474E-33
2.92653E-01 1.81142E-33
2.96632E-01 1.44444E-33
3.00625E-01 1.13218E-33
3.04634E-01 8.71778E-34
3.08658E-01 6.59395E-34
3.12697E-01 4.90542E-34
3.16749E-01 3.60331E-34
3.20816E-01 2.63701E-34
3.24896E-01 1.95612E-34
3.28990E-01 1.51192E-34
3.33097E-01 1.25861E-34
3.37216E-01 1.15417E-34
3.41348E-01 1.16089E-34
3.45492E-01 1.24575E-34
3.49647E-01 1.38047E-34
3.53814E-01 1.54152E-34
3.57992E-01 1.70982E-34
3.62181E-01 1.87050E-34
3.66381E-01 2.01249E-34
3.70590E-01 2.12808E-34
3.74810E-01 2.21248E-34
3.79039E-01 2.26337E-34
3.83277E-01 2.28044E-34
3.87524E-01 2.26496E-34
3.91780E-01 2.21944E-34
3.96044E-01 2.14723E-34
4.00316E-01 2.05222E-34
4.04596E-01 1.93864E-34
4.08882E-01 1.81077E-34
4.13176E-01 1.67278E-34
4.17476E-01 1.52863E-34
4.21783E-01 1.38194E-34
4.26095E-01 1.23593E-34
4.30413E-01 1.09336E-34
4.34737E-01 9.56551E-35
4.39065E-01 8.27341E-35
4.43398E-01 7.07135E-35
4.47736E-01 5.96923E-35
4.52077E-01 4.97312E-35
4.56422E-01 4.08572E-35
4.60770E-01 3.30682E-35
4.65122E-01 2.63374E-35
4.69476E-01 2.06183E-35
4.73832E-01 1.58487E-35
4.78190E-01 1.19549E-35
4.82550E-01 8.85553E-36
4.86912E-01 6.46470E-36
4.91274E-01 4.69502E-36
4.95637E-01 3.45992E-36
5.00000E-01 2.67567E-36
5.04363E-01 2.26296E-36
5.08726E-01 2.14808E-36
5.13088E-01 2.26379E-36
5.17450E-01 2.54982E-36
5.21810E-01 2.95308E-36
5.26168E-01 3.42774E-36
5.30524E-01 3.93520E-36
5.34878E-01 4.44337E-36
5.39230E-01 4.92672E-36
5.43578E-01 5.36547E-36
5.47923E-01 5.74523E-36
5.52264E-01 6.05605E-36
5.56602E-01 6.29217E-36
5.60935E-01 6.45134E-36
5.65263E-01 6.53400E-36
5.69587E-01 6.54318E-36
5.73905E-01 6.48352E-36
5.78217E-01 6.36099E-36
5.82524E-01 6.18276E-36
5.86824E-01 5.95622E-36
5.91118E-01 5.68956E-36
5.95404E-01 5.39044E-36
5.99684E-01 5.06662E-36
6.03956E-01 4.72542E-36
6.08220E-01 4.37366E-36
6.12476E-01 4.01759E-36
6.16723E-01 3.66271E-36
6.20961E-01 3.31401E-36
6.25190E-01 2.97556E-36
6.29410E-01 2.65084E-36
6.33619E-01 2.34264E-36
6.37819E-01 2.05313E-36
6.42008E-01 1.78386E-36
6.46186E-01 1.53577E-36
6.50353E-01 1.30950E-36
6.54508E-01 1.10502E-36
6.58652E-01 9.22200E-37
6.62784E-01 7.60337E-37
6.66903E-01 6.18657E-37
6.71010E-01 4.96089E-37
6.75104E-01 3.91451E-37
6.79184E-01 3.03437E-37
6.83251E-01 2.30658E-37
6.87303E-01 1.71702E-37
6.91342E-01 1.25142E-37
6.95366E-01 8.95794E-38
6.99375E-01 6.36396E-38
7.03368E-01 4.60193E-38
7.07347E-01 3.54841E-38
7.11309E-01 3.08745E-38
7.15256E-01 3.11196E-38
7.19186E-01 3.52590E-38
7.23099E-01 4.24008E-38
7.26995E-01 5.17628E-38
7.30874E-01 6.26632E-38
7.34736E-01 7.44942E-38
7.38579E-01 8.67455E-38
7.42405E-01 9.89716E-38
7.46212E-01 1.10838E-37
7.50000E-01 1.22035E-37
7.53769E-01 1.32352E-37
7.57519E-01 1.41613E-37
7.61249E-01 1.49677E-37
7.64960E-01 1.56516E-37
7.68650E-01 1.62037E-37
7.72320E-01 1.66273E-37
7.75968E-01 1.69237E-37
7.79596E-01 1.70959E-37
7.83203E-01 1.71501E-37
7.86788E-01 1.70952E-37
7.90351E-01 1.69379E-37
7.93893E-01 1.66903E-37
7.97411E-01 1.63589E-37
8.00908E-01 1.59548E-37
8.04381E-01 1.54861E-37
8.07831E-01 1.49664E-37
8.11257E-01 1.44005E-37
8.14660E-01 1.38016E-37
8.18039E-01 1.31744E-37
8.21394E-01 1.25289E-37
8.24724E-01 1.18714E-37
8.28030E-01 1.12090E-37
8.31310E-01 1.05474E-37
8.34565E-01 9.89139E-38
8.37795E-01 9.24635E-38
8.40999E-01 8.61510E-38
8.44177E-01 8.00234E-38
8.47329E-01 7.41008E-38
8.50455E-01 6.84017E-38
8.53553E-01 6.29486E-38
8.56625E-01 5.77531E-38
8.59670E-01 5.28264E-38
8.62687E-01 4.81731E-38
8.65677E-01 4.37925E-38
8.68639E-01 3.96950E-38
8.71572E-01 3.58552E-38
8.74478E-01 3.22958E-38
8.77355E-01 2.89927E-38
8.80203E-01 2.59373E-38
8.83022E-01 2.31332E-38
8.85812E-01 2.05527E-38
8.88573E-01 1.82001E-38
8.91304E-01 1.60588E-38
8.94005E-01 1.41132E-38
8.96677E-01 1.23519E-38
8.99318E-01 1.07691E-38
9.01928E-01 9.34673E-39
9.04508E-01 8.07331E-39
9.07058E-01 6.94206E-39
9.09576E-01 5.93769E-39
9.12063E-01 5.04919E-39
9.14519E-01 4.26993E-39
9.16943E-01 3.58723E-39
9.19335E-01 2.99394E-39
9.21696E-01 2.47934E-39
9.24024E-01 2.03708E-39
9.26320E-01 1.65935E-39
9.28584E-01 1.33866E-39
9.30815E-01 1.06895E-39
9.33013E-01 8.45015E-40
9.35178E-01 6.60027E-40
9.37310E-01 5.09986E-40
9.39409E-01 1.00000E-45
9.41474E-01 1.00000E-45
9.43505E-01 1.00000E-45
9.45503E-01 1.00000E-45
9.47467E-01 1.00000E-45
9.49397E-01 1.00000E-45
9.51293E-01 1.00000E-45
9.53154E-01 1.00000E-45
9.54981E-01 1.00000E-45
9.56773E-01 1.00000E-45
9.58530E-01 1.00000E-45
9.60252E-01 1.00000E-45
9.61940E-01 1.00000E-45
9.63592E-01 1.00000E-45
9.65209E-01 1.00000E-45
9.66790E-01 1.00000E-45
9.68336E-01 1.00000E-45
9.69846E-01 1.00000E-45
9.71321E-01 1.00000E-45
9.72759E-01 1.00000E-45
9.74162E-01 1.00000E-45
9.75528E-01 1.00000E-45
9.76858E-01 1.00000E-45
9.78152E-01 1.00000E-45
9.79410E-01 1.00000E-45
9.80631E-01 1.00000E-45
9.81815E-01 1.00000E-45
9.82963E-01 1.00000E-45
9.84074E-01 1.00000E-45
9.85148E-01 1.00000E-45
9.86185E-01 1.00000E-45
9.87185E-01 1.00000E-45
9.88148E-01 1.00000E-45
9.89074E-01 1.00000E-45
9.89962E-01 1.00000E-45
9.90814E-01 1.00000E-45
9.91627E-01 1.00000E-45
9.92404E-01 1.00000E-45
9.93143E-01 1.00000E-45
9.93844E-01 1.00000E-45
9.94508E-01 1.00000E-45
9.95134E-01 1.00000E-45
9.95722E-01 1.00000E-45
9.96273E-01 1.00000E-45
9.96786E-01 1.00000E-45
9.97261E-01 1.00000E-45
9.97698E-01 1.00000E-45
9.98097E-01 1.00000E-45
9.98459E-01 1.00000E-45
9.98782E-01 1.00000E-45
9.99067E-01 1.00000E-45
9.99315E-01 1.00000E-45
9.99524E-01 1.00000E-45
9.99695E-01 1.00000E-45
9.99829E-01 1.00000E-45
9.99924E-01 1.00000E-45
9.99981E-01 1.00000E-45
1.00000E+00 1.00000E-45
