 #
 # Subroutine ELSEPA. Elastic scattering of electrons and positrons
 #                    by neutral atoms and positive ions
 #
 # Projectile: positron
 # Kinetic energy = 8.00000E+06 eV = 2.93995E+05 a.u.
 #
 # WARNING: High-energy factorization with free-atom DF screening.
 #          Absorption, polarization and exchange corrections are
 #          switched off.
 #          Phase shifts are calculated for the bare nucleus.
 #          Scattering amplitudes are not evaluated.
 #
 # Element: Cs,  Z =  55,  atomic weight = 1.32905E+02 g/mol
 #
 # Nuclear model: Fermi distribution
 #                Average radius = 5.46049E-13 cm
 #                Skin thickness = 5.46000E-14 cm
 #
 # Number of electrons = 55
 #
 # Total elastic cross section = 6.64190E-18 cm**2 = 2.37186E-01 a0**2
 # 1st transport cross section = 5.82791E-23 cm**2 = 2.08118E-06 a0**2
 # 2nd transport cross section = 1.68455E-22 cm**2 = 6.01564E-06 a0**2
 #
 #
 # Differential cross section:                       MU=(1-COS(THETA))/2
 #
 #  THETA        MU          DCS          DCS        Sherman      error
 #  (deg)                 (cm**2/sr)   (a0**2/sr)    function
 #----------------------------------------------------------------------
0.00000E+00 7.33460E-12
7.61557E-13 7.33420E-12
1.18994E-12 7.33398E-12
1.71346E-12 7.33371E-12
2.33225E-12 7.33340E-12
3.04617E-12 7.33304E-12
3.85530E-12 7.33262E-12
4.75964E-12 7.33217E-12
5.75917E-12 7.33166E-12
6.85391E-12 7.33110E-12
8.04379E-12 7.33050E-12
9.32893E-12 7.32985E-12
1.07092E-11 7.32916E-12
1.21847E-11 7.32841E-12
1.37554E-11 7.32762E-12
1.54213E-11 7.32678E-12
1.71823E-11 7.32589E-12
1.90386E-11 7.32495E-12
2.09900E-11 7.32397E-12
2.30367E-11 7.32293E-12
2.51785E-11 7.32186E-12
2.74156E-11 7.32073E-12
2.97478E-11 7.31955E-12
3.21752E-11 7.31833E-12
3.46979E-11 7.31706E-12
3.73157E-11 7.31575E-12
4.00286E-11 7.31438E-12
4.28368E-11 7.31297E-12
4.57402E-11 7.31151E-12
4.87388E-11 7.31001E-12
5.18325E-11 7.30846E-12
5.50215E-11 7.30686E-12
5.83057E-11 7.30521E-12
6.16850E-11 7.30352E-12
6.51595E-11 7.30178E-12
6.87293E-11 7.29999E-12
7.23943E-11 7.29816E-12
7.61544E-11 7.29628E-12
1.18991E-10 7.27492E-12
1.71347E-10 7.24897E-12
2.33223E-10 7.21853E-12
3.04617E-10 7.18369E-12
3.85531E-10 7.14456E-12
4.75965E-10 7.10130E-12
5.75917E-10 7.05402E-12
6.85389E-10 7.00291E-12
8.04380E-10 6.94809E-12
9.32891E-10 6.88977E-12
1.07092E-09 6.82811E-12
1.21847E-09 6.76330E-12
1.37554E-09 6.69554E-12
1.54213E-09 6.62500E-12
1.71823E-09 6.55194E-12
1.90386E-09 6.47647E-12
2.09900E-09 6.39891E-12
2.30367E-09 6.31934E-12
2.51785E-09 6.23808E-12
2.74156E-09 6.15522E-12
2.97478E-09 6.07105E-12
3.21752E-09 5.98614E-12
3.46978E-09 5.90228E-12
3.73156E-09 5.81672E-12
4.00286E-09 5.72961E-12
4.28368E-09 5.64108E-12
4.57402E-09 5.55125E-12
4.87388E-09 5.46025E-12
5.18326E-09 5.37301E-12
5.50215E-09 5.28688E-12
5.83057E-09 5.19995E-12
6.16850E-09 5.11234E-12
6.51596E-09 5.02415E-12
6.87293E-09 4.93549E-12
7.23942E-09 4.84824E-12
7.61544E-09 4.76614E-12
1.18991E-08 3.97824E-12
1.71347E-08 3.32166E-12
2.33223E-08 2.79591E-12
3.04617E-08 2.38156E-12
3.85531E-08 2.05021E-12
4.75965E-08 1.78245E-12
5.75917E-08 1.56039E-12
6.85389E-08 1.37308E-12
8.04380E-08 1.21286E-12
9.32891E-08 1.07401E-12
1.07092E-07 9.53154E-13
1.21847E-07 8.47376E-13
1.37554E-07 7.54577E-13
1.54213E-07 6.73194E-13
1.71823E-07 6.01562E-13
1.90386E-07 5.38772E-13
2.09900E-07 4.83386E-13
2.30367E-07 4.34796E-13
2.51785E-07 3.91911E-13
2.74156E-07 3.54172E-13
2.97478E-07 3.20818E-13
3.21752E-07 2.91091E-13
3.46978E-07 2.63805E-13
3.73156E-07 2.40114E-13
4.00286E-07 2.19453E-13
4.28368E-07 2.01359E-13
4.57402E-07 1.85450E-13
4.87388E-07 1.71407E-13
5.18325E-07 1.57917E-13
5.50215E-07 1.45560E-13
5.83057E-07 1.34586E-13
6.16850E-07 1.24809E-13
6.51596E-07 1.16070E-13
6.87293E-07 1.08237E-13
7.23942E-07 1.00997E-13
7.61543E-07 9.39150E-14
1.18991E-06 4.93814E-14
1.71347E-06 2.80271E-14
2.33223E-06 1.69157E-14
3.04617E-06 1.08032E-14
3.85531E-06 7.26769E-15
4.75964E-06 5.09988E-15
5.75916E-06 3.70588E-15
6.85388E-06 2.76303E-15
8.04378E-06 2.10535E-15
9.32888E-06 1.62914E-15
1.07092E-05 1.27926E-15
1.21846E-05 1.01709E-15
1.37553E-05 8.17579E-16
1.54212E-05 6.63814E-16
1.71822E-05 5.43859E-16
1.90385E-05 4.49444E-16
2.09899E-05 3.74750E-16
2.30365E-05 3.14948E-16
2.51783E-05 2.66550E-16
2.74153E-05 2.27092E-16
2.97475E-05 1.94660E-16
3.21749E-05 1.67827E-16
3.46974E-05 1.45460E-16
3.73152E-05 1.26812E-16
4.00281E-05 1.11059E-16
4.28362E-05 9.76888E-17
4.57395E-05 8.63281E-17
4.87380E-05 7.65128E-17
5.18317E-05 6.80861E-17
5.50205E-05 6.07887E-17
5.83045E-05 5.44318E-17
6.16838E-05 4.89064E-17
6.51582E-05 4.40454E-17
6.87277E-05 3.97824E-17
7.23925E-05 3.60287E-17
7.61524E-05 3.26964E-17
9.21439E-05 2.26788E-17
1.09658E-04 1.62037E-17
1.28695E-04 1.18797E-17
1.49255E-04 8.89994E-18
1.71338E-04 6.79645E-18
1.94942E-04 5.27721E-18
2.20070E-04 4.15871E-18
2.46720E-04 3.32093E-18
2.74892E-04 2.68340E-18
3.04586E-04 2.19168E-18
3.35803E-04 1.80738E-18
3.68542E-04 1.50372E-18
4.02802E-04 1.26116E-18
4.38585E-04 1.06557E-18
4.75889E-04 9.06435E-19
5.14715E-04 7.75910E-19
5.55063E-04 6.68042E-19
5.96931E-04 5.78265E-19
6.40321E-04 5.03066E-19
6.85233E-04 4.39687E-19
7.31665E-04 3.85974E-19
7.79618E-04 3.40205E-19
8.29092E-04 3.01016E-19
8.80086E-04 2.67301E-19
9.32601E-04 2.38170E-19
9.86636E-04 2.12893E-19
1.04219E-03 1.90877E-19
1.09927E-03 1.71628E-19
1.15786E-03 1.54741E-19
1.21797E-03 1.39876E-19
1.27961E-03 1.26749E-19
1.34276E-03 1.15123E-19
1.40743E-03 1.04796E-19
1.47362E-03 9.55981E-20
1.54133E-03 8.73848E-20
1.61056E-03 8.00325E-20
1.68131E-03 7.34350E-20
1.75357E-03 6.75013E-20
1.82735E-03 6.21533E-20
1.90265E-03 5.73227E-20
1.97947E-03 5.29509E-20
2.05780E-03 4.89865E-20
2.13765E-03 4.53851E-20
2.21902E-03 4.21074E-20
2.30190E-03 3.91193E-20
2.38630E-03 3.63905E-20
2.47222E-03 3.38948E-20
2.55965E-03 3.16085E-20
2.64859E-03 2.95110E-20
2.73905E-03 2.75841E-20
2.83103E-03 2.58111E-20
2.92452E-03 2.41779E-20
3.01952E-03 2.26712E-20
3.11604E-03 2.12796E-20
3.21407E-03 1.99926E-20
3.31362E-03 1.88012E-20
3.41468E-03 1.76967E-20
3.51725E-03 1.66719E-20
3.62133E-03 1.57198E-20
3.72692E-03 1.48344E-20
3.83403E-03 1.40103E-20
3.94265E-03 1.32423E-20
4.05278E-03 1.25260E-20
4.16442E-03 1.18572E-20
4.27757E-03 1.12323E-20
4.39223E-03 1.06478E-20
4.50840E-03 1.01006E-20
4.62608E-03 9.58799E-21
4.74527E-03 9.10734E-21
4.86597E-03 8.65625E-21
4.98817E-03 8.23263E-21
5.11188E-03 7.83447E-21
5.23711E-03 7.45997E-21
5.36383E-03 7.10748E-21
5.49207E-03 6.77544E-21
5.62181E-03 6.46247E-21
5.75306E-03 6.16727E-21
5.88581E-03 5.88864E-21
6.02007E-03 5.62549E-21
6.15583E-03 5.37680E-21
6.29310E-03 5.14162E-21
6.43187E-03 4.91910E-21
6.57214E-03 4.70841E-21
6.71392E-03 4.50882E-21
6.85720E-03 4.31964E-21
7.00198E-03 4.14021E-21
7.14827E-03 3.96996E-21
7.29605E-03 3.80831E-21
7.44534E-03 3.65477E-21
7.59612E-03 3.50884E-21
7.97965E-03 3.17446E-21
8.37255E-03 2.87877E-21
8.77480E-03 2.61653E-21
9.18641E-03 2.38330E-21
9.60736E-03 2.17534E-21
1.00376E-02 1.98944E-21
1.04773E-02 1.82287E-21
1.09262E-02 1.67325E-21
1.13844E-02 1.53858E-21
1.18520E-02 1.41710E-21
1.23288E-02 1.30730E-21
1.28150E-02 1.20786E-21
1.33104E-02 1.11764E-21
1.38150E-02 1.03562E-21
1.43290E-02 9.60943E-22
1.48521E-02 8.92826E-22
1.53845E-02 8.30595E-22
1.59262E-02 7.73654E-22
1.64770E-02 7.21472E-22
1.70371E-02 6.73583E-22
1.76063E-02 6.29572E-22
1.81848E-02 5.89070E-22
1.87724E-02 5.51747E-22
1.93692E-02 5.17309E-22
1.99751E-02 4.85495E-22
2.05901E-02 4.56069E-22
2.12143E-02 4.28820E-22
2.18476E-02 4.03559E-22
2.24900E-02 3.80115E-22
2.31415E-02 3.58334E-22
2.38021E-02 3.38077E-22
2.44717E-02 3.19218E-22
2.51504E-02 3.01645E-22
2.58382E-02 2.85253E-22
2.65349E-02 2.69948E-22
2.72407E-02 2.55647E-22
2.79555E-02 2.42272E-22
2.86793E-02 2.29751E-22
2.94120E-02 2.18021E-22
3.01537E-02 2.07023E-22
3.09043E-02 1.96702E-22
3.16639E-02 1.87011E-22
3.24324E-02 1.77902E-22
3.32098E-02 1.69335E-22
3.39961E-02 1.61273E-22
3.47912E-02 1.53680E-22
3.55952E-02 1.46523E-22
3.64081E-02 1.39774E-22
3.72297E-02 1.33405E-22
3.80602E-02 1.27390E-22
3.88995E-02 1.21707E-22
3.97476E-02 1.16333E-22
4.06044E-02 1.11249E-22
4.14700E-02 1.06437E-22
4.23443E-02 1.01879E-22
4.32273E-02 9.75595E-23
4.41190E-02 9.34640E-23
4.50194E-02 8.95784E-23
4.59284E-02 8.58902E-23
4.68461E-02 8.23875E-23
4.87074E-02 7.58952E-23
5.06030E-02 7.00223E-23
5.25328E-02 6.46998E-23
5.44967E-02 5.98672E-23
5.64946E-02 5.54716E-23
5.85262E-02 5.14668E-23
6.05914E-02 4.78122E-23
6.26901E-02 4.44719E-23
6.48222E-02 4.14142E-23
6.69873E-02 3.86111E-23
6.91854E-02 3.60378E-23
7.14163E-02 3.36722E-23
7.36799E-02 3.14947E-23
7.59760E-02 2.94876E-23
7.83043E-02 2.76354E-23
8.06647E-02 2.59241E-23
8.30571E-02 2.43412E-23
8.54812E-02 2.28752E-23
8.79369E-02 2.15160E-23
9.04240E-02 2.02547E-23
9.29422E-02 1.90828E-23
9.54915E-02 1.79930E-23
9.80716E-02 1.69784E-23
1.00682E-01 1.60331E-23
1.03323E-01 1.51515E-23
1.05995E-01 1.43285E-23
1.08696E-01 1.35595E-23
1.11427E-01 1.28404E-23
1.14188E-01 1.21674E-23
1.16978E-01 1.15371E-23
1.19797E-01 1.09461E-23
1.22645E-01 1.03918E-23
1.25522E-01 9.87138E-24
1.28428E-01 9.38242E-24
1.31361E-01 8.92267E-24
1.34323E-01 8.49011E-24
1.37313E-01 8.08289E-24
1.40330E-01 7.69922E-24
1.43375E-01 7.33746E-24
1.46447E-01 6.99624E-24
1.49545E-01 6.67415E-24
1.52671E-01 6.36989E-24
1.55823E-01 6.08235E-24
1.59001E-01 5.81045E-24
1.62205E-01 5.55318E-24
1.65435E-01 5.30960E-24
1.68690E-01 5.07888E-24
1.71970E-01 4.86022E-24
1.75276E-01 4.65287E-24
1.78606E-01 4.45614E-24
1.81961E-01 4.26941E-24
1.85340E-01 4.09207E-24
1.88743E-01 3.92358E-24
1.92169E-01 3.76340E-24
1.95619E-01 3.61107E-24
1.99092E-01 3.46612E-24
2.02589E-01 3.32815E-24
2.06107E-01 3.19675E-24
2.09649E-01 3.07156E-24
2.13212E-01 2.95224E-24
2.16797E-01 2.83846E-24
2.20404E-01 2.72992E-24
2.24032E-01 2.62634E-24
2.27680E-01 2.52745E-24
2.31350E-01 2.43301E-24
2.35040E-01 2.34277E-24
2.38751E-01 2.25652E-24
2.42481E-01 2.17406E-24
2.46231E-01 2.09518E-24
2.50000E-01 2.01971E-24
2.53788E-01 1.94747E-24
2.57595E-01 1.87830E-24
2.61421E-01 1.81205E-24
2.65264E-01 1.74858E-24
2.69126E-01 1.68774E-24
2.73005E-01 1.62941E-24
2.76901E-01 1.57347E-24
2.80814E-01 1.51980E-24
2.84744E-01 1.46830E-24
2.88691E-01 1.41886E-24
2.92653E-01 1.37139E-24
2.96632E-01 1.32579E-24
3.00625E-01 1.28198E-24
3.04634E-01 1.23987E-24
3.08658E-01 1.19939E-24
3.12697E-01 1.16047E-24
3.16749E-01 1.12303E-24
3.20816E-01 1.08701E-24
3.24896E-01 1.05235E-24
3.28990E-01 1.01898E-24
3.33097E-01 9.86853E-25
3.37216E-01 9.55911E-25
3.41348E-01 9.26103E-25
3.45492E-01 8.97381E-25
3.49647E-01 8.69699E-25
3.53814E-01 8.43013E-25
3.57992E-01 8.17281E-25
3.62181E-01 7.92463E-25
3.66381E-01 7.68522E-25
3.70590E-01 7.45420E-25
3.74810E-01 7.23124E-25
3.79039E-01 7.01601E-25
3.83277E-01 6.80819E-25
3.87524E-01 6.60750E-25
3.91780E-01 6.41364E-25
3.96044E-01 6.22634E-25
4.00316E-01 6.04534E-25
4.04596E-01 5.87040E-25
4.08882E-01 5.70128E-25
4.13176E-01 5.53776E-25
4.17476E-01 5.37961E-25
4.21783E-01 5.22664E-25
4.26095E-01 5.07864E-25
4.30413E-01 4.93543E-25
4.34737E-01 4.79683E-25
4.39065E-01 4.66266E-25
4.43398E-01 4.53276E-25
4.47736E-01 4.40698E-25
4.52077E-01 4.28515E-25
4.56422E-01 4.16714E-25
4.60770E-01 4.05281E-25
4.65122E-01 3.94201E-25
4.69476E-01 3.83464E-25
4.73832E-01 3.73056E-25
4.78190E-01 3.62965E-25
4.82550E-01 3.53181E-25
4.86912E-01 3.43692E-25
4.91274E-01 3.34489E-25
4.95637E-01 3.25561E-25
5.00000E-01 3.16898E-25
5.04363E-01 3.08493E-25
5.08726E-01 3.00335E-25
5.13088E-01 2.92416E-25
5.17450E-01 2.84728E-25
5.21810E-01 2.77264E-25
5.26168E-01 2.70016E-25
5.30524E-01 2.62976E-25
5.34878E-01 2.56138E-25
5.39230E-01 2.49495E-25
5.43578E-01 2.43041E-25
5.47923E-01 2.36769E-25
5.52264E-01 2.30673E-25
5.56602E-01 2.24748E-25
5.60935E-01 2.18989E-25
5.65263E-01 2.13389E-25
5.69587E-01 2.07944E-25
5.73905E-01 2.02649E-25
5.78217E-01 1.97499E-25
5.82524E-01 1.92490E-25
5.86824E-01 1.87616E-25
5.91118E-01 1.82875E-25
5.95404E-01 1.78261E-25
5.99684E-01 1.73771E-25
6.03956E-01 1.69401E-25
6.08220E-01 1.65148E-25
6.12476E-01 1.61007E-25
6.16723E-01 1.56976E-25
6.20961E-01 1.53050E-25
6.25190E-01 1.49228E-25
6.29410E-01 1.45505E-25
6.33619E-01 1.41879E-25
6.37819E-01 1.38347E-25
6.42008E-01 1.34906E-25
6.46186E-01 1.31554E-25
6.50353E-01 1.28287E-25
6.54508E-01 1.25104E-25
6.58652E-01 1.22002E-25
6.62784E-01 1.18978E-25
6.66903E-01 1.16031E-25
6.71010E-01 1.13157E-25
6.75104E-01 1.10356E-25
6.79184E-01 1.07625E-25
6.83251E-01 1.04962E-25
6.87303E-01 1.02365E-25
6.91342E-01 9.98321E-26
6.95366E-01 9.73618E-26
6.99375E-01 9.49521E-26
7.03368E-01 9.26015E-26
7.07347E-01 9.03083E-26
7.11309E-01 8.80709E-26
7.15256E-01 8.58878E-26
7.19186E-01 8.37576E-26
7.23099E-01 8.16788E-26
7.26995E-01 7.96499E-26
7.30874E-01 7.76698E-26
7.34736E-01 7.57370E-26
7.38579E-01 7.38503E-26
7.42405E-01 7.20085E-26
7.46212E-01 7.02104E-26
7.50000E-01 6.84549E-26
7.53769E-01 6.67408E-26
7.57519E-01 6.50671E-26
7.61249E-01 6.34327E-26
7.64960E-01 6.18366E-26
7.68650E-01 6.02778E-26
7.72320E-01 5.87553E-26
7.75968E-01 5.72683E-26
7.79596E-01 5.58158E-26
7.83203E-01 5.43970E-26
7.86788E-01 5.30110E-26
7.90351E-01 5.16570E-26
7.93893E-01 5.03342E-26
7.97411E-01 4.90418E-26
8.00908E-01 4.77791E-26
8.04381E-01 4.65453E-26
8.07831E-01 4.53398E-26
8.11257E-01 4.41618E-26
8.14660E-01 4.30106E-26
8.18039E-01 4.18857E-26
8.21394E-01 4.07864E-26
8.24724E-01 3.97121E-26
8.28030E-01 3.86621E-26
8.31310E-01 3.76360E-26
8.34565E-01 3.66331E-26
8.37795E-01 3.56530E-26
8.40999E-01 3.46950E-26
8.44177E-01 3.37586E-26
8.47329E-01 3.28435E-26
8.50455E-01 3.19490E-26
8.53553E-01 3.10747E-26
8.56625E-01 3.02201E-26
8.59670E-01 2.93848E-26
8.62687E-01 2.85684E-26
8.65677E-01 2.77704E-26
8.68639E-01 2.69905E-26
8.71572E-01 2.62281E-26
8.74478E-01 2.54831E-26
8.77355E-01 2.47548E-26
8.80203E-01 2.40431E-26
8.83022E-01 2.33475E-26
8.85812E-01 2.26677E-26
8.88573E-01 2.20034E-26
8.91304E-01 2.13542E-26
8.94005E-01 2.07197E-26
8.96677E-01 2.00998E-26
8.99318E-01 1.94941E-26
9.01928E-01 1.89023E-26
9.04508E-01 1.83241E-26
9.07058E-01 1.77592E-26
9.09576E-01 1.72074E-26
9.12063E-01 1.66684E-26
9.14519E-01 1.61420E-26
9.16943E-01 1.56278E-26
9.19335E-01 1.51258E-26
9.21696E-01 1.46355E-26
9.24024E-01 1.41569E-26
9.26320E-01 1.36896E-26
9.28584E-01 1.32335E-26
9.30815E-01 1.27884E-26
9.33013E-01 1.23539E-26
9.35178E-01 1.19301E-26
9.37310E-01 1.15166E-26
9.39409E-01 1.11133E-26
9.41474E-01 1.07199E-26
9.43505E-01 1.03364E-26
9.45503E-01 9.96252E-27
9.47467E-01 9.59811E-27
9.49397E-01 9.24301E-27
9.51293E-01 8.89707E-27
9.53154E-01 8.56013E-27
9.54981E-01 8.23204E-27
9.56773E-01 7.91267E-27
9.58530E-01 7.60187E-27
9.60252E-01 7.29950E-27
9.61940E-01 7.00544E-27
9.63592E-01 6.71955E-27
9.65209E-01 6.44172E-27
9.66790E-01 6.17183E-27
9.68336E-01 5.90975E-27
9.69846E-01 5.65539E-27
9.71321E-01 5.40862E-27
9.72759E-01 5.16934E-27
9.74162E-01 4.93746E-27
9.75528E-01 4.71287E-27
9.76858E-01 4.49548E-27
9.78152E-01 4.28520E-27
9.79410E-01 4.08193E-27
9.80631E-01 3.88561E-27
9.81815E-01 3.69613E-27
9.82963E-01 3.51343E-27
9.84074E-01 3.33742E-27
9.85148E-01 3.16804E-27
9.86185E-01 3.00522E-27
9.87185E-01 2.84888E-27
9.88148E-01 2.69896E-27
9.89074E-01 2.55540E-27
9.89962E-01 2.41815E-27
9.90814E-01 2.28713E-27
9.91627E-01 2.16231E-27
9.92404E-01 2.04363E-27
9.93143E-01 1.93105E-27
9.93844E-01 1.82450E-27
9.94508E-01 1.72396E-27
9.95134E-01 1.62938E-27
9.95722E-01 1.54072E-27
9.96273E-01 1.45795E-27
9.96786E-01 1.38103E-27
9.97261E-01 1.30994E-27
9.97698E-01 1.24463E-27
9.98097E-01 1.18510E-27
9.98459E-01 1.13130E-27
9.98782E-01 1.08323E-27
9.99067E-01 1.04086E-27
9.99315E-01 1.00417E-27
9.99524E-01 9.73150E-28
9.99695E-01 9.47788E-28
9.99829E-01 9.28073E-28
9.99924E-01 9.13996E-28
9.99981E-01 9.05552E-28
1.00000E+00 9.02738E-28
