 #
 # Subroutine ELSEPA. Elastic scattering of electrons and positrons
 #                    by neutral atoms and positive ions
 #
 # Projectile: positron
 # Kinetic energy = 5.00000E+07 eV = 1.83747E+06 a.u.
 #
 # WARNING: High-energy factorization with free-atom DF screening.
 #          Absorption, polarization and exchange corrections are
 #          switched off.
 #          Phase shifts are calculated for the bare nucleus.
 #          Scattering amplitudes are not evaluated.
 #
 # Element:  C,  Z =   6,  atomic weight = 1.20107E+01 g/mol
 #
 # Nuclear model: Fermi distribution
 #                Average radius = 2.45042E-13 cm
 #                Skin thickness = 5.46000E-14 cm
 #
 # Number of electrons =  6
 #
 # Total elastic cross section = 2.41406E-19 cm**2 = 8.62078E-03 a0**2
 # 1st transport cross section = 3.01408E-26 cm**2 = 1.07635E-09 a0**2
 # 2nd transport cross section = 8.82495E-26 cm**2 = 3.15145E-09 a0**2
 #
 #
 # Differential cross section:                       MU=(1-COS(THETA))/2
 #
 #  THETA        MU          DCS          DCS        Sherman      error
 #  (deg)                 (cm**2/sr)   (a0**2/sr)    function
 #----------------------------------------------------------------------
0.00000E+00 5.99221E-12
7.61557E-13 5.98965E-12
1.18994E-12 5.98822E-12
1.71346E-12 5.98647E-12
2.33225E-12 5.98441E-12
3.04617E-12 5.98203E-12
3.85530E-12 5.97934E-12
4.75964E-12 5.97633E-12
5.75917E-12 5.97301E-12
6.85391E-12 5.96938E-12
8.04379E-12 5.96543E-12
9.32893E-12 5.96118E-12
1.07092E-11 5.95661E-12
1.21847E-11 5.95174E-12
1.37554E-11 5.94656E-12
1.54213E-11 5.94106E-12
1.71823E-11 5.93527E-12
1.90386E-11 5.92918E-12
2.09900E-11 5.92277E-12
2.30367E-11 5.91607E-12
2.51785E-11 5.90907E-12
2.74156E-11 5.90176E-12
2.97478E-11 5.89417E-12
3.21752E-11 5.88627E-12
3.46979E-11 5.87808E-12
3.73157E-11 5.86962E-12
4.00286E-11 5.86084E-12
4.28368E-11 5.85178E-12
4.57402E-11 5.84246E-12
4.87388E-11 5.83281E-12
5.18325E-11 5.82291E-12
5.50215E-11 5.81274E-12
5.83057E-11 5.80225E-12
6.16850E-11 5.79152E-12
6.51595E-11 5.78051E-12
6.87293E-11 5.76921E-12
7.23943E-11 5.75768E-12
7.61544E-11 5.74585E-12
1.18991E-10 5.61362E-12
1.71347E-10 5.45778E-12
2.33223E-10 5.28146E-12
3.04617E-10 5.08779E-12
3.85531E-10 4.88041E-12
4.75965E-10 4.66230E-12
5.75917E-10 4.43715E-12
6.85389E-10 4.19674E-12
8.04380E-10 3.96392E-12
9.32891E-10 3.74587E-12
1.07092E-09 3.50934E-12
1.21847E-09 3.28899E-12
1.37554E-09 3.08353E-12
1.54213E-09 2.86837E-12
1.71823E-09 2.67331E-12
1.90386E-09 2.48919E-12
2.09900E-09 2.30596E-12
2.30367E-09 2.14107E-12
2.51785E-09 1.98372E-12
2.74156E-09 1.83324E-12
2.97478E-09 1.69824E-12
3.21752E-09 1.56836E-12
3.46978E-09 1.44779E-12
3.73156E-09 1.33964E-12
4.00286E-09 1.23507E-12
4.28368E-09 1.14001E-12
4.57402E-09 1.05442E-12
4.87388E-09 9.71847E-13
5.18326E-09 8.97630E-13
5.50215E-09 8.29943E-13
5.83057E-09 7.66016E-13
6.16850E-09 7.08384E-13
6.51596E-09 6.55323E-13
6.87293E-09 6.05946E-13
7.23942E-09 5.61279E-13
7.61544E-09 5.19880E-13
1.18991E-08 2.51593E-13
1.71347E-08 1.32159E-13
2.33223E-08 7.51740E-14
3.04617E-08 4.60056E-14
3.85531E-08 2.98816E-14
4.75965E-08 2.03828E-14
5.75917E-08 1.44721E-14
6.85389E-08 1.06025E-14
8.04380E-08 7.97529E-15
9.32891E-08 6.13020E-15
1.07092E-07 4.79741E-15
1.21847E-07 3.81239E-15
1.37554E-07 3.06969E-15
1.54213E-07 2.49966E-15
1.71823E-07 2.05562E-15
1.90386E-07 1.70563E-15
2.09900E-07 1.42680E-15
2.30367E-07 1.20236E-15
2.51785E-07 1.02003E-15
2.74156E-07 8.70694E-16
2.97478E-07 7.47475E-16
3.21752E-07 6.45065E-16
3.46978E-07 5.59434E-16
3.73156E-07 4.87342E-16
4.00286E-07 4.26390E-16
4.28368E-07 3.74588E-16
4.57402E-07 3.30341E-16
4.87388E-07 2.92378E-16
5.18325E-07 2.59666E-16
5.50215E-07 2.31360E-16
5.83057E-07 2.06776E-16
6.16850E-07 1.85342E-16
6.51596E-07 1.66586E-16
6.87293E-07 1.50128E-16
7.23942E-07 1.35637E-16
7.61543E-07 1.22841E-16
1.18991E-06 5.10089E-17
1.71347E-06 2.47454E-17
2.33223E-06 1.33950E-17
3.04617E-06 7.86352E-18
3.85531E-06 4.91320E-18
4.75964E-06 3.22510E-18
5.75916E-06 2.20342E-18
6.85388E-06 1.55604E-18
8.04378E-06 1.12985E-18
9.32888E-06 8.40032E-19
1.07092E-05 6.37451E-19
1.21846E-05 4.92417E-19
1.37553E-05 3.86381E-19
1.54212E-05 3.07410E-19
1.71822E-05 2.47622E-19
1.90385E-05 2.01497E-19
2.09899E-05 1.65792E-19
2.30365E-05 1.37695E-19
2.51783E-05 1.15317E-19
2.74153E-05 9.72969E-20
2.97475E-05 8.26467E-20
3.21749E-05 7.06374E-20
3.46974E-05 6.07227E-20
3.73152E-05 5.24858E-20
4.00281E-05 4.56022E-20
4.28362E-05 3.98162E-20
4.57395E-05 3.49242E-20
4.87380E-05 3.07637E-20
5.18317E-05 2.72051E-20
5.50205E-05 2.41451E-20
5.83045E-05 2.15014E-20
6.16838E-05 1.92081E-20
6.51582E-05 1.72116E-20
6.87277E-05 1.54677E-20
7.23925E-05 1.39399E-20
7.61524E-05 1.25964E-20
9.21439E-05 8.60496E-21
1.09658E-04 6.07369E-21
1.28695E-04 4.40950E-21
1.49255E-04 3.27788E-21
1.71338E-04 2.48688E-21
1.94942E-04 1.92098E-21
2.20070E-04 1.50698E-21
2.46720E-04 1.19890E-21
2.74892E-04 9.65572E-22
3.04586E-04 7.86353E-22
3.35803E-04 6.46861E-22
3.68542E-04 5.36930E-22
4.02802E-04 4.49421E-22
4.38585E-04 3.79003E-22
4.75889E-04 3.21863E-22
5.14715E-04 2.75089E-22
5.55063E-04 2.36506E-22
5.96931E-04 2.04460E-22
6.40321E-04 1.77653E-22
6.85233E-04 1.55104E-22
7.31665E-04 1.36016E-22
7.79618E-04 1.19776E-22
8.29092E-04 1.05889E-22
8.80086E-04 9.39539E-23
9.32601E-04 8.36557E-23
9.86636E-04 7.47280E-23
1.04219E-03 6.69605E-23
1.09927E-03 6.01757E-23
1.15786E-03 5.42280E-23
1.21797E-03 4.89976E-23
1.27961E-03 4.43816E-23
1.34276E-03 4.02969E-23
1.40743E-03 3.66708E-23
1.47362E-03 3.34433E-23
1.54133E-03 3.05631E-23
1.61056E-03 2.79859E-23
1.68131E-03 2.56748E-23
1.75357E-03 2.35969E-23
1.82735E-03 2.17250E-23
1.90265E-03 2.00349E-23
1.97947E-03 1.85058E-23
2.05780E-03 1.71198E-23
2.13765E-03 1.58609E-23
2.21902E-03 1.47157E-23
2.30190E-03 1.36717E-23
2.38630E-03 1.27187E-23
2.47222E-03 1.18472E-23
2.55965E-03 1.10489E-23
2.64859E-03 1.03168E-23
2.73905E-03 9.64414E-24
2.83103E-03 9.02541E-24
2.92452E-03 8.45544E-24
3.01952E-03 7.92968E-24
3.11604E-03 7.44415E-24
3.21407E-03 6.99512E-24
3.31362E-03 6.57943E-24
3.41468E-03 6.19410E-24
3.51725E-03 5.83653E-24
3.62133E-03 5.50437E-24
3.72692E-03 5.19545E-24
3.83403E-03 4.90789E-24
3.94265E-03 4.63990E-24
4.05278E-03 4.38994E-24
4.16442E-03 4.15655E-24
4.27757E-03 3.93844E-24
4.39223E-03 3.73443E-24
4.50840E-03 3.54343E-24
4.62608E-03 3.36447E-24
4.74527E-03 3.19664E-24
4.86597E-03 3.03913E-24
4.98817E-03 2.89118E-24
5.11188E-03 2.75211E-24
5.23711E-03 2.62128E-24
5.36383E-03 2.49812E-24
5.49207E-03 2.38210E-24
5.62181E-03 2.27271E-24
5.75306E-03 2.16952E-24
5.88581E-03 2.07211E-24
6.02007E-03 1.98009E-24
6.15583E-03 1.89312E-24
6.29310E-03 1.81085E-24
6.43187E-03 1.73299E-24
6.57214E-03 1.65927E-24
6.71392E-03 1.58941E-24
6.85720E-03 1.52318E-24
7.00198E-03 1.46036E-24
7.14827E-03 1.40073E-24
7.29605E-03 1.34411E-24
7.44534E-03 1.29031E-24
7.59612E-03 1.23917E-24
7.97965E-03 1.12195E-24
8.37255E-03 1.01823E-24
8.77480E-03 9.26185E-25
9.18641E-03 8.44282E-25
9.60736E-03 7.71208E-25
1.00376E-02 7.05846E-25
1.04773E-02 6.47241E-25
1.09262E-02 5.94573E-25
1.13844E-02 5.47136E-25
1.18520E-02 5.04319E-25
1.23288E-02 4.65594E-25
1.28150E-02 4.30501E-25
1.33104E-02 3.98638E-25
1.38150E-02 3.69658E-25
1.43290E-02 3.43251E-25
1.48521E-02 3.19151E-25
1.53845E-02 2.97119E-25
1.59262E-02 2.76946E-25
1.64770E-02 2.58449E-25
1.70371E-02 2.41462E-25
1.76063E-02 2.25840E-25
1.81848E-02 2.11455E-25
1.87724E-02 1.98191E-25
1.93692E-02 1.85944E-25
1.99751E-02 1.74623E-25
2.05901E-02 1.64146E-25
2.12143E-02 1.54437E-25
2.18476E-02 1.45432E-25
2.24900E-02 1.37068E-25
2.31415E-02 1.29294E-25
2.38021E-02 1.22059E-25
2.44717E-02 1.15319E-25
2.51504E-02 1.09035E-25
2.58382E-02 1.03169E-25
2.65349E-02 9.76901E-26
2.72407E-02 9.25669E-26
2.79555E-02 8.77724E-26
2.86793E-02 8.32818E-26
2.94120E-02 7.90723E-26
3.01537E-02 7.51230E-26
3.09043E-02 7.14151E-26
3.16639E-02 6.79310E-26
3.24324E-02 6.46548E-26
3.32098E-02 6.15718E-26
3.39961E-02 5.86687E-26
3.47912E-02 5.59329E-26
3.55952E-02 5.33531E-26
3.64081E-02 5.09188E-26
3.72297E-02 4.86202E-26
3.80602E-02 4.64485E-26
3.88995E-02 4.43954E-26
3.97476E-02 4.24531E-26
4.06044E-02 4.06147E-26
4.14700E-02 3.88736E-26
4.23443E-02 3.72236E-26
4.32273E-02 3.56592E-26
4.41190E-02 3.41751E-26
4.50194E-02 3.27664E-26
4.59284E-02 3.14286E-26
4.68461E-02 3.01575E-26
4.87074E-02 2.77998E-26
5.06030E-02 2.56651E-26
5.25328E-02 2.37286E-26
5.44967E-02 2.19688E-26
5.64946E-02 2.03667E-26
5.85262E-02 1.89058E-26
6.05914E-02 1.75716E-26
6.26901E-02 1.63511E-26
6.48222E-02 1.52329E-26
6.69873E-02 1.42071E-26
6.91854E-02 1.32646E-26
7.14163E-02 1.23976E-26
7.36799E-02 1.15990E-26
7.59760E-02 1.08623E-26
7.83043E-02 1.01821E-26
8.06647E-02 9.55319E-27
8.30571E-02 8.97106E-27
8.54812E-02 8.43163E-27
8.79369E-02 7.93124E-27
9.04240E-02 7.46656E-27
9.29422E-02 7.03462E-27
9.54915E-02 6.63271E-27
9.80716E-02 6.25839E-27
1.00682E-01 5.90943E-27
1.03323E-01 5.58381E-27
1.05995E-01 5.27972E-27
1.08696E-01 4.99549E-27
1.11427E-01 4.72958E-27
1.14188E-01 4.48063E-27
1.16978E-01 4.24737E-27
1.19797E-01 4.02863E-27
1.22645E-01 3.82336E-27
1.25522E-01 3.63059E-27
1.28428E-01 3.44942E-27
1.31361E-01 3.27905E-27
1.34323E-01 3.11871E-27
1.37313E-01 2.96772E-27
1.40330E-01 2.82544E-27
1.43375E-01 2.69128E-27
1.46447E-01 2.56470E-27
1.49545E-01 2.44520E-27
1.52671E-01 2.33232E-27
1.55823E-01 2.22562E-27
1.59001E-01 2.12472E-27
1.62205E-01 2.02925E-27
1.65435E-01 1.93885E-27
1.68690E-01 1.85323E-27
1.71970E-01 1.77209E-27
1.75276E-01 1.69514E-27
1.78606E-01 1.62214E-27
1.81961E-01 1.55286E-27
1.85340E-01 1.48707E-27
1.88743E-01 1.42457E-27
1.92169E-01 1.36516E-27
1.95619E-01 1.30867E-27
1.99092E-01 1.25493E-27
2.02589E-01 1.20378E-27
2.06107E-01 1.15509E-27
2.09649E-01 1.10871E-27
2.13212E-01 1.06451E-27
2.16797E-01 1.02238E-27
2.20404E-01 9.82197E-28
2.24032E-01 9.43865E-28
2.27680E-01 9.07284E-28
2.31350E-01 8.72358E-28
2.35040E-01 8.39003E-28
2.38751E-01 8.07135E-28
2.42481E-01 7.76678E-28
2.46231E-01 7.47560E-28
2.50000E-01 7.19712E-28
2.53788E-01 6.93070E-28
2.57595E-01 6.67574E-28
2.61421E-01 6.43167E-28
2.65264E-01 6.19794E-28
2.69126E-01 5.97406E-28
2.73005E-01 5.75953E-28
2.76901E-01 5.55392E-28
2.80814E-01 5.35679E-28
2.84744E-01 5.16774E-28
2.88691E-01 4.98639E-28
2.92653E-01 4.81237E-28
2.96632E-01 4.64534E-28
3.00625E-01 4.48498E-28
3.04634E-01 4.33098E-28
3.08658E-01 4.18306E-28
3.12697E-01 4.04093E-28
3.16749E-01 3.90433E-28
3.20816E-01 3.77303E-28
3.24896E-01 3.64677E-28
3.28990E-01 3.52534E-28
3.33097E-01 3.40853E-28
3.37216E-01 3.29613E-28
3.41348E-01 3.18795E-28
3.45492E-01 3.08382E-28
3.49647E-01 2.98355E-28
3.53814E-01 2.88699E-28
3.57992E-01 2.79397E-28
3.62181E-01 2.70435E-28
3.66381E-01 2.61798E-28
3.70590E-01 2.53474E-28
3.74810E-01 2.45448E-28
3.79039E-01 2.37710E-28
3.83277E-01 2.30246E-28
3.87524E-01 2.23046E-28
3.91780E-01 2.16100E-28
3.96044E-01 2.09397E-28
4.00316E-01 2.02927E-28
4.04596E-01 1.96681E-28
4.08882E-01 1.90651E-28
4.13176E-01 1.84827E-28
4.17476E-01 1.79203E-28
4.21783E-01 1.73769E-28
4.26095E-01 1.68519E-28
4.30413E-01 1.63445E-28
4.34737E-01 1.58542E-28
4.39065E-01 1.53802E-28
4.43398E-01 1.49219E-28
4.47736E-01 1.44787E-28
4.52077E-01 1.40501E-28
4.56422E-01 1.36355E-28
4.60770E-01 1.32345E-28
4.65122E-01 1.28464E-28
4.69476E-01 1.24708E-28
4.73832E-01 1.21074E-28
4.78190E-01 1.17555E-28
4.82550E-01 1.14149E-28
4.86912E-01 1.10851E-28
4.91274E-01 1.07657E-28
4.95637E-01 1.04563E-28
5.00000E-01 1.01566E-28
5.04363E-01 9.86633E-29
5.08726E-01 9.58504E-29
5.13088E-01 9.31246E-29
5.17450E-01 9.04828E-29
5.21810E-01 8.79221E-29
5.26168E-01 8.54397E-29
5.30524E-01 8.30330E-29
5.34878E-01 8.06993E-29
5.39230E-01 7.84361E-29
5.43578E-01 7.62411E-29
5.47923E-01 7.41120E-29
5.52264E-01 7.20465E-29
5.56602E-01 7.00425E-29
5.60935E-01 6.80980E-29
5.65263E-01 6.62110E-29
5.69587E-01 6.43796E-29
5.73905E-01 6.26019E-29
5.78217E-01 6.08763E-29
5.82524E-01 5.92009E-29
5.86824E-01 5.75743E-29
5.91118E-01 5.59947E-29
5.95404E-01 5.44606E-29
5.99684E-01 5.29707E-29
6.03956E-01 5.15235E-29
6.08220E-01 5.01177E-29
6.12476E-01 4.87518E-29
6.16723E-01 4.74248E-29
6.20961E-01 4.61352E-29
6.25190E-01 4.48821E-29
6.29410E-01 4.36641E-29
6.33619E-01 4.24803E-29
6.37819E-01 4.13296E-29
6.42008E-01 4.02109E-29
6.46186E-01 3.91232E-29
6.50353E-01 3.80657E-29
6.54508E-01 3.70374E-29
6.58652E-01 3.60374E-29
6.62784E-01 3.50648E-29
6.66903E-01 3.41188E-29
6.71010E-01 3.31987E-29
6.75104E-01 3.23036E-29
6.79184E-01 3.14327E-29
6.83251E-01 3.05855E-29
6.87303E-01 2.97611E-29
6.91342E-01 2.89589E-29
6.95366E-01 2.81782E-29
6.99375E-01 2.74184E-29
7.03368E-01 2.66790E-29
7.07347E-01 2.59592E-29
7.11309E-01 2.52585E-29
7.15256E-01 2.45765E-29
7.19186E-01 2.39124E-29
7.23099E-01 2.32659E-29
7.26995E-01 2.26364E-29
7.30874E-01 2.20234E-29
7.34736E-01 2.14264E-29
7.38579E-01 2.08451E-29
7.42405E-01 2.02789E-29
7.46212E-01 1.97275E-29
7.50000E-01 1.91904E-29
7.53769E-01 1.86672E-29
7.57519E-01 1.81575E-29
7.61249E-01 1.76610E-29
7.64960E-01 1.71773E-29
7.68650E-01 1.67059E-29
7.72320E-01 1.62467E-29
7.75968E-01 1.57993E-29
7.79596E-01 1.53633E-29
7.83203E-01 1.49384E-29
7.86788E-01 1.45243E-29
7.90351E-01 1.41208E-29
7.93893E-01 1.37275E-29
7.97411E-01 1.33442E-29
8.00908E-01 1.29705E-29
8.04381E-01 1.26063E-29
8.07831E-01 1.22514E-29
8.11257E-01 1.19053E-29
8.14660E-01 1.15680E-29
8.18039E-01 1.12391E-29
8.21394E-01 1.09185E-29
8.24724E-01 1.06060E-29
8.28030E-01 1.03012E-29
8.31310E-01 1.00041E-29
8.34565E-01 9.71448E-30
8.37795E-01 9.43205E-30
8.40999E-01 9.15667E-30
8.44177E-01 8.88816E-30
8.47329E-01 8.62634E-30
8.50455E-01 8.37105E-30
8.53553E-01 8.12213E-30
8.56625E-01 7.87940E-30
8.59670E-01 7.64270E-30
8.62687E-01 7.41191E-30
8.65677E-01 7.18686E-30
8.68639E-01 6.96741E-30
8.71572E-01 6.75342E-30
8.74478E-01 6.54476E-30
8.77355E-01 6.34130E-30
8.80203E-01 6.14291E-30
8.83022E-01 5.94946E-30
8.85812E-01 5.76085E-30
8.88573E-01 5.57694E-30
8.91304E-01 5.39763E-30
8.94005E-01 5.22280E-30
8.96677E-01 5.05237E-30
8.99318E-01 4.88620E-30
9.01928E-01 4.72421E-30
9.04508E-01 4.56630E-30
9.07058E-01 4.41237E-30
9.09576E-01 4.26234E-30
9.12063E-01 4.11610E-30
9.14519E-01 3.97358E-30
9.16943E-01 3.83469E-30
9.19335E-01 3.69935E-30
9.21696E-01 3.56748E-30
9.24024E-01 3.43899E-30
9.26320E-01 3.31383E-30
9.28584E-01 3.19190E-30
9.30815E-01 3.07314E-30
9.33013E-01 2.95749E-30
9.35178E-01 2.84487E-30
9.37310E-01 2.73522E-30
9.39409E-01 2.62848E-30
9.41474E-01 2.52458E-30
9.43505E-01 2.42347E-30
9.45503E-01 2.32509E-30
9.47467E-01 2.22939E-30
9.49397E-01 2.13630E-30
9.51293E-01 2.04577E-30
9.53154E-01 1.95776E-30
9.54981E-01 1.87222E-30
9.56773E-01 1.78909E-30
9.58530E-01 1.70834E-30
9.60252E-01 1.62990E-30
9.61940E-01 1.55376E-30
9.63592E-01 1.47985E-30
9.65209E-01 1.40814E-30
9.66790E-01 1.33858E-30
9.68336E-01 1.27115E-30
9.69846E-01 1.20580E-30
9.71321E-01 1.14250E-30
9.72759E-01 1.08121E-30
9.74162E-01 1.02190E-30
9.75528E-01 9.64533E-31
9.76858E-01 9.09083E-31
9.78152E-01 8.55518E-31
9.79410E-01 8.03808E-31
9.80631E-01 7.53928E-31
9.81815E-01 7.05847E-31
9.82963E-01 6.59541E-31
9.84074E-01 6.14985E-31
9.85148E-01 5.72154E-31
9.86185E-01 5.31024E-31
9.87185E-01 4.91578E-31
9.88148E-01 4.53790E-31
9.89074E-01 4.17640E-31
9.89962E-01 3.83111E-31
9.90814E-01 3.50182E-31
9.91627E-01 3.18840E-31
9.92404E-01 2.89061E-31
9.93143E-01 2.60835E-31
9.93844E-01 2.34145E-31
9.94508E-01 2.08977E-31
9.95134E-01 1.85317E-31
9.95722E-01 1.63153E-31
9.96273E-01 1.42474E-31
9.96786E-01 1.23267E-31
9.97261E-01 1.05524E-31
9.97698E-01 8.92344E-32
9.98097E-01 7.43900E-32
9.98459E-01 6.09833E-32
9.98782E-01 4.90056E-32
9.99067E-01 3.84530E-32
9.99315E-01 2.93186E-32
9.99524E-01 2.15971E-32
9.99695E-01 1.52848E-32
9.99829E-01 1.03794E-32
9.99924E-01 6.87676E-33
9.99981E-01 4.77629E-33
1.00000E+00 4.07520E-33
