 #
 # Subroutine ELSEPA. Elastic scattering of electrons and positrons
 #                    by neutral atoms and positive ions
 #
 # Projectile: positron
 # Kinetic energy = 8.00000E+06 eV = 2.93995E+05 a.u.
 #
 # WARNING: High-energy factorization with free-atom DF screening.
 #          Absorption, polarization and exchange corrections are
 #          switched off.
 #          Phase shifts are calculated for the bare nucleus.
 #          Scattering amplitudes are not evaluated.
 #
 # Element:  C,  Z =   6,  atomic weight = 1.20107E+01 g/mol
 #
 # Nuclear model: Fermi distribution
 #                Average radius = 2.45042E-13 cm
 #                Skin thickness = 5.46000E-14 cm
 #
 # Number of electrons =  6
 #
 # Total elastic cross section = 2.42298E-19 cm**2 = 8.65264E-03 a0**2
 # 1st transport cross section = 8.53992E-25 cm**2 = 3.04966E-08 a0**2
 # 2nd transport cross section = 2.46849E-24 cm**2 = 8.81513E-08 a0**2
 #
 #
 # Differential cross section:                       MU=(1-COS(THETA))/2
 #
 #  THETA        MU          DCS          DCS        Sherman      error
 #  (deg)                 (cm**2/sr)   (a0**2/sr)    function
 #----------------------------------------------------------------------
0.00000E+00 1.70128E-13
7.61557E-13 1.70126E-13
1.18994E-12 1.70125E-13
1.71346E-12 1.70123E-13
2.33225E-12 1.70122E-13
3.04617E-12 1.70120E-13
3.85530E-12 1.70117E-13
4.75964E-12 1.70115E-13
5.75917E-12 1.70112E-13
6.85391E-12 1.70109E-13
8.04379E-12 1.70106E-13
9.32893E-12 1.70103E-13
1.07092E-11 1.70099E-13
1.21847E-11 1.70095E-13
1.37554E-11 1.70091E-13
1.54213E-11 1.70086E-13
1.71823E-11 1.70082E-13
1.90386E-11 1.70077E-13
2.09900E-11 1.70071E-13
2.30367E-11 1.70066E-13
2.51785E-11 1.70060E-13
2.74156E-11 1.70054E-13
2.97478E-11 1.70048E-13
3.21752E-11 1.70041E-13
3.46979E-11 1.70034E-13
3.73157E-11 1.70027E-13
4.00286E-11 1.70020E-13
4.28368E-11 1.70013E-13
4.57402E-11 1.70005E-13
4.87388E-11 1.69997E-13
5.18325E-11 1.69988E-13
5.50215E-11 1.69980E-13
5.83057E-11 1.69971E-13
6.16850E-11 1.69962E-13
6.51595E-11 1.69953E-13
6.87293E-11 1.69943E-13
7.23943E-11 1.69933E-13
7.61544E-11 1.69923E-13
1.18991E-10 1.69809E-13
1.71347E-10 1.69669E-13
2.33223E-10 1.69504E-13
3.04617E-10 1.69314E-13
3.85531E-10 1.69098E-13
4.75965E-10 1.68859E-13
5.75917E-10 1.68594E-13
6.85389E-10 1.68305E-13
8.04380E-10 1.67992E-13
9.32891E-10 1.67654E-13
1.07092E-09 1.67293E-13
1.21847E-09 1.66908E-13
1.37554E-09 1.66500E-13
1.54213E-09 1.66068E-13
1.71823E-09 1.65613E-13
1.90386E-09 1.65137E-13
2.09900E-09 1.64637E-13
2.30367E-09 1.64115E-13
2.51785E-09 1.63572E-13
2.74156E-09 1.63007E-13
2.97478E-09 1.62422E-13
3.21752E-09 1.61814E-13
3.46978E-09 1.61188E-13
3.73156E-09 1.60541E-13
4.00286E-09 1.59874E-13
4.28368E-09 1.59189E-13
4.57402E-09 1.58483E-13
4.87388E-09 1.57761E-13
5.18326E-09 1.57019E-13
5.50215E-09 1.56260E-13
5.83057E-09 1.55485E-13
6.16850E-09 1.54691E-13
6.51596E-09 1.53883E-13
6.87293E-09 1.53057E-13
7.23942E-09 1.52216E-13
7.61544E-09 1.51361E-13
1.18991E-08 1.42076E-13
1.71347E-08 1.31788E-13
2.33223E-08 1.20697E-13
3.04617E-08 1.09662E-13
3.85531E-08 9.87365E-14
4.75965E-08 8.86380E-14
5.75917E-08 7.85853E-14
6.85389E-08 6.96695E-14
8.04380E-08 6.13838E-14
9.32891E-08 5.39187E-14
1.07092E-07 4.73878E-14
1.21847E-07 4.13885E-14
1.37554E-07 3.62451E-14
1.54213E-07 3.16689E-14
1.71823E-07 2.76833E-14
1.90386E-07 2.42461E-14
2.09900E-07 2.12010E-14
2.30367E-07 1.85979E-14
2.51785E-07 1.63186E-14
2.74156E-07 1.43477E-14
2.97478E-07 1.26453E-14
3.21752E-07 1.11547E-14
3.46978E-07 9.87000E-15
3.73156E-07 8.74714E-15
4.00286E-07 7.77149E-15
4.28368E-07 6.92202E-15
4.57402E-07 6.17739E-15
4.87388E-07 5.52849E-15
5.18325E-07 4.95989E-15
5.50215E-07 4.45977E-15
5.83057E-07 4.01876E-15
6.16850E-07 3.62908E-15
6.51596E-07 3.28496E-15
6.87293E-07 2.97994E-15
7.23942E-07 2.70941E-15
7.61543E-07 2.46883E-15
1.18991E-06 1.08711E-15
1.71347E-06 5.59777E-16
2.33223E-06 3.22057E-16
3.04617E-06 2.00378E-16
3.85531E-06 1.31795E-16
4.75964E-06 9.05202E-17
5.75916E-06 6.42152E-17
6.85388E-06 4.68256E-17
8.04378E-06 3.49021E-17
9.32888E-06 2.65277E-17
1.07092E-05 2.04951E-17
1.21846E-05 1.60726E-17
1.37553E-05 1.27677E-17
1.54212E-05 1.02643E-17
1.71822E-05 8.33885E-18
1.90385E-05 6.83516E-18
2.09899E-05 5.65789E-18
2.30365E-05 4.72304E-18
2.51783E-05 3.97240E-18
2.74153E-05 3.36396E-18
2.97475E-05 2.86634E-18
3.21749E-05 2.45645E-18
3.46974E-05 2.11653E-18
3.73152E-05 1.83310E-18
4.00281E-05 1.59544E-18
4.28362E-05 1.39509E-18
4.57395E-05 1.22527E-18
4.87380E-05 1.08052E-18
5.18317E-05 9.56469E-19
5.50205E-05 8.49628E-19
5.83045E-05 7.57183E-19
6.16838E-05 6.76887E-19
6.51582E-05 6.06900E-19
6.87277E-05 5.45707E-19
7.23925E-05 4.92042E-19
7.61524E-05 4.44830E-19
9.21439E-05 3.04272E-19
1.09658E-04 2.14957E-19
1.28695E-04 1.56153E-19
1.49255E-04 1.16129E-19
1.71338E-04 8.81329E-20
1.94942E-04 6.80933E-20
2.20070E-04 5.34279E-20
2.46720E-04 4.25112E-20
2.74892E-04 3.42416E-20
3.04586E-04 2.78882E-20
3.35803E-04 2.29421E-20
3.68542E-04 1.90441E-20
4.02802E-04 1.59409E-20
4.38585E-04 1.34437E-20
4.75889E-04 1.14173E-20
5.14715E-04 9.75852E-21
5.55063E-04 8.39011E-21
5.96931E-04 7.25355E-21
6.40321E-04 6.30277E-21
6.85233E-04 5.50294E-21
7.31665E-04 4.82590E-21
7.79618E-04 4.24985E-21
8.29092E-04 3.75724E-21
8.80086E-04 3.33389E-21
9.32601E-04 2.96857E-21
9.86636E-04 2.65187E-21
1.04219E-03 2.37631E-21
1.09927E-03 2.13561E-21
1.15786E-03 1.92461E-21
1.21797E-03 1.73904E-21
1.27961E-03 1.57527E-21
1.34276E-03 1.43035E-21
1.40743E-03 1.30169E-21
1.47362E-03 1.18718E-21
1.54133E-03 1.08498E-21
1.61056E-03 9.93535E-22
1.68131E-03 9.11528E-22
1.75357E-03 8.37795E-22
1.82735E-03 7.71371E-22
1.90265E-03 7.11395E-22
1.97947E-03 6.57131E-22
2.05780E-03 6.07945E-22
2.13765E-03 5.63268E-22
2.21902E-03 5.22622E-22
2.30190E-03 4.85572E-22
2.38630E-03 4.51746E-22
2.47222E-03 4.20814E-22
2.55965E-03 3.92480E-22
2.64859E-03 3.66492E-22
2.73905E-03 3.42616E-22
2.83103E-03 3.20653E-22
2.92452E-03 3.00421E-22
3.01952E-03 2.81757E-22
3.11604E-03 2.64520E-22
3.21407E-03 2.48579E-22
3.31362E-03 2.33821E-22
3.41468E-03 2.20141E-22
3.51725E-03 2.07445E-22
3.62133E-03 1.95652E-22
3.72692E-03 1.84683E-22
3.83403E-03 1.74472E-22
3.94265E-03 1.64956E-22
4.05278E-03 1.56080E-22
4.16442E-03 1.47792E-22
4.27757E-03 1.40046E-22
4.39223E-03 1.32801E-22
4.50840E-03 1.26018E-22
4.62608E-03 1.19662E-22
4.74527E-03 1.13701E-22
4.86597E-03 1.08106E-22
4.98817E-03 1.02851E-22
5.11188E-03 9.79106E-23
5.23711E-03 9.32634E-23
5.36383E-03 8.88881E-23
5.49207E-03 8.47662E-23
5.62181E-03 8.08802E-23
5.75306E-03 7.72139E-23
5.88581E-03 7.37530E-23
6.02007E-03 7.04833E-23
6.15583E-03 6.73928E-23
6.29310E-03 6.44695E-23
6.43187E-03 6.17028E-23
6.57214E-03 5.90828E-23
6.71392E-03 5.66001E-23
6.85720E-03 5.42463E-23
7.00198E-03 5.20134E-23
7.14827E-03 4.98940E-23
7.29605E-03 4.78814E-23
7.44534E-03 4.59690E-23
7.59612E-03 4.41511E-23
7.97965E-03 3.99837E-23
8.37255E-03 3.62959E-23
8.77480E-03 3.30229E-23
9.18641E-03 3.01101E-23
9.60736E-03 2.75110E-23
1.00376E-02 2.51859E-23
1.04773E-02 2.31008E-23
1.09262E-02 2.12268E-23
1.13844E-02 1.95386E-23
1.18520E-02 1.80146E-23
1.23288E-02 1.66361E-23
1.28150E-02 1.53867E-23
1.33104E-02 1.42521E-23
1.38150E-02 1.32200E-23
1.43290E-02 1.22794E-23
1.48521E-02 1.14208E-23
1.53845E-02 1.06358E-23
1.59262E-02 9.91695E-24
1.64770E-02 9.25764E-24
1.70371E-02 8.65208E-24
1.76063E-02 8.09510E-24
1.81848E-02 7.58211E-24
1.87724E-02 7.10900E-24
1.93692E-02 6.67212E-24
1.99751E-02 6.26819E-24
2.05901E-02 5.89427E-24
2.12143E-02 5.54774E-24
2.18476E-02 5.22623E-24
2.24900E-02 4.92760E-24
2.31415E-02 4.64992E-24
2.38021E-02 4.39146E-24
2.44717E-02 4.15066E-24
2.51504E-02 3.92607E-24
2.58382E-02 3.71642E-24
2.65349E-02 3.52052E-24
2.72407E-02 3.33731E-24
2.79555E-02 3.16582E-24
2.86793E-02 3.00517E-24
2.94120E-02 2.85453E-24
3.01537E-02 2.71317E-24
3.09043E-02 2.58042E-24
3.16639E-02 2.45566E-24
3.24324E-02 2.33831E-24
3.32098E-02 2.22786E-24
3.39961E-02 2.12382E-24
3.47912E-02 2.02576E-24
3.55952E-02 1.93326E-24
3.64081E-02 1.84596E-24
3.72297E-02 1.76351E-24
3.80602E-02 1.68559E-24
3.88995E-02 1.61190E-24
3.97476E-02 1.54217E-24
4.06044E-02 1.47615E-24
4.14700E-02 1.41361E-24
4.23443E-02 1.35432E-24
4.32273E-02 1.29810E-24
4.41190E-02 1.24474E-24
4.50194E-02 1.19409E-24
4.59284E-02 1.14596E-24
4.68461E-02 1.10023E-24
4.87074E-02 1.01536E-24
5.06030E-02 9.38465E-25
5.25328E-02 8.68671E-25
5.44967E-02 8.05203E-25
5.64946E-02 7.47388E-25
5.85262E-02 6.94634E-25
6.05914E-02 6.46420E-25
6.26901E-02 6.02286E-25
6.48222E-02 5.61826E-25
6.69873E-02 5.24680E-25
6.91854E-02 4.90529E-25
7.14163E-02 4.59088E-25
7.36799E-02 4.30104E-25
7.59760E-02 4.03351E-25
7.83043E-02 3.78627E-25
8.06647E-02 3.55750E-25
8.30571E-02 3.34559E-25
8.54812E-02 3.14906E-25
8.79369E-02 2.96659E-25
9.04240E-02 2.79702E-25
9.29422E-02 2.63925E-25
9.54915E-02 2.49232E-25
9.80716E-02 2.35536E-25
1.00682E-01 2.22756E-25
1.03323E-01 2.10821E-25
1.05995E-01 1.99664E-25
1.08696E-01 1.89226E-25
1.11427E-01 1.79452E-25
1.14188E-01 1.70293E-25
1.16978E-01 1.61702E-25
1.19797E-01 1.53638E-25
1.22645E-01 1.46063E-25
1.25522E-01 1.38942E-25
1.28428E-01 1.32243E-25
1.31361E-01 1.25936E-25
1.34323E-01 1.19995E-25
1.37313E-01 1.14394E-25
1.40330E-01 1.09110E-25
1.43375E-01 1.04123E-25
1.46447E-01 9.94116E-26
1.49545E-01 9.49590E-26
1.52671E-01 9.07482E-26
1.55823E-01 8.67637E-26
1.59001E-01 8.29911E-26
1.62205E-01 7.94171E-26
1.65435E-01 7.60294E-26
1.68690E-01 7.28165E-26
1.71970E-01 6.97678E-26
1.75276E-01 6.68734E-26
1.78606E-01 6.41242E-26
1.81961E-01 6.15114E-26
1.85340E-01 5.90271E-26
1.88743E-01 5.66639E-26
1.92169E-01 5.44149E-26
1.95619E-01 5.22734E-26
1.99092E-01 5.02335E-26
2.02589E-01 4.82894E-26
2.06107E-01 4.64359E-26
2.09649E-01 4.46680E-26
2.13212E-01 4.29810E-26
2.16797E-01 4.13705E-26
2.20404E-01 3.98325E-26
2.24032E-01 3.83632E-26
2.27680E-01 3.69589E-26
2.31350E-01 3.56161E-26
2.35040E-01 3.43319E-26
2.38751E-01 3.31030E-26
2.42481E-01 3.19268E-26
2.46231E-01 3.08006E-26
2.50000E-01 2.97218E-26
2.53788E-01 2.86882E-26
2.57595E-01 2.76974E-26
2.61421E-01 2.67475E-26
2.65264E-01 2.58363E-26
2.69126E-01 2.49621E-26
2.73005E-01 2.41231E-26
2.76901E-01 2.33176E-26
2.80814E-01 2.25441E-26
2.84744E-01 2.18010E-26
2.88691E-01 2.10870E-26
2.92653E-01 2.04007E-26
2.96632E-01 1.97408E-26
3.00625E-01 1.91062E-26
3.04634E-01 1.84957E-26
3.08658E-01 1.79082E-26
3.12697E-01 1.73427E-26
3.16749E-01 1.67983E-26
3.20816E-01 1.62740E-26
3.24896E-01 1.57689E-26
3.28990E-01 1.52823E-26
3.33097E-01 1.48133E-26
3.37216E-01 1.43612E-26
3.41348E-01 1.39253E-26
3.45492E-01 1.35048E-26
3.49647E-01 1.30992E-26
3.53814E-01 1.27078E-26
3.57992E-01 1.23300E-26
3.62181E-01 1.19654E-26
3.66381E-01 1.16133E-26
3.70590E-01 1.12732E-26
3.74810E-01 1.09447E-26
3.79039E-01 1.06273E-26
3.83277E-01 1.03206E-26
3.87524E-01 1.00241E-26
3.91780E-01 9.73750E-27
3.96044E-01 9.46032E-27
4.00316E-01 9.19224E-27
4.04596E-01 8.93290E-27
4.08882E-01 8.68197E-27
4.13176E-01 8.43914E-27
4.17476E-01 8.20409E-27
4.21783E-01 7.97654E-27
4.26095E-01 7.75620E-27
4.30413E-01 7.54282E-27
4.34737E-01 7.33612E-27
4.39065E-01 7.13588E-27
4.43398E-01 6.94184E-27
4.47736E-01 6.75380E-27
4.52077E-01 6.57152E-27
4.56422E-01 6.39481E-27
4.60770E-01 6.22347E-27
4.65122E-01 6.05730E-27
4.69476E-01 5.89613E-27
4.73832E-01 5.73978E-27
4.78190E-01 5.58808E-27
4.82550E-01 5.44087E-27
4.86912E-01 5.29799E-27
4.91274E-01 5.15931E-27
4.95637E-01 5.02467E-27
5.00000E-01 4.89393E-27
5.04363E-01 4.76697E-27
5.08726E-01 4.64366E-27
5.13088E-01 4.52387E-27
5.17450E-01 4.40750E-27
5.21810E-01 4.29442E-27
5.26168E-01 4.18453E-27
5.30524E-01 4.07773E-27
5.34878E-01 3.97390E-27
5.39230E-01 3.87297E-27
5.43578E-01 3.77483E-27
5.47923E-01 3.67940E-27
5.52264E-01 3.58658E-27
5.56602E-01 3.49630E-27
5.60935E-01 3.40847E-27
5.65263E-01 3.32302E-27
5.69587E-01 3.23988E-27
5.73905E-01 3.15897E-27
5.78217E-01 3.08022E-27
5.82524E-01 3.00356E-27
5.86824E-01 2.92894E-27
5.91118E-01 2.85629E-27
5.95404E-01 2.78555E-27
5.99684E-01 2.71666E-27
6.03956E-01 2.64957E-27
6.08220E-01 2.58421E-27
6.12476E-01 2.52055E-27
6.16723E-01 2.45853E-27
6.20961E-01 2.39811E-27
6.25190E-01 2.33922E-27
6.29410E-01 2.28184E-27
6.33619E-01 2.22591E-27
6.37819E-01 2.17140E-27
6.42008E-01 2.11826E-27
6.46186E-01 2.06645E-27
6.50353E-01 2.01594E-27
6.54508E-01 1.96668E-27
6.58652E-01 1.91865E-27
6.62784E-01 1.87181E-27
6.66903E-01 1.82612E-27
6.71010E-01 1.78155E-27
6.75104E-01 1.73808E-27
6.79184E-01 1.69566E-27
6.83251E-01 1.65428E-27
6.87303E-01 1.61390E-27
6.91342E-01 1.57450E-27
6.95366E-01 1.53604E-27
6.99375E-01 1.49851E-27
7.03368E-01 1.46188E-27
7.07347E-01 1.42612E-27
7.11309E-01 1.39121E-27
7.15256E-01 1.35713E-27
7.19186E-01 1.32385E-27
7.23099E-01 1.29136E-27
7.26995E-01 1.25964E-27
7.30874E-01 1.22866E-27
7.34736E-01 1.19840E-27
7.38579E-01 1.16885E-27
7.42405E-01 1.13998E-27
7.46212E-01 1.11179E-27
7.50000E-01 1.08425E-27
7.53769E-01 1.05734E-27
7.57519E-01 1.03105E-27
7.61249E-01 1.00537E-27
7.64960E-01 9.80278E-28
7.68650E-01 9.55758E-28
7.72320E-01 9.31799E-28
7.75968E-01 9.08384E-28
7.79596E-01 8.85502E-28
7.83203E-01 8.63139E-28
7.86788E-01 8.41283E-28
7.90351E-01 8.19920E-28
7.93893E-01 7.99040E-28
7.97411E-01 7.78629E-28
8.00908E-01 7.58678E-28
8.04381E-01 7.39174E-28
8.07831E-01 7.20108E-28
8.11257E-01 7.01468E-28
8.14660E-01 6.83246E-28
8.18039E-01 6.65430E-28
8.21394E-01 6.48012E-28
8.24724E-01 6.30981E-28
8.28030E-01 6.14330E-28
8.31310E-01 5.98049E-28
8.34565E-01 5.82130E-28
8.37795E-01 5.66564E-28
8.40999E-01 5.51344E-28
8.44177E-01 5.36462E-28
8.47329E-01 5.21909E-28
8.50455E-01 5.07680E-28
8.53553E-01 4.93765E-28
8.56625E-01 4.80160E-28
8.59670E-01 4.66855E-28
8.62687E-01 4.53846E-28
8.65677E-01 4.41126E-28
8.68639E-01 4.28688E-28
8.71572E-01 4.16526E-28
8.74478E-01 4.04635E-28
8.77355E-01 3.93008E-28
8.80203E-01 3.81640E-28
8.83022E-01 3.70525E-28
8.85812E-01 3.59659E-28
8.88573E-01 3.49036E-28
8.91304E-01 3.38651E-28
8.94005E-01 3.28499E-28
8.96677E-01 3.18576E-28
8.99318E-01 3.08875E-28
9.01928E-01 2.99395E-28
9.04508E-01 2.90129E-28
9.07058E-01 2.81074E-28
9.09576E-01 2.72226E-28
9.12063E-01 2.63580E-28
9.14519E-01 2.55132E-28
9.16943E-01 2.46879E-28
9.19335E-01 2.38817E-28
9.21696E-01 2.30943E-28
9.24024E-01 2.23252E-28
9.26320E-01 2.15742E-28
9.28584E-01 2.08409E-28
9.30815E-01 2.01250E-28
9.33013E-01 1.94262E-28
9.35178E-01 1.87442E-28
9.37310E-01 1.80786E-28
9.39409E-01 1.74292E-28
9.41474E-01 1.67957E-28
9.43505E-01 1.61778E-28
9.45503E-01 1.55754E-28
9.47467E-01 1.49880E-28
9.49397E-01 1.44155E-28
9.51293E-01 1.38576E-28
9.53154E-01 1.33141E-28
9.54981E-01 1.27847E-28
9.56773E-01 1.22693E-28
9.58530E-01 1.17675E-28
9.60252E-01 1.12793E-28
9.61940E-01 1.08044E-28
9.63592E-01 1.03426E-28
9.65209E-01 9.89370E-29
9.66790E-01 9.45752E-29
9.68336E-01 9.03389E-29
9.69846E-01 8.62264E-29
9.71321E-01 8.22359E-29
9.72759E-01 7.83658E-29
9.74162E-01 7.46145E-29
9.75528E-01 7.09807E-29
9.76858E-01 6.74626E-29
9.78152E-01 6.40590E-29
9.79410E-01 6.07684E-29
9.80631E-01 5.75896E-29
9.81815E-01 5.45211E-29
9.82963E-01 5.15619E-29
9.84074E-01 4.87108E-29
9.85148E-01 4.59665E-29
9.86185E-01 4.33280E-29
9.87185E-01 4.07944E-29
9.88148E-01 3.83645E-29
9.89074E-01 3.60373E-29
9.89962E-01 3.38121E-29
9.90814E-01 3.16878E-29
9.91627E-01 2.96638E-29
9.92404E-01 2.77389E-29
9.93143E-01 2.59128E-29
9.93844E-01 2.41845E-29
9.94508E-01 2.25535E-29
9.95134E-01 2.10190E-29
9.95722E-01 1.95805E-29
9.96273E-01 1.82374E-29
9.96786E-01 1.69891E-29
9.97261E-01 1.58354E-29
9.97698E-01 1.47755E-29
9.98097E-01 1.38092E-29
9.98459E-01 1.29360E-29
9.98782E-01 1.21556E-29
9.99067E-01 1.14678E-29
9.99315E-01 1.08722E-29
9.99524E-01 1.03686E-29
9.99695E-01 9.95687E-30
9.99829E-01 9.63680E-30
9.99924E-01 9.40821E-30
9.99981E-01 9.27120E-30
1.00000E+00 9.22519E-30
