 #
 # Subroutine ELSEPA. Elastic scattering of electrons and positrons
 #                    by neutral atoms and positive ions
 #
 # Projectile: positron
 # Kinetic energy = 1.75000E+07 eV = 6.43113E+05 a.u.
 #
 # WARNING: High-energy factorization with free-atom DF screening.
 #          Absorption, polarization and exchange corrections are
 #          switched off.
 #          Phase shifts are calculated for the bare nucleus.
 #          Scattering amplitudes are not evaluated.
 #
 # Element:  C,  Z =   6,  atomic weight = 1.20107E+01 g/mol
 #
 # Nuclear model: Fermi distribution
 #                Average radius = 2.45042E-13 cm
 #                Skin thickness = 5.46000E-14 cm
 #
 # Number of electrons =  6
 #
 # Total elastic cross section = 2.41277E-19 cm**2 = 8.61615E-03 a0**2
 # 1st transport cross section = 2.10884E-25 cm**2 = 7.53080E-09 a0**2
 # 2nd transport cross section = 6.12361E-25 cm**2 = 2.18678E-08 a0**2
 #
 #
 # Differential cross section:                       MU=(1-COS(THETA))/2
 #
 #  THETA        MU          DCS          DCS        Sherman      error
 #  (deg)                 (cm**2/sr)   (a0**2/sr)    function
 #----------------------------------------------------------------------
0.00000E+00 7.61887E-13
7.61557E-13 7.61845E-13
1.18994E-12 7.61821E-13
1.71346E-12 7.61793E-13
2.33225E-12 7.61759E-13
3.04617E-12 7.61721E-13
3.85530E-12 7.61677E-13
4.75964E-12 7.61628E-13
5.75917E-12 7.61574E-13
6.85391E-12 7.61515E-13
8.04379E-12 7.61451E-13
9.32893E-12 7.61381E-13
1.07092E-11 7.61307E-13
1.21847E-11 7.61227E-13
1.37554E-11 7.61143E-13
1.54213E-11 7.61053E-13
1.71823E-11 7.60958E-13
1.90386E-11 7.60858E-13
2.09900E-11 7.60753E-13
2.30367E-11 7.60643E-13
2.51785E-11 7.60528E-13
2.74156E-11 7.60408E-13
2.97478E-11 7.60282E-13
3.21752E-11 7.60152E-13
3.46979E-11 7.60016E-13
3.73157E-11 7.59876E-13
4.00286E-11 7.59730E-13
4.28368E-11 7.59579E-13
4.57402E-11 7.59424E-13
4.87388E-11 7.59263E-13
5.18325E-11 7.59097E-13
5.50215E-11 7.58926E-13
5.83057E-11 7.58750E-13
6.16850E-11 7.58569E-13
6.51595E-11 7.58383E-13
6.87293E-11 7.58192E-13
7.23943E-11 7.57996E-13
7.61544E-11 7.57795E-13
1.18991E-10 7.55510E-13
1.71347E-10 7.52732E-13
2.33223E-10 7.49469E-13
3.04617E-10 7.45728E-13
3.85531E-10 7.41519E-13
4.75965E-10 7.36857E-13
5.75917E-10 7.31755E-13
6.85389E-10 7.26220E-13
8.04380E-10 7.20270E-13
9.32891E-10 7.13926E-13
1.07092E-09 7.07205E-13
1.21847E-09 7.00106E-13
1.37554E-09 6.92665E-13
1.54213E-09 6.84900E-13
1.71823E-09 6.76826E-13
1.90386E-09 6.68449E-13
2.09900E-09 6.59806E-13
2.30367E-09 6.50918E-13
2.51785E-09 6.41793E-13
2.74156E-09 6.32445E-13
2.97478E-09 6.22912E-13
3.21752E-09 6.13213E-13
3.46978E-09 6.03345E-13
3.73156E-09 5.93338E-13
4.00286E-09 5.83223E-13
4.28368E-09 5.73019E-13
4.57402E-09 5.62707E-13
4.87388E-09 5.51996E-13
5.18326E-09 5.40876E-13
5.50215E-09 5.29969E-13
5.83057E-09 5.19285E-13
6.16850E-09 5.08832E-13
6.51596E-09 4.98616E-13
6.87293E-09 4.88642E-13
7.23942E-09 4.78913E-13
7.61544E-09 4.68553E-13
1.18991E-08 3.69362E-13
1.71347E-08 2.84813E-13
2.33223E-08 2.16712E-13
3.04617E-08 1.63371E-13
3.85531E-08 1.22767E-13
4.75965E-08 9.25819E-14
5.75917E-08 7.02425E-14
6.85389E-08 5.36429E-14
8.04380E-08 4.13463E-14
9.32891E-08 3.22011E-14
1.07092E-07 2.53464E-14
1.21847E-07 2.01709E-14
1.37554E-07 1.62106E-14
1.54213E-07 1.31610E-14
1.71823E-07 1.07924E-14
1.90386E-07 8.93667E-15
2.09900E-07 7.46813E-15
2.30367E-07 6.29407E-15
2.51785E-07 5.34617E-15
2.74156E-07 4.57379E-15
2.97478E-07 3.93923E-15
3.21752E-07 3.41409E-15
3.46978E-07 2.97663E-15
3.73156E-07 2.60967E-15
4.00286E-07 2.29969E-15
4.28368E-07 2.03606E-15
4.57402E-07 1.81033E-15
4.87388E-07 1.61578E-15
5.18325E-07 1.44739E-15
5.50215E-07 1.30137E-15
5.83057E-07 1.17396E-15
6.16850E-07 1.06184E-15
6.51596E-07 9.63478E-16
6.87293E-07 8.76763E-16
7.23942E-07 7.99183E-16
7.61543E-07 7.30452E-16
1.18991E-06 3.29266E-16
1.71347E-06 1.69678E-16
2.33223E-06 9.57223E-17
3.04617E-06 5.77944E-17
3.85531E-06 3.68103E-17
4.75964E-06 2.44853E-17
5.75916E-06 1.68847E-17
6.85388E-06 1.20030E-17
8.04378E-06 8.75709E-18
9.32888E-06 6.53388E-18
1.07092E-05 4.97132E-18
1.21846E-05 3.84792E-18
1.37553E-05 3.02394E-18
1.54212E-05 2.40873E-18
1.71822E-05 1.94205E-18
1.90385E-05 1.58148E-18
2.09899E-05 1.30200E-18
2.30365E-05 1.08185E-18
2.51783E-05 9.06362E-19
2.74153E-05 7.64965E-19
2.97475E-05 6.49948E-19
3.21749E-05 5.55624E-19
3.46974E-05 4.77725E-19
3.73152E-05 4.12986E-19
4.00281E-05 3.58870E-19
4.28362E-05 3.13370E-19
4.57395E-05 2.74893E-19
4.87380E-05 2.42163E-19
5.18317E-05 2.14164E-19
5.50205E-05 1.90086E-19
5.83045E-05 1.69282E-19
6.16838E-05 1.51234E-19
6.51582E-05 1.35519E-19
6.87277E-05 1.21791E-19
7.23925E-05 1.09763E-19
7.61524E-05 9.91895E-20
9.21439E-05 6.77621E-20
1.09658E-04 4.78311E-20
1.28695E-04 3.47265E-20
1.49255E-04 2.58154E-20
1.71338E-04 1.95863E-20
1.94942E-04 1.51297E-20
2.20070E-04 1.18694E-20
2.46720E-04 9.44305E-21
2.74892E-04 7.60542E-21
3.04586E-04 6.19392E-21
3.35803E-04 5.09529E-21
3.68542E-04 4.22946E-21
4.02802E-04 3.54021E-21
4.38585E-04 2.98558E-21
4.75889E-04 2.53552E-21
5.14715E-04 2.16711E-21
5.55063E-04 1.86319E-21
5.96931E-04 1.61078E-21
6.40321E-04 1.39962E-21
6.85233E-04 1.22200E-21
7.31665E-04 1.07164E-21
7.79618E-04 9.43714E-22
8.29092E-04 8.34320E-22
8.80086E-04 7.40305E-22
9.32601E-04 6.59180E-22
9.86636E-04 5.88850E-22
1.04219E-03 5.27659E-22
1.09927E-03 4.74208E-22
1.15786E-03 4.27352E-22
1.21797E-03 3.86145E-22
1.27961E-03 3.49778E-22
1.34276E-03 3.17597E-22
1.40743E-03 2.89028E-22
1.47362E-03 2.63600E-22
1.54133E-03 2.40907E-22
1.61056E-03 2.20600E-22
1.68131E-03 2.02390E-22
1.75357E-03 1.86018E-22
1.82735E-03 1.71269E-22
1.90265E-03 1.57951E-22
1.97947E-03 1.45902E-22
2.05780E-03 1.34980E-22
2.13765E-03 1.25060E-22
2.21902E-03 1.16035E-22
2.30190E-03 1.07808E-22
2.38630E-03 1.00297E-22
2.47222E-03 9.34291E-23
2.55965E-03 8.71379E-23
2.64859E-03 8.13676E-23
2.73905E-03 7.60662E-23
2.83103E-03 7.11896E-23
2.92452E-03 6.66972E-23
3.01952E-03 6.25532E-23
3.11604E-03 5.87260E-23
3.21407E-03 5.51866E-23
3.31362E-03 5.19098E-23
3.41468E-03 4.88723E-23
3.51725E-03 4.60536E-23
3.62133E-03 4.34351E-23
3.72692E-03 4.09997E-23
3.83403E-03 3.87326E-23
3.94265E-03 3.66198E-23
4.05278E-03 3.46490E-23
4.16442E-03 3.28089E-23
4.27757E-03 3.10891E-23
4.39223E-03 2.94805E-23
4.50840E-03 2.79744E-23
4.62608E-03 2.65633E-23
4.74527E-03 2.52398E-23
4.86597E-03 2.39977E-23
4.98817E-03 2.28310E-23
5.11188E-03 2.17342E-23
5.23711E-03 2.07024E-23
5.36383E-03 1.97310E-23
5.49207E-03 1.88159E-23
5.62181E-03 1.79532E-23
5.75306E-03 1.71392E-23
5.88581E-03 1.63708E-23
6.02007E-03 1.56449E-23
6.15583E-03 1.49588E-23
6.29310E-03 1.43098E-23
6.43187E-03 1.36956E-23
6.57214E-03 1.31139E-23
6.71392E-03 1.25627E-23
6.85720E-03 1.20402E-23
7.00198E-03 1.15445E-23
7.14827E-03 1.10740E-23
7.29605E-03 1.06272E-23
7.44534E-03 1.02026E-23
7.59612E-03 9.79907E-24
7.97965E-03 8.87392E-24
8.37255E-03 8.05524E-24
8.77480E-03 7.32868E-24
9.18641E-03 6.68208E-24
9.60736E-03 6.10511E-24
1.00376E-02 5.58897E-24
1.04773E-02 5.12614E-24
1.09262E-02 4.71015E-24
1.13844E-02 4.33542E-24
1.18520E-02 3.99715E-24
1.23288E-02 3.69116E-24
1.28150E-02 3.41384E-24
1.33104E-02 3.16201E-24
1.38150E-02 2.93293E-24
1.43290E-02 2.72417E-24
1.48521E-02 2.53361E-24
1.53845E-02 2.35939E-24
1.59262E-02 2.19984E-24
1.64770E-02 2.05352E-24
1.70371E-02 1.91912E-24
1.76063E-02 1.79552E-24
1.81848E-02 1.68167E-24
1.87724E-02 1.57668E-24
1.93692E-02 1.47973E-24
1.99751E-02 1.39009E-24
2.05901E-02 1.30712E-24
2.12143E-02 1.23022E-24
2.18476E-02 1.15888E-24
2.24900E-02 1.09262E-24
2.31415E-02 1.03100E-24
2.38021E-02 9.73657E-25
2.44717E-02 9.20227E-25
2.51504E-02 8.70397E-25
2.58382E-02 8.23882E-25
2.65349E-02 7.80420E-25
2.72407E-02 7.39774E-25
2.79555E-02 7.01728E-25
2.86793E-02 6.66087E-25
2.94120E-02 6.32669E-25
3.01537E-02 6.01311E-25
3.09043E-02 5.71863E-25
3.16639E-02 5.44187E-25
3.24324E-02 5.18157E-25
3.32098E-02 4.93657E-25
3.39961E-02 4.70581E-25
3.47912E-02 4.48830E-25
3.55952E-02 4.28315E-25
3.64081E-02 4.08952E-25
3.72297E-02 3.90665E-25
3.80602E-02 3.73383E-25
3.88995E-02 3.57041E-25
3.97476E-02 3.41577E-25
4.06044E-02 3.26937E-25
4.14700E-02 3.13068E-25
4.23443E-02 2.99922E-25
4.32273E-02 2.87455E-25
4.41190E-02 2.75624E-25
4.50194E-02 2.64392E-25
4.59284E-02 2.53722E-25
4.68461E-02 2.43581E-25
4.87074E-02 2.24765E-25
5.06030E-02 2.07719E-25
5.25328E-02 1.92247E-25
5.44967E-02 1.78179E-25
5.64946E-02 1.65364E-25
5.85262E-02 1.53672E-25
6.05914E-02 1.42987E-25
6.26901E-02 1.33207E-25
6.48222E-02 1.24242E-25
6.69873E-02 1.16011E-25
6.91854E-02 1.08445E-25
7.14163E-02 1.01480E-25
7.36799E-02 9.50590E-26
7.59760E-02 8.91332E-26
7.83043E-02 8.36572E-26
8.06647E-02 7.85907E-26
8.30571E-02 7.38978E-26
8.54812E-02 6.95460E-26
8.79369E-02 6.55061E-26
9.04240E-02 6.17518E-26
9.29422E-02 5.82592E-26
9.54915E-02 5.50070E-26
9.80716E-02 5.19755E-26
1.00682E-01 4.91472E-26
1.03323E-01 4.65060E-26
1.05995E-01 4.40374E-26
1.08696E-01 4.17279E-26
1.11427E-01 3.95656E-26
1.14188E-01 3.75395E-26
1.16978E-01 3.56393E-26
1.19797E-01 3.38558E-26
1.22645E-01 3.21807E-26
1.25522E-01 3.06061E-26
1.28428E-01 2.91250E-26
1.31361E-01 2.77308E-26
1.34323E-01 2.64175E-26
1.37313E-01 2.51795E-26
1.40330E-01 2.40118E-26
1.43375E-01 2.29097E-26
1.46447E-01 2.18688E-26
1.49545E-01 2.08851E-26
1.52671E-01 1.99550E-26
1.55823E-01 1.90749E-26
1.59001E-01 1.82417E-26
1.62205E-01 1.74525E-26
1.65435E-01 1.67046E-26
1.68690E-01 1.59953E-26
1.71970E-01 1.53223E-26
1.75276E-01 1.46835E-26
1.78606E-01 1.40768E-26
1.81961E-01 1.35003E-26
1.85340E-01 1.29522E-26
1.88743E-01 1.24309E-26
1.92169E-01 1.19348E-26
1.95619E-01 1.14625E-26
1.99092E-01 1.10127E-26
2.02589E-01 1.05841E-26
2.06107E-01 1.01755E-26
2.09649E-01 9.78582E-27
2.13212E-01 9.41404E-27
2.16797E-01 9.05917E-27
2.20404E-01 8.72033E-27
2.24032E-01 8.39665E-27
2.27680E-01 8.08734E-27
2.31350E-01 7.79164E-27
2.35040E-01 7.50886E-27
2.38751E-01 7.23833E-27
2.42481E-01 6.97942E-27
2.46231E-01 6.73155E-27
2.50000E-01 6.49417E-27
2.53788E-01 6.26674E-27
2.57595E-01 6.04879E-27
2.61421E-01 5.83985E-27
2.65264E-01 5.63948E-27
2.69126E-01 5.44727E-27
2.73005E-01 5.26282E-27
2.76901E-01 5.08578E-27
2.80814E-01 4.91578E-27
2.84744E-01 4.75251E-27
2.88691E-01 4.59564E-27
2.92653E-01 4.44489E-27
2.96632E-01 4.29998E-27
3.00625E-01 4.16063E-27
3.04634E-01 4.02660E-27
3.08658E-01 3.89765E-27
3.12697E-01 3.77355E-27
3.16749E-01 3.65410E-27
3.20816E-01 3.53908E-27
3.24896E-01 3.42830E-27
3.28990E-01 3.32159E-27
3.33097E-01 3.21876E-27
3.37216E-01 3.11965E-27
3.41348E-01 3.02410E-27
3.45492E-01 2.93197E-27
3.49647E-01 2.84310E-27
3.53814E-01 2.75737E-27
3.57992E-01 2.67465E-27
3.62181E-01 2.59480E-27
3.66381E-01 2.51773E-27
3.70590E-01 2.44330E-27
3.74810E-01 2.37142E-27
3.79039E-01 2.30198E-27
3.83277E-01 2.23489E-27
3.87524E-01 2.17005E-27
3.91780E-01 2.10738E-27
3.96044E-01 2.04679E-27
4.00316E-01 1.98820E-27
4.04596E-01 1.93153E-27
4.08882E-01 1.87672E-27
4.13176E-01 1.82368E-27
4.17476E-01 1.77236E-27
4.21783E-01 1.72268E-27
4.26095E-01 1.67459E-27
4.30413E-01 1.62803E-27
4.34737E-01 1.58293E-27
4.39065E-01 1.53926E-27
4.43398E-01 1.49694E-27
4.47736E-01 1.45595E-27
4.52077E-01 1.41622E-27
4.56422E-01 1.37771E-27
4.60770E-01 1.34038E-27
4.65122E-01 1.30419E-27
4.69476E-01 1.26909E-27
4.73832E-01 1.23505E-27
4.78190E-01 1.20203E-27
4.82550E-01 1.17000E-27
4.86912E-01 1.13892E-27
4.91274E-01 1.10875E-27
4.95637E-01 1.07947E-27
5.00000E-01 1.05105E-27
5.04363E-01 1.02346E-27
5.08726E-01 9.96667E-28
5.13088E-01 9.70647E-28
5.17450E-01 9.45373E-28
5.21810E-01 9.20822E-28
5.26168E-01 8.96969E-28
5.30524E-01 8.73791E-28
5.34878E-01 8.51267E-28
5.39230E-01 8.29375E-28
5.43578E-01 8.08095E-28
5.47923E-01 7.87406E-28
5.52264E-01 7.67291E-28
5.56602E-01 7.47730E-28
5.60935E-01 7.28706E-28
5.65263E-01 7.10202E-28
5.69587E-01 6.92202E-28
5.73905E-01 6.74689E-28
5.78217E-01 6.57650E-28
5.82524E-01 6.41069E-28
5.86824E-01 6.24931E-28
5.91118E-01 6.09224E-28
5.95404E-01 5.93934E-28
5.99684E-01 5.79048E-28
6.03956E-01 5.64555E-28
6.08220E-01 5.50442E-28
6.12476E-01 5.36698E-28
6.16723E-01 5.23311E-28
6.20961E-01 5.10273E-28
6.25190E-01 4.97571E-28
6.29410E-01 4.85196E-28
6.33619E-01 4.73138E-28
6.37819E-01 4.61389E-28
6.42008E-01 4.49939E-28
6.46186E-01 4.38780E-28
6.50353E-01 4.27902E-28
6.54508E-01 4.17299E-28
6.58652E-01 4.06962E-28
6.62784E-01 3.96884E-28
6.66903E-01 3.87057E-28
6.71010E-01 3.77474E-28
6.75104E-01 3.68128E-28
6.79184E-01 3.59014E-28
6.83251E-01 3.50123E-28
6.87303E-01 3.41451E-28
6.91342E-01 3.32991E-28
6.95366E-01 3.24737E-28
6.99375E-01 3.16684E-28
7.03368E-01 3.08825E-28
7.07347E-01 3.01157E-28
7.11309E-01 2.93673E-28
7.15256E-01 2.86369E-28
7.19186E-01 2.79240E-28
7.23099E-01 2.72281E-28
7.26995E-01 2.65488E-28
7.30874E-01 2.58857E-28
7.34736E-01 2.52382E-28
7.38579E-01 2.46060E-28
7.42405E-01 2.39887E-28
7.46212E-01 2.33860E-28
7.50000E-01 2.27973E-28
7.53769E-01 2.22225E-28
7.57519E-01 2.16610E-28
7.61249E-01 2.11126E-28
7.64960E-01 2.05770E-28
7.68650E-01 2.00537E-28
7.72320E-01 1.95426E-28
7.75968E-01 1.90433E-28
7.79596E-01 1.85554E-28
7.83203E-01 1.80788E-28
7.86788E-01 1.76131E-28
7.90351E-01 1.71581E-28
7.93893E-01 1.67135E-28
7.97411E-01 1.62791E-28
8.00908E-01 1.58545E-28
8.04381E-01 1.54396E-28
8.07831E-01 1.50341E-28
8.11257E-01 1.46378E-28
8.14660E-01 1.42505E-28
8.18039E-01 1.38720E-28
8.21394E-01 1.35020E-28
8.24724E-01 1.31404E-28
8.28030E-01 1.27869E-28
8.31310E-01 1.24414E-28
8.34565E-01 1.21037E-28
8.37795E-01 1.17736E-28
8.40999E-01 1.14509E-28
8.44177E-01 1.11355E-28
8.47329E-01 1.08271E-28
8.50455E-01 1.05257E-28
8.53553E-01 1.02311E-28
8.56625E-01 9.94304E-29
8.59670E-01 9.66148E-29
8.62687E-01 9.38625E-29
8.65677E-01 9.11720E-29
8.68639E-01 8.85421E-29
8.71572E-01 8.59713E-29
8.74478E-01 8.34584E-29
8.77355E-01 8.10021E-29
8.80203E-01 7.86012E-29
8.83022E-01 7.62546E-29
8.85812E-01 7.39610E-29
8.88573E-01 7.17193E-29
8.91304E-01 6.95285E-29
8.94005E-01 6.73875E-29
8.96677E-01 6.52953E-29
8.99318E-01 6.32508E-29
9.01928E-01 6.12530E-29
9.04508E-01 5.93011E-29
9.07058E-01 5.73941E-29
9.09576E-01 5.55311E-29
9.12063E-01 5.37111E-29
9.14519E-01 5.19335E-29
9.16943E-01 5.01973E-29
9.19335E-01 4.85017E-29
9.21696E-01 4.68459E-29
9.24024E-01 4.52293E-29
9.26320E-01 4.36510E-29
9.28584E-01 4.21103E-29
9.30815E-01 4.06065E-29
9.33013E-01 3.91389E-29
9.35178E-01 3.77070E-29
9.37310E-01 3.63099E-29
9.39409E-01 3.49472E-29
9.41474E-01 3.36181E-29
9.43505E-01 3.23222E-29
9.45503E-01 3.10588E-29
9.47467E-01 2.98273E-29
9.49397E-01 2.86273E-29
9.51293E-01 2.74582E-29
9.53154E-01 2.63194E-29
9.54981E-01 2.52106E-29
9.56773E-01 2.41311E-29
9.58530E-01 2.30806E-29
9.60252E-01 2.20586E-29
9.61940E-01 2.10646E-29
9.63592E-01 2.00983E-29
9.65209E-01 1.91591E-29
9.66790E-01 1.82467E-29
9.68336E-01 1.73608E-29
9.69846E-01 1.65009E-29
9.71321E-01 1.56666E-29
9.72759E-01 1.48577E-29
9.74162E-01 1.40738E-29
9.75528E-01 1.33145E-29
9.76858E-01 1.25795E-29
9.78152E-01 1.18685E-29
9.79410E-01 1.11813E-29
9.80631E-01 1.05175E-29
9.81815E-01 9.87685E-30
9.82963E-01 9.25911E-30
9.84074E-01 8.66400E-30
9.85148E-01 8.09127E-30
9.86185E-01 7.54070E-30
9.87185E-01 7.01207E-30
9.88148E-01 6.50515E-30
9.89074E-01 6.01972E-30
9.89962E-01 5.55560E-30
9.90814E-01 5.11259E-30
9.91627E-01 4.69054E-30
9.92404E-01 4.28920E-30
9.93143E-01 3.90848E-30
9.93844E-01 3.54819E-30
9.94508E-01 3.20822E-30
9.95134E-01 2.88838E-30
9.95722E-01 2.58858E-30
9.96273E-01 2.30868E-30
9.96786E-01 2.04856E-30
9.97261E-01 1.80814E-30
9.97698E-01 1.58731E-30
9.98097E-01 1.38597E-30
9.98459E-01 1.20406E-30
9.98782E-01 1.04148E-30
9.99067E-01 8.98198E-31
9.99315E-01 7.74129E-31
9.99524E-01 6.69229E-31
9.99695E-01 5.83458E-31
9.99829E-01 5.16790E-31
9.99924E-01 4.69179E-31
9.99981E-01 4.40632E-31
1.00000E+00 4.31083E-31
