 #
 # Subroutine ELSEPA. Elastic scattering of electrons and positrons
 #                    by neutral atoms and positive ions
 #
 # Projectile: positron
 # Kinetic energy = 7.00000E+08 eV = 2.57245E+07 a.u.
 #
 # WARNING: High-energy factorization with free-atom DF screening.
 #          Absorption, polarization and exchange corrections are
 #          switched off.
 #          Phase shifts are calculated for the bare nucleus.
 #          Scattering amplitudes are not evaluated.
 #
 # Element:  C,  Z =   6,  atomic weight = 1.20107E+01 g/mol
 #
 # Nuclear model: Fermi distribution
 #                Average radius = 2.45042E-13 cm
 #                Skin thickness = 5.46000E-14 cm
 #
 # Number of electrons =  6
 #
 # Total elastic cross section = 2.41065E-19 cm**2 = 8.60860E-03 a0**2
 # 1st transport cross section = 1.68224E-28 cm**2 = 6.00737E-12 a0**2
 # 2nd transport cross section = 5.04455E-28 cm**2 = 1.80144E-11 a0**2
 #
 #
 # Differential cross section:                       MU=(1-COS(THETA))/2
 #
 #  THETA        MU          DCS          DCS        Sherman      error
 #  (deg)                 (cm**2/sr)   (a0**2/sr)    function
 #----------------------------------------------------------------------
0.00000E+00 1.15251E-09
7.61557E-13 1.06380E-09
1.18994E-12 1.01813E-09
1.71346E-12 9.65992E-10
2.33225E-12 9.09120E-10
3.04617E-12 8.49221E-10
3.85530E-12 7.85243E-10
4.75964E-12 7.25784E-10
5.75917E-12 6.63770E-10
6.85391E-12 6.07223E-10
8.04379E-12 5.50513E-10
9.32893E-12 4.99600E-10
1.07092E-11 4.50143E-10
1.21847E-11 4.06127E-10
1.37554E-11 3.64439E-10
1.54213E-11 3.27506E-10
1.71823E-11 2.93211E-10
1.90386E-11 2.62889E-10
2.09900E-11 2.35148E-10
2.30367E-11 2.10634E-10
2.51785E-11 1.88447E-10
2.74156E-11 1.68833E-10
2.97478E-11 1.51213E-10
3.21752E-11 1.35620E-10
3.46979E-11 1.21680E-10
3.73157E-11 1.09325E-10
4.00286E-11 9.83106E-11
4.28368E-11 8.85298E-11
4.57402E-11 7.98213E-11
4.87388E-11 7.20718E-11
5.18325E-11 6.51711E-11
5.50215E-11 5.90167E-11
5.83057E-11 5.35305E-11
6.16850E-11 4.86260E-11
6.51595E-11 4.42463E-11
6.87293E-11 4.03212E-11
7.23943E-11 3.68132E-11
7.61544E-11 3.36678E-11
1.18991E-10 1.49672E-11
1.71347E-10 7.65730E-12
2.33223E-10 4.36311E-12
3.04617E-10 2.69884E-12
3.85531E-10 1.77273E-12
4.75965E-10 1.21914E-12
5.75917E-10 8.68740E-13
6.85389E-10 6.36959E-13
8.04380E-10 4.77927E-13
9.32891E-10 3.65396E-13
1.07092E-09 2.84040E-13
1.21847E-09 2.24028E-13
1.37554E-09 1.78956E-13
1.54213E-09 1.44545E-13
1.71823E-09 1.17940E-13
1.90386E-09 9.71351E-14
2.09900E-09 8.06814E-14
2.30367E-09 6.75331E-14
2.51785E-09 5.69276E-14
2.74156E-09 4.83088E-14
2.97478E-09 4.12482E-14
3.21752E-09 3.54216E-14
3.46978E-09 3.05782E-14
3.73156E-09 2.65299E-14
4.00286E-09 2.31257E-14
4.28368E-09 2.02472E-14
4.57402E-09 1.77996E-14
4.87388E-09 1.57090E-14
5.18326E-09 1.39150E-14
5.50215E-09 1.23688E-14
5.83057E-09 1.10304E-14
6.16850E-09 9.86742E-15
6.51596E-09 8.85318E-15
6.87293E-09 7.96551E-15
7.23942E-09 7.18599E-15
7.61544E-09 6.49914E-15
1.18991E-08 2.67505E-15
1.71347E-08 1.29259E-15
2.33223E-08 6.98344E-16
3.04617E-08 4.09547E-16
3.85531E-08 2.55743E-16
4.75965E-08 1.67813E-16
5.75917E-08 1.14624E-16
6.85389E-08 8.09351E-17
8.04380E-08 5.87625E-17
9.32891E-08 4.36889E-17
1.07092E-07 3.31532E-17
1.21847E-07 2.56104E-17
1.37554E-07 2.00958E-17
1.54213E-07 1.59887E-17
1.71823E-07 1.28793E-17
1.90386E-07 1.04903E-17
2.09900E-07 8.63045E-18
2.30367E-07 7.16508E-18
2.51785E-07 5.99793E-18
2.74156E-07 5.05905E-18
2.97478E-07 4.29689E-18
3.21752E-07 3.67300E-18
3.46978E-07 3.15834E-18
3.73156E-07 2.73075E-18
4.00286E-07 2.37313E-18
4.28368E-07 2.07219E-18
4.57402E-07 1.81747E-18
4.87388E-07 1.60071E-18
5.18325E-07 1.41533E-18
5.50215E-07 1.25602E-18
5.83057E-07 1.11851E-18
6.16850E-07 9.99311E-19
6.51596E-07 8.95577E-19
6.87293E-07 8.04961E-19
7.23942E-07 7.25521E-19
7.61543E-07 6.55643E-19
1.18991E-06 2.68545E-19
1.71347E-06 1.29503E-19
2.33223E-06 6.99008E-20
3.04617E-06 4.09734E-20
3.85531E-06 2.55788E-20
4.75964E-06 1.67818E-20
5.75916E-06 1.14618E-20
6.85388E-06 8.09260E-21
8.04378E-06 5.87526E-21
9.32888E-06 4.36793E-21
1.07092E-05 3.31444E-21
1.21846E-05 2.56025E-21
1.37553E-05 2.00888E-21
1.54212E-05 1.59826E-21
1.71822E-05 1.28739E-21
1.90385E-05 1.04756E-21
2.09899E-05 8.61925E-22
2.30365E-05 7.15848E-22
2.51783E-05 5.99505E-22
2.74153E-05 5.05822E-22
2.97475E-05 4.29656E-22
3.21749E-05 3.67220E-22
3.46974E-05 3.15675E-22
3.73152E-05 2.72852E-22
4.00281E-05 2.37065E-22
4.28362E-05 2.06985E-22
4.57395E-05 1.81554E-22
4.87380E-05 1.59925E-22
5.18317E-05 1.41425E-22
5.50205E-05 1.25518E-22
5.83045E-05 1.11774E-22
6.16838E-05 9.98522E-23
6.51582E-05 8.94730E-23
6.87277E-05 8.04076E-23
7.23925E-05 7.24651E-23
7.61524E-05 6.48659E-23
9.21439E-05 4.42229E-23
1.09658E-04 3.11454E-23
1.28695E-04 2.25575E-23
1.49255E-04 1.67252E-23
1.71338E-04 1.26539E-23
1.94942E-04 9.74544E-24
2.20070E-04 7.62096E-24
2.46720E-04 6.04263E-24
2.74892E-04 4.84934E-24
3.04586E-04 3.93447E-24
3.35803E-04 3.22380E-24
3.68542E-04 2.66487E-24
4.02802E-04 2.22091E-24
4.38585E-04 1.86446E-24
4.75889E-04 1.57591E-24
5.14715E-04 1.34029E-24
5.55063E-04 1.14643E-24
5.96931E-04 9.85850E-25
6.40321E-04 8.51896E-25
6.85233E-04 7.39542E-25
7.31665E-04 6.44723E-25
7.79618E-04 5.64302E-25
8.29092E-04 4.95754E-25
8.80086E-04 4.37040E-25
9.32601E-04 3.86552E-25
9.86636E-04 3.42938E-25
1.04219E-03 3.05132E-25
1.09927E-03 2.72234E-25
1.15786E-03 2.43507E-25
1.21797E-03 2.18347E-25
1.27961E-03 1.96234E-25
1.34276E-03 1.76749E-25
1.40743E-03 1.59527E-25
1.47362E-03 1.44268E-25
1.54133E-03 1.30713E-25
1.61056E-03 1.18641E-25
1.68131E-03 1.07869E-25
1.75357E-03 9.82318E-26
1.82735E-03 8.95944E-26
1.90265E-03 8.18365E-26
1.97947E-03 7.48552E-26
2.05780E-03 6.85620E-26
2.13765E-03 6.28778E-26
2.21902E-03 5.77364E-26
2.30190E-03 5.30774E-26
2.38630E-03 4.88494E-26
2.47222E-03 4.50070E-26
2.55965E-03 4.15095E-26
2.64859E-03 3.83221E-26
2.73905E-03 3.54129E-26
2.83103E-03 3.27548E-26
2.92452E-03 3.03227E-26
3.01952E-03 2.80949E-26
3.11604E-03 2.60520E-26
3.21407E-03 2.41764E-26
3.31362E-03 2.24528E-26
3.41468E-03 2.08671E-26
3.51725E-03 1.94068E-26
3.62133E-03 1.80608E-26
3.72692E-03 1.68190E-26
3.83403E-03 1.56723E-26
3.94265E-03 1.46124E-26
4.05278E-03 1.36321E-26
4.16442E-03 1.27246E-26
4.27757E-03 1.18838E-26
4.39223E-03 1.11044E-26
4.50840E-03 1.03811E-26
4.62608E-03 9.70964E-27
4.74527E-03 9.08574E-27
4.86597E-03 8.50571E-27
4.98817E-03 7.96613E-27
5.11188E-03 7.46381E-27
5.23711E-03 6.99598E-27
5.36383E-03 6.55995E-27
5.49207E-03 6.15338E-27
5.62181E-03 5.77406E-27
5.75306E-03 5.41996E-27
5.88581E-03 5.08926E-27
6.02007E-03 4.78025E-27
6.15583E-03 4.49138E-27
6.29310E-03 4.22120E-27
6.43187E-03 3.96839E-27
6.57214E-03 3.73175E-27
6.71392E-03 3.51013E-27
6.85720E-03 3.30251E-27
7.00198E-03 3.10792E-27
7.14827E-03 2.92547E-27
7.29605E-03 2.75435E-27
7.44534E-03 2.59380E-27
7.59612E-03 2.44311E-27
7.97965E-03 2.10535E-27
8.37255E-03 1.81629E-27
8.77480E-03 1.56848E-27
9.18641E-03 1.35566E-27
9.60736E-03 1.17262E-27
1.00376E-02 1.01498E-27
1.04773E-02 8.79044E-28
1.09262E-02 7.61685E-28
1.13844E-02 6.60262E-28
1.18520E-02 5.72530E-28
1.23288E-02 4.96578E-28
1.28150E-02 4.30775E-28
1.33104E-02 3.73728E-28
1.38150E-02 3.24245E-28
1.43290E-02 2.81302E-28
1.48521E-02 2.44021E-28
1.53845E-02 2.11643E-28
1.59262E-02 1.83518E-28
1.64770E-02 1.59082E-28
1.70371E-02 1.37849E-28
1.76063E-02 1.19399E-28
1.81848E-02 1.03368E-28
1.87724E-02 8.94388E-29
1.93692E-02 7.73388E-29
1.99751E-02 6.68299E-29
2.05901E-02 5.77054E-29
2.12143E-02 4.97858E-29
2.18476E-02 4.29148E-29
2.24900E-02 3.69564E-29
2.31415E-02 3.17923E-29
2.38021E-02 2.73192E-29
2.44717E-02 2.34474E-29
2.51504E-02 2.00984E-29
2.58382E-02 1.72041E-29
2.65349E-02 1.47050E-29
2.72407E-02 1.25492E-29
2.79555E-02 1.06914E-29
2.86793E-02 9.09234E-30
2.94120E-02 7.71759E-30
3.01537E-02 6.53725E-30
3.09043E-02 5.52526E-30
3.16639E-02 4.65893E-30
3.24324E-02 3.91849E-30
3.32098E-02 3.28677E-30
3.39961E-02 2.74882E-30
3.47912E-02 2.29166E-30
3.55952E-02 1.90400E-30
3.64081E-02 1.57606E-30
3.72297E-02 1.29935E-30
3.80602E-02 1.06652E-30
3.88995E-02 8.71217E-31
3.97476E-02 7.07927E-31
4.06044E-02 5.71903E-31
4.14700E-02 4.59048E-31
4.23443E-02 3.65831E-31
4.32273E-02 2.89218E-31
4.41190E-02 2.26601E-31
4.50194E-02 1.75745E-31
4.59284E-02 1.34737E-31
4.68461E-02 1.01944E-31
4.87074E-02 5.56447E-32
5.06030E-02 2.80468E-32
5.25328E-02 1.28563E-32
5.44967E-02 5.62959E-33
5.64946E-02 3.27978E-33
5.85262E-02 3.70541E-33
6.05914E-02 5.51342E-33
6.26901E-02 7.81354E-33
6.48222E-02 1.00665E-32
6.69873E-02 1.19733E-32
6.91854E-02 1.33949E-32
7.14163E-02 1.42953E-32
7.36799E-02 1.47004E-32
7.59760E-02 1.46713E-32
7.83043E-02 1.42846E-32
8.06647E-02 1.36208E-32
8.30571E-02 1.27566E-32
8.54812E-02 1.17606E-32
8.79369E-02 1.06915E-32
9.04240E-02 9.59708E-33
9.29422E-02 8.51521E-33
9.54915E-02 7.47417E-33
9.80716E-02 6.49410E-33
1.00682E-01 5.58821E-33
1.03323E-01 4.76405E-33
1.05995E-01 4.02469E-33
1.08696E-01 3.36973E-33
1.11427E-01 2.79627E-33
1.14188E-01 2.29958E-33
1.16978E-01 1.87384E-33
1.19797E-01 1.51253E-33
1.22645E-01 1.20891E-33
1.25522E-01 9.56243E-34
1.28428E-01 7.48038E-34
1.31361E-01 5.78196E-34
1.34323E-01 4.41090E-34
1.37313E-01 3.31634E-34
1.40330E-01 2.45280E-34
1.43375E-01 1.78035E-34
1.46447E-01 1.26419E-34
1.49545E-01 8.74508E-35
1.52671E-01 5.85918E-35
1.55823E-01 3.77126E-35
1.59001E-01 2.30396E-35
1.62205E-01 1.31187E-35
1.65435E-01 6.76762E-36
1.68690E-01 3.03762E-36
1.71970E-01 1.17753E-36
1.75276E-01 6.02054E-37
1.78606E-01 8.61987E-37
1.81961E-01 1.61990E-36
1.85340E-01 2.62816E-36
1.88743E-01 3.71105E-36
1.92169E-01 4.74828E-36
1.95619E-01 5.66416E-36
1.99092E-01 6.41455E-36
2.02589E-01 6.97970E-36
2.06107E-01 7.35793E-36
2.09649E-01 7.55773E-36
2.13212E-01 7.59717E-36
2.16797E-01 7.49667E-36
2.20404E-01 7.27980E-36
2.24032E-01 6.97013E-36
2.27680E-01 6.58920E-36
2.31350E-01 6.15834E-36
2.35040E-01 5.69526E-36
2.38751E-01 5.21605E-36
2.42481E-01 4.73370E-36
2.46231E-01 4.25907E-36
2.50000E-01 3.80043E-36
2.53788E-01 3.36449E-36
2.57595E-01 2.95570E-36
2.61421E-01 2.57700E-36
2.65264E-01 2.23008E-36
2.69126E-01 1.91547E-36
2.73005E-01 1.63319E-36
2.76901E-01 1.38197E-36
2.80814E-01 1.16034E-36
2.84744E-01 9.66666E-37
2.88691E-01 7.98622E-37
2.92653E-01 6.54184E-37
2.96632E-01 5.30935E-37
3.00625E-01 4.26711E-37
3.04634E-01 3.39332E-37
3.08658E-01 2.66794E-37
3.12697E-01 2.07045E-37
3.16749E-01 1.58415E-37
3.20816E-01 1.19209E-37
3.24896E-01 8.80342E-38
3.28990E-01 6.35589E-38
3.33097E-01 4.46791E-38
3.37216E-01 3.03894E-38
3.41348E-01 1.98008E-38
3.45492E-01 1.22007E-38
3.49647E-01 6.97161E-39
3.53814E-01 3.56858E-39
3.57992E-01 1.55872E-39
3.62181E-01 5.83276E-40
3.66381E-01 3.50040E-40
3.70590E-01 6.23619E-40
3.74810E-01 1.22254E-39
3.79039E-01 1.99945E-39
3.83277E-01 2.85773E-39
3.87524E-01 3.70548E-39
3.91780E-01 4.50838E-39
3.96044E-01 5.20090E-39
4.00316E-01 5.78984E-39
4.04596E-01 6.25360E-39
4.08882E-01 6.58581E-39
4.13176E-01 6.80149E-39
4.17476E-01 6.89459E-39
4.21783E-01 6.88402E-39
4.26095E-01 6.78126E-39
4.30413E-01 6.60849E-39
4.34737E-01 6.35990E-39
4.39065E-01 6.06305E-39
4.43398E-01 5.72509E-39
4.47736E-01 5.36692E-39
4.52077E-01 4.99078E-39
4.56422E-01 4.59981E-39
4.60770E-01 4.21277E-39
4.65122E-01 3.82804E-39
4.69476E-01 3.45745E-39
4.73832E-01 3.09846E-39
4.78190E-01 2.76742E-39
4.82550E-01 2.45205E-39
4.86912E-01 2.15923E-39
4.91274E-01 1.88917E-39
4.95637E-01 1.64105E-39
5.00000E-01 1.42129E-39
5.04363E-01 1.21976E-39
5.08726E-01 1.04102E-39
5.13088E-01 8.79594E-40
5.17450E-01 7.38382E-40
5.21810E-01 6.12106E-40
5.26168E-01 5.04329E-40
5.30524E-01 4.08736E-40
5.34878E-01 3.26861E-40
5.39230E-01 2.60141E-40
5.43578E-01 2.02726E-40
5.47923E-01 1.56527E-40
5.52264E-01 1.17052E-40
5.56602E-01 8.67462E-41
5.60935E-01 1.00000E-45
5.65263E-01 1.00000E-45
5.69587E-01 1.00000E-45
5.73905E-01 1.00000E-45
5.78217E-01 1.00000E-45
5.82524E-01 1.00000E-45
5.86824E-01 1.00000E-45
5.91118E-01 1.00000E-45
5.95404E-01 1.00000E-45
5.99684E-01 1.00000E-45
6.03956E-01 1.00000E-45
6.08220E-01 1.00000E-45
6.12476E-01 1.00000E-45
6.16723E-01 1.00000E-45
6.20961E-01 1.00000E-45
6.25190E-01 1.00000E-45
6.29410E-01 1.00000E-45
6.33619E-01 1.00000E-45
6.37819E-01 1.00000E-45
6.42008E-01 1.00000E-45
6.46186E-01 1.00000E-45
6.50353E-01 1.00000E-45
6.54508E-01 1.00000E-45
6.58652E-01 1.00000E-45
6.62784E-01 1.00000E-45
6.66903E-01 1.00000E-45
6.71010E-01 1.00000E-45
6.75104E-01 1.00000E-45
6.79184E-01 1.00000E-45
6.83251E-01 1.00000E-45
6.87303E-01 1.00000E-45
6.91342E-01 1.00000E-45
6.95366E-01 1.00000E-45
6.99375E-01 1.00000E-45
7.03368E-01 1.00000E-45
7.07347E-01 1.00000E-45
7.11309E-01 1.00000E-45
7.15256E-01 1.00000E-45
7.19186E-01 1.00000E-45
7.23099E-01 1.00000E-45
7.26995E-01 1.00000E-45
7.30874E-01 1.00000E-45
7.34736E-01 1.00000E-45
7.38579E-01 1.00000E-45
7.42405E-01 1.00000E-45
7.46212E-01 1.00000E-45
7.50000E-01 1.00000E-45
7.53769E-01 1.00000E-45
7.57519E-01 1.00000E-45
7.61249E-01 1.00000E-45
7.64960E-01 1.00000E-45
7.68650E-01 1.00000E-45
7.72320E-01 1.00000E-45
7.75968E-01 1.00000E-45
7.79596E-01 1.00000E-45
7.83203E-01 1.00000E-45
7.86788E-01 1.00000E-45
7.90351E-01 1.00000E-45
7.93893E-01 1.00000E-45
7.97411E-01 1.00000E-45
8.00908E-01 1.00000E-45
8.04381E-01 1.00000E-45
8.07831E-01 1.00000E-45
8.11257E-01 1.00000E-45
8.14660E-01 1.00000E-45
8.18039E-01 1.00000E-45
8.21394E-01 1.00000E-45
8.24724E-01 1.00000E-45
8.28030E-01 1.00000E-45
8.31310E-01 1.00000E-45
8.34565E-01 1.00000E-45
8.37795E-01 1.00000E-45
8.40999E-01 1.00000E-45
8.44177E-01 1.00000E-45
8.47329E-01 1.00000E-45
8.50455E-01 1.00000E-45
8.53553E-01 1.00000E-45
8.56625E-01 1.00000E-45
8.59670E-01 1.00000E-45
8.62687E-01 1.00000E-45
8.65677E-01 1.00000E-45
8.68639E-01 1.00000E-45
8.71572E-01 1.00000E-45
8.74478E-01 1.00000E-45
8.77355E-01 1.00000E-45
8.80203E-01 1.00000E-45
8.83022E-01 1.00000E-45
8.85812E-01 1.00000E-45
8.88573E-01 1.00000E-45
8.91304E-01 1.00000E-45
8.94005E-01 1.00000E-45
8.96677E-01 1.00000E-45
8.99318E-01 1.00000E-45
9.01928E-01 1.00000E-45
9.04508E-01 1.00000E-45
9.07058E-01 1.00000E-45
9.09576E-01 1.00000E-45
9.12063E-01 1.00000E-45
9.14519E-01 1.00000E-45
9.16943E-01 1.00000E-45
9.19335E-01 1.00000E-45
9.21696E-01 1.00000E-45
9.24024E-01 1.00000E-45
9.26320E-01 1.00000E-45
9.28584E-01 1.00000E-45
9.30815E-01 1.00000E-45
9.33013E-01 1.00000E-45
9.35178E-01 1.00000E-45
9.37310E-01 1.00000E-45
9.39409E-01 1.00000E-45
9.41474E-01 1.00000E-45
9.43505E-01 1.00000E-45
9.45503E-01 1.00000E-45
9.47467E-01 1.00000E-45
9.49397E-01 1.00000E-45
9.51293E-01 1.00000E-45
9.53154E-01 1.00000E-45
9.54981E-01 1.00000E-45
9.56773E-01 1.00000E-45
9.58530E-01 1.00000E-45
9.60252E-01 1.00000E-45
9.61940E-01 1.00000E-45
9.63592E-01 1.00000E-45
9.65209E-01 1.00000E-45
9.66790E-01 1.00000E-45
9.68336E-01 1.00000E-45
9.69846E-01 1.00000E-45
9.71321E-01 1.00000E-45
9.72759E-01 1.00000E-45
9.74162E-01 1.00000E-45
9.75528E-01 1.00000E-45
9.76858E-01 1.00000E-45
9.78152E-01 1.00000E-45
9.79410E-01 1.00000E-45
9.80631E-01 1.00000E-45
9.81815E-01 1.00000E-45
9.82963E-01 1.00000E-45
9.84074E-01 1.00000E-45
9.85148E-01 1.00000E-45
9.86185E-01 1.00000E-45
9.87185E-01 1.00000E-45
9.88148E-01 1.00000E-45
9.89074E-01 1.00000E-45
9.89962E-01 1.00000E-45
9.90814E-01 1.00000E-45
9.91627E-01 1.00000E-45
9.92404E-01 1.00000E-45
9.93143E-01 1.00000E-45
9.93844E-01 1.00000E-45
9.94508E-01 1.00000E-45
9.95134E-01 1.00000E-45
9.95722E-01 1.00000E-45
9.96273E-01 1.00000E-45
9.96786E-01 1.00000E-45
9.97261E-01 1.00000E-45
9.97698E-01 1.00000E-45
9.98097E-01 1.00000E-45
9.98459E-01 1.00000E-45
9.98782E-01 1.00000E-45
9.99067E-01 1.00000E-45
9.99315E-01 1.00000E-45
9.99524E-01 1.00000E-45
9.99695E-01 1.00000E-45
9.99829E-01 1.00000E-45
9.99924E-01 1.00000E-45
9.99981E-01 1.00000E-45
1.00000E+00 1.00000E-45
