 #
 # Subroutine ELSEPA. Elastic scattering of electrons and positrons
 #                    by neutral atoms and positive ions
 #
 # Projectile: positron
 # Kinetic energy = 2.50000E+07 eV = 9.18733E+05 a.u.
 #
 # WARNING: High-energy factorization with free-atom DF screening.
 #          Absorption, polarization and exchange corrections are
 #          switched off.
 #          Phase shifts are calculated for the bare nucleus.
 #          Scattering amplitudes are not evaluated.
 #
 # Element:  C,  Z =   6,  atomic weight = 1.20107E+01 g/mol
 #
 # Nuclear model: Fermi distribution
 #                Average radius = 2.45042E-13 cm
 #                Skin thickness = 5.46000E-14 cm
 #
 # Number of electrons =  6
 #
 # Total elastic cross section = 2.41167E-19 cm**2 = 8.61222E-03 a0**2
 # 1st transport cross section = 1.09782E-25 cm**2 = 3.92040E-09 a0**2
 # 2nd transport cross section = 3.19501E-25 cm**2 = 1.14096E-08 a0**2
 #
 #
 # Differential cross section:                       MU=(1-COS(THETA))/2
 #
 #  THETA        MU          DCS          DCS        Sherman      error
 #  (deg)                 (cm**2/sr)   (a0**2/sr)    function
 #----------------------------------------------------------------------
0.00000E+00 1.52852E-12
7.61557E-13 1.52835E-12
1.18994E-12 1.52825E-12
1.71346E-12 1.52814E-12
2.33225E-12 1.52800E-12
3.04617E-12 1.52785E-12
3.85530E-12 1.52767E-12
4.75964E-12 1.52748E-12
5.75917E-12 1.52726E-12
6.85391E-12 1.52702E-12
8.04379E-12 1.52676E-12
9.32893E-12 1.52649E-12
1.07092E-11 1.52619E-12
1.21847E-11 1.52587E-12
1.37554E-11 1.52553E-12
1.54213E-11 1.52517E-12
1.71823E-11 1.52479E-12
1.90386E-11 1.52438E-12
2.09900E-11 1.52396E-12
2.30367E-11 1.52352E-12
2.51785E-11 1.52306E-12
2.74156E-11 1.52258E-12
2.97478E-11 1.52207E-12
3.21752E-11 1.52155E-12
3.46979E-11 1.52101E-12
3.73157E-11 1.52044E-12
4.00286E-11 1.51986E-12
4.28368E-11 1.51925E-12
4.57402E-11 1.51863E-12
4.87388E-11 1.51799E-12
5.18325E-11 1.51732E-12
5.50215E-11 1.51664E-12
5.83057E-11 1.51593E-12
6.16850E-11 1.51521E-12
6.51595E-11 1.51447E-12
6.87293E-11 1.51370E-12
7.23943E-11 1.51292E-12
7.61544E-11 1.51212E-12
1.18991E-10 1.50301E-12
1.71347E-10 1.49199E-12
2.33223E-10 1.47911E-12
3.04617E-10 1.46445E-12
3.85531E-10 1.44809E-12
4.75965E-10 1.43010E-12
5.75917E-10 1.41058E-12
6.85389E-10 1.38964E-12
8.04380E-10 1.36737E-12
9.32891E-10 1.34390E-12
1.07092E-09 1.31931E-12
1.21847E-09 1.29371E-12
1.37554E-09 1.26724E-12
1.54213E-09 1.24000E-12
1.71823E-09 1.21211E-12
1.90386E-09 1.18364E-12
2.09900E-09 1.15471E-12
2.30367E-09 1.12544E-12
2.51785E-09 1.09435E-12
2.74156E-09 1.06322E-12
2.97478E-09 1.03299E-12
3.21752E-09 1.00370E-12
3.46978E-09 9.75386E-13
3.73156E-09 9.47440E-13
4.00286E-09 9.16323E-13
4.28368E-09 8.86462E-13
4.57402E-09 8.57842E-13
4.87388E-09 8.30442E-13
5.18326E-09 8.04235E-13
5.50215E-09 7.76878E-13
5.83057E-09 7.48959E-13
6.16850E-09 7.22381E-13
6.51596E-09 6.97091E-13
6.87293E-09 6.73037E-13
7.23942E-09 6.50162E-13
7.61544E-09 6.25236E-13
1.18991E-08 4.25172E-13
1.71347E-08 2.84038E-13
2.33223E-08 1.90096E-13
3.04617E-08 1.28618E-13
3.85531E-08 8.84637E-14
4.75965E-08 6.20366E-14
5.75917E-08 4.44482E-14
6.85389E-08 3.25199E-14
8.04380E-08 2.42783E-14
9.32891E-08 1.84882E-14
1.07092E-07 1.43434E-14
1.21847E-07 1.13154E-14
1.37554E-07 9.05974E-15
1.54213E-07 7.35134E-15
1.71823E-07 6.03872E-15
1.90386E-07 5.01645E-15
2.09900E-07 4.20903E-15
2.30367E-07 3.56269E-15
2.51785E-07 3.03848E-15
2.74156E-07 2.61071E-15
2.97478E-07 2.25775E-15
3.21752E-07 1.96401E-15
3.46978E-07 1.71818E-15
3.73156E-07 1.50953E-15
4.00286E-07 1.33323E-15
4.28368E-07 1.18119E-15
4.57402E-07 1.05134E-15
4.87388E-07 9.38488E-16
5.18325E-07 8.40829E-16
5.50215E-07 7.55472E-16
5.83057E-07 6.80677E-16
6.16850E-07 6.15076E-16
6.51596E-07 5.56992E-16
6.87293E-07 5.05870E-16
7.23942E-07 4.60125E-16
7.61543E-07 4.19670E-16
1.18991E-06 1.83679E-16
1.71347E-06 9.19899E-17
2.33223E-06 5.07461E-17
3.04617E-06 3.01380E-17
3.85531E-06 1.89674E-17
4.75964E-06 1.25090E-17
5.75916E-06 8.57294E-18
6.85388E-06 6.06703E-18
8.04378E-06 4.41184E-18
9.32888E-06 3.28375E-18
1.07092E-05 2.49384E-18
1.21846E-05 1.92757E-18
1.37553E-05 1.51316E-18
1.54212E-05 1.20429E-18
1.71822E-05 9.70321E-19
1.90385E-05 7.89742E-19
2.09899E-05 6.49903E-19
2.30365E-05 5.39829E-19
2.51783E-05 4.52138E-19
2.74153E-05 3.81515E-19
2.97475E-05 3.24091E-19
3.21749E-05 2.77013E-19
3.46974E-05 2.38137E-19
3.73152E-05 2.05838E-19
4.00281E-05 1.78845E-19
4.28362E-05 1.56156E-19
4.57395E-05 1.36971E-19
4.87380E-05 1.20655E-19
5.18317E-05 1.06699E-19
5.50205E-05 9.46982E-20
5.83045E-05 8.43303E-20
6.16838E-05 7.53363E-20
6.51582E-05 6.75062E-20
6.87277E-05 6.06672E-20
7.23925E-05 5.46751E-20
7.61524E-05 4.94076E-20
9.21439E-05 3.37524E-20
1.09658E-04 2.38242E-20
1.28695E-04 1.72967E-20
1.49255E-04 1.28580E-20
1.71338E-04 9.75538E-21
1.94942E-04 7.53560E-21
2.20070E-04 5.91168E-21
2.46720E-04 4.70319E-21
2.74892E-04 3.78792E-21
3.04586E-04 3.08490E-21
3.35803E-04 2.53771E-21
3.68542E-04 2.10647E-21
4.02802E-04 1.76318E-21
4.38585E-04 1.48695E-21
4.75889E-04 1.26279E-21
5.14715E-04 1.07930E-21
5.55063E-04 9.27936E-22
5.96931E-04 8.02221E-22
6.40321E-04 6.97055E-22
6.85233E-04 6.08590E-22
7.31665E-04 5.33706E-22
7.79618E-04 4.69992E-22
8.29092E-04 4.15509E-22
8.80086E-04 3.68686E-22
9.32601E-04 3.28283E-22
9.86636E-04 2.93256E-22
1.04219E-03 2.62781E-22
1.09927E-03 2.36160E-22
1.15786E-03 2.12824E-22
1.21797E-03 1.92302E-22
1.27961E-03 1.74190E-22
1.34276E-03 1.58163E-22
1.40743E-03 1.43935E-22
1.47362E-03 1.31271E-22
1.54133E-03 1.19969E-22
1.61056E-03 1.09856E-22
1.68131E-03 1.00788E-22
1.75357E-03 9.26338E-23
1.82735E-03 8.52883E-23
1.90265E-03 7.86560E-23
1.97947E-03 7.26553E-23
2.05780E-03 6.72163E-23
2.13765E-03 6.22758E-23
2.21902E-03 5.77812E-23
2.30190E-03 5.36842E-23
2.38630E-03 4.99438E-23
2.47222E-03 4.65234E-23
2.55965E-03 4.33904E-23
2.64859E-03 4.05168E-23
2.73905E-03 3.78767E-23
2.83103E-03 3.54482E-23
2.92452E-03 3.32110E-23
3.01952E-03 3.11473E-23
3.11604E-03 2.92414E-23
3.21407E-03 2.74788E-23
3.31362E-03 2.58470E-23
3.41468E-03 2.43344E-23
3.51725E-03 2.29307E-23
3.62133E-03 2.16267E-23
3.72692E-03 2.04140E-23
3.83403E-03 1.92850E-23
3.94265E-03 1.82329E-23
4.05278E-03 1.72515E-23
4.16442E-03 1.63352E-23
4.27757E-03 1.54788E-23
4.39223E-03 1.46778E-23
4.50840E-03 1.39278E-23
4.62608E-03 1.32251E-23
4.74527E-03 1.25661E-23
4.86597E-03 1.19475E-23
4.98817E-03 1.13665E-23
5.11188E-03 1.08204E-23
5.23711E-03 1.03066E-23
5.36383E-03 9.82293E-24
5.49207E-03 9.36725E-24
5.62181E-03 8.93765E-24
5.75306E-03 8.53235E-24
5.88581E-03 8.14975E-24
6.02007E-03 7.78831E-24
6.15583E-03 7.44666E-24
6.29310E-03 7.12351E-24
6.43187E-03 6.81767E-24
6.57214E-03 6.52805E-24
6.71392E-03 6.25360E-24
6.85720E-03 5.99342E-24
7.00198E-03 5.74660E-24
7.14827E-03 5.51233E-24
7.29605E-03 5.28986E-24
7.44534E-03 5.07848E-24
7.59612E-03 4.87754E-24
7.97965E-03 4.41691E-24
8.37255E-03 4.00930E-24
8.77480E-03 3.64755E-24
9.18641E-03 3.32563E-24
9.60736E-03 3.03837E-24
1.00376E-02 2.78141E-24
1.04773E-02 2.55099E-24
1.09262E-02 2.34389E-24
1.13844E-02 2.15734E-24
1.18520E-02 1.98894E-24
1.23288E-02 1.83662E-24
1.28150E-02 1.69856E-24
1.33104E-02 1.57321E-24
1.38150E-02 1.45917E-24
1.43290E-02 1.35526E-24
1.48521E-02 1.26041E-24
1.53845E-02 1.17368E-24
1.59262E-02 1.09427E-24
1.64770E-02 1.02144E-24
1.70371E-02 9.54550E-25
1.76063E-02 8.93029E-25
1.81848E-02 8.36368E-25
1.87724E-02 7.84116E-25
1.93692E-02 7.35866E-25
1.99751E-02 6.91257E-25
2.05901E-02 6.49965E-25
2.12143E-02 6.11699E-25
2.18476E-02 5.76197E-25
2.24900E-02 5.43223E-25
2.31415E-02 5.12564E-25
2.38021E-02 4.84029E-25
2.44717E-02 4.57444E-25
2.51504E-02 4.32651E-25
2.58382E-02 4.09507E-25
2.65349E-02 3.87883E-25
2.72407E-02 3.67661E-25
2.79555E-02 3.48733E-25
2.86793E-02 3.31002E-25
2.94120E-02 3.14377E-25
3.01537E-02 2.98778E-25
3.09043E-02 2.84129E-25
3.16639E-02 2.70362E-25
3.24324E-02 2.57415E-25
3.32098E-02 2.45228E-25
3.39961E-02 2.33750E-25
3.47912E-02 2.22932E-25
3.55952E-02 2.12729E-25
3.64081E-02 2.03099E-25
3.72297E-02 1.94005E-25
3.80602E-02 1.85410E-25
3.88995E-02 1.77284E-25
3.97476E-02 1.69594E-25
4.06044E-02 1.62314E-25
4.14700E-02 1.55418E-25
4.23443E-02 1.48882E-25
4.32273E-02 1.42683E-25
4.41190E-02 1.36801E-25
4.50194E-02 1.31217E-25
4.59284E-02 1.25912E-25
4.68461E-02 1.20871E-25
4.87074E-02 1.11518E-25
5.06030E-02 1.03045E-25
5.25328E-02 9.53551E-26
5.44967E-02 8.83635E-26
5.64946E-02 8.19955E-26
5.85262E-02 7.61858E-26
6.05914E-02 7.08769E-26
6.26901E-02 6.60181E-26
6.48222E-02 6.15644E-26
6.69873E-02 5.74762E-26
6.91854E-02 5.37183E-26
7.14163E-02 5.02591E-26
7.36799E-02 4.70708E-26
7.59760E-02 4.41285E-26
7.83043E-02 4.14098E-26
8.06647E-02 3.88946E-26
8.30571E-02 3.65652E-26
8.54812E-02 3.44053E-26
8.79369E-02 3.24004E-26
9.04240E-02 3.05374E-26
9.29422E-02 2.88045E-26
9.54915E-02 2.71911E-26
9.80716E-02 2.56873E-26
1.00682E-01 2.42845E-26
1.03323E-01 2.29746E-26
1.05995E-01 2.17504E-26
1.08696E-01 2.06054E-26
1.11427E-01 1.95334E-26
1.14188E-01 1.85290E-26
1.16978E-01 1.75872E-26
1.19797E-01 1.67034E-26
1.22645E-01 1.58733E-26
1.25522E-01 1.50932E-26
1.28428E-01 1.43595E-26
1.31361E-01 1.36689E-26
1.34323E-01 1.30185E-26
1.37313E-01 1.24055E-26
1.40330E-01 1.18274E-26
1.43375E-01 1.12818E-26
1.46447E-01 1.07665E-26
1.49545E-01 1.02797E-26
1.52671E-01 9.81946E-27
1.55823E-01 9.38404E-27
1.59001E-01 8.97189E-27
1.62205E-01 8.58154E-27
1.65435E-01 8.21164E-27
1.68690E-01 7.86093E-27
1.71970E-01 7.52824E-27
1.75276E-01 7.21247E-27
1.78606E-01 6.91262E-27
1.81961E-01 6.62774E-27
1.85340E-01 6.35695E-27
1.88743E-01 6.09944E-27
1.92169E-01 5.85443E-27
1.95619E-01 5.62122E-27
1.99092E-01 5.39913E-27
2.02589E-01 5.18755E-27
2.06107E-01 4.98589E-27
2.09649E-01 4.79359E-27
2.13212E-01 4.61016E-27
2.16797E-01 4.43511E-27
2.20404E-01 4.26799E-27
2.24032E-01 4.10839E-27
2.27680E-01 3.95589E-27
2.31350E-01 3.81013E-27
2.35040E-01 3.67077E-27
2.38751E-01 3.53747E-27
2.42481E-01 3.40992E-27
2.46231E-01 3.28783E-27
2.50000E-01 3.17093E-27
2.53788E-01 3.05896E-27
2.57595E-01 2.95168E-27
2.61421E-01 2.84885E-27
2.65264E-01 2.75025E-27
2.69126E-01 2.65569E-27
2.73005E-01 2.56498E-27
2.76901E-01 2.47791E-27
2.80814E-01 2.39434E-27
2.84744E-01 2.31408E-27
2.88691E-01 2.23700E-27
2.92653E-01 2.16293E-27
2.96632E-01 2.09174E-27
3.00625E-01 2.02331E-27
3.04634E-01 1.95750E-27
3.08658E-01 1.89420E-27
3.12697E-01 1.83330E-27
3.16749E-01 1.77469E-27
3.20816E-01 1.71826E-27
3.24896E-01 1.66394E-27
3.28990E-01 1.61161E-27
3.33097E-01 1.56121E-27
3.37216E-01 1.51263E-27
3.41348E-01 1.46582E-27
3.45492E-01 1.42069E-27
3.49647E-01 1.37717E-27
3.53814E-01 1.33519E-27
3.57992E-01 1.29470E-27
3.62181E-01 1.25563E-27
3.66381E-01 1.21792E-27
3.70590E-01 1.18152E-27
3.74810E-01 1.14637E-27
3.79039E-01 1.11242E-27
3.83277E-01 1.07963E-27
3.87524E-01 1.04795E-27
3.91780E-01 1.01734E-27
3.96044E-01 9.87749E-28
4.00316E-01 9.59144E-28
4.04596E-01 9.31486E-28
4.08882E-01 9.04738E-28
4.13176E-01 8.78866E-28
4.17476E-01 8.53835E-28
4.21783E-01 8.29615E-28
4.26095E-01 8.06175E-28
4.30413E-01 7.83485E-28
4.34737E-01 7.61518E-28
4.39065E-01 7.40247E-28
4.43398E-01 7.19647E-28
4.47736E-01 6.99692E-28
4.52077E-01 6.80360E-28
4.56422E-01 6.61628E-28
4.60770E-01 6.43475E-28
4.65122E-01 6.25879E-28
4.69476E-01 6.08822E-28
4.73832E-01 5.92283E-28
4.78190E-01 5.76245E-28
4.82550E-01 5.60690E-28
4.86912E-01 5.45602E-28
4.91274E-01 5.30964E-28
4.95637E-01 5.16761E-28
5.00000E-01 5.02977E-28
5.04363E-01 4.89599E-28
5.08726E-01 4.76613E-28
5.13088E-01 4.64005E-28
5.17450E-01 4.51763E-28
5.21810E-01 4.39875E-28
5.26168E-01 4.28328E-28
5.30524E-01 4.17112E-28
5.34878E-01 4.06216E-28
5.39230E-01 3.95629E-28
5.43578E-01 3.85341E-28
5.47923E-01 3.75343E-28
5.52264E-01 3.65625E-28
5.56602E-01 3.56177E-28
5.60935E-01 3.46993E-28
5.65263E-01 3.38062E-28
5.69587E-01 3.29377E-28
5.73905E-01 3.20931E-28
5.78217E-01 3.12715E-28
5.82524E-01 3.04723E-28
5.86824E-01 2.96948E-28
5.91118E-01 2.89382E-28
5.95404E-01 2.82020E-28
5.99684E-01 2.74855E-28
6.03956E-01 2.67882E-28
6.08220E-01 2.61093E-28
6.12476E-01 2.54485E-28
6.16723E-01 2.48051E-28
6.20961E-01 2.41786E-28
6.25190E-01 2.35685E-28
6.29410E-01 2.29743E-28
6.33619E-01 2.23956E-28
6.37819E-01 2.18319E-28
6.42008E-01 2.12827E-28
6.46186E-01 2.07476E-28
6.50353E-01 2.02263E-28
6.54508E-01 1.97183E-28
6.58652E-01 1.92232E-28
6.62784E-01 1.87407E-28
6.66903E-01 1.82704E-28
6.71010E-01 1.78120E-28
6.75104E-01 1.73651E-28
6.79184E-01 1.69293E-28
6.83251E-01 1.65045E-28
6.87303E-01 1.60902E-28
6.91342E-01 1.56862E-28
6.95366E-01 1.52922E-28
6.99375E-01 1.49080E-28
7.03368E-01 1.45331E-28
7.07347E-01 1.41675E-28
7.11309E-01 1.38108E-28
7.15256E-01 1.34628E-28
7.19186E-01 1.31233E-28
7.23099E-01 1.27920E-28
7.26995E-01 1.24687E-28
7.30874E-01 1.21532E-28
7.34736E-01 1.18453E-28
7.38579E-01 1.15448E-28
7.42405E-01 1.12515E-28
7.46212E-01 1.09652E-28
7.50000E-01 1.06857E-28
7.53769E-01 1.04128E-28
7.57519E-01 1.01464E-28
7.61249E-01 9.88636E-29
7.64960E-01 9.63242E-29
7.68650E-01 9.38446E-29
7.72320E-01 9.14233E-29
7.75968E-01 8.90587E-29
7.79596E-01 8.67495E-29
7.83203E-01 8.44943E-29
7.86788E-01 8.22916E-29
7.90351E-01 8.01403E-29
7.93893E-01 7.80389E-29
7.97411E-01 7.59863E-29
8.00908E-01 7.39812E-29
8.04381E-01 7.20225E-29
8.07831E-01 7.01090E-29
8.11257E-01 6.82397E-29
8.14660E-01 6.64134E-29
8.18039E-01 6.46291E-29
8.21394E-01 6.28859E-29
8.24724E-01 6.11826E-29
8.28030E-01 5.95184E-29
8.31310E-01 5.78923E-29
8.34565E-01 5.63035E-29
8.37795E-01 5.47510E-29
8.40999E-01 5.32339E-29
8.44177E-01 5.17516E-29
8.47329E-01 5.03031E-29
8.50455E-01 4.88877E-29
8.53553E-01 4.75046E-29
8.56625E-01 4.61530E-29
8.59670E-01 4.48323E-29
8.62687E-01 4.35418E-29
8.65677E-01 4.22807E-29
8.68639E-01 4.10485E-29
8.71572E-01 3.98444E-29
8.74478E-01 3.86678E-29
8.77355E-01 3.75182E-29
8.80203E-01 3.63949E-29
8.83022E-01 3.52974E-29
8.85812E-01 3.42251E-29
8.88573E-01 3.31774E-29
8.91304E-01 3.21538E-29
8.94005E-01 3.11539E-29
8.96677E-01 3.01771E-29
8.99318E-01 2.92229E-29
9.01928E-01 2.82908E-29
9.04508E-01 2.73804E-29
9.07058E-01 2.64913E-29
9.09576E-01 2.56230E-29
9.12063E-01 2.47750E-29
9.14519E-01 2.39471E-29
9.16943E-01 2.31386E-29
9.19335E-01 2.23494E-29
9.21696E-01 2.15790E-29
9.24024E-01 2.08269E-29
9.26320E-01 2.00930E-29
9.28584E-01 1.93768E-29
9.30815E-01 1.86779E-29
9.33013E-01 1.79961E-29
9.35178E-01 1.73310E-29
9.37310E-01 1.66824E-29
9.39409E-01 1.60498E-29
9.41474E-01 1.54331E-29
9.43505E-01 1.48319E-29
9.45503E-01 1.42460E-29
9.47467E-01 1.36751E-29
9.49397E-01 1.31188E-29
9.51293E-01 1.25771E-29
9.53154E-01 1.20496E-29
9.54981E-01 1.15360E-29
9.56773E-01 1.10363E-29
9.58530E-01 1.05500E-29
9.60252E-01 1.00770E-29
9.61940E-01 9.61717E-30
9.63592E-01 9.17020E-30
9.65209E-01 8.73592E-30
9.66790E-01 8.31412E-30
9.68336E-01 7.90463E-30
9.69846E-01 7.50726E-30
9.71321E-01 7.12184E-30
9.72759E-01 6.74821E-30
9.74162E-01 6.38618E-30
9.75528E-01 6.03562E-30
9.76858E-01 5.69635E-30
9.78152E-01 5.36823E-30
9.79410E-01 5.05113E-30
9.80631E-01 4.74490E-30
9.81815E-01 4.44940E-30
9.82963E-01 4.16452E-30
9.84074E-01 3.89013E-30
9.85148E-01 3.62609E-30
9.86185E-01 3.37232E-30
9.87185E-01 3.12869E-30
9.88148E-01 2.89511E-30
9.89074E-01 2.67146E-30
9.89962E-01 2.45766E-30
9.90814E-01 2.25361E-30
9.91627E-01 2.05924E-30
9.92404E-01 1.87444E-30
9.93143E-01 1.69915E-30
9.93844E-01 1.53328E-30
9.94508E-01 1.37679E-30
9.95134E-01 1.22957E-30
9.95722E-01 1.09160E-30
9.96273E-01 9.62789E-31
9.96786E-01 8.43096E-31
9.97261E-01 7.32478E-31
9.97698E-01 6.30877E-31
9.98097E-01 5.38254E-31
9.98459E-01 4.54571E-31
9.98782E-01 3.79785E-31
9.99067E-01 3.13878E-31
9.99315E-01 2.56813E-31
9.99524E-01 2.08566E-31
9.99695E-01 1.69118E-31
9.99829E-01 1.38456E-31
9.99924E-01 1.16561E-31
9.99981E-01 1.03431E-31
1.00000E+00 9.90433E-32
