 #
 # Subroutine ELSEPA. Elastic scattering of electrons and positrons
 #                    by neutral atoms and positive ions
 #
 # Projectile: positron
 # Kinetic energy = 4.50000E+07 eV = 1.65372E+06 a.u.
 #
 # WARNING: High-energy factorization with free-atom DF screening.
 #          Absorption, polarization and exchange corrections are
 #          switched off.
 #          Phase shifts are calculated for the bare nucleus.
 #          Scattering amplitudes are not evaluated.
 #
 # Element:  C,  Z =   6,  atomic weight = 1.20107E+01 g/mol
 #
 # Nuclear model: Fermi distribution
 #                Average radius = 2.45042E-13 cm
 #                Skin thickness = 5.46000E-14 cm
 #
 # Number of electrons =  6
 #
 # Total elastic cross section = 2.41357E-19 cm**2 = 8.61901E-03 a0**2
 # 1st transport cross section = 3.67629E-26 cm**2 = 1.31283E-09 a0**2
 # 2nd transport cross section = 1.07515E-25 cm**2 = 3.83943E-09 a0**2
 #
 #
 # Differential cross section:                       MU=(1-COS(THETA))/2
 #
 #  THETA        MU          DCS          DCS        Sherman      error
 #  (deg)                 (cm**2/sr)   (a0**2/sr)    function
 #----------------------------------------------------------------------
0.00000E+00 4.86461E-12
7.61557E-13 4.86292E-12
1.18994E-12 4.86197E-12
1.71346E-12 4.86082E-12
2.33225E-12 4.85946E-12
3.04617E-12 4.85789E-12
3.85530E-12 4.85612E-12
4.75964E-12 4.85413E-12
5.75917E-12 4.85195E-12
6.85391E-12 4.84955E-12
8.04379E-12 4.84694E-12
9.32893E-12 4.84413E-12
1.07092E-11 4.84112E-12
1.21847E-11 4.83790E-12
1.37554E-11 4.83448E-12
1.54213E-11 4.83086E-12
1.71823E-11 4.82703E-12
1.90386E-11 4.82300E-12
2.09900E-11 4.81876E-12
2.30367E-11 4.81434E-12
2.51785E-11 4.80970E-12
2.74156E-11 4.80487E-12
2.97478E-11 4.79985E-12
3.21752E-11 4.79461E-12
3.46979E-11 4.78919E-12
3.73157E-11 4.78358E-12
4.00286E-11 4.77776E-12
4.28368E-11 4.77175E-12
4.57402E-11 4.76557E-12
4.87388E-11 4.75917E-12
5.18325E-11 4.75259E-12
5.50215E-11 4.74583E-12
5.83057E-11 4.73887E-12
6.16850E-11 4.73172E-12
6.51595E-11 4.72441E-12
6.87293E-11 4.71690E-12
7.23943E-11 4.70919E-12
7.61544E-11 4.70133E-12
1.18991E-10 4.61296E-12
1.71347E-10 4.50807E-12
2.33223E-10 4.38844E-12
3.04617E-10 4.25594E-12
3.85531E-10 4.11255E-12
4.75965E-10 3.96030E-12
5.75917E-10 3.80102E-12
6.85389E-10 3.63680E-12
8.04380E-10 3.46334E-12
9.32891E-10 3.28957E-12
1.07092E-09 3.12529E-12
1.21847E-09 2.96058E-12
1.37554E-09 2.79058E-12
1.54213E-09 2.63308E-12
1.71823E-09 2.48159E-12
1.90386E-09 2.32528E-12
2.09900E-09 2.18220E-12
2.30367E-09 2.04894E-12
2.51785E-09 1.91167E-12
2.74156E-09 1.78684E-12
2.97478E-09 1.67329E-12
3.21752E-09 1.55675E-12
3.46978E-09 1.45111E-12
3.73156E-09 1.35529E-12
4.00286E-09 1.25999E-12
4.28368E-09 1.17257E-12
4.57402E-09 1.09331E-12
4.87388E-09 1.01646E-12
5.18326E-09 9.45276E-13
5.50215E-09 8.80678E-13
5.83057E-09 8.19239E-13
6.16850E-09 7.61909E-13
6.51596E-09 7.09796E-13
6.87293E-09 6.60915E-13
7.23942E-09 6.15071E-13
7.61544E-09 5.73306E-13
1.18991E-08 2.89873E-13
1.71347E-08 1.55683E-13
2.33223E-08 8.94748E-14
3.04617E-08 5.47945E-14
3.85531E-08 3.55375E-14
4.75965E-08 2.41602E-14
5.75917E-08 1.70899E-14
6.85389E-08 1.24969E-14
8.04380E-08 9.38325E-15
9.32891E-08 7.20712E-15
1.07092E-07 5.64317E-15
1.21847E-07 4.48573E-15
1.37554E-07 3.61509E-15
1.54213E-07 2.94850E-15
1.71823E-07 2.43007E-15
1.90386E-07 2.02120E-15
2.09900E-07 1.69403E-15
2.30367E-07 1.43040E-15
2.51785E-07 1.21604E-15
2.74156E-07 1.04024E-15
2.97478E-07 8.94897E-16
3.21752E-07 7.73563E-16
3.46978E-07 6.72003E-16
3.73156E-07 5.86448E-16
4.00286E-07 5.13966E-16
4.28368E-07 4.52257E-16
4.57402E-07 3.99346E-16
4.87388E-07 3.53891E-16
5.18325E-07 3.14672E-16
5.50215E-07 2.80691E-16
5.83057E-07 2.51131E-16
6.16850E-07 2.25303E-16
6.51596E-07 2.02683E-16
6.87293E-07 1.82810E-16
7.23942E-07 1.65297E-16
7.61543E-07 1.49815E-16
1.18991E-06 6.25050E-17
1.71347E-06 3.03925E-17
2.33223E-06 1.64715E-17
3.04617E-06 9.67591E-18
3.85531E-06 6.04791E-18
4.75964E-06 3.97086E-18
5.75916E-06 2.71334E-18
6.85388E-06 1.91633E-18
8.04378E-06 1.39155E-18
9.32888E-06 1.03469E-18
1.07092E-05 7.85201E-19
1.21846E-05 6.06555E-19
1.37553E-05 4.75944E-19
1.54212E-05 3.78669E-19
1.71822E-05 3.05023E-19
1.90385E-05 2.48207E-19
2.09899E-05 2.04226E-19
2.30365E-05 1.69616E-19
2.51783E-05 1.42050E-19
2.74153E-05 1.19853E-19
2.97475E-05 1.01807E-19
3.21749E-05 8.70133E-20
3.46974E-05 7.48003E-20
3.73152E-05 6.46538E-20
4.00281E-05 5.61745E-20
4.28362E-05 4.90471E-20
4.57395E-05 4.30210E-20
4.87380E-05 3.78959E-20
5.18317E-05 3.35123E-20
5.50205E-05 2.97429E-20
5.83045E-05 2.64864E-20
6.16838E-05 2.36614E-20
6.51582E-05 2.12019E-20
6.87277E-05 1.90539E-20
7.23925E-05 1.71718E-20
7.61524E-05 1.55170E-20
9.21439E-05 1.06001E-20
1.09658E-04 7.48196E-21
1.28695E-04 5.43191E-21
1.49255E-04 4.03793E-21
1.71338E-04 3.06352E-21
1.94942E-04 2.36641E-21
2.20070E-04 1.85642E-21
2.46720E-04 1.47691E-21
2.74892E-04 1.18948E-21
3.04586E-04 9.68705E-22
3.35803E-04 7.96868E-22
3.68542E-04 6.61447E-22
4.02802E-04 5.53645E-22
4.38585E-04 4.66899E-22
4.75889E-04 3.96509E-22
5.14715E-04 3.38890E-22
5.55063E-04 2.91358E-22
5.96931E-04 2.51882E-22
6.40321E-04 2.18859E-22
6.85233E-04 1.91080E-22
7.31665E-04 1.67565E-22
7.79618E-04 1.47559E-22
8.29092E-04 1.30451E-22
8.80086E-04 1.15749E-22
9.32601E-04 1.03062E-22
9.86636E-04 9.20643E-23
1.04219E-03 8.24954E-23
1.09927E-03 7.41370E-23
1.15786E-03 6.68098E-23
1.21797E-03 6.03662E-23
1.27961E-03 5.46796E-23
1.34276E-03 4.96475E-23
1.40743E-03 4.51803E-23
1.47362E-03 4.12042E-23
1.54133E-03 3.76559E-23
1.61056E-03 3.44808E-23
1.68131E-03 3.16336E-23
1.75357E-03 2.90737E-23
1.82735E-03 2.67676E-23
1.90265E-03 2.46855E-23
1.97947E-03 2.28016E-23
2.05780E-03 2.10941E-23
2.13765E-03 1.95431E-23
2.21902E-03 1.81322E-23
2.30190E-03 1.68460E-23
2.38630E-03 1.56718E-23
2.47222E-03 1.45981E-23
2.55965E-03 1.36146E-23
2.64859E-03 1.27126E-23
2.73905E-03 1.18839E-23
2.83103E-03 1.11216E-23
2.92452E-03 1.04194E-23
3.01952E-03 9.77159E-24
3.11604E-03 9.17338E-24
3.21407E-03 8.62014E-24
3.31362E-03 8.10798E-24
3.41468E-03 7.63322E-24
3.51725E-03 7.19266E-24
3.62133E-03 6.78340E-24
3.72692E-03 6.40278E-24
3.83403E-03 6.04847E-24
3.94265E-03 5.71827E-24
4.05278E-03 5.41028E-24
4.16442E-03 5.12271E-24
4.27757E-03 4.85396E-24
4.39223E-03 4.60259E-24
4.50840E-03 4.36725E-24
4.62608E-03 4.14674E-24
4.74527E-03 3.93994E-24
4.86597E-03 3.74586E-24
4.98817E-03 3.56356E-24
5.11188E-03 3.39219E-24
5.23711E-03 3.23099E-24
5.36383E-03 3.07922E-24
5.49207E-03 2.93625E-24
5.62181E-03 2.80146E-24
5.75306E-03 2.67431E-24
5.88581E-03 2.55427E-24
6.02007E-03 2.44088E-24
6.15583E-03 2.33370E-24
6.29310E-03 2.23232E-24
6.43187E-03 2.13638E-24
6.57214E-03 2.04552E-24
6.71392E-03 1.95943E-24
6.85720E-03 1.87782E-24
7.00198E-03 1.80040E-24
7.14827E-03 1.72692E-24
7.29605E-03 1.65714E-24
7.44534E-03 1.59084E-24
7.59612E-03 1.52781E-24
7.97965E-03 1.38335E-24
8.37255E-03 1.25552E-24
8.77480E-03 1.14208E-24
9.18641E-03 1.04114E-24
9.60736E-03 9.51071E-25
1.00376E-02 8.70509E-25
1.04773E-02 7.98273E-25
1.09262E-02 7.33354E-25
1.13844E-02 6.74881E-25
1.18520E-02 6.22101E-25
1.23288E-02 5.74363E-25
1.28150E-02 5.31102E-25
1.33104E-02 4.91822E-25
1.38150E-02 4.56094E-25
1.43290E-02 4.23539E-25
1.48521E-02 3.93825E-25
1.53845E-02 3.66661E-25
1.59262E-02 3.41788E-25
1.64770E-02 3.18980E-25
1.70371E-02 2.98034E-25
1.76063E-02 2.78771E-25
1.81848E-02 2.61032E-25
1.87724E-02 2.44675E-25
1.93692E-02 2.29572E-25
1.99751E-02 2.15610E-25
2.05901E-02 2.02688E-25
2.12143E-02 1.90714E-25
2.18476E-02 1.79606E-25
2.24900E-02 1.69291E-25
2.31415E-02 1.59700E-25
2.38021E-02 1.50775E-25
2.44717E-02 1.42461E-25
2.51504E-02 1.34708E-25
2.58382E-02 1.27472E-25
2.65349E-02 1.20712E-25
2.72407E-02 1.14391E-25
2.79555E-02 1.08476E-25
2.86793E-02 1.02934E-25
2.94120E-02 9.77399E-26
3.01537E-02 9.28664E-26
3.09043E-02 8.82904E-26
3.16639E-02 8.39905E-26
3.24324E-02 7.99470E-26
3.32098E-02 7.61419E-26
3.39961E-02 7.25584E-26
3.47912E-02 6.91814E-26
3.55952E-02 6.59968E-26
3.64081E-02 6.29916E-26
3.72297E-02 6.01539E-26
3.80602E-02 5.74726E-26
3.88995E-02 5.49376E-26
3.97476E-02 5.25394E-26
4.06044E-02 5.02693E-26
4.14700E-02 4.81191E-26
4.23443E-02 4.60815E-26
4.32273E-02 4.41494E-26
4.41190E-02 4.23163E-26
4.50194E-02 4.05764E-26
4.59284E-02 3.89239E-26
4.68461E-02 3.73536E-26
4.87074E-02 3.44410E-26
5.06030E-02 3.18034E-26
5.25328E-02 2.94104E-26
5.44967E-02 2.72355E-26
5.64946E-02 2.52553E-26
5.85262E-02 2.34494E-26
6.05914E-02 2.17998E-26
6.26901E-02 2.02906E-26
6.48222E-02 1.89078E-26
6.69873E-02 1.76390E-26
6.91854E-02 1.64732E-26
7.14163E-02 1.54005E-26
7.36799E-02 1.44122E-26
7.59760E-02 1.35006E-26
7.83043E-02 1.26586E-26
8.06647E-02 1.18800E-26
8.30571E-02 1.11593E-26
8.54812E-02 1.04913E-26
8.79369E-02 9.87152E-27
9.04240E-02 9.29590E-27
9.29422E-02 8.76074E-27
9.54915E-02 8.26270E-27
9.80716E-02 7.79876E-27
1.00682E-01 7.36618E-27
1.03323E-01 6.96247E-27
1.05995E-01 6.58538E-27
1.08696E-01 6.23284E-27
1.11427E-01 5.90298E-27
1.14188E-01 5.59410E-27
1.16978E-01 5.30461E-27
1.19797E-01 5.03310E-27
1.22645E-01 4.77826E-27
1.25522E-01 4.53889E-27
1.28428E-01 4.31388E-27
1.31361E-01 4.10224E-27
1.34323E-01 3.90302E-27
1.37313E-01 3.71537E-27
1.40330E-01 3.53851E-27
1.43375E-01 3.37170E-27
1.46447E-01 3.21429E-27
1.49545E-01 3.06565E-27
1.52671E-01 2.92520E-27
1.55823E-01 2.79243E-27
1.59001E-01 2.66683E-27
1.62205E-01 2.54797E-27
1.65435E-01 2.43540E-27
1.68690E-01 2.32875E-27
1.71970E-01 2.22764E-27
1.75276E-01 2.13175E-27
1.78606E-01 2.04076E-27
1.81961E-01 1.95437E-27
1.85340E-01 1.87232E-27
1.88743E-01 1.79435E-27
1.92169E-01 1.72022E-27
1.95619E-01 1.64971E-27
1.99092E-01 1.58262E-27
2.02589E-01 1.51875E-27
2.06107E-01 1.45792E-27
2.09649E-01 1.39996E-27
2.13212E-01 1.34472E-27
2.16797E-01 1.29205E-27
2.20404E-01 1.24180E-27
2.24032E-01 1.19385E-27
2.27680E-01 1.14808E-27
2.31350E-01 1.10436E-27
2.35040E-01 1.06260E-27
2.38751E-01 1.02269E-27
2.42481E-01 9.84534E-28
2.46231E-01 9.48045E-28
2.50000E-01 9.13136E-28
2.53788E-01 8.79729E-28
2.57595E-01 8.47749E-28
2.61421E-01 8.17124E-28
2.65264E-01 7.87789E-28
2.69126E-01 7.59680E-28
2.73005E-01 7.32737E-28
2.76901E-01 7.06906E-28
2.80814E-01 6.82131E-28
2.84744E-01 6.58364E-28
2.88691E-01 6.35557E-28
2.92653E-01 6.13665E-28
2.96632E-01 5.92645E-28
3.00625E-01 5.72458E-28
3.04634E-01 5.53065E-28
3.08658E-01 5.34430E-28
3.12697E-01 5.16519E-28
3.16749E-01 4.99299E-28
3.20816E-01 4.82739E-28
3.24896E-01 4.66811E-28
3.28990E-01 4.51486E-28
3.33097E-01 4.36739E-28
3.37216E-01 4.22543E-28
3.41348E-01 4.08876E-28
3.45492E-01 3.95714E-28
3.49647E-01 3.83037E-28
3.53814E-01 3.70823E-28
3.57992E-01 3.59053E-28
3.62181E-01 3.47708E-28
3.66381E-01 3.36772E-28
3.70590E-01 3.26226E-28
3.74810E-01 3.16055E-28
3.79039E-01 3.06244E-28
3.83277E-01 2.96777E-28
3.87524E-01 2.87642E-28
3.91780E-01 2.78825E-28
3.96044E-01 2.70312E-28
4.00316E-01 2.62093E-28
4.04596E-01 2.54155E-28
4.08882E-01 2.46488E-28
4.13176E-01 2.39081E-28
4.17476E-01 2.31923E-28
4.21783E-01 2.25005E-28
4.26095E-01 2.18319E-28
4.30413E-01 2.11855E-28
4.34737E-01 2.05604E-28
4.39065E-01 1.99559E-28
4.43398E-01 1.93712E-28
4.47736E-01 1.88056E-28
4.52077E-01 1.82583E-28
4.56422E-01 1.77287E-28
4.60770E-01 1.72161E-28
4.65122E-01 1.67199E-28
4.69476E-01 1.62395E-28
4.73832E-01 1.57743E-28
4.78190E-01 1.53238E-28
4.82550E-01 1.48875E-28
4.86912E-01 1.44648E-28
4.91274E-01 1.40553E-28
4.95637E-01 1.36584E-28
5.00000E-01 1.32739E-28
5.04363E-01 1.29011E-28
5.08726E-01 1.25398E-28
5.13088E-01 1.21895E-28
5.17450E-01 1.18498E-28
5.21810E-01 1.15204E-28
5.26168E-01 1.12009E-28
5.30524E-01 1.08910E-28
5.34878E-01 1.05904E-28
5.39230E-01 1.02987E-28
5.43578E-01 1.00156E-28
5.47923E-01 9.74096E-29
5.52264E-01 9.47435E-29
5.56602E-01 9.21556E-29
5.60935E-01 8.96432E-29
5.65263E-01 8.72039E-29
5.69587E-01 8.48352E-29
5.73905E-01 8.25350E-29
5.78217E-01 8.03009E-29
5.82524E-01 7.81308E-29
5.86824E-01 7.60227E-29
5.91118E-01 7.39746E-29
5.95404E-01 7.19846E-29
5.99684E-01 7.00508E-29
6.03956E-01 6.81714E-29
6.08220E-01 6.63448E-29
6.12476E-01 6.45693E-29
6.16723E-01 6.28433E-29
6.20961E-01 6.11652E-29
6.25190E-01 5.95336E-29
6.29410E-01 5.79470E-29
6.33619E-01 5.64041E-29
6.37819E-01 5.49035E-29
6.42008E-01 5.34439E-29
6.46186E-01 5.20241E-29
6.50353E-01 5.06428E-29
6.54508E-01 4.92990E-29
6.58652E-01 4.79915E-29
6.62784E-01 4.67191E-29
6.66903E-01 4.54810E-29
6.71010E-01 4.42759E-29
6.75104E-01 4.31030E-29
6.79184E-01 4.19614E-29
6.83251E-01 4.08500E-29
6.87303E-01 3.97680E-29
6.91342E-01 3.87146E-29
6.95366E-01 3.76889E-29
6.99375E-01 3.66901E-29
7.03368E-01 3.57175E-29
7.07347E-01 3.47703E-29
7.11309E-01 3.38477E-29
7.15256E-01 3.29491E-29
7.19186E-01 3.20737E-29
7.23099E-01 3.12210E-29
7.26995E-01 3.03903E-29
7.30874E-01 2.95810E-29
7.34736E-01 2.87924E-29
7.38579E-01 2.80239E-29
7.42405E-01 2.72752E-29
7.46212E-01 2.65455E-29
7.50000E-01 2.58343E-29
7.53769E-01 2.51412E-29
7.57519E-01 2.44657E-29
7.61249E-01 2.38072E-29
7.64960E-01 2.31653E-29
7.68650E-01 2.25395E-29
7.72320E-01 2.19295E-29
7.75968E-01 2.13348E-29
7.79596E-01 2.07549E-29
7.83203E-01 2.01896E-29
7.86788E-01 1.96383E-29
7.90351E-01 1.91008E-29
7.93893E-01 1.85766E-29
7.97411E-01 1.80654E-29
8.00908E-01 1.75669E-29
8.04381E-01 1.70807E-29
8.07831E-01 1.66065E-29
8.11257E-01 1.61440E-29
8.14660E-01 1.56929E-29
8.18039E-01 1.52529E-29
8.21394E-01 1.48238E-29
8.24724E-01 1.44051E-29
8.28030E-01 1.39967E-29
8.31310E-01 1.35984E-29
8.34565E-01 1.32097E-29
8.37795E-01 1.28306E-29
8.40999E-01 1.24608E-29
8.44177E-01 1.21000E-29
8.47329E-01 1.17479E-29
8.50455E-01 1.14045E-29
8.53553E-01 1.10695E-29
8.56625E-01 1.07426E-29
8.59670E-01 1.04237E-29
8.62687E-01 1.01126E-29
8.65677E-01 9.80901E-30
8.68639E-01 9.51286E-30
8.71572E-01 9.22393E-30
8.74478E-01 8.94205E-30
8.77355E-01 8.66704E-30
8.80203E-01 8.39875E-30
8.83022E-01 8.13702E-30
8.85812E-01 7.88169E-30
8.88573E-01 7.63261E-30
8.91304E-01 7.38962E-30
8.94005E-01 7.15261E-30
8.96677E-01 6.92142E-30
8.99318E-01 6.69590E-30
9.01928E-01 6.47596E-30
9.04508E-01 6.26145E-30
9.07058E-01 6.05224E-30
9.09576E-01 5.84823E-30
9.12063E-01 5.64929E-30
9.14519E-01 5.45531E-30
9.16943E-01 5.26618E-30
9.19335E-01 5.08180E-30
9.21696E-01 4.90205E-30
9.24024E-01 4.72685E-30
9.26320E-01 4.55609E-30
9.28584E-01 4.38968E-30
9.30815E-01 4.22752E-30
9.33013E-01 4.06953E-30
9.35178E-01 3.91561E-30
9.37310E-01 3.76569E-30
9.39409E-01 3.61968E-30
9.41474E-01 3.47750E-30
9.43505E-01 3.33909E-30
9.45503E-01 3.20435E-30
9.47467E-01 3.07321E-30
9.49397E-01 2.94561E-30
9.51293E-01 2.82148E-30
9.53154E-01 2.70075E-30
9.54981E-01 2.58335E-30
9.56773E-01 2.46923E-30
9.58530E-01 2.35832E-30
9.60252E-01 2.25057E-30
9.61940E-01 2.14591E-30
9.63592E-01 2.04429E-30
9.65209E-01 1.94566E-30
9.66790E-01 1.84997E-30
9.68336E-01 1.75716E-30
9.69846E-01 1.66719E-30
9.71321E-01 1.58001E-30
9.72759E-01 1.49557E-30
9.74162E-01 1.41383E-30
9.75528E-01 1.33475E-30
9.76858E-01 1.25829E-30
9.78152E-01 1.18441E-30
9.79410E-01 1.11306E-30
9.80631E-01 1.04422E-30
9.81815E-01 9.77848E-31
9.82963E-01 9.13907E-31
9.84074E-01 8.52367E-31
9.85148E-01 7.93193E-31
9.86185E-01 7.36358E-31
9.87185E-01 6.81835E-31
9.88148E-01 6.29593E-31
9.89074E-01 5.79605E-31
9.89962E-01 5.31849E-31
9.90814E-01 4.86296E-31
9.91627E-01 4.42930E-31
9.92404E-01 4.01719E-31
9.93143E-01 3.62650E-31
9.93844E-01 3.25701E-31
9.94508E-01 2.90855E-31
9.95134E-01 2.58090E-31
9.95722E-01 2.27394E-31
9.96273E-01 1.98749E-31
9.96786E-01 1.72141E-31
9.97261E-01 1.47558E-31
9.97698E-01 1.24986E-31
9.98097E-01 1.04415E-31
9.98459E-01 8.58347E-32
9.98782E-01 6.92335E-32
9.99067E-01 5.46062E-32
9.99315E-01 4.19440E-32
9.99524E-01 3.12399E-32
9.99695E-01 2.24888E-32
9.99829E-01 1.56880E-32
9.99924E-01 1.08319E-32
9.99981E-01 7.91969E-33
1.00000E+00 6.94756E-33
