 #
 # Subroutine ELSEPA. Elastic scattering of electrons and positrons
 #                    by neutral atoms and positive ions
 #
 # Projectile: positron
 # Kinetic energy = 3.50000E+08 eV = 1.28623E+07 a.u.
 #
 # WARNING: High-energy factorization with free-atom DF screening.
 #          Absorption, polarization and exchange corrections are
 #          switched off.
 #          Phase shifts are calculated for the bare nucleus.
 #          Scattering amplitudes are not evaluated.
 #
 # Element:  C,  Z =   6,  atomic weight = 1.20107E+01 g/mol
 #
 # Nuclear model: Fermi distribution
 #                Average radius = 2.45042E-13 cm
 #                Skin thickness = 5.46000E-14 cm
 #
 # Number of electrons =  6
 #
 # Total elastic cross section = 2.41122E-19 cm**2 = 8.61061E-03 a0**2
 # 1st transport cross section = 6.70440E-28 cm**2 = 2.39418E-11 a0**2
 # 2nd transport cross section = 2.00794E-27 cm**2 = 7.17047E-11 a0**2
 #
 #
 # Differential cross section:                       MU=(1-COS(THETA))/2
 #
 #  THETA        MU          DCS          DCS        Sherman      error
 #  (deg)                 (cm**2/sr)   (a0**2/sr)    function
 #----------------------------------------------------------------------
0.00000E+00 2.88548E-10
7.61557E-13 2.82745E-10
1.18994E-12 2.79555E-10
1.71346E-12 2.75726E-10
2.33225E-12 2.71296E-10
3.04617E-12 2.66309E-10
3.85530E-12 2.60814E-10
4.75964E-12 2.54859E-10
5.75917E-12 2.48503E-10
6.85391E-12 2.41790E-10
8.04379E-12 2.34789E-10
9.32893E-12 2.27537E-10
1.07092E-11 2.20106E-10
1.21847E-11 2.12526E-10
1.37554E-11 2.04443E-10
1.54213E-11 1.96495E-10
1.71823E-11 1.88878E-10
1.90386E-11 1.81607E-10
2.09900E-11 1.73796E-10
2.30367E-11 1.66064E-10
2.51785E-11 1.58773E-10
2.74156E-11 1.51911E-10
2.97478E-11 1.44753E-10
3.21752E-11 1.37700E-10
3.46979E-11 1.31111E-10
3.73157E-11 1.24961E-10
4.00286E-11 1.18711E-10
4.28368E-11 1.12571E-10
4.57402E-11 1.06864E-10
4.87388E-11 1.01561E-10
5.18325E-11 9.62868E-11
5.50215E-11 9.11195E-11
5.83057E-11 8.63283E-11
6.16850E-11 8.18837E-11
6.51595E-11 7.75408E-11
6.87293E-11 7.32966E-11
7.23943E-11 6.93633E-11
7.61544E-11 6.57158E-11
1.18991E-10 3.77823E-11
1.71347E-10 2.21148E-11
2.33223E-10 1.33689E-11
3.04617E-10 8.40755E-12
3.85531E-10 5.50019E-12
4.75965E-10 3.73723E-12
5.75917E-10 2.63182E-12
6.85389E-10 1.91200E-12
8.04380E-10 1.42645E-12
9.32891E-10 1.08949E-12
1.07092E-09 8.49439E-13
1.21847E-09 6.73935E-13
1.37554E-09 5.42512E-13
1.54213E-09 4.42675E-13
1.71823E-09 3.65261E-13
1.90386E-09 3.04439E-13
2.09900E-09 2.56077E-13
2.30367E-09 2.16939E-13
2.51785E-09 1.85195E-13
2.74156E-09 1.59058E-13
2.97478E-09 1.37379E-13
3.21752E-09 1.19339E-13
3.46978E-09 1.04094E-13
3.73156E-09 9.12391E-14
4.00286E-09 8.02998E-14
4.28368E-09 7.09237E-14
4.57402E-09 6.28932E-14
4.87388E-09 5.59382E-14
5.18326E-09 4.99160E-14
5.50215E-09 4.46834E-14
5.83057E-09 4.00980E-14
6.16850E-09 3.60898E-14
6.51596E-09 3.25604E-14
6.87293E-09 2.94467E-14
7.23942E-09 2.66980E-14
7.61544E-09 2.42520E-14
1.18991E-08 1.02979E-14
1.71347E-08 5.05468E-15
2.33223E-08 2.75366E-15
3.04617E-08 1.62244E-15
3.85531E-08 1.01593E-15
4.75965E-08 6.67787E-16
5.75917E-08 4.56647E-16
6.85389E-08 3.22675E-16
8.04380E-08 2.34394E-16
9.32891E-08 1.74329E-16
1.07092E-07 1.32322E-16
1.21847E-07 1.02236E-16
1.37554E-07 8.02321E-17
1.54213E-07 6.38412E-17
1.71823E-07 5.14295E-17
1.90386E-07 4.18909E-17
2.09900E-07 3.44646E-17
2.30367E-07 2.86134E-17
2.51785E-07 2.39528E-17
2.74156E-07 2.02036E-17
2.97478E-07 1.71601E-17
3.21752E-07 1.46687E-17
3.46978E-07 1.26135E-17
3.73156E-07 1.09059E-17
4.00286E-07 9.47773E-18
4.28368E-07 8.27588E-18
4.57402E-07 7.25863E-18
4.87388E-07 6.39298E-18
5.18325E-07 5.65261E-18
5.50215E-07 5.01639E-18
5.83057E-07 4.46720E-18
6.16850E-07 3.99116E-18
6.51596E-07 3.57687E-18
6.87293E-07 3.21496E-18
7.23942E-07 2.89769E-18
7.61543E-07 2.61861E-18
1.18991E-06 1.07258E-18
1.71347E-06 5.17248E-19
2.33223E-06 2.79192E-19
3.04617E-06 1.63653E-19
3.85531E-06 1.02165E-19
4.75964E-06 6.70289E-20
5.75916E-06 4.57804E-20
6.85388E-06 3.23231E-20
8.04378E-06 2.34667E-20
9.32888E-06 1.74462E-20
1.07092E-05 1.32384E-20
1.21846E-05 1.02261E-20
1.37553E-05 8.02383E-21
1.54212E-05 6.38374E-21
1.71822E-05 5.14207E-21
1.90385E-05 4.18415E-21
2.09899E-05 3.44268E-21
2.30365E-05 2.85923E-21
2.51783E-05 2.39453E-21
2.74153E-05 2.02034E-21
2.97475E-05 1.71612E-21
3.21749E-05 1.46674E-21
3.46974E-05 1.26086E-21
3.73152E-05 1.08982E-21
4.00281E-05 9.46881E-22
4.28362E-05 8.26737E-22
4.57395E-05 7.25158E-22
4.87380E-05 6.38768E-22
5.18317E-05 5.64877E-22
5.50205E-05 5.01340E-22
5.83045E-05 4.46447E-22
6.16838E-05 3.98828E-22
6.51582E-05 3.57371E-22
6.87277E-05 3.21163E-22
7.23925E-05 2.89439E-22
7.61524E-05 2.60952E-22
9.21439E-05 1.78177E-22
1.09658E-04 1.25696E-22
1.28695E-04 9.12025E-23
1.49255E-04 6.77547E-23
1.71338E-04 5.13699E-23
1.94942E-04 3.96520E-23
2.20070E-04 3.10826E-23
2.46720E-04 2.47082E-23
2.74892E-04 1.98824E-23
3.04586E-04 1.61774E-23
3.35803E-04 1.32950E-23
3.68542E-04 1.10245E-23
4.02802E-04 9.21807E-24
4.38585E-04 7.76522E-24
4.75889E-04 6.58698E-24
5.14715E-04 5.62307E-24
5.55063E-04 4.82840E-24
5.96931E-04 4.16883E-24
6.40321E-04 3.61743E-24
6.85233E-04 3.15392E-24
7.31665E-04 2.76184E-24
7.79618E-04 2.42851E-24
8.29092E-04 2.14368E-24
8.80086E-04 1.89909E-24
9.32601E-04 1.68820E-24
9.86636E-04 1.50554E-24
1.04219E-03 1.34674E-24
1.09927E-03 1.20816E-24
1.15786E-03 1.08678E-24
1.21797E-03 9.80146E-25
1.27961E-03 8.86124E-25
1.34276E-03 8.03006E-25
1.40743E-03 7.29293E-25
1.47362E-03 6.63751E-25
1.54133E-03 6.05323E-25
1.61056E-03 5.53097E-25
1.68131E-03 5.06316E-25
1.75357E-03 4.64303E-25
1.82735E-03 4.26500E-25
1.90265E-03 3.92408E-25
1.97947E-03 3.61600E-25
2.05780E-03 3.33710E-25
2.13765E-03 3.08410E-25
2.21902E-03 2.85422E-25
2.30190E-03 2.64497E-25
2.38630E-03 2.45418E-25
2.47222E-03 2.27996E-25
2.55965E-03 2.12059E-25
2.64859E-03 1.97464E-25
2.73905E-03 1.84074E-25
2.83103E-03 1.71775E-25
2.92452E-03 1.60463E-25
3.01952E-03 1.50044E-25
3.11604E-03 1.40437E-25
3.21407E-03 1.31566E-25
3.31362E-03 1.23367E-25
3.41468E-03 1.15780E-25
3.51725E-03 1.08750E-25
3.62133E-03 1.02231E-25
3.72692E-03 9.61791E-26
3.83403E-03 9.05550E-26
3.94265E-03 8.53229E-26
4.05278E-03 8.04515E-26
4.16442E-03 7.59115E-26
4.27757E-03 7.16765E-26
4.39223E-03 6.77228E-26
4.50840E-03 6.40281E-26
4.62608E-03 6.05732E-26
4.74527E-03 5.73395E-26
4.86597E-03 5.43106E-26
4.98817E-03 5.14715E-26
5.11188E-03 4.88080E-26
5.23711E-03 4.63079E-26
5.36383E-03 4.39590E-26
5.49207E-03 4.17510E-26
5.62181E-03 3.96740E-26
5.75306E-03 3.77188E-26
5.88581E-03 3.58772E-26
6.02007E-03 3.41415E-26
6.15583E-03 3.25047E-26
6.29310E-03 3.09601E-26
6.43187E-03 2.95017E-26
6.57214E-03 2.81239E-26
6.71392E-03 2.68216E-26
6.85720E-03 2.55900E-26
7.00198E-03 2.44245E-26
7.14827E-03 2.33212E-26
7.29605E-03 2.22760E-26
7.44534E-03 2.12855E-26
7.59612E-03 2.03465E-26
7.97965E-03 1.82037E-26
8.37255E-03 1.63205E-26
8.77480E-03 1.46609E-26
9.18641E-03 1.31946E-26
9.60736E-03 1.18960E-26
1.00376E-02 1.07432E-26
1.04773E-02 9.71747E-27
1.09262E-02 8.80301E-27
1.13844E-02 7.98606E-27
1.18520E-02 7.25483E-27
1.23288E-02 6.59913E-27
1.28150E-02 6.01013E-27
1.33104E-02 5.48016E-27
1.38150E-02 5.00254E-27
1.43290E-02 4.57145E-27
1.48521E-02 4.18179E-27
1.53845E-02 3.82907E-27
1.59262E-02 3.50937E-27
1.64770E-02 3.21923E-27
1.70371E-02 2.95559E-27
1.76063E-02 2.71574E-27
1.81848E-02 2.49729E-27
1.87724E-02 2.29812E-27
1.93692E-02 2.11633E-27
1.99751E-02 1.95025E-27
2.05901E-02 1.79836E-27
2.12143E-02 1.65932E-27
2.18476E-02 1.53195E-27
2.24900E-02 1.41515E-27
2.31415E-02 1.30796E-27
2.38021E-02 1.20952E-27
2.44717E-02 1.11904E-27
2.51504E-02 1.03581E-27
2.58382E-02 9.59213E-28
2.65349E-02 8.88658E-28
2.72407E-02 8.23632E-28
2.79555E-02 7.63664E-28
2.86793E-02 7.08327E-28
2.94120E-02 6.57235E-28
3.01537E-02 6.10035E-28
3.09043E-02 5.66408E-28
3.16639E-02 5.26064E-28
3.24324E-02 4.88737E-28
3.32098E-02 4.54184E-28
3.39961E-02 4.22187E-28
3.47912E-02 3.92542E-28
3.55952E-02 3.65065E-28
3.64081E-02 3.39588E-28
3.72297E-02 3.15956E-28
3.80602E-02 2.94028E-28
3.88995E-02 2.73673E-28
3.97476E-02 2.54773E-28
4.06044E-02 2.37217E-28
4.14700E-02 2.20906E-28
4.23443E-02 2.05746E-28
4.32273E-02 1.91652E-28
4.41190E-02 1.78546E-28
4.50194E-02 1.66356E-28
4.59284E-02 1.55014E-28
4.68461E-02 1.44460E-28
4.87074E-02 1.25490E-28
5.06030E-02 1.09042E-28
5.25328E-02 9.47702E-29
5.44967E-02 8.23788E-29
5.64946E-02 7.16139E-29
5.85262E-02 6.22576E-29
6.05914E-02 5.41220E-29
6.26901E-02 4.70454E-29
6.48222E-02 4.08882E-29
6.69873E-02 3.55297E-29
6.91854E-02 3.08657E-29
7.14163E-02 2.68057E-29
7.36799E-02 2.32713E-29
7.59760E-02 2.01945E-29
7.83043E-02 1.75163E-29
8.06647E-02 1.51853E-29
8.30571E-02 1.31569E-29
8.54812E-02 1.13923E-29
8.79369E-02 9.85746E-30
9.04240E-02 8.52303E-30
9.29422E-02 7.36328E-30
9.54915E-02 6.35579E-30
9.80716E-02 5.48102E-30
1.00682E-01 4.72190E-30
1.03323E-01 4.06355E-30
1.05995E-01 3.49299E-30
1.08696E-01 2.99886E-30
1.11427E-01 2.57127E-30
1.14188E-01 2.20158E-30
1.16978E-01 1.88224E-30
1.19797E-01 1.60667E-30
1.22645E-01 1.36913E-30
1.25522E-01 1.16460E-30
1.28428E-01 9.88715E-31
1.31361E-01 8.37663E-31
1.34323E-01 7.08120E-31
1.37313E-01 5.97194E-31
1.40330E-01 5.02364E-31
1.43375E-01 4.21437E-31
1.46447E-01 3.52504E-31
1.49545E-01 2.93907E-31
1.52671E-01 2.44206E-31
1.55823E-01 2.02150E-31
1.59001E-01 1.66655E-31
1.62205E-01 1.36781E-31
1.65435E-01 1.11714E-31
1.68690E-01 9.07514E-32
1.71970E-01 7.32857E-32
1.75276E-01 5.87924E-32
1.78606E-01 4.68202E-32
1.81961E-01 3.69806E-32
1.85340E-01 2.89397E-32
1.88743E-01 2.24113E-32
1.92169E-01 1.71505E-32
1.95619E-01 1.29478E-32
1.99092E-01 9.62476E-33
2.02589E-01 7.02950E-33
2.06107E-01 5.03314E-33
2.09649E-01 3.52659E-33
2.13212E-01 2.41782E-33
2.16797E-01 1.62943E-33
2.20404E-01 1.09654E-33
2.24032E-01 7.65027E-34
2.27680E-01 5.89915E-34
2.31350E-01 5.34035E-34
2.35040E-01 5.66858E-34
2.38751E-01 6.63464E-34
2.42481E-01 8.03689E-34
2.46231E-01 9.71361E-34
2.50000E-01 1.15367E-33
2.53788E-01 1.34059E-33
2.57595E-01 1.52443E-33
2.61421E-01 1.69945E-33
2.65264E-01 1.86146E-33
2.69126E-01 2.00758E-33
2.73005E-01 2.13595E-33
2.76901E-01 2.24558E-33
2.80814E-01 2.33615E-33
2.84744E-01 2.40780E-33
2.88691E-01 2.46113E-33
2.92653E-01 2.49699E-33
2.96632E-01 2.51647E-33
3.00625E-01 2.52077E-33
3.04634E-01 2.51120E-33
3.08658E-01 2.48911E-33
3.12697E-01 2.45585E-33
3.16749E-01 2.41276E-33
3.20816E-01 2.36114E-33
3.24896E-01 2.30221E-33
3.28990E-01 2.23716E-33
3.33097E-01 2.16706E-33
3.37216E-01 2.09293E-33
3.41348E-01 2.01573E-33
3.45492E-01 1.93628E-33
3.49647E-01 1.85535E-33
3.53814E-01 1.77363E-33
3.57992E-01 1.69174E-33
3.62181E-01 1.61022E-33
3.66381E-01 1.52951E-33
3.70590E-01 1.45005E-33
3.74810E-01 1.37217E-33
3.79039E-01 1.29617E-33
3.83277E-01 1.22229E-33
3.87524E-01 1.15071E-33
3.91780E-01 1.08161E-33
3.96044E-01 1.01508E-33
4.00316E-01 9.51235E-34
4.04596E-01 8.90108E-34
4.08882E-01 8.31731E-34
4.13176E-01 7.76118E-34
4.17476E-01 7.23246E-34
4.21783E-01 6.73089E-34
4.26095E-01 6.25603E-34
4.30413E-01 5.80736E-34
4.34737E-01 5.38411E-34
4.39065E-01 4.98559E-34
4.43398E-01 4.61097E-34
4.47736E-01 4.25943E-34
4.52077E-01 3.93003E-34
4.56422E-01 3.62180E-34
4.60770E-01 3.33385E-34
4.65122E-01 3.06520E-34
4.69476E-01 2.81493E-34
4.73832E-01 2.58206E-34
4.78190E-01 2.36574E-34
4.82550E-01 2.16498E-34
4.86912E-01 1.97894E-34
4.91274E-01 1.80674E-34
4.95637E-01 1.64755E-34
5.00000E-01 1.50061E-34
5.04363E-01 1.36509E-34
5.08726E-01 1.24029E-34
5.13088E-01 1.12547E-34
5.17450E-01 1.01999E-34
5.21810E-01 9.23171E-35
5.26168E-01 8.34447E-35
5.30524E-01 7.53202E-35
5.34878E-01 6.78915E-35
5.39230E-01 6.11098E-35
5.43578E-01 5.49228E-35
5.47923E-01 4.92882E-35
5.52264E-01 4.41601E-35
5.56602E-01 3.95026E-35
5.60935E-01 3.52749E-35
5.65263E-01 3.14449E-35
5.69587E-01 2.79796E-35
5.73905E-01 2.48478E-35
5.78217E-01 2.20222E-35
5.82524E-01 1.94760E-35
5.86824E-01 1.71859E-35
5.91118E-01 1.51303E-35
5.95404E-01 1.32870E-35
5.99684E-01 1.16377E-35
6.03956E-01 1.01642E-35
6.08220E-01 8.85092E-36
6.12476E-01 7.68260E-36
6.16723E-01 6.64556E-36
6.20961E-01 5.72743E-36
6.25190E-01 4.91568E-36
6.29410E-01 4.20162E-36
6.33619E-01 3.57354E-36
6.37819E-01 3.02346E-36
6.42008E-01 2.54381E-36
6.46186E-01 2.12656E-36
6.50353E-01 1.76539E-36
6.54508E-01 1.45396E-36
6.58652E-01 1.18696E-36
6.62784E-01 9.59307E-37
6.66903E-01 7.66324E-37
6.71010E-01 6.04242E-37
6.75104E-01 4.69301E-37
6.79184E-01 3.57998E-37
6.83251E-01 2.67474E-37
6.87303E-01 1.95107E-37
6.91342E-01 1.38444E-37
6.95366E-01 9.53057E-38
6.99375E-01 6.37820E-38
7.03368E-01 4.22202E-38
7.07347E-01 2.90552E-38
7.11309E-01 2.29644E-38
7.15256E-01 2.27710E-38
7.19186E-01 2.73718E-38
7.23099E-01 3.59255E-38
7.26995E-01 4.75619E-38
7.30874E-01 6.17048E-38
7.34736E-01 7.75660E-38
7.38579E-01 9.46947E-38
7.42405E-01 1.12645E-37
7.46212E-01 1.31137E-37
7.50000E-01 1.49659E-37
7.53769E-01 1.68034E-37
7.57519E-01 1.86031E-37
7.61249E-01 2.03348E-37
7.64960E-01 2.20081E-37
7.68650E-01 2.35792E-37
7.72320E-01 2.50709E-37
7.75968E-01 2.64531E-37
7.79596E-01 2.77217E-37
7.83203E-01 2.88906E-37
7.86788E-01 2.99368E-37
7.90351E-01 3.08827E-37
7.93893E-01 3.17045E-37
7.97411E-01 3.24252E-37
8.00908E-01 3.30295E-37
8.04381E-01 3.35422E-37
8.07831E-01 3.39444E-37
8.11257E-01 3.42599E-37
8.14660E-01 3.44851E-37
8.18039E-01 3.46038E-37
8.21394E-01 3.46757E-37
8.24724E-01 3.46421E-37
8.28030E-01 3.45420E-37
8.31310E-01 3.43640E-37
8.34565E-01 3.41432E-37
8.37795E-01 3.38584E-37
8.40999E-01 3.35208E-37
8.44177E-01 3.31286E-37
8.47329E-01 3.26884E-37
8.50455E-01 3.22130E-37
8.53553E-01 3.17013E-37
8.56625E-01 3.11603E-37
8.59670E-01 3.05789E-37
8.62687E-01 2.99925E-37
8.65677E-01 2.93717E-37
8.68639E-01 2.87447E-37
8.71572E-01 2.80835E-37
8.74478E-01 2.74303E-37
8.77355E-01 2.67534E-37
8.80203E-01 2.60720E-37
8.83022E-01 2.53805E-37
8.85812E-01 2.46952E-37
8.88573E-01 2.40066E-37
8.91304E-01 2.33101E-37
8.94005E-01 2.26199E-37
8.96677E-01 2.19462E-37
8.99318E-01 2.12508E-37
9.01928E-01 2.05696E-37
9.04508E-01 1.99055E-37
9.07058E-01 1.92460E-37
9.09576E-01 1.86001E-37
9.12063E-01 1.79585E-37
9.14519E-01 1.73307E-37
9.16943E-01 1.67037E-37
9.19335E-01 1.60943E-37
9.21696E-01 1.55008E-37
9.24024E-01 1.49043E-37
9.26320E-01 1.43435E-37
9.28584E-01 1.37798E-37
9.30815E-01 1.32371E-37
9.33013E-01 1.27050E-37
9.35178E-01 1.21848E-37
9.37310E-01 1.16753E-37
9.39409E-01 1.11819E-37
9.41474E-01 1.06964E-37
9.43505E-01 1.02359E-37
9.45503E-01 9.78590E-38
9.47467E-01 9.34746E-38
9.49397E-01 8.91507E-38
9.51293E-01 8.51171E-38
9.53154E-01 8.10804E-38
9.54981E-01 7.71730E-38
9.56773E-01 7.34347E-38
9.58530E-01 6.97804E-38
9.60252E-01 6.62792E-38
9.61940E-01 6.28971E-38
9.63592E-01 5.96868E-38
9.65209E-01 5.65859E-38
9.66790E-01 5.35208E-38
9.68336E-01 5.05769E-38
9.69846E-01 4.77922E-38
9.71321E-01 4.50437E-38
9.72759E-01 4.24596E-38
9.74162E-01 3.99267E-38
9.75528E-01 3.75458E-38
9.76858E-01 3.52395E-38
9.78152E-01 3.30063E-38
9.79410E-01 3.08690E-38
9.80631E-01 2.88662E-38
9.81815E-01 2.68814E-38
9.82963E-01 2.50243E-38
9.84074E-01 2.32428E-38
9.85148E-01 2.15111E-38
9.86185E-01 1.98436E-38
9.87185E-01 1.83127E-38
9.88148E-01 1.68420E-38
9.89074E-01 1.54137E-38
9.89962E-01 1.41060E-38
9.90814E-01 1.28054E-38
9.91627E-01 1.16823E-38
9.92404E-01 1.05050E-38
9.93143E-01 9.44525E-39
9.93844E-01 8.41875E-39
9.94508E-01 7.51390E-39
9.95134E-01 6.62069E-39
9.95722E-01 5.79457E-39
9.96273E-01 5.02533E-39
9.96786E-01 4.30545E-39
9.97261E-01 3.66991E-39
9.97698E-01 3.07015E-39
9.98097E-01 2.52876E-39
9.98459E-01 2.05502E-39
9.98782E-01 1.60552E-39
9.99067E-01 1.22883E-39
9.99315E-01 9.16138E-40
9.99524E-01 6.36496E-40
9.99695E-01 3.94333E-40
9.99829E-01 2.31801E-40
9.99924E-01 1.01020E-40
9.99981E-01 2.30310E-41
1.00000E+00 9.06813E-43
