 #
 # Subroutine ELSEPA. Elastic scattering of electrons and positrons
 #                    by neutral atoms and positive ions
 #
 # Projectile: positron
 # Kinetic energy = 1.75000E+08 eV = 6.43113E+06 a.u.
 #
 # WARNING: High-energy factorization with free-atom DF screening.
 #          Absorption, polarization and exchange corrections are
 #          switched off.
 #          Phase shifts are calculated for the bare nucleus.
 #          Scattering amplitudes are not evaluated.
 #
 # Element:  C,  Z =   6,  atomic weight = 1.20107E+01 g/mol
 #
 # Nuclear model: Fermi distribution
 #                Average radius = 2.45042E-13 cm
 #                Skin thickness = 5.46000E-14 cm
 #
 # Number of electrons =  6
 #
 # Total elastic cross section = 2.41109E-19 cm**2 = 8.61015E-03 a0**2
 # 1st transport cross section = 2.65791E-27 cm**2 = 9.49156E-11 a0**2
 # 2nd transport cross section = 7.92460E-27 cm**2 = 2.82993E-10 a0**2
 #
 #
 # Differential cross section:                       MU=(1-COS(THETA))/2
 #
 #  THETA        MU          DCS          DCS        Sherman      error
 #  (deg)                 (cm**2/sr)   (a0**2/sr)    function
 #----------------------------------------------------------------------
0.00000E+00 7.23475E-11
7.61557E-13 7.19783E-11
1.18994E-12 7.17720E-11
1.71346E-12 7.15211E-11
2.33225E-12 7.12262E-11
3.04617E-12 7.08883E-11
3.85530E-12 7.05080E-11
4.75964E-12 7.00862E-11
5.75917E-12 6.96243E-11
6.85391E-12 6.91236E-11
8.04379E-12 6.85852E-11
9.32893E-12 6.80098E-11
1.07092E-11 6.73996E-11
1.21847E-11 6.67563E-11
1.37554E-11 6.60813E-11
1.54213E-11 6.53749E-11
1.71823E-11 6.46399E-11
1.90386E-11 6.38782E-11
2.09900E-11 6.30917E-11
2.30367E-11 6.22805E-11
2.51785E-11 6.14471E-11
2.74156E-11 6.05939E-11
2.97478E-11 5.97228E-11
3.21752E-11 5.88345E-11
3.46979E-11 5.79300E-11
3.73157E-11 5.70127E-11
4.00286E-11 5.60843E-11
4.28368E-11 5.51460E-11
4.57402E-11 5.41972E-11
4.87388E-11 5.32420E-11
5.18325E-11 5.22360E-11
5.50215E-11 5.12097E-11
5.83057E-11 5.02027E-11
6.16850E-11 4.92159E-11
6.51595E-11 4.82501E-11
6.87293E-11 4.73057E-11
7.23943E-11 4.63831E-11
7.61544E-11 4.54826E-11
1.18991E-10 3.62273E-11
1.71347E-10 2.81601E-11
2.33223E-10 2.15863E-11
3.04617E-10 1.64257E-11
3.85531E-10 1.24470E-11
4.75965E-10 9.43508E-12
5.75917E-10 7.19072E-12
6.85389E-10 5.51990E-12
8.04380E-10 4.27229E-12
9.32891E-10 3.33543E-12
1.07092E-09 2.63065E-12
1.21847E-09 2.09722E-12
1.37554E-09 1.68823E-12
1.54213E-09 1.37176E-12
1.71823E-09 1.12541E-12
1.90386E-09 9.32032E-13
2.09900E-09 7.78841E-13
2.30367E-09 6.56357E-13
2.51785E-09 5.57454E-13
2.74156E-09 4.76844E-13
2.97478E-09 4.10599E-13
3.21752E-09 3.55760E-13
3.46978E-09 3.10063E-13
3.73156E-09 2.71732E-13
4.00286E-09 2.39370E-13
4.28368E-09 2.11869E-13
4.57402E-09 1.88343E-13
4.87388E-09 1.68098E-13
5.18326E-09 1.50557E-13
5.50215E-09 1.35319E-13
5.83057E-09 1.22051E-13
6.16850E-09 1.10417E-13
6.51596E-09 1.00150E-13
6.87293E-09 9.11112E-14
7.23942E-09 8.31134E-14
7.61544E-09 7.59375E-14
1.18991E-08 3.42649E-14
1.71347E-08 1.76880E-14
2.33223E-08 9.99926E-15
3.04617E-08 6.04720E-15
3.85531E-08 3.85627E-15
4.75965E-08 2.56746E-15
5.75917E-08 1.77172E-15
6.85389E-08 1.26012E-15
8.04380E-08 9.19724E-16
9.32891E-08 6.86451E-16
1.07092E-07 5.22418E-16
1.21847E-07 4.04443E-16
1.37554E-07 3.17888E-16
1.54213E-07 2.53249E-16
1.71823E-07 2.04206E-16
1.90386E-07 1.66462E-16
2.09900E-07 1.37037E-16
2.30367E-07 1.13829E-16
2.51785E-07 9.53271E-17
2.74156E-07 8.04330E-17
2.97478E-07 6.83351E-17
3.21752E-07 5.84271E-17
3.46978E-07 5.02503E-17
3.73156E-07 4.34545E-17
4.00286E-07 3.77691E-17
4.28368E-07 3.29834E-17
4.57402E-07 2.89320E-17
4.87388E-07 2.54837E-17
5.18325E-07 2.25341E-17
5.50215E-07 1.99990E-17
5.83057E-07 1.78105E-17
6.16850E-07 1.59133E-17
6.51596E-07 1.42620E-17
6.87293E-07 1.28194E-17
7.23942E-07 1.15545E-17
7.61543E-07 1.04418E-17
1.18991E-06 4.27729E-18
1.71347E-06 2.06279E-18
2.33223E-06 1.11345E-18
3.04617E-06 6.52680E-19
3.85531E-06 4.07459E-19
4.75964E-06 2.67329E-19
5.75916E-06 1.82586E-19
6.85388E-06 1.28915E-19
8.04378E-06 9.35931E-20
9.32888E-06 6.95815E-20
1.07092E-05 5.27995E-20
1.21846E-05 4.07853E-20
1.37553E-05 3.20019E-20
1.54212E-05 2.54607E-20
1.71822E-05 2.05085E-20
1.90385E-05 1.66880E-20
2.09899E-05 1.37307E-20
2.30365E-05 1.14037E-20
2.51783E-05 9.55030E-21
2.74153E-05 8.05790E-21
2.97475E-05 6.84456E-21
3.21749E-05 5.84994E-21
3.46974E-05 5.02881E-21
3.73152E-05 4.34663E-21
4.00281E-05 3.77654E-21
4.28362E-05 3.29736E-21
4.57395E-05 2.89222E-21
4.87380E-05 2.54766E-21
5.18317E-05 2.25296E-21
5.50205E-05 1.99954E-21
5.83045E-05 1.78061E-21
6.16838E-05 1.59069E-21
6.51582E-05 1.42534E-21
6.87277E-05 1.28093E-21
7.23925E-05 1.15440E-21
7.61524E-05 1.04260E-21
9.21439E-05 7.12151E-22
1.09658E-04 5.02598E-22
1.28695E-04 3.64837E-22
1.49255E-04 2.71169E-22
1.71338E-04 2.05700E-22
1.94942E-04 1.58866E-22
2.20070E-04 1.24606E-22
2.46720E-04 9.91139E-23
2.74892E-04 7.98087E-23
3.04586E-04 6.49820E-23
3.35803E-04 5.34431E-23
3.68542E-04 4.43506E-23
4.02802E-04 3.71134E-23
4.38585E-04 3.12904E-23
4.75889E-04 2.65660E-23
5.14715E-04 2.26992E-23
5.55063E-04 1.95099E-23
5.96931E-04 1.68615E-23
6.40321E-04 1.46463E-23
6.85233E-04 1.27832E-23
7.31665E-04 1.12064E-23
7.79618E-04 9.86503E-24
8.29092E-04 8.71822E-24
8.80086E-04 7.73282E-24
9.32601E-04 6.88269E-24
9.86636E-04 6.14584E-24
1.04219E-03 5.50487E-24
1.09927E-03 4.94510E-24
1.15786E-03 4.45449E-24
1.21797E-03 4.02313E-24
1.27961E-03 3.64254E-24
1.34276E-03 3.30582E-24
1.40743E-03 3.00698E-24
1.47362E-03 2.74105E-24
1.54133E-03 2.50379E-24
1.61056E-03 2.29153E-24
1.68131E-03 2.10124E-24
1.75357E-03 1.93020E-24
1.82735E-03 1.77616E-24
1.90265E-03 1.63711E-24
1.97947E-03 1.51134E-24
2.05780E-03 1.39738E-24
2.13765E-03 1.29389E-24
2.21902E-03 1.19977E-24
2.30190E-03 1.11401E-24
2.38630E-03 1.03573E-24
2.47222E-03 9.64173E-25
2.55965E-03 8.98650E-25
2.64859E-03 8.38572E-25
2.73905E-03 7.83396E-25
2.83103E-03 7.32659E-25
2.92452E-03 6.85935E-25
3.01952E-03 6.42851E-25
3.11604E-03 6.03076E-25
3.21407E-03 5.66304E-25
3.31362E-03 5.32275E-25
3.41468E-03 5.00743E-25
3.51725E-03 4.71493E-25
3.62133E-03 4.44331E-25
3.72692E-03 4.19080E-25
3.83403E-03 3.95583E-25
3.94265E-03 3.73694E-25
4.05278E-03 3.53286E-25
4.16442E-03 3.34238E-25
4.27757E-03 3.16445E-25
4.39223E-03 2.99809E-25
4.50840E-03 2.84240E-25
4.62608E-03 2.69658E-25
4.74527E-03 2.55990E-25
4.86597E-03 2.43167E-25
4.98817E-03 2.31129E-25
5.11188E-03 2.19817E-25
5.23711E-03 2.09181E-25
5.36383E-03 1.99173E-25
5.49207E-03 1.89749E-25
5.62181E-03 1.80869E-25
5.75306E-03 1.72496E-25
5.88581E-03 1.64595E-25
6.02007E-03 1.57135E-25
6.15583E-03 1.50088E-25
6.29310E-03 1.43425E-25
6.43187E-03 1.37123E-25
6.57214E-03 1.31158E-25
6.71392E-03 1.25509E-25
6.85720E-03 1.20157E-25
7.00198E-03 1.15082E-25
7.14827E-03 1.10268E-25
7.29605E-03 1.05699E-25
7.44534E-03 1.01360E-25
7.59612E-03 9.72386E-26
7.97965E-03 8.77995E-26
8.37255E-03 7.94596E-26
8.77480E-03 7.20697E-26
9.18641E-03 6.55038E-26
9.60736E-03 5.96547E-26
1.00376E-02 5.44313E-26
1.04773E-02 4.97555E-26
1.09262E-02 4.55603E-26
1.13844E-02 4.17883E-26
1.18520E-02 3.83896E-26
1.23288E-02 3.53211E-26
1.28150E-02 3.25455E-26
1.33104E-02 3.00301E-26
1.38150E-02 2.77466E-26
1.43290E-02 2.56700E-26
1.48521E-02 2.37784E-26
1.53845E-02 2.20527E-26
1.59262E-02 2.04759E-26
1.64770E-02 1.90331E-26
1.70371E-02 1.77109E-26
1.76063E-02 1.64977E-26
1.81848E-02 1.53830E-26
1.87724E-02 1.43575E-26
1.93692E-02 1.34128E-26
1.99751E-02 1.25416E-26
2.05901E-02 1.17373E-26
2.12143E-02 1.09938E-26
2.18476E-02 1.03058E-26
2.24900E-02 9.66850E-27
2.31415E-02 9.07758E-27
2.38021E-02 8.52911E-27
2.44717E-02 8.01955E-27
2.51504E-02 7.54570E-27
2.58382E-02 7.10465E-27
2.65349E-02 6.69378E-27
2.72407E-02 6.31070E-27
2.79555E-02 5.95322E-27
2.86793E-02 5.61937E-27
2.94120E-02 5.30735E-27
3.01537E-02 5.01550E-27
3.09043E-02 4.74231E-27
3.16639E-02 4.48642E-27
3.24324E-02 4.24655E-27
3.32098E-02 4.02154E-27
3.39961E-02 3.81034E-27
3.47912E-02 3.61197E-27
3.55952E-02 3.42553E-27
3.64081E-02 3.25020E-27
3.72297E-02 3.08521E-27
3.80602E-02 2.92987E-27
3.88995E-02 2.78352E-27
3.97476E-02 2.64557E-27
4.06044E-02 2.51547E-27
4.14700E-02 2.39269E-27
4.23443E-02 2.27678E-27
4.32273E-02 2.16729E-27
4.41190E-02 2.06381E-27
4.50194E-02 1.96597E-27
4.59284E-02 1.87341E-27
4.68461E-02 1.78582E-27
4.87074E-02 1.62431E-27
5.06030E-02 1.47927E-27
5.25328E-02 1.34879E-27
5.44967E-02 1.23123E-27
5.64946E-02 1.12514E-27
5.85262E-02 1.02927E-27
6.05914E-02 9.42504E-28
6.26901E-02 8.63879E-28
6.48222E-02 7.92535E-28
6.69873E-02 7.27720E-28
6.91854E-02 6.68765E-28
7.14163E-02 6.15079E-28
7.36799E-02 5.66138E-28
7.59760E-02 5.21475E-28
7.83043E-02 4.80676E-28
8.06647E-02 4.43368E-28
8.30571E-02 4.09223E-28
8.54812E-02 3.77943E-28
8.79369E-02 3.49263E-28
9.04240E-02 3.22946E-28
9.29422E-02 2.98776E-28
9.54915E-02 2.76563E-28
9.80716E-02 2.56131E-28
1.00682E-01 2.37325E-28
1.03323E-01 2.20004E-28
1.05995E-01 2.04039E-28
1.08696E-01 1.89315E-28
1.11427E-01 1.75728E-28
1.14188E-01 1.63181E-28
1.16978E-01 1.51588E-28
1.19797E-01 1.40872E-28
1.22645E-01 1.30960E-28
1.25522E-01 1.21788E-28
1.28428E-01 1.13295E-28
1.31361E-01 1.05428E-28
1.34323E-01 9.81376E-29
1.37313E-01 9.13782E-29
1.40330E-01 8.51084E-29
1.43375E-01 7.92905E-29
1.46447E-01 7.38896E-29
1.49545E-01 6.88740E-29
1.52671E-01 6.42144E-29
1.55823E-01 5.98840E-29
1.59001E-01 5.58581E-29
1.62205E-01 5.21140E-29
1.65435E-01 4.86310E-29
1.68690E-01 4.53898E-29
1.71970E-01 4.23727E-29
1.75276E-01 3.95634E-29
1.78606E-01 3.69468E-29
1.81961E-01 3.45091E-29
1.85340E-01 3.22375E-29
1.88743E-01 3.01201E-29
1.92169E-01 2.81459E-29
1.95619E-01 2.63049E-29
1.99092E-01 2.45877E-29
2.02589E-01 2.29855E-29
2.06107E-01 2.14905E-29
2.09649E-01 2.00951E-29
2.13212E-01 1.87924E-29
2.16797E-01 1.75762E-29
2.20404E-01 1.64403E-29
2.24032E-01 1.53794E-29
2.27680E-01 1.43883E-29
2.31350E-01 1.34623E-29
2.35040E-01 1.25969E-29
2.38751E-01 1.17882E-29
2.42481E-01 1.10322E-29
2.46231E-01 1.03254E-29
2.50000E-01 9.66460E-30
2.53788E-01 9.04667E-30
2.57595E-01 8.46876E-30
2.61421E-01 7.92823E-30
2.65264E-01 7.42260E-30
2.69126E-01 6.94956E-30
2.73005E-01 6.50698E-30
2.76901E-01 6.09285E-30
2.80814E-01 5.70531E-30
2.84744E-01 5.34262E-30
2.88691E-01 5.00315E-30
2.92653E-01 4.68540E-30
2.96632E-01 4.38795E-30
3.00625E-01 4.10949E-30
3.04634E-01 3.84879E-30
3.08658E-01 3.60469E-30
3.12697E-01 3.37613E-30
3.16749E-01 3.16211E-30
3.20816E-01 2.96169E-30
3.24896E-01 2.77400E-30
3.28990E-01 2.59822E-30
3.33097E-01 2.43358E-30
3.37216E-01 2.27939E-30
3.41348E-01 2.13495E-30
3.45492E-01 1.99967E-30
3.49647E-01 1.87294E-30
3.53814E-01 1.75423E-30
3.57992E-01 1.64303E-30
3.62181E-01 1.53886E-30
3.66381E-01 1.44127E-30
3.70590E-01 1.34984E-30
3.74810E-01 1.26419E-30
3.79039E-01 1.18395E-30
3.83277E-01 1.10877E-30
3.87524E-01 1.03834E-30
3.91780E-01 9.72360E-31
3.96044E-01 9.10542E-31
4.00316E-01 8.52626E-31
4.04596E-01 7.98365E-31
4.08882E-01 7.47530E-31
4.13176E-01 6.99905E-31
4.17476E-01 6.55287E-31
4.21783E-01 6.13486E-31
4.26095E-01 5.74326E-31
4.30413E-01 5.37640E-31
4.34737E-01 5.03272E-31
4.39065E-01 4.71077E-31
4.43398E-01 4.40917E-31
4.47736E-01 4.12665E-31
4.52077E-01 3.86200E-31
4.56422E-01 3.61411E-31
4.60770E-01 3.38192E-31
4.65122E-01 3.16444E-31
4.69476E-01 2.96075E-31
4.73832E-01 2.76998E-31
4.78190E-01 2.59131E-31
4.82550E-01 2.42399E-31
4.86912E-01 2.26729E-31
4.91274E-01 2.12057E-31
4.95637E-01 1.98317E-31
5.00000E-01 1.85452E-31
5.04363E-01 1.73407E-31
5.08726E-01 1.62130E-31
5.13088E-01 1.51573E-31
5.17450E-01 1.41689E-31
5.21810E-01 1.32438E-31
5.26168E-01 1.23778E-31
5.30524E-01 1.15673E-31
5.34878E-01 1.08088E-31
5.39230E-01 1.00989E-31
5.43578E-01 9.43456E-32
5.47923E-01 8.81296E-32
5.52264E-01 8.23138E-32
5.56602E-01 7.68726E-32
5.60935E-01 7.17825E-32
5.65263E-01 6.70210E-32
5.69587E-01 6.25674E-32
5.73905E-01 5.84021E-32
5.78217E-01 5.45069E-32
5.82524E-01 5.08645E-32
5.86824E-01 4.74588E-32
5.91118E-01 4.42747E-32
5.95404E-01 4.12982E-32
5.99684E-01 3.85160E-32
6.03956E-01 3.59156E-32
6.08220E-01 3.34855E-32
6.12476E-01 3.12147E-32
6.16723E-01 2.90931E-32
6.20961E-01 2.71110E-32
6.25190E-01 2.52596E-32
6.29410E-01 2.35303E-32
6.33619E-01 2.19154E-32
6.37819E-01 2.04076E-32
6.42008E-01 1.89997E-32
6.46186E-01 1.76856E-32
6.50353E-01 1.64589E-32
6.54508E-01 1.53142E-32
6.58652E-01 1.42460E-32
6.62784E-01 1.32495E-32
6.66903E-01 1.23200E-32
6.71010E-01 1.14530E-32
6.75104E-01 1.06445E-32
6.79184E-01 9.89072E-33
6.83251E-01 9.18807E-33
6.87303E-01 8.53316E-33
6.91342E-01 7.92286E-33
6.95366E-01 7.35426E-33
6.99375E-01 6.82464E-33
7.03368E-01 6.33133E-33
7.07347E-01 5.87206E-33
7.11309E-01 5.44446E-33
7.15256E-01 5.04650E-33
7.19186E-01 4.67615E-33
7.23099E-01 4.33162E-33
7.26995E-01 4.01116E-33
7.30874E-01 3.71320E-33
7.34736E-01 3.43616E-33
7.38579E-01 3.17868E-33
7.42405E-01 2.93942E-33
7.46212E-01 2.71719E-33
7.50000E-01 2.51079E-33
7.53769E-01 2.31916E-33
7.57519E-01 2.14131E-33
7.61249E-01 1.97626E-33
7.64960E-01 1.82319E-33
7.68650E-01 1.68122E-33
7.72320E-01 1.54963E-33
7.75968E-01 1.42768E-33
7.79596E-01 1.31471E-33
7.83203E-01 1.21010E-33
7.86788E-01 1.11325E-33
7.90351E-01 1.02364E-33
7.93893E-01 9.40744E-34
7.97411E-01 8.64102E-34
8.00908E-01 7.93259E-34
8.04381E-01 7.27821E-34
8.07831E-01 6.67385E-34
8.11257E-01 6.11609E-34
8.14660E-01 5.60152E-34
8.18039E-01 5.12691E-34
8.21394E-01 4.68966E-34
8.24724E-01 4.28674E-34
8.28030E-01 3.91580E-34
8.31310E-01 3.57443E-34
8.34565E-01 3.26057E-34
8.37795E-01 2.97208E-34
8.40999E-01 2.70709E-34
8.44177E-01 2.46383E-34
8.47329E-01 2.24066E-34
8.50455E-01 2.03609E-34
8.53553E-01 1.84869E-34
8.56625E-01 1.67716E-34
8.59670E-01 1.52023E-34
8.62687E-01 1.37686E-34
8.65677E-01 1.24589E-34
8.68639E-01 1.12642E-34
8.71572E-01 1.01747E-34
8.74478E-01 9.18286E-35
8.77355E-01 8.28008E-35
8.80203E-01 7.45950E-35
8.83022E-01 6.71428E-35
8.85812E-01 6.03846E-35
8.88573E-01 5.42609E-35
8.91304E-01 4.87177E-35
8.94005E-01 4.37076E-35
8.96677E-01 3.91862E-35
8.99318E-01 3.51068E-35
9.01928E-01 3.14348E-35
9.04508E-01 2.81342E-35
9.07058E-01 2.51708E-35
9.09576E-01 2.25147E-35
9.12063E-01 2.01373E-35
9.14519E-01 1.80132E-35
9.16943E-01 1.61183E-35
9.19335E-01 1.44314E-35
9.21696E-01 1.29322E-35
9.24024E-01 1.16021E-35
9.26320E-01 1.04248E-35
9.28584E-01 9.38432E-36
9.30815E-01 8.46674E-36
9.33013E-01 7.65921E-36
9.35178E-01 6.94994E-36
9.37310E-01 6.32829E-36
9.39409E-01 5.78434E-36
9.41474E-01 5.30949E-36
9.43505E-01 4.89485E-36
9.45503E-01 4.53383E-36
9.47467E-01 4.21972E-36
9.49397E-01 3.94705E-36
9.51293E-01 3.70870E-36
9.53154E-01 3.50202E-36
9.54981E-01 3.32174E-36
9.56773E-01 3.16352E-36
9.58530E-01 3.02473E-36
9.60252E-01 2.90156E-36
9.61940E-01 2.79162E-36
9.63592E-01 2.69188E-36
9.65209E-01 2.60087E-36
9.66790E-01 2.51773E-36
9.68336E-01 2.43979E-36
9.69846E-01 2.36513E-36
9.71321E-01 2.29426E-36
9.72759E-01 2.22434E-36
9.74162E-01 2.15619E-36
9.75528E-01 2.08758E-36
9.76858E-01 2.01915E-36
9.78152E-01 1.95047E-36
9.79410E-01 1.88090E-36
9.80631E-01 1.80951E-36
9.81815E-01 1.73815E-36
9.82963E-01 1.66483E-36
9.84074E-01 1.59045E-36
9.85148E-01 1.51560E-36
9.86185E-01 1.44007E-36
9.87185E-01 1.36262E-36
9.88148E-01 1.28492E-36
9.89074E-01 1.20748E-36
9.89962E-01 1.12905E-36
9.90814E-01 1.05210E-36
9.91627E-01 9.73460E-37
9.92404E-01 8.98179E-37
9.93143E-01 8.22990E-37
9.93844E-01 7.49945E-37
9.94508E-01 6.77459E-37
9.95134E-01 6.08166E-37
9.95722E-01 5.41173E-37
9.96273E-01 4.76976E-37
9.96786E-01 4.16043E-37
9.97261E-01 3.57782E-37
9.97698E-01 3.03567E-37
9.98097E-01 2.53119E-37
9.98459E-01 2.06441E-37
9.98782E-01 1.64729E-37
9.99067E-01 1.27000E-37
9.99315E-01 9.36793E-38
9.99524E-01 6.55944E-38
9.99695E-01 4.27565E-38
9.99829E-01 2.42847E-38
9.99924E-01 1.13919E-38
9.99981E-01 3.61507E-39
1.00000E+00 1.04571E-39
