 #
 # Subroutine ELSEPA. Elastic scattering of electrons and positrons
 #                    by neutral atoms and positive ions
 #
 # Projectile: electron
 # Kinetic energy = 4.50000E+06 eV = 1.65372E+05 a.u.
 #
 # WARNING: High-energy factorization with free-atom DF screening.
 #          Absorption, polarization and exchange corrections are
 #          switched off.
 #          Phase shifts are calculated for the bare nucleus.
 #          Scattering amplitudes are not evaluated.
 #
 # Element: Th,  Z =  90,  atomic weight = 2.32038E+02 g/mol
 #
 # Nuclear model: Fermi distribution
 #                Average radius = 6.57512E-13 cm
 #                Skin thickness = 5.46000E-14 cm
 #
 # Number of electrons = 90
 #
 # Total elastic cross section = 1.20070E-17 cm**2 = 4.28778E-01 a0**2
 # 1st transport cross section = 5.49730E-22 cm**2 = 1.96312E-05 a0**2
 # 2nd transport cross section = 1.44475E-21 cm**2 = 5.15929E-05 a0**2
 #
 #
 # Differential cross section:                       MU=(1-COS(THETA))/2
 #
 #  THETA        MU          DCS          DCS        Sherman      error
 #  (deg)                 (cm**2/sr)   (a0**2/sr)    function
 #----------------------------------------------------------------------
0.00000E+00 3.66677E-12
7.61557E-13 3.66673E-12
1.18994E-12 3.66671E-12
1.71346E-12 3.66669E-12
2.33225E-12 3.66666E-12
3.04617E-12 3.66662E-12
3.85530E-12 3.66659E-12
4.75964E-12 3.66654E-12
5.75917E-12 3.66649E-12
6.85391E-12 3.66644E-12
8.04379E-12 3.66639E-12
9.32893E-12 3.66632E-12
1.07092E-11 3.66626E-12
1.21847E-11 3.66619E-12
1.37554E-11 3.66611E-12
1.54213E-11 3.66603E-12
1.71823E-11 3.66595E-12
1.90386E-11 3.66586E-12
2.09900E-11 3.66577E-12
2.30367E-11 3.66567E-12
2.51785E-11 3.66557E-12
2.74156E-11 3.66546E-12
2.97478E-11 3.66535E-12
3.21752E-11 3.66523E-12
3.46979E-11 3.66511E-12
3.73157E-11 3.66498E-12
4.00286E-11 3.66485E-12
4.28368E-11 3.66472E-12
4.57402E-11 3.66458E-12
4.87388E-11 3.66444E-12
5.18325E-11 3.66429E-12
5.50215E-11 3.66414E-12
5.83057E-11 3.66398E-12
6.16850E-11 3.66382E-12
6.51595E-11 3.66365E-12
6.87293E-11 3.66348E-12
7.23943E-11 3.66331E-12
7.61544E-11 3.66313E-12
1.18991E-10 3.66108E-12
1.71347E-10 3.65858E-12
2.33223E-10 3.65563E-12
3.04617E-10 3.65222E-12
3.85531E-10 3.64838E-12
4.75965E-10 3.64408E-12
5.75917E-10 3.63934E-12
6.85389E-10 3.63417E-12
8.04380E-10 3.62856E-12
9.32891E-10 3.62251E-12
1.07092E-09 3.61603E-12
1.21847E-09 3.60913E-12
1.37554E-09 3.60180E-12
1.54213E-09 3.59406E-12
1.71823E-09 3.58591E-12
1.90386E-09 3.57734E-12
2.09900E-09 3.56837E-12
2.30367E-09 3.55900E-12
2.51785E-09 3.54924E-12
2.74156E-09 3.53910E-12
2.97478E-09 3.52856E-12
3.21752E-09 3.51766E-12
3.46978E-09 3.50638E-12
3.73156E-09 3.49474E-12
4.00286E-09 3.48274E-12
4.28368E-09 3.47039E-12
4.57402E-09 3.45770E-12
4.87388E-09 3.44467E-12
5.18326E-09 3.43130E-12
5.50215E-09 3.41762E-12
5.83057E-09 3.40361E-12
6.16850E-09 3.38930E-12
6.51596E-09 3.37469E-12
6.87293E-09 3.35978E-12
7.23942E-09 3.34459E-12
7.61544E-09 3.32912E-12
1.18991E-08 3.16081E-12
1.71347E-08 2.97325E-12
2.33223E-08 2.77419E-12
3.04617E-08 2.57068E-12
3.85531E-08 2.36870E-12
4.75965E-08 2.17295E-12
5.75917E-08 1.98688E-12
6.85389E-08 1.81284E-12
8.04380E-08 1.65197E-12
9.32891E-08 1.50467E-12
1.07092E-07 1.37081E-12
1.21847E-07 1.24980E-12
1.37554E-07 1.14082E-12
1.54213E-07 1.04291E-12
1.71823E-07 9.55048E-13
1.90386E-07 8.76219E-13
2.09900E-07 8.05458E-13
2.30367E-07 7.41866E-13
2.51785E-07 6.84600E-13
2.74156E-07 6.32942E-13
2.97478E-07 5.86247E-13
3.21752E-07 5.43946E-13
3.46978E-07 5.05537E-13
3.73156E-07 4.70586E-13
4.00286E-07 4.38709E-13
4.28368E-07 4.09573E-13
4.57402E-07 3.82887E-13
4.87388E-07 3.58398E-13
5.18325E-07 3.35874E-13
5.50215E-07 3.15103E-13
5.83057E-07 2.95943E-13
6.16850E-07 2.78243E-13
6.51596E-07 2.61868E-13
6.87293E-07 2.46699E-13
7.23942E-07 2.32630E-13
7.61543E-07 2.19565E-13
1.18991E-06 1.27672E-13
1.71347E-06 8.06365E-14
2.33223E-06 5.37766E-14
3.04617E-06 3.73897E-14
3.85531E-06 2.68445E-14
4.75964E-06 1.97794E-14
5.75916E-06 1.48982E-14
6.85388E-06 1.14312E-14
8.04378E-06 8.93078E-15
9.32888E-06 7.08838E-15
1.07092E-05 5.70394E-15
1.21846E-05 4.64496E-15
1.37553E-05 3.82195E-15
1.54212E-05 3.17336E-15
1.71822E-05 2.65601E-15
1.90385E-05 2.23748E-15
2.09899E-05 1.90031E-15
2.30365E-05 1.62413E-15
2.51783E-05 1.39322E-15
2.74153E-05 1.20158E-15
2.97475E-05 1.04184E-15
3.21749E-05 9.08067E-16
3.46974E-05 7.95410E-16
3.73152E-05 6.99961E-16
4.00281E-05 6.18585E-16
4.28362E-05 5.48788E-16
4.57395E-05 4.88603E-16
4.87380E-05 4.36467E-16
5.18317E-05 3.91121E-16
5.50205E-05 3.51534E-16
5.83045E-05 3.16886E-16
6.16838E-05 2.86457E-16
6.51582E-05 2.59640E-16
6.87277E-05 2.35921E-16
7.23925E-05 2.14869E-16
7.61524E-05 1.96116E-16
9.21439E-05 1.38813E-16
1.09658E-04 1.00996E-16
1.28695E-04 7.52789E-17
1.49255E-04 5.72879E-17
1.71338E-04 4.43907E-17
1.94942E-04 3.49453E-17
2.20070E-04 2.78934E-17
2.46720E-04 2.25382E-17
2.74892E-04 1.84106E-17
3.04586E-04 1.51856E-17
3.35803E-04 1.26360E-17
3.68542E-04 1.05986E-17
4.02802E-04 8.95396E-18
4.38585E-04 7.61604E-18
4.75889E-04 6.51865E-18
5.14715E-04 5.61200E-18
5.55063E-04 4.85766E-18
5.96931E-04 4.22608E-18
6.40321E-04 3.69405E-18
6.85233E-04 3.24337E-18
7.31665E-04 2.85958E-18
7.79618E-04 2.53108E-18
8.29092E-04 2.24859E-18
8.80086E-04 2.00452E-18
9.32601E-04 1.79283E-18
9.86636E-04 1.60847E-18
1.04219E-03 1.44730E-18
1.09927E-03 1.30590E-18
1.15786E-03 1.18142E-18
1.21797E-03 1.07147E-18
1.27961E-03 9.74065E-19
1.34276E-03 8.87510E-19
1.40743E-03 8.10391E-19
1.47362E-03 7.41483E-19
1.54133E-03 6.79758E-19
1.61056E-03 6.24340E-19
1.68131E-03 5.74467E-19
1.75357E-03 5.29488E-19
1.82735E-03 4.88834E-19
1.90265E-03 4.52015E-19
1.97947E-03 4.18605E-19
2.05780E-03 3.88231E-19
2.13765E-03 3.60568E-19
2.21902E-03 3.35330E-19
2.30190E-03 3.12264E-19
2.38630E-03 2.91150E-19
2.47222E-03 2.71795E-19
2.55965E-03 2.54025E-19
2.64859E-03 2.37687E-19
2.73905E-03 2.22645E-19
2.83103E-03 2.08776E-19
2.92452E-03 1.95975E-19
3.01952E-03 1.84141E-19
3.11604E-03 1.73191E-19
3.21407E-03 1.63045E-19
3.31362E-03 1.53633E-19
3.41468E-03 1.44892E-19
3.51725E-03 1.36767E-19
3.62133E-03 1.29205E-19
3.72692E-03 1.22161E-19
3.83403E-03 1.15593E-19
3.94265E-03 1.09462E-19
4.05278E-03 1.03734E-19
4.16442E-03 9.83780E-20
4.27757E-03 9.33648E-20
4.39223E-03 8.86685E-20
4.50840E-03 8.42653E-20
4.62608E-03 8.01335E-20
4.74527E-03 7.62534E-20
4.86597E-03 7.26068E-20
4.98817E-03 6.91769E-20
5.11188E-03 6.59486E-20
5.23711E-03 6.29076E-20
5.36383E-03 6.00412E-20
5.49207E-03 5.73374E-20
5.62181E-03 5.47852E-20
5.75306E-03 5.23745E-20
5.88581E-03 5.00959E-20
6.02007E-03 4.79409E-20
6.15583E-03 4.59015E-20
6.29310E-03 4.39704E-20
6.43187E-03 4.21406E-20
6.57214E-03 4.04059E-20
6.71392E-03 3.87603E-20
6.85720E-03 3.71985E-20
7.00198E-03 3.57153E-20
7.14827E-03 3.43061E-20
7.29605E-03 3.29664E-20
7.44534E-03 3.16921E-20
7.59612E-03 3.04794E-20
7.97965E-03 2.76946E-20
8.37255E-03 2.52241E-20
8.77480E-03 2.30260E-20
9.18641E-03 2.10651E-20
9.60736E-03 1.93110E-20
1.00376E-02 1.77381E-20
1.04773E-02 1.63243E-20
1.09262E-02 1.50506E-20
1.13844E-02 1.39006E-20
1.18520E-02 1.28600E-20
1.23288E-02 1.19166E-20
1.28150E-02 1.10596E-20
1.33104E-02 1.02796E-20
1.38150E-02 9.56845E-21
1.43290E-02 8.91888E-21
1.48521E-02 8.32458E-21
1.53845E-02 7.77998E-21
1.59262E-02 7.28014E-21
1.64770E-02 6.82069E-21
1.70371E-02 6.39774E-21
1.76063E-02 6.00785E-21
1.81848E-02 5.64793E-21
1.87724E-02 5.31525E-21
1.93692E-02 5.00734E-21
1.99751E-02 4.72200E-21
2.05901E-02 4.45726E-21
2.12143E-02 4.21135E-21
2.18476E-02 3.98266E-21
2.24900E-02 3.76976E-21
2.31415E-02 3.57134E-21
2.38021E-02 3.38622E-21
2.44717E-02 3.21334E-21
2.51504E-02 3.05173E-21
2.58382E-02 2.90050E-21
2.65349E-02 2.75887E-21
2.72407E-02 2.62608E-21
2.79555E-02 2.50150E-21
2.86793E-02 2.38449E-21
2.94120E-02 2.27452E-21
3.01537E-02 2.17107E-21
3.09043E-02 2.07369E-21
3.16639E-02 1.98193E-21
3.24324E-02 1.89541E-21
3.32098E-02 1.81377E-21
3.39961E-02 1.73668E-21
3.47912E-02 1.66383E-21
3.55952E-02 1.59494E-21
3.64081E-02 1.52975E-21
3.72297E-02 1.46801E-21
3.80602E-02 1.40952E-21
3.88995E-02 1.35406E-21
3.97476E-02 1.30145E-21
4.06044E-02 1.25150E-21
4.14700E-02 1.20405E-21
4.23443E-02 1.15895E-21
4.32273E-02 1.11606E-21
4.41190E-02 1.07525E-21
4.50194E-02 1.03640E-21
4.59284E-02 9.99386E-22
4.68461E-02 9.64109E-22
4.87074E-02 8.98374E-22
5.06030E-02 8.38476E-22
5.25328E-02 7.83790E-22
5.44967E-02 7.33769E-22
5.64946E-02 6.87930E-22
5.85262E-02 6.45850E-22
6.05914E-02 6.07156E-22
6.26901E-02 5.71516E-22
6.48222E-02 5.38638E-22
6.69873E-02 5.08260E-22
6.91854E-02 4.80152E-22
7.14163E-02 4.54105E-22
7.36799E-02 4.29935E-22
7.59760E-02 4.07477E-22
7.83043E-02 3.86581E-22
8.06647E-02 3.67115E-22
8.30571E-02 3.48959E-22
8.54812E-02 3.32002E-22
8.79369E-02 3.16150E-22
9.04240E-02 3.01311E-22
9.29422E-02 2.87407E-22
9.54915E-02 2.74365E-22
9.80716E-02 2.62119E-22
1.00682E-01 2.50607E-22
1.03323E-01 2.39777E-22
1.05995E-01 2.29576E-22
1.08696E-01 2.19961E-22
1.11427E-01 2.10888E-22
1.14188E-01 2.02321E-22
1.16978E-01 1.94223E-22
1.19797E-01 1.86563E-22
1.22645E-01 1.79312E-22
1.25522E-01 1.72440E-22
1.28428E-01 1.65925E-22
1.31361E-01 1.59742E-22
1.34323E-01 1.53870E-22
1.37313E-01 1.48290E-22
1.40330E-01 1.42984E-22
1.43375E-01 1.37933E-22
1.46447E-01 1.33124E-22
1.49545E-01 1.28541E-22
1.52671E-01 1.24171E-22
1.55823E-01 1.20001E-22
1.59001E-01 1.16019E-22
1.62205E-01 1.12216E-22
1.65435E-01 1.08581E-22
1.68690E-01 1.05104E-22
1.71970E-01 1.01777E-22
1.75276E-01 9.85905E-23
1.78606E-01 9.55383E-23
1.81961E-01 9.26127E-23
1.85340E-01 8.98072E-23
1.88743E-01 8.71153E-23
1.92169E-01 8.45313E-23
1.95619E-01 8.20495E-23
1.99092E-01 7.96648E-23
2.02589E-01 7.73723E-23
2.06107E-01 7.51674E-23
2.09649E-01 7.30460E-23
2.13212E-01 7.10039E-23
2.16797E-01 6.90374E-23
2.20404E-01 6.71429E-23
2.24032E-01 6.53170E-23
2.27680E-01 6.35564E-23
2.31350E-01 6.18581E-23
2.35040E-01 6.02194E-23
2.38751E-01 5.86376E-23
2.42481E-01 5.71101E-23
2.46231E-01 5.56345E-23
2.50000E-01 5.42087E-23
2.53788E-01 5.28303E-23
2.57595E-01 5.14973E-23
2.61421E-01 5.02079E-23
2.65264E-01 4.89601E-23
2.69126E-01 4.77523E-23
2.73005E-01 4.65829E-23
2.76901E-01 4.54502E-23
2.80814E-01 4.43527E-23
2.84744E-01 4.32892E-23
2.88691E-01 4.22580E-23
2.92653E-01 4.12581E-23
2.96632E-01 4.02882E-23
3.00625E-01 3.93470E-23
3.04634E-01 3.84337E-23
3.08658E-01 3.75470E-23
3.12697E-01 3.66860E-23
3.16749E-01 3.58497E-23
3.20816E-01 3.50372E-23
3.24896E-01 3.42476E-23
3.28990E-01 3.34801E-23
3.33097E-01 3.27338E-23
3.37216E-01 3.20081E-23
3.41348E-01 3.13022E-23
3.45492E-01 3.06154E-23
3.49647E-01 2.99471E-23
3.53814E-01 2.92966E-23
3.57992E-01 2.86632E-23
3.62181E-01 2.80464E-23
3.66381E-01 2.74456E-23
3.70590E-01 2.68604E-23
3.74810E-01 2.62902E-23
3.79039E-01 2.57344E-23
3.83277E-01 2.51928E-23
3.87524E-01 2.46646E-23
3.91780E-01 2.41496E-23
3.96044E-01 2.36472E-23
4.00316E-01 2.31572E-23
4.04596E-01 2.26791E-23
4.08882E-01 2.22126E-23
4.13176E-01 2.17573E-23
4.17476E-01 2.13128E-23
4.21783E-01 2.08789E-23
4.26095E-01 2.04550E-23
4.30413E-01 2.00411E-23
4.34737E-01 1.96368E-23
4.39065E-01 1.92418E-23
4.43398E-01 1.88559E-23
4.47736E-01 1.84787E-23
4.52077E-01 1.81101E-23
4.56422E-01 1.77497E-23
4.60770E-01 1.73974E-23
4.65122E-01 1.70528E-23
4.69476E-01 1.67159E-23
4.73832E-01 1.63863E-23
4.78190E-01 1.60639E-23
4.82550E-01 1.57485E-23
4.86912E-01 1.54399E-23
4.91274E-01 1.51379E-23
4.95637E-01 1.48423E-23
5.00000E-01 1.45529E-23
5.04363E-01 1.42696E-23
5.08726E-01 1.39923E-23
5.13088E-01 1.37207E-23
5.17450E-01 1.34548E-23
5.21810E-01 1.31943E-23
5.26168E-01 1.29391E-23
5.30524E-01 1.26891E-23
5.34878E-01 1.24442E-23
5.39230E-01 1.22042E-23
5.43578E-01 1.19691E-23
5.47923E-01 1.17386E-23
5.52264E-01 1.15127E-23
5.56602E-01 1.12912E-23
5.60935E-01 1.10741E-23
5.65263E-01 1.08613E-23
5.69587E-01 1.06526E-23
5.73905E-01 1.04479E-23
5.78217E-01 1.02472E-23
5.82524E-01 1.00503E-23
5.86824E-01 9.85724E-24
5.91118E-01 9.66782E-24
5.95404E-01 9.48199E-24
5.99684E-01 9.29966E-24
6.03956E-01 9.12076E-24
6.08220E-01 8.94521E-24
6.12476E-01 8.77293E-24
6.16723E-01 8.60385E-24
6.20961E-01 8.43789E-24
6.25190E-01 8.27500E-24
6.29410E-01 8.11510E-24
6.33619E-01 7.95812E-24
6.37819E-01 7.80400E-24
6.42008E-01 7.65268E-24
6.46186E-01 7.50409E-24
6.50353E-01 7.35818E-24
6.54508E-01 7.21490E-24
6.58652E-01 7.07418E-24
6.62784E-01 6.93598E-24
6.66903E-01 6.80023E-24
6.71010E-01 6.66690E-24
6.75104E-01 6.53593E-24
6.79184E-01 6.40726E-24
6.83251E-01 6.28086E-24
6.87303E-01 6.15667E-24
6.91342E-01 6.03466E-24
6.95366E-01 5.91478E-24
6.99375E-01 5.79698E-24
7.03368E-01 5.68123E-24
7.07347E-01 5.56749E-24
7.11309E-01 5.45571E-24
7.15256E-01 5.34587E-24
7.19186E-01 5.23791E-24
7.23099E-01 5.13180E-24
7.26995E-01 5.02751E-24
7.30874E-01 4.92501E-24
7.34736E-01 4.82426E-24
7.38579E-01 4.72523E-24
7.42405E-01 4.62788E-24
7.46212E-01 4.53219E-24
7.50000E-01 4.43813E-24
7.53769E-01 4.34566E-24
7.57519E-01 4.25476E-24
7.61249E-01 4.16539E-24
7.64960E-01 4.07753E-24
7.68650E-01 3.99116E-24
7.72320E-01 3.90625E-24
7.75968E-01 3.82276E-24
7.79596E-01 3.74069E-24
7.83203E-01 3.66000E-24
7.86788E-01 3.58066E-24
7.90351E-01 3.50266E-24
7.93893E-01 3.42598E-24
7.97411E-01 3.35058E-24
8.00908E-01 3.27646E-24
8.04381E-01 3.20358E-24
8.07831E-01 3.13193E-24
8.11257E-01 3.06149E-24
8.14660E-01 2.99224E-24
8.18039E-01 2.92415E-24
8.21394E-01 2.85722E-24
8.24724E-01 2.79142E-24
8.28030E-01 2.72673E-24
8.31310E-01 2.66314E-24
8.34565E-01 2.60062E-24
8.37795E-01 2.53917E-24
8.40999E-01 2.47877E-24
8.44177E-01 2.41939E-24
8.47329E-01 2.36104E-24
8.50455E-01 2.30368E-24
8.53553E-01 2.24731E-24
8.56625E-01 2.19190E-24
8.59670E-01 2.13746E-24
8.62687E-01 2.08395E-24
8.65677E-01 2.03138E-24
8.68639E-01 1.97972E-24
8.71572E-01 1.92897E-24
8.74478E-01 1.87910E-24
8.77355E-01 1.83011E-24
8.80203E-01 1.78199E-24
8.83022E-01 1.73473E-24
8.85812E-01 1.68830E-24
8.88573E-01 1.64271E-24
8.91304E-01 1.59794E-24
8.94005E-01 1.55398E-24
8.96677E-01 1.51082E-24
8.99318E-01 1.46844E-24
9.01928E-01 1.42685E-24
9.04508E-01 1.38602E-24
9.07058E-01 1.34596E-24
9.09576E-01 1.30664E-24
9.12063E-01 1.26807E-24
9.14519E-01 1.23023E-24
9.16943E-01 1.19311E-24
9.19335E-01 1.15671E-24
9.21696E-01 1.12102E-24
9.24024E-01 1.08602E-24
9.26320E-01 1.05172E-24
9.28584E-01 1.01810E-24
9.30815E-01 9.85156E-25
9.33013E-01 9.52880E-25
9.35178E-01 9.21265E-25
9.37310E-01 8.90305E-25
9.39409E-01 8.59992E-25
9.41474E-01 8.30320E-25
9.43505E-01 8.01282E-25
9.45503E-01 7.72873E-25
9.47467E-01 7.45086E-25
9.49397E-01 7.17914E-25
9.51293E-01 6.91353E-25
9.53154E-01 6.65396E-25
9.54981E-01 6.40038E-25
9.56773E-01 6.15273E-25
9.58530E-01 5.91096E-25
9.60252E-01 5.67502E-25
9.61940E-01 5.44486E-25
9.63592E-01 5.22044E-25
9.65209E-01 5.00169E-25
9.66790E-01 4.78859E-25
9.68336E-01 4.58108E-25
9.69846E-01 4.37912E-25
9.71321E-01 4.18267E-25
9.72759E-01 3.99169E-25
9.74162E-01 3.80613E-25
9.75528E-01 3.62597E-25
9.76858E-01 3.45116E-25
9.78152E-01 3.28167E-25
9.79410E-01 3.11745E-25
9.80631E-01 2.95849E-25
9.81815E-01 2.80475E-25
9.82963E-01 2.65619E-25
9.84074E-01 2.51279E-25
9.85148E-01 2.37451E-25
9.86185E-01 2.24133E-25
9.87185E-01 2.11322E-25
9.88148E-01 1.99016E-25
9.89074E-01 1.87211E-25
9.89962E-01 1.75907E-25
9.90814E-01 1.65100E-25
9.91627E-01 1.54788E-25
9.92404E-01 1.44969E-25
9.93143E-01 1.35642E-25
9.93844E-01 1.26804E-25
9.94508E-01 1.18453E-25
9.95134E-01 1.10589E-25
9.95722E-01 1.03209E-25
9.96273E-01 9.63117E-26
9.96786E-01 8.98961E-26
9.97261E-01 8.39609E-26
9.97698E-01 7.85048E-26
9.98097E-01 7.35267E-26
9.98459E-01 6.90257E-26
9.98782E-01 6.50008E-26
9.99067E-01 6.14513E-26
9.99315E-01 5.83766E-26
9.99524E-01 5.57758E-26
9.99695E-01 5.36487E-26
9.99829E-01 5.19946E-26
9.99924E-01 5.08134E-26
9.99981E-01 5.01048E-26
1.00000E+00 4.98686E-26
