 #
 # Subroutine ELSEPA. Elastic scattering of electrons and positrons
 #                    by neutral atoms and positive ions
 #
 # Projectile: electron
 # Kinetic energy = 1.75000E+08 eV = 6.43113E+06 a.u.
 #
 # WARNING: High-energy factorization with free-atom DF screening.
 #          Absorption, polarization and exchange corrections are
 #          switched off.
 #          Phase shifts are calculated for the bare nucleus.
 #          Scattering amplitudes are not evaluated.
 #
 # Element: Th,  Z =  90,  atomic weight = 2.32038E+02 g/mol
 #
 # Nuclear model: Fermi distribution
 #                Average radius = 6.57512E-13 cm
 #                Skin thickness = 5.46000E-14 cm
 #
 # Number of electrons = 90
 #
 # Total elastic cross section = 1.18690E-17 cm**2 = 4.23849E-01 a0**2
 # 1st transport cross section = 4.93065E-25 cm**2 = 1.76077E-08 a0**2
 # 2nd transport cross section = 1.47484E-24 cm**2 = 5.26675E-08 a0**2
 #
 #
 # Differential cross section:                       MU=(1-COS(THETA))/2
 #
 #  THETA        MU          DCS          DCS        Sherman      error
 #  (deg)                 (cm**2/sr)   (a0**2/sr)    function
 #----------------------------------------------------------------------
0.00000E+00 4.49825E-09
7.61557E-13 4.44320E-09
1.18994E-12 4.41274E-09
1.71346E-12 4.37597E-09
2.33225E-12 4.33314E-09
3.04617E-12 4.28457E-09
3.85530E-12 4.23058E-09
4.75964E-12 4.17153E-09
5.75917E-12 4.10781E-09
6.85391E-12 4.03981E-09
8.04379E-12 3.96799E-09
9.32893E-12 3.89273E-09
1.07092E-11 3.81442E-09
1.21847E-11 3.73354E-09
1.37554E-11 3.65055E-09
1.54213E-11 3.56573E-09
1.71823E-11 3.47954E-09
1.90386E-11 3.39249E-09
2.09900E-11 3.30472E-09
2.30367E-11 3.21660E-09
2.51785E-11 3.12873E-09
2.74156E-11 3.04105E-09
2.97478E-11 2.95383E-09
3.21752E-11 2.86776E-09
3.46979E-11 2.78260E-09
3.73157E-11 2.69854E-09
4.00286E-11 2.61618E-09
4.28368E-11 2.53530E-09
4.57402E-11 2.45594E-09
4.87388E-11 2.37862E-09
5.18325E-11 2.30314E-09
5.50215E-11 2.22946E-09
5.83057E-11 2.15794E-09
6.16850E-11 2.08849E-09
6.51595E-11 2.02096E-09
6.87293E-11 1.95558E-09
7.23943E-11 1.89236E-09
7.61544E-11 1.83107E-09
1.18991E-10 1.32493E-09
1.71347E-10 9.77510E-10
2.33223E-10 7.38478E-10
3.04617E-10 5.70239E-10
3.85531E-10 4.48508E-10
4.75965E-10 3.58192E-10
5.75917E-10 2.89743E-10
6.85389E-10 2.37076E-10
8.04380E-10 1.94987E-10
9.32891E-10 1.62074E-10
1.07092E-09 1.37000E-10
1.21847E-09 1.16681E-10
1.37554E-09 9.94439E-11
1.54213E-09 8.58259E-11
1.71823E-09 7.46439E-11
1.90386E-09 6.48323E-11
2.09900E-09 5.68556E-11
2.30367E-09 5.02314E-11
2.51785E-09 4.42507E-11
2.74156E-09 3.92782E-11
2.97478E-09 3.51098E-11
3.21752E-09 3.12799E-11
3.46978E-09 2.80342E-11
3.73156E-09 2.52681E-11
4.00286E-09 2.27451E-11
4.28368E-09 2.05540E-11
4.57402E-09 1.86609E-11
4.87388E-09 1.69437E-11
5.18326E-09 1.54242E-11
5.50215E-09 1.40958E-11
5.83057E-09 1.28938E-11
6.16850E-09 1.18145E-11
6.51596E-09 1.08613E-11
6.87293E-09 9.99866E-12
7.23942E-09 9.21446E-12
7.61544E-09 8.51581E-12
1.18991E-08 4.17628E-12
1.71347E-08 2.27568E-12
2.33223E-08 1.33703E-12
3.04617E-08 8.36938E-13
3.85531E-08 5.51204E-13
4.75965E-08 3.78180E-13
5.75917E-08 2.68429E-13
6.85389E-08 1.95855E-13
8.04380E-08 1.46134E-13
9.32891E-08 1.11407E-13
1.07092E-07 8.64454E-14
1.21847E-07 6.80735E-14
1.37554E-07 5.43664E-14
1.54213E-07 4.39626E-14
1.71823E-07 3.59447E-14
1.90386E-07 2.96795E-14
2.09900E-07 2.47129E-14
2.30367E-07 2.07449E-14
2.51785E-07 1.75424E-14
2.74156E-07 1.49341E-14
2.97478E-07 1.27922E-14
3.21752E-07 1.10170E-14
3.46978E-07 9.53915E-15
3.73156E-07 8.30082E-15
4.00286E-07 7.25689E-15
4.28368E-07 6.37185E-15
4.57402E-07 5.61699E-15
4.87388E-07 4.97080E-15
5.18325E-07 4.41508E-15
5.50215E-07 3.93505E-15
5.83057E-07 3.51861E-15
6.16850E-07 3.15572E-15
6.51596E-07 2.83858E-15
6.87293E-07 2.56042E-15
7.23942E-07 2.31560E-15
7.61543E-07 2.09945E-15
1.18991E-06 8.82844E-16
1.71347E-06 4.33369E-16
2.33223E-06 2.36765E-16
3.04617E-06 1.39983E-16
3.85531E-06 8.79551E-17
4.75964E-06 5.80018E-17
5.75916E-06 3.97825E-17
6.85388E-06 2.81893E-17
8.04378E-06 2.05293E-17
9.32888E-06 1.53043E-17
1.07092E-05 1.16414E-17
1.21846E-05 9.01204E-18
1.37553E-05 7.08510E-18
1.54212E-05 5.64690E-18
1.71822E-05 4.55589E-18
1.90385E-05 3.71358E-18
2.09899E-05 3.06174E-18
2.30365E-05 2.54630E-18
2.51783E-05 2.13418E-18
2.74153E-05 1.80162E-18
2.97475E-05 1.53113E-18
3.21749E-05 1.30955E-18
3.46974E-05 1.12678E-18
3.73152E-05 9.74963E-19
4.00281E-05 8.47986E-19
4.28362E-05 7.41073E-19
4.57395E-05 6.50486E-19
4.87380E-05 5.73297E-19
5.18317E-05 5.07194E-19
5.50205E-05 4.50329E-19
5.83045E-05 4.01208E-19
6.16838E-05 3.58611E-19
6.51582E-05 3.21532E-19
6.87277E-05 2.89133E-19
7.23925E-05 2.60721E-19
7.61524E-05 2.35855E-19
9.21439E-05 1.61431E-19
1.09658E-04 1.14209E-19
1.28695E-04 8.30834E-20
1.49255E-04 6.18922E-20
1.71338E-04 4.70591E-20
1.94942E-04 3.64255E-20
2.20070E-04 2.86403E-20
2.46720E-04 2.28339E-20
2.74892E-04 1.84321E-20
3.04586E-04 1.50450E-20
3.35803E-04 1.24045E-20
3.68542E-04 1.03208E-20
4.02802E-04 8.65872E-21
4.38585E-04 7.31965E-21
4.75889E-04 6.23082E-21
5.14715E-04 5.33817E-21
5.55063E-04 4.60052E-21
5.96931E-04 3.98667E-21
6.40321E-04 3.47239E-21
6.85233E-04 3.03884E-21
7.31665E-04 2.67128E-21
7.79618E-04 2.35793E-21
8.29092E-04 2.08949E-21
8.80086E-04 1.85846E-21
9.32601E-04 1.65867E-21
9.86636E-04 1.48499E-21
1.04219E-03 1.33355E-21
1.09927E-03 1.20102E-21
1.15786E-03 1.08462E-21
1.21797E-03 9.82038E-22
1.27961E-03 8.91341E-22
1.34276E-03 8.10908E-22
1.40743E-03 7.39370E-22
1.47362E-03 6.75566E-22
1.54133E-03 6.18510E-22
1.61056E-03 5.67359E-22
1.68131E-03 5.21392E-22
1.75357E-03 4.79987E-22
1.82735E-03 4.42610E-22
1.90265E-03 4.08797E-22
1.97947E-03 3.78145E-22
2.05780E-03 3.50307E-22
2.13765E-03 3.24975E-22
2.21902E-03 3.01883E-22
2.30190E-03 2.80796E-22
2.38630E-03 2.61509E-22
2.47222E-03 2.43839E-22
2.55965E-03 2.27625E-22
2.64859E-03 2.12726E-22
2.73905E-03 1.99016E-22
2.83103E-03 1.86381E-22
2.92452E-03 1.74722E-22
3.01952E-03 1.63950E-22
3.11604E-03 1.53985E-22
3.21407E-03 1.44755E-22
3.31362E-03 1.36196E-22
3.41468E-03 1.28250E-22
3.51725E-03 1.20866E-22
3.62133E-03 1.13996E-22
3.72692E-03 1.07597E-22
3.83403E-03 1.01632E-22
3.94265E-03 9.60665E-23
4.05278E-03 9.08678E-23
4.16442E-03 8.60077E-23
4.27757E-03 8.14601E-23
4.39223E-03 7.72013E-23
4.50840E-03 7.32097E-23
4.62608E-03 6.94653E-23
4.74527E-03 6.59502E-23
4.86597E-03 6.26477E-23
4.98817E-03 5.95428E-23
5.11188E-03 5.66214E-23
5.23711E-03 5.38708E-23
5.36383E-03 5.12791E-23
5.49207E-03 4.88357E-23
5.62181E-03 4.65305E-23
5.75306E-03 4.43543E-23
5.88581E-03 4.22986E-23
6.02007E-03 4.03556E-23
6.15583E-03 3.85180E-23
6.29310E-03 3.67791E-23
6.43187E-03 3.51327E-23
6.57214E-03 3.35730E-23
6.71392E-03 3.20947E-23
6.85720E-03 3.06928E-23
7.00198E-03 2.93626E-23
7.14827E-03 2.80999E-23
7.29605E-03 2.69007E-23
7.44534E-03 2.57612E-23
7.59612E-03 2.46780E-23
7.97965E-03 2.21953E-23
8.37255E-03 1.99996E-23
8.77480E-03 1.80526E-23
9.18641E-03 1.63221E-23
9.60736E-03 1.47804E-23
1.00376E-02 1.34039E-23
1.04773E-02 1.21725E-23
1.09262E-02 1.10687E-23
1.13844E-02 1.00774E-23
1.18520E-02 9.18559E-24
1.23288E-02 8.38198E-24
1.28150E-02 7.65668E-24
1.33104E-02 7.00107E-24
1.38150E-02 6.40761E-24
1.43290E-02 5.86966E-24
1.48521E-02 5.38141E-24
1.53845E-02 4.93771E-24
1.59262E-02 4.53402E-24
1.64770E-02 4.16632E-24
1.70371E-02 3.83105E-24
1.76063E-02 3.52502E-24
1.81848E-02 3.24542E-24
1.87724E-02 2.98972E-24
1.93692E-02 2.75568E-24
1.99751E-02 2.54129E-24
2.05901E-02 2.34472E-24
2.12143E-02 2.16437E-24
2.18476E-02 1.99877E-24
2.24900E-02 1.84661E-24
2.31415E-02 1.70670E-24
2.38021E-02 1.57799E-24
2.44717E-02 1.45949E-24
2.51504E-02 1.35035E-24
2.58382E-02 1.24976E-24
2.65349E-02 1.15700E-24
2.72407E-02 1.07143E-24
2.79555E-02 9.92443E-25
2.86793E-02 9.19509E-25
2.94120E-02 8.52134E-25
3.01537E-02 7.89867E-25
3.09043E-02 7.32301E-25
3.16639E-02 6.79061E-25
3.24324E-02 6.29805E-25
3.32098E-02 5.84221E-25
3.39961E-02 5.42021E-25
3.47912E-02 5.02944E-25
3.55952E-02 4.66749E-25
3.64081E-02 4.33215E-25
3.72297E-02 4.02139E-25
3.80602E-02 3.73334E-25
3.88995E-02 3.46629E-25
3.97476E-02 3.21866E-25
4.06044E-02 2.98900E-25
4.14700E-02 2.77597E-25
4.23443E-02 2.57833E-25
4.32273E-02 2.39496E-25
4.41190E-02 2.22479E-25
4.50194E-02 2.06686E-25
4.59284E-02 1.92027E-25
4.68461E-02 1.78420E-25
4.87074E-02 1.54060E-25
5.06030E-02 1.33061E-25
5.25328E-02 1.14956E-25
5.44967E-02 9.93435E-26
5.64946E-02 8.58794E-26
5.85262E-02 7.42680E-26
6.05914E-02 6.42545E-26
6.26901E-02 5.56195E-26
6.48222E-02 4.81738E-26
6.69873E-02 4.17543E-26
6.91854E-02 3.62201E-26
7.14163E-02 3.14496E-26
7.36799E-02 2.73377E-26
7.59760E-02 2.37937E-26
7.83043E-02 2.07392E-26
8.06647E-02 1.81065E-26
8.30571E-02 1.58369E-26
8.54812E-02 1.38799E-26
8.79369E-02 1.21918E-26
9.04240E-02 1.07350E-26
9.29422E-02 9.47683E-27
9.54915E-02 8.38934E-27
9.80716E-02 7.44832E-27
1.00682E-01 6.63296E-27
1.03323E-01 5.92533E-27
1.05995E-01 5.31005E-27
1.08696E-01 4.77387E-27
1.11427E-01 4.30547E-27
1.14188E-01 3.89511E-27
1.16978E-01 3.53447E-27
1.19797E-01 3.21644E-27
1.22645E-01 2.93495E-27
1.25522E-01 2.68482E-27
1.28428E-01 2.46163E-27
1.31361E-01 2.26165E-27
1.34323E-01 2.08169E-27
1.37313E-01 1.91905E-27
1.40330E-01 1.77144E-27
1.43375E-01 1.63693E-27
1.46447E-01 1.51388E-27
1.49545E-01 1.40092E-27
1.52671E-01 1.29686E-27
1.55823E-01 1.20074E-27
1.59001E-01 1.11170E-27
1.62205E-01 1.02905E-27
1.65435E-01 9.52176E-28
1.68690E-01 8.80577E-28
1.71970E-01 8.13813E-28
1.75276E-01 7.51506E-28
1.78606E-01 6.93331E-28
1.81961E-01 6.39004E-28
1.85340E-01 5.88274E-28
1.88743E-01 5.40918E-28
1.92169E-01 4.96737E-28
1.95619E-01 4.55549E-28
1.99092E-01 4.17187E-28
2.02589E-01 3.81497E-28
2.06107E-01 3.48335E-28
2.09649E-01 3.17564E-28
2.13212E-01 2.89056E-28
2.16797E-01 2.62687E-28
2.20404E-01 2.38338E-28
2.24032E-01 2.15896E-28
2.27680E-01 1.95251E-28
2.31350E-01 1.76297E-28
2.35040E-01 1.58931E-28
2.38751E-01 1.43054E-28
2.42481E-01 1.28570E-28
2.46231E-01 1.15387E-28
2.50000E-01 1.03417E-28
2.53788E-01 9.25739E-29
2.57595E-01 8.27757E-29
2.61421E-01 7.39442E-29
2.65264E-01 6.60047E-29
2.69126E-01 5.88860E-29
2.73005E-01 5.25206E-29
2.76901E-01 4.68444E-29
2.80814E-01 4.17971E-29
2.84744E-01 3.73220E-29
2.88691E-01 3.33656E-29
2.92653E-01 2.98782E-29
2.96632E-01 2.68132E-29
3.00625E-01 2.41274E-29
3.04634E-01 2.17807E-29
3.08658E-01 1.97361E-29
3.12697E-01 1.79596E-29
3.16749E-01 1.64200E-29
3.20816E-01 1.50887E-29
3.24896E-01 1.39397E-29
3.28990E-01 1.29494E-29
3.33097E-01 1.20966E-29
3.37216E-01 1.13621E-29
3.41348E-01 1.07288E-29
3.45492E-01 1.01813E-29
3.49647E-01 9.70603E-30
3.53814E-01 9.29112E-30
3.57992E-01 8.92604E-30
3.62181E-01 8.60164E-30
3.66381E-01 8.30999E-30
3.70590E-01 8.04432E-30
3.74810E-01 7.79882E-30
3.79039E-01 7.56864E-30
3.83277E-01 7.34971E-30
3.87524E-01 7.13871E-30
3.91780E-01 6.93295E-30
3.96044E-01 6.73031E-30
4.00316E-01 6.52917E-30
4.04596E-01 6.32834E-30
4.08882E-01 6.12698E-30
4.13176E-01 5.92459E-30
4.17476E-01 5.72091E-30
4.21783E-01 5.51592E-30
4.26095E-01 5.30977E-30
4.30413E-01 5.10274E-30
4.34737E-01 4.89524E-30
4.39065E-01 4.68774E-30
4.43398E-01 4.48079E-30
4.47736E-01 4.27496E-30
4.52077E-01 4.07084E-30
4.56422E-01 3.86902E-30
4.60770E-01 3.67009E-30
4.65122E-01 3.47460E-30
4.69476E-01 3.28309E-30
4.73832E-01 3.09604E-30
4.78190E-01 2.91390E-30
4.82550E-01 2.73708E-30
4.86912E-01 2.56592E-30
4.91274E-01 2.40074E-30
4.95637E-01 2.24178E-30
5.00000E-01 2.08924E-30
5.04363E-01 1.94329E-30
5.08726E-01 1.80403E-30
5.13088E-01 1.67152E-30
5.17450E-01 1.54578E-30
5.21810E-01 1.42680E-30
5.26168E-01 1.31451E-30
5.30524E-01 1.20883E-30
5.34878E-01 1.10965E-30
5.39230E-01 1.01681E-30
5.43578E-01 9.30151E-31
5.47923E-01 8.49481E-31
5.52264E-01 7.74597E-31
5.56602E-01 7.05277E-31
5.60935E-01 6.41290E-31
5.65263E-01 5.82397E-31
5.69587E-01 5.28349E-31
5.73905E-01 4.78898E-31
5.78217E-01 4.33790E-31
5.82524E-01 3.92771E-31
5.86824E-01 3.55592E-31
5.91118E-01 3.22004E-31
5.95404E-01 2.91764E-31
5.99684E-01 2.64633E-31
6.03956E-01 2.40382E-31
6.08220E-01 2.18787E-31
6.12476E-01 1.99633E-31
6.16723E-01 1.82714E-31
6.20961E-01 1.67834E-31
6.25190E-01 1.54805E-31
6.29410E-01 1.43452E-31
6.33619E-01 1.33607E-31
6.37819E-01 1.25114E-31
6.42008E-01 1.17826E-31
6.46186E-01 1.11608E-31
6.50353E-01 1.06331E-31
6.54508E-01 1.01880E-31
6.58652E-01 9.81453E-32
6.62784E-01 9.50295E-32
6.66903E-01 9.24418E-32
6.71010E-01 9.03002E-32
6.75104E-01 8.85306E-32
6.79184E-01 8.70664E-32
6.83251E-01 8.58479E-32
6.87303E-01 8.48220E-32
6.91342E-01 8.39418E-32
6.95366E-01 8.31664E-32
6.99375E-01 8.24600E-32
7.03368E-01 8.17917E-32
7.07347E-01 8.11354E-32
7.11309E-01 8.04691E-32
7.15256E-01 7.97744E-32
7.19186E-01 7.90366E-32
7.23099E-01 7.82439E-32
7.26995E-01 7.73874E-32
7.30874E-01 7.64608E-32
7.34736E-01 7.54599E-32
7.38579E-01 7.43822E-32
7.42405E-01 7.32273E-32
7.46212E-01 7.19959E-32
7.50000E-01 7.06903E-32
7.53769E-01 6.93135E-32
7.57519E-01 6.78695E-32
7.61249E-01 6.63631E-32
7.64960E-01 6.47996E-32
7.68650E-01 6.31846E-32
7.72320E-01 6.15241E-32
7.75968E-01 5.98243E-32
7.79596E-01 5.80914E-32
7.83203E-01 5.63319E-32
7.86788E-01 5.45518E-32
7.90351E-01 5.27574E-32
7.93893E-01 5.09545E-32
7.97411E-01 4.91489E-32
8.00908E-01 4.73461E-32
8.04381E-01 4.55513E-32
8.07831E-01 4.37693E-32
8.11257E-01 4.20047E-32
8.14660E-01 4.02617E-32
8.18039E-01 3.85443E-32
8.21394E-01 3.68559E-32
8.24724E-01 3.51999E-32
8.28030E-01 3.35790E-32
8.31310E-01 3.19957E-32
8.34565E-01 3.04524E-32
8.37795E-01 2.89508E-32
8.40999E-01 2.74925E-32
8.44177E-01 2.60790E-32
8.47329E-01 2.47111E-32
8.50455E-01 2.33897E-32
8.53553E-01 2.21153E-32
8.56625E-01 2.08882E-32
8.59670E-01 1.97085E-32
8.62687E-01 1.85762E-32
8.65677E-01 1.74908E-32
8.68639E-01 1.64520E-32
8.71572E-01 1.54593E-32
8.74478E-01 1.45118E-32
8.77355E-01 1.36089E-32
8.80203E-01 1.27494E-32
8.83022E-01 1.19325E-32
8.85812E-01 1.11570E-32
8.88573E-01 1.04218E-32
8.91304E-01 9.72567E-33
8.94005E-01 9.06730E-33
8.96677E-01 8.44544E-33
8.99318E-01 7.85877E-33
9.01928E-01 7.30595E-33
9.04508E-01 6.78565E-33
9.07058E-01 6.29652E-33
9.09576E-01 5.83723E-33
9.12063E-01 5.40645E-33
9.14519E-01 5.00285E-33
9.16943E-01 4.62516E-33
9.19335E-01 4.27210E-33
9.21696E-01 3.94243E-33
9.24024E-01 3.63493E-33
9.26320E-01 3.34843E-33
9.28584E-01 3.08178E-33
9.30815E-01 2.83387E-33
9.33013E-01 2.60362E-33
9.35178E-01 2.39001E-33
9.37310E-01 2.19204E-33
9.39409E-01 2.00875E-33
9.41474E-01 1.83924E-33
9.43505E-01 1.68263E-33
9.45503E-01 1.53809E-33
9.47467E-01 1.40481E-33
9.49397E-01 1.28205E-33
9.51293E-01 1.16909E-33
9.53154E-01 1.06524E-33
9.54981E-01 9.69874E-34
9.56773E-01 8.82371E-34
9.58530E-01 8.02162E-34
9.60252E-01 7.28707E-34
9.61940E-01 6.61499E-34
9.63592E-01 6.00060E-34
9.65209E-01 5.43945E-34
9.66790E-01 4.92735E-34
9.68336E-01 4.46040E-34
9.69846E-01 4.03495E-34
9.71321E-01 3.64760E-34
9.72759E-01 3.29521E-34
9.74162E-01 2.97481E-34
9.75528E-01 2.68371E-34
9.76858E-01 2.41938E-34
9.78152E-01 2.17947E-34
9.79410E-01 1.96186E-34
9.80631E-01 1.76454E-34
9.81815E-01 1.58570E-34
9.82963E-01 1.42366E-34
9.84074E-01 1.27687E-34
9.85148E-01 1.14394E-34
9.86185E-01 1.02358E-34
9.87185E-01 9.14612E-35
9.88148E-01 8.15968E-35
9.89074E-01 7.26679E-35
9.89962E-01 6.45859E-35
9.90814E-01 5.72708E-35
9.91627E-01 5.06516E-35
9.92404E-01 4.46622E-35
9.93143E-01 3.92443E-35
9.93844E-01 3.43457E-35
9.94508E-01 2.99193E-35
9.95134E-01 2.59224E-35
9.95722E-01 2.23183E-35
9.96273E-01 1.90739E-35
9.96786E-01 1.61591E-35
9.97261E-01 1.35481E-35
9.97698E-01 1.12184E-35
9.98097E-01 9.14945E-36
9.98459E-01 7.32435E-36
9.98782E-01 5.72786E-36
9.99067E-01 4.34704E-36
9.99315E-01 3.17111E-36
9.99524E-01 2.19066E-36
9.99695E-01 1.39834E-36
9.99829E-01 7.88296E-37
9.99924E-01 3.55500E-37
9.99981E-01 9.72478E-38
1.00000E+00 1.13069E-38
