 #
 # Subroutine ELSEPA. Elastic scattering of electrons and positrons
 #                    by neutral atoms and positive ions
 #
 # Projectile: electron
 # Kinetic energy = 5.00000E+08 eV = 1.83747E+07 a.u.
 #
 # WARNING: High-energy factorization with free-atom DF screening.
 #          Absorption, polarization and exchange corrections are
 #          switched off.
 #          Phase shifts are calculated for the bare nucleus.
 #          Scattering amplitudes are not evaluated.
 #
 # Element: Th,  Z =  90,  atomic weight = 2.32038E+02 g/mol
 #
 # Nuclear model: Fermi distribution
 #                Average radius = 6.57512E-13 cm
 #                Skin thickness = 5.46000E-14 cm
 #
 # Number of electrons = 90
 #
 # Total elastic cross section = 1.18525E-17 cm**2 = 4.23259E-01 a0**2
 # 1st transport cross section = 6.01612E-26 cm**2 = 2.14840E-09 a0**2
 # 2nd transport cross section = 1.80414E-25 cm**2 = 6.44269E-09 a0**2
 #
 #
 # Differential cross section:                       MU=(1-COS(THETA))/2
 #
 #  THETA        MU          DCS          DCS        Sherman      error
 #  (deg)                 (cm**2/sr)   (a0**2/sr)    function
 #----------------------------------------------------------------------
0.00000E+00 3.65816E-08
7.61557E-13 3.31852E-08
1.18994E-12 3.14945E-08
1.71346E-12 2.96121E-08
2.33225E-12 2.76158E-08
3.04617E-12 2.55769E-08
3.85530E-12 2.35550E-08
4.75964E-12 2.15974E-08
5.75917E-12 1.97382E-08
6.85391E-12 1.80004E-08
8.04379E-12 1.63959E-08
9.32893E-12 1.49280E-08
1.07092E-11 1.35950E-08
1.21847E-11 1.23909E-08
1.37554E-11 1.13071E-08
1.54213E-11 1.03340E-08
1.71823E-11 9.46111E-09
1.90386E-11 8.67828E-09
2.09900E-11 7.97584E-09
2.30367E-11 7.34478E-09
2.51785E-11 6.77685E-09
2.74156E-11 6.26451E-09
2.97478E-11 5.80146E-09
3.21752E-11 5.38204E-09
3.46979E-11 5.00127E-09
3.73157E-11 4.65482E-09
4.00286E-11 4.33887E-09
4.28368E-11 4.05013E-09
4.57402E-11 3.78571E-09
4.87388E-11 3.54307E-09
5.18325E-11 3.32001E-09
5.50215E-11 3.11459E-09
5.83057E-11 2.92486E-09
6.16850E-11 2.74956E-09
6.51595E-11 2.58741E-09
6.87293E-11 2.43722E-09
7.23943E-11 2.29793E-09
7.61544E-11 2.16861E-09
1.18991E-10 1.25999E-09
1.71347E-10 7.95175E-10
2.33223E-10 5.29948E-10
3.04617E-10 3.68224E-10
3.85531E-10 2.64212E-10
4.75965E-10 1.94572E-10
5.75917E-10 1.46508E-10
6.85389E-10 1.12426E-10
8.04380E-10 8.77968E-11
9.32891E-10 6.96577E-11
1.07092E-09 5.60322E-11
1.21847E-09 4.56126E-11
1.37554E-09 3.75168E-11
1.54213E-09 3.11384E-11
1.71823E-09 2.60523E-11
1.90386E-09 2.19544E-11
2.09900E-09 1.86250E-11
2.30367E-09 1.59039E-11
2.51785E-09 1.36395E-11
2.74156E-09 1.17621E-11
2.97478E-09 1.01994E-11
3.21752E-09 8.89049E-12
3.46978E-09 7.78712E-12
3.73156E-09 6.85116E-12
4.00286E-09 6.05253E-12
4.28368E-09 5.36746E-12
4.57402E-09 4.77703E-12
4.87388E-09 4.26603E-12
5.18326E-09 3.82208E-12
5.50215E-09 3.43496E-12
5.83057E-09 3.09598E-12
6.16850E-09 2.79825E-12
6.51596E-09 2.53580E-12
6.87293E-09 2.30362E-12
7.23942E-09 2.09754E-12
7.61544E-09 1.91404E-12
1.18991E-08 8.46643E-13
1.71347E-08 4.31555E-13
2.33223E-08 2.43011E-13
3.04617E-08 1.47074E-13
3.85531E-08 9.40871E-14
4.75965E-08 6.29146E-14
5.75917E-08 4.36307E-14
6.85389E-08 3.11980E-14
8.04380E-08 2.28999E-14
9.32891E-08 1.71906E-14
1.07092E-07 1.31570E-14
1.21847E-07 1.02415E-14
1.37554E-07 8.09140E-15
1.54213E-07 6.47724E-15
1.71823E-07 5.24601E-15
1.90386E-07 4.29377E-15
2.09900E-07 3.54794E-15
2.30367E-07 2.95701E-15
2.51785E-07 2.48398E-15
2.74156E-07 2.10176E-15
2.97478E-07 1.79022E-15
3.21752E-07 1.53424E-15
3.46978E-07 1.32237E-15
3.73156E-07 1.14582E-15
4.00286E-07 9.97739E-16
4.28368E-07 8.72811E-16
4.57402E-07 7.66830E-16
4.87388E-07 6.76452E-16
5.18325E-07 5.98999E-16
5.50215E-07 5.32319E-16
5.83057E-07 4.74666E-16
6.16850E-07 4.24610E-16
6.51596E-07 3.80982E-16
6.87293E-07 3.42818E-16
7.23942E-07 3.09317E-16
7.61543E-07 2.79810E-16
1.18991E-06 1.15548E-16
1.71347E-06 5.60417E-17
2.33223E-06 3.03764E-17
3.04617E-06 1.78622E-17
3.85531E-06 1.11784E-17
4.75964E-06 7.34829E-18
5.75916E-06 5.02676E-18
6.85388E-06 3.55376E-18
8.04378E-06 2.58287E-18
9.32888E-06 1.92201E-18
1.07092E-05 1.45962E-18
1.21846E-05 1.12829E-18
1.37553E-05 8.85862E-19
1.54212E-05 7.05187E-19
1.71822E-05 5.68317E-19
1.90385E-05 4.62782E-19
2.09899E-05 3.81202E-19
2.30365E-05 3.16765E-19
2.51783E-05 2.65294E-19
2.74153E-05 2.23797E-19
2.97475E-05 1.90076E-19
3.21749E-05 1.62474E-19
3.46974E-05 1.39722E-19
3.73152E-05 1.20836E-19
4.00281E-05 1.05050E-19
4.28362E-05 9.17668E-20
4.57395E-05 8.05180E-20
4.87380E-05 7.09379E-20
5.18317E-05 6.27373E-20
5.50205E-05 5.56859E-20
5.83045E-05 4.95973E-20
6.16838E-05 4.43195E-20
6.51582E-05 3.97270E-20
6.87277E-05 3.57156E-20
7.23925E-05 3.21989E-20
7.61524E-05 2.96259E-20
9.21439E-05 2.03191E-20
1.09658E-04 1.44059E-20
1.28695E-04 1.04987E-20
1.49255E-04 7.83243E-21
1.71338E-04 5.96215E-21
1.94942E-04 4.61846E-21
2.20070E-04 3.63258E-21
2.46720E-04 2.89576E-21
2.74892E-04 2.33607E-21
3.04586E-04 1.90461E-21
3.35803E-04 1.56771E-21
3.68542E-04 1.30146E-21
4.02802E-04 1.08883E-21
4.38585E-04 9.17360E-22
4.75889E-04 7.77839E-22
5.14715E-04 6.63410E-22
5.55063E-04 5.68843E-22
5.96931E-04 4.90164E-22
6.40321E-04 4.24284E-22
6.85233E-04 3.68796E-22
7.31665E-04 3.21809E-22
7.79618E-04 2.81815E-22
8.29092E-04 2.47616E-22
8.80086E-04 2.18242E-22
9.32601E-04 1.92908E-22
9.86636E-04 1.70975E-22
1.04219E-03 1.51917E-22
1.09927E-03 1.35302E-22
1.15786E-03 1.20770E-22
1.21797E-03 1.08022E-22
1.27961E-03 9.68074E-23
1.34276E-03 8.69151E-23
1.40743E-03 7.81678E-23
1.47362E-03 7.04141E-23
1.54133E-03 6.35260E-23
1.61056E-03 5.73937E-23
1.68131E-03 5.19234E-23
1.75357E-03 4.70342E-23
1.82735E-03 4.26565E-23
1.90265E-03 3.87302E-23
1.97947E-03 3.52029E-23
2.05780E-03 3.20292E-23
2.13765E-03 2.91694E-23
2.21902E-03 2.65889E-23
2.30190E-03 2.42574E-23
2.38630E-03 2.21481E-23
2.47222E-03 2.02376E-23
2.55965E-03 1.85052E-23
2.64859E-03 1.69326E-23
2.73905E-03 1.55035E-23
2.83103E-03 1.42037E-23
2.92452E-03 1.30202E-23
3.01952E-03 1.19418E-23
3.11604E-03 1.09583E-23
3.21407E-03 1.00606E-23
3.31362E-03 9.24058E-24
3.41468E-03 8.49101E-24
3.51725E-03 7.80536E-24
3.62133E-03 7.17777E-24
3.72692E-03 6.60297E-24
3.83403E-03 6.07620E-24
3.94265E-03 5.59320E-24
4.05278E-03 5.15007E-24
4.16442E-03 4.74335E-24
4.27757E-03 4.36985E-24
4.39223E-03 4.02671E-24
4.50840E-03 3.71133E-24
4.62608E-03 3.42136E-24
4.74527E-03 3.15464E-24
4.86597E-03 2.90923E-24
4.98817E-03 2.68335E-24
5.11188E-03 2.47538E-24
5.23711E-03 2.28386E-24
5.36383E-03 2.10742E-24
5.49207E-03 1.94485E-24
5.62181E-03 1.79502E-24
5.75306E-03 1.65690E-24
5.88581E-03 1.52955E-24
6.02007E-03 1.41212E-24
6.15583E-03 1.30381E-24
6.29310E-03 1.20390E-24
6.43187E-03 1.11173E-24
6.57214E-03 1.02668E-24
6.71392E-03 9.48202E-25
6.85720E-03 8.75779E-25
7.00198E-03 8.08939E-25
7.14827E-03 7.47247E-25
7.29605E-03 6.90304E-25
7.44534E-03 6.37742E-25
7.59612E-03 5.89222E-25
7.97965E-03 4.83621E-25
8.37255E-03 3.97159E-25
8.77480E-03 3.26374E-25
9.18641E-03 2.68432E-25
9.60736E-03 2.21014E-25
1.00376E-02 1.82218E-25
1.04773E-02 1.50486E-25
1.09262E-02 1.24535E-25
1.13844E-02 1.03314E-25
1.18520E-02 8.59618E-26
1.23288E-02 7.17679E-26
1.28150E-02 6.01514E-26
1.33104E-02 5.06356E-26
1.38150E-02 4.28299E-26
1.43290E-02 3.64149E-26
1.48521E-02 3.11295E-26
1.53845E-02 2.67609E-26
1.59262E-02 2.31358E-26
1.64770E-02 2.01134E-26
1.70371E-02 1.75795E-26
1.76063E-02 1.54419E-26
1.81848E-02 1.36262E-26
1.87724E-02 1.20724E-26
1.93692E-02 1.07325E-26
1.99751E-02 9.56810E-27
2.05901E-02 8.54848E-27
2.12143E-02 7.64919E-27
2.18476E-02 6.85078E-27
2.24900E-02 6.13778E-27
2.31415E-02 5.49789E-27
2.38021E-02 4.92129E-27
2.44717E-02 4.40015E-27
2.51504E-02 3.92812E-27
2.58382E-02 3.50006E-27
2.65349E-02 3.11171E-27
2.72407E-02 2.75954E-27
2.79555E-02 2.44048E-27
2.86793E-02 2.15192E-27
2.94120E-02 1.89151E-27
3.01537E-02 1.65711E-27
3.09043E-02 1.44678E-27
3.16639E-02 1.25871E-27
3.24324E-02 1.09116E-27
3.32098E-02 9.42518E-28
3.39961E-02 8.11221E-28
3.47912E-02 6.95788E-28
3.55952E-02 5.94802E-28
3.64081E-02 5.06912E-28
3.72297E-02 4.30837E-28
3.80602E-02 3.65364E-28
3.88995E-02 3.09352E-28
3.97476E-02 2.61731E-28
4.06044E-02 2.21506E-28
4.14700E-02 1.87757E-28
4.23443E-02 1.59637E-28
4.32273E-02 1.36373E-28
4.41190E-02 1.17263E-28
4.50194E-02 1.01677E-28
4.59284E-02 8.90507E-29
4.68461E-02 7.88833E-29
4.87074E-02 6.42244E-29
5.06030E-02 5.48390E-29
5.25328E-02 4.86391E-29
5.44967E-02 4.41743E-29
5.64946E-02 4.05011E-29
5.85262E-02 3.70618E-29
6.05914E-02 3.35784E-29
6.26901E-02 2.99634E-29
6.48222E-02 2.62476E-29
6.69873E-02 2.25248E-29
6.91854E-02 1.89118E-29
7.14163E-02 1.55208E-29
7.36799E-02 1.24435E-29
7.59760E-02 9.74291E-30
7.83043E-02 7.45125E-30
8.06647E-02 5.57253E-30
8.30571E-02 4.08724E-30
8.54812E-02 2.95836E-30
8.79369E-02 2.13763E-30
9.04240E-02 1.57129E-30
9.29422E-02 1.20496E-30
9.54915E-02 9.87419E-31
9.80716E-02 8.73231E-31
1.00682E-01 8.24276E-31
1.03323E-01 8.10380E-31
1.05995E-01 8.09195E-31
1.08696E-01 8.05531E-31
1.11427E-01 7.90347E-31
1.14188E-01 7.59554E-31
1.16978E-01 7.12781E-31
1.19797E-01 6.52206E-31
1.22645E-01 5.81514E-31
1.25522E-01 5.05049E-31
1.28428E-01 4.27154E-31
1.31361E-01 3.51705E-31
1.34323E-01 2.81826E-31
1.37313E-01 2.19755E-31
1.40330E-01 1.66829E-31
1.43375E-01 1.23553E-31
1.46447E-01 8.97333E-32
1.49545E-01 6.46353E-32
1.52671E-01 4.71535E-32
1.55823E-01 3.59707E-32
1.59001E-01 2.96994E-32
1.62205E-01 2.69947E-32
1.65435E-01 2.66392E-32
1.68690E-01 2.75975E-32
1.71970E-01 2.90446E-32
1.75276E-01 3.03721E-32
1.78606E-01 3.11763E-32
1.81961E-01 3.12346E-32
1.85340E-01 3.04732E-32
1.88743E-01 2.89330E-32
1.92169E-01 2.67341E-32
1.95619E-01 2.40441E-32
1.99092E-01 2.10503E-32
2.02589E-01 1.79381E-32
2.06107E-01 1.48738E-32
2.09649E-01 1.19952E-32
2.13212E-01 9.40488E-33
2.16797E-01 7.16964E-33
2.20404E-01 5.32208E-33
2.24032E-01 3.86503E-33
2.27680E-01 2.77719E-33
2.31350E-01 2.01948E-33
2.35040E-01 1.54141E-33
2.38751E-01 1.28683E-33
2.42481E-01 1.19898E-33
2.46231E-01 1.22440E-33
2.50000E-01 1.31577E-33
2.53788E-01 1.43376E-33
2.57595E-01 1.54783E-33
2.61421E-01 1.63628E-33
2.65264E-01 1.68565E-33
2.69126E-01 1.68969E-33
2.73005E-01 1.64806E-33
2.76901E-01 1.56490E-33
2.80814E-01 1.44740E-33
2.84744E-01 1.30455E-33
2.88691E-01 1.14597E-33
2.92653E-01 9.80989E-34
2.96632E-01 8.18010E-34
3.00625E-01 6.64019E-34
3.04634E-01 5.24349E-34
3.08658E-01 4.02609E-34
3.12697E-01 3.00757E-34
3.16749E-01 2.19274E-34
3.20816E-01 1.57412E-34
3.24896E-01 1.13477E-34
3.28990E-01 8.51141E-35
3.33097E-01 6.95852E-35
3.37216E-01 6.40144E-35
3.41348E-01 6.55921E-35
3.45492E-01 7.17331E-35
3.49647E-01 8.01888E-35
3.53814E-01 8.91136E-35
3.57992E-01 9.70923E-35
3.62181E-01 1.03135E-34
3.66381E-01 1.06645E-34
3.70590E-01 1.07369E-34
3.74810E-01 1.05340E-34
3.79039E-01 1.00803E-34
3.83277E-01 9.41608E-35
3.87524E-01 8.59041E-35
3.91780E-01 7.65622E-35
3.96044E-01 6.66576E-35
4.00316E-01 5.66713E-35
4.04596E-01 4.70189E-35
4.08882E-01 3.80352E-35
4.13176E-01 2.99677E-35
4.17476E-01 2.29772E-35
4.21783E-01 1.71435E-35
4.26095E-01 1.24749E-35
4.30413E-01 8.92091E-36
4.34737E-01 6.38566E-36
4.39065E-01 4.74127E-36
4.43398E-01 3.84087E-36
4.47736E-01 3.53017E-36
4.52077E-01 3.65701E-36
4.56422E-01 4.07915E-36
4.60770E-01 4.66990E-36
4.65122E-01 5.32181E-36
4.69476E-01 5.94848E-36
4.73832E-01 6.48501E-36
4.78190E-01 6.88703E-36
4.82550E-01 7.12892E-36
4.86912E-01 7.20122E-36
4.91274E-01 7.10785E-36
4.95637E-01 6.86311E-36
5.00000E-01 6.48854E-36
5.04363E-01 6.01035E-36
5.08726E-01 5.45688E-36
5.13088E-01 4.85657E-36
5.17450E-01 4.23625E-36
5.21810E-01 3.61997E-36
5.26168E-01 3.02816E-36
5.30524E-01 2.47718E-36
5.34878E-01 1.97914E-36
5.39230E-01 1.54200E-36
5.43578E-01 1.16995E-36
5.47923E-01 8.63780E-37
5.52264E-01 6.21468E-37
5.56602E-01 4.38734E-37
5.60935E-01 3.09635E-37
5.65263E-01 2.27138E-37
5.69587E-01 1.83610E-37
5.73905E-01 1.71275E-37
5.78217E-01 1.82574E-37
5.82524E-01 2.10466E-37
5.86824E-01 2.48626E-37
5.91118E-01 2.91596E-37
5.95404E-01 3.34846E-37
5.99684E-01 3.74801E-37
6.03956E-01 4.08821E-37
6.08220E-01 4.35107E-37
6.12476E-01 4.52632E-37
6.16723E-01 4.61045E-37
6.20961E-01 4.60531E-37
6.25190E-01 4.51696E-37
6.29410E-01 4.35470E-37
6.33619E-01 4.13003E-37
6.37819E-01 3.85555E-37
6.42008E-01 3.54410E-37
6.46186E-01 3.20861E-37
6.50353E-01 2.86093E-37
6.54508E-01 2.51184E-37
6.58652E-01 2.17065E-37
6.62784E-01 1.84517E-37
6.66903E-01 1.54150E-37
6.71010E-01 1.26421E-37
6.75104E-01 1.01627E-37
6.79184E-01 1.00000E-45
6.83251E-01 1.00000E-45
6.87303E-01 1.00000E-45
6.91342E-01 1.00000E-45
6.95366E-01 1.00000E-45
6.99375E-01 1.00000E-45
7.03368E-01 1.00000E-45
7.07347E-01 1.00000E-45
7.11309E-01 1.00000E-45
7.15256E-01 1.00000E-45
7.19186E-01 1.00000E-45
7.23099E-01 1.00000E-45
7.26995E-01 1.00000E-45
7.30874E-01 1.00000E-45
7.34736E-01 1.00000E-45
7.38579E-01 1.00000E-45
7.42405E-01 1.00000E-45
7.46212E-01 1.00000E-45
7.50000E-01 1.00000E-45
7.53769E-01 1.00000E-45
7.57519E-01 1.00000E-45
7.61249E-01 1.00000E-45
7.64960E-01 1.00000E-45
7.68650E-01 1.00000E-45
7.72320E-01 1.00000E-45
7.75968E-01 1.00000E-45
7.79596E-01 1.00000E-45
7.83203E-01 1.00000E-45
7.86788E-01 1.00000E-45
7.90351E-01 1.00000E-45
7.93893E-01 1.00000E-45
7.97411E-01 1.00000E-45
8.00908E-01 1.00000E-45
8.04381E-01 1.00000E-45
8.07831E-01 1.00000E-45
8.11257E-01 1.00000E-45
8.14660E-01 1.00000E-45
8.18039E-01 1.00000E-45
8.21394E-01 1.00000E-45
8.24724E-01 1.00000E-45
8.28030E-01 1.00000E-45
8.31310E-01 1.00000E-45
8.34565E-01 1.00000E-45
8.37795E-01 1.00000E-45
8.40999E-01 1.00000E-45
8.44177E-01 1.00000E-45
8.47329E-01 1.00000E-45
8.50455E-01 1.00000E-45
8.53553E-01 1.00000E-45
8.56625E-01 1.00000E-45
8.59670E-01 1.00000E-45
8.62687E-01 1.00000E-45
8.65677E-01 1.00000E-45
8.68639E-01 1.00000E-45
8.71572E-01 1.00000E-45
8.74478E-01 1.00000E-45
8.77355E-01 1.00000E-45
8.80203E-01 1.00000E-45
8.83022E-01 1.00000E-45
8.85812E-01 1.00000E-45
8.88573E-01 1.00000E-45
8.91304E-01 1.00000E-45
8.94005E-01 1.00000E-45
8.96677E-01 1.00000E-45
8.99318E-01 1.00000E-45
9.01928E-01 1.00000E-45
9.04508E-01 1.00000E-45
9.07058E-01 1.00000E-45
9.09576E-01 1.00000E-45
9.12063E-01 1.00000E-45
9.14519E-01 1.00000E-45
9.16943E-01 1.00000E-45
9.19335E-01 1.00000E-45
9.21696E-01 1.00000E-45
9.24024E-01 1.00000E-45
9.26320E-01 1.00000E-45
9.28584E-01 1.00000E-45
9.30815E-01 1.00000E-45
9.33013E-01 1.00000E-45
9.35178E-01 1.00000E-45
9.37310E-01 1.00000E-45
9.39409E-01 1.00000E-45
9.41474E-01 1.00000E-45
9.43505E-01 1.00000E-45
9.45503E-01 1.00000E-45
9.47467E-01 1.00000E-45
9.49397E-01 1.00000E-45
9.51293E-01 1.00000E-45
9.53154E-01 1.00000E-45
9.54981E-01 1.00000E-45
9.56773E-01 1.00000E-45
9.58530E-01 1.00000E-45
9.60252E-01 1.00000E-45
9.61940E-01 1.00000E-45
9.63592E-01 1.00000E-45
9.65209E-01 1.00000E-45
9.66790E-01 1.00000E-45
9.68336E-01 1.00000E-45
9.69846E-01 1.00000E-45
9.71321E-01 1.00000E-45
9.72759E-01 1.00000E-45
9.74162E-01 1.00000E-45
9.75528E-01 1.00000E-45
9.76858E-01 1.00000E-45
9.78152E-01 1.00000E-45
9.79410E-01 1.00000E-45
9.80631E-01 1.00000E-45
9.81815E-01 1.00000E-45
9.82963E-01 1.00000E-45
9.84074E-01 1.00000E-45
9.85148E-01 1.00000E-45
9.86185E-01 1.00000E-45
9.87185E-01 1.00000E-45
9.88148E-01 1.00000E-45
9.89074E-01 1.00000E-45
9.89962E-01 1.00000E-45
9.90814E-01 1.00000E-45
9.91627E-01 1.00000E-45
9.92404E-01 1.00000E-45
9.93143E-01 1.00000E-45
9.93844E-01 1.00000E-45
9.94508E-01 1.00000E-45
9.95134E-01 1.00000E-45
9.95722E-01 1.00000E-45
9.96273E-01 1.00000E-45
9.96786E-01 1.00000E-45
9.97261E-01 1.00000E-45
9.97698E-01 1.00000E-45
9.98097E-01 1.00000E-45
9.98459E-01 1.00000E-45
9.98782E-01 1.00000E-45
9.99067E-01 1.00000E-45
9.99315E-01 1.00000E-45
9.99524E-01 1.00000E-45
9.99695E-01 1.00000E-45
9.99829E-01 1.00000E-45
9.99924E-01 1.00000E-45
9.99981E-01 1.00000E-45
1.00000E+00 1.00000E-45
