 #
 # Subroutine ELSEPA. Elastic scattering of electrons and positrons
 #                    by neutral atoms and positive ions
 #
 # Projectile: electron
 # Kinetic energy = 3.00000E+07 eV = 1.10248E+06 a.u.
 #
 # WARNING: High-energy factorization with free-atom DF screening.
 #          Absorption, polarization and exchange corrections are
 #          switched off.
 #          Phase shifts are calculated for the bare nucleus.
 #          Scattering amplitudes are not evaluated.
 #
 # Element: Th,  Z =  90,  atomic weight = 2.32038E+02 g/mol
 #
 # Nuclear model: Fermi distribution
 #                Average radius = 6.57512E-13 cm
 #                Skin thickness = 5.46000E-14 cm
 #
 # Number of electrons = 90
 #
 # Total elastic cross section = 1.18775E-17 cm**2 = 4.24155E-01 a0**2
 # 1st transport cross section = 1.65414E-23 cm**2 = 5.90704E-07 a0**2
 # 2nd transport cross section = 4.73173E-23 cm**2 = 1.68973E-06 a0**2
 #
 #
 # Differential cross section:                       MU=(1-COS(THETA))/2
 #
 #  THETA        MU          DCS          DCS        Sherman      error
 #  (deg)                 (cm**2/sr)   (a0**2/sr)    function
 #----------------------------------------------------------------------
0.00000E+00 1.35940E-10
7.61557E-13 1.35889E-10
1.18994E-12 1.35860E-10
1.71346E-12 1.35826E-10
2.33225E-12 1.35784E-10
3.04617E-12 1.35737E-10
3.85530E-12 1.35683E-10
4.75964E-12 1.35623E-10
5.75917E-12 1.35557E-10
6.85391E-12 1.35484E-10
8.04379E-12 1.35405E-10
9.32893E-12 1.35320E-10
1.07092E-11 1.35229E-10
1.21847E-11 1.35132E-10
1.37554E-11 1.35028E-10
1.54213E-11 1.34918E-10
1.71823E-11 1.34803E-10
1.90386E-11 1.34681E-10
2.09900E-11 1.34553E-10
2.30367E-11 1.34419E-10
2.51785E-11 1.34279E-10
2.74156E-11 1.34133E-10
2.97478E-11 1.33981E-10
3.21752E-11 1.33823E-10
3.46979E-11 1.33660E-10
3.73157E-11 1.33490E-10
4.00286E-11 1.33315E-10
4.28368E-11 1.33134E-10
4.57402E-11 1.32947E-10
4.87388E-11 1.32755E-10
5.18325E-11 1.32557E-10
5.50215E-11 1.32353E-10
5.83057E-11 1.32144E-10
6.16850E-11 1.31929E-10
6.51595E-11 1.31709E-10
6.87293E-11 1.31484E-10
7.23943E-11 1.31253E-10
7.61544E-11 1.31017E-10
1.18991E-10 1.28373E-10
1.71347E-10 1.25258E-10
2.33223E-10 1.21732E-10
3.04617E-10 1.17862E-10
3.85531E-10 1.13710E-10
4.75965E-10 1.09351E-10
5.75917E-10 1.04842E-10
6.85389E-10 1.00250E-10
8.04380E-10 9.56260E-11
9.32891E-10 9.10212E-11
1.07092E-09 8.64799E-11
1.21847E-09 8.20317E-11
1.37554E-09 7.77174E-11
1.54213E-09 7.35432E-11
1.71823E-09 6.95475E-11
1.90386E-09 6.57211E-11
2.09900E-09 6.20866E-11
2.30367E-09 5.86374E-11
2.51785E-09 5.53783E-11
2.74156E-09 5.23066E-11
2.97478E-09 4.94139E-11
3.21752E-09 4.67012E-11
3.46978E-09 4.41518E-11
3.73156E-09 4.17682E-11
4.00286E-09 3.95325E-11
4.28368E-09 3.74420E-11
4.57402E-09 3.54846E-11
4.87388E-09 3.36535E-11
5.18326E-09 3.19394E-11
5.50215E-09 3.03351E-11
5.83057E-09 2.88316E-11
6.16850E-09 2.74242E-11
6.51596E-09 2.61024E-11
6.87293E-09 2.48637E-11
7.23942E-09 2.36992E-11
7.61544E-09 2.26054E-11
1.18991E-08 1.45744E-11
1.71347E-08 9.86869E-12
2.33223E-08 6.93678E-12
3.04617E-08 4.98129E-12
3.85531E-08 3.74569E-12
4.75965E-08 2.83737E-12
5.75917E-08 2.21717E-12
6.85389E-08 1.74987E-12
8.04380E-08 1.40646E-12
9.32891E-08 1.14268E-12
1.07092E-07 9.37838E-13
1.21847E-07 7.78642E-13
1.37554E-07 6.49976E-13
1.54213E-07 5.49042E-13
1.71823E-07 4.65182E-13
1.90386E-07 3.98122E-13
2.09900E-07 3.42261E-13
2.30367E-07 2.96326E-13
2.51785E-07 2.57883E-13
2.74156E-07 2.25512E-13
2.97478E-07 1.98277E-13
3.21752E-07 1.74860E-13
3.46978E-07 1.55054E-13
3.73156E-07 1.37734E-13
4.00286E-07 1.22925E-13
4.28368E-07 1.09949E-13
4.57402E-07 9.86764E-14
4.87388E-07 8.87865E-14
5.18325E-07 8.00794E-14
5.50215E-07 7.24333E-14
5.83057E-07 6.56458E-14
6.16850E-07 5.96780E-14
6.51596E-07 5.42741E-14
6.87293E-07 4.94969E-14
7.23942E-07 4.52172E-14
7.61543E-07 4.14015E-14
1.18991E-06 1.88793E-14
1.71347E-06 9.83707E-15
2.33223E-06 5.63448E-15
3.04617E-06 3.45650E-15
3.85531E-06 2.23868E-15
4.75964E-06 1.51565E-15
5.75916E-06 1.06276E-15
6.85388E-06 7.67443E-16
8.04378E-06 5.68034E-16
9.32888E-06 4.29126E-16
1.07092E-05 3.30182E-16
1.21846E-05 2.58087E-16
1.37553E-05 2.04605E-16
1.54212E-05 1.64293E-16
1.71822E-05 1.33418E-16
1.90385E-05 1.09409E-16
2.09899E-05 9.07044E-17
2.30365E-05 7.58210E-17
2.51783E-05 6.38564E-17
2.74153E-05 5.41458E-17
2.97475E-05 4.62104E-17
3.21749E-05 3.96791E-17
3.46974E-05 3.42667E-17
3.73152E-05 2.97529E-17
4.00281E-05 2.59613E-17
4.28362E-05 2.27568E-17
4.57395E-05 2.00318E-17
4.87380E-05 1.77012E-17
5.18317E-05 1.56990E-17
5.50205E-05 1.39709E-17
5.83045E-05 1.24738E-17
6.16838E-05 1.11720E-17
6.51582E-05 1.00357E-17
6.87277E-05 9.04050E-18
7.23925E-05 8.16567E-18
7.61524E-05 7.39155E-18
9.21439E-05 5.08349E-18
1.09658E-04 3.60961E-18
1.28695E-04 2.63328E-18
1.49255E-04 1.96593E-18
1.71338E-04 1.49731E-18
1.94942E-04 1.16049E-18
2.20070E-04 9.13353E-19
2.46720E-04 7.28706E-19
2.74892E-04 5.88514E-19
3.04586E-04 4.80505E-19
3.35803E-04 3.96218E-19
3.68542E-04 3.29651E-19
4.02802E-04 2.76514E-19
4.38585E-04 2.33683E-19
4.75889E-04 1.98845E-19
5.14715E-04 1.70277E-19
5.55063E-04 1.46667E-19
5.96931E-04 1.27019E-19
6.40321E-04 1.10560E-19
6.85233E-04 9.66877E-20
7.31665E-04 8.49297E-20
7.79618E-04 7.49092E-20
8.29092E-04 6.63280E-20
8.80086E-04 5.89439E-20
9.32601E-04 5.25620E-20
9.86636E-04 4.70233E-20
1.04219E-03 4.21974E-20
1.09927E-03 3.79770E-20
1.15786E-03 3.42728E-20
1.21797E-03 3.10110E-20
1.27961E-03 2.81295E-20
1.34276E-03 2.55763E-20
1.40743E-03 2.33074E-20
1.47362E-03 2.12856E-20
1.54133E-03 1.94793E-20
1.61056E-03 1.78615E-20
1.68131E-03 1.64089E-20
1.75357E-03 1.51018E-20
1.82735E-03 1.39229E-20
1.90265E-03 1.28574E-20
1.97947E-03 1.18924E-20
2.05780E-03 1.10168E-20
2.13765E-03 1.02208E-20
2.21902E-03 9.49587E-21
2.30190E-03 8.83446E-21
2.38630E-03 8.23001E-21
2.47222E-03 7.67672E-21
2.55965E-03 7.16947E-21
2.64859E-03 6.70373E-21
2.73905E-03 6.27548E-21
2.83103E-03 5.88113E-21
2.92452E-03 5.51753E-21
3.01952E-03 5.18180E-21
3.11604E-03 4.87145E-21
3.21407E-03 4.58418E-21
3.31362E-03 4.31795E-21
3.41468E-03 4.07095E-21
3.51725E-03 3.84151E-21
3.62133E-03 3.62816E-21
3.72692E-03 3.42957E-21
3.83403E-03 3.24451E-21
3.94265E-03 3.07188E-21
4.05278E-03 2.91071E-21
4.16442E-03 2.76007E-21
4.27757E-03 2.61916E-21
4.39223E-03 2.48723E-21
4.50840E-03 2.36359E-21
4.62608E-03 2.24763E-21
4.74527E-03 2.13877E-21
4.86597E-03 2.03650E-21
4.98817E-03 1.94035E-21
5.11188E-03 1.84987E-21
5.23711E-03 1.76468E-21
5.36383E-03 1.68439E-21
5.49207E-03 1.60867E-21
5.62181E-03 1.53722E-21
5.75306E-03 1.46975E-21
5.88581E-03 1.40598E-21
6.02007E-03 1.34569E-21
6.15583E-03 1.28864E-21
6.29310E-03 1.23462E-21
6.43187E-03 1.18344E-21
6.57214E-03 1.13493E-21
6.71392E-03 1.08892E-21
6.85720E-03 1.04524E-21
7.00198E-03 1.00377E-21
7.14827E-03 9.64369E-22
7.29605E-03 9.26911E-22
7.44534E-03 8.91284E-22
7.59612E-03 8.57380E-22
7.97965E-03 7.79516E-22
8.37255E-03 7.10431E-22
8.77480E-03 6.48953E-22
9.18641E-03 5.94092E-22
9.60736E-03 5.45005E-22
1.00376E-02 5.00969E-22
1.04773E-02 4.61373E-22
1.09262E-02 4.25680E-22
1.13844E-02 3.93438E-22
1.18520E-02 3.64248E-22
1.23288E-02 3.37766E-22
1.28150E-02 3.13695E-22
1.33104E-02 2.91772E-22
1.38150E-02 2.71769E-22
1.43290E-02 2.53486E-22
1.48521E-02 2.36745E-22
1.53845E-02 2.21393E-22
1.59262E-02 2.07291E-22
1.64770E-02 1.94317E-22
1.70371E-02 1.82365E-22
1.76063E-02 1.71336E-22
1.81848E-02 1.61147E-22
1.87724E-02 1.51720E-22
1.93692E-02 1.42987E-22
1.99751E-02 1.34888E-22
2.05901E-02 1.27365E-22
2.12143E-02 1.20372E-22
2.18476E-02 1.13862E-22
2.24900E-02 1.07796E-22
2.31415E-02 1.02137E-22
2.38021E-02 9.68530E-23
2.44717E-02 9.19134E-23
2.51504E-02 8.72915E-23
2.58382E-02 8.29627E-23
2.65349E-02 7.89048E-23
2.72407E-02 7.50974E-23
2.79555E-02 7.15221E-23
2.86793E-02 6.81620E-23
2.94120E-02 6.50020E-23
3.01537E-02 6.20281E-23
3.09043E-02 5.92207E-23
3.16639E-02 5.65733E-23
3.24324E-02 5.40749E-23
3.32098E-02 5.17155E-23
3.39961E-02 4.94856E-23
3.47912E-02 4.73767E-23
3.55952E-02 4.53809E-23
3.64081E-02 4.34908E-23
3.72297E-02 4.16997E-23
3.80602E-02 4.00013E-23
3.88995E-02 3.83898E-23
3.97476E-02 3.68599E-23
4.06044E-02 3.54065E-23
4.14700E-02 3.40250E-23
4.23443E-02 3.27111E-23
4.32273E-02 3.14608E-23
4.41190E-02 3.02704E-23
4.50194E-02 2.91364E-23
4.59284E-02 2.80556E-23
4.68461E-02 2.70250E-23
4.87074E-02 2.51032E-23
5.06030E-02 2.33505E-23
5.25328E-02 2.17492E-23
5.44967E-02 2.02836E-23
5.64946E-02 1.89398E-23
5.85262E-02 1.77059E-23
6.05914E-02 1.65709E-23
6.26901E-02 1.55254E-23
6.48222E-02 1.45610E-23
6.69873E-02 1.36700E-23
6.91854E-02 1.28459E-23
7.14163E-02 1.20825E-23
7.36799E-02 1.13746E-23
7.59760E-02 1.07173E-23
7.83043E-02 1.01063E-23
8.06647E-02 9.53760E-24
8.30571E-02 9.00782E-24
8.54812E-02 8.51373E-24
8.79369E-02 8.05246E-24
9.04240E-02 7.62141E-24
9.29422E-02 7.21822E-24
9.54915E-02 6.84073E-24
9.80716E-02 6.48700E-24
1.00682E-01 6.15525E-24
1.03323E-01 5.84385E-24
1.05995E-01 5.55131E-24
1.08696E-01 5.27628E-24
1.11427E-01 5.01752E-24
1.14188E-01 4.77387E-24
1.16978E-01 4.54430E-24
1.19797E-01 4.32785E-24
1.22645E-01 4.12362E-24
1.25522E-01 3.93079E-24
1.28428E-01 3.74862E-24
1.31361E-01 3.57642E-24
1.34323E-01 3.41353E-24
1.37313E-01 3.25937E-24
1.40330E-01 3.11338E-24
1.43375E-01 2.97505E-24
1.46447E-01 2.84392E-24
1.49545E-01 2.71954E-24
1.52671E-01 2.60151E-24
1.55823E-01 2.48944E-24
1.59001E-01 2.38299E-24
1.62205E-01 2.28182E-24
1.65435E-01 2.18563E-24
1.68690E-01 2.09414E-24
1.71970E-01 2.00707E-24
1.75276E-01 1.92418E-24
1.78606E-01 1.84523E-24
1.81961E-01 1.77001E-24
1.85340E-01 1.69831E-24
1.88743E-01 1.62994E-24
1.92169E-01 1.56473E-24
1.95619E-01 1.50250E-24
1.99092E-01 1.44310E-24
2.02589E-01 1.38637E-24
2.06107E-01 1.33219E-24
2.09649E-01 1.28042E-24
2.13212E-01 1.23093E-24
2.16797E-01 1.18361E-24
2.20404E-01 1.13835E-24
2.24032E-01 1.09505E-24
2.27680E-01 1.05361E-24
2.31350E-01 1.01394E-24
2.35040E-01 9.75958E-25
2.38751E-01 9.39576E-25
2.42481E-01 9.04719E-25
2.46231E-01 8.71314E-25
2.50000E-01 8.39294E-25
2.53788E-01 8.08592E-25
2.57595E-01 7.79147E-25
2.61421E-01 7.50902E-25
2.65264E-01 7.23800E-25
2.69126E-01 6.97790E-25
2.73005E-01 6.72821E-25
2.76901E-01 6.48848E-25
2.80814E-01 6.25824E-25
2.84744E-01 6.03709E-25
2.88691E-01 5.82461E-25
2.92653E-01 5.62042E-25
2.96632E-01 5.42417E-25
3.00625E-01 5.23550E-25
3.04634E-01 5.05410E-25
3.08658E-01 4.87963E-25
3.12697E-01 4.71182E-25
3.16749E-01 4.55038E-25
3.20816E-01 4.39503E-25
3.24896E-01 4.24552E-25
3.28990E-01 4.10161E-25
3.33097E-01 3.96307E-25
3.37216E-01 3.82966E-25
3.41348E-01 3.70119E-25
3.45492E-01 3.57745E-25
3.49647E-01 3.45824E-25
3.53814E-01 3.34338E-25
3.57992E-01 3.23270E-25
3.62181E-01 3.12603E-25
3.66381E-01 3.02321E-25
3.70590E-01 2.92408E-25
3.74810E-01 2.82851E-25
3.79039E-01 2.73634E-25
3.83277E-01 2.64745E-25
3.87524E-01 2.56170E-25
3.91780E-01 2.47898E-25
3.96044E-01 2.39917E-25
4.00316E-01 2.32216E-25
4.04596E-01 2.24783E-25
4.08882E-01 2.17609E-25
4.13176E-01 2.10683E-25
4.17476E-01 2.03997E-25
4.21783E-01 1.97542E-25
4.26095E-01 1.91307E-25
4.30413E-01 1.85286E-25
4.34737E-01 1.79471E-25
4.39065E-01 1.73853E-25
4.43398E-01 1.68426E-25
4.47736E-01 1.63181E-25
4.52077E-01 1.58114E-25
4.56422E-01 1.53216E-25
4.60770E-01 1.48483E-25
4.65122E-01 1.43907E-25
4.69476E-01 1.39484E-25
4.73832E-01 1.35207E-25
4.78190E-01 1.31072E-25
4.82550E-01 1.27073E-25
4.86912E-01 1.23206E-25
4.91274E-01 1.19465E-25
4.95637E-01 1.15847E-25
5.00000E-01 1.12346E-25
5.04363E-01 1.08959E-25
5.08726E-01 1.05682E-25
5.13088E-01 1.02511E-25
5.17450E-01 9.94423E-26
5.21810E-01 9.64720E-26
5.26168E-01 9.35969E-26
5.30524E-01 9.08137E-26
5.34878E-01 8.81191E-26
5.39230E-01 8.55102E-26
5.43578E-01 8.29839E-26
5.47923E-01 8.05375E-26
5.52264E-01 7.81682E-26
5.56602E-01 7.58733E-26
5.60935E-01 7.36504E-26
5.65263E-01 7.14970E-26
5.69587E-01 6.94108E-26
5.73905E-01 6.73894E-26
5.78217E-01 6.54306E-26
5.82524E-01 6.35325E-26
5.86824E-01 6.16929E-26
5.91118E-01 5.99099E-26
5.95404E-01 5.81816E-26
5.99684E-01 5.65061E-26
6.03956E-01 5.48818E-26
6.08220E-01 5.33069E-26
6.12476E-01 5.17798E-26
6.16723E-01 5.02989E-26
6.20961E-01 4.88627E-26
6.25190E-01 4.74697E-26
6.29410E-01 4.61186E-26
6.33619E-01 4.48078E-26
6.37819E-01 4.35363E-26
6.42008E-01 4.23025E-26
6.46186E-01 4.11055E-26
6.50353E-01 3.99438E-26
6.54508E-01 3.88165E-26
6.58652E-01 3.77223E-26
6.62784E-01 3.66603E-26
6.66903E-01 3.56294E-26
6.71010E-01 3.46286E-26
6.75104E-01 3.36569E-26
6.79184E-01 3.27134E-26
6.83251E-01 3.17973E-26
6.87303E-01 3.09076E-26
6.91342E-01 3.00435E-26
6.95366E-01 2.92043E-26
6.99375E-01 2.83890E-26
7.03368E-01 2.75971E-26
7.07347E-01 2.68277E-26
7.11309E-01 2.60801E-26
7.15256E-01 2.53537E-26
7.19186E-01 2.46478E-26
7.23099E-01 2.39617E-26
7.26995E-01 2.32949E-26
7.30874E-01 2.26467E-26
7.34736E-01 2.20167E-26
7.38579E-01 2.14041E-26
7.42405E-01 2.08086E-26
7.46212E-01 2.02295E-26
7.50000E-01 1.96663E-26
7.53769E-01 1.91187E-26
7.57519E-01 1.85861E-26
7.61249E-01 1.80680E-26
7.64960E-01 1.75640E-26
7.68650E-01 1.70738E-26
7.72320E-01 1.65968E-26
7.75968E-01 1.61327E-26
7.79596E-01 1.56811E-26
7.83203E-01 1.52416E-26
7.86788E-01 1.48139E-26
7.90351E-01 1.43976E-26
7.93893E-01 1.39924E-26
7.97411E-01 1.35980E-26
8.00908E-01 1.32140E-26
8.04381E-01 1.28401E-26
8.07831E-01 1.24761E-26
8.11257E-01 1.21217E-26
8.14660E-01 1.17765E-26
8.18039E-01 1.14403E-26
8.21394E-01 1.11130E-26
8.24724E-01 1.07941E-26
8.28030E-01 1.04834E-26
8.31310E-01 1.01808E-26
8.34565E-01 9.88605E-27
8.37795E-01 9.59884E-27
8.40999E-01 9.31901E-27
8.44177E-01 9.04634E-27
8.47329E-01 8.78064E-27
8.50455E-01 8.52171E-27
8.53553E-01 8.26937E-27
8.56625E-01 8.02344E-27
8.59670E-01 7.78375E-27
8.62687E-01 7.55012E-27
8.65677E-01 7.32239E-27
8.68639E-01 7.10040E-27
8.71572E-01 6.88401E-27
8.74478E-01 6.67305E-27
8.77355E-01 6.46740E-27
8.80203E-01 6.26690E-27
8.83022E-01 6.07143E-27
8.85812E-01 5.88085E-27
8.88573E-01 5.69504E-27
8.91304E-01 5.51388E-27
8.94005E-01 5.33725E-27
8.96677E-01 5.16503E-27
8.99318E-01 4.99711E-27
9.01928E-01 4.83340E-27
9.04508E-01 4.67377E-27
9.07058E-01 4.51814E-27
9.09576E-01 4.36641E-27
9.12063E-01 4.21847E-27
9.14519E-01 4.07425E-27
9.16943E-01 3.93366E-27
9.19335E-01 3.79660E-27
9.21696E-01 3.66300E-27
9.24024E-01 3.53277E-27
9.26320E-01 3.40585E-27
9.28584E-01 3.28215E-27
9.30815E-01 3.16161E-27
9.33013E-01 3.04415E-27
9.35178E-01 2.92970E-27
9.37310E-01 2.81821E-27
9.39409E-01 2.70960E-27
9.41474E-01 2.60382E-27
9.43505E-01 2.50081E-27
9.45503E-01 2.40051E-27
9.47467E-01 2.30287E-27
9.49397E-01 2.20783E-27
9.51293E-01 2.11534E-27
9.53154E-01 2.02535E-27
9.54981E-01 1.93782E-27
9.56773E-01 1.85270E-27
9.58530E-01 1.76993E-27
9.60252E-01 1.68949E-27
9.61940E-01 1.61132E-27
9.63592E-01 1.53539E-27
9.65209E-01 1.46166E-27
9.66790E-01 1.39009E-27
9.68336E-01 1.32065E-27
9.69846E-01 1.25329E-27
9.71321E-01 1.18799E-27
9.72759E-01 1.12472E-27
9.74162E-01 1.06344E-27
9.75528E-01 1.00412E-27
9.76858E-01 9.46732E-28
9.78152E-01 8.91253E-28
9.79410E-01 8.37653E-28
9.80631E-01 7.85907E-28
9.81815E-01 7.35990E-28
9.82963E-01 6.87879E-28
9.84074E-01 6.41551E-28
9.85148E-01 5.96984E-28
9.86185E-01 5.54158E-28
9.87185E-01 5.13053E-28
9.88148E-01 4.73649E-28
9.89074E-01 4.35929E-28
9.89962E-01 3.99875E-28
9.90814E-01 3.65472E-28
9.91627E-01 3.32703E-28
9.92404E-01 3.01553E-28
9.93143E-01 2.72009E-28
9.93844E-01 2.44058E-28
9.94508E-01 2.17687E-28
9.95134E-01 1.92883E-28
9.95722E-01 1.69637E-28
9.96273E-01 1.47938E-28
9.96786E-01 1.27777E-28
9.97261E-01 1.09144E-28
9.97698E-01 9.20310E-29
9.98097E-01 7.64312E-29
9.98459E-01 6.23374E-29
9.98782E-01 4.97435E-29
9.99067E-01 3.86441E-29
9.99315E-01 2.90343E-29
9.99524E-01 2.09100E-29
9.99695E-01 1.42676E-29
9.99829E-01 9.10424E-30
9.99924E-01 5.41773E-30
9.99981E-01 3.20647E-30
1.00000E+00 2.46949E-30
