 #
 # Subroutine ELSEPA. Elastic scattering of electrons and positrons
 #                    by neutral atoms and positive ions
 #
 # Projectile: electron
 # Kinetic energy = 3.00000E+06 eV = 1.10248E+05 a.u.
 #
 # WARNING: High-energy factorization with free-atom DF screening.
 #          Absorption, polarization and exchange corrections are
 #          switched off.
 #          Phase shifts are calculated for the bare nucleus.
 #          Scattering amplitudes are not evaluated.
 #
 # Element: Th,  Z =  90,  atomic weight = 2.32038E+02 g/mol
 #
 # Nuclear model: Fermi distribution
 #                Average radius = 6.57512E-13 cm
 #                Skin thickness = 5.46000E-14 cm
 #
 # Number of electrons = 90
 #
 # Total elastic cross section = 1.21487E-17 cm**2 = 4.33839E-01 a0**2
 # 1st transport cross section = 1.08673E-21 cm**2 = 3.88080E-05 a0**2
 # 2nd transport cross section = 2.81947E-21 cm**2 = 1.00685E-04 a0**2
 #
 #
 # Differential cross section:                       MU=(1-COS(THETA))/2
 #
 #  THETA        MU          DCS          DCS        Sherman      error
 #  (deg)                 (cm**2/sr)   (a0**2/sr)    function
 #----------------------------------------------------------------------
0.00000E+00 1.80010E-12
7.61557E-13 1.80009E-12
1.18994E-12 1.80009E-12
1.71346E-12 1.80008E-12
2.33225E-12 1.80007E-12
3.04617E-12 1.80007E-12
3.85530E-12 1.80006E-12
4.75964E-12 1.80005E-12
5.75917E-12 1.80003E-12
6.85391E-12 1.80002E-12
8.04379E-12 1.80001E-12
9.32893E-12 1.79999E-12
1.07092E-11 1.79998E-12
1.21847E-11 1.79996E-12
1.37554E-11 1.79994E-12
1.54213E-11 1.79993E-12
1.71823E-11 1.79991E-12
1.90386E-11 1.79988E-12
2.09900E-11 1.79986E-12
2.30367E-11 1.79984E-12
2.51785E-11 1.79981E-12
2.74156E-11 1.79979E-12
2.97478E-11 1.79976E-12
3.21752E-11 1.79973E-12
3.46979E-11 1.79971E-12
3.73157E-11 1.79968E-12
4.00286E-11 1.79965E-12
4.28368E-11 1.79961E-12
4.57402E-11 1.79958E-12
4.87388E-11 1.79955E-12
5.18325E-11 1.79951E-12
5.50215E-11 1.79947E-12
5.83057E-11 1.79944E-12
6.16850E-11 1.79940E-12
6.51595E-11 1.79936E-12
6.87293E-11 1.79932E-12
7.23943E-11 1.79928E-12
7.61544E-11 1.79923E-12
1.18991E-10 1.79875E-12
1.71347E-10 1.79815E-12
2.33223E-10 1.79745E-12
3.04617E-10 1.79663E-12
3.85531E-10 1.79571E-12
4.75965E-10 1.79469E-12
5.75917E-10 1.79355E-12
6.85389E-10 1.79231E-12
8.04380E-10 1.79096E-12
9.32891E-10 1.78951E-12
1.07092E-09 1.78795E-12
1.21847E-09 1.78629E-12
1.37554E-09 1.78452E-12
1.54213E-09 1.78264E-12
1.71823E-09 1.78066E-12
1.90386E-09 1.77858E-12
2.09900E-09 1.77640E-12
2.30367E-09 1.77412E-12
2.51785E-09 1.77173E-12
2.74156E-09 1.76924E-12
2.97478E-09 1.76665E-12
3.21752E-09 1.76397E-12
3.46978E-09 1.76118E-12
3.73156E-09 1.75830E-12
4.00286E-09 1.75532E-12
4.28368E-09 1.75225E-12
4.57402E-09 1.74908E-12
4.87388E-09 1.74581E-12
5.18326E-09 1.74246E-12
5.50215E-09 1.73901E-12
5.83057E-09 1.73546E-12
6.16850E-09 1.73183E-12
6.51596E-09 1.72811E-12
6.87293E-09 1.72430E-12
7.23942E-09 1.72040E-12
7.61544E-09 1.71642E-12
1.18991E-08 1.67205E-12
1.71347E-08 1.62031E-12
2.33223E-08 1.56245E-12
3.04617E-08 1.49975E-12
3.85531E-08 1.43357E-12
4.75965E-08 1.36513E-12
5.75917E-08 1.29554E-12
6.85389E-08 1.22598E-12
8.04380E-08 1.15718E-12
9.32891E-08 1.08993E-12
1.07092E-07 1.02490E-12
1.21847E-07 9.62369E-13
1.37554E-07 9.02818E-13
1.54213E-07 8.46377E-13
1.71823E-07 7.93078E-13
1.90386E-07 7.43149E-13
2.09900E-07 6.96371E-13
2.30367E-07 6.52701E-13
2.51785E-07 6.12103E-13
2.74156E-07 5.74320E-13
2.97478E-07 5.39261E-13
3.21752E-07 5.06743E-13
3.46978E-07 4.76573E-13
3.73156E-07 4.48616E-13
4.00286E-07 4.22681E-13
4.28368E-07 3.98629E-13
4.57402E-07 3.76290E-13
4.87388E-07 3.55545E-13
5.18325E-07 3.36267E-13
5.50215E-07 3.18304E-13
5.83057E-07 3.01593E-13
6.16850E-07 2.85996E-13
6.51596E-07 2.71428E-13
6.87293E-07 2.57842E-13
7.23942E-07 2.45091E-13
7.61543E-07 2.33162E-13
1.18991E-06 1.46759E-13
1.71347E-06 9.73396E-14
2.33223E-06 6.66417E-14
3.04617E-06 4.80854E-14
3.85531E-06 3.53321E-14
4.75964E-06 2.67432E-14
5.75916E-06 2.07284E-14
6.85388E-06 1.62174E-14
8.04378E-06 1.29376E-14
9.32888E-06 1.04429E-14
1.07092E-05 8.50810E-15
1.21846E-05 7.02248E-15
1.37553E-05 5.83876E-15
1.54212E-05 4.89918E-15
1.71822E-05 4.15007E-15
1.90385E-05 3.53053E-15
2.09899E-05 3.03203E-15
2.30365E-05 2.62009E-15
2.51783E-05 2.27263E-15
2.74153E-05 1.98266E-15
2.97475E-05 1.73661E-15
3.21749E-05 1.52692E-15
3.46974E-05 1.34902E-15
3.73152E-05 1.19521E-15
4.00281E-05 1.06292E-15
4.28362E-05 9.48824E-16
4.57395E-05 8.48973E-16
4.87380E-05 7.61925E-16
5.18317E-05 6.85242E-16
5.50205E-05 6.17729E-16
5.83045E-05 5.58552E-16
6.16838E-05 5.06260E-16
6.51582E-05 4.60018E-16
6.87277E-05 4.19111E-16
7.23925E-05 3.82585E-16
7.61524E-05 3.50033E-16
9.21439E-05 2.50007E-16
1.09658E-04 1.83413E-16
1.28695E-04 1.37778E-16
1.49255E-04 1.05581E-16
1.71338E-04 8.22994E-17
1.94942E-04 6.50725E-17
2.20070E-04 5.21481E-17
2.46720E-04 4.22988E-17
2.74892E-04 3.47028E-17
3.04586E-04 2.87159E-17
3.35803E-04 2.39865E-17
3.68542E-04 2.02005E-17
4.02802E-04 1.71279E-17
4.38585E-04 1.46269E-17
4.75889E-04 1.25656E-17
5.14715E-04 1.08545E-17
5.55063E-04 9.42839E-18
5.96931E-04 8.22628E-18
6.40321E-04 7.21046E-18
6.85233E-04 6.34785E-18
7.31665E-04 5.60816E-18
7.79618E-04 4.97407E-18
8.29092E-04 4.42702E-18
8.80086E-04 3.95246E-18
9.32601E-04 3.54034E-18
9.86636E-04 3.18022E-18
1.04219E-03 2.86471E-18
1.09927E-03 2.58768E-18
1.15786E-03 2.34305E-18
1.21797E-03 2.12685E-18
1.27961E-03 1.93515E-18
1.34276E-03 1.76446E-18
1.40743E-03 1.61236E-18
1.47362E-03 1.47633E-18
1.54133E-03 1.35437E-18
1.61056E-03 1.24487E-18
1.68131E-03 1.14620E-18
1.75357E-03 1.05718E-18
1.82735E-03 9.76715E-19
1.90265E-03 9.03739E-19
1.97947E-03 8.37518E-19
2.05780E-03 7.77289E-19
2.13765E-03 7.22378E-19
2.21902E-03 6.72279E-19
2.30190E-03 6.26460E-19
2.38630E-03 5.84491E-19
2.47222E-03 5.46012E-19
2.55965E-03 5.10644E-19
2.64859E-03 4.78112E-19
2.73905E-03 4.48152E-19
2.83103E-03 4.20494E-19
2.92452E-03 3.94957E-19
3.01952E-03 3.71337E-19
3.11604E-03 3.49457E-19
3.21407E-03 3.29179E-19
3.31362E-03 3.10352E-19
3.41468E-03 2.92856E-19
3.51725E-03 2.76587E-19
3.62133E-03 2.61428E-19
3.72692E-03 2.47301E-19
3.83403E-03 2.34122E-19
3.94265E-03 2.21807E-19
4.05278E-03 2.10298E-19
4.16442E-03 1.99528E-19
4.27757E-03 1.89440E-19
4.39223E-03 1.79987E-19
4.50840E-03 1.71116E-19
4.62608E-03 1.62788E-19
4.74527E-03 1.54964E-19
4.86597E-03 1.47604E-19
4.98817E-03 1.40680E-19
5.11188E-03 1.34159E-19
5.23711E-03 1.28012E-19
5.36383E-03 1.22216E-19
5.49207E-03 1.16746E-19
5.62181E-03 1.11579E-19
5.75306E-03 1.06698E-19
5.88581E-03 1.02082E-19
6.02007E-03 9.77140E-20
6.15583E-03 9.35794E-20
6.29310E-03 8.96616E-20
6.43187E-03 8.59489E-20
6.57214E-03 8.24275E-20
6.71392E-03 7.90855E-20
6.85720E-03 7.59131E-20
7.00198E-03 7.28989E-20
7.14827E-03 7.00341E-20
7.29605E-03 6.73102E-20
7.44534E-03 6.47178E-20
7.59612E-03 6.22506E-20
7.97965E-03 5.65820E-20
8.37255E-03 5.15498E-20
8.77480E-03 4.70703E-20
9.18641E-03 4.30716E-20
9.60736E-03 3.94934E-20
1.00376E-02 3.62833E-20
1.04773E-02 3.33969E-20
1.09262E-02 3.07956E-20
1.13844E-02 2.84461E-20
1.18520E-02 2.63198E-20
1.23288E-02 2.43913E-20
1.28150E-02 2.26392E-20
1.33104E-02 2.10442E-20
1.38150E-02 1.95897E-20
1.43290E-02 1.82610E-20
1.48521E-02 1.70452E-20
1.53845E-02 1.59310E-20
1.59262E-02 1.49082E-20
1.64770E-02 1.39679E-20
1.70371E-02 1.31023E-20
1.76063E-02 1.23042E-20
1.81848E-02 1.15675E-20
1.87724E-02 1.08865E-20
1.93692E-02 1.02561E-20
1.99751E-02 9.67196E-21
2.05901E-02 9.12991E-21
2.12143E-02 8.62643E-21
2.18476E-02 8.15824E-21
2.24900E-02 7.72228E-21
2.31415E-02 7.31602E-21
2.38021E-02 6.93697E-21
2.44717E-02 6.58296E-21
2.51504E-02 6.25205E-21
2.58382E-02 5.94237E-21
2.65349E-02 5.65233E-21
2.72407E-02 5.38045E-21
2.79555E-02 5.12531E-21
2.86793E-02 4.88573E-21
2.94120E-02 4.66055E-21
3.01537E-02 4.44871E-21
3.09043E-02 4.24929E-21
3.16639E-02 4.06140E-21
3.24324E-02 3.88423E-21
3.32098E-02 3.71707E-21
3.39961E-02 3.55920E-21
3.47912E-02 3.41004E-21
3.55952E-02 3.26898E-21
3.64081E-02 3.13549E-21
3.72297E-02 3.00910E-21
3.80602E-02 2.88934E-21
3.88995E-02 2.77578E-21
3.97476E-02 2.66806E-21
4.06044E-02 2.56578E-21
4.14700E-02 2.46864E-21
4.23443E-02 2.37631E-21
4.32273E-02 2.28850E-21
4.41190E-02 2.20495E-21
4.50194E-02 2.12541E-21
4.59284E-02 2.04963E-21
4.68461E-02 1.97742E-21
4.87074E-02 1.84285E-21
5.06030E-02 1.72023E-21
5.25328E-02 1.60829E-21
5.44967E-02 1.50591E-21
5.64946E-02 1.41208E-21
5.85262E-02 1.32595E-21
6.05914E-02 1.24676E-21
6.26901E-02 1.17382E-21
6.48222E-02 1.10653E-21
6.69873E-02 1.04436E-21
6.91854E-02 9.86834E-22
7.14163E-02 9.33530E-22
7.36799E-02 8.84068E-22
7.59760E-02 8.38108E-22
7.83043E-02 7.95347E-22
8.06647E-02 7.55512E-22
8.30571E-02 7.18355E-22
8.54812E-02 6.83655E-22
8.79369E-02 6.51213E-22
9.04240E-02 6.20846E-22
9.29422E-02 5.92391E-22
9.54915E-02 5.65697E-22
9.80716E-02 5.40631E-22
1.00682E-01 5.17070E-22
1.03323E-01 4.94900E-22
1.05995E-01 4.74019E-22
1.08696E-01 4.54335E-22
1.11427E-01 4.35761E-22
1.14188E-01 4.18219E-22
1.16978E-01 4.01638E-22
1.19797E-01 3.85951E-22
1.22645E-01 3.71099E-22
1.25522E-01 3.57025E-22
1.28428E-01 3.43678E-22
1.31361E-01 3.31012E-22
1.34323E-01 3.18980E-22
1.37313E-01 3.07545E-22
1.40330E-01 2.96669E-22
1.43375E-01 2.86317E-22
1.46447E-01 2.76457E-22
1.49545E-01 2.67059E-22
1.52671E-01 2.58096E-22
1.55823E-01 2.49543E-22
1.59001E-01 2.41375E-22
1.62205E-01 2.33571E-22
1.65435E-01 2.26109E-22
1.68690E-01 2.18972E-22
1.71970E-01 2.12140E-22
1.75276E-01 2.05596E-22
1.78606E-01 1.99327E-22
1.81961E-01 1.93316E-22
1.85340E-01 1.87550E-22
1.88743E-01 1.82016E-22
1.92169E-01 1.76703E-22
1.95619E-01 1.71599E-22
1.99092E-01 1.66693E-22
2.02589E-01 1.61975E-22
2.06107E-01 1.57437E-22
2.09649E-01 1.53069E-22
2.13212E-01 1.48864E-22
2.16797E-01 1.44812E-22
2.20404E-01 1.40908E-22
2.24032E-01 1.37144E-22
2.27680E-01 1.33513E-22
2.31350E-01 1.30010E-22
2.35040E-01 1.26629E-22
2.38751E-01 1.23364E-22
2.42481E-01 1.20210E-22
2.46231E-01 1.17163E-22
2.50000E-01 1.14217E-22
2.53788E-01 1.11368E-22
2.57595E-01 1.08612E-22
2.61421E-01 1.05945E-22
2.65264E-01 1.03363E-22
2.69126E-01 1.00863E-22
2.73005E-01 9.84418E-23
2.76901E-01 9.60956E-23
2.80814E-01 9.38215E-23
2.84744E-01 9.16168E-23
2.88691E-01 8.94786E-23
2.92653E-01 8.74043E-23
2.96632E-01 8.53915E-23
3.00625E-01 8.34377E-23
3.04634E-01 8.15407E-23
3.08658E-01 7.96983E-23
3.12697E-01 7.79086E-23
3.16749E-01 7.61694E-23
3.20816E-01 7.44792E-23
3.24896E-01 7.28358E-23
3.28990E-01 7.12379E-23
3.33097E-01 6.96836E-23
3.37216E-01 6.81714E-23
3.41348E-01 6.66999E-23
3.45492E-01 6.52676E-23
3.49647E-01 6.38732E-23
3.53814E-01 6.25152E-23
3.57992E-01 6.11926E-23
3.62181E-01 5.99041E-23
3.66381E-01 5.86485E-23
3.70590E-01 5.74248E-23
3.74810E-01 5.62320E-23
3.79039E-01 5.50689E-23
3.83277E-01 5.39348E-23
3.87524E-01 5.28285E-23
3.91780E-01 5.17493E-23
3.96044E-01 5.06962E-23
4.00316E-01 4.96685E-23
4.04596E-01 4.86654E-23
4.08882E-01 4.76860E-23
4.13176E-01 4.67297E-23
4.17476E-01 4.57957E-23
4.21783E-01 4.48834E-23
4.26095E-01 4.39922E-23
4.30413E-01 4.31213E-23
4.34737E-01 4.22703E-23
4.39065E-01 4.14385E-23
4.43398E-01 4.06254E-23
4.47736E-01 3.98304E-23
4.52077E-01 3.90531E-23
4.56422E-01 3.82928E-23
4.60770E-01 3.75492E-23
4.65122E-01 3.68217E-23
4.69476E-01 3.61099E-23
4.73832E-01 3.54133E-23
4.78190E-01 3.47317E-23
4.82550E-01 3.40644E-23
4.86912E-01 3.34112E-23
4.91274E-01 3.27717E-23
4.95637E-01 3.21456E-23
5.00000E-01 3.15324E-23
5.04363E-01 3.09318E-23
5.08726E-01 3.03435E-23
5.13088E-01 2.97672E-23
5.17450E-01 2.92025E-23
5.21810E-01 2.86493E-23
5.26168E-01 2.81070E-23
5.30524E-01 2.75756E-23
5.34878E-01 2.70547E-23
5.39230E-01 2.65441E-23
5.43578E-01 2.60435E-23
5.47923E-01 2.55526E-23
5.52264E-01 2.50713E-23
5.56602E-01 2.45992E-23
5.60935E-01 2.41363E-23
5.65263E-01 2.36822E-23
5.69587E-01 2.32367E-23
5.73905E-01 2.27997E-23
5.78217E-01 2.23709E-23
5.82524E-01 2.19502E-23
5.86824E-01 2.15374E-23
5.91118E-01 2.11322E-23
5.95404E-01 2.07345E-23
5.99684E-01 2.03442E-23
6.03956E-01 1.99610E-23
6.08220E-01 1.95849E-23
6.12476E-01 1.92156E-23
6.16723E-01 1.88530E-23
6.20961E-01 1.84969E-23
6.25190E-01 1.81473E-23
6.29410E-01 1.78040E-23
6.33619E-01 1.74667E-23
6.37819E-01 1.71356E-23
6.42008E-01 1.68102E-23
6.46186E-01 1.64907E-23
6.50353E-01 1.61768E-23
6.54508E-01 1.58683E-23
6.58652E-01 1.55653E-23
6.62784E-01 1.52676E-23
6.66903E-01 1.49751E-23
6.71010E-01 1.46876E-23
6.75104E-01 1.44051E-23
6.79184E-01 1.41275E-23
6.83251E-01 1.38546E-23
6.87303E-01 1.35865E-23
6.91342E-01 1.33229E-23
6.95366E-01 1.30638E-23
6.99375E-01 1.28091E-23
7.03368E-01 1.25588E-23
7.07347E-01 1.23127E-23
7.11309E-01 1.20708E-23
7.15256E-01 1.18330E-23
7.19186E-01 1.15991E-23
7.23099E-01 1.13692E-23
7.26995E-01 1.11432E-23
7.30874E-01 1.09209E-23
7.34736E-01 1.07024E-23
7.38579E-01 1.04875E-23
7.42405E-01 1.02762E-23
7.46212E-01 1.00684E-23
7.50000E-01 9.86403E-24
7.53769E-01 9.66308E-24
7.57519E-01 9.46546E-24
7.61249E-01 9.27112E-24
7.64960E-01 9.08001E-24
7.68650E-01 8.89205E-24
7.72320E-01 8.70721E-24
7.75968E-01 8.52543E-24
7.79596E-01 8.34665E-24
7.83203E-01 8.17082E-24
7.86788E-01 7.99790E-24
7.90351E-01 7.82783E-24
7.93893E-01 7.66057E-24
7.97411E-01 7.49607E-24
8.00908E-01 7.33429E-24
8.04381E-01 7.17517E-24
8.07831E-01 7.01869E-24
8.11257E-01 6.86480E-24
8.14660E-01 6.71345E-24
8.18039E-01 6.56461E-24
8.21394E-01 6.41824E-24
8.24724E-01 6.27431E-24
8.28030E-01 6.13276E-24
8.31310E-01 5.99358E-24
8.34565E-01 5.85672E-24
8.37795E-01 5.72215E-24
8.40999E-01 5.58984E-24
8.44177E-01 5.45975E-24
8.47329E-01 5.33184E-24
8.50455E-01 5.20610E-24
8.53553E-01 5.08247E-24
8.56625E-01 4.96095E-24
8.59670E-01 4.84149E-24
8.62687E-01 4.72406E-24
8.65677E-01 4.60863E-24
8.68639E-01 4.49519E-24
8.71572E-01 4.38370E-24
8.74478E-01 4.27414E-24
8.77355E-01 4.16648E-24
8.80203E-01 4.06070E-24
8.83022E-01 3.95677E-24
8.85812E-01 3.85467E-24
8.88573E-01 3.75437E-24
8.91304E-01 3.65585E-24
8.94005E-01 3.55910E-24
8.96677E-01 3.46408E-24
8.99318E-01 3.37078E-24
9.01928E-01 3.27918E-24
9.04508E-01 3.18925E-24
9.07058E-01 3.10097E-24
9.09576E-01 3.01433E-24
9.12063E-01 2.92930E-24
9.14519E-01 2.84587E-24
9.16943E-01 2.76402E-24
9.19335E-01 2.68373E-24
9.21696E-01 2.60498E-24
9.24024E-01 2.52776E-24
9.26320E-01 2.45205E-24
9.28584E-01 2.37783E-24
9.30815E-01 2.30509E-24
9.33013E-01 2.23381E-24
9.35178E-01 2.16398E-24
9.37310E-01 2.09559E-24
9.39409E-01 2.02861E-24
9.41474E-01 1.96303E-24
9.43505E-01 1.89885E-24
9.45503E-01 1.83605E-24
9.47467E-01 1.77461E-24
9.49397E-01 1.71452E-24
9.51293E-01 1.65577E-24
9.53154E-01 1.59835E-24
9.54981E-01 1.54224E-24
9.56773E-01 1.48744E-24
9.58530E-01 1.43393E-24
9.60252E-01 1.38171E-24
9.61940E-01 1.33075E-24
9.63592E-01 1.28106E-24
9.65209E-01 1.23262E-24
9.66790E-01 1.18543E-24
9.68336E-01 1.13946E-24
9.69846E-01 1.09472E-24
9.71321E-01 1.05120E-24
9.72759E-01 1.00888E-24
9.74162E-01 9.67760E-25
9.75528E-01 9.27829E-25
9.76858E-01 8.89081E-25
9.78152E-01 8.51507E-25
9.79410E-01 8.15100E-25
9.80631E-01 7.79853E-25
9.81815E-01 7.45760E-25
9.82963E-01 7.12813E-25
9.84074E-01 6.81007E-25
9.85148E-01 6.50335E-25
9.86185E-01 6.20791E-25
9.87185E-01 5.92370E-25
9.88148E-01 5.65065E-25
9.89074E-01 5.38873E-25
9.89962E-01 5.13788E-25
9.90814E-01 4.89804E-25
9.91627E-01 4.66919E-25
9.92404E-01 4.45126E-25
9.93143E-01 4.24422E-25
9.93844E-01 4.04804E-25
9.94508E-01 3.86267E-25
9.95134E-01 3.68808E-25
9.95722E-01 3.52423E-25
9.96273E-01 3.37110E-25
9.96786E-01 3.22865E-25
9.97261E-01 3.09686E-25
9.97698E-01 2.97571E-25
9.98097E-01 2.86517E-25
9.98459E-01 2.76522E-25
9.98782E-01 2.67583E-25
9.99067E-01 2.59701E-25
9.99315E-01 2.52872E-25
9.99524E-01 2.47097E-25
9.99695E-01 2.42372E-25
9.99829E-01 2.38699E-25
9.99924E-01 2.36075E-25
9.99981E-01 2.34502E-25
1.00000E+00 2.33977E-25
