 #
 # Subroutine ELSEPA. Elastic scattering of electrons and positrons
 #                    by neutral atoms and positive ions
 #
 # Projectile: electron
 # Kinetic energy = 1.50000E+08 eV = 5.51240E+06 a.u.
 #
 # WARNING: High-energy factorization with free-atom DF screening.
 #          Absorption, polarization and exchange corrections are
 #          switched off.
 #          Phase shifts are calculated for the bare nucleus.
 #          Scattering amplitudes are not evaluated.
 #
 # Element: Th,  Z =  90,  atomic weight = 2.32038E+02 g/mol
 #
 # Nuclear model: Fermi distribution
 #                Average radius = 6.57512E-13 cm
 #                Skin thickness = 5.46000E-14 cm
 #
 # Number of electrons = 90
 #
 # Total elastic cross section = 1.18689E-17 cm**2 = 4.23847E-01 a0**2
 # 1st transport cross section = 6.71446E-25 cm**2 = 2.39778E-08 a0**2
 # 2nd transport cross section = 2.00644E-24 cm**2 = 7.16514E-08 a0**2
 #
 #
 # Differential cross section:                       MU=(1-COS(THETA))/2
 #
 #  THETA        MU          DCS          DCS        Sherman      error
 #  (deg)                 (cm**2/sr)   (a0**2/sr)    function
 #----------------------------------------------------------------------
0.00000E+00 3.30805E-09
7.61557E-13 3.27819E-09
1.18994E-12 3.26160E-09
1.71346E-12 3.24151E-09
2.33225E-12 3.21803E-09
3.04617E-12 3.19128E-09
3.85530E-12 3.16139E-09
4.75964E-12 3.12852E-09
5.75917E-12 3.09283E-09
6.85391E-12 3.05449E-09
8.04379E-12 3.01369E-09
9.32893E-12 2.97061E-09
1.07092E-11 2.92546E-09
1.21847E-11 2.87843E-09
1.37554E-11 2.82968E-09
1.54213E-11 2.77941E-09
1.71823E-11 2.72791E-09
1.90386E-11 2.67529E-09
2.09900E-11 2.62172E-09
2.30367E-11 2.56739E-09
2.51785E-11 2.51261E-09
2.74156E-11 2.45739E-09
2.97478E-11 2.40188E-09
3.21752E-11 2.34635E-09
3.46979E-11 2.29094E-09
3.73157E-11 2.23566E-09
4.00286E-11 2.18064E-09
4.28368E-11 2.12621E-09
4.57402E-11 2.07229E-09
4.87388E-11 2.01893E-09
5.18325E-11 1.96626E-09
5.50215E-11 1.91455E-09
5.83057E-11 1.86362E-09
6.16850E-11 1.81352E-09
6.51595E-11 1.76448E-09
6.87293E-11 1.71650E-09
7.23943E-11 1.66948E-09
7.61544E-11 1.62345E-09
1.18991E-10 1.22531E-09
1.71347E-10 9.30948E-10
2.33223E-10 7.18259E-10
3.04617E-10 5.64005E-10
3.85531E-10 4.50172E-10
4.75965E-10 3.64477E-10
5.75917E-10 2.98708E-10
6.85389E-10 2.47354E-10
8.04380E-10 2.06685E-10
9.32891E-10 1.74151E-10
1.07092E-09 1.47270E-10
1.21847E-09 1.25280E-10
1.37554E-09 1.07938E-10
1.54213E-09 9.40859E-11
1.71823E-09 8.17618E-11
1.90386E-09 7.14666E-11
2.09900E-09 6.30397E-11
2.30367E-09 5.59818E-11
2.51785E-09 4.95212E-11
2.74156E-09 4.41251E-11
2.97478E-09 3.95830E-11
3.21752E-09 3.55488E-11
3.46978E-09 3.19351E-11
3.73156E-09 2.88470E-11
4.00286E-09 2.61920E-11
4.28368E-09 2.37273E-11
4.57402E-09 2.15620E-11
4.87388E-09 1.96785E-11
5.18326E-09 1.80100E-11
5.50215E-09 1.64579E-11
5.83057E-09 1.50940E-11
6.16850E-09 1.38907E-11
6.51596E-09 1.27901E-11
6.87293E-09 1.17861E-11
7.23942E-09 1.08927E-11
7.61544E-09 1.00953E-11
1.18991E-08 5.02957E-12
1.71347E-08 2.79414E-12
2.33223E-08 1.67083E-12
3.04617E-08 1.05504E-12
3.85531E-08 6.98422E-13
4.75965E-08 4.81359E-13
5.75917E-08 3.42746E-13
6.85389E-08 2.50940E-13
8.04380E-08 1.88092E-13
9.32891E-08 1.43785E-13
1.07092E-07 1.11721E-13
1.21847E-07 8.82565E-14
1.37554E-07 7.05765E-14
1.54213E-07 5.71620E-14
1.71823E-07 4.68184E-14
1.90386E-07 3.86935E-14
2.09900E-07 3.22740E-14
2.30367E-07 2.71447E-14
2.51785E-07 2.29881E-14
2.74156E-07 1.95996E-14
2.97478E-07 1.68170E-14
3.21752E-07 1.45080E-14
3.46978E-07 1.25801E-14
3.73156E-07 1.09633E-14
4.00286E-07 9.59692E-15
4.28368E-07 8.43493E-15
4.57402E-07 7.44415E-15
4.87388E-07 6.59452E-15
5.18325E-07 5.86139E-15
5.50215E-07 5.22774E-15
5.83057E-07 4.67765E-15
6.16850E-07 4.19732E-15
6.51596E-07 3.77735E-15
6.87293E-07 3.40881E-15
7.23942E-07 3.08390E-15
7.61543E-07 2.79691E-15
1.18991E-06 1.17962E-15
1.71347E-06 5.80783E-16
2.33223E-06 3.18159E-16
3.04617E-06 1.88491E-16
3.85531E-06 1.18605E-16
4.75964E-06 7.82923E-17
5.75916E-06 5.37371E-17
6.85388E-06 3.80970E-17
8.04378E-06 2.77560E-17
9.32888E-06 2.06986E-17
1.07092E-05 1.57491E-17
1.21846E-05 1.21952E-17
1.37553E-05 9.58997E-18
1.54212E-05 7.64503E-18
1.71822E-05 6.16930E-18
1.90385E-05 5.02975E-18
2.09899E-05 4.14767E-18
2.30365E-05 3.45005E-18
2.51783E-05 2.89216E-18
2.74153E-05 2.44188E-18
2.97475E-05 2.07559E-18
3.21749E-05 1.77548E-18
3.46974E-05 1.52789E-18
3.73152E-05 1.32220E-18
4.00281E-05 1.15014E-18
4.28362E-05 1.00525E-18
4.57395E-05 8.82465E-19
4.87380E-05 7.77830E-19
5.18317E-05 6.88211E-19
5.50205E-05 6.11106E-19
5.83045E-05 5.44495E-19
6.16838E-05 4.86725E-19
6.51582E-05 4.36433E-19
6.87277E-05 3.92485E-19
7.23925E-05 3.53942E-19
7.61524E-05 3.20014E-19
9.21439E-05 2.19041E-19
1.09658E-04 1.54962E-19
1.28695E-04 1.12721E-19
1.49255E-04 8.39604E-20
1.71338E-04 6.38288E-20
1.94942E-04 4.93973E-20
2.20070E-04 3.88321E-20
2.46720E-04 3.09531E-20
2.74892E-04 2.49808E-20
3.04586E-04 2.03857E-20
3.35803E-04 1.68041E-20
3.68542E-04 1.39783E-20
4.02802E-04 1.17246E-20
4.38585E-04 9.90931E-21
4.75889E-04 8.43353E-21
5.14715E-04 7.22392E-21
5.55063E-04 6.22457E-21
5.96931E-04 5.39311E-21
6.40321E-04 4.69667E-21
6.85233E-04 4.10969E-21
7.31665E-04 3.61215E-21
7.79618E-04 3.18806E-21
8.29092E-04 2.82481E-21
8.80086E-04 2.51213E-21
9.32601E-04 2.24181E-21
9.86636E-04 2.00711E-21
1.04219E-03 1.80251E-21
1.09927E-03 1.62351E-21
1.15786E-03 1.46634E-21
1.21797E-03 1.32792E-21
1.27961E-03 1.20547E-21
1.34276E-03 1.09683E-21
1.40743E-03 1.00022E-21
1.47362E-03 9.14071E-22
1.54133E-03 8.37043E-22
1.61056E-03 7.67995E-22
1.68131E-03 7.05952E-22
1.75357E-03 6.50074E-22
1.82735E-03 5.99635E-22
1.90265E-03 5.54011E-22
1.97947E-03 5.12655E-22
2.05780E-03 4.75096E-22
2.13765E-03 4.40921E-22
2.21902E-03 4.09769E-22
2.30190E-03 3.81322E-22
2.38630E-03 3.55302E-22
2.47222E-03 3.31464E-22
2.55965E-03 3.09590E-22
2.64859E-03 2.89488E-22
2.73905E-03 2.70989E-22
2.83103E-03 2.53940E-22
2.92452E-03 2.38206E-22
3.01952E-03 2.23668E-22
3.11604E-03 2.10217E-22
3.21407E-03 1.97756E-22
3.31362E-03 1.86199E-22
3.41468E-03 1.75469E-22
3.51725E-03 1.65495E-22
3.62133E-03 1.56213E-22
3.72692E-03 1.47567E-22
3.83403E-03 1.39505E-22
3.94265E-03 1.31979E-22
4.05278E-03 1.24949E-22
4.16442E-03 1.18374E-22
4.27757E-03 1.12221E-22
4.39223E-03 1.06456E-22
4.50840E-03 1.01051E-22
4.62608E-03 9.59788E-23
4.74527E-03 9.12155E-23
4.86597E-03 8.67387E-23
4.98817E-03 8.25278E-23
5.11188E-03 7.85642E-23
5.23711E-03 7.48306E-23
5.36383E-03 7.13113E-23
5.49207E-03 6.79915E-23
5.62181E-03 6.48580E-23
5.75306E-03 6.18984E-23
5.88581E-03 5.91012E-23
6.02007E-03 5.64558E-23
6.15583E-03 5.39526E-23
6.29310E-03 5.15824E-23
6.43187E-03 4.93370E-23
6.57214E-03 4.72085E-23
6.71392E-03 4.51898E-23
6.85720E-03 4.32741E-23
7.00198E-03 4.14553E-23
7.14827E-03 3.97276E-23
7.29605E-03 3.80856E-23
7.44534E-03 3.65243E-23
7.59612E-03 3.50389E-23
7.97965E-03 3.16302E-23
8.37255E-03 2.86095E-23
8.77480E-03 2.59255E-23
9.18641E-03 2.35345E-23
9.60736E-03 2.13996E-23
1.00376E-02 1.94890E-23
1.04773E-02 1.77754E-23
1.09262E-02 1.62354E-23
1.13844E-02 1.48487E-23
1.18520E-02 1.35976E-23
1.23288E-02 1.24670E-23
1.28150E-02 1.14435E-23
1.33104E-02 1.05155E-23
1.38150E-02 9.67277E-24
1.43290E-02 8.90635E-24
1.48521E-02 8.20835E-24
1.53845E-02 7.57182E-24
1.59262E-02 6.99060E-24
1.64770E-02 6.45923E-24
1.70371E-02 5.97288E-24
1.76063E-02 5.52722E-24
1.81848E-02 5.11841E-24
1.87724E-02 4.74302E-24
1.93692E-02 4.39798E-24
1.99751E-02 4.08054E-24
2.05901E-02 3.78821E-24
2.12143E-02 3.51879E-24
2.18476E-02 3.27026E-24
2.24900E-02 3.04083E-24
2.31415E-02 2.82886E-24
2.38021E-02 2.63289E-24
2.44717E-02 2.45157E-24
2.51504E-02 2.28370E-24
2.58382E-02 2.12818E-24
2.65349E-02 1.98401E-24
2.72407E-02 1.85028E-24
2.79555E-02 1.72617E-24
2.86793E-02 1.61091E-24
2.94120E-02 1.50383E-24
3.01537E-02 1.40429E-24
3.09043E-02 1.31172E-24
3.16639E-02 1.22558E-24
3.24324E-02 1.14540E-24
3.32098E-02 1.07073E-24
3.39961E-02 1.00116E-24
3.47912E-02 9.36326E-25
3.55952E-02 8.75874E-25
3.64081E-02 8.19491E-25
3.72297E-02 7.66886E-25
3.80602E-02 7.17787E-25
3.88995E-02 6.71949E-25
3.97476E-02 6.29140E-25
4.06044E-02 5.89150E-25
4.14700E-02 5.51784E-25
4.23443E-02 5.16859E-25
4.32273E-02 4.84208E-25
4.41190E-02 4.53676E-25
4.50194E-02 4.25119E-25
4.59284E-02 3.98405E-25
4.68461E-02 3.73408E-25
4.87074E-02 3.28117E-25
5.06030E-02 2.88421E-25
5.25328E-02 2.53609E-25
5.44967E-02 2.23062E-25
5.64946E-02 1.96246E-25
5.85262E-02 1.72695E-25
6.05914E-02 1.52004E-25
6.26901E-02 1.33821E-25
6.48222E-02 1.17839E-25
6.69873E-02 1.03787E-25
6.91854E-02 9.14313E-26
7.14163E-02 8.05659E-26
7.36799E-02 7.10103E-26
7.59760E-02 6.26064E-26
7.83043E-02 5.52154E-26
8.06647E-02 4.87153E-26
8.30571E-02 4.29989E-26
8.54812E-02 3.79720E-26
8.79369E-02 3.35517E-26
9.04240E-02 2.96651E-26
9.29422E-02 2.62479E-26
9.54915E-02 2.32436E-26
9.80716E-02 2.06023E-26
1.00682E-01 1.82802E-26
1.03323E-01 1.62387E-26
1.05995E-01 1.44436E-26
1.08696E-01 1.28651E-26
1.11427E-01 1.14767E-26
1.14188E-01 1.02552E-26
1.16978E-01 9.18006E-27
1.19797E-01 8.23335E-27
1.22645E-01 7.39922E-27
1.25522E-01 6.66373E-27
1.28428E-01 6.01466E-27
1.31361E-01 5.44124E-27
1.34323E-01 4.93406E-27
1.37313E-01 4.48483E-27
1.40330E-01 4.08630E-27
1.43375E-01 3.73212E-27
1.46447E-01 3.41673E-27
1.49545E-01 3.13527E-27
1.52671E-01 2.88349E-27
1.55823E-01 2.65767E-27
1.59001E-01 2.45459E-27
1.62205E-01 2.27143E-27
1.65435E-01 2.10573E-27
1.68690E-01 1.95537E-27
1.71970E-01 1.81849E-27
1.75276E-01 1.69349E-27
1.78606E-01 1.57896E-27
1.81961E-01 1.47370E-27
1.85340E-01 1.37666E-27
1.88743E-01 1.28695E-27
1.92169E-01 1.20377E-27
1.95619E-01 1.12644E-27
1.99092E-01 1.05439E-27
2.02589E-01 9.87102E-28
2.06107E-01 9.24141E-28
2.09649E-01 8.65125E-28
2.13212E-01 8.09725E-28
2.16797E-01 7.57653E-28
2.20404E-01 7.08659E-28
2.24032E-01 6.62522E-28
2.27680E-01 6.19049E-28
2.31350E-01 5.78071E-28
2.35040E-01 5.39434E-28
2.38751E-01 5.03004E-28
2.42481E-01 4.68659E-28
2.46231E-01 4.36287E-28
2.50000E-01 4.05787E-28
2.53788E-01 3.77065E-28
2.57595E-01 3.50036E-28
2.61421E-01 3.24618E-28
2.65264E-01 3.00735E-28
2.69126E-01 2.78315E-28
2.73005E-01 2.57289E-28
2.76901E-01 2.37592E-28
2.80814E-01 2.19159E-28
2.84744E-01 2.01932E-28
2.88691E-01 1.85850E-28
2.92653E-01 1.70858E-28
2.96632E-01 1.56899E-28
3.00625E-01 1.43922E-28
3.04634E-01 1.31874E-28
3.08658E-01 1.20705E-28
3.12697E-01 1.10366E-28
3.16749E-01 1.00811E-28
3.20816E-01 9.19944E-29
3.24896E-01 8.38718E-29
3.28990E-01 7.64010E-29
3.33097E-01 6.95413E-29
3.37216E-01 6.32535E-29
3.41348E-01 5.75000E-29
3.45492E-01 5.22445E-29
3.49647E-01 4.74528E-29
3.53814E-01 4.30917E-29
3.57992E-01 3.91301E-29
3.62181E-01 3.55380E-29
3.66381E-01 3.22871E-29
3.70590E-01 2.93507E-29
3.74810E-01 2.67035E-29
3.79039E-01 2.43216E-29
3.83277E-01 2.21826E-29
3.87524E-01 2.02653E-29
3.91780E-01 1.85502E-29
3.96044E-01 1.70186E-29
4.00316E-01 1.56535E-29
4.04596E-01 1.44389E-29
4.08882E-01 1.33598E-29
4.13176E-01 1.24027E-29
4.17476E-01 1.15547E-29
4.21783E-01 1.08043E-29
4.26095E-01 1.01407E-29
4.30413E-01 9.55399E-30
4.34737E-01 9.03531E-30
4.39065E-01 8.57644E-30
4.43398E-01 8.16997E-30
4.47736E-01 7.80917E-30
4.52077E-01 7.48800E-30
4.56422E-01 7.20102E-30
4.60770E-01 6.94334E-30
4.65122E-01 6.71063E-30
4.69476E-01 6.49903E-30
4.73832E-01 6.30515E-30
4.78190E-01 6.12598E-30
4.82550E-01 5.95892E-30
4.86912E-01 5.80170E-30
4.91274E-01 5.65237E-30
4.95637E-01 5.50925E-30
5.00000E-01 5.37095E-30
5.04363E-01 5.23627E-30
5.08726E-01 5.10424E-30
5.13088E-01 4.97408E-30
5.17450E-01 4.84514E-30
5.21810E-01 4.71696E-30
5.26168E-01 4.58917E-30
5.30524E-01 4.46151E-30
5.34878E-01 4.33385E-30
5.39230E-01 4.20609E-30
5.43578E-01 4.07823E-30
5.47923E-01 3.95033E-30
5.52264E-01 3.82247E-30
5.56602E-01 3.69479E-30
5.60935E-01 3.56745E-30
5.65263E-01 3.44064E-30
5.69587E-01 3.31455E-30
5.73905E-01 3.18939E-30
5.78217E-01 3.06537E-30
5.82524E-01 2.94271E-30
5.86824E-01 2.82162E-30
5.91118E-01 2.70231E-30
5.95404E-01 2.58496E-30
5.99684E-01 2.46977E-30
6.03956E-01 2.35691E-30
6.08220E-01 2.24653E-30
6.12476E-01 2.13880E-30
6.16723E-01 2.03382E-30
6.20961E-01 1.93173E-30
6.25190E-01 1.83261E-30
6.29410E-01 1.73656E-30
6.33619E-01 1.64364E-30
6.37819E-01 1.55390E-30
6.42008E-01 1.46738E-30
6.46186E-01 1.38411E-30
6.50353E-01 1.30410E-30
6.54508E-01 1.22734E-30
6.58652E-01 1.15383E-30
6.62784E-01 1.08353E-30
6.66903E-01 1.01642E-30
6.71010E-01 9.52451E-31
6.75104E-01 8.91571E-31
6.79184E-01 8.33720E-31
6.83251E-01 7.78833E-31
6.87303E-01 7.26835E-31
6.91342E-01 6.77651E-31
6.95366E-01 6.31198E-31
6.99375E-01 5.87390E-31
7.03368E-01 5.46138E-31
7.07347E-01 5.07351E-31
7.11309E-01 4.70936E-31
7.15256E-01 4.36799E-31
7.19186E-01 4.04845E-31
7.23099E-01 3.74979E-31
7.26995E-01 3.47106E-31
7.30874E-01 3.21132E-31
7.34736E-01 2.96963E-31
7.38579E-01 2.74508E-31
7.42405E-01 2.53677E-31
7.46212E-01 2.34380E-31
7.50000E-01 2.16533E-31
7.53769E-01 2.00051E-31
7.57519E-01 1.84853E-31
7.61249E-01 1.70860E-31
7.64960E-01 1.57997E-31
7.68650E-01 1.46189E-31
7.72320E-01 1.35368E-31
7.75968E-01 1.25465E-31
7.79596E-01 1.16416E-31
7.83203E-01 1.08160E-31
7.86788E-01 1.00638E-31
7.90351E-01 9.37957E-32
7.93893E-01 8.75795E-32
7.97411E-01 8.19401E-32
8.00908E-01 7.68305E-32
8.04381E-01 7.22066E-32
8.07831E-01 6.80268E-32
8.11257E-01 6.42523E-32
8.14660E-01 6.08467E-32
8.18039E-01 5.77760E-32
8.21394E-01 5.50085E-32
8.24724E-01 5.25148E-32
8.28030E-01 5.02675E-32
8.31310E-01 4.82415E-32
8.34565E-01 4.64133E-32
8.37795E-01 4.47615E-32
8.40999E-01 4.32664E-32
8.44177E-01 4.19099E-32
8.47329E-01 4.06754E-32
8.50455E-01 3.95479E-32
8.53553E-01 3.85138E-32
8.56625E-01 3.75606E-32
8.59670E-01 3.66771E-32
8.62687E-01 3.58534E-32
8.65677E-01 3.50803E-32
8.68639E-01 3.43499E-32
8.71572E-01 3.36551E-32
8.74478E-01 3.29895E-32
8.77355E-01 3.23476E-32
8.80203E-01 3.17246E-32
8.83022E-01 3.11162E-32
8.85812E-01 3.05190E-32
8.88573E-01 2.99297E-32
8.91304E-01 2.93460E-32
8.94005E-01 2.87655E-32
8.96677E-01 2.81866E-32
8.99318E-01 2.76078E-32
9.01928E-01 2.70282E-32
9.04508E-01 2.64469E-32
9.07058E-01 2.58633E-32
9.09576E-01 2.52772E-32
9.12063E-01 2.46885E-32
9.14519E-01 2.40971E-32
9.16943E-01 2.35032E-32
9.19335E-01 2.29071E-32
9.21696E-01 2.23093E-32
9.24024E-01 2.17102E-32
9.26320E-01 2.11104E-32
9.28584E-01 2.05104E-32
9.30815E-01 1.99109E-32
9.33013E-01 1.93125E-32
9.35178E-01 1.87160E-32
9.37310E-01 1.81220E-32
9.39409E-01 1.75312E-32
9.41474E-01 1.69444E-32
9.43505E-01 1.63621E-32
9.45503E-01 1.57850E-32
9.47467E-01 1.52139E-32
9.49397E-01 1.46492E-32
9.51293E-01 1.40916E-32
9.53154E-01 1.35416E-32
9.54981E-01 1.29998E-32
9.56773E-01 1.24666E-32
9.58530E-01 1.19425E-32
9.60252E-01 1.14278E-32
9.61940E-01 1.09231E-32
9.63592E-01 1.04286E-32
9.65209E-01 9.94463E-33
9.66790E-01 9.47151E-33
9.68336E-01 9.00947E-33
9.69846E-01 8.55873E-33
9.71321E-01 8.11948E-33
9.72759E-01 7.69189E-33
9.74162E-01 7.27608E-33
9.75528E-01 6.87216E-33
9.76858E-01 6.48023E-33
9.78152E-01 6.10032E-33
9.79410E-01 5.73250E-33
9.80631E-01 5.37677E-33
9.81815E-01 5.03315E-33
9.82963E-01 4.70161E-33
9.84074E-01 4.38212E-33
9.85148E-01 4.07465E-33
9.86185E-01 3.77913E-33
9.87185E-01 3.49551E-33
9.88148E-01 3.22371E-33
9.89074E-01 2.96365E-33
9.89962E-01 2.71524E-33
9.90814E-01 2.47839E-33
9.91627E-01 2.25300E-33
9.92404E-01 2.03897E-33
9.93143E-01 1.83620E-33
9.93844E-01 1.64459E-33
9.94508E-01 1.46403E-33
9.95134E-01 1.29442E-33
9.95722E-01 1.13566E-33
9.96273E-01 9.87657E-34
9.96786E-01 8.50311E-34
9.97261E-01 7.23533E-34
9.97698E-01 6.07237E-34
9.98097E-01 5.01342E-34
9.98459E-01 4.05772E-34
9.98782E-01 3.20456E-34
9.99067E-01 2.45332E-34
9.99315E-01 1.80343E-34
9.99524E-01 1.25437E-34
9.99695E-01 8.05741E-35
9.99829E-01 4.57176E-35
9.99924E-01 2.08393E-35
9.99981E-01 5.92083E-36
1.00000E+00 9.49247E-37
