 #
 # Subroutine ELSEPA. Elastic scattering of electrons and positrons
 #                    by neutral atoms and positive ions
 #
 # Projectile: electron
 # Kinetic energy = 1.00000E+08 eV = 3.67493E+06 a.u.
 #
 # WARNING: High-energy factorization with free-atom DF screening.
 #          Absorption, polarization and exchange corrections are
 #          switched off.
 #          Phase shifts are calculated for the bare nucleus.
 #          Scattering amplitudes are not evaluated.
 #
 # Element: Th,  Z =  90,  atomic weight = 2.32038E+02 g/mol
 #
 # Nuclear model: Fermi distribution
 #                Average radius = 6.57512E-13 cm
 #                Skin thickness = 5.46000E-14 cm
 #
 # Number of electrons = 90
 #
 # Total elastic cross section = 1.18699E-17 cm**2 = 4.23883E-01 a0**2
 # 1st transport cross section = 1.51206E-24 cm**2 = 5.39965E-08 a0**2
 # 2nd transport cross section = 4.49944E-24 cm**2 = 1.60678E-07 a0**2
 #
 #
 # Differential cross section:                       MU=(1-COS(THETA))/2
 #
 #  THETA        MU          DCS          DCS        Sherman      error
 #  (deg)                 (cm**2/sr)   (a0**2/sr)    function
 #----------------------------------------------------------------------
0.00000E+00 1.47524E-09
7.61557E-13 1.46927E-09
1.18994E-12 1.46594E-09
1.71346E-12 1.46188E-09
2.33225E-12 1.45711E-09
3.04617E-12 1.45163E-09
3.85530E-12 1.44547E-09
4.75964E-12 1.43863E-09
5.75917E-12 1.43113E-09
6.85391E-12 1.42300E-09
8.04379E-12 1.41423E-09
9.32893E-12 1.40487E-09
1.07092E-11 1.39492E-09
1.21847E-11 1.38441E-09
1.37554E-11 1.37337E-09
1.54213E-11 1.36181E-09
1.71823E-11 1.34976E-09
1.90386E-11 1.33725E-09
2.09900E-11 1.32429E-09
2.30367E-11 1.31093E-09
2.51785E-11 1.29718E-09
2.74156E-11 1.28307E-09
2.97478E-11 1.26862E-09
3.21752E-11 1.25386E-09
3.46979E-11 1.23880E-09
3.73157E-11 1.22351E-09
4.00286E-11 1.20799E-09
4.28368E-11 1.19226E-09
4.57402E-11 1.17634E-09
4.87388E-11 1.16025E-09
5.18325E-11 1.14404E-09
5.50215E-11 1.12774E-09
5.83057E-11 1.11135E-09
6.16850E-11 1.09488E-09
6.51595E-11 1.07836E-09
6.87293E-11 1.06180E-09
7.23943E-11 1.04528E-09
7.61544E-11 1.02878E-09
1.18991E-10 8.67840E-10
1.71347E-10 7.22615E-10
2.33223E-10 5.98799E-10
3.04617E-10 4.96705E-10
3.85531E-10 4.14037E-10
4.75965E-10 3.47555E-10
5.75917E-10 2.94046E-10
6.85389E-10 2.50733E-10
8.04380E-10 2.15357E-10
9.32891E-10 1.86211E-10
1.07092E-09 1.61980E-10
1.21847E-09 1.41665E-10
1.37554E-09 1.24503E-10
1.54213E-09 1.09903E-10
1.71823E-09 9.73963E-11
1.90386E-09 8.66440E-11
2.09900E-09 7.73570E-11
2.30367E-09 6.92267E-11
2.51785E-09 6.18748E-11
2.74156E-09 5.56364E-11
2.97478E-09 5.03109E-11
3.21752E-09 4.57384E-11
3.46978E-09 4.17909E-11
3.73156E-09 3.80465E-11
4.00286E-09 3.46718E-11
4.28368E-09 3.17319E-11
4.57402E-09 2.91593E-11
4.87388E-09 2.68983E-11
5.18326E-09 2.48489E-11
5.50215E-09 2.28804E-11
5.83057E-09 2.11377E-11
6.16850E-09 1.95892E-11
6.51596E-09 1.82087E-11
6.87293E-09 1.69738E-11
7.23942E-09 1.57771E-11
7.61544E-09 1.46804E-11
1.18991E-08 7.75130E-12
1.71347E-08 4.47955E-12
2.33223E-08 2.77425E-12
3.04617E-08 1.81595E-12
3.85531E-08 1.23923E-12
4.75965E-08 8.73414E-13
5.75917E-08 6.32479E-13
6.85389E-08 4.67794E-13
8.04380E-08 3.53543E-13
9.32891E-08 2.72418E-13
1.07092E-07 2.13400E-13
1.21847E-07 1.69595E-13
1.37554E-07 1.36550E-13
1.54213E-07 1.11246E-13
1.71823E-07 9.15763E-14
1.90386E-07 7.60839E-14
2.09900E-07 6.37369E-14
2.30367E-07 5.37878E-14
2.51785E-07 4.56887E-14
2.74156E-07 3.91234E-14
2.97478E-07 3.36478E-14
3.21752E-07 2.91342E-14
3.46978E-07 2.53369E-14
3.73156E-07 2.21521E-14
4.00286E-07 1.94501E-14
4.28368E-07 1.71511E-14
4.57402E-07 1.51849E-14
4.87388E-07 1.34909E-14
5.18325E-07 1.20313E-14
5.50215E-07 1.07598E-14
5.83057E-07 9.65718E-15
6.16850E-07 8.68725E-15
6.51596E-07 7.84016E-15
6.87293E-07 7.09060E-15
7.23942E-07 6.43051E-15
7.61543E-07 5.84402E-15
1.18991E-06 2.49990E-15
1.71347E-06 1.23964E-15
2.33223E-06 6.83133E-16
3.04617E-06 4.07024E-16
3.85531E-06 2.57445E-16
4.75964E-06 1.70681E-16
5.75916E-06 1.17554E-16
6.85388E-06 8.35643E-17
8.04378E-06 6.10066E-17
9.32888E-06 4.55673E-17
1.07092E-05 3.47148E-17
1.21846E-05 2.69083E-17
1.37553E-05 2.11779E-17
1.54212E-05 1.68950E-17
1.71822E-05 1.36425E-17
1.90385E-05 1.11290E-17
2.09899E-05 9.18217E-18
2.30365E-05 7.64155E-18
2.51783E-05 6.40890E-18
2.74153E-05 5.41353E-18
2.97475E-05 4.60344E-18
3.21749E-05 3.93943E-18
3.46974E-05 3.39140E-18
3.73152E-05 2.93594E-18
4.00281E-05 2.55481E-18
4.28362E-05 2.23373E-18
4.57395E-05 1.96155E-18
4.87380E-05 1.72951E-18
5.18317E-05 1.53070E-18
5.50205E-05 1.35960E-18
5.83045E-05 1.21174E-18
6.16838E-05 1.08347E-18
6.51582E-05 9.71764E-19
6.87277E-05 8.74123E-19
7.23925E-05 7.88465E-19
7.61524E-05 7.12585E-19
9.21439E-05 4.87988E-19
1.09658E-04 3.45344E-19
1.28695E-04 2.51255E-19
1.49255E-04 1.87160E-19
1.71338E-04 1.42279E-19
1.94942E-04 1.10097E-19
2.20070E-04 8.65325E-20
2.46720E-04 6.89577E-20
2.74892E-04 5.56355E-20
3.04586E-04 4.53862E-20
3.35803E-04 3.73980E-20
3.68542E-04 3.10965E-20
4.02802E-04 2.60718E-20
4.38585E-04 2.20254E-20
4.75889E-04 1.87367E-20
5.14715E-04 1.60419E-20
5.55063E-04 1.38164E-20
5.96931E-04 1.19653E-20
6.40321E-04 1.04155E-20
6.85233E-04 9.10978E-21
7.31665E-04 8.00344E-21
7.79618E-04 7.06087E-21
8.29092E-04 6.25382E-21
8.80086E-04 5.55949E-21
9.32601E-04 4.95944E-21
9.86636E-04 4.43870E-21
1.04219E-03 3.98498E-21
1.09927E-03 3.58815E-21
1.15786E-03 3.23981E-21
1.21797E-03 2.93305E-21
1.27961E-03 2.66199E-21
1.34276E-03 2.42176E-21
1.40743E-03 2.20823E-21
1.47362E-03 2.01789E-21
1.54133E-03 1.84778E-21
1.61056E-03 1.69536E-21
1.68131E-03 1.55846E-21
1.75357E-03 1.43521E-21
1.82735E-03 1.32401E-21
1.90265E-03 1.22346E-21
1.97947E-03 1.13235E-21
2.05780E-03 1.04964E-21
2.13765E-03 9.74400E-22
2.21902E-03 9.05842E-22
2.30190E-03 8.43261E-22
2.38630E-03 7.86037E-22
2.47222E-03 7.33630E-22
2.55965E-03 6.85560E-22
2.64859E-03 6.41406E-22
2.73905E-03 6.00800E-22
2.83103E-03 5.63357E-22
2.92452E-03 5.28783E-22
3.01952E-03 4.96841E-22
3.11604E-03 4.67292E-22
3.21407E-03 4.39924E-22
3.31362E-03 4.14543E-22
3.41468E-03 3.90980E-22
3.51725E-03 3.69078E-22
3.62133E-03 3.48698E-22
3.72692E-03 3.29713E-22
3.83403E-03 3.12011E-22
3.94265E-03 2.95488E-22
4.05278E-03 2.80050E-22
4.16442E-03 2.65612E-22
4.27757E-03 2.52097E-22
4.39223E-03 2.39434E-22
4.50840E-03 2.27560E-22
4.62608E-03 2.16416E-22
4.74527E-03 2.05947E-22
4.86597E-03 1.96106E-22
4.98817E-03 1.86847E-22
5.11188E-03 1.78130E-22
5.23711E-03 1.69915E-22
5.36383E-03 1.62170E-22
5.49207E-03 1.54861E-22
5.62181E-03 1.47959E-22
5.75306E-03 1.41438E-22
5.88581E-03 1.35272E-22
6.02007E-03 1.29437E-22
6.15583E-03 1.23914E-22
6.29310E-03 1.18681E-22
6.43187E-03 1.13721E-22
6.57214E-03 1.09017E-22
6.71392E-03 1.04552E-22
6.85720E-03 1.00313E-22
7.00198E-03 9.62852E-23
7.14827E-03 9.24566E-23
7.29605E-03 8.88153E-23
7.44534E-03 8.53503E-23
7.59612E-03 8.20514E-23
7.97965E-03 7.44702E-23
8.37255E-03 6.77371E-23
8.77480E-03 6.17404E-23
9.18641E-03 5.63852E-23
9.60736E-03 5.15904E-23
1.00376E-02 4.72871E-23
1.04773E-02 4.34158E-23
1.09262E-02 3.99254E-23
1.13844E-02 3.67717E-23
1.18520E-02 3.39166E-23
1.23288E-02 3.13266E-23
1.28150E-02 2.89729E-23
1.33104E-02 2.68301E-23
1.38150E-02 2.48759E-23
1.43290E-02 2.30909E-23
1.48521E-02 2.14578E-23
1.53845E-02 1.99614E-23
1.59262E-02 1.85884E-23
1.64770E-02 1.73268E-23
1.70371E-02 1.61660E-23
1.76063E-02 1.50965E-23
1.81848E-02 1.41101E-23
1.87724E-02 1.31991E-23
1.93692E-02 1.23568E-23
1.99751E-02 1.15771E-23
2.05901E-02 1.08547E-23
2.12143E-02 1.01846E-23
2.18476E-02 9.56249E-24
2.24900E-02 8.98429E-24
2.31415E-02 8.44643E-24
2.38021E-02 7.94565E-24
2.44717E-02 7.47899E-24
2.51504E-02 7.04377E-24
2.58382E-02 6.63752E-24
2.65349E-02 6.25804E-24
2.72407E-02 5.90327E-24
2.79555E-02 5.57139E-24
2.86793E-02 5.26067E-24
2.94120E-02 4.96959E-24
3.01537E-02 4.69670E-24
3.09043E-02 4.44072E-24
3.16639E-02 4.20044E-24
3.24324E-02 3.97477E-24
3.32098E-02 3.76268E-24
3.39961E-02 3.56326E-24
3.47912E-02 3.37563E-24
3.55952E-02 3.19902E-24
3.64081E-02 3.03268E-24
3.72297E-02 2.87594E-24
3.80602E-02 2.72817E-24
3.88995E-02 2.58879E-24
3.97476E-02 2.45727E-24
4.06044E-02 2.33311E-24
4.14700E-02 2.21584E-24
4.23443E-02 2.10503E-24
4.32273E-02 2.00030E-24
4.41190E-02 1.90126E-24
4.50194E-02 1.80756E-24
4.59284E-02 1.71890E-24
4.68461E-02 1.63496E-24
4.87074E-02 1.48016E-24
5.06030E-02 1.34114E-24
5.25328E-02 1.21613E-24
5.44967E-02 1.10358E-24
5.64946E-02 1.00215E-24
5.85262E-02 9.10622E-25
6.05914E-02 8.27957E-25
6.26901E-02 7.53224E-25
6.48222E-02 6.85600E-25
6.69873E-02 6.24357E-25
6.91854E-02 5.68849E-25
7.14163E-02 5.18501E-25
7.36799E-02 4.72801E-25
7.59760E-02 4.31293E-25
7.83043E-02 3.93567E-25
8.06647E-02 3.59261E-25
8.30571E-02 3.28045E-25
8.54812E-02 2.99628E-25
8.79369E-02 2.73746E-25
9.04240E-02 2.50163E-25
9.29422E-02 2.28664E-25
9.54915E-02 2.09059E-25
9.80716E-02 1.91174E-25
1.00682E-01 1.74852E-25
1.03323E-01 1.59953E-25
1.05995E-01 1.46348E-25
1.08696E-01 1.33922E-25
1.11427E-01 1.22570E-25
1.14188E-01 1.12197E-25
1.16978E-01 1.02716E-25
1.19797E-01 9.40489E-26
1.22645E-01 8.61251E-26
1.25522E-01 7.88794E-26
1.28428E-01 7.22531E-26
1.31361E-01 6.61924E-26
1.34323E-01 6.06485E-26
1.37313E-01 5.55770E-26
1.40330E-01 5.09371E-26
1.43375E-01 4.66919E-26
1.46447E-01 4.28077E-26
1.49545E-01 3.92535E-26
1.52671E-01 3.60013E-26
1.55823E-01 3.30252E-26
1.59001E-01 3.03018E-26
1.62205E-01 2.78095E-26
1.65435E-01 2.55288E-26
1.68690E-01 2.34416E-26
1.71970E-01 2.15315E-26
1.75276E-01 1.97835E-26
1.78606E-01 1.81838E-26
1.81961E-01 1.67197E-26
1.85340E-01 1.53798E-26
1.88743E-01 1.41535E-26
1.92169E-01 1.30312E-26
1.95619E-01 1.20039E-26
1.99092E-01 1.10636E-26
2.02589E-01 1.02029E-26
2.06107E-01 9.41493E-27
2.09649E-01 8.69350E-27
2.13212E-01 8.03291E-27
2.16797E-01 7.42795E-27
2.20404E-01 6.87384E-27
2.24032E-01 6.36622E-27
2.27680E-01 5.90107E-27
2.31350E-01 5.47474E-27
2.35040E-01 5.08387E-27
2.38751E-01 4.72541E-27
2.42481E-01 4.39654E-27
2.46231E-01 4.09469E-27
2.50000E-01 3.81753E-27
2.53788E-01 3.56291E-27
2.57595E-01 3.32886E-27
2.61421E-01 3.11359E-27
2.65264E-01 2.91548E-27
2.69126E-01 2.73301E-27
2.73005E-01 2.56484E-27
2.76901E-01 2.40970E-27
2.80814E-01 2.26646E-27
2.84744E-01 2.13410E-27
2.88691E-01 2.01165E-27
2.92653E-01 1.89826E-27
2.96632E-01 1.79314E-27
3.00625E-01 1.69557E-27
3.04634E-01 1.60491E-27
3.08658E-01 1.52055E-27
3.12697E-01 1.44196E-27
3.16749E-01 1.36865E-27
3.20816E-01 1.30017E-27
3.24896E-01 1.23611E-27
3.28990E-01 1.17609E-27
3.33097E-01 1.11980E-27
3.37216E-01 1.06691E-27
3.41348E-01 1.01716E-27
3.45492E-01 9.70288E-28
3.49647E-01 9.26069E-28
3.53814E-01 8.84295E-28
3.57992E-01 8.44778E-28
3.62181E-01 8.07347E-28
3.66381E-01 7.71846E-28
3.70590E-01 7.38136E-28
3.74810E-01 7.06087E-28
3.79039E-01 6.75585E-28
3.83277E-01 6.46524E-28
3.87524E-01 6.18808E-28
3.91780E-01 5.92350E-28
3.96044E-01 5.67071E-28
4.00316E-01 5.42899E-28
4.04596E-01 5.19769E-28
4.08882E-01 4.97621E-28
4.13176E-01 4.76399E-28
4.17476E-01 4.56055E-28
4.21783E-01 4.36542E-28
4.26095E-01 4.17819E-28
4.30413E-01 3.99846E-28
4.34737E-01 3.82590E-28
4.39065E-01 3.66016E-28
4.43398E-01 3.50094E-28
4.47736E-01 3.34797E-28
4.52077E-01 3.20098E-28
4.56422E-01 3.05974E-28
4.60770E-01 2.92400E-28
4.65122E-01 2.79357E-28
4.69476E-01 2.66824E-28
4.73832E-01 2.54782E-28
4.78190E-01 2.43214E-28
4.82550E-01 2.32102E-28
4.86912E-01 2.21430E-28
4.91274E-01 2.11183E-28
4.95637E-01 2.01347E-28
5.00000E-01 1.91907E-28
5.04363E-01 1.82850E-28
5.08726E-01 1.74162E-28
5.13088E-01 1.65832E-28
5.17450E-01 1.57847E-28
5.21810E-01 1.50196E-28
5.26168E-01 1.42867E-28
5.30524E-01 1.35850E-28
5.34878E-01 1.29133E-28
5.39230E-01 1.22706E-28
5.43578E-01 1.16559E-28
5.47923E-01 1.10683E-28
5.52264E-01 1.05068E-28
5.56602E-01 9.97045E-29
5.60935E-01 9.45834E-29
5.65263E-01 8.96960E-29
5.69587E-01 8.50338E-29
5.73905E-01 8.05884E-29
5.78217E-01 7.63515E-29
5.82524E-01 7.23154E-29
5.86824E-01 6.84722E-29
5.91118E-01 6.48145E-29
5.95404E-01 6.13349E-29
5.99684E-01 5.80264E-29
6.03956E-01 5.48819E-29
6.08220E-01 5.18948E-29
6.12476E-01 4.90586E-29
6.16723E-01 4.63668E-29
6.20961E-01 4.38135E-29
6.25190E-01 4.13925E-29
6.29410E-01 3.90982E-29
6.33619E-01 3.69250E-29
6.37819E-01 3.48674E-29
6.42008E-01 3.29202E-29
6.46186E-01 3.10784E-29
6.50353E-01 2.93371E-29
6.54508E-01 2.76915E-29
6.58652E-01 2.61371E-29
6.62784E-01 2.46696E-29
6.66903E-01 2.32847E-29
6.71010E-01 2.19784E-29
6.75104E-01 2.07467E-29
6.79184E-01 1.95859E-29
6.83251E-01 1.84924E-29
6.87303E-01 1.74628E-29
6.91342E-01 1.64936E-29
6.95366E-01 1.55817E-29
6.99375E-01 1.47242E-29
7.03368E-01 1.39179E-29
7.07347E-01 1.31603E-29
7.11309E-01 1.24485E-29
7.15256E-01 1.17801E-29
7.19186E-01 1.11525E-29
7.23099E-01 1.05636E-29
7.26995E-01 1.00110E-29
7.30874E-01 9.49263E-30
7.34736E-01 9.00655E-30
7.38579E-01 8.55082E-30
7.42405E-01 8.12360E-30
7.46212E-01 7.72320E-30
7.50000E-01 7.34795E-30
7.53769E-01 6.99632E-30
7.57519E-01 6.66684E-30
7.61249E-01 6.35810E-30
7.64960E-01 6.06880E-30
7.68650E-01 5.79768E-30
7.72320E-01 5.54356E-30
7.75968E-01 5.30533E-30
7.79596E-01 5.08194E-30
7.83203E-01 4.87241E-30
7.86788E-01 4.67579E-30
7.90351E-01 4.49120E-30
7.93893E-01 4.31783E-30
7.97411E-01 4.15490E-30
8.00908E-01 4.00167E-30
8.04381E-01 3.85745E-30
8.07831E-01 3.72162E-30
8.11257E-01 3.59356E-30
8.14660E-01 3.47271E-30
8.18039E-01 3.35855E-30
8.21394E-01 3.25058E-30
8.24724E-01 3.14835E-30
8.28030E-01 3.05142E-30
8.31310E-01 2.95940E-30
8.34565E-01 2.87191E-30
8.37795E-01 2.78861E-30
8.40999E-01 2.70918E-30
8.44177E-01 2.63332E-30
8.47329E-01 2.56075E-30
8.50455E-01 2.49121E-30
8.53553E-01 2.42448E-30
8.56625E-01 2.36033E-30
8.59670E-01 2.29855E-30
8.62687E-01 2.23897E-30
8.65677E-01 2.18142E-30
8.68639E-01 2.12573E-30
8.71572E-01 2.07176E-30
8.74478E-01 2.01937E-30
8.77355E-01 1.96846E-30
8.80203E-01 1.91891E-30
8.83022E-01 1.87061E-30
8.85812E-01 1.82348E-30
8.88573E-01 1.77743E-30
8.91304E-01 1.73239E-30
8.94005E-01 1.68829E-30
8.96677E-01 1.64507E-30
8.99318E-01 1.60267E-30
9.01928E-01 1.56104E-30
9.04508E-01 1.52015E-30
9.07058E-01 1.47995E-30
9.09576E-01 1.44040E-30
9.12063E-01 1.40148E-30
9.14519E-01 1.36316E-30
9.16943E-01 1.32541E-30
9.19335E-01 1.28822E-30
9.21696E-01 1.25157E-30
9.24024E-01 1.21544E-30
9.26320E-01 1.17982E-30
9.28584E-01 1.14471E-30
9.30815E-01 1.11008E-30
9.33013E-01 1.07594E-30
9.35178E-01 1.04229E-30
9.37310E-01 1.00910E-30
9.39409E-01 9.76398E-31
9.41474E-01 9.44165E-31
9.43505E-01 9.12404E-31
9.45503E-01 8.81118E-31
9.47467E-01 8.50307E-31
9.49397E-01 8.19973E-31
9.51293E-01 7.90118E-31
9.53154E-01 7.60746E-31
9.54981E-01 7.31861E-31
9.56773E-01 7.03465E-31
9.58530E-01 6.75564E-31
9.60252E-01 6.48162E-31
9.61940E-01 6.21263E-31
9.63592E-01 5.94872E-31
9.65209E-01 5.68994E-31
9.66790E-01 5.43634E-31
9.68336E-01 5.18797E-31
9.69846E-01 4.94487E-31
9.71321E-01 4.70711E-31
9.72759E-01 4.47472E-31
9.74162E-01 4.24775E-31
9.75528E-01 4.02626E-31
9.76858E-01 3.81029E-31
9.78152E-01 3.59989E-31
9.79410E-01 3.39510E-31
9.80631E-01 3.19597E-31
9.81815E-01 3.00254E-31
9.82963E-01 2.81484E-31
9.84074E-01 2.63293E-31
9.85148E-01 2.45684E-31
9.86185E-01 2.28660E-31
9.87185E-01 2.12225E-31
9.88148E-01 1.96384E-31
9.89074E-01 1.81138E-31
9.89962E-01 1.66491E-31
9.90814E-01 1.52446E-31
9.91627E-01 1.39006E-31
9.92404E-01 1.26174E-31
9.93143E-01 1.13952E-31
9.93844E-01 1.02343E-31
9.94508E-01 9.13484E-32
9.95134E-01 8.09711E-32
9.95722E-01 7.12129E-32
9.96273E-01 6.20756E-32
9.96786E-01 5.35611E-32
9.97261E-01 4.56709E-32
9.97698E-01 3.84065E-32
9.98097E-01 3.17693E-32
9.98459E-01 2.57605E-32
9.98782E-01 2.03813E-32
9.99067E-01 1.56326E-32
9.99315E-01 1.15153E-32
9.99524E-01 8.03015E-33
9.99695E-01 5.17781E-33
9.99829E-01 2.95878E-33
9.99924E-01 1.37348E-33
9.99981E-01 4.22178E-34
1.00000E+00 1.05057E-34
