 #
 # Subroutine ELSEPA. Elastic scattering of electrons and positrons
 #                    by neutral atoms and positive ions
 #
 # Projectile: electron
 # Kinetic energy = 1.75000E+06 eV = 6.43113E+04 a.u.
 #
 # Element: Th,  Z =  90,  atomic weight = 2.32038E+02 g/mol
 #
 # Nuclear model: Fermi distribution
 #                Average radius = 6.57512E-13 cm
 #                Skin thickness = 5.46000E-14 cm
 #
 # Number of electrons = 90
 #
 # Electron density: Read from file Data/z_090.d
 #                   Number of data points =  821
 #                   Volume integral = 9.00000E+01
 #
 # Furness-McCarthy exchange potential
 #
 # Total elastic cross section = 1.24869E-17 cm**2 = 4.45916E-01 a0**2
 # 1st transport cross section = 2.58105E-21 cm**2 = 9.21708E-05 a0**2
 # 2nd transport cross section = 6.57916E-21 cm**2 = 2.34946E-04 a0**2
 #
 #
 # Differential cross section:                       MU=(1-COS(THETA))/2
 #
 #  THETA        MU          DCS          DCS        Sherman      error
 #  (deg)                 (cm**2/sr)   (a0**2/sr)    function
 #----------------------------------------------------------------------
0.00000E+00 7.44816E-13
7.61557E-13 7.44814E-13
1.18994E-12 7.44813E-13
1.71346E-12 7.44812E-13
2.33225E-12 7.44811E-13
3.04617E-12 7.44810E-13
3.85530E-12 7.44808E-13
4.75964E-12 7.44807E-13
5.75917E-12 7.44805E-13
6.85391E-12 7.44803E-13
8.04379E-12 7.44800E-13
9.32893E-12 7.44798E-13
1.07092E-11 7.44795E-13
1.21847E-11 7.44793E-13
1.37554E-11 7.44790E-13
1.54213E-11 7.44786E-13
1.71823E-11 7.44783E-13
1.90386E-11 7.44780E-13
2.09900E-11 7.44776E-13
2.30367E-11 7.44772E-13
2.51785E-11 7.44768E-13
2.74156E-11 7.44764E-13
2.97478E-11 7.44759E-13
3.21752E-11 7.44755E-13
3.46979E-11 7.44750E-13
3.73157E-11 7.44745E-13
4.00286E-11 7.44740E-13
4.28368E-11 7.44734E-13
4.57402E-11 7.44729E-13
4.87388E-11 7.44723E-13
5.18325E-11 7.44717E-13
5.50215E-11 7.44711E-13
5.83057E-11 7.44705E-13
6.16850E-11 7.44698E-13
6.51595E-11 7.44692E-13
6.87293E-11 7.44685E-13
7.23943E-11 7.44678E-13
7.61544E-11 7.44671E-13
1.18991E-10 7.44589E-13
1.71347E-10 7.44490E-13
2.33223E-10 7.44372E-13
3.04617E-10 7.44237E-13
3.85531E-10 7.44083E-13
4.75965E-10 7.43911E-13
5.75917E-10 7.43722E-13
6.85389E-10 7.43514E-13
8.04380E-10 7.43288E-13
9.32891E-10 7.43045E-13
1.07092E-09 7.42783E-13
1.21847E-09 7.42504E-13
1.37554E-09 7.42207E-13
1.54213E-09 7.41892E-13
1.71823E-09 7.41559E-13
1.90386E-09 7.41209E-13
2.09900E-09 7.40841E-13
2.30367E-09 7.40455E-13
2.51785E-09 7.40052E-13
2.74156E-09 7.39631E-13
2.97478E-09 7.39192E-13
3.21752E-09 7.38736E-13
3.46978E-09 7.38263E-13
3.73156E-09 7.37772E-13
4.00286E-09 7.37265E-13
4.28368E-09 7.36739E-13
4.57402E-09 7.36197E-13
4.87388E-09 7.35638E-13
5.18326E-09 7.35061E-13
5.50215E-09 7.34468E-13
5.83057E-09 7.33857E-13
6.16850E-09 7.33230E-13
6.51596E-09 7.32586E-13
6.87293E-09 7.31926E-13
7.23942E-09 7.31248E-13
7.61544E-09 7.30555E-13
1.18991E-08 7.22725E-13
1.71347E-08 7.13337E-13
2.33223E-08 7.02493E-13
3.04617E-08 6.90309E-13
3.85531E-08 6.76910E-13
4.75965E-08 6.62426E-13
5.75917E-08 6.46997E-13
6.85389E-08 6.30762E-13
8.04380E-08 6.13858E-13
9.32891E-08 5.96424E-13
1.07092E-07 5.78591E-13
1.21847E-07 5.60485E-13
1.37554E-07 5.42225E-13
1.54213E-07 5.23919E-13
1.71823E-07 5.05668E-13
1.90386E-07 4.87563E-13
2.09900E-07 4.69683E-13
2.30367E-07 4.52098E-13
2.51785E-07 4.34868E-13
2.74156E-07 4.18044E-13
2.97478E-07 4.01667E-13
3.21752E-07 3.85770E-13
3.46978E-07 3.70377E-13
3.73156E-07 3.55508E-13
4.00286E-07 3.41173E-13
4.28368E-07 3.27379E-13
4.57402E-07 3.14127E-13
4.87388E-07 3.01413E-13
5.18325E-07 2.89233E-13
5.50215E-07 2.77575E-13
5.83057E-07 2.66428E-13
6.16850E-07 2.55778E-13
6.51596E-07 2.45609E-13
6.87293E-07 2.35906E-13
7.23942E-07 2.26651E-13
7.61543E-07 2.17825E-13
1.18991E-06 1.49328E-13
1.71347E-06 1.06213E-13
2.33223E-06 7.79684E-14
3.04617E-06 5.86837E-14
3.85531E-06 4.50773E-14
4.75964E-06 3.52374E-14
5.75916E-06 2.79803E-14
6.85388E-06 2.25360E-14
8.04378E-06 1.83862E-14
9.32888E-06 1.51748E-14
1.07092E-05 1.26534E-14
1.21846E-05 1.06469E-14
1.37553E-05 9.03040E-15
1.54212E-05 7.71371E-15
1.71822E-05 6.63083E-15
1.90385E-05 5.73267E-15
2.09899E-05 4.98224E-15
2.30365E-05 4.35114E-15
2.51783E-05 3.81732E-15
2.74153E-05 3.36341E-15
2.97475E-05 2.97557E-15
3.21749E-05 2.64265E-15
3.46974E-05 2.35561E-15
3.73152E-05 2.10710E-15
4.00281E-05 1.89105E-15
4.28362E-05 1.70247E-15
4.57395E-05 1.53723E-15
4.87380E-05 1.39189E-15
5.18317E-05 1.26359E-15
5.50205E-05 1.14994E-15
5.83045E-05 1.04893E-15
6.16838E-05 9.58861E-16
6.51582E-05 8.78313E-16
6.87277E-05 8.06073E-16
7.23925E-05 7.41112E-16
7.61524E-05 6.82549E-16
9.21439E-05 4.98688E-16
1.09658E-04 3.72339E-16
1.28695E-04 2.83308E-16
1.49255E-04 2.19267E-16
1.71338E-04 1.72358E-16
1.94942E-04 1.37414E-16
2.20070E-04 1.10967E-16
2.46720E-04 9.06475E-17
2.74892E-04 7.48161E-17
3.04586E-04 6.23225E-17
3.35803E-04 5.23478E-17
3.68542E-04 4.43006E-17
4.02802E-04 3.77475E-17
4.38585E-04 3.23661E-17
4.75889E-04 2.79130E-17
5.14715E-04 2.42025E-17
5.55063E-04 2.10910E-17
5.96931E-04 1.84661E-17
6.40321E-04 1.62394E-17
6.85233E-04 1.43405E-17
7.31665E-04 1.27133E-17
7.79618E-04 1.13121E-17
8.29092E-04 1.01003E-17
8.80086E-04 9.04767E-18
9.32601E-04 8.12971E-18
9.86636E-04 7.32608E-18
1.04219E-03 6.61995E-18
1.09927E-03 5.99736E-18
1.15786E-03 5.44660E-18
1.21797E-03 4.95788E-18
1.27961E-03 4.52292E-18
1.34276E-03 4.13473E-18
1.40743E-03 3.78735E-18
1.47362E-03 3.47572E-18
1.54133E-03 3.19549E-18
1.61056E-03 2.94293E-18
1.68131E-03 2.71481E-18
1.75357E-03 2.50834E-18
1.82735E-03 2.32110E-18
1.90265E-03 2.15099E-18
1.97947E-03 1.99616E-18
2.05780E-03 1.85500E-18
2.13765E-03 1.72608E-18
2.21902E-03 1.60817E-18
2.30190E-03 1.50015E-18
2.38630E-03 1.40105E-18
2.47222E-03 1.31000E-18
2.55965E-03 1.22623E-18
2.64859E-03 1.14907E-18
2.73905E-03 1.07789E-18
2.83103E-03 1.01215E-18
2.92452E-03 9.51362E-19
3.01952E-03 8.95084E-19
3.11604E-03 8.42922E-19
3.21407E-03 7.94521E-19
3.31362E-03 7.49560E-19
3.41468E-03 7.07751E-19
3.51725E-03 6.68833E-19
3.62133E-03 6.32569E-19
3.72692E-03 5.98744E-19
3.83403E-03 5.67165E-19
3.94265E-03 5.37654E-19
4.05278E-03 5.10052E-19
4.16442E-03 4.84210E-19
4.27757E-03 4.59997E-19
4.39223E-03 4.37291E-19
4.50840E-03 4.15979E-19
4.62608E-03 3.95960E-19
4.74527E-03 3.77140E-19
4.86597E-03 3.59435E-19
4.98817E-03 3.42765E-19
5.11188E-03 3.27059E-19
5.23711E-03 3.12249E-19
5.36383E-03 2.98276E-19
5.49207E-03 2.85082E-19
5.62181E-03 2.72616E-19
5.75306E-03 2.60831E-19
5.88581E-03 2.49680E-19
6.02007E-03 2.39125E-19
6.15583E-03 2.29126E-19
6.29310E-03 2.19650E-19
6.43187E-03 2.10662E-19
6.57214E-03 2.02134E-19
6.71392E-03 1.94037E-19
6.85720E-03 1.86345E-19
7.00198E-03 1.79034E-19
7.14827E-03 1.72082E-19
7.29605E-03 1.65466E-19
7.44534E-03 1.59169E-19
7.59612E-03 1.53171E-19
7.97965E-03 1.39378E-19
8.37255E-03 1.27118E-19
8.77480E-03 1.16188E-19
9.18641E-03 1.06420E-19
9.60736E-03 9.76673E-20
1.00376E-02 8.98055E-20
1.04773E-02 8.27276E-20
1.09262E-02 7.63413E-20
1.13844E-02 7.05668E-20
1.18520E-02 6.53348E-20
1.23288E-02 6.05852E-20
1.28150E-02 5.62654E-20
1.33104E-02 5.23293E-20
1.38150E-02 4.87366E-20
1.43290E-02 4.54520E-20
1.48521E-02 4.24440E-20
1.53845E-02 3.96851E-20
1.59262E-02 3.71509E-20
1.64770E-02 3.48196E-20
1.70371E-02 3.26720E-20
1.76063E-02 3.06909E-20
1.81848E-02 2.88610E-20
1.87724E-02 2.71685E-20
1.93692E-02 2.56013E-20
1.99751E-02 2.41482E-20
2.05901E-02 2.27995E-20
2.12143E-02 2.15461E-20
2.18476E-02 2.03800E-20
2.24900E-02 1.92940E-20
2.31415E-02 1.82816E-20
2.38021E-02 1.73368E-20
2.44717E-02 1.64541E-20
2.51504E-02 1.56288E-20
2.58382E-02 1.48563E-20
2.65349E-02 1.41326E-20
2.72407E-02 1.34541E-20
2.79555E-02 1.28173E-20
2.86793E-02 1.22192E-20
2.94120E-02 1.16569E-20
3.01537E-02 1.11279E-20
3.09043E-02 1.06299E-20
3.16639E-02 1.01606E-20
3.24324E-02 9.71801E-21
3.32098E-02 9.30037E-21
3.39961E-02 8.90597E-21
3.47912E-02 8.53323E-21
3.55952E-02 8.18074E-21
3.64081E-02 7.84717E-21
3.72297E-02 7.53128E-21
3.80602E-02 7.23196E-21
3.88995E-02 6.94814E-21
3.97476E-02 6.67887E-21
4.06044E-02 6.42323E-21
4.14700E-02 6.18040E-21
4.23443E-02 5.94960E-21
4.32273E-02 5.73010E-21
4.41190E-02 5.52123E-21
4.50194E-02 5.32238E-21
4.59284E-02 5.13295E-21
4.68461E-02 4.95241E-21
4.87074E-02 4.61598E-21
5.06030E-02 4.30944E-21
5.25328E-02 4.02958E-21
5.44967E-02 3.77361E-21
5.64946E-02 3.53904E-21
5.85262E-02 3.32372E-21
6.05914E-02 3.12573E-21
6.26901E-02 2.94338E-21
6.48222E-02 2.77516E-21
6.69873E-02 2.61974E-21
6.91854E-02 2.47594E-21
7.14163E-02 2.34268E-21
7.36799E-02 2.21904E-21
7.59760E-02 2.10414E-21
7.83043E-02 1.99725E-21
8.06647E-02 1.89767E-21
8.30571E-02 1.80478E-21
8.54812E-02 1.71804E-21
8.79369E-02 1.63693E-21
9.04240E-02 1.56102E-21
9.29422E-02 1.48988E-21
9.54915E-02 1.42315E-21
9.80716E-02 1.36048E-21
1.00682E-01 1.30157E-21
1.03323E-01 1.24614E-21
1.05995E-01 1.19393E-21
1.08696E-01 1.14471E-21
1.11427E-01 1.09826E-21
1.14188E-01 1.05439E-21
1.16978E-01 1.01292E-21
1.19797E-01 9.73690E-22
1.22645E-01 9.36539E-22
1.25522E-01 9.01332E-22
1.28428E-01 8.67942E-22
1.31361E-01 8.36249E-22
1.34323E-01 8.06145E-22
1.37313E-01 7.77530E-22
1.40330E-01 7.50309E-22
1.43375E-01 7.24397E-22
1.46447E-01 6.99713E-22
1.49545E-01 6.76184E-22
1.52671E-01 6.53741E-22
1.55823E-01 6.32321E-22
1.59001E-01 6.11863E-22
1.62205E-01 5.92313E-22
1.65435E-01 5.73619E-22
1.68690E-01 5.55732E-22
1.71970E-01 5.38609E-22
1.75276E-01 5.22207E-22
1.78606E-01 5.06488E-22
1.81961E-01 4.91416E-22
1.85340E-01 4.76955E-22
1.88743E-01 4.63074E-22
1.92169E-01 4.49742E-22
1.95619E-01 4.36932E-22
1.99092E-01 4.24618E-22
2.02589E-01 4.12775E-22
2.06107E-01 4.01379E-22
2.09649E-01 3.90408E-22
2.13212E-01 3.79842E-22
2.16797E-01 3.69662E-22
2.20404E-01 3.59849E-22
2.24032E-01 3.50386E-22
2.27680E-01 3.41257E-22
2.31350E-01 3.32446E-22
2.35040E-01 3.23940E-22
2.38751E-01 3.15724E-22
2.42481E-01 3.07785E-22
2.46231E-01 3.00112E-22
2.50000E-01 2.92692E-22
2.53788E-01 2.85515E-22
2.57595E-01 2.78571E-22
2.61421E-01 2.71849E-22
2.65264E-01 2.65341E-22
2.69126E-01 2.59036E-22
2.73005E-01 2.52928E-22
2.76901E-01 2.47007E-22
2.80814E-01 2.41267E-22
2.84744E-01 2.35701E-22
2.88691E-01 2.30301E-22
2.92653E-01 2.25061E-22
2.96632E-01 2.19974E-22
3.00625E-01 2.15035E-22
3.04634E-01 2.10238E-22
3.08658E-01 2.05578E-22
3.12697E-01 2.01050E-22
3.16749E-01 1.96649E-22
3.20816E-01 1.92369E-22
3.24896E-01 1.88207E-22
3.28990E-01 1.84159E-22
3.33097E-01 1.80220E-22
3.37216E-01 1.76387E-22
3.41348E-01 1.72656E-22
3.45492E-01 1.69023E-22
3.49647E-01 1.65484E-22
3.53814E-01 1.62037E-22
3.57992E-01 1.58679E-22
3.62181E-01 1.55406E-22
3.66381E-01 1.52216E-22
3.70590E-01 1.49107E-22
3.74810E-01 1.46074E-22
3.79039E-01 1.43116E-22
3.83277E-01 1.40230E-22
3.87524E-01 1.37415E-22
3.91780E-01 1.34667E-22
3.96044E-01 1.31986E-22
4.00316E-01 1.29368E-22
4.04596E-01 1.26811E-22
4.08882E-01 1.24314E-22
4.13176E-01 1.21876E-22
4.17476E-01 1.19493E-22
4.21783E-01 1.17165E-22
4.26095E-01 1.14890E-22
4.30413E-01 1.12667E-22
4.34737E-01 1.10493E-22
4.39065E-01 1.08368E-22
4.43398E-01 1.06289E-22
4.47736E-01 1.04256E-22
4.52077E-01 1.02268E-22
4.56422E-01 1.00323E-22
4.60770E-01 9.84194E-23
4.65122E-01 9.65567E-23
4.69476E-01 9.47336E-23
4.73832E-01 9.29490E-23
4.78190E-01 9.12019E-23
4.82550E-01 8.94912E-23
4.86912E-01 8.78161E-23
4.91274E-01 8.61755E-23
4.95637E-01 8.45685E-23
5.00000E-01 8.29943E-23
5.04363E-01 8.14519E-23
5.08726E-01 7.99406E-23
5.13088E-01 7.84595E-23
5.17450E-01 7.70080E-23
5.21810E-01 7.55853E-23
5.26168E-01 7.41905E-23
5.30524E-01 7.28231E-23
5.34878E-01 7.14823E-23
5.39230E-01 7.01675E-23
5.43578E-01 6.88781E-23
5.47923E-01 6.76134E-23
5.52264E-01 6.63729E-23
5.56602E-01 6.51559E-23
5.60935E-01 6.39620E-23
5.65263E-01 6.27905E-23
5.69587E-01 6.16409E-23
5.73905E-01 6.05128E-23
5.78217E-01 5.94056E-23
5.82524E-01 5.83188E-23
5.86824E-01 5.72520E-23
5.91118E-01 5.62048E-23
5.95404E-01 5.51766E-23
5.99684E-01 5.41671E-23
6.03956E-01 5.31759E-23
6.08220E-01 5.22024E-23
6.12476E-01 5.12465E-23
6.16723E-01 5.03076E-23
6.20961E-01 4.93854E-23
6.25190E-01 4.84795E-23
6.29410E-01 4.75896E-23
6.33619E-01 4.67154E-23
6.37819E-01 4.58565E-23
6.42008E-01 4.50126E-23
6.46186E-01 4.41834E-23
6.50353E-01 4.33686E-23
6.54508E-01 4.25678E-23
6.58652E-01 4.17809E-23
6.62784E-01 4.10074E-23
6.66903E-01 4.02472E-23
6.71010E-01 3.95000E-23
6.75104E-01 3.87655E-23
6.79184E-01 3.80435E-23
6.83251E-01 3.73337E-23
6.87303E-01 3.66359E-23
6.91342E-01 3.59499E-23
6.95366E-01 3.52753E-23
6.99375E-01 3.46121E-23
7.03368E-01 3.39600E-23
7.07347E-01 3.33188E-23
7.11309E-01 3.26882E-23
7.15256E-01 3.20681E-23
7.19186E-01 3.14583E-23
7.23099E-01 3.08586E-23
7.26995E-01 3.02688E-23
7.30874E-01 2.96887E-23
7.34736E-01 2.91182E-23
7.38579E-01 2.85571E-23
7.42405E-01 2.80052E-23
7.46212E-01 2.74624E-23
7.50000E-01 2.69284E-23
7.53769E-01 2.64032E-23
7.57519E-01 2.58865E-23
7.61249E-01 2.53784E-23
7.64960E-01 2.48785E-23
7.68650E-01 2.43867E-23
7.72320E-01 2.39030E-23
7.75968E-01 2.34272E-23
7.79596E-01 2.29591E-23
7.83203E-01 2.24986E-23
7.86788E-01 2.20457E-23
7.90351E-01 2.16001E-23
7.93893E-01 2.11618E-23
7.97411E-01 2.07306E-23
8.00908E-01 2.03065E-23
8.04381E-01 1.98892E-23
8.07831E-01 1.94788E-23
8.11257E-01 1.90751E-23
8.14660E-01 1.86780E-23
8.18039E-01 1.82874E-23
8.21394E-01 1.79032E-23
8.24724E-01 1.75253E-23
8.28030E-01 1.71536E-23
8.31310E-01 1.67880E-23
8.34565E-01 1.64284E-23
8.37795E-01 1.60748E-23
8.40999E-01 1.57271E-23
8.44177E-01 1.53851E-23
8.47329E-01 1.50488E-23
8.50455E-01 1.47180E-23
8.53553E-01 1.43929E-23
8.56625E-01 1.40732E-23
8.59670E-01 1.37588E-23
8.62687E-01 1.34498E-23
8.65677E-01 1.31460E-23
8.68639E-01 1.28473E-23
8.71572E-01 1.25538E-23
8.74478E-01 1.22652E-23
8.77355E-01 1.19816E-23
8.80203E-01 1.17030E-23
8.83022E-01 1.14291E-23
8.85812E-01 1.11601E-23
8.88573E-01 1.08957E-23
8.91304E-01 1.06360E-23
8.94005E-01 1.03809E-23
8.96677E-01 1.01303E-23
8.99318E-01 9.88422E-24
9.01928E-01 9.64257E-24
9.04508E-01 9.40530E-24
9.07058E-01 9.17235E-24
9.09576E-01 8.94368E-24
9.12063E-01 8.71925E-24
9.14519E-01 8.49900E-24
9.16943E-01 8.28290E-24
9.19335E-01 8.07088E-24
9.21696E-01 7.86291E-24
9.24024E-01 7.65893E-24
9.26320E-01 7.45892E-24
9.28584E-01 7.26284E-24
9.30815E-01 7.07063E-24
9.33013E-01 6.88227E-24
9.35178E-01 6.69771E-24
9.37310E-01 6.51691E-24
9.39409E-01 6.33983E-24
9.41474E-01 6.16645E-24
9.43505E-01 5.99673E-24
9.45503E-01 5.83064E-24
9.47467E-01 5.66813E-24
9.49397E-01 5.50919E-24
9.51293E-01 5.35376E-24
9.53154E-01 5.20184E-24
9.54981E-01 5.05338E-24
9.56773E-01 4.90835E-24
9.58530E-01 4.76674E-24
9.60252E-01 4.62851E-24
9.61940E-01 4.49363E-24
9.63592E-01 4.36208E-24
9.65209E-01 4.23383E-24
9.66790E-01 4.10886E-24
9.68336E-01 3.98714E-24
9.69846E-01 3.86865E-24
9.71321E-01 3.75338E-24
9.72759E-01 3.64129E-24
9.74162E-01 3.53236E-24
9.75528E-01 3.42658E-24
9.76858E-01 3.32391E-24
9.78152E-01 3.22436E-24
9.79410E-01 3.12789E-24
9.80631E-01 3.03449E-24
9.81815E-01 2.94414E-24
9.82963E-01 2.85682E-24
9.84074E-01 2.77252E-24
9.85148E-01 2.69121E-24
9.86185E-01 2.61290E-24
9.87185E-01 2.53755E-24
9.88148E-01 2.46517E-24
9.89074E-01 2.39573E-24
9.89962E-01 2.32922E-24
9.90814E-01 2.26563E-24
9.91627E-01 2.20494E-24
9.92404E-01 2.14715E-24
9.93143E-01 2.09225E-24
9.93844E-01 2.04022E-24
9.94508E-01 1.99106E-24
9.95134E-01 1.94476E-24
9.95722E-01 1.90131E-24
9.96273E-01 1.86069E-24
9.96786E-01 1.82290E-24
9.97261E-01 1.78795E-24
9.97698E-01 1.75581E-24
9.98097E-01 1.72649E-24
9.98459E-01 1.69998E-24
9.98782E-01 1.67627E-24
9.99067E-01 1.65536E-24
9.99315E-01 1.63724E-24
9.99524E-01 1.62192E-24
9.99695E-01 1.60938E-24
9.99829E-01 1.59964E-24
9.99924E-01 1.59269E-24
9.99981E-01 1.58852E-24
1.00000E+00 1.58713E-24
