 #
 # Subroutine ELSEPA. Elastic scattering of electrons and positrons
 #                    by neutral atoms and positive ions
 #
 # Projectile: electron
 # Kinetic energy = 4.50000E+08 eV = 1.65372E+07 a.u.
 #
 # WARNING: High-energy factorization with free-atom DF screening.
 #          Absorption, polarization and exchange corrections are
 #          switched off.
 #          Phase shifts are calculated for the bare nucleus.
 #          Scattering amplitudes are not evaluated.
 #
 # Element: Th,  Z =  90,  atomic weight = 2.32038E+02 g/mol
 #
 # Nuclear model: Fermi distribution
 #                Average radius = 6.57512E-13 cm
 #                Skin thickness = 5.46000E-14 cm
 #
 # Number of electrons = 90
 #
 # Total elastic cross section = 1.18617E-17 cm**2 = 4.23589E-01 a0**2
 # 1st transport cross section = 7.43079E-26 cm**2 = 2.65358E-09 a0**2
 # 2nd transport cross section = 2.22817E-25 cm**2 = 7.95695E-09 a0**2
 #
 #
 # Differential cross section:                       MU=(1-COS(THETA))/2
 #
 #  THETA        MU          DCS          DCS        Sherman      error
 #  (deg)                 (cm**2/sr)   (a0**2/sr)    function
 #----------------------------------------------------------------------
0.00000E+00 2.96378E-08
7.61557E-13 2.73757E-08
1.18994E-12 2.62239E-08
1.71346E-12 2.49201E-08
2.33225E-12 2.35116E-08
3.04617E-12 2.20433E-08
3.85530E-12 2.05554E-08
4.75964E-12 1.90822E-08
5.75917E-12 1.76510E-08
6.85391E-12 1.62840E-08
8.04379E-12 1.49941E-08
9.32893E-12 1.37893E-08
1.07092E-11 1.26737E-08
1.21847E-11 1.16474E-08
1.37554E-11 1.07088E-08
1.54213E-11 9.85388E-09
1.71823E-11 9.07654E-09
1.90386E-11 8.37091E-09
2.09900E-11 7.73105E-09
2.30367E-11 7.15102E-09
2.51785E-11 6.62499E-09
2.74156E-11 6.14733E-09
2.97478E-11 5.71314E-09
3.21752E-11 5.31797E-09
3.46979E-11 4.95777E-09
3.73157E-11 4.62887E-09
4.00286E-11 4.32740E-09
4.28368E-11 4.05106E-09
4.57402E-11 3.79732E-09
4.87388E-11 3.56392E-09
5.18325E-11 3.34888E-09
5.50215E-11 3.15010E-09
5.83057E-11 2.96601E-09
6.16850E-11 2.79558E-09
6.51595E-11 2.63756E-09
6.87293E-11 2.49085E-09
7.23943E-11 2.35446E-09
7.61544E-11 2.22710E-09
1.18991E-10 1.32698E-09
1.71347E-10 8.47463E-10
2.33223E-10 5.68037E-10
3.04617E-10 3.97728E-10
3.85531E-10 2.87937E-10
4.75965E-10 2.13990E-10
5.75917E-10 1.62462E-10
6.85389E-10 1.25273E-10
8.04380E-10 9.82552E-11
9.32891E-10 7.82678E-11
1.07092E-09 6.32016E-11
1.21847E-09 5.16527E-11
1.37554E-09 4.26479E-11
1.54213E-09 3.55073E-11
1.71823E-09 2.98127E-11
1.90386E-09 2.52185E-11
2.09900E-09 2.14744E-11
2.30367E-09 1.83959E-11
2.51785E-09 1.58366E-11
2.74156E-09 1.37078E-11
2.97478E-09 1.19153E-11
3.21752E-09 1.04015E-11
3.46978E-09 9.12168E-12
3.73156E-09 8.03438E-12
4.00286E-09 7.10417E-12
4.28368E-09 6.30652E-12
4.57402E-09 5.61895E-12
4.87388E-09 5.02339E-12
5.18326E-09 4.50519E-12
5.50215E-09 4.05201E-12
5.83057E-09 3.65439E-12
6.16850E-09 3.30484E-12
6.51596E-09 2.99656E-12
6.87293E-09 2.72384E-12
7.23942E-09 2.48185E-12
7.61544E-09 2.26619E-12
1.18991E-08 1.00910E-12
1.71347E-08 5.16326E-13
2.33223E-08 2.91525E-13
3.04617E-08 1.77043E-13
3.85531E-08 1.13639E-13
4.75965E-08 7.61964E-14
5.75917E-08 5.29490E-14
6.85389E-08 3.79164E-14
8.04380E-08 2.78581E-14
9.32891E-08 2.09269E-14
1.07092E-07 1.60264E-14
1.21847E-07 1.24823E-14
1.37554E-07 9.86739E-15
1.54213E-07 7.90354E-15
1.71823E-07 6.40515E-15
1.90386E-07 5.24563E-15
2.09900E-07 4.33694E-15
2.30367E-07 3.61665E-15
2.51785E-07 3.03973E-15
2.74156E-07 2.57326E-15
2.97478E-07 2.19282E-15
3.21752E-07 1.88006E-15
3.46978E-07 1.62106E-15
3.73156E-07 1.40510E-15
4.00286E-07 1.22389E-15
4.28368E-07 1.07094E-15
4.57402E-07 9.41137E-16
4.87388E-07 8.30398E-16
5.18325E-07 7.35466E-16
5.50215E-07 6.53713E-16
5.83057E-07 5.83005E-16
6.16850E-07 5.21600E-16
6.51596E-07 4.68069E-16
6.87293E-07 4.21231E-16
7.23942E-07 3.80108E-16
7.61543E-07 3.43883E-16
1.18991E-06 1.42110E-16
1.71347E-06 6.89590E-17
2.33223E-06 3.73937E-17
3.04617E-06 2.19965E-17
3.85531E-06 1.37699E-17
4.75964E-06 9.05416E-18
5.75916E-06 6.19506E-18
6.85388E-06 4.38050E-18
8.04378E-06 3.18424E-18
9.32888E-06 2.36983E-18
1.07092E-05 1.79991E-18
1.21846E-05 1.39147E-18
1.37553E-05 1.09259E-18
1.54212E-05 8.69816E-19
1.71822E-05 7.01037E-19
1.90385E-05 5.70890E-19
2.09899E-05 4.70277E-19
2.30365E-05 3.90799E-19
2.51783E-05 3.27311E-19
2.74153E-05 2.76124E-19
2.97475E-05 2.34525E-19
3.21749E-05 2.00474E-19
3.46974E-05 1.72405E-19
3.73152E-05 1.49105E-19
4.00281E-05 1.29629E-19
4.28362E-05 1.13240E-19
4.57395E-05 9.93601E-20
4.87380E-05 8.75393E-20
5.18317E-05 7.74209E-20
5.50205E-05 6.87199E-20
5.83045E-05 6.12067E-20
6.16838E-05 5.46941E-20
6.51582E-05 4.90269E-20
6.87277E-05 4.40768E-20
7.23925E-05 3.97371E-20
7.61524E-05 3.64484E-20
9.21439E-05 2.49920E-20
1.09658E-04 1.77138E-20
1.28695E-04 1.29099E-20
1.49255E-04 9.63380E-21
1.71338E-04 7.33479E-21
1.94942E-04 5.68356E-21
2.20070E-04 4.47231E-21
2.46720E-04 3.56721E-21
2.74892E-04 2.87978E-21
3.04586E-04 2.34986E-21
3.35803E-04 1.93605E-21
3.68542E-04 1.60901E-21
4.02802E-04 1.34776E-21
4.38585E-04 1.13703E-21
4.75889E-04 9.65507E-22
5.14715E-04 8.24768E-22
5.55063E-04 7.08399E-22
5.96931E-04 6.11522E-22
6.40321E-04 5.30348E-22
6.85233E-04 4.61925E-22
7.31665E-04 4.03936E-22
7.79618E-04 3.54530E-22
8.29092E-04 3.12239E-22
8.80086E-04 2.75874E-22
9.32601E-04 2.44473E-22
9.86636E-04 2.17252E-22
1.04219E-03 1.93567E-22
1.09927E-03 1.72888E-22
1.15786E-03 1.54774E-22
1.21797E-03 1.38857E-22
1.27961E-03 1.24830E-22
1.34276E-03 1.12436E-22
1.40743E-03 1.01455E-22
1.47362E-03 9.17021E-23
1.54133E-03 8.30204E-23
1.61056E-03 7.52746E-23
1.68131E-03 6.83496E-23
1.75357E-03 6.21461E-23
1.82735E-03 5.65782E-23
1.90265E-03 5.15720E-23
1.97947E-03 4.70629E-23
2.05780E-03 4.29952E-23
2.13765E-03 3.93198E-23
2.21902E-03 3.59940E-23
2.30190E-03 3.29803E-23
2.38630E-03 3.02457E-23
2.47222E-03 2.77613E-23
2.55965E-03 2.55013E-23
2.64859E-03 2.34431E-23
2.73905E-03 2.15666E-23
2.83103E-03 1.98538E-23
2.92452E-03 1.82891E-23
3.01952E-03 1.68580E-23
3.11604E-03 1.55481E-23
3.21407E-03 1.43479E-23
3.31362E-03 1.32474E-23
3.41468E-03 1.22375E-23
3.51725E-03 1.13100E-23
3.62133E-03 1.04575E-23
3.72692E-03 9.67339E-24
3.83403E-03 8.95173E-24
3.94265E-03 8.28712E-24
4.05278E-03 7.67465E-24
4.16442E-03 7.10991E-24
4.27757E-03 6.58888E-24
4.39223E-03 6.10792E-24
4.50840E-03 5.66373E-24
4.62608E-03 5.25330E-24
4.74527E-03 4.87388E-24
4.86597E-03 4.52297E-24
4.98817E-03 4.19830E-24
5.11188E-03 3.89778E-24
5.23711E-03 3.61951E-24
5.36383E-03 3.36176E-24
5.49207E-03 3.12292E-24
5.62181E-03 2.90155E-24
5.75306E-03 2.69629E-24
5.88581E-03 2.50592E-24
6.02007E-03 2.32932E-24
6.15583E-03 2.16544E-24
6.29310E-03 2.01333E-24
6.43187E-03 1.87212E-24
6.57214E-03 1.74099E-24
6.71392E-03 1.61921E-24
6.85720E-03 1.50608E-24
7.00198E-03 1.40097E-24
7.14827E-03 1.30330E-24
7.29605E-03 1.21253E-24
7.44534E-03 1.12816E-24
7.59612E-03 1.04973E-24
7.97965E-03 8.76910E-25
8.37255E-03 7.32795E-25
8.77480E-03 6.12564E-25
9.18641E-03 5.12229E-25
9.60736E-03 4.28482E-25
1.00376E-02 3.58577E-25
1.04773E-02 3.00227E-25
1.09262E-02 2.51528E-25
1.13844E-02 2.10889E-25
1.18520E-02 1.76984E-25
1.23288E-02 1.48703E-25
1.28150E-02 1.25118E-25
1.33104E-02 1.05452E-25
1.38150E-02 8.90548E-26
1.43290E-02 7.53836E-26
1.48521E-02 6.39829E-26
1.53845E-02 5.44721E-26
1.59262E-02 4.65331E-26
1.64770E-02 3.98999E-26
1.70371E-02 3.43507E-26
1.76063E-02 2.97005E-26
1.81848E-02 2.57952E-26
1.87724E-02 2.25067E-26
1.93692E-02 1.97286E-26
1.99751E-02 1.73727E-26
2.05901E-02 1.53660E-26
2.12143E-02 1.36483E-26
2.18476E-02 1.21700E-26
2.24900E-02 1.08901E-26
2.31415E-02 9.77524E-27
2.38021E-02 8.79790E-27
2.44717E-02 7.93570E-27
2.51504E-02 7.17035E-27
2.58382E-02 6.48695E-27
2.65349E-02 5.87342E-27
2.72407E-02 5.31991E-27
2.79555E-02 4.81842E-27
2.86793E-02 4.36244E-27
2.94120E-02 3.94666E-27
3.01537E-02 3.56672E-27
3.09043E-02 3.21902E-27
3.16639E-02 2.90056E-27
3.24324E-02 2.60882E-27
3.32098E-02 2.34165E-27
3.39961E-02 2.09718E-27
3.47912E-02 1.87377E-27
3.55952E-02 1.66994E-27
3.64081E-02 1.48436E-27
3.72297E-02 1.31580E-27
3.80602E-02 1.16309E-27
3.88995E-02 1.02515E-27
3.97476E-02 9.00937E-28
4.06044E-02 7.89468E-28
4.14700E-02 6.89791E-28
4.23443E-02 6.00994E-28
4.32273E-02 5.22206E-28
4.41190E-02 4.52587E-28
4.50194E-02 3.91339E-28
4.59284E-02 3.37700E-28
4.68461E-02 2.90946E-28
4.87074E-02 2.15399E-28
5.06030E-02 1.59717E-28
5.25328E-02 1.19574E-28
5.44967E-02 9.12904E-29
5.64946E-02 7.18081E-29
5.85262E-02 5.86476E-29
6.05914E-02 4.98518E-29
6.26901E-02 4.39228E-29
6.48222E-02 3.97546E-29
6.69873E-02 3.65659E-29
6.91854E-02 3.38365E-29
7.14163E-02 3.12482E-29
7.36799E-02 2.86333E-29
7.59760E-02 2.59302E-29
7.83043E-02 2.31473E-29
8.06647E-02 2.03338E-29
8.30571E-02 1.75578E-29
8.54812E-02 1.48911E-29
8.79369E-02 1.23979E-29
9.04240E-02 1.01291E-29
9.29422E-02 8.11950E-30
9.54915E-02 6.38694E-30
9.80716E-02 4.93398E-30
1.00682E-01 3.75018E-30
1.03323E-01 2.81500E-30
1.05995E-01 2.10091E-30
1.08696E-01 1.57633E-30
1.11427E-01 1.20815E-30
1.14188E-01 9.63937E-31
1.16978E-01 8.13478E-31
1.19797E-01 7.29958E-31
1.22645E-01 6.90601E-31
1.25522E-01 6.76943E-31
1.28428E-01 6.74775E-31
1.31361E-01 6.73857E-31
1.34323E-01 6.67447E-31
1.37313E-01 6.51750E-31
1.40330E-01 6.25316E-31
1.43375E-01 5.88455E-31
1.46447E-01 5.42689E-31
1.49545E-01 4.90267E-31
1.52671E-01 4.33772E-31
1.55823E-01 3.75805E-31
1.59001E-01 3.18749E-31
1.62205E-01 2.64624E-31
1.65435E-01 2.14994E-31
1.68690E-01 1.70946E-31
1.71970E-01 1.33098E-31
1.75276E-01 1.01646E-31
1.78606E-01 7.64330E-32
1.81961E-01 5.70238E-32
1.85340E-01 4.27848E-32
1.88743E-01 3.29600E-32
1.92169E-01 2.67390E-32
1.95619E-01 2.33142E-32
1.99092E-01 2.19254E-32
2.02589E-01 2.18930E-32
2.06107E-01 2.26378E-32
2.09649E-01 2.36919E-32
2.13212E-01 2.46999E-32
2.16797E-01 2.54128E-32
2.20404E-01 2.56775E-32
2.24032E-01 2.54228E-32
2.27680E-01 2.46434E-32
2.31350E-01 2.33835E-32
2.35040E-01 2.17220E-32
2.38751E-01 1.97577E-32
2.42481E-01 1.75978E-32
2.46231E-01 1.53480E-32
2.50000E-01 1.31053E-32
2.53788E-01 1.09527E-32
2.57595E-01 8.95641E-33
2.61421E-01 7.16466E-33
2.65264E-01 5.60778E-33
2.69126E-01 4.29966E-33
2.73005E-01 3.23988E-33
2.76901E-01 2.41632E-33
2.80814E-01 1.80797E-33
2.84744E-01 1.38771E-33
2.88691E-01 1.12492E-33
2.92653E-01 9.87797E-34
2.96632E-01 9.45253E-34
3.00625E-01 9.68411E-34
3.04634E-01 1.03169E-33
3.08658E-01 1.11346E-33
3.12697E-01 1.19641E-33
3.16749E-01 1.26751E-33
3.20816E-01 1.31782E-33
3.24896E-01 1.34209E-33
3.28990E-01 1.33824E-33
3.33097E-01 1.30676E-33
3.37216E-01 1.25013E-33
3.41348E-01 1.17219E-33
3.45492E-01 1.07766E-33
3.49647E-01 9.71613E-34
3.53814E-01 8.59107E-34
3.57992E-01 7.44872E-34
3.62181E-01 6.33086E-34
3.66381E-01 5.27225E-34
3.70590E-01 4.29990E-34
3.74810E-01 3.43289E-34
3.79039E-01 2.68271E-34
3.83277E-01 2.05397E-34
3.87524E-01 1.54530E-34
3.91780E-01 1.15046E-34
3.96044E-01 8.59501E-35
4.00316E-01 6.59873E-35
4.04596E-01 5.37493E-35
4.08882E-01 4.77682E-35
4.13176E-01 4.65960E-35
4.17476E-01 4.88683E-35
4.21783E-01 5.33522E-35
4.26095E-01 5.89785E-35
4.30413E-01 6.48597E-35
4.34737E-01 7.02965E-35
4.39065E-01 7.47730E-35
4.43398E-01 7.79449E-35
4.47736E-01 7.96212E-35
4.52077E-01 7.97423E-35
4.56422E-01 7.83559E-35
4.60770E-01 7.55929E-35
4.65122E-01 7.16437E-35
4.69476E-01 6.67363E-35
4.73832E-01 6.11173E-35
4.78190E-01 5.50350E-35
4.82550E-01 4.87268E-35
4.86912E-01 4.24089E-35
4.91274E-01 3.62688E-35
4.95637E-01 3.04617E-35
5.00000E-01 2.51083E-35
5.04363E-01 2.02945E-35
5.08726E-01 1.60739E-35
5.13088E-01 1.24703E-35
5.17450E-01 9.48137E-36
5.21810E-01 7.08351E-36
5.26168E-01 5.23586E-36
5.30524E-01 3.88505E-36
5.34878E-01 2.96929E-36
5.39230E-01 2.42233E-36
5.43578E-01 2.17672E-36
5.47923E-01 2.16668E-36
5.52264E-01 2.33031E-36
5.56602E-01 2.61132E-36
5.60935E-01 2.96013E-36
5.65263E-01 3.33460E-36
5.69587E-01 3.70023E-36
5.73905E-01 4.03014E-36
5.78217E-01 4.30458E-36
5.82524E-01 4.51042E-36
5.86824E-01 4.64042E-36
5.91118E-01 4.69232E-36
5.95404E-01 4.66804E-36
5.99684E-01 4.57276E-36
6.03956E-01 4.41406E-36
6.08220E-01 4.20123E-36
6.12476E-01 3.94452E-36
6.16723E-01 3.65450E-36
6.20961E-01 3.34164E-36
6.25190E-01 3.01591E-36
6.29410E-01 2.68641E-36
6.33619E-01 2.36117E-36
6.37819E-01 2.04706E-36
6.42008E-01 1.74974E-36
6.46186E-01 1.47351E-36
6.50353E-01 1.22155E-36
6.54508E-01 9.95888E-37
6.58652E-01 7.97531E-37
6.62784E-01 6.26580E-37
6.66903E-01 4.82395E-37
6.71010E-01 3.63703E-37
6.75104E-01 2.68774E-37
6.79184E-01 1.95496E-37
6.83251E-01 1.41557E-37
6.87303E-01 1.00000E-45
6.91342E-01 1.00000E-45
6.95366E-01 1.00000E-45
6.99375E-01 1.00000E-45
7.03368E-01 1.00000E-45
7.07347E-01 1.00000E-45
7.11309E-01 1.00000E-45
7.15256E-01 1.00000E-45
7.19186E-01 1.00000E-45
7.23099E-01 1.00000E-45
7.26995E-01 1.00000E-45
7.30874E-01 1.00000E-45
7.34736E-01 1.00000E-45
7.38579E-01 1.00000E-45
7.42405E-01 1.00000E-45
7.46212E-01 1.00000E-45
7.50000E-01 1.00000E-45
7.53769E-01 1.00000E-45
7.57519E-01 1.00000E-45
7.61249E-01 1.00000E-45
7.64960E-01 1.00000E-45
7.68650E-01 1.00000E-45
7.72320E-01 1.00000E-45
7.75968E-01 1.00000E-45
7.79596E-01 1.00000E-45
7.83203E-01 1.00000E-45
7.86788E-01 1.00000E-45
7.90351E-01 1.00000E-45
7.93893E-01 1.00000E-45
7.97411E-01 1.00000E-45
8.00908E-01 1.00000E-45
8.04381E-01 1.00000E-45
8.07831E-01 1.00000E-45
8.11257E-01 1.00000E-45
8.14660E-01 1.00000E-45
8.18039E-01 1.00000E-45
8.21394E-01 1.00000E-45
8.24724E-01 1.00000E-45
8.28030E-01 1.00000E-45
8.31310E-01 1.00000E-45
8.34565E-01 1.00000E-45
8.37795E-01 1.00000E-45
8.40999E-01 1.00000E-45
8.44177E-01 1.00000E-45
8.47329E-01 1.00000E-45
8.50455E-01 1.00000E-45
8.53553E-01 1.00000E-45
8.56625E-01 1.00000E-45
8.59670E-01 1.00000E-45
8.62687E-01 1.00000E-45
8.65677E-01 1.00000E-45
8.68639E-01 1.00000E-45
8.71572E-01 1.00000E-45
8.74478E-01 1.00000E-45
8.77355E-01 1.00000E-45
8.80203E-01 1.00000E-45
8.83022E-01 1.00000E-45
8.85812E-01 1.00000E-45
8.88573E-01 1.00000E-45
8.91304E-01 1.00000E-45
8.94005E-01 1.00000E-45
8.96677E-01 1.00000E-45
8.99318E-01 1.00000E-45
9.01928E-01 1.00000E-45
9.04508E-01 1.00000E-45
9.07058E-01 1.00000E-45
9.09576E-01 1.00000E-45
9.12063E-01 1.00000E-45
9.14519E-01 1.00000E-45
9.16943E-01 1.00000E-45
9.19335E-01 1.00000E-45
9.21696E-01 1.00000E-45
9.24024E-01 1.00000E-45
9.26320E-01 1.00000E-45
9.28584E-01 1.00000E-45
9.30815E-01 1.00000E-45
9.33013E-01 1.00000E-45
9.35178E-01 1.00000E-45
9.37310E-01 1.00000E-45
9.39409E-01 1.00000E-45
9.41474E-01 1.00000E-45
9.43505E-01 1.00000E-45
9.45503E-01 1.00000E-45
9.47467E-01 1.00000E-45
9.49397E-01 1.00000E-45
9.51293E-01 1.00000E-45
9.53154E-01 1.00000E-45
9.54981E-01 1.00000E-45
9.56773E-01 1.00000E-45
9.58530E-01 1.00000E-45
9.60252E-01 1.00000E-45
9.61940E-01 1.00000E-45
9.63592E-01 1.00000E-45
9.65209E-01 1.00000E-45
9.66790E-01 1.00000E-45
9.68336E-01 1.00000E-45
9.69846E-01 1.00000E-45
9.71321E-01 1.00000E-45
9.72759E-01 1.00000E-45
9.74162E-01 1.00000E-45
9.75528E-01 1.00000E-45
9.76858E-01 1.00000E-45
9.78152E-01 1.00000E-45
9.79410E-01 1.00000E-45
9.80631E-01 1.00000E-45
9.81815E-01 1.00000E-45
9.82963E-01 1.00000E-45
9.84074E-01 1.00000E-45
9.85148E-01 1.00000E-45
9.86185E-01 1.00000E-45
9.87185E-01 1.00000E-45
9.88148E-01 1.00000E-45
9.89074E-01 1.00000E-45
9.89962E-01 1.00000E-45
9.90814E-01 1.00000E-45
9.91627E-01 1.00000E-45
9.92404E-01 1.00000E-45
9.93143E-01 1.00000E-45
9.93844E-01 1.00000E-45
9.94508E-01 1.00000E-45
9.95134E-01 1.00000E-45
9.95722E-01 1.00000E-45
9.96273E-01 1.00000E-45
9.96786E-01 1.00000E-45
9.97261E-01 1.00000E-45
9.97698E-01 1.00000E-45
9.98097E-01 1.00000E-45
9.98459E-01 1.00000E-45
9.98782E-01 1.00000E-45
9.99067E-01 1.00000E-45
9.99315E-01 1.00000E-45
9.99524E-01 1.00000E-45
9.99695E-01 1.00000E-45
9.99829E-01 1.00000E-45
9.99924E-01 1.00000E-45
9.99981E-01 1.00000E-45
1.00000E+00 1.00000E-45
