 #
 # Subroutine ELSEPA. Elastic scattering of electrons and positrons
 #                    by neutral atoms and positive ions
 #
 # Projectile: electron
 # Kinetic energy = 9.00000E+06 eV = 3.30744E+05 a.u.
 #
 # WARNING: High-energy factorization with free-atom DF screening.
 #          Absorption, polarization and exchange corrections are
 #          switched off.
 #          Phase shifts are calculated for the bare nucleus.
 #          Scattering amplitudes are not evaluated.
 #
 # Element: Th,  Z =  90,  atomic weight = 2.32038E+02 g/mol
 #
 # Nuclear model: Fermi distribution
 #                Average radius = 6.57512E-13 cm
 #                Skin thickness = 5.46000E-14 cm
 #
 # Number of electrons = 90
 #
 # Total elastic cross section = 1.19108E-17 cm**2 = 4.25342E-01 a0**2
 # 1st transport cross section = 1.61720E-22 cm**2 = 5.77511E-06 a0**2
 # 2nd transport cross section = 4.35771E-22 cm**2 = 1.55616E-05 a0**2
 #
 #
 # Differential cross section:                       MU=(1-COS(THETA))/2
 #
 #  THETA        MU          DCS          DCS        Sherman      error
 #  (deg)                 (cm**2/sr)   (a0**2/sr)    function
 #----------------------------------------------------------------------
0.00000E+00 1.32095E-11
7.61557E-13 1.32090E-11
1.18994E-12 1.32088E-11
1.71346E-12 1.32084E-11
2.33225E-12 1.32081E-11
3.04617E-12 1.32076E-11
3.85530E-12 1.32071E-11
4.75964E-12 1.32065E-11
5.75917E-12 1.32059E-11
6.85391E-12 1.32052E-11
8.04379E-12 1.32045E-11
9.32893E-12 1.32037E-11
1.07092E-11 1.32028E-11
1.21847E-11 1.32019E-11
1.37554E-11 1.32009E-11
1.54213E-11 1.31998E-11
1.71823E-11 1.31987E-11
1.90386E-11 1.31976E-11
2.09900E-11 1.31963E-11
2.30367E-11 1.31951E-11
2.51785E-11 1.31937E-11
2.74156E-11 1.31923E-11
2.97478E-11 1.31909E-11
3.21752E-11 1.31893E-11
3.46979E-11 1.31878E-11
3.73157E-11 1.31861E-11
4.00286E-11 1.31844E-11
4.28368E-11 1.31827E-11
4.57402E-11 1.31809E-11
4.87388E-11 1.31790E-11
5.18325E-11 1.31771E-11
5.50215E-11 1.31751E-11
5.83057E-11 1.31730E-11
6.16850E-11 1.31709E-11
6.51595E-11 1.31687E-11
6.87293E-11 1.31665E-11
7.23943E-11 1.31642E-11
7.61544E-11 1.31619E-11
1.18991E-10 1.31352E-11
1.71347E-10 1.31028E-11
2.33223E-10 1.30646E-11
3.04617E-10 1.30207E-11
3.85531E-10 1.29713E-11
4.75965E-10 1.29164E-11
5.75917E-10 1.28562E-11
6.85389E-10 1.27908E-11
8.04380E-10 1.27203E-11
9.32891E-10 1.26449E-11
1.07092E-09 1.25646E-11
1.21847E-09 1.24798E-11
1.37554E-09 1.23905E-11
1.54213E-09 1.22969E-11
1.71823E-09 1.21992E-11
1.90386E-09 1.20976E-11
2.09900E-09 1.19922E-11
2.30367E-09 1.18833E-11
2.51785E-09 1.17710E-11
2.74156E-09 1.16557E-11
2.97478E-09 1.15373E-11
3.21752E-09 1.14162E-11
3.46978E-09 1.12925E-11
3.73156E-09 1.11664E-11
4.00286E-09 1.10381E-11
4.28368E-09 1.09080E-11
4.57402E-09 1.07761E-11
4.87388E-09 1.06426E-11
5.18326E-09 1.05076E-11
5.50215E-09 1.03713E-11
5.83057E-09 1.02340E-11
6.16850E-09 1.00961E-11
6.51596E-09 9.95747E-12
6.87293E-09 9.81818E-12
7.23942E-09 9.67843E-12
7.61544E-09 9.53838E-12
1.18991E-08 8.15813E-12
1.71347E-08 6.88151E-12
2.33223E-08 5.76636E-12
3.04617E-08 4.82802E-12
3.85531E-08 4.05498E-12
4.75965E-08 3.42442E-12
5.75917E-08 2.91147E-12
6.85389E-08 2.49283E-12
8.04380E-08 2.14903E-12
9.32891E-08 1.86463E-12
1.07092E-07 1.62738E-12
1.21847E-07 1.42756E-12
1.37554E-07 1.25829E-12
1.54213E-07 1.11396E-12
1.71823E-07 9.90017E-13
1.90386E-07 8.82985E-13
2.09900E-07 7.90278E-13
2.30367E-07 7.09633E-13
2.51785E-07 6.39092E-13
2.74156E-07 5.74287E-13
2.97478E-07 5.18418E-13
3.21752E-07 4.70408E-13
3.46978E-07 4.28934E-13
3.73156E-07 3.92927E-13
4.00286E-07 3.61065E-13
4.28368E-07 3.29860E-13
4.57402E-07 3.02547E-13
4.87388E-07 2.78542E-13
5.18325E-07 2.57358E-13
5.50215E-07 2.38594E-13
5.83057E-07 2.21289E-13
6.16850E-07 2.04720E-13
6.51596E-07 1.89951E-13
6.87293E-07 1.76745E-13
7.23942E-07 1.64899E-13
7.61543E-07 1.54243E-13
1.18991E-06 8.19052E-14
1.71347E-06 4.76448E-14
2.33223E-06 2.96965E-14
3.04617E-06 1.95167E-14
3.85531E-06 1.33704E-14
4.75964E-06 9.46566E-15
5.75916E-06 6.88011E-15
6.85388E-06 5.10938E-15
8.04378E-06 3.86797E-15
9.32888E-06 2.98463E-15
1.07092E-05 2.34163E-15
1.21846E-05 1.86312E-15
1.37553E-05 1.50148E-15
1.54212E-05 1.22418E-15
1.71822E-05 1.00860E-15
1.90385E-05 8.38199E-16
2.09899E-05 7.03520E-16
2.30365E-05 5.94759E-16
2.51783E-05 5.06028E-16
2.74153E-05 4.32785E-16
2.97475E-05 3.72744E-16
3.21749E-05 3.22691E-16
3.46974E-05 2.80810E-16
3.73152E-05 2.45689E-16
4.00281E-05 2.15796E-16
4.28362E-05 1.90508E-16
4.57395E-05 1.68683E-16
4.87380E-05 1.49996E-16
5.18317E-05 1.33792E-16
5.50205E-05 1.19732E-16
5.83045E-05 1.07492E-16
6.16838E-05 9.67515E-17
6.51582E-05 8.73689E-17
6.87277E-05 7.90510E-17
7.23925E-05 7.17353E-17
7.61524E-05 6.52235E-17
9.21439E-05 4.55534E-17
1.09658E-04 3.27480E-17
1.28695E-04 2.41368E-17
1.49255E-04 1.81772E-17
1.71338E-04 1.39487E-17
1.94942E-04 1.08819E-17
2.20070E-04 8.61540E-18
2.46720E-04 6.91097E-18
2.74892E-04 5.60908E-18
3.04586E-04 4.60037E-18
3.35803E-04 3.80922E-18
3.68542E-04 3.18139E-18
4.02802E-04 2.67788E-18
4.38585E-04 2.27028E-18
4.75889E-04 1.93742E-18
5.14715E-04 1.66346E-18
5.55063E-04 1.43622E-18
5.96931E-04 1.24652E-18
6.40321E-04 1.08714E-18
6.85233E-04 9.52442E-19
7.31665E-04 8.37971E-19
7.79618E-04 7.40194E-19
8.29092E-04 6.56284E-19
8.80086E-04 5.83936E-19
9.32601E-04 5.21293E-19
9.86636E-04 4.66839E-19
1.04219E-03 4.19321E-19
1.09927E-03 3.77704E-19
1.15786E-03 3.41131E-19
1.21797E-03 3.08888E-19
1.27961E-03 2.80373E-19
1.34276E-03 2.55079E-19
1.40743E-03 2.32581E-19
1.47362E-03 2.12516E-19
1.54133E-03 1.94574E-19
1.61056E-03 1.78491E-19
1.68131E-03 1.64041E-19
1.75357E-03 1.51029E-19
1.82735E-03 1.39285E-19
1.90265E-03 1.28665E-19
1.97947E-03 1.19042E-19
2.05780E-03 1.10306E-19
2.13765E-03 1.02359E-19
2.21902E-03 9.51178E-20
2.30190E-03 8.85086E-20
2.38630E-03 8.24661E-20
2.47222E-03 7.69327E-20
2.55965E-03 7.18576E-20
2.64859E-03 6.71964E-20
2.73905E-03 6.29086E-20
2.83103E-03 5.89594E-20
2.92452E-03 5.53171E-20
3.01952E-03 5.19527E-20
3.11604E-03 4.88418E-20
3.21407E-03 4.59618E-20
3.31362E-03 4.32918E-20
3.41468E-03 4.08141E-20
3.51725E-03 3.85123E-20
3.62133E-03 3.63715E-20
3.72692E-03 3.43781E-20
3.83403E-03 3.25205E-20
3.94265E-03 3.07875E-20
4.05278E-03 2.91690E-20
4.16442E-03 2.76563E-20
4.27757E-03 2.62412E-20
4.39223E-03 2.49159E-20
4.50840E-03 2.36739E-20
4.62608E-03 2.25090E-20
4.74527E-03 2.14153E-20
4.86597E-03 2.03877E-20
4.98817E-03 1.94216E-20
5.11188E-03 1.85125E-20
5.23711E-03 1.76564E-20
5.36383E-03 1.68496E-20
5.49207E-03 1.60888E-20
5.62181E-03 1.53708E-20
5.75306E-03 1.46928E-20
5.88581E-03 1.40522E-20
6.02007E-03 1.34463E-20
6.15583E-03 1.28731E-20
6.29310E-03 1.23304E-20
6.43187E-03 1.18163E-20
6.57214E-03 1.13290E-20
6.71392E-03 1.08668E-20
6.85720E-03 1.04282E-20
7.00198E-03 1.00118E-20
7.14827E-03 9.61613E-21
7.29605E-03 9.24008E-21
7.44534E-03 8.88240E-21
7.59612E-03 8.54209E-21
7.97965E-03 7.76074E-21
8.37255E-03 7.06776E-21
8.77480E-03 6.45135E-21
9.18641E-03 5.90155E-21
9.60736E-03 5.40986E-21
1.00376E-02 4.96904E-21
1.04773E-02 4.57286E-21
1.09262E-02 4.21599E-21
1.13844E-02 3.89380E-21
1.18520E-02 3.60232E-21
1.23288E-02 3.33807E-21
1.28150E-02 3.09804E-21
1.33104E-02 2.87961E-21
1.38150E-02 2.68045E-21
1.43290E-02 2.49856E-21
1.48521E-02 2.33215E-21
1.53845E-02 2.17967E-21
1.59262E-02 2.03971E-21
1.64770E-02 1.91107E-21
1.70371E-02 1.79265E-21
1.76063E-02 1.68348E-21
1.81848E-02 1.58270E-21
1.87724E-02 1.48955E-21
1.93692E-02 1.40333E-21
1.99751E-02 1.32342E-21
2.05901E-02 1.24929E-21
2.12143E-02 1.18042E-21
2.18476E-02 1.11637E-21
2.24900E-02 1.05674E-21
2.31415E-02 1.00116E-21
2.38021E-02 9.49301E-22
2.44717E-02 9.00867E-22
2.51504E-02 8.55585E-22
2.58382E-02 8.13210E-22
2.65349E-02 7.73518E-22
2.72407E-02 7.36304E-22
2.79555E-02 7.01383E-22
2.86793E-02 6.68584E-22
2.94120E-02 6.37752E-22
3.01537E-02 6.08747E-22
3.09043E-02 5.81435E-22
3.16639E-02 5.55700E-22
3.24324E-02 5.31432E-22
3.32098E-02 5.08529E-22
3.39961E-02 4.86899E-22
3.47912E-02 4.66455E-22
3.55952E-02 4.47121E-22
3.64081E-02 4.28822E-22
3.72297E-02 4.11493E-22
3.80602E-02 3.95070E-22
3.88995E-02 3.79496E-22
3.97476E-02 3.64719E-22
4.06044E-02 3.50688E-22
4.14700E-02 3.37358E-22
4.23443E-02 3.24687E-22
4.32273E-02 3.12635E-22
4.41190E-02 3.01165E-22
4.50194E-02 2.90243E-22
4.59284E-02 2.79838E-22
4.68461E-02 2.69919E-22
4.87074E-02 2.51432E-22
5.06030E-02 2.34582E-22
5.25328E-02 2.19194E-22
5.44967E-02 2.05115E-22
5.64946E-02 1.92210E-22
5.85262E-02 1.80361E-22
6.05914E-02 1.69462E-22
6.26901E-02 1.59422E-22
6.48222E-02 1.50157E-22
6.69873E-02 1.41596E-22
6.91854E-02 1.33673E-22
7.14163E-02 1.26330E-22
7.36799E-02 1.19515E-22
7.59760E-02 1.13182E-22
7.83043E-02 1.07289E-22
8.06647E-02 1.01799E-22
8.30571E-02 9.66780E-23
8.54812E-02 9.18956E-23
8.79369E-02 8.74242E-23
9.04240E-02 8.32389E-23
9.29422E-02 7.93172E-23
9.54915E-02 7.56390E-23
9.80716E-02 7.21854E-23
1.00682E-01 6.89393E-23
1.03323E-01 6.58856E-23
1.05995E-01 6.30103E-23
1.08696E-01 6.03002E-23
1.11427E-01 5.77435E-23
1.14188E-01 5.53301E-23
1.16978E-01 5.30494E-23
1.19797E-01 5.08923E-23
1.22645E-01 4.88511E-23
1.25522E-01 4.69176E-23
1.28428E-01 4.50847E-23
1.31361E-01 4.33462E-23
1.34323E-01 4.16959E-23
1.37313E-01 4.01281E-23
1.40330E-01 3.86378E-23
1.43375E-01 3.72203E-23
1.46447E-01 3.58710E-23
1.49545E-01 3.45859E-23
1.52671E-01 3.33611E-23
1.55823E-01 3.21932E-23
1.59001E-01 3.10788E-23
1.62205E-01 3.00149E-23
1.65435E-01 2.89986E-23
1.68690E-01 2.80273E-23
1.71970E-01 2.70983E-23
1.75276E-01 2.62096E-23
1.78606E-01 2.53587E-23
1.81961E-01 2.45438E-23
1.85340E-01 2.37630E-23
1.88743E-01 2.30144E-23
1.92169E-01 2.22963E-23
1.95619E-01 2.16073E-23
1.99092E-01 2.09458E-23
2.02589E-01 2.03104E-23
2.06107E-01 1.97000E-23
2.09649E-01 1.91131E-23
2.13212E-01 1.85488E-23
2.16797E-01 1.80059E-23
2.20404E-01 1.74833E-23
2.24032E-01 1.69802E-23
2.27680E-01 1.64956E-23
2.31350E-01 1.60287E-23
2.35040E-01 1.55786E-23
2.38751E-01 1.51446E-23
2.42481E-01 1.47260E-23
2.46231E-01 1.43221E-23
2.50000E-01 1.39322E-23
2.53788E-01 1.35557E-23
2.57595E-01 1.31921E-23
2.61421E-01 1.28408E-23
2.65264E-01 1.25012E-23
2.69126E-01 1.21730E-23
2.73005E-01 1.18555E-23
2.76901E-01 1.15485E-23
2.80814E-01 1.12513E-23
2.84744E-01 1.09637E-23
2.88691E-01 1.06853E-23
2.92653E-01 1.04157E-23
2.96632E-01 1.01545E-23
3.00625E-01 9.90154E-24
3.04634E-01 9.65638E-24
3.08658E-01 9.41879E-24
3.12697E-01 9.18816E-24
3.16749E-01 8.96423E-24
3.20816E-01 8.74697E-24
3.24896E-01 8.53614E-24
3.28990E-01 8.33149E-24
3.33097E-01 8.13280E-24
3.37216E-01 7.93985E-24
3.41348E-01 7.75244E-24
3.45492E-01 7.57035E-24
3.49647E-01 7.39342E-24
3.53814E-01 7.22144E-24
3.57992E-01 7.05426E-24
3.62181E-01 6.89170E-24
3.66381E-01 6.73359E-24
3.70590E-01 6.57980E-24
3.74810E-01 6.43018E-24
3.79039E-01 6.28457E-24
3.83277E-01 6.14285E-24
3.87524E-01 6.00489E-24
3.91780E-01 5.87057E-24
3.96044E-01 5.73976E-24
4.00316E-01 5.61235E-24
4.04596E-01 5.48823E-24
4.08882E-01 5.36729E-24
4.13176E-01 5.24944E-24
4.17476E-01 5.13457E-24
4.21783E-01 5.02260E-24
4.26095E-01 4.91343E-24
4.30413E-01 4.80697E-24
4.34737E-01 4.70314E-24
4.39065E-01 4.60186E-24
4.43398E-01 4.50306E-24
4.47736E-01 4.40665E-24
4.52077E-01 4.31257E-24
4.56422E-01 4.22074E-24
4.60770E-01 4.13111E-24
4.65122E-01 4.04360E-24
4.69476E-01 3.95815E-24
4.73832E-01 3.87471E-24
4.78190E-01 3.79322E-24
4.82550E-01 3.71361E-24
4.86912E-01 3.63584E-24
4.91274E-01 3.55985E-24
4.95637E-01 3.48560E-24
5.00000E-01 3.41303E-24
5.04363E-01 3.34210E-24
5.08726E-01 3.27276E-24
5.13088E-01 3.20498E-24
5.17450E-01 3.13870E-24
5.21810E-01 3.07388E-24
5.26168E-01 3.01049E-24
5.30524E-01 2.94849E-24
5.34878E-01 2.88784E-24
5.39230E-01 2.82851E-24
5.43578E-01 2.77046E-24
5.47923E-01 2.71365E-24
5.52264E-01 2.65806E-24
5.56602E-01 2.60366E-24
5.60935E-01 2.55040E-24
5.65263E-01 2.49827E-24
5.69587E-01 2.44724E-24
5.73905E-01 2.39727E-24
5.78217E-01 2.34834E-24
5.82524E-01 2.30042E-24
5.86824E-01 2.25350E-24
5.91118E-01 2.20754E-24
5.95404E-01 2.16252E-24
5.99684E-01 2.11842E-24
6.03956E-01 2.07521E-24
6.08220E-01 2.03287E-24
6.12476E-01 1.99139E-24
6.16723E-01 1.95075E-24
6.20961E-01 1.91091E-24
6.25190E-01 1.87187E-24
6.29410E-01 1.83360E-24
6.33619E-01 1.79609E-24
6.37819E-01 1.75932E-24
6.42008E-01 1.72326E-24
6.46186E-01 1.68792E-24
6.50353E-01 1.65326E-24
6.54508E-01 1.61928E-24
6.58652E-01 1.58595E-24
6.62784E-01 1.55327E-24
6.66903E-01 1.52122E-24
6.71010E-01 1.48978E-24
6.75104E-01 1.45894E-24
6.79184E-01 1.42869E-24
6.83251E-01 1.39902E-24
6.87303E-01 1.36990E-24
6.91342E-01 1.34134E-24
6.95366E-01 1.31332E-24
6.99375E-01 1.28582E-24
7.03368E-01 1.25884E-24
7.07347E-01 1.23236E-24
7.11309E-01 1.20638E-24
7.15256E-01 1.18088E-24
7.19186E-01 1.15586E-24
7.23099E-01 1.13129E-24
7.26995E-01 1.10719E-24
7.30874E-01 1.08352E-24
7.34736E-01 1.06029E-24
7.38579E-01 1.03749E-24
7.42405E-01 1.01511E-24
7.46212E-01 9.93138E-25
7.50000E-01 9.71567E-25
7.53769E-01 9.50389E-25
7.57519E-01 9.29597E-25
7.61249E-01 9.09184E-25
7.64960E-01 8.89141E-25
7.68650E-01 8.69462E-25
7.72320E-01 8.50140E-25
7.75968E-01 8.31167E-25
7.79596E-01 8.12538E-25
7.83203E-01 7.94245E-25
7.86788E-01 7.76282E-25
7.90351E-01 7.58644E-25
7.93893E-01 7.41323E-25
7.97411E-01 7.24315E-25
8.00908E-01 7.07613E-25
8.04381E-01 6.91212E-25
8.07831E-01 6.75106E-25
8.11257E-01 6.59291E-25
8.14660E-01 6.43760E-25
8.18039E-01 6.28509E-25
8.21394E-01 6.13532E-25
8.24724E-01 5.98826E-25
8.28030E-01 5.84384E-25
8.31310E-01 5.70204E-25
8.34565E-01 5.56279E-25
8.37795E-01 5.42606E-25
8.40999E-01 5.29181E-25
8.44177E-01 5.15999E-25
8.47329E-01 5.03056E-25
8.50455E-01 4.90348E-25
8.53553E-01 4.77872E-25
8.56625E-01 4.65623E-25
8.59670E-01 4.53598E-25
8.62687E-01 4.41793E-25
8.65677E-01 4.30205E-25
8.68639E-01 4.18830E-25
8.71572E-01 4.07664E-25
8.74478E-01 3.96706E-25
8.77355E-01 3.85950E-25
8.80203E-01 3.75395E-25
8.83022E-01 3.65037E-25
8.85812E-01 3.54874E-25
8.88573E-01 3.44901E-25
8.91304E-01 3.35117E-25
8.94005E-01 3.25518E-25
8.96677E-01 3.16103E-25
8.99318E-01 3.06868E-25
9.01928E-01 2.97810E-25
9.04508E-01 2.88928E-25
9.07058E-01 2.80218E-25
9.09576E-01 2.71678E-25
9.12063E-01 2.63307E-25
9.14519E-01 2.55101E-25
9.16943E-01 2.47058E-25
9.19335E-01 2.39177E-25
9.21696E-01 2.31455E-25
9.24024E-01 2.23890E-25
9.26320E-01 2.16480E-25
9.28584E-01 2.09223E-25
9.30815E-01 2.02117E-25
9.33013E-01 1.95160E-25
9.35178E-01 1.88351E-25
9.37310E-01 1.81687E-25
9.39409E-01 1.75168E-25
9.41474E-01 1.68790E-25
9.43505E-01 1.62553E-25
9.45503E-01 1.56455E-25
9.47467E-01 1.50494E-25
9.49397E-01 1.44669E-25
9.51293E-01 1.38978E-25
9.53154E-01 1.33420E-25
9.54981E-01 1.27994E-25
9.56773E-01 1.22697E-25
9.58530E-01 1.17530E-25
9.60252E-01 1.12490E-25
9.61940E-01 1.07576E-25
9.63592E-01 1.02787E-25
9.65209E-01 9.81212E-26
9.66790E-01 9.35786E-26
9.68336E-01 8.91574E-26
9.69846E-01 8.48566E-26
9.71321E-01 8.06751E-26
9.72759E-01 7.66118E-26
9.74162E-01 7.26659E-26
9.75528E-01 6.88364E-26
9.76858E-01 6.51222E-26
9.78152E-01 6.15225E-26
9.79410E-01 5.80364E-26
9.80631E-01 5.46631E-26
9.81815E-01 5.14018E-26
9.82963E-01 4.82516E-26
9.84074E-01 4.52118E-26
9.85148E-01 4.22818E-26
9.86185E-01 3.94607E-26
9.87185E-01 3.67479E-26
9.88148E-01 3.41428E-26
9.89074E-01 3.16447E-26
9.89962E-01 2.92530E-26
9.90814E-01 2.69673E-26
9.91627E-01 2.47868E-26
9.92404E-01 2.27112E-26
9.93143E-01 2.07399E-26
9.93844E-01 1.88724E-26
9.94508E-01 1.71084E-26
9.95134E-01 1.54474E-26
9.95722E-01 1.38890E-26
9.96273E-01 1.24328E-26
9.96786E-01 1.10785E-26
9.97261E-01 9.82585E-27
9.97698E-01 8.67446E-27
9.98097E-01 7.62408E-27
9.98459E-01 6.67448E-27
9.98782E-01 5.82544E-27
9.99067E-01 5.07674E-27
9.99315E-01 4.42823E-27
9.99524E-01 3.87974E-27
9.99695E-01 3.43115E-27
9.99829E-01 3.08236E-27
9.99924E-01 2.83328E-27
9.99981E-01 2.68386E-27
1.00000E+00 2.63405E-27
