 #
 # Subroutine ELSEPA. Elastic scattering of electrons and positrons
 #                    by neutral atoms and positive ions
 #
 # Projectile: electron
 # Kinetic energy = 1.00000E+07 eV = 3.67493E+05 a.u.
 #
 # WARNING: High-energy factorization with free-atom DF screening.
 #          Absorption, polarization and exchange corrections are
 #          switched off.
 #          Phase shifts are calculated for the bare nucleus.
 #          Scattering amplitudes are not evaluated.
 #
 # Element: Th,  Z =  90,  atomic weight = 2.32038E+02 g/mol
 #
 # Nuclear model: Fermi distribution
 #                Average radius = 6.57512E-13 cm
 #                Skin thickness = 5.46000E-14 cm
 #
 # Number of electrons = 90
 #
 # Total elastic cross section = 1.19026E-17 cm**2 = 4.25050E-01 a0**2
 # 1st transport cross section = 1.33454E-22 cm**2 = 4.76574E-06 a0**2
 # 2nd transport cross section = 3.61181E-22 cm**2 = 1.28980E-05 a0**2
 #
 #
 # Differential cross section:                       MU=(1-COS(THETA))/2
 #
 #  THETA        MU          DCS          DCS        Sherman      error
 #  (deg)                 (cm**2/sr)   (a0**2/sr)    function
 #----------------------------------------------------------------------
0.00000E+00 1.61333E-11
7.61557E-13 1.61326E-11
1.18994E-12 1.61322E-11
1.71346E-12 1.61317E-11
2.33225E-12 1.61311E-11
3.04617E-12 1.61304E-11
3.85530E-12 1.61297E-11
4.75964E-12 1.61288E-11
5.75917E-12 1.61279E-11
6.85391E-12 1.61269E-11
8.04379E-12 1.61257E-11
9.32893E-12 1.61245E-11
1.07092E-11 1.61232E-11
1.21847E-11 1.61219E-11
1.37554E-11 1.61204E-11
1.54213E-11 1.61188E-11
1.71823E-11 1.61172E-11
1.90386E-11 1.61155E-11
2.09900E-11 1.61136E-11
2.30367E-11 1.61117E-11
2.51785E-11 1.61097E-11
2.74156E-11 1.61076E-11
2.97478E-11 1.61054E-11
3.21752E-11 1.61032E-11
3.46979E-11 1.61008E-11
3.73157E-11 1.60984E-11
4.00286E-11 1.60959E-11
4.28368E-11 1.60932E-11
4.57402E-11 1.60905E-11
4.87388E-11 1.60877E-11
5.18325E-11 1.60848E-11
5.50215E-11 1.60819E-11
5.83057E-11 1.60788E-11
6.16850E-11 1.60757E-11
6.51595E-11 1.60724E-11
6.87293E-11 1.60691E-11
7.23943E-11 1.60657E-11
7.61544E-11 1.60622E-11
1.18991E-10 1.60225E-11
1.71347E-10 1.59742E-11
2.33223E-10 1.59173E-11
3.04617E-10 1.58522E-11
3.85531E-10 1.57789E-11
4.75965E-10 1.56976E-11
5.75917E-10 1.56085E-11
6.85389E-10 1.55119E-11
8.04380E-10 1.54080E-11
9.32891E-10 1.52970E-11
1.07092E-09 1.51792E-11
1.21847E-09 1.50549E-11
1.37554E-09 1.49245E-11
1.54213E-09 1.47880E-11
1.71823E-09 1.46460E-11
1.90386E-09 1.44987E-11
2.09900E-09 1.43465E-11
2.30367E-09 1.41897E-11
2.51785E-09 1.40285E-11
2.74156E-09 1.38633E-11
2.97478E-09 1.36943E-11
3.21752E-09 1.35219E-11
3.46978E-09 1.33468E-11
3.73156E-09 1.31690E-11
4.00286E-09 1.29887E-11
4.28368E-09 1.28062E-11
4.57402E-09 1.26219E-11
4.87388E-09 1.24363E-11
5.18326E-09 1.22497E-11
5.50215E-09 1.20620E-11
5.83057E-09 1.18735E-11
6.16850E-09 1.16845E-11
6.51596E-09 1.14955E-11
6.87293E-09 1.13070E-11
7.23942E-09 1.11186E-11
7.61544E-09 1.09306E-11
1.18991E-08 9.12007E-12
1.71347E-08 7.51826E-12
2.33223E-08 6.17660E-12
3.04617E-08 5.08793E-12
3.85531E-08 4.21791E-12
4.75965E-08 3.52530E-12
5.75917E-08 2.97196E-12
6.85389E-08 2.52634E-12
8.04380E-08 2.16389E-12
9.32891E-08 1.86616E-12
1.07092E-07 1.61925E-12
1.21847E-07 1.41270E-12
1.37554E-07 1.23861E-12
1.54213E-07 1.09089E-12
1.71823E-07 9.64823E-13
1.90386E-07 8.56694E-13
2.09900E-07 7.63023E-13
2.30367E-07 6.78412E-13
2.51785E-07 6.07149E-13
2.74156E-07 5.46733E-13
2.97478E-07 4.95189E-13
3.21752E-07 4.50953E-13
3.46978E-07 4.08365E-13
3.73156E-07 3.70993E-13
4.00286E-07 3.38598E-13
4.28368E-07 3.10380E-13
4.57402E-07 2.85685E-13
4.87388E-07 2.62410E-13
5.18325E-07 2.41117E-13
5.50215E-07 2.22335E-13
5.83057E-07 2.05703E-13
6.16850E-07 1.90921E-13
6.51596E-07 1.77191E-13
6.87293E-07 1.64203E-13
7.23942E-07 1.52588E-13
7.61543E-07 1.42169E-13
1.18991E-06 7.44528E-14
1.71347E-06 4.28185E-14
2.33223E-06 2.64705E-14
3.04617E-06 1.72839E-14
3.85531E-06 1.17583E-14
4.75964E-06 8.26136E-15
5.75916E-06 5.96093E-15
6.85388E-06 4.40232E-15
8.04378E-06 3.32498E-15
9.32888E-06 2.55997E-15
1.07092E-05 2.00366E-15
1.21846E-05 1.59142E-15
1.37553E-05 1.28087E-15
1.54212E-05 1.04314E-15
1.71822E-05 8.58329E-16
1.90385E-05 7.12250E-16
2.09899E-05 5.96797E-16
2.30365E-05 5.03425E-16
2.51783E-05 4.28247E-16
2.74153E-05 3.65937E-16
2.97475E-05 3.14962E-16
3.21749E-05 2.72320E-16
3.46974E-05 2.36914E-16
3.73152E-05 2.07009E-16
4.00281E-05 1.81816E-16
4.28362E-05 1.60308E-16
4.57395E-05 1.41943E-16
4.87380E-05 1.26108E-16
5.18317E-05 1.12434E-16
5.50205E-05 1.00556E-16
5.83045E-05 9.02055E-17
6.16838E-05 8.11578E-17
6.51582E-05 7.32113E-17
6.87277E-05 6.62230E-17
7.23925E-05 6.00382E-17
7.61524E-05 5.45631E-17
9.21439E-05 3.80064E-17
1.09658E-04 2.72674E-17
1.28695E-04 2.00644E-17
1.49255E-04 1.50915E-17
1.71338E-04 1.15703E-17
1.94942E-04 9.02104E-18
2.20070E-04 7.13846E-18
2.46720E-04 5.72347E-18
2.74892E-04 4.64317E-18
3.04586E-04 3.80651E-18
3.35803E-04 3.15041E-18
3.68542E-04 2.62987E-18
4.02802E-04 2.21261E-18
4.38585E-04 1.87493E-18
4.75889E-04 1.59927E-18
5.14715E-04 1.37249E-18
5.55063E-04 1.18450E-18
5.96931E-04 1.02763E-18
6.40321E-04 8.95889E-19
6.85233E-04 7.84603E-19
7.31665E-04 6.90083E-19
7.79618E-04 6.09380E-19
8.29092E-04 5.40149E-19
8.80086E-04 4.80483E-19
9.32601E-04 4.28842E-19
9.86636E-04 3.83965E-19
1.04219E-03 3.44816E-19
1.09927E-03 3.10541E-19
1.15786E-03 2.80428E-19
1.21797E-03 2.53887E-19
1.27961E-03 2.30419E-19
1.34276E-03 2.09608E-19
1.40743E-03 1.91101E-19
1.47362E-03 1.74597E-19
1.54133E-03 1.59843E-19
1.61056E-03 1.46619E-19
1.68131E-03 1.34740E-19
1.75357E-03 1.24043E-19
1.82735E-03 1.14391E-19
1.90265E-03 1.05663E-19
1.97947E-03 9.77552E-20
2.05780E-03 9.05762E-20
2.13765E-03 8.40465E-20
2.21902E-03 7.80977E-20
2.30190E-03 7.26685E-20
2.38630E-03 6.77048E-20
2.47222E-03 6.31595E-20
2.55965E-03 5.89912E-20
2.64859E-03 5.51629E-20
2.73905E-03 5.16418E-20
2.83103E-03 4.83983E-20
2.92452E-03 4.54070E-20
3.01952E-03 4.26444E-20
3.11604E-03 4.00901E-20
3.21407E-03 3.77250E-20
3.31362E-03 3.55328E-20
3.41468E-03 3.34986E-20
3.51725E-03 3.16088E-20
3.62133E-03 2.98511E-20
3.72692E-03 2.82147E-20
3.83403E-03 2.66896E-20
3.94265E-03 2.52669E-20
4.05278E-03 2.39384E-20
4.16442E-03 2.26966E-20
4.27757E-03 2.15348E-20
4.39223E-03 2.04471E-20
4.50840E-03 1.94276E-20
4.62608E-03 1.84714E-20
4.74527E-03 1.75737E-20
4.86597E-03 1.67303E-20
4.98817E-03 1.59374E-20
5.11188E-03 1.51912E-20
5.23711E-03 1.44886E-20
5.36383E-03 1.38265E-20
5.49207E-03 1.32021E-20
5.62181E-03 1.26129E-20
5.75306E-03 1.20565E-20
5.88581E-03 1.15307E-20
6.02007E-03 1.10335E-20
6.15583E-03 1.05632E-20
6.29310E-03 1.01178E-20
6.43187E-03 9.69595E-21
6.57214E-03 9.29607E-21
6.71392E-03 8.91683E-21
6.85720E-03 8.55691E-21
7.00198E-03 8.21519E-21
7.14827E-03 7.89054E-21
7.29605E-03 7.58196E-21
7.44534E-03 7.28851E-21
7.59612E-03 7.00927E-21
7.97965E-03 6.36818E-21
8.37255E-03 5.79959E-21
8.77480E-03 5.29385E-21
9.18641E-03 4.84277E-21
9.60736E-03 4.43937E-21
1.00376E-02 4.07770E-21
1.04773E-02 3.75267E-21
1.09262E-02 3.45988E-21
1.13844E-02 3.19555E-21
1.18520E-02 2.95642E-21
1.23288E-02 2.73962E-21
1.28150E-02 2.54270E-21
1.33104E-02 2.36348E-21
1.38150E-02 2.20008E-21
1.43290E-02 2.05085E-21
1.48521E-02 1.91432E-21
1.53845E-02 1.78921E-21
1.59262E-02 1.67437E-21
1.64770E-02 1.56882E-21
1.70371E-02 1.47165E-21
1.76063E-02 1.38207E-21
1.81848E-02 1.29938E-21
1.87724E-02 1.22293E-21
1.93692E-02 1.15218E-21
1.99751E-02 1.08661E-21
2.05901E-02 1.02576E-21
2.12143E-02 9.69241E-22
2.18476E-02 9.16674E-22
2.24900E-02 8.67731E-22
2.31415E-02 8.22111E-22
2.38021E-02 7.79545E-22
2.44717E-02 7.39787E-22
2.51504E-02 7.02616E-22
2.58382E-02 6.67829E-22
2.65349E-02 6.35244E-22
2.72407E-02 6.04691E-22
2.79555E-02 5.76019E-22
2.86793E-02 5.49089E-22
2.94120E-02 5.23773E-22
3.01537E-02 4.99955E-22
3.09043E-02 4.77528E-22
3.16639E-02 4.56395E-22
3.24324E-02 4.36465E-22
3.32098E-02 4.17655E-22
3.39961E-02 3.99889E-22
3.47912E-02 3.83098E-22
3.55952E-02 3.67216E-22
3.64081E-02 3.52186E-22
3.72297E-02 3.37950E-22
3.80602E-02 3.24459E-22
3.88995E-02 3.11665E-22
3.97476E-02 2.99524E-22
4.06044E-02 2.87995E-22
4.14700E-02 2.77043E-22
4.23443E-02 2.66631E-22
4.32273E-02 2.56728E-22
4.41190E-02 2.47303E-22
4.50194E-02 2.38328E-22
4.59284E-02 2.29776E-22
4.68461E-02 2.21624E-22
4.87074E-02 2.06430E-22
5.06030E-02 1.92580E-22
5.25328E-02 1.79931E-22
5.44967E-02 1.68356E-22
5.64946E-02 1.57747E-22
5.85262E-02 1.48005E-22
6.05914E-02 1.39043E-22
6.26901E-02 1.30787E-22
6.48222E-02 1.23169E-22
6.69873E-02 1.16129E-22
6.91854E-02 1.09613E-22
7.14163E-02 1.03574E-22
7.36799E-02 9.79692E-23
7.59760E-02 9.27605E-23
7.83043E-02 8.79139E-23
8.06647E-02 8.33984E-23
8.30571E-02 7.91861E-23
8.54812E-02 7.52526E-23
8.79369E-02 7.15750E-23
9.04240E-02 6.81323E-23
9.29422E-02 6.49071E-23
9.54915E-02 6.18819E-23
9.80716E-02 5.90412E-23
1.00682E-01 5.63718E-23
1.03323E-01 5.38605E-23
1.05995E-01 5.14958E-23
1.08696E-01 4.92673E-23
1.11427E-01 4.71652E-23
1.14188E-01 4.51806E-23
1.16978E-01 4.33055E-23
1.19797E-01 4.15324E-23
1.22645E-01 3.98543E-23
1.25522E-01 3.82650E-23
1.28428E-01 3.67587E-23
1.31361E-01 3.53299E-23
1.34323E-01 3.39738E-23
1.37313E-01 3.26856E-23
1.40330E-01 3.14613E-23
1.43375E-01 3.02969E-23
1.46447E-01 2.91887E-23
1.49545E-01 2.81333E-23
1.52671E-01 2.71277E-23
1.55823E-01 2.61688E-23
1.59001E-01 2.52541E-23
1.62205E-01 2.43809E-23
1.65435E-01 2.35469E-23
1.68690E-01 2.27499E-23
1.71970E-01 2.19879E-23
1.75276E-01 2.12589E-23
1.78606E-01 2.05612E-23
1.81961E-01 1.98931E-23
1.85340E-01 1.92530E-23
1.88743E-01 1.86395E-23
1.92169E-01 1.80511E-23
1.95619E-01 1.74867E-23
1.99092E-01 1.69449E-23
2.02589E-01 1.64246E-23
2.06107E-01 1.59249E-23
2.09649E-01 1.54446E-23
2.13212E-01 1.49828E-23
2.16797E-01 1.45387E-23
2.20404E-01 1.41113E-23
2.24032E-01 1.37000E-23
2.27680E-01 1.33039E-23
2.31350E-01 1.29224E-23
2.35040E-01 1.25547E-23
2.38751E-01 1.22004E-23
2.42481E-01 1.18587E-23
2.46231E-01 1.15292E-23
2.50000E-01 1.12113E-23
2.53788E-01 1.09046E-23
2.57595E-01 1.06078E-23
2.61421E-01 1.03211E-23
2.65264E-01 1.00441E-23
2.69126E-01 9.77632E-24
2.73005E-01 9.51748E-24
2.76901E-01 9.26715E-24
2.80814E-01 9.02499E-24
2.84744E-01 8.79068E-24
2.88691E-01 8.56388E-24
2.92653E-01 8.34431E-24
2.96632E-01 8.13166E-24
3.00625E-01 7.92568E-24
3.04634E-01 7.72610E-24
3.08658E-01 7.53267E-24
3.12697E-01 7.34516E-24
3.16749E-01 7.16334E-24
3.20816E-01 6.98699E-24
3.24896E-01 6.81592E-24
3.28990E-01 6.64992E-24
3.33097E-01 6.48881E-24
3.37216E-01 6.33240E-24
3.41348E-01 6.18053E-24
3.45492E-01 6.03304E-24
3.49647E-01 5.88976E-24
3.53814E-01 5.75055E-24
3.57992E-01 5.61527E-24
3.62181E-01 5.48377E-24
3.66381E-01 5.35592E-24
3.70590E-01 5.23161E-24
3.74810E-01 5.11070E-24
3.79039E-01 4.99309E-24
3.83277E-01 4.87866E-24
3.87524E-01 4.76730E-24
3.91780E-01 4.65892E-24
3.96044E-01 4.55341E-24
4.00316E-01 4.45068E-24
4.04596E-01 4.35064E-24
4.08882E-01 4.25321E-24
4.13176E-01 4.15829E-24
4.17476E-01 4.06582E-24
4.21783E-01 3.97570E-24
4.26095E-01 3.88788E-24
4.30413E-01 3.80227E-24
4.34737E-01 3.71880E-24
4.39065E-01 3.63742E-24
4.43398E-01 3.55805E-24
4.47736E-01 3.48064E-24
4.52077E-01 3.40513E-24
4.56422E-01 3.33146E-24
4.60770E-01 3.25957E-24
4.65122E-01 3.18941E-24
4.69476E-01 3.12094E-24
4.73832E-01 3.05409E-24
4.78190E-01 2.98883E-24
4.82550E-01 2.92511E-24
4.86912E-01 2.86288E-24
4.91274E-01 2.80210E-24
4.95637E-01 2.74273E-24
5.00000E-01 2.68473E-24
5.04363E-01 2.62806E-24
5.08726E-01 2.57269E-24
5.13088E-01 2.51858E-24
5.17450E-01 2.46568E-24
5.21810E-01 2.41398E-24
5.26168E-01 2.36344E-24
5.30524E-01 2.31402E-24
5.34878E-01 2.26570E-24
5.39230E-01 2.21845E-24
5.43578E-01 2.17223E-24
5.47923E-01 2.12702E-24
5.52264E-01 2.08280E-24
5.56602E-01 2.03954E-24
5.60935E-01 1.99721E-24
5.65263E-01 1.95579E-24
5.69587E-01 1.91525E-24
5.73905E-01 1.87558E-24
5.78217E-01 1.83674E-24
5.82524E-01 1.79873E-24
5.86824E-01 1.76152E-24
5.91118E-01 1.72508E-24
5.95404E-01 1.68941E-24
5.99684E-01 1.65447E-24
6.03956E-01 1.62026E-24
6.08220E-01 1.58675E-24
6.12476E-01 1.55393E-24
6.16723E-01 1.52178E-24
6.20961E-01 1.49029E-24
6.25190E-01 1.45943E-24
6.29410E-01 1.42920E-24
6.33619E-01 1.39958E-24
6.37819E-01 1.37055E-24
6.42008E-01 1.34210E-24
6.46186E-01 1.31422E-24
6.50353E-01 1.28689E-24
6.54508E-01 1.26010E-24
6.58652E-01 1.23384E-24
6.62784E-01 1.20810E-24
6.66903E-01 1.18286E-24
6.71010E-01 1.15812E-24
6.75104E-01 1.13385E-24
6.79184E-01 1.11006E-24
6.83251E-01 1.08673E-24
6.87303E-01 1.06385E-24
6.91342E-01 1.04141E-24
6.95366E-01 1.01940E-24
6.99375E-01 9.97815E-25
7.03368E-01 9.76640E-25
7.07347E-01 9.55868E-25
7.11309E-01 9.35491E-25
7.15256E-01 9.15501E-25
7.19186E-01 8.95888E-25
7.23099E-01 8.76645E-25
7.26995E-01 8.57765E-25
7.30874E-01 8.39239E-25
7.34736E-01 8.21060E-25
7.38579E-01 8.03222E-25
7.42405E-01 7.85717E-25
7.46212E-01 7.68538E-25
7.50000E-01 7.51678E-25
7.53769E-01 7.35132E-25
7.57519E-01 7.18893E-25
7.61249E-01 7.02954E-25
7.64960E-01 6.87310E-25
7.68650E-01 6.71955E-25
7.72320E-01 6.56883E-25
7.75968E-01 6.42088E-25
7.79596E-01 6.27566E-25
7.83203E-01 6.13311E-25
7.86788E-01 5.99317E-25
7.90351E-01 5.85581E-25
7.93893E-01 5.72096E-25
7.97411E-01 5.58858E-25
8.00908E-01 5.45863E-25
8.04381E-01 5.33105E-25
8.07831E-01 5.20582E-25
8.11257E-01 5.08287E-25
8.14660E-01 4.96217E-25
8.18039E-01 4.84368E-25
8.21394E-01 4.72737E-25
8.24724E-01 4.61318E-25
8.28030E-01 4.50108E-25
8.31310E-01 4.39103E-25
8.34565E-01 4.28301E-25
8.37795E-01 4.17697E-25
8.40999E-01 4.07287E-25
8.44177E-01 3.97069E-25
8.47329E-01 3.87039E-25
8.50455E-01 3.77194E-25
8.53553E-01 3.67531E-25
8.56625E-01 3.58046E-25
8.59670E-01 3.48738E-25
8.62687E-01 3.39602E-25
8.65677E-01 3.30636E-25
8.68639E-01 3.21837E-25
8.71572E-01 3.13203E-25
8.74478E-01 3.04731E-25
8.77355E-01 2.96417E-25
8.80203E-01 2.88261E-25
8.83022E-01 2.80259E-25
8.85812E-01 2.72409E-25
8.88573E-01 2.64708E-25
8.91304E-01 2.57155E-25
8.94005E-01 2.49746E-25
8.96677E-01 2.42481E-25
8.99318E-01 2.35356E-25
9.01928E-01 2.28370E-25
9.04508E-01 2.21520E-25
9.07058E-01 2.14805E-25
9.09576E-01 2.08223E-25
9.12063E-01 2.01771E-25
9.14519E-01 1.95449E-25
9.16943E-01 1.89254E-25
9.19335E-01 1.83184E-25
9.21696E-01 1.77238E-25
9.24024E-01 1.71414E-25
9.26320E-01 1.65710E-25
9.28584E-01 1.60125E-25
9.30815E-01 1.54658E-25
9.33013E-01 1.49306E-25
9.35178E-01 1.44069E-25
9.37310E-01 1.38945E-25
9.39409E-01 1.33932E-25
9.41474E-01 1.29029E-25
9.43505E-01 1.24235E-25
9.45503E-01 1.19549E-25
9.47467E-01 1.14969E-25
9.49397E-01 1.10494E-25
9.51293E-01 1.06123E-25
9.53154E-01 1.01855E-25
9.54981E-01 9.76882E-26
9.56773E-01 9.36220E-26
9.58530E-01 8.96552E-26
9.60252E-01 8.57868E-26
9.61940E-01 8.20158E-26
9.63592E-01 7.83412E-26
9.65209E-01 7.47620E-26
9.66790E-01 7.12773E-26
9.68336E-01 6.78863E-26
9.69846E-01 6.45880E-26
9.71321E-01 6.13816E-26
9.72759E-01 5.82663E-26
9.74162E-01 5.52412E-26
9.75528E-01 5.23057E-26
9.76858E-01 4.94590E-26
9.78152E-01 4.67003E-26
9.79410E-01 4.40289E-26
9.80631E-01 4.14443E-26
9.81815E-01 3.89457E-26
9.82963E-01 3.65324E-26
9.84074E-01 3.42040E-26
9.85148E-01 3.19598E-26
9.86185E-01 2.97993E-26
9.87185E-01 2.77219E-26
9.88148E-01 2.57270E-26
9.89074E-01 2.38143E-26
9.89962E-01 2.19832E-26
9.90814E-01 2.02334E-26
9.91627E-01 1.85642E-26
9.92404E-01 1.69754E-26
9.93143E-01 1.54666E-26
9.93844E-01 1.40373E-26
9.94508E-01 1.26872E-26
9.95134E-01 1.14161E-26
9.95722E-01 1.02235E-26
9.96273E-01 9.10924E-27
9.96786E-01 8.07299E-27
9.97261E-01 7.11451E-27
9.97698E-01 6.23356E-27
9.98097E-01 5.42993E-27
9.98459E-01 4.70342E-27
9.98782E-01 4.05386E-27
9.99067E-01 3.48109E-27
9.99315E-01 2.98497E-27
9.99524E-01 2.56538E-27
9.99695E-01 2.22222E-27
9.99829E-01 1.95541E-27
9.99924E-01 1.76487E-27
9.99981E-01 1.65056E-27
1.00000E+00 1.61247E-27
