 #
 # Subroutine ELSEPA. Elastic scattering of electrons and positrons
 #                    by neutral atoms and positive ions
 #
 # Projectile: electron
 # Kinetic energy = 1.75000E+07 eV = 6.43113E+05 a.u.
 #
 # WARNING: High-energy factorization with free-atom DF screening.
 #          Absorption, polarization and exchange corrections are
 #          switched off.
 #          Phase shifts are calculated for the bare nucleus.
 #          Scattering amplitudes are not evaluated.
 #
 # Element: Th,  Z =  90,  atomic weight = 2.32038E+02 g/mol
 #
 # Nuclear model: Fermi distribution
 #                Average radius = 6.57512E-13 cm
 #                Skin thickness = 5.46000E-14 cm
 #
 # Number of electrons = 90
 #
 # Total elastic cross section = 1.18824E-17 cm**2 = 4.24329E-01 a0**2
 # 1st transport cross section = 4.69152E-23 cm**2 = 1.67537E-06 a0**2
 # 2nd transport cross section = 1.30380E-22 cm**2 = 4.65595E-06 a0**2
 #
 #
 # Differential cross section:                       MU=(1-COS(THETA))/2
 #
 #  THETA        MU          DCS          DCS        Sherman      error
 #  (deg)                 (cm**2/sr)   (a0**2/sr)    function
 #----------------------------------------------------------------------
0.00000E+00 4.73708E-11
7.61557E-13 4.73646E-11
1.18994E-12 4.73611E-11
1.71346E-12 4.73568E-11
2.33225E-12 4.73518E-11
3.04617E-12 4.73460E-11
3.85530E-12 4.73395E-11
4.75964E-12 4.73322E-11
5.75917E-12 4.73241E-11
6.85391E-12 4.73153E-11
8.04379E-12 4.73057E-11
9.32893E-12 4.72953E-11
1.07092E-11 4.72841E-11
1.21847E-11 4.72722E-11
1.37554E-11 4.72596E-11
1.54213E-11 4.72462E-11
1.71823E-11 4.72320E-11
1.90386E-11 4.72171E-11
2.09900E-11 4.72014E-11
2.30367E-11 4.71849E-11
2.51785E-11 4.71677E-11
2.74156E-11 4.71498E-11
2.97478E-11 4.71311E-11
3.21752E-11 4.71116E-11
3.46979E-11 4.70914E-11
3.73157E-11 4.70704E-11
4.00286E-11 4.70487E-11
4.28368E-11 4.70263E-11
4.57402E-11 4.70031E-11
4.87388E-11 4.69792E-11
5.18325E-11 4.69545E-11
5.50215E-11 4.69291E-11
5.83057E-11 4.69030E-11
6.16850E-11 4.68761E-11
6.51595E-11 4.68485E-11
6.87293E-11 4.68202E-11
7.23943E-11 4.67912E-11
7.61544E-11 4.67614E-11
1.18991E-10 4.64244E-11
1.71347E-10 4.60178E-11
2.33223E-10 4.55446E-11
3.04617E-10 4.50084E-11
3.85531E-10 4.44129E-11
4.75965E-10 4.37623E-11
5.75917E-10 4.30611E-11
6.85389E-10 4.23138E-11
8.04380E-10 4.15256E-11
9.32891E-10 4.07007E-11
1.07092E-09 3.98436E-11
1.21847E-09 3.89606E-11
1.37554E-09 3.80552E-11
1.54213E-09 3.71315E-11
1.71823E-09 3.61958E-11
1.90386E-09 3.52511E-11
2.09900E-09 3.43004E-11
2.30367E-09 3.33498E-11
2.51785E-09 3.24014E-11
2.74156E-09 3.14570E-11
2.97478E-09 3.05224E-11
3.21752E-09 2.95989E-11
3.46978E-09 2.86868E-11
3.73156E-09 2.77914E-11
4.00286E-09 2.69135E-11
4.28368E-09 2.60522E-11
4.57402E-09 2.52118E-11
4.87388E-09 2.43929E-11
5.18326E-09 2.35938E-11
5.50215E-09 2.28177E-11
5.83057E-09 2.20653E-11
6.16850E-09 2.13340E-11
6.51596E-09 2.06262E-11
6.87293E-09 1.99426E-11
7.23942E-09 1.92803E-11
7.61544E-09 1.86409E-11
1.18991E-08 1.34005E-11
1.71347E-08 9.84263E-12
2.33223E-08 7.41234E-12
3.04617E-08 5.70776E-12
3.85531E-08 4.47769E-12
4.75965E-08 3.56749E-12
5.75917E-08 2.87990E-12
6.85389E-08 2.35186E-12
8.04380E-08 1.92655E-12
9.32891E-08 1.60368E-12
1.07092E-07 1.35786E-12
1.21847E-07 1.14877E-12
1.37554E-07 9.80568E-13
1.54213E-07 8.47685E-13
1.71823E-07 7.32919E-13
1.90386E-07 6.37508E-13
2.09900E-07 5.59924E-13
2.30367E-07 4.91970E-13
2.51785E-07 4.33969E-13
2.74156E-07 3.85729E-13
2.97478E-07 3.43109E-13
3.21752E-07 3.06006E-13
3.46978E-07 2.74585E-13
3.73156E-07 2.46689E-13
4.00286E-07 2.22054E-13
4.28368E-07 2.00878E-13
4.57402E-07 1.82005E-13
4.87388E-07 1.65157E-13
5.18325E-07 1.50490E-13
5.50215E-07 1.37361E-13
5.83057E-07 1.25533E-13
6.16850E-07 1.15125E-13
6.51596E-07 1.05760E-13
6.87293E-07 9.72522E-14
7.23942E-07 8.96955E-14
7.61543E-07 8.28609E-14
1.18991E-06 4.04661E-14
1.71347E-06 2.20015E-14
2.33223E-06 1.28989E-14
3.04617E-06 8.06679E-15
3.85531E-06 5.30813E-15
4.75964E-06 3.64056E-15
5.75916E-06 2.58312E-15
6.85388E-06 1.88364E-15
8.04378E-06 1.40502E-15
9.32888E-06 1.07048E-15
1.07092E-05 8.30291E-16
1.21846E-05 6.54169E-16
1.37553E-05 5.22502E-16
1.54212E-05 4.22367E-16
1.71822E-05 3.45220E-16
1.90385E-05 2.84766E-16
2.09899E-05 2.37352E-16
2.30365E-05 1.99364E-16
2.51783E-05 1.68567E-16
2.74153E-05 1.43436E-16
2.97475E-05 1.22792E-16
3.21749E-05 1.05726E-16
3.46974E-05 9.15306E-17
3.73152E-05 7.96466E-17
4.00281E-05 6.96288E-17
4.28362E-05 6.11432E-17
4.57395E-05 5.39125E-17
4.87380E-05 4.77185E-17
5.18317E-05 4.23880E-17
5.50205E-05 3.77790E-17
5.83045E-05 3.37800E-17
6.16838E-05 3.02985E-17
6.51582E-05 2.72564E-17
6.87277E-05 2.45886E-17
7.23925E-05 2.22409E-17
7.61524E-05 2.01630E-17
9.21439E-05 1.39409E-17
1.09658E-04 9.94651E-18
1.28695E-04 7.28673E-18
1.49255E-04 5.45960E-18
1.71338E-04 4.17060E-18
1.94942E-04 3.24042E-18
2.20070E-04 2.55558E-18
2.46720E-04 2.04239E-18
2.74892E-04 1.65179E-18
3.04586E-04 1.35024E-18
3.35803E-04 1.11452E-18
3.68542E-04 9.28075E-19
4.02802E-04 7.79073E-19
4.38585E-04 6.58845E-19
4.75889E-04 5.60961E-19
5.14715E-04 4.80631E-19
5.55063E-04 4.14197E-19
5.96931E-04 3.58878E-19
6.40321E-04 3.12510E-19
6.85233E-04 2.73408E-19
7.31665E-04 2.40249E-19
7.79618E-04 2.11979E-19
8.29092E-04 1.87756E-19
8.80086E-04 1.66905E-19
9.32601E-04 1.48878E-19
9.86636E-04 1.33226E-19
1.04219E-03 1.19583E-19
1.09927E-03 1.07648E-19
1.15786E-03 9.71689E-20
1.21797E-03 8.79386E-20
1.27961E-03 7.97824E-20
1.34276E-03 7.25527E-20
1.40743E-03 6.61266E-20
1.47362E-03 6.03987E-20
1.54133E-03 5.52800E-20
1.61056E-03 5.06941E-20
1.68131E-03 4.65758E-20
1.75357E-03 4.28690E-20
1.82735E-03 3.95250E-20
1.90265E-03 3.65023E-20
1.97947E-03 3.37642E-20
2.05780E-03 3.12792E-20
2.13765E-03 2.90197E-20
2.21902E-03 2.69615E-20
2.30190E-03 2.50835E-20
2.38630E-03 2.33670E-20
2.47222E-03 2.17955E-20
2.55965E-03 2.03547E-20
2.64859E-03 1.90316E-20
2.73905E-03 1.78149E-20
2.83103E-03 1.66944E-20
2.92452E-03 1.56612E-20
3.01952E-03 1.47072E-20
3.11604E-03 1.38252E-20
3.21407E-03 1.30087E-20
3.31362E-03 1.22520E-20
3.41468E-03 1.15499E-20
3.51725E-03 1.08978E-20
3.62133E-03 1.02914E-20
3.72692E-03 9.72684E-21
3.83403E-03 9.20079E-21
3.94265E-03 8.71011E-21
4.05278E-03 8.25196E-21
4.16442E-03 7.82379E-21
4.27757E-03 7.42326E-21
4.39223E-03 7.04825E-21
4.50840E-03 6.69685E-21
4.62608E-03 6.36726E-21
4.74527E-03 6.05790E-21
4.86597E-03 5.76728E-21
4.98817E-03 5.49403E-21
5.11188E-03 5.23695E-21
5.23711E-03 4.99488E-21
5.36383E-03 4.76677E-21
5.49207E-03 4.55168E-21
5.62181E-03 4.34872E-21
5.75306E-03 4.15706E-21
5.88581E-03 3.97597E-21
6.02007E-03 3.80475E-21
6.15583E-03 3.64275E-21
6.29310E-03 3.48938E-21
6.43187E-03 3.34411E-21
6.57214E-03 3.20640E-21
6.71392E-03 3.07580E-21
6.85720E-03 2.95187E-21
7.00198E-03 2.83420E-21
7.14827E-03 2.72241E-21
7.29605E-03 2.61615E-21
7.44534E-03 2.51510E-21
7.59612E-03 2.41895E-21
7.97965E-03 2.19820E-21
8.37255E-03 2.00241E-21
8.77480E-03 1.82825E-21
9.18641E-03 1.67290E-21
9.60736E-03 1.53396E-21
1.00376E-02 1.40938E-21
1.04773E-02 1.29740E-21
1.09262E-02 1.19652E-21
1.13844E-02 1.10543E-21
1.18520E-02 1.02300E-21
1.23288E-02 9.48260E-22
1.28150E-02 8.80357E-22
1.33104E-02 8.18547E-22
1.38150E-02 7.62178E-22
1.43290E-02 7.10683E-22
1.48521E-02 6.63561E-22
1.53845E-02 6.20366E-22
1.59262E-02 5.80710E-22
1.64770E-02 5.44247E-22
1.70371E-02 5.10672E-22
1.76063E-02 4.79709E-22
1.81848E-02 4.51116E-22
1.87724E-02 4.24677E-22
1.93692E-02 4.00198E-22
1.99751E-02 3.77504E-22
2.05901E-02 3.56439E-22
2.12143E-02 3.36865E-22
2.18476E-02 3.18654E-22
2.24900E-02 3.01692E-22
2.31415E-02 2.85875E-22
2.38021E-02 2.71113E-22
2.44717E-02 2.57321E-22
2.51504E-02 2.44420E-22
2.58382E-02 2.32343E-22
2.65349E-02 2.21026E-22
2.72407E-02 2.10411E-22
2.79555E-02 2.00446E-22
2.86793E-02 1.91083E-22
2.94120E-02 1.82279E-22
3.01537E-02 1.73992E-22
3.09043E-02 1.66186E-22
3.16639E-02 1.58828E-22
3.24324E-02 1.51887E-22
3.32098E-02 1.45333E-22
3.39961E-02 1.39141E-22
3.47912E-02 1.33288E-22
3.55952E-02 1.27748E-22
3.64081E-02 1.22505E-22
3.72297E-02 1.17537E-22
3.80602E-02 1.12827E-22
3.88995E-02 1.08359E-22
3.97476E-02 1.04118E-22
4.06044E-02 1.00090E-22
4.14700E-02 9.62613E-23
4.23443E-02 9.26210E-23
4.32273E-02 8.91575E-23
4.41190E-02 8.58602E-23
4.50194E-02 8.27194E-23
4.59284E-02 7.97263E-23
4.68461E-02 7.68722E-23
4.87074E-02 7.15504E-23
5.06030E-02 6.66972E-23
5.25328E-02 6.22630E-23
5.44967E-02 5.82039E-23
5.64946E-02 5.44817E-23
5.85262E-02 5.10626E-23
6.05914E-02 4.79168E-23
6.26901E-02 4.50177E-23
6.48222E-02 4.23421E-23
6.69873E-02 3.98690E-23
6.91854E-02 3.75798E-23
7.14163E-02 3.54580E-23
7.36799E-02 3.34888E-23
7.59760E-02 3.16588E-23
7.83043E-02 2.99562E-23
8.06647E-02 2.83703E-23
8.30571E-02 2.68914E-23
8.54812E-02 2.55114E-23
8.79369E-02 2.42202E-23
9.04240E-02 2.30110E-23
9.29422E-02 2.18784E-23
9.54915E-02 2.08164E-23
9.80716E-02 1.98197E-23
1.00682E-01 1.88833E-23
1.03323E-01 1.80030E-23
1.05995E-01 1.71745E-23
1.08696E-01 1.63941E-23
1.11427E-01 1.56585E-23
1.14188E-01 1.49645E-23
1.16978E-01 1.43092E-23
1.19797E-01 1.36900E-23
1.22645E-01 1.31045E-23
1.25522E-01 1.25505E-23
1.28428E-01 1.20258E-23
1.31361E-01 1.15287E-23
1.34323E-01 1.10572E-23
1.37313E-01 1.06099E-23
1.40330E-01 1.01852E-23
1.43375E-01 9.78174E-24
1.46447E-01 9.39819E-24
1.49545E-01 9.03337E-24
1.52671E-01 8.68617E-24
1.55823E-01 8.35555E-24
1.59001E-01 8.04055E-24
1.62205E-01 7.74027E-24
1.65435E-01 7.45387E-24
1.68690E-01 7.18059E-24
1.71970E-01 6.91968E-24
1.75276E-01 6.67046E-24
1.78606E-01 6.43231E-24
1.81961E-01 6.20462E-24
1.85340E-01 5.98684E-24
1.88743E-01 5.77845E-24
1.92169E-01 5.57895E-24
1.95619E-01 5.38788E-24
1.99092E-01 5.20482E-24
2.02589E-01 5.02935E-24
2.06107E-01 4.86110E-24
2.09649E-01 4.69971E-24
2.13212E-01 4.54484E-24
2.16797E-01 4.39616E-24
2.20404E-01 4.25340E-24
2.24032E-01 4.11625E-24
2.27680E-01 3.98445E-24
2.31350E-01 3.85775E-24
2.35040E-01 3.73592E-24
2.38751E-01 3.61872E-24
2.42481E-01 3.50596E-24
2.46231E-01 3.39741E-24
2.50000E-01 3.29290E-24
2.53788E-01 3.19225E-24
2.57595E-01 3.09528E-24
2.61421E-01 3.00183E-24
2.65264E-01 2.91175E-24
2.69126E-01 2.82490E-24
2.73005E-01 2.74113E-24
2.76901E-01 2.66031E-24
2.80814E-01 2.58233E-24
2.84744E-01 2.50705E-24
2.88691E-01 2.43438E-24
2.92653E-01 2.36419E-24
2.96632E-01 2.29640E-24
3.00625E-01 2.23089E-24
3.04634E-01 2.16759E-24
3.08658E-01 2.10640E-24
3.12697E-01 2.04724E-24
3.16749E-01 1.99003E-24
3.20816E-01 1.93469E-24
3.24896E-01 1.88114E-24
3.28990E-01 1.82933E-24
3.33097E-01 1.77918E-24
3.37216E-01 1.73064E-24
3.41348E-01 1.68363E-24
3.45492E-01 1.63810E-24
3.49647E-01 1.59400E-24
3.53814E-01 1.55128E-24
3.57992E-01 1.50988E-24
3.62181E-01 1.46975E-24
3.66381E-01 1.43085E-24
3.70590E-01 1.39314E-24
3.74810E-01 1.35656E-24
3.79039E-01 1.32109E-24
3.83277E-01 1.28668E-24
3.87524E-01 1.25330E-24
3.91780E-01 1.22090E-24
3.96044E-01 1.18946E-24
4.00316E-01 1.15893E-24
4.04596E-01 1.12930E-24
4.08882E-01 1.10053E-24
4.13176E-01 1.07259E-24
4.17476E-01 1.04544E-24
4.21783E-01 1.01908E-24
4.26095E-01 9.93459E-25
4.30413E-01 9.68565E-25
4.34737E-01 9.44371E-25
4.39065E-01 9.20854E-25
4.43398E-01 8.97993E-25
4.47736E-01 8.75764E-25
4.52077E-01 8.54149E-25
4.56422E-01 8.33128E-25
4.60770E-01 8.12681E-25
4.65122E-01 7.92790E-25
4.69476E-01 7.73437E-25
4.73832E-01 7.54606E-25
4.78190E-01 7.36281E-25
4.82550E-01 7.18444E-25
4.86912E-01 7.01082E-25
4.91274E-01 6.84180E-25
4.95637E-01 6.67723E-25
5.00000E-01 6.51698E-25
5.04363E-01 6.36091E-25
5.08726E-01 6.20891E-25
5.13088E-01 6.06084E-25
5.17450E-01 5.91660E-25
5.21810E-01 5.77606E-25
5.26168E-01 5.63911E-25
5.30524E-01 5.50566E-25
5.34878E-01 5.37559E-25
5.39230E-01 5.24880E-25
5.43578E-01 5.12521E-25
5.47923E-01 5.00472E-25
5.52264E-01 4.88724E-25
5.56602E-01 4.77267E-25
5.60935E-01 4.66095E-25
5.65263E-01 4.55199E-25
5.69587E-01 4.44570E-25
5.73905E-01 4.34202E-25
5.78217E-01 4.24087E-25
5.82524E-01 4.14218E-25
5.86824E-01 4.04587E-25
5.91118E-01 3.95190E-25
5.95404E-01 3.86018E-25
5.99684E-01 3.77066E-25
6.03956E-01 3.68328E-25
6.08220E-01 3.59797E-25
6.12476E-01 3.51469E-25
6.16723E-01 3.43338E-25
6.20961E-01 3.35398E-25
6.25190E-01 3.27644E-25
6.29410E-01 3.20072E-25
6.33619E-01 3.12676E-25
6.37819E-01 3.05451E-25
6.42008E-01 2.98395E-25
6.46186E-01 2.91500E-25
6.50353E-01 2.84765E-25
6.54508E-01 2.78184E-25
6.58652E-01 2.71753E-25
6.62784E-01 2.65469E-25
6.66903E-01 2.59328E-25
6.71010E-01 2.53325E-25
6.75104E-01 2.47459E-25
6.79184E-01 2.41724E-25
6.83251E-01 2.36118E-25
6.87303E-01 2.30637E-25
6.91342E-01 2.25279E-25
6.95366E-01 2.20040E-25
6.99375E-01 2.14917E-25
7.03368E-01 2.09907E-25
7.07347E-01 2.05008E-25
7.11309E-01 2.00217E-25
7.15256E-01 1.95531E-25
7.19186E-01 1.90947E-25
7.23099E-01 1.86464E-25
7.26995E-01 1.82078E-25
7.30874E-01 1.77788E-25
7.34736E-01 1.73590E-25
7.38579E-01 1.69483E-25
7.42405E-01 1.65465E-25
7.46212E-01 1.61534E-25
7.50000E-01 1.57686E-25
7.53769E-01 1.53922E-25
7.57519E-01 1.50237E-25
7.61249E-01 1.46632E-25
7.64960E-01 1.43103E-25
7.68650E-01 1.39649E-25
7.72320E-01 1.36269E-25
7.75968E-01 1.32960E-25
7.79596E-01 1.29721E-25
7.83203E-01 1.26550E-25
7.86788E-01 1.23446E-25
7.90351E-01 1.20408E-25
7.93893E-01 1.17433E-25
7.97411E-01 1.14521E-25
8.00908E-01 1.11670E-25
8.04381E-01 1.08878E-25
8.07831E-01 1.06145E-25
8.11257E-01 1.03469E-25
8.14660E-01 1.00849E-25
8.18039E-01 9.82830E-26
8.21394E-01 9.57708E-26
8.24724E-01 9.33108E-26
8.28030E-01 9.09021E-26
8.31310E-01 8.85434E-26
8.34565E-01 8.62337E-26
8.37795E-01 8.39720E-26
8.40999E-01 8.17572E-26
8.44177E-01 7.95885E-26
8.47329E-01 7.74648E-26
8.50455E-01 7.53852E-26
8.53553E-01 7.33489E-26
8.56625E-01 7.13548E-26
8.59670E-01 6.94023E-26
8.62687E-01 6.74904E-26
8.65677E-01 6.56183E-26
8.68639E-01 6.37852E-26
8.71572E-01 6.19904E-26
8.74478E-01 6.02332E-26
8.77355E-01 5.85127E-26
8.80203E-01 5.68282E-26
8.83022E-01 5.51792E-26
8.85812E-01 5.35648E-26
8.88573E-01 5.19845E-26
8.91304E-01 5.04376E-26
8.94005E-01 4.89235E-26
8.96677E-01 4.74416E-26
8.99318E-01 4.59912E-26
9.01928E-01 4.45718E-26
9.04508E-01 4.31829E-26
9.07058E-01 4.18239E-26
9.09576E-01 4.04942E-26
9.12063E-01 3.91934E-26
9.14519E-01 3.79209E-26
9.16943E-01 3.66763E-26
9.19335E-01 3.54590E-26
9.21696E-01 3.42687E-26
9.24024E-01 3.31048E-26
9.26320E-01 3.19669E-26
9.28584E-01 3.08546E-26
9.30815E-01 2.97675E-26
9.33013E-01 2.87051E-26
9.35178E-01 2.76671E-26
9.37310E-01 2.66531E-26
9.39409E-01 2.56626E-26
9.41474E-01 2.46954E-26
9.43505E-01 2.37511E-26
9.45503E-01 2.28294E-26
9.47467E-01 2.19298E-26
9.49397E-01 2.10522E-26
9.51293E-01 2.01961E-26
9.53154E-01 1.93612E-26
9.54981E-01 1.85474E-26
9.56773E-01 1.77542E-26
9.58530E-01 1.69813E-26
9.60252E-01 1.62286E-26
9.61940E-01 1.54958E-26
9.63592E-01 1.47825E-26
9.65209E-01 1.40886E-26
9.66790E-01 1.34138E-26
9.68336E-01 1.27579E-26
9.69846E-01 1.21206E-26
9.71321E-01 1.15017E-26
9.72759E-01 1.09011E-26
9.74162E-01 1.03184E-26
9.75528E-01 9.75356E-27
9.76858E-01 9.20631E-27
9.78152E-01 8.67649E-27
9.79410E-01 8.16391E-27
9.80631E-01 7.66840E-27
9.81815E-01 7.18980E-27
9.82963E-01 6.72794E-27
9.84074E-01 6.28267E-27
9.85148E-01 5.85384E-27
9.86185E-01 5.44130E-27
9.87185E-01 5.04492E-27
9.88148E-01 4.66457E-27
9.89074E-01 4.30012E-27
9.89962E-01 3.95145E-27
9.90814E-01 3.61844E-27
9.91627E-01 3.30099E-27
9.92404E-01 2.99899E-27
9.93143E-01 2.71234E-27
9.93844E-01 2.44094E-27
9.94508E-01 2.18471E-27
9.95134E-01 1.94357E-27
9.95722E-01 1.71743E-27
9.96273E-01 1.50622E-27
9.96786E-01 1.30988E-27
9.97261E-01 1.12833E-27
9.97698E-01 9.61523E-28
9.98097E-01 8.09401E-28
9.98459E-01 6.71915E-28
9.98782E-01 5.49020E-28
9.99067E-01 4.40677E-28
9.99315E-01 3.46851E-28
9.99524E-01 2.67511E-28
9.99695E-01 2.02631E-28
9.99829E-01 1.52190E-28
9.99924E-01 1.16173E-28
9.99981E-01 9.45672E-29
1.00000E+00 8.73661E-29
