 #
 # Subroutine ELSEPA. Elastic scattering of electrons and positrons
 #                    by neutral atoms and positive ions
 #
 # Projectile: electron
 # Kinetic energy = 2.50000E+08 eV = 9.18733E+06 a.u.
 #
 # WARNING: High-energy factorization with free-atom DF screening.
 #          Absorption, polarization and exchange corrections are
 #          switched off.
 #          Phase shifts are calculated for the bare nucleus.
 #          Scattering amplitudes are not evaluated.
 #
 # Element: Th,  Z =  90,  atomic weight = 2.32038E+02 g/mol
 #
 # Nuclear model: Fermi distribution
 #                Average radius = 6.57512E-13 cm
 #                Skin thickness = 5.46000E-14 cm
 #
 # Number of electrons = 90
 #
 # Total elastic cross section = 1.18700E-17 cm**2 = 4.23885E-01 a0**2
 # 1st transport cross section = 2.41300E-25 cm**2 = 8.61696E-09 a0**2
 # 2nd transport cross section = 7.22815E-25 cm**2 = 2.58122E-08 a0**2
 #
 #
 # Differential cross section:                       MU=(1-COS(THETA))/2
 #
 #  THETA        MU          DCS          DCS        Sherman      error
 #  (deg)                 (cm**2/sr)   (a0**2/sr)    function
 #----------------------------------------------------------------------
0.00000E+00 9.16408E-09
7.61557E-13 8.93801E-09
1.18994E-12 8.81486E-09
1.71346E-12 8.66804E-09
2.33225E-12 8.49955E-09
3.04617E-12 8.31166E-09
3.85530E-12 8.10680E-09
4.75964E-12 7.88746E-09
5.75917E-12 7.65592E-09
6.85391E-12 7.41517E-09
8.04379E-12 7.16703E-09
9.32893E-12 6.91446E-09
1.07092E-11 6.65898E-09
1.21847E-11 6.40312E-09
1.37554E-11 6.14826E-09
1.54213E-11 5.89620E-09
1.71823E-11 5.64832E-09
1.90386E-11 5.40550E-09
2.09900E-11 5.16930E-09
2.30367E-11 4.93959E-09
2.51785E-11 4.71819E-09
2.74156E-11 4.50417E-09
2.97478E-11 4.29919E-09
3.21752E-11 4.10224E-09
3.46979E-11 3.91425E-09
3.73157E-11 3.73463E-09
4.00286E-11 3.56356E-09
4.28368E-11 3.40085E-09
4.57402E-11 3.24610E-09
4.87388E-11 3.09939E-09
5.18325E-11 2.95999E-09
5.50215E-11 2.82812E-09
5.83057E-11 2.70292E-09
6.16850E-11 2.58455E-09
6.51595E-11 2.47233E-09
6.87293E-11 2.36611E-09
7.23943E-11 2.26551E-09
7.61544E-11 2.17023E-09
1.18991E-10 1.45054E-09
1.71347E-10 1.01249E-09
2.33223E-10 7.31101E-10
3.04617E-10 5.41993E-10
3.85531E-10 4.09369E-10
4.75965E-10 3.14858E-10
5.75917E-10 2.50017E-10
6.85389E-10 1.98675E-10
8.04380E-10 1.61927E-10
9.32891E-10 1.32392E-10
1.07092E-09 1.10045E-10
1.21847E-09 9.19794E-11
1.37554E-09 7.76272E-11
1.54213E-09 6.59912E-11
1.71823E-09 5.63926E-11
1.90386E-09 4.85932E-11
2.09900E-09 4.19815E-11
2.30367E-09 3.65872E-11
2.51785E-09 3.19238E-11
2.74156E-09 2.80790E-11
2.97478E-09 2.47356E-11
3.21752E-09 2.19263E-11
3.46978E-09 1.94869E-11
3.73156E-09 1.73954E-11
4.00286E-09 1.55777E-11
4.28368E-09 1.39921E-11
4.57402E-09 1.26120E-11
4.87388E-09 1.13896E-11
5.18326E-09 1.03242E-11
5.50215E-09 9.36766E-12
5.83057E-09 8.53172E-12
6.16850E-09 7.77467E-12
6.51596E-09 7.10752E-12
6.87293E-09 6.50446E-12
7.23942E-09 5.96652E-12
7.61544E-09 5.48109E-12
1.18991E-08 2.54613E-12
1.71347E-08 1.33982E-12
2.33223E-08 7.72808E-13
3.04617E-08 4.77758E-13
3.85531E-08 3.11003E-13
4.75965E-08 2.11317E-13
5.75917E-08 1.48682E-13
6.85389E-08 1.07714E-13
8.04380E-08 7.99854E-14
9.32891E-08 6.06543E-14
1.07092E-07 4.68175E-14
1.21847E-07 3.67072E-14
1.37554E-07 2.91798E-14
1.54213E-07 2.34825E-14
1.71823E-07 1.91068E-14
1.90386E-07 1.57024E-14
2.09900E-07 1.30223E-14
2.30367E-07 1.08893E-14
2.51785E-07 9.17555E-15
2.74156E-07 7.78647E-15
2.97478E-07 6.65094E-15
3.21752E-07 5.71548E-15
3.46978E-07 4.93917E-15
3.73156E-07 4.29060E-15
4.00286E-07 3.74516E-15
4.28368E-07 3.28386E-15
4.57402E-07 2.89156E-15
4.87388E-07 2.55622E-15
5.18325E-07 2.26816E-15
5.50215E-07 2.01960E-15
5.83057E-07 1.80419E-15
6.16850E-07 1.61672E-15
6.51596E-07 1.45297E-15
6.87293E-07 1.30942E-15
7.23942E-07 1.18317E-15
7.61543E-07 1.07176E-15
1.18991E-06 4.46881E-16
1.71347E-06 2.17891E-16
2.33223E-06 1.18507E-16
3.04617E-06 6.98645E-17
3.85531E-06 4.38154E-17
4.75964E-06 2.88557E-17
5.75916E-06 1.97714E-17
6.85388E-06 1.39978E-17
8.04378E-06 1.01864E-17
9.32888E-06 7.58862E-18
1.07092E-05 5.76870E-18
1.21846E-05 4.46313E-18
1.37553E-05 3.50691E-18
1.54212E-05 2.79361E-18
1.71822E-05 2.25280E-18
1.90385E-05 1.83548E-18
2.09899E-05 1.51268E-18
2.30365E-05 1.25754E-18
2.51783E-05 1.05364E-18
2.74153E-05 8.89158E-19
2.97475E-05 7.55433E-19
3.21749E-05 6.45929E-19
3.46974E-05 5.55630E-19
3.73152E-05 4.80650E-19
4.00281E-05 4.17956E-19
4.28362E-05 3.65182E-19
4.57395E-05 3.20480E-19
4.87380E-05 2.82399E-19
5.18317E-05 2.49794E-19
5.50205E-05 2.21751E-19
5.83045E-05 1.97533E-19
6.16838E-05 1.76535E-19
6.51582E-05 1.58261E-19
6.87277E-05 1.42296E-19
7.23925E-05 1.28297E-19
7.61524E-05 1.16366E-19
9.21439E-05 7.96726E-20
1.09658E-04 5.63910E-20
1.28695E-04 4.10441E-20
1.49255E-04 3.05929E-20
1.71338E-04 2.32751E-20
1.94942E-04 1.80271E-20
2.20070E-04 1.41830E-20
2.46720E-04 1.13145E-20
2.74892E-04 9.13875E-21
3.04586E-04 7.46355E-21
3.35803E-04 6.15683E-21
3.68542E-04 5.12506E-21
4.02802E-04 4.30160E-21
4.38585E-04 3.63804E-21
4.75889E-04 3.09779E-21
5.14715E-04 2.65441E-21
5.55063E-04 2.28781E-21
5.96931E-04 1.98255E-21
6.40321E-04 1.72667E-21
6.85233E-04 1.51083E-21
7.31665E-04 1.32775E-21
7.79618E-04 1.17158E-21
8.29092E-04 1.03773E-21
8.80086E-04 9.22434E-22
9.32601E-04 8.22695E-22
9.86636E-04 7.36050E-22
1.04219E-03 6.60478E-22
1.09927E-03 5.94324E-22
1.15786E-03 5.36205E-22
1.21797E-03 4.84977E-22
1.27961E-03 4.39679E-22
1.34276E-03 3.99503E-22
1.40743E-03 3.63771E-22
1.47362E-03 3.31901E-22
1.54133E-03 3.03405E-22
1.61056E-03 2.77862E-22
1.68131E-03 2.54912E-22
1.75357E-03 2.34245E-22
1.82735E-03 2.15594E-22
1.90265E-03 1.98728E-22
1.97947E-03 1.83446E-22
2.05780E-03 1.69573E-22
2.13765E-03 1.56956E-22
2.21902E-03 1.45462E-22
2.30190E-03 1.34973E-22
2.38630E-03 1.25386E-22
2.47222E-03 1.16610E-22
2.55965E-03 1.08565E-22
2.64859E-03 1.01178E-22
2.73905E-03 9.43877E-23
2.83103E-03 8.81366E-23
2.92452E-03 8.23749E-23
3.01952E-03 7.70576E-23
3.11604E-03 7.21447E-23
3.21407E-03 6.76002E-23
3.31362E-03 6.33919E-23
3.41468E-03 5.94906E-23
3.51725E-03 5.58703E-23
3.62133E-03 5.25075E-23
3.72692E-03 4.93806E-23
3.83403E-03 4.64705E-23
3.94265E-03 4.37598E-23
4.05278E-03 4.12325E-23
4.16442E-03 3.88742E-23
4.27757E-03 3.66718E-23
4.39223E-03 3.46134E-23
4.50840E-03 3.26881E-23
4.62608E-03 3.08859E-23
4.74527E-03 2.91978E-23
4.86597E-03 2.76153E-23
4.98817E-03 2.61309E-23
5.11188E-03 2.47376E-23
5.23711E-03 2.34289E-23
5.36383E-03 2.21990E-23
5.49207E-03 2.10423E-23
5.62181E-03 1.99540E-23
5.75306E-03 1.89293E-23
5.88581E-03 1.79640E-23
6.02007E-03 1.70541E-23
6.15583E-03 1.61961E-23
6.29310E-03 1.53866E-23
6.43187E-03 1.46224E-23
6.57214E-03 1.39007E-23
6.71392E-03 1.32187E-23
6.85720E-03 1.25741E-23
7.00198E-03 1.19644E-23
7.14827E-03 1.13876E-23
7.29605E-03 1.08416E-23
7.44534E-03 1.03245E-23
7.59612E-03 9.83473E-24
7.97965E-03 8.71908E-24
8.37255E-03 7.74144E-24
8.77480E-03 6.88287E-24
9.18641E-03 6.12734E-24
9.60736E-03 5.46120E-24
1.00376E-02 4.87285E-24
1.04773E-02 4.35231E-24
1.09262E-02 3.89106E-24
1.13844E-02 3.48175E-24
1.18520E-02 3.11802E-24
1.23288E-02 2.79439E-24
1.28150E-02 2.50609E-24
1.33104E-02 2.24897E-24
1.38150E-02 2.01943E-24
1.43290E-02 1.81430E-24
1.48521E-02 1.63082E-24
1.53845E-02 1.46657E-24
1.59262E-02 1.31942E-24
1.64770E-02 1.18749E-24
1.70371E-02 1.06912E-24
1.76063E-02 9.62859E-25
1.81848E-02 8.67411E-25
1.87724E-02 7.81631E-25
1.93692E-02 7.04501E-25
1.99751E-02 6.35120E-25
2.05901E-02 5.72684E-25
2.12143E-02 5.16478E-25
2.18476E-02 4.65863E-25
2.24900E-02 4.20271E-25
2.31415E-02 3.79192E-25
2.38021E-02 3.42173E-25
2.44717E-02 3.08804E-25
2.51504E-02 2.78722E-25
2.58382E-02 2.51599E-25
2.65349E-02 2.27142E-25
2.72407E-02 2.05086E-25
2.79555E-02 1.85194E-25
2.86793E-02 1.67255E-25
2.94120E-02 1.51074E-25
3.01537E-02 1.36481E-25
3.09043E-02 1.23319E-25
3.16639E-02 1.11449E-25
3.24324E-02 1.00744E-25
3.32098E-02 9.10897E-26
3.39961E-02 8.23842E-26
3.47912E-02 7.45345E-26
3.55952E-02 6.74569E-26
3.64081E-02 6.10759E-26
3.72297E-02 5.53233E-26
3.80602E-02 5.01375E-26
3.88995E-02 4.54628E-26
3.97476E-02 4.12491E-26
4.06044E-02 3.74509E-26
4.14700E-02 3.40274E-26
4.23443E-02 3.09413E-26
4.32273E-02 2.81594E-26
4.41190E-02 2.56514E-26
4.50194E-02 2.33901E-26
4.59284E-02 2.13508E-26
4.68461E-02 1.95114E-26
4.87074E-02 1.63539E-26
5.06030E-02 1.37796E-26
5.25328E-02 1.16765E-26
5.44967E-02 9.95351E-27
5.64946E-02 8.53695E-27
5.85262E-02 7.36723E-27
6.05914E-02 6.39625E-27
6.26901E-02 5.58530E-27
6.48222E-02 4.90331E-27
6.69873E-02 4.32540E-27
6.91854E-02 3.83170E-27
7.14163E-02 3.40642E-27
7.36799E-02 3.03697E-27
7.59760E-02 2.71343E-27
7.83043E-02 2.42793E-27
8.06647E-02 2.17426E-27
8.30571E-02 1.94753E-27
8.54812E-02 1.74386E-27
8.79369E-02 1.56019E-27
9.04240E-02 1.39408E-27
9.29422E-02 1.24357E-27
9.54915E-02 1.10706E-27
9.80716E-02 9.83239E-28
1.00682E-01 8.70994E-28
1.03323E-01 7.69380E-28
1.05995E-01 6.77563E-28
1.08696E-01 5.94799E-28
1.11427E-01 5.20409E-28
1.14188E-01 4.53762E-28
1.16978E-01 3.94267E-28
1.19797E-01 3.41363E-28
1.22645E-01 2.94518E-28
1.25522E-01 2.53222E-28
1.28428E-01 2.16989E-28
1.31361E-01 1.85356E-28
1.34323E-01 1.57881E-28
1.37313E-01 1.34147E-28
1.40330E-01 1.13760E-28
1.43375E-01 9.63512E-29
1.46447E-01 8.15761E-29
1.49545E-01 6.91156E-29
1.52671E-01 5.86757E-29
1.55823E-01 4.99872E-29
1.59001E-01 4.28056E-29
1.62205E-01 3.69098E-29
1.65435E-01 3.21020E-29
1.68690E-01 2.82060E-29
1.71970E-01 2.50663E-29
1.75276E-01 2.25466E-29
1.78606E-01 2.05290E-29
1.81961E-01 1.89118E-29
1.85340E-01 1.76087E-29
1.88743E-01 1.65469E-29
1.92169E-01 1.56661E-29
1.95619E-01 1.49169E-29
1.99092E-01 1.42595E-29
2.02589E-01 1.36626E-29
2.06107E-01 1.31021E-29
2.09649E-01 1.25602E-29
2.13212E-01 1.20240E-29
2.16797E-01 1.14854E-29
2.20404E-01 1.09393E-29
2.24032E-01 1.03839E-29
2.27680E-01 9.81903E-30
2.31350E-01 9.24658E-30
2.35040E-01 8.66939E-30
2.38751E-01 8.09109E-30
2.42481E-01 7.51574E-30
2.46231E-01 6.94756E-30
2.50000E-01 6.39071E-30
2.53788E-01 5.84912E-30
2.57595E-01 5.32637E-30
2.61421E-01 4.82563E-30
2.65264E-01 4.34953E-30
2.69126E-01 3.90021E-30
2.73005E-01 3.47929E-30
2.76901E-01 3.08785E-30
2.80814E-01 2.72650E-30
2.84744E-01 2.39536E-30
2.88691E-01 2.09417E-30
2.92653E-01 1.82229E-30
2.96632E-01 1.57875E-30
3.00625E-01 1.36234E-30
3.04634E-01 1.17162E-30
3.08658E-01 1.00499E-30
3.12697E-01 8.60727E-31
3.16749E-01 7.37031E-31
3.20816E-01 6.32071E-31
3.24896E-01 5.44007E-31
3.28990E-01 4.71026E-31
3.33097E-01 4.11370E-31
3.37216E-01 3.63352E-31
3.41348E-01 3.25373E-31
3.45492E-01 2.95940E-31
3.49647E-01 2.73670E-31
3.53814E-01 2.57301E-31
3.57992E-01 2.45689E-31
3.62181E-01 2.37815E-31
3.66381E-01 2.32778E-31
3.70590E-01 2.29794E-31
3.74810E-01 2.28191E-31
3.79039E-01 2.27403E-31
3.83277E-01 2.26959E-31
3.87524E-01 2.26482E-31
3.91780E-01 2.25674E-31
3.96044E-01 2.24313E-31
4.00316E-01 2.22238E-31
4.04596E-01 2.19349E-31
4.08882E-01 2.15592E-31
4.13176E-01 2.10955E-31
4.17476E-01 2.05461E-31
4.21783E-01 1.99158E-31
4.26095E-01 1.92117E-31
4.30413E-01 1.84424E-31
4.34737E-01 1.76175E-31
4.39065E-01 1.67475E-31
4.43398E-01 1.58430E-31
4.47736E-01 1.49146E-31
4.52077E-01 1.39727E-31
4.56422E-01 1.30271E-31
4.60770E-01 1.20870E-31
4.65122E-01 1.11608E-31
4.69476E-01 1.02560E-31
4.73832E-01 9.37925E-32
4.78190E-01 8.53619E-32
4.82550E-01 7.73150E-32
4.86912E-01 6.96896E-32
4.91274E-01 6.25142E-32
4.95637E-01 5.58090E-32
5.00000E-01 4.95861E-32
5.04363E-01 4.38507E-32
5.08726E-01 3.86011E-32
5.13088E-01 3.38302E-32
5.17450E-01 2.95256E-32
5.21810E-01 2.56711E-32
5.26168E-01 2.22464E-32
5.30524E-01 1.92289E-32
5.34878E-01 1.65936E-32
5.39230E-01 1.43141E-32
5.43578E-01 1.23628E-32
5.47923E-01 1.07118E-32
5.52264E-01 9.33314E-33
5.56602E-01 8.19918E-33
5.60935E-01 7.28300E-33
5.65263E-01 6.55862E-33
5.69587E-01 6.00130E-33
5.73905E-01 5.58765E-33
5.78217E-01 5.29584E-33
5.82524E-01 5.10561E-33
5.86824E-01 4.99841E-33
5.91118E-01 4.95739E-33
5.95404E-01 4.96738E-33
5.99684E-01 5.01491E-33
6.03956E-01 5.08812E-33
6.08220E-01 5.17672E-33
6.12476E-01 5.27189E-33
6.16723E-01 5.36623E-33
6.20961E-01 5.45361E-33
6.25190E-01 5.52912E-33
6.29410E-01 5.58890E-33
6.33619E-01 5.63012E-33
6.37819E-01 5.65079E-33
6.42008E-01 5.64970E-33
6.46186E-01 5.62633E-33
6.50353E-01 5.58071E-33
6.54508E-01 5.51339E-33
6.58652E-01 5.42529E-33
6.62784E-01 5.31768E-33
6.66903E-01 5.19206E-33
6.71010E-01 5.05015E-33
6.75104E-01 4.89377E-33
6.79184E-01 4.72484E-33
6.83251E-01 4.54531E-33
6.87303E-01 4.35713E-33
6.91342E-01 4.16221E-33
6.95366E-01 3.96239E-33
6.99375E-01 3.75943E-33
7.03368E-01 3.55499E-33
7.07347E-01 3.35061E-33
7.11309E-01 3.14768E-33
7.15256E-01 2.94750E-33
7.19186E-01 2.75121E-33
7.23099E-01 2.55979E-33
7.26995E-01 2.37413E-33
7.30874E-01 2.19495E-33
7.34736E-01 2.02286E-33
7.38579E-01 1.85834E-33
7.42405E-01 1.70177E-33
7.46212E-01 1.55340E-33
7.50000E-01 1.41341E-33
7.53769E-01 1.28188E-33
7.57519E-01 1.15878E-33
7.61249E-01 1.04407E-33
7.64960E-01 9.37584E-34
7.68650E-01 8.39143E-34
7.72320E-01 7.48504E-34
7.75968E-01 6.65390E-34
7.79596E-01 5.89492E-34
7.83203E-01 5.20475E-34
7.86788E-01 4.57985E-34
7.90351E-01 4.01659E-34
7.93893E-01 3.51120E-34
7.97411E-01 3.05992E-34
8.00908E-01 2.65898E-34
8.04381E-01 2.30465E-34
8.07831E-01 1.99330E-34
8.11257E-01 1.72135E-34
8.14660E-01 1.48538E-34
8.18039E-01 1.28209E-34
8.21394E-01 1.10834E-34
8.24724E-01 9.61150E-35
8.28030E-01 8.37704E-35
8.31310E-01 7.35362E-35
8.34565E-01 6.51667E-35
8.37795E-01 5.84330E-35
8.40999E-01 5.31243E-35
8.44177E-01 4.90468E-35
8.47329E-01 4.60231E-35
8.50455E-01 4.38922E-35
8.53553E-01 4.25087E-35
8.56625E-01 4.17415E-35
8.59670E-01 4.14737E-35
8.62687E-01 4.16014E-35
8.65677E-01 4.20331E-35
8.68639E-01 4.26886E-35
8.71572E-01 4.34982E-35
8.74478E-01 4.44019E-35
8.77355E-01 4.53487E-35
8.80203E-01 4.62958E-35
8.83022E-01 4.72074E-35
8.85812E-01 4.80548E-35
8.88573E-01 4.88146E-35
8.91304E-01 4.94689E-35
8.94005E-01 5.00046E-35
8.96677E-01 5.04123E-35
8.99318E-01 5.06863E-35
9.01928E-01 5.08241E-35
9.04508E-01 5.08254E-35
9.07058E-01 5.06923E-35
9.09576E-01 5.04287E-35
9.12063E-01 5.00397E-35
9.14519E-01 4.95321E-35
9.16943E-01 4.89129E-35
9.19335E-01 4.81901E-35
9.21696E-01 4.73724E-35
9.24024E-01 4.64684E-35
9.26320E-01 4.54867E-35
9.28584E-01 4.44365E-35
9.30815E-01 4.33263E-35
9.33013E-01 4.21646E-35
9.35178E-01 4.09597E-35
9.37310E-01 3.97192E-35
9.39409E-01 3.84508E-35
9.41474E-01 3.71615E-35
9.43505E-01 3.58576E-35
9.45503E-01 3.45455E-35
9.47467E-01 3.32307E-35
9.49397E-01 3.19185E-35
9.51293E-01 3.06134E-35
9.53154E-01 2.93198E-35
9.54981E-01 2.80413E-35
9.56773E-01 2.67815E-35
9.58530E-01 2.55432E-35
9.60252E-01 2.43291E-35
9.61940E-01 2.31413E-35
9.63592E-01 2.19818E-35
9.65209E-01 2.08523E-35
9.66790E-01 1.97537E-35
9.68336E-01 1.86875E-35
9.69846E-01 1.76541E-35
9.71321E-01 1.66542E-35
9.72759E-01 1.56881E-35
9.74162E-01 1.47563E-35
9.75528E-01 1.38585E-35
9.76858E-01 1.29947E-35
9.78152E-01 1.21648E-35
9.79410E-01 1.13682E-35
9.80631E-01 1.06048E-35
9.81815E-01 9.87385E-36
9.82963E-01 9.17498E-36
9.84074E-01 8.50759E-36
9.85148E-01 7.87089E-36
9.86185E-01 7.26437E-36
9.87185E-01 6.68729E-36
9.88148E-01 6.13891E-36
9.89074E-01 5.61855E-36
9.89962E-01 5.12553E-36
9.90814E-01 4.65919E-36
9.91627E-01 4.21868E-36
9.92404E-01 3.80346E-36
9.93143E-01 3.41285E-36
9.93844E-01 3.04623E-36
9.94508E-01 2.70295E-36
9.95134E-01 2.38252E-36
9.95722E-01 2.08429E-36
9.96273E-01 1.80775E-36
9.96786E-01 1.55243E-36
9.97261E-01 1.31792E-36
9.97698E-01 1.10370E-36
9.98097E-01 9.09463E-37
9.98459E-01 7.34780E-37
9.98782E-01 5.79356E-37
9.99067E-01 4.42923E-37
9.99315E-01 3.25180E-37
9.99524E-01 2.25937E-37
9.99695E-01 1.44997E-37
9.99829E-01 8.21725E-38
9.99924E-01 3.74180E-38
9.99981E-01 1.05776E-38
1.00000E+00 1.64293E-39
