 #
 # Subroutine ELSEPA. Elastic scattering of electrons and positrons
 #                    by neutral atoms and positive ions
 #
 # Projectile: electron
 # Kinetic energy = 4.00000E+06 eV = 1.46997E+05 a.u.
 #
 # WARNING: High-energy factorization with free-atom DF screening.
 #          Absorption, polarization and exchange corrections are
 #          switched off.
 #          Phase shifts are calculated for the bare nucleus.
 #          Scattering amplitudes are not evaluated.
 #
 # Element: Th,  Z =  90,  atomic weight = 2.32038E+02 g/mol
 #
 # Nuclear model: Fermi distribution
 #                Average radius = 6.57512E-13 cm
 #                Skin thickness = 5.46000E-14 cm
 #
 # Number of electrons = 90
 #
 # Total elastic cross section = 1.20422E-17 cm**2 = 4.30035E-01 a0**2
 # 1st transport cross section = 6.71890E-22 cm**2 = 2.39936E-05 a0**2
 # 2nd transport cross section = 1.75908E-21 cm**2 = 6.28180E-05 a0**2
 #
 #
 # Differential cross section:                       MU=(1-COS(THETA))/2
 #
 #  THETA        MU          DCS          DCS        Sherman      error
 #  (deg)                 (cm**2/sr)   (a0**2/sr)    function
 #----------------------------------------------------------------------
0.00000E+00 2.97153E-12
7.61557E-13 2.97151E-12
1.18994E-12 2.97150E-12
1.71346E-12 2.97148E-12
2.33225E-12 2.97146E-12
3.04617E-12 2.97144E-12
3.85530E-12 2.97141E-12
4.75964E-12 2.97138E-12
5.75917E-12 2.97135E-12
6.85391E-12 2.97132E-12
8.04379E-12 2.97128E-12
9.32893E-12 2.97124E-12
1.07092E-11 2.97120E-12
1.21847E-11 2.97115E-12
1.37554E-11 2.97110E-12
1.54213E-11 2.97105E-12
1.71823E-11 2.97100E-12
1.90386E-11 2.97094E-12
2.09900E-11 2.97088E-12
2.30367E-11 2.97081E-12
2.51785E-11 2.97074E-12
2.74156E-11 2.97067E-12
2.97478E-11 2.97060E-12
3.21752E-11 2.97053E-12
3.46979E-11 2.97045E-12
3.73157E-11 2.97036E-12
4.00286E-11 2.97028E-12
4.28368E-11 2.97019E-12
4.57402E-11 2.97010E-12
4.87388E-11 2.97001E-12
5.18325E-11 2.96991E-12
5.50215E-11 2.96981E-12
5.83057E-11 2.96971E-12
6.16850E-11 2.96960E-12
6.51595E-11 2.96949E-12
6.87293E-11 2.96938E-12
7.23943E-11 2.96926E-12
7.61544E-11 2.96915E-12
1.18991E-10 2.96781E-12
1.71347E-10 2.96617E-12
2.33223E-10 2.96423E-12
3.04617E-10 2.96200E-12
3.85531E-10 2.95948E-12
4.75965E-10 2.95666E-12
5.75917E-10 2.95355E-12
6.85389E-10 2.95015E-12
8.04380E-10 2.94646E-12
9.32891E-10 2.94249E-12
1.07092E-09 2.93823E-12
1.21847E-09 2.93369E-12
1.37554E-09 2.92886E-12
1.54213E-09 2.92376E-12
1.71823E-09 2.91839E-12
1.90386E-09 2.91273E-12
2.09900E-09 2.90681E-12
2.30367E-09 2.90062E-12
2.51785E-09 2.89417E-12
2.74156E-09 2.88745E-12
2.97478E-09 2.88047E-12
3.21752E-09 2.87324E-12
3.46978E-09 2.86575E-12
3.73156E-09 2.85802E-12
4.00286E-09 2.85004E-12
4.28368E-09 2.84182E-12
4.57402E-09 2.83336E-12
4.87388E-09 2.82466E-12
5.18326E-09 2.81573E-12
5.50215E-09 2.80658E-12
5.83057E-09 2.79720E-12
6.16850E-09 2.78760E-12
6.51596E-09 2.77779E-12
6.87293E-09 2.76777E-12
7.23942E-09 2.75754E-12
7.61544E-09 2.74711E-12
1.18991E-08 2.63267E-12
1.71347E-08 2.50301E-12
2.33223E-08 2.36282E-12
3.04617E-08 2.21653E-12
3.85531E-08 2.06814E-12
4.75965E-08 1.92105E-12
5.75917E-08 1.77801E-12
6.85389E-08 1.64127E-12
8.04380E-08 1.51207E-12
9.32891E-08 1.39128E-12
1.07092E-07 1.27931E-12
1.21847E-07 1.17623E-12
1.37554E-07 1.08191E-12
1.54213E-07 9.95893E-13
1.71823E-07 9.17624E-13
1.90386E-07 8.46536E-13
2.09900E-07 7.82040E-13
2.30367E-07 7.23551E-13
2.51785E-07 6.70476E-13
2.74156E-07 6.22265E-13
2.97478E-07 5.78431E-13
3.21752E-07 5.38528E-13
3.46978E-07 5.02149E-13
3.73156E-07 4.68884E-13
4.00286E-07 4.38423E-13
4.28368E-07 4.10498E-13
4.57402E-07 3.84855E-13
4.87388E-07 3.61265E-13
5.18325E-07 3.39511E-13
5.50215E-07 3.19381E-13
5.83057E-07 3.00769E-13
6.16850E-07 2.83535E-13
6.51596E-07 2.67556E-13
6.87293E-07 2.52718E-13
7.23942E-07 2.38881E-13
7.61543E-07 2.25992E-13
1.18991E-06 1.34911E-13
1.71347E-06 8.61083E-14
2.33223E-06 5.77778E-14
3.04617E-06 4.04917E-14
3.85531E-06 2.93395E-14
4.75964E-06 2.18219E-14
5.75916E-06 1.65726E-14
6.85388E-06 1.27791E-14
8.04378E-06 1.00293E-14
9.32888E-06 7.99332E-15
1.07092E-05 6.45764E-15
1.21846E-05 5.27995E-15
1.37553E-05 4.35868E-15
1.54212E-05 3.63060E-15
1.71822E-05 3.04975E-15
1.90385E-05 2.57917E-15
2.09899E-05 2.19907E-15
2.30365E-05 1.88534E-15
2.51783E-05 1.62345E-15
2.74153E-05 1.40546E-15
2.97475E-05 1.22193E-15
3.21749E-05 1.06670E-15
3.46974E-05 9.35545E-16
3.73152E-05 8.24034E-16
4.00281E-05 7.28906E-16
4.28362E-05 6.47341E-16
4.57395E-05 5.77000E-16
4.87380E-05 5.16021E-16
5.18317E-05 4.62883E-16
5.50205E-05 4.16356E-16
5.83045E-05 3.75574E-16
6.16838E-05 3.39717E-16
6.51582E-05 3.08094E-16
6.87277E-05 2.80120E-16
7.23925E-05 2.55267E-16
7.61524E-05 2.33137E-16
9.21439E-05 1.65536E-16
1.09658E-04 1.20789E-16
1.28695E-04 9.01482E-17
1.49255E-04 6.87293E-17
1.71338E-04 5.33412E-17
1.94942E-04 4.20521E-17
2.20070E-04 3.36009E-17
2.46720E-04 2.71775E-17
2.74892E-04 2.22268E-17
3.04586E-04 1.83576E-17
3.35803E-04 1.52973E-17
3.68542E-04 1.28485E-17
4.02802E-04 1.08675E-17
4.38585E-04 9.25422E-18
4.75889E-04 7.92931E-18
5.14715E-04 6.83315E-18
5.55063E-04 5.91987E-18
5.96931E-04 5.15350E-18
6.40321E-04 4.50714E-18
6.85233E-04 3.95918E-18
7.31665E-04 3.49222E-18
7.79618E-04 3.09224E-18
8.29092E-04 2.74805E-18
8.80086E-04 2.45044E-18
9.32601E-04 2.19222E-18
9.86636E-04 1.96730E-18
1.04219E-03 1.77062E-18
1.09927E-03 1.59803E-18
1.15786E-03 1.44599E-18
1.21797E-03 1.31169E-18
1.27961E-03 1.19270E-18
1.34276E-03 1.08697E-18
1.40743E-03 9.92748E-19
1.47362E-03 9.08546E-19
1.54133E-03 8.33104E-19
1.61056E-03 7.65362E-19
1.68131E-03 7.04394E-19
1.75357E-03 6.49403E-19
1.82735E-03 5.99691E-19
1.90265E-03 5.54647E-19
1.97947E-03 5.13765E-19
2.05780E-03 4.76594E-19
2.13765E-03 4.42735E-19
2.21902E-03 4.11839E-19
2.30190E-03 3.83594E-19
2.38630E-03 3.57732E-19
2.47222E-03 3.34019E-19
2.55965E-03 3.12245E-19
2.64859E-03 2.92221E-19
2.73905E-03 2.73782E-19
2.83103E-03 2.56773E-19
2.92452E-03 2.41069E-19
3.01952E-03 2.26551E-19
3.11604E-03 2.13113E-19
3.21407E-03 2.00660E-19
3.31362E-03 1.89105E-19
3.41468E-03 1.78371E-19
3.51725E-03 1.68391E-19
3.62133E-03 1.59103E-19
3.72692E-03 1.50448E-19
3.83403E-03 1.42376E-19
3.94265E-03 1.34839E-19
4.05278E-03 1.27797E-19
4.16442E-03 1.21211E-19
4.27757E-03 1.15045E-19
4.39223E-03 1.09269E-19
4.50840E-03 1.03852E-19
4.62608E-03 9.87677E-20
4.74527E-03 9.39928E-20
4.86597E-03 8.95047E-20
4.98817E-03 8.52830E-20
5.11188E-03 8.13086E-20
5.23711E-03 7.75642E-20
5.36383E-03 7.40343E-20
5.49207E-03 7.07044E-20
5.62181E-03 6.75609E-20
5.75306E-03 6.45915E-20
5.88581E-03 6.17844E-20
6.02007E-03 5.91293E-20
6.15583E-03 5.66165E-20
6.29310E-03 5.42368E-20
6.43187E-03 5.19820E-20
6.57214E-03 4.98440E-20
6.71392E-03 4.78157E-20
6.85720E-03 4.58905E-20
7.00198E-03 4.40622E-20
7.14827E-03 4.23249E-20
7.29605E-03 4.06732E-20
7.44534E-03 3.91020E-20
7.59612E-03 3.76067E-20
7.97965E-03 3.41728E-20
8.37255E-03 3.11259E-20
8.77480E-03 2.84149E-20
9.18641E-03 2.59960E-20
9.60736E-03 2.38322E-20
1.00376E-02 2.18918E-20
1.04773E-02 2.01475E-20
1.09262E-02 1.85760E-20
1.13844E-02 1.71569E-20
1.18520E-02 1.58728E-20
1.23288E-02 1.47086E-20
1.28150E-02 1.36510E-20
1.33104E-02 1.26884E-20
1.38150E-02 1.18108E-20
1.43290E-02 1.10091E-20
1.48521E-02 1.02756E-20
1.53845E-02 9.60349E-21
1.59262E-02 8.98658E-21
1.64770E-02 8.41952E-21
1.70371E-02 7.89751E-21
1.76063E-02 7.41625E-21
1.81848E-02 6.97200E-21
1.87724E-02 6.56136E-21
1.93692E-02 6.18131E-21
1.99751E-02 5.82912E-21
2.05901E-02 5.50234E-21
2.12143E-02 5.19880E-21
2.18476E-02 4.91652E-21
2.24900E-02 4.65373E-21
2.31415E-02 4.40882E-21
2.38021E-02 4.18032E-21
2.44717E-02 3.96691E-21
2.51504E-02 3.76742E-21
2.58382E-02 3.58076E-21
2.65349E-02 3.40593E-21
2.72407E-02 3.24203E-21
2.79555E-02 3.08824E-21
2.86793E-02 2.94382E-21
2.94120E-02 2.80807E-21
3.01537E-02 2.68039E-21
3.09043E-02 2.56018E-21
3.16639E-02 2.44691E-21
3.24324E-02 2.34012E-21
3.32098E-02 2.23935E-21
3.39961E-02 2.14419E-21
3.47912E-02 2.05427E-21
3.55952E-02 1.96924E-21
3.64081E-02 1.88877E-21
3.72297E-02 1.81258E-21
3.80602E-02 1.74038E-21
3.88995E-02 1.67193E-21
3.97476E-02 1.60699E-21
4.06044E-02 1.54533E-21
4.14700E-02 1.48677E-21
4.23443E-02 1.43111E-21
4.32273E-02 1.37817E-21
4.41190E-02 1.32781E-21
4.50194E-02 1.27985E-21
4.59284E-02 1.23417E-21
4.68461E-02 1.19063E-21
4.87074E-02 1.10950E-21
5.06030E-02 1.03557E-21
5.25328E-02 9.68081E-22
5.44967E-02 9.06348E-22
5.64946E-02 8.49776E-22
5.85262E-02 7.97846E-22
6.05914E-02 7.50093E-22
6.26901E-02 7.06111E-22
6.48222E-02 6.65537E-22
6.69873E-02 6.28049E-22
6.91854E-02 5.93361E-22
7.14163E-02 5.61217E-22
7.36799E-02 5.31392E-22
7.59760E-02 5.03678E-22
7.83043E-02 4.77892E-22
8.06647E-02 4.53870E-22
8.30571E-02 4.31465E-22
8.54812E-02 4.10541E-22
8.79369E-02 3.90978E-22
9.04240E-02 3.72667E-22
9.29422E-02 3.55509E-22
9.54915E-02 3.39414E-22
9.80716E-02 3.24301E-22
1.00682E-01 3.10095E-22
1.03323E-01 2.96729E-22
1.05995E-01 2.84140E-22
1.08696E-01 2.72273E-22
1.11427E-01 2.61077E-22
1.14188E-01 2.50503E-22
1.16978E-01 2.40508E-22
1.19797E-01 2.31054E-22
1.22645E-01 2.22103E-22
1.25522E-01 2.13621E-22
1.28428E-01 2.05578E-22
1.31361E-01 1.97946E-22
1.34323E-01 1.90697E-22
1.37313E-01 1.83808E-22
1.40330E-01 1.77256E-22
1.43375E-01 1.71021E-22
1.46447E-01 1.65083E-22
1.49545E-01 1.59423E-22
1.52671E-01 1.54027E-22
1.55823E-01 1.48877E-22
1.59001E-01 1.43960E-22
1.62205E-01 1.39263E-22
1.65435E-01 1.34772E-22
1.68690E-01 1.30477E-22
1.71970E-01 1.26366E-22
1.75276E-01 1.22430E-22
1.78606E-01 1.18659E-22
1.81961E-01 1.15044E-22
1.85340E-01 1.11577E-22
1.88743E-01 1.08250E-22
1.92169E-01 1.05056E-22
1.95619E-01 1.01989E-22
1.99092E-01 9.90407E-23
2.02589E-01 9.62066E-23
2.06107E-01 9.34806E-23
2.09649E-01 9.08575E-23
2.13212E-01 8.83322E-23
2.16797E-01 8.59000E-23
2.20404E-01 8.35565E-23
2.24032E-01 8.12977E-23
2.27680E-01 7.91195E-23
2.31350E-01 7.70183E-23
2.35040E-01 7.49906E-23
2.38751E-01 7.30331E-23
2.42481E-01 7.11426E-23
2.46231E-01 6.93160E-23
2.50000E-01 6.75507E-23
2.53788E-01 6.58440E-23
2.57595E-01 6.41934E-23
2.61421E-01 6.25965E-23
2.65264E-01 6.10511E-23
2.69126E-01 5.95550E-23
2.73005E-01 5.81062E-23
2.76901E-01 5.67028E-23
2.80814E-01 5.53428E-23
2.84744E-01 5.40245E-23
2.88691E-01 5.27464E-23
2.92653E-01 5.15068E-23
2.96632E-01 5.03042E-23
3.00625E-01 4.91372E-23
3.04634E-01 4.80045E-23
3.08658E-01 4.69047E-23
3.12697E-01 4.58366E-23
3.16749E-01 4.47990E-23
3.20816E-01 4.37908E-23
3.24896E-01 4.28108E-23
3.28990E-01 4.18581E-23
3.33097E-01 4.09317E-23
3.37216E-01 4.00307E-23
3.41348E-01 3.91542E-23
3.45492E-01 3.83012E-23
3.49647E-01 3.74711E-23
3.53814E-01 3.66629E-23
3.57992E-01 3.58759E-23
3.62181E-01 3.51095E-23
3.66381E-01 3.43628E-23
3.70590E-01 3.36353E-23
3.74810E-01 3.29264E-23
3.79039E-01 3.22354E-23
3.83277E-01 3.15617E-23
3.87524E-01 3.09048E-23
3.91780E-01 3.02642E-23
3.96044E-01 2.96392E-23
4.00316E-01 2.90295E-23
4.04596E-01 2.84345E-23
4.08882E-01 2.78537E-23
4.13176E-01 2.72868E-23
4.17476E-01 2.67334E-23
4.21783E-01 2.61930E-23
4.26095E-01 2.56651E-23
4.30413E-01 2.51496E-23
4.34737E-01 2.46459E-23
4.39065E-01 2.41537E-23
4.43398E-01 2.36727E-23
4.47736E-01 2.32026E-23
4.52077E-01 2.27430E-23
4.56422E-01 2.22936E-23
4.60770E-01 2.18542E-23
4.65122E-01 2.14245E-23
4.69476E-01 2.10042E-23
4.73832E-01 2.05931E-23
4.78190E-01 2.01908E-23
4.82550E-01 1.97972E-23
4.86912E-01 1.94120E-23
4.91274E-01 1.90349E-23
4.95637E-01 1.86657E-23
5.00000E-01 1.83044E-23
5.04363E-01 1.79506E-23
5.08726E-01 1.76042E-23
5.13088E-01 1.72649E-23
5.17450E-01 1.69326E-23
5.21810E-01 1.66070E-23
5.26168E-01 1.62880E-23
5.30524E-01 1.59755E-23
5.34878E-01 1.56693E-23
5.39230E-01 1.53692E-23
5.43578E-01 1.50750E-23
5.47923E-01 1.47867E-23
5.52264E-01 1.45041E-23
5.56602E-01 1.42270E-23
5.60935E-01 1.39553E-23
5.65263E-01 1.36889E-23
5.69587E-01 1.34276E-23
5.73905E-01 1.31714E-23
5.78217E-01 1.29200E-23
5.82524E-01 1.26735E-23
5.86824E-01 1.24316E-23
5.91118E-01 1.21943E-23
5.95404E-01 1.19614E-23
5.99684E-01 1.17330E-23
6.03956E-01 1.15087E-23
6.08220E-01 1.12887E-23
6.12476E-01 1.10727E-23
6.16723E-01 1.08607E-23
6.20961E-01 1.06525E-23
6.25190E-01 1.04482E-23
6.29410E-01 1.02476E-23
6.33619E-01 1.00507E-23
6.37819E-01 9.85727E-24
6.42008E-01 9.66737E-24
6.46186E-01 9.48087E-24
6.50353E-01 9.29770E-24
6.54508E-01 9.11781E-24
6.58652E-01 8.94110E-24
6.62784E-01 8.76753E-24
6.66903E-01 8.59702E-24
6.71010E-01 8.42952E-24
6.75104E-01 8.26496E-24
6.79184E-01 8.10328E-24
6.83251E-01 7.94443E-24
6.87303E-01 7.78834E-24
6.91342E-01 7.63496E-24
6.95366E-01 7.48423E-24
6.99375E-01 7.33611E-24
7.03368E-01 7.19054E-24
7.07347E-01 7.04748E-24
7.11309E-01 6.90687E-24
7.15256E-01 6.76866E-24
7.19186E-01 6.63282E-24
7.23099E-01 6.49929E-24
7.26995E-01 6.36804E-24
7.30874E-01 6.23901E-24
7.34736E-01 6.11218E-24
7.38579E-01 5.98749E-24
7.42405E-01 5.86491E-24
7.46212E-01 5.74440E-24
7.50000E-01 5.62592E-24
7.53769E-01 5.50943E-24
7.57519E-01 5.39490E-24
7.61249E-01 5.28230E-24
7.64960E-01 5.17159E-24
7.68650E-01 5.06273E-24
7.72320E-01 4.95570E-24
7.75968E-01 4.85046E-24
7.79596E-01 4.74698E-24
7.83203E-01 4.64524E-24
7.86788E-01 4.54519E-24
7.90351E-01 4.44682E-24
7.93893E-01 4.35009E-24
7.97411E-01 4.25498E-24
8.00908E-01 4.16147E-24
8.04381E-01 4.06951E-24
8.07831E-01 3.97910E-24
8.11257E-01 3.89020E-24
8.14660E-01 3.80278E-24
8.18039E-01 3.71684E-24
8.21394E-01 3.63234E-24
8.24724E-01 3.54926E-24
8.28030E-01 3.46757E-24
8.31310E-01 3.38727E-24
8.34565E-01 3.30831E-24
8.37795E-01 3.23069E-24
8.40999E-01 3.15439E-24
8.44177E-01 3.07938E-24
8.47329E-01 3.00565E-24
8.50455E-01 2.93317E-24
8.53553E-01 2.86193E-24
8.56625E-01 2.79190E-24
8.59670E-01 2.72309E-24
8.62687E-01 2.65545E-24
8.65677E-01 2.58899E-24
8.68639E-01 2.52367E-24
8.71572E-01 2.45950E-24
8.74478E-01 2.39644E-24
8.77355E-01 2.33449E-24
8.80203E-01 2.27363E-24
8.83022E-01 2.21384E-24
8.85812E-01 2.15511E-24
8.88573E-01 2.09743E-24
8.91304E-01 2.04079E-24
8.94005E-01 1.98516E-24
8.96677E-01 1.93054E-24
8.99318E-01 1.87692E-24
9.01928E-01 1.82428E-24
9.04508E-01 1.77260E-24
9.07058E-01 1.72189E-24
9.09576E-01 1.67212E-24
9.12063E-01 1.62329E-24
9.14519E-01 1.57538E-24
9.16943E-01 1.52838E-24
9.19335E-01 1.48229E-24
9.21696E-01 1.43708E-24
9.24024E-01 1.39276E-24
9.26320E-01 1.34932E-24
9.28584E-01 1.30673E-24
9.30815E-01 1.26500E-24
9.33013E-01 1.22411E-24
9.35178E-01 1.18406E-24
9.37310E-01 1.14483E-24
9.39409E-01 1.10642E-24
9.41474E-01 1.06882E-24
9.43505E-01 1.03203E-24
9.45503E-01 9.96025E-25
9.47467E-01 9.60808E-25
9.49397E-01 9.26370E-25
9.51293E-01 8.92703E-25
9.53154E-01 8.59800E-25
9.54981E-01 8.27655E-25
9.56773E-01 7.96260E-25
9.58530E-01 7.65609E-25
9.60252E-01 7.35696E-25
9.61940E-01 7.06514E-25
9.63592E-01 6.78057E-25
9.65209E-01 6.50320E-25
9.66790E-01 6.23297E-25
9.68336E-01 5.96981E-25
9.69846E-01 5.71369E-25
9.71321E-01 5.46454E-25
9.72759E-01 5.22231E-25
9.74162E-01 4.98696E-25
9.75528E-01 4.75844E-25
9.76858E-01 4.53670E-25
9.78152E-01 4.32170E-25
9.79410E-01 4.11339E-25
9.80631E-01 3.91173E-25
9.81815E-01 3.71668E-25
9.82963E-01 3.52820E-25
9.84074E-01 3.34626E-25
9.85148E-01 3.17082E-25
9.86185E-01 3.00184E-25
9.87185E-01 2.83929E-25
9.88148E-01 2.68313E-25
9.89074E-01 2.53335E-25
9.89962E-01 2.38990E-25
9.90814E-01 2.25276E-25
9.91627E-01 2.12190E-25
9.92404E-01 1.99730E-25
9.93143E-01 1.87893E-25
9.93844E-01 1.76676E-25
9.94508E-01 1.66079E-25
9.95134E-01 1.56098E-25
9.95722E-01 1.46731E-25
9.96273E-01 1.37977E-25
9.96786E-01 1.29835E-25
9.97261E-01 1.22302E-25
9.97698E-01 1.15376E-25
9.98097E-01 1.09058E-25
9.98459E-01 1.03345E-25
9.98782E-01 9.82364E-26
9.99067E-01 9.37311E-26
9.99315E-01 8.98283E-26
9.99524E-01 8.65272E-26
9.99695E-01 8.38272E-26
9.99829E-01 8.17277E-26
9.99924E-01 8.02283E-26
9.99981E-01 7.93288E-26
1.00000E+00 7.90290E-26
