 #
 # Subroutine ELSEPA. Elastic scattering of electrons and positrons
 #                    by neutral atoms and positive ions
 #
 # Projectile: electron
 # Kinetic energy = 1.50000E+07 eV = 5.51240E+05 a.u.
 #
 # WARNING: High-energy factorization with free-atom DF screening.
 #          Absorption, polarization and exchange corrections are
 #          switched off.
 #          Phase shifts are calculated for the bare nucleus.
 #          Scattering amplitudes are not evaluated.
 #
 # Element: Th,  Z =  90,  atomic weight = 2.32038E+02 g/mol
 #
 # Nuclear model: Fermi distribution
 #                Average radius = 6.57512E-13 cm
 #                Skin thickness = 5.46000E-14 cm
 #
 # Number of electrons = 90
 #
 # Total elastic cross section = 1.18862E-17 cm**2 = 4.24464E-01 a0**2
 # 1st transport cross section = 6.28290E-23 cm**2 = 2.24366E-06 a0**2
 # 2nd transport cross section = 1.73242E-22 cm**2 = 6.18657E-06 a0**2
 #
 #
 # Differential cross section:                       MU=(1-COS(THETA))/2
 #
 #  THETA        MU          DCS          DCS        Sherman      error
 #  (deg)                 (cm**2/sr)   (a0**2/sr)    function
 #----------------------------------------------------------------------
0.00000E+00 3.51329E-11
7.61557E-13 3.51295E-11
1.18994E-12 3.51276E-11
1.71346E-12 3.51253E-11
2.33225E-12 3.51225E-11
3.04617E-12 3.51193E-11
3.85530E-12 3.51157E-11
4.75964E-12 3.51117E-11
5.75917E-12 3.51073E-11
6.85391E-12 3.51024E-11
8.04379E-12 3.50971E-11
9.32893E-12 3.50914E-11
1.07092E-11 3.50853E-11
1.21847E-11 3.50787E-11
1.37554E-11 3.50718E-11
1.54213E-11 3.50644E-11
1.71823E-11 3.50566E-11
1.90386E-11 3.50483E-11
2.09900E-11 3.50397E-11
2.30367E-11 3.50306E-11
2.51785E-11 3.50212E-11
2.74156E-11 3.50113E-11
2.97478E-11 3.50010E-11
3.21752E-11 3.49902E-11
3.46979E-11 3.49791E-11
3.73157E-11 3.49675E-11
4.00286E-11 3.49556E-11
4.28368E-11 3.49432E-11
4.57402E-11 3.49304E-11
4.87388E-11 3.49172E-11
5.18325E-11 3.49036E-11
5.50215E-11 3.48896E-11
5.83057E-11 3.48752E-11
6.16850E-11 3.48603E-11
6.51595E-11 3.48451E-11
6.87293E-11 3.48294E-11
7.23943E-11 3.48134E-11
7.61544E-11 3.47969E-11
1.18991E-10 3.46103E-11
1.71347E-10 3.43844E-11
2.33223E-10 3.41205E-11
3.04617E-10 3.38201E-11
3.85531E-10 3.34847E-11
4.75965E-10 3.31162E-11
5.75917E-10 3.27165E-11
6.85389E-10 3.22876E-11
8.04380E-10 3.18318E-11
9.32891E-10 3.13510E-11
1.07092E-09 3.08481E-11
1.21847E-09 3.03246E-11
1.37554E-09 2.97829E-11
1.54213E-09 2.92256E-11
1.71823E-09 2.86553E-11
1.90386E-09 2.80734E-11
2.09900E-09 2.74819E-11
2.30367E-09 2.68844E-11
2.51785E-09 2.62817E-11
2.74156E-09 2.56753E-11
2.97478E-09 2.50674E-11
3.21752E-09 2.44612E-11
3.46978E-09 2.38562E-11
3.73156E-09 2.32537E-11
4.00286E-09 2.26572E-11
4.28368E-09 2.20668E-11
4.57402E-09 2.14824E-11
4.87388E-09 2.09057E-11
5.18326E-09 2.03399E-11
5.50215E-09 1.97828E-11
5.83057E-09 1.92351E-11
6.16850E-09 1.86995E-11
6.51596E-09 1.81757E-11
6.87293E-09 1.76627E-11
7.23942E-09 1.71610E-11
7.61544E-09 1.66740E-11
1.18991E-08 1.24794E-11
1.71347E-08 9.42487E-12
2.33223E-08 7.24088E-12
3.04617E-08 5.66691E-12
3.85531E-08 4.51076E-12
4.75965E-08 3.64291E-12
5.75917E-08 2.97835E-12
6.85389E-08 2.46058E-12
8.04380E-08 2.05178E-12
9.32891E-08 1.72554E-12
1.07092E-07 1.45226E-12
1.21847E-07 1.23714E-12
1.37554E-07 1.06761E-12
1.54213E-07 9.27100E-13
1.71823E-07 8.03540E-13
1.90386E-07 7.03459E-13
2.09900E-07 6.21540E-13
2.30367E-07 5.48063E-13
2.51785E-07 4.85512E-13
2.74156E-07 4.33259E-13
2.97478E-07 3.88306E-13
3.21752E-07 3.47238E-13
3.46978E-07 3.12355E-13
3.73156E-07 2.82536E-13
4.00286E-07 2.55353E-13
4.28368E-07 2.31267E-13
4.57402E-07 2.10414E-13
4.87388E-07 1.92080E-13
5.18325E-07 1.75039E-13
5.50215E-07 1.60123E-13
5.83057E-07 1.47010E-13
6.16850E-07 1.35015E-13
6.51596E-07 1.24150E-13
6.87293E-07 1.14513E-13
7.23942E-07 1.05908E-13
7.61543E-07 9.78579E-14
1.18991E-06 4.86870E-14
1.71347E-06 2.69660E-14
2.33223E-06 1.60699E-14
3.04617E-06 1.01181E-14
3.85531E-06 6.69423E-15
4.75964E-06 4.61008E-15
5.75916E-06 3.28077E-15
6.85388E-06 2.40119E-15
8.04378E-06 1.79892E-15
9.32888E-06 1.37440E-15
1.07092E-05 1.06737E-15
1.21846E-05 8.42613E-16
1.37553E-05 6.74459E-16
1.54212E-05 5.45863E-16
1.71822E-05 4.46831E-16
1.90385E-05 3.69225E-16
2.09899E-05 3.08186E-16
2.30365E-05 2.59208E-16
2.51783E-05 2.19577E-16
2.74153E-05 1.87197E-16
2.97475E-05 1.60484E-16
3.21749E-05 1.38390E-16
3.46974E-05 1.19993E-16
3.73152E-05 1.04537E-16
4.00281E-05 9.14994E-17
4.28362E-05 8.04410E-17
4.57395E-05 7.09967E-17
4.87380E-05 6.28855E-17
5.18317E-05 5.58998E-17
5.50205E-05 4.98573E-17
5.83045E-05 4.46020E-17
6.16838E-05 4.00241E-17
6.51582E-05 3.60219E-17
6.87277E-05 3.25081E-17
7.23925E-05 2.94130E-17
7.61524E-05 2.66756E-17
9.21439E-05 1.84658E-17
1.09658E-04 1.31902E-17
1.28695E-04 9.67431E-18
1.49255E-04 7.25711E-18
1.71338E-04 5.55033E-18
1.94942E-04 4.31725E-18
2.20070E-04 3.40831E-18
2.46720E-04 2.72633E-18
2.74892E-04 2.20669E-18
3.04586E-04 1.80508E-18
3.35803E-04 1.49083E-18
3.68542E-04 1.24207E-18
4.02802E-04 1.04311E-18
4.38585E-04 8.82464E-19
4.75889E-04 7.51596E-19
5.14715E-04 6.44145E-19
5.55063E-04 5.55243E-19
5.96931E-04 4.81187E-19
6.40321E-04 4.19094E-19
6.85233E-04 3.66717E-19
7.31665E-04 3.22290E-19
7.79618E-04 2.84403E-19
8.29092E-04 2.51937E-19
8.80086E-04 2.23984E-19
9.32601E-04 1.99812E-19
9.86636E-04 1.78821E-19
1.04219E-03 1.60524E-19
1.09927E-03 1.44516E-19
1.15786E-03 1.30459E-19
1.21797E-03 1.18075E-19
1.27961E-03 1.07131E-19
1.34276E-03 9.74301E-20
1.40743E-03 8.88065E-20
1.47362E-03 8.11191E-20
1.54133E-03 7.42490E-20
1.61056E-03 6.80932E-20
1.68131E-03 6.25647E-20
1.75357E-03 5.75882E-20
1.82735E-03 5.30986E-20
1.90265E-03 4.90400E-20
1.97947E-03 4.53633E-20
2.05780E-03 4.20263E-20
2.13765E-03 3.89919E-20
2.21902E-03 3.62276E-20
2.30190E-03 3.37052E-20
2.38630E-03 3.13995E-20
2.47222E-03 2.92886E-20
2.55965E-03 2.73531E-20
2.64859E-03 2.55756E-20
2.73905E-03 2.39410E-20
2.83103E-03 2.24356E-20
2.92452E-03 2.10474E-20
3.01952E-03 1.97654E-20
3.11604E-03 1.85802E-20
3.21407E-03 1.74831E-20
3.31362E-03 1.64662E-20
3.41468E-03 1.55227E-20
3.51725E-03 1.46463E-20
3.62133E-03 1.38312E-20
3.72692E-03 1.30725E-20
3.83403E-03 1.23654E-20
3.94265E-03 1.17059E-20
4.05278E-03 1.10901E-20
4.16442E-03 1.05146E-20
4.27757E-03 9.97616E-21
4.39223E-03 9.47207E-21
4.50840E-03 8.99969E-21
4.62608E-03 8.55664E-21
4.74527E-03 8.14075E-21
4.86597E-03 7.75006E-21
4.98817E-03 7.38273E-21
5.11188E-03 7.03711E-21
5.23711E-03 6.71167E-21
5.36383E-03 6.40502E-21
5.49207E-03 6.11585E-21
5.62181E-03 5.84299E-21
5.75306E-03 5.58533E-21
5.88581E-03 5.34186E-21
6.02007E-03 5.11166E-21
6.15583E-03 4.89387E-21
6.29310E-03 4.68769E-21
6.43187E-03 4.49237E-21
6.57214E-03 4.30725E-21
6.71392E-03 4.13167E-21
6.85720E-03 3.96506E-21
7.00198E-03 3.80686E-21
7.14827E-03 3.65658E-21
7.29605E-03 3.51374E-21
7.44534E-03 3.37789E-21
7.59612E-03 3.24864E-21
7.97965E-03 2.95189E-21
8.37255E-03 2.68870E-21
8.77480E-03 2.45460E-21
9.18641E-03 2.24580E-21
9.60736E-03 2.05906E-21
1.00376E-02 1.89163E-21
1.04773E-02 1.74116E-21
1.09262E-02 1.60560E-21
1.13844E-02 1.48321E-21
1.18520E-02 1.37247E-21
1.23288E-02 1.27207E-21
1.28150E-02 1.18085E-21
1.33104E-02 1.09783E-21
1.38150E-02 1.02213E-21
1.43290E-02 9.52979E-22
1.48521E-02 8.89704E-22
1.53845E-02 8.31712E-22
1.59262E-02 7.78476E-22
1.64770E-02 7.29532E-22
1.70371E-02 6.84468E-22
1.76063E-02 6.42916E-22
1.81848E-02 6.04549E-22
1.87724E-02 5.69076E-22
1.93692E-02 5.36236E-22
1.99751E-02 5.05795E-22
2.05901E-02 4.77544E-22
2.12143E-02 4.51293E-22
2.18476E-02 4.26873E-22
2.24900E-02 4.04131E-22
2.31415E-02 3.82930E-22
2.38021E-02 3.63142E-22
2.44717E-02 3.44656E-22
2.51504E-02 3.27368E-22
2.58382E-02 3.11186E-22
2.65349E-02 2.96024E-22
2.72407E-02 2.81804E-22
2.79555E-02 2.68456E-22
2.86793E-02 2.55917E-22
2.94120E-02 2.44127E-22
3.01537E-02 2.33031E-22
3.09043E-02 2.22580E-22
3.16639E-02 2.12730E-22
3.24324E-02 2.03439E-22
3.32098E-02 1.94668E-22
3.39961E-02 1.86382E-22
3.47912E-02 1.78548E-22
3.55952E-02 1.71138E-22
3.64081E-02 1.64123E-22
3.72297E-02 1.57477E-22
3.80602E-02 1.51177E-22
3.88995E-02 1.45201E-22
3.97476E-02 1.39530E-22
4.06044E-02 1.34144E-22
4.14700E-02 1.29025E-22
4.23443E-02 1.24158E-22
4.32273E-02 1.19529E-22
4.41190E-02 1.15121E-22
4.50194E-02 1.10922E-22
4.59284E-02 1.06922E-22
4.68461E-02 1.03108E-22
4.87074E-02 9.59964E-23
5.06030E-02 8.95122E-23
5.25328E-02 8.35880E-23
5.44967E-02 7.81659E-23
5.64946E-02 7.31940E-23
5.85262E-02 6.86275E-23
6.05914E-02 6.44261E-23
6.26901E-02 6.05546E-23
6.48222E-02 5.69814E-23
6.69873E-02 5.36787E-23
6.91854E-02 5.06217E-23
7.14163E-02 4.77881E-23
7.36799E-02 4.51581E-23
7.59760E-02 4.27138E-23
7.83043E-02 4.04394E-23
8.06647E-02 3.83203E-23
8.30571E-02 3.63438E-23
8.54812E-02 3.44981E-23
8.79369E-02 3.27726E-23
9.04240E-02 3.11578E-23
9.29422E-02 2.96450E-23
9.54915E-02 2.82263E-23
9.80716E-02 2.68947E-23
1.00682E-01 2.56436E-23
1.03323E-01 2.44670E-23
1.05995E-01 2.33596E-23
1.08696E-01 2.23163E-23
1.11427E-01 2.13329E-23
1.14188E-01 2.04052E-23
1.16978E-01 1.95292E-23
1.19797E-01 1.86998E-23
1.22645E-01 1.79152E-23
1.25522E-01 1.71725E-23
1.28428E-01 1.64690E-23
1.31361E-01 1.58022E-23
1.34323E-01 1.51696E-23
1.37313E-01 1.45691E-23
1.40330E-01 1.39988E-23
1.43375E-01 1.34567E-23
1.46447E-01 1.29412E-23
1.49545E-01 1.24507E-23
1.52671E-01 1.19836E-23
1.55823E-01 1.15387E-23
1.59001E-01 1.11145E-23
1.62205E-01 1.07100E-23
1.65435E-01 1.03240E-23
1.68690E-01 9.95548E-24
1.71970E-01 9.60345E-24
1.75276E-01 9.26702E-24
1.78606E-01 8.94534E-24
1.81961E-01 8.63762E-24
1.85340E-01 8.34312E-24
1.88743E-01 8.06114E-24
1.92169E-01 7.79103E-24
1.95619E-01 7.53219E-24
1.99092E-01 7.28403E-24
2.02589E-01 7.04601E-24
2.06107E-01 6.81764E-24
2.09649E-01 6.59843E-24
2.13212E-01 6.38793E-24
2.16797E-01 6.18572E-24
2.20404E-01 5.99140E-24
2.24032E-01 5.80460E-24
2.27680E-01 5.62496E-24
2.31350E-01 5.45215E-24
2.35040E-01 5.28584E-24
2.38751E-01 5.12575E-24
2.42481E-01 4.97159E-24
2.46231E-01 4.82309E-24
2.50000E-01 4.68000E-24
2.53788E-01 4.54207E-24
2.57595E-01 4.40909E-24
2.61421E-01 4.28083E-24
2.65264E-01 4.15710E-24
2.69126E-01 4.03770E-24
2.73005E-01 3.92244E-24
2.76901E-01 3.81115E-24
2.80814E-01 3.70367E-24
2.84744E-01 3.59983E-24
2.88691E-01 3.49949E-24
2.92653E-01 3.40251E-24
2.96632E-01 3.30874E-24
3.00625E-01 3.21807E-24
3.04634E-01 3.13036E-24
3.08658E-01 3.04550E-24
3.12697E-01 2.96338E-24
3.16749E-01 2.88388E-24
3.20816E-01 2.80692E-24
3.24896E-01 2.73239E-24
3.28990E-01 2.66020E-24
3.33097E-01 2.59026E-24
3.37216E-01 2.52249E-24
3.41348E-01 2.45680E-24
3.45492E-01 2.39312E-24
3.49647E-01 2.33138E-24
3.53814E-01 2.27150E-24
3.57992E-01 2.21342E-24
3.62181E-01 2.15707E-24
3.66381E-01 2.10239E-24
3.70590E-01 2.04932E-24
3.74810E-01 1.99780E-24
3.79039E-01 1.94779E-24
3.83277E-01 1.89922E-24
3.87524E-01 1.85204E-24
3.91780E-01 1.80622E-24
3.96044E-01 1.76170E-24
4.00316E-01 1.71844E-24
4.04596E-01 1.67639E-24
4.08882E-01 1.63552E-24
4.13176E-01 1.59579E-24
4.17476E-01 1.55715E-24
4.21783E-01 1.51958E-24
4.26095E-01 1.48303E-24
4.30413E-01 1.44748E-24
4.34737E-01 1.41289E-24
4.39065E-01 1.37923E-24
4.43398E-01 1.34648E-24
4.47736E-01 1.31459E-24
4.52077E-01 1.28356E-24
4.56422E-01 1.25334E-24
4.60770E-01 1.22391E-24
4.65122E-01 1.19525E-24
4.69476E-01 1.16734E-24
4.73832E-01 1.14014E-24
4.78190E-01 1.11365E-24
4.82550E-01 1.08784E-24
4.86912E-01 1.06268E-24
4.91274E-01 1.03816E-24
4.95637E-01 1.01426E-24
5.00000E-01 9.90962E-25
5.04363E-01 9.68246E-25
5.08726E-01 9.46095E-25
5.13088E-01 9.24494E-25
5.17450E-01 9.03425E-25
5.21810E-01 8.82874E-25
5.26168E-01 8.62826E-25
5.30524E-01 8.43266E-25
5.34878E-01 8.24180E-25
5.39230E-01 8.05556E-25
5.43578E-01 7.87378E-25
5.47923E-01 7.69636E-25
5.52264E-01 7.52317E-25
5.56602E-01 7.35410E-25
5.60935E-01 7.18902E-25
5.65263E-01 7.02782E-25
5.69587E-01 6.87041E-25
5.73905E-01 6.71667E-25
5.78217E-01 6.56651E-25
5.82524E-01 6.41984E-25
5.86824E-01 6.27654E-25
5.91118E-01 6.13655E-25
5.95404E-01 5.99976E-25
5.99684E-01 5.86609E-25
6.03956E-01 5.73546E-25
6.08220E-01 5.60780E-25
6.12476E-01 5.48301E-25
6.16723E-01 5.36103E-25
6.20961E-01 5.24178E-25
6.25190E-01 5.12520E-25
6.29410E-01 5.01121E-25
6.33619E-01 4.89975E-25
6.37819E-01 4.79076E-25
6.42008E-01 4.68416E-25
6.46186E-01 4.57990E-25
6.50353E-01 4.47793E-25
6.54508E-01 4.37818E-25
6.58652E-01 4.28059E-25
6.62784E-01 4.18512E-25
6.66903E-01 4.09172E-25
6.71010E-01 4.00032E-25
6.75104E-01 3.91089E-25
6.79184E-01 3.82337E-25
6.83251E-01 3.73772E-25
6.87303E-01 3.65389E-25
6.91342E-01 3.57184E-25
6.95366E-01 3.49153E-25
6.99375E-01 3.41291E-25
7.03368E-01 3.33594E-25
7.07347E-01 3.26059E-25
7.11309E-01 3.18682E-25
7.15256E-01 3.11458E-25
7.19186E-01 3.04386E-25
7.23099E-01 2.97459E-25
7.26995E-01 2.90677E-25
7.30874E-01 2.84035E-25
7.34736E-01 2.77529E-25
7.38579E-01 2.71158E-25
7.42405E-01 2.64917E-25
7.46212E-01 2.58804E-25
7.50000E-01 2.52816E-25
7.53769E-01 2.46951E-25
7.57519E-01 2.41204E-25
7.61249E-01 2.35575E-25
7.64960E-01 2.30060E-25
7.68650E-01 2.24656E-25
7.72320E-01 2.19362E-25
7.75968E-01 2.14174E-25
7.79596E-01 2.09091E-25
7.83203E-01 2.04111E-25
7.86788E-01 1.99230E-25
7.90351E-01 1.94448E-25
7.93893E-01 1.89761E-25
7.97411E-01 1.85168E-25
8.00908E-01 1.80667E-25
8.04381E-01 1.76256E-25
8.07831E-01 1.71934E-25
8.11257E-01 1.67697E-25
8.14660E-01 1.63545E-25
8.18039E-01 1.59475E-25
8.21394E-01 1.55487E-25
8.24724E-01 1.51578E-25
8.28030E-01 1.47747E-25
8.31310E-01 1.43992E-25
8.34565E-01 1.40312E-25
8.37795E-01 1.36705E-25
8.40999E-01 1.33169E-25
8.44177E-01 1.29705E-25
8.47329E-01 1.26309E-25
8.50455E-01 1.22981E-25
8.53553E-01 1.19719E-25
8.56625E-01 1.16522E-25
8.59670E-01 1.13390E-25
8.62687E-01 1.10320E-25
8.65677E-01 1.07311E-25
8.68639E-01 1.04363E-25
8.71572E-01 1.01474E-25
8.74478E-01 9.86431E-26
8.77355E-01 9.58694E-26
8.80203E-01 9.31517E-26
8.83022E-01 9.04890E-26
8.85812E-01 8.78804E-26
8.88573E-01 8.53248E-26
8.91304E-01 8.28215E-26
8.94005E-01 8.03694E-26
8.96677E-01 7.79676E-26
8.99318E-01 7.56154E-26
9.01928E-01 7.33118E-26
9.04508E-01 7.10561E-26
9.07058E-01 6.88474E-26
9.09576E-01 6.66849E-26
9.12063E-01 6.45680E-26
9.14519E-01 6.24958E-26
9.16943E-01 6.04677E-26
9.19335E-01 5.84828E-26
9.21696E-01 5.65407E-26
9.24024E-01 5.46405E-26
9.26320E-01 5.27816E-26
9.28584E-01 5.09635E-26
9.30815E-01 4.91854E-26
9.33013E-01 4.74468E-26
9.35178E-01 4.57471E-26
9.37310E-01 4.40858E-26
9.39409E-01 4.24622E-26
9.41474E-01 4.08758E-26
9.43505E-01 3.93262E-26
9.45503E-01 3.78127E-26
9.47467E-01 3.63350E-26
9.49397E-01 3.48924E-26
9.51293E-01 3.34846E-26
9.53154E-01 3.21111E-26
9.54981E-01 3.07715E-26
9.56773E-01 2.94653E-26
9.58530E-01 2.81920E-26
9.60252E-01 2.69513E-26
9.61940E-01 2.57429E-26
9.63592E-01 2.45662E-26
9.65209E-01 2.34210E-26
9.66790E-01 2.23068E-26
9.68336E-01 2.12234E-26
9.69846E-01 2.01703E-26
9.71321E-01 1.91473E-26
9.72759E-01 1.81540E-26
9.74162E-01 1.71901E-26
9.75528E-01 1.62554E-26
9.76858E-01 1.53495E-26
9.78152E-01 1.44721E-26
9.79410E-01 1.36230E-26
9.80631E-01 1.28020E-26
9.81815E-01 1.20087E-26
9.82963E-01 1.12429E-26
9.84074E-01 1.05044E-26
9.85148E-01 9.79303E-27
9.86185E-01 9.10848E-27
9.87185E-01 8.45056E-27
9.88148E-01 7.81910E-27
9.89074E-01 7.21388E-27
9.89962E-01 6.63474E-27
9.90814E-01 6.08150E-27
9.91627E-01 5.55398E-27
9.92404E-01 5.05204E-27
9.93143E-01 4.57553E-27
9.93844E-01 4.12429E-27
9.94508E-01 3.69820E-27
9.95134E-01 3.29712E-27
9.95722E-01 2.92095E-27
9.96273E-01 2.56957E-27
9.96786E-01 2.24286E-27
9.97261E-01 1.94075E-27
9.97698E-01 1.66313E-27
9.98097E-01 1.40992E-27
9.98459E-01 1.18106E-27
9.98782E-01 9.76464E-28
9.99067E-01 7.96082E-28
9.99315E-01 6.39859E-28
9.99524E-01 5.07748E-28
9.99695E-01 3.99710E-28
9.99829E-01 3.15713E-28
9.99924E-01 2.55734E-28
9.99981E-01 2.19753E-28
1.00000E+00 2.07760E-28
