 #
 # Subroutine ELSEPA. Elastic scattering of electrons and positrons
 #                    by neutral atoms and positive ions
 #
 # Projectile: positron
 # Kinetic energy = 2.00000E+07 eV = 7.34987E+05 a.u.
 #
 # WARNING: High-energy factorization with free-atom DF screening.
 #          Absorption, polarization and exchange corrections are
 #          switched off.
 #          Phase shifts are calculated for the bare nucleus.
 #          Scattering amplitudes are not evaluated.
 #
 # Element:  K,  Z =  19,  atomic weight = 3.90983E+01 g/mol
 #
 # Nuclear model: Fermi distribution
 #                Average radius = 3.63164E-13 cm
 #                Skin thickness = 5.46000E-14 cm
 #
 # Number of electrons = 19
 #
 # Total elastic cross section = 1.51423E-18 cm**2 = 5.40741E-02 a0**2
 # 1st transport cross section = 1.53426E-24 cm**2 = 5.47895E-08 a0**2
 # 2nd transport cross section = 4.46020E-24 cm**2 = 1.59277E-07 a0**2
 #
 #
 # Differential cross section:                       MU=(1-COS(THETA))/2
 #
 #  THETA        MU          DCS          DCS        Sherman      error
 #  (deg)                 (cm**2/sr)   (a0**2/sr)    function
 #----------------------------------------------------------------------
0.00000E+00 1.29469E-11
7.61557E-13 1.29429E-11
1.18994E-12 1.29407E-11
1.71346E-12 1.29379E-11
2.33225E-12 1.29347E-11
3.04617E-12 1.29310E-11
3.85530E-12 1.29268E-11
4.75964E-12 1.29221E-11
5.75917E-12 1.29169E-11
6.85391E-12 1.29112E-11
8.04379E-12 1.29051E-11
9.32893E-12 1.28984E-11
1.07092E-11 1.28913E-11
1.21847E-11 1.28837E-11
1.37554E-11 1.28756E-11
1.54213E-11 1.28670E-11
1.71823E-11 1.28579E-11
1.90386E-11 1.28484E-11
2.09900E-11 1.28384E-11
2.30367E-11 1.28279E-11
2.51785E-11 1.28169E-11
2.74156E-11 1.28055E-11
2.97478E-11 1.27936E-11
3.21752E-11 1.27812E-11
3.46979E-11 1.27683E-11
3.73157E-11 1.27551E-11
4.00286E-11 1.27413E-11
4.28368E-11 1.27271E-11
4.57402E-11 1.27125E-11
4.87388E-11 1.26973E-11
5.18325E-11 1.26817E-11
5.50215E-11 1.26657E-11
5.83057E-11 1.26492E-11
6.16850E-11 1.26324E-11
6.51595E-11 1.26150E-11
6.87293E-11 1.25973E-11
7.23943E-11 1.25791E-11
7.61544E-11 1.25604E-11
1.18991E-10 1.23511E-11
1.71347E-10 1.21029E-11
2.33223E-10 1.18195E-11
3.04617E-10 1.15058E-11
3.85531E-10 1.11657E-11
4.75965E-10 1.08051E-11
5.75917E-10 1.04277E-11
6.85389E-10 1.00389E-11
8.04380E-10 9.64255E-12
9.32891E-10 9.24295E-12
1.07092E-09 8.84407E-12
1.21847E-09 8.44842E-12
1.37554E-09 8.06020E-12
1.54213E-09 7.68015E-12
1.71823E-09 7.31209E-12
1.90386E-09 6.95596E-12
2.09900E-09 6.61404E-12
2.30367E-09 6.28663E-12
2.51785E-09 5.97430E-12
2.74156E-09 5.67775E-12
2.97478E-09 5.39613E-12
3.21752E-09 5.13057E-12
3.46978E-09 4.87933E-12
3.73156E-09 4.64784E-12
4.00286E-09 4.44002E-12
4.28368E-09 4.23905E-12
4.57402E-09 4.04509E-12
4.87388E-09 3.85820E-12
5.18326E-09 3.67844E-12
5.50215E-09 3.50579E-12
5.83057E-09 3.34799E-12
6.16850E-09 3.21233E-12
6.51596E-09 3.08203E-12
6.87293E-09 2.95701E-12
7.23942E-09 2.83715E-12
7.61544E-09 2.72232E-12
1.18991E-08 1.88956E-12
1.71347E-08 1.38163E-12
2.33223E-08 1.03769E-12
3.04617E-08 7.87748E-13
3.85531E-08 6.03657E-13
4.75965E-08 4.63697E-13
5.75917E-08 3.58940E-13
6.85389E-08 2.79493E-13
8.04380E-08 2.19473E-13
9.32891E-08 1.73929E-13
1.07092E-07 1.39150E-13
1.21847E-07 1.12517E-13
1.37554E-07 9.19127E-14
1.54213E-07 7.58805E-14
1.71823E-07 6.32657E-14
1.90386E-07 5.32583E-14
2.09900E-07 4.52376E-14
2.30367E-07 3.87485E-14
2.51785E-07 3.34481E-14
2.74156E-07 2.90767E-14
2.97478E-07 2.54403E-14
3.21752E-07 2.23860E-14
3.46978E-07 1.98030E-14
3.73156E-07 1.75934E-14
4.00286E-07 1.56906E-14
4.28368E-07 1.40638E-14
4.57402E-07 1.26434E-14
4.87388E-07 1.13961E-14
5.18325E-07 1.03146E-14
5.50215E-07 9.34769E-15
5.83057E-07 8.49370E-15
6.16850E-07 7.74472E-15
6.51596E-07 7.06154E-15
6.87293E-07 6.45734E-15
7.23942E-07 5.91918E-15
7.61543E-07 5.42635E-15
1.18991E-06 2.47459E-15
1.71347E-06 1.25791E-15
2.33223E-06 6.98395E-16
3.04617E-06 4.16731E-16
3.85531E-06 2.63758E-16
4.75964E-06 1.75158E-16
5.75916E-06 1.20980E-16
6.85388E-06 8.63160E-17
8.04378E-06 6.32762E-17
9.32888E-06 4.74611E-17
1.07092E-05 3.63047E-17
1.21846E-05 2.82463E-17
1.37553E-05 2.23059E-17
1.54212E-05 1.78478E-17
1.71822E-05 1.44486E-17
1.90385E-05 1.18199E-17
2.09899E-05 9.76240E-18
2.30365E-05 8.13266E-18
2.51783E-05 6.82830E-18
2.74153E-05 5.77441E-18
2.97475E-05 4.91564E-18
3.21749E-05 4.21030E-18
3.46974E-05 3.62673E-18
3.73152E-05 3.14060E-18
4.00281E-05 2.73314E-18
4.28362E-05 2.38948E-18
4.57395E-05 2.09806E-18
4.87380E-05 1.84963E-18
5.18317E-05 1.63680E-18
5.50205E-05 1.45364E-18
5.83045E-05 1.29534E-18
6.16838E-05 1.15798E-18
6.51582E-05 1.03831E-18
6.87277E-05 9.33688E-19
7.23925E-05 8.41896E-19
7.61524E-05 7.61093E-19
9.21439E-05 5.20405E-19
1.09658E-04 3.67680E-19
1.28695E-04 2.67048E-19
1.49255E-04 1.98576E-19
1.71338E-04 1.50695E-19
1.94942E-04 1.16403E-19
2.20070E-04 9.13271E-20
2.46720E-04 7.26503E-20
2.74892E-04 5.85095E-20
3.04586E-04 4.76458E-20
3.35803E-04 3.91886E-20
3.68542E-04 3.25261E-20
4.02802E-04 2.72203E-20
4.38585E-04 2.29527E-20
4.75889E-04 1.94889E-20
5.14715E-04 1.66535E-20
5.55063E-04 1.43152E-20
5.96931E-04 1.23729E-20
6.40321E-04 1.07489E-20
6.85233E-04 9.38258E-21
7.31665E-04 8.22645E-21
7.79618E-04 7.24288E-21
8.29092E-04 6.40188E-21
8.80086E-04 5.67936E-21
9.32601E-04 5.05586E-21
9.86636E-04 4.51553E-21
1.04219E-03 4.04542E-21
1.09927E-03 3.63487E-21
1.15786E-03 3.27504E-21
1.21797E-03 2.95860E-21
1.27961E-03 2.67943E-21
1.34276E-03 2.43239E-21
1.40743E-03 2.21314E-21
1.47362E-03 2.01801E-21
1.54133E-03 1.84390E-21
1.61056E-03 1.68813E-21
1.68131E-03 1.54846E-21
1.75357E-03 1.42291E-21
1.82735E-03 1.30981E-21
1.90265E-03 1.20772E-21
1.97947E-03 1.11536E-21
2.05780E-03 1.03166E-21
2.13765E-03 9.55648E-22
2.21902E-03 8.86499E-22
2.30190E-03 8.23482E-22
2.38630E-03 7.65957E-22
2.47222E-03 7.13360E-22
2.55965E-03 6.65194E-22
2.64859E-03 6.21017E-22
2.73905E-03 5.80442E-22
2.83103E-03 5.43120E-22
2.92452E-03 5.08745E-22
3.01952E-03 4.77042E-22
3.11604E-03 4.47765E-22
3.21407E-03 4.20696E-22
3.31362E-03 3.95637E-22
3.41468E-03 3.72413E-22
3.51725E-03 3.50865E-22
3.62133E-03 3.30850E-22
3.72692E-03 3.12239E-22
3.83403E-03 2.94915E-22
3.94265E-03 2.78773E-22
4.05278E-03 2.63719E-22
4.16442E-03 2.49665E-22
4.27757E-03 2.36532E-22
4.39223E-03 2.24250E-22
4.50840E-03 2.12752E-22
4.62608E-03 2.01981E-22
4.74527E-03 1.91881E-22
4.86597E-03 1.82402E-22
4.98817E-03 1.73501E-22
5.11188E-03 1.65134E-22
5.23711E-03 1.57264E-22
5.36383E-03 1.49857E-22
5.49207E-03 1.42879E-22
5.62181E-03 1.36302E-22
5.75306E-03 1.30097E-22
5.88581E-03 1.24241E-22
6.02007E-03 1.18710E-22
6.15583E-03 1.13482E-22
6.29310E-03 1.08538E-22
6.43187E-03 1.03859E-22
6.57214E-03 9.94296E-23
6.71392E-03 9.52327E-23
6.85720E-03 9.12543E-23
7.00198E-03 8.74808E-23
7.14827E-03 8.38997E-23
7.29605E-03 8.04995E-23
7.44534E-03 7.72692E-23
7.59612E-03 7.41988E-23
7.97965E-03 6.71623E-23
8.37255E-03 6.09378E-23
8.77480E-03 5.54158E-23
9.18641E-03 5.05032E-23
9.60736E-03 4.61213E-23
1.00376E-02 4.22029E-23
1.04773E-02 3.86904E-23
1.09262E-02 3.55345E-23
1.13844E-02 3.26927E-23
1.18520E-02 3.01283E-23
1.23288E-02 2.78094E-23
1.28150E-02 2.57085E-23
1.33104E-02 2.38015E-23
1.38150E-02 2.20673E-23
1.43290E-02 2.04876E-23
1.48521E-02 1.90460E-23
1.53845E-02 1.77285E-23
1.59262E-02 1.65224E-23
1.64770E-02 1.54167E-23
1.70371E-02 1.44015E-23
1.76063E-02 1.34681E-23
1.81848E-02 1.26087E-23
1.87724E-02 1.18164E-23
1.93692E-02 1.10850E-23
1.99751E-02 1.04091E-23
2.05901E-02 9.78362E-24
2.12143E-02 9.20415E-24
2.18476E-02 8.66671E-24
2.24900E-02 8.16770E-24
2.31415E-02 7.70388E-24
2.38021E-02 7.27232E-24
2.44717E-02 6.87037E-24
2.51504E-02 6.49563E-24
2.58382E-02 6.14594E-24
2.65349E-02 5.81931E-24
2.72407E-02 5.51394E-24
2.79555E-02 5.22822E-24
2.86793E-02 4.96063E-24
2.94120E-02 4.70982E-24
3.01537E-02 4.47456E-24
3.09043E-02 4.25369E-24
3.16639E-02 4.04618E-24
3.24324E-02 3.85108E-24
3.32098E-02 3.66751E-24
3.39961E-02 3.49466E-24
3.47912E-02 3.33180E-24
3.55952E-02 3.17823E-24
3.64081E-02 3.03334E-24
3.72297E-02 2.89655E-24
3.80602E-02 2.76731E-24
3.88995E-02 2.64514E-24
3.97476E-02 2.52958E-24
4.06044E-02 2.42021E-24
4.14700E-02 2.31663E-24
4.23443E-02 2.21849E-24
4.32273E-02 2.12543E-24
4.41190E-02 2.03716E-24
4.50194E-02 1.95339E-24
4.59284E-02 1.87383E-24
4.68461E-02 1.79824E-24
4.87074E-02 1.65805E-24
5.06030E-02 1.53113E-24
5.25328E-02 1.41601E-24
5.44967E-02 1.31139E-24
5.64946E-02 1.21616E-24
5.85262E-02 1.12932E-24
6.05914E-02 1.05001E-24
6.26901E-02 9.77465E-25
6.48222E-02 9.11003E-25
6.69873E-02 8.50027E-25
6.91854E-02 7.94005E-25
7.14163E-02 7.42464E-25
7.36799E-02 6.94984E-25
7.59760E-02 6.51189E-25
7.83043E-02 6.10742E-25
8.06647E-02 5.73344E-25
8.30571E-02 5.38723E-25
8.54812E-02 5.06638E-25
8.79369E-02 4.76870E-25
9.04240E-02 4.49223E-25
9.29422E-02 4.23519E-25
9.54915E-02 3.99597E-25
9.80716E-02 3.77313E-25
1.00682E-01 3.56534E-25
1.03323E-01 3.37141E-25
1.05995E-01 3.19026E-25
1.08696E-01 3.02089E-25
1.11427E-01 2.86240E-25
1.14188E-01 2.71397E-25
1.16978E-01 2.57485E-25
1.19797E-01 2.44436E-25
1.22645E-01 2.32186E-25
1.25522E-01 2.20678E-25
1.28428E-01 2.09859E-25
1.31361E-01 1.99681E-25
1.34323E-01 1.90098E-25
1.37313E-01 1.81071E-25
1.40330E-01 1.72561E-25
1.43375E-01 1.64533E-25
1.46447E-01 1.56956E-25
1.49545E-01 1.49799E-25
1.52671E-01 1.43035E-25
1.55823E-01 1.36639E-25
1.59001E-01 1.30587E-25
1.62205E-01 1.24858E-25
1.65435E-01 1.19430E-25
1.68690E-01 1.14287E-25
1.71970E-01 1.09410E-25
1.75276E-01 1.04782E-25
1.78606E-01 1.00390E-25
1.81961E-01 9.62181E-26
1.85340E-01 9.22544E-26
1.88743E-01 8.84864E-26
1.92169E-01 8.49027E-26
1.95619E-01 8.14929E-26
1.99092E-01 7.82469E-26
2.02589E-01 7.51555E-26
2.06107E-01 7.22101E-26
2.09649E-01 6.94026E-26
2.13212E-01 6.67255E-26
2.16797E-01 6.41715E-26
2.20404E-01 6.17342E-26
2.24032E-01 5.94071E-26
2.27680E-01 5.71846E-26
2.31350E-01 5.50610E-26
2.35040E-01 5.30312E-26
2.38751E-01 5.10904E-26
2.42481E-01 4.92339E-26
2.46231E-01 4.74575E-26
2.50000E-01 4.57572E-26
2.53788E-01 4.41290E-26
2.57595E-01 4.25695E-26
2.61421E-01 4.10753E-26
2.65264E-01 3.96431E-26
2.69126E-01 3.82699E-26
2.73005E-01 3.69528E-26
2.76901E-01 3.56893E-26
2.80814E-01 3.44767E-26
2.84744E-01 3.33127E-26
2.88691E-01 3.21949E-26
2.92653E-01 3.11213E-26
2.96632E-01 3.00897E-26
3.00625E-01 2.90983E-26
3.04634E-01 2.81452E-26
3.08658E-01 2.72287E-26
3.12697E-01 2.63472E-26
3.16749E-01 2.54990E-26
3.20816E-01 2.46828E-26
3.24896E-01 2.38971E-26
3.28990E-01 2.31406E-26
3.33097E-01 2.24120E-26
3.37216E-01 2.17101E-26
3.41348E-01 2.10338E-26
3.45492E-01 2.03819E-26
3.49647E-01 1.97535E-26
3.53814E-01 1.91476E-26
3.57992E-01 1.85633E-26
3.62181E-01 1.79995E-26
3.66381E-01 1.74556E-26
3.70590E-01 1.69306E-26
3.74810E-01 1.64239E-26
3.79039E-01 1.59346E-26
3.83277E-01 1.54621E-26
3.87524E-01 1.50057E-26
3.91780E-01 1.45647E-26
3.96044E-01 1.41387E-26
4.00316E-01 1.37269E-26
4.04596E-01 1.33288E-26
4.08882E-01 1.29439E-26
4.13176E-01 1.25717E-26
4.17476E-01 1.22116E-26
4.21783E-01 1.18634E-26
4.26095E-01 1.15263E-26
4.30413E-01 1.12002E-26
4.34737E-01 1.08845E-26
4.39065E-01 1.05789E-26
4.43398E-01 1.02830E-26
4.47736E-01 9.99642E-27
4.52077E-01 9.71884E-27
4.56422E-01 9.44993E-27
4.60770E-01 9.18938E-27
4.65122E-01 8.93688E-27
4.69476E-01 8.69216E-27
4.73832E-01 8.45492E-27
4.78190E-01 8.22491E-27
4.82550E-01 8.00188E-27
4.86912E-01 7.78557E-27
4.91274E-01 7.57576E-27
4.95637E-01 7.37221E-27
5.00000E-01 7.17472E-27
5.04363E-01 6.98307E-27
5.08726E-01 6.79707E-27
5.13088E-01 6.61652E-27
5.17450E-01 6.44125E-27
5.21810E-01 6.27106E-27
5.26168E-01 6.10580E-27
5.30524E-01 5.94529E-27
5.34878E-01 5.78939E-27
5.39230E-01 5.63793E-27
5.43578E-01 5.49078E-27
5.47923E-01 5.34779E-27
5.52264E-01 5.20883E-27
5.56602E-01 5.07377E-27
5.60935E-01 4.94248E-27
5.65263E-01 4.81484E-27
5.69587E-01 4.69073E-27
5.73905E-01 4.57005E-27
5.78217E-01 4.45268E-27
5.82524E-01 4.33853E-27
5.86824E-01 4.22748E-27
5.91118E-01 4.11945E-27
5.95404E-01 4.01434E-27
5.99684E-01 3.91205E-27
6.03956E-01 3.81251E-27
6.08220E-01 3.71563E-27
6.12476E-01 3.62133E-27
6.16723E-01 3.52953E-27
6.20961E-01 3.44015E-27
6.25190E-01 3.35312E-27
6.29410E-01 3.26838E-27
6.33619E-01 3.18585E-27
6.37819E-01 3.10547E-27
6.42008E-01 3.02717E-27
6.46186E-01 2.95089E-27
6.50353E-01 2.87658E-27
6.54508E-01 2.80418E-27
6.58652E-01 2.73363E-27
6.62784E-01 2.66487E-27
6.66903E-01 2.59787E-27
6.71010E-01 2.53256E-27
6.75104E-01 2.46889E-27
6.79184E-01 2.40683E-27
6.83251E-01 2.34633E-27
6.87303E-01 2.28734E-27
6.91342E-01 2.22981E-27
6.95366E-01 2.17372E-27
6.99375E-01 2.11901E-27
7.03368E-01 2.06566E-27
7.07347E-01 2.01362E-27
7.11309E-01 1.96285E-27
7.15256E-01 1.91333E-27
7.19186E-01 1.86502E-27
7.23099E-01 1.81788E-27
7.26995E-01 1.77189E-27
7.30874E-01 1.72701E-27
7.34736E-01 1.68321E-27
7.38579E-01 1.64047E-27
7.42405E-01 1.59875E-27
7.46212E-01 1.55803E-27
7.50000E-01 1.51829E-27
7.53769E-01 1.47949E-27
7.57519E-01 1.44162E-27
7.61249E-01 1.40464E-27
7.64960E-01 1.36854E-27
7.68650E-01 1.33330E-27
7.72320E-01 1.29888E-27
7.75968E-01 1.26527E-27
7.79596E-01 1.23246E-27
7.83203E-01 1.20041E-27
7.86788E-01 1.16911E-27
7.90351E-01 1.13854E-27
7.93893E-01 1.10868E-27
7.97411E-01 1.07952E-27
8.00908E-01 1.05103E-27
8.04381E-01 1.02321E-27
8.07831E-01 9.96026E-28
8.11257E-01 9.69473E-28
8.14660E-01 9.43534E-28
8.18039E-01 9.18192E-28
8.21394E-01 8.93434E-28
8.24724E-01 8.69245E-28
8.28030E-01 8.45613E-28
8.31310E-01 8.22522E-28
8.34565E-01 7.99962E-28
8.37795E-01 7.77918E-28
8.40999E-01 7.56380E-28
8.44177E-01 7.35334E-28
8.47329E-01 7.14770E-28
8.50455E-01 6.94677E-28
8.53553E-01 6.75043E-28
8.56625E-01 6.55857E-28
8.59670E-01 6.37111E-28
8.62687E-01 6.18793E-28
8.65677E-01 6.00894E-28
8.68639E-01 5.83404E-28
8.71572E-01 5.66315E-28
8.74478E-01 5.49617E-28
8.77355E-01 5.33302E-28
8.80203E-01 5.17362E-28
8.83022E-01 5.01787E-28
8.85812E-01 4.86570E-28
8.88573E-01 4.71704E-28
8.91304E-01 4.57180E-28
8.94005E-01 4.42992E-28
8.96677E-01 4.29132E-28
8.99318E-01 4.15593E-28
9.01928E-01 4.02369E-28
9.04508E-01 3.89453E-28
9.07058E-01 3.76839E-28
9.09576E-01 3.64520E-28
9.12063E-01 3.52490E-28
9.14519E-01 3.40744E-28
9.16943E-01 3.29275E-28
9.19335E-01 3.18079E-28
9.21696E-01 3.07150E-28
9.24024E-01 2.96482E-28
9.26320E-01 2.86071E-28
9.28584E-01 2.75912E-28
9.30815E-01 2.65999E-28
9.33013E-01 2.56328E-28
9.35178E-01 2.46894E-28
9.37310E-01 2.37693E-28
9.39409E-01 2.28722E-28
9.41474E-01 2.19974E-28
9.43505E-01 2.11447E-28
9.45503E-01 2.03137E-28
9.47467E-01 1.95039E-28
9.49397E-01 1.87150E-28
9.51293E-01 1.79467E-28
9.53154E-01 1.71985E-28
9.54981E-01 1.64702E-28
9.56773E-01 1.57614E-28
9.58530E-01 1.50718E-28
9.60252E-01 1.44010E-28
9.61940E-01 1.37488E-28
9.63592E-01 1.31149E-28
9.65209E-01 1.24990E-28
9.66790E-01 1.19008E-28
9.68336E-01 1.13201E-28
9.69846E-01 1.07566E-28
9.71321E-01 1.02100E-28
9.72759E-01 9.68014E-29
9.74162E-01 9.16674E-29
9.75528E-01 8.66959E-29
9.76858E-01 8.18847E-29
9.78152E-01 7.72317E-29
9.79410E-01 7.27348E-29
9.80631E-01 6.83921E-29
9.81815E-01 6.42017E-29
9.82963E-01 6.01618E-29
9.84074E-01 5.62706E-29
9.85148E-01 5.25265E-29
9.86185E-01 4.89278E-29
9.87185E-01 4.54730E-29
9.88148E-01 4.21606E-29
9.89074E-01 3.89891E-29
9.89962E-01 3.59573E-29
9.90814E-01 3.30638E-29
9.91627E-01 3.03074E-29
9.92404E-01 2.76869E-29
9.93143E-01 2.52011E-29
9.93844E-01 2.28491E-29
9.94508E-01 2.06298E-29
9.95134E-01 1.85423E-29
9.95722E-01 1.65857E-29
9.96273E-01 1.47592E-29
9.96786E-01 1.30620E-29
9.97261E-01 1.14933E-29
9.97698E-01 1.00526E-29
9.98097E-01 8.73915E-30
9.98459E-01 7.55246E-30
9.98782E-01 6.49203E-30
9.99067E-01 5.55740E-30
9.99315E-01 4.74819E-30
9.99524E-01 4.06405E-30
9.99695E-01 3.50468E-30
9.99829E-01 3.06987E-30
9.99924E-01 2.75942E-30
9.99981E-01 2.57320E-30
1.00000E+00 2.51113E-30
