 #
 # Subroutine ELSEPA. Elastic scattering of electrons and positrons
 #                    by neutral atoms and positive ions
 #
 # Projectile: positron
 # Kinetic energy = 9.00000E+06 eV = 3.30744E+05 a.u.
 #
 # WARNING: High-energy factorization with free-atom DF screening.
 #          Absorption, polarization and exchange corrections are
 #          switched off.
 #          Phase shifts are calculated for the bare nucleus.
 #          Scattering amplitudes are not evaluated.
 #
 # Element:  K,  Z =  19,  atomic weight = 3.90983E+01 g/mol
 #
 # Nuclear model: Fermi distribution
 #                Average radius = 3.63164E-13 cm
 #                Skin thickness = 5.46000E-14 cm
 #
 # Number of electrons = 19
 #
 # Total elastic cross section = 1.51779E-18 cm**2 = 5.42013E-02 a0**2
 # 1st transport cross section = 6.38876E-24 cm**2 = 2.28147E-07 a0**2
 # 2nd transport cross section = 1.84759E-23 cm**2 = 6.59786E-07 a0**2
 #
 #
 # Differential cross section:                       MU=(1-COS(THETA))/2
 #
 #  THETA        MU          DCS          DCS        Sherman      error
 #  (deg)                 (cm**2/sr)   (a0**2/sr)    function
 #----------------------------------------------------------------------
0.00000E+00 2.78385E-12
7.61557E-13 2.78366E-12
1.18994E-12 2.78355E-12
1.71346E-12 2.78343E-12
2.33225E-12 2.78328E-12
3.04617E-12 2.78310E-12
3.85530E-12 2.78291E-12
4.75964E-12 2.78269E-12
5.75917E-12 2.78245E-12
6.85391E-12 2.78218E-12
8.04379E-12 2.78190E-12
9.32893E-12 2.78159E-12
1.07092E-11 2.78126E-12
1.21847E-11 2.78090E-12
1.37554E-11 2.78053E-12
1.54213E-11 2.78013E-12
1.71823E-11 2.77970E-12
1.90386E-11 2.77926E-12
2.09900E-11 2.77879E-12
2.30367E-11 2.77830E-12
2.51785E-11 2.77779E-12
2.74156E-11 2.77725E-12
2.97478E-11 2.77669E-12
3.21752E-11 2.77611E-12
3.46979E-11 2.77551E-12
3.73157E-11 2.77488E-12
4.00286E-11 2.77424E-12
4.28368E-11 2.77357E-12
4.57402E-11 2.77287E-12
4.87388E-11 2.77216E-12
5.18325E-11 2.77142E-12
5.50215E-11 2.77066E-12
5.83057E-11 2.76988E-12
6.16850E-11 2.76907E-12
6.51595E-11 2.76825E-12
6.87293E-11 2.76740E-12
7.23943E-11 2.76653E-12
7.61544E-11 2.76564E-12
1.18991E-10 2.75550E-12
1.71347E-10 2.74319E-12
2.33223E-10 2.72877E-12
3.04617E-10 2.71227E-12
3.85531E-10 2.69375E-12
4.75965E-10 2.67332E-12
5.75917E-10 2.65101E-12
6.85389E-10 2.62689E-12
8.04380E-10 2.60112E-12
9.32891E-10 2.57372E-12
1.07092E-09 2.54475E-12
1.21847E-09 2.51444E-12
1.37554E-09 2.48277E-12
1.54213E-09 2.44983E-12
1.71823E-09 2.41586E-12
1.90386E-09 2.38084E-12
2.09900E-09 2.34482E-12
2.30367E-09 2.30812E-12
2.51785E-09 2.27065E-12
2.74156E-09 2.23249E-12
2.97478E-09 2.19395E-12
3.21752E-09 2.15494E-12
3.46978E-09 2.11550E-12
3.73156E-09 2.07598E-12
4.00286E-09 2.03625E-12
4.28368E-09 1.99634E-12
4.57402E-09 1.95660E-12
4.87388E-09 1.91689E-12
5.18326E-09 1.87721E-12
5.50215E-09 1.83792E-12
5.83057E-09 1.79885E-12
6.16850E-09 1.75999E-12
6.51596E-09 1.72170E-12
6.87293E-09 1.68378E-12
7.23942E-09 1.64622E-12
7.61544E-09 1.60935E-12
1.18991E-08 1.27425E-12
1.71347E-08 1.00889E-12
2.33223E-08 8.13052E-13
3.04617E-08 6.61190E-13
3.85531E-08 5.46245E-13
4.75965E-08 4.61485E-13
5.75917E-08 3.93778E-13
6.85389E-08 3.39734E-13
8.04380E-08 2.95203E-13
9.32891E-08 2.57883E-13
1.07092E-07 2.26498E-13
1.21847E-07 1.98939E-13
1.37554E-07 1.75276E-13
1.54213E-07 1.54901E-13
1.71823E-07 1.36678E-13
1.90386E-07 1.20891E-13
2.09900E-07 1.07184E-13
2.30367E-07 9.49210E-14
2.51785E-07 8.42578E-14
2.74156E-07 7.49648E-14
2.97478E-07 6.66831E-14
3.21752E-07 5.94591E-14
3.46978E-07 5.31435E-14
3.73156E-07 4.75318E-14
4.00286E-07 4.26185E-14
4.28368E-07 3.83065E-14
4.57402E-07 3.44760E-14
4.87388E-07 3.11060E-14
5.18325E-07 2.81341E-14
5.50215E-07 2.54923E-14
5.83057E-07 2.31552E-14
6.16850E-07 2.10826E-14
6.51596E-07 1.92340E-14
6.87293E-07 1.75883E-14
7.23942E-07 1.61197E-14
7.61543E-07 1.48036E-14
1.18991E-06 7.02886E-15
1.71347E-06 3.87617E-15
2.33223E-06 2.34740E-15
3.04617E-06 1.51035E-15
3.85531E-06 1.01310E-15
4.75964E-06 6.99826E-16
5.75916E-06 4.96386E-16
6.85388E-06 3.60264E-16
8.04378E-06 2.66723E-16
9.32888E-06 2.01244E-16
1.07092E-05 1.54471E-16
1.21846E-05 1.20414E-16
1.37553E-05 9.52173E-17
1.54212E-05 7.62762E-17
1.71822E-05 6.18234E-17
1.90385E-05 5.06472E-17
2.09899E-05 4.19020E-17
2.30365E-05 3.49744E-17
2.51783E-05 2.94289E-17
2.74153E-05 2.49465E-17
2.97475E-05 2.12903E-17
3.21749E-05 1.82838E-17
3.46974E-05 1.57929E-17
3.73152E-05 1.37141E-17
4.00281E-05 1.19679E-17
4.28362E-05 1.04922E-17
4.57395E-05 9.23765E-18
4.87380E-05 8.16554E-18
5.18317E-05 7.24483E-18
5.50205E-05 6.45036E-18
5.83045E-05 5.76192E-18
6.16838E-05 5.16298E-18
6.51582E-05 4.63985E-18
6.87277E-05 4.18131E-18
7.23925E-05 3.77802E-18
7.61524E-05 3.42212E-18
9.21439E-05 2.35618E-18
1.09658E-04 1.67408E-18
1.28695E-04 1.22140E-18
1.49255E-04 9.11530E-19
1.71338E-04 6.93759E-19
1.94942E-04 5.37153E-19
2.20070E-04 4.22244E-19
2.46720E-04 3.36419E-19
2.74892E-04 2.71285E-19
3.04586E-04 2.21148E-19
3.35803E-04 1.82054E-19
3.68542E-04 1.51214E-19
4.02802E-04 1.26625E-19
4.38585E-04 1.06829E-19
4.75889E-04 9.07482E-20
5.14715E-04 7.75778E-20
5.55063E-04 6.67089E-20
5.96931E-04 5.76758E-20
6.40321E-04 5.01191E-20
6.85233E-04 4.37586E-20
7.31665E-04 3.83745E-20
7.79618E-04 3.37926E-20
8.29092E-04 2.98735E-20
8.80086E-04 2.65058E-20
9.32601E-04 2.35989E-20
9.86636E-04 2.10792E-20
1.04219E-03 1.88866E-20
1.09927E-03 1.69714E-20
1.15786E-03 1.52927E-20
1.21797E-03 1.38161E-20
1.27961E-03 1.25133E-20
1.34276E-03 1.13603E-20
1.40743E-03 1.03369E-20
1.47362E-03 9.42605E-21
1.54133E-03 8.61319E-21
1.61056E-03 7.88596E-21
1.68131E-03 7.23378E-21
1.75357E-03 6.64755E-21
1.82735E-03 6.11942E-21
1.90265E-03 5.64264E-21
1.97947E-03 5.21132E-21
2.05780E-03 4.82037E-21
2.13765E-03 4.46535E-21
2.21902E-03 4.14232E-21
2.30190E-03 3.84790E-21
2.38630E-03 3.57913E-21
2.47222E-03 3.33339E-21
2.55965E-03 3.10834E-21
2.64859E-03 2.90194E-21
2.73905E-03 2.71236E-21
2.83103E-03 2.53798E-21
2.92452E-03 2.37737E-21
3.01952E-03 2.22924E-21
3.11604E-03 2.09245E-21
3.21407E-03 1.96597E-21
3.31362E-03 1.84889E-21
3.41468E-03 1.74038E-21
3.51725E-03 1.63969E-21
3.62133E-03 1.54617E-21
3.72692E-03 1.45921E-21
3.83403E-03 1.37826E-21
3.94265E-03 1.30284E-21
4.05278E-03 1.23250E-21
4.16442E-03 1.16683E-21
4.27757E-03 1.10546E-21
4.39223E-03 1.04807E-21
4.50840E-03 9.94348E-22
4.62608E-03 9.44015E-22
4.74527E-03 8.96820E-22
4.86597E-03 8.52530E-22
4.98817E-03 8.10934E-22
5.11188E-03 7.71838E-22
5.23711E-03 7.35064E-22
5.36383E-03 7.00449E-22
5.49207E-03 6.67843E-22
5.62181E-03 6.37107E-22
5.75306E-03 6.08114E-22
5.88581E-03 5.80748E-22
6.02007E-03 5.54899E-22
6.15583E-03 5.30469E-22
6.29310E-03 5.07365E-22
6.43187E-03 4.85502E-22
6.57214E-03 4.64801E-22
6.71392E-03 4.45188E-22
6.85720E-03 4.26596E-22
7.00198E-03 4.08961E-22
7.14827E-03 3.92226E-22
7.29605E-03 3.76335E-22
7.44534E-03 3.61239E-22
7.59612E-03 3.46890E-22
7.97965E-03 3.14005E-22
8.37255E-03 2.84915E-22
8.77480E-03 2.59107E-22
9.18641E-03 2.36147E-22
9.60736E-03 2.15666E-22
1.00376E-02 1.97352E-22
1.04773E-02 1.80934E-22
1.09262E-02 1.66183E-22
1.13844E-02 1.52900E-22
1.18520E-02 1.40913E-22
1.23288E-02 1.30074E-22
1.28150E-02 1.20253E-22
1.33104E-02 1.11338E-22
1.38150E-02 1.03231E-22
1.43290E-02 9.58460E-23
1.48521E-02 8.91068E-23
1.53845E-02 8.29472E-23
1.59262E-02 7.73084E-23
1.64770E-02 7.21387E-23
1.70371E-02 6.73920E-23
1.76063E-02 6.30277E-23
1.81848E-02 5.90093E-23
1.87724E-02 5.53046E-23
1.93692E-02 5.18848E-23
1.99751E-02 4.87239E-23
2.05901E-02 4.57989E-23
2.12143E-02 4.30891E-23
2.18476E-02 4.05756E-23
2.24900E-02 3.82419E-23
2.31415E-02 3.60726E-23
2.38021E-02 3.40541E-23
2.44717E-02 3.21741E-23
2.51504E-02 3.04213E-23
2.58382E-02 2.87856E-23
2.65349E-02 2.72577E-23
2.72407E-02 2.58292E-23
2.79555E-02 2.44925E-23
2.86793E-02 2.32407E-23
2.94120E-02 2.20673E-23
3.01537E-02 2.09666E-23
3.09043E-02 1.99332E-23
3.16639E-02 1.89623E-23
3.24324E-02 1.80494E-23
3.32098E-02 1.71904E-23
3.39961E-02 1.63815E-23
3.47912E-02 1.56193E-23
3.55952E-02 1.49007E-23
3.64081E-02 1.42226E-23
3.72297E-02 1.35823E-23
3.80602E-02 1.29774E-23
3.88995E-02 1.24056E-23
3.97476E-02 1.18646E-23
4.06044E-02 1.13526E-23
4.14700E-02 1.08678E-23
4.23443E-02 1.04083E-23
4.32273E-02 9.97261E-24
4.41190E-02 9.55933E-24
4.50194E-02 9.16706E-24
4.59284E-02 8.79453E-24
4.68461E-02 8.44058E-24
4.87074E-02 7.78407E-24
5.06030E-02 7.18963E-24
5.25328E-02 6.65037E-24
5.44967E-02 6.16029E-24
5.64946E-02 5.71412E-24
5.85262E-02 5.30724E-24
6.05914E-02 4.93559E-24
6.26901E-02 4.59559E-24
6.48222E-02 4.28408E-24
6.69873E-02 3.99824E-24
6.91854E-02 3.73559E-24
7.14163E-02 3.49392E-24
7.36799E-02 3.27126E-24
7.59760E-02 3.06586E-24
7.83043E-02 2.87614E-24
8.06647E-02 2.70069E-24
8.30571E-02 2.53825E-24
8.54812E-02 2.38769E-24
8.79369E-02 2.24798E-24
9.04240E-02 2.11821E-24
9.29422E-02 1.99754E-24
9.54915E-02 1.88522E-24
9.80716E-02 1.78057E-24
1.00682E-01 1.68298E-24
1.03323E-01 1.59189E-24
1.05995E-01 1.50678E-24
1.08696E-01 1.42719E-24
1.11427E-01 1.35271E-24
1.14188E-01 1.28294E-24
1.16978E-01 1.21754E-24
1.19797E-01 1.15618E-24
1.22645E-01 1.09857E-24
1.25522E-01 1.04444E-24
1.28428E-01 9.93547E-25
1.31361E-01 9.45655E-25
1.34323E-01 9.00560E-25
1.37313E-01 8.58069E-25
1.40330E-01 8.18005E-25
1.43375E-01 7.80205E-25
1.46447E-01 7.44518E-25
1.49545E-01 7.10805E-25
1.52671E-01 6.78937E-25
1.55823E-01 6.48797E-25
1.59001E-01 6.20273E-25
1.62205E-01 5.93263E-25
1.65435E-01 5.67674E-25
1.68690E-01 5.43416E-25
1.71970E-01 5.20409E-25
1.75276E-01 4.98576E-25
1.78606E-01 4.77847E-25
1.81961E-01 4.58157E-25
1.85340E-01 4.39443E-25
1.88743E-01 4.21650E-25
1.92169E-01 4.04723E-25
1.95619E-01 3.88614E-25
1.99092E-01 3.73275E-25
2.02589E-01 3.58663E-25
2.06107E-01 3.44739E-25
2.09649E-01 3.31463E-25
2.13212E-01 3.18800E-25
2.16797E-01 3.06717E-25
2.20404E-01 2.95183E-25
2.24032E-01 2.84168E-25
2.27680E-01 2.73646E-25
2.31350E-01 2.63589E-25
2.35040E-01 2.53974E-25
2.38751E-01 2.44778E-25
2.42481E-01 2.35980E-25
2.46231E-01 2.27558E-25
2.50000E-01 2.19496E-25
2.53788E-01 2.11773E-25
2.57595E-01 2.04374E-25
2.61421E-01 1.97283E-25
2.65264E-01 1.90484E-25
2.69126E-01 1.83964E-25
2.73005E-01 1.77709E-25
2.76901E-01 1.71706E-25
2.80814E-01 1.65943E-25
2.84744E-01 1.60410E-25
2.88691E-01 1.55095E-25
2.92653E-01 1.49988E-25
2.96632E-01 1.45080E-25
3.00625E-01 1.40361E-25
3.04634E-01 1.35824E-25
3.08658E-01 1.31460E-25
3.12697E-01 1.27260E-25
3.16749E-01 1.23219E-25
3.20816E-01 1.19328E-25
3.24896E-01 1.15582E-25
3.28990E-01 1.11974E-25
3.33097E-01 1.08498E-25
3.37216E-01 1.05148E-25
3.41348E-01 1.01919E-25
3.45492E-01 9.88060E-26
3.49647E-01 9.58041E-26
3.53814E-01 9.29085E-26
3.57992E-01 9.01150E-26
3.62181E-01 8.74192E-26
3.66381E-01 8.48172E-26
3.70590E-01 8.23051E-26
3.74810E-01 7.98793E-26
3.79039E-01 7.75364E-26
3.83277E-01 7.52730E-26
3.87524E-01 7.30859E-26
3.91780E-01 7.09723E-26
3.96044E-01 6.89291E-26
4.00316E-01 6.69537E-26
4.04596E-01 6.50433E-26
4.08882E-01 6.31956E-26
4.13176E-01 6.14082E-26
4.17476E-01 5.96786E-26
4.21783E-01 5.80048E-26
4.26095E-01 5.63846E-26
4.30413E-01 5.48160E-26
4.34737E-01 5.32972E-26
4.39065E-01 5.18263E-26
4.43398E-01 5.04014E-26
4.47736E-01 4.90210E-26
4.52077E-01 4.76835E-26
4.56422E-01 4.63872E-26
4.60770E-01 4.51306E-26
4.65122E-01 4.39125E-26
4.69476E-01 4.27314E-26
4.73832E-01 4.15859E-26
4.78190E-01 4.04749E-26
4.82550E-01 3.93972E-26
4.86912E-01 3.83515E-26
4.91274E-01 3.73368E-26
4.95637E-01 3.63521E-26
5.00000E-01 3.53962E-26
5.04363E-01 3.44682E-26
5.08726E-01 3.35671E-26
5.13088E-01 3.26922E-26
5.17450E-01 3.18423E-26
5.21810E-01 3.10169E-26
5.26168E-01 3.02149E-26
5.30524E-01 2.94358E-26
5.34878E-01 2.86786E-26
5.39230E-01 2.79427E-26
5.43578E-01 2.72274E-26
5.47923E-01 2.65320E-26
5.52264E-01 2.58559E-26
5.56602E-01 2.51985E-26
5.60935E-01 2.45592E-26
5.65263E-01 2.39373E-26
5.69587E-01 2.33324E-26
5.73905E-01 2.27440E-26
5.78217E-01 2.21714E-26
5.82524E-01 2.16142E-26
5.86824E-01 2.10720E-26
5.91118E-01 2.05442E-26
5.95404E-01 2.00305E-26
5.99684E-01 1.95303E-26
6.03956E-01 1.90434E-26
6.08220E-01 1.85692E-26
6.12476E-01 1.81074E-26
6.16723E-01 1.76577E-26
6.20961E-01 1.72196E-26
6.25190E-01 1.67929E-26
6.29410E-01 1.63771E-26
6.33619E-01 1.59720E-26
6.37819E-01 1.55773E-26
6.42008E-01 1.51926E-26
6.46186E-01 1.48176E-26
6.50353E-01 1.44522E-26
6.54508E-01 1.40959E-26
6.58652E-01 1.37486E-26
6.62784E-01 1.34100E-26
6.66903E-01 1.30798E-26
6.71010E-01 1.27578E-26
6.75104E-01 1.24438E-26
6.79184E-01 1.21375E-26
6.83251E-01 1.18387E-26
6.87303E-01 1.15473E-26
6.91342E-01 1.12630E-26
6.95366E-01 1.09856E-26
6.99375E-01 1.07150E-26
7.03368E-01 1.04509E-26
7.07347E-01 1.01931E-26
7.11309E-01 9.94159E-27
7.15256E-01 9.69608E-27
7.19186E-01 9.45644E-27
7.23099E-01 9.22251E-27
7.26995E-01 8.99414E-27
7.30874E-01 8.77119E-27
7.34736E-01 8.55350E-27
7.38579E-01 8.34095E-27
7.42405E-01 8.13339E-27
7.46212E-01 7.93070E-27
7.50000E-01 7.73275E-27
7.53769E-01 7.53942E-27
7.57519E-01 7.35059E-27
7.61249E-01 7.16614E-27
7.64960E-01 6.98597E-27
7.68650E-01 6.80996E-27
7.72320E-01 6.63801E-27
7.75968E-01 6.47001E-27
7.79596E-01 6.30588E-27
7.83203E-01 6.14550E-27
7.86788E-01 5.98880E-27
7.90351E-01 5.83567E-27
7.93893E-01 5.68603E-27
7.97411E-01 5.53980E-27
8.00908E-01 5.39689E-27
8.04381E-01 5.25722E-27
8.07831E-01 5.12071E-27
8.11257E-01 4.98729E-27
8.14660E-01 4.85688E-27
8.18039E-01 4.72941E-27
8.21394E-01 4.60481E-27
8.24724E-01 4.48302E-27
8.28030E-01 4.36396E-27
8.31310E-01 4.24758E-27
8.34565E-01 4.13380E-27
8.37795E-01 4.02258E-27
8.40999E-01 3.91385E-27
8.44177E-01 3.80756E-27
8.47329E-01 3.70364E-27
8.50455E-01 3.60205E-27
8.53553E-01 3.50274E-27
8.56625E-01 3.40564E-27
8.59670E-01 3.31072E-27
8.62687E-01 3.21792E-27
8.65677E-01 3.12720E-27
8.68639E-01 3.03851E-27
8.71572E-01 2.95181E-27
8.74478E-01 2.86705E-27
8.77355E-01 2.78419E-27
8.80203E-01 2.70320E-27
8.83022E-01 2.62402E-27
8.85812E-01 2.54663E-27
8.88573E-01 2.47099E-27
8.91304E-01 2.39705E-27
8.94005E-01 2.32479E-27
8.96677E-01 2.25416E-27
8.99318E-01 2.18514E-27
9.01928E-01 2.11769E-27
9.04508E-01 2.05179E-27
9.07058E-01 1.98739E-27
9.09576E-01 1.92447E-27
9.12063E-01 1.86300E-27
9.14519E-01 1.80296E-27
9.16943E-01 1.74430E-27
9.19335E-01 1.68702E-27
9.21696E-01 1.63107E-27
9.24024E-01 1.57645E-27
9.26320E-01 1.52311E-27
9.28584E-01 1.47103E-27
9.30815E-01 1.42021E-27
9.33013E-01 1.37060E-27
9.35178E-01 1.32219E-27
9.37310E-01 1.27495E-27
9.39409E-01 1.22887E-27
9.41474E-01 1.18393E-27
9.43505E-01 1.14010E-27
9.45503E-01 1.09737E-27
9.47467E-01 1.05571E-27
9.49397E-01 1.01512E-27
9.51293E-01 9.75564E-28
9.53154E-01 9.37036E-28
9.54981E-01 8.99515E-28
9.56773E-01 8.62986E-28
9.58530E-01 8.27434E-28
9.60252E-01 7.92843E-28
9.61940E-01 7.59198E-28
9.63592E-01 7.26486E-28
9.65209E-01 6.94692E-28
9.66790E-01 6.63802E-28
9.68336E-01 6.33805E-28
9.69846E-01 6.04687E-28
9.71321E-01 5.76436E-28
9.72759E-01 5.49040E-28
9.74162E-01 5.22489E-28
9.75528E-01 4.96770E-28
9.76858E-01 4.71874E-28
9.78152E-01 4.47790E-28
9.79410E-01 4.24508E-28
9.80631E-01 4.02018E-28
9.81815E-01 3.80312E-28
9.82963E-01 3.59380E-28
9.84074E-01 3.39214E-28
9.85148E-01 3.19805E-28
9.86185E-01 3.01147E-28
9.87185E-01 2.83230E-28
9.88148E-01 2.66049E-28
9.89074E-01 2.49595E-28
9.89962E-01 2.33863E-28
9.90814E-01 2.18846E-28
9.91627E-01 2.04537E-28
9.92404E-01 1.90932E-28
9.93143E-01 1.78024E-28
9.93844E-01 1.65809E-28
9.94508E-01 1.54282E-28
9.95134E-01 1.43438E-28
9.95722E-01 1.33272E-28
9.96273E-01 1.23781E-28
9.96786E-01 1.14961E-28
9.97261E-01 1.06808E-28
9.97698E-01 9.93188E-29
9.98097E-01 9.24911E-29
9.98459E-01 8.63218E-29
9.98782E-01 8.08085E-29
9.99067E-01 7.59489E-29
9.99315E-01 7.17411E-29
9.99524E-01 6.81836E-29
9.99695E-01 6.52747E-29
9.99829E-01 6.30135E-29
9.99924E-01 6.13990E-29
9.99981E-01 6.04305E-29
1.00000E+00 6.01076E-29
