 #
 # Subroutine ELSEPA. Elastic scattering of electrons and positrons
 #                    by neutral atoms and positive ions
 #
 # Projectile: positron
 # Kinetic energy = 9.00000E+05 eV = 3.30744E+04 a.u.
 #
 # Element:  K,  Z =  19,  atomic weight = 3.90983E+01 g/mol
 #
 # Nuclear model: Fermi distribution
 #                Average radius = 3.63164E-13 cm
 #                Skin thickness = 5.46000E-14 cm
 #
 # Number of electrons = 19
 #
 # Electron density: Read from file Data/z_019.d
 #                   Number of data points =  857
 #                   Volume integral = 1.90000E+01
 #
 # LDA absorption potential (only electron-hole excitations):
 #                           Delta = 0.00000E+00 eV
 #                            Aabs = 2.00000E+00
 #
 # Total elastic cross section = 1.73680E-18 cm**2 = 6.20224E-02 a0**2
 # 1st transport cross section = 2.62962E-22 cm**2 = 9.39055E-06 a0**2
 # 2nd transport cross section = 7.40991E-22 cm**2 = 2.64613E-05 a0**2
 #
 #    Absorption cross section = 7.58407E-19 cm**2 = 2.70832E-02 a0**2
 #   Grand total cross section = 2.49641E-18 cm**2 = 8.91486E-02 a0**2
 #
 #
 # Differential cross section:                       MU=(1-COS(THETA))/2
 #
 #  THETA        MU          DCS          DCS        Sherman      error
 #  (deg)                 (cm**2/sr)   (a0**2/sr)    function
 #----------------------------------------------------------------------
0.00000E+00 6.12679E-14
7.61557E-13 6.12678E-14
1.18994E-12 6.12678E-14
1.71346E-12 6.12677E-14
2.33225E-12 6.12677E-14
3.04617E-12 6.12676E-14
3.85530E-12 6.12675E-14
4.75964E-12 6.12674E-14
5.75917E-12 6.12673E-14
6.85391E-12 6.12672E-14
8.04379E-12 6.12671E-14
9.32893E-12 6.12670E-14
1.07092E-11 6.12668E-14
1.21847E-11 6.12667E-14
1.37554E-11 6.12665E-14
1.54213E-11 6.12663E-14
1.71823E-11 6.12662E-14
1.90386E-11 6.12660E-14
2.09900E-11 6.12658E-14
2.30367E-11 6.12656E-14
2.51785E-11 6.12654E-14
2.74156E-11 6.12651E-14
2.97478E-11 6.12649E-14
3.21752E-11 6.12647E-14
3.46979E-11 6.12644E-14
3.73157E-11 6.12641E-14
4.00286E-11 6.12639E-14
4.28368E-11 6.12636E-14
4.57402E-11 6.12633E-14
4.87388E-11 6.12630E-14
5.18325E-11 6.12627E-14
5.50215E-11 6.12623E-14
5.83057E-11 6.12620E-14
6.16850E-11 6.12617E-14
6.51595E-11 6.12613E-14
6.87293E-11 6.12610E-14
7.23943E-11 6.12606E-14
7.61544E-11 6.12602E-14
1.18991E-10 6.12559E-14
1.71347E-10 6.12506E-14
2.33223E-10 6.12443E-14
3.04617E-10 6.12371E-14
3.85531E-10 6.12289E-14
4.75965E-10 6.12197E-14
5.75917E-10 6.12096E-14
6.85389E-10 6.11985E-14
8.04380E-10 6.11865E-14
9.32891E-10 6.11735E-14
1.07092E-09 6.11596E-14
1.21847E-09 6.11447E-14
1.37554E-09 6.11288E-14
1.54213E-09 6.11120E-14
1.71823E-09 6.10943E-14
1.90386E-09 6.10755E-14
2.09900E-09 6.10559E-14
2.30367E-09 6.10353E-14
2.51785E-09 6.10137E-14
2.74156E-09 6.09912E-14
2.97478E-09 6.09678E-14
3.21752E-09 6.09434E-14
3.46978E-09 6.09180E-14
3.73156E-09 6.08918E-14
4.00286E-09 6.08646E-14
4.28368E-09 6.08364E-14
4.57402E-09 6.08074E-14
4.87388E-09 6.07774E-14
5.18326E-09 6.07464E-14
5.50215E-09 6.07146E-14
5.83057E-09 6.06818E-14
6.16850E-09 6.06481E-14
6.51596E-09 6.06135E-14
6.87293E-09 6.05779E-14
7.23942E-09 6.05415E-14
7.61544E-09 6.05041E-14
1.18991E-08 6.00811E-14
1.71347E-08 5.95704E-14
2.33223E-08 5.89757E-14
3.04617E-08 5.83011E-14
3.85531E-08 5.75513E-14
4.75965E-08 5.67313E-14
5.75917E-08 5.58465E-14
6.85389E-08 5.49027E-14
8.04380E-08 5.39055E-14
9.32891E-08 5.28610E-14
1.07092E-07 5.17753E-14
1.21847E-07 5.06542E-14
1.37554E-07 4.95037E-14
1.54213E-07 4.83296E-14
1.71823E-07 4.71375E-14
1.90386E-07 4.59328E-14
2.09900E-07 4.47207E-14
2.30367E-07 4.35058E-14
2.51785E-07 4.22928E-14
2.74156E-07 4.10858E-14
2.97478E-07 3.98886E-14
3.21752E-07 3.87047E-14
3.46978E-07 3.75371E-14
3.73156E-07 3.63887E-14
4.00286E-07 3.52618E-14
4.28368E-07 3.41585E-14
4.57402E-07 3.30805E-14
4.87388E-07 3.20294E-14
5.18325E-07 3.10063E-14
5.50215E-07 3.00120E-14
5.83057E-07 2.90472E-14
6.16850E-07 2.81124E-14
6.51596E-07 2.72079E-14
6.87293E-07 2.63335E-14
7.23942E-07 2.54893E-14
7.61543E-07 2.46750E-14
1.18991E-06 1.80504E-14
1.71347E-06 1.36324E-14
2.33223E-06 1.06489E-14
3.04617E-06 8.54724E-15
3.85531E-06 6.99124E-15
4.75964E-06 5.78814E-15
5.75916E-06 4.82793E-15
6.85388E-06 4.04565E-15
8.04378E-06 3.40050E-15
9.32888E-06 2.86488E-15
1.07092E-05 2.41875E-15
1.21846E-05 2.04662E-15
1.37553E-05 1.73601E-15
1.54212E-05 1.47662E-15
1.71822E-05 1.25989E-15
1.90385E-05 1.07866E-15
2.09899E-05 9.26917E-16
2.30365E-05 7.99645E-16
2.51783E-05 6.92679E-16
2.74153E-05 6.02563E-16
2.97475E-05 5.26423E-16
3.21749E-05 4.61890E-16
3.46974E-05 4.07013E-16
3.73152E-05 3.60180E-16
4.00281E-05 3.20060E-16
4.28362E-05 2.85557E-16
4.57395E-05 2.55767E-16
4.87380E-05 2.29944E-16
5.18317E-05 2.07469E-16
5.50205E-05 1.87827E-16
5.83045E-05 1.70595E-16
6.16838E-05 1.55417E-16
6.51582E-05 1.41997E-16
6.87277E-05 1.30086E-16
7.23925E-05 1.19477E-16
7.61524E-05 1.09994E-16
9.21439E-05 8.06787E-17
1.09658E-04 6.08167E-17
1.28695E-04 4.68192E-17
1.49255E-04 3.66441E-17
1.71338E-04 2.90670E-17
1.94942E-04 2.33171E-17
2.20070E-04 1.88877E-17
2.46720E-04 1.54333E-17
2.74892E-04 1.27112E-17
3.04586E-04 1.05466E-17
3.35803E-04 8.81123E-18
3.68542E-04 7.40962E-18
4.02802E-04 6.26962E-18
4.38585E-04 5.33629E-18
4.75889E-04 4.56736E-18
5.14715E-04 3.93007E-18
5.55063E-04 3.39883E-18
5.96931E-04 2.95357E-18
6.40321E-04 2.57838E-18
6.85233E-04 2.26063E-18
7.31665E-04 1.99022E-18
7.79618E-04 1.75901E-18
8.29092E-04 1.56044E-18
8.80086E-04 1.38915E-18
9.32601E-04 1.24080E-18
9.86636E-04 1.11181E-18
1.04219E-03 9.99222E-19
1.09927E-03 9.00599E-19
1.15786E-03 8.13911E-19
1.21797E-03 7.37463E-19
1.27961E-03 6.69833E-19
1.34276E-03 6.09823E-19
1.40743E-03 5.56422E-19
1.47362E-03 5.08772E-19
1.54133E-03 4.66141E-19
1.61056E-03 4.27906E-19
1.68131E-03 3.93530E-19
1.75357E-03 3.62553E-19
1.82735E-03 3.34578E-19
1.90265E-03 3.09260E-19
1.97947E-03 2.86300E-19
2.05780E-03 2.65438E-19
2.13765E-03 2.46448E-19
2.21902E-03 2.29129E-19
2.30190E-03 2.13309E-19
2.38630E-03 1.98832E-19
2.47222E-03 1.85565E-19
2.55965E-03 1.73386E-19
2.64859E-03 1.62191E-19
2.73905E-03 1.51885E-19
2.83103E-03 1.42385E-19
2.92452E-03 1.33616E-19
3.01952E-03 1.25510E-19
3.11604E-03 1.18010E-19
3.21407E-03 1.11061E-19
3.31362E-03 1.04614E-19
3.41468E-03 9.86284E-20
3.51725E-03 9.30635E-20
3.62133E-03 8.78846E-20
3.72692E-03 8.30600E-20
3.83403E-03 7.85611E-20
3.94265E-03 7.43618E-20
4.05278E-03 7.04384E-20
4.16442E-03 6.67695E-20
4.27757E-03 6.33355E-20
4.39223E-03 6.01187E-20
4.50840E-03 5.71028E-20
4.62608E-03 5.42729E-20
4.74527E-03 5.16154E-20
4.86597E-03 4.91179E-20
4.98817E-03 4.67690E-20
5.11188E-03 4.45582E-20
5.23711E-03 4.24759E-20
5.36383E-03 4.05133E-20
5.49207E-03 3.86622E-20
5.62181E-03 3.69152E-20
5.75306E-03 3.52652E-20
5.88581E-03 3.37060E-20
6.02007E-03 3.22315E-20
6.15583E-03 3.08364E-20
6.29310E-03 2.95156E-20
6.43187E-03 2.82644E-20
6.57214E-03 2.70785E-20
6.71392E-03 2.59538E-20
6.85720E-03 2.48866E-20
7.00198E-03 2.38734E-20
7.14827E-03 2.29110E-20
7.29605E-03 2.19963E-20
7.44534E-03 2.11266E-20
7.59612E-03 2.02992E-20
7.97965E-03 1.84003E-20
8.37255E-03 1.67173E-20
8.77480E-03 1.52214E-20
9.18641E-03 1.38883E-20
9.60736E-03 1.26973E-20
1.00376E-02 1.16306E-20
1.04773E-02 1.06730E-20
1.09262E-02 9.81151E-21
1.13844E-02 9.03475E-21
1.18520E-02 8.33297E-21
1.23288E-02 7.69768E-21
1.28150E-02 7.12149E-21
1.33104E-02 6.59794E-21
1.38150E-02 6.12139E-21
1.43290E-02 5.68687E-21
1.48521E-02 5.29004E-21
1.53845E-02 4.92705E-21
1.59262E-02 4.59451E-21
1.64770E-02 4.28941E-21
1.70371E-02 4.00910E-21
1.76063E-02 3.75119E-21
1.81848E-02 3.51359E-21
1.87724E-02 3.29442E-21
1.93692E-02 3.09198E-21
1.99751E-02 2.90477E-21
2.05901E-02 2.73145E-21
2.12143E-02 2.57080E-21
2.18476E-02 2.42173E-21
2.24900E-02 2.28325E-21
2.31415E-02 2.15447E-21
2.38021E-02 2.03461E-21
2.44717E-02 1.92292E-21
2.51504E-02 1.81874E-21
2.58382E-02 1.72150E-21
2.65349E-02 1.63063E-21
2.72407E-02 1.54564E-21
2.79555E-02 1.46609E-21
2.86793E-02 1.39157E-21
2.94120E-02 1.32169E-21
3.01537E-02 1.25613E-21
3.09043E-02 1.19455E-21
3.16639E-02 1.13668E-21
3.24324E-02 1.08226E-21
3.32098E-02 1.03103E-21
3.39961E-02 9.82786E-22
3.47912E-02 9.37311E-22
3.55952E-02 8.94422E-22
3.64081E-02 8.53944E-22
3.72297E-02 8.15717E-22
3.80602E-02 7.79592E-22
3.88995E-02 7.45433E-22
3.97476E-02 7.13114E-22
4.06044E-02 6.82517E-22
4.14700E-02 6.53533E-22
4.23443E-02 6.26062E-22
4.32273E-02 6.00011E-22
4.41190E-02 5.75292E-22
4.50194E-02 5.51825E-22
4.59284E-02 5.29535E-22
4.68461E-02 5.08352E-22
4.87074E-02 4.69051E-22
5.06030E-02 4.33452E-22
5.25328E-02 4.01146E-22
5.44967E-02 3.71775E-22
5.64946E-02 3.45026E-22
5.85262E-02 3.20624E-22
6.05914E-02 2.98328E-22
6.26901E-02 2.77922E-22
6.48222E-02 2.59220E-22
6.69873E-02 2.42054E-22
6.91854E-02 2.26275E-22
7.14163E-02 2.11751E-22
7.36799E-02 1.98366E-22
7.59760E-02 1.86013E-22
7.83043E-02 1.74600E-22
8.06647E-02 1.64042E-22
8.30571E-02 1.54263E-22
8.54812E-02 1.45197E-22
8.79369E-02 1.36781E-22
9.04240E-02 1.28961E-22
9.29422E-02 1.21687E-22
9.54915E-02 1.14914E-22
9.80716E-02 1.08602E-22
1.00682E-01 1.02714E-22
1.03323E-01 9.72151E-23
1.05995E-01 9.20759E-23
1.08696E-01 8.72688E-23
1.11427E-01 8.27682E-23
1.14188E-01 7.85512E-23
1.16978E-01 7.45966E-23
1.19797E-01 7.08852E-23
1.22645E-01 6.73994E-23
1.25522E-01 6.41229E-23
1.28428E-01 6.10410E-23
1.31361E-01 5.81400E-23
1.34323E-01 5.54074E-23
1.37313E-01 5.28316E-23
1.40330E-01 5.04021E-23
1.43375E-01 4.81090E-23
1.46447E-01 4.59432E-23
1.49545E-01 4.38965E-23
1.52671E-01 4.19611E-23
1.55823E-01 4.01299E-23
1.59001E-01 3.83962E-23
1.62205E-01 3.67539E-23
1.65435E-01 3.51973E-23
1.68690E-01 3.37212E-23
1.71970E-01 3.23206E-23
1.75276E-01 3.09909E-23
1.78606E-01 2.97280E-23
1.81961E-01 2.85279E-23
1.85340E-01 2.73868E-23
1.88743E-01 2.63014E-23
1.92169E-01 2.52684E-23
1.95619E-01 2.42848E-23
1.99092E-01 2.33479E-23
2.02589E-01 2.24551E-23
2.06107E-01 2.16039E-23
2.09649E-01 2.07919E-23
2.13212E-01 2.00171E-23
2.16797E-01 1.92775E-23
2.20404E-01 1.85712E-23
2.24032E-01 1.78963E-23
2.27680E-01 1.72513E-23
2.31350E-01 1.66346E-23
2.35040E-01 1.60447E-23
2.38751E-01 1.54803E-23
2.42481E-01 1.49400E-23
2.46231E-01 1.44226E-23
2.50000E-01 1.39270E-23
2.53788E-01 1.34521E-23
2.57595E-01 1.29969E-23
2.61421E-01 1.25603E-23
2.65264E-01 1.21416E-23
2.69126E-01 1.17399E-23
2.73005E-01 1.13542E-23
2.76901E-01 1.09840E-23
2.80814E-01 1.06284E-23
2.84744E-01 1.02867E-23
2.88691E-01 9.95839E-24
2.92653E-01 9.64278E-24
2.96632E-01 9.33926E-24
3.00625E-01 9.04734E-24
3.04634E-01 8.76646E-24
3.08658E-01 8.49615E-24
3.12697E-01 8.23592E-24
3.16749E-01 7.98535E-24
3.20816E-01 7.74400E-24
3.24896E-01 7.51146E-24
3.28990E-01 7.28738E-24
3.33097E-01 7.07136E-24
3.37216E-01 6.86310E-24
3.41348E-01 6.66224E-24
3.45492E-01 6.46850E-24
3.49647E-01 6.28153E-24
3.53814E-01 6.10109E-24
3.57992E-01 5.92691E-24
3.62181E-01 5.75873E-24
3.66381E-01 5.59631E-24
3.70590E-01 5.43940E-24
3.74810E-01 5.28780E-24
3.79039E-01 5.14128E-24
3.83277E-01 4.99965E-24
3.87524E-01 4.86272E-24
3.91780E-01 4.73031E-24
3.96044E-01 4.60223E-24
4.00316E-01 4.47832E-24
4.04596E-01 4.35842E-24
4.08882E-01 4.24238E-24
4.13176E-01 4.13005E-24
4.17476E-01 4.02129E-24
4.21783E-01 3.91597E-24
4.26095E-01 3.81396E-24
4.30413E-01 3.71513E-24
4.34737E-01 3.61938E-24
4.39065E-01 3.52658E-24
4.43398E-01 3.43664E-24
4.47736E-01 3.34944E-24
4.52077E-01 3.26490E-24
4.56422E-01 3.18290E-24
4.60770E-01 3.10337E-24
4.65122E-01 3.02622E-24
4.69476E-01 2.95136E-24
4.73832E-01 2.87871E-24
4.78190E-01 2.80820E-24
4.82550E-01 2.73975E-24
4.86912E-01 2.67329E-24
4.91274E-01 2.60877E-24
4.95637E-01 2.54609E-24
5.00000E-01 2.48521E-24
5.04363E-01 2.42607E-24
5.08726E-01 2.36860E-24
5.13088E-01 2.31276E-24
5.17450E-01 2.25848E-24
5.21810E-01 2.20572E-24
5.26168E-01 2.15443E-24
5.30524E-01 2.10455E-24
5.34878E-01 2.05605E-24
5.39230E-01 2.00888E-24
5.43578E-01 1.96299E-24
5.47923E-01 1.91835E-24
5.52264E-01 1.87492E-24
5.56602E-01 1.83265E-24
5.60935E-01 1.79151E-24
5.65263E-01 1.75147E-24
5.69587E-01 1.71250E-24
5.73905E-01 1.67454E-24
5.78217E-01 1.63759E-24
5.82524E-01 1.60161E-24
5.86824E-01 1.56656E-24
5.91118E-01 1.53242E-24
5.95404E-01 1.49916E-24
5.99684E-01 1.46676E-24
6.03956E-01 1.43519E-24
6.08220E-01 1.40442E-24
6.12476E-01 1.37443E-24
6.16723E-01 1.34520E-24
6.20961E-01 1.31671E-24
6.25190E-01 1.28893E-24
6.29410E-01 1.26184E-24
6.33619E-01 1.23543E-24
6.37819E-01 1.20968E-24
6.42008E-01 1.18455E-24
6.46186E-01 1.16005E-24
6.50353E-01 1.13614E-24
6.54508E-01 1.11282E-24
6.58652E-01 1.09007E-24
6.62784E-01 1.06787E-24
6.66903E-01 1.04620E-24
6.71010E-01 1.02505E-24
6.75104E-01 1.00441E-24
6.79184E-01 9.84258E-25
6.83251E-01 9.64591E-25
6.87303E-01 9.45385E-25
6.91342E-01 9.26637E-25
6.95366E-01 9.08326E-25
6.99375E-01 8.90448E-25
7.03368E-01 8.72986E-25
7.07347E-01 8.55932E-25
7.11309E-01 8.39274E-25
7.15256E-01 8.23000E-25
7.19186E-01 8.07105E-25
7.23099E-01 7.91571E-25
7.26995E-01 7.76398E-25
7.30874E-01 7.61569E-25
7.34736E-01 7.47081E-25
7.38579E-01 7.32920E-25
7.42405E-01 7.19081E-25
7.46212E-01 7.05556E-25
7.50000E-01 6.92334E-25
7.53769E-01 6.79413E-25
7.57519E-01 6.66778E-25
7.61249E-01 6.54430E-25
7.64960E-01 6.42354E-25
7.68650E-01 6.30550E-25
7.72320E-01 6.19006E-25
7.75968E-01 6.07720E-25
7.79596E-01 5.96683E-25
7.83203E-01 5.85889E-25
7.86788E-01 5.75335E-25
7.90351E-01 5.65011E-25
7.93893E-01 5.54916E-25
7.97411E-01 5.45040E-25
8.00908E-01 5.35383E-25
8.04381E-01 5.25934E-25
8.07831E-01 5.16693E-25
8.11257E-01 5.07653E-25
8.14660E-01 4.98809E-25
8.18039E-01 4.90159E-25
8.21394E-01 4.81694E-25
8.24724E-01 4.73415E-25
8.28030E-01 4.65313E-25
8.31310E-01 4.57389E-25
8.34565E-01 4.49634E-25
8.37795E-01 4.42048E-25
8.40999E-01 4.34626E-25
8.44177E-01 4.27363E-25
8.47329E-01 4.20258E-25
8.50455E-01 4.13305E-25
8.53553E-01 4.06504E-25
8.56625E-01 3.99848E-25
8.59670E-01 3.93337E-25
8.62687E-01 3.86965E-25
8.65677E-01 3.80732E-25
8.68639E-01 3.74633E-25
8.71572E-01 3.68666E-25
8.74478E-01 3.62829E-25
8.77355E-01 3.57117E-25
8.80203E-01 3.51531E-25
8.83022E-01 3.46064E-25
8.85812E-01 3.40718E-25
8.88573E-01 3.35487E-25
8.91304E-01 3.30371E-25
8.94005E-01 3.25367E-25
8.96677E-01 3.20472E-25
8.99318E-01 3.15686E-25
9.01928E-01 3.11005E-25
9.04508E-01 3.06428E-25
9.07058E-01 3.01951E-25
9.09576E-01 2.97576E-25
9.12063E-01 2.93296E-25
9.14519E-01 2.89114E-25
9.16943E-01 2.85026E-25
9.19335E-01 2.81030E-25
9.21696E-01 2.77125E-25
9.24024E-01 2.73309E-25
9.26320E-01 2.69581E-25
9.28584E-01 2.65938E-25
9.30815E-01 2.62381E-25
9.33013E-01 2.58906E-25
9.35178E-01 2.55514E-25
9.37310E-01 2.52201E-25
9.39409E-01 2.48967E-25
9.41474E-01 2.45812E-25
9.43505E-01 2.42732E-25
9.45503E-01 2.39729E-25
9.47467E-01 2.36797E-25
9.49397E-01 2.33941E-25
9.51293E-01 2.31154E-25
9.53154E-01 2.28440E-25
9.54981E-01 2.25793E-25
9.56773E-01 2.23216E-25
9.58530E-01 2.20707E-25
9.60252E-01 2.18263E-25
9.61940E-01 2.15887E-25
9.63592E-01 2.13572E-25
9.65209E-01 2.11325E-25
9.66790E-01 2.09137E-25
9.68336E-01 2.07014E-25
9.69846E-01 2.04950E-25
9.71321E-01 2.02948E-25
9.72759E-01 2.01006E-25
9.74162E-01 1.99121E-25
9.75528E-01 1.97297E-25
9.76858E-01 1.95528E-25
9.78152E-01 1.93818E-25
9.79410E-01 1.92162E-25
9.80631E-01 1.90565E-25
9.81815E-01 1.89020E-25
9.82963E-01 1.87531E-25
9.84074E-01 1.86096E-25
9.85148E-01 1.84713E-25
9.86185E-01 1.83385E-25
9.87185E-01 1.82107E-25
9.88148E-01 1.80884E-25
9.89074E-01 1.79710E-25
9.89962E-01 1.78589E-25
9.90814E-01 1.77517E-25
9.91627E-01 1.76496E-25
9.92404E-01 1.75525E-25
9.93143E-01 1.74603E-25
9.93844E-01 1.73732E-25
9.94508E-01 1.72907E-25
9.95134E-01 1.72134E-25
9.95722E-01 1.71406E-25
9.96273E-01 1.70729E-25
9.96786E-01 1.70097E-25
9.97261E-01 1.69515E-25
9.97698E-01 1.68980E-25
9.98097E-01 1.68491E-25
9.98459E-01 1.68051E-25
9.98782E-01 1.67654E-25
9.99067E-01 1.67309E-25
9.99315E-01 1.67005E-25
9.99524E-01 1.66754E-25
9.99695E-01 1.66543E-25
9.99829E-01 1.66383E-25
9.99924E-01 1.66267E-25
9.99981E-01 1.66196E-25
1.00000E+00 1.66213E-25
