 #
 # Subroutine ELSEPA. Elastic scattering of electrons and positrons
 #                    by neutral atoms and positive ions
 #
 # Projectile: positron
 # Kinetic energy = 6.00000E+07 eV = 2.20496E+06 a.u.
 #
 # WARNING: High-energy factorization with free-atom DF screening.
 #          Absorption, polarization and exchange corrections are
 #          switched off.
 #          Phase shifts are calculated for the bare nucleus.
 #          Scattering amplitudes are not evaluated.
 #
 # Element:  K,  Z =  19,  atomic weight = 3.90983E+01 g/mol
 #
 # Nuclear model: Fermi distribution
 #                Average radius = 3.63164E-13 cm
 #                Skin thickness = 5.46000E-14 cm
 #
 # Number of electrons = 19
 #
 # Total elastic cross section = 1.51345E-18 cm**2 = 5.40461E-02 a0**2
 # 1st transport cross section = 1.98955E-25 cm**2 = 7.10480E-09 a0**2
 # 2nd transport cross section = 5.84930E-25 cm**2 = 2.08882E-08 a0**2
 #
 #
 # Differential cross section:                       MU=(1-COS(THETA))/2
 #
 #  THETA        MU          DCS          DCS        Sherman      error
 #  (deg)                 (cm**2/sr)   (a0**2/sr)    function
 #----------------------------------------------------------------------
0.00000E+00 1.12684E-10
7.61557E-13 1.12383E-10
1.18994E-12 1.12215E-10
1.71346E-12 1.12011E-10
2.33225E-12 1.11769E-10
3.04617E-12 1.11492E-10
3.85530E-12 1.11180E-10
4.75964E-12 1.10832E-10
5.75917E-12 1.10450E-10
6.85391E-12 1.10033E-10
8.04379E-12 1.09584E-10
9.32893E-12 1.09101E-10
1.07092E-11 1.08587E-10
1.21847E-11 1.08041E-10
1.37554E-11 1.07465E-10
1.54213E-11 1.06860E-10
1.71823E-11 1.06225E-10
1.90386E-11 1.05564E-10
2.09900E-11 1.04874E-10
2.30367E-11 1.04160E-10
2.51785E-11 1.03420E-10
2.74156E-11 1.02657E-10
2.97478E-11 1.01871E-10
3.21752E-11 1.01061E-10
3.46979E-11 1.00233E-10
3.73157E-11 9.93826E-11
4.00286E-11 9.85165E-11
4.28368E-11 9.76307E-11
4.57402E-11 9.67286E-11
4.87388E-11 9.58123E-11
5.18325E-11 9.48782E-11
5.50215E-11 9.39359E-11
5.83057E-11 9.29765E-11
6.16850E-11 9.20098E-11
6.51595E-11 9.10307E-11
6.87293E-11 9.00422E-11
7.23943E-11 8.90477E-11
7.61544E-11 8.80411E-11
1.18991E-10 7.78238E-11
1.71347E-10 6.78115E-11
2.33223E-10 5.85729E-11
3.04617E-10 5.04104E-11
3.85531E-10 4.34177E-11
4.75965E-10 3.77452E-11
5.75917E-10 3.28519E-11
6.85389E-10 2.86480E-11
8.04380E-10 2.53534E-11
9.32891E-10 2.24459E-11
1.07092E-09 2.01173E-11
1.21847E-09 1.80927E-11
1.37554E-09 1.63559E-11
1.54213E-09 1.48614E-11
1.71823E-09 1.35456E-11
1.90386E-09 1.23807E-11
2.09900E-09 1.13552E-11
2.30367E-09 1.04165E-11
2.51785E-09 9.58285E-12
2.74156E-09 8.82211E-12
2.97478E-09 8.12694E-12
3.21752E-09 7.50455E-12
3.46978E-09 6.91674E-12
3.73156E-09 6.39502E-12
4.00286E-09 5.90252E-12
4.28368E-09 5.45759E-12
4.57402E-09 5.04804E-12
4.87388E-09 4.66788E-12
5.18326E-09 4.32579E-12
5.50215E-09 4.00112E-12
5.83057E-09 3.71007E-12
6.16850E-09 3.43724E-12
6.51596E-09 3.18839E-12
6.87293E-09 2.95978E-12
7.23942E-09 2.74735E-12
7.61544E-09 2.55507E-12
1.18991E-08 1.27809E-12
1.71347E-08 6.98023E-13
2.33223E-08 4.16050E-13
3.04617E-08 2.67187E-13
3.85531E-08 1.81849E-13
4.75965E-08 1.29095E-13
5.75917E-08 9.47022E-14
6.85389E-08 7.11530E-14
8.04380E-08 5.44596E-14
9.32891E-08 4.23116E-14
1.07092E-07 3.32930E-14
1.21847E-07 2.64869E-14
1.37554E-07 2.12825E-14
1.54213E-07 1.72626E-14
1.71823E-07 1.41257E-14
1.90386E-07 1.16546E-14
2.09900E-07 9.69090E-15
2.30367E-07 8.11747E-15
2.51785E-07 6.84679E-15
2.74156E-07 5.81290E-15
2.97478E-07 4.96567E-15
3.21752E-07 4.26664E-15
3.46978E-07 3.68613E-15
3.73156E-07 3.20106E-15
4.00286E-07 2.79332E-15
4.28368E-07 2.44867E-15
4.57402E-07 2.15579E-15
4.87388E-07 1.90561E-15
5.18325E-07 1.69090E-15
5.50215E-07 1.50578E-15
5.83057E-07 1.34548E-15
6.16850E-07 1.20609E-15
6.51596E-07 1.08442E-15
6.87293E-07 9.77812E-16
7.23942E-07 8.84076E-16
7.61543E-07 8.01379E-16
1.18991E-06 3.37154E-16
1.71347E-06 1.65826E-16
2.33223E-06 9.07470E-17
3.04617E-06 5.36990E-17
3.85531E-06 3.37426E-17
4.75964E-06 2.22385E-17
5.75916E-06 1.52377E-17
6.85388E-06 1.07834E-17
8.04378E-06 7.84188E-18
9.32888E-06 5.83723E-18
1.07092E-05 4.43347E-18
1.21846E-05 3.42704E-18
1.37553E-05 2.69043E-18
1.54212E-05 2.14137E-18
1.71822E-05 1.72541E-18
1.90385E-05 1.40560E-18
2.09899E-05 1.15663E-18
2.30365E-05 9.60392E-19
2.51783E-05 8.04021E-19
2.74153E-05 6.78190E-19
2.97475E-05 5.76022E-19
3.21749E-05 4.92380E-19
3.46974E-05 4.23380E-19
3.73152E-05 3.66056E-19
4.00281E-05 3.18114E-19
4.28362E-05 2.77769E-19
4.57395E-05 2.43620E-19
4.87380E-05 2.14558E-19
5.18317E-05 1.89701E-19
5.50205E-05 1.68336E-19
5.83045E-05 1.49892E-19
6.16838E-05 1.33906E-19
6.51582E-05 1.19995E-19
6.87277E-05 1.07845E-19
7.23925E-05 9.71945E-20
7.61524E-05 8.78233E-20
9.21439E-05 5.99635E-20
1.09658E-04 4.23229E-20
1.28695E-04 3.07169E-20
1.49255E-04 2.28286E-20
1.71338E-04 1.73170E-20
1.94942E-04 1.33721E-20
2.20070E-04 1.04889E-20
2.46720E-04 8.34214E-21
2.74892E-04 6.71728E-21
3.04586E-04 5.46928E-21
3.35803E-04 4.49794E-21
3.68542E-04 3.73285E-21
4.02802E-04 3.12363E-21
4.38585E-04 2.63369E-21
4.75889E-04 2.23609E-21
5.14715E-04 1.91070E-21
5.55063E-04 1.64236E-21
5.96931E-04 1.41948E-21
6.40321E-04 1.23312E-21
6.85233E-04 1.07633E-21
7.31665E-04 9.43671E-22
7.79618E-04 8.30810E-22
8.29092E-04 7.34310E-22
8.80086E-04 6.51407E-22
9.32601E-04 5.79867E-22
9.86636E-04 5.17872E-22
1.04219E-03 4.63935E-22
1.09927E-03 4.16831E-22
1.15786E-03 3.75548E-22
1.21797E-03 3.39245E-22
1.27961E-03 3.07218E-22
1.34276E-03 2.78877E-22
1.40743E-03 2.53725E-22
1.47362E-03 2.31341E-22
1.54133E-03 2.11368E-22
1.61056E-03 1.93501E-22
1.68131E-03 1.77479E-22
1.75357E-03 1.63079E-22
1.82735E-03 1.50107E-22
1.90265E-03 1.38398E-22
1.97947E-03 1.27806E-22
2.05780E-03 1.18206E-22
2.13765E-03 1.09488E-22
2.21902E-03 1.01559E-22
2.30190E-03 9.43321E-23
2.38630E-03 8.77357E-23
2.47222E-03 8.17046E-23
2.55965E-03 7.61818E-23
2.64859E-03 7.11166E-23
2.73905E-03 6.64645E-23
2.83103E-03 6.21856E-23
2.92452E-03 5.82447E-23
3.01952E-03 5.46102E-23
3.11604E-03 5.12541E-23
3.21407E-03 4.81512E-23
3.31362E-03 4.52789E-23
3.41468E-03 4.26170E-23
3.51725E-03 4.01473E-23
3.62133E-03 3.78533E-23
3.72692E-03 3.57204E-23
3.83403E-03 3.37351E-23
3.94265E-03 3.18854E-23
4.05278E-03 3.01604E-23
4.16442E-03 2.85500E-23
4.27757E-03 2.70453E-23
4.39223E-03 2.56382E-23
4.50840E-03 2.43210E-23
4.62608E-03 2.30870E-23
4.74527E-03 2.19300E-23
4.86597E-03 2.08443E-23
4.98817E-03 1.98248E-23
5.11188E-03 1.88665E-23
5.23711E-03 1.79652E-23
5.36383E-03 1.71169E-23
5.49207E-03 1.63179E-23
5.62181E-03 1.55647E-23
5.75306E-03 1.48544E-23
5.88581E-03 1.41839E-23
6.02007E-03 1.35506E-23
6.15583E-03 1.29521E-23
6.29310E-03 1.23862E-23
6.43187E-03 1.18507E-23
6.57214E-03 1.13437E-23
6.71392E-03 1.08634E-23
6.85720E-03 1.04081E-23
7.00198E-03 9.97626E-24
7.14827E-03 9.56651E-24
7.29605E-03 9.17747E-24
7.44534E-03 8.80790E-24
7.59612E-03 8.45664E-24
7.97965E-03 7.65177E-24
8.37255E-03 6.93992E-24
8.77480E-03 6.30852E-24
9.18641E-03 5.74692E-24
9.60736E-03 5.24608E-24
1.00376E-02 4.79831E-24
1.04773E-02 4.39701E-24
1.09262E-02 4.03654E-24
1.13844E-02 3.71201E-24
1.18520E-02 3.41923E-24
1.23288E-02 3.15454E-24
1.28150E-02 2.91480E-24
1.33104E-02 2.69723E-24
1.38150E-02 2.49942E-24
1.43290E-02 2.31928E-24
1.48521E-02 2.15494E-24
1.53845E-02 2.00478E-24
1.59262E-02 1.86736E-24
1.64770E-02 1.74141E-24
1.70371E-02 1.62580E-24
1.76063E-02 1.51954E-24
1.81848E-02 1.42173E-24
1.87724E-02 1.33159E-24
1.93692E-02 1.24840E-24
1.99751E-02 1.17154E-24
2.05901E-02 1.10044E-24
2.12143E-02 1.03460E-24
2.18476E-02 9.73548E-25
2.24900E-02 9.16882E-25
2.31415E-02 8.64229E-25
2.38021E-02 8.15256E-25
2.44717E-02 7.69659E-25
2.51504E-02 7.27165E-25
2.58382E-02 6.87524E-25
2.65349E-02 6.50512E-25
2.72407E-02 6.15922E-25
2.79555E-02 5.83569E-25
2.86793E-02 5.53282E-25
2.94120E-02 5.24905E-25
3.01537E-02 4.98297E-25
3.09043E-02 4.73327E-25
3.16639E-02 4.49878E-25
3.24324E-02 4.27840E-25
3.32098E-02 4.07112E-25
3.39961E-02 3.87604E-25
3.47912E-02 3.69231E-25
3.55952E-02 3.51914E-25
3.64081E-02 3.35583E-25
3.72297E-02 3.20171E-25
3.80602E-02 3.05617E-25
3.88995E-02 2.91866E-25
3.97476E-02 2.78865E-25
4.06044E-02 2.66565E-25
4.14700E-02 2.54923E-25
4.23443E-02 2.43896E-25
4.32273E-02 2.33447E-25
4.41190E-02 2.23541E-25
4.50194E-02 2.14142E-25
4.59284E-02 2.05222E-25
4.68461E-02 1.96752E-25
4.87074E-02 1.81054E-25
5.06030E-02 1.66857E-25
5.25328E-02 1.53994E-25
5.44967E-02 1.42317E-25
5.64946E-02 1.31701E-25
5.85262E-02 1.22031E-25
6.05914E-02 1.13210E-25
6.26901E-02 1.05152E-25
6.48222E-02 9.77778E-26
6.69873E-02 9.10213E-26
6.91854E-02 8.48217E-26
7.14163E-02 7.91255E-26
7.36799E-02 7.38851E-26
7.59760E-02 6.90580E-26
7.83043E-02 6.46062E-26
8.06647E-02 6.04957E-26
8.30571E-02 5.66960E-26
8.54812E-02 5.31798E-26
8.79369E-02 4.99223E-26
9.04240E-02 4.69016E-26
9.29422E-02 4.40975E-26
9.54915E-02 4.14919E-26
9.80716E-02 3.90685E-26
1.00682E-01 3.68126E-26
1.03323E-01 3.47106E-26
1.05995E-01 3.27503E-26
1.08696E-01 3.09206E-26
1.11427E-01 2.92115E-26
1.14188E-01 2.76137E-26
1.16978E-01 2.61188E-26
1.19797E-01 2.47190E-26
1.22645E-01 2.34075E-26
1.25522E-01 2.21776E-26
1.28428E-01 2.10236E-26
1.31361E-01 1.99400E-26
1.34323E-01 1.89218E-26
1.37313E-01 1.79645E-26
1.40330E-01 1.70639E-26
1.43375E-01 1.62159E-26
1.46447E-01 1.54172E-26
1.49545E-01 1.46644E-26
1.52671E-01 1.39545E-26
1.55823E-01 1.32845E-26
1.59001E-01 1.26520E-26
1.62205E-01 1.20545E-26
1.65435E-01 1.14898E-26
1.68690E-01 1.09558E-26
1.71970E-01 1.04505E-26
1.75276E-01 9.97231E-27
1.78606E-01 9.51940E-27
1.81961E-01 9.09028E-27
1.85340E-01 8.68351E-27
1.88743E-01 8.29775E-27
1.92169E-01 7.93176E-27
1.95619E-01 7.58438E-27
1.99092E-01 7.25451E-27
2.02589E-01 6.94114E-27
2.06107E-01 6.64334E-27
2.09649E-01 6.36020E-27
2.13212E-01 6.09091E-27
2.16797E-01 5.83469E-27
2.20404E-01 5.59081E-27
2.24032E-01 5.35859E-27
2.27680E-01 5.13740E-27
2.31350E-01 4.92664E-27
2.35040E-01 4.72575E-27
2.38751E-01 4.53419E-27
2.42481E-01 4.35148E-27
2.46231E-01 4.17715E-27
2.50000E-01 4.01075E-27
2.53788E-01 3.85189E-27
2.57595E-01 3.70017E-27
2.61421E-01 3.55522E-27
2.65264E-01 3.41671E-27
2.69126E-01 3.28431E-27
2.73005E-01 3.15770E-27
2.76901E-01 3.03662E-27
2.80814E-01 2.92077E-27
2.84744E-01 2.80991E-27
2.88691E-01 2.70378E-27
2.92653E-01 2.60218E-27
2.96632E-01 2.50486E-27
3.00625E-01 2.41164E-27
3.04634E-01 2.32231E-27
3.08658E-01 2.23669E-27
3.12697E-01 2.15461E-27
3.16749E-01 2.07590E-27
3.20816E-01 2.00041E-27
3.24896E-01 1.92799E-27
3.28990E-01 1.85849E-27
3.33097E-01 1.79179E-27
3.37216E-01 1.72776E-27
3.41348E-01 1.66628E-27
3.45492E-01 1.60723E-27
3.49647E-01 1.55051E-27
3.53814E-01 1.49601E-27
3.57992E-01 1.44363E-27
3.62181E-01 1.39329E-27
3.66381E-01 1.34490E-27
3.70590E-01 1.29836E-27
3.74810E-01 1.25360E-27
3.79039E-01 1.21055E-27
3.83277E-01 1.16913E-27
3.87524E-01 1.12928E-27
3.91780E-01 1.09092E-27
3.96044E-01 1.05399E-27
4.00316E-01 1.01844E-27
4.04596E-01 9.84203E-28
4.08882E-01 9.51232E-28
4.13176E-01 9.19471E-28
4.17476E-01 8.88873E-28
4.21783E-01 8.59389E-28
4.26095E-01 8.30975E-28
4.30413E-01 8.03586E-28
4.34737E-01 7.77183E-28
4.39065E-01 7.51726E-28
4.43398E-01 7.27178E-28
4.47736E-01 7.03502E-28
4.52077E-01 6.80664E-28
4.56422E-01 6.58631E-28
4.60770E-01 6.37372E-28
4.65122E-01 6.16857E-28
4.69476E-01 5.97057E-28
4.73832E-01 5.77945E-28
4.78190E-01 5.59494E-28
4.82550E-01 5.41679E-28
4.86912E-01 5.24476E-28
4.91274E-01 5.07862E-28
4.95637E-01 4.91814E-28
5.00000E-01 4.76312E-28
5.04363E-01 4.61334E-28
5.08726E-01 4.46862E-28
5.13088E-01 4.32877E-28
5.17450E-01 4.19360E-28
5.21810E-01 4.06295E-28
5.26168E-01 3.93664E-28
5.30524E-01 3.81453E-28
5.34878E-01 3.69645E-28
5.39230E-01 3.58227E-28
5.43578E-01 3.47184E-28
5.47923E-01 3.36503E-28
5.52264E-01 3.26170E-28
5.56602E-01 3.16174E-28
5.60935E-01 3.06502E-28
5.65263E-01 2.97142E-28
5.69587E-01 2.88085E-28
5.73905E-01 2.79319E-28
5.78217E-01 2.70834E-28
5.82524E-01 2.62620E-28
5.86824E-01 2.54667E-28
5.91118E-01 2.46968E-28
5.95404E-01 2.39512E-28
5.99684E-01 2.32292E-28
6.03956E-01 2.25300E-28
6.08220E-01 2.18527E-28
6.12476E-01 2.11966E-28
6.16723E-01 2.05611E-28
6.20961E-01 1.99453E-28
6.25190E-01 1.93487E-28
6.29410E-01 1.87705E-28
6.33619E-01 1.82103E-28
6.37819E-01 1.76673E-28
6.42008E-01 1.71410E-28
6.46186E-01 1.66308E-28
6.50353E-01 1.61363E-28
6.54508E-01 1.56568E-28
6.58652E-01 1.51920E-28
6.62784E-01 1.47412E-28
6.66903E-01 1.43041E-28
6.71010E-01 1.38803E-28
6.75104E-01 1.34692E-28
6.79184E-01 1.30704E-28
6.83251E-01 1.26836E-28
6.87303E-01 1.23085E-28
6.91342E-01 1.19445E-28
6.95366E-01 1.15913E-28
6.99375E-01 1.12487E-28
7.03368E-01 1.09162E-28
7.07347E-01 1.05936E-28
7.11309E-01 1.02805E-28
7.15256E-01 9.97658E-29
7.19186E-01 9.68164E-29
7.23099E-01 9.39535E-29
7.26995E-01 9.11745E-29
7.30874E-01 8.84767E-29
7.34736E-01 8.58576E-29
7.38579E-01 8.33148E-29
7.42405E-01 8.08458E-29
7.46212E-01 7.84484E-29
7.50000E-01 7.61204E-29
7.53769E-01 7.38597E-29
7.57519E-01 7.16641E-29
7.61249E-01 6.95317E-29
7.64960E-01 6.74606E-29
7.68650E-01 6.54489E-29
7.72320E-01 6.34948E-29
7.75968E-01 6.15965E-29
7.79596E-01 5.97523E-29
7.83203E-01 5.79607E-29
7.86788E-01 5.62200E-29
7.90351E-01 5.45288E-29
7.93893E-01 5.28855E-29
7.97411E-01 5.12887E-29
8.00908E-01 4.97370E-29
8.04381E-01 4.82292E-29
8.07831E-01 4.67638E-29
8.11257E-01 4.53396E-29
8.14660E-01 4.39555E-29
8.18039E-01 4.26103E-29
8.21394E-01 4.13027E-29
8.24724E-01 4.00318E-29
8.28030E-01 3.87964E-29
8.31310E-01 3.75955E-29
8.34565E-01 3.64282E-29
8.37795E-01 3.52934E-29
8.40999E-01 3.41901E-29
8.44177E-01 3.31176E-29
8.47329E-01 3.20750E-29
8.50455E-01 3.10613E-29
8.53553E-01 3.00757E-29
8.56625E-01 2.91175E-29
8.59670E-01 2.81858E-29
8.62687E-01 2.72800E-29
8.65677E-01 2.63993E-29
8.68639E-01 2.55429E-29
8.71572E-01 2.47103E-29
8.74478E-01 2.39007E-29
8.77355E-01 2.31136E-29
8.80203E-01 2.23482E-29
8.83022E-01 2.16040E-29
8.85812E-01 2.08804E-29
8.88573E-01 2.01768E-29
8.91304E-01 1.94927E-29
8.94005E-01 1.88276E-29
8.96677E-01 1.81809E-29
8.99318E-01 1.75522E-29
9.01928E-01 1.69409E-29
9.04508E-01 1.63466E-29
9.07058E-01 1.57689E-29
9.09576E-01 1.52072E-29
9.12063E-01 1.46613E-29
9.14519E-01 1.41306E-29
9.16943E-01 1.36147E-29
9.19335E-01 1.31133E-29
9.21696E-01 1.26261E-29
9.24024E-01 1.21525E-29
9.26320E-01 1.16923E-29
9.28584E-01 1.12452E-29
9.30815E-01 1.08108E-29
9.33013E-01 1.03887E-29
9.35178E-01 9.97873E-30
9.37310E-01 9.58052E-30
9.39409E-01 9.19378E-30
9.41474E-01 8.81823E-30
9.43505E-01 8.45360E-30
9.45503E-01 8.09963E-30
9.47467E-01 7.75605E-30
9.49397E-01 7.42261E-30
9.51293E-01 7.09908E-30
9.53154E-01 6.78523E-30
9.54981E-01 6.48081E-30
9.56773E-01 6.18563E-30
9.58530E-01 5.89946E-30
9.60252E-01 5.62210E-30
9.61940E-01 5.35335E-30
9.63592E-01 5.09302E-30
9.65209E-01 4.84093E-30
9.66790E-01 4.59690E-30
9.68336E-01 4.36075E-30
9.69846E-01 4.13232E-30
9.71321E-01 3.91144E-30
9.72759E-01 3.69797E-30
9.74162E-01 3.49175E-30
9.75528E-01 3.29263E-30
9.76858E-01 3.10048E-30
9.78152E-01 2.91517E-30
9.79410E-01 2.73655E-30
9.80631E-01 2.56452E-30
9.81815E-01 2.39894E-30
9.82963E-01 2.23971E-30
9.84074E-01 2.08672E-30
9.85148E-01 1.93985E-30
9.86185E-01 1.79901E-30
9.87185E-01 1.66410E-30
9.88148E-01 1.53502E-30
9.89074E-01 1.41170E-30
9.89962E-01 1.29403E-30
9.90814E-01 1.18195E-30
9.91627E-01 1.07537E-30
9.92404E-01 9.74222E-31
9.93143E-01 8.78438E-31
9.93844E-01 7.87951E-31
9.94508E-01 7.02699E-31
9.95134E-01 6.22624E-31
9.95722E-01 5.47671E-31
9.96273E-01 4.77790E-31
9.96786E-01 4.12932E-31
9.97261E-01 3.53054E-31
9.97698E-01 2.98114E-31
9.98097E-01 2.48076E-31
9.98459E-01 2.02905E-31
9.98782E-01 1.62571E-31
9.99067E-01 1.27046E-31
9.99315E-01 9.63064E-32
9.99524E-01 7.03313E-32
9.99695E-01 4.91026E-32
9.99829E-01 3.26067E-32
9.99924E-01 2.08317E-32
9.99981E-01 1.37699E-32
1.00000E+00 1.14163E-32
