 #
 # Subroutine ELSEPA. Elastic scattering of electrons and positrons
 #                    by neutral atoms and positive ions
 #
 # Projectile: positron
 # Kinetic energy = 7.00000E+08 eV = 2.57245E+07 a.u.
 #
 # WARNING: High-energy factorization with free-atom DF screening.
 #          Absorption, polarization and exchange corrections are
 #          switched off.
 #          Phase shifts are calculated for the bare nucleus.
 #          Scattering amplitudes are not evaluated.
 #
 # Element:  K,  Z =  19,  atomic weight = 3.90983E+01 g/mol
 #
 # Nuclear model: Fermi distribution
 #                Average radius = 3.63164E-13 cm
 #                Skin thickness = 5.46000E-14 cm
 #
 # Number of electrons = 19
 #
 # Total elastic cross section = 1.49601E-18 cm**2 = 5.34234E-02 a0**2
 # 1st transport cross section = 1.56201E-27 cm**2 = 5.57803E-11 a0**2
 # 2nd transport cross section = 4.68466E-27 cm**2 = 1.67292E-10 a0**2
 #
 #
 # Differential cross section:                       MU=(1-COS(THETA))/2
 #
 #  THETA        MU          DCS          DCS        Sherman      error
 #  (deg)                 (cm**2/sr)   (a0**2/sr)    function
 #----------------------------------------------------------------------
0.00000E+00 1.51016E-08
7.61557E-13 1.09375E-08
1.18994E-12 9.36499E-09
1.71346E-12 7.91322E-09
2.33225E-12 6.65169E-09
3.04617E-12 5.59877E-09
3.85530E-12 4.77484E-09
4.75964E-12 4.05721E-09
5.75917E-12 3.50976E-09
6.85391E-12 3.04773E-09
8.04379E-12 2.68166E-09
9.32893E-12 2.37267E-09
1.07092E-11 2.11579E-09
1.21847E-11 1.89678E-09
1.37554E-11 1.70692E-09
1.54213E-11 1.54284E-09
1.71823E-11 1.39645E-09
1.90386E-11 1.26829E-09
2.09900E-11 1.15206E-09
2.30367E-11 1.04921E-09
2.51785E-11 9.55257E-10
2.74156E-11 8.71424E-10
2.97478E-11 7.94703E-10
3.21752E-11 7.25824E-10
3.46979E-11 6.62845E-10
3.73157E-11 6.06045E-10
4.00286E-11 5.54214E-10
4.28368E-11 5.07310E-10
4.57402E-11 4.64599E-10
4.87388E-11 4.25848E-10
5.18325E-11 3.90624E-10
5.50215E-11 3.58600E-10
5.83057E-11 3.29524E-10
6.16850E-11 3.03047E-10
6.51595E-11 2.79020E-10
6.87293E-11 2.57107E-10
7.23943E-11 2.37222E-10
7.61544E-11 2.19065E-10
1.18991E-10 1.05517E-10
1.71347E-10 5.72179E-11
2.33223E-10 3.43225E-11
3.04617E-10 2.22078E-11
3.85531E-10 1.51544E-11
4.75965E-10 1.07344E-11
5.75917E-10 7.82004E-12
6.85389E-10 5.82179E-12
8.04380E-10 4.41088E-12
9.32891E-10 3.38831E-12
1.07092E-09 2.63884E-12
1.21847E-09 2.08090E-12
1.37554E-09 1.65983E-12
1.54213E-09 1.33766E-12
1.71823E-09 1.08878E-12
1.90386E-09 8.94546E-13
2.09900E-09 7.41405E-13
2.30367E-09 6.19459E-13
2.51785E-09 5.21485E-13
2.74156E-09 4.42132E-13
2.97478E-09 3.77337E-13
3.21752E-09 3.24022E-13
3.46978E-09 2.79828E-13
3.73156E-09 2.42958E-13
4.00286E-09 2.12002E-13
4.28368E-09 1.85854E-13
4.57402E-09 1.63640E-13
4.87388E-09 1.44669E-13
5.18326E-09 1.28388E-13
5.50215E-09 1.14350E-13
5.83057E-09 1.02190E-13
6.16850E-09 9.16131E-14
6.51596E-09 8.23778E-14
6.87293E-09 7.42838E-14
7.23942E-09 6.71645E-14
7.61544E-09 6.08807E-14
1.18991E-08 2.55732E-14
1.71347E-08 1.25422E-14
2.33223E-08 6.84446E-15
3.04617E-08 4.04085E-15
3.85531E-08 2.53464E-15
4.75965E-08 1.66833E-15
5.75917E-08 1.14203E-15
6.85389E-08 8.07621E-16
8.04380E-08 5.87022E-16
9.32891E-08 4.36798E-16
1.07092E-07 3.31666E-16
1.21847E-07 2.56327E-16
1.37554E-07 2.01206E-16
1.54213E-07 1.60130E-16
1.71823E-07 1.29017E-16
1.90386E-07 1.05105E-16
2.09900E-07 8.64826E-17
2.30367E-07 7.18072E-17
2.51785E-07 6.01160E-17
2.74156E-07 5.07099E-17
2.97478E-07 4.30732E-17
3.21752E-07 3.68213E-17
3.46978E-07 3.16634E-17
3.73156E-07 2.73778E-17
4.00286E-07 2.37931E-17
4.28368E-07 2.07758E-17
4.57402E-07 1.82218E-17
4.87388E-07 1.60486E-17
5.18325E-07 1.41898E-17
5.50215E-07 1.25926E-17
5.83057E-07 1.12138E-17
6.16850E-07 1.00187E-17
6.51596E-07 8.97870E-18
6.87293E-07 8.07017E-18
7.23942E-07 7.27369E-18
7.61543E-07 6.57310E-18
1.18991E-06 2.69212E-18
1.71347E-06 1.29817E-18
2.33223E-06 7.00662E-19
3.04617E-06 4.10679E-19
3.85531E-06 2.56363E-19
4.75964E-06 1.68185E-19
5.75916E-06 1.14863E-19
6.85388E-06 8.10935E-20
8.04378E-06 5.88708E-20
9.32888E-06 4.37646E-20
1.07092E-05 3.32072E-20
1.21846E-05 2.56495E-20
1.37553E-05 2.01245E-20
1.54212E-05 1.60101E-20
1.71822E-05 1.28953E-20
1.90385E-05 1.05019E-20
2.09899E-05 8.63968E-21
2.30365E-05 7.17236E-21
2.51783E-05 6.00355E-21
2.74153E-05 5.06327E-21
2.97475E-05 4.29998E-21
3.21749E-05 3.67522E-21
3.46974E-05 3.15992E-21
3.73152E-05 2.73187E-21
4.00281E-05 2.37392E-21
4.28362E-05 2.07273E-21
4.57395E-05 1.81782E-21
4.87380E-05 1.60090E-21
5.18317E-05 1.41537E-21
5.50205E-05 1.25594E-21
5.83045E-05 1.11833E-21
6.16838E-05 9.99058E-22
6.51582E-05 8.95270E-22
6.87277E-05 8.04617E-22
7.23925E-05 7.25154E-22
7.61524E-05 6.47600E-22
9.21439E-05 4.40958E-22
1.09658E-04 3.10291E-22
1.28695E-04 2.24452E-22
1.49255E-04 1.66207E-22
1.71338E-04 1.25584E-22
1.94942E-04 9.65662E-23
2.20070E-04 7.54018E-23
2.46720E-04 5.96800E-23
2.74892E-04 4.78091E-23
3.04586E-04 3.87151E-23
3.35803E-04 3.16566E-23
3.68542E-04 2.61131E-23
4.02802E-04 2.17126E-23
4.38585E-04 1.81852E-23
4.75889E-04 1.53324E-23
5.14715E-04 1.30062E-23
5.55063E-04 1.10950E-23
5.96931E-04 9.51380E-24
6.40321E-04 8.19716E-24
6.85233E-04 7.09424E-24
7.31665E-04 6.16515E-24
7.79618E-04 5.37843E-24
8.29092E-04 4.70901E-24
8.80086E-04 4.13680E-24
9.32601E-04 3.64558E-24
9.86636E-04 3.22219E-24
1.04219E-03 2.85589E-24
1.09927E-03 2.53785E-24
1.15786E-03 2.26077E-24
1.21797E-03 2.01861E-24
1.27961E-03 1.80633E-24
1.34276E-03 1.61972E-24
1.40743E-03 1.45523E-24
1.47362E-03 1.30985E-24
1.54133E-03 1.18107E-24
1.61056E-03 1.06671E-24
1.68131E-03 9.64942E-25
1.75357E-03 8.74185E-25
1.82735E-03 7.93087E-25
1.90265E-03 7.20480E-25
1.97947E-03 6.55359E-25
2.05780E-03 5.96848E-25
2.13765E-03 5.44190E-25
2.21902E-03 4.96723E-25
2.30190E-03 4.53872E-25
2.38630E-03 4.15131E-25
2.47222E-03 3.80057E-25
2.55965E-03 3.48260E-25
2.64859E-03 3.19398E-25
2.73905E-03 2.93168E-25
2.83103E-03 2.69303E-25
2.92452E-03 2.47563E-25
3.01952E-03 2.27739E-25
3.11604E-03 2.09644E-25
3.21407E-03 1.93110E-25
3.31362E-03 1.77988E-25
3.41468E-03 1.64146E-25
3.51725E-03 1.51463E-25
3.62133E-03 1.39834E-25
3.72692E-03 1.29161E-25
3.83403E-03 1.19359E-25
3.94265E-03 1.10351E-25
4.05278E-03 1.02065E-25
4.16442E-03 9.44396E-26
4.27757E-03 8.74167E-26
4.39223E-03 8.09450E-26
4.50840E-03 7.49777E-26
4.62608E-03 6.94723E-26
4.74527E-03 6.43903E-26
4.86597E-03 5.96967E-26
4.98817E-03 5.53597E-26
5.11188E-03 5.13503E-26
5.23711E-03 4.76421E-26
5.36383E-03 4.42109E-26
5.49207E-03 4.10348E-26
5.62181E-03 3.80936E-26
5.75306E-03 3.53690E-26
5.88581E-03 3.28441E-26
6.02007E-03 3.05035E-26
6.15583E-03 2.83331E-26
6.29310E-03 2.63198E-26
6.43187E-03 2.44518E-26
6.57214E-03 2.27182E-26
6.71392E-03 2.11088E-26
6.85720E-03 1.96144E-26
7.00198E-03 1.82265E-26
7.14827E-03 1.69372E-26
7.29605E-03 1.57394E-26
7.44534E-03 1.46262E-26
7.59612E-03 1.35917E-26
7.97965E-03 1.13127E-26
8.37255E-03 9.41267E-27
8.77480E-03 7.82772E-27
9.18641E-03 6.50510E-27
9.60736E-03 5.40120E-27
1.00376E-02 4.47987E-27
1.04773E-02 3.71108E-27
1.09262E-02 3.06982E-27
1.13844E-02 2.53525E-27
1.18520E-02 2.08996E-27
1.23288E-02 1.71938E-27
1.28150E-02 1.41135E-27
1.33104E-02 1.15565E-27
1.38150E-02 9.43713E-28
1.43290E-02 7.68369E-28
1.48521E-02 6.23587E-28
1.53845E-02 5.04309E-28
1.59262E-02 4.06290E-28
1.64770E-02 3.25964E-28
1.70371E-02 2.60342E-28
1.76063E-02 2.06917E-28
1.81848E-02 1.63589E-28
1.87724E-02 1.28598E-28
1.93692E-02 1.00474E-28
1.99751E-02 7.79891E-29
2.05901E-02 6.01194E-29
2.12143E-02 4.60127E-29
2.18476E-02 3.49613E-29
2.24900E-02 2.63788E-29
2.31415E-02 1.97808E-29
2.38021E-02 1.47679E-29
2.44717E-02 1.10124E-29
2.51504E-02 8.24629E-30
2.58382E-02 6.25114E-30
2.65349E-02 4.85011E-30
2.72407E-02 3.90065E-30
2.79555E-02 3.28869E-30
2.86793E-02 2.92358E-30
2.94120E-02 2.73396E-30
3.01537E-02 2.66422E-30
3.09043E-02 2.67161E-30
3.16639E-02 2.72373E-30
3.24324E-02 2.79658E-30
3.32098E-02 2.87281E-30
3.39961E-02 2.94034E-30
3.47912E-02 2.99125E-30
3.55952E-02 3.02078E-30
3.64081E-02 3.02662E-30
3.72297E-02 3.00825E-30
3.80602E-02 2.96647E-30
3.88995E-02 2.90297E-30
3.97476E-02 2.82006E-30
4.06044E-02 2.72039E-30
4.14700E-02 2.60676E-30
4.23443E-02 2.48200E-30
4.32273E-02 2.34887E-30
4.41190E-02 2.20993E-30
4.50194E-02 2.06758E-30
4.59284E-02 1.92396E-30
4.68461E-02 1.78094E-30
4.87074E-02 1.50297E-30
5.06030E-02 1.24373E-30
5.25328E-02 1.00962E-30
5.44967E-02 8.04017E-31
5.64946E-02 6.27926E-31
5.85262E-02 4.80582E-31
6.05914E-02 3.60019E-31
6.26901E-02 2.63532E-31
6.48222E-02 1.88039E-31
6.69873E-02 1.30366E-31
6.91854E-02 8.74377E-32
7.14163E-02 5.64131E-32
7.36799E-02 3.47597E-32
7.59760E-02 2.02908E-32
7.83043E-02 1.11707E-32
8.06647E-02 5.89909E-33
8.30571E-02 3.28289E-33
8.54812E-02 2.39930E-33
8.79369E-02 2.55658E-33
9.04240E-02 3.25470E-33
9.29422E-02 4.14824E-33
9.54915E-02 5.01293E-33
9.80716E-02 5.71643E-33
1.00682E-01 6.19374E-33
1.03323E-01 6.42686E-33
1.05995E-01 6.42879E-33
1.08696E-01 6.23105E-33
1.11427E-01 5.87442E-33
1.14188E-01 5.40237E-33
1.16978E-01 4.85653E-33
1.19797E-01 4.27399E-33
1.22645E-01 3.68581E-33
1.25522E-01 3.11644E-33
1.28428E-01 2.58389E-33
1.31361E-01 2.10028E-33
1.34323E-01 1.67257E-33
1.37313E-01 1.30351E-33
1.40330E-01 9.92549E-34
1.43375E-01 7.36701E-34
1.46447E-01 5.31302E-34
1.49545E-01 3.70684E-34
1.52671E-01 2.48707E-34
1.55823E-01 1.59179E-34
1.59001E-01 9.61663E-35
1.62205E-01 5.42055E-35
1.65435E-01 2.84342E-35
1.68690E-01 1.46572E-35
1.71970E-01 9.36063E-36
1.75276E-01 9.68819E-36
1.78606E-01 1.33919E-35
1.81961E-01 1.87652E-35
1.85340E-01 2.45703E-35
1.88743E-01 2.99601E-35
1.92169E-01 3.44049E-35
1.95619E-01 3.76231E-35
1.99092E-01 3.95197E-35
2.02589E-01 4.01336E-35
2.06107E-01 3.95923E-35
2.09649E-01 3.80764E-35
2.13212E-01 3.57919E-35
2.16797E-01 3.29482E-35
2.20404E-01 2.97441E-35
2.24032E-01 2.63574E-35
2.27680E-01 2.29397E-35
2.31350E-01 1.96138E-35
2.35040E-01 1.64737E-35
2.38751E-01 1.35861E-35
2.42481E-01 1.09937E-35
2.46231E-01 8.71814E-36
2.50000E-01 6.76412E-36
2.53788E-01 5.12263E-36
2.57595E-01 3.77490E-36
2.61421E-01 2.69510E-36
2.65264E-01 1.85325E-36
2.69126E-01 1.21739E-36
2.73005E-01 7.55442E-37
2.76901E-01 4.36505E-37
2.80814E-01 2.31890E-37
2.84744E-01 1.15794E-37
2.88691E-01 6.56009E-38
2.92653E-01 6.20715E-38
2.96632E-01 8.92757E-38
3.00625E-01 1.34406E-37
3.04634E-01 1.87549E-37
3.08658E-01 2.41289E-37
3.12697E-01 2.90403E-37
3.16749E-01 3.31512E-37
3.20816E-01 3.62693E-37
3.24896E-01 3.83179E-37
3.28990E-01 3.93103E-37
3.33097E-01 3.93207E-37
3.37216E-01 3.84637E-37
3.41348E-01 3.68822E-37
3.45492E-01 3.47279E-37
3.49647E-01 3.21489E-37
3.53814E-01 2.92907E-37
3.57992E-01 2.62806E-37
3.62181E-01 2.32312E-37
3.66381E-01 2.02372E-37
3.70590E-01 1.73714E-37
3.74810E-01 1.46903E-37
3.79039E-01 1.22328E-37
3.83277E-01 1.00228E-37
3.87524E-01 8.07117E-38
3.91780E-01 6.37824E-38
3.96044E-01 4.93646E-38
4.00316E-01 3.73133E-38
4.04596E-01 2.74451E-38
4.08882E-01 1.95434E-38
4.13176E-01 1.33806E-38
4.17476E-01 8.72351E-39
4.21783E-01 5.34244E-39
4.26095E-01 3.01936E-39
4.30413E-01 1.00000E-45
4.34737E-01 1.00000E-45
4.39065E-01 1.00000E-45
4.43398E-01 1.00000E-45
4.47736E-01 1.00000E-45
4.52077E-01 1.00000E-45
4.56422E-01 1.00000E-45
4.60770E-01 1.00000E-45
4.65122E-01 1.00000E-45
4.69476E-01 1.00000E-45
4.73832E-01 1.00000E-45
4.78190E-01 1.00000E-45
4.82550E-01 1.00000E-45
4.86912E-01 1.00000E-45
4.91274E-01 1.00000E-45
4.95637E-01 1.00000E-45
5.00000E-01 1.00000E-45
5.04363E-01 1.00000E-45
5.08726E-01 1.00000E-45
5.13088E-01 1.00000E-45
5.17450E-01 1.00000E-45
5.21810E-01 1.00000E-45
5.26168E-01 1.00000E-45
5.30524E-01 1.00000E-45
5.34878E-01 1.00000E-45
5.39230E-01 1.00000E-45
5.43578E-01 1.00000E-45
5.47923E-01 1.00000E-45
5.52264E-01 1.00000E-45
5.56602E-01 1.00000E-45
5.60935E-01 1.00000E-45
5.65263E-01 1.00000E-45
5.69587E-01 1.00000E-45
5.73905E-01 1.00000E-45
5.78217E-01 1.00000E-45
5.82524E-01 1.00000E-45
5.86824E-01 1.00000E-45
5.91118E-01 1.00000E-45
5.95404E-01 1.00000E-45
5.99684E-01 1.00000E-45
6.03956E-01 1.00000E-45
6.08220E-01 1.00000E-45
6.12476E-01 1.00000E-45
6.16723E-01 1.00000E-45
6.20961E-01 1.00000E-45
6.25190E-01 1.00000E-45
6.29410E-01 1.00000E-45
6.33619E-01 1.00000E-45
6.37819E-01 1.00000E-45
6.42008E-01 1.00000E-45
6.46186E-01 1.00000E-45
6.50353E-01 1.00000E-45
6.54508E-01 1.00000E-45
6.58652E-01 1.00000E-45
6.62784E-01 1.00000E-45
6.66903E-01 1.00000E-45
6.71010E-01 1.00000E-45
6.75104E-01 1.00000E-45
6.79184E-01 1.00000E-45
6.83251E-01 1.00000E-45
6.87303E-01 1.00000E-45
6.91342E-01 1.00000E-45
6.95366E-01 1.00000E-45
6.99375E-01 1.00000E-45
7.03368E-01 1.00000E-45
7.07347E-01 1.00000E-45
7.11309E-01 1.00000E-45
7.15256E-01 1.00000E-45
7.19186E-01 1.00000E-45
7.23099E-01 1.00000E-45
7.26995E-01 1.00000E-45
7.30874E-01 1.00000E-45
7.34736E-01 1.00000E-45
7.38579E-01 1.00000E-45
7.42405E-01 1.00000E-45
7.46212E-01 1.00000E-45
7.50000E-01 1.00000E-45
7.53769E-01 1.00000E-45
7.57519E-01 1.00000E-45
7.61249E-01 1.00000E-45
7.64960E-01 1.00000E-45
7.68650E-01 1.00000E-45
7.72320E-01 1.00000E-45
7.75968E-01 1.00000E-45
7.79596E-01 1.00000E-45
7.83203E-01 1.00000E-45
7.86788E-01 1.00000E-45
7.90351E-01 1.00000E-45
7.93893E-01 1.00000E-45
7.97411E-01 1.00000E-45
8.00908E-01 1.00000E-45
8.04381E-01 1.00000E-45
8.07831E-01 1.00000E-45
8.11257E-01 1.00000E-45
8.14660E-01 1.00000E-45
8.18039E-01 1.00000E-45
8.21394E-01 1.00000E-45
8.24724E-01 1.00000E-45
8.28030E-01 1.00000E-45
8.31310E-01 1.00000E-45
8.34565E-01 1.00000E-45
8.37795E-01 1.00000E-45
8.40999E-01 1.00000E-45
8.44177E-01 1.00000E-45
8.47329E-01 1.00000E-45
8.50455E-01 1.00000E-45
8.53553E-01 1.00000E-45
8.56625E-01 1.00000E-45
8.59670E-01 1.00000E-45
8.62687E-01 1.00000E-45
8.65677E-01 1.00000E-45
8.68639E-01 1.00000E-45
8.71572E-01 1.00000E-45
8.74478E-01 1.00000E-45
8.77355E-01 1.00000E-45
8.80203E-01 1.00000E-45
8.83022E-01 1.00000E-45
8.85812E-01 1.00000E-45
8.88573E-01 1.00000E-45
8.91304E-01 1.00000E-45
8.94005E-01 1.00000E-45
8.96677E-01 1.00000E-45
8.99318E-01 1.00000E-45
9.01928E-01 1.00000E-45
9.04508E-01 1.00000E-45
9.07058E-01 1.00000E-45
9.09576E-01 1.00000E-45
9.12063E-01 1.00000E-45
9.14519E-01 1.00000E-45
9.16943E-01 1.00000E-45
9.19335E-01 1.00000E-45
9.21696E-01 1.00000E-45
9.24024E-01 1.00000E-45
9.26320E-01 1.00000E-45
9.28584E-01 1.00000E-45
9.30815E-01 1.00000E-45
9.33013E-01 1.00000E-45
9.35178E-01 1.00000E-45
9.37310E-01 1.00000E-45
9.39409E-01 1.00000E-45
9.41474E-01 1.00000E-45
9.43505E-01 1.00000E-45
9.45503E-01 1.00000E-45
9.47467E-01 1.00000E-45
9.49397E-01 1.00000E-45
9.51293E-01 1.00000E-45
9.53154E-01 1.00000E-45
9.54981E-01 1.00000E-45
9.56773E-01 1.00000E-45
9.58530E-01 1.00000E-45
9.60252E-01 1.00000E-45
9.61940E-01 1.00000E-45
9.63592E-01 1.00000E-45
9.65209E-01 1.00000E-45
9.66790E-01 1.00000E-45
9.68336E-01 1.00000E-45
9.69846E-01 1.00000E-45
9.71321E-01 1.00000E-45
9.72759E-01 1.00000E-45
9.74162E-01 1.00000E-45
9.75528E-01 1.00000E-45
9.76858E-01 1.00000E-45
9.78152E-01 1.00000E-45
9.79410E-01 1.00000E-45
9.80631E-01 1.00000E-45
9.81815E-01 1.00000E-45
9.82963E-01 1.00000E-45
9.84074E-01 1.00000E-45
9.85148E-01 1.00000E-45
9.86185E-01 1.00000E-45
9.87185E-01 1.00000E-45
9.88148E-01 1.00000E-45
9.89074E-01 1.00000E-45
9.89962E-01 1.00000E-45
9.90814E-01 1.00000E-45
9.91627E-01 1.00000E-45
9.92404E-01 1.00000E-45
9.93143E-01 1.00000E-45
9.93844E-01 1.00000E-45
9.94508E-01 1.00000E-45
9.95134E-01 1.00000E-45
9.95722E-01 1.00000E-45
9.96273E-01 1.00000E-45
9.96786E-01 1.00000E-45
9.97261E-01 1.00000E-45
9.97698E-01 1.00000E-45
9.98097E-01 1.00000E-45
9.98459E-01 1.00000E-45
9.98782E-01 1.00000E-45
9.99067E-01 1.00000E-45
9.99315E-01 1.00000E-45
9.99524E-01 1.00000E-45
9.99695E-01 1.00000E-45
9.99829E-01 1.00000E-45
9.99924E-01 1.00000E-45
9.99981E-01 1.00000E-45
1.00000E+00 1.00000E-45
