 #  Total cross section table (last run of 'elscata').
 #
 #  Z =  19,   projectile: positron
 #
 #   Energy         ECS         TCS1         TCS2         ABSCS      error
 #    (eV)        (cm**2)      (cm**2)      (cm**2)      (cm**2)
 #--------------------------------------------------------------------------
   1.00000E+02  7.03398E-16  4.14846E-17  6.99989E-17  1.20963E-15  4.4E-06
   1.25000E+02  4.81164E-16  3.59754E-17  6.12529E-17  1.00765E-15  2.2E-05
   1.50000E+02  3.69801E-16  3.25398E-17  5.67644E-17  8.65523E-16  1.8E-05
   1.75000E+02  3.10887E-16  2.97275E-17  5.30124E-17  7.60382E-16  4.4E-06
   2.00000E+02  2.75421E-16  2.73434E-17  4.97027E-17  6.79088E-16  9.7E-06
   2.50000E+02  2.35944E-16  2.35234E-17  4.41158E-17  5.60939E-16  1.9E-05
   3.00000E+02  2.14500E-16  2.06398E-17  3.96522E-17  4.78655E-16  5.4E-06
   3.50000E+02  2.00838E-16  1.84404E-17  3.60835E-17  4.17673E-16  8.8E-06
   4.00000E+02  1.91027E-16  1.66982E-17  3.31396E-17  3.70566E-16  4.7E-06
   4.50000E+02  1.83296E-16  1.52589E-17  3.06276E-17  3.33069E-16  2.1E-05
   5.00000E+02  1.76745E-16  1.40393E-17  2.84413E-17  3.02506E-16  1.2E-05
   6.00000E+02  1.65907E-16  1.20491E-17  2.47706E-17  2.55717E-16  3.4E-05
   7.00000E+02  1.56820E-16  1.04978E-17  2.18204E-17  2.21570E-16  2.0E-05
   8.00000E+02  1.48898E-16  9.26107E-18  1.94128E-17  1.95540E-16  6.3E-05
   9.00000E+02  1.41860E-16  8.25613E-18  1.74216E-17  1.75036E-16  7.8E-05
   1.00000E+03  1.35541E-16  7.42730E-18  1.57567E-17  1.58460E-16  4.7E-05
   1.25000E+03  1.22183E-16  5.88223E-18  1.26050E-17  1.28219E-16  5.4E-05
   1.50000E+03  1.11453E-16  4.82118E-18  1.04096E-17  1.07742E-16  4.1E-02
   1.75000E+03  1.02616E-16  4.05013E-18  8.80203E-18  9.29527E-17  4.5E-02
   2.00000E+03  9.52010E-17  3.46744E-18  7.58069E-18  8.17628E-17  2.9E-02
   2.50000E+03  8.34224E-17  2.65055E-18  5.85781E-18  6.59447E-17  4.4E-02
   3.00000E+03  7.44504E-17  2.11051E-18  4.70939E-18  5.52909E-17  4.5E-02
   3.50000E+03  6.73627E-17  1.73095E-18  3.89552E-18  4.76221E-17  4.3E-02
   4.00000E+03  6.16045E-17  1.45188E-18  3.29221E-18  4.18360E-17  4.4E-02
   4.50000E+03  5.68224E-17  1.23953E-18  2.82947E-18  3.73143E-17  2.6E-02
   5.00000E+03  5.27795E-17  1.07340E-18  2.46478E-18  3.36834E-17  1.0E+00
   6.00000E+03  4.62984E-17  8.32059E-19  1.93000E-18  2.82149E-17  1.0E+00
   7.00000E+03  4.13142E-17  6.67065E-19  1.56026E-18  2.42930E-17  8.4E-02
   8.00000E+03  3.73508E-17  5.48527E-19  1.29211E-18  2.13432E-17  1.0E+00
   9.00000E+03  3.41184E-17  4.60150E-19  1.09054E-18  1.90441E-17  1.0E+00
   1.00000E+04  3.14286E-17  3.92308E-19  9.34702E-19  1.72018E-17  1.0E+00
   1.25000E+04  2.67340E-17  2.77930E-19  6.69364E-19  1.38789E-17  1.0E-07
   1.50000E+04  2.30180E-17  2.08392E-19  5.06102E-19  1.16586E-17  1.3E-07
   1.75000E+04  2.02549E-17  1.62719E-19  3.97870E-19  1.00701E-17  4.4E-07
   2.00000E+04  1.81173E-17  1.30988E-19  3.22112E-19  8.87699E-18  1.2E-06
   2.50000E+04  1.50224E-17  9.07293E-20  2.25175E-19  7.20766E-18  1.0E-07
   3.00000E+04  1.28873E-17  6.69603E-20  1.67402E-19  6.09272E-18  1.0E-07
   3.50000E+04  1.13243E-17  5.16833E-20  1.29996E-19  5.29593E-18  1.1E-05
   4.00000E+04  1.01303E-17  4.12458E-20  1.04284E-19  4.69817E-18  1.1E-05
   4.50000E+04  9.18825E-18  3.37781E-20  8.57934E-20  4.23322E-18  6.7E-06
   5.00000E+04  8.42596E-18  2.82386E-20  7.20157E-20  3.86124E-18  8.8E-06
   6.00000E+04  7.26787E-18  2.06994E-20  5.31608E-20  3.30341E-18  4.9E-05
   7.00000E+04  6.42983E-18  1.59159E-20  4.11191E-20  2.90504E-18  1.9E-04
   8.00000E+04  5.79544E-18  1.26781E-20  3.29235E-20  2.60625E-18  5.4E-04
   9.00000E+04  5.29869E-18  1.03774E-20  2.70720E-20  2.37368E-18  1.3E-03
   1.00000E+05  4.89929E-18  8.67948E-21  2.27352E-20  2.18724E-18  2.7E-03
   1.25000E+05  4.17645E-18  5.95701E-21  1.57397E-20  1.84859E-18  1.1E-02
   1.50000E+05  3.69249E-18  4.39169E-21  1.16861E-20  1.61608E-18  3.0E-02
   1.75000E+05  3.34644E-18  3.40179E-21  9.10589E-21  1.44062E-18  6.4E-02
   2.00000E+05  3.08716E-18  2.73200E-21  7.35032E-21  1.36195E-18  2.2E-05
   2.50000E+05  2.72564E-18  1.90237E-21  5.16104E-21  1.19929E-18  2.8E-05
   3.00000E+05  2.48671E-18  1.42159E-21  3.88210E-21  1.09220E-18  1.5E-07
   3.50000E+05  2.31794E-18  1.11468E-21  3.06021E-21  1.01672E-18  6.5E-07
   4.00000E+05  2.19296E-18  9.04911E-22  2.49529E-21  9.61080E-19  1.0E-07
   4.50000E+05  2.09711E-18  7.54087E-22  2.08712E-21  9.18406E-19  1.0E-07
   5.00000E+05  2.02155E-18  6.41319E-22  1.78063E-21  8.84805E-19  1.0E-07
   6.00000E+05  1.91077E-18  4.85563E-22  1.35509E-21  8.35588E-19  1.0E-07
   7.00000E+05  1.83417E-18  3.84371E-22  1.07693E-21  8.01590E-19  1.0E-07
   8.00000E+05  1.77861E-18  3.14136E-22  8.82922E-22  7.76943E-19  1.0E-07
   9.00000E+05  1.73680E-18  2.62962E-22  7.40991E-22  7.58407E-19  1.0E-07
   1.00000E+06  1.70444E-18  2.24268E-22  6.33308E-22  7.44067E-19  1.0E-07
   1.25000E+06  1.65086E-18  1.60539E-22  4.55156E-22  0.00000E+00  1.0E-05
   1.50000E+06  1.61648E-18  1.21461E-22  3.45359E-22  0.00000E+00  1.0E-05
   1.75000E+06  1.59333E-18  9.57319E-23  2.72796E-22  0.00000E+00  1.0E-05
   2.00000E+06  1.57712E-18  7.77413E-23  2.21912E-22  0.00000E+00  1.0E-05
   2.50000E+06  1.55628E-18  5.46453E-23  1.56386E-22  0.00000E+00  1.0E-05
   3.00000E+06  1.54431E-18  4.07782E-23  1.16919E-22  0.00000E+00  1.0E-05
   3.50000E+06  1.53676E-18  3.17292E-23  9.11053E-23  0.00000E+00  1.0E-05
   4.00000E+06  1.53159E-18  2.54658E-23  7.32064E-23  0.00000E+00  1.0E-05
   4.50000E+06  1.52819E-18  2.09354E-23  6.02415E-23  0.00000E+00  1.0E-05
   5.00000E+06  1.52561E-18  1.75433E-23  5.05231E-23  0.00000E+00  1.0E-05
   6.00000E+06  1.52233E-18  1.28791E-23  3.71414E-23  0.00000E+00  1.0E-05
   7.00000E+06  1.52048E-18  9.88696E-24  2.85439E-23  0.00000E+00  1.0E-05
   8.00000E+06  1.51894E-18  7.84623E-24  2.26730E-23  0.00000E+00  1.0E-05
   9.00000E+06  1.51779E-18  6.38876E-24  1.84759E-23  0.00000E+00  1.0E-05
   1.00000E+07  1.51712E-18  5.30969E-24  1.53659E-23  0.00000E+00  1.0E-05
   1.25000E+07  1.51618E-18  3.57592E-24  1.03633E-23  0.00000E+00  1.0E-05
   1.50000E+07  1.51547E-18  2.58062E-24  7.48761E-24  0.00000E+00  1.0E-05
   1.75000E+07  1.51450E-18  1.95458E-24  5.67693E-24  0.00000E+00  1.0E-05
   2.00000E+07  1.51423E-18  1.53426E-24  4.46020E-24  0.00000E+00  1.0E-05
   2.50000E+07  1.51343E-18  1.02076E-24  2.97227E-24  0.00000E+00  1.0E-05
   3.00000E+07  1.51297E-18  7.29740E-25  2.12806E-24  0.00000E+00  1.0E-05
   3.50000E+07  1.51270E-18  5.48407E-25  1.60154E-24  0.00000E+00  1.0E-05
   4.00000E+07  1.51266E-18  4.27554E-25  1.25034E-24  0.00000E+00  1.0E-05
   4.50000E+07  1.51290E-18  3.42860E-25  1.00403E-24  0.00000E+00  1.0E-05
   5.00000E+07  1.51296E-18  2.81137E-25  8.24388E-25  0.00000E+00  1.0E-05
   6.00000E+07  1.51345E-18  1.98955E-25  5.84930E-25  0.00000E+00  1.0E-05
   7.00000E+07  1.51356E-18  1.48161E-25  4.36673E-25  0.00000E+00  1.0E-05
   8.00000E+07  1.51375E-18  1.14562E-25  3.38418E-25  0.00000E+00  1.0E-05
   9.00000E+07  1.51379E-18  9.11841E-26  2.69912E-25  0.00000E+00  1.0E-05
   1.00000E+08  1.51374E-18  7.42679E-26  2.20234E-25  0.00000E+00  1.0E-05
   1.25000E+08  1.51382E-18  4.79601E-26  1.42711E-25  0.00000E+00  1.1E-05
   1.50000E+08  1.51353E-18  3.34799E-26  9.98472E-26  0.00000E+00  1.3E-05
   1.75000E+08  1.51329E-18  2.46808E-26  7.37135E-26  0.00000E+00  1.5E-05
   2.00000E+08  1.51325E-18  1.89414E-26  5.66282E-26  0.00000E+00  1.7E-05
   2.50000E+08  1.51252E-18  1.21602E-26  3.63986E-26  0.00000E+00  2.2E-05
   3.00000E+08  1.51174E-18  8.46079E-27  2.53425E-26  0.00000E+00  3.0E-04
   3.50000E+08  1.51101E-18  6.22416E-27  1.86509E-26  0.00000E+00  4.3E-04
   4.00000E+08  1.51021E-18  4.76987E-27  1.42969E-26  0.00000E+00  6.1E-04
   4.50000E+08  1.50901E-18  3.77149E-27  1.13065E-26  0.00000E+00  8.3E-04
   5.00000E+08  1.50750E-18  3.05666E-27  9.16475E-27  0.00000E+00  1.0E+00
   6.00000E+08  1.50302E-18  2.12459E-27  6.37124E-27  0.00000E+00  1.0E+00
   7.00000E+08  1.49601E-18  1.56201E-27  4.68466E-27  0.00000E+00  1.0E+00
   8.00000E+08  1.48655E-18  1.19660E-27  3.58900E-27  0.00000E+00  1.0E+00
   9.00000E+08  1.47457E-18  9.45936E-28  2.83731E-27  0.00000E+00  1.0E+00
   1.00000E+09  1.46028E-18  7.66545E-28  2.29931E-27  0.00000E+00  1.0E+00
