 #
 # Subroutine ELSEPA. Elastic scattering of electrons and positrons
 #                    by neutral atoms and positive ions
 #
 # Projectile: positron
 # Kinetic energy = 1.50000E+08 eV = 5.51240E+06 a.u.
 #
 # WARNING: High-energy factorization with free-atom DF screening.
 #          Absorption, polarization and exchange corrections are
 #          switched off.
 #          Phase shifts are calculated for the bare nucleus.
 #          Scattering amplitudes are not evaluated.
 #
 # Element: Re,  Z =  75,  atomic weight = 1.86207E+02 g/mol
 #
 # Nuclear model: Fermi distribution
 #                Average radius = 6.11011E-13 cm
 #                Skin thickness = 5.46000E-14 cm
 #
 # Number of electrons = 75
 #
 # Total elastic cross section = 7.60313E-18 cm**2 = 2.71513E-01 a0**2
 # 1st transport cross section = 4.60567E-25 cm**2 = 1.64471E-08 a0**2
 # 2nd transport cross section = 1.37564E-24 cm**2 = 4.91250E-08 a0**2
 #
 #
 # Differential cross section:                       MU=(1-COS(THETA))/2
 #
 #  THETA        MU          DCS          DCS        Sherman      error
 #  (deg)                 (cm**2/sr)   (a0**2/sr)    function
 #----------------------------------------------------------------------
0.00000E+00 1.22697E-09
7.61557E-13 1.22049E-09
1.18994E-12 1.21688E-09
1.71346E-12 1.21249E-09
2.33225E-12 1.20734E-09
3.04617E-12 1.20145E-09
3.85530E-12 1.19483E-09
4.75964E-12 1.18750E-09
5.75917E-12 1.17949E-09
6.85391E-12 1.17083E-09
8.04379E-12 1.16153E-09
9.32893E-12 1.15164E-09
1.07092E-11 1.14112E-09
1.21847E-11 1.13004E-09
1.37554E-11 1.11852E-09
1.54213E-11 1.10660E-09
1.71823E-11 1.09408E-09
1.90386E-11 1.08116E-09
2.09900E-11 1.06795E-09
2.30367E-11 1.05445E-09
2.51785E-11 1.04041E-09
2.74156E-11 1.02620E-09
2.97478E-11 1.01184E-09
3.21752E-11 9.97184E-10
3.46979E-11 9.82228E-10
3.73157E-11 9.67242E-10
4.00286E-11 9.52255E-10
4.28368E-11 9.36898E-10
4.57402E-11 9.21523E-10
4.87388E-11 9.06235E-10
5.18325E-11 8.90965E-10
5.50215E-11 8.75429E-10
5.83057E-11 8.60055E-10
6.16850E-11 8.44862E-10
6.51595E-11 8.29596E-10
6.87293E-11 8.14325E-10
7.23943E-11 7.99288E-10
7.61544E-11 7.84499E-10
1.18991E-10 6.43871E-10
1.71347E-10 5.24493E-10
2.33223E-10 4.27562E-10
3.04617E-10 3.50457E-10
3.85531E-10 2.89446E-10
4.75965E-10 2.41142E-10
5.75917E-10 2.02612E-10
6.85389E-10 1.71567E-10
8.04380E-10 1.46291E-10
9.32891E-10 1.25549E-10
1.07092E-09 1.07816E-10
1.21847E-09 9.29288E-11
1.37554E-09 8.11116E-11
1.54213E-09 7.16110E-11
1.71823E-09 6.27654E-11
1.90386E-09 5.52647E-11
2.09900E-09 4.91028E-11
2.30367E-09 4.39022E-11
2.51785E-09 3.89972E-11
2.74156E-09 3.48920E-11
2.97478E-09 3.14293E-11
3.21752E-09 2.83264E-11
3.46978E-09 2.55226E-11
3.73156E-09 2.31229E-11
4.00286E-09 2.10568E-11
4.28368E-09 1.91232E-11
4.57402E-09 1.74201E-11
4.87388E-09 1.59369E-11
5.18326E-09 1.46189E-11
5.50215E-09 1.33814E-11
5.83057E-09 1.22931E-11
6.16850E-09 1.13320E-11
6.51596E-09 1.04455E-11
6.87293E-09 9.63112E-12
7.23942E-09 8.90633E-12
7.61544E-09 8.25914E-12
1.18991E-08 4.05190E-12
1.71347E-08 2.18549E-12
2.33223E-08 1.27657E-12
3.04617E-08 7.96950E-13
3.85531E-08 5.25663E-13
4.75965E-08 3.61994E-13
5.75917E-08 2.57612E-13
6.85389E-08 1.88389E-13
8.04380E-08 1.40966E-13
9.32891E-08 1.07535E-13
1.07092E-07 8.33617E-14
1.21847E-07 6.56952E-14
1.37554E-07 5.24039E-14
1.54213E-07 4.23326E-14
1.71823E-07 3.45778E-14
1.90386E-07 2.84994E-14
2.09900E-07 2.37058E-14
2.30367E-07 1.98833E-14
2.51785E-07 1.67951E-14
2.74156E-07 1.42846E-14
2.97478E-07 1.22283E-14
3.21752E-07 1.05275E-14
3.46978E-07 9.11213E-15
3.73156E-07 7.92798E-15
4.00286E-07 6.92998E-15
4.28368E-07 6.08372E-15
4.57402E-07 5.36346E-15
4.87388E-07 4.74694E-15
5.18325E-07 4.21608E-15
5.50215E-07 3.75777E-15
5.83057E-07 3.36034E-15
6.16850E-07 3.01372E-15
6.51596E-07 2.71086E-15
6.87293E-07 2.44525E-15
7.23942E-07 2.21121E-15
7.61543E-07 2.00456E-15
1.18991E-06 8.41349E-16
1.71347E-06 4.11966E-16
2.33223E-06 2.24622E-16
3.04617E-06 1.32620E-16
3.85531E-06 8.32510E-17
4.75964E-06 5.48623E-17
5.75916E-06 3.76083E-17
6.85388E-06 2.66353E-17
8.04378E-06 1.93881E-17
9.32888E-06 1.44464E-17
1.07092E-05 1.09832E-17
1.21846E-05 8.49815E-18
1.37553E-05 6.67756E-18
1.54212E-05 5.31925E-18
1.71822E-05 4.28926E-18
1.90385E-05 3.49487E-18
2.09899E-05 2.87940E-18
2.30365E-05 2.39316E-18
2.51783E-05 2.00472E-18
2.74153E-05 1.69148E-18
2.97475E-05 1.43685E-18
3.21749E-05 1.22832E-18
3.46974E-05 1.05637E-18
3.73152E-05 9.13580E-19
4.00281E-05 7.94205E-19
4.28362E-05 6.93735E-19
4.57395E-05 6.08646E-19
4.87380E-05 5.36171E-19
5.18317E-05 4.74125E-19
5.50205E-05 4.20767E-19
5.83045E-05 3.74693E-19
6.16838E-05 3.34754E-19
6.51582E-05 3.00003E-19
6.87277E-05 2.69654E-19
7.23925E-05 2.43052E-19
7.61524E-05 2.19823E-19
9.21439E-05 1.50152E-19
1.09658E-04 1.06006E-19
1.28695E-04 7.69559E-20
1.49255E-04 5.72013E-20
1.71338E-04 4.33971E-20
1.94942E-04 3.35143E-20
2.20070E-04 2.62901E-20
2.46720E-04 2.09108E-20
2.74892E-04 1.68387E-20
3.04586E-04 1.37108E-20
3.35803E-04 1.12762E-20
3.68542E-04 9.35832E-21
4.02802E-04 7.83111E-21
4.38585E-04 6.60286E-21
4.75889E-04 5.60601E-21
5.14715E-04 4.79022E-21
5.55063E-04 4.11740E-21
5.96931E-04 3.55853E-21
6.40321E-04 3.09122E-21
6.85233E-04 2.69805E-21
7.31665E-04 2.36537E-21
7.79618E-04 2.08232E-21
8.29092E-04 1.84031E-21
8.80086E-04 1.63238E-21
9.32601E-04 1.45295E-21
9.86636E-04 1.29746E-21
1.04219E-03 1.16217E-21
1.09927E-03 1.04403E-21
1.15786E-03 9.40501E-22
1.21797E-03 8.49413E-22
1.27961E-03 7.69054E-22
1.34276E-03 6.97943E-22
1.40743E-03 6.34834E-22
1.47362E-03 5.78670E-22
1.54133E-03 5.28557E-22
1.61056E-03 4.83727E-22
1.68131E-03 4.43529E-22
1.75357E-03 4.07400E-22
1.82735E-03 3.74855E-22
1.90265E-03 3.45479E-22
1.97947E-03 3.18907E-22
2.05780E-03 2.94825E-22
2.13765E-03 2.72959E-22
2.21902E-03 2.53069E-22
2.30190E-03 2.34946E-22
2.38630E-03 2.18403E-22
2.47222E-03 2.03279E-22
2.55965E-03 1.89432E-22
2.64859E-03 1.76733E-22
2.73905E-03 1.65071E-22
2.83103E-03 1.54346E-22
2.92452E-03 1.44470E-22
3.01952E-03 1.35363E-22
3.11604E-03 1.26954E-22
3.21407E-03 1.19182E-22
3.31362E-03 1.11988E-22
3.41468E-03 1.05322E-22
3.51725E-03 9.91393E-23
3.62133E-03 9.33975E-23
3.72692E-03 8.80600E-23
3.83403E-03 8.30930E-23
3.94265E-03 7.84665E-23
4.05278E-03 7.41527E-23
4.16442E-03 7.01269E-23
4.27757E-03 6.63663E-23
4.39223E-03 6.28504E-23
4.50840E-03 5.95604E-23
4.62608E-03 5.64792E-23
4.74527E-03 5.35912E-23
4.86597E-03 5.08820E-23
4.98817E-03 4.83388E-23
5.11188E-03 4.59494E-23
5.23711E-03 4.37029E-23
5.36383E-03 4.15893E-23
5.49207E-03 3.95993E-23
5.62181E-03 3.77243E-23
5.75306E-03 3.59566E-23
5.88581E-03 3.42889E-23
6.02007E-03 3.27146E-23
6.15583E-03 3.12275E-23
6.29310E-03 2.98218E-23
6.43187E-03 2.84925E-23
6.57214E-03 2.72345E-23
6.71392E-03 2.60434E-23
6.85720E-03 2.49149E-23
7.00198E-03 2.38453E-23
7.14827E-03 2.28309E-23
7.29605E-03 2.18684E-23
7.44534E-03 2.09545E-23
7.59612E-03 2.00866E-23
7.97965E-03 1.80998E-23
8.37255E-03 1.63457E-23
8.77480E-03 1.47926E-23
9.18641E-03 1.34138E-23
9.60736E-03 1.21866E-23
1.00376E-02 1.10917E-23
1.04773E-02 1.01126E-23
1.09262E-02 9.23505E-24
1.13844E-02 8.44692E-24
1.18520E-02 7.73764E-24
1.23288E-02 7.09809E-24
1.28150E-02 6.52035E-24
1.33104E-02 5.99751E-24
1.38150E-02 5.52354E-24
1.43290E-02 5.09318E-24
1.48521E-02 4.70180E-24
1.53845E-02 4.34533E-24
1.59262E-02 4.02018E-24
1.64770E-02 3.72318E-24
1.70371E-02 3.45153E-24
1.76063E-02 3.20275E-24
1.81848E-02 2.97462E-24
1.87724E-02 2.76517E-24
1.93692E-02 2.57266E-24
1.99751E-02 2.39551E-24
2.05901E-02 2.23232E-24
2.12143E-02 2.08182E-24
2.18476E-02 1.94291E-24
2.24900E-02 1.81454E-24
2.31415E-02 1.69582E-24
2.38021E-02 1.58592E-24
2.44717E-02 1.48408E-24
2.51504E-02 1.38964E-24
2.58382E-02 1.30199E-24
2.65349E-02 1.22058E-24
2.72407E-02 1.14489E-24
2.79555E-02 1.07447E-24
2.86793E-02 1.00892E-24
2.94120E-02 9.47844E-25
3.01537E-02 8.90903E-25
3.09043E-02 8.37780E-25
3.16639E-02 7.88186E-25
3.24324E-02 7.41859E-25
3.32098E-02 6.98557E-25
3.39961E-02 6.58057E-25
3.47912E-02 6.20157E-25
3.55952E-02 5.84669E-25
3.64081E-02 5.51422E-25
3.72297E-02 5.20258E-25
3.80602E-02 4.91031E-25
3.88995E-02 4.63607E-25
3.97476E-02 4.37863E-25
4.06044E-02 4.13683E-25
4.14700E-02 3.90963E-25
4.23443E-02 3.69604E-25
4.32273E-02 3.49516E-25
4.41190E-02 3.30616E-25
4.50194E-02 3.12826E-25
4.59284E-02 2.96074E-25
4.68461E-02 2.80294E-25
4.87074E-02 2.51403E-25
5.06030E-02 2.25709E-25
5.25328E-02 2.02825E-25
5.44967E-02 1.82419E-25
5.64946E-02 1.64198E-25
5.85262E-02 1.47911E-25
6.05914E-02 1.33334E-25
6.26901E-02 1.20275E-25
6.48222E-02 1.08565E-25
6.69873E-02 9.80526E-26
6.91854E-02 8.86082E-26
7.14163E-02 8.01158E-26
7.36799E-02 7.24731E-26
7.59760E-02 6.55901E-26
7.83043E-02 5.93866E-26
8.06647E-02 5.37917E-26
8.30571E-02 4.87426E-26
8.54812E-02 4.41831E-26
8.79369E-02 4.00635E-26
9.04240E-02 3.63392E-26
9.29422E-02 3.29707E-26
9.54915E-02 2.99225E-26
9.80716E-02 2.71629E-26
1.00682E-01 2.46635E-26
1.03323E-01 2.23988E-26
1.05995E-01 2.03462E-26
1.08696E-01 1.84850E-26
1.11427E-01 1.67969E-26
1.14188E-01 1.52653E-26
1.16978E-01 1.38754E-26
1.19797E-01 1.26136E-26
1.22645E-01 1.14680E-26
1.25522E-01 1.04276E-26
1.28428E-01 9.48245E-27
1.31361E-01 8.62381E-27
1.34323E-01 7.84357E-27
1.37313E-01 7.13448E-27
1.40330E-01 6.48996E-27
1.43375E-01 5.90406E-27
1.46447E-01 5.37139E-27
1.49545E-01 4.88707E-27
1.52671E-01 4.44668E-27
1.55823E-01 4.04620E-27
1.59001E-01 3.68199E-27
1.62205E-01 3.35075E-27
1.65435E-01 3.04949E-27
1.68690E-01 2.77549E-27
1.71970E-01 2.52626E-27
1.75276E-01 2.29958E-27
1.78606E-01 2.09339E-27
1.81961E-01 1.90585E-27
1.85340E-01 1.73527E-27
1.88743E-01 1.58012E-27
1.92169E-01 1.43900E-27
1.95619E-01 1.31064E-27
1.99092E-01 1.19390E-27
2.02589E-01 1.08772E-27
2.06107E-01 9.91159E-28
2.09649E-01 9.03336E-28
2.13212E-01 8.23464E-28
2.16797E-01 7.50826E-28
2.20404E-01 6.84767E-28
2.24032E-01 6.24692E-28
2.27680E-01 5.70057E-28
2.31350E-01 5.20371E-28
2.35040E-01 4.75185E-28
2.38751E-01 4.34089E-28
2.42481E-01 3.96713E-28
2.46231E-01 3.62718E-28
2.50000E-01 3.31795E-28
2.53788E-01 3.03666E-28
2.57595E-01 2.78076E-28
2.61421E-01 2.54792E-28
2.65264E-01 2.33603E-28
2.69126E-01 2.14319E-28
2.73005E-01 1.96765E-28
2.76901E-01 1.80782E-28
2.80814E-01 1.66226E-28
2.84744E-01 1.52967E-28
2.88691E-01 1.40884E-28
2.92653E-01 1.29871E-28
2.96632E-01 1.19828E-28
3.00625E-01 1.10667E-28
3.04634E-01 1.02305E-28
3.08658E-01 9.46710E-29
3.12697E-01 8.76963E-29
3.16749E-01 8.13207E-29
3.20816E-01 7.54892E-29
3.24896E-01 7.01516E-29
3.28990E-01 6.52628E-29
3.33097E-01 6.07816E-29
3.37216E-01 5.66706E-29
3.41348E-01 5.28960E-29
3.45492E-01 4.94272E-29
3.49647E-01 4.62364E-29
3.53814E-01 4.32983E-29
3.57992E-01 4.05902E-29
3.62181E-01 3.80913E-29
3.66381E-01 3.57829E-29
3.70590E-01 3.36481E-29
3.74810E-01 3.16714E-29
3.79039E-01 2.98389E-29
3.83277E-01 2.81381E-29
3.87524E-01 2.65574E-29
3.91780E-01 2.50865E-29
3.96044E-01 2.37161E-29
4.00316E-01 2.24376E-29
4.04596E-01 2.12434E-29
4.08882E-01 2.01265E-29
4.13176E-01 1.90806E-29
4.17476E-01 1.80999E-29
4.21783E-01 1.71793E-29
4.26095E-01 1.63141E-29
4.30413E-01 1.54999E-29
4.34737E-01 1.47329E-29
4.39065E-01 1.40096E-29
4.43398E-01 1.33268E-29
4.47736E-01 1.26815E-29
4.52077E-01 1.20711E-29
4.56422E-01 1.14931E-29
4.60770E-01 1.09455E-29
4.65122E-01 1.04261E-29
4.69476E-01 9.93319E-30
4.73832E-01 9.46499E-30
4.78190E-01 9.02000E-30
4.82550E-01 8.59680E-30
4.86912E-01 8.19409E-30
4.91274E-01 7.81069E-30
4.95637E-01 7.44548E-30
5.00000E-01 7.09746E-30
5.04363E-01 6.76569E-30
5.08726E-01 6.44929E-30
5.13088E-01 6.14747E-30
5.17450E-01 5.85946E-30
5.21810E-01 5.58458E-30
5.26168E-01 5.32218E-30
5.30524E-01 5.07164E-30
5.34878E-01 4.83240E-30
5.39230E-01 4.60391E-30
5.43578E-01 4.38569E-30
5.47923E-01 4.17727E-30
5.52264E-01 3.97818E-30
5.56602E-01 3.78802E-30
5.60935E-01 3.60639E-30
5.65263E-01 3.43290E-30
5.69587E-01 3.26721E-30
5.73905E-01 3.10898E-30
5.78217E-01 2.95788E-30
5.82524E-01 2.81361E-30
5.86824E-01 2.67586E-30
5.91118E-01 2.54438E-30
5.95404E-01 2.41888E-30
5.99684E-01 2.29911E-30
6.03956E-01 2.18483E-30
6.08220E-01 2.07581E-30
6.12476E-01 1.97182E-30
6.16723E-01 1.87265E-30
6.20961E-01 1.77810E-30
6.25190E-01 1.68796E-30
6.29410E-01 1.60205E-30
6.33619E-01 1.52018E-30
6.37819E-01 1.44219E-30
6.42008E-01 1.36790E-30
6.46186E-01 1.29716E-30
6.50353E-01 1.22981E-30
6.54508E-01 1.16570E-30
6.58652E-01 1.10469E-30
6.62784E-01 1.04665E-30
6.66903E-01 9.91444E-31
6.71010E-01 9.38944E-31
6.75104E-01 8.89030E-31
6.79184E-01 8.41586E-31
6.83251E-01 7.96502E-31
6.87303E-01 7.53671E-31
6.91342E-01 7.12989E-31
6.95366E-01 6.74358E-31
6.99375E-01 6.37684E-31
7.03368E-01 6.02877E-31
7.07347E-01 5.69848E-31
7.11309E-01 5.38516E-31
7.15256E-01 5.08800E-31
7.19186E-01 4.80625E-31
7.23099E-01 4.53915E-31
7.26995E-01 4.28603E-31
7.30874E-01 4.04619E-31
7.34736E-01 3.81901E-31
7.38579E-01 3.60387E-31
7.42405E-01 3.40018E-31
7.46212E-01 3.20737E-31
7.50000E-01 3.02491E-31
7.53769E-01 2.85229E-31
7.57519E-01 2.68901E-31
7.61249E-01 2.53461E-31
7.64960E-01 2.38864E-31
7.68650E-01 2.25067E-31
7.72320E-01 2.12030E-31
7.75968E-01 1.99713E-31
7.79596E-01 1.88080E-31
7.83203E-01 1.77095E-31
7.86788E-01 1.66724E-31
7.90351E-01 1.56935E-31
7.93893E-01 1.47699E-31
7.97411E-01 1.38985E-31
8.00908E-01 1.30766E-31
8.04381E-01 1.23015E-31
8.07831E-01 1.15709E-31
8.11257E-01 1.08821E-31
8.14660E-01 1.02331E-31
8.18039E-01 9.62165E-32
8.21394E-01 9.04566E-32
8.24724E-01 8.50323E-32
8.28030E-01 7.99249E-32
8.31310E-01 7.51170E-32
8.34565E-01 7.05919E-32
8.37795E-01 6.63338E-32
8.40999E-01 6.23277E-32
8.44177E-01 5.85594E-32
8.47329E-01 5.50155E-32
8.50455E-01 5.16832E-32
8.53553E-01 4.85504E-32
8.56625E-01 4.56057E-32
8.59670E-01 4.28382E-32
8.62687E-01 4.02376E-32
8.65677E-01 3.77943E-32
8.68639E-01 3.54991E-32
8.71572E-01 3.33433E-32
8.74478E-01 3.13186E-32
8.77355E-01 2.94174E-32
8.80203E-01 2.76322E-32
8.83022E-01 2.59562E-32
8.85812E-01 2.43829E-32
8.88573E-01 2.29060E-32
8.91304E-01 2.15198E-32
8.94005E-01 2.02187E-32
8.96677E-01 1.89976E-32
8.99318E-01 1.78516E-32
9.01928E-01 1.67761E-32
9.04508E-01 1.57668E-32
9.07058E-01 1.48195E-32
9.09576E-01 1.39304E-32
9.12063E-01 1.30960E-32
9.14519E-01 1.23128E-32
9.16943E-01 1.15776E-32
9.19335E-01 1.08874E-32
9.21696E-01 1.02394E-32
9.24024E-01 9.63087E-33
9.26320E-01 9.05938E-33
9.28584E-01 8.52256E-33
9.30815E-01 8.01822E-33
9.33013E-01 7.54428E-33
9.35178E-01 7.09883E-33
9.37310E-01 6.68003E-33
9.39409E-01 6.28618E-33
9.41474E-01 5.91570E-33
9.43505E-01 5.56709E-33
9.45503E-01 5.23896E-33
9.47467E-01 4.92999E-33
9.49397E-01 4.63896E-33
9.51293E-01 4.36473E-33
9.53154E-01 4.10622E-33
9.54981E-01 3.86245E-33
9.56773E-01 3.63248E-33
9.58530E-01 3.41543E-33
9.60252E-01 3.21050E-33
9.61940E-01 3.01694E-33
9.63592E-01 2.83402E-33
9.65209E-01 2.66109E-33
9.66790E-01 2.49755E-33
9.68336E-01 2.34282E-33
9.69846E-01 2.19637E-33
9.71321E-01 2.05771E-33
9.72759E-01 1.92638E-33
9.74162E-01 1.80196E-33
9.75528E-01 1.68404E-33
9.76858E-01 1.57227E-33
9.78152E-01 1.46629E-33
9.79410E-01 1.36581E-33
9.80631E-01 1.27052E-33
9.81815E-01 1.18015E-33
9.82963E-01 1.09446E-33
9.84074E-01 1.01321E-33
9.85148E-01 9.36192E-34
9.86185E-01 8.63207E-34
9.87185E-01 7.94072E-34
9.88148E-01 7.28625E-34
9.89074E-01 6.66706E-34
9.89962E-01 6.08171E-34
9.90814E-01 5.52897E-34
9.91627E-01 5.00758E-34
9.92404E-01 4.51649E-34
9.93143E-01 4.05467E-34
9.93844E-01 3.62117E-34
9.94508E-01 3.21521E-34
9.95134E-01 2.83600E-34
9.95722E-01 2.48283E-34
9.96273E-01 2.15506E-34
9.96786E-01 1.85217E-34
9.97261E-01 1.57357E-34
9.97698E-01 1.31887E-34
9.98097E-01 1.08758E-34
9.98459E-01 8.79394E-35
9.98782E-01 6.93920E-35
9.99067E-01 5.30936E-35
9.99315E-01 3.90160E-35
9.99524E-01 2.71385E-35
9.99695E-01 1.74439E-35
9.99829E-01 9.91889E-36
9.99924E-01 4.55077E-36
9.99981E-01 1.33373E-36
1.00000E+00 2.61607E-37
