 #
 # Subroutine ELSEPA. Elastic scattering of electrons and positrons
 #                    by neutral atoms and positive ions
 #
 # Projectile: positron
 # Kinetic energy = 5.00000E+07 eV = 1.83747E+06 a.u.
 #
 # WARNING: High-energy factorization with free-atom DF screening.
 #          Absorption, polarization and exchange corrections are
 #          switched off.
 #          Phase shifts are calculated for the bare nucleus.
 #          Scattering amplitudes are not evaluated.
 #
 # Element: Re,  Z =  75,  atomic weight = 1.86207E+02 g/mol
 #
 # Nuclear model: Fermi distribution
 #                Average radius = 6.11011E-13 cm
 #                Skin thickness = 5.46000E-14 cm
 #
 # Number of electrons = 75
 #
 # Total elastic cross section = 7.60074E-18 cm**2 = 2.71427E-01 a0**2
 # 1st transport cross section = 3.83462E-24 cm**2 = 1.36937E-07 a0**2
 # 2nd transport cross section = 1.12582E-23 cm**2 = 4.02039E-07 a0**2
 #
 #
 # Differential cross section:                       MU=(1-COS(THETA))/2
 #
 #  THETA        MU          DCS          DCS        Sherman      error
 #  (deg)                 (cm**2/sr)   (a0**2/sr)    function
 #----------------------------------------------------------------------
0.00000E+00 1.38187E-10
7.61557E-13 1.38104E-10
1.18994E-12 1.38058E-10
1.71346E-12 1.38001E-10
2.33225E-12 1.37934E-10
3.04617E-12 1.37857E-10
3.85530E-12 1.37770E-10
4.75964E-12 1.37673E-10
5.75917E-12 1.37565E-10
6.85391E-12 1.37448E-10
8.04379E-12 1.37320E-10
9.32893E-12 1.37183E-10
1.07092E-11 1.37036E-10
1.21847E-11 1.36878E-10
1.37554E-11 1.36712E-10
1.54213E-11 1.36535E-10
1.71823E-11 1.36349E-10
1.90386E-11 1.36153E-10
2.09900E-11 1.35947E-10
2.30367E-11 1.35732E-10
2.51785E-11 1.35508E-10
2.74156E-11 1.35275E-10
2.97478E-11 1.35032E-10
3.21752E-11 1.34780E-10
3.46979E-11 1.34519E-10
3.73157E-11 1.34249E-10
4.00286E-11 1.33971E-10
4.28368E-11 1.33683E-10
4.57402E-11 1.33388E-10
4.87388E-11 1.33083E-10
5.18325E-11 1.32770E-10
5.50215E-11 1.32449E-10
5.83057E-11 1.32120E-10
6.16850E-11 1.31782E-10
6.51595E-11 1.31437E-10
6.87293E-11 1.31083E-10
7.23943E-11 1.30722E-10
7.61544E-11 1.30354E-10
1.18991E-10 1.26264E-10
1.71347E-10 1.21566E-10
2.33223E-10 1.16392E-10
3.04617E-10 1.10881E-10
3.85531E-10 1.05166E-10
4.75965E-10 9.93652E-11
5.75917E-10 9.35813E-11
6.85389E-10 8.78996E-11
8.04380E-10 8.23807E-11
9.32891E-10 7.70741E-11
1.07092E-09 7.20240E-11
1.21847E-09 6.72524E-11
1.37554E-09 6.27704E-11
1.54213E-09 5.85802E-11
1.71823E-09 5.46772E-11
1.90386E-09 5.10523E-11
2.09900E-09 4.76929E-11
2.30367E-09 4.45841E-11
2.51785E-09 4.17103E-11
2.74156E-09 3.90550E-11
2.97478E-09 3.66020E-11
3.21752E-09 3.43317E-11
3.46978E-09 3.22331E-11
3.73156E-09 3.02926E-11
4.00286E-09 2.84969E-11
4.28368E-09 2.68337E-11
4.57402E-09 2.52917E-11
4.87388E-09 2.38606E-11
5.18326E-09 2.25310E-11
5.50215E-09 2.12943E-11
5.83057E-09 2.01427E-11
6.16850E-09 1.90691E-11
6.51596E-09 1.80671E-11
6.87293E-09 1.71305E-11
7.23942E-09 1.62533E-11
7.61544E-09 1.54322E-11
1.18991E-08 9.40367E-12
1.71347E-08 6.12215E-12
2.33223E-08 4.15479E-12
3.04617E-08 2.91949E-12
3.85531E-08 2.11250E-12
4.75965E-08 1.56624E-12
5.75917E-08 1.18468E-12
6.85389E-08 9.10960E-13
8.04380E-08 7.09899E-13
9.32891E-08 5.59728E-13
1.07092E-07 4.46342E-13
1.21847E-07 3.59667E-13
1.37554E-07 2.92695E-13
1.54213E-07 2.40435E-13
1.71823E-07 1.99277E-13
1.90386E-07 1.66571E-13
2.09900E-07 1.40379E-13
2.30367E-07 1.19204E-13
2.51785E-07 1.01857E-13
2.74156E-07 8.76211E-14
2.97478E-07 7.58520E-14
3.21752E-07 6.60400E-14
3.46978E-07 5.77988E-14
3.73156E-07 5.08255E-14
4.00286E-07 4.48845E-14
4.28368E-07 3.97926E-14
4.57402E-07 3.54057E-14
4.87388E-07 3.16091E-14
5.18325E-07 2.83099E-14
5.50215E-07 2.54321E-14
5.83057E-07 2.29128E-14
6.16850E-07 2.06993E-14
6.51596E-07 1.87476E-14
6.87293E-07 1.70203E-14
7.23942E-07 1.54862E-14
7.61543E-07 1.41205E-14
1.18991E-06 6.19254E-15
1.71347E-06 3.12743E-15
2.33223E-06 1.74440E-15
3.04617E-06 1.04788E-15
3.85531E-06 6.66994E-16
4.75964E-06 4.44607E-16
5.75916E-06 3.07662E-16
6.85388E-06 2.19637E-16
8.04378E-06 1.60958E-16
9.32888E-06 1.20609E-16
1.07092E-05 9.21332E-17
1.21846E-05 7.15764E-17
1.37553E-05 5.64369E-17
1.54212E-05 4.50899E-17
1.71822E-05 3.64530E-17
1.90385E-05 2.97694E-17
2.09899E-05 2.45763E-17
2.30365E-05 2.04634E-17
2.51783E-05 1.71705E-17
2.74153E-05 1.45097E-17
2.97475E-05 1.23428E-17
3.21749E-05 1.05655E-17
3.46974E-05 9.09761E-18
3.73152E-05 7.87708E-18
4.00281E-05 6.85535E-18
4.28362E-05 5.99440E-18
4.57395E-05 5.26439E-18
4.87380E-05 4.64193E-18
5.18317E-05 4.10849E-18
5.50205E-05 3.64927E-18
5.83045E-05 3.25236E-18
6.16838E-05 2.90799E-18
6.51582E-05 2.60808E-18
6.87277E-05 2.34595E-18
7.23925E-05 2.11598E-18
7.61524E-05 1.91358E-18
9.21439E-05 1.30995E-18
1.09658E-04 9.26493E-19
1.28695E-04 6.73597E-19
1.49255E-04 5.01294E-19
1.71338E-04 3.80697E-19
1.94942E-04 2.94240E-19
2.20070E-04 2.30966E-19
2.46720E-04 1.83804E-19
2.74892E-04 1.48073E-19
3.04586E-04 1.20607E-19
3.35803E-04 9.92157E-20
3.68542E-04 8.23571E-20
4.02802E-04 6.89269E-20
4.38585E-04 5.81219E-20
4.75889E-04 4.93502E-20
5.14715E-04 4.21702E-20
5.55063E-04 3.62474E-20
5.96931E-04 3.13272E-20
6.40321E-04 2.72127E-20
6.85233E-04 2.37509E-20
7.31665E-04 2.08214E-20
7.79618E-04 1.83291E-20
8.29092E-04 1.61981E-20
8.80086E-04 1.43673E-20
9.32601E-04 1.27875E-20
9.86636E-04 1.14185E-20
1.04219E-03 1.02275E-20
1.09927E-03 9.18752E-21
1.15786E-03 8.27608E-21
1.21797E-03 7.47465E-21
1.27961E-03 6.76769E-21
1.34276E-03 6.14215E-21
1.40743E-03 5.58706E-21
1.47362E-03 5.09312E-21
1.54133E-03 4.65243E-21
1.61056E-03 4.25826E-21
1.68131E-03 3.90484E-21
1.75357E-03 3.58724E-21
1.82735E-03 3.30118E-21
1.90265E-03 3.04300E-21
1.97947E-03 2.80948E-21
2.05780E-03 2.59788E-21
2.13765E-03 2.40576E-21
2.21902E-03 2.23102E-21
2.30190E-03 2.07180E-21
2.38630E-03 1.92649E-21
2.47222E-03 1.79366E-21
2.55965E-03 1.67204E-21
2.64859E-03 1.56051E-21
2.73905E-03 1.45810E-21
2.83103E-03 1.36392E-21
2.92452E-03 1.27719E-21
3.01952E-03 1.19722E-21
3.11604E-03 1.12339E-21
3.21407E-03 1.05514E-21
3.31362E-03 9.91969E-22
3.41468E-03 9.33440E-22
3.51725E-03 8.79144E-22
3.62133E-03 8.28722E-22
3.72692E-03 7.81848E-22
3.83403E-03 7.38227E-22
3.94265E-03 6.97589E-22
4.05278E-03 6.59700E-22
4.16442E-03 6.24333E-22
4.27757E-03 5.91295E-22
4.39223E-03 5.60403E-22
4.50840E-03 5.31491E-22
4.62608E-03 5.04410E-22
4.74527E-03 4.79024E-22
4.86597E-03 4.55206E-22
4.98817E-03 4.32842E-22
5.11188E-03 4.11828E-22
5.23711E-03 3.92066E-22
5.36383E-03 3.73468E-22
5.49207E-03 3.55955E-22
5.62181E-03 3.39449E-22
5.75306E-03 3.23884E-22
5.88581E-03 3.09196E-22
6.02007E-03 2.95325E-22
6.15583E-03 2.82219E-22
6.29310E-03 2.69828E-22
6.43187E-03 2.58104E-22
6.57214E-03 2.47007E-22
6.71392E-03 2.36496E-22
6.85720E-03 2.26534E-22
7.00198E-03 2.17088E-22
7.14827E-03 2.08125E-22
7.29605E-03 1.99617E-22
7.44534E-03 1.91537E-22
7.59612E-03 1.83858E-22
7.97965E-03 1.66268E-22
8.37255E-03 1.50718E-22
8.77480E-03 1.36932E-22
9.18641E-03 1.24675E-22
9.60736E-03 1.13750E-22
1.00376E-02 1.03987E-22
1.04773E-02 9.52404E-23
1.09262E-02 8.73844E-23
1.13844E-02 8.03150E-23
1.18520E-02 7.39398E-23
1.23288E-02 6.81791E-23
1.28150E-02 6.29633E-23
1.33104E-02 5.82320E-23
1.38150E-02 5.39325E-23
1.43290E-02 5.00184E-23
1.48521E-02 4.64494E-23
1.53845E-02 4.31896E-23
1.59262E-02 4.02076E-23
1.64770E-02 3.74757E-23
1.70371E-02 3.49692E-23
1.76063E-02 3.26663E-23
1.81848E-02 3.05475E-23
1.87724E-02 2.85956E-23
1.93692E-02 2.67951E-23
1.99751E-02 2.51323E-23
2.05901E-02 2.35947E-23
2.12143E-02 2.21713E-23
2.18476E-02 2.08521E-23
2.24900E-02 1.96282E-23
2.31415E-02 1.84914E-23
2.38021E-02 1.74345E-23
2.44717E-02 1.64509E-23
2.51504E-02 1.55346E-23
2.58382E-02 1.46802E-23
2.65349E-02 1.38828E-23
2.72407E-02 1.31378E-23
2.79555E-02 1.24414E-23
2.86793E-02 1.17896E-23
2.94120E-02 1.11793E-23
3.01537E-02 1.06072E-23
3.09043E-02 1.00706E-23
3.16639E-02 9.56682E-24
3.24324E-02 9.09358E-24
3.32098E-02 8.64867E-24
3.39961E-02 8.23011E-24
3.47912E-02 7.83605E-24
3.55952E-02 7.46482E-24
3.64081E-02 7.11485E-24
3.72297E-02 6.78472E-24
3.80602E-02 6.47311E-24
3.88995E-02 6.17879E-24
3.97476E-02 5.90064E-24
4.06044E-02 5.63762E-24
4.14700E-02 5.38875E-24
4.23443E-02 5.15314E-24
4.32273E-02 4.92997E-24
4.41190E-02 4.71846E-24
4.50194E-02 4.51790E-24
4.59284E-02 4.32761E-24
4.68461E-02 4.14699E-24
4.87074E-02 3.81247E-24
5.06030E-02 3.51017E-24
5.25328E-02 3.23650E-24
5.44967E-02 2.98829E-24
5.64946E-02 2.76278E-24
5.85262E-02 2.55757E-24
6.05914E-02 2.37052E-24
6.26901E-02 2.19976E-24
6.48222E-02 2.04366E-24
6.69873E-02 1.90073E-24
6.91854E-02 1.76969E-24
7.14163E-02 1.64939E-24
7.36799E-02 1.53881E-24
7.59760E-02 1.43703E-24
7.83043E-02 1.34324E-24
8.06647E-02 1.25671E-24
8.30571E-02 1.17679E-24
8.54812E-02 1.10289E-24
8.79369E-02 1.03448E-24
9.04240E-02 9.71093E-25
9.29422E-02 9.12300E-25
9.54915E-02 8.57713E-25
9.80716E-02 8.06984E-25
1.00682E-01 7.59796E-25
1.03323E-01 7.15863E-25
1.05995E-01 6.74924E-25
1.08696E-01 6.36743E-25
1.11427E-01 6.01105E-25
1.14188E-01 5.67814E-25
1.16978E-01 5.36690E-25
1.19797E-01 5.07570E-25
1.22645E-01 4.80306E-25
1.25522E-01 4.54759E-25
1.28428E-01 4.30806E-25
1.31361E-01 4.08332E-25
1.34323E-01 3.87230E-25
1.37313E-01 3.67404E-25
1.40330E-01 3.48764E-25
1.43375E-01 3.31230E-25
1.46447E-01 3.14725E-25
1.49545E-01 2.99180E-25
1.52671E-01 2.84530E-25
1.55823E-01 2.70716E-25
1.59001E-01 2.57682E-25
1.62205E-01 2.45379E-25
1.65435E-01 2.33759E-25
1.68690E-01 2.22778E-25
1.71970E-01 2.12396E-25
1.75276E-01 2.02575E-25
1.78606E-01 1.93281E-25
1.81961E-01 1.84480E-25
1.85340E-01 1.76144E-25
1.88743E-01 1.68243E-25
1.92169E-01 1.60752E-25
1.95619E-01 1.53646E-25
1.99092E-01 1.46903E-25
2.02589E-01 1.40502E-25
2.06107E-01 1.34421E-25
2.09649E-01 1.28644E-25
2.13212E-01 1.23153E-25
2.16797E-01 1.17931E-25
2.20404E-01 1.12963E-25
2.24032E-01 1.08236E-25
2.27680E-01 1.03736E-25
2.31350E-01 9.94506E-26
2.35040E-01 9.53679E-26
2.38751E-01 9.14771E-26
2.42481E-01 8.77680E-26
2.46231E-01 8.42307E-26
2.50000E-01 8.08564E-26
2.53788E-01 7.76364E-26
2.57595E-01 7.45626E-26
2.61421E-01 7.16276E-26
2.65264E-01 6.88242E-26
2.69126E-01 6.61457E-26
2.73005E-01 6.35857E-26
2.76901E-01 6.11383E-26
2.80814E-01 5.87979E-26
2.84744E-01 5.65592E-26
2.88691E-01 5.44171E-26
2.92653E-01 5.23670E-26
2.96632E-01 5.04043E-26
3.00625E-01 4.85248E-26
3.04634E-01 4.67246E-26
3.08658E-01 4.49998E-26
3.12697E-01 4.33469E-26
3.16749E-01 4.17624E-26
3.20816E-01 4.02433E-26
3.24896E-01 3.87863E-26
3.28990E-01 3.73887E-26
3.33097E-01 3.60478E-26
3.37216E-01 3.47609E-26
3.41348E-01 3.35255E-26
3.45492E-01 3.23394E-26
3.49647E-01 3.12004E-26
3.53814E-01 3.01062E-26
3.57992E-01 2.90550E-26
3.62181E-01 2.80449E-26
3.66381E-01 2.70740E-26
3.70590E-01 2.61406E-26
3.74810E-01 2.52431E-26
3.79039E-01 2.43799E-26
3.83277E-01 2.35497E-26
3.87524E-01 2.27508E-26
3.91780E-01 2.19822E-26
3.96044E-01 2.12423E-26
4.00316E-01 2.05301E-26
4.04596E-01 1.98444E-26
4.08882E-01 1.91840E-26
4.13176E-01 1.85480E-26
4.17476E-01 1.79353E-26
4.21783E-01 1.73450E-26
4.26095E-01 1.67761E-26
4.30413E-01 1.62278E-26
4.34737E-01 1.56992E-26
4.39065E-01 1.51896E-26
4.43398E-01 1.46982E-26
4.47736E-01 1.42243E-26
4.52077E-01 1.37671E-26
4.56422E-01 1.33261E-26
4.60770E-01 1.29006E-26
4.65122E-01 1.24899E-26
4.69476E-01 1.20935E-26
4.73832E-01 1.17109E-26
4.78190E-01 1.13415E-26
4.82550E-01 1.09848E-26
4.86912E-01 1.06403E-26
4.91274E-01 1.03076E-26
4.95637E-01 9.98616E-27
5.00000E-01 9.67563E-27
5.04363E-01 9.37557E-27
5.08726E-01 9.08560E-27
5.13088E-01 8.80533E-27
5.17450E-01 8.53441E-27
5.21810E-01 8.27249E-27
5.26168E-01 8.01925E-27
5.30524E-01 7.77435E-27
5.34878E-01 7.53751E-27
5.39230E-01 7.30842E-27
5.43578E-01 7.08681E-27
5.47923E-01 6.87240E-27
5.52264E-01 6.66494E-27
5.56602E-01 6.46417E-27
5.60935E-01 6.26987E-27
5.65263E-01 6.08180E-27
5.69587E-01 5.89973E-27
5.73905E-01 5.72347E-27
5.78217E-01 5.55280E-27
5.82524E-01 5.38753E-27
5.86824E-01 5.22747E-27
5.91118E-01 5.07245E-27
5.95404E-01 4.92228E-27
5.99684E-01 4.77680E-27
6.03956E-01 4.63584E-27
6.08220E-01 4.49927E-27
6.12476E-01 4.36691E-27
6.16723E-01 4.23864E-27
6.20961E-01 4.11431E-27
6.25190E-01 3.99380E-27
6.29410E-01 3.87696E-27
6.33619E-01 3.76369E-27
6.37819E-01 3.65385E-27
6.42008E-01 3.54734E-27
6.46186E-01 3.44405E-27
6.50353E-01 3.34387E-27
6.54508E-01 3.24669E-27
6.58652E-01 3.15243E-27
6.62784E-01 3.06098E-27
6.66903E-01 2.97225E-27
6.71010E-01 2.88615E-27
6.75104E-01 2.80261E-27
6.79184E-01 2.72153E-27
6.83251E-01 2.64284E-27
6.87303E-01 2.56646E-27
6.91342E-01 2.49231E-27
6.95366E-01 2.42033E-27
6.99375E-01 2.35045E-27
7.03368E-01 2.28260E-27
7.07347E-01 2.21672E-27
7.11309E-01 2.15274E-27
7.15256E-01 2.09061E-27
7.19186E-01 2.03026E-27
7.23099E-01 1.97165E-27
7.26995E-01 1.91472E-27
7.30874E-01 1.85941E-27
7.34736E-01 1.80568E-27
7.38579E-01 1.75347E-27
7.42405E-01 1.70275E-27
7.46212E-01 1.65346E-27
7.50000E-01 1.60556E-27
7.53769E-01 1.55902E-27
7.57519E-01 1.51378E-27
7.61249E-01 1.46981E-27
7.64960E-01 1.42708E-27
7.68650E-01 1.38553E-27
7.72320E-01 1.34515E-27
7.75968E-01 1.30589E-27
7.79596E-01 1.26772E-27
7.83203E-01 1.23061E-27
7.86788E-01 1.19452E-27
7.90351E-01 1.15943E-27
7.93893E-01 1.12531E-27
7.97411E-01 1.09213E-27
8.00908E-01 1.05986E-27
8.04381E-01 1.02848E-27
8.07831E-01 9.97952E-28
8.11257E-01 9.68261E-28
8.14660E-01 9.39380E-28
8.18039E-01 9.11287E-28
8.21394E-01 8.83958E-28
8.24724E-01 8.57372E-28
8.28030E-01 8.31508E-28
8.31310E-01 8.06344E-28
8.34565E-01 7.81862E-28
8.37795E-01 7.58042E-28
8.40999E-01 7.34866E-28
8.44177E-01 7.12315E-28
8.47329E-01 6.90372E-28
8.50455E-01 6.69020E-28
8.53553E-01 6.48243E-28
8.56625E-01 6.28024E-28
8.59670E-01 6.08349E-28
8.62687E-01 5.89202E-28
8.65677E-01 5.70569E-28
8.68639E-01 5.52437E-28
8.71572E-01 5.34790E-28
8.74478E-01 5.17617E-28
8.77355E-01 5.00904E-28
8.80203E-01 4.84639E-28
8.83022E-01 4.68810E-28
8.85812E-01 4.53406E-28
8.88573E-01 4.38415E-28
8.91304E-01 4.23826E-28
8.94005E-01 4.09629E-28
8.96677E-01 3.95814E-28
8.99318E-01 3.82369E-28
9.01928E-01 3.69287E-28
9.04508E-01 3.56557E-28
9.07058E-01 3.44171E-28
9.09576E-01 3.32119E-28
9.12063E-01 3.20393E-28
9.14519E-01 3.08984E-28
9.16943E-01 2.97886E-28
9.19335E-01 2.87089E-28
9.21696E-01 2.76587E-28
9.24024E-01 2.66373E-28
9.26320E-01 2.56438E-28
9.28584E-01 2.46776E-28
9.30815E-01 2.37381E-28
9.33013E-01 2.28246E-28
9.35178E-01 2.19365E-28
9.37310E-01 2.10731E-28
9.39409E-01 2.02340E-28
9.41474E-01 1.94184E-28
9.43505E-01 1.86260E-28
9.45503E-01 1.78560E-28
9.47467E-01 1.71081E-28
9.49397E-01 1.63817E-28
9.51293E-01 1.56763E-28
9.53154E-01 1.49915E-28
9.54981E-01 1.43267E-28
9.56773E-01 1.36817E-28
9.58530E-01 1.30558E-28
9.60252E-01 1.24488E-28
9.61940E-01 1.18602E-28
9.63592E-01 1.12897E-28
9.65209E-01 1.07368E-28
9.66790E-01 1.02012E-28
9.68336E-01 9.68252E-29
9.69846E-01 9.18048E-29
9.71321E-01 8.69473E-29
9.72759E-01 8.22494E-29
9.74162E-01 7.77082E-29
9.75528E-01 7.33208E-29
9.76858E-01 6.90843E-29
9.78152E-01 6.49960E-29
9.79410E-01 6.10532E-29
9.80631E-01 5.72536E-29
9.81815E-01 5.35945E-29
9.82963E-01 5.00737E-29
9.84074E-01 4.66890E-29
9.85148E-01 4.34382E-29
9.86185E-01 4.03192E-29
9.87185E-01 3.73301E-29
9.88148E-01 3.44689E-29
9.89074E-01 3.17340E-29
9.89962E-01 2.91234E-29
9.90814E-01 2.66356E-29
9.91627E-01 2.42691E-29
9.92404E-01 2.20223E-29
9.93143E-01 1.98939E-29
9.93844E-01 1.78824E-29
9.94508E-01 1.59867E-29
9.95134E-01 1.42055E-29
9.95722E-01 1.25378E-29
9.96273E-01 1.09825E-29
9.96786E-01 9.53858E-30
9.97261E-01 8.20521E-30
9.97698E-01 6.98154E-30
9.98097E-01 5.86680E-30
9.98459E-01 4.86030E-30
9.98782E-01 3.96142E-30
9.99067E-01 3.16960E-30
9.99315E-01 2.48435E-30
9.99524E-01 1.90523E-30
9.99695E-01 1.43190E-30
9.99829E-01 1.06406E-30
9.99924E-01 8.01480E-31
9.99981E-01 6.43996E-31
1.00000E+00 5.91512E-31
