 #
 # Subroutine ELSEPA. Elastic scattering of electrons and positrons
 #                    by neutral atoms and positive ions
 #
 # Projectile: positron
 # Kinetic energy = 2.50000E+08 eV = 9.18733E+06 a.u.
 #
 # WARNING: High-energy factorization with free-atom DF screening.
 #          Absorption, polarization and exchange corrections are
 #          switched off.
 #          Phase shifts are calculated for the bare nucleus.
 #          Scattering amplitudes are not evaluated.
 #
 # Element: Re,  Z =  75,  atomic weight = 1.86207E+02 g/mol
 #
 # Nuclear model: Fermi distribution
 #                Average radius = 6.11011E-13 cm
 #                Skin thickness = 5.46000E-14 cm
 #
 # Number of electrons = 75
 #
 # Total elastic cross section = 7.60425E-18 cm**2 = 2.71553E-01 a0**2
 # 1st transport cross section = 1.67632E-25 cm**2 = 5.98625E-09 a0**2
 # 2nd transport cross section = 5.02091E-25 cm**2 = 1.79300E-08 a0**2
 #
 #
 # Differential cross section:                       MU=(1-COS(THETA))/2
 #
 #  THETA        MU          DCS          DCS        Sherman      error
 #  (deg)                 (cm**2/sr)   (a0**2/sr)    function
 #----------------------------------------------------------------------
0.00000E+00 3.39899E-09
7.61557E-13 3.34974E-09
1.18994E-12 3.32260E-09
1.71346E-12 3.28995E-09
2.33225E-12 3.25206E-09
3.04617E-12 3.20926E-09
3.85530E-12 3.16179E-09
4.75964E-12 3.11007E-09
5.75917E-12 3.05508E-09
6.85391E-12 2.99605E-09
8.04379E-12 2.93481E-09
9.32893E-12 2.87035E-09
1.07092E-11 2.80441E-09
1.21847E-11 2.73633E-09
1.37554E-11 2.66725E-09
1.54213E-11 2.59717E-09
1.71823E-11 2.52639E-09
1.90386E-11 2.45575E-09
2.09900E-11 2.38457E-09
2.30367E-11 2.31455E-09
2.51785E-11 2.24409E-09
2.74156E-11 2.17546E-09
2.97478E-11 2.10682E-09
3.21752E-11 2.04013E-09
3.46979E-11 1.97420E-09
3.73157E-11 1.91006E-09
4.00286E-11 1.84730E-09
4.28368E-11 1.78612E-09
4.57402E-11 1.72683E-09
4.87388E-11 1.66887E-09
5.18325E-11 1.61319E-09
5.50215E-11 1.55861E-09
5.83057E-11 1.50650E-09
6.16850E-11 1.45541E-09
6.51595E-11 1.40665E-09
6.87293E-11 1.35919E-09
7.23943E-11 1.31370E-09
7.61544E-11 1.26973E-09
1.18991E-10 9.11991E-10
1.71347E-10 6.69643E-10
2.33223E-10 5.03298E-10
3.04617E-10 3.85934E-10
3.85531E-10 2.99623E-10
4.75965E-10 2.35523E-10
5.75917E-10 1.90961E-10
6.85389E-10 1.53608E-10
8.04380E-10 1.26710E-10
9.32891E-10 1.04391E-10
1.07092E-09 8.73677E-11
1.21847E-09 7.34324E-11
1.37554E-09 6.22807E-11
1.54213E-09 5.31831E-11
1.71823E-09 4.56310E-11
1.90386E-09 3.94644E-11
2.09900E-09 3.41901E-11
2.30367E-09 2.98751E-11
2.51785E-09 2.60926E-11
2.74156E-09 2.29726E-11
2.97478E-09 2.02194E-11
3.21752E-09 1.79036E-11
3.46978E-09 1.58738E-11
3.73156E-09 1.41285E-11
4.00286E-09 1.26064E-11
4.28368E-09 1.12751E-11
4.57402E-09 1.01172E-11
4.87388E-09 9.09143E-12
5.18326E-09 8.19976E-12
5.50215E-09 7.40235E-12
5.83057E-09 6.70726E-12
6.16850E-09 6.08306E-12
6.51596E-09 5.53447E-12
6.87293E-09 5.04318E-12
7.23942E-09 4.60686E-12
7.61544E-09 4.21631E-12
1.18991E-08 1.92027E-12
1.71347E-08 1.00773E-12
2.33223E-08 5.80553E-13
3.04617E-08 3.57904E-13
3.85531E-08 2.32120E-13
4.75965E-08 1.57085E-13
5.75917E-08 1.10048E-13
6.85389E-08 7.93649E-14
8.04380E-08 5.86652E-14
9.32891E-08 4.42937E-14
1.07092E-07 3.40576E-14
1.21847E-07 2.66153E-14
1.37554E-07 2.11010E-14
1.54213E-07 1.69450E-14
1.71823E-07 1.37648E-14
1.90386E-07 1.12978E-14
2.09900E-07 9.36006E-15
2.30367E-07 7.82040E-15
2.51785E-07 6.58481E-15
2.74156E-07 5.58401E-15
2.97478E-07 4.76633E-15
3.21752E-07 4.09297E-15
3.46978E-07 3.53435E-15
3.73156E-07 3.06779E-15
4.00286E-07 2.67556E-15
4.28368E-07 2.34397E-15
4.57402E-07 2.06212E-15
4.87388E-07 1.82133E-15
5.18325E-07 1.61463E-15
5.50215E-07 1.43639E-15
5.83057E-07 1.28205E-15
6.16850E-07 1.14784E-15
6.51596E-07 1.03071E-15
6.87293E-07 9.28136E-16
7.23942E-07 8.37992E-16
7.61543E-07 7.58520E-16
1.18991E-06 3.14532E-16
1.71347E-06 1.52911E-16
2.33223E-06 8.30229E-17
3.04617E-06 4.88840E-17
3.85531E-06 3.06238E-17
4.75964E-06 2.01470E-17
5.75916E-06 1.37903E-17
6.85388E-06 9.75360E-18
8.04378E-06 7.09108E-18
9.32888E-06 5.27780E-18
1.07092E-05 4.00855E-18
1.21846E-05 3.09874E-18
1.37553E-05 2.43289E-18
1.54212E-05 1.93657E-18
1.71822E-05 1.56053E-18
1.90385E-05 1.27074E-18
2.09899E-05 1.04639E-18
2.30365E-05 8.69257E-19
2.51783E-05 7.27842E-19
2.74153E-05 6.13870E-19
2.97475E-05 5.21266E-19
3.21749E-05 4.45468E-19
3.46974E-05 3.82989E-19
3.73152E-05 3.31130E-19
4.00281E-05 2.87789E-19
4.28362E-05 2.51325E-19
4.57395E-05 2.20452E-19
4.87380E-05 1.94163E-19
5.18317E-05 1.71664E-19
5.50205E-05 1.52319E-19
5.83045E-05 1.35619E-19
6.16838E-05 1.21146E-19
6.51582E-05 1.08556E-19
6.87277E-05 9.75621E-20
7.23925E-05 8.79273E-20
7.61524E-05 7.96861E-20
9.21439E-05 5.44329E-20
1.09658E-04 3.84341E-20
1.28695E-04 2.79067E-20
1.49255E-04 2.07476E-20
1.71338E-04 1.57443E-20
1.94942E-04 1.21618E-20
2.20070E-04 9.54252E-21
2.46720E-04 7.59167E-21
2.74892E-04 6.11454E-21
3.04586E-04 4.97962E-21
3.35803E-04 4.09598E-21
3.68542E-04 3.39976E-21
4.02802E-04 2.84523E-21
4.38585E-04 2.39908E-21
4.75889E-04 2.03680E-21
5.14715E-04 1.74025E-21
5.55063E-04 1.49561E-21
5.96931E-04 1.29236E-21
6.40321E-04 1.12238E-21
6.85233E-04 9.79334E-22
7.31665E-04 8.58271E-22
7.79618E-04 7.55257E-22
8.29092E-04 6.67163E-22
8.80086E-04 5.91469E-22
9.32601E-04 5.26142E-22
9.86636E-04 4.69526E-22
1.04219E-03 4.20264E-22
1.09927E-03 3.77242E-22
1.15786E-03 3.39537E-22
1.21797E-03 3.06380E-22
1.27961E-03 2.77131E-22
1.34276E-03 2.51251E-22
1.40743E-03 2.28285E-22
1.47362E-03 2.07851E-22
1.54133E-03 1.89621E-22
1.61056E-03 1.73318E-22
1.68131E-03 1.58702E-22
1.75357E-03 1.45570E-22
1.82735E-03 1.33745E-22
1.90265E-03 1.23075E-22
1.97947E-03 1.13428E-22
2.05780E-03 1.04689E-22
2.13765E-03 9.67577E-23
2.21902E-03 8.95468E-23
2.30190E-03 8.29800E-23
2.38630E-03 7.69897E-23
2.47222E-03 7.15168E-23
2.55965E-03 6.65089E-23
2.64859E-03 6.19198E-23
2.73905E-03 5.77087E-23
2.83103E-03 5.38390E-23
2.92452E-03 5.02784E-23
3.01952E-03 4.69980E-23
3.11604E-03 4.39721E-23
3.21407E-03 4.11777E-23
3.31362E-03 3.85939E-23
3.41468E-03 3.62024E-23
3.51725E-03 3.39863E-23
3.62133E-03 3.19307E-23
3.72692E-03 3.00221E-23
3.83403E-03 2.82481E-23
3.94265E-03 2.65977E-23
4.05278E-03 2.50609E-23
4.16442E-03 2.36286E-23
4.27757E-03 2.22925E-23
4.39223E-03 2.10451E-23
4.50840E-03 1.98796E-23
4.62608E-03 1.87896E-23
4.74527E-03 1.77696E-23
4.86597E-03 1.68142E-23
4.98817E-03 1.59188E-23
5.11188E-03 1.50790E-23
5.23711E-03 1.42908E-23
5.36383E-03 1.35504E-23
5.49207E-03 1.28547E-23
5.62181E-03 1.22003E-23
5.75306E-03 1.15846E-23
5.88581E-03 1.10048E-23
6.02007E-03 1.04585E-23
6.15583E-03 9.94358E-24
6.29310E-03 9.45784E-24
6.43187E-03 8.99943E-24
6.57214E-03 8.56656E-24
6.71392E-03 8.15760E-24
6.85720E-03 7.77102E-24
7.00198E-03 7.40543E-24
7.14827E-03 7.05952E-24
7.29605E-03 6.73206E-24
7.44534E-03 6.42193E-24
7.59612E-03 6.12808E-24
7.97965E-03 5.45841E-24
8.37255E-03 4.87100E-24
8.77480E-03 4.35443E-24
9.18641E-03 3.89907E-24
9.60736E-03 3.49677E-24
1.00376E-02 3.14058E-24
1.04773E-02 2.82457E-24
1.09262E-02 2.54368E-24
1.13844E-02 2.29355E-24
1.18520E-02 2.07042E-24
1.23288E-02 1.87104E-24
1.28150E-02 1.69263E-24
1.33104E-02 1.53272E-24
1.38150E-02 1.38921E-24
1.43290E-02 1.26023E-24
1.48521E-02 1.14418E-24
1.53845E-02 1.03962E-24
1.59262E-02 9.45307E-25
1.64770E-02 8.60149E-25
1.70371E-02 7.83175E-25
1.76063E-02 7.13530E-25
1.81848E-02 6.50456E-25
1.87724E-02 5.93282E-25
1.93692E-02 5.41412E-25
1.99751E-02 4.94316E-25
2.05901E-02 4.51522E-25
2.12143E-02 4.12609E-25
2.18476E-02 3.77200E-25
2.24900E-02 3.44959E-25
2.31415E-02 3.15584E-25
2.38021E-02 2.88804E-25
2.44717E-02 2.64377E-25
2.51504E-02 2.42084E-25
2.58382E-02 2.21729E-25
2.65349E-02 2.03134E-25
2.72407E-02 1.86140E-25
2.79555E-02 1.70603E-25
2.86793E-02 1.56391E-25
2.94120E-02 1.43389E-25
3.01537E-02 1.31487E-25
3.09043E-02 1.20590E-25
3.16639E-02 1.10611E-25
3.24324E-02 1.01468E-25
3.32098E-02 9.30910E-26
3.39961E-02 8.54127E-26
3.47912E-02 7.83737E-26
3.55952E-02 7.19195E-26
3.64081E-02 6.60005E-26
3.72297E-02 6.05714E-26
3.80602E-02 5.55911E-26
3.88995E-02 5.10217E-26
3.97476E-02 4.68290E-26
4.06044E-02 4.29816E-26
4.14700E-02 3.94507E-26
4.23443E-02 3.62101E-26
4.32273E-02 3.32357E-26
4.41190E-02 3.05057E-26
4.50194E-02 2.79998E-26
4.59284E-02 2.56996E-26
4.68461E-02 2.35883E-26
4.87074E-02 1.98716E-26
5.06030E-02 1.67406E-26
5.25328E-02 1.41034E-26
5.44967E-02 1.18828E-26
5.64946E-02 1.00135E-26
5.85262E-02 8.44051E-27
6.05914E-02 7.11743E-27
6.26901E-02 6.00501E-27
6.48222E-02 5.07010E-27
6.69873E-02 4.28471E-27
6.91854E-02 3.62519E-27
7.14163E-02 3.07155E-27
7.36799E-02 2.60692E-27
7.59760E-02 2.21704E-27
7.83043E-02 1.88991E-27
8.06647E-02 1.61537E-27
8.30571E-02 1.38490E-27
8.54812E-02 1.19129E-27
8.79369E-02 1.02851E-27
9.04240E-02 8.91466E-28
9.29422E-02 7.75906E-28
9.54915E-02 6.78255E-28
9.80716E-02 5.95527E-28
1.00682E-01 5.25226E-28
1.03323E-01 4.65271E-28
1.05995E-01 4.13928E-28
1.08696E-01 3.69759E-28
1.11427E-01 3.31568E-28
1.14188E-01 2.98366E-28
1.16978E-01 2.69336E-28
1.19797E-01 2.43804E-28
1.22645E-01 2.21215E-28
1.25522E-01 2.01111E-28
1.28428E-01 1.83119E-28
1.31361E-01 1.66930E-28
1.34323E-01 1.52292E-28
1.37313E-01 1.38998E-28
1.40330E-01 1.26879E-28
1.43375E-01 1.15794E-28
1.46447E-01 1.05629E-28
1.49545E-01 9.62873E-29
1.52671E-01 8.76894E-29
1.55823E-01 7.97682E-29
1.59001E-01 7.24667E-29
1.62205E-01 6.57359E-29
1.65435E-01 5.95331E-29
1.68690E-01 5.38208E-29
1.71970E-01 4.85653E-29
1.75276E-01 4.37363E-29
1.78606E-01 3.93057E-29
1.81961E-01 3.52476E-29
1.85340E-01 3.15379E-29
1.88743E-01 2.81537E-29
1.92169E-01 2.50732E-29
1.95619E-01 2.22760E-29
1.99092E-01 1.97422E-29
2.02589E-01 1.74530E-29
2.06107E-01 1.53905E-29
2.09649E-01 1.35376E-29
2.13212E-01 1.18777E-29
2.16797E-01 1.03954E-29
2.20404E-01 9.07577E-30
2.24032E-01 7.90488E-30
2.27680E-01 6.86947E-30
2.31350E-01 5.95708E-30
2.35040E-01 5.15603E-30
2.38751E-01 4.45540E-30
2.42481E-01 3.84501E-30
2.46231E-01 3.31541E-30
2.50000E-01 2.85788E-30
2.53788E-01 2.46437E-30
2.57595E-01 2.12748E-30
2.61421E-01 1.84046E-30
2.65264E-01 1.59716E-30
2.69126E-01 1.39200E-30
2.73005E-01 1.21994E-30
2.76901E-01 1.07644E-30
2.80814E-01 9.57446E-31
2.84744E-01 8.59326E-31
2.88691E-01 7.78873E-31
2.92653E-01 7.13250E-31
2.96632E-01 6.59966E-31
3.00625E-01 6.16846E-31
3.04634E-01 5.82002E-31
3.08658E-01 5.53806E-31
3.12697E-01 5.30865E-31
3.16749E-01 5.11995E-31
3.20816E-01 4.96201E-31
3.24896E-01 4.82652E-31
3.28990E-01 4.70667E-31
3.33097E-01 4.59691E-31
3.37216E-01 4.49281E-31
3.41348E-01 4.39093E-31
3.45492E-01 4.28865E-31
3.49647E-01 4.18407E-31
3.53814E-01 4.07586E-31
3.57992E-01 3.96322E-31
3.62181E-01 3.84575E-31
3.66381E-01 3.72338E-31
3.70590E-01 3.59630E-31
3.74810E-01 3.46491E-31
3.79039E-01 3.32976E-31
3.83277E-01 3.19151E-31
3.87524E-01 3.05090E-31
3.91780E-01 2.90868E-31
3.96044E-01 2.76566E-31
4.00316E-01 2.62260E-31
4.04596E-01 2.48025E-31
4.08882E-01 2.33934E-31
4.13176E-01 2.20052E-31
4.17476E-01 2.06441E-31
4.21783E-01 1.93155E-31
4.26095E-01 1.80242E-31
4.30413E-01 1.67746E-31
4.34737E-01 1.55701E-31
4.39065E-01 1.44137E-31
4.43398E-01 1.33077E-31
4.47736E-01 1.22537E-31
4.52077E-01 1.12531E-31
4.56422E-01 1.03064E-31
4.60770E-01 9.41384E-32
4.65122E-01 8.57528E-32
4.69476E-01 7.79011E-32
4.73832E-01 7.05742E-32
4.78190E-01 6.37600E-32
4.82550E-01 5.74440E-32
4.86912E-01 5.16095E-32
4.91274E-01 4.62382E-32
4.95637E-01 4.13104E-32
5.00000E-01 3.68054E-32
5.04363E-01 3.27016E-32
5.08726E-01 2.89770E-32
5.13088E-01 2.56094E-32
5.17450E-01 2.25765E-32
5.21810E-01 1.98562E-32
5.26168E-01 1.74266E-32
5.30524E-01 1.52665E-32
5.34878E-01 1.33552E-32
5.39230E-01 1.16725E-32
5.43578E-01 1.01993E-32
5.47923E-01 8.91700E-33
5.52264E-01 7.80818E-33
5.56602E-01 6.85618E-33
5.60935E-01 6.04533E-33
5.65263E-01 5.36090E-33
5.69587E-01 4.78913E-33
5.73905E-01 4.31719E-33
5.78217E-01 3.93319E-33
5.82524E-01 3.62618E-33
5.86824E-01 3.38604E-33
5.91118E-01 3.20354E-33
5.95404E-01 3.07026E-33
5.99684E-01 2.97857E-33
6.03956E-01 2.92155E-33
6.08220E-01 2.89302E-33
6.12476E-01 2.88743E-33
6.16723E-01 2.89986E-33
6.20961E-01 2.92596E-33
6.25190E-01 2.96191E-33
6.29410E-01 3.00440E-33
6.33619E-01 3.05055E-33
6.37819E-01 3.09792E-33
6.42008E-01 3.14443E-33
6.46186E-01 3.18836E-33
6.50353E-01 3.22828E-33
6.54508E-01 3.26307E-33
6.58652E-01 3.29184E-33
6.62784E-01 3.31391E-33
6.66903E-01 3.32883E-33
6.71010E-01 3.33630E-33
6.75104E-01 3.33616E-33
6.79184E-01 3.32842E-33
6.83251E-01 3.31315E-33
6.87303E-01 3.29054E-33
6.91342E-01 3.26087E-33
6.95366E-01 3.22446E-33
6.99375E-01 3.18168E-33
7.03368E-01 3.13295E-33
7.07347E-01 3.07873E-33
7.11309E-01 3.01947E-33
7.15256E-01 2.95566E-33
7.19186E-01 2.88778E-33
7.23099E-01 2.81631E-33
7.26995E-01 2.74173E-33
7.30874E-01 2.66450E-33
7.34736E-01 2.58508E-33
7.38579E-01 2.50391E-33
7.42405E-01 2.42140E-33
7.46212E-01 2.33795E-33
7.50000E-01 2.25392E-33
7.53769E-01 2.16967E-33
7.57519E-01 2.08552E-33
7.61249E-01 2.00178E-33
7.64960E-01 1.91871E-33
7.68650E-01 1.83657E-33
7.72320E-01 1.75559E-33
7.75968E-01 1.67597E-33
7.79596E-01 1.59789E-33
7.83203E-01 1.52151E-33
7.86788E-01 1.44697E-33
7.90351E-01 1.37439E-33
7.93893E-01 1.30387E-33
7.97411E-01 1.23548E-33
8.00908E-01 1.16930E-33
8.04381E-01 1.10538E-33
8.07831E-01 1.04374E-33
8.11257E-01 9.84426E-34
8.14660E-01 9.27432E-34
8.18039E-01 8.72760E-34
8.21394E-01 8.20403E-34
8.24724E-01 7.70339E-34
8.28030E-01 7.22542E-34
8.31310E-01 6.76975E-34
8.34565E-01 6.33597E-34
8.37795E-01 5.92365E-34
8.40999E-01 5.53221E-34
8.44177E-01 5.16116E-34
8.47329E-01 4.80986E-34
8.50455E-01 4.47774E-34
8.53553E-01 4.16413E-34
8.56625E-01 3.86841E-34
8.59670E-01 3.58987E-34
8.62687E-01 3.32787E-34
8.65677E-01 3.08173E-34
8.68639E-01 2.85076E-34
8.71572E-01 2.63431E-34
8.74478E-01 2.43169E-34
8.77355E-01 2.24226E-34
8.80203E-01 2.06537E-34
8.83022E-01 1.90040E-34
8.85812E-01 1.74671E-34
8.88573E-01 1.60372E-34
8.91304E-01 1.47083E-34
8.94005E-01 1.34747E-34
8.96677E-01 1.23312E-34
8.99318E-01 1.12723E-34
9.01928E-01 1.02928E-34
9.04508E-01 9.38816E-35
9.07058E-01 8.55352E-35
9.09576E-01 7.78441E-35
9.12063E-01 7.07659E-35
9.14519E-01 6.42593E-35
9.16943E-01 5.82869E-35
9.19335E-01 5.28101E-35
9.21696E-01 4.77960E-35
9.24024E-01 4.32105E-35
9.26320E-01 3.90231E-35
9.28584E-01 3.52037E-35
9.30815E-01 3.17251E-35
9.33013E-01 2.85609E-35
9.35178E-01 2.56870E-35
9.37310E-01 2.30798E-35
9.39409E-01 2.07184E-35
9.41474E-01 1.85824E-35
9.43505E-01 1.66531E-35
9.45503E-01 1.49129E-35
9.47467E-01 1.33457E-35
9.49397E-01 1.19362E-35
9.51293E-01 1.06704E-35
9.53154E-01 9.53503E-36
9.54981E-01 8.51864E-36
9.56773E-01 7.60929E-36
9.58530E-01 6.79738E-36
9.60252E-01 6.07313E-36
9.61940E-01 5.42792E-36
9.63592E-01 4.85374E-36
9.65209E-01 4.34354E-36
9.66790E-01 3.89031E-36
9.68336E-01 3.48805E-36
9.69846E-01 3.13133E-36
9.71321E-01 2.81504E-36
9.72759E-01 2.53463E-36
9.74162E-01 2.28608E-36
9.75528E-01 2.06551E-36
9.76858E-01 1.86959E-36
9.78152E-01 1.69546E-36
9.79410E-01 1.54027E-36
9.80631E-01 1.40177E-36
9.81815E-01 1.27774E-36
9.82963E-01 1.16634E-36
9.84074E-01 1.06591E-36
9.85148E-01 9.74985E-37
9.86185E-01 8.92327E-37
9.87185E-01 8.16805E-37
9.88148E-01 7.47475E-37
9.89074E-01 6.83550E-37
9.89962E-01 6.24311E-37
9.90814E-01 5.69204E-37
9.91627E-01 5.17727E-37
9.92404E-01 4.69507E-37
9.93143E-01 4.24203E-37
9.93844E-01 3.81546E-37
9.94508E-01 3.41388E-37
9.95134E-01 3.03572E-37
9.95722E-01 2.67988E-37
9.96273E-01 2.34545E-37
9.96786E-01 2.03271E-37
9.97261E-01 1.74079E-37
9.97698E-01 1.47055E-37
9.98097E-01 1.22152E-37
9.98459E-01 9.94557E-38
9.98782E-01 7.89461E-38
9.99067E-01 6.07319E-38
9.99315E-01 4.48239E-38
9.99524E-01 3.12735E-38
9.99695E-01 2.01257E-38
9.99829E-01 1.14183E-38
9.99924E-01 5.16938E-39
9.99981E-01 1.41855E-39
1.00000E+00 1.65093E-40
