 #
 # Subroutine ELSEPA. Elastic scattering of electrons and positrons
 #                    by neutral atoms and positive ions
 #
 # Projectile: positron
 # Kinetic energy = 4.00000E+08 eV = 1.46997E+07 a.u.
 #
 # WARNING: High-energy factorization with free-atom DF screening.
 #          Absorption, polarization and exchange corrections are
 #          switched off.
 #          Phase shifts are calculated for the bare nucleus.
 #          Scattering amplitudes are not evaluated.
 #
 # Element: Re,  Z =  75,  atomic weight = 1.86207E+02 g/mol
 #
 # Nuclear model: Fermi distribution
 #                Average radius = 6.11011E-13 cm
 #                Skin thickness = 5.46000E-14 cm
 #
 # Number of electrons = 75
 #
 # Total elastic cross section = 7.60220E-18 cm**2 = 2.71479E-01 a0**2
 # 1st transport cross section = 6.58220E-26 cm**2 = 2.35055E-09 a0**2
 # 2nd transport cross section = 1.97343E-25 cm**2 = 7.04724E-09 a0**2
 #
 #
 # Differential cross section:                       MU=(1-COS(THETA))/2
 #
 #  THETA        MU          DCS          DCS        Sherman      error
 #  (deg)                 (cm**2/sr)   (a0**2/sr)    function
 #----------------------------------------------------------------------
0.00000E+00 8.68811E-09
7.61557E-13 8.37267E-09
1.18994E-12 8.20384E-09
1.71346E-12 8.00452E-09
2.33225E-12 7.78066E-09
3.04617E-12 7.53487E-09
3.85530E-12 7.27161E-09
4.75964E-12 6.99647E-09
5.75917E-12 6.71379E-09
6.85391E-12 6.42435E-09
8.04379E-12 6.13418E-09
9.32893E-12 5.84671E-09
1.07092E-11 5.56383E-09
1.21847E-11 5.28559E-09
1.37554E-11 5.01641E-09
1.54213E-11 4.75746E-09
1.71823E-11 4.50821E-09
1.90386E-11 4.26933E-09
2.09900E-11 4.04255E-09
2.30367E-11 3.82785E-09
2.51785E-11 3.62343E-09
2.74156E-11 3.43044E-09
2.97478E-11 3.24894E-09
3.21752E-11 3.07827E-09
3.46979E-11 2.91668E-09
3.73157E-11 2.76520E-09
4.00286E-11 2.62324E-09
4.28368E-11 2.48973E-09
4.57402E-11 2.36396E-09
4.87388E-11 2.24614E-09
5.18325E-11 2.13574E-09
5.50215E-11 2.03161E-09
5.83057E-11 1.93370E-09
6.16850E-11 1.84186E-09
6.51595E-11 1.75564E-09
6.87293E-11 1.67396E-09
7.23943E-11 1.59720E-09
7.61544E-11 1.52502E-09
1.18991E-10 9.88031E-10
1.71347E-10 6.61217E-10
2.33223E-10 4.67203E-10
3.04617E-10 3.36587E-10
3.85531E-10 2.48435E-10
4.75965E-10 1.88097E-10
5.75917E-10 1.45354E-10
6.85389E-10 1.13520E-10
8.04380E-10 9.00679E-11
9.32891E-10 7.24354E-11
1.07092E-09 5.88540E-11
1.21847E-09 4.81216E-11
1.37554E-09 3.97205E-11
1.54213E-09 3.30545E-11
1.71823E-09 2.76684E-11
1.90386E-09 2.32986E-11
2.09900E-09 1.97545E-11
2.30367E-09 1.68549E-11
2.51785E-09 1.44512E-11
2.74156E-09 1.24617E-11
2.97478E-09 1.08065E-11
3.21752E-09 9.41971E-12
3.46978E-09 8.25028E-12
3.73156E-09 7.25728E-12
4.00286E-09 6.41044E-12
4.28368E-09 5.68599E-12
4.57402E-09 5.06319E-12
4.87388E-09 4.52609E-12
5.18326E-09 4.06058E-12
5.50215E-09 3.65424E-12
5.83057E-09 3.29828E-12
6.16850E-09 2.98548E-12
6.51596E-09 2.70952E-12
6.87293E-09 2.46421E-12
7.23942E-09 2.24636E-12
7.61544E-09 2.05232E-12
1.18991E-08 9.17436E-13
1.71347E-08 4.68906E-13
2.33223E-08 2.63728E-13
3.04617E-08 1.59466E-13
3.85531E-08 1.01997E-13
4.75965E-08 6.82380E-14
5.75917E-08 4.73655E-14
6.85389E-08 3.39001E-14
8.04380E-08 2.49006E-14
9.32891E-08 1.87015E-14
1.07092E-07 1.43179E-14
1.21847E-07 1.11466E-14
1.37554E-07 8.80631E-15
1.54213E-07 7.04836E-15
1.71823E-07 5.70748E-15
1.90386E-07 4.67043E-15
2.09900E-07 3.85825E-15
2.30367E-07 3.21494E-15
2.51785E-07 2.70010E-15
2.74156E-07 2.28415E-15
2.97478E-07 1.94521E-15
3.21752E-07 1.66682E-15
3.46978E-07 1.43646E-15
3.73156E-07 1.24453E-15
4.00286E-07 1.08359E-15
4.28368E-07 9.47835E-16
4.57402E-07 8.32686E-16
4.87388E-07 7.34502E-16
5.18325E-07 6.50373E-16
5.50215E-07 5.77953E-16
5.83057E-07 5.15337E-16
6.16850E-07 4.60978E-16
6.51596E-07 4.13603E-16
6.87293E-07 3.72161E-16
7.23942E-07 3.35785E-16
7.61543E-07 3.03747E-16
1.18991E-06 1.25400E-16
1.71347E-06 6.07947E-17
2.33223E-06 3.29355E-17
3.04617E-06 1.93559E-17
3.85531E-06 1.21061E-17
4.75964E-06 7.95352E-18
5.75916E-06 5.43773E-18
6.85388E-06 3.84222E-18
8.04378E-06 2.79106E-18
9.32888E-06 2.07589E-18
1.07092E-05 1.57572E-18
1.21846E-05 1.21746E-18
1.37553E-05 9.55438E-19
1.54212E-05 7.60235E-19
1.71822E-05 6.12415E-19
1.90385E-05 4.98547E-19
2.09899E-05 4.10423E-19
2.30365E-05 3.40873E-19
2.51783E-05 2.85362E-19
2.74153E-05 2.40636E-19
2.97475E-05 2.04304E-19
3.21749E-05 1.74572E-19
3.46974E-05 1.50069E-19
3.73152E-05 1.29734E-19
4.00281E-05 1.12742E-19
4.28362E-05 9.84478E-20
4.57395E-05 8.63473E-20
4.87380E-05 7.60448E-20
5.18317E-05 6.72281E-20
5.50205E-05 5.96487E-20
5.83045E-05 5.31058E-20
6.16838E-05 4.74359E-20
6.51582E-05 4.25041E-20
6.87277E-05 3.81978E-20
7.23925E-05 3.44241E-20
7.61524E-05 3.13416E-20
9.21439E-05 2.14177E-20
1.09658E-04 1.51279E-20
1.28695E-04 1.09872E-20
1.49255E-04 8.17015E-21
1.71338E-04 6.20051E-21
1.94942E-04 4.78914E-21
2.20070E-04 3.75681E-21
2.46720E-04 2.98766E-21
2.74892E-04 2.40508E-21
3.04586E-04 1.95735E-21
3.35803E-04 1.60867E-21
3.68542E-04 1.33389E-21
4.02802E-04 1.11499E-21
4.38585E-04 9.38898E-22
4.75889E-04 7.95951E-22
5.14715E-04 6.78950E-22
5.55063E-04 5.82453E-22
5.96931E-04 5.02306E-22
6.40321E-04 4.35301E-22
6.85233E-04 3.78944E-22
7.31665E-04 3.31275E-22
7.79618E-04 2.90741E-22
8.29092E-04 2.56104E-22
8.80086E-04 2.26369E-22
9.32601E-04 2.00731E-22
9.86636E-04 1.78537E-22
1.04219E-03 1.59248E-22
1.09927E-03 1.42424E-22
1.15786E-03 1.27700E-22
1.21797E-03 1.14772E-22
1.27961E-03 1.03385E-22
1.34276E-03 9.33276E-23
1.40743E-03 8.44193E-23
1.47362E-03 7.65080E-23
1.54133E-03 6.94648E-23
1.61056E-03 6.31793E-23
1.68131E-03 5.75575E-23
1.75357E-03 5.25183E-23
1.82735E-03 4.79920E-23
1.90265E-03 4.39184E-23
1.97947E-03 4.02453E-23
2.05780E-03 3.69273E-23
2.13765E-03 3.39250E-23
2.21902E-03 3.12038E-23
2.30190E-03 2.87335E-23
2.38630E-03 2.64874E-23
2.47222E-03 2.44424E-23
2.55965E-03 2.25777E-23
2.64859E-03 2.08752E-23
2.73905E-03 1.93187E-23
2.83103E-03 1.78940E-23
2.92452E-03 1.65883E-23
3.01952E-03 1.53903E-23
3.11604E-03 1.42899E-23
3.21407E-03 1.32781E-23
3.31362E-03 1.23468E-23
3.41468E-03 1.14887E-23
3.51725E-03 1.06972E-23
3.62133E-03 9.96669E-24
3.72692E-03 9.29169E-24
3.83403E-03 8.66750E-24
3.94265E-03 8.08981E-24
4.05278E-03 7.55473E-24
4.16442E-03 7.05873E-24
4.27757E-03 6.59860E-24
4.39223E-03 6.17146E-24
4.50840E-03 5.77466E-24
4.62608E-03 5.40579E-24
4.74527E-03 5.06266E-24
4.86597E-03 4.74328E-24
4.98817E-03 4.44582E-24
5.11188E-03 4.16861E-24
5.23711E-03 3.91014E-24
5.36383E-03 3.66899E-24
5.49207E-03 3.44389E-24
5.62181E-03 3.23366E-24
5.75306E-03 3.03722E-24
5.88581E-03 2.85359E-24
6.02007E-03 2.68183E-24
6.15583E-03 2.52112E-24
6.29310E-03 2.37068E-24
6.43187E-03 2.22980E-24
6.57214E-03 2.09780E-24
6.71392E-03 1.97409E-24
6.85720E-03 1.85810E-24
7.00198E-03 1.74930E-24
7.14827E-03 1.64722E-24
7.29605E-03 1.55141E-24
7.44534E-03 1.46146E-24
7.59612E-03 1.37697E-24
7.97965E-03 1.18739E-24
8.37255E-03 1.02492E-24
8.77480E-03 8.85440E-25
9.18641E-03 7.65527E-25
9.60736E-03 6.62292E-25
1.00376E-02 5.73308E-25
1.04773E-02 4.96524E-25
1.09262E-02 4.30201E-25
1.13844E-02 3.72864E-25
1.18520E-02 3.23258E-25
1.23288E-02 2.80313E-25
1.28150E-02 2.43112E-25
1.33104E-02 2.10871E-25
1.38150E-02 1.82919E-25
1.43290E-02 1.58677E-25
1.48521E-02 1.37648E-25
1.53845E-02 1.19404E-25
1.59262E-02 1.03573E-25
1.64770E-02 8.98362E-26
1.70371E-02 7.79172E-26
1.76063E-02 6.75764E-26
1.81848E-02 5.86059E-26
1.87724E-02 5.08259E-26
1.93692E-02 4.40798E-26
1.99751E-02 3.82320E-26
2.05901E-02 3.31643E-26
2.12143E-02 2.87743E-26
2.18476E-02 2.49727E-26
2.24900E-02 2.16819E-26
2.31415E-02 1.88344E-26
2.38021E-02 1.63713E-26
2.44717E-02 1.42417E-26
2.51504E-02 1.24009E-26
2.58382E-02 1.08102E-26
2.65349E-02 9.43617E-27
2.72407E-02 8.24937E-27
2.79555E-02 7.22444E-27
2.86793E-02 6.33928E-27
2.94120E-02 5.57473E-27
3.01537E-02 4.91417E-27
3.09043E-02 4.34318E-27
3.16639E-02 3.84928E-27
3.24324E-02 3.42168E-27
3.32098E-02 3.05104E-27
3.39961E-02 2.72930E-27
3.47912E-02 2.44952E-27
3.55952E-02 2.20570E-27
3.64081E-02 1.99271E-27
3.72297E-02 1.80611E-27
3.80602E-02 1.64212E-27
3.88995E-02 1.49749E-27
3.97476E-02 1.36945E-27
4.06044E-02 1.25562E-27
4.14700E-02 1.15399E-27
4.23443E-02 1.06284E-27
4.32273E-02 9.80718E-28
4.41190E-02 9.06384E-28
4.50194E-02 8.38797E-28
4.59284E-02 7.77074E-28
4.68461E-02 7.20471E-28
4.87074E-02 6.20221E-28
5.06030E-02 5.34133E-28
5.25328E-02 4.59440E-28
5.44967E-02 3.94172E-28
5.64946E-02 3.36911E-28
5.85262E-02 2.86612E-28
6.05914E-02 2.42477E-28
6.26901E-02 2.03866E-28
6.48222E-02 1.70244E-28
6.69873E-02 1.41136E-28
6.91854E-02 1.16110E-28
7.14163E-02 9.47605E-29
7.36799E-02 7.67029E-29
7.59760E-02 6.15707E-29
7.83043E-02 4.90156E-29
8.06647E-02 3.87093E-29
8.30571E-02 3.03452E-29
8.54812E-02 2.36400E-29
8.79369E-02 1.83348E-29
9.04240E-02 1.41966E-29
9.29422E-02 1.10179E-29
9.54915E-02 8.61656E-30
9.80716E-02 6.83471E-30
1.00682E-01 5.53770E-30
1.03323E-01 4.61225E-30
1.05995E-01 3.96463E-30
1.08696E-01 3.51861E-30
1.11427E-01 3.21344E-30
1.14188E-01 3.00173E-30
1.16978E-01 2.84754E-30
1.19797E-01 2.72448E-30
1.22645E-01 2.61401E-30
1.25522E-01 2.50388E-30
1.28428E-01 2.38681E-30
1.31361E-01 2.25922E-30
1.34323E-01 2.12034E-30
1.37313E-01 1.97125E-30
1.40330E-01 1.81430E-30
1.43375E-01 1.65248E-30
1.46447E-01 1.48907E-30
1.49545E-01 1.32729E-30
1.52671E-01 1.17012E-30
1.55823E-01 1.02010E-30
1.59001E-01 8.79313E-31
1.62205E-01 7.49318E-31
1.65435E-01 6.31166E-31
1.68690E-01 5.25432E-31
1.71970E-01 4.32265E-31
1.75276E-01 3.51451E-31
1.78606E-01 2.82473E-31
1.81961E-01 2.24588E-31
1.85340E-01 1.76881E-31
1.88743E-01 1.38330E-31
1.92169E-01 1.07856E-31
1.95619E-01 8.43662E-32
1.99092E-01 6.67939E-32
2.02589E-01 5.41248E-32
2.06107E-01 4.54188E-32
2.09649E-01 3.98254E-32
2.13212E-01 3.65918E-32
2.16797E-01 3.50672E-32
2.20404E-01 3.47020E-32
2.24032E-01 3.50439E-32
2.27680E-01 3.57319E-32
2.31350E-01 3.64881E-32
2.35040E-01 3.71083E-32
2.38751E-01 3.74526E-32
2.42481E-01 3.74351E-32
2.46231E-01 3.70144E-32
2.50000E-01 3.61846E-32
2.53788E-01 3.49670E-32
2.57595E-01 3.34021E-32
2.61421E-01 3.15440E-32
2.65264E-01 2.94538E-32
2.69126E-01 2.71960E-32
2.73005E-01 2.48342E-32
2.76901E-01 2.24284E-32
2.80814E-01 2.00333E-32
2.84744E-01 1.76966E-32
2.88691E-01 1.54584E-32
2.92653E-01 1.33507E-32
2.96632E-01 1.13978E-32
3.00625E-01 9.61634E-33
3.04634E-01 8.01626E-33
3.08658E-01 6.60123E-33
3.12697E-01 5.36968E-33
3.16749E-01 4.31564E-33
3.20816E-01 3.42965E-33
3.24896E-01 2.69956E-33
3.28990E-01 2.11135E-33
3.33097E-01 1.64985E-33
3.37216E-01 1.29935E-33
3.41348E-01 1.04414E-33
3.45492E-01 8.68967E-34
3.49647E-01 7.59338E-34
3.53814E-01 7.01836E-34
3.57992E-01 6.84279E-34
3.62181E-01 6.95841E-34
3.66381E-01 7.27106E-34
3.70590E-01 7.70069E-34
3.74810E-01 8.18104E-34
3.79039E-01 8.65885E-34
3.83277E-01 9.09289E-34
3.87524E-01 9.45290E-34
3.91780E-01 9.71823E-34
3.96044E-01 9.87664E-34
4.00316E-01 9.92295E-34
4.04596E-01 9.85778E-34
4.08882E-01 9.68638E-34
4.13176E-01 9.41752E-34
4.17476E-01 9.06248E-34
4.21783E-01 8.63419E-34
4.26095E-01 8.14647E-34
4.30413E-01 7.61337E-34
4.34737E-01 7.04867E-34
4.39065E-01 6.46543E-34
4.43398E-01 5.87572E-34
4.47736E-01 5.29036E-34
4.52077E-01 4.71879E-34
4.56422E-01 4.16900E-34
4.60770E-01 3.64751E-34
4.65122E-01 3.15940E-34
4.69476E-01 2.70839E-34
4.73832E-01 2.29693E-34
4.78190E-01 1.92631E-34
4.82550E-01 1.59680E-34
4.86912E-01 1.30783E-34
4.91274E-01 1.05806E-34
4.95637E-01 8.45563E-35
5.00000E-01 6.67944E-35
5.04363E-01 5.22476E-35
5.08726E-01 4.06197E-35
5.13088E-01 3.16017E-35
5.17450E-01 2.48812E-35
5.21810E-01 2.01486E-35
5.26168E-01 1.71045E-35
5.30524E-01 1.54641E-35
5.34878E-01 1.49612E-35
5.39230E-01 1.53516E-35
5.43578E-01 1.64135E-35
5.47923E-01 1.79503E-35
5.52264E-01 1.97897E-35
5.56602E-01 2.17839E-35
5.60935E-01 2.38086E-35
5.65263E-01 2.57619E-35
5.69587E-01 2.75629E-35
5.73905E-01 2.91497E-35
5.78217E-01 3.04776E-35
5.82524E-01 3.15174E-35
5.86824E-01 3.22532E-35
5.91118E-01 3.26803E-35
5.95404E-01 3.28039E-35
5.99684E-01 3.26367E-35
6.03956E-01 3.21977E-35
6.08220E-01 3.15106E-35
6.12476E-01 3.06022E-35
6.16723E-01 2.95014E-35
6.20961E-01 2.82384E-35
6.25190E-01 2.68433E-35
6.29410E-01 2.53458E-35
6.33619E-01 2.37743E-35
6.37819E-01 2.21555E-35
6.42008E-01 2.05141E-35
6.46186E-01 1.88725E-35
6.50353E-01 1.72510E-35
6.54508E-01 1.56667E-35
6.58652E-01 1.41345E-35
6.62784E-01 1.26670E-35
6.66903E-01 1.12740E-35
6.71010E-01 9.96321E-36
6.75104E-01 8.74023E-36
6.79184E-01 7.60871E-36
6.83251E-01 6.57051E-36
6.87303E-01 5.62587E-36
6.91342E-01 4.77383E-36
6.95366E-01 4.01214E-36
6.99375E-01 3.33754E-36
7.03368E-01 2.74620E-36
7.07347E-01 2.23332E-36
7.11309E-01 1.79404E-36
7.15256E-01 1.42281E-36
7.19186E-01 1.11415E-36
7.23099E-01 8.62270E-37
7.26995E-01 6.61611E-37
7.30874E-01 5.06552E-37
7.34736E-01 3.91734E-37
7.38579E-01 3.11975E-37
7.42405E-01 2.62359E-37
7.46212E-01 2.38318E-37
7.50000E-01 2.35551E-37
7.53769E-01 2.50146E-37
7.57519E-01 2.78534E-37
7.61249E-01 3.17484E-37
7.64960E-01 3.64120E-37
7.68650E-01 4.15904E-37
7.72320E-01 4.70636E-37
7.75968E-01 5.26412E-37
7.79596E-01 5.81629E-37
7.83203E-01 6.34922E-37
7.86788E-01 6.85225E-37
7.90351E-01 7.31659E-37
7.93893E-01 7.73563E-37
7.97411E-01 8.10484E-37
8.00908E-01 8.42093E-37
8.04381E-01 8.68235E-37
8.07831E-01 8.88815E-37
8.11257E-01 9.03914E-37
8.14660E-01 9.13676E-37
8.18039E-01 9.18321E-37
8.21394E-01 9.18098E-37
8.24724E-01 9.13316E-37
8.28030E-01 9.04324E-37
8.31310E-01 8.91517E-37
8.34565E-01 8.75242E-37
8.37795E-01 8.55867E-37
8.40999E-01 8.33840E-37
8.44177E-01 8.09479E-37
8.47329E-01 7.83198E-37
8.50455E-01 7.55291E-37
8.53553E-01 7.26137E-37
8.56625E-01 6.95996E-37
8.59670E-01 6.65223E-37
8.62687E-01 6.34045E-37
8.65677E-01 6.02696E-37
8.68639E-01 5.71457E-37
8.71572E-01 5.40450E-37
8.74478E-01 5.09892E-37
8.77355E-01 4.79942E-37
8.80203E-01 4.50685E-37
8.83022E-01 4.22248E-37
8.85812E-01 3.94751E-37
8.88573E-01 3.68245E-37
8.91304E-01 3.42783E-37
8.94005E-01 3.18429E-37
8.96677E-01 2.95177E-37
8.99318E-01 2.73055E-37
9.01928E-01 2.52140E-37
9.04508E-01 2.32340E-37
9.07058E-01 2.13672E-37
9.09576E-01 1.96121E-37
9.12063E-01 1.79665E-37
9.14519E-01 1.64290E-37
9.16943E-01 1.49928E-37
9.19335E-01 1.36587E-37
9.21696E-01 1.24179E-37
9.24024E-01 1.12694E-37
9.26320E-01 1.02066E-37
9.28584E-01 9.22729E-38
9.30815E-01 8.32524E-38
9.33013E-01 7.49754E-38
9.35178E-01 6.73872E-38
9.37310E-01 6.04569E-38
9.39409E-01 5.41274E-38
9.41474E-01 4.83665E-38
9.43505E-01 4.31334E-38
9.45503E-01 3.83931E-38
9.47467E-01 3.40971E-38
9.49397E-01 3.02213E-38
9.51293E-01 2.67305E-38
9.53154E-01 2.35974E-38
9.54981E-01 2.07767E-38
9.56773E-01 1.82633E-38
9.58530E-01 1.60117E-38
9.60252E-01 1.40106E-38
9.61940E-01 1.22339E-38
9.63592E-01 1.06586E-38
9.65209E-01 9.25686E-39
9.66790E-01 8.02710E-39
9.68336E-01 6.94729E-39
9.69846E-01 5.99734E-39
9.71321E-01 5.16550E-39
9.72759E-01 4.43981E-39
9.74162E-01 3.80562E-39
9.75528E-01 3.25600E-39
9.76858E-01 2.78307E-39
9.78152E-01 2.36964E-39
9.79410E-01 2.01634E-39
9.80631E-01 1.71205E-39
9.81815E-01 1.45124E-39
9.82963E-01 1.22810E-39
9.84074E-01 1.03860E-39
9.85148E-01 8.78083E-40
9.86185E-01 7.41208E-40
9.87185E-01 6.24646E-40
9.88148E-01 5.28764E-40
9.89074E-01 4.46637E-40
9.89962E-01 3.76559E-40
9.90814E-01 3.18674E-40
9.91627E-01 2.69533E-40
9.92404E-01 2.28316E-40
9.93143E-01 1.94109E-40
9.93844E-01 1.64476E-40
9.94508E-01 1.40304E-40
9.95134E-01 1.19397E-40
9.95722E-01 1.01457E-40
9.96273E-01 8.56070E-41
9.96786E-01 7.30095E-41
9.97261E-01 6.11580E-41
9.97698E-01 5.12166E-41
9.98097E-01 4.16646E-41
9.98459E-01 3.41214E-41
9.98782E-01 2.65219E-41
9.99067E-01 2.05414E-41
9.99315E-01 1.52165E-41
9.99524E-01 1.05978E-41
9.99695E-01 6.64389E-42
9.99829E-01 3.92781E-42
9.99924E-01 1.69981E-42
9.99981E-01 6.14853E-43
1.00000E+00 7.90126E-44
