 #
 # Subroutine ELSEPA. Elastic scattering of electrons and positrons
 #                    by neutral atoms and positive ions
 #
 # Projectile: positron
 # Kinetic energy = 1.00000E+07 eV = 3.67493E+05 a.u.
 #
 # WARNING: High-energy factorization with free-atom DF screening.
 #          Absorption, polarization and exchange corrections are
 #          switched off.
 #          Phase shifts are calculated for the bare nucleus.
 #          Scattering amplitudes are not evaluated.
 #
 # Element: Re,  Z =  75,  atomic weight = 1.86207E+02 g/mol
 #
 # Nuclear model: Fermi distribution
 #                Average radius = 6.11011E-13 cm
 #                Skin thickness = 5.46000E-14 cm
 #
 # Number of electrons = 75
 #
 # Total elastic cross section = 7.61615E-18 cm**2 = 2.71978E-01 a0**2
 # 1st transport cross section = 6.98406E-23 cm**2 = 2.49405E-06 a0**2
 # 2nd transport cross section = 2.02037E-22 cm**2 = 7.21486E-06 a0**2
 #
 #
 # Differential cross section:                       MU=(1-COS(THETA))/2
 #
 #  THETA        MU          DCS          DCS        Sherman      error
 #  (deg)                 (cm**2/sr)   (a0**2/sr)    function
 #----------------------------------------------------------------------
0.00000E+00 5.98390E-12
7.61557E-13 5.98374E-12
1.18994E-12 5.98365E-12
1.71346E-12 5.98354E-12
2.33225E-12 5.98341E-12
3.04617E-12 5.98326E-12
3.85530E-12 5.98310E-12
4.75964E-12 5.98291E-12
5.75917E-12 5.98271E-12
6.85391E-12 5.98248E-12
8.04379E-12 5.98224E-12
9.32893E-12 5.98198E-12
1.07092E-11 5.98169E-12
1.21847E-11 5.98139E-12
1.37554E-11 5.98107E-12
1.54213E-11 5.98073E-12
1.71823E-11 5.98038E-12
1.90386E-11 5.98000E-12
2.09900E-11 5.97960E-12
2.30367E-11 5.97918E-12
2.51785E-11 5.97875E-12
2.74156E-11 5.97829E-12
2.97478E-11 5.97782E-12
3.21752E-11 5.97733E-12
3.46979E-11 5.97682E-12
3.73157E-11 5.97629E-12
4.00286E-11 5.97574E-12
4.28368E-11 5.97517E-12
4.57402E-11 5.97458E-12
4.87388E-11 5.97397E-12
5.18325E-11 5.97335E-12
5.50215E-11 5.97270E-12
5.83057E-11 5.97204E-12
6.16850E-11 5.97135E-12
6.51595E-11 5.97065E-12
6.87293E-11 5.96993E-12
7.23943E-11 5.96919E-12
7.61544E-11 5.96843E-12
1.18991E-10 5.95979E-12
1.71347E-10 5.94927E-12
2.33223E-10 5.93689E-12
3.04617E-10 5.92266E-12
3.85531E-10 5.90660E-12
4.75965E-10 5.88875E-12
5.75917E-10 5.86913E-12
6.85389E-10 5.84777E-12
8.04380E-10 5.82470E-12
9.32891E-10 5.79997E-12
1.07092E-09 5.77360E-12
1.21847E-09 5.74564E-12
1.37554E-09 5.71614E-12
1.54213E-09 5.68513E-12
1.71823E-09 5.65266E-12
1.90386E-09 5.61878E-12
2.09900E-09 5.58350E-12
2.30367E-09 5.54660E-12
2.51785E-09 5.50860E-12
2.74156E-09 5.46955E-12
2.97478E-09 5.42953E-12
3.21752E-09 5.38859E-12
3.46978E-09 5.34590E-12
3.73156E-09 5.30228E-12
4.00286E-09 5.25794E-12
4.28368E-09 5.21293E-12
4.57402E-09 5.16734E-12
4.87388E-09 5.12039E-12
5.18326E-09 5.07250E-12
5.50215E-09 5.02421E-12
5.83057E-09 4.97556E-12
6.16850E-09 4.92664E-12
6.51596E-09 4.87687E-12
6.87293E-09 4.82605E-12
7.23942E-09 4.77511E-12
7.61544E-09 4.72412E-12
1.18991E-08 4.20333E-12
1.71347E-08 3.69136E-12
2.33223E-08 3.21508E-12
3.04617E-08 2.78844E-12
3.85531E-08 2.41578E-12
4.75965E-08 2.09539E-12
5.75917E-08 1.82237E-12
6.85389E-08 1.59050E-12
8.04380E-08 1.39366E-12
9.32891E-08 1.22633E-12
1.07092E-07 1.08359E-12
1.21847E-07 9.61280E-13
1.37554E-07 8.55990E-13
1.54213E-07 7.64912E-13
1.71823E-07 6.85758E-13
1.90386E-07 6.16660E-13
2.09900E-07 5.55623E-13
2.30367E-07 4.98552E-13
2.51785E-07 4.50265E-13
2.74156E-07 4.09141E-13
2.97478E-07 3.73898E-13
3.21752E-07 3.43516E-13
3.46978E-07 3.12816E-13
3.73156E-07 2.85634E-13
4.00286E-07 2.62013E-13
4.28368E-07 2.41384E-13
4.57402E-07 2.23287E-13
4.87388E-07 2.05838E-13
5.18325E-07 1.89678E-13
5.50215E-07 1.75402E-13
5.83057E-07 1.62743E-13
6.16850E-07 1.51476E-13
6.51596E-07 1.40934E-13
6.87293E-07 1.30870E-13
7.23942E-07 1.21860E-13
7.61543E-07 1.13771E-13
1.18991E-06 6.05210E-14
1.71347E-06 3.49217E-14
2.33223E-06 2.13385E-14
3.04617E-06 1.36524E-14
3.85531E-06 9.09858E-15
4.75964E-06 6.29301E-15
5.75916E-06 4.49717E-15
6.85388E-06 3.30543E-15
8.04378E-06 2.49116E-15
9.32888E-06 1.91620E-15
1.07092E-05 1.49883E-15
1.21846E-05 1.18945E-15
1.37553E-05 9.56232E-16
1.54212E-05 7.77634E-16
1.71822E-05 6.38812E-16
1.90385E-05 5.29200E-16
2.09899E-05 4.42485E-16
2.30365E-05 3.72479E-16
2.51783E-05 3.16203E-16
2.74153E-05 2.69642E-16
2.97475E-05 2.31597E-16
3.21749E-05 1.99808E-16
3.46974E-05 1.73441E-16
3.73152E-05 1.51209E-16
4.00281E-05 1.32506E-16
4.28362E-05 1.16568E-16
4.57395E-05 1.02979E-16
4.87380E-05 9.12913E-17
5.18317E-05 8.12170E-17
5.50205E-05 7.24858E-17
5.83045E-05 6.48946E-17
6.16838E-05 5.82738E-17
6.51582E-05 5.24739E-17
6.87277E-05 4.73845E-17
7.23925E-05 4.28935E-17
7.61524E-05 3.89281E-17
9.21439E-05 2.69840E-17
1.09658E-04 1.92887E-17
1.28695E-04 1.41526E-17
1.49255E-04 1.06170E-17
1.71338E-04 8.11936E-18
1.94942E-04 6.31393E-18
2.20070E-04 4.98278E-18
2.46720E-04 3.98399E-18
2.74892E-04 3.22279E-18
3.04586E-04 2.63458E-18
3.35803E-04 2.17431E-18
3.68542E-04 1.81006E-18
4.02802E-04 1.51880E-18
4.38585E-04 1.28369E-18
4.75889E-04 1.09226E-18
5.14715E-04 9.35149E-19
5.55063E-04 8.05237E-19
5.96931E-04 6.97080E-19
6.40321E-04 6.06452E-19
6.85233E-04 5.30059E-19
7.31665E-04 4.65304E-19
7.79618E-04 4.10124E-19
8.29092E-04 3.62874E-19
8.80086E-04 3.22223E-19
9.32601E-04 2.87099E-19
9.86636E-04 2.56624E-19
1.04219E-03 2.30080E-19
1.09927E-03 2.06875E-19
1.15786E-03 1.86516E-19
1.21797E-03 1.68597E-19
1.27961E-03 1.52774E-19
1.34276E-03 1.38761E-19
1.40743E-03 1.26314E-19
1.47362E-03 1.15229E-19
1.54133E-03 1.05331E-19
1.61056E-03 9.64700E-20
1.68131E-03 8.85192E-20
1.75357E-03 8.13687E-20
1.82735E-03 7.49237E-20
1.90265E-03 6.91026E-20
1.97947E-03 6.38342E-20
2.05780E-03 5.90569E-20
2.13765E-03 5.47166E-20
2.21902E-03 5.07667E-20
2.30190E-03 4.71658E-20
2.38630E-03 4.38774E-20
2.47222E-03 4.08694E-20
2.55965E-03 3.81140E-20
2.64859E-03 3.55862E-20
2.73905E-03 3.32637E-20
2.83103E-03 3.11267E-20
2.92452E-03 2.91580E-20
3.01952E-03 2.73419E-20
3.11604E-03 2.56645E-20
3.21407E-03 2.41131E-20
3.31362E-03 2.26767E-20
3.41468E-03 2.13452E-20
3.51725E-03 2.01097E-20
3.62133E-03 1.89618E-20
3.72692E-03 1.78943E-20
3.83403E-03 1.69005E-20
3.94265E-03 1.59744E-20
4.05278E-03 1.51107E-20
4.16442E-03 1.43042E-20
4.27757E-03 1.35505E-20
4.39223E-03 1.28456E-20
4.50840E-03 1.21857E-20
4.62608E-03 1.15674E-20
4.74527E-03 1.09877E-20
4.86597E-03 1.04436E-20
4.98817E-03 9.93259E-21
5.11188E-03 9.45230E-21
5.23711E-03 9.00052E-21
5.36383E-03 8.57528E-21
5.49207E-03 8.17472E-21
5.62181E-03 7.79715E-21
5.75306E-03 7.44099E-21
5.88581E-03 7.10482E-21
6.02007E-03 6.78732E-21
6.15583E-03 6.48726E-21
6.29310E-03 6.20349E-21
6.43187E-03 5.93498E-21
6.57214E-03 5.68075E-21
6.71392E-03 5.43992E-21
6.85720E-03 5.21162E-21
7.00198E-03 4.99511E-21
7.14827E-03 4.78965E-21
7.29605E-03 4.59458E-21
7.44534E-03 4.40928E-21
7.59612E-03 4.23317E-21
7.97965E-03 3.82963E-21
8.37255E-03 3.47276E-21
8.77480E-03 3.15625E-21
9.18641E-03 2.87476E-21
9.60736E-03 2.62377E-21
1.00376E-02 2.39939E-21
1.04773E-02 2.19833E-21
1.09262E-02 2.01776E-21
1.13844E-02 1.85521E-21
1.18520E-02 1.70860E-21
1.23288E-02 1.57608E-21
1.28150E-02 1.45607E-21
1.33104E-02 1.34718E-21
1.38150E-02 1.24820E-21
1.43290E-02 1.15807E-21
1.48521E-02 1.07587E-21
1.53845E-02 1.00078E-21
1.59262E-02 9.32074E-22
1.64770E-02 8.69113E-22
1.70371E-02 8.11335E-22
1.76063E-02 7.58237E-22
1.81848E-02 7.09375E-22
1.87724E-02 6.64351E-22
1.93692E-02 6.22811E-22
1.99751E-02 5.84438E-22
2.05901E-02 5.48948E-22
2.12143E-02 5.16086E-22
2.18476E-02 4.85623E-22
2.24900E-02 4.57353E-22
2.31415E-02 4.31091E-22
2.38021E-02 4.06668E-22
2.44717E-02 3.83933E-22
2.51504E-02 3.62749E-22
2.58382E-02 3.42990E-22
2.65349E-02 3.24545E-22
2.72407E-02 3.07310E-22
2.79555E-02 2.91192E-22
2.86793E-02 2.76105E-22
2.94120E-02 2.61972E-22
3.01537E-02 2.48722E-22
3.09043E-02 2.36290E-22
3.16639E-02 2.24615E-22
3.24324E-02 2.13645E-22
3.32098E-02 2.03329E-22
3.39961E-02 1.93620E-22
3.47912E-02 1.84478E-22
3.55952E-02 1.75862E-22
3.64081E-02 1.67737E-22
3.72297E-02 1.60070E-22
3.80602E-02 1.52831E-22
3.88995E-02 1.45991E-22
3.97476E-02 1.39525E-22
4.06044E-02 1.33408E-22
4.14700E-02 1.27618E-22
4.23443E-02 1.22136E-22
4.32273E-02 1.16940E-22
4.41190E-02 1.12014E-22
4.50194E-02 1.07341E-22
4.59284E-02 1.02906E-22
4.68461E-02 9.86950E-23
4.87074E-02 9.08906E-23
5.06030E-02 8.38323E-23
5.25328E-02 7.74367E-23
5.44967E-02 7.16311E-23
5.64946E-02 6.63517E-23
5.85262E-02 6.15429E-23
6.05914E-02 5.71555E-23
6.26901E-02 5.31463E-23
6.48222E-02 4.94772E-23
6.69873E-02 4.61144E-23
6.91854E-02 4.30279E-23
7.14163E-02 4.01913E-23
7.36799E-02 3.75807E-23
7.59760E-02 3.51751E-23
7.83043E-02 3.29558E-23
8.06647E-02 3.09057E-23
8.30571E-02 2.90097E-23
8.54812E-02 2.72543E-23
8.79369E-02 2.56273E-23
9.04240E-02 2.41176E-23
9.29422E-02 2.27154E-23
9.54915E-02 2.14117E-23
9.80716E-02 2.01983E-23
1.00682E-01 1.90680E-23
1.03323E-01 1.80141E-23
1.05995E-01 1.70304E-23
1.08696E-01 1.61117E-23
1.11427E-01 1.52527E-23
1.14188E-01 1.44490E-23
1.16978E-01 1.36964E-23
1.19797E-01 1.29911E-23
1.22645E-01 1.23295E-23
1.25522E-01 1.17086E-23
1.28428E-01 1.11254E-23
1.31361E-01 1.05772E-23
1.34323E-01 1.00615E-23
1.37313E-01 9.57610E-24
1.40330E-01 9.11889E-24
1.43375E-01 8.68797E-24
1.46447E-01 8.28155E-24
1.49545E-01 7.89801E-24
1.52671E-01 7.53583E-24
1.55823E-01 7.19361E-24
1.59001E-01 6.87008E-24
1.62205E-01 6.56403E-24
1.65435E-01 6.27435E-24
1.68690E-01 6.00003E-24
1.71970E-01 5.74010E-24
1.75276E-01 5.49369E-24
1.78606E-01 5.25996E-24
1.81961E-01 5.03815E-24
1.85340E-01 4.82756E-24
1.88743E-01 4.62751E-24
1.92169E-01 4.43739E-24
1.95619E-01 4.25663E-24
1.99092E-01 4.08467E-24
2.02589E-01 3.92102E-24
2.06107E-01 3.76521E-24
2.09649E-01 3.61681E-24
2.13212E-01 3.47538E-24
2.16797E-01 3.34057E-24
2.20404E-01 3.21199E-24
2.24032E-01 3.08933E-24
2.27680E-01 2.97224E-24
2.31350E-01 2.86045E-24
2.35040E-01 2.75368E-24
2.38751E-01 2.65164E-24
2.42481E-01 2.55406E-24
2.46231E-01 2.46075E-24
2.50000E-01 2.37149E-24
2.53788E-01 2.28608E-24
2.57595E-01 2.20431E-24
2.61421E-01 2.12602E-24
2.65264E-01 2.05102E-24
2.69126E-01 1.97915E-24
2.73005E-01 1.91026E-24
2.76901E-01 1.84421E-24
2.80814E-01 1.78086E-24
2.84744E-01 1.72008E-24
2.88691E-01 1.66174E-24
2.92653E-01 1.60574E-24
2.96632E-01 1.55197E-24
3.00625E-01 1.50031E-24
3.04634E-01 1.45068E-24
3.08658E-01 1.40298E-24
3.12697E-01 1.35712E-24
3.16749E-01 1.31302E-24
3.20816E-01 1.27061E-24
3.24896E-01 1.22980E-24
3.28990E-01 1.19052E-24
3.33097E-01 1.15271E-24
3.37216E-01 1.11631E-24
3.41348E-01 1.08124E-24
3.45492E-01 1.04747E-24
3.49647E-01 1.01492E-24
3.53814E-01 9.83550E-25
3.57992E-01 9.53309E-25
3.62181E-01 9.24149E-25
3.66381E-01 8.96025E-25
3.70590E-01 8.68893E-25
3.74810E-01 8.42714E-25
3.79039E-01 8.17447E-25
3.83277E-01 7.93057E-25
3.87524E-01 7.69507E-25
3.91780E-01 7.46765E-25
3.96044E-01 7.24796E-25
4.00316E-01 7.03572E-25
4.04596E-01 6.83063E-25
4.08882E-01 6.63240E-25
4.13176E-01 6.44077E-25
4.17476E-01 6.25548E-25
4.21783E-01 6.07630E-25
4.26095E-01 5.90298E-25
4.30413E-01 5.73530E-25
4.34737E-01 5.57305E-25
4.39065E-01 5.41602E-25
4.43398E-01 5.26403E-25
4.47736E-01 5.11688E-25
4.52077E-01 4.97439E-25
4.56422E-01 4.83639E-25
4.60770E-01 4.70272E-25
4.65122E-01 4.57321E-25
4.69476E-01 4.44773E-25
4.73832E-01 4.32612E-25
4.78190E-01 4.20825E-25
4.82550E-01 4.09398E-25
4.86912E-01 3.98318E-25
4.91274E-01 3.87574E-25
4.95637E-01 3.77153E-25
5.00000E-01 3.67045E-25
5.04363E-01 3.57238E-25
5.08726E-01 3.47721E-25
5.13088E-01 3.38486E-25
5.17450E-01 3.29523E-25
5.21810E-01 3.20821E-25
5.26168E-01 3.12373E-25
5.30524E-01 3.04170E-25
5.34878E-01 2.96203E-25
5.39230E-01 2.88465E-25
5.43578E-01 2.80948E-25
5.47923E-01 2.73645E-25
5.52264E-01 2.66549E-25
5.56602E-01 2.59653E-25
5.60935E-01 2.52950E-25
5.65263E-01 2.46435E-25
5.69587E-01 2.40102E-25
5.73905E-01 2.33944E-25
5.78217E-01 2.27955E-25
5.82524E-01 2.22131E-25
5.86824E-01 2.16467E-25
5.91118E-01 2.10957E-25
5.95404E-01 2.05596E-25
5.99684E-01 2.00381E-25
6.03956E-01 1.95305E-25
6.08220E-01 1.90366E-25
6.12476E-01 1.85558E-25
6.16723E-01 1.80879E-25
6.20961E-01 1.76323E-25
6.25190E-01 1.71888E-25
6.29410E-01 1.67569E-25
6.33619E-01 1.63363E-25
6.37819E-01 1.59266E-25
6.42008E-01 1.55277E-25
6.46186E-01 1.51390E-25
6.50353E-01 1.47604E-25
6.54508E-01 1.43915E-25
6.58652E-01 1.40320E-25
6.62784E-01 1.36818E-25
6.66903E-01 1.33404E-25
6.71010E-01 1.30076E-25
6.75104E-01 1.26833E-25
6.79184E-01 1.23671E-25
6.83251E-01 1.20589E-25
6.87303E-01 1.17584E-25
6.91342E-01 1.14653E-25
6.95366E-01 1.11795E-25
6.99375E-01 1.09008E-25
7.03368E-01 1.06290E-25
7.07347E-01 1.03638E-25
7.11309E-01 1.01052E-25
7.15256E-01 9.85286E-26
7.19186E-01 9.60668E-26
7.23099E-01 9.36648E-26
7.26995E-01 9.13209E-26
7.30874E-01 8.90337E-26
7.34736E-01 8.68016E-26
7.38579E-01 8.46231E-26
7.42405E-01 8.24968E-26
7.46212E-01 8.04212E-26
7.50000E-01 7.83952E-26
7.53769E-01 7.64172E-26
7.57519E-01 7.44862E-26
7.61249E-01 7.26008E-26
7.64960E-01 7.07599E-26
7.68650E-01 6.89623E-26
7.72320E-01 6.72069E-26
7.75968E-01 6.54926E-26
7.79596E-01 6.38184E-26
7.83203E-01 6.21833E-26
7.86788E-01 6.05862E-26
7.90351E-01 5.90263E-26
7.93893E-01 5.75025E-26
7.97411E-01 5.60139E-26
8.00908E-01 5.45598E-26
8.04381E-01 5.31392E-26
8.07831E-01 5.17513E-26
8.11257E-01 5.03954E-26
8.14660E-01 4.90705E-26
8.18039E-01 4.77761E-26
8.21394E-01 4.65112E-26
8.24724E-01 4.52753E-26
8.28030E-01 4.40676E-26
8.31310E-01 4.28875E-26
8.34565E-01 4.17343E-26
8.37795E-01 4.06074E-26
8.40999E-01 3.95061E-26
8.44177E-01 3.84298E-26
8.47329E-01 3.73780E-26
8.50455E-01 3.63502E-26
8.53553E-01 3.53456E-26
8.56625E-01 3.43639E-26
8.59670E-01 3.34044E-26
8.62687E-01 3.24668E-26
8.65677E-01 3.15504E-26
8.68639E-01 3.06549E-26
8.71572E-01 2.97797E-26
8.74478E-01 2.89244E-26
8.77355E-01 2.80886E-26
8.80203E-01 2.72718E-26
8.83022E-01 2.64737E-26
8.85812E-01 2.56937E-26
8.88573E-01 2.49316E-26
8.91304E-01 2.41869E-26
8.94005E-01 2.34593E-26
8.96677E-01 2.27484E-26
8.99318E-01 2.20538E-26
9.01928E-01 2.13753E-26
9.04508E-01 2.07125E-26
9.07058E-01 2.00650E-26
9.09576E-01 1.94326E-26
9.12063E-01 1.88149E-26
9.14519E-01 1.82117E-26
9.16943E-01 1.76226E-26
9.19335E-01 1.70474E-26
9.21696E-01 1.64859E-26
9.24024E-01 1.59376E-26
9.26320E-01 1.54025E-26
9.28584E-01 1.48802E-26
9.30815E-01 1.43705E-26
9.33013E-01 1.38731E-26
9.35178E-01 1.33879E-26
9.37310E-01 1.29146E-26
9.39409E-01 1.24530E-26
9.41474E-01 1.20028E-26
9.43505E-01 1.15639E-26
9.45503E-01 1.11361E-26
9.47467E-01 1.07192E-26
9.49397E-01 1.03129E-26
9.51293E-01 9.91716E-27
9.53154E-01 9.53176E-27
9.54981E-01 9.15651E-27
9.56773E-01 8.79126E-27
9.58530E-01 8.43583E-27
9.60252E-01 8.09008E-27
9.61940E-01 7.75386E-27
9.63592E-01 7.42701E-27
9.65209E-01 7.10939E-27
9.66790E-01 6.80087E-27
9.68336E-01 6.50130E-27
9.69846E-01 6.21057E-27
9.71321E-01 5.92854E-27
9.72759E-01 5.65510E-27
9.74162E-01 5.39012E-27
9.75528E-01 5.13349E-27
9.76858E-01 4.88510E-27
9.78152E-01 4.64485E-27
9.79410E-01 4.41263E-27
9.80631E-01 4.18835E-27
9.81815E-01 3.97191E-27
9.82963E-01 3.76321E-27
9.84074E-01 3.56218E-27
9.85148E-01 3.36873E-27
9.86185E-01 3.18276E-27
9.87185E-01 3.00422E-27
9.88148E-01 2.83302E-27
9.89074E-01 2.66909E-27
9.89962E-01 2.51236E-27
9.90814E-01 2.36276E-27
9.91627E-01 2.22024E-27
9.92404E-01 2.08474E-27
9.93143E-01 1.95620E-27
9.93844E-01 1.83456E-27
9.94508E-01 1.71978E-27
9.95134E-01 1.61181E-27
9.95722E-01 1.51060E-27
9.96273E-01 1.41611E-27
9.96786E-01 1.32831E-27
9.97261E-01 1.24716E-27
9.97698E-01 1.17262E-27
9.98097E-01 1.10466E-27
9.98459E-01 1.04326E-27
9.98782E-01 9.88388E-28
9.99067E-01 9.40025E-28
9.99315E-01 8.98151E-28
9.99524E-01 8.62747E-28
9.99695E-01 8.33800E-28
9.99829E-01 8.11299E-28
9.99924E-01 7.95232E-28
9.99981E-01 7.85595E-28
1.00000E+00 7.82383E-28
