 #
 # Subroutine ELSEPA. Elastic scattering of electrons and positrons
 #                    by neutral atoms and positive ions
 #
 # Projectile: positron
 # Kinetic energy = 1.25000E+08 eV = 4.59367E+06 a.u.
 #
 # WARNING: High-energy factorization with free-atom DF screening.
 #          Absorption, polarization and exchange corrections are
 #          switched off.
 #          Phase shifts are calculated for the bare nucleus.
 #          Scattering amplitudes are not evaluated.
 #
 # Element: Re,  Z =  75,  atomic weight = 1.86207E+02 g/mol
 #
 # Nuclear model: Fermi distribution
 #                Average radius = 6.11011E-13 cm
 #                Skin thickness = 5.46000E-14 cm
 #
 # Number of electrons = 75
 #
 # Total elastic cross section = 7.60321E-18 cm**2 = 2.71515E-01 a0**2
 # 1st transport cross section = 6.59176E-25 cm**2 = 2.35396E-08 a0**2
 # 2nd transport cross section = 1.96525E-24 cm**2 = 7.01802E-08 a0**2
 #
 #
 # Differential cross section:                       MU=(1-COS(THETA))/2
 #
 #  THETA        MU          DCS          DCS        Sherman      error
 #  (deg)                 (cm**2/sr)   (a0**2/sr)    function
 #----------------------------------------------------------------------
0.00000E+00 8.53218E-10
7.61557E-13 8.50079E-10
1.18994E-12 8.48326E-10
1.71346E-12 8.46193E-10
2.33225E-12 8.43684E-10
3.04617E-12 8.40805E-10
3.85530E-12 8.37564E-10
4.75964E-12 8.33966E-10
5.75917E-12 8.30021E-10
6.85391E-12 8.25737E-10
8.04379E-12 8.21123E-10
9.32893E-12 8.16190E-10
1.07092E-11 8.10947E-10
1.21847E-11 8.05406E-10
1.37554E-11 7.99579E-10
1.54213E-11 7.93445E-10
1.71823E-11 7.87040E-10
1.90386E-11 7.80418E-10
2.09900E-11 7.73595E-10
2.30367E-11 7.66564E-10
2.51785E-11 7.59209E-10
2.74156E-11 7.51700E-10
2.97478E-11 7.44053E-10
3.21752E-11 7.36285E-10
3.46979E-11 7.28239E-10
3.73157E-11 7.20049E-10
4.00286E-11 7.11783E-10
4.28368E-11 7.03455E-10
4.57402E-11 6.94977E-10
4.87388E-11 6.86311E-10
5.18325E-11 6.77626E-10
5.50215E-11 6.68933E-10
5.83057E-11 6.60238E-10
6.16850E-11 6.51289E-10
6.51595E-11 6.42371E-10
6.87293E-11 6.33493E-10
7.23943E-11 6.24665E-10
7.61544E-11 6.15709E-10
1.18991E-10 5.27989E-10
1.71347E-10 4.47434E-10
2.33223E-10 3.77245E-10
3.04617E-10 3.17843E-10
3.85531E-10 2.68639E-10
4.75965E-10 2.28188E-10
5.75917E-10 1.94917E-10
6.85389E-10 1.67484E-10
8.04380E-10 1.44774E-10
9.32891E-10 1.25845E-10
1.07092E-09 1.09921E-10
1.21847E-09 9.64737E-11
1.37554E-09 8.50427E-11
1.54213E-09 7.48553E-11
1.71823E-09 6.60794E-11
1.90386E-09 5.88526E-11
2.09900E-09 5.28476E-11
2.30367E-09 4.76871E-11
2.51785E-09 4.26295E-11
2.74156E-09 3.83664E-11
2.97478E-09 3.47474E-11
3.21752E-09 3.16545E-11
3.46978E-09 2.86941E-11
3.73156E-09 2.60643E-11
4.00286E-09 2.37919E-11
4.28368E-09 2.18179E-11
4.57402E-09 2.00162E-11
4.87388E-09 1.83297E-11
5.18326E-09 1.68508E-11
5.50215E-09 1.55485E-11
5.83057E-09 1.43944E-11
6.16850E-09 1.32722E-11
6.51596E-09 1.22761E-11
6.87293E-09 1.13890E-11
7.23942E-09 1.05963E-11
7.61544E-09 9.84646E-12
1.18991E-08 5.04316E-12
1.71347E-08 2.81136E-12
2.33223E-08 1.67190E-12
3.04617E-08 1.05077E-12
3.85531E-08 6.94574E-13
4.75965E-08 4.78547E-13
5.75917E-08 3.41791E-13
6.85389E-08 2.51113E-13
8.04380E-08 1.88741E-13
9.32891E-08 1.44652E-13
1.07092E-07 1.12741E-13
1.21847E-07 8.91655E-14
1.37554E-07 7.14220E-14
1.54213E-07 5.78204E-14
1.71823E-07 4.73553E-14
1.90386E-07 3.91271E-14
2.09900E-07 3.26407E-14
2.30367E-07 2.74094E-14
2.51785E-07 2.32036E-14
2.74156E-07 1.97664E-14
2.97478E-07 1.69449E-14
3.21752E-07 1.46103E-14
3.46978E-07 1.26609E-14
3.73156E-07 1.10304E-14
4.00286E-07 9.64932E-15
4.28368E-07 8.48068E-15
4.57402E-07 7.48241E-15
4.87388E-07 6.62728E-15
5.18325E-07 5.89130E-15
5.50215E-07 5.25405E-15
5.83057E-07 4.70171E-15
6.16850E-07 4.21911E-15
6.51596E-07 3.79760E-15
6.87293E-07 3.42719E-15
7.23942E-07 3.10100E-15
7.61543E-07 2.81286E-15
1.18991E-06 1.18651E-15
1.71347E-06 5.83413E-16
2.33223E-06 3.19062E-16
3.04617E-06 1.88750E-16
3.85531E-06 1.18638E-16
4.75964E-06 7.82512E-17
5.75916E-06 5.36762E-17
6.85388E-06 3.80347E-17
8.04378E-06 2.76984E-17
9.32888E-06 2.06469E-17
1.07092E-05 1.57033E-17
1.21846E-05 1.21546E-17
1.37553E-05 9.55395E-18
1.54212E-05 7.61293E-18
1.71822E-05 6.14060E-18
1.90385E-05 5.00472E-18
2.09899E-05 4.12443E-18
2.30365E-05 3.42877E-18
2.51783E-05 2.87288E-18
2.74153E-05 2.42451E-18
2.97475E-05 2.05991E-18
3.21749E-05 1.76128E-18
3.46974E-05 1.51497E-18
3.73152E-05 1.31039E-18
4.00281E-05 1.13933E-18
4.28362E-05 9.95335E-19
4.57395E-05 8.73361E-19
4.87380E-05 7.69452E-19
5.18317E-05 6.80484E-19
5.50205E-05 6.03963E-19
5.83045E-05 5.37878E-19
6.16838E-05 4.80586E-19
6.51582E-05 4.30732E-19
6.87277E-05 3.87188E-19
7.23925E-05 3.49015E-19
7.61524E-05 3.15577E-19
9.21439E-05 2.15590E-19
1.09658E-04 1.52219E-19
1.28695E-04 1.10511E-19
1.49255E-04 8.21449E-20
1.71338E-04 6.23213E-20
1.94942E-04 4.81283E-20
2.20070E-04 3.77529E-20
2.46720E-04 3.00270E-20
2.74892E-04 2.41786E-20
3.04586E-04 1.96863E-20
3.35803E-04 1.61897E-20
3.68542E-04 1.34355E-20
4.02802E-04 1.12423E-20
4.38585E-04 9.47851E-21
4.75889E-04 8.04711E-21
5.14715E-04 6.87573E-21
5.55063E-04 5.90970E-21
5.96931E-04 5.10733E-21
6.40321E-04 4.43645E-21
6.85233E-04 3.87205E-21
7.31665E-04 3.39451E-21
7.79618E-04 2.98824E-21
8.29092E-04 2.64088E-21
8.80086E-04 2.34247E-21
9.32601E-04 2.08497E-21
9.86636E-04 1.86183E-21
1.04219E-03 1.66770E-21
1.09927E-03 1.49817E-21
1.15786E-03 1.34959E-21
1.21797E-03 1.21895E-21
1.27961E-03 1.10369E-21
1.34276E-03 1.00170E-21
1.40743E-03 9.11200E-22
1.47362E-03 8.30660E-22
1.54133E-03 7.58800E-22
1.61056E-03 6.94526E-22
1.68131E-03 6.36892E-22
1.75357E-03 5.85073E-22
1.82735E-03 5.38397E-22
1.90265E-03 4.96266E-22
1.97947E-03 4.58157E-22
2.05780E-03 4.23621E-22
2.13765E-03 3.92263E-22
2.21902E-03 3.63739E-22
2.30190E-03 3.37748E-22
2.38630E-03 3.14024E-22
2.47222E-03 2.92335E-22
2.55965E-03 2.72476E-22
2.64859E-03 2.54264E-22
2.73905E-03 2.37539E-22
2.83103E-03 2.22158E-22
2.92452E-03 2.07993E-22
3.01952E-03 1.94931E-22
3.11604E-03 1.82870E-22
3.21407E-03 1.71721E-22
3.31362E-03 1.61402E-22
3.41468E-03 1.51840E-22
3.51725E-03 1.42969E-22
3.62133E-03 1.34731E-22
3.72692E-03 1.27073E-22
3.83403E-03 1.19945E-22
3.94265E-03 1.13306E-22
4.05278E-03 1.07115E-22
4.16442E-03 1.01336E-22
4.27757E-03 9.59380E-23
4.39223E-03 9.08904E-23
4.50840E-03 8.61666E-23
4.62608E-03 8.17421E-23
4.74527E-03 7.75945E-23
4.86597E-03 7.37033E-23
4.98817E-03 7.00498E-23
5.11188E-03 6.66169E-23
5.23711E-03 6.33888E-23
5.36383E-03 6.03512E-23
5.49207E-03 5.74907E-23
5.62181E-03 5.47952E-23
5.75306E-03 5.22535E-23
5.88581E-03 4.98551E-23
6.02007E-03 4.75905E-23
6.15583E-03 4.54510E-23
6.29310E-03 4.34284E-23
6.43187E-03 4.15150E-23
6.57214E-03 3.97041E-23
6.71392E-03 3.79890E-23
6.85720E-03 3.63639E-23
7.00198E-03 3.48231E-23
7.14827E-03 3.33615E-23
7.29605E-03 3.19742E-23
7.44534E-03 3.06569E-23
7.59612E-03 2.94053E-23
7.97965E-03 2.65393E-23
8.37255E-03 2.40070E-23
8.77480E-03 2.17633E-23
9.18641E-03 1.97698E-23
9.60736E-03 1.79942E-23
1.00376E-02 1.64085E-23
1.04773E-02 1.49893E-23
1.09262E-02 1.37161E-23
1.13844E-02 1.25715E-23
1.18520E-02 1.15404E-23
1.23288E-02 1.06097E-23
1.28150E-02 9.76794E-24
1.33104E-02 9.00533E-24
1.38150E-02 8.31318E-24
1.43290E-02 7.68393E-24
1.48521E-02 7.11095E-24
1.53845E-02 6.58838E-24
1.59262E-02 6.11107E-24
1.64770E-02 5.67449E-24
1.70371E-02 5.27458E-24
1.76063E-02 4.90779E-24
1.81848E-02 4.57094E-24
1.87724E-02 4.26118E-24
1.93692E-02 3.97601E-24
1.99751E-02 3.71315E-24
2.05901E-02 3.47059E-24
2.12143E-02 3.24652E-24
2.18476E-02 3.03931E-24
2.24900E-02 2.84749E-24
2.31415E-02 2.66974E-24
2.38021E-02 2.50488E-24
2.44717E-02 2.35182E-24
2.51504E-02 2.20959E-24
2.58382E-02 2.07731E-24
2.65349E-02 1.95418E-24
2.72407E-02 1.83947E-24
2.79555E-02 1.73252E-24
2.86793E-02 1.63273E-24
2.94120E-02 1.53954E-24
3.01537E-02 1.45245E-24
3.09043E-02 1.37101E-24
3.16639E-02 1.29480E-24
3.24324E-02 1.22343E-24
3.32098E-02 1.15656E-24
3.39961E-02 1.09385E-24
3.47912E-02 1.03502E-24
3.55952E-02 9.79780E-25
3.64081E-02 9.27892E-25
3.72297E-02 8.79121E-25
3.80602E-02 8.33253E-25
3.88995E-02 7.90094E-25
3.97476E-02 7.49460E-25
4.06044E-02 7.11184E-25
4.14700E-02 6.75111E-25
4.23443E-02 6.41097E-25
4.32273E-02 6.09010E-25
4.41190E-02 5.78725E-25
4.50194E-02 5.50128E-25
4.59284E-02 5.23113E-25
4.68461E-02 4.97582E-25
4.87074E-02 4.50608E-25
5.06030E-02 4.08546E-25
5.25328E-02 3.70823E-25
5.44967E-02 3.36940E-25
5.64946E-02 3.06461E-25
5.85262E-02 2.79008E-25
6.05914E-02 2.54248E-25
6.26901E-02 2.31887E-25
6.48222E-02 2.11670E-25
6.69873E-02 1.93370E-25
6.91854E-02 1.76786E-25
7.14163E-02 1.61742E-25
7.36799E-02 1.48081E-25
7.59760E-02 1.35663E-25
7.83043E-02 1.24366E-25
8.06647E-02 1.14079E-25
8.30571E-02 1.04703E-25
8.54812E-02 9.61509E-26
8.79369E-02 8.83442E-26
9.04240E-02 8.12125E-26
9.29422E-02 7.46927E-26
9.54915E-02 6.87281E-26
9.80716E-02 6.32679E-26
1.00682E-01 5.82661E-26
1.03323E-01 5.36816E-26
1.05995E-01 4.94770E-26
1.08696E-01 4.56186E-26
1.11427E-01 4.20761E-26
1.14188E-01 3.88218E-26
1.16978E-01 3.58309E-26
1.19797E-01 3.30806E-26
1.22645E-01 3.05506E-26
1.25522E-01 2.82220E-26
1.28428E-01 2.60780E-26
1.31361E-01 2.41032E-26
1.34323E-01 2.22834E-26
1.37313E-01 2.06059E-26
1.40330E-01 1.90591E-26
1.43375E-01 1.76321E-26
1.46447E-01 1.63154E-26
1.49545E-01 1.51000E-26
1.52671E-01 1.39778E-26
1.55823E-01 1.29413E-26
1.59001E-01 1.19837E-26
1.62205E-01 1.10989E-26
1.65435E-01 1.02810E-26
1.68690E-01 9.52474E-27
1.71970E-01 8.82543E-27
1.75276E-01 8.17858E-27
1.78606E-01 7.58014E-27
1.81961E-01 7.02637E-27
1.85340E-01 6.51384E-27
1.88743E-01 6.03939E-27
1.92169E-01 5.60011E-27
1.95619E-01 5.19333E-27
1.99092E-01 4.81659E-27
2.02589E-01 4.46761E-27
2.06107E-01 4.14430E-27
2.09649E-01 3.84473E-27
2.13212E-01 3.56712E-27
2.16797E-01 3.30984E-27
2.20404E-01 3.07135E-27
2.24032E-01 2.85028E-27
2.27680E-01 2.64531E-27
2.31350E-01 2.45527E-27
2.35040E-01 2.27904E-27
2.38751E-01 2.11561E-27
2.42481E-01 1.96403E-27
2.46231E-01 1.82344E-27
2.50000E-01 1.69303E-27
2.53788E-01 1.57204E-27
2.57595E-01 1.45980E-27
2.61421E-01 1.35567E-27
2.65264E-01 1.25904E-27
2.69126E-01 1.16938E-27
2.73005E-01 1.08618E-27
2.76901E-01 1.00897E-27
2.80814E-01 9.37311E-28
2.84744E-01 8.70804E-28
2.88691E-01 8.09076E-28
2.92653E-01 7.51780E-28
2.96632E-01 6.98596E-28
3.00625E-01 6.49227E-28
3.04634E-01 6.03397E-28
3.08658E-01 5.60851E-28
3.12697E-01 5.21352E-28
3.16749E-01 4.84680E-28
3.20816E-01 4.50632E-28
3.24896E-01 4.19019E-28
3.28990E-01 3.89666E-28
3.33097E-01 3.62410E-28
3.37216E-01 3.37100E-28
3.41348E-01 3.13597E-28
3.45492E-01 2.91770E-28
3.49647E-01 2.71500E-28
3.53814E-01 2.52674E-28
3.57992E-01 2.35189E-28
3.62181E-01 2.18948E-28
3.66381E-01 2.03863E-28
3.70590E-01 1.89850E-28
3.74810E-01 1.76833E-28
3.79039E-01 1.64739E-28
3.83277E-01 1.53504E-28
3.87524E-01 1.43064E-28
3.91780E-01 1.33364E-28
3.96044E-01 1.24350E-28
4.00316E-01 1.15974E-28
4.04596E-01 1.08188E-28
4.08882E-01 1.00952E-28
4.13176E-01 9.42253E-29
4.17476E-01 8.79718E-29
4.21783E-01 8.21576E-29
4.26095E-01 7.67513E-29
4.30413E-01 7.17236E-29
4.34737E-01 6.70475E-29
4.39065E-01 6.26978E-29
4.43398E-01 5.86512E-29
4.47736E-01 5.48859E-29
4.52077E-01 5.13820E-29
4.56422E-01 4.81206E-29
4.60770E-01 4.50845E-29
4.65122E-01 4.22576E-29
4.69476E-01 3.96250E-29
4.73832E-01 3.71728E-29
4.78190E-01 3.48882E-29
4.82550E-01 3.27592E-29
4.86912E-01 3.07748E-29
4.91274E-01 2.89246E-29
4.95637E-01 2.71992E-29
5.00000E-01 2.55897E-29
5.04363E-01 2.40878E-29
5.08726E-01 2.26860E-29
5.13088E-01 2.13772E-29
5.17450E-01 2.01548E-29
5.21810E-01 1.90126E-29
5.26168E-01 1.79452E-29
5.30524E-01 1.69472E-29
5.34878E-01 1.60137E-29
5.39230E-01 1.51402E-29
5.43578E-01 1.43226E-29
5.47923E-01 1.35569E-29
5.52264E-01 1.28395E-29
5.56602E-01 1.21671E-29
5.60935E-01 1.15365E-29
5.65263E-01 1.09450E-29
5.69587E-01 1.03897E-29
5.73905E-01 9.86817E-30
5.78217E-01 9.37817E-30
5.82524E-01 8.91750E-30
5.86824E-01 8.48419E-30
5.91118E-01 8.07639E-30
5.95404E-01 7.69237E-30
5.99684E-01 7.33054E-30
6.03956E-01 6.98943E-30
6.08220E-01 6.66765E-30
6.12476E-01 6.36394E-30
6.16723E-01 6.07710E-30
6.20961E-01 5.80604E-30
6.25190E-01 5.54973E-30
6.29410E-01 5.30721E-30
6.33619E-01 5.07760E-30
6.37819E-01 4.86009E-30
6.42008E-01 4.65390E-30
6.46186E-01 4.45833E-30
6.50353E-01 4.27271E-30
6.54508E-01 4.09642E-30
6.58652E-01 3.92890E-30
6.62784E-01 3.76962E-30
6.66903E-01 3.61806E-30
6.71010E-01 3.47378E-30
6.75104E-01 3.33635E-30
6.79184E-01 3.20535E-30
6.83251E-01 3.08042E-30
6.87303E-01 2.96121E-30
6.91342E-01 2.84739E-30
6.95366E-01 2.73866E-30
6.99375E-01 2.63474E-30
7.03368E-01 2.53536E-30
7.07347E-01 2.44027E-30
7.11309E-01 2.34924E-30
7.15256E-01 2.26206E-30
7.19186E-01 2.17852E-30
7.23099E-01 2.09844E-30
7.26995E-01 2.02164E-30
7.30874E-01 1.94794E-30
7.34736E-01 1.87720E-30
7.38579E-01 1.80927E-30
7.42405E-01 1.74401E-30
7.46212E-01 1.68130E-30
7.50000E-01 1.62101E-30
7.53769E-01 1.56302E-30
7.57519E-01 1.50724E-30
7.61249E-01 1.45356E-30
7.64960E-01 1.40188E-30
7.68650E-01 1.35212E-30
7.72320E-01 1.30419E-30
7.75968E-01 1.25801E-30
7.79596E-01 1.21351E-30
7.83203E-01 1.17061E-30
7.86788E-01 1.12925E-30
7.90351E-01 1.08936E-30
7.93893E-01 1.05089E-30
7.97411E-01 1.01377E-30
8.00908E-01 9.77957E-31
8.04381E-01 9.43391E-31
8.07831E-01 9.10025E-31
8.11257E-01 8.77814E-31
8.14660E-01 8.46713E-31
8.18039E-01 8.16679E-31
8.21394E-01 7.87672E-31
8.24724E-01 7.59654E-31
8.28030E-01 7.32588E-31
8.31310E-01 7.06440E-31
8.34565E-01 6.81175E-31
8.37795E-01 6.56762E-31
8.40999E-01 6.33171E-31
8.44177E-01 6.10372E-31
8.47329E-01 5.88337E-31
8.50455E-01 5.67039E-31
8.53553E-01 5.46453E-31
8.56625E-01 5.26555E-31
8.59670E-01 5.07319E-31
8.62687E-01 4.88724E-31
8.65677E-01 4.70748E-31
8.68639E-01 4.53370E-31
8.71572E-01 4.36569E-31
8.74478E-01 4.20327E-31
8.77355E-01 4.04624E-31
8.80203E-01 3.89443E-31
8.83022E-01 3.74767E-31
8.85812E-01 3.60578E-31
8.88573E-01 3.46861E-31
8.91304E-01 3.33600E-31
8.94005E-01 3.20780E-31
8.96677E-01 3.08387E-31
8.99318E-01 2.96408E-31
9.01928E-01 2.84827E-31
9.04508E-01 2.73634E-31
9.07058E-01 2.62815E-31
9.09576E-01 2.52357E-31
9.12063E-01 2.42251E-31
9.14519E-01 2.32483E-31
9.16943E-01 2.23044E-31
9.19335E-01 2.13923E-31
9.21696E-01 2.05110E-31
9.24024E-01 1.96595E-31
9.26320E-01 1.88368E-31
9.28584E-01 1.80421E-31
9.30815E-01 1.72745E-31
9.33013E-01 1.65330E-31
9.35178E-01 1.58169E-31
9.37310E-01 1.51255E-31
9.39409E-01 1.44578E-31
9.41474E-01 1.38132E-31
9.43505E-01 1.31909E-31
9.45503E-01 1.25903E-31
9.47467E-01 1.20106E-31
9.49397E-01 1.14513E-31
9.51293E-01 1.09117E-31
9.53154E-01 1.03912E-31
9.54981E-01 9.88918E-32
9.56773E-01 9.40510E-32
9.58530E-01 8.93843E-32
9.60252E-01 8.48862E-32
9.61940E-01 8.05517E-32
9.63592E-01 7.63759E-32
9.65209E-01 7.23541E-32
9.66790E-01 6.84815E-32
9.68336E-01 6.47539E-32
9.69846E-01 6.11670E-32
9.71321E-01 5.77167E-32
9.72759E-01 5.43990E-32
9.74162E-01 5.12101E-32
9.75528E-01 4.81464E-32
9.76858E-01 4.52044E-32
9.78152E-01 4.23806E-32
9.79410E-01 3.96718E-32
9.80631E-01 3.70749E-32
9.81815E-01 3.45868E-32
9.82963E-01 3.22048E-32
9.84074E-01 2.99259E-32
9.85148E-01 2.77476E-32
9.86185E-01 2.56674E-32
9.87185E-01 2.36827E-32
9.88148E-01 2.17914E-32
9.89074E-01 1.99911E-32
9.89962E-01 1.82798E-32
9.90814E-01 1.66555E-32
9.91627E-01 1.51163E-32
9.92404E-01 1.36603E-32
9.93143E-01 1.22859E-32
9.93844E-01 1.09914E-32
9.94508E-01 9.77531E-33
9.95134E-01 8.63621E-33
9.95722E-01 7.57275E-33
9.96273E-01 6.58369E-33
9.96786E-01 5.66779E-33
9.97261E-01 4.82406E-33
9.97698E-01 4.05144E-33
9.98097E-01 3.34905E-33
9.98459E-01 2.71603E-33
9.98782E-01 2.15166E-33
9.99067E-01 1.65524E-33
9.99315E-01 1.22619E-33
9.99524E-01 8.64019E-34
9.99695E-01 5.68284E-34
9.99829E-01 3.38620E-34
9.99924E-01 1.74777E-34
9.99981E-01 7.65430E-35
1.00000E+00 4.38147E-35
