 #
 # Subroutine ELSEPA. Elastic scattering of electrons and positrons
 #                    by neutral atoms and positive ions
 #
 # Projectile: positron
 # Kinetic energy = 6.00000E+08 eV = 2.20496E+07 a.u.
 #
 # WARNING: High-energy factorization with free-atom DF screening.
 #          Absorption, polarization and exchange corrections are
 #          switched off.
 #          Phase shifts are calculated for the bare nucleus.
 #          Scattering amplitudes are not evaluated.
 #
 # Element: Re,  Z =  75,  atomic weight = 1.86207E+02 g/mol
 #
 # Nuclear model: Fermi distribution
 #                Average radius = 6.11011E-13 cm
 #                Skin thickness = 5.46000E-14 cm
 #
 # Number of electrons = 75
 #
 # Total elastic cross section = 7.59437E-18 cm**2 = 2.71200E-01 a0**2
 # 1st transport cross section = 2.93201E-26 cm**2 = 1.04704E-09 a0**2
 # 2nd transport cross section = 8.79358E-26 cm**2 = 3.14025E-09 a0**2
 #
 #
 # Differential cross section:                       MU=(1-COS(THETA))/2
 #
 #  THETA        MU          DCS          DCS        Sherman      error
 #  (deg)                 (cm**2/sr)   (a0**2/sr)    function
 #----------------------------------------------------------------------
0.00000E+00 1.95316E-08
7.61557E-13 1.79960E-08
1.18994E-12 1.72211E-08
1.71346E-12 1.63495E-08
2.33225E-12 1.54142E-08
3.04617E-12 1.44458E-08
3.85530E-12 1.34711E-08
4.75964E-12 1.25120E-08
5.75917E-12 1.15842E-08
6.85391E-12 1.06996E-08
8.04379E-12 9.86766E-09
9.32893E-12 9.09247E-09
1.07092E-11 8.37556E-09
1.21847E-11 7.71624E-09
1.37554E-11 7.11239E-09
1.54213E-11 6.56097E-09
1.71823E-11 6.05840E-09
1.90386E-11 5.60082E-09
2.09900E-11 5.18440E-09
2.30367E-11 4.80475E-09
2.51785E-11 4.45892E-09
2.74156E-11 4.14375E-09
2.97478E-11 3.85618E-09
3.21752E-11 3.59344E-09
3.46979E-11 3.35303E-09
3.73157E-11 3.13273E-09
4.00286E-11 2.93052E-09
4.28368E-11 2.74462E-09
4.57402E-11 2.57346E-09
4.87388E-11 2.41555E-09
5.18325E-11 2.26949E-09
5.50215E-11 2.13442E-09
5.83057E-11 2.00934E-09
6.16850E-11 1.89334E-09
6.51595E-11 1.78152E-09
6.87293E-11 1.67414E-09
7.23943E-11 1.57664E-09
7.61544E-11 1.48792E-09
1.18991E-10 8.85270E-10
1.71347E-10 5.59120E-10
2.33223E-10 3.70630E-10
3.04617E-10 2.55508E-10
3.85531E-10 1.81722E-10
4.75965E-10 1.32477E-10
5.75917E-10 9.84732E-11
6.85389E-10 7.44150E-11
8.04380E-10 5.71179E-11
9.32891E-10 4.44751E-11
1.07092E-09 3.51006E-11
1.21847E-09 2.80569E-11
1.37554E-09 2.26971E-11
1.54213E-09 1.85753E-11
1.71823E-09 1.53489E-11
1.90386E-09 1.28020E-11
2.09900E-09 1.07748E-11
2.30367E-09 9.14247E-12
2.51785E-09 7.81409E-12
2.74156E-09 6.72191E-12
2.97478E-09 5.81565E-12
3.21752E-09 5.05779E-12
3.46978E-09 4.41987E-12
3.73156E-09 3.87981E-12
4.00286E-09 3.42017E-12
4.28368E-09 3.02697E-12
4.57402E-09 2.68888E-12
4.87388E-09 2.39670E-12
5.18326E-09 2.14293E-12
5.50215E-09 1.92173E-12
5.83057E-09 1.72821E-12
6.16850E-09 1.55835E-12
6.51596E-09 1.40831E-12
6.87293E-09 1.27569E-12
7.23942E-09 1.15894E-12
7.61544E-09 1.05583E-12
1.18991E-08 4.58156E-13
1.71347E-08 2.29681E-13
2.33223E-08 1.27490E-13
3.04617E-08 7.63404E-14
3.85531E-08 4.84717E-14
4.75965E-08 3.22439E-14
5.75917E-08 2.22738E-14
6.85389E-08 1.58733E-14
8.04380E-08 1.16130E-14
9.32891E-08 8.68925E-15
1.07092E-07 6.62926E-15
1.21847E-07 5.14430E-15
1.37554E-07 4.05241E-15
1.54213E-07 3.23523E-15
1.71823E-07 2.61393E-15
1.90386E-07 2.13478E-15
2.09900E-07 1.76055E-15
2.30367E-07 1.46485E-15
2.51785E-07 1.22871E-15
2.74156E-07 1.03829E-15
2.97478E-07 8.83383E-16
3.21752E-07 7.56324E-16
3.46978E-07 6.51316E-16
3.73156E-07 5.63919E-16
4.00286E-07 4.90705E-16
4.28368E-07 4.29000E-16
4.57402E-07 3.76698E-16
4.87388E-07 3.32129E-16
5.18325E-07 2.93962E-16
5.50215E-07 2.61124E-16
5.83057E-07 2.32746E-16
6.16850E-07 2.08120E-16
6.51596E-07 1.86666E-16
6.87293E-07 1.67906E-16
7.23942E-07 1.51445E-16
7.61543E-07 1.36953E-16
1.18991E-06 5.63850E-17
1.71347E-06 2.72767E-17
2.33223E-06 1.47523E-17
3.04617E-06 8.65862E-18
3.85531E-06 5.41014E-18
4.75964E-06 3.55161E-18
5.75916E-06 2.42672E-18
6.85388E-06 1.71386E-18
8.04378E-06 1.24449E-18
9.32888E-06 9.25318E-19
1.07092E-05 7.02186E-19
1.21846E-05 5.42418E-19
1.37553E-05 4.25600E-19
1.54212E-05 3.38595E-19
1.71822E-05 2.72722E-19
1.90385E-05 2.21989E-19
2.09899E-05 1.82732E-19
2.30365E-05 1.51753E-19
2.51783E-05 1.27031E-19
2.74153E-05 1.07114E-19
2.97475E-05 9.09362E-20
3.21749E-05 7.76985E-20
3.46974E-05 6.67897E-20
3.73152E-05 5.77373E-20
4.00281E-05 5.01734E-20
4.28362E-05 4.38108E-20
4.57395E-05 3.84248E-20
4.87380E-05 3.38394E-20
5.18317E-05 2.99154E-20
5.50205E-05 2.65422E-20
5.83045E-05 2.36305E-20
6.16838E-05 2.11074E-20
6.51582E-05 1.89128E-20
6.87277E-05 1.69968E-20
7.23925E-05 1.53180E-20
7.61524E-05 1.40259E-20
9.21439E-05 9.58231E-21
1.09658E-04 6.76443E-21
1.28695E-04 4.90856E-21
1.49255E-04 3.64548E-21
1.71338E-04 2.76219E-21
1.94942E-04 2.12942E-21
2.20070E-04 1.66665E-21
2.46720E-04 1.32196E-21
2.74892E-04 1.06101E-21
3.04586E-04 8.60606E-22
3.35803E-04 7.04678E-22
3.68542E-04 5.81936E-22
4.02802E-04 4.84290E-22
4.38585E-04 4.05858E-22
4.75889E-04 3.42304E-22
5.14715E-04 2.90390E-22
5.55063E-04 2.47670E-22
5.96931E-04 2.12277E-22
6.40321E-04 1.82767E-22
6.85233E-04 1.58020E-22
7.31665E-04 1.37155E-22
7.79618E-04 1.19473E-22
8.29092E-04 1.04420E-22
8.80086E-04 9.15471E-23
9.32601E-04 8.04944E-23
9.86636E-04 7.09679E-23
1.04219E-03 6.27272E-23
1.09927E-03 5.55749E-23
1.15786E-03 4.93473E-23
1.21797E-03 4.39087E-23
1.27961E-03 3.91458E-23
1.34276E-03 3.49634E-23
1.40743E-03 3.12817E-23
1.47362E-03 2.80330E-23
1.54133E-03 2.51600E-23
1.61056E-03 2.26138E-23
1.68131E-03 2.03527E-23
1.75357E-03 1.83410E-23
1.82735E-03 1.65480E-23
1.90265E-03 1.49471E-23
1.97947E-03 1.35154E-23
2.05780E-03 1.22331E-23
2.13765E-03 1.10830E-23
2.21902E-03 1.00499E-23
2.30190E-03 9.12070E-24
2.38630E-03 8.28398E-24
2.47222E-03 7.52961E-24
2.55965E-03 6.84871E-24
2.64859E-03 6.23348E-24
2.73905E-03 5.67702E-24
2.83103E-03 5.17322E-24
2.92452E-03 4.71670E-24
3.01952E-03 4.30265E-24
3.11604E-03 3.92681E-24
3.21407E-03 3.58540E-24
3.31362E-03 3.27503E-24
3.41468E-03 2.99268E-24
3.51725E-03 2.73565E-24
3.62133E-03 2.50153E-24
3.72692E-03 2.28815E-24
3.83403E-03 2.09357E-24
3.94265E-03 1.91603E-24
4.05278E-03 1.75397E-24
4.16442E-03 1.60596E-24
4.27757E-03 1.47074E-24
4.39223E-03 1.34714E-24
4.50840E-03 1.23413E-24
4.62608E-03 1.13076E-24
4.74527E-03 1.03618E-24
4.86597E-03 9.49618E-25
4.98817E-03 8.70371E-25
5.11188E-03 7.97802E-25
5.23711E-03 7.31335E-25
5.36383E-03 6.70443E-25
5.49207E-03 6.14648E-25
5.62181E-03 5.63516E-25
5.75306E-03 5.16649E-25
5.88581E-03 4.73687E-25
6.02007E-03 4.34301E-25
6.15583E-03 3.98189E-25
6.29310E-03 3.65076E-25
6.43187E-03 3.34713E-25
6.57214E-03 3.06869E-25
6.71392E-03 2.81336E-25
6.85720E-03 2.57921E-25
7.00198E-03 2.36448E-25
7.14827E-03 2.16758E-25
7.29605E-03 1.98702E-25
7.44534E-03 1.82146E-25
7.59612E-03 1.66966E-25
7.97965E-03 1.34317E-25
8.37255E-03 1.08056E-25
8.77480E-03 8.69490E-26
9.18641E-03 6.99984E-26
9.60736E-03 5.63987E-26
1.00376E-02 4.54982E-26
1.04773E-02 3.67695E-26
1.09262E-02 2.97862E-26
1.13844E-02 2.42036E-26
1.18520E-02 1.97430E-26
1.23288E-02 1.61795E-26
1.28150E-02 1.33320E-26
1.33104E-02 1.10546E-26
1.38150E-02 9.23005E-27
1.43290E-02 7.76463E-27
1.48521E-02 6.58330E-27
1.53845E-02 5.62632E-27
1.59262E-02 4.84622E-27
1.64770E-02 4.20547E-27
1.70371E-02 3.67448E-27
1.76063E-02 3.23002E-27
1.81848E-02 2.85396E-27
1.87724E-02 2.53219E-27
1.93692E-02 2.25378E-27
1.99751E-02 2.01034E-27
2.05901E-02 1.79539E-27
2.12143E-02 1.60401E-27
2.18476E-02 1.43244E-27
2.24900E-02 1.27778E-27
2.31415E-02 1.13785E-27
2.38021E-02 1.01094E-27
2.44717E-02 8.95720E-28
2.51504E-02 7.91132E-28
2.58382E-02 6.96304E-28
2.65349E-02 6.10502E-28
2.72407E-02 5.33081E-28
2.79555E-02 4.63460E-28
2.86793E-02 4.01102E-28
2.94120E-02 3.45493E-28
3.01537E-02 2.96143E-28
3.09043E-02 2.52573E-28
3.16639E-02 2.14320E-28
3.24324E-02 1.80931E-28
3.32098E-02 1.51969E-28
3.39961E-02 1.27010E-28
3.47912E-02 1.05650E-28
3.55952E-02 8.75024E-29
3.64081E-02 7.22027E-29
3.72297E-02 5.94090E-29
3.80602E-02 4.88033E-29
3.88995E-02 4.00922E-29
3.97476E-02 3.30073E-29
4.06044E-02 2.73052E-29
4.14700E-02 2.27669E-29
4.23443E-02 1.91974E-29
4.32273E-02 1.64241E-29
4.41190E-02 1.42966E-29
4.50194E-02 1.26844E-29
4.59284E-02 1.14758E-29
4.68461E-02 1.05764E-29
4.87074E-02 9.40374E-30
5.06030E-02 8.69462E-30
5.25328E-02 8.15225E-30
5.44967E-02 7.61021E-30
5.64946E-02 6.99368E-30
5.85262E-02 6.28770E-30
6.05914E-02 5.51232E-30
6.26901E-02 4.70421E-30
6.48222E-02 3.90400E-30
6.69873E-02 3.14828E-30
6.91854E-02 2.46524E-30
7.14163E-02 1.87307E-30
7.36799E-02 1.38017E-30
7.59760E-02 9.86509E-31
7.83043E-02 6.85557E-31
8.06647E-02 4.66371E-31
8.30571E-02 3.15563E-31
8.54812E-02 2.18962E-31
8.79369E-02 1.62909E-31
9.04240E-02 1.35150E-31
9.29422E-02 1.25370E-31
9.54915E-02 1.25414E-31
9.80716E-02 1.29270E-31
1.00682E-01 1.32874E-31
1.03323E-01 1.33823E-31
1.05995E-01 1.31027E-31
1.08696E-01 1.24362E-31
1.11427E-01 1.14344E-31
1.14188E-01 1.01854E-31
1.16978E-01 8.79163E-32
1.19797E-01 7.35316E-32
1.22645E-01 5.95710E-32
1.25522E-01 4.67134E-32
1.28428E-01 3.54229E-32
1.31361E-01 2.59549E-32
1.34323E-01 1.83811E-32
1.37313E-01 1.26258E-32
1.40330E-01 8.50734E-33
1.43375E-01 5.77759E-33
1.46447E-01 4.15780E-33
1.49545E-01 3.36782E-33
1.52671E-01 3.14802E-33
1.55823E-01 3.27383E-33
1.59001E-01 3.56369E-33
1.62205E-01 3.88131E-33
1.65435E-01 4.13381E-33
1.68690E-01 4.26673E-33
1.71970E-01 4.25730E-33
1.75276E-01 4.10700E-33
1.78606E-01 3.83415E-33
1.81961E-01 3.46715E-33
1.85340E-01 3.03882E-33
1.88743E-01 2.58190E-33
1.92169E-01 2.12583E-33
1.95619E-01 1.69479E-33
1.99092E-01 1.30663E-33
2.02589E-01 9.72795E-34
2.06107E-01 6.98712E-34
2.09649E-01 4.84711E-34
2.13212E-01 3.27107E-34
2.16797E-01 2.19380E-34
2.20404E-01 1.53294E-34
2.24032E-01 1.19899E-34
2.27680E-01 1.10346E-34
2.31350E-01 1.16501E-34
2.35040E-01 1.31358E-34
2.38751E-01 1.49268E-34
2.42481E-01 1.66005E-34
2.46231E-01 1.78718E-34
2.50000E-01 1.85779E-34
2.53788E-01 1.86590E-34
2.57595E-01 1.81352E-34
2.61421E-01 1.70836E-34
2.65264E-01 1.56165E-34
2.69126E-01 1.38630E-34
2.73005E-01 1.19535E-34
2.76901E-01 1.00084E-34
2.80814E-01 8.12995E-35
2.84744E-01 6.39831E-35
2.88691E-01 4.86968E-35
2.92653E-01 3.57710E-35
2.96632E-01 2.53281E-35
3.00625E-01 1.73164E-35
3.04634E-01 1.15498E-35
3.08658E-01 7.74874E-36
3.12697E-01 5.57810E-36
3.16749E-01 4.68198E-36
3.20816E-01 4.71080E-36
3.24896E-01 5.34300E-36
3.28990E-01 6.29937E-36
3.33097E-01 7.35178E-36
3.37216E-01 8.32602E-36
3.41348E-01 9.10078E-36
3.45492E-01 9.60294E-36
3.49647E-01 9.80107E-36
3.53814E-01 9.69741E-36
3.57992E-01 9.31957E-36
3.62181E-01 8.71240E-36
3.66381E-01 7.93067E-36
3.70590E-01 7.03275E-36
3.74810E-01 6.07544E-36
3.79039E-01 5.11028E-36
3.83277E-01 4.18095E-36
3.87524E-01 3.32181E-36
3.91780E-01 2.55744E-36
3.96044E-01 1.90295E-36
4.00316E-01 1.36489E-36
4.04596E-01 9.42337E-37
4.08882E-01 6.28610E-37
4.13176E-01 4.12587E-37
4.17476E-01 2.80362E-37
4.21783E-01 2.16527E-37
4.26095E-01 2.05377E-37
4.30413E-01 2.31855E-37
4.34737E-01 2.82239E-37
4.39065E-01 3.44648E-37
4.43398E-01 4.09333E-37
4.47736E-01 4.68744E-37
4.52077E-01 5.17494E-37
4.56422E-01 5.52182E-37
4.60770E-01 5.71182E-37
4.65122E-01 5.74309E-37
4.69476E-01 5.62544E-37
4.73832E-01 5.37683E-37
4.78190E-01 5.02087E-37
4.82550E-01 4.58398E-37
4.86912E-01 4.09319E-37
4.91274E-01 3.57443E-37
4.95637E-01 3.05118E-37
5.00000E-01 2.54359E-37
5.04363E-01 2.06783E-37
5.08726E-01 1.63607E-37
5.13088E-01 1.25655E-37
5.17450E-01 9.33637E-38
5.21810E-01 6.68612E-38
5.26168E-01 4.59934E-38
5.30524E-01 3.03883E-38
5.34878E-01 1.95233E-38
5.39230E-01 1.27530E-38
5.43578E-01 9.39980E-39
5.47923E-01 8.75452E-39
5.52264E-01 1.01365E-38
5.56602E-01 1.29167E-38
5.60935E-01 1.65273E-38
5.65263E-01 2.04858E-38
5.69587E-01 2.43983E-38
5.73905E-01 2.79577E-38
5.78217E-01 3.09426E-38
5.82524E-01 3.32072E-38
5.86824E-01 3.46790E-38
5.91118E-01 3.53396E-38
5.95404E-01 3.52240E-38
5.99684E-01 3.43971E-38
6.03956E-01 3.29527E-38
6.08220E-01 3.09995E-38
6.12476E-01 2.86547E-38
6.16723E-01 2.60363E-38
6.20961E-01 2.32558E-38
6.25190E-01 2.04153E-38
6.29410E-01 1.76059E-38
6.33619E-01 1.49045E-38
6.37819E-01 1.23713E-38
6.42008E-01 1.00523E-38
6.46186E-01 7.98102E-39
6.50353E-01 6.17256E-39
6.54508E-01 1.00000E-45
6.58652E-01 1.00000E-45
6.62784E-01 1.00000E-45
6.66903E-01 1.00000E-45
6.71010E-01 1.00000E-45
6.75104E-01 1.00000E-45
6.79184E-01 1.00000E-45
6.83251E-01 1.00000E-45
6.87303E-01 1.00000E-45
6.91342E-01 1.00000E-45
6.95366E-01 1.00000E-45
6.99375E-01 1.00000E-45
7.03368E-01 1.00000E-45
7.07347E-01 1.00000E-45
7.11309E-01 1.00000E-45
7.15256E-01 1.00000E-45
7.19186E-01 1.00000E-45
7.23099E-01 1.00000E-45
7.26995E-01 1.00000E-45
7.30874E-01 1.00000E-45
7.34736E-01 1.00000E-45
7.38579E-01 1.00000E-45
7.42405E-01 1.00000E-45
7.46212E-01 1.00000E-45
7.50000E-01 1.00000E-45
7.53769E-01 1.00000E-45
7.57519E-01 1.00000E-45
7.61249E-01 1.00000E-45
7.64960E-01 1.00000E-45
7.68650E-01 1.00000E-45
7.72320E-01 1.00000E-45
7.75968E-01 1.00000E-45
7.79596E-01 1.00000E-45
7.83203E-01 1.00000E-45
7.86788E-01 1.00000E-45
7.90351E-01 1.00000E-45
7.93893E-01 1.00000E-45
7.97411E-01 1.00000E-45
8.00908E-01 1.00000E-45
8.04381E-01 1.00000E-45
8.07831E-01 1.00000E-45
8.11257E-01 1.00000E-45
8.14660E-01 1.00000E-45
8.18039E-01 1.00000E-45
8.21394E-01 1.00000E-45
8.24724E-01 1.00000E-45
8.28030E-01 1.00000E-45
8.31310E-01 1.00000E-45
8.34565E-01 1.00000E-45
8.37795E-01 1.00000E-45
8.40999E-01 1.00000E-45
8.44177E-01 1.00000E-45
8.47329E-01 1.00000E-45
8.50455E-01 1.00000E-45
8.53553E-01 1.00000E-45
8.56625E-01 1.00000E-45
8.59670E-01 1.00000E-45
8.62687E-01 1.00000E-45
8.65677E-01 1.00000E-45
8.68639E-01 1.00000E-45
8.71572E-01 1.00000E-45
8.74478E-01 1.00000E-45
8.77355E-01 1.00000E-45
8.80203E-01 1.00000E-45
8.83022E-01 1.00000E-45
8.85812E-01 1.00000E-45
8.88573E-01 1.00000E-45
8.91304E-01 1.00000E-45
8.94005E-01 1.00000E-45
8.96677E-01 1.00000E-45
8.99318E-01 1.00000E-45
9.01928E-01 1.00000E-45
9.04508E-01 1.00000E-45
9.07058E-01 1.00000E-45
9.09576E-01 1.00000E-45
9.12063E-01 1.00000E-45
9.14519E-01 1.00000E-45
9.16943E-01 1.00000E-45
9.19335E-01 1.00000E-45
9.21696E-01 1.00000E-45
9.24024E-01 1.00000E-45
9.26320E-01 1.00000E-45
9.28584E-01 1.00000E-45
9.30815E-01 1.00000E-45
9.33013E-01 1.00000E-45
9.35178E-01 1.00000E-45
9.37310E-01 1.00000E-45
9.39409E-01 1.00000E-45
9.41474E-01 1.00000E-45
9.43505E-01 1.00000E-45
9.45503E-01 1.00000E-45
9.47467E-01 1.00000E-45
9.49397E-01 1.00000E-45
9.51293E-01 1.00000E-45
9.53154E-01 1.00000E-45
9.54981E-01 1.00000E-45
9.56773E-01 1.00000E-45
9.58530E-01 1.00000E-45
9.60252E-01 1.00000E-45
9.61940E-01 1.00000E-45
9.63592E-01 1.00000E-45
9.65209E-01 1.00000E-45
9.66790E-01 1.00000E-45
9.68336E-01 1.00000E-45
9.69846E-01 1.00000E-45
9.71321E-01 1.00000E-45
9.72759E-01 1.00000E-45
9.74162E-01 1.00000E-45
9.75528E-01 1.00000E-45
9.76858E-01 1.00000E-45
9.78152E-01 1.00000E-45
9.79410E-01 1.00000E-45
9.80631E-01 1.00000E-45
9.81815E-01 1.00000E-45
9.82963E-01 1.00000E-45
9.84074E-01 1.00000E-45
9.85148E-01 1.00000E-45
9.86185E-01 1.00000E-45
9.87185E-01 1.00000E-45
9.88148E-01 1.00000E-45
9.89074E-01 1.00000E-45
9.89962E-01 1.00000E-45
9.90814E-01 1.00000E-45
9.91627E-01 1.00000E-45
9.92404E-01 1.00000E-45
9.93143E-01 1.00000E-45
9.93844E-01 1.00000E-45
9.94508E-01 1.00000E-45
9.95134E-01 1.00000E-45
9.95722E-01 1.00000E-45
9.96273E-01 1.00000E-45
9.96786E-01 1.00000E-45
9.97261E-01 1.00000E-45
9.97698E-01 1.00000E-45
9.98097E-01 1.00000E-45
9.98459E-01 1.00000E-45
9.98782E-01 1.00000E-45
9.99067E-01 1.00000E-45
9.99315E-01 1.00000E-45
9.99524E-01 1.00000E-45
9.99695E-01 1.00000E-45
9.99829E-01 1.00000E-45
9.99924E-01 1.00000E-45
9.99981E-01 1.00000E-45
1.00000E+00 1.00000E-45
