 #
 # Subroutine ELSEPA. Elastic scattering of electrons and positrons
 #                    by neutral atoms and positive ions
 #
 # Projectile: positron
 # Kinetic energy = 7.00000E+06 eV = 2.57245E+05 a.u.
 #
 # WARNING: High-energy factorization with free-atom DF screening.
 #          Absorption, polarization and exchange corrections are
 #          switched off.
 #          Phase shifts are calculated for the bare nucleus.
 #          Scattering amplitudes are not evaluated.
 #
 # Element:  H,  Z =   1,  atomic weight = 1.00790E+00 g/mol
 #
 # Nuclear model: Fermi distribution
 #                Average radius = 1.07281E-13 cm
 #                Skin thickness = 5.46000E-14 cm
 #
 # Number of electrons =  1
 #
 # Total elastic cross section = 1.09012E-20 cm**2 = 3.89289E-04 a0**2
 # 1st transport cross section = 3.32466E-26 cm**2 = 1.18726E-09 a0**2
 # 2nd transport cross section = 9.62643E-26 cm**2 = 3.43766E-09 a0**2
 #
 #
 # Differential cross section:                       MU=(1-COS(THETA))/2
 #
 #  THETA        MU          DCS          DCS        Sherman      error
 #  (deg)                 (cm**2/sr)   (a0**2/sr)    function
 #----------------------------------------------------------------------
0.00000E+00 6.04960E-15
7.61557E-13 6.04954E-15
1.18994E-12 6.04951E-15
1.71346E-12 6.04947E-15
2.33225E-12 6.04942E-15
3.04617E-12 6.04937E-15
3.85530E-12 6.04931E-15
4.75964E-12 6.04924E-15
5.75917E-12 6.04917E-15
6.85391E-12 6.04909E-15
8.04379E-12 6.04900E-15
9.32893E-12 6.04891E-15
1.07092E-11 6.04881E-15
1.21847E-11 6.04870E-15
1.37554E-11 6.04858E-15
1.54213E-11 6.04846E-15
1.71823E-11 6.04833E-15
1.90386E-11 6.04820E-15
2.09900E-11 6.04805E-15
2.30367E-11 6.04790E-15
2.51785E-11 6.04775E-15
2.74156E-11 6.04758E-15
2.97478E-11 6.04741E-15
3.21752E-11 6.04723E-15
3.46979E-11 6.04705E-15
3.73157E-11 6.04686E-15
4.00286E-11 6.04666E-15
4.28368E-11 6.04645E-15
4.57402E-11 6.04624E-15
4.87388E-11 6.04602E-15
5.18325E-11 6.04579E-15
5.50215E-11 6.04556E-15
5.83057E-11 6.04532E-15
6.16850E-11 6.04507E-15
6.51595E-11 6.04482E-15
6.87293E-11 6.04455E-15
7.23943E-11 6.04429E-15
7.61544E-11 6.04401E-15
1.18991E-10 6.04087E-15
1.71347E-10 6.03705E-15
2.33223E-10 6.03252E-15
3.04617E-10 6.02731E-15
3.85531E-10 6.02141E-15
4.75965E-10 6.01483E-15
5.75917E-10 6.00757E-15
6.85389E-10 5.99962E-15
8.04380E-10 5.99101E-15
9.32891E-10 5.98172E-15
1.07092E-09 5.97178E-15
1.21847E-09 5.96116E-15
1.37554E-09 5.94991E-15
1.54213E-09 5.93798E-15
1.71823E-09 5.92544E-15
1.90386E-09 5.91221E-15
2.09900E-09 5.89840E-15
2.30367E-09 5.88392E-15
2.51785E-09 5.86886E-15
2.74156E-09 5.85315E-15
2.97478E-09 5.83686E-15
3.21752E-09 5.81996E-15
3.46978E-09 5.80247E-15
3.73156E-09 5.78440E-15
4.00286E-09 5.76576E-15
4.28368E-09 5.74655E-15
4.57402E-09 5.72677E-15
4.87388E-09 5.70648E-15
5.18326E-09 5.68559E-15
5.50215E-09 5.66424E-15
5.83057E-09 5.64229E-15
6.16850E-09 5.61993E-15
6.51596E-09 5.59694E-15
6.87293E-09 5.57359E-15
7.23942E-09 5.54962E-15
7.61544E-09 5.52530E-15
1.18991E-08 5.25780E-15
1.71347E-08 4.95478E-15
2.33223E-08 4.62725E-15
3.04617E-08 4.27578E-15
3.85531E-08 3.92903E-15
4.75965E-08 3.58689E-15
5.75917E-08 3.25793E-15
6.85389E-08 2.94036E-15
8.04380E-08 2.64829E-15
9.32891E-08 2.37023E-15
1.07092E-07 2.12269E-15
1.21847E-07 1.88933E-15
1.37554E-07 1.68625E-15
1.54213E-07 1.49625E-15
1.71823E-07 1.33298E-15
1.90386E-07 1.18179E-15
2.09900E-07 1.05182E-15
2.30367E-07 9.33728E-16
2.51785E-07 8.31410E-16
2.74156E-07 7.39645E-16
2.97478E-07 6.59588E-16
3.21752E-07 5.88388E-16
3.46978E-07 5.25894E-16
3.73156E-07 4.70582E-16
4.00286E-07 4.21773E-16
4.28368E-07 3.78669E-16
4.57402E-07 3.40452E-16
4.87388E-07 3.06710E-16
5.18325E-07 2.75455E-16
5.50215E-07 2.47511E-16
5.83057E-07 2.22947E-16
6.16850E-07 2.01300E-16
6.51596E-07 1.82171E-16
6.87293E-07 1.65225E-16
7.23942E-07 1.50173E-16
7.61543E-07 1.36772E-16
1.18991E-06 5.91814E-17
1.71347E-06 2.94228E-17
2.33223E-06 1.61796E-17
3.04617E-06 9.60013E-18
3.85531E-06 6.04371E-18
4.75964E-06 3.98918E-18
5.75916E-06 2.73684E-18
6.85388E-06 1.93896E-18
8.04378E-06 1.41146E-18
9.32888E-06 1.05158E-18
1.07092E-05 7.99332E-19
1.21846E-05 6.18323E-19
1.37553E-05 4.85735E-19
1.54212E-05 3.86833E-19
1.71822E-05 3.11856E-19
1.90385E-05 2.54185E-19
2.09899E-05 2.09244E-19
2.30365E-05 1.73806E-19
2.51783E-05 1.45560E-19
2.74153E-05 1.22823E-19
2.97475E-05 1.04356E-19
3.21749E-05 8.92315E-20
3.46974E-05 7.67496E-20
3.73152E-05 6.63753E-20
4.00281E-05 5.76956E-20
4.28362E-05 5.03891E-20
4.57395E-05 4.42031E-20
4.87380E-05 3.89377E-20
5.18317E-05 3.44333E-20
5.50205E-05 3.05617E-20
5.83045E-05 2.72192E-20
6.16838E-05 2.43213E-20
6.51582E-05 2.17989E-20
6.87277E-05 1.95952E-20
7.23925E-05 1.76630E-20
7.61524E-05 1.59631E-20
9.21439E-05 1.09060E-20
1.09658E-04 7.70195E-21
1.28695E-04 5.59199E-21
1.49255E-04 4.15851E-21
1.71338E-04 3.15594E-21
1.94942E-04 2.43809E-21
2.20070E-04 1.91322E-21
2.46720E-04 1.52191E-21
2.74892E-04 1.22596E-21
3.04586E-04 9.98570E-22
3.35803E-04 8.21526E-22
3.68542E-04 6.82045E-22
4.02802E-04 5.70936E-22
4.38585E-04 4.81564E-22
4.75889E-04 4.09010E-22
5.14715E-04 3.49618E-22
5.55063E-04 3.00627E-22
5.96931E-04 2.59921E-22
6.40321E-04 2.25878E-22
6.85233E-04 1.97229E-22
7.31665E-04 1.72981E-22
7.79618E-04 1.52348E-22
8.29092E-04 1.34700E-22
8.80086E-04 1.19536E-22
9.32601E-04 1.06446E-22
9.86636E-04 9.50994E-23
1.04219E-03 8.52250E-23
1.09927E-03 7.65994E-23
1.15786E-03 6.90380E-23
1.21797E-03 6.23865E-23
1.27961E-03 5.65173E-23
1.34276E-03 5.13220E-23
1.40743E-03 4.67102E-23
1.47362E-03 4.26048E-23
1.54133E-03 3.89406E-23
1.61056E-03 3.56620E-23
1.68131E-03 3.27211E-23
1.75357E-03 3.00772E-23
1.82735E-03 2.76949E-23
1.90265E-03 2.55439E-23
1.97947E-03 2.35976E-23
2.05780E-03 2.18332E-23
2.13765E-03 2.02306E-23
2.21902E-03 1.87723E-23
2.30190E-03 1.74431E-23
2.38630E-03 1.62294E-23
2.47222E-03 1.51194E-23
2.55965E-03 1.41027E-23
2.64859E-03 1.31700E-23
2.73905E-03 1.23131E-23
2.83103E-03 1.15248E-23
2.92452E-03 1.07985E-23
3.01952E-03 1.01286E-23
3.11604E-03 9.50976E-24
3.21407E-03 8.93748E-24
3.31362E-03 8.40757E-24
3.41468E-03 7.91635E-24
3.51725E-03 7.46047E-24
3.62133E-03 7.03692E-24
3.72692E-03 6.64300E-24
3.83403E-03 6.27625E-24
3.94265E-03 5.93445E-24
4.05278E-03 5.61559E-24
4.16442E-03 5.31785E-24
4.27757E-03 5.03958E-24
4.39223E-03 4.77926E-24
4.50840E-03 4.53553E-24
4.62608E-03 4.30713E-24
4.74527E-03 4.09291E-24
4.86597E-03 3.89185E-24
4.98817E-03 3.70297E-24
5.11188E-03 3.52541E-24
5.23711E-03 3.35836E-24
5.36383E-03 3.20108E-24
5.49207E-03 3.05289E-24
5.62181E-03 2.91318E-24
5.75306E-03 2.78136E-24
5.88581E-03 2.65691E-24
6.02007E-03 2.53934E-24
6.15583E-03 2.42819E-24
6.29310E-03 2.32306E-24
6.43187E-03 2.22355E-24
6.57214E-03 2.12931E-24
6.71392E-03 2.04000E-24
6.85720E-03 1.95533E-24
7.00198E-03 1.87499E-24
7.14827E-03 1.79874E-24
7.29605E-03 1.72633E-24
7.44534E-03 1.65751E-24
7.59612E-03 1.59209E-24
7.97965E-03 1.44211E-24
8.37255E-03 1.30936E-24
8.77480E-03 1.19153E-24
9.18641E-03 1.08665E-24
9.60736E-03 9.93050E-25
1.00376E-02 9.09302E-25
1.04773E-02 8.34191E-25
1.09262E-02 7.66668E-25
1.13844E-02 7.05834E-25
1.18520E-02 6.50908E-25
1.23288E-02 6.01216E-25
1.28150E-02 5.56171E-25
1.33104E-02 5.15261E-25
1.38150E-02 4.78039E-25
1.43290E-02 4.44113E-25
1.48521E-02 4.13140E-25
1.53845E-02 3.84816E-25
1.59262E-02 3.58874E-25
1.64770E-02 3.35079E-25
1.70371E-02 3.13219E-25
1.76063E-02 2.93111E-25
1.81848E-02 2.74588E-25
1.87724E-02 2.57502E-25
1.93692E-02 2.41722E-25
1.99751E-02 2.27130E-25
2.05901E-02 2.13621E-25
2.12143E-02 2.01099E-25
2.18476E-02 1.89479E-25
2.24900E-02 1.78685E-25
2.31415E-02 1.68646E-25
2.38021E-02 1.59301E-25
2.44717E-02 1.50593E-25
2.51504E-02 1.42470E-25
2.58382E-02 1.34886E-25
2.65349E-02 1.27799E-25
2.72407E-02 1.21170E-25
2.79555E-02 1.14964E-25
2.86793E-02 1.09149E-25
2.94120E-02 1.03696E-25
3.01537E-02 9.85785E-26
3.09043E-02 9.37716E-26
3.16639E-02 8.92532E-26
3.24324E-02 8.50029E-26
3.32098E-02 8.10017E-26
3.39961E-02 7.72323E-26
3.47912E-02 7.36789E-26
3.55952E-02 7.03268E-26
3.64081E-02 6.71624E-26
3.72297E-02 6.41733E-26
3.80602E-02 6.13481E-26
3.88995E-02 5.86760E-26
3.97476E-02 5.61472E-26
4.06044E-02 5.37526E-26
4.14700E-02 5.14838E-26
4.23443E-02 4.93329E-26
4.32273E-02 4.72926E-26
4.41190E-02 4.53562E-26
4.50194E-02 4.35175E-26
4.59284E-02 4.17706E-26
4.68461E-02 4.01100E-26
4.87074E-02 3.70280E-26
5.06030E-02 3.42350E-26
5.25328E-02 3.16990E-26
5.44967E-02 2.93924E-26
5.64946E-02 2.72906E-26
5.85262E-02 2.53723E-26
6.05914E-02 2.36186E-26
6.26901E-02 2.20128E-26
6.48222E-02 2.05404E-26
6.69873E-02 1.91882E-26
6.91854E-02 1.79447E-26
7.14163E-02 1.67996E-26
7.36799E-02 1.57437E-26
7.59760E-02 1.47688E-26
7.83043E-02 1.38676E-26
8.06647E-02 1.30336E-26
8.30571E-02 1.22608E-26
8.54812E-02 1.15439E-26
8.79369E-02 1.08781E-26
9.04240E-02 1.02593E-26
9.29422E-02 9.68334E-27
9.54915E-02 9.14687E-27
9.80716E-02 8.64664E-27
1.00682E-01 8.17979E-27
1.03323E-01 7.74367E-27
1.05995E-01 7.33589E-27
1.08696E-01 6.95430E-27
1.11427E-01 6.59689E-27
1.14188E-01 6.26187E-27
1.16978E-01 5.94757E-27
1.19797E-01 5.65249E-27
1.22645E-01 5.37523E-27
1.25522E-01 5.11453E-27
1.28428E-01 4.86921E-27
1.31361E-01 4.63821E-27
1.34323E-01 4.42055E-27
1.37313E-01 4.21529E-27
1.40330E-01 4.02163E-27
1.43375E-01 3.83878E-27
1.46447E-01 3.66602E-27
1.49545E-01 3.50271E-27
1.52671E-01 3.34823E-27
1.55823E-01 3.20202E-27
1.59001E-01 3.06355E-27
1.62205E-01 2.93234E-27
1.65435E-01 2.80794E-27
1.68690E-01 2.68994E-27
1.71970E-01 2.57795E-27
1.75276E-01 2.47159E-27
1.78606E-01 2.37055E-27
1.81961E-01 2.27450E-27
1.85340E-01 2.18316E-27
1.88743E-01 2.09625E-27
1.92169E-01 2.01352E-27
1.95619E-01 1.93473E-27
1.99092E-01 1.85966E-27
2.02589E-01 1.78810E-27
2.06107E-01 1.71986E-27
2.09649E-01 1.65476E-27
2.13212E-01 1.59263E-27
2.16797E-01 1.53330E-27
2.20404E-01 1.47663E-27
2.24032E-01 1.42248E-27
2.27680E-01 1.37071E-27
2.31350E-01 1.32120E-27
2.35040E-01 1.27384E-27
2.38751E-01 1.22852E-27
2.42481E-01 1.18512E-27
2.46231E-01 1.14357E-27
2.50000E-01 1.10375E-27
2.53788E-01 1.06559E-27
2.57595E-01 1.02901E-27
2.61421E-01 9.93927E-28
2.65264E-01 9.60272E-28
2.69126E-01 9.27975E-28
2.73005E-01 8.96972E-28
2.76901E-01 8.67203E-28
2.80814E-01 8.38608E-28
2.84744E-01 8.11133E-28
2.88691E-01 7.84728E-28
2.92653E-01 7.59341E-28
2.96632E-01 7.34928E-28
3.00625E-01 7.11444E-28
3.04634E-01 6.88848E-28
3.08658E-01 6.67102E-28
3.12697E-01 6.46165E-28
3.16749E-01 6.26004E-28
3.20816E-01 6.06585E-28
3.24896E-01 5.87874E-28
3.28990E-01 5.69843E-28
3.33097E-01 5.52463E-28
3.37216E-01 5.35705E-28
3.41348E-01 5.19542E-28
3.45492E-01 5.03951E-28
3.49647E-01 4.88907E-28
3.53814E-01 4.74389E-28
3.57992E-01 4.60374E-28
3.62181E-01 4.46842E-28
3.66381E-01 4.33774E-28
3.70590E-01 4.21150E-28
3.74810E-01 4.08954E-28
3.79039E-01 3.97167E-28
3.83277E-01 3.85774E-28
3.87524E-01 3.74760E-28
3.91780E-01 3.64110E-28
3.96044E-01 3.53809E-28
4.00316E-01 3.43845E-28
4.04596E-01 3.34203E-28
4.08882E-01 3.24873E-28
4.13176E-01 3.15842E-28
4.17476E-01 3.07099E-28
4.21783E-01 2.98634E-28
4.26095E-01 2.90435E-28
4.30413E-01 2.82494E-28
4.34737E-01 2.74800E-28
4.39065E-01 2.67345E-28
4.43398E-01 2.60120E-28
4.47736E-01 2.53117E-28
4.52077E-01 2.46327E-28
4.56422E-01 2.39745E-28
4.60770E-01 2.33360E-28
4.65122E-01 2.27168E-28
4.69476E-01 2.21160E-28
4.73832E-01 2.15331E-28
4.78190E-01 2.09674E-28
4.82550E-01 2.04185E-28
4.86912E-01 1.98856E-28
4.91274E-01 1.93681E-28
4.95637E-01 1.88658E-28
5.00000E-01 1.83779E-28
5.04363E-01 1.79040E-28
5.08726E-01 1.74437E-28
5.13088E-01 1.69965E-28
5.17450E-01 1.65619E-28
5.21810E-01 1.61396E-28
5.26168E-01 1.57291E-28
5.30524E-01 1.53300E-28
5.34878E-01 1.49420E-28
5.39230E-01 1.45648E-28
5.43578E-01 1.41979E-28
5.47923E-01 1.38411E-28
5.52264E-01 1.34940E-28
5.56602E-01 1.31564E-28
5.60935E-01 1.28279E-28
5.65263E-01 1.25083E-28
5.69587E-01 1.21971E-28
5.73905E-01 1.18943E-28
5.78217E-01 1.15996E-28
5.82524E-01 1.13126E-28
5.86824E-01 1.10332E-28
5.91118E-01 1.07612E-28
5.95404E-01 1.04962E-28
5.99684E-01 1.02381E-28
6.03956E-01 9.98678E-29
6.08220E-01 9.74196E-29
6.12476E-01 9.50334E-29
6.16723E-01 9.27084E-29
6.20961E-01 9.04433E-29
6.25190E-01 8.82359E-29
6.29410E-01 8.60836E-29
6.33619E-01 8.39860E-29
6.37819E-01 8.19409E-29
6.42008E-01 7.99473E-29
6.46186E-01 7.80030E-29
6.50353E-01 7.61078E-29
6.54508E-01 7.42589E-29
6.58652E-01 7.24558E-29
6.62784E-01 7.06971E-29
6.66903E-01 6.89816E-29
6.71010E-01 6.73078E-29
6.75104E-01 6.56747E-29
6.79184E-01 6.40809E-29
6.83251E-01 6.25264E-29
6.87303E-01 6.10086E-29
6.91342E-01 5.95279E-29
6.95366E-01 5.80823E-29
6.99375E-01 5.66713E-29
7.03368E-01 5.52936E-29
7.07347E-01 5.39487E-29
7.11309E-01 5.26356E-29
7.15256E-01 5.13535E-29
7.19186E-01 5.01016E-29
7.23099E-01 4.88791E-29
7.26995E-01 4.76851E-29
7.30874E-01 4.65190E-29
7.34736E-01 4.53799E-29
7.38579E-01 4.42673E-29
7.42405E-01 4.31804E-29
7.46212E-01 4.21185E-29
7.50000E-01 4.10812E-29
7.53769E-01 4.00676E-29
7.57519E-01 3.90771E-29
7.61249E-01 3.81094E-29
7.64960E-01 3.71635E-29
7.68650E-01 3.62392E-29
7.72320E-01 3.53359E-29
7.75968E-01 3.44535E-29
7.79596E-01 3.35904E-29
7.83203E-01 3.27469E-29
7.86788E-01 3.19225E-29
7.90351E-01 3.11169E-29
7.93893E-01 3.03286E-29
7.97411E-01 2.95588E-29
8.00908E-01 2.88058E-29
8.04381E-01 2.80698E-29
8.07831E-01 2.73500E-29
8.11257E-01 2.66465E-29
8.14660E-01 2.59583E-29
8.18039E-01 2.52857E-29
8.21394E-01 2.46276E-29
8.24724E-01 2.39844E-29
8.28030E-01 2.33552E-29
8.31310E-01 2.27402E-29
8.34565E-01 2.21385E-29
8.37795E-01 2.15504E-29
8.40999E-01 2.09750E-29
8.44177E-01 2.04124E-29
8.47329E-01 1.98625E-29
8.50455E-01 1.93241E-29
8.53553E-01 1.87981E-29
8.56625E-01 1.82833E-29
8.59670E-01 1.77801E-29
8.62687E-01 1.72881E-29
8.65677E-01 1.68070E-29
8.68639E-01 1.63364E-29
8.71572E-01 1.58760E-29
8.74478E-01 1.54260E-29
8.77355E-01 1.49858E-29
8.80203E-01 1.45557E-29
8.83022E-01 1.41348E-29
8.85812E-01 1.37234E-29
8.88573E-01 1.33211E-29
8.91304E-01 1.29275E-29
8.94005E-01 1.25434E-29
8.96677E-01 1.21674E-29
8.99318E-01 1.17998E-29
9.01928E-01 1.14408E-29
9.04508E-01 1.10896E-29
9.07058E-01 1.07464E-29
9.09576E-01 1.04112E-29
9.12063E-01 1.00835E-29
9.14519E-01 9.76301E-30
9.16943E-01 9.45022E-30
9.19335E-01 9.14459E-30
9.21696E-01 8.84611E-30
9.24024E-01 8.55441E-30
9.26320E-01 8.26959E-30
9.28584E-01 7.99150E-30
9.30815E-01 7.71991E-30
9.33013E-01 7.45469E-30
9.35178E-01 7.19605E-30
9.37310E-01 6.94357E-30
9.39409E-01 6.69706E-30
9.41474E-01 6.45660E-30
9.43505E-01 6.22212E-30
9.45503E-01 5.99353E-30
9.47467E-01 5.77033E-30
9.49397E-01 5.55298E-30
9.51293E-01 5.34130E-30
9.53154E-01 5.13498E-30
9.54981E-01 4.93394E-30
9.56773E-01 4.73822E-30
9.58530E-01 4.54772E-30
9.60252E-01 4.36230E-30
9.61940E-01 4.18200E-30
9.63592E-01 4.00653E-30
9.65209E-01 3.83598E-30
9.66790E-01 3.67033E-30
9.68336E-01 3.50933E-30
9.69846E-01 3.35315E-30
9.71321E-01 3.20142E-30
9.72759E-01 3.05436E-30
9.74162E-01 2.91190E-30
9.75528E-01 2.77367E-30
9.76858E-01 2.64011E-30
9.78152E-01 2.51063E-30
9.79410E-01 2.38570E-30
9.80631E-01 2.26486E-30
9.81815E-01 2.14821E-30
9.82963E-01 2.03569E-30
9.84074E-01 1.92730E-30
9.85148E-01 1.82288E-30
9.86185E-01 1.72246E-30
9.87185E-01 1.62609E-30
9.88148E-01 1.53378E-30
9.89074E-01 1.44538E-30
9.89962E-01 1.36065E-30
9.90814E-01 1.27983E-30
9.91627E-01 1.20292E-30
9.92404E-01 1.12971E-30
9.93143E-01 1.06022E-30
9.93844E-01 9.94497E-31
9.94508E-01 9.32529E-31
9.95134E-01 8.74143E-31
9.95722E-01 8.19419E-31
9.96273E-01 7.68185E-31
9.96786E-01 7.20802E-31
9.97261E-01 6.76828E-31
9.97698E-01 6.36592E-31
9.98097E-01 5.99830E-31
9.98459E-01 5.66652E-31
9.98782E-01 5.36950E-31
9.99067E-01 5.10803E-31
9.99315E-01 4.88116E-31
9.99524E-01 4.69060E-31
9.99695E-01 4.53272E-31
9.99829E-01 4.41145E-31
9.99924E-01 4.32410E-31
9.99981E-01 4.27305E-31
1.00000E+00 4.25948E-31
