 #
 # Subroutine ELSEPA. Elastic scattering of electrons and positrons
 #                    by neutral atoms and positive ions
 #
 # Projectile: positron
 # Kinetic energy = 9.00000E+07 eV = 3.30744E+06 a.u.
 #
 # WARNING: High-energy factorization with free-atom DF screening.
 #          Absorption, polarization and exchange corrections are
 #          switched off.
 #          Phase shifts are calculated for the bare nucleus.
 #          Scattering amplitudes are not evaluated.
 #
 # Element:  H,  Z =   1,  atomic weight = 1.00790E+00 g/mol
 #
 # Nuclear model: Fermi distribution
 #                Average radius = 1.07281E-13 cm
 #                Skin thickness = 5.46000E-14 cm
 #
 # Number of electrons =  1
 #
 # Total elastic cross section = 1.08496E-20 cm**2 = 3.87447E-04 a0**2
 # 1st transport cross section = 2.97680E-28 cm**2 = 1.06303E-11 a0**2
 # 2nd transport cross section = 8.76903E-28 cm**2 = 3.13148E-11 a0**2
 #
 #
 # Differential cross section:                       MU=(1-COS(THETA))/2
 #
 #  THETA        MU          DCS          DCS        Sherman      error
 #  (deg)                 (cm**2/sr)   (a0**2/sr)    function
 #----------------------------------------------------------------------
0.00000E+00 8.78484E-13
7.61557E-13 8.77301E-13
1.18994E-12 8.76638E-13
1.71346E-12 8.75827E-13
2.33225E-12 8.74871E-13
3.04617E-12 8.73770E-13
3.85530E-12 8.72523E-13
4.75964E-12 8.71133E-13
5.75917E-12 8.69602E-13
6.85391E-12 8.67927E-13
8.04379E-12 8.66113E-13
9.32893E-12 8.64160E-13
1.07092E-11 8.62067E-13
1.21847E-11 8.59840E-13
1.37554E-11 8.57477E-13
1.54213E-11 8.54979E-13
1.71823E-11 8.52354E-13
1.90386E-11 8.49594E-13
2.09900E-11 8.46707E-13
2.30367E-11 8.43700E-13
2.51785E-11 8.40559E-13
2.74156E-11 8.37301E-13
2.97478E-11 8.33926E-13
3.21752E-11 8.30425E-13
3.46979E-11 8.26816E-13
3.73157E-11 8.23091E-13
4.00286E-11 8.19252E-13
4.28368E-11 8.15314E-13
4.57402E-11 8.11259E-13
4.87388E-11 8.07104E-13
5.18325E-11 8.02859E-13
5.50215E-11 7.98496E-13
5.83057E-11 7.94049E-13
6.16850E-11 7.89513E-13
6.51595E-11 7.84873E-13
6.87293E-11 7.80158E-13
7.23943E-11 7.75354E-13
7.61544E-11 7.70461E-13
1.18991E-10 7.17705E-13
1.71347E-10 6.59819E-13
2.33223E-10 5.97428E-13
3.04617E-10 5.38376E-13
3.85531E-10 4.78947E-13
4.75965E-10 4.23435E-13
5.75917E-10 3.73527E-13
6.85389E-10 3.25734E-13
8.04380E-10 2.84114E-13
9.32891E-10 2.47346E-13
1.07092E-09 2.14299E-13
1.21847E-09 1.86035E-13
1.37554E-09 1.61274E-13
1.54213E-09 1.39779E-13
1.71823E-09 1.21474E-13
1.90386E-09 1.05500E-13
2.09900E-09 9.18360E-14
2.30367E-09 8.01749E-14
2.51785E-09 7.00057E-14
2.74156E-09 6.13298E-14
2.97478E-09 5.38614E-14
3.21752E-09 4.73834E-14
3.46978E-09 4.17275E-14
3.73156E-09 3.66378E-14
4.00286E-09 3.22855E-14
4.28368E-09 2.85489E-14
4.57402E-09 2.53286E-14
4.87388E-09 2.25427E-14
5.18326E-09 2.01239E-14
5.50215E-09 1.80165E-14
5.83057E-09 1.61743E-14
6.16850E-09 1.45587E-14
6.51596E-09 1.31374E-14
6.87293E-09 1.18835E-14
7.23942E-09 1.07741E-14
7.61544E-09 9.78992E-15
1.18991E-08 4.16679E-15
1.71347E-08 2.05241E-15
2.33223E-08 1.12218E-15
3.04617E-08 6.63347E-16
3.85531E-08 4.16523E-16
4.75965E-08 2.74415E-16
5.75917E-08 1.88005E-16
6.85389E-08 1.33055E-16
8.04380E-08 9.67771E-17
9.32891E-08 7.20546E-17
1.07092E-07 5.47414E-17
1.21847E-07 4.23268E-17
1.37554E-07 3.32387E-17
1.54213E-07 2.64630E-17
1.71823E-07 2.13284E-17
1.90386E-07 1.73804E-17
2.09900E-07 1.43048E-17
2.30367E-07 1.18802E-17
2.51785E-07 9.94810E-18
2.74156E-07 8.39316E-18
2.97478E-07 7.13043E-18
3.21752E-07 6.09642E-18
3.46978E-07 5.24320E-18
3.73156E-07 4.53413E-18
4.00286E-07 3.94095E-18
4.28368E-07 3.44166E-18
4.57402E-07 3.01898E-18
4.87388E-07 2.65923E-18
5.18325E-07 2.35150E-18
5.50215E-07 2.08702E-18
5.83057E-07 1.85869E-18
6.16850E-07 1.66075E-18
6.51596E-07 1.48847E-18
6.87293E-07 1.33795E-18
7.23942E-07 1.20599E-18
7.61543E-07 1.08990E-18
1.18991E-06 4.46600E-19
1.71347E-06 2.15420E-19
2.33223E-06 1.16293E-19
3.04617E-06 6.81744E-20
3.85531E-06 4.25633E-20
4.75964E-06 2.79268E-20
5.75916E-06 1.90749E-20
6.85388E-06 1.34684E-20
8.04378E-06 9.77854E-21
9.32888E-06 7.27009E-21
1.07092E-05 5.51684E-21
1.21846E-05 4.26165E-21
1.37553E-05 3.34398E-21
1.54212E-05 2.66054E-21
1.71822E-05 2.14312E-21
1.90385E-05 1.74559E-21
2.09899E-05 1.43610E-21
2.30365E-05 1.19226E-21
2.51783E-05 9.98045E-22
2.74153E-05 8.41814E-22
2.97475E-05 7.14991E-22
3.21749E-05 6.11177E-22
3.46974E-05 5.25539E-22
3.73152E-05 4.54388E-22
4.00281E-05 3.94881E-22
4.28362E-05 3.44804E-22
4.57395E-05 3.02420E-22
4.87380E-05 2.66352E-22
5.18317E-05 2.35505E-22
5.50205E-05 2.08996E-22
5.83045E-05 1.86115E-22
6.16838E-05 1.66281E-22
6.51582E-05 1.49020E-22
6.87277E-05 1.33942E-22
7.23925E-05 1.20723E-22
7.61524E-05 1.09096E-22
9.21439E-05 7.45136E-23
1.09658E-04 5.26112E-23
1.28695E-04 3.81855E-23
1.49255E-04 2.83979E-23
1.71338E-04 2.15492E-23
1.94942E-04 1.66462E-23
2.20070E-04 1.30616E-23
2.46720E-04 1.03862E-23
2.74892E-04 8.36573E-24
3.04586E-04 6.81350E-24
3.35803E-04 5.60504E-24
3.68542E-04 4.65306E-24
4.02802E-04 3.89476E-24
4.38585E-04 3.28485E-24
4.75889E-04 2.78975E-24
5.14715E-04 2.38448E-24
5.55063E-04 2.05021E-24
5.96931E-04 1.77247E-24
6.40321E-04 1.54022E-24
6.85233E-04 1.34477E-24
7.31665E-04 1.17936E-24
7.79618E-04 1.03860E-24
8.29092E-04 9.18225E-25
8.80086E-04 8.14791E-25
9.32601E-04 7.25508E-25
9.86636E-04 6.48125E-25
1.04219E-03 5.80783E-25
1.09927E-03 5.21959E-25
1.15786E-03 4.70396E-25
1.21797E-03 4.25040E-25
1.27961E-03 3.85019E-25
1.34276E-03 3.49596E-25
1.40743E-03 3.18153E-25
1.47362E-03 2.90164E-25
1.54133E-03 2.65184E-25
1.61056E-03 2.42834E-25
1.68131E-03 2.22787E-25
1.75357E-03 2.04765E-25
1.82735E-03 1.88528E-25
1.90265E-03 1.73867E-25
1.97947E-03 1.60603E-25
2.05780E-03 1.48579E-25
2.13765E-03 1.37658E-25
2.21902E-03 1.27722E-25
2.30190E-03 1.18665E-25
2.38630E-03 1.10396E-25
2.47222E-03 1.02833E-25
2.55965E-03 9.59073E-26
2.64859E-03 8.95537E-26
2.73905E-03 8.37171E-26
2.83103E-03 7.83477E-26
2.92452E-03 7.34012E-26
3.01952E-03 6.88386E-26
3.11604E-03 6.46245E-26
3.21407E-03 6.07275E-26
3.31362E-03 5.71195E-26
3.41468E-03 5.37750E-26
3.51725E-03 5.06714E-26
3.62133E-03 4.77880E-26
3.72692E-03 4.51066E-26
3.83403E-03 4.26102E-26
3.94265E-03 4.02839E-26
4.05278E-03 3.81139E-26
4.16442E-03 3.60878E-26
4.27757E-03 3.41943E-26
4.39223E-03 3.24230E-26
4.50840E-03 3.07648E-26
4.62608E-03 2.92110E-26
4.74527E-03 2.77539E-26
4.86597E-03 2.63863E-26
4.98817E-03 2.51016E-26
5.11188E-03 2.38941E-26
5.23711E-03 2.27581E-26
5.36383E-03 2.16886E-26
5.49207E-03 2.06811E-26
5.62181E-03 1.97313E-26
5.75306E-03 1.88352E-26
5.88581E-03 1.79893E-26
6.02007E-03 1.71902E-26
6.15583E-03 1.64348E-26
6.29310E-03 1.57204E-26
6.43187E-03 1.50443E-26
6.57214E-03 1.44040E-26
6.71392E-03 1.37973E-26
6.85720E-03 1.32221E-26
7.00198E-03 1.26765E-26
7.14827E-03 1.21586E-26
7.29605E-03 1.16668E-26
7.44534E-03 1.11996E-26
7.59612E-03 1.07554E-26
7.97965E-03 9.73726E-27
8.37255E-03 8.83638E-27
8.77480E-03 8.03693E-27
9.18641E-03 7.32553E-27
9.60736E-03 6.69081E-27
1.00376E-02 6.12308E-27
1.04773E-02 5.61405E-27
1.09262E-02 5.15658E-27
1.13844E-02 4.74455E-27
1.18520E-02 4.37265E-27
1.23288E-02 4.03630E-27
1.28150E-02 3.73150E-27
1.33104E-02 3.45477E-27
1.38150E-02 3.20307E-27
1.43290E-02 2.97375E-27
1.48521E-02 2.76445E-27
1.53845E-02 2.57312E-27
1.59262E-02 2.39795E-27
1.64770E-02 2.23733E-27
1.70371E-02 2.08984E-27
1.76063E-02 1.95421E-27
1.81848E-02 1.82932E-27
1.87724E-02 1.71417E-27
1.93692E-02 1.60787E-27
1.99751E-02 1.50960E-27
2.05901E-02 1.41867E-27
2.12143E-02 1.33441E-27
2.18476E-02 1.25626E-27
2.24900E-02 1.18370E-27
2.31415E-02 1.11624E-27
2.38021E-02 1.05347E-27
2.44717E-02 9.95010E-28
2.51504E-02 9.40502E-28
2.58382E-02 8.89635E-28
2.65349E-02 8.42121E-28
2.72407E-02 7.97700E-28
2.79555E-02 7.56134E-28
2.86793E-02 7.17207E-28
2.94120E-02 6.80721E-28
3.01537E-02 6.46496E-28
3.09043E-02 6.14367E-28
3.16639E-02 5.84181E-28
3.24324E-02 5.55801E-28
3.32098E-02 5.29099E-28
3.39961E-02 5.03958E-28
3.47912E-02 4.80270E-28
3.55952E-02 4.57937E-28
3.64081E-02 4.36866E-28
3.72297E-02 4.16974E-28
3.80602E-02 3.98183E-28
3.88995E-02 3.80421E-28
3.97476E-02 3.63621E-28
4.06044E-02 3.47723E-28
4.14700E-02 3.32668E-28
4.23443E-02 3.18405E-28
4.32273E-02 3.04884E-28
4.41190E-02 2.92060E-28
4.50194E-02 2.79889E-28
4.59284E-02 2.68334E-28
4.68461E-02 2.57357E-28
4.87074E-02 2.37004E-28
5.06030E-02 2.18584E-28
5.25328E-02 2.01882E-28
5.44967E-02 1.86712E-28
5.64946E-02 1.72908E-28
5.85262E-02 1.60328E-28
6.05914E-02 1.48844E-28
6.26901E-02 1.38345E-28
6.48222E-02 1.28732E-28
6.69873E-02 1.19918E-28
6.91854E-02 1.11825E-28
7.14163E-02 1.04385E-28
7.36799E-02 9.75357E-29
7.59760E-02 9.12227E-29
7.83043E-02 8.53968E-29
8.06647E-02 8.00142E-29
8.30571E-02 7.50356E-29
8.54812E-02 7.04256E-29
8.79369E-02 6.61523E-29
9.04240E-02 6.21871E-29
9.29422E-02 5.85042E-29
9.54915E-02 5.50801E-29
9.80716E-02 5.18935E-29
1.00682E-01 4.89254E-29
1.03323E-01 4.61582E-29
1.05995E-01 4.35761E-29
1.08696E-01 4.11648E-29
1.11427E-01 3.89111E-29
1.14188E-01 3.68029E-29
1.16978E-01 3.48295E-29
1.19797E-01 3.29807E-29
1.22645E-01 3.12475E-29
1.25522E-01 2.96214E-29
1.28428E-01 2.80948E-29
1.31361E-01 2.66605E-29
1.34323E-01 2.53122E-29
1.37313E-01 2.40438E-29
1.40330E-01 2.28499E-29
1.43375E-01 2.17254E-29
1.46447E-01 2.06655E-29
1.49545E-01 1.96661E-29
1.52671E-01 1.87231E-29
1.55823E-01 1.78329E-29
1.59001E-01 1.69919E-29
1.62205E-01 1.61972E-29
1.65435E-01 1.54457E-29
1.68690E-01 1.47347E-29
1.71970E-01 1.40618E-29
1.75276E-01 1.34245E-29
1.78606E-01 1.28206E-29
1.81961E-01 1.22483E-29
1.85340E-01 1.17055E-29
1.88743E-01 1.11905E-29
1.92169E-01 1.07017E-29
1.95619E-01 1.02375E-29
1.99092E-01 9.79658E-30
2.02589E-01 9.37752E-30
2.06107E-01 8.97909E-30
2.09649E-01 8.60013E-30
2.13212E-01 8.23955E-30
2.16797E-01 7.89632E-30
2.20404E-01 7.56949E-30
2.24032E-01 7.25818E-30
2.27680E-01 6.96151E-30
2.31350E-01 6.67873E-30
2.35040E-01 6.40907E-30
2.38751E-01 6.15184E-30
2.42481E-01 5.90640E-30
2.46231E-01 5.67212E-30
2.50000E-01 5.44842E-30
2.53788E-01 5.23476E-30
2.57595E-01 5.03063E-30
2.61421E-01 4.83553E-30
2.65264E-01 4.64904E-30
2.69126E-01 4.47069E-30
2.73005E-01 4.30010E-30
2.76901E-01 4.13688E-30
2.80814E-01 3.98066E-30
2.84744E-01 3.83111E-30
2.88691E-01 3.68791E-30
2.92653E-01 3.55073E-30
2.96632E-01 3.41931E-30
3.00625E-01 3.29337E-30
3.04634E-01 3.17264E-30
3.08658E-01 3.05690E-30
3.12697E-01 2.94589E-30
3.16749E-01 2.83941E-30
3.20816E-01 2.73724E-30
3.24896E-01 2.63919E-30
3.28990E-01 2.54507E-30
3.33097E-01 2.45471E-30
3.37216E-01 2.36793E-30
3.41348E-01 2.28457E-30
3.45492E-01 2.20449E-30
3.49647E-01 2.12753E-30
3.53814E-01 2.05357E-30
3.57992E-01 1.98247E-30
3.62181E-01 1.91409E-30
3.66381E-01 1.84835E-30
3.70590E-01 1.78510E-30
3.74810E-01 1.72426E-30
3.79039E-01 1.66571E-30
3.83277E-01 1.60936E-30
3.87524E-01 1.55511E-30
3.91780E-01 1.50289E-30
3.96044E-01 1.45260E-30
4.00316E-01 1.40417E-30
4.04596E-01 1.35751E-30
4.08882E-01 1.31257E-30
4.13176E-01 1.26926E-30
4.17476E-01 1.22751E-30
4.21783E-01 1.18728E-30
4.26095E-01 1.14849E-30
4.30413E-01 1.11109E-30
4.34737E-01 1.07502E-30
4.39065E-01 1.04023E-30
4.43398E-01 1.00667E-30
4.47736E-01 9.74299E-31
4.52077E-01 9.43055E-31
4.56422E-01 9.12909E-31
4.60770E-01 8.83806E-31
4.65122E-01 8.55715E-31
4.69476E-01 8.28591E-31
4.73832E-01 8.02398E-31
4.78190E-01 7.77106E-31
4.82550E-01 7.52677E-31
4.86912E-01 7.29077E-31
4.91274E-01 7.06275E-31
4.95637E-01 6.84247E-31
5.00000E-01 6.62959E-31
5.04363E-01 6.42383E-31
5.08726E-01 6.22493E-31
5.13088E-01 6.03270E-31
5.17450E-01 5.84680E-31
5.21810E-01 5.66707E-31
5.26168E-01 5.49325E-31
5.30524E-01 5.32512E-31
5.34878E-01 5.16246E-31
5.39230E-01 5.00517E-31
5.43578E-01 4.85295E-31
5.47923E-01 4.70567E-31
5.52264E-01 4.56315E-31
5.56602E-01 4.42520E-31
5.60935E-01 4.29169E-31
5.65263E-01 4.16249E-31
5.69587E-01 4.03733E-31
5.73905E-01 3.91621E-31
5.78217E-01 3.79889E-31
5.82524E-01 3.68528E-31
5.86824E-01 3.57525E-31
5.91118E-01 3.46869E-31
5.95404E-01 3.36545E-31
5.99684E-01 3.26544E-31
6.03956E-01 3.16854E-31
6.08220E-01 3.07467E-31
6.12476E-01 2.98366E-31
6.16723E-01 2.89547E-31
6.20961E-01 2.81001E-31
6.25190E-01 2.72718E-31
6.29410E-01 2.64685E-31
6.33619E-01 2.56899E-31
6.37819E-01 2.49348E-31
6.42008E-01 2.42029E-31
6.46186E-01 2.34929E-31
6.50353E-01 2.28046E-31
6.54508E-01 2.21368E-31
6.58652E-01 2.14892E-31
6.62784E-01 2.08609E-31
6.66903E-01 2.02516E-31
6.71010E-01 1.96602E-31
6.75104E-01 1.90864E-31
6.79184E-01 1.85295E-31
6.83251E-01 1.79894E-31
6.87303E-01 1.74649E-31
6.91342E-01 1.69562E-31
6.95366E-01 1.64622E-31
6.99375E-01 1.59827E-31
7.03368E-01 1.55171E-31
7.07347E-01 1.50652E-31
7.11309E-01 1.46264E-31
7.15256E-01 1.42003E-31
7.19186E-01 1.37867E-31
7.23099E-01 1.33850E-31
7.26995E-01 1.29948E-31
7.30874E-01 1.26159E-31
7.34736E-01 1.22479E-31
7.38579E-01 1.18904E-31
7.42405E-01 1.15431E-31
7.46212E-01 1.12057E-31
7.50000E-01 1.08780E-31
7.53769E-01 1.05596E-31
7.57519E-01 1.02501E-31
7.61249E-01 9.94954E-32
7.64960E-01 9.65727E-32
7.68650E-01 9.37331E-32
7.72320E-01 9.09739E-32
7.75968E-01 8.82936E-32
7.79596E-01 8.56863E-32
7.83203E-01 8.31523E-32
7.86788E-01 8.06891E-32
7.90351E-01 7.82965E-32
7.93893E-01 7.59669E-32
7.97411E-01 7.37063E-32
8.00908E-01 7.15060E-32
8.04381E-01 6.93678E-32
8.07831E-01 6.72882E-32
8.11257E-01 6.52668E-32
8.14660E-01 6.33002E-32
8.18039E-01 6.13889E-32
8.21394E-01 5.95287E-32
8.24724E-01 5.77208E-32
8.28030E-01 5.59617E-32
8.31310E-01 5.42517E-32
8.34565E-01 5.25880E-32
8.37795E-01 5.09706E-32
8.40999E-01 4.93966E-32
8.44177E-01 4.78660E-32
8.47329E-01 4.63779E-32
8.50455E-01 4.49284E-32
8.53553E-01 4.35201E-32
8.56625E-01 4.21491E-32
8.59670E-01 4.08158E-32
8.62687E-01 3.95193E-32
8.65677E-01 3.82586E-32
8.68639E-01 3.70317E-32
8.71572E-01 3.58372E-32
8.74478E-01 3.46759E-32
8.77355E-01 3.35454E-32
8.80203E-01 3.24470E-32
8.83022E-01 3.13775E-32
8.85812E-01 3.03373E-32
8.88573E-01 2.93253E-32
8.91304E-01 2.83396E-32
8.94005E-01 2.73835E-32
8.96677E-01 2.64516E-32
8.99318E-01 2.55447E-32
9.01928E-01 2.46639E-32
9.04508E-01 2.38064E-32
9.07058E-01 2.29719E-32
9.09576E-01 2.21614E-32
9.12063E-01 2.13726E-32
9.14519E-01 2.06044E-32
9.16943E-01 1.98584E-32
9.19335E-01 1.91330E-32
9.21696E-01 1.84279E-32
9.24024E-01 1.77416E-32
9.26320E-01 1.70747E-32
9.28584E-01 1.64266E-32
9.30815E-01 1.57963E-32
9.33013E-01 1.51832E-32
9.35178E-01 1.45883E-32
9.37310E-01 1.40101E-32
9.39409E-01 1.34476E-32
9.41474E-01 1.29013E-32
9.43505E-01 1.23708E-32
9.45503E-01 1.18561E-32
9.47467E-01 1.13548E-32
9.49397E-01 1.08690E-32
9.51293E-01 1.03977E-32
9.53154E-01 9.94051E-33
9.54981E-01 9.49625E-33
9.56773E-01 9.06554E-33
9.58530E-01 8.64777E-33
9.60252E-01 8.24271E-33
9.61940E-01 7.85020E-33
9.63592E-01 7.46964E-33
9.65209E-01 7.10071E-33
9.66790E-01 6.74393E-33
9.68336E-01 6.39811E-33
9.69846E-01 6.06396E-33
9.71321E-01 5.74029E-33
9.72759E-01 5.42727E-33
9.74162E-01 5.12545E-33
9.75528E-01 4.83316E-33
9.76858E-01 4.55165E-33
9.78152E-01 4.27941E-33
9.79410E-01 4.01771E-33
9.80631E-01 3.76529E-33
9.81815E-01 3.52189E-33
9.82963E-01 3.28793E-33
9.84074E-01 3.06320E-33
9.85148E-01 2.84693E-33
9.86185E-01 2.63966E-33
9.87185E-01 2.44089E-33
9.88148E-01 2.25134E-33
9.89074E-01 2.07013E-33
9.89962E-01 1.89705E-33
9.90814E-01 1.73151E-33
9.91627E-01 1.57492E-33
9.92404E-01 1.42609E-33
9.93143E-01 1.28468E-33
9.93844E-01 1.15134E-33
9.94508E-01 1.02586E-33
9.95134E-01 9.07706E-34
9.95722E-01 7.97336E-34
9.96273E-01 6.93973E-34
9.96786E-01 5.98332E-34
9.97261E-01 5.09902E-34
9.97698E-01 4.28776E-34
9.98097E-01 3.55235E-34
9.98459E-01 2.88545E-34
9.98782E-01 2.29148E-34
9.99067E-01 1.76571E-34
9.99315E-01 1.31249E-34
9.99524E-01 9.30725E-35
9.99695E-01 6.15418E-35
9.99829E-01 3.72599E-35
9.99924E-01 1.97563E-35
9.99981E-01 9.40058E-36
1.00000E+00 6.06197E-36
