 #
 # Subroutine ELSEPA. Elastic scattering of electrons and positrons
 #                    by neutral atoms and positive ions
 #
 # Projectile: positron
 # Kinetic energy = 1.00000E+09 eV = 3.67493E+07 a.u.
 #
 # WARNING: High-energy factorization with free-atom DF screening.
 #          Absorption, polarization and exchange corrections are
 #          switched off.
 #          Phase shifts are calculated for the bare nucleus.
 #          Scattering amplitudes are not evaluated.
 #
 # Element:  H,  Z =   1,  atomic weight = 1.00790E+00 g/mol
 #
 # Nuclear model: Fermi distribution
 #                Average radius = 1.07281E-13 cm
 #                Skin thickness = 5.46000E-14 cm
 #
 # Number of electrons =  1
 #
 # Total elastic cross section = 1.07774E-20 cm**2 = 3.84867E-04 a0**2
 # 1st transport cross section = 2.53473E-30 cm**2 = 9.05169E-14 a0**2
 # 2nd transport cross section = 7.60156E-30 cm**2 = 2.71457E-13 a0**2
 #
 #
 # Differential cross section:                       MU=(1-COS(THETA))/2
 #
 #  THETA        MU          DCS          DCS        Sherman      error
 #  (deg)                 (cm**2/sr)   (a0**2/sr)    function
 #----------------------------------------------------------------------
0.00000E+00 1.07343E-10
7.61557E-13 9.15241E-11
1.18994E-12 8.40254E-11
1.71346E-12 7.57991E-11
2.33225E-12 6.77230E-11
3.04617E-12 5.95887E-11
3.85530E-12 5.20826E-11
4.75964E-12 4.52963E-11
5.75917E-12 3.89679E-11
6.85391E-12 3.34392E-11
8.04379E-12 2.86710E-11
9.32893E-12 2.44995E-11
1.07092E-11 2.09023E-11
1.21847E-11 1.78654E-11
1.37554E-11 1.52890E-11
1.54213E-11 1.30750E-11
1.71823E-11 1.12170E-11
1.90386E-11 9.65123E-12
2.09900E-11 8.31523E-12
2.30367E-11 7.18598E-12
2.51785E-11 6.23110E-12
2.74156E-11 5.41790E-12
2.97478E-11 4.69218E-12
3.21752E-11 4.07504E-12
3.46979E-11 3.55421E-12
3.73157E-11 3.11263E-12
4.00286E-11 2.73649E-12
4.28368E-11 2.41468E-12
4.57402E-11 2.13817E-12
4.87388E-11 1.89962E-12
5.18325E-11 1.69304E-12
5.50215E-11 1.51347E-12
5.83057E-11 1.35683E-12
6.16850E-11 1.21974E-12
6.51595E-11 1.09937E-12
6.87293E-11 9.93348E-13
7.23943E-11 8.99694E-13
7.61544E-11 8.16730E-13
1.18991E-10 3.45290E-13
1.71347E-10 1.69441E-13
2.33223E-10 9.24315E-14
3.04617E-10 5.45562E-14
3.85531E-10 3.42209E-14
4.75965E-10 2.25287E-14
5.75917E-10 1.54262E-14
6.85389E-10 1.09128E-14
8.04380E-10 7.93478E-15
9.32891E-10 5.90624E-15
1.07092E-09 4.48614E-15
1.21847E-09 3.46815E-15
1.37554E-09 2.72310E-15
1.54213E-09 2.16774E-15
1.71823E-09 1.74696E-15
1.90386E-09 1.42347E-15
2.09900E-09 1.17149E-15
2.30367E-09 9.72861E-16
2.51785E-09 8.14595E-16
2.74156E-09 6.87235E-16
2.97478E-09 5.83817E-16
3.21752E-09 4.99137E-16
3.46978E-09 4.29265E-16
3.73156E-09 3.71202E-16
4.00286E-09 3.22630E-16
4.28368E-09 2.81748E-16
4.57402E-09 2.47140E-16
4.87388E-09 2.17686E-16
5.18326E-09 1.92492E-16
5.50215E-09 1.70839E-16
5.83057E-09 1.52146E-16
6.16850E-09 1.35941E-16
6.51596E-09 1.21837E-16
6.87293E-09 1.09516E-16
7.23942E-09 9.87131E-17
7.61544E-09 8.92100E-17
1.18991E-08 3.65524E-17
1.71347E-08 1.76306E-17
2.33223E-08 9.51760E-18
3.04617E-08 5.57943E-18
3.85531E-08 3.48338E-18
4.75965E-08 2.28552E-18
5.75917E-08 1.56108E-18
6.85389E-08 1.10225E-18
8.04380E-08 8.00270E-19
9.32891E-08 5.94981E-19
1.07092E-07 4.51496E-19
1.21847E-07 3.48773E-19
1.37554E-07 2.73671E-19
1.54213E-07 2.17739E-19
1.71823E-07 1.75394E-19
1.90386E-07 1.42860E-19
2.09900E-07 1.17532E-19
2.30367E-07 9.75758E-20
2.51785E-07 8.16812E-20
2.74156E-07 6.88953E-20
2.97478E-07 5.85160E-20
3.21752E-07 5.00198E-20
3.46978E-07 4.30111E-20
3.73156E-07 3.71881E-20
4.00286E-07 3.23180E-20
4.28368E-07 2.82197E-20
4.57402E-07 2.47509E-20
4.87388E-07 2.17991E-20
5.18325E-07 1.92744E-20
5.50215E-07 1.71050E-20
5.83057E-07 1.52323E-20
6.16850E-07 1.36091E-20
6.51596E-07 1.21964E-20
6.87293E-07 1.09623E-20
7.23942E-07 9.88052E-21
7.61543E-07 8.92890E-21
1.18991E-06 3.65727E-21
1.71347E-06 1.76373E-21
2.33223E-06 9.52012E-22
3.04617E-06 5.58050E-22
3.85531E-06 3.48386E-22
4.75964E-06 2.28575E-22
5.75916E-06 1.56119E-22
6.85388E-06 1.10230E-22
8.04378E-06 8.00296E-23
9.32888E-06 5.94991E-23
1.07092E-05 4.51498E-23
1.21846E-05 3.48770E-23
1.37553E-05 2.73667E-23
1.54212E-05 2.17734E-23
1.71822E-05 1.75388E-23
1.90385E-05 1.42854E-23
2.09899E-05 1.17526E-23
2.30365E-05 9.75705E-24
2.51783E-05 8.16764E-24
2.74153E-05 6.88908E-24
2.97475E-05 5.85120E-24
3.21749E-05 5.00161E-24
3.46974E-05 4.30078E-24
3.73152E-05 3.71850E-24
4.00281E-05 3.23152E-24
4.28362E-05 2.82171E-24
4.57395E-05 2.47485E-24
4.87380E-05 2.17969E-24
5.18317E-05 1.92725E-24
5.50205E-05 1.71032E-24
5.83045E-05 1.52307E-24
6.16838E-05 1.36076E-24
6.51582E-05 1.21950E-24
6.87277E-05 1.09611E-24
7.23925E-05 9.87935E-25
7.61524E-05 8.92782E-25
9.21439E-05 6.09777E-25
1.09658E-04 4.30540E-25
1.28695E-04 3.06053E-25
1.49255E-04 2.32391E-25
1.71338E-04 1.76346E-25
1.94942E-04 1.36222E-25
2.20070E-04 1.06888E-25
2.46720E-04 8.16736E-26
2.74892E-04 6.54877E-26
3.04586E-04 5.30822E-26
3.35803E-04 4.34486E-26
3.68542E-04 3.58796E-26
4.02802E-04 2.98675E-26
4.38585E-04 2.50459E-26
4.75889E-04 2.11439E-26
5.14715E-04 1.79602E-26
5.55063E-04 1.53428E-26
5.96931E-04 1.31758E-26
6.40321E-04 1.13701E-26
6.85233E-04 9.85620E-27
7.31665E-04 8.57996E-27
7.79618E-04 7.49836E-27
8.29092E-04 6.57717E-27
8.80086E-04 5.78906E-27
9.32601E-04 5.11181E-27
9.86636E-04 4.52751E-27
1.04219E-03 4.02145E-27
1.09927E-03 3.58156E-27
1.15786E-03 3.19791E-27
1.21797E-03 2.86219E-27
1.27961E-03 2.56755E-27
1.34276E-03 2.30819E-27
1.40743E-03 2.07927E-27
1.47362E-03 1.87667E-27
1.54133E-03 1.69693E-27
1.61056E-03 1.53709E-27
1.68131E-03 1.39463E-27
1.75357E-03 1.26738E-27
1.82735E-03 1.15348E-27
1.90265E-03 1.05133E-27
1.97947E-03 9.59547E-28
2.05780E-03 8.76930E-28
2.13765E-03 8.02437E-28
2.21902E-03 7.35156E-28
2.30190E-03 6.74293E-28
2.38630E-03 6.19153E-28
2.47222E-03 5.69123E-28
2.55965E-03 5.23669E-28
2.64859E-03 4.82313E-28
2.73905E-03 4.44639E-28
2.83103E-03 4.10276E-28
2.92452E-03 3.78896E-28
3.01952E-03 3.50206E-28
3.11604E-03 3.23947E-28
3.21407E-03 2.99887E-28
3.31362E-03 2.77820E-28
3.41468E-03 2.57559E-28
3.51725E-03 2.38940E-28
3.62133E-03 2.21813E-28
3.72692E-03 2.06045E-28
3.83403E-03 1.91516E-28
3.94265E-03 1.78116E-28
4.05278E-03 1.65749E-28
4.16442E-03 1.54325E-28
4.27757E-03 1.43766E-28
4.39223E-03 1.33997E-28
4.50840E-03 1.24955E-28
4.62608E-03 1.16579E-28
4.74527E-03 1.08814E-28
4.86597E-03 1.01613E-28
4.98817E-03 9.49290E-29
5.11188E-03 8.87222E-29
5.23711E-03 8.29547E-29
5.36383E-03 7.75926E-29
5.49207E-03 7.26048E-29
5.62181E-03 6.79625E-29
5.75306E-03 6.36398E-29
5.88581E-03 5.96125E-29
6.02007E-03 5.58589E-29
6.15583E-03 5.23585E-29
6.29310E-03 4.90928E-29
6.43187E-03 4.60449E-29
6.57214E-03 4.31988E-29
6.71392E-03 4.05404E-29
6.85720E-03 3.80560E-29
7.00198E-03 3.57335E-29
7.14827E-03 3.35615E-29
7.29605E-03 3.15294E-29
7.44534E-03 2.96277E-29
7.59612E-03 2.78473E-29
7.97965E-03 2.38741E-29
8.37255E-03 2.04953E-29
8.77480E-03 1.76166E-29
9.18641E-03 1.51597E-29
9.60736E-03 1.30595E-29
1.00376E-02 1.12615E-29
1.04773E-02 9.72007E-30
1.09262E-02 8.39690E-30
1.13844E-02 7.25971E-30
1.18520E-02 6.28123E-30
1.23288E-02 5.43843E-30
1.28150E-02 4.71178E-30
1.33104E-02 4.08469E-30
1.38150E-02 3.54305E-30
1.43290E-02 3.07485E-30
1.48521E-02 2.66981E-30
1.53845E-02 2.31918E-30
1.59262E-02 2.01544E-30
1.64770E-02 1.75217E-30
1.70371E-02 1.52383E-30
1.76063E-02 1.32569E-30
1.81848E-02 1.15367E-30
1.87724E-02 1.00425E-30
1.93692E-02 8.74411E-31
1.99751E-02 7.61539E-31
2.05901E-02 6.63381E-31
2.12143E-02 5.77987E-31
2.18476E-02 5.03675E-31
2.24900E-02 4.38987E-31
2.31415E-02 3.82662E-31
2.38021E-02 3.33604E-31
2.44717E-02 2.90868E-31
2.51504E-02 2.53629E-31
2.58382E-02 2.21175E-31
2.65349E-02 1.92886E-31
2.72407E-02 1.68224E-31
2.79555E-02 1.46720E-31
2.86793E-02 1.27968E-31
2.94120E-02 1.11613E-31
3.01537E-02 9.73478E-32
3.09043E-02 8.49048E-32
3.16639E-02 7.40499E-32
3.24324E-02 6.45804E-32
3.32098E-02 5.63187E-32
3.39961E-02 4.91108E-32
3.47912E-02 4.28223E-32
3.55952E-02 3.73356E-32
3.64081E-02 3.25487E-32
3.72297E-02 2.83725E-32
3.80602E-02 2.47292E-32
3.88995E-02 2.15509E-32
3.97476E-02 1.87784E-32
4.06044E-02 1.63600E-32
4.14700E-02 1.42508E-32
4.23443E-02 1.24114E-32
4.32273E-02 1.08074E-32
4.41190E-02 9.40880E-33
4.50194E-02 8.18948E-33
4.59284E-02 7.12662E-33
4.68461E-02 6.20033E-33
4.87074E-02 4.68982E-33
5.06030E-02 3.54355E-33
5.25328E-02 2.67437E-33
5.44967E-02 2.01591E-33
5.64946E-02 1.51751E-33
5.85262E-02 1.14069E-33
6.05914E-02 8.56102E-34
6.26901E-02 6.41452E-34
6.48222E-02 4.79759E-34
6.69873E-02 3.58154E-34
6.91854E-02 2.66829E-34
7.14163E-02 1.98367E-34
7.36799E-02 1.47128E-34
7.59760E-02 1.08860E-34
7.83043E-02 8.03387E-35
8.06647E-02 5.91260E-35
8.30571E-02 4.33891E-35
8.54812E-02 3.17421E-35
8.79369E-02 2.31451E-35
9.04240E-02 1.68176E-35
9.29422E-02 1.21759E-35
9.54915E-02 8.78063E-36
9.80716E-02 6.30610E-36
1.00682E-01 4.50873E-36
1.03323E-01 3.20891E-36
1.05995E-01 2.27221E-36
1.08696E-01 1.60124E-36
1.11427E-01 1.12256E-36
1.14188E-01 7.82218E-37
1.16978E-01 5.42327E-37
1.19797E-01 3.73915E-37
1.22645E-01 2.56724E-37
1.25522E-01 1.75165E-37
1.28428E-01 1.18751E-37
1.31361E-01 8.02196E-38
1.34323E-01 5.41007E-38
1.37313E-01 3.63079E-38
1.40330E-01 2.44673E-38
1.43375E-01 1.64787E-38
1.46447E-01 1.12239E-38
1.49545E-01 7.77199E-39
1.52671E-01 5.45775E-39
1.55823E-01 3.96382E-39
1.59001E-01 2.95600E-39
1.62205E-01 2.34027E-39
1.65435E-01 1.91453E-39
1.68690E-01 1.66403E-39
1.71970E-01 1.52731E-39
1.75276E-01 1.44074E-39
1.78606E-01 1.40601E-39
1.81961E-01 1.41837E-39
1.85340E-01 1.45609E-39
1.88743E-01 1.52343E-39
1.92169E-01 1.59662E-39
1.95619E-01 1.68650E-39
1.99092E-01 1.76582E-39
2.02589E-01 1.86847E-39
2.06107E-01 1.96271E-39
2.09649E-01 2.06102E-39
2.13212E-01 2.14687E-39
2.16797E-01 2.23073E-39
2.20404E-01 2.28567E-39
2.24032E-01 2.36894E-39
2.27680E-01 2.40500E-39
2.31350E-01 2.44041E-39
2.35040E-01 2.46310E-39
2.38751E-01 2.46281E-39
2.42481E-01 2.46723E-39
2.46231E-01 2.44045E-39
2.50000E-01 2.40893E-39
2.53788E-01 2.36652E-39
2.57595E-01 2.33139E-39
2.61421E-01 2.26597E-39
2.65264E-01 2.23004E-39
2.69126E-01 2.17045E-39
2.73005E-01 2.11076E-39
2.76901E-01 2.05790E-39
2.80814E-01 1.99161E-39
2.84744E-01 1.92017E-39
2.88691E-01 1.85842E-39
2.92653E-01 1.76711E-39
2.96632E-01 1.68662E-39
3.00625E-01 1.60712E-39
3.04634E-01 1.51982E-39
3.08658E-01 1.46027E-39
3.12697E-01 1.38294E-39
3.16749E-01 1.31278E-39
3.20816E-01 1.24749E-39
3.24896E-01 1.18014E-39
3.28990E-01 1.12152E-39
3.33097E-01 1.07167E-39
3.37216E-01 1.02109E-39
3.41348E-01 9.55730E-40
3.45492E-01 9.00276E-40
3.49647E-01 8.41162E-40
3.53814E-01 7.98375E-40
3.57992E-01 7.50111E-40
3.62181E-01 7.00352E-40
3.66381E-01 6.65364E-40
3.70590E-01 6.15126E-40
3.74810E-01 5.86690E-40
3.79039E-01 5.50181E-40
3.83277E-01 5.16207E-40
3.87524E-01 4.84232E-40
3.91780E-01 4.61318E-40
3.96044E-01 4.32707E-40
4.00316E-01 4.06853E-40
4.04596E-01 3.75195E-40
4.08882E-01 3.56572E-40
4.13176E-01 3.34035E-40
4.17476E-01 3.07554E-40
4.21783E-01 2.93037E-40
4.26095E-01 2.67484E-40
4.30413E-01 2.54386E-40
4.34737E-01 2.35042E-40
4.39065E-01 2.25485E-40
4.43398E-01 2.11660E-40
4.47736E-01 2.00973E-40
4.52077E-01 1.86338E-40
4.56422E-01 1.80202E-40
4.60770E-01 1.67551E-40
4.65122E-01 1.60727E-40
4.69476E-01 1.49160E-40
4.73832E-01 1.36696E-40
4.78190E-01 1.29241E-40
4.82550E-01 1.21806E-40
4.86912E-01 1.14029E-40
4.91274E-01 1.03724E-40
4.95637E-01 1.00074E-40
5.00000E-01 9.52942E-41
5.04363E-01 8.94062E-41
5.08726E-01 8.29715E-41
5.13088E-01 8.22857E-41
5.17450E-01 7.63612E-41
5.21810E-01 7.39049E-41
5.26168E-01 7.07365E-41
5.30524E-01 6.59066E-41
5.34878E-01 5.89721E-41
5.39230E-01 5.77703E-41
5.43578E-01 5.34003E-41
5.47923E-01 4.93783E-41
5.52264E-01 4.67394E-41
5.56602E-01 4.27521E-41
5.60935E-01 4.06910E-41
5.65263E-01 4.15814E-41
5.69587E-01 3.68823E-41
5.73905E-01 3.68666E-41
5.78217E-01 3.37761E-41
5.82524E-01 3.22608E-41
5.86824E-01 3.02623E-41
5.91118E-01 2.94689E-41
5.95404E-01 2.70830E-41
5.99684E-01 2.54558E-41
6.03956E-01 2.41993E-41
6.08220E-01 2.48094E-41
6.12476E-01 2.19067E-41
6.16723E-01 1.96065E-41
6.20961E-01 1.93537E-41
6.25190E-01 1.97156E-41
6.29410E-01 1.76854E-41
6.33619E-01 1.71009E-41
6.37819E-01 1.55364E-41
6.42008E-01 1.53527E-41
6.46186E-01 1.35582E-41
6.50353E-01 1.43503E-41
6.54508E-01 1.31338E-41
6.58652E-01 1.25657E-41
6.62784E-01 1.18519E-41
6.66903E-01 1.19236E-41
6.71010E-01 1.11260E-41
6.75104E-01 1.05762E-41
6.79184E-01 9.03192E-42
6.83251E-01 9.74676E-42
6.87303E-01 8.24447E-42
6.91342E-01 9.13089E-42
6.95366E-01 8.45031E-42
6.99375E-01 8.39795E-42
7.03368E-01 7.50085E-42
7.07347E-01 7.03623E-42
7.11309E-01 6.41934E-42
7.15256E-01 6.01564E-42
7.19186E-01 5.73460E-42
7.23099E-01 5.54810E-42
7.26995E-01 5.23454E-42
7.30874E-01 5.10606E-42
7.34736E-01 4.78328E-42
7.38579E-01 4.75353E-42
7.42405E-01 4.61148E-42
7.46212E-01 4.20855E-42
7.50000E-01 4.42461E-42
7.53769E-01 4.58201E-42
7.57519E-01 4.07680E-42
7.61249E-01 4.20007E-42
7.64960E-01 3.46534E-42
7.68650E-01 3.06640E-42
7.72320E-01 2.96480E-42
7.75968E-01 3.57659E-42
7.79596E-01 2.92529E-42
7.83203E-01 2.57720E-42
7.86788E-01 2.19323E-42
7.90351E-01 2.78044E-42
7.93893E-01 1.60161E-42
7.97411E-01 2.40151E-42
8.00908E-01 2.10103E-42
8.04381E-01 2.34957E-42
8.07831E-01 2.24315E-42
8.11257E-01 2.50458E-42
8.14660E-01 2.21103E-42
8.18039E-01 2.52495E-42
8.21394E-01 1.97551E-42
8.24724E-01 2.01278E-42
8.28030E-01 1.64112E-42
8.31310E-01 1.67692E-42
8.34565E-01 1.46378E-42
8.37795E-01 1.62827E-42
8.40999E-01 1.34526E-42
8.44177E-01 1.40300E-42
8.47329E-01 1.67347E-42
8.50455E-01 1.03215E-42
8.53553E-01 1.23301E-42
8.56625E-01 9.40155E-43
8.59670E-01 8.09542E-43
8.62687E-01 9.23189E-43
8.65677E-01 1.22996E-42
8.68639E-01 1.36269E-42
8.71572E-01 9.90872E-43
8.74478E-01 9.58510E-43
8.77355E-01 6.58166E-43
8.80203E-01 9.53597E-43
8.83022E-01 7.90780E-43
8.85812E-01 8.11143E-43
8.88573E-01 8.07116E-43
8.91304E-01 2.98342E-43
8.94005E-01 9.57622E-43
8.96677E-01 7.95172E-43
8.99318E-01 4.38144E-43
9.01928E-01 7.53078E-43
9.04508E-01 6.97478E-43
9.07058E-01 3.90843E-43
9.09576E-01 6.72317E-43
9.12063E-01 6.79416E-43
9.14519E-01 3.07662E-43
9.16943E-01 2.75772E-43
9.19335E-01 2.83606E-43
9.21696E-01 4.40360E-43
9.24024E-01 3.26147E-43
9.26320E-01 3.45895E-43
9.28584E-01 4.32604E-43
9.30815E-01 3.80643E-43
9.33013E-01 2.06517E-43
9.35178E-01 4.03700E-43
9.37310E-01 5.25148E-43
9.39409E-01 2.98258E-43
9.41474E-01 1.94125E-43
9.43505E-01 1.79450E-43
9.45503E-01 4.01735E-43
9.47467E-01 6.28967E-44
9.49397E-01 4.75406E-44
9.51293E-01 7.29254E-44
9.53154E-01 2.34878E-43
9.54981E-01 1.01232E-43
9.56773E-01 1.37071E-43
9.58530E-01 1.30465E-43
9.60252E-01 1.51246E-43
9.61940E-01 2.89423E-43
9.63592E-01 2.27670E-43
9.65209E-01 1.32614E-43
9.66790E-01 2.03885E-43
9.68336E-01 1.01705E-43
9.69846E-01 2.14310E-43
9.71321E-01 3.05099E-43
9.72759E-01 3.34674E-44
9.74162E-01 2.19148E-43
9.75528E-01 1.75309E-43
9.76858E-01 2.15823E-43
9.78152E-01 4.64926E-44
9.79410E-01 3.44797E-43
9.80631E-01 4.75246E-43
9.81815E-01 3.90338E-43
9.82963E-01 3.15238E-43
9.84074E-01 3.91137E-43
9.85148E-01 1.02184E-43
9.86185E-01 1.35291E-43
9.87185E-01 3.41500E-44
9.88148E-01 1.35128E-44
9.89074E-01 1.43675E-43
9.89962E-01 1.00569E-42
9.90814E-01 3.60780E-44
9.91627E-01 1.95362E-43
9.92404E-01 6.47593E-43
9.93143E-01 1.00155E-43
9.93844E-01 4.79225E-44
9.94508E-01 2.04761E-43
9.95134E-01 1.20096E-43
9.95722E-01 3.07885E-43
9.96273E-01 1.00000E-45
9.96786E-01 1.00000E-45
9.97261E-01 1.00000E-45
9.97698E-01 1.00000E-45
9.98097E-01 1.00000E-45
9.98459E-01 1.00000E-45
9.98782E-01 1.00000E-45
9.99067E-01 1.00000E-45
9.99315E-01 1.00000E-45
9.99524E-01 1.00000E-45
9.99695E-01 1.00000E-45
9.99829E-01 1.00000E-45
9.99924E-01 1.00000E-45
9.99981E-01 1.00000E-45
1.00000E+00 1.00000E-45
