 #
 # Subroutine ELSEPA. Elastic scattering of electrons and positrons
 #                    by neutral atoms and positive ions
 #
 # Projectile: positron
 # Kinetic energy = 2.00000E+08 eV = 7.34987E+06 a.u.
 #
 # WARNING: High-energy factorization with free-atom DF screening.
 #          Absorption, polarization and exchange corrections are
 #          switched off.
 #          Phase shifts are calculated for the bare nucleus.
 #          Scattering amplitudes are not evaluated.
 #
 # Element:  H,  Z =   1,  atomic weight = 1.00790E+00 g/mol
 #
 # Nuclear model: Fermi distribution
 #                Average radius = 1.07281E-13 cm
 #                Skin thickness = 5.46000E-14 cm
 #
 # Number of electrons =  1
 #
 # Total elastic cross section = 1.08345E-20 cm**2 = 3.86907E-04 a0**2
 # 1st transport cross section = 6.24760E-29 cm**2 = 2.23106E-12 a0**2
 # 2nd transport cross section = 1.86084E-28 cm**2 = 6.64518E-12 a0**2
 #
 #
 # Differential cross section:                       MU=(1-COS(THETA))/2
 #
 #  THETA        MU          DCS          DCS        Sherman      error
 #  (deg)                 (cm**2/sr)   (a0**2/sr)    function
 #----------------------------------------------------------------------
0.00000E+00 4.31129E-12
7.61557E-13 4.28293E-12
1.18994E-12 4.26710E-12
1.71346E-12 4.24785E-12
2.33225E-12 4.22526E-12
3.04617E-12 4.19940E-12
3.85530E-12 4.17037E-12
4.75964E-12 4.13825E-12
5.75917E-12 4.10313E-12
6.85391E-12 4.06518E-12
8.04379E-12 4.02442E-12
9.32893E-12 3.98108E-12
1.07092E-11 3.93525E-12
1.21847E-11 3.88703E-12
1.37554E-11 3.83668E-12
1.54213E-11 3.78415E-12
1.71823E-11 3.72978E-12
1.90386E-11 3.67362E-12
2.09900E-11 3.61582E-12
2.30367E-11 3.55665E-12
2.51785E-11 3.49601E-12
2.74156E-11 3.43432E-12
2.97478E-11 3.37155E-12
3.21752E-11 3.30791E-12
3.46979E-11 3.24362E-12
3.73157E-11 3.17859E-12
4.00286E-11 3.10985E-12
4.28368E-11 3.04014E-12
4.57402E-11 2.97196E-12
4.87388E-11 2.90538E-12
5.18325E-11 2.84044E-12
5.50215E-11 2.77720E-12
5.83057E-11 2.71568E-12
6.16850E-11 2.64994E-12
6.51595E-11 2.58126E-12
6.87293E-11 2.51478E-12
7.23943E-11 2.45047E-12
7.61544E-11 2.38832E-12
1.18991E-10 1.81353E-12
1.71347E-10 1.33795E-12
2.33223E-10 9.79713E-13
3.04617E-10 7.13808E-13
3.85531E-10 5.22200E-13
4.75965E-10 3.85231E-13
5.75917E-10 2.86751E-13
6.85389E-10 2.16147E-13
8.04380E-10 1.62468E-13
9.32891E-10 1.24086E-13
1.07092E-09 9.62535E-14
1.21847E-09 7.57173E-14
1.37554E-09 6.03221E-14
1.54213E-09 4.86126E-14
1.71823E-09 3.95880E-14
1.90386E-09 3.25481E-14
2.09900E-09 2.69950E-14
2.30367E-09 2.25698E-14
2.51785E-09 1.90101E-14
2.74156E-09 1.61216E-14
2.97478E-09 1.37587E-14
3.21752E-09 1.18112E-14
3.46978E-09 1.01950E-14
3.73156E-09 8.84492E-15
4.00286E-09 7.71025E-15
4.28368E-09 6.75119E-15
4.57402E-09 5.93622E-15
4.87388E-09 5.24021E-15
5.18326E-09 4.64298E-15
5.50215E-09 4.12823E-15
5.83057E-09 3.68268E-15
6.16850E-09 3.29550E-15
6.51596E-09 2.95778E-15
6.87293E-09 2.66213E-15
7.23942E-09 2.40243E-15
7.61544E-09 2.17358E-15
1.18991E-08 8.97539E-16
1.71347E-08 4.34755E-16
2.33223E-08 2.35296E-16
3.04617E-08 1.38165E-16
3.85531E-08 8.63586E-17
4.75965E-08 5.67080E-17
5.75917E-08 3.87567E-17
6.85389E-08 2.73779E-17
8.04380E-08 1.98845E-17
9.32891E-08 1.47878E-17
1.07092E-07 1.12242E-17
1.21847E-07 8.67209E-18
1.37554E-07 6.80578E-18
1.54213E-07 5.41555E-18
1.71823E-07 4.36282E-18
1.90386E-07 3.55389E-18
2.09900E-07 2.92404E-18
2.30367E-07 2.42774E-18
2.51785E-07 2.03240E-18
2.74156E-07 1.71435E-18
2.97478E-07 1.45615E-18
3.21752E-07 1.24478E-18
3.46978E-07 1.07040E-18
3.73156E-07 9.25516E-19
4.00286E-07 8.04336E-19
4.28368E-07 7.02355E-19
4.57402E-07 6.16035E-19
4.87388E-07 5.42578E-19
5.18325E-07 4.79751E-19
5.50215E-07 4.25759E-19
5.83057E-07 3.79153E-19
6.16850E-07 3.38754E-19
6.51596E-07 3.03594E-19
6.87293E-07 2.72880E-19
7.23942E-07 2.45953E-19
7.61543E-07 2.22268E-19
1.18991E-06 9.10478E-20
1.71347E-06 4.39098E-20
2.33223E-06 2.37020E-20
3.04617E-06 1.38938E-20
3.85531E-06 8.67392E-21
4.75964E-06 5.69098E-21
5.75916E-06 3.88702E-21
6.85388E-06 2.74450E-21
8.04378E-06 1.99257E-21
9.32888E-06 1.48141E-21
1.07092E-05 1.12414E-21
1.21846E-05 8.68372E-22
1.37553E-05 6.81380E-22
1.54212E-05 5.42118E-22
1.71822E-05 4.36685E-22
1.90385E-05 3.55682E-22
2.09899E-05 2.92619E-22
2.30365E-05 2.42934E-22
2.51783E-05 2.03360E-22
2.74153E-05 1.71527E-22
2.97475E-05 1.45685E-22
3.21749E-05 1.24532E-22
3.46974E-05 1.07082E-22
3.73152E-05 9.25847E-23
4.00281E-05 8.04596E-23
4.28362E-05 7.02560E-23
4.57395E-05 6.16199E-23
4.87380E-05 5.42708E-23
5.18317E-05 4.79854E-23
5.50205E-05 4.25842E-23
5.83045E-05 3.79219E-23
6.16838E-05 3.38806E-23
6.51582E-05 3.03636E-23
6.87277E-05 2.72914E-23
7.23925E-05 2.45980E-23
7.61524E-05 2.22289E-23
9.21439E-05 1.51825E-23
1.09658E-04 1.07198E-23
1.28695E-04 7.77526E-24
1.49255E-04 5.78618E-24
1.71338E-04 4.39073E-24
1.94942E-04 3.39172E-24
2.20070E-04 2.66136E-24
2.46720E-04 2.11351E-24
2.74892E-04 1.70212E-24
3.04586E-04 1.38608E-24
3.35803E-04 1.14006E-24
3.68542E-04 9.46266E-25
4.02802E-04 7.91914E-25
4.38585E-04 6.67779E-25
4.75889E-04 5.67019E-25
5.14715E-04 4.84551E-25
5.55063E-04 4.16536E-25
5.96931E-04 3.60031E-25
6.40321E-04 3.12784E-25
6.85233E-04 2.73029E-25
7.31665E-04 2.39387E-25
7.79618E-04 2.10765E-25
8.29092E-04 1.86288E-25
8.80086E-04 1.65260E-25
9.32601E-04 1.47111E-25
9.86636E-04 1.31383E-25
1.04219E-03 1.17698E-25
1.09927E-03 1.05746E-25
1.15786E-03 9.52707E-26
1.21797E-03 8.60578E-26
1.27961E-03 7.79299E-26
1.34276E-03 7.07370E-26
1.40743E-03 6.43531E-26
1.47362E-03 5.86717E-26
1.54133E-03 5.36018E-26
1.61056E-03 4.90665E-26
1.68131E-03 4.49994E-26
1.75357E-03 4.13438E-26
1.82735E-03 3.80509E-26
1.90265E-03 3.50782E-26
1.97947E-03 3.23892E-26
2.05780E-03 2.99521E-26
2.13765E-03 2.77391E-26
2.21902E-03 2.57259E-26
2.30190E-03 2.38914E-26
2.38630E-03 2.22168E-26
2.47222E-03 2.06857E-26
2.55965E-03 1.92838E-26
2.64859E-03 1.79980E-26
2.73905E-03 1.68171E-26
2.83103E-03 1.57310E-26
2.92452E-03 1.47307E-26
3.01952E-03 1.38082E-26
3.11604E-03 1.29564E-26
3.21407E-03 1.21690E-26
3.31362E-03 1.14400E-26
3.41468E-03 1.07646E-26
3.51725E-03 1.01379E-26
3.62133E-03 9.55588E-27
3.72692E-03 9.01477E-27
3.83403E-03 8.51114E-27
3.94265E-03 8.04195E-27
4.05278E-03 7.60441E-27
4.16442E-03 7.19600E-27
4.27757E-03 6.81444E-27
4.39223E-03 6.45762E-27
4.50840E-03 6.12368E-27
4.62608E-03 5.81086E-27
4.74527E-03 5.51759E-27
4.86597E-03 5.24243E-27
4.98817E-03 4.98405E-27
5.11188E-03 4.74125E-27
5.23711E-03 4.51291E-27
5.36383E-03 4.29803E-27
5.49207E-03 4.09565E-27
5.62181E-03 3.90493E-27
5.75306E-03 3.72506E-27
5.88581E-03 3.55532E-27
6.02007E-03 3.39504E-27
6.15583E-03 3.24358E-27
6.29310E-03 3.10038E-27
6.43187E-03 2.96491E-27
6.57214E-03 2.83666E-27
6.71392E-03 2.71519E-27
6.85720E-03 2.60008E-27
7.00198E-03 2.49092E-27
7.14827E-03 2.38736E-27
7.29605E-03 2.28905E-27
7.44534E-03 2.19568E-27
7.59612E-03 2.10696E-27
7.97965E-03 1.90374E-27
8.37255E-03 1.72411E-27
8.77480E-03 1.56488E-27
9.18641E-03 1.42334E-27
9.60736E-03 1.29720E-27
1.00376E-02 1.18450E-27
1.04773E-02 1.08357E-27
1.09262E-02 9.92980E-28
1.13844E-02 9.11486E-28
1.18520E-02 8.38024E-28
1.23288E-02 7.71668E-28
1.28150E-02 7.11617E-28
1.33104E-02 6.57169E-28
1.38150E-02 6.07715E-28
1.43290E-02 5.62720E-28
1.48521E-02 5.21713E-28
1.53845E-02 4.84282E-28
1.59262E-02 4.50063E-28
1.64770E-02 4.18735E-28
1.70371E-02 3.90011E-28
1.76063E-02 3.63639E-28
1.81848E-02 3.39395E-28
1.87724E-02 3.17078E-28
1.93692E-02 2.96509E-28
1.99751E-02 2.77528E-28
2.05901E-02 2.59993E-28
2.12143E-02 2.43775E-28
2.18476E-02 2.28759E-28
2.24900E-02 2.14841E-28
2.31415E-02 2.01927E-28
2.38021E-02 1.89933E-28
2.44717E-02 1.78783E-28
2.51504E-02 1.68408E-28
2.58382E-02 1.58744E-28
2.65349E-02 1.49735E-28
2.72407E-02 1.41330E-28
2.79555E-02 1.33481E-28
2.86793E-02 1.26146E-28
2.94120E-02 1.19286E-28
3.01537E-02 1.12864E-28
3.09043E-02 1.06849E-28
3.16639E-02 1.01210E-28
3.24324E-02 9.59204E-29
3.32098E-02 9.09548E-29
3.39961E-02 8.62902E-29
3.47912E-02 8.19055E-29
3.55952E-02 7.77813E-29
3.64081E-02 7.38996E-29
3.72297E-02 7.02440E-29
3.80602E-02 6.67992E-29
3.88995E-02 6.35512E-29
3.97476E-02 6.04869E-29
4.06044E-02 5.75944E-29
4.14700E-02 5.48626E-29
4.23443E-02 5.22811E-29
4.32273E-02 4.98405E-29
4.41190E-02 4.75318E-29
4.50194E-02 4.53468E-29
4.59284E-02 4.32780E-29
4.68461E-02 4.13182E-29
4.87074E-02 3.76996E-29
5.06030E-02 3.44435E-29
5.25328E-02 3.15086E-29
5.44967E-02 2.88587E-29
5.64946E-02 2.64625E-29
5.85262E-02 2.42922E-29
6.05914E-02 2.23239E-29
6.26901E-02 2.05361E-29
6.48222E-02 1.89102E-29
6.69873E-02 1.74295E-29
6.91854E-02 1.60795E-29
7.14163E-02 1.48470E-29
7.36799E-02 1.37206E-29
7.59760E-02 1.26900E-29
7.83043E-02 1.17460E-29
8.06647E-02 1.08805E-29
8.30571E-02 1.00862E-29
8.54812E-02 9.35638E-30
8.79369E-02 8.68532E-30
9.04240E-02 8.06770E-30
9.29422E-02 7.49877E-30
9.54915E-02 6.97425E-30
9.80716E-02 6.49029E-30
1.00682E-01 6.04338E-30
1.03323E-01 5.63039E-30
1.05995E-01 5.24846E-30
1.08696E-01 4.89500E-30
1.11427E-01 4.56766E-30
1.14188E-01 4.26431E-30
1.16978E-01 3.98301E-30
1.19797E-01 3.72199E-30
1.22645E-01 3.47965E-30
1.25522E-01 3.25451E-30
1.28428E-01 3.04523E-30
1.31361E-01 2.85058E-30
1.34323E-01 2.66946E-30
1.37313E-01 2.50081E-30
1.40330E-01 2.34372E-30
1.43375E-01 2.19730E-30
1.46447E-01 2.06078E-30
1.49545E-01 1.93342E-30
1.52671E-01 1.81455E-30
1.55823E-01 1.70357E-30
1.59001E-01 1.59988E-30
1.62205E-01 1.50300E-30
1.65435E-01 1.41241E-30
1.68690E-01 1.32769E-30
1.71970E-01 1.24842E-30
1.75276E-01 1.17423E-30
1.78606E-01 1.10475E-30
1.81961E-01 1.03968E-30
1.85340E-01 9.78698E-31
1.88743E-01 9.21542E-31
1.92169E-01 8.67948E-31
1.95619E-01 8.17679E-31
1.99092E-01 7.70512E-31
2.02589E-01 7.26244E-31
2.06107E-01 6.84682E-31
2.09649E-01 6.45651E-31
2.13212E-01 6.08984E-31
2.16797E-01 5.74530E-31
2.20404E-01 5.42144E-31
2.24032E-01 5.11697E-31
2.27680E-01 4.83061E-31
2.31350E-01 4.56125E-31
2.35040E-01 4.30779E-31
2.38751E-01 4.06924E-31
2.42481E-01 3.84467E-31
2.46231E-01 3.63320E-31
2.50000E-01 3.43402E-31
2.53788E-01 3.24638E-31
2.57595E-01 3.06957E-31
2.61421E-01 2.90292E-31
2.65264E-01 2.74583E-31
2.69126E-01 2.59769E-31
2.73005E-01 2.45799E-31
2.76901E-01 2.32621E-31
2.80814E-01 2.20186E-31
2.84744E-01 2.08452E-31
2.88691E-01 1.97376E-31
2.92653E-01 1.86919E-31
2.96632E-01 1.77045E-31
3.00625E-01 1.67720E-31
3.04634E-01 1.58910E-31
3.08658E-01 1.50589E-31
3.12697E-01 1.42724E-31
3.16749E-01 1.35291E-31
3.20816E-01 1.28265E-31
3.24896E-01 1.21621E-31
3.28990E-01 1.15340E-31
3.33097E-01 1.09399E-31
3.37216E-01 1.03779E-31
3.41348E-01 9.84613E-32
3.45492E-01 9.34298E-32
3.49647E-01 8.86678E-32
3.53814E-01 8.41610E-32
3.57992E-01 7.98940E-32
3.62181E-01 7.58536E-32
3.66381E-01 7.20280E-32
3.70590E-01 6.84036E-32
3.74810E-01 6.49714E-32
3.79039E-01 6.17190E-32
3.83277E-01 5.86372E-32
3.87524E-01 5.57166E-32
3.91780E-01 5.29488E-32
3.96044E-01 5.03246E-32
4.00316E-01 4.78367E-32
4.04596E-01 4.54772E-32
4.08882E-01 4.32401E-32
4.13176E-01 4.11181E-32
4.17476E-01 3.91048E-32
4.21783E-01 3.71952E-32
4.26095E-01 3.53826E-32
4.30413E-01 3.36630E-32
4.34737E-01 3.20304E-32
4.39065E-01 3.04812E-32
4.43398E-01 2.90101E-32
4.47736E-01 2.76134E-32
4.52077E-01 2.62868E-32
4.56422E-01 2.50274E-32
4.60770E-01 2.38307E-32
4.65122E-01 2.26941E-32
4.69476E-01 2.16140E-32
4.73832E-01 2.05876E-32
4.78190E-01 1.96125E-32
4.82550E-01 1.86856E-32
4.86912E-01 1.78045E-32
4.91274E-01 1.69667E-32
4.95637E-01 1.61704E-32
5.00000E-01 1.54132E-32
5.04363E-01 1.46929E-32
5.08726E-01 1.40078E-32
5.13088E-01 1.33564E-32
5.17450E-01 1.27364E-32
5.21810E-01 1.21467E-32
5.26168E-01 1.15855E-32
5.30524E-01 1.10513E-32
5.34878E-01 1.05427E-32
5.39230E-01 1.00589E-32
5.43578E-01 9.59817E-33
5.47923E-01 9.15947E-33
5.52264E-01 8.74180E-33
5.56602E-01 8.34394E-33
5.60935E-01 7.96511E-33
5.65263E-01 7.60444E-33
5.69587E-01 7.26046E-33
5.73905E-01 6.93304E-33
5.78217E-01 6.62084E-33
5.82524E-01 6.32343E-33
5.86824E-01 6.03994E-33
5.91118E-01 5.76982E-33
5.95404E-01 5.51220E-33
5.99684E-01 5.26665E-33
6.03956E-01 5.03254E-33
6.08220E-01 4.80943E-33
6.12476E-01 4.59641E-33
6.16723E-01 4.39325E-33
6.20961E-01 4.19960E-33
6.25190E-01 4.01489E-33
6.29410E-01 3.83849E-33
6.33619E-01 3.67027E-33
6.37819E-01 3.50966E-33
6.42008E-01 3.35647E-33
6.46186E-01 3.21014E-33
6.50353E-01 3.07064E-33
6.54508E-01 2.93733E-33
6.58652E-01 2.81008E-33
6.62784E-01 2.68857E-33
6.66903E-01 2.57259E-33
6.71010E-01 2.46175E-33
6.75104E-01 2.35589E-33
6.79184E-01 2.25469E-33
6.83251E-01 2.15816E-33
6.87303E-01 2.06577E-33
6.91342E-01 1.97765E-33
6.95366E-01 1.89332E-33
6.99375E-01 1.81277E-33
7.03368E-01 1.73571E-33
7.07347E-01 1.66208E-33
7.11309E-01 1.59168E-33
7.15256E-01 1.52438E-33
7.19186E-01 1.46003E-33
7.23099E-01 1.39851E-33
7.26995E-01 1.33965E-33
7.30874E-01 1.28337E-33
7.34736E-01 1.22951E-33
7.38579E-01 1.17800E-33
7.42405E-01 1.12870E-33
7.46212E-01 1.08151E-33
7.50000E-01 1.03640E-33
7.53769E-01 9.93211E-34
7.57519E-01 9.51828E-34
7.61249E-01 9.12261E-34
7.64960E-01 8.74319E-34
7.68650E-01 8.38016E-34
7.72320E-01 8.03279E-34
7.75968E-01 7.70070E-34
7.79596E-01 7.38171E-34
7.83203E-01 7.07636E-34
7.86788E-01 6.78383E-34
7.90351E-01 6.50435E-34
7.93893E-01 6.23513E-34
7.97411E-01 5.97884E-34
8.00908E-01 5.73230E-34
8.04381E-01 5.49645E-34
8.07831E-01 5.27018E-34
8.11257E-01 5.05354E-34
8.14660E-01 4.84551E-34
8.18039E-01 4.64651E-34
8.21394E-01 4.45513E-34
8.24724E-01 4.27204E-34
8.28030E-01 4.09615E-34
8.31310E-01 3.92782E-34
8.34565E-01 3.76615E-34
8.37795E-01 3.61137E-34
8.40999E-01 3.46255E-34
8.44177E-01 3.31999E-34
8.47329E-01 3.18343E-34
8.50455E-01 3.05169E-34
8.53553E-01 2.92591E-34
8.56625E-01 2.80482E-34
8.59670E-01 2.68873E-34
8.62687E-01 2.57752E-34
8.65677E-01 2.47096E-34
8.68639E-01 2.36851E-34
8.71572E-01 2.26978E-34
8.74478E-01 2.17530E-34
8.77355E-01 2.08432E-34
8.80203E-01 1.99743E-34
8.83022E-01 1.91367E-34
8.85812E-01 1.83333E-34
8.88573E-01 1.75613E-34
8.91304E-01 1.68157E-34
8.94005E-01 1.61092E-34
8.96677E-01 1.54242E-34
8.99318E-01 1.47646E-34
9.01928E-01 1.41360E-34
9.04508E-01 1.35291E-34
9.07058E-01 1.29447E-34
9.09576E-01 1.23874E-34
9.12063E-01 1.18498E-34
9.14519E-01 1.13298E-34
9.16943E-01 1.08338E-34
9.19335E-01 1.03569E-34
9.21696E-01 9.89980E-35
9.24024E-01 9.45823E-35
9.26320E-01 9.03476E-35
9.28584E-01 8.62854E-35
9.30815E-01 8.23700E-35
9.33013E-01 7.85960E-35
9.35178E-01 7.49962E-35
9.37310E-01 7.15348E-35
9.39409E-01 6.81830E-35
9.41474E-01 6.49692E-35
9.43505E-01 6.18871E-35
9.45503E-01 5.89408E-35
9.47467E-01 5.60628E-35
9.49397E-01 5.33262E-35
9.51293E-01 5.07077E-35
9.53154E-01 4.81962E-35
9.54981E-01 4.57641E-35
9.56773E-01 4.34365E-35
9.58530E-01 4.11995E-35
9.60252E-01 3.90520E-35
9.61940E-01 3.69934E-35
9.63592E-01 3.50117E-35
9.65209E-01 3.31008E-35
9.66790E-01 3.12825E-35
9.68336E-01 2.95242E-35
9.69846E-01 2.78528E-35
9.71321E-01 2.62361E-35
9.72759E-01 2.46829E-35
9.74162E-01 2.32153E-35
9.75528E-01 2.17859E-35
9.76858E-01 2.04361E-35
9.78152E-01 1.91245E-35
9.79410E-01 1.78927E-35
9.80631E-01 1.67068E-35
9.81815E-01 1.55607E-35
9.82963E-01 1.44724E-35
9.84074E-01 1.34370E-35
9.85148E-01 1.24350E-35
9.86185E-01 1.14858E-35
9.87185E-01 1.05764E-35
9.88148E-01 9.73114E-36
9.89074E-01 8.92666E-36
9.89962E-01 8.15943E-36
9.90814E-01 7.41252E-36
9.91627E-01 6.73152E-36
9.92404E-01 6.08309E-36
9.93143E-01 5.45831E-36
9.93844E-01 4.87865E-36
9.94508E-01 4.33989E-36
9.95134E-01 3.82778E-36
9.95722E-01 3.35764E-36
9.96273E-01 2.90793E-36
9.96786E-01 2.49995E-36
9.97261E-01 2.12173E-36
9.97698E-01 1.77542E-36
9.98097E-01 1.47216E-36
9.98459E-01 1.18975E-36
9.98782E-01 9.43252E-37
9.99067E-01 7.18411E-37
9.99315E-01 5.29877E-37
9.99524E-01 3.73864E-37
9.99695E-01 2.37562E-37
9.99829E-01 1.37712E-37
9.99924E-01 6.16832E-38
9.99981E-01 1.96946E-38
1.00000E+00 7.36398E-39
