 #
 # Subroutine ELSEPA. Elastic scattering of electrons and positrons
 #                    by neutral atoms and positive ions
 #
 # Projectile: positron
 # Kinetic energy = 2.50000E+08 eV = 9.18733E+06 a.u.
 #
 # WARNING: High-energy factorization with free-atom DF screening.
 #          Absorption, polarization and exchange corrections are
 #          switched off.
 #          Phase shifts are calculated for the bare nucleus.
 #          Scattering amplitudes are not evaluated.
 #
 # Element:  H,  Z =   1,  atomic weight = 1.00790E+00 g/mol
 #
 # Nuclear model: Fermi distribution
 #                Average radius = 1.07281E-13 cm
 #                Skin thickness = 5.46000E-14 cm
 #
 # Number of electrons =  1
 #
 # Total elastic cross section = 1.08326E-20 cm**2 = 3.86839E-04 a0**2
 # 1st transport cross section = 4.01528E-29 cm**2 = 1.43388E-12 a0**2
 # 2nd transport cross section = 1.19862E-28 cm**2 = 4.28037E-12 a0**2
 #
 #
 # Differential cross section:                       MU=(1-COS(THETA))/2
 #
 #  THETA        MU          DCS          DCS        Sherman      error
 #  (deg)                 (cm**2/sr)   (a0**2/sr)    function
 #----------------------------------------------------------------------
0.00000E+00 6.72953E-12
7.61557E-13 6.66061E-12
1.18994E-12 6.62228E-12
1.71346E-12 6.57584E-12
2.33225E-12 6.52155E-12
3.04617E-12 6.45970E-12
3.85530E-12 6.39056E-12
4.75964E-12 6.31447E-12
5.75917E-12 6.23185E-12
6.85391E-12 6.14312E-12
8.04379E-12 6.04864E-12
9.32893E-12 5.94878E-12
1.07092E-11 5.84411E-12
1.21847E-11 5.73509E-12
1.37554E-11 5.62213E-12
1.54213E-11 5.50555E-12
1.71823E-11 5.38600E-12
1.90386E-11 5.26394E-12
2.09900E-11 5.13980E-12
2.30367E-11 5.01374E-12
2.51785E-11 4.88337E-12
2.74156E-11 4.74703E-12
2.97478E-11 4.61440E-12
3.21752E-11 4.48570E-12
3.46979E-11 4.36107E-12
3.73157E-11 4.24061E-12
4.00286E-11 4.11119E-12
4.28368E-11 3.97878E-12
4.57402E-11 3.85170E-12
4.87388E-11 3.72988E-12
5.18325E-11 3.61321E-12
5.50215E-11 3.50157E-12
5.83057E-11 3.37777E-12
6.16850E-11 3.25874E-12
6.51595E-11 3.14536E-12
6.87293E-11 3.03740E-12
7.23943E-11 2.93463E-12
7.61544E-11 2.83298E-12
1.18991E-10 1.93654E-12
1.71347E-10 1.30569E-12
2.33223E-10 8.82041E-13
3.04617E-10 6.02242E-13
3.85531E-10 4.17368E-13
4.75965E-10 2.92554E-13
5.75917E-10 2.07256E-13
6.85389E-10 1.50526E-13
8.04380E-10 1.11744E-13
9.32891E-10 8.45725E-14
1.07092E-09 6.51140E-14
1.21847E-09 5.09035E-14
1.37554E-09 4.03418E-14
1.54213E-09 3.23669E-14
1.71823E-09 2.62584E-14
1.90386E-09 2.15185E-14
2.09900E-09 1.77968E-14
2.30367E-09 1.48427E-14
2.51785E-09 1.24747E-14
2.74156E-09 1.05590E-14
2.97478E-09 8.99618E-15
3.21752E-09 7.71123E-15
3.46978E-09 6.64709E-15
3.73156E-09 5.75986E-15
4.00286E-09 5.01550E-15
4.28368E-09 4.38731E-15
4.57402E-09 3.85426E-15
4.87388E-09 3.39960E-15
5.18326E-09 3.00991E-15
5.50215E-09 2.67440E-15
5.83057E-09 2.38428E-15
6.16850E-09 2.13240E-15
6.51596E-09 1.91286E-15
6.87293E-09 1.72082E-15
7.23942E-09 1.55226E-15
7.61544E-09 1.40381E-15
1.18991E-08 5.78001E-16
1.71347E-08 2.79534E-16
2.33223E-08 1.51144E-16
3.04617E-08 8.86960E-17
3.85531E-08 5.54147E-17
4.75965E-08 3.63774E-17
5.75917E-08 2.48563E-17
6.85389E-08 1.75556E-17
8.04380E-08 1.27488E-17
9.32891E-08 9.48011E-18
1.07092E-07 7.19493E-18
1.21847E-07 5.55861E-18
1.37554E-07 4.36209E-18
1.54213E-07 3.47087E-18
1.71823E-07 2.79605E-18
1.90386E-07 2.27755E-18
2.09900E-07 1.87384E-18
2.30367E-07 1.55575E-18
2.51785E-07 1.30238E-18
2.74156E-07 1.09855E-18
2.97478E-07 9.33076E-19
3.21752E-07 7.97619E-19
3.46978E-07 6.85874E-19
3.73156E-07 5.93030E-19
4.00286E-07 5.15378E-19
4.28368E-07 4.50029E-19
4.57402E-07 3.94717E-19
4.87388E-07 3.47647E-19
5.18325E-07 3.07389E-19
5.50215E-07 2.72793E-19
5.83057E-07 2.42930E-19
6.16850E-07 2.17044E-19
6.51596E-07 1.94516E-19
6.87293E-07 1.74836E-19
7.23942E-07 1.57584E-19
7.61543E-07 1.42407E-19
1.18991E-06 5.83328E-20
1.71347E-06 2.81319E-20
2.33223E-06 1.51851E-20
3.04617E-06 8.90127E-21
3.85531E-06 5.55703E-21
4.75964E-06 3.64597E-21
5.75916E-06 2.49025E-21
6.85388E-06 1.75828E-21
8.04378E-06 1.27655E-21
9.32888E-06 9.49072E-22
1.07092E-05 7.20187E-22
1.21846E-05 5.56325E-22
1.37553E-05 4.36528E-22
1.54212E-05 3.47309E-22
1.71822E-05 2.79763E-22
1.90385E-05 2.27868E-22
2.09899E-05 1.87467E-22
2.30365E-05 1.55636E-22
2.51783E-05 1.30283E-22
2.74153E-05 1.09889E-22
2.97475E-05 9.33333E-23
3.21749E-05 7.97815E-23
3.46974E-05 6.86023E-23
3.73152E-05 5.93145E-23
4.00281E-05 5.15465E-23
4.28362E-05 4.50096E-23
4.57395E-05 3.94768E-23
4.87380E-05 3.47686E-23
5.18317E-05 3.07419E-23
5.50205E-05 2.72816E-23
5.83045E-05 2.42947E-23
6.16838E-05 2.17057E-23
6.51582E-05 1.94525E-23
6.87277E-05 1.74842E-23
7.23925E-05 1.57587E-23
7.61524E-05 1.42409E-23
9.21439E-05 9.72666E-24
1.09658E-04 6.86762E-24
1.28695E-04 4.97888E-24
1.49255E-04 3.70692E-24
1.71338E-04 2.81292E-24
1.94942E-04 2.17291E-24
2.20070E-04 1.70500E-24
2.46720E-04 1.35280E-24
2.74892E-04 1.08937E-24
3.04586E-04 8.87005E-25
3.35803E-04 7.29481E-25
3.68542E-04 6.05407E-25
4.02802E-04 5.06592E-25
4.38585E-04 4.27126E-25
4.75889E-04 3.62628E-25
5.14715E-04 3.09843E-25
5.55063E-04 2.66311E-25
5.96931E-04 2.30150E-25
6.40321E-04 1.99916E-25
6.85233E-04 1.74478E-25
7.31665E-04 1.52953E-25
7.79618E-04 1.34642E-25
8.29092E-04 1.18984E-25
8.80086E-04 1.05533E-25
9.32601E-04 9.39255E-26
9.86636E-04 8.38671E-26
1.04219E-03 7.51162E-26
1.09927E-03 6.74741E-26
1.15786E-03 6.07769E-26
1.21797E-03 5.48875E-26
1.27961E-03 4.96924E-26
1.34276E-03 4.50954E-26
1.40743E-03 4.10159E-26
1.47362E-03 3.73858E-26
1.54133E-03 3.41468E-26
1.61056E-03 3.12497E-26
1.68131E-03 2.86520E-26
1.75357E-03 2.63175E-26
1.82735E-03 2.42148E-26
1.90265E-03 2.23169E-26
1.97947E-03 2.06004E-26
2.05780E-03 1.90448E-26
2.13765E-03 1.76326E-26
2.21902E-03 1.63480E-26
2.30190E-03 1.51776E-26
2.38630E-03 1.41095E-26
2.47222E-03 1.31330E-26
2.55965E-03 1.22390E-26
2.64859E-03 1.14192E-26
2.73905E-03 1.06665E-26
2.83103E-03 9.97424E-27
2.92452E-03 9.33681E-27
3.01952E-03 8.74910E-27
3.11604E-03 8.20651E-27
3.21407E-03 7.70497E-27
3.31362E-03 7.24082E-27
3.41468E-03 6.81078E-27
3.51725E-03 6.41189E-27
3.62133E-03 6.04149E-27
3.72692E-03 5.69719E-27
3.83403E-03 5.37681E-27
3.94265E-03 5.07839E-27
4.05278E-03 4.80017E-27
4.16442E-03 4.54052E-27
4.27757E-03 4.29800E-27
4.39223E-03 4.07125E-27
4.50840E-03 3.85908E-27
4.62608E-03 3.66038E-27
4.74527E-03 3.47413E-27
4.86597E-03 3.29943E-27
4.98817E-03 3.13542E-27
5.11188E-03 2.98134E-27
5.23711E-03 2.83647E-27
5.36383E-03 2.70017E-27
5.49207E-03 2.57183E-27
5.62181E-03 2.45091E-27
5.75306E-03 2.33691E-27
5.88581E-03 2.22935E-27
6.02007E-03 2.12781E-27
6.15583E-03 2.03188E-27
6.29310E-03 1.94121E-27
6.43187E-03 1.85545E-27
6.57214E-03 1.77430E-27
6.71392E-03 1.69745E-27
6.85720E-03 1.62464E-27
7.00198E-03 1.55562E-27
7.14827E-03 1.49015E-27
7.29605E-03 1.42802E-27
7.44534E-03 1.36904E-27
7.59612E-03 1.31300E-27
7.97965E-03 1.18472E-27
8.37255E-03 1.07141E-27
8.77480E-03 9.71050E-28
9.18641E-03 8.81911E-28
9.60736E-03 8.02536E-28
1.00376E-02 7.31679E-28
1.04773E-02 6.68278E-28
1.09262E-02 6.11419E-28
1.13844E-02 5.60318E-28
1.18520E-02 5.14295E-28
1.23288E-02 4.72764E-28
1.28150E-02 4.35215E-28
1.33104E-02 4.01204E-28
1.38150E-02 3.70344E-28
1.43290E-02 3.42295E-28
1.48521E-02 3.16760E-28
1.53845E-02 2.93476E-28
1.59262E-02 2.72214E-28
1.64770E-02 2.52770E-28
1.70371E-02 2.34963E-28
1.76063E-02 2.18633E-28
1.81848E-02 2.03639E-28
1.87724E-02 1.89853E-28
1.93692E-02 1.77163E-28
1.99751E-02 1.65468E-28
2.05901E-02 1.54677E-28
2.12143E-02 1.44710E-28
2.18476E-02 1.35494E-28
2.24900E-02 1.26963E-28
2.31415E-02 1.19059E-28
2.38021E-02 1.11728E-28
2.44717E-02 1.04923E-28
2.51504E-02 9.85991E-29
2.58382E-02 9.27182E-29
2.65349E-02 8.72442E-29
2.72407E-02 8.21447E-29
2.79555E-02 7.73901E-29
2.86793E-02 7.29536E-29
2.94120E-02 6.88108E-29
3.01537E-02 6.49393E-29
3.09043E-02 6.13188E-29
3.16639E-02 5.79304E-29
3.24324E-02 5.47573E-29
3.32098E-02 5.17837E-29
3.39961E-02 4.89952E-29
3.47912E-02 4.63788E-29
3.55952E-02 4.39221E-29
3.64081E-02 4.16141E-29
3.72297E-02 3.94445E-29
3.80602E-02 3.74039E-29
3.88995E-02 3.54834E-29
3.97476E-02 3.36751E-29
4.06044E-02 3.19715E-29
4.14700E-02 3.03656E-29
4.23443E-02 2.88512E-29
4.32273E-02 2.74222E-29
4.41190E-02 2.60733E-29
4.50194E-02 2.47993E-29
4.59284E-02 2.35955E-29
4.68461E-02 2.24576E-29
4.87074E-02 2.03632E-29
5.06030E-02 1.84869E-29
5.25328E-02 1.68032E-29
5.44967E-02 1.52900E-29
5.64946E-02 1.39280E-29
5.85262E-02 1.27003E-29
6.05914E-02 1.15923E-29
6.26901E-02 1.05908E-29
6.48222E-02 9.68468E-30
6.69873E-02 8.86372E-30
6.91854E-02 8.11910E-30
7.14163E-02 7.44297E-30
7.36799E-02 6.82839E-30
7.59760E-02 6.26917E-30
7.83043E-02 5.75984E-30
8.06647E-02 5.29550E-30
8.30571E-02 4.87180E-30
8.54812E-02 4.48485E-30
8.79369E-02 4.13115E-30
9.04240E-02 3.80759E-30
9.29422E-02 3.51137E-30
9.54915E-02 3.23997E-30
9.80716E-02 2.99114E-30
1.00682E-01 2.76284E-30
1.03323E-01 2.55322E-30
1.05995E-01 2.36064E-30
1.08696E-01 2.18361E-30
1.11427E-01 2.02076E-30
1.14188E-01 1.87086E-30
1.16978E-01 1.73282E-30
1.19797E-01 1.60563E-30
1.22645E-01 1.48836E-30
1.25522E-01 1.38019E-30
1.28428E-01 1.28036E-30
1.31361E-01 1.18818E-30
1.34323E-01 1.10304E-30
1.37313E-01 1.02434E-30
1.40330E-01 9.51582E-31
1.43375E-01 8.84278E-31
1.46447E-01 8.21996E-31
1.49545E-01 7.64339E-31
1.52671E-01 7.10939E-31
1.55823E-01 6.61467E-31
1.59001E-01 6.15612E-31
1.62205E-01 5.73099E-31
1.65435E-01 5.33667E-31
1.68690E-01 4.97082E-31
1.71970E-01 4.63127E-31
1.75276E-01 4.31601E-31
1.78606E-01 4.02322E-31
1.81961E-01 3.75122E-31
1.85340E-01 3.49845E-31
1.88743E-01 3.26349E-31
1.92169E-01 3.04500E-31
1.95619E-01 2.84179E-31
1.99092E-01 2.65272E-31
2.02589E-01 2.47679E-31
2.06107E-01 2.31301E-31
2.09649E-01 2.16052E-31
2.13212E-01 2.01850E-31
2.16797E-01 1.88620E-31
2.20404E-01 1.76292E-31
2.24032E-01 1.64803E-31
2.27680E-01 1.54092E-31
2.31350E-01 1.44106E-31
2.35040E-01 1.34792E-31
2.38751E-01 1.26103E-31
2.42481E-01 1.17996E-31
2.46231E-01 1.10430E-31
2.50000E-01 1.03367E-31
2.53788E-01 9.67735E-32
2.57595E-01 9.06164E-32
2.61421E-01 8.48650E-32
2.65264E-01 7.94930E-32
2.69126E-01 7.44731E-32
2.73005E-01 6.97819E-32
2.76901E-01 6.53972E-32
2.80814E-01 6.12978E-32
2.84744E-01 5.74647E-32
2.88691E-01 5.38801E-32
2.92653E-01 5.05265E-32
2.96632E-01 4.73893E-32
3.00625E-01 4.44538E-32
3.04634E-01 4.17064E-32
3.08658E-01 3.91352E-32
3.12697E-01 3.67278E-32
3.16749E-01 3.44737E-32
3.20816E-01 3.23628E-32
3.24896E-01 3.03855E-32
3.28990E-01 2.85334E-32
3.33097E-01 2.67983E-32
3.37216E-01 2.51723E-32
3.41348E-01 2.36480E-32
3.45492E-01 2.22194E-32
3.49647E-01 2.08800E-32
3.53814E-01 1.96244E-32
3.57992E-01 1.84467E-32
3.62181E-01 1.73421E-32
3.66381E-01 1.63061E-32
3.70590E-01 1.53338E-32
3.74810E-01 1.44219E-32
3.79039E-01 1.35658E-32
3.83277E-01 1.27623E-32
3.87524E-01 1.20081E-32
3.91780E-01 1.13001E-32
3.96044E-01 1.06351E-32
4.00316E-01 1.00107E-32
4.04596E-01 9.42408E-33
4.08882E-01 8.87325E-33
4.13176E-01 8.35564E-33
4.17476E-01 7.86918E-33
4.21783E-01 7.41223E-33
4.26095E-01 6.98250E-33
4.30413E-01 6.57876E-33
4.34737E-01 6.19904E-33
4.39065E-01 5.84218E-33
4.43398E-01 5.50648E-33
4.47736E-01 5.19079E-33
4.52077E-01 4.89375E-33
4.56422E-01 4.61446E-33
4.60770E-01 4.35155E-33
4.65122E-01 4.10426E-33
4.69476E-01 3.87143E-33
4.73832E-01 3.65225E-33
4.78190E-01 3.44601E-33
4.82550E-01 3.25183E-33
4.86912E-01 3.06897E-33
4.91274E-01 2.89671E-33
4.95637E-01 2.73458E-33
5.00000E-01 2.58182E-33
5.04363E-01 2.43788E-33
5.08726E-01 2.30224E-33
5.13088E-01 2.17453E-33
5.17450E-01 2.05406E-33
5.21810E-01 1.94057E-33
5.26168E-01 1.83358E-33
5.30524E-01 1.73267E-33
5.34878E-01 1.63748E-33
5.39230E-01 1.54782E-33
5.43578E-01 1.46319E-33
5.47923E-01 1.38337E-33
5.52264E-01 1.30808E-33
5.56602E-01 1.23702E-33
5.60935E-01 1.16999E-33
5.65263E-01 1.10679E-33
5.69587E-01 1.04702E-33
5.73905E-01 9.90691E-34
5.78217E-01 9.37447E-34
5.82524E-01 8.87202E-34
5.86824E-01 8.39746E-34
5.91118E-01 7.94950E-34
5.95404E-01 7.52606E-34
5.99684E-01 7.12618E-34
6.03956E-01 6.74844E-34
6.08220E-01 6.39190E-34
6.12476E-01 6.05422E-34
6.16723E-01 5.73514E-34
6.20961E-01 5.43391E-34
6.25190E-01 5.14925E-34
6.29410E-01 4.87959E-34
6.33619E-01 4.62487E-34
6.37819E-01 4.38376E-34
6.42008E-01 4.15598E-34
6.46186E-01 3.94018E-34
6.50353E-01 3.73655E-34
6.54508E-01 3.54348E-34
6.58652E-01 3.36091E-34
6.62784E-01 3.18809E-34
6.66903E-01 3.02466E-34
6.71010E-01 2.86977E-34
6.75104E-01 2.72317E-34
6.79184E-01 2.58413E-34
6.83251E-01 2.45289E-34
6.87303E-01 2.32815E-34
6.91342E-01 2.21045E-34
6.95366E-01 2.09863E-34
6.99375E-01 1.99281E-34
7.03368E-01 1.89237E-34
7.07347E-01 1.79727E-34
7.11309E-01 1.70710E-34
7.15256E-01 1.62167E-34
7.19186E-01 1.54071E-34
7.23099E-01 1.46396E-34
7.26995E-01 1.39116E-34
7.30874E-01 1.32215E-34
7.34736E-01 1.25664E-34
7.38579E-01 1.19455E-34
7.42405E-01 1.13561E-34
7.46212E-01 1.07963E-34
7.50000E-01 1.02663E-34
7.53769E-01 9.76306E-35
7.57519E-01 9.28421E-35
7.61249E-01 8.83082E-35
7.64960E-01 8.39880E-35
7.68650E-01 7.98916E-35
7.72320E-01 7.60076E-35
7.75968E-01 7.23323E-35
7.79596E-01 6.88181E-35
7.83203E-01 6.54842E-35
7.86788E-01 6.23154E-35
7.90351E-01 5.93227E-35
7.93893E-01 5.64433E-35
7.97411E-01 5.37467E-35
8.00908E-01 5.11607E-35
8.04381E-01 4.87120E-35
8.07831E-01 4.63783E-35
8.11257E-01 4.41652E-35
8.14660E-01 4.20517E-35
8.18039E-01 4.00515E-35
8.21394E-01 3.81351E-35
8.24724E-01 3.63218E-35
8.28030E-01 3.45889E-35
8.31310E-01 3.29480E-35
8.34565E-01 3.13811E-35
8.37795E-01 2.98964E-35
8.40999E-01 2.84751E-35
8.44177E-01 2.71268E-35
8.47329E-01 2.58479E-35
8.50455E-01 2.46138E-35
8.53553E-01 2.34530E-35
8.56625E-01 2.23386E-35
8.59670E-01 2.12797E-35
8.62687E-01 2.02758E-35
8.65677E-01 1.93234E-35
8.68639E-01 1.84125E-35
8.71572E-01 1.75361E-35
8.74478E-01 1.67074E-35
8.77355E-01 1.59119E-35
8.80203E-01 1.51639E-35
8.83022E-01 1.44435E-35
8.85812E-01 1.37590E-35
8.88573E-01 1.31053E-35
8.91304E-01 1.24729E-35
8.94005E-01 1.18907E-35
8.96677E-01 1.13218E-35
8.99318E-01 1.07756E-35
9.01928E-01 1.02655E-35
9.04508E-01 9.77250E-36
9.07058E-01 9.29905E-36
9.09576E-01 8.85639E-36
9.12063E-01 8.42963E-36
9.14519E-01 8.01476E-36
9.16943E-01 7.62682E-36
9.19335E-01 7.25584E-36
9.21696E-01 6.90418E-36
9.24024E-01 6.56370E-36
9.26320E-01 6.24052E-36
9.28584E-01 5.93355E-36
9.30815E-01 5.63807E-36
9.33013E-01 5.35361E-36
9.35178E-01 5.08763E-36
9.37310E-01 4.83329E-36
9.39409E-01 4.58515E-36
9.41474E-01 4.34970E-36
9.43505E-01 4.12612E-36
9.45503E-01 3.91582E-36
9.47467E-01 3.70532E-36
9.49397E-01 3.51018E-36
9.51293E-01 3.32604E-36
9.53154E-01 3.15105E-36
9.54981E-01 2.97995E-36
9.56773E-01 2.81833E-36
9.58530E-01 2.66369E-36
9.60252E-01 2.51620E-36
9.61940E-01 2.37607E-36
9.63592E-01 2.24121E-36
9.65209E-01 2.11070E-36
9.66790E-01 1.98928E-36
9.68336E-01 1.87068E-36
9.69846E-01 1.76056E-36
9.71321E-01 1.65277E-36
9.72759E-01 1.54928E-36
9.74162E-01 1.45481E-36
9.75528E-01 1.36011E-36
9.76858E-01 1.27365E-36
9.78152E-01 1.18743E-36
9.79410E-01 1.10992E-36
9.80631E-01 1.03461E-36
9.81815E-01 9.60446E-37
9.82963E-01 8.91193E-37
9.84074E-01 8.26083E-37
9.85148E-01 7.61373E-37
9.86185E-01 7.01117E-37
9.87185E-01 6.42839E-37
9.88148E-01 5.91521E-37
9.89074E-01 5.42686E-37
9.89962E-01 4.95801E-37
9.90814E-01 4.47561E-37
9.91627E-01 4.07152E-37
9.92404E-01 3.68099E-37
9.93143E-01 3.28718E-37
9.93844E-01 2.93364E-37
9.94508E-01 2.61289E-37
9.95134E-01 2.29784E-37
9.95722E-01 2.01950E-37
9.96273E-01 1.73631E-37
9.96786E-01 1.49030E-37
9.97261E-01 1.25938E-37
9.97698E-01 1.04772E-37
9.98097E-01 8.78215E-38
9.98459E-01 7.07479E-38
9.98782E-01 5.65801E-38
9.99067E-01 4.25305E-38
9.99315E-01 3.15370E-38
9.99524E-01 2.28636E-38
9.99695E-01 1.40470E-38
9.99829E-01 8.36626E-39
9.99924E-01 3.38175E-39
9.99981E-01 1.00000E-45
1.00000E+00 1.00000E-45
