 #
 # Subroutine ELSEPA. Elastic scattering of electrons and positrons
 #                    by neutral atoms and positive ions
 #
 # Projectile: positron
 # Kinetic energy = 9.00000E+08 eV = 3.30744E+07 a.u.
 #
 # WARNING: High-energy factorization with free-atom DF screening.
 #          Absorption, polarization and exchange corrections are
 #          switched off.
 #          Phase shifts are calculated for the bare nucleus.
 #          Scattering amplitudes are not evaluated.
 #
 # Element:  H,  Z =   1,  atomic weight = 1.00790E+00 g/mol
 #
 # Nuclear model: Fermi distribution
 #                Average radius = 1.07281E-13 cm
 #                Skin thickness = 5.46000E-14 cm
 #
 # Number of electrons =  1
 #
 # Total elastic cross section = 1.08019E-20 cm**2 = 3.85744E-04 a0**2
 # 1st transport cross section = 3.12792E-30 cm**2 = 1.11700E-13 a0**2
 # 2nd transport cross section = 9.37976E-30 cm**2 = 3.34957E-13 a0**2
 #
 #
 # Differential cross section:                       MU=(1-COS(THETA))/2
 #
 #  THETA        MU          DCS          DCS        Sherman      error
 #  (deg)                 (cm**2/sr)   (a0**2/sr)    function
 #----------------------------------------------------------------------
0.00000E+00 8.69579E-11
7.61557E-13 7.63638E-11
1.18994E-12 7.11819E-11
1.71346E-12 6.54934E-11
2.33225E-12 5.93519E-11
3.04617E-12 5.35492E-11
3.85530E-12 4.76583E-11
4.75964E-12 4.21886E-11
5.75917E-12 3.72284E-11
6.85391E-12 3.25059E-11
8.04379E-12 2.83889E-11
9.32893E-12 2.47194E-11
1.07092E-11 2.14427E-11
1.21847E-11 1.86353E-11
1.37554E-11 1.61569E-11
1.54213E-11 1.40175E-11
1.71823E-11 1.21926E-11
1.90386E-11 1.05903E-11
2.09900E-11 9.22585E-12
2.30367E-11 8.05520E-12
2.51785E-11 7.03809E-12
2.74156E-11 6.16942E-12
2.97478E-11 5.41853E-12
3.21752E-11 4.76923E-12
3.46979E-11 4.20582E-12
3.73157E-11 3.69334E-12
4.00286E-11 3.25503E-12
4.28368E-11 2.87864E-12
4.57402E-11 2.55421E-12
4.87388E-11 2.27350E-12
5.18325E-11 2.02974E-12
5.50215E-11 1.81733E-12
5.83057E-11 1.63163E-12
6.16850E-11 1.46875E-12
6.51595E-11 1.32546E-12
6.87293E-11 1.19903E-12
7.23943E-11 1.08715E-12
7.61544E-11 9.87891E-13
1.18991E-10 4.20624E-13
1.71347E-10 2.07228E-13
2.33223E-10 1.13319E-13
3.04617E-10 6.69912E-14
3.85531E-10 4.20670E-14
4.75965E-10 2.77158E-14
5.75917E-10 1.89891E-14
6.85389E-10 1.34393E-14
8.04380E-10 9.77520E-15
9.32891E-10 7.27816E-15
1.07092E-09 5.52944E-15
1.21847E-09 4.27549E-15
1.37554E-09 3.35751E-15
1.54213E-09 2.67310E-15
1.71823E-09 2.15445E-15
1.90386E-09 1.75567E-15
2.09900E-09 1.44500E-15
2.30367E-09 1.20008E-15
2.51785E-09 1.00491E-15
2.74156E-09 8.47840E-16
2.97478E-09 7.20286E-16
3.21752E-09 6.15837E-16
3.46978E-09 5.29649E-16
3.73156E-09 4.58022E-16
4.00286E-09 3.98102E-16
4.28368E-09 3.47666E-16
4.57402E-09 3.04969E-16
4.87388E-09 2.68628E-16
5.18326E-09 2.37543E-16
5.50215E-09 2.10826E-16
5.83057E-09 1.87761E-16
6.16850E-09 1.67765E-16
6.51596E-09 1.50362E-16
6.87293E-09 1.35157E-16
7.23942E-09 1.21827E-16
7.61544E-09 1.10100E-16
1.18991E-08 4.51151E-17
1.71347E-08 2.17617E-17
2.33223E-08 1.17480E-17
3.04617E-08 6.88704E-18
3.85531E-08 4.29979E-18
4.75965E-08 2.82121E-18
5.75917E-08 1.92699E-18
6.85389E-08 1.36061E-18
8.04380E-08 9.87856E-19
9.32891E-08 7.34448E-19
1.07092E-07 5.57331E-19
1.21847E-07 4.30529E-19
1.37554E-07 3.37823E-19
1.54213E-07 2.68781E-19
1.71823E-07 2.16509E-19
1.90386E-07 1.76349E-19
2.09900E-07 1.45083E-19
2.30367E-07 1.20449E-19
2.51785E-07 1.00829E-19
2.74156E-07 8.50457E-20
2.97478E-07 7.22334E-20
3.21752E-07 6.17456E-20
3.46978E-07 5.30939E-20
3.73156E-07 4.59059E-20
4.00286E-07 3.98941E-20
4.28368E-07 3.48350E-20
4.57402E-07 3.05531E-20
4.87388E-07 2.69093E-20
5.18325E-07 2.37928E-20
5.50215E-07 2.11148E-20
5.83057E-07 1.88031E-20
6.16850E-07 1.67994E-20
6.51596E-07 1.50555E-20
6.87293E-07 1.35322E-20
7.23942E-07 1.21968E-20
7.61543E-07 1.10221E-20
1.18991E-06 4.51463E-21
1.71347E-06 2.17719E-21
2.33223E-06 1.17519E-21
3.04617E-06 6.88872E-22
3.85531E-06 4.30058E-22
4.75964E-06 2.82160E-22
5.75916E-06 1.92718E-22
6.85388E-06 1.36071E-22
8.04378E-06 9.87908E-23
9.32888E-06 7.34473E-23
1.07092E-05 5.57341E-23
1.21846E-05 4.30531E-23
1.37553E-05 3.37822E-23
1.54212E-05 2.68777E-23
1.71822E-05 2.16504E-23
1.90385E-05 1.76343E-23
2.09899E-05 1.45077E-23
2.30365E-05 1.20444E-23
2.51783E-05 1.00824E-23
2.74153E-05 8.50407E-24
2.97475E-05 7.22288E-24
3.21749E-05 6.17413E-24
3.46974E-05 5.30900E-24
3.73152E-05 4.59023E-24
4.00281E-05 3.98908E-24
4.28362E-05 3.48320E-24
4.57395E-05 3.05503E-24
4.87380E-05 2.69067E-24
5.18317E-05 2.37905E-24
5.50205E-05 2.11126E-24
5.83045E-05 1.88012E-24
6.16838E-05 1.67975E-24
6.51582E-05 1.50539E-24
6.87277E-05 1.35307E-24
7.23925E-05 1.21953E-24
7.61524E-05 1.10208E-24
9.21439E-05 7.52725E-25
1.09658E-04 5.31470E-25
1.28695E-04 3.79308E-25
1.49255E-04 2.86870E-25
1.71338E-04 2.17686E-25
1.94942E-04 1.68157E-25
2.20070E-04 1.31946E-25
2.46720E-04 1.01592E-25
2.74892E-04 8.15291E-26
3.04586E-04 6.61452E-26
3.35803E-04 5.41927E-26
3.68542E-04 4.47970E-26
4.02802E-04 3.73298E-26
4.38585E-04 3.13379E-26
4.75889E-04 2.64858E-26
5.14715E-04 2.25244E-26
5.55063E-04 1.92655E-26
5.96931E-04 1.65655E-26
6.40321E-04 1.43141E-26
6.85233E-04 1.24252E-26
7.31665E-04 1.08315E-26
7.79618E-04 9.47980E-27
8.29092E-04 8.32761E-27
8.80086E-04 7.34103E-27
9.32601E-04 6.49246E-27
9.86636E-04 5.75969E-27
1.04219E-03 5.12442E-27
1.09927E-03 4.57169E-27
1.15786E-03 4.08912E-27
1.21797E-03 3.66641E-27
1.27961E-03 3.29502E-27
1.34276E-03 2.96773E-27
1.40743E-03 2.67851E-27
1.47362E-03 2.42226E-27
1.54133E-03 2.19464E-27
1.61056E-03 1.99198E-27
1.68131E-03 1.81111E-27
1.75357E-03 1.64934E-27
1.82735E-03 1.50435E-27
1.90265E-03 1.37414E-27
1.97947E-03 1.25698E-27
2.05780E-03 1.15137E-27
2.13765E-03 1.05600E-27
2.21902E-03 9.69733E-28
2.30190E-03 8.91574E-28
2.38630E-03 8.20651E-28
2.47222E-03 7.56196E-28
2.55965E-03 6.97539E-28
2.64859E-03 6.44081E-28
2.73905E-03 5.95298E-28
2.83103E-03 5.50724E-28
2.92452E-03 5.09945E-28
3.01952E-03 4.72595E-28
3.11604E-03 4.38344E-28
3.21407E-03 4.06903E-28
3.31362E-03 3.78009E-28
3.41468E-03 3.51428E-28
3.51725E-03 3.26952E-28
3.62133E-03 3.04391E-28
3.72692E-03 2.83577E-28
3.83403E-03 2.64357E-28
3.94265E-03 2.46593E-28
4.05278E-03 2.30163E-28
4.16442E-03 2.14952E-28
4.27757E-03 2.00859E-28
4.39223E-03 1.87793E-28
4.50840E-03 1.75670E-28
4.62608E-03 1.64413E-28
4.74527E-03 1.53953E-28
4.86597E-03 1.44228E-28
4.98817E-03 1.35180E-28
5.11188E-03 1.26756E-28
5.23711E-03 1.18909E-28
5.36383E-03 1.11595E-28
5.49207E-03 1.04773E-28
5.62181E-03 9.84071E-29
5.75306E-03 9.24637E-29
5.88581E-03 8.69115E-29
6.02007E-03 8.17223E-29
6.15583E-03 7.68698E-29
6.29310E-03 7.23301E-29
6.43187E-03 6.80809E-29
6.57214E-03 6.41019E-29
6.71392E-03 6.03743E-29
6.85720E-03 5.68806E-29
7.00198E-03 5.36048E-29
7.14827E-03 5.05321E-29
7.29605E-03 4.76487E-29
7.44534E-03 4.49420E-29
7.59612E-03 4.24001E-29
7.97965E-03 3.66970E-29
8.37255E-03 3.18081E-29
8.77480E-03 2.76088E-29
9.18641E-03 2.39948E-29
9.60736E-03 2.08791E-29
1.00376E-02 1.81885E-29
1.04773E-02 1.58614E-29
1.09262E-02 1.38457E-29
1.13844E-02 1.20974E-29
1.18520E-02 1.05790E-29
1.23288E-02 9.25868E-30
1.28150E-02 8.10934E-30
1.33104E-02 7.10776E-30
1.38150E-02 6.23407E-30
1.43290E-02 5.47121E-30
1.48521E-02 4.80454E-30
1.53845E-02 4.22144E-30
1.59262E-02 3.71104E-30
1.64770E-02 3.26394E-30
1.70371E-02 2.87202E-30
1.76063E-02 2.52825E-30
1.81848E-02 2.22652E-30
1.87724E-02 1.96153E-30
1.93692E-02 1.72870E-30
1.99751E-02 1.52400E-30
2.05901E-02 1.34396E-30
2.12143E-02 1.18553E-30
2.18476E-02 1.04605E-30
2.24900E-02 9.23218E-31
2.31415E-02 8.14999E-31
2.38021E-02 7.19620E-31
2.44717E-02 6.35530E-31
2.51504E-02 5.61370E-31
2.58382E-02 4.95948E-31
2.65349E-02 4.38220E-31
2.72407E-02 3.87266E-31
2.79555E-02 3.42281E-31
2.86793E-02 3.02558E-31
2.94120E-02 2.67472E-31
3.01537E-02 2.36477E-31
3.09043E-02 2.09092E-31
3.16639E-02 1.84891E-31
3.24324E-02 1.63502E-31
3.32098E-02 1.44594E-31
3.39961E-02 1.27878E-31
3.47912E-02 1.13098E-31
3.55952E-02 1.00028E-31
3.64081E-02 8.84705E-32
3.72297E-02 7.82483E-32
3.80602E-02 6.92070E-32
3.88995E-02 6.12096E-32
3.97476E-02 5.41351E-32
4.06044E-02 4.78767E-32
4.14700E-02 4.23403E-32
4.23443E-02 3.74425E-32
4.32273E-02 3.31093E-32
4.41190E-02 2.92758E-32
4.50194E-02 2.58842E-32
4.59284E-02 2.28837E-32
4.68461E-02 2.02295E-32
4.87074E-02 1.58041E-32
5.06030E-02 1.23415E-32
5.25328E-02 9.63264E-33
5.44967E-02 7.51421E-33
5.64946E-02 5.85800E-33
5.85262E-02 4.56374E-33
6.05914E-02 3.55277E-33
6.26901E-02 2.76352E-33
6.48222E-02 2.14772E-33
6.69873E-02 1.66759E-33
6.91854E-02 1.29348E-33
7.14163E-02 1.00223E-33
7.36799E-02 7.75648E-34
7.59760E-02 5.99558E-34
7.83043E-02 4.62838E-34
8.06647E-02 3.56795E-34
8.30571E-02 2.74645E-34
8.54812E-02 2.11079E-34
8.79369E-02 1.61957E-34
9.04240E-02 1.24049E-34
9.29422E-02 9.48426E-35
9.54915E-02 7.23715E-35
9.80716E-02 5.51125E-35
1.00682E-01 4.18776E-35
1.03323E-01 3.17492E-35
1.05995E-01 2.40107E-35
1.08696E-01 1.81141E-35
1.11427E-01 1.36293E-35
1.14188E-01 1.02239E-35
1.16978E-01 7.64768E-36
1.19797E-01 5.70269E-36
1.22645E-01 4.23990E-36
1.25522E-01 3.14061E-36
1.28428E-01 2.31708E-36
1.31361E-01 1.70345E-36
1.34323E-01 1.24797E-36
1.37313E-01 9.09966E-37
1.40330E-01 6.61332E-37
1.43375E-01 4.78194E-37
1.46447E-01 3.44551E-37
1.49545E-01 2.47352E-37
1.52671E-01 1.76607E-37
1.55823E-01 1.25727E-37
1.59001E-01 8.89937E-38
1.62205E-01 6.30025E-38
1.65435E-01 4.43406E-38
1.68690E-01 3.12383E-38
1.71970E-01 2.20579E-38
1.75276E-01 1.55448E-38
1.78606E-01 1.09994E-38
1.81961E-01 7.86512E-39
1.85340E-01 5.68939E-39
1.88743E-01 4.20321E-39
1.92169E-01 3.16480E-39
1.95619E-01 2.45814E-39
1.99092E-01 1.95353E-39
2.02589E-01 1.62781E-39
2.06107E-01 1.40086E-39
2.09649E-01 1.25666E-39
2.13212E-01 1.16152E-39
2.16797E-01 1.11161E-39
2.20404E-01 1.07769E-39
2.24032E-01 1.09719E-39
2.27680E-01 1.10898E-39
2.31350E-01 1.14449E-39
2.35040E-01 1.19171E-39
2.38751E-01 1.23948E-39
2.42481E-01 1.30654E-39
2.46231E-01 1.36100E-39
2.50000E-01 1.42081E-39
2.53788E-01 1.47776E-39
2.57595E-01 1.54520E-39
2.61421E-01 1.58684E-39
2.65264E-01 1.65580E-39
2.69126E-01 1.70099E-39
2.73005E-01 1.74346E-39
2.76901E-01 1.78980E-39
2.80814E-01 1.81873E-39
2.84744E-01 1.83792E-39
2.88691E-01 1.86325E-39
2.92653E-01 1.85049E-39
2.96632E-01 1.84392E-39
3.00625E-01 1.83222E-39
3.04634E-01 1.80433E-39
3.08658E-01 1.80318E-39
3.12697E-01 1.77316E-39
3.16749E-01 1.74485E-39
3.20816E-01 1.71577E-39
3.24896E-01 1.67727E-39
3.28990E-01 1.64407E-39
3.33097E-01 1.61715E-39
3.37216E-01 1.58425E-39
3.41348E-01 1.52597E-39
3.45492E-01 1.47682E-39
3.49647E-01 1.41799E-39
3.53814E-01 1.37857E-39
3.57992E-01 1.32727E-39
3.62181E-01 1.26986E-39
3.66381E-01 1.23096E-39
3.70590E-01 1.16562E-39
3.74810E-01 1.13061E-39
3.79039E-01 1.08069E-39
3.83277E-01 1.03253E-39
3.87524E-01 9.85772E-40
3.91780E-01 9.52091E-40
3.96044E-01 9.08284E-40
4.00316E-01 8.67932E-40
4.04596E-01 8.17152E-40
4.08882E-01 7.86726E-40
4.13176E-01 7.48844E-40
4.17476E-01 7.03175E-40
4.21783E-01 6.76380E-40
4.26095E-01 6.29741E-40
4.30413E-01 6.03233E-40
4.34737E-01 5.65213E-40
4.39065E-01 5.43470E-40
4.43398E-01 5.14159E-40
4.47736E-01 4.90304E-40
4.52077E-01 4.59896E-40
4.56422E-01 4.44690E-40
4.60770E-01 4.18621E-40
4.65122E-01 4.03177E-40
4.69476E-01 3.79642E-40
4.73832E-01 3.54507E-40
4.78190E-01 3.38137E-40
4.82550E-01 3.21485E-40
4.86912E-01 3.03756E-40
4.91274E-01 2.80931E-40
4.95637E-01 2.69866E-40
5.00000E-01 2.56456E-40
5.04363E-01 2.40988E-40
5.08726E-01 2.24676E-40
5.13088E-01 2.19154E-40
5.17450E-01 2.04665E-40
5.21810E-01 1.97016E-40
5.26168E-01 1.88665E-40
5.30524E-01 1.77761E-40
5.34878E-01 1.63299E-40
5.39230E-01 1.59550E-40
5.43578E-01 1.49888E-40
5.47923E-01 1.40715E-40
5.52264E-01 1.33748E-40
5.56602E-01 1.24042E-40
5.60935E-01 1.17663E-40
5.65263E-01 1.16621E-40
5.69587E-01 1.05115E-40
5.73905E-01 1.02473E-40
5.78217E-01 9.43515E-41
5.82524E-01 8.95552E-41
5.86824E-01 8.42126E-41
5.91118E-01 8.15212E-41
5.95404E-01 7.61973E-41
5.99684E-01 7.25217E-41
6.03956E-01 6.96492E-41
6.08220E-01 7.02748E-41
6.12476E-01 6.41584E-41
6.16723E-01 5.89506E-41
6.20961E-01 5.74307E-41
6.25190E-01 5.68461E-41
6.29410E-01 5.16003E-41
6.33619E-01 4.90644E-41
6.37819E-01 4.47429E-41
6.42008E-01 4.31678E-41
6.46186E-01 3.87725E-41
6.50353E-01 3.94542E-41
6.54508E-01 3.66975E-41
6.58652E-01 3.52752E-41
6.62784E-01 3.37617E-41
6.66903E-01 3.37915E-41
6.71010E-01 3.21310E-41
6.75104E-01 3.08784E-41
6.79184E-01 2.76214E-41
6.83251E-01 2.85199E-41
6.87303E-01 2.50853E-41
6.91342E-01 2.60765E-41
6.95366E-01 2.40499E-41
6.99375E-01 2.32153E-41
7.03368E-01 2.09059E-41
7.07347E-01 1.95111E-41
7.11309E-01 1.79912E-41
7.15256E-01 1.69378E-41
7.19186E-01 1.63065E-41
7.23099E-01 1.58987E-41
7.26995E-01 1.53177E-41
7.30874E-01 1.50785E-41
7.34736E-01 1.44103E-41
7.38579E-01 1.42320E-41
7.42405E-01 1.37197E-41
7.46212E-01 1.27108E-41
7.50000E-01 1.27819E-41
7.53769E-01 1.26908E-41
7.57519E-01 1.13601E-41
7.61249E-01 1.12560E-41
7.64960E-01 9.64373E-42
7.68650E-01 8.67556E-42
7.72320E-01 8.38579E-42
7.75968E-01 9.43746E-42
7.79596E-01 8.21822E-42
7.83203E-01 7.55344E-42
7.86788E-01 6.85315E-42
7.90351E-01 7.91108E-42
7.93893E-01 5.61910E-42
7.97411E-01 7.10954E-42
8.00908E-01 6.40098E-42
8.04381E-01 6.69336E-42
8.07831E-01 6.31542E-42
8.11257E-01 6.59404E-42
8.14660E-01 5.90598E-42
8.18039E-01 6.31165E-42
8.21394E-01 5.24532E-42
8.24724E-01 5.22987E-42
8.28030E-01 4.50547E-42
8.31310E-01 4.55391E-42
8.34565E-01 4.14424E-42
8.37795E-01 4.44177E-42
8.40999E-01 3.92023E-42
8.44177E-01 3.93769E-42
8.47329E-01 4.44117E-42
8.50455E-01 3.16863E-42
8.53553E-01 3.48554E-42
8.56625E-01 2.85024E-42
8.59670E-01 2.50803E-42
8.62687E-01 2.64147E-42
8.65677E-01 3.18023E-42
8.68639E-01 3.36107E-42
8.71572E-01 2.64845E-42
8.74478E-01 2.57177E-42
8.77355E-01 1.97987E-42
8.80203E-01 2.50374E-42
8.83022E-01 2.20206E-42
8.85812E-01 2.21141E-42
8.88573E-01 2.15638E-42
8.91304E-01 1.14746E-42
8.94005E-01 2.37898E-42
8.96677E-01 2.05659E-42
8.99318E-01 1.37100E-42
9.01928E-01 1.92768E-42
9.04508E-01 1.78499E-42
9.07058E-01 1.21518E-42
9.09576E-01 1.71997E-42
9.12063E-01 1.71767E-42
9.14519E-01 9.46634E-43
9.16943E-01 9.26454E-43
9.19335E-01 9.22645E-43
9.21696E-01 1.19701E-42
9.24024E-01 9.50354E-43
9.26320E-01 9.44072E-43
9.28584E-01 1.09645E-42
9.30815E-01 9.88904E-43
9.33013E-01 6.48323E-43
9.35178E-01 9.80474E-43
9.37310E-01 1.21441E-42
9.39409E-01 8.21452E-43
9.41474E-01 6.26770E-43
9.43505E-01 6.04219E-43
9.45503E-01 9.59372E-43
9.47467E-01 2.47259E-43
9.49397E-01 1.99887E-43
9.51293E-01 2.97529E-43
9.53154E-01 6.11560E-43
9.54981E-01 3.63241E-43
9.56773E-01 4.25475E-43
9.58530E-01 3.61171E-43
9.60252E-01 3.92009E-43
9.61940E-01 5.56415E-43
9.63592E-01 5.13901E-43
9.65209E-01 3.44300E-43
9.66790E-01 5.06516E-43
9.68336E-01 3.44650E-43
9.69846E-01 5.54969E-43
9.71321E-01 4.87146E-43
9.72759E-01 1.87676E-43
9.74162E-01 5.15874E-43
9.75528E-01 3.59745E-43
9.76858E-01 4.58609E-43
9.78152E-01 1.78263E-43
9.79410E-01 5.50951E-43
9.80631E-01 8.18695E-43
9.81815E-01 5.05049E-43
9.82963E-01 4.58395E-43
9.84074E-01 6.02077E-43
9.85148E-01 2.06662E-43
9.86185E-01 1.36900E-43
9.87185E-01 3.98310E-44
9.88148E-01 1.06010E-43
9.89074E-01 4.10746E-43
9.89962E-01 1.11157E-42
9.90814E-01 1.33633E-44
9.91627E-01 3.61778E-43
9.92404E-01 1.11163E-42
9.93143E-01 3.33718E-43
9.93844E-01 2.41648E-43
9.94508E-01 3.20915E-43
9.95134E-01 1.22462E-43
9.95722E-01 4.81647E-43
9.96273E-01 5.39730E-43
9.96786E-01 3.55699E-45
9.97261E-01 1.18983E-43
9.97698E-01 5.37386E-43
9.98097E-01 8.07853E-44
9.98459E-01 1.59096E-43
9.98782E-01 3.89719E-43
9.99067E-01 1.26259E-43
9.99315E-01 9.38100E-44
9.99524E-01 1.00000E-45
9.99695E-01 1.00000E-45
9.99829E-01 1.00000E-45
9.99924E-01 1.00000E-45
9.99981E-01 1.00000E-45
1.00000E+00 1.00000E-45
