 #
 # Subroutine ELSEPA. Elastic scattering of electrons and positrons
 #                    by neutral atoms and positive ions
 #
 # Projectile: positron
 # Kinetic energy = 4.00000E+07 eV = 1.46997E+06 a.u.
 #
 # WARNING: High-energy factorization with free-atom DF screening.
 #          Absorption, polarization and exchange corrections are
 #          switched off.
 #          Phase shifts are calculated for the bare nucleus.
 #          Scattering amplitudes are not evaluated.
 #
 # Element:  H,  Z =   1,  atomic weight = 1.00790E+00 g/mol
 #
 # Nuclear model: Fermi distribution
 #                Average radius = 1.07281E-13 cm
 #                Skin thickness = 5.46000E-14 cm
 #
 # Number of electrons =  1
 #
 # Total elastic cross section = 1.08440E-20 cm**2 = 3.87248E-04 a0**2
 # 1st transport cross section = 1.39052E-27 cm**2 = 4.96562E-11 a0**2
 # 2nd transport cross section = 4.06299E-27 cm**2 = 1.45092E-10 a0**2
 #
 #
 # Differential cross section:                       MU=(1-COS(THETA))/2
 #
 #  THETA        MU          DCS          DCS        Sherman      error
 #  (deg)                 (cm**2/sr)   (a0**2/sr)    function
 #----------------------------------------------------------------------
0.00000E+00 1.75985E-13
7.61557E-13 1.75938E-13
1.18994E-12 1.75911E-13
1.71346E-12 1.75879E-13
2.33225E-12 1.75840E-13
3.04617E-12 1.75796E-13
3.85530E-12 1.75745E-13
4.75964E-12 1.75689E-13
5.75917E-12 1.75627E-13
6.85391E-12 1.75559E-13
8.04379E-12 1.75485E-13
9.32893E-12 1.75405E-13
1.07092E-11 1.75320E-13
1.21847E-11 1.75228E-13
1.37554E-11 1.75131E-13
1.54213E-11 1.75028E-13
1.71823E-11 1.74919E-13
1.90386E-11 1.74804E-13
2.09900E-11 1.74684E-13
2.30367E-11 1.74558E-13
2.51785E-11 1.74426E-13
2.74156E-11 1.74288E-13
2.97478E-11 1.74145E-13
3.21752E-11 1.73996E-13
3.46979E-11 1.73841E-13
3.73157E-11 1.73681E-13
4.00286E-11 1.73515E-13
4.28368E-11 1.73344E-13
4.57402E-11 1.73167E-13
4.87388E-11 1.72984E-13
5.18325E-11 1.72796E-13
5.50215E-11 1.72602E-13
5.83057E-11 1.72404E-13
6.16850E-11 1.72199E-13
6.51595E-11 1.71989E-13
6.87293E-11 1.71774E-13
7.23943E-11 1.71553E-13
7.61544E-11 1.71327E-13
1.18991E-10 1.68782E-13
1.71347E-10 1.65743E-13
2.33223E-10 1.62248E-13
3.04617E-10 1.58341E-13
3.85531E-10 1.54069E-13
4.75965E-10 1.49483E-13
5.75917E-10 1.44632E-13
6.85389E-10 1.39569E-13
8.04380E-10 1.34343E-13
9.32891E-10 1.28997E-13
1.07092E-09 1.23246E-13
1.21847E-09 1.17731E-13
1.37554E-09 1.12493E-13
1.54213E-09 1.07138E-13
1.71823E-09 1.01633E-13
1.90386E-09 9.64880E-14
2.09900E-09 9.16928E-14
2.30367E-09 8.65270E-14
2.51785E-09 8.17043E-14
2.74156E-09 7.72493E-14
2.97478E-09 7.28791E-14
3.21752E-09 6.85278E-14
3.46978E-09 6.45299E-14
3.73156E-09 6.08563E-14
4.00286E-09 5.70865E-14
4.28368E-09 5.35984E-14
4.57402E-09 5.04010E-14
4.87388E-09 4.73424E-14
5.18326E-09 4.43657E-14
5.50215E-09 4.16393E-14
5.83057E-09 3.91398E-14
6.16850E-09 3.66641E-14
6.51596E-09 3.43754E-14
6.87293E-09 3.22763E-14
7.23942E-09 3.02954E-14
7.61544E-09 2.83959E-14
1.18991E-08 1.52499E-14
1.71347E-08 8.52312E-15
2.33223E-08 4.88172E-15
3.04617E-08 2.97663E-15
3.85531E-08 1.91007E-15
4.75965E-08 1.27838E-15
5.75917E-08 8.86208E-16
6.85389E-08 6.32874E-16
8.04380E-08 4.63585E-16
9.32891E-08 3.47110E-16
1.07092E-07 2.64913E-16
1.21847E-07 2.05604E-16
1.37554E-07 1.61961E-16
1.54213E-07 1.29283E-16
1.71823E-07 1.04430E-16
1.90386E-07 8.52609E-17
2.09900E-07 7.02881E-17
2.30367E-07 5.84574E-17
2.51785E-07 4.90109E-17
2.74156E-07 4.13952E-17
2.97478E-07 3.52012E-17
3.21752E-07 3.01222E-17
3.46978E-07 2.59262E-17
3.73156E-07 2.24352E-17
4.00286E-07 1.95121E-17
4.28368E-07 1.70494E-17
4.57402E-07 1.49630E-17
4.87388E-07 1.31860E-17
5.18325E-07 1.16649E-17
5.50215E-07 1.03568E-17
5.83057E-07 9.22691E-18
6.16850E-07 8.24690E-18
6.51596E-07 7.39353E-18
6.87293E-07 6.64769E-18
7.23942E-07 5.99351E-18
7.61543E-07 5.41782E-18
1.18991E-06 2.22357E-18
1.71347E-06 1.07348E-18
2.33223E-06 5.79817E-19
3.04617E-06 3.40021E-19
3.85531E-06 2.12335E-19
4.75964E-06 1.39341E-19
5.75916E-06 9.51862E-20
6.85388E-06 6.72154E-20
8.04378E-06 4.88043E-20
9.32888E-06 3.62868E-20
1.07092E-05 2.75372E-20
1.21846E-05 2.12728E-20
1.37553E-05 1.66926E-20
1.54212E-05 1.32814E-20
1.71822E-05 1.06986E-20
1.90385E-05 8.71428E-21
2.09899E-05 7.16939E-21
2.30365E-05 5.95216E-21
2.51783E-05 4.98264E-21
2.74153E-05 4.20272E-21
2.97475E-05 3.56959E-21
3.21749E-05 3.05133E-21
3.46974E-05 2.62379E-21
3.73152E-05 2.26858E-21
4.00281E-05 1.97150E-21
4.28362E-05 1.72149E-21
4.57395E-05 1.50989E-21
4.87380E-05 1.32982E-21
5.18317E-05 1.17581E-21
5.50205E-05 1.04347E-21
5.83045E-05 9.29230E-22
6.16838E-05 8.30207E-22
6.51582E-05 7.44029E-22
6.87277E-05 6.68748E-22
7.23925E-05 6.02752E-22
7.61524E-05 5.44700E-22
9.21439E-05 3.72038E-22
1.09658E-04 2.62683E-22
1.28695E-04 1.90684E-22
1.49255E-04 1.41789E-22
1.71338E-04 1.07594E-22
1.94942E-04 8.31140E-23
2.20070E-04 6.52166E-23
2.46720E-04 5.18716E-23
2.74892E-04 4.17823E-23
3.04586E-04 3.40308E-23
3.35803E-04 2.79960E-23
3.68542E-04 2.32418E-23
4.02802E-04 1.94549E-23
4.38585E-04 1.64089E-23
4.75889E-04 1.39363E-23
5.14715E-04 1.19123E-23
5.55063E-04 1.02428E-23
5.96931E-04 8.85561E-24
6.40321E-04 7.69558E-24
6.85233E-04 6.71935E-24
7.31665E-04 5.89313E-24
7.79618E-04 5.19007E-24
8.29092E-04 4.58875E-24
8.80086E-04 4.07207E-24
9.32601E-04 3.62607E-24
9.86636E-04 3.23949E-24
1.04219E-03 2.90307E-24
1.09927E-03 2.60919E-24
1.15786E-03 2.35158E-24
1.21797E-03 2.12498E-24
1.27961E-03 1.92502E-24
1.34276E-03 1.74803E-24
1.40743E-03 1.59092E-24
1.47362E-03 1.45106E-24
1.54133E-03 1.32623E-24
1.61056E-03 1.21455E-24
1.68131E-03 1.11436E-24
1.75357E-03 1.02430E-24
1.82735E-03 9.43150E-25
1.90265E-03 8.69876E-25
1.97947E-03 8.03580E-25
2.05780E-03 7.43477E-25
2.13765E-03 6.88890E-25
2.21902E-03 6.39218E-25
2.30190E-03 5.93942E-25
2.38630E-03 5.52603E-25
2.47222E-03 5.14796E-25
2.55965E-03 4.80167E-25
2.64859E-03 4.48400E-25
2.73905E-03 4.19215E-25
2.83103E-03 3.92366E-25
2.92452E-03 3.67630E-25
3.01952E-03 3.44813E-25
3.11604E-03 3.23738E-25
3.21407E-03 3.04247E-25
3.31362E-03 2.86201E-25
3.41468E-03 2.69472E-25
3.51725E-03 2.53947E-25
3.62133E-03 2.39523E-25
3.72692E-03 2.26108E-25
3.83403E-03 2.13619E-25
3.94265E-03 2.01979E-25
4.05278E-03 1.91121E-25
4.16442E-03 1.80983E-25
4.27757E-03 1.71507E-25
4.39223E-03 1.62643E-25
4.50840E-03 1.54344E-25
4.62608E-03 1.46567E-25
4.74527E-03 1.39273E-25
4.86597E-03 1.32427E-25
4.98817E-03 1.25996E-25
5.11188E-03 1.19951E-25
5.23711E-03 1.14263E-25
5.36383E-03 1.08908E-25
5.49207E-03 1.03863E-25
5.62181E-03 9.91062E-26
5.75306E-03 9.46186E-26
5.88581E-03 9.03817E-26
6.02007E-03 8.63791E-26
6.15583E-03 8.25954E-26
6.29310E-03 7.90164E-26
6.43187E-03 7.56290E-26
6.57214E-03 7.24209E-26
6.71392E-03 6.93809E-26
6.85720E-03 6.64985E-26
7.00198E-03 6.37641E-26
7.14827E-03 6.11687E-26
7.29605E-03 5.87038E-26
7.44534E-03 5.63616E-26
7.59612E-03 5.41349E-26
7.97965E-03 4.90302E-26
8.37255E-03 4.45124E-26
8.77480E-03 4.05025E-26
9.18641E-03 3.69334E-26
9.60736E-03 3.37483E-26
1.00376E-02 3.08987E-26
1.04773E-02 2.83432E-26
1.09262E-02 2.60459E-26
1.13844E-02 2.39763E-26
1.18520E-02 2.21079E-26
1.23288E-02 2.04176E-26
1.28150E-02 1.88854E-26
1.33104E-02 1.74940E-26
1.38150E-02 1.62281E-26
1.43290E-02 1.50744E-26
1.48521E-02 1.40212E-26
1.53845E-02 1.30581E-26
1.59262E-02 1.21761E-26
1.64770E-02 1.13672E-26
1.70371E-02 1.06241E-26
1.76063E-02 9.94055E-27
1.81848E-02 9.31095E-27
1.87724E-02 8.73026E-27
1.93692E-02 8.19400E-27
1.99751E-02 7.69815E-27
2.05901E-02 7.23911E-27
2.12143E-02 6.81366E-27
2.18476E-02 6.41890E-27
2.24900E-02 6.05221E-27
2.31415E-02 5.71124E-27
2.38021E-02 5.39384E-27
2.44717E-02 5.09810E-27
2.51504E-02 4.82227E-27
2.58382E-02 4.56476E-27
2.65349E-02 4.32414E-27
2.72407E-02 4.09909E-27
2.79555E-02 3.88842E-27
2.86793E-02 3.69105E-27
2.94120E-02 3.50598E-27
3.01537E-02 3.33231E-27
3.09043E-02 3.16920E-27
3.16639E-02 3.01590E-27
3.24324E-02 2.87171E-27
3.32098E-02 2.73598E-27
3.39961E-02 2.60813E-27
3.47912E-02 2.48762E-27
3.55952E-02 2.37394E-27
3.64081E-02 2.26665E-27
3.72297E-02 2.16531E-27
3.80602E-02 2.06954E-27
3.88995E-02 1.97896E-27
3.97476E-02 1.89326E-27
4.06044E-02 1.81211E-27
4.14700E-02 1.73523E-27
4.23443E-02 1.66236E-27
4.32273E-02 1.59325E-27
4.41190E-02 1.52766E-27
4.50194E-02 1.46538E-27
4.59284E-02 1.40623E-27
4.68461E-02 1.35000E-27
4.87074E-02 1.24567E-27
5.06030E-02 1.15114E-27
5.25328E-02 1.06534E-27
5.44967E-02 9.87310E-28
5.64946E-02 9.16234E-28
5.85262E-02 8.51380E-28
6.05914E-02 7.92109E-28
6.26901E-02 7.37854E-28
6.48222E-02 6.88118E-28
6.69873E-02 6.42458E-28
6.91854E-02 6.00480E-28
7.14163E-02 5.61836E-28
7.36799E-02 5.26213E-28
7.59760E-02 4.93335E-28
7.83043E-02 4.62952E-28
8.06647E-02 4.34842E-28
8.30571E-02 4.08804E-28
8.54812E-02 3.84659E-28
8.79369E-02 3.62244E-28
9.04240E-02 3.41415E-28
9.29422E-02 3.22038E-28
9.54915E-02 3.03995E-28
9.80716E-02 2.87178E-28
1.00682E-01 2.71488E-28
1.03323E-01 2.56836E-28
1.05995E-01 2.43143E-28
1.08696E-01 2.30333E-28
1.11427E-01 2.18341E-28
1.14188E-01 2.07103E-28
1.16978E-01 1.96566E-28
1.19797E-01 1.86676E-28
1.22645E-01 1.77389E-28
1.25522E-01 1.68659E-28
1.28428E-01 1.60448E-28
1.31361E-01 1.52719E-28
1.34323E-01 1.45440E-28
1.37313E-01 1.38580E-28
1.40330E-01 1.32109E-28
1.43375E-01 1.26002E-28
1.46447E-01 1.20236E-28
1.49545E-01 1.14787E-28
1.52671E-01 1.09635E-28
1.55823E-01 1.04762E-28
1.59001E-01 1.00148E-28
1.62205E-01 9.57794E-29
1.65435E-01 9.16391E-29
1.68690E-01 8.77136E-29
1.71970E-01 8.39899E-29
1.75276E-01 8.04556E-29
1.78606E-01 7.70995E-29
1.81961E-01 7.39111E-29
1.85340E-01 7.08804E-29
1.88743E-01 6.79985E-29
1.92169E-01 6.52565E-29
1.95619E-01 6.26467E-29
1.99092E-01 6.01613E-29
2.02589E-01 5.77937E-29
2.06107E-01 5.55372E-29
2.09649E-01 5.33856E-29
2.13212E-01 5.13333E-29
2.16797E-01 4.93748E-29
2.20404E-01 4.75052E-29
2.24032E-01 4.57198E-29
2.27680E-01 4.40140E-29
2.31350E-01 4.23837E-29
2.35040E-01 4.08250E-29
2.38751E-01 3.93343E-29
2.42481E-01 3.79080E-29
2.46231E-01 3.65428E-29
2.50000E-01 3.52358E-29
2.53788E-01 3.39840E-29
2.57595E-01 3.27847E-29
2.61421E-01 3.16352E-29
2.65264E-01 3.05334E-29
2.69126E-01 2.94766E-29
2.73005E-01 2.84629E-29
2.76901E-01 2.74902E-29
2.80814E-01 2.65566E-29
2.84744E-01 2.56601E-29
2.88691E-01 2.47991E-29
2.92653E-01 2.39719E-29
2.96632E-01 2.31771E-29
3.00625E-01 2.24130E-29
3.04634E-01 2.16783E-29
3.08658E-01 2.09718E-29
3.12697E-01 2.02921E-29
3.16749E-01 1.96381E-29
3.20816E-01 1.90086E-29
3.24896E-01 1.84025E-29
3.28990E-01 1.78189E-29
3.33097E-01 1.72568E-29
3.37216E-01 1.67153E-29
3.41348E-01 1.61933E-29
3.45492E-01 1.56903E-29
3.49647E-01 1.52052E-29
3.53814E-01 1.47376E-29
3.57992E-01 1.42864E-29
3.62181E-01 1.38512E-29
3.66381E-01 1.34313E-29
3.70590E-01 1.30259E-29
3.74810E-01 1.26346E-29
3.79039E-01 1.22568E-29
3.83277E-01 1.18919E-29
3.87524E-01 1.15394E-29
3.91780E-01 1.11988E-29
3.96044E-01 1.08698E-29
4.00316E-01 1.05517E-29
4.04596E-01 1.02442E-29
4.08882E-01 9.94691E-30
4.13176E-01 9.65940E-30
4.17476E-01 9.38129E-30
4.21783E-01 9.11229E-30
4.26095E-01 8.85196E-30
4.30413E-01 8.60006E-30
4.34737E-01 8.35621E-30
4.39065E-01 8.12018E-30
4.43398E-01 7.89162E-30
4.47736E-01 7.67029E-30
4.52077E-01 7.45590E-30
4.56422E-01 7.24825E-30
4.60770E-01 7.04702E-30
4.65122E-01 6.85206E-30
4.69476E-01 6.66308E-30
4.73832E-01 6.47989E-30
4.78190E-01 6.30232E-30
4.82550E-01 6.13013E-30
4.86912E-01 5.96315E-30
4.91274E-01 5.80118E-30
4.95637E-01 5.64409E-30
5.00000E-01 5.49168E-30
5.04363E-01 5.34379E-30
5.08726E-01 5.20026E-30
5.13088E-01 5.06098E-30
5.17450E-01 4.92575E-30
5.21810E-01 4.79449E-30
5.26168E-01 4.66703E-30
5.30524E-01 4.54325E-30
5.34878E-01 4.42301E-30
5.39230E-01 4.30626E-30
5.43578E-01 4.19282E-30
5.47923E-01 4.08261E-30
5.52264E-01 3.97552E-30
5.56602E-01 3.87144E-30
5.60935E-01 3.77029E-30
5.65263E-01 3.67200E-30
5.69587E-01 3.57639E-30
5.73905E-01 3.48348E-30
5.78217E-01 3.39310E-30
5.82524E-01 3.30523E-30
5.86824E-01 3.21976E-30
5.91118E-01 3.13664E-30
5.95404E-01 3.05576E-30
5.99684E-01 2.97709E-30
6.03956E-01 2.90054E-30
6.08220E-01 2.82607E-30
6.12476E-01 2.75356E-30
6.16723E-01 2.68299E-30
6.20961E-01 2.61432E-30
6.25190E-01 2.54747E-30
6.29410E-01 2.48237E-30
6.33619E-01 2.41900E-30
6.37819E-01 2.35728E-30
6.42008E-01 2.29718E-30
6.46186E-01 2.23864E-30
6.50353E-01 2.18165E-30
6.54508E-01 2.12611E-30
6.58652E-01 2.07201E-30
6.62784E-01 2.01930E-30
6.66903E-01 1.96795E-30
6.71010E-01 1.91791E-30
6.75104E-01 1.86914E-30
6.79184E-01 1.82160E-30
6.83251E-01 1.77529E-30
6.87303E-01 1.73012E-30
6.91342E-01 1.68611E-30
6.95366E-01 1.64320E-30
6.99375E-01 1.60136E-30
7.03368E-01 1.56056E-30
7.07347E-01 1.52078E-30
7.11309E-01 1.48198E-30
7.15256E-01 1.44415E-30
7.19186E-01 1.40725E-30
7.23099E-01 1.37127E-30
7.26995E-01 1.33616E-30
7.30874E-01 1.30192E-30
7.34736E-01 1.26851E-30
7.38579E-01 1.23592E-30
7.42405E-01 1.20412E-30
7.46212E-01 1.17309E-30
7.50000E-01 1.14281E-30
7.53769E-01 1.11327E-30
7.57519E-01 1.08442E-30
7.61249E-01 1.05628E-30
7.64960E-01 1.02881E-30
7.68650E-01 1.00200E-30
7.72320E-01 9.75826E-31
7.75968E-01 9.50290E-31
7.79596E-01 9.25346E-31
7.83203E-01 9.00997E-31
7.86788E-01 8.77224E-31
7.90351E-01 8.54028E-31
7.93893E-01 8.31353E-31
7.97411E-01 8.09243E-31
8.00908E-01 7.87637E-31
8.04381E-01 7.66546E-31
8.07831E-01 7.45946E-31
8.11257E-01 7.25833E-31
8.14660E-01 7.06185E-31
8.18039E-01 6.87005E-31
8.21394E-01 6.68261E-31
8.24724E-01 6.49963E-31
8.28030E-01 6.32085E-31
8.31310E-01 6.14630E-31
8.34565E-01 5.97577E-31
8.37795E-01 5.80926E-31
8.40999E-01 5.64656E-31
8.44177E-01 5.48767E-31
8.47329E-01 5.33252E-31
8.50455E-01 5.18083E-31
8.53553E-01 5.03278E-31
8.56625E-01 4.88809E-31
8.59670E-01 4.74678E-31
8.62687E-01 4.60880E-31
8.65677E-01 4.47405E-31
8.68639E-01 4.34240E-31
8.71572E-01 4.21373E-31
8.74478E-01 4.08812E-31
8.77355E-01 3.96536E-31
8.80203E-01 3.84557E-31
8.83022E-01 3.72850E-31
8.85812E-01 3.61418E-31
8.88573E-01 3.50252E-31
8.91304E-01 3.39338E-31
8.94005E-01 3.28701E-31
8.96677E-01 3.18299E-31
8.99318E-01 3.08139E-31
9.01928E-01 2.98229E-31
9.04508E-01 2.88547E-31
9.07058E-01 2.79091E-31
9.09576E-01 2.69869E-31
9.12063E-01 2.60862E-31
9.14519E-01 2.52062E-31
9.16943E-01 2.43482E-31
9.19335E-01 2.35107E-31
9.21696E-01 2.26938E-31
9.24024E-01 2.18961E-31
9.26320E-01 2.11180E-31
9.28584E-01 2.03592E-31
9.30815E-01 1.96187E-31
9.33013E-01 1.88963E-31
9.35178E-01 1.81925E-31
9.37310E-01 1.75062E-31
9.39409E-01 1.68366E-31
9.41474E-01 1.61842E-31
9.43505E-01 1.55485E-31
9.45503E-01 1.49295E-31
9.47467E-01 1.43254E-31
9.49397E-01 1.37377E-31
9.51293E-01 1.31658E-31
9.53154E-01 1.26091E-31
9.54981E-01 1.20669E-31
9.56773E-01 1.15396E-31
9.58530E-01 1.10267E-31
9.60252E-01 1.05279E-31
9.61940E-01 1.00432E-31
9.63592E-01 9.57204E-32
9.65209E-01 9.11417E-32
9.66790E-01 8.66998E-32
9.68336E-01 8.23851E-32
9.69846E-01 7.82031E-32
9.71321E-01 7.41440E-32
9.72759E-01 7.02096E-32
9.74162E-01 6.64036E-32
9.75528E-01 6.27126E-32
9.76858E-01 5.91470E-32
9.78152E-01 5.56938E-32
9.79410E-01 5.23636E-32
9.80631E-01 4.91458E-32
9.81815E-01 4.60386E-32
9.82963E-01 4.30450E-32
9.84074E-01 4.01631E-32
9.85148E-01 3.73868E-32
9.86185E-01 3.47202E-32
9.87185E-01 3.21596E-32
9.88148E-01 2.97101E-32
9.89074E-01 2.73649E-32
9.89962E-01 2.51215E-32
9.90814E-01 2.29765E-32
9.91627E-01 2.09399E-32
9.92404E-01 1.90023E-32
9.93143E-01 1.71614E-32
9.93844E-01 1.54219E-32
9.94508E-01 1.37821E-32
9.95134E-01 1.22377E-32
9.95722E-01 1.07920E-32
9.96273E-01 9.43884E-33
9.96786E-01 8.18463E-33
9.97261E-01 7.02406E-33
9.97698E-01 5.95893E-33
9.98097E-01 4.99026E-33
9.98459E-01 4.11315E-33
9.98782E-01 3.33036E-33
9.99067E-01 2.63874E-33
9.99315E-01 2.04106E-33
9.99524E-01 1.53709E-33
9.99695E-01 1.12198E-33
9.99829E-01 8.01398E-34
9.99924E-01 5.71022E-34
9.99981E-01 4.34333E-34
1.00000E+00 3.90804E-34
