 #
 # Subroutine ELSEPA. Elastic scattering of electrons and positrons
 #                    by neutral atoms and positive ions
 #
 # Projectile: positron
 # Kinetic energy = 4.50000E+07 eV = 1.65372E+06 a.u.
 #
 # WARNING: High-energy factorization with free-atom DF screening.
 #          Absorption, polarization and exchange corrections are
 #          switched off.
 #          Phase shifts are calculated for the bare nucleus.
 #          Scattering amplitudes are not evaluated.
 #
 # Element:  H,  Z =   1,  atomic weight = 1.00790E+00 g/mol
 #
 # Nuclear model: Fermi distribution
 #                Average radius = 1.07281E-13 cm
 #                Skin thickness = 5.46000E-14 cm
 #
 # Number of electrons =  1
 #
 # Total elastic cross section = 1.08452E-20 cm**2 = 3.87289E-04 a0**2
 # 1st transport cross section = 1.11437E-27 cm**2 = 3.97948E-11 a0**2
 # 2nd transport cross section = 3.25893E-27 cm**2 = 1.16379E-10 a0**2
 #
 #
 # Differential cross section:                       MU=(1-COS(THETA))/2
 #
 #  THETA        MU          DCS          DCS        Sherman      error
 #  (deg)                 (cm**2/sr)   (a0**2/sr)    function
 #----------------------------------------------------------------------
0.00000E+00 2.22108E-13
7.61557E-13 2.22032E-13
1.18994E-12 2.21990E-13
1.71346E-12 2.21938E-13
2.33225E-12 2.21876E-13
3.04617E-12 2.21805E-13
3.85530E-12 2.21725E-13
4.75964E-12 2.21636E-13
5.75917E-12 2.21537E-13
6.85391E-12 2.21429E-13
8.04379E-12 2.21311E-13
9.32893E-12 2.21184E-13
1.07092E-11 2.21048E-13
1.21847E-11 2.20903E-13
1.37554E-11 2.20748E-13
1.54213E-11 2.20584E-13
1.71823E-11 2.20411E-13
1.90386E-11 2.20229E-13
2.09900E-11 2.20037E-13
2.30367E-11 2.19837E-13
2.51785E-11 2.19627E-13
2.74156E-11 2.19409E-13
2.97478E-11 2.19182E-13
3.21752E-11 2.18945E-13
3.46979E-11 2.18700E-13
3.73157E-11 2.18446E-13
4.00286E-11 2.18183E-13
4.28368E-11 2.17911E-13
4.57402E-11 2.17631E-13
4.87388E-11 2.17342E-13
5.18325E-11 2.17044E-13
5.50215E-11 2.16738E-13
5.83057E-11 2.16423E-13
6.16850E-11 2.16100E-13
6.51595E-11 2.15768E-13
6.87293E-11 2.15428E-13
7.23943E-11 2.15080E-13
7.61544E-11 2.14724E-13
1.18991E-10 2.10721E-13
1.71347E-10 2.05966E-13
2.33223E-10 2.00536E-13
3.04617E-10 1.94517E-13
3.85531E-10 1.87996E-13
4.75965E-10 1.81065E-13
5.75917E-10 1.73806E-13
6.85389E-10 1.66315E-13
8.04380E-10 1.58389E-13
9.32891E-10 1.50444E-13
1.07092E-09 1.42933E-13
1.21847E-09 1.35396E-13
1.37554E-09 1.27609E-13
1.54213E-09 1.20395E-13
1.71823E-09 1.13455E-13
1.90386E-09 1.06291E-13
2.09900E-09 9.97333E-14
2.30367E-09 9.36272E-14
2.51785E-09 8.73397E-14
2.74156E-09 8.16229E-14
2.97478E-09 7.64228E-14
3.21752E-09 7.10934E-14
3.46978E-09 6.62629E-14
3.73156E-09 6.18812E-14
4.00286E-09 5.75313E-14
4.28368E-09 5.35421E-14
4.57402E-09 4.99249E-14
4.87388E-09 4.64237E-14
5.18326E-09 4.31817E-14
5.50215E-09 4.02395E-14
5.83057E-09 3.74444E-14
6.16850E-09 3.48377E-14
6.51596E-09 3.24678E-14
6.87293E-09 3.02462E-14
7.23942E-09 2.81638E-14
7.61544E-09 2.62661E-14
1.18991E-08 1.33774E-14
1.71347E-08 7.07278E-15
2.33223E-08 4.00507E-15
3.04617E-08 2.42337E-15
3.85531E-08 1.54661E-15
4.75965E-08 1.03101E-15
5.75917E-08 7.12597E-16
6.85389E-08 5.07724E-16
8.04380E-08 3.71241E-16
9.32891E-08 2.77566E-16
1.07092E-07 2.11589E-16
1.21847E-07 1.64060E-16
1.37554E-07 1.29133E-16
1.54213E-07 1.03009E-16
1.71823E-07 8.31588E-17
1.90386E-07 6.78613E-17
2.09900E-07 5.59205E-17
2.30367E-07 4.64911E-17
2.51785E-07 3.89658E-17
2.74156E-07 3.29017E-17
2.97478E-07 2.79716E-17
3.21752E-07 2.39305E-17
3.46978E-07 2.05929E-17
3.73156E-07 1.78170E-17
4.00286E-07 1.54931E-17
4.28368E-07 1.35358E-17
4.57402E-07 1.18778E-17
4.87388E-07 1.04659E-17
5.18325E-07 9.25763E-18
5.50215E-07 8.21868E-18
5.83057E-07 7.32140E-18
6.16850E-07 6.54324E-18
6.51596E-07 5.86572E-18
6.87293E-07 5.27363E-18
7.23942E-07 4.75436E-18
7.61543E-07 4.29744E-18
1.18991E-06 1.76301E-18
1.71347E-06 8.50947E-19
2.33223E-06 4.59557E-19
3.04617E-06 2.69473E-19
3.85531E-06 1.68269E-19
4.75964E-06 1.10419E-19
5.75916E-06 7.54266E-20
6.85388E-06 5.32610E-20
8.04378E-06 3.86714E-20
9.32888E-06 2.87524E-20
1.07092E-05 2.18193E-20
1.21846E-05 1.68554E-20
1.37553E-05 1.32262E-20
1.54212E-05 1.05233E-20
1.71822E-05 8.47686E-21
1.90385E-05 6.90456E-21
2.09899E-05 5.68047E-21
2.30365E-05 4.71602E-21
2.51783E-05 3.94783E-21
2.74153E-05 3.32988E-21
2.97475E-05 2.82824E-21
3.21749E-05 2.41760E-21
3.46974E-05 2.07886E-21
3.73152E-05 1.79742E-21
4.00281E-05 1.56204E-21
4.28362E-05 1.36395E-21
4.57395E-05 1.19629E-21
4.87380E-05 1.05362E-21
5.18317E-05 9.31602E-22
5.50205E-05 8.26743E-22
5.83045E-05 7.36232E-22
6.16838E-05 6.57774E-22
6.51582E-05 5.89495E-22
6.87277E-05 5.29850E-22
7.23925E-05 4.77561E-22
7.61524E-05 4.31566E-22
9.21439E-05 2.94765E-22
1.09658E-04 2.08123E-22
1.28695E-04 1.51076E-22
1.49255E-04 1.12339E-22
1.71338E-04 8.52465E-23
1.94942E-04 6.58508E-23
2.20070E-04 5.16707E-23
2.46720E-04 4.10968E-23
2.74892E-04 3.31032E-23
3.04586E-04 2.69618E-23
3.35803E-04 2.21805E-23
3.68542E-04 1.84139E-23
4.02802E-04 1.54135E-23
4.38585E-04 1.30003E-23
4.75889E-04 1.10413E-23
5.14715E-04 9.43767E-24
5.55063E-04 8.11494E-24
5.96931E-04 7.01593E-24
6.40321E-04 6.09688E-24
6.85233E-04 5.32343E-24
7.31665E-04 4.66884E-24
7.79618E-04 4.11182E-24
8.29092E-04 3.63542E-24
8.80086E-04 3.22607E-24
9.32601E-04 2.87272E-24
9.86636E-04 2.56645E-24
1.04219E-03 2.29991E-24
1.09927E-03 2.06708E-24
1.15786E-03 1.86299E-24
1.21797E-03 1.68346E-24
1.27961E-03 1.52504E-24
1.34276E-03 1.38482E-24
1.40743E-03 1.26035E-24
1.47362E-03 1.14955E-24
1.54133E-03 1.05065E-24
1.61056E-03 9.62167E-25
1.68131E-03 8.82798E-25
1.75357E-03 8.11445E-25
1.82735E-03 7.47155E-25
1.90265E-03 6.89104E-25
1.97947E-03 6.36582E-25
2.05780E-03 5.88967E-25
2.13765E-03 5.45720E-25
2.21902E-03 5.06369E-25
2.30190E-03 4.70500E-25
2.38630E-03 4.37750E-25
2.47222E-03 4.07798E-25
2.55965E-03 3.80365E-25
2.64859E-03 3.55198E-25
2.73905E-03 3.32078E-25
2.83103E-03 3.10807E-25
2.92452E-03 2.91211E-25
3.01952E-03 2.73135E-25
3.11604E-03 2.56439E-25
3.21407E-03 2.40999E-25
3.31362E-03 2.26702E-25
3.41468E-03 2.13450E-25
3.51725E-03 2.01151E-25
3.62133E-03 1.89724E-25
3.72692E-03 1.79097E-25
3.83403E-03 1.69203E-25
3.94265E-03 1.59983E-25
4.05278E-03 1.51381E-25
4.16442E-03 1.43350E-25
4.27757E-03 1.35843E-25
4.39223E-03 1.28821E-25
4.50840E-03 1.22247E-25
4.62608E-03 1.16086E-25
4.74527E-03 1.10308E-25
4.86597E-03 1.04885E-25
4.98817E-03 9.97910E-26
5.11188E-03 9.50021E-26
5.23711E-03 9.04966E-26
5.36383E-03 8.62548E-26
5.49207E-03 8.22583E-26
5.62181E-03 7.84904E-26
5.75306E-03 7.49356E-26
5.88581E-03 7.15794E-26
6.02007E-03 6.84089E-26
6.15583E-03 6.54117E-26
6.29310E-03 6.25767E-26
6.43187E-03 5.98935E-26
6.57214E-03 5.73523E-26
6.71392E-03 5.49443E-26
6.85720E-03 5.26612E-26
7.00198E-03 5.04953E-26
7.14827E-03 4.84394E-26
7.29605E-03 4.64870E-26
7.44534E-03 4.46318E-26
7.59612E-03 4.28680E-26
7.97965E-03 3.88247E-26
8.37255E-03 3.52464E-26
8.77480E-03 3.20703E-26
9.18641E-03 2.92434E-26
9.60736E-03 2.67207E-26
1.00376E-02 2.44638E-26
1.04773E-02 2.24397E-26
1.09262E-02 2.06203E-26
1.13844E-02 1.89813E-26
1.18520E-02 1.75015E-26
1.23288E-02 1.61629E-26
1.28150E-02 1.49495E-26
1.33104E-02 1.38476E-26
1.38150E-02 1.28451E-26
1.43290E-02 1.19315E-26
1.48521E-02 1.10975E-26
1.53845E-02 1.03348E-26
1.59262E-02 9.63642E-27
1.64770E-02 8.99583E-27
1.70371E-02 8.40743E-27
1.76063E-02 7.86621E-27
1.81848E-02 7.36770E-27
1.87724E-02 6.90792E-27
1.93692E-02 6.48333E-27
1.99751E-02 6.09074E-27
2.05901E-02 5.72731E-27
2.12143E-02 5.39048E-27
2.18476E-02 5.07795E-27
2.24900E-02 4.78765E-27
2.31415E-02 4.51772E-27
2.38021E-02 4.26646E-27
2.44717E-02 4.03234E-27
2.51504E-02 3.81399E-27
2.58382E-02 3.61016E-27
2.65349E-02 3.41969E-27
2.72407E-02 3.24155E-27
2.79555E-02 3.07480E-27
2.86793E-02 2.91859E-27
2.94120E-02 2.77211E-27
3.01537E-02 2.63465E-27
3.09043E-02 2.50557E-27
3.16639E-02 2.38424E-27
3.24324E-02 2.27013E-27
3.32098E-02 2.16271E-27
3.39961E-02 2.06154E-27
3.47912E-02 1.96618E-27
3.55952E-02 1.87623E-27
3.64081E-02 1.79133E-27
3.72297E-02 1.71114E-27
3.80602E-02 1.63536E-27
3.88995E-02 1.56370E-27
3.97476E-02 1.49589E-27
4.06044E-02 1.43169E-27
4.14700E-02 1.37087E-27
4.23443E-02 1.31322E-27
4.32273E-02 1.25854E-27
4.41190E-02 1.20666E-27
4.50194E-02 1.15740E-27
4.59284E-02 1.11061E-27
4.68461E-02 1.06613E-27
4.87074E-02 9.83610E-28
5.06030E-02 9.08850E-28
5.25328E-02 8.40993E-28
5.44967E-02 7.79293E-28
5.64946E-02 7.23092E-28
5.85262E-02 6.71815E-28
6.05914E-02 6.24956E-28
6.26901E-02 5.82066E-28
6.48222E-02 5.42751E-28
6.69873E-02 5.06660E-28
6.91854E-02 4.73484E-28
7.14163E-02 4.42944E-28
7.36799E-02 4.14795E-28
7.59760E-02 3.88817E-28
7.83043E-02 3.64812E-28
8.06647E-02 3.42605E-28
8.30571E-02 3.22037E-28
8.54812E-02 3.02966E-28
8.79369E-02 2.85263E-28
9.04240E-02 2.68814E-28
9.29422E-02 2.53514E-28
9.54915E-02 2.39268E-28
9.80716E-02 2.25991E-28
1.00682E-01 2.13606E-28
1.03323E-01 2.02042E-28
1.05995E-01 1.91234E-28
1.08696E-01 1.81126E-28
1.11427E-01 1.71663E-28
1.14188E-01 1.62797E-28
1.16978E-01 1.54484E-28
1.19797E-01 1.46683E-28
1.22645E-01 1.39358E-28
1.25522E-01 1.32474E-28
1.28428E-01 1.25999E-28
1.31361E-01 1.19906E-28
1.34323E-01 1.14167E-28
1.37313E-01 1.08760E-28
1.40330E-01 1.03660E-28
1.43375E-01 9.88476E-29
1.46447E-01 9.43040E-29
1.49545E-01 9.00112E-29
1.52671E-01 8.59529E-29
1.55823E-01 8.21143E-29
1.59001E-01 7.84812E-29
1.62205E-01 7.50408E-29
1.65435E-01 7.17811E-29
1.68690E-01 6.86909E-29
1.71970E-01 6.57600E-29
1.75276E-01 6.29785E-29
1.78606E-01 6.03377E-29
1.81961E-01 5.78291E-29
1.85340E-01 5.54450E-29
1.88743E-01 5.31783E-29
1.92169E-01 5.10219E-29
1.95619E-01 4.89698E-29
1.99092E-01 4.70159E-29
2.02589E-01 4.51548E-29
2.06107E-01 4.33813E-29
2.09649E-01 4.16905E-29
2.13212E-01 4.00780E-29
2.16797E-01 3.85396E-29
2.20404E-01 3.70711E-29
2.24032E-01 3.56690E-29
2.27680E-01 3.43296E-29
2.31350E-01 3.30497E-29
2.35040E-01 3.18263E-29
2.38751E-01 3.06563E-29
2.42481E-01 2.95372E-29
2.46231E-01 2.84662E-29
2.50000E-01 2.74410E-29
2.53788E-01 2.64593E-29
2.57595E-01 2.55189E-29
2.61421E-01 2.46178E-29
2.65264E-01 2.37541E-29
2.69126E-01 2.29259E-29
2.73005E-01 2.21317E-29
2.76901E-01 2.13697E-29
2.80814E-01 2.06384E-29
2.84744E-01 1.99363E-29
2.88691E-01 1.92623E-29
2.92653E-01 1.86147E-29
2.96632E-01 1.79926E-29
3.00625E-01 1.73947E-29
3.04634E-01 1.68200E-29
3.08658E-01 1.62674E-29
3.12697E-01 1.57358E-29
3.16749E-01 1.52244E-29
3.20816E-01 1.47323E-29
3.24896E-01 1.42587E-29
3.28990E-01 1.38027E-29
3.33097E-01 1.33635E-29
3.37216E-01 1.29405E-29
3.41348E-01 1.25329E-29
3.45492E-01 1.21402E-29
3.49647E-01 1.17616E-29
3.53814E-01 1.13966E-29
3.57992E-01 1.10446E-29
3.62181E-01 1.07051E-29
3.66381E-01 1.03776E-29
3.70590E-01 1.00615E-29
3.74810E-01 9.75648E-30
3.79039E-01 9.46200E-30
3.83277E-01 9.17767E-30
3.87524E-01 8.90308E-30
3.91780E-01 8.63786E-30
3.96044E-01 8.38162E-30
4.00316E-01 8.13401E-30
4.04596E-01 7.89468E-30
4.08882E-01 7.66336E-30
4.13176E-01 7.43971E-30
4.17476E-01 7.22341E-30
4.21783E-01 7.01424E-30
4.26095E-01 6.81187E-30
4.30413E-01 6.61610E-30
4.34737E-01 6.42663E-30
4.39065E-01 6.24328E-30
4.43398E-01 6.06578E-30
4.47736E-01 5.89393E-30
4.52077E-01 5.72752E-30
4.56422E-01 5.56637E-30
4.60770E-01 5.41026E-30
4.65122E-01 5.25904E-30
4.69476E-01 5.11249E-30
4.73832E-01 4.97048E-30
4.78190E-01 4.83285E-30
4.82550E-01 4.69944E-30
4.86912E-01 4.57009E-30
4.91274E-01 4.44465E-30
4.95637E-01 4.32303E-30
5.00000E-01 4.20506E-30
5.04363E-01 4.09061E-30
5.08726E-01 3.97958E-30
5.13088E-01 3.87186E-30
5.17450E-01 3.76730E-30
5.21810E-01 3.66584E-30
5.26168E-01 3.56734E-30
5.30524E-01 3.47171E-30
5.34878E-01 3.37885E-30
5.39230E-01 3.28870E-30
5.43578E-01 3.20114E-30
5.47923E-01 3.11608E-30
5.52264E-01 3.03346E-30
5.56602E-01 2.95319E-30
5.60935E-01 2.87520E-30
5.65263E-01 2.79943E-30
5.69587E-01 2.72576E-30
5.73905E-01 2.65417E-30
5.78217E-01 2.58457E-30
5.82524E-01 2.51691E-30
5.86824E-01 2.45112E-30
5.91118E-01 2.38716E-30
5.95404E-01 2.32494E-30
5.99684E-01 2.26444E-30
6.03956E-01 2.20558E-30
6.08220E-01 2.14834E-30
6.12476E-01 2.09263E-30
6.16723E-01 2.03842E-30
6.20961E-01 1.98569E-30
6.25190E-01 1.93437E-30
6.29410E-01 1.88440E-30
6.33619E-01 1.83578E-30
6.37819E-01 1.78844E-30
6.42008E-01 1.74236E-30
6.46186E-01 1.69749E-30
6.50353E-01 1.65381E-30
6.54508E-01 1.61126E-30
6.58652E-01 1.56983E-30
6.62784E-01 1.52948E-30
6.66903E-01 1.49017E-30
6.71010E-01 1.45188E-30
6.75104E-01 1.41458E-30
6.79184E-01 1.37823E-30
6.83251E-01 1.34282E-30
6.87303E-01 1.30831E-30
6.91342E-01 1.27469E-30
6.95366E-01 1.24191E-30
6.99375E-01 1.20997E-30
7.03368E-01 1.17883E-30
7.07347E-01 1.14847E-30
7.11309E-01 1.11888E-30
7.15256E-01 1.09003E-30
7.19186E-01 1.06191E-30
7.23099E-01 1.03448E-30
7.26995E-01 1.00774E-30
7.30874E-01 9.81659E-31
7.34736E-01 9.56223E-31
7.38579E-01 9.31417E-31
7.42405E-01 9.07220E-31
7.46212E-01 8.83616E-31
7.50000E-01 8.60595E-31
7.53769E-01 8.38137E-31
7.57519E-01 8.16220E-31
7.61249E-01 7.94843E-31
7.64960E-01 7.73977E-31
7.68650E-01 7.53620E-31
7.72320E-01 7.33759E-31
7.75968E-01 7.14385E-31
7.79596E-01 6.95465E-31
7.83203E-01 6.77002E-31
7.86788E-01 6.58983E-31
7.90351E-01 6.41406E-31
7.93893E-01 6.24229E-31
7.97411E-01 6.07486E-31
8.00908E-01 5.91129E-31
8.04381E-01 5.75167E-31
8.07831E-01 5.59582E-31
8.11257E-01 5.44370E-31
8.14660E-01 5.29514E-31
8.18039E-01 5.15016E-31
8.21394E-01 5.00853E-31
8.24724E-01 4.87031E-31
8.28030E-01 4.73530E-31
8.31310E-01 4.60353E-31
8.34565E-01 4.47483E-31
8.37795E-01 4.34921E-31
8.40999E-01 4.22650E-31
8.44177E-01 4.10670E-31
8.47329E-01 3.98975E-31
8.50455E-01 3.87544E-31
8.53553E-01 3.76392E-31
8.56625E-01 3.65495E-31
8.59670E-01 3.54857E-31
8.62687E-01 3.44472E-31
8.65677E-01 3.34334E-31
8.68639E-01 3.24431E-31
8.71572E-01 3.14756E-31
8.74478E-01 3.05313E-31
8.77355E-01 2.96088E-31
8.80203E-01 2.87088E-31
8.83022E-01 2.78295E-31
8.85812E-01 2.69711E-31
8.88573E-01 2.61329E-31
8.91304E-01 2.53139E-31
8.94005E-01 2.45159E-31
8.96677E-01 2.37358E-31
8.99318E-01 2.29739E-31
9.01928E-01 2.22312E-31
9.04508E-01 2.15056E-31
9.07058E-01 2.07972E-31
9.09576E-01 2.01065E-31
9.12063E-01 1.94321E-31
9.14519E-01 1.87733E-31
9.16943E-01 1.81312E-31
9.19335E-01 1.75046E-31
9.21696E-01 1.68936E-31
9.24024E-01 1.62971E-31
9.26320E-01 1.57154E-31
9.28584E-01 1.51483E-31
9.30815E-01 1.45950E-31
9.33013E-01 1.40553E-31
9.35178E-01 1.35297E-31
9.37310E-01 1.30173E-31
9.39409E-01 1.25174E-31
9.41474E-01 1.20305E-31
9.43505E-01 1.15562E-31
9.45503E-01 1.10945E-31
9.47467E-01 1.06439E-31
9.49397E-01 1.02058E-31
9.51293E-01 9.77945E-32
9.53154E-01 9.36458E-32
9.54981E-01 8.96057E-32
9.56773E-01 8.56773E-32
9.58530E-01 8.18570E-32
9.60252E-01 7.81430E-32
9.61940E-01 7.45344E-32
9.63592E-01 7.10272E-32
9.65209E-01 6.76197E-32
9.66790E-01 6.43147E-32
9.68336E-01 6.11048E-32
9.69846E-01 5.79944E-32
9.71321E-01 5.49758E-32
9.72759E-01 5.20505E-32
9.74162E-01 4.92213E-32
9.75528E-01 4.64779E-32
9.76858E-01 4.38282E-32
9.78152E-01 4.12623E-32
9.79410E-01 3.87884E-32
9.80631E-01 3.63983E-32
9.81815E-01 3.40906E-32
9.82963E-01 3.18676E-32
9.84074E-01 2.97280E-32
9.85148E-01 2.76669E-32
9.86185E-01 2.56875E-32
9.87185E-01 2.37871E-32
9.88148E-01 2.19694E-32
9.89074E-01 2.02294E-32
9.89962E-01 1.85651E-32
9.90814E-01 1.69737E-32
9.91627E-01 1.54632E-32
9.92404E-01 1.40262E-32
9.93143E-01 1.26609E-32
9.93844E-01 1.13710E-32
9.94508E-01 1.01552E-32
9.95134E-01 9.01011E-33
9.95722E-01 7.93840E-33
9.96273E-01 6.93531E-33
9.96786E-01 6.00561E-33
9.97261E-01 5.14540E-33
9.97698E-01 4.35592E-33
9.98097E-01 3.63812E-33
9.98459E-01 2.98810E-33
9.98782E-01 2.40806E-33
9.99067E-01 1.89551E-33
9.99315E-01 1.45267E-33
9.99524E-01 1.07926E-33
9.99695E-01 7.71673E-34
9.99829E-01 5.34146E-34
9.99924E-01 3.63435E-34
9.99981E-01 2.62133E-34
1.00000E+00 2.29755E-34
