 #
 # Subroutine ELSEPA. Elastic scattering of electrons and positrons
 #                    by neutral atoms and positive ions
 #
 # Projectile: positron
 # Kinetic energy = 9.00000E+06 eV = 3.30744E+05 a.u.
 #
 # WARNING: High-energy factorization with free-atom DF screening.
 #          Absorption, polarization and exchange corrections are
 #          switched off.
 #          Phase shifts are calculated for the bare nucleus.
 #          Scattering amplitudes are not evaluated.
 #
 # Element:  H,  Z =   1,  atomic weight = 1.00790E+00 g/mol
 #
 # Nuclear model: Fermi distribution
 #                Average radius = 1.07281E-13 cm
 #                Skin thickness = 5.46000E-14 cm
 #
 # Number of electrons =  1
 #
 # Total elastic cross section = 1.08806E-20 cm**2 = 3.88553E-04 a0**2
 # 1st transport cross section = 2.13423E-26 cm**2 = 7.62147E-10 a0**2
 # 2nd transport cross section = 6.18745E-26 cm**2 = 2.20958E-09 a0**2
 #
 #
 # Differential cross section:                       MU=(1-COS(THETA))/2
 #
 #  THETA        MU          DCS          DCS        Sherman      error
 #  (deg)                 (cm**2/sr)   (a0**2/sr)    function
 #----------------------------------------------------------------------
0.00000E+00 9.70026E-15
7.61557E-13 9.70011E-15
1.18994E-12 9.70003E-15
1.71346E-12 9.69993E-15
2.33225E-12 9.69981E-15
3.04617E-12 9.69968E-15
3.85530E-12 9.69953E-15
4.75964E-12 9.69935E-15
5.75917E-12 9.69917E-15
6.85391E-12 9.69896E-15
8.04379E-12 9.69873E-15
9.32893E-12 9.69849E-15
1.07092E-11 9.69823E-15
1.21847E-11 9.69795E-15
1.37554E-11 9.69765E-15
1.54213E-11 9.69734E-15
1.71823E-11 9.69701E-15
1.90386E-11 9.69666E-15
2.09900E-11 9.69629E-15
2.30367E-11 9.69590E-15
2.51785E-11 9.69550E-15
2.74156E-11 9.69508E-15
2.97478E-11 9.69463E-15
3.21752E-11 9.69418E-15
3.46979E-11 9.69370E-15
3.73157E-11 9.69321E-15
4.00286E-11 9.69269E-15
4.28368E-11 9.69216E-15
4.57402E-11 9.69162E-15
4.87388E-11 9.69105E-15
5.18325E-11 9.69047E-15
5.50215E-11 9.68987E-15
5.83057E-11 9.68925E-15
6.16850E-11 9.68861E-15
6.51595E-11 9.68796E-15
6.87293E-11 9.68728E-15
7.23943E-11 9.68659E-15
7.61544E-11 9.68588E-15
1.18991E-10 9.67781E-15
1.71347E-10 9.66797E-15
2.33223E-10 9.65634E-15
3.04617E-10 9.64296E-15
3.85531E-10 9.62783E-15
4.75965E-10 9.61094E-15
5.75917E-10 9.59233E-15
6.85389E-10 9.57203E-15
8.04380E-10 9.54999E-15
9.32891E-10 9.52629E-15
1.07092E-09 9.50095E-15
1.21847E-09 9.47391E-15
1.37554E-09 9.44527E-15
1.54213E-09 9.41507E-15
1.71823E-09 9.38321E-15
1.90386E-09 9.34982E-15
2.09900E-09 9.31495E-15
2.30367E-09 9.27848E-15
2.51785E-09 9.24057E-15
2.74156E-09 9.20127E-15
2.97478E-09 9.16042E-15
3.21752E-09 9.11822E-15
3.46978E-09 9.07474E-15
3.73156E-09 9.02978E-15
4.00286E-09 8.98357E-15
4.28368E-09 8.93618E-15
4.57402E-09 8.88738E-15
4.87388E-09 8.83743E-15
5.18326E-09 8.78643E-15
5.50215E-09 8.73409E-15
5.83057E-09 8.68071E-15
6.16850E-09 8.62639E-15
6.51596E-09 8.57082E-15
6.87293E-09 8.51432E-15
7.23942E-09 8.45700E-15
7.61544E-09 8.39852E-15
1.18991E-08 7.77132E-15
1.71347E-08 7.08963E-15
2.33223E-08 6.36846E-15
3.04617E-08 5.67401E-15
3.85531E-08 5.02672E-15
4.75965E-08 4.39167E-15
5.75917E-08 3.82589E-15
6.85389E-08 3.32710E-15
8.04380E-08 2.86795E-15
9.32891E-08 2.47329E-15
1.07092E-07 2.13456E-15
1.21847E-07 1.83417E-15
1.37554E-07 1.57955E-15
1.54213E-07 1.36328E-15
1.71823E-07 1.17512E-15
1.90386E-07 1.01599E-15
2.09900E-07 8.80952E-16
2.30367E-07 7.64340E-16
2.51785E-07 6.65322E-16
2.74156E-07 5.80939E-16
2.97478E-07 5.08094E-16
3.21752E-07 4.43984E-16
3.46978E-07 3.87798E-16
3.73156E-07 3.40049E-16
4.00286E-07 2.99302E-16
4.28368E-07 2.64382E-16
4.57402E-07 2.34333E-16
4.87388E-07 2.08374E-16
5.18325E-07 1.85863E-16
5.50215E-07 1.66274E-16
5.83057E-07 1.49168E-16
6.16850E-07 1.34182E-16
6.51596E-07 1.21011E-16
6.87293E-07 1.09401E-16
7.23942E-07 9.91366E-17
7.61543E-07 9.00374E-17
1.18991E-06 3.81923E-17
1.71347E-06 1.87765E-17
2.33223E-06 1.02544E-17
3.04617E-06 6.05697E-18
3.85531E-06 3.80123E-18
4.75964E-06 2.50338E-18
5.75916E-06 1.71461E-18
6.85388E-06 1.21320E-18
8.04378E-06 8.82270E-19
9.32888E-06 6.56798E-19
1.07092E-05 4.98928E-19
1.21846E-05 3.85743E-19
1.37553E-05 3.02896E-19
1.54212E-05 2.41135E-19
1.71822E-05 1.94337E-19
1.90385E-05 1.58357E-19
2.09899E-05 1.30329E-19
2.30365E-05 1.08235E-19
2.51783E-05 9.06296E-20
2.74153E-05 7.64616E-20
2.97475E-05 6.49565E-20
3.21749E-05 5.55357E-20
3.46974E-05 4.77623E-20
3.73152E-05 4.13023E-20
4.00281E-05 3.58983E-20
4.28362E-05 3.13497E-20
4.57395E-05 2.74992E-20
4.87380E-05 2.42220E-20
5.18317E-05 2.14188E-20
5.50205E-05 1.90095E-20
5.83045E-05 1.69296E-20
6.16838E-05 1.51265E-20
6.51582E-05 1.35572E-20
6.87277E-05 1.21862E-20
7.23925E-05 1.09842E-20
7.61524E-05 9.92678E-21
9.21439E-05 6.78125E-21
1.09658E-04 4.78862E-21
1.28695E-04 3.47655E-21
1.49255E-04 2.58522E-21
1.71338E-04 1.96188E-21
1.94942E-04 1.51558E-21
2.20070E-04 1.18927E-21
2.46720E-04 9.46008E-22
2.74892E-04 7.62033E-22
3.04586E-04 6.20681E-22
3.35803E-04 5.10628E-22
3.68542E-04 4.23927E-22
4.02802E-04 3.54863E-22
4.38585E-04 2.99311E-22
4.75889E-04 2.54214E-22
5.14715E-04 2.17298E-22
5.55063E-04 1.86847E-22
5.96931E-04 1.61546E-22
6.40321E-04 1.40388E-22
6.85233E-04 1.22581E-22
7.31665E-04 1.07510E-22
7.79618E-04 9.46857E-23
8.29092E-04 8.37171E-23
8.80086E-04 7.42920E-23
9.32601E-04 6.61562E-23
9.86636E-04 5.91043E-23
1.04219E-03 5.29673E-23
1.09927E-03 4.76063E-23
1.15786E-03 4.29068E-23
1.21797E-03 3.87729E-23
1.27961E-03 3.51251E-23
1.34276E-03 3.18962E-23
1.40743E-03 2.90299E-23
1.47362E-03 2.64784E-23
1.54133E-03 2.42011E-23
1.61056E-03 2.21634E-23
1.68131E-03 2.03357E-23
1.75357E-03 1.86925E-23
1.82735E-03 1.72119E-23
1.90265E-03 1.58751E-23
1.97947E-03 1.46655E-23
2.05780E-03 1.35689E-23
2.13765E-03 1.25729E-23
2.21902E-03 1.16666E-23
2.30190E-03 1.08405E-23
2.38630E-03 1.00862E-23
2.47222E-03 9.39635E-24
2.55965E-03 8.76449E-24
2.64859E-03 8.18483E-24
2.73905E-03 7.65230E-24
2.83103E-03 7.16236E-24
2.92452E-03 6.71100E-24
3.01952E-03 6.29463E-24
3.11604E-03 5.91004E-24
3.21407E-03 5.55437E-24
3.31362E-03 5.22505E-24
3.41468E-03 4.91976E-24
3.51725E-03 4.63644E-24
3.62133E-03 4.37322E-24
3.72692E-03 4.12840E-24
3.83403E-03 3.90047E-24
3.94265E-03 3.68805E-24
4.05278E-03 3.48989E-24
4.16442E-03 3.30485E-24
4.27757E-03 3.13191E-24
4.39223E-03 2.97013E-24
4.50840E-03 2.81866E-24
4.62608E-03 2.67671E-24
4.74527E-03 2.54358E-24
4.86597E-03 2.41863E-24
4.98817E-03 2.30124E-24
5.11188E-03 2.19090E-24
5.23711E-03 2.08708E-24
5.36383E-03 1.98933E-24
5.49207E-03 1.89724E-24
5.62181E-03 1.81041E-24
5.75306E-03 1.72849E-24
5.88581E-03 1.65115E-24
6.02007E-03 1.57808E-24
6.15583E-03 1.50901E-24
6.29310E-03 1.44367E-24
6.43187E-03 1.38183E-24
6.57214E-03 1.32326E-24
6.71392E-03 1.26776E-24
6.85720E-03 1.21513E-24
7.00198E-03 1.16521E-24
7.14827E-03 1.11782E-24
7.29605E-03 1.07282E-24
7.44534E-03 1.03005E-24
7.59612E-03 9.89397E-25
7.97965E-03 8.96188E-25
8.37255E-03 8.13692E-25
8.77480E-03 7.40465E-25
9.18641E-03 6.75286E-25
9.60736E-03 6.17116E-25
1.00376E-02 5.65070E-25
1.04773E-02 5.18392E-25
1.09262E-02 4.76430E-25
1.13844E-02 4.38624E-25
1.18520E-02 4.04490E-25
1.23288E-02 3.73609E-25
1.28150E-02 3.45616E-25
1.33104E-02 3.20192E-25
1.38150E-02 2.97060E-25
1.43290E-02 2.75977E-25
1.48521E-02 2.56729E-25
1.53845E-02 2.39127E-25
1.59262E-02 2.23006E-25
1.64770E-02 2.08219E-25
1.70371E-02 1.94635E-25
1.76063E-02 1.82138E-25
1.81848E-02 1.70627E-25
1.87724E-02 1.60010E-25
1.93692E-02 1.50204E-25
1.99751E-02 1.41136E-25
2.05901E-02 1.32740E-25
2.12143E-02 1.24959E-25
2.18476E-02 1.17738E-25
2.24900E-02 1.11030E-25
2.31415E-02 1.04792E-25
2.38021E-02 9.89847E-26
2.44717E-02 9.35733E-26
2.51504E-02 8.85256E-26
2.58382E-02 8.38129E-26
2.65349E-02 7.94088E-26
2.72407E-02 7.52893E-26
2.79555E-02 7.14328E-26
2.86793E-02 6.78194E-26
2.94120E-02 6.44309E-26
3.01537E-02 6.12507E-26
3.09043E-02 5.82637E-26
3.16639E-02 5.54559E-26
3.24324E-02 5.28147E-26
3.32098E-02 5.03284E-26
3.39961E-02 4.79861E-26
3.47912E-02 4.57780E-26
3.55952E-02 4.36950E-26
3.64081E-02 4.17287E-26
3.72297E-02 3.98713E-26
3.80602E-02 3.81157E-26
3.88995E-02 3.64553E-26
3.97476E-02 3.48840E-26
4.06044E-02 3.33960E-26
4.14700E-02 3.19862E-26
4.23443E-02 3.06497E-26
4.32273E-02 2.93819E-26
4.41190E-02 2.81787E-26
4.50194E-02 2.70362E-26
4.59284E-02 2.59507E-26
4.68461E-02 2.49188E-26
4.87074E-02 2.30038E-26
5.06030E-02 2.12683E-26
5.25328E-02 1.96926E-26
5.44967E-02 1.82593E-26
5.64946E-02 1.69534E-26
5.85262E-02 1.57615E-26
6.05914E-02 1.46718E-26
6.26901E-02 1.36741E-26
6.48222E-02 1.27593E-26
6.69873E-02 1.19191E-26
6.91854E-02 1.11465E-26
7.14163E-02 1.04350E-26
7.36799E-02 9.77900E-27
7.59760E-02 9.17331E-27
7.83043E-02 8.61341E-27
8.06647E-02 8.09522E-27
8.30571E-02 7.61508E-27
8.54812E-02 7.16969E-27
8.79369E-02 6.75609E-27
9.04240E-02 6.37160E-27
9.29422E-02 6.01381E-27
9.54915E-02 5.68052E-27
9.80716E-02 5.36976E-27
1.00682E-01 5.07973E-27
1.03323E-01 4.80880E-27
1.05995E-01 4.55548E-27
1.08696E-01 4.31842E-27
1.11427E-01 4.09640E-27
1.14188E-01 3.88828E-27
1.16978E-01 3.69304E-27
1.19797E-01 3.50973E-27
1.22645E-01 3.33751E-27
1.25522E-01 3.17557E-27
1.28428E-01 3.02318E-27
1.31361E-01 2.87969E-27
1.34323E-01 2.74449E-27
1.37313E-01 2.61700E-27
1.40330E-01 2.49671E-27
1.43375E-01 2.38313E-27
1.46447E-01 2.27583E-27
1.49545E-01 2.17439E-27
1.52671E-01 2.07844E-27
1.55823E-01 1.98763E-27
1.59001E-01 1.90163E-27
1.62205E-01 1.82014E-27
1.65435E-01 1.74288E-27
1.68690E-01 1.66959E-27
1.71970E-01 1.60004E-27
1.75276E-01 1.53399E-27
1.78606E-01 1.47123E-27
1.81961E-01 1.41159E-27
1.85340E-01 1.35486E-27
1.88743E-01 1.30089E-27
1.92169E-01 1.24951E-27
1.95619E-01 1.20059E-27
1.99092E-01 1.15397E-27
2.02589E-01 1.10953E-27
2.06107E-01 1.06716E-27
2.09649E-01 1.02673E-27
2.13212E-01 9.88152E-28
2.16797E-01 9.51313E-28
2.20404E-01 9.16125E-28
2.24032E-01 8.82502E-28
2.27680E-01 8.50359E-28
2.31350E-01 8.19621E-28
2.35040E-01 7.90216E-28
2.38751E-01 7.62074E-28
2.42481E-01 7.35134E-28
2.46231E-01 7.09332E-28
2.50000E-01 6.84613E-28
2.53788E-01 6.60923E-28
2.57595E-01 6.38213E-28
2.61421E-01 6.16433E-28
2.65264E-01 5.95541E-28
2.69126E-01 5.75491E-28
2.73005E-01 5.56245E-28
2.76901E-01 5.37766E-28
2.80814E-01 5.20016E-28
2.84744E-01 5.02961E-28
2.88691E-01 4.86571E-28
2.92653E-01 4.70813E-28
2.96632E-01 4.55660E-28
3.00625E-01 4.41084E-28
3.04634E-01 4.27059E-28
3.08658E-01 4.13562E-28
3.12697E-01 4.00568E-28
3.16749E-01 3.88055E-28
3.20816E-01 3.76003E-28
3.24896E-01 3.64391E-28
3.28990E-01 3.53201E-28
3.33097E-01 3.42415E-28
3.37216E-01 3.32016E-28
3.41348E-01 3.21986E-28
3.45492E-01 3.12311E-28
3.49647E-01 3.02976E-28
3.53814E-01 2.93967E-28
3.57992E-01 2.85271E-28
3.62181E-01 2.76874E-28
3.66381E-01 2.68766E-28
3.70590E-01 2.60933E-28
3.74810E-01 2.53366E-28
3.79039E-01 2.46054E-28
3.83277E-01 2.38985E-28
3.87524E-01 2.32152E-28
3.91780E-01 2.25545E-28
3.96044E-01 2.19155E-28
4.00316E-01 2.12973E-28
4.04596E-01 2.06992E-28
4.08882E-01 2.01204E-28
4.13176E-01 1.95602E-28
4.17476E-01 1.90179E-28
4.21783E-01 1.84928E-28
4.26095E-01 1.79843E-28
4.30413E-01 1.74917E-28
4.34737E-01 1.70145E-28
4.39065E-01 1.65522E-28
4.43398E-01 1.61041E-28
4.47736E-01 1.56698E-28
4.52077E-01 1.52487E-28
4.56422E-01 1.48405E-28
4.60770E-01 1.44445E-28
4.65122E-01 1.40605E-28
4.69476E-01 1.36880E-28
4.73832E-01 1.33265E-28
4.78190E-01 1.29758E-28
4.82550E-01 1.26354E-28
4.86912E-01 1.23050E-28
4.91274E-01 1.19841E-28
4.95637E-01 1.16727E-28
5.00000E-01 1.13702E-28
5.04363E-01 1.10764E-28
5.08726E-01 1.07910E-28
5.13088E-01 1.05138E-28
5.17450E-01 1.02444E-28
5.21810E-01 9.98258E-29
5.26168E-01 9.72813E-29
5.30524E-01 9.48077E-29
5.34878E-01 9.24025E-29
5.39230E-01 9.00646E-29
5.43578E-01 8.77908E-29
5.47923E-01 8.55793E-29
5.52264E-01 8.34283E-29
5.56602E-01 8.13356E-29
5.60935E-01 7.92997E-29
5.65263E-01 7.73191E-29
5.69587E-01 7.53908E-29
5.73905E-01 7.35147E-29
5.78217E-01 7.16880E-29
5.82524E-01 6.99100E-29
5.86824E-01 6.81788E-29
5.91118E-01 6.64932E-29
5.95404E-01 6.48515E-29
5.99684E-01 6.32527E-29
6.03956E-01 6.16955E-29
6.08220E-01 6.01787E-29
6.12476E-01 5.87005E-29
6.16723E-01 5.72602E-29
6.20961E-01 5.58570E-29
6.25190E-01 5.44897E-29
6.29410E-01 5.31565E-29
6.33619E-01 5.18573E-29
6.37819E-01 5.05905E-29
6.42008E-01 4.93558E-29
6.46186E-01 4.81516E-29
6.50353E-01 4.69779E-29
6.54508E-01 4.58328E-29
6.58652E-01 4.47162E-29
6.62784E-01 4.36271E-29
6.66903E-01 4.25649E-29
6.71010E-01 4.15284E-29
6.75104E-01 4.05172E-29
6.79184E-01 3.95304E-29
6.83251E-01 3.85679E-29
6.87303E-01 3.76281E-29
6.91342E-01 3.67115E-29
6.95366E-01 3.58164E-29
6.99375E-01 3.49429E-29
7.03368E-01 3.40901E-29
7.07347E-01 3.32576E-29
7.11309E-01 3.24447E-29
7.15256E-01 3.16511E-29
7.19186E-01 3.08763E-29
7.23099E-01 3.01196E-29
7.26995E-01 2.93806E-29
7.30874E-01 2.86589E-29
7.34736E-01 2.79539E-29
7.38579E-01 2.72654E-29
7.42405E-01 2.65928E-29
7.46212E-01 2.59356E-29
7.50000E-01 2.52938E-29
7.53769E-01 2.46666E-29
7.57519E-01 2.40538E-29
7.61249E-01 2.34550E-29
7.64960E-01 2.28697E-29
7.68650E-01 2.22979E-29
7.72320E-01 2.17391E-29
7.75968E-01 2.11932E-29
7.79596E-01 2.06593E-29
7.83203E-01 2.01375E-29
7.86788E-01 1.96275E-29
7.90351E-01 1.91292E-29
7.93893E-01 1.86416E-29
7.97411E-01 1.81655E-29
8.00908E-01 1.76998E-29
8.04381E-01 1.72446E-29
8.07831E-01 1.67994E-29
8.11257E-01 1.63643E-29
8.14660E-01 1.59388E-29
8.18039E-01 1.55228E-29
8.21394E-01 1.51159E-29
8.24724E-01 1.47182E-29
8.28030E-01 1.43292E-29
8.31310E-01 1.39489E-29
8.34565E-01 1.35769E-29
8.37795E-01 1.32133E-29
8.40999E-01 1.28576E-29
8.44177E-01 1.25098E-29
8.47329E-01 1.21698E-29
8.50455E-01 1.18370E-29
8.53553E-01 1.15118E-29
8.56625E-01 1.11937E-29
8.59670E-01 1.08826E-29
8.62687E-01 1.05785E-29
8.65677E-01 1.02812E-29
8.68639E-01 9.99035E-30
8.71572E-01 9.70580E-30
8.74478E-01 9.42770E-30
8.77355E-01 9.15565E-30
8.80203E-01 8.88983E-30
8.83022E-01 8.62979E-30
8.85812E-01 8.37557E-30
8.88573E-01 8.12699E-30
8.91304E-01 7.88380E-30
8.94005E-01 7.64648E-30
8.96677E-01 7.41416E-30
8.99318E-01 7.18702E-30
9.01928E-01 6.96523E-30
9.04508E-01 6.74829E-30
9.07058E-01 6.53625E-30
9.09576E-01 6.32918E-30
9.12063E-01 6.12677E-30
9.14519E-01 5.92880E-30
9.16943E-01 5.73559E-30
9.19335E-01 5.54681E-30
9.21696E-01 5.36245E-30
9.24024E-01 5.18229E-30
9.26320E-01 5.00638E-30
9.28584E-01 4.83464E-30
9.30815E-01 4.66690E-30
9.33013E-01 4.50312E-30
9.35178E-01 4.34339E-30
9.37310E-01 4.18748E-30
9.39409E-01 4.03525E-30
9.41474E-01 3.88677E-30
9.43505E-01 3.74198E-30
9.45503E-01 3.60084E-30
9.47467E-01 3.46302E-30
9.49397E-01 3.32883E-30
9.51293E-01 3.19813E-30
9.53154E-01 3.07075E-30
9.54981E-01 2.94663E-30
9.56773E-01 2.82580E-30
9.58530E-01 2.70819E-30
9.60252E-01 2.59372E-30
9.61940E-01 2.48241E-30
9.63592E-01 2.37410E-30
9.65209E-01 2.26881E-30
9.66790E-01 2.16656E-30
9.68336E-01 2.06718E-30
9.69846E-01 1.97077E-30
9.71321E-01 1.87712E-30
9.72759E-01 1.78634E-30
9.74162E-01 1.69842E-30
9.75528E-01 1.61311E-30
9.76858E-01 1.53067E-30
9.78152E-01 1.45075E-30
9.79410E-01 1.37364E-30
9.80631E-01 1.29907E-30
9.81815E-01 1.22707E-30
9.82963E-01 1.15763E-30
9.84074E-01 1.09075E-30
9.85148E-01 1.02630E-30
9.86185E-01 9.64336E-31
9.87185E-01 9.04858E-31
9.88148E-01 8.47895E-31
9.89074E-01 7.93341E-31
9.89962E-01 7.41073E-31
9.90814E-01 6.91187E-31
9.91627E-01 6.43732E-31
9.92404E-01 5.98560E-31
9.93143E-01 5.55676E-31
9.93844E-01 5.15120E-31
9.94508E-01 4.76880E-31
9.95134E-01 4.40852E-31
9.95722E-01 4.07091E-31
9.96273E-01 3.75485E-31
9.96786E-01 3.46236E-31
9.97261E-01 3.19110E-31
9.97698E-01 2.94270E-31
9.98097E-01 2.71598E-31
9.98459E-01 2.51120E-31
9.98782E-01 2.32800E-31
9.99067E-01 2.16659E-31
9.99315E-01 2.02666E-31
9.99524E-01 1.90901E-31
9.99695E-01 1.81169E-31
9.99829E-01 1.73682E-31
9.99924E-01 1.68294E-31
9.99981E-01 1.65132E-31
1.00000E+00 1.64250E-31
