 #
 # Subroutine ELSEPA. Elastic scattering of electrons and positrons
 #                    by neutral atoms and positive ions
 #
 # Projectile: positron
 # Kinetic energy = 6.00000E+07 eV = 2.20496E+06 a.u.
 #
 # WARNING: High-energy factorization with free-atom DF screening.
 #          Absorption, polarization and exchange corrections are
 #          switched off.
 #          Phase shifts are calculated for the bare nucleus.
 #          Scattering amplitudes are not evaluated.
 #
 # Element:  H,  Z =   1,  atomic weight = 1.00790E+00 g/mol
 #
 # Nuclear model: Fermi distribution
 #                Average radius = 1.07281E-13 cm
 #                Skin thickness = 5.46000E-14 cm
 #
 # Number of electrons =  1
 #
 # Total elastic cross section = 1.08528E-20 cm**2 = 3.87562E-04 a0**2
 # 1st transport cross section = 6.46829E-28 cm**2 = 2.30987E-11 a0**2
 # 2nd transport cross section = 1.89642E-27 cm**2 = 6.77224E-11 a0**2
 #
 #
 # Differential cross section:                       MU=(1-COS(THETA))/2
 #
 #  THETA        MU          DCS          DCS        Sherman      error
 #  (deg)                 (cm**2/sr)   (a0**2/sr)    function
 #----------------------------------------------------------------------
0.00000E+00 3.92645E-13
7.61557E-13 3.92408E-13
1.18994E-12 3.92275E-13
1.71346E-12 3.92113E-13
2.33225E-12 3.91922E-13
3.04617E-12 3.91701E-13
3.85530E-12 3.91451E-13
4.75964E-12 3.91171E-13
5.75917E-12 3.90863E-13
6.85391E-12 3.90526E-13
8.04379E-12 3.90159E-13
9.32893E-12 3.89765E-13
1.07092E-11 3.89341E-13
1.21847E-11 3.88889E-13
1.37554E-11 3.88409E-13
1.54213E-11 3.87900E-13
1.71823E-11 3.87364E-13
1.90386E-11 3.86799E-13
2.09900E-11 3.86207E-13
2.30367E-11 3.85586E-13
2.51785E-11 3.84940E-13
2.74156E-11 3.84265E-13
2.97478E-11 3.83564E-13
3.21752E-11 3.82837E-13
3.46979E-11 3.82081E-13
3.73157E-11 3.81302E-13
4.00286E-11 3.80494E-13
4.28368E-11 3.79661E-13
4.57402E-11 3.78803E-13
4.87388E-11 3.77919E-13
5.18325E-11 3.77013E-13
5.50215E-11 3.76077E-13
5.83057E-11 3.75121E-13
6.16850E-11 3.74137E-13
6.51595E-11 3.73132E-13
6.87293E-11 3.72103E-13
7.23943E-11 3.71048E-13
7.61544E-11 3.69976E-13
1.18991E-10 3.58015E-13
1.71347E-10 3.44116E-13
2.33223E-10 3.28644E-13
3.04617E-10 3.11973E-13
3.85531E-10 2.94461E-13
4.75965E-10 2.75765E-13
5.75917E-10 2.57553E-13
6.85389E-10 2.39991E-13
8.04380E-10 2.21850E-13
9.32891E-10 2.05482E-13
1.07092E-09 1.88577E-13
1.21847E-09 1.73310E-13
1.37554E-09 1.58680E-13
1.54213E-09 1.44939E-13
1.71823E-09 1.32533E-13
1.90386E-09 1.20519E-13
2.09900E-09 1.09971E-13
2.30367E-09 9.98628E-14
2.51785E-09 9.08590E-14
2.74156E-09 8.26059E-14
2.97478E-09 7.50391E-14
3.21752E-09 6.83154E-14
3.46978E-09 6.20281E-14
3.73156E-09 5.64897E-14
4.00286E-09 5.13687E-14
4.28368E-09 4.67915E-14
4.57402E-09 4.26533E-14
4.87388E-09 3.88871E-14
5.18326E-09 3.55308E-14
5.50215E-09 3.24389E-14
5.83057E-09 2.96854E-14
6.16850E-09 2.71693E-14
6.51596E-09 2.49025E-14
6.87293E-09 2.28521E-14
7.23942E-09 2.09844E-14
7.61544E-09 1.93002E-14
1.18991E-08 8.57682E-15
1.71347E-08 4.32950E-15
2.33223E-08 2.40344E-15
3.04617E-08 1.43505E-15
3.85531E-08 9.07368E-16
4.75965E-08 6.00799E-16
5.75917E-08 4.13154E-16
6.85389E-08 2.93231E-16
8.04380E-08 2.13756E-16
9.32891E-08 1.59432E-16
1.07092E-07 1.21298E-16
1.21847E-07 9.38992E-17
1.37554E-07 7.38097E-17
1.54213E-07 5.88115E-17
1.71823E-07 4.74332E-17
1.90386E-07 3.86761E-17
2.09900E-07 3.18482E-17
2.30367E-07 2.64618E-17
2.51785E-07 2.21667E-17
2.74156E-07 1.87083E-17
2.97478E-07 1.58984E-17
3.21752E-07 1.35966E-17
3.46978E-07 1.16964E-17
3.73156E-07 1.01168E-17
4.00286E-07 8.79491E-18
4.28368E-07 7.68197E-18
4.57402E-07 6.73958E-18
4.87388E-07 5.93732E-18
5.18325E-07 5.25091E-18
5.50215E-07 4.66087E-18
5.83057E-07 4.15140E-18
6.16850E-07 3.70966E-18
6.51596E-07 3.32512E-18
6.87293E-07 2.98914E-18
7.23942E-07 2.69452E-18
7.61543E-07 2.43532E-18
1.18991E-06 9.98399E-19
1.71347E-06 4.81713E-19
2.33223E-06 2.60092E-19
3.04617E-06 1.52490E-19
3.85531E-06 9.52105E-20
4.75964E-06 6.24732E-20
5.75916E-06 4.26728E-20
6.85388E-06 3.01313E-20
8.04378E-06 2.18769E-20
9.32888E-06 1.62652E-20
1.07092E-05 1.23429E-20
1.21846E-05 9.53473E-21
1.37553E-05 7.48167E-21
1.54212E-05 5.95263E-21
1.71822E-05 4.79500E-21
1.90385E-05 3.90558E-21
2.09899E-05 3.21315E-21
2.30365E-05 2.66759E-21
2.51783E-05 2.23306E-21
2.74153E-05 1.88351E-21
2.97475E-05 1.59976E-21
3.21749E-05 1.36748E-21
3.46974E-05 1.17587E-21
3.73152E-05 1.01668E-21
4.00281E-05 8.83534E-22
4.28362E-05 7.71490E-22
4.57395E-05 6.76657E-22
4.87380E-05 5.95957E-22
5.18317E-05 5.26937E-22
5.50205E-05 4.67626E-22
5.83045E-05 4.16430E-22
6.16838E-05 3.72052E-22
6.51582E-05 3.33431E-22
6.87277E-05 2.99694E-22
7.23925E-05 2.70118E-22
7.61524E-05 2.44102E-22
9.21439E-05 1.66724E-22
1.09658E-04 1.17718E-22
1.28695E-04 8.54484E-23
1.49255E-04 6.35406E-23
1.71338E-04 4.82166E-23
1.94942E-04 3.72461E-23
2.20070E-04 2.92256E-23
2.46720E-04 2.32434E-23
2.74892E-04 1.87222E-23
3.04586E-04 1.52487E-23
3.35803E-04 1.25445E-23
3.68542E-04 1.04141E-23
4.02802E-04 8.71717E-24
4.38585E-04 7.35228E-24
4.75889E-04 6.24429E-24
5.14715E-04 5.33734E-24
5.55063E-04 4.58925E-24
5.96931E-04 3.96768E-24
6.40321E-04 3.44789E-24
6.85233E-04 3.01046E-24
7.31665E-04 2.64025E-24
7.79618E-04 2.32523E-24
8.29092E-04 2.05580E-24
8.80086E-04 1.82429E-24
9.32601E-04 1.62445E-24
9.86636E-04 1.45124E-24
1.04219E-03 1.30051E-24
1.09927E-03 1.16884E-24
1.15786E-03 1.05341E-24
1.21797E-03 9.51884E-25
1.27961E-03 8.62297E-25
1.34276E-03 7.82999E-25
1.40743E-03 7.12608E-25
1.47362E-03 6.49950E-25
1.54133E-03 5.94025E-25
1.61056E-03 5.43987E-25
1.68131E-03 4.99104E-25
1.75357E-03 4.58755E-25
1.82735E-03 4.22400E-25
1.90265E-03 3.89574E-25
1.97947E-03 3.59875E-25
2.05780E-03 3.32950E-25
2.13765E-03 3.08496E-25
2.21902E-03 2.86244E-25
2.30190E-03 2.65962E-25
2.38630E-03 2.47444E-25
2.47222E-03 2.30509E-25
2.55965E-03 2.14997E-25
2.64859E-03 2.00767E-25
2.73905E-03 1.87695E-25
2.83103E-03 1.75668E-25
2.92452E-03 1.64589E-25
3.01952E-03 1.54369E-25
3.11604E-03 1.44929E-25
3.21407E-03 1.36199E-25
3.31362E-03 1.28116E-25
3.41468E-03 1.20624E-25
3.51725E-03 1.13670E-25
3.62133E-03 1.07210E-25
3.72692E-03 1.01203E-25
3.83403E-03 9.56091E-26
3.94265E-03 9.03965E-26
4.05278E-03 8.55339E-26
4.16442E-03 8.09935E-26
4.27757E-03 7.67502E-26
4.39223E-03 7.27807E-26
4.50840E-03 6.90643E-26
4.62608E-03 6.55818E-26
4.74527E-03 6.23158E-26
4.86597E-03 5.92503E-26
4.98817E-03 5.63707E-26
5.11188E-03 5.36638E-26
5.23711E-03 5.11171E-26
5.36383E-03 4.87196E-26
5.49207E-03 4.64607E-26
5.62181E-03 4.43311E-26
5.75306E-03 4.23219E-26
5.88581E-03 4.04250E-26
6.02007E-03 3.86331E-26
6.15583E-03 3.69392E-26
6.29310E-03 3.53370E-26
6.43187E-03 3.38206E-26
6.57214E-03 3.23844E-26
6.71392E-03 3.10236E-26
6.85720E-03 2.97334E-26
7.00198E-03 2.85094E-26
7.14827E-03 2.73477E-26
7.29605E-03 2.62444E-26
7.44534E-03 2.51961E-26
7.59612E-03 2.41994E-26
7.97965E-03 2.19148E-26
8.37255E-03 1.98930E-26
8.77480E-03 1.80985E-26
9.18641E-03 1.65015E-26
9.60736E-03 1.50764E-26
1.00376E-02 1.38014E-26
1.04773E-02 1.26581E-26
1.09262E-02 1.16305E-26
1.13844E-02 1.07047E-26
1.18520E-02 9.86902E-27
1.23288E-02 9.11305E-27
1.28150E-02 8.42787E-27
1.33104E-02 7.80568E-27
1.38150E-02 7.23966E-27
1.43290E-02 6.72385E-27
1.48521E-02 6.25300E-27
1.53845E-02 5.82250E-27
1.59262E-02 5.42826E-27
1.64770E-02 5.06670E-27
1.70371E-02 4.73462E-27
1.76063E-02 4.42919E-27
1.81848E-02 4.14788E-27
1.87724E-02 3.88845E-27
1.93692E-02 3.64889E-27
1.99751E-02 3.42741E-27
2.05901E-02 3.22239E-27
2.12143E-02 3.03239E-27
2.18476E-02 2.85612E-27
2.24900E-02 2.69239E-27
2.31415E-02 2.54017E-27
2.38021E-02 2.39849E-27
2.44717E-02 2.26649E-27
2.51504E-02 2.14339E-27
2.58382E-02 2.02848E-27
2.65349E-02 1.92111E-27
2.72407E-02 1.82071E-27
2.79555E-02 1.72674E-27
2.86793E-02 1.63871E-27
2.94120E-02 1.55617E-27
3.01537E-02 1.47873E-27
3.09043E-02 1.40601E-27
3.16639E-02 1.33766E-27
3.24324E-02 1.27339E-27
3.32098E-02 1.21290E-27
3.39961E-02 1.15593E-27
3.47912E-02 1.10223E-27
3.55952E-02 1.05159E-27
3.64081E-02 1.00379E-27
3.72297E-02 9.58660E-28
3.80602E-02 9.16011E-28
3.88995E-02 8.75683E-28
3.97476E-02 8.37528E-28
4.06044E-02 8.01407E-28
4.14700E-02 7.67193E-28
4.23443E-02 7.34765E-28
4.32273E-02 7.04014E-28
4.41190E-02 6.74838E-28
4.50194E-02 6.47139E-28
4.59284E-02 6.20831E-28
4.68461E-02 5.95831E-28
4.87074E-02 5.49451E-28
5.06030E-02 5.07443E-28
5.25328E-02 4.69326E-28
5.44967E-02 4.34675E-28
5.64946E-02 4.03122E-28
5.85262E-02 3.74341E-28
6.05914E-02 3.48047E-28
6.26901E-02 3.23988E-28
6.48222E-02 3.01940E-28
6.69873E-02 2.81707E-28
6.91854E-02 2.63113E-28
7.14163E-02 2.46003E-28
7.36799E-02 2.30236E-28
7.59760E-02 2.15691E-28
7.83043E-02 2.02255E-28
8.06647E-02 1.89829E-28
8.30571E-02 1.78324E-28
8.54812E-02 1.67660E-28
8.79369E-02 1.57765E-28
9.04240E-02 1.48574E-28
9.29422E-02 1.40028E-28
9.54915E-02 1.32073E-28
9.80716E-02 1.24663E-28
1.00682E-01 1.17753E-28
1.03323E-01 1.11303E-28
1.05995E-01 1.05278E-28
1.08696E-01 9.96447E-29
1.11427E-01 9.43733E-29
1.14188E-01 8.94366E-29
1.16978E-01 8.48096E-29
1.19797E-01 8.04696E-29
1.22645E-01 7.63958E-29
1.25522E-01 7.25689E-29
1.28428E-01 6.89714E-29
1.31361E-01 6.55872E-29
1.34323E-01 6.24016E-29
1.37313E-01 5.94008E-29
1.40330E-01 5.65723E-29
1.43375E-01 5.39045E-29
1.46447E-01 5.13868E-29
1.49545E-01 4.90092E-29
1.52671E-01 4.67627E-29
1.55823E-01 4.46387E-29
1.59001E-01 4.26294E-29
1.62205E-01 4.07278E-29
1.65435E-01 3.89268E-29
1.68690E-01 3.72205E-29
1.71970E-01 3.56029E-29
1.75276E-01 3.40686E-29
1.78606E-01 3.26126E-29
1.81961E-01 3.12303E-29
1.85340E-01 2.99174E-29
1.88743E-01 2.86697E-29
1.92169E-01 2.74834E-29
1.95619E-01 2.63552E-29
1.99092E-01 2.52815E-29
2.02589E-01 2.42594E-29
2.06107E-01 2.32860E-29
2.09649E-01 2.23586E-29
2.13212E-01 2.14746E-29
2.16797E-01 2.06316E-29
2.20404E-01 1.98275E-29
2.24032E-01 1.90603E-29
2.27680E-01 1.83278E-29
2.31350E-01 1.76283E-29
2.35040E-01 1.69600E-29
2.38751E-01 1.63214E-29
2.42481E-01 1.57109E-29
2.46231E-01 1.51270E-29
2.50000E-01 1.45685E-29
2.53788E-01 1.40340E-29
2.57595E-01 1.35224E-29
2.61421E-01 1.30324E-29
2.65264E-01 1.25631E-29
2.69126E-01 1.21134E-29
2.73005E-01 1.16825E-29
2.76901E-01 1.12693E-29
2.80814E-01 1.08730E-29
2.84744E-01 1.04929E-29
2.88691E-01 1.01281E-29
2.92653E-01 9.77801E-30
2.96632E-01 9.44188E-30
3.00625E-01 9.11907E-30
3.04634E-01 8.80897E-30
3.08658E-01 8.51104E-30
3.12697E-01 8.22468E-30
3.16749E-01 7.94939E-30
3.20816E-01 7.68469E-30
3.24896E-01 7.43008E-30
3.28990E-01 7.18516E-30
3.33097E-01 6.94948E-30
3.37216E-01 6.72264E-30
3.41348E-01 6.50424E-30
3.45492E-01 6.29395E-30
3.49647E-01 6.09140E-30
3.53814E-01 5.89629E-30
3.57992E-01 5.70829E-30
3.62181E-01 5.52709E-30
3.66381E-01 5.35244E-30
3.70590E-01 5.18402E-30
3.74810E-01 5.02163E-30
3.79039E-01 4.86498E-30
3.83277E-01 4.71386E-30
3.87524E-01 4.56804E-30
3.91780E-01 4.42732E-30
3.96044E-01 4.29147E-30
4.00316E-01 4.16032E-30
4.04596E-01 4.03365E-30
4.08882E-01 3.91134E-30
4.13176E-01 3.79318E-30
4.17476E-01 3.67901E-30
4.21783E-01 3.56870E-30
4.26095E-01 3.46207E-30
4.30413E-01 3.35901E-30
4.34737E-01 3.25936E-30
4.39065E-01 3.16301E-30
4.43398E-01 3.06983E-30
4.47736E-01 2.97969E-30
4.52077E-01 2.89248E-30
4.56422E-01 2.80811E-30
4.60770E-01 2.72645E-30
4.65122E-01 2.64743E-30
4.69476E-01 2.57092E-30
4.73832E-01 2.49685E-30
4.78190E-01 2.42513E-30
4.82550E-01 2.35567E-30
4.86912E-01 2.28840E-30
4.91274E-01 2.22322E-30
4.95637E-01 2.16009E-30
5.00000E-01 2.09891E-30
5.04363E-01 2.03962E-30
5.08726E-01 1.98215E-30
5.13088E-01 1.92645E-30
5.17450E-01 1.87244E-30
5.21810E-01 1.82008E-30
5.26168E-01 1.76930E-30
5.30524E-01 1.72005E-30
5.34878E-01 1.67227E-30
5.39230E-01 1.62594E-30
5.43578E-01 1.58098E-30
5.47923E-01 1.53735E-30
5.52264E-01 1.49502E-30
5.56602E-01 1.45393E-30
5.60935E-01 1.41404E-30
5.65263E-01 1.37534E-30
5.69587E-01 1.33774E-30
5.73905E-01 1.30125E-30
5.78217E-01 1.26581E-30
5.82524E-01 1.23139E-30
5.86824E-01 1.19796E-30
5.91118E-01 1.16549E-30
5.95404E-01 1.13394E-30
5.99684E-01 1.10329E-30
6.03956E-01 1.07350E-30
6.08220E-01 1.04457E-30
6.12476E-01 1.01644E-30
6.16723E-01 9.89097E-31
6.20961E-01 9.62526E-31
6.25190E-01 9.36697E-31
6.29410E-01 9.11577E-31
6.33619E-01 8.87156E-31
6.37819E-01 8.63406E-31
6.42008E-01 8.40315E-31
6.46186E-01 8.17851E-31
6.50353E-01 7.96011E-31
6.54508E-01 7.74758E-31
6.58652E-01 7.54086E-31
6.62784E-01 7.33974E-31
6.66903E-01 7.14408E-31
6.71010E-01 6.95366E-31
6.75104E-01 6.76836E-31
6.79184E-01 6.58798E-31
6.83251E-01 6.41250E-31
6.87303E-01 6.24161E-31
6.91342E-01 6.07536E-31
6.95366E-01 5.91344E-31
6.99375E-01 5.75583E-31
7.03368E-01 5.60234E-31
7.07347E-01 5.45290E-31
7.11309E-01 5.30737E-31
7.15256E-01 5.16566E-31
7.19186E-01 5.02765E-31
7.23099E-01 4.89324E-31
7.26995E-01 4.76231E-31
7.30874E-01 4.63478E-31
7.34736E-01 4.51054E-31
7.38579E-01 4.38950E-31
7.42405E-01 4.27158E-31
7.46212E-01 4.15667E-31
7.50000E-01 4.04473E-31
7.53769E-01 3.93564E-31
7.57519E-01 3.82931E-31
7.61249E-01 3.72571E-31
7.64960E-01 3.62470E-31
7.68650E-01 3.52627E-31
7.72320E-01 3.43034E-31
7.75968E-01 3.33688E-31
7.79596E-01 3.24570E-31
7.83203E-01 3.15683E-31
7.86788E-01 3.07019E-31
7.90351E-01 2.98577E-31
7.93893E-01 2.90337E-31
7.97411E-01 2.82314E-31
8.00908E-01 2.74484E-31
8.04381E-01 2.66853E-31
8.07831E-01 2.59409E-31
8.11257E-01 2.52153E-31
8.14660E-01 2.45073E-31
8.18039E-01 2.38173E-31
8.21394E-01 2.31438E-31
8.24724E-01 2.24874E-31
8.28030E-01 2.18468E-31
8.31310E-01 2.12224E-31
8.34565E-01 2.06132E-31
8.37795E-01 2.00192E-31
8.40999E-01 1.94395E-31
8.44177E-01 1.88743E-31
8.47329E-01 1.83231E-31
8.50455E-01 1.77849E-31
8.53553E-01 1.72605E-31
8.56625E-01 1.67485E-31
8.59670E-01 1.62493E-31
8.62687E-01 1.57625E-31
8.65677E-01 1.52877E-31
8.68639E-01 1.48245E-31
8.71572E-01 1.43723E-31
8.74478E-01 1.39315E-31
8.77355E-01 1.35013E-31
8.80203E-01 1.30821E-31
8.83022E-01 1.26729E-31
8.85812E-01 1.22739E-31
8.88573E-01 1.18846E-31
8.91304E-01 1.15046E-31
8.94005E-01 1.11348E-31
8.96677E-01 1.07736E-31
8.99318E-01 1.04212E-31
9.01928E-01 1.00780E-31
9.04508E-01 9.74306E-32
9.07058E-01 9.41634E-32
9.09576E-01 9.09814E-32
9.12063E-01 8.78772E-32
9.14519E-01 8.48476E-32
9.16943E-01 8.18978E-32
9.19335E-01 7.90220E-32
9.21696E-01 7.62200E-32
9.24024E-01 7.34872E-32
9.26320E-01 7.08248E-32
9.28584E-01 6.82313E-32
9.30815E-01 6.57034E-32
9.33013E-01 6.32397E-32
9.35178E-01 6.08426E-32
9.37310E-01 5.85077E-32
9.39409E-01 5.62317E-32
9.41474E-01 5.40165E-32
9.43505E-01 5.18606E-32
9.45503E-01 4.97638E-32
9.47467E-01 4.77189E-32
9.49397E-01 4.57322E-32
9.51293E-01 4.38008E-32
9.53154E-01 4.19228E-32
9.54981E-01 4.00951E-32
9.56773E-01 3.83194E-32
9.58530E-01 3.65939E-32
9.60252E-01 3.49176E-32
9.61940E-01 3.32900E-32
9.63592E-01 3.17094E-32
9.65209E-01 3.01746E-32
9.66790E-01 2.86871E-32
9.68336E-01 2.72433E-32
9.69846E-01 2.58454E-32
9.71321E-01 2.44894E-32
9.72759E-01 2.31761E-32
9.74162E-01 2.19070E-32
9.75528E-01 2.06769E-32
9.76858E-01 1.94897E-32
9.78152E-01 1.83405E-32
9.79410E-01 1.72333E-32
9.80631E-01 1.61643E-32
9.81815E-01 1.51324E-32
9.82963E-01 1.41390E-32
9.84074E-01 1.31834E-32
9.85148E-01 1.22632E-32
9.86185E-01 1.13799E-32
9.87185E-01 1.05321E-32
9.88148E-01 9.72192E-33
9.89074E-01 8.94661E-33
9.89962E-01 8.20535E-33
9.90814E-01 7.49657E-33
9.91627E-01 6.82435E-33
9.92404E-01 6.18507E-33
9.93143E-01 5.57770E-33
9.93844E-01 5.00414E-33
9.94508E-01 4.46378E-33
9.95134E-01 3.95488E-33
9.95722E-01 3.47885E-33
9.96273E-01 3.03326E-33
9.96786E-01 2.62042E-33
9.97261E-01 2.23854E-33
9.97698E-01 1.88808E-33
9.98097E-01 1.56970E-33
9.98459E-01 1.28127E-33
9.98782E-01 1.02404E-33
9.99067E-01 7.96625E-34
9.99315E-01 6.00267E-34
9.99524E-01 4.34721E-34
9.99695E-01 2.98300E-34
9.99829E-01 1.93002E-34
9.99924E-01 1.17279E-34
9.99981E-01 7.23564E-35
1.00000E+00 5.79071E-35
