 #
 # Subroutine ELSEPA. Elastic scattering of electrons and positrons
 #                    by neutral atoms and positive ions
 #
 # Projectile: positron
 # Kinetic energy = 7.00000E+07 eV = 2.57245E+06 a.u.
 #
 # WARNING: High-energy factorization with free-atom DF screening.
 #          Absorption, polarization and exchange corrections are
 #          switched off.
 #          Phase shifts are calculated for the bare nucleus.
 #          Scattering amplitudes are not evaluated.
 #
 # Element:  H,  Z =   1,  atomic weight = 1.00790E+00 g/mol
 #
 # Nuclear model: Fermi distribution
 #                Average radius = 1.07281E-13 cm
 #                Skin thickness = 5.46000E-14 cm
 #
 # Number of electrons =  1
 #
 # Total elastic cross section = 1.08532E-20 cm**2 = 3.87576E-04 a0**2
 # 1st transport cross section = 4.82209E-28 cm**2 = 1.72200E-11 a0**2
 # 2nd transport cross section = 1.41608E-27 cm**2 = 5.05693E-11 a0**2
 #
 #
 # Differential cross section:                       MU=(1-COS(THETA))/2
 #
 #  THETA        MU          DCS          DCS        Sherman      error
 #  (deg)                 (cm**2/sr)   (a0**2/sr)    function
 #----------------------------------------------------------------------
0.00000E+00 5.33144E-13
7.61557E-13 5.32708E-13
1.18994E-12 5.32464E-13
1.71346E-12 5.32165E-13
2.33225E-12 5.31812E-13
3.04617E-12 5.31405E-13
3.85530E-12 5.30944E-13
4.75964E-12 5.30431E-13
5.75917E-12 5.29863E-13
6.85391E-12 5.29243E-13
8.04379E-12 5.28570E-13
9.32893E-12 5.27845E-13
1.07092E-11 5.27066E-13
1.21847E-11 5.26237E-13
1.37554E-11 5.25355E-13
1.54213E-11 5.24424E-13
1.71823E-11 5.23440E-13
1.90386E-11 5.22407E-13
2.09900E-11 5.21322E-13
2.30367E-11 5.20191E-13
2.51785E-11 5.19007E-13
2.74156E-11 5.17778E-13
2.97478E-11 5.16498E-13
3.21752E-11 5.15174E-13
3.46979E-11 5.13799E-13
3.73157E-11 5.12381E-13
4.00286E-11 5.10914E-13
4.28368E-11 5.09405E-13
4.57402E-11 5.07848E-13
4.87388E-11 5.06250E-13
5.18325E-11 5.04605E-13
5.50215E-11 5.02922E-13
5.83057E-11 5.01192E-13
6.16850E-11 4.99424E-13
6.51595E-11 4.97612E-13
6.87293E-11 4.95764E-13
7.23943E-11 4.93872E-13
7.61544E-11 4.91946E-13
1.18991E-10 4.70698E-13
1.71347E-10 4.46425E-13
2.33223E-10 4.19931E-13
3.04617E-10 3.92009E-13
3.85531E-10 3.62158E-13
4.75965E-10 3.34594E-13
5.75917E-10 3.05536E-13
6.85389E-10 2.79363E-13
8.04380E-10 2.52819E-13
9.32891E-10 2.29313E-13
1.07092E-09 2.06227E-13
1.21847E-09 1.85972E-13
1.37554E-09 1.66589E-13
1.54213E-09 1.49659E-13
1.71823E-09 1.33786E-13
1.90386E-09 1.19943E-13
2.09900E-09 1.07163E-13
2.30367E-09 9.60123E-14
2.51785E-09 8.58348E-14
2.74156E-09 7.69405E-14
2.97478E-09 6.88866E-14
3.21752E-09 6.18307E-14
3.46978E-09 5.54753E-14
3.73156E-09 4.98908E-14
4.00286E-09 4.48765E-14
4.28368E-09 4.04559E-14
4.57402E-09 3.64927E-14
4.87388E-09 3.29866E-14
5.18326E-09 2.98441E-14
5.50215E-09 2.70542E-14
5.83057E-09 2.44543E-14
6.16850E-09 2.21077E-14
6.51596E-09 2.00299E-14
6.87293E-09 1.81859E-14
7.23942E-09 1.65455E-14
7.61544E-09 1.50829E-14
1.18991E-08 6.56972E-15
1.71347E-08 3.27853E-15
2.33223E-08 1.80706E-15
3.04617E-08 1.07387E-15
3.85531E-08 6.76771E-16
4.75965E-08 4.47050E-16
5.75917E-08 3.06881E-16
6.85389E-08 2.17511E-16
8.04380E-08 1.58391E-16
9.32891E-08 1.18039E-16
1.07092E-07 8.97439E-17
1.21847E-07 6.94340E-17
1.37554E-07 5.45535E-17
1.54213E-07 4.34513E-17
1.71823E-07 3.50332E-17
1.90386E-07 2.85573E-17
2.09900E-07 2.35102E-17
2.30367E-07 1.95298E-17
2.51785E-07 1.63569E-17
2.74156E-07 1.38027E-17
2.97478E-07 1.17279E-17
3.21752E-07 1.00286E-17
3.46978E-07 8.62614E-18
3.73156E-07 7.46039E-18
4.00286E-07 6.48503E-18
4.28368E-07 5.66393E-18
4.57402E-07 4.96873E-18
4.87388E-07 4.37697E-18
5.18325E-07 3.87072E-18
5.50215E-07 3.43558E-18
5.83057E-07 3.05989E-18
6.16850E-07 2.73416E-18
6.51596E-07 2.45064E-18
6.87293E-07 2.20293E-18
7.23942E-07 1.98573E-18
7.61543E-07 1.79465E-18
1.18991E-06 7.35572E-19
1.71347E-06 3.54857E-19
2.33223E-06 1.91584E-19
3.04617E-06 1.12318E-19
3.85531E-06 7.01261E-20
4.75964E-06 4.60127E-20
5.75916E-06 3.14288E-20
6.85388E-06 2.21916E-20
8.04378E-06 1.61121E-20
9.32888E-06 1.19790E-20
1.07092E-05 9.09023E-21
1.21846E-05 7.02207E-21
1.37553E-05 5.51002E-21
1.54212E-05 4.38391E-21
1.71822E-05 3.53134E-21
1.90385E-05 2.87631E-21
2.09899E-05 2.36636E-21
2.30365E-05 1.96457E-21
2.51783E-05 1.64455E-21
2.74153E-05 1.38712E-21
2.97475E-05 1.17815E-21
3.21749E-05 1.00709E-21
3.46974E-05 8.65974E-22
3.73152E-05 7.48734E-22
4.00281E-05 6.50680E-22
4.28362E-05 5.68164E-22
4.57395E-05 4.98324E-22
4.87380E-05 4.38892E-22
5.18317E-05 3.88063E-22
5.50205E-05 3.44383E-22
5.83045E-05 3.06679E-22
6.16838E-05 2.73997E-22
6.51582E-05 2.45555E-22
6.87277E-05 2.20709E-22
7.23925E-05 1.98928E-22
7.61524E-05 1.79768E-22
9.21439E-05 1.22783E-22
1.09658E-04 8.66928E-23
1.28695E-04 6.29263E-23
1.49255E-04 4.67941E-23
1.71338E-04 3.55089E-23
1.94942E-04 2.74297E-23
2.20070E-04 2.15230E-23
2.46720E-04 1.71166E-23
2.74892E-04 1.37871E-23
3.04586E-04 1.12291E-23
3.35803E-04 9.23763E-24
3.68542E-04 7.66880E-24
4.02802E-04 6.41915E-24
4.38585E-04 5.41403E-24
4.75889E-04 4.59810E-24
5.14715E-04 3.93022E-24
5.55063E-04 3.37932E-24
5.96931E-04 2.92160E-24
6.40321E-04 2.53883E-24
6.85233E-04 2.21671E-24
7.31665E-04 1.94409E-24
7.79618E-04 1.71211E-24
8.29092E-04 1.51371E-24
8.80086E-04 1.34323E-24
9.32601E-04 1.19608E-24
9.86636E-04 1.06853E-24
1.04219E-03 9.57537E-25
1.09927E-03 8.60580E-25
1.15786E-03 7.75588E-25
1.21797E-03 7.00827E-25
1.27961E-03 6.34860E-25
1.34276E-03 5.76470E-25
1.40743E-03 5.24639E-25
1.47362E-03 4.78501E-25
1.54133E-03 4.37322E-25
1.61056E-03 4.00479E-25
1.68131E-03 3.67431E-25
1.75357E-03 3.37722E-25
1.82735E-03 3.10953E-25
1.90265E-03 2.86784E-25
1.97947E-03 2.64916E-25
2.05780E-03 2.45092E-25
2.13765E-03 2.27087E-25
2.21902E-03 2.10704E-25
2.30190E-03 1.95771E-25
2.38630E-03 1.82137E-25
2.47222E-03 1.69668E-25
2.55965E-03 1.58247E-25
2.64859E-03 1.47771E-25
2.73905E-03 1.38146E-25
2.83103E-03 1.29292E-25
2.92452E-03 1.21135E-25
3.01952E-03 1.13611E-25
3.11604E-03 1.06661E-25
3.21407E-03 1.00235E-25
3.31362E-03 9.42842E-26
3.41468E-03 8.87683E-26
3.51725E-03 8.36495E-26
3.62133E-03 7.88939E-26
3.72692E-03 7.44712E-26
3.83403E-03 7.03536E-26
3.94265E-03 6.65164E-26
4.05278E-03 6.29369E-26
4.16442E-03 5.95946E-26
4.27757E-03 5.64710E-26
4.39223E-03 5.35491E-26
4.50840E-03 5.08135E-26
4.62608E-03 4.82500E-26
4.74527E-03 4.58460E-26
4.86597E-03 4.35896E-26
4.98817E-03 4.14701E-26
5.11188E-03 3.94776E-26
5.23711E-03 3.76032E-26
5.36383E-03 3.58385E-26
5.49207E-03 3.41760E-26
5.62181E-03 3.26085E-26
5.75306E-03 3.11298E-26
5.88581E-03 2.97337E-26
6.02007E-03 2.84149E-26
6.15583E-03 2.71683E-26
6.29310E-03 2.59891E-26
6.43187E-03 2.48731E-26
6.57214E-03 2.38162E-26
6.71392E-03 2.28147E-26
6.85720E-03 2.18652E-26
7.00198E-03 2.09645E-26
7.14827E-03 2.01096E-26
7.29605E-03 1.92977E-26
7.44534E-03 1.85263E-26
7.59612E-03 1.77929E-26
7.97965E-03 1.61118E-26
8.37255E-03 1.46241E-26
8.77480E-03 1.33038E-26
9.18641E-03 1.21288E-26
9.60736E-03 1.10804E-26
1.00376E-02 1.01424E-26
1.04773E-02 9.30137E-27
1.09262E-02 8.54543E-27
1.13844E-02 7.86449E-27
1.18520E-02 7.24980E-27
1.23288E-02 6.69379E-27
1.28150E-02 6.18987E-27
1.33104E-02 5.73230E-27
1.38150E-02 5.31606E-27
1.43290E-02 4.93677E-27
1.48521E-02 4.59056E-27
1.53845E-02 4.27403E-27
1.59262E-02 3.98418E-27
1.64770E-02 3.71838E-27
1.70371E-02 3.47426E-27
1.76063E-02 3.24974E-27
1.81848E-02 3.04297E-27
1.87724E-02 2.85229E-27
1.93692E-02 2.67623E-27
1.99751E-02 2.51347E-27
2.05901E-02 2.36281E-27
2.12143E-02 2.22320E-27
2.18476E-02 2.09369E-27
2.24900E-02 1.97340E-27
2.31415E-02 1.86157E-27
2.38021E-02 1.75750E-27
2.44717E-02 1.66054E-27
2.51504E-02 1.57012E-27
2.58382E-02 1.48573E-27
2.65349E-02 1.40689E-27
2.72407E-02 1.33316E-27
2.79555E-02 1.26416E-27
2.86793E-02 1.19953E-27
2.94120E-02 1.13894E-27
3.01537E-02 1.08209E-27
3.09043E-02 1.02871E-27
3.16639E-02 9.78554E-28
3.24324E-02 9.31384E-28
3.32098E-02 8.86995E-28
3.39961E-02 8.45190E-28
3.47912E-02 8.05794E-28
3.55952E-02 7.68642E-28
3.64081E-02 7.33583E-28
3.72297E-02 7.00477E-28
3.80602E-02 6.69197E-28
3.88995E-02 6.39622E-28
3.97476E-02 6.11644E-28
4.06044E-02 5.85159E-28
4.14700E-02 5.60075E-28
4.23443E-02 5.36304E-28
4.32273E-02 5.13763E-28
4.41190E-02 4.92379E-28
4.50194E-02 4.72080E-28
4.59284E-02 4.52802E-28
4.68461E-02 4.34485E-28
4.87074E-02 4.00507E-28
5.06030E-02 3.69740E-28
5.25328E-02 3.41827E-28
5.44967E-02 3.16460E-28
5.64946E-02 2.93365E-28
5.85262E-02 2.72304E-28
6.05914E-02 2.53068E-28
6.26901E-02 2.35470E-28
6.48222E-02 2.19348E-28
6.69873E-02 2.04557E-28
6.91854E-02 1.90967E-28
7.14163E-02 1.78465E-28
7.36799E-02 1.66948E-28
7.59760E-02 1.56326E-28
7.83043E-02 1.46517E-28
8.06647E-02 1.37447E-28
8.30571E-02 1.29053E-28
8.54812E-02 1.21274E-28
8.79369E-02 1.14058E-28
9.04240E-02 1.07357E-28
9.29422E-02 1.01129E-28
9.54915E-02 9.53335E-29
9.80716E-02 8.99361E-29
1.00682E-01 8.49046E-29
1.03323E-01 8.02101E-29
1.05995E-01 7.58259E-29
1.08696E-01 7.17283E-29
1.11427E-01 6.78952E-29
1.14188E-01 6.43066E-29
1.16978E-01 6.09444E-29
1.19797E-01 5.77918E-29
1.22645E-01 5.48336E-29
1.25522E-01 5.20558E-29
1.28428E-01 4.94453E-29
1.31361E-01 4.69906E-29
1.34323E-01 4.46808E-29
1.37313E-01 4.25059E-29
1.40330E-01 4.04566E-29
1.43375E-01 3.85245E-29
1.46447E-01 3.67018E-29
1.49545E-01 3.49813E-29
1.52671E-01 3.33562E-29
1.55823E-01 3.18204E-29
1.59001E-01 3.03682E-29
1.62205E-01 2.89944E-29
1.65435E-01 2.76938E-29
1.68690E-01 2.64621E-29
1.71970E-01 2.52949E-29
1.75276E-01 2.41884E-29
1.78606E-01 2.31388E-29
1.81961E-01 2.21428E-29
1.85340E-01 2.11972E-29
1.88743E-01 2.02989E-29
1.92169E-01 1.94454E-29
1.95619E-01 1.86339E-29
1.99092E-01 1.78620E-29
2.02589E-01 1.71276E-29
2.06107E-01 1.64285E-29
2.09649E-01 1.57628E-29
2.13212E-01 1.51285E-29
2.16797E-01 1.45241E-29
2.20404E-01 1.39477E-29
2.24032E-01 1.33980E-29
2.27680E-01 1.28736E-29
2.31350E-01 1.23730E-29
2.35040E-01 1.18950E-29
2.38751E-01 1.14384E-29
2.42481E-01 1.10022E-29
2.46231E-01 1.05853E-29
2.50000E-01 1.01866E-29
2.53788E-01 9.80531E-30
2.57595E-01 9.44052E-30
2.61421E-01 9.09139E-30
2.65264E-01 8.75719E-30
2.69126E-01 8.43713E-30
2.73005E-01 8.13056E-30
2.76901E-01 7.83681E-30
2.80814E-01 7.55525E-30
2.84744E-01 7.28532E-30
2.88691E-01 7.02647E-30
2.92653E-01 6.77814E-30
2.96632E-01 6.53987E-30
3.00625E-01 6.31119E-30
3.04634E-01 6.09165E-30
3.08658E-01 5.88085E-30
3.12697E-01 5.67836E-30
3.16749E-01 5.48383E-30
3.20816E-01 5.29689E-30
3.24896E-01 5.11720E-30
3.28990E-01 4.94444E-30
3.33097E-01 4.77832E-30
3.37216E-01 4.61853E-30
3.41348E-01 4.46479E-30
3.45492E-01 4.31685E-30
3.49647E-01 4.17445E-30
3.53814E-01 4.03738E-30
3.57992E-01 3.90538E-30
3.62181E-01 3.77825E-30
3.66381E-01 3.65579E-30
3.70590E-01 3.53778E-30
3.74810E-01 3.42408E-30
3.79039E-01 3.31447E-30
3.83277E-01 3.20880E-30
3.87524E-01 3.10691E-30
3.91780E-01 3.00866E-30
3.96044E-01 2.91387E-30
4.00316E-01 2.82242E-30
4.04596E-01 2.73416E-30
4.08882E-01 2.64900E-30
4.13176E-01 2.56679E-30
4.17476E-01 2.48741E-30
4.21783E-01 2.41078E-30
4.26095E-01 2.33675E-30
4.30413E-01 2.26525E-30
4.34737E-01 2.19617E-30
4.39065E-01 2.12943E-30
4.43398E-01 2.06493E-30
4.47736E-01 2.00258E-30
4.52077E-01 1.94231E-30
4.56422E-01 1.88404E-30
4.60770E-01 1.82769E-30
4.65122E-01 1.77320E-30
4.69476E-01 1.72048E-30
4.73832E-01 1.66948E-30
4.78190E-01 1.62014E-30
4.82550E-01 1.57240E-30
4.86912E-01 1.52618E-30
4.91274E-01 1.48145E-30
4.95637E-01 1.43815E-30
5.00000E-01 1.39623E-30
5.04363E-01 1.35563E-30
5.08726E-01 1.31631E-30
5.13088E-01 1.27823E-30
5.17450E-01 1.24134E-30
5.21810E-01 1.20560E-30
5.26168E-01 1.17097E-30
5.30524E-01 1.13741E-30
5.34878E-01 1.10488E-30
5.39230E-01 1.07336E-30
5.43578E-01 1.04279E-30
5.47923E-01 1.01316E-30
5.52264E-01 9.84433E-31
5.56602E-01 9.56570E-31
5.60935E-01 9.29550E-31
5.65263E-01 9.03349E-31
5.69587E-01 8.77919E-31
5.73905E-01 8.53259E-31
5.78217E-01 8.29325E-31
5.82524E-01 8.06103E-31
5.86824E-01 7.83567E-31
5.91118E-01 7.61697E-31
5.95404E-01 7.40465E-31
5.99684E-01 7.19856E-31
6.03956E-01 6.99849E-31
6.08220E-01 6.80427E-31
6.12476E-01 6.61560E-31
6.16723E-01 6.43238E-31
6.20961E-01 6.25449E-31
6.25190E-01 6.08171E-31
6.29410E-01 5.91382E-31
6.33619E-01 5.75075E-31
6.37819E-01 5.59229E-31
6.42008E-01 5.43836E-31
6.46186E-01 5.28874E-31
6.50353E-01 5.14341E-31
6.54508E-01 5.00211E-31
6.58652E-01 4.86479E-31
6.62784E-01 4.73131E-31
6.66903E-01 4.60156E-31
6.71010E-01 4.47540E-31
6.75104E-01 4.35274E-31
6.79184E-01 4.23345E-31
6.83251E-01 4.11750E-31
6.87303E-01 4.00468E-31
6.91342E-01 3.89501E-31
6.95366E-01 3.78831E-31
6.99375E-01 3.68453E-31
7.03368E-01 3.58355E-31
7.07347E-01 3.48533E-31
7.11309E-01 3.38976E-31
7.15256E-01 3.29678E-31
7.19186E-01 3.20632E-31
7.23099E-01 3.11829E-31
7.26995E-01 3.03261E-31
7.30874E-01 2.94924E-31
7.34736E-01 2.86808E-31
7.38579E-01 2.78909E-31
7.42405E-01 2.71220E-31
7.46212E-01 2.63734E-31
7.50000E-01 2.56449E-31
7.53769E-01 2.49355E-31
7.57519E-01 2.42446E-31
7.61249E-01 2.35721E-31
7.64960E-01 2.29170E-31
7.68650E-01 2.22792E-31
7.72320E-01 2.16582E-31
7.75968E-01 2.10536E-31
7.79596E-01 2.04644E-31
7.83203E-01 1.98906E-31
7.86788E-01 1.93316E-31
7.90351E-01 1.87875E-31
7.93893E-01 1.82568E-31
7.97411E-01 1.77407E-31
8.00908E-01 1.72373E-31
8.04381E-01 1.67472E-31
8.07831E-01 1.62695E-31
8.11257E-01 1.58043E-31
8.14660E-01 1.53508E-31
8.18039E-01 1.49091E-31
8.21394E-01 1.44784E-31
8.24724E-01 1.40590E-31
8.28030E-01 1.36501E-31
8.31310E-01 1.32518E-31
8.34565E-01 1.28636E-31
8.37795E-01 1.24854E-31
8.40999E-01 1.21166E-31
8.44177E-01 1.17573E-31
8.47329E-01 1.14073E-31
8.50455E-01 1.10658E-31
8.53553E-01 1.07332E-31
8.56625E-01 1.04089E-31
8.59670E-01 1.00929E-31
8.62687E-01 9.78503E-32
8.65677E-01 9.48505E-32
8.68639E-01 9.19259E-32
8.71572E-01 8.90733E-32
8.74478E-01 8.62947E-32
8.77355E-01 8.35850E-32
8.80203E-01 8.09468E-32
8.83022E-01 7.83737E-32
8.85812E-01 7.58664E-32
8.88573E-01 7.34226E-32
8.91304E-01 7.10386E-32
8.94005E-01 6.87209E-32
8.96677E-01 6.64585E-32
8.99318E-01 6.42530E-32
9.01928E-01 6.21068E-32
9.04508E-01 6.00138E-32
9.07058E-01 5.79736E-32
9.09576E-01 5.59884E-32
9.12063E-01 5.40531E-32
9.14519E-01 5.21655E-32
9.16943E-01 5.03292E-32
9.19335E-01 4.85402E-32
9.21696E-01 4.67985E-32
9.24024E-01 4.51009E-32
9.26320E-01 4.34483E-32
9.28584E-01 4.18395E-32
9.30815E-01 4.02725E-32
9.33013E-01 3.87464E-32
9.35178E-01 3.72626E-32
9.37310E-01 3.58183E-32
9.39409E-01 3.44113E-32
9.41474E-01 3.30427E-32
9.43505E-01 3.17118E-32
9.45503E-01 3.04182E-32
9.47467E-01 2.91572E-32
9.49397E-01 2.79330E-32
9.51293E-01 2.67436E-32
9.53154E-01 2.55880E-32
9.54981E-01 2.44638E-32
9.56773E-01 2.33723E-32
9.58530E-01 2.23123E-32
9.60252E-01 2.12831E-32
9.61940E-01 2.02844E-32
9.63592E-01 1.93150E-32
9.65209E-01 1.83742E-32
9.66790E-01 1.74630E-32
9.68336E-01 1.65789E-32
9.69846E-01 1.57234E-32
9.71321E-01 1.48940E-32
9.72759E-01 1.40910E-32
9.74162E-01 1.33156E-32
9.75528E-01 1.25642E-32
9.76858E-01 1.18394E-32
9.78152E-01 1.11381E-32
9.79410E-01 1.04629E-32
9.80631E-01 9.81108E-33
9.81815E-01 9.18217E-33
9.82963E-01 8.57701E-33
9.84074E-01 7.99510E-33
9.85148E-01 7.43486E-33
9.86185E-01 6.89737E-33
9.87185E-01 6.38163E-33
9.88148E-01 5.88903E-33
9.89074E-01 5.41780E-33
9.89962E-01 4.96740E-33
9.90814E-01 4.53671E-33
9.91627E-01 4.12854E-33
9.92404E-01 3.74045E-33
9.93143E-01 3.37174E-33
9.93844E-01 3.02370E-33
9.94508E-01 2.69591E-33
9.95134E-01 2.38723E-33
9.95722E-01 2.09860E-33
9.96273E-01 1.82841E-33
9.96786E-01 1.57816E-33
9.97261E-01 1.34671E-33
9.97698E-01 1.13432E-33
9.98097E-01 9.41494E-34
9.98459E-01 7.66762E-34
9.98782E-01 6.10988E-34
9.99067E-01 4.73227E-34
9.99315E-01 3.54334E-34
9.99524E-01 2.54118E-34
9.99695E-01 1.71490E-34
9.99829E-01 1.07748E-34
9.99924E-01 6.18822E-35
9.99981E-01 3.46882E-35
1.00000E+00 2.59250E-35
