 #
 # Subroutine ELSEPA. Elastic scattering of electrons and positrons
 #                    by neutral atoms and positive ions
 #
 # Projectile: positron
 # Kinetic energy = 1.00000E+07 eV = 3.67493E+05 a.u.
 #
 # WARNING: High-energy factorization with free-atom DF screening.
 #          Absorption, polarization and exchange corrections are
 #          switched off.
 #          Phase shifts are calculated for the bare nucleus.
 #          Scattering amplitudes are not evaluated.
 #
 # Element:  H,  Z =   1,  atomic weight = 1.00790E+00 g/mol
 #
 # Nuclear model: Fermi distribution
 #                Average radius = 1.07281E-13 cm
 #                Skin thickness = 5.46000E-14 cm
 #
 # Number of electrons =  1
 #
 # Total elastic cross section = 1.08720E-20 cm**2 = 3.88248E-04 a0**2
 # 1st transport cross section = 1.76911E-26 cm**2 = 6.31761E-10 a0**2
 # 2nd transport cross section = 5.13157E-26 cm**2 = 1.83252E-09 a0**2
 #
 #
 # Differential cross section:                       MU=(1-COS(THETA))/2
 #
 #  THETA        MU          DCS          DCS        Sherman      error
 #  (deg)                 (cm**2/sr)   (a0**2/sr)    function
 #----------------------------------------------------------------------
0.00000E+00 1.18473E-14
7.61557E-13 1.18471E-14
1.18994E-12 1.18469E-14
1.71346E-12 1.18468E-14
2.33225E-12 1.18466E-14
3.04617E-12 1.18464E-14
3.85530E-12 1.18462E-14
4.75964E-12 1.18459E-14
5.75917E-12 1.18457E-14
6.85391E-12 1.18454E-14
8.04379E-12 1.18450E-14
9.32893E-12 1.18447E-14
1.07092E-11 1.18443E-14
1.21847E-11 1.18438E-14
1.37554E-11 1.18434E-14
1.54213E-11 1.18429E-14
1.71823E-11 1.18424E-14
1.90386E-11 1.18419E-14
2.09900E-11 1.18414E-14
2.30367E-11 1.18408E-14
2.51785E-11 1.18402E-14
2.74156E-11 1.18396E-14
2.97478E-11 1.18389E-14
3.21752E-11 1.18382E-14
3.46979E-11 1.18375E-14
3.73157E-11 1.18368E-14
4.00286E-11 1.18360E-14
4.28368E-11 1.18352E-14
4.57402E-11 1.18344E-14
4.87388E-11 1.18336E-14
5.18325E-11 1.18327E-14
5.50215E-11 1.18318E-14
5.83057E-11 1.18309E-14
6.16850E-11 1.18299E-14
6.51595E-11 1.18289E-14
6.87293E-11 1.18279E-14
7.23943E-11 1.18269E-14
7.61544E-11 1.18258E-14
1.18991E-10 1.18138E-14
1.71347E-10 1.17991E-14
2.33223E-10 1.17818E-14
3.04617E-10 1.17619E-14
3.85531E-10 1.17393E-14
4.75965E-10 1.17142E-14
5.75917E-10 1.16865E-14
6.85389E-10 1.16563E-14
8.04380E-10 1.16236E-14
9.32891E-10 1.15884E-14
1.07092E-09 1.15508E-14
1.21847E-09 1.15107E-14
1.37554E-09 1.14683E-14
1.54213E-09 1.14235E-14
1.71823E-09 1.13766E-14
1.90386E-09 1.13272E-14
2.09900E-09 1.12757E-14
2.30367E-09 1.12221E-14
2.51785E-09 1.11664E-14
2.74156E-09 1.11084E-14
2.97478E-09 1.10485E-14
3.21752E-09 1.09868E-14
3.46978E-09 1.09231E-14
3.73156E-09 1.08574E-14
4.00286E-09 1.07899E-14
4.28368E-09 1.07208E-14
4.57402E-09 1.06500E-14
4.87388E-09 1.05774E-14
5.18326E-09 1.05033E-14
5.50215E-09 1.04278E-14
5.83057E-09 1.03507E-14
6.16850E-09 1.02721E-14
6.51596E-09 1.01922E-14
6.87293E-09 1.01112E-14
7.23942E-09 1.00288E-14
7.61544E-09 9.94517E-15
1.18991E-08 9.05854E-15
1.71347E-08 8.09026E-15
2.33223E-08 7.15829E-15
3.04617E-08 6.25636E-15
3.85531E-08 5.39998E-15
4.75965E-08 4.63651E-15
5.75917E-08 3.96603E-15
6.85389E-08 3.37226E-15
8.04380E-08 2.85785E-15
9.32891E-08 2.42301E-15
1.07092E-07 2.05608E-15
1.21847E-07 1.74255E-15
1.37554E-07 1.47934E-15
1.54213E-07 1.25951E-15
1.71823E-07 1.07544E-15
1.90386E-07 9.19548E-16
2.09900E-07 7.89014E-16
2.30367E-07 6.79435E-16
2.51785E-07 5.87060E-16
2.74156E-07 5.04453E-16
2.97478E-07 4.35480E-16
3.21752E-07 3.77693E-16
3.46978E-07 3.29028E-16
3.73156E-07 2.87838E-16
4.00286E-07 2.52806E-16
4.28368E-07 2.22876E-16
4.57402E-07 1.97193E-16
4.87388E-07 1.75062E-16
5.18325E-07 1.55917E-16
5.50215E-07 1.39291E-16
5.83057E-07 1.24803E-16
6.16850E-07 1.12132E-16
6.51596E-07 1.01016E-16
6.87293E-07 9.12321E-17
7.23942E-07 8.25952E-17
7.61543E-07 7.49489E-17
1.18991E-06 3.15972E-17
1.71347E-06 1.54811E-17
2.33223E-06 8.43698E-18
3.04617E-06 4.97666E-18
3.85531E-06 3.12030E-18
4.75964E-06 2.05355E-18
5.75916E-06 1.40580E-18
6.85388E-06 9.94316E-19
8.04378E-06 7.22875E-19
9.32888E-06 5.38009E-19
1.07092E-05 4.08613E-19
1.21846E-05 3.15867E-19
1.37553E-05 2.47995E-19
1.54212E-05 1.97407E-19
1.71822E-05 1.59081E-19
1.90385E-05 1.29618E-19
2.09899E-05 1.06670E-19
2.30365E-05 8.85811E-20
2.51783E-05 7.41686E-20
2.74153E-05 6.25711E-20
2.97475E-05 5.31539E-20
3.21749E-05 4.54433E-20
3.46974E-05 3.90813E-20
3.73152E-05 3.37945E-20
4.00281E-05 2.93720E-20
4.28362E-05 2.56498E-20
4.57395E-05 2.24989E-20
4.87380E-05 1.98173E-20
5.18317E-05 1.75235E-20
5.50205E-05 1.55521E-20
5.83045E-05 1.38503E-20
6.16838E-05 1.23751E-20
6.51582E-05 1.10911E-20
6.87277E-05 9.96933E-21
7.23925E-05 8.98589E-21
7.61524E-05 8.12077E-21
9.21439E-05 5.54734E-21
1.09658E-04 3.91719E-21
1.28695E-04 2.84383E-21
1.49255E-04 2.11469E-21
1.71338E-04 1.60478E-21
1.94942E-04 1.23971E-21
2.20070E-04 9.72786E-22
2.46720E-04 7.73798E-22
2.74892E-04 6.23310E-22
3.04586E-04 5.07688E-22
3.35803E-04 4.17668E-22
3.68542E-04 3.46750E-22
4.02802E-04 2.90258E-22
4.38585E-04 2.44819E-22
4.75889E-04 2.07931E-22
5.14715E-04 1.77736E-22
5.55063E-04 1.52829E-22
5.96931E-04 1.32134E-22
6.40321E-04 1.14827E-22
6.85233E-04 1.00263E-22
7.31665E-04 8.79356E-23
7.79618E-04 7.74461E-23
8.29092E-04 6.84745E-23
8.80086E-04 6.07654E-23
9.32601E-04 5.41108E-23
9.86636E-04 4.83429E-23
1.04219E-03 4.33232E-23
1.09927E-03 3.89383E-23
1.15786E-03 3.50944E-23
1.21797E-03 3.17132E-23
1.27961E-03 2.87295E-23
1.34276E-03 2.60885E-23
1.40743E-03 2.37441E-23
1.47362E-03 2.16572E-23
1.54133E-03 1.97945E-23
1.61056E-03 1.81279E-23
1.68131E-03 1.66329E-23
1.75357E-03 1.52889E-23
1.82735E-03 1.40779E-23
1.90265E-03 1.29845E-23
1.97947E-03 1.19951E-23
2.05780E-03 1.10982E-23
2.13765E-03 1.02836E-23
2.21902E-03 9.54227E-24
2.30190E-03 8.86657E-24
2.38630E-03 8.24963E-24
2.47222E-03 7.68540E-24
2.55965E-03 7.16859E-24
2.64859E-03 6.69447E-24
2.73905E-03 6.25890E-24
2.83103E-03 5.85818E-24
2.92452E-03 5.48900E-24
3.01952E-03 5.14845E-24
3.11604E-03 4.83388E-24
3.21407E-03 4.54297E-24
3.31362E-03 4.27361E-24
3.41468E-03 4.02392E-24
3.51725E-03 3.79219E-24
3.62133E-03 3.57689E-24
3.72692E-03 3.37665E-24
3.83403E-03 3.19022E-24
3.94265E-03 3.01648E-24
4.05278E-03 2.85440E-24
4.16442E-03 2.70306E-24
4.27757E-03 2.56161E-24
4.39223E-03 2.42928E-24
4.50840E-03 2.30539E-24
4.62608E-03 2.18929E-24
4.74527E-03 2.08041E-24
4.86597E-03 1.97820E-24
4.98817E-03 1.88219E-24
5.11188E-03 1.79194E-24
5.23711E-03 1.70702E-24
5.36383E-03 1.62708E-24
5.49207E-03 1.55175E-24
5.62181E-03 1.48074E-24
5.75306E-03 1.41373E-24
5.88581E-03 1.35047E-24
6.02007E-03 1.29071E-24
6.15583E-03 1.23421E-24
6.29310E-03 1.18077E-24
6.43187E-03 1.13019E-24
6.57214E-03 1.08229E-24
6.71392E-03 1.03689E-24
6.85720E-03 9.93854E-25
7.00198E-03 9.53021E-25
7.14827E-03 9.14263E-25
7.29605E-03 8.77453E-25
7.44534E-03 8.42476E-25
7.59612E-03 8.09222E-25
7.97965E-03 7.32986E-25
8.37255E-03 6.65512E-25
8.77480E-03 6.05619E-25
9.18641E-03 5.52309E-25
9.60736E-03 5.04731E-25
1.00376E-02 4.62163E-25
1.04773E-02 4.23985E-25
1.09262E-02 3.89664E-25
1.13844E-02 3.58742E-25
1.18520E-02 3.30825E-25
1.23288E-02 3.05567E-25
1.28150E-02 2.82671E-25
1.33104E-02 2.61877E-25
1.38150E-02 2.42958E-25
1.43290E-02 2.25714E-25
1.48521E-02 2.09971E-25
1.53845E-02 1.95575E-25
1.59262E-02 1.82389E-25
1.64770E-02 1.70295E-25
1.70371E-02 1.59185E-25
1.76063E-02 1.48964E-25
1.81848E-02 1.39549E-25
1.87724E-02 1.30865E-25
1.93692E-02 1.22845E-25
1.99751E-02 1.15429E-25
2.05901E-02 1.08562E-25
2.12143E-02 1.02198E-25
2.18476E-02 9.62919E-26
2.24900E-02 9.08056E-26
2.31415E-02 8.57035E-26
2.38021E-02 8.09539E-26
2.44717E-02 7.65280E-26
2.51504E-02 7.23997E-26
2.58382E-02 6.85452E-26
2.65349E-02 6.49432E-26
2.72407E-02 6.15741E-26
2.79555E-02 5.84199E-26
2.86793E-02 5.54646E-26
2.94120E-02 5.26932E-26
3.01537E-02 5.00922E-26
3.09043E-02 4.76492E-26
3.16639E-02 4.53529E-26
3.24324E-02 4.31927E-26
3.32098E-02 4.11592E-26
3.39961E-02 3.92436E-26
3.47912E-02 3.74377E-26
3.55952E-02 3.57341E-26
3.64081E-02 3.41259E-26
3.72297E-02 3.26068E-26
3.80602E-02 3.11710E-26
3.88995E-02 2.98130E-26
3.97476E-02 2.85279E-26
4.06044E-02 2.73109E-26
4.14700E-02 2.61579E-26
4.23443E-02 2.50648E-26
4.32273E-02 2.40280E-26
4.41190E-02 2.30440E-26
4.50194E-02 2.21095E-26
4.59284E-02 2.12218E-26
4.68461E-02 2.03779E-26
4.87074E-02 1.88117E-26
5.06030E-02 1.73924E-26
5.25328E-02 1.61037E-26
5.44967E-02 1.49315E-26
5.64946E-02 1.38635E-26
5.85262E-02 1.28887E-26
6.05914E-02 1.19976E-26
6.26901E-02 1.11816E-26
6.48222E-02 1.04334E-26
6.69873E-02 9.74636E-27
6.91854E-02 9.11451E-27
7.14163E-02 8.53267E-27
7.36799E-02 7.99616E-27
7.59760E-02 7.50083E-27
7.83043E-02 7.04295E-27
8.06647E-02 6.61918E-27
8.30571E-02 6.22653E-27
8.54812E-02 5.86230E-27
8.79369E-02 5.52407E-27
9.04240E-02 5.20964E-27
9.29422E-02 4.91705E-27
9.54915E-02 4.64450E-27
9.80716E-02 4.39037E-27
1.00682E-01 4.15320E-27
1.03323E-01 3.93164E-27
1.05995E-01 3.72449E-27
1.08696E-01 3.53064E-27
1.11427E-01 3.34909E-27
1.14188E-01 3.17890E-27
1.16978E-01 3.01924E-27
1.19797E-01 2.86935E-27
1.22645E-01 2.72852E-27
1.25522E-01 2.59610E-27
1.28428E-01 2.47149E-27
1.31361E-01 2.35416E-27
1.34323E-01 2.24361E-27
1.37313E-01 2.13936E-27
1.40330E-01 2.04100E-27
1.43375E-01 1.94813E-27
1.46447E-01 1.86039E-27
1.49545E-01 1.77745E-27
1.52671E-01 1.69899E-27
1.55823E-01 1.62474E-27
1.59001E-01 1.55442E-27
1.62205E-01 1.48779E-27
1.65435E-01 1.42462E-27
1.68690E-01 1.36470E-27
1.71970E-01 1.30783E-27
1.75276E-01 1.25382E-27
1.78606E-01 1.20252E-27
1.81961E-01 1.15375E-27
1.85340E-01 1.10737E-27
1.88743E-01 1.06324E-27
1.92169E-01 1.02124E-27
1.95619E-01 9.81234E-28
1.99092E-01 9.43120E-28
2.02589E-01 9.06791E-28
2.06107E-01 8.72148E-28
2.09649E-01 8.39098E-28
2.13212E-01 8.07555E-28
2.16797E-01 7.77438E-28
2.20404E-01 7.48669E-28
2.24032E-01 7.21182E-28
2.27680E-01 6.94904E-28
2.31350E-01 6.69776E-28
2.35040E-01 6.45737E-28
2.38751E-01 6.22731E-28
2.42481E-01 6.00707E-28
2.46231E-01 5.79614E-28
2.50000E-01 5.59407E-28
2.53788E-01 5.40041E-28
2.57595E-01 5.21476E-28
2.61421E-01 5.03672E-28
2.65264E-01 4.86593E-28
2.69126E-01 4.70204E-28
2.73005E-01 4.54472E-28
2.76901E-01 4.39366E-28
2.80814E-01 4.24857E-28
2.84744E-01 4.10917E-28
2.88691E-01 3.97519E-28
2.92653E-01 3.84639E-28
2.96632E-01 3.72253E-28
3.00625E-01 3.60339E-28
3.04634E-01 3.48875E-28
3.08658E-01 3.37843E-28
3.12697E-01 3.27222E-28
3.16749E-01 3.16995E-28
3.20816E-01 3.07145E-28
3.24896E-01 2.97654E-28
3.28990E-01 2.88508E-28
3.33097E-01 2.79693E-28
3.37216E-01 2.71194E-28
3.41348E-01 2.62996E-28
3.45492E-01 2.55089E-28
3.49647E-01 2.47460E-28
3.53814E-01 2.40097E-28
3.57992E-01 2.32990E-28
3.62181E-01 2.26128E-28
3.66381E-01 2.19502E-28
3.70590E-01 2.13101E-28
3.74810E-01 2.06917E-28
3.79039E-01 2.00941E-28
3.83277E-01 1.95165E-28
3.87524E-01 1.89581E-28
3.91780E-01 1.84182E-28
3.96044E-01 1.78960E-28
4.00316E-01 1.73908E-28
4.04596E-01 1.69021E-28
4.08882E-01 1.64292E-28
4.13176E-01 1.59714E-28
4.17476E-01 1.55283E-28
4.21783E-01 1.50992E-28
4.26095E-01 1.46837E-28
4.30413E-01 1.42813E-28
4.34737E-01 1.38913E-28
4.39065E-01 1.35136E-28
4.43398E-01 1.31475E-28
4.47736E-01 1.27926E-28
4.52077E-01 1.24486E-28
4.56422E-01 1.21151E-28
4.60770E-01 1.17916E-28
4.65122E-01 1.14779E-28
4.69476E-01 1.11735E-28
4.73832E-01 1.08782E-28
4.78190E-01 1.05917E-28
4.82550E-01 1.03136E-28
4.86912E-01 1.00436E-28
4.91274E-01 9.78154E-29
4.95637E-01 9.52712E-29
5.00000E-01 9.28003E-29
5.04363E-01 9.04003E-29
5.08726E-01 8.80689E-29
5.13088E-01 8.58044E-29
5.17450E-01 8.36036E-29
5.21810E-01 8.14652E-29
5.26168E-01 7.93868E-29
5.30524E-01 7.73663E-29
5.34878E-01 7.54017E-29
5.39230E-01 7.34922E-29
5.43578E-01 7.16349E-29
5.47923E-01 6.98287E-29
5.52264E-01 6.80718E-29
5.56602E-01 6.63626E-29
5.60935E-01 6.46999E-29
5.65263E-01 6.30823E-29
5.69587E-01 6.15075E-29
5.73905E-01 5.99753E-29
5.78217E-01 5.84835E-29
5.82524E-01 5.70314E-29
5.86824E-01 5.56176E-29
5.91118E-01 5.42411E-29
5.95404E-01 5.29005E-29
5.99684E-01 5.15949E-29
6.03956E-01 5.03232E-29
6.08220E-01 4.90847E-29
6.12476E-01 4.78776E-29
6.16723E-01 4.67016E-29
6.20961E-01 4.55558E-29
6.25190E-01 4.44393E-29
6.29410E-01 4.33508E-29
6.33619E-01 4.22899E-29
6.37819E-01 4.12557E-29
6.42008E-01 4.02475E-29
6.46186E-01 3.92644E-29
6.50353E-01 3.83061E-29
6.54508E-01 3.73712E-29
6.58652E-01 3.64596E-29
6.62784E-01 3.55705E-29
6.66903E-01 3.47032E-29
6.71010E-01 3.38571E-29
6.75104E-01 3.30316E-29
6.79184E-01 3.22260E-29
6.83251E-01 3.14403E-29
6.87303E-01 3.06732E-29
6.91342E-01 2.99249E-29
6.95366E-01 2.91943E-29
6.99375E-01 2.84813E-29
7.03368E-01 2.77851E-29
7.07347E-01 2.71056E-29
7.11309E-01 2.64421E-29
7.15256E-01 2.57944E-29
7.19186E-01 2.51619E-29
7.23099E-01 2.45443E-29
7.26995E-01 2.39412E-29
7.30874E-01 2.33522E-29
7.34736E-01 2.27768E-29
7.38579E-01 2.22149E-29
7.42405E-01 2.16659E-29
7.46212E-01 2.11297E-29
7.50000E-01 2.06058E-29
7.53769E-01 2.00941E-29
7.57519E-01 1.95939E-29
7.61249E-01 1.91053E-29
7.64960E-01 1.86277E-29
7.68650E-01 1.81611E-29
7.72320E-01 1.77051E-29
7.75968E-01 1.72596E-29
7.79596E-01 1.68240E-29
7.83203E-01 1.63983E-29
7.86788E-01 1.59821E-29
7.90351E-01 1.55755E-29
7.93893E-01 1.51777E-29
7.97411E-01 1.47893E-29
8.00908E-01 1.44093E-29
8.04381E-01 1.40379E-29
8.07831E-01 1.36747E-29
8.11257E-01 1.33198E-29
8.14660E-01 1.29726E-29
8.18039E-01 1.26333E-29
8.21394E-01 1.23013E-29
8.24724E-01 1.19769E-29
8.28030E-01 1.16595E-29
8.31310E-01 1.13493E-29
8.34565E-01 1.10459E-29
8.37795E-01 1.07493E-29
8.40999E-01 1.04591E-29
8.44177E-01 1.01754E-29
8.47329E-01 9.89809E-30
8.50455E-01 9.62665E-30
8.53553E-01 9.36142E-30
8.56625E-01 9.10192E-30
8.59670E-01 8.84821E-30
8.62687E-01 8.60017E-30
8.65677E-01 8.35767E-30
8.68639E-01 8.12049E-30
8.71572E-01 7.88842E-30
8.74478E-01 7.66162E-30
8.77355E-01 7.43976E-30
8.80203E-01 7.22298E-30
8.83022E-01 7.01091E-30
8.85812E-01 6.80360E-30
8.88573E-01 6.60089E-30
8.91304E-01 6.40257E-30
8.94005E-01 6.20905E-30
8.96677E-01 6.01961E-30
8.99318E-01 5.83440E-30
9.01928E-01 5.65355E-30
9.04508E-01 5.47666E-30
9.07058E-01 5.30376E-30
9.09576E-01 5.13493E-30
9.12063E-01 4.96989E-30
9.14519E-01 4.80847E-30
9.16943E-01 4.65094E-30
9.19335E-01 4.49702E-30
9.21696E-01 4.34672E-30
9.24024E-01 4.19983E-30
9.26320E-01 4.05641E-30
9.28584E-01 3.91640E-30
9.30815E-01 3.77965E-30
9.33013E-01 3.64612E-30
9.35178E-01 3.51591E-30
9.37310E-01 3.38881E-30
9.39409E-01 3.26471E-30
9.41474E-01 3.14367E-30
9.43505E-01 3.02564E-30
9.45503E-01 2.91059E-30
9.47467E-01 2.79824E-30
9.49397E-01 2.68885E-30
9.51293E-01 2.58231E-30
9.53154E-01 2.47848E-30
9.54981E-01 2.37731E-30
9.56773E-01 2.27881E-30
9.58530E-01 2.18295E-30
9.60252E-01 2.08965E-30
9.61940E-01 1.99892E-30
9.63592E-01 1.91064E-30
9.65209E-01 1.82482E-30
9.66790E-01 1.74148E-30
9.68336E-01 1.66048E-30
9.69846E-01 1.58190E-30
9.71321E-01 1.50558E-30
9.72759E-01 1.43159E-30
9.74162E-01 1.35993E-30
9.75528E-01 1.29040E-30
9.76858E-01 1.22321E-30
9.78152E-01 1.15808E-30
9.79410E-01 1.09524E-30
9.80631E-01 1.03447E-30
9.81815E-01 9.75788E-31
9.82963E-01 9.19197E-31
9.84074E-01 8.64689E-31
9.85148E-01 8.12168E-31
9.86185E-01 7.61673E-31
9.87185E-01 7.13199E-31
9.88148E-01 6.66778E-31
9.89074E-01 6.22320E-31
9.89962E-01 5.79731E-31
9.90814E-01 5.39074E-31
9.91627E-01 5.00404E-31
9.92404E-01 4.63595E-31
9.93143E-01 4.28647E-31
9.93844E-01 3.95597E-31
9.94508E-01 3.64435E-31
9.95134E-01 3.35076E-31
9.95722E-01 3.07566E-31
9.96273E-01 2.81813E-31
9.96786E-01 2.57975E-31
9.97261E-01 2.35873E-31
9.97698E-01 2.15627E-31
9.98097E-01 1.97155E-31
9.98459E-01 1.80467E-31
9.98782E-01 1.65540E-31
9.99067E-01 1.52385E-31
9.99315E-01 1.40985E-31
9.99524E-01 1.31395E-31
9.99695E-01 1.23468E-31
9.99829E-01 1.17366E-31
9.99924E-01 1.12976E-31
9.99981E-01 1.10396E-31
1.00000E+00 1.09663E-31
