 #
 # Subroutine ELSEPA. Elastic scattering of electrons and positrons
 #                    by neutral atoms and positive ions
 #
 # Projectile: positron
 # Kinetic energy = 6.00000E+06 eV = 2.20496E+05 a.u.
 #
 # WARNING: High-energy factorization with free-atom DF screening.
 #          Absorption, polarization and exchange corrections are
 #          switched off.
 #          Phase shifts are calculated for the bare nucleus.
 #          Scattering amplitudes are not evaluated.
 #
 # Element: Ne,  Z =  10,  atomic weight = 2.01797E+01 g/mol
 #
 # Nuclear model: Fermi distribution
 #                Average radius = 2.91310E-13 cm
 #                Skin thickness = 5.46000E-14 cm
 #
 # Number of electrons = 10
 #
 # Total elastic cross section = 2.95038E-19 cm**2 = 1.05360E-02 a0**2
 # 1st transport cross section = 3.72766E-24 cm**2 = 1.33117E-07 a0**2
 # 2nd transport cross section = 1.07464E-23 cm**2 = 3.83761E-07 a0**2
 #
 #
 # Differential cross section:                       MU=(1-COS(THETA))/2
 #
 #  THETA        MU          DCS          DCS        Sherman      error
 #  (deg)                 (cm**2/sr)   (a0**2/sr)    function
 #----------------------------------------------------------------------
0.00000E+00 4.41397E-14
7.61557E-13 4.41395E-14
1.18994E-12 4.41394E-14
1.71346E-12 4.41393E-14
2.33225E-12 4.41392E-14
3.04617E-12 4.41391E-14
3.85530E-12 4.41390E-14
4.75964E-12 4.41388E-14
5.75917E-12 4.41387E-14
6.85391E-12 4.41385E-14
8.04379E-12 4.41383E-14
9.32893E-12 4.41381E-14
1.07092E-11 4.41379E-14
1.21847E-11 4.41376E-14
1.37554E-11 4.41374E-14
1.54213E-11 4.41371E-14
1.71823E-11 4.41368E-14
1.90386E-11 4.41365E-14
2.09900E-11 4.41362E-14
2.30367E-11 4.41359E-14
2.51785E-11 4.41356E-14
2.74156E-11 4.41352E-14
2.97478E-11 4.41348E-14
3.21752E-11 4.41345E-14
3.46979E-11 4.41341E-14
3.73157E-11 4.41336E-14
4.00286E-11 4.41332E-14
4.28368E-11 4.41328E-14
4.57402E-11 4.41323E-14
4.87388E-11 4.41318E-14
5.18325E-11 4.41314E-14
5.50215E-11 4.41309E-14
5.83057E-11 4.41303E-14
6.16850E-11 4.41298E-14
6.51595E-11 4.41293E-14
6.87293E-11 4.41287E-14
7.23943E-11 4.41281E-14
7.61544E-11 4.41275E-14
1.18991E-10 4.41209E-14
1.71347E-10 4.41127E-14
2.33223E-10 4.41031E-14
3.04617E-10 4.40921E-14
3.85531E-10 4.40796E-14
4.75965E-10 4.40656E-14
5.75917E-10 4.40502E-14
6.85389E-10 4.40333E-14
8.04380E-10 4.40151E-14
9.32891E-10 4.39953E-14
1.07092E-09 4.39741E-14
1.21847E-09 4.39515E-14
1.37554E-09 4.39274E-14
1.54213E-09 4.39020E-14
1.71823E-09 4.38750E-14
1.90386E-09 4.38467E-14
2.09900E-09 4.38169E-14
2.30367E-09 4.37858E-14
2.51785E-09 4.37532E-14
2.74156E-09 4.37193E-14
2.97478E-09 4.36838E-14
3.21752E-09 4.36471E-14
3.46978E-09 4.36089E-14
3.73156E-09 4.35693E-14
4.00286E-09 4.35284E-14
4.28368E-09 4.34860E-14
4.57402E-09 4.34424E-14
4.87388E-09 4.33973E-14
5.18326E-09 4.33510E-14
5.50215E-09 4.33031E-14
5.83057E-09 4.32542E-14
6.16850E-09 4.32036E-14
6.51596E-09 4.31519E-14
6.87293E-09 4.30987E-14
7.23942E-09 4.30444E-14
7.61544E-09 4.29886E-14
1.18991E-08 4.23613E-14
1.71347E-08 4.16122E-14
2.33223E-08 4.07519E-14
3.04617E-08 3.97897E-14
3.85531E-08 3.87086E-14
4.75965E-08 3.75328E-14
5.75917E-08 3.64122E-14
6.85389E-08 3.50874E-14
8.04380E-08 3.38714E-14
9.32891E-08 3.24961E-14
1.07092E-07 3.12097E-14
1.21847E-07 2.98485E-14
1.37554E-07 2.85319E-14
1.54213E-07 2.72200E-14
1.71823E-07 2.59101E-14
1.90386E-07 2.46704E-14
2.09900E-07 2.33981E-14
2.30367E-07 2.22439E-14
2.51785E-07 2.10326E-14
2.74156E-07 1.99526E-14
2.97478E-07 1.88360E-14
3.21752E-07 1.78237E-14
3.46978E-07 1.68187E-14
3.73156E-07 1.58820E-14
4.00286E-07 1.49827E-14
4.28368E-07 1.41248E-14
4.57402E-07 1.33235E-14
4.87388E-07 1.25444E-14
5.18325E-07 1.18326E-14
5.50215E-07 1.11300E-14
5.83057E-07 1.04960E-14
6.16850E-07 9.86910E-15
6.51596E-07 9.29937E-15
6.87293E-07 8.74883E-15
7.23942E-07 8.23931E-15
7.61543E-07 7.75623E-15
1.18991E-06 4.28936E-15
1.71347E-06 2.45140E-15
2.33223E-06 1.45854E-15
3.04617E-06 9.07448E-16
3.85531E-06 5.87871E-16
4.75964E-06 3.96217E-16
5.75916E-06 2.76390E-16
6.85388E-06 1.98717E-16
8.04378E-06 1.46692E-16
9.32888E-06 1.10801E-16
1.07092E-05 8.53730E-17
1.21846E-05 6.69324E-17
1.37553E-05 5.32775E-17
1.54212E-05 4.29774E-17
1.71822E-05 3.50787E-17
1.90385E-05 2.89316E-17
2.09899E-05 2.40861E-17
2.30365E-05 2.02189E-17
2.51783E-05 1.71010E-17
2.74153E-05 1.45636E-17
2.97475E-05 1.24807E-17
3.21749E-05 1.07575E-17
3.46974E-05 9.32161E-18
3.73152E-05 8.11716E-18
4.00281E-05 7.10030E-18
4.28362E-05 6.23720E-18
4.57395E-05 5.50087E-18
4.87380E-05 4.86961E-18
5.18317E-05 4.32592E-18
5.50205E-05 3.85565E-18
5.83045E-05 3.44724E-18
6.16838E-05 3.09112E-18
6.51582E-05 2.77954E-18
6.87277E-05 2.50603E-18
7.23925E-05 2.26516E-18
7.61524E-05 2.05239E-18
9.21439E-05 1.41393E-18
1.09658E-04 1.00459E-18
1.28695E-04 7.32715E-19
1.49255E-04 5.46604E-19
1.71338E-04 4.15833E-19
1.94942E-04 3.21833E-19
2.20070E-04 2.52893E-19
2.46720E-04 2.01426E-19
2.74892E-04 1.62385E-19
3.04586E-04 1.32346E-19
3.35803E-04 1.08931E-19
3.68542E-04 9.04660E-20
4.02802E-04 7.57481E-20
4.38585E-04 6.39015E-20
4.75889E-04 5.42803E-20
5.14715E-04 4.64017E-20
5.55063E-04 3.99007E-20
5.96931E-04 3.44983E-20
6.40321E-04 2.99792E-20
6.85233E-04 2.61758E-20
7.31665E-04 2.29563E-20
7.79618E-04 2.02166E-20
8.29092E-04 1.78733E-20
8.80086E-04 1.58596E-20
9.32601E-04 1.41214E-20
9.86636E-04 1.26148E-20
1.04219E-03 1.13037E-20
1.09927E-03 1.01584E-20
1.15786E-03 9.15451E-21
1.21797E-03 8.27149E-21
1.27961E-03 7.49233E-21
1.34276E-03 6.80272E-21
1.40743E-03 6.19058E-21
1.47362E-03 5.64571E-21
1.54133E-03 5.15944E-21
1.61056E-03 4.72437E-21
1.68131E-03 4.33415E-21
1.75357E-03 3.98333E-21
1.82735E-03 3.66726E-21
1.90265E-03 3.38191E-21
1.97947E-03 3.12375E-21
2.05780E-03 2.88974E-21
2.13765E-03 2.67722E-21
2.21902E-03 2.48386E-21
2.30190E-03 2.30763E-21
2.38630E-03 2.14674E-21
2.47222E-03 1.99962E-21
2.55965E-03 1.86487E-21
2.64859E-03 1.74127E-21
2.73905E-03 1.62774E-21
2.83103E-03 1.52329E-21
2.92452E-03 1.42708E-21
3.01952E-03 1.33834E-21
3.11604E-03 1.25639E-21
3.21407E-03 1.18060E-21
3.31362E-03 1.11044E-21
3.41468E-03 1.04541E-21
3.51725E-03 9.85057E-22
3.62133E-03 9.28996E-22
3.72692E-03 8.76861E-22
3.83403E-03 8.28328E-22
3.94265E-03 7.83103E-22
4.05278E-03 7.40918E-22
4.16442E-03 7.01531E-22
4.27757E-03 6.64724E-22
4.39223E-03 6.30295E-22
4.50840E-03 5.98064E-22
4.62608E-03 5.67864E-22
4.74527E-03 5.39544E-22
4.86597E-03 5.12964E-22
4.98817E-03 4.87998E-22
5.11188E-03 4.64531E-22
5.23711E-03 4.42455E-22
5.36383E-03 4.21673E-22
5.49207E-03 4.02095E-22
5.62181E-03 3.83638E-22
5.75306E-03 3.66227E-22
5.88581E-03 3.49790E-22
6.02007E-03 3.34264E-22
6.15583E-03 3.19588E-22
6.29310E-03 3.05707E-22
6.43187E-03 2.92570E-22
6.57214E-03 2.80130E-22
6.71392E-03 2.68343E-22
6.85720E-03 2.57169E-22
7.00198E-03 2.46569E-22
7.14827E-03 2.36508E-22
7.29605E-03 2.26954E-22
7.44534E-03 2.17877E-22
7.59612E-03 2.09249E-22
7.97965E-03 1.89470E-22
8.37255E-03 1.71970E-22
8.77480E-03 1.56440E-22
9.18641E-03 1.42621E-22
9.60736E-03 1.30292E-22
1.00376E-02 1.19263E-22
1.04773E-02 1.09374E-22
1.09262E-02 1.00487E-22
1.13844E-02 9.24827E-23
1.18520E-02 8.52576E-23
1.23288E-02 7.87226E-23
1.28150E-02 7.28003E-23
1.33104E-02 6.74231E-23
1.38150E-02 6.25320E-23
1.43290E-02 5.80752E-23
1.48521E-02 5.40074E-23
1.53845E-02 5.02885E-23
1.59262E-02 4.68833E-23
1.64770E-02 4.37606E-23
1.70371E-02 4.08928E-23
1.76063E-02 3.82553E-23
1.81848E-02 3.58264E-23
1.87724E-02 3.35866E-23
1.93692E-02 3.15185E-23
1.99751E-02 2.96066E-23
2.05901E-02 2.78370E-23
2.12143E-02 2.61971E-23
2.18476E-02 2.46758E-23
2.24900E-02 2.32629E-23
2.31415E-02 2.19493E-23
2.38021E-02 2.07268E-23
2.44717E-02 1.95878E-23
2.51504E-02 1.85257E-23
2.58382E-02 1.75343E-23
2.65349E-02 1.66080E-23
2.72407E-02 1.57419E-23
2.79555E-02 1.49312E-23
2.86793E-02 1.41718E-23
2.94120E-02 1.34598E-23
3.01537E-02 1.27918E-23
3.09043E-02 1.21645E-23
3.16639E-02 1.15750E-23
3.24324E-02 1.10206E-23
3.32098E-02 1.04988E-23
3.39961E-02 1.00074E-23
3.47912E-02 9.54426E-24
3.55952E-02 9.10744E-24
3.64081E-02 8.69520E-24
3.72297E-02 8.30588E-24
3.80602E-02 7.93799E-24
3.88995E-02 7.59012E-24
3.97476E-02 7.26099E-24
4.06044E-02 6.94939E-24
4.14700E-02 6.65424E-24
4.23443E-02 6.37448E-24
4.32273E-02 6.10919E-24
4.41190E-02 5.85746E-24
4.50194E-02 5.61848E-24
4.59284E-02 5.39148E-24
4.68461E-02 5.17576E-24
4.87074E-02 4.77551E-24
5.06030E-02 4.41296E-24
5.25328E-02 4.08393E-24
5.44967E-02 3.78478E-24
5.64946E-02 3.51233E-24
5.85262E-02 3.26377E-24
6.05914E-02 3.03664E-24
6.26901E-02 2.82877E-24
6.48222E-02 2.63823E-24
6.69873E-02 2.46334E-24
6.91854E-02 2.30257E-24
7.14163E-02 2.15459E-24
7.36799E-02 2.01819E-24
7.59760E-02 1.89232E-24
7.83043E-02 1.77600E-24
8.06647E-02 1.66840E-24
8.30571E-02 1.56874E-24
8.54812E-02 1.47634E-24
8.79369E-02 1.39056E-24
9.04240E-02 1.31085E-24
9.29422E-02 1.23670E-24
9.54915E-02 1.16766E-24
9.80716E-02 1.10332E-24
1.00682E-01 1.04328E-24
1.03323E-01 9.87228E-25
1.05995E-01 9.34837E-25
1.08696E-01 8.85828E-25
1.11427E-01 8.39944E-25
1.14188E-01 7.96950E-25
1.16978E-01 7.56632E-25
1.19797E-01 7.18793E-25
1.22645E-01 6.83254E-25
1.25522E-01 6.49849E-25
1.28428E-01 6.18429E-25
1.31361E-01 5.88853E-25
1.34323E-01 5.60994E-25
1.37313E-01 5.34735E-25
1.40330E-01 5.09967E-25
1.43375E-01 4.86590E-25
1.46447E-01 4.64513E-25
1.49545E-01 4.43650E-25
1.52671E-01 4.23922E-25
1.55823E-01 4.05257E-25
1.59001E-01 3.87587E-25
1.62205E-01 3.70849E-25
1.65435E-01 3.54986E-25
1.68690E-01 3.39944E-25
1.71970E-01 3.25672E-25
1.75276E-01 3.12125E-25
1.78606E-01 2.99258E-25
1.81961E-01 2.87032E-25
1.85340E-01 2.75408E-25
1.88743E-01 2.64353E-25
1.92169E-01 2.53832E-25
1.95619E-01 2.43816E-25
1.99092E-01 2.34276E-25
2.02589E-01 2.25186E-25
2.06107E-01 2.16520E-25
2.09649E-01 2.08255E-25
2.13212E-01 2.00370E-25
2.16797E-01 1.92843E-25
2.20404E-01 1.85656E-25
2.24032E-01 1.78790E-25
2.27680E-01 1.72229E-25
2.31350E-01 1.65956E-25
2.35040E-01 1.59957E-25
2.38751E-01 1.54218E-25
2.42481E-01 1.48725E-25
2.46231E-01 1.43466E-25
2.50000E-01 1.38430E-25
2.53788E-01 1.33604E-25
2.57595E-01 1.28979E-25
2.61421E-01 1.24545E-25
2.65264E-01 1.20293E-25
2.69126E-01 1.16214E-25
2.73005E-01 1.12299E-25
2.76901E-01 1.08541E-25
2.80814E-01 1.04932E-25
2.84744E-01 1.01466E-25
2.88691E-01 9.81360E-26
2.92653E-01 9.49352E-26
2.96632E-01 9.18581E-26
3.00625E-01 8.88990E-26
3.04634E-01 8.60527E-26
3.08658E-01 8.33139E-26
3.12697E-01 8.06781E-26
3.16749E-01 7.81406E-26
3.20816E-01 7.56971E-26
3.24896E-01 7.33435E-26
3.28990E-01 7.10760E-26
3.33097E-01 6.88908E-26
3.37216E-01 6.67845E-26
3.41348E-01 6.47537E-26
3.45492E-01 6.27952E-26
3.49647E-01 6.09061E-26
3.53814E-01 5.90833E-26
3.57992E-01 5.73243E-26
3.62181E-01 5.56263E-26
3.66381E-01 5.39869E-26
3.70590E-01 5.24037E-26
3.74810E-01 5.08745E-26
3.79039E-01 4.93972E-26
3.83277E-01 4.79695E-26
3.87524E-01 4.65897E-26
3.91780E-01 4.52557E-26
3.96044E-01 4.39659E-26
4.00316E-01 4.27186E-26
4.04596E-01 4.15120E-26
4.08882E-01 4.03446E-26
4.13176E-01 3.92150E-26
4.17476E-01 3.81216E-26
4.21783E-01 3.70632E-26
4.26095E-01 3.60385E-26
4.30413E-01 3.50461E-26
4.34737E-01 3.40850E-26
4.39065E-01 3.31538E-26
4.43398E-01 3.22517E-26
4.47736E-01 3.13774E-26
4.52077E-01 3.05300E-26
4.56422E-01 2.97086E-26
4.60770E-01 2.89121E-26
4.65122E-01 2.81398E-26
4.69476E-01 2.73907E-26
4.73832E-01 2.66641E-26
4.78190E-01 2.59591E-26
4.82550E-01 2.52751E-26
4.86912E-01 2.46112E-26
4.91274E-01 2.39669E-26
4.95637E-01 2.33413E-26
5.00000E-01 2.27340E-26
5.04363E-01 2.21442E-26
5.08726E-01 2.15714E-26
5.13088E-01 2.10151E-26
5.17450E-01 2.04746E-26
5.21810E-01 1.99494E-26
5.26168E-01 1.94391E-26
5.30524E-01 1.89431E-26
5.34878E-01 1.84610E-26
5.39230E-01 1.79923E-26
5.43578E-01 1.75367E-26
5.47923E-01 1.70936E-26
5.52264E-01 1.66627E-26
5.56602E-01 1.62436E-26
5.60935E-01 1.58359E-26
5.65263E-01 1.54393E-26
5.69587E-01 1.50534E-26
5.73905E-01 1.46778E-26
5.78217E-01 1.43123E-26
5.82524E-01 1.39566E-26
5.86824E-01 1.36103E-26
5.91118E-01 1.32732E-26
5.95404E-01 1.29449E-26
5.99684E-01 1.26253E-26
6.03956E-01 1.23140E-26
6.08220E-01 1.20108E-26
6.12476E-01 1.17154E-26
6.16723E-01 1.14277E-26
6.20961E-01 1.11474E-26
6.25190E-01 1.08742E-26
6.29410E-01 1.06080E-26
6.33619E-01 1.03486E-26
6.37819E-01 1.00958E-26
6.42008E-01 9.84930E-27
6.46186E-01 9.60903E-27
6.50353E-01 9.37477E-27
6.54508E-01 9.14635E-27
6.58652E-01 8.92361E-27
6.62784E-01 8.70639E-27
6.66903E-01 8.49453E-27
6.71010E-01 8.28789E-27
6.75104E-01 8.08631E-27
6.79184E-01 7.88965E-27
6.83251E-01 7.69778E-27
6.87303E-01 7.51057E-27
6.91342E-01 7.32789E-27
6.95366E-01 7.14962E-27
6.99375E-01 6.97563E-27
7.03368E-01 6.80581E-27
7.07347E-01 6.64004E-27
7.11309E-01 6.47823E-27
7.15256E-01 6.32026E-27
7.19186E-01 6.16603E-27
7.23099E-01 6.01543E-27
7.26995E-01 5.86839E-27
7.30874E-01 5.72480E-27
7.34736E-01 5.58456E-27
7.38579E-01 5.44761E-27
7.42405E-01 5.31384E-27
7.46212E-01 5.18318E-27
7.50000E-01 5.05555E-27
7.53769E-01 4.93086E-27
7.57519E-01 4.80905E-27
7.61249E-01 4.69004E-27
7.64960E-01 4.57377E-27
7.68650E-01 4.46015E-27
7.72320E-01 4.34913E-27
7.75968E-01 4.24065E-27
7.79596E-01 4.13463E-27
7.83203E-01 4.03101E-27
7.86788E-01 3.92975E-27
7.90351E-01 3.83078E-27
7.93893E-01 3.73404E-27
7.97411E-01 3.63948E-27
8.00908E-01 3.54705E-27
8.04381E-01 3.45669E-27
8.07831E-01 3.36837E-27
8.11257E-01 3.28202E-27
8.14660E-01 3.19760E-27
8.18039E-01 3.11507E-27
8.21394E-01 3.03438E-27
8.24724E-01 2.95549E-27
8.28030E-01 2.87836E-27
8.31310E-01 2.80295E-27
8.34565E-01 2.72921E-27
8.37795E-01 2.65711E-27
8.40999E-01 2.58661E-27
8.44177E-01 2.51767E-27
8.47329E-01 2.45027E-27
8.50455E-01 2.38436E-27
8.53553E-01 2.31991E-27
8.56625E-01 2.25690E-27
8.59670E-01 2.19528E-27
8.62687E-01 2.13503E-27
8.65677E-01 2.07611E-27
8.68639E-01 2.01850E-27
8.71572E-01 1.96218E-27
8.74478E-01 1.90710E-27
8.77355E-01 1.85326E-27
8.80203E-01 1.80061E-27
8.83022E-01 1.74913E-27
8.85812E-01 1.69881E-27
8.88573E-01 1.64961E-27
8.91304E-01 1.60152E-27
8.94005E-01 1.55450E-27
8.96677E-01 1.50854E-27
8.99318E-01 1.46362E-27
9.01928E-01 1.41972E-27
9.04508E-01 1.37681E-27
9.07058E-01 1.33488E-27
9.09576E-01 1.29390E-27
9.12063E-01 1.25386E-27
9.14519E-01 1.21474E-27
9.16943E-01 1.17652E-27
9.19335E-01 1.13919E-27
9.21696E-01 1.10272E-27
9.24024E-01 1.06711E-27
9.26320E-01 1.03233E-27
9.28584E-01 9.98376E-28
9.30815E-01 9.65224E-28
9.33013E-01 9.32863E-28
9.35178E-01 9.01279E-28
9.37310E-01 8.70458E-28
9.39409E-01 8.40387E-28
9.41474E-01 8.11053E-28
9.43505E-01 7.82442E-28
9.45503E-01 7.54543E-28
9.47467E-01 7.27344E-28
9.49397E-01 7.00833E-28
9.51293E-01 6.74999E-28
9.53154E-01 6.49831E-28
9.54981E-01 6.25318E-28
9.56773E-01 6.01451E-28
9.58530E-01 5.78218E-28
9.60252E-01 5.55611E-28
9.61940E-01 5.33620E-28
9.63592E-01 5.12235E-28
9.65209E-01 4.91448E-28
9.66790E-01 4.71251E-28
9.68336E-01 4.51635E-28
9.69846E-01 4.32592E-28
9.71321E-01 4.14113E-28
9.72759E-01 3.96193E-28
9.74162E-01 3.78823E-28
9.75528E-01 3.61996E-28
9.76858E-01 3.45705E-28
9.78152E-01 3.29945E-28
9.79410E-01 3.14708E-28
9.80631E-01 2.99988E-28
9.81815E-01 2.85780E-28
9.82963E-01 2.72077E-28
9.84074E-01 2.58875E-28
9.85148E-01 2.46168E-28
9.86185E-01 2.33950E-28
9.87185E-01 2.22218E-28
9.88148E-01 2.10966E-28
9.89074E-01 2.00190E-28
9.89962E-01 1.89886E-28
9.90814E-01 1.80050E-28
9.91627E-01 1.70677E-28
9.92404E-01 1.61765E-28
9.93143E-01 1.53309E-28
9.93844E-01 1.45306E-28
9.94508E-01 1.37753E-28
9.95134E-01 1.30648E-28
9.95722E-01 1.23987E-28
9.96273E-01 1.17768E-28
9.96786E-01 1.11988E-28
9.97261E-01 1.06645E-28
9.97698E-01 1.01737E-28
9.98097E-01 9.72625E-29
9.98459E-01 9.32193E-29
9.98782E-01 8.96059E-29
9.99067E-01 8.64208E-29
9.99315E-01 8.36629E-29
9.99524E-01 8.13312E-29
9.99695E-01 7.94245E-29
9.99829E-01 7.79425E-29
9.99924E-01 7.68840E-29
9.99981E-01 7.62497E-29
1.00000E+00 7.60375E-29
