 #
 # Subroutine ELSEPA. Elastic scattering of electrons and positrons
 #                    by neutral atoms and positive ions
 #
 # Projectile: positron
 # Kinetic energy = 6.00000E+08 eV = 2.20496E+07 a.u.
 #
 # WARNING: High-energy factorization with free-atom DF screening.
 #          Absorption, polarization and exchange corrections are
 #          switched off.
 #          Phase shifts are calculated for the bare nucleus.
 #          Scattering amplitudes are not evaluated.
 #
 # Element: Ne,  Z =  10,  atomic weight = 2.01797E+01 g/mol
 #
 # Nuclear model: Fermi distribution
 #                Average radius = 2.91310E-13 cm
 #                Skin thickness = 5.46000E-14 cm
 #
 # Number of electrons = 10
 #
 # Total elastic cross section = 2.93214E-19 cm**2 = 1.04709E-02 a0**2
 # 1st transport cross section = 6.10862E-28 cm**2 = 2.18143E-11 a0**2
 # 2nd transport cross section = 1.83167E-27 cm**2 = 6.54102E-11 a0**2
 #
 #
 # Differential cross section:                       MU=(1-COS(THETA))/2
 #
 #  THETA        MU          DCS          DCS        Sherman      error
 #  (deg)                 (cm**2/sr)   (a0**2/sr)    function
 #----------------------------------------------------------------------
0.00000E+00 3.75471E-10
7.61557E-13 3.67072E-10
1.18994E-12 3.62474E-10
1.71346E-12 3.56964E-10
2.33225E-12 3.50608E-10
3.04617E-12 3.43478E-10
3.85530E-12 3.35648E-10
4.75964E-12 3.26720E-10
5.75917E-12 3.17577E-10
6.85391E-12 3.08564E-10
8.04379E-12 2.98193E-10
9.32893E-12 2.88616E-10
1.07092E-11 2.77864E-10
1.21847E-11 2.67575E-10
1.37554E-11 2.57193E-10
1.54213E-11 2.46474E-10
1.71823E-11 2.36664E-10
1.90386E-11 2.25800E-10
2.09900E-11 2.16025E-10
2.30367E-11 2.05908E-10
2.51785E-11 1.96255E-10
2.74156E-11 1.87038E-10
2.97478E-11 1.77689E-10
3.21752E-11 1.69277E-10
3.46979E-11 1.60436E-10
3.73157E-11 1.52417E-10
4.00286E-11 1.44535E-10
4.28368E-11 1.36991E-10
4.57402E-11 1.29978E-10
4.87388E-11 1.22958E-10
5.18325E-11 1.16607E-10
5.50215E-11 1.10247E-10
5.83057E-11 1.04381E-10
6.16850E-11 9.87758E-11
6.51595E-11 9.33982E-11
6.87293E-11 8.84529E-11
7.23943E-11 8.35541E-11
7.61544E-11 7.90897E-11
1.18991E-10 4.54233E-11
1.71347E-10 2.66885E-11
2.33223E-10 1.62024E-11
3.04617E-10 1.02036E-11
3.85531E-10 6.67601E-12
4.75965E-10 4.51365E-12
5.75917E-10 3.15655E-12
6.85389E-10 2.27164E-12
8.04380E-10 1.67698E-12
9.32891E-10 1.26615E-12
1.07092E-09 9.75041E-13
1.21847E-09 7.64022E-13
1.37554E-09 6.07885E-13
1.54213E-09 4.90211E-13
1.71823E-09 4.00040E-13
1.90386E-09 3.29930E-13
2.09900E-09 2.74693E-13
2.30367E-09 2.30655E-13
2.51785E-09 1.95167E-13
2.74156E-09 1.66291E-13
2.97478E-09 1.42589E-13
3.21752E-09 1.22976E-13
3.46978E-09 1.06629E-13
3.73156E-09 9.29110E-14
4.00286E-09 8.13289E-14
4.28368E-09 7.14939E-14
4.57402E-09 6.30980E-14
4.87388E-09 5.58954E-14
5.18326E-09 4.96880E-14
5.50215E-09 4.43151E-14
5.83057E-09 3.96458E-14
6.16850E-09 3.55723E-14
6.51596E-09 3.20055E-14
6.87293E-09 2.88724E-14
7.23942E-09 2.61113E-14
7.61544E-09 2.36707E-14
1.18991E-08 9.90489E-15
1.71347E-08 4.82732E-15
2.33223E-08 2.62018E-15
3.04617E-08 1.54067E-15
3.85531E-08 9.63593E-16
4.75965E-08 6.32926E-16
5.75917E-08 4.32612E-16
6.85389E-08 3.05601E-16
8.04380E-08 2.21948E-16
9.32891E-08 1.65049E-16
1.07092E-07 1.25266E-16
1.21847E-07 9.67771E-17
1.37554E-07 7.59446E-17
1.54213E-07 6.04273E-17
1.71823E-07 4.86779E-17
1.90386E-07 3.96501E-17
2.09900E-07 3.26205E-17
2.30367E-07 2.70819E-17
2.51785E-07 2.26704E-17
2.74156E-07 1.91217E-17
2.97478E-07 1.62409E-17
3.21752E-07 1.38828E-17
3.46978E-07 1.19376E-17
3.73156E-07 1.03214E-17
4.00286E-07 8.96970E-18
4.28368E-07 7.83221E-18
4.57402E-07 6.86945E-18
4.87388E-07 6.05017E-18
5.18325E-07 5.34947E-18
5.50215E-07 4.74733E-18
5.83057E-07 4.22758E-18
6.16850E-07 3.77705E-18
6.51596E-07 3.38497E-18
6.87293E-07 3.04246E-18
7.23942E-07 2.74220E-18
7.61543E-07 2.47809E-18
1.18991E-06 1.01498E-18
1.71347E-06 4.89458E-19
2.33223E-06 2.64185E-19
3.04617E-06 1.54853E-19
3.85531E-06 9.66696E-20
4.75964E-06 6.34219E-20
5.75916E-06 4.33160E-20
6.85388E-06 3.05825E-20
8.04378E-06 2.22026E-20
9.32888E-06 1.65061E-20
1.07092E-05 1.25248E-20
1.21846E-05 9.67464E-21
1.37553E-05 7.59099E-21
1.54212E-05 6.03925E-21
1.71822E-05 4.86450E-21
1.90385E-05 3.96189E-21
2.09899E-05 3.25934E-21
2.30365E-05 2.70583E-21
2.51783E-05 2.26496E-21
2.74153E-05 1.91031E-21
2.97475E-05 1.62243E-21
3.21749E-05 1.38678E-21
3.46974E-05 1.19240E-21
3.73152E-05 1.03091E-21
4.00281E-05 8.95866E-22
4.28362E-05 7.82223E-22
4.57395E-05 6.86041E-22
4.87380E-05 6.04195E-22
5.18317E-05 5.34195E-22
5.50205E-05 4.74043E-22
5.83045E-05 4.22123E-22
6.16838E-05 3.77120E-22
6.51582E-05 3.37956E-22
6.87277E-05 3.03747E-22
7.23925E-05 2.73758E-22
7.61524E-05 2.45454E-22
9.21439E-05 1.67333E-22
1.09658E-04 1.17905E-22
1.28695E-04 8.54122E-23
1.49255E-04 6.33491E-23
1.71338E-04 4.79485E-23
1.94942E-04 3.69380E-23
2.20070E-04 2.88999E-23
2.46720E-04 2.29228E-23
2.74892E-04 1.84050E-23
3.04586E-04 1.49399E-23
3.35803E-04 1.22471E-23
3.68542E-04 1.01296E-23
4.02802E-04 8.44628E-24
4.38585E-04 7.09501E-24
4.75889E-04 6.00047E-24
5.14715E-04 5.10652E-24
5.55063E-04 4.37081E-24
5.96931E-04 3.76105E-24
6.40321E-04 3.25237E-24
6.85233E-04 2.82541E-24
7.31665E-04 2.46503E-24
7.79618E-04 2.15921E-24
8.29092E-04 1.89842E-24
8.80086E-04 1.67498E-24
9.32601E-04 1.48271E-24
9.86636E-04 1.31658E-24
1.04219E-03 1.17248E-24
1.09927E-03 1.04702E-24
1.15786E-03 9.37424E-25
1.21797E-03 8.41365E-25
1.27961E-03 7.56910E-25
1.34276E-03 6.82437E-25
1.40743E-03 6.16583E-25
1.47362E-03 5.58194E-25
1.54133E-03 5.06292E-25
1.61056E-03 4.60045E-25
1.68131E-03 4.18741E-25
1.75357E-03 3.81771E-25
1.82735E-03 3.48609E-25
1.90265E-03 3.18803E-25
1.97947E-03 2.91963E-25
2.05780E-03 2.67747E-25
2.13765E-03 2.45860E-25
2.21902E-03 2.26045E-25
2.30190E-03 2.08077E-25
2.38630E-03 1.91756E-25
2.47222E-03 1.76911E-25
2.55965E-03 1.63388E-25
2.64859E-03 1.51051E-25
2.73905E-03 1.39782E-25
2.83103E-03 1.29476E-25
2.92452E-03 1.20037E-25
3.01952E-03 1.11382E-25
3.11604E-03 1.03438E-25
3.21407E-03 9.61373E-26
3.31362E-03 8.94209E-26
3.41468E-03 8.32355E-26
3.51725E-03 7.75334E-26
3.62133E-03 7.22717E-26
3.72692E-03 6.74118E-26
3.83403E-03 6.29190E-26
3.94265E-03 5.87619E-26
4.05278E-03 5.49121E-26
4.16442E-03 5.13439E-26
4.27757E-03 4.80342E-26
4.39223E-03 4.49618E-26
4.50840E-03 4.21076E-26
4.62608E-03 3.94541E-26
4.74527E-03 3.69856E-26
4.86597E-03 3.46876E-26
4.98817E-03 3.25469E-26
5.11188E-03 3.05514E-26
5.23711E-03 2.86902E-26
5.36383E-03 2.69532E-26
5.49207E-03 2.53311E-26
5.62181E-03 2.38156E-26
5.75306E-03 2.23988E-26
5.88581E-03 2.10736E-26
6.02007E-03 1.98334E-26
6.15583E-03 1.86723E-26
6.29310E-03 1.75846E-26
6.43187E-03 1.65653E-26
6.57214E-03 1.56095E-26
6.71392E-03 1.47130E-26
6.85720E-03 1.38718E-26
7.00198E-03 1.30820E-26
7.14827E-03 1.23403E-26
7.29605E-03 1.16434E-26
7.44534E-03 1.09884E-26
7.59612E-03 1.03726E-26
7.97965E-03 8.98801E-27
8.37255E-03 7.79768E-27
8.77480E-03 6.77235E-27
9.18641E-03 5.88758E-27
9.60736E-03 5.12284E-27
1.00376E-02 4.46086E-27
1.04773E-02 3.88702E-27
1.09262E-02 3.38897E-27
1.13844E-02 2.95619E-27
1.18520E-02 2.57974E-27
1.23288E-02 2.25198E-27
1.28150E-02 1.96635E-27
1.33104E-02 1.71727E-27
1.38150E-02 1.49990E-27
1.43290E-02 1.31009E-27
1.48521E-02 1.14427E-27
1.53845E-02 9.99342E-28
1.59262E-02 8.72629E-28
1.64770E-02 7.61810E-28
1.70371E-02 6.64871E-28
1.76063E-02 5.80062E-28
1.81848E-02 5.05859E-28
1.87724E-02 4.40936E-28
1.93692E-02 3.84135E-28
1.99751E-02 3.34447E-28
2.05901E-02 2.90989E-28
2.12143E-02 2.52989E-28
2.18476E-02 2.19773E-28
2.24900E-02 1.90750E-28
2.31415E-02 1.65401E-28
2.38021E-02 1.43273E-28
2.44717E-02 1.23967E-28
2.51504E-02 1.07135E-28
2.58382E-02 9.24707E-29
2.65349E-02 7.97043E-29
2.72407E-02 6.85999E-29
2.79555E-02 5.89505E-29
2.86793E-02 5.05738E-29
2.94120E-02 4.33101E-29
3.01537E-02 3.70190E-29
3.09043E-02 3.15773E-29
3.16639E-02 2.68769E-29
3.24324E-02 2.28229E-29
3.32098E-02 1.93321E-29
3.39961E-02 1.63313E-29
3.47912E-02 1.37567E-29
3.55952E-02 1.15522E-29
3.64081E-02 9.66871E-30
3.72297E-02 8.06325E-30
3.80602E-02 6.69830E-30
3.88995E-02 5.54104E-30
3.97476E-02 4.56284E-30
4.06044E-02 3.73871E-30
4.14700E-02 3.04692E-30
4.23443E-02 2.46852E-30
4.32273E-02 1.98706E-30
4.41190E-02 1.58827E-30
4.50194E-02 1.25977E-30
4.59284E-02 9.90854E-31
4.68461E-02 7.72280E-31
4.87074E-02 4.55379E-31
5.06030E-02 2.57815E-31
5.25328E-02 1.41995E-31
5.44967E-02 8.06478E-32
5.64946E-02 5.42582E-32
5.85262E-02 4.90929E-32
6.05914E-02 5.56935E-32
6.26901E-02 6.77287E-32
6.48222E-02 8.11247E-32
6.69873E-02 9.34126E-32
6.91854E-02 1.03241E-31
7.14163E-02 1.10015E-31
7.36799E-02 1.13635E-31
7.59760E-02 1.14309E-31
7.83043E-02 1.12415E-31
8.06647E-02 1.08411E-31
8.30571E-02 1.02774E-31
8.54812E-02 9.59600E-32
8.79369E-02 8.83810E-32
9.04240E-02 8.03926E-32
9.29422E-02 7.22905E-32
9.54915E-02 6.43110E-32
9.80716E-02 5.66349E-32
1.00682E-01 4.93939E-32
1.03323E-01 4.26769E-32
1.05995E-01 3.65373E-32
1.08696E-01 3.09994E-32
1.11427E-01 2.60643E-32
1.14188E-01 2.17160E-32
1.16978E-01 1.79257E-32
1.19797E-01 1.46557E-32
1.22645E-01 1.18630E-32
1.25522E-01 9.50171E-33
1.28428E-01 7.52534E-33
1.31361E-01 5.88815E-33
1.34323E-01 4.54641E-33
1.37313E-01 3.45921E-33
1.40330E-01 2.58890E-33
1.43375E-01 1.90141E-33
1.46447E-01 1.36633E-33
1.49545E-01 9.56844E-34
1.52671E-01 6.49627E-34
1.55823E-01 4.24598E-34
1.59001E-01 2.64679E-34
1.62205E-01 1.55506E-34
1.65435E-01 8.51499E-35
1.68690E-01 4.38180E-35
1.71970E-01 2.35813E-35
1.75276E-01 1.81118E-35
1.78606E-01 2.24420E-35
1.81961E-01 3.27460E-35
1.85340E-01 4.61443E-35
1.88743E-01 6.05327E-35
1.92169E-01 7.44307E-35
1.95619E-01 8.68530E-35
1.99092E-01 9.72010E-35
2.02589E-01 1.05171E-34
2.06107E-01 1.10677E-34
2.09649E-01 1.13791E-34
2.13212E-01 1.14691E-34
2.16797E-01 1.13622E-34
2.20404E-01 1.10868E-34
2.24032E-01 1.06723E-34
2.27680E-01 1.01482E-34
2.31350E-01 9.54210E-35
2.35040E-01 8.87954E-35
2.38751E-01 8.18322E-35
2.42481E-01 7.47268E-35
2.46231E-01 6.76440E-35
2.50000E-01 6.07205E-35
2.53788E-01 5.40617E-35
2.57595E-01 4.77502E-35
2.61421E-01 4.18426E-35
2.65264E-01 3.63785E-35
2.69126E-01 3.13781E-35
2.73005E-01 2.68479E-35
2.76901E-01 2.27836E-35
2.80814E-01 1.91706E-35
2.84744E-01 1.59881E-35
2.88691E-01 1.32097E-35
2.92653E-01 1.08062E-35
2.96632E-01 8.74581E-36
3.00625E-01 6.99667E-36
3.04634E-01 5.52612E-36
3.08658E-01 4.30290E-36
3.12697E-01 3.29683E-36
3.16749E-01 2.47978E-36
3.20816E-01 1.82537E-36
3.24896E-01 1.30976E-36
3.28990E-01 9.10982E-37
3.33097E-01 6.09700E-37
3.37216E-01 3.88589E-37
3.41348E-01 2.32599E-37
3.45492E-01 1.28546E-37
3.49647E-01 6.52338E-38
3.53814E-01 3.31244E-38
3.57992E-01 2.42267E-38
3.62181E-01 3.19399E-38
3.66381E-01 5.08747E-38
3.70590E-01 7.67312E-38
3.74810E-01 1.06075E-37
3.79039E-01 1.36340E-37
3.83277E-01 1.65575E-37
3.87524E-01 1.92379E-37
3.91780E-01 2.15855E-37
3.96044E-01 2.35383E-37
4.00316E-01 2.50762E-37
4.04596E-01 2.61889E-37
4.08882E-01 2.68875E-37
4.13176E-01 2.72041E-37
4.17476E-01 2.71667E-37
4.21783E-01 2.68148E-37
4.26095E-01 2.61893E-37
4.30413E-01 2.53375E-37
4.34737E-01 2.42942E-37
4.39065E-01 2.31085E-37
4.43398E-01 2.18096E-37
4.47736E-01 2.04357E-37
4.52077E-01 1.90209E-37
4.56422E-01 1.75858E-37
4.60770E-01 1.61580E-37
4.65122E-01 1.47557E-37
4.69476E-01 1.33948E-37
4.73832E-01 1.20911E-37
4.78190E-01 1.08507E-37
4.82550E-01 9.68224E-38
4.86912E-01 8.58962E-38
4.91274E-01 7.57651E-38
4.95637E-01 6.64491E-38
5.00000E-01 5.79056E-38
5.04363E-01 5.01806E-38
5.08726E-01 4.31813E-38
5.13088E-01 3.69198E-38
5.17450E-01 3.13391E-38
5.21810E-01 2.63967E-38
5.26168E-01 2.20605E-38
5.30524E-01 1.82735E-38
5.34878E-01 1.49913E-38
5.39230E-01 1.21664E-38
5.43578E-01 9.76309E-39
5.47923E-01 7.73489E-39
5.52264E-01 6.03351E-39
5.56602E-01 4.62903E-39
5.60935E-01 3.47669E-39
5.65263E-01 2.55059E-39
5.69587E-01 1.81647E-39
5.73905E-01 1.24623E-39
5.78217E-01 8.14745E-40
5.82524E-01 4.99036E-40
5.86824E-01 1.00000E-45
5.91118E-01 1.00000E-45
5.95404E-01 1.00000E-45
5.99684E-01 1.00000E-45
6.03956E-01 1.00000E-45
6.08220E-01 1.00000E-45
6.12476E-01 1.00000E-45
6.16723E-01 1.00000E-45
6.20961E-01 1.00000E-45
6.25190E-01 1.00000E-45
6.29410E-01 1.00000E-45
6.33619E-01 1.00000E-45
6.37819E-01 1.00000E-45
6.42008E-01 1.00000E-45
6.46186E-01 1.00000E-45
6.50353E-01 1.00000E-45
6.54508E-01 1.00000E-45
6.58652E-01 1.00000E-45
6.62784E-01 1.00000E-45
6.66903E-01 1.00000E-45
6.71010E-01 1.00000E-45
6.75104E-01 1.00000E-45
6.79184E-01 1.00000E-45
6.83251E-01 1.00000E-45
6.87303E-01 1.00000E-45
6.91342E-01 1.00000E-45
6.95366E-01 1.00000E-45
6.99375E-01 1.00000E-45
7.03368E-01 1.00000E-45
7.07347E-01 1.00000E-45
7.11309E-01 1.00000E-45
7.15256E-01 1.00000E-45
7.19186E-01 1.00000E-45
7.23099E-01 1.00000E-45
7.26995E-01 1.00000E-45
7.30874E-01 1.00000E-45
7.34736E-01 1.00000E-45
7.38579E-01 1.00000E-45
7.42405E-01 1.00000E-45
7.46212E-01 1.00000E-45
7.50000E-01 1.00000E-45
7.53769E-01 1.00000E-45
7.57519E-01 1.00000E-45
7.61249E-01 1.00000E-45
7.64960E-01 1.00000E-45
7.68650E-01 1.00000E-45
7.72320E-01 1.00000E-45
7.75968E-01 1.00000E-45
7.79596E-01 1.00000E-45
7.83203E-01 1.00000E-45
7.86788E-01 1.00000E-45
7.90351E-01 1.00000E-45
7.93893E-01 1.00000E-45
7.97411E-01 1.00000E-45
8.00908E-01 1.00000E-45
8.04381E-01 1.00000E-45
8.07831E-01 1.00000E-45
8.11257E-01 1.00000E-45
8.14660E-01 1.00000E-45
8.18039E-01 1.00000E-45
8.21394E-01 1.00000E-45
8.24724E-01 1.00000E-45
8.28030E-01 1.00000E-45
8.31310E-01 1.00000E-45
8.34565E-01 1.00000E-45
8.37795E-01 1.00000E-45
8.40999E-01 1.00000E-45
8.44177E-01 1.00000E-45
8.47329E-01 1.00000E-45
8.50455E-01 1.00000E-45
8.53553E-01 1.00000E-45
8.56625E-01 1.00000E-45
8.59670E-01 1.00000E-45
8.62687E-01 1.00000E-45
8.65677E-01 1.00000E-45
8.68639E-01 1.00000E-45
8.71572E-01 1.00000E-45
8.74478E-01 1.00000E-45
8.77355E-01 1.00000E-45
8.80203E-01 1.00000E-45
8.83022E-01 1.00000E-45
8.85812E-01 1.00000E-45
8.88573E-01 1.00000E-45
8.91304E-01 1.00000E-45
8.94005E-01 1.00000E-45
8.96677E-01 1.00000E-45
8.99318E-01 1.00000E-45
9.01928E-01 1.00000E-45
9.04508E-01 1.00000E-45
9.07058E-01 1.00000E-45
9.09576E-01 1.00000E-45
9.12063E-01 1.00000E-45
9.14519E-01 1.00000E-45
9.16943E-01 1.00000E-45
9.19335E-01 1.00000E-45
9.21696E-01 1.00000E-45
9.24024E-01 1.00000E-45
9.26320E-01 1.00000E-45
9.28584E-01 1.00000E-45
9.30815E-01 1.00000E-45
9.33013E-01 1.00000E-45
9.35178E-01 1.00000E-45
9.37310E-01 1.00000E-45
9.39409E-01 1.00000E-45
9.41474E-01 1.00000E-45
9.43505E-01 1.00000E-45
9.45503E-01 1.00000E-45
9.47467E-01 1.00000E-45
9.49397E-01 1.00000E-45
9.51293E-01 1.00000E-45
9.53154E-01 1.00000E-45
9.54981E-01 1.00000E-45
9.56773E-01 1.00000E-45
9.58530E-01 1.00000E-45
9.60252E-01 1.00000E-45
9.61940E-01 1.00000E-45
9.63592E-01 1.00000E-45
9.65209E-01 1.00000E-45
9.66790E-01 1.00000E-45
9.68336E-01 1.00000E-45
9.69846E-01 1.00000E-45
9.71321E-01 1.00000E-45
9.72759E-01 1.00000E-45
9.74162E-01 1.00000E-45
9.75528E-01 1.00000E-45
9.76858E-01 1.00000E-45
9.78152E-01 1.00000E-45
9.79410E-01 1.00000E-45
9.80631E-01 1.00000E-45
9.81815E-01 1.00000E-45
9.82963E-01 1.00000E-45
9.84074E-01 1.00000E-45
9.85148E-01 1.00000E-45
9.86185E-01 1.00000E-45
9.87185E-01 1.00000E-45
9.88148E-01 1.00000E-45
9.89074E-01 1.00000E-45
9.89962E-01 1.00000E-45
9.90814E-01 1.00000E-45
9.91627E-01 1.00000E-45
9.92404E-01 1.00000E-45
9.93143E-01 1.00000E-45
9.93844E-01 1.00000E-45
9.94508E-01 1.00000E-45
9.95134E-01 1.00000E-45
9.95722E-01 1.00000E-45
9.96273E-01 1.00000E-45
9.96786E-01 1.00000E-45
9.97261E-01 1.00000E-45
9.97698E-01 1.00000E-45
9.98097E-01 1.00000E-45
9.98459E-01 1.00000E-45
9.98782E-01 1.00000E-45
9.99067E-01 1.00000E-45
9.99315E-01 1.00000E-45
9.99524E-01 1.00000E-45
9.99695E-01 1.00000E-45
9.99829E-01 1.00000E-45
9.99924E-01 1.00000E-45
9.99981E-01 1.00000E-45
1.00000E+00 1.00000E-45
