 #
 # Subroutine ELSEPA. Elastic scattering of electrons and positrons
 #                    by neutral atoms and positive ions
 #
 # Projectile: positron
 # Kinetic energy = 3.50000E+08 eV = 1.28623E+07 a.u.
 #
 # WARNING: High-energy factorization with free-atom DF screening.
 #          Absorption, polarization and exchange corrections are
 #          switched off.
 #          Phase shifts are calculated for the bare nucleus.
 #          Scattering amplitudes are not evaluated.
 #
 # Element: Ne,  Z =  10,  atomic weight = 2.01797E+01 g/mol
 #
 # Nuclear model: Fermi distribution
 #                Average radius = 2.91310E-13 cm
 #                Skin thickness = 5.46000E-14 cm
 #
 # Number of electrons = 10
 #
 # Total elastic cross section = 2.93115E-19 cm**2 = 1.04673E-02 a0**2
 # 1st transport cross section = 1.78998E-27 cm**2 = 6.39213E-11 a0**2
 # 2nd transport cross section = 5.36215E-27 cm**2 = 1.91486E-10 a0**2
 #
 #
 # Differential cross section:                       MU=(1-COS(THETA))/2
 #
 #  THETA        MU          DCS          DCS        Sherman      error
 #  (deg)                 (cm**2/sr)   (a0**2/sr)    function
 #----------------------------------------------------------------------
0.00000E+00 1.27920E-10
7.61557E-13 1.26932E-10
1.18994E-12 1.26383E-10
1.71346E-12 1.25717E-10
2.33225E-12 1.24936E-10
3.04617E-12 1.24044E-10
3.85530E-12 1.23045E-10
4.75964E-12 1.21941E-10
5.75917E-12 1.20739E-10
6.85391E-12 1.19440E-10
8.04379E-12 1.18052E-10
9.32893E-12 1.16577E-10
1.07092E-11 1.15026E-10
1.21847E-11 1.13396E-10
1.37554E-11 1.11558E-10
1.54213E-11 1.09713E-10
1.71823E-11 1.07923E-10
1.90386E-11 1.06196E-10
2.09900E-11 1.04190E-10
2.30367E-11 1.02135E-10
2.51785E-11 1.00173E-10
2.74156E-11 9.83023E-11
2.97478E-11 9.61923E-11
3.21752E-11 9.40253E-11
3.46979E-11 9.19734E-11
3.73157E-11 9.00321E-11
4.00286E-11 8.79050E-11
4.28368E-11 8.57122E-11
4.57402E-11 8.36459E-11
4.87388E-11 8.16987E-11
5.18325E-11 7.96226E-11
5.50215E-11 7.74752E-11
5.83057E-11 7.54562E-11
6.16850E-11 7.35574E-11
6.51595E-11 7.15813E-11
6.87293E-11 6.95325E-11
7.23943E-11 6.76078E-11
7.61544E-11 6.57986E-11
1.18991E-10 4.87478E-11
1.71347E-10 3.55214E-11
2.33223E-10 2.56721E-11
3.04617E-10 1.85514E-11
3.85531E-10 1.34863E-11
4.75965E-10 9.89450E-12
5.75917E-10 7.34256E-12
6.85389E-10 5.50872E-12
8.04380E-10 4.18651E-12
9.32891E-10 3.22363E-12
1.07092E-09 2.51515E-12
1.21847E-09 1.98454E-12
1.37554E-09 1.58293E-12
1.54213E-09 1.27874E-12
1.71823E-09 1.04288E-12
1.90386E-09 8.59110E-13
2.09900E-09 7.14198E-13
2.30367E-09 5.98599E-13
2.51785E-09 5.05747E-13
2.74156E-09 4.30373E-13
2.97478E-09 3.68702E-13
3.21752E-09 3.17870E-13
3.46978E-09 2.75599E-13
3.73156E-09 2.40251E-13
4.00286E-09 2.10484E-13
4.28368E-09 1.85246E-13
4.57402E-09 1.63754E-13
4.87388E-09 1.45323E-13
5.18326E-09 1.29453E-13
5.50215E-09 1.15731E-13
5.83057E-09 1.03786E-13
6.16850E-09 9.33715E-14
6.51596E-09 8.42415E-14
6.87293E-09 7.62086E-14
7.23942E-09 6.91269E-14
7.61544E-09 6.28448E-14
1.18991E-08 2.70494E-14
1.71347E-08 1.34754E-14
2.33223E-08 7.42654E-15
3.04617E-08 4.41210E-15
3.85531E-08 2.77880E-15
4.75965E-08 1.83395E-15
5.75917E-08 1.25767E-15
6.85389E-08 8.90502E-16
8.04380E-08 6.47824E-16
9.32891E-08 4.82337E-16
1.07092E-07 3.66408E-16
1.21847E-07 2.83270E-16
1.37554E-07 2.22409E-16
1.54213E-07 1.77037E-16
1.71823E-07 1.42660E-16
1.90386E-07 1.16231E-16
2.09900E-07 9.56459E-17
2.30367E-07 7.94207E-17
2.51785E-07 6.64935E-17
2.74156E-07 5.60919E-17
2.97478E-07 4.76463E-17
3.21752E-07 4.07317E-17
3.46978E-07 3.50269E-17
3.73156E-07 3.02866E-17
4.00286E-07 2.63216E-17
4.28368E-07 2.29846E-17
4.57402E-07 2.01600E-17
4.87388E-07 1.77562E-17
5.18325E-07 1.57002E-17
5.50215E-07 1.39334E-17
5.83057E-07 1.24081E-17
6.16850E-07 1.10858E-17
6.51596E-07 9.93503E-18
6.87293E-07 8.92980E-18
7.23942E-07 8.04854E-18
7.61543E-07 7.27336E-18
1.18991E-06 2.97910E-18
1.71347E-06 1.43663E-18
2.33223E-06 7.75428E-19
3.04617E-06 4.54522E-19
3.85531E-06 2.83743E-19
4.75964E-06 1.86155E-19
5.75916E-06 1.27141E-19
6.85388E-06 8.97657E-20
8.04378E-06 6.51691E-20
9.32888E-06 4.84487E-20
1.07092E-05 3.67628E-20
1.21846E-05 2.83971E-20
1.37553E-05 2.22811E-20
1.54212E-05 1.77265E-20
1.71822E-05 1.42783E-20
1.90385E-05 1.16290E-20
2.09899E-05 9.56686E-21
2.30365E-05 7.94218E-21
2.51783E-05 6.64813E-21
2.74153E-05 5.60717E-21
2.97475E-05 4.76216E-21
3.21749E-05 4.07049E-21
3.46974E-05 3.49994E-21
3.73152E-05 3.02595E-21
4.00281E-05 2.62956E-21
4.28362E-05 2.29599E-21
4.57395E-05 2.01367E-21
4.87380E-05 1.77344E-21
5.18317E-05 1.56798E-21
5.50205E-05 1.39142E-21
5.83045E-05 1.23902E-21
6.16838E-05 1.10693E-21
6.51582E-05 9.91973E-22
6.87277E-05 8.91561E-22
7.23925E-05 8.03538E-22
7.61524E-05 7.24276E-22
9.21439E-05 4.94321E-22
1.09658E-04 3.48743E-22
1.28695E-04 2.52979E-22
1.49255E-04 1.87909E-22
1.71338E-04 1.42454E-22
1.94942E-04 1.09929E-22
2.20070E-04 8.61640E-23
2.46720E-04 6.84758E-23
2.74892E-04 5.50925E-23
3.04586E-04 4.48170E-23
3.35803E-04 3.68228E-23
3.68542E-04 3.05288E-23
4.02802E-04 2.55194E-23
4.38585E-04 2.14929E-23
4.75889E-04 1.82268E-23
5.14715E-04 1.55556E-23
5.55063E-04 1.33539E-23
5.96931E-04 1.15262E-23
6.40321E-04 9.99911E-24
6.85233E-04 8.71519E-24
7.31665E-04 7.62955E-24
7.79618E-04 6.70664E-24
8.29092E-04 5.91811E-24
8.80086E-04 5.24122E-24
9.32601E-04 4.65758E-24
9.86636E-04 4.15223E-24
1.04219E-03 3.71295E-24
1.09927E-03 3.32968E-24
1.15786E-03 2.99408E-24
1.21797E-03 2.69924E-24
1.27961E-03 2.43939E-24
1.34276E-03 2.20968E-24
1.40743E-03 2.00603E-24
1.47362E-03 1.82499E-24
1.54133E-03 1.66363E-24
1.61056E-03 1.51945E-24
1.68131E-03 1.39031E-24
1.75357E-03 1.27438E-24
1.82735E-03 1.17008E-24
1.90265E-03 1.07604E-24
1.97947E-03 9.91091E-25
2.05780E-03 9.14201E-25
2.13765E-03 8.44475E-25
2.21902E-03 7.81135E-25
2.30190E-03 7.23495E-25
2.38630E-03 6.70957E-25
2.47222E-03 6.22993E-25
2.55965E-03 5.79136E-25
2.64859E-03 5.38977E-25
2.73905E-03 5.02150E-25
2.83103E-03 4.68333E-25
2.92452E-03 4.37238E-25
3.01952E-03 4.08609E-25
3.11604E-03 3.82217E-25
3.21407E-03 3.57859E-25
3.31362E-03 3.35351E-25
3.41468E-03 3.14529E-25
3.51725E-03 2.95246E-25
3.62133E-03 2.77370E-25
3.72692E-03 2.60779E-25
3.83403E-03 2.45367E-25
3.94265E-03 2.31036E-25
4.05278E-03 2.17697E-25
4.16442E-03 2.05270E-25
4.27757E-03 1.93684E-25
4.39223E-03 1.82870E-25
4.50840E-03 1.72770E-25
4.62608E-03 1.63328E-25
4.74527E-03 1.54495E-25
4.86597E-03 1.46225E-25
4.98817E-03 1.38477E-25
5.11188E-03 1.31211E-25
5.23711E-03 1.24393E-25
5.36383E-03 1.17991E-25
5.49207E-03 1.11976E-25
5.62181E-03 1.06320E-25
5.75306E-03 1.00998E-25
5.88581E-03 9.59879E-26
6.02007E-03 9.12681E-26
6.15583E-03 8.68193E-26
6.29310E-03 8.26233E-26
6.43187E-03 7.86636E-26
6.57214E-03 7.49246E-26
6.71392E-03 7.13923E-26
6.85720E-03 6.80533E-26
7.00198E-03 6.48955E-26
7.14827E-03 6.19075E-26
7.29605E-03 5.90787E-26
7.44534E-03 5.63994E-26
7.59612E-03 5.38604E-26
7.97965E-03 4.80730E-26
8.37255E-03 4.29940E-26
8.77480E-03 3.85248E-26
9.18641E-03 3.45824E-26
9.60736E-03 3.10964E-26
1.00376E-02 2.80068E-26
1.04773E-02 2.52626E-26
1.09262E-02 2.28203E-26
1.13844E-02 2.06424E-26
1.18520E-02 1.86966E-26
1.23288E-02 1.69551E-26
1.28150E-02 1.53939E-26
1.33104E-02 1.39919E-26
1.38150E-02 1.27310E-26
1.43290E-02 1.15954E-26
1.48521E-02 1.05712E-26
1.53845E-02 9.64613E-27
1.59262E-02 8.80961E-27
1.64770E-02 8.05221E-27
1.70371E-02 7.36565E-27
1.76063E-02 6.74260E-27
1.81848E-02 6.17659E-27
1.87724E-02 5.66186E-27
1.93692E-02 5.19331E-27
1.99751E-02 4.76639E-27
2.05901E-02 4.37707E-27
2.12143E-02 4.02171E-27
2.18476E-02 3.69710E-27
2.24900E-02 3.40034E-27
2.31415E-02 3.12884E-27
2.38021E-02 2.88026E-27
2.44717E-02 2.65253E-27
2.51504E-02 2.44374E-27
2.58382E-02 2.25221E-27
2.65349E-02 2.07641E-27
2.72407E-02 1.91495E-27
2.79555E-02 1.76658E-27
2.86793E-02 1.63016E-27
2.94120E-02 1.50468E-27
3.01537E-02 1.38920E-27
3.09043E-02 1.28288E-27
3.16639E-02 1.18495E-27
3.24324E-02 1.09470E-27
3.32098E-02 1.01151E-27
3.39961E-02 9.34802E-28
3.47912E-02 8.64035E-28
3.55952E-02 7.98732E-28
3.64081E-02 7.38453E-28
3.72297E-02 6.82796E-28
3.80602E-02 6.31391E-28
3.88995E-02 5.83901E-28
3.97476E-02 5.40019E-28
4.06044E-02 4.99460E-28
4.14700E-02 4.61965E-28
4.23443E-02 4.27297E-28
4.32273E-02 3.95235E-28
4.41190E-02 3.65580E-28
4.50194E-02 3.38146E-28
4.59284E-02 3.12764E-28
4.68461E-02 2.89278E-28
4.87074E-02 2.47427E-28
5.06030E-02 2.11572E-28
5.25328E-02 1.80847E-28
5.44967E-02 1.54513E-28
5.64946E-02 1.31942E-28
5.85262E-02 1.12597E-28
6.05914E-02 9.60175E-29
6.26901E-02 8.18125E-29
6.48222E-02 6.96452E-29
6.69873E-02 5.92276E-29
6.91854E-02 5.03124E-29
7.14163E-02 4.26872E-29
7.36799E-02 3.61699E-29
7.59760E-02 3.06038E-29
7.83043E-02 2.58540E-29
8.06647E-02 2.18049E-29
8.30571E-02 1.83567E-29
8.54812E-02 1.54237E-29
8.79369E-02 1.29321E-29
9.04240E-02 1.08184E-29
9.29422E-02 9.02818E-30
9.54915E-02 7.51436E-30
9.80716E-02 6.23662E-30
1.00682E-01 5.16027E-30
1.03323E-01 4.25550E-30
1.05995E-01 3.49674E-30
1.08696E-01 2.86204E-30
1.11427E-01 2.33258E-30
1.14188E-01 1.89226E-30
1.16978E-01 1.52727E-30
1.19797E-01 1.22585E-30
1.22645E-01 9.77908E-31
1.25522E-01 7.74880E-31
1.28428E-01 6.09455E-31
1.31361E-01 4.75424E-31
1.34323E-01 3.67516E-31
1.37313E-01 2.81266E-31
1.40330E-01 2.12901E-31
1.43375E-01 1.59239E-31
1.46447E-01 1.17603E-31
1.49545E-01 8.57464E-32
1.52671E-01 6.17915E-32
1.55823E-01 4.41723E-32
1.59001E-01 3.15884E-32
1.62205E-01 2.29643E-32
1.65435E-01 1.74146E-32
1.68690E-01 1.42145E-32
1.71970E-01 1.27741E-32
1.75276E-01 1.26166E-32
1.78606E-01 1.33598E-32
1.81961E-01 1.47004E-32
1.85340E-01 1.64004E-32
1.88743E-01 1.82757E-32
1.92169E-01 2.01867E-32
1.95619E-01 2.20296E-32
1.99092E-01 2.37304E-32
2.02589E-01 2.52382E-32
2.06107E-01 2.65213E-32
2.09649E-01 2.75623E-32
2.13212E-01 2.83558E-32
2.16797E-01 2.89045E-32
2.20404E-01 2.92180E-32
2.24032E-01 2.93105E-32
2.27680E-01 2.91991E-32
2.31350E-01 2.89032E-32
2.35040E-01 2.84431E-32
2.38751E-01 2.78394E-32
2.42481E-01 2.71123E-32
2.46231E-01 2.62817E-32
2.50000E-01 2.53661E-32
2.53788E-01 2.43832E-32
2.57595E-01 2.33490E-32
2.61421E-01 2.22782E-32
2.65264E-01 2.11843E-32
2.69126E-01 2.00790E-32
2.73005E-01 1.89728E-32
2.76901E-01 1.78749E-32
2.80814E-01 1.67930E-32
2.84744E-01 1.57338E-32
2.88691E-01 1.47029E-32
2.92653E-01 1.37048E-32
2.96632E-01 1.27431E-32
3.00625E-01 1.18206E-32
3.04634E-01 1.09393E-32
3.08658E-01 1.01006E-32
3.12697E-01 9.30536E-33
3.16749E-01 8.55380E-33
3.20816E-01 7.84585E-33
3.24896E-01 7.18098E-33
3.28990E-01 6.55841E-33
3.33097E-01 5.97705E-33
3.37216E-01 5.43566E-33
3.41348E-01 4.93278E-33
3.45492E-01 4.46688E-33
3.49647E-01 4.03629E-33
3.53814E-01 3.63929E-33
3.57992E-01 3.27413E-33
3.62181E-01 2.93904E-33
3.66381E-01 2.63225E-33
3.70590E-01 2.35201E-33
3.74810E-01 2.09662E-33
3.79039E-01 1.86440E-33
3.83277E-01 1.65373E-33
3.87524E-01 1.46305E-33
3.91780E-01 1.29087E-33
3.96044E-01 1.13576E-33
4.00316E-01 9.96374E-34
4.04596E-01 8.71413E-34
4.08882E-01 7.59673E-34
4.13176E-01 6.60018E-34
4.17476E-01 5.71379E-34
4.21783E-01 4.92761E-34
4.26095E-01 4.23235E-34
4.30413E-01 3.61941E-34
4.34737E-01 3.08077E-34
4.39065E-01 2.60911E-34
4.43398E-01 2.19757E-34
4.47736E-01 1.83994E-34
4.52077E-01 1.53049E-34
4.56422E-01 1.26397E-34
4.60770E-01 1.03560E-34
4.65122E-01 8.41026E-35
4.69476E-01 6.76303E-35
4.73832E-01 5.37857E-35
4.78190E-01 4.22445E-35
4.82550E-01 3.27159E-35
4.86912E-01 2.49378E-35
4.91274E-01 1.86756E-35
4.95637E-01 1.37195E-35
5.00000E-01 9.88219E-36
5.04363E-01 6.99776E-36
5.08726E-01 4.91869E-36
5.13088E-01 3.51495E-36
5.17450E-01 2.67214E-36
5.21810E-01 2.28999E-36
5.26168E-01 2.28072E-36
5.30524E-01 2.56839E-36
5.34878E-01 3.08714E-36
5.39230E-01 3.78046E-36
5.43578E-01 4.59952E-36
5.47923E-01 5.50323E-36
5.52264E-01 6.45741E-36
5.56602E-01 7.43249E-36
5.60935E-01 8.40533E-36
5.65263E-01 9.35565E-36
5.69587E-01 1.02681E-35
5.73905E-01 1.11306E-35
5.78217E-01 1.19336E-35
5.82524E-01 1.26706E-35
5.86824E-01 1.33366E-35
5.91118E-01 1.39280E-35
5.95404E-01 1.44445E-35
5.99684E-01 1.48858E-35
6.03956E-01 1.52524E-35
6.08220E-01 1.55463E-35
6.12476E-01 1.57709E-35
6.16723E-01 1.59280E-35
6.20961E-01 1.60219E-35
6.25190E-01 1.60557E-35
6.29410E-01 1.60340E-35
6.33619E-01 1.59610E-35
6.37819E-01 1.58401E-35
6.42008E-01 1.56760E-35
6.46186E-01 1.54733E-35
6.50353E-01 1.52348E-35
6.54508E-01 1.49649E-35
6.58652E-01 1.46679E-35
6.62784E-01 1.43469E-35
6.66903E-01 1.40049E-35
6.71010E-01 1.36461E-35
6.75104E-01 1.32728E-35
6.79184E-01 1.28880E-35
6.83251E-01 1.24943E-35
6.87303E-01 1.20944E-35
6.91342E-01 1.16897E-35
6.95366E-01 1.12825E-35
6.99375E-01 1.08758E-35
7.03368E-01 1.04695E-35
7.07347E-01 1.00666E-35
7.11309E-01 9.66737E-36
7.15256E-01 9.27363E-36
7.19186E-01 8.88620E-36
7.23099E-01 8.50574E-36
7.26995E-01 8.13360E-36
7.30874E-01 7.76998E-36
7.34736E-01 7.41559E-36
7.38579E-01 7.07075E-36
7.42405E-01 6.73627E-36
7.46212E-01 6.41186E-36
7.50000E-01 6.09795E-36
7.53769E-01 5.79478E-36
7.57519E-01 5.50233E-36
7.61249E-01 5.22067E-36
7.64960E-01 4.94969E-36
7.68650E-01 4.68936E-36
7.72320E-01 4.43986E-36
7.75968E-01 4.20061E-36
7.79596E-01 3.97178E-36
7.83203E-01 3.75264E-36
7.86788E-01 3.54350E-36
7.90351E-01 3.34395E-36
7.93893E-01 3.15365E-36
7.97411E-01 2.97234E-36
8.00908E-01 2.79994E-36
8.04381E-01 2.63607E-36
8.07831E-01 2.48046E-36
8.11257E-01 2.33265E-36
8.14660E-01 2.19234E-36
8.18039E-01 2.05950E-36
8.21394E-01 1.93371E-36
8.24724E-01 1.81470E-36
8.28030E-01 1.70220E-36
8.31310E-01 1.59592E-36
8.34565E-01 1.49540E-36
8.37795E-01 1.40053E-36
8.40999E-01 1.31117E-36
8.44177E-01 1.22695E-36
8.47329E-01 1.14765E-36
8.50455E-01 1.07299E-36
8.53553E-01 1.00265E-36
8.56625E-01 9.36594E-37
8.59670E-01 8.74437E-37
8.62687E-01 8.16154E-37
8.65677E-01 7.61375E-37
8.68639E-01 7.09951E-37
8.71572E-01 6.61795E-37
8.74478E-01 6.16593E-37
8.77355E-01 5.74222E-37
8.80203E-01 5.34598E-37
8.83022E-01 4.97483E-37
8.85812E-01 4.62695E-37
8.88573E-01 4.30191E-37
8.91304E-01 3.99908E-37
8.94005E-01 3.71496E-37
8.96677E-01 3.45023E-37
8.99318E-01 3.20324E-37
9.01928E-01 2.97235E-37
9.04508E-01 2.75735E-37
9.07058E-01 2.55697E-37
9.09576E-01 2.36953E-37
9.12063E-01 2.19582E-37
9.14519E-01 2.03354E-37
9.16943E-01 1.88220E-37
9.19335E-01 1.74199E-37
9.21696E-01 1.61125E-37
9.24024E-01 1.48968E-37
9.26320E-01 1.37693E-37
9.28584E-01 1.27255E-37
9.30815E-01 1.17504E-37
9.33013E-01 1.08484E-37
9.35178E-01 1.00106E-37
9.37310E-01 9.23511E-38
9.39409E-01 8.51421E-38
9.41474E-01 7.84895E-38
9.43505E-01 7.22798E-38
9.45503E-01 6.65383E-38
9.47467E-01 6.12987E-38
9.49397E-01 5.63489E-38
9.51293E-01 5.18304E-38
9.53154E-01 4.76355E-38
9.54981E-01 4.37678E-38
9.56773E-01 4.01689E-38
9.58530E-01 3.68847E-38
9.60252E-01 3.38238E-38
9.61940E-01 3.10030E-38
9.63592E-01 2.83984E-38
9.65209E-01 2.60003E-38
9.66790E-01 2.37971E-38
9.68336E-01 2.17371E-38
9.69846E-01 1.98748E-38
9.71321E-01 1.81291E-38
9.72759E-01 1.65579E-38
9.74162E-01 1.50747E-38
9.75528E-01 1.37288E-38
9.76858E-01 1.25046E-38
9.78152E-01 1.13515E-38
9.79410E-01 1.03083E-38
9.80631E-01 9.34498E-39
9.81815E-01 8.46934E-39
9.82963E-01 7.65683E-39
9.84074E-01 6.92365E-39
9.85148E-01 6.23920E-39
9.86185E-01 5.62879E-39
9.87185E-01 5.05549E-39
9.88148E-01 4.52586E-39
9.89074E-01 4.05530E-39
9.89962E-01 3.61489E-39
9.90814E-01 3.21200E-39
9.91627E-01 2.84881E-39
9.92404E-01 2.52469E-39
9.93143E-01 2.21996E-39
9.93844E-01 1.95137E-39
9.94508E-01 1.70480E-39
9.95134E-01 1.47745E-39
9.95722E-01 1.27042E-39
9.96273E-01 1.08790E-39
9.96786E-01 9.17599E-40
9.97261E-01 7.75665E-40
9.97698E-01 6.40081E-40
9.98097E-01 5.19399E-40
9.98459E-01 4.12560E-40
9.98782E-01 3.29972E-40
9.99067E-01 2.47569E-40
9.99315E-01 1.79439E-40
9.99524E-01 1.23876E-40
9.99695E-01 7.69386E-41
9.99829E-01 4.54940E-41
9.99924E-01 1.87204E-41
9.99981E-01 5.16327E-42
1.00000E+00 2.81304E-43
