 #
 # Subroutine ELSEPA. Elastic scattering of electrons and positrons
 #                    by neutral atoms and positive ions
 #
 # Projectile: positron
 # Kinetic energy = 4.00000E+08 eV = 1.46997E+07 a.u.
 #
 # WARNING: High-energy factorization with free-atom DF screening.
 #          Absorption, polarization and exchange corrections are
 #          switched off.
 #          Phase shifts are calculated for the bare nucleus.
 #          Scattering amplitudes are not evaluated.
 #
 # Element: Ne,  Z =  10,  atomic weight = 2.01797E+01 g/mol
 #
 # Nuclear model: Fermi distribution
 #                Average radius = 2.91310E-13 cm
 #                Skin thickness = 5.46000E-14 cm
 #
 # Number of electrons = 10
 #
 # Total elastic cross section = 2.93128E-19 cm**2 = 1.04678E-02 a0**2
 # 1st transport cross section = 1.37166E-27 cm**2 = 4.89828E-11 a0**2
 # 2nd transport cross section = 4.11039E-27 cm**2 = 1.46785E-10 a0**2
 #
 #
 # Differential cross section:                       MU=(1-COS(THETA))/2
 #
 #  THETA        MU          DCS          DCS        Sherman      error
 #  (deg)                 (cm**2/sr)   (a0**2/sr)    function
 #----------------------------------------------------------------------
0.00000E+00 1.67018E-10
7.61557E-13 1.65338E-10
1.18994E-12 1.64407E-10
1.71346E-12 1.63279E-10
2.33225E-12 1.61960E-10
3.04617E-12 1.60457E-10
3.85530E-12 1.58779E-10
4.75964E-12 1.56934E-10
5.75917E-12 1.54930E-10
6.85391E-12 1.52775E-10
8.04379E-12 1.50482E-10
9.32893E-12 1.48062E-10
1.07092E-11 1.45315E-10
1.21847E-11 1.42578E-10
1.37554E-11 1.39941E-10
1.54213E-11 1.37232E-10
1.71823E-11 1.34117E-10
1.90386E-11 1.31159E-10
2.09900E-11 1.28359E-10
2.30367E-11 1.25193E-10
2.51785E-11 1.21996E-10
2.74156E-11 1.18994E-10
2.97478E-11 1.16069E-10
3.21752E-11 1.12726E-10
3.46979E-11 1.09602E-10
3.73157E-11 1.06684E-10
4.00286E-11 1.03565E-10
4.28368E-11 1.00402E-10
4.57402E-11 9.74542E-11
4.87388E-11 9.46779E-11
5.18325E-11 9.15502E-11
5.50215E-11 8.86388E-11
5.83057E-11 8.59264E-11
6.16850E-11 8.31542E-11
6.51595E-11 8.03344E-11
6.87293E-11 7.77080E-11
7.23943E-11 7.52592E-11
7.61544E-11 7.25956E-11
1.18991E-10 5.08866E-11
1.71347E-10 3.51487E-11
2.33223E-10 2.42329E-11
3.04617E-10 1.68398E-11
3.85531E-10 1.18559E-11
4.75965E-10 8.46901E-12
5.75917E-10 6.14310E-12
6.85389E-10 4.53199E-12
8.04380E-10 3.40186E-12
9.32891E-10 2.59286E-12
1.07092E-09 2.00459E-12
1.21847E-09 1.57431E-12
1.37554E-09 1.25283E-12
1.54213E-09 1.00885E-12
1.71823E-09 8.21869E-13
1.90386E-09 6.76605E-13
2.09900E-09 5.62303E-13
2.30367E-09 4.71444E-13
2.51785E-09 3.98483E-13
2.74156E-09 3.39309E-13
2.97478E-09 2.90867E-13
3.21752E-09 2.50913E-13
3.46978E-09 2.17707E-13
3.73156E-09 1.89870E-13
4.00286E-09 1.66413E-13
4.28368E-09 1.46525E-13
4.57402E-09 1.29549E-13
4.87388E-09 1.14984E-13
5.18326E-09 1.02436E-13
5.50215E-09 9.15710E-14
5.83057E-09 8.21094E-14
6.16850E-09 7.38514E-14
6.51596E-09 6.66156E-14
6.87293E-09 6.02409E-14
7.23942E-09 5.46144E-14
7.61544E-09 4.96341E-14
1.18991E-08 2.12325E-14
1.71347E-08 1.05118E-14
2.33223E-08 5.76478E-15
3.04617E-08 3.41247E-15
3.85531E-08 2.14367E-15
4.75965E-08 1.41217E-15
5.75917E-08 9.67155E-16
6.85389E-08 6.84152E-16
8.04380E-08 4.97365E-16
9.32891E-08 3.70123E-16
1.07092E-07 2.81056E-16
1.21847E-07 2.17221E-16
1.37554E-07 1.70513E-16
1.54213E-07 1.35704E-16
1.71823E-07 1.09337E-16
1.90386E-07 8.90721E-17
2.09900E-07 7.32905E-17
2.30367E-07 6.08534E-17
2.51785E-07 5.09454E-17
2.74156E-07 4.29739E-17
2.97478E-07 3.65020E-17
3.21752E-07 3.12037E-17
3.46978E-07 2.68326E-17
3.73156E-07 2.32007E-17
4.00286E-07 2.01630E-17
4.28368E-07 1.76064E-17
4.57402E-07 1.54423E-17
4.87388E-07 1.36007E-17
5.18325E-07 1.20255E-17
5.50215E-07 1.06720E-17
5.83057E-07 9.50359E-18
6.16850E-07 8.49082E-18
6.51596E-07 7.60943E-18
6.87293E-07 6.83950E-18
7.23942E-07 6.16452E-18
7.61543E-07 5.57079E-18
1.18991E-06 2.28173E-18
1.71347E-06 1.10033E-18
2.33223E-06 5.93906E-19
3.04617E-06 3.48122E-19
3.85531E-06 2.17321E-19
4.75964E-06 1.42578E-19
5.75916E-06 9.73778E-20
6.85388E-06 6.87520E-20
8.04378E-06 4.99133E-20
9.32888E-06 3.71071E-20
1.07092E-05 2.81568E-20
1.21846E-05 2.17494E-20
1.37553E-05 1.70652E-20
1.54212E-05 1.35768E-20
1.71822E-05 1.09358E-20
1.90385E-05 8.90667E-21
2.09899E-05 7.32729E-21
2.30365E-05 6.08294E-21
2.51783E-05 5.09183E-21
2.74153E-05 4.29455E-21
2.97475E-05 3.64736E-21
3.21749E-05 3.11760E-21
3.46974E-05 2.68062E-21
3.73152E-05 2.31759E-21
4.00281E-05 2.01399E-21
4.28362E-05 1.75851E-21
4.57395E-05 1.54228E-21
4.87380E-05 1.35828E-21
5.18317E-05 1.20092E-21
5.50205E-05 1.06569E-21
5.83045E-05 9.48971E-22
6.16838E-05 8.47799E-22
6.51582E-05 7.59756E-22
6.87277E-05 6.82850E-22
7.23925E-05 6.15433E-22
7.61524E-05 5.54271E-22
9.21439E-05 3.78225E-22
1.09658E-04 2.66785E-22
1.28695E-04 1.93486E-22
1.49255E-04 1.43685E-22
1.71338E-04 1.08901E-22
1.94942E-04 8.40143E-23
2.20070E-04 6.58330E-23
2.46720E-04 5.23026E-23
2.74892E-04 4.20669E-23
3.04586E-04 3.42093E-23
3.35803E-04 2.80973E-23
3.68542E-04 2.32860E-23
4.02802E-04 1.94575E-23
4.38585E-04 1.63807E-23
4.75889E-04 1.38856E-23
5.14715E-04 1.18453E-23
5.55063E-04 1.01640E-23
5.96931E-04 8.76877E-24
6.40321E-04 7.60319E-24
6.85233E-04 6.62350E-24
7.31665E-04 5.79532E-24
7.79618E-04 5.09148E-24
8.29092E-04 4.49029E-24
8.80086E-04 3.97438E-24
9.32601E-04 3.52967E-24
9.86636E-04 3.14474E-24
1.04219E-03 2.81024E-24
1.09927E-03 2.51849E-24
1.15786E-03 2.26311E-24
1.21797E-03 2.03884E-24
1.27961E-03 1.84125E-24
1.34276E-03 1.66665E-24
1.40743E-03 1.51191E-24
1.47362E-03 1.37441E-24
1.54133E-03 1.25191E-24
1.61056E-03 1.14249E-24
1.68131E-03 1.04453E-24
1.75357E-03 9.56628E-25
1.82735E-03 8.77581E-25
1.90265E-03 8.06347E-25
1.97947E-03 7.42025E-25
2.05780E-03 6.83834E-25
2.13765E-03 6.31092E-25
2.21902E-03 5.83204E-25
2.30190E-03 5.39648E-25
2.38630E-03 4.99969E-25
2.47222E-03 4.63763E-25
2.55965E-03 4.30676E-25
2.64859E-03 4.00396E-25
2.73905E-03 3.72645E-25
2.83103E-03 3.47176E-25
2.92452E-03 3.23771E-25
3.01952E-03 3.02236E-25
3.11604E-03 2.82396E-25
3.21407E-03 2.64096E-25
3.31362E-03 2.47198E-25
3.41468E-03 2.31575E-25
3.51725E-03 2.17117E-25
3.62133E-03 2.03723E-25
3.72692E-03 1.91300E-25
3.83403E-03 1.79769E-25
3.94265E-03 1.69054E-25
4.05278E-03 1.59088E-25
4.16442E-03 1.49810E-25
4.27757E-03 1.41166E-25
4.39223E-03 1.33105E-25
4.50840E-03 1.25582E-25
4.62608E-03 1.18555E-25
4.74527E-03 1.11987E-25
4.86597E-03 1.05842E-25
4.98817E-03 1.00089E-25
5.11188E-03 9.46993E-26
5.23711E-03 8.96463E-26
5.36383E-03 8.49058E-26
5.49207E-03 8.04554E-26
5.62181E-03 7.62747E-26
5.75306E-03 7.23448E-26
5.88581E-03 6.86484E-26
6.02007E-03 6.51696E-26
6.15583E-03 6.18936E-26
6.29310E-03 5.88068E-26
6.43187E-03 5.58966E-26
6.57214E-03 5.31515E-26
6.71392E-03 5.05607E-26
6.85720E-03 4.81143E-26
7.00198E-03 4.58031E-26
7.14827E-03 4.36185E-26
7.29605E-03 4.15525E-26
7.44534E-03 3.95978E-26
7.59612E-03 3.77476E-26
7.97965E-03 3.35383E-26
8.37255E-03 2.98550E-26
8.77480E-03 2.66237E-26
9.18641E-03 2.37821E-26
9.60736E-03 2.12775E-26
1.00376E-02 1.90650E-26
1.04773E-02 1.71066E-26
1.09262E-02 1.53697E-26
1.13844E-02 1.38265E-26
1.18520E-02 1.24528E-26
1.23288E-02 1.12281E-26
1.28150E-02 1.01345E-26
1.33104E-02 9.15636E-27
1.38150E-02 8.28037E-27
1.43290E-02 7.49477E-27
1.48521E-02 6.78930E-27
1.53845E-02 6.15503E-27
1.59262E-02 5.58410E-27
1.64770E-02 5.06963E-27
1.70371E-02 4.60553E-27
1.76063E-02 4.18646E-27
1.81848E-02 3.80769E-27
1.87724E-02 3.46503E-27
1.93692E-02 3.15479E-27
1.99751E-02 2.87366E-27
2.05901E-02 2.61871E-27
2.12143E-02 2.38734E-27
2.18476E-02 2.17723E-27
2.24900E-02 1.98629E-27
2.31415E-02 1.81267E-27
2.38021E-02 1.65471E-27
2.44717E-02 1.51091E-27
2.51504E-02 1.37994E-27
2.58382E-02 1.26060E-27
2.65349E-02 1.15179E-27
2.72407E-02 1.05256E-27
2.79555E-02 9.62016E-28
2.86793E-02 8.79373E-28
2.94120E-02 8.03913E-28
3.01537E-02 7.34991E-28
3.09043E-02 6.72020E-28
3.16639E-02 6.14472E-28
3.24324E-02 5.61866E-28
3.32098E-02 5.13767E-28
3.39961E-02 4.69780E-28
3.47912E-02 4.29545E-28
3.55952E-02 3.92736E-28
3.64081E-02 3.59058E-28
3.72297E-02 3.28240E-28
3.80602E-02 3.00035E-28
3.88995E-02 2.74222E-28
3.97476E-02 2.50594E-28
4.06044E-02 2.28966E-28
4.14700E-02 2.09169E-28
4.23443E-02 1.91047E-28
4.32273E-02 1.74459E-28
4.41190E-02 1.59275E-28
4.50194E-02 1.45377E-28
4.59284E-02 1.32657E-28
4.68461E-02 1.21017E-28
4.87074E-02 1.00618E-28
5.06030E-02 8.35452E-29
5.25328E-02 6.92656E-29
5.44967E-02 5.73316E-29
5.64946E-02 4.73671E-29
5.85262E-02 3.90561E-29
6.05914E-02 3.21327E-29
6.26901E-02 2.63732E-29
6.48222E-02 2.15896E-29
6.69873E-02 1.76232E-29
6.91854E-02 1.43409E-29
7.14163E-02 1.16304E-29
7.36799E-02 9.39730E-30
7.59760E-02 7.56228E-30
7.83043E-02 6.05866E-30
8.06647E-02 4.83043E-30
8.30571E-02 3.83062E-30
8.54812E-02 3.01985E-30
8.79369E-02 2.36517E-30
9.04240E-02 1.83902E-30
9.29422E-02 1.41839E-30
9.54915E-02 1.08413E-30
9.80716E-02 8.20286E-31
1.00682E-01 6.13633E-31
1.03323E-01 4.53217E-31
1.05995E-01 3.29990E-31
1.08696E-01 2.36503E-31
1.11427E-01 1.66644E-31
1.14188E-01 1.15411E-31
1.16978E-01 7.87339E-32
1.19797E-01 5.33108E-32
1.22645E-01 3.64790E-32
1.25522E-01 2.61039E-32
1.28428E-01 2.04853E-32
1.31361E-01 1.82802E-32
1.34323E-01 1.84370E-32
1.37313E-01 2.01423E-32
1.40330E-01 2.27745E-32
1.43375E-01 2.58673E-32
1.46447E-01 2.90784E-32
1.49545E-01 3.21637E-32
1.52671E-01 3.49568E-32
1.55823E-01 3.73512E-32
1.59001E-01 3.92871E-32
1.62205E-01 4.07392E-32
1.65435E-01 4.17083E-32
1.68690E-01 4.22137E-32
1.71970E-01 4.22872E-32
1.75276E-01 4.19692E-32
1.78606E-01 4.13046E-32
1.81961E-01 4.03403E-32
1.85340E-01 3.91232E-32
1.88743E-01 3.76988E-32
1.92169E-01 3.61102E-32
1.95619E-01 3.43973E-32
1.99092E-01 3.25962E-32
2.02589E-01 3.07395E-32
2.06107E-01 2.88558E-32
2.09649E-01 2.69698E-32
2.13212E-01 2.51028E-32
2.16797E-01 2.32726E-32
2.20404E-01 2.14937E-32
2.24032E-01 1.97780E-32
2.27680E-01 1.81344E-32
2.31350E-01 1.65698E-32
2.35040E-01 1.50889E-32
2.38751E-01 1.36947E-32
2.42481E-01 1.23886E-32
2.46231E-01 1.11707E-32
2.50000E-01 1.00401E-32
2.53788E-01 8.99498E-33
2.57595E-01 8.03265E-33
2.61421E-01 7.15006E-33
2.65264E-01 6.34361E-33
2.69126E-01 5.60945E-33
2.73005E-01 4.94351E-33
2.76901E-01 4.34157E-33
2.80814E-01 3.79941E-33
2.84744E-01 3.31278E-33
2.88691E-01 2.87755E-33
2.92653E-01 2.48964E-33
2.96632E-01 2.14516E-33
3.00625E-01 1.84036E-33
3.04634E-01 1.57166E-33
3.08658E-01 1.33571E-33
3.12697E-01 1.12934E-33
3.16749E-01 9.49589E-34
3.20816E-01 7.93713E-34
3.24896E-01 6.59156E-34
3.28990E-01 5.43580E-34
3.33097E-01 4.44828E-34
3.37216E-01 3.60933E-34
3.41348E-01 2.90103E-34
3.45492E-01 2.30719E-34
3.49647E-01 1.81312E-34
3.53814E-01 1.40565E-34
3.57992E-01 1.07295E-34
3.62181E-01 8.04481E-35
3.66381E-01 5.90864E-35
3.70590E-01 4.23797E-35
3.74810E-01 2.95952E-35
3.79039E-01 2.00900E-35
3.83277E-01 1.33018E-35
3.87524E-01 8.74135E-36
3.91780E-01 5.98517E-36
3.96044E-01 4.66874E-36
4.00316E-01 4.47959E-36
4.04596E-01 5.15253E-36
4.08882E-01 6.46359E-36
4.13176E-01 8.22437E-36
4.17476E-01 1.02795E-35
4.21783E-01 1.25011E-35
4.26095E-01 1.47855E-35
4.30413E-01 1.70494E-35
4.34737E-01 1.92292E-35
4.39065E-01 2.12741E-35
4.43398E-01 2.31494E-35
4.47736E-01 2.48290E-35
4.52077E-01 2.62963E-35
4.56422E-01 2.75440E-35
4.60770E-01 2.85690E-35
4.65122E-01 2.93741E-35
4.69476E-01 2.99661E-35
4.73832E-01 3.03538E-35
4.78190E-01 3.05499E-35
4.82550E-01 3.05675E-35
4.86912E-01 3.04215E-35
4.91274E-01 3.01266E-35
4.95637E-01 2.96980E-35
5.00000E-01 2.91521E-35
5.04363E-01 2.85017E-35
5.08726E-01 2.77638E-35
5.13088E-01 2.69504E-35
5.17450E-01 2.60753E-35
5.21810E-01 2.51507E-35
5.26168E-01 2.41873E-35
5.30524E-01 2.31962E-35
5.34878E-01 2.21866E-35
5.39230E-01 2.11673E-35
5.43578E-01 2.01454E-35
5.47923E-01 1.91278E-35
5.52264E-01 1.81212E-35
5.56602E-01 1.71299E-35
5.60935E-01 1.61593E-35
5.65263E-01 1.52124E-35
5.69587E-01 1.42927E-35
5.73905E-01 1.34027E-35
5.78217E-01 1.25447E-35
5.82524E-01 1.17201E-35
5.86824E-01 1.09301E-35
5.91118E-01 1.01750E-35
5.95404E-01 9.45578E-36
5.99684E-01 8.77242E-36
6.03956E-01 8.12457E-36
6.08220E-01 7.51187E-36
6.12476E-01 6.93415E-36
6.16723E-01 6.39009E-36
6.20961E-01 5.87917E-36
6.25190E-01 5.40002E-36
6.29410E-01 4.95182E-36
6.33619E-01 4.53348E-36
6.37819E-01 4.14346E-36
6.42008E-01 3.78066E-36
6.46186E-01 3.44403E-36
6.50353E-01 3.13184E-36
6.54508E-01 2.84294E-36
6.58652E-01 2.57628E-36
6.62784E-01 2.33045E-36
6.66903E-01 2.10408E-36
6.71010E-01 1.89629E-36
6.75104E-01 1.70567E-36
6.79184E-01 1.53120E-36
6.83251E-01 1.37175E-36
6.87303E-01 1.22637E-36
6.91342E-01 1.09391E-36
6.95366E-01 9.73458E-37
6.99375E-01 8.64400E-37
7.03368E-01 7.65489E-37
7.07347E-01 6.76257E-37
7.11309E-01 5.95714E-37
7.15256E-01 5.23288E-37
7.19186E-01 4.58266E-37
7.23099E-01 3.99981E-37
7.26995E-01 3.47952E-37
7.30874E-01 3.01554E-37
7.34736E-01 2.60310E-37
7.38579E-01 2.23729E-37
7.42405E-01 1.91437E-37
7.46212E-01 1.62956E-37
7.50000E-01 1.37944E-37
7.53769E-01 1.16073E-37
7.57519E-01 9.70149E-38
7.61249E-01 8.04862E-38
7.64960E-01 6.62152E-38
7.68650E-01 5.39651E-38
7.72320E-01 4.35315E-38
7.75968E-01 3.46849E-38
7.79596E-01 2.72612E-38
7.83203E-01 2.10681E-38
7.86788E-01 1.59817E-38
7.90351E-01 1.18564E-38
7.93893E-01 8.56804E-39
7.97411E-01 6.00738E-39
8.00908E-01 4.07809E-39
8.04381E-01 2.68827E-39
8.07831E-01 1.75767E-39
8.11257E-01 1.21686E-39
8.14660E-01 1.00551E-39
8.18039E-01 1.06325E-39
8.21394E-01 1.34246E-39
8.24724E-01 1.79868E-39
8.28030E-01 2.39273E-39
8.31310E-01 3.09123E-39
8.34565E-01 3.87750E-39
8.37795E-01 4.71779E-39
8.40999E-01 5.58161E-39
8.44177E-01 6.45831E-39
8.47329E-01 7.33032E-39
8.50455E-01 8.18618E-39
8.53553E-01 9.02777E-39
8.56625E-01 9.82481E-39
8.59670E-01 1.05899E-38
8.62687E-01 1.12957E-38
8.65677E-01 1.19589E-38
8.68639E-01 1.25720E-38
8.71572E-01 1.31189E-38
8.74478E-01 1.36186E-38
8.77355E-01 1.40647E-38
8.80203E-01 1.44449E-38
8.83022E-01 1.47738E-38
8.85812E-01 1.50600E-38
8.88573E-01 1.52876E-38
8.91304E-01 1.54441E-38
8.94005E-01 1.55763E-38
8.96677E-01 1.56480E-38
8.99318E-01 1.56722E-38
9.01928E-01 1.56645E-38
9.04508E-01 1.56089E-38
9.07058E-01 1.55150E-38
9.09576E-01 1.54051E-38
9.12063E-01 1.52396E-38
9.14519E-01 1.50599E-38
9.16943E-01 1.48623E-38
9.19335E-01 1.46231E-38
9.21696E-01 1.43729E-38
9.24024E-01 1.41040E-38
9.26320E-01 1.38111E-38
9.28584E-01 1.34916E-38
9.30815E-01 1.31792E-38
9.33013E-01 1.28455E-38
9.35178E-01 1.25057E-38
9.37310E-01 1.21529E-38
9.39409E-01 1.18015E-38
9.41474E-01 1.14347E-38
9.43505E-01 1.10835E-38
9.45503E-01 1.07265E-38
9.47467E-01 1.03373E-38
9.49397E-01 9.99207E-39
9.51293E-01 9.62128E-39
9.53154E-01 9.26018E-39
9.54981E-01 8.89752E-39
9.56773E-01 8.55025E-39
9.58530E-01 8.18759E-39
9.60252E-01 7.84405E-39
9.61940E-01 7.50335E-39
9.63592E-01 7.16914E-39
9.65209E-01 6.83883E-39
9.66790E-01 6.51080E-39
9.68336E-01 6.20568E-39
9.69846E-01 5.88749E-39
9.71321E-01 5.59412E-39
9.72759E-01 5.28736E-39
9.74162E-01 5.01089E-39
9.75528E-01 4.73080E-39
9.76858E-01 4.45068E-39
9.78152E-01 4.19668E-39
9.79410E-01 3.94030E-39
9.80631E-01 3.69594E-39
9.81815E-01 3.45442E-39
9.82963E-01 3.22777E-39
9.84074E-01 3.00155E-39
9.85148E-01 2.79266E-39
9.86185E-01 2.58050E-39
9.87185E-01 2.38753E-39
9.88148E-01 2.20659E-39
9.89074E-01 2.02365E-39
9.89962E-01 1.85691E-39
9.90814E-01 1.69866E-39
9.91627E-01 1.54485E-39
9.92404E-01 1.39364E-39
9.93143E-01 1.25812E-39
9.93844E-01 1.12319E-39
9.94508E-01 9.98360E-40
9.95134E-01 8.84136E-40
9.95722E-01 7.78232E-40
9.96273E-01 6.75871E-40
9.96786E-01 5.85778E-40
9.97261E-01 4.93440E-40
9.97698E-01 4.16126E-40
9.98097E-01 3.45843E-40
9.98459E-01 2.82722E-40
9.98782E-01 2.16830E-40
9.99067E-01 1.68277E-40
9.99315E-01 1.24494E-40
9.99524E-01 8.64146E-41
9.99695E-01 5.71662E-41
9.99829E-01 3.02203E-41
9.99924E-01 1.50846E-41
9.99981E-01 5.40399E-42
1.00000E+00 6.92535E-43
