 #
 # Subroutine ELSEPA. Elastic scattering of electrons and positrons
 #                    by neutral atoms and positive ions
 #
 # Projectile: positron
 # Kinetic energy = 3.00000E+07 eV = 1.10248E+06 a.u.
 #
 # WARNING: High-energy factorization with free-atom DF screening.
 #          Absorption, polarization and exchange corrections are
 #          switched off.
 #          Phase shifts are calculated for the bare nucleus.
 #          Scattering amplitudes are not evaluated.
 #
 # Element: Ne,  Z =  10,  atomic weight = 2.01797E+01 g/mol
 #
 # Nuclear model: Fermi distribution
 #                Average radius = 2.91310E-13 cm
 #                Skin thickness = 5.46000E-14 cm
 #
 # Number of electrons = 10
 #
 # Total elastic cross section = 2.93258E-19 cm**2 = 1.04725E-02 a0**2
 # 1st transport cross section = 2.09518E-25 cm**2 = 7.48202E-09 a0**2
 # 2nd transport cross section = 6.10496E-25 cm**2 = 2.18012E-08 a0**2
 #
 #
 # Differential cross section:                       MU=(1-COS(THETA))/2
 #
 #  THETA        MU          DCS          DCS        Sherman      error
 #  (deg)                 (cm**2/sr)   (a0**2/sr)    function
 #----------------------------------------------------------------------
0.00000E+00 9.69274E-13
7.61557E-13 9.69214E-13
1.18994E-12 9.69181E-13
1.71346E-12 9.69141E-13
2.33225E-12 9.69094E-13
3.04617E-12 9.69040E-13
3.85530E-12 9.68979E-13
4.75964E-12 9.68910E-13
5.75917E-12 9.68835E-13
6.85391E-12 9.68753E-13
8.04379E-12 9.68663E-13
9.32893E-12 9.68567E-13
1.07092E-11 9.68463E-13
1.21847E-11 9.68353E-13
1.37554E-11 9.68235E-13
1.54213E-11 9.68110E-13
1.71823E-11 9.67978E-13
1.90386E-11 9.67839E-13
2.09900E-11 9.67693E-13
2.30367E-11 9.67541E-13
2.51785E-11 9.67381E-13
2.74156E-11 9.67214E-13
2.97478E-11 9.67039E-13
3.21752E-11 9.66858E-13
3.46979E-11 9.66671E-13
3.73157E-11 9.66476E-13
4.00286E-11 9.66273E-13
4.28368E-11 9.66064E-13
4.57402E-11 9.65848E-13
4.87388E-11 9.65626E-13
5.18325E-11 9.65396E-13
5.50215E-11 9.65158E-13
5.83057E-11 9.64914E-13
6.16850E-11 9.64664E-13
6.51595E-11 9.64407E-13
6.87293E-11 9.64142E-13
7.23943E-11 9.63870E-13
7.61544E-11 9.63591E-13
1.18991E-10 9.60428E-13
1.71347E-10 9.56584E-13
2.33223E-10 9.52072E-13
3.04617E-10 9.46902E-13
3.85531E-10 9.41092E-13
4.75965E-10 9.34660E-13
5.75917E-10 9.27627E-13
6.85389E-10 9.20012E-13
8.04380E-10 9.11839E-13
9.32891E-10 9.03128E-13
1.07092E-09 8.93897E-13
1.21847E-09 8.84179E-13
1.37554E-09 8.74004E-13
1.54213E-09 8.63397E-13
1.71823E-09 8.51903E-13
1.90386E-09 8.39552E-13
2.09900E-09 8.27503E-13
2.30367E-09 8.15787E-13
2.51785E-09 8.04429E-13
2.74156E-09 7.91240E-13
2.97478E-09 7.77583E-13
3.21752E-09 7.64455E-13
3.46978E-09 7.51856E-13
3.73156E-09 7.39670E-13
4.00286E-09 7.24836E-13
4.28368E-09 7.10680E-13
4.57402E-09 6.97182E-13
4.87388E-09 6.84319E-13
5.18326E-09 6.70869E-13
5.50215E-09 6.56112E-13
5.83057E-09 6.42096E-13
6.16850E-09 6.28787E-13
6.51596E-09 6.16149E-13
6.87293E-09 6.02080E-13
7.23942E-09 5.87926E-13
7.61544E-09 5.74512E-13
1.18991E-08 4.49718E-13
1.71347E-08 3.44954E-13
2.33223E-08 2.61512E-13
3.04617E-08 1.96946E-13
3.85531E-08 1.48346E-13
4.75965E-08 1.12189E-13
5.75917E-08 8.54227E-14
6.85389E-08 6.55732E-14
8.04380E-08 5.07631E-14
9.32891E-08 3.96420E-14
1.07092E-07 3.12518E-14
1.21847E-07 2.48926E-14
1.37554E-07 2.00249E-14
1.54213E-07 1.62537E-14
1.71823E-07 1.32969E-14
1.90386E-07 1.09803E-14
2.09900E-07 9.14501E-15
2.30367E-07 7.67423E-15
2.51785E-07 6.48675E-15
2.74156E-07 5.52118E-15
2.97478E-07 4.72894E-15
3.21752E-07 4.07556E-15
3.46978E-07 3.53173E-15
3.73156E-07 3.07722E-15
4.00286E-07 2.69406E-15
4.28368E-07 2.36988E-15
4.57402E-07 2.09357E-15
4.87388E-07 1.85716E-15
5.18325E-07 1.65364E-15
5.50215E-07 1.47773E-15
5.83057E-07 1.32497E-15
6.16850E-07 1.19174E-15
6.51596E-07 1.07513E-15
6.87293E-07 9.72582E-16
7.23942E-07 8.82228E-16
7.61543E-07 8.02154E-16
1.18991E-06 3.46603E-16
1.71347E-06 1.73674E-16
2.33223E-06 9.62381E-17
3.04617E-06 5.74287E-17
3.85531E-06 3.62900E-17
4.75964E-06 2.40100E-17
5.75916E-06 1.64956E-17
6.85388E-06 1.16955E-17
8.04378E-06 8.51680E-18
9.32888E-06 6.34591E-18
1.07092E-05 4.82336E-18
1.21846E-05 3.73050E-18
1.37553E-05 2.92992E-18
1.54212E-05 2.33277E-18
1.71822E-05 1.88012E-18
1.90385E-05 1.53200E-18
2.09899E-05 1.26082E-18
2.30365E-05 1.04702E-18
2.51783E-05 8.76651E-19
2.74153E-05 7.39540E-19
2.97475E-05 6.28200E-19
3.21749E-05 5.37035E-19
3.46974E-05 4.61818E-19
3.73152E-05 3.99316E-19
4.00281E-05 3.47037E-19
4.28362E-05 3.03037E-19
4.57395E-05 2.65793E-19
4.87380E-05 2.34096E-19
5.18317E-05 2.06985E-19
5.50205E-05 1.83686E-19
5.83045E-05 1.63574E-19
6.16838E-05 1.46140E-19
6.51582E-05 1.30967E-19
6.87277E-05 1.17713E-19
7.23925E-05 1.06094E-19
7.61524E-05 9.58713E-20
9.21439E-05 6.54696E-20
1.09658E-04 4.62172E-20
1.28695E-04 3.35486E-20
1.49255E-04 2.49374E-20
1.71338E-04 1.89198E-20
1.94942E-04 1.46122E-20
2.20070E-04 1.14634E-20
2.46720E-04 9.11875E-21
2.74892E-04 7.34386E-21
3.04586E-04 5.98043E-21
3.35803E-04 4.91913E-21
3.68542E-04 4.08308E-21
4.02802E-04 3.41728E-21
4.38585E-04 2.88177E-21
4.75889E-04 2.44712E-21
5.14715E-04 2.09139E-21
5.55063E-04 1.79798E-21
5.96931E-04 1.55424E-21
6.40321E-04 1.35042E-21
6.85233E-04 1.17893E-21
7.31665E-04 1.03380E-21
7.79618E-04 9.10318E-22
8.29092E-04 8.04725E-22
8.80086E-04 7.13999E-22
9.32601E-04 6.35698E-22
9.86636E-04 5.67835E-22
1.04219E-03 5.08785E-22
1.09927E-03 4.57210E-22
1.15786E-03 4.12003E-22
1.21797E-03 3.72244E-22
1.27961E-03 3.37163E-22
1.34276E-03 3.06116E-22
1.40743E-03 2.78559E-22
1.47362E-03 2.54032E-22
1.54133E-03 2.32144E-22
1.61056E-03 2.12560E-22
1.68131E-03 1.94998E-22
1.75357E-03 1.79210E-22
1.82735E-03 1.64987E-22
1.90265E-03 1.52146E-22
1.97947E-03 1.40529E-22
2.05780E-03 1.29998E-22
2.13765E-03 1.20435E-22
2.21902E-03 1.11735E-22
2.30190E-03 1.03805E-22
2.38630E-03 9.65651E-23
2.47222E-03 8.99451E-23
2.55965E-03 8.38821E-23
2.64859E-03 7.83208E-23
2.73905E-03 7.32123E-23
2.83103E-03 6.85131E-23
2.92452E-03 6.41844E-23
3.01952E-03 6.01918E-23
3.11604E-03 5.65044E-23
3.21407E-03 5.30947E-23
3.31362E-03 4.99380E-23
3.41468E-03 4.70122E-23
3.51725E-03 4.42971E-23
3.62133E-03 4.17750E-23
3.72692E-03 3.94296E-23
3.83403E-03 3.72462E-23
3.94265E-03 3.52117E-23
4.05278E-03 3.33139E-23
4.16442E-03 3.15421E-23
4.27757E-03 2.98864E-23
4.39223E-03 2.83376E-23
4.50840E-03 2.68878E-23
4.62608E-03 2.55293E-23
4.74527E-03 2.42554E-23
4.86597E-03 2.30598E-23
4.98817E-03 2.19368E-23
5.11188E-03 2.08813E-23
5.23711E-03 1.98883E-23
5.36383E-03 1.89536E-23
5.49207E-03 1.80730E-23
5.62181E-03 1.72429E-23
5.75306E-03 1.64598E-23
5.88581E-03 1.57205E-23
6.02007E-03 1.50222E-23
6.15583E-03 1.43622E-23
6.29310E-03 1.37379E-23
6.43187E-03 1.31472E-23
6.57214E-03 1.25877E-23
6.71392E-03 1.20576E-23
6.85720E-03 1.15551E-23
7.00198E-03 1.10785E-23
7.14827E-03 1.06260E-23
7.29605E-03 1.01964E-23
7.44534E-03 9.78828E-24
7.59612E-03 9.40028E-24
7.97965E-03 8.51097E-24
8.37255E-03 7.72412E-24
8.77480E-03 7.02591E-24
9.18641E-03 6.40463E-24
9.60736E-03 5.85035E-24
1.00376E-02 5.35458E-24
1.04773E-02 4.91009E-24
1.09262E-02 4.51063E-24
1.13844E-02 4.15086E-24
1.18520E-02 3.82614E-24
1.23288E-02 3.53246E-24
1.28150E-02 3.26632E-24
1.33104E-02 3.02470E-24
1.38150E-02 2.80493E-24
1.43290E-02 2.60469E-24
1.48521E-02 2.42194E-24
1.53845E-02 2.25488E-24
1.59262E-02 2.10191E-24
1.64770E-02 1.96165E-24
1.70371E-02 1.83284E-24
1.76063E-02 1.71439E-24
1.81848E-02 1.60532E-24
1.87724E-02 1.50474E-24
1.93692E-02 1.41188E-24
1.99751E-02 1.32604E-24
2.05901E-02 1.24659E-24
2.12143E-02 1.17298E-24
2.18476E-02 1.10469E-24
2.24900E-02 1.04127E-24
2.31415E-02 9.82318E-25
2.38021E-02 9.27454E-25
2.44717E-02 8.76345E-25
2.51504E-02 8.28689E-25
2.58382E-02 7.84210E-25
2.65349E-02 7.42657E-25
2.72407E-02 7.03803E-25
2.79555E-02 6.67441E-25
2.86793E-02 6.33382E-25
2.94120E-02 6.01454E-25
3.01537E-02 5.71500E-25
3.09043E-02 5.43374E-25
3.16639E-02 5.16945E-25
3.24324E-02 4.92093E-25
3.32098E-02 4.68705E-25
3.39961E-02 4.46680E-25
3.47912E-02 4.25924E-25
3.55952E-02 4.06350E-25
3.64081E-02 3.87879E-25
3.72297E-02 3.70437E-25
3.80602E-02 3.53957E-25
3.88995E-02 3.38375E-25
3.97476E-02 3.23635E-25
4.06044E-02 3.09681E-25
4.14700E-02 2.96465E-25
4.23443E-02 2.83940E-25
4.32273E-02 2.72064E-25
4.41190E-02 2.60796E-25
4.50194E-02 2.50100E-25
4.59284E-02 2.39942E-25
4.68461E-02 2.30289E-25
4.87074E-02 2.12383E-25
5.06030E-02 1.96167E-25
5.25328E-02 1.81454E-25
5.44967E-02 1.68081E-25
5.64946E-02 1.55904E-25
5.85262E-02 1.44798E-25
6.05914E-02 1.34653E-25
6.26901E-02 1.25370E-25
6.48222E-02 1.16864E-25
6.69873E-02 1.09058E-25
6.91854E-02 1.01885E-25
7.14163E-02 9.52839E-26
7.36799E-02 8.92018E-26
7.59760E-02 8.35905E-26
7.83043E-02 7.84073E-26
8.06647E-02 7.36136E-26
8.30571E-02 6.91752E-26
8.54812E-02 6.50611E-26
8.79369E-02 6.12434E-26
9.04240E-02 5.76970E-26
9.29422E-02 5.43993E-26
9.54915E-02 5.13298E-26
9.80716E-02 4.84699E-26
1.00682E-01 4.58028E-26
1.03323E-01 4.33132E-26
1.05995E-01 4.09872E-26
1.08696E-01 3.88122E-26
1.11427E-01 3.67766E-26
1.14188E-01 3.48701E-26
1.16978E-01 3.30828E-26
1.19797E-01 3.14062E-26
1.22645E-01 2.98321E-26
1.25522E-01 2.83531E-26
1.28428E-01 2.69625E-26
1.31361E-01 2.56542E-26
1.34323E-01 2.44223E-26
1.37313E-01 2.32616E-26
1.40330E-01 2.21674E-26
1.43375E-01 2.11350E-26
1.46447E-01 2.01605E-26
1.49545E-01 1.92400E-26
1.52671E-01 1.83700E-26
1.55823E-01 1.75472E-26
1.59001E-01 1.67687E-26
1.62205E-01 1.60316E-26
1.65435E-01 1.53333E-26
1.68690E-01 1.46715E-26
1.71970E-01 1.40439E-26
1.75276E-01 1.34485E-26
1.78606E-01 1.28832E-26
1.81961E-01 1.23464E-26
1.85340E-01 1.18363E-26
1.88743E-01 1.13514E-26
1.92169E-01 1.08902E-26
1.95619E-01 1.04513E-26
1.99092E-01 1.00335E-26
2.02589E-01 9.63567E-27
2.06107E-01 9.25659E-27
2.09649E-01 8.89525E-27
2.13212E-01 8.55069E-27
2.16797E-01 8.22199E-27
2.20404E-01 7.90829E-27
2.24032E-01 7.60881E-27
2.27680E-01 7.32277E-27
2.31350E-01 7.04948E-27
2.35040E-01 6.78827E-27
2.38751E-01 6.53851E-27
2.42481E-01 6.29963E-27
2.46231E-01 6.07105E-27
2.50000E-01 5.85227E-27
2.53788E-01 5.64280E-27
2.57595E-01 5.44216E-27
2.61421E-01 5.24993E-27
2.65264E-01 5.06570E-27
2.69126E-01 4.88907E-27
2.73005E-01 4.71968E-27
2.76901E-01 4.55718E-27
2.80814E-01 4.40124E-27
2.84744E-01 4.25157E-27
2.88691E-01 4.10785E-27
2.92653E-01 3.96982E-27
2.96632E-01 3.83722E-27
3.00625E-01 3.70978E-27
3.04634E-01 3.58729E-27
3.08658E-01 3.46952E-27
3.12697E-01 3.35625E-27
3.16749E-01 3.24728E-27
3.20816E-01 3.14243E-27
3.24896E-01 3.04152E-27
3.28990E-01 2.94436E-27
3.33097E-01 2.85080E-27
3.37216E-01 2.76069E-27
3.41348E-01 2.67387E-27
3.45492E-01 2.59021E-27
3.49647E-01 2.50957E-27
3.53814E-01 2.43183E-27
3.57992E-01 2.35686E-27
3.62181E-01 2.28455E-27
3.66381E-01 2.21479E-27
3.70590E-01 2.14748E-27
3.74810E-01 2.08252E-27
3.79039E-01 2.01980E-27
3.83277E-01 1.95925E-27
3.87524E-01 1.90078E-27
3.91780E-01 1.84429E-27
3.96044E-01 1.78972E-27
4.00316E-01 1.73699E-27
4.04596E-01 1.68603E-27
4.08882E-01 1.63677E-27
4.13176E-01 1.58914E-27
4.17476E-01 1.54308E-27
4.21783E-01 1.49853E-27
4.26095E-01 1.45543E-27
4.30413E-01 1.41374E-27
4.34737E-01 1.37339E-27
4.39065E-01 1.33433E-27
4.43398E-01 1.29653E-27
4.47736E-01 1.25993E-27
4.52077E-01 1.22448E-27
4.56422E-01 1.19015E-27
4.60770E-01 1.15690E-27
4.65122E-01 1.12469E-27
4.69476E-01 1.09347E-27
4.73832E-01 1.06322E-27
4.78190E-01 1.03389E-27
4.82550E-01 1.00547E-27
4.86912E-01 9.77907E-28
4.91274E-01 9.51181E-28
4.95637E-01 9.25262E-28
5.00000E-01 9.00121E-28
5.04363E-01 8.75731E-28
5.08726E-01 8.52067E-28
5.13088E-01 8.29103E-28
5.17450E-01 8.06817E-28
5.21810E-01 7.85185E-28
5.26168E-01 7.64186E-28
5.30524E-01 7.43797E-28
5.34878E-01 7.24000E-28
5.39230E-01 7.04774E-28
5.43578E-01 6.86100E-28
5.47923E-01 6.67961E-28
5.52264E-01 6.50338E-28
5.56602E-01 6.33216E-28
5.60935E-01 6.16577E-28
5.65263E-01 6.00407E-28
5.69587E-01 5.84691E-28
5.73905E-01 5.69413E-28
5.78217E-01 5.54560E-28
5.82524E-01 5.40119E-28
5.86824E-01 5.26076E-28
5.91118E-01 5.12419E-28
5.95404E-01 4.99137E-28
5.99684E-01 4.86217E-28
6.03956E-01 4.73648E-28
6.08220E-01 4.61419E-28
6.12476E-01 4.49521E-28
6.16723E-01 4.37942E-28
6.20961E-01 4.26674E-28
6.25190E-01 4.15706E-28
6.29410E-01 4.05031E-28
6.33619E-01 3.94638E-28
6.37819E-01 3.84520E-28
6.42008E-01 3.74668E-28
6.46186E-01 3.65075E-28
6.50353E-01 3.55732E-28
6.54508E-01 3.46633E-28
6.58652E-01 3.37771E-28
6.62784E-01 3.29138E-28
6.66903E-01 3.20727E-28
6.71010E-01 3.12533E-28
6.75104E-01 3.04550E-28
6.79184E-01 2.96770E-28
6.83251E-01 2.89189E-28
6.87303E-01 2.81800E-28
6.91342E-01 2.74599E-28
6.95366E-01 2.67580E-28
6.99375E-01 2.60737E-28
7.03368E-01 2.54066E-28
7.07347E-01 2.47563E-28
7.11309E-01 2.41221E-28
7.15256E-01 2.35038E-28
7.19186E-01 2.29009E-28
7.23099E-01 2.23128E-28
7.26995E-01 2.17393E-28
7.30874E-01 2.11800E-28
7.34736E-01 2.06344E-28
7.38579E-01 2.01021E-28
7.42405E-01 1.95829E-28
7.46212E-01 1.90764E-28
7.50000E-01 1.85822E-28
7.53769E-01 1.80999E-28
7.57519E-01 1.76294E-28
7.61249E-01 1.71703E-28
7.64960E-01 1.67222E-28
7.68650E-01 1.62849E-28
7.72320E-01 1.58582E-28
7.75968E-01 1.54417E-28
7.79596E-01 1.50351E-28
7.83203E-01 1.46382E-28
7.86788E-01 1.42508E-28
7.90351E-01 1.38727E-28
7.93893E-01 1.35035E-28
7.97411E-01 1.31431E-28
8.00908E-01 1.27912E-28
8.04381E-01 1.24476E-28
8.07831E-01 1.21122E-28
8.11257E-01 1.17846E-28
8.14660E-01 1.14648E-28
8.18039E-01 1.11525E-28
8.21394E-01 1.08475E-28
8.24724E-01 1.05497E-28
8.28030E-01 1.02589E-28
8.31310E-01 9.97489E-29
8.34565E-01 9.69752E-29
8.37795E-01 9.42664E-29
8.40999E-01 9.16209E-29
8.44177E-01 8.90371E-29
8.47329E-01 8.65137E-29
8.50455E-01 8.40492E-29
8.53553E-01 8.16422E-29
8.56625E-01 7.92914E-29
8.59670E-01 7.69953E-29
8.62687E-01 7.47528E-29
8.65677E-01 7.25627E-29
8.68639E-01 7.04236E-29
8.71572E-01 6.83345E-29
8.74478E-01 6.62942E-29
8.77355E-01 6.43015E-29
8.80203E-01 6.23555E-29
8.83022E-01 6.04550E-29
8.85812E-01 5.85991E-29
8.88573E-01 5.67867E-29
8.91304E-01 5.50170E-29
8.94005E-01 5.32888E-29
8.96677E-01 5.16015E-29
8.99318E-01 4.99539E-29
9.01928E-01 4.83454E-29
9.04508E-01 4.67750E-29
9.07058E-01 4.52420E-29
9.09576E-01 4.37456E-29
9.12063E-01 4.22849E-29
9.14519E-01 4.08593E-29
9.16943E-01 3.94679E-29
9.19335E-01 3.81102E-29
9.21696E-01 3.67854E-29
9.24024E-01 3.54929E-29
9.26320E-01 3.42319E-29
9.28584E-01 3.30019E-29
9.30815E-01 3.18023E-29
9.33013E-01 3.06324E-29
9.35178E-01 2.94917E-29
9.37310E-01 2.83797E-29
9.39409E-01 2.72957E-29
9.41474E-01 2.62392E-29
9.43505E-01 2.52097E-29
9.45503E-01 2.42068E-29
9.47467E-01 2.32299E-29
9.49397E-01 2.22785E-29
9.51293E-01 2.13523E-29
9.53154E-01 2.04507E-29
9.54981E-01 1.95733E-29
9.56773E-01 1.87197E-29
9.58530E-01 1.78895E-29
9.60252E-01 1.70823E-29
9.61940E-01 1.62978E-29
9.63592E-01 1.55354E-29
9.65209E-01 1.47950E-29
9.66790E-01 1.40761E-29
9.68336E-01 1.33783E-29
9.69846E-01 1.27015E-29
9.71321E-01 1.20452E-29
9.72759E-01 1.14091E-29
9.74162E-01 1.07930E-29
9.75528E-01 1.01966E-29
9.76858E-01 9.61951E-30
9.78152E-01 9.06157E-30
9.79410E-01 8.52250E-30
9.80631E-01 8.00205E-30
9.81815E-01 7.49998E-30
9.82963E-01 7.01605E-30
9.84074E-01 6.55004E-30
9.85148E-01 6.10175E-30
9.86185E-01 5.67097E-30
9.87185E-01 5.25749E-30
9.88148E-01 4.86114E-30
9.89074E-01 4.48173E-30
9.89962E-01 4.11910E-30
9.90814E-01 3.77307E-30
9.91627E-01 3.44349E-30
9.92404E-01 3.13021E-30
9.93143E-01 2.83310E-30
9.93844E-01 2.55201E-30
9.94508E-01 2.28683E-30
9.95134E-01 2.03742E-30
9.95722E-01 1.80368E-30
9.96273E-01 1.58551E-30
9.96786E-01 1.38280E-30
9.97261E-01 1.19548E-30
9.97698E-01 1.02344E-30
9.98097E-01 8.66617E-31
9.98459E-01 7.24941E-31
9.98782E-01 5.98351E-31
9.99067E-01 4.86782E-31
9.99315E-01 3.90191E-31
9.99524E-01 3.08532E-31
9.99695E-01 2.41769E-31
9.99829E-01 1.89876E-31
9.99924E-01 1.52822E-31
9.99981E-01 1.30602E-31
1.00000E+00 1.23189E-31
