 #
 # Subroutine ELSEPA. Elastic scattering of electrons and positrons
 #                    by neutral atoms and positive ions
 #
 # Projectile: positron
 # Kinetic energy = 1.50000E+08 eV = 5.51240E+06 a.u.
 #
 # WARNING: High-energy factorization with free-atom DF screening.
 #          Absorption, polarization and exchange corrections are
 #          switched off.
 #          Phase shifts are calculated for the bare nucleus.
 #          Scattering amplitudes are not evaluated.
 #
 # Element: Ne,  Z =  10,  atomic weight = 2.01797E+01 g/mol
 #
 # Nuclear model: Fermi distribution
 #                Average radius = 2.91310E-13 cm
 #                Skin thickness = 5.46000E-14 cm
 #
 # Number of electrons = 10
 #
 # Total elastic cross section = 2.93484E-19 cm**2 = 1.04805E-02 a0**2
 # 1st transport cross section = 9.62772E-27 cm**2 = 3.43812E-10 a0**2
 # 2nd transport cross section = 2.86774E-26 cm**2 = 1.02409E-09 a0**2
 #
 #
 # Differential cross section:                       MU=(1-COS(THETA))/2
 #
 #  THETA        MU          DCS          DCS        Sherman      error
 #  (deg)                 (cm**2/sr)   (a0**2/sr)    function
 #----------------------------------------------------------------------
0.00000E+00 2.35869E-11
7.61557E-13 2.35529E-11
1.18994E-12 2.35339E-11
1.71346E-12 2.35108E-11
2.33225E-12 2.34836E-11
3.04617E-12 2.34522E-11
3.85530E-12 2.34168E-11
4.75964E-12 2.33772E-11
5.75917E-12 2.33337E-11
6.85391E-12 2.32861E-11
8.04379E-12 2.32346E-11
9.32893E-12 2.31792E-11
1.07092E-11 2.31198E-11
1.21847E-11 2.30566E-11
1.37554E-11 2.29897E-11
1.54213E-11 2.29189E-11
1.71823E-11 2.28444E-11
1.90386E-11 2.27663E-11
2.09900E-11 2.26846E-11
2.30367E-11 2.25994E-11
2.51785E-11 2.25107E-11
2.74156E-11 2.24186E-11
2.97478E-11 2.23231E-11
3.21752E-11 2.22244E-11
3.46979E-11 2.21225E-11
3.73157E-11 2.20175E-11
4.00286E-11 2.19094E-11
4.28368E-11 2.17983E-11
4.57402E-11 2.16843E-11
4.87388E-11 2.15675E-11
5.18325E-11 2.14480E-11
5.50215E-11 2.13258E-11
5.83057E-11 2.12008E-11
6.16850E-11 2.10733E-11
6.51595E-11 2.09434E-11
6.87293E-11 2.08076E-11
7.23943E-11 2.06577E-11
7.61544E-11 2.05093E-11
1.18991E-10 1.90311E-11
1.71347E-10 1.74294E-11
2.33223E-10 1.57815E-11
3.04617E-10 1.41517E-11
3.85531E-10 1.25891E-11
4.75965E-10 1.11269E-11
5.75917E-10 9.78491E-12
6.85389E-10 8.57143E-12
8.04380E-10 7.48682E-12
9.32891E-10 6.52600E-12
1.07092E-09 5.68072E-12
1.21847E-09 4.94119E-12
1.37554E-09 4.29704E-12
1.54213E-09 3.73630E-12
1.71823E-09 3.25156E-12
1.90386E-09 2.83331E-12
2.09900E-09 2.47290E-12
2.30367E-09 2.16235E-12
2.51785E-09 1.89456E-12
2.74156E-09 1.66333E-12
2.97478E-09 1.46333E-12
3.21752E-09 1.29006E-12
3.46978E-09 1.13972E-12
3.73156E-09 1.00913E-12
4.00286E-09 8.95565E-13
4.28368E-09 7.96703E-13
4.57402E-09 7.10520E-13
4.87388E-09 6.35249E-13
5.18326E-09 5.69348E-13
5.50215E-09 5.11484E-13
5.83057E-09 4.60501E-13
6.16850E-09 4.15470E-13
6.51596E-09 3.75595E-13
6.87293E-09 3.40160E-13
7.23942E-09 3.08695E-13
7.61544E-09 2.80863E-13
1.18991E-08 1.21073E-13
1.71347E-08 6.06641E-14
2.33223E-08 3.39083E-14
3.04617E-08 2.05280E-14
3.85531E-08 1.31894E-14
4.75965E-08 8.87149E-15
5.75917E-08 6.18911E-15
6.85389E-08 4.44778E-15
8.04380E-08 3.27693E-15
9.32891E-08 2.46615E-15
1.07092E-07 1.89020E-15
1.21847E-07 1.47228E-15
1.37554E-07 1.16322E-15
1.54213E-07 9.30739E-16
1.71823E-07 7.53286E-16
1.90386E-07 6.15993E-16
2.09900E-07 5.08457E-16
2.30367E-07 4.23305E-16
2.51785E-07 3.55188E-16
2.74156E-07 3.00187E-16
2.97478E-07 2.55399E-16
3.21752E-07 2.18635E-16
3.46978E-07 1.88235E-16
3.73156E-07 1.62927E-16
4.00286E-07 1.41722E-16
4.28368E-07 1.23850E-16
4.57402E-07 1.08703E-16
4.87388E-07 9.57974E-17
5.18325E-07 8.47485E-17
5.50215E-07 7.52451E-17
5.83057E-07 6.70352E-17
6.16850E-07 5.99135E-17
6.51596E-07 5.37119E-17
6.87293E-07 4.82911E-17
7.23942E-07 4.35367E-17
7.61543E-07 3.93526E-17
1.18991E-06 1.61406E-17
1.71347E-06 7.78782E-18
2.33223E-06 4.20457E-18
3.04617E-06 2.46486E-18
3.85531E-06 1.53877E-18
4.75964E-06 1.00955E-18
5.75916E-06 6.89511E-19
6.85388E-06 4.86821E-19
8.04378E-06 3.53430E-19
9.32888E-06 2.62752E-19
1.07092E-05 1.99376E-19
1.21846E-05 1.54007E-19
1.37553E-05 1.20838E-19
1.54212E-05 9.61369E-20
1.71822E-05 7.74365E-20
1.90385E-05 6.30682E-20
2.09899E-05 5.18847E-20
2.30365E-05 4.30735E-20
2.51783E-05 3.60554E-20
2.74153E-05 3.04099E-20
2.97475E-05 2.58271E-20
3.21749E-05 2.20759E-20
3.46974E-05 1.89816E-20
3.73152E-05 1.64110E-20
4.00281E-05 1.42612E-20
4.28362E-05 1.24521E-20
4.57395E-05 1.09210E-20
4.87380E-05 9.61810E-21
5.18317E-05 8.50379E-21
5.50205E-05 7.54624E-21
5.83045E-05 6.71973E-21
6.16838E-05 6.00332E-21
6.51582E-05 5.37989E-21
6.87277E-05 4.83531E-21
7.23925E-05 4.35793E-21
7.61524E-05 3.93636E-21
9.21439E-05 2.68782E-21
1.09658E-04 1.89721E-21
1.28695E-04 1.37700E-21
1.49255E-04 1.02343E-21
1.71338E-04 7.76360E-22
1.94942E-04 5.99518E-22
2.20070E-04 4.70258E-22
2.46720E-04 3.74014E-22
2.74892E-04 3.01165E-22
3.04586E-04 2.45209E-22
3.35803E-04 2.01656E-22
3.68542E-04 1.67350E-22
4.02802E-04 1.40033E-22
4.38585E-04 1.18063E-22
4.75889E-04 1.00234E-22
5.14715E-04 8.56432E-23
5.55063E-04 7.36102E-23
5.96931E-04 6.36156E-23
6.40321E-04 5.52588E-23
6.85233E-04 4.82283E-23
7.31665E-04 4.22795E-23
7.79618E-04 3.72187E-23
8.29092E-04 3.28917E-23
8.80086E-04 2.91744E-23
9.32601E-04 2.59668E-23
9.86636E-04 2.31872E-23
1.04219E-03 2.07689E-23
1.09927E-03 1.86571E-23
1.15786E-03 1.68064E-23
1.21797E-03 1.51790E-23
1.27961E-03 1.37434E-23
1.34276E-03 1.24730E-23
1.40743E-03 1.13457E-23
1.47362E-03 1.03426E-23
1.54133E-03 9.44749E-24
1.61056E-03 8.64686E-24
1.68131E-03 7.92898E-24
1.75357E-03 7.28381E-24
1.82735E-03 6.70269E-24
1.90265E-03 6.17816E-24
1.97947E-03 5.70374E-24
2.05780E-03 5.27381E-24
2.13765E-03 4.88345E-24
2.21902E-03 4.52838E-24
2.30190E-03 4.20485E-24
2.38630E-03 3.90957E-24
2.47222E-03 3.63962E-24
2.55965E-03 3.39245E-24
2.64859E-03 3.16580E-24
2.73905E-03 2.95766E-24
2.83103E-03 2.76624E-24
2.92452E-03 2.58997E-24
3.01952E-03 2.42744E-24
3.11604E-03 2.27737E-24
3.21407E-03 2.13865E-24
3.31362E-03 2.01026E-24
3.41468E-03 1.89129E-24
3.51725E-03 1.78093E-24
3.62133E-03 1.67845E-24
3.72692E-03 1.58318E-24
3.83403E-03 1.49452E-24
3.94265E-03 1.41193E-24
4.05278E-03 1.33492E-24
4.16442E-03 1.26304E-24
4.27757E-03 1.19590E-24
4.39223E-03 1.13312E-24
4.50840E-03 1.07436E-24
4.62608E-03 1.01934E-24
4.74527E-03 9.67752E-25
4.86597E-03 9.19359E-25
4.98817E-03 8.73922E-25
5.11188E-03 8.31229E-25
5.23711E-03 7.91084E-25
5.36383E-03 7.53307E-25
5.49207E-03 7.17734E-25
5.62181E-03 6.84212E-25
5.75306E-03 6.52602E-25
5.88581E-03 6.22775E-25
6.02007E-03 5.94613E-25
6.15583E-03 5.68004E-25
6.29310E-03 5.42849E-25
6.43187E-03 5.19054E-25
6.57214E-03 4.96531E-25
6.71392E-03 4.75200E-25
6.85720E-03 4.54986E-25
7.00198E-03 4.35821E-25
7.14827E-03 4.17641E-25
7.29605E-03 4.00385E-25
7.44534E-03 3.83997E-25
7.59612E-03 3.68427E-25
7.97965E-03 3.32770E-25
8.37255E-03 3.01261E-25
8.77480E-03 2.73336E-25
9.18641E-03 2.48522E-25
9.60736E-03 2.26413E-25
1.00376E-02 2.06665E-25
1.04773E-02 1.88985E-25
1.09262E-02 1.73120E-25
1.13844E-02 1.58852E-25
1.18520E-02 1.45993E-25
1.23288E-02 1.34382E-25
1.28150E-02 1.23876E-25
1.33104E-02 1.14354E-25
1.38150E-02 1.05707E-25
1.43290E-02 9.78422E-26
1.48521E-02 9.06764E-26
1.53845E-02 8.41372E-26
1.59262E-02 7.81609E-26
1.64770E-02 7.26907E-26
1.70371E-02 6.76769E-26
1.76063E-02 6.30748E-26
1.81848E-02 5.88452E-26
1.87724E-02 5.49529E-26
1.93692E-02 5.13665E-26
1.99751E-02 4.80580E-26
2.05901E-02 4.50023E-26
2.12143E-02 4.21770E-26
2.18476E-02 3.95617E-26
2.24900E-02 3.71384E-26
2.31415E-02 3.48906E-26
2.38021E-02 3.28035E-26
2.44717E-02 3.08638E-26
2.51504E-02 2.90594E-26
2.58382E-02 2.73793E-26
2.65349E-02 2.58135E-26
2.72407E-02 2.43530E-26
2.79555E-02 2.29897E-26
2.86793E-02 2.17159E-26
2.94120E-02 2.05249E-26
3.01537E-02 1.94104E-26
3.09043E-02 1.83668E-26
3.16639E-02 1.73888E-26
3.24324E-02 1.64716E-26
3.32098E-02 1.56109E-26
3.39961E-02 1.48026E-26
3.47912E-02 1.40431E-26
3.55952E-02 1.33289E-26
3.64081E-02 1.26569E-26
3.72297E-02 1.20242E-26
3.80602E-02 1.14283E-26
3.88995E-02 1.08665E-26
3.97476E-02 1.03367E-26
4.06044E-02 9.83680E-27
4.14700E-02 9.36481E-27
4.23443E-02 8.91894E-27
4.32273E-02 8.49754E-27
4.41190E-02 8.09906E-27
4.50194E-02 7.72207E-27
4.59284E-02 7.36523E-27
4.68461E-02 7.02732E-27
4.87074E-02 6.40374E-27
5.06030E-02 5.84304E-27
5.25328E-02 5.33800E-27
5.44967E-02 4.88237E-27
5.64946E-02 4.47067E-27
5.85262E-02 4.09810E-27
6.05914E-02 3.76045E-27
6.26901E-02 3.45404E-27
6.48222E-02 3.17559E-27
6.69873E-02 2.92225E-27
6.91854E-02 2.69145E-27
7.14163E-02 2.48095E-27
7.36799E-02 2.28875E-27
7.59760E-02 2.11306E-27
7.83043E-02 1.95230E-27
8.06647E-02 1.80505E-27
8.30571E-02 1.67004E-27
8.54812E-02 1.54614E-27
8.79369E-02 1.43233E-27
9.04240E-02 1.32770E-27
9.29422E-02 1.23144E-27
9.54915E-02 1.14279E-27
9.80716E-02 1.06109E-27
1.00682E-01 9.85750E-28
1.03323E-01 9.16213E-28
1.05995E-01 8.51991E-28
1.08696E-01 7.92637E-28
1.11427E-01 7.37746E-28
1.14188E-01 6.86951E-28
1.16978E-01 6.39918E-28
1.19797E-01 5.96342E-28
1.22645E-01 5.55947E-28
1.25522E-01 5.18479E-28
1.28428E-01 4.83709E-28
1.31361E-01 4.51426E-28
1.34323E-01 4.21436E-28
1.37313E-01 3.93564E-28
1.40330E-01 3.67648E-28
1.43375E-01 3.43540E-28
1.46447E-01 3.21105E-28
1.49545E-01 3.00217E-28
1.52671E-01 2.80762E-28
1.55823E-01 2.62635E-28
1.59001E-01 2.45739E-28
1.62205E-01 2.29984E-28
1.65435E-01 2.15288E-28
1.68690E-01 2.01576E-28
1.71970E-01 1.88776E-28
1.75276E-01 1.76826E-28
1.78606E-01 1.65664E-28
1.81961E-01 1.55236E-28
1.85340E-01 1.45491E-28
1.88743E-01 1.36382E-28
1.92169E-01 1.27864E-28
1.95619E-01 1.19898E-28
1.99092E-01 1.12445E-28
2.02589E-01 1.05472E-28
2.06107E-01 9.89450E-29
2.09649E-01 9.28347E-29
2.13212E-01 8.71133E-29
2.16797E-01 8.17548E-29
2.20404E-01 7.67353E-29
2.24032E-01 7.20323E-29
2.27680E-01 6.76251E-29
2.31350E-01 6.34944E-29
2.35040E-01 5.96220E-29
2.38751E-01 5.59913E-29
2.42481E-01 5.25866E-29
2.46231E-01 4.93933E-29
2.50000E-01 4.63978E-29
2.53788E-01 4.35875E-29
2.57595E-01 4.09506E-29
2.61421E-01 3.84761E-29
2.65264E-01 3.61536E-29
2.69126E-01 3.39735E-29
2.73005E-01 3.19268E-29
2.76901E-01 3.00052E-29
2.80814E-01 2.82009E-29
2.84744E-01 2.65064E-29
2.88691E-01 2.49150E-29
2.92653E-01 2.34202E-29
2.96632E-01 2.20160E-29
3.00625E-01 2.06968E-29
3.04634E-01 1.94574E-29
3.08658E-01 1.82928E-29
3.12697E-01 1.71985E-29
3.16749E-01 1.61701E-29
3.20816E-01 1.52036E-29
3.24896E-01 1.42952E-29
3.28990E-01 1.34414E-29
3.33097E-01 1.26388E-29
3.37216E-01 1.18843E-29
3.41348E-01 1.11750E-29
3.45492E-01 1.05082E-29
3.49647E-01 9.88121E-30
3.53814E-01 9.29172E-30
3.57992E-01 8.73743E-30
3.62181E-01 8.21623E-30
3.66381E-01 7.72612E-30
3.70590E-01 7.26523E-30
3.74810E-01 6.83181E-30
3.79039E-01 6.42420E-30
3.83277E-01 6.04086E-30
3.87524E-01 5.68034E-30
3.91780E-01 5.34127E-30
3.96044E-01 5.02237E-30
4.00316E-01 4.72244E-30
4.04596E-01 4.44033E-30
4.08882E-01 4.17500E-30
4.13176E-01 3.92544E-30
4.17476E-01 3.69070E-30
4.21783E-01 3.46992E-30
4.26095E-01 3.26225E-30
4.30413E-01 3.06693E-30
4.34737E-01 2.88321E-30
4.39065E-01 2.71041E-30
4.43398E-01 2.54787E-30
4.47736E-01 2.39500E-30
4.52077E-01 2.25121E-30
4.56422E-01 2.11598E-30
4.60770E-01 1.98878E-30
4.65122E-01 1.86915E-30
4.69476E-01 1.75664E-30
4.73832E-01 1.65082E-30
4.78190E-01 1.55130E-30
4.82550E-01 1.45771E-30
4.86912E-01 1.36969E-30
4.91274E-01 1.28692E-30
4.95637E-01 1.20909E-30
5.00000E-01 1.13590E-30
5.04363E-01 1.06707E-30
5.08726E-01 1.00236E-30
5.13088E-01 9.41509E-31
5.17450E-01 8.84297E-31
5.21810E-01 8.30508E-31
5.26168E-01 7.79937E-31
5.30524E-01 7.32395E-31
5.34878E-01 6.87702E-31
5.39230E-01 6.45690E-31
5.43578E-01 6.06198E-31
5.47923E-01 5.69078E-31
5.52264E-01 5.34189E-31
5.56602E-01 5.01399E-31
5.60935E-01 4.70583E-31
5.65263E-01 4.41623E-31
5.69587E-01 4.14410E-31
5.73905E-01 3.88840E-31
5.78217E-01 3.64814E-31
5.82524E-01 3.42242E-31
5.86824E-01 3.21035E-31
5.91118E-01 3.01114E-31
5.95404E-01 2.82401E-31
5.99684E-01 2.64825E-31
6.03956E-01 2.48317E-31
6.08220E-01 2.32814E-31
6.12476E-01 2.18255E-31
6.16723E-01 2.04585E-31
6.20961E-01 1.91749E-31
6.25190E-01 1.79698E-31
6.29410E-01 1.68385E-31
6.33619E-01 1.57766E-31
6.37819E-01 1.47799E-31
6.42008E-01 1.38444E-31
6.46186E-01 1.29665E-31
6.50353E-01 1.21428E-31
6.54508E-01 1.13698E-31
6.58652E-01 1.06447E-31
6.62784E-01 9.96450E-32
6.66903E-01 9.32645E-32
6.71010E-01 8.72805E-32
6.75104E-01 8.16686E-32
6.79184E-01 7.64065E-32
6.83251E-01 7.14728E-32
6.87303E-01 6.68477E-32
6.91342E-01 6.25121E-32
6.95366E-01 5.84486E-32
6.99375E-01 5.46406E-32
7.03368E-01 5.10724E-32
7.07347E-01 4.77293E-32
7.11309E-01 4.45975E-32
7.15256E-01 4.16641E-32
7.19186E-01 3.89169E-32
7.23099E-01 3.63444E-32
7.26995E-01 3.39358E-32
7.30874E-01 3.16811E-32
7.34736E-01 2.95706E-32
7.38579E-01 2.75955E-32
7.42405E-01 2.57474E-32
7.46212E-01 2.40184E-32
7.50000E-01 2.24010E-32
7.53769E-01 2.08883E-32
7.57519E-01 1.94738E-32
7.61249E-01 1.81513E-32
7.64960E-01 1.69150E-32
7.68650E-01 1.57596E-32
7.72320E-01 1.46799E-32
7.75968E-01 1.36711E-32
7.79596E-01 1.27289E-32
7.83203E-01 1.18488E-32
7.86788E-01 1.10271E-32
7.90351E-01 1.02600E-32
7.93893E-01 9.54403E-33
7.97411E-01 8.87589E-33
8.00908E-01 8.25254E-33
8.04381E-01 7.67110E-33
8.07831E-01 7.12887E-33
8.11257E-01 6.62332E-33
8.14660E-01 6.15208E-33
8.18039E-01 5.71293E-33
8.21394E-01 5.30377E-33
8.24724E-01 4.92265E-33
8.28030E-01 4.56774E-33
8.31310E-01 4.23733E-33
8.34565E-01 3.92978E-33
8.37795E-01 3.64361E-33
8.40999E-01 3.37739E-33
8.44177E-01 3.12980E-33
8.47329E-01 2.89960E-33
8.50455E-01 2.68564E-33
8.53553E-01 2.48681E-33
8.56625E-01 2.30211E-33
8.59670E-01 2.13057E-33
8.62687E-01 1.97132E-33
8.65677E-01 1.82350E-33
8.68639E-01 1.68636E-33
8.71572E-01 1.55914E-33
8.74478E-01 1.44118E-33
8.77355E-01 1.33183E-33
8.80203E-01 1.23049E-33
8.83022E-01 1.13661E-33
8.85812E-01 1.04967E-33
8.88573E-01 9.69186E-34
8.91304E-01 8.94695E-34
8.94005E-01 8.25777E-34
8.96677E-01 7.62034E-34
8.99318E-01 7.03098E-34
9.01928E-01 6.48625E-34
9.04508E-01 5.98292E-34
9.07058E-01 5.51799E-34
9.09576E-01 5.08868E-34
9.12063E-01 4.69237E-34
9.14519E-01 4.32664E-34
9.16943E-01 3.98924E-34
9.19335E-01 3.67805E-34
9.21696E-01 3.39112E-34
9.24024E-01 3.12663E-34
9.26320E-01 2.88287E-34
9.28584E-01 2.65827E-34
9.30815E-01 2.45140E-34
9.33013E-01 2.26087E-34
9.35178E-01 2.08542E-34
9.37310E-01 1.92387E-34
9.39409E-01 1.77516E-34
9.41474E-01 1.63826E-34
9.43505E-01 1.51227E-34
9.45503E-01 1.39629E-34
9.47467E-01 1.28949E-34
9.49397E-01 1.19123E-34
9.51293E-01 1.10073E-34
9.53154E-01 1.01739E-34
9.54981E-01 9.40634E-35
9.56773E-01 8.69932E-35
9.58530E-01 8.04734E-35
9.60252E-01 7.44646E-35
9.61940E-01 6.89211E-35
9.63592E-01 6.38048E-35
9.65209E-01 5.90796E-35
9.66790E-01 5.47121E-35
9.68336E-01 5.06762E-35
9.69846E-01 4.69372E-35
9.71321E-01 4.34769E-35
9.72759E-01 4.02650E-35
9.74162E-01 3.72890E-35
9.75528E-01 3.45222E-35
9.76858E-01 3.19480E-35
9.78152E-01 2.95558E-35
9.79410E-01 2.73248E-35
9.80631E-01 2.52449E-35
9.81815E-01 2.33021E-35
9.82963E-01 2.14881E-35
9.84074E-01 1.97899E-35
9.85148E-01 1.82022E-35
9.86185E-01 1.67122E-35
9.87185E-01 1.53183E-35
9.88148E-01 1.40123E-35
9.89074E-01 1.27849E-35
9.89962E-01 1.16355E-35
9.90814E-01 1.05574E-35
9.91627E-01 9.54570E-36
9.92404E-01 8.59627E-36
9.93143E-01 7.70917E-36
9.93844E-01 6.87763E-36
9.94508E-01 6.10183E-36
9.95134E-01 5.37958E-36
9.95722E-01 4.70846E-36
9.96273E-01 4.08561E-36
9.96786E-01 3.51176E-36
9.97261E-01 2.98199E-36
9.97698E-01 2.49978E-36
9.98097E-01 2.06204E-36
9.98459E-01 1.66810E-36
9.98782E-01 1.31460E-36
9.99067E-01 1.00641E-36
9.99315E-01 7.39669E-37
9.99524E-01 5.14232E-37
9.99695E-01 3.30735E-37
9.99829E-01 1.87098E-37
9.99924E-01 8.57635E-38
9.99981E-01 2.44588E-38
1.00000E+00 4.06964E-39
