 #
 # Subroutine ELSEPA. Elastic scattering of electrons and positrons
 #                    by neutral atoms and positive ions
 #
 # Projectile: positron
 # Kinetic energy = 9.00000E+06 eV = 3.30744E+05 a.u.
 #
 # WARNING: High-energy factorization with free-atom DF screening.
 #          Absorption, polarization and exchange corrections are
 #          switched off.
 #          Phase shifts are calculated for the bare nucleus.
 #          Scattering amplitudes are not evaluated.
 #
 # Element: Ne,  Z =  10,  atomic weight = 2.01797E+01 g/mol
 #
 # Nuclear model: Fermi distribution
 #                Average radius = 2.91310E-13 cm
 #                Skin thickness = 5.46000E-14 cm
 #
 # Number of electrons = 10
 #
 # Total elastic cross section = 2.94338E-19 cm**2 = 1.05110E-02 a0**2
 # 1st transport cross section = 1.84451E-24 cm**2 = 6.58685E-08 a0**2
 # 2nd transport cross section = 5.33186E-24 cm**2 = 1.90404E-07 a0**2
 #
 #
 # Differential cross section:                       MU=(1-COS(THETA))/2
 #
 #  THETA        MU          DCS          DCS        Sherman      error
 #  (deg)                 (cm**2/sr)   (a0**2/sr)    function
 #----------------------------------------------------------------------
0.00000E+00 9.41860E-14
7.61557E-13 9.41853E-14
1.18994E-12 9.41850E-14
1.71346E-12 9.41846E-14
2.33225E-12 9.41841E-14
3.04617E-12 9.41836E-14
3.85530E-12 9.41830E-14
4.75964E-12 9.41823E-14
5.75917E-12 9.41816E-14
6.85391E-12 9.41808E-14
8.04379E-12 9.41799E-14
9.32893E-12 9.41790E-14
1.07092E-11 9.41780E-14
1.21847E-11 9.41769E-14
1.37554E-11 9.41758E-14
1.54213E-11 9.41746E-14
1.71823E-11 9.41733E-14
1.90386E-11 9.41720E-14
2.09900E-11 9.41706E-14
2.30367E-11 9.41691E-14
2.51785E-11 9.41676E-14
2.74156E-11 9.41660E-14
2.97478E-11 9.41643E-14
3.21752E-11 9.41626E-14
3.46979E-11 9.41608E-14
3.73157E-11 9.41589E-14
4.00286E-11 9.41570E-14
4.28368E-11 9.41550E-14
4.57402E-11 9.41529E-14
4.87388E-11 9.41508E-14
5.18325E-11 9.41486E-14
5.50215E-11 9.41463E-14
5.83057E-11 9.41440E-14
6.16850E-11 9.41416E-14
6.51595E-11 9.41391E-14
6.87293E-11 9.41366E-14
7.23943E-11 9.41340E-14
7.61544E-11 9.41313E-14
1.18991E-10 9.41010E-14
1.71347E-10 9.40640E-14
2.33223E-10 9.40204E-14
3.04617E-10 9.39702E-14
3.85531E-10 9.39134E-14
4.75965E-10 9.38499E-14
5.75917E-10 9.37799E-14
6.85389E-10 9.37035E-14
8.04380E-10 9.36203E-14
9.32891E-10 9.35307E-14
1.07092E-09 9.34348E-14
1.21847E-09 9.33322E-14
1.37554E-09 9.32233E-14
1.54213E-09 9.31082E-14
1.71823E-09 9.29864E-14
1.90386E-09 9.28584E-14
2.09900E-09 9.27245E-14
2.30367E-09 9.25838E-14
2.51785E-09 9.24371E-14
2.74156E-09 9.22846E-14
2.97478E-09 9.21254E-14
3.21752E-09 9.19604E-14
3.46978E-09 9.17899E-14
3.73156E-09 9.16126E-14
4.00286E-09 9.14297E-14
4.28368E-09 9.12415E-14
4.57402E-09 9.10466E-14
4.87388E-09 9.08462E-14
5.18326E-09 9.06409E-14
5.50215E-09 9.04288E-14
5.83057E-09 9.02116E-14
6.16850E-09 8.99896E-14
6.51596E-09 8.97610E-14
6.87293E-09 8.95274E-14
7.23942E-09 8.92893E-14
7.61544E-09 8.90447E-14
1.18991E-08 8.63310E-14
1.71347E-08 8.31699E-14
2.33223E-08 7.95033E-14
3.04617E-08 7.56804E-14
3.85531E-08 7.18455E-14
4.75965E-08 6.75759E-14
5.75917E-08 6.34130E-14
6.85389E-08 5.94255E-14
8.04380E-08 5.52334E-14
9.32891E-08 5.12898E-14
1.07092E-07 4.76104E-14
1.21847E-07 4.39034E-14
1.37554E-07 4.04845E-14
1.54213E-07 3.73437E-14
1.71823E-07 3.42728E-14
1.90386E-07 3.14704E-14
2.09900E-07 2.89181E-14
2.30367E-07 2.64730E-14
2.51785E-07 2.42537E-14
2.74156E-07 2.22415E-14
2.97478E-07 2.03414E-14
3.21752E-07 1.86214E-14
3.46978E-07 1.70656E-14
3.73156E-07 1.56122E-14
4.00286E-07 1.42984E-14
4.28368E-07 1.31113E-14
4.57402E-07 1.20107E-14
4.87388E-07 1.10156E-14
5.18325E-07 1.01162E-14
5.50215E-07 9.28651E-15
5.83057E-07 8.53523E-15
6.16850E-07 7.85493E-15
6.51596E-07 7.22842E-15
6.87293E-07 6.65957E-15
7.23942E-07 6.14306E-15
7.61543E-07 5.66738E-15
1.18991E-06 2.66607E-15
1.71347E-06 1.37677E-15
2.33223E-06 7.72669E-16
3.04617E-06 4.66057E-16
3.85531E-06 2.98179E-16
4.75964E-06 2.00139E-16
5.75916E-06 1.39712E-16
6.85388E-06 1.00723E-16
8.04378E-06 7.45618E-17
9.32888E-06 5.64439E-17
1.07092E-05 4.35489E-17
1.21846E-05 3.41464E-17
1.37553E-05 2.71571E-17
1.54212E-05 2.18705E-17
1.71822E-05 1.78068E-17
1.90385E-05 1.46427E-17
2.09899E-05 1.21498E-17
2.30365E-05 1.01628E-17
2.51783E-05 8.56405E-18
2.74153E-05 7.26631E-18
2.97475E-05 6.20374E-18
3.21749E-05 5.32748E-18
3.46974E-05 4.59987E-18
3.73152E-05 3.99157E-18
4.00281E-05 3.48006E-18
4.28362E-05 3.04755E-18
4.57395E-05 2.67979E-18
4.87380E-05 2.36560E-18
5.18317E-05 2.09592E-18
5.50205E-05 1.86340E-18
5.83045E-05 1.66210E-18
6.16838E-05 1.48716E-18
6.51582E-05 1.33454E-18
6.87277E-05 1.20092E-18
7.23925E-05 1.08357E-18
7.61524E-05 9.80149E-19
9.21439E-05 6.71463E-19
1.09658E-04 4.75052E-19
1.28695E-04 3.45373E-19
1.49255E-04 2.57012E-19
1.71338E-04 1.95154E-19
1.94942E-04 1.50816E-19
2.20070E-04 1.18373E-19
2.46720E-04 9.41957E-20
2.74892E-04 7.58832E-20
3.04586E-04 6.18092E-20
3.35803E-04 5.08498E-20
3.68542E-04 4.22138E-20
4.02802E-04 3.53346E-20
4.38585E-04 2.98005E-20
4.75889E-04 2.53081E-20
5.14715E-04 2.16307E-20
5.55063E-04 1.85972E-20
5.96931E-04 1.60771E-20
6.40321E-04 1.39695E-20
6.85233E-04 1.21960E-20
7.31665E-04 1.06950E-20
7.79618E-04 9.41791E-21
8.29092E-04 8.32560E-21
8.80086E-04 7.38708E-21
9.32601E-04 6.57707E-21
9.86636E-04 5.87504E-21
1.04219E-03 5.26417E-21
1.09927E-03 4.73063E-21
1.15786E-03 4.26295E-21
1.21797E-03 3.85163E-21
1.27961E-03 3.48870E-21
1.34276E-03 3.16750E-21
1.40743E-03 2.88241E-21
1.47362E-03 2.62865E-21
1.54133E-03 2.40220E-21
1.61056E-03 2.19959E-21
1.68131E-03 2.01788E-21
1.75357E-03 1.85454E-21
1.82735E-03 1.70739E-21
1.90265E-03 1.57453E-21
1.97947E-03 1.45433E-21
2.05780E-03 1.34538E-21
2.13765E-03 1.24643E-21
2.21902E-03 1.15641E-21
2.30190E-03 1.07435E-21
2.38630E-03 9.99447E-22
2.47222E-03 9.30948E-22
2.55965E-03 8.68213E-22
2.64859E-03 8.10668E-22
2.73905E-03 7.57807E-22
2.83103E-03 7.09181E-22
2.92452E-03 6.64389E-22
3.01952E-03 6.23074E-22
3.11604E-03 5.84917E-22
3.21407E-03 5.49633E-22
3.31362E-03 5.16967E-22
3.41468E-03 4.86689E-22
3.51725E-03 4.58593E-22
3.62133E-03 4.32492E-22
3.72692E-03 4.08220E-22
3.83403E-03 3.85625E-22
3.94265E-03 3.64569E-22
4.05278E-03 3.44929E-22
4.16442E-03 3.26592E-22
4.27757E-03 3.09456E-22
4.39223E-03 2.93428E-22
4.50840E-03 2.78422E-22
4.62608E-03 2.64362E-22
4.74527E-03 2.51177E-22
4.86597E-03 2.38803E-22
4.98817E-03 2.27180E-22
5.11188E-03 2.16254E-22
5.23711E-03 2.05977E-22
5.36383E-03 1.96302E-22
5.49207E-03 1.87187E-22
5.62181E-03 1.78594E-22
5.75306E-03 1.70488E-22
5.88581E-03 1.62836E-22
6.02007E-03 1.55608E-22
6.15583E-03 1.48775E-22
6.29310E-03 1.42313E-22
6.43187E-03 1.36197E-22
6.57214E-03 1.30406E-22
6.71392E-03 1.24918E-22
6.85720E-03 1.19716E-22
7.00198E-03 1.14781E-22
7.14827E-03 1.10098E-22
7.29605E-03 1.05650E-22
7.44534E-03 1.01424E-22
7.59612E-03 9.74072E-23
7.97965E-03 8.81996E-23
8.37255E-03 8.00525E-23
8.77480E-03 7.28229E-23
9.18641E-03 6.63895E-23
9.60736E-03 6.06497E-23
1.00376E-02 5.55155E-23
1.04773E-02 5.09121E-23
1.09262E-02 4.67749E-23
1.13844E-02 4.30486E-23
1.18520E-02 3.96851E-23
1.23288E-02 3.66429E-23
1.28150E-02 3.38860E-23
1.33104E-02 3.13828E-23
1.38150E-02 2.91059E-23
1.43290E-02 2.70312E-23
1.48521E-02 2.51376E-23
1.53845E-02 2.34065E-23
1.59262E-02 2.18213E-23
1.64770E-02 2.03677E-23
1.70371E-02 1.90327E-23
1.76063E-02 1.78050E-23
1.81848E-02 1.66744E-23
1.87724E-02 1.56318E-23
1.93692E-02 1.46691E-23
1.99751E-02 1.37791E-23
2.05901E-02 1.29554E-23
2.12143E-02 1.21921E-23
2.18476E-02 1.14839E-23
2.24900E-02 1.08262E-23
2.31415E-02 1.02148E-23
2.38021E-02 9.64573E-24
2.44717E-02 9.11558E-24
2.51504E-02 8.62120E-24
2.58382E-02 8.15974E-24
2.65349E-02 7.72861E-24
2.72407E-02 7.32545E-24
2.79555E-02 6.94811E-24
2.86793E-02 6.59465E-24
2.94120E-02 6.26327E-24
3.01537E-02 5.95234E-24
3.09043E-02 5.66038E-24
3.16639E-02 5.38600E-24
3.24324E-02 5.12796E-24
3.32098E-02 4.88511E-24
3.39961E-02 4.65639E-24
3.47912E-02 4.44083E-24
3.55952E-02 4.23753E-24
3.64081E-02 4.04566E-24
3.72297E-02 3.86447E-24
3.80602E-02 3.69324E-24
3.88995E-02 3.53134E-24
3.97476E-02 3.37816E-24
4.06044E-02 3.23315E-24
4.14700E-02 3.09578E-24
4.23443E-02 2.96559E-24
4.32273E-02 2.84212E-24
4.41190E-02 2.72497E-24
4.50194E-02 2.61375E-24
4.59284E-02 2.50811E-24
4.68461E-02 2.40772E-24
4.87074E-02 2.22146E-24
5.06030E-02 2.05274E-24
5.25328E-02 1.89962E-24
5.44967E-02 1.76042E-24
5.64946E-02 1.63364E-24
5.85262E-02 1.51797E-24
6.05914E-02 1.41229E-24
6.26901E-02 1.31556E-24
6.48222E-02 1.22691E-24
6.69873E-02 1.14553E-24
6.91854E-02 1.07073E-24
7.14163E-02 1.00187E-24
7.36799E-02 9.38413E-25
7.59760E-02 8.79849E-25
7.83043E-02 8.25736E-25
8.06647E-02 7.75676E-25
8.30571E-02 7.29312E-25
8.54812E-02 6.86322E-25
8.79369E-02 6.46418E-25
9.04240E-02 6.09338E-25
9.29422E-02 5.74846E-25
9.54915E-02 5.42731E-25
9.80716E-02 5.12799E-25
1.00682E-01 4.84876E-25
1.03323E-01 4.58802E-25
1.05995E-01 4.34433E-25
1.08696E-01 4.11638E-25
1.11427E-01 3.90298E-25
1.14188E-01 3.70302E-25
1.16978E-01 3.51550E-25
1.19797E-01 3.33953E-25
1.22645E-01 3.17425E-25
1.25522E-01 3.01891E-25
1.28428E-01 2.87279E-25
1.31361E-01 2.73526E-25
1.34323E-01 2.60572E-25
1.37313E-01 2.48361E-25
1.40330E-01 2.36845E-25
1.43375E-01 2.25976E-25
1.46447E-01 2.15711E-25
1.49545E-01 2.06011E-25
1.52671E-01 1.96839E-25
1.55823E-01 1.88162E-25
1.59001E-01 1.79947E-25
1.62205E-01 1.72166E-25
1.65435E-01 1.64792E-25
1.68690E-01 1.57800E-25
1.71970E-01 1.51166E-25
1.75276E-01 1.44869E-25
1.78606E-01 1.38888E-25
1.81961E-01 1.33206E-25
1.85340E-01 1.27804E-25
1.88743E-01 1.22665E-25
1.92169E-01 1.17776E-25
1.95619E-01 1.13122E-25
1.99092E-01 1.08689E-25
2.02589E-01 1.04464E-25
2.06107E-01 1.00438E-25
2.09649E-01 9.65974E-26
2.13212E-01 9.29335E-26
2.16797E-01 8.94365E-26
2.20404E-01 8.60973E-26
2.24032E-01 8.29076E-26
2.27680E-01 7.98595E-26
2.31350E-01 7.69456E-26
2.35040E-01 7.41589E-26
2.38751E-01 7.14930E-26
2.42481E-01 6.89416E-26
2.46231E-01 6.64990E-26
2.50000E-01 6.41597E-26
2.53788E-01 6.19186E-26
2.57595E-01 5.97707E-26
2.61421E-01 5.77117E-26
2.65264E-01 5.57370E-26
2.69126E-01 5.38427E-26
2.73005E-01 5.20250E-26
2.76901E-01 5.02801E-26
2.80814E-01 4.86047E-26
2.84744E-01 4.69955E-26
2.88691E-01 4.54494E-26
2.92653E-01 4.39635E-26
2.96632E-01 4.25351E-26
3.00625E-01 4.11615E-26
3.04634E-01 3.98403E-26
3.08658E-01 3.85691E-26
3.12697E-01 3.73458E-26
3.16749E-01 3.61681E-26
3.20816E-01 3.50341E-26
3.24896E-01 3.39420E-26
3.28990E-01 3.28898E-26
3.33097E-01 3.18758E-26
3.37216E-01 3.08985E-26
3.41348E-01 2.99563E-26
3.45492E-01 2.90477E-26
3.49647E-01 2.81713E-26
3.53814E-01 2.73257E-26
3.57992E-01 2.65097E-26
3.62181E-01 2.57221E-26
3.66381E-01 2.49618E-26
3.70590E-01 2.42275E-26
3.74810E-01 2.35183E-26
3.79039E-01 2.28332E-26
3.83277E-01 2.21712E-26
3.87524E-01 2.15313E-26
3.91780E-01 2.09128E-26
3.96044E-01 2.03148E-26
4.00316E-01 1.97365E-26
4.04596E-01 1.91771E-26
4.08882E-01 1.86360E-26
4.13176E-01 1.81123E-26
4.17476E-01 1.76056E-26
4.21783E-01 1.71150E-26
4.26095E-01 1.66401E-26
4.30413E-01 1.61802E-26
4.34737E-01 1.57348E-26
4.39065E-01 1.53033E-26
4.43398E-01 1.48853E-26
4.47736E-01 1.44802E-26
4.52077E-01 1.40877E-26
4.56422E-01 1.37071E-26
4.60770E-01 1.33382E-26
4.65122E-01 1.29804E-26
4.69476E-01 1.26335E-26
4.73832E-01 1.22969E-26
4.78190E-01 1.19704E-26
4.82550E-01 1.16537E-26
4.86912E-01 1.13462E-26
4.91274E-01 1.10479E-26
4.95637E-01 1.07583E-26
5.00000E-01 1.04771E-26
5.04363E-01 1.02040E-26
5.08726E-01 9.93888E-27
5.13088E-01 9.68135E-27
5.17450E-01 9.43117E-27
5.21810E-01 9.18812E-27
5.26168E-01 8.95194E-27
5.30524E-01 8.72242E-27
5.34878E-01 8.49935E-27
5.39230E-01 8.28250E-27
5.43578E-01 8.07168E-27
5.47923E-01 7.86670E-27
5.52264E-01 7.66736E-27
5.56602E-01 7.47350E-27
5.60935E-01 7.28492E-27
5.65263E-01 7.10148E-27
5.69587E-01 6.92300E-27
5.73905E-01 6.74934E-27
5.78217E-01 6.58034E-27
5.82524E-01 6.41585E-27
5.86824E-01 6.25575E-27
5.91118E-01 6.09989E-27
5.95404E-01 5.94814E-27
5.99684E-01 5.80039E-27
6.03956E-01 5.65650E-27
6.08220E-01 5.51637E-27
6.12476E-01 5.37988E-27
6.16723E-01 5.24692E-27
6.20961E-01 5.11739E-27
6.25190E-01 4.99118E-27
6.29410E-01 4.86821E-27
6.33619E-01 4.74837E-27
6.37819E-01 4.63157E-27
6.42008E-01 4.51772E-27
6.46186E-01 4.40675E-27
6.50353E-01 4.29856E-27
6.54508E-01 4.19308E-27
6.58652E-01 4.09023E-27
6.62784E-01 3.98993E-27
6.66903E-01 3.89212E-27
6.71010E-01 3.79672E-27
6.75104E-01 3.70367E-27
6.79184E-01 3.61290E-27
6.83251E-01 3.52435E-27
6.87303E-01 3.43795E-27
6.91342E-01 3.35365E-27
6.95366E-01 3.27138E-27
6.99375E-01 3.19111E-27
7.03368E-01 3.11276E-27
7.07347E-01 3.03629E-27
7.11309E-01 2.96165E-27
7.15256E-01 2.88878E-27
7.19186E-01 2.81765E-27
7.23099E-01 2.74820E-27
7.26995E-01 2.68039E-27
7.30874E-01 2.61418E-27
7.34736E-01 2.54953E-27
7.38579E-01 2.48638E-27
7.42405E-01 2.42472E-27
7.46212E-01 2.36449E-27
7.50000E-01 2.30566E-27
7.53769E-01 2.24820E-27
7.57519E-01 2.19206E-27
7.61249E-01 2.13723E-27
7.64960E-01 2.08365E-27
7.68650E-01 2.03130E-27
7.72320E-01 1.98016E-27
7.75968E-01 1.93018E-27
7.79596E-01 1.88135E-27
7.83203E-01 1.83363E-27
7.86788E-01 1.78699E-27
7.90351E-01 1.74141E-27
7.93893E-01 1.69687E-27
7.97411E-01 1.65333E-27
8.00908E-01 1.61078E-27
8.04381E-01 1.56918E-27
8.07831E-01 1.52852E-27
8.11257E-01 1.48878E-27
8.14660E-01 1.44993E-27
8.18039E-01 1.41195E-27
8.21394E-01 1.37482E-27
8.24724E-01 1.33852E-27
8.28030E-01 1.30303E-27
8.31310E-01 1.26834E-27
8.34565E-01 1.23442E-27
8.37795E-01 1.20125E-27
8.40999E-01 1.16883E-27
8.44177E-01 1.13712E-27
8.47329E-01 1.10613E-27
8.50455E-01 1.07582E-27
8.53553E-01 1.04619E-27
8.56625E-01 1.01721E-27
8.59670E-01 9.88885E-28
8.62687E-01 9.61188E-28
8.65677E-01 9.34107E-28
8.68639E-01 9.07630E-28
8.71572E-01 8.81744E-28
8.74478E-01 8.56434E-28
8.77355E-01 8.31691E-28
8.80203E-01 8.07500E-28
8.83022E-01 7.83851E-28
8.85812E-01 7.60732E-28
8.88573E-01 7.38132E-28
8.91304E-01 7.16040E-28
8.94005E-01 6.94446E-28
8.96677E-01 6.73339E-28
8.99318E-01 6.52710E-28
9.01928E-01 6.32549E-28
9.04508E-01 6.12846E-28
9.07058E-01 5.93593E-28
9.09576E-01 5.74781E-28
9.12063E-01 5.56400E-28
9.14519E-01 5.38442E-28
9.16943E-01 5.20900E-28
9.19335E-01 5.03765E-28
9.21696E-01 4.87030E-28
9.24024E-01 4.70686E-28
9.26320E-01 4.54727E-28
9.28584E-01 4.39146E-28
9.30815E-01 4.23936E-28
9.33013E-01 4.09089E-28
9.35178E-01 3.94599E-28
9.37310E-01 3.80461E-28
9.39409E-01 3.66667E-28
9.41474E-01 3.53212E-28
9.43505E-01 3.40090E-28
9.45503E-01 3.27295E-28
9.47467E-01 3.14822E-28
9.49397E-01 3.02665E-28
9.51293E-01 2.90819E-28
9.53154E-01 2.79279E-28
9.54981E-01 2.68041E-28
9.56773E-01 2.57098E-28
9.58530E-01 2.46448E-28
9.60252E-01 2.36084E-28
9.61940E-01 2.26004E-28
9.63592E-01 2.16202E-28
9.65209E-01 2.06675E-28
9.66790E-01 1.97418E-28
9.68336E-01 1.88428E-28
9.69846E-01 1.79701E-28
9.71321E-01 1.71234E-28
9.72759E-01 1.63022E-28
9.74162E-01 1.55063E-28
9.75528E-01 1.47353E-28
9.76858E-01 1.39890E-28
9.78152E-01 1.32669E-28
9.79410E-01 1.25688E-28
9.80631E-01 1.18945E-28
9.81815E-01 1.12436E-28
9.82963E-01 1.06160E-28
9.84074E-01 1.00112E-28
9.85148E-01 9.42919E-29
9.86185E-01 8.86961E-29
9.87185E-01 8.33226E-29
9.88148E-01 7.81694E-29
9.89074E-01 7.32343E-29
9.89962E-01 6.85154E-29
9.90814E-01 6.40107E-29
9.91627E-01 5.97186E-29
9.92404E-01 5.56373E-29
9.93143E-01 5.17652E-29
9.93844E-01 4.81007E-29
9.94508E-01 4.46425E-29
9.95134E-01 4.13890E-29
9.95722E-01 3.83390E-29
9.96273E-01 3.54915E-29
9.96786E-01 3.28451E-29
9.97261E-01 3.03989E-29
9.97698E-01 2.81519E-29
9.98097E-01 2.61032E-29
9.98459E-01 2.42521E-29
9.98782E-01 2.25978E-29
9.99067E-01 2.11396E-29
9.99315E-01 1.98770E-29
9.99524E-01 1.88095E-29
9.99695E-01 1.79366E-29
9.99829E-01 1.72581E-29
9.99924E-01 1.67736E-29
9.99981E-01 1.64831E-29
1.00000E+00 1.63860E-29
