 #
 # Subroutine ELSEPA. Elastic scattering of electrons and positrons
 #                    by neutral atoms and positive ions
 #
 # Projectile: positron
 # Kinetic energy = 3.00000E+06 eV = 1.10248E+05 a.u.
 #
 # WARNING: High-energy factorization with free-atom DF screening.
 #          Absorption, polarization and exchange corrections are
 #          switched off.
 #          Phase shifts are calculated for the bare nucleus.
 #          Scattering amplitudes are not evaluated.
 #
 # Element: Hf,  Z =  72,  atomic weight = 1.78490E+02 g/mol
 #
 # Nuclear model: Fermi distribution
 #                Average radius = 6.02451E-13 cm
 #                Skin thickness = 5.46000E-14 cm
 #
 # Number of electrons = 72
 #
 # Total elastic cross section = 7.46073E-18 cm**2 = 2.66427E-01 a0**2
 # 1st transport cross section = 4.80970E-22 cm**2 = 1.71757E-05 a0**2
 # 2nd transport cross section = 1.37572E-21 cm**2 = 4.91277E-05 a0**2
 #
 #
 # Differential cross section:                       MU=(1-COS(THETA))/2
 #
 #  THETA        MU          DCS          DCS        Sherman      error
 #  (deg)                 (cm**2/sr)   (a0**2/sr)    function
 #----------------------------------------------------------------------
0.00000E+00 7.78866E-13
7.61557E-13 7.78862E-13
1.18994E-12 7.78860E-13
1.71346E-12 7.78858E-13
2.33225E-12 7.78855E-13
3.04617E-12 7.78852E-13
3.85530E-12 7.78849E-13
4.75964E-12 7.78845E-13
5.75917E-12 7.78840E-13
6.85391E-12 7.78836E-13
8.04379E-12 7.78831E-13
9.32893E-12 7.78826E-13
1.07092E-11 7.78820E-13
1.21847E-11 7.78814E-13
1.37554E-11 7.78807E-13
1.54213E-11 7.78801E-13
1.71823E-11 7.78793E-13
1.90386E-11 7.78786E-13
2.09900E-11 7.78778E-13
2.30367E-11 7.78770E-13
2.51785E-11 7.78761E-13
2.74156E-11 7.78752E-13
2.97478E-11 7.78742E-13
3.21752E-11 7.78733E-13
3.46979E-11 7.78722E-13
3.73157E-11 7.78712E-13
4.00286E-11 7.78701E-13
4.28368E-11 7.78689E-13
4.57402E-11 7.78678E-13
4.87388E-11 7.78666E-13
5.18325E-11 7.78653E-13
5.50215E-11 7.78640E-13
5.83057E-11 7.78627E-13
6.16850E-11 7.78614E-13
6.51595E-11 7.78600E-13
6.87293E-11 7.78585E-13
7.23943E-11 7.78570E-13
7.61544E-11 7.78555E-13
1.18991E-10 7.78384E-13
1.71347E-10 7.78175E-13
2.33223E-10 7.77928E-13
3.04617E-10 7.77644E-13
3.85531E-10 7.77322E-13
4.75965E-10 7.76964E-13
5.75917E-10 7.76568E-13
6.85389E-10 7.76134E-13
8.04380E-10 7.75664E-13
9.32891E-10 7.75157E-13
1.07092E-09 7.74613E-13
1.21847E-09 7.74033E-13
1.37554E-09 7.73416E-13
1.54213E-09 7.72763E-13
1.71823E-09 7.72073E-13
1.90386E-09 7.71348E-13
2.09900E-09 7.70586E-13
2.30367E-09 7.69789E-13
2.51785E-09 7.68956E-13
2.74156E-09 7.68088E-13
2.97478E-09 7.67185E-13
3.21752E-09 7.66247E-13
3.46978E-09 7.65275E-13
3.73156E-09 7.64268E-13
4.00286E-09 7.63226E-13
4.28368E-09 7.62151E-13
4.57402E-09 7.61042E-13
4.87388E-09 7.59900E-13
5.18326E-09 7.58724E-13
5.50215E-09 7.57515E-13
5.83057E-09 7.56274E-13
6.16850E-09 7.55000E-13
6.51596E-09 7.53694E-13
6.87293E-09 7.52357E-13
7.23942E-09 7.50988E-13
7.61544E-09 7.49587E-13
1.18991E-08 7.33941E-13
1.71347E-08 7.15552E-13
2.33223E-08 6.94765E-13
3.04617E-08 6.72086E-13
3.85531E-08 6.47811E-13
4.75965E-08 6.22428E-13
5.75917E-08 5.96344E-13
6.85389E-08 5.69801E-13
8.04380E-08 5.43258E-13
9.32891E-08 5.16941E-13
1.07092E-07 4.91062E-13
1.21847E-07 4.65897E-13
1.37554E-07 4.41522E-13
1.54213E-07 4.18096E-13
1.71823E-07 3.95728E-13
1.90386E-07 3.74393E-13
2.09900E-07 3.54191E-13
2.30367E-07 3.35111E-13
2.51785E-07 3.17106E-13
2.74156E-07 3.00198E-13
2.97478E-07 2.84324E-13
3.21752E-07 2.69438E-13
3.46978E-07 2.55517E-13
3.73156E-07 2.42474E-13
4.00286E-07 2.30279E-13
4.28368E-07 2.18890E-13
4.57402E-07 2.08209E-13
4.87388E-07 1.98232E-13
5.18325E-07 1.88897E-13
5.50215E-07 1.80136E-13
5.83057E-07 1.71942E-13
6.16850E-07 1.64245E-13
6.51596E-07 1.57013E-13
6.87293E-07 1.50235E-13
7.23942E-07 1.43832E-13
7.61543E-07 1.37811E-13
1.18991E-06 9.29093E-14
1.71347E-06 6.54553E-14
2.33223E-06 4.68122E-14
3.04617E-06 3.50453E-14
3.85531E-06 2.62992E-14
4.75964E-06 2.02196E-14
5.75916E-06 1.58435E-14
6.85388E-06 1.24790E-14
8.04378E-06 1.00101E-14
9.32888E-06 8.11097E-15
1.07092E-05 6.61962E-15
1.21846E-05 5.46657E-15
1.37553E-05 4.53623E-15
1.54212E-05 3.79172E-15
1.71822E-05 3.19563E-15
1.90385E-05 2.69918E-15
2.09899E-05 2.29911E-15
2.30365E-05 1.96911E-15
2.51783E-05 1.69241E-15
2.74153E-05 1.46313E-15
2.97475E-05 1.27037E-15
3.21749E-05 1.10802E-15
3.46974E-05 9.71449E-16
3.73152E-05 8.55083E-16
4.00281E-05 7.56063E-16
4.28362E-05 6.71408E-16
4.57395E-05 5.98372E-16
4.87380E-05 5.35183E-16
5.18317E-05 4.80058E-16
5.50205E-05 4.31924E-16
5.83045E-05 3.89901E-16
6.16838E-05 3.52976E-16
6.51582E-05 3.20441E-16
6.87277E-05 2.91728E-16
7.23925E-05 2.66171E-16
7.61524E-05 2.43426E-16
9.21439E-05 1.73620E-16
1.09658E-04 1.27116E-16
1.28695E-04 9.52092E-17
1.49255E-04 7.26869E-17
1.71338E-04 5.64245E-17
1.94942E-04 4.44162E-17
2.20070E-04 3.54353E-17
2.46720E-04 2.86141E-17
2.74892E-04 2.33689E-17
3.04586E-04 1.92505E-17
3.35803E-04 1.60078E-17
3.68542E-04 1.34213E-17
4.02802E-04 1.13309E-17
4.38585E-04 9.63528E-18
4.75889E-04 8.24403E-18
5.14715E-04 7.09425E-18
5.55063E-04 6.13938E-18
5.96931E-04 5.33848E-18
6.40321E-04 4.66434E-18
6.85233E-04 4.09388E-18
7.31665E-04 3.60698E-18
7.79618E-04 3.19082E-18
8.29092E-04 2.83297E-18
8.80086E-04 2.52358E-18
9.32601E-04 2.25551E-18
9.86636E-04 2.02193E-18
1.04219E-03 1.81774E-18
1.09927E-03 1.63879E-18
1.15786E-03 1.48111E-18
1.21797E-03 1.34197E-18
1.27961E-03 1.21880E-18
1.34276E-03 1.10930E-18
1.40743E-03 1.01185E-18
1.47362E-03 9.24823E-19
1.54133E-03 8.46892E-19
1.61056E-03 7.77011E-19
1.68131E-03 7.14127E-19
1.75357E-03 6.57457E-19
1.82735E-03 6.06300E-19
1.90265E-03 5.59960E-19
1.97947E-03 5.17964E-19
2.05780E-03 4.79818E-19
2.13765E-03 4.45086E-19
2.21902E-03 4.13439E-19
2.30190E-03 3.84535E-19
2.38630E-03 3.58098E-19
2.47222E-03 3.33892E-19
2.55965E-03 3.11676E-19
2.64859E-03 2.91272E-19
2.73905E-03 2.72507E-19
2.83103E-03 2.55212E-19
2.92452E-03 2.39266E-19
3.01952E-03 2.24539E-19
3.11604E-03 2.10919E-19
3.21407E-03 1.98315E-19
3.31362E-03 1.86631E-19
3.41468E-03 1.75791E-19
3.51725E-03 1.65725E-19
3.62133E-03 1.56362E-19
3.72692E-03 1.47649E-19
3.83403E-03 1.39533E-19
3.94265E-03 1.31962E-19
4.05278E-03 1.24896E-19
4.16442E-03 1.18294E-19
4.27757E-03 1.12120E-19
4.39223E-03 1.06343E-19
4.50840E-03 1.00930E-19
4.62608E-03 9.58560E-20
4.74527E-03 9.10958E-20
4.86597E-03 8.66247E-20
4.98817E-03 8.24240E-20
5.11188E-03 7.84736E-20
5.23711E-03 7.47554E-20
5.36383E-03 7.12542E-20
5.49207E-03 6.79543E-20
5.62181E-03 6.48422E-20
5.75306E-03 6.19057E-20
5.88581E-03 5.91323E-20
6.02007E-03 5.65119E-20
6.15583E-03 5.40344E-20
6.29310E-03 5.16902E-20
6.43187E-03 4.94713E-20
6.57214E-03 4.73696E-20
6.71392E-03 4.53775E-20
6.85720E-03 4.34888E-20
7.00198E-03 4.16966E-20
7.14827E-03 3.99953E-20
7.29605E-03 3.83796E-20
7.44534E-03 3.68439E-20
7.59612E-03 3.53840E-20
7.97965E-03 3.20368E-20
8.37255E-03 2.90741E-20
8.77480E-03 2.64444E-20
9.18641E-03 2.41035E-20
9.60736E-03 2.20147E-20
1.00376E-02 2.01460E-20
1.04773E-02 1.84703E-20
1.09262E-02 1.69642E-20
1.13844E-02 1.56075E-20
1.18520E-02 1.43829E-20
1.23288E-02 1.32753E-20
1.28150E-02 1.22716E-20
1.33104E-02 1.13604E-20
1.38150E-02 1.05315E-20
1.43290E-02 9.77641E-21
1.48521E-02 9.08725E-21
1.53845E-02 8.45732E-21
1.59262E-02 7.88061E-21
1.64770E-02 7.35186E-21
1.70371E-02 6.86636E-21
1.76063E-02 6.41996E-21
1.81848E-02 6.00896E-21
1.87724E-02 5.63005E-21
1.93692E-02 5.28026E-21
1.99751E-02 4.95703E-21
2.05901E-02 4.65791E-21
2.12143E-02 4.38082E-21
2.18476E-02 4.12386E-21
2.24900E-02 3.88527E-21
2.31415E-02 3.66354E-21
2.38021E-02 3.45726E-21
2.44717E-02 3.26514E-21
2.51504E-02 3.08607E-21
2.58382E-02 2.91897E-21
2.65349E-02 2.76292E-21
2.72407E-02 2.61707E-21
2.79555E-02 2.48059E-21
2.86793E-02 2.35282E-21
2.94120E-02 2.23308E-21
3.01537E-02 2.12078E-21
3.09043E-02 2.01538E-21
3.16639E-02 1.91637E-21
3.24324E-02 1.82330E-21
3.32098E-02 1.73575E-21
3.39961E-02 1.65333E-21
3.47912E-02 1.57569E-21
3.55952E-02 1.50251E-21
3.64081E-02 1.43347E-21
3.72297E-02 1.36831E-21
3.80602E-02 1.30676E-21
3.88995E-02 1.24859E-21
3.97476E-02 1.19359E-21
4.06044E-02 1.14154E-21
4.14700E-02 1.09227E-21
4.23443E-02 1.04559E-21
4.32273E-02 1.00135E-21
4.41190E-02 9.59394E-22
4.50194E-02 9.19584E-22
4.59284E-02 8.81790E-22
4.68461E-02 8.45895E-22
4.87074E-02 7.79349E-22
5.06030E-02 7.19138E-22
5.25328E-02 6.64556E-22
5.44967E-02 6.14989E-22
5.64946E-02 5.69895E-22
5.85262E-02 5.28804E-22
6.05914E-02 4.91300E-22
6.26901E-02 4.57016E-22
6.48222E-02 4.25628E-22
6.69873E-02 3.96849E-22
6.91854E-02 3.70427E-22
7.14163E-02 3.46135E-22
7.36799E-02 3.23771E-22
7.59760E-02 3.03157E-22
7.83043E-02 2.84132E-22
8.06647E-02 2.66552E-22
8.30571E-02 2.50289E-22
8.54812E-02 2.35227E-22
8.79369E-02 2.21262E-22
9.04240E-02 2.08301E-22
9.29422E-02 1.96259E-22
9.54915E-02 1.85059E-22
9.80716E-02 1.74633E-22
1.00682E-01 1.64918E-22
1.03323E-01 1.55856E-22
1.05995E-01 1.47397E-22
1.08696E-01 1.39493E-22
1.11427E-01 1.32102E-22
1.14188E-01 1.25185E-22
1.16978E-01 1.18705E-22
1.19797E-01 1.12631E-22
1.22645E-01 1.06933E-22
1.25522E-01 1.01583E-22
1.28428E-01 9.65561E-23
1.31361E-01 9.18301E-23
1.34323E-01 8.73835E-23
1.37313E-01 8.31971E-23
1.40330E-01 7.92528E-23
1.43375E-01 7.55342E-23
1.46447E-01 7.20263E-23
1.49545E-01 6.87149E-23
1.52671E-01 6.55872E-23
1.55823E-01 6.26312E-23
1.59001E-01 5.98358E-23
1.62205E-01 5.71909E-23
1.65435E-01 5.46869E-23
1.68690E-01 5.23149E-23
1.71970E-01 5.00670E-23
1.75276E-01 4.79353E-23
1.78606E-01 4.59129E-23
1.81961E-01 4.39932E-23
1.85340E-01 4.21701E-23
1.88743E-01 4.04378E-23
1.92169E-01 3.87911E-23
1.95619E-01 3.72250E-23
1.99092E-01 3.57349E-23
2.02589E-01 3.43164E-23
2.06107E-01 3.29655E-23
2.09649E-01 3.16785E-23
2.13212E-01 3.04517E-23
2.16797E-01 2.92819E-23
2.20404E-01 2.81660E-23
2.24032E-01 2.71011E-23
2.27680E-01 2.60844E-23
2.31350E-01 2.51134E-23
2.35040E-01 2.41856E-23
2.38751E-01 2.32989E-23
2.42481E-01 2.24509E-23
2.46231E-01 2.16399E-23
2.50000E-01 2.08639E-23
2.53788E-01 2.01211E-23
2.57595E-01 1.94099E-23
2.61421E-01 1.87287E-23
2.65264E-01 1.80760E-23
2.69126E-01 1.74504E-23
2.73005E-01 1.68506E-23
2.76901E-01 1.62753E-23
2.80814E-01 1.57234E-23
2.84744E-01 1.51937E-23
2.88691E-01 1.46852E-23
2.92653E-01 1.41970E-23
2.96632E-01 1.37280E-23
3.00625E-01 1.32774E-23
3.04634E-01 1.28443E-23
3.08658E-01 1.24280E-23
3.12697E-01 1.20276E-23
3.16749E-01 1.16425E-23
3.20816E-01 1.12720E-23
3.24896E-01 1.09154E-23
3.28990E-01 1.05721E-23
3.33097E-01 1.02416E-23
3.37216E-01 9.92326E-24
3.41348E-01 9.61657E-24
3.45492E-01 9.32103E-24
3.49647E-01 9.03618E-24
3.53814E-01 8.76157E-24
3.57992E-01 8.49675E-24
3.62181E-01 8.24133E-24
3.66381E-01 7.99491E-24
3.70590E-01 7.75713E-24
3.74810E-01 7.52762E-24
3.79039E-01 7.30605E-24
3.83277E-01 7.09211E-24
3.87524E-01 6.88548E-24
3.91780E-01 6.68587E-24
3.96044E-01 6.49300E-24
4.00316E-01 6.30661E-24
4.04596E-01 6.12645E-24
4.08882E-01 5.95226E-24
4.13176E-01 5.78383E-24
4.17476E-01 5.62092E-24
4.21783E-01 5.46333E-24
4.26095E-01 5.31085E-24
4.30413E-01 5.16330E-24
4.34737E-01 5.02047E-24
4.39065E-01 4.88221E-24
4.43398E-01 4.74833E-24
4.47736E-01 4.61868E-24
4.52077E-01 4.49310E-24
4.56422E-01 4.37144E-24
4.60770E-01 4.25355E-24
4.65122E-01 4.13931E-24
4.69476E-01 4.02858E-24
4.73832E-01 3.92124E-24
4.78190E-01 3.81716E-24
4.82550E-01 3.71623E-24
4.86912E-01 3.61834E-24
4.91274E-01 3.52338E-24
4.95637E-01 3.43126E-24
5.00000E-01 3.34186E-24
5.04363E-01 3.25510E-24
5.08726E-01 3.17089E-24
5.13088E-01 3.08914E-24
5.17450E-01 3.00976E-24
5.21810E-01 2.93269E-24
5.26168E-01 2.85783E-24
5.30524E-01 2.78512E-24
5.34878E-01 2.71448E-24
5.39230E-01 2.64585E-24
5.43578E-01 2.57916E-24
5.47923E-01 2.51434E-24
5.52264E-01 2.45134E-24
5.56602E-01 2.39010E-24
5.60935E-01 2.33055E-24
5.65263E-01 2.27265E-24
5.69587E-01 2.21635E-24
5.73905E-01 2.16158E-24
5.78217E-01 2.10831E-24
5.82524E-01 2.05648E-24
5.86824E-01 2.00606E-24
5.91118E-01 1.95699E-24
5.95404E-01 1.90924E-24
5.99684E-01 1.86276E-24
6.03956E-01 1.81751E-24
6.08220E-01 1.77347E-24
6.12476E-01 1.73058E-24
6.16723E-01 1.68883E-24
6.20961E-01 1.64816E-24
6.25190E-01 1.60855E-24
6.29410E-01 1.56997E-24
6.33619E-01 1.53239E-24
6.37819E-01 1.49577E-24
6.42008E-01 1.46009E-24
6.46186E-01 1.42533E-24
6.50353E-01 1.39145E-24
6.54508E-01 1.35842E-24
6.58652E-01 1.32623E-24
6.62784E-01 1.29486E-24
6.66903E-01 1.26426E-24
6.71010E-01 1.23444E-24
6.75104E-01 1.20535E-24
6.79184E-01 1.17699E-24
6.83251E-01 1.14933E-24
6.87303E-01 1.12235E-24
6.91342E-01 1.09603E-24
6.95366E-01 1.07036E-24
6.99375E-01 1.04531E-24
7.03368E-01 1.02087E-24
7.07347E-01 9.97025E-25
7.11309E-01 9.73756E-25
7.15256E-01 9.51047E-25
7.19186E-01 9.28883E-25
7.23099E-01 9.07250E-25
7.26995E-01 8.86133E-25
7.30874E-01 8.65518E-25
7.34736E-01 8.45393E-25
7.38579E-01 8.25744E-25
7.42405E-01 8.06559E-25
7.46212E-01 7.87825E-25
7.50000E-01 7.69531E-25
7.53769E-01 7.51665E-25
7.57519E-01 7.34216E-25
7.61249E-01 7.17174E-25
7.64960E-01 7.00527E-25
7.68650E-01 6.84267E-25
7.72320E-01 6.68382E-25
7.75968E-01 6.52864E-25
7.79596E-01 6.37704E-25
7.83203E-01 6.22891E-25
7.86788E-01 6.08419E-25
7.90351E-01 5.94277E-25
7.93893E-01 5.80458E-25
7.97411E-01 5.66954E-25
8.00908E-01 5.53758E-25
8.04381E-01 5.40861E-25
8.07831E-01 5.28257E-25
8.11257E-01 5.15938E-25
8.14660E-01 5.03897E-25
8.18039E-01 4.92128E-25
8.21394E-01 4.80625E-25
8.24724E-01 4.69380E-25
8.28030E-01 4.58389E-25
8.31310E-01 4.47644E-25
8.34565E-01 4.37141E-25
8.37795E-01 4.26874E-25
8.40999E-01 4.16837E-25
8.44177E-01 4.07024E-25
8.47329E-01 3.97432E-25
8.50455E-01 3.88054E-25
8.53553E-01 3.78886E-25
8.56625E-01 3.69923E-25
8.59670E-01 3.61161E-25
8.62687E-01 3.52594E-25
8.65677E-01 3.44219E-25
8.68639E-01 3.36032E-25
8.71572E-01 3.28028E-25
8.74478E-01 3.20203E-25
8.77355E-01 3.12554E-25
8.80203E-01 3.05076E-25
8.83022E-01 2.97766E-25
8.85812E-01 2.90622E-25
8.88573E-01 2.83638E-25
8.91304E-01 2.76811E-25
8.94005E-01 2.70139E-25
8.96677E-01 2.63619E-25
8.99318E-01 2.57246E-25
9.01928E-01 2.51018E-25
9.04508E-01 2.44933E-25
9.07058E-01 2.38986E-25
9.09576E-01 2.33176E-25
9.12063E-01 2.27500E-25
9.14519E-01 2.21955E-25
9.16943E-01 2.16538E-25
9.19335E-01 2.11248E-25
9.21696E-01 2.06081E-25
9.24024E-01 2.01035E-25
9.26320E-01 1.96109E-25
9.28584E-01 1.91299E-25
9.30815E-01 1.86604E-25
9.33013E-01 1.82021E-25
9.35178E-01 1.77549E-25
9.37310E-01 1.73185E-25
9.39409E-01 1.68928E-25
9.41474E-01 1.64776E-25
9.43505E-01 1.60726E-25
9.45503E-01 1.56778E-25
9.47467E-01 1.52929E-25
9.49397E-01 1.49178E-25
9.51293E-01 1.45523E-25
9.53154E-01 1.41962E-25
9.54981E-01 1.38495E-25
9.56773E-01 1.35119E-25
9.58530E-01 1.31833E-25
9.60252E-01 1.28636E-25
9.61940E-01 1.25526E-25
9.63592E-01 1.22502E-25
9.65209E-01 1.19563E-25
9.66790E-01 1.16708E-25
9.68336E-01 1.13935E-25
9.69846E-01 1.11243E-25
9.71321E-01 1.08631E-25
9.72759E-01 1.06098E-25
9.74162E-01 1.03643E-25
9.75528E-01 1.01265E-25
9.76858E-01 9.89628E-26
9.78152E-01 9.67357E-26
9.79410E-01 9.45827E-26
9.80631E-01 9.25029E-26
9.81815E-01 9.04955E-26
9.82963E-01 8.85596E-26
9.84074E-01 8.66945E-26
9.85148E-01 8.48994E-26
9.86185E-01 8.31736E-26
9.87185E-01 8.15164E-26
9.88148E-01 7.99272E-26
9.89074E-01 7.84052E-26
9.89962E-01 7.69499E-26
9.90814E-01 7.55607E-26
9.91627E-01 7.42370E-26
9.92404E-01 7.29784E-26
9.93143E-01 7.17842E-26
9.93844E-01 7.06541E-26
9.94508E-01 6.95877E-26
9.95134E-01 6.85843E-26
9.95722E-01 6.76438E-26
9.96273E-01 6.67656E-26
9.96786E-01 6.59495E-26
9.97261E-01 6.51952E-26
9.97698E-01 6.45023E-26
9.98097E-01 6.38705E-26
9.98459E-01 6.32996E-26
9.98782E-01 6.27895E-26
9.99067E-01 6.23398E-26
9.99315E-01 6.19505E-26
9.99524E-01 6.16213E-26
9.99695E-01 6.13521E-26
9.99829E-01 6.11428E-26
9.99924E-01 6.09934E-26
9.99981E-01 6.09038E-26
1.00000E+00 6.08740E-26
