 #
 # Subroutine ELSEPA. Elastic scattering of electrons and positrons
 #                    by neutral atoms and positive ions
 #
 # Projectile: positron
 # Kinetic energy = 1.75000E+07 eV = 6.43113E+05 a.u.
 #
 # WARNING: High-energy factorization with free-atom DF screening.
 #          Absorption, polarization and exchange corrections are
 #          switched off.
 #          Phase shifts are calculated for the bare nucleus.
 #          Scattering amplitudes are not evaluated.
 #
 # Element: Hf,  Z =  72,  atomic weight = 1.78490E+02 g/mol
 #
 # Nuclear model: Fermi distribution
 #                Average radius = 6.02451E-13 cm
 #                Skin thickness = 5.46000E-14 cm
 #
 # Number of electrons = 72
 #
 # Total elastic cross section = 7.31974E-18 cm**2 = 2.61393E-01 a0**2
 # 1st transport cross section = 2.42019E-23 cm**2 = 8.64267E-07 a0**2
 # 2nd transport cross section = 7.03149E-23 cm**2 = 2.51099E-06 a0**2
 #
 #
 # Differential cross section:                       MU=(1-COS(THETA))/2
 #
 #  THETA        MU          DCS          DCS        Sherman      error
 #  (deg)                 (cm**2/sr)   (a0**2/sr)    function
 #----------------------------------------------------------------------
0.00000E+00 2.04964E-11
7.61557E-13 2.04942E-11
1.18994E-12 2.04930E-11
1.71346E-12 2.04915E-11
2.33225E-12 2.04897E-11
3.04617E-12 2.04877E-11
3.85530E-12 2.04854E-11
4.75964E-12 2.04829E-11
5.75917E-12 2.04801E-11
6.85391E-12 2.04770E-11
8.04379E-12 2.04737E-11
9.32893E-12 2.04701E-11
1.07092E-11 2.04662E-11
1.21847E-11 2.04621E-11
1.37554E-11 2.04577E-11
1.54213E-11 2.04530E-11
1.71823E-11 2.04481E-11
1.90386E-11 2.04429E-11
2.09900E-11 2.04375E-11
2.30367E-11 2.04317E-11
2.51785E-11 2.04258E-11
2.74156E-11 2.04195E-11
2.97478E-11 2.04130E-11
3.21752E-11 2.04063E-11
3.46979E-11 2.03993E-11
3.73157E-11 2.03920E-11
4.00286E-11 2.03844E-11
4.28368E-11 2.03767E-11
4.57402E-11 2.03686E-11
4.87388E-11 2.03603E-11
5.18325E-11 2.03517E-11
5.50215E-11 2.03429E-11
5.83057E-11 2.03338E-11
6.16850E-11 2.03245E-11
6.51595E-11 2.03149E-11
6.87293E-11 2.03050E-11
7.23943E-11 2.02949E-11
7.61544E-11 2.02845E-11
1.18991E-10 2.01672E-11
1.71347E-10 2.00253E-11
2.33223E-10 1.98598E-11
3.04617E-10 1.96716E-11
3.85531E-10 1.94620E-11
4.75965E-10 1.92321E-11
5.75917E-10 1.89833E-11
6.85389E-10 1.87169E-11
8.04380E-10 1.84337E-11
9.32891E-10 1.81365E-11
1.07092E-09 1.78270E-11
1.21847E-09 1.75047E-11
1.37554E-09 1.71727E-11
1.54213E-09 1.68332E-11
1.71823E-09 1.64854E-11
1.90386E-09 1.61320E-11
2.09900E-09 1.57755E-11
2.30367E-09 1.54149E-11
2.51785E-09 1.50526E-11
2.74156E-09 1.46908E-11
2.97478E-09 1.43286E-11
3.21752E-09 1.39677E-11
3.46978E-09 1.36104E-11
3.73156E-09 1.32557E-11
4.00286E-09 1.29048E-11
4.28368E-09 1.25596E-11
4.57402E-09 1.22192E-11
4.87388E-09 1.18843E-11
5.18326E-09 1.15567E-11
5.50215E-09 1.12354E-11
5.83057E-09 1.09208E-11
6.16850E-09 1.06142E-11
6.51596E-09 1.03150E-11
6.87293E-09 1.00229E-11
7.23942E-09 9.73930E-12
7.61544E-09 9.46344E-12
1.18991E-08 7.12539E-12
1.71347E-08 5.45512E-12
2.33223E-08 4.27005E-12
3.04617E-08 3.41283E-12
3.85531E-08 2.77570E-12
4.75965E-08 2.28879E-12
5.75917E-08 1.90740E-12
6.85389E-08 1.60278E-12
8.04380E-08 1.34197E-12
9.32891E-08 1.14023E-12
1.07092E-07 9.85070E-13
1.21847E-07 8.44474E-13
1.37554E-07 7.28852E-13
1.54213E-07 6.37004E-13
1.71823E-07 5.54781E-13
1.90386E-07 4.85380E-13
2.09900E-07 4.28781E-13
2.30367E-07 3.78347E-13
2.51785E-07 3.34910E-13
2.74156E-07 2.98720E-13
2.97478E-07 2.66418E-13
3.21752E-07 2.38118E-13
3.46978E-07 2.14126E-13
3.73156E-07 1.92630E-13
4.00286E-07 1.73522E-13
4.28368E-07 1.57091E-13
4.57402E-07 1.42319E-13
4.87388E-07 1.29033E-13
5.18325E-07 1.17472E-13
5.50215E-07 1.07052E-13
5.83057E-07 9.75972E-14
6.16850E-07 8.92872E-14
6.51596E-07 8.17827E-14
6.87293E-07 7.49299E-14
7.23942E-07 6.88544E-14
7.61543E-07 6.33576E-14
1.18991E-06 2.96061E-14
1.71347E-06 1.56416E-14
2.33223E-06 9.08599E-15
3.04617E-06 5.67484E-15
3.85531E-06 3.73197E-15
4.75964E-06 2.55413E-15
5.75916E-06 1.80612E-15
6.85388E-06 1.31164E-15
8.04378E-06 9.74148E-16
9.32888E-06 7.38954E-16
1.07092E-05 5.70623E-16
1.21846E-05 4.47587E-16
1.37553E-05 3.55956E-16
1.54212E-05 2.86539E-16
1.71822E-05 2.33280E-16
1.90385E-05 1.91758E-16
2.09899E-05 1.59263E-16
2.30365E-05 1.33355E-16
2.51783E-05 1.12465E-16
2.74153E-05 9.54875E-17
2.97475E-05 8.15898E-17
3.21749E-05 7.01336E-17
3.46974E-05 6.06272E-17
3.73152E-05 5.26855E-17
4.00281E-05 4.60044E-17
4.28362E-05 4.03529E-17
4.57395E-05 3.55433E-17
4.87380E-05 3.14275E-17
5.18317E-05 2.78884E-17
5.50205E-05 2.48306E-17
5.83045E-05 2.21790E-17
6.16838E-05 1.98720E-17
6.51582E-05 1.78575E-17
6.87277E-05 1.60923E-17
7.23925E-05 1.45399E-17
7.61524E-05 1.31695E-17
9.21439E-05 9.06457E-18
1.09658E-04 6.43840E-18
1.28695E-04 4.69711E-18
1.49255E-04 3.50562E-18
1.71338E-04 2.66876E-18
1.94942E-04 2.06707E-18
2.20070E-04 1.62567E-18
2.46720E-04 1.29596E-18
2.74892E-04 1.04568E-18
3.04586E-04 8.52972E-19
3.35803E-04 7.02645E-19
3.68542E-04 5.83993E-19
4.02802E-04 4.89340E-19
4.38585E-04 4.13090E-19
4.75889E-04 3.51113E-19
5.14715E-04 3.00320E-19
5.55063E-04 2.58376E-19
5.96931E-04 2.23495E-19
6.40321E-04 1.94296E-19
6.85233E-04 1.69706E-19
7.31665E-04 1.48878E-19
7.79618E-04 1.31144E-19
8.29092E-04 1.15967E-19
8.80086E-04 1.02920E-19
9.32601E-04 9.16526E-20
9.86636E-04 8.18819E-20
1.04219E-03 7.33761E-20
1.09927E-03 6.59442E-20
1.15786E-03 5.94271E-20
1.21797E-03 5.36934E-20
1.27961E-03 4.86331E-20
1.34276E-03 4.41533E-20
1.40743E-03 4.01762E-20
1.47362E-03 3.66357E-20
1.54133E-03 3.34755E-20
1.61056E-03 3.06477E-20
1.68131E-03 2.81114E-20
1.75357E-03 2.58313E-20
1.82735E-03 2.37769E-20
1.90265E-03 2.19221E-20
1.97947E-03 2.02441E-20
2.05780E-03 1.87230E-20
2.13765E-03 1.73417E-20
2.21902E-03 1.60849E-20
2.30190E-03 1.49395E-20
2.38630E-03 1.38940E-20
2.47222E-03 1.29379E-20
2.55965E-03 1.20624E-20
2.64859E-03 1.12594E-20
2.73905E-03 1.05219E-20
2.83103E-03 9.84352E-21
2.92452E-03 9.21874E-21
3.01952E-03 8.64254E-21
3.11604E-03 8.11048E-21
3.21407E-03 7.61856E-21
3.31362E-03 7.16322E-21
3.41468E-03 6.74124E-21
3.51725E-03 6.34974E-21
3.62133E-03 5.98613E-21
3.72692E-03 5.64806E-21
3.83403E-03 5.33341E-21
3.94265E-03 5.04027E-21
4.05278E-03 4.76691E-21
4.16442E-03 4.51173E-21
4.27757E-03 4.27333E-21
4.39223E-03 4.05038E-21
4.50840E-03 3.84172E-21
4.62608E-03 3.64625E-21
4.74527E-03 3.46300E-21
4.86597E-03 3.29106E-21
4.98817E-03 3.12960E-21
5.11188E-03 2.97787E-21
5.23711E-03 2.83518E-21
5.36383E-03 2.70089E-21
5.49207E-03 2.57441E-21
5.62181E-03 2.45521E-21
5.75306E-03 2.34279E-21
5.88581E-03 2.23670E-21
6.02007E-03 2.13651E-21
6.15583E-03 2.04183E-21
6.29310E-03 1.95232E-21
6.43187E-03 1.86762E-21
6.57214E-03 1.78745E-21
6.71392E-03 1.71150E-21
6.85720E-03 1.63952E-21
7.00198E-03 1.57127E-21
7.14827E-03 1.50650E-21
7.29605E-03 1.44502E-21
7.44534E-03 1.38663E-21
7.59612E-03 1.33113E-21
7.97965E-03 1.20400E-21
8.37255E-03 1.09160E-21
8.77480E-03 9.91934E-22
9.18641E-03 9.03318E-22
9.60736E-03 8.24318E-22
1.00376E-02 7.53713E-22
1.04773E-02 6.90457E-22
1.09262E-02 6.33655E-22
1.13844E-02 5.82536E-22
1.18520E-02 5.36433E-22
1.23288E-02 4.94769E-22
1.28150E-02 4.57042E-22
1.33104E-02 4.22817E-22
1.38150E-02 3.91712E-22
1.43290E-02 3.63393E-22
1.48521E-02 3.37568E-22
1.53845E-02 3.13977E-22
1.59262E-02 2.92395E-22
1.64770E-02 2.72621E-22
1.70371E-02 2.54475E-22
1.76063E-02 2.37802E-22
1.81848E-02 2.22460E-22
1.87724E-02 2.08324E-22
1.93692E-02 1.95284E-22
1.99751E-02 1.83238E-22
2.05901E-02 1.72099E-22
2.12143E-02 1.61785E-22
2.18476E-02 1.52225E-22
2.24900E-02 1.43353E-22
2.31415E-02 1.35112E-22
2.38021E-02 1.27449E-22
2.44717E-02 1.20316E-22
2.51504E-02 1.13670E-22
2.58382E-02 1.07472E-22
2.65349E-02 1.01686E-22
2.72407E-02 9.62797E-23
2.79555E-02 9.12242E-23
2.86793E-02 8.64924E-23
2.94120E-02 8.20601E-23
3.01537E-02 7.79049E-23
3.09043E-02 7.40061E-23
3.16639E-02 7.03455E-23
3.24324E-02 6.69058E-23
3.32098E-02 6.36711E-23
3.39961E-02 6.06273E-23
3.47912E-02 5.77610E-23
3.55952E-02 5.50598E-23
3.64081E-02 5.25128E-23
3.72297E-02 5.01095E-23
3.80602E-02 4.78403E-23
3.88995E-02 4.56965E-23
3.97476E-02 4.36698E-23
4.06044E-02 4.17527E-23
4.14700E-02 3.99383E-23
4.23443E-02 3.82200E-23
4.32273E-02 3.65918E-23
4.41190E-02 3.50482E-23
4.50194E-02 3.35840E-23
4.59284E-02 3.21944E-23
4.68461E-02 3.08748E-23
4.87074E-02 2.84297E-23
5.06030E-02 2.62184E-23
5.25328E-02 2.42150E-23
5.44967E-02 2.23964E-23
5.64946E-02 2.07429E-23
5.85262E-02 1.92369E-23
6.05914E-02 1.78629E-23
6.26901E-02 1.66075E-23
6.48222E-02 1.54587E-23
6.69873E-02 1.44059E-23
6.91854E-02 1.34397E-23
7.14163E-02 1.25518E-23
7.36799E-02 1.17347E-23
7.59760E-02 1.09819E-23
7.83043E-02 1.02875E-23
8.06647E-02 9.64595E-24
8.30571E-02 9.05260E-24
8.54812E-02 8.50330E-24
8.79369E-02 7.99421E-24
9.04240E-02 7.52189E-24
9.29422E-02 7.08324E-24
9.54915E-02 6.67543E-24
9.80716E-02 6.29594E-24
1.00682E-01 5.94245E-24
1.03323E-01 5.61288E-24
1.05995E-01 5.30534E-24
1.08696E-01 5.01810E-24
1.11427E-01 4.74959E-24
1.14188E-01 4.49838E-24
1.16978E-01 4.26317E-24
1.19797E-01 4.04276E-24
1.22645E-01 3.83606E-24
1.25522E-01 3.64207E-24
1.28428E-01 3.45988E-24
1.31361E-01 3.28865E-24
1.34323E-01 3.12760E-24
1.37313E-01 2.97603E-24
1.40330E-01 2.83328E-24
1.43375E-01 2.69875E-24
1.46447E-01 2.57189E-24
1.49545E-01 2.45219E-24
1.52671E-01 2.33916E-24
1.55823E-01 2.23239E-24
1.59001E-01 2.13146E-24
1.62205E-01 2.03599E-24
1.65435E-01 1.94565E-24
1.68690E-01 1.86010E-24
1.71970E-01 1.77906E-24
1.75276E-01 1.70224E-24
1.78606E-01 1.62939E-24
1.81961E-01 1.56026E-24
1.85340E-01 1.49464E-24
1.88743E-01 1.43231E-24
1.92169E-01 1.37309E-24
1.95619E-01 1.31679E-24
1.99092E-01 1.26324E-24
2.02589E-01 1.21228E-24
2.06107E-01 1.16378E-24
2.09649E-01 1.11759E-24
2.13212E-01 1.07358E-24
2.16797E-01 1.03163E-24
2.20404E-01 9.91627E-25
2.24032E-01 9.53470E-25
2.27680E-01 9.17057E-25
2.31350E-01 8.82294E-25
2.35040E-01 8.49095E-25
2.38751E-01 8.17377E-25
2.42481E-01 7.87063E-25
2.46231E-01 7.58080E-25
2.50000E-01 7.30361E-25
2.53788E-01 7.03840E-25
2.57595E-01 6.78458E-25
2.61421E-01 6.54157E-25
2.65264E-01 6.30883E-25
2.69126E-01 6.08586E-25
2.73005E-01 5.87219E-25
2.76901E-01 5.66735E-25
2.80814E-01 5.47092E-25
2.84744E-01 5.28250E-25
2.88691E-01 5.10171E-25
2.92653E-01 4.92819E-25
2.96632E-01 4.76160E-25
3.00625E-01 4.60161E-25
3.04634E-01 4.44792E-25
3.08658E-01 4.30025E-25
3.12697E-01 4.15831E-25
3.16749E-01 4.02184E-25
3.20816E-01 3.89061E-25
3.24896E-01 3.76438E-25
3.28990E-01 3.64292E-25
3.33097E-01 3.52603E-25
3.37216E-01 3.41351E-25
3.41348E-01 3.30516E-25
3.45492E-01 3.20081E-25
3.49647E-01 3.10028E-25
3.53814E-01 3.00341E-25
3.57992E-01 2.91005E-25
3.62181E-01 2.82005E-25
3.66381E-01 2.73327E-25
3.70590E-01 2.64958E-25
3.74810E-01 2.56884E-25
3.79039E-01 2.49093E-25
3.83277E-01 2.41575E-25
3.87524E-01 2.34318E-25
3.91780E-01 2.27311E-25
3.96044E-01 2.20545E-25
4.00316E-01 2.14009E-25
4.04596E-01 2.07696E-25
4.08882E-01 2.01595E-25
4.13176E-01 1.95699E-25
4.17476E-01 1.90000E-25
4.21783E-01 1.84490E-25
4.26095E-01 1.79162E-25
4.30413E-01 1.74008E-25
4.34737E-01 1.69023E-25
4.39065E-01 1.64200E-25
4.43398E-01 1.59533E-25
4.47736E-01 1.55015E-25
4.52077E-01 1.50642E-25
4.56422E-01 1.46408E-25
4.60770E-01 1.42308E-25
4.65122E-01 1.38337E-25
4.69476E-01 1.34491E-25
4.73832E-01 1.30764E-25
4.78190E-01 1.27153E-25
4.82550E-01 1.23654E-25
4.86912E-01 1.20261E-25
4.91274E-01 1.16973E-25
4.95637E-01 1.13784E-25
5.00000E-01 1.10692E-25
5.04363E-01 1.07693E-25
5.08726E-01 1.04784E-25
5.13088E-01 1.01962E-25
5.17450E-01 9.92232E-26
5.21810E-01 9.65657E-26
5.26168E-01 9.39863E-26
5.30524E-01 9.14825E-26
5.34878E-01 8.90517E-26
5.39230E-01 8.66914E-26
5.43578E-01 8.43994E-26
5.47923E-01 8.21733E-26
5.52264E-01 8.00109E-26
5.56602E-01 7.79102E-26
5.60935E-01 7.58692E-26
5.65263E-01 7.38859E-26
5.69587E-01 7.19584E-26
5.73905E-01 7.00850E-26
5.78217E-01 6.82638E-26
5.82524E-01 6.64933E-26
5.86824E-01 6.47718E-26
5.91118E-01 6.30978E-26
5.95404E-01 6.14698E-26
5.99684E-01 5.98862E-26
6.03956E-01 5.83459E-26
6.08220E-01 5.68473E-26
6.12476E-01 5.53893E-26
6.16723E-01 5.39705E-26
6.20961E-01 5.25897E-26
6.25190E-01 5.12459E-26
6.29410E-01 4.99378E-26
6.33619E-01 4.86645E-26
6.37819E-01 4.74247E-26
6.42008E-01 4.62177E-26
6.46186E-01 4.50422E-26
6.50353E-01 4.38975E-26
6.54508E-01 4.27827E-26
6.58652E-01 4.16967E-26
6.62784E-01 4.06388E-26
6.66903E-01 3.96082E-26
6.71010E-01 3.86041E-26
6.75104E-01 3.76257E-26
6.79184E-01 3.66722E-26
6.83251E-01 3.57430E-26
6.87303E-01 3.48373E-26
6.91342E-01 3.39545E-26
6.95366E-01 3.30939E-26
6.99375E-01 3.22550E-26
7.03368E-01 3.14370E-26
7.07347E-01 3.06394E-26
7.11309E-01 2.98617E-26
7.15256E-01 2.91033E-26
7.19186E-01 2.83636E-26
7.23099E-01 2.76422E-26
7.26995E-01 2.69384E-26
7.30874E-01 2.62520E-26
7.34736E-01 2.55823E-26
7.38579E-01 2.49290E-26
7.42405E-01 2.42915E-26
7.46212E-01 2.36695E-26
7.50000E-01 2.30625E-26
7.53769E-01 2.24702E-26
7.57519E-01 2.18922E-26
7.61249E-01 2.13280E-26
7.64960E-01 2.07773E-26
7.68650E-01 2.02398E-26
7.72320E-01 1.97151E-26
7.75968E-01 1.92029E-26
7.79596E-01 1.87029E-26
7.83203E-01 1.82147E-26
7.86788E-01 1.77380E-26
7.90351E-01 1.72726E-26
7.93893E-01 1.68181E-26
7.97411E-01 1.63744E-26
8.00908E-01 1.59410E-26
8.04381E-01 1.55178E-26
8.07831E-01 1.51045E-26
8.11257E-01 1.47009E-26
8.14660E-01 1.43067E-26
8.18039E-01 1.39216E-26
8.21394E-01 1.35455E-26
8.24724E-01 1.31781E-26
8.28030E-01 1.28193E-26
8.31310E-01 1.24688E-26
8.34565E-01 1.21264E-26
8.37795E-01 1.17919E-26
8.40999E-01 1.14651E-26
8.44177E-01 1.11459E-26
8.47329E-01 1.08341E-26
8.50455E-01 1.05294E-26
8.53553E-01 1.02318E-26
8.56625E-01 9.94105E-27
8.59670E-01 9.65700E-27
8.62687E-01 9.37950E-27
8.65677E-01 9.10839E-27
8.68639E-01 8.84354E-27
8.71572E-01 8.58479E-27
8.74478E-01 8.33202E-27
8.77355E-01 8.08509E-27
8.80203E-01 7.84386E-27
8.83022E-01 7.60821E-27
8.85812E-01 7.37802E-27
8.88573E-01 7.15317E-27
8.91304E-01 6.93353E-27
8.94005E-01 6.71900E-27
8.96677E-01 6.50947E-27
8.99318E-01 6.30483E-27
9.01928E-01 6.10498E-27
9.04508E-01 5.90981E-27
9.07058E-01 5.71922E-27
9.09576E-01 5.53313E-27
9.12063E-01 5.35143E-27
9.14519E-01 5.17404E-27
9.16943E-01 5.00087E-27
9.19335E-01 4.83183E-27
9.21696E-01 4.66684E-27
9.24024E-01 4.50583E-27
9.26320E-01 4.34870E-27
9.28584E-01 4.19539E-27
9.30815E-01 4.04582E-27
9.33013E-01 3.89992E-27
9.35178E-01 3.75761E-27
9.37310E-01 3.61884E-27
9.39409E-01 3.48353E-27
9.41474E-01 3.35163E-27
9.43505E-01 3.22306E-27
9.45503E-01 3.09777E-27
9.47467E-01 2.97570E-27
9.49397E-01 2.85679E-27
9.51293E-01 2.74098E-27
9.53154E-01 2.62823E-27
9.54981E-01 2.51848E-27
9.56773E-01 2.41168E-27
9.58530E-01 2.30777E-27
9.60252E-01 2.20673E-27
9.61940E-01 2.10848E-27
9.63592E-01 2.01300E-27
9.65209E-01 1.92024E-27
9.66790E-01 1.83016E-27
9.68336E-01 1.74271E-27
9.69846E-01 1.65785E-27
9.71321E-01 1.57556E-27
9.72759E-01 1.49578E-27
9.74162E-01 1.41849E-27
9.75528E-01 1.34365E-27
9.76858E-01 1.27123E-27
9.78152E-01 1.20120E-27
9.79410E-01 1.13352E-27
9.80631E-01 1.06816E-27
9.81815E-01 1.00510E-27
9.82963E-01 9.44305E-28
9.84074E-01 8.85753E-28
9.85148E-01 8.29417E-28
9.86185E-01 7.75272E-28
9.87185E-01 7.23294E-28
9.88148E-01 6.73461E-28
9.89074E-01 6.25751E-28
9.89962E-01 5.80143E-28
9.90814E-01 5.36617E-28
9.91627E-01 4.95155E-28
9.92404E-01 4.55739E-28
9.93143E-01 4.18351E-28
9.93844E-01 3.82976E-28
9.94508E-01 3.49598E-28
9.95134E-01 3.18204E-28
9.95722E-01 2.88778E-28
9.96273E-01 2.61310E-28
9.96786E-01 2.35786E-28
9.97261E-01 2.12197E-28
9.97698E-01 1.90531E-28
9.98097E-01 1.70781E-28
9.98459E-01 1.52936E-28
9.98782E-01 1.36991E-28
9.99067E-01 1.22937E-28
9.99315E-01 1.10769E-28
9.99524E-01 1.00482E-28
9.99695E-01 9.20716E-29
9.99829E-01 8.55336E-29
9.99924E-01 8.08657E-29
9.99981E-01 7.80657E-29
1.00000E+00 7.71325E-29
