 #
 # Subroutine ELSEPA. Elastic scattering of electrons and positrons
 #                    by neutral atoms and positive ions
 #
 # Projectile: positron
 # Kinetic energy = 6.00000E+08 eV = 2.20496E+07 a.u.
 #
 # WARNING: High-energy factorization with free-atom DF screening.
 #          Absorption, polarization and exchange corrections are
 #          switched off.
 #          Phase shifts are calculated for the bare nucleus.
 #          Scattering amplitudes are not evaluated.
 #
 # Element: Hf,  Z =  72,  atomic weight = 1.78490E+02 g/mol
 #
 # Nuclear model: Fermi distribution
 #                Average radius = 6.02451E-13 cm
 #                Skin thickness = 5.46000E-14 cm
 #
 # Number of electrons = 72
 #
 # Total elastic cross section = 7.30104E-18 cm**2 = 2.60725E-01 a0**2
 # 1st transport cross section = 2.71355E-26 cm**2 = 9.69026E-10 a0**2
 # 2nd transport cross section = 8.13841E-26 cm**2 = 2.90628E-09 a0**2
 #
 #
 # Differential cross section:                       MU=(1-COS(THETA))/2
 #
 #  THETA        MU          DCS          DCS        Sherman      error
 #  (deg)                 (cm**2/sr)   (a0**2/sr)    function
 #----------------------------------------------------------------------
0.00000E+00 2.27847E-08
7.61557E-13 2.03809E-08
1.18994E-12 1.92106E-08
1.71346E-12 1.79287E-08
2.33225E-12 1.65935E-08
3.04617E-12 1.52558E-08
3.85530E-12 1.39552E-08
4.75964E-12 1.27205E-08
5.75917E-12 1.15698E-08
6.85391E-12 1.05129E-08
8.04379E-12 9.55330E-09
9.32893E-12 8.68886E-09
1.07092E-11 7.91455E-09
1.21847E-11 7.22335E-09
1.37554E-11 6.60744E-09
1.54213E-11 6.05881E-09
1.71823E-11 5.56978E-09
1.90386E-11 5.13313E-09
2.09900E-11 4.74240E-09
2.30367E-11 4.39147E-09
2.51785E-11 4.07551E-09
2.74156E-11 3.79019E-09
2.97478E-11 3.53169E-09
3.21752E-11 3.29675E-09
3.46979E-11 3.08253E-09
3.73157E-11 2.88663E-09
4.00286E-11 2.70696E-09
4.28368E-11 2.54174E-09
4.57402E-11 2.38943E-09
4.87388E-11 2.24864E-09
5.18325E-11 2.11807E-09
5.50215E-11 1.99697E-09
5.83057E-11 1.88445E-09
6.16850E-11 1.77975E-09
6.51595E-11 1.67797E-09
6.87293E-11 1.57949E-09
7.23943E-11 1.48999E-09
7.61544E-11 1.40850E-09
1.18991E-10 8.48674E-10
1.71347E-10 5.38869E-10
2.33223E-10 3.57612E-10
3.04617E-10 2.46121E-10
3.85531E-10 1.74396E-10
4.75965E-10 1.26505E-10
5.75917E-10 9.35303E-11
6.85389E-10 7.03286E-11
8.04380E-10 5.37586E-11
9.32891E-10 4.17302E-11
1.07092E-09 3.28669E-11
1.21847E-09 2.62417E-11
1.37554E-09 2.12197E-11
1.54213E-09 1.73672E-11
1.71823E-09 1.43567E-11
1.90386E-09 1.19814E-11
2.09900E-09 1.00901E-11
2.30367E-09 8.56613E-12
2.51785E-09 7.32469E-12
2.74156E-09 6.30295E-12
2.97478E-09 5.45433E-12
3.21752E-09 4.74404E-12
3.46978E-09 4.14568E-12
3.73156E-09 3.63878E-12
4.00286E-09 3.20713E-12
4.28368E-09 2.83772E-12
4.57402E-09 2.52002E-12
4.87388E-09 2.24543E-12
5.18326E-09 2.00693E-12
5.50215E-09 1.79907E-12
5.83057E-09 1.61726E-12
6.16850E-09 1.45771E-12
6.51596E-09 1.31684E-12
6.87293E-09 1.19236E-12
7.23942E-09 1.08282E-12
7.61544E-09 9.86075E-13
1.18991E-08 4.26590E-13
1.71347E-08 2.13508E-13
2.33223E-08 1.18426E-13
3.04617E-08 7.08828E-14
3.85531E-08 4.49866E-14
4.75965E-08 2.99095E-14
5.75917E-08 2.06488E-14
6.85389E-08 1.47064E-14
8.04380E-08 1.07533E-14
9.32891E-08 8.04201E-15
1.07092E-07 6.13293E-15
1.21847E-07 4.75755E-15
1.37554E-07 3.74674E-15
1.54213E-07 2.99056E-15
1.71823E-07 2.41584E-15
1.90386E-07 1.97274E-15
2.09900E-07 1.62674E-15
2.30367E-07 1.35339E-15
2.51785E-07 1.13514E-15
2.74156E-07 9.59162E-16
2.97478E-07 8.16015E-16
3.21752E-07 6.98612E-16
3.46978E-07 6.01588E-16
3.73156E-07 5.20841E-16
4.00286E-07 4.53201E-16
4.28368E-07 3.96195E-16
4.57402E-07 3.47878E-16
4.87388E-07 3.06707E-16
5.18325E-07 2.71450E-16
5.50215E-07 2.41117E-16
5.83057E-07 2.14904E-16
6.16850E-07 1.92158E-16
6.51596E-07 1.72342E-16
6.87293E-07 1.55016E-16
7.23942E-07 1.39813E-16
7.61543E-07 1.26429E-16
1.18991E-06 5.20333E-17
1.71347E-06 2.51644E-17
2.33223E-06 1.36069E-17
3.04617E-06 7.98507E-18
3.85531E-06 4.98868E-18
4.75964E-06 3.27463E-18
5.75916E-06 2.23731E-18
6.85388E-06 1.57999E-18
8.04378E-06 1.14724E-18
9.32888E-06 8.52974E-19
1.07092E-05 6.47268E-19
1.21846E-05 4.99983E-19
1.37553E-05 3.92296E-19
1.54212E-05 3.12094E-19
1.71822E-05 2.51374E-19
1.90385E-05 2.04617E-19
2.09899E-05 1.68424E-19
2.30365E-05 1.39866E-19
2.51783E-05 1.17079E-19
2.74153E-05 9.87226E-20
2.97475E-05 8.38129E-20
3.21749E-05 7.16127E-20
3.46974E-05 6.15585E-20
3.73152E-05 5.32149E-20
4.00281E-05 4.62431E-20
4.28362E-05 4.03786E-20
4.57395E-05 3.54144E-20
4.87380E-05 3.11881E-20
5.18317E-05 2.75716E-20
5.50205E-05 2.44626E-20
5.83045E-05 2.17790E-20
6.16838E-05 1.94536E-20
6.51582E-05 1.74309E-20
6.87277E-05 1.56650E-20
7.23925E-05 1.41175E-20
7.61524E-05 1.29088E-20
9.21439E-05 8.81635E-21
1.09658E-04 6.22174E-21
1.28695E-04 4.51336E-21
1.49255E-04 3.35092E-21
1.71338E-04 2.53823E-21
1.94942E-04 1.95619E-21
2.20070E-04 1.53063E-21
2.46720E-04 1.21374E-21
2.74892E-04 9.73908E-22
3.04586E-04 7.89765E-22
3.35803E-04 6.46528E-22
3.68542E-04 5.33805E-22
4.02802E-04 4.44152E-22
4.38585E-04 3.72157E-22
4.75889E-04 3.13833E-22
5.14715E-04 2.66202E-22
5.55063E-04 2.27015E-22
5.96931E-04 1.94554E-22
6.40321E-04 1.67495E-22
6.85233E-04 1.44807E-22
7.31665E-04 1.25681E-22
7.79618E-04 1.09476E-22
8.29092E-04 9.56816E-23
8.80086E-04 8.38870E-23
9.32601E-04 7.37611E-23
9.86636E-04 6.50343E-23
1.04219E-03 5.74861E-23
1.09927E-03 5.09351E-23
1.15786E-03 4.52315E-23
1.21797E-03 4.02508E-23
1.27961E-03 3.58890E-23
1.34276E-03 3.20589E-23
1.40743E-03 2.86874E-23
1.47362E-03 2.57123E-23
1.54133E-03 2.30812E-23
1.61056E-03 2.07493E-23
1.68131E-03 1.86785E-23
1.75357E-03 1.68359E-23
1.82735E-03 1.51934E-23
1.90265E-03 1.37269E-23
1.97947E-03 1.24152E-23
2.05780E-03 1.12402E-23
2.13765E-03 1.01862E-23
2.21902E-03 9.23934E-24
2.30190E-03 8.38760E-24
2.38630E-03 7.62045E-24
2.47222E-03 6.92869E-24
2.55965E-03 6.30418E-24
2.64859E-03 5.73979E-24
2.73905E-03 5.22919E-24
2.83103E-03 4.76681E-24
2.92452E-03 4.34772E-24
3.01952E-03 3.96752E-24
3.11604E-03 3.62232E-24
3.21407E-03 3.30864E-24
3.31362E-03 3.02341E-24
3.41468E-03 2.76384E-24
3.51725E-03 2.52749E-24
3.62133E-03 2.31213E-24
3.72692E-03 2.11578E-24
3.83403E-03 1.93666E-24
3.94265E-03 1.77318E-24
4.05278E-03 1.62389E-24
4.16442E-03 1.48750E-24
4.27757E-03 1.36284E-24
4.39223E-03 1.24885E-24
4.50840E-03 1.14458E-24
4.62608E-03 1.04917E-24
4.74527E-03 9.61839E-25
4.86597E-03 8.81871E-25
4.98817E-03 8.08629E-25
5.11188E-03 7.41530E-25
5.23711E-03 6.80043E-25
5.36383E-03 6.23687E-25
5.49207E-03 5.72024E-25
5.62181E-03 5.24656E-25
5.75306E-03 4.81218E-25
5.88581E-03 4.41379E-25
6.02007E-03 4.04837E-25
6.15583E-03 3.71315E-25
6.29310E-03 3.40563E-25
6.43187E-03 3.12349E-25
6.57214E-03 2.86462E-25
6.71392E-03 2.62711E-25
6.85720E-03 2.40919E-25
7.00198E-03 2.20924E-25
7.14827E-03 2.02579E-25
7.29605E-03 1.85748E-25
7.44534E-03 1.70307E-25
7.59612E-03 1.56142E-25
7.97965E-03 1.25647E-25
8.37255E-03 1.01087E-25
8.77480E-03 8.13231E-26
9.18641E-03 6.54326E-26
9.60736E-03 5.26700E-26
1.00376E-02 4.24313E-26
1.04773E-02 3.42268E-26
1.09262E-02 2.76600E-26
1.13844E-02 2.24097E-26
1.18520E-02 1.82157E-26
1.23288E-02 1.48678E-26
1.28150E-02 1.21961E-26
1.33104E-02 1.00636E-26
1.38150E-02 8.35997E-27
1.43290E-02 6.99667E-27
1.48521E-02 5.90273E-27
1.53845E-02 5.02151E-27
1.59262E-02 4.30786E-27
1.64770E-02 3.72602E-27
1.70371E-02 3.24770E-27
1.76063E-02 2.85068E-27
1.81848E-02 2.51754E-27
1.87724E-02 2.23473E-27
1.93692E-02 1.99175E-27
1.99751E-02 1.78050E-27
2.05901E-02 1.59478E-27
2.12143E-02 1.42987E-27
2.18476E-02 1.28218E-27
2.24900E-02 1.14899E-27
2.31415E-02 1.02825E-27
2.38021E-02 9.18401E-28
2.44717E-02 8.18264E-28
2.51504E-02 7.26913E-28
2.58382E-02 6.43618E-28
2.65349E-02 5.67783E-28
2.72407E-02 4.98900E-28
2.79555E-02 4.36525E-28
2.86793E-02 3.80247E-28
2.94120E-02 3.29683E-28
3.01537E-02 2.84460E-28
3.09043E-02 2.44215E-28
3.16639E-02 2.08591E-28
3.24324E-02 1.77235E-28
3.32098E-02 1.49799E-28
3.39961E-02 1.25945E-28
3.47912E-02 1.05341E-28
3.55952E-02 8.76694E-29
3.64081E-02 7.26228E-29
3.72297E-02 5.99111E-29
3.80602E-02 4.92602E-29
3.88995E-02 4.04141E-29
3.97476E-02 3.31355E-29
4.06044E-02 2.72067E-29
4.14700E-02 2.24290E-29
4.23443E-02 1.86235E-29
4.32273E-02 1.56298E-29
4.41190E-02 1.33058E-29
4.50194E-02 1.15269E-29
4.59284E-02 1.01847E-29
4.68461E-02 9.18602E-30
4.87074E-02 7.91525E-30
5.06030E-02 7.22693E-30
5.25328E-02 6.79779E-30
5.44967E-02 6.43122E-30
5.64946E-02 6.02341E-30
5.85262E-02 5.53455E-30
6.05914E-02 4.96543E-30
6.26901E-02 4.33955E-30
6.48222E-02 3.68994E-30
6.69873E-02 3.05041E-30
6.91854E-02 2.45006E-30
7.14163E-02 1.91057E-30
7.36799E-02 1.44538E-30
7.59760E-02 1.06015E-30
7.83043E-02 7.54034E-31
8.06647E-02 5.21223E-31
8.30571E-02 3.52652E-31
8.54812E-02 2.37509E-31
8.79369E-02 1.64513E-31
9.04240E-02 1.22889E-31
9.29422E-02 1.03032E-31
9.54915E-02 9.68948E-32
9.80716E-02 9.81385E-32
1.00682E-01 1.02103E-31
1.03323E-01 1.05652E-31
1.05995E-01 1.06935E-31
1.08696E-01 1.05126E-31
1.11427E-01 1.00145E-31
1.14188E-01 9.24120E-32
1.16978E-01 8.26294E-32
1.19797E-01 7.16127E-32
1.22645E-01 6.01622E-32
1.25522E-01 4.89777E-32
1.28428E-01 3.86105E-32
1.31361E-01 2.94439E-32
1.34323E-01 2.16974E-32
1.37313E-01 1.54447E-32
1.40330E-01 1.06416E-32
1.43375E-01 7.15698E-33
1.46447E-01 4.80398E-33
1.49545E-01 3.36785E-33
1.52671E-01 2.62916E-33
1.55823E-01 2.38146E-33
1.59001E-01 2.44346E-33
1.62205E-01 2.66593E-33
1.65435E-01 2.93438E-33
1.68690E-01 3.16816E-33
1.71970E-01 3.31723E-33
1.75276E-01 3.35734E-33
1.78606E-01 3.28444E-33
1.81961E-01 3.10902E-33
1.85340E-01 2.85087E-33
1.88743E-01 2.53450E-33
1.92169E-01 2.18547E-33
1.95619E-01 1.82765E-33
1.99092E-01 1.48137E-33
2.02589E-01 1.16243E-33
2.06107E-01 8.81751E-34
2.09649E-01 6.45529E-34
2.13212E-01 4.55784E-34
2.16797E-01 3.11118E-34
2.20404E-01 2.07570E-34
2.24032E-01 1.39482E-34
2.27680E-01 1.00286E-34
2.31350E-01 8.31807E-35
2.35040E-01 8.16673E-35
2.38751E-01 8.99296E-35
2.42481E-01 1.03079E-34
2.46231E-01 1.17267E-34
2.50000E-01 1.29699E-34
2.53788E-01 1.38565E-34
2.57595E-01 1.42913E-34
2.61421E-01 1.42499E-34
2.65264E-01 1.37614E-34
2.69126E-01 1.28920E-34
2.73005E-01 1.17298E-34
2.76901E-01 1.03721E-34
2.80814E-01 8.91470E-35
2.84744E-01 7.44454E-35
2.88691E-01 6.03463E-35
2.92653E-01 4.74132E-35
2.96632E-01 3.60352E-35
3.00625E-01 2.64349E-35
3.04634E-01 1.86868E-35
3.08658E-01 1.27422E-35
3.12697E-01 8.45844E-36
3.16749E-01 5.62714E-36
3.20816E-01 4.00209E-36
3.24896E-01 3.32261E-36
3.28990E-01 3.33348E-36
3.33097E-01 3.79959E-36
3.37216E-01 4.51648E-36
3.41348E-01 5.31598E-36
3.45492E-01 6.06870E-36
3.49647E-01 6.68316E-36
3.53814E-01 7.10262E-36
3.57992E-01 7.30068E-36
3.62181E-01 7.27567E-36
3.66381E-01 7.04464E-36
3.70590E-01 6.63797E-36
3.74810E-01 6.09383E-36
3.79039E-01 5.45379E-36
3.83277E-01 4.75912E-36
3.87524E-01 4.04787E-36
3.91780E-01 3.35299E-36
3.96044E-01 2.70112E-36
4.00316E-01 2.11210E-36
4.04596E-01 1.59898E-36
4.08882E-01 1.16856E-36
4.13176E-01 8.22180E-37
4.17476E-01 5.56648E-37
4.21783E-01 3.65348E-37
4.26095E-01 2.39242E-37
4.30413E-01 1.67838E-37
4.34737E-01 1.40111E-37
4.39065E-01 1.45139E-37
4.43398E-01 1.72745E-37
4.47736E-01 2.13837E-37
4.52077E-01 2.60694E-37
4.56422E-01 3.07108E-37
4.60770E-01 3.48378E-37
4.65122E-01 3.81247E-37
4.69476E-01 4.03734E-37
4.73832E-01 4.15051E-37
4.78190E-01 4.15287E-37
4.82550E-01 4.05279E-37
4.86912E-01 3.86371E-37
4.91274E-01 3.60231E-37
4.95637E-01 3.28689E-37
5.00000E-01 2.93597E-37
5.04363E-01 2.56711E-37
5.08726E-01 2.19619E-37
5.13088E-01 1.83666E-37
5.17450E-01 1.49950E-37
5.21810E-01 1.19283E-37
5.26168E-01 9.22195E-38
5.30524E-01 6.90650E-38
5.34878E-01 4.99102E-38
5.39230E-01 3.46622E-38
5.43578E-01 2.30795E-38
5.47923E-01 1.48187E-38
5.52264E-01 1.00000E-45
5.56602E-01 1.00000E-45
5.60935E-01 1.00000E-45
5.65263E-01 1.00000E-45
5.69587E-01 1.00000E-45
5.73905E-01 1.00000E-45
5.78217E-01 1.00000E-45
5.82524E-01 1.00000E-45
5.86824E-01 1.00000E-45
5.91118E-01 1.00000E-45
5.95404E-01 1.00000E-45
5.99684E-01 1.00000E-45
6.03956E-01 1.00000E-45
6.08220E-01 1.00000E-45
6.12476E-01 1.00000E-45
6.16723E-01 1.00000E-45
6.20961E-01 1.00000E-45
6.25190E-01 1.00000E-45
6.29410E-01 1.00000E-45
6.33619E-01 1.00000E-45
6.37819E-01 1.00000E-45
6.42008E-01 1.00000E-45
6.46186E-01 1.00000E-45
6.50353E-01 1.00000E-45
6.54508E-01 1.00000E-45
6.58652E-01 1.00000E-45
6.62784E-01 1.00000E-45
6.66903E-01 1.00000E-45
6.71010E-01 1.00000E-45
6.75104E-01 1.00000E-45
6.79184E-01 1.00000E-45
6.83251E-01 1.00000E-45
6.87303E-01 1.00000E-45
6.91342E-01 1.00000E-45
6.95366E-01 1.00000E-45
6.99375E-01 1.00000E-45
7.03368E-01 1.00000E-45
7.07347E-01 1.00000E-45
7.11309E-01 1.00000E-45
7.15256E-01 1.00000E-45
7.19186E-01 1.00000E-45
7.23099E-01 1.00000E-45
7.26995E-01 1.00000E-45
7.30874E-01 1.00000E-45
7.34736E-01 1.00000E-45
7.38579E-01 1.00000E-45
7.42405E-01 1.00000E-45
7.46212E-01 1.00000E-45
7.50000E-01 1.00000E-45
7.53769E-01 1.00000E-45
7.57519E-01 1.00000E-45
7.61249E-01 1.00000E-45
7.64960E-01 1.00000E-45
7.68650E-01 1.00000E-45
7.72320E-01 1.00000E-45
7.75968E-01 1.00000E-45
7.79596E-01 1.00000E-45
7.83203E-01 1.00000E-45
7.86788E-01 1.00000E-45
7.90351E-01 1.00000E-45
7.93893E-01 1.00000E-45
7.97411E-01 1.00000E-45
8.00908E-01 1.00000E-45
8.04381E-01 1.00000E-45
8.07831E-01 1.00000E-45
8.11257E-01 1.00000E-45
8.14660E-01 1.00000E-45
8.18039E-01 1.00000E-45
8.21394E-01 1.00000E-45
8.24724E-01 1.00000E-45
8.28030E-01 1.00000E-45
8.31310E-01 1.00000E-45
8.34565E-01 1.00000E-45
8.37795E-01 1.00000E-45
8.40999E-01 1.00000E-45
8.44177E-01 1.00000E-45
8.47329E-01 1.00000E-45
8.50455E-01 1.00000E-45
8.53553E-01 1.00000E-45
8.56625E-01 1.00000E-45
8.59670E-01 1.00000E-45
8.62687E-01 1.00000E-45
8.65677E-01 1.00000E-45
8.68639E-01 1.00000E-45
8.71572E-01 1.00000E-45
8.74478E-01 1.00000E-45
8.77355E-01 1.00000E-45
8.80203E-01 1.00000E-45
8.83022E-01 1.00000E-45
8.85812E-01 1.00000E-45
8.88573E-01 1.00000E-45
8.91304E-01 1.00000E-45
8.94005E-01 1.00000E-45
8.96677E-01 1.00000E-45
8.99318E-01 1.00000E-45
9.01928E-01 1.00000E-45
9.04508E-01 1.00000E-45
9.07058E-01 1.00000E-45
9.09576E-01 1.00000E-45
9.12063E-01 1.00000E-45
9.14519E-01 1.00000E-45
9.16943E-01 1.00000E-45
9.19335E-01 1.00000E-45
9.21696E-01 1.00000E-45
9.24024E-01 1.00000E-45
9.26320E-01 1.00000E-45
9.28584E-01 1.00000E-45
9.30815E-01 1.00000E-45
9.33013E-01 1.00000E-45
9.35178E-01 1.00000E-45
9.37310E-01 1.00000E-45
9.39409E-01 1.00000E-45
9.41474E-01 1.00000E-45
9.43505E-01 1.00000E-45
9.45503E-01 1.00000E-45
9.47467E-01 1.00000E-45
9.49397E-01 1.00000E-45
9.51293E-01 1.00000E-45
9.53154E-01 1.00000E-45
9.54981E-01 1.00000E-45
9.56773E-01 1.00000E-45
9.58530E-01 1.00000E-45
9.60252E-01 1.00000E-45
9.61940E-01 1.00000E-45
9.63592E-01 1.00000E-45
9.65209E-01 1.00000E-45
9.66790E-01 1.00000E-45
9.68336E-01 1.00000E-45
9.69846E-01 1.00000E-45
9.71321E-01 1.00000E-45
9.72759E-01 1.00000E-45
9.74162E-01 1.00000E-45
9.75528E-01 1.00000E-45
9.76858E-01 1.00000E-45
9.78152E-01 1.00000E-45
9.79410E-01 1.00000E-45
9.80631E-01 1.00000E-45
9.81815E-01 1.00000E-45
9.82963E-01 1.00000E-45
9.84074E-01 1.00000E-45
9.85148E-01 1.00000E-45
9.86185E-01 1.00000E-45
9.87185E-01 1.00000E-45
9.88148E-01 1.00000E-45
9.89074E-01 1.00000E-45
9.89962E-01 1.00000E-45
9.90814E-01 1.00000E-45
9.91627E-01 1.00000E-45
9.92404E-01 1.00000E-45
9.93143E-01 1.00000E-45
9.93844E-01 1.00000E-45
9.94508E-01 1.00000E-45
9.95134E-01 1.00000E-45
9.95722E-01 1.00000E-45
9.96273E-01 1.00000E-45
9.96786E-01 1.00000E-45
9.97261E-01 1.00000E-45
9.97698E-01 1.00000E-45
9.98097E-01 1.00000E-45
9.98459E-01 1.00000E-45
9.98782E-01 1.00000E-45
9.99067E-01 1.00000E-45
9.99315E-01 1.00000E-45
9.99524E-01 1.00000E-45
9.99695E-01 1.00000E-45
9.99829E-01 1.00000E-45
9.99924E-01 1.00000E-45
9.99981E-01 1.00000E-45
1.00000E+00 1.00000E-45
