 #
 # Subroutine ELSEPA. Elastic scattering of electrons and positrons
 #                    by neutral atoms and positive ions
 #
 # Projectile: positron
 # Kinetic energy = 2.00000E+08 eV = 7.34987E+06 a.u.
 #
 # WARNING: High-energy factorization with free-atom DF screening.
 #          Absorption, polarization and exchange corrections are
 #          switched off.
 #          Phase shifts are calculated for the bare nucleus.
 #          Scattering amplitudes are not evaluated.
 #
 # Element: Hf,  Z =  72,  atomic weight = 1.78490E+02 g/mol
 #
 # Nuclear model: Fermi distribution
 #                Average radius = 6.02451E-13 cm
 #                Skin thickness = 5.46000E-14 cm
 #
 # Number of electrons = 72
 #
 # Total elastic cross section = 7.31679E-18 cm**2 = 2.61287E-01 a0**2
 # 1st transport cross section = 2.41510E-25 cm**2 = 8.62449E-09 a0**2
 # 2nd transport cross section = 7.22730E-25 cm**2 = 2.58092E-08 a0**2
 #
 #
 # Differential cross section:                       MU=(1-COS(THETA))/2
 #
 #  THETA        MU          DCS          DCS        Sherman      error
 #  (deg)                 (cm**2/sr)   (a0**2/sr)    function
 #----------------------------------------------------------------------
0.00000E+00 2.54026E-09
7.61557E-13 2.50779E-09
1.18994E-12 2.48985E-09
1.71346E-12 2.46822E-09
2.33225E-12 2.44305E-09
3.04617E-12 2.41455E-09
3.85530E-12 2.38291E-09
4.75964E-12 2.34837E-09
5.75917E-12 2.31116E-09
6.85391E-12 2.27143E-09
8.04379E-12 2.22967E-09
9.32893E-12 2.18602E-09
1.07092E-11 2.14061E-09
1.21847E-11 2.09398E-09
1.37554E-11 2.04612E-09
1.54213E-11 1.99736E-09
1.71823E-11 1.94812E-09
1.90386E-11 1.89823E-09
2.09900E-11 1.84823E-09
2.30367E-11 1.79833E-09
2.51785E-11 1.74834E-09
2.74156E-11 1.69885E-09
2.97478E-11 1.64984E-09
3.21752E-11 1.60133E-09
3.46979E-11 1.55369E-09
3.73157E-11 1.50679E-09
4.00286E-11 1.46080E-09
4.28368E-11 1.41594E-09
4.57402E-11 1.37196E-09
4.87388E-11 1.32918E-09
5.18325E-11 1.28760E-09
5.50215E-11 1.24707E-09
5.83057E-11 1.20783E-09
6.16850E-11 1.16978E-09
6.51595E-11 1.13290E-09
6.87293E-11 1.09731E-09
7.23943E-11 1.06284E-09
7.61544E-11 1.02958E-09
1.18991E-10 7.56774E-10
1.71347E-10 5.70733E-10
2.33223E-10 4.42115E-10
3.04617E-10 3.50341E-10
3.85531E-10 2.82483E-10
4.75965E-10 2.30737E-10
5.75917E-10 1.90238E-10
6.85389E-10 1.56443E-10
8.04380E-10 1.31542E-10
9.32891E-10 1.11606E-10
1.07092E-09 9.42296E-11
1.21847E-09 8.08454E-11
1.37554E-09 6.94222E-11
1.54213E-09 5.98154E-11
1.71823E-09 5.21565E-11
1.90386E-09 4.53295E-11
2.09900E-09 3.96871E-11
2.30367E-09 3.50181E-11
2.51785E-09 3.08042E-11
2.74156E-09 2.73089E-11
2.97478E-09 2.42919E-11
3.21752E-09 2.16117E-11
3.46978E-09 1.93469E-11
3.73156E-09 1.73267E-11
4.00286E-09 1.55530E-11
4.28368E-09 1.40314E-11
4.57402E-09 1.26404E-11
4.87388E-09 1.14297E-11
5.18326E-09 1.03690E-11
5.50215E-09 9.40015E-12
5.83057E-09 8.55333E-12
6.16850E-09 7.79587E-12
6.51596E-09 7.11132E-12
6.87293E-09 6.50713E-12
7.23942E-09 5.95855E-12
7.61544E-09 5.46591E-12
1.18991E-08 2.52093E-12
1.71347E-08 1.32776E-12
2.33223E-08 7.71474E-13
3.04617E-08 4.80256E-13
3.85531E-08 3.14412E-13
4.75965E-08 2.14303E-13
5.75917E-08 1.50877E-13
6.85389E-08 1.09235E-13
8.04380E-08 8.09829E-14
9.32891E-08 6.12968E-14
1.07092E-07 4.72483E-14
1.21847E-07 3.70048E-14
1.37554E-07 2.93944E-14
1.54213E-07 2.36451E-14
1.71823E-07 1.92363E-14
1.90386E-07 1.58097E-14
2.09900E-07 1.31141E-14
2.30367E-07 1.09698E-14
2.51785E-07 9.24679E-15
2.74156E-07 7.84900E-15
2.97478E-07 6.70580E-15
3.21752E-07 5.76350E-15
3.46978E-07 4.98111E-15
3.73156E-07 4.32709E-15
4.00286E-07 3.77696E-15
4.28368E-07 3.31149E-15
4.57402E-07 2.91550E-15
4.87388E-07 2.57692E-15
5.18325E-07 2.28603E-15
5.50215E-07 2.03498E-15
5.83057E-07 1.81741E-15
6.16850E-07 1.62807E-15
6.51596E-07 1.46272E-15
6.87293E-07 1.31781E-15
7.23942E-07 1.19037E-15
7.61543E-07 1.07795E-15
1.18991E-06 4.48348E-16
1.71347E-06 2.18311E-16
2.33223E-06 1.18650E-16
3.04617E-06 6.99146E-17
3.85531E-06 4.38274E-17
4.75964E-06 2.88501E-17
5.75916E-06 1.97575E-17
6.85388E-06 1.39803E-17
8.04378E-06 1.01680E-17
9.32888E-06 7.57052E-18
1.07092E-05 5.75162E-18
1.21846E-05 4.44735E-18
1.37553E-05 3.49250E-18
1.54212E-05 2.78057E-18
1.71822E-05 2.24104E-18
1.90385E-05 1.82522E-18
2.09899E-05 1.50311E-18
2.30365E-05 1.24879E-18
2.51783E-05 1.04574E-18
2.74153E-05 8.82079E-19
2.97475E-05 7.49089E-19
3.21749E-05 6.40220E-19
3.46974E-05 5.50467E-19
3.73152E-05 4.75959E-19
4.00281E-05 4.13684E-19
4.28362E-05 3.61284E-19
4.57395E-05 3.16918E-19
4.87380E-05 2.79137E-19
5.18317E-05 2.46801E-19
5.50205E-05 2.18998E-19
5.83045E-05 1.94994E-19
6.16838E-05 1.74189E-19
6.51582E-05 1.56090E-19
6.87277E-05 1.40287E-19
7.23925E-05 1.26436E-19
7.61524E-05 1.14452E-19
9.21439E-05 7.81686E-20
1.09658E-04 5.51835E-20
1.28695E-04 4.00609E-20
1.49255E-04 2.97779E-20
1.71338E-04 2.25927E-20
1.94942E-04 1.74487E-20
2.20070E-04 1.36883E-20
2.46720E-04 1.08882E-20
2.74892E-04 8.76837E-21
3.04586E-04 7.13997E-21
3.35803E-04 5.87234E-21
3.68542E-04 4.87373E-21
4.02802E-04 4.07845E-21
4.38585E-04 3.43878E-21
4.75889E-04 2.91959E-21
5.14715E-04 2.49465E-21
5.55063E-04 2.14416E-21
5.96931E-04 1.85302E-21
6.40321E-04 1.60958E-21
6.85233E-04 1.40468E-21
7.31665E-04 1.23128E-21
7.79618E-04 1.08375E-21
8.29092E-04 9.57604E-22
8.80086E-04 8.49220E-22
9.32601E-04 7.55685E-22
9.86636E-04 6.74626E-22
1.04219E-03 6.04098E-22
1.09927E-03 5.42505E-22
1.15786E-03 4.88523E-22
1.21797E-03 4.41052E-22
1.27961E-03 3.99174E-22
1.34276E-03 3.62116E-22
1.40743E-03 3.29230E-22
1.47362E-03 2.99965E-22
1.54133E-03 2.73854E-22
1.61056E-03 2.50499E-22
1.68131E-03 2.29558E-22
1.75357E-03 2.10739E-22
1.82735E-03 1.93790E-22
1.90265E-03 1.78492E-22
1.97947E-03 1.64657E-22
2.05780E-03 1.52121E-22
2.13765E-03 1.40741E-22
2.21902E-03 1.30391E-22
2.30190E-03 1.20962E-22
2.38630E-03 1.12357E-22
2.47222E-03 1.04493E-22
2.55965E-03 9.72941E-23
2.64859E-03 9.06942E-23
2.73905E-03 8.46349E-23
2.83103E-03 7.90643E-23
2.92452E-03 7.39360E-23
3.01952E-03 6.92087E-23
3.11604E-03 6.48457E-23
3.21407E-03 6.08140E-23
3.31362E-03 5.70841E-23
3.41468E-03 5.36294E-23
3.51725E-03 5.04261E-23
3.62133E-03 4.74527E-23
3.72692E-03 4.46899E-23
3.83403E-03 4.21202E-23
3.94265E-03 3.97276E-23
4.05278E-03 3.74980E-23
4.16442E-03 3.54182E-23
4.27757E-03 3.34766E-23
4.39223E-03 3.16622E-23
4.50840E-03 2.99654E-23
4.62608E-03 2.83771E-23
4.74527E-03 2.68894E-23
4.86597E-03 2.54947E-23
4.98817E-03 2.41861E-23
5.11188E-03 2.29576E-23
5.23711E-03 2.18033E-23
5.36383E-03 2.07180E-23
5.49207E-03 1.96969E-23
5.62181E-03 1.87355E-23
5.75306E-03 1.78298E-23
5.88581E-03 1.69759E-23
6.02007E-03 1.61705E-23
6.15583E-03 1.54103E-23
6.29310E-03 1.46923E-23
6.43187E-03 1.40138E-23
6.57214E-03 1.33723E-23
6.71392E-03 1.27654E-23
6.85720E-03 1.21910E-23
7.00198E-03 1.16469E-23
7.14827E-03 1.11314E-23
7.29605E-03 1.06428E-23
7.44534E-03 1.01793E-23
7.59612E-03 9.73942E-24
7.97965E-03 8.73439E-24
8.37255E-03 7.84928E-24
8.77480E-03 7.06766E-24
9.18641E-03 6.37567E-24
9.60736E-03 5.76154E-24
1.00376E-02 5.21525E-24
1.04773E-02 4.72823E-24
1.09262E-02 4.29314E-24
1.13844E-02 3.90366E-24
1.18520E-02 3.55436E-24
1.23288E-02 3.24050E-24
1.28150E-02 2.95801E-24
1.33104E-02 2.70332E-24
1.38150E-02 2.47333E-24
1.43290E-02 2.26534E-24
1.48521E-02 2.07696E-24
1.53845E-02 1.90611E-24
1.59262E-02 1.75094E-24
1.64770E-02 1.60984E-24
1.70371E-02 1.48137E-24
1.76063E-02 1.36426E-24
1.81848E-02 1.25739E-24
1.87724E-02 1.15976E-24
1.93692E-02 1.07047E-24
1.99751E-02 9.88731E-25
2.05901E-02 9.13829E-25
2.12143E-02 8.45131E-25
2.18476E-02 7.82064E-25
2.24900E-02 7.24119E-25
2.31415E-02 6.70835E-25
2.38021E-02 6.21799E-25
2.44717E-02 5.76636E-25
2.51504E-02 5.35012E-25
2.58382E-02 4.96620E-25
2.65349E-02 4.61187E-25
2.72407E-02 4.28462E-25
2.79555E-02 3.98220E-25
2.86793E-02 3.70256E-25
2.94120E-02 3.44382E-25
3.01537E-02 3.20429E-25
3.09043E-02 2.98242E-25
3.16639E-02 2.77681E-25
3.24324E-02 2.58617E-25
3.32098E-02 2.40932E-25
3.39961E-02 2.24519E-25
3.47912E-02 2.09280E-25
3.55952E-02 1.95125E-25
3.64081E-02 1.81971E-25
3.72297E-02 1.69743E-25
3.80602E-02 1.58371E-25
3.88995E-02 1.47792E-25
3.97476E-02 1.37946E-25
4.06044E-02 1.28780E-25
4.14700E-02 1.20245E-25
4.23443E-02 1.12293E-25
4.32273E-02 1.04885E-25
4.41190E-02 9.79790E-26
4.50194E-02 9.15409E-26
4.59284E-02 8.55371E-26
4.68461E-02 7.99368E-26
4.87074E-02 6.98359E-26
5.06030E-02 6.10359E-26
5.25328E-02 5.33632E-26
5.44967E-02 4.66687E-26
5.64946E-02 4.08242E-26
5.85262E-02 3.57188E-26
6.05914E-02 3.12570E-26
6.26901E-02 2.73559E-26
6.48222E-02 2.39440E-26
6.69873E-02 2.09589E-26
6.91854E-02 1.83467E-26
7.14163E-02 1.60603E-26
7.36799E-02 1.40588E-26
7.59760E-02 1.23066E-26
7.83043E-02 1.07726E-26
8.06647E-02 9.42952E-27
8.30571E-02 8.25370E-27
8.54812E-02 7.22438E-27
8.79369E-02 6.32339E-27
9.04240E-02 5.53485E-27
9.29422E-02 4.84484E-27
9.54915E-02 4.24115E-27
9.80716E-02 3.71310E-27
1.00682E-01 3.25132E-27
1.03323E-01 2.84759E-27
1.05995E-01 2.49469E-27
1.08696E-01 2.18630E-27
1.11427E-01 1.91689E-27
1.14188E-01 1.68157E-27
1.16978E-01 1.47608E-27
1.19797E-01 1.29667E-27
1.22645E-01 1.14007E-27
1.25522E-01 1.00338E-27
1.28428E-01 8.84100E-28
1.31361E-01 7.80002E-28
1.34323E-01 6.89154E-28
1.37313E-01 6.09860E-28
1.40330E-01 5.40635E-28
1.43375E-01 4.80181E-28
1.46447E-01 4.27363E-28
1.49545E-01 3.81190E-28
1.52671E-01 3.40796E-28
1.55823E-01 3.05424E-28
1.59001E-01 2.74418E-28
1.62205E-01 2.47203E-28
1.65435E-01 2.23279E-28
1.68690E-01 2.02213E-28
1.71970E-01 1.83627E-28
1.75276E-01 1.67193E-28
1.78606E-01 1.52627E-28
1.81961E-01 1.39683E-28
1.85340E-01 1.28148E-28
1.88743E-01 1.17838E-28
1.92169E-01 1.08593E-28
1.95619E-01 1.00275E-28
1.99092E-01 9.27663E-29
2.02589E-01 8.59645E-29
2.06107E-01 7.97816E-29
2.09649E-01 7.41418E-29
2.13212E-01 6.89801E-29
2.16797E-01 6.42405E-29
2.20404E-01 5.98748E-29
2.24032E-01 5.58418E-29
2.27680E-01 5.21059E-29
2.31350E-01 4.86365E-29
2.35040E-01 4.54074E-29
2.38751E-01 4.23957E-29
2.42481E-01 3.95819E-29
2.46231E-01 3.69490E-29
2.50000E-01 3.44823E-29
2.53788E-01 3.21688E-29
2.57595E-01 2.99972E-29
2.61421E-01 2.79577E-29
2.65264E-01 2.60414E-29
2.69126E-01 2.42405E-29
2.73005E-01 2.25479E-29
2.76901E-01 2.09573E-29
2.80814E-01 1.94629E-29
2.84744E-01 1.80593E-29
2.88691E-01 1.67418E-29
2.92653E-01 1.55057E-29
2.96632E-01 1.43468E-29
3.00625E-01 1.32611E-29
3.04634E-01 1.22448E-29
3.08658E-01 1.12944E-29
3.12697E-01 1.04064E-29
3.16749E-01 9.57752E-30
3.20816E-01 8.80470E-30
3.24896E-01 8.08494E-30
3.28990E-01 7.41536E-30
3.33097E-01 6.79321E-30
3.37216E-01 6.21582E-30
3.41348E-01 5.68065E-30
3.45492E-01 5.18525E-30
3.49647E-01 4.72728E-30
3.53814E-01 4.30446E-30
3.57992E-01 3.91465E-30
3.62181E-01 3.55576E-30
3.66381E-01 3.22583E-30
3.70590E-01 2.92294E-30
3.74810E-01 2.64532E-30
3.79039E-01 2.39122E-30
3.83277E-01 2.15903E-30
3.87524E-01 1.94719E-30
3.91780E-01 1.75422E-30
3.96044E-01 1.57875E-30
4.00316E-01 1.41945E-30
4.04596E-01 1.27508E-30
4.08882E-01 1.14449E-30
4.13176E-01 1.02656E-30
4.17476E-01 9.20277E-31
4.21783E-01 8.24670E-31
4.26095E-01 7.38837E-31
4.30413E-01 6.61936E-31
4.34737E-01 5.93183E-31
4.39065E-01 5.31847E-31
4.43398E-01 4.77250E-31
4.47736E-01 4.28763E-31
4.52077E-01 3.85804E-31
4.56422E-01 3.47835E-31
4.60770E-01 3.14361E-31
4.65122E-01 2.84926E-31
4.69476E-01 2.59111E-31
4.73832E-01 2.36532E-31
4.78190E-01 2.16837E-31
4.82550E-01 1.99705E-31
4.86912E-01 1.84845E-31
4.91274E-01 1.71990E-31
4.95637E-01 1.60900E-31
5.00000E-01 1.51356E-31
5.04363E-01 1.43162E-31
5.08726E-01 1.36140E-31
5.13088E-01 1.30131E-31
5.17450E-01 1.24994E-31
5.21810E-01 1.20599E-31
5.26168E-01 1.16836E-31
5.30524E-01 1.13603E-31
5.34878E-01 1.10811E-31
5.39230E-01 1.08383E-31
5.43578E-01 1.06251E-31
5.47923E-01 1.04355E-31
5.52264E-01 1.02644E-31
5.56602E-01 1.01073E-31
5.60935E-01 9.96042E-32
5.65263E-01 9.82059E-32
5.69587E-01 9.68510E-32
5.73905E-01 9.55169E-32
5.78217E-01 9.41854E-32
5.82524E-01 9.28416E-32
5.86824E-01 9.14740E-32
5.91118E-01 9.00737E-32
5.95404E-01 8.86343E-32
5.99684E-01 8.71515E-32
6.03956E-01 8.56227E-32
6.08220E-01 8.40468E-32
6.12476E-01 8.24242E-32
6.16723E-01 8.07562E-32
6.20961E-01 7.90450E-32
6.25190E-01 7.72935E-32
6.29410E-01 7.55052E-32
6.33619E-01 7.36842E-32
6.37819E-01 7.18347E-32
6.42008E-01 6.99611E-32
6.46186E-01 6.80681E-32
6.50353E-01 6.61604E-32
6.54508E-01 6.42427E-32
6.58652E-01 6.23196E-32
6.62784E-01 6.03956E-32
6.66903E-01 5.84751E-32
6.71010E-01 5.65623E-32
6.75104E-01 5.46612E-32
6.79184E-01 5.27755E-32
6.83251E-01 5.09088E-32
6.87303E-01 4.90644E-32
6.91342E-01 4.72453E-32
6.95366E-01 4.54544E-32
6.99375E-01 4.36941E-32
7.03368E-01 4.19669E-32
7.07347E-01 4.02746E-32
7.11309E-01 3.86191E-32
7.15256E-01 3.70021E-32
7.19186E-01 3.54247E-32
7.23099E-01 3.38883E-32
7.26995E-01 3.23936E-32
7.30874E-01 3.09414E-32
7.34736E-01 2.95323E-32
7.38579E-01 2.81667E-32
7.42405E-01 2.68447E-32
7.46212E-01 2.55664E-32
7.50000E-01 2.43317E-32
7.53769E-01 2.31405E-32
7.57519E-01 2.19924E-32
7.61249E-01 2.08870E-32
7.64960E-01 1.98237E-32
7.68650E-01 1.88020E-32
7.72320E-01 1.78212E-32
7.75968E-01 1.68805E-32
7.79596E-01 1.59790E-32
7.83203E-01 1.51160E-32
7.86788E-01 1.42905E-32
7.90351E-01 1.35016E-32
7.93893E-01 1.27482E-32
7.97411E-01 1.20294E-32
8.00908E-01 1.13441E-32
8.04381E-01 1.06914E-32
8.07831E-01 1.00700E-32
8.11257E-01 9.47907E-33
8.14660E-01 8.91745E-33
8.18039E-01 8.38411E-33
8.21394E-01 7.87800E-33
8.24724E-01 7.39809E-33
8.28030E-01 6.94334E-33
8.31310E-01 6.51275E-33
8.34565E-01 6.10533E-33
8.37795E-01 5.72009E-33
8.40999E-01 5.35609E-33
8.44177E-01 5.01238E-33
8.47329E-01 4.68806E-33
8.50455E-01 4.38225E-33
8.53553E-01 4.09408E-33
8.56625E-01 3.82272E-33
8.59670E-01 3.56735E-33
8.62687E-01 3.32719E-33
8.65677E-01 3.10149E-33
8.68639E-01 2.88950E-33
8.71572E-01 2.69054E-33
8.74478E-01 2.50391E-33
8.77355E-01 2.32897E-33
8.80203E-01 2.16509E-33
8.83022E-01 2.01166E-33
8.85812E-01 1.86812E-33
8.88573E-01 1.73391E-33
8.91304E-01 1.60851E-33
8.94005E-01 1.49140E-33
8.96677E-01 1.38211E-33
8.99318E-01 1.28019E-33
9.01928E-01 1.18518E-33
9.04508E-01 1.09669E-33
9.07058E-01 1.01431E-33
9.09576E-01 9.37668E-34
9.12063E-01 8.66407E-34
9.14519E-01 8.00195E-34
9.16943E-01 7.38704E-34
9.19335E-01 6.81636E-34
9.21696E-01 6.28709E-34
9.24024E-01 5.79642E-34
9.26320E-01 5.34184E-34
9.28584E-01 4.92097E-34
9.30815E-01 4.53148E-34
9.33013E-01 4.17128E-34
9.35178E-01 3.83832E-34
9.37310E-01 3.53072E-34
9.39409E-01 3.24671E-34
9.41474E-01 2.98459E-34
9.43505E-01 2.74280E-34
9.45503E-01 2.51988E-34
9.47467E-01 2.31445E-34
9.49397E-01 2.12522E-34
9.51293E-01 1.95100E-34
9.53154E-01 1.79064E-34
9.54981E-01 1.64311E-34
9.56773E-01 1.50742E-34
9.58530E-01 1.38266E-34
9.60252E-01 1.26799E-34
9.61940E-01 1.16260E-34
9.63592E-01 1.06578E-34
9.65209E-01 9.76831E-35
9.66790E-01 8.95127E-35
9.68336E-01 8.20085E-35
9.69846E-01 7.51166E-35
9.71321E-01 6.87868E-35
9.72759E-01 6.29717E-35
9.74162E-01 5.76298E-35
9.75528E-01 5.27220E-35
9.76858E-01 4.82110E-35
9.78152E-01 4.40643E-35
9.79410E-01 4.02510E-35
9.80631E-01 3.67431E-35
9.81815E-01 3.35150E-35
9.82963E-01 3.05434E-35
9.84074E-01 2.78060E-35
9.85148E-01 2.52841E-35
9.86185E-01 2.29597E-35
9.87185E-01 2.08160E-35
9.88148E-01 1.88385E-35
9.89074E-01 1.70139E-35
9.89962E-01 1.53302E-35
9.90814E-01 1.37759E-35
9.91627E-01 1.23417E-35
9.92404E-01 1.10184E-35
9.93143E-01 9.79784E-36
9.93844E-01 8.67319E-36
9.94508E-01 7.63763E-36
9.95134E-01 6.68585E-36
9.95722E-01 5.81207E-36
9.96273E-01 5.01223E-36
9.96786E-01 4.28215E-36
9.97261E-01 3.61838E-36
9.97698E-01 3.01760E-36
9.98097E-01 2.47725E-36
9.98459E-01 1.99468E-36
9.98782E-01 1.56801E-36
9.99067E-01 1.19555E-36
9.99315E-01 8.75379E-37
9.99524E-01 6.06586E-37
9.99695E-01 3.88097E-37
9.99829E-01 2.18995E-37
9.99924E-01 9.86233E-38
9.99981E-01 2.65513E-38
1.00000E+00 2.57032E-39
