 #
 # Subroutine ELSEPA. Elastic scattering of electrons and positrons
 #                    by neutral atoms and positive ions
 #
 # Projectile: positron
 # Kinetic energy = 1.25000E+07 eV = 4.59367E+05 a.u.
 #
 # WARNING: High-energy factorization with free-atom DF screening.
 #          Absorption, polarization and exchange corrections are
 #          switched off.
 #          Phase shifts are calculated for the bare nucleus.
 #          Scattering amplitudes are not evaluated.
 #
 # Element: Hf,  Z =  72,  atomic weight = 1.78490E+02 g/mol
 #
 # Nuclear model: Fermi distribution
 #                Average radius = 6.02451E-13 cm
 #                Skin thickness = 5.46000E-14 cm
 #
 # Number of electrons = 72
 #
 # Total elastic cross section = 7.32294E-18 cm**2 = 2.61507E-01 a0**2
 # 1st transport cross section = 4.39190E-23 cm**2 = 1.56838E-06 a0**2
 # 2nd transport cross section = 1.27282E-22 cm**2 = 4.54533E-06 a0**2
 #
 #
 # Differential cross section:                       MU=(1-COS(THETA))/2
 #
 #  THETA        MU          DCS          DCS        Sherman      error
 #  (deg)                 (cm**2/sr)   (a0**2/sr)    function
 #----------------------------------------------------------------------
0.00000E+00 1.06960E-11
7.61557E-13 1.06954E-11
1.18994E-12 1.06951E-11
1.71346E-12 1.06947E-11
2.33225E-12 1.06942E-11
3.04617E-12 1.06937E-11
3.85530E-12 1.06930E-11
4.75964E-12 1.06923E-11
5.75917E-12 1.06916E-11
6.85391E-12 1.06907E-11
8.04379E-12 1.06898E-11
9.32893E-12 1.06888E-11
1.07092E-11 1.06878E-11
1.21847E-11 1.06867E-11
1.37554E-11 1.06855E-11
1.54213E-11 1.06842E-11
1.71823E-11 1.06828E-11
1.90386E-11 1.06814E-11
2.09900E-11 1.06799E-11
2.30367E-11 1.06784E-11
2.51785E-11 1.06767E-11
2.74156E-11 1.06750E-11
2.97478E-11 1.06733E-11
3.21752E-11 1.06714E-11
3.46979E-11 1.06695E-11
3.73157E-11 1.06675E-11
4.00286E-11 1.06654E-11
4.28368E-11 1.06633E-11
4.57402E-11 1.06611E-11
4.87388E-11 1.06588E-11
5.18325E-11 1.06565E-11
5.50215E-11 1.06541E-11
5.83057E-11 1.06516E-11
6.16850E-11 1.06490E-11
6.51595E-11 1.06464E-11
6.87293E-11 1.06437E-11
7.23943E-11 1.06409E-11
7.61544E-11 1.06381E-11
1.18991E-10 1.06058E-11
1.71347E-10 1.05665E-11
2.33223E-10 1.05205E-11
3.04617E-10 1.04678E-11
3.85531E-10 1.04086E-11
4.75965E-10 1.03431E-11
5.75917E-10 1.02715E-11
6.85389E-10 1.01940E-11
8.04380E-10 1.01109E-11
9.32891E-10 1.00224E-11
1.07092E-09 9.92885E-12
1.21847E-09 9.83043E-12
1.37554E-09 9.72740E-12
1.54213E-09 9.61983E-12
1.71823E-09 9.50848E-12
1.90386E-09 9.39370E-12
2.09900E-09 9.27579E-12
2.30367E-09 9.15409E-12
2.51785E-09 9.02976E-12
2.74156E-09 8.90323E-12
2.97478E-09 8.77480E-12
3.21752E-09 8.64392E-12
3.46978E-09 8.51131E-12
3.73156E-09 8.37766E-12
4.00286E-09 8.24323E-12
4.28368E-09 8.10770E-12
4.57402E-09 7.97118E-12
4.87388E-09 7.83463E-12
5.18326E-09 7.69828E-12
5.50215E-09 7.56203E-12
5.83057E-09 7.42540E-12
6.16850E-09 7.28958E-12
6.51596E-09 7.15472E-12
6.87293E-09 7.02096E-12
7.23942E-09 6.88733E-12
7.61544E-09 6.75513E-12
1.18991E-08 5.52213E-12
1.71347E-08 4.48854E-12
2.33223E-08 3.66223E-12
3.04617E-08 3.01589E-12
3.85531E-08 2.51192E-12
4.75965E-08 2.11670E-12
5.75917E-08 1.80284E-12
6.85389E-08 1.54942E-12
8.04380E-08 1.34218E-12
9.32891E-08 1.17012E-12
1.07092E-07 1.02552E-12
1.21847E-07 9.03034E-13
1.37554E-07 7.97026E-13
1.54213E-07 7.00453E-13
1.71823E-07 6.21608E-13
1.90386E-07 5.56601E-13
2.09900E-07 5.02508E-13
2.30367E-07 4.48430E-13
2.51785E-07 4.02221E-13
2.74156E-07 3.63240E-13
2.97478E-07 3.30116E-13
3.21752E-07 2.98725E-13
3.46978E-07 2.70515E-13
3.73156E-07 2.46263E-13
4.00286E-07 2.25295E-13
4.28368E-07 2.06047E-13
4.57402E-07 1.88158E-13
4.87388E-07 1.72538E-13
5.18325E-07 1.58837E-13
5.50215E-07 1.46481E-13
5.83057E-07 1.34703E-13
6.16850E-07 1.24287E-13
6.51596E-07 1.15041E-13
6.87293E-07 1.06796E-13
7.23942E-07 9.87737E-14
7.61543E-07 9.16047E-14
1.18991E-06 4.61534E-14
1.71347E-06 2.52765E-14
2.33223E-06 1.48686E-14
3.04617E-06 9.31931E-15
3.85531E-06 6.15623E-15
4.75964E-06 4.24686E-15
5.75916E-06 3.03533E-15
6.85388E-06 2.22846E-15
8.04378E-06 1.67300E-15
9.32888E-06 1.28034E-15
1.07092E-05 9.96248E-16
1.21846E-05 7.86450E-16
1.37553E-05 6.28597E-16
1.54212E-05 5.08151E-16
1.71822E-05 4.15499E-16
1.90385E-05 3.42796E-16
2.09899E-05 2.85509E-16
2.30365E-05 2.39807E-16
2.51783E-05 2.02687E-16
2.74153E-05 1.72514E-16
2.97475E-05 1.47710E-16
3.21749E-05 1.27197E-16
3.46974E-05 1.10171E-16
3.73152E-05 9.58706E-17
4.00281E-05 8.38539E-17
4.28362E-05 7.36587E-17
4.57395E-05 6.49678E-17
4.87380E-05 5.75276E-17
5.18317E-05 5.11075E-17
5.50205E-05 4.55649E-17
5.83045E-05 4.07484E-17
6.16838E-05 3.65537E-17
6.51582E-05 3.28886E-17
6.87277E-05 2.96691E-17
7.23925E-05 2.68383E-17
7.61524E-05 2.43350E-17
9.21439E-05 1.68199E-17
1.09658E-04 1.19903E-17
1.28695E-04 8.77518E-18
1.49255E-04 6.56652E-18
1.71338E-04 5.00983E-18
1.94942E-04 3.88735E-18
2.20070E-04 3.06165E-18
2.46720E-04 2.44361E-18
2.74892E-04 1.97367E-18
3.04586E-04 1.61126E-18
3.35803E-04 1.32822E-18
3.68542E-04 1.10461E-18
4.02802E-04 9.26077E-19
4.38585E-04 7.82157E-19
4.75889E-04 6.65104E-19
5.14715E-04 5.69125E-19
5.55063E-04 4.89833E-19
5.96931E-04 4.23862E-19
6.40321E-04 3.68619E-19
6.85233E-04 3.22078E-19
7.31665E-04 2.82644E-19
7.79618E-04 2.49056E-19
8.29092E-04 2.20304E-19
8.80086E-04 1.95577E-19
9.32601E-04 1.74218E-19
9.86636E-04 1.55690E-19
1.04219E-03 1.39556E-19
1.09927E-03 1.25455E-19
1.15786E-03 1.13086E-19
1.21797E-03 1.02201E-19
1.27961E-03 9.25921E-20
1.34276E-03 8.40830E-20
1.40743E-03 7.65266E-20
1.47362E-03 6.97981E-20
1.54133E-03 6.37910E-20
1.61056E-03 5.84146E-20
1.68131E-03 5.35911E-20
1.75357E-03 4.92538E-20
1.82735E-03 4.53452E-20
1.90265E-03 4.18154E-20
1.97947E-03 3.86213E-20
2.05780E-03 3.57255E-20
2.13765E-03 3.30950E-20
2.21902E-03 3.07014E-20
2.30190E-03 2.85196E-20
2.38630E-03 2.65274E-20
2.47222E-03 2.47056E-20
2.55965E-03 2.30368E-20
2.64859E-03 2.15061E-20
2.73905E-03 2.00999E-20
2.83103E-03 1.88063E-20
2.92452E-03 1.76147E-20
3.01952E-03 1.65156E-20
3.11604E-03 1.55005E-20
3.21407E-03 1.45619E-20
3.31362E-03 1.36929E-20
3.41468E-03 1.28876E-20
3.51725E-03 1.21403E-20
3.62133E-03 1.14461E-20
3.72692E-03 1.08007E-20
3.83403E-03 1.01999E-20
3.94265E-03 9.64004E-21
4.05278E-03 9.11793E-21
4.16442E-03 8.63052E-21
4.27757E-03 8.17509E-21
4.39223E-03 7.74915E-21
4.50840E-03 7.35046E-21
4.62608E-03 6.97695E-21
4.74527E-03 6.62674E-21
4.86597E-03 6.29812E-21
4.98817E-03 5.98951E-21
5.11188E-03 5.69948E-21
5.23711E-03 5.42669E-21
5.36383E-03 5.16994E-21
5.49207E-03 4.92812E-21
5.62181E-03 4.70019E-21
5.75306E-03 4.48522E-21
5.88581E-03 4.28232E-21
6.02007E-03 4.09071E-21
6.15583E-03 3.90963E-21
6.29310E-03 3.73840E-21
6.43187E-03 3.57639E-21
6.57214E-03 3.42301E-21
6.71392E-03 3.27771E-21
6.85720E-03 3.14000E-21
7.00198E-03 3.00940E-21
7.14827E-03 2.88547E-21
7.29605E-03 2.76782E-21
7.44534E-03 2.65607E-21
7.59612E-03 2.54987E-21
7.97965E-03 2.30655E-21
8.37255E-03 2.09140E-21
8.77480E-03 1.90060E-21
9.18641E-03 1.73094E-21
9.60736E-03 1.57968E-21
1.00376E-02 1.44448E-21
1.04773E-02 1.32334E-21
1.09262E-02 1.21455E-21
1.13844E-02 1.11664E-21
1.18520E-02 1.02832E-21
1.23288E-02 9.48511E-22
1.28150E-02 8.76235E-22
1.33104E-02 8.10664E-22
1.38150E-02 7.51066E-22
1.43290E-02 6.96803E-22
1.48521E-02 6.47315E-22
1.53845E-02 6.02108E-22
1.59262E-02 5.60748E-22
1.64770E-02 5.22849E-22
1.70371E-02 4.88073E-22
1.76063E-02 4.56114E-22
1.81848E-02 4.26707E-22
1.87724E-02 3.99611E-22
1.93692E-02 3.74613E-22
1.99751E-02 3.51522E-22
2.05901E-02 3.30166E-22
2.12143E-02 3.10393E-22
2.18476E-02 2.92064E-22
2.24900E-02 2.75055E-22
2.31415E-02 2.59254E-22
2.38021E-02 2.44561E-22
2.44717E-02 2.30883E-22
2.51504E-02 2.18139E-22
2.58382E-02 2.06253E-22
2.65349E-02 1.95157E-22
2.72407E-02 1.84790E-22
2.79555E-02 1.75094E-22
2.86793E-02 1.66019E-22
2.94120E-02 1.57519E-22
3.01537E-02 1.49549E-22
3.09043E-02 1.42071E-22
3.16639E-02 1.35050E-22
3.24324E-02 1.28452E-22
3.32098E-02 1.22248E-22
3.39961E-02 1.16409E-22
3.47912E-02 1.10910E-22
3.55952E-02 1.05729E-22
3.64081E-02 1.00842E-22
3.72297E-02 9.62317E-23
3.80602E-02 9.18783E-23
3.88995E-02 8.77652E-23
3.97476E-02 8.38767E-23
4.06044E-02 8.01985E-23
4.14700E-02 7.67171E-23
4.23443E-02 7.34200E-23
4.32273E-02 7.02959E-23
4.41190E-02 6.73339E-23
4.50194E-02 6.45242E-23
4.59284E-02 6.18575E-23
4.68461E-02 5.93252E-23
4.87074E-02 5.46326E-23
5.06030E-02 5.03887E-23
5.25328E-02 4.65433E-23
5.44967E-02 4.30527E-23
5.64946E-02 3.98786E-23
5.85262E-02 3.69874E-23
6.05914E-02 3.43496E-23
6.26901E-02 3.19393E-23
6.48222E-02 2.97335E-23
6.69873E-02 2.77118E-23
6.91854E-02 2.58563E-23
7.14163E-02 2.41510E-23
7.36799E-02 2.25817E-23
7.59760E-02 2.11356E-23
7.83043E-02 1.98014E-23
8.06647E-02 1.85690E-23
8.30571E-02 1.74294E-23
8.54812E-02 1.63742E-23
8.79369E-02 1.53962E-23
9.04240E-02 1.44887E-23
9.29422E-02 1.36459E-23
9.54915E-02 1.28622E-23
9.80716E-02 1.21329E-23
1.00682E-01 1.14536E-23
1.03323E-01 1.08201E-23
1.05995E-01 1.02289E-23
1.08696E-01 9.67670E-24
1.11427E-01 9.16046E-24
1.14188E-01 8.67743E-24
1.16978E-01 8.22512E-24
1.19797E-01 7.80123E-24
1.22645E-01 7.40368E-24
1.25522E-01 7.03054E-24
1.28428E-01 6.68005E-24
1.31361E-01 6.35062E-24
1.34323E-01 6.04075E-24
1.37313E-01 5.74908E-24
1.40330E-01 5.47437E-24
1.43375E-01 5.21545E-24
1.46447E-01 4.97128E-24
1.49545E-01 4.74085E-24
1.52671E-01 4.52327E-24
1.55823E-01 4.31762E-24
1.59001E-01 4.12320E-24
1.62205E-01 3.93929E-24
1.65435E-01 3.76522E-24
1.68690E-01 3.60039E-24
1.71970E-01 3.44421E-24
1.75276E-01 3.29615E-24
1.78606E-01 3.15572E-24
1.81961E-01 3.02246E-24
1.85340E-01 2.89593E-24
1.88743E-01 2.77575E-24
1.92169E-01 2.66153E-24
1.95619E-01 2.55294E-24
1.99092E-01 2.44964E-24
2.02589E-01 2.35134E-24
2.06107E-01 2.25774E-24
2.09649E-01 2.16860E-24
2.13212E-01 2.08365E-24
2.16797E-01 2.00268E-24
2.20404E-01 1.92545E-24
2.24032E-01 1.85177E-24
2.27680E-01 1.78145E-24
2.31350E-01 1.71431E-24
2.35040E-01 1.65018E-24
2.38751E-01 1.58889E-24
2.42481E-01 1.53032E-24
2.46231E-01 1.47431E-24
2.50000E-01 1.42073E-24
2.53788E-01 1.36946E-24
2.57595E-01 1.32038E-24
2.61421E-01 1.27338E-24
2.65264E-01 1.22837E-24
2.69126E-01 1.18524E-24
2.73005E-01 1.14390E-24
2.76901E-01 1.10426E-24
2.80814E-01 1.06624E-24
2.84744E-01 1.02977E-24
2.88691E-01 9.94771E-25
2.92653E-01 9.61171E-25
2.96632E-01 9.28907E-25
3.00625E-01 8.97917E-25
3.04634E-01 8.68143E-25
3.08658E-01 8.39527E-25
3.12697E-01 8.12019E-25
3.16749E-01 7.85567E-25
3.20816E-01 7.60125E-25
3.24896E-01 7.35648E-25
3.28990E-01 7.12092E-25
3.33097E-01 6.89418E-25
3.37216E-01 6.67586E-25
3.41348E-01 6.46561E-25
3.45492E-01 6.26308E-25
3.49647E-01 6.06793E-25
3.53814E-01 5.87986E-25
3.57992E-01 5.69856E-25
3.62181E-01 5.52374E-25
3.66381E-01 5.35515E-25
3.70590E-01 5.19252E-25
3.74810E-01 5.03561E-25
3.79039E-01 4.88417E-25
3.83277E-01 4.73800E-25
3.87524E-01 4.59687E-25
3.91780E-01 4.46058E-25
3.96044E-01 4.32895E-25
4.00316E-01 4.20178E-25
4.04596E-01 4.07890E-25
4.08882E-01 3.96014E-25
4.13176E-01 3.84535E-25
4.17476E-01 3.73436E-25
4.21783E-01 3.62703E-25
4.26095E-01 3.52322E-25
4.30413E-01 3.42280E-25
4.34737E-01 3.32563E-25
4.39065E-01 3.23160E-25
4.43398E-01 3.14059E-25
4.47736E-01 3.05248E-25
4.52077E-01 2.96717E-25
4.56422E-01 2.88456E-25
4.60770E-01 2.80454E-25
4.65122E-01 2.72702E-25
4.69476E-01 2.65192E-25
4.73832E-01 2.57914E-25
4.78190E-01 2.50860E-25
4.82550E-01 2.44022E-25
4.86912E-01 2.37392E-25
4.91274E-01 2.30964E-25
4.95637E-01 2.24729E-25
5.00000E-01 2.18682E-25
5.04363E-01 2.12816E-25
5.08726E-01 2.07124E-25
5.13088E-01 2.01600E-25
5.17450E-01 1.96240E-25
5.21810E-01 1.91036E-25
5.26168E-01 1.85985E-25
5.30524E-01 1.81080E-25
5.34878E-01 1.76317E-25
5.39230E-01 1.71691E-25
5.43578E-01 1.67198E-25
5.47923E-01 1.62833E-25
5.52264E-01 1.58592E-25
5.56602E-01 1.54471E-25
5.60935E-01 1.50466E-25
5.65263E-01 1.46573E-25
5.69587E-01 1.42789E-25
5.73905E-01 1.39110E-25
5.78217E-01 1.35532E-25
5.82524E-01 1.32054E-25
5.86824E-01 1.28671E-25
5.91118E-01 1.25380E-25
5.95404E-01 1.22179E-25
5.99684E-01 1.19065E-25
6.03956E-01 1.16034E-25
6.08220E-01 1.13086E-25
6.12476E-01 1.10216E-25
6.16723E-01 1.07422E-25
6.20961E-01 1.04703E-25
6.25190E-01 1.02056E-25
6.29410E-01 9.94791E-26
6.33619E-01 9.69696E-26
6.37819E-01 9.45257E-26
6.42008E-01 9.21455E-26
6.46186E-01 8.98272E-26
6.50353E-01 8.75688E-26
6.54508E-01 8.53687E-26
6.58652E-01 8.32251E-26
6.62784E-01 8.11364E-26
6.66903E-01 7.91010E-26
6.71010E-01 7.71173E-26
6.75104E-01 7.51839E-26
6.79184E-01 7.32993E-26
6.83251E-01 7.14621E-26
6.87303E-01 6.96710E-26
6.91342E-01 6.79247E-26
6.95366E-01 6.62219E-26
6.99375E-01 6.45615E-26
7.03368E-01 6.29421E-26
7.07347E-01 6.13627E-26
7.11309E-01 5.98221E-26
7.15256E-01 5.83194E-26
7.19186E-01 5.68534E-26
7.23099E-01 5.54232E-26
7.26995E-01 5.40277E-26
7.30874E-01 5.26661E-26
7.34736E-01 5.13374E-26
7.38579E-01 5.00408E-26
7.42405E-01 4.87753E-26
7.46212E-01 4.75402E-26
7.50000E-01 4.63346E-26
7.53769E-01 4.51578E-26
7.57519E-01 4.40090E-26
7.61249E-01 4.28875E-26
7.64960E-01 4.17926E-26
7.68650E-01 4.07235E-26
7.72320E-01 3.96796E-26
7.75968E-01 3.86603E-26
7.79596E-01 3.76649E-26
7.83203E-01 3.66929E-26
7.86788E-01 3.57435E-26
7.90351E-01 3.48163E-26
7.93893E-01 3.39107E-26
7.97411E-01 3.30262E-26
8.00908E-01 3.21621E-26
8.04381E-01 3.13181E-26
8.07831E-01 3.04936E-26
8.11257E-01 2.96881E-26
8.14660E-01 2.89013E-26
8.18039E-01 2.81325E-26
8.21394E-01 2.73814E-26
8.24724E-01 2.66475E-26
8.28030E-01 2.59305E-26
8.31310E-01 2.52299E-26
8.34565E-01 2.45454E-26
8.37795E-01 2.38765E-26
8.40999E-01 2.32229E-26
8.44177E-01 2.25842E-26
8.47329E-01 2.19601E-26
8.50455E-01 2.13503E-26
8.53553E-01 2.07543E-26
8.56625E-01 2.01720E-26
8.59670E-01 1.96029E-26
8.62687E-01 1.90468E-26
8.65677E-01 1.85034E-26
8.68639E-01 1.79724E-26
8.71572E-01 1.74535E-26
8.74478E-01 1.69464E-26
8.77355E-01 1.64510E-26
8.80203E-01 1.59668E-26
8.83022E-01 1.54938E-26
8.85812E-01 1.50316E-26
8.88573E-01 1.45800E-26
8.91304E-01 1.41387E-26
8.94005E-01 1.37076E-26
8.96677E-01 1.32865E-26
8.99318E-01 1.28751E-26
9.01928E-01 1.24732E-26
9.04508E-01 1.20806E-26
9.07058E-01 1.16972E-26
9.09576E-01 1.13227E-26
9.12063E-01 1.09570E-26
9.14519E-01 1.05999E-26
9.16943E-01 1.02512E-26
9.19335E-01 9.91069E-27
9.21696E-01 9.57831E-27
9.24024E-01 9.25385E-27
9.26320E-01 8.93716E-27
9.28584E-01 8.62810E-27
9.30815E-01 8.32651E-27
9.33013E-01 8.03226E-27
9.35178E-01 7.74520E-27
9.37310E-01 7.46521E-27
9.39409E-01 7.19215E-27
9.41474E-01 6.92591E-27
9.43505E-01 6.66634E-27
9.45503E-01 6.41335E-27
9.47467E-01 6.16681E-27
9.49397E-01 5.92660E-27
9.51293E-01 5.69263E-27
9.53154E-01 5.46478E-27
9.54981E-01 5.24295E-27
9.56773E-01 5.02705E-27
9.58530E-01 4.81697E-27
9.60252E-01 4.61263E-27
9.61940E-01 4.41392E-27
9.63592E-01 4.22077E-27
9.65209E-01 4.03309E-27
9.66790E-01 3.85079E-27
9.68336E-01 3.67380E-27
9.69846E-01 3.50203E-27
9.71321E-01 3.33542E-27
9.72759E-01 3.17388E-27
9.74162E-01 3.01736E-27
9.75528E-01 2.86578E-27
9.76858E-01 2.71907E-27
9.78152E-01 2.57718E-27
9.79410E-01 2.44004E-27
9.80631E-01 2.30759E-27
9.81815E-01 2.17978E-27
9.82963E-01 2.05655E-27
9.84074E-01 1.93785E-27
9.85148E-01 1.82362E-27
9.86185E-01 1.71383E-27
9.87185E-01 1.60842E-27
9.88148E-01 1.50735E-27
9.89074E-01 1.41057E-27
9.89962E-01 1.31805E-27
9.90814E-01 1.22975E-27
9.91627E-01 1.14563E-27
9.92404E-01 1.06564E-27
9.93143E-01 9.89774E-28
9.93844E-01 9.17981E-28
9.94508E-01 8.50238E-28
9.95134E-01 7.86514E-28
9.95722E-01 7.26784E-28
9.96273E-01 6.71023E-28
9.96786E-01 6.19207E-28
9.97261E-01 5.71315E-28
9.97698E-01 5.27327E-28
9.98097E-01 4.87225E-28
9.98459E-01 4.50993E-28
9.98782E-01 4.18614E-28
9.99067E-01 3.90076E-28
9.99315E-01 3.65367E-28
9.99524E-01 3.44476E-28
9.99695E-01 3.27396E-28
9.99829E-01 3.14118E-28
9.99924E-01 3.04638E-28
9.99981E-01 2.98952E-28
1.00000E+00 2.97057E-28
