 #
 # Subroutine ELSEPA. Elastic scattering of electrons and positrons
 #                    by neutral atoms and positive ions
 #
 # Projectile: positron
 # Kinetic energy = 2.00000E+07 eV = 7.34987E+05 a.u.
 #
 # WARNING: High-energy factorization with free-atom DF screening.
 #          Absorption, polarization and exchange corrections are
 #          switched off.
 #          Phase shifts are calculated for the bare nucleus.
 #          Scattering amplitudes are not evaluated.
 #
 # Element: Hf,  Z =  72,  atomic weight = 1.78490E+02 g/mol
 #
 # Nuclear model: Fermi distribution
 #                Average radius = 6.02451E-13 cm
 #                Skin thickness = 5.46000E-14 cm
 #
 # Number of electrons = 72
 #
 # Total elastic cross section = 7.31911E-18 cm**2 = 2.61370E-01 a0**2
 # 1st transport cross section = 1.90551E-23 cm**2 = 6.80471E-07 a0**2
 # 2nd transport cross section = 5.54181E-23 cm**2 = 1.97902E-06 a0**2
 #
 #
 # Differential cross section:                       MU=(1-COS(THETA))/2
 #
 #  THETA        MU          DCS          DCS        Sherman      error
 #  (deg)                 (cm**2/sr)   (a0**2/sr)    function
 #----------------------------------------------------------------------
0.00000E+00 2.65812E-11
7.61557E-13 2.65775E-11
1.18994E-12 2.65755E-11
1.71346E-12 2.65730E-11
2.33225E-12 2.65701E-11
3.04617E-12 2.65667E-11
3.85530E-12 2.65629E-11
4.75964E-12 2.65586E-11
5.75917E-12 2.65539E-11
6.85391E-12 2.65487E-11
8.04379E-12 2.65431E-11
9.32893E-12 2.65371E-11
1.07092E-11 2.65306E-11
1.21847E-11 2.65236E-11
1.37554E-11 2.65162E-11
1.54213E-11 2.65084E-11
1.71823E-11 2.65001E-11
1.90386E-11 2.64914E-11
2.09900E-11 2.64823E-11
2.30367E-11 2.64727E-11
2.51785E-11 2.64627E-11
2.74156E-11 2.64522E-11
2.97478E-11 2.64413E-11
3.21752E-11 2.64299E-11
3.46979E-11 2.64182E-11
3.73157E-11 2.64060E-11
4.00286E-11 2.63933E-11
4.28368E-11 2.63802E-11
4.57402E-11 2.63667E-11
4.87388E-11 2.63528E-11
5.18325E-11 2.63384E-11
5.50215E-11 2.63236E-11
5.83057E-11 2.63084E-11
6.16850E-11 2.62928E-11
6.51595E-11 2.62767E-11
6.87293E-11 2.62602E-11
7.23943E-11 2.62433E-11
7.61544E-11 2.62260E-11
1.18991E-10 2.60299E-11
1.71347E-10 2.57935E-11
2.33223E-10 2.55188E-11
3.04617E-10 2.52079E-11
3.85531E-10 2.48632E-11
4.75965E-10 2.44872E-11
5.75917E-10 2.40822E-11
6.85389E-10 2.36511E-11
8.04380E-10 2.31985E-11
9.32891E-10 2.27250E-11
1.07092E-09 2.22345E-11
1.21847E-09 2.17316E-11
1.37554E-09 2.12145E-11
1.54213E-09 2.06904E-11
1.71823E-09 2.01607E-11
1.90386E-09 1.96256E-11
2.09900E-09 1.90910E-11
2.30367E-09 1.85561E-11
2.51785E-09 1.80238E-11
2.74156E-09 1.74976E-11
2.97478E-09 1.69751E-11
3.21752E-09 1.64612E-11
3.46978E-09 1.59566E-11
3.73156E-09 1.54602E-11
4.00286E-09 1.49758E-11
4.28368E-09 1.45021E-11
4.57402E-09 1.40402E-11
4.87388E-09 1.35918E-11
5.18326E-09 1.31548E-11
5.50215E-09 1.27316E-11
5.83057E-09 1.23220E-11
6.16850E-09 1.19246E-11
6.51596E-09 1.15413E-11
6.87293E-09 1.11708E-11
7.23942E-09 1.08131E-11
7.61544E-09 1.04689E-11
1.18991E-08 7.65875E-12
1.71347E-08 5.75906E-12
2.33223E-08 4.45259E-12
3.04617E-08 3.52154E-12
3.85531E-08 2.83330E-12
4.75965E-08 2.30955E-12
5.75917E-08 1.89150E-12
6.85389E-08 1.55821E-12
8.04380E-08 1.31277E-12
9.32891E-08 1.10460E-12
1.07092E-07 9.34244E-13
1.21847E-07 8.03019E-13
1.37554E-07 6.84780E-13
1.54213E-07 5.90957E-13
1.71823E-07 5.13778E-13
1.90386E-07 4.45966E-13
2.09900E-07 3.91006E-13
2.30367E-07 3.43306E-13
2.51785E-07 3.02360E-13
2.74156E-07 2.68383E-13
2.97478E-07 2.37643E-13
3.21752E-07 2.11645E-13
3.46978E-07 1.89277E-13
3.73156E-07 1.69139E-13
4.00286E-07 1.51961E-13
4.28368E-07 1.36678E-13
4.57402E-07 1.23134E-13
4.87388E-07 1.11426E-13
5.18325E-07 1.00749E-13
5.50215E-07 9.13940E-14
5.83057E-07 8.31383E-14
6.16850E-07 7.56303E-14
6.51596E-07 6.90270E-14
6.87293E-07 6.30847E-14
7.23942E-07 5.77343E-14
7.61543E-07 5.29861E-14
1.18991E-06 2.43669E-14
1.71347E-06 1.28266E-14
2.33223E-06 7.45178E-15
3.04617E-06 4.63277E-15
3.85531E-06 3.02938E-15
4.75964E-06 2.06257E-15
5.75916E-06 1.44984E-15
6.85388E-06 1.04913E-15
8.04378E-06 7.77568E-16
9.32888E-06 5.88337E-16
1.07092E-05 4.53333E-16
1.21846E-05 3.54861E-16
1.37553E-05 2.81743E-16
1.54212E-05 2.26536E-16
1.71822E-05 1.84222E-16
1.90385E-05 1.51271E-16
2.09899E-05 1.25513E-16
2.30365E-05 1.04999E-16
2.51783E-05 8.84885E-17
2.74153E-05 7.50820E-17
2.97475E-05 6.41122E-17
3.21749E-05 5.50739E-17
3.46974E-05 4.75776E-17
3.73152E-05 4.13192E-17
4.00281E-05 3.60602E-17
4.28362E-05 3.16128E-17
4.57395E-05 2.78288E-17
4.87380E-05 2.45919E-17
5.18317E-05 2.18098E-17
5.50205E-05 1.94082E-17
5.83045E-05 1.73272E-17
6.16838E-05 1.55173E-17
6.51582E-05 1.39376E-17
6.87277E-05 1.25540E-17
7.23925E-05 1.13379E-17
7.61524E-05 1.02653E-17
9.21439E-05 7.05559E-18
1.09658E-04 5.00594E-18
1.28695E-04 3.64892E-18
1.49255E-04 2.72151E-18
1.71338E-04 2.07080E-18
1.94942E-04 1.60328E-18
2.20070E-04 1.26049E-18
2.46720E-04 1.00456E-18
2.74892E-04 8.10369E-19
3.04586E-04 6.60881E-19
3.35803E-04 5.44296E-19
3.68542E-04 4.52300E-19
4.02802E-04 3.78924E-19
4.38585E-04 3.19823E-19
4.75889E-04 2.71794E-19
5.14715E-04 2.32439E-19
5.55063E-04 1.99943E-19
5.96931E-04 1.72925E-19
6.40321E-04 1.50312E-19
6.85233E-04 1.31270E-19
7.31665E-04 1.15144E-19
7.79618E-04 1.01415E-19
8.29092E-04 8.96684E-20
8.80086E-04 7.95704E-20
9.32601E-04 7.08511E-20
9.86636E-04 6.32915E-20
1.04219E-03 5.67110E-20
1.09927E-03 5.09619E-20
1.15786E-03 4.59211E-20
1.21797E-03 4.14869E-20
1.27961E-03 3.75736E-20
1.34276E-03 3.41098E-20
1.40743E-03 3.10349E-20
1.47362E-03 2.82978E-20
1.54133E-03 2.58550E-20
1.61056E-03 2.36694E-20
1.68131E-03 2.17092E-20
1.75357E-03 1.99471E-20
1.82735E-03 1.83596E-20
1.90265E-03 1.69265E-20
1.97947E-03 1.56299E-20
2.05780E-03 1.44548E-20
2.13765E-03 1.33877E-20
2.21902E-03 1.24169E-20
2.30190E-03 1.15322E-20
2.38630E-03 1.07246E-20
2.47222E-03 9.98627E-21
2.55965E-03 9.31012E-21
2.64859E-03 8.69002E-21
2.73905E-03 8.12049E-21
2.83103E-03 7.59668E-21
2.92452E-03 7.11427E-21
3.01952E-03 6.66939E-21
3.11604E-03 6.25860E-21
3.21407E-03 5.87883E-21
3.31362E-03 5.52731E-21
3.41468E-03 5.20155E-21
3.51725E-03 4.89934E-21
3.62133E-03 4.61867E-21
3.72692E-03 4.35772E-21
3.83403E-03 4.11486E-21
3.94265E-03 3.88860E-21
4.05278E-03 3.67762E-21
4.16442E-03 3.48068E-21
4.27757E-03 3.29669E-21
4.39223E-03 3.12463E-21
4.50840E-03 2.96361E-21
4.62608E-03 2.81276E-21
4.74527E-03 2.67135E-21
4.86597E-03 2.53867E-21
4.98817E-03 2.41408E-21
5.11188E-03 2.29701E-21
5.23711E-03 2.18691E-21
5.36383E-03 2.08329E-21
5.49207E-03 1.98570E-21
5.62181E-03 1.89373E-21
5.75306E-03 1.80700E-21
5.88581E-03 1.72514E-21
6.02007E-03 1.64784E-21
6.15583E-03 1.57480E-21
6.29310E-03 1.50574E-21
6.43187E-03 1.44040E-21
6.57214E-03 1.37855E-21
6.71392E-03 1.31996E-21
6.85720E-03 1.26444E-21
7.00198E-03 1.21178E-21
7.14827E-03 1.16182E-21
7.29605E-03 1.11439E-21
7.44534E-03 1.06935E-21
7.59612E-03 1.02654E-21
7.97965E-03 9.28476E-22
8.37255E-03 8.41776E-22
8.77480E-03 7.64903E-22
9.18641E-03 6.96554E-22
9.60736E-03 6.35623E-22
1.00376E-02 5.81167E-22
1.04773E-02 5.32382E-22
1.09262E-02 4.88575E-22
1.13844E-02 4.49151E-22
1.18520E-02 4.13596E-22
1.23288E-02 3.81466E-22
1.28150E-02 3.52372E-22
1.33104E-02 3.25979E-22
1.38150E-02 3.01992E-22
1.43290E-02 2.80155E-22
1.48521E-02 2.60240E-22
1.53845E-02 2.42049E-22
1.59262E-02 2.25407E-22
1.64770E-02 2.10159E-22
1.70371E-02 1.96168E-22
1.76063E-02 1.83311E-22
1.81848E-02 1.71482E-22
1.87724E-02 1.60582E-22
1.93692E-02 1.50527E-22
1.99751E-02 1.41240E-22
2.05901E-02 1.32651E-22
2.12143E-02 1.24699E-22
2.18476E-02 1.17328E-22
2.24900E-02 1.10488E-22
2.31415E-02 1.04135E-22
2.38021E-02 9.82263E-23
2.44717E-02 9.27270E-23
2.51504E-02 8.76031E-23
2.58382E-02 8.28244E-23
2.65349E-02 7.83637E-23
2.72407E-02 7.41959E-23
2.79555E-02 7.02984E-23
2.86793E-02 6.66507E-23
2.94120E-02 6.32337E-23
3.01537E-02 6.00303E-23
3.09043E-02 5.70249E-23
3.16639E-02 5.42030E-23
3.24324E-02 5.15513E-23
3.32098E-02 4.90579E-23
3.39961E-02 4.67115E-23
3.47912E-02 4.45019E-23
3.55952E-02 4.24199E-23
3.64081E-02 4.04565E-23
3.72297E-02 3.86040E-23
3.80602E-02 3.68549E-23
3.88995E-02 3.52024E-23
3.97476E-02 3.36403E-23
4.06044E-02 3.21626E-23
4.14700E-02 3.07641E-23
4.23443E-02 2.94397E-23
4.32273E-02 2.81848E-23
4.41190E-02 2.69951E-23
4.50194E-02 2.58666E-23
4.59284E-02 2.47956E-23
4.68461E-02 2.37786E-23
4.87074E-02 2.18942E-23
5.06030E-02 2.01901E-23
5.25328E-02 1.86461E-23
5.44967E-02 1.72448E-23
5.64946E-02 1.59707E-23
5.85262E-02 1.48103E-23
6.05914E-02 1.37518E-23
6.26901E-02 1.27844E-23
6.48222E-02 1.18991E-23
6.69873E-02 1.10877E-23
6.91854E-02 1.03432E-23
7.14163E-02 9.65899E-24
7.36799E-02 9.02940E-24
7.59760E-02 8.44933E-24
7.83043E-02 7.91422E-24
8.06647E-02 7.41998E-24
8.30571E-02 6.96298E-24
8.54812E-02 6.53991E-24
8.79369E-02 6.14784E-24
9.04240E-02 5.78411E-24
9.29422E-02 5.44631E-24
9.54915E-02 5.13228E-24
9.80716E-02 4.84006E-24
1.00682E-01 4.56789E-24
1.03323E-01 4.31415E-24
1.05995E-01 4.07737E-24
1.08696E-01 3.85624E-24
1.11427E-01 3.64954E-24
1.14188E-01 3.45617E-24
1.16978E-01 3.27512E-24
1.19797E-01 3.10547E-24
1.22645E-01 2.94639E-24
1.25522E-01 2.79710E-24
1.28428E-01 2.65689E-24
1.31361E-01 2.52513E-24
1.34323E-01 2.40121E-24
1.37313E-01 2.28459E-24
1.40330E-01 2.17476E-24
1.43375E-01 2.07127E-24
1.46447E-01 1.97368E-24
1.49545E-01 1.88160E-24
1.52671E-01 1.79467E-24
1.55823E-01 1.71255E-24
1.59001E-01 1.63493E-24
1.62205E-01 1.56151E-24
1.65435E-01 1.49204E-24
1.68690E-01 1.42627E-24
1.71970E-01 1.36396E-24
1.75276E-01 1.30490E-24
1.78606E-01 1.24890E-24
1.81961E-01 1.19577E-24
1.85340E-01 1.14533E-24
1.88743E-01 1.09743E-24
1.92169E-01 1.05192E-24
1.95619E-01 1.00866E-24
1.99092E-01 9.67512E-25
2.02589E-01 9.28366E-25
2.06107E-01 8.91104E-25
2.09649E-01 8.55620E-25
2.13212E-01 8.21815E-25
2.16797E-01 7.89598E-25
2.20404E-01 7.58879E-25
2.24032E-01 7.29579E-25
2.27680E-01 7.01620E-25
2.31350E-01 6.74931E-25
2.35040E-01 6.49444E-25
2.38751E-01 6.25097E-25
2.42481E-01 6.01829E-25
2.46231E-01 5.79586E-25
2.50000E-01 5.58314E-25
2.53788E-01 5.37964E-25
2.57595E-01 5.18490E-25
2.61421E-01 4.99847E-25
2.65264E-01 4.81993E-25
2.69126E-01 4.64891E-25
2.73005E-01 4.48504E-25
2.76901E-01 4.32795E-25
2.80814E-01 4.17733E-25
2.84744E-01 4.03287E-25
2.88691E-01 3.89427E-25
2.92653E-01 3.76126E-25
2.96632E-01 3.63357E-25
3.00625E-01 3.51096E-25
3.04634E-01 3.39319E-25
3.08658E-01 3.28003E-25
3.12697E-01 3.17129E-25
3.16749E-01 3.06675E-25
3.20816E-01 2.96623E-25
3.24896E-01 2.86955E-25
3.28990E-01 2.77654E-25
3.33097E-01 2.68704E-25
3.37216E-01 2.60088E-25
3.41348E-01 2.51794E-25
3.45492E-01 2.43806E-25
3.49647E-01 2.36113E-25
3.53814E-01 2.28700E-25
3.57992E-01 2.21556E-25
3.62181E-01 2.14670E-25
3.66381E-01 2.08032E-25
3.70590E-01 2.01630E-25
3.74810E-01 1.95455E-25
3.79039E-01 1.89497E-25
3.83277E-01 1.83749E-25
3.87524E-01 1.78200E-25
3.91780E-01 1.72844E-25
3.96044E-01 1.67673E-25
4.00316E-01 1.62678E-25
4.04596E-01 1.57854E-25
4.08882E-01 1.53192E-25
4.13176E-01 1.48688E-25
4.17476E-01 1.44335E-25
4.21783E-01 1.40127E-25
4.26095E-01 1.36058E-25
4.30413E-01 1.32123E-25
4.34737E-01 1.28317E-25
4.39065E-01 1.24636E-25
4.43398E-01 1.21073E-25
4.47736E-01 1.17626E-25
4.52077E-01 1.14289E-25
4.56422E-01 1.11059E-25
4.60770E-01 1.07932E-25
4.65122E-01 1.04903E-25
4.69476E-01 1.01970E-25
4.73832E-01 9.91281E-26
4.78190E-01 9.63750E-26
4.82550E-01 9.37073E-26
4.86912E-01 9.11218E-26
4.91274E-01 8.86157E-26
4.95637E-01 8.61861E-26
5.00000E-01 8.38304E-26
5.04363E-01 8.15460E-26
5.08726E-01 7.93303E-26
5.13088E-01 7.71811E-26
5.17450E-01 7.50960E-26
5.21810E-01 7.30728E-26
5.26168E-01 7.11095E-26
5.30524E-01 6.92039E-26
5.34878E-01 6.73541E-26
5.39230E-01 6.55584E-26
5.43578E-01 6.38147E-26
5.47923E-01 6.21215E-26
5.52264E-01 6.04770E-26
5.56602E-01 5.88797E-26
5.60935E-01 5.73280E-26
5.65263E-01 5.58204E-26
5.69587E-01 5.43554E-26
5.73905E-01 5.29317E-26
5.78217E-01 5.15480E-26
5.82524E-01 5.02030E-26
5.86824E-01 4.88954E-26
5.91118E-01 4.76241E-26
5.95404E-01 4.63879E-26
5.99684E-01 4.51857E-26
6.03956E-01 4.40164E-26
6.08220E-01 4.28790E-26
6.12476E-01 4.17726E-26
6.16723E-01 4.06961E-26
6.20961E-01 3.96487E-26
6.25190E-01 3.86294E-26
6.29410E-01 3.76374E-26
6.33619E-01 3.66719E-26
6.37819E-01 3.57320E-26
6.42008E-01 3.48171E-26
6.46186E-01 3.39262E-26
6.50353E-01 3.30588E-26
6.54508E-01 3.22142E-26
6.58652E-01 3.13915E-26
6.62784E-01 3.05903E-26
6.66903E-01 2.98099E-26
6.71010E-01 2.90496E-26
6.75104E-01 2.83090E-26
6.79184E-01 2.75873E-26
6.83251E-01 2.68841E-26
6.87303E-01 2.61988E-26
6.91342E-01 2.55310E-26
6.95366E-01 2.48801E-26
6.99375E-01 2.42456E-26
7.03368E-01 2.36271E-26
7.07347E-01 2.30241E-26
7.11309E-01 2.24363E-26
7.15256E-01 2.18631E-26
7.19186E-01 2.13042E-26
7.23099E-01 2.07591E-26
7.26995E-01 2.02275E-26
7.30874E-01 1.97091E-26
7.34736E-01 1.92034E-26
7.38579E-01 1.87101E-26
7.42405E-01 1.82289E-26
7.46212E-01 1.77595E-26
7.50000E-01 1.73014E-26
7.53769E-01 1.68545E-26
7.57519E-01 1.64185E-26
7.61249E-01 1.59930E-26
7.64960E-01 1.55777E-26
7.68650E-01 1.51724E-26
7.72320E-01 1.47769E-26
7.75968E-01 1.43908E-26
7.79596E-01 1.40140E-26
7.83203E-01 1.36461E-26
7.86788E-01 1.32870E-26
7.90351E-01 1.29365E-26
7.93893E-01 1.25942E-26
7.97411E-01 1.22601E-26
8.00908E-01 1.19338E-26
8.04381E-01 1.16153E-26
8.07831E-01 1.13042E-26
8.11257E-01 1.10005E-26
8.14660E-01 1.07039E-26
8.18039E-01 1.04142E-26
8.21394E-01 1.01314E-26
8.24724E-01 9.85512E-27
8.28030E-01 9.58532E-27
8.31310E-01 9.32182E-27
8.34565E-01 9.06446E-27
8.37795E-01 8.81309E-27
8.40999E-01 8.56758E-27
8.44177E-01 8.32777E-27
8.47329E-01 8.09354E-27
8.50455E-01 7.86475E-27
8.53553E-01 7.64127E-27
8.56625E-01 7.42298E-27
8.59670E-01 7.20976E-27
8.62687E-01 7.00149E-27
8.65677E-01 6.79804E-27
8.68639E-01 6.59933E-27
8.71572E-01 6.40522E-27
8.74478E-01 6.21563E-27
8.77355E-01 6.03044E-27
8.80203E-01 5.84956E-27
8.83022E-01 5.67289E-27
8.85812E-01 5.50034E-27
8.88573E-01 5.33181E-27
8.91304E-01 5.16722E-27
8.94005E-01 5.00648E-27
8.96677E-01 4.84951E-27
8.99318E-01 4.69623E-27
9.01928E-01 4.54655E-27
9.04508E-01 4.40040E-27
9.07058E-01 4.25771E-27
9.09576E-01 4.11839E-27
9.12063E-01 3.98239E-27
9.14519E-01 3.84963E-27
9.16943E-01 3.72005E-27
9.19335E-01 3.59358E-27
9.21696E-01 3.47015E-27
9.24024E-01 3.34971E-27
9.26320E-01 3.23220E-27
9.28584E-01 3.11755E-27
9.30815E-01 3.00572E-27
9.33013E-01 2.89664E-27
9.35178E-01 2.79027E-27
9.37310E-01 2.68655E-27
9.39409E-01 2.58544E-27
9.41474E-01 2.48687E-27
9.43505E-01 2.39082E-27
9.45503E-01 2.29722E-27
9.47467E-01 2.20604E-27
9.49397E-01 2.11723E-27
9.51293E-01 2.03075E-27
9.53154E-01 1.94656E-27
9.54981E-01 1.86462E-27
9.56773E-01 1.78489E-27
9.58530E-01 1.70733E-27
9.60252E-01 1.63191E-27
9.61940E-01 1.55860E-27
9.63592E-01 1.48735E-27
9.65209E-01 1.41814E-27
9.66790E-01 1.35093E-27
9.68336E-01 1.28569E-27
9.69846E-01 1.22240E-27
9.71321E-01 1.16102E-27
9.72759E-01 1.10153E-27
9.74162E-01 1.04389E-27
9.75528E-01 9.88092E-28
9.76858E-01 9.34097E-28
9.78152E-01 8.81885E-28
9.79410E-01 8.31432E-28
9.80631E-01 7.82716E-28
9.81815E-01 7.35715E-28
9.82963E-01 6.90408E-28
9.84074E-01 6.46774E-28
9.85148E-01 6.04794E-28
9.86185E-01 5.64450E-28
9.87185E-01 5.25723E-28
9.88148E-01 4.88596E-28
9.89074E-01 4.53054E-28
9.89962E-01 4.19079E-28
9.90814E-01 3.86657E-28
9.91627E-01 3.55774E-28
9.92404E-01 3.26417E-28
9.93143E-01 2.98572E-28
9.93844E-01 2.72227E-28
9.94508E-01 2.47370E-28
9.95134E-01 2.23991E-28
9.95722E-01 2.02080E-28
9.96273E-01 1.81627E-28
9.96786E-01 1.62622E-28
9.97261E-01 1.45059E-28
9.97698E-01 1.28928E-28
9.98097E-01 1.14223E-28
9.98459E-01 1.00938E-28
9.98782E-01 8.90671E-29
9.99067E-01 7.86046E-29
9.99315E-01 6.95463E-29
9.99524E-01 6.18882E-29
9.99695E-01 5.56270E-29
9.99829E-01 5.07600E-29
9.99924E-01 4.72850E-29
9.99981E-01 4.52007E-29
1.00000E+00 4.45060E-29
