 #
 # Subroutine ELSEPA. Elastic scattering of electrons and positrons
 #                    by neutral atoms and positive ions
 #
 # Projectile: positron
 # Kinetic energy = 6.00000E+06 eV = 2.20496E+05 a.u.
 #
 # WARNING: High-energy factorization with free-atom DF screening.
 #          Absorption, polarization and exchange corrections are
 #          switched off.
 #          Phase shifts are calculated for the bare nucleus.
 #          Scattering amplitudes are not evaluated.
 #
 # Element: Hf,  Z =  72,  atomic weight = 1.78490E+02 g/mol
 #
 # Nuclear model: Fermi distribution
 #                Average radius = 6.02451E-13 cm
 #                Skin thickness = 5.46000E-14 cm
 #
 # Number of electrons = 72
 #
 # Total elastic cross section = 7.35357E-18 cm**2 = 2.62601E-01 a0**2
 # 1st transport cross section = 1.55104E-22 cm**2 = 5.53886E-06 a0**2
 # 2nd transport cross section = 4.46888E-22 cm**2 = 1.59587E-05 a0**2
 #
 #
 # Differential cross section:                       MU=(1-COS(THETA))/2
 #
 #  THETA        MU          DCS          DCS        Sherman      error
 #  (deg)                 (cm**2/sr)   (a0**2/sr)    function
 #----------------------------------------------------------------------
0.00000E+00 2.67853E-12
7.61557E-13 2.67849E-12
1.18994E-12 2.67847E-12
1.71346E-12 2.67844E-12
2.33225E-12 2.67841E-12
3.04617E-12 2.67838E-12
3.85530E-12 2.67834E-12
4.75964E-12 2.67829E-12
5.75917E-12 2.67824E-12
6.85391E-12 2.67819E-12
8.04379E-12 2.67813E-12
9.32893E-12 2.67807E-12
1.07092E-11 2.67801E-12
1.21847E-11 2.67793E-12
1.37554E-11 2.67786E-12
1.54213E-11 2.67778E-12
1.71823E-11 2.67769E-12
1.90386E-11 2.67760E-12
2.09900E-11 2.67751E-12
2.30367E-11 2.67741E-12
2.51785E-11 2.67731E-12
2.74156E-11 2.67720E-12
2.97478E-11 2.67709E-12
3.21752E-11 2.67697E-12
3.46979E-11 2.67685E-12
3.73157E-11 2.67673E-12
4.00286E-11 2.67660E-12
4.28368E-11 2.67646E-12
4.57402E-11 2.67633E-12
4.87388E-11 2.67618E-12
5.18325E-11 2.67603E-12
5.50215E-11 2.67588E-12
5.83057E-11 2.67572E-12
6.16850E-11 2.67556E-12
6.51595E-11 2.67540E-12
6.87293E-11 2.67523E-12
7.23943E-11 2.67505E-12
7.61544E-11 2.67487E-12
1.18991E-10 2.67283E-12
1.71347E-10 2.67035E-12
2.33223E-10 2.66741E-12
3.04617E-10 2.66404E-12
3.85531E-10 2.66022E-12
4.75965E-10 2.65597E-12
5.75917E-10 2.65128E-12
6.85389E-10 2.64617E-12
8.04380E-10 2.64062E-12
9.32891E-10 2.63466E-12
1.07092E-09 2.62828E-12
1.21847E-09 2.62149E-12
1.37554E-09 2.61430E-12
1.54213E-09 2.60670E-12
1.71823E-09 2.59872E-12
1.90386E-09 2.59034E-12
2.09900E-09 2.58159E-12
2.30367E-09 2.57246E-12
2.51785E-09 2.56296E-12
2.74156E-09 2.55311E-12
2.97478E-09 2.54290E-12
3.21752E-09 2.53235E-12
3.46978E-09 2.52147E-12
3.73156E-09 2.51025E-12
4.00286E-09 2.49872E-12
4.28368E-09 2.48687E-12
4.57402E-09 2.47473E-12
4.87388E-09 2.46229E-12
5.18326E-09 2.44956E-12
5.50215E-09 2.43655E-12
5.83057E-09 2.42323E-12
6.16850E-09 2.40967E-12
6.51596E-09 2.39587E-12
6.87293E-09 2.38185E-12
7.23942E-09 2.36761E-12
7.61544E-09 2.35317E-12
1.18991E-08 2.19850E-12
1.71347E-08 2.03175E-12
2.33223E-08 1.86113E-12
3.04617E-08 1.69345E-12
3.85531E-08 1.53363E-12
4.75965E-08 1.38484E-12
5.75917E-08 1.24879E-12
6.85389E-08 1.12597E-12
8.04380E-08 1.01625E-12
9.32891E-08 9.18874E-13
1.07092E-07 8.32785E-13
1.21847E-07 7.56812E-13
1.37554E-07 6.89725E-13
1.54213E-07 6.30419E-13
1.71823E-07 5.77902E-13
1.90386E-07 5.31264E-13
2.09900E-07 4.89707E-13
2.30367E-07 4.52532E-13
2.51785E-07 4.19082E-13
2.74156E-07 3.88939E-13
2.97478E-07 3.61676E-13
3.21752E-07 3.36932E-13
3.46978E-07 3.14399E-13
3.73156E-07 2.93769E-13
4.00286E-07 2.74850E-13
4.28368E-07 2.57478E-13
4.57402E-07 2.41487E-13
4.87388E-07 2.26737E-13
5.18325E-07 2.13094E-13
5.50215E-07 2.00204E-13
5.83057E-07 1.87438E-13
6.16850E-07 1.75930E-13
6.51596E-07 1.65532E-13
6.87293E-07 1.56112E-13
7.23942E-07 1.47558E-13
7.61543E-07 1.39772E-13
1.18991E-06 8.29136E-14
1.71347E-06 5.17833E-14
2.33223E-06 3.38543E-14
3.04617E-06 2.30235E-14
3.85531E-06 1.61435E-14
4.75964E-06 1.16010E-14
5.75916E-06 8.51194E-15
6.85388E-06 6.35492E-15
8.04378E-06 4.83235E-15
9.32888E-06 3.73784E-15
1.07092E-05 2.93744E-15
1.21846E-05 2.34241E-15
1.37553E-05 1.89346E-15
1.54212E-05 1.54719E-15
1.71822E-05 1.27847E-15
1.90385E-05 1.06654E-15
2.09899E-05 8.98711E-16
2.30365E-05 7.62982E-16
2.51783E-05 6.51793E-16
2.74153E-05 5.60045E-16
2.97475E-05 4.83824E-16
3.21749E-05 4.20144E-16
3.46974E-05 3.66655E-16
3.73152E-05 3.21436E-16
4.00281E-05 2.82997E-16
4.28362E-05 2.50137E-16
4.57395E-05 2.21884E-16
4.87380E-05 1.97473E-16
5.18317E-05 1.76291E-16
5.50205E-05 1.57814E-16
5.83045E-05 1.41619E-16
6.16838E-05 1.27527E-16
6.51582E-05 1.15217E-16
6.87277E-05 1.04260E-16
7.23925E-05 9.45876E-17
7.61524E-05 8.60513E-17
9.21439E-05 6.01212E-17
1.09658E-04 4.32355E-17
1.28695E-04 3.18870E-17
1.49255E-04 2.40292E-17
1.71338E-04 1.84513E-17
1.94942E-04 1.44023E-17
2.20070E-04 1.14045E-17
2.46720E-04 9.14734E-18
2.74892E-04 7.42204E-18
3.04586E-04 6.08499E-18
3.35803E-04 5.03572E-18
3.68542E-04 4.20291E-18
4.02802E-04 3.53483E-18
4.38585E-04 2.99416E-18
4.75889E-04 2.55280E-18
5.14715E-04 2.18966E-18
5.55063E-04 1.88869E-18
5.96931E-04 1.63748E-18
6.40321E-04 1.42654E-18
6.85233E-04 1.24840E-18
7.31665E-04 1.09713E-18
7.79618E-04 9.68023E-19
8.29092E-04 8.57296E-19
8.80086E-04 7.61889E-19
9.32601E-04 6.79354E-19
9.86636E-04 6.07666E-19
1.04219E-03 5.45161E-19
1.09927E-03 4.90467E-19
1.15786E-03 4.42438E-19
1.21797E-03 4.00129E-19
1.27961E-03 3.62745E-19
1.34276E-03 3.29615E-19
1.40743E-03 3.00173E-19
1.47362E-03 2.73936E-19
1.54133E-03 2.50495E-19
1.61056E-03 2.29502E-19
1.68131E-03 2.10657E-19
1.75357E-03 1.93702E-19
1.82735E-03 1.78415E-19
1.90265E-03 1.64602E-19
1.97947E-03 1.52096E-19
2.05780E-03 1.40752E-19
2.13765E-03 1.30444E-19
2.21902E-03 1.21059E-19
2.30190E-03 1.12501E-19
2.38630E-03 1.04684E-19
2.47222E-03 9.75318E-20
2.55965E-03 9.09784E-20
2.64859E-03 8.49645E-20
2.73905E-03 7.94379E-20
2.83103E-03 7.43516E-20
2.92452E-03 6.96647E-20
3.01952E-03 6.53401E-20
3.11604E-03 6.13447E-20
3.21407E-03 5.76491E-20
3.31362E-03 5.42264E-20
3.41468E-03 5.10531E-20
3.51725E-03 4.81076E-20
3.62133E-03 4.53707E-20
3.72692E-03 4.28249E-20
3.83403E-03 4.04545E-20
3.94265E-03 3.82451E-20
4.05278E-03 3.61838E-20
4.16442E-03 3.42590E-20
4.27757E-03 3.24599E-20
4.39223E-03 3.07768E-20
4.50840E-03 2.92009E-20
4.62608E-03 2.77241E-20
4.74527E-03 2.63391E-20
4.86597E-03 2.50390E-20
4.98817E-03 2.38178E-20
5.11188E-03 2.26698E-20
5.23711E-03 2.15897E-20
5.36383E-03 2.05729E-20
5.49207E-03 1.96149E-20
5.62181E-03 1.87117E-20
5.75306E-03 1.78597E-20
5.88581E-03 1.70553E-20
6.02007E-03 1.62955E-20
6.15583E-03 1.55773E-20
6.29310E-03 1.48980E-20
6.43187E-03 1.42551E-20
6.57214E-03 1.36463E-20
6.71392E-03 1.30695E-20
6.85720E-03 1.25227E-20
7.00198E-03 1.20039E-20
7.14827E-03 1.15116E-20
7.29605E-03 1.10441E-20
7.44534E-03 1.06000E-20
7.59612E-03 1.01778E-20
7.97965E-03 9.21026E-21
8.37255E-03 8.35431E-21
8.77480E-03 7.59492E-21
9.18641E-03 6.91933E-21
9.60736E-03 6.31673E-21
1.00376E-02 5.77790E-21
1.04773E-02 5.29494E-21
1.09262E-02 4.86105E-21
1.13844E-02 4.47040E-21
1.18520E-02 4.11793E-21
1.23288E-02 3.79927E-21
1.28150E-02 3.51062E-21
1.33104E-02 3.24867E-21
1.38150E-02 3.01051E-21
1.43290E-02 2.79361E-21
1.48521E-02 2.59574E-21
1.53845E-02 2.41494E-21
1.59262E-02 2.24948E-21
1.64770E-02 2.09784E-21
1.70371E-02 1.95866E-21
1.76063E-02 1.83072E-21
1.81848E-02 1.71298E-21
1.87724E-02 1.60446E-21
1.93692E-02 1.50433E-21
1.99751E-02 1.41182E-21
2.05901E-02 1.32625E-21
2.12143E-02 1.24700E-21
2.18476E-02 1.17353E-21
2.24900E-02 1.10533E-21
2.31415E-02 1.04198E-21
2.38021E-02 9.83050E-22
2.44717E-02 9.28189E-22
2.51504E-02 8.77063E-22
2.58382E-02 8.29374E-22
2.65349E-02 7.84849E-22
2.72407E-02 7.43241E-22
2.79555E-02 7.04325E-22
2.86793E-02 6.67895E-22
2.94120E-02 6.33766E-22
3.01537E-02 6.01765E-22
3.09043E-02 5.71737E-22
3.16639E-02 5.43537E-22
3.24324E-02 5.17036E-22
3.32098E-02 4.92111E-22
3.39961E-02 4.68653E-22
3.47912E-02 4.46560E-22
3.55952E-02 4.25738E-22
3.64081E-02 4.06102E-22
3.72297E-02 3.87570E-22
3.80602E-02 3.70072E-22
3.88995E-02 3.53538E-22
3.97476E-02 3.37905E-22
4.06044E-02 3.23116E-22
4.14700E-02 3.09118E-22
4.23443E-02 2.95859E-22
4.32273E-02 2.83295E-22
4.41190E-02 2.71382E-22
4.50194E-02 2.60080E-22
4.59284E-02 2.49353E-22
4.68461E-02 2.39166E-22
4.87074E-02 2.20285E-22
5.06030E-02 2.03208E-22
5.25328E-02 1.87732E-22
5.44967E-02 1.73681E-22
5.64946E-02 1.60903E-22
5.85262E-02 1.49262E-22
6.05914E-02 1.38641E-22
6.26901E-02 1.28934E-22
6.48222E-02 1.20049E-22
6.69873E-02 1.11905E-22
6.91854E-02 1.04429E-22
7.14163E-02 9.75579E-23
7.36799E-02 9.12337E-23
7.59760E-02 8.54055E-23
7.83043E-02 8.00277E-23
8.06647E-02 7.50596E-23
8.30571E-02 7.04645E-23
8.54812E-02 6.62098E-23
8.79369E-02 6.22657E-23
9.04240E-02 5.86058E-23
9.29422E-02 5.52061E-23
9.54915E-02 5.20448E-23
9.80716E-02 4.91023E-23
1.00682E-01 4.63610E-23
1.03323E-01 4.38046E-23
1.05995E-01 4.14186E-23
1.08696E-01 3.91896E-23
1.11427E-01 3.71056E-23
1.14188E-01 3.51553E-23
1.16978E-01 3.33289E-23
1.19797E-01 3.16171E-23
1.22645E-01 3.00114E-23
1.25522E-01 2.85041E-23
1.28428E-01 2.70882E-23
1.31361E-01 2.57571E-23
1.34323E-01 2.45050E-23
1.37313E-01 2.33262E-23
1.40330E-01 2.22158E-23
1.43375E-01 2.11691E-23
1.46447E-01 2.01818E-23
1.49545E-01 1.92500E-23
1.52671E-01 1.83700E-23
1.55823E-01 1.75385E-23
1.59001E-01 1.67522E-23
1.62205E-01 1.60084E-23
1.65435E-01 1.53043E-23
1.68690E-01 1.46374E-23
1.71970E-01 1.40054E-23
1.75276E-01 1.34063E-23
1.78606E-01 1.28379E-23
1.81961E-01 1.22985E-23
1.85340E-01 1.17863E-23
1.88743E-01 1.12996E-23
1.92169E-01 1.08371E-23
1.95619E-01 1.03973E-23
1.99092E-01 9.97886E-24
2.02589E-01 9.58060E-24
2.06107E-01 9.20138E-24
2.09649E-01 8.84012E-24
2.13212E-01 8.49583E-24
2.16797E-01 8.16757E-24
2.20404E-01 7.85448E-24
2.24032E-01 7.55573E-24
2.27680E-01 7.27055E-24
2.31350E-01 6.99821E-24
2.35040E-01 6.73804E-24
2.38751E-01 6.48940E-24
2.42481E-01 6.25170E-24
2.46231E-01 6.02438E-24
2.50000E-01 5.80688E-24
2.53788E-01 5.59873E-24
2.57595E-01 5.39945E-24
2.61421E-01 5.20861E-24
2.65264E-01 5.02577E-24
2.69126E-01 4.85055E-24
2.73005E-01 4.68257E-24
2.76901E-01 4.52149E-24
2.80814E-01 4.36698E-24
2.84744E-01 4.21871E-24
2.88691E-01 4.07640E-24
2.92653E-01 3.93977E-24
2.96632E-01 3.80854E-24
3.00625E-01 3.68248E-24
3.04634E-01 3.56134E-24
3.08658E-01 3.44489E-24
3.12697E-01 3.33293E-24
3.16749E-01 3.22525E-24
3.20816E-01 3.12166E-24
3.24896E-01 3.02199E-24
3.28990E-01 2.92605E-24
3.33097E-01 2.83368E-24
3.37216E-01 2.74473E-24
3.41348E-01 2.65905E-24
3.45492E-01 2.57649E-24
3.49647E-01 2.49694E-24
3.53814E-01 2.42025E-24
3.57992E-01 2.34631E-24
3.62181E-01 2.27501E-24
3.66381E-01 2.20623E-24
3.70590E-01 2.13986E-24
3.74810E-01 2.07582E-24
3.79039E-01 2.01400E-24
3.83277E-01 1.95432E-24
3.87524E-01 1.89669E-24
3.91780E-01 1.84102E-24
3.96044E-01 1.78725E-24
4.00316E-01 1.73528E-24
4.04596E-01 1.68506E-24
4.08882E-01 1.63652E-24
4.13176E-01 1.58958E-24
4.17476E-01 1.54419E-24
4.21783E-01 1.50029E-24
4.26095E-01 1.45782E-24
4.30413E-01 1.41673E-24
4.34737E-01 1.37696E-24
4.39065E-01 1.33846E-24
4.43398E-01 1.30120E-24
4.47736E-01 1.26511E-24
4.52077E-01 1.23017E-24
4.56422E-01 1.19632E-24
4.60770E-01 1.16353E-24
4.65122E-01 1.13175E-24
4.69476E-01 1.10096E-24
4.73832E-01 1.07111E-24
4.78190E-01 1.04218E-24
4.82550E-01 1.01413E-24
4.86912E-01 9.86924E-25
4.91274E-01 9.60538E-25
4.95637E-01 9.34944E-25
5.00000E-01 9.10112E-25
5.04363E-01 8.86018E-25
5.08726E-01 8.62635E-25
5.13088E-01 8.39938E-25
5.17450E-01 8.17906E-25
5.21810E-01 7.96515E-25
5.26168E-01 7.75743E-25
5.30524E-01 7.55571E-25
5.34878E-01 7.35977E-25
5.39230E-01 7.16942E-25
5.43578E-01 6.98450E-25
5.47923E-01 6.80480E-25
5.52264E-01 6.63017E-25
5.56602E-01 6.46043E-25
5.60935E-01 6.29544E-25
5.65263E-01 6.13504E-25
5.69587E-01 5.97907E-25
5.73905E-01 5.82740E-25
5.78217E-01 5.67989E-25
5.82524E-01 5.53642E-25
5.86824E-01 5.39685E-25
5.91118E-01 5.26106E-25
5.95404E-01 5.12893E-25
5.99684E-01 5.00036E-25
6.03956E-01 4.87522E-25
6.08220E-01 4.75342E-25
6.12476E-01 4.63485E-25
6.16723E-01 4.51939E-25
6.20961E-01 4.40697E-25
6.25190E-01 4.29749E-25
6.29410E-01 4.19088E-25
6.33619E-01 4.08704E-25
6.37819E-01 3.98589E-25
6.42008E-01 3.88736E-25
6.46186E-01 3.79136E-25
6.50353E-01 3.69782E-25
6.54508E-01 3.60667E-25
6.58652E-01 3.51784E-25
6.62784E-01 3.43126E-25
6.66903E-01 3.34687E-25
6.71010E-01 3.26460E-25
6.75104E-01 3.18439E-25
6.79184E-01 3.10619E-25
6.83251E-01 3.02994E-25
6.87303E-01 2.95558E-25
6.91342E-01 2.88307E-25
6.95366E-01 2.81234E-25
6.99375E-01 2.74335E-25
7.03368E-01 2.67605E-25
7.07347E-01 2.61039E-25
7.11309E-01 2.54633E-25
7.15256E-01 2.48383E-25
7.19186E-01 2.42284E-25
7.23099E-01 2.36332E-25
7.26995E-01 2.30524E-25
7.30874E-01 2.24855E-25
7.34736E-01 2.19321E-25
7.38579E-01 2.13920E-25
7.42405E-01 2.08646E-25
7.46212E-01 2.03498E-25
7.50000E-01 1.98472E-25
7.53769E-01 1.93565E-25
7.57519E-01 1.88773E-25
7.61249E-01 1.84093E-25
7.64960E-01 1.79523E-25
7.68650E-01 1.75060E-25
7.72320E-01 1.70701E-25
7.75968E-01 1.66444E-25
7.79596E-01 1.62285E-25
7.83203E-01 1.58223E-25
7.86788E-01 1.54254E-25
7.90351E-01 1.50377E-25
7.93893E-01 1.46590E-25
7.97411E-01 1.42889E-25
8.00908E-01 1.39273E-25
8.04381E-01 1.35741E-25
8.07831E-01 1.32289E-25
8.11257E-01 1.28915E-25
8.14660E-01 1.25619E-25
8.18039E-01 1.22398E-25
8.21394E-01 1.19250E-25
8.24724E-01 1.16173E-25
8.28030E-01 1.13166E-25
8.31310E-01 1.10228E-25
8.34565E-01 1.07356E-25
8.37795E-01 1.04548E-25
8.40999E-01 1.01805E-25
8.44177E-01 9.91230E-26
8.47329E-01 9.65018E-26
8.50455E-01 9.39398E-26
8.53553E-01 9.14356E-26
8.56625E-01 8.89879E-26
8.59670E-01 8.65954E-26
8.62687E-01 8.42568E-26
8.65677E-01 8.19710E-26
8.68639E-01 7.97368E-26
8.71572E-01 7.75530E-26
8.74478E-01 7.54186E-26
8.77355E-01 7.33324E-26
8.80203E-01 7.12934E-26
8.83022E-01 6.93006E-26
8.85812E-01 6.73530E-26
8.88573E-01 6.54497E-26
8.91304E-01 6.35896E-26
8.94005E-01 6.17718E-26
8.96677E-01 5.99956E-26
8.99318E-01 5.82600E-26
9.01928E-01 5.65642E-26
9.04508E-01 5.49074E-26
9.07058E-01 5.32887E-26
9.09576E-01 5.17075E-26
9.12063E-01 5.01629E-26
9.14519E-01 4.86542E-26
9.16943E-01 4.71808E-26
9.19335E-01 4.57418E-26
9.21696E-01 4.43368E-26
9.24024E-01 4.29649E-26
9.26320E-01 4.16256E-26
9.28584E-01 4.03183E-26
9.30815E-01 3.90424E-26
9.33013E-01 3.77972E-26
9.35178E-01 3.65822E-26
9.37310E-01 3.53969E-26
9.39409E-01 3.42407E-26
9.41474E-01 3.31131E-26
9.43505E-01 3.20136E-26
9.45503E-01 3.09417E-26
9.47467E-01 2.98970E-26
9.49397E-01 2.88789E-26
9.51293E-01 2.78870E-26
9.53154E-01 2.69210E-26
9.54981E-01 2.59803E-26
9.56773E-01 2.50645E-26
9.58530E-01 2.41733E-26
9.60252E-01 2.33063E-26
9.61940E-01 2.24631E-26
9.63592E-01 2.16433E-26
9.65209E-01 2.08465E-26
9.66790E-01 2.00726E-26
9.68336E-01 1.93210E-26
9.69846E-01 1.85915E-26
9.71321E-01 1.78838E-26
9.72759E-01 1.71975E-26
9.74162E-01 1.65325E-26
9.75528E-01 1.58883E-26
9.76858E-01 1.52648E-26
9.78152E-01 1.46617E-26
9.79410E-01 1.40787E-26
9.80631E-01 1.35155E-26
9.81815E-01 1.29720E-26
9.82963E-01 1.24480E-26
9.84074E-01 1.19431E-26
9.85148E-01 1.14572E-26
9.86185E-01 1.09901E-26
9.87185E-01 1.05416E-26
9.88148E-01 1.01116E-26
9.89074E-01 9.69974E-27
9.89962E-01 9.30598E-27
9.90814E-01 8.93013E-27
9.91627E-01 8.57204E-27
9.92404E-01 8.23156E-27
9.93143E-01 7.90855E-27
9.93844E-01 7.60288E-27
9.94508E-01 7.31442E-27
9.95134E-01 7.04307E-27
9.95722E-01 6.78870E-27
9.96273E-01 6.55122E-27
9.96786E-01 6.33054E-27
9.97261E-01 6.12655E-27
9.97698E-01 5.93918E-27
9.98097E-01 5.76836E-27
9.98459E-01 5.61401E-27
9.98782E-01 5.47608E-27
9.99067E-01 5.35450E-27
9.99315E-01 5.24924E-27
9.99524E-01 5.16023E-27
9.99695E-01 5.08746E-27
9.99829E-01 5.03089E-27
9.99924E-01 4.99050E-27
9.99981E-01 4.96628E-27
1.00000E+00 4.95820E-27
