 #
 # Subroutine ELSEPA. Elastic scattering of electrons and positrons
 #                    by neutral atoms and positive ions
 #
 # Projectile: positron
 # Kinetic energy = 1.50000E+07 eV = 5.51240E+05 a.u.
 #
 # WARNING: High-energy factorization with free-atom DF screening.
 #          Absorption, polarization and exchange corrections are
 #          switched off.
 #          Phase shifts are calculated for the bare nucleus.
 #          Scattering amplitudes are not evaluated.
 #
 # Element: Hf,  Z =  72,  atomic weight = 1.78490E+02 g/mol
 #
 # Nuclear model: Fermi distribution
 #                Average radius = 6.02451E-13 cm
 #                Skin thickness = 5.46000E-14 cm
 #
 # Number of electrons = 72
 #
 # Total elastic cross section = 7.32083E-18 cm**2 = 2.61432E-01 a0**2
 # 1st transport cross section = 3.18378E-23 cm**2 = 1.13695E-06 a0**2
 # 2nd transport cross section = 9.23938E-23 cm**2 = 3.29944E-06 a0**2
 #
 #
 # Differential cross section:                       MU=(1-COS(THETA))/2
 #
 #  THETA        MU          DCS          DCS        Sherman      error
 #  (deg)                 (cm**2/sr)   (a0**2/sr)    function
 #----------------------------------------------------------------------
0.00000E+00 1.52013E-11
7.61557E-13 1.52001E-11
1.18994E-12 1.51994E-11
1.71346E-12 1.51986E-11
2.33225E-12 1.51976E-11
3.04617E-12 1.51965E-11
3.85530E-12 1.51953E-11
4.75964E-12 1.51939E-11
5.75917E-12 1.51923E-11
6.85391E-12 1.51906E-11
8.04379E-12 1.51888E-11
9.32893E-12 1.51868E-11
1.07092E-11 1.51847E-11
1.21847E-11 1.51824E-11
1.37554E-11 1.51800E-11
1.54213E-11 1.51774E-11
1.71823E-11 1.51747E-11
1.90386E-11 1.51719E-11
2.09900E-11 1.51689E-11
2.30367E-11 1.51657E-11
2.51785E-11 1.51624E-11
2.74156E-11 1.51590E-11
2.97478E-11 1.51554E-11
3.21752E-11 1.51517E-11
3.46979E-11 1.51478E-11
3.73157E-11 1.51438E-11
4.00286E-11 1.51396E-11
4.28368E-11 1.51353E-11
4.57402E-11 1.51309E-11
4.87388E-11 1.51263E-11
5.18325E-11 1.51216E-11
5.50215E-11 1.51167E-11
5.83057E-11 1.51117E-11
6.16850E-11 1.51065E-11
6.51595E-11 1.51012E-11
6.87293E-11 1.50958E-11
7.23943E-11 1.50902E-11
7.61544E-11 1.50845E-11
1.18991E-10 1.50196E-11
1.71347E-10 1.49409E-11
2.33223E-10 1.48488E-11
3.04617E-10 1.47437E-11
3.85531E-10 1.46261E-11
4.75965E-10 1.44965E-11
5.75917E-10 1.43555E-11
6.85389E-10 1.42037E-11
8.04380E-10 1.40417E-11
9.32891E-10 1.38703E-11
1.07092E-09 1.36895E-11
1.21847E-09 1.35010E-11
1.37554E-09 1.33055E-11
1.54213E-09 1.31033E-11
1.71823E-09 1.28944E-11
1.90386E-09 1.26809E-11
2.09900E-09 1.24634E-11
2.30367E-09 1.22411E-11
2.51785E-09 1.20158E-11
2.74156E-09 1.17885E-11
2.97478E-09 1.15596E-11
3.21752E-09 1.13283E-11
3.46978E-09 1.10969E-11
3.73156E-09 1.08660E-11
4.00286E-09 1.06346E-11
4.28368E-09 1.04039E-11
4.57402E-09 1.01752E-11
4.87388E-09 9.94836E-12
5.18326E-09 9.72250E-12
5.50215E-09 9.49959E-12
5.83057E-09 9.27993E-12
6.16850E-09 9.06271E-12
6.51596E-09 8.84854E-12
6.87293E-09 8.63831E-12
7.23942E-09 8.43206E-12
7.61544E-09 8.22867E-12
1.18991E-08 6.42952E-12
1.71347E-08 5.04778E-12
2.33223E-08 4.01741E-12
3.04617E-08 3.25063E-12
3.85531E-08 2.67222E-12
4.75965E-08 2.22698E-12
5.75917E-08 1.87685E-12
6.85389E-08 1.59587E-12
8.04380E-08 1.36674E-12
9.32891E-08 1.17758E-12
1.07092E-07 1.00976E-12
1.21847E-07 8.75563E-13
1.37554E-07 7.68866E-13
1.54213E-07 6.77666E-13
1.71823E-07 5.93003E-13
1.90386E-07 5.24099E-13
2.09900E-07 4.67433E-13
2.30367E-07 4.14672E-13
2.51785E-07 3.69192E-13
2.74156E-07 3.31104E-13
2.97478E-07 2.98093E-13
3.21752E-07 2.67368E-13
3.46978E-07 2.41233E-13
3.73156E-07 2.18857E-13
4.00286E-07 1.98236E-13
4.28368E-07 1.79868E-13
4.57402E-07 1.63951E-13
4.87388E-07 1.49915E-13
5.18325E-07 1.36701E-13
5.50215E-07 1.25131E-13
5.83057E-07 1.14956E-13
6.16850E-07 1.05556E-13
6.51596E-07 9.69886E-14
6.87293E-07 8.93926E-14
7.23942E-07 8.26059E-14
7.61543E-07 7.61681E-14
1.18991E-06 3.67180E-14
1.71347E-06 1.95945E-14
2.33223E-06 1.14145E-14
3.04617E-06 7.12797E-15
3.85531E-06 4.70756E-15
4.75964E-06 3.24076E-15
5.75916E-06 2.30350E-15
6.85388E-06 1.68187E-15
8.04378E-06 1.25602E-15
9.32888E-06 9.56135E-16
1.07092E-05 7.39753E-16
1.21846E-05 5.81752E-16
1.37553E-05 4.63860E-16
1.54212E-05 3.73972E-16
1.71822E-05 3.04960E-16
1.90385E-05 2.51090E-16
2.09899E-05 2.08773E-16
2.30365E-05 1.74973E-16
2.51783E-05 1.47734E-16
2.74153E-05 1.25571E-16
2.97475E-05 1.07370E-16
3.21749E-05 9.23656E-17
3.46974E-05 7.99098E-17
3.73152E-05 6.94834E-17
4.00281E-05 6.07136E-17
4.28362E-05 5.32932E-17
4.57395E-05 4.69716E-17
4.87380E-05 4.15548E-17
5.18317E-05 3.68967E-17
5.50205E-05 3.28731E-17
5.83045E-05 2.93785E-17
6.16838E-05 2.63375E-17
6.51582E-05 2.36815E-17
6.87277E-05 2.13516E-17
7.23925E-05 1.93012E-17
7.61524E-05 1.74917E-17
9.21439E-05 1.20624E-17
1.09658E-04 8.58139E-18
1.28695E-04 6.26858E-18
1.49255E-04 4.68331E-18
1.71338E-04 3.56829E-18
1.94942E-04 2.76565E-18
2.20070E-04 2.17622E-18
2.46720E-04 1.73559E-18
2.74892E-04 1.40091E-18
3.04586E-04 1.14309E-18
3.35803E-04 9.41877E-19
3.68542E-04 7.83016E-19
4.02802E-04 6.56249E-19
4.38585E-04 5.54102E-19
4.75889E-04 4.71058E-19
5.14715E-04 4.02987E-19
5.55063E-04 3.46765E-19
5.96931E-04 3.00002E-19
6.40321E-04 2.60851E-19
6.85233E-04 2.27874E-19
7.31665E-04 1.99938E-19
7.79618E-04 1.76148E-19
8.29092E-04 1.55786E-19
8.80086E-04 1.38278E-19
9.32601E-04 1.23156E-19
9.86636E-04 1.10042E-19
1.04219E-03 9.86234E-20
1.09927E-03 8.86452E-20
1.15786E-03 7.98939E-20
1.21797E-03 7.21937E-20
1.27961E-03 6.53969E-20
1.34276E-03 5.93792E-20
1.40743E-03 5.40361E-20
1.47362E-03 4.92789E-20
1.54133E-03 4.50324E-20
1.61056E-03 4.12322E-20
1.68131E-03 3.78231E-20
1.75357E-03 3.47582E-20
1.82735E-03 3.19964E-20
1.90265E-03 2.95027E-20
1.97947E-03 2.72464E-20
2.05780E-03 2.52010E-20
2.13765E-03 2.33433E-20
2.21902E-03 2.16530E-20
2.30190E-03 2.01124E-20
2.38630E-03 1.87059E-20
2.47222E-03 1.74198E-20
2.55965E-03 1.62419E-20
2.64859E-03 1.51615E-20
2.73905E-03 1.41691E-20
2.83103E-03 1.32563E-20
2.92452E-03 1.24155E-20
3.01952E-03 1.16400E-20
3.11604E-03 1.09239E-20
3.21407E-03 1.02618E-20
3.31362E-03 9.64884E-21
3.41468E-03 9.08080E-21
3.51725E-03 8.55376E-21
3.62133E-03 8.06423E-21
3.72692E-03 7.60907E-21
3.83403E-03 7.18543E-21
3.94265E-03 6.79073E-21
4.05278E-03 6.42263E-21
4.16442E-03 6.07901E-21
4.27757E-03 5.75796E-21
4.39223E-03 5.45772E-21
4.50840E-03 5.17670E-21
4.62608E-03 4.91345E-21
4.74527E-03 4.66663E-21
4.86597E-03 4.43504E-21
4.98817E-03 4.21756E-21
5.11188E-03 4.01318E-21
5.23711E-03 3.82097E-21
5.36383E-03 3.64007E-21
5.49207E-03 3.46969E-21
5.62181E-03 3.30911E-21
5.75306E-03 3.15766E-21
5.88581E-03 3.01472E-21
6.02007E-03 2.87974E-21
6.15583E-03 2.75218E-21
6.29310E-03 2.63157E-21
6.43187E-03 2.51745E-21
6.57214E-03 2.40942E-21
6.71392E-03 2.30709E-21
6.85720E-03 2.21010E-21
7.00198E-03 2.11812E-21
7.14827E-03 2.03085E-21
7.29605E-03 1.94801E-21
7.44534E-03 1.86931E-21
7.59612E-03 1.79453E-21
7.97965E-03 1.62319E-21
8.37255E-03 1.47171E-21
8.77480E-03 1.33738E-21
9.18641E-03 1.21795E-21
9.60736E-03 1.11146E-21
1.00376E-02 1.01629E-21
1.04773E-02 9.31023E-22
1.09262E-02 8.54453E-22
1.13844E-02 7.85542E-22
1.18520E-02 7.23390E-22
1.23288E-02 6.67220E-22
1.28150E-02 6.16359E-22
1.33104E-02 5.70217E-22
1.38150E-02 5.28280E-22
1.43290E-02 4.90099E-22
1.48521E-02 4.55278E-22
1.53845E-02 4.23471E-22
1.59262E-02 3.94371E-22
1.64770E-02 3.67707E-22
1.70371E-02 3.43240E-22
1.76063E-02 3.20757E-22
1.81848E-02 3.00069E-22
1.87724E-02 2.81008E-22
1.93692E-02 2.63423E-22
1.99751E-02 2.47179E-22
2.05901E-02 2.32157E-22
2.12143E-02 2.18248E-22
2.18476E-02 2.05356E-22
2.24900E-02 1.93392E-22
2.31415E-02 1.82278E-22
2.38021E-02 1.71944E-22
2.44717E-02 1.62324E-22
2.51504E-02 1.53360E-22
2.58382E-02 1.45001E-22
2.65349E-02 1.37197E-22
2.72407E-02 1.29906E-22
2.79555E-02 1.23087E-22
2.86793E-02 1.16705E-22
2.94120E-02 1.10727E-22
3.01537E-02 1.05122E-22
3.09043E-02 9.98639E-23
3.16639E-02 9.49264E-23
3.24324E-02 9.02866E-23
3.32098E-02 8.59236E-23
3.39961E-02 8.18178E-23
3.47912E-02 7.79514E-23
3.55952E-02 7.43079E-23
3.64081E-02 7.08721E-23
3.72297E-02 6.76302E-23
3.80602E-02 6.45691E-23
3.88995E-02 6.16771E-23
3.97476E-02 5.89431E-23
4.06044E-02 5.63570E-23
4.14700E-02 5.39092E-23
4.23443E-02 5.15911E-23
4.32273E-02 4.93947E-23
4.41190E-02 4.73122E-23
4.50194E-02 4.53368E-23
4.59284E-02 4.34620E-23
4.68461E-02 4.16818E-23
4.87074E-02 3.83828E-23
5.06030E-02 3.53994E-23
5.25328E-02 3.26962E-23
5.44967E-02 3.02424E-23
5.64946E-02 2.80113E-23
5.85262E-02 2.59790E-23
6.05914E-02 2.41250E-23
6.26901E-02 2.24309E-23
6.48222E-02 2.08805E-23
6.69873E-02 1.94597E-23
6.91854E-02 1.81556E-23
7.14163E-02 1.69572E-23
7.36799E-02 1.58544E-23
7.59760E-02 1.48382E-23
7.83043E-02 1.39007E-23
8.06647E-02 1.30347E-23
8.30571E-02 1.22339E-23
8.54812E-02 1.14925E-23
8.79369E-02 1.08054E-23
9.04240E-02 1.01679E-23
9.29422E-02 9.57574E-24
9.54915E-02 9.02525E-24
9.80716E-02 8.51295E-24
1.00682E-01 8.03575E-24
1.03323E-01 7.59085E-24
1.05995E-01 7.17567E-24
1.08696E-01 6.78780E-24
1.11427E-01 6.42515E-24
1.14188E-01 6.08585E-24
1.16978E-01 5.76814E-24
1.19797E-01 5.47041E-24
1.22645E-01 5.19119E-24
1.25522E-01 4.92913E-24
1.28428E-01 4.68299E-24
1.31361E-01 4.45164E-24
1.34323E-01 4.23404E-24
1.37313E-01 4.02924E-24
1.40330E-01 3.83634E-24
1.43375E-01 3.65455E-24
1.46447E-01 3.48310E-24
1.49545E-01 3.32132E-24
1.52671E-01 3.16856E-24
1.55823E-01 3.02423E-24
1.59001E-01 2.88779E-24
1.62205E-01 2.75874E-24
1.65435E-01 2.63660E-24
1.68690E-01 2.52094E-24
1.71970E-01 2.41136E-24
1.75276E-01 2.30749E-24
1.78606E-01 2.20897E-24
1.81961E-01 2.11549E-24
1.85340E-01 2.02674E-24
1.88743E-01 1.94244E-24
1.92169E-01 1.86233E-24
1.95619E-01 1.78617E-24
1.99092E-01 1.71373E-24
2.02589E-01 1.64479E-24
2.06107E-01 1.57917E-24
2.09649E-01 1.51666E-24
2.13212E-01 1.45710E-24
2.16797E-01 1.40033E-24
2.20404E-01 1.34620E-24
2.24032E-01 1.29455E-24
2.27680E-01 1.24526E-24
2.31350E-01 1.19820E-24
2.35040E-01 1.15325E-24
2.38751E-01 1.11031E-24
2.42481E-01 1.06926E-24
2.46231E-01 1.03002E-24
2.50000E-01 9.92475E-25
2.53788E-01 9.56556E-25
2.57595E-01 9.22175E-25
2.61421E-01 8.89256E-25
2.65264E-01 8.57727E-25
2.69126E-01 8.27518E-25
2.73005E-01 7.98565E-25
2.76901E-01 7.70808E-25
2.80814E-01 7.44188E-25
2.84744E-01 7.18651E-25
2.88691E-01 6.94146E-25
2.92653E-01 6.70624E-25
2.96632E-01 6.48039E-25
3.00625E-01 6.26347E-25
3.04634E-01 6.05508E-25
3.08658E-01 5.85481E-25
3.12697E-01 5.66231E-25
3.16749E-01 5.47722E-25
3.20816E-01 5.29921E-25
3.24896E-01 5.12796E-25
3.28990E-01 4.96318E-25
3.33097E-01 4.80457E-25
3.37216E-01 4.65188E-25
3.41348E-01 4.50483E-25
3.45492E-01 4.36320E-25
3.49647E-01 4.22674E-25
3.53814E-01 4.09524E-25
3.57992E-01 3.96849E-25
3.62181E-01 3.84628E-25
3.66381E-01 3.72844E-25
3.70590E-01 3.61477E-25
3.74810E-01 3.50510E-25
3.79039E-01 3.39928E-25
3.83277E-01 3.29714E-25
3.87524E-01 3.19853E-25
3.91780E-01 3.10332E-25
3.96044E-01 3.01137E-25
4.00316E-01 2.92254E-25
4.04596E-01 2.83672E-25
4.08882E-01 2.75379E-25
4.13176E-01 2.67363E-25
4.17476E-01 2.59613E-25
4.21783E-01 2.52120E-25
4.26095E-01 2.44873E-25
4.30413E-01 2.37864E-25
4.34737E-01 2.31082E-25
4.39065E-01 2.24520E-25
4.43398E-01 2.18169E-25
4.47736E-01 2.12022E-25
4.52077E-01 2.06070E-25
4.56422E-01 2.00307E-25
4.60770E-01 1.94725E-25
4.65122E-01 1.89319E-25
4.69476E-01 1.84081E-25
4.73832E-01 1.79006E-25
4.78190E-01 1.74088E-25
4.82550E-01 1.69321E-25
4.86912E-01 1.64700E-25
4.91274E-01 1.60219E-25
4.95637E-01 1.55874E-25
5.00000E-01 1.51660E-25
5.04363E-01 1.47572E-25
5.08726E-01 1.43607E-25
5.13088E-01 1.39759E-25
5.17450E-01 1.36025E-25
5.21810E-01 1.32401E-25
5.26168E-01 1.28883E-25
5.30524E-01 1.25468E-25
5.34878E-01 1.22151E-25
5.39230E-01 1.18931E-25
5.43578E-01 1.15803E-25
5.47923E-01 1.12765E-25
5.52264E-01 1.09814E-25
5.56602E-01 1.06946E-25
5.60935E-01 1.04159E-25
5.65263E-01 1.01451E-25
5.69587E-01 9.88189E-26
5.73905E-01 9.62600E-26
5.78217E-01 9.37723E-26
5.82524E-01 9.13534E-26
5.86824E-01 8.90011E-26
5.91118E-01 8.67134E-26
5.95404E-01 8.44883E-26
5.99684E-01 8.23237E-26
6.03956E-01 8.02177E-26
6.08220E-01 7.81687E-26
6.12476E-01 7.61748E-26
6.16723E-01 7.42343E-26
6.20961E-01 7.23456E-26
6.25190E-01 7.05070E-26
6.29410E-01 6.87172E-26
6.33619E-01 6.69747E-26
6.37819E-01 6.52779E-26
6.42008E-01 6.36255E-26
6.46186E-01 6.20163E-26
6.50353E-01 6.04489E-26
6.54508E-01 5.89221E-26
6.58652E-01 5.74348E-26
6.62784E-01 5.59857E-26
6.66903E-01 5.45737E-26
6.71010E-01 5.31978E-26
6.75104E-01 5.18569E-26
6.79184E-01 5.05501E-26
6.83251E-01 4.92763E-26
6.87303E-01 4.80346E-26
6.91342E-01 4.68241E-26
6.95366E-01 4.56439E-26
6.99375E-01 4.44932E-26
7.03368E-01 4.33711E-26
7.07347E-01 4.22768E-26
7.11309E-01 4.12096E-26
7.15256E-01 4.01687E-26
7.19186E-01 3.91534E-26
7.23099E-01 3.81630E-26
7.26995E-01 3.71968E-26
7.30874E-01 3.62541E-26
7.34736E-01 3.53344E-26
7.38579E-01 3.44369E-26
7.42405E-01 3.35612E-26
7.46212E-01 3.27065E-26
7.50000E-01 3.18724E-26
7.53769E-01 3.10584E-26
7.57519E-01 3.02637E-26
7.61249E-01 2.94881E-26
7.64960E-01 2.87309E-26
7.68650E-01 2.79917E-26
7.72320E-01 2.72701E-26
7.75968E-01 2.65654E-26
7.79596E-01 2.58775E-26
7.83203E-01 2.52057E-26
7.86788E-01 2.45497E-26
7.90351E-01 2.39091E-26
7.93893E-01 2.32835E-26
7.97411E-01 2.26725E-26
8.00908E-01 2.20758E-26
8.04381E-01 2.14929E-26
8.07831E-01 2.09236E-26
8.11257E-01 2.03675E-26
8.14660E-01 1.98244E-26
8.18039E-01 1.92937E-26
8.21394E-01 1.87754E-26
8.24724E-01 1.82690E-26
8.28030E-01 1.77743E-26
8.31310E-01 1.72910E-26
8.34565E-01 1.68188E-26
8.37795E-01 1.63575E-26
8.40999E-01 1.59067E-26
8.44177E-01 1.54663E-26
8.47329E-01 1.50361E-26
8.50455E-01 1.46157E-26
8.53553E-01 1.42049E-26
8.56625E-01 1.38035E-26
8.59670E-01 1.34114E-26
8.62687E-01 1.30282E-26
8.65677E-01 1.26538E-26
8.68639E-01 1.22880E-26
8.71572E-01 1.19306E-26
8.74478E-01 1.15814E-26
8.77355E-01 1.12402E-26
8.80203E-01 1.09069E-26
8.83022E-01 1.05812E-26
8.85812E-01 1.02630E-26
8.88573E-01 9.95217E-27
8.91304E-01 9.64850E-27
8.94005E-01 9.35185E-27
8.96677E-01 9.06207E-27
8.99318E-01 8.77902E-27
9.01928E-01 8.50255E-27
9.04508E-01 8.23253E-27
9.07058E-01 7.96882E-27
9.09576E-01 7.71130E-27
9.12063E-01 7.45982E-27
9.14519E-01 7.21428E-27
9.16943E-01 6.97455E-27
9.19335E-01 6.74051E-27
9.21696E-01 6.51205E-27
9.24024E-01 6.28906E-27
9.26320E-01 6.07144E-27
9.28584E-01 5.85907E-27
9.30815E-01 5.65187E-27
9.33013E-01 5.44972E-27
9.35178E-01 5.25254E-27
9.37310E-01 5.06022E-27
9.39409E-01 4.87269E-27
9.41474E-01 4.68986E-27
9.43505E-01 4.51163E-27
9.45503E-01 4.33792E-27
9.47467E-01 4.16866E-27
9.49397E-01 4.00377E-27
9.51293E-01 3.84317E-27
9.53154E-01 3.68678E-27
9.54981E-01 3.53454E-27
9.56773E-01 3.38638E-27
9.58530E-01 3.24223E-27
9.60252E-01 3.10203E-27
9.61940E-01 2.96570E-27
9.63592E-01 2.83320E-27
9.65209E-01 2.70445E-27
9.66790E-01 2.57941E-27
9.68336E-01 2.45802E-27
9.69846E-01 2.34022E-27
9.71321E-01 2.22597E-27
9.72759E-01 2.11520E-27
9.74162E-01 2.00788E-27
9.75528E-01 1.90395E-27
9.76858E-01 1.80337E-27
9.78152E-01 1.70610E-27
9.79410E-01 1.61209E-27
9.80631E-01 1.52131E-27
9.81815E-01 1.43370E-27
9.82963E-01 1.34924E-27
9.84074E-01 1.26789E-27
9.85148E-01 1.18962E-27
9.86185E-01 1.11438E-27
9.87185E-01 1.04215E-27
9.88148E-01 9.72899E-28
9.89074E-01 9.06593E-28
9.89962E-01 8.43205E-28
9.90814E-01 7.82709E-28
9.91627E-01 7.25078E-28
9.92404E-01 6.70287E-28
9.93143E-01 6.18315E-28
9.93844E-01 5.69138E-28
9.94508E-01 5.22735E-28
9.95134E-01 4.79088E-28
9.95722E-01 4.38178E-28
9.96273E-01 3.99987E-28
9.96786E-01 3.64499E-28
9.97261E-01 3.31699E-28
9.97698E-01 3.01574E-28
9.98097E-01 2.74110E-28
9.98459E-01 2.49297E-28
9.98782E-01 2.27123E-28
9.99067E-01 2.07580E-28
9.99315E-01 1.90660E-28
9.99524E-01 1.76354E-28
9.99695E-01 1.64658E-28
9.99829E-01 1.55566E-28
9.99924E-01 1.49074E-28
9.99981E-01 1.45180E-28
1.00000E+00 1.43882E-28
