 #
 # Subroutine ELSEPA. Elastic scattering of electrons and positrons
 #                    by neutral atoms and positive ions
 #
 # Projectile: positron
 # Kinetic energy = 3.50000E+08 eV = 1.28623E+07 a.u.
 #
 # WARNING: High-energy factorization with free-atom DF screening.
 #          Absorption, polarization and exchange corrections are
 #          switched off.
 #          Phase shifts are calculated for the bare nucleus.
 #          Scattering amplitudes are not evaluated.
 #
 # Element: Hf,  Z =  72,  atomic weight = 1.78490E+02 g/mol
 #
 # Nuclear model: Fermi distribution
 #                Average radius = 6.02451E-13 cm
 #                Skin thickness = 5.46000E-14 cm
 #
 # Number of electrons = 72
 #
 # Total elastic cross section = 7.31480E-18 cm**2 = 2.61216E-01 a0**2
 # 1st transport cross section = 7.94768E-26 cm**2 = 2.83817E-09 a0**2
 # 2nd transport cross section = 2.38237E-25 cm**2 = 8.50758E-09 a0**2
 #
 #
 # Differential cross section:                       MU=(1-COS(THETA))/2
 #
 #  THETA        MU          DCS          DCS        Sherman      error
 #  (deg)                 (cm**2/sr)   (a0**2/sr)    function
 #----------------------------------------------------------------------
0.00000E+00 7.76255E-09
7.61557E-13 7.46614E-09
1.18994E-12 7.30771E-09
1.71346E-12 7.12162E-09
2.33225E-12 6.91139E-09
3.04617E-12 6.68216E-09
3.85530E-12 6.43721E-09
4.75964E-12 6.18114E-09
5.75917E-12 5.91841E-09
6.85391E-12 5.65134E-09
8.04379E-12 5.38447E-09
9.32893E-12 5.12047E-09
1.07092E-11 4.86090E-09
1.21847E-11 4.60881E-09
1.37554E-11 4.36521E-09
1.54213E-11 4.13112E-09
1.71823E-11 3.90787E-09
1.90386E-11 3.69541E-09
2.09900E-11 3.49424E-09
2.30367E-11 3.30456E-09
2.51785E-11 3.12572E-09
2.74156E-11 2.95785E-09
2.97478E-11 2.80057E-09
3.21752E-11 2.65303E-09
3.46979E-11 2.51514E-09
3.73157E-11 2.38624E-09
4.00286E-11 2.26561E-09
4.28368E-11 2.15301E-09
4.57402E-11 2.04767E-09
4.87388E-11 1.94911E-09
5.18325E-11 1.85706E-09
5.50215E-11 1.77067E-09
5.83057E-11 1.68978E-09
6.16850E-11 1.61410E-09
6.51595E-11 1.54272E-09
6.87293E-11 1.47582E-09
7.23943E-11 1.41295E-09
7.61544E-11 1.35353E-09
1.18991E-10 9.11581E-10
1.71347E-10 6.41227E-10
2.33223E-10 4.57977E-10
3.04617E-10 3.41980E-10
3.85531E-10 2.56995E-10
4.75965E-10 1.97171E-10
5.75917E-10 1.54513E-10
6.85389E-10 1.21635E-10
8.04380E-10 9.74312E-11
9.32891E-10 7.90290E-11
1.07092E-09 6.44103E-11
1.21847E-09 5.31275E-11
1.37554E-09 4.41217E-11
1.54213E-09 3.68388E-11
1.71823E-09 3.10191E-11
1.90386E-09 2.62307E-11
2.09900E-09 2.23113E-11
2.30367E-09 1.91027E-11
2.51785E-09 1.64143E-11
2.74156E-09 1.41871E-11
2.97478E-09 1.23275E-11
3.21752E-09 1.07522E-11
3.46978E-09 9.42727E-12
3.73156E-09 8.30176E-12
4.00286E-09 7.33923E-12
4.28368E-09 6.51718E-12
4.57402E-09 5.80968E-12
4.87388E-09 5.19484E-12
5.18326E-09 4.66099E-12
5.50215E-09 4.19476E-12
5.83057E-09 3.78737E-12
6.16850E-09 3.43023E-12
6.51596E-09 3.11443E-12
6.87293E-09 2.83551E-12
7.23942E-09 2.58793E-12
7.61544E-09 2.36669E-12
1.18991E-08 1.06799E-12
1.71347E-08 5.49729E-13
2.33223E-08 3.10301E-13
3.04617E-08 1.88100E-13
3.85531E-08 1.20550E-13
4.75965E-08 8.08060E-14
5.75917E-08 5.61588E-14
6.85389E-08 4.02491E-14
8.04380E-08 2.95964E-14
9.32891E-08 2.22489E-14
1.07092E-07 1.70489E-14
1.21847E-07 1.32816E-14
1.37554E-07 1.05004E-14
1.54213E-07 8.40965E-15
1.71823E-07 6.81380E-15
1.90386E-07 5.57885E-15
2.09900E-07 4.61075E-15
2.30367E-07 3.84366E-15
2.51785E-07 3.22934E-15
2.74156E-07 2.73283E-15
2.97478E-07 2.32807E-15
3.21752E-07 1.99541E-15
3.46978E-07 1.72006E-15
3.73156E-07 1.49056E-15
4.00286E-07 1.29806E-15
4.28368E-07 1.13564E-15
4.57402E-07 9.97828E-16
4.87388E-07 8.80303E-16
5.18325E-07 7.79573E-16
5.50215E-07 6.92848E-16
5.83057E-07 6.17856E-16
6.16850E-07 5.52738E-16
6.51596E-07 4.95982E-16
6.87293E-07 4.46326E-16
7.23942E-07 4.02734E-16
7.61543E-07 3.64338E-16
1.18991E-06 1.50513E-16
1.71347E-06 7.30066E-17
2.33223E-06 3.95666E-17
3.04617E-06 2.32601E-17
3.85531E-06 1.45515E-17
4.75964E-06 9.56181E-18
5.75916E-06 6.53825E-18
6.85388E-06 4.62035E-18
8.04378E-06 3.35662E-18
9.32888E-06 2.49672E-18
1.07092E-05 1.89527E-18
1.21846E-05 1.46443E-18
1.37553E-05 1.14930E-18
1.54212E-05 9.14525E-19
1.71822E-05 7.36726E-19
1.90385E-05 5.99781E-19
2.09899E-05 4.93755E-19
2.30365E-05 4.10082E-19
2.51783E-05 3.43304E-19
2.74153E-05 2.89504E-19
2.97475E-05 2.45800E-19
3.21749E-05 2.10035E-19
3.46974E-05 1.80557E-19
3.73152E-05 1.56093E-19
4.00281E-05 1.35649E-19
4.28362E-05 1.18451E-19
4.57395E-05 1.03892E-19
4.87380E-05 9.14969E-20
5.18317E-05 8.08893E-20
5.50205E-05 7.17701E-20
5.83045E-05 6.38981E-20
6.16838E-05 5.70762E-20
6.51582E-05 5.11421E-20
6.87277E-05 4.59610E-20
7.23925E-05 4.14206E-20
7.61524E-05 3.76406E-20
9.21439E-05 2.57161E-20
1.09658E-04 1.81601E-20
1.28695E-04 1.31871E-20
1.49255E-04 9.80447E-21
1.71338E-04 7.43999E-21
1.94942E-04 5.74662E-21
2.20070E-04 4.50825E-21
2.46720E-04 3.58556E-21
2.74892E-04 2.88682E-21
3.04586E-04 2.34991E-21
3.35803E-04 1.93183E-21
3.68542E-04 1.60240E-21
4.02802E-04 1.34000E-21
4.38585E-04 1.12891E-21
4.75889E-04 9.57557E-22
5.14715E-04 8.17307E-22
5.55063E-04 7.01629E-22
5.96931E-04 6.05542E-22
6.40321E-04 5.25202E-22
6.85233E-04 4.57618E-22
7.31665E-04 4.00440E-22
7.79618E-04 3.51809E-22
8.29092E-04 3.10240E-22
8.80086E-04 2.74543E-22
9.32601E-04 2.43753E-22
9.86636E-04 2.17087E-22
1.04219E-03 1.93901E-22
1.09927E-03 1.73669E-22
1.15786E-03 1.55951E-22
1.21797E-03 1.40385E-22
1.27961E-03 1.26667E-22
1.34276E-03 1.14541E-22
1.40743E-03 1.03793E-22
1.47362E-03 9.42402E-23
1.54133E-03 8.57286E-23
1.61056E-03 7.81261E-23
1.68131E-03 7.13198E-23
1.75357E-03 6.52130E-23
1.82735E-03 5.97221E-23
1.90265E-03 5.47752E-23
1.97947E-03 5.03095E-23
2.05780E-03 4.62709E-23
2.13765E-03 4.26119E-23
2.21902E-03 3.92914E-23
2.30190E-03 3.62729E-23
2.38630E-03 3.35248E-23
2.47222E-03 3.10190E-23
2.55965E-03 2.87309E-23
2.64859E-03 2.66385E-23
2.73905E-03 2.47227E-23
2.83103E-03 2.29661E-23
2.92452E-03 2.13537E-23
3.01952E-03 1.98716E-23
3.11604E-03 1.85079E-23
3.21407E-03 1.72516E-23
3.31362E-03 1.60931E-23
3.41468E-03 1.50236E-23
3.51725E-03 1.40353E-23
3.62133E-03 1.31211E-23
3.72692E-03 1.22746E-23
3.83403E-03 1.14902E-23
3.94265E-03 1.07626E-23
4.05278E-03 1.00872E-23
4.16442E-03 9.45963E-24
4.27757E-03 8.87610E-24
4.39223E-03 8.33308E-24
4.50840E-03 7.82738E-24
4.62608E-03 7.35610E-24
4.74527E-03 6.91657E-24
4.86597E-03 6.50638E-24
4.98817E-03 6.12332E-24
5.11188E-03 5.76536E-24
5.23711E-03 5.43064E-24
5.36383E-03 5.11747E-24
5.49207E-03 4.82429E-24
5.62181E-03 4.54967E-24
5.75306E-03 4.29228E-24
5.88581E-03 4.05092E-24
6.02007E-03 3.82447E-24
6.15583E-03 3.61191E-24
6.29310E-03 3.41227E-24
6.43187E-03 3.22469E-24
6.57214E-03 3.04836E-24
6.71392E-03 2.88252E-24
6.85720E-03 2.72649E-24
7.00198E-03 2.57962E-24
7.14827E-03 2.44131E-24
7.29605E-03 2.31102E-24
7.44534E-03 2.18823E-24
7.59612E-03 2.07247E-24
7.97965E-03 1.81098E-24
8.37255E-03 1.58461E-24
8.77480E-03 1.38825E-24
9.18641E-03 1.21759E-24
9.60736E-03 1.06902E-24
1.00376E-02 9.39452E-25
1.04773E-02 8.26296E-25
1.09262E-02 7.27330E-25
1.13844E-02 6.40665E-25
1.18520E-02 5.64679E-25
1.23288E-02 4.97984E-25
1.28150E-02 4.39384E-25
1.33104E-02 3.87849E-25
1.38150E-02 3.42489E-25
1.43290E-02 3.02533E-25
1.48521E-02 2.67313E-25
1.53845E-02 2.36249E-25
1.59262E-02 2.08834E-25
1.64770E-02 1.84628E-25
1.70371E-02 1.63247E-25
1.76063E-02 1.44352E-25
1.81848E-02 1.27651E-25
1.87724E-02 1.12884E-25
1.93692E-02 9.98251E-26
1.99751E-02 8.82743E-26
2.05901E-02 7.80565E-26
2.12143E-02 6.90171E-26
2.18476E-02 6.10202E-26
2.24900E-02 5.39456E-26
2.31415E-02 4.76874E-26
2.38021E-02 4.21517E-26
2.44717E-02 3.72559E-26
2.51504E-02 3.29267E-26
2.58382E-02 2.90993E-26
2.65349E-02 2.57162E-26
2.72407E-02 2.27267E-26
2.79555E-02 2.00856E-26
2.86793E-02 1.77531E-26
2.94120E-02 1.56936E-26
3.01537E-02 1.38759E-26
3.09043E-02 1.22721E-26
3.16639E-02 1.08575E-26
3.24324E-02 9.61020E-27
3.32098E-02 8.51075E-27
3.39961E-02 7.54195E-27
3.47912E-02 6.68852E-27
3.55952E-02 5.93693E-27
3.64081E-02 5.27517E-27
3.72297E-02 4.69262E-27
3.80602E-02 4.17987E-27
3.88995E-02 3.72857E-27
3.97476E-02 3.33136E-27
4.06044E-02 2.98172E-27
4.14700E-02 2.67387E-27
4.23443E-02 2.40273E-27
4.32273E-02 2.16381E-27
4.41190E-02 1.95313E-27
4.50194E-02 1.76722E-27
4.59284E-02 1.60298E-27
4.68461E-02 1.45772E-27
4.87074E-02 1.21490E-27
5.06030E-02 1.02302E-27
5.25328E-02 8.69989E-28
5.44967E-02 7.46586E-28
5.64946E-02 6.45798E-28
5.85262E-02 5.62326E-28
6.05914E-02 4.92191E-28
6.26901E-02 4.32418E-28
6.48222E-02 3.80799E-28
6.69873E-02 3.35701E-28
6.91854E-02 2.95918E-28
7.14163E-02 2.60563E-28
7.36799E-02 2.28979E-28
7.59760E-02 2.00676E-28
7.83043E-02 1.75281E-28
8.06647E-02 1.52503E-28
8.30571E-02 1.32106E-28
8.54812E-02 1.13892E-28
8.79369E-02 9.76894E-29
9.04240E-02 8.33396E-29
9.29422E-02 7.06961E-29
9.54915E-02 5.96187E-29
9.80716E-02 4.99730E-29
1.00682E-01 4.16288E-29
1.03323E-01 3.44608E-29
1.05995E-01 2.83485E-29
1.08696E-01 2.31770E-29
1.11427E-01 1.88374E-29
1.14188E-01 1.52277E-29
1.16978E-01 1.22529E-29
1.19797E-01 9.82556E-30
1.22645E-01 7.86578E-30
1.25522E-01 6.30146E-30
1.28428E-01 5.06805E-30
1.31361E-01 4.10835E-30
1.34323E-01 3.37224E-30
1.37313E-01 2.81621E-30
1.40330E-01 2.40293E-30
1.43375E-01 2.10076E-30
1.46447E-01 1.88321E-30
1.49545E-01 1.72840E-30
1.52671E-01 1.61855E-30
1.55823E-01 1.53948E-30
1.59001E-01 1.48007E-30
1.62205E-01 1.43186E-30
1.65435E-01 1.38863E-30
1.68690E-01 1.34596E-30
1.71970E-01 1.30095E-30
1.75276E-01 1.25188E-30
1.78606E-01 1.19797E-30
1.81961E-01 1.13911E-30
1.85340E-01 1.07573E-30
1.88743E-01 1.00857E-30
1.92169E-01 9.38620E-31
1.95619E-01 8.66941E-31
1.99092E-01 7.94640E-31
2.02589E-01 7.22778E-31
2.06107E-01 6.52335E-31
2.09649E-01 5.84178E-31
2.13212E-01 5.19043E-31
2.16797E-01 4.57524E-31
2.20404E-01 4.00075E-31
2.24032E-01 3.47013E-31
2.27680E-01 2.98528E-31
2.31350E-01 2.54695E-31
2.35040E-01 2.15488E-31
2.38751E-01 1.80797E-31
2.42481E-01 1.50438E-31
2.46231E-01 1.24174E-31
2.50000E-01 1.01725E-31
2.53788E-01 8.27817E-32
2.57595E-01 6.70181E-32
2.61421E-01 5.41005E-32
2.65264E-01 4.36966E-32
2.69126E-01 3.54824E-32
2.73005E-01 2.91485E-32
2.76901E-01 2.44036E-32
2.80814E-01 2.09786E-32
2.84744E-01 1.86282E-32
2.88691E-01 1.71322E-32
2.92653E-01 1.62961E-32
2.96632E-01 1.59505E-32
3.00625E-01 1.59502E-32
3.04634E-01 1.61735E-32
3.08658E-01 1.65198E-32
3.12697E-01 1.69086E-32
3.16749E-01 1.72769E-32
3.20816E-01 1.75776E-32
3.24896E-01 1.77772E-32
3.28990E-01 1.78543E-32
3.33097E-01 1.77970E-32
3.37216E-01 1.76019E-32
3.41348E-01 1.72721E-32
3.45492E-01 1.68156E-32
3.49647E-01 1.62443E-32
3.53814E-01 1.55728E-32
3.57992E-01 1.48170E-32
3.62181E-01 1.39940E-32
3.66381E-01 1.31207E-32
3.70590E-01 1.22137E-32
3.74810E-01 1.12886E-32
3.79039E-01 1.03600E-32
3.83277E-01 9.44088E-33
3.87524E-01 8.54257E-33
3.91780E-01 7.67488E-33
3.96044E-01 6.84591E-33
4.00316E-01 6.06211E-33
4.04596E-01 5.32836E-33
4.08882E-01 4.64809E-33
4.13176E-01 4.02341E-33
4.17476E-01 3.45520E-33
4.21783E-01 2.94330E-33
4.26095E-01 2.48665E-33
4.30413E-01 2.08343E-33
4.34737E-01 1.73118E-33
4.39065E-01 1.42699E-33
4.43398E-01 1.16756E-33
4.47736E-01 9.49352E-34
4.52077E-01 7.68691E-34
4.56422E-01 6.21831E-34
4.60770E-01 5.05048E-34
4.65122E-01 4.14700E-34
4.69476E-01 3.47286E-34
4.73832E-01 2.99474E-34
4.78190E-01 2.68147E-34
4.82550E-01 2.50421E-34
4.86912E-01 2.43661E-34
4.91274E-01 2.45486E-34
4.95637E-01 2.53776E-34
5.00000E-01 2.66665E-34
5.04363E-01 2.82535E-34
5.08726E-01 3.00005E-34
5.13088E-01 3.17917E-34
5.17450E-01 3.35320E-34
5.21810E-01 3.51453E-34
5.26168E-01 3.65730E-34
5.30524E-01 3.77718E-34
5.34878E-01 3.87121E-34
5.39230E-01 3.93761E-34
5.43578E-01 3.97565E-34
5.47923E-01 3.98542E-34
5.52264E-01 3.96775E-34
5.56602E-01 3.92404E-34
5.60935E-01 3.85612E-34
5.65263E-01 3.76615E-34
5.69587E-01 3.65653E-34
5.73905E-01 3.52981E-34
5.78217E-01 3.38858E-34
5.82524E-01 3.23544E-34
5.86824E-01 3.07295E-34
5.91118E-01 2.90356E-34
5.95404E-01 2.72958E-34
5.99684E-01 2.55315E-34
6.03956E-01 2.37627E-34
6.08220E-01 2.20071E-34
6.12476E-01 2.02804E-34
6.16723E-01 1.85966E-34
6.20961E-01 1.69674E-34
6.25190E-01 1.54027E-34
6.29410E-01 1.39104E-34
6.33619E-01 1.24969E-34
6.37819E-01 1.11668E-34
6.42008E-01 9.92308E-35
6.46186E-01 8.76760E-35
6.50353E-01 7.70081E-35
6.54508E-01 6.72223E-35
6.58652E-01 5.83029E-35
6.62784E-01 5.02277E-35
6.66903E-01 4.29663E-35
6.71010E-01 3.64842E-35
6.75104E-01 3.07417E-35
6.79184E-01 2.56957E-35
6.83251E-01 2.13017E-35
6.87303E-01 1.75126E-35
6.91342E-01 1.42817E-35
6.95366E-01 1.15614E-35
6.99375E-01 9.30535E-36
7.03368E-01 7.46770E-36
7.07347E-01 6.00445E-36
7.11309E-01 4.87331E-36
7.15256E-01 4.03404E-36
7.19186E-01 3.44889E-36
7.23099E-01 3.08225E-36
7.26995E-01 2.90130E-36
7.30874E-01 2.87564E-36
7.34736E-01 2.97753E-36
7.38579E-01 3.18177E-36
7.42405E-01 3.46572E-36
7.46212E-01 3.80912E-36
7.50000E-01 4.19401E-36
7.53769E-01 4.60466E-36
7.57519E-01 5.02749E-36
7.61249E-01 5.45080E-36
7.64960E-01 5.86471E-36
7.68650E-01 6.26107E-36
7.72320E-01 6.63319E-36
7.75968E-01 6.97582E-36
7.79596E-01 7.28481E-36
7.83203E-01 7.55741E-36
7.86788E-01 7.79159E-36
7.90351E-01 7.98627E-36
7.93893E-01 8.14112E-36
7.97411E-01 8.25655E-36
8.00908E-01 8.33332E-36
8.04381E-01 8.37272E-36
8.07831E-01 8.37662E-36
8.11257E-01 8.34673E-36
8.14660E-01 8.28543E-36
8.18039E-01 8.19496E-36
8.21394E-01 8.07782E-36
8.24724E-01 7.93649E-36
8.28030E-01 7.77357E-36
8.31310E-01 7.59157E-36
8.34565E-01 7.39292E-36
8.37795E-01 7.18005E-36
8.40999E-01 6.95525E-36
8.44177E-01 6.72082E-36
8.47329E-01 6.47872E-36
8.50455E-01 6.23100E-36
8.53553E-01 5.97948E-36
8.56625E-01 5.72570E-36
8.59670E-01 5.47133E-36
8.62687E-01 5.21780E-36
8.65677E-01 4.96628E-36
8.68639E-01 4.71792E-36
8.71572E-01 4.47373E-36
8.74478E-01 4.23450E-36
8.77355E-01 4.00120E-36
8.80203E-01 3.77413E-36
8.83022E-01 3.55412E-36
8.85812E-01 3.34141E-36
8.88573E-01 3.13643E-36
8.91304E-01 2.93939E-36
8.94005E-01 2.75058E-36
8.96677E-01 2.56990E-36
8.99318E-01 2.39753E-36
9.01928E-01 2.23356E-36
9.04508E-01 2.07780E-36
9.07058E-01 1.93013E-36
9.09576E-01 1.79036E-36
9.12063E-01 1.65854E-36
9.14519E-01 1.53427E-36
9.16943E-01 1.41745E-36
9.19335E-01 1.30778E-36
9.21696E-01 1.20490E-36
9.24024E-01 1.10872E-36
9.26320E-01 1.01893E-36
9.28584E-01 9.35148E-37
9.30815E-01 8.57208E-37
9.33013E-01 7.84733E-37
9.35178E-01 7.17489E-37
9.37310E-01 6.55165E-37
9.39409E-01 5.97503E-37
9.41474E-01 5.44255E-37
9.43505E-01 4.95134E-37
9.45503E-01 4.49866E-37
9.47467E-01 4.08248E-37
9.49397E-01 3.70048E-37
9.51293E-01 3.34963E-37
9.53154E-01 3.02844E-37
9.54981E-01 2.73461E-37
9.56773E-01 2.46625E-37
9.58530E-01 2.22154E-37
9.60252E-01 1.99856E-37
9.61940E-01 1.79580E-37
9.63592E-01 1.61154E-37
9.65209E-01 1.44439E-37
9.66790E-01 1.29305E-37
9.68336E-01 1.15619E-37
9.69846E-01 1.03237E-37
9.71321E-01 9.20493E-38
9.72759E-01 8.19971E-38
9.74162E-01 7.29468E-38
9.75528E-01 6.47918E-38
9.76858E-01 5.74851E-38
9.78152E-01 5.09392E-38
9.79410E-01 4.50795E-38
9.80631E-01 3.98415E-38
9.81815E-01 3.51575E-38
9.82963E-01 3.09748E-38
9.84074E-01 2.72621E-38
9.85148E-01 2.39488E-38
9.86185E-01 2.09979E-38
9.87185E-01 1.83896E-38
9.88148E-01 1.60729E-38
9.89074E-01 1.40216E-38
9.89962E-01 1.21954E-38
9.90814E-01 1.05914E-38
9.91627E-01 9.16856E-39
9.92404E-01 7.91313E-39
9.93143E-01 6.81045E-39
9.93844E-01 5.83350E-39
9.94508E-01 4.98186E-39
9.95134E-01 4.22424E-39
9.95722E-01 3.57242E-39
9.96273E-01 2.99493E-39
9.96786E-01 2.49306E-39
9.97261E-01 2.05385E-39
9.97698E-01 1.67466E-39
9.98097E-01 1.34150E-39
9.98459E-01 1.06015E-39
9.98782E-01 8.18556E-40
9.99067E-01 6.09569E-40
9.99315E-01 4.42681E-40
9.99524E-01 3.04363E-40
9.99695E-01 1.90605E-40
9.99829E-01 1.06853E-40
9.99924E-01 4.80824E-41
9.99981E-01 1.40960E-41
1.00000E+00 1.13409E-42
