 #
 # Subroutine ELSEPA. Elastic scattering of electrons and positrons
 #                    by neutral atoms and positive ions
 #
 # Projectile: positron
 # Kinetic energy = 4.00000E+07 eV = 1.46997E+06 a.u.
 #
 # WARNING: High-energy factorization with free-atom DF screening.
 #          Absorption, polarization and exchange corrections are
 #          switched off.
 #          Phase shifts are calculated for the bare nucleus.
 #          Scattering amplitudes are not evaluated.
 #
 # Element: Hf,  Z =  72,  atomic weight = 1.78490E+02 g/mol
 #
 # Nuclear model: Fermi distribution
 #                Average radius = 6.02451E-13 cm
 #                Skin thickness = 5.46000E-14 cm
 #
 # Number of electrons = 72
 #
 # Total elastic cross section = 7.31478E-18 cm**2 = 2.61216E-01 a0**2
 # 1st transport cross section = 5.38418E-24 cm**2 = 1.92272E-07 a0**2
 # 2nd transport cross section = 1.57617E-23 cm**2 = 5.62859E-07 a0**2
 #
 #
 # Differential cross section:                       MU=(1-COS(THETA))/2
 #
 #  THETA        MU          DCS          DCS        Sherman      error
 #  (deg)                 (cm**2/sr)   (a0**2/sr)    function
 #----------------------------------------------------------------------
0.00000E+00 1.03692E-10
7.61557E-13 1.03637E-10
1.18994E-12 1.03606E-10
1.71346E-12 1.03569E-10
2.33225E-12 1.03525E-10
3.04617E-12 1.03473E-10
3.85530E-12 1.03415E-10
4.75964E-12 1.03351E-10
5.75917E-12 1.03280E-10
6.85391E-12 1.03202E-10
8.04379E-12 1.03117E-10
9.32893E-12 1.03026E-10
1.07092E-11 1.02928E-10
1.21847E-11 1.02823E-10
1.37554E-11 1.02712E-10
1.54213E-11 1.02595E-10
1.71823E-11 1.02471E-10
1.90386E-11 1.02340E-10
2.09900E-11 1.02203E-10
2.30367E-11 1.02060E-10
2.51785E-11 1.01911E-10
2.74156E-11 1.01755E-10
2.97478E-11 1.01593E-10
3.21752E-11 1.01425E-10
3.46979E-11 1.01251E-10
3.73157E-11 1.01071E-10
4.00286E-11 1.00885E-10
4.28368E-11 1.00693E-10
4.57402E-11 1.00495E-10
4.87388E-11 1.00291E-10
5.18325E-11 1.00082E-10
5.50215E-11 9.98669E-11
5.83057E-11 9.96461E-11
6.16850E-11 9.94198E-11
6.51595E-11 9.91881E-11
6.87293E-11 9.89509E-11
7.23943E-11 9.87084E-11
7.61544E-11 9.84607E-11
1.18991E-10 9.57102E-11
1.71347E-10 9.25154E-11
2.33223E-10 8.89726E-11
3.04617E-10 8.51624E-11
3.85531E-10 8.11656E-11
4.75965E-10 7.70709E-11
5.75917E-10 7.29504E-11
6.85389E-10 6.88587E-11
8.04380E-10 6.48493E-11
9.32891E-10 6.09690E-11
1.07092E-09 5.72478E-11
1.21847E-09 5.37008E-11
1.37554E-09 5.03468E-11
1.54213E-09 4.71946E-11
1.71823E-09 4.42450E-11
1.90386E-09 4.14905E-11
2.09900E-09 3.89298E-11
2.30367E-09 3.65548E-11
2.51785E-09 3.43551E-11
2.74156E-09 3.23165E-11
2.97478E-09 3.04316E-11
3.21752E-09 2.86894E-11
3.46978E-09 2.70778E-11
3.73156E-09 2.55840E-11
4.00286E-09 2.42012E-11
4.28368E-09 2.29205E-11
4.57402E-09 2.17308E-11
4.87388E-09 2.06235E-11
5.18326E-09 1.95942E-11
5.50215E-09 1.86361E-11
5.83057E-09 1.77401E-11
6.16850E-09 1.69018E-11
6.51596E-09 1.61183E-11
6.87293E-09 1.53849E-11
7.23942E-09 1.46938E-11
7.61544E-09 1.40441E-11
1.18991E-08 9.23379E-12
1.71347E-08 6.24535E-12
2.33223E-08 4.44273E-12
3.04617E-08 3.22335E-12
3.85531E-08 2.37913E-12
4.75965E-08 1.79957E-12
5.75917E-08 1.38801E-12
6.85389E-08 1.08362E-12
8.04380E-08 8.56203E-13
9.32891E-08 6.85457E-13
1.07092E-07 5.54779E-13
1.21847E-07 4.51897E-13
1.37554E-07 3.71208E-13
1.54213E-07 3.07555E-13
1.71823E-07 2.56779E-13
1.90386E-07 2.15562E-13
2.09900E-07 1.82286E-13
2.30367E-07 1.55211E-13
2.51785E-07 1.32995E-13
2.74156E-07 1.14569E-13
2.97478E-07 9.92902E-14
3.21752E-07 8.65359E-14
3.46978E-07 7.58227E-14
3.73156E-07 6.66849E-14
4.00286E-07 5.89186E-14
4.28368E-07 5.22852E-14
4.57402E-07 4.65827E-14
4.87388E-07 4.16535E-14
5.18325E-07 3.73779E-14
5.50215E-07 3.36510E-14
5.83057E-07 3.03794E-14
6.16850E-07 2.74977E-14
6.51596E-07 2.49537E-14
6.87293E-07 2.26997E-14
7.23942E-07 2.06901E-14
7.61543E-07 1.88986E-14
1.18991E-06 8.42555E-15
1.71347E-06 4.29072E-15
2.33223E-06 2.40702E-15
3.04617E-06 1.45234E-15
3.85531E-06 9.27626E-16
4.75964E-06 6.20021E-16
5.75916E-06 4.30078E-16
6.85388E-06 3.07660E-16
8.04378E-06 2.25877E-16
9.32888E-06 1.69536E-16
1.07092E-05 1.29711E-16
1.21846E-05 1.00912E-16
1.37553E-05 7.96704E-17
1.54212E-05 6.37267E-17
1.71822E-05 5.15726E-17
1.90385E-05 4.21551E-17
2.09899E-05 3.48267E-17
2.30365E-05 2.90169E-17
2.51783E-05 2.43614E-17
2.74153E-05 2.05969E-17
2.97475E-05 1.75289E-17
3.21749E-05 1.50107E-17
3.46974E-05 1.29296E-17
3.73152E-05 1.11983E-17
4.00281E-05 9.74837E-18
4.28362E-05 8.52612E-18
4.57395E-05 7.48947E-18
4.87380E-05 6.60528E-18
5.18317E-05 5.84733E-18
5.50205E-05 5.19471E-18
5.83045E-05 4.63050E-18
6.16838E-05 4.14088E-18
6.51582E-05 3.71441E-18
6.87277E-05 3.34158E-18
7.23925E-05 3.01446E-18
7.61524E-05 2.72649E-18
9.21439E-05 1.86741E-18
1.09658E-04 1.32138E-18
1.28695E-04 9.61106E-19
1.49255E-04 7.15528E-19
1.71338E-04 5.43580E-19
1.94942E-04 4.20260E-19
2.20070E-04 3.29977E-19
2.46720E-04 2.62661E-19
2.74892E-04 2.11646E-19
3.04586E-04 1.72422E-19
3.35803E-04 1.41864E-19
3.68542E-04 1.17777E-19
4.02802E-04 9.85836E-20
4.38585E-04 8.31396E-20
4.75889E-04 7.05999E-20
5.14715E-04 6.03337E-20
5.55063E-04 5.18643E-20
5.96931E-04 4.48277E-20
6.40321E-04 3.89427E-20
6.85233E-04 3.39906E-20
7.31665E-04 2.97998E-20
7.79618E-04 2.62340E-20
8.29092E-04 2.31849E-20
8.80086E-04 2.05652E-20
9.32601E-04 1.83045E-20
9.86636E-04 1.63454E-20
1.04219E-03 1.46409E-20
1.09927E-03 1.31524E-20
1.15786E-03 1.18479E-20
1.21797E-03 1.07008E-20
1.27961E-03 9.68885E-21
1.34276E-03 8.79345E-21
1.40743E-03 7.99886E-21
1.47362E-03 7.29178E-21
1.54133E-03 6.66092E-21
1.61056E-03 6.09664E-21
1.68131E-03 5.59069E-21
1.75357E-03 5.13601E-21
1.82735E-03 4.72647E-21
1.90265E-03 4.35684E-21
1.97947E-03 4.02252E-21
2.05780E-03 3.71957E-21
2.13765E-03 3.44451E-21
2.21902E-03 3.19433E-21
2.30190E-03 2.96638E-21
2.38630E-03 2.75834E-21
2.47222E-03 2.56815E-21
2.55965E-03 2.39401E-21
2.64859E-03 2.23434E-21
2.73905E-03 2.08771E-21
2.83103E-03 1.95287E-21
2.92452E-03 1.82869E-21
3.01952E-03 1.71420E-21
3.11604E-03 1.60849E-21
3.21407E-03 1.51077E-21
3.31362E-03 1.42033E-21
3.41468E-03 1.33652E-21
3.51725E-03 1.25879E-21
3.62133E-03 1.18660E-21
3.72692E-03 1.11948E-21
3.83403E-03 1.05703E-21
3.94265E-03 9.98847E-22
4.05278E-03 9.44597E-22
4.16442E-03 8.93963E-22
4.27757E-03 8.46661E-22
4.39223E-03 8.02431E-22
4.50840E-03 7.61038E-22
4.62608E-03 7.22266E-22
4.74527E-03 6.85920E-22
4.86597E-03 6.51820E-22
4.98817E-03 6.19801E-22
5.11188E-03 5.89715E-22
5.23711E-03 5.61422E-22
5.36383E-03 5.34797E-22
5.49207E-03 5.09722E-22
5.62181E-03 4.86092E-22
5.75306E-03 4.63808E-22
5.88581E-03 4.42779E-22
6.02007E-03 4.22922E-22
6.15583E-03 4.04158E-22
6.29310E-03 3.86418E-22
6.43187E-03 3.69634E-22
6.57214E-03 3.53746E-22
6.71392E-03 3.38698E-22
6.85720E-03 3.24436E-22
7.00198E-03 3.10912E-22
7.14827E-03 2.98082E-22
7.29605E-03 2.85902E-22
7.44534E-03 2.74333E-22
7.59612E-03 2.63340E-22
7.97965E-03 2.38158E-22
8.37255E-03 2.15896E-22
8.77480E-03 1.96158E-22
9.18641E-03 1.78610E-22
9.60736E-03 1.62967E-22
1.00376E-02 1.48988E-22
1.04773E-02 1.36465E-22
1.09262E-02 1.25221E-22
1.13844E-02 1.15102E-22
1.18520E-02 1.05977E-22
1.23288E-02 9.77308E-23
1.28150E-02 9.02648E-23
1.33104E-02 8.34923E-23
1.38150E-02 7.73377E-23
1.43290E-02 7.17348E-23
1.48521E-02 6.66259E-23
1.53845E-02 6.19597E-23
1.59262E-02 5.76906E-23
1.64770E-02 5.37783E-23
1.70371E-02 5.01888E-23
1.76063E-02 4.68907E-23
1.81848E-02 4.38562E-23
1.87724E-02 4.10605E-23
1.93692E-02 3.84817E-23
1.99751E-02 3.60998E-23
2.05901E-02 3.38973E-23
2.12143E-02 3.18582E-23
2.18476E-02 2.99683E-23
2.24900E-02 2.82147E-23
2.31415E-02 2.65860E-23
2.38021E-02 2.50715E-23
2.44717E-02 2.36620E-23
2.51504E-02 2.23489E-23
2.58382E-02 2.11243E-23
2.65349E-02 1.99813E-23
2.72407E-02 1.89135E-23
2.79555E-02 1.79151E-23
2.86793E-02 1.69807E-23
2.94120E-02 1.61055E-23
3.01537E-02 1.52852E-23
3.09043E-02 1.45156E-23
3.16639E-02 1.37931E-23
3.24324E-02 1.31143E-23
3.32098E-02 1.24761E-23
3.39961E-02 1.18755E-23
3.47912E-02 1.13101E-23
3.55952E-02 1.07774E-23
3.64081E-02 1.02751E-23
3.72297E-02 9.80125E-24
3.80602E-02 9.35391E-24
3.88995E-02 8.93134E-24
3.97476E-02 8.53193E-24
4.06044E-02 8.15419E-24
4.14700E-02 7.79672E-24
4.23443E-02 7.45826E-24
4.32273E-02 7.13762E-24
4.41190E-02 6.83368E-24
4.50194E-02 6.54543E-24
4.59284E-02 6.27191E-24
4.68461E-02 6.01224E-24
4.87074E-02 5.53119E-24
5.06030E-02 5.09634E-24
5.25328E-02 4.70252E-24
5.44967E-02 4.34521E-24
5.64946E-02 4.02047E-24
5.85262E-02 3.72483E-24
6.05914E-02 3.45525E-24
6.26901E-02 3.20905E-24
6.48222E-02 2.98387E-24
6.69873E-02 2.77762E-24
6.91854E-02 2.58843E-24
7.14163E-02 2.41467E-24
7.36799E-02 2.25486E-24
7.59760E-02 2.10770E-24
7.83043E-02 1.97202E-24
8.06647E-02 1.84678E-24
8.30571E-02 1.73104E-24
8.54812E-02 1.62397E-24
8.79369E-02 1.52480E-24
9.04240E-02 1.43285E-24
9.29422E-02 1.34752E-24
9.54915E-02 1.26824E-24
9.80716E-02 1.19452E-24
1.00682E-01 1.12590E-24
1.03323E-01 1.06198E-24
1.05995E-01 1.00237E-24
1.08696E-01 9.46744E-25
1.11427E-01 8.94785E-25
1.14188E-01 8.46214E-25
1.16978E-01 8.00774E-25
1.19797E-01 7.58230E-25
1.22645E-01 7.18367E-25
1.25522E-01 6.80988E-25
1.28428E-01 6.45915E-25
1.31361E-01 6.12980E-25
1.34323E-01 5.82033E-25
1.37313E-01 5.52935E-25
1.40330E-01 5.25557E-25
1.43375E-01 4.99780E-25
1.46447E-01 4.75497E-25
1.49545E-01 4.52606E-25
1.52671E-01 4.31016E-25
1.55823E-01 4.10639E-25
1.59001E-01 3.91398E-25
1.62205E-01 3.73219E-25
1.65435E-01 3.56033E-25
1.68690E-01 3.39778E-25
1.71970E-01 3.24395E-25
1.75276E-01 3.09831E-25
1.78606E-01 2.96034E-25
1.81961E-01 2.82958E-25
1.85340E-01 2.70560E-25
1.88743E-01 2.58798E-25
1.92169E-01 2.47635E-25
1.95619E-01 2.37035E-25
1.99092E-01 2.26966E-25
2.02589E-01 2.17397E-25
2.06107E-01 2.08300E-25
2.09649E-01 1.99647E-25
2.13212E-01 1.91413E-25
2.16797E-01 1.83575E-25
2.20404E-01 1.76111E-25
2.24032E-01 1.69000E-25
2.27680E-01 1.62223E-25
2.31350E-01 1.55762E-25
2.35040E-01 1.49601E-25
2.38751E-01 1.43722E-25
2.42481E-01 1.38111E-25
2.46231E-01 1.32754E-25
2.50000E-01 1.27638E-25
2.53788E-01 1.22751E-25
2.57595E-01 1.18079E-25
2.61421E-01 1.13614E-25
2.65264E-01 1.09343E-25
2.69126E-01 1.05258E-25
2.73005E-01 1.01349E-25
2.76901E-01 9.76067E-26
2.80814E-01 9.40240E-26
2.84744E-01 9.05927E-26
2.88691E-01 8.73054E-26
2.92653E-01 8.41551E-26
2.96632E-01 8.11354E-26
3.00625E-01 7.82401E-26
3.04634E-01 7.54632E-26
3.08658E-01 7.27992E-26
3.12697E-01 7.02428E-26
3.16749E-01 6.77892E-26
3.20816E-01 6.54335E-26
3.24896E-01 6.31713E-26
3.28990E-01 6.09983E-26
3.33097E-01 5.89105E-26
3.37216E-01 5.69041E-26
3.41348E-01 5.49755E-26
3.45492E-01 5.31213E-26
3.49647E-01 5.13381E-26
3.53814E-01 4.96228E-26
3.57992E-01 4.79725E-26
3.62181E-01 4.63845E-26
3.66381E-01 4.48559E-26
3.70590E-01 4.33843E-26
3.74810E-01 4.19673E-26
3.79039E-01 4.06026E-26
3.83277E-01 3.92879E-26
3.87524E-01 3.80211E-26
3.91780E-01 3.68004E-26
3.96044E-01 3.56237E-26
4.00316E-01 3.44893E-26
4.04596E-01 3.33955E-26
4.08882E-01 3.23406E-26
4.13176E-01 3.13230E-26
4.17476E-01 3.03412E-26
4.21783E-01 2.93939E-26
4.26095E-01 2.84796E-26
4.30413E-01 2.75970E-26
4.34737E-01 2.67449E-26
4.39065E-01 2.59220E-26
4.43398E-01 2.51274E-26
4.47736E-01 2.43598E-26
4.52077E-01 2.36182E-26
4.56422E-01 2.29016E-26
4.60770E-01 2.22091E-26
4.65122E-01 2.15398E-26
4.69476E-01 2.08927E-26
4.73832E-01 2.02671E-26
4.78190E-01 1.96621E-26
4.82550E-01 1.90770E-26
4.86912E-01 1.85111E-26
4.91274E-01 1.79635E-26
4.95637E-01 1.74338E-26
5.00000E-01 1.69211E-26
5.04363E-01 1.64249E-26
5.08726E-01 1.59446E-26
5.13088E-01 1.54796E-26
5.17450E-01 1.50294E-26
5.21810E-01 1.45935E-26
5.26168E-01 1.41712E-26
5.30524E-01 1.37622E-26
5.34878E-01 1.33660E-26
5.39230E-01 1.29822E-26
5.43578E-01 1.26102E-26
5.47923E-01 1.22497E-26
5.52264E-01 1.19003E-26
5.56602E-01 1.15616E-26
5.60935E-01 1.12333E-26
5.65263E-01 1.09150E-26
5.69587E-01 1.06063E-26
5.73905E-01 1.03069E-26
5.78217E-01 1.00165E-26
5.82524E-01 9.73488E-27
5.86824E-01 9.46163E-27
5.91118E-01 9.19652E-27
5.95404E-01 8.93927E-27
5.99684E-01 8.68963E-27
6.03956E-01 8.44734E-27
6.08220E-01 8.21216E-27
6.12476E-01 7.98386E-27
6.16723E-01 7.76221E-27
6.20961E-01 7.54701E-27
6.25190E-01 7.33804E-27
6.29410E-01 7.13510E-27
6.33619E-01 6.93800E-27
6.37819E-01 6.74655E-27
6.42008E-01 6.56058E-27
6.46186E-01 6.37990E-27
6.50353E-01 6.20435E-27
6.54508E-01 6.03378E-27
6.58652E-01 5.86802E-27
6.62784E-01 5.70693E-27
6.66903E-01 5.55035E-27
6.71010E-01 5.39816E-27
6.75104E-01 5.25021E-27
6.79184E-01 5.10637E-27
6.83251E-01 4.96652E-27
6.87303E-01 4.83054E-27
6.91342E-01 4.69831E-27
6.95366E-01 4.56971E-27
6.99375E-01 4.44464E-27
7.03368E-01 4.32298E-27
7.07347E-01 4.20465E-27
7.11309E-01 4.08953E-27
7.15256E-01 3.97753E-27
7.19186E-01 3.86856E-27
7.23099E-01 3.76253E-27
7.26995E-01 3.65935E-27
7.30874E-01 3.55895E-27
7.34736E-01 3.46123E-27
7.38579E-01 3.36612E-27
7.42405E-01 3.27354E-27
7.46212E-01 3.18343E-27
7.50000E-01 3.09570E-27
7.53769E-01 3.01030E-27
7.57519E-01 2.92715E-27
7.61249E-01 2.84619E-27
7.64960E-01 2.76735E-27
7.68650E-01 2.69059E-27
7.72320E-01 2.61583E-27
7.75968E-01 2.54303E-27
7.79596E-01 2.47212E-27
7.83203E-01 2.40305E-27
7.86788E-01 2.33578E-27
7.90351E-01 2.27025E-27
7.93893E-01 2.20642E-27
7.97411E-01 2.14424E-27
8.00908E-01 2.08365E-27
8.04381E-01 2.02463E-27
8.07831E-01 1.96712E-27
8.11257E-01 1.91109E-27
8.14660E-01 1.85649E-27
8.18039E-01 1.80329E-27
8.21394E-01 1.75144E-27
8.24724E-01 1.70092E-27
8.28030E-01 1.65169E-27
8.31310E-01 1.60370E-27
8.34565E-01 1.55694E-27
8.37795E-01 1.51136E-27
8.40999E-01 1.46694E-27
8.44177E-01 1.42365E-27
8.47329E-01 1.38145E-27
8.50455E-01 1.34032E-27
8.53553E-01 1.30022E-27
8.56625E-01 1.26114E-27
8.59670E-01 1.22305E-27
8.62687E-01 1.18592E-27
8.65677E-01 1.14973E-27
8.68639E-01 1.11444E-27
8.71572E-01 1.08005E-27
8.74478E-01 1.04653E-27
8.77355E-01 1.01385E-27
8.80203E-01 9.81999E-28
8.83022E-01 9.50950E-28
8.85812E-01 9.20685E-28
8.88573E-01 8.91185E-28
8.91304E-01 8.62431E-28
8.94005E-01 8.34406E-28
8.96677E-01 8.07090E-28
8.99318E-01 7.80468E-28
9.01928E-01 7.54522E-28
9.04508E-01 7.29236E-28
9.07058E-01 7.04595E-28
9.09576E-01 6.80583E-28
9.12063E-01 6.57186E-28
9.14519E-01 6.34388E-28
9.16943E-01 6.12178E-28
9.19335E-01 5.90539E-28
9.21696E-01 5.69461E-28
9.24024E-01 5.48929E-28
9.26320E-01 5.28931E-28
9.28584E-01 5.09456E-28
9.30815E-01 4.90491E-28
9.33013E-01 4.72026E-28
9.35178E-01 4.54050E-28
9.37310E-01 4.36551E-28
9.39409E-01 4.19519E-28
9.41474E-01 4.02945E-28
9.43505E-01 3.86819E-28
9.45503E-01 3.71131E-28
9.47467E-01 3.55871E-28
9.49397E-01 3.41032E-28
9.51293E-01 3.26605E-28
9.53154E-01 3.12581E-28
9.54981E-01 2.98951E-28
9.56773E-01 2.85710E-28
9.58530E-01 2.72847E-28
9.60252E-01 2.60358E-28
9.61940E-01 2.48233E-28
9.63592E-01 2.36467E-28
9.65209E-01 2.25052E-28
9.66790E-01 2.13983E-28
9.68336E-01 2.03252E-28
9.69846E-01 1.92854E-28
9.71321E-01 1.82783E-28
9.72759E-01 1.73034E-28
9.74162E-01 1.63601E-28
9.75528E-01 1.54478E-28
9.76858E-01 1.45661E-28
9.78152E-01 1.37144E-28
9.79410E-01 1.28924E-28
9.80631E-01 1.20994E-28
9.81815E-01 1.13352E-28
9.82963E-01 1.05993E-28
9.84074E-01 9.89121E-29
9.85148E-01 9.21063E-29
9.86185E-01 8.55715E-29
9.87185E-01 7.93044E-29
9.88148E-01 7.33013E-29
9.89074E-01 6.75590E-29
9.89962E-01 6.20745E-29
9.90814E-01 5.68446E-29
9.91627E-01 5.18666E-29
9.92404E-01 4.71378E-29
9.93143E-01 4.26556E-29
9.93844E-01 3.84175E-29
9.94508E-01 3.44213E-29
9.95134E-01 3.06649E-29
9.95722E-01 2.71461E-29
9.96273E-01 2.38631E-29
9.96786E-01 2.08141E-29
9.97261E-01 1.79975E-29
9.97698E-01 1.54117E-29
9.98097E-01 1.30555E-29
9.98459E-01 1.09274E-29
9.98782E-01 9.02637E-30
9.99067E-01 7.35139E-30
9.99315E-01 5.90156E-30
9.99524E-01 4.67609E-30
9.99695E-01 3.67433E-30
9.99829E-01 2.89573E-30
9.99924E-01 2.33989E-30
9.99981E-01 2.00651E-30
1.00000E+00 1.89540E-30
