 #
 # Subroutine ELSEPA. Elastic scattering of electrons and positrons
 #                    by neutral atoms and positive ions
 #
 # Projectile: positron
 # Kinetic energy = 7.00000E+06 eV = 2.57245E+05 a.u.
 #
 # WARNING: High-energy factorization with free-atom DF screening.
 #          Absorption, polarization and exchange corrections are
 #          switched off.
 #          Phase shifts are calculated for the bare nucleus.
 #          Scattering amplitudes are not evaluated.
 #
 # Element: Hf,  Z =  72,  atomic weight = 1.78490E+02 g/mol
 #
 # Nuclear model: Fermi distribution
 #                Average radius = 6.02451E-13 cm
 #                Skin thickness = 5.46000E-14 cm
 #
 # Number of electrons = 72
 #
 # Total elastic cross section = 7.34208E-18 cm**2 = 2.62191E-01 a0**2
 # 1st transport cross section = 1.19583E-22 cm**2 = 4.27039E-06 a0**2
 # 2nd transport cross section = 3.45004E-22 cm**2 = 1.23203E-05 a0**2
 #
 #
 # Differential cross section:                       MU=(1-COS(THETA))/2
 #
 #  THETA        MU          DCS          DCS        Sherman      error
 #  (deg)                 (cm**2/sr)   (a0**2/sr)    function
 #----------------------------------------------------------------------
0.00000E+00 3.56448E-12
7.61557E-13 3.56441E-12
1.18994E-12 3.56438E-12
1.71346E-12 3.56433E-12
2.33225E-12 3.56428E-12
3.04617E-12 3.56421E-12
3.85530E-12 3.56415E-12
4.75964E-12 3.56407E-12
5.75917E-12 3.56398E-12
6.85391E-12 3.56389E-12
8.04379E-12 3.56379E-12
9.32893E-12 3.56368E-12
1.07092E-11 3.56356E-12
1.21847E-11 3.56343E-12
1.37554E-11 3.56330E-12
1.54213E-11 3.56316E-12
1.71823E-11 3.56301E-12
1.90386E-11 3.56285E-12
2.09900E-11 3.56268E-12
2.30367E-11 3.56251E-12
2.51785E-11 3.56233E-12
2.74156E-11 3.56214E-12
2.97478E-11 3.56194E-12
3.21752E-11 3.56173E-12
3.46979E-11 3.56152E-12
3.73157E-11 3.56130E-12
4.00286E-11 3.56107E-12
4.28368E-11 3.56083E-12
4.57402E-11 3.56059E-12
4.87388E-11 3.56033E-12
5.18325E-11 3.56007E-12
5.50215E-11 3.55980E-12
5.83057E-11 3.55952E-12
6.16850E-11 3.55924E-12
6.51595E-11 3.55894E-12
6.87293E-11 3.55864E-12
7.23943E-11 3.55833E-12
7.61544E-11 3.55801E-12
1.18991E-10 3.55440E-12
1.71347E-10 3.55000E-12
2.33223E-10 3.54481E-12
3.04617E-10 3.53884E-12
3.85531E-10 3.53210E-12
4.75965E-10 3.52459E-12
5.75917E-10 3.51633E-12
6.85389E-10 3.50731E-12
8.04380E-10 3.49756E-12
9.32891E-10 3.48708E-12
1.07092E-09 3.47587E-12
1.21847E-09 3.46397E-12
1.37554E-09 3.45137E-12
1.54213E-09 3.43809E-12
1.71823E-09 3.42415E-12
1.90386E-09 3.40956E-12
2.09900E-09 3.39433E-12
2.30367E-09 3.37848E-12
2.51785E-09 3.36202E-12
2.74156E-09 3.34498E-12
2.97478E-09 3.32737E-12
3.21752E-09 3.30920E-12
3.46978E-09 3.29050E-12
3.73156E-09 3.27127E-12
4.00286E-09 3.25155E-12
4.28368E-09 3.23129E-12
4.57402E-09 3.21057E-12
4.87388E-09 3.18942E-12
5.18326E-09 3.16787E-12
5.50215E-09 3.14594E-12
5.83057E-09 3.12365E-12
6.16850E-09 3.10102E-12
6.51596E-09 3.07798E-12
6.87293E-09 3.05452E-12
7.23942E-09 3.03078E-12
7.61544E-09 3.00678E-12
1.18991E-08 2.75508E-12
1.71347E-08 2.49337E-12
2.33223E-08 2.23587E-12
3.04617E-08 1.99290E-12
3.85531E-08 1.77014E-12
4.75965E-08 1.57059E-12
5.75917E-08 1.39462E-12
6.85389E-08 1.24083E-12
8.04380E-08 1.10740E-12
9.32891E-08 9.91876E-13
1.07092E-07 8.91778E-13
1.21847E-07 8.05003E-13
1.37554E-07 7.29406E-13
1.54213E-07 6.63294E-13
1.71823E-07 6.05291E-13
1.90386E-07 5.53955E-13
2.09900E-07 5.08438E-13
2.30367E-07 4.67891E-13
2.51785E-07 4.31449E-13
2.74156E-07 3.98726E-13
2.97478E-07 3.69156E-13
3.21752E-07 3.42304E-13
3.46978E-07 3.17941E-13
3.73156E-07 2.95679E-13
4.00286E-07 2.75330E-13
4.28368E-07 2.55464E-13
4.57402E-07 2.37248E-13
4.87388E-07 2.21053E-13
5.18325E-07 2.06607E-13
5.50215E-07 1.93679E-13
5.83057E-07 1.82074E-13
6.16850E-07 1.71625E-13
6.51596E-07 1.61415E-13
6.87293E-07 1.51043E-13
7.23942E-07 1.41686E-13
7.61543E-07 1.33221E-13
1.18991E-06 7.62408E-14
1.71347E-06 4.64452E-14
2.33223E-06 2.97418E-14
3.04617E-06 1.98643E-14
3.85531E-06 1.36432E-14
4.75964E-06 9.63358E-15
5.75916E-06 6.97656E-15
6.85388E-06 5.16130E-15
8.04378E-06 3.90302E-15
9.32888E-06 3.00958E-15
1.07092E-05 2.36115E-15
1.21846E-05 1.88026E-15
1.37553E-05 1.51845E-15
1.54212E-05 1.24148E-15
1.71822E-05 1.02601E-15
1.90385E-05 8.54959E-16
2.09899E-05 7.19020E-16
2.30365E-05 6.09001E-16
2.51783E-05 5.18989E-16
2.74153E-05 4.44969E-16
2.97475E-05 3.83624E-16
3.21749E-05 3.32431E-16
3.46974E-05 2.89504E-16
3.73152E-05 2.53252E-16
4.00281E-05 2.22492E-16
4.28362E-05 1.96139E-16
4.57395E-05 1.73632E-16
4.87380E-05 1.54376E-16
5.18317E-05 1.37574E-16
5.50205E-05 1.23007E-16
5.83045E-05 1.10383E-16
6.16838E-05 9.92508E-17
6.51582E-05 8.95115E-17
6.87277E-05 8.09795E-17
7.23925E-05 7.33898E-17
7.61524E-05 6.66886E-17
9.21439E-05 4.64588E-17
1.09658E-04 3.33315E-17
1.28695E-04 2.45387E-17
1.49255E-04 1.84627E-17
1.71338E-04 1.41553E-17
1.94942E-04 1.10352E-17
2.20070E-04 8.72854E-18
2.46720E-04 6.99393E-18
2.74892E-04 5.66955E-18
3.04586E-04 4.64349E-18
3.35803E-04 3.83908E-18
3.68542E-04 3.20129E-18
4.02802E-04 2.69009E-18
4.38585E-04 2.27680E-18
4.75889E-04 1.93968E-18
5.14715E-04 1.66248E-18
5.55063E-04 1.43297E-18
5.96931E-04 1.24158E-18
6.40321E-04 1.08101E-18
6.85233E-04 9.45521E-19
7.31665E-04 8.30526E-19
7.79618E-04 7.32452E-19
8.29092E-04 6.48402E-19
8.80086E-04 5.76029E-19
9.32601E-04 5.13457E-19
9.86636E-04 4.59133E-19
1.04219E-03 4.11787E-19
1.09927E-03 3.70378E-19
1.15786E-03 3.34031E-19
1.21797E-03 3.02026E-19
1.27961E-03 2.73756E-19
1.34276E-03 2.48707E-19
1.40743E-03 2.26454E-19
1.47362E-03 2.06629E-19
1.54133E-03 1.88921E-19
1.61056E-03 1.73065E-19
1.68131E-03 1.58835E-19
1.75357E-03 1.46034E-19
1.82735E-03 1.34493E-19
1.90265E-03 1.24067E-19
1.97947E-03 1.14630E-19
2.05780E-03 1.06071E-19
2.13765E-03 9.82929E-20
2.21902E-03 9.12133E-20
2.30190E-03 8.47578E-20
2.38630E-03 7.88616E-20
2.47222E-03 7.34678E-20
2.55965E-03 6.85258E-20
2.64859E-03 6.39910E-20
2.73905E-03 5.98240E-20
2.83103E-03 5.59894E-20
2.92452E-03 5.24562E-20
3.01952E-03 4.91963E-20
3.11604E-03 4.61847E-20
3.21407E-03 4.33992E-20
3.31362E-03 4.08198E-20
3.41468E-03 3.84284E-20
3.51725E-03 3.62089E-20
3.62133E-03 3.41466E-20
3.72692E-03 3.22284E-20
3.83403E-03 3.04426E-20
3.94265E-03 2.87781E-20
4.05278E-03 2.72253E-20
4.16442E-03 2.57753E-20
4.27757E-03 2.44203E-20
4.39223E-03 2.31526E-20
4.50840E-03 2.19658E-20
4.62608E-03 2.08536E-20
4.74527E-03 1.98107E-20
4.86597E-03 1.88317E-20
4.98817E-03 1.79122E-20
5.11188E-03 1.70479E-20
5.23711E-03 1.62348E-20
5.36383E-03 1.54693E-20
5.49207E-03 1.47482E-20
5.62181E-03 1.40684E-20
5.75306E-03 1.34270E-20
5.88581E-03 1.28217E-20
6.02007E-03 1.22498E-20
6.15583E-03 1.17093E-20
6.29310E-03 1.11981E-20
6.43187E-03 1.07143E-20
6.57214E-03 1.02563E-20
6.71392E-03 9.82227E-21
6.85720E-03 9.41087E-21
7.00198E-03 9.02060E-21
7.14827E-03 8.65028E-21
7.29605E-03 8.29861E-21
7.44534E-03 7.96454E-21
7.59612E-03 7.64699E-21
7.97965E-03 6.91930E-21
8.37255E-03 6.27560E-21
8.77480E-03 5.70459E-21
9.18641E-03 5.19666E-21
9.60736E-03 4.74365E-21
1.00376E-02 4.33863E-21
1.04773E-02 3.97563E-21
1.09262E-02 3.64956E-21
1.13844E-02 3.35601E-21
1.18520E-02 3.09117E-21
1.23288E-02 2.85176E-21
1.28150E-02 2.63492E-21
1.33104E-02 2.43814E-21
1.38150E-02 2.25925E-21
1.43290E-02 2.09635E-21
1.48521E-02 1.94775E-21
1.53845E-02 1.81198E-21
1.59262E-02 1.68774E-21
1.64770E-02 1.57388E-21
1.70371E-02 1.46938E-21
1.76063E-02 1.37334E-21
1.81848E-02 1.28495E-21
1.87724E-02 1.20349E-21
1.93692E-02 1.12833E-21
1.99751E-02 1.05890E-21
2.05901E-02 9.94671E-22
2.12143E-02 9.35197E-22
2.18476E-02 8.80060E-22
2.24900E-02 8.28889E-22
2.31415E-02 7.81348E-22
2.38021E-02 7.37133E-22
2.44717E-02 6.95971E-22
2.51504E-02 6.57613E-22
2.58382E-02 6.21835E-22
2.65349E-02 5.88432E-22
2.72407E-02 5.57219E-22
2.79555E-02 5.28026E-22
2.86793E-02 5.00700E-22
2.94120E-02 4.75100E-22
3.01537E-02 4.51098E-22
3.09043E-02 4.28576E-22
3.16639E-02 4.07426E-22
3.24324E-02 3.87550E-22
3.32098E-02 3.68858E-22
3.39961E-02 3.51266E-22
3.47912E-02 3.34698E-22
3.55952E-02 3.19084E-22
3.64081E-02 3.04359E-22
3.72297E-02 2.90464E-22
3.80602E-02 2.77343E-22
3.88995E-02 2.64945E-22
3.97476E-02 2.53224E-22
4.06044E-02 2.42136E-22
4.14700E-02 2.31641E-22
4.23443E-02 2.21701E-22
4.32273E-02 2.12281E-22
4.41190E-02 2.03350E-22
4.50194E-02 1.94877E-22
4.59284E-02 1.86836E-22
4.68461E-02 1.79199E-22
4.87074E-02 1.65046E-22
5.06030E-02 1.52245E-22
5.25328E-02 1.40644E-22
5.44967E-02 1.30113E-22
5.64946E-02 1.20536E-22
5.85262E-02 1.11812E-22
6.05914E-02 1.03852E-22
6.26901E-02 9.65767E-23
6.48222E-02 8.99185E-23
6.69873E-02 8.38156E-23
6.91854E-02 7.82139E-23
7.14163E-02 7.30651E-23
7.36799E-02 6.83263E-23
7.59760E-02 6.39594E-23
7.83043E-02 5.99300E-23
8.06647E-02 5.62078E-23
8.30571E-02 5.27651E-23
8.54812E-02 4.95774E-23
8.79369E-02 4.66226E-23
9.04240E-02 4.38808E-23
9.29422E-02 4.13339E-23
9.54915E-02 3.89657E-23
9.80716E-02 3.67615E-23
1.00682E-01 3.47081E-23
1.03323E-01 3.27932E-23
1.05995E-01 3.10060E-23
1.08696E-01 2.93364E-23
1.11427E-01 2.77754E-23
1.14188E-01 2.63147E-23
1.16978E-01 2.49468E-23
1.19797E-01 2.36647E-23
1.22645E-01 2.24622E-23
1.25522E-01 2.13333E-23
1.28428E-01 2.02730E-23
1.31361E-01 1.92761E-23
1.34323E-01 1.83384E-23
1.37313E-01 1.74557E-23
1.40330E-01 1.66242E-23
1.43375E-01 1.58404E-23
1.46447E-01 1.51011E-23
1.49545E-01 1.44034E-23
1.52671E-01 1.37445E-23
1.55823E-01 1.31219E-23
1.59001E-01 1.25332E-23
1.62205E-01 1.19763E-23
1.65435E-01 1.14491E-23
1.68690E-01 1.09498E-23
1.71970E-01 1.04767E-23
1.75276E-01 1.00282E-23
1.78606E-01 9.60265E-24
1.81961E-01 9.19883E-24
1.85340E-01 8.81541E-24
1.88743E-01 8.45111E-24
1.92169E-01 8.10488E-24
1.95619E-01 7.77566E-24
1.99092E-01 7.46245E-24
2.02589E-01 7.16435E-24
2.06107E-01 6.88050E-24
2.09649E-01 6.61011E-24
2.13212E-01 6.35243E-24
2.16797E-01 6.10675E-24
2.20404E-01 5.87242E-24
2.24032E-01 5.64883E-24
2.27680E-01 5.43541E-24
2.31350E-01 5.23160E-24
2.35040E-01 5.03690E-24
2.38751E-01 4.85084E-24
2.42481E-01 4.67297E-24
2.46231E-01 4.50286E-24
2.50000E-01 4.34012E-24
2.53788E-01 4.18437E-24
2.57595E-01 4.03526E-24
2.61421E-01 3.89246E-24
2.65264E-01 3.75566E-24
2.69126E-01 3.62457E-24
2.73005E-01 3.49889E-24
2.76901E-01 3.37838E-24
2.80814E-01 3.26279E-24
2.84744E-01 3.15187E-24
2.88691E-01 3.04541E-24
2.92653E-01 2.94320E-24
2.96632E-01 2.84504E-24
3.00625E-01 2.75074E-24
3.04634E-01 2.66012E-24
3.08658E-01 2.57302E-24
3.12697E-01 2.48928E-24
3.16749E-01 2.40874E-24
3.20816E-01 2.33127E-24
3.24896E-01 2.25672E-24
3.28990E-01 2.18497E-24
3.33097E-01 2.11589E-24
3.37216E-01 2.04937E-24
3.41348E-01 1.98529E-24
3.45492E-01 1.92356E-24
3.49647E-01 1.86407E-24
3.53814E-01 1.80673E-24
3.57992E-01 1.75144E-24
3.62181E-01 1.69813E-24
3.66381E-01 1.64670E-24
3.70590E-01 1.59708E-24
3.74810E-01 1.54920E-24
3.79039E-01 1.50299E-24
3.83277E-01 1.45837E-24
3.87524E-01 1.41529E-24
3.91780E-01 1.37367E-24
3.96044E-01 1.33347E-24
4.00316E-01 1.29463E-24
4.04596E-01 1.25709E-24
4.08882E-01 1.22081E-24
4.13176E-01 1.18573E-24
4.17476E-01 1.15180E-24
4.21783E-01 1.11899E-24
4.26095E-01 1.08725E-24
4.30413E-01 1.05654E-24
4.34737E-01 1.02682E-24
4.39065E-01 9.98060E-25
4.43398E-01 9.70214E-25
4.47736E-01 9.43253E-25
4.52077E-01 9.17144E-25
4.56422E-01 8.91854E-25
4.60770E-01 8.67352E-25
4.65122E-01 8.43607E-25
4.69476E-01 8.20597E-25
4.73832E-01 7.98295E-25
4.78190E-01 7.76675E-25
4.82550E-01 7.55714E-25
4.86912E-01 7.35388E-25
4.91274E-01 7.15675E-25
4.95637E-01 6.96553E-25
5.00000E-01 6.78002E-25
5.04363E-01 6.60002E-25
5.08726E-01 6.42534E-25
5.13088E-01 6.25580E-25
5.17450E-01 6.09122E-25
5.21810E-01 5.93144E-25
5.26168E-01 5.77629E-25
5.30524E-01 5.62562E-25
5.34878E-01 5.47928E-25
5.39230E-01 5.33712E-25
5.43578E-01 5.19901E-25
5.47923E-01 5.06482E-25
5.52264E-01 4.93441E-25
5.56602E-01 4.80766E-25
5.60935E-01 4.68445E-25
5.65263E-01 4.56468E-25
5.69587E-01 4.44822E-25
5.73905E-01 4.33498E-25
5.78217E-01 4.22485E-25
5.82524E-01 4.11773E-25
5.86824E-01 4.01353E-25
5.91118E-01 3.91216E-25
5.95404E-01 3.81353E-25
5.99684E-01 3.71755E-25
6.03956E-01 3.62414E-25
6.08220E-01 3.53322E-25
6.12476E-01 3.44472E-25
6.16723E-01 3.35856E-25
6.20961E-01 3.27467E-25
6.25190E-01 3.19299E-25
6.29410E-01 3.11344E-25
6.33619E-01 3.03597E-25
6.37819E-01 2.96050E-25
6.42008E-01 2.88699E-25
6.46186E-01 2.81537E-25
6.50353E-01 2.74560E-25
6.54508E-01 2.67760E-25
6.58652E-01 2.61134E-25
6.62784E-01 2.54676E-25
6.66903E-01 2.48381E-25
6.71010E-01 2.42245E-25
6.75104E-01 2.36263E-25
6.79184E-01 2.30431E-25
6.83251E-01 2.24745E-25
6.87303E-01 2.19200E-25
6.91342E-01 2.13792E-25
6.95366E-01 2.08518E-25
6.99375E-01 2.03374E-25
7.03368E-01 1.98356E-25
7.07347E-01 1.93461E-25
7.11309E-01 1.88685E-25
7.15256E-01 1.84025E-25
7.19186E-01 1.79478E-25
7.23099E-01 1.75041E-25
7.26995E-01 1.70712E-25
7.30874E-01 1.66486E-25
7.34736E-01 1.62361E-25
7.38579E-01 1.58335E-25
7.42405E-01 1.54405E-25
7.46212E-01 1.50568E-25
7.50000E-01 1.46822E-25
7.53769E-01 1.43165E-25
7.57519E-01 1.39594E-25
7.61249E-01 1.36107E-25
7.64960E-01 1.32702E-25
7.68650E-01 1.29376E-25
7.72320E-01 1.26128E-25
7.75968E-01 1.22956E-25
7.79596E-01 1.19858E-25
7.83203E-01 1.16831E-25
7.86788E-01 1.13875E-25
7.90351E-01 1.10987E-25
7.93893E-01 1.08166E-25
7.97411E-01 1.05409E-25
8.00908E-01 1.02716E-25
8.04381E-01 1.00085E-25
8.07831E-01 9.75136E-26
8.11257E-01 9.50013E-26
8.14660E-01 9.25464E-26
8.18039E-01 9.01475E-26
8.21394E-01 8.78032E-26
8.24724E-01 8.55123E-26
8.28030E-01 8.32734E-26
8.31310E-01 8.10853E-26
8.34565E-01 7.89469E-26
8.37795E-01 7.68569E-26
8.40999E-01 7.48142E-26
8.44177E-01 7.28178E-26
8.47329E-01 7.08665E-26
8.50455E-01 6.89593E-26
8.53553E-01 6.70952E-26
8.56625E-01 6.52732E-26
8.59670E-01 6.34924E-26
8.62687E-01 6.17518E-26
8.65677E-01 6.00505E-26
8.68639E-01 5.83877E-26
8.71572E-01 5.67625E-26
8.74478E-01 5.51741E-26
8.77355E-01 5.36216E-26
8.80203E-01 5.21044E-26
8.83022E-01 5.06215E-26
8.85812E-01 4.91723E-26
8.88573E-01 4.77561E-26
8.91304E-01 4.63722E-26
8.94005E-01 4.50198E-26
8.96677E-01 4.36983E-26
8.99318E-01 4.24071E-26
9.01928E-01 4.11456E-26
9.04508E-01 3.99131E-26
9.07058E-01 3.87090E-26
9.09576E-01 3.75328E-26
9.12063E-01 3.63839E-26
9.14519E-01 3.52617E-26
9.16943E-01 3.41658E-26
9.19335E-01 3.30956E-26
9.21696E-01 3.20507E-26
9.24024E-01 3.10304E-26
9.26320E-01 3.00344E-26
9.28584E-01 2.90623E-26
9.30815E-01 2.81134E-26
9.33013E-01 2.71875E-26
9.35178E-01 2.62841E-26
9.37310E-01 2.54027E-26
9.39409E-01 2.45430E-26
9.41474E-01 2.37047E-26
9.43505E-01 2.28872E-26
9.45503E-01 2.20903E-26
9.47467E-01 2.13136E-26
9.49397E-01 2.05567E-26
9.51293E-01 1.98194E-26
9.53154E-01 1.91012E-26
9.54981E-01 1.84019E-26
9.56773E-01 1.77212E-26
9.58530E-01 1.70588E-26
9.60252E-01 1.64143E-26
9.61940E-01 1.57875E-26
9.63592E-01 1.51782E-26
9.65209E-01 1.45860E-26
9.66790E-01 1.40108E-26
9.68336E-01 1.34522E-26
9.69846E-01 1.29100E-26
9.71321E-01 1.23841E-26
9.72759E-01 1.18741E-26
9.74162E-01 1.13798E-26
9.75528E-01 1.09012E-26
9.76858E-01 1.04378E-26
9.78152E-01 9.98962E-27
9.79410E-01 9.55639E-27
9.80631E-01 9.13794E-27
9.81815E-01 8.73409E-27
9.82963E-01 8.34468E-27
9.84074E-01 7.96955E-27
9.85148E-01 7.60853E-27
9.86185E-01 7.26148E-27
9.87185E-01 6.92826E-27
9.88148E-01 6.60872E-27
9.89074E-01 6.30275E-27
9.89962E-01 6.01020E-27
9.90814E-01 5.73096E-27
9.91627E-01 5.46492E-27
9.92404E-01 5.21196E-27
9.93143E-01 4.97199E-27
9.93844E-01 4.74490E-27
9.94508E-01 4.53060E-27
9.95134E-01 4.32901E-27
9.95722E-01 4.14005E-27
9.96273E-01 3.96363E-27
9.96786E-01 3.79968E-27
9.97261E-01 3.64815E-27
9.97698E-01 3.50896E-27
9.98097E-01 3.38206E-27
9.98459E-01 3.26740E-27
9.98782E-01 3.16494E-27
9.99067E-01 3.07462E-27
9.99315E-01 2.99642E-27
9.99524E-01 2.93031E-27
9.99695E-01 2.87625E-27
9.99829E-01 2.83423E-27
9.99924E-01 2.80423E-27
9.99981E-01 2.78623E-27
1.00000E+00 2.78023E-27
