 #
 # Subroutine ELSEPA. Elastic scattering of electrons and positrons
 #                    by neutral atoms and positive ions
 #
 # Projectile: positron
 # Kinetic energy = 1.50000E+08 eV = 5.51240E+06 a.u.
 #
 # WARNING: High-energy factorization with free-atom DF screening.
 #          Absorption, polarization and exchange corrections are
 #          switched off.
 #          Phase shifts are calculated for the bare nucleus.
 #          Scattering amplitudes are not evaluated.
 #
 # Element: Hf,  Z =  72,  atomic weight = 1.78490E+02 g/mol
 #
 # Nuclear model: Fermi distribution
 #                Average radius = 6.02451E-13 cm
 #                Skin thickness = 5.46000E-14 cm
 #
 # Number of electrons = 72
 #
 # Total elastic cross section = 7.31562E-18 cm**2 = 2.61246E-01 a0**2
 # 1st transport cross section = 4.26374E-25 cm**2 = 1.52261E-08 a0**2
 # 2nd transport cross section = 1.27354E-24 cm**2 = 4.54789E-08 a0**2
 #
 #
 # Differential cross section:                       MU=(1-COS(THETA))/2
 #
 #  THETA        MU          DCS          DCS        Sherman      error
 #  (deg)                 (cm**2/sr)   (a0**2/sr)    function
 #----------------------------------------------------------------------
0.00000E+00 1.43132E-09
7.61557E-13 1.42096E-09
1.18994E-12 1.41519E-09
1.71346E-12 1.40820E-09
2.33225E-12 1.40001E-09
3.04617E-12 1.39066E-09
3.85530E-12 1.38019E-09
4.75964E-12 1.36865E-09
5.75917E-12 1.35607E-09
6.85391E-12 1.34252E-09
8.04379E-12 1.32805E-09
9.32893E-12 1.31271E-09
1.07092E-11 1.29654E-09
1.21847E-11 1.27962E-09
1.37554E-11 1.26204E-09
1.54213E-11 1.24389E-09
1.71823E-11 1.22509E-09
1.90386E-11 1.20581E-09
2.09900E-11 1.18614E-09
2.30367E-11 1.16611E-09
2.51785E-11 1.14566E-09
2.74156E-11 1.12500E-09
2.97478E-11 1.10419E-09
3.21752E-11 1.08319E-09
3.46979E-11 1.06204E-09
3.73157E-11 1.04089E-09
4.00286E-11 1.01980E-09
4.28368E-11 9.98629E-10
4.57402E-11 9.77562E-10
4.87388E-11 9.56665E-10
5.18325E-11 9.35937E-10
5.50215E-11 9.15296E-10
5.83057E-11 8.94918E-10
6.16850E-11 8.74828E-10
6.51595E-11 8.54960E-10
6.87293E-11 8.35349E-10
7.23943E-11 8.16086E-10
7.61544E-11 7.97183E-10
1.18991E-10 6.27584E-10
1.71347E-10 4.95431E-10
2.33223E-10 3.95818E-10
3.04617E-10 3.21146E-10
3.85531E-10 2.64539E-10
4.75965E-10 2.20873E-10
5.75917E-10 1.86505E-10
6.85389E-10 1.58916E-10
8.04380E-10 1.36386E-10
9.32891E-10 1.17771E-10
1.07092E-09 1.01651E-10
1.21847E-09 8.79833E-11
1.37554E-09 7.71114E-11
1.54213E-09 6.83531E-11
1.71823E-09 6.00570E-11
1.90386E-09 5.29854E-11
2.09900E-09 4.71703E-11
2.30367E-09 4.22499E-11
2.51785E-09 3.75581E-11
2.74156E-09 3.36297E-11
2.97478E-09 3.03150E-11
3.21752E-09 2.73324E-11
3.46978E-09 2.46266E-11
3.73156E-09 2.23108E-11
4.00286E-09 2.03169E-11
4.28368E-09 1.84419E-11
4.57402E-09 1.67894E-11
4.87388E-09 1.53507E-11
5.18326E-09 1.40716E-11
5.50215E-09 1.28672E-11
5.83057E-09 1.18085E-11
6.16850E-09 1.08741E-11
6.51596E-09 1.00118E-11
6.87293E-09 9.21941E-12
7.23942E-09 8.51467E-12
7.61544E-09 7.88579E-12
1.18991E-08 3.82060E-12
1.71347E-08 2.04630E-12
2.33223E-08 1.19345E-12
3.04617E-08 7.45887E-13
3.85531E-08 4.92649E-13
4.75965E-08 3.39508E-13
5.75917E-08 2.41622E-13
6.85389E-08 1.76608E-13
8.04380E-08 1.32040E-13
9.32891E-08 1.00628E-13
1.07092E-07 7.79290E-14
1.21847E-07 6.13527E-14
1.37554E-07 4.88971E-14
1.54213E-07 3.94676E-14
1.71823E-07 3.22136E-14
1.90386E-07 2.65351E-14
2.09900E-07 2.20604E-14
2.30367E-07 1.84947E-14
2.51785E-07 1.56168E-14
2.74156E-07 1.32786E-14
2.97478E-07 1.13643E-14
3.21752E-07 9.78182E-15
3.46978E-07 8.46536E-15
3.73156E-07 7.36427E-15
4.00286E-07 6.43647E-15
4.28368E-07 5.64989E-15
4.57402E-07 4.98049E-15
4.87388E-07 4.40755E-15
5.18325E-07 3.91424E-15
5.50215E-07 3.48837E-15
5.83057E-07 3.11908E-15
6.16850E-07 2.79701E-15
6.51596E-07 2.51561E-15
6.87293E-07 2.26883E-15
7.23942E-07 2.05140E-15
7.61543E-07 1.85942E-15
1.18991E-06 7.79260E-16
1.71347E-06 3.81118E-16
2.33223E-06 2.07654E-16
3.04617E-06 1.22553E-16
3.85531E-06 7.69139E-17
4.75964E-06 5.06786E-17
5.75916E-06 3.47363E-17
6.85388E-06 2.45986E-17
8.04378E-06 1.79037E-17
9.32888E-06 1.33390E-17
1.07092E-05 1.01403E-17
1.21846E-05 7.84514E-18
1.37553E-05 6.16386E-18
1.54212E-05 4.90959E-18
1.71822E-05 3.95857E-18
1.90385E-05 3.22527E-18
2.09899E-05 2.65696E-18
2.30365E-05 2.20807E-18
2.51783E-05 1.84954E-18
2.74153E-05 1.56047E-18
2.97475E-05 1.32550E-18
3.21749E-05 1.13308E-18
3.46974E-05 9.74414E-19
3.73152E-05 8.42666E-19
4.00281E-05 7.32522E-19
4.28362E-05 6.39826E-19
4.57395E-05 5.61326E-19
4.87380E-05 4.94467E-19
5.18317E-05 4.37233E-19
5.50205E-05 3.88016E-19
5.83045E-05 3.45518E-19
6.16838E-05 3.08680E-19
6.51582E-05 2.76629E-19
6.87277E-05 2.48639E-19
7.23925E-05 2.24105E-19
7.61524E-05 2.02694E-19
9.21439E-05 1.38442E-19
1.09658E-04 9.77322E-20
1.28695E-04 7.09459E-20
1.49255E-04 5.27314E-20
1.71338E-04 4.00042E-20
1.94942E-04 3.08928E-20
2.20070E-04 2.42326E-20
2.46720E-04 1.92736E-20
2.74892E-04 1.55197E-20
3.04586E-04 1.26364E-20
3.35803E-04 1.03921E-20
3.68542E-04 8.62425E-21
4.02802E-04 7.21654E-21
4.38585E-04 6.08443E-21
4.75889E-04 5.16563E-21
5.14715E-04 4.41373E-21
5.55063E-04 3.79362E-21
5.96931E-04 3.27855E-21
6.40321E-04 2.84788E-21
6.85233E-04 2.48555E-21
7.31665E-04 2.17896E-21
7.79618E-04 1.91813E-21
8.29092E-04 1.69511E-21
8.80086E-04 1.50351E-21
9.32601E-04 1.33818E-21
9.86636E-04 1.19491E-21
1.04219E-03 1.07026E-21
1.09927E-03 9.61413E-22
1.15786E-03 8.66012E-22
1.21797E-03 7.82099E-22
1.27961E-03 7.08071E-22
1.34276E-03 6.42566E-22
1.40743E-03 5.84434E-22
1.47362E-03 5.32702E-22
1.54133E-03 4.86544E-22
1.61056E-03 4.45254E-22
1.68131E-03 4.08232E-22
1.75357E-03 3.74958E-22
1.82735E-03 3.44988E-22
1.90265E-03 3.17935E-22
1.97947E-03 2.93466E-22
2.05780E-03 2.71292E-22
2.13765E-03 2.51159E-22
2.21902E-03 2.32845E-22
2.30190E-03 2.16159E-22
2.38630E-03 2.00929E-22
2.47222E-03 1.87006E-22
2.55965E-03 1.74258E-22
2.64859E-03 1.62568E-22
2.73905E-03 1.51834E-22
2.83103E-03 1.41962E-22
2.92452E-03 1.32871E-22
3.01952E-03 1.24490E-22
3.11604E-03 1.16751E-22
3.21407E-03 1.09598E-22
3.31362E-03 1.02978E-22
3.41468E-03 9.68442E-23
3.51725E-03 9.11547E-23
3.62133E-03 8.58716E-23
3.72692E-03 8.09605E-23
3.83403E-03 7.63907E-23
3.94265E-03 7.21342E-23
4.05278E-03 6.81657E-23
4.16442E-03 6.44623E-23
4.27757E-03 6.10029E-23
4.39223E-03 5.77688E-23
4.50840E-03 5.47427E-23
4.62608E-03 5.19087E-23
4.74527E-03 4.92525E-23
4.86597E-03 4.67609E-23
4.98817E-03 4.44220E-23
5.11188E-03 4.22247E-23
5.23711E-03 4.01589E-23
5.36383E-03 3.82153E-23
5.49207E-03 3.63855E-23
5.62181E-03 3.46616E-23
5.75306E-03 3.30363E-23
5.88581E-03 3.15030E-23
6.02007E-03 3.00557E-23
6.15583E-03 2.86885E-23
6.29310E-03 2.73963E-23
6.43187E-03 2.61743E-23
6.57214E-03 2.50180E-23
6.71392E-03 2.39231E-23
6.85720E-03 2.28860E-23
7.00198E-03 2.19029E-23
7.14827E-03 2.09706E-23
7.29605E-03 2.00859E-23
7.44534E-03 1.92461E-23
7.59612E-03 1.84485E-23
7.97965E-03 1.66229E-23
8.37255E-03 1.50111E-23
8.77480E-03 1.35842E-23
9.18641E-03 1.23175E-23
9.60736E-03 1.11901E-23
1.00376E-02 1.01844E-23
1.04773E-02 9.28512E-24
1.09262E-02 8.47919E-24
1.13844E-02 7.75540E-24
1.18520E-02 7.10407E-24
1.23288E-02 6.51680E-24
1.28150E-02 5.98632E-24
1.33104E-02 5.50628E-24
1.38150E-02 5.07113E-24
1.43290E-02 4.67603E-24
1.48521E-02 4.31674E-24
1.53845E-02 3.98950E-24
1.59262E-02 3.69103E-24
1.64770E-02 3.41841E-24
1.70371E-02 3.16906E-24
1.76063E-02 2.94071E-24
1.81848E-02 2.73132E-24
1.87724E-02 2.53909E-24
1.93692E-02 2.36240E-24
1.99751E-02 2.19981E-24
2.05901E-02 2.05003E-24
2.12143E-02 1.91191E-24
2.18476E-02 1.78441E-24
2.24900E-02 1.66661E-24
2.31415E-02 1.55765E-24
2.38021E-02 1.45678E-24
2.44717E-02 1.36331E-24
2.51504E-02 1.27664E-24
2.58382E-02 1.19619E-24
2.65349E-02 1.12147E-24
2.72407E-02 1.05200E-24
2.79555E-02 9.87367E-25
2.86793E-02 9.27195E-25
2.94120E-02 8.71133E-25
3.01537E-02 8.18864E-25
3.09043E-02 7.70099E-25
3.16639E-02 7.24572E-25
3.24324E-02 6.82042E-25
3.32098E-02 6.42287E-25
3.39961E-02 6.05104E-25
3.47912E-02 5.70305E-25
3.55952E-02 5.37720E-25
3.64081E-02 5.07191E-25
3.72297E-02 4.78573E-25
3.80602E-02 4.51733E-25
3.88995E-02 4.26546E-25
3.97476E-02 4.02901E-25
4.06044E-02 3.80691E-25
4.14700E-02 3.59821E-25
4.23443E-02 3.40199E-25
4.32273E-02 3.21745E-25
4.41190E-02 3.04380E-25
4.50194E-02 2.88033E-25
4.59284E-02 2.72640E-25
4.68461E-02 2.58138E-25
4.87074E-02 2.31584E-25
5.06030E-02 2.07964E-25
5.25328E-02 1.86925E-25
5.44967E-02 1.68159E-25
5.64946E-02 1.51400E-25
5.85262E-02 1.36416E-25
6.05914E-02 1.23003E-25
6.26901E-02 1.10985E-25
6.48222E-02 1.00204E-25
6.69873E-02 9.05251E-26
6.91854E-02 8.18270E-26
7.14163E-02 7.40037E-26
7.36799E-02 6.69617E-26
7.59760E-02 6.06178E-26
7.83043E-02 5.48989E-26
8.06647E-02 4.97397E-26
8.30571E-02 4.50826E-26
8.54812E-02 4.08759E-26
8.79369E-02 3.70741E-26
9.04240E-02 3.36362E-26
9.29422E-02 3.05258E-26
9.54915E-02 2.77104E-26
9.80716E-02 2.51608E-26
1.00682E-01 2.28510E-26
1.03323E-01 2.07576E-26
1.05995E-01 1.88596E-26
1.08696E-01 1.71381E-26
1.11427E-01 1.55763E-26
1.14188E-01 1.41589E-26
1.16978E-01 1.28722E-26
1.19797E-01 1.17038E-26
1.22645E-01 1.06427E-26
1.25522E-01 9.67870E-27
1.28428E-01 8.80281E-27
1.31361E-01 8.00683E-27
1.34323E-01 7.28334E-27
1.37313E-01 6.62564E-27
1.40330E-01 6.02768E-27
1.43375E-01 5.48396E-27
1.46447E-01 4.98951E-27
1.49545E-01 4.53984E-27
1.52671E-01 4.13085E-27
1.55823E-01 3.75884E-27
1.59001E-01 3.42045E-27
1.62205E-01 3.11262E-27
1.65435E-01 2.83260E-27
1.68690E-01 2.57786E-27
1.71970E-01 2.34613E-27
1.75276E-01 2.13531E-27
1.78606E-01 1.94353E-27
1.81961E-01 1.76906E-27
1.85340E-01 1.61035E-27
1.88743E-01 1.46599E-27
1.92169E-01 1.33466E-27
1.95619E-01 1.21521E-27
1.99092E-01 1.10657E-27
2.02589E-01 1.00775E-27
2.06107E-01 9.17876E-28
2.09649E-01 8.36141E-28
2.13212E-01 7.61811E-28
2.16797E-01 6.94218E-28
2.20404E-01 6.32754E-28
2.24032E-01 5.76865E-28
2.27680E-01 5.26047E-28
2.31350E-01 4.79841E-28
2.35040E-01 4.37830E-28
2.38751E-01 3.99633E-28
2.42481E-01 3.64904E-28
2.46231E-01 3.33329E-28
2.50000E-01 3.04620E-28
2.53788E-01 2.78516E-28
2.57595E-01 2.54779E-28
2.61421E-01 2.33194E-28
2.65264E-01 2.13564E-28
2.69126E-01 1.95710E-28
2.73005E-01 1.79470E-28
2.76901E-01 1.64694E-28
2.80814E-01 1.51249E-28
2.84744E-01 1.39012E-28
2.88691E-01 1.27872E-28
2.92653E-01 1.17728E-28
2.96632E-01 1.08488E-28
3.00625E-01 1.00069E-28
3.04634E-01 9.23937E-29
3.08658E-01 8.53947E-29
3.12697E-01 7.90089E-29
3.16749E-01 7.31797E-29
3.20816E-01 6.78556E-29
3.24896E-01 6.29897E-29
3.28990E-01 5.85397E-29
3.33097E-01 5.44671E-29
3.37216E-01 5.07371E-29
3.41348E-01 4.73179E-29
3.45492E-01 4.41811E-29
3.49647E-01 4.13005E-29
3.53814E-01 3.86526E-29
3.57992E-01 3.62162E-29
3.62181E-01 3.39720E-29
3.66381E-01 3.19024E-29
3.70590E-01 2.99916E-29
3.74810E-01 2.82252E-29
3.79039E-01 2.65905E-29
3.83277E-01 2.50755E-29
3.87524E-01 2.36697E-29
3.91780E-01 2.23634E-29
3.96044E-01 2.11481E-29
4.00316E-01 2.00157E-29
4.04596E-01 1.89592E-29
4.08882E-01 1.79722E-29
4.13176E-01 1.70489E-29
4.17476E-01 1.61838E-29
4.21783E-01 1.53724E-29
4.26095E-01 1.46103E-29
4.30413E-01 1.38935E-29
4.34737E-01 1.32185E-29
4.39065E-01 1.25821E-29
4.43398E-01 1.19814E-29
4.47736E-01 1.14137E-29
4.52077E-01 1.08767E-29
4.56422E-01 1.03681E-29
4.60770E-01 9.88606E-30
4.65122E-01 9.42866E-30
4.69476E-01 8.99431E-30
4.73832E-01 8.58149E-30
4.78190E-01 8.18884E-30
4.82550E-01 7.81511E-30
4.86912E-01 7.45915E-30
4.91274E-01 7.11992E-30
4.95637E-01 6.79645E-30
5.00000E-01 6.48785E-30
5.04363E-01 6.19330E-30
5.08726E-01 5.91206E-30
5.13088E-01 5.64343E-30
5.17450E-01 5.38675E-30
5.21810E-01 5.14143E-30
5.26168E-01 4.90691E-30
5.30524E-01 4.68268E-30
5.34878E-01 4.46823E-30
5.39230E-01 4.26313E-30
5.43578E-01 4.06694E-30
5.47923E-01 3.87927E-30
5.52264E-01 3.69973E-30
5.56602E-01 3.52796E-30
5.60935E-01 3.36365E-30
5.65263E-01 3.20646E-30
5.69587E-01 3.05609E-30
5.73905E-01 2.91226E-30
5.78217E-01 2.77469E-30
5.82524E-01 2.64313E-30
5.86824E-01 2.51732E-30
5.91118E-01 2.39703E-30
5.95404E-01 2.28204E-30
5.99684E-01 2.17213E-30
6.03956E-01 2.06709E-30
6.08220E-01 1.96672E-30
6.12476E-01 1.87083E-30
6.16723E-01 1.77924E-30
6.20961E-01 1.69177E-30
6.25190E-01 1.60826E-30
6.29410E-01 1.52854E-30
6.33619E-01 1.45246E-30
6.37819E-01 1.37986E-30
6.42008E-01 1.31061E-30
6.46186E-01 1.24456E-30
6.50353E-01 1.18158E-30
6.54508E-01 1.12154E-30
6.58652E-01 1.06432E-30
6.62784E-01 1.00979E-30
6.66903E-01 9.57849E-31
6.71010E-01 9.08379E-31
6.75104E-01 8.61276E-31
6.79184E-01 8.16437E-31
6.83251E-01 7.73763E-31
6.87303E-01 7.33161E-31
6.91342E-01 6.94539E-31
6.95366E-01 6.57809E-31
6.99375E-01 6.22887E-31
7.03368E-01 5.89694E-31
7.07347E-01 5.58150E-31
7.11309E-01 5.28181E-31
7.15256E-01 4.99717E-31
7.19186E-01 4.72687E-31
7.23099E-01 4.47026E-31
7.26995E-01 4.22671E-31
7.30874E-01 3.99560E-31
7.34736E-01 3.77636E-31
7.38579E-01 3.56843E-31
7.42405E-01 3.37127E-31
7.46212E-01 3.18437E-31
7.50000E-01 3.00723E-31
7.53769E-01 2.83940E-31
7.57519E-01 2.68042E-31
7.61249E-01 2.52985E-31
7.64960E-01 2.38729E-31
7.68650E-01 2.25234E-31
7.72320E-01 2.12463E-31
7.75968E-01 2.00379E-31
7.79596E-01 1.88949E-31
7.83203E-01 1.78139E-31
7.86788E-01 1.67919E-31
7.90351E-01 1.58257E-31
7.93893E-01 1.49127E-31
7.97411E-01 1.40500E-31
8.00908E-01 1.32351E-31
8.04381E-01 1.24654E-31
8.07831E-01 1.17387E-31
8.11257E-01 1.10527E-31
8.14660E-01 1.04052E-31
8.18039E-01 9.79429E-32
8.21394E-01 9.21792E-32
8.24724E-01 8.67430E-32
8.28030E-01 8.16166E-32
8.31310E-01 7.67834E-32
8.34565E-01 7.22276E-32
8.37795E-01 6.79340E-32
8.40999E-01 6.38885E-32
8.44177E-01 6.00774E-32
8.47329E-01 5.64877E-32
8.50455E-01 5.31074E-32
8.53553E-01 4.99247E-32
8.56625E-01 4.69286E-32
8.59670E-01 4.41087E-32
8.62687E-01 4.14551E-32
8.65677E-01 3.89584E-32
8.68639E-01 3.66096E-32
8.71572E-01 3.44004E-32
8.74478E-01 3.23227E-32
8.77355E-01 3.03691E-32
8.80203E-01 2.85323E-32
8.83022E-01 2.68056E-32
8.85812E-01 2.51826E-32
8.88573E-01 2.36572E-32
8.91304E-01 2.22237E-32
8.94005E-01 2.08767E-32
8.96677E-01 1.96111E-32
8.99318E-01 1.84221E-32
9.01928E-01 1.73051E-32
9.04508E-01 1.62559E-32
9.07058E-01 1.52703E-32
9.09576E-01 1.43445E-32
9.12063E-01 1.34749E-32
9.14519E-01 1.26581E-32
9.16943E-01 1.18910E-32
9.19335E-01 1.11705E-32
9.21696E-01 1.04936E-32
9.24024E-01 9.85791E-33
9.26320E-01 9.26070E-33
9.28584E-01 8.69966E-33
9.30815E-01 8.17256E-33
9.33013E-01 7.67729E-33
9.35178E-01 7.21187E-33
9.37310E-01 6.77447E-33
9.39409E-01 6.36332E-33
9.41474E-01 5.97680E-33
9.43505E-01 5.61337E-33
9.45503E-01 5.27158E-33
9.47467E-01 4.95010E-33
9.49397E-01 4.64763E-33
9.51293E-01 4.36300E-33
9.53154E-01 4.09509E-33
9.54981E-01 3.84286E-33
9.56773E-01 3.60534E-33
9.58530E-01 3.38159E-33
9.60252E-01 3.17078E-33
9.61940E-01 2.97209E-33
9.63592E-01 2.78478E-33
9.65209E-01 2.60815E-33
9.66790E-01 2.44155E-33
9.68336E-01 2.28435E-33
9.69846E-01 2.13600E-33
9.71321E-01 1.99597E-33
9.72759E-01 1.86375E-33
9.74162E-01 1.73888E-33
9.75528E-01 1.62094E-33
9.76858E-01 1.50952E-33
9.78152E-01 1.40424E-33
9.79410E-01 1.30477E-33
9.80631E-01 1.21077E-33
9.81815E-01 1.12196E-33
9.82963E-01 1.03804E-33
9.84074E-01 9.58763E-34
9.85148E-01 8.83885E-34
9.86185E-01 8.13183E-34
9.87185E-01 7.46451E-34
9.88148E-01 6.83500E-34
9.89074E-01 6.24152E-34
9.89962E-01 5.68244E-34
9.90814E-01 5.15625E-34
9.91627E-01 4.66156E-34
9.92404E-01 4.19708E-34
9.93143E-01 3.76164E-34
9.93844E-01 3.35415E-34
9.94508E-01 2.97362E-34
9.95134E-01 2.61913E-34
9.95722E-01 2.28986E-34
9.96273E-01 1.98505E-34
9.96786E-01 1.70400E-34
9.97261E-01 1.44608E-34
9.97698E-01 1.21073E-34
9.98097E-01 9.97460E-35
9.98459E-01 8.05792E-35
9.98782E-01 6.35333E-35
9.99067E-01 4.85731E-35
9.99315E-01 3.56676E-35
9.99524E-01 2.47907E-35
9.99695E-01 1.59213E-35
9.99829E-01 9.04024E-36
9.99924E-01 4.13511E-36
9.99981E-01 1.19584E-36
1.00000E+00 2.17119E-37
